 $NMID ID='MM_0lb_SNR400_17hz_g50_36.RAW', FMTDAT='(8E13.5)'
 TRAMP=1., VOLUME=1. $END
  3.09854E+05 -2.45332E+02  3.37461E+05  2.50396E+05  8.40962E+04  3.37246E+05 -1.33044E+05  2.50434E+05
 -1.89972E+05  8.25367E+04 -1.11253E+05 -3.25538E+04  6.98793E+02 -5.06992E+04  5.41052E+04  2.46052E+02
  3.57357E+04  5.29372E+04 -1.74023E+04  7.49059E+04 -6.08105E+04  6.30923E+04 -8.37485E+04  3.23300E+04
 -8.03375E+04 -1.09937E+04 -5.65333E+04 -5.06607E+04 -1.50444E+04 -6.88295E+04  2.65403E+04 -4.47712E+04
  3.96194E+04  4.38305E+03  1.56586E+04  4.79972E+04 -3.42652E+04  4.68193E+04 -6.53434E+04 -1.96160E+02
 -5.27636E+04 -5.63002E+04 -6.81506E+03 -7.61879E+04  3.37765E+04 -5.44069E+04  4.78521E+04 -1.69853E+04
  4.23966E+04  1.06252E+04  3.12885E+04  2.48401E+04  1.58395E+04  2.88561E+04 -4.75320E+03  2.68887E+04
 -2.23172E+04  1.27048E+04 -1.87907E+04 -4.71739E+03  4.87277E+03 -7.88924E+03  2.16014E+04  1.16002E+04
  8.02910E+03  3.40964E+04 -3.12569E+04  3.41466E+04 -6.15450E+04  2.51441E+03 -5.57196E+04 -4.14828E+04
 -1.23036E+04 -6.09315E+04  3.90300E+04 -4.42807E+04  5.69563E+04 -2.04297E+03  3.26289E+04  3.16278E+04
 -6.42481E+03  3.39406E+04 -2.94022E+04  1.49022E+04 -2.88940E+04 -4.45531E+03 -1.55257E+04 -1.07021E+04
 -7.62776E+03 -1.19406E+04 -1.14539E+03 -1.78789E+04  6.92868E+03 -2.26854E+04  1.54096E+04 -1.35495E+04
  1.20162E+04  4.75466E+03 -6.99932E+03  1.29103E+04 -2.01452E+04 -3.03667E+03 -7.60623E+03 -3.20350E+04
  2.14386E+04 -4.17610E+04  4.59022E+04 -1.88385E+04  4.31092E+04  1.89078E+04  1.44970E+04  4.28727E+04
 -1.54167E+04  3.19590E+04 -2.40456E+04  1.22454E+03 -9.08072E+03 -2.71769E+04  2.06681E+04 -3.25108E+04
  3.88207E+04 -8.23612E+03  3.28948E+04  2.31487E+04  1.72230E+04  4.44586E+04 -7.97885E+03  4.73605E+04
 -3.06953E+04  3.13438E+04 -3.91080E+04  9.12072E+03 -4.00864E+04 -1.54151E+04 -2.27147E+04 -3.55714E+04
  6.73941E+03 -3.58018E+04  3.05838E+04 -1.33855E+04  2.83960E+04  1.02768E+04  2.92130E+03  1.80397E+04
 -1.34014E+04  7.96509E+03 -9.52869E+03 -7.53772E+03  5.64138E+03 -1.00139E+04  1.70646E+04  6.93253E+03
  1.27849E+04  2.11477E+04 -6.31861E+03  2.38718E+04 -2.20454E+04  9.67431E+03 -2.59830E+04 -5.52586E+03
 -1.80115E+04 -1.69728E+04 -7.26806E+03 -1.76514E+04  3.92823E+03 -1.67594E+04  1.32125E+04 -1.62656E+04
  2.29945E+04 -1.24329E+04  2.98463E+04  1.83244E+03  2.21766E+04  1.78508E+04  4.38940E+03  3.41696E+04
 -1.64911E+04  2.90901E+04 -2.65673E+04  9.97690E+03 -2.00239E+04 -1.01474E+04 -4.43650E+03 -1.42922E+04
  2.36439E+03 -3.31240E+03 -3.04364E+03  5.50834E+03 -1.46851E+04  5.39453E+03 -1.42254E+04 -5.42729E+03
 -9.87244E+03 -1.69324E+04  5.01491E+03 -2.04237E+04  1.30843E+04 -1.50970E+04  1.60939E+04 -2.71048E+03
  9.81338E+03  1.14787E+04 -6.71879E+02  1.70481E+04 -1.16449E+04  9.89514E+03 -1.70554E+04 -3.50371E+03
 -1.22331E+04 -1.51519E+04 -1.40929E+03 -2.06381E+04  8.99885E+03 -1.67078E+04  1.74370E+04 -8.14179E+03
  1.54694E+04  3.15122E+02  1.09465E+04  3.86850E+03  5.51097E+03  2.28882E+02  8.58060E+03 -1.65190E+03
  1.53557E+04  3.14031E+03  1.69973E+04  1.35914E+04  1.07823E+04  2.70402E+04 -2.59881E+03  3.02323E+04
 -1.72860E+04  2.26531E+04 -2.73630E+04  1.10714E+04 -2.82364E+04 -2.23087E+03 -2.39709E+04 -1.64164E+04
 -1.08604E+04 -2.31931E+04  7.91377E+03 -2.14138E+04  1.81792E+04 -1.12765E+04  1.71273E+04  4.28379E+03
  6.98197E+03  1.21046E+04 -8.03172E+03  1.11378E+04 -1.46467E+04  2.10008E+03 -1.07959E+04 -8.62757E+03
  4.72351E+02 -1.33184E+04  6.56932E+03 -1.01303E+04  9.06015E+03 -1.36694E+03  1.65343E+03  5.28589E+03
 -5.86254E+03  1.93226E+03 -4.45014E+03 -4.83770E+03  4.54855E+01 -1.15137E+04  8.36916E+03 -1.09610E+04
  1.38383E+04 -6.02582E+03  1.39776E+04  2.96269E+03  1.23665E+04  1.12736E+04  5.64123E+03  1.60482E+04
 -1.90196E+03  1.79356E+04 -1.11628E+04  1.15670E+04 -1.25336E+04  3.25996E+03 -9.14178E+03 -2.64842E+03
 -4.83063E+03 -3.78168E+03 -4.97402E+02  1.04756E+03 -1.85299E+03  2.11867E+03 -4.07235E+03  4.04747E+03
 -9.20738E+03 -3.06042E+02 -9.25254E+03 -7.64619E+03 -4.22020E+03 -1.27633E+04  3.59292E+03 -9.48603E+03
  8.32944E+03 -4.36110E+03  5.84717E+03  2.29186E+03 -1.97444E+02  3.24725E+03 -4.27919E+03 -1.10145E+02
 -3.91224E+03 -5.42284E+03 -1.19843E+03 -8.45193E+03  4.72365E+03 -8.91227E+03  1.10455E+04 -5.06636E+03
  1.37048E+04  6.47171E+02  9.76301E+03  7.06916E+03  2.13707E+03  1.05066E+04 -5.83754E+03  9.59975E+03
 -7.68859E+03  2.79030E+03 -3.92438E+03 -1.53828E+03  1.27572E+03 -2.40208E+03  5.64202E+03 -8.67073E+02
  4.69236E+03  3.21729E+03  9.10732E+02  7.09425E+03 -4.71142E+03  6.87264E+03 -8.98064E+03  1.64927E+03
 -5.84832E+03 -4.22729E+03  3.14731E+02 -7.82707E+03  4.49269E+03 -4.02567E+03  4.19019E+03  1.46332E+03
  7.63293E+02  3.70131E+03 -4.55121E+03  5.69958E+03 -6.20819E+03  3.21290E+03 -5.93429E+03 -1.15704E+03
 -3.33898E+03 -7.07671E+03  1.67844E+03 -8.73046E+03  6.94576E+03 -5.48845E+03  8.15551E+03  1.19488E+03
  4.89137E+03  5.73469E+03 -3.63337E+02  8.21683E+03 -5.48467E+03  4.99180E+03 -6.44156E+03 -4.75786E+02
 -6.55361E+03 -6.09496E+03 -1.70795E+03 -5.97150E+03  2.52943E+03 -5.11122E+03  3.46916E+03 -2.83900E+03
  2.94234E+03  7.09340E+02 -4.42802E+02  1.95732E+03  8.73991E+02 -3.41240E+02  4.47078E+02 -2.49879E+03
  4.35712E+03 -1.35216E+03  6.51985E+03  1.01173E+03  6.92955E+03  4.22123E+03  6.43424E+03  9.30692E+03
 -2.40709E+03  1.01232E+04 -9.03240E+03  7.87252E+03 -1.18164E+04  1.39396E+03 -9.24062E+03 -3.48456E+03
 -5.24789E+03 -7.90029E+03 -9.46848E+02 -6.30634E+03  2.31627E+03 -3.08279E+03  1.91291E+03 -2.93302E+03
  2.07074E+03 -2.09016E+03  2.42634E+03 -2.49753E+03  4.03332E+03 -1.78032E+03  4.12584E+03 -4.61990E+02
  5.79320E+03  1.79119E+03  1.62765E+03  3.86325E+03 -1.99451E+03  3.78040E+03 -5.02390E+03  3.53217E+03
 -5.70993E+03 -7.50631E+02 -3.13087E+03 -4.40707E+03 -8.25604E+01 -6.61330E+03  3.74135E+03 -6.29967E+03
  6.46789E+03 -3.61797E+03  7.97328E+03  4.54196E+02  5.72838E+03  5.32441E+03  1.39408E+03  7.67059E+03
 -2.71604E+03  6.63229E+03 -4.09515E+03  2.39809E+03 -2.52649E+03 -7.07301E+02 -1.18346E+03 -4.71589E+02
 -1.00918E+03  1.22995E+01 -7.96788E+02  2.21186E+03 -2.78216E+03  1.13053E+03 -4.80146E+03 -6.46170E+02
 -2.09457E+03 -5.04981E+03  5.02208E+02 -5.73271E+03  3.63712E+03 -5.06379E+03  4.37675E+03 -1.22626E+03
  5.09955E+03  3.17242E+03  2.96943E+03  3.82003E+03 -1.32841E+03  5.99847E+03 -3.56659E+03  4.02223E+03
 -4.80194E+03 -9.76124E+01 -4.16997E+03 -3.19763E+03 -1.13329E+02 -3.79911E+03  1.69169E+03 -3.38163E+03
  3.52061E+03 -1.74727E+03  2.31568E+03  2.37702E+02  6.15405E+02  2.10544E+03  9.11516E+02  1.07290E+03
  1.56466E+03  3.05226E+02  1.52241E+03  7.34306E+02  1.00398E+03  2.09200E+03  2.13826E+03  2.30434E+03
 -1.27663E+03  3.59698E+03 -3.13003E+03  4.81007E+03 -3.99338E+03  1.89620E+03 -4.87102E+03 -1.34515E+03
 -2.17642E+03 -5.00000E+03  6.52186E+02 -5.69521E+03  2.59305E+03 -2.95069E+03  4.17472E+03 -6.99254E+02
  2.47136E+03  1.70170E+03  1.86263E+02  2.42075E+03 -9.44520E+02  1.06574E+03 -1.48418E+03 -3.81936E+02
 -1.22701E+03 -1.86116E+03  9.08151E+02 -1.92413E+03  1.86197E+03 -6.48568E+02  1.92654E+03  6.19447E+01
  3.69649E+02  6.12357E+02 -3.51150E+01 -3.49012E+02 -5.11385E+02  7.12028E+02  1.01130E+03  1.45176E+02
  4.37354E+02 -6.78032E+02  1.76646E+03  9.86651E+02  4.19611E+02  2.93876E+03 -1.03984E+02  3.47050E+03
 -2.05440E+03  1.64638E+03 -2.70522E+03  1.11180E+03 -2.92781E+03 -1.36967E+03 -3.93951E+02 -1.18764E+03
  2.47502E+02 -2.12618E+03  8.36440E+02 -6.90112E+02  8.04948E+02  1.34288E+03 -1.00830E+03  1.07035E+03
 -2.10890E+03  8.84440E+02 -1.50584E+03 -9.78553E+02 -1.07192E+03 -2.46516E+03  6.47139E+02 -2.71268E+03
  6.86063E+02 -7.65000E+02  1.34016E+03  1.28486E+02  1.80895E+03  3.72866E+02  5.98416E+02  1.12519E+03
 -1.18709E+03  2.53927E+02 -1.55389E+03 -5.48626E+02  1.33014E+02 -1.46396E+03  2.21674E+03 -1.59669E+03
  1.93989E+03  4.13062E+02  3.89488E+03  9.34523E+02  1.42684E+03  1.96464E+03 -2.73372E+02  2.56571E+03
 -2.56319E+03  5.05527E+02 -2.12731E+03 -5.08317E+02 -3.57400E+02 -1.84944E+03  4.87819E+02 -9.52970E+02
  1.39357E+03 -1.02441E+03  8.08598E+02  6.09123E+02  2.35991E+02  1.61319E+03  6.30781E+01  5.65500E+02
 -4.74524E+02  1.10256E+03 -4.80924E+02  9.11810E+02 -1.47145E+02  6.25858E+02 -5.93905E+02  6.87140E+02
 -1.51106E+02  1.30501E+03 -2.27334E+03  3.89160E+02 -1.92455E+03  2.88572E+02 -2.77687E+03 -1.33587E+03
 -2.03069E+03 -3.11806E+03  5.17503E+02 -4.02667E+03  1.83602E+03 -3.03522E+03  3.95469E+03 -9.70372E+02
  3.50272E+03  2.33488E+02  9.92885E+02  1.28453E+03 -1.00504E+03  1.99038E+03 -1.48618E+03  1.93218E+03
 -1.24759E+03  1.24611E+03 -5.93247E+02  5.76670E+01 -2.56317E+02  5.45355E+02 -7.21565E+02 -3.17722E+01
 -1.29261E+03  3.65242E+02 -8.90105E+02 -3.44905E+02  1.59471E+02 -8.35193E+02 -6.75710E+02 -1.18727E+03
  1.62869E+03 -8.43773E+02  5.15336E+02  6.61749E+02  1.53859E+03  1.16060E+03 -6.29788E+02  1.94841E+03
 -1.43511E+03  2.48609E+03 -1.95775E+03  9.00720E+02 -2.38296E+03 -1.61379E+02 -1.62272E+03 -2.10097E+03
 -9.18309E+02 -2.28944E+03  5.19883E+02 -1.22700E+03  7.33262E+02 -6.91842E+02  1.81013E+03 -9.63852E+01
  9.94529E+02  9.98421E+02  2.51510E+02  2.90228E+02 -3.51906E+02  2.36786E+02 -8.57110E+01  2.28646E+02
  4.50718E+02 -3.92256E+02 -1.03330E+02  7.61649E+02 -1.38101E+02  6.03761E+02  8.34015E+02  5.08065E+02
  1.23744E+01  1.21714E+03 -1.00848E+03  6.92881E+01 -7.77399E+02 -3.51292E+02 -2.25253E+02 -1.94280E+03
  8.48597E+02 -1.29732E+03  1.32244E+03 -4.44739E+02  1.69208E+03 -2.77723E+02  5.42864E+02  6.84329E+02
  2.07550E+02  1.16029E+03 -8.95507E+02  9.19499E+02 -6.90496E+02  7.77998E+02 -2.16684E+02  4.02599E+02
 -2.09511E+02 -5.04191E+02 -4.90725E+02  3.38017E+02 -5.27002E+02 -1.14472E+02 -7.34062E+02 -2.39195E+02
 -1.42147E+03 -7.72330E+01 -2.52392E+02 -1.24179E+03  1.16982E+03 -1.39892E+03  1.08396E+03  3.93940E+01
  1.36168E+03 -5.21929E+01  4.26842E+02  5.68854E+02 -6.94447E+01  1.44035E+03 -3.80965E+02  8.39868E+02
