 $NMID ID='MM_0lb_SNR400_20hz_g55_40.RAW', FMTDAT='(8E13.5)'
 TRAMP=1., VOLUME=1. $END
  3.09647E+05  2.02947E+01  3.37276E+05  2.50171E+05  8.43736E+04  3.37510E+05 -1.32082E+05  2.50214E+05
 -1.89441E+05  8.25605E+04 -1.11303E+05 -3.24501E+04  8.70251E+02 -5.03608E+04  5.36378E+04  8.48055E+01
  3.57718E+04  5.33752E+04 -1.73480E+04  7.45503E+04 -6.03452E+04  6.30879E+04 -8.33435E+04  3.18234E+04
 -7.96120E+04 -1.07734E+04 -5.61712E+04 -4.94716E+04 -1.48774E+04 -6.88078E+04  2.67985E+04 -4.51208E+04
  3.90361E+04  4.17077E+03  1.54075E+04  4.71778E+04 -3.43554E+04  4.60236E+04 -6.56192E+04 -7.40248E+02
 -5.22643E+04 -5.58893E+04 -6.49770E+03 -7.54082E+04  3.37175E+04 -5.33624E+04  4.60214E+04 -1.64169E+04
  4.24138E+04  1.12966E+04  3.08128E+04  2.44611E+04  1.55451E+04  2.84349E+04 -4.63427E+03  2.66621E+04
 -2.12550E+04  1.32049E+04 -1.93894E+04 -4.00594E+03  4.71558E+03 -7.57884E+03  2.18759E+04  1.05916E+04
  7.10962E+03  3.36599E+04 -3.07786E+04  3.39627E+04 -6.14384E+04  2.60666E+03 -5.56570E+04 -4.11954E+04
 -1.29108E+04 -6.08338E+04  3.78322E+04 -4.35592E+04  5.59639E+04 -2.01021E+03  3.18667E+04  3.05676E+04
 -5.96588E+03  3.37094E+04 -2.85445E+04  1.33644E+04 -2.77692E+04 -4.55974E+03 -1.44178E+04 -1.00435E+04
 -7.53233E+03 -1.14352E+04 -9.41304E+02 -1.61964E+04  6.45040E+03 -2.26918E+04  1.49526E+04 -1.39056E+04
  1.19630E+04  4.38123E+03 -6.14480E+03  1.28567E+04 -1.97082E+04 -2.60004E+03 -8.26607E+03 -3.05292E+04
  2.12198E+04 -4.10798E+04  4.46005E+04 -1.80545E+04  4.23082E+04  1.84535E+04  1.39295E+04  4.18888E+04
 -1.51331E+04  3.13523E+04 -2.29500E+04  6.35999E+02 -8.46790E+03 -2.65603E+04  2.06102E+04 -3.12356E+04
  3.79734E+04 -7.11634E+03  3.14422E+04  2.28831E+04  1.54550E+04  4.23875E+04 -8.31123E+03  4.51964E+04
 -2.85628E+04  2.98159E+04 -3.70730E+04  8.65344E+03 -3.84144E+04 -1.53792E+04 -2.13301E+04 -3.43706E+04
  6.62053E+03 -3.45421E+04  2.91802E+04 -1.22813E+04  2.67559E+04  1.04655E+04  3.01392E+03  1.76324E+04
 -1.32653E+04  7.06254E+03 -9.70449E+03 -7.85444E+03  6.49047E+03 -1.00581E+04  1.77504E+04  6.68695E+03
  1.19461E+04  2.17338E+04 -6.76395E+03  2.33232E+04 -2.13260E+04  9.15532E+03 -2.51863E+04 -6.33159E+03
 -1.69468E+04 -1.64703E+04 -5.58086E+03 -1.69695E+04  4.18394E+03 -1.47198E+04  1.20865E+04 -1.38204E+04
  2.11516E+04 -1.15229E+04  2.75945E+04  1.02749E+03  2.11145E+04  1.58969E+04  4.01852E+03  3.22706E+04
 -1.62961E+04  2.74635E+04 -2.57833E+04  9.05247E+03 -1.97193E+04 -9.91262E+03 -3.61594E+03 -1.37963E+04
  2.48500E+03 -4.65938E+03 -2.04688E+03  4.96150E+03 -1.27476E+04  5.49133E+03 -1.30260E+04 -4.64925E+03
 -8.60634E+03 -1.46186E+04  4.37621E+03 -1.92970E+04  1.27954E+04 -1.36562E+04  1.44800E+04 -1.14403E+03
  9.10439E+03  1.05058E+04 -9.72306E+02  1.54329E+04 -1.02807E+04  8.19564E+03 -1.50979E+04 -3.41790E+03
 -1.11597E+04 -1.39766E+04 -1.92935E+03 -1.87175E+04  8.30468E+03 -1.56951E+04  1.58028E+04 -7.37986E+03
  1.43762E+04  3.88397E+02  1.01114E+04  3.99694E+03  4.85594E+03  9.90459E+02  7.96765E+03 -1.28773E+03
  1.38378E+04  2.22667E+03  1.39191E+04  1.27963E+04  8.36467E+03  2.42304E+04 -3.61248E+03  2.54401E+04
 -1.57143E+04  2.01506E+04 -2.35086E+04  9.49616E+03 -2.42891E+04 -1.72714E+03 -2.12291E+04 -1.29239E+04
 -9.84957E+03 -1.93721E+04  6.74662E+03 -1.87987E+04  1.57957E+04 -1.08031E+04  1.50164E+04  3.32433E+03
  6.71026E+03  1.09529E+04 -6.50514E+03  1.03783E+04 -1.28883E+04  2.73826E+03 -9.92929E+03 -8.04264E+03
  1.61703E+02 -1.23425E+04  5.82009E+03 -9.14511E+03  7.09331E+03 -1.73702E+03  1.28146E+03  4.54708E+03
 -5.60702E+03  1.07255E+03 -3.51991E+03 -4.37081E+03  4.51627E+02 -9.59579E+03  7.97909E+03 -9.54776E+03
  1.18505E+04 -4.71751E+03  1.13462E+04  2.84412E+03  9.81046E+03  8.69535E+03  4.85378E+03  1.34712E+04
 -1.05251E+03  1.50208E+04 -8.80611E+03  9.43263E+03 -1.08681E+04  2.95874E+03 -7.94235E+03 -1.04891E+03
 -4.69193E+03 -3.32355E+03 -1.08058E+03  1.71291E+03 -1.64273E+03  2.03435E+03 -3.66926E+03  3.68254E+03
 -8.21069E+03 -9.23717E+02 -9.01711E+03 -6.85508E+03 -3.53054E+03 -1.10451E+04  3.53324E+03 -8.15938E+03
  6.69096E+03 -3.42049E+03  5.10201E+03  1.48279E+03  1.74993E+02  2.81547E+03 -3.09456E+03 -1.59102E+02
 -3.18738E+03 -5.11746E+03 -5.45079E+02 -6.31437E+03  4.09992E+03 -7.09824E+03  9.12629E+03 -3.56364E+03
  1.14562E+04  4.05928E+02  8.09918E+03  5.91387E+03  1.87774E+03  8.00513E+03 -4.83426E+03  8.01394E+03
 -6.71276E+03  3.11636E+03 -3.30696E+03 -9.37148E+02  1.39584E+03 -1.40188E+03  3.84069E+03 -9.75754E+02
  4.08964E+03  2.84352E+03  8.66846E+02  5.51868E+03 -4.27782E+03  6.28205E+03 -7.22334E+03  2.08043E+03
 -3.98862E+03 -3.23998E+03  1.81150E+02 -6.15707E+03  3.69371E+03 -2.59237E+03  3.32249E+03  1.01218E+03
  3.64944E+02  3.05478E+03 -3.88947E+03  4.53666E+03 -4.59196E+03  2.10605E+03 -3.67727E+03 -1.05879E+03
 -2.44881E+03 -5.37692E+03  5.58067E+02 -6.20145E+03  5.24944E+03 -3.85928E+03  5.87397E+03  6.35478E+02
  3.60911E+03  4.44578E+03  2.39281E+02  6.85128E+03 -4.62000E+03  3.16160E+03 -4.78671E+03 -4.16239E+02
 -5.34924E+03 -4.81552E+03 -1.13649E+03 -5.03065E+03  2.41536E+03 -4.05958E+03  2.27630E+03 -2.34084E+03
  2.36802E+03  1.31400E+01  1.34009E+02  1.64062E+03  8.27530E+02  4.63018E+01 -2.18466E+02 -1.53519E+03
  2.81073E+03 -7.87728E+02  4.87196E+03  1.30065E+02  4.84127E+03  2.86604E+03  4.78387E+03  5.92662E+03
 -1.37545E+03  7.17383E+03 -6.72081E+03  5.78167E+03 -8.88659E+03  9.73818E+02 -7.17500E+03 -1.84821E+03
 -3.85624E+03 -5.76558E+03 -4.38355E+02 -4.11583E+03  2.06481E+03 -1.72149E+03  2.14507E+03 -2.13507E+03
  9.21579E+02 -1.08328E+03  1.44371E+03 -2.19750E+03  3.19360E+03 -9.00869E+02  2.86080E+03  4.77565E+02
  3.85228E+03  1.29011E+03  8.76703E+02  2.60552E+03 -1.24446E+03  2.35459E+03 -3.71994E+03  2.12386E+03
 -4.65861E+03 -1.13845E+03 -1.00759E+03 -3.22836E+03  2.84154E+02 -4.45651E+03  3.09871E+03 -4.33347E+03
  4.45921E+03 -3.10062E+03  5.77167E+03  6.51592E+02  4.29876E+03  3.37065E+03  9.87557E+02  4.76334E+03
 -1.36688E+03  5.56474E+03 -2.66489E+03  1.98402E+03 -1.94863E+03 -1.20010E+03 -3.18449E+02 -4.88108E+02
 -4.67193E+02  6.41637E+01 -6.29291E+02  1.59723E+03 -2.47272E+03  8.20679E+02 -4.05014E+03 -4.34080E+02
 -1.56101E+03 -3.52539E+03  1.06704E+03 -4.08110E+03  2.53315E+03 -3.75963E+03  3.25070E+03 -1.47460E+03
  3.86297E+03  1.63588E+03  1.09487E+03  2.59589E+03 -7.95422E+02  3.88855E+03 -2.51372E+03  1.97184E+03
 -2.71350E+03  1.31612E+03 -3.27255E+03 -1.90516E+03  2.33418E+02 -2.60812E+03  1.31802E+03 -1.92300E+03
  1.96213E+03 -1.62066E+03  1.54452E+03  2.63872E+02  3.53348E+02  1.37163E+03  5.81462E+02  1.60535E+02
  1.87622E+03  1.40346E+02  5.78353E+02  8.96542E+02  6.51011E+02  1.99992E+03  1.35977E+03  1.43025E+03
 -1.02440E+03  2.93840E+03 -1.95449E+03  4.06084E+03 -1.69297E+03  6.50797E+02 -3.58766E+03  3.98764E+02
 -1.14419E+03 -2.51677E+03  5.26492E+01 -4.46512E+03  1.91521E+03 -1.83172E+03  2.39160E+03 -8.22387E+02
  2.25369E+03  1.33303E+03  2.15135E+02  1.88488E+03 -5.17837E+02  1.02127E+03 -9.21054E+02  1.51835E+01
 -4.04880E+02 -8.41319E+02  9.39726E+02 -1.64207E+03  1.80273E+03 -1.10521E+03  1.13659E+03  4.49905E+02
  1.14558E+02  2.81282E+02  5.46271E+02 -8.56397E+02 -7.26053E+01  1.03494E+03  1.36329E+03 -2.89153E+02
 -3.99995E+02 -2.75161E+02  1.41681E+03  6.99700E+02  7.68637E+02  2.42126E+03 -4.77691E+02  2.33259E+03
 -6.40428E+02  5.26757E+02 -1.45715E+03  3.63416E+02 -1.85953E+03 -6.17441E+02 -1.37585E+02 -8.38405E+02
  1.53247E+02 -1.11367E+03  4.14295E+02 -1.30932E+03  6.15815E+02  1.21616E+03 -4.13764E+02  4.16573E+02
 -1.31002E+03  3.68968E+02 -6.95176E+02 -8.34991E+02 -7.28887E+02 -1.71188E+03 -2.07460E+02 -1.12999E+03
 -4.86415E+02 -2.76615E+02  3.00340E+02  5.17086E+02  9.78045E+02 -3.73248E+02  6.20533E+02  7.80818E+02
 -1.68455E+02  1.68303E+02 -8.42309E+02  3.00408E+02  8.84466E+02 -2.03433E+02  1.83591E+03 -9.02842E+02
  7.37479E+02  2.50500E+02  2.19848E+03  2.40946E+02  1.06014E+03  1.05827E+03  6.74238E+01  1.51820E+03
 -8.44445E+02  1.41563E+02 -9.77990E+02 -1.25824E+02 -3.94190E+02 -1.38975E+03  6.30861E+02 -6.35920E+01
  1.47908E+03 -2.92605E+02 -1.45113E+01  9.56402E+02 -1.65632E+02  6.07714E+02  2.33484E+02  5.15836E+02
 -3.62794E+02  1.15839E+03 -3.65180E+01  2.90872E+02  4.99373E+02  9.96749E+01 -7.48878E+02  3.43088E+02
 -2.92635E+02  4.58608E+02 -1.87937E+03  2.00147E+02 -1.52869E+03  1.04914E+02 -2.07320E+03 -4.98372E+02
 -9.29272E+02 -1.83682E+03  7.68257E+02 -2.48166E+03  6.17814E+02 -1.88050E+03  1.66740E+03 -7.67012E+02
  1.55996E+03 -4.59051E+02  9.00266E+02  1.11078E+03 -5.31052E+02  1.05044E+03  2.15091E+01  7.74289E+02
 -4.72784E+02  4.10225E+02 -5.45297E+02 -4.74468E+02 -3.51514E+02  5.37172E+02 -6.05460E+02  7.57204E+01
 -1.72590E+03 -1.84057E+02 -9.37792E+02  3.05601E+02  4.40847E+02 -3.88132E+02 -1.70482E+02 -1.07446E+03
  1.09769E+03 -8.42994E+02  6.04622E+01  5.73978E+02  6.96447E+02  7.70195E+02 -5.55696E+02  9.55286E+02
 -1.00566E+03  1.67473E+03 -9.85887E+02  1.10621E+03 -1.12060E+03 -4.97565E+02 -9.03760E+02 -2.88282E+02
 -6.63717E+02 -1.29499E+03 -3.40331E+02 -1.30180E+03 -2.68468E+01 -3.93784E+02  4.23529E+02  3.62450E+02
  5.58695E+02  2.61658E+02  7.39042E+01  4.73191E+02 -2.11152E+02  2.01045E+02  8.11485E+01 -5.57482E+01
  1.62604E+02  9.62757E+02 -9.04847E+01  2.82345E+02  5.20762E+02  3.45524E+02  5.25020E+02 -1.77834E+02
  2.11897E+02  7.11797E+02 -3.93693E+01  5.65495E+02 -9.62967E+02 -3.23674E+02 -3.05828E+02 -5.47743E+02
  1.17995E+02 -2.64628E+02  3.69290E+02 -4.92153E+02  6.82081E+02 -1.56031E+02  5.00682E+02  3.76245E+02
  6.64433E+02  4.85146E+02 -7.22073E+01  1.84289E+02 -3.02759E+02  2.87701E+02 -1.56354E+02 -1.35535E+02
 -1.84210E+02  3.24341E+02 -1.88794E+02  1.34662E+02 -5.39249E+02  2.05881E+02 -8.22291E+02 -7.05011E+02
 -6.91217E+02  3.25113E+02 -3.04674E+02 -9.37855E+02  3.87047E+02 -1.12848E+03  6.51906E+02 -4.35910E+02
  1.33822E+01 -4.43311E+02 -4.74617E+02 -1.41061E+02 -3.79784E+02  3.09440E+02 -3.44620E+02  2.97478E+02
