 $NMID ID='MM_0lb_SNR400_9hz_g55_75.RAW', FMTDAT='(8E13.5)'
 TRAMP=1., VOLUME=1. $END
  3.10905E+05 -1.15253E+02  3.37086E+05  2.50608E+05  8.50436E+04  3.38918E+05 -1.32949E+05  2.51903E+05
 -1.90998E+05  8.34865E+04 -1.12679E+05 -3.22338E+04  3.72356E+02 -5.17958E+04  5.39240E+04 -6.90806E+02
  3.59223E+04  5.23763E+04 -1.71302E+04  7.61792E+04 -6.13053E+04  6.42695E+04 -8.64748E+04  3.22297E+04
 -8.26550E+04 -1.27158E+04 -5.79624E+04 -5.21932E+04 -1.45166E+04 -7.11955E+04  2.78260E+04 -4.68893E+04
  4.05315E+04  3.44728E+03  1.70478E+04  4.99067E+04 -3.49557E+04  4.80310E+04 -6.80956E+04  7.40491E+01
 -5.53358E+04 -5.73405E+04 -7.53811E+03 -7.91131E+04  3.52331E+04 -5.62708E+04  4.95599E+04 -1.80659E+04
  4.50663E+04  1.13765E+04  3.34246E+04  2.73157E+04  1.62729E+04  3.01969E+04 -7.01520E+03  2.84315E+04
 -2.28762E+04  1.19561E+04 -1.75964E+04 -6.49418E+03  7.74456E+03 -7.28556E+03  2.37585E+04  1.41028E+04
  6.90741E+03  3.84643E+04 -3.41137E+04  3.76921E+04 -6.61423E+04  1.83822E+03 -5.88834E+04 -4.47807E+04
 -1.33747E+04 -6.65548E+04  4.21513E+04 -4.72315E+04  6.19796E+04 -2.61022E+03  3.68758E+04  3.45731E+04
 -5.64520E+03  3.92943E+04 -3.26460E+04  1.91903E+04 -3.29930E+04 -3.15523E+03 -1.96977E+04 -1.15665E+04
 -9.40387E+03 -1.50690E+04 -7.06916E+02 -1.98265E+04  8.34298E+03 -2.35253E+04  1.57381E+04 -1.25742E+04
  9.99085E+03  5.91899E+03 -1.07132E+04  1.28159E+04 -2.37431E+04 -6.53566E+03 -8.79814E+03 -3.78273E+04
  2.59735E+04 -4.67223E+04  5.22588E+04 -2.03291E+04  4.90630E+04  2.07090E+04  1.78058E+04  4.65876E+04
 -1.71326E+04  3.59558E+04 -2.76917E+04  2.71314E+03 -1.16160E+04 -3.01790E+04  2.19926E+04 -3.73408E+04
  4.49909E+04 -1.20981E+04  4.06883E+04  2.52051E+04  2.23463E+04  5.12226E+04 -8.25027E+03  5.72017E+04
 -3.56004E+04  3.80639E+04 -4.83316E+04  1.15190E+04 -4.79732E+04 -1.89084E+04 -2.66384E+04 -4.29023E+04
  8.11654E+03 -4.24071E+04  3.42630E+04 -1.70713E+04  3.28032E+04  1.07805E+04  5.30110E+03  2.12928E+04
 -1.38875E+04  1.00076E+04 -1.07394E+04 -7.84235E+03  5.77352E+03 -1.10057E+04  1.91577E+04  5.91047E+03
  1.48852E+04  2.29264E+04 -4.34282E+03  2.78118E+04 -2.39181E+04  1.48405E+04 -3.25829E+04 -2.64682E+03
 -2.58041E+04 -1.79441E+04 -1.13152E+04 -2.53190E+04  4.07230E+03 -2.67898E+04  2.04040E+04 -2.34912E+04
  3.38729E+04 -1.46621E+04  3.87366E+04  3.93471E+03  2.81330E+04  2.46213E+04  4.25921E+03  4.23118E+04
 -2.00801E+04  3.40463E+04 -3.07644E+04  1.21055E+04 -2.26667E+04 -1.00608E+04 -4.65331E+03 -1.30482E+04
  5.43214E+02 -8.47110E+02 -8.30443E+03  8.33124E+03 -2.07926E+04  4.81097E+03 -1.98956E+04 -9.57775E+03
 -1.20631E+04 -2.36715E+04  6.21120E+03 -2.84480E+04  1.96927E+04 -2.03006E+04  2.29107E+04 -1.62616E+03
  1.41946E+04  1.65517E+04 -1.09138E+03  2.42450E+04 -1.66750E+04  1.42555E+04 -2.43116E+04 -5.21090E+03
 -1.74463E+04 -2.13645E+04 -2.23832E+03 -2.86099E+04  1.27901E+04 -2.40819E+04  2.35193E+04 -1.38059E+04
  2.27637E+04 -7.50368E+02  1.66404E+04  5.98871E+03  8.93292E+03  1.04003E+03  1.24158E+04 -2.40709E+03
  2.22771E+04  3.18295E+03  2.65618E+04  1.92495E+04  1.73646E+04  3.74532E+04 -3.01855E+03  4.60616E+04
 -2.65539E+04  3.77839E+04 -4.32139E+04  1.94629E+04 -4.55614E+04 -2.65270E+03 -3.64085E+04 -2.67485E+04
 -1.50512E+04 -3.78237E+04  1.33620E+04 -3.25544E+04  2.84699E+04 -1.56239E+04  2.49435E+04  7.75537E+03
  8.45843E+03  1.99583E+04 -1.18908E+04  1.54741E+04 -2.09608E+04  2.81087E+03 -1.66257E+04 -1.28618E+04
 -3.97763E+02 -2.01883E+04  1.00837E+04 -1.45577E+04  1.38040E+04 -1.12291E+03  3.47830E+03  8.45226E+03
 -8.76725E+03  4.19383E+03 -9.66733E+03 -7.08808E+03 -2.71902E+03 -1.91699E+04  1.19058E+04 -2.02715E+04
  2.39603E+04 -1.09563E+04  2.62405E+04  3.20698E+03  2.32749E+04  1.88090E+04  1.07196E+04  2.95944E+04
 -6.34187E+03  3.15682E+04 -2.12753E+04  1.92629E+04 -2.34377E+04  3.80316E+03 -1.60858E+04 -6.51870E+03
 -7.16235E+03 -6.97588E+03 -2.98895E+02 -5.95749E+02 -2.98263E+03  3.14073E+03 -7.35239E+03  5.75136E+03
 -1.44324E+04 -1.04636E+03 -1.53857E+04 -1.24814E+04 -5.66879E+03 -1.93257E+04  5.87391E+03 -1.67624E+04
  1.29071E+04 -6.29125E+03  8.72628E+03  4.89973E+03 -6.53676E+02  7.16255E+03 -7.99596E+03  6.59235E+02
 -7.72663E+03 -1.07581E+04 -1.17342E+03 -1.60162E+04  9.99955E+03 -1.72848E+04  2.11516E+04 -9.04838E+03
  2.43163E+04  2.10840E+03  1.79788E+04  1.42061E+04  2.10180E+03  1.96765E+04 -1.02280E+04  1.48415E+04
 -1.38403E+04  3.96012E+03 -6.11798E+03 -3.55043E+03  2.21197E+03 -5.01458E+03  7.88282E+03 -1.65311E+03
  7.31735E+03  7.49468E+03  1.84687E+03  1.22464E+04 -9.08018E+03  1.23073E+04 -1.58798E+04  2.54592E+03
 -1.18930E+04 -8.80733E+03  3.00570E+02 -1.38258E+04  8.97531E+03 -6.71393E+03  1.01811E+04  3.17740E+03
  1.86412E+03  1.01929E+04 -8.75633E+03  1.19282E+04 -1.44652E+04  4.19653E+03 -1.41597E+04 -5.95278E+03
 -8.72108E+03 -1.64544E+04  3.92328E+03 -1.88807E+04  1.57481E+04 -1.16774E+04  1.71315E+04  2.35837E+03
  1.07892E+04  1.39788E+04 -2.31495E+03  1.62849E+04 -1.20966E+04  9.01861E+03 -1.31405E+04 -1.34597E+03
 -1.06936E+04 -1.10676E+04 -1.62951E+03 -1.22441E+04  6.36691E+03 -9.71266E+03  8.13953E+03 -4.04283E+03
  5.01862E+03  2.22612E+03 -6.11998E+02  2.49335E+03 -7.46072E+02 -3.79964E+03  3.12885E+03 -7.44011E+03
  1.21477E+04 -5.96629E+03  1.64269E+04  2.25006E+03  1.63821E+04  1.10550E+04  1.04512E+04  2.21367E+04
 -5.23318E+03  2.47533E+04 -2.00192E+04  1.82068E+04 -2.72607E+04  3.20002E+03 -2.12948E+04 -9.44604E+03
 -1.10801E+04 -1.77507E+04 -5.10483E+02 -1.50726E+04  5.78405E+03 -8.78720E+03  5.36981E+03 -5.65668E+03
  3.64614E+03 -2.53376E+03  4.01351E+03 -4.34786E+03  6.21972E+03 -3.96642E+03  8.04150E+03 -1.91321E+03
  1.10879E+04  3.12233E+03  5.75725E+03  1.02785E+04 -2.19369E+03  1.19438E+04 -1.14252E+04  8.96702E+03
 -1.58464E+04 -1.47091E+03 -9.65422E+03 -1.06213E+04 -1.37381E+03 -1.68632E+04  8.43640E+03 -1.66482E+04
  1.72623E+04 -9.13273E+03  1.99592E+04  3.13943E+03  1.42865E+04  1.44141E+04  8.91844E+02  1.89159E+04
 -7.50612E+03  1.48088E+04 -1.05459E+04  5.31363E+03 -7.79073E+03 -1.12951E+03 -2.96718E+03 -2.35440E+03
 -1.94511E+03 -3.00729E+02 -1.67437E+03  2.77864E+03 -6.81937E+03  2.65791E+03 -1.04104E+04 -1.88343E+03
 -9.00597E+03 -1.11827E+04 -6.59138E+01 -1.44489E+04  1.00559E+04 -1.41998E+04  1.50128E+04 -3.28255E+03
  1.51030E+04  6.89237E+03  6.36874E+03  1.43154E+04 -3.39900E+03  1.55059E+04 -1.03512E+04  1.02304E+04
 -1.41202E+04  6.62159E+02 -1.15145E+04 -9.74894E+03 -1.88768E+03 -1.25757E+04  7.61879E+03 -9.24053E+03
  1.04521E+04 -3.06312E+03  7.93970E+03  2.71948E+03  2.03073E+03  5.00311E+03  1.13628E+03  2.44920E+03
  2.41312E+03  2.81769E+02  3.41796E+03  2.12466E+03  4.37807E+03  4.60264E+03  3.93658E+03  7.71202E+03
 -3.47419E+03  1.22216E+04 -1.10733E+04  1.26141E+04 -1.66339E+04  2.89341E+03 -1.65762E+04 -6.66317E+03
 -7.38939E+03 -1.59633E+04  2.66924E+03 -1.70175E+04  9.12674E+03 -1.10395E+04  1.32925E+04 -2.42487E+03
  9.88700E+03  5.92116E+03  2.46402E+03  9.00641E+03 -4.01529E+03  5.61511E+03 -6.76437E+03 -9.38008E+02
 -2.65931E+03 -6.68076E+03  3.86932E+03 -6.88017E+03  6.77765E+03 -3.26601E+03  5.99173E+03  7.00639E+02
  3.72881E+03  2.13800E+03  7.68654E+02  2.73257E+03 -6.00645E+02  1.66682E+03  1.22880E+03 -5.60264E+02
  2.60281E+03 -2.62708E+02  6.52549E+03  2.39233E+03  4.58043E+03  8.20091E+03 -1.52756E+03  1.14123E+04
 -7.53827E+03  7.42605E+03 -1.16593E+04  1.81244E+03 -9.04747E+03 -3.60720E+03 -3.96135E+03 -6.06146E+03
  2.60676E+02 -5.76664E+03  3.38920E+03 -3.67276E+03  3.25027E+03  2.76537E+03 -1.60698E+03  5.01578E+03
 -6.54799E+03  2.72948E+03 -6.72303E+03 -3.32340E+03 -4.24050E+03 -8.51977E+03  8.10677E+02 -9.12532E+03
  5.59950E+03 -6.48290E+03  6.57915E+03 -1.10638E+03  5.13073E+03  2.99760E+03  3.39295E+02  5.02069E+03
 -3.72624E+03  1.17681E+03 -4.17947E+03 -2.24087E+03  1.42160E+03 -6.94329E+03  7.32084E+03 -5.15382E+03
  1.01439E+04 -3.31962E+01  9.08821E+03  7.46725E+03  3.52828E+03  1.12011E+04 -3.50100E+03  9.79747E+03
 -8.11674E+03  3.96387E+03 -9.13964E+03 -1.04063E+03 -5.02733E+03 -6.20100E+03  2.24454E+03 -6.72947E+03
  7.32990E+03 -3.98207E+03  5.45125E+03  2.57776E+03  1.55164E+03  5.72531E+03 -5.63349E+02  4.41246E+03
 -2.85025E+03  3.72458E+03 -1.74321E+03  1.38432E+03 -1.15617E+03  1.38010E+03 -1.40218E+03  2.25120E+03
 -3.28410E+03  5.13887E+03 -7.98451E+03  3.63017E+03 -1.03473E+04  7.44962E+02 -1.19341E+04 -6.69075E+03
 -6.26482E+03 -1.38728E+04  2.62651E+03 -1.62822E+04  9.84858E+03 -1.26832E+04  1.53229E+04 -4.71010E+03
  1.39908E+04  2.94661E+03  8.76188E+03  9.23799E+03  9.98811E+02  1.16132E+04 -5.07935E+03  8.17416E+03
 -6.22655E+03  3.58273E+03 -2.86077E+03 -1.64391E+03 -1.11323E+03 -5.27815E+02 -4.37793E+02 -1.91881E+02
 -2.41718E+03 -7.64012E+02 -1.77293E+03 -1.09042E+03 -9.42091E+02 -1.99518E+03  5.45407E+02 -3.72794E+03
  5.14501E+03 -4.54807E+03  6.59584E+03 -6.59873E+01  8.12486E+03  6.81029E+03  2.76219E+03  1.10803E+04
 -3.65323E+03  1.22221E+04 -1.11340E+04  7.66997E+03 -1.42777E+04 -1.36045E+03 -1.03221E+04 -8.14580E+03
 -4.72709E+03 -1.07746E+04  3.50869E+03 -9.89139E+03  7.31640E+03 -5.81883E+03  7.53020E+03 -3.51577E+02
  4.14607E+03  3.83074E+03 -7.68486E+02  3.67704E+03 -2.09716E+03  7.30332E+01  4.78980E+02 -1.61446E+03
  2.84873E+03 -1.52263E+03  4.78489E+03  1.30069E+03  3.19714E+03  4.24628E+03  6.16948E+02  5.44678E+03
 -4.27340E+03  4.80213E+03 -7.55330E+03  1.58789E+03 -5.73422E+03 -5.28044E+03 -1.30113E+03 -8.97821E+03
  4.80617E+03 -8.17738E+03  8.69629E+03 -2.02217E+03  8.67963E+03  2.41427E+03  5.77526E+03  6.72493E+03
  1.54602E+03  7.35840E+03 -3.10070E+03  6.89955E+03 -4.54135E+03  3.52358E+03 -3.85378E+03  9.46277E+01
 -2.46340E+03 -3.76312E+01 -2.14635E+03  1.54998E+03 -4.05399E+03  1.11690E+03 -5.30234E+03 -1.51876E+03
 -6.02576E+03 -3.69272E+03 -2.07503E+03 -7.73112E+03  3.52105E+03 -7.65843E+03  6.15091E+03 -3.15959E+03
  7.79103E+03  8.88248E+02  4.17227E+03  4.69275E+03 -7.44748E+02  7.38832E+03 -5.20615E+03  4.79278E+03
