 $NMID ID='MM_0lb_SNR400_13hz_g45_3.RAW', FMTDAT='(8E13.5)'
 TRAMP=1., VOLUME=1. $END
  3.09506E+05  8.32393E+02  3.37465E+05  2.49897E+05  8.46054E+04  3.38399E+05 -1.32865E+05  2.52031E+05
 -1.90605E+05  8.32988E+04 -1.12219E+05 -3.23278E+04  7.94581E+02 -5.08653E+04  5.39036E+04 -2.58504E+02
  3.48126E+04  5.32263E+04 -1.75814E+04  7.55206E+04 -6.08119E+04  6.39331E+04 -8.40646E+04  3.11779E+04
 -8.14135E+04 -1.13575E+04 -5.75579E+04 -5.10644E+04 -1.51271E+04 -7.01442E+04  2.74443E+04 -4.61440E+04
  3.94219E+04  3.85157E+03  1.66516E+04  4.84682E+04 -3.46781E+04  4.73872E+04 -6.69195E+04 -7.61107E+02
 -5.34538E+04 -5.73618E+04 -6.91102E+03 -7.68642E+04  3.53114E+04 -5.55893E+04  4.77616E+04 -1.71408E+04
  4.36697E+04  1.12656E+04  3.20444E+04  2.53817E+04  1.56564E+04  2.94707E+04 -5.07835E+03  2.77165E+04
 -2.16140E+04  1.19212E+04 -1.77789E+04 -4.34093E+03  6.12445E+03 -7.25565E+03  2.28966E+04  1.25411E+04
  7.48793E+03  3.55908E+04 -3.21416E+04  3.53037E+04 -6.33414E+04  1.53376E+03 -5.69728E+04 -4.31101E+04
 -1.24574E+04 -6.33336E+04  4.03248E+04 -4.55533E+04  5.83561E+04 -2.90244E+03  3.49259E+04  3.23742E+04
 -6.25612E+03  3.65799E+04 -2.97234E+04  1.63041E+04 -3.06642E+04 -4.67275E+03 -1.66334E+04 -1.11032E+04
 -8.93724E+03 -1.28289E+04 -1.25081E+03 -1.81395E+04  8.05894E+03 -2.29978E+04  1.54219E+04 -1.38016E+04
  1.13611E+04  5.12098E+03 -8.18940E+03  1.28492E+04 -2.10043E+04 -4.53675E+03 -7.73958E+03 -3.43162E+04
  2.35447E+04 -4.36653E+04  4.85786E+04 -1.99412E+04  4.54656E+04  1.98435E+04  1.54339E+04  4.48485E+04
 -1.60958E+04  3.40267E+04 -2.52803E+04  2.28265E+03 -1.05869E+04 -2.78747E+04  2.09482E+04 -3.38191E+04
  4.13960E+04 -9.14382E+03  3.56301E+04  2.37088E+04  1.79194E+04  4.69651E+04 -8.48832E+03  5.01575E+04
 -3.20827E+04  3.40424E+04 -4.27201E+04  8.84680E+03 -4.32368E+04 -1.61862E+04 -2.36007E+04 -3.80841E+04
  7.09611E+03 -3.84022E+04  3.17084E+04 -1.50142E+04  2.95153E+04  1.11243E+04  3.97863E+03  1.93945E+04
 -1.34967E+04  8.78774E+03 -1.07907E+04 -7.84363E+03  5.85063E+03 -1.10741E+04  1.84220E+04  6.22709E+03
  1.33754E+04  2.17430E+04 -6.47160E+03  2.58749E+04 -2.20261E+04  1.10113E+04 -2.83268E+04 -4.53930E+03
 -2.11039E+04 -1.72450E+04 -9.41530E+03 -2.10578E+04  4.16700E+03 -1.98547E+04  1.64190E+04 -1.89924E+04
  2.68858E+04 -1.29285E+04  3.36289E+04  3.66734E+03  2.42297E+04  2.06705E+04  4.51992E+03  3.67207E+04
 -1.81933E+04  3.08923E+04 -2.79552E+04  1.11390E+04 -2.06503E+04 -9.93651E+03 -4.77979E+03 -1.36118E+04
  1.41132E+03 -2.06941E+03 -5.03986E+03  6.67859E+03 -1.67252E+04  5.10186E+03 -1.70194E+04 -7.50986E+03
 -1.03523E+04 -1.90555E+04  4.83386E+03 -2.30107E+04  1.62231E+04 -1.71436E+04  1.72316E+04 -2.16713E+03
  1.17380E+04  1.35446E+04 -6.03130E+02  1.92523E+04 -1.34164E+04  1.09322E+04 -1.95870E+04 -3.79961E+03
 -1.50320E+04 -1.73327E+04 -1.98973E+03 -2.36888E+04  1.09279E+04 -1.88087E+04  1.90831E+04 -9.11562E+03
  1.80215E+04 -2.08198E+02  1.32088E+04  5.23794E+03  6.85344E+03  8.44611E+02  9.99598E+03 -1.54425E+03
  1.74532E+04  2.70638E+03  2.01159E+04  1.54443E+04  1.29063E+04  3.13659E+04 -2.28738E+03  3.51067E+04
 -2.01352E+04  2.85857E+04 -3.24671E+04  1.41801E+04 -3.42793E+04 -2.48661E+03 -2.90409E+04 -2.03355E+04
 -1.21238E+04 -2.85247E+04  9.53441E+03 -2.53545E+04  2.19619E+04 -1.28682E+04  2.03317E+04  5.24070E+03
  7.75065E+03  1.45961E+04 -9.70164E+03  1.33640E+04 -1.63191E+04  2.54829E+03 -1.29931E+04 -1.02490E+04
 -2.08298E+02 -1.56750E+04  8.32553E+03 -1.17417E+04  1.10136E+04 -1.48395E+03  2.00074E+03  6.52342E+03
 -6.76233E+03  2.35077E+03 -6.52895E+03 -5.64406E+03 -5.16101E+02 -1.34902E+04  9.70517E+03 -1.47276E+04
  1.75441E+04 -8.28451E+03  1.82325E+04  2.82627E+03  1.65673E+04  1.41679E+04  6.85020E+03  2.16531E+04
 -3.86802E+03  2.30187E+04 -1.42606E+04  1.45573E+04 -1.62004E+04  3.20825E+03 -1.19017E+04 -4.31737E+03
 -5.30490E+03 -5.18490E+03 -1.21485E+03  7.57788E+02 -2.44566E+03  3.02545E+03 -5.32792E+03  4.46215E+03
 -1.10139E+04 -6.74990E+02 -1.17871E+04 -9.19010E+03 -4.52562E+03 -1.47996E+04  5.22471E+03 -1.17452E+04
  1.02912E+04 -5.53159E+03  6.81183E+03  3.31796E+03 -3.76031E+01  4.18159E+03 -5.41907E+03 -6.51176E+02
 -5.21614E+03 -7.35831E+03 -8.27708E+02 -1.12284E+04  6.88365E+03 -1.11266E+04  1.50400E+04 -6.12093E+03
  1.73772E+04  1.96382E+03  1.27951E+04  9.74437E+03  2.41445E+03  1.28842E+04 -7.39103E+03  1.16790E+04
 -1.04782E+04  3.86362E+03 -4.94543E+03 -2.52031E+03  1.95086E+03 -3.17879E+03  6.30634E+03 -1.82135E+03
  5.94432E+03  4.69397E+03  9.36065E+02  9.46348E+03 -7.31016E+03  9.58121E+03 -1.17344E+04  2.25642E+03
 -8.49876E+03 -5.62710E+03  2.05871E+02 -9.30157E+03  5.75460E+03 -4.84829E+03  6.07912E+03  2.19641E+03
  1.03721E+03  6.92687E+03 -5.81562E+03  7.72387E+03 -8.63497E+03  3.50576E+03 -9.15969E+03 -2.99962E+03
 -4.51930E+03 -1.08732E+04  2.06198E+03 -1.21334E+04  1.02647E+04 -7.54094E+03  1.08217E+04  1.99100E+03
  7.50928E+03  9.05341E+03 -1.30224E+03  1.15576E+04 -8.15381E+03  5.85743E+03 -8.89883E+03 -9.87012E+02
 -8.75126E+03 -8.01139E+03 -1.40191E+03 -7.66562E+03  4.19839E+03 -6.93246E+03  4.65181E+03 -3.59024E+03
  4.45802E+03  1.02354E+03 -5.02093E+02  1.75416E+03  6.85973E+01 -2.00810E+03  1.67933E+03 -4.04716E+03
  6.88663E+03 -3.10201E+03  1.05784E+04  1.41487E+03  1.04562E+04  6.33925E+03  7.49386E+03  1.37493E+04
 -2.95383E+03  1.52494E+04 -1.33268E+04  1.13502E+04 -1.65510E+04  2.92877E+03 -1.33109E+04 -5.43577E+03
 -6.73469E+03 -1.09694E+04 -2.84843E+02 -8.71158E+03  3.23538E+03 -4.82573E+03  3.50578E+03 -3.34097E+03
  2.42364E+03 -1.97237E+03  3.02831E+03 -3.05534E+03  4.81844E+03 -2.69382E+03  5.29130E+03 -3.11101E+02
  6.65020E+03  2.33030E+03  3.76041E+03  6.56127E+03 -1.87159E+03  7.15414E+03 -6.90437E+03  4.52817E+03
 -8.96271E+03 -7.79622E+02 -5.30399E+03 -6.30140E+03 -2.73146E+02 -9.94860E+03  5.63402E+03 -1.01256E+04
  9.54214E+03 -5.51383E+03  1.17503E+04  1.20639E+03  8.60007E+03  7.60423E+03  1.61959E+03  1.11240E+04
 -3.83748E+03  9.26404E+03 -6.70893E+03  3.18606E+03 -4.40765E+03 -8.25001E+02 -9.29449E+02 -7.60276E+02
 -1.42105E+03  1.51090E+02 -1.76568E+03  2.80681E+03 -3.97710E+03  1.86156E+03 -6.36393E+03 -1.09960E+03
 -4.07605E+03 -6.96239E+03  3.04080E+02 -8.75221E+03  5.63123E+03 -8.74246E+03  8.22993E+03 -2.31866E+03
  8.12806E+03  4.17248E+03  4.67815E+03  7.99220E+03 -2.02008E+03  8.69103E+03 -5.87807E+03  5.54678E+03
 -7.83182E+03  4.66203E+02 -7.04635E+03 -5.31303E+03 -6.70947E+01 -6.81623E+03  3.33985E+03 -5.59740E+03
  5.48376E+03 -2.24299E+03  4.08935E+03  1.51024E+03  1.33370E+03  2.46571E+03  1.90848E+02  1.29595E+03
  2.05515E+03  9.74587E+02  2.15813E+03  1.13250E+03  1.79912E+03  4.04971E+03  1.85607E+03  4.96494E+03
 -2.32763E+03  6.76106E+03 -5.94251E+03  6.37733E+03 -9.05086E+03  2.29744E+03 -8.80442E+03 -3.01908E+03
 -3.50128E+03 -8.69183E+03  1.29236E+03 -9.23663E+03  4.48667E+03 -5.62059E+03  6.65522E+03 -1.85525E+03
  5.26679E+03  3.62151E+03  1.01214E+03  5.18123E+03 -1.88879E+03  2.76695E+03 -3.32716E+03 -5.08074E+02
 -2.21059E+03 -3.81386E+03  2.03548E+03 -3.12221E+03  4.04040E+03 -1.49806E+03  3.90948E+03  1.13338E+03
  2.28850E+03  1.14796E+03  1.39267E+03  8.14847E+02 -1.19884E+02  1.41736E+03  1.77233E+03 -2.70589E+02
  8.77792E+02 -3.75813E+02  3.56569E+03  1.76009E+03  1.42383E+03  4.72872E+03 -3.55099E+02  6.46404E+03
 -4.03908E+03  3.86067E+03 -5.40952E+03  9.23505E+02 -4.54753E+03 -1.90282E+03 -1.26206E+03 -2.99100E+03
  1.55978E+02 -2.92343E+03  2.26194E+03 -1.46739E+03  1.45743E+03  1.69344E+03 -9.44484E+02  2.59814E+03
 -3.08753E+03  1.49563E+03 -3.21067E+03 -2.42171E+03 -2.04613E+03 -4.55968E+03  1.53365E+03 -4.09307E+03
  1.78730E+03 -2.34079E+03  2.88586E+03 -1.11216E+02  2.60971E+03  9.36817E+02  5.84950E+02  2.61231E+03
 -1.26568E+03  9.06683E+02 -2.01169E+03 -1.10385E+03  7.82181E+02 -3.10243E+03  4.31920E+03 -2.44626E+03
  4.47086E+03  5.27849E+02  5.21283E+03  2.37234E+03  1.41790E+03  5.12823E+03 -1.70938E+03  4.65847E+03
 -3.88556E+03  1.94480E+03 -4.09204E+03 -1.18448E+03 -2.21727E+03 -3.69376E+03  4.18705E+02 -3.34864E+03
  3.88185E+03 -1.70054E+03  2.38674E+03  1.24048E+03  9.36776E+02  2.47282E+03 -7.25546E+02  2.22473E+03
 -1.13008E+03  1.62233E+03 -1.34207E+03  3.07569E+01 -2.12700E+02  5.62424E+02 -1.10706E+03  1.52484E+03
 -1.91293E+03  1.79701E+03 -3.76764E+03  1.33069E+03 -5.04672E+03 -2.55719E+02 -5.32720E+03 -3.04583E+03
 -2.67006E+03 -6.25637E+03  1.04975E+03 -7.56970E+03  4.38273E+03 -5.90508E+03  7.72922E+03 -2.23488E+03
  7.00362E+03  1.13774E+03  3.78064E+03  4.70303E+03 -1.52285E+02  4.98838E+03 -1.69659E+03  3.45214E+03
 -2.99435E+03  1.31934E+03 -2.21161E+03 -5.82268E+02 -6.01115E+02  5.95053E+01 -2.89804E+02  1.95091E+02
 -1.46321E+03 -3.16391E+01 -1.47862E+03 -6.41453E+02 -6.49679E+02 -1.21827E+03 -3.45150E+02 -1.98087E+03
  2.07405E+03 -2.01408E+03  2.69100E+03 -1.12594E+03  4.10795E+03  2.76013E+03  2.14553E+02  4.80357E+03
 -2.41715E+03  5.61884E+03 -5.05182E+03  3.65407E+03 -6.14473E+03 -7.40401E+02 -4.20386E+03 -3.49364E+03
 -1.95863E+03 -5.09086E+03  1.26423E+03 -3.47846E+03  2.24572E+03 -2.47341E+03  2.77955E+03  5.12164E+02
  2.09336E+03  1.60514E+03 -9.99216E+02  1.60384E+03 -9.69065E+02 -8.91837E+01 -4.13723E+02 -9.68398E+02
  2.05455E+03 -2.88078E+02  1.29309E+03  1.11118E+03  8.19410E+02  1.67571E+03  5.29053E+02  2.53996E+03
 -1.82698E+03  2.02201E+03 -2.56553E+03  7.00759E+01 -3.18558E+03 -1.95295E+03  3.83843E+02 -3.04171E+03
  2.68433E+03 -3.25135E+03  2.94251E+03 -1.03327E+03  2.85052E+03  4.29682E+02  1.55980E+03  3.58480E+03
  8.91054E+02  2.57536E+03 -8.64570E+02  2.35934E+03 -1.39228E+03  1.98346E+03 -1.61223E+03  8.97511E+02
 -1.73692E+02 -3.53830E+02 -7.78129E+02 -1.91659E+01 -1.39475E+03  4.51835E+02 -1.93589E+03 -3.37939E+02
 -2.04208E+03 -1.22227E+03 -3.04555E+02 -3.11965E+03  1.22793E+03 -3.34205E+03  2.44026E+03 -1.20018E+03
  2.10354E+03  1.01084E+03  8.62245E+02  2.30398E+03 -1.29814E+02  2.53069E+03 -1.81405E+03  2.23948E+03
