 $NMID ID='MM_0lb_SNR400_16hz_g45_70.RAW', FMTDAT='(8E13.5)'
 TRAMP=1., VOLUME=1. $END
  3.09257E+05  5.34102E+02  3.37626E+05  2.50175E+05  8.39700E+04  3.37926E+05 -1.32414E+05  2.50015E+05
 -1.89514E+05  8.25263E+04 -1.11576E+05 -3.21023E+04  1.18832E+03 -4.98317E+04  5.35820E+04 -1.35200E+02
  3.56105E+04  5.32049E+04 -1.73668E+04  7.52758E+04 -6.00995E+04  6.29939E+04 -8.33607E+04  3.18232E+04
 -8.01756E+04 -1.14536E+04 -5.63074E+04 -5.10830E+04 -1.50212E+04 -6.89669E+04  2.65755E+04 -4.47348E+04
  3.96572E+04  4.40664E+03  1.57674E+04  4.71793E+04 -3.38054E+04  4.68890E+04 -6.57011E+04 -1.40057E+02
 -5.26196E+04 -5.61555E+04 -6.14412E+03 -7.57322E+04  3.30051E+04 -5.40211E+04  4.69287E+04 -1.69080E+04
  4.23002E+04  1.12849E+04  3.07152E+04  2.48466E+04  1.51279E+04  2.89345E+04 -5.22481E+03  2.72012E+04
 -2.21252E+04  1.30702E+04 -1.87423E+04 -4.53305E+03  5.04879E+03 -7.05170E+03  2.19335E+04  1.14065E+04
  7.58891E+03  3.45703E+04 -3.13768E+04  3.46024E+04 -6.20873E+04  1.93154E+03 -5.61903E+04 -4.19369E+04
 -1.27212E+04 -6.21422E+04  3.83656E+04 -4.46335E+04  5.71393E+04 -2.15760E+03  3.28295E+04  3.09728E+04
 -6.19643E+03  3.47928E+04 -2.92188E+04  1.47602E+04 -2.92771E+04 -5.06557E+03 -1.53035E+04 -1.02575E+04
 -8.08758E+03 -1.28494E+04 -1.16904E+03 -1.74992E+04  7.41619E+03 -2.32574E+04  1.51467E+04 -1.35787E+04
  1.17202E+04  4.46160E+03 -6.78562E+03  1.27331E+04 -2.01207E+04 -2.94664E+03 -7.94734E+03 -3.22243E+04
  2.22476E+04 -4.12444E+04  4.66423E+04 -1.93054E+04  4.34311E+04  1.87263E+04  1.46985E+04  4.27358E+04
 -1.55490E+04  3.19689E+04 -2.40416E+04  1.63438E+03 -8.80731E+03 -2.70304E+04  2.08001E+04 -3.15488E+04
  3.94884E+04 -8.11354E+03  3.32094E+04  2.31954E+04  1.71246E+04  4.46407E+04 -7.77508E+03  4.77475E+04
 -2.97331E+04  3.14220E+04 -3.99431E+04  8.49226E+03 -4.06305E+04 -1.56664E+04 -2.22312E+04 -3.59546E+04
  7.13668E+03 -3.52371E+04  2.99005E+04 -1.36251E+04  2.73909E+04  1.09870E+04  3.11724E+03  1.83375E+04
 -1.38821E+04  7.82466E+03 -9.74692E+03 -8.03340E+03  5.87303E+03 -1.06462E+04  1.72553E+04  7.03637E+03
  1.24459E+04  2.13205E+04 -6.35122E+03  2.40391E+04 -2.18329E+04  9.68399E+03 -2.71392E+04 -5.74344E+03
 -1.86098E+04 -1.75510E+04 -6.78400E+03 -1.83762E+04  4.11688E+03 -1.73586E+04  1.46189E+04 -1.62029E+04
  2.36155E+04 -1.22451E+04  2.98918E+04  1.95632E+03  2.29996E+04  1.83905E+04  4.31957E+03  3.44410E+04
 -1.62685E+04  2.86580E+04 -2.65640E+04  1.02317E+04 -2.08458E+04 -1.07318E+04 -4.47030E+03 -1.40070E+04
  2.13467E+03 -3.35999E+03 -3.53038E+03  5.68060E+03 -1.47220E+04  5.39544E+03 -1.50159E+04 -6.03589E+03
 -9.05428E+03 -1.68292E+04  4.76299E+03 -2.10371E+04  1.41814E+04 -1.54732E+04  1.61488E+04 -1.09932E+03
  9.86757E+03  1.18639E+04 -5.00236E+02  1.70396E+04 -1.19934E+04  9.96674E+03 -1.68996E+04 -4.11030E+03
 -1.27316E+04 -1.52733E+04 -1.67436E+03 -2.11335E+04  9.07163E+03 -1.67553E+04  1.76913E+04 -8.48863E+03
  1.59383E+04  8.41928E+02  1.10872E+04  3.76345E+03  6.11244E+03  4.34650E+02  8.47617E+03 -1.66773E+03
  1.53874E+04  2.23115E+03  1.68948E+04  1.41899E+04  1.03669E+04  2.74393E+04 -3.16675E+03  2.96663E+04
 -1.78729E+04  2.33988E+04 -2.73461E+04  1.13556E+04 -2.86600E+04 -2.08889E+03 -2.38077E+04 -1.63939E+04
 -1.08282E+04 -2.31578E+04  7.88297E+03 -2.15451E+04  1.87031E+04 -1.18713E+04  1.71692E+04  4.78569E+03
  6.43109E+03  1.26929E+04 -8.16057E+03  1.15975E+04 -1.46085E+04  2.35714E+03 -1.14891E+04 -8.74049E+03
 -2.91430E+01 -1.36823E+04  7.36200E+03 -1.04242E+04  8.99478E+03 -8.18344E+02  2.45380E+03  6.17822E+03
 -6.42406E+03  1.79464E+03 -4.71481E+03 -4.45193E+03  4.24194E+02 -1.20387E+04  9.02436E+03 -1.20389E+04
  1.46584E+04 -6.02552E+03  1.46023E+04  2.96222E+03  1.27610E+04  1.14950E+04  5.81542E+03  1.65299E+04
 -2.22896E+03  1.85970E+04 -1.11256E+04  1.18630E+04 -1.30997E+04  3.47256E+03 -9.96525E+03 -2.46529E+03
 -4.68720E+03 -4.29326E+03 -6.44942E+02  1.05096E+03 -2.17756E+03  1.64466E+03 -4.50870E+03  3.30328E+03
 -9.17703E+03 -3.17942E+02 -9.99296E+03 -7.87490E+03 -4.36383E+03 -1.30435E+04  3.85013E+03 -9.30546E+03
  8.11283E+03 -4.24474E+03  6.13800E+03  2.44843E+03  2.00952E+02  3.59518E+03 -4.37286E+03 -9.49803E+01
 -4.32540E+03 -6.57825E+03 -3.58875E+02 -8.37663E+03  5.06362E+03 -9.18958E+03  1.21023E+04 -4.64826E+03
  1.38169E+04  9.32870E+02  1.00108E+04  7.50901E+03  2.43316E+03  1.09429E+04 -6.02843E+03  9.53272E+03
 -7.27433E+03  3.08760E+03 -4.45431E+03 -1.42519E+03  1.65723E+03 -2.68669E+03  5.52508E+03 -2.56592E+02
  4.69482E+03  3.83242E+03  1.10187E+03  7.36710E+03 -5.21696E+03  7.16815E+03 -9.04474E+03  2.41580E+03
 -5.55090E+03 -4.63518E+03  1.66233E+02 -7.33609E+03  5.48469E+03 -4.37445E+03  4.76251E+03  1.49388E+03
  1.29444E+03  4.64302E+03 -4.71848E+03  6.37432E+03 -6.87006E+03  2.40442E+03 -6.03035E+03 -2.05500E+03
 -3.50565E+03 -8.17211E+03  1.54729E+03 -8.66894E+03  7.37219E+03 -5.25193E+03  8.22575E+03  1.42845E+03
  5.42574E+03  6.24357E+03 -4.04530E+02  8.70645E+03 -6.89704E+03  5.04592E+03 -6.74500E+03 -6.77384E+02
 -6.31099E+03 -6.00243E+03 -1.68314E+03 -5.82418E+03  3.46289E+03 -6.04882E+03  3.88355E+03 -2.74464E+03
  3.18209E+03  4.46992E+02 -6.15361E+02  1.60579E+03  7.25916E+01 -7.09753E+02 -1.54197E+02 -3.13577E+03
  5.45867E+03 -1.88975E+03  7.13221E+03  3.25005E+02  6.92188E+03  4.64276E+03  6.41461E+03  9.68609E+03
 -1.68863E+03  1.06058E+04 -9.70827E+03  8.80346E+03 -1.26749E+04  1.75995E+03 -9.74585E+03 -3.91268E+03
 -5.75999E+03 -8.49882E+03 -7.71181E+02 -6.50625E+03  2.79890E+03 -2.69197E+03  2.05725E+03 -2.83415E+03
  1.22608E+03 -1.77822E+03  2.72217E+03 -2.49468E+03  3.83575E+03 -1.07938E+03  4.38334E+03  1.91428E+02
  5.54580E+03  1.38535E+03  2.38091E+03  4.10774E+03 -1.40171E+03  4.33287E+03 -6.57254E+03  3.78690E+03
 -6.53519E+03 -5.05714E+02 -3.30285E+03 -4.27175E+03  3.35594E+02 -6.86183E+03  3.88635E+03 -6.60176E+03
  6.95549E+03 -3.75143E+03  8.79068E+03  2.37894E+02  6.35041E+03  5.92818E+03  1.08872E+03  7.53806E+03
 -3.35691E+03  7.35548E+03 -4.37502E+03  2.41125E+03 -2.67054E+03 -1.27455E+03 -1.04421E+03 -3.68105E+02
 -9.32341E+02  3.50099E+02 -9.24929E+02  2.03301E+03 -3.34460E+03  1.16401E+03 -4.53046E+03 -8.55901E+02
 -2.09104E+03 -5.49099E+03  1.10808E+03 -6.64768E+03  3.23824E+03 -5.94562E+03  5.50978E+03 -1.79148E+03
  5.60751E+03  2.95197E+03  2.76090E+03  4.95115E+03 -1.19146E+03  6.27196E+03 -3.59061E+03  3.40657E+03
 -5.16909E+03  2.86779E+02 -4.81706E+03 -4.07728E+03 -1.26538E+02 -3.97436E+03  2.40141E+03 -3.40774E+03
  3.08928E+03 -2.43215E+03  2.40281E+03  5.63371E+02  1.23753E+03  1.11643E+03  1.28517E+03  1.23710E+03
  1.82679E+03  1.41526E+02  1.46900E+03  1.33428E+03  1.76147E+03  2.78882E+03  1.34529E+03  3.46611E+03
 -1.79075E+03  4.70819E+03 -3.47720E+03  5.25792E+03 -4.72128E+03  1.77116E+03 -5.45522E+03 -1.06995E+03
 -1.56006E+03 -5.95012E+03  1.28105E+03 -6.33813E+03  3.01075E+03 -3.56907E+03  4.59777E+03 -1.22938E+03
  3.51198E+03  1.81333E+03  3.01687E+02  3.67910E+03 -9.41345E+02  1.57129E+03 -1.64270E+03 -6.52984E+02
 -1.41864E+03 -1.85463E+03  1.23863E+03 -2.49279E+03  2.20308E+03 -1.44498E+03  2.36549E+03  2.98264E+02
  1.14410E+03  9.71760E+02  1.11201E+03  3.87897E+02 -5.50089E+02  1.56313E+03  1.50246E+03 -6.03089E+02
  4.85236E+02 -3.48332E+02  2.26279E+03  8.03533E+02  1.07588E+03  3.47518E+03 -2.79844E+02  3.53346E+03
 -2.42683E+03  2.36891E+03 -2.52779E+03  6.91593E+02 -2.75393E+03 -1.06703E+03 -7.37797E+02 -2.05874E+03
  2.56253E+02 -1.78257E+03  1.46055E+03 -1.12500E+03  7.66012E+02  1.46722E+03 -5.87817E+02  1.61872E+03
 -2.21023E+03  1.27378E+03 -1.93355E+03 -1.18366E+03 -1.41161E+03 -3.25560E+03 -2.88301E+01 -3.13949E+03
  1.09270E+03 -7.43402E+02  1.15665E+03 -1.44689E+02  2.53892E+03  1.22156E+02  5.38932E+02  8.64951E+02
 -1.07337E+03  3.44839E+02 -9.81533E+02 -4.32226E+02  5.60636E+02 -2.01164E+03  2.74881E+03 -1.14765E+03
  1.93667E+03  8.90840E+02  4.17268E+03  1.62195E+03  1.37489E+03  2.96729E+03 -7.92647E+02  2.86518E+03
 -2.31006E+03  1.12954E+03 -2.82701E+03 -8.11660E+02 -1.56811E+03 -2.74924E+03  7.00447E+02 -1.19095E+03
  2.11804E+03 -5.57756E+02  5.77102E+02  1.06787E+03  3.00254E+02  1.69994E+03  2.31193E+02  1.24144E+03
 -7.56237E+02  9.69529E+02 -1.18250E+03  4.62242E+02  5.93380E+01  7.92384E+02 -1.04676E+03  7.52117E+02
 -8.24269E+02  1.43692E+03 -2.45905E+03  7.76980E+02 -2.76124E+03 -9.99669E+01 -3.70473E+03 -1.27639E+03
 -1.96797E+03 -3.63045E+03  1.45566E+03 -5.47557E+03  2.61047E+03 -3.58616E+03  4.24484E+03 -1.11880E+03
  3.95501E+03  5.23505E+02  1.51345E+03  2.37272E+03 -3.40130E+02  2.41404E+03 -1.02420E+03  1.73468E+03
 -1.61568E+03  9.83989E+02 -7.67802E+02 -7.04075E+02 -8.32821E+02 -2.47630E+02 -1.73619E+03 -6.47383E+01
 -1.41187E+03  4.57262E+02 -8.72100E+02  8.76194E+02 -2.13521E+02 -7.89154E+02 -3.34917E+02 -1.19196E+03
  1.69724E+03 -1.24070E+03  1.16905E+03  6.54627E+02  2.12202E+03  1.29242E+03 -4.82454E+02  3.04531E+03
 -1.70076E+03  3.19819E+03 -3.31146E+03  1.99085E+03 -2.87066E+03  2.73223E+02 -2.24545E+03 -1.79473E+03
 -1.08873E+03 -2.55566E+03  2.22183E+02 -2.69658E+03  1.34771E+03 -1.19613E+03  1.58366E+03  2.06636E+02
  1.38273E+03  8.53975E+02  1.13328E+02  1.11621E+02 -1.18037E+03  1.55974E+01 -6.51486E+02 -2.02681E+02
  6.51321E+02  7.83188E+02  3.22361E+02  2.79680E+02  4.32199E+02  9.83488E+02  1.24003E+02  1.12164E+03
 -1.04377E+03  7.31017E+02 -9.51618E+02 -6.38981E+01 -1.98612E+03 -1.01724E+03 -6.71834E+01 -1.63433E+03
  1.45377E+03 -1.53985E+03  1.39211E+03 -6.82889E+02  1.24447E+03 -3.33607E+02  9.69839E+02  1.37793E+03
  5.12966E+02  1.11535E+03 -6.73045E+02  1.83260E+03 -8.16618E+02  1.12580E+03 -4.29451E+02  3.52615E+02
 -6.72029E+02 -2.44931E+02 -1.15630E+03 -5.32549E+01 -6.49563E+02  1.02133E+02 -1.47512E+03 -6.83895E+02
 -1.56913E+03 -3.73437E+02  7.33643E+01 -1.21438E+03  1.02881E+03 -2.36753E+03  7.65668E+02 -6.52337E+02
  2.03887E+03 -4.61592E+02 -3.10216E+02  1.02962E+03 -6.27833E+02  1.91400E+03 -1.15361E+03  5.90599E+02
