 $NMID ID='MM_0lb_SNR400_17hz_g60_80.RAW', FMTDAT='(8E13.5)'
 TRAMP=1., VOLUME=1. $END
  3.09472E+05  1.88378E+02  3.37611E+05  2.50502E+05  8.48488E+04  3.37674E+05 -1.32580E+05  2.50842E+05
 -1.90812E+05  8.33614E+04 -1.11869E+05 -3.22563E+04  8.74971E+02 -5.02888E+04  5.44716E+04  2.65069E+02
  3.54318E+04  5.27008E+04 -1.66451E+04  7.52062E+04 -6.10449E+04  6.38117E+04 -8.36204E+04  3.22102E+04
 -8.05383E+04 -1.15156E+04 -5.77485E+04 -5.12208E+04 -1.43608E+04 -6.91296E+04  2.72619E+04 -4.57160E+04
  3.99170E+04  3.92448E+03  1.59369E+04  4.85089E+04 -3.46833E+04  4.72993E+04 -6.61136E+04 -4.83963E+02
 -5.39409E+04 -5.65186E+04 -6.94381E+03 -7.65714E+04  3.38873E+04 -5.48122E+04  4.77963E+04 -1.69019E+04
  4.30362E+04  1.11598E+04  3.19264E+04  2.50643E+04  1.59783E+04  2.94194E+04 -5.33906E+03  2.74491E+04
 -2.18183E+04  1.28303E+04 -1.89889E+04 -4.58954E+03  5.60835E+03 -7.83343E+03  2.19335E+04  1.25331E+04
  7.35933E+03  3.50697E+04 -3.16018E+04  3.52952E+04 -6.34107E+04  2.24889E+03 -5.67197E+04 -4.25732E+04
 -1.20744E+04 -6.28988E+04  3.94600E+04 -4.51796E+04  5.77784E+04 -2.57005E+03  3.35160E+04  3.17689E+04
 -6.86933E+03  3.57601E+04 -2.93934E+04  1.51004E+04 -2.99663E+04 -4.34834E+03 -1.61224E+04 -1.09766E+04
 -8.48453E+03 -1.24241E+04 -7.34243E+02 -1.76538E+04  7.58835E+03 -2.33980E+04  1.54792E+04 -1.37805E+04
  1.13496E+04  4.47745E+03 -7.58718E+03  1.33471E+04 -2.10030E+04 -3.90889E+03 -8.28433E+03 -3.30131E+04
  2.27040E+04 -4.33210E+04  4.82383E+04 -1.93390E+04  4.44534E+04  1.93739E+04  1.52632E+04  4.43646E+04
 -1.55175E+04  3.31816E+04 -2.48415E+04  1.78898E+03 -9.60679E+03 -2.73442E+04  2.07415E+04 -3.38106E+04
  4.07435E+04 -9.37203E+03  3.42928E+04  2.31134E+04  1.75907E+04  4.58343E+04 -7.68123E+03  4.89905E+04
 -3.09801E+04  3.30304E+04 -4.11014E+04  1.00581E+04 -4.19910E+04 -1.62428E+04 -2.36171E+04 -3.80476E+04
  6.84674E+03 -3.66737E+04  3.07150E+04 -1.45276E+04  2.80815E+04  1.09507E+04  3.56392E+03  1.87722E+04
 -1.33543E+04  7.74723E+03 -9.70181E+03 -7.65476E+03  5.59065E+03 -1.06692E+04  1.71160E+04  5.81116E+03
  1.30382E+04  2.19670E+04 -5.94515E+03  2.48863E+04 -2.25622E+04  1.12159E+04 -2.69362E+04 -5.44169E+03
 -1.98144E+04 -1.70620E+04 -7.88261E+03 -1.95565E+04  4.22158E+03 -1.85397E+04  1.47343E+04 -1.72874E+04
  2.47744E+04 -1.25623E+04  3.06818E+04  2.35048E+03  2.41962E+04  1.96968E+04  4.26663E+03  3.52082E+04
 -1.76886E+04  2.94240E+04 -2.76977E+04  1.07027E+04 -2.03267E+04 -1.02540E+04 -3.65601E+03 -1.34680E+04
  2.12186E+03 -3.36883E+03 -4.69255E+03  6.67386E+03 -1.54567E+04  5.13818E+03 -1.53800E+04 -6.31833E+03
 -9.52421E+03 -1.81178E+04  4.62325E+03 -2.21763E+04  1.42678E+04 -1.59875E+04  1.70676E+04 -1.43130E+03
  1.04700E+04  1.25288E+04 -6.75045E+02  1.80351E+04 -1.23319E+04  1.02888E+04 -1.73794E+04 -4.18731E+03
 -1.31403E+04 -1.62969E+04 -1.34274E+03 -2.19521E+04  9.84376E+03 -1.77331E+04  1.82484E+04 -8.75109E+03
  1.64478E+04  3.63238E+02  1.19934E+04  3.99933E+03  6.20769E+03  3.82345E+02  9.38332E+03 -1.21123E+03
  1.66713E+04  1.98494E+03  1.81471E+04  1.44161E+04  1.13090E+04  2.82680E+04 -2.69845E+03  3.16447E+04
 -1.83829E+04  2.53640E+04 -2.93727E+04  1.23078E+04 -3.05449E+04 -1.96236E+03 -2.60117E+04 -1.76569E+04
 -1.14802E+04 -2.49369E+04  8.29100E+03 -2.25947E+04  2.02664E+04 -1.20458E+04  1.73678E+04  5.27984E+03
  6.81973E+03  1.28997E+04 -8.77173E+03  1.14579E+04 -1.49595E+04  2.36252E+03 -1.18169E+04 -9.65982E+03
 -2.12801E+01 -1.41781E+04  7.12245E+03 -1.05863E+04  9.30658E+03 -1.27509E+03  1.51726E+03  5.82866E+03
 -6.42754E+03  1.98295E+03 -5.07129E+03 -5.65452E+03 -1.87519E+02 -1.24410E+04  8.95042E+03 -1.28397E+04
  1.53712E+04 -6.48310E+03  1.53518E+04  2.72604E+03  1.32781E+04  1.17685E+04  6.20874E+03  1.78130E+04
 -2.46273E+03  1.94415E+04 -1.19282E+04  1.27689E+04 -1.37852E+04  2.87289E+03 -1.01615E+04 -2.37319E+03
 -4.62170E+03 -4.20442E+03 -8.36779E+02  1.52777E+03 -2.44767E+03  2.91433E+03 -4.68315E+03  3.65524E+03
 -9.63443E+03 -4.46311E+02 -1.00910E+04 -8.83056E+03 -4.06957E+03 -1.32440E+04  4.15193E+03 -1.04845E+04
  8.52682E+03 -4.36632E+03  6.46007E+03  2.25732E+03  5.84114E+02  3.16569E+03 -4.15156E+03 -6.51702E+02
 -4.32955E+03 -6.28854E+03 -9.74789E+02 -9.18427E+03  4.91092E+03 -9.58233E+03  1.22666E+04 -5.47902E+03
  1.45575E+04  1.37647E+03  1.04215E+04  7.87459E+03  1.97210E+03  1.09948E+04 -6.16014E+03  1.00839E+04
 -7.88571E+03  2.96044E+03 -5.10157E+03 -1.68083E+03  1.40688E+03 -2.99168E+03  5.59564E+03 -9.39737E+02
  4.05533E+03  3.92982E+03  1.39861E+03  8.04036E+03 -6.08070E+03  7.66127E+03 -9.22096E+03  1.92707E+03
 -5.88588E+03 -5.02155E+03  2.34537E+02 -8.06815E+03  4.78423E+03 -4.32325E+03  4.88174E+03  1.49255E+03
  7.06144E+02  4.42906E+03 -4.66203E+03  6.78544E+03 -6.57817E+03  2.58886E+03 -6.86685E+03 -1.88909E+03
 -3.64858E+03 -7.78002E+03  2.01872E+03 -9.41051E+03  8.12509E+03 -5.84092E+03  8.39004E+03  1.63611E+03
  5.73508E+03  7.32481E+03 -3.35530E+02  8.51595E+03 -6.07731E+03  5.24474E+03 -6.39785E+03 -9.59721E+02
 -6.38799E+03 -6.21784E+03 -1.51502E+03 -6.36217E+03  2.98005E+03 -5.55627E+03  4.06036E+03 -2.92035E+03
  3.76026E+03  7.68761E+02 -1.00492E+02  1.20086E+03  6.02181E+02 -5.38575E+02  8.54777E+02 -2.78635E+03
  5.69456E+03 -1.75500E+03  7.21863E+03  1.15482E+03  7.00977E+03  4.40446E+03  6.26480E+03  9.76920E+03
 -1.66838E+03  1.08737E+04 -9.23912E+03  7.99916E+03 -1.22823E+04  1.31066E+03 -1.01968E+04 -3.41740E+03
 -5.89732E+03 -7.81000E+03 -2.39767E+02 -6.55742E+03  2.55953E+03 -3.44836E+03  2.28308E+03 -2.28115E+03
  2.08721E+03 -2.04728E+03  2.45522E+03 -2.51209E+03  3.67608E+03 -1.19393E+03  3.66259E+03  5.49958E+02
  5.61801E+03  1.43617E+03  2.06251E+03  4.61280E+03 -1.77560E+03  4.43914E+03 -5.15078E+03  3.73154E+03
 -6.33778E+03 -1.24157E+03 -3.33146E+03 -3.95199E+03 -1.84281E+02 -6.19840E+03  3.96777E+03 -7.00951E+03
  6.26024E+03 -4.09051E+03  8.93558E+03  4.11372E+02  6.28615E+03  5.69218E+03  1.29932E+03  7.72058E+03
 -2.74380E+03  6.68854E+03 -4.15950E+03  2.45721E+03 -2.79442E+03 -9.42255E+02 -6.17122E+02 -7.17394E+02
 -9.95759E+02  4.42884E+02 -1.26329E+03  1.92353E+03 -3.42194E+03  1.44389E+03 -5.01144E+03 -6.22133E+02
 -2.46119E+03 -4.64939E+03  3.55095E+02 -5.96988E+03  2.73954E+03 -5.33123E+03  5.41060E+03 -1.43533E+03
  5.20906E+03  3.14684E+03  2.21047E+03  5.26033E+03 -5.10298E+02  5.57448E+03 -4.04446E+03  3.46159E+03
 -5.50311E+03  6.20114E+02 -3.94237E+03 -3.50082E+03 -1.56371E+02 -4.09242E+03  1.97346E+03 -3.27221E+03
  3.78249E+03 -1.68423E+03  2.81796E+03  7.79933E+02  9.71005E+02  2.51492E+03  1.15399E+03  7.31377E+02
  1.71093E+03  8.37460E+02  7.64026E+02  1.50316E+03  1.17411E+03  2.85130E+03  1.80444E+03  2.27317E+03
 -1.11768E+03  4.28151E+03 -3.31954E+03  5.70212E+03 -4.50147E+03  6.14723E+02 -5.65598E+03 -1.07234E+03
 -2.97152E+03 -4.97419E+03  8.61737E+02 -6.60818E+03  2.39736E+03 -3.18215E+03  4.83404E+03 -1.15250E+03
  3.65578E+03  3.04171E+03  5.44111E+02  2.27130E+03 -1.18589E+03  1.62006E+03 -1.35814E+03  5.30954E+01
 -6.21652E+02 -1.76119E+03  1.26257E+03 -2.06767E+03  1.97216E+03 -1.28872E+03  1.85614E+03  7.01318E+02
  1.20433E+03  9.65418E+02  6.41617E+02  3.26538E+01 -7.21245E+02  8.85851E+02  2.03091E+03 -5.19788E+02
 -2.71799E+02 -8.23103E+02  2.16945E+03  1.13207E+03  7.52319E+02  2.54619E+03  9.03687E+01  3.59716E+03
 -2.44362E+03  1.92662E+03 -2.60890E+03  3.94413E+02 -2.58715E+03 -1.17935E+03 -8.26836E+02 -1.65769E+03
  1.98488E+02 -1.77149E+03  1.28414E+03 -1.04893E+03  1.11615E+03  1.29112E+03 -1.21169E+03  1.29220E+03
 -1.76958E+03  6.95486E+02 -1.92903E+03 -1.16102E+03 -1.38750E+03 -2.74704E+03  4.28240E+01 -2.26212E+03
  1.73041E+02 -1.25874E+03  8.34171E+02  1.11817E+03  1.96627E+03  3.65398E+02  4.61763E+02  1.48460E+03
 -2.16628E+02  5.63986E+01 -1.11930E+03 -3.34842E+02  3.62031E+02 -1.56638E+03  2.25042E+03 -1.53865E+03
  1.66505E+03  3.79079E+02  3.11282E+03  9.64022E+02  1.15909E+03  1.73502E+03 -6.70336E+02  2.65156E+03
 -2.33853E+03  1.10813E+03 -1.95415E+03 -1.10948E+02 -9.04340E+02 -1.56981E+03  2.29844E+02 -1.26367E+03
  1.61175E+03 -6.29386E+02  7.74191E+02  8.42432E+02 -4.87747E+01  1.77092E+03  3.84612E+02  1.12589E+03
 -4.65219E+02  1.21833E+03 -2.06426E+02  1.43412E+01  1.32785E+02  3.40990E+02 -7.45037E+02  6.66546E+02
 -7.18022E+02  8.68014E+02 -1.60862E+03  1.04490E+03 -1.46376E+03  2.91965E+02 -3.07424E+03 -1.08280E+03
 -1.79305E+03 -3.88461E+03  3.48177E+02 -3.67453E+03  1.47401E+03 -2.97123E+03  3.31559E+03 -1.15905E+03
  3.73145E+03 -2.79014E+01  1.34397E+03  2.19191E+03 -4.07116E+02  2.30455E+03 -6.10721E+02  1.74346E+03
 -1.14728E+03  1.46328E+03 -7.65561E+02 -1.56635E+02 -7.72936E+02  1.60646E+01  1.08972E+02  1.08973E+02
 -1.27685E+03  3.74805E+01 -1.01627E+03 -4.65885E+02  2.83740E+02 -8.35077E+02 -4.57720E+02 -1.09804E+03
  1.45022E+03 -7.78908E+02  1.19102E+03  4.37418E+02  1.52896E+03  1.35537E+03 -1.95174E+01  2.32440E+03
 -1.13502E+03  3.27391E+03 -2.23573E+03  1.50060E+03 -2.87603E+03 -5.67315E+01 -2.21930E+03 -1.41919E+03
 -5.89693E+02 -1.70733E+03 -2.69648E+01 -1.71424E+03  1.14453E+03 -1.11139E+03  1.06328E+03 -8.68459E+01
  4.68513E+02  4.10176E+02  4.47116E+02  2.14128E+02 -2.90015E+02  5.54315E+01 -5.69349E+02 -7.28217E+02
  5.59105E+02 -5.71056E+01 -7.41636E+00  6.91178E+02  1.52551E+02  3.13370E+02 -2.35109E+01  4.92654E+02
 -8.35865E+02  5.25849E+02 -1.35181E+03  1.17596E+02 -1.08774E+03 -1.16027E+03 -2.00428E+02 -1.38184E+03
  4.70904E+02 -8.48395E+02  1.21303E+03 -1.45424E+02  1.39342E+03 -9.13616E+02  3.81988E+02  1.28883E+03
  7.16855E+02  1.04482E+03 -4.01149E+02  3.50718E+02 -1.24912E+03  9.85929E+02 -4.82331E+02  6.93632E+02
 -1.13594E+02  1.47666E+02 -8.24884E+02  6.68170E+01 -4.43480E+02  3.07455E+02 -9.39567E+02  8.41042E+01
 -1.11573E+03 -3.02431E+02 -5.47172E+02 -1.38727E+03  1.22819E+03 -1.64386E+03  1.06969E+03 -6.40933E+02
  8.63709E+02 -6.86564E+01  4.10620E+01  6.73980E+02  1.61180E+02  1.37452E+03 -2.19999E+02  1.16420E+03
