 $NMID ID='MM_0lb_SNR400_11hz_g60_25.RAW', FMTDAT='(8E13.5)'
 TRAMP=1., VOLUME=1. $END
  3.09479E+05  3.61040E+02  3.37300E+05  2.50849E+05  8.49928E+04  3.38544E+05 -1.33058E+05  2.51951E+05
 -1.91227E+05  8.34155E+04 -1.12290E+05 -3.20907E+04  3.73173E+02 -5.04071E+04  5.32868E+04 -7.34863E+02
  3.58299E+04  5.22523E+04 -1.69695E+04  7.65233E+04 -6.20884E+04  6.52891E+04 -8.51641E+04  3.23041E+04
 -8.21175E+04 -1.14737E+04 -5.80121E+04 -5.30213E+04 -1.49659E+04 -7.12073E+04  2.78274E+04 -4.59232E+04
  4.08389E+04  4.31641E+03  1.67501E+04  4.85907E+04 -3.43895E+04  4.86013E+04 -6.77115E+04 -2.18055E+02
 -5.53146E+04 -5.73401E+04 -6.43639E+03 -7.90604E+04  3.46800E+04 -5.65906E+04  4.96643E+04 -1.90442E+04
  4.42740E+04  1.11117E+04  3.29775E+04  2.60971E+04  1.58455E+04  3.06061E+04 -5.32171E+03  2.77546E+04
 -2.23611E+04  1.21261E+04 -1.80689E+04 -5.08045E+03  7.15020E+03 -8.22314E+03  2.32156E+04  1.31615E+04
  7.04678E+03  3.79738E+04 -3.39239E+04  3.69316E+04 -6.61698E+04  2.68845E+03 -5.85800E+04 -4.38293E+04
 -1.30858E+04 -6.57197E+04  4.08596E+04 -4.72275E+04  6.00893E+04 -2.06701E+03  3.64102E+04  3.39766E+04
 -5.90516E+03  3.97168E+04 -3.14813E+04  1.76395E+04 -3.30443E+04 -3.57469E+03 -1.94473E+04 -1.21659E+04
 -9.17050E+03 -1.46530E+04 -2.83807E+02 -1.93371E+04  8.26155E+03 -2.38286E+04  1.44463E+04 -1.23353E+04
  1.08996E+04  6.39063E+03 -9.51142E+03  1.27231E+04 -2.25602E+04 -6.99121E+03 -8.81008E+03 -3.66023E+04
  2.52049E+04 -4.64414E+04  5.23087E+04 -2.10851E+04  4.80355E+04  2.03009E+04  1.75948E+04  4.63636E+04
 -1.63066E+04  3.64263E+04 -2.72401E+04  2.94993E+03 -1.18726E+04 -2.89015E+04  2.17312E+04 -3.70915E+04
  4.40678E+04 -1.09055E+04  3.89620E+04  2.52021E+04  2.10117E+04  5.07486E+04 -7.59690E+03  5.54720E+04
 -3.54305E+04  3.76229E+04 -4.65299E+04  1.12290E+04 -4.74791E+04 -1.81009E+04 -2.56631E+04 -4.09667E+04
  7.96906E+03 -4.13868E+04  3.39768E+04 -1.70687E+04  3.14079E+04  1.16127E+04  4.71918E+03  2.00143E+04
 -1.35729E+04  1.01528E+04 -1.13156E+04 -7.42594E+03  6.22495E+03 -1.14187E+04  1.89814E+04  5.24707E+03
  1.42700E+04  2.31179E+04 -4.44524E+03  2.66483E+04 -2.31567E+04  1.37672E+04 -3.08459E+04 -3.47218E+03
 -2.48369E+04 -1.96115E+04 -1.03340E+04 -2.40732E+04  4.20709E+03 -2.46698E+04  1.89699E+04 -2.25864E+04
  3.10347E+04 -1.42735E+04  3.73430E+04  4.43617E+03  2.62723E+04  2.32179E+04  4.24016E+03  4.02993E+04
 -1.93746E+04  3.30428E+04 -3.00701E+04  1.15431E+04 -2.24138E+04 -1.01188E+04 -5.63210E+03 -1.23316E+04
  5.22087E+02 -1.55682E+03 -6.63551E+03  8.69694E+03 -1.99655E+04  4.97788E+03 -1.98584E+04 -9.15744E+03
 -1.15312E+04 -2.25201E+04  6.04370E+03 -2.73691E+04  1.77225E+04 -1.87405E+04  2.21398E+04 -2.06321E+03
  1.36585E+04  1.57427E+04 -6.41736E+02  2.19016E+04 -1.61401E+04  1.36703E+04 -2.20256E+04 -5.29083E+03
 -1.61780E+04 -1.98932E+04 -2.30747E+03 -2.68118E+04  1.22896E+04 -2.20000E+04  2.22007E+04 -1.19783E+04
  2.09696E+04  3.34724E+02  1.53398E+04  5.21885E+03  8.12953E+03  1.17026E+03  1.25368E+04 -1.30931E+03
  2.24447E+04  2.76342E+03  2.40620E+04  1.74427E+04  1.67572E+04  3.57276E+04 -2.56464E+03  4.21486E+04
 -2.44549E+04  3.44263E+04 -3.93567E+04  1.75750E+04 -4.23220E+04 -2.75184E+03 -3.51726E+04 -2.48990E+04
 -1.38748E+04 -3.50146E+04  1.22801E+04 -3.13395E+04  2.73437E+04 -1.48338E+04  2.36360E+04  7.47135E+03
  8.01673E+03  1.71494E+04 -1.19237E+04  1.47546E+04 -1.92422E+04  3.15799E+03 -1.44735E+04 -1.25312E+04
  1.62576E+02 -1.85997E+04  1.02512E+04 -1.42951E+04  1.26319E+04 -1.45473E+03  2.71088E+03  8.20599E+03
 -8.94746E+03  4.12577E+03 -8.21183E+03 -6.39581E+03 -1.01458E+03 -1.71336E+04  1.12496E+04 -1.82797E+04
  2.14674E+04 -9.96039E+03  2.40550E+04  3.24640E+03  2.21753E+04  1.77570E+04  8.97304E+03  2.75409E+04
 -5.53407E+03  2.97220E+04 -1.92309E+04  1.76784E+04 -2.12888E+04  3.86759E+03 -1.50551E+04 -5.53521E+03
 -6.77668E+03 -6.94273E+03 -4.77655E+02  4.60292E+02 -2.60062E+03  3.24910E+03 -6.97972E+03  5.10243E+03
 -1.37380E+04 -3.57634E+02 -1.42956E+04 -1.19648E+04 -6.37304E+03 -1.80146E+04  6.41352E+03 -1.50659E+04
  1.18759E+04 -7.39095E+03  8.57778E+03  3.97275E+03 -1.41559E+01  5.68672E+03 -6.94880E+03 -2.64127E+02
 -6.82352E+03 -9.12975E+03 -9.35065E+02 -1.46436E+04  8.74339E+03 -1.50878E+04  1.93330E+04 -8.01729E+03
  2.22358E+04  2.29466E+03  1.63405E+04  1.33123E+04  2.49384E+03  1.78648E+04 -8.97085E+03  1.40235E+04
 -1.18328E+04  4.05950E+03 -5.54638E+03 -2.72135E+03  2.04799E+03 -4.08732E+03  7.35216E+03 -5.71219E+02
  6.11513E+03  6.32840E+03  9.35734E+02  1.12571E+04 -8.42715E+03  1.15895E+04 -1.39185E+04  3.04801E+03
 -9.47489E+03 -6.93700E+03  1.92119E+02 -1.18601E+04  8.11016E+03 -6.28124E+03  8.56299E+03  2.67821E+03
  1.90266E+03  9.28655E+03 -7.44852E+03  1.08803E+04 -1.29209E+04  5.24190E+03 -1.27837E+04 -4.38855E+03
 -7.45029E+03 -1.38518E+04  2.83866E+03 -1.67764E+04  1.45650E+04 -9.36513E+03  1.55418E+04  2.41694E+03
  8.29306E+03  1.22025E+04 -1.40805E+03  1.46807E+04 -1.07876E+04  7.70985E+03 -1.09279E+04 -7.15584E+02
 -9.99600E+03 -1.00927E+04 -1.57367E+03 -1.11427E+04  5.71159E+03 -9.01869E+03  6.14026E+03 -3.03178E+03
  4.05632E+03  1.56204E+03 -1.98653E+02  1.89024E+03 -4.94903E+02 -2.20263E+03  2.74316E+03 -6.61423E+03
  9.90130E+03 -4.38277E+03  1.48837E+04  1.32910E+03  1.43079E+04  9.44815E+03  8.63365E+03  1.82221E+04
 -3.82217E+03  2.07895E+04 -1.75963E+04  1.65872E+04 -2.19469E+04  2.90855E+03 -1.86529E+04 -7.76711E+03
 -1.05187E+04 -1.53596E+04 -1.00734E+03 -1.29449E+04  4.31103E+03 -7.04083E+03  4.84262E+03 -4.67232E+03
  3.04460E+03 -2.96116E+03  3.17067E+03 -3.73166E+03  5.14385E+03 -3.73145E+03  7.72888E+03 -9.68329E+02
  9.43131E+03  2.26656E+03  4.68155E+03  8.26192E+03 -2.74422E+03  9.63960E+03 -1.04578E+04  7.57077E+03
 -1.29497E+04 -1.07950E+03 -8.13012E+03 -8.62638E+03 -8.79303E+02 -1.43514E+04  8.13336E+03 -1.35791E+04
  1.42086E+04 -7.68993E+03  1.75621E+04  2.32807E+03  1.12126E+04  1.16356E+04  2.35070E+03  1.52997E+04
 -6.48770E+03  1.31695E+04 -8.93071E+03  4.72070E+03 -6.23774E+03 -1.70726E+03 -2.65042E+03 -2.13382E+03
 -1.40565E+03 -1.25657E+02 -2.05571E+03  3.43671E+03 -5.66335E+03  2.65848E+03 -9.58135E+03 -1.01343E+03
 -5.92423E+03 -8.53975E+03 -5.97082E+01 -1.24917E+04  7.71992E+03 -1.15593E+04  1.29554E+04 -3.30646E+03
  1.20216E+04  6.03401E+03  6.02232E+03  1.16929E+04 -2.41919E+03  1.27906E+04 -9.32260E+03  7.30877E+03
 -1.15385E+04 -3.15438E+01 -9.48626E+03 -8.22629E+03 -9.39265E+02 -1.02992E+04  5.53966E+03 -8.32964E+03
  7.68294E+03 -2.26414E+03  6.42795E+03  1.84907E+03  1.64765E+03  2.92629E+03  9.34280E+02  1.66109E+03
  2.12876E+03  2.69849E+02  2.67189E+03  2.18653E+03  3.94294E+03  5.00768E+03  3.20180E+03  5.93382E+03
 -2.10511E+03  8.78255E+03 -8.49266E+03  1.03298E+04 -1.26417E+04  2.68516E+03 -1.31160E+04 -4.93953E+03
 -6.50930E+03 -1.25858E+04  2.51833E+03 -1.40072E+04  7.62260E+03 -8.20706E+03  1.03020E+04 -2.23367E+03
  7.69462E+03  4.60477E+03  1.98108E+03  6.73167E+03 -2.97510E+03  4.61628E+03 -5.15404E+03 -5.17281E+02
 -2.96974E+03 -5.70308E+03  3.03137E+03 -5.05659E+03  4.81700E+03 -2.03380E+03  4.52993E+03  1.63432E+03
  2.66524E+03  2.21052E+03  1.22519E+03  1.53226E+03 -7.11086E+02  1.28618E+03  9.01689E+02 -8.87604E+02
  2.04264E+03 -7.38931E+02  4.82108E+03  2.12738E+03  2.72853E+03  6.69876E+03 -1.32015E+03  8.23407E+03
 -6.36663E+03  5.89202E+03 -8.31535E+03  1.14977E+03 -6.91214E+03 -2.83228E+03 -2.65928E+03 -4.06681E+03
  1.27180E+03 -4.46222E+03  3.66538E+03 -2.28487E+03  3.04409E+03  3.22577E+03 -1.73073E+03  3.61879E+03
 -5.28322E+03  2.45724E+03 -5.88585E+03 -2.64236E+03 -2.63598E+03 -7.18469E+03  1.96381E+03 -6.36515E+03
  3.82619E+03 -3.91096E+03  4.78202E+03 -8.75348E+02  3.84098E+03  1.24274E+03 -2.45408E+02  4.37770E+03
 -2.43151E+03  3.43075E+02 -2.93834E+03 -2.73882E+03  4.16070E+02 -5.29512E+03  5.98852E+03 -4.35113E+03
  7.58944E+03  3.32628E+02  7.68533E+03  5.14127E+03  2.83524E+03  8.03280E+03 -2.14617E+03  7.63980E+03
 -6.50365E+03  3.41407E+03 -6.56958E+03 -1.47185E+03 -3.17469E+03 -5.02394E+03  5.45571E+02 -4.77684E+03
  5.09715E+03 -2.09207E+03  4.37081E+03  2.68056E+03  1.72703E+03  4.18935E+03 -2.56400E+02  4.19722E+03
 -1.26830E+03  2.09406E+03 -1.90298E+03  5.55189E+02 -1.13529E+03  6.80188E+01 -1.53084E+03  1.69448E+03
 -2.22649E+03  2.62228E+03 -5.71344E+03  2.62076E+03 -8.46365E+03  6.73717E+02 -9.31560E+03 -4.94501E+03
 -4.27055E+03 -9.79760E+03  1.87030E+03 -1.15587E+04  7.02822E+03 -9.66043E+03  1.15360E+04 -3.81765E+03
  1.02975E+04  1.60361E+03  7.01617E+03  6.64668E+03 -5.13763E+02  8.26294E+03 -3.18636E+03  5.42197E+03
 -4.40438E+03  2.65333E+03 -2.60340E+03 -9.83701E+02 -6.69651E+02 -3.64324E+02 -3.25501E+02  1.05590E+02
 -1.66675E+03  8.52220E+02 -2.17619E+03  8.61596E+01  9.62528E+01 -1.28321E+03 -2.45422E+01 -1.86764E+03
  4.45971E+03 -3.07583E+03  4.57783E+03 -8.57383E+01  5.80959E+03  4.27212E+03  1.10501E+03  7.92909E+03
 -4.48865E+03  8.55992E+03 -8.33205E+03  4.97134E+03 -9.15236E+03 -5.12395E+02 -6.77621E+03 -5.16853E+03
 -3.21743E+03 -7.93810E+03  1.31456E+03 -7.46242E+03  4.96574E+03 -3.78683E+03  5.52875E+03  2.22315E+02
  2.60184E+03  2.21256E+03 -2.52899E+02  1.87686E+03 -1.88817E+03  9.15375E+02 -3.00281E+02 -1.85321E+03
  2.61260E+03 -6.43368E+02  3.51368E+03  1.85395E+03  2.39953E+03  3.30223E+03  1.65216E+01  4.25360E+03
 -3.46302E+03  3.12066E+03 -5.22753E+03  9.41987E+02 -4.62353E+03 -3.38628E+03 -7.12348E+02 -5.65300E+03
  3.29077E+03 -5.75232E+03  5.20463E+03 -1.11848E+03  5.41285E+03  9.04078E+02  3.52040E+03  4.46949E+03
  6.92608E+02  4.60694E+03 -1.91447E+03  4.64361E+03 -3.42793E+03  2.26673E+03 -2.44651E+03 -1.33951E+02
 -8.99733E+02  2.03315E+02 -1.80516E+03  5.04757E+02 -2.71021E+03  9.19037E+02 -3.66611E+03 -1.08466E+03
 -3.99822E+03 -2.38241E+03 -1.49821E+03 -5.36204E+03  2.50110E+03 -6.04856E+03  5.52938E+03 -2.95714E+03
  5.13735E+03  8.70924E+02  2.35417E+03  3.87304E+03  9.28230E+01  4.51277E+03 -3.78413E+03  3.66925E+03
