 $NMID ID='MM_0lb_SNR400_20hz_g60_1.RAW', FMTDAT='(8E13.5)'
 TRAMP=1., VOLUME=1. $END
  3.09597E+05  1.11816E+02  3.37614E+05  2.50546E+05  8.45822E+04  3.38115E+05 -1.32516E+05  2.50849E+05
 -1.90230E+05  8.31860E+04 -1.11619E+05 -3.28116E+04  9.15763E+02 -5.05924E+04  5.35307E+04  6.18955E+02
  3.54910E+04  5.28173E+04 -1.69765E+04  7.49051E+04 -6.02608E+04  6.33042E+04 -8.32462E+04  3.18433E+04
 -8.02300E+04 -1.08277E+04 -5.72503E+04 -5.06187E+04 -1.53476E+04 -6.88527E+04  2.73075E+04 -4.53940E+04
  3.95061E+04  4.00105E+03  1.53574E+04  4.73966E+04 -3.43242E+04  4.63176E+04 -6.51982E+04 -7.58018E+02
 -5.23380E+04 -5.68114E+04 -6.69143E+03 -7.62195E+04  3.34529E+04 -5.39489E+04  4.66325E+04 -1.69368E+04
  4.21282E+04  1.11227E+04  3.14516E+04  2.44552E+04  1.53468E+04  2.89110E+04 -4.55481E+03  2.78379E+04
 -2.18265E+04  1.22176E+04 -1.91856E+04 -4.21138E+03  4.82639E+03 -7.28682E+03  2.13840E+04  1.14084E+04
  7.55276E+03  3.44658E+04 -3.08370E+04  3.44553E+04 -6.15686E+04  2.17463E+03 -5.60565E+04 -4.13879E+04
 -1.30261E+04 -6.19002E+04  3.86013E+04 -4.42863E+04  5.60285E+04 -1.98356E+03  3.22604E+04  3.13647E+04
 -6.23717E+03  3.44886E+04 -2.89581E+04  1.40340E+04 -2.83815E+04 -5.31810E+03 -1.48996E+04 -1.04629E+04
 -7.47291E+03 -1.19709E+04 -7.30936E+02 -1.66542E+04  7.25363E+03 -2.28492E+04  1.47523E+04 -1.41101E+04
  1.21202E+04  3.71710E+03 -7.44883E+03  1.30346E+04 -2.00472E+04 -3.05962E+03 -8.26953E+03 -3.09463E+04
  2.12923E+04 -4.15197E+04  4.56290E+04 -1.88092E+04  4.29986E+04  1.83973E+04  1.43844E+04  4.24461E+04
 -1.54122E+04  3.19736E+04 -2.37546E+04  1.39589E+03 -8.82377E+03 -2.63274E+04  2.08915E+04 -3.21416E+04
  3.85443E+04 -7.47979E+03  3.29568E+04  2.26757E+04  1.58202E+04  4.37151E+04 -7.93155E+03  4.63629E+04
 -2.87982E+04  3.10768E+04 -3.88090E+04  8.54611E+03 -3.95512E+04 -1.53536E+04 -2.19234E+04 -3.55645E+04
  6.72535E+03 -3.43990E+04  2.99462E+04 -1.27390E+04  2.75672E+04  1.08427E+04  2.88972E+03  1.80980E+04
 -1.30594E+04  7.35564E+03 -9.57999E+03 -7.75516E+03  5.99598E+03 -1.05733E+04  1.72593E+04  6.18038E+03
  1.19687E+04  2.16854E+04 -6.37059E+03  2.34676E+04 -2.13422E+04  9.56664E+03 -2.57430E+04 -5.72728E+03
 -1.74094E+04 -1.68341E+04 -6.47671E+03 -1.77833E+04  3.30412E+03 -1.56189E+04  1.26447E+04 -1.50837E+04
  2.14339E+04 -1.17706E+04  2.87577E+04  1.26348E+03  2.20486E+04  1.70044E+04  3.97150E+03  3.28818E+04
 -1.62879E+04  2.83635E+04 -2.64791E+04  9.63004E+03 -1.92621E+04 -1.03319E+04 -3.62789E+03 -1.33721E+04
  2.63220E+03 -4.36939E+03 -3.30200E+03  5.32540E+03 -1.37603E+04  5.67245E+03 -1.35421E+04 -5.49515E+03
 -8.66815E+03 -1.57052E+04  4.90032E+03 -1.99110E+04  1.28096E+04 -1.40926E+04  1.48321E+04 -1.66810E+03
  9.87604E+03  1.12308E+04 -9.29268E+02  1.61008E+04 -1.04134E+04  9.34453E+03 -1.52600E+04 -3.83322E+03
 -1.14568E+04 -1.43623E+04 -1.33805E+03 -1.93102E+04  9.14835E+03 -1.60779E+04  1.67941E+04 -7.68692E+03
  1.48216E+04  6.05953E+02  1.06081E+04  3.72248E+03  5.36727E+03  9.11239E+02  7.68306E+03 -1.38744E+03
  1.38191E+04  3.23735E+03  1.53259E+04  1.29546E+04  9.44291E+03  2.48137E+04 -2.99518E+03  2.71394E+04
 -1.62265E+04  2.02613E+04 -2.48842E+04  9.99879E+03 -2.53260E+04 -8.77846E+02 -2.22383E+04 -1.44018E+04
 -9.89597E+03 -2.05860E+04  6.67572E+03 -1.94087E+04  1.65494E+04 -1.05873E+04  1.61172E+04  3.62043E+03
  6.42740E+03  1.13213E+04 -7.48686E+03  1.02086E+04 -1.37173E+04  2.64478E+03 -1.02787E+04 -7.49591E+03
 -3.55052E+02 -1.22556E+04  5.31196E+03 -9.49056E+03  7.71952E+03 -1.57350E+03  1.50919E+03  4.85188E+03
 -5.97485E+03  1.42151E+03 -4.06786E+03 -4.75963E+03  4.27886E+02 -1.00628E+04  8.06438E+03 -1.01220E+04
  1.22731E+04 -4.53021E+03  1.14481E+04  2.60711E+03  1.02674E+04  1.00217E+04  4.90331E+03  1.33807E+04
 -1.24673E+03  1.54004E+04 -9.18470E+03  1.06662E+04 -1.11271E+04  2.45928E+03 -8.30225E+03 -1.86230E+03
 -4.79985E+03 -3.17255E+03 -4.52292E+02  2.00451E+03 -1.74151E+03  1.58133E+03 -3.56225E+03  3.55976E+03
 -8.39390E+03 -4.09079E+02 -8.31642E+03 -6.76624E+03 -4.12401E+03 -1.10029E+04  3.94109E+03 -8.17382E+03
  7.40548E+03 -3.76751E+03  4.99343E+03  2.12881E+03  6.77590E+02  3.39811E+03 -3.43211E+03  2.29124E+02
 -3.82018E+03 -4.97989E+03 -8.21829E+02 -7.01529E+03  3.73454E+03 -7.64421E+03  9.57499E+03 -3.94493E+03
  1.15928E+04  7.81546E+02  8.88742E+03  5.81625E+03  1.75996E+03  8.17513E+03 -5.21310E+03  8.00801E+03
 -6.49923E+03  2.75361E+03 -3.42554E+03 -1.46847E+03  1.31530E+03 -1.61884E+03  4.53820E+03 -2.87872E+02
  4.10864E+03  3.41860E+03  9.13181E+02  5.98428E+03 -4.54337E+03  6.67618E+03 -7.42679E+03  2.19543E+03
 -5.17618E+03 -4.02742E+03  3.54830E+02 -6.31680E+03  3.54719E+03 -2.76375E+03  3.19732E+03  1.18948E+03
  4.95113E+02  2.56921E+03 -4.09131E+03  4.78718E+03 -4.66275E+03  2.29838E+03 -4.39884E+03 -1.31030E+03
 -1.98693E+03 -5.60054E+03  1.09298E+03 -7.11353E+03  5.62128E+03 -4.81823E+03  5.78504E+03  1.09140E+03
  4.42032E+03  4.79956E+03  2.28141E+02  6.89613E+03 -4.88885E+03  3.86414E+03 -4.78005E+03 -3.69940E+02
 -5.54641E+03 -4.83158E+03 -1.18271E+03 -4.64112E+03  1.80237E+03 -4.76155E+03  2.80450E+03 -2.59969E+03
  2.68864E+03  4.64930E+02 -6.07134E+01  1.45159E+03  5.65579E+02  3.66276E+02 -1.94825E+02 -1.47730E+03
  3.56728E+03 -5.34165E+02  4.76719E+03  1.06170E+02  4.90548E+03  2.32204E+03  4.91996E+03  6.89325E+03
 -1.41559E+03  7.62597E+03 -7.39183E+03  5.95505E+03 -8.86098E+03  1.15344E+03 -6.81610E+03 -2.10271E+03
 -3.92038E+03 -5.98019E+03  4.16295E+02 -4.28729E+03  1.73390E+03 -1.29558E+03  1.26112E+03 -1.90395E+03
  1.08633E+03 -1.22310E+03  1.73104E+03 -2.52776E+03  3.12456E+03 -1.18340E+03  3.46539E+03  4.45151E+02
  3.95312E+03  9.56564E+02  7.14943E+02  3.27892E+03 -1.84229E+03  2.42971E+03 -3.72289E+03  1.63078E+03
 -4.31935E+03 -1.63734E+03 -1.00423E+03 -2.65822E+03  6.13718E+02 -4.32561E+03  3.03133E+03 -4.62544E+03
  4.49578E+03 -2.64399E+03  5.83546E+03  3.93311E+02  4.00798E+03  3.43109E+03  1.41583E+03  5.06320E+03
 -1.89609E+03  5.49987E+03 -2.70482E+03  1.52394E+03 -1.24933E+03 -7.51541E+02 -6.04114E+02 -1.06385E+02
 -3.39017E+02  1.37551E+02 -7.76650E+02  1.86185E+03 -1.85178E+03  1.17532E+03 -3.79300E+03  2.55603E+02
 -8.80769E+02 -3.49839E+03  1.05007E+03 -4.28459E+03  2.47476E+03 -3.51353E+03  2.89878E+03 -1.37168E+03
  3.09380E+03  2.30227E+03  1.38486E+03  2.31527E+03 -1.13149E+03  3.70659E+03 -2.02437E+03  2.11295E+03
 -2.77089E+03  1.12201E+03 -3.07887E+03 -1.59874E+03 -4.71857E+01 -2.49340E+03  1.60508E+03 -1.86011E+03
  2.04116E+03 -1.61073E+03  1.72006E+03 -9.41812E+01  3.64814E+02  9.60841E+02  7.08488E+02  3.31871E+02
  9.02715E+02  4.93757E+02  8.24632E+02  6.90931E+02  8.44066E+02  2.28387E+03  1.21928E+03  1.21479E+03
 -1.58753E+03  2.25611E+03 -1.51051E+03  2.98106E+03 -2.61412E+03  8.49924E+02 -3.36936E+03 -3.26933E+02
 -1.14483E+03 -3.11037E+03  3.90981E+02 -4.00200E+03  1.49835E+03 -2.39049E+03  2.68261E+03 -9.70903E+02
  1.43692E+03  1.63517E+03  4.85028E+02  1.80045E+03 -7.90918E+02  8.18969E+02 -8.14236E+02  1.06658E+02
 -9.61162E+01 -1.35009E+03  1.17615E+03 -9.75356E+02  1.32267E+03 -2.30979E+02  9.63595E+02  4.14563E+02
  1.08830E+03  4.05946E+01  7.50975E+02 -4.00380E+02  7.61994E+01  5.59294E+02  1.11170E+03  3.59479E+02
 -8.76156E+01 -2.00719E+02  1.26655E+03  3.44641E+02  2.85559E+02  1.91280E+03 -2.66248E+02  1.99253E+03
 -1.10721E+03  4.04292E+02 -1.42762E+03  2.75124E+02 -2.51045E+03 -1.26494E+02 -2.99290E+02 -9.41672E+02
  4.85203E+02 -5.91757E+02  7.30448E+02 -3.20447E+02  1.29188E+03  1.14720E+03 -9.37520E+02  9.27189E+02
 -8.52152E+02  4.89889E+02 -2.91216E+02 -1.06925E+03  2.61696E+02 -1.43815E+03 -6.24536E+01 -9.80155E+02
  5.63158E+02 -4.58112E+02  1.07866E+01  3.47509E+02  1.81255E+03 -2.75353E+02  6.29237E+02  3.19137E+02
 -7.66338E+01 -1.16189E+02 -9.25366E+02  4.41035E+01  3.00059E+02 -1.45418E+01  7.45133E+02 -7.87536E+02
  1.22905E+03  3.25850E+02  2.26821E+03  4.98330E+02  9.48219E+02  7.93222E+02 -1.02219E+02  1.20781E+03
 -8.01862E+02  2.41337E+02 -1.07334E+03 -4.50157E+02 -8.62245E+02 -8.80927E+02  7.49119E+02 -2.50544E+02
  1.28808E+03 -4.58626E+02  4.47533E+02  1.00129E+03  7.88583E+01  1.29977E+03  7.73190E+01  8.69324E+02
 -2.54293E+02  1.33540E+03 -3.97633E+02 -1.93896E+02  1.49494E+02  7.50294E+02 -3.26272E+02  8.89464E+02
 -4.40009E+02  3.08977E+02 -1.36768E+03  5.60146E+02 -1.31882E+03  3.34650E+02 -1.56558E+03 -2.14284E+02
 -6.36967E+02 -1.38796E+03  3.52958E+02 -2.30018E+03  8.07421E+02 -1.87409E+03  2.22258E+03 -1.03512E+03
  1.72509E+03 -1.26754E+02  4.81865E+02  1.33079E+03 -1.19914E+03  9.47898E+02 -7.35391E+02  4.89429E+02
 -4.44939E+02  3.04498E+02 -3.57374E+02  1.35985E+02 -4.83450E+02  2.09866E+02 -7.08123E+02 -6.32298E+02
 -1.09810E+03 -3.93405E+02 -8.13689E+02 -2.77414E+02  3.20620E+01 -1.05880E+03 -9.79518E+02 -3.78072E+02
  9.92300E+02 -2.31216E+02  1.42086E+02  1.80391E+01  1.20885E+03  6.45816E+02 -7.47852E+02  3.23349E+02
 -7.76201E+02  1.30083E+03 -1.18373E+03  1.01074E+03 -5.10128E+02  1.59986E+02 -9.04167E+02 -1.03963E+03
 -7.29951E+02 -2.87153E+02 -5.16062E+01 -6.07680E+02  1.79834E+02 -1.58598E+02  3.38555E+02 -1.48903E+02
  1.98599E+02  6.11748E+02  2.68484E+02  4.79055E+02 -2.70369E+02  8.82306E+01 -1.32979E+02 -3.24182E+02
  4.83883E+02  4.72554E+02  2.30924E+01  4.07832E+02 -4.48877E+02 -2.79231E+01  7.19100E+02 -4.13827E+02
 -1.24910E+02  1.43932E+02 -2.78779E+02 -6.64217E+01 -3.07835E+02  1.01060E+02  1.09051E+02 -7.14112E+02
  1.81995E+01 -3.78002E+02  4.36806E+02 -9.47445E+01  4.44804E+02 -8.54966E+02  2.51503E+02  6.11378E+02
  5.70854E+02  7.86728E+01 -2.13144E+02  8.25221E+00 -2.16905E+02  8.77736E+02 -3.36567E+02  5.63603E+02
  3.79554E+02 -3.75092E+02 -2.67036E+02  4.09791E+02 -2.66325E+02 -4.14903E+02 -2.88094E+02  1.43531E+01
 -8.13143E+02  6.04508E+02 -2.20206E+02 -1.23298E+03 -4.58712E+01 -1.29323E+03  4.16086E+02  2.51875E+02
  2.90049E+02 -1.01037E+02 -3.93494E+02 -2.09849E+02  6.06811E+02  4.90637E+02 -1.47678E+01  5.70543E+02
