 $NMID ID='MM_0lb_SNR400_19hz_g40_98.RAW', FMTDAT='(8E13.5)'
 TRAMP=1., VOLUME=1. $END
  3.10101E+05  3.61121E+01  3.37259E+05  2.50270E+05  8.42747E+04  3.36532E+05 -1.32224E+05  2.49912E+05
 -1.89491E+05  8.21844E+04 -1.10844E+05 -3.34000E+04  1.56796E+03 -5.05757E+04  5.40244E+04 -2.08463E+02
  3.49366E+04  5.26619E+04 -1.73142E+04  7.46603E+04 -6.01326E+04  6.20967E+04 -8.30898E+04  3.15427E+04
 -7.92923E+04 -1.09310E+04 -5.62862E+04 -4.98160E+04 -1.54217E+04 -6.83321E+04  2.61564E+04 -4.44234E+04
  3.87488E+04  4.51886E+03  1.55904E+04  4.69810E+04 -3.40485E+04  4.58008E+04 -6.49061E+04 -6.46959E+02
 -5.20435E+04 -5.62092E+04 -6.41519E+03 -7.50983E+04  3.26808E+04 -5.24002E+04  4.58064E+04 -1.59852E+04
  4.09053E+04  1.06938E+04  3.06832E+04  2.41133E+04  1.60136E+04  2.79199E+04 -4.03404E+03  2.69135E+04
 -2.14367E+04  1.25185E+04 -1.91292E+04 -4.10134E+03  3.99826E+03 -7.69165E+03  2.06950E+04  1.10044E+04
  7.72082E+03  3.28198E+04 -2.96515E+04  3.33167E+04 -6.05258E+04  2.48445E+03 -5.49777E+04 -4.12124E+04
 -1.25532E+04 -5.96161E+04  3.75392E+04 -4.25562E+04  5.44236E+04 -1.57634E+03  3.10824E+04  2.99693E+04
 -6.83770E+03  3.24291E+04 -2.77476E+04  1.25203E+04 -2.70509E+04 -6.11227E+03 -1.39785E+04 -1.00565E+04
 -7.36953E+03 -1.08083E+04 -7.86025E+02 -1.63672E+04  6.35964E+03 -2.22079E+04  1.54424E+04 -1.39722E+04
  1.24703E+04  3.85346E+03 -5.38380E+03  1.32799E+04 -1.86138E+04 -1.74176E+03 -8.09831E+03 -2.92633E+04
  1.98763E+04 -3.94466E+04  4.42091E+04 -1.85775E+04  4.09989E+04  1.75730E+04  1.39893E+04  4.05708E+04
 -1.52074E+04  3.03873E+04 -2.29102E+04  1.75106E+02 -7.72830E+03 -2.54354E+04  2.04339E+04 -3.02140E+04
  3.75855E+04 -6.50225E+03  3.02754E+04  2.26975E+04  1.42334E+04  4.14242E+04 -7.49454E+03  4.41512E+04
 -2.76689E+04  2.86312E+04 -3.58899E+04  7.39778E+03 -3.68884E+04 -1.47377E+04 -2.06436E+04 -3.37022E+04
  6.18580E+03 -3.31482E+04  2.83856E+04 -1.24531E+04  2.65721E+04  1.06151E+04  2.30658E+03  1.77139E+04
 -1.34096E+04  6.90287E+03 -9.61694E+03 -7.81398E+03  5.86298E+03 -9.94762E+03  1.72971E+04  6.63114E+03
  1.16179E+04  2.16167E+04 -6.94604E+03  2.27407E+04 -2.14576E+04  8.78267E+03 -2.43092E+04 -6.88108E+03
 -1.49303E+04 -1.59933E+04 -4.90314E+03 -1.59326E+04  3.90068E+03 -1.31621E+04  1.13869E+04 -1.38140E+04
  2.00330E+04 -1.14590E+04  2.70500E+04  3.30233E+02  2.16727E+04  1.56815E+04  4.41035E+03  3.15095E+04
 -1.54265E+04  2.71143E+04 -2.50127E+04  9.46639E+03 -1.91762E+04 -1.05054E+04 -3.27264E+03 -1.43860E+04
  2.31964E+03 -4.87755E+03 -2.08248E+03  4.67849E+03 -1.23469E+04  5.12174E+03 -1.25041E+04 -4.35545E+03
 -8.29968E+03 -1.44960E+04  4.41183E+03 -1.88596E+04  1.20648E+04 -1.29510E+04  1.36323E+04 -1.68516E+03
  8.86132E+03  9.97078E+03 -5.49961E+02  1.48899E+04 -9.61109E+03  7.88065E+03 -1.42352E+04 -3.74662E+03
 -1.10019E+04 -1.35037E+04 -1.95719E+03 -1.84018E+04  8.24263E+03 -1.38526E+04  1.55289E+04 -6.82172E+03
  1.39984E+04  4.23015E+02  9.65143E+03  3.38236E+03  4.73448E+03  1.92800E+02  7.23771E+03 -1.42813E+03
  1.31029E+04  2.38932E+03  1.40857E+04  1.21799E+04  7.68884E+03  2.31195E+04 -3.46742E+03  2.53269E+04
 -1.48117E+04  1.86908E+04 -2.31861E+04  8.64075E+03 -2.30656E+04 -1.27378E+03 -2.00721E+04 -1.35784E+04
 -9.89937E+03 -1.90013E+04  6.48207E+03 -1.80353E+04  1.58259E+04 -1.02883E+04  1.45514E+04  2.81222E+03
  6.70820E+03  1.05266E+04 -7.18362E+03  1.02354E+04 -1.26610E+04  2.29442E+03 -9.98978E+03 -7.52891E+03
 -2.69634E+02 -1.17581E+04  6.20028E+03 -8.97403E+03  7.41166E+03 -1.51408E+03  1.20600E+03  5.06251E+03
 -5.67197E+03  1.31291E+03 -3.73789E+03 -4.23413E+03  9.26831E+02 -9.17443E+03  7.67666E+03 -9.86331E+03
  1.13035E+04 -4.14246E+03  1.05049E+04  2.55459E+03  9.35140E+03  8.57955E+03  5.07374E+03  1.33942E+04
 -1.45893E+03  1.48571E+04 -8.80390E+03  9.79649E+03 -1.01756E+04  2.76461E+03 -7.80757E+03 -1.73622E+03
 -4.10214E+03 -2.75306E+03 -6.95955E+02  2.01862E+03 -1.99459E+03  1.61267E+03 -3.51719E+03  3.52950E+03
 -7.71149E+03 -8.44518E+02 -7.98178E+03 -6.65285E+03 -3.49865E+03 -1.05123E+04  3.72040E+03 -7.30829E+03
  6.78104E+03 -3.27108E+03  5.53863E+03  1.78500E+03  5.40880E+02  3.10239E+03 -3.52435E+03 -7.86237E+02
 -2.71566E+03 -4.62245E+03 -7.62818E+02 -6.76775E+03  3.09528E+03 -7.37131E+03  9.50440E+03 -4.08892E+03
  1.13104E+04  3.52371E+02  7.79486E+03  5.64528E+03  1.75168E+03  8.16196E+03 -5.16759E+03  7.58810E+03
 -6.32684E+03  2.56065E+03 -3.32859E+03 -1.13184E+03  1.53415E+03 -1.34543E+03  4.14215E+03 -3.31008E+02
  3.54667E+03  2.89360E+03  1.44568E+03  5.95542E+03 -4.22668E+03  5.71264E+03 -6.91675E+03  1.94274E+03
 -4.35777E+03 -3.18097E+03 -1.40267E+02 -5.89380E+03  3.28667E+03 -3.12585E+03  2.93169E+03  5.31504E+02
  5.20336E+02  2.71500E+03 -3.10277E+03  4.64200E+03 -4.18240E+03  2.32885E+03 -3.62270E+03 -8.77508E+02
 -2.32725E+03 -5.56911E+03  1.21420E+03 -6.07583E+03  5.32433E+03 -4.31673E+03  5.46180E+03  6.16264E+02
  4.32448E+03  5.01638E+03  6.03257E+01  6.48740E+03 -4.78730E+03  3.85193E+03 -4.55209E+03 -5.62494E-01
 -5.83417E+03 -5.10618E+03 -1.87826E+03 -4.82210E+03  2.44693E+03 -4.59970E+03  2.29578E+03 -2.61956E+03
  2.58136E+03  2.41271E+02 -3.64274E+02  1.25732E+03  4.68617E+02  2.59892E+02  2.50057E+02 -1.59219E+03
  3.21950E+03 -1.97150E+02  4.19900E+03  5.40926E+01  5.64653E+03  2.62125E+03  4.85371E+03  6.67470E+03
 -6.26708E+02  7.92808E+03 -7.05981E+03  5.84392E+03 -9.12211E+03  9.88629E+02 -6.88141E+03 -2.74619E+03
 -4.00379E+03 -5.81985E+03 -5.44247E+02 -4.87855E+03  1.92059E+03 -2.28044E+03  1.52859E+03 -2.17444E+03
  1.39212E+03 -1.81184E+03  2.12416E+03 -2.67647E+03  3.77486E+03 -1.70781E+03  3.74814E+03  7.32750E+02
  4.60673E+03  1.09920E+03  1.10167E+03  2.96444E+03 -1.75720E+03  2.13017E+03 -3.87803E+03  2.53177E+03
 -4.34641E+03 -9.77798E+02 -1.28082E+03 -2.61572E+03  5.11273E+02 -4.58004E+03  2.97553E+03 -4.63734E+03
  4.60039E+03 -3.65392E+03  5.88531E+03 -5.63575E+02  4.21834E+03  4.12106E+03  1.02335E+03  5.64018E+03
 -1.80816E+03  5.87941E+03 -3.22882E+03  1.66488E+03 -1.25277E+03 -3.89110E+02 -2.68820E+02 -5.92444E+02
 -5.47033E+02  4.74812E+02 -8.80532E+02  2.29494E+03 -2.31348E+03  5.30640E+02 -3.39506E+03 -2.19564E+02
 -1.40151E+03 -3.87901E+03  1.08557E+03 -4.44618E+03  2.43300E+03 -3.87975E+03  3.40214E+03 -1.12542E+03
  3.66469E+03  2.10789E+03  2.10586E+03  2.77561E+03 -1.13242E+03  3.85958E+03 -2.31853E+03  2.27738E+03
 -3.26950E+03  9.46760E+02 -2.84371E+03 -2.31794E+03 -8.75306E+01 -2.57922E+03  1.43887E+03 -2.44618E+03
  2.03430E+03 -1.18874E+03  1.45392E+03  5.50990E+02  2.23110E+01  8.75659E+02  2.44158E+02  1.09822E+03
  1.22677E+03  1.15583E+03  9.18833E+02  1.15480E+03  1.25417E+03  2.36680E+03  7.49191E+02  1.09527E+03
 -7.82150E+02  2.36320E+03 -2.02520E+03  4.05026E+03 -2.63574E+03  1.37685E+03 -3.46282E+03  3.33456E+02
 -1.11111E+03 -3.52172E+03  4.51290E+02 -4.46197E+03  1.22304E+03 -2.00628E+03  2.65856E+03 -1.14579E+03
  2.22479E+03  1.64847E+03  1.22381E+02  2.18772E+03 -7.44423E+02  1.11584E+03 -6.05713E+02  4.59667E+01
 -2.28234E+02 -1.35800E+03  1.12597E+03 -1.35260E+03  1.58255E+03 -1.40584E+03  1.70139E+03  6.72814E+02
  9.32893E+02  1.63102E+02  6.42752E+02 -3.77999E+02 -6.57000E+02  6.02278E+02  1.67907E+03 -7.27473E+02
 -3.79990E+01 -2.98522E+02  1.56985E+03  9.07979E+02  1.79670E+02  2.29053E+03 -3.69710E+02  2.66554E+03
 -1.14677E+03  1.15156E+03 -2.17423E+03  2.67280E+02 -1.46792E+03 -5.62590E+02  1.87643E+02 -1.17502E+03
  4.55377E+02 -9.02665E+02  5.09195E+02 -9.87529E+02  3.87289E+02  1.30214E+03 -8.27222E+02  1.12267E+03
 -1.90814E+03  5.95060E+02 -8.30686E+02 -1.49466E+03 -4.65363E+02 -1.85318E+03  4.37436E+01 -1.10897E+03
  5.06779E+02 -8.07790E+02  5.52077E+02  4.53142E+02  8.99552E+02 -2.31072E+02  2.69340E+02  9.86501E+02
 -3.89973E+02 -4.86810E+02 -1.07423E+03 -1.05750E+02  6.96773E+02 -6.47581E+02  1.40057E+03 -1.51425E+03
  6.14784E+02  3.21482E+02  2.46491E+03  4.34139E+02  8.85396E+02  1.32751E+03 -1.14731E+02  1.64808E+03
 -8.62592E+02 -2.98787E+01 -8.80898E+02 -3.90972E+02 -8.22447E+02 -1.00271E+03  5.90774E+02 -3.29011E+02
  1.19278E+03 -4.78864E+02  7.61762E+02  7.27469E+02 -3.67285E+02  1.73068E+03 -1.91567E+02  1.51423E+03
 -5.30597E+02  1.01530E+03 -3.10756E+00  3.00991E+02  3.16417E+01  5.03639E+02 -6.46036E+02  6.41870E+02
 -6.00372E+02  1.04618E+03 -1.65481E+03  4.44135E+02 -1.62134E+03  2.43050E+02 -2.28722E+03 -8.89946E+02
 -1.36020E+03 -1.84040E+03  1.15681E+03 -2.91006E+03  8.11727E+02 -3.12075E+03  2.39716E+03 -7.98078E+02
  1.98513E+03  1.39418E+00  1.01549E+03  1.65467E+03 -8.68855E+02  1.52705E+03 -2.60965E+02  1.58886E+03
 -6.94753E+02  3.45530E+02 -6.47239E+02  7.87103E+01 -2.32894E+02  3.87294E+02 -8.27739E+02  1.15782E+02
 -1.22653E+03  9.83075E+01 -1.03189E+03  7.41728E+02  6.13279E+02 -6.63009E+02 -2.39320E+02 -9.07063E+02
  1.25577E+03 -1.15600E+03  2.64235E+02  1.48509E+01  1.28255E+03  1.35877E+03 -4.49927E+02  1.53968E+03
 -9.78336E+02  2.59495E+03 -1.64312E+03  1.17543E+03 -1.80297E+03 -1.31328E+02 -6.20348E+02 -8.94908E+02
 -7.63204E+02 -1.23786E+03 -1.37582E+02 -1.11189E+03 -4.22611E+01 -5.08649E+02  2.05677E+02 -2.15980E+01
  5.77615E+02  6.01984E+02  1.53377E+02  6.42335E+02 -3.26881E+02 -1.97878E+02  9.33200E+01 -2.88121E+02
  6.41427E+02  2.54213E+02 -3.28226E+02  5.94567E+02  3.34663E+02  1.02221E+03  2.28159E+02  6.01186E+02
 -3.01471E+02  6.32107E+02 -4.45803E+02  3.65369E+02 -4.82200E+02  7.65168E+01  2.09376E+02 -1.02586E+03
  5.39578E+02 -5.71883E+02  5.52147E+02  3.78734E+02  7.35498E+02 -5.82573E+02  4.46353E+02  9.16626E+02
  3.50775E+02  5.36334E+02 -4.59612E+02  4.34308E+02 -3.97196E+02  7.24150E+02 -5.68592E+02 -5.64490E+01
  3.87462E+01 -2.64936E+01 -8.83387E+02  3.51033E+02 -2.32145E+02  1.54818E+02 -8.11670E+02 -3.30274E+02
 -9.17311E+02  2.31602E+02 -7.65397E+02 -6.03107E+02  3.39567E+02 -1.66165E+03  7.22990E+02  5.68555E+01
  9.18444E+02 -4.03341E+02 -5.19490E+02 -3.71407E+01 -1.35438E+02  9.42422E+02 -1.29783E+02  3.96235E+02
