 $NMID ID='MM_0lb_SNR400_10hz_g50_9.RAW', FMTDAT='(8E13.5)'
 TRAMP=1., VOLUME=1. $END
  3.09830E+05  5.97333E+02  3.38016E+05  2.51051E+05  8.42483E+04  3.38782E+05 -1.32893E+05  2.51629E+05
 -1.90525E+05  8.44460E+04 -1.12742E+05 -3.30178E+04  5.27132E+02 -5.06986E+04  5.35876E+04 -1.82274E+02
  3.60741E+04  5.27508E+04 -1.58403E+04  7.62517E+04 -6.11822E+04  6.46606E+04 -8.53225E+04  3.27212E+04
 -8.20706E+04 -1.15198E+04 -5.70819E+04 -5.12406E+04 -1.50219E+04 -7.05308E+04  2.75315E+04 -4.66768E+04
  4.03803E+04  3.80032E+03  1.68998E+04  4.86251E+04 -3.44626E+04  4.76953E+04 -6.77449E+04  1.42037E+02
 -5.44081E+04 -5.77398E+04 -7.59974E+03 -7.86012E+04  3.46681E+04 -5.70647E+04  4.98425E+04 -1.83452E+04
  4.53914E+04  1.16432E+04  3.31144E+04  2.68362E+04  1.56969E+04  2.95062E+04 -6.71968E+03  2.77391E+04
 -2.28057E+04  1.12933E+04 -1.86394E+04 -5.69727E+03  6.83585E+03 -7.09121E+03  2.29857E+04  1.29123E+04
  6.74334E+03  3.68937E+04 -3.33842E+04  3.69084E+04 -6.52595E+04  2.28941E+03 -5.82875E+04 -4.47426E+04
 -1.28212E+04 -6.50145E+04  4.10623E+04 -4.71760E+04  6.02899E+04 -3.01220E+03  3.68475E+04  3.30991E+04
 -5.13678E+03  3.90776E+04 -3.06699E+04  1.84354E+04 -3.34007E+04 -3.62118E+03 -1.87899E+04 -1.17674E+04
 -9.22149E+03 -1.48317E+04 -1.03064E+03 -1.90937E+04  8.52389E+03 -2.34382E+04  1.52711E+04 -1.24532E+04
  1.06011E+04  6.33693E+03 -9.88409E+03  1.25741E+04 -2.35794E+04 -5.90535E+03 -8.37339E+03 -3.65268E+04
  2.51131E+04 -4.56721E+04  5.10553E+04 -2.10336E+04  4.85495E+04  2.00823E+04  1.68920E+04  4.59797E+04
 -1.61696E+04  3.52676E+04 -2.67015E+04  2.89307E+03 -1.17459E+04 -2.96217E+04  2.16798E+04 -3.64349E+04
  4.39208E+04 -1.04689E+04  4.02079E+04  2.52410E+04  2.08315E+04  5.02540E+04 -7.81969E+03  5.50320E+04
 -3.49020E+04  3.81775E+04 -4.68769E+04  1.05694E+04 -4.71704E+04 -1.84488E+04 -2.63789E+04 -4.16904E+04
  7.92607E+03 -4.12424E+04  3.34580E+04 -1.71327E+04  3.13935E+04  1.13495E+04  5.20965E+03  2.00768E+04
 -1.40012E+04  9.69750E+03 -1.04804E+04 -7.96278E+03  5.96683E+03 -1.20863E+04  1.89299E+04  5.62249E+03
  1.43093E+04  2.23316E+04 -4.96727E+03  2.61702E+04 -2.39785E+04  1.36150E+04 -3.17908E+04 -3.22660E+03
 -2.48517E+04 -1.82278E+04 -1.08203E+04 -2.31924E+04  3.84157E+03 -2.45740E+04  1.86615E+04 -2.17489E+04
  3.12925E+04 -1.39639E+04  3.73160E+04  3.79121E+03  2.63671E+04  2.39715E+04  4.55392E+03  3.95855E+04
 -1.93118E+04  3.31209E+04 -3.06584E+04  1.14845E+04 -2.20783E+04 -1.02964E+04 -4.54284E+03 -1.31773E+04
  1.23525E+03 -1.65721E+03 -7.16122E+03  7.89451E+03 -1.91718E+04  4.89162E+03 -1.95767E+04 -8.92033E+03
 -1.11282E+04 -2.26251E+04  4.96375E+03 -2.69936E+04  1.75224E+04 -1.91675E+04  2.12991E+04 -1.51006E+03
  1.38165E+04  1.50945E+04 -9.59674E+02  2.21933E+04 -1.56462E+04  1.26991E+04 -2.28523E+04 -5.44907E+03
 -1.66203E+04 -2.00487E+04 -2.77171E+03 -2.69112E+04  1.21540E+04 -2.24966E+04  2.22749E+04 -1.17924E+04
  2.06618E+04 -3.67265E+02  1.49249E+04  5.63889E+03  8.66666E+03  1.06090E+03  1.15334E+04 -2.27795E+03
  2.11398E+04  2.60875E+03  2.44044E+04  1.74300E+04  1.63360E+04  3.65681E+04 -3.02836E+03  4.20917E+04
 -2.36269E+04  3.49305E+04 -3.99297E+04  1.84185E+04 -4.14460E+04 -3.43424E+03 -3.45991E+04 -2.45518E+04
 -1.37199E+04 -3.53600E+04  1.33463E+04 -3.14741E+04  2.67436E+04 -1.51559E+04  2.35948E+04  7.74600E+03
  9.07168E+03  1.80972E+04 -1.18202E+04  1.51198E+04 -1.90613E+04  2.95345E+03 -1.43821E+04 -1.19020E+04
 -5.42622E+02 -1.87813E+04  9.84380E+03 -1.31945E+04  1.25082E+04 -1.37732E+03  3.17739E+03  8.80221E+03
 -8.29702E+03  3.27826E+03 -7.77253E+03 -6.77229E+03 -1.37429E+03 -1.68855E+04  1.14007E+04 -1.86781E+04
  2.07621E+04 -1.02047E+04  2.44848E+04  3.32511E+03  2.09198E+04  1.70942E+04  9.45732E+03  2.71375E+04
 -4.21285E+03  2.90490E+04 -1.90536E+04  1.82144E+04 -2.14936E+04  4.15093E+03 -1.54235E+04 -5.99723E+03
 -6.20795E+03 -6.37356E+03 -1.12026E+03  4.81825E+02 -2.59616E+03  3.58150E+03 -7.29327E+03  4.91001E+03
 -1.36778E+04 -7.41290E+02 -1.47976E+04 -1.14397E+04 -6.10086E+03 -1.86535E+04  6.31152E+03 -1.54292E+04
  1.12381E+04 -6.69843E+03  8.73963E+03  4.36356E+03  1.23712E+01  6.31321E+03 -8.06324E+03 -3.27039E+02
 -6.52836E+03 -9.44278E+03 -1.03668E+03 -1.46120E+04  7.80998E+03 -1.60076E+04  1.85321E+04 -7.88224E+03
  2.15469E+04  2.50721E+03  1.69565E+04  1.38667E+04  3.70459E+03  1.76639E+04 -8.80749E+03  1.42582E+04
 -1.24435E+04  4.38359E+03 -6.49814E+03 -3.33858E+03  2.54523E+03 -4.97112E+03  7.96927E+03 -1.20563E+03
  6.40574E+03  6.17640E+03  1.00808E+03  1.17740E+04 -8.35340E+03  1.07646E+04 -1.51304E+04  2.40331E+03
 -9.89113E+03 -8.53389E+03  9.57251E+01 -1.23399E+04  8.84669E+03 -6.55036E+03  9.01017E+03  2.59726E+03
  8.20575E+02  9.54218E+03 -7.04979E+03  1.11050E+04 -1.23572E+04  4.14446E+03 -1.29320E+04 -4.34742E+03
 -7.99414E+03 -1.43740E+04  3.35232E+03 -1.66611E+04  1.39771E+04 -1.01266E+04  1.54149E+04  2.99717E+03
  9.27188E+03  1.19940E+04 -7.97824E+02  1.49974E+04 -1.07803E+04  9.17146E+03 -1.20401E+04 -7.27503E+02
 -9.91983E+03 -9.53990E+03 -6.90148E+02 -1.12619E+04  5.89993E+03 -9.69072E+03  6.70331E+03 -3.19344E+03
  4.34612E+03  1.39881E+03 -1.04397E+03  1.49457E+03 -1.07120E+03 -2.73889E+03  1.87396E+03 -6.95223E+03
  1.10692E+04 -4.66183E+03  1.46247E+04  1.18235E+03  1.36627E+04  9.76792E+03  9.11015E+03  1.87970E+04
 -4.57926E+03  2.21106E+04 -1.86656E+04  1.65177E+04 -2.40189E+04  3.28667E+03 -1.95657E+04 -8.36131E+03
 -9.57188E+03 -1.51291E+04 -7.81498E+02 -1.28919E+04  5.17030E+03 -7.41133E+03  4.12028E+03 -4.93795E+03
  3.75452E+03 -2.73591E+03  2.73610E+03 -4.21422E+03  5.65644E+03 -3.08263E+03  7.40851E+03 -9.72676E+02
  9.61033E+03  2.05316E+03  4.72665E+03  7.82846E+03 -2.20530E+03  1.08799E+04 -1.03354E+04  8.39604E+03
 -1.31077E+04 -1.14609E+03 -8.24695E+03 -9.36223E+03 -1.31016E+03 -1.38237E+04  8.19363E+03 -1.35783E+04
  1.47203E+04 -7.73480E+03  1.77828E+04  2.54054E+03  1.20630E+04  1.29259E+04  1.94701E+03  1.60140E+04
 -6.39322E+03  1.25212E+04 -8.61717E+03  4.14413E+03 -5.90502E+03 -2.08824E+03 -2.43105E+03 -1.57207E+03
 -1.72750E+03 -1.71472E+02 -1.62053E+03  2.49380E+03 -6.00932E+03  2.25804E+03 -9.46562E+03 -1.71562E+03
 -6.20228E+03 -9.45862E+03 -1.51969E+02 -1.40770E+04  7.71597E+03 -1.17741E+04  1.29315E+04 -4.59196E+03
  1.32302E+04  6.68774E+03  6.07777E+03  1.17920E+04 -2.01721E+03  1.40126E+04 -9.12867E+03  8.66597E+03
 -1.21217E+04 -2.25898E+01 -9.91596E+03 -7.99579E+03 -1.46468E+03 -1.15599E+04  5.45198E+03 -8.43551E+03
  8.47271E+03 -3.38561E+03  5.89390E+03  2.40330E+03  2.47874E+03  3.35759E+03  1.47282E+03  1.73613E+03
  2.64076E+03  7.71849E+02  2.83771E+03  1.97648E+03  3.10627E+03  4.90383E+03  3.35787E+03  6.72173E+03
 -2.27563E+03  9.42976E+03 -9.49768E+03  1.03306E+04 -1.40129E+04  3.04011E+03 -1.35038E+04 -5.17538E+03
 -6.60581E+03 -1.34231E+04  2.03693E+03 -1.47253E+04  7.41962E+03 -9.40863E+03  1.11466E+04 -1.98561E+03
  8.02922E+03  5.35124E+03  1.65978E+03  7.66178E+03 -3.37751E+03  4.96449E+03 -5.97256E+03 -7.55867E+02
 -2.81397E+03 -5.92220E+03  3.39265E+03 -5.90506E+03  6.03006E+03 -2.56567E+03  5.37614E+03  1.87525E+03
  3.28366E+03  2.40610E+03  3.42883E+02  1.04097E+03 -1.56388E+03  2.95923E+03  1.85013E+03 -5.66110E+02
  2.07206E+03 -1.01917E+02  5.40473E+03  2.76448E+03  3.58568E+03  7.64914E+03 -5.41343E+02  9.74834E+03
 -6.44382E+03  5.63599E+03 -8.78576E+03  1.01000E+03 -7.10520E+03 -3.59862E+03 -3.31741E+03 -4.70031E+03
  1.41339E+03 -5.03798E+03  4.03384E+03 -2.00648E+03  3.42436E+03  2.56369E+03 -1.07087E+03  3.81502E+03
 -4.39458E+03  2.70833E+03 -6.34315E+03 -2.96321E+03 -4.19156E+03 -7.43712E+03  1.14412E+03 -6.50434E+03
  4.33454E+03 -4.54268E+03  5.06388E+03 -6.03988E+02  3.46660E+03  1.41476E+03  1.48182E+03  3.78589E+03
 -3.08765E+03  1.35713E+03 -2.91176E+03 -1.86520E+03  1.19452E+03 -5.60043E+03  6.75501E+03 -4.04776E+03
  8.13669E+03  8.28522E+02  8.03363E+03  5.28617E+03  2.42790E+03  8.87470E+03 -2.88611E+03  7.41444E+03
 -7.00473E+03  4.11640E+03 -6.85551E+03 -3.79707E+02 -4.01079E+03 -5.66324E+03  1.40021E+03 -5.09571E+03
  5.06349E+03 -2.40545E+03  4.57627E+03  3.19786E+03  1.77335E+03  4.89461E+03 -8.64918E+02  4.05291E+03
 -2.99547E+03  2.29288E+03 -1.69829E+03  8.11948E+02 -1.96532E+03  1.21882E+03 -1.60082E+03  1.29808E+03
 -2.77193E+03  3.55973E+03 -5.92478E+03  2.98070E+03 -8.51830E+03  2.02091E+02 -1.00400E+04 -6.02462E+03
 -4.39894E+03 -1.16893E+04  2.48388E+03 -1.33527E+04  7.46653E+03 -1.03430E+04  1.21142E+04 -3.55885E+03
  1.17989E+04  2.19734E+03  6.35034E+03  7.88935E+03  3.76395E+02  9.02453E+03 -3.49628E+03  6.41101E+03
 -5.62270E+03  3.19409E+03 -2.74856E+03 -1.15884E+03 -1.09254E+03 -7.28520E+02 -1.01953E+03  1.80538E+02
 -2.13834E+03  1.02444E+02 -1.66838E+03 -8.23917E+02 -8.84825E+02 -3.02115E+03 -9.75738E+01 -3.04285E+03
  3.89178E+03 -3.26463E+03  4.90872E+03  4.84866E+02  6.83832E+03  4.52347E+03  1.78367E+03  9.69583E+03
 -4.58646E+03  1.01500E+04 -9.20414E+03  6.28845E+03 -1.10791E+04 -1.11635E+03 -7.27475E+03 -6.49774E+03
 -3.72703E+03 -8.77547E+03  1.93859E+03 -7.82415E+03  5.08110E+03 -4.80294E+03  5.80677E+03  6.64997E+02
  3.58134E+03  3.08508E+03  7.54033E+02  3.10808E+03 -2.46493E+03  3.70977E+02 -3.81601E+02 -2.05394E+03
  2.61625E+03 -1.24482E+03  3.22980E+03  9.56523E+02  2.08429E+03  3.11784E+03  5.25180E+02  4.69232E+03
 -3.51893E+03  4.20792E+03 -5.62591E+03  6.19069E+02 -5.63227E+03 -4.25123E+03 -1.13743E+03 -7.47228E+03
  3.82339E+03 -6.22747E+03  6.54056E+03 -1.98941E+03  6.99172E+03  2.06704E+03  3.92935E+03  4.93989E+03
  1.24395E+03  5.77825E+03 -2.28524E+03  4.60677E+03 -4.21196E+03  2.75817E+03 -3.32002E+03  3.14847E+02
 -1.49530E+03  2.20891E+01 -2.15104E+03  8.78624E+02 -2.45020E+03  8.73069E+02 -5.39822E+03 -7.79901E+02
 -4.24722E+03 -1.99650E+03 -1.18124E+03 -5.37361E+03  2.92240E+03 -5.88984E+03  5.18705E+03 -2.07779E+03
  5.97287E+03 -6.45852E+01  2.87223E+03  3.65049E+03 -4.96415E+02  5.03309E+03 -3.80936E+03  3.90097E+03
