 $NMID ID='MM_0lb_SNR400_17hz_g55_87.RAW', FMTDAT='(8E13.5)'
 TRAMP=1., VOLUME=1. $END
  3.10519E+05  6.01754E+01  3.37165E+05  2.50888E+05  8.46239E+04  3.37871E+05 -1.32832E+05  2.50990E+05
 -1.89875E+05  8.28395E+04 -1.11808E+05 -3.26858E+04  5.50862E+02 -5.10009E+04  5.35441E+04 -4.77388E+02
  3.51144E+04  5.31973E+04 -1.68076E+04  7.59200E+04 -6.08316E+04  6.32871E+04 -8.36661E+04  3.21977E+04
 -8.02333E+04 -1.11327E+04 -5.66264E+04 -5.10817E+04 -1.48346E+04 -6.89922E+04  2.77739E+04 -4.56816E+04
  3.95561E+04  4.02563E+03  1.58794E+04  4.77314E+04 -3.41336E+04  4.73238E+04 -6.67175E+04 -3.74009E+01
 -5.23938E+04 -5.61899E+04 -6.66188E+03 -7.60693E+04  3.38059E+04 -5.45367E+04  4.72171E+04 -1.71260E+04
  4.23394E+04  1.11035E+04  3.12553E+04  2.53008E+04  1.58684E+04  2.90424E+04 -4.88807E+03  2.71434E+04
 -2.18762E+04  1.21433E+04 -1.93124E+04 -4.11512E+03  4.91193E+03 -7.64165E+03  2.17807E+04  1.21429E+04
  7.17369E+03  3.43959E+04 -3.16243E+04  3.53020E+04 -6.22477E+04  1.96236E+03 -5.63562E+04 -4.21080E+04
 -1.25337E+04 -6.17682E+04  3.83700E+04 -4.46441E+04  5.73205E+04 -1.78623E+03  3.35089E+04  3.16774E+04
 -6.18000E+03  3.49534E+04 -2.91492E+04  1.51041E+04 -2.96456E+04 -4.59383E+03 -1.64664E+04 -1.04371E+04
 -7.49147E+03 -1.23793E+04 -1.18813E+03 -1.74162E+04  7.27855E+03 -2.24968E+04  1.52372E+04 -1.32026E+04
  1.18642E+04  4.60892E+03 -7.64368E+03  1.32077E+04 -2.05354E+04 -3.88127E+03 -9.54788E+03 -3.25715E+04
  2.30176E+04 -4.25804E+04  4.70533E+04 -1.90656E+04  4.38754E+04  1.86375E+04  1.51068E+04  4.36415E+04
 -1.58025E+04  3.30498E+04 -2.43412E+04  1.34568E+03 -9.21323E+03 -2.73730E+04  2.08801E+04 -3.29383E+04
  3.96326E+04 -7.93139E+03  3.34639E+04  2.30952E+04  1.73163E+04  4.49636E+04 -7.74230E+03  4.79775E+04
 -2.99720E+04  3.18754E+04 -4.04935E+04  8.80699E+03 -4.04447E+04 -1.55920E+04 -2.26445E+04 -3.62085E+04
  7.72410E+03 -3.57393E+04  3.09713E+04 -1.33128E+04  2.78355E+04  1.06748E+04  3.61927E+03  1.83513E+04
 -1.35237E+04  7.98496E+03 -1.09414E+04 -7.09659E+03  6.03772E+03 -1.09018E+04  1.82705E+04  6.60058E+03
  1.29205E+04  2.18529E+04 -6.17067E+03  2.45935E+04 -2.23735E+04  1.02718E+04 -2.68559E+04 -5.65863E+03
 -1.92437E+04 -1.70926E+04 -6.83900E+03 -1.87076E+04  2.89207E+03 -1.77084E+04  1.46789E+04 -1.63242E+04
  2.40105E+04 -1.22516E+04  3.02955E+04  2.11380E+03  2.28758E+04  1.77485E+04  4.01520E+03  3.48094E+04
 -1.69979E+04  2.90373E+04 -2.71019E+04  1.01358E+04 -2.05348E+04 -1.03928E+04 -4.27233E+03 -1.37847E+04
  2.29626E+03 -3.29605E+03 -4.20006E+03  6.78616E+03 -1.48786E+04  5.39295E+03 -1.54325E+04 -6.10291E+03
 -8.88973E+03 -1.68077E+04  4.72741E+03 -2.17716E+04  1.40582E+04 -1.53632E+04  1.62749E+04 -1.49664E+03
  1.02859E+04  1.19665E+04 -9.57458E+02  1.80364E+04 -1.14083E+04  1.03461E+04 -1.73638E+04 -3.77492E+03
 -1.27016E+04 -1.55483E+04 -1.84216E+03 -2.12406E+04  9.29518E+03 -1.75199E+04  1.74465E+04 -8.69602E+03
  1.60869E+04 -7.76148E+01  1.13134E+04  4.42824E+03  6.46298E+03  5.58525E+02  8.46531E+03 -1.57466E+03
  1.56265E+04  2.77906E+03  1.69146E+04  1.32603E+04  1.09655E+04  2.69901E+04 -2.71699E+03  3.02929E+04
 -1.80746E+04  2.35927E+04 -2.76612E+04  1.15428E+04 -2.87737E+04 -1.99956E+03 -2.48118E+04 -1.68275E+04
 -1.06073E+04 -2.36264E+04  7.29077E+03 -2.19558E+04  1.86685E+04 -1.22444E+04  1.73047E+04  4.57927E+03
  6.55577E+03  1.26765E+04 -7.63536E+03  1.17256E+04 -1.46069E+04  2.74028E+03 -1.10987E+04 -8.90377E+03
  5.57264E+02 -1.41092E+04  7.30844E+03 -1.05319E+04  8.97091E+03 -1.56178E+03  2.09752E+03  5.58838E+03
 -6.10402E+03  1.95753E+03 -4.60083E+03 -4.91626E+03  7.51575E+01 -1.20556E+04  8.48366E+03 -1.25043E+04
  1.44723E+04 -6.16743E+03  1.50414E+04  3.13404E+03  1.32907E+04  1.04974E+04  5.46980E+03  1.70852E+04
 -2.41200E+03  1.91889E+04 -1.16049E+04  1.16512E+04 -1.34651E+04  2.97541E+03 -9.73817E+03 -2.60832E+03
 -4.86325E+03 -4.12192E+03 -9.24993E+02  8.01474E+02 -2.22221E+03  2.23087E+03 -4.18509E+03  4.15129E+03
 -9.59516E+03 -1.87518E+02 -1.03564E+04 -7.77279E+03 -3.83300E+03 -1.26527E+04  3.53237E+03 -9.81884E+03
  8.26598E+03 -4.76468E+03  6.25626E+03  3.00967E+03  4.91639E+02  3.43704E+03 -4.16863E+03  5.75371E+02
 -4.41090E+03 -6.03354E+03 -9.96398E+02 -8.89510E+03  4.94762E+03 -9.06808E+03  1.20665E+04 -4.57881E+03
  1.43004E+04  1.14919E+03  1.04266E+04  8.04758E+03  2.23261E+03  1.07052E+04 -5.89607E+03  9.63037E+03
 -7.99990E+03  3.11716E+03 -3.63701E+03 -1.75757E+03  1.20824E+03 -2.13266E+03  5.67923E+03 -8.13287E+02
  4.83494E+03  3.95222E+03  9.93337E+02  7.80996E+03 -5.25041E+03  7.77666E+03 -9.28240E+03  1.95878E+03
 -5.92441E+03 -4.31508E+03  6.06412E+02 -7.54004E+03  5.16148E+03 -3.92270E+03  4.39604E+03  1.19089E+03
  6.88828E+02  4.68834E+03 -4.49733E+03  5.49137E+03 -6.31359E+03  2.86033E+03 -6.04168E+03 -1.32272E+03
 -3.15973E+03 -7.40655E+03  1.81995E+03 -9.35825E+03  7.07984E+03 -5.67529E+03  7.93071E+03  7.22151E+02
  5.96097E+03  6.30407E+03 -1.32472E+02  8.79402E+03 -5.35855E+03  5.14334E+03 -6.39989E+03 -2.66251E+02
 -6.45296E+03 -6.01511E+03 -1.01261E+03 -6.14290E+03  2.89277E+03 -5.47806E+03  3.48765E+03 -2.76162E+03
  3.16116E+03 -1.10604E+02  5.62226E+02  1.00744E+03  4.73070E+02 -4.21989E+02  3.96017E+02 -2.23278E+03
  4.72430E+03 -1.38973E+03  7.20710E+03  5.17356E+02  6.91276E+03  4.38295E+03  5.70994E+03  9.46155E+03
 -2.39147E+03  1.13794E+04 -9.64957E+03  7.95326E+03 -1.20638E+04  1.25625E+03 -9.94728E+03 -3.76867E+03
 -4.63302E+03 -8.23827E+03 -6.66708E+02 -6.54975E+03  2.80114E+03 -2.73079E+03  1.79049E+03 -2.79149E+03
  1.38807E+03 -1.56573E+03  2.33426E+03 -2.56220E+03  3.90034E+03 -1.33480E+03  3.81860E+03  4.95769E+02
  4.66410E+03  1.86989E+03  2.05634E+03  4.56144E+03 -1.41982E+03  3.91085E+03 -4.96615E+03  2.80947E+03
 -6.66076E+03 -8.48135E+02 -3.20525E+03 -4.39809E+03 -2.33054E+02 -5.97626E+03  3.94308E+03 -6.89231E+03
  6.93782E+03 -4.09839E+03  8.14569E+03  1.02708E+03  6.14415E+03  5.11895E+03  1.84632E+03  7.34443E+03
 -2.62819E+03  7.41484E+03 -4.22267E+03  2.55523E+03 -1.99355E+03 -1.13728E+03 -5.81695E+02 -9.29943E+02
 -3.66171E+02  2.89790E+02 -4.68470E+02  2.63102E+03 -2.59549E+03  6.18416E+02 -5.05648E+03 -3.30216E+02
 -2.11018E+03 -4.93212E+03  4.38685E+02 -6.06832E+03  4.09610E+03 -4.93360E+03  4.71071E+03 -1.56043E+03
  5.87019E+03  2.97644E+03  2.50368E+03  4.46956E+03 -1.11700E+03  5.89268E+03 -3.24116E+03  3.29524E+03
 -4.61435E+03  2.37656E+02 -4.13946E+03 -3.39096E+03 -6.91562E+02 -4.59034E+03  1.81898E+03 -3.23585E+03
  3.74330E+03 -1.72363E+03  2.41096E+03  4.42949E+02  5.38010E+02  1.98308E+03  5.65232E+02  9.35743E+02
  1.18039E+03  8.07300E+02  9.67164E+02  1.27736E+03  9.68941E+02  3.49321E+03  1.76735E+03  2.33515E+03
 -1.26966E+03  3.93579E+03 -3.29355E+03  5.05565E+03 -4.56507E+03  1.62065E+03 -5.70335E+03 -1.00550E+03
 -2.69010E+03 -4.50299E+03  6.76119E+02 -5.68674E+03  2.38225E+03 -3.40127E+03  3.95689E+03 -1.16997E+03
  2.80552E+03  2.35723E+03  5.21961E+02  3.07666E+03 -1.66323E+03  2.03654E+03 -1.56492E+03 -3.23787E+02
 -1.30807E+03 -1.80091E+03  1.74869E+03 -2.65646E+03  1.71565E+03 -1.29568E+03  1.61819E+03  5.81055E+02
  1.45027E+03 -5.16938E+01  1.32507E+03 -2.24631E+02 -5.81406E+02  1.00367E+03  2.11295E+03 -9.33837E+01
  6.47196E+02  5.34368E+01  2.15580E+03  4.91242E+02  6.05616E+02  2.99063E+03 -2.94966E+02  3.75973E+03
 -2.09913E+03  1.59455E+03 -2.77360E+03  2.07954E+02 -2.66752E+03 -1.34646E+03 -2.92371E+02 -1.36539E+03
  5.15963E+02 -1.71689E+03  1.30634E+03 -8.58132E+02  7.19418E+02  1.53756E+03 -8.92219E+02  1.63484E+03
 -1.85511E+03  8.83230E+02 -1.73039E+03 -2.16664E+03 -1.09914E+03 -2.79035E+03  5.20919E+02 -2.00700E+03
  8.32520E+02 -8.61915E+02  1.21846E+03 -1.38280E+02  1.75661E+03 -2.19609E+02  3.45932E+02  1.31147E+03
 -7.38104E+02 -9.26047E+01 -1.44846E+03 -8.18590E+02  1.00643E+03 -1.55841E+03  1.50113E+03 -8.90699E+02
  2.24221E+03 -1.56003E+02  3.35245E+03  1.59728E+03  1.58432E+03  2.73778E+03 -7.74680E+02  2.36445E+03
 -2.03914E+03  9.24440E+02 -2.31416E+03 -2.49262E+02 -1.14797E+03 -1.43347E+03  7.25337E+02 -1.05741E+03
  2.00834E+03 -8.35582E+02  1.05156E+03  8.52238E+02  6.28770E+02  1.76451E+03  9.50351E+01  1.22537E+03
 -8.05357E+02  1.81875E+03 -7.11397E+02  2.72514E+02 -5.83584E+02  3.74350E+02 -6.18266E+02  7.82980E+02
 -7.79004E+02  1.06236E+03 -1.55040E+03  9.28395E+02 -1.96301E+03  3.72129E+02 -2.94248E+03 -1.35163E+03
 -1.18324E+03 -3.31715E+03  4.93900E+02 -3.93648E+03  1.44973E+03 -2.94233E+03  3.13839E+03 -1.01336E+03
  2.91483E+03  6.65864E+00  1.61837E+03  2.42392E+03 -6.35946E+02  2.44974E+03 -1.03987E+03  2.19830E+03
 -1.72608E+03  1.14723E+03 -8.12138E+02 -2.74038E+02 -7.59964E+02  5.92029E+02 -8.12737E+02  6.76165E+02
 -1.52216E+03 -2.81978E+02 -1.34014E+03 -5.89962E+02  3.82878E+01 -3.79518E+02 -3.05455E+02 -1.65273E+03
  1.78596E+03 -6.02394E+02  3.11089E+02  1.31391E+02  1.88778E+03  1.23403E+03  1.94109E+02  2.18901E+03
 -5.39107E+02  2.49084E+03 -1.59375E+03  1.60678E+03 -2.33080E+03 -3.87799E+02 -1.75216E+03 -1.58406E+03
 -9.60708E+02 -1.55572E+03  3.00792E+02 -1.44854E+03  8.98666E+02 -1.14424E+03  1.02595E+03  1.55325E+02
  9.20599E+02  8.61357E+02 -6.90536E+01  5.72726E+02 -4.65459E+02  7.36361E+01 -1.45964E+02 -1.77374E+02
  1.90759E+02 -1.15418E+02  8.96553E+01  3.64709E+02  1.38062E+01  4.09689E+02  2.82252E+02  5.84210E+02
 -9.46630E+02  6.66161E+02 -1.28838E+03 -2.86792E+02 -1.22414E+03 -1.12918E+03 -1.42043E+02 -1.97531E+03
  9.88334E+02 -2.01490E+03  1.20244E+03 -6.60967E+01  1.12762E+03 -6.67837E+02  8.67534E+02  1.38622E+03
  7.44121E+02  9.30192E+02 -2.20988E+02  9.77385E+02 -8.71217E+02  4.19000E+02 -6.31506E+02  1.25574E+02
 -6.93292E+02  5.10821E+02 -4.78459E+02  3.55766E+02 -4.52649E+02  4.43978E+02 -1.48199E+03 -4.66262E+02
 -1.05015E+03  9.73618E+01 -2.23474E+02 -1.29411E+03  1.02674E+03 -1.81204E+03  5.94236E+02 -1.73606E+02
  4.76049E+02 -3.04915E+02 -4.32182E+02  1.06152E+03  2.99359E+02  1.25397E+03 -1.23943E+02  6.40264E+02
