 $NMID ID='MM_0lb_SNR400_15hz_g60_46.RAW', FMTDAT='(8E13.5)'
 TRAMP=1., VOLUME=1. $END
  3.10005E+05  7.89235E+02  3.37581E+05  2.50772E+05  8.46802E+04  3.37466E+05 -1.31993E+05  2.50817E+05
 -1.90861E+05  8.38360E+04 -1.12326E+05 -3.26688E+04  1.26985E+03 -5.08137E+04  5.32744E+04 -1.72294E+02
  3.56929E+04  5.24547E+04 -1.65621E+04  7.57857E+04 -6.08482E+04  6.39603E+04 -8.44461E+04  3.17517E+04
 -8.15463E+04 -1.09539E+04 -5.76529E+04 -5.13435E+04 -1.48897E+04 -6.98907E+04  2.80449E+04 -4.62442E+04
  4.01638E+04  4.07875E+03  1.62203E+04  4.82196E+04 -3.40563E+04  4.78976E+04 -6.71392E+04  1.38908E+02
 -5.35835E+04 -5.70928E+04 -6.47965E+03 -7.76760E+04  3.45095E+04 -5.59709E+04  4.84276E+04 -1.75447E+04
  4.38358E+04  1.08120E+04  3.20977E+04  2.58162E+04  1.59778E+04  2.97807E+04 -5.35079E+03  2.78097E+04
 -2.24199E+04  1.23882E+04 -1.88261E+04 -5.71977E+03  6.01970E+03 -7.51840E+03  2.29198E+04  1.28774E+04
  7.54482E+03  3.55444E+04 -3.28620E+04  3.56568E+04 -6.36260E+04  2.00940E+03 -5.77316E+04 -4.28164E+04
 -1.24300E+04 -6.31024E+04  4.08345E+04 -4.56574E+04  5.90712E+04 -2.64886E+03  3.51576E+04  3.29765E+04
 -5.51529E+03  3.71774E+04 -3.03859E+04  1.68069E+04 -3.09963E+04 -4.10400E+03 -1.77764E+04 -1.10311E+04
 -8.83314E+03 -1.32587E+04 -9.52042E+02 -1.87609E+04  8.06627E+03 -2.34295E+04  1.54664E+04 -1.27675E+04
  1.15454E+04  5.90856E+03 -8.74224E+03  1.32361E+04 -2.16111E+04 -4.35541E+03 -7.87654E+03 -3.45720E+04
  2.27299E+04 -4.44214E+04  4.88528E+04 -1.93060E+04  4.57492E+04  1.96742E+04  1.59399E+04  4.44112E+04
 -1.59192E+04  3.40229E+04 -2.56700E+04  1.69522E+03 -1.02861E+04 -2.75411E+04  2.15708E+04 -3.43888E+04
  4.17022E+04 -9.23085E+03  3.63300E+04  2.42405E+04  1.84244E+04  4.65025E+04 -8.21388E+03  5.09656E+04
 -3.21826E+04  3.43285E+04 -4.32422E+04  9.86958E+03 -4.33433E+04 -1.68031E+04 -2.32553E+04 -3.87945E+04
  7.87215E+03 -3.77235E+04  3.20816E+04 -1.54570E+04  2.99988E+04  1.11759E+04  4.21765E+03  1.95594E+04
 -1.38245E+04  8.98979E+03 -1.03241E+04 -7.40294E+03  5.97747E+03 -1.03853E+04  1.80016E+04  5.80822E+03
  1.36108E+04  2.22249E+04 -5.85475E+03  2.59196E+04 -2.28721E+04  1.17260E+04 -2.83365E+04 -4.03160E+03
 -2.07295E+04 -1.79560E+04 -9.30912E+03 -2.06971E+04  4.13104E+03 -2.09890E+04  1.62855E+04 -1.92020E+04
  2.59378E+04 -1.18230E+04  3.32794E+04  2.95559E+03  2.46742E+04  2.00506E+04  4.53135E+03  3.73913E+04
 -1.77566E+04  3.09096E+04 -2.87302E+04  1.09205E+04 -2.13162E+04 -1.00022E+04 -4.33579E+03 -1.32740E+04
  1.58693E+03 -2.69626E+03 -4.88507E+03  6.84953E+03 -1.66380E+04  5.83607E+03 -1.69545E+04 -7.04135E+03
 -1.06069E+04 -1.93097E+04  5.34968E+03 -2.35994E+04  1.57962E+04 -1.74009E+04  1.84290E+04 -1.83150E+03
  1.24265E+04  1.31776E+04 -1.60294E+02  1.98276E+04 -1.32100E+04  1.07611E+04 -1.96874E+04 -3.88744E+03
 -1.40421E+04 -1.72398E+04 -1.70864E+03 -2.32010E+04  1.06006E+04 -1.89196E+04  1.93171E+04 -9.74076E+03
  1.87039E+04  8.12586E+02  1.27522E+04  3.78690E+03  7.10554E+03  1.00366E+03  9.89245E+03 -1.83849E+03
  1.74540E+04  3.12877E+03  2.00810E+04  1.52554E+04  1.34644E+04  3.08408E+04 -3.05095E+03  3.48941E+04
 -2.06767E+04  2.80529E+04 -3.25213E+04  1.36039E+04 -3.45677E+04 -2.74941E+03 -2.83865E+04 -1.99513E+04
 -1.20175E+04 -2.83460E+04  9.92924E+03 -2.55720E+04  2.16508E+04 -1.23570E+04  1.95506E+04  5.51448E+03
  7.29320E+03  1.42281E+04 -9.56572E+03  1.28478E+04 -1.63148E+04  2.86586E+03 -1.29899E+04 -1.00068E+04
 -2.96557E+02 -1.58232E+04  8.22202E+03 -1.13722E+04  1.06420E+04 -1.79281E+03  2.48329E+03  6.87098E+03
 -6.51709E+03  2.70017E+03 -5.93560E+03 -5.41689E+03 -3.74004E+02 -1.34395E+04  9.83143E+03 -1.50269E+04
  1.67749E+04 -8.05827E+03  1.87112E+04  2.80380E+03  1.58526E+04  1.39643E+04  7.66545E+03  2.03250E+04
 -2.78852E+03  2.23927E+04 -1.42083E+04  1.41528E+04 -1.59308E+04  3.41440E+03 -1.12916E+04 -3.98674E+03
 -5.05242E+03 -5.19266E+03 -9.89127E+02  1.11927E+03 -2.05763E+03  3.26232E+03 -5.66270E+03  4.32587E+03
 -1.09528E+04 -5.33228E+02 -1.08439E+04 -9.64230E+03 -4.72792E+03 -1.48804E+04  4.57777E+03 -1.10527E+04
  9.57737E+03 -4.74646E+03  7.36320E+03  3.32065E+03  3.83449E+02  4.50528E+03 -5.02019E+03 -7.00403E+01
 -5.37142E+03 -6.94130E+03 -8.53268E+02 -1.01475E+04  6.68824E+03 -1.20273E+04  1.42790E+04 -5.77534E+03
  1.69119E+04  1.46523E+03  1.23259E+04  9.60976E+03  2.40322E+03  1.26170E+04 -7.11108E+03  1.11574E+04
 -9.08088E+03  3.48634E+03 -4.40088E+03 -2.05441E+03  2.18032E+03 -2.71223E+03  6.37509E+03 -9.47861E+02
  5.04243E+03  4.55866E+03  7.00721E+02  8.83267E+03 -6.52190E+03  8.75913E+03 -1.05105E+04  1.80966E+03
 -7.10748E+03 -5.61971E+03  1.56955E+02 -9.17000E+03  5.85638E+03 -4.24889E+03  5.96970E+03  1.62834E+03
  1.10943E+03  6.08080E+03 -4.89565E+03  7.19690E+03 -8.30734E+03  3.90822E+03 -8.48227E+03 -2.96994E+03
 -4.56361E+03 -1.05846E+04  2.56570E+03 -1.11594E+04  9.56359E+03 -7.24499E+03  1.02911E+04  1.29239E+03
  6.44895E+03  8.17561E+03 -4.99449E+02  1.01627E+04 -7.44320E+03  5.90846E+03 -7.78050E+03 -7.45758E+02
 -7.91341E+03 -6.81058E+03 -1.18617E+03 -7.81035E+03  3.69426E+03 -6.53553E+03  4.48099E+03 -3.48092E+03
  3.94842E+03  1.24551E+03 -1.18276E+03  1.43417E+03 -9.19747E+01 -1.90693E+03  4.22487E+02 -4.23978E+03
  7.02375E+03 -2.48225E+03  9.95158E+03  1.61697E+03  8.96894E+03  5.87955E+03  6.77789E+03  1.21552E+04
 -2.90152E+03  1.38133E+04 -1.23686E+04  1.02012E+04 -1.52193E+04  2.60080E+03 -1.24165E+04 -4.97246E+03
 -7.06421E+03 -1.09406E+04 -7.19088E+02 -7.77071E+03  3.60571E+03 -4.84976E+03  3.54532E+03 -3.44052E+03
  2.43961E+03 -2.21861E+03  3.03557E+03 -3.29721E+03  4.55387E+03 -2.30849E+03  5.29139E+03  2.95976E+02
  7.02626E+03  1.73155E+03  2.87117E+03  5.36489E+03 -1.69536E+03  5.51057E+03 -6.57825E+03  4.74524E+03
 -7.94680E+03 -1.60094E+03 -4.69811E+03 -6.06505E+03 -5.24875E+02 -8.41435E+03  4.51552E+03 -8.46184E+03
  9.04401E+03 -5.62787E+03  1.10821E+04  4.41571E+02  7.27477E+03  7.25214E+03  1.66840E+03  9.98852E+03
 -3.42096E+03  8.85026E+03 -5.41443E+03  2.14134E+03 -3.51899E+03 -1.19277E+03 -1.37948E+03 -1.20559E+03
 -8.10237E+02 -4.39873E+02 -1.12727E+03  1.49950E+03 -3.51429E+03  1.67606E+03 -6.21437E+03 -5.26854E+02
 -3.05433E+03 -5.72592E+03  3.94791E+02 -8.05802E+03  4.45746E+03 -7.46167E+03  7.14702E+03 -1.79032E+03
  7.08031E+03  3.46056E+03  3.98319E+03  5.71769E+03 -1.64635E+03  7.98462E+03 -4.51711E+03  4.42971E+03
 -6.54370E+03  4.36357E+02 -5.48688E+03 -4.87026E+03 -5.85329E+02 -5.75468E+03  2.73507E+03 -4.53429E+03
  4.60640E+03 -1.67152E+03  3.25944E+03  1.07955E+03  5.66892E+02  2.53415E+03  9.94723E+02  9.62353E+02
  1.98091E+03  5.90787E+02  1.62010E+03  1.38172E+03  2.57491E+03  3.38697E+03  1.59245E+03  3.02881E+03
 -1.25792E+03  5.28231E+03 -4.78667E+03  6.38316E+03 -6.34733E+03  1.60472E+03 -7.25383E+03 -2.22714E+03
 -3.46081E+03 -6.27296E+03  1.23146E+03 -7.77106E+03  3.96263E+03 -4.80774E+03  6.09175E+03 -1.78493E+03
  4.58077E+03  2.41793E+03  6.14279E+02  4.47086E+03 -1.07679E+03  3.02179E+03 -2.97167E+03 -5.79687E+02
 -1.71062E+03 -2.95805E+03  8.88828E+02 -2.86070E+03  2.55447E+03 -1.42576E+03  2.73676E+03  9.40803E+02
  1.57147E+03  6.45803E+02  7.27313E+02  5.21619E+02 -1.66099E+02  1.16441E+03  2.01215E+03 -3.55202E+02
  4.07825E+02 -2.27586E+02  2.59710E+03  9.08094E+02  6.27707E+02  4.27519E+03  5.05968E+01  4.83703E+03
 -3.21066E+03  2.56852E+03 -3.71598E+03  8.50498E+02 -3.67600E+03 -1.20559E+03 -1.40034E+03 -2.05804E+03
  6.90039E+02 -2.45823E+03  1.50184E+03 -1.19427E+03  1.99545E+03  1.55230E+03 -1.28179E+03  1.71974E+03
 -3.00016E+03  1.46617E+03 -2.59236E+03 -1.80664E+03 -2.31047E+03 -3.66183E+03  4.87205E+02 -3.31832E+03
  1.50814E+03 -1.46574E+03  1.37561E+03  2.05235E+02  2.42544E+03  1.08457E+02  1.90559E+01  2.39334E+03
 -5.26263E+02  6.48008E+02 -2.04724E+03 -1.24969E+03  4.58392E+02 -2.10845E+03  1.64693E+03 -1.94881E+03
  3.36025E+03  8.44975E+01  4.08742E+03  1.78361E+03  1.42000E+03  3.27772E+03 -1.27080E+03  3.55494E+03
 -2.97611E+03  1.62475E+03 -3.20666E+03 -3.10341E+02 -1.87062E+03 -2.47776E+03  3.61496E+02 -2.05228E+03
  2.43486E+03 -9.78525E+02  2.12691E+03  7.67059E+02  3.79861E+02  2.37164E+03 -2.62780E+01  1.90028E+03
 -1.15953E+03  1.87370E+03 -1.44388E+02  4.28333E+02 -2.18072E+02  2.96176E+02 -9.62602E+02  7.99914E+02
 -8.53740E+02  1.29240E+03 -3.31317E+03  1.54289E+03 -4.17122E+03  7.46817E+02 -4.53141E+03 -2.50040E+03
 -2.25622E+03 -4.75653E+03  1.49175E+03 -5.48403E+03  3.33166E+03 -4.95887E+03  5.35488E+03 -2.24096E+03
  5.08179E+03  1.49950E+02  3.33691E+03  3.41693E+03  2.30523E+01  3.40074E+03 -1.18178E+03  2.65033E+03
 -2.52379E+03  1.82342E+03 -7.37513E+02 -2.59150E+02 -6.62397E+02  3.26631E+02 -3.61601E+02 -2.84520E+02
 -1.48204E+03 -2.88274E+02 -9.68751E+02  2.52449E+02 -4.14139E+02 -1.18652E+03 -8.16121E+02 -1.98996E+03
  2.13398E+03 -9.94190E+02  1.75494E+03  4.58366E+02  2.34650E+03  2.10364E+03  7.80654E+01  3.46463E+03
 -1.64251E+03  4.44337E+03 -3.47301E+03  1.88195E+03 -4.37155E+03  2.21009E+01 -2.60655E+03 -2.88288E+03
 -1.35332E+03 -3.25247E+03  9.35770E+02 -2.60971E+03  1.59292E+03 -1.31872E+03  1.44392E+03 -4.14069E+02
  1.75086E+03  7.74688E+02  5.02649E+02  8.14436E+02 -7.56753E+02  8.70356E+01  2.17821E+02 -5.38086E+02
  1.15733E+03 -6.91187E+02  1.31935E+03  4.38298E+02  1.31858E+03  1.11956E+03 -2.46691E+02  1.73898E+03
 -1.00148E+03  9.71246E+02 -1.84933E+03  5.52305E+00 -1.89996E+03 -1.13358E+03  3.17980E+02 -2.58726E+03
  1.18036E+03 -1.93438E+03  1.21783E+03 -3.73361E+02  2.76529E+03 -3.01689E+01  1.19329E+03  2.20280E+03
  4.31885E+02  1.04628E+03 -5.56220E+02  2.44335E+03 -1.57429E+03  1.30156E+03 -9.21390E+02  5.04431E+00
 -7.63465E+02 -1.92691E+02 -3.17372E+02  4.83228E+02 -1.22108E+03  1.01137E+02 -2.00819E+03 -8.86281E+01
 -1.04761E+03 -2.28772E+01 -9.47769E+02 -1.98044E+03  6.38062E+02 -2.99971E+03  2.01173E+03 -3.43477E+02
  1.43671E+03  9.68961E+01 -9.77503E+01  7.05480E+02  1.09788E+02  1.81783E+03 -1.08753E+03  1.02239E+03
