 $NMID ID='MM_0lb_SNR400_20hz_g45_7.RAW', FMTDAT='(8E13.5)'
 TRAMP=1., VOLUME=1. $END
  3.09335E+05  4.03997E+02  3.37256E+05  2.50209E+05  8.46849E+04  3.37415E+05 -1.32171E+05  2.49966E+05
 -1.89459E+05  8.22921E+04 -1.10675E+05 -3.27203E+04  1.56110E+03 -5.05231E+04  5.36917E+04  2.95064E+02
  3.48873E+04  5.24721E+04 -1.69465E+04  7.50108E+04 -6.02825E+04  6.23973E+04 -8.19022E+04  3.13645E+04
 -7.88111E+04 -1.11336E+04 -5.57059E+04 -4.93534E+04 -1.47793E+04 -6.81362E+04  2.64612E+04 -4.43628E+04
  3.86269E+04  3.94151E+03  1.53072E+04  4.71665E+04 -3.36528E+04  4.60982E+04 -6.52564E+04 -3.08747E+02
 -5.15037E+04 -5.58718E+04 -6.23620E+03 -7.50590E+04  3.28503E+04 -5.29317E+04  4.54448E+04 -1.53411E+04
  4.04236E+04  1.07575E+04  3.01851E+04  2.43666E+04  1.60622E+04  2.77975E+04 -4.58036E+03  2.63764E+04
 -2.16857E+04  1.29227E+04 -1.94041E+04 -3.86819E+03  3.83468E+03 -7.43073E+03  2.09566E+04  1.07512E+04
  7.36271E+03  3.25516E+04 -2.92801E+04  3.32454E+04 -6.04020E+04  1.89776E+03 -5.44698E+04 -4.06379E+04
 -1.19897E+04 -5.97918E+04  3.79223E+04 -4.25985E+04  5.44162E+04 -1.86677E+03  3.12825E+04  2.99218E+04
 -6.64689E+03  3.19993E+04 -2.78901E+04  1.21176E+04 -2.66078E+04 -5.59727E+03 -1.38249E+04 -9.85564E+03
 -6.81310E+03 -1.10884E+04 -1.05121E+03 -1.58829E+04  5.95748E+03 -2.21607E+04  1.51152E+04 -1.41912E+04
  1.25498E+04  3.93506E+03 -5.84589E+03  1.36371E+04 -1.84457E+04 -1.47685E+03 -8.13411E+03 -2.96224E+04
  1.97402E+04 -3.92778E+04  4.32169E+04 -1.83458E+04  4.05061E+04  1.74087E+04  1.39352E+04  4.11459E+04
 -1.50912E+04  3.01865E+04 -2.28376E+04  6.53613E+02 -7.73588E+03 -2.58410E+04  2.06049E+04 -2.96567E+04
  3.69735E+04 -6.90370E+03  3.02584E+04  2.23524E+04  1.46379E+04  4.16312E+04 -7.77870E+03  4.38623E+04
 -2.78103E+04  2.82519E+04 -3.59291E+04  8.02915E+03 -3.70942E+04 -1.45073E+04 -2.08388E+04 -3.31497E+04
  6.88910E+03 -3.26868E+04  2.83463E+04 -1.21104E+04  2.60433E+04  1.05924E+04  2.39149E+03  1.66774E+04
 -1.26158E+04  6.46749E+03 -9.35187E+03 -7.26115E+03  5.98642E+03 -1.00391E+04  1.68430E+04  6.59324E+03
  1.21390E+04  2.15148E+04 -6.93869E+03  2.27514E+04 -2.12473E+04  7.99450E+03 -2.42563E+04 -7.28279E+03
 -1.51336E+04 -1.57668E+04 -4.85791E+03 -1.60273E+04  3.10934E+03 -1.28810E+04  1.12680E+04 -1.26732E+04
  1.97905E+04 -1.16508E+04  2.62892E+04  1.17744E+03  2.03526E+04  1.52646E+04  3.78455E+03  3.10508E+04
 -1.57505E+04  2.69295E+04 -2.54120E+04  8.91162E+03 -1.89817E+04 -1.03793E+04 -4.10487E+03 -1.42636E+04
  3.47873E+03 -4.49695E+03 -2.00010E+03  4.85538E+03 -1.21201E+04  4.86476E+03 -1.25916E+04 -3.67322E+03
 -8.46917E+03 -1.45182E+04  4.41959E+03 -1.81402E+04  1.13262E+04 -1.34331E+04  1.31921E+04 -1.86128E+03
  7.96727E+03  9.82041E+03 -8.22073E+02  1.45436E+04 -9.74287E+03  7.88127E+03 -1.41983E+04 -3.42410E+03
 -1.13245E+04 -1.36710E+04 -1.77529E+03 -1.79771E+04  7.89668E+03 -1.38081E+04  1.55933E+04 -6.45160E+03
  1.35987E+04  1.41085E+03  9.88640E+03  3.15679E+03  4.27091E+03  6.13724E+02  7.32374E+03 -1.19421E+03
  1.29802E+04  2.55971E+03  1.33270E+04  1.18232E+04  8.15219E+03  2.26354E+04 -3.78721E+03  2.47413E+04
 -1.45524E+04  1.82865E+04 -2.18330E+04  8.06354E+03 -2.22552E+04 -1.76557E+03 -1.95129E+04 -1.24716E+04
 -9.42226E+03 -1.81484E+04  5.91714E+03 -1.74946E+04  1.48687E+04 -1.03066E+04  1.45652E+04  2.99784E+03
  6.08393E+03  9.76052E+03 -6.51354E+03  1.02592E+04 -1.33084E+04  2.50117E+03 -9.62480E+03 -7.54928E+03
  5.94812E+01 -1.18481E+04  5.11846E+03 -8.92116E+03  7.61557E+03 -1.54644E+03  1.18053E+03  4.62029E+03
 -5.14773E+03  1.12025E+03 -3.11106E+03 -4.17421E+03  8.62407E+02 -9.56155E+03  7.69997E+03 -8.73571E+03
  1.07618E+04 -3.91828E+03  1.08087E+04  2.41994E+03  8.82033E+03  8.42290E+03  4.53597E+03  1.27368E+04
 -1.05377E+03  1.44501E+04 -8.39298E+03  9.14143E+03 -9.89324E+03  2.00111E+03 -7.34277E+03 -1.48632E+03
 -3.61212E+03 -2.55207E+03 -1.74829E+03  1.92704E+03 -1.59074E+03  2.27686E+03 -3.38612E+03  3.87890E+03
 -7.53554E+03 -1.66883E+02 -8.14384E+03 -6.18899E+03 -3.75696E+03 -1.07768E+04  3.19752E+03 -7.38070E+03
  6.44935E+03 -3.23538E+03  4.74924E+03  1.90831E+03  1.05264E+03  2.28982E+03 -3.12761E+03 -1.70033E+01
 -2.44495E+03 -4.80479E+03 -9.04939E+02 -6.30607E+03  3.48665E+03 -6.71022E+03  8.86154E+03 -3.88651E+03
  1.01472E+04  1.62705E+02  7.45550E+03  5.58980E+03  1.64291E+03  7.58421E+03 -4.58745E+03  7.10311E+03
 -6.40602E+03  2.64346E+03 -3.35579E+03 -6.18266E+02  1.42686E+03 -1.55317E+03  4.19098E+03 -5.81241E+02
  3.63143E+03  2.77942E+03  1.30441E+03  5.65665E+03 -4.08473E+03  6.02671E+03 -7.31442E+03  1.15873E+03
 -4.07032E+03 -3.44692E+03  1.90628E+02 -5.52308E+03  3.30792E+03 -2.45278E+03  2.99962E+03  6.93478E+02
  1.13752E+02  2.77051E+03 -3.26319E+03  3.86790E+03 -3.88969E+03  2.32193E+03 -3.45580E+03 -7.50987E+02
 -2.36457E+03 -4.85078E+03  1.16429E+03 -5.59070E+03  4.64858E+03 -3.83554E+03  4.90294E+03  8.84313E+02
  3.70061E+03  4.27495E+03  1.31573E+02  6.13636E+03 -3.91777E+03  3.85078E+03 -4.32399E+03 -5.52286E+02
 -5.38859E+03 -5.11456E+03 -1.44537E+03 -4.41936E+03  1.95598E+03 -4.08974E+03  2.07349E+03 -3.29961E+03
  2.38035E+03 -2.64734E+01  1.62616E+02  1.37082E+03  1.42273E+03  6.16277E+02  2.67142E+02 -1.18245E+03
  3.13829E+03 -4.12137E+02  4.30058E+03  9.01452E+02  4.90946E+03  2.21876E+03  4.82056E+03  5.29391E+03
 -1.04738E+03  7.23982E+03 -6.62846E+03  5.54856E+03 -8.68346E+03  9.21064E+02 -6.25675E+03 -1.72989E+03
 -3.78725E+03 -5.41021E+03 -3.22970E+02 -4.23424E+03  1.44497E+03 -1.46472E+03  1.31813E+03 -1.73823E+03
  5.47859E+02 -1.32661E+03  1.94058E+03 -2.14841E+03  2.89026E+03 -1.03727E+03  3.31652E+03  8.60597E+02
  3.52813E+03  4.98631E+02  2.43867E+02  2.64768E+03 -1.36098E+03  1.73518E+03 -3.11882E+03  2.25963E+03
 -4.04687E+03 -1.40372E+03 -1.51895E+03 -2.32561E+03  2.96488E+02 -3.44964E+03  2.86000E+03 -4.28829E+03
  4.03823E+03 -2.69191E+03  5.34515E+03  2.92454E+02  4.10144E+03  3.40626E+03  1.16868E+03  4.96937E+03
 -1.95522E+03  5.20987E+03 -2.78439E+03  1.56185E+03 -1.63920E+03 -1.52053E+03 -8.97756E+01 -1.92275E+02
 -2.26607E+02  1.04552E+03 -9.86288E+02  1.95724E+03 -2.94796E+03  9.18791E+02 -3.85453E+03 -1.56575E+01
 -1.32563E+03 -3.18644E+03  1.07148E+03 -3.58659E+03  1.86539E+03 -3.58991E+03  2.95300E+03 -1.16236E+03
  3.05397E+03  1.88873E+03  1.32032E+03  2.24585E+03 -7.89692E+02  3.64558E+03 -2.47930E+03  2.28631E+03
 -3.09133E+03  3.16542E+02 -2.15587E+03 -2.16216E+03 -5.42009E+02 -2.64989E+03  2.04639E+03 -1.73523E+03
  1.93481E+03 -1.05870E+03  1.12365E+03  2.05871E+02 -1.66880E+02  1.28142E+03  5.96557E+02  1.87582E+02
  1.43671E+03  3.47674E+02  8.84171E+02  5.72761E+02  1.28048E+03  1.53268E+03  1.09451E+03  1.27108E+03
 -7.79648E+02  2.13711E+03 -1.90607E+03  3.19745E+03 -2.29703E+03  1.12443E+03 -3.36697E+03  1.92001E+02
 -1.19163E+03 -2.57929E+03  7.55914E+02 -3.66285E+03  1.00461E+03 -2.55916E+03  2.27625E+03 -1.14116E+03
  1.73209E+03  7.05390E+02  3.98463E+02  1.63845E+03  1.01542E+02  5.32161E+02 -3.17219E+02  3.77431E+02
 -1.35116E+02 -1.41913E+03  6.89891E+02 -1.00561E+03  1.19596E+03 -6.73076E+02  1.65965E+03  1.79096E+02
  9.27414E+01  2.59867E+02  9.77042E+02 -5.08854E+02 -6.16110E+02  4.15619E+02  1.63986E+03 -6.52522E+02
 -2.05233E+02  6.16402E+01  1.45695E+03  2.13262E+02 -1.32446E+02  1.61958E+03  1.00569E+02  2.52481E+03
 -1.11661E+03  2.10674E+02 -1.83543E+03  3.29890E+02 -1.88585E+03 -2.13692E+01  4.42638E+01 -7.90644E+02
 -1.66167E+00 -9.69945E+02  9.56049E+02 -8.91993E+02  4.35607E+02  1.03065E+03 -7.15648E+02  8.70902E+02
 -1.41769E+03  3.05293E+02 -3.23618E+02 -1.46111E+03 -6.64920E+02 -1.55871E+03  1.27155E+02 -9.76908E+02
 -9.20704E+01 -3.26836E+02  4.14222E+02  1.95994E+02  9.79456E+02 -2.76519E+02  5.11444E+02  1.24128E+03
  4.77214E+01 -2.90266E+02 -5.98060E+02 -8.44778E+01  6.99483E+02 -5.37603E+02  1.08726E+03 -9.01483E+02
  1.01527E+03 -2.00607E+02  2.54856E+03  6.04029E+02  1.00806E+03  1.15879E+03 -6.20609E+02  1.49190E+03
 -1.11171E+03 -2.63601E+01 -1.05949E+03  1.40226E+02 -8.11311E+01 -2.63189E+02  5.97965E+01 -3.24318E+02
  9.09128E+02 -8.81096E+02  7.46293E+02  4.92454E+02  2.62400E+02  1.08167E+03  3.54659E+02  1.77322E+03
  2.13860E+02  1.00426E+03 -6.04773E+02 -2.05183E+02 -2.24226E+01  2.98660E+02 -7.30139E+02  6.38952E+02
 -5.43110E+02  1.45697E+03 -1.60350E+03  1.29970E+02 -1.26427E+03  5.40397E+02 -2.02629E+03 -1.05045E+03
 -7.22004E+02 -1.16200E+03  5.41863E+02 -1.73804E+03  5.57815E+02 -1.83610E+03  2.02010E+03 -8.23081E+02
  1.87592E+03 -3.93507E+01  1.30295E+03  9.97541E+02 -7.50163E+02  6.93848E+02 -3.45238E+02  9.37381E+02
 -4.73064E+02  1.24444E+03 -6.05049E+02  8.65358E+01 -5.66039E+02  6.94269E+02 -6.81406E+02  2.50549E+02
 -1.00599E+03 -3.44772E+02 -5.82701E+02  1.79270E+02  3.23437E+02 -8.08759E+02 -4.65496E+02 -9.66530E+02
  1.03086E+03 -6.89501E+02  1.10305E+02  3.18025E+02  9.29825E+02  5.76641E+02 -6.14861E+02  7.99050E+02
 -1.28304E+03  1.55124E+03 -1.17569E+03  9.77705E+02 -1.47215E+03 -6.30280E+02 -2.25976E+02 -7.67095E+02
 -1.00216E+03 -9.09453E+02  1.98922E+02 -5.00131E+02 -3.32788E+01  2.83977E+01 -2.42041E+02 -5.43157E+02
  4.65398E+02 -1.06270E+02  1.65016E+01  3.16497E+02 -4.94101E+02  2.67339E+02 -1.77423E+02  9.99253E+01
  9.17965E+02  1.39023E+01  5.07243E+01  6.58152E+02 -2.16424E+02 -9.91603E+00  9.42207E+01  2.36908E+02
 -3.98979E+02  7.93558E+02 -2.68466E+02 -6.15959E+01 -1.66995E+02 -1.52511E+02 -9.50288E+00 -9.86957E+02
 -2.95914E+01 -2.32752E+02 -4.96947E+01 -1.09835E+02  7.09959E+01 -5.62907E+02  2.15699E+02  4.10007E+02
  4.14654E+02  3.81219E+02  3.47071E+02  3.51155E+02 -2.20498E+02  1.61718E+02  7.01858E+02  3.71553E+02
 -5.77642E+02  3.50127E+02 -1.64012E+02  1.69324E+02 -2.45760E+02  3.13269E+02 -2.94211E+02 -3.05926E+02
 -1.12589E+03 -9.17611E+00 -4.69848E+02 -8.09755E+02  5.37000E+02 -1.36102E+03  7.38972E+02 -2.72404E+01
  2.40828E+02 -6.22383E+01 -4.08506E+02 -2.54519E+02 -3.66592E+02  2.24902E+02 -2.47199E+02  3.96528E+02
