 $NMID ID='MM_0lb_SNR400_12hz_g55_80.RAW', FMTDAT='(8E13.5)'
 TRAMP=1., VOLUME=1. $END
  3.09775E+05 -1.51963E+02  3.37751E+05  2.50645E+05  8.50135E+04  3.38942E+05 -1.32667E+05  2.51601E+05
 -1.90536E+05  8.35045E+04 -1.11813E+05 -3.27777E+04  2.47817E+02 -5.09355E+04  5.36754E+04 -9.87833E+02
  3.55148E+04  5.21044E+04 -1.67701E+04  7.62825E+04 -6.12646E+04  6.40413E+04 -8.50613E+04  3.20211E+04
 -8.14770E+04 -1.10456E+04 -5.77935E+04 -5.23498E+04 -1.49269E+04 -7.08133E+04  2.77297E+04 -4.67998E+04
  4.04951E+04  3.84121E+03  1.66664E+04  4.89244E+04 -3.47219E+04  4.80063E+04 -6.69099E+04 -3.64313E+02
 -5.42434E+04 -5.72407E+04 -6.75159E+03 -7.82871E+04  3.45698E+04 -5.59446E+04  4.89544E+04 -1.80367E+04
  4.45601E+04  1.13502E+04  3.26483E+04  2.67226E+04  1.61858E+04  3.00605E+04 -5.23741E+03  2.80466E+04
 -2.17681E+04  1.24162E+04 -1.85693E+04 -5.36562E+03  6.75795E+03 -7.62719E+03  2.31981E+04  1.34437E+04
  7.18174E+03  3.74188E+04 -3.28435E+04  3.66144E+04 -6.43959E+04  2.95740E+03 -5.80309E+04 -4.39285E+04
 -1.27197E+04 -6.44610E+04  4.03307E+04 -4.66976E+04  5.95320E+04 -1.84277E+03  3.54100E+04  3.34977E+04
 -5.43678E+03  3.79302E+04 -3.03295E+04  1.79368E+04 -3.22167E+04 -3.83786E+03 -1.77795E+04 -1.12356E+04
 -9.05206E+03 -1.45249E+04 -9.52395E+02 -1.94033E+04  7.92823E+03 -2.34835E+04  1.55994E+04 -1.30766E+04
  1.04633E+04  6.15298E+03 -9.05309E+03  1.32644E+04 -2.31319E+04 -5.84521E+03 -8.48315E+03 -3.56526E+04
  2.43972E+04 -4.49530E+04  5.03627E+04 -2.04012E+04  4.68287E+04  1.97782E+04  1.66494E+04  4.61336E+04
 -1.64886E+04  3.50628E+04 -2.69379E+04  2.18789E+03 -1.04904E+04 -2.81520E+04  2.15720E+04 -3.53457E+04
  4.30172E+04 -1.08076E+04  3.77928E+04  2.39692E+04  1.95804E+04  4.88865E+04 -8.65672E+03  5.39401E+04
 -3.43672E+04  3.59233E+04 -4.52061E+04  1.09081E+04 -4.56573E+04 -1.74845E+04 -2.49087E+04 -4.01575E+04
  7.18273E+03 -3.96378E+04  3.22468E+04 -1.62008E+04  3.03027E+04  1.09125E+04  4.94152E+03  1.96832E+04
 -1.37572E+04  9.10143E+03 -1.08290E+04 -7.45739E+03  5.65148E+03 -1.15269E+04  1.80842E+04  5.90751E+03
  1.36183E+04  2.23431E+04 -5.27901E+03  2.64380E+04 -2.26944E+04  1.24830E+04 -3.01826E+04 -3.89513E+03
 -2.31462E+04 -1.74565E+04 -1.01864E+04 -2.31517E+04  4.85324E+03 -2.25639E+04  1.78279E+04 -2.00914E+04
  2.93152E+04 -1.30315E+04  3.59355E+04  4.01927E+03  2.48843E+04  2.17225E+04  4.04490E+03  3.86796E+04
 -1.85184E+04  3.25368E+04 -2.95587E+04  1.08386E+04 -2.22118E+04 -9.84102E+03 -5.00221E+03 -1.26300E+04
  1.32714E+03 -1.67742E+03 -6.49467E+03  7.40846E+03 -1.85479E+04  5.29912E+03 -1.81514E+04 -8.28183E+03
 -1.01412E+04 -2.15949E+04  5.93421E+03 -2.56166E+04  1.65113E+04 -1.83056E+04  2.01262E+04 -1.57275E+03
  1.22941E+04  1.50362E+04 -1.36340E+03  2.05970E+04 -1.43163E+04  1.20156E+04 -2.12381E+04 -4.77272E+03
 -1.59283E+04 -1.89882E+04 -1.09568E+03 -2.52453E+04  1.22635E+04 -2.10590E+04  2.11683E+04 -1.09573E+04
  2.03286E+04  2.80918E+02  1.40129E+04  5.09459E+03  7.90959E+03  1.02631E+03  1.07162E+04 -2.06577E+03
  1.93083E+04  2.78231E+03  2.22187E+04  1.71145E+04  1.51396E+04  3.41864E+04 -2.95789E+03  4.03048E+04
 -2.19670E+04  3.24353E+04 -3.65434E+04  1.65453E+04 -3.92227E+04 -3.09898E+03 -3.25068E+04 -2.29110E+04
 -1.28954E+04 -3.34706E+04  1.19986E+04 -2.87130E+04  2.45770E+04 -1.39415E+04  2.14475E+04  6.73461E+03
  7.37941E+03  1.74826E+04 -9.85093E+03  1.47429E+04 -1.80199E+04  2.60031E+03 -1.29680E+04 -1.09998E+04
 -4.16865E+01 -1.77783E+04  9.61897E+03 -1.29183E+04  1.14474E+04 -1.76704E+03  2.74432E+03  7.75876E+03
 -7.15826E+03  2.78781E+03 -7.30099E+03 -6.08157E+03 -6.47854E+02 -1.59633E+04  1.02880E+04 -1.70050E+04
  1.94121E+04 -8.56894E+03  2.15960E+04  3.24293E+03  1.93345E+04  1.60219E+04  8.67636E+03  2.43383E+04
 -4.15579E+03  2.61514E+04 -1.69969E+04  1.67766E+04 -1.93665E+04  3.56972E+03 -1.32681E+04 -5.07172E+03
 -5.51095E+03 -5.92771E+03 -8.60846E+02  1.08247E+03 -2.30735E+03  2.68430E+03 -6.27487E+03  4.09605E+03
 -1.20394E+04 -8.02753E+02 -1.26574E+04 -1.05824E+04 -5.75859E+03 -1.69601E+04  5.84359E+03 -1.32100E+04
  1.02557E+04 -6.53265E+03  7.82854E+03  3.44423E+03 -7.48926E+00  4.93137E+03 -6.21503E+03 -3.25100E+02
 -6.07627E+03 -8.30814E+03 -1.27016E+03 -1.29730E+04  7.17549E+03 -1.33707E+04  1.69335E+04 -7.07641E+03
  1.96799E+04  2.08030E+03  1.45526E+04  1.15140E+04  3.48900E+03  1.56759E+04 -8.13383E+03  1.27339E+04
 -1.07116E+04  4.24332E+03 -5.77422E+03 -3.10110E+03  1.42009E+03 -3.86867E+03  8.00379E+03 -1.40883E+03
  6.25613E+03  5.61293E+03  1.32699E+03  1.05606E+04 -7.28684E+03  9.84464E+03 -1.25870E+04  2.92466E+03
 -9.53532E+03 -7.19467E+03  9.20478E+01 -1.15270E+04  6.90924E+03 -5.77306E+03  7.34486E+03  2.24804E+03
  1.75973E+03  7.52403E+03 -7.03647E+03  1.00816E+04 -1.08505E+04  4.35949E+03 -1.02865E+04 -3.78650E+03
 -6.80688E+03 -1.20638E+04  3.46322E+03 -1.41044E+04  1.16339E+04 -8.34790E+03  1.32192E+04  2.81025E+03
  8.05294E+03  1.07870E+04 -4.23777E+02  1.31898E+04 -9.58523E+03  7.28573E+03 -1.07134E+04 -1.78150E+03
 -9.23334E+03 -8.87020E+03 -2.25939E+03 -9.36172E+03  5.36910E+03 -7.58161E+03  6.29392E+03 -3.32500E+03
  4.06556E+03  2.57101E+03 -8.10122E+02  1.62636E+03 -8.19899E+01 -2.12779E+03  1.41537E+03 -5.10049E+03
  8.22405E+03 -2.90519E+03  1.19883E+04  1.06003E+03  1.24460E+04  7.94013E+03  7.80847E+03  1.59818E+04
 -3.48224E+03  1.85520E+04 -1.56158E+04  1.39898E+04 -1.96124E+04  2.37756E+03 -1.64007E+04 -7.21747E+03
 -7.99730E+03 -1.26370E+04 -9.02631E+02 -1.12373E+04  4.55602E+03 -5.74515E+03  4.38828E+03 -3.52426E+03
  3.01342E+03 -2.50437E+03  2.29146E+03 -3.00803E+03  4.83981E+03 -2.13511E+03  6.73905E+03 -8.36420E+02
  9.03172E+03  1.76217E+03  4.09655E+03  7.53738E+03 -1.60115E+03  7.90876E+03 -8.97185E+03  7.24574E+03
 -1.14966E+04 -1.00092E+03 -6.96211E+03 -7.86803E+03 -7.06481E+02 -1.20920E+04  6.66707E+03 -1.20899E+04
  1.22578E+04 -6.61494E+03  1.48951E+04  1.31256E+03  1.07276E+04  1.05345E+04  1.90109E+03  1.33085E+04
 -5.80933E+03  1.06847E+04 -7.63116E+03  3.47830E+03 -5.08092E+03 -1.17539E+03 -1.91026E+03 -1.21804E+03
 -7.34913E+02 -4.32243E+02 -2.29512E+03  2.51732E+03 -4.70705E+03  1.83205E+03 -7.68057E+03 -1.77588E+03
 -5.38651E+03 -7.27930E+03  5.10463E+02 -1.12289E+04  6.16008E+03 -1.04189E+04  1.00459E+04 -2.98598E+03
  1.05950E+04  4.87843E+03  4.70963E+03  9.58545E+03 -1.97069E+03  1.03260E+04 -7.07492E+03  6.66608E+03
 -1.03824E+04  5.15994E+02 -7.51129E+03 -6.28253E+03 -6.32765E+02 -9.14865E+03  4.94146E+03 -6.41928E+03
  6.92659E+03 -3.04487E+03  4.79271E+03  2.10782E+03  1.21749E+03  3.50393E+03  1.36955E+03  1.15687E+03
  1.57427E+03  9.11536E+02  3.07677E+03  1.37200E+03  2.94596E+03  3.97992E+03  2.20277E+03  5.32485E+03
 -2.38149E+03  8.18831E+03 -7.61985E+03  9.19533E+03 -1.06444E+04  2.55794E+03 -1.11351E+04 -4.43969E+03
 -5.52010E+03 -1.06316E+04  1.32481E+03 -1.17962E+04  5.63156E+03 -6.88356E+03  8.69063E+03 -1.86564E+03
  6.06332E+03  3.70274E+03  1.53779E+03  6.35783E+03 -2.41607E+03  3.91749E+03 -3.92710E+03 -7.29198E+02
 -1.86107E+03 -4.51585E+03  2.77629E+03 -4.95661E+03  4.10668E+03 -2.78633E+03  4.90172E+03  3.32030E+02
  2.41705E+03  7.71579E+02  1.37158E+03  1.38329E+03 -4.09905E+02  1.59193E+03  1.18407E+03 -6.33910E+02
  1.67780E+03 -6.65212E+02  4.30972E+03  1.82145E+03  2.45652E+03  6.03917E+03 -1.14924E+03  7.12028E+03
 -5.11071E+03  4.98131E+03 -6.08055E+03  1.70330E+03 -5.86702E+03 -2.31339E+03 -1.99893E+03 -3.04689E+03
  1.11284E+03 -3.96571E+03  2.85454E+03 -1.00258E+03  2.82120E+03  2.78208E+03 -8.55903E+02  3.56377E+03
 -3.86361E+03  2.33333E+03 -4.81406E+03 -2.73703E+03 -2.29846E+03 -5.88449E+03  6.25805E+02 -5.84748E+03
  3.31521E+03 -3.22643E+03  3.31529E+03 -7.61734E+02  3.41343E+03  1.48682E+03  5.26642E+02  3.58430E+03
 -2.02062E+03  1.18677E+03 -2.69181E+03 -1.77352E+03  1.03404E+03 -3.98529E+03  4.64749E+03 -3.23182E+03
  5.48811E+03 -1.86168E+02  6.56232E+03  4.13046E+03  2.07266E+03  6.93502E+03 -1.09335E+03  6.32201E+03
 -5.07479E+03  2.12826E+03 -5.53023E+03 -3.79606E+02 -2.94022E+03 -4.66118E+03  8.10307E+02 -3.42480E+03
  3.70049E+03 -1.59209E+03  2.75045E+03  9.13854E+02  4.45113E+02  3.40618E+03 -6.45155E+02  3.22274E+03
 -1.31624E+03  2.51028E+03 -2.00840E+03  8.94535E+02 -7.05272E+02  5.84021E+02 -1.17525E+03  1.03485E+03
 -1.65790E+03  2.81651E+03 -3.63977E+03  2.18783E+03 -6.30220E+03  1.23640E+02 -7.37140E+03 -4.12545E+03
 -3.59927E+03 -7.69634E+03  1.26610E+03 -8.82556E+03  5.51740E+03 -7.87037E+03  8.39718E+03 -3.01131E+03
  8.36714E+03  1.65404E+03  4.88524E+03  6.14850E+03 -1.98669E+01  5.70326E+03 -1.82117E+03  4.93859E+03
 -3.08704E+03  1.45818E+03 -1.75441E+03 -6.47377E+02 -1.19260E+03 -1.41039E+02 -1.08493E+03  3.78199E+02
 -1.18279E+03  4.02427E+02 -2.02394E+03 -5.93475E+02  2.59294E+01 -2.09231E+03  2.70143E+02 -1.96254E+03
  3.20101E+03 -1.67273E+03  3.47943E+03 -6.53906E+02  4.88971E+03  3.12746E+03  9.38049E+02  6.19362E+03
 -3.43802E+03  7.45713E+03 -6.47850E+03  4.75668E+03 -8.25070E+03 -1.38653E+03 -5.38572E+03 -4.58487E+03
 -2.10696E+03 -6.60510E+03  1.13850E+03 -5.12822E+03  3.99758E+03 -2.54321E+03  4.11882E+03  8.00285E+02
  2.73046E+03  2.52012E+03  3.09195E+02  1.12039E+03 -1.10802E+03 -7.94947E+01 -4.45655E+02 -1.43817E+03
  1.68917E+03 -5.66486E+02  2.24315E+03  1.60042E+03  1.75756E+03  2.37529E+03 -2.94004E+02  2.53751E+03
 -2.37641E+03  2.68105E+03 -4.04995E+03  4.07423E+02 -4.24968E+03 -2.16225E+03 -6.88497E+02 -4.57976E+03
  3.00036E+03 -3.53236E+03  5.11856E+03 -1.02092E+03  4.55219E+03  1.01876E+03  2.75048E+03  3.70518E+03
  1.06929E+03  3.39730E+03 -1.15493E+03  3.39702E+03 -2.16242E+03  1.29678E+03 -2.34649E+03  2.83260E+02
 -7.20159E+02 -7.31937E+02 -1.21594E+03  3.76283E+02 -2.19354E+03  7.55033E+02 -2.89483E+03 -1.41948E+03
 -3.39817E+03 -1.66219E+03 -3.44283E+02 -3.45416E+03  2.27825E+03 -3.86933E+03  3.30696E+03 -1.75575E+03
  3.79498E+03  1.27138E+03  1.98982E+03  2.45878E+03 -1.08068E+03  3.69224E+03 -2.60724E+03  2.96678E+03
