 $NMID ID='MM_0lb_SNR400_15hz_g60_95.RAW', FMTDAT='(8E13.5)'
 TRAMP=1., VOLUME=1. $END
  3.09937E+05  4.56729E+02  3.37562E+05  2.50761E+05  8.50063E+04  3.37795E+05 -1.32352E+05  2.52015E+05
 -1.90748E+05  8.31574E+04 -1.12037E+05 -3.29827E+04  7.23927E+02 -5.07471E+04  5.38015E+04  1.18547E+02
  3.52495E+04  5.27664E+04 -1.68650E+04  7.56330E+04 -6.04498E+04  6.39652E+04 -8.46071E+04  3.27154E+04
 -8.18482E+04 -1.13246E+04 -5.69669E+04 -5.21771E+04 -1.52131E+04 -7.05145E+04  2.70128E+04 -4.61999E+04
  4.01831E+04  3.73946E+03  1.71418E+04  4.84451E+04 -3.48018E+04  4.77809E+04 -6.72238E+04  2.31812E+02
 -5.37034E+04 -5.74327E+04 -6.78904E+03 -7.73202E+04  3.38190E+04 -5.48474E+04  4.77235E+04 -1.73263E+04
  4.46170E+04  1.10550E+04  3.18412E+04  2.58563E+04  1.57621E+04  2.98780E+04 -5.45755E+03  2.68016E+04
 -2.20028E+04  1.27866E+04 -1.84329E+04 -5.52016E+03  6.26382E+03 -6.52121E+03  2.29543E+04  1.28266E+04
  7.27221E+03  3.56668E+04 -3.29058E+04  3.61005E+04 -6.34167E+04  2.24427E+03 -5.73282E+04 -4.27213E+04
 -1.26043E+04 -6.40174E+04  3.94003E+04 -4.58206E+04  5.91567E+04 -2.09624E+03  3.48724E+04  3.32718E+04
 -5.42246E+03  3.68720E+04 -2.96166E+04  1.68010E+04 -3.09522E+04 -4.14103E+03 -1.73787E+04 -1.19225E+04
 -8.72961E+03 -1.30068E+04 -1.01127E+03 -1.78271E+04  7.58253E+03 -2.27860E+04  1.57379E+04 -1.31333E+04
  1.13099E+04  4.44507E+03 -8.94866E+03  1.29464E+04 -2.20057E+04 -5.12463E+03 -8.47372E+03 -3.44444E+04
  2.32579E+04 -4.40092E+04  4.92854E+04 -2.05516E+04  4.49014E+04  1.99492E+04  1.62960E+04  4.49364E+04
 -1.54137E+04  3.38771E+04 -2.52887E+04  1.73049E+03 -1.03474E+04 -2.81463E+04  2.10861E+04 -3.38547E+04
  4.17312E+04 -9.41653E+03  3.68172E+04  2.38553E+04  1.95416E+04  4.66431E+04 -8.11454E+03  5.11809E+04
 -3.18769E+04  3.41696E+04 -4.29494E+04  1.02416E+04 -4.32878E+04 -1.71175E+04 -2.37027E+04 -3.87146E+04
  7.57141E+03 -3.81929E+04  3.22995E+04 -1.47249E+04  2.96893E+04  1.06720E+04  4.55023E+03  1.94708E+04
 -1.39320E+04  9.14810E+03 -1.06003E+04 -8.44471E+03  6.05737E+03 -1.14734E+04  1.81570E+04  6.16327E+03
  1.33602E+04  2.20084E+04 -6.48974E+03  2.49787E+04 -2.26028E+04  1.20131E+04 -2.83942E+04 -4.08064E+03
 -2.15897E+04 -1.71983E+04 -9.29249E+03 -2.09382E+04  3.75429E+03 -2.04788E+04  1.64728E+04 -1.87685E+04
  2.69217E+04 -1.29144E+04  3.32569E+04  3.37799E+03  2.42096E+04  2.00094E+04  4.27349E+03  3.69284E+04
 -1.78924E+04  3.05128E+04 -2.80803E+04  1.05816E+04 -2.12083E+04 -1.01123E+04 -4.15178E+03 -1.30568E+04
  2.01968E+03 -2.07684E+03 -5.20321E+03  6.75660E+03 -1.69673E+04  5.07324E+03 -1.70627E+04 -7.20720E+03
 -1.02279E+04 -1.93267E+04  4.86980E+03 -2.34655E+04  1.56078E+04 -1.69550E+04  1.86395E+04 -2.45491E+03
  1.20760E+04  1.38731E+04 -1.40598E+03  1.95549E+04 -1.34033E+04  1.11004E+04 -2.00437E+04 -4.23939E+03
 -1.42306E+04 -1.73392E+04 -2.07393E+03 -2.32570E+04  1.10361E+04 -1.94331E+04  1.94573E+04 -9.66137E+03
  1.84724E+04  7.24950E+02  1.30412E+04  4.48919E+03  6.54617E+03  2.25338E+02  9.23807E+03 -1.94503E+03
  1.76851E+04  3.36869E+03  2.01923E+04  1.52834E+04  1.29915E+04  3.06617E+04 -2.64260E+03  3.53582E+04
 -2.00888E+04  2.85336E+04 -3.29249E+04  1.42393E+04 -3.39508E+04 -2.44924E+03 -2.80309E+04 -1.94596E+04
 -1.24368E+04 -2.79639E+04  9.39474E+03 -2.50341E+04  2.23823E+04 -1.27216E+04  1.94900E+04  5.49924E+03
  7.37401E+03  1.44415E+04 -9.13060E+03  1.26002E+04 -1.63064E+04  2.21879E+03 -1.29502E+04 -1.05350E+04
 -1.51173E+02 -1.52138E+04  8.15135E+03 -1.11374E+04  1.06869E+04 -1.29863E+03  2.43567E+03  6.69891E+03
 -7.06469E+03  2.57905E+03 -5.84446E+03 -5.68215E+03 -6.86290E+02 -1.40361E+04  1.00773E+04 -1.48617E+04
  1.66347E+04 -7.74959E+03  1.89242E+04  2.59908E+03  1.58013E+04  1.36575E+04  6.75029E+03  2.04936E+04
 -3.43355E+03  2.26379E+04 -1.43697E+04  1.42949E+04 -1.60614E+04  3.68900E+03 -1.10977E+04 -3.63162E+03
 -4.94121E+03 -5.17697E+03 -1.30864E+02  1.15165E+03 -2.75856E+03  2.66923E+03 -4.80930E+03  4.43559E+03
 -1.08225E+04 -8.05680E+02 -1.14521E+04 -8.90604E+03 -4.18127E+03 -1.47653E+04  4.72116E+03 -1.13930E+04
  9.70825E+03 -4.59973E+03  6.43105E+03  3.50862E+03  3.60604E+02  4.52662E+03 -5.00858E+03 -2.23438E+01
 -5.54757E+03 -7.04249E+03 -1.10326E+03 -1.01055E+04  6.44709E+03 -1.11256E+04  1.40502E+04 -6.61551E+03
  1.66887E+04  1.88157E+03  1.16161E+04  9.53465E+03  2.34632E+03  1.27813E+04 -6.62137E+03  1.19090E+04
 -9.01578E+03  3.80679E+03 -4.53296E+03 -2.27793E+03  1.61107E+03 -3.40388E+03  5.65426E+03 -6.85880E+02
  5.51046E+03  4.81673E+03  1.20235E+03  9.28058E+03 -6.50289E+03  8.85916E+03 -1.08339E+04  2.17639E+03
 -7.63626E+03 -5.28988E+03  4.32800E+02 -9.31221E+03  5.69021E+03 -4.49588E+03  5.19739E+03  1.64070E+03
  9.88466E+02  6.72594E+03 -5.44716E+03  7.40494E+03 -8.08829E+03  3.74366E+03 -8.01967E+03 -2.65559E+03
 -5.25233E+03 -9.63628E+03  2.29821E+03 -1.17005E+04  9.43054E+03 -7.07084E+03  9.99625E+03  2.21170E+03
  6.25310E+03  7.89615E+03 -6.20862E+02  1.08684E+04 -7.59815E+03  6.19463E+03 -7.56623E+03 -3.90400E+02
 -6.64591E+03 -6.61648E+03 -1.25412E+03 -7.31681E+03  4.48249E+03 -5.79155E+03  4.57890E+03 -2.93521E+03
  3.49745E+03  1.01872E+03 -2.48250E+02  1.36036E+03 -1.84623E+02 -1.22348E+03  1.29218E+03 -3.38538E+03
  6.40290E+03 -2.66711E+03  9.08834E+03  8.66075E+02  9.05868E+03  5.94878E+03  7.27575E+03  1.24794E+04
 -2.77443E+03  1.46451E+04 -1.24684E+04  1.01588E+04 -1.53721E+04  2.21263E+03 -1.20824E+04 -4.14345E+03
 -6.50522E+03 -9.71089E+03  1.13181E+02 -8.52935E+03  3.26568E+03 -3.21938E+03  3.35408E+03 -3.26710E+03
  2.51729E+03 -1.81312E+03  2.84247E+03 -3.00798E+03  4.56439E+03 -2.78504E+03  5.36965E+03 -1.27240E+02
  6.35567E+03  1.85835E+03  2.81167E+03  5.50886E+03 -2.06867E+03  5.81125E+03 -7.01544E+03  4.13547E+03
 -8.50173E+03 -1.45433E+03 -4.41753E+03 -5.82675E+03  2.78883E+02 -8.76262E+03  5.09159E+03 -8.51975E+03
  9.43095E+03 -5.15661E+03  1.09823E+04  1.00986E+03  7.22928E+03  7.74698E+03  1.43343E+03  9.72453E+03
 -3.89295E+03  8.52902E+03 -5.59359E+03  3.05733E+03 -3.45105E+03 -1.11234E+03 -1.43325E+03 -1.15713E+03
 -8.55451E+02  1.83908E+02 -6.75193E+02  2.52981E+03 -3.84544E+03  1.81818E+03 -5.85163E+03 -5.66712E+02
 -3.49779E+03 -5.87439E+03  1.09757E+03 -7.33456E+03  5.05961E+03 -7.53308E+03  7.00035E+03 -2.25223E+03
  7.37751E+03  4.06416E+03  3.42978E+03  6.39063E+03 -1.23974E+03  7.45335E+03 -5.30879E+03  3.99910E+03
 -6.60705E+03  5.33514E+02 -5.72251E+03 -4.39163E+03  1.80391E+02 -6.04756E+03  3.71357E+03 -4.31411E+03
  4.81406E+03 -1.50325E+03  3.20513E+03  1.46139E+03  6.11318E+02  2.48070E+03  8.99489E+02  1.02394E+03
  1.59745E+03  9.29417E+02  2.13105E+03  1.39774E+03  2.03847E+03  2.80967E+03  1.91070E+03  3.45544E+03
 -1.72019E+03  5.11915E+03 -4.36227E+03  6.07791E+03 -6.84421E+03  1.59180E+03 -7.08389E+03 -2.27045E+03
 -4.33064E+03 -7.29502E+03  1.23255E+03 -7.77433E+03  4.24731E+03 -5.26468E+03  5.75307E+03 -1.02977E+03
  4.39155E+03  2.90883E+03  9.37908E+02  4.11993E+03 -1.62464E+03  2.92137E+03 -2.29393E+03 -6.04139E+01
 -1.91216E+03 -2.85358E+03  1.34976E+03 -2.85948E+03  2.60577E+03 -1.44869E+03  2.41987E+03  6.94944E+02
  1.38052E+03  1.36007E+03  8.57378E+02  3.66698E+02 -1.14261E+03  1.18907E+03  9.61727E+02 -5.93520E+02
  1.19631E+03 -6.12187E+02  2.57021E+03  5.61442E+02  1.18753E+03  3.52334E+03 -9.15589E+02  5.26372E+03
 -3.25185E+03  2.72868E+03 -3.96874E+03  3.96058E+02 -4.30533E+03 -1.61475E+03 -1.00193E+03 -1.45681E+03
  8.98536E+02 -1.57635E+03  1.99181E+03 -9.38380E+02  1.53910E+03  1.61644E+03 -9.96802E+02  2.24873E+03
 -3.15173E+03  9.68154E+02 -2.56252E+03 -2.51503E+03 -2.17863E+03 -3.96002E+03  4.18192E+02 -3.17167E+03
  1.54227E+03 -1.77366E+03  2.27782E+03  1.95097E+02  2.13001E+03  1.81305E+02 -1.31422E+02  1.71540E+03
 -6.73424E+02 -1.71911E+02 -1.30093E+03 -3.08929E+02  8.82055E+02 -2.30316E+03  3.66728E+03 -1.79740E+03
  2.91173E+03  1.71046E+02  3.62238E+03  2.07569E+03  9.53295E+02  4.36059E+03 -1.44068E+03  3.63686E+03
 -3.54699E+03  1.58350E+03 -3.01961E+03 -5.80849E+02 -1.36379E+03 -2.56880E+03  5.89477E+02 -1.67780E+03
  2.16568E+03 -1.58106E+03  1.28270E+03  1.01946E+03  5.99715E+02  2.53921E+03  1.04838E+02  2.19576E+03
 -1.26720E+03  1.23267E+03 -7.68269E+02  3.86390E+02 -1.66092E+02  4.05849E+01 -1.10439E+03  1.01573E+03
 -1.05099E+03  1.94681E+03 -3.52279E+03  6.36044E+02 -4.18557E+03 -3.16744E+02 -4.53924E+03 -1.91918E+03
 -2.71281E+03 -4.39937E+03  5.23534E+02 -4.86673E+03  2.62408E+03 -4.21214E+03  5.50266E+03 -1.82351E+03
  5.20681E+03  9.98487E+00  2.98444E+03  3.68558E+03 -3.48127E+02  3.28295E+03 -1.37010E+03  2.84430E+03
 -1.87662E+03  1.28499E+03 -7.04486E+02 -2.73270E+02 -3.50705E+02 -6.45550E+02 -8.26910E+02 -1.37574E+02
 -1.66092E+03  1.32114E+02 -1.16948E+03  3.27923E+02 -5.39544E+02 -1.20926E+03  1.44486E+02 -1.68410E+03
  1.53106E+03 -1.47944E+03  2.06258E+03  8.37748E+01  2.56727E+03  1.78552E+03 -1.59636E+02  3.46008E+03
 -1.81023E+03  4.14392E+03 -3.72224E+03  2.44130E+03 -3.81473E+03 -2.55129E+02 -2.37386E+03 -2.85113E+03
 -1.63177E+03 -2.67993E+03  3.62121E+02 -2.91229E+03  1.25116E+03 -1.43065E+03  1.45895E+03  3.18294E+02
  1.35103E+03  1.06281E+03 -2.97520E+02  1.19111E+03 -7.53481E+02  1.89594E+01 -4.99536E+02 -4.80756E+02
  5.78911E+02 -4.65727E+01  9.02449E+02  4.61426E+02 -2.33825E+02  3.01355E+02  3.25448E+02  1.74914E+03
 -9.59900E+02  1.57093E+03 -2.13612E+03  7.52557E+00 -1.47438E+03 -1.22888E+03 -3.62982E+02 -2.14773E+03
  7.86549E+02 -2.25737E+03  1.80508E+03 -4.16786E+02  2.33858E+03 -1.76615E+02  7.51693E+02  2.02526E+03
 -3.74403E+02  2.20914E+03 -8.13881E+02  1.69353E+03 -1.84750E+03  1.58332E+03 -9.10840E+02  4.29352E+02
 -6.16376E+02 -3.22714E+02 -1.25224E+03 -4.64964E+01 -1.30862E+03 -1.59890E+02 -1.03718E+03 -7.62805E+02
 -1.74379E+03 -3.80953E+02 -5.67283E+02 -2.23725E+03  9.02231E+02 -2.96888E+03  1.71496E+03 -8.56620E+02
  1.70751E+03  2.67295E+02  6.08197E+02  1.19519E+03  1.35883E+02  2.04481E+03 -7.66818E+02  1.13393E+03
