 $NMID ID='MM_0lb_SNR400_17hz_g50_33.RAW', FMTDAT='(8E13.5)'
 TRAMP=1., VOLUME=1. $END
  3.10068E+05  6.34224E+02  3.37325E+05  2.50234E+05  8.45362E+04  3.37105E+05 -1.32768E+05  2.50851E+05
 -1.90065E+05  8.26230E+04 -1.11057E+05 -3.31323E+04  1.47676E+03 -5.00697E+04  5.39740E+04  1.05949E+02
  3.50377E+04  5.27161E+04 -1.72955E+04  7.51295E+04 -6.10310E+04  6.27567E+04 -8.37084E+04  3.17312E+04
 -8.09822E+04 -1.12787E+04 -5.67094E+04 -5.05761E+04 -1.53804E+04 -6.89422E+04  2.72092E+04 -4.54131E+04
  3.92821E+04  4.30418E+03  1.56810E+04  4.75107E+04 -3.36957E+04  4.68081E+04 -6.57403E+04 -3.22970E+02
 -5.28987E+04 -5.68194E+04 -6.70947E+03 -7.63184E+04  3.35879E+04 -5.46891E+04  4.71183E+04 -1.66119E+04
  4.26938E+04  1.13074E+04  3.12763E+04  2.43791E+04  1.57236E+04  2.83070E+04 -5.04294E+03  2.71332E+04
 -2.16832E+04  1.24159E+04 -1.91510E+04 -4.31025E+03  4.95360E+03 -7.51257E+03  2.13908E+04  1.18741E+04
  6.93125E+03  3.44483E+04 -3.16751E+04  3.48868E+04 -6.18068E+04  1.97371E+03 -5.67046E+04 -4.18817E+04
 -1.19839E+04 -6.23817E+04  3.87791E+04 -4.39089E+04  5.69159E+04 -2.55522E+03  3.23383E+04  3.14666E+04
 -6.18107E+03  3.39794E+04 -2.89020E+04  1.44050E+04 -2.92571E+04 -4.77420E+03 -1.55090E+04 -1.08455E+04
 -8.06177E+03 -1.20197E+04 -1.31083E+03 -1.69981E+04  6.99254E+03 -2.28447E+04  1.56648E+04 -1.39284E+04
  1.18331E+04  4.24026E+03 -7.25883E+03  1.33380E+04 -2.00051E+04 -3.40225E+03 -7.93211E+03 -3.17103E+04
  2.15100E+04 -4.22586E+04  4.64804E+04 -1.92264E+04  4.39143E+04  1.85280E+04  1.44545E+04  4.27918E+04
 -1.53711E+04  3.17205E+04 -2.43523E+04  2.21239E+03 -9.05306E+03 -2.69283E+04  2.09637E+04 -3.24687E+04
  3.91992E+04 -8.41772E+03  3.29918E+04  2.28800E+04  1.62851E+04  4.42188E+04 -7.42842E+03  4.71078E+04
 -2.99185E+04  3.14092E+04 -3.97673E+04  8.69385E+03 -3.95560E+04 -1.58136E+04 -2.21316E+04 -3.62933E+04
  6.89821E+03 -3.52723E+04  2.98643E+04 -1.33871E+04  2.83643E+04  1.08100E+04  3.56856E+03  1.83323E+04
 -1.39297E+04  8.20724E+03 -9.99981E+03 -8.13654E+03  6.01761E+03 -1.06724E+04  1.74947E+04  5.52506E+03
  1.24864E+04  2.19694E+04 -6.09610E+03  2.42414E+04 -2.15235E+04  9.88134E+03 -2.58549E+04 -5.97714E+03
 -1.83002E+04 -1.70984E+04 -6.70163E+03 -1.82836E+04  4.02302E+03 -1.62997E+04  1.33715E+04 -1.57661E+04
  2.32932E+04 -1.18119E+04  2.97562E+04  1.33723E+03  2.23888E+04  1.80465E+04  4.40012E+03  3.44646E+04
 -1.65013E+04  2.87090E+04 -2.67010E+04  9.79748E+03 -1.99902E+04 -1.05749E+04 -3.98795E+03 -1.39449E+04
  2.35569E+03 -3.43937E+03 -3.60428E+03  6.25085E+03 -1.44634E+04  5.27703E+03 -1.49686E+04 -5.67540E+03
 -9.33871E+03 -1.69572E+04  4.68853E+03 -2.10417E+04  1.40099E+04 -1.53987E+04  1.60544E+04 -1.81849E+03
  1.01428E+04  1.14519E+04 -9.40209E+02  1.68034E+04 -1.19061E+04  9.30286E+03 -1.64806E+04 -3.40832E+03
 -1.24425E+04 -1.57258E+04 -1.26551E+03 -2.04912E+04  9.30000E+03 -1.62747E+04  1.71453E+04 -7.62617E+03
  1.55663E+04  5.31253E+02  1.15504E+04  4.40714E+03  5.89775E+03  3.73539E+02  8.75569E+03 -1.38633E+03
  1.51098E+04  2.41975E+03  1.68054E+04  1.38810E+04  1.09415E+04  2.67897E+04 -3.15688E+03  2.96127E+04
 -1.74908E+04  2.26080E+04 -2.72221E+04  1.05808E+04 -2.85389E+04 -1.91527E+03 -2.40690E+04 -1.64008E+04
 -1.12560E+04 -2.21718E+04  8.14316E+03 -2.13585E+04  1.80040E+04 -1.14772E+04  1.65558E+04  3.95563E+03
  6.99735E+03  1.28382E+04 -8.00026E+03  1.09068E+04 -1.45331E+04  2.46478E+03 -1.08665E+04 -8.12630E+03
 -2.74239E+02 -1.34691E+04  6.68957E+03 -9.97634E+03  9.10411E+03 -1.42930E+03  2.22282E+03  5.53279E+03
 -6.31155E+03  1.77958E+03 -4.80334E+03 -4.88122E+03  4.09126E+02 -1.15367E+04  8.88525E+03 -1.12583E+04
  1.36566E+04 -5.59026E+03  1.38825E+04  2.91013E+03  1.17648E+04  1.09159E+04  5.36108E+03  1.59756E+04
 -2.21231E+03  1.78459E+04 -1.11877E+04  1.15803E+04 -1.25018E+04  3.35196E+03 -9.80301E+03 -2.05990E+03
 -4.67088E+03 -3.67718E+03 -8.89597E+02  1.20580E+03 -2.67650E+03  2.09330E+03 -4.04515E+03  2.90866E+03
 -8.37680E+03 -6.42863E+02 -9.48136E+03 -7.51918E+03 -3.53998E+03 -1.28969E+04  4.00456E+03 -9.29029E+03
  7.81673E+03 -4.46695E+03  5.54150E+03  2.82556E+03  4.67861E+01  3.55680E+03 -4.03305E+03 -2.60341E+02
 -4.28159E+03 -5.59311E+03 -9.54080E+02 -8.61957E+03  4.53685E+03 -8.56238E+03  1.12017E+04 -4.73769E+03
  1.33647E+04  6.40879E+02  9.59302E+03  7.30578E+03  2.19609E+03  9.74789E+03 -6.19167E+03  9.24437E+03
 -7.89872E+03  3.17552E+03 -3.89092E+03 -1.71526E+03  1.76348E+03 -2.48576E+03  4.81720E+03 -3.59456E+02
  4.66613E+03  3.62207E+03  7.51586E+02  7.00482E+03 -5.02013E+03  7.06448E+03 -9.21381E+03  1.70863E+03
 -6.04260E+03 -3.94145E+03 -3.70524E+01 -7.31813E+03  4.49539E+03 -3.91036E+03  3.93939E+03  1.25413E+03
  1.23305E+02  3.68290E+03 -3.82423E+03  5.09264E+03 -5.54237E+03  3.14001E+03 -5.35275E+03 -1.35227E+03
 -3.42262E+03 -6.90896E+03  1.45731E+03 -8.14453E+03  7.33424E+03 -5.85167E+03  7.70927E+03  7.49206E+02
  5.90018E+03  5.77805E+03  3.82614E+02  9.10240E+03 -5.87640E+03  5.27367E+03 -6.17042E+03 -7.80240E+02
 -6.18947E+03 -5.47086E+03 -1.75586E+03 -5.08699E+03  3.13941E+03 -5.13599E+03  3.20098E+03 -3.37889E+03
  3.18287E+03  1.46964E+02 -2.51148E+02  1.48398E+03  5.65062E+02 -1.82760E+02  2.47178E+02 -2.10473E+03
  4.62587E+03 -1.61733E+03  6.55345E+03  7.39802E+02  6.64717E+03  4.00079E+03  6.09804E+03  8.57328E+03
 -1.66514E+03  1.03295E+04 -9.31922E+03  7.50763E+03 -1.18896E+04  1.82639E+03 -9.34041E+03 -3.62104E+03
 -5.29975E+03 -7.48317E+03 -8.08738E+02 -6.25654E+03  2.63238E+03 -2.80221E+03  1.40221E+03 -2.43795E+03
  1.90680E+03 -2.01967E+03  1.79961E+03 -2.88654E+03  3.46765E+03 -1.21872E+03  4.30808E+03  8.09609E+01
  5.78830E+03  1.52767E+03  1.83832E+03  3.97755E+03 -1.80293E+03  3.20122E+03 -5.04607E+03  3.21088E+03
 -5.56479E+03 -7.02813E+02 -2.61314E+03 -4.03974E+03  2.07652E+02 -5.69362E+03  3.44280E+03 -6.25451E+03
  6.34799E+03 -3.57928E+03  8.03405E+03 -5.66649E+01  6.20626E+03  4.34994E+03  1.05874E+03  6.96759E+03
 -2.79445E+03  7.31188E+03 -4.50876E+03  2.02788E+03 -2.97416E+03 -1.26907E+03 -5.32910E+02 -9.00457E+02
 -8.40958E+02  4.35837E+02 -1.45779E+03  1.51908E+03 -2.89279E+03  2.09806E+03 -5.17126E+03  2.59050E+01
 -2.31328E+03 -5.11161E+03  6.61377E+02 -5.56567E+03  3.34413E+03 -5.16350E+03  4.89753E+03 -1.35580E+03
  4.83295E+03  2.62138E+03  2.26212E+03  4.46248E+03 -8.00355E+02  5.58455E+03 -3.90737E+03  3.29442E+03
 -4.13043E+03  5.73380E+02 -4.30317E+03 -3.41321E+03 -2.10076E+02 -4.01756E+03  2.95653E+03 -2.86628E+03
  3.77494E+03 -8.18832E+02  2.09458E+03  4.03821E+02  7.27085E+01  2.08688E+03  9.82729E+02  6.59179E+02
  1.57197E+03  1.02214E+03  1.71895E+03  1.15166E+03  1.14858E+03  2.57336E+03  2.46579E+03  2.52455E+03
 -1.70349E+03  3.78419E+03 -3.38163E+03  4.94970E+03 -4.01454E+03  1.46655E+03 -5.45587E+03 -3.90071E+02
 -2.14020E+03 -4.54665E+03  8.13673E+02 -5.63505E+03  2.71576E+03 -3.46759E+03  3.44024E+03 -6.99124E+02
  3.40008E+03  2.39410E+03  1.95781E+02  2.64935E+03 -8.78646E+02  1.43019E+03 -1.80582E+03 -2.22925E+02
 -5.59146E+02 -1.98539E+03  1.52345E+03 -1.90435E+03  1.38044E+03 -6.33401E+02  2.20756E+03  7.31665E+01
  9.69245E+02  4.35144E+02  9.41136E+02 -8.16207E+01 -4.48477E+02  1.39950E+03  1.98429E+03 -4.21530E+02
  8.62615E+01 -7.83714E+02  1.92469E+03  3.08988E+02  4.62391E+02  3.58584E+03 -5.45597E+02  3.62991E+03
 -1.98710E+03  1.50402E+03 -2.50115E+03  7.49635E+02 -2.88992E+03 -1.38660E+03 -6.50340E+02 -1.55180E+03
  5.53039E+02 -1.65381E+03  1.40592E+03 -7.96544E+02  5.92208E+02  1.37144E+03 -7.72227E+02  1.07301E+03
 -2.25376E+03  9.72779E+02 -1.94142E+03 -1.29538E+03 -4.76926E+02 -2.46218E+03  6.70009E+02 -1.66860E+03
  1.27322E+03 -1.05802E+03  1.01030E+03  6.94067E+02  1.29291E+03  2.82893E+02  4.14223E+02  1.62770E+03
 -6.58038E+02  1.81107E+02 -1.65472E+03 -5.34876E+02  8.27613E+02 -1.25184E+03  2.34906E+03 -1.07294E+03
  2.15650E+03  1.07163E+03  3.13768E+03  1.10674E+03  1.33080E+03  2.36098E+03 -4.47760E+02  2.38439E+03
 -2.16705E+03  3.98676E+02 -1.89686E+03 -4.39389E+02 -1.15149E+03 -1.70372E+03  5.25609E+02 -2.67877E+02
  2.05563E+03 -1.25776E+03  9.68274E+02  8.28390E+02 -2.05667E+02  1.64255E+03  3.17869E+02  1.34337E+03
 -5.75020E+02  1.22071E+03 -7.44858E+02  3.29738E+02 -2.09820E+02  2.34734E+02 -5.52425E+02  9.77760E+02
 -7.93350E+02  8.37634E+02 -2.20551E+03  5.39817E+02 -1.88113E+03  5.07085E+02 -2.46713E+03 -1.55326E+03
 -1.86665E+03 -2.85166E+03  1.87162E+02 -3.15699E+03  1.57578E+03 -3.55697E+03  3.44375E+03 -9.48719E+02
  2.87487E+03 -4.88746E+01  1.68049E+03  2.08353E+03 -2.07340E+02  1.48637E+03 -6.35966E+02  2.07249E+03
 -1.43907E+03  7.57354E+02 -8.36601E+02 -2.02208E+02 -6.88085E+02 -1.45011E+02 -4.81470E+02 -1.65929E+02
 -1.42792E+03 -4.23045E+02 -7.84691E+02  2.54204E+02 -3.13092E+02 -4.34024E+02 -2.16738E+02 -1.08688E+03
  9.55385E+02 -8.55008E+02  1.04305E+03  1.10849E+01  1.62629E+03  1.33086E+03  6.03300E+01  2.01658E+03
 -1.49160E+03  2.63821E+03 -2.71690E+03  1.12781E+03 -2.90259E+03  9.38860E+01 -1.99177E+03 -1.42752E+03
 -9.61826E+02 -1.91312E+03  4.21988E+02 -1.98036E+03  7.65214E+02 -7.90273E+02  7.93567E+02  1.33724E+02
  7.33455E+02 -3.78735E+01 -4.77819E+01  3.31010E+02  5.57731E+01 -5.65518E+02  1.96345E+02 -4.37621E+00
  8.32842E+02  2.78312E+02  3.66506E+02  3.99349E+02  2.43354E+02  5.26086E+00  5.42177E+02  9.03467E+02
 -8.13865E+02  4.17215E+02 -9.55456E+02  2.02522E+02 -1.53832E+03 -9.29433E+02 -1.92845E+02 -1.97410E+03
  7.03738E+02 -9.69154E+02  9.42684E+02 -2.50386E+02  2.12926E+03 -6.85541E+02  7.78588E+02  2.27595E+02
  1.98895E+02  4.62588E+02 -2.70855E+02  2.56024E+02 -9.18829E+02  7.63711E+02 -8.09120E+02  4.38719E+02
 -6.69478E+02 -4.05295E+02 -5.06675E+02 -1.54667E+02 -7.75559E+02  4.79083E+02 -1.05233E+03 -4.54915E+02
 -1.32996E+03  2.95318E+02 -6.22947E+02 -1.66099E+03  9.06107E+02 -1.59087E+03  8.64794E+02 -1.81779E+02
  9.58843E+02  1.14660E+02 -4.84626E+02  5.06695E+02 -7.10784E+02  6.89120E+02 -1.26582E+03  1.11609E+03
