 $NMID ID='MM_0lb_SNR400_11hz_g55_44.RAW', FMTDAT='(8E13.5)'
 TRAMP=1., VOLUME=1. $END
  3.10115E+05  7.61154E+02  3.37801E+05  2.50700E+05  8.45572E+04  3.38336E+05 -1.33184E+05  2.52333E+05
 -1.90637E+05  8.37469E+04 -1.12309E+05 -3.25715E+04  1.19222E+03 -5.05142E+04  5.36298E+04 -7.86071E+02
  3.52571E+04  5.28541E+04 -1.69166E+04  7.59540E+04 -6.13164E+04  6.39898E+04 -8.47049E+04  3.23563E+04
 -8.18870E+04 -1.14659E+04 -5.83386E+04 -5.23440E+04 -1.46529E+04 -7.00419E+04  2.82505E+04 -4.64259E+04
  4.09133E+04  3.68057E+03  1.66934E+04  4.84899E+04 -3.51122E+04  4.77200E+04 -6.80251E+04  5.09676E+02
 -5.42720E+04 -5.69219E+04 -7.48902E+03 -7.95031E+04  3.46865E+04 -5.70275E+04  4.89502E+04 -1.73585E+04
  4.44369E+04  1.08126E+04  3.17024E+04  2.68172E+04  1.52358E+04  3.07525E+04 -5.75256E+03  2.66590E+04
 -2.22898E+04  1.20132E+04 -1.84568E+04 -5.30309E+03  6.70310E+03 -7.78233E+03  2.33556E+04  1.37885E+04
  7.35129E+03  3.68711E+04 -3.38325E+04  3.60544E+04 -6.52685E+04  1.78879E+03 -5.85691E+04 -4.43703E+04
 -1.24729E+04 -6.52452E+04  4.11147E+04 -4.75415E+04  6.00761E+04 -2.72729E+03  3.67742E+04  3.37485E+04
 -5.65525E+03  3.92856E+04 -3.09329E+04  1.87002E+04 -3.25671E+04 -3.32790E+03 -1.86387E+04 -1.11684E+04
 -8.99089E+03 -1.49971E+04  4.58354E+01 -1.88484E+04  8.24169E+03 -2.37867E+04  1.57389E+04 -1.26602E+04
  1.07635E+04  5.05323E+03 -9.81509E+03  1.29068E+04 -2.24867E+04 -6.77470E+03 -9.10200E+03 -3.59637E+04
  2.42347E+04 -4.52686E+04  5.10792E+04 -2.08488E+04  4.73043E+04  2.12258E+04  1.69103E+04  4.63715E+04
 -1.59857E+04  3.51275E+04 -2.72550E+04  1.94110E+03 -1.14565E+04 -2.91487E+04  2.04608E+04 -3.62689E+04
  4.37440E+04 -1.00616E+04  3.89161E+04  2.44417E+04  2.06250E+04  4.99559E+04 -8.67013E+03  5.44755E+04
 -3.48990E+04  3.73089E+04 -4.67436E+04  1.06182E+04 -4.61914E+04 -1.71088E+04 -2.54613E+04 -4.16246E+04
  7.22691E+03 -4.12028E+04  3.31026E+04 -1.64126E+04  3.08393E+04  1.11062E+04  5.00446E+03  2.03063E+04
 -1.45873E+04  8.49866E+03 -1.00717E+04 -7.48704E+03  5.45768E+03 -1.17010E+04  1.81004E+04  5.84155E+03
  1.43092E+04  2.22683E+04 -5.28042E+03  2.61599E+04 -2.24370E+04  1.37804E+04 -3.06821E+04 -3.71763E+03
 -2.35030E+04 -1.84150E+04 -1.06565E+04 -2.35484E+04  4.42927E+03 -2.36838E+04  1.87624E+04 -2.12736E+04
  3.07679E+04 -1.39019E+04  3.59750E+04  4.32126E+03  2.61763E+04  2.39508E+04  4.08074E+03  4.01269E+04
 -1.90969E+04  3.22452E+04 -2.94852E+04  1.08485E+04 -2.14283E+04 -1.05684E+04 -4.44490E+03 -1.23640E+04
  1.27533E+03 -1.37708E+03 -6.28636E+03  7.98985E+03 -1.95999E+04  4.98106E+03 -1.91816E+04 -9.19758E+03
 -1.10024E+04 -2.22777E+04  6.28442E+03 -2.62907E+04  1.73779E+04 -1.82958E+04  2.10086E+04 -1.94336E+03
  1.36883E+04  1.48558E+04 -1.27253E+03  2.18459E+04 -1.51203E+04  1.33915E+04 -2.16725E+04 -4.48419E+03
 -1.59247E+04 -1.97350E+04 -2.59218E+03 -2.68312E+04  1.15925E+04 -2.28566E+04  2.26182E+04 -1.15913E+04
  2.06805E+04 -1.76170E+02  1.48030E+04  4.44718E+03  8.24047E+03  1.01511E+03  1.22864E+04 -9.30593E+02
  2.09450E+04  3.41614E+03  2.23800E+04  1.65697E+04  1.57486E+04  3.54384E+04 -2.48825E+03  4.08135E+04
 -2.43045E+04  3.45284E+04 -3.91934E+04  1.78196E+04 -4.09870E+04 -3.19695E+03 -3.33186E+04 -2.36927E+04
 -1.33355E+04 -3.43733E+04  1.22246E+04 -2.98844E+04  2.58861E+04 -1.47545E+04  2.23674E+04  7.62272E+03
  7.77384E+03  1.76028E+04 -1.09919E+04  1.49358E+04 -1.86385E+04  2.90092E+03 -1.38275E+04 -1.16926E+04
 -4.18192E+02 -1.86127E+04  9.06695E+03 -1.29843E+04  1.22886E+04 -1.23404E+03  3.13426E+03  8.32152E+03
 -8.39053E+03  4.13915E+03 -7.84271E+03 -6.65458E+03 -1.91163E+03 -1.69354E+04  1.10687E+04 -1.77359E+04
  2.11196E+04 -1.00345E+04  2.42512E+04  3.68429E+03  2.09638E+04  1.67378E+04  9.30385E+03  2.69996E+04
 -4.76679E+03  2.77051E+04 -1.87568E+04  1.76792E+04 -2.07773E+04  3.31144E+03 -1.42186E+04 -4.37388E+03
 -5.51757E+03 -5.74027E+03 -6.08611E+01  3.06731E+02 -3.16950E+03  3.63854E+03 -6.59864E+03  4.56586E+03
 -1.22293E+04 -2.73587E+02 -1.38227E+04 -9.96113E+03 -5.59904E+03 -1.81150E+04  5.81664E+03 -1.41411E+04
  1.16875E+04 -6.06012E+03  8.22156E+03  3.77795E+03 -6.96108E+01  5.70212E+03 -7.25977E+03 -5.40300E+02
 -6.56916E+03 -9.01034E+03 -1.33028E+03 -1.37890E+04  8.29527E+03 -1.51925E+04  1.81836E+04 -7.51006E+03
  2.09866E+04  2.11889E+03  1.53113E+04  1.26832E+04  2.85371E+03  1.67851E+04 -8.07880E+03  1.39465E+04
 -1.17206E+04  4.24645E+03 -6.00171E+03 -3.00463E+03  2.25292E+03 -3.82438E+03  7.70780E+03 -1.19570E+03
  6.98485E+03  6.34212E+03  1.65945E+03  1.16938E+04 -7.97671E+03  1.09856E+04 -1.34717E+04  2.96237E+03
 -8.73398E+03 -7.72197E+03  1.04702E+01 -1.18665E+04  8.35045E+03 -6.42271E+03  7.79587E+03  2.33599E+03
  1.72131E+03  8.05859E+03 -7.55339E+03  9.83560E+03 -1.20257E+04  4.90306E+03 -1.11244E+04 -4.10386E+03
 -5.84411E+03 -1.46669E+04  2.85134E+03 -1.62058E+04  1.26842E+04 -9.74674E+03  1.38321E+04  2.63785E+03
  9.09697E+03  1.07233E+04 -1.57543E+03  1.39584E+04 -1.02803E+04  7.97171E+03 -1.06622E+04 -1.19139E+03
 -9.20655E+03 -9.64613E+03 -1.07082E+03 -1.04386E+04  5.64497E+03 -8.36309E+03  6.43560E+03 -2.77193E+03
  5.53180E+03  1.53962E+03 -1.09615E+03  1.52018E+03 -4.63348E+01 -3.39474E+03  1.82011E+03 -6.00555E+03
  9.87119E+03 -3.92444E+03  1.38681E+04  2.06309E+03  1.34381E+04  9.42754E+03  9.07961E+03  1.81688E+04
 -3.93571E+03  2.06356E+04 -1.75006E+04  1.48326E+04 -2.23875E+04  2.86395E+03 -1.75871E+04 -7.73285E+03
 -8.94957E+03 -1.43860E+04  1.75486E+02 -1.24846E+04  4.26313E+03 -6.33552E+03  4.23090E+03 -4.11985E+03
  3.31581E+03 -2.56145E+03  3.77264E+03 -4.38460E+03  5.13145E+03 -2.90455E+03  6.69787E+03 -1.38021E+03
  9.16737E+03  1.19527E+03  4.91743E+03  8.42838E+03 -2.04607E+03  9.20323E+03 -9.66012E+03  7.25831E+03
 -1.20537E+04 -9.72102E+02 -7.67480E+03 -8.47079E+03 -8.38907E+02 -1.35476E+04  7.68196E+03 -1.31356E+04
  1.38501E+04 -7.32557E+03  1.56888E+04  2.33533E+03  1.12572E+04  1.14500E+04  2.46967E+03  1.45413E+04
 -5.90086E+03  1.20727E+04 -8.91932E+03  3.79503E+03 -5.76624E+03 -1.74578E+03 -2.06658E+03 -2.19912E+03
 -1.52617E+03  6.74266E+01 -2.11001E+03  3.30804E+03 -5.80269E+03  2.34588E+03 -9.16846E+03 -1.22117E+03
 -5.14726E+03 -8.44665E+03  3.35509E+02 -1.21660E+04  7.47045E+03 -1.13587E+04  1.18756E+04 -3.78111E+03
  1.09608E+04  5.64291E+03  5.18615E+03  1.07762E+04 -2.41782E+03  1.25825E+04 -8.81410E+03  7.56487E+03
 -1.13948E+04  4.12574E+02 -8.57048E+03 -6.99520E+03 -2.12834E+02 -1.02020E+04  5.36723E+03 -7.08277E+03
  8.04981E+03 -2.60294E+03  5.86225E+03  1.24179E+03  1.68260E+03  3.97968E+03  1.42857E+03  1.87247E+03
  3.16118E+03  2.76722E+02  3.05213E+03  1.90768E+03  4.60651E+03  4.04943E+03  3.87132E+03  6.63534E+03
 -2.46078E+03  9.39734E+03 -8.86707E+03  9.70129E+03 -1.22186E+04  2.04252E+03 -1.21339E+04 -5.45212E+03
 -5.93335E+03 -1.17431E+04  2.09061E+03 -1.33361E+04  7.29532E+03 -8.39824E+03  9.29567E+03 -2.34585E+03
  7.80515E+03  3.48580E+03  1.44279E+03  6.94350E+03 -2.78999E+03  4.35210E+03 -4.27177E+03 -4.47941E+02
 -2.28079E+03 -4.62405E+03  3.57937E+03 -4.90073E+03  4.86933E+03 -2.38038E+03  4.81705E+03  8.58733E+02
  2.79691E+03  2.37031E+03  1.71913E+03  1.73800E+03 -3.64568E+02  1.66736E+03  1.36418E+03 -9.52637E+02
  9.93758E+02 -3.06322E+02  3.75594E+03  1.51003E+03  2.81489E+03  6.72203E+03 -3.12398E+02  8.72614E+03
 -5.51057E+03  5.43356E+03 -7.61028E+03  8.87752E+02 -6.68403E+03 -3.15378E+03 -2.75869E+03 -4.90600E+03
  1.27338E+03 -4.60525E+03  3.26010E+03 -2.09376E+03  2.40841E+03  2.65165E+03 -1.19521E+03  4.09449E+03
 -5.11909E+03  2.20501E+03 -5.28736E+03 -3.03518E+03 -2.51721E+03 -6.20713E+03  1.02254E+03 -6.51435E+03
  3.93987E+03 -3.45025E+03  4.51044E+03 -7.03265E+02  3.85230E+03  2.02122E+03 -1.69238E+01  3.48736E+03
 -2.03435E+03  5.31951E+02 -2.95461E+03 -1.56442E+03  8.66046E+02 -4.95195E+03  6.62179E+03 -3.12881E+03
  7.83932E+03  3.18175E+02  7.24366E+03  4.45038E+03  2.61948E+03  7.61186E+03 -2.93817E+03  6.77579E+03
 -6.23412E+03  3.42468E+03 -7.04016E+03 -8.61739E+02 -3.79962E+03 -5.30415E+03  2.08435E+03 -4.77365E+03
  5.10798E+03 -2.62308E+03  3.78125E+03  2.12582E+03  1.49939E+03  3.52896E+03 -4.16239E+01  4.46730E+03
 -2.07617E+03  2.47585E+03 -1.77837E+03  4.88043E+02 -1.66089E+01  1.07522E+03 -1.72143E+03  1.37627E+03
 -1.70544E+03  3.25683E+03 -5.74509E+03  2.69937E+03 -7.77334E+03  8.49203E+01 -8.31295E+03 -5.49654E+03
 -5.43451E+03 -1.01093E+04  2.30124E+03 -1.05591E+04  7.28321E+03 -9.06130E+03  1.06500E+04 -3.59311E+03
  9.66821E+03  1.83201E+03  5.81483E+03  6.91063E+03  6.19777E+02  7.76438E+03 -3.17033E+03  5.49858E+03
 -4.29077E+03  2.52956E+03 -2.95309E+03 -7.61159E+02 -1.16465E+03 -9.77257E+02 -7.28773E+02  1.27882E+02
 -1.67409E+03 -2.54004E+01 -2.55796E+03  1.24420E+02 -4.11744E+02 -1.98635E+03  1.96488E+02 -3.48548E+03
  4.16114E+03 -2.99075E+03  4.61049E+03 -1.88341E+01  5.15282E+03  4.59599E+03  8.79388E+02  7.42164E+03
 -3.88311E+03  9.08113E+03 -7.63367E+03  5.03028E+03 -9.18616E+03 -6.50134E+02 -7.71565E+03 -5.20213E+03
 -2.94078E+03 -7.80639E+03  2.01304E+03 -7.01988E+03  4.36450E+03 -3.82990E+03  5.15752E+03 -2.35847E+02
  2.52589E+03  2.92980E+03 -1.13482E+02  1.99200E+03 -1.37331E+03 -1.64808E+01 -3.18358E+02 -1.72140E+03
  2.15916E+03 -7.46796E+02  2.78809E+03  7.44544E+02  2.29708E+03  2.61255E+03  7.32404E+02  3.82910E+03
 -2.93831E+03  4.06226E+03 -5.06101E+03  1.38491E+02 -4.33119E+03 -3.37434E+03 -1.78714E+01 -6.03533E+03
  2.70686E+03 -5.83252E+03  5.63467E+03 -1.49259E+03  5.62555E+03  1.17666E+03  4.09502E+03  4.62061E+03
  8.08498E+02  4.17118E+03 -1.53084E+03  3.96446E+03 -3.46032E+03  3.05225E+03 -2.61384E+03  6.92494E+02
 -1.39641E+03 -2.37622E+01 -1.19330E+03  1.17454E+03 -2.36511E+03  6.55281E+02 -3.90003E+03 -7.02196E+02
 -3.84410E+03 -2.97410E+03 -9.86412E+02 -4.98018E+03  1.79284E+03 -6.00899E+03  4.56300E+03 -2.38402E+03
  4.70624E+03  5.01559E+02  2.57420E+03  2.73697E+03 -1.04875E+01  4.37139E+03 -3.20603E+03  2.82553E+03
