 $NMID ID='MM_0lb_SNR400_17hz_g45_31.RAW', FMTDAT='(8E13.5)'
 TRAMP=1., VOLUME=1. $END
  3.09938E+05 -5.29263E+01  3.37812E+05  2.50577E+05  8.48671E+04  3.37047E+05 -1.32419E+05  2.50612E+05
 -1.89490E+05  8.27134E+04 -1.11034E+05 -3.25226E+04  1.06566E+03 -4.99949E+04  5.37104E+04 -2.23022E+01
  3.52383E+04  5.31811E+04 -1.72949E+04  7.49866E+04 -6.06547E+04  6.25995E+04 -8.36591E+04  3.17997E+04
 -7.97240E+04 -1.16279E+04 -5.62778E+04 -5.05997E+04 -1.52840E+04 -6.82410E+04  2.65894E+04 -4.52768E+04
  3.96424E+04  3.77537E+03  1.60780E+04  4.70126E+04 -3.42044E+04  4.66951E+04 -6.56501E+04 -6.00258E+02
 -5.27290E+04 -5.63313E+04 -6.45941E+03 -7.56023E+04  3.35977E+04 -5.38493E+04  4.65004E+04 -1.65284E+04
  4.18544E+04  1.09834E+04  3.03183E+04  2.43011E+04  1.56089E+04  2.79857E+04 -4.45969E+03  2.70555E+04
 -2.17120E+04  1.28858E+04 -1.89251E+04 -4.53558E+03  4.87549E+03 -7.98195E+03  2.13779E+04  1.11596E+04
  7.49014E+03  3.37165E+04 -3.09916E+04  3.45482E+04 -6.11247E+04  2.60388E+03 -5.59742E+04 -4.11465E+04
 -1.25183E+04 -6.15572E+04  3.87278E+04 -4.35977E+04  5.59952E+04 -2.60109E+03  3.24591E+04  3.06544E+04
 -6.87731E+03  3.41801E+04 -2.84931E+04  1.37604E+04 -2.79010E+04 -5.25218E+03 -1.53099E+04 -9.91990E+03
 -7.33353E+03 -1.22326E+04 -1.04546E+03 -1.62195E+04  6.91952E+03 -2.30911E+04  1.46825E+04 -1.36082E+04
  1.23898E+04  4.48562E+03 -6.27913E+03  1.31049E+04 -1.94044E+04 -2.99414E+03 -8.03734E+03 -3.08506E+04
  2.16624E+04 -4.17247E+04  4.59875E+04 -1.89002E+04  4.31356E+04  1.90644E+04  1.47366E+04  4.22230E+04
 -1.58800E+04  3.18420E+04 -2.40224E+04  1.30350E+03 -8.71123E+03 -2.68989E+04  2.03309E+04 -3.20112E+04
  3.91874E+04 -8.29116E+03  3.29630E+04  2.31444E+04  1.57650E+04  4.36470E+04 -7.72154E+03  4.63149E+04
 -2.93196E+04  3.10905E+04 -3.89745E+04  8.07105E+03 -3.97124E+04 -1.51990E+04 -2.15739E+04 -3.49588E+04
  6.87893E+03 -3.49228E+04  3.03297E+04 -1.32134E+04  2.73799E+04  1.08223E+04  3.77612E+03  1.78997E+04
 -1.35777E+04  7.64847E+03 -9.76574E+03 -7.86828E+03  6.61247E+03 -1.01326E+04  1.75651E+04  6.33092E+03
  1.29165E+04  2.15562E+04 -6.70345E+03  2.35399E+04 -2.17781E+04  9.81389E+03 -2.59154E+04 -5.94596E+03
 -1.80932E+04 -1.62870E+04 -6.57666E+03 -1.78166E+04  3.98641E+03 -1.56116E+04  1.31369E+04 -1.55136E+04
  2.23098E+04 -1.14357E+04  2.95976E+04  1.45986E+03  2.23036E+04  1.68137E+04  3.67767E+03  3.35258E+04
 -1.66990E+04  2.84804E+04 -2.66324E+04  9.64006E+03 -1.99166E+04 -1.06665E+04 -4.15988E+03 -1.38007E+04
  2.34586E+03 -3.98481E+03 -3.11315E+03  5.69692E+03 -1.43456E+04  4.76886E+03 -1.43895E+04 -5.64484E+03
 -8.49749E+03 -1.65070E+04  5.67992E+03 -2.03996E+04  1.31015E+04 -1.50647E+04  1.55342E+04 -1.87336E+03
  9.47275E+03  1.15804E+04 -8.35048E+02  1.68404E+04 -1.11778E+04  9.08650E+03 -1.67645E+04 -3.80488E+03
 -1.26467E+04 -1.49532E+04 -1.19816E+03 -1.98417E+04  8.51412E+03 -1.64619E+04  1.67586E+04 -7.73654E+03
  1.51459E+04  4.74028E+02  1.13386E+04  3.76439E+03  5.40133E+03  2.06336E+02  8.35820E+03 -1.53062E+03
  1.49522E+04  2.75477E+03  1.56225E+04  1.28193E+04  1.01251E+04  2.55473E+04 -3.01966E+03  2.85124E+04
 -1.62480E+04  2.22236E+04 -2.64721E+04  1.07317E+04 -2.74494E+04 -1.60658E+03 -2.32031E+04 -1.56090E+04
 -1.00706E+04 -2.19698E+04  7.86208E+03 -2.02994E+04  1.79686E+04 -1.11349E+04  1.65911E+04  4.25234E+03
  6.89433E+03  1.16633E+04 -6.92210E+03  1.06354E+04 -1.39438E+04  1.98133E+03 -1.08035E+04 -8.99568E+03
  1.33907E+01 -1.32203E+04  6.66469E+03 -1.01001E+04  8.20539E+03 -1.60964E+03  1.54791E+03  4.77489E+03
 -5.69420E+03  1.57162E+03 -4.25684E+03 -4.61716E+03  4.52302E+02 -1.14067E+04  7.84521E+03 -1.06956E+04
  1.37225E+04 -5.75789E+03  1.33002E+04  2.54229E+03  1.21364E+04  1.02907E+04  5.66350E+03  1.53398E+04
 -2.58412E+03  1.72372E+04 -1.06821E+04  1.15228E+04 -1.24766E+04  3.35901E+03 -9.43493E+03 -2.43182E+03
 -4.52699E+03 -3.65492E+03 -6.94795E+02  1.22475E+03 -1.94222E+03  2.04701E+03 -4.34915E+03  3.82131E+03
 -8.50937E+03 -4.93226E+02 -9.16169E+03 -7.39312E+03 -3.84598E+03 -1.19373E+04  3.95320E+03 -9.45555E+03
  7.35894E+03 -4.34197E+03  6.07843E+03  2.69776E+03  7.84008E+02  3.62560E+03 -3.98929E+03  1.09300E+02
 -3.52971E+03 -5.73719E+03 -9.95855E+02 -7.96378E+03  4.52283E+03 -8.28593E+03  1.08934E+04 -4.64731E+03
  1.30111E+04  5.60727E+02  9.56794E+03  7.10656E+03  2.13480E+03  9.38642E+03 -5.58776E+03  8.74255E+03
 -7.80239E+03  2.84167E+03 -3.73729E+03 -1.48867E+03  1.02651E+03 -2.39597E+03  4.50319E+03 -4.26082E+02
  4.34455E+03  3.92721E+03  1.49876E+03  6.74771E+03 -4.91997E+03  7.10092E+03 -8.17636E+03  1.95440E+03
 -5.77319E+03 -3.93020E+03  2.40667E+02 -7.29244E+03  4.26522E+03 -3.84023E+03  4.22356E+03  1.40666E+03
  2.03997E+02  4.39000E+03 -4.65413E+03  5.48299E+03 -5.77763E+03  2.63017E+03 -5.42028E+03 -8.83848E+02
 -3.76153E+03 -6.86319E+03  8.07526E+02 -7.32738E+03  6.98752E+03 -5.50782E+03  7.35606E+03  1.25086E+03
  5.80046E+03  6.34862E+03 -6.84989E+02  7.87696E+03 -5.50714E+03  4.67667E+03 -5.92444E+03  3.16002E+02
 -5.90687E+03 -5.46182E+03 -1.43391E+03 -5.31170E+03  2.93005E+03 -5.09915E+03  3.24100E+03 -3.07829E+03
  3.09806E+03  5.37950E+02  5.07384E+02  1.48118E+03  4.46074E+02 -4.33540E+02  1.59867E+02 -2.02152E+03
  4.53513E+03 -1.09687E+03  6.39129E+03  9.07143E+02  6.93013E+03  4.21203E+03  5.91711E+03  8.67046E+03
 -2.08100E+03  1.01818E+04 -8.63907E+03  7.81454E+03 -1.13436E+04  1.30400E+03 -9.15534E+03 -3.05090E+03
 -4.40855E+03 -7.26131E+03 -1.84919E+02 -5.72907E+03  2.25329E+03 -2.49448E+03  2.12429E+03 -2.77079E+03
  1.34184E+03 -1.70646E+03  2.75417E+03 -2.49396E+03  3.66175E+03 -1.67245E+03  4.59420E+03  4.02693E+02
  5.38056E+03  1.19395E+03  1.46037E+03  3.39758E+03 -1.58644E+03  4.15464E+03 -5.86080E+03  3.05372E+03
 -5.98463E+03 -1.11887E+03 -2.67111E+03 -3.87877E+03 -1.22936E+02 -6.30306E+03  3.56521E+03 -6.41010E+03
  5.94018E+03 -4.01827E+03  8.24816E+03  5.97961E+01  5.73263E+03  5.19134E+03  1.02091E+03  6.89803E+03
 -2.56816E+03  6.63128E+03 -4.21282E+03  2.31825E+03 -2.25143E+03 -1.20439E+03 -6.42836E+02 -8.35752E+02
 -2.59695E+01  5.53543E+01 -8.46099E+02  2.22463E+03 -2.94648E+03  6.98631E+02 -4.30527E+03 -6.24886E+02
 -1.83119E+03 -4.89402E+03  5.63754E+02 -5.40119E+03  3.46933E+03 -5.17666E+03  4.95437E+03 -1.43006E+03
  5.35112E+03  2.61818E+03  2.64642E+03  4.06016E+03 -1.18714E+03  5.75005E+03 -3.34979E+03  3.54041E+03
 -4.87502E+03  1.57162E+02 -3.35358E+03 -2.94828E+03 -2.79367E+01 -3.88160E+03  2.12070E+03 -3.23856E+03
  3.29604E+03 -2.15039E+03  2.33092E+03  2.65169E+02  1.86565E+02  2.64765E+03  1.21910E+03  5.93716E+02
  1.56482E+03  1.20133E+03  8.85438E+02  7.81942E+02  1.84545E+03  2.05249E+03  1.36799E+03  2.33193E+03
 -1.17984E+03  3.49275E+03 -2.95714E+03  5.02314E+03 -3.78024E+03  1.47855E+03 -5.30091E+03 -3.31764E+02
 -2.26284E+03 -4.61826E+03  7.82934E+02 -5.16052E+03  2.92637E+03 -3.12701E+03  3.67494E+03 -1.27452E+03
  2.87432E+03  2.62650E+03  6.30873E+02  2.93334E+03 -1.32663E+03  7.00481E+02 -1.64185E+03 -3.62453E+02
 -1.19251E+03 -1.76282E+03  1.48383E+03 -1.55888E+03  1.60658E+03 -1.10395E+03  1.66426E+03 -4.95755E+00
  5.46920E+02  2.66557E+02  8.56238E+02 -1.23806E+02 -2.58828E+02  1.67383E+03  1.22912E+03 -4.19959E+02
 -3.84190E+02 -2.30379E+02  1.80017E+03  9.16097E+02  1.06585E+03  2.54631E+03 -1.24817E+02  3.28454E+03
 -2.46258E+03  1.31296E+03 -2.48661E+03  7.55706E+02 -2.10625E+03 -9.34662E+02 -1.93417E+02 -1.05575E+03
  1.70903E+02 -1.98341E+03  1.01348E+03 -8.79169E+02  7.26108E+02  1.43867E+03 -6.26605E+02  1.27615E+03
 -1.59334E+03  1.36017E+03 -1.53930E+03 -1.17843E+03 -1.54036E+03 -2.52989E+03  1.07565E+01 -2.23501E+03
  5.34160E+02 -8.38382E+02  1.17539E+03  3.21291E+02  1.75268E+03 -7.50334E+01  1.02606E+02  1.76790E+03
 -3.03546E+02 -1.17588E+02 -1.21302E+03 -3.51817E+02  4.23001E+02 -6.93531E+02  2.06250E+03 -9.27527E+02
  2.13535E+03  5.75408E+02  2.61439E+03  1.57711E+03  1.19179E+03  1.46928E+03 -5.18157E+02  3.38180E+03
 -2.13426E+03  2.13441E+02 -1.87418E+03 -3.86081E+02 -1.10528E+03 -1.85508E+03  5.55165E+02 -4.87430E+02
  1.11536E+03 -6.05777E+02  5.80195E+02  8.60518E+02  2.46552E+02  1.39454E+03  2.45954E+02  7.23061E+02
 -4.14662E+02  1.24248E+03 -6.77467E+02  4.70328E+02 -4.93742E+02  5.40725E+02 -1.14463E+03  5.01413E+02
 -1.13529E+03  1.80059E+03 -2.20330E+03  2.56698E+02 -2.69912E+03  3.07114E+02 -2.92041E+03 -1.43056E+03
 -1.21492E+03 -2.71568E+03  7.93331E+02 -3.63895E+03  1.91929E+03 -3.48936E+03  3.53023E+03 -1.87591E+03
  3.09454E+03 -2.30644E+02  1.23722E+03  2.77979E+03 -5.99183E+02  1.44005E+03 -6.06194E+02  5.35621E+02
 -1.49090E+03  1.13772E+03 -7.95169E+02 -5.31867E+02 -3.92198E+02  9.84028E+01 -5.08180E+02  7.07490E+01
 -1.02225E+03 -6.04497E+02 -7.22289E+02  5.84603E+02  3.99187E+02 -7.00819E+02 -3.87354E+02 -1.07969E+03
  1.09252E+03 -6.92868E+02  9.31678E+02  9.11577E+01  1.64312E+03  1.36519E+03 -5.33805E+02  1.55378E+03
 -9.63542E+02  2.34498E+03 -2.36004E+03  1.70503E+03 -2.47163E+03 -4.31844E+02 -1.47882E+03 -1.80533E+03
 -1.53432E+03 -1.56494E+03  4.06224E+02 -1.43631E+03  1.09361E+03 -8.81068E+02  8.64804E+02  4.51739E+02
  7.77349E+02  6.53069E+02  3.79756E+02  2.16504E+02  3.72300E+00 -1.33378E+02  8.61675E+01 -6.53306E+01
  4.91075E+02 -3.04686E+02  5.21936E+02  6.13355E+02  9.61883E+01  8.34701E+02 -2.29200E+02  6.54036E+02
 -6.34353E+02  8.00165E+02 -8.96389E+02 -3.53884E+02 -1.05697E+03 -1.06237E+03 -7.69447E+01 -1.50193E+03
  5.96890E+02 -1.53555E+03  6.55276E+02 -2.54715E+02  1.85573E+03 -7.28668E+02  6.67173E+02  1.14346E+03
  1.60535E+02  6.71262E+02 -4.97610E+02  6.67732E+02 -4.43071E+02  7.44079E+02 -5.63818E+02  1.77823E+02
 -1.37138E+02 -3.68527E+02 -3.86958E+02  4.85275E+02 -6.88995E+02  1.92968E+02 -2.75568E+02 -3.92718E+02
 -1.02705E+03  1.27528E+02 -9.89488E+02 -1.13193E+03  9.99683E+02 -1.79643E+03  2.06279E+02  1.81850E+02
  1.18744E+03 -1.55083E+02 -2.15322E+01  5.83276E+02 -1.78873E+02  1.39816E+03 -6.44885E+02  9.86605E+02
