 $NMID ID='MM_0lb_SNR400_9hz_g45_64.RAW', FMTDAT='(8E13.5)'
 TRAMP=1., VOLUME=1. $END
  3.09955E+05  3.35342E+02  3.38019E+05  2.50053E+05  8.53028E+04  3.38167E+05 -1.32770E+05  2.52408E+05
 -1.90975E+05  8.37757E+04 -1.12068E+05 -3.22643E+04  2.85177E+02 -5.08150E+04  5.38859E+04 -5.34330E+02
  3.56737E+04  5.27531E+04 -1.72817E+04  7.64639E+04 -6.12291E+04  6.47553E+04 -8.52283E+04  3.28539E+04
 -8.19176E+04 -1.19499E+04 -5.76893E+04 -5.19754E+04 -1.55048E+04 -7.14835E+04  2.81394E+04 -4.72751E+04
  4.08723E+04  3.93174E+03  1.68767E+04  4.92384E+04 -3.47762E+04  4.84673E+04 -6.76234E+04  2.77396E+02
 -5.41677E+04 -5.78700E+04 -7.03767E+03 -7.94407E+04  3.41690E+04 -5.62275E+04  4.97658E+04 -1.78293E+04
  4.45641E+04  1.14605E+04  3.23495E+04  2.67242E+04  1.53691E+04  3.01740E+04 -5.27981E+03  2.77747E+04
 -2.16503E+04  1.20848E+04 -1.82141E+04 -5.95649E+03  7.43243E+03 -7.68981E+03  2.36651E+04  1.29847E+04
  7.27367E+03  3.73824E+04 -3.36745E+04  3.78737E+04 -6.51574E+04  1.37748E+03 -5.78167E+04 -4.41092E+04
 -1.25738E+04 -6.47503E+04  4.13311E+04 -4.76438E+04  6.00850E+04 -2.20389E+03  3.66038E+04  3.37021E+04
 -6.46483E+03  3.86873E+04 -3.15934E+04  1.84421E+04 -3.33654E+04 -3.80667E+03 -1.87138E+04 -1.16575E+04
 -9.16521E+03 -1.47255E+04 -9.47514E+02 -1.95768E+04  8.06528E+03 -2.31546E+04  1.58229E+04 -1.19897E+04
  1.04974E+04  6.44014E+03 -9.83529E+03  1.29322E+04 -2.36184E+04 -6.08785E+03 -8.48598E+03 -3.71068E+04
  2.51259E+04 -4.68287E+04  5.15997E+04 -2.09457E+04  4.76351E+04  2.07807E+04  1.69520E+04  4.61382E+04
 -1.73867E+04  3.51762E+04 -2.79111E+04  2.60894E+03 -1.10375E+04 -3.00269E+04  2.12212E+04 -3.65254E+04
  4.45454E+04 -1.11884E+04  4.01631E+04  2.46537E+04  2.05035E+04  5.05452E+04 -9.47203E+03  5.56579E+04
 -3.51145E+04  3.73668E+04 -4.70582E+04  1.16429E+04 -4.63378E+04 -1.82132E+04 -2.48183E+04 -4.09300E+04
  7.81107E+03 -4.20067E+04  3.33346E+04 -1.69130E+04  3.20226E+04  1.15019E+04  5.00878E+03  2.01809E+04
 -1.39287E+04  9.72859E+03 -1.08568E+04 -6.43496E+03  5.95632E+03 -1.16061E+04  1.80620E+04  6.06937E+03
  1.46645E+04  2.33496E+04 -5.31667E+03  2.72026E+04 -2.22658E+04  1.33757E+04 -3.10075E+04 -3.32225E+03
 -2.45594E+04 -1.84613E+04 -1.12810E+04 -2.40944E+04  4.64577E+03 -2.49703E+04  1.87921E+04 -2.24837E+04
  3.11023E+04 -1.41799E+04  3.72446E+04  5.07542E+03  2.66566E+04  2.36768E+04  4.51415E+03  4.07491E+04
 -1.88724E+04  3.43589E+04 -3.01030E+04  1.19100E+04 -2.18118E+04 -1.02631E+04 -4.48879E+03 -1.29505E+04
  5.98660E+02 -1.05200E+03 -6.84708E+03  7.82658E+03 -1.98041E+04  4.60019E+03 -1.98702E+04 -9.20599E+03
 -1.14312E+04 -2.27132E+04  5.56087E+03 -2.77619E+04  1.86105E+04 -1.96786E+04  2.23883E+04 -2.04096E+03
  1.45657E+04  1.60290E+04 -9.30462E+02  2.37511E+04 -1.57646E+04  1.34143E+04 -2.21811E+04 -5.19039E+03
 -1.72914E+04 -2.11821E+04 -2.82419E+03 -2.77071E+04  1.21097E+04 -2.26346E+04  2.23751E+04 -1.15419E+04
  2.15923E+04 -3.28929E+02  1.55818E+04  4.93181E+03  8.74285E+03  6.29800E+02  1.21388E+04 -1.59190E+03
  2.17084E+04  2.99534E+03  2.51293E+04  1.82379E+04  1.72277E+04  3.68347E+04 -2.82023E+03  4.30090E+04
 -2.49022E+04  3.62997E+04 -4.03056E+04  1.91422E+04 -4.28879E+04 -3.07716E+03 -3.47898E+04 -2.63236E+04
 -1.42324E+04 -3.54939E+04  1.32213E+04 -3.19690E+04  2.72698E+04 -1.54518E+04  2.45153E+04  7.72970E+03
  8.58303E+03  1.84722E+04 -1.18966E+04  1.49336E+04 -2.00838E+04  2.06495E+03 -1.53334E+04 -1.35974E+04
 -3.07510E+02 -1.90480E+04  1.00640E+04 -1.47124E+04  1.30509E+04 -6.24141E+02  3.11782E+03  9.45523E+03
 -8.89057E+03  4.67250E+03 -9.04068E+03 -6.87648E+03 -2.14005E+03 -1.72823E+04  1.18831E+04 -1.96790E+04
  2.19335E+04 -1.06076E+04  2.47131E+04  2.55346E+03  2.28915E+04  1.77362E+04  1.12668E+04  2.83185E+04
 -6.23449E+03  3.01187E+04 -2.00011E+04  1.83929E+04 -2.24464E+04  4.41871E+03 -1.52410E+04 -5.86803E+03
 -6.42914E+03 -6.92419E+03 -9.86998E+02  7.41790E+01 -3.16610E+03  4.19046E+03 -6.85931E+03  5.46075E+03
 -1.38857E+04 -8.71276E+02 -1.50059E+04 -1.11679E+04 -5.41849E+03 -1.86861E+04  5.94906E+03 -1.57424E+04
  1.18394E+04 -6.25664E+03  9.57315E+03  4.10956E+03 -7.38916E+02  5.68316E+03 -7.21596E+03 -5.11027E+02
 -7.42127E+03 -1.00735E+04 -1.10531E+03 -1.52869E+04  8.47998E+03 -1.61688E+04  1.91768E+04 -8.21879E+03
  2.28255E+04  3.03842E+03  1.63135E+04  1.49355E+04  3.03005E+03  1.85675E+04 -9.19732E+03  1.48043E+04
 -1.17486E+04  4.55202E+03 -6.42057E+03 -3.19847E+03  2.09486E+03 -4.94734E+03  7.23258E+03 -9.31903E+02
  7.13989E+03  6.97508E+03  7.38706E+02  1.15617E+04 -8.64227E+03  1.19346E+04 -1.50473E+04  2.49423E+03
 -9.96469E+03 -7.23421E+03  5.51201E+02 -1.27903E+04  8.23406E+03 -6.27610E+03  9.11222E+03  3.18157E+03
  2.74262E+03  9.47891E+03 -8.48287E+03  1.18568E+04 -1.26172E+04  5.21033E+03 -1.41654E+04 -5.25995E+03
 -8.01800E+03 -1.49650E+04  3.88004E+03 -1.78977E+04  1.50074E+04 -1.06247E+04  1.61824E+04  2.73971E+03
  9.21882E+03  1.33154E+04 -1.26510E+03  1.61747E+04 -1.12665E+04  8.92207E+03 -1.23840E+04 -5.59881E+02
 -1.10900E+04 -1.00863E+04 -1.10846E+03 -1.19103E+04  5.80070E+03 -9.32846E+03  7.31192E+03 -3.72672E+03
  5.60479E+03  2.65475E+03 -8.75764E+02  2.20261E+03 -1.08232E+03 -3.29412E+03  2.88600E+03 -6.95705E+03
  1.13069E+04 -4.47880E+03  1.59371E+04  2.46182E+03  1.55859E+04  1.04701E+04  9.20879E+03  2.02776E+04
 -4.98647E+03  2.32796E+04 -1.85385E+04  1.71201E+04 -2.55120E+04  3.91776E+03 -1.97994E+04 -8.25742E+03
 -9.97541E+03 -1.68692E+04 -2.33805E+02 -1.37281E+04  5.35588E+03 -7.73100E+03  5.21014E+03 -6.12854E+03
  3.76306E+03 -3.74923E+03  4.57562E+03 -3.78632E+03  5.12303E+03 -3.74825E+03  7.62221E+03 -1.27564E+03
  1.10971E+04  2.45970E+03  6.00688E+03  9.51623E+03 -2.88479E+03  1.07359E+04 -1.15396E+04  9.02296E+03
 -1.43654E+04 -8.87673E+02 -8.77734E+03 -9.75682E+03 -1.56498E+03 -1.55850E+04  8.64888E+03 -1.52857E+04
  1.59179E+04 -8.65608E+03  1.91057E+04  2.75209E+03  1.37756E+04  1.35504E+04  2.49041E+03  1.82324E+04
 -7.23040E+03  1.40544E+04 -1.03864E+04  5.09610E+03 -6.69322E+03 -1.20708E+03 -3.51447E+03 -3.32046E+03
 -1.83607E+03  1.88466E+02 -2.54673E+03  3.35160E+03 -5.72506E+03  2.72183E+03 -9.99268E+03 -1.18749E+03
 -7.27329E+03 -9.03780E+03 -1.79658E+01 -1.45010E+04  9.25601E+03 -1.36836E+04  1.46775E+04 -3.59766E+03
  1.36882E+04  6.42042E+03  6.49944E+03  1.30054E+04 -3.03318E+03  1.48209E+04 -9.87237E+03  8.83478E+03
 -1.35597E+04  6.14088E+02 -1.00424E+04 -8.42634E+03 -7.13607E+02 -1.20723E+04  6.35864E+03 -9.42997E+03
  9.06959E+03 -2.28100E+03  6.50701E+03  2.08909E+03  2.23717E+03  4.70671E+03  1.22255E+03  1.92010E+03
  1.67146E+03  1.08383E+03  3.96627E+03  1.32097E+03  4.12582E+03  4.45961E+03  3.22860E+03  7.48253E+03
 -3.59685E+03  1.13094E+04 -9.98748E+03  1.19288E+04 -1.52722E+04  3.21333E+03 -1.52105E+04 -6.90156E+03
 -6.53246E+03 -1.44064E+04  2.33403E+03 -1.66422E+04  9.24031E+03 -1.08584E+04  1.20218E+04 -2.12504E+03
  8.92163E+03  5.57924E+03  1.87746E+03  8.93488E+03 -3.79558E+03  5.45897E+03 -5.36512E+03 -1.19130E+03
 -2.64498E+03 -6.01081E+03  3.44405E+03 -6.12074E+03  5.74064E+03 -3.08490E+03  4.96502E+03  1.72016E+03
  3.84580E+03  3.26669E+03  1.84114E+03  2.61030E+03 -8.94016E+02  1.34345E+03  1.62370E+03 -1.10025E+03
  2.68904E+03 -9.60558E+02  5.11857E+03  1.85851E+03  3.18409E+03  8.18515E+03 -1.32197E+03  9.72520E+03
 -7.81101E+03  6.85374E+03 -9.59565E+03  1.66562E+03 -7.81677E+03 -3.59031E+03 -3.51898E+03 -4.68220E+03
  2.56921E+02 -5.67197E+03  3.81809E+03 -2.46060E+03  3.06149E+03  3.36377E+03 -1.37293E+03  4.58082E+03
 -6.02806E+03  2.47725E+03 -7.32272E+03 -3.16226E+03 -4.08294E+03 -7.68203E+03  6.45654E+02 -8.35645E+03
  4.20260E+03 -4.44436E+03  6.45882E+03 -1.04234E+03  5.45014E+03  1.66029E+03  5.62612E+02  4.67303E+03
 -2.57239E+03  1.38721E+03 -3.42530E+03 -2.85136E+03  1.42426E+03 -6.03209E+03  7.66902E+03 -5.40469E+03
  9.20628E+03  8.23885E+02  9.29965E+03  6.27889E+03  2.87109E+03  1.06840E+04 -3.33254E+03  9.59329E+03
 -7.56330E+03  3.31355E+03 -8.51151E+03 -1.59803E+03 -4.24258E+03 -6.27774E+03  1.26855E+03 -6.94646E+03
  6.25606E+03 -2.95090E+03  4.80672E+03  3.05458E+03  2.44159E+03  5.70544E+03 -4.51174E+02  5.08139E+03
 -2.19882E+03  3.34189E+03 -2.19674E+03  2.01804E+02 -5.86318E+02  5.56626E+02 -1.51319E+03  1.69740E+03
 -3.02230E+03  3.90539E+03 -6.27922E+03  3.16498E+03 -1.03493E+04 -1.88535E+02 -1.06074E+04 -6.67772E+03
 -5.86591E+03 -1.29011E+04  2.22756E+03 -1.50661E+04  9.87456E+03 -1.19631E+04  1.44224E+04 -4.42710E+03
  1.32819E+04  2.31661E+03  7.34578E+03  8.57923E+03  6.15893E+02  1.05975E+04 -3.01860E+03  8.20103E+03
 -5.79296E+03  2.99215E+03 -3.09531E+03 -7.54802E+02 -1.13552E+03 -1.61786E+03 -3.92900E+02 -9.48419E+01
 -2.18771E+03  9.54548E+02 -2.21762E+03 -2.16449E+02 -4.79805E+02 -3.33638E+03  4.66197E+02 -4.02980E+03
  4.80085E+03 -2.69405E+03  5.51647E+03  4.84416E+02  6.36521E+03  5.62623E+03  1.86679E+03  9.90898E+03
 -4.44427E+03  1.23518E+04 -1.02714E+04  7.07773E+03 -1.25361E+04 -7.78377E+02 -9.12296E+03 -7.54122E+03
 -3.63589E+03 -1.02285E+04  1.87000E+03 -9.39578E+03  7.44502E+03 -4.76953E+03  6.76441E+03  5.08622E+02
  3.48325E+03  2.62512E+03 -7.73321E+02  2.50158E+03 -1.60510E+03  2.74768E+02 -8.53923E+02 -2.02114E+03
  3.40930E+03 -1.55778E+03  3.85221E+03  1.42232E+03  2.91969E+03  5.22330E+03 -4.64432E+02  5.77673E+03
 -3.74362E+03  4.84740E+03 -7.29805E+03  5.75455E+02 -6.67614E+03 -4.43870E+03 -1.75344E+03 -8.55453E+03
  4.93399E+03 -6.84007E+03  7.79433E+03 -2.12232E+03  8.13020E+03  2.18761E+03  4.95398E+03  6.21002E+03
  1.08214E+03  6.43726E+03 -2.89259E+03  5.14870E+03 -4.52655E+03  3.21689E+03 -4.30411E+03  9.44408E+02
 -2.35433E+03 -4.21413E+02 -2.18720E+03  1.58402E+03 -3.48215E+03  8.14693E+02 -5.24452E+03 -1.31100E+03
 -4.57593E+03 -3.45705E+03 -5.80000E+02 -7.25241E+03  3.04784E+03 -7.71791E+03  6.45358E+03 -4.30202E+03
  7.35896E+03  1.38197E+03  4.14190E+03  4.98183E+03 -1.16276E+03  6.99117E+03 -4.74419E+03  4.58455E+03
