 $NMID ID='MM_0lb_SNR400_9hz_g50_70.RAW', FMTDAT='(8E13.5)'
 TRAMP=1., VOLUME=1. $END
  3.10452E+05  4.54227E+02  3.38217E+05  2.51571E+05  8.43944E+04  3.38356E+05 -1.33736E+05  2.52035E+05
 -1.90731E+05  8.38397E+04 -1.12128E+05 -3.18308E+04  2.37187E+02 -5.02056E+04  5.36020E+04 -6.17808E+02
  3.58449E+04  5.36559E+04 -1.59758E+04  7.58571E+04 -6.12207E+04  6.49695E+04 -8.54155E+04  3.25943E+04
 -8.33975E+04 -1.23789E+04 -5.76148E+04 -5.27315E+04 -1.51187E+04 -7.05276E+04  2.78563E+04 -4.67746E+04
  4.09719E+04  3.74665E+03  1.64730E+04  4.84814E+04 -3.50880E+04  4.80937E+04 -6.84789E+04 -2.50860E+02
 -5.48202E+04 -5.82056E+04 -8.10417E+03 -7.87328E+04  3.48466E+04 -5.66880E+04  4.89572E+04 -1.76833E+04
  4.41962E+04  1.21492E+04  3.32839E+04  2.66266E+04  1.62624E+04  3.02174E+04 -6.57495E+03  2.77629E+04
 -2.20729E+04  1.18968E+04 -1.85255E+04 -6.14658E+03  7.11918E+03 -7.43198E+03  2.34647E+04  1.36649E+04
  7.23623E+03  3.69959E+04 -3.36309E+04  3.70577E+04 -6.54652E+04  2.55014E+03 -5.89950E+04 -4.48644E+04
 -1.29971E+04 -6.61440E+04  4.12153E+04 -4.82130E+04  6.11881E+04 -2.27389E+03  3.71333E+04  3.36451E+04
 -5.65062E+03  3.93600E+04 -3.17246E+04  1.93735E+04 -3.35579E+04 -3.63903E+03 -1.86035E+04 -1.16823E+04
 -9.65306E+03 -1.46743E+04 -3.01859E+02 -1.94152E+04  8.57501E+03 -2.31344E+04  1.69631E+04 -1.18215E+04
  1.05179E+04  6.26169E+03 -1.09569E+04  1.23931E+04 -2.35842E+04 -6.96649E+03 -9.07708E+03 -3.69024E+04
  2.48633E+04 -4.64276E+04  5.20090E+04 -2.09497E+04  4.85870E+04  2.05815E+04  1.66708E+04  4.73335E+04
 -1.70770E+04  3.55394E+04 -2.84217E+04  3.09342E+03 -1.18154E+04 -2.89810E+04  2.10537E+04 -3.77458E+04
  4.50157E+04 -1.14281E+04  3.98632E+04  2.52478E+04  2.12396E+04  5.10859E+04 -8.01581E+03  5.63671E+04
 -3.47819E+04  3.81575E+04 -4.78509E+04  1.14900E+04 -4.80524E+04 -1.74718E+04 -2.64688E+04 -4.23382E+04
  7.87011E+03 -4.17477E+04  3.38491E+04 -1.62200E+04  3.22184E+04  1.20312E+04  4.83603E+03  2.09068E+04
 -1.40823E+04  9.81207E+03 -1.09523E+04 -7.64672E+03  6.03203E+03 -1.11432E+04  1.86439E+04  4.74434E+03
  1.41009E+04  2.28220E+04 -4.98084E+03  2.71477E+04 -2.37366E+04  1.30540E+04 -3.23765E+04 -2.25138E+03
 -2.59788E+04 -1.91943E+04 -1.17074E+04 -2.48435E+04  3.54731E+03 -2.56274E+04  2.02636E+04 -2.24793E+04
  3.17387E+04 -1.34663E+04  3.81225E+04  5.68554E+03  2.71920E+04  2.41245E+04  4.14764E+03  4.18057E+04
 -1.92246E+04  3.32944E+04 -3.06569E+04  1.10921E+04 -2.20350E+04 -1.01367E+04 -5.36244E+03 -1.30980E+04
 -1.12751E+02 -2.40842E+03 -6.76373E+03  8.62599E+03 -2.07705E+04  5.81253E+03 -1.96961E+04 -9.68764E+03
 -1.19054E+04 -2.27584E+04  5.97610E+03 -2.76787E+04  1.91368E+04 -2.00482E+04  2.21649E+04 -1.90639E+03
  1.49431E+04  1.62735E+04 -1.74869E+03  2.33679E+04 -1.60091E+04  1.35949E+04 -2.30144E+04 -5.99797E+03
 -1.80947E+04 -2.08779E+04 -2.85325E+03 -2.77010E+04  1.24631E+04 -2.30488E+04  2.29321E+04 -1.23061E+04
  2.17899E+04 -8.16051E+02  1.64209E+04  5.20472E+03  8.76329E+03  1.08377E+03  1.16659E+04 -2.87852E+03
  2.23024E+04  3.46042E+03  2.60008E+04  1.84212E+04  1.71937E+04  3.80973E+04 -2.58090E+03  4.47649E+04
 -2.46688E+04  3.72862E+04 -4.16564E+04  1.83287E+04 -4.50094E+04 -3.39889E+03 -3.62562E+04 -2.63629E+04
 -1.40341E+04 -3.68852E+04  1.29563E+04 -3.28007E+04  2.75068E+04 -1.41511E+04  2.41101E+04  7.76260E+03
  7.68283E+03  1.84019E+04 -1.12664E+04  1.54497E+04 -2.03123E+04  2.50611E+03 -1.53107E+04 -1.31897E+04
 -9.48091E+02 -1.98346E+04  1.00910E+04 -1.39975E+04  1.30163E+04 -1.85461E+03  3.14933E+03  8.85018E+03
 -8.23567E+03  3.87570E+03 -9.92343E+03 -6.22435E+03 -1.98706E+03 -1.81672E+04  1.21420E+04 -1.93156E+04
  2.33578E+04 -1.04457E+04  2.59123E+04  4.12949E+03  2.29782E+04  1.85165E+04  1.04608E+04  2.91901E+04
 -5.82142E+03  3.18590E+04 -2.06825E+04  1.87381E+04 -2.22585E+04  3.56611E+03 -1.58118E+04 -5.67912E+03
 -6.46173E+03 -6.21018E+03 -9.76841E+02  5.93628E+02 -3.31263E+03  3.60377E+03 -6.44343E+03  5.14436E+03
 -1.45009E+04 -8.95058E+02 -1.45749E+04 -1.12841E+04 -6.30444E+03 -1.93387E+04  6.49235E+03 -1.57035E+04
  1.29909E+04 -6.15355E+03  8.71440E+03  4.10724E+03 -4.42406E+02  6.83951E+03 -7.45907E+03  3.75750E+02
 -7.31698E+03 -9.79258E+03 -1.48893E+03 -1.52085E+04  8.58641E+03 -1.61909E+04  2.04327E+04 -8.74000E+03
  2.38037E+04  2.86018E+03  1.72220E+04  1.45423E+04  3.94882E+03  1.92465E+04 -1.01869E+04  1.54098E+04
 -1.26470E+04  3.92023E+03 -6.90133E+03 -3.19042E+03  2.28900E+03 -3.08986E+03  8.08311E+03 -4.01316E+02
  7.74404E+03  7.53943E+03  1.07754E+03  1.18901E+04 -9.13652E+03  1.23605E+04 -1.57069E+04  3.49005E+03
 -1.02296E+04 -8.29273E+03  3.12436E+02 -1.30470E+04  8.39296E+03 -7.50660E+03  9.37164E+03  3.15317E+03
  1.68435E+03  1.00998E+04 -8.42966E+03  1.16979E+04 -1.36559E+04  4.56484E+03 -1.47459E+04 -5.29068E+03
 -8.94259E+03 -1.61439E+04  3.53293E+03 -1.77202E+04  1.52710E+04 -1.03049E+04  1.73538E+04  2.41389E+03
  9.52475E+03  1.31935E+04 -1.43918E+03  1.59348E+04 -1.13179E+04  9.38806E+03 -1.32944E+04 -1.26951E+03
 -1.12903E+04 -9.79541E+03 -1.37343E+03 -1.17718E+04  6.26876E+03 -9.14161E+03  8.75313E+03 -3.22305E+03
  5.23426E+03  1.99039E+03 -9.75329E+02  2.20888E+03 -5.50170E+02 -3.41498E+03  3.30914E+03 -7.38163E+03
  1.06598E+04 -5.57579E+03  1.59911E+04  2.08986E+03  1.57929E+04  1.07584E+04  9.91440E+03  2.08056E+04
 -4.92634E+03  2.39011E+04 -2.00617E+04  1.77355E+04 -2.59791E+04  2.58743E+03 -2.11367E+04 -8.58237E+03
 -1.07387E+04 -1.77049E+04  6.34265E+02 -1.49813E+04  4.40764E+03 -8.82535E+03  4.19608E+03 -4.11245E+03
  4.24929E+03 -2.80010E+03  4.68596E+03 -4.02456E+03  6.14896E+03 -3.43350E+03  7.99576E+03 -1.37851E+03
  1.11864E+04  2.75034E+03  6.22124E+03  9.07410E+03 -1.62496E+03  1.09352E+04 -1.13443E+04  8.82598E+03
 -1.40698E+04 -1.99764E+03 -9.88735E+03 -1.07623E+04 -1.63283E+03 -1.56804E+04  8.58564E+03 -1.61990E+04
  1.71673E+04 -8.42267E+03  1.91399E+04  2.42067E+03  1.26923E+04  1.39654E+04  2.59453E+03  1.70333E+04
 -7.58267E+03  1.43820E+04 -1.01587E+04  5.10821E+03 -8.06551E+03 -1.16713E+03 -2.73910E+03 -1.76762E+03
 -1.39201E+03 -3.18005E+02 -3.07869E+03  2.77595E+03 -5.28676E+03  3.43622E+03 -9.53384E+03 -1.28286E+03
 -7.03249E+03 -1.05394E+04 -3.35777E+02 -1.47508E+04  8.96172E+03 -1.27885E+04  1.47766E+04 -4.79442E+03
  1.42866E+04  6.83941E+03  7.15284E+03  1.29073E+04 -2.47805E+03  1.55704E+04 -1.11531E+04  9.37320E+03
 -1.37751E+04  4.93179E+02 -1.12973E+04 -8.94660E+03 -1.49287E+03 -1.20971E+04  6.35683E+03 -9.73749E+03
  9.59009E+03 -3.16298E+03  6.46644E+03  2.78896E+03  3.21358E+03  3.99598E+03  1.17170E+03  1.94391E+03
  2.92389E+03  2.33077E+03  3.95521E+03  2.43193E+03  4.07484E+03  4.62159E+03  4.43141E+03  7.89697E+03
 -2.48123E+03  1.21282E+04 -1.09188E+04  1.13279E+04 -1.55100E+04  3.43777E+03 -1.55826E+04 -6.53782E+03
 -7.30920E+03 -1.50151E+04  2.75311E+03 -1.62516E+04  9.11501E+03 -1.08839E+04  1.24028E+04 -3.14838E+03
  9.58795E+03  4.83603E+03  2.37727E+03  8.84767E+03 -4.31707E+03  5.57318E+03 -6.25282E+03 -1.26122E+03
 -2.48466E+03 -6.59222E+03  3.60735E+03 -6.05547E+03  6.46386E+03 -2.50908E+03  7.01237E+03  1.14351E+03
  3.82899E+03  3.51735E+03  2.03903E+03  2.81863E+03 -1.41327E+03  1.77219E+03  1.91916E+03 -8.00279E+02
  2.50965E+03 -1.07353E+03  6.87917E+03  2.77134E+03  3.71716E+03  8.38185E+03 -1.99364E+03  1.11455E+04
 -7.27698E+03  6.83152E+03 -1.03535E+04  1.39390E+03 -8.12430E+03 -2.72562E+03 -3.51670E+03 -5.69733E+03
  1.12720E+03 -6.19900E+03  4.27118E+03 -2.41913E+03  3.21224E+03  3.29975E+03 -1.84351E+03  4.66371E+03
 -6.36436E+03  3.03446E+03 -7.55203E+03 -3.14518E+03 -4.11697E+03 -8.23146E+03  1.06910E+03 -9.29848E+03
  4.79801E+03 -4.47675E+03  6.13776E+03 -1.88581E+02  5.29769E+03  2.80919E+03  6.86741E+02  5.26349E+03
 -2.44176E+03  1.66410E+03 -3.96352E+03 -3.11968E+03  2.49975E+03 -6.71943E+03  7.50505E+03 -5.65004E+03
  9.68145E+03  5.75449E+02  9.73167E+03  7.64153E+03  2.85172E+03  1.07599E+04 -4.15578E+03  8.98494E+03
 -8.59802E+03  3.69544E+03 -7.80804E+03 -1.16507E+03 -4.52365E+03 -7.01089E+03  1.72434E+03 -5.37671E+03
  6.26911E+03 -3.42462E+03  4.72855E+03  2.73516E+03  1.52264E+03  5.82256E+03 -1.03006E+03  4.31163E+03
 -2.94687E+03  2.87686E+03 -2.33552E+03  1.20853E+03 -1.46276E+03  6.41807E+02 -1.09994E+03  2.92801E+03
 -2.94153E+03  3.55464E+03 -6.76528E+03  4.20990E+03 -1.02190E+04 -3.03858E+01 -1.13879E+04 -6.85029E+03
 -5.92379E+03 -1.37100E+04  2.65706E+03 -1.47889E+04  9.32707E+03 -1.23578E+04  1.38334E+04 -4.91870E+03
  1.27786E+04  2.83337E+03  8.56227E+03  8.96814E+03  8.77865E+02  1.12154E+04 -4.14358E+03  8.08417E+03
 -6.02536E+03  2.16207E+03 -3.95889E+03 -1.05110E+03 -6.88097E+02 -1.25493E+03 -1.13909E+03 -4.33100E+02
 -1.70877E+03 -6.87120E+01 -2.27297E+03 -5.92752E+02 -9.91602E+02 -2.18039E+03 -1.43413E+03 -3.91240E+03
  4.15378E+03 -3.47227E+03  6.49127E+03 -2.62598E+02  6.77978E+03  4.85685E+03  2.15058E+03  1.15527E+04
 -4.48124E+03  1.22233E+04 -1.12238E+04  6.95648E+03 -1.23914E+04 -1.33793E+03 -1.02926E+04 -7.41888E+03
 -4.06788E+03 -1.06169E+04  2.72204E+03 -1.03448E+04  7.59090E+03 -6.19739E+03  6.65375E+03  1.88520E+03
  4.14096E+03  3.22674E+03 -3.01699E+02  3.03169E+03 -2.00534E+03 -8.50222E+02 -2.69194E+02 -1.89688E+03
  3.03724E+03 -9.30733E+02  3.44329E+03  1.92005E+03  2.72563E+03  4.37053E+03  1.57403E+01  5.39067E+03
 -3.90792E+03  4.94718E+03 -7.74809E+03 -1.03825E+02 -6.48500E+03 -4.75011E+03 -6.91060E+02 -9.02611E+03
  5.02070E+03 -8.09247E+03  7.59761E+03 -1.92103E+03  9.07939E+03  2.47525E+03  4.75789E+03  6.13619E+03
  4.72580E+02  6.69689E+03 -2.71251E+03  6.04749E+03 -4.89404E+03  3.14918E+03 -3.86634E+03  7.06645E+02
 -1.67555E+03 -4.77766E+02 -1.90193E+03  1.05986E+03 -4.00133E+03  1.58260E+03 -4.87414E+03 -2.59463E+02
 -6.03584E+03 -4.64423E+03 -1.43540E+03 -6.99532E+03  3.80059E+03 -7.16409E+03  5.61617E+03 -2.82146E+03
  6.89698E+03  8.05733E+02  3.98947E+03  4.77927E+03 -4.72993E+02  7.54971E+03 -5.73127E+03  4.34959E+03
