 $NMID ID='MM_0lb_SNR400_20hz_g45_93.RAW', FMTDAT='(8E13.5)'
 TRAMP=1., VOLUME=1. $END
  3.09741E+05  4.63247E+02  3.37053E+05  2.50216E+05  8.45117E+04  3.37342E+05 -1.32818E+05  2.50230E+05
 -1.89530E+05  8.13596E+04 -1.10692E+05 -3.32523E+04  2.28922E+03 -5.01049E+04  5.40519E+04  9.76305E+00
  3.47211E+04  5.26274E+04 -1.74580E+04  7.47042E+04 -6.03043E+04  6.24877E+04 -8.25867E+04  3.14570E+04
 -7.97083E+04 -1.10572E+04 -5.63920E+04 -4.95981E+04 -1.46808E+04 -6.76673E+04  2.60690E+04 -4.43760E+04
  3.87459E+04  4.47863E+03  1.54578E+04  4.64707E+04 -3.41507E+04  4.56708E+04 -6.44787E+04 -1.10868E+03
 -5.15781E+04 -5.55902E+04 -5.61474E+03 -7.45523E+04  3.29358E+04 -5.21335E+04  4.59409E+04 -1.60570E+04
  4.02755E+04  1.07015E+04  3.05718E+04  2.41428E+04  1.58049E+04  2.78855E+04 -4.66709E+03  2.65247E+04
 -2.15740E+04  1.24487E+04 -1.89093E+04 -4.21259E+03  3.75368E+03 -7.44562E+03  2.09824E+04  1.10366E+04
  7.35487E+03  3.23376E+04 -2.96722E+04  3.40445E+04 -6.01742E+04  2.29234E+03 -5.46406E+04 -4.06184E+04
 -1.23757E+04 -6.01470E+04  3.74956E+04 -4.23385E+04  5.45605E+04 -1.81305E+03  3.15047E+04  2.96812E+04
 -6.82692E+03  3.21720E+04 -2.76219E+04  1.22004E+04 -2.68075E+04 -5.56718E+03 -1.38637E+04 -9.83432E+03
 -7.65270E+03 -1.01565E+04 -8.27227E+02 -1.60329E+04  6.69304E+03 -2.20431E+04  1.46525E+04 -1.38254E+04
  1.25170E+04  4.43417E+03 -5.39585E+03  1.31516E+04 -1.87640E+04 -2.08962E+03 -7.96623E+03 -2.92500E+04
  2.02823E+04 -3.92321E+04  4.33212E+04 -1.84762E+04  4.09065E+04  1.79715E+04  1.35048E+04  4.09335E+04
 -1.48244E+04  3.02758E+04 -2.31786E+04  1.23929E+03 -7.58444E+03 -2.57987E+04  2.02564E+04 -3.05322E+04
  3.74051E+04 -7.04913E+03  2.98261E+04  2.26676E+04  1.42900E+04  4.08128E+04 -7.73150E+03  4.31769E+04
 -2.70614E+04  2.86786E+04 -3.57198E+04  8.62382E+03 -3.65335E+04 -1.45085E+04 -2.07259E+04 -3.41326E+04
  7.09752E+03 -3.30435E+04  2.87266E+04 -1.22996E+04  2.57272E+04  1.04261E+04  2.93450E+03  1.71234E+04
 -1.32153E+04  6.73735E+03 -9.70644E+03 -7.76171E+03  6.12382E+03 -9.27727E+03  1.74550E+04  6.77607E+03
  1.18236E+04  2.15038E+04 -6.72121E+03  2.25915E+04 -2.13368E+04  8.38786E+03 -2.40836E+04 -6.54179E+03
 -1.50659E+04 -1.61528E+04 -4.06263E+03 -1.59147E+04  3.69881E+03 -1.26546E+04  1.12106E+04 -1.28203E+04
  1.96886E+04 -1.06768E+04  2.67579E+04  7.68072E+02  2.03790E+04  1.49037E+04  4.03464E+03  3.12146E+04
 -1.57080E+04  2.71174E+04 -2.49696E+04  9.27559E+03 -1.95414E+04 -1.06154E+04 -3.97718E+03 -1.40839E+04
  2.72688E+03 -4.79335E+03 -1.94079E+03  4.58665E+03 -1.13421E+04  4.87053E+03 -1.22536E+04 -4.55930E+03
 -7.99482E+03 -1.41012E+04  4.29905E+03 -1.80144E+04  1.18228E+04 -1.28280E+04  1.38007E+04 -1.68125E+03
  8.02850E+03  1.01431E+04 -8.31578E+02  1.46018E+04 -9.79309E+03  7.92782E+03 -1.41795E+04 -2.91917E+03
 -1.05357E+04 -1.32496E+04 -1.15383E+03 -1.78604E+04  8.40014E+03 -1.45704E+04  1.51963E+04 -6.57821E+03
  1.34416E+04  4.75118E+02  9.77698E+03  3.43303E+03  4.65479E+03  8.05233E+02  6.56118E+03 -1.13946E+03
  1.28216E+04  2.63362E+03  1.31495E+04  1.19562E+04  8.13844E+03  2.26870E+04 -3.10322E+03  2.44899E+04
 -1.45449E+04  1.79577E+04 -2.17414E+04  8.33339E+03 -2.18818E+04 -1.58745E+03 -1.95565E+04 -1.24504E+04
 -9.35690E+03 -1.81197E+04  6.04110E+03 -1.72359E+04  1.49875E+04 -1.02876E+04  1.41303E+04  3.00955E+03
  6.31284E+03  9.67161E+03 -7.02095E+03  9.37320E+03 -1.27134E+04  2.72914E+03 -9.90609E+03 -7.10438E+03
  2.07870E+02 -1.16646E+04  5.79949E+03 -8.88658E+03  6.79124E+03 -1.60933E+03  1.28781E+03  4.49724E+03
 -5.33114E+03  7.34774E+02 -3.06221E+03 -3.93181E+03  8.41514E+02 -8.52874E+03  7.18506E+03 -9.05591E+03
  1.09645E+04 -3.62948E+03  1.02649E+04  2.44459E+03  8.64518E+03  8.05207E+03  3.81044E+03  1.17426E+04
 -9.76980E+02  1.43614E+04 -8.30854E+03  9.02623E+03 -9.87405E+03  3.19553E+03 -7.33232E+03 -1.72884E+03
 -4.35158E+03 -2.28873E+03 -7.74322E+02  1.85496E+03 -1.54964E+03  1.78327E+03 -3.58024E+03  2.92432E+03
 -7.27267E+03 -3.10068E+02 -8.40102E+03 -6.65909E+03 -3.30648E+03 -9.95892E+03  2.72535E+03 -7.81868E+03
  6.65078E+03 -3.78151E+03  4.58874E+03  1.52792E+03  1.22725E+03  2.36853E+03 -3.08333E+03 -5.71610E+02
 -3.06076E+03 -4.31701E+03 -8.15732E+02 -6.64014E+03  3.48544E+03 -6.85247E+03  8.73990E+03 -3.43256E+03
  1.00373E+04  2.01018E+02  7.17001E+03  5.15615E+03  1.30138E+03  7.36847E+03 -4.83880E+03  7.53216E+03
 -6.59807E+03  2.56884E+03 -3.11203E+03 -1.21659E+03  1.18988E+03 -1.65311E+03  4.06165E+03 -6.19521E+02
  3.80512E+03  3.26555E+03  1.20016E+03  5.83439E+03 -3.62241E+03  6.15997E+03 -7.32677E+03  1.85680E+03
 -4.28404E+03 -3.25984E+03  3.04815E+02 -5.74842E+03  3.29287E+03 -2.68074E+03  3.14137E+03  5.66091E+02
  6.79799E+02  2.47058E+03 -3.72547E+03  3.86716E+03 -4.07820E+03  2.05449E+03 -3.56741E+03 -5.87396E+02
 -2.31418E+03 -4.66373E+03  7.30021E+02 -5.72369E+03  5.04032E+03 -4.02649E+03  5.23143E+03  1.12018E+03
  4.05423E+03  4.59442E+03  3.15878E+02  6.51785E+03 -4.22942E+03  3.35919E+03 -4.45874E+03 -3.40088E+02
 -5.72172E+03 -4.00533E+03 -1.48906E+03 -4.14158E+03  1.98880E+03 -4.14599E+03  2.17623E+03 -2.60997E+03
  2.82588E+03  2.47302E+01 -1.92438E+02  8.98696E+02  1.12173E+03  9.52171E+01 -7.89326E-01 -1.26858E+03
  3.14014E+03 -1.39443E+02  4.36920E+03  6.05121E+02  4.82509E+03  2.42681E+03  4.99057E+03  5.74534E+03
 -5.70169E+02  6.45444E+03 -6.71941E+03  5.68723E+03 -8.50157E+03  1.27036E+03 -6.71814E+03 -1.97569E+03
 -3.54636E+03 -5.58230E+03 -7.92638E+02 -4.21935E+03  1.66021E+03 -1.62281E+03  1.07435E+03 -1.98148E+03
  6.94251E+02 -1.14034E+03  1.92660E+03 -2.60198E+03  3.12324E+03 -1.11679E+03  3.28673E+03  2.60140E+02
  3.53124E+03  6.94114E+02  8.75136E+02  3.14750E+03 -1.10383E+03  1.77353E+03 -3.98277E+03  1.98934E+03
 -4.30727E+03 -1.30356E+03 -1.13866E+03 -3.05047E+03  8.41532E+02 -4.10629E+03  2.63806E+03 -4.50644E+03
  4.31626E+03 -2.61406E+03  5.40315E+03 -1.48739E+02  4.24015E+03  3.11447E+03  1.43384E+03  5.15439E+03
 -1.86391E+03  5.17992E+03 -2.84769E+03  1.34336E+03 -1.20240E+03 -4.78059E+02 -3.13895E+02 -4.77091E+02
 -6.34638E+02  7.68929E+02 -1.08501E+02  1.20264E+03 -2.09507E+03  1.34000E+03 -3.98923E+03  5.77743E+01
 -1.00644E+03 -3.78033E+03  7.22887E+02 -3.66348E+03  2.44970E+03 -3.67665E+03  2.88398E+03 -3.28157E+02
  3.38087E+03  2.36346E+03  1.40132E+03  2.45659E+03 -4.24708E+02  3.25729E+03 -1.78499E+03  1.84601E+03
 -2.91008E+03  3.29606E+02 -2.80700E+03 -2.09621E+03 -5.85038E+02 -2.96858E+03  1.10246E+03 -1.97414E+03
  2.39465E+03 -6.74456E+02  1.28963E+03  3.07589E+02  1.77844E+02  1.57858E+03  8.07394E+02  6.22686E+02
  1.97437E+03  5.09007E+02  1.27203E+03  1.01456E+03  2.36907E+02  2.11841E+03  1.50102E+03  9.52492E+02
 -1.14245E+03  2.32874E+03 -2.27786E+03  3.96303E+03 -2.20899E+03  1.39269E+03 -3.30521E+03  1.24621E+02
 -1.13994E+03 -2.66471E+03 -5.47542E+01 -3.65263E+03  1.08865E+03 -1.68353E+03  2.52907E+03 -9.13159E+02
  1.79444E+03  8.81944E+02  2.37083E+02  1.77030E+03 -6.48951E+02  1.15507E+03 -1.03081E+03 -6.29567E+02
 -2.05862E+02 -1.00078E+03  6.63683E+02 -1.17816E+03  7.94958E+02 -1.15961E+03  6.84520E+02  4.98804E+02
  2.59214E+02 -5.92683E+02  5.79476E+02 -5.05932E+01  1.98856E+02  2.67789E+02  1.51879E+03  8.25359E+01
 -3.87227E+02  1.63204E+02  1.67526E+03  7.37459E+02  2.40221E+02  1.83968E+03 -6.65955E+01  2.24015E+03
 -7.84771E+02  6.53559E+02 -1.64617E+03 -9.61710E+01 -1.61781E+03 -6.30433E+02  2.23130E+02 -1.51425E+02
  8.37307E+02 -4.00798E+02  4.60734E+02 -4.04800E+02  4.76800E+02  8.38987E+02 -6.63245E+02  1.21670E+03
 -1.01765E+03  8.93202E+02 -8.76288E+02 -1.52649E+03 -7.41426E+02 -1.93857E+03  3.69375E+01 -1.00467E+03
  2.69602E+02 -2.08267E+02  3.51287E+02 -3.53510E+02  1.01688E+03  3.59962E+00  1.60744E+02  8.63486E+02
 -3.58633E+02 -5.23780E+02 -8.55835E+02 -1.45731E+02  3.31842E+02  1.96016E+02  1.11828E+03 -5.65218E+02
  5.52157E+02 -2.48334E+01  2.41626E+03  3.18624E+02  1.33292E+03  5.55958E+02 -2.15510E+02  8.45009E+02
 -9.46926E+02  2.17058E+02 -1.27389E+03  1.16523E+02 -4.35398E+02 -9.32925E+02  3.11405E+02 -4.67332E+02
  1.32339E+03  3.00709E+02  8.16413E+01  1.21818E+03  2.19718E+02  8.26127E+02  2.23677E+02  1.11954E+03
 -5.64362E+02  1.19460E+03 -2.28788E+02  5.06211E+02 -1.67988E+02  3.63138E+02 -8.89936E+02  8.51608E+02
 -6.02428E+02  2.22286E+02 -8.53417E+02  5.54370E+01 -1.00511E+03  3.32072E+02 -1.45780E+03 -7.41630E+02
 -4.33764E+02 -1.40213E+03  7.50081E+01 -2.24112E+03  3.14876E+02 -1.55015E+03  2.22978E+03 -5.91572E+02
  2.27646E+03 -4.54246E+02  7.05764E+02  9.43051E+02 -6.33764E+02  8.77220E+02 -2.57273E+02  5.41442E+02
 -4.95302E+02  5.29077E+02 -1.67689E+02 -3.88765E+02 -5.94323E+02  5.82347E+02 -8.05734E+02  4.15831E+02
 -1.50855E+03 -4.54117E+01 -9.13231E+02 -9.43439E+01  2.75108E+02 -5.87117E+02 -1.28652E+02 -4.88914E+02
  1.21307E+03 -6.46130E+02  9.22426E+02 -1.91846E+01  4.80203E+02  1.38986E+03 -7.29867E+02  9.57369E+02
 -1.05492E+03  1.72194E+03 -1.27343E+03  1.22936E+03 -1.42437E+03 -1.83953E+02 -1.32137E+03 -1.01280E+03
 -1.12781E+03 -9.56704E+02 -1.11082E+02 -6.53943E+02  3.37727E+02 -4.74623E+01  6.76412E+02  4.03077E+01
  4.37924E+02  1.83947E+02  4.46180E+01 -4.44154E+01 -4.23916E+02 -6.12992E+01 -4.39367E+02  4.88646E+02
  3.63658E+02  3.21208E+01 -7.39538E+01  1.94716E+02 -2.59905E+02  4.99898E+02  9.80590E+02 -5.17886E+02
 -3.68791E+02  1.16287E+02 -1.60290E+02  1.57438E+02 -4.43858E+02 -3.59751E+02  2.53101E+02 -6.27867E+02
 -2.65138E+02 -4.92920E+02 -1.76029E+02  1.53310E+02  4.27208E+02 -1.16520E+03  6.54435E+02  8.35317E+02
  1.03232E+02  3.13124E+02  1.11918E+02  2.47538E+02 -3.83978E+02  1.42296E+02 -4.64445E+02  1.86057E+02
  2.73724E+02 -1.90933E+02 -2.17631E+02 -3.96525E+01 -3.29345E+02 -6.58149E+01 -6.70232E+02 -1.11951E+02
 -6.76569E+02  5.18415E+02 -3.58677E+02 -4.55089E+02  4.23842E+02 -1.47271E+03  9.51984E+02  7.05663E+02
  3.29625E+02 -1.81309E+02 -5.08422E+02  9.00549E+01 -1.29717E+02  9.10602E+02  4.99150E+01  8.18905E+02
