 $NMID ID='MM_0lb_SNR400_16hz_g60_84.RAW', FMTDAT='(8E13.5)'
 TRAMP=1., VOLUME=1. $END
  3.10171E+05  1.02532E+02  3.37467E+05  2.51459E+05  8.48385E+04  3.38019E+05 -1.32067E+05  2.51059E+05
 -1.90774E+05  8.32234E+04 -1.11616E+05 -3.24577E+04  8.80139E+02 -5.03909E+04  5.37428E+04  2.40906E+02
  3.50282E+04  5.30549E+04 -1.63055E+04  7.55143E+04 -6.13065E+04  6.37817E+04 -8.48283E+04  3.20698E+04
 -8.05242E+04 -1.17954E+04 -5.72837E+04 -5.10139E+04 -1.52009E+04 -6.93499E+04  2.74039E+04 -4.57851E+04
  3.98610E+04  4.23814E+03  1.59219E+04  4.72779E+04 -3.38352E+04  4.67893E+04 -6.74096E+04 -4.59895E+02
 -5.33658E+04 -5.69542E+04 -7.25132E+03 -7.73092E+04  3.33371E+04 -5.53998E+04  4.81587E+04 -1.73515E+04
  4.33343E+04  1.13608E+04  3.23276E+04  2.57518E+04  1.60890E+04  2.90698E+04 -5.69142E+03  2.72272E+04
 -2.20954E+04  1.27230E+04 -1.89331E+04 -4.72619E+03  5.97700E+03 -8.12734E+03  2.18538E+04  1.22226E+04
  7.14787E+03  3.53091E+04 -3.25073E+04  3.59998E+04 -6.37922E+04  2.13669E+03 -5.68372E+04 -4.29293E+04
 -1.19538E+04 -6.32104E+04  4.03600E+04 -4.57235E+04  5.82662E+04 -1.42457E+03  3.38006E+04  3.21964E+04
 -6.21480E+03  3.65368E+04 -3.01567E+04  1.62967E+04 -3.02277E+04 -4.29043E+03 -1.70774E+04 -1.13228E+04
 -8.13311E+03 -1.31572E+04 -1.03874E+03 -1.87741E+04  7.18412E+03 -2.30491E+04  1.53948E+04 -1.36809E+04
  1.08936E+04  5.22074E+03 -8.15948E+03  1.25730E+04 -2.13232E+04 -4.09217E+03 -8.32042E+03 -3.43451E+04
  2.28982E+04 -4.36763E+04  4.87344E+04 -1.92453E+04  4.49264E+04  1.94254E+04  1.54685E+04  4.40555E+04
 -1.60978E+04  3.34393E+04 -2.50484E+04  9.93818E+02 -9.83128E+03 -2.77237E+04  2.09366E+04 -3.37139E+04
  4.11747E+04 -8.44781E+03  3.55085E+04  2.41255E+04  1.78582E+04  4.64789E+04 -7.69692E+03  4.99266E+04
 -3.14835E+04  3.34258E+04 -4.25100E+04  1.00376E+04 -4.16457E+04 -1.61010E+04 -2.38032E+04 -3.75776E+04
  7.91773E+03 -3.78466E+04  3.06440E+04 -1.46333E+04  2.89309E+04  1.09633E+04  3.70242E+03  1.94266E+04
 -1.28425E+04  8.26361E+03 -1.02723E+04 -7.24702E+03  6.47704E+03 -1.09051E+04  1.78342E+04  6.09526E+03
  1.34392E+04  2.18371E+04 -5.60399E+03  2.47409E+04 -2.24852E+04  1.09882E+04 -2.84153E+04 -4.97599E+03
 -2.07167E+04 -1.68756E+04 -8.52634E+03 -2.05493E+04  4.25589E+03 -2.00943E+04  1.56397E+04 -1.80693E+04
  2.55229E+04 -1.24284E+04  3.22794E+04  2.22954E+03  2.34800E+04  1.95854E+04  4.60240E+03  3.59399E+04
 -1.78529E+04  2.98799E+04 -2.69660E+04  1.04120E+04 -2.05704E+04 -1.05267E+04 -4.40908E+03 -1.34748E+04
  1.55869E+03 -2.45519E+03 -4.55715E+03  6.91038E+03 -1.62224E+04  4.95853E+03 -1.61460E+04 -6.97408E+03
 -9.25297E+03 -1.89373E+04  5.05225E+03 -2.25476E+04  1.51677E+04 -1.67494E+04  1.82897E+04 -1.69371E+03
  1.12066E+04  1.31049E+04 -9.55980E+02  1.82393E+04 -1.26159E+04  1.11549E+04 -1.90289E+04 -3.91030E+03
 -1.32430E+04 -1.64746E+04 -1.50756E+03 -2.22662E+04  1.01398E+04 -1.85650E+04  1.86671E+04 -9.43494E+03
  1.72939E+04  8.60763E+02  1.22951E+04  4.85490E+03  6.68544E+03  9.94270E+02  9.69299E+03 -1.48799E+03
  1.67995E+04  2.52988E+03  1.89020E+04  1.44697E+04  1.24803E+04  2.96259E+04 -3.61773E+03  3.30851E+04
 -1.86472E+04  2.68442E+04 -3.07729E+04  1.29793E+04 -3.29224E+04 -2.29396E+03 -2.70427E+04 -1.86712E+04
 -1.20096E+04 -2.61452E+04  9.25499E+03 -2.35378E+04  2.03859E+04 -1.29254E+04  1.86599E+04  5.16247E+03
  6.74820E+03  1.36700E+04 -8.07666E+03  1.23129E+04 -1.58765E+04  2.53339E+03 -1.21919E+04 -9.99709E+03
  3.74690E+02 -1.45593E+04  7.61006E+03 -1.13393E+04  9.91890E+03 -1.86126E+03  1.68053E+03  6.96266E+03
 -7.18133E+03  1.85015E+03 -5.00533E+03 -5.86349E+03 -3.50287E+02 -1.31660E+04  8.96221E+03 -1.32172E+04
  1.55635E+04 -7.03961E+03  1.65541E+04  2.74431E+03  1.39776E+04  1.25510E+04  6.71128E+03  1.85301E+04
 -2.52607E+03  2.11219E+04 -1.31938E+04  1.30997E+04 -1.52728E+04  3.31494E+03 -1.07538E+04 -3.27968E+03
 -5.08946E+03 -4.66662E+03 -1.52468E+02  1.03038E+03 -2.03971E+03  2.45077E+03 -4.63672E+03  4.26417E+03
 -9.62901E+03 -1.05060E+03 -1.06770E+04 -8.77849E+03 -4.49522E+03 -1.45736E+04  4.39010E+03 -1.04761E+04
  9.22199E+03 -4.32428E+03  6.84548E+03  3.20288E+03  3.45992E+02  4.48394E+03 -5.12143E+03  1.14170E+02
 -4.53044E+03 -6.88173E+03 -5.71834E+02 -1.01011E+04  5.07833E+03 -1.05879E+04  1.23676E+04 -5.73546E+03
  1.57053E+04  1.26961E+03  1.16326E+04  8.63355E+03  2.15925E+03  1.16718E+04 -6.02812E+03  1.03024E+04
 -8.61286E+03  2.87430E+03 -4.71579E+03 -1.79120E+03  1.74145E+03 -2.52294E+03  4.95939E+03 -1.29819E+03
  4.61826E+03  4.98671E+03  8.63091E+02  8.19099E+03 -5.95088E+03  7.81217E+03 -1.04542E+04  1.99263E+03
 -7.48217E+03 -4.65469E+03  2.36854E+02 -8.22932E+03  5.80703E+03 -4.60729E+03  5.37634E+03  1.22950E+03
  1.49106E+03  5.61071E+03 -5.56460E+03  6.78556E+03 -6.29495E+03  3.75271E+03 -8.01953E+03 -1.83977E+03
 -4.70440E+03 -8.68093E+03  2.35566E+03 -1.05886E+04  8.27321E+03 -6.19956E+03  9.83613E+03  1.97153E+03
  6.18907E+03  7.89614E+03  2.55716E+01  9.73359E+03 -6.45880E+03  5.40157E+03 -7.16076E+03 -7.01106E+02
 -7.19768E+03 -7.06386E+03 -1.47906E+03 -7.44237E+03  3.58885E+03 -6.29334E+03  4.70462E+03 -3.01802E+03
  3.97857E+03  1.18443E+03  6.48805E+01  1.92050E+03  4.90472E+02 -1.09122E+03  8.96067E+02 -2.93711E+03
  6.08584E+03 -1.68567E+03  8.56518E+03  1.11279E+03  8.34677E+03  4.65956E+03  5.78234E+03  1.13187E+04
 -1.63999E+03  1.27014E+04 -1.09393E+04  8.32852E+03 -1.40858E+04  1.82741E+03 -1.05694E+04 -3.89477E+03
 -5.68461E+03 -9.21145E+03  2.56567E+02 -7.32306E+03  3.25727E+03 -3.66929E+03  2.41708E+03 -2.83724E+03
  2.08541E+03 -2.13116E+03  2.07681E+03 -3.01814E+03  4.58564E+03 -1.93447E+03  4.22121E+03  4.94033E+02
  6.56891E+03  1.06076E+03  1.49104E+03  5.36020E+03 -1.65891E+03  4.99232E+03 -5.99113E+03  4.50763E+03
 -7.58433E+03 -6.90094E+02 -3.74060E+03 -5.02206E+03 -2.84799E+02 -7.25076E+03  4.05075E+03 -7.90399E+03
  7.42925E+03 -4.18345E+03  1.01760E+04  4.93220E+02  7.13421E+03  6.53731E+03  1.38825E+03  8.73600E+03
 -3.38610E+03  7.95048E+03 -4.71239E+03  2.67859E+03 -3.31193E+03 -5.45790E+02 -1.20809E+03 -1.79766E+02
 -8.89779E+02  4.53076E+02 -1.60757E+03  2.24936E+03 -3.73538E+03  1.51666E+03 -5.19380E+03 -7.81979E+02
 -3.09346E+03 -5.17217E+03  2.95349E+02 -6.94575E+03  3.88574E+03 -5.93398E+03  6.11405E+03 -1.47158E+03
  6.70668E+03  3.19353E+03  3.09369E+03  5.70176E+03 -5.01133E+02  6.68203E+03 -4.16397E+03  3.46832E+03
 -5.68371E+03  6.36735E+02 -5.08317E+03 -4.00436E+03 -7.18697E+02 -5.39612E+03  2.54319E+03 -4.23662E+03
  4.50951E+03 -9.36408E+02  3.14980E+03  9.22466E+02  9.93990E+02  1.79781E+03  9.91061E+02  8.44427E+02
  1.71411E+03  1.35459E+03  1.22935E+03  9.65076E+02  2.28137E+03  2.35247E+03  1.18998E+03  2.75938E+03
 -1.44706E+03  4.05753E+03 -4.79101E+03  5.08252E+03 -5.75234E+03  1.89711E+03 -7.15047E+03 -1.49953E+03
 -2.83596E+03 -5.71404E+03  2.70046E+02 -7.14867E+03  3.22393E+03 -4.40016E+03  4.62065E+03 -8.82221E+02
  3.76922E+03  2.66399E+03  6.03309E+02  3.26056E+03 -1.88359E+03  2.00582E+03 -2.27746E+03 -1.33368E+02
 -1.03362E+03 -2.47294E+03  1.74832E+03 -3.13973E+03  2.45554E+03 -1.35175E+03  2.61078E+03  6.78033E+02
  1.53516E+03  1.24103E+03  1.05882E+03 -5.34246E+02 -6.20914E+02  8.38697E+02  1.04191E+03  7.49019E+01
  4.71364E+02 -6.48870E+02  2.24173E+03  4.26635E+02  1.34428E+03  3.64596E+03 -5.78764E+02  4.63152E+03
 -2.41544E+03  2.05402E+03 -3.50357E+03  7.53877E+02 -2.88158E+03 -1.05521E+03 -9.38018E+02 -1.76144E+03
  4.29347E+02 -2.25266E+03  1.47506E+03 -1.36918E+03  1.95426E+03  1.68282E+03 -7.53773E+02  1.34419E+03
 -3.31067E+03  1.56964E+03 -2.06365E+03 -1.74913E+03 -8.84824E+02 -3.06924E+03  5.25725E+02 -2.50234E+03
  1.17742E+03 -1.90919E+03  1.32221E+03 -2.28995E+02  1.33676E+03  1.53359E+02  5.91210E+02  1.51457E+03
 -4.80329E+02  5.22421E+01 -1.57375E+03 -7.42718E+02  3.59240E+02 -1.65817E+03  2.62659E+03 -2.32772E+03
  2.50728E+03  4.16906E+02  3.73384E+03  1.70960E+03  1.81319E+03  2.83560E+03 -7.40937E+02  3.19964E+03
 -2.40175E+03  8.48922E+02 -2.61847E+03 -7.15561E+02 -1.56929E+03 -2.52524E+03  4.38705E+02 -1.19724E+03
  1.67538E+03 -1.29205E+03  1.50468E+03  1.24286E+03  8.13287E+02  1.78961E+03 -1.54916E+01  1.48127E+03
 -8.89225E+02  1.53815E+03 -3.15817E+02  1.80637E+02 -2.66837E+02 -4.05762E+01 -6.94899E+02  5.16464E+02
 -1.31441E+03  1.02491E+03 -2.40236E+03  6.31046E+02 -2.89909E+03  1.51571E+02 -3.54513E+03 -1.77904E+03
 -1.82240E+03 -3.68359E+03  1.15256E+03 -4.41130E+03  2.83174E+03 -3.35253E+03  4.31978E+03 -1.06947E+03
  3.86946E+03  7.07812E+01  1.86634E+03  2.75703E+03 -2.40259E+02  3.03980E+03 -5.75536E+02  1.78474E+03
 -1.89372E+03  2.06613E+03 -7.63483E+02 -2.95088E+02 -5.76519E+02  3.63484E+02 -1.14437E+03  4.17316E+02
 -9.21815E+02 -1.68238E+02 -1.26034E+03 -3.43128E+02  7.20627E+02 -1.54210E+03 -4.85599E+02 -9.59900E+02
  1.28911E+03 -1.03436E+03  1.42855E+03 -2.55225E+01  1.63685E+03  1.46881E+03 -4.72984E+02  2.42366E+03
 -1.46319E+03  3.13806E+03 -3.03296E+03  2.11948E+03 -3.47970E+03 -8.18828E+02 -1.86889E+03 -2.41499E+03
 -7.41722E+02 -2.05236E+03  5.29641E+02 -2.42186E+03  1.65196E+03 -1.14957E+03  1.92829E+03  1.07682E+03
  1.05495E+03  7.61371E+02  2.01451E+02  9.51704E+02 -2.46070E+02 -3.61866E+02  2.29904E+02 -4.86051E+02
  1.83919E+02  2.38865E+01  1.12382E+03  2.68025E+01  4.62760E+02  6.25189E+02  1.64187E+02  1.00348E+03
 -9.81693E+02  7.07915E+02 -1.13797E+03  2.53284E+02 -1.80034E+03 -1.16813E+03  1.87637E+02 -1.95462E+03
  1.73041E+03 -1.98598E+03  1.94437E+03 -5.73397E+02  1.16721E+03 -2.83647E+02  1.12957E+03  1.31239E+03
  8.20542E+02  9.56757E+02 -3.11908E+02  1.32505E+03 -9.21190E+02  9.74363E+02 -1.30821E+02  3.71012E+02
 -1.02491E+02  4.30112E+02 -9.62977E+02  7.69398E+02 -7.99519E+02  4.31761E+02 -1.06119E+03 -2.70286E+02
 -1.58046E+03 -3.17751E+00 -2.50867E+02 -1.83361E+03  9.68989E+02 -2.64670E+03  1.28856E+03 -8.55808E+02
  1.81416E+03 -2.01462E+02 -3.52290E+02 -6.18807E+01 -1.41844E+02  1.53104E+03 -5.93887E+02  1.21985E+03
