 $NMID ID='MM_0lb_SNR400_15hz_g45_20.RAW', FMTDAT='(8E13.5)'
 TRAMP=1., VOLUME=1. $END
  3.09983E+05  5.64880E+02  3.37267E+05  2.50818E+05  8.46472E+04  3.37914E+05 -1.32657E+05  2.50748E+05
 -1.90219E+05  8.32362E+04 -1.11562E+05 -3.26483E+04  1.16345E+03 -5.00363E+04  5.40584E+04 -3.10740E+02
  3.55844E+04  5.24987E+04 -1.69280E+04  7.58643E+04 -6.03834E+04  6.33916E+04 -8.37702E+04  3.15360E+04
 -8.06746E+04 -1.09847E+04 -5.66717E+04 -5.14824E+04 -1.53267E+04 -6.93572E+04  2.71937E+04 -4.54149E+04
  4.03488E+04  3.90599E+03  1.58289E+04  4.76912E+04 -3.45018E+04  4.68534E+04 -6.60561E+04 -4.87140E+02
 -5.34310E+04 -5.66142E+04 -7.08440E+03 -7.67708E+04  3.30092E+04 -5.38865E+04  4.71712E+04 -1.64762E+04
  4.29749E+04  1.13931E+04  3.17302E+04  2.51199E+04  1.57435E+04  2.94702E+04 -4.94721E+03  2.73712E+04
 -2.18883E+04  1.22970E+04 -1.89709E+04 -4.31311E+03  5.05979E+03 -7.10556E+03  2.21714E+04  1.16036E+04
  8.00630E+03  3.46266E+04 -3.16456E+04  3.50630E+04 -6.32164E+04  2.16720E+03 -5.63452E+04 -4.21402E+04
 -1.23917E+04 -6.24095E+04  3.92304E+04 -4.42479E+04  5.70162E+04 -2.80508E+03  3.40470E+04  3.16684E+04
 -6.05440E+03  3.50077E+04 -2.90924E+04  1.50262E+04 -2.91105E+04 -4.66084E+03 -1.60627E+04 -1.04466E+04
 -7.88443E+03 -1.23098E+04 -8.71819E+02 -1.77759E+04  7.14864E+03 -2.23960E+04  1.59541E+04 -1.37260E+04
  1.16817E+04  4.68305E+03 -7.73544E+03  1.32258E+04 -2.12434E+04 -4.16084E+03 -8.56922E+03 -3.25255E+04
  2.23497E+04 -4.24214E+04  4.67014E+04 -1.89007E+04  4.41992E+04  1.84153E+04  1.49857E+04  4.27428E+04
 -1.55846E+04  3.31096E+04 -2.43601E+04  1.91158E+03 -8.87990E+03 -2.77199E+04  2.05918E+04 -3.28727E+04
  3.98462E+04 -8.80416E+03  3.43101E+04  2.33643E+04  1.72408E+04  4.52453E+04 -8.24361E+03  4.87147E+04
 -2.99633E+04  3.22119E+04 -4.04442E+04  9.14870E+03 -4.08960E+04 -1.59923E+04 -2.27535E+04 -3.65013E+04
  7.43185E+03 -3.70844E+04  3.10340E+04 -1.42968E+04  2.87500E+04  1.08713E+04  4.02357E+03  1.90413E+04
 -1.34157E+04  8.13998E+03 -9.77004E+03 -7.09150E+03  6.04224E+03 -1.07811E+04  1.73720E+04  6.07804E+03
  1.34972E+04  2.15537E+04 -5.68177E+03  2.43973E+04 -2.28767E+04  1.10723E+04 -2.70704E+04 -5.02475E+03
 -1.96550E+04 -1.64591E+04 -7.32307E+03 -1.95265E+04  3.89256E+03 -1.81997E+04  1.47382E+04 -1.72455E+04
  2.49668E+04 -1.26161E+04  3.13528E+04  1.88051E+03  2.34405E+04  1.87148E+04  4.74627E+03  3.46116E+04
 -1.73399E+04  2.96195E+04 -2.78636E+04  1.06043E+04 -2.02808E+04 -9.78916E+03 -4.21017E+03 -1.38841E+04
  1.93071E+03 -3.09767E+03 -4.08878E+03  5.85977E+03 -1.54920E+04  5.01076E+03 -1.55473E+04 -6.57295E+03
 -9.29123E+03 -1.81342E+04  4.89921E+03 -2.12848E+04  1.47429E+04 -1.63290E+04  1.71397E+04 -1.17271E+03
  1.08463E+04  1.19158E+04 -1.35685E+03  1.81239E+04 -1.22043E+04  1.01522E+04 -1.78130E+04 -3.76441E+03
 -1.36446E+04 -1.60849E+04 -1.24614E+03 -2.16922E+04  9.98472E+03 -1.77953E+04  1.81613E+04 -8.67738E+03
  1.63560E+04  4.42357E+02  1.21252E+04  4.18159E+03  6.31423E+03  1.13231E+03  9.31494E+03 -1.59130E+03
  1.63538E+04  2.45349E+03  1.80979E+04  1.41305E+04  1.10451E+04  2.84696E+04 -3.24746E+03  3.16703E+04
 -1.86832E+04  2.53751E+04 -2.90926E+04  1.23846E+04 -3.04544E+04 -2.09062E+03 -2.52178E+04 -1.73742E+04
 -1.15954E+04 -2.49740E+04  9.08630E+03 -2.27383E+04  1.92892E+04 -1.14468E+04  1.82857E+04  4.97745E+03
  6.51351E+03  1.39023E+04 -9.26869E+03  1.13155E+04 -1.51679E+04  2.53295E+03 -1.22105E+04 -8.86861E+03
  1.26989E+02 -1.44089E+04  7.60137E+03 -1.11470E+04  9.23515E+03 -1.40857E+03  2.59440E+03  5.26536E+03
 -6.19331E+03  2.34526E+03 -4.56594E+03 -5.18989E+03  1.35516E+02 -1.27633E+04  9.00670E+03 -1.32174E+04
  1.57504E+04 -6.53341E+03  1.56549E+04  2.89546E+03  1.43226E+04  1.16643E+04  6.32749E+03  1.80969E+04
 -3.41198E+03  2.04821E+04 -1.18911E+04  1.29551E+04 -1.46431E+04  2.97282E+03 -1.04388E+04 -2.77211E+03
 -5.12799E+03 -4.99508E+03 -5.39292E+02  4.56395E+02 -1.78333E+03  1.78507E+03 -5.22330E+03  3.76322E+03
 -9.46770E+03 -8.89757E+02 -1.03149E+04 -8.48940E+03 -4.42090E+03 -1.41920E+04  4.33103E+03 -1.03637E+04
  9.08575E+03 -4.93652E+03  6.41194E+03  2.43717E+03  1.46358E+01  4.06640E+03 -4.71176E+03 -8.19962E+02
 -4.70240E+03 -6.00717E+03 -4.91452E+02 -9.68720E+03  5.49923E+03 -9.78659E+03  1.22241E+04 -5.28229E+03
  1.48384E+04  1.59096E+03  1.13907E+04  8.64259E+03  1.80537E+03  1.18009E+04 -6.36515E+03  1.00943E+04
 -8.31480E+03  3.19955E+03 -4.20451E+03 -8.85796E+02  1.25265E+03 -2.82943E+03  6.17244E+03 -1.07751E+03
  4.55905E+03  4.17808E+03  1.42470E+03  7.51297E+03 -6.02127E+03  7.75497E+03 -1.00362E+04  2.26501E+03
 -6.16683E+03 -4.97025E+03  1.95436E+02 -8.86967E+03  5.25969E+03 -4.28662E+03  4.35295E+03  1.72415E+03
  9.65716E+02  4.93246E+03 -4.86088E+03  6.57345E+03 -6.76897E+03  2.49662E+03 -7.23865E+03 -1.86822E+03
 -3.89583E+03 -8.25317E+03  2.02452E+03 -1.00932E+04  7.67495E+03 -5.63319E+03  9.38806E+03  1.52489E+03
  5.86148E+03  7.41524E+03 -5.63345E+02  9.74264E+03 -6.42259E+03  6.21977E+03 -7.13532E+03 -9.07468E+02
 -7.20462E+03 -6.46562E+03 -1.53237E+03 -7.06409E+03  3.52356E+03 -6.06847E+03  4.38860E+03 -3.39381E+03
  3.45886E+03  7.26661E+02 -4.12885E+02  1.24981E+03  1.15404E+02 -1.22731E+03  8.82644E+02 -2.94153E+03
  5.68702E+03 -1.71250E+03  8.34018E+03  9.74827E+02  8.20686E+03  4.85266E+03  6.58546E+03  1.09015E+04
 -1.45250E+03  1.22536E+04 -1.03745E+04  8.88539E+03 -1.39730E+04  1.72697E+03 -1.05246E+04 -3.85810E+03
 -5.30595E+03 -9.41774E+03 -1.74909E+02 -7.67655E+03  3.31080E+03 -4.12651E+03  2.34006E+03 -3.14652E+03
  1.59785E+03 -1.99391E+03  2.36368E+03 -2.75496E+03  4.38188E+03 -2.26231E+03  5.29635E+03  2.58447E+02
  6.74751E+03  1.30523E+03  1.63020E+03  4.20743E+03 -1.30387E+03  5.25745E+03 -5.86848E+03  4.47654E+03
 -7.77970E+03 -9.44759E+02 -3.35758E+03 -5.09351E+03 -4.57011E+02 -7.59613E+03  4.38920E+03 -7.31980E+03
  8.08913E+03 -5.01554E+03  9.76736E+03  4.70460E+02  6.61703E+03  6.47381E+03  1.37967E+03  9.14289E+03
 -3.47321E+03  7.63651E+03 -4.73585E+03  1.89590E+03 -3.16405E+03 -1.85287E+03 -1.25082E+03 -1.10558E+03
 -6.33963E+02  4.82707E+02 -1.41514E+03  2.32596E+03 -3.78000E+03  8.79504E+02 -5.37194E+03 -5.28509E+02
 -2.82537E+03 -5.38166E+03  2.60738E+02 -7.05678E+03  4.28571E+03 -6.90764E+03  6.22319E+03 -2.09493E+03
  6.43026E+03  3.34304E+03  3.57883E+03  5.79180E+03 -6.53204E+02  6.70569E+03 -4.66498E+03  4.30332E+03
 -6.32266E+03  4.61221E+02 -5.16206E+03 -3.40415E+03 -5.65521E+02 -5.33783E+03  2.17653E+03 -4.23755E+03
  4.55757E+03 -1.99199E+03  3.11601E+03  8.09913E+02  6.83343E+02  1.99150E+03  9.39864E+02  6.49223E+02
  1.69771E+03  6.18248E+01  2.00674E+03  1.36468E+03  2.31940E+03  2.65326E+03  2.03056E+03  2.77726E+03
 -1.32790E+03  4.33042E+03 -4.72181E+03  6.28706E+03 -6.23319E+03  1.40585E+03 -7.40148E+03 -1.77946E+03
 -3.64095E+03 -5.85631E+03  8.23248E+02 -7.46648E+03  3.79231E+03 -4.50887E+03  5.25456E+03 -1.16600E+03
  3.97571E+03  2.97623E+03  8.15125E+02  4.25424E+03 -1.11234E+03  2.59875E+03 -1.93671E+03  4.23478E+01
 -8.65971E+02 -2.44701E+03  1.07531E+03 -2.52784E+03  2.39283E+03 -1.84201E+03  2.23395E+03  7.18759E+02
  1.17011E+03  1.34066E+03  9.25299E+02 -3.04881E+02 -6.03293E+01  1.48995E+03  1.22091E+03 -1.70387E+02
  4.91139E+02  4.29624E+02  2.97412E+03  8.11944E+02  7.59146E+02  3.35512E+03 -1.14405E+03  4.68495E+03
 -2.75024E+03  2.13187E+03 -4.23757E+03  7.27375E+02 -3.47575E+03 -1.76462E+03 -5.26222E+02 -2.09427E+03
  7.05318E+02 -2.01073E+03  1.38392E+03 -1.23576E+03  1.09141E+03  2.00183E+03 -6.49074E+02  1.32273E+03
 -2.68296E+03  1.43047E+03 -2.37977E+03 -2.02431E+03 -1.82783E+03 -3.30706E+03  3.46339E+02 -3.30880E+03
  9.71441E+02 -1.33295E+03  1.53711E+03  1.32315E+02  2.26145E+03  4.75957E+01  7.02011E+02  1.49624E+03
 -7.69425E+02  9.58766E+02 -9.64269E+02 -1.08200E+03  8.88656E+02 -2.49339E+03  2.57338E+03 -1.96601E+03
  3.20890E+03  7.77187E+02  3.85901E+03  2.21527E+03  1.24063E+03  2.93072E+03 -3.91671E+02  3.39270E+03
 -2.30474E+03  1.21342E+03 -2.94746E+03  2.36093E+02 -1.91023E+03 -1.90518E+03  3.95562E+02 -1.41801E+03
  2.85298E+03 -1.10191E+03  1.71538E+03  1.41787E+03  7.12153E+02  2.10676E+03  3.69219E+02  1.91233E+03
 -5.66456E+02  1.65980E+03 -1.16591E+03  7.00278E+02 -3.97481E+01  5.83077E+02 -1.07947E+03  1.41823E+03
 -1.12712E+03  1.38068E+03 -3.10717E+03  6.41768E+02 -3.28766E+03  1.12342E+02 -4.07751E+03 -1.88872E+03
 -1.18406E+03 -4.51693E+03  1.19247E+03 -5.59633E+03  2.95427E+03 -4.51593E+03  5.35463E+03 -1.25227E+03
  4.36331E+03  7.52141E+02  2.58731E+03  3.13010E+03  6.12051E+01  3.53618E+03 -1.36462E+03  2.51160E+03
 -1.88063E+03  8.51084E+02 -8.14092E+02 -4.97090E+02  4.58372E+01  3.19353E+02 -7.59080E+02 -1.16468E+01
 -1.39321E+03 -1.67844E+02 -1.09243E+03  6.02395E+02 -5.07405E+01 -6.20430E+02 -7.00644E+02 -1.48220E+03
  1.96918E+03 -7.51707E+02  1.44372E+03  3.03468E+02  1.88277E+03  1.87319E+03  3.44178E+02  3.27965E+03
 -1.91202E+03  3.42750E+03 -3.26998E+03  2.19670E+03 -3.91960E+03 -3.52800E+02 -2.24880E+03 -2.49562E+03
 -1.76730E+03 -2.96590E+03  4.24703E+02 -2.17713E+03  1.64082E+03 -1.84682E+03  2.32024E+03  3.87590E+02
  1.38541E+03  1.14819E+03 -3.37380E+02  9.13033E+02 -5.36108E+02  4.78722E+02  1.01395E+02 -3.35055E+02
  8.95441E+02 -2.02155E+02  7.93398E+02  3.98290E+02  5.02079E+02  9.47948E+02  8.14360E+02  8.67683E+02
 -1.06705E+03  2.01653E+03 -1.10854E+03  2.96715E+02 -1.77645E+03 -1.19877E+03 -3.57369E+02 -2.63082E+03
  1.37936E+03 -1.07386E+03  1.63458E+03 -6.89149E+02  2.00176E+03  1.73484E+02  1.14384E+03  2.28401E+03
  5.80922E+02  2.12760E+03 -8.76521E+02  1.51231E+03 -1.50734E+03  9.60667E+02 -6.35482E+02  2.84953E+01
 -1.02491E+03 -1.36079E+02 -1.29170E+03  4.21757E+02 -1.47149E+03  3.49748E+02 -1.90191E+03 -3.62333E+01
 -2.50804E+03 -3.34740E+02 -1.23681E+03 -2.45437E+03  1.23862E+03 -2.53143E+03  1.46546E+03 -9.55094E+02
  1.86455E+03  1.03899E+01  1.15742E+02  1.44399E+03 -8.25079E+02  1.90754E+03 -9.73893E+02  1.05363E+03
