 $NMID ID='MM_0lb_SNR400_13hz_g50_20.RAW', FMTDAT='(8E13.5)'
 TRAMP=1., VOLUME=1. $END
  3.09315E+05  2.34496E+02  3.37362E+05  2.50632E+05  8.45369E+04  3.37607E+05 -1.32605E+05  2.51744E+05
 -1.89827E+05  8.38401E+04 -1.11882E+05 -3.30017E+04  7.12612E+02 -5.07977E+04  5.39950E+04  1.49657E+02
  3.47549E+04  5.27503E+04 -1.64543E+04  7.53704E+04 -6.10234E+04  6.38673E+04 -8.43334E+04  3.22997E+04
 -8.18383E+04 -1.15406E+04 -5.78681E+04 -5.18044E+04 -1.43641E+04 -6.99813E+04  2.78355E+04 -4.56308E+04
  4.00950E+04  4.05855E+03  1.58580E+04  4.78731E+04 -3.39520E+04  4.73938E+04 -6.71316E+04  2.24027E+02
 -5.38802E+04 -5.76755E+04 -6.60985E+03 -7.69700E+04  3.40121E+04 -5.50310E+04  4.77355E+04 -1.72665E+04
  4.31191E+04  1.12088E+04  3.23833E+04  2.63002E+04  1.58365E+04  2.90784E+04 -5.23512E+03  2.72925E+04
 -2.19164E+04  1.22944E+04 -1.86492E+04 -4.95799E+03  5.96806E+03 -6.97581E+03  2.18078E+04  1.23853E+04
  7.34682E+03  3.56701E+04 -3.23195E+04  3.54816E+04 -6.42726E+04  1.93183E+03 -5.70369E+04 -4.30840E+04
 -1.21965E+04 -6.31236E+04  3.98894E+04 -4.63206E+04  5.88249E+04 -1.79887E+03  3.49515E+04  3.27361E+04
 -6.12085E+03  3.66027E+04 -3.07841E+04  1.63021E+04 -3.05802E+04 -4.27247E+03 -1.77948E+04 -1.16327E+04
 -8.82512E+03 -1.36979E+04 -8.99053E+02 -1.81637E+04  7.59481E+03 -2.32189E+04  1.56104E+04 -1.30317E+04
  1.12765E+04  5.32942E+03 -8.24191E+03  1.32558E+04 -2.08310E+04 -4.98015E+03 -8.46747E+03 -3.38697E+04
  2.30753E+04 -4.42491E+04  4.89754E+04 -2.02596E+04  4.56636E+04  2.01645E+04  1.61194E+04  4.46384E+04
 -1.58357E+04  3.39439E+04 -2.54221E+04  2.51633E+03 -1.06143E+04 -2.79830E+04  2.07117E+04 -3.35218E+04
  4.21853E+04 -9.56602E+03  3.59808E+04  2.39118E+04  1.92267E+04  4.69137E+04 -7.43858E+03  5.11970E+04
 -3.26465E+04  3.53205E+04 -4.29875E+04  9.64492E+03 -4.35409E+04 -1.70767E+04 -2.38873E+04 -3.84913E+04
  6.88111E+03 -3.87634E+04  3.18131E+04 -1.52984E+04  2.97549E+04  1.11752E+04  4.07265E+03  1.92315E+04
 -1.44545E+04  8.19619E+03 -1.07907E+04 -7.21206E+03  6.04932E+03 -1.09799E+04  1.83621E+04  6.17839E+03
  1.33738E+04  2.24223E+04 -5.96244E+03  2.57217E+04 -2.27708E+04  1.20053E+04 -2.89255E+04 -4.26818E+03
 -2.19916E+04 -1.68970E+04 -8.17405E+03 -2.09991E+04  3.94904E+03 -2.07827E+04  1.64223E+04 -1.91928E+04
  2.73171E+04 -1.27729E+04  3.43382E+04  2.66685E+03  2.46927E+04  2.11223E+04  4.25115E+03  3.76578E+04
 -1.89030E+04  3.18154E+04 -2.92020E+04  1.12409E+04 -2.12592E+04 -1.04271E+04 -4.63710E+03 -1.29863E+04
  2.08702E+03 -1.93776E+03 -5.21818E+03  6.85931E+03 -1.70732E+04  5.36760E+03 -1.65938E+04 -7.74927E+03
 -1.09071E+04 -2.02879E+04  5.44587E+03 -2.43717E+04  1.62479E+04 -1.69922E+04  1.89565E+04 -1.84119E+03
  1.21839E+04  1.27252E+04 -9.34710E+02  2.00330E+04 -1.36351E+04  1.11535E+04 -2.07754E+04 -5.28743E+03
 -1.41319E+04 -1.86328E+04 -1.57016E+03 -2.42135E+04  1.07469E+04 -1.98651E+04  2.02441E+04 -1.06225E+04
  1.81816E+04  1.08037E+02  1.36757E+04  4.23931E+03  7.33775E+03  7.76238E+02  1.07011E+04 -1.72431E+03
  1.86112E+04  3.08424E+03  2.01650E+04  1.56764E+04  1.38730E+04  3.15930E+04 -2.23569E+03  3.63636E+04
 -2.10207E+04  2.92112E+04 -3.35030E+04  1.47524E+04 -3.54839E+04 -3.12795E+03 -2.96885E+04 -2.04223E+04
 -1.24420E+04 -2.88011E+04  1.04368E+04 -2.63056E+04  2.27327E+04 -1.30203E+04  2.01279E+04  6.65752E+03
  7.00343E+03  1.52197E+04 -9.52523E+03  1.33741E+04 -1.72868E+04  2.74009E+03 -1.34185E+04 -1.10275E+04
 -1.69623E+02 -1.56192E+04  8.58290E+03 -1.19416E+04  1.09110E+04 -1.13435E+03  3.06357E+03  6.77429E+03
 -7.06131E+03  2.74413E+03 -6.71321E+03 -6.48946E+03 -2.38204E+02 -1.43820E+04  1.04341E+04 -1.51167E+04
  1.74226E+04 -8.36725E+03  1.99864E+04  3.16305E+03  1.74466E+04  1.40145E+04  7.72580E+03  2.18530E+04
 -3.93362E+03  2.33546E+04 -1.57313E+04  1.51691E+04 -1.72473E+04  3.25196E+03 -1.23373E+04 -4.32609E+03
 -5.22297E+03 -5.38783E+03 -5.77051E+02  9.43588E+02 -2.27302E+03  2.80406E+03 -5.91263E+03  4.53332E+03
 -1.13542E+04 -1.12749E+03 -1.16143E+04 -9.73271E+03 -4.83441E+03 -1.62000E+04  5.06490E+03 -1.19055E+04
  9.14447E+03 -5.00321E+03  7.76516E+03  3.60470E+03  1.29425E+02  4.37240E+03 -5.48792E+03 -3.96126E+02
 -5.77704E+03 -8.09659E+03 -9.00874E+02 -1.19637E+04  6.65674E+03 -1.21217E+04  1.49809E+04 -6.21587E+03
  1.81957E+04  1.72606E+03  1.34748E+04  1.05089E+04  2.66283E+03  1.43388E+04 -7.55633E+03  1.23014E+04
 -9.91343E+03  3.57628E+03 -5.21242E+03 -1.74518E+03  1.96885E+03 -3.66247E+03  6.14928E+03 -1.33890E+03
  6.11254E+03  5.22508E+03  1.34322E+03  1.01073E+04 -6.49545E+03  8.89481E+03 -1.13736E+04  3.19380E+03
 -7.62155E+03 -5.95323E+03  2.20578E+02 -1.08686E+04  6.46385E+03 -5.32023E+03  6.12728E+03  2.54969E+03
  1.81052E+03  6.65388E+03 -6.75710E+03  7.87514E+03 -9.34405E+03  3.77044E+03 -9.47121E+03 -3.00437E+03
 -5.38964E+03 -1.07524E+04  2.14516E+03 -1.35075E+04  1.03418E+04 -7.97545E+03  1.17959E+04  2.02943E+03
  7.38514E+03  9.26220E+03 -9.86826E+02  1.20369E+04 -8.11242E+03  6.52127E+03 -8.99583E+03 -7.30115E+02
 -8.59763E+03 -7.97521E+03 -1.58626E+03 -8.42511E+03  4.17735E+03 -7.51527E+03  5.09929E+03 -3.99500E+03
  3.54079E+03  1.25931E+03 -6.15725E+02  1.47381E+03 -3.36615E+02 -2.11538E+03  1.44844E+03 -4.71505E+03
  8.21025E+03 -2.40106E+03  9.94990E+03  5.77031E+02  1.04007E+04  7.43162E+03  7.62424E+03  1.37853E+04
 -3.11624E+03  1.59266E+04 -1.34991E+04  1.26747E+04 -1.73211E+04  2.00252E+03 -1.34356E+04 -5.89606E+03
 -7.38687E+03 -1.19857E+04 -3.64044E+02 -9.22878E+03  3.54929E+03 -4.68019E+03  3.26486E+03 -4.07727E+03
  2.66543E+03 -2.65271E+03  3.16036E+03 -2.82729E+03  4.29838E+03 -1.80147E+03  5.80996E+03 -1.83815E+02
  7.75479E+03  1.03694E+03  3.76049E+03  6.25235E+03 -2.11210E+03  6.87767E+03 -7.58742E+03  5.15515E+03
 -9.37325E+03 -1.60011E+03 -5.85818E+03 -6.61933E+03 -1.70640E+02 -9.81942E+03  5.86468E+03 -1.09384E+04
  1.04599E+04 -6.32031E+03  1.33814E+04  1.45750E+03  9.26781E+03  8.10473E+03  1.57393E+03  1.13704E+04
 -4.68286E+03  1.00257E+04 -6.90448E+03  3.02928E+03 -4.63906E+03 -1.86285E+03 -1.39615E+03 -1.13971E+03
 -5.64374E+02  1.58455E+02 -1.14522E+03  2.54326E+03 -4.31044E+03  1.29751E+03 -7.14969E+03 -6.19920E+02
 -4.52079E+03 -6.64668E+03  2.82913E+02 -9.17498E+03  5.47444E+03 -8.55101E+03  8.79572E+03 -2.42870E+03
  9.12795E+03  4.70688E+03  3.89461E+03  7.74546E+03 -1.75115E+03  8.99583E+03 -6.23423E+03  5.47389E+03
 -7.89813E+03  3.60531E+02 -6.52146E+03 -5.73101E+03 -1.74429E+02 -7.13590E+03  4.35871E+03 -5.83440E+03
  6.27260E+03 -2.15230E+03  3.37086E+03  1.59660E+03  1.38330E+03  3.26404E+03  5.29447E+02  9.95369E+02
  2.90010E+03  1.04956E+03  2.43776E+03  1.32724E+03  2.01129E+03  3.96805E+03  2.43510E+03  4.44582E+03
 -1.64796E+03  7.41286E+03 -6.09849E+03  7.94609E+03 -8.78307E+03  2.28315E+03 -9.16891E+03 -2.61984E+03
 -4.52010E+03 -8.31278E+03  1.76111E+03 -1.04155E+04  5.20419E+03 -6.17306E+03  7.10724E+03 -1.77134E+03
  6.10272E+03  3.30412E+03  1.20632E+03  5.08086E+03 -2.81543E+03  3.08924E+03 -3.47524E+03 -3.74681E+02
 -1.64206E+03 -4.45743E+03  2.27836E+03 -3.48425E+03  3.46134E+03 -1.62598E+03  3.11242E+03  1.20706E+03
  2.35327E+03  2.23684E+03  1.64058E+03  5.28827E+02 -4.82891E+02  1.50426E+03  1.69559E+03  3.60533E+02
  2.02966E+03 -9.59055E+02  2.97817E+03  1.27175E+03  1.22718E+03  4.10296E+03 -1.06141E+03  6.06991E+03
 -4.38200E+03  3.29282E+03 -5.57563E+03  1.30537E+03 -4.76947E+03 -2.02211E+03 -1.62018E+03 -3.32657E+03
  1.00500E+03 -3.39195E+03  3.12821E+03 -1.21795E+03  1.49910E+03  1.93892E+03 -1.78147E+03  2.86949E+03
 -3.19938E+03  1.83284E+03 -3.56829E+03 -2.20258E+03 -1.73250E+03 -4.90771E+03  9.90845E+02 -4.77632E+03
  2.00171E+03 -2.26992E+03  2.14196E+03  1.40183E+02  2.47935E+03  7.88483E+02  3.16404E+02  2.63391E+03
 -2.01283E+03  9.31364E+02 -2.12827E+03 -1.47623E+03  1.39069E+03 -3.52030E+03  4.33474E+03 -2.43100E+03
  5.11312E+03  4.75758E+02  5.31054E+03  2.88190E+03  2.01304E+03  5.56941E+03 -1.56061E+03  5.22684E+03
 -4.11316E+03  1.92140E+03 -4.32189E+03 -1.33212E+03 -2.09842E+03 -3.57956E+03  1.07824E+03 -3.06064E+03
  3.95593E+03 -1.40299E+03  1.74246E+03  1.64072E+03  1.03079E+03  3.18919E+03 -4.74984E+02  2.68464E+03
 -1.38824E+03  1.56062E+03 -8.12221E+02  5.94051E+02 -5.68908E+02  4.17030E+02 -1.39842E+03  5.52211E+02
 -7.03240E+02  1.77707E+03 -3.61265E+03  1.77565E+03 -5.53079E+03  5.63932E+02 -5.74465E+03 -3.36684E+03
 -2.62689E+03 -6.26612E+03  1.41675E+03 -7.42215E+03  4.75275E+03 -6.57159E+03  7.53563E+03 -1.58304E+03
  6.79628E+03  1.59666E+03  3.82273E+03  4.18878E+03  1.26316E+02  4.43471E+03 -2.15698E+03  3.95672E+03
 -3.02391E+03  1.16600E+03 -1.26800E+03 -7.44958E+02 -4.68967E+02 -3.74231E+01 -1.17069E+03  2.30542E+02
 -1.10658E+03  5.16066E+02 -1.31392E+03  3.78056E+02 -5.34772E+02 -1.83339E+03  4.53424E+02 -2.09152E+03
  2.23067E+03 -1.28638E+03  3.37360E+03 -9.62787E+01  3.39064E+03  2.76353E+03  2.43622E+02  5.46928E+03
 -2.85360E+03  5.75596E+03 -5.11054E+03  3.46274E+03 -5.69373E+03 -9.23178E+02 -3.76515E+03 -3.80515E+03
 -2.21538E+03 -5.04396E+03  1.45832E+03 -4.07592E+03  3.58022E+03 -2.56457E+03  2.88333E+03 -3.07157E+02
  2.23501E+03  1.35810E+03 -2.96436E+00  1.17058E+03 -8.83023E+02  6.70421E+02  2.41372E+02 -9.47317E+02
  1.84039E+03 -3.94768E+02  2.05040E+03  5.58136E+02  1.32999E+03  1.45881E+03  6.57793E+02  1.68634E+03
 -2.25077E+03  2.30213E+03 -2.56336E+03  5.98135E+02 -2.77742E+03 -2.18809E+03 -1.66353E+02 -3.88584E+03
  2.06645E+03 -3.22224E+03  3.14235E+03 -1.10900E+03  3.49580E+03  4.27028E+02  1.54628E+03  2.60074E+03
  3.24311E+02  3.77832E+03 -9.95530E+02  1.95288E+03 -1.71872E+03  9.91550E+02 -1.71519E+03  4.46543E+02
 -9.01499E+02  4.36988E+02 -1.00643E+03  8.78974E+02 -1.92658E+03  8.00149E+02 -2.63025E+03 -1.05274E+03
 -2.71960E+03 -1.53065E+03 -9.98046E+02 -3.38155E+03  1.75118E+03 -3.44627E+03  2.62346E+03 -1.14334E+03
  2.76508E+03 -8.46387E+01  1.05106E+03  1.25028E+03 -1.71934E+02  2.42181E+03 -1.52052E+03  2.37343E+03
