 $NMID ID='MM_0lb_SNR400_12hz_g40_13.RAW', FMTDAT='(8E13.5)'
 TRAMP=1., VOLUME=1. $END
  3.09691E+05 -1.43262E+02  3.37160E+05  2.50358E+05  8.42438E+04  3.37830E+05 -1.32566E+05  2.51608E+05
 -1.89927E+05  8.28855E+04 -1.11708E+05 -3.23442E+04  2.08330E+02 -5.02974E+04  5.37421E+04  1.08327E+02
  3.54866E+04  5.22224E+04 -1.64812E+04  7.45562E+04 -6.02141E+04  6.38535E+04 -8.40288E+04  3.22232E+04
 -8.13227E+04 -1.06028E+04 -5.76673E+04 -5.20325E+04 -1.47226E+04 -6.99395E+04  2.76132E+04 -4.59873E+04
  4.08504E+04  3.85499E+03  1.61302E+04  4.80279E+04 -3.47423E+04  4.70793E+04 -6.71262E+04 -1.97598E+02
 -5.36810E+04 -5.71836E+04 -6.45137E+03 -7.73174E+04  3.39414E+04 -5.51520E+04  4.85124E+04 -1.77583E+04
  4.41303E+04  1.05782E+04  3.16928E+04  2.56512E+04  1.57016E+04  2.94411E+04 -5.71690E+03  2.79948E+04
 -2.14200E+04  1.24191E+04 -1.83788E+04 -5.65672E+03  6.01328E+03 -7.45362E+03  2.24718E+04  1.25242E+04
  6.77695E+03  3.54448E+04 -3.27089E+04  3.59250E+04 -6.36708E+04  2.11772E+03 -5.77861E+04 -4.33194E+04
 -1.23518E+04 -6.39280E+04  3.98384E+04 -4.55766E+04  5.89742E+04 -2.08322E+03  3.44738E+04  3.25148E+04
 -6.51066E+03  3.65092E+04 -3.00633E+04  1.63661E+04 -3.07796E+04 -4.47966E+03 -1.75797E+04 -1.10906E+04
 -8.56872E+03 -1.32448E+04 -6.66736E+02 -1.81345E+04  7.69438E+03 -2.33717E+04  1.59482E+04 -1.42076E+04
  1.12502E+04  5.28996E+03 -8.78898E+03  1.27205E+04 -2.11869E+04 -4.81744E+03 -8.36766E+03 -3.43683E+04
  2.35697E+04 -4.33722E+04  4.89582E+04 -1.94473E+04  4.54904E+04  1.99378E+04  1.62311E+04  4.42865E+04
 -1.54772E+04  3.37420E+04 -2.50037E+04  1.83246E+03 -1.05375E+04 -2.85114E+04  2.12299E+04 -3.45122E+04
  4.14482E+04 -8.92482E+03  3.66081E+04  2.40237E+04  1.83429E+04  4.68162E+04 -8.08642E+03  5.16259E+04
 -3.29305E+04  3.43501E+04 -4.35733E+04  1.06722E+04 -4.33687E+04 -1.63699E+04 -2.44752E+04 -3.82144E+04
  7.46036E+03 -3.85653E+04  3.20149E+04 -1.52390E+04  3.02366E+04  1.05259E+04  4.29951E+03  1.93905E+04
 -1.31129E+04  8.34119E+03 -1.06069E+04 -8.21491E+03  5.11512E+03 -1.09486E+04  1.74710E+04  5.73637E+03
  1.34217E+04  2.19449E+04 -5.75129E+03  2.54114E+04 -2.23480E+04  1.25633E+04 -2.79678E+04 -4.27315E+03
 -2.16908E+04 -1.78122E+04 -8.88562E+03 -2.14330E+04  4.38268E+03 -2.06634E+04  1.68697E+04 -1.90290E+04
  2.72338E+04 -1.33206E+04  3.33249E+04  3.76509E+03  2.41488E+04  2.11713E+04  4.49393E+03  3.76836E+04
 -1.81724E+04  3.16566E+04 -2.83748E+04  1.05348E+04 -2.10004E+04 -1.00730E+04 -5.32306E+03 -1.32237E+04
  1.35402E+03 -2.92034E+03 -5.30681E+03  6.81122E+03 -1.71117E+04  5.14437E+03 -1.75899E+04 -7.51530E+03
 -9.99353E+03 -2.02724E+04  6.03889E+03 -2.43845E+04  1.58602E+04 -1.77957E+04  1.85471E+04 -1.96183E+03
  1.22881E+04  1.41370E+04 -7.62988E+02  1.99512E+04 -1.33882E+04  1.21925E+04 -2.02226E+04 -4.38587E+03
 -1.44822E+04 -1.77609E+04 -1.80505E+03 -2.36307E+04  1.13872E+04 -1.93527E+04  1.97641E+04 -9.80924E+03
  1.83643E+04  1.96728E+01  1.34436E+04  4.86488E+03  7.36185E+03  4.18253E+02  1.04589E+04 -1.37517E+03
  1.79975E+04  3.40503E+03  2.03938E+04  1.58031E+04  1.33255E+04  3.24924E+04 -3.10989E+03  3.63532E+04
 -2.06114E+04  2.96544E+04 -3.44381E+04  1.43107E+04 -3.57622E+04 -2.54456E+03 -2.92261E+04 -2.11596E+04
 -1.25404E+04 -2.97856E+04  1.02901E+04 -2.61682E+04  2.31488E+04 -1.33069E+04  2.00098E+04  5.84183E+03
  7.48814E+03  1.53565E+04 -9.24744E+03  1.24464E+04 -1.70103E+04  3.25132E+03 -1.21614E+04 -1.13550E+04
 -1.78686E+02 -1.59229E+04  8.89850E+03 -1.13975E+04  1.08985E+04 -8.95122E+02  2.68808E+03  7.19456E+03
 -6.83967E+03  3.07669E+03 -6.70253E+03 -5.36973E+03 -5.13831E+02 -1.46358E+04  1.07627E+04 -1.50461E+04
  1.85510E+04 -8.42601E+03  2.00227E+04  2.98979E+03  1.73679E+04  1.44497E+04  8.01305E+03  2.24589E+04
 -3.45168E+03  2.45323E+04 -1.51215E+04  1.55661E+04 -1.72718E+04  3.42096E+03 -1.18595E+04 -4.62034E+03
 -5.20139E+03 -5.33376E+03 -5.59664E+02  1.21776E+03 -2.00067E+03  3.04443E+03 -5.86872E+03  4.62494E+03
 -1.22601E+04 -1.90356E+02 -1.25034E+04 -9.44710E+03 -4.08796E+03 -1.63760E+04  4.39593E+03 -1.21765E+04
  1.03035E+04 -4.75957E+03  7.15024E+03  3.31043E+03 -4.70356E+02  4.76597E+03 -6.29434E+03 -6.28756E+01
 -5.52774E+03 -7.85348E+03 -4.46539E+02 -1.18354E+04  6.84481E+03 -1.27181E+04  1.56008E+04 -6.52602E+03
  1.89086E+04  1.40679E+03  1.30907E+04  1.08884E+04  2.40168E+03  1.43014E+04 -7.77735E+03  1.24289E+04
 -9.53663E+03  3.67305E+03 -5.34028E+03 -2.52536E+03  1.46623E+03 -2.81406E+03  6.65130E+03 -4.20390E+02
  6.14984E+03  5.35590E+03  1.17334E+03  8.95486E+03 -6.83956E+03  8.82480E+03 -1.14283E+04  2.71710E+03
 -8.18154E+03 -6.20162E+03  6.00680E+02 -9.97386E+03  6.31426E+03 -5.70766E+03  6.49812E+03  2.23304E+03
  1.24589E+03  5.95486E+03 -6.78815E+03  8.87791E+03 -9.94365E+03  4.07670E+03 -9.95243E+03 -3.48209E+03
 -5.55703E+03 -1.08520E+04  2.26462E+03 -1.32342E+04  1.11230E+04 -8.17407E+03  1.18969E+04  2.44933E+03
  7.38255E+03  9.78073E+03 -8.03021E+02  1.22453E+04 -9.06461E+03  6.27754E+03 -9.70048E+03 -6.21862E+02
 -8.70780E+03 -8.23068E+03 -2.08690E+03 -8.86379E+03  4.68245E+03 -7.87204E+03  5.65947E+03 -3.79833E+03
  3.52601E+03  1.27889E+03 -5.79621E+02  1.45447E+03 -2.26617E+02 -2.50661E+03  1.27567E+03 -5.44202E+03
  7.75375E+03 -2.59505E+03  1.14400E+04  1.06258E+03  1.08466E+04  7.08989E+03  8.14331E+03  1.48774E+04
 -2.73935E+03  1.62470E+04 -1.41965E+04  1.30723E+04 -1.88412E+04  2.76836E+03 -1.44443E+04 -5.63121E+03
 -8.12806E+03 -1.22318E+04 -2.61314E+02 -1.03453E+04  3.39181E+03 -5.41431E+03  3.61896E+03 -3.48484E+03
  3.07959E+03 -2.97284E+03  3.20143E+03 -3.10921E+03  4.71037E+03 -2.50265E+03  6.37118E+03 -1.70378E+01
  7.88409E+03  1.70632E+03  3.66841E+03  6.59225E+03 -1.98003E+03  7.75125E+03 -8.66693E+03  5.83880E+03
 -9.70964E+03 -1.47588E+03 -5.59909E+03 -6.93214E+03 -4.96464E+02 -1.06856E+04  6.12892E+03 -1.14889E+04
  1.09535E+04 -5.88197E+03  1.31022E+04  1.36719E+03  8.71374E+03  9.81993E+03  1.91794E+03  1.21675E+04
 -4.49472E+03  9.99794E+03 -7.70912E+03  3.44425E+03 -4.71799E+03 -1.86564E+03 -1.99724E+03 -1.79932E+03
 -7.56879E+02 -7.75482E+01 -1.48434E+03  3.10596E+03 -3.98390E+03  1.72215E+03 -6.96509E+03 -6.35130E+02
 -4.91376E+03 -6.95649E+03  5.83257E+02 -9.05939E+03  6.18539E+03 -8.74271E+03  9.29481E+03 -2.81988E+03
  9.19010E+03  4.12593E+03  4.59164E+03  8.09044E+03 -1.73241E+03  9.33950E+03 -6.80870E+03  5.25673E+03
 -8.73024E+03  4.46807E+02 -7.68023E+03 -6.25049E+03 -7.76851E+02 -8.06176E+03  4.40189E+03 -5.50417E+03
  6.17947E+03 -2.00386E+03  4.00129E+03  1.80563E+03  1.58738E+03  2.91831E+03  1.60494E+03  1.14454E+03
  2.33119E+03  4.35365E+02  2.94825E+03  1.45849E+03  2.29032E+03  3.59748E+03  2.53773E+03  4.60761E+03
 -1.97912E+03  7.65391E+03 -6.69886E+03  8.05032E+03 -9.59329E+03  1.75304E+03 -1.01400E+04 -4.02701E+03
 -4.48526E+03 -9.72001E+03  1.59499E+03 -1.09301E+04  5.77705E+03 -6.18434E+03  7.34293E+03 -2.08823E+03
  6.14673E+03  4.06706E+03  3.05129E+02  5.71462E+03 -2.97027E+03  2.70517E+03 -4.04980E+03 -5.93955E+02
 -2.48092E+03 -3.42375E+03  2.81218E+03 -4.43558E+03  3.26521E+03 -2.22641E+03  3.95105E+03  8.08318E+02
  1.62549E+03  2.35619E+03  1.02121E+03  1.62746E+03 -6.39102E+02  1.54944E+03  1.89162E+03  2.69955E+02
  1.46575E+03 -1.23817E+02  3.59882E+03  1.62009E+03  1.42923E+03  5.43248E+03 -1.04260E+03  6.74514E+03
 -4.01425E+03  3.68597E+03 -6.12886E+03  1.41522E+03 -5.04812E+03 -2.40984E+03 -2.01787E+03 -3.39725E+03
  6.79117E+02 -4.25309E+03  2.42235E+03 -1.73418E+03  1.17460E+03  1.26814E+03 -7.52252E+02  2.86721E+03
 -3.57145E+03  1.94347E+03 -4.62923E+03 -3.09540E+03 -1.71889E+03 -4.96359E+03  6.63242E+02 -5.45304E+03
  3.42179E+03 -3.25754E+03  3.38290E+03  3.89005E+01  3.07983E+03  8.74425E+02  7.69212E+01  3.48786E+03
 -1.51865E+03  3.95598E+02 -2.34928E+03 -2.01968E+03  1.49495E+03 -3.75045E+03  4.11323E+03 -2.72581E+03
  5.65726E+03  1.00152E+03  6.84456E+03  3.14919E+03  1.77239E+03  5.93227E+03 -1.23447E+03  5.35810E+03
 -4.60209E+03  2.73788E+03 -4.94525E+03 -1.57602E+03 -2.13252E+03 -3.48764E+03  9.49148E+02 -3.54880E+03
  3.94433E+03 -1.97919E+03  2.39570E+03  1.44721E+03  6.40361E+02  3.65306E+03 -1.68905E+00  3.20647E+03
 -8.42741E+02  2.59196E+03 -1.95159E+03  4.97046E+02 -6.40894E+02  8.14915E+02 -1.06240E+03  8.90477E+02
 -1.29976E+03  2.04548E+03 -3.83400E+03  1.94945E+03 -5.46490E+03 -2.12055E+02 -6.02216E+03 -3.43168E+03
 -3.64823E+03 -6.80998E+03  1.19748E+03 -8.12841E+03  4.61245E+03 -7.06351E+03  8.37755E+03 -2.06607E+03
  7.72508E+03  8.41118E+02  4.64256E+03  5.47483E+03  2.93792E+02  6.18122E+03 -2.11664E+03  5.00899E+03
 -3.57091E+03  1.74004E+03 -1.37638E+03 -1.45811E+03 -8.37852E+02  4.50263E+01 -1.05862E+03  4.22356E+02
 -1.26445E+03 -8.90921E+01 -1.33502E+03  4.62698E+02  2.85095E+01 -1.34045E+03  2.10716E+02 -2.10201E+03
  2.88463E+03 -1.44714E+03  4.23267E+03  3.90783E+02  3.74773E+03  3.15667E+03  1.44924E+02  5.47182E+03
 -2.56655E+03  6.68894E+03 -5.78046E+03  4.50542E+03 -7.31869E+03 -5.81153E+02 -5.53615E+03 -4.70022E+03
 -2.16087E+03 -5.10605E+03  1.91864E+03 -5.45098E+03  3.45656E+03 -2.45596E+03  3.22712E+03  5.26393E+01
  1.48019E+03  1.77054E+03  2.33952E+02  1.69671E+03 -7.59627E+02 -1.64563E+02 -7.43814E+02 -1.78205E+03
  1.90911E+03 -9.82631E+02  2.22305E+03  3.90507E+02  1.20283E+03  1.99477E+03  4.25675E+02  3.13524E+03
 -2.31276E+03  2.32990E+03 -3.57458E+03  2.51389E+02 -3.15753E+03 -2.48381E+03 -8.68194E+02 -4.40894E+03
  1.99488E+03 -3.52846E+03  3.53511E+03 -4.49287E+02  4.11284E+03  5.03895E+02  2.76342E+03  3.06238E+03
  2.60757E+02  3.80860E+03 -1.63729E+03  2.73660E+03 -2.04067E+03  1.83925E+03 -1.82009E+03  7.44996E+02
 -1.08919E+03 -4.48992E+02 -5.47157E+02 -2.89514E+02 -2.40391E+03 -1.96952E+01 -2.79340E+03 -2.91718E+01
 -2.63772E+03 -1.47770E+03 -1.46335E+03 -3.63342E+03  1.50490E+03 -3.83791E+03  2.93916E+03 -1.51649E+03
  3.76824E+03 -2.74245E+02  1.77045E+03  1.54307E+03 -4.02749E+02  3.88834E+03 -2.39115E+03  2.73857E+03
