 $NMID ID='MM_0lb_SNR400_20hz_g55_42.RAW', FMTDAT='(8E13.5)'
 TRAMP=1., VOLUME=1. $END
  3.09632E+05  1.63651E+02  3.37329E+05  2.50686E+05  8.41782E+04  3.37099E+05 -1.32605E+05  2.50409E+05
 -1.89917E+05  8.19325E+04 -1.11134E+05 -3.26236E+04  1.60524E+03 -4.99807E+04  5.33597E+04 -5.56174E+01
  3.50219E+04  5.31041E+04 -1.74070E+04  7.51082E+04 -6.02311E+04  6.34415E+04 -8.30562E+04  3.18918E+04
 -7.96235E+04 -1.08608E+04 -5.64661E+04 -5.05884E+04 -1.49188E+04 -6.80383E+04  2.66969E+04 -4.52801E+04
  3.90030E+04  4.20671E+03  1.50033E+04  4.70437E+04 -3.37756E+04  4.67194E+04 -6.57137E+04 -1.65461E+02
 -5.21532E+04 -5.56175E+04 -6.01470E+03 -7.52047E+04  3.38280E+04 -5.32668E+04  4.63908E+04 -1.67140E+04
  4.18429E+04  1.11036E+04  3.09061E+04  2.46950E+04  1.60262E+04  2.85808E+04 -4.99587E+03  2.66450E+04
 -2.17873E+04  1.31799E+04 -1.93792E+04 -4.31073E+03  4.60490E+03 -7.66594E+03  2.13046E+04  1.09903E+04
  7.32321E+03  3.37428E+04 -3.09608E+04  3.42670E+04 -6.08543E+04  2.38541E+03 -5.54957E+04 -4.16625E+04
 -1.22151E+04 -6.10715E+04  3.77168E+04 -4.39821E+04  5.56053E+04 -2.04415E+03  3.13248E+04  3.05678E+04
 -6.35977E+03  3.34055E+04 -2.80803E+04  1.37400E+04 -2.76965E+04 -4.85269E+03 -1.44164E+04 -1.00600E+04
 -7.76260E+03 -1.18443E+04 -6.43924E+02 -1.69797E+04  6.63931E+03 -2.26031E+04  1.51099E+04 -1.39146E+04
  1.23991E+04  4.60180E+03 -6.38307E+03  1.31682E+04 -1.95595E+04 -2.20684E+03 -8.14549E+03 -3.05313E+04
  2.04879E+04 -4.02630E+04  4.50597E+04 -1.87687E+04  4.21231E+04  1.86920E+04  1.39199E+04  4.20331E+04
 -1.52731E+04  3.11340E+04 -2.32070E+04  1.18021E+03 -8.22412E+03 -2.66601E+04  2.02299E+04 -3.09600E+04
  3.76871E+04 -7.44839E+03  3.09580E+04  2.20746E+04  1.51818E+04  4.27706E+04 -7.80576E+03  4.51495E+04
 -2.82471E+04  2.95703E+04 -3.72892E+04  8.30339E+03 -3.74286E+04 -1.47704E+04 -2.19605E+04 -3.50160E+04
  6.91238E+03 -3.44676E+04  2.91036E+04 -1.29728E+04  2.72217E+04  1.04921E+04  2.78148E+03  1.77689E+04
 -1.31753E+04  7.74544E+03 -9.26372E+03 -7.48626E+03  6.24109E+03 -1.02473E+04  1.70749E+04  6.41517E+03
  1.22988E+04  2.17822E+04 -7.26783E+03  2.30791E+04 -2.13867E+04  9.11766E+03 -2.47494E+04 -6.40294E+03
 -1.66692E+04 -1.65607E+04 -5.48477E+03 -1.68300E+04  3.72501E+03 -1.45772E+04  1.23177E+04 -1.41866E+04
  2.09977E+04 -1.14285E+04  2.77082E+04  1.34433E+03  2.13835E+04  1.61737E+04  4.10954E+03  3.20510E+04
 -1.63388E+04  2.74535E+04 -2.59173E+04  8.91427E+03 -1.96711E+04 -1.05214E+04 -3.79964E+03 -1.37374E+04
  2.60093E+03 -3.94572E+03 -2.38452E+03  5.60675E+03 -1.29332E+04  5.17986E+03 -1.29321E+04 -5.79957E+03
 -8.38598E+03 -1.51846E+04  4.20276E+03 -1.90990E+04  1.26868E+04 -1.42989E+04  1.43207E+04 -1.64126E+03
  8.79128E+03  1.03193E+04 -3.44148E+02  1.56896E+04 -1.01431E+04  9.06640E+03 -1.51476E+04 -3.75615E+03
 -1.15116E+04 -1.36864E+04 -1.57244E+03 -1.85210E+04  8.78678E+03 -1.43416E+04  1.61074E+04 -6.95087E+03
  1.43825E+04  7.98086E+02  1.00154E+04  3.84070E+03  5.07556E+03  2.89555E+02  7.42836E+03 -1.12293E+03
  1.31498E+04  2.68457E+03  1.42389E+04  1.24260E+04  8.33952E+03  2.41167E+04 -3.20568E+03  2.55642E+04
 -1.56856E+04  1.91374E+04 -2.35176E+04  9.15847E+03 -2.45829E+04 -1.13634E+03 -2.05797E+04 -1.35399E+04
 -1.04820E+04 -1.98746E+04  5.99000E+03 -1.82764E+04  1.59328E+04 -1.03936E+04  1.54096E+04  2.98257E+03
  6.24028E+03  1.09075E+04 -6.81289E+03  1.02430E+04 -1.21823E+04  2.48656E+03 -1.03314E+04 -7.21399E+03
 -1.16914E+01 -1.21131E+04  5.88461E+03 -8.92450E+03  7.25608E+03 -1.26035E+03  1.48914E+03  4.95408E+03
 -5.25715E+03  1.49928E+03 -3.99286E+03 -4.75980E+03  1.00681E+03 -1.01219E+04  7.51171E+03 -9.42124E+03
  1.17438E+04 -4.09708E+03  1.14080E+04  2.47437E+03  9.88200E+03  8.80157E+03  4.25191E+03  1.33271E+04
 -1.58419E+03  1.49471E+04 -9.34773E+03  9.85317E+03 -1.04027E+04  2.62999E+03 -8.03257E+03 -1.13654E+03
 -4.52876E+03 -3.38760E+03 -4.96993E+02  1.93149E+03 -2.93649E+03  1.74695E+03 -3.21829E+03  3.14656E+03
 -7.77114E+03 -4.01507E+02 -8.53848E+03 -7.43205E+03 -3.20506E+03 -1.15649E+04  3.43170E+03 -8.26237E+03
  7.03946E+03 -3.77992E+03  5.11096E+03  2.04725E+03  2.90803E+02  2.60729E+03 -2.68173E+03 -2.15423E+02
 -2.64406E+03 -5.33270E+03 -8.34016E+02 -6.56908E+03  4.35495E+03 -7.27395E+03  9.00560E+03 -3.73008E+03
  1.08713E+04  2.37300E+02  8.17847E+03  5.65390E+03  2.11783E+03  7.72352E+03 -4.79422E+03  7.85057E+03
 -6.50955E+03  2.51268E+03 -3.36866E+03 -1.32959E+03  1.26408E+03 -1.52336E+03  4.76104E+03 -5.86223E+02
  4.35320E+03  3.68705E+03  1.15329E+03  5.92318E+03 -4.13823E+03  6.27439E+03 -7.38621E+03  1.29705E+03
 -4.86803E+03 -3.45731E+03  8.53998E+01 -6.59253E+03  3.79717E+03 -2.98851E+03  3.09731E+03  6.44397E+02
  9.02549E+02  3.18937E+03 -3.78282E+03  4.40961E+03 -4.37760E+03  2.34859E+03 -3.51268E+03 -8.50775E+02
 -2.07195E+03 -5.63957E+03  6.61550E+02 -6.54853E+03  5.76569E+03 -3.83356E+03  5.80307E+03  1.31461E+03
  3.93927E+03  5.10184E+03  6.09732E+01  6.69741E+03 -4.41373E+03  4.14337E+03 -4.81519E+03 -2.66255E+02
 -4.75008E+03 -5.17968E+03 -1.13129E+03 -4.22724E+03  2.18823E+03 -3.69208E+03  2.51445E+03 -2.51733E+03
  2.81156E+03  6.71717E+01  3.38967E+01  1.21427E+03  5.95654E+02  1.30949E+02  2.13396E+02 -1.41751E+03
  3.40921E+03 -2.87540E+02  3.96812E+03  2.97893E+02  4.81204E+03  2.45178E+03  4.97643E+03  5.96331E+03
 -9.38765E+02  7.62249E+03 -6.55567E+03  5.63758E+03 -8.77717E+03  8.78790E+02 -6.74219E+03 -2.59777E+03
 -3.77711E+03 -6.11589E+03  1.43308E+02 -4.27140E+03  2.33806E+03 -1.94479E+03  1.51939E+03 -2.32756E+03
  9.26298E+02 -1.74799E+03  2.03121E+03 -2.40762E+03  2.99503E+03 -9.30370E+02  3.80386E+03  5.79781E+02
  4.19821E+03  1.23502E+03  7.01051E+02  2.87414E+03 -1.19565E+03  2.48535E+03 -3.98884E+03  1.79275E+03
 -4.28404E+03 -7.87768E+02 -1.14205E+03 -3.01049E+03  5.00342E+02 -4.05818E+03  2.31300E+03 -4.66140E+03
  4.21159E+03 -3.16877E+03  5.86634E+03 -1.04973E+02  4.34794E+03  3.63828E+03  1.31444E+03  5.16465E+03
 -1.56802E+03  4.94359E+03 -2.76635E+03  1.19800E+03 -1.57570E+03 -6.83580E+02 -2.93588E+02 -4.67220E+02
 -2.22624E+02  1.73433E+02 -9.81400E+02  1.68056E+03 -2.86616E+03  9.75549E+02 -3.95695E+03 -2.63672E+02
 -1.19465E+03 -3.53671E+03  7.00055E+02 -3.63943E+03  2.22643E+03 -3.65517E+03  2.28555E+03 -7.77281E+02
  3.13956E+03  1.76962E+03  1.91987E+03  2.23134E+03 -4.77175E+02  3.54840E+03 -2.17275E+03  2.19179E+03
 -3.06976E+03  6.53064E+02 -3.41742E+03 -1.97678E+03 -4.65579E+02 -2.77014E+03  1.04568E+03 -2.06873E+03
  1.95171E+03 -1.52567E+03  8.99853E+02  1.94797E+02  1.03893E+03  1.22884E+03  3.40383E+02  7.05258E+02
  1.58939E+03  1.86567E+02  9.01732E+02  8.90810E+02  1.21951E+03  2.05996E+03  1.16322E+03  1.31681E+03
 -1.20521E+03  2.82189E+03 -2.11429E+03  3.33599E+03 -2.01229E+03  1.24932E+03 -2.99075E+03 -1.07888E+02
 -1.05516E+03 -3.06422E+03  1.00252E+03 -3.87115E+03  1.51736E+03 -2.13184E+03  2.35929E+03 -7.11576E+02
  1.75975E+03  1.68406E+03 -2.13823E+00  1.94941E+03 -5.01426E+02  1.02128E+03 -1.37097E+03  3.51115E+02
 -2.79652E+02 -1.27940E+03  1.32351E+03 -4.87651E+02  9.26587E+02 -1.00277E+03  1.08618E+03 -4.76555E+02
  4.17862E+02  5.53280E+02  8.12573E+02 -9.90116E+02 -8.23127E+02  5.31890E+02  1.63847E+03 -4.16212E+02
 -2.54518E+02 -3.70899E+02  1.79700E+03  6.39596E+02  1.26571E+02  1.60460E+03 -9.40886E+01  2.20277E+03
 -7.19462E+02  7.95343E+02 -1.59232E+03  3.95851E+02 -1.33792E+03 -1.00112E+02 -1.03763E+02 -6.46052E+02
  2.92176E+02 -1.09188E+03  6.41930E+02 -5.77345E+02  1.48257E+02  1.06001E+03 -5.61636E+02  1.04323E+03
 -1.02476E+03  1.03582E+03 -9.64702E+02 -1.63830E+03 -8.11719E+02 -1.76083E+03  2.04673E+02 -1.27830E+03
 -9.77340E+00 -4.00928E+02  1.04114E+02 -2.07712E+02  1.44679E+03 -7.88584E+02  1.86903E+02  8.97387E+02
  2.80071E+02 -3.36274E+02 -8.64756E+02 -2.71150E+02  6.32228E+02 -5.64026E+02  1.61926E+03 -7.41198E+02
  7.07957E+02  5.48524E+02  2.04336E+03  6.47443E+02  1.56483E+03  1.47789E+03  2.54579E+02  1.24321E+03
 -1.24469E+03 -1.79508E+02 -9.08990E+02  2.58838E+02 -3.25646E+02 -1.28528E+03  7.00762E+02  2.23070E+00
  1.08897E+03 -5.09441E+02  4.66657E+02  3.83596E+02  5.77178E+01  1.05762E+03  2.34657E+02  8.38543E+02
 -7.73460E+02  1.22102E+03 -3.35656E+02  3.16530E+02 -1.65291E+02  8.94495E+01 -6.82669E+02  4.13573E+02
 -8.77085E+02  9.37108E+02 -1.32741E+03  7.78592E+02 -1.29599E+03  4.07049E+02 -1.62938E+03 -6.63260E+02
 -9.30175E+02 -1.68963E+03  5.24065E+02 -2.00923E+03  2.89287E+02 -2.46233E+03  1.54998E+03 -8.89523E+02
  1.31728E+03 -4.03087E+01  1.14790E+03  1.32302E+03 -5.08754E+02  5.43693E+02 -4.28089E+02  5.73456E+02
 -5.54618E+02  1.08092E+03 -3.92033E+02 -3.38109E+02 -2.15599E+02  1.25707E+02 -1.14687E+03 -6.19547E+02
 -8.56421E+02 -2.44525E+02 -1.26404E+03 -5.18846E+02  4.72582E+02 -5.48685E+02 -4.17988E+02 -2.63329E+02
  1.44336E+03 -4.60927E+02 -3.01794E+01  4.37883E+02  4.32730E+02  1.02768E+03 -5.70789E+02  9.38067E+02
 -6.89787E+02  1.79827E+03 -1.50302E+03  1.00247E+03 -7.20679E+02 -2.27221E+02 -6.53821E+02 -1.06847E+03
 -1.03229E+02 -1.00852E+03  5.83109E+02 -7.15891E+02  2.75211E+02 -3.36574E+02  5.09563E+02  5.39783E+02
  5.98979E+02  1.84852E+02  4.54083E+02  5.63265E+02 -3.70099E+02 -3.21394E+02 -5.35818E+02 -2.84460E+02
  2.20621E+02  3.05053E+02 -1.10092E+02  5.21389E+02 -4.93216E+02  4.13162E+02  4.32445E+02  4.18155E+02
  2.58945E+01  3.71978E+02 -4.80466E+02  4.35644E+02 -5.46584E+02  2.43143E+02  1.31447E+02 -5.23893E+02
  1.70888E+02 -5.65500E+01  3.30532E+02  3.90419E+02  1.38590E+02 -4.99278E+02  2.99288E+02  2.70664E+02
  6.09679E+02  3.67879E+02  2.51902E+02  1.41552E+02 -6.63756E+02  3.90548E+02 -3.99426E+02  1.34200E+00
  7.34794E+02  2.97291E+02 -4.44812E+02 -2.12245E+02 -6.07212E+02  2.06077E+01 -5.25243E+02 -6.12011E+02
 -6.95232E+02  4.96468E+02 -8.41285E+02 -5.18656E+02  4.28004E+02 -1.38967E+03  8.13672E+02 -1.74566E+02
  3.42811E+02  1.63341E+01 -1.93404E+02 -2.39738E+02 -1.37826E+02  5.89310E+01 -1.37331E+02  5.26264E+02
