 $NMID ID='MM_0lb_SNR400_16hz_g40_23.RAW', FMTDAT='(8E13.5)'
 TRAMP=1., VOLUME=1. $END
  3.09990E+05  3.58389E+02  3.37628E+05  2.50218E+05  8.51268E+04  3.37069E+05 -1.32398E+05  2.50170E+05
 -1.90148E+05  8.28870E+04 -1.11432E+05 -3.29325E+04  1.44043E+03 -5.03681E+04  5.41765E+04  4.84595E+02
  3.51263E+04  5.28136E+04 -1.72261E+04  7.57497E+04 -6.05885E+04  6.32997E+04 -8.33380E+04  3.20560E+04
 -7.97216E+04 -1.16033E+04 -5.64108E+04 -5.02272E+04 -1.43364E+04 -6.81851E+04  2.66622E+04 -4.49835E+04
  3.95205E+04  3.39090E+03  1.57629E+04  4.68256E+04 -3.36369E+04  4.67686E+04 -6.57716E+04 -5.53880E+01
 -5.24221E+04 -5.58308E+04 -6.70747E+03 -7.56923E+04  3.29897E+04 -5.38719E+04  4.68662E+04 -1.67493E+04
  4.23130E+04  1.09182E+04  3.09391E+04  2.47809E+04  1.55410E+04  2.86764E+04 -4.27389E+03  2.71895E+04
 -2.08288E+04  1.27629E+04 -1.88155E+04 -4.79100E+03  5.17792E+03 -7.75522E+03  2.13398E+04  1.14294E+04
  7.76667E+03  3.35521E+04 -3.11049E+04  3.51458E+04 -6.14810E+04  1.79644E+03 -5.56074E+04 -4.17512E+04
 -1.25292E+04 -6.16422E+04  3.86838E+04 -4.40527E+04  5.62230E+04 -2.26567E+03  3.23847E+04  3.09140E+04
 -6.74013E+03  3.42087E+04 -2.89592E+04  1.41476E+04 -2.79008E+04 -4.56002E+03 -1.51090E+04 -1.05421E+04
 -7.46532E+03 -1.13246E+04 -1.23347E+03 -1.67755E+04  6.99064E+03 -2.27684E+04  1.48155E+04 -1.38316E+04
  1.19025E+04  4.36691E+03 -6.88311E+03  1.21658E+04 -1.98367E+04 -3.15774E+03 -8.02053E+03 -3.14858E+04
  2.12599E+04 -4.16476E+04  4.55730E+04 -1.89615E+04  4.31738E+04  1.88808E+04  1.47300E+04  4.24114E+04
 -1.51923E+04  3.15683E+04 -2.43145E+04  1.68301E+03 -9.17385E+03 -2.73295E+04  2.02967E+04 -3.17156E+04
  3.89561E+04 -8.08625E+03  3.23638E+04  2.31030E+04  1.62840E+04  4.40275E+04 -7.89667E+03  4.65777E+04
 -2.96320E+04  3.12945E+04 -3.88887E+04  8.60271E+03 -3.96073E+04 -1.54128E+04 -2.18231E+04 -3.63409E+04
  6.50091E+03 -3.54904E+04  2.96772E+04 -1.37400E+04  2.76085E+04  1.03691E+04  3.11118E+03  1.80316E+04
 -1.32526E+04  7.39867E+03 -9.71727E+03 -7.73283E+03  6.37199E+03 -1.05752E+04  1.71514E+04  6.68434E+03
  1.26676E+04  2.13779E+04 -5.84183E+03  2.42513E+04 -2.23321E+04  9.51430E+03 -2.66115E+04 -5.63632E+03
 -1.81819E+04 -1.69194E+04 -6.80033E+03 -1.84493E+04  4.20251E+03 -1.66740E+04  1.33384E+04 -1.59696E+04
  2.27768E+04 -1.18739E+04  2.91923E+04  1.76887E+03  2.18444E+04  1.78598E+04  3.88922E+03  3.38625E+04
 -1.64171E+04  2.79846E+04 -2.60229E+04  9.89997E+03 -2.01735E+04 -1.03799E+04 -4.26975E+03 -1.36321E+04
  1.95272E+03 -3.62996E+03 -3.54897E+03  6.14899E+03 -1.41102E+04  4.95623E+03 -1.51201E+04 -5.72035E+03
 -8.82132E+03 -1.68622E+04  4.41325E+03 -2.09500E+04  1.32376E+04 -1.48293E+04  1.61279E+04 -1.55857E+03
  9.59065E+03  1.15732E+04 -9.42748E+02  1.68100E+04 -1.11229E+04  9.65469E+03 -1.67303E+04 -3.59601E+03
 -1.22571E+04 -1.54809E+04 -1.01320E+03 -2.02033E+04  8.73612E+03 -1.66279E+04  1.73297E+04 -7.53718E+03
  1.50843E+04  5.10840E+02  1.09881E+04  3.64982E+03  5.61197E+03  6.53454E+02  8.08270E+03 -1.88434E+03
  1.50389E+04  2.50729E+03  1.62320E+04  1.38717E+04  1.00685E+04  2.66568E+04 -3.51818E+03  2.89196E+04
 -1.74449E+04  2.28068E+04 -2.72322E+04  1.11846E+04 -2.76766E+04 -1.57390E+03 -2.32480E+04 -1.59408E+04
 -1.09740E+04 -2.28490E+04  7.42259E+03 -2.11281E+04  1.86636E+04 -1.17652E+04  1.68629E+04  4.53104E+03
  6.30829E+03  1.27659E+04 -7.50794E+03  1.15317E+04 -1.43836E+04  3.08043E+03 -1.10528E+04 -9.03304E+03
  1.04979E+02 -1.37477E+04  6.53664E+03 -1.00580E+04  8.97067E+03 -1.25346E+03  1.79077E+03  5.10642E+03
 -5.73997E+03  2.20137E+03 -4.56617E+03 -5.12474E+03  8.25046E+02 -1.17450E+04  7.99495E+03 -1.20587E+04
  1.43216E+04 -4.91323E+03  1.42560E+04  2.88787E+03  1.21040E+04  1.11316E+04  5.55681E+03  1.65012E+04
 -1.75950E+03  1.80221E+04 -1.12405E+04  1.20036E+04 -1.28835E+04  2.46922E+03 -9.19154E+03 -2.72504E+03
 -4.28102E+03 -4.27591E+03 -4.95063E+02  1.36869E+03 -2.17903E+03  2.29526E+03 -4.67224E+03  4.02535E+03
 -8.73886E+03 -7.55917E+02 -9.77565E+03 -8.08695E+03 -3.17785E+03 -1.32985E+04  3.56552E+03 -9.51049E+03
  8.04779E+03 -3.89402E+03  6.00629E+03  2.46050E+03  4.46658E+01  2.93498E+03 -4.47434E+03  1.86551E+02
 -4.34719E+03 -6.27515E+03 -8.53635E+02 -8.54877E+03  4.71005E+03 -9.26083E+03  1.17053E+04 -4.82272E+03
  1.33371E+04  4.71655E+02  1.00190E+04  7.63103E+03  1.83146E+03  1.00312E+04 -5.95677E+03  9.10975E+03
 -7.55622E+03  2.97668E+03 -3.66677E+03 -1.01344E+03  1.13750E+03 -2.46780E+03  5.31679E+03 -8.17329E+02
  5.01938E+03  4.12084E+03  8.58935E+02  6.89976E+03 -5.25951E+03  7.36284E+03 -9.10463E+03  2.13014E+03
 -6.02279E+03 -3.79756E+03  6.38971E+02 -8.14704E+03  4.57968E+03 -3.96578E+03  4.61831E+03  1.31110E+03
  7.48082E+02  4.18936E+03 -4.82519E+03  5.96441E+03 -5.61912E+03  2.82353E+03 -5.29045E+03 -2.07851E+03
 -3.56092E+03 -7.21233E+03  1.28028E+03 -8.51274E+03  7.55130E+03 -5.25685E+03  7.95811E+03  1.18690E+03
  5.20366E+03  6.26645E+03 -1.92158E+02  8.66239E+03 -5.76122E+03  5.08608E+03 -6.53633E+03  1.05127E+02
 -6.47310E+03 -5.97253E+03 -1.51998E+03 -6.38565E+03  3.04081E+03 -5.34855E+03  3.54621E+03 -2.87445E+03
  3.39557E+03  3.06029E+01  3.08539E+02  1.28765E+03  3.11928E+02 -1.02424E+03  7.78587E+02 -2.35900E+03
  5.07161E+03 -1.17447E+03  6.71549E+03  5.99739E+02  6.68679E+03  4.25140E+03  5.57212E+03  9.14832E+03
 -1.50429E+03  1.07968E+04 -9.40628E+03  7.83417E+03 -1.22065E+04  1.32305E+03 -9.52359E+03 -3.82074E+03
 -5.44585E+03 -8.41817E+03 -2.02331E+02 -7.13905E+03  2.80985E+03 -2.52799E+03  2.11770E+03 -1.80050E+03
  1.24816E+03 -1.43323E+03  2.96055E+03 -2.08610E+03  3.82886E+03 -1.39374E+03  3.98103E+03  5.69652E+02
  5.23741E+03  1.60678E+03  1.64407E+03  4.15313E+03 -1.58423E+03  4.42925E+03 -5.54180E+03  3.32498E+03
 -6.42765E+03 -4.92084E+02 -3.41789E+03 -4.91948E+03  4.81163E+02 -6.86407E+03  3.60041E+03 -6.76843E+03
  6.96883E+03 -4.54117E+03  8.50010E+03  8.68711E+01  6.51590E+03  5.94149E+03  1.29275E+03  7.92715E+03
 -3.69794E+03  7.27735E+03 -4.26962E+03  2.47343E+03 -2.39673E+03 -6.86379E+02 -1.04400E+03 -9.86131E+02
 -3.03027E+02  4.44751E+02 -1.30233E+03  1.77029E+03 -3.36228E+03  1.11147E+03 -4.56902E+03 -5.15790E+02
 -2.25237E+03 -4.99213E+03  5.48389E+02 -6.16629E+03  2.98245E+03 -5.96545E+03  5.20996E+03 -1.73594E+03
  5.49450E+03  3.00632E+03  2.63555E+03  4.72854E+03 -1.02596E+03  5.93813E+03 -4.11865E+03  3.58958E+03
 -5.43366E+03  7.67813E+02 -4.00760E+03 -3.49933E+03 -4.98995E+02 -3.60831E+03  2.40619E+03 -3.42253E+03
  3.58645E+03 -1.08358E+03  1.97537E+03  6.84908E+02  1.14019E+03  2.23594E+03  1.00441E+03  6.05568E+02
  1.74715E+03  8.87686E+02  1.33433E+03  1.13506E+03  1.57351E+03  2.51425E+03  1.19893E+03  3.18166E+03
 -1.05246E+03  4.16565E+03 -3.85646E+03  4.93393E+03 -4.83652E+03  1.68338E+03 -5.43627E+03 -1.88042E+03
 -2.24052E+03 -5.10560E+03  8.39054E+02 -6.50571E+03  3.00896E+03 -3.63427E+03  3.90072E+03 -6.15751E+02
  3.50606E+03  2.46576E+03  6.74667E+02  2.85943E+03 -1.04280E+03  1.83909E+03 -2.14156E+03 -5.45779E+02
 -9.51418E+02 -2.14040E+03  1.86981E+03 -2.36922E+03  2.22076E+03 -1.44836E+03  1.97353E+03  7.56784E+02
  1.06569E+03  8.43420E+02  9.95975E+02  2.19182E+02 -6.15187E+02  1.03992E+03  1.41100E+03  1.92994E+02
  2.00111E+02 -3.76654E+02  1.97175E+03  8.80290E+02  8.64533E+02  3.29715E+03 -3.56182E+02  4.00852E+03
 -3.28360E+03  2.44267E+03 -3.30602E+03  4.05518E+02 -3.06654E+03 -1.60371E+03 -1.79981E+02 -1.32573E+03
  4.59663E+02 -1.56718E+03  1.12593E+03 -8.76084E+02  1.17368E+03  1.30385E+03 -5.06444E+02  1.48881E+03
 -2.12987E+03  1.06029E+03 -1.41708E+03 -1.75258E+03 -1.69598E+03 -2.80251E+03  5.41008E+02 -2.49003E+03
  1.24709E+03 -8.91909E+02  1.10728E+03  4.09370E+02  1.76814E+03  4.81444E+02  4.70820E+02  1.54819E+03
 -9.78442E+02  3.20653E+02 -1.26247E+03 -9.58685E+02  1.14954E+03 -1.56729E+03  2.28206E+03 -1.52393E+03
  2.60167E+03  3.32475E+01  4.04387E+03  1.45602E+03  1.67884E+03  2.88735E+03 -2.09438E+02  2.34531E+03
 -2.78884E+03  6.65495E+02 -2.45726E+03 -6.03228E+02 -1.41388E+03 -2.26264E+03 -2.77647E+02 -9.59698E+02
  2.41508E+03 -1.87366E+03  1.61221E+03  9.80547E+02  2.66264E+02  2.19947E+03 -2.73027E+02  1.87599E+03
 -1.20300E+03  1.03316E+03 -6.45431E+02  3.80720E+02 -1.01502E+02  2.40051E+02 -9.12481E+02  9.44584E+02
 -9.69252E+02  9.16952E+02 -2.55150E+03  1.48663E+03 -2.54299E+03  6.76330E+02 -3.49773E+03 -2.12158E+03
 -1.56499E+03 -3.31485E+03  9.62993E+02 -4.52244E+03  2.41288E+03 -3.95721E+03  3.94828E+03 -1.69380E+03
  3.69638E+03  7.77158E+02  2.15411E+03  2.23848E+03 -5.27923E+02  1.96183E+03 -1.19308E+03  1.71232E+03
 -1.15244E+03  9.39617E+02 -6.71157E+02 -6.33298E+02 -1.05571E+03 -4.64448E+02 -3.80125E+02 -6.49694E+02
 -1.81651E+03  3.38710E+02 -1.18853E+03  2.70925E+02 -9.40736E+01 -1.35297E+03 -6.18800E+02 -7.26513E+02
  1.44373E+03 -6.34511E+02  9.71635E+02  4.37065E+02  2.18899E+03  1.90887E+03 -2.56239E+01  1.93070E+03
 -1.38445E+03  3.83730E+03 -2.78533E+03  2.43432E+03 -2.65579E+03  5.71622E+01 -2.54409E+03 -1.79174E+03
 -1.66206E+03 -2.17042E+03  5.51175E+02 -2.34529E+03  1.01728E+03 -1.11859E+03  1.80688E+03 -4.17322E+02
  2.88128E+02  8.13808E+02  1.99875E+02  1.11549E+03 -2.30018E+02 -1.05154E+02 -8.50929E+01 -8.24406E+02
  4.08939E+02 -3.96975E+01  9.02096E+02  7.30736E+02  3.75431E+02  1.28634E+03  5.62879E+02  1.18106E+03
 -9.42496E+02  7.39103E+02 -1.31456E+03 -2.13499E+01 -1.45530E+03 -1.10825E+03  4.24804E+01 -1.96032E+03
  8.62810E+02 -6.45643E+02  9.08380E+02 -5.17624E+02  2.05240E+03 -4.51808E+02  8.64662E+02  7.29423E+02
  6.19417E+02  1.32557E+03 -4.25999E+02  1.23912E+03 -1.29201E+03  1.25481E+03 -1.08448E+03  5.06763E+02
 -2.42551E+02 -6.41943E+02 -1.24144E+03  1.03345E+02 -6.69220E+02  2.66453E+02 -1.20486E+03 -6.35390E+02
 -1.89748E+03 -6.15229E+01 -3.78517E+02 -1.38380E+03  4.32253E+02 -2.13860E+03  1.08604E+03 -9.16201E+02
  1.37732E+03  3.84353E+02  3.27602E+01  1.30211E+03 -5.96939E+02  2.29272E+03 -1.31920E+03  1.31774E+03
