 $NMID ID='MM_0lb_SNR400_13hz_g50_78.RAW', FMTDAT='(8E13.5)'
 TRAMP=1., VOLUME=1. $END
  3.10139E+05  1.01460E+02  3.37692E+05  2.50060E+05  8.44018E+04  3.38275E+05 -1.32546E+05  2.50478E+05
 -1.89945E+05  8.32174E+04 -1.12206E+05 -3.31148E+04  5.10008E+02 -5.09969E+04  5.34248E+04  3.44282E+02
  3.52951E+04  5.29614E+04 -1.63144E+04  7.59582E+04 -6.09949E+04  6.39146E+04 -8.46498E+04  3.22744E+04
 -8.05907E+04 -1.13613E+04 -5.73765E+04 -5.20777E+04 -1.49348E+04 -6.98356E+04  2.78992E+04 -4.64052E+04
  4.06658E+04  3.76821E+03  1.62682E+04  4.83497E+04 -3.50257E+04  4.69467E+04 -6.73979E+04  4.48498E+02
 -5.39043E+04 -5.68037E+04 -6.53521E+03 -7.77631E+04  3.36397E+04 -5.55344E+04  4.86054E+04 -1.70630E+04
  4.36796E+04  1.10227E+04  3.22201E+04  2.68975E+04  1.62574E+04  2.94121E+04 -5.12910E+03  2.78560E+04
 -2.20303E+04  1.21293E+04 -1.78311E+04 -5.48348E+03  5.74337E+03 -7.03338E+03  2.26419E+04  1.26452E+04
  6.78512E+03  3.60454E+04 -3.31029E+04  3.59745E+04 -6.38090E+04  2.05819E+03 -5.81417E+04 -4.32761E+04
 -1.21405E+04 -6.40242E+04  4.07340E+04 -4.61874E+04  5.86670E+04 -2.28469E+03  3.42518E+04  3.22694E+04
 -6.02265E+03  3.67380E+04 -3.03696E+04  1.65797E+04 -3.13100E+04 -3.86571E+03 -1.73929E+04 -1.06974E+04
 -8.64046E+03 -1.39432E+04 -4.76321E+02 -1.79063E+04  7.55881E+03 -2.35075E+04  1.52925E+04 -1.28689E+04
  1.12446E+04  5.12688E+03 -8.17957E+03  1.24221E+04 -2.14930E+04 -5.21531E+03 -8.16026E+03 -3.46269E+04
  2.28074E+04 -4.42996E+04  4.85373E+04 -1.98981E+04  4.58519E+04  1.98617E+04  1.53965E+04  4.53426E+04
 -1.58795E+04  3.42482E+04 -2.58597E+04  2.08494E+03 -1.02390E+04 -2.83460E+04  2.08843E+04 -3.47648E+04
  4.14466E+04 -9.85292E+03  3.68903E+04  2.47184E+04  1.85086E+04  4.78262E+04 -8.53777E+03  5.15713E+04
 -3.23220E+04  3.42911E+04 -4.37053E+04  9.83117E+03 -4.34645E+04 -1.75453E+04 -2.34718E+04 -3.87069E+04
  6.97363E+03 -3.89988E+04  3.22171E+04 -1.50767E+04  3.03055E+04  1.05642E+04  5.15330E+03  2.02678E+04
 -1.36425E+04  8.91316E+03 -1.02831E+04 -7.43254E+03  6.22319E+03 -1.11195E+04  1.90196E+04  5.76664E+03
  1.37065E+04  2.15569E+04 -5.72571E+03  2.52823E+04 -2.27148E+04  1.18575E+04 -2.86405E+04 -4.26741E+03
 -2.16525E+04 -1.81003E+04 -9.22804E+03 -2.13657E+04  4.62934E+03 -2.15671E+04  1.61856E+04 -1.87996E+04
  2.68925E+04 -1.29249E+04  3.38374E+04  3.02884E+03  2.43988E+04  2.11931E+04  3.91800E+03  3.75778E+04
 -1.80137E+04  3.16548E+04 -2.82466E+04  1.05250E+04 -2.14247E+04 -9.98947E+03 -4.38269E+03 -1.35171E+04
  1.49870E+03 -2.47926E+03 -5.74653E+03  7.10983E+03 -1.69552E+04  5.58010E+03 -1.73707E+04 -7.40475E+03
 -1.03496E+04 -2.05613E+04  5.72103E+03 -2.32081E+04  1.65482E+04 -1.68170E+04  1.92154E+04 -1.68114E+03
  1.24432E+04  1.41522E+04 -1.30442E+03  2.00066E+04 -1.39070E+04  1.12418E+04 -2.00899E+04 -4.46944E+03
 -1.50151E+04 -1.75979E+04 -2.21212E+03 -2.32652E+04  1.05217E+04 -2.00937E+04  2.03501E+04 -9.88666E+03
  1.82645E+04  5.58836E+02  1.32097E+04  4.47904E+03  6.89918E+03  1.34327E+03  1.02788E+04 -1.68704E+03
  1.76838E+04  2.71009E+03  2.00790E+04  1.50365E+04  1.30373E+04  3.15302E+04 -3.21296E+03  3.58457E+04
 -2.12409E+04  2.88893E+04 -3.41065E+04  1.46093E+04 -3.65022E+04 -2.85114E+03 -2.96012E+04 -2.09169E+04
 -1.21665E+04 -2.85720E+04  1.06637E+04 -2.69290E+04  2.24737E+04 -1.29256E+04  2.00830E+04  5.90314E+03
  7.48010E+03  1.52977E+04 -9.50816E+03  1.24108E+04 -1.64363E+04  2.30998E+03 -1.21590E+04 -1.11426E+04
 -1.77818E+02 -1.61353E+04  8.72511E+03 -1.22114E+04  1.11730E+04 -1.63636E+03  1.86621E+03  7.03079E+03
 -7.45100E+03  2.17941E+03 -6.77481E+03 -6.06567E+03 -2.05899E+02 -1.39600E+04  9.37423E+03 -1.51028E+04
  1.81585E+04 -7.85380E+03  1.93954E+04  2.63180E+03  1.66043E+04  1.43251E+04  8.42038E+03  2.23776E+04
 -3.73467E+03  2.40081E+04 -1.52427E+04  1.49723E+04 -1.73138E+04  2.79181E+03 -1.19157E+04 -3.55868E+03
 -5.55158E+03 -5.55577E+03 -6.54168E+02  1.06203E+03 -2.16214E+03  2.18727E+03 -6.10409E+03  4.12443E+03
 -1.12026E+04  2.20521E+02 -1.23462E+04 -1.00284E+04 -4.78066E+03 -1.51893E+04  4.14589E+03 -1.23218E+04
  9.74631E+03 -4.90855E+03  7.20875E+03  3.68552E+03  3.43903E+02  5.03963E+03 -5.15975E+03 -3.28766E+02
 -6.29667E+03 -7.63034E+03 -5.64752E+02 -1.20183E+04  6.24473E+03 -1.22065E+04  1.53422E+04 -6.04708E+03
  1.77859E+04  1.92173E+03  1.37317E+04  1.01151E+04  2.38050E+03  1.44341E+04 -7.87646E+03  1.20315E+04
 -1.04586E+04  3.71186E+03 -5.03571E+03 -2.82402E+03  1.33641E+03 -2.75312E+03  6.52647E+03 -4.65959E+02
  6.23257E+03  4.79671E+03  1.32024E+03  9.55387E+03 -6.69705E+03  9.65051E+03 -1.22588E+04  2.04746E+03
 -7.97192E+03 -6.63269E+03  1.05808E+02 -1.01842E+04  6.49616E+03 -4.56435E+03  6.61881E+03  2.63300E+03
  1.21747E+03  7.56711E+03 -6.17610E+03  7.90161E+03 -9.31229E+03  3.81813E+03 -9.29140E+03 -3.43412E+03
 -5.73157E+03 -1.06360E+04  2.54690E+03 -1.32906E+04  1.08440E+04 -7.28795E+03  1.19694E+04  2.09141E+03
  7.36527E+03  9.38867E+03 -7.27429E+02  1.16123E+04 -8.21760E+03  6.66375E+03 -9.09929E+03 -1.42308E+03
 -8.57528E+03 -8.19772E+03 -1.67782E+03 -8.71785E+03  4.31852E+03 -7.51368E+03  5.07320E+03 -3.21446E+03
  3.68129E+03  6.75277E+02 -4.90585E+02  1.43876E+03 -4.26197E+02 -2.11514E+03  1.57489E+03 -4.60516E+03
  6.86706E+03 -2.78263E+03  9.98726E+03  6.89159E+02  1.00230E+04  7.04748E+03  7.71244E+03  1.37707E+04
 -3.55286E+03  1.58988E+04 -1.38353E+04  1.21626E+04 -1.73307E+04  2.33030E+03 -1.38528E+04 -5.86882E+03
 -7.12058E+03 -1.14890E+04  2.11589E+02 -9.53445E+03  3.26885E+03 -4.70896E+03  3.13088E+03 -3.77405E+03
  2.17894E+03 -2.84429E+03  3.22427E+03 -3.11532E+03  4.74300E+03 -2.01036E+03  5.96453E+03 -3.04381E+02
  7.77259E+03  1.87454E+03  3.88473E+03  6.59285E+03 -1.50417E+03  7.41487E+03 -8.25825E+03  5.31185E+03
 -9.62143E+03 -1.36836E+03 -5.64624E+03 -7.24432E+03 -7.51952E+02 -1.01212E+04  6.18292E+03 -1.00502E+04
  1.03742E+04 -5.28005E+03  1.20750E+04  1.36609E+03  8.68778E+03  9.22465E+03  1.47449E+03  1.15309E+04
 -4.82850E+03  9.50434E+03 -7.19309E+03  3.67026E+03 -4.20281E+03 -1.54845E+03 -2.14766E+03 -1.38756E+03
 -1.32751E+03 -5.07630E+01 -2.17916E+03  2.40354E+03 -4.32726E+03  1.37281E+03 -6.97316E+03 -3.97075E+02
 -4.36505E+03 -7.25886E+03  6.88838E+02 -8.96460E+03  5.79916E+03 -8.60991E+03  8.70252E+03 -2.69999E+03
  8.66993E+03  4.71961E+03  3.61318E+03  8.52957E+03 -8.22000E+02  9.13885E+03 -6.76961E+03  6.37914E+03
 -9.05262E+03  1.90388E+02 -6.33404E+03 -5.21913E+03 -5.42991E+02 -7.21746E+03  3.87279E+03 -5.43883E+03
  5.46588E+03 -1.76348E+03  3.36260E+03  8.70773E+02  9.54411E+02  2.94933E+03  1.06612E+03  9.11962E+02
  1.97038E+03  1.26648E+03  2.48834E+03  1.59887E+03  2.86242E+03  3.61210E+03  2.48819E+03  4.70810E+03
 -2.01643E+03  6.96325E+03 -6.95678E+03  7.77536E+03 -8.47552E+03  2.10091E+03 -8.85225E+03 -3.02707E+03
 -3.98342E+03 -9.46006E+03  1.69158E+03 -9.88140E+03  4.99108E+03 -6.36746E+03  7.29353E+03 -1.95443E+03
  5.39423E+03  3.40983E+03  1.12729E+03  5.61308E+03 -2.46983E+03  3.17635E+03 -3.99188E+03 -8.22207E+02
 -2.23594E+03 -3.52894E+03  2.01190E+03 -4.02534E+03  3.37937E+03 -2.33512E+03  2.77909E+03  1.49910E+02
  1.54642E+03  1.73214E+03  1.30956E+03  9.05054E+02 -5.44572E+02  1.64585E+03  1.37429E+03 -1.36296E+03
  9.03022E+02  9.77819E+01  4.29833E+03  1.36975E+03  1.14276E+03  4.56254E+03 -1.19695E+03  6.42147E+03
 -3.93107E+03  3.66624E+03 -5.60277E+03  5.52929E+02 -4.70115E+03 -2.02788E+03 -1.96599E+03 -3.12828E+03
  8.22643E+02 -2.50753E+03  2.70498E+03 -1.48730E+03  1.57231E+03  1.68112E+03 -4.41554E+02  2.71528E+03
 -3.80566E+03  1.20601E+03 -2.90313E+03 -1.66648E+03 -1.93484E+03 -5.27538E+03  8.52640E+02 -4.31119E+03
  2.80685E+03 -2.48315E+03  3.32030E+03 -4.76962E+02  3.01518E+03  7.87751E+02  9.70465E+02  2.19239E+03
 -1.31702E+03  8.25822E+02 -2.35270E+03 -1.39338E+03  1.33219E+03 -3.20152E+03  3.83283E+03 -3.35881E+03
  5.07495E+03 -2.63381E+02  5.22797E+03  2.11527E+03  1.66705E+03  5.36061E+03 -1.47524E+03  4.67678E+03
 -3.92508E+03  1.45581E+03 -5.06965E+03 -8.05873E+02 -1.80289E+03 -3.70437E+03  1.24229E+03 -3.33448E+03
  3.74308E+03 -1.23495E+03  2.25536E+03  1.48998E+03  9.26207E+02  3.16478E+03 -3.13651E+02  3.07172E+03
 -1.28192E+03  1.95379E+03 -1.46803E+03  4.87112E+02 -5.81849E+02 -4.29170E+01 -1.15243E+03  1.17623E+03
 -7.76143E+02  1.91909E+03 -3.83855E+03  1.48109E+03 -3.91138E+03  5.55019E+02 -6.44090E+03 -2.91574E+03
 -2.47674E+03 -6.59699E+03  1.21491E+03 -7.76394E+03  4.47666E+03 -6.38206E+03  7.72067E+03 -2.99265E+03
  7.13396E+03  1.48931E+03  3.89384E+03  4.95045E+03  2.65150E+02  4.80245E+03 -1.61105E+03  3.77120E+03
 -2.73467E+03  1.09042E+03 -1.73712E+03 -2.78032E+02 -1.13984E+03 -3.63647E+02 -2.27599E+02  7.46015E+01
 -1.13369E+03 -5.78798E+02 -7.60947E+02 -2.16908E+02  4.54220E+01 -1.77515E+03 -7.44831E+02 -2.30756E+03
  2.68720E+03 -2.03971E+03  2.45517E+03  1.22839E+02  2.53696E+03  2.47122E+03  4.39671E+02  5.02051E+03
 -2.58995E+03  5.29092E+03 -5.01874E+03  3.82093E+03 -5.86654E+03 -5.89009E+02 -4.41844E+03 -3.98305E+03
 -2.00551E+03 -4.39678E+03  9.58430E+02 -4.53347E+03  3.28833E+03 -2.58194E+03  3.05330E+03  1.15708E+02
  2.34749E+03  1.05383E+03  3.50276E+02  1.55959E+03 -1.44556E+03 -1.02431E+03 -5.71056E+02 -1.26503E+03
  1.04721E+03 -4.08316E+02  1.21286E+03  1.14340E+03  1.23680E+03  2.08128E+03 -4.61640E+01  2.01627E+03
 -1.65242E+03  2.35647E+03 -2.88904E+03 -1.19522E+02 -2.53596E+03 -2.68763E+03 -1.36512E+02 -4.12747E+03
  2.33708E+03 -3.26099E+03  2.95022E+03 -6.68620E+02  2.83019E+03  5.35911E+01  1.76680E+03  2.72244E+03
  6.78954E+02  2.90703E+03 -1.19562E+03  2.18378E+03 -1.84943E+03  1.23673E+03 -1.30216E+03 -3.49887E+02
 -1.51462E+03 -5.04372E+02 -1.27726E+03  1.58440E+02 -1.87005E+03  1.07625E+03 -2.10870E+03 -1.13392E+03
 -2.15471E+03 -1.00110E+03 -7.39518E+02 -2.95275E+03  1.43564E+03 -3.67070E+03  2.83949E+03 -1.82538E+03
  2.51138E+03  3.01405E+01  9.48480E+02  1.43289E+03 -9.51750E+01  2.97853E+03 -1.86494E+03  1.96027E+03
