 $NMID ID='MM_0lb_SNR400_15hz_g55_43.RAW', FMTDAT='(8E13.5)'
 TRAMP=1., VOLUME=1. $END
  3.09721E+05  2.00702E+02  3.37860E+05  2.50652E+05  8.44658E+04  3.37390E+05 -1.32836E+05  2.50541E+05
 -1.90040E+05  8.37034E+04 -1.11619E+05 -3.26430E+04  1.02351E+03 -5.04301E+04  5.41410E+04 -4.74958E+02
  3.49479E+04  5.27827E+04 -1.62716E+04  7.50193E+04 -6.05366E+04  6.44006E+04 -8.39000E+04  3.19734E+04
 -8.04714E+04 -1.18757E+04 -5.75871E+04 -5.14968E+04 -1.49914E+04 -6.99268E+04  2.76402E+04 -4.62230E+04
  4.05092E+04  3.71740E+03  1.60644E+04  4.76254E+04 -3.41075E+04  4.70249E+04 -6.72968E+04 -2.10448E+01
 -5.35568E+04 -5.73349E+04 -6.91028E+03 -7.69821E+04  3.37430E+04 -5.51600E+04  4.83533E+04 -1.80454E+04
  4.30929E+04  1.19206E+04  3.16369E+04  2.53268E+04  1.61725E+04  2.95360E+04 -5.45770E+03  2.76882E+04
 -2.20456E+04  1.17698E+04 -1.90824E+04 -5.44865E+03  5.57781E+03 -7.23558E+03  2.21356E+04  1.25290E+04
  7.10955E+03  3.54546E+04 -3.21221E+04  3.57755E+04 -6.34157E+04  2.31951E+03 -5.72660E+04 -4.26271E+04
 -1.19325E+04 -6.34080E+04  3.97243E+04 -4.57323E+04  5.81008E+04 -3.02564E+03  3.43496E+04  3.20446E+04
 -5.97933E+03  3.59170E+04 -2.88957E+04  1.63753E+04 -3.04623E+04 -4.44247E+03 -1.61013E+04 -1.05986E+04
 -8.25380E+03 -1.33289E+04  2.79657E+02 -1.73736E+04  7.37107E+03 -2.25693E+04  1.56536E+04 -1.36938E+04
  1.06015E+04  4.57208E+03 -8.19495E+03  1.30399E+04 -2.11897E+04 -4.47895E+03 -8.08315E+03 -3.35525E+04
  2.27601E+04 -4.37970E+04  4.83680E+04 -1.98763E+04  4.56045E+04  1.98304E+04  1.57478E+04  4.46590E+04
 -1.62280E+04  3.34835E+04 -2.53191E+04  1.15599E+03 -9.96495E+03 -2.79560E+04  2.17047E+04 -3.35458E+04
  4.05864E+04 -9.32468E+03  3.58833E+04  2.41816E+04  1.80037E+04  4.60965E+04 -8.03955E+03  5.02671E+04
 -3.16005E+04  3.38331E+04 -4.18161E+04  9.12636E+03 -4.32661E+04 -1.67601E+04 -2.32961E+04 -3.80838E+04
  7.18311E+03 -3.76683E+04  3.14018E+04 -1.50980E+04  2.98636E+04  1.09793E+04  3.98697E+03  1.95970E+04
 -1.33504E+04  7.86302E+03 -1.05035E+04 -7.56722E+03  6.31205E+03 -1.05688E+04  1.81547E+04  6.48229E+03
  1.41902E+04  2.21486E+04 -6.29652E+03  2.51013E+04 -2.21194E+04  1.15521E+04 -2.75860E+04 -4.94305E+03
 -2.08953E+04 -1.70022E+04 -8.43522E+03 -2.05026E+04  4.02267E+03 -2.00791E+04  1.62925E+04 -1.79542E+04
  2.59194E+04 -1.28825E+04  3.26768E+04  2.32301E+03  2.40057E+04  2.05323E+04  4.17916E+03  3.64728E+04
 -1.72311E+04  3.04933E+04 -2.83108E+04  1.04162E+04 -2.03201E+04 -9.83253E+03 -4.56001E+03 -1.30124E+04
  1.46739E+03 -2.56559E+03 -5.05152E+03  7.11795E+03 -1.66267E+04  5.27897E+03 -1.61468E+04 -7.30850E+03
 -9.68807E+03 -1.86946E+04  4.62765E+03 -2.31325E+04  1.48902E+04 -1.56995E+04  1.77379E+04 -1.64253E+03
  1.11220E+04  1.31619E+04 -1.00539E+03  1.87144E+04 -1.25900E+04  1.01676E+04 -1.93709E+04 -4.65499E+03
 -1.38940E+04 -1.70666E+04 -1.85448E+03 -2.29674E+04  1.05714E+04 -1.84444E+04  1.84985E+04 -8.89764E+03
  1.76064E+04  5.28528E+02  1.28767E+04  4.54267E+03  7.02681E+03  1.51947E+03  9.06930E+03 -1.59649E+03
  1.72878E+04  2.96932E+03  1.91595E+04  1.47560E+04  1.26688E+04  3.06031E+04 -3.06329E+03  3.38757E+04
 -1.94380E+04  2.71672E+04 -3.20044E+04  1.33988E+04 -3.25582E+04 -2.60157E+03 -2.70631E+04 -1.84039E+04
 -1.19048E+04 -2.73373E+04  9.30322E+03 -2.47805E+04  2.09013E+04 -1.25362E+04  1.94541E+04  4.68490E+03
  7.25635E+03  1.34532E+04 -9.26696E+03  1.25912E+04 -1.62585E+04  3.30489E+03 -1.21665E+04 -9.48476E+03
 -6.03104E+01 -1.48720E+04  7.92955E+03 -1.08911E+04  9.68743E+03 -1.42155E+03  1.92177E+03  6.35627E+03
 -6.93174E+03  2.43514E+03 -5.87833E+03 -5.31897E+03 -3.33592E+02 -1.35120E+04  9.65766E+03 -1.36937E+04
  1.67577E+04 -7.56601E+03  1.73362E+04  2.79373E+03  1.50729E+04  1.29036E+04  6.92986E+03  1.97890E+04
 -2.64306E+03  2.17363E+04 -1.35527E+04  1.38111E+04 -1.53616E+04  3.19232E+03 -1.10174E+04 -4.08036E+03
 -5.31256E+03 -4.99469E+03  3.65352E+02  6.59635E+02 -2.58802E+03  2.30639E+03 -5.21136E+03  4.45343E+03
 -1.03051E+04 -5.22110E+02 -1.09967E+04 -8.89701E+03 -4.61508E+03 -1.45292E+04  4.98567E+03 -1.07305E+04
  8.95626E+03 -4.42021E+03  6.91721E+03  3.53706E+03  4.56897E+02  3.67679E+03 -5.47919E+03  1.99150E+02
 -5.21031E+03 -7.07567E+03 -1.45184E+03 -1.08144E+04  5.83300E+03 -1.07173E+04  1.30514E+04 -6.17032E+03
  1.55789E+04  1.40127E+03  1.25343E+04  9.02678E+03  2.71573E+03  1.20921E+04 -6.36129E+03  1.09446E+04
 -8.92345E+03  3.68016E+03 -4.55123E+03 -1.72507E+03  1.33953E+03 -2.78790E+03  5.72946E+03 -6.47845E+02
  4.90241E+03  4.42625E+03  8.78881E+02  8.46290E+03 -6.44897E+03  8.81153E+03 -1.06239E+04  2.28415E+03
 -6.64955E+03 -5.29299E+03 -5.57796E+02 -9.18482E+03  5.71839E+03 -4.36875E+03  5.23139E+03  1.43854E+03
  1.22191E+03  6.02561E+03 -4.96110E+03  6.89935E+03 -7.64461E+03  3.02183E+03 -7.76089E+03 -2.49096E+03
 -4.46239E+03 -9.44392E+03  2.62206E+03 -1.04921E+04  8.67237E+03 -6.48525E+03  9.55669E+03  1.93952E+03
  6.19498E+03  8.00460E+03  1.05524E+02  1.05424E+04 -7.58508E+03  5.68647E+03 -8.07067E+03 -7.43571E+02
 -7.31404E+03 -6.85117E+03 -1.70409E+03 -7.58317E+03  3.90940E+03 -6.14596E+03  4.72671E+03 -3.10399E+03
  3.58454E+03  9.67493E+02 -5.90943E+02  1.37856E+03  2.23227E+02 -1.21268E+03  1.56449E+03 -3.75873E+03
  6.15853E+03 -2.01071E+03  8.94464E+03  1.17239E+03  9.20338E+03  5.49429E+03  6.87131E+03  1.14883E+04
 -2.49877E+03  1.31862E+04 -1.12895E+04  9.89036E+03 -1.46881E+04  2.34898E+03 -1.20778E+04 -4.53743E+03
 -6.00732E+03 -9.92551E+03 -8.27723E+01 -8.05879E+03  2.75334E+03 -4.24646E+03  2.94850E+03 -2.43538E+03
  2.48590E+03 -1.87729E+03  2.49334E+03 -2.67291E+03  4.54721E+03 -2.38212E+03  4.88206E+03 -6.52959E+02
  6.51929E+03  1.48344E+03  2.66592E+03  4.92691E+03 -1.44046E+03  5.54085E+03 -5.98021E+03  5.07781E+03
 -7.99039E+03 -1.32286E+03 -4.50974E+03 -5.74896E+03 -3.32972E+02 -8.15939E+03  5.36589E+03 -8.48149E+03
  8.29009E+03 -5.03560E+03  1.09090E+04  4.35916E+02  7.53143E+03  7.01642E+03  1.26713E+03  9.23642E+03
 -4.15369E+03  8.38720E+03 -5.29127E+03  2.79558E+03 -3.23269E+03 -1.74493E+03 -1.74859E+03 -4.67963E+02
 -3.89963E+02  2.77505E+02 -1.60001E+03  1.90473E+03 -3.68784E+03  9.61801E+02 -6.24054E+03 -5.25969E+02
 -3.28092E+03 -6.08438E+03  5.48332E+02 -7.59719E+03  4.73545E+03 -7.15484E+03  6.58389E+03 -1.44361E+03
  7.51529E+03  3.59984E+03  3.16093E+03  5.89602E+03 -9.16267E+02  7.60107E+03 -5.03831E+03  4.57595E+03
 -7.48600E+03  5.05848E+02 -5.74812E+03 -4.13500E+03 -6.80689E+02 -5.23286E+03  3.07012E+03 -5.04323E+03
  4.35466E+03 -1.87095E+03  2.90826E+03  1.02258E+03  1.04315E+03  2.03230E+03  7.96723E+02  1.35486E+03
  2.40413E+03  1.02809E+03  1.95694E+03  1.67666E+03  2.41245E+03  3.10362E+03  2.17288E+03  2.90715E+03
 -1.38604E+03  5.45470E+03 -4.48497E+03  6.01475E+03 -6.35352E+03  1.55687E+03 -7.68871E+03 -1.42299E+03
 -3.20012E+03 -6.71611E+03  8.94792E+02 -7.88938E+03  4.23944E+03 -4.10489E+03  5.71710E+03 -1.49560E+03
  4.13106E+03  2.86610E+03  7.10235E+02  4.29473E+03 -1.53656E+03  2.62659E+03 -2.70818E+03 -5.23817E+01
 -1.55860E+03 -2.69041E+03  1.44896E+03 -2.79184E+03  2.45796E+03 -1.01533E+03  1.84740E+03  5.65862E+02
  1.13061E+03  4.13786E+02  9.44046E+02  4.62575E+02 -5.12231E+02  7.16543E+02  1.68364E+03 -1.02588E+03
  7.67187E+02 -1.60158E+02  2.64774E+03  2.74440E+02  1.06078E+03  4.14990E+03 -1.13366E+03  5.11674E+03
 -3.45300E+03  2.25418E+03 -4.16574E+03  1.07358E+03 -4.15062E+03 -1.48967E+03 -1.31653E+03 -1.88168E+03
  7.55667E+02 -2.54126E+03  1.59390E+03 -3.95433E+02  1.66746E+03  2.11360E+03 -1.30010E+03  2.52030E+03
 -2.46832E+03  1.13685E+03 -3.16884E+03 -1.56232E+03 -1.94514E+03 -3.20069E+03  8.55969E+02 -2.87858E+03
  8.74633E+02 -1.67374E+03  1.83517E+03  2.33916E+02  1.87983E+03  9.04270E+02  1.96630E+02  1.93765E+03
 -1.34380E+03  4.61544E+01 -1.47880E+03 -8.92757E+02  1.47199E+03 -2.33636E+03  3.07875E+03 -2.32517E+03
  3.54450E+03  3.94191E+02  4.49483E+03  1.74674E+03  1.33521E+03  3.78763E+03 -1.00814E+03  3.40377E+03
 -2.82413E+03  9.79905E+02 -3.07658E+03 -5.40764E+02 -1.46535E+03 -1.57114E+03  5.71995E+02 -1.87621E+03
  2.54724E+03 -8.03906E+02  2.08092E+03  1.26632E+03  3.42964E+02  2.20878E+03  1.33431E+02  2.11075E+03
 -7.16080E+02  1.76085E+03 -6.69633E+02  6.82502E+02 -8.23822E+02  4.09102E+02 -1.33358E+03  6.18626E+02
 -6.05952E+02  1.11953E+03 -2.89417E+03  1.21504E+03 -3.51024E+03  9.85189E+01 -4.16699E+03 -2.13143E+03
 -1.75061E+03 -4.79705E+03  8.10983E+02 -4.98533E+03  2.78015E+03 -4.03399E+03  4.99238E+03 -2.19720E+03
  4.60592E+03  5.80968E+02  2.88619E+03  2.47115E+03 -6.94419E+02  3.37519E+03 -1.60719E+03  2.14544E+03
 -2.94228E+03  1.06963E+03 -1.34865E+03 -3.03781E+02 -1.14369E+03  5.97815E+01 -1.20832E+03  2.55486E+02
 -9.50221E+02 -7.27342E+01 -1.11110E+03  1.66896E+02 -6.24083E+01 -5.46343E+02  5.00940E+01 -1.58930E+03
  2.31161E+03 -1.36529E+03  1.74947E+03  1.58304E+02  2.09680E+03  2.29140E+03  2.89674E+01  3.30287E+03
 -1.17210E+03  4.03525E+03 -3.47117E+03  1.87226E+03 -4.22500E+03 -1.09355E+02 -2.77711E+03 -2.40619E+03
 -1.10314E+03 -3.48118E+03  1.02281E+03 -3.16704E+03  1.80635E+03 -1.26592E+03  1.97501E+03  1.38380E+02
  7.92382E+02  5.30198E+02  4.22482E+02  6.56059E+02 -5.55479E+02 -9.97642E+01 -1.83444E+02 -5.10744E+02
  1.07694E+03 -3.47946E+02  1.01082E+03  5.72298E+02  4.03812E+02  1.40624E+03  9.13673E+02  1.41861E+03
 -1.48242E+03  1.33819E+03 -1.70022E+03  8.95849E+01 -1.89217E+03 -1.15587E+03  3.81523E+02 -2.16802E+03
  1.55752E+03 -1.53885E+03  1.63516E+03 -1.34005E+02  1.96234E+03 -1.78104E+02  1.63963E+03  1.86573E+03
  6.28167E+02  2.36562E+03  1.16823E+02  1.45217E+03 -1.24859E+03  9.60344E+02 -7.08826E+02  4.21807E+02
 -6.66103E+02 -3.65838E+02 -8.93464E+02  1.03416E+02 -1.11718E+03  5.04499E+02 -1.73715E+03 -7.68399E+01
 -2.22436E+03 -3.01718E+02 -9.55358E+02 -2.26533E+03  1.12583E+03 -2.43014E+03  1.80246E+03 -1.02830E+03
  1.54872E+03  6.71000E+02  9.71200E+01  1.12503E+03 -1.64618E+02  2.05015E+03 -9.35144E+02  1.69782E+03
