 $NMID ID='MM_0lb_SNR400_17hz_g45_44.RAW', FMTDAT='(8E13.5)'
 TRAMP=1., VOLUME=1. $END
  3.09799E+05  2.68181E+02  3.37294E+05  2.50406E+05  8.43591E+04  3.37626E+05 -1.32140E+05  2.50429E+05
 -1.89805E+05  8.30157E+04 -1.11332E+05 -3.26982E+04  6.81831E+02 -5.04958E+04  5.45427E+04  3.66202E+02
  3.55558E+04  5.22592E+04 -1.68406E+04  7.51608E+04 -6.01404E+04  6.25913E+04 -8.32661E+04  3.15214E+04
 -8.04062E+04 -1.18182E+04 -5.65700E+04 -5.01945E+04 -1.45354E+04 -6.89782E+04  2.64853E+04 -4.54107E+04
  3.89377E+04  3.82253E+03  1.56049E+04  4.74735E+04 -3.44361E+04  4.64123E+04 -6.60320E+04 -5.40281E+02
 -5.26136E+04 -5.65243E+04 -6.54304E+03 -7.54892E+04  3.38006E+04 -5.33253E+04  4.66818E+04 -1.65145E+04
  4.22025E+04  1.15190E+04  3.13725E+04  2.44654E+04  1.61761E+04  2.83950E+04 -4.12629E+03  2.62778E+04
 -2.18533E+04  1.24933E+04 -1.89432E+04 -4.35630E+03  4.55954E+03 -7.62540E+03  2.08933E+04  1.16797E+04
  7.89337E+03  3.35726E+04 -3.13178E+04  3.42401E+04 -6.13385E+04  2.13117E+03 -5.57756E+04 -4.21590E+04
 -1.21323E+04 -6.19041E+04  3.87920E+04 -4.40634E+04  5.59516E+04 -1.71827E+03  3.27732E+04  3.10948E+04
 -6.34309E+03  3.39479E+04 -2.86961E+04  1.43367E+04 -2.82370E+04 -4.62484E+03 -1.49751E+04 -1.02039E+04
 -7.76899E+03 -1.13383E+04 -9.25874E+02 -1.68830E+04  6.64414E+03 -2.21528E+04  1.51227E+04 -1.38471E+04
  1.24386E+04  4.68468E+03 -6.96583E+03  1.27378E+04 -1.93228E+04 -3.04258E+03 -7.54195E+03 -3.08551E+04
  2.14677E+04 -4.14443E+04  4.56059E+04 -1.92460E+04  4.27763E+04  1.84994E+04  1.43777E+04  4.22259E+04
 -1.55163E+04  3.22685E+04 -2.35608E+04  1.49575E+03 -8.55091E+03 -2.65511E+04  2.09986E+04 -3.18491E+04
  3.93011E+04 -8.08669E+03  3.23518E+04  2.26062E+04  1.63249E+04  4.32828E+04 -8.43519E+03  4.63625E+04
 -2.89137E+04  3.06771E+04 -3.86530E+04  8.90691E+03 -3.89118E+04 -1.49980E+04 -2.20153E+04 -3.50564E+04
  7.11671E+03 -3.51245E+04  2.92220E+04 -1.30012E+04  2.75557E+04  1.04725E+04  3.14751E+03  1.79361E+04
 -1.31229E+04  7.44433E+03 -9.61308E+03 -7.79551E+03  6.11218E+03 -1.04112E+04  1.73291E+04  5.93618E+03
  1.29067E+04  2.18432E+04 -6.50903E+03  2.36579E+04 -2.14886E+04  9.23935E+03 -2.53774E+04 -6.16223E+03
 -1.78887E+04 -1.67327E+04 -6.74761E+03 -1.75685E+04  3.93528E+03 -1.57858E+04  1.31021E+04 -1.55457E+04
  2.23939E+04 -1.21951E+04  2.94372E+04  1.96865E+03  2.17724E+04  1.74457E+04  3.83743E+03  3.32366E+04
 -1.65885E+04  2.82624E+04 -2.58887E+04  9.83900E+03 -2.00106E+04 -1.04107E+04 -3.90183E+03 -1.38526E+04
  2.61310E+03 -3.90186E+03 -2.85220E+03  5.47560E+03 -1.32953E+04  5.22906E+03 -1.42233E+04 -5.42082E+03
 -9.37900E+03 -1.58277E+04  4.20948E+03 -2.04537E+04  1.32299E+04 -1.45602E+04  1.60052E+04 -1.81072E+03
  9.64767E+03  1.13077E+04 -5.81938E+02  1.68043E+04 -1.10636E+04  9.23039E+03 -1.59574E+04 -3.35811E+03
 -1.21715E+04 -1.45897E+04 -1.23892E+03 -2.00819E+04  8.75455E+03 -1.60260E+04  1.69202E+04 -7.34763E+03
  1.50009E+04  9.15165E+02  1.07496E+04  3.73113E+03  5.44992E+03  5.37825E+02  8.20524E+03 -1.70753E+03
  1.48332E+04  2.76193E+03  1.56763E+04  1.33550E+04  1.02158E+04  2.62254E+04 -2.88529E+03  2.83980E+04
 -1.59398E+04  2.17606E+04 -2.66829E+04  1.04371E+04 -2.70655E+04 -1.53538E+03 -2.29529E+04 -1.47846E+04
 -1.04022E+04 -2.20570E+04  7.56478E+03 -2.11037E+04  1.78431E+04 -1.15619E+04  1.61900E+04  4.20216E+03
  6.79386E+03  1.18259E+04 -7.45967E+03  1.10765E+04 -1.45517E+04  2.82400E+03 -1.15642E+04 -8.54235E+03
 -4.84253E+02 -1.33913E+04  6.40974E+03 -9.71305E+03  8.34484E+03 -1.33767E+03  1.60211E+03  5.31644E+03
 -6.12964E+03  1.45190E+03 -3.95960E+03 -4.71868E+03  1.24192E+03 -1.04898E+04  8.15985E+03 -1.13827E+04
  1.35840E+04 -4.58519E+03  1.39200E+04  2.31613E+03  1.15665E+04  1.03755E+04  5.62990E+03  1.54431E+04
 -1.79850E+03  1.70711E+04 -1.13296E+04  1.12989E+04 -1.23211E+04  3.13806E+03 -9.34308E+03 -2.20409E+03
 -4.43528E+03 -3.36094E+03 -8.69487E+02  1.37259E+03 -1.46752E+03  2.49475E+03 -4.23637E+03  3.64395E+03
 -8.95912E+03  1.15631E+02 -9.77139E+03 -7.74525E+03 -4.04458E+03 -1.26410E+04  3.92857E+03 -9.27183E+03
  8.06716E+03 -3.67187E+03  5.73297E+03  1.99073E+03  2.60320E+02  3.79038E+03 -3.64398E+03  1.69817E+02
 -4.19804E+03 -5.40281E+03 -1.81840E+03 -8.11728E+03  4.28341E+03 -8.84729E+03  1.10612E+04 -4.41571E+03
  1.31322E+04  6.71708E+02  9.18110E+03  7.14010E+03  2.17968E+03  9.39394E+03 -6.05549E+03  8.63743E+03
 -7.46223E+03  3.51029E+03 -3.91760E+03 -1.41005E+03  1.47566E+03 -2.11016E+03  5.43812E+03 -1.79286E+03
  4.46282E+03  4.01934E+03  9.83340E+02  6.78478E+03 -5.54735E+03  7.33652E+03 -8.66706E+03  1.75034E+03
 -5.45220E+03 -4.19339E+03 -4.05290E+02 -7.52265E+03  4.42391E+03 -3.55351E+03  4.26201E+03  1.26664E+03
  1.18635E+03  4.28015E+03 -4.67490E+03  5.53988E+03 -6.52837E+03  2.56728E+03 -5.18849E+03 -1.92501E+03
 -3.25572E+03 -6.65985E+03  1.36587E+03 -8.18449E+03  7.06400E+03 -5.01788E+03  7.14794E+03  9.61638E+02
  4.80276E+03  6.03920E+03 -3.01528E+02  8.18120E+03 -5.31391E+03  4.65966E+03 -5.93442E+03 -1.47440E+02
 -6.39088E+03 -5.94419E+03 -1.77887E+03 -5.84482E+03  3.15887E+03 -5.28780E+03  2.95699E+03 -3.07440E+03
  2.90384E+03  2.54597E+02 -1.15902E+02  1.38631E+03  3.65229E+02 -7.65087E+02  2.41383E+01 -2.91884E+03
  4.54700E+03 -8.24863E+02  6.27457E+03  3.63292E+02  6.74309E+03  4.11014E+03  5.61472E+03  8.60206E+03
 -1.66411E+03  9.98794E+03 -8.58342E+03  7.61340E+03 -1.15941E+04  1.22526E+03 -9.21136E+03 -3.09905E+03
 -4.95908E+03 -7.33442E+03 -6.49382E+02 -6.34061E+03  2.40336E+03 -2.71980E+03  2.39369E+03 -2.38762E+03
  1.63538E+03 -1.84062E+03  2.29908E+03 -2.44783E+03  3.81160E+03 -1.77015E+03  3.64441E+03  6.93049E+02
  5.38057E+03  1.48666E+03  1.66049E+03  4.59278E+03 -1.26264E+03  3.95162E+03 -5.18348E+03  3.06590E+03
 -6.70515E+03 -1.42400E+03 -2.43569E+03 -3.20355E+03  1.42968E+02 -6.31901E+03  3.39215E+03 -6.53122E+03
  5.82484E+03 -3.81441E+03  7.84931E+03  3.75646E+02  5.61012E+03  5.08660E+03  1.08452E+03  7.26202E+03
 -2.21152E+03  7.12484E+03 -4.47866E+03  2.35692E+03 -2.35877E+03 -1.10263E+03 -3.74742E+02 -1.30591E+03
 -6.40051E+02  6.31846E+02 -8.16659E+02  1.90254E+03 -2.73848E+03  1.50211E+03 -4.20830E+03 -6.45346E+02
 -1.90971E+03 -4.79885E+03  6.33172E+02 -5.27318E+03  3.61910E+03 -4.90047E+03  4.68132E+03 -1.58741E+03
  5.06157E+03  2.84626E+03  2.59719E+03  4.50911E+03 -8.64778E+02  4.76643E+03 -3.72367E+03  3.10310E+03
 -4.83431E+03  4.57895E+02 -3.51633E+03 -2.87367E+03 -4.51137E+02 -4.40458E+03  1.86196E+03 -3.31883E+03
  3.39888E+03 -1.52048E+03  2.29576E+03  3.84224E+02  4.31375E+02  1.36474E+03  6.12908E+02  4.92691E+02
  1.96512E+03  3.51026E+02  1.58535E+03  9.80575E+02  1.62670E+03  2.30319E+03  1.67016E+03  2.28083E+03
 -1.27852E+03  2.50611E+03 -3.28724E+03  5.10455E+03 -3.92113E+03  8.32487E+02 -4.62393E+03 -9.74606E+02
 -2.02339E+03 -4.93172E+03  6.83155E+02 -5.84225E+03  2.35916E+03 -3.34038E+03  4.00586E+03 -7.40105E+02
  2.57695E+03  2.33052E+03  7.82309E+02  2.77432E+03 -7.90352E+02  1.94741E+03 -1.57213E+03 -2.07084E+02
 -9.33619E+02 -1.51279E+03  1.72758E+03 -2.04113E+03  1.89367E+03 -6.18974E+02  1.34427E+03  9.73757E+02
  1.27399E+03  1.51945E+03  3.64823E+02  5.65751E+02 -1.03710E+03  8.34160E+02  1.87009E+03  1.23464E+02
  5.66149E+02 -2.77944E+02  1.43600E+03  1.02198E+03  5.47383E+02  2.51801E+03 -1.91687E+02  3.48157E+03
 -1.56142E+03  1.47101E+03 -2.58887E+03  7.48767E+02 -2.98034E+03 -3.96939E+02  5.71388E+02 -7.11883E+02
  3.99411E+02 -2.03499E+03  9.46479E+02 -1.08615E+03  8.78223E+02  1.35326E+03 -3.83249E+02  1.00200E+03
 -1.62486E+03  9.27991E+02 -1.75637E+03 -1.20808E+03 -7.25570E+02 -2.73918E+03  1.16336E+02 -2.21496E+03
  8.52335E+02 -8.50918E+02  1.01707E+03  3.51724E+02  8.80820E+02 -2.94789E+02  9.81868E+02  1.03773E+03
 -3.26307E+02 -7.02668E+01 -1.40516E+03 -2.31098E+02  7.31180E+02 -1.39090E+03  1.96518E+03 -1.61133E+03
  2.02140E+03  1.57005E+02  3.07269E+03  1.21796E+03  1.59317E+03  2.76182E+03 -4.66416E+02  2.13835E+03
 -2.21274E+03  1.21176E+03 -2.13537E+03  1.12949E+02 -1.07618E+03 -1.97049E+03  6.49465E+02 -1.12119E+03
  1.66694E+03 -3.97390E+02  1.29573E+03  1.19772E+03  1.97986E+02  1.57120E+03 -2.14119E+02  9.89290E+02
 -3.70430E+02  1.23913E+03  6.01500E+01  2.16226E+02 -5.31719E+00  1.94786E+02 -9.96848E+02 -1.67397E+01
 -1.09536E+03  1.37421E+03 -1.75483E+03  7.26604E+02 -2.14783E+03  5.64050E+02 -3.16868E+03 -1.22129E+03
 -1.76248E+03 -3.16162E+03  9.13244E+02 -4.11087E+03  1.50104E+03 -2.91995E+03  3.28094E+03 -1.64717E+03
  2.98561E+03 -9.05024E+01  1.40194E+03  1.94108E+03 -4.23118E+02  2.26944E+03 -4.30777E+02  1.55091E+03
 -1.55057E+03  5.41687E+02 -3.72593E+02 -1.12199E+02 -2.91668E+02  7.61645E+01 -1.00654E+03 -3.51072E+02
 -7.96605E+02 -1.52184E+02 -5.98305E+02  4.03311E+01  3.83019E+02 -9.11653E+02 -7.74433E+02 -9.21105E+02
  9.90544E+02 -5.92171E+02  5.60772E+02 -7.48448E+01  9.16789E+02  1.62983E+03  1.31600E+02  1.76661E+03
 -1.27676E+03  2.85767E+03 -2.77487E+03  1.43429E+03 -2.46318E+03 -4.51270E+02 -2.14708E+03 -1.71998E+03
 -1.31518E+03 -1.68803E+03 -8.52026E+01 -1.70450E+03  1.05315E+03 -8.62712E+02  8.79909E+02  5.44748E+02
  7.34765E+02  1.44786E+03 -7.31262E+02  4.03605E+02 -9.18674E+02 -6.62217E+01  9.84700E+01 -1.79345E+02
  7.41211E+02  5.15942E+02  8.54780E+01  1.52719E+02 -6.10177E+01  6.15396E+02 -1.91455E+02  5.37096E+02
 -1.18125E+03  1.03006E+03 -1.12268E+03 -4.66504E+01 -1.11560E+03 -6.66676E+02 -1.56678E+02 -2.05465E+03
  7.52481E+02 -1.26144E+03  7.50421E+02 -3.74675E+02  1.42475E+03 -3.42245E+02  6.02781E+02  1.35595E+03
  3.82877E+02  9.23688E+02 -1.85533E+02  1.32609E+03 -6.27046E+02  3.17648E+02 -3.04099E+02  4.65087E+02
 -7.30380E+02 -4.62176E+01 -4.12600E+02  4.71796E+02 -1.08064E+03 -1.29505E+02 -1.12052E+03 -4.59754E+02
 -1.44582E+03 -2.01868E+02  2.38336E+01 -1.23367E+03  9.33759E+02 -1.94249E+03  1.22336E+03  5.46844E+01
  1.40007E+03  2.53505E+02  2.29820E+01  1.30075E+01 -2.08409E+02  7.91407E+02 -3.62751E+02  6.66242E+02
