 $NMID ID='MM_0lb_SNR400_13hz_g50_65.RAW', FMTDAT='(8E13.5)'
 TRAMP=1., VOLUME=1. $END
  3.09710E+05  2.00906E+02  3.37822E+05  2.50706E+05  8.54002E+04  3.38435E+05 -1.32298E+05  2.51653E+05
 -1.90695E+05  8.35371E+04 -1.11778E+05 -3.25741E+04  2.23964E+02 -5.03352E+04  5.31895E+04 -1.07917E+03
  3.49871E+04  5.28748E+04 -1.63376E+04  7.57181E+04 -6.07413E+04  6.41272E+04 -8.43918E+04  3.17644E+04
 -8.13700E+04 -1.14263E+04 -5.71708E+04 -5.14320E+04 -1.48543E+04 -6.98321E+04  2.76795E+04 -4.56267E+04
  3.99806E+04  3.38999E+03  1.65299E+04  4.78008E+04 -3.48677E+04  4.73614E+04 -6.62965E+04  2.12098E+02
 -5.38333E+04 -5.69252E+04 -7.34766E+03 -7.71311E+04  3.45473E+04 -5.57462E+04  4.81463E+04 -1.76603E+04
  4.42431E+04  1.10549E+04  3.18136E+04  2.56782E+04  1.59646E+04  2.96528E+04 -4.74173E+03  2.68980E+04
 -2.25725E+04  1.25678E+04 -1.87227E+04 -5.11623E+03  5.65519E+03 -7.54516E+03  2.19790E+04  1.21676E+04
  7.54857E+03  3.66576E+04 -3.29217E+04  3.56659E+04 -6.39316E+04  1.99618E+03 -5.69677E+04 -4.34307E+04
 -1.24741E+04 -6.43347E+04  4.00029E+04 -4.57005E+04  5.89056E+04 -2.32013E+03  3.48453E+04  3.24247E+04
 -5.57013E+03  3.63719E+04 -3.05291E+04  1.70569E+04 -3.10864E+04 -4.32587E+03 -1.82460E+04 -1.06763E+04
 -9.05658E+03 -1.36699E+04 -6.21830E+02 -1.88250E+04  7.36975E+03 -2.34405E+04  1.56815E+04 -1.33585E+04
  1.15063E+04  5.41376E+03 -8.82763E+03  1.25947E+04 -2.16230E+04 -5.82896E+03 -8.88634E+03 -3.41671E+04
  2.32079E+04 -4.43783E+04  4.89066E+04 -1.96756E+04  4.57567E+04  1.98537E+04  1.54689E+04  4.48704E+04
 -1.65176E+04  3.35806E+04 -2.63868E+04  1.98136E+03 -1.04316E+04 -2.79234E+04  2.04224E+04 -3.46647E+04
  4.11002E+04 -9.18312E+03  3.65782E+04  2.39876E+04  1.93120E+04  4.70944E+04 -8.17423E+03  5.14873E+04
 -3.23971E+04  3.49946E+04 -4.36823E+04  9.24439E+03 -4.39888E+04 -1.76322E+04 -2.45167E+04 -3.85857E+04
  7.92724E+03 -3.82867E+04  3.20569E+04 -1.52771E+04  3.03305E+04  1.12726E+04  4.65301E+03  2.02116E+04
 -1.35816E+04  8.58794E+03 -1.08410E+04 -7.69593E+03  6.09393E+03 -1.09131E+04  1.69275E+04  6.34563E+03
  1.40020E+04  2.20895E+04 -5.32864E+03  2.56608E+04 -2.25827E+04  1.26521E+04 -2.83028E+04 -3.69428E+03
 -2.16899E+04 -1.75138E+04 -8.67062E+03 -2.16213E+04  4.28005E+03 -2.11583E+04  1.65456E+04 -1.91618E+04
  2.76211E+04 -1.38410E+04  3.37891E+04  2.79456E+03  2.38615E+04  2.08353E+04  3.92878E+03  3.72061E+04
 -1.89397E+04  3.14440E+04 -2.83010E+04  1.04566E+04 -2.09529E+04 -1.03883E+04 -4.44695E+03 -1.31786E+04
  1.62073E+03 -2.09671E+03 -5.50000E+03  6.89651E+03 -1.74026E+04  4.81777E+03 -1.70523E+04 -7.21534E+03
 -1.09265E+04 -1.96464E+04  5.15153E+03 -2.35655E+04  1.60462E+04 -1.72868E+04  1.84149E+04 -1.55929E+03
  1.17679E+04  1.46862E+04 -1.03562E+03  2.02391E+04 -1.39630E+04  1.14575E+04 -1.98093E+04 -4.05448E+03
 -1.43082E+04 -1.78868E+04 -1.51971E+03 -2.46342E+04  1.08737E+04 -1.97621E+04  2.02930E+04 -9.78318E+03
  1.84618E+04  7.08539E+02  1.30431E+04  4.83830E+03  6.73267E+03  6.52897E+02  1.03152E+04 -2.25642E+03
  1.84832E+04  3.07580E+03  2.08960E+04  1.55535E+04  1.38995E+04  3.14654E+04 -2.56654E+03  3.65671E+04
 -2.06606E+04  2.96822E+04 -3.50850E+04  1.47285E+04 -3.60686E+04 -2.71442E+03 -2.94744E+04 -2.09526E+04
 -1.25079E+04 -2.94463E+04  1.01842E+04 -2.64604E+04  2.27773E+04 -1.30649E+04  2.07186E+04  6.53735E+03
  7.52006E+03  1.48314E+04 -9.99974E+03  1.34041E+04 -1.70315E+04  2.16210E+03 -1.26046E+04 -1.05580E+04
 -3.72387E+01 -1.60118E+04  8.36070E+03 -1.18048E+04  1.06051E+04 -1.23625E+03  2.14573E+03  7.15868E+03
 -7.51440E+03  3.02245E+03 -6.51265E+03 -6.25832E+03 -9.65480E+02 -1.41849E+04  1.01100E+04 -1.54015E+04
  1.79409E+04 -7.72421E+03  2.02104E+04  3.46188E+03  1.69476E+04  1.37165E+04  7.27933E+03  2.14306E+04
 -3.24059E+03  2.38987E+04 -1.57380E+04  1.53690E+04 -1.71358E+04  3.80244E+03 -1.16688E+04 -3.49277E+03
 -5.93040E+03 -4.97830E+03 -3.54767E+02  5.98430E+02 -2.45417E+03  2.96556E+03 -4.79247E+03  5.14564E+03
 -1.11100E+04 -1.45224E+03 -1.30521E+04 -9.49043E+03 -4.78011E+03 -1.55126E+04  5.23842E+03 -1.23022E+04
  1.05192E+04 -5.55136E+03  6.60573E+03  3.28651E+03  6.95939E+01  5.72509E+03 -5.53073E+03 -4.49122E+02
 -5.15002E+03 -7.15326E+03 -1.35670E+03 -1.11605E+04  6.65094E+03 -1.20147E+04  1.50484E+04 -6.17723E+03
  1.76072E+04  9.70651E+02  1.30888E+04  1.08702E+04  3.01366E+03  1.34589E+04 -7.31577E+03  1.18582E+04
 -9.89397E+03  3.66748E+03 -5.63478E+03 -2.19830E+03  1.66273E+03 -2.96814E+03  6.32610E+03 -1.40275E+03
  5.82250E+03  4.65354E+03  1.12965E+03  9.79632E+03 -7.18562E+03  9.22946E+03 -1.16241E+04  2.83680E+03
 -7.21556E+03 -6.35493E+03  2.54155E+02 -9.99963E+03  5.88626E+03 -5.43319E+03  6.39408E+03  2.00785E+03
  1.36448E+03  6.53796E+03 -6.28444E+03  7.90084E+03 -9.27779E+03  4.29426E+03 -9.83593E+03 -3.28311E+03
 -5.76544E+03 -1.07313E+04  3.51331E+03 -1.23027E+04  1.05702E+04 -7.78285E+03  1.14429E+04  1.67926E+03
  7.18102E+03  9.45836E+03 -9.39366E+02  1.18468E+04 -9.05368E+03  6.54562E+03 -8.22702E+03 -9.91552E+02
 -7.53351E+03 -8.04637E+03 -1.52493E+03 -8.56850E+03  4.39466E+03 -7.36971E+03  5.02794E+03 -2.97847E+03
  4.18743E+03  1.39028E+03 -6.03376E+02  2.56543E+03 -5.91291E+02 -1.70747E+03  1.40853E+03 -4.15544E+03
  7.59736E+03 -2.89683E+03  1.07105E+04  1.37599E+03  1.10658E+04  6.84517E+03  7.92511E+03  1.34871E+04
 -2.90179E+03  1.69176E+04 -1.38530E+04  1.15639E+04 -1.81226E+04  1.94386E+03 -1.42075E+04 -5.64711E+03
 -6.68461E+03 -1.17081E+04 -1.09397E+02 -9.59061E+03  3.53643E+03 -4.54525E+03  3.58873E+03 -4.14264E+03
  2.51266E+03 -1.88591E+03  3.26249E+03 -2.93323E+03  4.45596E+03 -2.55378E+03  5.96837E+03  9.17521E+01
  7.88478E+03  1.54194E+03  3.56069E+03  6.34074E+03 -1.13243E+03  6.45464E+03 -7.75764E+03  5.86641E+03
 -9.76486E+03 -1.48583E+03 -5.62340E+03 -6.67781E+03 -1.02668E+00 -9.79525E+03  5.42504E+03 -1.03633E+04
  1.07344E+04 -5.86427E+03  1.34644E+04  1.42342E+03  8.95060E+03  8.48814E+03  1.51905E+03  1.15422E+04
 -5.23917E+03  9.29530E+03 -7.19059E+03  3.19588E+03 -5.03851E+03 -1.65481E+03 -1.45934E+03 -1.56270E+03
 -6.72593E+02  5.67924E+02 -9.66727E+02  2.41463E+03 -4.19596E+03  1.60776E+03 -6.91876E+03 -1.53195E+03
 -4.78038E+03 -6.64470E+03 -9.72715E+01 -9.74943E+03  6.21096E+03 -8.38907E+03  8.49724E+03 -2.71660E+03
  9.75229E+03  4.54378E+03  4.14509E+03  8.38550E+03 -2.17798E+03  9.37306E+03 -6.69403E+03  5.55869E+03
 -8.44770E+03  1.49262E+03 -6.44139E+03 -5.32967E+03 -3.17670E+02 -7.36274E+03  3.82049E+03 -5.23044E+03
  5.68963E+03 -2.04384E+03  4.90481E+03  1.63133E+03  1.69984E+03  2.77041E+03  1.34600E+03  8.06618E+02
  2.44949E+03  1.62035E+03  1.66815E+03  1.17796E+03  2.70054E+03  3.58053E+03  2.67217E+03  4.78793E+03
 -1.80975E+03  6.76774E+03 -6.41233E+03  7.62257E+03 -8.79717E+03  2.15104E+03 -9.53949E+03 -3.23864E+03
 -4.23067E+03 -8.92848E+03  1.93108E+03 -1.03581E+04  5.44516E+03 -6.26135E+03  7.59911E+03 -2.46945E+03
  5.96509E+03  3.56695E+03  1.22500E+03  5.00064E+03 -2.70136E+03  3.15898E+03 -2.94642E+03 -1.43453E+03
 -1.32568E+03 -3.54498E+03  1.98231E+03 -3.98411E+03  3.43422E+03 -2.90173E+03  3.00808E+03  1.07208E+03
  2.07418E+03  1.26612E+03  9.23728E+02  7.42983E+02 -8.53103E+02  1.53404E+03  1.03322E+03  2.80231E+01
  5.55460E+02  2.77664E+02  3.92150E+03  1.20231E+03  1.72719E+03  4.56236E+03 -4.99804E+02  6.67290E+03
 -4.19542E+03  3.33607E+03 -5.22605E+03  1.36297E+03 -4.61724E+03 -2.07844E+03 -1.33577E+03 -3.72026E+03
  4.71602E+02 -3.58429E+03  1.68754E+03 -1.82727E+03  1.76760E+03  2.37703E+03 -1.15640E+03  2.75988E+03
 -2.89092E+03  1.89680E+03 -4.06458E+03 -2.18859E+03 -2.18676E+03 -5.23220E+03  6.85002E+02 -4.54932E+03
  2.51797E+03 -2.81938E+03  2.85979E+03 -2.41887E+02  2.80932E+03  9.97111E+02  4.94059E+02  2.12304E+03
 -1.73989E+03  9.42608E+02 -2.14558E+03 -1.26173E+03  1.23372E+03 -2.42849E+03  4.27644E+03 -2.09863E+03
  4.37698E+03  6.57137E+02  5.05797E+03  3.26204E+03  1.30216E+03  5.77458E+03 -1.61781E+03  4.76226E+03
 -4.39248E+03  1.94505E+03 -4.48135E+03 -4.76143E+02 -2.17999E+03 -3.25336E+03  1.02407E+03 -2.99785E+03
  3.54546E+03 -2.15510E+03  3.07856E+03  1.26648E+03  9.35439E+02  2.77114E+03 -2.34041E+02  2.51604E+03
 -1.03355E+03  1.58570E+03 -9.95852E+02  5.57049E+02 -1.02866E+02  5.32366E+02 -6.20096E+02  6.55805E+02
 -1.94327E+03  1.85736E+03 -3.70958E+03  1.26743E+03 -5.03370E+03  5.61823E+01 -6.48388E+03 -3.75293E+03
 -2.41574E+03 -6.57803E+03  1.54798E+03 -7.52715E+03  4.35121E+03 -6.53048E+03  6.87606E+03 -2.17740E+03
  6.70400E+03  1.43321E+03  3.96199E+03  4.65488E+03  2.32430E+02  5.23634E+03 -1.13100E+03  4.31329E+03
 -2.89332E+03  1.89058E+03 -2.02708E+03 -1.34433E+03 -1.23873E+03 -5.10937E+02 -3.97241E+02 -4.07223E+02
 -1.27586E+03  5.32342E+02 -9.68002E+02 -2.89301E+01 -9.91575E+02 -1.97894E+03 -1.44931E+02 -2.09233E+03
  2.57685E+03 -1.40625E+03  2.98867E+03  1.89995E+02  3.58136E+03  3.78509E+03  1.17140E+02  4.89475E+03
 -2.72489E+03  5.15114E+03 -5.54707E+03  2.98988E+03 -5.74598E+03 -2.36963E+02 -4.22349E+03 -3.77867E+03
 -2.11589E+03 -4.37956E+03  3.95103E+02 -4.41143E+03  2.70087E+03 -2.50709E+03  2.83381E+03 -1.87644E+02
  1.71338E+03  1.40157E+03  2.22253E+02  1.31754E+03 -1.36038E+03 -2.66781E+02 -5.62774E+02 -4.64108E+02
  1.77185E+03 -9.05414E+01  1.65779E+03  7.10243E+02  1.04048E+03  2.03950E+03 -3.55653E+02  2.81183E+03
 -2.44574E+03  2.37839E+03 -2.50112E+03  9.28767E+02 -2.73046E+03 -2.02356E+03 -3.08652E+02 -3.96865E+03
  2.27714E+03 -2.97338E+03  3.51806E+03 -5.19351E+02  3.22799E+03  2.61212E+01  1.66652E+03  2.92060E+03
  7.34330E+02  2.90530E+03 -6.98617E+02  2.24922E+03 -1.13928E+03  7.94048E+02 -1.97237E+03  1.30855E+02
 -4.24345E+02 -2.86882E+02 -8.81746E+02  2.34887E+02 -1.77398E+03  6.05278E+02 -2.21779E+03 -2.10129E+02
 -2.56961E+03 -7.56251E+02 -5.42416E+02 -2.36656E+03  1.37524E+03 -3.14013E+03  2.66841E+03 -9.26976E+02
  2.79702E+03  5.36793E+02  6.68976E+02  1.71452E+03  8.54915E+01  2.65790E+03 -2.20025E+03  1.93663E+03
