 $NMID ID='MM_0lb_SNR400_15hz_g60_2.RAW', FMTDAT='(8E13.5)'
 TRAMP=1., VOLUME=1. $END
  3.09828E+05  3.16439E+02  3.38005E+05  2.50947E+05  8.49769E+04  3.38385E+05 -1.32654E+05  2.51424E+05
 -1.90513E+05  8.32897E+04 -1.12027E+05 -3.28769E+04  6.62527E+02 -4.99926E+04  5.32840E+04 -4.75387E+02
  3.58094E+04  5.33179E+04 -1.69969E+04  7.56319E+04 -6.13854E+04  6.36843E+04 -8.37828E+04  3.17930E+04
 -8.13957E+04 -1.20196E+04 -5.74195E+04 -5.14972E+04 -1.52798E+04 -7.03908E+04  2.68153E+04 -4.64107E+04
  4.02413E+04  3.53516E+03  1.61282E+04  4.77400E+04 -3.47031E+04  4.73195E+04 -6.69499E+04  1.82365E+02
 -5.39568E+04 -5.68827E+04 -7.21957E+03 -7.77939E+04  3.46834E+04 -5.52802E+04  4.75297E+04 -1.78093E+04
  4.39775E+04  1.10592E+04  3.23382E+04  2.56859E+04  1.58483E+04  2.93580E+04 -5.92414E+03  2.75297E+04
 -2.27418E+04  1.19665E+04 -1.88230E+04 -5.41771E+03  5.93897E+03 -7.70390E+03  2.23618E+04  1.23109E+04
  7.34508E+03  3.59284E+04 -3.23205E+04  3.60384E+04 -6.39150E+04  2.54098E+03 -5.75124E+04 -4.33266E+04
 -1.20886E+04 -6.39179E+04  3.95936E+04 -4.61430E+04  5.89949E+04 -2.46219E+03  3.47136E+04  3.31954E+04
 -6.46305E+03  3.66990E+04 -3.01355E+04  1.63034E+04 -3.12829E+04 -4.57389E+03 -1.74270E+04 -1.14605E+04
 -8.21764E+03 -1.34463E+04 -1.03687E+03 -1.81972E+04  7.20653E+03 -2.25594E+04  1.53828E+04 -1.31950E+04
  1.12635E+04  5.64895E+03 -8.75625E+03  1.28626E+04 -2.17251E+04 -5.31423E+03 -7.98547E+03 -3.47217E+04
  2.32442E+04 -4.49169E+04  4.86294E+04 -2.05952E+04  4.61251E+04  1.96123E+04  1.52218E+04  4.47165E+04
 -1.58915E+04  3.36971E+04 -2.57588E+04  2.10952E+03 -9.69647E+03 -2.82100E+04  2.09356E+04 -3.47868E+04
  4.19734E+04 -9.11012E+03  3.58441E+04  2.41688E+04  1.85785E+04  4.64299E+04 -8.01367E+03  5.09221E+04
 -3.21610E+04  3.45326E+04 -4.27547E+04  9.07271E+03 -4.31517E+04 -1.70922E+04 -2.42659E+04 -3.86624E+04
  7.92958E+03 -3.88418E+04  3.16951E+04 -1.44140E+04  2.96143E+04  1.08109E+04  4.35919E+03  1.95090E+04
 -1.35593E+04  8.90713E+03 -1.05037E+04 -7.41717E+03  5.56454E+03 -1.04644E+04  1.81734E+04  5.45255E+03
  1.37106E+04  2.21386E+04 -5.42079E+03  2.53719E+04 -2.29976E+04  1.17761E+04 -2.88108E+04 -5.21943E+03
 -2.15795E+04 -1.78532E+04 -8.85561E+03 -2.14329E+04  3.79071E+03 -2.07144E+04  1.61274E+04 -1.89495E+04
  2.66059E+04 -1.29778E+04  3.32343E+04  3.83207E+03  2.43509E+04  2.10148E+04  4.38717E+03  3.71101E+04
 -1.81522E+04  3.11255E+04 -2.84792E+04  1.06170E+04 -2.08953E+04 -1.06768E+04 -4.09159E+03 -1.34420E+04
  1.40168E+03 -2.15886E+03 -5.57467E+03  7.10456E+03 -1.66646E+04  5.14811E+03 -1.71024E+04 -7.21946E+03
 -1.01761E+04 -1.92164E+04  5.16744E+03 -2.35329E+04  1.57598E+04 -1.66663E+04  1.85602E+04 -2.04819E+03
  1.18327E+04  1.35214E+04 -1.50033E+03  1.96360E+04 -1.33052E+04  1.08523E+04 -1.96677E+04 -3.79507E+03
 -1.42772E+04 -1.72260E+04 -2.02888E+03 -2.31765E+04  1.09632E+04 -1.94376E+04  1.91981E+04 -1.00306E+04
  1.75157E+04  2.32477E+01  1.31134E+04  4.52706E+03  6.48003E+03  7.81190E+02  9.37359E+03 -1.93105E+03
  1.79681E+04  2.95148E+03  2.02369E+04  1.47136E+04  1.36872E+04  3.05311E+04 -2.87504E+03  3.50447E+04
 -2.03140E+04  2.80092E+04 -3.26482E+04  1.49372E+04 -3.43809E+04 -2.37923E+03 -2.80697E+04 -1.95426E+04
 -1.27601E+04 -2.78786E+04  9.90119E+03 -2.56368E+04  2.19586E+04 -1.37805E+04  1.91515E+04  5.46120E+03
  7.67162E+03  1.45436E+04 -8.65097E+03  1.29604E+04 -1.67216E+04  2.87389E+03 -1.18940E+04 -1.06409E+04
 -5.43338E+01 -1.53839E+04  8.44405E+03 -1.15866E+04  1.05206E+04 -1.06282E+03  2.56929E+03  7.02735E+03
 -6.75638E+03  2.32715E+03 -6.28638E+03 -5.64106E+03 -5.29995E+02 -1.35773E+04  9.69110E+03 -1.43566E+04
  1.61653E+04 -7.34898E+03  1.87752E+04  3.00786E+03  1.58856E+04  1.36841E+04  7.36665E+03  2.06789E+04
 -3.01798E+03  2.24578E+04 -1.41249E+04  1.38136E+04 -1.60007E+04  3.34624E+03 -1.13976E+04 -3.34666E+03
 -5.00701E+03 -4.68847E+03 -1.51634E+03  1.22979E+03 -2.11753E+03  2.74814E+03 -4.85139E+03  4.46155E+03
 -1.11188E+04 -9.24166E+02 -1.15556E+04 -9.23411E+03 -4.26787E+03 -1.51623E+04  4.33768E+03 -1.19103E+04
  9.68554E+03 -4.71552E+03  7.54589E+03  2.97180E+03  1.89055E+02  3.65009E+03 -5.22980E+03  2.96930E+02
 -5.29191E+03 -7.46530E+03 -1.08537E+03 -1.03189E+04  6.29511E+03 -1.17606E+04  1.34984E+04 -5.35389E+03
  1.65719E+04  1.69501E+03  1.16320E+04  9.70148E+03  1.96137E+03  1.28279E+04 -7.09161E+03  1.13738E+04
 -9.28742E+03  3.59589E+03 -4.62808E+03 -1.81890E+03  2.54646E+03 -2.70517E+03  6.54259E+03 -1.37517E+03
  5.72387E+03  4.80676E+03  9.58396E+02  8.77942E+03 -7.00381E+03  9.05117E+03 -1.12791E+04  2.08692E+03
 -7.35013E+03 -5.50579E+03  2.97168E+02 -9.85524E+03  6.29550E+03 -4.09589E+03  6.47487E+03  1.66366E+03
  8.80839E+02  6.32611E+03 -5.80929E+03  6.63164E+03 -8.00404E+03  3.48088E+03 -7.50402E+03 -2.64908E+03
 -5.22409E+03 -1.03949E+04  2.28415E+03 -1.11777E+04  9.60524E+03 -6.84774E+03  1.07426E+04  1.13279E+03
  6.66703E+03  7.91490E+03 -3.78706E+02  1.05489E+04 -7.93984E+03  5.78235E+03 -8.47106E+03 -4.47118E+02
 -8.02998E+03 -6.76794E+03 -1.49884E+03 -7.67998E+03  4.24415E+03 -6.29503E+03  4.25104E+03 -2.83048E+03
  3.38685E+03  9.19342E+02 -8.86963E+02  1.38460E+03 -1.36555E+02 -1.16385E+03  9.07976E+02 -4.14853E+03
  6.49557E+03 -2.18269E+03  8.87647E+03  9.67342E+02  9.30265E+03  6.15442E+03  7.72043E+03  1.17467E+04
 -2.21418E+03  1.41896E+04 -1.16580E+04  1.05595E+04 -1.57423E+04  1.94076E+03 -1.23474E+04 -4.43631E+03
 -7.04166E+03 -1.06949E+04 -3.51235E+02 -8.80691E+03  3.50498E+03 -3.90062E+03  3.15540E+03 -3.46780E+03
  2.71191E+03 -1.96783E+03  2.87185E+03 -2.35037E+03  4.77193E+03 -1.96193E+03  5.09561E+03  9.65086E+01
  7.04081E+03  9.88778E+02  2.74992E+03  5.21085E+03 -1.59821E+03  5.86199E+03 -6.57226E+03  4.23591E+03
 -7.87864E+03 -1.60350E+03 -4.97784E+03 -5.51332E+03  2.77391E+02 -8.85981E+03  5.12300E+03 -8.71898E+03
  8.32094E+03 -5.11486E+03  1.09824E+04  1.55505E+03  7.40600E+03  7.53546E+03  1.93537E+03  9.52593E+03
 -3.38378E+03  8.58813E+03 -5.96322E+03  2.65088E+03 -4.06760E+03 -1.13534E+03 -1.32324E+03 -9.72122E+02
 -2.46884E+02  8.72903E+02 -9.10290E+02  2.02123E+03 -3.69812E+03  2.00985E+03 -5.64621E+03 -8.22277E+02
 -3.37816E+03 -5.58867E+03  7.26471E+02 -7.64459E+03  4.34730E+03 -6.93105E+03  6.26098E+03 -2.50601E+03
  6.73224E+03  3.43756E+03  3.12492E+03  6.25712E+03 -1.30159E+03  7.81192E+03 -5.71276E+03  4.89627E+03
 -6.50583E+03  3.05247E+02 -5.83379E+03 -4.45038E+03 -2.34453E+02 -6.45871E+03  3.50895E+03 -4.35182E+03
  4.51136E+03 -1.85384E+03  3.17575E+03  4.99720E+02  1.29984E+03  2.58864E+03  1.14273E+03  8.84080E+02
  2.22358E+03  7.39300E+02  1.99865E+03  1.89423E+03  2.17136E+03  2.91932E+03  2.45917E+03  3.47141E+03
 -1.76056E+03  6.24802E+03 -5.12021E+03  6.23126E+03 -7.12402E+03  2.08243E+03 -7.85213E+03 -2.72362E+03
 -2.89774E+03 -7.30130E+03  9.23873E+02 -8.09827E+03  3.98421E+03 -4.60214E+03  6.17854E+03 -1.86636E+03
  4.31599E+03  3.37640E+03  7.52634E+02  3.71996E+03 -1.45556E+03  2.26528E+03 -2.36543E+03 -7.27119E+01
 -1.02726E+03 -2.30271E+03  1.29043E+03 -2.73182E+03  3.06288E+03 -1.43138E+03  2.73077E+03  6.29711E+02
  1.29618E+03  1.37458E+03  1.62404E+03  1.07377E+03  6.13003E+01  1.17374E+03  1.85660E+03 -9.71766E+01
  8.96982E+02 -3.37148E+02  2.81140E+03  1.28851E+03  1.76702E+03  4.90005E+03 -4.74322E+02  5.38095E+03
 -2.82687E+03  2.52926E+03 -3.92241E+03  9.88802E+02 -3.97125E+03 -1.16965E+03 -1.24284E+03 -2.54999E+03
 -3.03482E+02 -2.53703E+03  1.38117E+03 -1.02594E+03  1.42894E+03  1.58754E+03 -9.78637E+02  2.00619E+03
 -2.73415E+03  1.25521E+03 -2.63489E+03 -1.64150E+03 -1.63146E+03 -3.90348E+03  1.96833E+01 -3.21426E+03
  1.36755E+03 -1.62080E+03  2.11787E+03 -3.04705E+02  1.90040E+03  8.56932E+02  4.28998E+02  2.23876E+03
 -9.88199E+02 -8.61926E+01 -2.34700E+03 -9.39606E+02  4.05892E+02 -2.61458E+03  3.24967E+03 -1.65671E+03
  3.59755E+03  4.57290E+02  4.39529E+03  2.29315E+03  1.10375E+03  4.36162E+03 -1.24361E+03  3.34895E+03
 -3.50237E+03  7.60138E+02 -2.91025E+03 -6.97485E+02 -1.90947E+03 -2.99189E+03  5.03192E+02 -2.06248E+03
  2.99317E+03 -1.28669E+03  1.80743E+03  1.49346E+03  6.09286E+02  2.82388E+03 -3.63869E+02  1.85967E+03
 -9.32298E+02  1.65778E+03 -1.15865E+03  3.52634E+02 -2.09433E+02  6.43289E+02 -6.64770E+02  7.88607E+02
 -1.29767E+03  1.58236E+03 -3.51092E+03  1.31967E+03 -2.86128E+03  1.61962E+02 -4.35451E+03 -2.00122E+03
 -1.50111E+03 -4.37821E+03  7.41341E+02 -5.15013E+03  2.63147E+03 -4.05190E+03  4.45386E+03 -2.22247E+03
  4.40271E+03  6.14035E+02  2.66993E+03  3.64367E+03  2.68344E+00  3.33187E+03 -1.01649E+03  2.29018E+03
 -1.02338E+03  1.14008E+03 -1.31484E+03 -9.41743E+02 -1.20506E+03  6.68868E+00 -7.90645E+02  3.27477E+02
 -7.28056E+02  2.65757E+01 -7.56740E+02 -3.01078E+02  2.82552E+02 -1.29502E+03  3.97512E+02 -1.82854E+03
  1.90303E+03 -1.03450E+03  1.63513E+03  3.44720E+02  2.06445E+03  1.95168E+03 -2.86755E+02  3.46239E+03
 -1.82247E+03  3.99293E+03 -3.41136E+03  2.56370E+03 -3.19111E+03  1.92122E+02 -2.64546E+03 -2.33921E+03
 -9.90692E+02 -3.62244E+03  1.84696E+03 -2.97450E+03  1.99456E+03 -1.12127E+03  1.86873E+03 -1.83546E+02
  8.78288E+02  1.08225E+03  1.50722E+02  1.01953E+03 -3.50561E+02 -1.82432E+02 -3.52954E+02 -4.73864E+02
  1.47566E+03 -6.82442E+02  8.52434E+02  8.95084E+02  1.12124E+03  1.54578E+03  5.09469E+02  9.92703E+02
 -1.36050E+03  1.36894E+03 -1.30997E+03  7.65690E+02 -1.67920E+03 -1.28982E+03  6.57078E+01 -2.45677E+03
  1.31803E+03 -1.22821E+03  1.42396E+03 -6.04932E+02  1.99961E+03  2.30607E+02  1.39850E+03  1.72056E+03
  8.33137E+02  1.90388E+03 -1.58162E+02  1.63834E+03 -1.33884E+03  9.76600E+02 -5.86462E+02 -2.83446E+02
 -1.02852E+03  2.24400E+02 -8.50892E+02  4.70704E+02 -9.28569E+02  4.53070E+02 -1.39158E+03 -4.04449E+02
 -1.41281E+03 -2.96409E+02 -4.53769E+02 -1.52631E+03  9.81138E+02 -1.90652E+03  1.95178E+03 -1.51327E+02
  1.48366E+03  9.03454E+02  1.19844E+02  8.96783E+02 -3.83001E+02  1.98257E+03 -1.01475E+03  1.93508E+03
