 $NMID ID='MM_0lb_SNR400_16hz_g45_85.RAW', FMTDAT='(8E13.5)'
 TRAMP=1., VOLUME=1. $END
  3.09938E+05  6.76454E+02  3.37565E+05  2.50487E+05  8.45618E+04  3.38203E+05 -1.32924E+05  2.51072E+05
 -1.89982E+05  8.31089E+04 -1.11635E+05 -3.30656E+04  1.34142E+03 -5.05043E+04  5.37353E+04 -9.47206E+01
  3.51447E+04  5.28568E+04 -1.63376E+04  7.52041E+04 -6.03453E+04  6.28612E+04 -8.40919E+04  3.12428E+04
 -8.07454E+04 -1.13213E+04 -5.73528E+04 -5.03833E+04 -1.53263E+04 -6.87650E+04  2.66815E+04 -4.52027E+04
  3.94752E+04  3.89009E+03  1.62523E+04  4.76435E+04 -3.42806E+04  4.63073E+04 -6.57513E+04 -4.51176E+02
 -5.22674E+04 -5.64774E+04 -6.85228E+03 -7.57801E+04  3.35539E+04 -5.44423E+04  4.67901E+04 -1.71392E+04
  4.21133E+04  1.07805E+04  3.18036E+04  2.48968E+04  1.60516E+04  2.91266E+04 -5.11093E+03  2.66213E+04
 -2.22705E+04  1.26716E+04 -1.92324E+04 -4.65536E+03  5.07109E+03 -8.12279E+03  2.18824E+04  1.18362E+04
  7.67004E+03  3.44487E+04 -3.11658E+04  3.50683E+04 -6.21145E+04  1.84898E+03 -5.63225E+04 -4.19123E+04
 -1.24052E+04 -6.16143E+04  3.92986E+04 -4.41949E+04  5.68985E+04 -1.62235E+03  3.38318E+04  3.11249E+04
 -6.49006E+03  3.49175E+04 -2.90537E+04  1.43041E+04 -2.87032E+04 -4.31305E+03 -1.54128E+04 -1.04862E+04
 -8.12657E+03 -1.27296E+04 -1.14739E+03 -1.68792E+04  6.81850E+03 -2.26290E+04  1.45898E+04 -1.37589E+04
  1.13982E+04  4.74190E+03 -7.09990E+03  1.28667E+04 -2.05231E+04 -3.32423E+03 -8.39244E+03 -3.18142E+04
  2.17083E+04 -4.17415E+04  4.59540E+04 -1.88000E+04  4.34218E+04  1.87708E+04  1.48188E+04  4.28165E+04
 -1.51186E+04  3.20136E+04 -2.48678E+04  1.74212E+03 -9.37543E+03 -2.70694E+04  2.05166E+04 -3.16638E+04
  3.99590E+04 -8.21761E+03  3.35432E+04  2.33159E+04  1.68284E+04  4.40629E+04 -7.67853E+03  4.73262E+04
 -2.95754E+04  3.23191E+04 -3.92797E+04  8.52999E+03 -4.02152E+04 -1.58216E+04 -2.22562E+04 -3.59723E+04
  6.95736E+03 -3.59260E+04  3.03628E+04 -1.35305E+04  2.84553E+04  1.08848E+04  3.26985E+03  1.88283E+04
 -1.32842E+04  8.25988E+03 -1.08477E+04 -7.25126E+03  6.02317E+03 -1.06859E+04  1.78482E+04  6.29788E+03
  1.27073E+04  2.20694E+04 -6.38989E+03  2.39684E+04 -2.18392E+04  1.03762E+04 -2.60789E+04 -5.89898E+03
 -1.90892E+04 -1.67624E+04 -6.34747E+03 -1.88651E+04  4.08510E+03 -1.67581E+04  1.41866E+04 -1.69200E+04
  2.38105E+04 -1.24352E+04  3.00246E+04  1.90916E+03  2.22968E+04  1.78445E+04  4.11482E+03  3.36432E+04
 -1.69223E+04  2.90343E+04 -2.61452E+04  9.87527E+03 -2.00034E+04 -1.07198E+04 -4.29333E+03 -1.35280E+04
  2.16437E+03 -3.59929E+03 -4.61778E+03  5.81579E+03 -1.48558E+04  5.08534E+03 -1.45304E+04 -5.53959E+03
 -8.55330E+03 -1.75336E+04  5.31268E+03 -2.10208E+04  1.39178E+04 -1.49668E+04  1.63349E+04 -9.70905E+02
  1.02841E+04  1.15340E+04 -9.50415E+02  1.65776E+04 -1.16693E+04  9.37143E+03 -1.75964E+04 -3.58204E+03
 -1.33612E+04 -1.56736E+04 -2.05395E+03 -2.02653E+04  9.43030E+03 -1.65990E+04  1.78463E+04 -8.47825E+03
  1.61435E+04  8.97823E+02  1.14537E+04  4.33650E+03  5.46493E+03  1.24785E+03  8.40428E+03 -1.70951E+03
  1.55184E+04  2.77926E+03  1.66352E+04  1.35095E+04  1.05293E+04  2.72155E+04 -3.43891E+03  2.99882E+04
 -1.69103E+04  2.36617E+04 -2.78908E+04  1.13361E+04 -2.90711E+04 -2.02922E+03 -2.48508E+04 -1.64492E+04
 -1.08293E+04 -2.37620E+04  7.76852E+03 -2.19358E+04  1.92314E+04 -1.21027E+04  1.75004E+04  4.47710E+03
  7.33292E+03  1.21995E+04 -8.43553E+03  1.15308E+04 -1.45818E+04  2.84381E+03 -1.14330E+04 -9.17504E+03
 -2.98492E+01 -1.42987E+04  6.93787E+03 -1.03324E+04  8.78748E+03 -1.67997E+03  1.84586E+03  5.33531E+03
 -6.00416E+03  2.20355E+03 -4.17897E+03 -5.25474E+03 -9.68041E+01 -1.17595E+04  8.32526E+03 -1.20612E+04
  1.41029E+04 -6.07642E+03  1.45063E+04  3.08336E+03  1.27535E+04  1.13667E+04  6.04698E+03  1.68121E+04
 -2.21530E+03  1.86505E+04 -1.12878E+04  1.16544E+04 -1.37150E+04  2.89413E+03 -9.55329E+03 -2.37586E+03
 -4.40846E+03 -4.07658E+03 -5.60873E+02  6.64569E+02 -2.51747E+03  1.90799E+03 -4.44245E+03  3.90311E+03
 -9.03158E+03 -2.61265E+02 -9.60649E+03 -8.40370E+03 -3.76023E+03 -1.29204E+04  4.03267E+03 -1.02398E+04
  8.28031E+03 -4.10259E+03  5.90412E+03  2.99014E+03  5.25680E+02  3.80324E+03 -4.47805E+03  9.01861E+02
 -4.59339E+03 -5.68932E+03 -4.34228E+02 -8.47648E+03  4.60787E+03 -9.46404E+03  1.15605E+04 -5.49754E+03
  1.41829E+04  8.52849E+02  1.01712E+04  7.29379E+03  1.90021E+03  1.05599E+04 -5.68680E+03  9.70849E+03
 -7.65819E+03  2.70521E+03 -4.66033E+03 -1.67268E+03  1.41557E+03 -2.76331E+03  5.25091E+03 -1.16368E+03
  4.12090E+03  3.93962E+03  1.10969E+03  7.72915E+03 -5.01019E+03  7.82866E+03 -9.03662E+03  2.27190E+03
 -5.76458E+03 -4.30302E+03  5.36591E+02 -8.04352E+03  4.01838E+03 -3.39972E+03  4.18373E+03  1.55111E+03
  1.30290E+03  4.34498E+03 -4.95761E+03  6.12776E+03 -6.60894E+03  2.60519E+03 -6.01741E+03 -1.48918E+03
 -4.06729E+03 -7.67465E+03  2.45785E+03 -9.03933E+03  7.67404E+03 -5.48875E+03  8.57516E+03  6.81659E+02
  5.18484E+03  6.88635E+03 -6.22258E+02  8.39413E+03 -6.95233E+03  4.95221E+03 -6.66641E+03 -1.36726E+03
 -6.89175E+03 -6.09673E+03 -1.78538E+03 -6.22384E+03  2.87108E+03 -5.77423E+03  3.27358E+03 -3.39905E+03
  3.41357E+03  5.74376E+02 -3.26834E+02  1.09740E+03  3.37566E+02 -3.55628E+02  7.64481E+02 -2.73454E+03
  5.29700E+03 -1.92756E+03  6.98752E+03  4.60088E+02  7.44956E+03  4.19910E+03  6.05098E+03  8.94472E+03
 -1.88742E+03  1.15456E+04 -9.69322E+03  8.81204E+03 -1.26392E+04  1.40227E+03 -1.00539E+04 -4.17763E+03
 -4.91670E+03 -8.57687E+03 -7.05102E+02 -6.73573E+03  2.83028E+03 -3.51802E+03  2.09858E+03 -3.13150E+03
  2.20476E+03 -1.07966E+03  1.94104E+03 -2.59206E+03  4.11636E+03 -1.63885E+03  4.66461E+03 -5.91322E+02
  5.94367E+03  1.71703E+03  2.01503E+03  4.17949E+03 -1.36088E+03  4.47600E+03 -5.40855E+03  3.92994E+03
 -6.46788E+03 -5.46403E+02 -3.27652E+03 -4.81366E+03  3.97540E+02 -6.86287E+03  4.16106E+03 -6.83844E+03
  6.68876E+03 -4.04851E+03  8.83957E+03  1.21578E+03  5.75403E+03  6.03847E+03  1.10842E+03  7.66620E+03
 -2.43927E+03  7.05292E+03 -5.12001E+03  2.34125E+03 -2.60431E+03 -8.67735E+02 -1.38632E+03 -9.20258E+02
 -1.00525E+03  1.75745E+02 -9.58711E+02  2.06317E+03 -2.82214E+03  1.13758E+03 -4.75794E+03 -2.47105E+02
 -2.76913E+03 -5.20574E+03  1.95473E+02 -6.47230E+03  3.82798E+03 -5.80904E+03  5.62462E+03 -1.60426E+03
  5.99666E+03  3.04885E+03  2.74213E+03  4.60565E+03 -6.93061E+02  5.63549E+03 -3.63023E+03  3.65440E+03
 -5.17841E+03  8.73498E+02 -4.67527E+03 -3.59482E+03 -2.30341E+02 -4.77186E+03  1.95761E+03 -3.91597E+03
  3.69654E+03 -1.66268E+03  2.53631E+03  3.63512E+02  6.76418E+02  2.44118E+03  6.27565E+02  6.94520E+02
  1.70862E+03  8.49537E+02  1.73350E+03  1.28072E+03  1.45751E+03  2.54069E+03  1.82007E+03  2.82788E+03
 -1.71820E+03  4.27352E+03 -3.96985E+03  5.30874E+03 -5.11906E+03  1.50514E+03 -5.70308E+03 -1.43877E+03
 -2.94377E+03 -5.33378E+03  8.98088E+02 -6.58458E+03  2.82363E+03 -4.19665E+03  4.69939E+03 -8.76046E+02
  3.16822E+03  2.52677E+03  6.47501E+02  3.01020E+03 -1.01786E+03  2.31199E+03 -1.28439E+03  2.64560E+02
 -9.14261E+02 -2.64897E+03  1.28582E+03 -2.18249E+03  2.23358E+03 -1.88519E+03  2.03919E+03  5.24112E+02
  1.38328E+03  9.36898E+02  1.04926E+03 -1.07193E+02 -6.46609E+02  1.08072E+03  1.95740E+03 -1.65400E+02
  2.43684E+02  5.72079E+02  3.26146E+03  1.26281E+03  9.56346E+02  2.80336E+03 -2.59590E+02  3.39890E+03
 -2.17444E+03  2.11441E+03 -2.56457E+03  7.88400E+02 -3.30229E+03 -1.06591E+03 -4.66949E+02 -1.28060E+03
  7.77529E+02 -1.93138E+03  9.90345E+02 -6.83255E+02  7.05081E+02  1.97302E+03 -7.54365E+02  1.44496E+03
 -2.29080E+03  1.29912E+03 -2.32629E+03 -1.30823E+03 -1.05034E+03 -2.50880E+03  3.76598E+02 -2.56062E+03
  8.22616E+02 -1.29674E+03  1.46999E+03  7.01534E+01  1.46007E+03  2.25919E+02  4.80254E+01  1.93075E+03
 -1.10085E+03  2.98173E+02 -1.59135E+03 -1.10877E+03  6.37774E+02 -1.87315E+03  2.55963E+03 -1.21125E+03
  1.88766E+03  3.35442E+02  3.82812E+03  1.45107E+03  1.61036E+03  2.88857E+03 -7.72399E+02  3.27643E+03
 -2.54111E+03  7.85907E+02 -2.01875E+03 -1.41000E+02 -1.76529E+03 -2.01406E+03  2.31595E+02 -1.06939E+03
  2.15472E+03 -8.69047E+02  1.69449E+03  1.04532E+03  4.60103E+02  1.81944E+03  1.61603E+02  1.29185E+03
 -6.40627E+02  8.71385E+02 -3.66275E+02  1.17784E+02  3.08500E+02  4.21600E+02 -4.30682E+02  1.15915E+03
 -9.29975E+02  1.13780E+03 -2.64400E+03  6.70424E+02 -2.38224E+03  7.03427E+01 -3.42222E+03 -1.37534E+03
 -1.24314E+03 -3.57410E+03  4.51493E+02 -4.32646E+03  2.34660E+03 -3.28920E+03  4.40640E+03 -1.57080E+03
  3.71528E+03 -1.48903E+01  2.21480E+03  2.24465E+03 -1.57498E+02  2.73763E+03 -3.53535E+02  2.34782E+03
 -1.65727E+03  3.55761E+02 -6.41216E+02 -8.54124E+02 -5.62909E+02 -7.83030E+01 -5.51592E+02 -7.35566E+02
 -1.33973E+03 -1.63583E+02 -1.18832E+03 -3.30964E+02  2.50699E+02 -1.39388E+03 -3.03954E+02 -1.06952E+03
  1.63606E+03 -1.35357E+03  1.21438E+03 -2.47008E+02  1.75646E+03  1.72152E+03  5.05569E+01  2.37345E+03
 -1.07761E+03  3.15736E+03 -2.50241E+03  2.11715E+03 -2.60077E+03 -2.65080E+02 -1.86707E+03 -1.99726E+03
 -1.53915E+03 -2.59547E+03  8.16061E+02 -1.92033E+03  1.38513E+03 -1.42796E+03  1.62472E+03  2.40207E+01
  1.27080E+03  4.59960E+02 -5.90533E+02  5.55284E+02 -4.34346E+02 -1.49660E+01  2.17865E+02 -2.29627E+02
  7.41854E+02  1.72809E+01  7.85004E+02  7.63128E+02  6.67663E+02  1.47116E+03  3.12659E+02  4.61680E+02
 -1.62121E+03  1.61931E+03 -1.30294E+03 -1.65150E+02 -1.27412E+03 -1.19171E+03  1.51627E+02 -1.30325E+03
  7.06084E+02 -1.84875E+03  1.96982E+03  3.27291E+01  1.56496E+03 -5.37037E+02  9.17377E+02  1.60810E+03
  4.33449E+02  1.32436E+03 -6.89966E+02  1.00708E+03 -1.06288E+03  9.10747E+02 -5.91447E+02  3.39017E+02
 -2.11623E+02 -2.88995E+02 -4.91646E+02  2.15164E+02 -9.97837E+02  2.04759E+00 -1.48652E+03 -5.75752E+02
 -1.37116E+03  4.44014E+01 -3.94479E+02 -1.81330E+03  1.21314E+03 -2.21706E+03  1.21360E+03 -2.11753E+02
  1.90818E+03  2.26141E+02  8.07306E+01  9.72420E+02 -4.09847E+02  2.15195E+03 -4.13653E+02  1.29138E+03
