 $NMID ID='MM_0lb_SNR400_9hz_g60_10.RAW', FMTDAT='(8E13.5)'
 TRAMP=1., VOLUME=1. $END
  3.10230E+05  3.58521E+02  3.37578E+05  2.50085E+05  8.48663E+04  3.39615E+05 -1.33001E+05  2.51790E+05
 -1.90933E+05  8.35607E+04 -1.12118E+05 -3.22109E+04  6.62753E+02 -5.11762E+04  5.31234E+04 -6.27232E+02
  3.54994E+04  5.30656E+04 -1.69618E+04  7.51744E+04 -6.03577E+04  6.42914E+04 -8.59723E+04  3.18451E+04
 -8.19514E+04 -1.12877E+04 -5.84038E+04 -5.24102E+04 -1.44433E+04 -7.22767E+04  2.84117E+04 -4.67644E+04
  4.18177E+04  3.63084E+03  1.73009E+04  4.91781E+04 -3.56475E+04  4.81709E+04 -6.90404E+04  2.37169E-01
 -5.55589E+04 -5.80660E+04 -6.95772E+03 -7.93846E+04  3.43257E+04 -5.79175E+04  5.02999E+04 -1.91309E+04
  4.56483E+04  1.20863E+04  3.39970E+04  2.62711E+04  1.59720E+04  3.03717E+04 -6.65117E+03  2.74191E+04
 -2.26940E+04  1.27741E+04 -1.77913E+04 -5.93017E+03  8.18590E+03 -7.65978E+03  2.36157E+04  1.42559E+04
  6.94899E+03  3.83466E+04 -3.34922E+04  3.70148E+04 -6.64431E+04  1.93645E+03 -5.86709E+04 -4.47979E+04
 -1.25038E+04 -6.62224E+04  4.18177E+04 -4.67690E+04  6.19338E+04 -2.36430E+03  3.72900E+04  3.42658E+04
 -5.08294E+03  3.96669E+04 -3.27914E+04  1.93671E+04 -3.33277E+04 -3.17925E+03 -2.03120E+04 -1.15707E+04
 -9.00410E+03 -1.61620E+04  2.61104E+01 -2.04341E+04  8.60157E+03 -2.41310E+04  1.55488E+04 -1.20399E+04
  1.03123E+04  7.08614E+03 -1.10608E+04  1.26189E+04 -2.37425E+04 -7.13752E+03 -8.42120E+03 -3.78012E+04
  2.59221E+04 -4.73151E+04  5.35040E+04 -2.07354E+04  4.94254E+04  2.08502E+04  1.74558E+04  4.78636E+04
 -1.67140E+04  3.70572E+04 -2.82611E+04  2.13031E+03 -1.22217E+04 -2.96696E+04  2.17448E+04 -3.74426E+04
  4.53912E+04 -1.10052E+04  4.14703E+04  2.53727E+04  2.16576E+04  5.19512E+04 -8.31058E+03  5.72006E+04
 -3.60483E+04  3.89317E+04 -4.86900E+04  1.12799E+04 -4.86742E+04 -1.92300E+04 -2.61625E+04 -4.36716E+04
  8.58944E+03 -4.29885E+04  3.45945E+04 -1.68044E+04  3.25131E+04  1.11753E+04  6.16275E+03  2.07975E+04
 -1.32322E+04  9.87015E+03 -1.16840E+04 -7.38788E+03  5.80849E+03 -1.14138E+04  1.91159E+04  4.96670E+03
  1.54544E+04  2.27639E+04 -5.00886E+03  2.72150E+04 -2.35531E+04  1.49714E+04 -3.22730E+04 -2.11048E+03
 -2.67652E+04 -1.85155E+04 -1.20789E+04 -2.60953E+04  3.49124E+03 -2.66757E+04  2.13219E+04 -2.37385E+04
  3.33655E+04 -1.42173E+04  3.91152E+04  5.40286E+03  2.84275E+04  2.54283E+04  4.56279E+03  4.27818E+04
 -2.04346E+04  3.44625E+04 -3.14940E+04  1.18754E+04 -2.28266E+04 -9.99242E+03 -4.71904E+03 -1.35402E+04
  1.48873E+02 -8.98307E+02 -7.35678E+03  8.31339E+03 -2.04465E+04  4.91765E+03 -2.08635E+04 -1.06728E+04
 -1.14795E+04 -2.46104E+04  6.41976E+03 -2.86768E+04  1.95405E+04 -2.05835E+04  2.37405E+04 -2.55420E+03
  1.57443E+04  1.72155E+04 -1.38364E+03  2.44372E+04 -1.73176E+04  1.48372E+04 -2.45851E+04 -4.15584E+03
 -1.83715E+04 -2.17092E+04 -1.98056E+03 -2.87952E+04  1.32858E+04 -2.45732E+04  2.43034E+04 -1.27412E+04
  2.37228E+04  7.38183E+01  1.62321E+04  5.38375E+03  9.77236E+03  1.33836E+03  1.27466E+04 -2.17863E+03
  2.32522E+04  3.28152E+03  2.73195E+04  1.91807E+04  1.84749E+04  3.92083E+04 -2.07413E+03  4.61352E+04
 -2.63486E+04  3.90953E+04 -4.37873E+04  2.05855E+04 -4.69961E+04 -3.91357E+03 -3.80227E+04 -2.72131E+04
 -1.53778E+04 -3.96335E+04  1.43305E+04 -3.40255E+04  2.82975E+04 -1.53096E+04  2.48901E+04  8.20683E+03
  7.94495E+03  1.98011E+04 -1.23955E+04  1.58129E+04 -2.17975E+04  2.40033E+03 -1.53939E+04 -1.34625E+04
  3.38290E+02 -1.97906E+04  1.07397E+04 -1.44855E+04  1.35331E+04 -1.29839E+03  3.96523E+03  9.82636E+03
 -8.28914E+03  4.73318E+03 -9.61361E+03 -6.69306E+03 -1.30747E+03 -1.93880E+04  1.16485E+04 -2.11346E+04
  2.45208E+04 -1.28598E+04  2.81081E+04  3.62344E+03  2.43849E+04  1.98851E+04  1.14547E+04  3.13470E+04
 -5.73380E+03  3.35442E+04 -2.12751E+04  2.03682E+04 -2.42259E+04  3.79388E+03 -1.62543E+04 -6.25328E+03
 -6.23853E+03 -7.62368E+03 -5.05944E+02  5.25447E+01 -3.28383E+03  3.58940E+03 -7.37707E+03  5.87116E+03
 -1.50063E+04 -5.94509E+02 -1.56731E+04 -1.29177E+04 -5.75472E+03 -2.06610E+04  6.24649E+03 -1.62294E+04
  1.39677E+04 -6.81301E+03  8.79413E+03  3.89634E+03 -8.12697E+02  7.59726E+03 -8.73513E+03 -4.11133E+02
 -8.06571E+03 -1.11483E+04 -1.86858E+03 -1.73486E+04  9.71861E+03 -1.72875E+04  2.12378E+04 -9.20887E+03
  2.49422E+04  2.54408E+03  1.77942E+04  1.56091E+04  3.03720E+03  2.08269E+04 -9.95213E+03  1.55150E+04
 -1.36170E+04  4.33328E+03 -6.77936E+03 -4.38681E+03  1.75617E+03 -5.11974E+03  8.70969E+03 -1.34606E+03
  7.67633E+03  7.43972E+03  1.55184E+03  1.42840E+04 -9.58577E+03  1.29827E+04 -1.64486E+04  2.47222E+03
 -1.17455E+04 -9.34393E+03  4.95580E+02 -1.42119E+04  9.12555E+03 -8.01616E+03  1.05947E+04  2.95573E+03
  2.07015E+03  1.16794E+04 -8.71606E+03  1.16582E+04 -1.44219E+04  5.56151E+03 -1.48304E+04 -5.29209E+03
 -8.46550E+03 -1.65446E+04  4.28357E+03 -1.93779E+04  1.72097E+04 -1.21940E+04  1.87854E+04  3.37450E+03
  1.07933E+04  1.41830E+04 -2.25520E+03  1.60033E+04 -1.20629E+04  9.23523E+03 -1.24845E+04 -6.86658E+02
 -1.04899E+04 -1.10581E+04 -1.48784E+03 -1.24257E+04  6.21310E+03 -1.04527E+04  7.86955E+03 -3.67755E+03
  5.83370E+03  2.58842E+03 -5.53136E+02  2.57688E+03 -1.14428E+03 -4.12404E+03  2.91250E+03 -7.47310E+03
  1.21728E+04 -4.94023E+03  1.68318E+04  1.37381E+03  1.78454E+04  1.15553E+04  1.05857E+04  2.22500E+04
 -5.35024E+03  2.55940E+04 -2.03068E+04  1.86842E+04 -2.73944E+04  3.45485E+03 -2.20431E+04 -9.06464E+03
 -1.08001E+04 -1.85977E+04 -9.68626E+02 -1.61446E+04  5.74287E+03 -9.09151E+03  6.43859E+03 -4.95512E+03
  4.01986E+03 -3.58576E+03  4.91573E+03 -3.70431E+03  6.40164E+03 -4.24432E+03  8.10319E+03 -1.77484E+03
  1.22340E+04  2.53253E+03  6.28067E+03  9.79054E+03 -1.80732E+03  1.26563E+04 -1.22799E+04  9.06602E+03
 -1.67538E+04 -1.12872E+03 -1.07168E+04 -1.11264E+04 -2.24327E+03 -1.68570E+04  9.56509E+03 -1.68107E+04
  1.72082E+04 -1.00419E+04  2.09827E+04  3.44865E+03  1.43807E+04  1.49595E+04  2.32582E+03  2.00565E+04
 -8.11156E+03  1.55128E+04 -1.16093E+04  5.21657E+03 -7.20139E+03 -2.49970E+03 -3.29923E+03 -2.09481E+03
 -1.39577E+03  3.24106E+02 -1.63546E+03  3.30094E+03 -6.75074E+03  2.89439E+03 -1.12254E+04 -1.72719E+03
 -8.17893E+03 -1.11961E+04 -1.25277E+01 -1.58113E+04  9.44262E+03 -1.53071E+04  1.65302E+04 -4.73912E+03
  1.59800E+04  7.72694E+03  7.13181E+03  1.45002E+04 -3.16820E+03  1.72188E+04 -1.21111E+04  9.42655E+03
 -1.46508E+04  1.39285E+03 -1.20868E+04 -9.76046E+03 -1.11884E+03 -1.31369E+04  6.70046E+03 -9.40831E+03
  1.06465E+04 -3.27579E+03  6.97428E+03  2.69097E+03  2.69531E+03  3.88381E+03  2.70500E+03  1.86548E+03
  2.64948E+03  1.38318E+03  3.91952E+03  1.19267E+03  4.64398E+03  4.90272E+03  4.59726E+03  9.31562E+03
 -3.44499E+03  1.22248E+04 -1.14949E+04  1.29256E+04 -1.69375E+04  3.47674E+03 -1.67721E+04 -7.07281E+03
 -8.26817E+03 -1.62676E+04  2.99729E+03 -1.77655E+04  1.02285E+04 -1.13306E+04  1.37159E+04 -2.99086E+03
  1.02073E+04  5.81917E+03  2.04339E+03  9.45139E+03 -4.53024E+03  5.64841E+03 -7.22743E+03 -9.61062E+02
 -3.33566E+03 -6.74899E+03  3.71027E+03 -7.09381E+03  7.37968E+03 -2.66601E+03  6.98943E+03  2.50290E+03
  4.37660E+03  4.01881E+03  1.02423E+03  3.20774E+03 -5.70029E+02  2.20725E+03  1.77980E+03 -7.30546E+02
  2.88684E+03 -1.55026E+03  6.20012E+03  1.82721E+03  4.07454E+03  8.66058E+03 -1.91756E+03  1.09366E+04
 -8.45487E+03  7.65323E+03 -9.93002E+03  1.98241E+03 -9.13207E+03 -3.71932E+03 -4.03388E+03 -7.58818E+03
  1.17403E+03 -6.89786E+03  4.98523E+03 -2.83768E+03  2.91458E+03  3.41440E+03 -8.53684E+02  5.18300E+03
 -6.29321E+03  2.73214E+03 -7.94689E+03 -4.25832E+03 -4.31923E+03 -8.97470E+03  1.22480E+03 -9.75482E+03
  5.39474E+03 -5.90735E+03  7.19155E+03 -7.20717E+02  4.76667E+03  2.33271E+03  4.59899E+02  4.31758E+03
 -2.88507E+03  1.10146E+03 -4.61294E+03 -3.65303E+03  1.93911E+03 -7.71713E+03  8.48960E+03 -5.37997E+03
  1.08681E+04  1.08910E+03  1.03255E+04  6.84985E+03  3.48083E+03  1.05181E+04 -3.95879E+03  1.05363E+04
 -9.32509E+03  4.19107E+03 -1.00093E+04 -1.31168E+03 -4.80154E+03 -6.45331E+03  1.14423E+03 -6.82118E+03
  7.10182E+03 -3.89293E+03  5.92832E+03  3.17137E+03  2.19183E+03  6.15052E+03 -5.23350E+02  5.13915E+03
 -2.90846E+03  2.81561E+03 -2.86041E+03  7.79473E+02 -1.59463E+03  1.43613E+03 -1.65512E+03  2.16368E+03
 -3.12671E+03  3.93946E+03 -7.60937E+03  3.93949E+03 -1.14850E+04 -9.31763E+00 -1.22869E+04 -6.44870E+03
 -7.01379E+03 -1.49482E+04  2.57159E+03 -1.70898E+04  1.11160E+04 -1.31723E+04  1.55340E+04 -4.76053E+03
  1.50965E+04  2.96657E+03  8.86349E+03  9.92476E+03  1.35944E+03  1.27835E+04 -3.87519E+03  9.45926E+03
 -6.83499E+03  2.94101E+03 -3.86205E+03 -1.33861E+03 -1.58573E+03 -9.40307E+02 -1.07713E+03  4.97301E+02
 -2.34961E+03  1.39235E+02 -2.69461E+03 -1.01963E+01 -5.05345E+02 -3.24807E+03  4.82086E+02 -4.44758E+03
  5.49465E+03 -3.87138E+03  6.54946E+03  5.80456E+02  7.85030E+03  5.59348E+03  2.74776E+03  1.20234E+04
 -5.07758E+03  1.29023E+04 -1.11465E+04  8.05826E+03 -1.26359E+04 -6.56925E+02 -1.02248E+04 -8.27133E+03
 -4.63159E+03 -1.17725E+04  3.10601E+03 -1.17800E+04  7.16599E+03 -6.09747E+03  7.10574E+03 -5.60762E+02
  3.34181E+03  3.34317E+03 -5.78513E+02  3.60641E+03 -2.01527E+03 -1.48635E+02 -6.89608E+02 -2.59257E+03
  3.92749E+03 -9.66030E+02  4.98460E+03  1.17184E+03  3.34626E+03  4.44575E+03 -8.39786E+02  5.57397E+03
 -4.75385E+03  4.84294E+03 -7.28427E+03  9.04965E+02 -7.48410E+03 -4.75668E+03 -1.11983E+03 -8.62171E+03
  6.01998E+03 -8.01751E+03  9.06944E+03 -2.30368E+03  8.86843E+03  3.36614E+03  5.05029E+03  6.97839E+03
  1.73803E+02  7.60525E+03 -2.66369E+03  5.88774E+03 -5.13822E+03  3.86026E+03 -4.66491E+03  1.21131E+03
 -2.34326E+03  4.23137E+02 -2.14257E+03  6.89752E+02 -3.54447E+03  1.84099E+03 -5.88218E+03 -1.93606E+03
 -5.19382E+03 -3.56003E+03 -1.45541E+03 -7.65074E+03  3.35398E+03 -8.02436E+03  7.59970E+03 -4.52414E+03
  7.67394E+03  4.10439E+02  3.92539E+03  6.17613E+03 -3.71679E+02  8.14198E+03 -5.75457E+03  5.02937E+03
