 $NMID ID='MM_0lb_SNR400_10hz_g50_91.RAW', FMTDAT='(8E13.5)'
 TRAMP=1., VOLUME=1. $END
  3.09698E+05  3.56203E+02  3.37543E+05  2.50397E+05  8.42581E+04  3.38605E+05 -1.32557E+05  2.51612E+05
 -1.90723E+05  8.40930E+04 -1.12538E+05 -3.24286E+04  3.19449E+02 -5.04195E+04  5.41898E+04  1.61944E+02
  3.60613E+04  5.22625E+04 -1.69191E+04  7.58456E+04 -6.16287E+04  6.41021E+04 -8.42476E+04  3.21841E+04
 -8.23761E+04 -1.13711E+04 -5.77063E+04 -5.14253E+04 -1.54297E+04 -7.10861E+04  2.74949E+04 -4.57480E+04
  4.07357E+04  3.80920E+03  1.64622E+04  4.88412E+04 -3.42482E+04  4.75748E+04 -6.72309E+04 -2.69062E+02
 -5.45579E+04 -5.73243E+04 -6.88128E+03 -7.82919E+04  3.48520E+04 -5.66568E+04  4.96330E+04 -1.74052E+04
  4.45011E+04  1.07695E+04  3.19493E+04  2.65185E+04  1.61564E+04  3.04057E+04 -6.33470E+03  2.66985E+04
 -2.20342E+04  1.21891E+04 -1.87041E+04 -5.98530E+03  6.56355E+03 -7.35481E+03  2.30784E+04  1.34489E+04
  6.44843E+03  3.66923E+04 -3.36861E+04  3.66318E+04 -6.54971E+04  1.78447E+03 -5.96696E+04 -4.42348E+04
 -1.26745E+04 -6.51551E+04  4.11583E+04 -4.66540E+04  6.06086E+04 -2.03281E+03  3.58202E+04  3.32462E+04
 -5.81639E+03  3.90530E+04 -3.07249E+04  1.80823E+04 -3.28593E+04 -3.36964E+03 -1.86443E+04 -1.15871E+04
 -9.18263E+03 -1.49559E+04 -1.20654E+03 -1.95963E+04  7.97820E+03 -2.31810E+04  1.52404E+04 -1.31059E+04
  1.10123E+04  6.01567E+03 -8.43079E+03  1.28485E+04 -2.34599E+04 -6.94907E+03 -8.74499E+03 -3.64390E+04
  2.43817E+04 -4.56688E+04  5.09645E+04 -2.09927E+04  4.81445E+04  2.09089E+04  1.67554E+04  4.69305E+04
 -1.65811E+04  3.55198E+04 -2.70159E+04  2.31064E+03 -1.11463E+04 -2.87418E+04  2.07765E+04 -3.59567E+04
  4.35069E+04 -1.02520E+04  3.95472E+04  2.51357E+04  2.05565E+04  5.02530E+04 -9.33322E+03  5.53118E+04
 -3.37868E+04  3.77219E+04 -4.62627E+04  1.10040E+04 -4.56099E+04 -1.76005E+04 -2.53797E+04 -4.09247E+04
  7.65157E+03 -4.11346E+04  3.40011E+04 -1.75889E+04  3.05311E+04  1.05679E+04  4.68052E+03  2.06017E+04
 -1.37211E+04  8.91257E+03 -1.11583E+04 -7.81421E+03  5.89595E+03 -1.09019E+04  1.78383E+04  5.37084E+03
  1.45540E+04  2.32268E+04 -5.98020E+03  2.71940E+04 -2.24900E+04  1.39023E+04 -3.03907E+04 -3.36504E+03
 -2.46233E+04 -1.84424E+04 -1.05359E+04 -2.46638E+04  3.60350E+03 -2.43047E+04  1.91576E+04 -2.30733E+04
  3.04866E+04 -1.35332E+04  3.64648E+04  4.44227E+03  2.68061E+04  2.33775E+04  5.05455E+03  3.98197E+04
 -1.92245E+04  3.32280E+04 -2.93558E+04  1.10027E+04 -2.25141E+04 -9.77819E+03 -4.94767E+03 -1.35486E+04
  1.21550E+03 -7.70742E+02 -6.45109E+03  7.83938E+03 -1.91442E+04  5.27236E+03 -1.92434E+04 -8.63385E+03
 -1.10809E+04 -2.18700E+04  6.27992E+03 -2.71855E+04  1.81348E+04 -1.92971E+04  2.16827E+04 -1.86696E+03
  1.41647E+04  1.50180E+04 -1.01869E+03  2.23168E+04 -1.58955E+04  1.25813E+04 -2.36131E+04 -4.79972E+03
 -1.63030E+04 -2.00713E+04 -1.75223E+03 -2.71605E+04  1.26847E+04 -2.23037E+04  2.24523E+04 -1.20492E+04
  2.04954E+04 -1.13119E+03  1.54075E+04  4.61821E+03  7.82938E+03  2.57156E+03  1.11041E+04 -1.80097E+03
  2.09786E+04  2.93669E+03  2.44996E+04  1.77398E+04  1.68023E+04  3.64312E+04 -2.85531E+03  4.22424E+04
 -2.46652E+04  3.43536E+04 -3.93671E+04  1.85690E+04 -4.25522E+04 -3.00388E+03 -3.43581E+04 -2.52340E+04
 -1.36331E+04 -3.53092E+04  1.17839E+04 -3.04007E+04  2.64993E+04 -1.40579E+04  2.29881E+04  6.45678E+03
  7.81828E+03  1.78879E+04 -1.05323E+04  1.51512E+04 -1.91890E+04  2.61504E+03 -1.43110E+04 -1.27779E+04
 -1.22149E+03 -1.83730E+04  9.79138E+03 -1.40264E+04  1.25822E+04 -1.65678E+03  3.16625E+03  8.31465E+03
 -8.95024E+03  3.90110E+03 -8.46107E+03 -6.73865E+03 -1.49957E+03 -1.77314E+04  1.10552E+04 -1.86290E+04
  2.14507E+04 -1.09652E+04  2.38344E+04  3.15286E+03  2.12718E+04  1.77979E+04  1.04202E+04  2.69146E+04
 -5.99481E+03  2.94441E+04 -1.90977E+04  1.84933E+04 -2.17530E+04  3.51490E+03 -1.44636E+04 -4.72492E+03
 -5.44056E+03 -6.94441E+03 -1.29595E+03  5.67623E+02 -2.92770E+03  3.16324E+03 -7.05197E+03  5.16218E+03
 -1.33989E+04 -4.24547E+02 -1.34639E+04 -1.17231E+04 -5.14045E+03 -1.91377E+04  5.82237E+03 -1.45279E+04
  1.23262E+04 -6.24886E+03  7.75495E+03  3.99120E+03 -6.60487E+02  6.80644E+03 -6.93527E+03 -6.62396E+02
 -6.73129E+03 -9.52799E+03 -8.50032E+02 -1.47595E+04  8.28050E+03 -1.59461E+04  1.90341E+04 -7.47069E+03
  2.15801E+04  3.12865E+03  1.52438E+04  1.33683E+04  2.81233E+03  1.78235E+04 -9.47795E+03  1.41887E+04
 -1.11267E+04  4.05780E+03 -5.38323E+03 -2.80611E+03  2.54230E+03 -3.78394E+03  7.95786E+03 -1.27463E+03
  7.63602E+03  6.30223E+03  1.66386E+03  1.16734E+04 -7.90071E+03  1.09714E+04 -1.48966E+04  2.29406E+03
 -9.58668E+03 -7.61951E+03  4.30922E+02 -1.24402E+04  7.93929E+03 -5.97674E+03  9.14293E+03  2.61236E+03
  1.92474E+03  9.45739E+03 -7.78692E+03  1.08741E+04 -1.24623E+04  4.71165E+03 -1.32730E+04 -3.91625E+03
 -7.24714E+03 -1.45392E+04  3.15661E+03 -1.67403E+04  1.46280E+04 -1.08356E+04  1.54722E+04  3.02936E+03
  9.94206E+03  1.19918E+04 -9.98898E+02  1.41770E+04 -1.04799E+04  8.19486E+03 -1.19054E+04 -1.40664E+03
 -9.04957E+03 -9.69984E+03 -2.11804E+03 -1.08904E+04  5.34635E+03 -8.74032E+03  7.35750E+03 -3.90705E+03
  4.77470E+03  1.77453E+03 -1.75690E+03  1.47827E+03 -5.74804E+02 -2.75062E+03  2.51043E+03 -6.88821E+03
  1.10169E+04 -4.57748E+03  1.46592E+04  2.00479E+03  1.43414E+04  1.05101E+04  9.92331E+03  1.86295E+04
 -4.82683E+03  2.13329E+04 -1.86326E+04  1.56431E+04 -2.37364E+04  2.71366E+03 -1.99292E+04 -7.60087E+03
 -9.82899E+03 -1.54953E+04 -8.44581E+02 -1.37471E+04  4.83431E+03 -7.62736E+03  4.41483E+03 -4.39728E+03
  3.38538E+03 -2.71650E+03  3.93207E+03 -3.82642E+03  6.26779E+03 -3.71287E+03  7.65417E+03 -4.90688E+02
  9.46781E+03  1.40539E+03  4.97662E+03  8.43965E+03 -2.20700E+03  9.97733E+03 -1.01033E+04  7.39878E+03
 -1.30921E+04 -1.45627E+03 -8.90109E+03 -8.96306E+03 -1.78538E+03 -1.41321E+04  7.92221E+03 -1.41174E+04
  1.45726E+04 -8.10733E+03  1.78939E+04  2.37115E+03  1.24360E+04  1.29638E+04  1.86465E+03  1.65774E+04
 -5.79884E+03  1.34604E+04 -9.63574E+03  4.19906E+03 -5.99605E+03 -1.53635E+03 -2.97522E+03 -2.22147E+03
 -6.62967E+02 -1.40367E+02 -1.90493E+03  3.14876E+03 -5.18608E+03  2.33527E+03 -9.29015E+03 -1.17640E+03
 -6.43143E+03 -9.67252E+03 -5.86650E+02 -1.31325E+04  8.53255E+03 -1.22387E+04  1.26876E+04 -4.13423E+03
  1.29272E+04  6.10170E+03  6.53066E+03  1.17685E+04 -1.60056E+03  1.35321E+04 -9.62719E+03  8.11370E+03
 -1.18911E+04  6.56586E+02 -9.70740E+03 -7.95343E+03 -1.19442E+03 -1.16999E+04  5.53885E+03 -7.82112E+03
  9.05050E+03 -2.58623E+03  5.85693E+03  2.12499E+03  1.50348E+03  3.50605E+03  1.91452E+03  1.76270E+03
  2.69184E+03  1.04130E+03  2.59378E+03  1.93360E+03  4.25344E+03  4.63537E+03  3.47397E+03  6.73598E+03
 -2.95756E+03  1.03834E+04 -9.45374E+03  1.06797E+04 -1.35037E+04  2.81081E+03 -1.36119E+04 -5.16839E+03
 -6.43673E+03 -1.31628E+04  1.57927E+03 -1.47325E+04  7.94150E+03 -9.22736E+03  1.11789E+04 -2.00360E+03
  8.93573E+03  5.53500E+03  1.54551E+03  7.72544E+03 -3.85221E+03  4.78163E+03 -5.54516E+03 -1.30793E+03
 -2.25511E+03 -5.89575E+03  3.39187E+03 -5.59858E+03  5.95726E+03 -2.74080E+03  5.38384E+03  1.78514E+03
  3.23536E+03  2.73185E+03  1.13645E+03  2.14212E+03 -5.10550E+02  2.26565E+03  1.78683E+03 -1.00961E+03
  1.66383E+03 -9.51678E+02  5.59728E+03  2.47740E+03  3.11559E+03  7.07281E+03 -9.62286E+02  8.72192E+03
 -6.23668E+03  5.95971E+03 -8.39123E+03  1.62583E+03 -7.47705E+03 -2.55209E+03 -2.32840E+03 -4.17739E+03
  1.08609E+03 -4.79339E+03  3.32951E+03 -3.14741E+03  3.11909E+03  3.08215E+03 -1.23068E+03  4.68275E+03
 -5.51851E+03  2.29299E+03 -5.99168E+03 -3.80290E+03 -3.88365E+03 -7.97413E+03  1.30375E+03 -7.76407E+03
  4.15919E+03 -4.10423E+03  5.37591E+03 -8.89777E+01  4.65443E+03  2.29805E+03  6.68645E+02  3.63210E+03
 -2.02928E+03  1.14819E+03 -3.62810E+03 -2.84146E+03  1.58284E+03 -5.53538E+03  7.19623E+03 -4.84369E+03
  8.64084E+03  9.02489E+02  8.52061E+03  5.77435E+03  2.55558E+03  7.95799E+03 -3.15175E+03  8.15848E+03
 -6.76729E+03  3.96742E+03 -7.37581E+03 -8.92338E+02 -4.51115E+03 -5.92357E+03  1.41588E+03 -5.27035E+03
  5.51247E+03 -2.63794E+03  4.70815E+03  2.01238E+03  1.72608E+03  5.59606E+03 -8.39373E+02  3.52124E+03
 -1.90272E+03  2.24380E+03 -2.00533E+03  8.01217E+02 -2.74163E+01  8.44988E+02 -9.90950E+02  1.69326E+03
 -2.43985E+03  3.84297E+03 -5.91083E+03  2.86076E+03 -8.58065E+03  2.80760E+02 -8.78008E+03 -6.05766E+03
 -5.66464E+03 -1.09243E+04  2.59150E+03 -1.34934E+04  8.60928E+03 -9.18006E+03  1.13664E+04 -4.07976E+03
  1.22977E+04  2.85584E+03  6.59455E+03  8.02024E+03  7.16533E+02  8.10473E+03 -3.27518E+03  6.69716E+03
 -4.95125E+03  3.10849E+03 -3.15193E+03 -1.43723E+03 -1.76053E+03 -1.17182E+03 -1.82913E+02 -1.31203E+02
 -2.09507E+03  5.09914E+02 -2.38521E+03 -2.07358E+02 -2.49153E+02 -2.32946E+03  8.07855E+02 -3.21473E+03
  2.95062E+03 -3.20927E+03  5.25780E+03  4.00502E+02  6.16560E+03  4.12702E+03  1.62513E+03  9.01197E+03
 -4.17511E+03  9.49872E+03 -8.56750E+03  5.87548E+03 -1.09838E+04 -8.77497E+02 -8.27250E+03 -7.57981E+03
 -3.07499E+03 -8.78748E+03  1.28828E+03 -7.85030E+03  5.79442E+03 -3.93557E+03  5.73643E+03  3.41265E+02
  3.28991E+03  3.14569E+03 -1.53312E+03  2.80057E+03 -1.24450E+03 -7.73971E+01  7.69033E+02 -2.43295E+03
  2.53266E+03 -1.07520E+03  3.16928E+03  1.38566E+03  2.01826E+03  2.84437E+03  2.17401E+02  4.12647E+03
 -4.01607E+03  3.63615E+03 -6.06459E+03  5.74223E+02 -5.56997E+03 -3.73599E+03 -1.23454E+03 -7.49475E+03
  3.33794E+03 -6.00803E+03  6.43187E+03 -2.07328E+03  6.78626E+03  7.26163E+02  3.55719E+03  5.38649E+03
  8.43116E+02  5.92513E+03 -2.04400E+03  4.85876E+03 -3.97573E+03  2.38990E+03 -3.56281E+03  8.00984E+02
 -1.07721E+03  1.57365E+02 -1.82641E+03  1.00043E+03 -2.69659E+03  4.89662E+02 -4.06425E+03 -9.55729E+02
 -4.23426E+03 -3.30484E+03 -1.02496E+03 -6.70035E+03  2.64767E+03 -6.68169E+03  5.47237E+03 -2.57255E+03
  5.67735E+03  3.41092E+02  3.12510E+03  3.40573E+03 -5.85399E+02  5.71605E+03 -4.96580E+03  3.67399E+03
