 $NMID ID='MM_0lb_SNR400_15hz_g60_30.RAW', FMTDAT='(8E13.5)'
 TRAMP=1., VOLUME=1. $END
  3.09792E+05 -2.99694E+01  3.37245E+05  2.50836E+05  8.49561E+04  3.37850E+05 -1.32805E+05  2.50919E+05
 -1.89738E+05  8.34244E+04 -1.12093E+05 -3.29040E+04  6.28322E+02 -5.10987E+04  5.40841E+04 -1.99397E+02
  3.50031E+04  5.25385E+04 -1.67623E+04  7.57508E+04 -6.10798E+04  6.42110E+04 -8.43926E+04  3.17411E+04
 -8.09007E+04 -1.15223E+04 -5.79272E+04 -5.18093E+04 -1.55215E+04 -6.90798E+04  2.79705E+04 -4.58899E+04
  4.04473E+04  3.61597E+03  1.58609E+04  4.80063E+04 -3.41238E+04  4.71281E+04 -6.68344E+04 -1.29464E+02
 -5.35495E+04 -5.69934E+04 -7.33974E+03 -7.71456E+04  3.34581E+04 -5.58368E+04  4.80118E+04 -1.73447E+04
  4.39040E+04  1.17551E+04  3.25522E+04  2.54788E+04  1.59157E+04  2.97246E+04 -5.69431E+03  2.77405E+04
 -2.20221E+04  1.22453E+04 -1.85130E+04 -4.57287E+03  5.95198E+03 -8.09804E+03  2.30095E+04  1.25823E+04
  7.50234E+03  3.60336E+04 -3.26598E+04  3.61332E+04 -6.38063E+04  2.17972E+03 -5.73493E+04 -4.27177E+04
 -1.23386E+04 -6.39004E+04  4.05521E+04 -4.56444E+04  5.87366E+04 -2.26421E+03  3.42511E+04  3.29631E+04
 -5.42771E+03  3.65572E+04 -3.02568E+04  1.66476E+04 -3.11039E+04 -4.19406E+03 -1.74558E+04 -1.05369E+04
 -8.13076E+03 -1.38289E+04 -5.94914E+02 -1.93938E+04  8.20749E+03 -2.28636E+04  1.49559E+04 -1.28104E+04
  1.12890E+04  4.70914E+03 -9.35024E+03  1.36227E+04 -2.15769E+04 -4.96594E+03 -8.74071E+03 -3.47980E+04
  2.31805E+04 -4.48549E+04  4.87257E+04 -1.97032E+04  4.62081E+04  1.99468E+04  1.58844E+04  4.49149E+04
 -1.62430E+04  3.38917E+04 -2.56029E+04  2.42127E+03 -1.02222E+04 -2.74677E+04  2.10946E+04 -3.50100E+04
  4.18128E+04 -1.00608E+04  3.69046E+04  2.42336E+04  1.89947E+04  4.71326E+04 -7.89261E+03  5.07952E+04
 -3.26985E+04  3.48986E+04 -4.34151E+04  9.86452E+03 -4.33403E+04 -1.73021E+04 -2.35366E+04 -3.84860E+04
  7.72705E+03 -3.85865E+04  3.18783E+04 -1.48370E+04  2.95250E+04  1.06554E+04  4.58541E+03  1.94953E+04
 -1.39734E+04  9.38081E+03 -1.04468E+04 -7.70329E+03  5.64161E+03 -1.09836E+04  1.86494E+04  6.09969E+03
  1.36484E+04  2.23880E+04 -5.87402E+03  2.52540E+04 -2.28105E+04  1.15335E+04 -2.80339E+04 -4.34760E+03
 -2.11330E+04 -1.74051E+04 -8.87382E+03 -2.12981E+04  4.68195E+03 -2.00005E+04  1.65397E+04 -1.84234E+04
  2.74011E+04 -1.28024E+04  3.32588E+04  3.19951E+03  2.38984E+04  2.06225E+04  4.26704E+03  3.70303E+04
 -1.81081E+04  3.11987E+04 -2.86750E+04  1.03178E+04 -2.13509E+04 -1.02325E+04 -4.71451E+03 -1.32766E+04
  2.51657E+03 -2.76108E+03 -4.48559E+03  6.98613E+03 -1.66161E+04  4.54766E+03 -1.72100E+04 -6.55510E+03
 -1.03082E+04 -1.99917E+04  5.39173E+03 -2.36121E+04  1.52997E+04 -1.74359E+04  1.83920E+04 -1.36173E+03
  1.19417E+04  1.36834E+04 -7.37537E+02  1.88534E+04 -1.42221E+04  1.09055E+04 -1.91057E+04 -4.50684E+03
 -1.39378E+04 -1.71694E+04 -1.83683E+03 -2.34946E+04  1.09193E+04 -1.92748E+04  1.98175E+04 -9.50542E+03
  1.81901E+04  3.26146E+02  1.35381E+04  4.42572E+03  7.01630E+03  7.12095E+02  1.01384E+04 -1.85636E+03
  1.78374E+04  3.49617E+03  1.96576E+04  1.60194E+04  1.29829E+04  3.08176E+04 -2.58341E+03  3.54383E+04
 -2.05492E+04  2.80849E+04 -3.31152E+04  1.41379E+04 -3.38281E+04 -2.27486E+03 -2.78829E+04 -1.92656E+04
 -1.23874E+04 -2.79050E+04  9.80343E+03 -2.46691E+04  2.21710E+04 -1.29526E+04  2.02638E+04  5.56566E+03
  7.50162E+03  1.39599E+04 -8.67816E+03  1.29862E+04 -1.67279E+04  2.54153E+03 -1.27465E+04 -1.03802E+04
 -3.81277E+01 -1.52697E+04  7.49071E+03 -1.16506E+04  1.03293E+04 -1.27974E+03  2.48048E+03  7.19482E+03
 -6.90645E+03  2.63007E+03 -6.25079E+03 -5.37733E+03 -5.90139E+02 -1.39074E+04  9.34669E+03 -1.41005E+04
  1.69978E+04 -8.17024E+03  1.89663E+04  3.74031E+03  1.61999E+04  1.29827E+04  7.86449E+03  2.07204E+04
 -3.59423E+03  2.24790E+04 -1.50587E+04  1.40618E+04 -1.61786E+04  3.92022E+03 -1.15312E+04 -3.35626E+03
 -5.69957E+03 -5.35456E+03 -7.91202E+02  1.43046E+03 -2.76206E+03  1.93186E+03 -4.93127E+03  4.40890E+03
 -1.13523E+04 -1.02496E+03 -1.12381E+04 -9.12928E+03 -4.36536E+03 -1.44691E+04  4.65557E+03 -1.19047E+04
  9.51150E+03 -4.71302E+03  5.70287E+03  3.20746E+03 -8.80917E-01  4.11291E+03 -5.66095E+03 -3.70979E+02
 -4.87481E+03 -6.83938E+03 -7.93852E+02 -1.02144E+04  6.37599E+03 -1.19614E+04  1.41082E+04 -5.82366E+03
  1.65747E+04  1.06770E+03  1.15215E+04  9.44922E+03  2.73877E+03  1.25760E+04 -6.85037E+03  1.17806E+04
 -9.33527E+03  3.30361E+03 -5.37381E+03 -1.83129E+03  1.53772E+03 -2.78556E+03  6.21537E+03 -1.04606E+03
  5.36025E+03  4.14702E+03  1.27551E+03  8.73362E+03 -5.59539E+03  8.48502E+03 -1.08066E+04  1.70833E+03
 -7.18660E+03 -5.75187E+03  4.30464E+02 -1.00572E+04  5.44326E+03 -3.98708E+03  5.64045E+03  1.65416E+03
  8.67728E+02  6.21431E+03 -5.33786E+03  7.78145E+03 -7.67016E+03  2.83704E+03 -8.01749E+03 -3.27191E+03
 -5.05496E+03 -9.28433E+03  2.76962E+03 -1.15819E+04  9.49184E+03 -6.72781E+03  1.03986E+04  1.12961E+03
  6.20963E+03  8.44088E+03 -6.93384E+02  1.04886E+04 -7.39721E+03  5.15325E+03 -8.64561E+03 -4.16582E+02
 -7.67570E+03 -7.61797E+03 -1.14107E+03 -7.42848E+03  4.37556E+03 -7.01056E+03  4.79959E+03 -3.25634E+03
  3.51813E+03  1.12752E+03  7.70780E+01  1.66301E+03 -5.46198E+02 -1.31604E+03  1.01909E+03 -3.74644E+03
  7.30980E+03 -2.16223E+03  9.22907E+03  6.30998E+02  9.21933E+03  6.00833E+03  7.14951E+03  1.14802E+04
 -2.60631E+03  1.37666E+04 -1.25438E+04  1.04172E+04 -1.56249E+04  2.50931E+03 -1.19409E+04 -4.47714E+03
 -6.58689E+03 -9.61346E+03 -6.74320E+02 -7.49089E+03  3.14565E+03 -4.35893E+03  3.13402E+03 -2.86719E+03
  2.40482E+03 -2.26932E+03  2.86711E+03 -1.84553E+03  4.18411E+03 -1.57876E+03  4.90764E+03 -2.70437E+02
  6.16358E+03  1.88457E+03  2.31958E+03  5.46407E+03 -1.86456E+03  5.33701E+03 -6.82825E+03  4.08654E+03
 -8.07392E+03 -1.07065E+03 -4.89396E+03 -5.76683E+03  1.21141E+02 -9.07013E+03  4.67372E+03 -8.61297E+03
  8.96232E+03 -5.39702E+03  1.06185E+04  1.26162E+03  7.72983E+03  7.40398E+03  1.08985E+03  9.56598E+03
 -4.16116E+03  7.67881E+03 -4.91491E+03  3.06346E+03 -3.61571E+03 -7.29579E+02 -1.58330E+03 -1.43253E+03
 -8.80546E+02  1.91092E+02 -2.08889E+03  2.37504E+03 -3.76313E+03  1.53245E+03 -6.29590E+03 -1.26834E+03
 -3.02265E+03 -5.85479E+03  9.98295E+02 -7.99624E+03  4.30193E+03 -6.88017E+03  7.14691E+03 -1.96133E+03
  7.46590E+03  3.07025E+03  3.84256E+03  6.31132E+03 -1.10819E+03  7.87849E+03 -5.27511E+03  4.59919E+03
 -6.75196E+03  5.52166E+02 -5.44659E+03 -4.93471E+03 -2.94204E+02 -6.08523E+03  3.47490E+03 -4.25447E+03
  5.20470E+03 -1.57799E+03  3.54584E+03  1.00719E+03  1.42867E+03  2.38649E+03  6.98945E+02  1.50852E+03
  1.61480E+03  3.83935E+02  2.28349E+03  9.25792E+02  2.58276E+03  3.03697E+03  2.44284E+03  3.10163E+03
 -1.44690E+03  5.31520E+03 -4.89188E+03  6.06115E+03 -6.42633E+03  2.03843E+03 -7.95441E+03 -2.23671E+03
 -3.38921E+03 -6.16701E+03  1.11480E+03 -7.71699E+03  4.22343E+03 -5.48040E+03  5.66845E+03 -1.36267E+03
  4.90680E+03  2.75089E+03  1.10177E+03  4.09620E+03 -1.42028E+03  2.33018E+03 -2.46837E+03 -1.27426E+02
 -9.83007E+02 -2.49596E+03  2.00769E+03 -2.69072E+03  2.62499E+03 -1.92589E+03  2.50711E+03  7.56097E+02
  2.10726E+03  1.46663E+03  1.18978E+03  2.15802E+02 -3.23683E+02  5.47960E+02  1.40914E+03 -6.37886E+02
  8.75624E+02  1.01945E+02  3.33223E+03  1.56611E+03  9.31233E+02  4.22944E+03 -5.92854E+02  4.83177E+03
 -2.48920E+03  2.51243E+03 -4.01892E+03  1.09428E+03 -3.10728E+03 -1.50121E+03 -1.37819E+03 -2.24999E+03
  1.07952E+03 -2.61293E+03  1.67454E+03 -1.27844E+03  1.20220E+03  1.50674E+03 -9.92831E+02  2.36147E+03
 -2.97197E+03  1.32048E+03 -3.26951E+03 -2.15531E+03 -1.27813E+03 -3.97038E+03  4.72251E+02 -3.60141E+03
  1.71173E+03 -1.54315E+03  2.24546E+03 -3.35118E+02  2.57316E+03  4.43451E+02  4.27124E+02  2.32699E+03
 -6.03786E+02  3.08909E+02 -1.38509E+03 -3.19621E+02  8.02396E+02 -2.24146E+03  3.50276E+03 -2.57276E+03
  2.74635E+03  3.49999E+02  4.74475E+03  2.20206E+03  1.39351E+03  3.82397E+03 -6.43524E+02  3.79852E+03
 -3.16471E+03  1.90637E+03 -3.12221E+03 -2.94970E+02 -1.86933E+03 -2.85031E+03  1.97349E+02 -1.44415E+03
  2.40685E+03 -1.30437E+03  1.78373E+03  8.23496E+02  3.28133E+01  2.61966E+03  2.70503E+02  2.40191E+03
 -7.76567E+02  1.68544E+03 -8.91062E+02  2.19973E+02 -2.39032E+02  1.07326E+03 -5.83650E+02  9.76146E+02
 -1.26505E+03  1.74862E+03 -2.74509E+03  1.53848E+03 -3.58925E+03  6.90705E+02 -4.65064E+03 -2.24350E+03
 -2.47735E+03 -4.75144E+03  1.01465E+03 -5.49584E+03  2.66328E+03 -3.94922E+03  4.89057E+03 -1.70132E+03
  4.63273E+03  7.36233E+02  2.50527E+03  2.87344E+03  3.06504E+02  3.80845E+03 -1.65225E+03  2.20616E+03
 -1.78033E+03  8.16232E+02 -8.10221E+02 -4.73641E+02 -9.26471E+02  3.90956E+02 -8.12219E+02 -6.80647E+01
 -1.19787E+03 -1.14756E+01 -3.62126E+02 -2.14199E+02  5.70714E+01 -3.08499E+02 -7.60406E+02 -1.62025E+03
  2.17984E+03 -1.41311E+03  1.87439E+03 -1.54163E+02  2.51497E+03  1.66517E+03 -3.56032E+02  3.14852E+03
 -1.91994E+03  3.99611E+03 -3.14066E+03  1.94444E+03 -4.30352E+03  1.16090E+02 -2.37875E+03 -3.06842E+03
 -1.61730E+03 -2.89732E+03  6.05347E+02 -2.43779E+03  2.20839E+03 -1.89326E+03  1.67332E+03  3.37792E+01
  1.03589E+03  9.47773E+02  5.96525E+02  1.40388E+03 -6.58462E+02 -6.78228E+01  1.92723E+02 -5.07962E+02
  5.89199E+02 -7.59452E+02  6.41673E+02  7.57859E+02  3.17682E+02  1.16239E+03  7.34694E+02  1.61603E+03
 -1.34636E+03  1.93958E+03 -2.20292E+03 -2.03918E+02 -1.59299E+03 -1.31166E+03  8.90723E+01 -2.23116E+03
  1.84073E+03 -1.76972E+03  1.99797E+03  1.39438E+02  2.13227E+03 -3.12003E+02  1.59396E+03  1.47578E+03
  1.44269E+02  1.55148E+03 -7.58723E+02  1.30117E+03 -1.09495E+03  1.16327E+03 -4.35859E+02  3.43719E+02
 -7.24845E+02 -1.98994E+02 -6.18023E+02  4.04414E+02 -5.55696E+02  3.17468E+02 -1.23856E+03 -6.22566E+02
 -2.44795E+03 -4.48596E+02 -1.00390E+03 -1.66747E+03  1.20940E+03 -3.19325E+03  1.43964E+03 -9.73215E+02
  1.55463E+03  1.43228E+02  2.28675E+02  6.76424E+02  6.82558E+02  1.55580E+03 -1.16576E+03  1.13366E+03
