 $NMID ID='MM_0lb_SNR400_15hz_g60_97.RAW', FMTDAT='(8E13.5)'
 TRAMP=1., VOLUME=1. $END
  3.09199E+05  5.62146E+02  3.37750E+05  2.50590E+05  8.45779E+04  3.37734E+05 -1.32381E+05  2.51495E+05
 -1.90221E+05  8.33383E+04 -1.12235E+05 -3.23905E+04  5.87072E+02 -5.05258E+04  5.40357E+04 -7.90133E+02
  3.45590E+04  5.32654E+04 -1.70406E+04  7.52474E+04 -6.04611E+04  6.35437E+04 -8.48894E+04  3.20400E+04
 -8.17485E+04 -1.22336E+04 -5.70939E+04 -5.15632E+04 -1.51498E+04 -7.01911E+04  2.77569E+04 -4.60592E+04
  4.01491E+04  3.77896E+03  1.67849E+04  4.82111E+04 -3.48707E+04  4.70353E+04 -6.64938E+04  4.32237E+02
 -5.35094E+04 -5.68411E+04 -6.94844E+03 -7.71730E+04  3.41913E+04 -5.49990E+04  4.88622E+04 -1.73805E+04
  4.42593E+04  1.14776E+04  3.21346E+04  2.60780E+04  1.61781E+04  3.01532E+04 -5.10775E+03  2.73335E+04
 -2.21737E+04  1.16419E+04 -1.87931E+04 -5.31006E+03  6.21105E+03 -7.14636E+03  2.26048E+04  1.31405E+04
  6.98028E+03  3.61140E+04 -3.22626E+04  3.59389E+04 -6.37313E+04  2.01619E+03 -5.70769E+04 -4.33659E+04
 -1.17391E+04 -6.38862E+04  3.99767E+04 -4.61087E+04  5.87172E+04 -2.06446E+03  3.50453E+04  3.28706E+04
 -5.88434E+03  3.67530E+04 -2.99787E+04  1.59544E+04 -2.99967E+04 -4.10444E+03 -1.77126E+04 -1.10069E+04
 -8.50822E+03 -1.30443E+04 -5.41395E+02 -1.89752E+04  8.17772E+03 -2.27745E+04  1.59033E+04 -1.36302E+04
  1.09345E+04  6.61769E+03 -8.41689E+03  1.26111E+04 -2.11821E+04 -5.13727E+03 -8.13930E+03 -3.43318E+04
  2.32327E+04 -4.33730E+04  4.84897E+04 -2.00051E+04  4.56853E+04  1.91501E+04  1.54192E+04  4.52977E+04
 -1.65382E+04  3.35740E+04 -2.55561E+04  1.60457E+03 -1.08209E+04 -2.79543E+04  2.12674E+04 -3.43877E+04
  4.09741E+04 -9.44716E+03  3.65301E+04  2.41025E+04  1.85024E+04  4.77076E+04 -8.07354E+03  5.14565E+04
 -3.22466E+04  3.46024E+04 -4.32022E+04  9.88302E+03 -4.39647E+04 -1.66069E+04 -2.38506E+04 -3.83542E+04
  8.15978E+03 -3.84307E+04  3.16922E+04 -1.44394E+04  3.07766E+04  1.08135E+04  4.32204E+03  1.92380E+04
 -1.33424E+04  8.48111E+03 -1.01211E+04 -7.84213E+03  6.09546E+03 -1.05855E+04  1.80663E+04  6.01793E+03
  1.37683E+04  2.11837E+04 -6.07751E+03  2.53314E+04 -2.29411E+04  1.08283E+04 -2.86548E+04 -4.39851E+03
 -2.14314E+04 -1.68943E+04 -8.69535E+03 -2.10014E+04  3.82223E+03 -2.03160E+04  1.63052E+04 -1.87291E+04
  2.67771E+04 -1.26594E+04  3.36106E+04  2.98084E+03  2.39501E+04  2.04777E+04  3.90423E+03  3.73023E+04
 -1.81806E+04  3.12033E+04 -2.82052E+04  1.01987E+04 -2.16248E+04 -1.01234E+04 -4.59982E+03 -1.36139E+04
  1.39488E+03 -2.78858E+03 -5.22219E+03  6.56058E+03 -1.66927E+04  5.17566E+03 -1.68241E+04 -6.88422E+03
 -1.00010E+04 -1.93673E+04  5.44356E+03 -2.36466E+04  1.58081E+04 -1.73173E+04  1.82140E+04 -1.64334E+03
  1.16621E+04  1.33210E+04 -7.00908E+02  1.94172E+04 -1.39585E+04  1.05719E+04 -1.93885E+04 -4.04524E+03
 -1.38595E+04 -1.73589E+04 -1.41339E+03 -2.39629E+04  1.09743E+04 -1.89740E+04  1.93651E+04 -9.44841E+03
  1.88631E+04  2.27053E+02  1.29854E+04  4.13895E+03  6.73896E+03  1.09974E+03  1.05119E+04 -1.74056E+03
  1.78491E+04  2.53203E+03  1.95355E+04  1.53200E+04  1.26418E+04  3.12466E+04 -2.77790E+03  3.43106E+04
 -1.95340E+04  2.79452E+04 -3.23122E+04  1.45352E+04 -3.44922E+04 -2.36330E+03 -2.76758E+04 -1.95196E+04
 -1.15823E+04 -2.87195E+04  1.00234E+04 -2.53062E+04  2.20913E+04 -1.26745E+04  1.89789E+04  5.61863E+03
  7.52689E+03  1.44957E+04 -9.24152E+03  1.25165E+04 -1.61307E+04  2.20356E+03 -1.27202E+04 -1.04073E+04
  7.35014E+02 -1.59398E+04  7.91656E+03 -1.14389E+04  1.05985E+04 -1.29758E+03  2.40074E+03  6.52742E+03
 -7.23482E+03  1.95165E+03 -6.23321E+03 -5.75401E+03 -8.40718E+01 -1.35676E+04  9.74319E+03 -1.40330E+04
  1.71895E+04 -7.46499E+03  1.84407E+04  2.90315E+03  1.57859E+04  1.27679E+04  7.67845E+03  2.07342E+04
 -3.65452E+03  2.25344E+04 -1.37868E+04  1.46158E+04 -1.65134E+04  3.29687E+03 -1.16268E+04 -4.16229E+03
 -5.43235E+03 -5.54600E+03 -9.43692E+01  5.98577E+02 -2.62073E+03  3.34342E+03 -5.42990E+03  4.30039E+03
 -1.08772E+04 -7.96563E+02 -1.16200E+04 -9.70774E+03 -4.65557E+03 -1.53191E+04  4.57229E+03 -1.16920E+04
  9.34433E+03 -4.99314E+03  6.78608E+03  3.14030E+03  4.44423E+02  4.01867E+03 -5.31843E+03  9.41307E+01
 -4.69983E+03 -7.17843E+03 -6.12766E+02 -1.06741E+04  5.74067E+03 -1.08475E+04  1.39695E+04 -5.95866E+03
  1.60802E+04  1.84968E+03  1.21628E+04  9.70602E+03  3.00483E+03  1.28548E+04 -7.25813E+03  1.08080E+04
 -9.71082E+03  4.01713E+03 -4.60801E+03 -2.08796E+03  2.46450E+03 -2.65805E+03  5.65957E+03 -9.37223E+02
  5.08544E+03  4.33227E+03  1.09387E+03  8.84797E+03 -6.42777E+03  8.62974E+03 -1.17096E+04  2.73572E+03
 -7.06378E+03 -5.81190E+03  6.62916E+01 -9.62159E+03  6.17686E+03 -5.11056E+03  5.76331E+03  1.53818E+03
  9.01749E+02  5.92185E+03 -6.22269E+03  7.53892E+03 -8.30758E+03  3.09421E+03 -7.86944E+03 -2.79330E+03
 -4.68810E+03 -1.01283E+04  1.79336E+03 -1.08577E+04  9.33490E+03 -6.83284E+03  1.00891E+04  1.85336E+03
  6.12433E+03  8.61988E+03 -9.35526E+02  1.05186E+04 -6.99075E+03  5.32572E+03 -7.87182E+03 -7.61198E+02
 -7.60156E+03 -6.94671E+03 -1.26984E+03 -7.29067E+03  4.10886E+03 -6.37735E+03  4.20029E+03 -2.96643E+03
  3.94173E+03  8.32943E+02 -9.30304E+02  6.09297E+02  2.32848E+00 -1.97604E+03  6.86348E+02 -4.15676E+03
  6.82221E+03 -2.60271E+03  9.55093E+03  7.74711E+02  9.61892E+03  5.67786E+03  7.55866E+03  1.19954E+04
 -2.42828E+03  1.43313E+04 -1.21437E+04  1.06664E+04 -1.54922E+04  1.64035E+03 -1.19845E+04 -4.80406E+03
 -6.68913E+03 -9.71035E+03 -5.22614E+02 -8.65590E+03  3.51139E+03 -4.30921E+03  3.08591E+03 -3.61727E+03
  3.00963E+03 -1.62810E+03  2.77774E+03 -2.81888E+03  4.65740E+03 -2.34336E+03  5.04179E+03 -1.01715E+03
  6.76393E+03  1.36005E+03  2.89986E+03  5.02690E+03 -1.91500E+03  5.72369E+03 -6.71645E+03  4.24948E+03
 -8.39093E+03 -1.18982E+03 -4.27259E+03 -5.73288E+03  4.02279E+02 -8.74116E+03  5.28489E+03 -8.55134E+03
  8.78111E+03 -5.62515E+03  1.05078E+04  9.16344E+02  7.08220E+03  6.86254E+03  1.12945E+03  9.83824E+03
 -4.77172E+03  8.30051E+03 -5.72953E+03  2.96203E+03 -4.08147E+03 -1.29496E+03 -1.58743E+03 -5.65202E+02
 -9.35700E+02  1.23731E+02 -1.50599E+03  2.43450E+03 -4.16963E+03  1.15341E+03 -5.54931E+03 -8.16796E+02
 -3.23230E+03 -5.61345E+03  9.72423E+02 -7.68868E+03  4.68603E+03 -7.18568E+03  7.13295E+03 -2.35613E+03
  7.43099E+03  3.80241E+03  2.82123E+03  6.40648E+03 -1.03908E+03  7.33904E+03 -5.42907E+03  4.48441E+03
 -6.80486E+03  4.11758E+02 -5.71516E+03 -3.42716E+03 -4.92799E+02 -6.24437E+03  2.88574E+03 -4.85290E+03
  4.41096E+03 -1.48734E+03  3.16838E+03  1.18039E+03  1.39198E+03  3.19729E+03  1.94585E+03  9.85000E+02
  2.84962E+03  6.89400E+02  2.16505E+03  1.23874E+03  1.82656E+03  3.41990E+03  2.37224E+03  3.66012E+03
 -1.83583E+03  5.57983E+03 -4.45658E+03  6.20232E+03 -6.59755E+03  1.34868E+03 -7.54508E+03 -1.50705E+03
 -3.79621E+03 -7.44953E+03  9.27023E+02 -8.74936E+03  3.90360E+03 -4.69873E+03  5.91362E+03 -1.78260E+03
  4.40792E+03  3.28555E+03  1.03051E+03  4.34124E+03 -1.83162E+03  2.78322E+03 -1.86826E+03 -5.47771E+02
 -1.27800E+03 -2.58275E+03  1.26744E+03 -2.86716E+03  2.46902E+03 -1.88081E+03  3.14736E+03  5.87416E+02
  1.45291E+03  1.51199E+03  1.08553E+03  5.04380E+02 -7.89052E+02  1.00929E+03  1.11468E+03  2.03260E+01
  5.15557E+02 -4.62494E+02  2.27626E+03  1.69925E+03  1.42325E+03  4.13381E+03 -4.07588E+02  5.28637E+03
 -3.08150E+03  2.92123E+03 -3.97813E+03  7.88193E+02 -3.54991E+03 -1.37498E+03 -1.04448E+03 -1.71685E+03
  7.19928E+02 -2.54359E+03  1.66236E+03 -1.24771E+03  1.16257E+03  1.14444E+03 -1.29427E+03  2.12420E+03
 -2.97213E+03  1.69351E+03 -2.84659E+03 -2.23777E+03 -2.14926E+03 -3.88137E+03  2.65345E+02 -3.08960E+03
  2.00092E+03 -1.78881E+03  1.77597E+03 -1.19679E+02  1.98212E+03  4.22444E+02  8.58410E+02  1.69199E+03
 -6.45800E+02  5.01007E+02 -1.74118E+03 -5.25198E+02  8.11713E+02 -2.52791E+03  3.29987E+03 -1.46584E+03
  2.78118E+03 -6.76246E+01  3.95365E+03  1.92838E+03  1.29249E+03  3.36634E+03 -1.02488E+03  3.43017E+03
 -3.15346E+03  9.42745E+02 -3.14703E+03 -3.36836E+02 -1.51517E+03 -2.38851E+03  6.67578E+02 -1.75324E+03
  1.81288E+03 -1.09629E+03  1.72317E+03  1.06343E+03  6.87751E+02  2.40462E+03 -5.33092E+02  2.55504E+03
 -5.03971E+02  1.94720E+03 -6.00521E+02 -1.45900E+02 -2.89864E+02  2.33687E+02 -1.05427E+03  7.94882E+02
 -1.21273E+03  1.34975E+03 -2.85483E+03  1.07748E+03 -3.93735E+03  3.83367E+02 -3.98237E+03 -2.29857E+03
 -1.48243E+03 -4.34886E+03  9.09273E+02 -5.62672E+03  3.27906E+03 -4.62674E+03  5.36747E+03 -1.92619E+03
  4.92611E+03  5.03505E+02  2.56618E+03  2.72752E+03 -6.62714E+02  3.49645E+03 -1.84490E+03  2.81042E+03
 -2.01526E+03  1.55548E+03 -1.22292E+03 -1.25751E+03 -4.38631E+02 -4.77232E+02 -6.29444E+02  4.66608E+02
 -8.50481E+02 -5.99229E+02 -1.30643E+03 -1.34318E+01 -6.53192E+01 -8.72444E+02 -4.65183E+02 -1.34540E+03
  2.10981E+03 -1.09953E+03  1.78440E+03 -1.00293E+02  2.33895E+03  2.10674E+03 -2.68449E+02  2.62532E+03
 -1.85293E+03  4.53602E+03 -3.49917E+03  2.18885E+03 -3.44641E+03 -1.01553E+02 -3.58374E+03 -2.19909E+03
 -1.91486E+03 -3.24423E+03  4.65420E+02 -3.19651E+03  2.03712E+03 -1.26851E+03  1.36465E+03 -2.41810E+02
  1.18896E+03  7.17716E+02 -5.02855E+01  6.56349E+02 -6.81666E+02 -1.49023E+02 -8.22129E+01 -3.69669E+02
  9.99849E+02 -7.12082E+00  5.75436E+02  7.26073E+02  3.97799E+02  7.24521E+02  3.37394E+02  1.24881E+03
 -1.44313E+03  1.35007E+03 -2.19245E+03  4.75412E+02 -1.43465E+03 -5.48970E+02 -9.38232E+02 -2.49746E+03
  1.60165E+03 -1.56883E+03  1.85456E+03 -2.76979E+02  2.22003E+03  7.23276E+01  1.44275E+03  1.71923E+03
  8.84770E+02  1.33258E+03 -3.52460E+02  1.42356E+03 -1.46515E+03  4.31434E+02 -1.14855E+03  2.20747E+02
 -2.47276E+02 -2.40355E+02 -9.17717E+02  2.55526E+00 -1.23439E+03  5.88652E+02 -1.89537E+03 -4.84397E+02
 -2.17111E+03 -5.34506E+02 -4.64899E+02 -2.53435E+03  1.67491E+03 -2.40825E+03  1.55542E+03 -5.45367E+02
  1.88874E+03 -4.44342E+02  4.54680E+02  9.59732E+02 -3.04145E+02  1.85531E+03 -1.16874E+03  2.06776E+03
