 $NMID ID='MM_0lb_SNR400_15hz_g50_83.RAW', FMTDAT='(8E13.5)'
 TRAMP=1., VOLUME=1. $END
  3.10790E+05  3.20207E+02  3.37530E+05  2.50616E+05  8.48290E+04  3.38543E+05 -1.32598E+05  2.51216E+05
 -1.90185E+05  8.26838E+04 -1.11888E+05 -3.29431E+04  8.43826E+02 -5.03703E+04  5.34932E+04 -4.58763E+02
  3.55708E+04  5.25076E+04 -1.66193E+04  7.50879E+04 -6.06789E+04  6.36666E+04 -8.36884E+04  3.16364E+04
 -8.06942E+04 -1.13998E+04 -5.72463E+04 -5.12778E+04 -1.53591E+04 -6.93954E+04  2.68749E+04 -4.55995E+04
  4.01652E+04  3.62668E+03  1.61782E+04  4.75162E+04 -3.42526E+04  4.67878E+04 -6.67128E+04 -2.29492E+01
 -5.27394E+04 -5.63807E+04 -6.42010E+03 -7.65983E+04  3.33292E+04 -5.48063E+04  4.75365E+04 -1.74622E+04
  4.28746E+04  1.16690E+04  3.16316E+04  2.51971E+04  1.60103E+04  2.95948E+04 -5.91548E+03  2.69617E+04
 -2.19784E+04  1.32911E+04 -1.85610E+04 -5.07784E+03  5.35257E+03 -7.28492E+03  2.23250E+04  1.17975E+04
  6.78261E+03  3.49322E+04 -3.18249E+04  3.57499E+04 -6.27070E+04  2.07278E+03 -5.68601E+04 -4.25796E+04
 -1.26153E+04 -6.30100E+04  3.94571E+04 -4.51936E+04  5.79552E+04 -1.96419E+03  3.40428E+04  3.16532E+04
 -6.41965E+03  3.58933E+04 -2.91664E+04  1.56300E+04 -3.03285E+04 -5.10113E+03 -1.58628E+04 -1.08299E+04
 -7.72691E+03 -1.27254E+04 -3.50395E+02 -1.80615E+04  7.72454E+03 -2.28534E+04  1.55971E+04 -1.33841E+04
  1.19719E+04  5.24554E+03 -7.43249E+03  1.30613E+04 -2.08974E+04 -4.67486E+03 -8.17258E+03 -3.26520E+04
  2.23998E+04 -4.29156E+04  4.76112E+04 -1.87812E+04  4.44379E+04  1.92963E+04  1.59540E+04  4.38281E+04
 -1.61316E+04  3.27182E+04 -2.48533E+04  1.64857E+03 -9.37418E+03 -2.73252E+04  2.05072E+04 -3.40659E+04
  4.07414E+04 -9.03702E+03  3.48690E+04  2.36110E+04  1.77243E+04  4.60282E+04 -8.16406E+03  4.93774E+04
 -3.13738E+04  3.32204E+04 -4.12324E+04  9.24625E+03 -4.20208E+04 -1.66420E+04 -2.33471E+04 -3.76835E+04
  6.93889E+03 -3.76356E+04  3.07816E+04 -1.49537E+04  2.87683E+04  1.03020E+04  4.00047E+03  1.88333E+04
 -1.35542E+04  8.17413E+03 -1.03725E+04 -7.70875E+03  5.94545E+03 -1.07840E+04  1.76338E+04  6.11031E+03
  1.33878E+04  2.25471E+04 -5.91728E+03  2.44935E+04 -2.23056E+04  1.05332E+04 -2.78881E+04 -5.11446E+03
 -1.92917E+04 -1.71683E+04 -7.62472E+03 -1.99416E+04  3.85318E+03 -1.89366E+04  1.55871E+04 -1.71611E+04
  2.53940E+04 -1.18614E+04  3.20431E+04  1.98899E+03  2.30543E+04  1.89975E+04  4.42351E+03  3.54109E+04
 -1.74525E+04  2.89926E+04 -2.75949E+04  9.94288E+03 -1.99607E+04 -1.10110E+04 -4.79880E+03 -1.37889E+04
  1.97447E+03 -2.84589E+03 -4.58805E+03  5.79838E+03 -1.56595E+04  4.66805E+03 -1.58630E+04 -6.89470E+03
 -9.79182E+03 -1.81669E+04  4.64238E+03 -2.25272E+04  1.50552E+04 -1.62647E+04  1.70927E+04 -1.71460E+03
  1.11598E+04  1.28950E+04 -1.33533E+03  1.73700E+04 -1.24828E+04  1.01630E+04 -1.83729E+04 -3.49403E+03
 -1.35241E+04 -1.60157E+04 -1.44703E+03 -2.23362E+04  1.00135E+04 -1.76737E+04  1.81944E+04 -8.90509E+03
  1.73042E+04  9.90227E+02  1.23779E+04  4.30794E+03  6.08664E+03  9.63071E+02  9.00223E+03 -1.59716E+03
  1.70203E+04  2.27110E+03  1.89003E+04  1.46174E+04  1.22657E+04  2.96790E+04 -3.45407E+03  3.23598E+04
 -1.85198E+04  2.60038E+04 -3.01278E+04  1.27346E+04 -3.13699E+04 -2.42061E+03 -2.69099E+04 -1.82077E+04
 -1.16037E+04 -2.56344E+04  8.18824E+03 -2.33074E+04  2.04023E+04 -1.29315E+04  1.78234E+04  5.21155E+03
  7.04391E+03  1.34206E+04 -8.19953E+03  1.20184E+04 -1.53791E+04  2.52825E+03 -1.23114E+04 -9.28001E+03
  1.02550E+01 -1.42958E+04  8.29989E+03 -1.11823E+04  9.28469E+03 -1.95974E+03  1.71552E+03  6.46791E+03
 -6.44548E+03  2.95308E+03 -5.68227E+03 -5.01792E+03 -2.90453E+02 -1.29962E+04  9.39292E+03 -1.33214E+04
  1.55081E+04 -7.09969E+03  1.66671E+04  2.97083E+03  1.40339E+04  1.22581E+04  6.58365E+03  1.85938E+04
 -3.12859E+03  2.10916E+04 -1.33971E+04  1.37686E+04 -1.49183E+04  3.19360E+03 -1.01772E+04 -3.12223E+03
 -4.90338E+03 -4.88826E+03 -3.55433E+02  1.11620E+03 -2.32343E+03  2.54256E+03 -4.59011E+03  4.27323E+03
 -9.98310E+03 -8.86981E+02 -1.05866E+04 -8.53393E+03 -4.38490E+03 -1.36477E+04  4.29986E+03 -1.11747E+04
  8.89548E+03 -4.54189E+03  6.37248E+03  2.63062E+03  8.57889E+01  3.68026E+03 -5.42582E+03 -4.39839E+01
 -4.71462E+03 -6.47587E+03 -7.62657E+02 -1.00570E+04  5.61381E+03 -1.04615E+04  1.23490E+04 -5.79760E+03
  1.55614E+04  1.04292E+03  1.14969E+04  8.21094E+03  2.33202E+03  1.18361E+04 -6.88818E+03  1.04059E+04
 -8.68365E+03  2.85849E+03 -4.99582E+03 -1.95419E+03  1.82137E+03 -2.63948E+03  5.86291E+03 -1.19153E+03
  5.33390E+03  4.43579E+03  8.69725E+02  8.56818E+03 -6.07899E+03  8.04887E+03 -1.03452E+04  2.02415E+03
 -6.54880E+03 -5.29487E+03  1.34928E+02 -8.53794E+03  5.80127E+03 -4.37975E+03  5.60697E+03  1.06112E+03
  4.39317E+02  5.12946E+03 -5.77902E+03  6.83598E+03 -7.92099E+03  3.60400E+03 -7.66188E+03 -2.49386E+03
 -4.47428E+03 -8.92915E+03  1.44086E+03 -1.04410E+04  8.39069E+03 -6.56802E+03  9.75360E+03  2.20108E+03
  6.26086E+03  7.56872E+03 -4.34127E+02  9.63662E+03 -7.33445E+03  6.41723E+03 -7.65851E+03 -1.22067E+03
 -7.01636E+03 -5.82638E+03 -1.83183E+03 -7.20548E+03  3.54428E+03 -6.27406E+03  4.62227E+03 -3.42525E+03
  3.65616E+03  7.84622E+02 -3.68194E+02  1.01498E+03  1.00061E+02 -1.18819E+03  5.69281E+02 -3.19532E+03
  6.17970E+03 -2.10699E+03  8.18231E+03  1.02527E+03  8.97541E+03  5.25654E+03  6.30308E+03  1.13371E+04
 -2.11988E+03  1.33690E+04 -1.12773E+04  1.00807E+04 -1.41766E+04  1.54418E+03 -1.12578E+04 -5.00541E+03
 -5.54843E+03 -9.42000E+03 -3.01830E+02 -8.72715E+03  2.76452E+03 -3.76220E+03  2.13003E+03 -3.54041E+03
  1.89405E+03 -2.46885E+03  3.24435E+03 -3.85161E+03  4.33012E+03 -2.16887E+03  4.24248E+03  3.84356E+02
  5.53509E+03  1.81410E+03  2.34590E+03  4.97535E+03 -1.50886E+03  5.29271E+03 -6.42683E+03  4.26405E+03
 -7.33037E+03 -1.20486E+03 -3.71962E+03 -4.81740E+03 -7.28876E+02 -8.07990E+03  4.01034E+03 -7.81419E+03
  8.33593E+03 -4.69631E+03  1.00480E+04  9.73435E+02  6.38448E+03  6.30194E+03  1.35968E+03  8.99495E+03
 -3.28684E+03  7.29251E+03 -5.14395E+03  2.37236E+03 -3.41091E+03 -1.30999E+03 -1.28928E+03 -6.42514E+02
 -1.00577E+03  5.08200E+02 -1.18668E+03  2.53785E+03 -3.39332E+03  1.34867E+03 -6.17027E+03 -1.01310E+03
 -3.16875E+03 -5.56614E+03 -6.72644E+01 -6.95511E+03  4.46370E+03 -6.85395E+03  6.07744E+03 -1.30382E+03
  6.91167E+03  3.88889E+03  2.40578E+03  5.94673E+03 -1.45560E+03  7.00552E+03 -4.68308E+03  4.25854E+03
 -6.17646E+03  7.00155E+02 -4.95790E+03 -3.97312E+03 -2.33376E+02 -5.21058E+03  2.91858E+03 -4.31761E+03
  4.51164E+03 -1.98753E+03  2.42620E+03  7.99776E+02  7.39652E+02  2.42893E+03  5.79112E+02  1.41070E+03
  2.14638E+03  1.10879E+03  1.77070E+03  1.35935E+03  1.83926E+03  2.47879E+03  2.32004E+03  3.04750E+03
 -2.11421E+03  5.22200E+03 -4.60308E+03  5.59125E+03 -6.24969E+03  1.94130E+03 -7.20820E+03 -1.63751E+03
 -3.36218E+03 -6.85767E+03  1.12392E+03 -7.55214E+03  3.85191E+03 -4.40126E+03  5.94659E+03 -1.87517E+03
  3.88459E+03  2.94004E+03  1.07890E+03  4.00500E+03 -1.38624E+03  2.39323E+03 -2.18426E+03  1.22676E+02
 -1.28031E+03 -3.29487E+03  1.89348E+03 -2.83410E+03  1.87244E+03 -1.21258E+03  2.52220E+03 -7.19454E+01
  1.97386E+03  1.04415E+03  5.29663E+02  3.47878E+01 -4.31165E+02  1.09029E+03  2.21946E+03 -2.67282E+02
  6.70685E+02 -2.47635E+02  2.47330E+03  8.67005E+02  6.31173E+02  3.66081E+03 -1.19166E+03  4.66012E+03
 -2.12873E+03  2.48934E+03 -3.87536E+03  8.42482E+02 -3.99518E+03 -1.55337E+03 -7.38248E+02 -1.81606E+03
  5.66216E+02 -1.65267E+03  1.16342E+03 -9.25271E+02  5.96055E+02  1.60836E+03 -6.06377E+02  1.34625E+03
 -2.94894E+03  8.64478E+02 -2.11787E+03 -2.16743E+03 -1.56435E+03 -3.55234E+03  5.87450E+02 -3.26751E+03
  1.92331E+03 -7.31519E+02  1.69093E+03 -3.46603E+02  1.89271E+03  1.49720E+02  6.33445E+02  1.67216E+03
 -1.32732E+03 -8.90451E+01 -1.48977E+03 -1.30202E+03  8.23439E+02 -1.78516E+03  2.76293E+03 -2.17780E+03
  2.94891E+03  3.19618E+02  3.81192E+03  2.76586E+03  1.96371E+03  3.24300E+03 -1.02827E+03  3.83228E+03
 -2.43198E+03  4.74750E+02 -2.67062E+03 -3.88428E+02 -1.63543E+03 -2.68981E+03  8.63318E+02 -1.68466E+03
  2.14731E+03 -1.02339E+03  1.28541E+03  1.38935E+03  1.47739E+02  2.32867E+03  2.75688E+02  2.35440E+03
 -7.98044E+02  1.56115E+03 -5.90372E+02 -4.91447E+01 -7.13719E+02  1.56439E+02 -1.18122E+03  8.92335E+02
 -9.87100E+02  8.30105E+02 -2.39820E+03  7.23577E+02 -4.13532E+03  5.06445E+02 -4.33607E+03 -1.59219E+03
 -2.40660E+03 -4.42896E+03  7.66476E+02 -5.71183E+03  2.88180E+03 -4.86864E+03  4.49958E+03 -1.91131E+03
  4.39758E+03  4.03036E+02  1.95495E+03  2.85610E+03 -6.02462E+02  2.74527E+03 -1.44893E+03  2.47963E+03
 -1.60551E+03  1.09954E+03 -4.95504E+02 -4.90202E+02 -7.86279E+02 -2.73907E+02 -4.24238E+02  4.66786E+02
 -1.17859E+03 -1.84048E+01 -1.06198E+03 -3.70424E+01  3.67031E+02 -1.26206E+03 -1.44647E+02 -1.00654E+03
  2.39410E+03 -9.03862E+02  1.06966E+03  2.22139E+02  2.88121E+03  1.63185E+03 -2.84906E+01  3.33740E+03
 -1.60609E+03  4.05950E+03 -3.94602E+03  2.65071E+03 -3.33411E+03 -1.48742E+02 -3.02383E+03 -2.49502E+03
 -1.04977E+03 -2.72863E+03  1.66333E+02 -2.84278E+03  2.38521E+03 -1.79418E+03  2.31827E+03  1.14030E+02
  1.29174E+03  9.26197E+02  4.04090E+02  7.73159E+02 -7.09894E+02  1.32827E+01 -9.83850E+02 -6.21424E+02
  1.07586E+03 -5.33521E+02  1.01881E+03  6.89093E+02  4.61582E+02  1.02355E+03  8.32614E+02  1.34075E+03
 -1.39194E+03  1.52066E+03 -1.76165E+03  1.80933E+02 -2.30475E+03 -1.26406E+03 -4.92686E+01 -2.24189E+03
  1.29868E+03 -1.76803E+03  1.69635E+03 -3.22284E+02  2.26838E+03 -4.20412E+01  9.52469E+02  1.71441E+03
  3.77410E+02  1.88676E+03 -8.20287E+02  1.79200E+03 -4.65347E+02  1.00402E+03 -1.42805E+02  1.92791E+02
 -8.80843E+02 -6.35890E+02 -8.96941E+02  1.43972E+02 -1.17810E+03 -1.19956E+02 -1.74759E+03 -7.42299E+02
 -1.65075E+03 -5.97790E+02 -7.42663E+02 -2.29504E+03  8.45528E+02 -1.91073E+03  2.07977E+03 -1.11590E+03
  1.44192E+03 -7.35607E+01  2.10490E+02  9.92503E+02 -4.86715E+01  1.54630E+03 -1.49618E+03  8.93986E+02
