 $NMID ID='MM_0lb_SNR400_10hz_g40_54.RAW', FMTDAT='(8E13.5)'
 TRAMP=1., VOLUME=1. $END
  3.09779E+05 -2.41814E+02  3.37843E+05  2.50708E+05  8.43547E+04  3.38743E+05 -1.32568E+05  2.51824E+05
 -1.91217E+05  8.31609E+04 -1.12054E+05 -3.26477E+04  7.03313E+01 -5.03544E+04  5.37151E+04 -5.10945E+02
  3.55442E+04  5.34467E+04 -1.71349E+04  7.59296E+04 -6.16877E+04  6.41647E+04 -8.42359E+04  3.25545E+04
 -8.15796E+04 -1.18126E+04 -5.86877E+04 -5.16738E+04 -1.43864E+04 -7.05667E+04  2.79966E+04 -4.61494E+04
  4.06177E+04  3.66298E+03  1.60910E+04  4.80789E+04 -3.44981E+04  4.79145E+04 -6.71032E+04 -3.49677E+02
 -5.40854E+04 -5.75061E+04 -7.20433E+03 -7.88904E+04  3.45846E+04 -5.68520E+04  4.92497E+04 -1.74518E+04
  4.46141E+04  1.18259E+04  3.26957E+04  2.56466E+04  1.55480E+04  2.93993E+04 -5.67898E+03  2.75267E+04
 -2.22270E+04  1.17879E+04 -1.76092E+04 -5.59805E+03  6.41985E+03 -7.69154E+03  2.24668E+04  1.34241E+04
  7.35232E+03  3.61833E+04 -3.27916E+04  3.52114E+04 -6.46417E+04  1.91031E+03 -5.77660E+04 -4.35994E+04
 -1.23174E+04 -6.48862E+04  4.02330E+04 -4.59878E+04  6.00470E+04 -1.78725E+03  3.55458E+04  3.35562E+04
 -5.54137E+03  3.82591E+04 -3.21471E+04  1.74378E+04 -3.23420E+04 -4.38234E+03 -1.86244E+04 -1.17302E+04
 -8.80684E+03 -1.41086E+04 -1.69339E+02 -1.89503E+04  7.58521E+03 -2.34367E+04  1.61596E+04 -1.26161E+04
  1.14027E+04  5.52392E+03 -9.76335E+03  1.28825E+04 -2.19107E+04 -6.04622E+03 -8.39005E+03 -3.53766E+04
  2.47061E+04 -4.57974E+04  5.02900E+04 -2.09127E+04  4.66583E+04  1.96307E+04  1.70517E+04  4.56757E+04
 -1.55519E+04  3.50942E+04 -2.60689E+04  2.49768E+03 -1.07350E+04 -2.89659E+04  2.08004E+04 -3.60353E+04
  4.30230E+04 -9.93789E+03  3.81609E+04  2.43760E+04  1.96688E+04  4.93791E+04 -8.42423E+03  5.34470E+04
 -3.36715E+04  3.65640E+04 -4.49810E+04  1.03242E+04 -4.57283E+04 -1.80503E+04 -2.58270E+04 -4.01974E+04
  7.17195E+03 -3.99060E+04  3.25721E+04 -1.63198E+04  3.04733E+04  1.09950E+04  4.95630E+03  1.97968E+04
 -1.42507E+04  9.11451E+03 -1.08875E+04 -7.74726E+03  6.25512E+03 -1.10545E+04  1.85647E+04  5.84937E+03
  1.43429E+04  2.26055E+04 -5.01862E+03  2.57377E+04 -2.30248E+04  1.29949E+04 -3.07504E+04 -3.86439E+03
 -2.34466E+04 -1.81021E+04 -1.02079E+04 -2.27657E+04  3.78396E+03 -2.33775E+04  1.79022E+04 -2.10797E+04
  2.97376E+04 -1.34775E+04  3.59054E+04  4.22493E+03  2.55961E+04  2.22291E+04  4.96227E+03  3.94728E+04
 -1.95163E+04  3.24889E+04 -2.96807E+04  1.27561E+04 -2.15230E+04 -9.73727E+03 -4.42672E+03 -1.18901E+04
  1.35404E+03 -2.17004E+03 -6.49395E+03  8.08818E+03 -1.85650E+04  4.80743E+03 -1.93686E+04 -8.42209E+03
 -1.13296E+04 -2.18115E+04  5.71560E+03 -2.55734E+04  1.82657E+04 -1.86132E+04  2.04053E+04 -2.06435E+03
  1.34892E+04  1.50795E+04 -7.56825E+02  2.13983E+04 -1.47389E+04  1.27186E+04 -2.16794E+04 -3.96949E+03
 -1.59676E+04 -1.94068E+04 -2.16652E+03 -2.62211E+04  1.17622E+04 -2.14695E+04  2.14662E+04 -1.05430E+04
  2.05452E+04  3.02051E+02  1.39387E+04  5.28942E+03  7.60688E+03  1.23247E+03  1.09490E+04 -2.18205E+03
  2.01770E+04  2.63883E+03  2.37303E+04  1.70439E+04  1.56616E+04  3.49835E+04 -2.38158E+03  3.98887E+04
 -2.30460E+04  3.35967E+04 -3.83091E+04  1.67598E+04 -4.05115E+04 -1.89433E+03 -3.29444E+04 -2.37534E+04
 -1.32141E+04 -3.40840E+04  1.13041E+04 -2.98854E+04  2.49547E+04 -1.41867E+04  2.27276E+04  6.81915E+03
  7.74365E+03  1.66071E+04 -1.08759E+04  1.53324E+04 -1.87253E+04  3.12093E+03 -1.37948E+04 -1.19762E+04
 -4.21086E+02 -1.74492E+04  9.70365E+03 -1.31084E+04  1.24186E+04 -9.48348E+02  2.89680E+03  7.75064E+03
 -7.95217E+03  3.31813E+03 -7.83290E+03 -7.15491E+03 -1.01140E+03 -1.66923E+04  1.11399E+04 -1.72121E+04
  2.04882E+04 -9.41086E+03  2.29778E+04  3.48555E+03  1.94078E+04  1.64743E+04  9.64029E+03  2.52167E+04
 -4.60683E+03  2.74894E+04 -1.72443E+04  1.69403E+04 -2.00539E+04  3.57841E+03 -1.35460E+04 -5.71022E+03
 -6.12175E+03 -6.70241E+03 -5.77621E+02  1.38255E+03 -2.94618E+03  3.54232E+03 -6.26039E+03  4.50052E+03
 -1.28830E+04 -6.66028E+02 -1.34196E+04 -1.12151E+04 -5.14142E+03 -1.68075E+04  5.16331E+03 -1.36446E+04
  1.06811E+04 -6.09871E+03  8.93632E+03  3.38569E+03  2.76300E+02  4.95592E+03 -7.16081E+03 -1.17360E+03
 -5.62639E+03 -8.98689E+03 -1.00572E+03 -1.33319E+04  8.49320E+03 -1.45447E+04  1.80433E+04 -7.71174E+03
  2.07086E+04  1.71877E+03  1.52908E+04  1.25263E+04  3.03283E+03  1.67531E+04 -8.48412E+03  1.36897E+04
 -1.06788E+04  3.47236E+03 -5.83953E+03 -2.99361E+03  1.93381E+03 -4.50382E+03  7.46509E+03 -9.07213E+02
  7.06929E+03  6.34962E+03  1.05414E+03  1.09488E+04 -8.31460E+03  1.09965E+04 -1.35734E+04  3.00584E+03
 -9.41191E+03 -7.24295E+03  5.25191E+02 -1.19256E+04  7.85685E+03 -5.14313E+03  8.34980E+03  2.44366E+03
  1.87760E+03  9.34398E+03 -6.91839E+03  9.70097E+03 -1.18656E+04  3.68691E+03 -1.16632E+04 -3.81902E+03
 -6.71910E+03 -1.33922E+04  2.95888E+03 -1.50012E+04  1.29733E+04 -9.34294E+03  1.44779E+04  2.74526E+03
  8.59936E+03  1.13915E+04 -1.75197E+03  1.38404E+04 -1.01451E+04  7.54748E+03 -1.19886E+04 -1.76286E+03
 -9.97957E+03 -9.24082E+03 -1.27887E+03 -1.07932E+04  5.65239E+03 -7.37798E+03  5.62974E+03 -3.85629E+03
  4.75605E+03  6.07830E+02 -5.35935E+02  1.35486E+03 -1.04480E+02 -2.35588E+03  2.23977E+03 -6.33035E+03
  1.00322E+04 -4.18911E+03  1.34823E+04  1.12246E+03  1.32987E+04  9.08889E+03  8.82426E+03  1.83126E+04
 -3.97157E+03  2.06621E+04 -1.70078E+04  1.54295E+04 -2.19355E+04  2.54654E+03 -1.77722E+04 -8.55664E+03
 -8.82347E+03 -1.50137E+04 -8.47155E+02 -1.27123E+04  4.39870E+03 -7.59488E+03  4.57341E+03 -4.74125E+03
  2.84395E+03 -2.65172E+03  4.01692E+03 -3.82975E+03  5.32647E+03 -2.85634E+03  7.37749E+03 -1.24662E+03
  9.31655E+03  2.64295E+03  5.05898E+03  7.86701E+03 -2.26087E+03  9.34458E+03 -1.00244E+04  7.23682E+03
 -1.26966E+04 -1.23445E+03 -7.71686E+03 -8.74348E+03 -8.14016E+02 -1.32597E+04  7.18999E+03 -1.40976E+04
  1.32136E+04 -7.22155E+03  1.65598E+04  1.47512E+03  1.15838E+04  1.17270E+04  1.71686E+03  1.44820E+04
 -6.21618E+03  1.11265E+04 -9.01690E+03  4.64224E+03 -6.06466E+03 -2.11924E+03 -2.25227E+03 -1.69668E+03
 -4.49820E+02  6.02622E+02 -1.63931E+03  2.65019E+03 -5.59262E+03  2.15715E+03 -8.33336E+03 -1.27057E+03
 -5.65547E+03 -8.77638E+03  1.22083E+03 -1.29413E+04  7.97434E+03 -1.16727E+04  1.21798E+04 -3.89983E+03
  1.23903E+04  6.31082E+03  5.73844E+03  1.06996E+04 -2.54645E+03  1.21699E+04 -8.79031E+03  8.23229E+03
 -1.20210E+04  1.48204E+03 -8.33311E+03 -7.06991E+03 -8.30040E+02 -9.50986E+03  5.61823E+03 -7.95541E+03
  7.93784E+03 -3.09850E+03  5.10062E+03  1.76577E+03  2.13797E+03  3.79784E+03  8.29594E+02  2.09879E+03
  2.48346E+03  1.33651E+03  3.14178E+03  1.69845E+03  3.93155E+03  5.19163E+03  3.67858E+03  6.11126E+03
 -2.63112E+03  9.79850E+03 -8.23358E+03  8.92170E+03 -1.22380E+04  2.52003E+03 -1.28503E+04 -4.95164E+03
 -6.31189E+03 -1.20184E+04  2.06467E+03 -1.41417E+04  8.18258E+03 -9.57899E+03  1.02410E+04 -2.51605E+03
  7.90468E+03  4.59614E+03  2.29178E+03  6.93132E+03 -2.84169E+03  4.47355E+03 -4.58559E+03 -1.28494E+03
 -3.07855E+03 -5.26302E+03  2.93940E+03 -5.71215E+03  5.14305E+03 -2.99528E+03  5.39573E+03  1.39141E+03
  3.37822E+03  1.63040E+03  1.14528E+03  1.52205E+03 -8.11269E+02  2.34759E+03  1.66696E+03  1.29315E+02
  1.60497E+03 -6.18988E+02  5.48308E+03  1.88453E+03  2.91671E+03  6.58878E+03  3.46067E+01  8.73496E+03
 -5.52108E+03  5.74404E+03 -7.37567E+03  8.87534E+02 -7.05549E+03 -2.35529E+03 -2.40725E+03 -5.04201E+03
  1.47825E+03 -4.68135E+03  2.32065E+03 -1.86789E+03  2.69804E+03  2.46688E+03 -1.00388E+03  3.27387E+03
 -5.29344E+03  2.58270E+03 -5.80374E+03 -3.43094E+03 -2.89821E+03 -7.05139E+03  1.00200E+03 -7.69495E+03
  3.83920E+03 -4.91074E+03  4.77593E+03  2.55362E+01  3.62769E+03  1.78993E+03  1.15921E+03  3.75753E+03
 -2.46489E+03  1.08364E+03 -3.14128E+03 -2.66868E+03  1.94159E+03 -5.15497E+03  6.73298E+03 -4.26896E+03
  7.58013E+03  1.29717E+03  7.35761E+03  4.88765E+03  2.69250E+03  7.76653E+03 -2.46556E+03  7.91458E+03
 -6.44015E+03  2.58200E+03 -6.94195E+03 -1.01633E+03 -3.46207E+03 -5.62000E+03  1.07006E+03 -4.38649E+03
  5.52928E+03 -1.77422E+03  4.04112E+03  2.12329E+03  1.24052E+03  3.61170E+03 -1.13578E+03  3.69369E+03
 -1.84240E+03  3.36468E+03 -1.63084E+03  1.36186E+03 -1.15058E+03  9.74197E+02 -8.86225E+02  1.42451E+03
 -1.75844E+03  2.58838E+03 -4.76947E+03  1.76396E+03 -8.50394E+03  7.94090E+01 -9.43580E+03 -5.62022E+03
 -5.28664E+03 -1.02069E+04  2.40397E+03 -1.20390E+04  6.66473E+03 -9.61481E+03  1.15803E+04 -3.16729E+03
  1.13608E+04  1.76690E+03  6.07025E+03  7.82449E+03  7.37101E+02  8.84806E+03 -3.37216E+03  6.41318E+03
 -4.69269E+03  2.41741E+03 -3.24869E+03 -1.01626E+03 -1.11283E+03 -8.15417E+02 -1.10887E+03 -7.16301E+01
 -2.52696E+03 -3.53890E+02 -2.42080E+03 -4.62783E+01 -5.24231E+02 -2.96010E+03 -5.49478E+01 -3.64997E+03
  3.25573E+03 -2.36649E+03  5.04033E+03  5.15040E+02  5.93297E+03  4.53567E+03  1.46014E+03  7.56026E+03
 -3.86202E+03  9.78455E+03 -8.94158E+03  5.21785E+03 -1.05566E+04 -1.00362E+03 -7.93961E+03 -6.63747E+03
 -3.02514E+03 -8.52798E+03  1.65096E+03 -7.56998E+03  4.93503E+03 -4.04651E+03  5.21328E+03  4.53770E+02
  2.88649E+03  2.70625E+03 -8.46065E+02  1.93143E+03 -1.27896E+03 -4.11919E+02 -2.99889E+02 -1.18581E+03
  2.31592E+03 -1.29118E+03  4.07166E+03  9.93920E+02  2.74219E+03  3.19797E+03  4.07060E+02  4.11367E+03
 -3.25616E+03  3.40323E+03 -5.77011E+03  1.03008E+03 -4.66067E+03 -4.28125E+03 -7.07290E+02 -7.53206E+03
  3.72699E+03 -5.65891E+03  6.48970E+03 -1.92051E+03  5.68747E+03  1.68522E+03  3.43133E+03  5.18667E+03
  5.01243E+02  4.75699E+03 -2.12312E+03  4.70256E+03 -4.09801E+03  2.56042E+03 -3.09834E+03  8.71744E+02
 -1.04672E+03 -4.86545E+02 -1.94400E+03  8.26784E+02 -2.56036E+03  6.60717E+02 -4.68989E+03 -7.04126E+02
 -4.34244E+03 -2.70846E+03 -9.15541E+02 -5.38631E+03  1.97105E+03 -5.19793E+03  4.68923E+03 -2.92938E+03
  5.12041E+03  1.16553E+03  2.83697E+03  3.60047E+03 -4.33299E+02  4.89159E+03 -3.97552E+03  3.44653E+03
