 $NMID ID='MM_0lb_SNR400_7hz_g60_29.RAW', FMTDAT='(8E13.5)'
 TRAMP=1., VOLUME=1. $END
  3.09330E+05  1.36738E+02  3.39328E+05  2.49874E+05  8.44884E+04  3.39161E+05 -1.32428E+05  2.52352E+05
 -1.90726E+05  8.41816E+04 -1.13093E+05 -3.14652E+04  5.89250E+02 -5.05610E+04  5.32498E+04 -1.05843E+03
  3.60628E+04  5.24712E+04 -1.65917E+04  7.57051E+04 -6.16245E+04  6.42345E+04 -8.57737E+04  3.28828E+04
 -8.33008E+04 -1.25450E+04 -5.97210E+04 -5.28610E+04 -1.55113E+04 -7.15996E+04  2.80443E+04 -4.65435E+04
  4.10013E+04  4.20097E+03  1.68581E+04  4.99140E+04 -3.40124E+04  4.99179E+04 -6.88239E+04 -4.55003E+02
 -5.49137E+04 -5.80666E+04 -7.53284E+03 -8.10698E+04  3.47894E+04 -5.77168E+04  5.08473E+04 -1.99767E+04
  4.68955E+04  1.15769E+04  3.33868E+04  2.76515E+04  1.66280E+04  3.19403E+04 -6.41315E+03  2.82041E+04
 -2.23362E+04  1.20747E+04 -1.70013E+04 -6.70847E+03  8.10985E+03 -7.17500E+03  2.42678E+04  1.45044E+04
  7.05981E+03  3.83712E+04 -3.45541E+04  3.82978E+04 -6.66354E+04  2.91219E+03 -5.89697E+04 -4.55993E+04
 -1.22644E+04 -6.68980E+04  4.19089E+04 -4.93433E+04  6.30566E+04 -2.88157E+03  3.89535E+04  3.48926E+04
 -5.10140E+03  4.07238E+04 -3.24762E+04  2.02199E+04 -3.45836E+04 -2.89326E+03 -2.02378E+04 -1.35792E+04
 -9.90927E+03 -1.62515E+04  4.09769E+02 -2.07756E+04  8.66650E+03 -2.45947E+04  1.61671E+04 -1.21655E+04
  8.91283E+03  7.61432E+03 -1.18275E+04  1.33365E+04 -2.49244E+04 -7.96293E+03 -8.99450E+03 -3.95442E+04
  2.64118E+04 -4.93464E+04  5.41497E+04 -2.18515E+04  5.06243E+04  2.10230E+04  1.84973E+04  4.85534E+04
 -1.74865E+04  3.75134E+04 -2.99033E+04  3.03845E+03 -1.30191E+04 -3.10119E+04  2.25737E+04 -3.91489E+04
  4.75426E+04 -1.16157E+04  4.36302E+04  2.58717E+04  2.23914E+04  5.31830E+04 -7.65599E+03  6.05983E+04
 -3.75889E+04  4.11365E+04 -5.12420E+04  1.19751E+04 -5.10936E+04 -1.92691E+04 -2.80853E+04 -4.41052E+04
  7.78531E+03 -4.43856E+04  3.65363E+04 -1.85259E+04  3.39464E+04  1.20099E+04  5.89702E+03  2.18455E+04
 -1.38214E+04  1.05063E+04 -1.16980E+04 -7.04123E+03  4.68702E+03 -1.24955E+04  1.98416E+04  5.91590E+03
  1.55842E+04  2.37023E+04 -4.81076E+03  2.75774E+04 -2.37146E+04  1.64824E+04 -3.33279E+04 -1.54626E+03
 -2.85535E+04 -1.88819E+04 -1.42617E+04 -2.85293E+04  4.09560E+03 -2.89591E+04  2.25329E+04 -2.57859E+04
  3.55518E+04 -1.62453E+04  4.24266E+04  6.58780E+03  2.93678E+04  2.71120E+04  3.87476E+03  4.48492E+04
 -2.12191E+04  3.64773E+04 -3.26448E+04  1.20875E+04 -2.36953E+04 -1.15546E+04 -5.72788E+03 -1.25867E+04
 -3.52671E+01 -7.14261E+02 -8.97028E+03  8.38921E+03 -2.32739E+04  6.20128E+03 -2.18363E+04 -1.09807E+04
 -1.27692E+04 -2.67512E+04  6.08672E+03 -2.98718E+04  2.22212E+04 -2.09773E+04  2.47729E+04 -2.21204E+03
  1.71067E+04  1.73723E+04 -2.12599E+03  2.61045E+04 -1.89706E+04  1.57706E+04 -2.64855E+04 -5.39794E+03
 -1.94554E+04 -2.33190E+04 -2.44747E+03 -3.08139E+04  1.35883E+04 -2.54769E+04  2.53515E+04 -1.47820E+04
  2.41285E+04  8.63855E+01  1.80387E+04  6.20941E+03  9.84676E+03  1.94163E+03  1.38577E+04 -2.23073E+03
  2.43333E+04  3.45943E+03  2.91246E+04  1.96256E+04  2.04827E+04  4.24809E+04 -2.12015E+03  5.05917E+04
 -2.88909E+04  4.24965E+04 -4.76484E+04  2.27231E+04 -5.21587E+04 -3.77335E+03 -4.07752E+04 -3.11023E+04
 -1.60179E+04 -4.40110E+04  1.54764E+04 -3.87454E+04  3.23451E+04 -1.67607E+04  2.79596E+04  9.64933E+03
  9.39900E+03  2.17905E+04 -1.27966E+04  1.74331E+04 -2.27858E+04  2.53531E+03 -1.66118E+04 -1.49828E+04
 -8.45877E+02 -2.12072E+04  1.15787E+04 -1.73686E+04  1.52600E+04 -1.37159E+03  3.90458E+03  9.50491E+03
 -9.70136E+03  5.24419E+03 -1.06413E+04 -7.56078E+03 -1.91047E+03 -2.13320E+04  1.28826E+04 -2.37758E+04
  2.63421E+04 -1.37142E+04  3.18720E+04  4.22175E+03  2.72322E+04  2.17886E+04  1.32318E+04  3.58395E+04
 -7.06748E+03  3.73141E+04 -2.48436E+04  2.27643E+04 -2.72628E+04  3.42579E+03 -1.82253E+04 -7.19602E+03
 -7.62427E+03 -9.25562E+03  4.97475E+02 -2.09622E+02 -3.68670E+03  5.07683E+03 -8.81115E+03  5.83348E+03
 -1.65592E+04 -1.66610E+03 -1.65368E+04 -1.37750E+04 -7.40292E+03 -2.28686E+04  7.42811E+03 -1.85611E+04
  1.53746E+04 -6.82651E+03  1.01579E+04  5.08607E+03 -1.15793E+03  7.03539E+03 -1.02272E+04 -8.46412E+02
 -8.94769E+03 -1.21619E+04 -8.81303E+02 -1.95672E+04  1.14042E+04 -1.92381E+04  2.42800E+04 -1.05942E+04
  2.88931E+04  2.13987E+03  2.06075E+04  1.75116E+04  4.02529E+03  2.26435E+04 -1.07758E+04  1.90610E+04
 -1.39380E+04  4.70039E+03 -7.81094E+03 -3.95910E+03  2.34519E+03 -5.28400E+03  1.03367E+04 -1.77145E+03
  8.94050E+03  8.22123E+03  1.16136E+03  1.59616E+04 -1.03861E+04  1.43142E+04 -1.85711E+04  2.05340E+03
 -1.25933E+04 -1.07987E+04  1.86436E+01 -1.67032E+04  1.15389E+04 -8.48574E+03  1.14779E+04  4.58376E+03
  2.93426E+03  1.34933E+04 -9.95836E+03  1.45728E+04 -1.61736E+04  5.72128E+03 -1.77208E+04 -6.93323E+03
 -1.10582E+04 -1.93660E+04  5.67407E+03 -2.24711E+04  1.95880E+04 -1.37750E+04  2.15135E+04  3.74490E+03
  1.19831E+04  1.73296E+04 -1.93033E+03  1.91293E+04 -1.40080E+04  1.11469E+04 -1.67356E+04 -1.87549E+03
 -1.31995E+04 -1.30322E+04 -1.89062E+03 -1.50304E+04  8.06666E+03 -1.16869E+04  9.94645E+03 -3.96187E+03
  5.92098E+03  3.53109E+03 -8.83960E+02  2.70614E+03 -9.01149E+02 -3.67348E+03  3.00394E+03 -1.02119E+04
  1.46602E+04 -6.02506E+03  2.18228E+04  2.28760E+03  1.99403E+04  1.45895E+04  1.29339E+04  2.71175E+04
 -6.20870E+03  3.10237E+04 -2.51207E+04  2.19395E+04 -3.23716E+04  4.60965E+03 -2.70024E+04 -1.16649E+04
 -1.39905E+04 -2.19022E+04 -7.47762E+02 -1.99248E+04  6.83301E+03 -1.12884E+04  7.26580E+03 -6.98370E+03
  5.36253E+03 -3.50459E+03  4.78479E+03 -4.65918E+03  7.27790E+03 -4.74671E+03  1.02634E+04 -3.09508E+03
  1.39611E+04  2.80368E+03  7.61077E+03  1.16471E+04 -2.65672E+03  1.56651E+04 -1.48996E+04  1.18558E+04
 -1.95149E+04 -1.44371E+03 -1.33429E+04 -1.37228E+04 -2.28831E+03 -2.14737E+04  1.07217E+04 -2.10312E+04
  2.23159E+04 -1.08332E+04  2.59314E+04  3.43406E+03  1.74156E+04  1.86505E+04  2.33336E+03  2.29942E+04
 -8.55850E+03  1.83697E+04 -1.33343E+04  6.11488E+03 -9.59544E+03 -1.15030E+03 -3.65976E+03 -2.69853E+03
 -1.30467E+03 -9.43353E+02 -2.87852E+03  2.67396E+03 -8.81627E+03  3.03381E+03 -1.28581E+04 -2.28170E+03
 -9.98765E+03 -1.23467E+04  1.52558E+02 -1.91366E+04  1.13668E+04 -1.78155E+04  1.99446E+04 -6.23638E+03
  1.95816E+04  9.24889E+03  8.46837E+03  1.76001E+04 -3.71128E+03  2.09095E+04 -1.40327E+04  1.26475E+04
 -1.89561E+04 -4.49212E+02 -1.47072E+04 -1.29401E+04 -1.76210E+03 -1.78817E+04  9.39230E+03 -1.16699E+04
  1.29944E+04 -4.31205E+03  7.86787E+03  2.99740E+03  2.85933E+03  5.64085E+03  1.17783E+03  3.93831E+03
  3.17141E+03  1.75440E+03  4.18612E+03  1.49220E+03  6.26960E+03  6.98162E+03  5.38591E+03  1.07738E+04
 -3.29883E+03  1.60851E+04 -1.38605E+04  1.50997E+04 -2.15408E+04  4.46320E+03 -2.14882E+04 -9.58756E+03
 -1.00480E+04 -2.17140E+04  2.90138E+03 -2.24037E+04  1.20029E+04 -1.45435E+04  1.70003E+04 -3.01624E+03
  1.32234E+04  7.83151E+03  3.03384E+03  1.19709E+04 -5.62240E+03  7.56494E+03 -9.73261E+03 -1.25903E+03
 -4.27046E+03 -9.26662E+03  5.45090E+03 -9.43400E+03  8.77605E+03 -3.98567E+03  8.76197E+03  1.69002E+03
  4.39144E+03  4.63219E+03  1.76485E+03  3.98499E+03 -9.24819E+02  3.73258E+03  1.41384E+03 -1.25641E+03
  3.79649E+03 -9.84376E+02  7.83470E+03  4.16553E+03  5.96683E+03  9.74584E+03 -1.26014E+03  1.52887E+04
 -1.06421E+04  1.10788E+04 -1.35217E+04  3.09742E+03 -1.21709E+04 -4.15871E+03 -5.50605E+03 -9.10510E+03
  1.56682E+03 -9.82894E+03  5.34182E+03 -3.69248E+03  5.36219E+03  4.12977E+03 -1.74144E+03  7.38469E+03
 -9.24359E+03  4.88942E+03 -9.98675E+03 -4.41352E+03 -5.61842E+03 -1.14444E+04  1.91987E+03 -1.20561E+04
  7.97879E+03 -8.10243E+03  8.30182E+03 -2.05484E+03  7.39006E+03  3.44443E+03  1.16651E+03  6.53243E+03
 -4.99991E+03  3.05090E+03 -5.09769E+03 -5.36693E+03  2.57841E+03 -1.01352E+04  1.04845E+04 -7.64136E+03
  1.43301E+04  1.05955E+03  1.29384E+04  9.41830E+03  4.07900E+03  1.53659E+04 -4.72080E+03  1.40905E+04
 -1.21675E+04  5.23850E+03 -1.30435E+04 -2.73916E+03 -6.72432E+03 -8.17210E+03  3.11576E+03 -1.01114E+04
  8.34955E+03 -3.83781E+03  7.77500E+03  3.46559E+03  3.05865E+03  8.21578E+03 -1.34329E+03  7.27226E+03
 -3.93308E+03  4.01572E+03 -3.85822E+03  1.22867E+03 -2.21251E+03  7.58861E+02 -1.83316E+03  3.46419E+03
 -3.76023E+03  4.91259E+03 -1.02837E+04  5.10500E+03 -1.52717E+04  1.54936E+02 -1.63487E+04 -9.80950E+03
 -7.93512E+03 -2.05792E+04  4.13115E+03 -2.31143E+04  1.52701E+04 -1.71639E+04  2.15779E+04 -6.54914E+03
  2.08206E+04  4.32777E+03  1.20830E+04  1.29745E+04  8.73370E+02  1.58896E+04 -5.74674E+03  1.18074E+04
 -8.69112E+03  3.28167E+03 -4.79147E+03 -1.36737E+03 -1.84285E+03 -2.78566E+03 -3.08151E+02  8.95600E+02
 -3.00600E+03 -2.35326E+02 -3.33527E+03 -9.66531E+02 -1.26581E+03 -3.06778E+03  1.23515E+03 -5.79776E+03
  7.97550E+03 -4.90024E+03  1.06050E+04 -8.38921E+02  9.80130E+03  8.37206E+03  3.18760E+03  1.55529E+04
 -7.89648E+03  1.82255E+04 -1.80794E+04  9.81159E+03 -1.90735E+04 -1.56924E+03 -1.53711E+04 -1.34474E+04
 -4.89673E+03 -1.62679E+04  4.34563E+03 -1.51804E+04  1.00212E+04 -8.31587E+03  9.96984E+03  7.35113E+02
  5.64714E+03  6.34797E+03 -1.20683E+03  4.45366E+03 -3.19052E+03  1.10948E+02  7.72169E+02 -4.21181E+03
  4.52195E+03 -2.34292E+03  6.80519E+03  2.18856E+03  4.48855E+03  6.62691E+03  1.09662E+02  9.84779E+03
 -7.80443E+03  7.26211E+03 -1.10699E+04  7.56653E+02 -1.00779E+04 -9.01676E+03 -1.21610E+03 -1.32563E+04
  8.13843E+03 -1.16048E+04  1.29575E+04 -3.97273E+03  1.27213E+04  4.12323E+03  6.45731E+03  1.05195E+04
  2.14874E+03  1.09160E+04 -4.30636E+03  8.28617E+03 -6.96551E+03  3.87954E+03 -7.34105E+03  4.47056E+02
 -3.14794E+03 -1.52535E+03 -2.90687E+03  8.73082E+02 -5.62291E+03  1.37916E+03 -7.99056E+03 -3.81656E+02
 -8.15083E+03 -5.74904E+03 -2.73162E+03 -1.08980E+04  5.19983E+03 -1.13652E+04  9.11133E+03 -5.22805E+03
  1.07780E+04  4.96102E+02  6.32290E+03  8.47844E+03 -6.58839E+00  1.11942E+04 -8.32891E+03  7.65910E+03
