 $NMID ID='MM_0lb_SNR400_7hz_g50_35.RAW', FMTDAT='(8E13.5)'
 TRAMP=1., VOLUME=1. $END
  3.10153E+05  7.33647E+02  3.37391E+05  2.50518E+05  8.43508E+04  3.38411E+05 -1.32162E+05  2.51695E+05
 -1.90807E+05  8.36473E+04 -1.12596E+05 -3.31980E+04 -3.86083E+02 -5.01253E+04  5.33451E+04 -1.62913E+03
  3.60722E+04  5.23510E+04 -1.63761E+04  7.60841E+04 -6.14958E+04  6.45750E+04 -8.53020E+04  3.29731E+04
 -8.20350E+04 -1.19667E+04 -5.91483E+04 -5.19580E+04 -1.55382E+04 -7.05825E+04  2.94048E+04 -4.63884E+04
  4.15447E+04  3.18666E+03  1.67275E+04  4.84584E+04 -3.55708E+04  4.88695E+04 -6.82484E+04  1.28710E+02
 -5.54982E+04 -5.83821E+04 -7.15234E+03 -8.09965E+04  3.53592E+04 -5.78104E+04  5.00993E+04 -1.76235E+04
  4.57257E+04  1.14936E+04  3.39777E+04  2.73475E+04  1.65669E+04  3.05523E+04 -5.49817E+03  2.92044E+04
 -2.17659E+04  1.19506E+04 -1.75518E+04 -5.75248E+03  6.78268E+03 -7.82189E+03  2.42929E+04  1.40295E+04
  7.15528E+03  3.83912E+04 -3.43083E+04  3.83388E+04 -6.59365E+04  1.78253E+03 -5.94892E+04 -4.51350E+04
 -1.24677E+04 -6.69207E+04  4.30376E+04 -4.87797E+04  6.22357E+04 -2.57078E+03  3.66767E+04  3.50997E+04
 -5.53459E+03  4.04623E+04 -3.34870E+04  1.98409E+04 -3.47033E+04 -3.09772E+03 -2.05481E+04 -1.31124E+04
 -9.24231E+03 -1.62895E+04 -6.02972E+02 -1.99064E+04  8.47914E+03 -2.31161E+04  1.58573E+04 -1.24024E+04
  1.02226E+04  7.62462E+03 -1.17937E+04  1.30340E+04 -2.44593E+04 -7.92280E+03 -8.81052E+03 -3.91807E+04
  2.59062E+04 -4.84721E+04  5.42604E+04 -2.16537E+04  5.02376E+04  2.12506E+04  1.71347E+04  4.83636E+04
 -1.65767E+04  3.80539E+04 -2.79605E+04  2.82768E+03 -1.23844E+04 -2.94120E+04  2.17170E+04 -3.78726E+04
  4.66575E+04 -1.20210E+04  4.29697E+04  2.53096E+04  2.25147E+04  5.36640E+04 -9.01038E+03  5.83014E+04
 -3.72055E+04  4.05965E+04 -4.95419E+04  1.18335E+04 -5.04632E+04 -1.99398E+04 -2.65433E+04 -4.46020E+04
  7.71254E+03 -4.36170E+04  3.56257E+04 -1.84068E+04  3.38038E+04  1.08760E+04  5.23308E+03  2.09964E+04
 -1.37128E+04  1.08884E+04 -1.06847E+04 -7.40770E+03  6.72325E+03 -1.12647E+04  1.88901E+04  5.31310E+03
  1.57895E+04  2.22684E+04 -4.13338E+03  2.86182E+04 -2.43527E+04  1.52608E+04 -3.26750E+04 -1.96635E+03
 -2.73851E+04 -1.88922E+04 -1.26529E+04 -2.78833E+04  5.50587E+03 -2.84502E+04  2.23967E+04 -2.45511E+04
  3.44584E+04 -1.50840E+04  4.05723E+04  5.87033E+03  2.78515E+04  2.60893E+04  4.93623E+03  4.26253E+04
 -2.07944E+04  3.47289E+04 -3.20696E+04  1.30869E+04 -2.31967E+04 -1.04746E+04 -4.49348E+03 -1.20440E+04
 -2.08896E+01  4.57119E+02 -8.94455E+03  8.77565E+03 -2.11138E+04  5.61648E+03 -2.28665E+04 -1.04952E+04
 -1.25951E+04 -2.52605E+04  6.58715E+03 -3.01974E+04  1.92604E+04 -2.13337E+04  2.41170E+04 -4.08095E+02
  1.55432E+04  1.77593E+04 -9.31164E+02  2.49848E+04 -1.78429E+04  1.50275E+04 -2.54927E+04 -5.59706E+03
 -1.83762E+04 -2.18817E+04 -1.27456E+03 -3.04193E+04  1.34635E+04 -2.53125E+04  2.47074E+04 -1.41780E+04
  2.30432E+04 -6.25148E+02  1.64999E+04  5.68782E+03  9.30140E+03  2.11124E+03  1.32511E+04 -1.26821E+03
  2.40811E+04  2.28697E+03  2.80099E+04  1.98782E+04  1.98670E+04  4.13287E+04 -3.17717E+03  4.83487E+04
 -2.82632E+04  4.02472E+04 -4.63936E+04  2.10945E+04 -4.87742E+04 -3.67743E+03 -4.07540E+04 -2.98023E+04
 -1.58227E+04 -4.14252E+04  1.64553E+04 -3.61386E+04  3.06694E+04 -1.75621E+04  2.65920E+04  8.86942E+03
  8.72903E+03  2.03716E+04 -1.31499E+04  1.75238E+04 -2.21415E+04  3.65876E+03 -1.53895E+04 -1.42950E+04
 -3.49280E+02 -2.14101E+04  1.12630E+04 -1.55418E+04  1.46957E+04 -7.23459E+02  4.34377E+03  9.90526E+03
 -1.05164E+04  4.60270E+03 -1.01575E+04 -8.46058E+03 -2.51421E+03 -2.06126E+04  1.25603E+04 -2.34483E+04
  2.63303E+04 -1.37598E+04  3.00466E+04  3.49718E+03  2.69688E+04  2.08891E+04  1.25686E+04  3.33181E+04
 -6.95890E+03  3.55712E+04 -2.28989E+04  2.16646E+04 -2.58928E+04  4.14874E+03 -1.74886E+04 -7.54522E+03
 -7.53778E+03 -8.57111E+03 -1.00521E+03  1.00500E+02 -2.60424E+03  4.74106E+03 -8.43553E+03  6.01487E+03
 -1.59313E+04 -1.44061E+03 -1.63911E+04 -1.35594E+04 -7.14669E+03 -2.16356E+04  6.38031E+03 -1.68383E+04
  1.42034E+04 -7.39576E+03  9.89769E+03  4.85505E+03 -7.26219E+02  6.56425E+03 -8.47215E+03 -8.95054E+00
 -9.23818E+03 -1.16382E+04 -1.05360E+03 -1.78624E+04  1.13719E+04 -1.90654E+04  2.23438E+04 -1.04036E+04
  2.73168E+04  2.62530E+03  2.02265E+04  1.69330E+04  3.71090E+03  2.24346E+04 -1.14462E+04  1.67167E+04
 -1.40149E+04  4.57306E+03 -7.63044E+03 -4.56641E+03  1.80756E+03 -5.41792E+03  9.70261E+03 -3.55492E+02
  7.81836E+03  7.09856E+03  1.16520E+03  1.48897E+04 -1.06382E+04  1.28199E+04 -1.76380E+04  2.98877E+03
 -1.32541E+04 -9.25542E+03  6.33362E+02 -1.57868E+04  9.81138E+03 -7.89601E+03  9.98334E+03  2.77121E+03
  2.94068E+03  1.13182E+04 -9.68640E+03  1.36423E+04 -1.66007E+04  6.00403E+03 -1.65219E+04 -5.33057E+03
 -9.42680E+03 -1.85181E+04  4.77653E+03 -2.17860E+04  1.88685E+04 -1.25528E+04  2.02868E+04  2.33490E+03
  1.20408E+04  1.58225E+04 -2.56140E+03  1.88036E+04 -1.36150E+04  1.02368E+04 -1.45527E+04 -1.28005E+03
 -1.20966E+04 -1.24426E+04 -1.81327E+03 -1.38732E+04  7.30401E+03 -1.12931E+04  9.40689E+03 -3.65934E+03
  5.69545E+03  2.37765E+03 -1.55152E+03  2.52441E+03 -1.16841E+03 -3.90425E+03  3.16265E+03 -8.96774E+03
  1.35097E+04 -6.54289E+03  2.04534E+04  2.05553E+03  1.91176E+04  1.34230E+04  1.19613E+04  2.53484E+04
 -6.33327E+03  2.87869E+04 -2.35069E+04  2.11754E+04 -3.11449E+04  3.63265E+03 -2.51193E+04 -1.05192E+04
 -1.21574E+04 -2.04688E+04 -1.45880E+03 -1.77910E+04  5.90999E+03 -1.02385E+04  5.82836E+03 -6.94908E+03
  4.78676E+03 -3.83854E+03  4.11968E+03 -4.90359E+03  6.86005E+03 -4.22430E+03  9.89419E+03 -2.04262E+03
  1.26816E+04  3.30238E+03  8.11451E+03  1.16587E+04 -2.34728E+03  1.48327E+04 -1.34538E+04  1.03299E+04
 -1.80701E+04  3.83636E+02 -1.13814E+04 -1.23754E+04 -1.28693E+03 -2.02779E+04  1.02172E+04 -1.98754E+04
  2.01262E+04 -1.05364E+04  2.37201E+04  3.96282E+03  1.68486E+04  1.69397E+04  1.64654E+03  2.26078E+04
 -9.10520E+03  1.78590E+04 -1.27464E+04  5.91009E+03 -9.43465E+03 -2.16151E+03 -3.38080E+03 -3.14666E+03
 -1.55932E+03 -7.90763E+02 -2.60887E+03  2.20667E+03 -7.62481E+03  3.58799E+03 -1.24294E+04 -2.97127E+03
 -9.17670E+03 -1.22516E+04 -8.71788E+02 -1.84607E+04  1.10182E+04 -1.69059E+04  1.89326E+04 -5.27914E+03
  1.80011E+04  7.98547E+03  8.92263E+03  1.72097E+04 -2.83946E+03  1.83008E+04 -1.41835E+04  1.13921E+04
 -1.68999E+04  5.96924E+02 -1.33587E+04 -1.15315E+04 -1.96695E+03 -1.62388E+04  8.36527E+03 -1.15937E+04
  1.17175E+04 -3.85254E+03  8.51181E+03  2.77479E+03  3.29096E+03  5.22362E+03  1.52702E+03  2.22470E+03
  3.71007E+03  1.28865E+03  4.76101E+03  2.65897E+03  6.08928E+03  5.64777E+03  4.13764E+03  1.02267E+04
 -2.73946E+03  1.48483E+04 -1.36188E+04  1.49579E+04 -2.05547E+04  4.35194E+03 -2.00874E+04 -8.00419E+03
 -9.69340E+03 -1.93651E+04  2.65688E+03 -2.07764E+04  1.10897E+04 -1.47651E+04  1.52140E+04 -3.85247E+03
  1.24281E+04  7.11660E+03  2.83690E+03  1.16437E+04 -5.65040E+03  7.49711E+03 -8.77002E+03 -1.04440E+03
 -3.61353E+03 -8.49943E+03  4.15362E+03 -8.97167E+03  9.07788E+03 -3.71388E+03  8.00710E+03  1.21683E+03
  4.11807E+03  4.82095E+03  1.42277E+03  3.58843E+03 -1.01069E+03  3.46514E+03  1.38888E+03 -1.12104E+03
  3.38136E+03  4.63864E+02  7.89130E+03  3.92797E+03  5.72074E+03  1.03023E+04 -1.50181E+03  1.44953E+04
 -8.79354E+03  9.25108E+03 -1.16020E+04  2.60495E+03 -1.12449E+04 -4.35025E+03 -4.67801E+03 -7.88269E+03
  1.07732E+03 -8.69028E+03  5.21359E+03 -3.93247E+03  4.37779E+03  3.88357E+03 -1.79800E+03  6.34022E+03
 -8.33547E+03  4.09903E+03 -9.88824E+03 -4.61423E+03 -5.03995E+03 -1.08609E+04  1.53152E+03 -1.03896E+04
  7.33984E+03 -6.35443E+03  8.43407E+03 -1.14527E+03  5.94563E+03  2.88403E+03  1.18812E+03  6.16383E+03
 -3.54480E+03  2.54622E+03 -4.25860E+03 -3.67070E+03  7.56654E+02 -9.00838E+03  1.00252E+04 -6.65362E+03
  1.37575E+04  1.22613E+03  1.23076E+04  9.59884E+03  3.97892E+03  1.39567E+04 -5.07598E+03  1.29695E+04
 -1.06243E+04  5.55485E+03 -1.09696E+04 -1.16727E+03 -5.93190E+03 -8.63967E+03  2.08461E+03 -8.42739E+03
  7.82514E+03 -4.05737E+03  7.85981E+03  3.01856E+03  3.12983E+03  7.92677E+03 -1.60569E+03  6.65809E+03
 -3.79441E+03  3.60522E+03 -3.25216E+03  1.24695E+03 -1.87707E+03  1.72008E+03 -2.01704E+03  3.19711E+03
 -3.05218E+03  5.11780E+03 -9.16958E+03  4.76560E+03 -1.46525E+04  9.66194E+00 -1.48146E+04 -9.28810E+03
 -7.92831E+03 -1.88572E+04  3.52393E+03 -2.19183E+04  1.40366E+04 -1.65297E+04  2.00387E+04 -5.68187E+03
  1.90416E+04  4.05920E+03  1.15059E+04  1.24974E+04  1.97828E+03  1.51021E+04 -6.94084E+03  1.13527E+04
 -8.90576E+03  3.94081E+03 -3.53256E+03 -2.24339E+03 -1.76287E+03 -2.00125E+03 -8.90770E+02 -6.89028E+02
 -2.46374E+03  6.30311E+02 -3.35787E+03  1.25033E+01 -8.89076E+02 -3.35785E+03  7.94104E+02 -6.06919E+03
  7.14502E+03 -4.96211E+03  9.02667E+03 -3.00044E+02  1.11545E+04  7.88156E+03  1.91115E+03  1.57587E+04
 -7.07618E+03  1.68031E+04 -1.54807E+04  1.01633E+04 -1.86567E+04 -9.63203E+02 -1.40078E+04 -1.03060E+04
 -6.41338E+03 -1.49426E+04  3.92456E+03 -1.47201E+04  1.06443E+04 -7.53862E+03  1.05481E+04 -3.37503E+02
  5.80423E+03  5.86004E+03 -1.09856E+03  4.50951E+03 -2.01044E+03 -4.22264E+02  4.93615E+02 -3.30876E+03
  3.66970E+03 -3.42731E+03  6.81955E+03  1.70061E+03  4.20899E+03  7.01922E+03 -2.84746E+02  7.86784E+03
 -6.68263E+03  6.95045E+03 -1.06260E+04  8.79647E+02 -9.36684E+03 -6.67672E+03 -1.63166E+03 -1.25085E+04
  7.27600E+03 -1.14626E+04  1.19886E+04 -4.20409E+03  1.16992E+04  3.09154E+03  7.02161E+03  9.65371E+03
  1.90053E+03  9.74499E+03 -4.36165E+03  7.68524E+03 -6.30718E+03  4.17365E+03 -4.64642E+03  7.98804E+02
 -3.18956E+03 -6.80285E+02 -3.68385E+03  1.07350E+03 -4.86984E+03  2.20705E+03 -8.21629E+03 -1.48058E+03
 -7.95819E+03 -6.25749E+03 -2.67062E+03 -1.10434E+04  4.75124E+03 -1.09398E+04  9.82977E+03 -4.37185E+03
  1.14148E+04  1.44200E+03  5.56451E+03  7.81290E+03 -5.39736E+02  1.11147E+04 -7.88267E+03  7.14599E+03
