 $NMID ID='MM_0lb_SNR400_12hz_g40_70.RAW', FMTDAT='(8E13.5)'
 TRAMP=1., VOLUME=1. $END
  3.09332E+05  4.19689E+02  3.38046E+05  2.50348E+05  8.45814E+04  3.38264E+05 -1.32458E+05  2.50922E+05
 -1.90850E+05  8.24126E+04 -1.11691E+05 -3.27016E+04  1.48540E+03 -4.99854E+04  5.41219E+04  2.35286E+02
  3.49184E+04  5.28288E+04 -1.71595E+04  7.55105E+04 -6.11453E+04  6.39391E+04 -8.41868E+04  3.20912E+04
 -8.09830E+04 -1.14747E+04 -5.74428E+04 -5.17292E+04 -1.53361E+04 -6.99890E+04  2.78383E+04 -4.59580E+04
  3.99490E+04  3.28540E+03  1.63184E+04  4.80565E+04 -3.44831E+04  4.67877E+04 -6.70531E+04  3.70538E+01
 -5.30443E+04 -5.72341E+04 -6.81062E+03 -7.76050E+04  3.38766E+04 -5.54751E+04  4.86377E+04 -1.73678E+04
  4.40006E+04  1.11019E+04  3.24079E+04  2.57317E+04  1.57945E+04  2.91503E+04 -5.97303E+03  2.70515E+04
 -2.19141E+04  1.20130E+04 -1.84645E+04 -5.57469E+03  6.29632E+03 -7.15490E+03  2.24248E+04  1.24489E+04
  7.15179E+03  3.57379E+04 -3.22801E+04  3.56267E+04 -6.40800E+04  2.05878E+03 -5.73037E+04 -4.34803E+04
 -1.22859E+04 -6.38796E+04  4.04539E+04 -4.67251E+04  5.81660E+04 -2.27760E+03  3.44582E+04  3.28026E+04
 -5.72219E+03  3.70031E+04 -3.01578E+04  1.65832E+04 -3.07618E+04 -3.87092E+03 -1.69026E+04 -1.09940E+04
 -8.91168E+03 -1.42149E+04 -4.61759E+02 -1.84658E+04  7.78562E+03 -2.30342E+04  1.54148E+04 -1.34369E+04
  1.14429E+04  4.92622E+03 -8.28654E+03  1.43891E+04 -2.17595E+04 -4.82674E+03 -8.67063E+03 -3.43908E+04
  2.36678E+04 -4.46641E+04  4.93368E+04 -2.01609E+04  4.50526E+04  1.98821E+04  1.56161E+04  4.47796E+04
 -1.55627E+04  3.35023E+04 -2.55674E+04  1.75273E+03 -1.01116E+04 -2.86392E+04  2.13067E+04 -3.40172E+04
  4.22023E+04 -9.40312E+03  3.66884E+04  2.36442E+04  1.87849E+04  4.75951E+04 -8.33472E+03  5.16358E+04
 -3.25181E+04  3.49072E+04 -4.29113E+04  9.46279E+03 -4.36963E+04 -1.73678E+04 -2.40137E+04 -3.87377E+04
  6.69521E+03 -3.84884E+04  3.14643E+04 -1.48841E+04  3.03046E+04  1.07717E+04  4.65015E+03  1.88281E+04
 -1.37313E+04  8.12763E+03 -1.06850E+04 -7.46527E+03  6.33322E+03 -1.12227E+04  1.75703E+04  6.45424E+03
  1.29755E+04  2.22981E+04 -5.20745E+03  2.61449E+04 -2.21535E+04  1.26050E+04 -2.80692E+04 -4.42813E+03
 -2.20823E+04 -1.69776E+04 -9.22953E+03 -2.12769E+04  4.33429E+03 -2.10952E+04  1.64053E+04 -1.96508E+04
  2.70964E+04 -1.39806E+04  3.41742E+04  3.03970E+03  2.44390E+04  2.15117E+04  4.56826E+03  3.67381E+04
 -1.85961E+04  3.09518E+04 -2.78150E+04  1.06181E+04 -2.17222E+04 -1.01373E+04 -4.77679E+03 -1.33449E+04
  1.20916E+03 -3.01554E+03 -5.69981E+03  7.50348E+03 -1.72731E+04  5.06528E+03 -1.74835E+04 -7.63209E+03
 -1.04278E+04 -1.94654E+04  4.99982E+03 -2.40024E+04  1.60571E+04 -1.71331E+04  1.99784E+04 -1.67449E+03
  1.21223E+04  1.37644E+04 -6.77112E+02  1.99080E+04 -1.35153E+04  1.18750E+04 -1.99138E+04 -4.45262E+03
 -1.47191E+04 -1.78298E+04 -1.93965E+03 -2.41219E+04  1.09780E+04 -1.97837E+04  1.97903E+04 -1.07533E+04
  1.85526E+04 -1.24662E+02  1.36195E+04  4.82993E+03  7.62783E+03  1.25954E+03  9.76717E+03 -1.22980E+03
  1.84494E+04  2.84581E+03  2.04405E+04  1.54934E+04  1.33023E+04  3.18951E+04 -3.39067E+03  3.62827E+04
 -2.03376E+04  2.90581E+04 -3.36893E+04  1.42974E+04 -3.59055E+04 -2.56429E+03 -2.98280E+04 -2.03742E+04
 -1.33846E+04 -2.96759E+04  1.01272E+04 -2.64087E+04  2.26442E+04 -1.31935E+04  1.99725E+04  6.25915E+03
  7.32271E+03  1.54598E+04 -9.70602E+03  1.28091E+04 -1.69832E+04  3.28686E+03 -1.32711E+04 -1.03726E+04
 -2.99227E+02 -1.65070E+04  8.80355E+03 -1.19330E+04  1.13377E+04 -9.51223E+02  2.13296E+03  7.13214E+03
 -6.81849E+03  2.85855E+03 -6.25963E+03 -6.21540E+03 -8.73365E+02 -1.45058E+04  9.72814E+03 -1.54611E+04
  1.85807E+04 -8.07179E+03  1.93318E+04  2.74486E+03  1.71043E+04  1.46890E+04  8.20416E+03  2.27061E+04
 -4.45601E+03  2.40955E+04 -1.54565E+04  1.44125E+04 -1.73559E+04  2.92286E+03 -1.25587E+04 -4.19195E+03
 -5.11841E+03 -5.16529E+03 -3.24683E+02  1.23518E+03 -2.69251E+03  2.99680E+03 -5.40335E+03  5.06758E+03
 -1.22644E+04 -5.95008E+02 -1.28960E+04 -9.50355E+03 -4.95403E+03 -1.62177E+04  5.18438E+03 -1.19857E+04
  1.04389E+04 -5.25304E+03  6.67514E+03  3.02011E+03  6.47339E+02  5.73782E+03 -6.03526E+03 -4.13163E+02
 -5.39821E+03 -7.91073E+03 -1.26282E+03 -1.09271E+04  7.22301E+03 -1.27149E+04  1.54171E+04 -6.89483E+03
  1.82577E+04  1.48983E+03  1.36816E+04  9.55928E+03  2.60245E+03  1.41039E+04 -8.02470E+03  1.21344E+04
 -1.07184E+04  3.67876E+03 -5.31282E+03 -2.99230E+03  1.44013E+03 -3.10726E+03  6.19571E+03 -8.42947E+02
  5.56222E+03  5.13756E+03  1.59769E+03  1.00274E+04 -6.69920E+03  9.44330E+03 -1.19940E+04  2.30824E+03
 -8.14278E+03 -6.52011E+03  6.89254E+02 -1.06277E+04  6.54361E+03 -4.95739E+03  6.49289E+03  2.10222E+03
  1.30000E+03  7.07045E+03 -6.28702E+03  8.35323E+03 -9.79531E+03  4.08580E+03 -9.47979E+03 -3.23918E+03
 -5.70743E+03 -1.13503E+04  2.72671E+03 -1.29025E+04  1.08161E+04 -7.72863E+03  1.17106E+04  1.86588E+03
  7.79291E+03  9.01460E+03 -1.35081E+03  1.19000E+04 -8.57758E+03  6.66432E+03 -8.86755E+03 -1.46339E+03
 -8.86951E+03 -8.49632E+03 -1.91106E+03 -9.32513E+03  4.65419E+03 -7.32437E+03  5.51805E+03 -2.77583E+03
  4.20145E+03  1.21290E+03  2.33728E+01  6.23948E+02 -4.07262E+02 -1.71458E+03  1.61759E+03 -4.92265E+03
  7.88230E+03 -2.82507E+03  1.09534E+04  1.63782E+03  1.09071E+04  7.36053E+03  7.74906E+03  1.42024E+04
 -3.25577E+03  1.62852E+04 -1.36698E+04  1.31023E+04 -1.82745E+04  2.16840E+03 -1.46440E+04 -5.94160E+03
 -7.05684E+03 -1.14907E+04 -3.68518E+02 -1.00504E+04  3.79935E+03 -4.93658E+03  3.50621E+03 -3.94787E+03
  2.33639E+03 -2.24985E+03  3.18285E+03 -3.41610E+03  5.23331E+03 -2.73031E+03  5.60281E+03 -7.85618E+02
  7.33357E+03  2.29759E+03  3.91843E+03  5.80203E+03 -1.77760E+03  7.28614E+03 -8.15200E+03  5.56897E+03
 -9.19910E+03 -1.26731E+03 -5.78233E+03 -7.14688E+03 -7.79512E+02 -1.08578E+04  5.42592E+03 -1.06973E+04
  1.13740E+04 -5.76842E+03  1.33896E+04  1.57794E+03  8.95082E+03  8.76157E+03  1.37639E+03  1.23482E+04
 -4.81469E+03  1.03562E+04 -7.01526E+03  3.12287E+03 -4.42265E+03 -2.01168E+03 -1.95734E+03 -1.20238E+03
 -6.35182E+02 -2.44085E+01 -1.23923E+03  2.06890E+03 -3.94799E+03  2.00117E+03 -7.74761E+03 -4.98946E+02
 -4.58262E+03 -7.45179E+03  5.16173E+02 -9.93709E+03  5.42167E+03 -9.00313E+03  9.21824E+03 -2.23379E+03
  9.69438E+03  4.09115E+03  4.14539E+03  8.27546E+03 -1.16127E+03  1.06481E+04 -6.34553E+03  6.01936E+03
 -9.37373E+03  4.29205E+02 -6.46331E+03 -5.76933E+03 -3.53510E+02 -8.25564E+03  3.87417E+03 -6.80130E+03
  5.76771E+03 -1.46908E+03  4.70531E+03  1.04548E+03  1.89080E+03  3.17216E+03  1.96573E+03  1.68526E+03
  2.27036E+03  1.00851E+03  2.28163E+03  1.29363E+03  2.13240E+03  3.37722E+03  3.08422E+03  4.81393E+03
 -2.31939E+03  7.41910E+03 -6.21396E+03  8.02403E+03 -9.38392E+03  2.17442E+03 -9.31132E+03 -3.79299E+03
 -4.65316E+03 -8.96318E+03  8.58254E+02 -1.04481E+04  5.63626E+03 -6.30969E+03  8.26581E+03 -1.80656E+03
  5.71991E+03  3.62369E+03  1.84483E+03  5.29644E+03 -2.17732E+03  3.04829E+03 -3.71313E+03 -2.34061E+02
 -1.47600E+03 -3.71798E+03  2.77320E+03 -4.07424E+03  3.24799E+03 -2.04701E+03  3.28287E+03  1.07468E+03
  1.96308E+03  2.31444E+03  9.90660E+02  1.44985E+03 -1.08759E+03  2.32942E+03  1.93480E+03  2.60144E+02
  6.83404E+02 -5.39395E+02  4.11850E+03  1.69639E+03  2.49848E+03  5.83032E+03 -8.83008E+02  5.91220E+03
 -5.05256E+03  4.58332E+03 -5.88497E+03  9.14385E+02 -5.52989E+03 -2.51070E+03 -1.45189E+03 -2.98920E+03
  8.13065E+02 -3.32959E+03  2.62214E+03 -2.72861E+03  1.99130E+03  2.05294E+03 -1.49766E+03  3.07012E+03
 -3.82375E+03  1.90579E+03 -3.78898E+03 -1.97144E+03 -2.10964E+03 -5.09307E+03  2.44847E+02 -4.91824E+03
  2.08503E+03 -3.02993E+03  3.74094E+03  7.47528E+01  3.28202E+03  1.33057E+03  8.45836E+02  3.58373E+03
 -1.80631E+03  7.97293E+02 -2.55629E+03 -1.67150E+03  1.60077E+03 -3.58035E+03  4.74910E+03 -3.02831E+03
  4.97807E+03  5.67321E+02  5.84274E+03  4.21453E+03  1.31222E+03  5.97253E+03 -1.67678E+03  5.71920E+03
 -4.68656E+03  2.46873E+03 -4.82844E+03 -6.79835E+02 -2.33351E+03 -3.66931E+03  8.19602E+02 -2.90040E+03
  4.52638E+03 -1.64589E+03  2.64465E+03  1.39420E+03  1.35300E+03  3.32764E+03 -6.77574E+02  2.20217E+03
 -1.33507E+03  1.78510E+03 -8.21761E+02  3.43292E+01 -8.21577E+02  5.02988E+02 -1.26738E+03  8.82072E+02
 -1.72979E+03  1.72571E+03 -4.20966E+03  1.47123E+03 -5.43092E+03 -8.91782E+01 -6.89197E+03 -3.81192E+03
 -3.00100E+03 -7.53907E+03  1.31452E+03 -8.87481E+03  4.82333E+03 -7.26320E+03  8.04196E+03 -3.26776E+03
  7.79388E+03  1.45029E+03  4.93255E+03  5.46231E+03  3.10939E+02  4.97689E+03 -2.66606E+03  4.13731E+03
 -3.22165E+03  1.45469E+03 -2.50310E+03 -4.50238E+02 -5.39193E+02 -9.09789E+01 -3.83314E+02  3.38971E+02
 -1.23649E+03  2.90042E+02 -1.05121E+03 -2.57353E+02 -4.07388E+02 -1.50624E+03 -3.65718E+02 -1.86852E+03
  2.71457E+03 -2.06913E+03  2.96025E+03  4.37330E+02  3.96703E+03  3.49728E+03  8.16776E+02  5.72020E+03
 -2.53992E+03  7.37940E+03 -6.21501E+03  3.82645E+03 -7.25713E+03 -8.31262E+02 -5.01567E+03 -4.34422E+03
 -2.29116E+03 -5.14561E+03  1.51816E+03 -5.54079E+03  3.37873E+03 -2.36108E+03  3.59485E+03 -1.53717E+02
  2.69830E+03  1.91859E+03 -3.01587E+02  1.43252E+03 -1.78199E+03  7.61453E+01  8.65306E+01 -8.18874E+02
  1.86382E+03 -5.39685E+02  2.27877E+03  1.12902E+03  1.53308E+03  2.33363E+03  2.16741E+02  3.05164E+03
 -2.50937E+03  2.37218E+03 -3.47356E+03  5.25295E+02 -3.16560E+03 -2.38021E+03 -8.24820E+02 -5.01859E+03
  2.63743E+03 -3.67442E+03  4.07658E+03 -1.08187E+03  4.26690E+03  6.77251E+02  2.14523E+03  3.58527E+03
  1.01373E+03  3.68201E+03 -8.60910E+02  2.86811E+03 -2.50092E+03  1.83640E+03 -1.31379E+03 -1.49921E+02
 -1.53320E+03 -4.66348E+02 -8.48047E+02  7.02819E+02 -1.49029E+03  9.58199E+01 -2.68286E+03 -9.37046E+02
 -2.58614E+03 -1.53277E+03 -7.44139E+02 -3.73231E+03  1.95950E+03 -4.62689E+03  3.10654E+03 -1.60863E+03
  3.10250E+03  4.35342E+02  1.63899E+03  2.52252E+03  1.89204E+02  3.28772E+03 -2.30581E+03  2.44692E+03
