 $NMID ID='MM_0lb_SNR400_10hz_g60_19.RAW', FMTDAT='(8E13.5)'
 TRAMP=1., VOLUME=1. $END
  3.09757E+05  5.60990E+02  3.38221E+05  2.50542E+05  8.51048E+04  3.38061E+05 -1.32959E+05  2.52243E+05
 -1.91003E+05  8.42591E+04 -1.12212E+05 -3.19640E+04  3.29147E+02 -5.13759E+04  5.29053E+04 -3.95737E+01
  3.55265E+04  5.20627E+04 -1.63302E+04  7.57058E+04 -6.16579E+04  6.45740E+04 -8.52773E+04  3.25344E+04
 -8.29974E+04 -1.14735E+04 -5.81473E+04 -5.15041E+04 -1.47732E+04 -7.10262E+04  2.75416E+04 -4.72401E+04
  4.10787E+04  3.87334E+03  1.68206E+04  4.91701E+04 -3.48212E+04  4.84968E+04 -6.75939E+04 -4.56263E+02
 -5.45971E+04 -5.82523E+04 -6.53517E+03 -7.91211E+04  3.49249E+04 -5.66978E+04  4.98058E+04 -1.81998E+04
  4.62345E+04  1.19530E+04  3.20829E+04  2.64022E+04  1.63681E+04  3.04591E+04 -5.88279E+03  2.83287E+04
 -2.23077E+04  1.20781E+04 -1.81050E+04 -5.69300E+03  7.77702E+03 -7.30949E+03  2.40380E+04  1.34992E+04
  6.78923E+03  3.73230E+04 -3.37462E+04  3.72234E+04 -6.63828E+04  2.24440E+03 -5.84923E+04 -4.50341E+04
 -1.22593E+04 -6.57709E+04  4.12059E+04 -4.71676E+04  6.12611E+04 -2.35857E+03  3.71673E+04  3.44887E+04
 -5.02672E+03  3.95903E+04 -3.19515E+04  1.90351E+04 -3.31030E+04 -3.78463E+03 -1.90690E+04 -1.21271E+04
 -9.97065E+03 -1.55607E+04 -7.25638E+02 -1.91541E+04  8.43790E+03 -2.37192E+04  1.54689E+04 -1.21973E+04
  1.04034E+04  5.78740E+03 -1.09623E+04  1.24943E+04 -2.41194E+04 -7.19790E+03 -8.70127E+03 -3.78597E+04
  2.53757E+04 -4.77921E+04  5.19682E+04 -2.10099E+04  4.93852E+04  2.15126E+04  1.76141E+04  4.76998E+04
 -1.66321E+04  3.61583E+04 -2.86593E+04  2.71006E+03 -1.22237E+04 -2.86373E+04  2.17553E+04 -3.71578E+04
  4.49250E+04 -1.16134E+04  4.05900E+04  2.53731E+04  2.19876E+04  5.12744E+04 -8.13197E+03  5.62892E+04
 -3.64978E+04  3.81489E+04 -4.71264E+04  1.03792E+04 -4.71364E+04 -1.83582E+04 -2.62968E+04 -4.23789E+04
  8.02440E+03 -4.22582E+04  3.44096E+04 -1.62506E+04  3.20325E+04  1.07282E+04  4.31769E+03  2.13331E+04
 -1.39426E+04  1.01816E+04 -1.20092E+04 -8.23355E+03  6.04275E+03 -1.23072E+04  1.89376E+04  5.10793E+03
  1.52115E+04  2.23920E+04 -5.86259E+03  2.74749E+04 -2.34875E+04  1.44170E+04 -3.25294E+04 -2.83518E+03
 -2.52998E+04 -1.89005E+04 -1.20296E+04 -2.51581E+04  3.87574E+03 -2.48112E+04  1.97814E+04 -2.32329E+04
  3.21416E+04 -1.49872E+04  3.75643E+04  5.06323E+03  2.71764E+04  2.45535E+04  3.92588E+03  4.10320E+04
 -2.01151E+04  3.40369E+04 -3.10392E+04  1.18252E+04 -2.24444E+04 -1.04994E+04 -5.12044E+03 -1.34973E+04
  6.57688E+02 -2.29630E+03 -8.21861E+03  8.08559E+03 -2.05955E+04  5.55529E+03 -2.01915E+04 -9.79055E+03
 -1.16254E+04 -2.31244E+04  6.38936E+03 -2.79155E+04  1.94373E+04 -1.97743E+04  2.25927E+04 -1.08022E+03
  1.46024E+04  1.64679E+04 -2.11532E+03  2.36231E+04 -1.62600E+04  1.33029E+04 -2.36058E+04 -5.03319E+03
 -1.72500E+04 -2.07210E+04 -1.77837E+03 -2.78050E+04  1.24209E+04 -2.37150E+04  2.29411E+04 -1.14228E+04
  2.20062E+04 -8.36982E+02  1.62927E+04  5.50666E+03  9.36750E+03  1.12356E+03  1.19811E+04 -2.43053E+03
  2.21882E+04  2.67716E+03  2.52090E+04  1.78536E+04  1.80101E+04  3.80490E+04 -2.57361E+03  4.48509E+04
 -2.52634E+04  3.60522E+04 -4.13961E+04  1.90980E+04 -4.43112E+04 -3.62210E+03 -3.64956E+04 -2.56050E+04
 -1.39565E+04 -3.73083E+04  1.41170E+04 -3.22295E+04  2.84379E+04 -1.55576E+04  2.38453E+04  8.44200E+03
  7.97779E+03  1.82896E+04 -1.17221E+04  1.65238E+04 -2.03967E+04  2.75987E+03 -1.51009E+04 -1.27436E+04
 -5.72449E+02 -1.88279E+04  1.17140E+04 -1.39918E+04  1.41692E+04 -1.23947E+03  2.90194E+03  9.19845E+03
 -8.95508E+03  4.94622E+03 -8.67429E+03 -6.70784E+03 -1.98163E+03 -1.79219E+04  1.21174E+04 -1.96332E+04
  2.31389E+04 -1.07249E+04  2.64112E+04  3.12242E+03  2.20283E+04  1.82466E+04  1.01859E+04  2.91082E+04
 -6.18941E+03  3.09512E+04 -2.05294E+04  1.89242E+04 -2.22499E+04  3.86636E+03 -1.54318E+04 -6.01633E+03
 -7.00590E+03 -7.18027E+03 -3.31169E+02  5.48472E+02 -3.36040E+03  2.91091E+03 -7.54490E+03  5.83073E+03
 -1.33480E+04 -1.14401E+03 -1.45678E+04 -1.15494E+04 -6.77164E+03 -2.00478E+04  6.84801E+03 -1.58065E+04
  1.30244E+04 -6.19443E+03  1.00133E+04  4.33446E+03 -4.54452E+02  6.41289E+03 -7.87124E+03 -4.28632E+02
 -7.25320E+03 -1.02224E+04 -1.16920E+03 -1.48797E+04  9.24045E+03 -1.64260E+04  1.96985E+04 -8.18590E+03
  2.33648E+04  2.65638E+03  1.69147E+04  1.37582E+04  4.22187E+03  1.86555E+04 -9.42108E+03  1.52648E+04
 -1.28526E+04  4.68535E+03 -6.76598E+03 -3.50655E+03  2.32108E+03 -3.98695E+03  8.12278E+03 -1.35335E+03
  7.48991E+03  6.32134E+03  1.05330E+03  1.22323E+04 -8.92364E+03  1.27044E+04 -1.53542E+04  2.09453E+03
 -1.10728E+04 -7.95455E+03 -3.23185E+02 -1.33797E+04  8.94302E+03 -7.13408E+03  9.13593E+03  3.66884E+03
  2.45058E+03  1.00953E+04 -8.86353E+03  1.24335E+04 -1.37594E+04  5.02782E+03 -1.32212E+04 -5.10802E+03
 -7.76666E+03 -1.57173E+04  3.63903E+03 -1.82160E+04  1.52878E+04 -1.10664E+04  1.65592E+04  3.53516E+03
  9.54729E+03  1.35507E+04 -1.68814E+03  1.47419E+04 -1.12322E+04  9.09520E+03 -1.26597E+04 -1.35504E+03
 -1.03612E+04 -9.65058E+03 -1.99267E+03 -1.23128E+04  6.06843E+03 -9.15516E+03  7.74137E+03 -3.66472E+03
  5.53363E+03  1.99651E+03 -1.74185E+03  2.02554E+03 -1.17603E+03 -3.92846E+03  2.71463E+03 -6.88961E+03
  1.19165E+04 -4.66462E+03  1.65754E+04  1.06175E+03  1.58085E+04  1.08894E+04  9.75600E+03  2.01592E+04
 -4.84363E+03  2.35779E+04 -1.97854E+04  1.75224E+04 -2.59365E+04  2.26474E+03 -2.03508E+04 -8.94625E+03
 -1.02495E+04 -1.71145E+04 -5.00825E+02 -1.44747E+04  5.99688E+03 -7.79727E+03  4.95136E+03 -5.35388E+03
  3.65658E+03 -3.18942E+03  3.85158E+03 -3.99141E+03  5.53563E+03 -3.84423E+03  7.70221E+03 -1.72295E+03
  1.03404E+04  2.61962E+03  5.09863E+03  8.88620E+03 -2.77310E+03  1.16216E+04 -1.11037E+04  8.16422E+03
 -1.42214E+04 -5.94761E+02 -8.93327E+03 -1.02187E+04 -1.64933E+03 -1.48600E+04  8.34176E+03 -1.60457E+04
  1.60272E+04 -8.55460E+03  1.94092E+04  2.20766E+03  1.36726E+04  1.31719E+04  1.28505E+03  1.74473E+04
 -7.98434E+03  1.42954E+04 -9.71717E+03  5.52606E+03 -6.48124E+03 -1.21144E+03 -3.16924E+03 -2.40053E+03
 -1.52049E+03  6.68019E+02 -2.53053E+03  2.37084E+03 -5.19253E+03  1.61358E+03 -1.02383E+04 -2.23557E+03
 -7.85570E+03 -9.84411E+03 -5.31937E+02 -1.41403E+04  8.77705E+03 -1.31259E+04  1.48918E+04 -3.61517E+03
  1.39476E+04  6.66473E+03  5.96164E+03  1.22094E+04 -3.31640E+03  1.35791E+04 -1.06285E+04  8.98862E+03
 -1.26598E+04  1.36850E+03 -1.03846E+04 -8.24493E+03 -7.85721E+02 -1.18457E+04  5.82938E+03 -8.90155E+03
  9.10165E+03 -2.35483E+03  6.24296E+03  2.08456E+03  2.33649E+03  4.81924E+03  1.70548E+03  2.48197E+03
  2.89743E+03  7.62779E+02  3.26617E+03  2.72859E+03  4.18723E+03  5.05649E+03  3.43449E+03  7.77566E+03
 -3.39210E+03  1.11573E+04 -9.77979E+03  1.03476E+04 -1.45413E+04  2.63857E+03 -1.44195E+04 -5.58628E+03
 -7.50727E+03 -1.51438E+04  1.93767E+03 -1.58923E+04  9.25217E+03 -1.07395E+04  1.18545E+04 -2.37452E+03
  9.54840E+03  4.86437E+03  2.13194E+03  8.67741E+03 -3.89086E+03  5.32969E+03 -6.17288E+03 -7.96388E+02
 -2.79892E+03 -6.95402E+03  3.57451E+03 -6.64667E+03  6.17779E+03 -2.92042E+03  5.45330E+03  1.52206E+03
  2.98508E+03  2.88496E+03  1.21113E+03  2.83321E+03 -6.63781E+02  1.94802E+03  9.82938E+02 -3.39662E+02
  1.95702E+03 -8.26638E+02  5.95596E+03  2.36588E+03  3.40638E+03  8.11062E+03 -1.06987E+03  9.89305E+03
 -6.99247E+03  7.13530E+03 -9.57334E+03  1.52996E+03 -7.68208E+03 -2.95634E+03 -2.59703E+03 -6.12764E+03
  1.33408E+03 -5.86954E+03  4.17488E+03 -2.02712E+03  4.33712E+03  3.74238E+03 -8.58140E+02  4.96372E+03
 -5.65686E+03  3.20053E+03 -6.06337E+03 -3.06010E+03 -3.94609E+03 -7.51259E+03  1.35192E+03 -8.23224E+03
  4.07431E+03 -4.51086E+03  5.90255E+03 -8.44791E+02  4.86584E+03  1.74510E+03  6.04903E+02  4.40014E+03
 -2.55745E+03  1.19189E+03 -4.04821E+03 -2.05112E+03  1.23728E+03 -6.67692E+03  7.52157E+03 -5.23391E+03
  8.52483E+03  3.98557E+02  8.32714E+03  5.94688E+03  2.71517E+03  9.88838E+03 -2.58806E+03  9.08734E+03
 -7.58488E+03  3.66639E+03 -8.10483E+03 -4.22863E+02 -4.34905E+03 -5.75452E+03  1.99254E+03 -5.48923E+03
  5.94725E+03 -3.21740E+03  4.82951E+03  2.29854E+03  1.36189E+03  4.20893E+03 -1.88457E+03  5.10512E+03
 -2.29116E+03  3.05847E+03 -1.85451E+03  8.13225E+02 -1.29059E+03  1.87350E+03 -1.92477E+03  1.75045E+03
 -1.97744E+03  4.15131E+03 -5.95345E+03  2.81614E+03 -9.07144E+03 -1.32679E+02 -1.06345E+04 -6.26149E+03
 -5.12984E+03 -1.24483E+04  2.69669E+03 -1.42309E+04  8.50254E+03 -1.14324E+04  1.26386E+04 -4.60118E+03
  1.19365E+04  2.23791E+03  8.13681E+03  8.81595E+03 -9.60077E+01  9.33911E+03 -3.48053E+03  7.19231E+03
 -5.95316E+03  2.84392E+03 -3.26571E+03 -1.73479E+03 -9.43520E+02 -7.60616E+02  2.03490E+02 -3.37641E+02
 -2.20889E+03  5.64988E+01 -2.74008E+03 -1.13982E+03  6.01960E+01 -2.63714E+03 -6.86149E+01 -2.89104E+03
  3.99796E+03 -2.78029E+03  5.53460E+03  1.97374E+01  7.55735E+03  5.64109E+03  1.11139E+03  9.12466E+03
 -4.17774E+03  1.09610E+04 -1.01859E+04  6.72152E+03 -1.16261E+04 -1.26253E+03 -8.56158E+03 -6.69231E+03
 -3.15224E+03 -8.84852E+03  2.65102E+03 -8.88849E+03  5.76860E+03 -4.97410E+03  6.23197E+03  9.27041E+02
  4.18356E+03  3.26247E+03 -1.94570E+02  3.00160E+03 -2.19342E+03  2.86526E+01  2.19723E+02 -1.75975E+03
  2.45845E+03 -1.87222E+03  3.11839E+03  1.93282E+03  2.29632E+03  3.29561E+03 -4.08293E+02  4.99149E+03
 -4.01081E+03  4.03850E+03 -6.22131E+03  1.03025E+03 -5.56928E+03 -3.60124E+03 -1.32727E+03 -7.96858E+03
  4.83096E+03 -6.70926E+03  7.25071E+03 -2.19986E+03  7.86105E+03  2.23473E+03  3.48223E+03  5.17806E+03
  7.80668E+02  6.18930E+03 -2.74778E+03  3.83702E+03 -3.74810E+03  3.20606E+03 -3.05452E+03  3.10837E+02
 -1.67898E+03 -1.56025E+02 -2.35201E+03  9.66145E+02 -3.21719E+03  1.37270E+03 -4.58111E+03 -1.18743E+03
 -4.24897E+03 -3.15903E+03 -1.86404E+03 -5.45606E+03  3.48184E+03 -6.31489E+03  5.23020E+03 -2.68735E+03
  5.82589E+03  6.92433E+02  3.15391E+03  4.02184E+03 -1.14417E+02  6.42239E+03 -4.57145E+03  4.91424E+03
