 $NMID ID='MM_0lb_SNR400_11hz_g45_85.RAW', FMTDAT='(8E13.5)'
 TRAMP=1., VOLUME=1. $END
  3.09839E+05  6.95895E+02  3.37839E+05  2.50339E+05  8.39771E+04  3.38344E+05 -1.32800E+05  2.51430E+05
 -1.90699E+05  8.36326E+04 -1.12295E+05 -3.22211E+04  1.29540E+03 -5.05926E+04  5.44471E+04 -2.91742E+02
  3.55177E+04  5.37412E+04 -1.71636E+04  7.60629E+04 -6.04708E+04  6.35470E+04 -8.48956E+04  3.29479E+04
 -8.18152E+04 -1.15267E+04 -5.81554E+04 -5.16383E+04 -1.49256E+04 -7.01202E+04  2.80183E+04 -4.63717E+04
  4.10642E+04  3.35807E+03  1.67097E+04  4.83324E+04 -3.39125E+04  4.81046E+04 -6.79113E+04 -3.82852E+02
 -5.40097E+04 -5.72862E+04 -7.04503E+03 -7.83495E+04  3.45413E+04 -5.60692E+04  4.87770E+04 -1.77895E+04
  4.38464E+04  1.18660E+04  3.21769E+04  2.54340E+04  1.59649E+04  3.01801E+04 -5.98012E+03  2.74844E+04
 -2.21903E+04  1.20767E+04 -1.89737E+04 -5.42512E+03  6.58119E+03 -7.49631E+03  2.28170E+04  1.34009E+04
  6.98574E+03  3.66694E+04 -3.30998E+04  3.67672E+04 -6.52568E+04  2.46596E+03 -5.82039E+04 -4.29219E+04
 -1.26971E+04 -6.50882E+04  4.02156E+04 -4.58080E+04  5.95967E+04 -1.99040E+03  3.58908E+04  3.36222E+04
 -5.68366E+03  3.75022E+04 -2.99478E+04  1.71263E+04 -3.25522E+04 -3.46884E+03 -1.83513E+04 -1.15887E+04
 -9.02298E+03 -1.31191E+04 -9.32144E+02 -1.82889E+04  7.34126E+03 -2.32266E+04  1.58424E+04 -1.25018E+04
  1.18071E+04  5.76809E+03 -8.70930E+03  1.31463E+04 -2.17620E+04 -5.56040E+03 -8.51654E+03 -3.60272E+04
  2.36142E+04 -4.50655E+04  5.00782E+04 -2.09836E+04  4.63239E+04  2.00686E+04  1.59839E+04  4.56866E+04
 -1.61641E+04  3.54145E+04 -2.65682E+04  2.60249E+03 -1.06022E+04 -2.83786E+04  2.12978E+04 -3.54391E+04
  4.33824E+04 -1.00241E+04  3.76938E+04  2.38754E+04  1.95908E+04  4.82219E+04 -8.42466E+03  5.35507E+04
 -3.41658E+04  3.59268E+04 -4.46091E+04  1.15464E+04 -4.53033E+04 -1.74173E+04 -2.48781E+04 -3.90536E+04
  6.99559E+03 -3.98441E+04  3.28818E+04 -1.55172E+04  3.04885E+04  1.09363E+04  4.49407E+03  2.00079E+04
 -1.36680E+04  9.19953E+03 -1.05326E+04 -7.59250E+03  5.35677E+03 -1.13684E+04  1.87388E+04  5.55022E+03
  1.44816E+04  2.31511E+04 -5.00748E+03  2.62720E+04 -2.31675E+04  1.30562E+04 -2.99846E+04 -4.24212E+03
 -2.27193E+04 -1.72840E+04 -1.01244E+04 -2.24121E+04  4.39980E+03 -2.24784E+04  1.82831E+04 -2.06680E+04
  2.99466E+04 -1.26583E+04  3.56388E+04  3.57835E+03  2.57455E+04  2.18593E+04  3.86050E+03  3.82753E+04
 -1.89593E+04  3.15209E+04 -2.94586E+04  1.11046E+04 -2.18370E+04 -1.05879E+04 -4.99233E+03 -1.30509E+04
  1.51790E+03 -1.71073E+03 -6.66505E+03  7.57307E+03 -1.78553E+04  5.05382E+03 -1.80821E+04 -8.14965E+03
 -1.10332E+04 -2.12698E+04  5.72777E+03 -2.59875E+04  1.71333E+04 -1.81743E+04  1.97723E+04 -1.36991E+03
  1.35291E+04  1.47932E+04 -1.44257E+03  2.13107E+04 -1.50512E+04  1.21211E+04 -2.16200E+04 -4.70216E+03
 -1.54835E+04 -1.86314E+04 -1.61659E+03 -2.53829E+04  1.09248E+04 -2.10486E+04  2.11842E+04 -1.09331E+04
  2.01948E+04 -2.38163E+02  1.43283E+04  4.87540E+03  7.93112E+03  9.35634E+02  1.04352E+04 -2.09838E+03
  1.98599E+04  3.06306E+03  2.16441E+04  1.74464E+04  1.55271E+04  3.46895E+04 -3.52352E+03  3.87893E+04
 -2.29432E+04  3.18947E+04 -3.63283E+04  1.60633E+04 -3.90325E+04 -2.80166E+03 -3.18477E+04 -2.23123E+04
 -1.37534E+04 -3.29061E+04  1.13124E+04 -2.92817E+04  2.38808E+04 -1.35127E+04  2.20226E+04  6.33151E+03
  7.91950E+03  1.69797E+04 -1.00988E+04  1.39752E+04 -1.80199E+04  2.56111E+03 -1.41974E+04 -1.18013E+04
  2.47799E+02 -1.72715E+04  9.04283E+03 -1.26826E+04  1.19614E+04 -1.23442E+03  3.05472E+03  7.39270E+03
 -8.06204E+03  3.22207E+03 -7.52156E+03 -6.20853E+03 -1.12621E+03 -1.65184E+04  1.00933E+04 -1.64380E+04
  2.01784E+04 -8.73909E+03  2.23399E+04  3.74081E+03  1.95177E+04  1.58670E+04  8.57491E+03  2.46639E+04
 -3.67854E+03  2.68649E+04 -1.72537E+04  1.61658E+04 -1.90683E+04  3.33878E+03 -1.28074E+04 -4.56443E+03
 -5.72190E+03 -5.62712E+03 -8.26215E+02  7.79367E+02 -2.67959E+03  2.49482E+03 -6.62983E+03  4.58359E+03
 -1.22569E+04 -1.49294E+03 -1.36792E+04 -1.03800E+04 -5.18073E+03 -1.75106E+04  5.62446E+03 -1.31006E+04
  1.14947E+04 -5.25904E+03  7.41588E+03  4.12226E+03 -2.42670E+02  5.07908E+03 -6.52909E+03 -3.61858E+02
 -6.95915E+03 -8.94620E+03 -1.07436E+03 -1.22678E+04  8.53275E+03 -1.41473E+04  1.66898E+04 -7.42007E+03
  2.05194E+04  2.11453E+03  1.48872E+04  1.22559E+04  2.74969E+03  1.64996E+04 -8.53515E+03  1.27006E+04
 -1.02619E+04  3.46817E+03 -5.71683E+03 -2.30396E+03  2.38263E+03 -3.15436E+03  7.49567E+03 -1.00381E+03
  6.84130E+03  6.11812E+03  1.13114E+03  1.06354E+04 -7.15993E+03  1.05291E+04 -1.39816E+04  2.57244E+03
 -8.56340E+03 -6.05587E+03  5.80669E+02 -1.11069E+04  7.77739E+03 -6.24361E+03  7.92195E+03  3.31956E+03
  2.06508E+03  8.08682E+03 -6.49651E+03  1.00043E+04 -1.03876E+04  3.71025E+03 -1.15748E+04 -4.16020E+03
 -6.68148E+03 -1.31214E+04  3.17114E+03 -1.49222E+04  1.25863E+04 -8.82694E+03  1.36651E+04  1.62715E+03
  7.98740E+03  1.05275E+04 -6.92447E+02  1.24050E+04 -9.18186E+03  6.64337E+03 -1.05138E+04 -1.33441E+03
 -9.01045E+03 -8.80878E+03 -1.59184E+03 -9.49700E+03  5.27493E+03 -7.40919E+03  5.98641E+03 -2.78496E+03
  4.30528E+03  1.46755E+03 -6.45854E+02  1.67608E+03 -1.43830E+01 -1.49017E+03  1.67316E+03 -5.93739E+03
  9.49159E+03 -3.33537E+03  1.28347E+04  1.81446E+03  1.25144E+04  8.81346E+03  8.45813E+03  1.64623E+04
 -3.73677E+03  1.89469E+04 -1.60352E+04  1.45351E+04 -2.05510E+04  2.91035E+03 -1.65440E+04 -7.33234E+03
 -8.59683E+03 -1.31982E+04 -1.72259E+02 -1.16155E+04  3.46959E+03 -6.55296E+03  3.61007E+03 -3.59957E+03
  2.92721E+03 -2.23271E+03  3.74510E+03 -2.91142E+03  4.43336E+03 -3.89899E+03  6.59060E+03 -1.22951E+03
  9.00491E+03  2.46960E+03  4.26154E+03  6.95326E+03 -1.93989E+03  8.51767E+03 -8.56551E+03  5.93653E+03
 -1.11936E+04 -4.84135E+02 -7.41745E+03 -7.89374E+03 -1.93915E+02 -1.22776E+04  6.83777E+03 -1.21365E+04
  1.22656E+04 -7.20558E+03  1.52340E+04  1.77056E+03  1.06046E+04  1.05612E+04  1.79043E+03  1.41463E+04
 -5.27211E+03  1.16185E+04 -7.89087E+03  4.15756E+03 -5.17308E+03 -1.44956E+03 -2.35601E+03 -1.27711E+03
 -1.37946E+03 -1.14514E+03 -1.94131E+03  2.52116E+03 -4.47990E+03  2.13419E+03 -7.66382E+03 -7.11415E+02
 -6.11387E+03 -7.84444E+03  4.05415E+01 -1.18365E+04  6.27877E+03 -1.02761E+04  1.08493E+04 -3.37082E+03
  1.06351E+04  5.87326E+03  5.46327E+03  1.00862E+04 -1.51994E+03  1.09383E+04 -8.10909E+03  7.48405E+03
 -1.11596E+04  1.05611E+03 -8.04239E+03 -6.81833E+03 -5.21664E+02 -8.92479E+03  4.84146E+03 -7.13080E+03
  7.30957E+03 -2.43573E+03  4.91401E+03  1.88332E+03  1.53396E+03  3.85140E+03  1.03647E+03  2.10545E+03
  2.02198E+03  9.19644E+02  2.38215E+03  2.50851E+03  2.77883E+03  4.32632E+03  2.60364E+03  5.70768E+03
 -2.12107E+03  8.26961E+03 -7.43154E+03  9.09178E+03 -1.05072E+04  2.46048E+03 -1.20091E+04 -5.04051E+03
 -5.88880E+03 -1.05056E+04  2.21591E+03 -1.22998E+04  6.95047E+03 -7.89112E+03  9.85338E+03 -2.21693E+03
  6.96377E+03  4.88690E+03  1.75651E+03  6.10969E+03 -2.68880E+03  4.19223E+03 -5.09585E+03 -6.22610E+02
 -2.27984E+03 -5.14103E+03  3.08258E+03 -5.13592E+03  4.68264E+03 -2.24204E+03  4.37452E+03  7.08413E+02
  2.97860E+03  1.86630E+03  1.11847E+03  1.23342E+03 -1.36537E+03  2.29393E+03  1.79585E+03  6.06967E+02
  2.07137E+03 -6.08926E+02  4.72235E+03  2.41299E+03  1.97194E+03  5.52558E+03 -1.01082E+03  7.67322E+03
 -5.20613E+03  4.85479E+03 -6.40257E+03  1.78181E+03 -6.08551E+03 -2.45248E+03 -2.67134E+03 -3.88786E+03
  1.27394E+03 -4.38087E+03  2.73146E+03 -2.18247E+03  1.90378E+03  2.36782E+03 -1.41019E+03  3.58670E+03
 -5.25181E+03  2.57468E+03 -4.31349E+03 -2.34658E+03 -2.55427E+03 -5.82792E+03  1.27431E+03 -6.32050E+03
  3.10310E+03 -3.03360E+03  4.05834E+03  1.45548E+02  3.48798E+03  1.07619E+03  2.14989E+02  3.35139E+03
 -2.09522E+03  9.56739E+02 -3.30668E+03 -2.43329E+03  1.11703E+03 -4.66761E+03  5.22938E+03 -3.41304E+03
  6.62258E+03  3.36007E+02  7.04596E+03  4.44809E+03  1.61360E+03  6.71464E+03 -2.21966E+03  6.10698E+03
 -5.83451E+03  2.03749E+03 -5.45671E+03 -5.79418E+02 -2.69917E+03 -4.38784E+03  6.96963E+02 -4.73304E+03
  4.18805E+03 -2.44698E+03  3.89591E+03  1.30911E+03  9.61689E+02  4.40524E+03 -6.10959E+02  4.12051E+03
 -1.74594E+03  2.26347E+03 -1.25426E+03  8.09639E+02 -1.16878E+03  9.57515E+02 -7.77594E+02  1.35138E+03
 -1.53958E+03  2.84186E+03 -4.96359E+03  2.36091E+03 -6.92736E+03  3.87246E+02 -7.81587E+03 -4.17734E+03
 -4.07369E+03 -9.15334E+03  2.30062E+03 -1.02391E+04  7.18666E+03 -7.93766E+03  1.02627E+04 -3.14750E+03
  8.68832E+03  1.85585E+03  5.41085E+03  5.73484E+03  2.88830E+01  6.53541E+03 -3.24028E+03  4.77197E+03
 -3.68884E+03  3.03252E+03 -2.45625E+03 -1.24977E+03 -1.07251E+03  1.79064E+02 -8.38736E+02  3.29576E+02
 -1.58568E+03  4.18410E+02 -9.06058E+02  2.44334E+02 -6.79962E+02 -2.25175E+03  1.20467E+02 -1.99476E+03
  3.38786E+03 -2.18018E+03  4.74156E+03 -3.14743E+02  5.35936E+03  3.69760E+03  7.35730E+02  7.34213E+03
 -3.07872E+03  8.48961E+03 -7.66992E+03  4.61173E+03 -8.72007E+03 -4.18291E+02 -6.14112E+03 -5.19683E+03
 -3.10956E+03 -6.92343E+03  1.64553E+03 -6.00887E+03  4.56889E+03 -3.47349E+03  4.86295E+03  9.95550E+02
  2.19347E+03  2.89095E+03 -6.73983E+02  1.93639E+03 -1.37274E+03 -1.11681E+02  1.37068E+02 -1.58626E+03
  2.64393E+03 -1.33526E+03  2.81349E+03  1.51161E+03  2.51224E+03  3.29601E+03  2.01029E+02  4.24180E+03
 -3.33064E+03  2.89601E+03 -4.08886E+03  4.48757E+02 -3.72421E+03 -3.16930E+03 -1.00890E+03 -5.94325E+03
  3.55290E+03 -5.18114E+03  5.61428E+03 -7.19471E+02  5.37824E+03 -5.08491E+02  2.80088E+03  4.10363E+03
  1.11451E+03  3.82908E+03 -1.38693E+03  3.47790E+03 -2.92247E+03  2.17679E+03 -2.72863E+03  6.84475E+02
 -6.31118E+02 -6.91783E+02 -1.47680E+03  6.83362E+01 -2.36185E+03  2.00519E+02 -3.68671E+03 -6.15875E+02
 -4.01367E+03 -2.27935E+03 -7.01995E+02 -4.63113E+03  2.08011E+03 -5.42869E+03  3.66578E+03 -2.31726E+03
  4.58501E+03  5.97006E+01  2.40184E+03  3.08476E+03 -1.11146E+02  4.59761E+03 -3.22983E+03  3.67820E+03
