 $NMID ID='MM_0lb_SNR400_13hz_g55_99.RAW', FMTDAT='(8E13.5)'
 TRAMP=1., VOLUME=1. $END
  3.09564E+05  5.52365E+02  3.37614E+05  2.51248E+05  8.50249E+04  3.37968E+05 -1.32292E+05  2.50690E+05
 -1.90575E+05  8.34806E+04 -1.12313E+05 -3.25082E+04  2.17506E+02 -5.05402E+04  5.38386E+04 -4.22160E+02
  3.51229E+04  5.27249E+04 -1.70296E+04  7.59222E+04 -6.10949E+04  6.37872E+04 -8.43938E+04  3.17497E+04
 -8.17495E+04 -1.11716E+04 -5.74671E+04 -5.15329E+04 -1.51729E+04 -7.05741E+04  2.78107E+04 -4.68007E+04
  4.02142E+04  4.04562E+03  1.62082E+04  4.74668E+04 -3.46893E+04  4.73240E+04 -6.76941E+04 -4.36440E+02
 -5.43979E+04 -5.67253E+04 -7.01676E+03 -7.78048E+04  3.45580E+04 -5.48556E+04  4.92865E+04 -1.77002E+04
  4.38963E+04  1.21919E+04  3.18248E+04  2.52546E+04  1.58042E+04  3.00480E+04 -4.71539E+03  2.73992E+04
 -2.21781E+04  1.23149E+04 -1.84401E+04 -5.38690E+03  6.23254E+03 -7.58369E+03  2.29959E+04  1.36522E+04
  6.94796E+03  3.67168E+04 -3.32513E+04  3.62455E+04 -6.42566E+04  3.17927E+03 -5.78735E+04 -4.34893E+04
 -1.26362E+04 -6.39325E+04  4.02597E+04 -4.66977E+04  5.93329E+04 -2.63846E+03  3.44750E+04  3.32826E+04
 -5.95109E+03  3.74103E+04 -2.98830E+04  1.67872E+04 -3.10840E+04 -3.96113E+03 -1.78765E+04 -1.12301E+04
 -8.90343E+03 -1.33043E+04 -8.75794E+02 -1.85760E+04  8.20895E+03 -2.30155E+04  1.61716E+04 -1.30738E+04
  1.08884E+04  6.15307E+03 -9.27151E+03  1.31465E+04 -2.22322E+04 -5.56872E+03 -8.13847E+03 -3.52401E+04
  2.35677E+04 -4.49744E+04  4.93304E+04 -2.05975E+04  4.66105E+04  1.98938E+04  1.61707E+04  4.56555E+04
 -1.62826E+04  3.48827E+04 -2.61109E+04  1.43727E+03 -1.02635E+04 -2.88046E+04  2.05457E+04 -3.46310E+04
  4.30146E+04 -1.00593E+04  3.77618E+04  2.37034E+04  2.00567E+04  4.74631E+04 -8.05539E+03  5.27830E+04
 -3.32764E+04  3.54633E+04 -4.41788E+04  1.04075E+04 -4.41325E+04 -1.76900E+04 -2.44429E+04 -3.97319E+04
  7.57050E+03 -3.90283E+04  3.21788E+04 -1.55392E+04  3.04813E+04  1.05528E+04  4.43553E+03  1.99008E+04
 -1.38600E+04  9.20688E+03 -9.95432E+03 -7.54331E+03  5.35611E+03 -1.07058E+04  1.82655E+04  5.92863E+03
  1.48887E+04  2.20123E+04 -5.60392E+03  2.56196E+04 -2.26197E+04  1.24563E+04 -2.98044E+04 -3.98499E+03
 -2.26906E+04 -1.77938E+04 -9.80749E+03 -2.13253E+04  4.26145E+03 -2.18022E+04  1.75235E+04 -1.98819E+04
  2.80644E+04 -1.36953E+04  3.44849E+04  4.16815E+03  2.47488E+04  2.16175E+04  4.17533E+03  3.76371E+04
 -1.72677E+04  3.20195E+04 -2.94624E+04  1.09605E+04 -2.08085E+04 -1.08861E+04 -4.72997E+03 -1.30612E+04
  1.35134E+03 -2.27776E+03 -4.76768E+03  7.23504E+03 -1.73675E+04  5.50044E+03 -1.70274E+04 -7.59925E+03
 -1.08120E+04 -1.96864E+04  5.75835E+03 -2.46266E+04  1.68544E+04 -1.79824E+04  1.91867E+04 -1.40584E+03
  1.22404E+04  1.34151E+04 -1.26783E+03  2.02320E+04 -1.44515E+04  1.17125E+04 -2.05048E+04 -4.81577E+03
 -1.58361E+04 -1.81175E+04 -1.95114E+03 -2.40580E+04  1.13340E+04 -1.98353E+04  2.00808E+04 -1.04437E+04
  1.89542E+04 -1.57889E+02  1.33622E+04  4.28366E+03  7.26294E+03  8.86925E+02  1.06863E+04 -1.32389E+03
  1.85936E+04  2.77687E+03  2.11431E+04  1.56168E+04  1.44740E+04  3.22139E+04 -2.58896E+03  3.74191E+04
 -2.14105E+04  3.03660E+04 -3.48759E+04  1.52938E+04 -3.64554E+04 -2.46953E+03 -3.00381E+04 -2.14202E+04
 -1.24927E+04 -2.96959E+04  1.07903E+04 -2.72677E+04  2.32390E+04 -1.35668E+04  2.14756E+04  5.88990E+03
  7.71925E+03  1.59125E+04 -9.87893E+03  1.34191E+04 -1.74282E+04  2.63395E+03 -1.32641E+04 -1.07946E+04
 -6.03762E+02 -1.62478E+04  8.41836E+03 -1.24677E+04  1.10692E+04 -1.38317E+03  2.93312E+03  7.40451E+03
 -7.59306E+03  2.99550E+03 -7.14298E+03 -6.36496E+03 -5.12362E+02 -1.46411E+04  1.05826E+04 -1.61358E+04
  1.81609E+04 -8.98789E+03  1.98355E+04  3.35587E+03  1.78764E+04  1.46660E+04  7.72144E+03  2.28564E+04
 -4.52457E+03  2.44178E+04 -1.60744E+04  1.55813E+04 -1.81060E+04  3.56657E+03 -1.24445E+04 -4.69838E+03
 -6.05486E+03 -5.62461E+03 -7.92271E+02  5.56394E+02 -2.25453E+03  2.49384E+03 -5.78130E+03  5.31299E+03
 -1.11662E+04 -5.61572E+02 -1.19567E+04 -1.06039E+04 -4.83091E+03 -1.58009E+04  5.31559E+03 -1.29945E+04
  1.09741E+04 -5.68769E+03  7.75710E+03  3.31839E+03 -7.06878E+02  4.96359E+03 -6.65321E+03 -1.72041E+02
 -5.37349E+03 -8.17417E+03 -5.00014E+02 -1.18926E+04  6.62127E+03 -1.30471E+04  1.53127E+04 -6.86930E+03
  1.85123E+04  1.39886E+03  1.32184E+04  1.10311E+04  2.69916E+03  1.47564E+04 -7.58327E+03  1.17651E+04
 -9.69557E+03  3.63761E+03 -4.95610E+03 -2.27215E+03  1.32445E+03 -2.89379E+03  6.27804E+03 -6.09886E+02
  6.48448E+03  5.93133E+03  1.21064E+03  1.00048E+04 -7.61352E+03  9.72247E+03 -1.20509E+04  2.21185E+03
 -8.16225E+03 -6.47882E+03  1.32478E+02 -1.00923E+04  6.25379E+03 -4.87469E+03  7.10908E+03  2.33171E+03
  2.35617E+03  6.45260E+03 -6.58903E+03  8.83470E+03 -9.10301E+03  4.02155E+03 -9.15866E+03 -3.27194E+03
 -5.83031E+03 -1.11093E+04  2.80601E+03 -1.28662E+04  1.19690E+04 -7.52841E+03  1.23627E+04  2.60547E+03
  7.43264E+03  9.13849E+03 -7.74833E+02  1.18575E+04 -8.19149E+03  6.63314E+03 -9.70176E+03 -9.17939E+02
 -8.98597E+03 -7.55629E+03 -2.03923E+03 -8.50485E+03  4.32131E+03 -7.25963E+03  5.19436E+03 -3.88246E+03
  4.56559E+03  9.91861E+02 -3.23846E+02  1.64146E+03 -7.57900E+02 -1.39861E+03  8.98470E+02 -4.68837E+03
  7.70890E+03 -3.26993E+03  1.13949E+04  8.44862E+02  1.04022E+04  7.26480E+03  8.00396E+03  1.47572E+04
 -3.54864E+03  1.67409E+04 -1.37313E+04  1.19601E+04 -1.81400E+04  2.21757E+03 -1.49950E+04 -6.04885E+03
 -7.08153E+03 -1.18842E+04 -1.11311E+02 -1.00798E+04  3.35450E+03 -4.55557E+03  3.37672E+03 -3.50123E+03
  2.67199E+03 -2.17075E+03  3.47732E+03 -3.50981E+03  4.87234E+03 -2.08380E+03  5.72947E+03 -2.76184E+02
  7.12917E+03  1.64305E+03  3.82145E+03  6.37645E+03 -1.96394E+03  7.62617E+03 -8.05296E+03  6.21511E+03
 -9.49184E+03 -1.38269E+03 -6.26938E+03 -6.63475E+03 -4.65357E+02 -1.00219E+04  6.60942E+03 -1.08358E+04
  1.12796E+04 -5.98700E+03  1.32275E+04  2.46276E+03  9.69213E+03  9.39152E+03  1.64416E+03  1.23263E+04
 -5.36070E+03  1.06995E+04 -7.18283E+03  3.45049E+03 -4.70429E+03 -1.89594E+03 -1.61003E+03 -1.23614E+03
 -6.38372E+02  1.61833E+02 -2.44094E+03  1.96865E+03 -4.09719E+03  2.21364E+03 -6.91945E+03 -1.15547E+03
 -3.64430E+03 -6.47881E+03  6.99139E+02 -9.69496E+03  5.63358E+03 -8.25807E+03  9.69027E+03 -3.08031E+03
  9.78177E+03  5.00129E+03  4.27372E+03  8.36874E+03 -1.45359E+03  9.73452E+03 -6.66299E+03  5.23086E+03
 -8.90356E+03  1.12037E+03 -6.87506E+03 -5.62814E+03 -1.33553E+03 -7.80722E+03  4.14015E+03 -5.63837E+03
  5.94436E+03 -2.27235E+03  3.60631E+03  7.41936E+02  1.48757E+03  2.82214E+03  8.94981E+02  8.97591E+02
  2.58540E+03  7.80755E+02  2.51141E+03  1.76492E+03  2.70183E+03  3.41362E+03  2.92285E+03  4.69533E+03
 -2.08141E+03  7.49069E+03 -6.62388E+03  7.80665E+03 -8.48933E+03  2.23690E+03 -9.24353E+03 -3.11408E+03
 -4.62942E+03 -8.66561E+03  1.46326E+03 -1.02707E+04  5.25015E+03 -6.08673E+03  7.68887E+03 -1.96868E+03
  6.63448E+03  3.99402E+03  1.42795E+03  4.87929E+03 -2.18588E+03  3.00464E+03 -2.86436E+03 -2.18484E+02
 -1.60835E+03 -3.42888E+03  3.20445E+03 -4.16573E+03  3.87208E+03 -2.26078E+03  3.40489E+03  5.63836E+01
  2.02479E+03  1.82109E+03  6.11653E+02  6.89350E+02 -7.25956E+02  1.55364E+03  1.34522E+03 -8.74989E+02
  5.89355E+02 -5.03171E+02  3.12312E+03  1.28978E+03  2.23163E+03  4.91458E+03 -8.13102E+02  6.47795E+03
 -4.44544E+03  3.95134E+03 -5.74525E+03  5.00643E+02 -4.84770E+03 -2.01295E+03 -1.56038E+03 -3.14485E+03
  8.22907E+02 -3.55280E+03  2.44564E+03 -1.88860E+03  1.83509E+03  2.56394E+03 -1.10308E+03  2.60714E+03
 -3.46149E+03  1.83575E+03 -3.91737E+03 -2.52045E+03 -2.82034E+03 -4.74246E+03  2.34265E+02 -4.56231E+03
  1.94361E+03 -2.71684E+03  2.94415E+03 -3.49030E+02  2.53999E+03  6.89346E+02  3.14897E+02  1.99170E+03
 -1.90668E+03  2.51377E+02 -2.16116E+03 -1.54602E+03  1.13194E+03 -2.95083E+03  3.94666E+03 -2.53090E+03
  4.51585E+03  2.78342E+02  5.68029E+03  3.43270E+03  2.58547E+03  4.98486E+03 -1.34026E+03  5.53374E+03
 -4.07083E+03  1.27982E+03 -4.48859E+03 -8.24877E+02 -2.15477E+03 -3.34538E+03  7.50242E+02 -3.17398E+03
  3.75313E+03 -1.46187E+03  3.24126E+03  1.75884E+03  1.10951E+03  2.88243E+03  1.64218E+01  2.59927E+03
 -1.83009E+03  1.69569E+03 -1.54845E+03 -1.77618E+02 -4.64562E+02  8.19705E+02 -1.14521E+03  1.25984E+03
 -1.42861E+03  2.54952E+03 -3.42899E+03  2.14248E+03 -5.01381E+03 -5.93708E+01 -6.10147E+03 -3.50329E+03
 -3.26324E+03 -6.81202E+03  1.13039E+03 -7.88589E+03  4.23666E+03 -6.71286E+03  7.31602E+03 -2.69983E+03
  6.61245E+03  6.17657E+02  3.87428E+03  4.76993E+03  2.12847E+02  5.05418E+03 -2.38709E+03  3.64592E+03
 -2.40327E+03  1.90018E+03 -1.64506E+03 -7.22991E+02 -2.43411E+02 -4.08986E+02 -9.94514E+02  3.91750E+02
 -1.70990E+03  5.43891E+02 -1.36018E+03 -9.38033E+02 -2.37006E+02 -1.55913E+03 -3.09422E+02 -2.40964E+03
  2.00087E+03 -1.82360E+03  3.11974E+03 -1.13142E+02  3.69958E+03  3.28322E+03  8.29749E+02  4.89411E+03
 -2.37091E+03  6.33926E+03 -5.49637E+03  3.37170E+03 -6.19709E+03 -7.10771E+01 -4.99039E+03 -3.87510E+03
 -2.13215E+03 -5.17060E+03  1.90254E+03 -4.43789E+03  3.06480E+03 -3.19887E+03  2.88321E+03 -1.46144E+02
  2.18865E+03  1.01208E+03 -1.14413E+03  1.46400E+03 -1.22494E+03  4.44125E+02 -1.25564E+02 -1.10297E+03
  2.44754E+03 -6.83665E+02  1.69343E+03  6.72067E+02  1.52806E+03  1.78107E+03  1.32130E+03  3.08838E+03
 -2.86263E+03  1.99820E+03 -3.15865E+03 -8.56470E+02 -2.53379E+03 -2.10481E+03 -5.19721E+02 -4.21677E+03
  2.43572E+03 -3.01598E+03  3.33177E+03 -9.96103E+02  3.37687E+03  7.11768E+02  1.89788E+03  2.53459E+03
  7.13339E+02  3.40613E+03 -9.20228E+02  2.25433E+03 -2.32204E+03  1.54236E+03 -1.85789E+03  2.04359E+02
 -3.44832E+02  4.49053E+02 -1.51981E+03  5.85282E+02 -1.75157E+03  4.23148E+02 -2.19746E+03 -5.60504E+02
 -2.48818E+03 -3.08771E+02 -5.85109E+02 -3.46921E+03  1.39418E+03 -3.21709E+03  2.45437E+03 -1.60758E+03
  2.36949E+03  3.84710E+02  1.52543E+03  1.70140E+03 -6.09241E+02  2.89492E+03 -2.35933E+03  2.37415E+03
