 $NMID ID='MM_0lb_SNR400_18hz_g45_61.RAW', FMTDAT='(8E13.5)'
 TRAMP=1., VOLUME=1. $END
  3.09883E+05  3.84873E+00  3.37188E+05  2.49870E+05  8.39078E+04  3.37411E+05 -1.32772E+05  2.50135E+05
 -1.89388E+05  8.22718E+04 -1.10741E+05 -3.26205E+04  1.66795E+03 -5.02978E+04  5.36964E+04  2.57758E+02
  3.53142E+04  5.28834E+04 -1.69644E+04  7.47941E+04 -6.01237E+04  6.35258E+04 -8.34276E+04  3.13157E+04
 -7.94943E+04 -1.08035E+04 -5.58365E+04 -5.03020E+04 -1.52879E+04 -6.78095E+04  2.69264E+04 -4.47095E+04
  3.89166E+04  4.08758E+03  1.59670E+04  4.71238E+04 -3.37661E+04  4.60400E+04 -6.51186E+04 -8.37192E+02
 -5.14244E+04 -5.59641E+04 -6.77127E+03 -7.52735E+04  3.33200E+04 -5.32634E+04  4.61618E+04 -1.61368E+04
  4.14185E+04  1.08587E+04  3.10209E+04  2.41634E+04  1.55016E+04  2.78174E+04 -4.68513E+03  2.69656E+04
 -2.15055E+04  1.29046E+04 -1.91267E+04 -4.28039E+03  4.55918E+03 -7.46244E+03  2.07584E+04  1.10895E+04
  6.95229E+03  3.31619E+04 -3.07506E+04  3.39734E+04 -6.16677E+04  1.79214E+03 -5.57311E+04 -4.12950E+04
 -1.28672E+04 -6.12615E+04  3.86603E+04 -4.32104E+04  5.59580E+04 -1.89836E+03  3.22663E+04  3.05554E+04
 -6.89303E+03  3.30293E+04 -2.89041E+04  1.38674E+04 -2.75838E+04 -4.60796E+03 -1.41704E+04 -1.02774E+04
 -7.15919E+03 -1.16871E+04 -1.27826E+03 -1.60958E+04  6.39784E+03 -2.20702E+04  1.54336E+04 -1.42763E+04
  1.24582E+04  4.21572E+03 -6.95434E+03  1.26868E+04 -1.90932E+04 -2.48679E+03 -7.91757E+03 -3.07436E+04
  2.15611E+04 -4.03533E+04  4.52838E+04 -1.88318E+04  4.18815E+04  1.86143E+04  1.42830E+04  4.16004E+04
 -1.52576E+04  3.08290E+04 -2.39289E+04  4.60468E+02 -8.29171E+03 -2.61503E+04  2.02243E+04 -3.18107E+04
  3.80205E+04 -7.19498E+03  3.12382E+04  2.24402E+04  1.56920E+04  4.23498E+04 -7.71262E+03  4.56290E+04
 -2.84806E+04  3.06179E+04 -3.76344E+04  8.09828E+03 -3.81293E+04 -1.53608E+04 -2.14540E+04 -3.50399E+04
  6.35257E+03 -3.48191E+04  2.91753E+04 -1.27728E+04  2.70435E+04  1.06257E+04  2.84616E+03  1.76400E+04
 -1.31000E+04  7.41388E+03 -9.70833E+03 -7.29260E+03  6.19240E+03 -1.00709E+04  1.72134E+04  6.64558E+03
  1.23830E+04  2.13061E+04 -6.59423E+03  2.35132E+04 -2.13889E+04  9.54382E+03 -2.53472E+04 -5.75709E+03
 -1.70523E+04 -1.64992E+04 -6.15907E+03 -1.71216E+04  3.42958E+03 -1.48941E+04  1.26000E+04 -1.46239E+04
  2.14642E+04 -1.14734E+04  2.79052E+04  1.37201E+03  2.14326E+04  1.61594E+04  4.09149E+03  3.32578E+04
 -1.58323E+04  2.73246E+04 -2.58455E+04  9.30935E+03 -1.98631E+04 -1.04008E+04 -4.35381E+03 -1.34907E+04
  2.54322E+03 -4.32496E+03 -2.72846E+03  5.45329E+03 -1.29869E+04  5.12564E+03 -1.35263E+04 -5.57062E+03
 -9.03341E+03 -1.60367E+04  5.09913E+03 -1.88652E+04  1.27415E+04 -1.38236E+04  1.48140E+04 -1.21915E+03
  9.40185E+03  1.05553E+04 -8.45105E+02  1.61178E+04 -1.07497E+04  8.56452E+03 -1.54111E+04 -3.21113E+03
 -1.20581E+04 -1.43681E+04 -1.37789E+03 -1.86605E+04  8.57804E+03 -1.50764E+04  1.63007E+04 -7.28332E+03
  1.44129E+04  1.11721E+03  1.07308E+04  3.69487E+03  5.57305E+03  6.64538E+02  7.83214E+03 -1.12677E+03
  1.37068E+04  2.73477E+03  1.54836E+04  1.28809E+04  9.49974E+03  2.50145E+04 -3.16969E+03  2.67947E+04
 -1.61214E+04  2.04187E+04 -2.48924E+04  9.94836E+03 -2.52055E+04 -1.79800E+03 -2.18105E+04 -1.41634E+04
 -1.00079E+04 -2.09346E+04  7.45777E+03 -1.94260E+04  1.73891E+04 -1.09176E+04  1.62063E+04  4.16102E+03
  6.41629E+03  1.17905E+04 -6.54319E+03  1.06027E+04 -1.35348E+04  2.82295E+03 -1.05650E+04 -8.35005E+03
 -4.29561E+02 -1.28827E+04  6.34453E+03 -9.80355E+03  8.09249E+03 -1.24215E+03  1.64314E+03  4.92208E+03
 -5.32595E+03  1.07884E+03 -3.67352E+03 -4.67244E+03  6.36691E+02 -1.04781E+04  7.78819E+03 -1.03531E+04
  1.29963E+04 -5.12613E+03  1.25262E+04  3.12950E+03  1.07886E+04  1.01881E+04  4.53241E+03  1.44039E+04
 -2.27979E+03  1.66733E+04 -9.99034E+03  1.04665E+04 -1.15525E+04  2.80622E+03 -8.55848E+03 -2.25218E+03
 -4.46667E+03 -4.19002E+03 -7.86861E+02  1.53095E+03 -2.19756E+03  2.04554E+03 -3.63150E+03  3.91349E+03
 -8.06771E+03 -7.89687E+02 -9.09717E+03 -7.24213E+03 -3.96655E+03 -1.20376E+04  3.72161E+03 -8.49263E+03
  7.39699E+03 -3.98099E+03  5.50849E+03  2.42668E+03  6.06002E+02  3.03209E+03 -4.10187E+03 -3.69976E+02
 -3.40908E+03 -5.48178E+03 -7.35230E+02 -7.69937E+03  3.98416E+03 -8.14801E+03  9.74312E+03 -4.01026E+03
  1.16892E+04  8.20928E+02  8.55169E+03  6.52242E+03  1.73589E+03  8.65781E+03 -5.35334E+03  8.50152E+03
 -6.73774E+03  3.18935E+03 -3.11559E+03 -1.02413E+03  1.58596E+03 -2.28649E+03  4.62937E+03 -7.73612E+02
  4.41492E+03  2.84986E+03  1.04510E+03  6.64145E+03 -4.58434E+03  6.30862E+03 -7.92247E+03  1.23728E+03
 -5.15544E+03 -4.20799E+03 -3.82157E+01 -6.51950E+03  3.61275E+03 -3.14059E+03  3.50301E+03  1.15207E+03
  4.16621E+02  3.39208E+03 -4.31005E+03  4.73860E+03 -5.22317E+03  2.24484E+03 -4.99915E+03 -8.22531E+02
 -3.57265E+03 -6.32185E+03  1.60710E+03 -7.09670E+03  5.90359E+03 -4.60765E+03  6.41015E+03  4.82058E+02
  5.08214E+03  5.56196E+03 -2.76791E+02  7.69594E+03 -4.59868E+03  4.83920E+03 -5.56546E+03 -3.82328E+02
 -5.71461E+03 -5.22197E+03 -1.20440E+03 -5.14802E+03  2.91997E+03 -4.65930E+03  2.99175E+03 -3.12147E+03
  2.79533E+03  6.53453E+02 -6.10377E-01  9.38363E+02  7.67076E+02 -1.46561E+01  2.05495E+02 -2.30384E+03
  4.04772E+03 -1.13793E+03  5.70661E+03  3.94275E+02  5.30062E+03  3.23839E+03  5.07138E+03  7.56148E+03
 -1.31151E+03  8.55768E+03 -7.85327E+03  6.40465E+03 -9.69875E+03  1.50025E+03 -7.90553E+03 -2.75388E+03
 -4.08957E+03 -6.94707E+03 -5.06870E+02 -5.25625E+03  1.57245E+03 -2.21731E+03  1.94608E+03 -1.75300E+03
  1.15970E+03 -1.12738E+03  2.16557E+03 -1.87053E+03  3.97143E+03 -9.28077E+02  4.30181E+03  2.68933E+02
  4.78681E+03  1.09695E+03  1.22530E+03  3.80587E+03 -1.42975E+03  2.71361E+03 -4.05549E+03  2.34737E+03
 -5.23860E+03 -1.45000E+03 -2.36524E+03 -3.20260E+03  5.45190E+02 -5.51598E+03  3.38918E+03 -5.48423E+03
  5.64112E+03 -3.25656E+03  6.83664E+03  1.10943E+03  5.08568E+03  4.56902E+03  1.28433E+03  6.41898E+03
 -2.40692E+03  6.18024E+03 -4.68633E+03  1.91373E+03 -2.30577E+03 -1.18588E+03 -5.91663E+02 -8.44487E+02
 -4.02177E+01  7.02403E+02 -1.52623E+03  2.42679E+03 -2.57181E+03  1.28673E+03 -4.42392E+03 -3.68100E+02
 -1.84804E+03 -4.77894E+03  1.18409E+03 -4.89827E+03  3.25152E+03 -3.85702E+03  4.04202E+03 -1.79058E+03
  4.67445E+03  2.13800E+03  2.15653E+03  3.11563E+03 -1.00608E+03  4.92876E+03 -3.36443E+03  2.46673E+03
 -3.89145E+03  5.53438E+02 -3.43507E+03 -2.04213E+03 -4.61254E+02 -3.05901E+03  1.81241E+03 -2.30427E+03
  3.03627E+03 -1.61850E+03  2.38059E+03  5.16316E+02  1.11213E+02  1.63607E+03  1.03152E+03  3.76851E+02
  1.46889E+03  2.27083E+02  8.47905E+02  8.12686E+02  1.25488E+03  2.55435E+03  1.27551E+03  1.72926E+03
 -1.52992E+03  3.09380E+03 -2.95416E+03  4.28674E+03 -3.48939E+03  1.27982E+03 -4.67682E+03 -5.63902E+02
 -1.86740E+03 -3.92315E+03  2.73461E+02 -4.83244E+03  2.26975E+03 -2.41291E+03  3.52548E+03 -1.07214E+03
  2.46314E+03  1.79793E+03  2.55990E+01  2.63504E+03 -8.23948E+02  1.39114E+03 -1.25525E+03  5.50021E+01
 -1.27989E+03 -1.72697E+03  1.09332E+03 -2.25693E+03  1.55099E+03 -1.24383E+03  1.45781E+03  5.12380E+02
  1.28674E+03  4.49538E+02  1.18128E+03  1.22279E+02 -4.79240E+02  2.44313E+02  1.44792E+03 -1.10102E+01
 -1.56609E+02 -4.58634E+02  1.83914E+03  3.99997E+02  5.40374E+02  3.06437E+03 -5.27540E+02  3.00059E+03
 -1.60574E+03  8.58190E+02 -1.91533E+03  4.32254E+01 -2.17732E+03 -6.66278E+02  3.77868E+02 -1.30996E+03
  7.09219E+02 -1.64765E+03  8.58082E+02 -7.09146E+02  7.56963E+02  1.33883E+03 -8.10336E+02  1.15883E+03
 -1.43658E+03  6.08881E+02 -1.30940E+03 -1.28310E+03 -8.08412E+02 -2.32266E+03  1.67591E+02 -1.71801E+03
  4.39035E+00 -6.64328E+02  9.46765E+02 -3.12950E+02  1.51169E+03 -5.15655E+02  1.03011E+02  1.44963E+03
 -9.37484E+02  8.83713E+01 -1.13163E+03  1.43176E+02  9.54614E+02 -1.36344E+03  2.15300E+03 -7.13027E+02
  1.74610E+03 -8.83663E+01  2.96963E+03  1.01469E+03  1.73284E+03  1.47392E+03 -2.95617E+01  2.57874E+03
 -1.37907E+03  1.28352E+02 -1.65111E+03  2.49301E+01 -2.83087E+02 -1.15290E+03  5.01180E+02 -4.17149E+02
  1.44253E+03 -5.50475E+02  4.40931E+02  7.47785E+02 -7.77452E+01  1.50313E+03  4.89772E+02  4.32872E+02
 -6.24502E+02  1.28304E+03 -2.75254E+02  1.72375E+02  7.27935E+02  3.45487E+02 -1.19831E+03 -1.11307E+01
 -1.07592E+03  8.73668E+02 -2.52547E+03  2.28491E+02 -2.09338E+03  3.06241E+02 -2.21090E+03 -1.51907E+03
 -1.03308E+03 -3.08669E+03  4.28801E+02 -3.24417E+03  1.46060E+03 -2.51639E+03  3.20564E+03 -1.37409E+03
  2.58592E+03 -1.37441E+02  1.85803E+03  1.67295E+03 -6.56518E+02  2.03644E+03 -9.86562E+02  1.40478E+03
 -6.76169E+02  8.46868E+02 -2.22839E+02 -1.78637E+01 -3.57574E+02 -5.86244E+01 -8.90696E+02  4.25214E+02
 -6.45378E+02 -3.22974E+02 -1.30279E+03  3.14187E+01  2.44778E+02 -3.63624E+02 -5.07109E+02 -1.53069E+03
  1.54502E+03 -9.40296E+02  6.50057E+02 -9.26186E+01  1.37488E+03  9.81116E+02  6.08375E+01  1.58823E+03
 -8.35214E+02  2.16912E+03 -2.10644E+03  1.19557E+03 -1.72906E+03  2.99903E+02 -1.90715E+03 -1.41868E+03
 -1.23879E+03 -1.26404E+03 -1.85104E+02 -1.36644E+03  3.10500E+02 -5.27774E+02  6.79823E+02  4.27811E+01
  8.59735E+02 -1.16006E+02 -7.68110E+01  5.18773E+02 -5.03009E+02 -9.20790E+01  2.41849E+02 -5.66439E+02
 -2.24349E+02  5.39210E+01  1.42469E+02  1.98343E+02 -3.06634E+02  6.15458E+02  4.29244E+02  5.38698E+01
 -4.49345E+02  7.13523E+02 -7.22197E+02  1.89513E+02 -7.09915E+02 -3.20091E+02  8.31816E+01 -1.11349E+03
  1.20573E+03 -8.46839E+02  8.03030E+02  3.35720E+02  3.24161E+02 -8.51054E+01  6.15529E+02  9.82835E+02
  5.87005E+02  7.66355E+02 -2.14895E+02  2.53624E+02 -3.21667E+02  8.73787E+02  1.16410E+01 -7.02804E+01
 -3.37361E+02  2.36124E+01 -3.16826E+02 -1.80774E+02 -6.32146E+02  2.47637E+02 -8.47954E+02 -3.12424E+02
 -1.26793E+03  1.74044E+02 -5.69099E+02 -1.22943E+03  7.21558E+02 -1.53307E+03  1.44280E+03 -4.73894E+02
  6.90565E+02  2.30490E+02 -7.73806E+01  5.72916E+02 -1.17028E+02  7.78974E+02 -2.41451E+02  1.08160E+03
