 $NMID ID='MM_0lb_SNR400_8hz_g45_20.RAW', FMTDAT='(8E13.5)'
 TRAMP=1., VOLUME=1. $END
  3.09883E+05 -5.53449E+01  3.37151E+05  2.51092E+05  8.45628E+04  3.38583E+05 -1.32005E+05  2.51982E+05
 -1.91294E+05  8.39841E+04 -1.12474E+05 -3.18418E+04  4.35547E+02 -5.07964E+04  5.37743E+04 -4.68552E+02
  3.66793E+04  5.18310E+04 -1.66287E+04  7.71776E+04 -6.10209E+04  6.44942E+04 -8.54593E+04  3.26876E+04
 -8.26861E+04 -1.22011E+04 -5.81872E+04 -5.23167E+04 -1.51497E+04 -7.02484E+04  2.91393E+04 -4.66097E+04
  4.13593E+04  3.42347E+03  1.71975E+04  4.81635E+04 -3.55590E+04  4.86495E+04 -6.86975E+04  2.74571E+02
 -5.49041E+04 -5.85676E+04 -7.34603E+03 -7.92285E+04  3.37656E+04 -5.75424E+04  4.97061E+04 -1.81415E+04
  4.54021E+04  1.10241E+04  3.32258E+04  2.75711E+04  1.61683E+04  3.07583E+04 -6.66027E+03  2.81858E+04
 -2.25947E+04  1.19912E+04 -1.75809E+04 -5.54208E+03  6.44247E+03 -6.81943E+03  2.34256E+04  1.35443E+04
  7.20096E+03  3.77143E+04 -3.43207E+04  3.71872E+04 -6.69871E+04  2.52045E+03 -5.77980E+04 -4.45255E+04
 -1.30948E+04 -6.65257E+04  4.20188E+04 -4.73004E+04  6.22823E+04 -2.92249E+03  3.73482E+04  3.41861E+04
 -5.29321E+03  4.02471E+04 -3.20577E+04  1.91937E+04 -3.36957E+04 -3.19710E+03 -1.97154E+04 -1.17822E+04
 -9.22628E+03 -1.53165E+04 -7.06113E+01 -1.94492E+04  9.02948E+03 -2.40068E+04  1.60716E+04 -1.21790E+04
  1.08303E+04  6.46619E+03 -1.03246E+04  1.33161E+04 -2.41755E+04 -7.01267E+03 -9.10818E+03 -3.68829E+04
  2.50962E+04 -4.77122E+04  5.24832E+04 -2.12335E+04  4.86602E+04  2.15242E+04  1.74723E+04  4.76954E+04
 -1.72927E+04  3.74762E+04 -2.80365E+04  2.53277E+03 -1.16337E+04 -2.92702E+04  2.10119E+04 -3.72266E+04
  4.49677E+04 -1.15456E+04  4.09994E+04  2.56333E+04  2.13081E+04  5.04359E+04 -7.80047E+03  5.72060E+04
 -3.58898E+04  3.84293E+04 -4.74119E+04  1.22695E+04 -4.81876E+04 -1.99466E+04 -2.68188E+04 -4.24905E+04
  8.20380E+03 -4.31375E+04  3.49803E+04 -1.76618E+04  3.22202E+04  1.07501E+04  5.35336E+03  2.10517E+04
 -1.34305E+04  9.62292E+03 -1.23658E+04 -6.88337E+03  5.11347E+03 -1.10300E+04  1.84137E+04  5.85994E+03
  1.51453E+04  2.33119E+04 -5.01382E+03  2.71337E+04 -2.30445E+04  1.41905E+04 -3.19280E+04 -2.54667E+03
 -2.61840E+04 -1.87120E+04 -1.17659E+04 -2.55022E+04  4.44994E+03 -2.54743E+04  1.98060E+04 -2.33405E+04
  3.31078E+04 -1.52728E+04  3.88458E+04  4.83559E+03  2.77526E+04  2.50120E+04  5.49997E+03  4.11036E+04
 -2.11594E+04  3.47536E+04 -3.08762E+04  1.21474E+04 -2.24011E+04 -1.02483E+04 -5.28714E+03 -1.14138E+04
  8.04845E+02 -1.24182E+03 -8.05059E+03  8.35698E+03 -2.15063E+04  4.49237E+03 -2.05914E+04 -9.59205E+03
 -1.28457E+04 -2.42532E+04  6.74951E+03 -2.81902E+04  1.97773E+04 -2.08846E+04  2.27836E+04 -1.71229E+03
  1.44206E+04  1.61500E+04 -1.20320E+03  2.29166E+04 -1.71677E+04  1.33930E+04 -2.42935E+04 -4.41640E+03
 -1.69808E+04 -2.15695E+04 -2.96893E+03 -2.81001E+04  1.29283E+04 -2.49245E+04  2.40037E+04 -1.19167E+04
  2.22737E+04  3.63850E+01  1.68167E+04  5.46704E+03  9.36021E+03  1.01563E+03  1.32009E+04 -1.85603E+03
  2.31784E+04  4.01114E+03  2.57380E+04  1.85317E+04  1.71920E+04  3.82027E+04 -2.79595E+03  4.55490E+04
 -2.62965E+04  3.69270E+04 -4.24869E+04  2.07449E+04 -4.62033E+04 -3.90954E+03 -3.75178E+04 -2.72259E+04
 -1.54358E+04 -3.87768E+04  1.42512E+04 -3.36754E+04  2.85745E+04 -1.59257E+04  2.45809E+04  8.30207E+03
  8.17167E+03  1.84642E+04 -1.20043E+04  1.57577E+04 -2.09616E+04  2.60476E+03 -1.50135E+04 -1.37041E+04
  2.83406E+02 -1.98995E+04  1.06642E+04 -1.45738E+04  1.36747E+04 -1.83987E+03  4.21413E+03  8.93473E+03
 -9.73168E+03  4.57566E+03 -1.03285E+04 -6.70744E+03 -2.04750E+03 -1.93877E+04  1.31159E+04 -2.04157E+04
  2.40784E+04 -1.20135E+04  2.63813E+04  3.56704E+03  2.36283E+04  1.87614E+04  1.14555E+04  3.03586E+04
 -6.29973E+03  3.26357E+04 -2.13154E+04  1.97063E+04 -2.35827E+04  4.45349E+03 -1.56212E+04 -5.87612E+03
 -6.63879E+03 -7.03861E+03 -6.49305E+02  1.47542E+02 -2.32238E+03  3.82194E+03 -8.01195E+03  4.88726E+03
 -1.49156E+04 -3.81153E+02 -1.51467E+04 -1.22010E+04 -6.91779E+03 -2.03351E+04  5.93514E+03 -1.64257E+04
  1.37863E+04 -6.45965E+03  9.88222E+03  4.22491E+03  4.63946E+02  5.62226E+03 -8.82125E+03 -6.23007E+02
 -7.84114E+03 -1.03930E+04 -2.00504E+03 -1.64091E+04  9.75203E+03 -1.64200E+04  2.11729E+04 -9.65204E+03
  2.48596E+04  3.39643E+03  1.88890E+04  1.47933E+04  3.52080E+03  2.00478E+04 -1.00049E+04  1.65596E+04
 -1.27429E+04  5.04246E+03 -7.04377E+03 -4.96646E+03  3.39970E+03 -4.69172E+03  8.86904E+03 -4.84212E+02
  7.60078E+03  6.50705E+03  1.56817E+03  1.29586E+04 -9.25925E+03  1.26200E+04 -1.71231E+04  3.09410E+03
 -1.02814E+04 -9.06539E+03  1.26595E+03 -1.40788E+04  9.19623E+03 -8.37966E+03  9.89001E+03  3.57409E+03
  2.73703E+03  1.07389E+04 -8.18801E+03  1.14643E+04 -1.46895E+04  5.40534E+03 -1.54662E+04 -5.29656E+03
 -8.30712E+03 -1.59119E+04  4.22209E+03 -1.86842E+04  1.73139E+04 -1.14134E+04  1.84165E+04  3.32690E+03
  1.10071E+04  1.42563E+04 -1.92318E+03  1.66398E+04 -1.20347E+04  1.01856E+04 -1.31437E+04 -1.86555E+03
 -1.17278E+04 -1.10419E+04 -2.04539E+03 -1.28531E+04  7.61493E+03 -9.87893E+03  8.68936E+03 -3.95723E+03
  5.08172E+03  2.66501E+03 -8.71363E+02  1.94130E+03 -1.35613E+02 -4.13622E+03  2.95115E+03 -8.40684E+03
  1.31730E+04 -5.58236E+03  1.84705E+04  1.92123E+03  1.65440E+04  1.19427E+04  1.07349E+04  2.24397E+04
 -5.58292E+03  2.55906E+04 -2.05571E+04  1.95400E+04 -2.74121E+04  3.13241E+03 -2.31321E+04 -1.04158E+04
 -1.07921E+04 -1.85045E+04  8.39399E+01 -1.62342E+04  5.02184E+03 -8.78303E+03  4.24081E+03 -5.73496E+03
  4.43676E+03 -3.23592E+03  4.31193E+03 -4.47464E+03  6.22033E+03 -3.61661E+03  8.90243E+03 -1.46541E+03
  1.10142E+04  2.40121E+03  6.70904E+03  1.02563E+04 -1.49315E+03  1.18534E+04 -1.15940E+04  8.50507E+03
 -1.66319E+04 -1.12645E+03 -1.10576E+04 -1.18193E+04 -1.57480E+03 -1.78994E+04  9.20800E+03 -1.67227E+04
  1.80310E+04 -9.05117E+03  2.08167E+04  2.30650E+03  1.43513E+04  1.54785E+04  2.91953E+03  1.90704E+04
 -7.92918E+03  1.62762E+04 -1.05605E+04  4.81080E+03 -7.97428E+03 -2.24370E+03 -3.32721E+03 -1.79304E+03
 -2.15415E+03 -7.57655E+02 -2.48001E+03  2.98280E+03 -7.72969E+03  1.36150E+03 -1.01686E+04 -1.92646E+03
 -8.25367E+03 -1.07205E+04 -8.67430E+01 -1.69501E+04  1.09618E+04 -1.39353E+04  1.63539E+04 -4.82753E+03
  1.63229E+04  8.05682E+03  7.58870E+03  1.46352E+04 -3.10760E+03  1.65759E+04 -1.06128E+04  1.01990E+04
 -1.50721E+04  7.92990E+02 -1.13561E+04 -9.80050E+03 -1.14026E+03 -1.28815E+04  6.99552E+03 -1.02330E+04
  1.02741E+04 -2.89465E+03  7.09142E+03  2.39799E+03  2.78003E+03  4.33035E+03  2.28915E+03  3.27914E+03
  2.81725E+03  5.58268E+02  3.42991E+03  3.04520E+03  3.99510E+03  5.62738E+03  3.98828E+03  9.46250E+03
 -2.97613E+03  1.31609E+04 -1.14698E+04  1.26128E+04 -1.67127E+04  3.64761E+03 -1.71130E+04 -6.88878E+03
 -7.67950E+03 -1.67450E+04  1.57832E+03 -1.73648E+04  9.55172E+03 -1.03569E+04  1.33630E+04 -2.73202E+03
  1.11103E+04  7.16784E+03  2.67231E+03  9.71833E+03 -4.90941E+03  6.41539E+03 -7.02700E+03 -7.37562E+02
 -2.98516E+03 -7.41040E+03  4.73265E+03 -7.23532E+03  7.14915E+03 -3.77121E+03  6.47673E+03  9.87336E+02
  3.38294E+03  3.84067E+03  1.72217E+03  3.83784E+03 -1.04996E+03  2.22753E+03  2.06399E+03  2.43385E+01
  2.54158E+03 -1.47370E+03  7.04663E+03  2.39585E+03  4.09757E+03  8.19024E+03 -2.20945E+03  1.14804E+04
 -7.67256E+03  8.97726E+03 -1.05521E+04  2.11771E+03 -9.62766E+03 -4.54637E+03 -4.41143E+03 -6.49874E+03
  6.23507E+02 -6.56771E+03  5.21067E+03 -3.24141E+03  3.37805E+03  2.83560E+03 -1.35831E+03  6.33339E+03
 -7.17640E+03  2.52669E+03 -8.27064E+03 -3.97392E+03 -4.66456E+03 -8.55998E+03  5.33582E+02 -9.00187E+03
  5.80875E+03 -5.41406E+03  7.51812E+03 -2.61065E+02  4.64329E+03  3.47741E+03  4.43964E+02  4.97549E+03
 -3.07424E+03  1.08681E+03 -3.25840E+03 -3.21910E+03  1.85646E+03 -7.30693E+03  8.42442E+03 -6.49162E+03
  1.02119E+04  1.17647E+03  9.84455E+03  7.39317E+03  3.49915E+03  1.19733E+04 -3.67378E+03  1.00450E+04
 -9.71425E+03  5.20136E+03 -9.60565E+03 -1.00594E+03 -5.14759E+03 -7.03998E+03  1.82611E+03 -7.54309E+03
  7.35067E+03 -3.11052E+03  5.78116E+03  2.06500E+03  1.93950E+03  6.49188E+03 -5.50676E+02  5.95657E+03
 -2.37083E+03  2.65852E+03 -2.07973E+03  1.84583E+03 -1.77790E+03  8.22019E+02 -1.91303E+03  2.52625E+03
 -3.26505E+03  4.40723E+03 -8.04414E+03  3.64673E+03 -1.11349E+04  5.85371E+02 -1.32965E+04 -7.56866E+03
 -6.82926E+03 -1.47810E+04  2.72560E+03 -1.79458E+04  1.11941E+04 -1.33685E+04  1.72347E+04 -4.96007E+03
  1.58602E+04  3.03260E+03  9.76628E+03  1.02366E+04  8.17622E+02  1.22186E+04 -5.02413E+03  8.65331E+03
 -6.31295E+03  2.71006E+03 -4.27203E+03 -1.19076E+03 -1.38906E+03 -1.13127E+03 -1.47364E+03 -3.07316E+02
 -1.77586E+03  9.22391E+02 -2.02014E+03 -7.22043E+02 -3.79557E+02 -2.99818E+03  6.26090E+02 -4.80430E+03
  5.14600E+03 -3.97013E+03  6.90018E+03 -2.31244E+02  8.88803E+03  6.68515E+03  2.76189E+03  1.23367E+04
 -5.84446E+03  1.37183E+04 -1.28232E+04  8.39364E+03 -1.38901E+04 -1.00253E+03 -1.06751E+04 -8.36725E+03
 -4.71631E+03 -1.26112E+04  2.30504E+03 -1.12910E+04  7.34325E+03 -6.19504E+03  8.35176E+03  8.26424E+02
  4.77427E+03  5.07680E+03  2.38016E+01  4.30518E+03 -2.45771E+03 -4.84229E+02 -7.36435E+01 -2.11071E+03
  4.39368E+03 -2.02422E+03  4.38270E+03  1.98604E+03  2.67273E+03  4.10586E+03  3.67042E+01  6.07216E+03
 -5.77863E+03  5.24329E+03 -8.13098E+03  1.40482E+02 -6.79750E+03 -5.94447E+03 -1.12736E+03 -1.02705E+04
  5.16060E+03 -8.91368E+03  9.08071E+03 -3.31109E+03  9.06670E+03  2.46497E+03  5.36578E+03  7.02786E+03
  9.12895E+02  8.34024E+03 -2.77265E+03  6.63592E+03 -5.21604E+03  3.51547E+03 -4.90683E+03  1.29154E+03
 -2.58400E+03  5.60667E+02 -3.02545E+03  1.08304E+03 -4.39639E+03  1.58224E+03 -6.53070E+03 -1.27839E+03
 -6.05366E+03 -4.65141E+03 -1.97012E+03 -8.35146E+03  4.20859E+03 -9.30033E+03  7.53437E+03 -5.02918E+03
  7.93461E+03  1.93306E+03  5.56327E+03  5.57634E+03 -5.38428E+02  8.88302E+03 -5.91644E+03  4.94875E+03
