 $NMID ID='MM_0lb_SNR400_8hz_g40_77.RAW', FMTDAT='(8E13.5)'
 TRAMP=1., VOLUME=1. $END
  3.09585E+05  3.65950E+01  3.38980E+05  2.51041E+05  8.45189E+04  3.38383E+05 -1.32358E+05  2.51477E+05
 -1.90617E+05  8.36160E+04 -1.12142E+05 -3.21507E+04  8.66229E+02 -5.07187E+04  5.31609E+04 -7.81351E+02
  3.53106E+04  5.26961E+04 -1.71714E+04  7.60357E+04 -6.09997E+04  6.43063E+04 -8.51791E+04  3.21097E+04
 -8.25376E+04 -1.12265E+04 -5.76027E+04 -5.30472E+04 -1.55035E+04 -7.11907E+04  2.82313E+04 -4.66689E+04
  4.03854E+04  4.38199E+03  1.69368E+04  4.78849E+04 -3.42354E+04  4.80603E+04 -6.75196E+04  3.02414E+02
 -5.43705E+04 -5.77673E+04 -7.53886E+03 -7.84158E+04  3.42661E+04 -5.73996E+04  4.93076E+04 -1.83555E+04
  4.50594E+04  1.19359E+04  3.25271E+04  2.68282E+04  1.61517E+04  3.05650E+04 -6.26800E+03  2.74685E+04
 -2.30800E+04  1.20968E+04 -1.78933E+04 -5.98257E+03  6.76683E+03 -8.18211E+03  2.36089E+04  1.39511E+04
  7.51615E+03  3.75070E+04 -3.32262E+04  3.70429E+04 -6.69020E+04  2.45067E+03 -5.82687E+04 -4.48252E+04
 -1.32062E+04 -6.56256E+04  4.21433E+04 -4.79615E+04  6.15545E+04 -2.98196E+03  3.68974E+04  3.40619E+04
 -5.37493E+03  3.90030E+04 -3.24647E+04  1.86732E+04 -3.40356E+04 -3.38824E+03 -1.92174E+04 -1.24821E+04
 -9.99200E+03 -1.53107E+04 -6.21658E+02 -1.99438E+04  8.66563E+03 -2.41663E+04  1.59870E+04 -1.21044E+04
  1.08530E+04  5.87740E+03 -1.07167E+04  1.35399E+04 -2.38462E+04 -6.58418E+03 -9.00333E+03 -3.70334E+04
  2.45373E+04 -4.67181E+04  5.14980E+04 -2.13390E+04  4.79483E+04  2.12781E+04  1.64748E+04  4.69533E+04
 -1.67384E+04  3.58084E+04 -2.80942E+04  2.39585E+03 -1.15285E+04 -3.00623E+04  2.12259E+04 -3.73936E+04
  4.50882E+04 -1.15355E+04  4.06845E+04  2.47927E+04  2.05981E+04  5.18108E+04 -8.57728E+03  5.59830E+04
 -3.48659E+04  3.81214E+04 -4.71568E+04  1.11497E+04 -4.74232E+04 -1.83552E+04 -2.57198E+04 -4.15285E+04
  8.32427E+03 -4.28886E+04  3.45808E+04 -1.78205E+04  3.26549E+04  1.07624E+04  4.67714E+03  2.12121E+04
 -1.38585E+04  1.01822E+04 -1.17704E+04 -7.80889E+03  7.08897E+03 -1.12601E+04  1.89183E+04  6.08239E+03
  1.50293E+04  2.20739E+04 -5.24197E+03  2.73938E+04 -2.26772E+04  1.48797E+04 -3.26721E+04 -3.65965E+03
 -2.57071E+04 -1.89841E+04 -1.17960E+04 -2.54630E+04  4.27634E+03 -2.57619E+04  2.02161E+04 -2.25611E+04
  3.23573E+04 -1.49231E+04  3.78950E+04  4.93694E+03  2.68859E+04  2.52316E+04  5.35580E+03  4.09285E+04
 -2.06058E+04  3.46435E+04 -3.13924E+04  1.23749E+04 -2.20806E+04 -1.06865E+04 -4.64370E+03 -1.26887E+04
  1.40660E+03 -8.55418E+02 -7.11179E+03  9.23152E+03 -2.05515E+04  5.25772E+03 -1.94020E+04 -1.04491E+04
 -1.20831E+04 -2.36308E+04  5.69146E+03 -2.79395E+04  1.98055E+04 -2.05029E+04  2.24050E+04 -2.21495E+03
  1.42819E+04  1.62209E+04 -8.53717E+02  2.33241E+04 -1.72657E+04  1.30032E+04 -2.41103E+04 -4.61585E+03
 -1.73729E+04 -2.10687E+04 -2.33345E+03 -2.89482E+04  1.23289E+04 -2.36099E+04  2.34875E+04 -1.18883E+04
  2.18592E+04 -5.67006E+01  1.63350E+04  6.35026E+03  7.86340E+03  1.59512E+03  1.20811E+04 -2.00783E+03
  2.33515E+04  2.93361E+03  2.62021E+04  1.82482E+04  1.71090E+04  3.73421E+04 -2.54581E+03  4.45902E+04
 -2.48827E+04  3.71431E+04 -4.24902E+04  1.86939E+04 -4.55751E+04 -3.28189E+03 -3.61829E+04 -2.64933E+04
 -1.37877E+04 -3.71134E+04  1.33812E+04 -3.39879E+04  2.88318E+04 -1.55508E+04  2.44232E+04  7.66649E+03
  7.80667E+03  1.96211E+04 -1.12529E+04  1.62189E+04 -2.03166E+04  2.45941E+03 -1.63940E+04 -1.31479E+04
 -4.88378E+02 -1.95183E+04  1.14054E+04 -1.41054E+04  1.26036E+04 -2.08312E+03  3.83553E+03  9.33429E+03
 -9.11684E+03  4.42097E+03 -9.44210E+03 -7.02161E+03 -1.30866E+03 -1.89715E+04  1.20806E+04 -1.94835E+04
  2.33829E+04 -1.09950E+04  2.76490E+04  3.89669E+03  2.39694E+04  1.88375E+04  1.07571E+04  2.93798E+04
 -5.67060E+03  3.14858E+04 -2.08749E+04  1.94109E+04 -2.26384E+04  3.69189E+03 -1.61489E+04 -5.93813E+03
 -7.02783E+03 -7.03901E+03 -1.32788E+03  1.17917E+03 -3.18304E+03  3.45013E+03 -7.16463E+03  4.61920E+03
 -1.42847E+04 -3.91321E+02 -1.45855E+04 -1.13499E+04 -5.89990E+03 -1.94970E+04  6.07697E+03 -1.61108E+04
  1.36298E+04 -6.15716E+03  9.07586E+03  4.43931E+03 -3.31353E+02  6.77351E+03 -7.61426E+03  1.62121E+02
 -8.13021E+03 -9.16610E+03 -9.57074E+02 -1.56301E+04  8.07664E+03 -1.70110E+04  1.99610E+04 -8.86821E+03
  2.28373E+04  2.19554E+03  1.66366E+04  1.52964E+04  2.98254E+03  1.94756E+04 -9.81134E+03  1.54277E+04
 -1.28926E+04  4.59840E+03 -6.46905E+03 -3.81886E+03  1.58254E+03 -5.18936E+03  8.48438E+03 -9.53048E+02
  7.02501E+03  6.79548E+03  8.77760E+02  1.26965E+04 -9.50946E+03  1.13964E+04 -1.64178E+04  2.24988E+03
 -1.14002E+04 -8.33790E+03 -1.25248E+02 -1.29411E+04  9.16317E+03 -5.99094E+03  9.93729E+03  3.11755E+03
  2.57554E+03  1.05130E+04 -7.93807E+03  1.20009E+04 -1.50460E+04  4.94632E+03 -1.40219E+04 -4.43710E+03
 -8.10674E+03 -1.68530E+04  4.42465E+03 -1.95212E+04  1.54948E+04 -1.14770E+04  1.78250E+04  3.02845E+03
  1.03628E+04  1.34279E+04 -2.21606E+03  1.63604E+04 -1.27888E+04  8.33484E+03 -1.32817E+04 -1.03236E+03
 -1.14616E+04 -1.05765E+04 -2.06292E+03 -1.23750E+04  6.93135E+03 -1.05535E+04  7.86272E+03 -3.30188E+03
  5.87664E+03  2.27651E+03 -1.59588E+03  1.94148E+03 -9.14807E+02 -3.32700E+03  2.06836E+03 -8.05077E+03
  1.21508E+04 -5.47353E+03  1.66867E+04  1.28391E+03  1.65633E+04  1.12716E+04  1.02380E+04  2.19315E+04
 -4.24531E+03  2.55753E+04 -2.12901E+04  1.81969E+04 -2.65474E+04  3.12524E+03 -2.15326E+04 -8.66422E+03
 -9.96425E+03 -1.76200E+04  2.57784E+02 -1.56244E+04  5.44221E+03 -8.11699E+03  4.27232E+03 -5.24053E+03
  3.85102E+03 -2.84609E+03  4.66673E+03 -4.33561E+03  5.07127E+03 -3.50246E+03  8.27688E+03 -6.59475E+02
  1.17356E+04  2.54272E+03  5.58666E+03  1.10865E+04 -2.40925E+03  1.13691E+04 -1.17872E+04  8.33645E+03
 -1.55007E+04 -1.59606E+03 -9.67780E+03 -1.07339E+04 -6.31363E+02 -1.62200E+04  9.34153E+03 -1.65008E+04
  1.77331E+04 -9.24554E+03  2.10672E+04  3.13131E+03  1.43943E+04  1.48714E+04  2.41951E+03  1.90067E+04
 -7.53343E+03  1.52508E+04 -1.08130E+04  5.73620E+03 -7.01708E+03 -2.64518E+03 -3.40570E+03 -2.56315E+03
 -1.96826E+03 -3.89070E+02 -2.01504E+03  3.40658E+03 -5.93817E+03  3.38824E+03 -1.09557E+04 -1.36643E+03
 -8.22321E+03 -1.03616E+04 -1.15635E+03 -1.54055E+04  8.75324E+03 -1.38140E+04  1.60383E+04 -5.30312E+03
  1.54427E+04  8.12809E+03  6.54104E+03  1.38510E+04 -2.90195E+03  1.63967E+04 -1.16508E+04  1.02901E+04
 -1.56599E+04  7.28031E+02 -1.07313E+04 -9.63102E+03 -5.46324E+02 -1.40396E+04  6.46703E+03 -9.46653E+03
  9.34459E+03 -2.53328E+03  7.65192E+03  2.85617E+03  1.99916E+03  4.73859E+03  1.78340E+03  2.40758E+03
  2.92601E+03  1.31993E+03  4.40065E+03  2.20830E+03  5.45273E+03  5.44962E+03  3.33197E+03  8.70817E+03
 -2.87249E+03  1.22419E+04 -1.11383E+04  1.26505E+04 -1.67223E+04  2.92562E+03 -1.71935E+04 -6.67509E+03
 -7.94665E+03 -1.52779E+04  1.95615E+03 -1.70561E+04  1.01968E+04 -1.15842E+04  1.37246E+04 -2.80911E+03
  1.04033E+04  6.53016E+03  2.54206E+03  8.53921E+03 -4.18232E+03  6.73643E+03 -6.06304E+03 -5.22936E+02
 -2.92315E+03 -6.83026E+03  3.42451E+03 -7.52369E+03  6.68442E+03 -4.26466E+03  5.78254E+03  1.82346E+03
  4.30558E+03  3.20275E+03  1.65087E+03  2.55368E+03 -5.85248E+02  1.97523E+03  1.60619E+03 -7.33678E+02
  2.89040E+03 -1.02725E+03  7.18567E+03  2.17183E+03  3.56038E+03  8.94128E+03 -1.13981E+03  1.07470E+04
 -7.87714E+03  7.18599E+03 -1.03659E+04  1.89138E+03 -9.52393E+03 -3.42143E+03 -3.32445E+03 -5.99441E+03
 -3.06105E+02 -7.45479E+03  3.97882E+03 -2.81584E+03  3.80271E+03  2.94917E+03 -1.51493E+03  6.02836E+03
 -6.77324E+03  4.03683E+03 -7.97442E+03 -3.39274E+03 -5.26515E+03 -7.55632E+03  1.44924E+03 -9.06001E+03
  5.25673E+03 -5.19609E+03  6.69461E+03 -5.94865E+02  4.88571E+03  2.25773E+03  4.85797E+02  5.49177E+03
 -2.37487E+03  8.29700E+02 -4.60466E+03 -3.29620E+03  1.87995E+03 -7.30402E+03  8.89717E+03 -6.02437E+03
  1.08395E+04  1.02954E+03  9.91176E+03  6.86718E+03  2.75534E+03  1.06528E+04 -4.46626E+03  9.88069E+03
 -9.02810E+03  4.65827E+03 -9.38499E+03 -1.20768E+03 -5.14865E+03 -7.81262E+03  1.17382E+03 -6.28494E+03
  6.90561E+03 -2.87117E+03  5.24806E+03  2.91901E+03  1.36923E+03  6.33719E+03 -1.48005E+03  5.55665E+03
 -2.74978E+03  4.39785E+03 -2.69983E+03  6.25859E+02 -9.98728E+02  4.75109E+02 -2.10514E+03  2.19135E+03
 -1.69236E+03  4.13770E+03 -7.19519E+03  3.34112E+03 -1.10327E+04  2.08556E+02 -1.23485E+04 -7.72017E+03
 -5.92828E+03 -1.43867E+04  2.98746E+03 -1.64116E+04  1.01977E+04 -1.37359E+04  1.63314E+04 -4.99998E+03
  1.56748E+04  2.24335E+03  9.64830E+03  1.01541E+04  1.20914E+03  1.12167E+04 -4.48775E+03  8.92934E+03
 -6.28476E+03  2.55517E+03 -4.50072E+03 -1.10529E+03 -1.55496E+03 -6.62060E+02 -8.85191E+02 -3.25926E+02
 -1.96870E+03  5.59345E+02 -2.69073E+03 -5.97816E+02 -1.26449E+03 -1.59602E+03  4.06145E+02 -3.57699E+03
  5.20744E+03 -3.14897E+03  7.53491E+03  1.88998E+02  8.57146E+03  6.57706E+03  2.02473E+03  1.15254E+04
 -6.45831E+03  1.33690E+04 -1.22963E+04  8.38314E+03 -1.51470E+04 -1.65290E+03 -1.10375E+04 -8.81342E+03
 -4.11644E+03 -1.19590E+04  2.77646E+03 -1.03096E+04  7.87736E+03 -5.32968E+03  6.76577E+03 -4.45146E+02
  4.03351E+03  4.05445E+03 -6.11953E+02  3.52061E+03 -1.92703E+03 -2.88295E+02  6.33042E+02 -3.21671E+03
  3.46830E+03 -1.76926E+03  5.23760E+03  1.37119E+03  2.58671E+03  5.44843E+03  1.63448E+02  6.46075E+03
 -4.12369E+03  6.47877E+03 -8.66762E+03  1.12131E+03 -7.50814E+03 -5.24955E+03 -1.63420E+03 -9.98349E+03
  6.26439E+03 -8.61873E+03  9.32596E+03 -3.05483E+03  9.43839E+03  2.46449E+03  4.12636E+03  6.81944E+03
  7.72069E+02  7.63992E+03 -3.30390E+03  5.97750E+03 -5.09670E+03  2.83321E+03 -4.00844E+03  5.98869E+02
 -2.18579E+03 -1.44755E+03 -2.24433E+03  4.56278E+01 -4.77289E+03  1.42363E+03 -6.83557E+03 -1.19213E+03
 -6.08251E+03 -4.12853E+03 -2.39937E+03 -7.95875E+03  3.68567E+03 -8.29712E+03  7.35927E+03 -4.20848E+03
  7.98200E+03  1.61790E+03  4.31936E+03  5.21101E+03 -5.10857E+02  7.94003E+03 -6.15961E+03  5.21038E+03
