 $NMID ID='MM_0lb_SNR400_9hz_g40_43.RAW', FMTDAT='(8E13.5)'
 TRAMP=1., VOLUME=1. $END
  3.10307E+05  8.18729E+01  3.38494E+05  2.51812E+05  8.46746E+04  3.38395E+05 -1.32967E+05  2.51153E+05
 -1.90039E+05  8.33036E+04 -1.12735E+05 -3.29470E+04  7.79726E+02 -4.95305E+04  5.39650E+04 -4.67824E+02
  3.57098E+04  5.25929E+04 -1.66753E+04  7.70687E+04 -6.08006E+04  6.44729E+04 -8.48169E+04  3.20970E+04
 -8.29660E+04 -1.21082E+04 -5.81047E+04 -5.22061E+04 -1.56833E+04 -7.10183E+04  2.85749E+04 -4.66455E+04
  4.12139E+04  4.10892E+03  1.68728E+04  4.78395E+04 -3.46583E+04  4.79109E+04 -6.77762E+04 -3.82968E+02
 -5.47165E+04 -5.77089E+04 -7.47223E+03 -7.87176E+04  3.44439E+04 -5.64450E+04  5.00880E+04 -1.76420E+04
  4.53792E+04  1.14446E+04  3.28355E+04  2.60894E+04  1.53866E+04  3.03312E+04 -6.18671E+03  2.76708E+04
 -2.23465E+04  1.16776E+04 -1.74097E+04 -4.69272E+03  6.40052E+03 -8.01208E+03  2.36463E+04  1.32711E+04
  6.85445E+03  3.73272E+04 -3.38082E+04  3.61994E+04 -6.49928E+04  1.66399E+03 -5.90902E+04 -4.37538E+04
 -1.14619E+04 -6.52442E+04  4.12429E+04 -4.76192E+04  6.09231E+04 -2.36751E+03  3.63595E+04  3.40241E+04
 -5.64034E+03  3.86855E+04 -3.17212E+04  1.83276E+04 -3.21704E+04 -3.58401E+03 -1.88639E+04 -1.16529E+04
 -8.27597E+03 -1.44147E+04 -6.65278E+02 -1.92029E+04  8.71619E+03 -2.40832E+04  1.57983E+04 -1.26347E+04
  1.06588E+04  5.37022E+03 -9.94044E+03  1.24049E+04 -2.23001E+04 -6.29607E+03 -9.32546E+03 -3.63742E+04
  2.44027E+04 -4.58378E+04  5.16802E+04 -2.03189E+04  4.72148E+04  2.01283E+04  1.67698E+04  4.66292E+04
 -1.66935E+04  3.56438E+04 -2.75688E+04  1.58553E+03 -1.11778E+04 -2.96734E+04  2.18389E+04 -3.65872E+04
  4.37090E+04 -9.45051E+03  3.95157E+04  2.52462E+04  2.06121E+04  4.99534E+04 -8.37066E+03  5.57218E+04
 -3.49281E+04  3.67690E+04 -4.67534E+04  1.10482E+04 -4.62316E+04 -1.83635E+04 -2.59679E+04 -4.16563E+04
  7.48367E+03 -4.15497E+04  3.37676E+04 -1.67401E+04  3.14214E+04  1.04458E+04  4.79391E+03  2.03764E+04
 -1.32772E+04  9.37288E+03 -1.13058E+04 -7.76993E+03  6.13363E+03 -1.09927E+04  1.80636E+04  6.52589E+03
  1.44898E+04  2.24224E+04 -5.36257E+03  2.71850E+04 -2.32709E+04  1.33599E+04 -3.07584E+04 -3.24951E+03
 -2.44375E+04 -1.86560E+04 -1.13568E+04 -2.35265E+04  3.93292E+03 -2.51789E+04  1.78898E+04 -2.19380E+04
  3.10715E+04 -1.43262E+04  3.73575E+04  5.01760E+03  2.67213E+04  2.31834E+04  4.43576E+03  4.06379E+04
 -1.88176E+04  3.26989E+04 -3.04009E+04  1.21853E+04 -2.17032E+04 -1.09203E+04 -4.78780E+03 -1.27092E+04
  1.10990E+03 -2.14327E+03 -6.89969E+03  7.86857E+03 -1.96724E+04  5.38818E+03 -2.01405E+04 -8.80013E+03
 -1.23945E+04 -2.26840E+04  6.48197E+03 -2.77743E+04  1.84935E+04 -1.96556E+04  2.15176E+04 -1.91756E+03
  1.36083E+04  1.56118E+04 -1.38292E+03  2.23392E+04 -1.60872E+04  1.36378E+04 -2.26401E+04 -4.67193E+03
 -1.56620E+04 -1.94700E+04 -1.69250E+03 -2.71652E+04  1.20699E+04 -2.29015E+04  2.25537E+04 -1.15883E+04
  2.11245E+04 -6.07841E+02  1.56783E+04  5.04099E+03  9.18271E+03  1.33611E+03  1.08159E+04 -9.30781E+02
  2.09216E+04  3.03158E+03  2.43906E+04  1.78026E+04  1.73004E+04  3.63675E+04 -2.12566E+03  4.16450E+04
 -2.48803E+04  3.58117E+04 -4.00612E+04  1.69542E+04 -4.19610E+04 -2.72636E+03 -3.49579E+04 -2.41851E+04
 -1.27219E+04 -3.61752E+04  1.30365E+04 -3.16234E+04  2.74429E+04 -1.43441E+04  2.36402E+04  8.02399E+03
  8.27197E+03  1.83298E+04 -1.18554E+04  1.49023E+04 -2.01003E+04  3.29370E+03 -1.51769E+04 -1.28942E+04
 -6.61727E+02 -1.83535E+04  9.89420E+03 -1.42372E+04  1.24054E+04 -1.65155E+03  3.68900E+03  7.89295E+03
 -8.77516E+03  4.02505E+03 -8.25950E+03 -6.58526E+03 -1.70685E+03 -1.80045E+04  1.13845E+04 -1.89894E+04
  2.18002E+04 -1.11372E+04  2.48543E+04  2.44844E+03  2.11122E+04  1.72997E+04  1.00899E+04  2.77755E+04
 -5.20441E+03  2.97522E+04 -1.97187E+04  1.89652E+04 -2.23939E+04  4.83444E+03 -1.47677E+04 -5.40768E+03
 -6.69596E+03 -6.86889E+03 -4.48491E+02  3.89637E+02 -3.73332E+03  3.46537E+03 -6.77883E+03  4.62333E+03
 -1.36205E+04 -1.07817E+03 -1.38249E+04 -1.14472E+04 -5.93095E+03 -1.88568E+04  5.78904E+03 -1.47509E+04
  1.16848E+04 -6.20945E+03  9.23840E+03  3.07975E+03 -3.73878E+02  6.44089E+03 -7.73680E+03  1.57665E+02
 -8.06445E+03 -9.94505E+03 -8.76732E+02 -1.51536E+04  8.60649E+03 -1.53956E+04  1.85364E+04 -8.64725E+03
  2.30027E+04  2.41851E+03  1.57401E+04  1.39554E+04  2.79344E+03  1.77097E+04 -8.40201E+03  1.47010E+04
 -1.19080E+04  3.98495E+03 -6.14273E+03 -3.69691E+03  1.30291E+03 -4.19224E+03  8.77740E+03 -1.37844E+03
  7.07773E+03  6.14377E+03  1.36430E+03  1.15636E+04 -8.35466E+03  1.14257E+04 -1.43839E+04  3.24498E+03
 -1.06600E+04 -7.72278E+03  6.83367E+01 -1.32278E+04  8.25066E+03 -6.72676E+03  8.34544E+03  3.06295E+03
  1.70189E+03  9.36120E+03 -8.28707E+03  1.08256E+04 -1.25247E+04  4.30580E+03 -1.28166E+04 -5.12828E+03
 -7.15504E+03 -1.42944E+04  3.49169E+03 -1.74703E+04  1.40997E+04 -1.07904E+04  1.57031E+04  2.57465E+03
  9.00052E+03  1.22773E+04 -1.08211E+03  1.51715E+04 -1.07613E+04  8.30373E+03 -1.20927E+04 -1.33809E+03
 -9.74309E+03 -1.00313E+04 -2.06602E+03 -1.15488E+04  6.80152E+03 -9.14539E+03  6.94084E+03 -3.44148E+03
  5.25006E+03  2.69682E+03 -8.12729E+02  1.81411E+03 -1.11014E+03 -3.72929E+03  2.02765E+03 -6.89518E+03
  1.14738E+04 -4.32084E+03  1.52880E+04  1.37352E+03  1.48518E+04  1.04138E+04  9.75219E+03  1.93873E+04
 -4.48570E+03  2.29389E+04 -1.95428E+04  1.65970E+04 -2.51770E+04  3.43331E+03 -2.01509E+04 -8.30505E+03
 -9.68539E+03 -1.60756E+04 -9.21641E+02 -1.45342E+04  5.05641E+03 -7.87791E+03  5.90596E+03 -5.28640E+03
  3.65601E+03 -3.71784E+03  4.20110E+03 -4.31384E+03  5.49762E+03 -3.60064E+03  8.09978E+03 -1.14920E+03
  9.84980E+03  2.56687E+03  5.79274E+03  8.85550E+03 -1.61786E+03  1.06837E+04 -9.98502E+03  8.14391E+03
 -1.42032E+04 -1.43057E+03 -9.08873E+03 -1.02130E+04 -9.76576E+02 -1.49557E+04  8.41832E+03 -1.50962E+04
  1.50564E+04 -7.97547E+03  1.93021E+04  3.04900E+03  1.26234E+04  1.19115E+04  9.03113E+02  1.62766E+04
 -7.59734E+03  1.43870E+04 -9.88842E+03  4.48412E+03 -6.53095E+03 -1.24517E+03 -2.65735E+03 -1.71869E+03
 -8.52448E+02  2.66731E+02 -1.62114E+03  2.30245E+03 -5.52736E+03  2.36505E+03 -1.02544E+04 -1.61933E+03
 -5.98408E+03 -9.21890E+03  5.38881E+02 -1.41773E+04  8.75247E+03 -1.20040E+04  1.39093E+04 -3.53545E+03
  1.39611E+04  6.54794E+03  6.64360E+03  1.28078E+04 -3.14916E+03  1.37441E+04 -1.03111E+04  9.05284E+03
 -1.32721E+04  5.87250E+02 -9.55941E+03 -7.90588E+03 -9.54076E+02 -1.17847E+04  6.07206E+03 -8.80879E+03
  8.16903E+03 -2.86743E+03  5.94879E+03  2.03299E+03  1.99483E+03  3.82255E+03  1.65632E+03  1.97202E+03
  2.38484E+03  3.98647E+02  3.63325E+03  1.56654E+03  3.51344E+03  5.03819E+03  3.68130E+03  7.67015E+03
 -2.88318E+03  1.08515E+04 -9.56597E+03  1.21117E+04 -1.47269E+04  2.88503E+03 -1.51824E+04 -6.34136E+03
 -7.42813E+03 -1.38603E+04  2.55106E+03 -1.52760E+04  8.79475E+03 -8.78353E+03  1.10744E+04 -3.21701E+03
  9.88697E+03  6.01254E+03  2.25471E+03  8.35500E+03 -3.04187E+03  4.86531E+03 -5.68872E+03 -1.12052E+03
 -2.57519E+03 -6.15610E+03  2.50450E+03 -6.71235E+03  6.38152E+03 -3.15688E+03  6.41628E+03  8.00982E+02
  3.21185E+03  3.05721E+03  1.86880E+03  3.01503E+03 -6.50257E+02  1.48318E+03  2.42558E+03 -7.08155E+02
  1.98723E+03 -4.27574E+02  5.62177E+03  2.38191E+03  3.01891E+03  7.50334E+03 -1.55361E+03  1.03034E+04
 -7.05201E+03  6.38668E+03 -8.30422E+03  1.68534E+03 -8.08271E+03 -4.18779E+03 -2.71916E+03 -5.31340E+03
  8.85008E+02 -5.47222E+03  3.64241E+03 -2.88751E+03  2.45009E+03  2.42112E+03 -5.47093E+02  4.99286E+03
 -5.66091E+03  3.32373E+03 -6.55638E+03 -3.68778E+03 -3.97928E+03 -7.57620E+03  8.15841E+02 -8.52604E+03
  4.72371E+03 -4.70376E+03  5.47593E+03 -1.30525E+03  4.45230E+03  2.25436E+03  7.65899E+02  5.01293E+03
 -2.83237E+03  1.45877E+03 -3.83020E+03 -2.62712E+03  1.01949E+03 -5.98091E+03  6.98760E+03 -5.56571E+03
  8.85721E+03  1.03244E+03  8.31436E+03  5.60344E+03  2.64864E+03  9.47699E+03 -3.45944E+03  9.65602E+03
 -7.12582E+03  4.35123E+03 -8.01808E+03 -1.52017E+03 -4.41413E+03 -6.49059E+03  9.56665E+02 -6.18117E+03
  5.45684E+03 -2.53483E+03  5.14652E+03  2.72133E+03  1.58833E+03  5.28535E+03  7.60800E+01  4.58297E+03
 -2.41647E+03  3.55661E+03 -2.13073E+03  7.55747E+02 -1.01435E+03  7.76243E+02 -1.35367E+03  1.86510E+03
 -2.39881E+03  3.70354E+03 -6.59621E+03  3.31160E+03 -9.93020E+03  6.80350E+02 -1.04921E+04 -6.02200E+03
 -6.04880E+03 -1.25727E+04  2.35578E+03 -1.36878E+04  8.60776E+03 -1.10537E+04  1.38084E+04 -4.00883E+03
  1.26353E+04  2.49452E+03  7.51028E+03  9.31347E+03  1.13564E+03  9.98833E+03 -3.97889E+03  7.32734E+03
 -5.83557E+03  3.10002E+03 -3.45476E+03 -1.02780E+03 -2.10512E+03 -7.20343E+02 -9.00865E+02 -5.86563E+02
 -1.30204E+03 -3.17214E+02 -2.29455E+03  5.49899E+01 -1.16681E+03 -2.98204E+03 -4.93517E+02 -3.87231E+03
  4.59257E+03 -2.41300E+03  6.41210E+03  2.88648E+02  7.12001E+03  4.79568E+03  1.57975E+03  1.01494E+04
 -5.10743E+03  1.01707E+04 -1.01017E+04  6.12236E+03 -1.17586E+04 -5.27333E+02 -9.24832E+03 -7.26947E+03
 -4.03233E+03 -1.02552E+04  2.42273E+03 -8.96320E+03  6.31984E+03 -5.01527E+03  6.27892E+03  1.91572E+02
  4.33104E+03  3.19110E+03 -5.09457E+02  3.05888E+03 -1.58419E+03 -4.62985E+01  2.77485E+02 -2.82035E+03
  3.81906E+03 -1.55795E+03  3.41339E+03  8.92018E+02  1.92642E+03  4.44745E+03  3.26916E+02  5.42080E+03
 -5.00095E+03  4.86294E+03 -7.05486E+03  8.06475E+02 -6.24092E+03 -4.91574E+03 -8.36384E+02 -8.63463E+03
  4.92154E+03 -7.01295E+03  7.67775E+03 -2.05659E+03  7.74406E+03  2.07650E+03  4.16208E+03  6.38103E+03
  5.99549E+02  6.55513E+03 -2.32590E+03  5.53803E+03 -4.60649E+03  3.49138E+03 -3.80666E+03  6.78667E+02
 -1.19442E+03 -6.70027E+02 -2.34150E+03  1.28632E+03 -3.25638E+03  1.43813E+03 -4.85806E+03 -1.19271E+03
 -4.22423E+03 -3.79189E+03 -1.58743E+03 -6.37156E+03  3.97776E+03 -6.76008E+03  4.88787E+03 -3.34986E+03
  7.12499E+03  4.01663E+02  3.25749E+03  5.39151E+03 -3.71236E+02  6.91900E+03 -4.62476E+03  4.74523E+03
