 $NMID ID='MM_0lb_SNR400_8hz_g40_48.RAW', FMTDAT='(8E13.5)'
 TRAMP=1., VOLUME=1. $END
  3.09655E+05 -5.11335E+02  3.37028E+05  2.50482E+05  8.49050E+04  3.39038E+05 -1.33477E+05  2.51062E+05
 -1.91548E+05  8.41293E+04 -1.12910E+05 -3.22866E+04  7.91781E+02 -5.16375E+04  5.34259E+04 -2.04525E+02
  3.55996E+04  5.25538E+04 -1.66732E+04  7.54540E+04 -6.07723E+04  6.42223E+04 -8.65376E+04  3.23666E+04
 -8.21820E+04 -1.23034E+04 -5.80869E+04 -5.29211E+04 -1.52824E+04 -7.12279E+04  2.69996E+04 -4.68237E+04
  4.04561E+04  3.83937E+03  1.70969E+04  4.83660E+04 -3.57904E+04  4.81937E+04 -6.84525E+04 -1.20061E+02
 -5.51823E+04 -5.82209E+04 -7.80480E+03 -7.86707E+04  3.38705E+04 -5.69982E+04  5.05988E+04 -1.92241E+04
  4.52338E+04  1.20252E+04  3.29545E+04  2.75270E+04  1.62393E+04  3.00595E+04 -5.45687E+03  2.81392E+04
 -2.30738E+04  1.23536E+04 -1.81768E+04 -6.10802E+03  7.10692E+03 -7.11600E+03  2.30666E+04  1.37554E+04
  6.76536E+03  3.82515E+04 -3.36265E+04  3.72693E+04 -6.51562E+04  2.02660E+03 -5.92218E+04 -4.50264E+04
 -1.24611E+04 -6.57346E+04  4.17124E+04 -4.68605E+04  6.15481E+04 -2.49202E+03  3.51747E+04  3.44592E+04
 -5.73060E+03  3.93375E+04 -3.22389E+04  1.92516E+04 -3.36589E+04 -3.48141E+03 -1.90761E+04 -1.14169E+04
 -9.46627E+03 -1.51171E+04 -5.46944E+02 -1.95853E+04  8.45637E+03 -2.43304E+04  1.58106E+04 -1.25862E+04
  1.01254E+04  5.36649E+03 -1.05025E+04  1.40058E+04 -2.27744E+04 -6.16097E+03 -8.73403E+03 -3.76184E+04
  2.50842E+04 -4.67926E+04  5.25677E+04 -2.09014E+04  4.92428E+04  2.11025E+04  1.67265E+04  4.65489E+04
 -1.65462E+04  3.55078E+04 -2.74254E+04  2.10899E+03 -1.21417E+04 -2.96063E+04  2.20893E+04 -3.58408E+04
  4.53987E+04 -1.10770E+04  3.98081E+04  2.55300E+04  2.10544E+04  5.16463E+04 -8.31842E+03  5.62288E+04
 -3.54038E+04  3.89206E+04 -4.76935E+04  1.21676E+04 -4.73415E+04 -1.88686E+04 -2.58453E+04 -4.29373E+04
  8.36701E+03 -4.31801E+04  3.35634E+04 -1.72758E+04  3.18711E+04  1.09259E+04  5.93394E+03  2.04250E+04
 -1.39711E+04  1.00202E+04 -1.05912E+04 -7.82026E+03  6.30355E+03 -1.11319E+04  1.84890E+04  4.59342E+03
  1.52767E+04  2.30482E+04 -4.76732E+03  2.72794E+04 -2.33183E+04  1.44848E+04 -3.22363E+04 -2.69439E+03
 -2.59726E+04 -1.93448E+04 -1.15871E+04 -2.51904E+04  4.74818E+03 -2.54819E+04  2.04119E+04 -2.34291E+04
  3.26117E+04 -1.38218E+04  3.84240E+04  5.61056E+03  2.71293E+04  2.44594E+04  4.34263E+03  4.22131E+04
 -2.07024E+04  3.34711E+04 -2.99756E+04  1.23505E+04 -2.24922E+04 -1.02938E+04 -4.81685E+03 -1.27774E+04
 -5.27286E+02 -4.22367E+02 -8.08669E+03  7.23648E+03 -2.02651E+04  4.34141E+03 -2.04644E+04 -1.02318E+04
 -1.19288E+04 -2.26853E+04  6.53554E+03 -2.79797E+04  1.82254E+04 -2.03450E+04  2.21694E+04 -1.76303E+03
  1.49423E+04  1.58271E+04 -1.94924E+03  2.37041E+04 -1.68702E+04  1.33384E+04 -2.35930E+04 -4.66778E+03
 -1.72812E+04 -2.15373E+04 -2.09328E+03 -2.94849E+04  1.28996E+04 -2.34805E+04  2.40966E+04 -1.23077E+04
  2.26933E+04  4.63735E+02  1.62929E+04  5.11533E+03  8.72484E+03  2.06718E+03  1.29292E+04 -2.56363E+03
  2.26447E+04  2.51127E+03  2.55502E+04  1.87373E+04  1.87845E+04  3.77941E+04 -2.97540E+03  4.46237E+04
 -2.62284E+04  3.70284E+04 -4.22835E+04  1.92277E+04 -4.49004E+04 -2.93412E+03 -3.61513E+04 -2.66156E+04
 -1.35865E+04 -3.82336E+04  1.34548E+04 -3.22045E+04  2.89005E+04 -1.49794E+04  2.43562E+04  8.23246E+03
  7.84546E+03  2.00440E+04 -1.19103E+04  1.52919E+04 -2.06857E+04  2.29180E+03 -1.56489E+04 -1.28844E+04
 -7.38071E+02 -2.06895E+04  1.06114E+04 -1.48482E+04  1.33581E+04 -1.33400E+03  3.09332E+03  8.37226E+03
 -8.91350E+03  4.60026E+03 -9.25798E+03 -6.99910E+03 -1.13224E+03 -1.84066E+04  1.22711E+04 -2.03619E+04
  2.24818E+04 -1.17428E+04  2.74186E+04  3.27021E+03  2.34557E+04  1.78270E+04  1.10414E+04  2.92249E+04
 -5.53542E+03  3.15681E+04 -2.13596E+04  1.94227E+04 -2.34647E+04  4.45842E+03 -1.58531E+04 -5.70123E+03
 -6.91291E+03 -6.82066E+03 -6.57082E+02  6.43995E+02 -3.49865E+03  3.41053E+03 -7.53858E+03  5.52029E+03
 -1.47444E+04 -7.79140E+02 -1.52086E+04 -1.16603E+04 -5.63627E+03 -1.90627E+04  6.04327E+03 -1.56084E+04
  1.30241E+04 -7.61273E+03  1.00813E+04  5.04473E+03 -6.23894E+02  6.47200E+03 -7.62763E+03  5.64548E+01
 -7.97345E+03 -1.08588E+04 -5.54249E+02 -1.51705E+04  9.76591E+03 -1.71431E+04  2.08177E+04 -8.46757E+03
  2.52732E+04  2.99105E+03  1.76448E+04  1.43610E+04  3.33128E+03  1.90283E+04 -1.05281E+04  1.58051E+04
 -1.16077E+04  4.55244E+03 -5.96709E+03 -3.52659E+03  2.37418E+03 -4.62146E+03  8.05427E+03 -9.97714E+02
  7.85141E+03  7.30520E+03  4.68403E+02  1.18744E+04 -9.50782E+03  1.20354E+04 -1.54130E+04  2.87587E+03
 -1.07911E+04 -8.23637E+03  2.17092E+02 -1.44378E+04  8.94918E+03 -7.17233E+03  1.02389E+04  3.39480E+03
  2.81084E+03  1.02781E+04 -8.65106E+03  1.21639E+04 -1.42200E+04  5.49177E+03 -1.52448E+04 -5.27537E+03
 -8.18237E+03 -1.70039E+04  3.69122E+03 -1.83125E+04  1.61835E+04 -1.13093E+04  1.73856E+04  3.11569E+03
  1.10437E+04  1.31769E+04 -2.01415E+03  1.60117E+04 -1.21750E+04  9.07503E+03 -1.35795E+04 -3.96124E+02
 -1.06099E+04 -1.11874E+04 -1.06919E+03 -1.21531E+04  6.25572E+03 -9.45945E+03  7.64339E+03 -3.70294E+03
  4.33053E+03  2.64507E+03 -9.94607E+02  1.80866E+03 -1.28921E+03 -3.51141E+03  3.23922E+03 -7.62445E+03
  1.19270E+04 -5.83393E+03  1.71021E+04  1.66562E+03  1.68540E+04  1.18982E+04  1.02555E+04  2.17350E+04
 -5.87267E+03  2.48707E+04 -2.11380E+04  1.79413E+04 -2.68833E+04  2.99508E+03 -2.11374E+04 -1.00798E+04
 -1.03167E+04 -1.81614E+04 -9.13609E+01 -1.49973E+04  5.41678E+03 -8.42993E+03  6.20940E+03 -5.25090E+03
  3.62073E+03 -4.08288E+03  4.75356E+03 -4.32031E+03  6.24426E+03 -3.89646E+03  8.26796E+03 -1.20469E+03
  1.09283E+04  2.31683E+03  5.44308E+03  9.66114E+03 -2.25601E+03  1.15714E+04 -1.16326E+04  8.47366E+03
 -1.54258E+04 -1.39385E+03 -9.53211E+03 -1.12834E+04 -1.15412E+03 -1.61063E+04  8.79023E+03 -1.66917E+04
  1.74653E+04 -9.41150E+03  2.02269E+04  2.81165E+03  1.41422E+04  1.48095E+04  2.46764E+03  1.82158E+04
 -7.67000E+03  1.50179E+04 -1.00449E+04  5.14577E+03 -7.28640E+03 -2.29292E+03 -3.39197E+03 -2.86888E+03
 -1.11156E+03  1.49635E+02 -2.26280E+03  2.73234E+03 -6.44089E+03  2.47748E+03 -1.16525E+04 -1.70008E+03
 -7.33755E+03 -1.01135E+04  2.04563E+02 -1.55338E+04  9.50602E+03 -1.40871E+04  1.54688E+04 -4.96793E+03
  1.53591E+04  6.92313E+03  7.13760E+03  1.38870E+04 -2.87418E+03  1.58793E+04 -1.17247E+04  1.01727E+04
 -1.52817E+04  5.00498E+02 -1.15823E+04 -9.06865E+03 -8.07059E+02 -1.21626E+04  6.42319E+03 -9.93764E+03
  1.01621E+04 -2.96688E+03  7.39331E+03  3.24111E+03  1.64654E+03  4.80469E+03  2.42603E+03  1.98719E+03
  2.87309E+03  1.47150E+03  4.50921E+03  2.44497E+03  4.67851E+03  5.17560E+03  3.78523E+03  7.56279E+03
 -3.85989E+03  1.24179E+04 -1.07430E+04  1.27707E+04 -1.60768E+04  3.88464E+03 -1.71445E+04 -7.66035E+03
 -8.25360E+03 -1.59441E+04  2.28241E+03 -1.84984E+04  9.90680E+03 -1.14975E+04  1.34775E+04 -2.70946E+03
  1.05614E+04  6.18600E+03  2.18228E+03  9.58413E+03 -4.31968E+03  6.31484E+03 -6.55618E+03 -7.26755E+02
 -3.62324E+03 -7.33832E+03  3.14107E+03 -7.72283E+03  6.69574E+03 -3.28447E+03  6.92762E+03  1.53090E+03
  4.33068E+03  2.88980E+03  1.94171E+03  3.35653E+03 -1.10928E+03  2.78017E+03  1.54869E+03 -8.41951E+02
  2.50705E+03 -8.56656E+02  6.41292E+03  3.63415E+03  3.25501E+03  8.63133E+03 -1.98020E+03  1.18459E+04
 -8.14069E+03  7.59394E+03 -1.03119E+04  2.16027E+03 -9.41339E+03 -3.21895E+03 -4.36357E+03 -6.97184E+03
  1.26272E+02 -6.48597E+03  4.34028E+03 -2.52309E+03  3.06781E+03  2.71397E+03 -2.20467E+03  4.99412E+03
 -6.86976E+03  3.67990E+03 -7.64200E+03 -3.36818E+03 -4.30215E+03 -9.32156E+03  2.06508E+03 -8.74630E+03
  5.67082E+03 -5.55991E+03  6.74709E+03 -1.26112E+03  4.72440E+03  2.30931E+03  1.17261E+03  5.48392E+03
 -3.90302E+03  1.82582E+03 -3.06668E+03 -2.40227E+03  1.27528E+03 -7.24998E+03  7.86951E+03 -5.64503E+03
  1.07357E+04  9.96307E+02  1.07569E+04  7.22814E+03  2.02487E+03  1.14682E+04 -3.46486E+03  1.02801E+04
 -8.92393E+03  4.07832E+03 -9.08767E+03 -1.85695E+03 -5.73789E+03 -6.53875E+03  2.08638E+03 -7.17042E+03
  7.50293E+03 -3.91018E+03  6.25044E+03  2.48565E+03  2.06442E+03  6.05658E+03 -1.40320E+03  5.45443E+03
 -3.34898E+03  3.44724E+03 -2.01986E+03  1.59546E+03 -9.80379E+02  4.51731E+02 -1.51977E+03  2.71732E+03
 -2.42228E+03  4.32327E+03 -7.61655E+03  3.53584E+03 -1.11014E+04  1.39223E+03 -1.20564E+04 -7.50582E+03
 -5.89342E+03 -1.54493E+04  3.63323E+03 -1.71190E+04  1.07722E+04 -1.15856E+04  1.62584E+04 -4.13614E+03
  1.45018E+04  3.46755E+03  8.43378E+03  9.97438E+03  8.56607E+02  1.16537E+04 -3.85177E+03  8.34424E+03
 -6.17878E+03  3.67022E+03 -3.47828E+03 -9.21707E+02 -5.59126E+02 -1.15083E+03 -1.05143E+03 -9.41242E+01
 -2.29848E+03  5.90784E+02 -2.09585E+03 -7.66189E+02 -1.23960E+03 -3.31554E+03  6.37082E+02 -4.82936E+03
  4.31371E+03 -3.83994E+03  7.55728E+03 -1.33211E+02  8.32946E+03  6.26238E+03  1.22518E+03  1.22650E+04
 -5.59259E+03  1.36831E+04 -1.23733E+04  7.86077E+03 -1.38374E+04 -1.10420E+03 -1.04029E+04 -7.96033E+03
 -4.53177E+03 -1.31796E+04  3.69206E+03 -1.11022E+04  7.99744E+03 -5.83634E+03  7.60819E+03  1.26273E+03
  4.19544E+03  3.93229E+03 -1.22676E+03  4.72592E+03 -2.47001E+03  4.10693E+02  7.84730E+02 -3.14527E+03
  4.15802E+03 -1.77607E+03  4.78221E+03  1.79605E+03  2.88659E+03  5.15212E+03 -6.07330E+02  6.85323E+03
 -5.81906E+03  4.34063E+03 -7.87711E+03  1.00708E+03 -6.91275E+03 -6.58676E+03 -8.95841E+02 -1.04789E+04
  5.69038E+03 -7.98285E+03  9.99883E+03 -2.11856E+03  9.33738E+03  2.70630E+03  5.96325E+03  7.49212E+03
  1.44410E+03  8.27213E+03 -2.61577E+03  6.04501E+03 -4.34762E+03  2.88809E+03 -4.12332E+03  3.33170E+02
 -2.02755E+03 -7.05970E+02 -1.56892E+03  9.78902E+02 -4.07769E+03  1.46790E+03 -6.62271E+03 -8.41071E+02
 -5.70438E+03 -4.82803E+03 -2.02824E+03 -8.45021E+03  3.13461E+03 -8.58633E+03  7.51275E+03 -4.17631E+03
  7.35775E+03  4.96759E+02  4.53380E+03  6.10062E+03 -5.81745E+02  8.17493E+03 -6.19151E+03  5.32648E+03
