 $NMID ID='MM_0lb_SNR400_19hz_g50_5.RAW', FMTDAT='(8E13.5)'
 TRAMP=1., VOLUME=1. $END
  3.09997E+05  4.44655E+02  3.37455E+05  2.50604E+05  8.44186E+04  3.37593E+05 -1.32106E+05  2.50673E+05
 -1.89996E+05  8.28971E+04 -1.11144E+05 -3.28713E+04  1.25513E+03 -5.06409E+04  5.34027E+04  2.62704E+02
  3.54069E+04  5.32259E+04 -1.64908E+04  7.45312E+04 -6.00100E+04  6.25417E+04 -8.34186E+04  3.13214E+04
 -7.95179E+04 -1.08470E+04 -5.64822E+04 -5.03943E+04 -1.47212E+04 -6.85649E+04  2.68350E+04 -4.47368E+04
  3.89759E+04  4.04669E+03  1.54612E+04  4.72009E+04 -3.40986E+04  4.64962E+04 -6.56854E+04 -3.12534E+02
 -5.22101E+04 -5.62352E+04 -6.30770E+03 -7.55734E+04  3.31612E+04 -5.34974E+04  4.60065E+04 -1.63977E+04
  4.21230E+04  1.11195E+04  3.11543E+04  2.42855E+04  1.58547E+04  2.79006E+04 -5.03761E+03  2.68712E+04
 -2.16054E+04  1.27787E+04 -1.91897E+04 -4.10593E+03  4.38418E+03 -7.49716E+03  2.11260E+04  1.08163E+04
  7.30285E+03  3.32264E+04 -3.04864E+04  3.39248E+04 -6.11840E+04  2.00156E+03 -5.53115E+04 -4.17204E+04
 -1.27255E+04 -6.11248E+04  3.84912E+04 -4.37807E+04  5.58124E+04 -2.03533E+03  3.18497E+04  3.07758E+04
 -6.84900E+03  3.30792E+04 -2.79707E+04  1.33517E+04 -2.79297E+04 -5.63860E+03 -1.41624E+04 -9.73765E+03
 -7.16290E+03 -1.09301E+04 -8.76164E+02 -1.63085E+04  7.24983E+03 -2.25789E+04  1.44589E+04 -1.37407E+04
  1.24640E+04  4.66105E+03 -6.76315E+03  1.32396E+04 -1.93338E+04 -2.57092E+03 -8.07017E+03 -3.07489E+04
  2.11379E+04 -4.01599E+04  4.45041E+04 -1.92388E+04  4.20596E+04  1.81552E+04  1.43418E+04  4.20101E+04
 -1.53139E+04  3.11640E+04 -2.28458E+04  1.30532E+03 -8.07180E+03 -2.68234E+04  2.06582E+04 -3.14809E+04
  3.83034E+04 -7.41128E+03  3.22309E+04  2.22913E+04  1.52262E+04  4.26064E+04 -7.89839E+03  4.49827E+04
 -2.81089E+04  3.01080E+04 -3.72936E+04  8.29079E+03 -3.79511E+04 -1.53115E+04 -2.12117E+04 -3.45740E+04
  6.91393E+03 -3.45416E+04  2.92695E+04 -1.28767E+04  2.66130E+04  1.08021E+04  3.12710E+03  1.77120E+04
 -1.33737E+04  7.20297E+03 -9.49542E+03 -8.15978E+03  6.18947E+03 -1.04444E+04  1.75863E+04  6.56891E+03
  1.28812E+04  2.12011E+04 -6.70678E+03  2.36621E+04 -2.10654E+04  9.32507E+03 -2.49234E+04 -6.26984E+03
 -1.67211E+04 -1.66364E+04 -5.65803E+03 -1.66619E+04  4.24162E+03 -1.46391E+04  1.20487E+04 -1.44486E+04
  2.14781E+04 -1.19990E+04  2.81471E+04  8.81399E+02  2.16716E+04  1.62542E+04  3.47976E+03  3.25741E+04
 -1.63062E+04  2.77867E+04 -2.58378E+04  9.44703E+03 -1.94340E+04 -1.06673E+04 -4.24714E+03 -1.36170E+04
  2.46841E+03 -3.92450E+03 -2.53724E+03  5.04126E+03 -1.24841E+04  5.21134E+03 -1.33978E+04 -4.33988E+03
 -8.40562E+03 -1.56721E+04  4.99560E+03 -1.93931E+04  1.25110E+04 -1.38724E+04  1.49410E+04 -1.31216E+03
  9.40605E+03  1.02491E+04 -4.06230E+02  1.53068E+04 -1.04254E+04  8.65047E+03 -1.51171E+04 -3.58583E+03
 -1.17508E+04 -1.37063E+04 -1.28377E+03 -1.87623E+04  8.52997E+03 -1.53383E+04  1.60386E+04 -6.92877E+03
  1.46847E+04  1.07161E+03  1.06372E+04  3.51900E+03  5.22736E+03  5.02678E+02  7.38986E+03 -1.35823E+03
  1.39405E+04  2.93127E+03  1.49998E+04  1.25875E+04  8.39749E+03  2.49456E+04 -2.99867E+03  2.62740E+04
 -1.59124E+04  2.06177E+04 -2.41276E+04  9.65025E+03 -2.54004E+04 -2.08794E+03 -2.10749E+04 -1.41007E+04
 -1.02587E+04 -2.03812E+04  7.14722E+03 -1.87614E+04  1.63936E+04 -1.09524E+04  1.53018E+04  3.20479E+03
  6.74886E+03  1.11478E+04 -7.13435E+03  1.08179E+04 -1.35284E+04  2.87717E+03 -1.02769E+04 -7.73907E+03
  3.44544E+02 -1.21055E+04  6.29707E+03 -9.74273E+03  8.15652E+03 -9.24925E+02  1.16000E+03  4.92753E+03
 -5.22762E+03  1.10710E+03 -3.74571E+03 -4.83579E+03  5.84393E+02 -1.03145E+04  8.19998E+03 -1.02628E+04
  1.24303E+04 -4.67065E+03  1.18185E+04  2.71617E+03  9.68242E+03  9.48186E+03  5.40310E+03  1.38206E+04
 -1.67587E+03  1.57421E+04 -9.02698E+03  9.67344E+03 -1.09910E+04  3.29541E+03 -8.95943E+03 -1.70735E+03
 -4.38568E+03 -2.68962E+03 -6.15623E+02  9.63288E+02 -1.19497E+03  1.88059E+03 -3.44016E+03  3.80576E+03
 -7.98018E+03  4.45049E+01 -8.85017E+03 -7.38962E+03 -3.23359E+03 -1.11479E+04  4.22072E+03 -7.81164E+03
  7.15164E+03 -3.77669E+03  4.76683E+03  2.30961E+03  5.22612E+02  3.22409E+03 -3.57390E+03  3.82702E+02
 -3.00278E+03 -5.38164E+03 -1.03077E+03 -6.85811E+03  3.42671E+03 -7.74950E+03  9.62105E+03 -4.19788E+03
  1.12223E+04  6.69103E+02  8.51509E+03  6.05751E+03  1.90354E+03  8.35864E+03 -4.60753E+03  7.97058E+03
 -7.03577E+03  3.21797E+03 -3.24909E+03 -1.17775E+03  1.39398E+03 -1.41947E+03  4.77448E+03 -1.24698E+03
  3.72735E+03  3.32738E+03  1.09912E+03  5.70966E+03 -4.60808E+03  6.69570E+03 -7.30113E+03  1.87250E+03
 -4.60981E+03 -3.47302E+03  6.10059E+02 -6.62711E+03  3.75521E+03 -3.02829E+03  3.37113E+03  2.55271E+02
  1.41630E+02  3.01664E+03 -4.07019E+03  4.49705E+03 -5.02046E+03  2.05264E+03 -4.16671E+03 -4.12967E+02
 -3.17043E+03 -5.76344E+03  1.10196E+03 -6.60033E+03  5.25657E+03 -4.29395E+03  6.75916E+03  8.76783E+02
  4.50309E+03  5.12436E+03  1.94076E+02  6.98495E+03 -5.13223E+03  3.79108E+03 -5.58390E+03 -5.44549E+02
 -6.25909E+03 -5.07044E+03 -8.55250E+02 -4.41093E+03  2.27210E+03 -4.51686E+03  2.63914E+03 -2.85585E+03
  3.07615E+03  3.03333E+02  9.26493E+02  1.40158E+03 -5.66964E+01 -2.44576E+02 -2.79064E+02 -1.80996E+03
  3.45202E+03 -9.10452E+02  5.02747E+03  4.24686E+02  5.08820E+03  2.95189E+03  5.41231E+03  6.63511E+03
 -1.00084E+03  8.77619E+03 -6.99285E+03  6.18793E+03 -9.24747E+03  1.24701E+03 -7.51231E+03 -2.48128E+03
 -3.86065E+03 -6.12167E+03 -8.48608E+02 -4.86270E+03  2.24247E+03 -1.89374E+03  1.48596E+03 -1.97981E+03
  1.33915E+03 -1.17840E+03  1.86882E+03 -2.05306E+03  3.03852E+03 -1.43892E+03  3.10404E+03  4.72663E+02
  4.64298E+03  8.76334E+02  6.72827E+02  3.30879E+03 -1.42989E+03  2.72838E+03 -4.31234E+03  2.35653E+03
 -4.75654E+03 -1.08734E+03 -1.28118E+03 -2.76639E+03  4.37397E+02 -5.23898E+03  3.21624E+03 -4.99785E+03
  4.48301E+03 -3.11489E+03  6.17806E+03  2.00470E+02  4.83805E+03  3.45957E+03  1.30623E+03  6.06107E+03
 -1.68257E+03  5.47697E+03 -3.19039E+03  1.56283E+03 -1.96973E+03 -8.10546E+02 -5.23868E+02 -4.43492E+02
 -4.18358E+02  1.02204E+03 -5.20783E+02  1.79038E+03 -2.42807E+03  1.37734E+03 -3.40747E+03 -5.26793E+02
 -1.51198E+03 -4.11822E+03  9.39667E+02 -4.39794E+03  2.70347E+03 -4.49942E+03  3.49359E+03 -1.21718E+03
  3.84210E+03  2.03797E+03  1.57070E+03  3.10618E+03 -7.91600E+02  4.29633E+03 -2.11703E+03  2.47668E+03
 -3.44618E+03  6.78179E+02 -3.28004E+03 -2.53192E+03 -4.75738E+02 -2.61101E+03  1.19899E+03 -2.17791E+03
  2.19545E+03 -1.19206E+03  1.67885E+03  2.85054E+02  1.86132E+02  1.23259E+03  9.45558E+02  3.91819E+02
  1.65166E+03  4.79873E+02  1.35147E+03  1.54501E+03  6.19216E+02  1.63961E+03  1.01575E+03  1.04692E+03
 -1.18378E+03  2.46436E+03 -2.20829E+03  3.96127E+03 -2.66441E+03  1.26558E+03 -3.83598E+03 -2.93948E+02
 -1.39157E+03 -3.45978E+03  5.62935E+02 -4.38564E+03  2.10212E+03 -2.05025E+03  2.87468E+03 -8.66920E+02
  2.53939E+03  1.83054E+03  4.42262E+02  1.98235E+03 -6.86617E+02  1.35293E+03 -4.84463E+02  1.31347E+02
 -8.66714E+02 -1.52980E+03  1.44560E+03 -1.35689E+03  1.76378E+03 -1.25068E+03  1.21452E+03  2.21314E+02
  2.97896E+02  2.68460E+02  9.05663E+02 -8.79815E+02 -7.85832E+02  1.87587E+02  1.57465E+03 -1.42481E+02
  1.08342E+02 -5.09900E+02  2.28493E+03  7.11505E+02  7.16175E+01  2.03688E+03 -4.56625E+02  2.26778E+03
 -1.50786E+03  1.03386E+03 -1.88403E+03  1.03733E+02 -2.13730E+03 -4.76088E+02 -4.60865E+02 -6.99384E+02
  2.29838E+02 -1.37898E+03  8.10328E+02 -2.36649E+01  3.51470E+02  1.55525E+03 -8.92276E+02  8.92818E+02
 -1.49646E+03  7.95535E+02 -4.79659E+02 -1.63158E+03 -8.45132E+02 -2.23298E+03  3.75768E+02 -1.88296E+03
  3.39576E+02 -1.14980E+02  5.72763E+02  4.03987E+02  1.02226E+03  1.34397E+02  3.89535E+02  1.19937E+03
 -5.54687E+02  8.95478E+01 -4.28455E+02 -2.63159E+02  1.01169E+03 -4.67296E+02  8.29967E+02 -4.54425E+02
  1.13652E+03 -1.65628E+02  2.50306E+03  5.27093E+02  1.14271E+03  1.84430E+03 -9.07081E+01  1.33376E+03
 -9.35759E+02  1.15022E+02 -1.20762E+03 -3.12651E+02 -1.08773E+03 -6.75718E+02  2.51703E+02 -3.97048E+02
  1.27813E+03 -1.01825E+03  6.47317E+02  1.02314E+02 -1.67562E+01  1.30386E+03  1.28355E+02  1.24955E+03
 -3.12612E+01  8.36816E+02 -2.64393E+02  1.72420E+02  9.33246E+01  3.04638E+02 -9.81022E+02  5.84538E+02
 -3.58741E+02  1.10811E+03 -2.09920E+03  5.92860E+02 -1.45336E+03  8.19013E+01 -2.59204E+03 -9.72731E+02
 -1.04574E+03 -2.66138E+03  7.96899E+02 -2.94510E+03  7.68486E+02 -2.46154E+03  2.50815E+03 -1.14179E+03
  1.92255E+03 -1.60200E+02  1.17936E+03  1.22874E+03 -9.22929E+02  1.01245E+03 -1.01759E+03  1.05695E+03
 -1.01401E+03  7.74548E+02 -4.90615E+02 -4.72418E+02 -5.78200E+02  6.95259E+02 -6.75776E+02 -3.29040E+01
 -1.11422E+03 -3.54381E+02 -1.12992E+03  7.82804E+01  5.71819E+01 -1.41817E+02 -1.19924E+02 -1.05207E+03
  9.53921E+02 -2.96646E+02  5.20884E+02  1.65486E+02  9.53746E+02  8.15999E+02  2.36506E+02  5.74356E+02
 -1.14647E+03  1.92492E+03 -2.07950E+03  1.18990E+03 -1.21386E+03 -5.76643E+02 -7.63532E+02 -1.07478E+03
 -5.96524E+02 -8.57652E+02 -3.92787E+02 -6.08984E+02  5.90662E+02 -7.37020E+02  8.59812E+02  4.16004E+02
  7.01371E+02  2.97615E+02  5.34363E+02  8.25774E+02 -2.82956E+02 -1.51920E+02  3.16939E+02  6.21010E+01
  3.84474E+01  1.53526E+02 -7.75183E+01 -4.69334E+00  1.17277E+02  6.08118E+02  4.78910E+02  3.13334E+02
  1.46521E+02  6.92770E+02 -5.56659E+02  6.55844E+02 -5.96239E+02 -7.17628E+02  2.40904E+02 -1.39272E+03
  2.22500E+02  2.68735E+02  3.25357E-01 -8.18531E+01  1.15477E+03 -1.03561E+03  3.83136E+02  9.85357E+02
  1.10104E+02  8.05178E+02  2.65098E+02  3.81603E+02 -2.76765E+02  6.64376E+01 -5.61571E+00 -1.81984E+02
 -2.77535E+02 -1.41634E+01 -4.93227E+02 -2.16965E+02 -7.75859E+02  6.94698E+00 -1.11115E+03 -3.60788E+02
 -8.64225E+02 -3.20889E+02 -5.35372E+02 -5.76252E+02  4.13634E+02 -1.05473E+03  5.11109E+02 -2.48929E+02
  4.62201E+02 -2.01199E+02 -6.57671E+02  4.51332E+02  4.10845E+02  6.44695E+02 -4.31229E+00  8.65717E+02
