 $NMID ID='MM_0lb_SNR400_8hz_g55_88.RAW', FMTDAT='(8E13.5)'
 TRAMP=1., VOLUME=1. $END
  3.09342E+05  5.58456E+02  3.38474E+05  2.51199E+05  8.47819E+04  3.39137E+05 -1.33281E+05  2.51792E+05
 -1.91542E+05  8.29854E+04 -1.13090E+05 -3.26603E+04  3.17814E+01 -5.00893E+04  5.38822E+04 -1.02029E+03
  3.58584E+04  5.23648E+04 -1.67574E+04  7.59929E+04 -6.21171E+04  6.40456E+04 -8.58097E+04  3.28807E+04
 -8.20470E+04 -1.18479E+04 -5.92136E+04 -5.32318E+04 -1.54871E+04 -7.17722E+04  2.86165E+04 -4.70480E+04
  4.12775E+04  3.00441E+03  1.65317E+04  4.93688E+04 -3.46935E+04  4.82215E+04 -6.74717E+04  5.74139E+02
 -5.59783E+04 -5.74655E+04 -7.20479E+03 -7.90203E+04  3.54606E+04 -5.68763E+04  4.98452E+04 -1.89347E+04
  4.68215E+04  1.14872E+04  3.15615E+04  2.74826E+04  1.60422E+04  3.05339E+04 -6.74940E+03  2.86789E+04
 -2.27289E+04  1.20750E+04 -1.68619E+04 -5.16642E+03  7.61085E+03 -6.52866E+03  2.34214E+04  1.48180E+04
  7.52085E+03  3.81232E+04 -3.38671E+04  3.67548E+04 -6.61718E+04  1.16373E+03 -6.01585E+04 -4.50734E+04
 -1.31070E+04 -6.71626E+04  4.22857E+04 -4.92860E+04  6.14154E+04 -2.34948E+03  3.77119E+04  3.56862E+04
 -6.23920E+03  4.01101E+04 -3.14939E+04  1.97405E+04 -3.46938E+04 -2.47772E+03 -1.89066E+04 -1.20909E+04
 -9.93456E+03 -1.51859E+04 -7.19538E+02 -1.92990E+04  9.41174E+03 -2.46755E+04  1.59795E+04 -1.19411E+04
  1.01254E+04  6.90758E+03 -1.20190E+04  1.32459E+04 -2.31306E+04 -7.35536E+03 -8.97499E+03 -3.78356E+04
  2.59428E+04 -4.78702E+04  5.31650E+04 -2.12734E+04  5.07808E+04  2.08746E+04  1.79083E+04  4.71548E+04
 -1.69601E+04  3.71026E+04 -2.82422E+04  3.18971E+03 -1.18497E+04 -2.99122E+04  2.13192E+04 -3.83839E+04
  4.62922E+04 -1.13112E+04  4.18842E+04  2.59085E+04  2.26203E+04  5.23664E+04 -7.74753E+03  5.77816E+04
 -3.69836E+04  3.91519E+04 -4.96896E+04  1.16143E+04 -4.94587E+04 -1.93595E+04 -2.64873E+04 -4.28831E+04
  8.28741E+03 -4.38869E+04  3.39582E+04 -1.79606E+04  3.34322E+04  1.13152E+04  5.90448E+03  2.05485E+04
 -1.55228E+04  1.02870E+04 -1.17376E+04 -6.98250E+03  5.69488E+03 -1.10355E+04  1.86683E+04  5.78280E+03
  1.48630E+04  2.30146E+04 -5.32415E+03  2.80463E+04 -2.38342E+04  1.50342E+04 -3.25675E+04 -2.37298E+03
 -2.62260E+04 -1.79798E+04 -1.30512E+04 -2.65873E+04  3.69780E+03 -2.79547E+04  2.10870E+04 -2.35582E+04
  3.41771E+04 -1.53807E+04  3.95866E+04  5.44015E+03  2.86362E+04  2.43593E+04  5.12963E+03  4.25313E+04
 -2.11755E+04  3.43479E+04 -3.10937E+04  1.24325E+04 -2.33366E+04 -9.87148E+03 -5.04313E+03 -1.30138E+04
  4.90952E+02 -9.84316E+01 -8.51948E+03  8.31669E+03 -2.18712E+04  4.76720E+03 -2.18001E+04 -1.06541E+04
 -1.28059E+04 -2.51345E+04  6.46788E+03 -2.96046E+04  1.92790E+04 -2.06848E+04  2.43921E+04 -1.21536E+03
  1.59333E+04  1.73671E+04 -1.16121E+03  2.53593E+04 -1.81923E+04  1.29255E+04 -2.48256E+04 -5.03697E+03
 -1.81529E+04 -2.22706E+04 -2.37269E+03 -2.98107E+04  1.27304E+04 -2.38687E+04  2.44902E+04 -1.34778E+04
  2.33961E+04 -1.68508E+02  1.66809E+04  4.57272E+03  9.32147E+03  2.34288E+03  1.31616E+04 -2.37585E+03
  2.30739E+04  3.04133E+03  2.71783E+04  1.95435E+04  1.84929E+04  4.00587E+04 -2.00742E+03  4.75408E+04
 -2.65953E+04  3.93965E+04 -4.47101E+04  2.12205E+04 -4.84539E+04 -4.29196E+03 -3.79565E+04 -2.87536E+04
 -1.54007E+04 -3.97735E+04  1.46053E+04 -3.51658E+04  3.01376E+04 -1.67547E+04  2.51986E+04  8.48419E+03
  8.55948E+03  1.99819E+04 -1.27613E+04  1.67158E+04 -2.17971E+04  3.10156E+03 -1.64079E+04 -1.44991E+04
 -2.68086E+02 -2.03830E+04  1.18013E+04 -1.43128E+04  1.43700E+04 -1.00156E+03  3.28049E+03  9.11917E+03
 -8.87512E+03  4.78864E+03 -1.08981E+04 -7.44542E+03 -1.56377E+03 -1.91254E+04  1.26638E+04 -2.15555E+04
  2.45441E+04 -1.27709E+04  2.92038E+04  3.77472E+03  2.54813E+04  2.00263E+04  1.14926E+04  3.17297E+04
 -6.60266E+03  3.37697E+04 -2.26804E+04  2.14289E+04 -2.55794E+04  3.11753E+03 -1.68267E+04 -6.99944E+03
 -6.91238E+03 -8.74335E+03 -1.28358E+03  1.67907E+02 -3.13770E+03  3.74076E+03 -7.42521E+03  5.11892E+03
 -1.52727E+04 -1.47870E+03 -1.62243E+04 -1.34357E+04 -6.56604E+03 -2.10329E+04  6.98777E+03 -1.67755E+04
  1.37335E+04 -6.43879E+03  8.92387E+03  4.99580E+03 -1.01369E+03  7.61491E+03 -8.51382E+03 -1.91143E+02
 -7.81443E+03 -1.04008E+04 -4.06242E+02 -1.70395E+04  8.67448E+03 -1.77988E+04  2.12186E+04 -9.66145E+03
  2.50856E+04  2.47854E+03  1.84457E+04  1.60456E+04  3.77666E+03  2.13691E+04 -1.11759E+04  1.78652E+04
 -1.40329E+04  5.24708E+03 -7.68155E+03 -3.72385E+03  2.41820E+03 -5.33195E+03  8.59471E+03 -6.63597E+02
  7.94277E+03  7.30670E+03  7.49658E+02  1.41058E+04 -9.24594E+03  1.38178E+04 -1.73467E+04  3.82339E+03
 -1.20214E+04 -8.84679E+03 -6.05503E+01 -1.57733E+04  9.55976E+03 -7.66243E+03  9.85403E+03  3.87871E+03
  2.67542E+03  1.05381E+04 -8.35889E+03  1.23234E+04 -1.56638E+04  5.60803E+03 -1.62133E+04 -5.67927E+03
 -9.37144E+03 -1.81853E+04  5.01832E+03 -2.07358E+04  1.83049E+04 -1.18982E+04  1.92395E+04  4.28736E+03
  1.10213E+04  1.47402E+04 -1.84806E+03  1.81321E+04 -1.33789E+04  9.22571E+03 -1.46994E+04 -2.13958E+03
 -1.18201E+04 -1.17915E+04 -2.08742E+03 -1.36014E+04  7.20468E+03 -1.03103E+04  9.19740E+03 -4.92578E+03
  5.74590E+03  2.58220E+03 -1.50225E+03  1.66961E+03 -1.54706E+03 -4.08684E+03  2.79404E+03 -8.88313E+03
  1.33474E+04 -5.34083E+03  1.85611E+04  1.01928E+03  1.77119E+04  1.31825E+04  1.10863E+04  2.35356E+04
 -5.39501E+03  2.67803E+04 -2.30062E+04  2.03020E+04 -2.84723E+04  3.15865E+03 -2.37587E+04 -9.83683E+03
 -1.15653E+04 -1.95687E+04 -8.85772E+02 -1.65367E+04  6.40467E+03 -1.01704E+04  6.16484E+03 -5.81991E+03
  4.29922E+03 -4.46734E+03  3.86050E+03 -4.26689E+03  6.49557E+03 -4.15391E+03  9.31951E+03 -2.46718E+03
  1.24474E+04  2.15369E+03  7.45996E+03  1.06163E+04 -2.68116E+03  1.26576E+04 -1.28926E+04  9.70571E+03
 -1.67432E+04 -1.16276E+03 -1.08733E+04 -1.13362E+04 -2.60489E+03 -1.80778E+04  9.68178E+03 -1.91424E+04
  1.85040E+04 -1.00643E+04  2.21890E+04  2.31488E+03  1.55893E+04  1.66604E+04  2.41137E+03  2.05620E+04
 -8.76294E+03  1.68758E+04 -1.25595E+04  5.17390E+03 -7.48780E+03 -1.79681E+03 -3.09015E+03 -1.41673E+03
 -2.16315E+03 -6.25425E+02 -3.07205E+03  4.26129E+03 -7.69626E+03  1.98929E+03 -1.13658E+04 -1.71922E+03
 -8.59389E+03 -1.06744E+04 -7.24397E+02 -1.72743E+04  1.02569E+04 -1.52812E+04  1.75379E+04 -4.37591E+03
  1.68855E+04  8.35097E+03  7.72367E+03  1.65648E+04 -2.49379E+03  1.75271E+04 -1.22753E+04  1.03995E+04
 -1.62304E+04 -2.08434E+02 -1.34926E+04 -1.06279E+04 -2.08312E+03 -1.44497E+04  7.34554E+03 -1.09918E+04
  1.01726E+04 -3.39565E+03  8.47909E+03  2.82181E+03  3.03593E+03  5.67271E+03  1.96561E+03  1.72733E+03
  1.96716E+03  1.59642E+02  3.49703E+03  2.24948E+03  5.07765E+03  5.64238E+03  4.43749E+03  9.80039E+03
 -3.70246E+03  1.37225E+04 -1.26215E+04  1.38619E+04 -1.82833E+04  3.47411E+03 -1.87856E+04 -7.64074E+03
 -8.03775E+03 -1.79829E+04  2.41234E+03 -2.05091E+04  1.06389E+04 -1.20711E+04  1.49093E+04 -3.82968E+03
  1.12825E+04  7.05529E+03  2.44274E+03  1.06836E+04 -4.75522E+03  6.55657E+03 -7.49704E+03 -1.53242E+03
 -3.50078E+03 -7.55971E+03  3.38912E+03 -8.37454E+03  7.46916E+03 -4.11356E+03  6.97692E+03  1.66170E+03
  4.91377E+03  3.83073E+03  1.70976E+03  3.52978E+03 -1.32888E+03  2.93015E+03  1.19059E+03 -3.75231E+02
  2.21260E+03 -5.91768E+02  8.54715E+03  2.05130E+03  4.13688E+03  9.30760E+03 -1.07661E+03  1.21059E+04
 -8.64169E+03  8.21970E+03 -1.13322E+04  2.40534E+03 -1.01581E+04 -3.77147E+03 -4.24599E+03 -7.21819E+03
  1.20826E+03 -7.88128E+03  4.56857E+03 -3.48043E+03  4.85517E+03  3.41811E+03 -2.03319E+03  6.33792E+03
 -7.27215E+03  4.23211E+03 -8.73443E+03 -3.73787E+03 -5.23411E+03 -1.02961E+04  1.72598E+03 -1.01242E+04
  6.72853E+03 -6.15852E+03  7.52747E+03 -3.13490E+02  5.18515E+03  2.69959E+03  2.68778E+02  6.16696E+03
 -3.22823E+03  2.12695E+03 -5.04577E+03 -3.36940E+03  1.85726E+03 -8.22096E+03  9.09491E+03 -7.12914E+03
  1.19599E+04  5.73600E+02  1.08643E+04  7.72487E+03  3.26089E+03  1.30634E+04 -4.40223E+03  1.17719E+04
 -1.00196E+04  6.15858E+03 -9.41502E+03 -1.67285E+03 -5.89611E+03 -7.95552E+03  1.71035E+03 -7.61695E+03
  6.79170E+03 -3.80514E+03  5.82754E+03  3.41700E+03  2.07199E+03  6.24825E+03 -1.65290E+03  5.50898E+03
 -2.43490E+03  3.38692E+03 -2.85749E+03  1.35971E+03 -1.41528E+03  1.14178E+03 -1.17058E+03  2.87572E+03
 -2.73294E+03  5.18949E+03 -8.72274E+03  4.76131E+03 -1.17715E+04  1.41077E+02 -1.34244E+04 -7.32487E+03
 -6.84427E+03 -1.70006E+04  3.03039E+03 -1.83137E+04  1.20438E+04 -1.46901E+04  1.84899E+04 -5.68907E+03
  1.74341E+04  4.11532E+03  1.05598E+04  1.15362E+04  1.17070E+03  1.31262E+04 -4.77732E+03  9.84890E+03
 -7.66764E+03  2.83558E+03 -4.40309E+03 -1.36491E+03 -2.52647E+03 -1.86232E+03 -1.66072E+03  3.38648E+02
 -2.05303E+03  5.53232E+02 -3.32827E+03 -2.00225E+02 -1.91139E+03 -3.07508E+03 -9.67392E+01 -5.32199E+03
  5.37167E+03 -3.23244E+03  8.63441E+03  6.44985E+02  9.52922E+03  8.24647E+03  2.94534E+03  1.25642E+04
 -5.71697E+03  1.57969E+04 -1.44498E+04  8.71900E+03 -1.55385E+04 -9.70895E+02 -1.10371E+04 -9.83035E+03
 -5.08843E+03 -1.31345E+04  4.27280E+03 -1.23105E+04  8.55324E+03 -6.66341E+03  8.77949E+03  1.16438E+02
  4.40966E+03  4.28954E+03 -5.40939E+02  3.09474E+03 -2.26387E+03 -3.08599E+02 -7.77433E+01 -2.80502E+03
  3.68258E+03 -2.33413E+03  5.25742E+03  1.30566E+03  3.30152E+03  5.35720E+03  2.40186E+02  6.79771E+03
 -5.99070E+03  6.00575E+03 -8.99900E+03  4.81221E+02 -7.27941E+03 -5.75331E+03 -6.87345E+02 -1.08746E+04
  6.42913E+03 -9.55044E+03  1.05331E+04 -2.70375E+03  9.69608E+03  3.60285E+03  5.60830E+03  7.96281E+03
  1.66271E+03  8.72404E+03 -3.16032E+03  7.57951E+03 -5.97347E+03  4.30536E+03 -4.98028E+03  7.79380E+02
 -2.45395E+03 -3.73163E+02 -2.50009E+03  4.79425E+02 -4.84116E+03  1.61931E+03 -8.03043E+03 -7.22083E+02
 -7.25652E+03 -4.36617E+03 -2.20770E+03 -8.71303E+03  4.57976E+03 -9.87531E+03  8.30861E+03 -4.27813E+03
  9.18111E+03  1.68687E+03  5.64082E+03  6.29008E+03 -1.35778E+03  9.61075E+03 -6.57433E+03  5.79638E+03
