 $NMID ID='MM_0lb_SNR400_8hz_g55_25.RAW', FMTDAT='(8E13.5)'
 TRAMP=1., VOLUME=1. $END
  3.10659E+05  3.12647E+02  3.38126E+05  2.51125E+05  8.49121E+04  3.38667E+05 -1.33729E+05  2.52222E+05
 -1.90888E+05  8.38368E+04 -1.12633E+05 -3.21455E+04  2.23560E+02 -5.05464E+04  5.27933E+04 -1.84449E+02
  3.61339E+04  5.25087E+04 -1.67453E+04  7.61027E+04 -6.08724E+04  6.39704E+04 -8.57388E+04  3.29682E+04
 -8.33313E+04 -1.22349E+04 -5.91136E+04 -5.25696E+04 -1.57014E+04 -7.16613E+04  2.77431E+04 -4.61166E+04
  4.16025E+04  5.13862E+03  1.72965E+04  4.86921E+04 -3.50892E+04  4.85364E+04 -6.86579E+04  4.68293E+01
 -5.52159E+04 -5.83016E+04 -7.02719E+03 -7.92978E+04  3.51380E+04 -5.72390E+04  5.01627E+04 -1.84327E+04
  4.59676E+04  1.17121E+04  3.31298E+04  2.71549E+04  1.57605E+04  3.11649E+04 -6.40539E+03  2.79292E+04
 -2.28231E+04  1.17397E+04 -1.73338E+04 -6.05999E+03  8.38826E+03 -7.52343E+03  2.28807E+04  1.40597E+04
  7.32681E+03  3.85919E+04 -3.49801E+04  3.72901E+04 -6.65140E+04  2.68656E+03 -5.88911E+04 -4.49783E+04
 -1.33782E+04 -6.63008E+04  4.19138E+04 -4.78871E+04  6.26005E+04 -2.04568E+03  3.71666E+04  3.46313E+04
 -5.48412E+03  4.02409E+04 -3.16460E+04  2.00953E+04 -3.45405E+04 -2.28457E+03 -2.02105E+04 -1.27170E+04
 -1.09769E+04 -1.50522E+04  2.59084E+02 -1.99551E+04  8.38542E+03 -2.43065E+04  1.59083E+04 -1.20495E+04
  1.05233E+04  6.42090E+03 -1.13548E+04  1.22753E+04 -2.38189E+04 -7.94271E+03 -8.79879E+03 -3.91911E+04
  2.62941E+04 -4.70368E+04  5.33991E+04 -2.19553E+04  4.94533E+04  2.13765E+04  1.75741E+04  4.78414E+04
 -1.80813E+04  3.72255E+04 -2.76584E+04  2.32820E+03 -1.29405E+04 -2.98733E+04  2.15778E+04 -3.84585E+04
  4.58240E+04 -1.15822E+04  4.12467E+04  2.40485E+04  2.26285E+04  5.25797E+04 -8.60634E+03  5.84991E+04
 -3.69573E+04  4.01473E+04 -4.89566E+04  1.14767E+04 -4.89538E+04 -1.88765E+04 -2.67553E+04 -4.31557E+04
  7.20184E+03 -4.35221E+04  3.52029E+04 -1.73449E+04  3.33373E+04  1.11004E+04  6.33576E+03  2.21263E+04
 -1.43270E+04  1.06504E+04 -1.12335E+04 -7.94172E+03  5.00553E+03 -1.07005E+04  1.96868E+04  5.98218E+03
  1.59967E+04  2.29432E+04 -6.16120E+03  2.84515E+04 -2.43219E+04  1.51094E+04 -3.20965E+04 -2.45974E+03
 -2.67686E+04 -1.94767E+04 -1.19484E+04 -2.57973E+04  4.49582E+03 -2.68047E+04  2.12291E+04 -2.48798E+04
  3.36443E+04 -1.45285E+04  3.94526E+04  6.19978E+03  2.78266E+04  2.60175E+04  3.37766E+03  4.26120E+04
 -2.09184E+04  3.46484E+04 -3.20842E+04  1.25363E+04 -2.36115E+04 -9.58847E+03 -4.42203E+03 -1.20844E+04
 -6.52109E+01 -5.64311E+02 -8.13152E+03  9.88671E+03 -2.11663E+04  5.18697E+03 -2.20449E+04 -1.03791E+04
 -1.23666E+04 -2.48609E+04  6.19644E+03 -2.87048E+04  2.00006E+04 -2.02745E+04  2.35315E+04 -2.18938E+03
  1.49570E+04  1.75716E+04 -1.66756E+03  2.43837E+04 -1.81828E+04  1.48626E+04 -2.57848E+04 -4.57953E+03
 -1.74617E+04 -2.23645E+04 -2.03594E+03 -2.93958E+04  1.31135E+04 -2.45589E+04  2.46302E+04 -1.31422E+04
  2.31275E+04 -5.22010E+02  1.76087E+04  5.24762E+03  9.78641E+03  1.53302E+03  1.24741E+04 -3.03915E+03
  2.37640E+04  3.53074E+03  2.80924E+04  1.92573E+04  1.87482E+04  4.08836E+04 -1.70635E+03  4.68902E+04
 -2.69893E+04  4.05111E+04 -4.55014E+04  2.03732E+04 -4.81270E+04 -3.53851E+03 -3.90184E+04 -2.89478E+04
 -1.57972E+04 -4.02298E+04  1.54650E+04 -3.54636E+04  2.99199E+04 -1.65483E+04  2.57604E+04  8.41311E+03
  8.68103E+03  2.00597E+04 -1.33641E+04  1.68702E+04 -2.18132E+04  3.33894E+03 -1.66387E+04 -1.40594E+04
 -4.23894E+01 -2.15545E+04  1.15057E+04 -1.48320E+04  1.50624E+04 -1.39156E+03  4.41183E+03  9.29795E+03
 -9.96511E+03  3.96335E+03 -1.03022E+04 -8.02620E+03 -2.63512E+03 -1.91165E+04  1.36548E+04 -2.22383E+04
  2.43721E+04 -1.20007E+04  2.85352E+04  2.60647E+03  2.54877E+04  2.01356E+04  1.25200E+04  3.19508E+04
 -5.86083E+03  3.47880E+04 -2.24089E+04  2.04923E+04 -2.53375E+04  4.22208E+03 -1.61521E+04 -7.47906E+03
 -6.58325E+03 -8.08209E+03  3.12197E+02  1.27859E+02 -2.49134E+03  3.48309E+03 -8.05404E+03  6.34890E+03
 -1.57132E+04 -8.15527E+02 -1.49957E+04 -1.31096E+04 -6.27068E+03 -2.12787E+04  6.40732E+03 -1.70110E+04
  1.28970E+04 -6.06342E+03  9.35234E+03  4.68193E+03 -3.87434E+02  7.49574E+03 -9.68458E+03  2.16581E+01
 -8.20306E+03 -1.13836E+04 -3.35288E+02 -1.66558E+04  1.01441E+04 -1.87890E+04  2.27585E+04 -1.01483E+04
  2.59173E+04  2.70267E+03  1.90291E+04  1.69228E+04  2.85342E+03  2.10531E+04 -1.11869E+04  1.67539E+04
 -1.36856E+04  5.02007E+03 -6.82259E+03 -4.58037E+03  1.35009E+03 -5.37161E+03  8.22076E+03 -1.05047E+03
  7.96356E+03  7.03630E+03  7.54366E+02  1.45150E+04 -9.77766E+03  1.32757E+04 -1.75322E+04  3.16789E+03
 -1.24732E+04 -8.06638E+03  3.03864E+02 -1.55544E+04  9.45216E+03 -6.78245E+03  9.96225E+03  3.72799E+03
  3.51564E+03  1.21797E+04 -9.13197E+03  1.27944E+04 -1.58405E+04  5.54688E+03 -1.65428E+04 -5.85922E+03
 -8.67105E+03 -1.86865E+04  4.13967E+03 -2.03807E+04  1.67538E+04 -1.20947E+04  1.96581E+04  3.47359E+03
  1.19229E+04  1.47421E+04 -1.64683E+03  1.72454E+04 -1.28933E+04  1.04975E+04 -1.49243E+04 -1.59426E+03
 -1.18806E+04 -1.12281E+04 -1.23394E+03 -1.35733E+04  6.45996E+03 -1.01746E+04  8.72140E+03 -3.27165E+03
  5.51288E+03  2.41917E+03 -1.30470E+03  1.84491E+03 -2.84045E+02 -5.10102E+03  2.02738E+03 -8.66959E+03
  1.37535E+04 -5.65312E+03  1.82785E+04  3.00750E+03  1.74635E+04  1.29197E+04  1.12765E+04  2.43997E+04
 -5.89837E+03  2.74027E+04 -2.28173E+04  1.89655E+04 -2.90469E+04  4.02134E+03 -2.32454E+04 -1.21620E+04
 -1.24077E+04 -1.95047E+04  4.35971E+02 -1.62136E+04  5.65055E+03 -1.00859E+04  5.36976E+03 -5.46366E+03
  4.31268E+03 -4.15515E+03  4.75195E+03 -3.28840E+03  6.92768E+03 -4.52240E+03  8.64808E+03 -2.70091E+03
  1.27745E+04  2.59882E+03  6.81772E+03  1.03461E+04 -3.02679E+03  1.35164E+04 -1.31018E+04  9.38870E+03
 -1.59012E+04 -1.37229E+02 -1.13610E+04 -1.17796E+04 -2.05853E+03 -1.85447E+04  9.51486E+03 -1.76083E+04
  1.90839E+04 -1.09702E+04  2.14957E+04  3.23270E+03  1.59920E+04  1.56902E+04  2.33191E+03  2.00207E+04
 -9.37277E+03  1.67669E+04 -1.20136E+04  6.10432E+03 -8.03846E+03 -1.91913E+03 -3.68101E+03 -1.79724E+03
 -1.55676E+03 -4.82279E+02 -2.79737E+03  3.34134E+03 -6.48850E+03  2.86897E+03 -1.31429E+04 -2.10479E+03
 -8.67970E+03 -1.07425E+04  2.37774E+01 -1.68502E+04  1.04046E+04 -1.58754E+04  1.65655E+04 -4.47697E+03
  1.74120E+04  9.00488E+03  7.43588E+03  1.65641E+04 -3.14685E+03  1.78817E+04 -1.27833E+04  1.11418E+04
 -1.58300E+04  1.58469E+02 -1.23914E+04 -9.85829E+03 -1.73593E+03 -1.44341E+04  6.99872E+03 -1.11371E+04
  1.10382E+04 -3.04538E+03  7.97443E+03  2.46062E+03  3.37598E+03  4.89733E+03  1.50832E+03  2.21786E+03
  3.33423E+03  7.73538E+02  4.49540E+03  1.54281E+03  4.76622E+03  5.18454E+03  4.14924E+03  9.37190E+03
 -3.64517E+03  1.38488E+04 -1.16557E+04  1.30793E+04 -1.80542E+04  3.93209E+03 -1.79320E+04 -7.91125E+03
 -9.69777E+03 -1.81714E+04  1.84290E+03 -1.98909E+04  1.01940E+04 -1.26191E+04  1.45567E+04 -3.69541E+03
  1.10990E+04  5.69894E+03  2.30798E+03  1.07291E+04 -5.18341E+03  7.52048E+03 -7.35581E+03 -1.02292E+03
 -2.44170E+03 -8.45787E+03  3.78480E+03 -8.60134E+03  7.75377E+03 -3.31164E+03  7.01147E+03  1.79113E+03
  4.63304E+03  3.85912E+03  1.72693E+03  3.09867E+03 -1.40562E+03  1.72260E+03  1.56874E+03 -1.29359E+03
  2.49489E+03 -1.15714E+03  7.58523E+03  2.80852E+03  5.13858E+03  9.23273E+03 -2.69225E+03  1.26073E+04
 -8.19129E+03  8.14154E+03 -1.14953E+04  1.31759E+03 -1.05019E+04 -3.72678E+03 -4.24088E+03 -7.35446E+03
  5.27257E+02 -7.83588E+03  4.79862E+03 -3.48061E+03  3.94308E+03  3.16514E+03 -2.12027E+03  5.68778E+03
 -7.00445E+03  3.38455E+03 -8.37494E+03 -4.92479E+03 -5.42260E+03 -1.04635E+04  1.76106E+03 -1.02574E+04
  5.40108E+03 -7.06703E+03  6.94911E+03 -4.57321E+02  5.58328E+03  2.69240E+03  4.95949E+02  5.29137E+03
 -4.28783E+03  2.81818E+03 -4.67302E+03 -3.91535E+03  1.44235E+03 -8.62998E+03  9.61873E+03 -6.31325E+03
  1.15483E+04  6.25786E+02  1.20530E+04  8.33753E+03  4.02964E+03  1.19414E+04 -4.13029E+03  1.16232E+04
 -1.02126E+04  4.81208E+03 -1.00510E+04 -1.68410E+03 -5.98184E+03 -8.22474E+03  2.53735E+03 -7.44042E+03
  6.62691E+03 -3.48906E+03  6.10367E+03  2.76957E+03  2.38642E+03  5.88144E+03 -9.40930E+02  5.84659E+03
 -3.35989E+03  4.09436E+03 -3.41660E+03  2.07997E+03 -1.02045E+03  8.77400E+02 -1.51981E+03  1.93247E+03
 -2.79237E+03  3.43585E+03 -8.11824E+03  5.12494E+03 -1.22731E+04  2.93561E+02 -1.40858E+04 -8.55093E+03
 -6.49324E+03 -1.69657E+04  3.39056E+03 -1.90328E+04  1.13837E+04 -1.46526E+04  1.85199E+04 -4.99653E+03
  1.66371E+04  3.95142E+03  1.04148E+04  1.11584E+04  1.24943E+03  1.35760E+04 -4.60037E+03  9.48459E+03
 -7.00704E+03  4.10483E+03 -4.78745E+03 -1.49815E+03 -1.09082E+03 -2.01924E+03 -4.71095E+01 -3.51832E+02
 -1.53915E+03 -2.23263E+02 -2.53373E+03 -8.09004E+01 -4.57306E+02 -2.86515E+03  6.55769E+02 -4.90892E+03
  5.54503E+03 -4.29445E+03  7.81565E+03 -3.49999E+02  9.01605E+03  6.90010E+03  2.92324E+03  1.22778E+04
 -5.67474E+03  1.43976E+04 -1.34722E+04  7.99602E+03 -1.60909E+04 -1.81576E+03 -1.22073E+04 -9.60271E+03
 -4.47028E+03 -1.27975E+04  4.16692E+03 -1.16592E+04  8.35784E+03 -6.78547E+03  8.72447E+03  1.15303E+03
  4.44877E+03  4.61187E+03 -8.68463E+02  3.21612E+03 -2.37202E+03 -8.15917E+02  5.64939E+02 -3.40834E+03
  3.91420E+03 -2.12499E+03  5.92088E+03  1.10138E+03  3.21200E+03  4.54781E+03  6.17240E+01  7.45888E+03
 -5.83709E+03  5.79470E+03 -8.95725E+03  9.13659E+02 -7.39745E+03 -6.86285E+03 -1.86970E+03 -1.09405E+04
  5.84396E+03 -9.39423E+03  1.02191E+04 -3.81145E+03  1.08303E+04  3.22074E+03  6.20373E+03  7.96026E+03
  1.55893E+03  9.50272E+03 -3.80188E+03  8.26220E+03 -5.96586E+03  4.35952E+03 -4.81851E+03  1.01638E+03
 -2.20560E+03 -2.17707E+02 -2.58564E+03  1.51804E+03 -4.75179E+03  2.73837E+03 -6.33722E+03 -5.40413E+02
 -7.08836E+03 -4.79045E+03 -2.55796E+03 -8.48134E+03  3.72854E+03 -9.27689E+03  8.58935E+03 -5.12450E+03
  9.21083E+03  1.45703E+03  4.85849E+03  6.75439E+03 -1.11869E+03  8.45659E+03 -6.20463E+03  6.19453E+03
