 $NMID ID='MM_0lb_SNR400_7hz_g50_79.RAW', FMTDAT='(8E13.5)'
 TRAMP=1., VOLUME=1. $END
  3.10442E+05  1.20298E+02  3.38368E+05  2.50443E+05  8.43147E+04  3.39028E+05 -1.33310E+05  2.52598E+05
 -1.90413E+05  8.36967E+04 -1.12231E+05 -3.17256E+04 -1.43592E+02 -5.17728E+04  5.35840E+04  3.73501E+02
  3.61526E+04  5.28123E+04 -1.66081E+04  7.63830E+04 -6.16814E+04  6.52377E+04 -8.61896E+04  3.27246E+04
 -8.32644E+04 -1.23757E+04 -5.82421E+04 -5.19847E+04 -1.56334E+04 -7.17673E+04  2.76627E+04 -4.68556E+04
  4.12685E+04  4.77605E+03  1.73124E+04  4.81733E+04 -3.56146E+04  4.82875E+04 -6.95933E+04 -7.67386E+02
 -5.52745E+04 -5.81404E+04 -7.82960E+03 -7.93588E+04  3.42554E+04 -5.81702E+04  5.01066E+04 -1.84975E+04
  4.60321E+04  1.17074E+04  3.32965E+04  2.65096E+04  1.69112E+04  3.18340E+04 -5.84625E+03  2.81967E+04
 -2.25525E+04  1.18832E+04 -1.81028E+04 -6.32396E+03  7.15232E+03 -7.89729E+03  2.39290E+04  1.48070E+04
  7.72087E+03  3.88507E+04 -3.53486E+04  3.71769E+04 -6.61722E+04  2.37053E+03 -6.00441E+04 -4.52096E+04
 -1.26625E+04 -6.72623E+04  4.21213E+04 -4.76708E+04  6.22950E+04 -2.93489E+03  3.81375E+04  3.44435E+04
 -4.62297E+03  4.09440E+04 -3.22362E+04  2.03851E+04 -3.49113E+04 -3.80080E+03 -2.11544E+04 -1.25795E+04
 -9.24040E+03 -1.59537E+04 -3.31013E+02 -2.02031E+04  8.92053E+03 -2.38657E+04  1.58096E+04 -1.21474E+04
  1.07960E+04  5.87597E+03 -1.20486E+04  1.30761E+04 -2.34241E+04 -7.64834E+03 -8.75902E+03 -3.89698E+04
  2.58862E+04 -4.77284E+04  5.23884E+04 -2.11908E+04  5.03491E+04  2.12848E+04  1.75774E+04  4.82176E+04
 -1.64540E+04  3.79716E+04 -2.89445E+04  2.66004E+03 -1.22488E+04 -3.00809E+04  2.11692E+04 -3.80391E+04
  4.60919E+04 -1.21538E+04  4.25655E+04  2.52196E+04  2.15171E+04  5.35843E+04 -8.06540E+03  5.81914E+04
 -3.62641E+04  4.02741E+04 -4.93860E+04  1.18086E+04 -4.97736E+04 -1.95388E+04 -2.79285E+04 -4.38480E+04
  8.12153E+03 -4.25595E+04  3.61068E+04 -1.82649E+04  3.39763E+04  1.08283E+04  5.91581E+03  2.19356E+04
 -1.44399E+04  1.02608E+04 -1.27838E+04 -6.54328E+03  5.65490E+03 -1.24264E+04  1.97369E+04  4.69437E+03
  1.54051E+04  2.31985E+04 -4.59257E+03  2.77136E+04 -2.45834E+04  1.51708E+04 -3.20735E+04 -2.10563E+03
 -2.84235E+04 -1.93671E+04 -1.26870E+04 -2.71041E+04  5.03401E+03 -2.81004E+04  2.21468E+04 -2.49812E+04
  3.43728E+04 -1.44438E+04  4.02500E+04  5.21166E+03  2.79583E+04  2.62502E+04  5.00830E+03  4.29357E+04
 -2.09481E+04  3.49366E+04 -3.14292E+04  1.24026E+04 -2.23459E+04 -9.99486E+03 -5.57751E+03 -1.22898E+04
 -1.19711E+02 -2.52005E+02 -8.98542E+03  9.50488E+03 -2.21909E+04  4.47436E+03 -2.19595E+04 -1.10014E+04
 -1.30832E+04 -2.44538E+04  6.33055E+03 -2.95651E+04  1.92872E+04 -2.13155E+04  2.45287E+04 -2.16466E+03
  1.67910E+04  1.69726E+04 -1.77649E+03  2.61224E+04 -1.78620E+04  1.42679E+04 -2.47058E+04 -5.15191E+03
 -1.82947E+04 -2.26140E+04 -2.31580E+03 -2.94738E+04  1.38157E+04 -2.49704E+04  2.43461E+04 -1.44112E+04
  2.34849E+04 -6.55588E+02  1.79034E+04  5.46171E+03  9.05868E+03  1.76830E+03  1.26532E+04 -3.05304E+03
  2.38323E+04  1.68011E+03  2.86458E+04  1.91870E+04  1.93784E+04  4.08801E+04 -2.58756E+03  4.93821E+04
 -2.70760E+04  4.21345E+04 -4.67263E+04  2.18801E+04 -4.97992E+04 -3.97968E+03 -4.05582E+04 -2.91103E+04
 -1.55169E+04 -4.21680E+04  1.38499E+04 -3.54603E+04  3.05731E+04 -1.60132E+04  2.63289E+04  1.00272E+04
  8.12482E+03  1.96749E+04 -1.30588E+04  1.68622E+04 -2.20222E+04  1.89863E+03 -1.65844E+04 -1.40956E+04
  3.66219E+02 -2.16621E+04  1.21999E+04 -1.56177E+04  1.48966E+04 -8.71161E+02  4.28183E+03  9.47103E+03
 -1.01597E+04  5.68314E+03 -9.81869E+03 -7.71945E+03 -1.58751E+03 -1.93953E+04  1.32232E+04 -2.36738E+04
  2.56099E+04 -1.31462E+04  3.02257E+04  2.96996E+03  2.63265E+04  2.08863E+04  1.24733E+04  3.24624E+04
 -5.99292E+03  3.51533E+04 -2.33740E+04  2.17096E+04 -2.52628E+04  3.64427E+03 -1.71941E+04 -6.62041E+03
 -6.59309E+03 -7.92792E+03 -2.01702E+03  7.94048E+01 -3.29330E+03  3.60854E+03 -9.07160E+03  6.16296E+03
 -1.56243E+04 -3.15962E+02 -1.63736E+04 -1.29286E+04 -6.83045E+03 -2.20324E+04  7.99206E+03 -1.76308E+04
  1.48776E+04 -6.90323E+03  9.65378E+03  4.79904E+03 -5.40346E+02  7.38965E+03 -9.15231E+03  1.21410E+02
 -8.86384E+03 -1.14341E+04 -1.30117E+03 -1.83285E+04  1.04412E+04 -1.84083E+04  2.21457E+04 -9.90843E+03
  2.64306E+04  2.64608E+03  1.91873E+04  1.70449E+04  4.27812E+03  2.13026E+04 -1.13382E+04  1.72882E+04
 -1.46428E+04  4.48118E+03 -7.09953E+03 -3.89678E+03  2.86511E+03 -4.99512E+03  1.01406E+04 -2.10416E+03
  8.19613E+03  8.39311E+03  1.07624E+03  1.47215E+04 -9.70969E+03  1.40761E+04 -1.78233E+04  3.90016E+03
 -1.22734E+04 -9.82838E+03 -7.79772E+01 -1.47646E+04  9.73833E+03 -7.90611E+03  1.15211E+04  4.51684E+03
  2.25374E+03  1.22720E+04 -9.58056E+03  1.41453E+04 -1.61023E+04  6.14613E+03 -1.65069E+04 -6.68856E+03
 -1.01348E+04 -1.87627E+04  3.91010E+03 -2.11683E+04  1.85755E+04 -1.29912E+04  1.94879E+04  3.64346E+03
  1.21709E+04  1.51527E+04 -2.26174E+03  1.85418E+04 -1.32712E+04  9.94118E+03 -1.48035E+04 -1.77962E+03
 -1.26152E+04 -1.18876E+04 -1.41092E+03 -1.47100E+04  8.11348E+03 -1.21567E+04  8.24900E+03 -2.39603E+03
  4.90459E+03  3.63801E+03 -1.88689E+03  2.57437E+03 -1.18655E+03 -4.29828E+03  2.98246E+03 -1.02428E+04
  1.39405E+04 -6.14835E+03  2.00602E+04  3.08045E+03  1.97386E+04  1.34063E+04  1.16400E+04  2.54476E+04
 -6.50560E+03  2.99414E+04 -2.36681E+04  2.10332E+04 -3.20799E+04  4.92472E+03 -2.52064E+04 -1.07350E+04
 -1.17876E+04 -2.02019E+04  7.44491E+02 -1.78281E+04  6.63396E+03 -1.00634E+04  5.32129E+03 -6.34511E+03
  4.58149E+03 -3.37722E+03  4.40241E+03 -4.52004E+03  6.29967E+03 -4.74996E+03  9.02465E+03 -2.19051E+03
  1.27247E+04  2.34131E+03  7.10820E+03  1.08994E+04 -2.56358E+03  1.42658E+04 -1.42939E+04  1.07913E+04
 -1.76082E+04 -1.08754E+03 -1.21498E+04 -1.21399E+04 -1.73489E+03 -2.02596E+04  1.05584E+04 -1.99133E+04
  1.97414E+04 -9.96070E+03  2.33111E+04  3.11543E+03  1.63528E+04  1.67927E+04  2.20918E+03  2.17800E+04
 -8.83069E+03  1.81727E+04 -1.27835E+04  5.99687E+03 -9.43351E+03 -1.85130E+03 -3.00148E+03 -2.66512E+03
 -2.46202E+03 -3.60706E+02 -2.64645E+03  3.44761E+03 -8.00470E+03  3.32619E+03 -1.26435E+04 -9.51734E+02
 -1.01519E+04 -1.26487E+04  1.61264E+02 -1.78234E+04  1.05287E+04 -1.71248E+04  1.92260E+04 -4.54893E+03
  1.75587E+04  8.45510E+03  9.19405E+03  1.62705E+04 -4.29194E+03  1.94413E+04 -1.40517E+04  1.11101E+04
 -1.71834E+04  6.15451E+02 -1.33376E+04 -1.08001E+04 -2.18555E+03 -1.55078E+04  8.78548E+03 -1.23753E+04
  1.17138E+04 -3.06730E+03  8.44010E+03  3.39466E+03  4.53944E+03  5.93126E+03  1.48647E+03  2.62324E+03
  2.64010E+03  1.78193E+03  4.94249E+03  2.11249E+03  5.28352E+03  6.40222E+03  4.64730E+03  1.12916E+04
 -3.09974E+03  1.57853E+04 -1.50570E+04  1.45846E+04 -1.95021E+04  3.68524E+03 -1.97506E+04 -8.10736E+03
 -9.74636E+03 -1.89402E+04  3.21442E+03 -2.07598E+04  1.15543E+04 -1.32009E+04  1.55073E+04 -3.62037E+03
  1.07421E+04  7.71116E+03  3.69981E+03  1.13015E+04 -5.91310E+03  7.23863E+03 -7.98267E+03 -1.34398E+03
 -3.79781E+03 -7.03859E+03  3.85276E+03 -8.34478E+03  8.43467E+03 -3.39420E+03  7.68784E+03  2.06885E+03
  4.09945E+03  4.01630E+03  2.76428E+03  3.84168E+03 -1.25241E+03  2.12760E+03  2.18022E+03 -1.32111E+03
  3.30870E+03 -1.25913E+03  7.93848E+03  2.55274E+03  4.63628E+03  1.13537E+04 -1.84459E+03  1.39536E+04
 -9.56518E+03  9.41708E+03 -1.33349E+04  1.60342E+03 -1.01165E+04 -4.15931E+03 -4.70051E+03 -7.94656E+03
  1.99624E+02 -7.94215E+03  5.58734E+03 -3.76670E+03  4.64059E+03  4.67053E+03 -1.37896E+03  7.05895E+03
 -8.39541E+03  3.27309E+03 -9.37601E+03 -5.34673E+03 -4.34169E+03 -9.60929E+03  1.79028E+03 -1.10137E+04
  6.48082E+03 -6.93611E+03  8.29622E+03 -8.44860E+02  6.55994E+03  2.74442E+03  7.61719E+02  5.23010E+03
 -4.22712E+03  2.10663E+03 -4.60084E+03 -4.14898E+03  2.18588E+03 -9.19586E+03  1.05043E+04 -7.36004E+03
  1.38265E+04  1.17015E+03  1.20191E+04  8.66578E+03  4.94373E+03  1.37832E+04 -4.54474E+03  1.28627E+04
 -1.10714E+04  5.48887E+03 -1.20739E+04 -1.37732E+03 -7.10108E+03 -9.19533E+03  1.29827E+03 -8.63384E+03
  8.62567E+03 -4.76939E+03  6.51692E+03  3.94208E+03  9.72241E+02  7.30422E+03 -1.33819E+03  6.59681E+03
 -3.38812E+03  4.00230E+03 -4.44435E+03  1.19553E+03 -9.91426E+02  1.09212E+03 -2.59757E+03  3.01507E+03
 -3.24910E+03  4.31409E+03 -8.57093E+03  4.76603E+03 -1.33162E+04  2.00542E+02 -1.63346E+04 -9.17920E+03
 -8.34718E+03 -1.89345E+04  4.08077E+03 -2.18698E+04  1.29807E+04 -1.62331E+04  2.09822E+04 -5.92826E+03
  1.94590E+04  3.80220E+03  1.16468E+04  1.30522E+04  1.53323E+03  1.55080E+04 -4.49867E+03  1.20249E+04
 -8.44317E+03  4.22941E+03 -4.64036E+03 -1.56714E+03 -1.33080E+03 -1.61287E+03 -9.35427E+02  5.51972E+02
 -2.24269E+03  8.73089E+01 -2.11234E+03 -1.08394E+03 -9.58785E+02 -3.92902E+03  1.00053E+02 -5.82709E+03
  6.63990E+03 -4.84763E+03  1.08326E+04  5.74078E+02  1.01209E+04  7.53303E+03  3.81694E+03  1.43750E+04
 -7.13352E+03  1.70703E+04 -1.64187E+04  9.11753E+03 -1.84124E+04 -1.90859E+03 -1.35728E+04 -1.17506E+04
 -6.02121E+03 -1.50148E+04  3.43193E+03 -1.43797E+04  1.03386E+04 -7.71031E+03  1.08474E+04  3.81581E+02
  4.80204E+03  5.88754E+03  2.66582E+02  3.63922E+03 -2.97552E+03 -4.30808E+02  6.90672E+02 -3.11321E+03
  4.74332E+03 -2.68350E+03  4.77770E+03  1.95794E+03  4.61922E+03  6.64842E+03 -7.91252E+01  7.47748E+03
 -7.40595E+03  7.49342E+03 -9.68690E+03  1.33477E+03 -9.00612E+03 -7.55618E+03 -2.14996E+03 -1.19950E+04
  7.55789E+03 -1.07638E+04  1.29304E+04 -3.29160E+03  1.16318E+04  4.11431E+03  6.60886E+03  1.02299E+04
  1.00327E+03  1.02039E+04 -3.58613E+03  8.70725E+03 -6.11146E+03  4.05556E+03 -5.34121E+03  2.65515E+02
 -3.07099E+03 -4.62489E+02 -3.10559E+03  1.21675E+03 -5.34532E+03  1.58858E+03 -8.12619E+03 -7.54394E+02
 -7.24808E+03 -6.41180E+03 -2.55352E+03 -9.96758E+03  5.53681E+03 -1.12091E+04  8.93234E+03 -5.74693E+03
  1.07319E+04  8.03573E+02  5.84985E+03  9.03088E+03 -1.08715E+03  1.04955E+04 -8.38735E+03  7.51627E+03
