 $NMID ID='MM_0lb_SNR400_12hz_g50_54.RAW', FMTDAT='(8E13.5)'
 TRAMP=1., VOLUME=1. $END
  3.09890E+05  1.16617E+03  3.37847E+05  2.50797E+05  8.52711E+04  3.38499E+05 -1.32600E+05  2.50949E+05
 -1.90465E+05  8.31937E+04 -1.12674E+05 -3.27215E+04  7.35600E+02 -5.06369E+04  5.33760E+04 -2.65287E+02
  3.52617E+04  5.24266E+04 -1.67348E+04  7.60257E+04 -6.11106E+04  6.36565E+04 -8.55061E+04  3.21503E+04
 -8.07707E+04 -1.10108E+04 -5.74163E+04 -5.21775E+04 -1.49074E+04 -7.04397E+04  2.73278E+04 -4.64353E+04
  4.09170E+04  4.01874E+03  1.59333E+04  4.83968E+04 -3.46986E+04  4.75631E+04 -6.72984E+04 -3.39699E+02
 -5.36943E+04 -5.65745E+04 -6.99527E+03 -7.75008E+04  3.46790E+04 -5.57446E+04  4.86550E+04 -1.78702E+04
  4.42104E+04  1.11815E+04  3.26915E+04  2.62768E+04  1.58472E+04  2.93401E+04 -5.97505E+03  2.78111E+04
 -2.17747E+04  1.20601E+04 -1.80062E+04 -5.25620E+03  6.48218E+03 -7.47746E+03  2.30767E+04  1.28432E+04
  7.28372E+03  3.57137E+04 -3.22272E+04  3.61375E+04 -6.45262E+04  2.33390E+03 -5.77043E+04 -4.39889E+04
 -1.22064E+04 -6.41483E+04  4.05963E+04 -4.66658E+04  5.99373E+04 -2.11900E+03  3.51978E+04  3.30259E+04
 -5.76775E+03  3.77243E+04 -3.11852E+04  1.71240E+04 -3.15906E+04 -3.66195E+03 -1.79564E+04 -1.05411E+04
 -9.14123E+03 -1.38931E+04 -7.37112E+02 -1.88147E+04  7.23164E+03 -2.33390E+04  1.57402E+04 -1.26524E+04
  1.13601E+04  5.70195E+03 -9.53677E+03  1.26571E+04 -2.22813E+04 -5.24982E+03 -8.29932E+03 -3.48037E+04
  2.35617E+04 -4.41922E+04  4.96677E+04 -1.95299E+04  4.65693E+04  1.97399E+04  1.59067E+04  4.53787E+04
 -1.66523E+04  3.49854E+04 -2.63321E+04  2.27641E+03 -9.92607E+03 -2.83900E+04  2.11645E+04 -3.47619E+04
  4.28093E+04 -9.68895E+03  3.75930E+04  2.41196E+04  1.95573E+04  4.85914E+04 -8.37853E+03  5.26572E+04
 -3.33818E+04  3.54872E+04 -4.43238E+04  9.95905E+03 -4.44390E+04 -1.76345E+04 -2.51559E+04 -4.00005E+04
  8.02340E+03 -3.99349E+04  3.26643E+04 -1.64645E+04  3.08365E+04  1.09826E+04  4.57382E+03  1.98699E+04
 -1.38371E+04  8.79484E+03 -1.06024E+04 -7.66630E+03  5.81396E+03 -1.05467E+04  1.81326E+04  5.40714E+03
  1.39441E+04  2.22184E+04 -5.17144E+03  2.58409E+04 -2.33326E+04  1.25019E+04 -2.99433E+04 -4.36480E+03
 -2.22325E+04 -1.80535E+04 -9.43492E+03 -2.27441E+04  3.62733E+03 -2.25637E+04  1.70772E+04 -1.99578E+04
  2.85320E+04 -1.31434E+04  3.50184E+04  3.39562E+03  2.53232E+04  2.13253E+04  4.97727E+03  3.77832E+04
 -1.85800E+04  3.14987E+04 -2.95755E+04  1.14166E+04 -2.14855E+04 -1.10074E+04 -4.93272E+03 -1.37469E+04
  1.82755E+03 -1.73531E+03 -6.31901E+03  7.19651E+03 -1.80136E+04  4.81517E+03 -1.74682E+04 -8.30894E+03
 -1.07872E+04 -2.09732E+04  4.90913E+03 -2.52502E+04  1.66203E+04 -1.71412E+04  2.06806E+04 -1.17459E+03
  1.26208E+04  1.38831E+04 -1.25749E+03  2.07141E+04 -1.50844E+04  1.14232E+04 -2.10238E+04 -4.03765E+03
 -1.57692E+04 -1.89538E+04 -2.29256E+03 -2.48083E+04  1.19822E+04 -2.02103E+04  2.03452E+04 -1.02874E+04
  1.87939E+04  2.52192E+02  1.44352E+04  4.66390E+03  7.71001E+03  9.92171E+02  1.05837E+04 -1.82495E+03
  1.89800E+04  2.90025E+03  2.19762E+04  1.59228E+04  1.49903E+04  3.35672E+04 -2.83960E+03  3.86601E+04
 -2.21729E+04  3.09111E+04 -3.57068E+04  1.64181E+04 -3.74376E+04 -2.26575E+03 -3.08416E+04 -2.21162E+04
 -1.30297E+04 -3.10215E+04  1.10170E+04 -2.72841E+04  2.40359E+04 -1.38180E+04  2.07111E+04  7.01043E+03
  7.01987E+03  1.59035E+04 -9.93438E+03  1.37942E+04 -1.75924E+04  2.37820E+03 -1.29440E+04 -1.13578E+04
 -3.40831E+02 -1.75572E+04  8.32423E+03 -1.27157E+04  1.15250E+04 -1.43055E+03  2.58989E+03  7.19722E+03
 -8.01446E+03  3.20339E+03 -7.57613E+03 -6.45812E+03 -5.67812E+02 -1.59014E+04  1.00122E+04 -1.64934E+04
  1.91336E+04 -8.89958E+03  2.13752E+04  3.37852E+03  1.84567E+04  1.57283E+04  8.72954E+03  2.38082E+04
 -4.68905E+03  2.48795E+04 -1.64790E+04  1.56893E+04 -1.85510E+04  3.84621E+03 -1.22238E+04 -4.84899E+03
 -6.07105E+03 -6.10467E+03  8.63662E+01  1.31134E+03 -2.47521E+03  3.20018E+03 -6.43116E+03  4.74632E+03
 -1.21364E+04 -5.37764E+02 -1.25752E+04 -9.50167E+03 -5.06099E+03 -1.65978E+04  5.52760E+03 -1.37373E+04
  1.03621E+04 -5.69729E+03  7.19280E+03  2.47404E+03 -1.45361E+02  5.40960E+03 -6.52752E+03  2.46168E+02
 -6.44727E+03 -8.68953E+03 -9.93983E+02 -1.27451E+04  7.32609E+03 -1.28070E+04  1.60801E+04 -7.14386E+03
  1.88562E+04  1.01504E+03  1.35553E+04  1.07899E+04  2.79066E+03  1.47841E+04 -7.89171E+03  1.32763E+04
 -1.08626E+04  4.30178E+03 -5.66700E+03 -2.24280E+03  2.68816E+03 -3.62736E+03  6.86547E+03 -1.02150E+03
  6.68265E+03  5.08912E+03  1.53138E+03  1.01395E+04 -6.98949E+03  9.98781E+03 -1.24638E+04  2.55856E+03
 -8.77391E+03 -6.75101E+03 -4.63660E+01 -1.06222E+04  6.55962E+03 -5.54983E+03  6.72846E+03  3.15909E+03
  1.90205E+03  7.88520E+03 -6.46468E+03  8.82348E+03 -1.01798E+04  3.93159E+03 -1.01399E+04 -3.63008E+03
 -6.38889E+03 -1.17276E+04  2.69364E+03 -1.31167E+04  1.14048E+04 -8.30502E+03  1.30836E+04  2.04722E+03
  7.91770E+03  1.02730E+04 -6.03514E+02  1.21173E+04 -9.62287E+03  6.78437E+03 -9.94878E+03 -1.03269E+03
 -8.75185E+03 -8.21490E+03 -1.03785E+03 -9.32517E+03  4.09815E+03 -7.40218E+03  5.86255E+03 -3.26364E+03
  4.99877E+03  1.40564E+03 -3.88741E+02  2.37236E+03  4.29924E+01 -2.67542E+03  1.38246E+03 -4.47962E+03
  8.18450E+03 -3.16145E+03  1.14196E+04  1.62686E+03  1.22954E+04  8.25476E+03  7.70693E+03  1.54075E+04
 -3.38645E+03  1.76142E+04 -1.49456E+04  1.34589E+04 -1.95462E+04  2.10408E+03 -1.50318E+04 -6.36626E+03
 -7.69234E+03 -1.26138E+04 -9.06655E+02 -1.12155E+04  3.45721E+03 -6.30384E+03  3.81931E+03 -4.05729E+03
  3.12019E+03 -2.56927E+03  3.54931E+03 -2.86807E+03  4.96434E+03 -3.32877E+03  6.20992E+03 -8.34076E+02
  7.93472E+03  1.64742E+03  3.86002E+03  6.29776E+03 -2.00855E+03  7.53198E+03 -8.58070E+03  5.59645E+03
 -1.14781E+04 -1.29367E+03 -5.10536E+03 -7.41010E+03 -6.73846E+02 -1.13168E+04  6.22616E+03 -1.13759E+04
  1.14441E+04 -6.84369E+03  1.37461E+04  1.45940E+03  9.42839E+03  9.36392E+03  1.55979E+03  1.26396E+04
 -4.78289E+03  1.11419E+04 -7.69644E+03  4.03219E+03 -4.95930E+03 -1.48316E+03 -2.47307E+03 -1.90343E+03
 -1.07944E+03 -4.62395E+02 -1.62178E+03  2.62540E+03 -4.60124E+03  2.12697E+03 -7.34175E+03 -8.44861E+02
 -5.27996E+03 -7.21978E+03  8.12636E+02 -1.05917E+04  6.65721E+03 -9.85527E+03  9.95911E+03 -2.87307E+03
  1.02070E+04  5.18931E+03  4.79829E+03  9.25414E+03 -2.32020E+03  1.03626E+04 -7.50428E+03  7.15773E+03
 -9.84999E+03  7.98888E+02 -7.55290E+03 -5.59937E+03 -1.22526E+03 -7.93320E+03  4.62849E+03 -6.27287E+03
  6.57434E+03 -1.77881E+03  4.18041E+03  1.10740E+03  1.03704E+03  3.65004E+03  1.10156E+03  1.60278E+03
  2.84622E+03  7.69352E+02  2.14602E+03  1.41991E+03  3.36603E+03  3.91771E+03  2.41578E+03  4.25888E+03
 -1.87228E+03  7.62921E+03 -7.06089E+03  8.90509E+03 -1.00545E+04  2.11910E+03 -1.03844E+04 -3.96102E+03
 -4.81727E+03 -1.01616E+04  1.33147E+03 -1.17124E+04  5.85764E+03 -6.96903E+03  7.69929E+03 -2.30210E+03
  6.29469E+03  4.34321E+03  1.33938E+03  5.60699E+03 -2.68887E+03  4.27633E+03 -4.06841E+03 -3.06072E+02
 -2.44330E+03 -4.83780E+03  2.51010E+03 -4.45276E+03  4.14866E+03 -2.86621E+03  4.21033E+03  5.66877E+02
  2.58137E+03  2.10291E+03  1.50136E+03  1.84936E+03 -7.55503E+02  1.11193E+03  1.85565E+03 -5.45731E+02
  1.80531E+03 -7.61057E+00  4.06005E+03  1.50008E+03  1.88146E+03  5.71685E+03 -8.50260E+02  7.25872E+03
 -4.32001E+03  4.31896E+03 -6.37718E+03  1.06889E+03 -5.43042E+03 -2.90462E+03 -2.40518E+03 -4.44764E+03
 -5.80906E+01 -3.36054E+03  3.16377E+03 -1.10309E+03  2.19537E+03  2.33271E+03 -1.20012E+03  3.63109E+03
 -3.84684E+03  2.86858E+03 -4.69464E+03 -2.70592E+03 -2.49231E+03 -5.11537E+03  1.03397E+03 -4.82331E+03
  3.22248E+03 -2.94596E+03  4.04301E+03 -4.47882E+02  2.65993E+03  7.34183E+02  2.11185E+02  3.78497E+03
 -2.03204E+03  3.40801E+02 -2.74507E+03 -1.75716E+03  1.27719E+03 -3.60108E+03  5.24610E+03 -3.02050E+03
  6.01080E+03  9.54659E+02  6.12202E+03  4.07024E+03  1.54353E+03  6.06611E+03 -1.76800E+03  5.75197E+03
 -4.76190E+03  2.17029E+03 -5.36564E+03 -7.01162E+02 -2.83176E+03 -4.49508E+03  1.25310E+03 -3.69081E+03
  4.15442E+03 -2.26929E+03  3.51845E+03  1.86473E+03  1.08477E+03  3.78055E+03 -5.46956E+02  3.49734E+03
 -1.88103E+03  2.03847E+03 -1.93809E+03  6.25146E+02 -5.02924E+02  1.19996E+03 -2.11957E+03  5.53552E+02
 -1.32535E+03  2.35518E+03 -3.95181E+03  1.65479E+03 -6.55174E+03  1.79937E+02 -7.40951E+03 -4.22052E+03
 -3.37696E+03 -7.92402E+03  1.36224E+03 -9.86912E+03  5.21541E+03 -7.36314E+03  8.57489E+03 -2.80192E+03
  8.05985E+03  9.65341E+02  4.54982E+03  5.54276E+03  1.28081E+02  6.42060E+03 -2.55615E+03  4.66727E+03
 -4.10941E+03  2.23729E+03 -1.86904E+03 -1.15352E+03 -1.14948E+03  1.87285E+02 -7.77805E+02 -1.66288E+02
 -1.20151E+03  1.10236E+02 -1.98662E+03  3.64935E+02  1.38442E+02 -1.71970E+03  5.79161E+02 -2.25434E+03
  2.60469E+03 -2.13592E+03  2.99565E+03 -2.65372E+02  5.03038E+03  3.72905E+03 -2.57045E+01  6.46655E+03
 -2.91137E+03  6.61337E+03 -6.57117E+03  3.83015E+03 -7.39927E+03 -8.12673E+02 -5.72595E+03 -4.61321E+03
 -2.67523E+03 -5.85061E+03  1.46477E+03 -5.52093E+03  3.90547E+03 -2.22784E+03  3.15817E+03 -7.91033E+01
  2.22721E+03  8.44199E+02 -2.61317E+02  1.66625E+03 -1.58163E+03  1.57151E+02  9.43374E+01 -1.32212E+03
  1.14958E+03 -1.35683E+03  2.66401E+03  1.28247E+03  1.60377E+03  2.42356E+03  7.76546E+02  2.88605E+03
 -2.14896E+03  2.62100E+03 -3.90333E+03  1.37025E+02 -3.38122E+03 -2.85770E+03 -9.24079E+02 -5.33877E+03
  3.11602E+03 -3.52422E+03  3.47431E+03 -1.70688E+03  4.08044E+03  1.18419E+03  2.07621E+03  4.38843E+03
  4.97612E+02  3.79463E+03 -1.25551E+03  3.04084E+03 -2.44995E+03  1.97438E+03 -1.86763E+03  2.30792E+02
 -9.79154E+02  1.04428E+02 -1.46773E+03  9.20429E+02 -1.82120E+03  1.32905E+03 -2.88928E+03 -7.75998E+02
 -2.44260E+03 -1.08120E+03 -5.92706E+02 -3.73003E+03  2.03003E+03 -4.56858E+03  2.43394E+03 -1.57786E+03
  3.41994E+03  4.30053E+02  1.36695E+03  3.24614E+03  2.23690E+02  3.22396E+03 -2.68682E+03  2.29973E+03
