 $NMID ID='MM_0lb_SNR400_18hz_g40_64.RAW', FMTDAT='(8E13.5)'
 TRAMP=1., VOLUME=1. $END
  3.10211E+05  1.01180E+02  3.37284E+05  2.50564E+05  8.43702E+04  3.37317E+05 -1.32205E+05  2.50076E+05
 -1.89455E+05  8.23370E+04 -1.11193E+05 -3.28826E+04  6.63840E+02 -5.03434E+04  5.42185E+04  3.29040E+02
  3.48469E+04  5.28712E+04 -1.66474E+04  7.48521E+04 -5.99120E+04  6.29098E+04 -8.31315E+04  3.10008E+04
 -7.94929E+04 -1.07437E+04 -5.57549E+04 -4.97605E+04 -1.41089E+04 -6.85995E+04  2.69931E+04 -4.47950E+04
  3.85753E+04  4.20684E+03  1.50671E+04  4.65998E+04 -3.37069E+04  4.60071E+04 -6.54752E+04 -5.61883E+02
 -5.17413E+04 -5.57901E+04 -5.90599E+03 -7.48522E+04  3.28911E+04 -5.32305E+04  4.61741E+04 -1.62310E+04
  4.11215E+04  1.12788E+04  3.02189E+04  2.40295E+04  1.60712E+04  2.74462E+04 -4.31922E+03  2.65054E+04
 -2.14183E+04  1.33515E+04 -1.89684E+04 -4.29443E+03  4.60370E+03 -7.10948E+03  2.08947E+04  1.03593E+04
  7.45184E+03  3.31567E+04 -3.01024E+04  3.39028E+04 -6.08071E+04  1.85476E+03 -5.48508E+04 -4.08768E+04
 -1.24664E+04 -6.05307E+04  3.83635E+04 -4.32450E+04  5.52767E+04 -1.97850E+03  3.19088E+04  2.99093E+04
 -6.49780E+03  3.24655E+04 -2.80769E+04  1.36294E+04 -2.75997E+04 -5.34006E+03 -1.43421E+04 -1.04230E+04
 -7.17304E+03 -1.09716E+04 -6.86680E+02 -1.65209E+04  6.28265E+03 -2.22148E+04  1.54111E+04 -1.37624E+04
  1.25042E+04  4.38598E+03 -6.41108E+03  1.36477E+04 -1.95462E+04 -1.67649E+03 -8.20329E+03 -3.04780E+04
  2.07513E+04 -4.03288E+04  4.47442E+04 -1.83058E+04  4.16249E+04  1.82007E+04  1.37928E+04  4.13857E+04
 -1.55859E+04  3.08495E+04 -2.30149E+04  1.35897E+03 -8.24398E+03 -2.61558E+04  2.06306E+04 -3.08690E+04
  3.76714E+04 -6.71060E+03  3.04607E+04  2.25503E+04  1.51275E+04  4.19531E+04 -7.74602E+03  4.44230E+04
 -2.82942E+04  2.92589E+04 -3.68226E+04  8.25393E+03 -3.77344E+04 -1.44647E+04 -2.05266E+04 -3.45369E+04
  6.32580E+03 -3.36249E+04  2.85160E+04 -1.22928E+04  2.63437E+04  1.07727E+04  3.18928E+03  1.74649E+04
 -1.30194E+04  7.02806E+03 -9.70326E+03 -7.45816E+03  5.94741E+03 -1.01508E+04  1.75045E+04  5.87145E+03
  1.16507E+04  2.18618E+04 -6.50422E+03  2.27241E+04 -2.11144E+04  8.95592E+03 -2.49321E+04 -6.18448E+03
 -1.72900E+04 -1.56002E+04 -6.09956E+03 -1.66035E+04  3.96373E+03 -1.36445E+04  1.22432E+04 -1.42741E+04
  2.06374E+04 -1.14171E+04  2.75469E+04  1.00291E+03  2.05278E+04  1.62219E+04  4.44013E+03  3.25564E+04
 -1.58842E+04  2.79570E+04 -2.56110E+04  9.28959E+03 -2.00648E+04 -1.00237E+04 -4.28800E+03 -1.42111E+04
  2.67808E+03 -4.28522E+03 -2.73820E+03  4.78198E+03 -1.33489E+04  5.69439E+03 -1.36627E+04 -4.83685E+03
 -8.40849E+03 -1.52277E+04  4.29213E+03 -1.89463E+04  1.26217E+04 -1.35010E+04  1.42199E+04 -1.30770E+03
  9.07160E+03  1.04356E+04 -7.90682E+02  1.57190E+04 -1.01246E+04  8.71209E+03 -1.56278E+04 -3.57488E+03
 -1.11326E+04 -1.41660E+04 -1.45038E+03 -1.92384E+04  8.14291E+03 -1.48798E+04  1.59670E+04 -7.56692E+03
  1.42025E+04  5.62375E+02  1.01756E+04  3.56598E+03  5.16535E+03  2.35351E+02  7.76289E+03 -1.88710E+03
  1.38252E+04  3.13091E+03  1.38850E+04  1.27050E+04  9.22525E+03  2.42368E+04 -3.03891E+03  2.60314E+04
 -1.56346E+04  1.98891E+04 -2.38135E+04  9.60345E+03 -2.46051E+04 -1.59400E+03 -2.10863E+04 -1.42644E+04
 -1.00635E+04 -1.98205E+04  6.62569E+03 -1.86954E+04  1.54757E+04 -1.09129E+04  1.53677E+04  3.57617E+03
  6.18181E+03  1.14649E+04 -6.18652E+03  1.00247E+04 -1.32519E+04  2.76129E+03 -1.01759E+04 -8.61133E+03
  7.23003E+02 -1.22569E+04  6.57795E+03 -9.63848E+03  8.13542E+03 -1.06774E+03  9.33429E+02  4.85794E+03
 -6.00737E+03  1.27542E+03 -3.27974E+03 -4.22929E+03  7.21880E+02 -1.00752E+04  8.01067E+03 -1.00476E+04
  1.22853E+04 -4.72226E+03  1.16870E+04  2.71973E+03  1.01210E+04  8.95663E+03  5.55459E+03  1.37225E+04
 -1.77730E+03  1.59476E+04 -9.15518E+03  9.96230E+03 -1.10891E+04  3.63187E+03 -8.03332E+03 -2.09527E+03
 -4.28347E+03 -3.52635E+03 -1.11146E+03  1.63728E+03 -2.43480E+03  1.99762E+03 -3.80540E+03  3.61387E+03
 -8.17653E+03 -9.72656E+02 -8.20159E+03 -7.04151E+03 -3.46054E+03 -1.16327E+04  3.51661E+03 -8.12283E+03
  6.92832E+03 -3.32784E+03  5.18951E+03  2.02586E+03  9.75855E+01  3.31929E+03 -3.46227E+03  3.88690E+02
 -3.29379E+03 -5.86557E+03 -7.60833E+02 -7.24039E+03  3.93591E+03 -7.62522E+03  9.80414E+03 -3.65561E+03
  1.11656E+04  8.60854E+02  9.08210E+03  5.69056E+03  2.06870E+03  8.50699E+03 -5.53299E+03  8.29970E+03
 -6.70602E+03  3.06155E+03 -3.57316E+03 -1.34398E+03  1.67999E+03 -1.89888E+03  4.45233E+03 -8.02171E+02
  4.32041E+03  3.04506E+03  1.00555E+03  5.81394E+03 -4.87456E+03  6.64734E+03 -7.28835E+03  1.70096E+03
 -5.53347E+03 -3.42416E+03  5.33240E+02 -6.82938E+03  4.09608E+03 -2.71157E+03  3.65173E+03  5.31877E+02
  3.39969E+02  3.62674E+03 -4.56611E+03  4.74127E+03 -5.08492E+03  2.29307E+03 -4.35800E+03 -1.17485E+03
 -2.93606E+03 -6.25698E+03  1.43847E+03 -6.80701E+03  5.87396E+03 -4.76274E+03  6.52820E+03  1.13655E+03
  5.18790E+03  5.98103E+03  1.14011E+02  7.51929E+03 -5.23015E+03  4.05455E+03 -5.43402E+03 -2.22699E+02
 -5.80521E+03 -5.42534E+03 -1.23469E+03 -4.80886E+03  2.14931E+03 -4.61357E+03  2.76413E+03 -3.38833E+03
  2.70358E+03 -2.73720E+01  6.24686E+02  1.87859E+03  3.65441E+02  3.35819E+01  7.99265E+02 -1.48187E+03
  4.41698E+03 -1.15501E+03  5.50328E+03  7.28536E+02  6.03931E+03  2.98586E+03  5.59038E+03  7.18904E+03
 -1.77499E+03  8.25999E+03 -7.85237E+03  6.55549E+03 -9.82864E+03  1.35470E+03 -7.88961E+03 -2.98285E+03
 -3.83777E+03 -6.52933E+03 -9.10934E+02 -5.67868E+03  2.06417E+03 -2.02207E+03  1.79049E+03 -2.27962E+03
  1.01628E+03 -1.29478E+03  2.16291E+03 -2.74313E+03  4.07965E+03 -1.49080E+03  3.58907E+03  4.29053E+02
  4.62638E+03  1.41504E+03  7.19439E+02  3.78326E+03 -1.09337E+03  2.95250E+03 -4.67535E+03  3.18071E+03
 -5.11892E+03 -1.18106E+03 -2.23343E+03 -3.32887E+03  3.47436E+02 -5.07002E+03  3.48331E+03 -5.23776E+03
  5.23858E+03 -3.08421E+03  6.46472E+03  4.17728E+02  5.27185E+03  4.26112E+03  1.27873E+03  6.33485E+03
 -2.33626E+03  6.04156E+03 -3.30289E+03  2.38746E+03 -2.29193E+03 -1.15315E+03 -6.59761E+02 -4.23922E+02
 -7.41267E+02  4.31094E+02 -8.62907E+02  1.92041E+03 -2.71931E+03  8.76172E+02 -4.97089E+03 -1.60578E+02
 -1.48631E+03 -3.64627E+03  5.25883E+02 -5.19784E+03  2.91790E+03 -4.18335E+03  3.85079E+03 -1.17704E+03
  4.00991E+03  1.66338E+03  1.46446E+03  3.49167E+03 -7.18661E+02  4.49912E+03 -2.81669E+03  2.91970E+03
 -3.76002E+03  9.44738E+02 -3.23100E+03 -2.52669E+03 -8.54720E+01 -2.68188E+03  1.31059E+03 -2.92494E+03
  2.71952E+03 -1.36228E+03  2.20945E+03  3.87429E+02  7.37468E+02  1.41920E+03  1.41354E+03  1.25046E+02
  1.57889E+03  2.45235E+02  1.31551E+03  8.41046E+02  1.11772E+03  2.36358E+03  1.37060E+03  1.69951E+03
 -1.48880E+03  2.99352E+03 -2.47793E+03  4.07059E+03 -2.89749E+03  1.00516E+03 -4.23903E+03 -2.41236E+02
 -1.39364E+03 -3.81471E+03  6.35661E+02 -4.89938E+03  2.63631E+03 -2.84499E+03  3.43865E+03 -5.48541E+02
  2.84243E+03  1.61047E+03  4.14083E+02  2.43420E+03 -5.50609E+02  1.35454E+03 -1.26623E+03 -2.23432E+02
 -1.03686E+03 -1.54383E+03  1.18272E+03 -1.61184E+03  1.14949E+03 -1.32293E+03  1.35381E+03  6.55499E+01
  2.44448E+02  7.57713E+02  1.19934E+03 -1.13347E+03 -5.14715E+02  9.99252E+02  1.69763E+03  2.96040E+02
  2.18018E+02 -6.17807E+02  1.64115E+03  7.09860E+02  3.68754E+02  2.49799E+03 -5.60989E+02  3.21712E+03
 -1.71187E+03  8.54717E+02 -2.13660E+03  7.45905E+02 -1.98090E+03 -8.36109E+02 -4.30060E+02 -1.01905E+03
  2.08406E+02 -1.71315E+03  8.81524E+02 -9.44989E+02  1.16467E+03  8.65538E+02 -4.05134E+02  1.02778E+03
 -1.86441E+03  3.72106E+02 -1.38930E+03 -4.79259E+02 -8.11831E+02 -2.94682E+03  4.95636E+02 -2.12629E+03
  1.00082E+03 -4.77034E+02  8.39899E+02  1.49753E+02  1.20582E+03 -2.39319E+02  9.74536E+02  1.30273E+03
 -7.87696E+02  2.19190E+02 -1.57034E+03 -3.87435E+02  1.08736E+02 -9.59284E+02  2.03020E+03 -7.26075E+02
  1.30919E+03  2.64689E+02  2.44515E+03  8.55497E+02  1.04231E+03  1.91905E+03  1.49074E+02  1.99878E+03
 -1.62247E+03  5.07411E+02 -1.72458E+03  1.68801E+02 -6.11445E+02 -1.46605E+03  2.45660E+02 -2.48289E+02
  1.80812E+03 -5.26958E+02  1.29358E+03  2.88207E+02 -9.17971E+01  1.58842E+03  1.15970E+02  1.05941E+03
 -2.47527E+02  1.18639E+03 -2.96520E+02  4.92673E+02 -6.21098E+01  4.67550E+00 -1.04702E+03  7.40718E+02
 -9.34720E+02  1.03071E+03 -1.44442E+03  4.97843E+02 -2.01781E+03  3.00052E+02 -2.55395E+03 -1.43129E+03
 -1.52948E+03 -2.49745E+03  1.92614E+02 -3.40057E+03  1.23297E+03 -2.84020E+03  3.46688E+03 -1.07639E+03
  2.50218E+03  2.86538E+01  1.25069E+03  9.25429E+02 -2.44030E+02  1.62748E+03 -7.35139E+02  1.28627E+03
 -7.02452E+02  1.13709E+03 -6.97253E+02  1.71619E+02 -4.76944E+02  8.16191E+01 -5.80301E+02 -2.39454E+02
 -1.71733E+03 -4.26234E+02 -8.60472E+02  1.17432E+02  4.28699E+02 -3.11106E+02 -6.98342E+02 -5.42529E+02
  1.48335E+03 -6.83408E+02  4.46802E+02  3.55972E+02  1.60264E+03  7.08235E+02 -4.66409E+02  1.42200E+03
 -9.07455E+02  2.56918E+03 -1.90990E+03  1.96502E+03 -2.09209E+03 -4.81225E+02 -1.32322E+03 -1.12083E+03
 -1.28850E+03 -1.77032E+03  5.65778E+02 -1.19038E+03  9.61341E+02 -1.22590E+03  3.72862E+02  3.51008E+02
  4.74014E+02  3.38507E+02  7.10648E+02  1.61365E+02 -3.96625E+02  1.86916E+02 -2.24876E+02 -3.41875E+02
  1.24887E+03  1.55842E+02  5.89678E+01  5.20656E+02 -2.21914E+02  5.36465E+02  1.76026E+02  3.52602E+02
 -9.37675E+02  8.25009E+02 -1.03048E+03 -8.43461E+01 -7.28271E+02 -4.42898E+02  1.66185E+02 -1.21543E+03
  1.24601E+02 -6.71193E+02  4.12873E+02 -9.91588E+01  7.80322E+02 -4.70745E+02  1.78270E+02  9.98731E+02
  7.83176E+02  1.03880E+03 -4.76737E+02  4.85244E+02  7.70068E+01  1.16570E+03 -1.59578E+02  3.32787E+02
 -2.89521E+02 -9.06095E+02 -5.90009E+01  1.31043E+02 -4.59047E+02  6.08960E+02 -8.33950E+02 -4.34176E+02
 -1.18181E+03 -2.62147E+02 -3.50953E+02 -8.50495E+02  6.94183E+02 -1.59755E+03  2.80492E+02 -2.46734E+02
  7.92656E+02  1.89084E+02 -1.82554E+01 -9.99424E+00 -1.61166E+02  6.07457E+02 -3.24769E+02  8.52388E+02
