 $NMID ID='MM_0lb_SNR400_15hz_g40_30.RAW', FMTDAT='(8E13.5)'
 TRAMP=1., VOLUME=1. $END
  3.09774E+05  3.68749E+02  3.37388E+05  2.50259E+05  8.43850E+04  3.37624E+05 -1.32408E+05  2.50069E+05
 -1.89982E+05  8.29775E+04 -1.10444E+05 -3.20845E+04  1.37927E+03 -5.06206E+04  5.39469E+04 -2.80459E+02
  3.52572E+04  5.26474E+04 -1.67227E+04  7.52573E+04 -6.09824E+04  6.28610E+04 -8.31622E+04  3.19931E+04
 -8.02782E+04 -1.11505E+04 -5.69658E+04 -5.06937E+04 -1.50191E+04 -6.89332E+04  2.73605E+04 -4.49450E+04
  3.99781E+04  3.61910E+03  1.55913E+04  4.68694E+04 -3.43891E+04  4.68716E+04 -6.59069E+04 -5.02445E+02
 -5.30486E+04 -5.62366E+04 -6.73862E+03 -7.70564E+04  3.37842E+04 -5.40837E+04  4.72840E+04 -1.65519E+04
  4.26906E+04  1.04037E+04  3.12412E+04  2.45924E+04  1.59905E+04  2.90278E+04 -5.36484E+03  2.69236E+04
 -2.19141E+04  1.31431E+04 -1.94786E+04 -4.83475E+03  5.47628E+03 -7.56113E+03  2.16434E+04  1.18986E+04
  7.65084E+03  3.39231E+04 -3.14505E+04  3.54493E+04 -6.24861E+04  2.02167E+03 -5.59161E+04 -4.18278E+04
 -1.20383E+04 -6.17471E+04  3.88634E+04 -4.36923E+04  5.63883E+04 -2.22285E+03  3.29511E+04  3.12877E+04
 -6.61013E+03  3.42924E+04 -2.91671E+04  1.43009E+04 -2.97404E+04 -4.17254E+03 -1.55765E+04 -1.04391E+04
 -7.54846E+03 -1.20245E+04 -1.15657E+03 -1.79621E+04  7.03726E+03 -2.29219E+04  1.50039E+04 -1.40686E+04
  1.19098E+04  4.79134E+03 -7.37292E+03  1.32730E+04 -2.03060E+04 -3.78381E+03 -8.56138E+03 -3.21182E+04
  2.19875E+04 -4.16618E+04  4.71354E+04 -1.88532E+04  4.40780E+04  1.92521E+04  1.48777E+04  4.30182E+04
 -1.52407E+04  3.25784E+04 -2.41786E+04  1.56254E+03 -8.67405E+03 -2.68019E+04  2.10499E+04 -3.25638E+04
  3.91145E+04 -7.98434E+03  3.36190E+04  2.37199E+04  1.67314E+04  4.46113E+04 -8.55866E+03  4.82291E+04
 -3.03089E+04  3.15165E+04 -3.94220E+04  8.54706E+03 -4.04993E+04 -1.54827E+04 -2.22058E+04 -3.64551E+04
  7.05766E+03 -3.56325E+04  3.06501E+04 -1.37946E+04  2.87739E+04  1.08686E+04  4.12982E+03  1.83703E+04
 -1.27822E+04  7.82491E+03 -1.05895E+04 -7.51576E+03  5.45083E+03 -1.02156E+04  1.75461E+04  6.74431E+03
  1.31549E+04  2.26154E+04 -6.15203E+03  2.39626E+04 -2.14817E+04  1.06208E+04 -2.66709E+04 -4.76709E+03
 -1.85386E+04 -1.66538E+04 -6.81181E+03 -1.89920E+04  3.82340E+03 -1.71661E+04  1.44193E+04 -1.67748E+04
  2.41482E+04 -1.20868E+04  3.07983E+04  1.91461E+03  2.25517E+04  1.79036E+04  3.77880E+03  3.43839E+04
 -1.66654E+04  2.94659E+04 -2.67014E+04  1.02548E+04 -1.97357E+04 -1.03632E+04 -4.42720E+03 -1.28478E+04
  2.54099E+03 -3.20554E+03 -3.76415E+03  5.77242E+03 -1.50223E+04  5.31641E+03 -1.45239E+04 -5.90669E+03
 -9.14497E+03 -1.72931E+04  5.02108E+03 -2.13577E+04  1.40164E+04 -1.49693E+04  1.63133E+04 -1.59723E+03
  1.04106E+04  1.19366E+04 -9.30197E+02  1.75184E+04 -1.18604E+04  9.96989E+03 -1.75852E+04 -3.23181E+03
 -1.30939E+04 -1.59467E+04 -1.71445E+03 -2.13333E+04  9.96542E+03 -1.70310E+04  1.78858E+04 -8.61538E+03
  1.65428E+04  3.45890E+02  1.20117E+04  4.51135E+03  5.61369E+03  8.43052E+02  8.74789E+03 -1.26230E+03
  1.55558E+04  2.41658E+03  1.78614E+04  1.35454E+04  1.12589E+04  2.78310E+04 -3.07442E+03  3.12952E+04
 -1.80812E+04  2.43118E+04 -2.88092E+04  1.17340E+04 -3.01546E+04 -1.78166E+03 -2.48632E+04 -1.71917E+04
 -1.17201E+04 -2.41601E+04  7.59913E+03 -2.23198E+04  1.98023E+04 -1.17764E+04  1.79850E+04  4.66965E+03
  7.02136E+03  1.25565E+04 -8.27388E+03  1.19406E+04 -1.49881E+04  2.72737E+03 -1.18998E+04 -9.58466E+03
 -1.81184E+02 -1.38366E+04  7.32521E+03 -9.71434E+03  9.33619E+03 -1.63574E+03  1.52381E+03  6.00548E+03
 -6.28642E+03  2.04492E+03 -5.13511E+03 -5.63243E+03  5.70307E+02 -1.19392E+04  8.90759E+03 -1.17861E+04
  1.47907E+04 -6.28553E+03  1.56827E+04  2.69408E+03  1.36409E+04  1.12333E+04  5.94260E+03  1.75742E+04
 -1.86834E+03  1.95435E+04 -1.22253E+04  1.20355E+04 -1.37116E+04  3.06189E+03 -9.92924E+03 -2.46361E+03
 -5.13446E+03 -4.75357E+03 -1.07504E+03  7.54829E+02 -2.38596E+03  2.72831E+03 -4.21038E+03  4.23909E+03
 -1.02271E+04 -7.57102E+02 -1.03075E+04 -7.92063E+03 -4.27563E+03 -1.30670E+04  4.28013E+03 -1.03806E+04
  9.13292E+03 -4.13990E+03  6.46320E+03  2.09491E+03  1.39947E+02  3.37241E+03 -4.20604E+03 -1.74696E+02
 -4.69936E+03 -6.34194E+03 -5.97561E+02 -8.99168E+03  5.13280E+03 -1.01047E+04  1.23892E+04 -5.45739E+03
  1.42368E+04  7.04608E+02  1.06905E+04  7.86251E+03  2.25803E+03  1.16272E+04 -6.60080E+03  1.00715E+04
 -7.93741E+03  3.40242E+03 -4.06277E+03 -1.01354E+03  1.86531E+03 -2.46499E+03  5.94354E+03 -1.07190E+03
  4.68830E+03  4.30158E+03  9.48818E+02  8.02895E+03 -5.92532E+03  7.79084E+03 -9.82905E+03  1.82246E+03
 -6.43725E+03 -4.90408E+03 -3.56212E+02 -7.97537E+03  5.07202E+03 -3.63139E+03  4.94973E+03  1.52463E+03
  9.06677E+02  4.98268E+03 -4.61859E+03  5.85923E+03 -7.33259E+03  3.22841E+03 -6.69765E+03 -1.75106E+03
 -3.97512E+03 -8.24784E+03  1.61228E+03 -9.91623E+03  8.12028E+03 -5.75508E+03  9.02817E+03  1.72153E+03
  6.05132E+03  6.77260E+03  1.45763E+02  8.92062E+03 -6.64849E+03  4.96909E+03 -6.77176E+03 -2.06730E+02
 -6.94278E+03 -6.48808E+03 -1.37130E+03 -6.94338E+03  3.55317E+03 -5.86624E+03  4.41004E+03 -3.13710E+03
  3.54855E+03  2.89542E+02 -6.17619E+02  1.54725E+03  4.44844E+02 -4.69952E+02  6.65133E+02 -3.81019E+03
  5.19674E+03 -1.70600E+03  7.75333E+03  3.39536E+02  7.56026E+03  4.61921E+03  5.62447E+03  1.03318E+04
 -1.86385E+03  1.22476E+04 -1.06017E+04  8.97024E+03 -1.37519E+04  2.40335E+03 -1.08944E+04 -4.31430E+03
 -5.35890E+03 -8.92488E+03 -1.60351E+02 -7.00560E+03  3.14769E+03 -3.94132E+03  2.72867E+03 -3.07445E+03
  1.64187E+03 -2.04739E+03  3.34452E+03 -2.47208E+03  4.05709E+03 -1.52811E+03  4.05991E+03  2.96315E+02
  5.97843E+03  1.81465E+03  1.80223E+03  4.44874E+03 -2.14444E+03  4.55320E+03 -5.83836E+03  3.86620E+03
 -7.71044E+03 -1.31637E+03 -3.95046E+03 -5.11918E+03  4.01875E+02 -7.77576E+03  4.23149E+03 -7.72359E+03
  7.79321E+03 -4.57223E+03  9.41152E+03  1.18206E+03  6.94823E+03  6.35312E+03  1.35735E+03  8.57748E+03
 -4.41575E+03  7.45057E+03 -5.03556E+03  2.32712E+03 -3.27835E+03 -1.04708E+03 -8.22344E+02 -5.07903E+02
 -3.06588E+02  1.19362E+02 -1.59534E+03  1.90614E+03 -3.42970E+03  1.37613E+03 -5.43283E+03 -6.13777E+02
 -2.37414E+03 -5.53132E+03  9.05697E+02 -7.22987E+03  4.33589E+03 -5.99622E+03  5.31004E+03 -1.56812E+03
  6.43468E+03  3.73176E+03  2.50918E+03  5.29541E+03 -1.20125E+03  7.20194E+03 -4.29286E+03  3.48055E+03
 -5.88254E+03  8.56840E+02 -5.01726E+03 -3.75300E+03 -4.63545E+02 -4.86588E+03  2.64894E+03 -3.75781E+03
  3.87075E+03 -1.41527E+03  2.51523E+03  1.26472E+03  7.94993E+02  2.20604E+03  6.34971E+02  1.22305E+03
  2.06156E+03  7.64707E+02  2.08011E+03  1.45081E+03  2.13172E+03  2.26085E+03  2.09465E+03  2.81912E+03
 -1.62071E+03  5.06100E+03 -4.44254E+03  6.37494E+03 -5.59679E+03  1.92726E+03 -6.64007E+03 -1.17577E+03
 -2.73408E+03 -6.22975E+03  1.22076E+03 -7.55130E+03  3.57782E+03 -4.28270E+03  4.95728E+03 -1.52860E+03
  3.53656E+03  2.57559E+03  1.41250E+03  3.45104E+03 -9.96476E+02  1.94122E+03 -2.41706E+03 -1.03403E+02
 -9.29724E+02 -2.15822E+03  1.99842E+03 -2.41631E+03  2.81127E+03 -1.34063E+03  3.03565E+03  8.33819E+02
  1.52559E+03  2.59361E+02  8.82391E+02  5.69260E+02 -3.20301E+02  1.37388E+03  7.14515E+02 -6.63923E+01
  3.90388E+02 -8.73441E+02  2.71472E+03  7.11290E+02  1.11030E+03  3.28753E+03 -1.00429E+03  4.65867E+03
 -3.23309E+03  2.44977E+03 -3.87358E+03  1.06101E+03 -3.68778E+03 -1.55243E+03 -4.94906E+02 -2.17064E+03
  3.77491E+02 -2.04207E+03  1.31290E+03 -5.47452E+02  8.95763E+02  1.50376E+03 -1.42824E+03  2.00075E+03
 -1.67564E+03  1.30659E+03 -2.85739E+03 -2.42871E+03 -2.03842E+03 -3.02045E+03  1.48417E+02 -2.74869E+03
  1.60427E+03 -1.47089E+03  1.68617E+03 -1.70321E+02  1.91715E+03  6.38379E+01  2.75012E+02  1.95577E+03
 -6.50713E+02  3.27353E+02 -1.92672E+03 -2.41869E+02  1.00594E+03 -1.73767E+03  2.68076E+03 -2.25717E+03
  3.08878E+03  6.87857E+02  4.11471E+03  1.87640E+03  1.33300E+03  2.84841E+03 -1.27286E+03  3.27796E+03
 -3.13653E+03  1.25537E+03 -2.87915E+03 -5.90110E+02 -1.95343E+03 -1.91313E+03  5.58302E+02 -1.91125E+03
  2.78552E+03 -1.49485E+03  1.51394E+03  1.07075E+03 -2.90282E+01  2.14751E+03  6.07310E+02  1.63345E+03
 -9.83434E+02  1.04154E+03 -8.36493E+02 -1.53457E+02 -5.04137E+02  4.92299E+02 -7.01248E+02  6.63895E+02
 -1.11556E+03  1.08328E+03 -2.14145E+03  1.13352E+03 -2.69549E+03 -3.41826E+02 -3.37053E+03 -1.88158E+03
 -1.43356E+03 -4.02863E+03  1.37155E+03 -5.39656E+03  2.40398E+03 -3.95021E+03  5.31549E+03 -2.14472E+03
  5.27602E+03  5.24680E+02  2.24074E+03  2.88482E+03  2.84004E+00  2.93017E+03 -1.44775E+03  2.68808E+03
 -2.01437E+03  1.31567E+03 -8.35853E+02 -1.00074E+02 -9.05846E+02  2.35641E+01 -7.53657E+02 -1.95296E+02
 -7.88671E+02 -3.46798E+02 -1.08463E+03  2.19947E+02  6.09416E+02 -9.17119E+02 -2.60060E+02 -1.52733E+03
  1.30993E+03 -8.94702E+02  2.02897E+03 -2.58619E+02  2.40861E+03  1.59877E+03  3.44285E+02  3.07316E+03
 -1.64606E+03  4.03108E+03 -3.28795E+03  2.23103E+03 -4.04840E+03 -1.94472E+02 -2.55262E+03 -2.36819E+03
 -1.38446E+03 -3.50376E+03  6.38667E+02 -2.70177E+03  1.82909E+03 -1.51500E+03  1.92033E+03  2.23777E+02
  8.40267E+02  1.15934E+03  2.69054E+02  1.03773E+03 -7.91764E+02 -4.66153E+02  2.71782E+02 -5.27960E+02
  1.10232E+03 -6.69288E+01  1.07955E+03  7.20367E+01  2.80382E+02  1.65330E+03 -3.46957E+02  1.02114E+03
 -1.26583E+03  1.66764E+03 -2.08288E+03  1.83543E+02 -1.88716E+03 -1.01290E+03 -4.11491E+02 -2.59364E+03
  1.57796E+03 -2.01949E+03  1.81148E+03 -2.53812E+02  1.93930E+03 -9.67458E+01  1.01717E+03  1.95522E+03
  7.24784E+02  1.85729E+03 -1.14428E+03  1.59842E+03 -1.66804E+03  1.32313E+03 -7.43373E+02 -9.79486E+01
 -4.77272E+02 -9.74302E+01 -4.66098E+02  7.11529E+02 -9.23218E+02  1.19349E+02 -1.66360E+03 -6.36553E+01
 -1.93764E+03 -3.42088E+02  1.11940E+02 -2.34969E+03  1.69196E+03 -2.30422E+03  1.58765E+03 -8.83265E+02
  1.62827E+03  1.65450E+02  2.33771E+02  9.51705E+02  2.11708E+02  2.15790E+03 -1.29402E+03  1.01736E+03
