 $NMID ID='MM_0lb_SNR400_7hz_g45_28.RAW', FMTDAT='(8E13.5)'
 TRAMP=1., VOLUME=1. $END
  3.09904E+05  1.10148E+03  3.38933E+05  2.50121E+05  8.42472E+04  3.38961E+05 -1.32845E+05  2.52822E+05
 -1.91284E+05  8.37043E+04 -1.13061E+05 -3.29548E+04  1.97366E+02 -5.05514E+04  5.31675E+04 -6.55193E+02
  3.45379E+04  5.35127E+04 -1.58705E+04  7.65247E+04 -6.13082E+04  6.49701E+04 -8.56385E+04  3.26886E+04
 -8.31408E+04 -1.22748E+04 -5.80222E+04 -5.28802E+04 -1.54946E+04 -7.01753E+04  2.82327E+04 -4.71366E+04
  4.17660E+04  4.86896E+03  1.75664E+04  4.80176E+04 -3.42967E+04  4.83930E+04 -6.75504E+04  8.93942E+01
 -5.54693E+04 -5.78981E+04 -7.79777E+03 -7.98255E+04  3.52923E+04 -5.76532E+04  5.01336E+04 -1.91093E+04
  4.57352E+04  1.12586E+04  3.37684E+04  2.65630E+04  1.65319E+04  3.10435E+04 -5.23798E+03  2.76036E+04
 -2.24554E+04  1.18084E+04 -1.83538E+04 -4.97394E+03  7.65754E+03 -6.55568E+03  2.33119E+04  1.43654E+04
  7.36199E+03  3.90508E+04 -3.42236E+04  3.73201E+04 -6.67753E+04  2.23810E+03 -6.02202E+04 -4.55601E+04
 -1.31183E+04 -6.66842E+04  4.16424E+04 -4.85857E+04  6.16290E+04 -3.01906E+03  3.64803E+04  3.60311E+04
 -5.29276E+03  3.99942E+04 -3.27073E+04  2.03131E+04 -3.42983E+04 -3.61697E+03 -1.97411E+04 -1.26107E+04
 -8.88903E+03 -1.57464E+04 -5.01396E+01 -1.99345E+04  8.77614E+03 -2.31983E+04  1.60500E+04 -1.27503E+04
  1.04038E+04  7.15156E+03 -1.12169E+04  1.18769E+04 -2.41631E+04 -7.58307E+03 -8.76837E+03 -3.84717E+04
  2.43060E+04 -4.70116E+04  5.32116E+04 -2.08077E+04  4.98831E+04  2.11749E+04  1.86619E+04  4.79642E+04
 -1.63731E+04  3.64157E+04 -2.78753E+04  2.51745E+03 -1.15733E+04 -3.01451E+04  2.18511E+04 -3.84073E+04
  4.66367E+04 -1.16842E+04  4.13173E+04  2.49911E+04  2.30046E+04  5.25554E+04 -8.40450E+03  5.82887E+04
 -3.55901E+04  3.91884E+04 -4.88899E+04  1.17902E+04 -4.94163E+04 -1.95319E+04 -2.64410E+04 -4.32011E+04
  7.54855E+03 -4.31640E+04  3.46239E+04 -1.84645E+04  3.27988E+04  1.04235E+04  5.09744E+03  2.18259E+04
 -1.46028E+04  1.02269E+04 -1.13764E+04 -6.71224E+03  6.43100E+03 -1.17578E+04  1.84580E+04  5.05225E+03
  1.49845E+04  2.22886E+04 -5.92648E+03  2.67886E+04 -2.39000E+04  1.50587E+04 -3.28218E+04 -2.43499E+03
 -2.73813E+04 -1.85217E+04 -1.25585E+04 -2.64169E+04  3.57997E+03 -2.76552E+04  2.10137E+04 -2.43147E+04
  3.43078E+04 -1.47996E+04  4.07129E+04  6.12614E+03  2.77323E+04  2.56353E+04  4.85982E+03  4.29766E+04
 -2.00013E+04  3.52037E+04 -3.11174E+04  1.19245E+04 -2.29969E+04 -9.55781E+03 -4.53651E+03 -1.25545E+04
  2.31091E+02  6.32787E+02 -8.97426E+03  8.35881E+03 -2.19514E+04  4.97807E+03 -2.11523E+04 -1.11948E+04
 -1.22186E+04 -2.48070E+04  6.22225E+03 -2.92018E+04  2.01132E+04 -1.96091E+04  2.41535E+04 -2.11245E+03
  1.56703E+04  1.64448E+04 -1.49743E+03  2.40097E+04 -1.89672E+04  1.46648E+04 -2.53444E+04 -4.70277E+03
 -1.74038E+04 -2.26044E+04 -1.47902E+03 -2.96954E+04  1.40544E+04 -2.63844E+04  2.49565E+04 -1.30287E+04
  2.28879E+04 -1.15249E+02  1.69166E+04  5.83147E+03  8.94368E+03  9.50432E+02  1.24333E+04 -2.00525E+03
  2.40615E+04  2.75207E+03  2.75353E+04  1.85761E+04  1.83206E+04  4.11677E+04 -2.34527E+03  4.75191E+04
 -2.76204E+04  4.01426E+04 -4.43839E+04  2.06093E+04 -4.78686E+04 -4.45883E+03 -4.03931E+04 -2.89491E+04
 -1.53372E+04 -4.00668E+04  1.46067E+04 -3.50465E+04  2.96157E+04 -1.58460E+04  2.62466E+04  7.65394E+03
  9.07144E+03  2.04709E+04 -1.20875E+04  1.76853E+04 -2.19657E+04  2.65428E+03 -1.67268E+04 -1.44661E+04
 -7.73370E+02 -2.11127E+04  1.19195E+04 -1.56330E+04  1.47237E+04 -2.26437E+03  3.83230E+03  1.03925E+04
 -1.02055E+04  4.16513E+03 -9.21037E+03 -8.03368E+03 -2.58603E+03 -2.01830E+04  1.22862E+04 -2.24098E+04
  2.56920E+04 -1.29697E+04  3.03804E+04  3.42449E+03  2.52951E+04  1.97196E+04  1.19583E+04  3.33275E+04
 -5.78905E+03  3.48655E+04 -2.32609E+04  2.10834E+04 -2.51990E+04  4.27965E+03 -1.67649E+04 -6.49357E+03
 -7.09962E+03 -8.19663E+03 -4.79224E+02 -4.57908E+02 -2.41347E+03  4.23946E+03 -7.70841E+03  6.97807E+03
 -1.61072E+04 -1.09623E+03 -1.64484E+04 -1.28602E+04 -6.32887E+03 -2.10363E+04  7.03989E+03 -1.69553E+04
  1.39534E+04 -7.97590E+03  9.97726E+03  4.63998E+03 -4.86129E+02  6.45555E+03 -9.68037E+03  3.93576E+02
 -8.76229E+03 -1.15416E+04 -9.48994E+02 -1.75294E+04  1.02597E+04 -1.81952E+04  2.27306E+04 -9.57141E+03
  2.54446E+04  2.01536E+03  1.89338E+04  1.67270E+04  4.17373E+03  2.13617E+04 -1.11563E+04  1.64312E+04
 -1.37334E+04  4.84902E+03 -7.51346E+03 -3.91276E+03  1.26810E+03 -4.46064E+03  8.64994E+03 -1.13944E+03
  8.66055E+03  6.80847E+03  7.90420E+02  1.45888E+04 -9.80424E+03  1.39483E+04 -1.71764E+04  2.97814E+03
 -1.23586E+04 -9.89245E+03  7.31815E+02 -1.47563E+04  1.07807E+04 -7.75141E+03  1.11803E+04  3.79071E+03
  3.28895E+03  1.18422E+04 -9.04477E+03  1.34242E+04 -1.57684E+04  5.95011E+03 -1.62914E+04 -6.96461E+03
 -9.12685E+03 -1.75238E+04  4.85540E+03 -2.06962E+04  1.77685E+04 -1.27308E+04  1.95053E+04  3.94001E+03
  1.09348E+04  1.54826E+04 -2.63043E+03  1.80558E+04 -1.32805E+04  9.86246E+03 -1.45035E+04 -2.91911E+03
 -1.19578E+04 -1.18764E+04 -2.23322E+03 -1.45053E+04  7.60556E+03 -1.10357E+04  9.66615E+03 -4.11317E+03
  6.10947E+03  2.23126E+03 -1.54508E+03  2.07486E+03 -1.40240E+03 -4.56327E+03  3.43854E+03 -9.73058E+03
  1.30382E+04 -5.29119E+03  1.87181E+04  3.54347E+03  1.90098E+04  1.37392E+04  1.07003E+04  2.44371E+04
 -6.19048E+03  2.82734E+04 -2.38464E+04  2.11801E+04 -3.08690E+04  4.33950E+03 -2.44310E+04 -1.06644E+04
 -1.23301E+04 -2.00976E+04  6.34996E+02 -1.65268E+04  6.14207E+03 -1.03595E+04  6.74836E+03 -5.73062E+03
  3.88687E+03 -3.29219E+03  4.96579E+03 -3.99101E+03  6.02983E+03 -3.65685E+03  8.95116E+03 -2.21804E+03
  1.20745E+04  2.43389E+03  7.19094E+03  1.18138E+04 -1.42042E+03  1.34943E+04 -1.36281E+04  1.13147E+04
 -1.72064E+04 -1.77563E+03 -1.19066E+04 -1.22665E+04 -2.00627E+03 -1.87795E+04  9.27022E+03 -1.94983E+04
  1.93773E+04 -9.48442E+03  2.38474E+04  3.79586E+03  1.66189E+04  1.52878E+04  2.56944E+03  2.10550E+04
 -9.20647E+03  1.72532E+04 -1.15855E+04  5.74337E+03 -9.10051E+03 -1.27718E+03 -3.38041E+03 -3.41162E+03
 -1.77404E+03 -5.48091E+02 -2.91075E+03  2.45408E+03 -7.25380E+03  2.73900E+03 -1.31731E+04 -2.14861E+03
 -8.41339E+03 -1.15653E+04 -5.98300E+02 -1.73090E+04  1.05463E+04 -1.66562E+04  1.78428E+04 -6.20785E+03
  1.83559E+04  7.96156E+03  8.39667E+03  1.60371E+04 -3.82853E+03  1.85208E+04 -1.28348E+04  1.11512E+04
 -1.79839E+04 -4.14169E+02 -1.29024E+04 -1.12519E+04 -1.71081E+03 -1.63207E+04  7.82917E+03 -1.06363E+04
  1.08448E+04 -3.44282E+03  7.90342E+03  2.71544E+03  2.42741E+03  5.79807E+03  1.61486E+03  2.25050E+03
  2.96289E+03  2.25054E+03  5.05992E+03  1.80297E+03  6.54387E+03  6.32762E+03  4.95098E+03  9.76774E+03
 -3.49602E+03  1.43147E+04 -1.14552E+04  1.45992E+04 -2.02525E+04  4.03281E+03 -1.98770E+04 -8.01084E+03
 -9.45854E+03 -1.91711E+04  3.53121E+03 -2.02365E+04  1.23104E+04 -1.35034E+04  1.59602E+04 -3.10313E+03
  1.19891E+04  6.39134E+03  2.30715E+03  1.04764E+04 -5.70042E+03  6.25062E+03 -9.42781E+03 -9.17279E+02
 -3.01491E+03 -7.56264E+03  3.52980E+03 -8.24348E+03  7.50794E+03 -4.26877E+03  8.35264E+03  1.78194E+03
  5.07514E+03  4.24366E+03  2.07107E+03  3.86462E+03 -1.40451E+03  3.20874E+03  2.61524E+03 -3.31935E+02
  3.94360E+03 -1.11316E+03  7.73589E+03  3.42616E+03  4.22588E+03  9.62246E+03 -1.74638E+03  1.25847E+04
 -8.63381E+03  9.38578E+03 -1.26698E+04  2.06920E+03 -1.10790E+04 -4.30042E+03 -3.53668E+03 -7.64586E+03
  1.02838E+03 -7.33651E+03  4.63912E+03 -3.02844E+03  4.94294E+03  3.67900E+03 -1.44909E+03  6.94774E+03
 -7.41911E+03  4.14796E+03 -1.02823E+04 -4.33774E+03 -4.19122E+03 -1.12655E+04  2.07666E+03 -1.25364E+04
  7.36549E+03 -6.16081E+03  7.46798E+03 -8.37247E+02  6.88899E+03  2.47034E+03  1.49432E+03  5.38306E+03
 -3.62215E+03  1.69644E+03 -4.95406E+03 -3.47356E+03  1.38746E+03 -9.09684E+03  9.29179E+03 -7.37518E+03
  1.32007E+04  1.08887E+03  1.15730E+04  9.59577E+03  4.79940E+03  1.37991E+04 -3.86768E+03  1.17923E+04
 -1.10455E+04  5.50000E+03 -1.07840E+04 -1.65775E+03 -5.95150E+03 -8.29166E+03  2.52697E+03 -7.70031E+03
  7.22306E+03 -2.92761E+03  6.64882E+03  4.31144E+03  2.26104E+03  6.59695E+03 -1.59162E+03  6.31588E+03
 -3.51412E+03  4.23519E+03 -3.09846E+03  1.85511E+03 -2.09688E+03  1.81362E+03 -1.45747E+03  2.02406E+03
 -4.36403E+03  4.29807E+03 -8.01005E+03  4.31419E+03 -1.35470E+04  8.52401E+02 -1.50084E+04 -9.28527E+03
 -8.84180E+03 -1.91388E+04  3.26930E+03 -2.07152E+04  1.24270E+04 -1.57087E+04  1.95169E+04 -5.48759E+03
  1.80076E+04  4.15357E+03  1.19280E+04  1.31398E+04  6.14560E+02  1.44963E+04 -5.66601E+03  1.03789E+04
 -8.60641E+03  3.63968E+03 -5.31442E+03 -1.32967E+03 -2.41236E+03 -1.81998E+03 -7.43207E+02  5.46063E+02
 -2.35833E+03  1.06491E+02 -3.22645E+03 -1.41008E+03 -5.09165E+02 -3.47760E+03  6.43104E+02 -5.02306E+03
  6.96987E+03 -4.82233E+03  1.01722E+04 -6.49791E+02  1.07380E+04  8.56085E+03  3.08937E+03  1.35387E+04
 -7.33327E+03  1.62366E+04 -1.53929E+04  9.69558E+03 -1.73599E+04 -5.21876E+02 -1.26890E+04 -1.02949E+04
 -5.59930E+03 -1.61660E+04  3.15893E+03 -1.30901E+04  9.61522E+03 -7.65670E+03  9.73229E+03  5.35513E+02
  4.60382E+03  4.43121E+03 -1.22939E+03  3.84617E+03 -2.45650E+03 -4.77963E+01  5.94867E+01 -3.03448E+03
  4.60099E+03 -2.34010E+03  5.82822E+03  2.17110E+03  4.00904E+03  6.00333E+03 -2.13935E+02  7.78228E+03
 -6.67624E+03  6.94755E+03 -1.02301E+04  4.55830E+02 -9.11228E+03 -6.78916E+03 -1.61589E+03 -1.18931E+04
  6.79174E+03 -9.62946E+03  1.21559E+04 -3.01807E+03  1.12239E+04  1.76629E+03  6.82376E+03  9.14670E+03
  1.74691E+03  1.02848E+04 -3.75901E+03  8.05090E+03 -6.15980E+03  4.28302E+03 -5.46547E+03  5.53547E+02
 -2.92939E+03 -4.69833E+02 -2.32209E+03  1.30819E+03 -4.97549E+03  1.89791E+03 -8.27202E+03 -1.50295E+03
 -6.75302E+03 -5.51322E+03 -2.33881E+03 -9.53126E+03  4.65595E+03 -1.07022E+04  9.34140E+03 -4.50170E+03
  1.02939E+04  1.09089E+03  5.67677E+03  7.62065E+03 -6.55142E+02  1.00464E+04 -8.51473E+03  7.06914E+03
