 $NMID ID='MM_0lb_SNR400_14hz_g45_10.RAW', FMTDAT='(8E13.5)'
 TRAMP=1., VOLUME=1. $END
  3.09627E+05  4.17382E+02  3.37710E+05  2.50449E+05  8.44370E+04  3.38357E+05 -1.32494E+05  2.50650E+05
 -1.90385E+05  8.25858E+04 -1.11251E+05 -3.24815E+04  1.40910E+03 -4.99224E+04  5.34216E+04 -1.41413E+02
  3.52104E+04  5.30127E+04 -1.67505E+04  7.51698E+04 -6.11170E+04  6.39333E+04 -8.38533E+04  3.15821E+04
 -8.03840E+04 -1.09236E+04 -5.71708E+04 -5.16490E+04 -1.43683E+04 -6.94729E+04  2.73663E+04 -4.58958E+04
  3.99210E+04  4.00116E+03  1.61981E+04  4.74502E+04 -3.44662E+04  4.68368E+04 -6.65771E+04 -9.49254E+02
 -5.32789E+04 -5.64643E+04 -6.27605E+03 -7.67789E+04  3.42864E+04 -5.44134E+04  4.73105E+04 -1.73910E+04
  4.32363E+04  1.12526E+04  3.16095E+04  2.56984E+04  1.59225E+04  2.90515E+04 -4.85190E+03  2.71395E+04
 -2.16909E+04  1.21179E+04 -1.85131E+04 -4.58585E+03  5.43714E+03 -7.75056E+03  2.22537E+04  1.19375E+04
  7.24078E+03  3.47415E+04 -3.17195E+04  3.52885E+04 -6.31299E+04  2.13347E+03 -5.68774E+04 -4.27758E+04
 -1.21563E+04 -6.28310E+04  3.98571E+04 -4.57606E+04  5.80923E+04 -1.59596E+03  3.37016E+04  3.13915E+04
 -6.33012E+03  3.52894E+04 -2.98449E+04  1.52605E+04 -2.99519E+04 -4.58379E+03 -1.69633E+04 -1.03060E+04
 -8.64591E+03 -1.31194E+04 -1.03870E+03 -1.73352E+04  7.98855E+03 -2.26442E+04  1.59272E+04 -1.32969E+04
  1.12626E+04  4.92767E+03 -8.14845E+03  1.32124E+04 -2.18744E+04 -4.14470E+03 -8.01707E+03 -3.32605E+04
  2.25707E+04 -4.32593E+04  4.78726E+04 -1.91868E+04  4.52859E+04  1.90609E+04  1.58811E+04  4.36094E+04
 -1.62983E+04  3.29502E+04 -2.44994E+04  1.28066E+03 -9.67818E+03 -2.80663E+04  2.06909E+04 -3.36201E+04
  4.13245E+04 -8.71692E+03  3.49324E+04  2.41868E+04  1.77549E+04  4.60966E+04 -7.59377E+03  5.00425E+04
 -3.14392E+04  3.39194E+04 -4.09664E+04  9.34077E+03 -4.24967E+04 -1.64175E+04 -2.35408E+04 -3.77669E+04
  7.23860E+03 -3.73188E+04  3.10318E+04 -1.48665E+04  2.89844E+04  1.12146E+04  3.90825E+03  1.84150E+04
 -1.38602E+04  7.67457E+03 -1.05032E+04 -6.82040E+03  6.15205E+03 -1.08432E+04  1.81654E+04  6.07404E+03
  1.31676E+04  2.20694E+04 -5.83483E+03  2.47234E+04 -2.19520E+04  1.16137E+04 -2.79074E+04 -5.06265E+03
 -2.04029E+04 -1.73202E+04 -7.73377E+03 -1.98806E+04  3.74463E+03 -1.90915E+04  1.50938E+04 -1.84327E+04
  2.51087E+04 -1.28863E+04  3.18053E+04  2.33843E+03  2.35371E+04  1.95329E+04  3.93481E+03  3.59421E+04
 -1.75740E+04  2.97960E+04 -2.81721E+04  1.01508E+04 -2.10555E+04 -1.06828E+04 -4.70738E+03 -1.29705E+04
  2.58703E+03 -3.01513E+03 -4.68521E+03  6.73568E+03 -1.62941E+04  5.03456E+03 -1.58106E+04 -6.31340E+03
 -1.00139E+04 -1.86564E+04  5.78526E+03 -2.27970E+04  1.52726E+04 -1.52480E+04  1.69829E+04 -1.68896E+03
  1.11201E+04  1.28384E+04 -6.28828E+01  1.84809E+04 -1.30643E+04  1.07600E+04 -1.87822E+04 -3.68159E+03
 -1.37698E+04 -1.66835E+04 -1.48406E+03 -2.24033E+04  9.88671E+03 -1.85526E+04  1.87598E+04 -9.00401E+03
  1.74301E+04  3.83822E+02  1.30342E+04  4.39565E+03  6.18906E+03  1.12695E+03  9.70718E+03 -1.85210E+03
  1.71689E+04  3.06905E+03  1.84590E+04  1.47609E+04  1.21749E+04  2.96439E+04 -3.14433E+03  3.31674E+04
 -1.93742E+04  2.63840E+04 -3.02542E+04  1.27802E+04 -3.30330E+04 -2.38693E+03 -2.71311E+04 -1.83116E+04
 -1.15343E+04 -2.73379E+04  9.37330E+03 -2.43076E+04  2.09384E+04 -1.19726E+04  1.91536E+04  5.12354E+03
  6.41859E+03  1.40745E+04 -8.64107E+03  1.25569E+04 -1.62633E+04  3.02193E+03 -1.17002E+04 -1.01427E+04
 -2.52886E+02 -1.50117E+04  8.07882E+03 -1.17461E+04  9.71201E+03 -1.44606E+03  2.18957E+03  6.75975E+03
 -6.57318E+03  2.01446E+03 -5.85172E+03 -5.95623E+03  3.31645E+01 -1.34575E+04  9.43972E+03 -1.36916E+04
  1.65585E+04 -6.88238E+03  1.68454E+04  3.11466E+03  1.49517E+04  1.33501E+04  7.40289E+03  1.95598E+04
 -3.09389E+03  2.13046E+04 -1.39750E+04  1.28898E+04 -1.54213E+04  3.10345E+03 -1.05463E+04 -3.34523E+03
 -5.59831E+03 -4.69658E+03 -6.45515E+01  8.88802E+02 -2.51903E+03  2.88226E+03 -4.85424E+03  4.20193E+03
 -1.02516E+04 -5.73315E+02 -1.14934E+04 -8.70118E+03 -4.95910E+03 -1.40346E+04  5.18175E+03 -1.17730E+04
  9.28753E+03 -5.00388E+03  7.34025E+03  2.99363E+03  3.58496E+02  4.11781E+03 -5.02610E+03 -1.68440E+02
 -4.68832E+03 -6.83461E+03 -9.79404E+01 -1.02857E+04  6.03202E+03 -1.06326E+04  1.37684E+04 -5.88328E+03
  1.67858E+04  1.34551E+03  1.16057E+04  9.35610E+03  2.87705E+03  1.24953E+04 -7.08829E+03  1.07508E+04
 -8.61783E+03  3.41638E+03 -4.36154E+03 -1.44746E+03  2.60312E+03 -2.73573E+03  5.92485E+03 -9.99424E+02
  5.52224E+03  5.11572E+03  5.65448E+02  8.45936E+03 -5.69580E+03  8.16232E+03 -1.04329E+04  2.51488E+03
 -7.56758E+03 -5.25910E+03  7.60441E+01 -9.05398E+03  6.01488E+03 -4.37345E+03  5.90838E+03  1.56233E+03
  7.66892E+02  6.50755E+03 -5.43652E+03  6.63621E+03 -8.14883E+03  2.97400E+03 -7.60668E+03 -2.08639E+03
 -4.19151E+03 -9.43642E+03  2.04404E+03 -1.05479E+04  9.28889E+03 -6.72460E+03  1.04838E+04  1.79526E+03
  6.09851E+03  7.99481E+03 -1.20205E+02  9.90784E+03 -7.05064E+03  5.53398E+03 -7.36007E+03 -9.72491E+02
 -7.70035E+03 -7.00462E+03 -1.38796E+03 -7.29564E+03  3.57121E+03 -6.39900E+03  4.70284E+03 -2.83195E+03
  3.62357E+03  1.33609E+03  8.38644E+01  1.25991E+03  2.44052E+02 -8.57038E+02  6.59542E+02 -3.65076E+03
  6.26013E+03 -1.74933E+03  8.89890E+03  1.61756E+03  8.45161E+03  6.19061E+03  7.06267E+03  1.15436E+04
 -1.75161E+03  1.37330E+04 -1.22072E+04  9.70959E+03 -1.51903E+04  2.22054E+03 -1.21702E+04 -4.76485E+03
 -6.47036E+03 -1.00885E+04 -3.30126E+02 -8.33426E+03  3.18853E+03 -4.29118E+03  2.72766E+03 -3.57157E+03
  2.34921E+03 -2.38861E+03  2.57416E+03 -3.38581E+03  4.11501E+03 -1.80480E+03  4.71210E+03 -2.14773E+02
  5.72241E+03  1.37827E+03  2.84329E+03  5.77169E+03 -1.91306E+03  5.82341E+03 -6.66452E+03  4.82080E+03
 -8.06622E+03 -7.27624E+02 -4.21331E+03 -6.04334E+03 -7.51309E+02 -8.47241E+03  4.31677E+03 -9.13096E+03
  9.29371E+03 -5.13878E+03  1.07328E+04  1.46216E+03  7.69982E+03  7.40318E+03  1.53316E+03  9.94652E+03
 -4.34820E+03  8.72350E+03 -6.08052E+03  3.40292E+03 -3.85232E+03 -1.85370E+03 -1.47550E+03 -5.31829E+02
 -7.38252E+02  6.29782E+02 -1.53665E+03  2.02120E+03 -4.22507E+03  2.06286E+03 -5.79677E+03 -6.48425E+02
 -3.71297E+03 -5.77149E+03  8.89472E+02 -7.23639E+03  4.77409E+03 -8.01916E+03  7.41256E+03 -1.94494E+03
  7.17121E+03  3.53518E+03  3.82860E+03  6.50104E+03 -1.42027E+03  8.41719E+03 -5.20482E+03  5.12744E+03
 -7.38072E+03  4.88618E+01 -5.53830E+03 -4.18739E+03 -3.43947E+02 -6.39325E+03  3.51014E+03 -4.79097E+03
  5.17786E+03 -2.12976E+03  3.21209E+03  1.78878E+03  1.29227E+03  2.64818E+03  8.59044E+02  1.08164E+03
  1.64738E+03  7.07188E+02  2.28843E+03  1.29871E+03  2.14652E+03  2.89624E+03  1.82918E+03  3.40477E+03
 -1.80652E+03  5.57379E+03 -4.84511E+03  6.76867E+03 -6.77194E+03  1.66102E+03 -7.16770E+03 -2.29546E+03
 -3.38386E+03 -7.41282E+03  9.94157E+02 -8.85401E+03  3.85243E+03 -4.89762E+03  5.81019E+03 -1.36474E+03
  5.04130E+03  2.97411E+03  1.14396E+03  4.00758E+03 -2.14372E+03  2.52698E+03 -2.69035E+03  4.60582E+01
 -1.84217E+03 -2.63530E+03  1.96728E+03 -3.17518E+03  2.70743E+03 -1.94845E+03  2.58020E+03  3.57304E+02
  1.74721E+03  1.34664E+03  1.29021E+03  1.41702E+02 -9.56412E+02  1.29492E+03  1.78733E+03  7.40096E+01
  7.35286E+02 -4.63776E+02  2.59354E+03  1.44052E+03  1.86953E+03  4.24739E+03 -1.00850E+03  5.24896E+03
 -3.27825E+03  2.29236E+03 -4.21491E+03  7.49867E+02 -3.87394E+03 -1.40377E+03 -1.53531E+03 -2.46706E+03
  4.95370E+02 -3.08352E+03  1.98972E+03 -1.72773E+03  1.29854E+03  2.02851E+03 -1.10474E+03  1.93664E+03
 -2.72704E+03  1.05455E+03 -2.32909E+03 -2.16663E+03 -1.77909E+03 -4.64557E+03  5.47073E+02 -3.51905E+03
  1.79920E+03 -2.05024E+03  2.63235E+03 -5.72333E+02  2.51646E+03  3.45172E+02  1.07858E+02  2.11213E+03
 -1.10435E+03  3.57535E+02 -1.80315E+03 -9.42062E+02  7.18630E+02 -3.02485E+03  3.08796E+03 -1.53259E+03
  3.49296E+03  2.99352E+01  5.14660E+03  1.40022E+03  1.90011E+03  4.22386E+03 -6.79794E+02  4.05852E+03
 -4.03198E+03  1.43024E+03 -3.47211E+03 -3.07398E+02 -1.90302E+03 -2.77875E+03  7.68619E+02 -2.19360E+03
  2.43482E+03 -1.19920E+03  2.67791E+03  1.07757E+03  7.12419E+02  2.93519E+03 -5.93757E+02  2.17467E+03
 -1.14215E+03  1.49000E+03 -9.65920E+02  9.84423E+02 -5.97844E+02  5.99849E+02 -3.93954E+02  9.11934E+02
 -1.16502E+03  1.17243E+03 -2.98705E+03  1.71819E+03 -3.95809E+03  1.30539E+02 -5.37907E+03 -2.64977E+03
 -2.78070E+03 -5.63372E+03  1.55807E+03 -6.43393E+03  3.36845E+03 -5.35729E+03  6.19913E+03 -2.20641E+03
  5.52144E+03  6.52104E+02  3.24350E+03  3.52349E+03  2.60296E+02  3.84174E+03 -2.28021E+03  2.90616E+03
 -2.06358E+03  1.04732E+03 -1.30923E+03 -2.21329E+02 -1.27843E+03 -1.06227E+03 -5.87882E+02  2.66065E+01
 -1.57198E+03 -3.77977E+02 -1.36794E+03 -1.70296E+01  9.17418E+01 -7.21527E+02 -4.66332E+02 -2.34544E+03
  2.12429E+03 -9.89389E+02  2.44805E+03 -1.76014E+02  2.88114E+03  2.17342E+03  7.73025E+02  4.77151E+03
 -2.28089E+03  4.35295E+03 -3.86871E+03  2.19429E+03 -4.60919E+03 -9.28073E+02 -3.64728E+03 -3.02011E+03
 -1.72060E+03 -3.87818E+03  4.56412E+02 -3.66619E+03  2.55974E+03 -2.01239E+03  2.30928E+03  5.20924E+02
  1.21535E+03  1.70916E+03 -4.31393E+02  1.68747E+03 -6.73274E+02 -2.21665E+02  7.98051E+01 -6.81196E+02
  1.50590E+03 -3.84193E+02  1.51196E+03  3.75061E+02  8.93657E+02  1.35959E+03  1.18019E+02  1.96096E+03
 -1.85017E+03  2.30315E+03 -2.57120E+03 -9.85794E+01 -2.10743E+03 -1.57241E+03 -2.38132E+02 -3.01180E+03
  1.46722E+03 -2.25506E+03  2.56144E+03 -2.80925E+02  2.41266E+03  7.56401E+01  1.48860E+03  1.51676E+03
  4.51529E+02  2.15710E+03 -1.08624E+03  2.19104E+03 -1.30743E+03  1.58679E+03 -6.78909E+02  9.63426E+01
 -3.90754E+02 -1.28755E+02 -1.00474E+03  6.72714E+02 -1.43317E+03  3.35877E+02 -2.14365E+03 -8.74012E+02
 -1.76975E+03 -1.01803E+03 -1.59201E+02 -2.41391E+03  1.02435E+03 -3.13193E+03  2.36666E+03 -8.87334E+02
  2.13548E+03  1.36432E+02  2.82597E+02  1.12545E+03 -4.60759E+02  2.18252E+03 -1.96975E+03  1.98102E+03
