 $NMID ID='MM_0lb_SNR400_14hz_g60_96.RAW', FMTDAT='(8E13.5)'
 TRAMP=1., VOLUME=1. $END
  3.10166E+05  1.14136E+03  3.37713E+05  2.50356E+05  8.40235E+04  3.37975E+05 -1.32973E+05  2.51279E+05
 -1.89909E+05  8.31575E+04 -1.12350E+05 -3.20597E+04  7.32698E+02 -5.08681E+04  5.40673E+04 -5.29757E+02
  3.50103E+04  5.30510E+04 -1.67796E+04  7.54744E+04 -6.05712E+04  6.40865E+04 -8.44225E+04  3.22767E+04
 -8.17474E+04 -1.19085E+04 -5.78811E+04 -5.13282E+04 -1.43894E+04 -6.97670E+04  2.79912E+04 -4.66720E+04
  4.01117E+04  3.53804E+03  1.64898E+04  4.83157E+04 -3.43426E+04  4.74764E+04 -6.76319E+04  4.57740E+01
 -5.40102E+04 -5.68590E+04 -7.08121E+03 -7.78897E+04  3.41675E+04 -5.54317E+04  4.83014E+04 -1.80480E+04
  4.38382E+04  1.15963E+04  3.22182E+04  2.57476E+04  1.58571E+04  3.03282E+04 -5.98945E+03  2.79238E+04
 -2.18063E+04  1.21501E+04 -1.84225E+04 -5.00411E+03  6.70964E+03 -7.01986E+03  2.26692E+04  1.25194E+04
  7.36772E+03  3.58385E+04 -3.28359E+04  3.60299E+04 -6.45927E+04  2.88063E+03 -5.77029E+04 -4.34935E+04
 -1.18540E+04 -6.38811E+04  4.01217E+04 -4.61771E+04  5.98549E+04 -2.59647E+03  3.47817E+04  3.32305E+04
 -5.57971E+03  3.75229E+04 -3.08475E+04  1.73849E+04 -3.14830E+04 -3.75109E+03 -1.79706E+04 -1.10057E+04
 -8.03191E+03 -1.34755E+04 -6.76365E+02 -1.87910E+04  7.80910E+03 -2.30620E+04  1.60977E+04 -1.27270E+04
  1.18865E+04  5.08089E+03 -9.32079E+03  1.29856E+04 -2.23384E+04 -5.37554E+03 -8.62045E+03 -3.46584E+04
  2.40687E+04 -4.54885E+04  4.95327E+04 -2.01366E+04  4.65293E+04  1.97914E+04  1.70123E+04  4.56268E+04
 -1.59985E+04  3.45910E+04 -2.62603E+04  1.68934E+03 -1.03524E+04 -2.81838E+04  2.10255E+04 -3.50888E+04
  4.29501E+04 -9.77055E+03  3.72521E+04  2.35023E+04  1.86464E+04  4.84250E+04 -8.41958E+03  5.17315E+04
 -3.24685E+04  3.52158E+04 -4.44932E+04  1.00217E+04 -4.42829E+04 -1.72198E+04 -2.45419E+04 -3.91605E+04
  7.24551E+03 -3.98871E+04  3.25672E+04 -1.50690E+04  2.98847E+04  1.14954E+04  4.44679E+03  1.99939E+04
 -1.35385E+04  8.62626E+03 -1.09812E+04 -7.33809E+03  6.23645E+03 -1.16509E+04  1.79416E+04  6.16734E+03
  1.43753E+04  2.34004E+04 -5.92244E+03  2.54545E+04 -2.29832E+04  1.25959E+04 -2.89810E+04 -4.04785E+03
 -2.21005E+04 -1.72943E+04 -9.08614E+03 -2.10591E+04  4.38389E+03 -2.16426E+04  1.71392E+04 -1.95421E+04
  2.79698E+04 -1.27961E+04  3.44735E+04  4.31437E+03  2.42756E+04  2.11379E+04  3.54794E+03  3.82058E+04
 -1.77673E+04  3.13209E+04 -2.86237E+04  1.10433E+04 -2.15675E+04 -9.87505E+03 -4.46874E+03 -1.32465E+04
  8.84754E+02 -2.81617E+03 -5.90678E+03  7.49651E+03 -1.75508E+04  5.90346E+03 -1.77519E+04 -7.50671E+03
 -1.05089E+04 -2.03873E+04  4.88227E+03 -2.44779E+04  1.66285E+04 -1.68379E+04  1.89808E+04 -2.54670E+03
  1.22503E+04  1.41527E+04 -1.24846E+03  2.04968E+04 -1.47491E+04  1.09847E+04 -2.04034E+04 -4.00526E+03
 -1.52762E+04 -1.82063E+04 -2.33695E+03 -2.42991E+04  1.09327E+04 -2.01776E+04  2.01429E+04 -1.07841E+04
  1.91594E+04  6.27110E+01  1.29954E+04  4.43945E+03  8.06319E+03  8.90386E+02  1.05051E+04 -2.43899E+03
  1.82432E+04  2.64068E+03  2.16268E+04  1.54866E+04  1.35555E+04  3.22145E+04 -3.62832E+03  3.69825E+04
 -2.15076E+04  3.01406E+04 -3.38359E+04  1.49551E+04 -3.61284E+04 -2.71013E+03 -3.04284E+04 -2.10298E+04
 -1.27249E+04 -2.98819E+04  1.03243E+04 -2.60689E+04  2.30262E+04 -1.32056E+04  2.04603E+04  6.14013E+03
  7.61741E+03  1.52698E+04 -9.59443E+03  1.29644E+04 -1.70465E+04  2.39787E+03 -1.29012E+04 -1.07240E+04
 -4.52268E+02 -1.63579E+04  7.94622E+03 -1.19176E+04  1.09045E+04 -1.18551E+03  2.28059E+03  6.92825E+03
 -7.78140E+03  2.70752E+03 -6.88328E+03 -6.22059E+03 -1.03494E+03 -1.45773E+04  9.91221E+03 -1.56194E+04
  1.84124E+04 -8.43929E+03  1.90098E+04  3.17356E+03  1.75176E+04  1.37484E+04  7.43266E+03  2.24047E+04
 -3.68847E+03  2.42894E+04 -1.51305E+04  1.53225E+04 -1.70649E+04  3.53723E+03 -1.15578E+04 -3.90125E+03
 -5.85009E+03 -5.46173E+03 -1.95504E+03  5.79586E+02 -2.92326E+03  3.51734E+03 -5.18527E+03  3.89433E+03
 -1.15215E+04 -7.46490E+02 -1.23088E+04 -9.58884E+03 -4.76561E+03 -1.55612E+04  5.41338E+03 -1.23892E+04
  9.96796E+03 -4.83811E+03  7.20465E+03  3.52928E+03 -7.07345E+01  4.27127E+03 -5.02192E+03 -1.08156E+02
 -5.56057E+03 -7.96057E+03 -6.56175E+02 -1.14918E+04  6.02509E+03 -1.13623E+04  1.49346E+04 -6.00689E+03
  1.79098E+04  2.12582E+03  1.30520E+04  1.01564E+04  2.86890E+03  1.35492E+04 -7.23037E+03  1.22085E+04
 -1.01226E+04  3.12044E+03 -5.19405E+03 -2.57425E+03  2.24019E+03 -3.01702E+03  6.59626E+03 -9.78397E+02
  5.80596E+03  4.51323E+03  7.24155E+02  9.67782E+03 -7.36628E+03  9.37816E+03 -1.22678E+04  2.65535E+03
 -7.66658E+03 -6.47652E+03  8.52467E+02 -9.98468E+03  6.58879E+03 -5.17622E+03  6.48423E+03  2.39242E+03
  2.20904E+02  6.88003E+03 -6.28912E+03  8.47092E+03 -8.74287E+03  3.53492E+03 -8.69751E+03 -3.13325E+03
 -5.78198E+03 -1.04639E+04  2.70067E+03 -1.26437E+04  1.10636E+04 -7.88684E+03  1.14385E+04  1.94290E+03
  7.37295E+03  9.46421E+03 -7.73487E+02  1.13855E+04 -8.21857E+03  6.39977E+03 -8.40300E+03 -1.03304E+03
 -7.94470E+03 -8.21267E+03 -1.42673E+03 -7.97309E+03  4.25756E+03 -7.47637E+03  5.69192E+03 -3.23701E+03
  3.90162E+03  7.71887E+02 -1.40693E+02  8.60902E+02  2.01214E+01 -1.86700E+03  1.38511E+03 -4.23954E+03
  7.65620E+03 -2.46682E+03  9.92128E+03  1.24013E+03  9.69439E+03  6.97654E+03  7.24134E+03  1.34079E+04
 -2.41477E+03  1.53464E+04 -1.36390E+04  1.19172E+04 -1.72037E+04  1.59801E+03 -1.34055E+04 -5.60773E+03
 -6.44043E+03 -1.16039E+04 -5.99982E+02 -9.58304E+03  3.32900E+03 -4.90319E+03  3.03379E+03 -3.70164E+03
  2.93484E+03 -3.10729E+03  2.50579E+03 -2.34901E+03  4.64901E+03 -2.37267E+03  5.42680E+03 -4.31960E+02
  7.19479E+03  1.38941E+03  3.17415E+03  6.66191E+03 -1.96745E+03  6.31837E+03 -7.61091E+03  5.50841E+03
 -8.94351E+03 -1.61624E+03 -5.14386E+03 -6.16189E+03 -9.05347E+02 -1.01965E+04  5.77307E+03 -9.42059E+03
  9.90727E+03 -5.21223E+03  1.17644E+04  9.35006E+02  8.06076E+03  8.01436E+03  1.95028E+03  1.06876E+04
 -4.36022E+03  9.07610E+03 -6.61499E+03  3.45652E+03 -4.45153E+03 -8.28684E+02 -1.48483E+03 -6.42223E+02
 -9.95633E+02 -1.50118E+02 -1.30502E+03  3.10213E+03 -4.19745E+03  2.04887E+03 -6.52144E+03 -3.81185E+02
 -4.25382E+03 -6.79201E+03  1.01484E+03 -8.95457E+03  5.47976E+03 -8.37785E+03  8.70502E+03 -1.69937E+03
  8.12998E+03  4.56059E+03  4.31609E+03  7.82888E+03 -1.32195E+03  8.43754E+03 -6.11387E+03  5.94126E+03
 -7.96913E+03  1.08677E+03 -5.79447E+03 -5.26736E+03 -6.73219E+02 -6.68815E+03  3.58530E+03 -4.97430E+03
  5.95764E+03 -1.83393E+03  3.92172E+03  1.15220E+03  1.18322E+03  2.58586E+03  5.13155E+02  1.40014E+03
  1.62562E+03  3.11017E+02  2.44101E+03  1.14322E+03  2.64438E+03  3.29987E+03  1.89196E+03  4.25043E+03
 -2.03771E+03  6.56599E+03 -5.13254E+03  7.31601E+03 -7.63676E+03  1.90541E+03 -8.80149E+03 -2.83183E+03
 -4.19312E+03 -8.28216E+03  9.24868E+02 -9.38140E+03  4.79437E+03 -6.19539E+03  6.76798E+03 -1.48379E+03
  4.75830E+03  2.67816E+03  1.37914E+03  4.07372E+03 -2.26781E+03  3.10632E+03 -2.57021E+03 -1.08162E+03
 -1.75132E+03 -2.61463E+03  2.56922E+03 -4.07671E+03  3.28665E+03 -2.35880E+03  2.92829E+03  9.05251E+02
  2.15373E+03  1.45500E+03  1.14389E+03  8.26112E+02 -4.09549E+01  1.01819E+03  1.07538E+03 -5.87170E+02
  9.38021E+02 -8.73426E+02  4.00524E+03  9.83824E+02  1.75705E+03  4.77106E+03 -1.23085E+03  5.30438E+03
 -3.79035E+03  3.57843E+03 -4.25913E+03  4.70203E+02 -4.07071E+03 -1.19740E+03 -1.01392E+03 -2.36552E+03
  7.99427E+02 -3.14869E+03  2.16534E+03 -1.25047E+03  1.43556E+03  1.77951E+03 -6.99104E+02  3.16869E+03
 -3.43721E+03  1.96468E+03 -3.04024E+03 -2.34408E+03 -2.19254E+03 -4.77953E+03  6.81964E+02 -3.72034E+03
  2.21848E+03 -2.64730E+03  3.44370E+03 -5.42699E+02  2.95499E+03  4.94059E+02  5.40972E+02  2.38566E+03
 -9.40452E+02  9.56450E+02 -1.53081E+03 -9.94177E+02  1.29123E+03 -3.13553E+03  3.46438E+03 -2.80351E+03
  3.73880E+03  2.89068E+02  5.37379E+03  2.73969E+03  1.90554E+03  4.94209E+03 -1.56220E+03  4.11284E+03
 -3.84123E+03  1.09385E+03 -3.55890E+03 -5.95187E+02 -1.63243E+03 -3.15042E+03  4.83853E+02 -2.33197E+03
  2.65995E+03 -1.27900E+03  2.45458E+03  1.35696E+03  6.01152E+02  2.78238E+03  1.52757E+02  2.06848E+03
 -1.19331E+03  2.31285E+03 -1.23174E+03  2.78068E+02 -5.83674E+01 -2.51637E+02 -5.56105E+02  1.13563E+03
 -1.05544E+03  1.60521E+03 -3.17909E+03  1.65503E+03 -3.87475E+03  5.72084E+02 -5.14555E+03 -2.92090E+03
 -2.80762E+03 -5.49949E+03  1.00566E+03 -6.83633E+03  3.66082E+03 -5.27522E+03  5.78212E+03 -2.50388E+03
  6.09574E+03  1.07451E+03  3.34817E+03  3.65531E+03 -1.92764E+02  4.01466E+03 -9.67921E+02  3.57106E+03
 -2.60412E+03  1.49729E+03 -1.17930E+03 -6.07600E+02 -6.15940E+02 -1.58496E+02 -5.50327E+02 -3.12009E+02
 -1.31617E+03  1.19394E+02 -1.43791E+03  4.13028E+02 -6.92563E+02 -1.49125E+03 -1.32461E+01 -1.95117E+03
  2.42955E+03 -1.18167E+03  2.08490E+03  4.51054E+02  2.60778E+03  2.36833E+03  2.02936E+02  4.30729E+03
 -1.66164E+03  4.82019E+03 -4.49754E+03  3.08891E+03 -5.27873E+03 -7.84665E+02 -3.08440E+03 -3.67715E+03
 -1.72305E+03 -3.67583E+03  6.47085E+02 -3.64696E+03  2.02476E+03 -1.55942E+03  2.46160E+03 -4.30390E+02
  8.98357E+02  1.42014E+03 -1.14148E+02  1.21169E+03 -1.32562E+03 -5.73180E+01 -4.87489E+01 -9.78286E+02
  1.99208E+03 -7.19282E+02  1.16859E+03  1.36936E+03  1.18476E+03  7.47951E+02  3.85722E+02  1.89239E+03
 -1.84362E+03  2.06126E+03 -2.36051E+03  8.95203E+01 -2.02017E+03 -1.33957E+03 -1.76165E+02 -3.50736E+03
  1.56414E+03 -2.55510E+03  2.48927E+03 -4.64794E+02  3.18267E+03 -1.63494E+02  2.21955E+03  1.98332E+03
  5.20323E+02  2.35667E+03 -6.92680E+02  1.49840E+03 -1.02740E+03  5.52282E+02 -1.19360E+03 -8.20232E+01
 -3.82254E+02 -6.99362E+02 -7.08483E+02  1.44062E+02 -1.54506E+03  1.43820E+02 -1.34123E+03 -6.55623E+02
 -1.86878E+03 -5.33698E+02 -7.26179E+01 -2.56451E+03  1.21291E+03 -2.26752E+03  2.77265E+03 -1.33179E+03
  1.84443E+03  5.05379E+02  5.75183E+02  1.55335E+03 -4.53875E+02  2.53790E+03 -1.22010E+03  1.53160E+03
