 $NMID ID='MM_0lb_SNR400_14hz_g50_74.RAW', FMTDAT='(8E13.5)'
 TRAMP=1., VOLUME=1. $END
  3.10327E+05  6.46956E+02  3.37591E+05  2.50584E+05  8.54722E+04  3.37741E+05 -1.32606E+05  2.51121E+05
 -1.90048E+05  8.32830E+04 -1.11964E+05 -3.38591E+04  6.95772E+02 -4.99564E+04  5.41268E+04 -3.59997E+02
  3.50651E+04  5.28784E+04 -1.63897E+04  7.57468E+04 -6.06447E+04  6.36138E+04 -8.39104E+04  3.17000E+04
 -8.17438E+04 -1.12135E+04 -5.78119E+04 -5.14680E+04 -1.48731E+04 -6.97984E+04  2.76674E+04 -4.59468E+04
  4.01791E+04  3.58349E+03  1.56244E+04  4.87388E+04 -3.36615E+04  4.68819E+04 -6.64098E+04 -6.33304E+02
 -5.32655E+04 -5.73781E+04 -7.06663E+03 -7.73059E+04  3.35930E+04 -5.49546E+04  4.74810E+04 -1.75787E+04
  4.34386E+04  1.19390E+04  3.17500E+04  2.51653E+04  1.62119E+04  2.93044E+04 -5.59732E+03  2.75116E+04
 -2.22259E+04  1.27572E+04 -1.86452E+04 -4.90920E+03  5.54492E+03 -7.65802E+03  2.24275E+04  1.24944E+04
  7.55608E+03  3.50268E+04 -3.25678E+04  3.52740E+04 -6.40316E+04  1.85245E+03 -5.75328E+04 -4.24169E+04
 -1.25252E+04 -6.37741E+04  3.95067E+04 -4.53520E+04  5.83026E+04 -2.15645E+03  3.39919E+04  3.25424E+04
 -5.86371E+03  3.61895E+04 -2.99432E+04  1.59525E+04 -3.03258E+04 -4.58974E+03 -1.60438E+04 -1.15667E+04
 -8.95779E+03 -1.25453E+04 -7.61740E+02 -1.80865E+04  7.52753E+03 -2.30924E+04  1.47346E+04 -1.33197E+04
  1.19820E+04  5.54140E+03 -8.60851E+03  1.27758E+04 -2.08798E+04 -4.68498E+03 -8.63973E+03 -3.33995E+04
  2.25355E+04 -4.40513E+04  4.86264E+04 -1.95108E+04  4.57775E+04  1.95802E+04  1.59645E+04  4.43375E+04
 -1.66656E+04  3.33619E+04 -2.54115E+04  1.81038E+03 -1.00992E+04 -2.78966E+04  2.04345E+04 -3.40061E+04
  4.19073E+04 -9.16821E+03  3.58992E+04  2.41715E+04  1.83434E+04  4.71231E+04 -8.28265E+03  5.00790E+04
 -3.13920E+04  3.42566E+04 -4.19823E+04  9.20876E+03 -4.20274E+04 -1.65873E+04 -2.34773E+04 -3.85783E+04
  6.77511E+03 -3.77274E+04  3.13477E+04 -1.45458E+04  2.98511E+04  1.10454E+04  3.63008E+03  1.87339E+04
 -1.33752E+04  7.88837E+03 -1.05765E+04 -7.22957E+03  5.55537E+03 -1.08475E+04  1.78714E+04  6.35704E+03
  1.28351E+04  2.21271E+04 -6.32713E+03  2.49037E+04 -2.23808E+04  1.20448E+04 -2.81605E+04 -4.35396E+03
 -2.08296E+04 -1.78160E+04 -8.60728E+03 -2.03465E+04  3.95545E+03 -1.92716E+04  1.59720E+04 -1.84808E+04
  2.60709E+04 -1.20472E+04  3.26316E+04  2.88946E+03  2.39235E+04  1.96846E+04  4.46421E+03  3.65196E+04
 -1.76239E+04  3.07387E+04 -2.85092E+04  1.05164E+04 -2.04965E+04 -1.06755E+04 -3.76265E+03 -1.27987E+04
  1.85336E+03 -2.80042E+03 -4.78471E+03  6.44432E+03 -1.63855E+04  5.26429E+03 -1.65747E+04 -6.92490E+03
 -1.02362E+04 -1.89475E+04  5.25890E+03 -2.29239E+04  1.53273E+04 -1.68050E+04  1.85414E+04 -1.65807E+03
  1.16526E+04  1.38388E+04 -5.93564E+02  1.92896E+04 -1.31344E+04  1.06443E+04 -1.88433E+04 -3.95825E+03
 -1.45114E+04 -1.72791E+04 -1.67239E+03 -2.29809E+04  1.04239E+04 -1.93393E+04  1.93168E+04 -9.41695E+03
  1.74695E+04  6.96168E+01  1.32466E+04  4.61235E+03  6.99521E+03  9.20396E+02  1.00369E+04 -1.56181E+03
  1.74212E+04  2.87415E+03  1.93551E+04  1.54342E+04  1.19520E+04  3.01718E+04 -3.24622E+03  3.46852E+04
 -2.02016E+04  2.78289E+04 -3.28321E+04  1.39622E+04 -3.37879E+04 -2.76431E+03 -2.83364E+04 -1.96971E+04
 -1.24338E+04 -2.79037E+04  9.78752E+03 -2.49304E+04  2.14482E+04 -1.28918E+04  1.95675E+04  5.73893E+03
  8.03353E+03  1.43315E+04 -8.95013E+03  1.25478E+04 -1.57949E+04  2.15390E+03 -1.22383E+04 -1.02717E+04
  2.56280E+02 -1.54208E+04  7.73891E+03 -1.19603E+04  9.99072E+03 -1.62583E+03  2.10387E+03  6.20485E+03
 -7.12127E+03  2.90293E+03 -6.46662E+03 -6.06699E+03 -1.28978E+03 -1.36218E+04  9.03033E+03 -1.46500E+04
  1.62081E+04 -7.81614E+03  1.85280E+04  3.47675E+03  1.55441E+04  1.34985E+04  7.15406E+03  2.03589E+04
 -3.49140E+03  2.24581E+04 -1.49263E+04  1.41618E+04 -1.54446E+04  3.61613E+03 -1.12169E+04 -3.53441E+03
 -5.55629E+03 -4.95677E+03 -6.24867E+02  6.75398E+02 -2.36308E+03  2.53753E+03 -5.27634E+03  4.21684E+03
 -1.02659E+04 -9.73801E+02 -1.13630E+04 -9.25660E+03 -4.81976E+03 -1.45814E+04  4.20707E+03 -1.13342E+04
  1.02748E+04 -4.78963E+03  7.02328E+03  2.90668E+03  6.00492E+02  4.63214E+03 -4.87196E+03 -4.02813E+02
 -4.70518E+03 -8.05203E+03 -8.30197E+02 -1.10120E+04  6.19526E+03 -1.13660E+04  1.38095E+04 -5.74423E+03
  1.63550E+04  1.36456E+03  1.23908E+04  9.41635E+03  2.73006E+03  1.23819E+04 -7.10249E+03  1.15705E+04
 -9.41758E+03  3.41771E+03 -5.08687E+03 -1.80878E+03  1.59587E+03 -2.92339E+03  5.61389E+03 -1.58399E+03
  5.37168E+03  4.65978E+03  1.25543E+03  8.67105E+03 -6.18910E+03  7.94755E+03 -1.09065E+04  2.23549E+03
 -6.85448E+03 -5.18345E+03  3.17126E+02 -9.23984E+03  4.99168E+03 -4.66252E+03  6.00241E+03  1.52158E+03
  1.72256E+03  6.02629E+03 -5.44777E+03  7.54508E+03 -8.02420E+03  3.55634E+03 -8.04302E+03 -1.86469E+03
 -5.30266E+03 -9.73543E+03  2.40197E+03 -1.09045E+04  9.76383E+03 -7.04313E+03  1.08287E+04  1.88645E+03
  7.22715E+03  8.27757E+03 -6.89625E+02  1.07651E+04 -7.99437E+03  6.40864E+03 -7.55791E+03 -1.06967E+03
 -7.05498E+03 -6.84317E+03 -1.31637E+03 -8.21669E+03  3.63127E+03 -7.10719E+03  4.68412E+03 -3.63541E+03
  3.54491E+03  9.74545E+02 -2.48372E+02  9.80918E+02  5.62913E+02 -1.65717E+03  1.68494E+03 -4.14772E+03
  6.72235E+03 -2.82011E+03  9.45128E+03  8.50089E+02  9.81921E+03  5.75364E+03  6.94542E+03  1.24289E+04
 -2.71808E+03  1.49055E+04 -1.22272E+04  1.08627E+04 -1.60172E+04  1.55116E+03 -1.31296E+04 -5.03955E+03
 -6.76368E+03 -1.03090E+04  1.71445E+02 -8.26551E+03  3.02985E+03 -4.47802E+03  3.19196E+03 -3.07927E+03
  1.26829E+03 -1.63840E+03  2.87987E+03 -3.71605E+03  4.78703E+03 -2.28037E+03  5.72755E+03 -2.61095E+02
  6.64338E+03  1.91997E+03  3.23991E+03  5.52556E+03 -1.61880E+03  6.55829E+03 -7.17388E+03  4.75346E+03
 -8.40978E+03 -8.73395E+02 -4.42924E+03 -5.62292E+03  5.64417E+01 -8.60039E+03  5.09674E+03 -9.78406E+03
  9.28340E+03 -6.20951E+03  1.14256E+04  6.49618E+02  7.96928E+03  8.28912E+03  1.10027E+03  1.06364E+04
 -4.21940E+03  8.71119E+03 -5.74341E+03  2.92296E+03 -2.98439E+03 -1.52267E+03 -1.29918E+03 -1.27610E+03
 -8.68158E+02  2.89886E+02 -1.95223E+03  2.98392E+03 -4.17892E+03  1.66919E+03 -6.42380E+03 -5.30521E+02
 -4.00474E+03 -6.47440E+03 -9.08641E+01 -7.88221E+03  5.38475E+03 -7.38049E+03  7.68777E+03 -2.11811E+03
  7.54413E+03  3.35808E+03  3.80990E+03  7.38258E+03 -1.84634E+03  7.86493E+03 -5.15965E+03  5.02947E+03
 -7.20396E+03  1.22080E+03 -6.51900E+03 -4.48645E+03 -5.86954E+02 -6.88570E+03  3.61960E+03 -4.77952E+03
  4.64175E+03 -2.49187E+03  3.36331E+03  1.74132E+03  1.10026E+03  2.19815E+03  6.37600E+02  1.30905E+03
  2.24730E+03  1.10872E+03  1.92040E+03  1.43696E+03  2.28888E+03  2.90961E+03  1.64851E+03  3.53103E+03
 -2.14927E+03  6.46339E+03 -5.32746E+03  6.63665E+03 -7.05307E+03  1.46450E+03 -7.48917E+03 -2.40902E+03
 -3.56062E+03 -7.58276E+03  9.38893E+02 -8.79326E+03  3.96765E+03 -4.75715E+03  5.78475E+03 -1.62921E+03
  5.23616E+03  2.71131E+03  7.18419E+02  4.42736E+03 -1.66233E+03  2.70049E+03 -3.27350E+03  2.59468E+02
 -1.04221E+03 -3.10812E+03  2.20690E+03 -3.62679E+03  3.39005E+03 -1.80564E+03  2.83999E+03  1.08398E+03
  1.12125E+03  1.16442E+03  7.78485E+02  8.34276E+02 -2.56425E+02  1.26750E+03  2.11909E+03  1.85127E+02
  8.21975E+02 -2.81749E+02  3.09866E+03  1.35782E+03  1.69302E+03  4.23727E+03 -6.94970E+02  5.24613E+03
 -3.66623E+03  2.87622E+03 -4.45298E+03  6.06988E+02 -5.02029E+03 -2.13289E+03 -1.33712E+03 -2.47323E+03
  2.66672E+02 -3.39020E+03  1.95916E+03 -1.23002E+03  1.37864E+03  1.50645E+03 -9.01686E+02  2.22547E+03
 -2.18015E+03  1.52951E+03 -3.49849E+03 -1.27885E+03 -2.21603E+03 -4.10855E+03 -2.25048E+02 -3.64496E+03
  1.91230E+03 -1.87011E+03  2.39006E+03  6.25851E+00  3.46645E+03  2.46895E+02 -3.60941E+01  2.15932E+03
 -1.55521E+03  2.35582E+01 -1.78775E+03 -8.33694E+02  6.64949E+02 -3.09378E+03  3.74589E+03 -1.61256E+03
  3.91988E+03 -1.74768E+00  4.52107E+03  2.42804E+03  1.65034E+03  4.15019E+03 -1.66002E+03  4.42573E+03
 -3.10201E+03  1.48173E+03 -3.60053E+03 -4.33291E+02 -1.96798E+03 -3.57651E+03  6.85946E+02 -2.76466E+03
  2.86222E+03 -1.68460E+03  2.42482E+03  1.32280E+03  5.53050E+02  2.70948E+03 -6.04267E+01  2.02586E+03
 -1.17021E+03  1.97584E+03 -6.77040E+02  2.14802E+02 -2.73755E+02  3.83382E+02 -7.11138E+02  1.16249E+03
 -1.01106E+03  1.74149E+03 -3.53507E+03  1.33520E+03 -4.48567E+03 -1.03096E+02 -4.89815E+03 -2.80487E+03
 -2.09168E+03 -5.03303E+03  9.78787E+02 -6.30228E+03  3.59141E+03 -4.80939E+03  6.42527E+03 -1.34500E+03
  5.88846E+03  6.86175E+02  3.20465E+03  3.64898E+03 -7.65450E+01  3.93271E+03 -1.20905E+03  3.26286E+03
 -2.94029E+03  1.98868E+03 -1.80851E+03 -2.95925E+02  3.61922E+01  5.27763E+02 -5.94441E+02  2.17505E+01
 -1.53830E+03  4.81408E+02 -7.51092E+02  1.91027E+02 -2.23345E+02 -1.11960E+03 -3.45441E+02 -1.74594E+03
  2.58482E+03 -1.01494E+03  1.94256E+03 -3.00823E+02  2.75708E+03  2.57810E+03  1.89380E+01  3.49270E+03
 -2.31443E+03  5.08305E+03 -4.20980E+03  3.29356E+03 -4.78367E+03 -6.89752E+02 -3.86740E+03 -2.93229E+03
 -2.28501E+03 -4.02381E+03  5.50327E+02 -3.14347E+03  2.06080E+03 -2.81008E+03  2.15332E+03  1.84131E+02
  2.02708E+03  1.36231E+03 -2.91840E+02  7.78304E+02 -4.05026E+02  6.71601E+01 -2.00558E+02 -1.18769E+03
  1.43267E+03 -3.04278E+02  1.15809E+03  5.26634E+02  8.76634E+01  1.42132E+03  4.22976E+02  1.14632E+03
 -1.21261E+03  2.15854E+03 -2.29140E+03 -1.25982E+02 -2.05246E+03 -1.62807E+03  7.85110E+01 -3.13936E+03
  1.22378E+03 -2.50140E+03  2.53478E+03 -3.56504E+02  2.75066E+03 -1.98945E+02  1.73994E+03  2.64082E+03
  1.01496E+02  1.99954E+03 -8.81064E+02  2.04489E+03 -2.38884E+03  1.53712E+03 -1.23890E+03  5.91232E+02
 -3.52845E+02  4.39889E+02 -6.19300E+02  1.53590E+02 -1.70974E+03  4.84586E+02 -2.00374E+03 -2.32038E+02
 -2.69000E+03 -6.22067E+02 -1.06679E+03 -2.82841E+03  1.34173E+03 -3.01036E+03  1.49166E+03 -8.45536E+02
  2.32236E+03  5.48329E+02  4.61842E+02  9.47124E+02 -2.60968E+02  1.93128E+03 -2.59964E+03  1.19260E+03
