 $NMID ID='MM_0lb_SNR400_7hz_g40_94.RAW', FMTDAT='(8E13.5)'
 TRAMP=1., VOLUME=1. $END
  3.09938E+05  9.93195E+02  3.37524E+05  2.50449E+05  8.50717E+04  3.38992E+05 -1.32141E+05  2.51815E+05
 -1.91326E+05  8.33871E+04 -1.12754E+05 -3.24530E+04 -7.08894E+01 -5.07189E+04  5.45045E+04 -1.37484E+03
  3.60036E+04  5.17715E+04 -1.66566E+04  7.57545E+04 -6.18369E+04  6.42219E+04 -8.54231E+04  3.29308E+04
 -8.16931E+04 -1.25811E+04 -5.85719E+04 -5.18443E+04 -1.49926E+04 -7.10421E+04  2.76226E+04 -4.74771E+04
  4.07864E+04  3.31779E+03  1.64829E+04  4.95678E+04 -3.56075E+04  4.76382E+04 -6.76605E+04  3.80823E+02
 -5.59335E+04 -5.83086E+04 -6.65541E+03 -7.95226E+04  3.40076E+04 -5.76851E+04  5.03719E+04 -1.84437E+04
  4.59058E+04  1.17717E+04  3.27104E+04  2.65385E+04  1.53295E+04  3.04757E+04 -5.41495E+03  2.79378E+04
 -2.41691E+04  1.15657E+04 -1.75192E+04 -5.29929E+03  7.32471E+03 -7.43712E+03  2.33237E+04  1.44870E+04
  8.01844E+03  3.77384E+04 -3.50744E+04  3.80015E+04 -6.65618E+04  1.67927E+03 -5.87978E+04 -4.49690E+04
 -1.40554E+04 -6.48873E+04  4.26523E+04 -4.77896E+04  6.15931E+04 -2.45393E+03  3.70272E+04  3.44991E+04
 -5.54954E+03  4.05829E+04 -3.20139E+04  1.91686E+04 -3.44872E+04 -3.38879E+03 -2.07779E+04 -1.20649E+04
 -8.79004E+03 -1.49621E+04 -8.90801E+02 -1.97852E+04  7.94218E+03 -2.35813E+04  1.54909E+04 -1.32399E+04
  9.66638E+03  6.62373E+03 -1.10427E+04  1.29578E+04 -2.40504E+04 -7.09625E+03 -8.76199E+03 -3.78245E+04
  2.56103E+04 -4.72591E+04  5.25990E+04 -2.11279E+04  4.95092E+04  2.18925E+04  1.71638E+04  4.73305E+04
 -1.75913E+04  3.64125E+04 -2.77120E+04  3.07753E+03 -1.23845E+04 -3.01986E+04  2.17237E+04 -3.85396E+04
  4.53907E+04 -1.15799E+04  4.11041E+04  2.50232E+04  2.21933E+04  5.21075E+04 -9.11147E+03  5.84967E+04
 -3.72651E+04  3.91070E+04 -4.85319E+04  1.19024E+04 -4.87786E+04 -1.84196E+04 -2.77808E+04 -4.32542E+04
  7.73720E+03 -4.32622E+04  3.46117E+04 -1.70597E+04  3.32578E+04  1.10345E+04  5.50690E+03  2.16356E+04
 -1.46688E+04  1.08469E+04 -1.11960E+04 -7.19587E+03  5.89148E+03 -1.17641E+04  1.93470E+04  5.54302E+03
  1.52056E+04  2.37767E+04 -5.05976E+03  2.71535E+04 -2.31674E+04  1.38388E+04 -3.26900E+04 -3.05866E+03
 -2.70231E+04 -1.84253E+04 -1.19580E+04 -2.57585E+04  5.69708E+03 -2.75681E+04  2.10209E+04 -2.43495E+04
  3.38053E+04 -1.48612E+04  4.07866E+04  5.65282E+03  2.75122E+04  2.57676E+04  4.38429E+03  4.27384E+04
 -2.13334E+04  3.46047E+04 -3.13171E+04  1.21634E+04 -2.31029E+04 -1.02311E+04 -5.32148E+03 -1.27176E+04
  1.04846E+03 -4.86134E+02 -8.38909E+03  9.13370E+03 -2.23388E+04  4.46127E+03 -1.97899E+04 -1.12091E+04
 -1.31578E+04 -2.41145E+04  6.48135E+03 -2.95690E+04  1.86809E+04 -2.08897E+04  2.34249E+04 -1.76804E+03
  1.48817E+04  1.70751E+04 -2.06770E+03  2.41828E+04 -1.74940E+04  1.33473E+04 -2.50537E+04 -4.73949E+03
 -1.73094E+04 -2.22438E+04 -2.29167E+03 -2.95955E+04  1.32438E+04 -2.48947E+04  2.36735E+04 -1.32392E+04
  2.35808E+04 -5.54451E+00  1.63430E+04  5.50213E+03  9.24162E+03  1.65087E+03  1.30385E+04 -2.39058E+03
  2.37214E+04  2.93411E+03  2.69941E+04  1.89803E+04  1.91537E+04  4.01487E+04 -2.34769E+03  4.78366E+04
 -2.79873E+04  3.91060E+04 -4.41054E+04  2.06917E+04 -4.85014E+04 -3.07368E+03 -3.85276E+04 -2.81540E+04
 -1.47910E+04 -4.07342E+04  1.44138E+04 -3.44737E+04  3.00009E+04 -1.62934E+04  2.56708E+04  9.07572E+03
  8.35552E+03  2.06400E+04 -1.26506E+04  1.56051E+04 -2.19755E+04  3.30744E+03 -1.65146E+04 -1.37192E+04
 -6.26219E+02 -2.10046E+04  1.09092E+04 -1.55944E+04  1.55866E+04 -1.56846E+03  3.43760E+03  9.11358E+03
 -9.14048E+03  4.13254E+03 -1.00276E+04 -7.88761E+03 -1.73279E+03 -1.97847E+04  1.23775E+04 -2.14377E+04
  2.44799E+04 -1.28026E+04  2.78443E+04  3.33825E+03  2.60979E+04  2.04607E+04  1.17475E+04  3.13945E+04
 -6.23972E+03  3.38724E+04 -2.10472E+04  2.11488E+04 -2.55016E+04  3.04863E+03 -1.69615E+04 -5.92336E+03
 -6.34223E+03 -7.72382E+03 -6.58277E+01  2.74549E+02 -2.73128E+03  4.74183E+03 -8.98240E+03  5.21781E+03
 -1.53821E+04 -1.79913E+03 -1.59900E+04 -1.27590E+04 -6.52697E+03 -2.07593E+04  7.00948E+03 -1.70354E+04
  1.37343E+04 -6.77076E+03  9.03520E+03  4.71731E+03 -7.17944E+02  7.29844E+03 -9.33689E+03  1.47387E+02
 -8.25888E+03 -1.13815E+04 -1.19910E+03 -1.79449E+04  1.00715E+04 -1.83610E+04  2.16791E+04 -9.45291E+03
  2.60528E+04  2.33991E+03  2.00916E+04  1.63130E+04  4.47320E+03  2.06352E+04 -1.06078E+04  1.66897E+04
 -1.30807E+04  4.58852E+03 -7.83445E+03 -4.09777E+03  2.36866E+03 -5.65556E+03  8.54584E+03 -1.03073E+03
  8.29639E+03  8.20688E+03  1.03965E+03  1.35306E+04 -9.46015E+03  1.48626E+04 -1.67958E+04  3.19132E+03
 -1.14969E+04 -8.82122E+03 -2.94532E+02 -1.48928E+04  9.84855E+03 -7.49744E+03  1.07898E+04  3.57972E+03
  1.49162E+03  1.21687E+04 -9.09931E+03  1.28831E+04 -1.51809E+04  5.74942E+03 -1.57182E+04 -6.23490E+03
 -9.70433E+03 -1.81305E+04  4.15698E+03 -2.04195E+04  1.70743E+04 -1.23082E+04  1.87433E+04  2.62380E+03
  1.15387E+04  1.47430E+04 -1.64078E+03  1.77401E+04 -1.36630E+04  1.03387E+04 -1.53258E+04 -1.69800E+03
 -1.19254E+04 -1.19767E+04 -1.78393E+03 -1.36590E+04  7.40699E+03 -1.08826E+04  8.99484E+03 -5.41003E+03
  4.96664E+03  2.20339E+03 -1.75835E+03  1.79419E+03 -1.06959E+03 -4.38229E+03  2.75805E+03 -8.63141E+03
  1.36358E+04 -5.48028E+03  1.84910E+04  2.30820E+03  1.75611E+04  1.30896E+04  1.11528E+04  2.39564E+04
 -6.51580E+03  2.80799E+04 -2.23730E+04  1.99968E+04 -2.90240E+04  3.93991E+03 -2.41511E+04 -1.05810E+04
 -1.23738E+04 -1.94427E+04 -4.37096E+02 -1.72526E+04  4.95685E+03 -1.02645E+04  6.39445E+03 -5.67737E+03
  4.79674E+03 -2.69729E+03  3.84810E+03 -4.19329E+03  6.87641E+03 -4.72719E+03  9.71008E+03 -2.17636E+03
  1.19853E+04  1.95037E+03  7.45805E+03  1.00128E+04 -1.81928E+03  1.28665E+04 -1.22385E+04  1.04293E+04
 -1.77419E+04 -1.89914E+03 -1.15206E+04 -1.20306E+04 -1.81801E+03 -1.78780E+04  1.02019E+04 -1.90622E+04
  1.95778E+04 -9.68169E+03  2.27025E+04  2.94683E+03  1.55770E+04  1.62055E+04  1.58389E+03  2.06952E+04
 -9.15739E+03  1.65569E+04 -1.21286E+04  5.98664E+03 -8.69160E+03 -1.60090E+03 -3.36368E+03 -2.28940E+03
 -1.83722E+03 -1.89157E+02 -2.89905E+03  2.62017E+03 -7.01247E+03  2.10169E+03 -1.17628E+04 -1.13796E+03
 -8.53420E+03 -1.13075E+04 -6.40706E+02 -1.77510E+04  1.08651E+04 -1.61289E+04  1.75393E+04 -5.29999E+03
  1.71653E+04  8.81545E+03  8.25975E+03  1.57322E+04 -3.91937E+03  1.75117E+04 -1.33941E+04  1.13567E+04
 -1.61129E+04  2.51635E+01 -1.28703E+04 -9.35681E+03 -1.44631E+03 -1.46343E+04  8.83075E+03 -1.10353E+04
  1.08848E+04 -3.54447E+03  7.12234E+03  3.97728E+03  2.90118E+03  4.98618E+03  1.21424E+03  1.77920E+03
  3.17258E+03  1.40130E+03  4.49158E+03  1.82215E+03  5.21239E+03  6.09586E+03  4.66551E+03  9.68166E+03
 -3.38309E+03  1.44509E+04 -1.20050E+04  1.39479E+04 -1.93010E+04  3.38371E+03 -1.95594E+04 -7.81130E+03
 -8.78970E+03 -1.77641E+04  2.43714E+03 -1.93540E+04  1.10683E+04 -1.31742E+04  1.45072E+04 -2.83939E+03
  1.20932E+04  7.42525E+03  2.94873E+03  1.04400E+04 -5.22686E+03  7.58993E+03 -7.77131E+03 -5.09700E+02
 -2.77916E+03 -7.82589E+03  4.19546E+03 -8.38668E+03  7.73982E+03 -4.32248E+03  7.72344E+03  1.00224E+03
  4.93095E+03  4.33805E+03  1.65612E+03  3.96596E+03 -1.45755E+03  2.19678E+03  1.42839E+03 -1.26330E+03
  2.91040E+03 -5.28487E+02  6.79579E+03  2.80214E+03  5.00650E+03  9.86079E+03 -2.16713E+03  1.27651E+04
 -8.72950E+03  8.47306E+03 -1.23217E+04  2.02774E+03 -1.05823E+04 -3.86973E+03 -4.35637E+03 -7.48263E+03
  1.06588E+03 -6.74337E+03  5.87726E+03 -3.03683E+03  4.43543E+03  4.06056E+03 -2.00452E+03  6.13769E+03
 -8.39436E+03  5.42124E+03 -1.00449E+04 -4.22899E+03 -4.83275E+03 -1.09178E+04  1.31910E+03 -9.84565E+03
  6.66151E+03 -6.19629E+03  7.58296E+03 -7.01781E+02  6.49077E+03  2.66459E+03  1.11167E+03  6.99673E+03
 -3.53931E+03  2.13466E+03 -4.05843E+03 -3.22317E+03  1.59656E+03 -8.87701E+03  1.02560E+04 -7.23824E+03
  1.25667E+04  3.61818E+02  1.08000E+04  8.01500E+03  3.76644E+03  1.29812E+04 -4.70259E+03  1.21608E+04
 -1.09213E+04  4.80532E+03 -1.02234E+04 -2.10136E+03 -7.24671E+03 -8.25115E+03  1.88396E+03 -8.74654E+03
  7.33210E+03 -4.45674E+03  6.73391E+03  3.16375E+03  2.71696E+03  7.05544E+03 -1.83441E+03  6.70485E+03
 -3.75229E+03  3.87464E+03 -2.64329E+03  8.35704E+02 -2.34924E+03  4.98794E+02 -2.82344E+03  1.89073E+03
 -3.18243E+03  4.89850E+03 -8.77399E+03  4.53588E+03 -1.26312E+04 -2.65771E+02 -1.43304E+04 -8.19444E+03
 -6.82991E+03 -1.78970E+04  3.54614E+03 -2.04741E+04  1.21281E+04 -1.48473E+04  1.93403E+04 -5.43469E+03
  1.81361E+04  4.48265E+03  1.11753E+04  1.34441E+04  1.35153E+03  1.29999E+04 -5.55300E+03  9.97902E+03
 -7.38977E+03  3.46275E+03 -5.28451E+03 -5.71573E+02 -1.44719E+03 -2.11438E+03 -9.91948E+01 -3.37295E+02
 -2.31566E+03  7.61023E+02 -2.92402E+03 -6.81022E+02 -9.84983E+02 -3.13582E+03  5.44913E+02 -3.98595E+03
  6.32185E+03 -3.93899E+03  8.97125E+03 -1.82694E+02  9.40908E+03  7.03299E+03  3.26912E+03  1.35885E+04
 -6.24456E+03  1.55642E+04 -1.41157E+04  9.01159E+03 -1.75214E+04 -5.80391E+02 -1.34422E+04 -1.00640E+04
 -5.47319E+03 -1.47113E+04  3.92417E+03 -1.31278E+04  9.19962E+03 -6.81685E+03  8.86121E+03  3.29645E+02
  4.36636E+03  4.50527E+03 -1.49571E+03  4.15405E+03 -2.65142E+03 -8.44772E+02  6.45709E+02 -3.32306E+03
  3.99680E+03 -1.70994E+03  5.56495E+03  1.44277E+03  3.69748E+03  5.91338E+03 -4.66261E+02  7.87364E+03
 -6.54729E+03  5.98512E+03 -9.97846E+03  1.83465E+03 -8.70619E+03 -7.14326E+03 -3.66965E+02 -1.29993E+04
  6.37249E+03 -9.23661E+03  1.21845E+04 -3.70160E+03  1.16088E+04  2.36994E+03  6.90703E+03  9.01444E+03
  1.64968E+03  9.69140E+03 -3.25542E+03  7.66149E+03 -7.54644E+03  2.77643E+03 -5.16358E+03  6.73083E+02
 -2.85517E+03 -6.66491E+02 -2.18939E+03  1.22332E+03 -4.37656E+03  2.37413E+03 -7.74302E+03 -1.16504E+03
 -7.78969E+03 -5.15204E+03 -2.64319E+03 -9.65069E+03  4.13470E+03 -9.47435E+03  9.36226E+03 -4.90155E+03
  9.30507E+03  1.61949E+03  6.02158E+03  7.95652E+03 -2.74239E+02  1.00596E+04 -7.64562E+03  6.06655E+03
