 $NMID ID='MM_0lb_SNR400_7hz_g60_56.RAW', FMTDAT='(8E13.5)'
 TRAMP=1., VOLUME=1. $END
  3.09749E+05  7.45027E+02  3.37990E+05  2.51244E+05  8.48661E+04  3.39326E+05 -1.32954E+05  2.53026E+05
 -1.90850E+05  8.47296E+04 -1.13956E+05 -3.28684E+04  1.52638E+01 -5.10140E+04  5.31939E+04 -4.49019E+02
  3.59859E+04  5.34579E+04 -1.67557E+04  7.69917E+04 -6.11440E+04  6.46162E+04 -8.65549E+04  3.31420E+04
 -8.30847E+04 -1.22946E+04 -5.91801E+04 -5.31360E+04 -1.44271E+04 -7.18152E+04  2.82319E+04 -4.70838E+04
  4.09586E+04  3.50354E+03  1.70755E+04  4.97847E+04 -3.45778E+04  4.95230E+04 -6.88712E+04 -5.81814E+02
 -5.59792E+04 -5.79444E+04 -8.13763E+03 -8.02791E+04  3.48901E+04 -5.84192E+04  5.06087E+04 -1.84798E+04
  4.62192E+04  1.16780E+04  3.30167E+04  2.79085E+04  1.59969E+04  3.15753E+04 -7.26394E+03  2.78492E+04
 -2.23623E+04  1.16026E+04 -1.84333E+04 -4.88977E+03  7.94607E+03 -7.27016E+03  2.50653E+04  1.41618E+04
  6.78296E+03  3.91552E+04 -3.37844E+04  3.75464E+04 -6.61934E+04  2.04662E+03 -6.06153E+04 -4.50899E+04
 -1.32077E+04 -6.75727E+04  4.17795E+04 -4.92568E+04  6.31169E+04 -2.75268E+03  3.87412E+04  3.51652E+04
 -5.97932E+03  4.17393E+04 -3.27369E+04  2.10826E+04 -3.55332E+04 -3.68533E+03 -2.11427E+04 -1.19140E+04
 -1.09747E+04 -1.69110E+04  9.89773E+01 -1.98727E+04  8.06484E+03 -2.45468E+04  1.57837E+04 -1.20546E+04
  9.07437E+03  6.03575E+03 -1.18092E+04  1.28139E+04 -2.52007E+04 -8.92224E+03 -9.33248E+03 -4.01346E+04
  2.64584E+04 -4.82736E+04  5.43270E+04 -2.09770E+04  5.06183E+04  2.16789E+04  1.83204E+04  4.87937E+04
 -1.65041E+04  3.77265E+04 -2.97222E+04  3.20631E+03 -1.29536E+04 -3.07771E+04  2.25460E+04 -3.84058E+04
  4.69455E+04 -1.12266E+04  4.26295E+04  2.51908E+04  2.19633E+04  5.34367E+04 -8.20121E+03  5.89435E+04
 -3.80619E+04  4.17763E+04 -5.10901E+04  1.28021E+04 -5.11485E+04 -1.86122E+04 -2.81122E+04 -4.44223E+04
  7.64274E+03 -4.46912E+04  3.61898E+04 -1.75148E+04  3.38168E+04  1.16713E+04  5.59983E+03  2.17175E+04
 -1.50329E+04  1.03978E+04 -1.25088E+04 -7.28263E+03  5.62862E+03 -1.21578E+04  1.93374E+04  5.80853E+03
  1.59958E+04  2.28508E+04 -3.82432E+03  2.78005E+04 -2.47489E+04  1.57680E+04 -3.41238E+04 -2.02018E+03
 -2.89582E+04 -1.88809E+04 -1.38578E+04 -2.73257E+04  4.47387E+03 -2.91630E+04  2.20825E+04 -2.62565E+04
  3.55446E+04 -1.44074E+04  4.13757E+04  5.67239E+03  2.91194E+04  2.64876E+04  4.80634E+03  4.48574E+04
 -2.09965E+04  3.65084E+04 -3.33554E+04  1.18416E+04 -2.30818E+04 -9.90463E+03 -4.76844E+03 -1.21062E+04
 -5.57275E+02 -1.11162E+03 -9.07702E+03  9.36403E+03 -2.22324E+04  5.80660E+03 -2.27413E+04 -1.15730E+04
 -1.28692E+04 -2.62604E+04  6.50273E+03 -3.03939E+04  2.09094E+04 -2.18622E+04  2.63516E+04 -1.76746E+03
  1.63163E+04  1.85231E+04 -1.99428E+03  2.58838E+04 -1.96692E+04  1.47634E+04 -2.70173E+04 -5.20867E+03
 -1.91673E+04 -2.42039E+04 -3.22250E+03 -3.19784E+04  1.41121E+04 -2.65295E+04  2.64378E+04 -1.32253E+04
  2.46324E+04 -4.17607E+02  1.80487E+04  6.46285E+03  1.08080E+04  1.98860E+03  1.39916E+04 -2.62707E+03
  2.44855E+04  2.58511E+03  2.95849E+04  2.07581E+04  2.08039E+04  4.26998E+04 -3.00446E+03  5.12994E+04
 -2.81574E+04  4.25704E+04 -4.77752E+04  2.26576E+04 -5.14506E+04 -3.32248E+03 -4.18498E+04 -3.00668E+04
 -1.59281E+04 -4.27030E+04  1.57128E+04 -3.76654E+04  3.16963E+04 -1.59713E+04  2.73506E+04  1.08315E+04
  9.76301E+03  2.22907E+04 -1.38232E+04  1.68583E+04 -2.33783E+04  2.76135E+03 -1.76585E+04 -1.49089E+04
 -7.59614E+02 -2.10664E+04  1.22708E+04 -1.58740E+04  1.53960E+04 -6.08987E+02  4.58210E+03  9.59246E+03
 -9.68288E+03  4.47579E+03 -1.10718E+04 -7.65202E+03 -2.59395E+03 -2.14263E+04  1.36945E+04 -2.36319E+04
  2.69442E+04 -1.39885E+04  3.11719E+04  4.88954E+03  2.75901E+04  2.17769E+04  1.31083E+04  3.52377E+04
 -7.32763E+03  3.70716E+04 -2.38739E+04  2.20769E+04 -2.64782E+04  3.47606E+03 -1.73398E+04 -7.92686E+03
 -7.60878E+03 -9.01128E+03  8.83005E+02  2.89241E+02 -3.26712E+03  4.04739E+03 -9.23455E+03  6.21803E+03
 -1.66422E+04 -1.07679E+03 -1.62241E+04 -1.35217E+04 -7.11659E+03 -2.26630E+04  7.42060E+03 -1.92021E+04
  1.51495E+04 -7.59406E+03  9.36580E+03  4.52310E+03 -6.70194E+02  6.27251E+03 -9.65330E+03 -1.59630E+02
 -9.55949E+03 -1.18742E+04 -1.24725E+03 -1.88267E+04  1.16797E+04 -2.07116E+04  2.50376E+04 -1.01160E+04
  2.82684E+04  3.07452E+03  2.05981E+04  1.79872E+04  4.43634E+03  2.26243E+04 -1.20769E+04  1.75143E+04
 -1.51476E+04  5.55971E+03 -8.39772E+03 -3.79954E+03  1.40129E+03 -5.79269E+03  9.16327E+03 -9.90009E+02
  9.57767E+03  8.41094E+03  1.59661E+03  1.51555E+04 -1.15307E+04  1.32206E+04 -1.99026E+04  2.32296E+03
 -1.36043E+04 -9.31057E+03  4.10237E+02 -1.59968E+04  1.03916E+04 -8.58317E+03  1.14669E+04  4.92036E+03
  2.61732E+03  1.28328E+04 -9.79165E+03  1.44921E+04 -1.63098E+04  6.14647E+03 -1.71601E+04 -7.01844E+03
 -9.84521E+03 -1.97271E+04  4.13087E+03 -2.35909E+04  1.88040E+04 -1.31641E+04  2.16334E+04  2.74576E+03
  1.23695E+04  1.58045E+04 -2.23591E+03  2.03381E+04 -1.45006E+04  1.00634E+04 -1.58390E+04 -2.65529E+03
 -1.30217E+04 -1.36347E+04 -1.28256E+03 -1.43730E+04  7.67127E+03 -1.22178E+04  9.79097E+03 -4.24039E+03
  5.55658E+03  2.93028E+03 -1.77225E+03  1.90537E+03 -2.05276E+03 -4.90179E+03  4.35853E+03 -9.76261E+03
  1.54957E+04 -6.56077E+03  2.16699E+04  2.02058E+03  1.97685E+04  1.51597E+04  1.17715E+04  2.66344E+04
 -6.28597E+03  3.02298E+04 -2.53703E+04  2.29935E+04 -3.26613E+04  4.14355E+03 -2.70109E+04 -1.25935E+04
 -1.18873E+04 -2.16636E+04  2.04058E+02 -1.86143E+04  7.27724E+03 -1.12693E+04  6.75029E+03 -7.00707E+03
  5.39591E+03 -3.37338E+03  5.35143E+03 -3.64100E+03  7.52012E+03 -5.86138E+03  1.04149E+04 -2.51434E+03
  1.36208E+04  3.42785E+03  7.96783E+03  1.20371E+04 -2.88651E+03  1.49401E+04 -1.46394E+04  1.13199E+04
 -1.94431E+04 -1.73963E+03 -1.18197E+04 -1.41080E+04 -2.11428E+03 -2.10962E+04  1.14076E+04 -2.07937E+04
  2.13201E+04 -1.07053E+04  2.57643E+04  3.73662E+03  1.78873E+04  1.75987E+04  2.22930E+03  2.24733E+04
 -9.71267E+03  1.91819E+04 -1.38655E+04  5.95779E+03 -9.71242E+03 -2.15342E+03 -5.18239E+03 -3.34449E+03
 -1.85503E+03 -1.09931E+03 -2.60529E+03  3.88868E+03 -7.63550E+03  3.28053E+03 -1.35996E+04 -2.41348E+03
 -9.86296E+03 -1.30409E+04 -4.80661E+02 -1.96250E+04  1.26586E+04 -1.83630E+04  2.03941E+04 -5.04155E+03
  1.94179E+04  1.00594E+04  8.93874E+03  1.83321E+04 -3.61333E+03  2.04943E+04 -1.50356E+04  1.22381E+04
 -1.86798E+04  3.27024E+02 -1.44505E+04 -1.23340E+04 -1.26241E+03 -1.79686E+04  8.46931E+03 -1.29429E+04
  1.34276E+04 -3.03308E+03  8.98311E+03  3.20739E+03  2.46039E+03  5.89235E+03  1.89538E+03  2.38954E+03
  3.12205E+03  1.60994E+03  4.62847E+03  1.74258E+03  6.27438E+03  6.00891E+03  4.50566E+03  1.14570E+04
 -4.16449E+03  1.60477E+04 -1.46896E+04  1.63350E+04 -2.22380E+04  4.44895E+03 -2.31671E+04 -9.29915E+03
 -1.07769E+04 -2.09299E+04  2.78469E+03 -2.30009E+04  1.24625E+04 -1.51379E+04  1.75500E+04 -4.19038E+03
  1.37140E+04  7.63668E+03  2.51273E+03  1.18094E+04 -6.77130E+03  7.35375E+03 -8.91260E+03 -5.89664E+02
 -4.32700E+03 -8.16732E+03  4.66887E+03 -9.24812E+03  8.86811E+03 -3.55770E+03  8.35005E+03  1.36312E+03
  5.28195E+03  4.66909E+03  2.87113E+03  4.09647E+03 -7.25643E+02  2.01209E+03  9.45073E+02  9.41628E+01
  4.01610E+03 -1.16947E+03  8.41973E+03  3.20700E+03  4.99595E+03  1.10371E+04 -1.74454E+03  1.59614E+04
 -1.04119E+04  9.98543E+03 -1.47328E+04  2.85387E+03 -1.24525E+04 -5.36243E+03 -4.99875E+03 -8.47728E+03
  1.37175E+03 -8.45182E+03  5.00145E+03 -3.68997E+03  4.11852E+03  3.45632E+03 -1.71720E+03  6.27573E+03
 -9.13620E+03  4.46574E+03 -1.03884E+04 -5.14398E+03 -5.68777E+03 -1.17728E+04  2.21954E+03 -1.22479E+04
  6.80501E+03 -7.56827E+03  8.89159E+03 -7.98891E+02  6.91207E+03  3.61715E+03  3.14571E+02  6.65301E+03
 -4.41996E+03  1.08189E+03 -5.66770E+03 -5.15901E+03  1.88602E+03 -1.03768E+04  1.10728E+04 -8.29669E+03
  1.46435E+04  1.03008E+03  1.32316E+04  9.77575E+03  4.64647E+03  1.52060E+04 -6.50590E+03  1.34858E+04
 -1.22284E+04  6.84971E+03 -1.19795E+04 -2.13113E+03 -7.20046E+03 -9.49117E+03  2.59586E+03 -8.60911E+03
  9.43489E+03 -5.46041E+03  7.76479E+03  4.62751E+03  3.11730E+03  8.15092E+03 -1.43753E+03  7.56034E+03
 -3.59393E+03  4.03788E+03 -3.70930E+03  2.41854E+03 -1.30733E+03  1.99261E+03 -2.62386E+03  3.19848E+03
 -4.00841E+03  5.57877E+03 -9.31212E+03  5.55301E+03 -1.51249E+04  2.54705E+02 -1.64144E+04 -1.00596E+04
 -8.63253E+03 -2.02375E+04  3.65442E+03 -2.31006E+04  1.43186E+04 -1.71938E+04  2.29150E+04 -6.55971E+03
  2.01887E+04  4.79669E+03  1.29596E+04  1.42362E+04  8.33729E+02  1.69343E+04 -7.51839E+03  1.19208E+04
 -7.59869E+03  4.42111E+03 -4.50810E+03 -2.45248E+03 -2.08871E+03 -1.55131E+03 -5.39750E+02 -1.30979E+03
 -2.62980E+03  2.88997E+02 -3.39184E+03 -1.18943E+03 -1.29790E+03 -3.95153E+03  5.39508E+02 -6.28368E+03
  6.88757E+03 -5.51123E+03  1.00057E+04 -5.47193E+02  1.17725E+04  8.21599E+03  2.78506E+03  1.46213E+04
 -7.00105E+03  1.78190E+04 -1.67657E+04  1.08979E+04 -1.98506E+04 -1.36434E+03 -1.45909E+04 -1.16093E+04
 -5.38462E+03 -1.62695E+04  4.45266E+03 -1.59809E+04  1.06580E+04 -8.06849E+03  1.12133E+04  8.78835E+02
  5.66155E+03  5.05112E+03 -9.76407E+02  5.79661E+03 -3.61988E+03 -1.05102E+03 -1.09639E+02 -3.80247E+03
  4.88147E+03 -2.75533E+03  5.95653E+03  1.96649E+03  3.99555E+03  6.64281E+03 -1.34925E+02  8.89278E+03
 -7.15501E+03  6.53264E+03 -1.06177E+04 -4.42317E+02 -9.28106E+03 -7.82018E+03 -1.40559E+03 -1.44859E+04
  7.68227E+03 -1.12477E+04  1.29729E+04 -2.95104E+03  1.29970E+04  4.22356E+03  7.73792E+03  9.48429E+03
  1.22282E+03  1.14350E+04 -3.90532E+03  8.41263E+03 -7.24952E+03  4.67581E+03 -6.16591E+03  1.22338E+03
 -3.32277E+03 -1.18333E+03 -3.21537E+03  7.10244E+02 -6.09715E+03  2.41869E+03 -8.08238E+03 -2.46133E+03
 -7.42093E+03 -6.33716E+03 -1.91103E+03 -1.22362E+04  5.30611E+03 -1.20085E+04  1.01043E+04 -5.60238E+03
  1.06458E+04  2.21718E+03  6.27100E+03  8.94147E+03 -1.22551E+03  1.27465E+04 -8.09114E+03  6.43184E+03
