 $NMID ID='MM_0lb_SNR400_19hz_g60_51.RAW', FMTDAT='(8E13.5)'
 TRAMP=1., VOLUME=1. $END
  3.09789E+05  5.40756E+02  3.37871E+05  2.50437E+05  8.45428E+04  3.38058E+05 -1.32459E+05  2.51422E+05
 -1.90021E+05  8.25575E+04 -1.11251E+05 -3.25086E+04  1.49319E+03 -5.01580E+04  5.36057E+04 -2.34495E+02
  3.59645E+04  5.26877E+04 -1.68315E+04  7.53780E+04 -6.08959E+04  6.31492E+04 -8.32621E+04  3.18396E+04
 -8.04073E+04 -1.09903E+04 -5.68133E+04 -5.08952E+04 -1.43464E+04 -6.94685E+04  2.67940E+04 -4.48640E+04
  3.99205E+04  4.00488E+03  1.59792E+04  4.80464E+04 -3.41074E+04  4.62862E+04 -6.63417E+04 -2.41564E+02
 -5.24641E+04 -5.59539E+04 -6.43542E+03 -7.62709E+04  3.42094E+04 -5.41552E+04  4.71049E+04 -1.66286E+04
  4.27204E+04  1.15618E+04  3.11945E+04  2.44309E+04  1.59289E+04  2.92230E+04 -5.21001E+03  2.71861E+04
 -2.18504E+04  1.27804E+04 -1.88185E+04 -4.21333E+03  4.53427E+03 -7.30455E+03  2.15723E+04  1.18397E+04
  7.33366E+03  3.46506E+04 -3.17487E+04  3.46435E+04 -6.26672E+04  2.19671E+03 -5.58676E+04 -4.25731E+04
 -1.30472E+04 -6.18441E+04  3.98257E+04 -4.41383E+04  5.71456E+04 -1.97499E+03  3.32573E+04  3.14861E+04
 -6.03396E+03  3.47647E+04 -2.88871E+04  1.51558E+04 -2.91728E+04 -4.88280E+03 -1.55651E+04 -1.04593E+04
 -7.24465E+03 -1.20690E+04 -1.61064E+03 -1.73472E+04  6.78512E+03 -2.20006E+04  1.53863E+04 -1.36301E+04
  1.23478E+04  4.49648E+03 -7.20882E+03  1.28812E+04 -2.05375E+04 -3.26508E+03 -8.36893E+03 -3.20992E+04
  2.17341E+04 -4.19460E+04  4.60016E+04 -1.90738E+04  4.37941E+04  1.89190E+04  1.45284E+04  4.27415E+04
 -1.59127E+04  3.24950E+04 -2.42732E+04  1.31526E+03 -8.94406E+03 -2.73186E+04  2.09702E+04 -3.24550E+04
  3.92118E+04 -7.86811E+03  3.31924E+04  2.30995E+04  1.62857E+04  4.41278E+04 -7.52496E+03  4.69214E+04
 -2.96178E+04  3.12285E+04 -3.94705E+04  8.53000E+03 -4.07354E+04 -1.56566E+04 -2.21548E+04 -3.58516E+04
  6.89033E+03 -3.55441E+04  2.98557E+04 -1.31614E+04  2.78095E+04  1.07542E+04  3.42601E+03  1.86124E+04
 -1.28883E+04  7.57249E+03 -1.01373E+04 -7.81606E+03  6.07682E+03 -1.07668E+04  1.80811E+04  6.24407E+03
  1.26795E+04  2.20915E+04 -6.70122E+03  2.43996E+04 -2.20381E+04  1.05429E+04 -2.59799E+04 -6.60449E+03
 -1.79764E+04 -1.69005E+04 -6.72941E+03 -1.80933E+04  4.46038E+03 -1.65017E+04  1.36831E+04 -1.53548E+04
  2.30416E+04 -1.16862E+04  2.94993E+04  1.26676E+03  2.21618E+04  1.81243E+04  4.24975E+03  3.29858E+04
 -1.68922E+04  2.83450E+04 -2.59697E+04  1.00452E+04 -2.01666E+04 -1.08699E+04 -4.41019E+03 -1.41169E+04
  2.32608E+03 -3.56873E+03 -3.39613E+03  5.68089E+03 -1.36414E+04  5.06174E+03 -1.42986E+04 -5.72584E+03
 -9.55537E+03 -1.67444E+04  5.19972E+03 -2.05059E+04  1.38249E+04 -1.50766E+04  1.55966E+04 -1.19895E+03
  9.81191E+03  1.20497E+04 -1.07036E+03  1.67624E+04 -1.13712E+04  9.20218E+03 -1.66939E+04 -3.71897E+03
 -1.23926E+04 -1.53837E+04 -1.48603E+03 -2.02195E+04  9.09592E+03 -1.65133E+04  1.72517E+04 -7.69072E+03
  1.56832E+04  3.98462E+02  1.11267E+04  3.41378E+03  5.37298E+03  7.20104E+02  8.56103E+03 -1.72923E+03
  1.48424E+04  2.62189E+03  1.53902E+04  1.32468E+04  9.46314E+03  2.61829E+04 -3.46675E+03  2.85955E+04
 -1.68040E+04  2.20674E+04 -2.67539E+04  1.02981E+04 -2.65147E+04 -1.74402E+03 -2.29256E+04 -1.56265E+04
 -1.04547E+04 -2.17527E+04  6.93506E+03 -2.04927E+04  1.76268E+04 -1.09178E+04  1.60657E+04  4.07320E+03
  6.90964E+03  1.19351E+04 -7.03025E+03  1.12110E+04 -1.44133E+04  2.39982E+03 -1.06923E+04 -9.04374E+03
 -8.00245E+02 -1.30849E+04  6.03087E+03 -1.00760E+04  8.91638E+03 -1.67311E+03  1.63421E+03  4.81784E+03
 -5.11965E+03  1.70541E+03 -4.19243E+03 -4.51506E+03  5.98581E+02 -1.10826E+04  8.37021E+03 -1.09914E+04
  1.28306E+04 -5.61175E+03  1.28792E+04  2.39039E+03  1.11595E+04  1.04796E+04  5.72790E+03  1.50801E+04
 -1.85470E+03  1.75554E+04 -1.06385E+04  1.04821E+04 -1.22827E+04  2.85739E+03 -8.75142E+03 -2.30667E+03
 -4.59973E+03 -3.01065E+03 -1.04691E+03  1.21216E+03 -2.11090E+03  1.63013E+03 -4.07642E+03  3.75154E+03
 -8.77553E+03 -2.15832E+02 -8.93330E+03 -7.23216E+03 -2.99865E+03 -1.18072E+04  3.40259E+03 -8.56849E+03
  7.67005E+03 -3.92178E+03  5.06832E+03  2.43257E+03  3.70835E+02  3.31632E+03 -3.22334E+03 -5.08574E+02
 -3.04526E+03 -5.84335E+03 -6.38678E+02 -7.63882E+03  4.03739E+03 -8.66674E+03  9.89315E+03 -3.77429E+03
  1.23952E+04  8.22934E+02  8.76560E+03  6.78834E+03  1.79961E+03  8.88409E+03 -5.41474E+03  8.77011E+03
 -7.36417E+03  2.73732E+03 -3.18782E+03 -1.13004E+03  9.74722E+02 -2.00016E+03  4.93432E+03 -8.65522E+02
  4.17779E+03  3.66444E+03  8.73422E+02  6.79472E+03 -4.83000E+03  6.66452E+03 -8.34037E+03  1.72015E+03
 -5.31300E+03 -4.20236E+03  3.29488E+02 -6.36018E+03  4.19955E+03 -3.31728E+03  3.97902E+03  8.68276E+02
  5.64686E+02  3.80850E+03 -4.40101E+03  4.89776E+03 -5.46977E+03  2.09012E+03 -4.98649E+03 -1.41898E+03
 -3.11148E+03 -6.54708E+03  8.27135E+02 -7.30264E+03  6.37540E+03 -4.91972E+03  7.26276E+03  6.32468E+02
  4.84942E+03  5.32121E+03  2.64523E+02  7.98306E+03 -5.36648E+03  4.23515E+03 -5.89706E+03 -5.22148E+02
 -5.92303E+03 -5.20060E+03 -1.17817E+03 -4.91788E+03  2.53462E+03 -4.92780E+03  2.58499E+03 -3.01564E+03
  2.24106E+03  1.12818E+02  8.29455E+01  1.74665E+03  2.37506E+02 -6.16265E+02  3.57537E+02 -2.31377E+03
  4.19652E+03 -4.78003E+02  5.06373E+03  1.21117E+03  5.77188E+03  3.26564E+03  5.18410E+03  7.54238E+03
 -1.05322E+03  8.31147E+03 -7.84208E+03  7.25066E+03 -1.01043E+04  1.28951E+03 -7.93583E+03 -2.65590E+03
 -4.44278E+03 -6.92943E+03 -8.44111E+02 -4.97953E+03  2.31871E+03 -2.75144E+03  1.41486E+03 -2.18865E+03
  1.34738E+03 -1.06708E+03  2.18790E+03 -2.42111E+03  3.44554E+03 -1.26841E+03  3.84947E+03  4.82185E+02
  4.53528E+03  1.35266E+03  9.39047E+02  3.24820E+03 -1.55845E+03  2.69610E+03 -4.63592E+03  2.92551E+03
 -4.70860E+03 -1.29080E+03 -1.75594E+03 -3.14807E+03  3.15958E+02 -4.43081E+03  3.50076E+03 -4.81135E+03
  5.59137E+03 -3.23575E+03  7.05152E+03 -3.82061E+02  5.43644E+03  3.73039E+03  1.86302E+03  5.90844E+03
 -2.01952E+03  5.93727E+03 -3.05585E+03  2.06445E+03 -2.00918E+03 -1.16891E+03 -5.45979E+02 -5.49935E+02
 -1.91050E+02  2.79882E+02 -1.17866E+03  1.95107E+03 -2.57032E+03  1.17743E+03 -4.19292E+03  1.02569E+01
 -8.33822E+02 -3.52470E+03  1.36927E+03 -4.68944E+03  2.62406E+03 -4.60466E+03  3.32066E+03 -1.37313E+03
  3.69724E+03  1.83904E+03  2.18083E+03  3.31525E+03 -6.32712E+02  3.97473E+03 -2.73587E+03  2.69786E+03
 -3.50253E+03  6.85583E+02 -3.25525E+03 -2.24770E+03 -2.60754E+02 -2.53935E+03  1.42879E+03 -2.28981E+03
  2.73578E+03 -1.63561E+03  9.09155E+02  4.34192E+02  3.69090E+02  1.23078E+03  1.93516E+02  4.60133E+02
  1.72649E+03  2.95937E+02  1.31491E+03  1.33877E+03  7.79598E+02  2.03610E+03  1.50787E+03  1.97576E+03
 -1.01199E+03  3.04750E+03 -2.28675E+03  4.11782E+03 -2.84974E+03  9.80213E+02 -4.01239E+03 -5.65920E+02
 -1.40109E+03 -3.53278E+03  1.01892E+03 -4.34076E+03  1.93719E+03 -2.42483E+03  2.88526E+03 -1.21769E+03
  2.52134E+03  1.75481E+03  7.63721E+02  1.82474E+03 -1.19862E+03  8.99755E+02 -6.36254E+02 -2.13170E+02
 -3.48991E+02 -1.43227E+03  9.75807E+02 -1.61908E+03  1.43575E+03 -1.17396E+03  9.02145E+02  4.32064E+02
  1.23051E+03  6.92260E+02  8.81306E+02 -3.37810E+02 -2.18518E+02  1.03252E+03  1.43797E+03 -6.76732E+02
  8.13263E+01 -4.42782E+01  2.06738E+03  3.80248E+01  2.03181E+02  1.91717E+03 -5.53106E+02  2.84933E+03
 -1.63582E+03  1.14582E+03 -1.61746E+03  3.78869E+01 -1.81422E+03 -5.02677E+02 -1.41274E+02 -1.07849E+03
  4.67747E+02 -1.15022E+03  8.69808E+02  1.55913E+02  8.20602E+02  1.37174E+03 -4.24068E+02  1.39073E+03
 -1.71944E+03  9.53560E+02 -6.78882E+02 -9.96350E+02 -5.87851E+02 -1.95345E+03  1.72456E+02 -9.68942E+02
  7.31249E+01  3.61464E+01  3.83100E+02  8.65874E+01  9.07618E+02 -4.90852E+01 -4.08132E+02  1.50247E+03
 -1.97242E+02 -8.17971E+00 -1.21803E+03 -4.54542E+02  4.00349E+02 -8.96821E+02  1.31102E+03 -7.95732E+02
  7.78570E+02  6.41164E+02  2.72410E+03  3.39276E+02  7.86533E+02  1.60119E+03 -2.08519E+02  1.23191E+03
 -9.20283E+02  1.97613E+02 -1.61551E+03 -3.34268E+02 -1.42892E+02 -1.59649E+03 -4.75777E+02 -2.05614E+02
  1.43979E+03 -5.71638E+02  1.24211E+03 -8.07754E+01 -6.41797E+01  9.07554E+02  1.75101E+02  9.87514E+02
 -5.95804E+02  9.05281E+02 -1.10970E+02  4.34855E+02  2.79335E+02  3.63406E+02 -1.20051E+03  8.12101E+02
 -2.94837E+02  6.97933E+02 -1.54932E+03  6.26839E+01 -1.18235E+03  4.33443E+01 -1.87125E+03 -9.88734E+02
 -6.37879E+02 -2.08092E+03 -6.83619E+01 -2.22318E+03  6.13552E+02 -2.10377E+03  2.04550E+03 -3.81976E+02
  2.16695E+03 -2.84501E+02  9.40531E+02  1.71687E+03 -1.25737E+03  9.40511E+02 -6.85268E+01  5.36581E+02
 -7.52260E+02  7.58122E+02 -3.06223E+02  6.80393E+01 -4.67616E+01 -1.26070E+02 -4.10847E+02 -3.13956E+00
 -6.99380E+02  1.48218E+01 -1.12292E+03 -2.20570E+02  1.12678E+02 -1.00980E+03 -3.18545E+02 -9.81481E+02
  1.13596E+03 -1.02432E+03  1.87996E+02  4.71246E+02  1.08379E+03  1.17999E+03 -4.28556E+02  1.25998E+03
 -1.20343E+03  1.98051E+03 -1.63405E+03  9.97287E+02 -1.37750E+03  3.32128E+02 -1.32852E+03 -8.13197E+02
 -8.15129E+02 -9.80189E+02 -3.94528E+01 -5.75039E+02  7.10843E+02 -5.24283E+02  1.09905E+02  5.14327E+02
  9.04618E+02 -3.57589E+02 -2.77054E+02  3.99294E+02 -5.67019E+02 -5.13668E+02 -5.16803E+02  1.41453E+02
  3.88463E+01  6.40284E+02  1.38013E+02  1.78992E+02  3.40162E+02  8.67827E+02  4.42442E+02  7.26093E+02
 -2.50899E+02  2.51527E+02  9.71060E+01  3.11245E+02 -5.79650E+02  2.89976E+02 -7.33416E+01 -1.38362E+03
 -6.96176E+01 -3.27088E+02  1.60408E+02  1.73447E+02  1.43503E+01 -4.15913E+02  5.01904E+02  1.19602E+03
  8.49344E+02  4.18781E+02 -3.51743E+01  7.61133E+02 -5.21929E+02  6.90375E+02  4.14535E+01  3.37609E+02
  4.74566E+02 -4.44128E+02 -6.14809E+02  1.53378E+02 -5.06896E+02 -3.01447E+02 -9.77567E+02 -4.79389E+02
 -8.89821E+02  6.68017E+02  8.53683E+01 -9.50296E+02  3.74007E+02 -1.28466E+03  3.88077E+02 -4.53480E+02
 -1.00584E+02  5.30956E+02 -2.70305E+02  5.22347E+02  7.40398E+00  7.04043E+02 -4.13432E+02  5.78643E+02
