 $NMID ID='MM_0lb_SNR400_11hz_g50_6.RAW', FMTDAT='(8E13.5)'
 TRAMP=1., VOLUME=1. $END
  3.10176E+05 -1.81477E+02  3.37693E+05  2.50681E+05  8.48447E+04  3.38282E+05 -1.32448E+05  2.50929E+05
 -1.90807E+05  8.40281E+04 -1.12746E+05 -3.18376E+04  9.96210E+02 -5.05235E+04  5.29701E+04 -5.23195E+02
  3.60565E+04  5.22556E+04 -1.65240E+04  7.61593E+04 -6.03763E+04  6.37933E+04 -8.46982E+04  3.20497E+04
 -8.23335E+04 -1.13101E+04 -5.73297E+04 -5.20939E+04 -1.50558E+04 -6.98615E+04  2.70769E+04 -4.62434E+04
  4.05672E+04  4.08885E+03  1.61330E+04  4.83041E+04 -3.52638E+04  4.83263E+04 -6.73145E+04 -4.33668E+01
 -5.40956E+04 -5.81231E+04 -7.43400E+03 -7.85508E+04  3.45294E+04 -5.67348E+04  4.87235E+04 -1.78726E+04
  4.44718E+04  1.09883E+04  3.29870E+04  2.61916E+04  1.58486E+04  3.00979E+04 -5.24295E+03  2.82137E+04
 -2.18572E+04  1.19508E+04 -1.77228E+04 -5.41645E+03  6.65371E+03 -7.34755E+03  2.27091E+04  1.26998E+04
  7.34836E+03  3.65039E+04 -3.27998E+04  3.66020E+04 -6.48385E+04  1.98195E+03 -5.78340E+04 -4.39917E+04
 -1.18039E+04 -6.43477E+04  4.07684E+04 -4.65801E+04  6.03626E+04 -2.31748E+03  3.61266E+04  3.31778E+04
 -5.89530E+03  3.84465E+04 -3.07580E+04  1.76394E+04 -3.17835E+04 -3.89579E+03 -1.77849E+04 -1.19845E+04
 -9.01557E+03 -1.35761E+04 -1.48610E+02 -1.95423E+04  7.93367E+03 -2.36845E+04  1.61051E+04 -1.24708E+04
  1.10594E+04  5.28299E+03 -9.42890E+03  1.32491E+04 -2.24607E+04 -6.31929E+03 -8.37154E+03 -3.62476E+04
  2.39808E+04 -4.60514E+04  5.02656E+04 -2.02518E+04  4.70449E+04  2.02120E+04  1.59463E+04  4.56357E+04
 -1.64854E+04  3.37927E+04 -2.61455E+04  2.23881E+03 -1.11903E+04 -2.85290E+04  2.06066E+04 -3.55928E+04
  4.26844E+04 -1.01125E+04  3.84276E+04  2.47357E+04  1.99981E+04  4.90241E+04 -8.13187E+03  5.38100E+04
 -3.38569E+04  3.70575E+04 -4.56965E+04  1.03027E+04 -4.54661E+04 -1.82086E+04 -2.51824E+04 -4.02119E+04
  7.09197E+03 -4.05716E+04  3.29177E+04 -1.65518E+04  3.08845E+04  1.06527E+04  4.40823E+03  2.02842E+04
 -1.33039E+04  9.43723E+03 -1.09330E+04 -6.93174E+03  5.16946E+03 -1.09356E+04  1.90418E+04  5.82947E+03
  1.40247E+04  2.32590E+04 -6.75584E+03  2.64575E+04 -2.26435E+04  1.19419E+04 -2.98102E+04 -3.92277E+03
 -2.41707E+04 -1.77348E+04 -1.04652E+04 -2.33564E+04  4.14167E+03 -2.31144E+04  1.78328E+04 -2.09422E+04
  2.91863E+04 -1.31856E+04  3.56076E+04  4.66076E+03  2.59543E+04  2.23938E+04  4.27114E+03  3.93512E+04
 -1.87445E+04  3.28016E+04 -2.98085E+04  1.08985E+04 -2.15264E+04 -9.81635E+03 -4.34295E+03 -1.20678E+04
  1.10902E+03 -1.75498E+03 -6.26304E+03  7.63057E+03 -1.85389E+04  5.54060E+03 -1.84036E+04 -8.31848E+03
 -1.11749E+04 -2.07198E+04  6.00470E+03 -2.56418E+04  1.70154E+04 -1.84688E+04  2.07291E+04 -1.51644E+03
  1.33229E+04  1.46497E+04 -1.71692E+03  2.22439E+04 -1.50631E+04  1.22737E+04 -2.18901E+04 -4.60175E+03
 -1.56479E+04 -1.95778E+04 -2.34802E+03 -2.58883E+04  1.17595E+04 -2.13115E+04  2.17573E+04 -1.06333E+04
  2.01686E+04  1.54652E+01  1.47830E+04  4.69552E+03  7.81117E+03  1.02623E+03  1.18446E+04 -2.02117E+03
  1.98388E+04  3.18433E+03  2.28244E+04  1.69528E+04  1.49733E+04  3.46590E+04 -2.61334E+03  3.96249E+04
 -2.35058E+04  3.26979E+04 -3.79792E+04  1.67082E+04 -3.94435E+04 -2.85678E+03 -3.25398E+04 -2.34843E+04
 -1.35992E+04 -3.32819E+04  1.19017E+04 -2.94857E+04  2.52902E+04 -1.45628E+04  2.21720E+04  6.89314E+03
  7.53617E+03  1.64067E+04 -1.04379E+04  1.46540E+04 -1.81625E+04  2.34419E+03 -1.39281E+04 -1.14983E+04
 -6.81344E+01 -1.73809E+04  9.35822E+03 -1.34959E+04  1.27108E+04 -4.68547E+02  1.67982E+03  7.81845E+03
 -7.85947E+03  3.59387E+03 -7.96112E+03 -6.77016E+03 -8.44540E+02 -1.59642E+04  1.03980E+04 -1.86446E+04
  2.03810E+04 -9.74744E+03  2.29684E+04  3.49724E+03  1.97796E+04  1.62857E+04  8.99305E+03  2.50274E+04
 -4.32689E+03  2.73157E+04 -1.75462E+04  1.73745E+04 -1.97727E+04  3.52952E+03 -1.33377E+04 -5.18952E+03
 -5.88574E+03 -6.01635E+03 -7.46460E+02 -1.60641E+02 -3.07638E+03  3.61291E+03 -6.97457E+03  4.09923E+03
 -1.28068E+04 -8.72543E+02 -1.31851E+04 -1.11715E+04 -5.32723E+03 -1.79736E+04  5.59378E+03 -1.37056E+04
  1.10341E+04 -5.62957E+03  7.51416E+03  4.17163E+03 -2.95403E+02  5.34855E+03 -6.26864E+03 -2.23135E+02
 -6.77018E+03 -9.50154E+03 -3.30299E+01 -1.28066E+04  7.81956E+03 -1.44792E+04  1.79536E+04 -7.77668E+03
  2.06820E+04  1.84791E+03  1.50755E+04  1.31057E+04  2.95305E+03  1.59929E+04 -8.35940E+03  1.37746E+04
 -1.10136E+04  3.42401E+03 -6.45234E+03 -2.92618E+03  2.02102E+03 -4.63643E+03  6.99168E+03 -1.28125E+03
  6.86210E+03  5.96184E+03  1.18331E+03  1.13163E+04 -7.54666E+03  1.06703E+04 -1.37452E+04  2.98012E+03
 -9.62294E+03 -7.00692E+03  6.33845E+02 -1.10473E+04  8.75323E+03 -6.11000E+03  7.94892E+03  2.49355E+03
  2.17156E+03  8.14172E+03 -6.62965E+03  1.07354E+04 -1.10477E+04  4.66884E+03 -1.11903E+04 -3.35318E+03
 -6.99594E+03 -1.29057E+04  3.39625E+03 -1.47536E+04  1.28274E+04 -9.68383E+03  1.43499E+04  2.45273E+03
  8.26207E+03  1.07559E+04 -1.32802E+03  1.40763E+04 -1.02708E+04  8.06244E+03 -1.06078E+04 -8.77912E+02
 -9.34119E+03 -8.67363E+03 -1.51851E+03 -1.07468E+04  5.05565E+03 -8.65506E+03  7.20258E+03 -3.31117E+03
  4.57561E+03  1.63379E+03 -5.67328E+02  1.81667E+03 -3.57732E+02 -2.17795E+03  1.70961E+03 -5.81067E+03
  9.81390E+03 -3.82233E+03  1.33665E+04  1.29322E+03  1.31115E+04  8.81758E+03  8.14055E+03  1.67745E+04
 -3.72448E+03  1.92288E+04 -1.60789E+04  1.47927E+04 -2.18742E+04  3.04613E+03 -1.63868E+04 -7.11852E+03
 -8.96393E+03 -1.40724E+04  2.93814E+02 -1.21853E+04  4.55862E+03 -7.03248E+03  4.85615E+03 -4.24202E+03
  2.95687E+03 -2.60736E+03  3.28466E+03 -3.77175E+03  4.94419E+03 -3.26134E+03  6.56095E+03 -1.00718E+03
  8.91861E+03  2.10540E+03  3.85324E+03  7.25768E+03 -1.85643E+03  8.73164E+03 -8.84121E+03  6.86374E+03
 -1.21944E+04 -9.17932E+02 -7.42804E+03 -8.45917E+03 -5.77989E+02 -1.28373E+04  6.90799E+03 -1.27250E+04
  1.31832E+04 -6.61921E+03  1.60839E+04  1.75692E+03  1.05051E+04  1.10481E+04  2.27113E+03  1.37066E+04
 -5.48802E+03  1.17543E+04 -8.00847E+03  3.90863E+03 -5.60926E+03 -1.53121E+03 -2.09884E+03 -1.90496E+03
 -1.35588E+03  5.34142E+02 -1.54358E+03  3.40596E+03 -5.32141E+03  1.58273E+03 -8.05493E+03 -4.46689E+02
 -5.56324E+03 -7.92602E+03  1.09438E+02 -1.13355E+04  7.16479E+03 -1.03415E+04  1.18589E+04 -2.94541E+03
  1.14797E+04  5.61462E+03  4.88805E+03  1.03968E+04 -2.90397E+03  1.14210E+04 -8.00395E+03  7.06315E+03
 -1.08846E+04  1.86199E+02 -8.88757E+03 -6.97805E+03 -1.39367E+03 -9.42433E+03  5.20709E+03 -7.53669E+03
  7.67521E+03 -2.58474E+03  4.70511E+03  2.03662E+03  1.79112E+03  3.22570E+03  7.33778E+02  1.62440E+03
  2.92601E+03  1.35626E+03  2.48667E+03  2.04312E+03  3.49234E+03  3.71704E+03  3.35167E+03  5.40845E+03
 -2.45364E+03  9.19763E+03 -7.97175E+03  1.01462E+04 -1.16090E+04  2.79551E+03 -1.23282E+04 -4.55464E+03
 -6.27643E+03 -1.16936E+04  2.02358E+03 -1.31525E+04  7.80851E+03 -9.09412E+03  9.91455E+03 -2.40782E+03
  7.35339E+03  4.02735E+03  1.19282E+03  6.35785E+03 -3.25750E+03  4.89100E+03 -4.36597E+03 -4.94095E+02
 -2.45931E+03 -5.57761E+03  2.76410E+03 -4.85179E+03  4.88027E+03 -2.66797E+03  4.67024E+03  8.20763E+02
  2.96156E+03  2.73167E+03  1.39134E+03  1.83446E+03 -2.63113E+02  1.54887E+03  1.74073E+03 -4.01570E+02
  1.51025E+03 -1.34265E+02  4.93260E+03  2.08868E+03  2.66156E+03  6.03601E+03 -9.89083E+02  8.92665E+03
 -5.58951E+03  4.83883E+03 -8.03409E+03  1.55204E+03 -6.71055E+03 -2.71547E+03 -1.67607E+03 -4.10834E+03
  1.40387E+03 -4.51660E+03  2.84605E+03 -2.73067E+03  2.32717E+03  2.23322E+03 -1.66705E+03  3.14910E+03
 -6.02556E+03  2.37497E+03 -5.22879E+03 -3.08224E+03 -2.55043E+03 -5.50161E+03  1.26733E+03 -6.42895E+03
  4.00449E+03 -3.62344E+03  4.46535E+03 -6.31250E+02  4.71989E+03  1.25490E+03  1.58094E+02  3.22339E+03
 -1.95798E+03  1.10687E+03 -2.30948E+03 -2.57362E+03  1.50922E+03 -4.51579E+03  5.91167E+03 -3.42921E+03
  6.54761E+03  8.26334E+02  6.31746E+03  4.18841E+03  2.57114E+03  7.66144E+03 -1.87533E+03  7.41533E+03
 -6.69363E+03  2.03415E+03 -5.58111E+03 -1.37036E+03 -3.33999E+03 -5.48222E+03  1.00337E+03 -4.07403E+03
  4.52289E+03 -3.04371E+03  3.65060E+03  2.16762E+03  1.38817E+03  3.68827E+03 -1.83610E+03  3.38631E+03
 -1.92626E+03  2.44843E+03 -1.51648E+03  4.44012E+02 -1.14018E+03  4.81139E+02 -4.41841E+02  1.90375E+03
 -1.43947E+03  2.23171E+03 -4.65069E+03  2.06767E+03 -6.95640E+03 -5.58567E+02 -7.23507E+03 -4.81891E+03
 -4.80814E+03 -9.64158E+03  2.12654E+03 -1.12263E+04  6.46154E+03 -8.38706E+03  1.08843E+04 -2.69035E+03
  9.89683E+03  1.81337E+03  5.89314E+03  7.01685E+03 -5.61267E+02  7.14909E+03 -2.82934E+03  5.42682E+03
 -3.60615E+03  3.01388E+03 -2.87818E+03 -8.19201E+02 -5.55121E+02 -1.97785E+02 -5.59506E+02  1.13920E+02
 -1.37583E+03  4.52372E+01 -1.25495E+03 -2.93241E+02 -5.82126E+02 -1.81968E+03  1.22965E+02 -2.71338E+03
  3.81589E+03 -2.40232E+03  4.22879E+03  2.31848E+02  5.45356E+03  3.96234E+03  1.35047E+03  7.65751E+03
 -3.13655E+03  9.06901E+03 -7.46888E+03  4.83418E+03 -9.68406E+03 -1.03911E+03 -6.21125E+03 -5.60308E+03
 -2.76771E+03 -7.55135E+03  1.66082E+03 -6.41693E+03  4.53584E+03 -3.17751E+03  4.87574E+03  1.21373E+02
  2.93924E+03  1.94593E+03  3.13894E+02  2.18171E+03 -1.86987E+03 -2.61921E+02 -7.35854E+02 -1.78693E+03
  1.38008E+03 -9.63914E+02  3.05283E+03  2.97204E+02  2.02075E+03  3.11811E+03  7.45384E+02  3.00139E+03
 -3.65442E+03  3.97909E+03 -4.81980E+03  6.31947E+02 -4.20403E+03 -3.00906E+03 -6.58063E+02 -5.68723E+03
  3.97647E+03 -5.20354E+03  5.30788E+03 -1.82272E+03  5.85621E+03  1.42861E+03  3.59065E+03  4.46226E+03
  3.91330E+02  4.12884E+03 -2.49867E+03  3.02871E+03 -3.11044E+03  2.19483E+03 -2.24376E+03  5.09116E+01
 -1.74034E+03  4.36366E+02 -8.40241E+02  8.69687E+02 -2.38275E+03  1.49018E+03 -3.17586E+03 -1.78772E+03
 -4.08249E+03 -1.93514E+03 -3.80163E+02 -3.73486E+03  2.24496E+03 -4.53547E+03  4.12784E+03 -2.05153E+03
  4.81874E+03  4.35497E+02  2.34121E+03  3.59588E+03 -2.69378E+02  4.34814E+03 -2.91197E+03  2.94495E+03
