 $NMID ID='MM_0lb_SNR400_17hz_g60_42.RAW', FMTDAT='(8E13.5)'
 TRAMP=1., VOLUME=1. $END
  3.10359E+05  5.60923E+02  3.37636E+05  2.50679E+05  8.50357E+04  3.37564E+05 -1.32853E+05  2.50978E+05
 -1.91025E+05  8.34466E+04 -1.11030E+05 -3.35503E+04  1.11301E+03 -4.99613E+04  5.37165E+04  4.73921E+02
  3.49713E+04  5.24350E+04 -1.64663E+04  7.50340E+04 -6.09524E+04  6.30042E+04 -8.37167E+04  3.22800E+04
 -8.05947E+04 -1.16191E+04 -5.70713E+04 -5.10938E+04 -1.52667E+04 -6.99065E+04  2.77627E+04 -4.52298E+04
  3.96743E+04  3.94934E+03  1.61087E+04  4.80037E+04 -3.51879E+04  4.74519E+04 -6.68147E+04 -4.52327E+01
 -5.29831E+04 -5.64345E+04 -6.61824E+03 -7.70265E+04  3.40193E+04 -5.54317E+04  4.76210E+04 -1.67962E+04
  4.31221E+04  1.12646E+04  3.09001E+04  2.47467E+04  1.54902E+04  2.94720E+04 -5.56109E+03  2.68653E+04
 -2.19391E+04  1.26551E+04 -1.82999E+04 -4.72685E+03  5.51443E+03 -7.26513E+03  2.24944E+04  1.18135E+04
  7.60422E+03  3.47313E+04 -3.19925E+04  3.51424E+04 -6.29819E+04  2.10168E+03 -5.65956E+04 -4.21181E+04
 -1.29732E+04 -6.36721E+04  4.00817E+04 -4.45130E+04  5.76039E+04 -2.55040E+03  3.37497E+04  3.14906E+04
 -5.88650E+03  3.54009E+04 -2.97956E+04  1.55280E+04 -2.97073E+04 -4.58432E+03 -1.67165E+04 -1.04416E+04
 -7.56613E+03 -1.33181E+04 -1.21432E+03 -1.78974E+04  7.13868E+03 -2.31766E+04  1.50810E+04 -1.30049E+04
  1.14165E+04  4.67658E+03 -7.78830E+03  1.31014E+04 -2.08615E+04 -4.37322E+03 -8.26473E+03 -3.29036E+04
  2.27114E+04 -4.26194E+04  4.76977E+04 -1.89100E+04  4.46270E+04  1.90544E+04  1.61133E+04  4.36521E+04
 -1.59238E+04  3.35553E+04 -2.53842E+04  1.71169E+03 -8.87427E+03 -2.75540E+04  2.07063E+04 -3.40560E+04
  4.06910E+04 -9.18855E+03  3.45437E+04  2.33576E+04  1.70572E+04  4.56725E+04 -8.20503E+03  4.93491E+04
 -3.11050E+04  3.28743E+04 -4.07290E+04  9.33033E+03 -4.16306E+04 -1.59982E+04 -2.23222E+04 -3.70608E+04
  7.10531E+03 -3.69112E+04  3.12666E+04 -1.42031E+04  2.89437E+04  1.06893E+04  3.85689E+03  1.86586E+04
 -1.36140E+04  8.30303E+03 -1.00487E+04 -7.37159E+03  5.88977E+03 -1.06951E+04  1.81728E+04  6.14811E+03
  1.35510E+04  2.20844E+04 -5.83357E+03  2.43308E+04 -2.20598E+04  1.06390E+04 -2.74095E+04 -5.12185E+03
 -1.93190E+04 -1.70490E+04 -8.12842E+03 -1.97808E+04  4.01113E+03 -1.79939E+04  1.45850E+04 -1.73141E+04
  2.50101E+04 -1.27726E+04  3.08152E+04  2.88111E+03  2.33486E+04  1.89612E+04  4.67099E+03  3.56969E+04
 -1.77893E+04  2.94111E+04 -2.75809E+04  9.85137E+03 -2.06316E+04 -1.02469E+04 -4.75450E+03 -1.41830E+04
  2.50200E+03 -2.82192E+03 -3.87647E+03  6.88037E+03 -1.53216E+04  5.03066E+03 -1.54705E+04 -6.33970E+03
 -1.00075E+04 -1.84420E+04  5.09352E+03 -2.08840E+04  1.42920E+04 -1.56160E+04  1.71080E+04 -1.90666E+03
  1.09489E+04  1.18417E+04 -6.55582E+02  1.75115E+04 -1.18838E+04  1.01977E+04 -1.79028E+04 -3.68614E+03
 -1.31971E+04 -1.56981E+04 -1.04471E+03 -2.16137E+04  1.00803E+04 -1.77711E+04  1.83064E+04 -7.73396E+03
  1.70048E+04  4.85417E+02  1.19724E+04  3.54491E+03  6.51016E+03  1.23838E+03  8.98047E+03 -1.64746E+03
  1.59979E+04  2.24921E+03  1.74835E+04  1.43734E+04  1.15597E+04  2.82379E+04 -3.38479E+03  3.18785E+04
 -1.82894E+04  2.47675E+04 -2.91499E+04  1.19271E+04 -2.99338E+04 -1.62028E+03 -2.61551E+04 -1.75307E+04
 -1.15172E+04 -2.49465E+04  8.49275E+03 -2.27351E+04  1.99669E+04 -1.24867E+04  1.78565E+04  4.45391E+03
  6.66537E+03  1.28494E+04 -8.90720E+03  1.23147E+04 -1.48687E+04  2.44782E+03 -1.23042E+04 -9.24641E+03
  3.32206E+01 -1.41833E+04  7.35411E+03 -1.08259E+04  9.24601E+03 -1.08582E+03  2.26517E+03  5.51071E+03
 -6.40087E+03  2.07355E+03 -4.54422E+03 -5.39295E+03  1.14557E+02 -1.21037E+04  9.63370E+03 -1.26471E+04
  1.47922E+04 -6.59135E+03  1.54756E+04  2.93184E+03  1.34454E+04  1.19174E+04  6.88776E+03  1.73264E+04
 -2.69624E+03  2.02658E+04 -1.26992E+04  1.19956E+04 -1.41978E+04  2.77033E+03 -1.01184E+04 -3.02959E+03
 -5.35375E+03 -4.14094E+03 -3.69552E+02  6.38575E+02 -2.16945E+03  2.05990E+03 -4.15807E+03  4.07633E+03
 -8.95779E+03 -7.67899E+02 -1.02189E+04 -8.37986E+03 -4.14014E+03 -1.29873E+04  4.64761E+03 -1.00290E+04
  7.81705E+03 -4.35637E+03  6.67148E+03  2.05510E+03  6.45745E+02  3.32688E+03 -4.62613E+03 -7.72463E+02
 -4.21071E+03 -6.80043E+03 -8.70819E+02 -9.05643E+03  5.05125E+03 -9.60044E+03  1.22240E+04 -4.68310E+03
  1.43793E+04  1.43515E+03  1.04560E+04  8.04893E+03  2.35601E+03  1.11770E+04 -6.80535E+03  9.96287E+03
 -8.04610E+03  3.07219E+03 -3.67660E+03 -1.70600E+03  1.25178E+03 -2.16805E+03  5.58626E+03 -7.57662E+02
  4.19104E+03  3.92539E+03  3.05556E+02  7.55554E+03 -5.22601E+03  7.23181E+03 -9.12741E+03  1.58813E+03
 -5.97650E+03 -5.12962E+03  9.05006E+01 -8.17667E+03  5.21143E+03 -3.76731E+03  4.67351E+03  7.87086E+02
  1.11093E+03  4.84258E+03 -5.25656E+03  6.09835E+03 -7.01482E+03  3.17147E+03 -6.62112E+03 -2.15234E+03
 -3.89311E+03 -8.04491E+03  1.42109E+03 -9.09694E+03  8.37783E+03 -5.83304E+03  8.51272E+03  1.80941E+03
  6.45487E+03  7.03280E+03 -4.11209E+02  9.35844E+03 -6.82514E+03  5.47920E+03 -6.93774E+03 -2.75888E+01
 -6.83256E+03 -5.99067E+03 -1.74786E+03 -6.69042E+03  3.43940E+03 -5.36307E+03  3.75465E+03 -3.14007E+03
  2.87436E+03  3.35419E+02  1.17003E+02  1.28591E+03  2.40711E+02 -2.28781E+02  5.65646E+02 -2.68972E+03
  5.42930E+03 -1.78476E+03  7.11863E+03  7.74545E+02  7.68923E+03  4.36632E+03  6.49469E+03  9.64285E+03
 -1.71431E+03  1.15473E+04 -9.68424E+03  8.49742E+03 -1.25359E+04  1.98996E+03 -9.82724E+03 -3.93862E+03
 -5.03768E+03 -8.11804E+03 -3.85108E+02 -7.08089E+03  2.07149E+03 -2.82455E+03  2.25229E+03 -2.26432E+03
  2.12568E+03 -2.15426E+03  2.45893E+03 -2.41121E+03  3.66314E+03 -1.64220E+03  4.44030E+03 -1.12713E+02
  5.68060E+03  1.80486E+03  2.19148E+03  4.04661E+03 -1.61423E+03  3.78849E+03 -5.49049E+03  3.33880E+03
 -6.35055E+03 -1.07969E+03 -2.57334E+03 -4.34885E+03  4.09080E+01 -7.04517E+03  4.25950E+03 -6.55473E+03
  6.71522E+03 -4.12288E+03  9.08339E+03  5.81451E+02  6.91405E+03  5.71297E+03  1.96838E+03  7.49678E+03
 -2.89762E+03  7.01322E+03 -4.58807E+03  2.29471E+03 -2.59727E+03 -1.49386E+03 -1.71032E+03 -8.21067E+02
 -5.40898E+02 -1.26456E+02 -1.25217E+03  2.17638E+03 -3.24050E+03  1.48707E+03 -4.67701E+03 -3.29393E+02
 -1.94088E+03 -5.06770E+03  9.46337E+02 -5.91453E+03  3.39888E+03 -5.45137E+03  5.46900E+03 -1.05077E+03
  5.67688E+03  2.99656E+03  2.60931E+03  4.07101E+03 -1.31143E+03  5.51315E+03 -3.49394E+03  3.81268E+03
 -5.17610E+03  8.96150E+02 -4.86035E+03 -3.10105E+03 -5.48308E+02 -4.74449E+03  1.85329E+03 -3.37705E+03
  3.16065E+03 -8.25328E+02  2.11338E+03  6.48276E+02  1.97724E+02  1.80441E+03  7.69313E+02  1.37210E+03
  1.88666E+03  7.66392E+02  1.20130E+03  7.25006E+02  1.80019E+03  2.33241E+03  1.70171E+03  2.42404E+03
 -1.96440E+03  3.98351E+03 -3.59243E+03  4.98253E+03 -4.66149E+03  1.75434E+03 -5.09342E+03 -1.52976E+03
 -2.56162E+03 -5.56665E+03  6.22134E+02 -5.62052E+03  2.95052E+03 -3.41924E+03  4.61511E+03 -9.59600E+02
  3.56442E+03  1.53271E+03  4.07903E+02  3.16089E+03 -6.81243E+02  1.62546E+03 -2.32456E+03 -4.11233E+02
 -8.90480E+02 -1.96501E+03  1.24613E+03 -1.57505E+03  2.09412E+03 -1.35792E+03  1.49313E+03  8.79535E+02
  1.34036E+03  5.68286E+02  1.23768E+03  3.51091E+02 -4.44555E+02  1.81539E+02  1.37939E+03 -9.65483E+02
 -4.35439E+01 -1.44615E+02  2.36675E+03  7.90456E+02 -1.52880E+02  2.88614E+03 -3.28641E+02  2.75232E+03
 -2.17666E+03  1.66679E+03 -2.10589E+03  6.21811E+02 -2.96409E+03 -5.19552E+02 -9.83909E+02 -1.59391E+03
  4.19457E+02 -1.41945E+03  1.52214E+03 -1.23813E+03  1.58801E+03  1.63445E+03 -8.35498E+02  1.78837E+03
 -2.32098E+03  6.54338E+02 -1.97825E+03 -1.40745E+03 -8.91410E+02 -2.55675E+03  1.86060E+02 -2.29062E+03
  1.07090E+03 -6.67921E+02  1.60197E+03  8.15018E+02  1.53067E+03 -3.52573E+02  3.58852E+02  1.45347E+03
 -6.02454E+02  8.31621E+02 -1.26807E+03 -4.85220E+01  4.48815E+02 -1.02920E+03  2.07656E+03 -1.11285E+03
  2.01000E+03  2.63419E+02  3.75355E+03  1.71858E+03  1.18955E+03  2.37371E+03 -2.40833E+02  2.60002E+03
 -1.81622E+03  7.54488E+02 -1.74515E+03 -9.76959E+01 -8.61546E+02 -1.00861E+03  6.99693E+02 -3.05069E+02
  1.88584E+03 -8.61992E+02  7.59732E+02  1.00489E+03  7.46443E+02  1.74256E+03  2.79691E+02  1.72240E+03
  1.91188E+02  7.57212E+02 -7.88101E+02  1.17780E+03  2.01150E+02  3.99245E+02 -9.35696E+02  8.58252E+02
 -7.90584E+02  9.87866E+02 -2.05163E+03  8.51170E+02 -2.00697E+03  2.27780E+02 -3.47345E+03 -1.25824E+03
 -1.46285E+03 -3.25258E+03  6.45472E+02 -3.94680E+03  1.40449E+03 -2.69021E+03  3.73644E+03 -1.17244E+03
  3.21764E+03 -1.68202E+02  1.89632E+03  1.61861E+03 -4.70330E+02  1.65117E+03 -1.14775E+03  1.51573E+03
 -1.78968E+03  1.23573E+03 -8.84049E+02 -4.65164E+02 -6.43504E+02  3.32585E+02 -6.32428E+02 -3.97170E+02
 -1.18549E+03  3.44640E+02 -6.05351E+02  3.80581E+02 -1.70768E+01 -1.17948E+03 -1.76356E+02 -1.53546E+03
  1.65292E+03 -1.41903E+03  1.24309E+03 -2.72118E+01  1.27509E+03  1.40274E+03 -5.50904E+02  1.99356E+03
 -9.94727E+02  3.12732E+03 -2.01865E+03  1.30654E+03 -2.03392E+03 -4.73971E+02 -1.96843E+03 -1.46805E+03
 -8.88711E+02 -1.76449E+03  1.90796E+02 -1.44397E+03  1.08667E+03 -1.08972E+03  9.26009E+02  3.29481E+02
  6.14200E+02  3.29680E+02  3.62442E+02  8.90724E+02 -3.53897E+02 -7.68299E+01 -2.98785E+02 -2.69820E+02
  7.27617E+01  3.89017E+02  6.00029E+02  3.85916E+02  9.50010E+01  1.45943E+02  9.15385E+02  5.65297E+02
 -4.30285E+02  1.16622E+03 -1.24089E+03  2.97343E+02 -1.04139E+03 -9.03683E+02 -1.97623E+02 -1.30789E+03
  8.91993E+02 -6.10718E+02  9.36435E+02 -2.96855E+02  1.41163E+03 -3.54885E+02  6.18616E+02  9.59125E+02
  7.57555E+02  1.19457E+03  1.18153E+02  6.53337E+02 -8.57900E+02  1.09077E+03 -8.18963E+02  4.43884E+02
  3.27370E+01 -1.06245E+02 -4.53292E+02  5.09353E+02 -5.13425E+02  1.31298E+02 -1.14572E+03 -1.37826E+02
 -9.26913E+02  4.51238E+02 -1.90122E+02 -1.06850E+03  7.21879E+02 -1.63307E+03  7.81982E+02 -7.03089E+02
  8.35498E+02  4.49551E+02  1.95565E+02  9.50962E+01  7.93420E+01  1.31144E+03 -1.21554E+02  9.58465E+02
