 $NMID ID='MM_0lb_SNR400_18hz_g45_23.RAW', FMTDAT='(8E13.5)'
 TRAMP=1., VOLUME=1. $END
  3.10330E+05  1.68796E+02  3.38157E+05  2.50164E+05  8.46494E+04  3.37414E+05 -1.32721E+05  2.50426E+05
 -1.90245E+05  8.23022E+04 -1.11188E+05 -3.29917E+04  1.29235E+03 -5.01156E+04  5.42024E+04  2.92196E+02
  3.49291E+04  5.29538E+04 -1.70877E+04  7.47742E+04 -5.98191E+04  6.26080E+04 -8.27683E+04  3.15364E+04
 -7.97630E+04 -1.13383E+04 -5.64463E+04 -5.00936E+04 -1.50012E+04 -6.85616E+04  2.65882E+04 -4.52668E+04
  3.96726E+04  3.55168E+03  1.54025E+04  4.69214E+04 -3.40320E+04  4.59784E+04 -6.54475E+04 -4.50792E+02
 -5.21693E+04 -5.57843E+04 -6.16358E+03 -7.57575E+04  3.31698E+04 -5.30703E+04  4.61566E+04 -1.64685E+04
  4.20679E+04  1.13165E+04  3.10687E+04  2.42669E+04  1.53308E+04  2.84670E+04 -4.72530E+03  2.63977E+04
 -2.15865E+04  1.27712E+04 -1.93333E+04 -4.27421E+03  4.59606E+03 -6.95137E+03  2.14904E+04  1.11310E+04
  7.54560E+03  3.30518E+04 -3.02157E+04  3.45538E+04 -6.06428E+04  2.18628E+03 -5.56759E+04 -4.06883E+04
 -1.24884E+04 -6.07143E+04  3.80349E+04 -4.35722E+04  5.60915E+04 -2.22606E+03  3.17752E+04  3.07840E+04
 -6.15945E+03  3.34264E+04 -2.86538E+04  1.30092E+04 -2.73125E+04 -4.68648E+03 -1.41778E+04 -9.51143E+03
 -7.23384E+03 -1.18549E+04 -6.54348E+02 -1.67096E+04  6.67286E+03 -2.22597E+04  1.47373E+04 -1.35193E+04
  1.22388E+04  4.23163E+03 -6.25714E+03  1.31564E+04 -1.91312E+04 -2.56960E+03 -7.45314E+03 -3.08458E+04
  2.06790E+04 -4.08013E+04  4.48146E+04 -1.85482E+04  4.14502E+04  1.84552E+04  1.42277E+04  4.18045E+04
 -1.54797E+04  3.11315E+04 -2.38608E+04  7.30866E+02 -8.21761E+03 -2.63731E+04  2.07756E+04 -3.09799E+04
  3.83140E+04 -8.01844E+03  3.11993E+04  2.30489E+04  1.51416E+04  4.21710E+04 -7.96666E+03  4.49656E+04
 -2.84575E+04  2.96357E+04 -3.71503E+04  8.60663E+03 -3.87929E+04 -1.49819E+04 -2.15941E+04 -3.46642E+04
  6.84264E+03 -3.45725E+04  2.90132E+04 -1.27736E+04  2.67086E+04  1.07919E+04  3.13459E+03  1.76036E+04
 -1.32196E+04  7.22034E+03 -9.47585E+03 -7.27364E+03  5.92961E+03 -9.96454E+03  1.70828E+04  6.33571E+03
  1.25333E+04  2.18570E+04 -7.38017E+03  2.38723E+04 -2.14487E+04  9.05909E+03 -2.54147E+04 -6.53137E+03
 -1.66850E+04 -1.68063E+04 -5.51585E+03 -1.67095E+04  3.53658E+03 -1.54895E+04  1.22701E+04 -1.43898E+04
  2.18221E+04 -1.13388E+04  2.84880E+04  1.06480E+03  2.17053E+04  1.70445E+04  3.40567E+03  3.25685E+04
 -1.61585E+04  2.77934E+04 -2.58887E+04  9.63952E+03 -1.95574E+04 -1.07858E+04 -3.77775E+03 -1.42728E+04
  2.34042E+03 -3.38640E+03 -2.86166E+03  5.68297E+03 -1.28649E+04  5.47247E+03 -1.36412E+04 -5.07129E+03
 -8.28929E+03 -1.55822E+04  4.53777E+03 -2.00581E+04  1.25891E+04 -1.41383E+04  1.52038E+04 -1.99814E+03
  9.23851E+03  1.08064E+04 -9.23468E+02  1.54230E+04 -1.06056E+04  8.65011E+03 -1.60904E+04 -3.45349E+03
 -1.16121E+04 -1.43878E+04 -1.86128E+03 -1.94269E+04  8.83426E+03 -1.58097E+04  1.64294E+04 -7.29947E+03
  1.42692E+04  8.99480E+02  1.02978E+04  4.07009E+03  4.99526E+03  8.54972E+02  7.65284E+03 -1.40763E+03
  1.39751E+04  2.75893E+03  1.50617E+04  1.30998E+04  9.16053E+03  2.46709E+04 -2.80080E+03  2.72843E+04
 -1.61541E+04  2.07637E+04 -2.49885E+04  1.01004E+04 -2.57294E+04 -1.54059E+03 -2.24266E+04 -1.41090E+04
 -9.41770E+03 -2.10945E+04  6.63096E+03 -1.93391E+04  1.65533E+04 -1.10012E+04  1.58499E+04  3.45202E+03
  6.47396E+03  1.12252E+04 -7.17768E+03  1.11168E+04 -1.38787E+04  3.01044E+03 -1.02866E+04 -8.16676E+03
  3.34376E+02 -1.38131E+04  6.37203E+03 -9.91027E+03  7.65096E+03 -1.64489E+03  1.56879E+03  4.96524E+03
 -5.61578E+03  1.66010E+03 -3.99358E+03 -4.70269E+03  2.61523E+02 -1.05047E+04  7.64036E+03 -1.02909E+04
  1.21976E+04 -4.20397E+03  1.21120E+04  2.91580E+03  1.07112E+04  9.58977E+03  5.53962E+03  1.52048E+04
 -1.14531E+03  1.61546E+04 -9.77218E+03  1.02786E+04 -1.11643E+04  2.30600E+03 -8.69157E+03 -1.80740E+03
 -5.41218E+03 -3.68037E+03 -8.73610E+02  1.57797E+03 -2.17783E+03  2.14704E+03 -3.57344E+03  3.56376E+03
 -7.78506E+03 -5.17152E+02 -8.68244E+03 -7.28404E+03 -3.39507E+03 -1.17922E+04  3.09474E+03 -8.92123E+03
  7.29940E+03 -3.99242E+03  5.23006E+03  1.88049E+03  8.09789E+01  3.05162E+03 -3.16287E+03 -2.05682E+02
 -3.33759E+03 -5.44455E+03 -6.80558E+02 -7.77300E+03  3.82725E+03 -7.72454E+03  1.00399E+04 -4.00054E+03
  1.22161E+04  2.90256E+02  9.16428E+03  6.48601E+03  1.59147E+03  8.84213E+03 -5.17565E+03  8.22270E+03
 -7.23615E+03  2.49479E+03 -3.61796E+03 -1.75320E+03  9.82692E+02 -1.99363E+03  5.18733E+03 -1.00977E+03
  3.98151E+03  3.17866E+03  1.39659E+03  6.00212E+03 -4.45436E+03  6.33453E+03 -8.14809E+03  1.42609E+03
 -5.17990E+03 -3.81013E+03  3.96407E+02 -7.15751E+03  3.75190E+03 -3.43803E+03  3.99848E+03  1.01299E+03
  4.43975E+02  3.30836E+03 -4.06944E+03  5.22209E+03 -4.81167E+03  2.07335E+03 -4.63202E+03 -1.55513E+03
 -2.80004E+03 -5.74786E+03  1.07465E+03 -7.20280E+03  6.36204E+03 -4.50614E+03  7.14555E+03  1.09454E+03
  4.16049E+03  6.00682E+03 -4.22969E+01  6.71767E+03 -4.63026E+03  4.48628E+03 -5.85045E+03 -4.95409E+02
 -5.39014E+03 -5.50397E+03 -1.20794E+03 -4.83110E+03  2.16361E+03 -4.94214E+03  3.07704E+03 -2.80579E+03
  2.77676E+03  6.02699E+02 -2.11505E+02  1.28161E+03  1.10552E+03 -2.04538E+02 -5.80577E+02 -2.34537E+03
  3.76990E+03 -1.98704E+02  5.44406E+03  4.14651E+02  6.52706E+03  3.36181E+03  5.15634E+03  7.44036E+03
 -1.27101E+03  9.11715E+03 -8.27601E+03  6.59569E+03 -9.98932E+03  1.31191E+03 -8.15147E+03 -3.32013E+03
 -4.09277E+03 -6.81302E+03 -5.23961E+02 -4.73081E+03  1.85814E+03 -2.55813E+03  2.06657E+03 -1.57521E+03
  1.11283E+03 -1.87873E+03  1.77972E+03 -2.34069E+03  3.24565E+03 -1.37956E+03  3.83976E+03  2.04523E+02
  4.29287E+03  1.45318E+03  1.42166E+03  3.64652E+03 -9.96829E+02  2.99465E+03 -4.23678E+03  2.85649E+03
 -5.04613E+03 -1.17275E+03 -2.07919E+03 -3.86102E+03  3.35680E+02 -5.34451E+03  3.61323E+03 -5.32884E+03
  5.38343E+03 -3.09780E+03  6.31155E+03  3.06042E+01  5.26290E+03  4.65057E+03  1.13239E+03  6.77955E+03
 -2.06465E+03  5.88941E+03 -3.65560E+03  1.77456E+03 -1.56803E+03 -1.21801E+03 -1.10452E+03 -7.01811E+02
 -6.44616E+02  8.61762E+02 -7.37453E+02  2.41430E+03 -2.55500E+03  8.31296E+02 -4.28052E+03 -1.52537E+02
 -2.12100E+03 -4.27783E+03  1.24137E+03 -4.61597E+03  2.74898E+03 -4.10879E+03  3.85868E+03 -1.17921E+03
  4.12555E+03  2.54668E+03  2.20326E+03  3.35267E+03 -5.70249E+02  4.99644E+03 -2.50664E+03  2.56692E+03
 -3.82722E+03  2.20143E+02 -3.99280E+03 -2.53810E+03  5.46985E+01 -3.21455E+03  1.27758E+03 -2.36489E+03
  2.83633E+03 -1.42219E+03  2.17469E+03  4.20860E+02  1.76058E+02  1.68739E+03  7.49922E+02  6.63044E+01
  1.97544E+03  7.33305E+02  7.73385E+02  8.63059E+02  7.37731E+02  1.93375E+03  9.11372E+02  1.90051E+03
 -1.75103E+03  2.85539E+03 -3.06908E+03  3.96874E+03 -3.34138E+03  1.59420E+03 -4.47726E+03 -5.22786E+02
 -1.97887E+03 -4.06994E+03  5.55770E+02 -5.18026E+03  1.98957E+03 -2.55310E+03  3.59051E+03 -8.86632E+02
  3.11614E+03  1.67295E+03  3.90440E+02  2.14068E+03 -1.17578E+03  1.67652E+03 -1.30137E+03  8.29494E+01
 -7.33572E+02 -1.79073E+03  7.27938E+02 -2.04580E+03  1.84080E+03 -8.28177E+02  1.18581E+03  1.52059E+02
  8.82228E+02  5.93858E+02  6.23621E+02  5.38539E+02 -2.94601E+02  1.22847E+03  2.16154E+03 -3.69000E+02
  3.16121E+01 -4.93962E+01  1.83548E+03  6.64377E+02  3.95335E+02  2.06112E+03 -1.50706E+02  3.01344E+03
 -1.68362E+03  7.92266E+02 -2.39833E+03  9.66412E+02 -2.76277E+03 -6.96276E+02 -4.01948E+02 -1.23246E+03
  3.49663E+02 -1.29233E+03  8.61837E+02 -9.18656E+02  9.56269E+02  1.36931E+03 -1.03521E+03  8.96959E+02
 -1.97560E+03  8.42601E+02 -4.98027E+02 -1.54940E+03 -6.53213E+02 -1.96174E+03 -5.02575E+01 -1.46812E+03
  2.92642E+02 -2.80070E+02  5.14055E+02  4.65394E+02  1.48704E+03 -2.21578E+02  3.22604E+02  1.13842E+03
 -3.69025E+02 -2.58969E+02 -5.98630E+02 -2.78424E+02  9.21948E+02 -8.76345E+02  1.98917E+03 -7.92742E+02
  1.33491E+03  4.92970E+02  2.79713E+03  7.51221E+02  8.77794E+02  1.63643E+03 -7.10610E+02  1.55895E+03
 -1.17286E+03 -8.29375E+01 -1.63241E+03 -5.29868E+01 -7.97501E+02 -1.56653E+03  7.89537E+02 -5.19906E+02
  1.45517E+03 -6.38783E+02  1.14922E+03  8.98199E+01  5.29483E+02  1.23643E+03 -3.62274E+02  6.75998E+02
 -5.23846E+01  1.43843E+03  1.03730E+02  1.86764E+02 -3.86619E+02  4.78245E+02 -3.51602E+02  8.84736E+02
 -9.69323E+02  1.53044E+03 -1.79635E+03  5.39105E+02 -1.96014E+03  1.53449E+01 -2.71954E+03 -8.99806E+02
 -1.23523E+03 -2.23203E+03  8.05109E+02 -3.56042E+03  1.37467E+03 -2.10903E+03  2.81996E+03 -1.63618E+03
  1.97281E+03  3.08291E+02  1.52582E+03  1.13941E+03 -6.91262E+02  1.47543E+03 -4.69242E+02  1.42554E+03
 -1.04780E+03  5.36215E+02 -1.03822E+03  1.65168E+02 -6.12162E+02  3.52906E+02 -1.19957E+03  1.03339E+02
 -1.12045E+03 -5.03511E+02 -1.22547E+03 -3.26101E+02  2.57508E+02 -1.57134E+02 -6.44831E+02 -4.97185E+02
  1.35366E+03 -7.85818E+02  4.03791E+02 -8.06179E+01  8.81109E+02  6.93382E+02 -2.20005E+02  1.93316E+03
 -1.08018E+03  2.42950E+03 -1.97721E+03  1.84983E+03 -2.38128E+03 -1.82106E+02 -1.04549E+03 -1.35823E+03
 -9.48761E+02 -1.28295E+03  7.93725E+02 -1.85121E+03  7.66704E+01 -6.60251E+02  1.01755E+03  7.20566E+01
  1.29153E+03  2.94323E+01  3.10104E+02  4.14298E+02 -7.07877E+02 -4.59309E+02 -3.36572E+02 -7.05126E+02
  8.34793E+02  1.82316E+02  2.80644E+02  8.09320E+02 -6.47053E+01  8.88853E+02  2.68755E+02  3.52530E+02
 -5.87605E+02  6.21737E+02 -6.61922E+02  1.77265E+02 -9.86166E+02 -5.08524E+02  1.78288E+02 -1.18525E+03
  8.67531E+02 -1.12728E+03  2.67342E+02  4.21421E+00  1.01294E+03 -8.83880E+02  5.77251E+02  7.66296E+02
  1.42045E+02  7.99014E+02 -7.75796E+02  6.36930E+02 -1.51558E+02  8.31078E+02 -7.12592E+02 -2.92393E+01
 -5.19981E+02  4.36373E+01 -5.41726E+02 -2.13273E+02 -6.87270E+02  3.03656E+02 -5.98967E+02 -6.66810E+01
 -1.06735E+03 -4.28712E+01 -6.63728E+02 -1.42922E+03  8.00730E+02 -1.03024E+03  3.56646E+02 -2.09508E+02
  3.35080E+02 -4.95255E+02 -4.38102E+02 -3.57635E+02  4.11608E+02  7.14721E+02  2.80250E+01  7.01096E+02
