 $NMID ID='MM_0lb_SNR400_19hz_g40_97.RAW', FMTDAT='(8E13.5)'
 TRAMP=1., VOLUME=1. $END
  3.09826E+05  5.28994E+02  3.36824E+05  2.49912E+05  8.37814E+04  3.37039E+05 -1.32079E+05  2.49696E+05
 -1.89190E+05  8.20482E+04 -1.10960E+05 -3.28176E+04  1.59885E+03 -5.00595E+04  5.43514E+04  6.87182E+02
  3.52067E+04  5.25747E+04 -1.70046E+04  7.44281E+04 -6.03345E+04  6.30717E+04 -8.23313E+04  3.11715E+04
 -7.93948E+04 -1.12607E+04 -5.61741E+04 -4.99462E+04 -1.48970E+04 -6.77491E+04  2.65297E+04 -4.48396E+04
  3.87790E+04  3.76719E+03  1.50516E+04  4.71248E+04 -3.38103E+04  4.56429E+04 -6.49671E+04 -6.82686E+02
 -5.17225E+04 -5.61399E+04 -6.23778E+03 -7.44798E+04  3.30308E+04 -5.24328E+04  4.57087E+04 -1.59642E+04
  4.09911E+04  1.10921E+04  3.03447E+04  2.40181E+04  1.63664E+04  2.84837E+04 -4.47745E+03  2.64489E+04
 -2.12704E+04  1.31316E+04 -1.95090E+04 -3.90549E+03  3.85621E+03 -7.63141E+03  2.10295E+04  1.04140E+04
  7.63641E+03  3.29875E+04 -2.98999E+04  3.40075E+04 -6.05307E+04  1.52625E+03 -5.45894E+04 -4.06809E+04
 -1.16492E+04 -5.98197E+04  3.77563E+04 -4.28470E+04  5.46323E+04 -1.25601E+03  3.06596E+04  3.02442E+04
 -7.10203E+03  3.22590E+04 -2.79871E+04  1.24686E+04 -2.63102E+04 -5.34714E+03 -1.37453E+04 -1.01423E+04
 -7.12228E+03 -1.13434E+04 -9.60413E+02 -1.60217E+04  6.13626E+03 -2.26550E+04  1.48565E+04 -1.41279E+04
  1.26917E+04  4.09251E+03 -5.44156E+03  1.27973E+04 -1.90518E+04 -1.79231E+03 -8.17870E+03 -2.93949E+04
  2.00868E+04 -3.95150E+04  4.38899E+04 -1.79463E+04  4.14464E+04  1.77562E+04  1.40924E+04  4.04230E+04
 -1.52632E+04  3.07800E+04 -2.30911E+04  1.03807E+03 -7.17675E+03 -2.60591E+04  1.99937E+04 -3.05436E+04
  3.70938E+04 -6.55414E+03  3.05162E+04  2.23635E+04  1.45733E+04  4.12876E+04 -8.03621E+03  4.39177E+04
 -2.74716E+04  2.89523E+04 -3.60798E+04  8.32731E+03 -3.72751E+04 -1.53332E+04 -2.07088E+04 -3.33628E+04
  6.88912E+03 -3.29740E+04  2.83966E+04 -1.19492E+04  2.62682E+04  1.06762E+04  2.67015E+03  1.76534E+04
 -1.27596E+04  7.15763E+03 -9.14265E+03 -7.59826E+03  5.85109E+03 -9.88279E+03  1.69233E+04  6.94808E+03
  1.26786E+04  2.15761E+04 -6.33153E+03  2.31602E+04 -2.10090E+04  8.06280E+03 -2.41196E+04 -6.66701E+03
 -1.56054E+04 -1.60584E+04 -4.69624E+03 -1.57094E+04  3.70368E+03 -1.28305E+04  1.17020E+04 -1.32062E+04
  2.01270E+04 -1.12702E+04  2.66812E+04  8.27189E+02  2.02883E+04  1.51518E+04  4.13922E+03  3.15624E+04
 -1.54427E+04  2.68489E+04 -2.49714E+04  8.84988E+03 -1.96774E+04 -1.03070E+04 -4.52937E+03 -1.31729E+04
  3.10350E+03 -4.49704E+03 -2.09141E+03  4.61258E+03 -1.21769E+04  5.28215E+03 -1.33044E+04 -4.63256E+03
 -7.98915E+03 -1.46901E+04  4.03983E+03 -1.84085E+04  1.20151E+04 -1.34299E+04  1.37638E+04 -1.18347E+03
  8.63119E+03  1.01349E+04 -1.23056E+03  1.51524E+04 -9.82908E+03  8.34950E+03 -1.46280E+04 -3.31991E+03
 -1.08548E+04 -1.35354E+04 -1.27392E+03 -1.79897E+04  8.41534E+03 -1.47861E+04  1.55105E+04 -6.31385E+03
  1.32441E+04  4.89477E+02  1.00117E+04  4.31621E+03  4.92088E+03  2.66960E+02  6.98670E+03 -1.21427E+03
  1.30098E+04  2.66550E+03  1.37638E+04  1.22044E+04  8.42856E+03  2.37272E+04 -2.90560E+03  2.46187E+04
 -1.52360E+04  1.90803E+04 -2.28925E+04  8.39318E+03 -2.31612E+04 -1.57369E+03 -1.97535E+04 -1.34593E+04
 -9.46763E+03 -1.87550E+04  6.05062E+03 -1.75522E+04  1.58211E+04 -1.00854E+04  1.52530E+04  3.26435E+03
  6.51396E+03  1.02575E+04 -7.07224E+03  9.91669E+03 -1.24324E+04  2.32184E+03 -1.03958E+04 -7.40458E+03
 -1.10384E+02 -1.20704E+04  5.55645E+03 -9.26436E+03  7.52146E+03 -1.06705E+03  1.65770E+03  4.73765E+03
 -5.48561E+03  1.26190E+03 -3.58002E+03 -4.04573E+03  5.20110E+02 -9.57882E+03  8.20657E+03 -9.19263E+03
  1.13027E+04 -4.10959E+03  1.07786E+04  2.95078E+03  9.10211E+03  8.91277E+03  4.34458E+03  1.27075E+04
 -1.55397E+03  1.42124E+04 -8.95230E+03  9.18170E+03 -1.04886E+04  2.85234E+03 -7.29141E+03 -1.45664E+03
 -4.82135E+03 -3.25669E+03 -1.05547E+03  2.14983E+03 -2.13301E+03  1.93225E+03 -3.59887E+03  3.17265E+03
 -7.42054E+03 -3.07201E+02 -8.38038E+03 -7.10562E+03 -3.48027E+03 -1.05190E+04  2.80744E+03 -8.13591E+03
  6.98162E+03 -3.55007E+03  4.61368E+03  2.26182E+03  5.47544E+02  3.19958E+03 -2.88917E+03 -2.24656E+02
 -2.80859E+03 -4.95571E+03 -9.41010E+02 -6.81437E+03  4.08251E+03 -7.13051E+03  9.40662E+03 -4.04485E+03
  1.04918E+04  8.96178E+02  8.19997E+03  5.33627E+03  1.63223E+03  7.91443E+03 -4.82289E+03  7.47740E+03
 -6.28168E+03  2.57053E+03 -3.43188E+03 -1.34093E+03  8.88508E+02 -1.43348E+03  4.41263E+03 -1.02089E+03
  3.49768E+03  2.78235E+03  1.36781E+03  5.81102E+03 -3.82657E+03  6.19788E+03 -7.07758E+03  1.63526E+03
 -4.35081E+03 -3.40094E+03  4.66456E+01 -6.38693E+03  3.76839E+03 -3.06951E+03  3.13126E+03  4.52701E+02
  1.26560E+02  3.19527E+03 -3.61106E+03  4.49540E+03 -4.39812E+03  2.44338E+03 -3.86842E+03 -7.82805E+02
 -2.58565E+03 -5.29945E+03  9.54396E+02 -6.05075E+03  5.13168E+03 -4.37540E+03  5.57045E+03  5.13088E+02
  4.48573E+03  4.86534E+03 -1.53726E+02  6.86000E+03 -4.72056E+03  3.43374E+03 -4.98941E+03 -8.33731E+02
 -5.90694E+03 -4.04641E+03 -1.64665E+03 -4.58514E+03  1.94550E+03 -4.52332E+03  2.14675E+03 -2.39058E+03
  3.02217E+03  3.99693E+02 -3.86939E+01  1.27924E+03  3.38383E+02 -4.06619E+02 -4.57515E+01 -1.24484E+03
  2.97677E+03 -5.21315E+02  4.64842E+03  2.76342E+02  5.72721E+03  2.61587E+03  5.48132E+03  6.73286E+03
 -9.66866E+02  8.37404E+03 -7.52192E+03  5.90187E+03 -8.92146E+03  1.12274E+03 -7.03633E+03 -2.53776E+03
 -3.75455E+03 -6.22824E+03 -6.53126E+01 -4.63779E+03  1.93409E+03 -2.31964E+03  1.24740E+03 -1.63180E+03
  9.04146E+02 -1.77877E+03  1.70655E+03 -1.91232E+03  3.82804E+03 -9.48080E+02  3.74401E+03  8.59434E+02
  4.41861E+03  8.13631E+02  9.33663E+02  3.20566E+03 -1.06923E+03  2.69079E+03 -3.77091E+03  2.45252E+03
 -4.45124E+03 -1.48033E+03 -1.60612E+03 -2.76697E+03  2.23928E+02 -4.18555E+03  3.12052E+03 -4.97472E+03
  4.30776E+03 -3.33219E+03  6.38072E+03  1.66362E+01  4.42861E+03  3.76993E+03  1.12424E+03  5.16114E+03
 -1.63676E+03  5.71734E+03 -3.00323E+03  1.84057E+03 -1.37366E+03 -6.04930E+02 -1.94014E+02 -6.73494E+02
 -4.85250E+02  6.03713E+02 -9.53643E+02  1.86538E+03 -2.07076E+03  1.50293E+03 -3.93985E+03 -6.55810E+02
 -1.83227E+03 -3.62104E+03  7.18702E+02 -4.36422E+03  2.10815E+03 -3.85815E+03  2.64255E+03 -1.17653E+03
  2.93078E+03  2.20726E+03  1.40954E+03  3.47752E+03 -6.27611E+02  4.21449E+03 -2.05562E+03  2.08970E+03
 -3.70548E+03  7.84029E+02 -2.82250E+03 -2.01068E+03 -1.08627E+02 -2.98407E+03  1.76775E+03 -2.35312E+03
  2.62757E+03 -1.67266E+03  1.87555E+03  2.91490E+02  1.72514E+02  1.54589E+03  4.62211E+02  1.98767E+02
  1.45387E+03  5.26510E+02  9.97323E+02  1.15139E+03  8.94530E+02  1.99612E+03  1.41423E+03  1.19498E+03
 -1.79266E+03  2.36649E+03 -2.46962E+03  3.69311E+03 -2.78940E+03  1.20711E+03 -3.72247E+03 -2.31555E+02
 -1.16459E+03 -3.54319E+03  6.23625E+02 -4.66528E+03  1.57794E+03 -2.46467E+03  2.88268E+03 -9.14352E+02
  2.24232E+03  1.76331E+03 -1.59042E+02  2.22554E+03 -5.52154E+02  9.32589E+02 -6.57423E+02 -5.72441E+02
 -4.43092E+02 -1.41894E+03  1.07212E+03 -1.63129E+03  1.32468E+03 -4.37509E+02  9.55412E+02  2.96258E+02
  6.69873E+02  2.45723E+02  9.86144E+02 -1.29467E+02 -1.27143E+02  4.53832E+02  1.82476E+03 -2.30105E+02
 -1.81623E+02  1.12806E+02  1.82831E+03  7.69753E+02  2.73192E+02  2.23824E+03 -1.57682E+02  2.93157E+03
 -1.71153E+03  7.63918E+02 -1.70946E+03  8.76288E+01 -1.15477E+03 -4.91321E+02 -3.51605E+01 -1.23537E+03
  3.75723E+02 -1.24986E+03  9.37308E+02 -1.07619E+03  4.16146E+02  1.24961E+03 -6.82401E+02  6.66040E+02
 -1.31891E+03  5.76114E+02 -1.00027E+03 -2.17561E+03 -8.72903E+02 -2.07795E+03 -3.44314E+02 -1.62925E+03
  4.30617E+02 -4.49563E+02  9.25150E+02  2.01370E+02  5.16258E+02 -3.69761E+01 -1.98649E+02  9.94407E+02
 -3.86065E+02 -3.47941E+02 -6.66468E+02 -2.25342E+02  4.48142E+02 -6.79744E+02  1.68080E+03 -1.11752E+03
  8.45756E+02  3.63474E+02  2.19812E+03  4.79857E+02  9.24584E+02  1.40699E+03 -4.31978E+02  2.05291E+03
 -9.95879E+02  1.00306E+02 -1.26610E+03  2.46429E+02 -1.14661E+03 -1.17068E+03  7.51360E+02 -2.41813E+02
  1.44747E+03 -7.34075E+02  6.22376E+02  7.29557E+02 -1.72609E+02  1.08160E+03  6.13121E+02  8.02410E+02
 -4.15899E+01  1.33852E+03 -6.72742E+02  4.71213E+02  4.40539E+01  4.11528E+02 -8.27963E+02  1.40161E+02
 -2.40996E+02  9.18996E+02 -1.49810E+03  3.33875E+02 -1.47311E+03  4.99145E+02 -2.48534E+03 -9.67253E+02
 -7.30931E+02 -2.11920E+03  5.34554E+02 -2.63559E+03  1.15428E+03 -2.33640E+03  2.36705E+03 -8.74283E+02
  2.04305E+03 -2.57629E+02  1.33770E+02  1.27211E+03 -1.94161E+02  9.92845E+02 -5.75046E+02  1.22774E+03
 -8.58828E+02  9.96506E+02 -3.66798E+02  2.78630E+01 -8.36266E+02  7.23206E+02 -5.00364E+02  2.40323E+02
 -1.13340E+03 -1.87747E+02 -8.24003E+02  2.11320E+02  3.19034E+02 -4.24269E+02 -8.54107E+02 -4.28878E+02
  1.79859E+03 -7.25441E+02  1.62442E+02 -1.57358E+02  1.34997E+03  8.83592E+02 -6.82595E+02  9.40411E+02
 -1.13957E+03  2.20483E+03 -2.00831E+03  1.42071E+03 -1.61591E+03 -3.48394E+02 -8.35795E+02 -8.48191E+02
 -8.91128E+02 -1.90214E+03  1.10494E+02 -8.33087E+02  4.26627E+02 -9.82931E+02  8.97992E+02 -9.80586E+01
  3.89512E+02  4.27241E+02 -1.51846E+01  9.55165E+01 -4.24596E+02  2.65545E+02  4.96896E+01 -1.01468E+02
  7.13194E+01  5.36250E+02  2.46350E+02  2.10723E+02 -2.15211E+02  3.49318E+02  5.10156E+02  2.32148E+02
 -7.94175E+02  4.21016E+02 -6.96410E+02  4.05381E+02 -9.63410E+02 -5.94718E+00 -5.05913E+01 -8.34772E+02
  1.06063E+03 -1.03643E+03  7.67357E+02  2.49293E+00  5.61511E+02 -7.13185E+02  5.52015E+02  8.63994E+02
  5.84585E+02  1.80126E+02 -4.88812E+01  9.64602E+02 -6.40748E+02  6.65963E+02  1.76972E+01  3.66018E+02
  1.39922E+02 -4.10833E+02 -7.64543E+02  1.11085E+02 -4.48585E+02 -2.57854E+02 -4.21765E+02 -4.97596E+01
 -6.34403E+02  2.92428E+02 -2.44553E+02 -1.30768E+03  7.29259E+02 -9.15880E+02  3.65581E+02 -8.01823E+01
  3.21059E+02 -4.09888E+00 -5.37419E+02  8.32338E+02 -3.30934E+02  7.95401E+02 -6.89525E+02  8.50591E+02
