 $NMID ID='MM_0lb_SNR400_19hz_g50_69.RAW', FMTDAT='(8E13.5)'
 TRAMP=1., VOLUME=1. $END
  3.09784E+05  6.46353E+02  3.37625E+05  2.51058E+05  8.38118E+04  3.37313E+05 -1.32538E+05  2.50174E+05
 -1.90097E+05  8.24683E+04 -1.11647E+05 -3.25527E+04  1.38430E+03 -5.05325E+04  5.39234E+04  5.44378E+02
  3.50702E+04  5.30605E+04 -1.71302E+04  7.51849E+04 -6.07034E+04  6.30786E+04 -8.27500E+04  3.11713E+04
 -7.97968E+04 -1.14865E+04 -5.69610E+04 -5.05356E+04 -1.47606E+04 -6.91663E+04  2.62741E+04 -4.50502E+04
  3.92907E+04  3.88552E+03  1.53591E+04  4.68649E+04 -3.38415E+04  4.66869E+04 -6.57961E+04 -8.57200E+02
 -5.16095E+04 -5.59092E+04 -6.48415E+03 -7.50936E+04  3.32297E+04 -5.32365E+04  4.66864E+04 -1.65135E+04
  4.17496E+04  1.10499E+04  3.06871E+04  2.45314E+04  1.56854E+04  2.80625E+04 -4.76833E+03  2.70203E+04
 -2.14370E+04  1.29340E+04 -1.89789E+04 -3.95036E+03  4.79695E+03 -8.07146E+03  2.07287E+04  1.07747E+04
  7.57437E+03  3.30733E+04 -3.02903E+04  3.41588E+04 -6.07654E+04  1.69666E+03 -5.52064E+04 -4.09412E+04
 -1.19491E+04 -6.09932E+04  3.81255E+04 -4.33690E+04  5.57064E+04 -2.19056E+03  3.16732E+04  3.03682E+04
 -6.89708E+03  3.30187E+04 -2.81417E+04  1.41697E+04 -2.77429E+04 -5.43757E+03 -1.46432E+04 -1.05871E+04
 -7.15382E+03 -1.14269E+04 -1.39767E+03 -1.58532E+04  6.17242E+03 -2.32878E+04  1.53261E+04 -1.37075E+04
  1.18708E+04  3.60784E+03 -6.68885E+03  1.27495E+04 -1.91714E+04 -2.55590E+03 -7.83839E+03 -3.08715E+04
  2.11313E+04 -4.01796E+04  4.43545E+04 -1.85676E+04  4.20231E+04  1.79196E+04  1.40303E+04  4.17420E+04
 -1.51149E+04  3.13023E+04 -2.36122E+04  1.30028E+03 -8.88109E+03 -2.63901E+04  2.05778E+04 -3.11716E+04
  3.85305E+04 -7.32732E+03  3.12180E+04  2.22729E+04  1.54184E+04  4.21092E+04 -7.54198E+03  4.53625E+04
 -2.87214E+04  3.02443E+04 -3.71848E+04  8.26595E+03 -3.81400E+04 -1.55683E+04 -2.19914E+04 -3.47920E+04
  7.17776E+03 -3.39865E+04  2.89036E+04 -1.31794E+04  2.69866E+04  1.09927E+04  2.95050E+03  1.81099E+04
 -1.26339E+04  7.05024E+03 -9.21547E+03 -7.21369E+03  6.78553E+03 -9.93329E+03  1.74237E+04  6.72150E+03
  1.25874E+04  2.12548E+04 -7.51606E+03  2.33918E+04 -2.09317E+04  9.13068E+03 -2.50516E+04 -6.50292E+03
 -1.63493E+04 -1.65540E+04 -5.91714E+03 -1.67845E+04  3.62136E+03 -1.45224E+04  1.25530E+04 -1.39385E+04
  2.13143E+04 -1.18731E+04  2.82621E+04  1.29950E+03  2.13073E+04  1.66958E+04  4.33667E+03  3.22760E+04
 -1.59937E+04  2.77974E+04 -2.57774E+04  9.38476E+03 -1.97580E+04 -9.61865E+03 -4.39165E+03 -1.36887E+04
  2.63793E+03 -4.77752E+03 -2.46360E+03  5.47176E+03 -1.33877E+04  5.62187E+03 -1.28219E+04 -4.97188E+03
 -8.67885E+03 -1.47763E+04  4.14944E+03 -1.93390E+04  1.24801E+04 -1.39171E+04  1.48827E+04 -1.07586E+03
  9.58315E+03  1.04209E+04 -4.94477E+02  1.57346E+04 -1.01639E+04  8.87153E+03 -1.51844E+04 -3.78393E+03
 -1.17343E+04 -1.35208E+04 -1.47584E+03 -1.89367E+04  8.27991E+03 -1.60858E+04  1.57986E+04 -7.46602E+03
  1.43537E+04  4.25828E+02  1.02429E+04  3.63729E+03  5.17857E+03  7.53192E+02  7.29729E+03 -1.54918E+03
  1.40221E+04  2.03145E+03  1.46775E+04  1.24298E+04  9.02103E+03  2.45485E+04 -2.99840E+03  2.60006E+04
 -1.58482E+04  2.01092E+04 -2.38822E+04  9.62479E+03 -2.42167E+04 -1.42067E+03 -2.11175E+04 -1.36243E+04
 -1.05132E+04 -2.03641E+04  5.82997E+03 -1.86871E+04  1.66112E+04 -1.10913E+04  1.61823E+04  2.87371E+03
  5.39154E+03  1.07860E+04 -6.60804E+03  1.07113E+04 -1.32415E+04  2.81295E+03 -1.02335E+04 -8.17743E+03
  6.43961E+02 -1.22544E+04  6.01426E+03 -9.21621E+03  7.54676E+03 -1.10560E+03  1.32542E+03  5.03577E+03
 -4.85501E+03  1.11290E+03 -3.63120E+03 -4.18150E+03  8.89059E+02 -9.78689E+03  7.36713E+03 -9.94185E+03
  1.24672E+04 -5.11128E+03  1.15941E+04  2.79809E+03  1.00549E+04  9.53340E+03  4.97586E+03  1.38463E+04
 -1.94511E+03  1.56255E+04 -9.91989E+03  9.96299E+03 -1.09278E+04  3.09068E+03 -8.37596E+03 -2.15381E+03
 -4.01444E+03 -2.80570E+03 -5.90471E+02  7.36970E+02 -1.90926E+03  1.54271E+03 -3.47060E+03  3.36585E+03
 -8.03344E+03 -5.09637E+02 -8.48585E+03 -7.17209E+03 -3.48132E+03 -1.13867E+04  3.78109E+03 -8.19908E+03
  6.92601E+03 -3.52536E+03  5.08955E+03  2.00275E+03  6.36949E+02  2.74290E+03 -3.15488E+03 -1.40782E+02
 -3.18046E+03 -5.18183E+03 -1.04512E+03 -7.30750E+03  3.76818E+03 -7.82490E+03  9.89765E+03 -4.57267E+03
  1.17631E+04  9.05332E+02  8.94112E+03  6.20245E+03  2.07005E+03  8.70729E+03 -4.57774E+03  8.13009E+03
 -6.63840E+03  2.88316E+03 -3.20662E+03 -8.77890E+02  1.36923E+03 -1.46066E+03  4.78019E+03 -1.24863E+03
  4.18897E+03  3.36218E+03  1.40449E+03  6.34431E+03 -3.94506E+03  5.99852E+03 -7.38573E+03  1.79544E+03
 -4.47886E+03 -3.47229E+03  9.21529E+02 -6.96434E+03  3.55884E+03 -2.98918E+03  3.74352E+03  8.02245E+02
  6.39712E+02  3.11221E+03 -4.44243E+03  4.51263E+03 -4.71138E+03  2.18357E+03 -4.47994E+03 -1.30370E+03
 -2.87660E+03 -5.49674E+03  6.19922E+02 -6.25451E+03  5.15539E+03 -3.98337E+03  6.20308E+03  8.85576E+02
  4.56487E+03  5.88183E+03  4.11606E+02  6.95116E+03 -4.77741E+03  4.24039E+03 -5.20187E+03 -6.73499E+02
 -5.50422E+03 -5.23230E+03 -1.48692E+03 -4.72413E+03  2.29201E+03 -4.16140E+03  3.07351E+03 -2.75067E+03
  3.08010E+03 -1.80476E+02  1.82564E+02  1.02100E+03  2.62507E+02  2.73139E+02  1.88639E+02 -1.93162E+03
  3.99084E+03 -8.22122E+02  4.95142E+03  7.75649E+02  5.51044E+03  2.66625E+03  5.20154E+03  6.70504E+03
 -1.27289E+03  8.28580E+03 -7.53160E+03  6.54870E+03 -9.29936E+03  7.78135E+02 -7.55837E+03 -2.40874E+03
 -4.39966E+03 -6.35459E+03 -4.03204E+02 -4.88840E+03  2.02961E+03 -1.93938E+03  1.58867E+03 -2.24232E+03
  9.56279E+02 -1.78695E+03  2.16901E+03 -3.02008E+03  3.06256E+03 -1.28757E+03  3.65168E+03  7.46822E+02
  4.26543E+03  1.84764E+03  7.24029E+02  3.16296E+03 -1.22762E+03  2.58733E+03 -3.93423E+03  2.18150E+03
 -4.11682E+03 -6.55541E+02 -1.82969E+03 -3.26448E+03  6.74295E+02 -4.48399E+03  3.19443E+03 -5.18547E+03
  4.47788E+03 -2.79351E+03  6.45336E+03  9.95751E+01  5.03610E+03  3.27323E+03  7.53629E+02  6.00857E+03
 -1.57562E+03  5.37747E+03 -3.27082E+03  1.77129E+03 -1.95273E+03 -6.29477E+02 -5.48149E+02 -8.38832E+02
 -1.96235E+02  7.29687E+02 -1.50760E+03  2.04877E+03 -2.58547E+03  8.30628E+02 -3.54937E+03 -5.87296E+02
 -9.99328E+02 -3.74701E+03  8.28127E+02 -4.47874E+03  2.62397E+03 -3.96315E+03  3.46630E+03 -1.04463E+03
  3.71532E+03  2.48672E+03  1.94566E+03  3.13031E+03 -7.87120E+02  4.33799E+03 -2.38787E+03  2.84396E+03
 -3.94974E+03  2.55585E+02 -3.39668E+03 -2.35561E+03 -6.47987E+01 -3.06950E+03  1.47520E+03 -2.19450E+03
  2.80468E+03 -1.02043E+03  1.96502E+03  6.16800E+02  7.85440E+02  1.29997E+03  6.29781E+02  5.40845E+02
  2.21030E+03  2.86967E+02  1.41756E+03  7.14713E+02  1.60791E+03  2.35989E+03  1.32779E+03  1.42741E+03
 -1.51780E+03  2.48832E+03 -2.56263E+03  4.01649E+03 -2.11252E+03  9.93553E+02 -4.06345E+03 -4.57708E+02
 -1.97310E+03 -2.86877E+03  7.19327E+02 -4.54930E+03  2.08469E+03 -1.89375E+03  2.76814E+03 -9.98425E+02
  2.08490E+03  1.79308E+03  1.44767E+02  2.08483E+03 -6.04012E+02  9.22613E+02 -7.58410E+02  6.14324E+02
 -3.29127E+02 -1.46796E+03  1.35415E+03 -1.58803E+03  1.23857E+03 -7.99100E+02  1.44299E+03  2.66479E+02
  6.76398E+02  6.85826E+01  6.47929E+02 -8.61714E+01 -4.26328E+02  8.44926E+02  1.51407E+03  2.38606E+02
  3.22164E+02  5.67339E+01  1.49032E+03  9.40391E+02  4.36038E+02  2.41228E+03 -2.29610E+02  2.68281E+03
 -1.45001E+03  9.14402E+02 -1.72547E+03  2.89365E+02 -1.98279E+03 -1.07816E+03 -1.23472E+02 -8.93849E+02
  6.90154E+02 -8.59172E+02  1.24020E+03 -4.15885E+02  8.66531E+02  7.96077E+02 -4.65345E+02  1.14432E+03
 -1.19941E+03  4.26677E+02 -9.44123E+02 -9.46293E+02 -7.96343E+02 -2.36357E+03  6.74293E+01 -1.02629E+03
  6.33840E+02  2.87195E+02  9.14118E+02  5.65821E+02  1.95302E+03 -5.64167E+02  3.05438E+02  1.19797E+03
  9.60009E+00 -5.33284E+02 -1.07337E+03  9.49315E+01  6.68314E+02 -6.40914E+02  1.57292E+03 -9.06163E+02
  6.71221E+02 -1.62425E+02  2.68282E+03  7.66573E+02  1.08248E+03  1.52796E+03  5.06104E+02  1.49229E+03
 -7.75584E+02 -5.53476E+02 -1.29747E+03  7.83593E+01 -3.96251E+02 -1.72517E+03  4.91768E+01 -1.95368E+02
  1.05615E+03 -6.41906E+02  8.26740E+02  7.02674E+02  5.87094E+02  9.85061E+02  9.14316E+01  1.08634E+03
  5.63164E+01  9.76955E+02 -6.80131E+02  6.11885E+02  3.07314E+02  4.71638E+02 -5.52077E+02  5.92838E+02
 -1.01318E+03  1.20016E+03 -1.55145E+03  3.74678E+02 -1.44093E+03 -2.86904E+02 -2.25294E+03 -4.07492E+02
 -6.72529E+02 -2.09402E+03  4.88764E+02 -2.73021E+03  5.39213E+02 -2.06223E+03  2.25927E+03 -9.79427E+02
  1.19291E+03 -2.68661E+01  1.52139E+03  1.60257E+03 -5.42994E+02  1.09439E+03 -7.46546E+02  1.01444E+03
 -5.60860E+02  7.18675E+02  1.91007E+01 -1.08464E+02 -2.66997E+02  1.50286E+02 -4.41090E+02  6.72773E+02
 -1.38717E+03 -5.03007E+02 -3.16558E+02  2.92235E+01 -4.46579E+01 -7.90425E+02 -3.33714E+02 -5.33517E+02
  1.69232E+03 -5.34941E+02  5.64769E+02 -6.68273E+01  9.91476E+02  1.17978E+03 -2.00056E+02  9.86792E+02
 -4.50435E+02  2.10963E+03 -1.59246E+03  1.38947E+03 -9.40929E+02 -1.60408E+02 -3.94978E+02 -6.85438E+02
 -1.00921E+03 -3.48492E+02  3.97409E+02 -4.94328E+02  4.84539E+02 -5.01803E+02  1.16483E+03 -5.56446E+01
  1.84869E+02 -1.00808E+02  1.18150E+02  5.12596E+00 -4.89021E+01  9.92686E+01  2.02623E+02 -7.16045E+01
  1.15516E+03  6.83100E+02 -2.48074E+02  2.80139E+02  1.12991E+02  5.32189E+02  3.91289E+02 -2.65574E+02
 -4.24909E+02  2.93268E+02  1.71399E+02 -1.08467E+02 -4.98488E+02 -4.97356E+02 -1.46049E+02 -8.10923E+02
 -6.71187E+01 -1.07310E+03  1.45301E+00  5.40557E+00  9.02722E+02 -5.12595E+02  7.18847E+02  1.05098E+03
  1.22698E+02 -1.31795E+02 -4.73511E+02  4.74204E+02 -3.29788E+02  5.10626E+02 -1.56553E+02  4.00022E+02
  1.31954E+02  8.60591E+01 -3.40802E+02  7.09803E+02 -6.87818E+02  3.95011E+02 -6.04461E+02 -2.25135E+02
 -1.45365E+03  5.68944E+01 -2.69922E+02 -6.22021E+02  7.11013E+02 -1.50154E+03  8.99710E+02 -6.09293E+02
  3.75960E+02  1.68034E+02 -7.27249E+02  8.00517E+02  1.07336E+02  1.06120E+03 -2.62960E+02  4.54457E+02
