 $NMID ID='MM_0lb_SNR400_15hz_g55_83.RAW', FMTDAT='(8E13.5)'
 TRAMP=1., VOLUME=1. $END
  3.09544E+05  3.39404E+02  3.37651E+05  2.50262E+05  8.45302E+04  3.38129E+05 -1.32579E+05  2.51301E+05
 -1.90884E+05  8.36770E+04 -1.11515E+05 -3.23116E+04  2.98952E+02 -5.01114E+04  5.37651E+04 -4.44597E+02
  3.55264E+04  5.28175E+04 -1.68758E+04  7.61277E+04 -6.08255E+04  6.34743E+04 -8.37605E+04  3.22268E+04
 -8.15094E+04 -1.13030E+04 -5.77610E+04 -5.12054E+04 -1.49359E+04 -6.94089E+04  2.77015E+04 -4.61054E+04
  4.03248E+04  3.42119E+03  1.54943E+04  4.76894E+04 -3.37353E+04  4.70520E+04 -6.69892E+04  3.69105E+02
 -5.36165E+04 -5.66336E+04 -6.28578E+03 -7.76476E+04  3.42405E+04 -5.55448E+04  4.90796E+04 -1.75750E+04
  4.32972E+04  1.08850E+04  3.18027E+04  2.61490E+04  1.58720E+04  2.96889E+04 -5.73570E+03  2.75721E+04
 -2.24517E+04  1.21165E+04 -1.82930E+04 -5.27082E+03  5.88837E+03 -7.21298E+03  2.27240E+04  1.18164E+04
  7.31615E+03  3.49577E+04 -3.22380E+04  3.56933E+04 -6.30562E+04  2.69565E+03 -5.67920E+04 -4.27401E+04
 -1.26945E+04 -6.35924E+04  4.08107E+04 -4.56694E+04  5.84385E+04 -1.50710E+03  3.37845E+04  3.23712E+04
 -5.92131E+03  3.64532E+04 -3.02946E+04  1.60487E+04 -3.05741E+04 -4.30255E+03 -1.65846E+04 -1.11614E+04
 -8.48650E+03 -1.29229E+04 -1.00818E+03 -1.81412E+04  7.98038E+03 -2.22965E+04  1.56726E+04 -1.30173E+04
  1.14240E+04  5.79336E+03 -8.40143E+03  1.33998E+04 -2.13203E+04 -4.78292E+03 -9.06876E+03 -3.38431E+04
  2.29121E+04 -4.34822E+04  4.83378E+04 -2.01919E+04  4.49434E+04  1.95928E+04  1.55104E+04  4.42808E+04
 -1.61960E+04  3.34544E+04 -2.52706E+04  2.33250E+03 -1.00742E+04 -2.72886E+04  2.13383E+04 -3.44539E+04
  4.02332E+04 -8.42673E+03  3.55599E+04  2.40754E+04  1.75280E+04  4.63927E+04 -7.89455E+03  5.03803E+04
 -3.13748E+04  3.35915E+04 -4.20468E+04  9.50495E+03 -4.24844E+04 -1.68266E+04 -2.33682E+04 -3.75159E+04
  6.80520E+03 -3.78238E+04  3.14453E+04 -1.49823E+04  2.92724E+04  1.14806E+04  4.18232E+03  1.91661E+04
 -1.38286E+04  8.44799E+03 -9.98950E+03 -7.65458E+03  5.73478E+03 -1.02890E+04  1.80927E+04  6.90555E+03
  1.26064E+04  2.22207E+04 -6.12208E+03  2.51466E+04 -2.24420E+04  1.15653E+04 -2.79369E+04 -5.01675E+03
 -2.09469E+04 -1.72316E+04 -8.40308E+03 -1.99435E+04  3.64585E+03 -1.93476E+04  1.54473E+04 -1.81780E+04
  2.60639E+04 -1.28223E+04  3.29929E+04  3.12754E+03  2.33719E+04  1.99524E+04  4.01355E+03  3.58626E+04
 -1.77613E+04  3.05778E+04 -2.78270E+04  1.04517E+04 -2.12248E+04 -1.04468E+04 -4.28269E+03 -1.35866E+04
  1.63018E+03 -3.01294E+03 -4.38000E+03  6.72910E+03 -1.64152E+04  5.20642E+03 -1.56576E+04 -6.96223E+03
 -1.03107E+04 -1.84961E+04  5.36645E+03 -2.31484E+04  1.57481E+04 -1.70819E+04  1.87059E+04 -2.05463E+03
  1.16104E+04  1.31376E+04 -1.42076E+03  1.89035E+04 -1.26867E+04  1.06843E+04 -1.87913E+04 -3.75976E+03
 -1.44506E+04 -1.71035E+04 -1.94636E+03 -2.26763E+04  1.02602E+04 -1.82812E+04  1.86587E+04 -9.04105E+03
  1.70479E+04  8.05978E+02  1.28723E+04  4.04907E+03  6.97406E+03  8.45312E+02  9.59778E+03 -1.89673E+03
  1.66276E+04  2.80180E+03  1.96797E+04  1.48995E+04  1.23371E+04  2.96485E+04 -2.50995E+03  3.40327E+04
 -1.95110E+04  2.71793E+04 -3.16470E+04  1.30130E+04 -3.27569E+04 -2.58810E+03 -2.78171E+04 -1.92290E+04
 -1.17982E+04 -2.77380E+04  9.31179E+03 -2.41890E+04  2.10912E+04 -1.20176E+04  1.89645E+04  5.16491E+03
  7.36763E+03  1.38425E+04 -9.21151E+03  1.25106E+04 -1.58006E+04  2.75930E+03 -1.24274E+04 -9.90118E+03
 -4.47251E+02 -1.59562E+04  7.89534E+03 -1.11551E+04  9.94621E+03 -1.64685E+03  1.92874E+03  6.74244E+03
 -7.26495E+03  2.40154E+03 -6.15912E+03 -5.88927E+03 -5.56646E+02 -1.34167E+04  9.12117E+03 -1.38765E+04
  1.61574E+04 -7.51101E+03  1.75629E+04  2.81959E+03  1.49578E+04  1.30429E+04  6.49275E+03  1.96379E+04
 -2.99807E+03  2.15322E+04 -1.33857E+04  1.33909E+04 -1.54617E+04  3.58834E+03 -1.13102E+04 -3.95765E+03
 -6.12316E+03 -4.68032E+03 -6.91918E+02  6.76518E+02 -1.36976E+03  2.67606E+03 -4.40013E+03  3.94635E+03
 -1.06281E+04 -1.14664E+03 -1.13648E+04 -8.97905E+03 -4.30080E+03 -1.43139E+04  4.61578E+03 -1.13296E+04
  9.50038E+03 -4.43591E+03  6.23578E+03  2.82182E+03 -9.09074E+01  4.53639E+03 -4.91533E+03  1.89966E+02
 -4.38176E+03 -6.35352E+03 -6.73299E+02 -9.75961E+03  5.74302E+03 -1.09639E+04  1.29822E+04 -5.74738E+03
  1.56640E+04  1.17834E+03  1.15412E+04  8.86752E+03  2.40440E+03  1.23494E+04 -6.93649E+03  1.03422E+04
 -8.50278E+03  3.08058E+03 -4.37143E+03 -2.22303E+03  1.62911E+03 -2.76884E+03  5.52868E+03 -1.07316E+03
  5.15437E+03  4.77711E+03  9.17130E+02  8.98947E+03 -5.65775E+03  8.90526E+03 -1.05628E+04  1.71469E+03
 -6.43886E+03 -5.39037E+03 -1.49343E+02 -9.27914E+03  5.47649E+03 -4.99241E+03  6.12273E+03  1.85949E+03
  8.27353E+02  5.12697E+03 -5.96193E+03  6.96114E+03 -7.48868E+03  3.67790E+03 -7.84193E+03 -1.92777E+03
 -5.10378E+03 -9.43680E+03  1.84896E+03 -1.12022E+04  8.82498E+03 -6.55738E+03  9.67197E+03  1.23900E+03
  6.31641E+03  8.13834E+03  1.50816E+00  9.87361E+03 -6.35329E+03  5.91730E+03 -7.89428E+03 -6.50595E+02
 -6.91959E+03 -7.21318E+03 -1.28205E+03 -7.28604E+03  3.84574E+03 -6.27164E+03  4.23130E+03 -2.70747E+03
  4.03539E+03  9.96598E+02  1.31586E+02  1.84154E+03 -8.87171E+01 -1.33785E+03  1.05890E+03 -3.17795E+03
  6.39773E+03 -2.38516E+03  9.78407E+03  1.55304E+03  8.75595E+03  5.40095E+03  6.41886E+03  1.15569E+04
 -2.49525E+03  1.32912E+04 -1.20713E+04  1.05043E+04 -1.51088E+04  2.00333E+03 -1.13707E+04 -4.11618E+03
 -5.89008E+03 -9.74629E+03 -3.84553E+02 -8.82108E+03  3.48710E+03 -4.42417E+03  3.42285E+03 -3.57700E+03
  1.56443E+03 -1.85349E+03  2.33011E+03 -2.79069E+03  4.12061E+03 -1.68303E+03  5.11950E+03 -8.48439E+01
  6.82045E+03  1.66832E+03  2.53250E+03  5.48856E+03 -1.66852E+03  5.26240E+03 -5.99674E+03  4.66301E+03
 -8.00719E+03 -6.63414E+02 -4.16931E+03 -5.50993E+03 -2.06180E+02 -8.30566E+03  4.91268E+03 -8.02655E+03
  7.94709E+03 -4.88561E+03  1.04898E+04  1.36129E+03  6.49092E+03  6.96491E+03  7.89886E+02  9.89223E+03
 -3.91075E+03  8.69818E+03 -5.23332E+03  2.19692E+03 -3.19924E+03 -1.61910E+03 -1.24656E+03 -9.53934E+02
  3.36397E+01 -9.38269E+01 -8.92985E+02  2.28135E+03 -3.80616E+03  1.90556E+03 -5.83266E+03 -7.10979E+02
 -2.85493E+03 -5.32313E+03  1.51822E+02 -7.87913E+03  4.39743E+03 -6.85900E+03  6.34490E+03 -2.14485E+03
  6.77285E+03  3.76365E+03  3.15590E+03  5.42687E+03 -1.67151E+03  7.09335E+03 -5.32573E+03  5.17710E+03
 -6.63472E+03  8.57291E+02 -5.49236E+03 -4.22510E+03  1.14808E+02 -5.40077E+03  2.72229E+03 -4.36369E+03
  4.57888E+03 -1.71208E+03  3.01336E+03  6.70194E+02  1.29431E+03  2.32043E+03  8.59350E+02  8.45712E+02
  1.77321E+03  2.24888E+02  1.84583E+03  1.72188E+03  1.74765E+03  3.32379E+03  2.33366E+03  3.47126E+03
 -2.00397E+03  5.42980E+03 -4.43132E+03  6.30897E+03 -7.10518E+03  1.93457E+03 -7.73916E+03 -2.24096E+03
 -3.63806E+03 -6.13244E+03  1.12215E+03 -7.86674E+03  3.82653E+03 -4.77220E+03  5.18081E+03 -1.36099E+03
  4.26275E+03  2.42417E+03  1.11436E+03  3.63329E+03 -1.17946E+03  2.69151E+03 -2.54618E+03 -3.69886E+02
 -9.20960E+02 -3.08079E+03  2.37368E+03 -2.59255E+03  2.50863E+03 -1.65398E+03  3.05594E+03  7.44384E+02
  1.50738E+03  5.72410E+02  1.19309E+03 -1.26435E+02 -2.37333E+02  1.28749E+03  1.19838E+03  2.41300E+01
  1.00999E+03 -9.36076E+02  3.03785E+03  1.07362E+03  1.20099E+03  4.12053E+03 -1.11231E+03  5.09262E+03
 -2.49017E+03  3.06619E+03 -3.23196E+03  1.29214E+03 -3.79868E+03 -2.06751E+03 -6.83740E+02 -2.05839E+03
  7.39868E+02 -2.34566E+03  1.65728E+03 -5.54825E+02  1.63273E+03  1.96314E+03 -1.21595E+03  2.45938E+03
 -2.14681E+03  1.19566E+03 -2.61947E+03 -1.78346E+03 -1.37641E+03 -3.60429E+03  9.60829E+02 -2.91431E+03
  1.23465E+03 -1.54238E+03  1.87305E+03  9.16026E+02  2.45632E+03  1.72852E+02  7.03773E+02  1.89449E+03
 -5.92801E+02  2.68591E+02 -1.34528E+03 -7.65741E+02  1.20928E+03 -1.82590E+03  2.91343E+03 -1.46435E+03
  2.52373E+03  6.35178E+02  4.27734E+03  2.00648E+03  1.83225E+03  3.57596E+03 -1.30813E+03  3.69790E+03
 -2.82396E+03  1.05431E+03 -3.17975E+03 -5.96263E+02 -1.73175E+03 -3.27279E+03  8.01810E+02 -2.26204E+03
  2.49348E+03 -8.03994E+02  1.82663E+03  1.27748E+03  9.91514E+02  2.29354E+03 -3.01226E+02  1.85908E+03
 -8.40829E+02  1.22274E+03 -1.27017E+03  5.25632E+02 -2.60597E+02  1.05414E+03 -1.34921E+03  8.15010E+02
 -8.01855E+02  1.32388E+03 -3.11589E+03  1.24997E+03 -3.59140E+03  5.41553E+02 -4.03757E+03 -1.70616E+03
 -2.65743E+03 -4.70819E+03  1.53790E+03 -5.98584E+03  2.94381E+03 -4.84007E+03  5.36615E+03 -1.52766E+03
  4.76738E+03  4.95666E+02  2.95497E+03  3.06004E+03 -6.28250E+01  3.33367E+03 -1.75305E+03  2.71312E+03
 -1.32070E+03  7.21492E+02 -1.32099E+03 -6.46714E+02 -8.02395E+02  9.04325E+01 -8.34843E+02  4.42721E+02
 -1.57505E+03 -2.12440E+02 -9.96913E+02  1.05898E+02  4.12793E+02 -1.13774E+03 -6.34979E+02 -1.13898E+03
  1.83380E+03 -1.03489E+03  1.61447E+03  3.35349E+02  2.69811E+03  1.91078E+03 -2.52007E+02  3.94395E+03
 -1.89953E+03  3.64763E+03 -3.57151E+03  2.61948E+03 -4.32937E+03  1.32628E+02 -2.84962E+03 -2.48996E+03
 -1.83899E+03 -3.27829E+03  8.04122E+02 -3.29014E+03  1.77897E+03 -2.11032E+03  1.94536E+03  6.31039E+02
  1.78579E+03  8.73561E+02  5.33255E+01  1.05492E+03 -7.38394E+02  3.37804E+02 -1.05490E+03 -9.40429E+02
  1.70168E+03 -3.83384E+02  1.55588E+03  3.78717E+02  6.28191E+02  1.14686E+03  5.52142E+02  1.48906E+03
 -1.56871E+03  1.42712E+03 -1.92880E+03 -1.14148E+02 -1.96547E+03 -1.10381E+03 -8.36255E+02 -2.68205E+03
  1.52119E+03 -2.03976E+03  1.64197E+03 -6.42779E+02  1.87725E+03 -7.04418E+02  1.85443E+03  1.92829E+03
  6.04696E+02  1.28678E+03 -1.11387E+03  1.36492E+03 -9.83155E+02  9.99563E+02 -7.90398E+02  1.16614E+02
  8.55399E+01 -2.39441E+02 -2.30392E+02  1.35082E+02 -1.26747E+03  1.81254E+02 -1.66534E+03  1.98133E+02
 -2.07014E+03 -8.68147E+01 -4.31731E+02 -1.92137E+03  6.07883E+02 -2.26121E+03  1.67789E+03 -1.14817E+03
  1.96778E+03  5.86999E+02  2.17850E+02  1.25200E+03 -2.32790E+02  1.97834E+03 -1.24512E+03  1.61848E+03
