 $NMID ID='MM_0lb_SNR400_11hz_g55_14.RAW', FMTDAT='(8E13.5)'
 TRAMP=1., VOLUME=1. $END
  3.10287E+05  5.88875E+02  3.37400E+05  2.50927E+05  8.55133E+04  3.37987E+05 -1.32875E+05  2.51736E+05
 -1.91162E+05  8.40926E+04 -1.11576E+05 -3.25603E+04  6.74405E+02 -4.99814E+04  5.40279E+04 -3.34627E+02
  3.59240E+04  5.21517E+04 -1.65739E+04  7.63122E+04 -6.11199E+04  6.43208E+04 -8.51582E+04  3.23721E+04
 -8.25025E+04 -1.17442E+04 -5.79606E+04 -5.25807E+04 -1.50362E+04 -7.07469E+04  2.82572E+04 -4.64937E+04
  4.11543E+04  3.50467E+03  1.66579E+04  4.82823E+04 -3.50021E+04  4.74151E+04 -6.82030E+04 -1.05976E+02
 -5.42915E+04 -5.82084E+04 -6.89473E+03 -7.88223E+04  3.44908E+04 -5.61023E+04  4.88324E+04 -1.83467E+04
  4.47800E+04  1.18695E+04  3.29444E+04  2.58804E+04  1.58776E+04  3.10189E+04 -5.62467E+03  2.75065E+04
 -2.24792E+04  1.17748E+04 -1.87191E+04 -5.66700E+03  5.66043E+03 -7.87856E+03  2.34230E+04  1.27446E+04
  6.59667E+03  3.64726E+04 -3.34471E+04  3.61658E+04 -6.54891E+04  1.74924E+03 -5.88854E+04 -4.45734E+04
 -1.24442E+04 -6.53508E+04  4.09383E+04 -4.75539E+04  5.97506E+04 -2.44631E+03  3.60375E+04  3.39160E+04
 -6.06094E+03  3.85028E+04 -3.09281E+04  1.79068E+04 -3.22777E+04 -3.65595E+03 -1.79380E+04 -1.15823E+04
 -9.27160E+03 -1.48151E+04 -6.82762E+02 -1.90996E+04  8.94869E+03 -2.32846E+04  1.55871E+04 -1.23722E+04
  1.05091E+04  6.17726E+03 -1.01223E+04  1.28487E+04 -2.25443E+04 -6.46580E+03 -8.01519E+03 -3.65315E+04
  2.41427E+04 -4.60570E+04  5.08783E+04 -2.07957E+04  4.77583E+04  2.00384E+04  1.69590E+04  4.62829E+04
 -1.72524E+04  3.56864E+04 -2.66628E+04  2.91157E+03 -1.06574E+04 -2.83356E+04  2.10797E+04 -3.56535E+04
  4.36372E+04 -8.93577E+03  3.88825E+04  2.46615E+04  1.99651E+04  4.97222E+04 -8.49773E+03  5.48473E+04
 -3.48900E+04  3.70149E+04 -4.60413E+04  1.06038E+04 -4.66828E+04 -1.81571E+04 -2.47726E+04 -4.08212E+04
  7.40391E+03 -4.04257E+04  3.33508E+04 -1.64283E+04  3.17421E+04  1.15475E+04  5.06632E+03  2.05681E+04
 -1.37164E+04  8.94414E+03 -1.14869E+04 -7.64808E+03  5.89158E+03 -1.07747E+04  1.88270E+04  5.77124E+03
  1.44308E+04  2.22461E+04 -6.45698E+03  2.66064E+04 -2.31557E+04  1.39469E+04 -3.05663E+04 -3.40651E+03
 -2.32950E+04 -1.76364E+04 -1.06560E+04 -2.36218E+04  3.49286E+03 -2.36985E+04  1.82974E+04 -2.11762E+04
  3.03069E+04 -1.40804E+04  3.62715E+04  3.70822E+03  2.55609E+04  2.29251E+04  4.38869E+03  3.98782E+04
 -1.90280E+04  3.28718E+04 -2.95008E+04  1.19049E+04 -2.23516E+04 -1.03675E+04 -4.51647E+03 -1.28900E+04
  1.45629E+03 -7.91841E+02 -7.31902E+03  8.03376E+03 -1.89133E+04  4.78902E+03 -1.89616E+04 -8.85670E+03
 -1.17783E+04 -2.18758E+04  6.46774E+03 -2.61970E+04  1.67542E+04 -1.82652E+04  2.05883E+04 -4.27646E+02
  1.36222E+04  1.48202E+04 -1.65008E+03  2.24751E+04 -1.61329E+04  1.22596E+04 -2.21151E+04 -3.97132E+03
 -1.61233E+04 -2.01190E+04 -2.31977E+03 -2.69620E+04  1.12769E+04 -2.15702E+04  2.21653E+04 -1.11152E+04
  2.03112E+04 -1.86617E+02  1.50109E+04  4.80033E+03  7.87357E+03  1.24958E+03  1.12742E+04 -1.36591E+03
  2.05706E+04  2.77058E+03  2.44274E+04  1.73592E+04  1.60951E+04  3.56999E+04 -2.61187E+03  4.18484E+04
 -2.37230E+04  3.41588E+04 -3.88100E+04  1.76002E+04 -4.13610E+04 -3.28795E+03 -3.31650E+04 -2.39361E+04
 -1.32220E+04 -3.41594E+04  1.20845E+04 -3.00868E+04  2.50903E+04 -1.51818E+04  2.16970E+04  6.79922E+03
  7.85496E+03  1.75612E+04 -1.07582E+04  1.44167E+04 -1.88173E+04  3.19829E+03 -1.37473E+04 -1.13616E+04
  3.34430E+02 -1.81346E+04  1.04842E+04 -1.30993E+04  1.26040E+04 -1.69330E+03  3.46898E+03  7.87074E+03
 -8.11119E+03  3.50758E+03 -8.50422E+03 -6.33218E+03 -1.01632E+03 -1.65893E+04  1.07170E+04 -1.82636E+04
  2.09072E+04 -1.01133E+04  2.34789E+04  3.06767E+03  2.01237E+04  1.67825E+04  8.94034E+03  2.66044E+04
 -4.83072E+03  2.85500E+04 -1.75288E+04  1.89476E+04 -2.02545E+04  3.83337E+03 -1.38006E+04 -4.58843E+03
 -6.87496E+03 -6.75662E+03 -5.64136E+02  6.94681E+02 -2.25963E+03  3.14449E+03 -7.03747E+03  4.96056E+03
 -1.29127E+04 -1.05700E+03 -1.42240E+04 -1.10839E+04 -5.04146E+03 -1.70866E+04  5.96919E+03 -1.40522E+04
  1.12867E+04 -5.37939E+03  8.06704E+03  3.08542E+03 -5.58890E+01  5.38926E+03 -7.32641E+03 -1.47013E+02
 -6.55418E+03 -9.78295E+03 -8.63767E+02 -1.32913E+04  8.10735E+03 -1.50243E+04  1.81087E+04 -8.12556E+03
  2.14406E+04  2.25952E+03  1.57146E+04  1.32618E+04  2.20195E+03  1.67698E+04 -8.78066E+03  1.47266E+04
 -1.10607E+04  4.29819E+03 -5.41239E+03 -2.75813E+03  1.66016E+03 -3.66698E+03  7.14073E+03 -1.40766E+03
  7.53409E+03  5.55950E+03  1.03570E+03  1.20377E+04 -7.47386E+03  1.12090E+04 -1.33970E+04  2.45153E+03
 -9.39871E+03 -7.64152E+03 -1.68423E+02 -1.14747E+04  7.74263E+03 -6.03994E+03  7.64629E+03  3.03873E+03
  2.31982E+03  8.19335E+03 -7.19153E+03  1.09805E+04 -1.13628E+04  5.02067E+03 -1.18132E+04 -4.07422E+03
 -7.35686E+03 -1.42282E+04  3.20904E+03 -1.49717E+04  1.36581E+04 -1.02695E+04  1.44707E+04  2.96234E+03
  8.67950E+03  1.16573E+04 -1.09120E+03  1.42807E+04 -1.01247E+04  7.29494E+03 -1.09735E+04 -4.25181E+02
 -9.79568E+03 -9.58980E+03 -1.64445E+03 -1.02690E+04  5.97557E+03 -8.82255E+03  6.27815E+03 -4.32421E+03
  4.62449E+03  1.06860E+03 -1.09315E+03  1.82696E+03 -9.25884E+02 -2.96467E+03  2.25703E+03 -6.90424E+03
  9.48664E+03 -3.48636E+03  1.34738E+04  1.94431E+03  1.29887E+04  9.26728E+03  8.76603E+03  1.78395E+04
 -4.34992E+03  2.03794E+04 -1.69674E+04  1.51207E+04 -2.27030E+04  1.51269E+03 -1.83696E+04 -8.11148E+03
 -8.63554E+03 -1.51015E+04 -5.36313E+02 -1.23556E+04  5.03126E+03 -6.25322E+03  5.33811E+03 -4.95149E+03
  3.50717E+03 -3.51110E+03  3.40285E+03 -4.21309E+03  5.07738E+03 -3.30976E+03  6.68573E+03 -1.55429E+03
  9.97973E+03  2.35131E+03  4.94112E+03  7.71713E+03 -2.05270E+03  9.17570E+03 -9.66570E+03  6.89464E+03
 -1.22953E+04 -1.11046E+03 -7.58012E+03 -8.27567E+03 -1.21946E+03 -1.29182E+04  7.09905E+03 -1.33268E+04
  1.36010E+04 -7.48881E+03  1.64673E+04  2.42932E+03  1.17136E+04  1.15249E+04  1.71969E+03  1.48464E+04
 -6.39293E+03  1.22405E+04 -8.94831E+03  2.98267E+03 -6.77358E+03 -1.71959E+03 -2.52744E+03 -1.53118E+03
 -1.36571E+03  6.09355E+00 -2.36525E+03  2.73241E+03 -5.48543E+03  2.37777E+03 -8.98988E+03 -1.00463E+03
 -4.81217E+03 -8.69899E+03  1.76333E+02 -1.25304E+04  7.58145E+03 -1.19403E+04  1.17711E+04 -3.25551E+03
  1.18257E+04  6.02460E+03  5.75621E+03  1.09402E+04 -2.23790E+03  1.17271E+04 -8.90353E+03  7.66331E+03
 -1.17973E+04  8.64998E+02 -8.46198E+03 -7.55221E+03 -7.91773E+02 -1.02733E+04  5.44519E+03 -7.71692E+03
  6.86383E+03 -2.76557E+03  5.83237E+03  1.48466E+03  1.74102E+03  3.15696E+03  1.06997E+03  1.22301E+03
  2.37948E+03  9.82939E+02  2.40942E+03  1.68100E+03  3.94128E+03  4.53898E+03  2.92943E+03  5.92255E+03
 -2.09808E+03  1.00320E+04 -8.01295E+03  9.64358E+03 -1.25096E+04  2.85876E+03 -1.24585E+04 -5.29305E+03
 -5.87765E+03 -1.25786E+04  2.41722E+03 -1.35115E+04  7.20330E+03 -9.12516E+03  9.40747E+03 -1.32700E+03
  8.08640E+03  4.37441E+03  2.12403E+03  7.07529E+03 -3.38947E+03  4.45887E+03 -4.58225E+03 -8.47607E+02
 -2.00418E+03 -4.98233E+03  3.33634E+03 -5.25626E+03  5.66085E+03 -2.37868E+03  4.49945E+03  1.20889E+03
  2.24852E+03  2.19939E+03  1.50040E+03  2.33135E+03 -1.17193E+03  2.58351E+03  1.97050E+03 -1.10512E+01
  2.20349E+03 -4.29846E+02  4.71770E+03  2.35759E+03  2.64408E+03  6.43179E+03 -1.43651E+03  8.37692E+03
 -5.42403E+03  5.26250E+03 -7.57257E+03  1.08534E+03 -6.95249E+03 -2.96877E+03 -2.43140E+03 -4.24004E+03
  4.37989E+02 -2.95448E+03  3.34267E+03 -2.36206E+03  2.28479E+03  2.46521E+03 -1.62022E+03  3.89900E+03
 -4.82273E+03  2.77758E+03 -5.87874E+03 -3.03715E+03 -2.78789E+03 -6.59083E+03  1.24238E+03 -6.09888E+03
  3.93915E+03 -3.78752E+03  3.87787E+03 -6.53243E+02  3.45512E+03  1.85320E+03  9.13419E+02  3.57540E+03
 -1.96401E+03  1.10568E+03 -2.54142E+03 -2.16776E+03  9.10255E+02 -4.82569E+03  5.57747E+03 -3.81765E+03
  7.29991E+03 -2.88268E+02  7.69693E+03  4.86292E+03  3.10892E+03  7.98275E+03 -3.26725E+03  8.10086E+03
 -6.38368E+03  4.09340E+03 -6.59440E+03 -1.60389E+03 -3.90511E+03 -4.68487E+03  1.40760E+03 -4.88930E+03
  4.70054E+03 -2.23837E+03  4.58695E+03  1.87571E+03  1.15444E+03  4.03151E+03 -3.08384E+02  4.09462E+03
 -2.65422E+03  2.57476E+03 -1.92509E+03  2.12540E+02 -9.72830E+02  8.44265E+02 -9.15666E+02  1.38330E+03
 -2.18824E+03  2.51857E+03 -5.15398E+03  3.04525E+03 -6.92604E+03  1.15023E+02 -8.36669E+03 -4.20610E+03
 -4.77019E+03 -1.01484E+04  2.21957E+03 -1.09096E+04  6.90883E+03 -9.58645E+03  1.08822E+04 -3.70171E+03
  1.03395E+04  2.09431E+03  6.84258E+03  7.29859E+03  2.12689E+02  8.38198E+03 -3.05568E+03  5.25689E+03
 -4.21720E+03  1.99215E+03 -2.54320E+03 -8.25428E+02 -3.48477E+02 -2.84586E+02 -6.07757E+02 -1.21304E+02
 -7.67903E+02 -3.02623E+02 -1.73857E+03 -6.42726E+01 -4.50509E+02 -1.60994E+03 -4.59982E+02 -2.32936E+03
  3.51784E+03 -3.38847E+03  4.42548E+03 -4.98380E+02  5.66206E+03  4.57217E+03  8.32436E+02  7.02126E+03
 -3.71844E+03  8.48675E+03 -7.26392E+03  4.86489E+03 -9.39658E+03 -1.02553E+03 -6.93083E+03 -5.79655E+03
 -2.86934E+03 -6.97760E+03  1.52172E+03 -7.03798E+03  4.77341E+03 -4.46385E+03  5.56224E+03 -8.69293E+01
  2.35069E+03  2.30603E+03  1.00935E+02  1.93643E+03 -1.03408E+03 -2.77478E+02 -3.03523E+02 -1.58223E+03
  2.19903E+03 -4.67413E+02  3.10461E+03  1.92917E+03  1.58326E+03  2.74609E+03  6.60135E+02  3.47195E+03
 -3.29742E+03  3.11304E+03 -4.26388E+03  7.05939E+02 -4.52668E+03 -3.92959E+03 -6.05886E+02 -6.39095E+03
  3.89756E+03 -4.82689E+03  5.61249E+03 -1.54525E+03  5.91508E+03  9.88348E+02  3.28912E+03  4.34214E+03
  1.34543E+03  5.31128E+03 -2.01220E+03  3.44039E+03 -2.69704E+03  2.03154E+03 -2.68974E+03  9.06023E+02
 -1.76455E+03 -6.34444E+02 -1.56942E+03  1.08486E+03 -2.11064E+03  5.42161E+02 -4.33151E+03 -8.43255E+02
 -3.83429E+03 -2.50348E+03 -1.21546E+03 -4.55465E+03  2.21330E+03 -5.84908E+03  4.42403E+03 -2.56403E+03
  4.28460E+03  9.56777E+02  2.02274E+03  3.26727E+03 -6.50908E+02  4.62259E+03 -2.89098E+03  2.96045E+03
