 $NMID ID='MM_0lb_SNR400_16hz_g50_81.RAW', FMTDAT='(8E13.5)'
 TRAMP=1., VOLUME=1. $END
  3.10358E+05  4.61698E+02  3.37840E+05  2.50996E+05  8.47380E+04  3.38014E+05 -1.31967E+05  2.50725E+05
 -1.90288E+05  8.31870E+04 -1.11012E+05 -3.23959E+04  1.21593E+03 -5.01489E+04  5.35615E+04  1.15266E+02
  3.50442E+04  5.31367E+04 -1.66196E+04  7.54837E+04 -6.06937E+04  6.32744E+04 -8.37561E+04  3.23130E+04
 -8.02455E+04 -1.06926E+04 -5.66065E+04 -5.11791E+04 -1.48304E+04 -6.89570E+04  2.81472E+04 -4.60516E+04
  3.94205E+04  3.69168E+03  1.58838E+04  4.76869E+04 -3.39131E+04  4.67927E+04 -6.65840E+04  5.95823E+01
 -5.28029E+04 -5.65172E+04 -6.39809E+03 -7.60841E+04  3.37852E+04 -5.41823E+04  4.71529E+04 -1.66832E+04
  4.26534E+04  1.13418E+04  3.08388E+04  2.55238E+04  1.55454E+04  2.87328E+04 -4.66999E+03  2.74402E+04
 -2.21858E+04  1.28004E+04 -1.88306E+04 -4.30808E+03  4.98304E+03 -7.22543E+03  2.15668E+04  1.20803E+04
  7.17657E+03  3.48334E+04 -3.20769E+04  3.48775E+04 -6.30619E+04  2.01375E+03 -5.64435E+04 -4.24955E+04
 -1.25530E+04 -6.22376E+04  3.91808E+04 -4.38267E+04  5.71028E+04 -2.61900E+03  3.34264E+04  3.17741E+04
 -6.15483E+03  3.50324E+04 -2.89075E+04  1.49363E+04 -2.90268E+04 -5.05348E+03 -1.63099E+04 -1.07654E+04
 -7.81651E+03 -1.26821E+04 -5.46111E+02 -1.76999E+04  7.24024E+03 -2.20416E+04  1.48465E+04 -1.35481E+04
  1.19071E+04  4.61325E+03 -7.48796E+03  1.27435E+04 -2.05772E+04 -4.06628E+03 -8.19599E+03 -3.30640E+04
  2.16532E+04 -4.22981E+04  4.67171E+04 -1.92286E+04  4.39458E+04  1.98765E+04  1.51612E+04  4.29474E+04
 -1.60623E+04  3.29626E+04 -2.41861E+04  1.52564E+03 -9.35775E+03 -2.69612E+04  2.04319E+04 -3.24926E+04
  3.99922E+04 -8.11526E+03  3.41444E+04  2.33892E+04  1.71417E+04  4.43362E+04 -7.92122E+03  4.79650E+04
 -3.06126E+04  3.24380E+04 -3.98675E+04  9.06946E+03 -4.11983E+04 -1.59195E+04 -2.25031E+04 -3.69116E+04
  7.53971E+03 -3.58688E+04  3.08768E+04 -1.38531E+04  2.81454E+04  1.12050E+04  3.99714E+03  1.87074E+04
 -1.38400E+04  8.32108E+03 -9.74042E+03 -7.18985E+03  5.84030E+03 -1.04400E+04  1.75376E+04  6.23116E+03
  1.28727E+04  2.20282E+04 -5.86722E+03  2.45744E+04 -2.23929E+04  1.03943E+04 -2.66060E+04 -5.60143E+03
 -1.84474E+04 -1.66589E+04 -6.62933E+03 -1.89291E+04  3.46056E+03 -1.78927E+04  1.42745E+04 -1.67730E+04
  2.37782E+04 -1.27337E+04  3.03747E+04  1.80777E+03  2.20998E+04  1.89747E+04  3.84331E+03  3.48985E+04
 -1.71563E+04  2.91423E+04 -2.70709E+04  9.83138E+03 -2.04616E+04 -1.03779E+04 -3.91899E+03 -1.39981E+04
  2.47052E+03 -3.34719E+03 -3.54841E+03  6.39208E+03 -1.46125E+04  5.19018E+03 -1.54166E+04 -6.00347E+03
 -9.41539E+03 -1.78971E+04  4.79998E+03 -2.14490E+04  1.39417E+04 -1.52250E+04  1.71827E+04 -1.45429E+03
  9.91828E+03  1.22938E+04 -1.32304E+03  1.76686E+04 -1.18163E+04  1.01861E+04 -1.76361E+04 -3.46348E+03
 -1.29183E+04 -1.60766E+04 -1.32291E+03 -2.13673E+04  9.72223E+03 -1.73792E+04  1.73716E+04 -8.45930E+03
  1.62701E+04  3.82980E+02  1.22198E+04  3.89964E+03  5.86136E+03  9.98346E+02  8.64482E+03 -9.24930E+02
  1.62103E+04  2.94006E+03  1.76504E+04  1.39299E+04  1.13267E+04  2.78533E+04 -2.70215E+03  3.07323E+04
 -1.79666E+04  2.45460E+04 -2.84097E+04  1.14524E+04 -2.94195E+04 -2.22440E+03 -2.49831E+04 -1.70105E+04
 -1.07384E+04 -2.42277E+04  8.10940E+03 -2.26512E+04  1.96074E+04 -1.21256E+04  1.79238E+04  4.49480E+03
  7.52517E+03  1.32094E+04 -8.12088E+03  1.16570E+04 -1.52889E+04  2.18522E+03 -1.17287E+04 -8.71343E+03
 -2.38309E+02 -1.37612E+04  7.29191E+03 -1.11829E+04  8.95774E+03 -1.01859E+03  1.54276E+03  5.58638E+03
 -6.55040E+03  1.57532E+03 -5.33361E+03 -5.29659E+03 -1.73909E+02 -1.23668E+04  9.00390E+03 -1.25559E+04
  1.44951E+04 -5.97619E+03  1.46337E+04  3.52837E+03  1.38728E+04  1.14922E+04  6.92287E+03  1.77327E+04
 -2.46115E+03  1.92204E+04 -1.19394E+04  1.19391E+04 -1.37924E+04  2.92311E+03 -9.83318E+03 -3.09313E+03
 -5.06734E+03 -4.40916E+03 -5.15855E+02  1.26512E+03 -2.61095E+03  1.98939E+03 -4.62773E+03  3.61731E+03
 -8.71196E+03 -9.42828E+02 -1.03731E+04 -8.32201E+03 -3.59691E+03 -1.38199E+04  4.12226E+03 -1.01645E+04
  8.50665E+03 -4.24933E+03  6.14143E+03  2.75347E+03 -4.41002E+02  3.81428E+03 -4.39062E+03 -2.49855E+01
 -4.05197E+03 -6.56346E+03 -7.42314E+02 -9.41197E+03  5.29359E+03 -9.53654E+03  1.21554E+04 -4.49085E+03
  1.45880E+04  1.48275E+03  1.09242E+04  8.21584E+03  2.40222E+03  1.12042E+04 -6.83162E+03  9.90134E+03
 -8.45104E+03  3.32977E+03 -4.20195E+03 -1.94774E+03  1.06967E+03 -2.43023E+03  5.55716E+03 -1.09917E+03
  5.51041E+03  3.86474E+03  7.24515E+02  7.99234E+03 -5.65329E+03  7.98568E+03 -9.44751E+03  2.60332E+03
 -6.59708E+03 -4.58003E+03  3.43585E+02 -8.35934E+03  4.59976E+03 -4.22446E+03  4.83064E+03  1.67162E+03
  1.16508E+03  4.82138E+03 -5.52118E+03  5.65276E+03 -6.69658E+03  2.80552E+03 -6.45602E+03 -1.91256E+03
 -4.17110E+03 -8.55324E+03  1.39384E+03 -8.62257E+03  8.11309E+03 -5.31403E+03  8.74084E+03  1.75361E+03
  5.62062E+03  6.78301E+03 -3.27753E+02  8.95885E+03 -6.13581E+03  4.78200E+03 -6.72007E+03 -4.11418E+02
 -6.34125E+03 -5.78070E+03 -1.40031E+03 -6.99127E+03  3.30794E+03 -5.58633E+03  3.94483E+03 -2.81957E+03
  3.30827E+03  8.37399E+02  4.51017E+01  1.13596E+03  4.73383E+02 -9.36112E+02  4.81124E+02 -2.81103E+03
  5.61582E+03 -2.22380E+03  7.36391E+03  7.40727E+02  7.56869E+03  4.02820E+03  5.84087E+03  9.92824E+03
 -2.16983E+03  1.14980E+04 -1.04540E+04  8.54561E+03 -1.29546E+04  1.55724E+03 -1.01362E+04 -4.00046E+03
 -5.33020E+03 -8.51826E+03  7.47172E+01 -7.43459E+03  2.64534E+03 -2.65810E+03  1.43624E+03 -2.44435E+03
  2.36588E+03 -1.50581E+03  2.22115E+03 -2.63526E+03  3.91013E+03 -1.45542E+03  4.57948E+03 -2.78512E+02
  5.58413E+03  1.47942E+03  1.86041E+03  4.96249E+03 -1.46573E+03  4.05360E+03 -5.34736E+03  3.22755E+03
 -6.67463E+03 -8.62899E+02 -3.53671E+03 -4.63258E+03  1.80221E+02 -7.09564E+03  4.45671E+03 -7.44668E+03
  7.32403E+03 -4.30580E+03  8.90909E+03  1.17793E+03  6.00614E+03  6.01310E+03  1.10777E+03  7.99732E+03
 -2.59186E+03  6.49614E+03 -4.73115E+03  2.36937E+03 -2.73291E+03 -1.18768E+03 -1.37057E+03 -7.78640E+02
 -5.66632E+02  5.58239E+02 -1.00747E+03  2.57190E+03 -3.12507E+03  8.76592E+02 -4.82071E+03 -7.75230E+02
 -2.28950E+03 -5.31575E+03  1.06249E+00 -6.42760E+03  3.38133E+03 -6.03727E+03  6.12211E+03 -1.54407E+03
  5.81709E+03  3.88738E+03  2.26034E+03  5.18938E+03 -1.20043E+03  6.12983E+03 -3.86163E+03  3.67635E+03
 -5.45590E+03  3.36101E+02 -4.72536E+03 -3.49528E+03  1.93807E+01 -4.71862E+03  2.56017E+03 -4.03904E+03
  3.72555E+03 -1.58677E+03  2.64221E+03  9.37954E+02  5.78640E+02  2.07533E+03  3.58181E+02  6.95893E+02
  2.01970E+03  1.79685E+02  1.43563E+03  1.63145E+03  1.56229E+03  2.26373E+03  1.85887E+03  2.75183E+03
 -1.86050E+03  4.22612E+03 -4.55924E+03  4.76763E+03 -4.56207E+03  2.24438E+03 -6.18090E+03 -1.33153E+03
 -2.90761E+03 -5.73466E+03  1.19826E+03 -6.51372E+03  3.12341E+03 -4.30090E+03  4.09550E+03 -1.30462E+03
  3.58229E+03  2.32396E+03  9.00303E+02  3.71666E+03 -1.40419E+03  1.46420E+03 -1.93590E+03 -1.03718E+03
 -8.39506E+02 -2.15894E+03  1.71783E+03 -1.98482E+03  1.71308E+03 -1.08482E+03  2.65424E+03  4.33040E+02
  1.22298E+03  8.88413E+02  9.88942E+02  2.90560E+02 -2.33474E+02  5.68465E+02  1.31855E+03 -8.69251E+02
  9.89724E+02 -6.40080E+02  2.37709E+03  1.59496E+03  4.99426E+02  3.19695E+03 -1.24327E+03  4.01641E+03
 -2.80139E+03  2.16696E+03 -3.22823E+03  1.09622E+03 -2.56585E+03 -9.40324E+02 -9.66647E+02 -2.27937E+03
  7.28667E+01 -2.23480E+03  1.14175E+03 -1.06391E+03  6.61360E+02  2.08711E+03 -8.21032E+02  1.92732E+03
 -2.18476E+03  7.51771E+02 -2.25377E+03 -1.47338E+03 -1.27083E+03 -2.91409E+03 -1.33303E+02 -2.22669E+03
  7.42966E+02 -1.40517E+03  1.76806E+03 -1.93833E+02  2.36612E+03  4.31688E+01  2.88091E+02  1.16691E+03
 -7.53407E+02  8.45058E+02 -1.40997E+03 -8.87473E+02  1.03614E+03 -1.24522E+03  2.43491E+03 -1.29398E+03
  2.33595E+03  3.04071E+02  3.76088E+03  2.70062E+03  6.30946E+02  2.87214E+03 -4.93540E+02  2.99676E+03
 -1.56258E+03  6.80020E+02 -2.64069E+03  2.81386E+01 -1.72461E+03 -1.84037E+03  4.03393E+02 -1.70843E+03
  1.53267E+03 -1.02013E+03  1.87321E+03  9.90310E+02  2.21977E+02  1.97850E+03  2.28277E+01  1.48417E+03
 -7.46436E+02  7.03196E+02 -1.07217E+03 -3.28353E+02 -1.97054E+02 -4.50696E+01 -7.12117E+02  7.88606E+02
 -6.19179E+02  1.26754E+03 -2.83233E+03  9.37131E+02 -3.00951E+03  6.64518E+02 -3.46637E+03 -1.26006E+03
 -1.64133E+03 -3.82862E+03  1.34258E+03 -4.03073E+03  2.18525E+03 -3.70121E+03  4.74276E+03 -1.56200E+03
  3.50677E+03  5.14172E+02  1.79275E+03  2.47058E+03 -5.79891E+02  3.57847E+03 -5.89078E+02  2.41284E+03
 -1.08134E+03  1.01982E+03 -1.14000E+03 -9.85622E+02 -9.00254E+02  1.87195E+02 -9.14699E+02  5.50762E+00
 -1.45143E+03 -9.75774E+01 -8.83370E+02 -8.17472E+01  1.08468E+02 -7.49643E+02 -8.47852E+02 -9.20048E+02
  1.66556E+03 -9.72731E+02  7.73102E+02  5.97377E+02  2.01334E+03  1.78498E+03 -2.86666E+02  2.41790E+03
 -1.03754E+03  3.24657E+03 -3.13562E+03  1.80906E+03 -3.05648E+03 -7.22848E+02 -1.78566E+03 -2.38564E+03
 -1.90841E+03 -2.13904E+03  5.73661E+02 -2.09390E+03  1.64915E+03 -1.70917E+03  1.23642E+03 -4.82383E+01
  1.65029E+03  4.30606E+02 -7.11684E+01  5.10085E+02 -2.48650E+02 -4.40547E+02  3.66398E+01 -8.14809E+02
  1.25394E+03 -5.91812E+02  1.05308E+03  1.51963E+02  6.25027E+02  7.10938E+02 -1.24644E+02  1.45242E+03
 -1.03617E+03  9.70373E+02 -1.83554E+03 -1.11971E+02 -1.85867E+03 -1.27823E+03 -2.97726E+02 -2.28326E+03
  9.30115E+02 -9.48973E+02  1.39602E+03  2.95158E+01  1.78277E+03 -7.52209E+02  8.75741E+02  1.68082E+03
  7.66725E+02  1.43827E+03 -5.43308E+02  1.63036E+03 -5.33055E+02  1.09875E+03 -1.16488E+03  4.54250E+02
 -3.75896E+02 -4.26343E+02 -6.85334E+02  5.85345E+02 -6.01206E+00  7.02180E+01 -1.30632E+03 -1.33345E+02
 -1.96897E+03 -4.61274E+02 -1.01266E+03 -2.47656E+03  8.40782E+02 -2.34230E+03  9.89854E+02 -1.95092E+02
  1.41688E+03  4.21149E+02  1.89098E+02  6.53529E+02  3.63372E+02  1.72897E+03 -1.35440E+03  7.19863E+02
