 $NMID ID='MM_0lb_SNR400_12hz_g45_64.RAW', FMTDAT='(8E13.5)'
 TRAMP=1., VOLUME=1. $END
  3.09805E+05  2.48009E+02  3.37445E+05  2.50953E+05  8.46543E+04  3.37801E+05 -1.32546E+05  2.51247E+05
 -1.90679E+05  8.36485E+04 -1.12520E+05 -3.27236E+04  4.87850E+02 -5.10834E+04  5.40938E+04 -7.04542E+01
  3.49302E+04  5.31614E+04 -1.70236E+04  7.54926E+04 -6.06438E+04  6.39520E+04 -8.46904E+04  3.20682E+04
 -8.14990E+04 -1.15106E+04 -5.81292E+04 -5.11883E+04 -1.55861E+04 -6.95621E+04  2.78035E+04 -4.64982E+04
  4.07098E+04  3.26524E+03  1.61851E+04  4.80351E+04 -3.50697E+04  4.70949E+04 -6.70834E+04  3.84480E+02
 -5.36277E+04 -5.71706E+04 -6.71833E+03 -7.69165E+04  3.46566E+04 -5.53055E+04  4.77800E+04 -1.73287E+04
  4.40277E+04  1.13886E+04  3.20303E+04  2.58972E+04  1.60044E+04  3.02545E+04 -5.76478E+03  2.67104E+04
 -2.21855E+04  1.27986E+04 -1.81408E+04 -4.81517E+03  6.48239E+03 -7.63202E+03  2.24084E+04  1.26103E+04
  7.51784E+03  3.60408E+04 -3.21119E+04  3.60925E+04 -6.38617E+04  2.36194E+03 -5.68074E+04 -4.30116E+04
 -1.26225E+04 -6.37489E+04  4.03936E+04 -4.68157E+04  5.89188E+04 -2.09358E+03  3.47338E+04  3.34367E+04
 -4.95350E+03  3.73375E+04 -3.06271E+04  1.71749E+04 -3.11703E+04 -3.91083E+03 -1.71392E+04 -1.15743E+04
 -8.93539E+03 -1.42986E+04 -7.19361E+02 -1.87912E+04  7.76683E+03 -2.30852E+04  1.56654E+04 -1.34971E+04
  1.15345E+04  5.42321E+03 -9.01720E+03  1.27018E+04 -2.20692E+04 -5.31822E+03 -8.21373E+03 -3.42304E+04
  2.36931E+04 -4.51787E+04  4.87332E+04 -1.98368E+04  4.58054E+04  1.97535E+04  1.57382E+04  4.54970E+04
 -1.64593E+04  3.38955E+04 -2.52436E+04  2.00318E+03 -1.01948E+04 -2.83088E+04  2.12631E+04 -3.43001E+04
  4.14897E+04 -9.43598E+03  3.73734E+04  2.42352E+04  1.91707E+04  4.69204E+04 -8.38475E+03  5.09604E+04
 -3.22257E+04  3.45067E+04 -4.33619E+04  1.04275E+04 -4.42086E+04 -1.78231E+04 -2.45509E+04 -3.94896E+04
  6.41887E+03 -3.87246E+04  3.18096E+04 -1.52965E+04  3.00058E+04  1.08599E+04  4.12859E+03  1.97685E+04
 -1.41794E+04  9.62013E+03 -1.06971E+04 -7.87607E+03  6.29820E+03 -1.13052E+04  1.78028E+04  5.72211E+03
  1.41382E+04  2.18344E+04 -5.71816E+03  2.56994E+04 -2.32442E+04  1.14780E+04 -2.89925E+04 -4.34018E+03
 -2.18156E+04 -1.75986E+04 -1.02221E+04 -2.21675E+04  4.14404E+03 -2.11197E+04  1.71531E+04 -1.95819E+04
  2.81649E+04 -1.37717E+04  3.42777E+04  3.00709E+03  2.46007E+04  2.19182E+04  4.32796E+03  3.74354E+04
 -1.84769E+04  3.12518E+04 -2.88215E+04  1.06756E+04 -2.12296E+04 -1.03046E+04 -4.32425E+03 -1.42477E+04
  1.80463E+03 -2.74543E+03 -5.89654E+03  7.67998E+03 -1.73736E+04  4.99101E+03 -1.68799E+04 -8.39519E+03
 -1.04423E+04 -2.01521E+04  5.90930E+03 -2.45106E+04  1.60210E+04 -1.70365E+04  1.94853E+04 -1.41635E+03
  1.18956E+04  1.39790E+04 -1.41774E+03  2.04827E+04 -1.44804E+04  1.11700E+04 -2.01331E+04 -4.62497E+03
 -1.46911E+04 -1.85721E+04 -9.75873E+02 -2.49786E+04  1.09041E+04 -1.99341E+04  2.05216E+04 -9.48303E+03
  1.88949E+04  4.26395E+02  1.37735E+04  5.05545E+03  7.61842E+03  1.43582E+03  1.04721E+04 -1.83086E+03
  1.91024E+04  2.97358E+03  2.12986E+04  1.59102E+04  1.43463E+04  3.27662E+04 -3.53538E+03  3.72878E+04
 -2.19349E+04  3.08129E+04 -3.50443E+04  1.48506E+04 -3.68140E+04 -2.78588E+03 -3.00119E+04 -2.13709E+04
 -1.24728E+04 -3.00535E+04  1.06771E+04 -2.74182E+04  2.37742E+04 -1.36733E+04  2.01339E+04  5.98255E+03
  7.71820E+03  1.61387E+04 -9.58706E+03  1.45009E+04 -1.77741E+04  1.86189E+03 -1.34301E+04 -1.15445E+04
 -8.92110E+02 -1.58861E+04  8.69093E+03 -1.22361E+04  1.17231E+04 -1.76240E+03  3.14217E+03  7.28295E+03
 -7.73095E+03  3.00600E+03 -6.98239E+03 -5.55756E+03 -1.17625E+03 -1.47399E+04  1.00176E+04 -1.59020E+04
  1.81483E+04 -7.58120E+03  2.01578E+04  2.50425E+03  1.71238E+04  1.46497E+04  8.22366E+03  2.33859E+04
 -3.76095E+03  2.47933E+04 -1.63389E+04  1.58790E+04 -1.84101E+04  3.72900E+03 -1.23339E+04 -3.70083E+03
 -5.67515E+03 -5.88907E+03 -7.25890E+02  4.83594E+02 -2.71882E+03  2.87793E+03 -5.79834E+03  4.67883E+03
 -1.22470E+04 -9.67073E+02 -1.28128E+04 -1.00671E+04 -5.46696E+03 -1.56432E+04  6.05425E+03 -1.28119E+04
  1.02498E+04 -5.01566E+03  7.53051E+03  3.30213E+03 -6.26164E+01  4.73753E+03 -5.86216E+03 -1.14534E+02
 -6.19886E+03 -8.35439E+03 -1.03432E+03 -1.17303E+04  7.25567E+03 -1.24970E+04  1.51410E+04 -6.82950E+03
  1.86357E+04  2.26481E+03  1.36638E+04  1.05642E+04  2.62432E+03  1.47887E+04 -7.91745E+03  1.20868E+04
 -1.01678E+04  3.82642E+03 -5.58385E+03 -2.64424E+03  2.23570E+03 -2.85393E+03  7.24887E+03 -9.57321E+02
  6.11801E+03  6.20388E+03  1.04794E+03  1.04190E+04 -7.00655E+03  1.03678E+04 -1.14702E+04  2.37120E+03
 -8.53845E+03 -5.78582E+03  1.72126E+02 -1.03660E+04  7.03726E+03 -5.35615E+03  7.13259E+03  2.10630E+03
  1.58931E+03  7.01345E+03 -7.03583E+03  8.88545E+03 -9.87174E+03  4.01647E+03 -1.02802E+04 -3.86470E+03
 -5.51089E+03 -1.14939E+04  2.98575E+03 -1.35076E+04  1.09064E+04 -8.00575E+03  1.28710E+04  2.60486E+03
  7.60300E+03  1.01730E+04 -1.05747E+03  1.21072E+04 -9.55949E+03  6.97583E+03 -9.26659E+03 -1.11291E+03
 -8.27195E+03 -8.10985E+03 -1.36668E+03 -8.85766E+03  4.92644E+03 -7.17357E+03  5.84119E+03 -3.40417E+03
  3.74531E+03  1.22078E+03 -2.09353E+02  1.62859E+03  2.35935E+02 -1.84042E+03  2.01956E+03 -4.85276E+03
  8.95018E+03 -2.87478E+03  1.12285E+04  1.01067E+03  1.11987E+04  7.74287E+03  7.91285E+03  1.50009E+04
 -3.69631E+03  1.74561E+04 -1.49532E+04  1.26632E+04 -1.86413E+04  2.50110E+03 -1.54121E+04 -6.17740E+03
 -8.22243E+03 -1.23009E+04  8.56563E+01 -1.10349E+04  4.50943E+03 -5.28570E+03  4.01523E+03 -4.38830E+03
  2.21834E+03 -2.63582E+03  3.29616E+03 -3.03789E+03  5.31849E+03 -2.02571E+03  6.18616E+03 -1.16363E+03
  7.55294E+03  2.17225E+03  4.08638E+03  6.74272E+03 -1.70862E+03  7.46733E+03 -8.78778E+03  6.40851E+03
 -1.08839E+04 -8.13447E+02 -6.15156E+03 -6.23242E+03 -2.25798E+02 -1.11561E+04  6.15919E+03 -1.18328E+04
  1.16961E+04 -5.91212E+03  1.35588E+04  1.46713E+03  9.74074E+03  9.42228E+03  1.92108E+03  1.24475E+04
 -4.71860E+03  1.02354E+04 -7.51114E+03  3.91123E+03 -5.64571E+03 -2.15103E+03 -2.03008E+03 -1.85884E+03
 -1.04259E+03 -3.10861E+02 -2.07061E+03  2.16922E+03 -4.35470E+03  2.29361E+03 -7.31316E+03 -1.23338E+03
 -5.28584E+03 -7.76797E+03  1.18660E+03 -9.77371E+03  6.21656E+03 -9.11741E+03  9.58538E+03 -3.44314E+03
  9.08146E+03  4.62491E+03  4.32651E+03  8.34281E+03 -1.61909E+03  1.05167E+04 -7.43959E+03  6.22034E+03
 -9.19750E+03  1.38863E+02 -6.75421E+03 -6.53982E+03 -6.23289E+02 -9.03061E+03  4.24767E+03 -6.10836E+03
  6.00994E+03 -2.30020E+03  4.22813E+03  2.18899E+03  1.02850E+03  2.54175E+03  1.43600E+03  9.60911E+02
  2.82566E+03  7.20140E+02  2.47578E+03  1.72038E+03  2.88137E+03  4.12530E+03  2.93252E+03  5.03294E+03
 -2.13886E+03  7.78382E+03 -6.97178E+03  8.19499E+03 -9.51278E+03  2.82606E+03 -9.73275E+03 -4.12818E+03
 -4.39439E+03 -1.01815E+04  2.01654E+03 -1.13062E+04  5.72089E+03 -6.46675E+03  8.32729E+03 -1.65840E+03
  5.92059E+03  3.51931E+03  1.66492E+03  6.05675E+03 -2.38936E+03  3.53757E+03 -3.75857E+03 -3.80438E+02
 -1.18624E+03 -4.55645E+03  2.57657E+03 -4.76667E+03  3.37326E+03 -2.20389E+03  3.77758E+03  7.74396E+02
  1.75514E+03  1.78008E+03  1.40004E+03  1.34686E+03 -6.43641E+02  1.78821E+03  7.23083E+02 -4.71966E+02
  3.64341E+02  4.61686E+01  4.21919E+03  1.19502E+03  2.45146E+03  5.92726E+03 -8.09184E+02  6.76361E+03
 -5.19232E+03  4.34902E+03 -5.88029E+03  1.01363E+03 -5.02801E+03 -1.88446E+03 -2.06103E+03 -3.31303E+03
 -3.40871E+01 -4.29019E+03  2.04695E+03 -1.93257E+03  1.87392E+03  2.05650E+03 -8.10617E+02  3.33497E+03
 -4.08818E+03  2.15801E+03 -3.92818E+03 -2.25459E+03 -2.28667E+03 -5.55576E+03  1.54037E+03 -4.91165E+03
  3.02709E+03 -3.05988E+03  3.94535E+03 -2.10133E+02  3.27739E+03  9.18416E+02  6.87654E+01  3.02781E+03
 -2.33803E+03  3.23760E+02 -2.42372E+03 -2.20863E+03  9.95643E+02 -4.09147E+03  3.70071E+03 -3.12281E+03
  5.80828E+03  1.35678E+02  5.89200E+03  3.28041E+03  2.49393E+03  6.17948E+03 -2.13182E+03  6.02956E+03
 -4.51169E+03  2.06030E+03 -5.14096E+03 -8.92711E+02 -2.30810E+03 -3.87820E+03  1.03238E+03 -3.34062E+03
  4.26109E+03 -1.19283E+03  2.24343E+03  1.67155E+03  1.10276E+03  3.89568E+03 -3.56355E+01  2.73726E+03
 -1.86347E+03  2.14662E+03 -9.46775E+02  7.12471E+02 -2.88039E+02  1.11828E+03 -1.25374E+03  8.05915E+02
 -2.08451E+03  2.18929E+03 -4.61296E+03  1.63380E+03 -5.95793E+03  1.40502E+02 -7.65300E+03 -3.60603E+03
 -2.90505E+03 -7.97153E+03  1.20420E+03 -9.37827E+03  5.62112E+03 -6.87868E+03  8.44563E+03 -2.89081E+03
  7.98419E+03  1.65712E+03  5.31527E+03  5.56969E+03 -1.00749E+02  5.82579E+03 -2.46466E+03  4.39619E+03
 -3.22646E+03  1.89361E+03 -2.09191E+03 -6.54531E+02 -4.97658E+02 -3.87982E+02 -8.95475E+02  2.70819E+02
 -1.34435E+03 -6.93131E+01 -1.15193E+03 -2.74229E+02 -2.00463E+00 -1.33792E+03 -4.21315E+02 -2.58552E+03
  3.32399E+03 -1.88709E+03  3.00408E+03  3.55866E+02  3.85225E+03  2.89128E+03  4.24510E+02  5.74716E+03
 -2.97916E+03  6.86131E+03 -6.16002E+03  4.17128E+03 -6.97655E+03 -7.52926E+02 -5.48418E+03 -4.23351E+03
 -1.90310E+03 -5.17728E+03  1.27949E+03 -5.31244E+03  3.41267E+03 -3.42570E+03  3.76930E+03  3.36359E+02
  1.98393E+03  2.01279E+03  1.54207E+02  1.09425E+03 -1.44444E+03  6.68722E+02  5.27045E+02 -1.19917E+03
  8.11873E+02 -5.18064E+02  1.30310E+03  7.84336E+02  7.99428E+02  2.09092E+03  7.88291E+01  2.01401E+03
 -2.60461E+03  2.35106E+03 -4.10386E+03  7.40240E+02 -3.25723E+03 -2.22598E+03 -3.19682E+02 -4.70292E+03
  2.85402E+03 -3.72510E+03  4.12644E+03 -1.17383E+03  4.08763E+03  3.30396E+02  1.89367E+03  2.87683E+03
  3.31421E+02  3.75651E+03 -1.26666E+03  3.10152E+03 -1.29555E+03  1.62918E+03 -1.58347E+03  3.79413E+02
 -1.28581E+03 -1.88683E+02 -9.41514E+02  4.93360E+02 -1.85945E+03  5.20712E+02 -2.69055E+03 -1.20376E+03
 -2.65232E+03 -1.34281E+03 -9.32136E+02 -4.00652E+03  2.01959E+03 -3.69893E+03  3.20727E+03 -1.31702E+03
  3.99676E+03  6.39412E+02  1.51296E+03  2.32348E+03 -6.33659E+02  4.31187E+03 -2.87892E+03  2.76427E+03
