 $NMID ID='MM_0lb_SNR400_15hz_g45_51.RAW', FMTDAT='(8E13.5)'
 TRAMP=1., VOLUME=1. $END
  3.09717E+05 -3.23636E+01  3.37240E+05  2.50759E+05  8.43295E+04  3.37570E+05 -1.32279E+05  2.50345E+05
 -1.89875E+05  8.28114E+04 -1.11557E+05 -3.30756E+04  1.36368E+03 -5.00831E+04  5.39374E+04 -8.75984E+01
  3.54846E+04  5.28683E+04 -1.68552E+04  7.49713E+04 -6.04383E+04  6.26607E+04 -8.36440E+04  3.22316E+04
 -8.03998E+04 -1.12344E+04 -5.69423E+04 -5.09412E+04 -1.50337E+04 -6.93659E+04  2.72217E+04 -4.51258E+04
  3.99170E+04  4.04532E+03  1.59944E+04  4.70880E+04 -3.36219E+04  4.69780E+04 -6.60898E+04 -4.36676E+02
 -5.28822E+04 -5.65449E+04 -6.89211E+03 -7.61173E+04  3.37315E+04 -5.45383E+04  4.69929E+04 -1.75786E+04
  4.25783E+04  1.15022E+04  3.17582E+04  2.54126E+04  1.61433E+04  2.91990E+04 -5.29572E+03  2.74979E+04
 -2.20130E+04  1.24486E+04 -1.85754E+04 -5.09538E+03  5.07661E+03 -7.61696E+03  2.22672E+04  1.29241E+04
  7.66290E+03  3.43408E+04 -3.14168E+04  3.44313E+04 -6.28559E+04  1.98705E+03 -5.68745E+04 -4.24905E+04
 -1.27287E+04 -6.23503E+04  3.93324E+04 -4.46382E+04  5.74856E+04 -2.45437E+03  3.31932E+04  3.18332E+04
 -6.15595E+03  3.51969E+04 -2.93660E+04  1.44881E+04 -2.98480E+04 -4.45615E+03 -1.55328E+04 -1.11746E+04
 -8.23872E+03 -1.26393E+04 -8.78376E+02 -1.72150E+04  7.51312E+03 -2.25509E+04  1.58254E+04 -1.34330E+04
  1.17966E+04  4.74164E+03 -7.32386E+03  1.31576E+04 -2.09649E+04 -3.32741E+03 -8.58604E+03 -3.27210E+04
  2.24080E+04 -4.21430E+04  4.68957E+04 -1.95652E+04  4.46012E+04  1.91347E+04  1.56759E+04  4.34984E+04
 -1.60598E+04  3.24452E+04 -2.44446E+04  2.29495E+03 -9.25832E+03 -2.72718E+04  2.06893E+04 -3.31835E+04
  3.98296E+04 -7.97552E+03  3.49108E+04  2.38679E+04  1.66774E+04  4.50930E+04 -7.83357E+03  4.90639E+04
 -3.08280E+04  3.28608E+04 -4.06666E+04  9.06803E+03 -4.05572E+04 -1.59421E+04 -2.29776E+04 -3.67622E+04
  7.26044E+03 -3.60712E+04  3.01673E+04 -1.35142E+04  2.88480E+04  1.11401E+04  3.77985E+03  1.89574E+04
 -1.34441E+04  7.65510E+03 -9.51485E+03 -7.08586E+03  6.23626E+03 -1.05678E+04  1.76439E+04  6.27908E+03
  1.34210E+04  2.20425E+04 -6.45519E+03  2.46070E+04 -2.15272E+04  1.08382E+04 -2.72169E+04 -4.99475E+03
 -1.99902E+04 -1.70567E+04 -7.36464E+03 -2.02789E+04  3.37181E+03 -1.83681E+04  1.48683E+04 -1.63963E+04
  2.47806E+04 -1.23791E+04  3.11348E+04  1.95929E+03  2.33098E+04  1.84694E+04  4.66099E+03  3.51443E+04
 -1.72812E+04  2.97806E+04 -2.77148E+04  9.13961E+03 -2.04237E+04 -9.68124E+03 -3.71820E+03 -1.35849E+04
  2.14504E+03 -3.18784E+03 -3.85289E+03  6.32672E+03 -1.47737E+04  4.83758E+03 -1.54801E+04 -6.26505E+03
 -9.41724E+03 -1.75528E+04  4.74403E+03 -2.20579E+04  1.39127E+04 -1.60060E+04  1.78263E+04 -1.58895E+03
  1.06708E+04  1.23125E+04 -1.12855E+03  1.78992E+04 -1.20968E+04  1.00433E+04 -1.76551E+04 -3.92635E+03
 -1.31279E+04 -1.60416E+04 -1.95761E+03 -2.19340E+04  1.03724E+04 -1.80618E+04  1.77084E+04 -8.44023E+03
  1.64835E+04  4.03642E+01  1.24228E+04  4.84566E+03  6.44425E+03  1.00307E+03  8.59643E+03 -1.63683E+03
  1.65542E+04  2.91392E+03  1.73186E+04  1.44120E+04  1.13816E+04  2.89021E+04 -2.53567E+03  3.17373E+04
 -1.87752E+04  2.54605E+04 -3.00781E+04  1.17211E+04 -3.12869E+04 -2.72705E+03 -2.58652E+04 -1.78305E+04
 -1.17119E+04 -2.56726E+04  8.67247E+03 -2.25338E+04  1.98343E+04 -1.18852E+04  1.80273E+04  4.23533E+03
  7.73130E+03  1.31562E+04 -7.94334E+03  1.14100E+04 -1.55705E+04  3.01508E+03 -1.11213E+04 -9.37245E+03
  4.10344E+02 -1.44651E+04  7.00247E+03 -1.08404E+04  9.21515E+03 -1.81883E+03  1.70071E+03  6.26950E+03
 -6.81051E+03  2.19510E+03 -4.95829E+03 -4.95225E+03  4.88419E+02 -1.21268E+04  9.28988E+03 -1.28036E+04
  1.52985E+04 -6.24770E+03  1.58857E+04  2.81073E+03  1.35941E+04  1.23049E+04  6.54548E+03  1.80529E+04
 -2.58282E+03  2.04013E+04 -1.26783E+04  1.21846E+04 -1.45985E+04  3.28037E+03 -1.00931E+04 -2.06536E+03
 -5.08075E+03 -4.10445E+03 -7.84300E+02  1.41686E+03 -1.71124E+03  2.44576E+03 -4.19020E+03  4.08924E+03
 -9.88395E+03 -7.28632E+02 -1.07014E+04 -8.59661E+03 -4.70317E+03 -1.27312E+04  4.89017E+03 -1.04008E+04
  8.42005E+03 -4.37656E+03  6.43797E+03  2.15896E+03  6.18796E+01  3.83601E+03 -4.40588E+03 -3.99706E+02
 -4.60674E+03 -6.41142E+03 -1.00803E+03 -9.23748E+03  5.72018E+03 -1.00928E+04  1.26101E+04 -4.97444E+03
  1.45215E+04  1.19796E+03  1.11973E+04  8.24510E+03  1.80536E+03  1.17985E+04 -6.14937E+03  1.07233E+04
 -8.22648E+03  3.35675E+03 -4.70197E+03 -1.50139E+03  1.26844E+03 -2.35497E+03  5.57377E+03 -1.38294E+03
  4.80228E+03  3.88941E+03  1.30221E+03  7.84128E+03 -5.14790E+03  8.35486E+03 -1.04490E+04  1.89902E+03
 -6.84043E+03 -4.91102E+03 -3.93405E+02 -8.21492E+03  4.99519E+03 -2.96480E+03  5.14744E+03  1.42709E+03
  9.14371E+02  4.97122E+03 -5.08888E+03  6.70327E+03 -7.40632E+03  2.87716E+03 -6.59967E+03 -2.05317E+03
 -3.94547E+03 -8.73725E+03  1.88198E+03 -9.85992E+03  8.29167E+03 -6.00008E+03  9.04196E+03  1.57057E+03
  6.54119E+03  7.79870E+03 -6.21859E+02  9.87179E+03 -6.20377E+03  4.96650E+03 -7.21930E+03 -7.53742E+02
 -7.04908E+03 -6.34590E+03 -1.12745E+03 -6.87448E+03  3.32856E+03 -6.08650E+03  4.16926E+03 -3.39854E+03
  4.13300E+03  1.22838E+03 -2.45684E+02  1.67889E+03  7.78972E+02 -3.35927E+02  8.66002E+02 -3.10842E+03
  5.57056E+03 -2.32683E+03  8.11749E+03  7.31196E+02  8.45456E+03  4.81563E+03  6.37856E+03  1.08387E+04
 -2.03985E+03  1.20719E+04 -1.12675E+04  9.61293E+03 -1.42856E+04  1.67017E+03 -1.09569E+04 -4.60208E+03
 -5.73065E+03 -9.39052E+03 -2.89743E+02 -7.70373E+03  3.46746E+03 -4.17312E+03  3.06505E+03 -3.01400E+03
  2.52022E+03 -1.46943E+03  2.40048E+03 -2.44840E+03  3.62305E+03 -2.41760E+03  4.82160E+03  5.29306E+02
  6.18194E+03  1.96489E+03  2.57129E+03  5.47137E+03 -1.51820E+03  5.18847E+03 -6.27495E+03  4.14784E+03
 -7.23013E+03 -1.15246E+03 -3.75262E+03 -5.10794E+03  9.67572E+01 -8.43814E+03  4.69354E+03 -7.23734E+03
  7.95159E+03 -4.20781E+03  1.04208E+04  6.64335E+02  7.02802E+03  6.12742E+03  1.49813E+03  9.05989E+03
 -3.59943E+03  8.06837E+03 -4.95872E+03  2.49176E+03 -3.33425E+03 -1.25579E+03 -1.57923E+03 -1.05907E+03
 -3.60986E+02  3.55956E+02 -1.38991E+03  2.07256E+03 -3.09183E+03  1.65232E+03 -5.54622E+03 -6.87873E+02
 -3.10022E+03 -5.31874E+03  3.00446E+02 -7.18073E+03  3.93631E+03 -6.48344E+03  5.83207E+03 -1.82882E+03
  6.68736E+03  4.12403E+03  3.20916E+03  5.57367E+03 -1.30396E+03  7.05868E+03 -4.17095E+03  3.95746E+03
 -6.37325E+03  8.20923E+02 -5.17008E+03 -4.40013E+03 -3.26895E+02 -5.35528E+03  2.71019E+03 -3.73894E+03
  4.06092E+03 -1.62424E+03  3.44034E+03  9.24332E+02  7.01055E+02  2.05553E+03  8.31276E+02  4.00824E+02
  2.11884E+03  4.73812E+02  1.87643E+03  1.21467E+03  1.83534E+03  3.08038E+03  1.60260E+03  2.79307E+03
 -1.91416E+03  5.11535E+03 -4.00028E+03  5.75250E+03 -5.35897E+03  1.80660E+03 -6.59589E+03 -1.79332E+03
 -3.04972E+03 -6.04063E+03  1.30322E+03 -7.61724E+03  3.49760E+03 -4.20336E+03  4.49237E+03 -1.54193E+03
  4.21729E+03  2.54637E+03  8.61293E+02  4.07862E+03 -1.67611E+03  1.71290E+03 -2.49143E+03 -5.02693E+02
 -1.85992E+03 -2.43952E+03  1.89728E+03 -2.29946E+03  2.39650E+03 -1.85599E+03  2.47013E+03  7.73474E+02
  1.27293E+03  9.30908E+02  6.58678E+02  6.48085E+02 -9.27710E+02  1.06325E+03  1.73003E+03 -7.27920E+02
  3.64021E+02 -4.71320E+01  2.97938E+03  1.02851E+03  1.29620E+03  3.60372E+03 -8.31948E+02  5.00431E+03
 -2.58988E+03  2.47412E+03 -3.93029E+03  3.98699E+02 -4.01667E+03 -1.68356E+03 -6.46828E+02 -2.47643E+03
  4.28990E+02 -2.74031E+03  1.90922E+03 -6.55093E+02  1.12267E+03  1.63517E+03 -7.91032E+02  1.67767E+03
 -2.10448E+03  1.32831E+03 -2.14536E+03 -1.72587E+03 -1.07728E+03 -3.31510E+03  8.81687E+02 -3.60388E+03
  1.37348E+03 -2.22795E+03  1.94474E+03  2.16432E+02  2.50690E+03  7.94254E+02  2.33102E+02  1.66392E+03
 -1.06302E+03  3.33174E+02 -1.12525E+03 -4.25015E+02  5.91101E+02 -2.25107E+03  2.92659E+03 -1.51548E+03
  3.24975E+03  3.57475E+02  4.87899E+03  1.66466E+03  1.71020E+03  3.83996E+03 -9.32616E+02  3.09041E+03
 -3.13653E+03  1.08964E+03 -2.80210E+03 -4.62861E+02 -1.57852E+03 -2.56738E+03  4.19876E+02 -9.78651E+02
  2.44080E+03 -1.31290E+03  1.30542E+03  8.41507E+02  3.92599E+02  1.87230E+03  8.43336E+02  1.88658E+03
 -8.88700E+02  1.86533E+03 -8.45547E+02  5.37749E+02 -6.49688E+01  5.07287E+02 -3.88125E+02  1.01319E+03
 -1.23432E+03  1.61415E+03 -3.00055E+03  8.93316E+02 -3.18932E+03 -3.32403E+01 -3.68426E+03 -1.99830E+03
 -2.13603E+03 -4.63215E+03  5.85267E+02 -5.29448E+03  2.63000E+03 -4.14924E+03  5.20112E+03 -2.24100E+03
  4.98673E+03  3.14883E+02  2.43856E+03  3.52381E+03 -9.69776E+01  3.01868E+03 -1.56592E+03  2.18632E+03
 -1.37810E+03  1.35119E+03 -1.31700E+03 -5.88859E+02 -6.81946E+02  1.92991E+02 -4.60205E+02  3.38131E+02
 -1.48622E+03 -4.00187E+02 -1.24425E+03  3.16610E+00  5.71158E+02 -1.48845E+03 -2.78500E+02 -1.62885E+03
  1.95420E+03 -1.41802E+03  1.70914E+03  2.86868E+02  2.99714E+03  1.79086E+03 -1.45565E+02  2.94467E+03
 -1.67740E+03  4.07872E+03 -3.42592E+03  2.21918E+03 -3.89861E+03 -3.14031E+02 -2.52408E+03 -2.50194E+03
 -1.50943E+03 -3.00990E+03  3.28715E+02 -2.66599E+03  1.55422E+03 -1.88871E+03  1.77302E+03 -2.24404E+02
  1.20641E+03  1.10028E+03  4.53992E+02  8.82061E+02 -7.67450E+02 -4.06514E+02  1.29612E+02 -5.01400E+02
  6.59717E+02 -5.79852E+02  1.49275E+03  7.94800E+02  8.35904E+02  1.09454E+03  1.85866E+02  1.69761E+03
 -1.78137E+03  1.41343E+03 -1.44389E+03  1.54346E+02 -1.74610E+03 -1.91998E+03  6.80299E+00 -2.97299E+03
  1.64223E+03 -2.21895E+03  2.02905E+03 -2.10977E+02  1.72994E+03 -9.59730E+02  1.03546E+03  1.70926E+03
  4.13673E+02  1.54665E+03 -8.28520E+02  1.60712E+03 -1.43461E+03  1.07849E+03 -1.36050E+03 -6.86165E+01
 -8.40851E+02  3.46314E+02 -2.29721E+02  4.95408E+02 -7.48220E+02  7.25601E+02 -1.39598E+03 -3.29924E+02
 -1.73912E+03 -4.52173E+02 -2.61523E+02 -2.28188E+03  1.22040E+03 -2.07298E+03  1.56184E+03 -3.06957E+02
  1.46204E+03  1.14333E+03  6.48162E+02  9.55866E+02  4.76108E+02  1.52759E+03 -9.73118E+02  1.40001E+03
