 $NMID ID='MM_0lb_SNR400_7hz_g45_22.RAW', FMTDAT='(8E13.5)'
 TRAMP=1., VOLUME=1. $END
  3.09895E+05  5.22596E+02  3.37231E+05  2.50593E+05  8.50323E+04  3.39027E+05 -1.32218E+05  2.51716E+05
 -1.91316E+05  8.44750E+04 -1.13309E+05 -3.30038E+04 -1.41662E+01 -5.05823E+04  5.40319E+04 -5.90986E+02
  3.56812E+04  5.34020E+04 -1.53439E+04  7.64662E+04 -6.09471E+04  6.58036E+04 -8.54122E+04  3.22565E+04
 -8.26480E+04 -1.20260E+04 -5.86648E+04 -5.30761E+04 -1.43584E+04 -7.18082E+04  2.87110E+04 -4.69319E+04
  4.10053E+04  4.41361E+03  1.65901E+04  4.92015E+04 -3.46107E+04  4.76207E+04 -6.78394E+04  1.56743E+02
 -5.52677E+04 -5.76431E+04 -7.90430E+03 -7.97102E+04  3.49543E+04 -5.73928E+04  5.00368E+04 -1.93563E+04
  4.58161E+04  1.21543E+04  3.37009E+04  2.71496E+04  1.60740E+04  3.05725E+04 -5.97157E+03  2.78467E+04
 -2.26813E+04  1.23023E+04 -1.72244E+04 -6.11269E+03  8.49638E+03 -7.30067E+03  2.30856E+04  1.41491E+04
  7.55310E+03  3.82326E+04 -3.48522E+04  3.74172E+04 -6.59932E+04  1.86128E+03 -6.03064E+04 -4.43919E+04
 -1.22439E+04 -6.67339E+04  4.21444E+04 -4.87191E+04  6.24384E+04 -2.22592E+03  3.80309E+04  3.51163E+04
 -5.10628E+03  4.05849E+04 -3.29724E+04  1.95268E+04 -3.39863E+04 -3.67566E+03 -2.03495E+04 -1.14660E+04
 -9.65262E+03 -1.51995E+04 -5.95719E+02 -1.96607E+04  9.12907E+03 -2.36841E+04  1.65431E+04 -1.24265E+04
  9.44502E+03  6.58346E+03 -1.09661E+04  1.27018E+04 -2.40068E+04 -7.43299E+03 -9.76275E+03 -3.87985E+04
  2.55289E+04 -4.84219E+04  5.31753E+04 -2.12464E+04  4.94873E+04  2.19008E+04  1.76356E+04  4.77152E+04
 -1.65985E+04  3.64964E+04 -2.85031E+04  3.03479E+03 -1.28186E+04 -2.91670E+04  2.03873E+04 -3.79163E+04
  4.43191E+04 -1.18316E+04  4.16854E+04  2.55051E+04  2.27178E+04  5.29967E+04 -8.68717E+03  5.77851E+04
 -3.67034E+04  4.04192E+04 -4.92267E+04  1.19417E+04 -4.92254E+04 -1.93615E+04 -2.71157E+04 -4.37729E+04
  7.78438E+03 -4.29480E+04  3.42951E+04 -1.77005E+04  3.35184E+04  1.12756E+04  6.35742E+03  2.13433E+04
 -1.46406E+04  1.09908E+04 -1.19231E+04 -7.40750E+03  5.43237E+03 -1.21490E+04  1.86251E+04  5.01561E+03
  1.53596E+04  2.31094E+04 -3.86258E+03  2.75943E+04 -2.28989E+04  1.49641E+04 -3.27122E+04 -2.58661E+03
 -2.73628E+04 -1.97458E+04 -1.27490E+04 -2.59046E+04  4.99769E+03 -2.85648E+04  2.10423E+04 -2.45812E+04
  3.44184E+04 -1.45862E+04  4.00076E+04  5.52661E+03  2.79614E+04  2.55475E+04  5.15183E+03  4.29274E+04
 -2.06044E+04  3.55452E+04 -3.11153E+04  1.13076E+04 -2.39307E+04 -1.02325E+04 -4.95140E+03 -1.28077E+04
  3.54381E+01 -8.81179E+02 -7.35247E+03  8.60850E+03 -2.13357E+04  4.79245E+03 -2.11587E+04 -1.10683E+04
 -1.28565E+04 -2.53444E+04  5.71325E+03 -2.90307E+04  2.05018E+04 -2.04258E+04  2.44087E+04 -2.26108E+03
  1.54469E+04  1.64532E+04 -2.15157E+03  2.48480E+04 -1.82982E+04  1.44085E+04 -2.58609E+04 -5.00877E+03
 -1.82776E+04 -2.25798E+04 -2.64901E+03 -3.01724E+04  1.29508E+04 -2.52403E+04  2.48090E+04 -1.37901E+04
  2.40094E+04  1.13300E+02  1.73505E+04  5.65847E+03  8.86246E+03  1.23933E+03  1.38260E+04 -2.04094E+03
  2.37903E+04  3.23505E+03  2.77588E+04  2.03411E+04  1.84675E+04  4.04237E+04 -2.67431E+03  4.80548E+04
 -2.71239E+04  4.11697E+04 -4.48515E+04  2.16811E+04 -4.87756E+04 -3.81013E+03 -3.94664E+04 -2.94340E+04
 -1.51379E+04 -4.14101E+04  1.49526E+04 -3.51122E+04  3.10361E+04 -1.72367E+04  2.62625E+04  8.66451E+03
  8.68867E+03  2.16941E+04 -1.29917E+04  1.75498E+04 -2.23816E+04  2.88748E+03 -1.54951E+04 -1.42550E+04
  1.12612E+02 -2.08670E+04  1.11681E+04 -1.49835E+04  1.44638E+04 -5.97634E+02  3.43361E+03  9.26991E+03
 -9.54485E+03  4.71503E+03 -1.07886E+04 -7.28203E+03 -2.61716E+03 -1.94039E+04  1.32768E+04 -2.22472E+04
  2.62958E+04 -1.27767E+04  2.92807E+04  3.62332E+03  2.60071E+04  2.05040E+04  1.19059E+04  3.26739E+04
 -5.44725E+03  3.48738E+04 -2.28567E+04  2.20118E+04 -2.47467E+04  3.88161E+03 -1.71052E+04 -7.61830E+03
 -7.47403E+03 -7.41289E+03 -7.21335E+02  2.14226E+02 -3.00374E+03  3.70789E+03 -7.68132E+03  5.50128E+03
 -1.55172E+04 -1.35092E+03 -1.48142E+04 -1.29021E+04 -6.88700E+03 -2.10347E+04  7.08302E+03 -1.79777E+04
  1.40174E+04 -7.16674E+03  9.61794E+03  4.47479E+03 -2.38888E+02  7.26638E+03 -9.08207E+03 -1.06107E+02
 -7.47361E+03 -1.14097E+04 -8.11573E+02 -1.80610E+04  1.04774E+04 -1.80826E+04  2.21751E+04 -1.05323E+04
  2.67855E+04  2.43263E+03  1.91157E+04  1.55288E+04  3.65898E+03  2.15095E+04 -1.11931E+04  1.73082E+04
 -1.31727E+04  4.05162E+03 -6.80202E+03 -4.17744E+03  3.12475E+03 -5.77910E+03  8.84177E+03 -4.61682E+02
  8.43299E+03  8.10629E+03  1.03772E+03  1.44553E+04 -1.04821E+04  1.29962E+04 -1.74125E+04  4.07543E+03
 -1.18336E+04 -8.95186E+03 -8.13439E+02 -1.44780E+04  1.08371E+04 -7.16697E+03  1.17741E+04  4.21844E+03
  2.89325E+03  1.05551E+04 -8.30976E+03  1.31738E+04 -1.60248E+04  5.83037E+03 -1.68820E+04 -6.43201E+03
 -9.30153E+03 -1.88298E+04  5.05727E+03 -2.14092E+04  1.78226E+04 -1.18426E+04  1.87294E+04  3.69545E+03
  1.12485E+04  1.61223E+04 -2.30810E+03  1.84658E+04 -1.37416E+04  1.05662E+04 -1.47022E+04 -2.62584E+03
 -1.27059E+04 -1.23889E+04 -2.57794E+03 -1.38024E+04  7.71172E+03 -1.14253E+04  8.87743E+03 -3.34678E+03
  4.52338E+03  3.05421E+03 -1.08949E+03  1.99251E+03 -1.29336E+03 -4.40542E+03  3.36006E+03 -8.71385E+03
  1.28242E+04 -5.47419E+03  1.91876E+04  2.33611E+03  1.75559E+04  1.31221E+04  1.09784E+04  2.56689E+04
 -5.57569E+03  2.89724E+04 -2.25929E+04  2.12718E+04 -2.96087E+04  4.29723E+03 -2.46723E+04 -1.09414E+04
 -1.20567E+04 -1.90137E+04  4.07291E+02 -1.73617E+04  5.84528E+03 -9.78842E+03  6.13119E+03 -6.66645E+03
  4.80950E+03 -2.89003E+03  4.34063E+03 -5.28268E+03  6.63626E+03 -3.96578E+03  9.54102E+03 -2.80959E+03
  1.14355E+04  2.11642E+03  7.54209E+03  1.07161E+04 -2.70547E+03  1.31684E+04 -1.40650E+04  1.07837E+04
 -1.67888E+04 -2.34355E+03 -1.14242E+04 -1.24130E+04 -3.01897E+03 -1.86618E+04  1.02066E+04 -1.94518E+04
  2.00380E+04 -1.04810E+04  2.34907E+04  2.74205E+03  1.67243E+04  1.69182E+04  2.86157E+03  2.09057E+04
 -8.76151E+03  1.60778E+04 -1.24649E+04  5.99607E+03 -7.73973E+03 -1.44123E+03 -3.83603E+03 -2.01796E+03
 -1.21834E+03 -3.08008E+02 -1.85261E+03  3.41974E+03 -6.54965E+03  3.60102E+03 -1.12416E+04 -1.57416E+03
 -9.72828E+03 -1.22905E+04 -6.19865E+02 -1.78217E+04  1.11799E+04 -1.67476E+04  1.83322E+04 -5.29821E+03
  1.77124E+04  8.75261E+03  8.56973E+03  1.60060E+04 -3.78319E+03  1.88912E+04 -1.35096E+04  1.11126E+04
 -1.73709E+04  2.11801E+02 -1.30529E+04 -1.04700E+04 -1.63041E+03 -1.44687E+04  7.44862E+03 -1.09528E+04
  1.15993E+04 -3.29352E+03  8.14457E+03  2.37138E+03  2.73333E+03  4.87265E+03  1.58358E+03  2.76187E+03
  3.48868E+03  1.39158E+03  4.11500E+03  1.78874E+03  5.27297E+03  6.22536E+03  5.31326E+03  1.09062E+04
 -3.43358E+03  1.53495E+04 -1.29470E+04  1.43635E+04 -1.96379E+04  2.96592E+03 -2.00916E+04 -8.19970E+03
 -9.75673E+03 -1.91838E+04  3.03943E+03 -1.96802E+04  1.13637E+04 -1.27321E+04  1.51597E+04 -3.71871E+03
  1.11825E+04  6.44954E+03  3.30977E+03  1.10438E+04 -5.29182E+03  6.70482E+03 -7.89652E+03 -1.09259E+03
 -3.17190E+03 -7.83853E+03  4.24639E+03 -8.89505E+03  8.31079E+03 -3.98248E+03  7.43398E+03  2.71124E+03
  5.35306E+03  4.48170E+03  9.63611E+02  4.06259E+03 -6.94145E+02  1.98222E+03  1.77275E+03 -4.16185E+02
  3.47708E+03 -5.48127E+02  6.99668E+03  3.29110E+03  4.07772E+03  9.51011E+03 -1.44338E+03  1.34914E+04
 -9.04753E+03  9.20668E+03 -1.17022E+04  2.96745E+03 -1.13615E+04 -3.98948E+03 -3.92822E+03 -6.88316E+03
  7.36786E+02 -6.88397E+03  5.44739E+03 -3.64406E+03  3.84673E+03  4.05039E+03 -2.37001E+03  5.86949E+03
 -7.85913E+03  3.19826E+03 -9.34059E+03 -3.60459E+03 -5.62453E+03 -1.12447E+04  7.46636E+02 -1.12808E+04
  6.94278E+03 -6.48352E+03  8.04694E+03 -7.19433E+02  7.04502E+03  3.65352E+03  9.68570E+02  5.21544E+03
 -4.70279E+03  2.36260E+03 -6.04060E+03 -4.47683E+03  1.84008E+03 -8.89932E+03  1.05511E+04 -7.02142E+03
  1.31565E+04  1.84620E+03  1.12670E+04  8.23334E+03  3.00776E+03  1.36681E+04 -5.15379E+03  1.29265E+04
 -1.03320E+04  6.07939E+03 -1.17589E+04 -2.32129E+03 -6.92296E+03 -8.90199E+03  2.70419E+03 -9.32141E+03
  8.00861E+03 -3.81581E+03  7.54253E+03  2.73267E+03  2.84629E+03  7.81386E+03 -4.94129E+02  6.69677E+03
 -2.96248E+03  3.18080E+03 -3.00851E+03  9.33961E+02 -2.41392E+03  2.27872E+03 -1.77453E+03  1.86648E+03
 -2.71391E+03  5.21468E+03 -8.53986E+03  5.19457E+03 -1.37529E+04  7.90955E+02 -1.50500E+04 -8.76767E+03
 -7.14733E+03 -1.79266E+04  4.14143E+03 -2.07949E+04  1.35527E+04 -1.52169E+04  1.94163E+04 -6.52063E+03
  1.83458E+04  3.34302E+03  1.09620E+04  1.20959E+04  2.06151E+03  1.42831E+04 -4.82689E+03  9.74345E+03
 -7.52390E+03  4.41206E+03 -5.77755E+03 -1.87251E+03 -2.35024E+03 -4.49784E+02 -7.84648E+02  4.84492E+02
 -3.59304E+03  9.50323E+02 -2.61022E+03 -1.30051E+03 -1.34081E+03 -3.80430E+03  9.11247E+02 -5.27775E+03
  6.41363E+03 -3.92359E+03  8.48989E+03 -1.95632E+02  1.03935E+04  8.14553E+03  2.90804E+03  1.43907E+04
 -6.48207E+03  1.66060E+04 -1.47914E+04  1.01000E+04 -1.78639E+04 -1.84884E+03 -1.32648E+04 -1.04488E+04
 -4.89534E+03 -1.54082E+04  3.70794E+03 -1.27813E+04  9.70266E+03 -6.57883E+03  9.86755E+03 -4.61294E+02
  5.44675E+03  4.09249E+03 -1.77021E+03  4.46489E+03 -2.00529E+03 -2.79984E+02  7.41408E+02 -4.30311E+03
  4.98408E+03 -2.63911E+03  6.59647E+03  2.12197E+03  4.38299E+03  6.16198E+03 -4.22148E+02  7.79973E+03
 -6.46398E+03  7.54979E+03 -9.04562E+03  9.52356E+02 -8.74793E+03 -7.12529E+03 -1.91067E+03 -1.30214E+04
  6.86886E+03 -9.63205E+03  1.16005E+04 -4.02801E+03  1.18037E+04  2.46475E+03  6.98821E+03  8.99007E+03
  1.79315E+03  1.01952E+04 -3.49020E+03  8.25042E+03 -6.46433E+03  4.91151E+03 -5.81439E+03  3.53455E+02
 -2.21326E+03 -1.26534E+03 -2.55609E+03  1.68627E+03 -4.42780E+03  1.55002E+03 -7.25846E+03 -1.85067E+03
 -6.64413E+03 -5.12221E+03 -2.23227E+03 -1.02521E+04  4.95210E+03 -1.03336E+04  9.31618E+03 -5.50204E+03
  9.76516E+03  8.85645E+02  6.65762E+03  6.66091E+03 -5.21179E+02  1.00249E+04 -7.98670E+03  6.18459E+03
