 $NMID ID='MM_0lb_SNR400_12hz_g50_53.RAW', FMTDAT='(8E13.5)'
 TRAMP=1., VOLUME=1. $END
  3.10211E+05  3.68987E+02  3.37539E+05  2.50435E+05  8.44812E+04  3.38420E+05 -1.32474E+05  2.51420E+05
 -1.89849E+05  8.30723E+04 -1.12685E+05 -3.27274E+04  3.82732E+01 -5.11115E+04  5.32809E+04 -4.07583E+02
  3.54916E+04  5.27140E+04 -1.66686E+04  7.53735E+04 -6.09423E+04  6.37602E+04 -8.45143E+04  3.24568E+04
 -8.07001E+04 -1.13288E+04 -5.72410E+04 -5.13585E+04 -1.53524E+04 -6.98511E+04  2.80706E+04 -4.65172E+04
  4.02025E+04  3.78455E+03  1.62771E+04  4.81317E+04 -3.48318E+04  4.78381E+04 -6.73377E+04  1.62717E+01
 -5.42413E+04 -5.75366E+04 -5.92846E+03 -7.79191E+04  3.45542E+04 -5.60950E+04  4.87407E+04 -1.80929E+04
  4.38242E+04  1.05195E+04  3.26047E+04  2.64418E+04  1.62230E+04  3.07251E+04 -5.26126E+03  2.83422E+04
 -2.25307E+04  1.18590E+04 -1.87056E+04 -5.37194E+03  6.56081E+03 -7.27101E+03  2.30334E+04  1.30924E+04
  8.01985E+03  3.65120E+04 -3.26360E+04  3.60665E+04 -6.40725E+04  1.90924E+03 -5.78765E+04 -4.38162E+04
 -1.26326E+04 -6.38636E+04  4.13558E+04 -4.64561E+04  5.99290E+04 -3.04558E+03  3.53487E+04  3.28502E+04
 -5.80682E+03  3.78667E+04 -3.07891E+04  1.61136E+04 -3.13702E+04 -4.30757E+03 -1.75724E+04 -1.14230E+04
 -8.69084E+03 -1.45886E+04 -3.84991E+02 -1.92069E+04  7.58135E+03 -2.28226E+04  1.52789E+04 -1.31622E+04
  1.04907E+04  6.16837E+03 -9.55374E+03  1.27909E+04 -2.22683E+04 -5.75677E+03 -8.85615E+03 -3.54889E+04
  2.31956E+04 -4.43787E+04  5.00759E+04 -2.07855E+04  4.62018E+04  2.03856E+04  1.61695E+04  4.51884E+04
 -1.56889E+04  3.46681E+04 -2.62787E+04  2.41203E+03 -1.01321E+04 -2.83181E+04  2.17172E+04 -3.53831E+04
  4.18049E+04 -9.69504E+03  3.78679E+04  2.40818E+04  1.86325E+04  4.83707E+04 -8.46625E+03  5.20595E+04
 -3.35137E+04  3.55051E+04 -4.43242E+04  1.07133E+04 -4.46226E+04 -1.74583E+04 -2.48148E+04 -3.96680E+04
  7.19923E+03 -3.98622E+04  3.28486E+04 -1.51505E+04  3.02099E+04  1.10809E+04  4.67166E+03  1.99669E+04
 -1.39295E+04  9.02334E+03 -1.12298E+04 -7.71520E+03  5.86480E+03 -1.11087E+04  1.75901E+04  6.13691E+03
  1.43728E+04  2.22595E+04 -6.01099E+03  2.57923E+04 -2.26633E+04  1.26311E+04 -2.89297E+04 -3.40133E+03
 -2.24007E+04 -1.81749E+04 -9.36781E+03 -2.17675E+04  4.10692E+03 -2.21681E+04  1.74967E+04 -2.03847E+04
  2.77975E+04 -1.30637E+04  3.51391E+04  3.25103E+03  2.55410E+04  2.21200E+04  3.56249E+03  3.79234E+04
 -1.85882E+04  3.18442E+04 -2.91463E+04  1.07019E+04 -2.16533E+04 -1.02112E+04 -4.35279E+03 -1.36413E+04
  1.12095E+03 -1.80300E+03 -6.31928E+03  8.14551E+03 -1.78904E+04  5.56286E+03 -1.85411E+04 -7.40932E+03
 -1.07862E+04 -1.99261E+04  4.77009E+03 -2.45077E+04  1.67035E+04 -1.69975E+04  1.95740E+04 -1.91684E+03
  1.31201E+04  1.41486E+04 -1.13993E+03  2.14244E+04 -1.46245E+04  1.19528E+04 -2.05445E+04 -4.43023E+03
 -1.45631E+04 -1.84206E+04 -2.52635E+03 -2.53878E+04  1.15715E+04 -2.11623E+04  2.04126E+04 -1.09719E+04
  1.90795E+04  1.28157E+02  1.38192E+04  4.20988E+03  7.16635E+03  1.44073E+03  1.09543E+04 -2.00141E+03
  1.99416E+04  3.17661E+03  2.16646E+04  1.65232E+04  1.39660E+04  3.34540E+04 -2.85909E+03  3.84440E+04
 -2.17944E+04  3.10719E+04 -3.63144E+04  1.55709E+04 -3.75176E+04 -3.16909E+03 -3.15178E+04 -2.24924E+04
 -1.27377E+04 -3.15929E+04  1.11440E+04 -2.83787E+04  2.37807E+04 -1.34091E+04  2.09004E+04  6.78101E+03
  7.77334E+03  1.56047E+04 -9.84630E+03  1.36574E+04 -1.72232E+04  2.87315E+03 -1.29250E+04 -1.11970E+04
 -5.61872E+02 -1.68726E+04  8.82610E+03 -1.29212E+04  1.11833E+04 -1.67952E+03  3.07529E+03  7.35769E+03
 -7.38725E+03  3.47443E+03 -7.27402E+03 -6.49163E+03 -1.28419E+03 -1.53512E+04  9.95566E+03 -1.62749E+04
  1.92544E+04 -9.31327E+03  2.08758E+04  2.29874E+03  1.85626E+04  1.46546E+04  8.65013E+03  2.41860E+04
 -3.98385E+03  2.58017E+04 -1.64992E+04  1.60056E+04 -1.80662E+04  3.67850E+03 -1.29567E+04 -4.09174E+03
 -5.65091E+03 -6.04952E+03 -7.31082E+02  6.20741E+02 -3.01547E+03  3.99696E+03 -6.18766E+03  5.48776E+03
 -1.19105E+04 -8.82660E+02 -1.31323E+04 -9.95730E+03 -4.49182E+03 -1.61782E+04  5.00506E+03 -1.28207E+04
  1.11595E+04 -5.59972E+03  7.66873E+03  3.72085E+03  1.14057E+02  5.13161E+03 -6.07970E+03  5.93431E+02
 -6.02503E+03 -8.14659E+03 -3.81194E+02 -1.25075E+04  6.91133E+03 -1.30832E+04  1.60312E+04 -7.09686E+03
  1.91352E+04  1.40864E+03  1.46239E+04  1.11664E+04  3.44275E+03  1.44966E+04 -7.97017E+03  1.27691E+04
 -1.05975E+04  4.24470E+03 -5.82090E+03 -2.63572E+03  1.76683E+03 -3.34394E+03  7.41586E+03 -1.31757E+03
  6.45802E+03  5.60567E+03  1.11416E+03  1.03877E+04 -7.95908E+03  9.56393E+03 -1.27276E+04  2.51380E+03
 -8.93727E+03 -6.23195E+03  6.26362E+01 -1.05274E+04  6.42032E+03 -5.25737E+03  6.87384E+03  2.47029E+03
  1.40199E+03  7.54232E+03 -7.00856E+03  9.27429E+03 -1.03587E+04  4.38782E+03 -9.33293E+03 -3.67211E+03
 -6.75869E+03 -1.16731E+04  3.33412E+03 -1.43071E+04  1.13642E+04 -8.92380E+03  1.30721E+04  2.13848E+03
  8.00394E+03  9.95149E+03 -7.30291E+02  1.29027E+04 -9.24314E+03  7.31219E+03 -9.91856E+03 -1.13628E+03
 -8.87559E+03 -8.92313E+03 -9.09464E+02 -9.41155E+03  4.59026E+03 -7.30776E+03  6.58486E+03 -3.94980E+03
  4.37015E+03  5.13820E+02 -8.84282E+02  1.68470E+03 -4.42616E+02 -2.46860E+03  1.84088E+03 -5.17193E+03
  8.18748E+03 -3.60886E+03  1.15937E+04  1.33274E+03  1.20840E+04  7.96381E+03  8.06704E+03  1.54018E+04
 -3.85264E+03  1.75363E+04 -1.49307E+04  1.34636E+04 -1.94513E+04  2.74178E+03 -1.61735E+04 -5.89123E+03
 -7.27796E+03 -1.27938E+04 -5.57690E+02 -1.03990E+04  3.38602E+03 -5.63902E+03  3.36241E+03 -3.42722E+03
  3.25637E+03 -2.19452E+03  3.15978E+03 -3.19355E+03  5.28131E+03 -2.65286E+03  5.98157E+03 -2.12588E+02
  8.88012E+03  2.48478E+03  3.32118E+03  7.46997E+03 -2.60853E+03  8.15169E+03 -8.59006E+03  6.21281E+03
 -1.03949E+04 -1.09173E+03 -6.76306E+03 -7.58198E+03 -6.19138E+02 -1.09829E+04  6.09178E+03 -1.12133E+04
  1.15991E+04 -6.49980E+03  1.39100E+04  1.50812E+03  9.73371E+03  9.59824E+03  1.44791E+03  1.35119E+04
 -5.22283E+03  1.08032E+04 -7.58222E+03  3.86246E+03 -4.95274E+03 -1.37185E+03 -1.47242E+03 -1.78778E+03
 -7.19752E+02  3.44702E+02 -2.21665E+03  2.32276E+03 -5.00199E+03  2.10047E+03 -7.63373E+03 -1.61294E+03
 -5.18327E+03 -7.53264E+03  4.67167E+02 -9.83617E+03  6.74382E+03 -1.02263E+04  9.82411E+03 -3.00715E+03
  9.49535E+03  4.97439E+03  4.65638E+03  8.63937E+03 -2.05021E+03  1.09644E+04 -7.05426E+03  7.36617E+03
 -9.85214E+03 -1.21991E+02 -8.09303E+03 -6.39633E+03 -1.20251E+03 -7.87762E+03  4.55209E+03 -6.67627E+03
  6.38906E+03 -2.82170E+03  4.18070E+03  1.09379E+03  1.28688E+03  3.22985E+03  1.11022E+03  8.04847E+02
  1.74713E+03  1.25729E+03  3.38227E+03  1.53770E+03  2.58379E+03  3.91059E+03  2.36284E+03  4.49218E+03
 -2.76494E+03  8.30642E+03 -7.47906E+03  8.89524E+03 -9.74887E+03  2.49564E+03 -1.01247E+04 -3.69675E+03
 -5.02492E+03 -9.59102E+03  1.74433E+03 -1.12579E+04  6.13086E+03 -7.33040E+03  8.13304E+03 -2.00990E+03
  6.10708E+03  3.51548E+03  1.48668E+03  5.56802E+03 -2.74106E+03  4.39889E+03 -4.02297E+03 -1.02642E+02
 -2.59415E+03 -4.45470E+03  2.92736E+03 -4.30256E+03  4.31958E+03 -1.77681E+03  4.13530E+03  5.44248E+02
  2.40467E+03  1.79528E+03  1.15649E+03  1.66219E+03 -9.65749E+02  1.31192E+03  1.73325E+03 -8.24400E+02
  1.79294E+03 -1.15717E+03  3.72374E+03  2.28875E+03  2.05735E+03  5.93397E+03 -1.10685E+03  7.46624E+03
 -5.33625E+03  4.06275E+03 -6.00949E+03  8.19986E+02 -5.49853E+03 -2.09078E+03 -1.50291E+03 -4.44820E+03
  6.94774E+02 -3.62757E+03  2.22113E+03 -1.94809E+03  1.88971E+03  2.20523E+03 -8.45745E+02  2.76195E+03
 -3.97076E+03  1.81011E+03 -4.95069E+03 -2.43121E+03 -2.42831E+03 -5.78607E+03  1.23475E+03 -6.26144E+03
  2.37545E+03 -3.21891E+03  3.76292E+03 -4.87605E+02  3.46549E+03  7.44375E+02  3.00060E+02  2.97810E+03
 -1.75919E+03  7.19948E+02 -2.90001E+03 -1.53314E+03  6.90182E+02 -3.72794E+03  4.63179E+03 -3.70814E+03
  5.57478E+03  7.03167E+02  6.04935E+03  4.28921E+03  2.24361E+03  6.42168E+03 -1.98751E+03  5.88057E+03
 -4.69425E+03  1.84465E+03 -4.74019E+03 -4.90628E+02 -2.50951E+03 -3.69107E+03  5.96407E+02 -3.47073E+03
  3.92207E+03 -1.75373E+03  3.55572E+03  1.88075E+03  6.10667E+02  4.17709E+03 -8.73774E+02  2.78243E+03
 -1.57881E+03  1.76608E+03 -1.43539E+03  7.31197E+02 -3.88563E+02 -1.07108E+02 -1.67154E+03  1.53131E+03
 -1.32539E+03  2.92707E+03 -4.32979E+03  2.23230E+03 -6.87059E+03  2.65426E+02 -6.62159E+03 -3.55647E+03
 -3.21126E+03 -8.60590E+03  1.53870E+03 -9.33966E+03  5.19667E+03 -7.14850E+03  9.19662E+03 -2.88962E+03
  7.94971E+03  1.04283E+03  4.58511E+03  5.89178E+03  1.58151E+02  6.21611E+03 -3.05772E+03  3.84668E+03
 -4.19632E+03  2.31914E+03 -1.60167E+03 -3.26486E+02 -9.11623E+02 -5.74661E+02 -6.78330E+01  1.05827E+02
 -2.01174E+03  1.53357E+02 -9.18566E+02 -3.18249E+02 -1.09336E+02 -9.24289E+02  4.01526E+02 -2.89189E+03
  3.19206E+03 -2.08490E+03  3.15807E+03 -9.53975E+01  4.46035E+03  3.33316E+03  6.69643E+02  5.88164E+03
 -2.77084E+03  6.54113E+03 -6.54223E+03  3.89851E+03 -7.51182E+03 -1.26212E+03 -5.01694E+03 -5.42947E+03
 -2.31546E+03 -5.83427E+03  1.21783E+03 -5.64161E+03  3.72258E+03 -3.55018E+03  3.77082E+03  3.49179E+02
  2.22372E+03  2.17567E+03 -4.71059E+02  1.99654E+03 -1.18580E+03  9.81066E+01  6.09184E+02 -1.67689E+03
  2.06961E+03 -6.51079E+02  2.48520E+03  1.24999E+03  1.56044E+03  2.42670E+03  1.12739E+03  2.82252E+03
 -2.41689E+03  2.77317E+03 -3.19453E+03  5.60584E+02 -3.17647E+03 -2.74742E+03 -3.18130E+02 -4.53018E+03
  3.38301E+03 -3.68482E+03  3.97794E+03 -9.62301E+02  4.21128E+03  1.01003E+03  2.44922E+03  3.36344E+03
  1.04888E+03  4.06051E+03 -1.84149E+03  3.46880E+03 -2.62673E+03  1.37874E+03 -2.15776E+03  7.17996E+00
 -2.88234E+02  1.73297E+02 -2.07503E+03  9.33652E+02 -2.03939E+03  8.07125E+02 -2.90148E+03 -7.77694E+02
 -4.18543E+03 -1.59474E+03 -7.59429E+02 -3.56069E+03  2.50780E+03 -5.05066E+03  3.58563E+03 -1.72204E+03
  3.91168E+03  6.77921E+02  1.90949E+03  2.28933E+03 -1.92430E+02  3.67074E+03 -3.09369E+03  2.24726E+03
