 $NMID ID='MM_0lb_SNR400_14hz_g60_77.RAW', FMTDAT='(8E13.5)'
 TRAMP=1., VOLUME=1. $END
  3.10163E+05  4.90179E+02  3.38005E+05  2.51070E+05  8.40883E+04  3.37981E+05 -1.32658E+05  2.51454E+05
 -1.90806E+05  8.35127E+04 -1.11997E+05 -3.24906E+04  4.58463E+02 -5.09709E+04  5.39619E+04 -6.22370E+02
  3.52241E+04  5.28978E+04 -1.65100E+04  7.54459E+04 -6.13427E+04  6.42813E+04 -8.47884E+04  3.23163E+04
 -8.17997E+04 -1.16742E+04 -5.71070E+04 -5.17212E+04 -1.46978E+04 -7.00217E+04  2.82858E+04 -4.59411E+04
  4.03708E+04  4.46336E+03  1.64529E+04  4.79981E+04 -3.43855E+04  4.73738E+04 -6.70683E+04  5.59220E+02
 -5.41949E+04 -5.72099E+04 -6.97076E+03 -7.77914E+04  3.43240E+04 -5.49667E+04  4.91177E+04 -1.71746E+04
  4.36739E+04  1.13131E+04  3.27442E+04  2.58963E+04  1.56780E+04  2.98686E+04 -5.64504E+03  2.71845E+04
 -2.22400E+04  1.24822E+04 -1.81880E+04 -4.93403E+03  5.92609E+03 -7.32259E+03  2.23900E+04  1.24679E+04
  7.42234E+03  3.63637E+04 -3.26453E+04  3.66154E+04 -6.40954E+04  2.35003E+03 -5.81756E+04 -4.34018E+04
 -1.20361E+04 -6.42783E+04  4.06256E+04 -4.61973E+04  5.94547E+04 -2.30180E+03  3.52171E+04  3.35192E+04
 -6.01764E+03  3.73954E+04 -3.02256E+04  1.69044E+04 -3.13479E+04 -4.16260E+03 -1.75448E+04 -1.11402E+04
 -8.56244E+03 -1.38878E+04 -1.01586E+03 -1.85012E+04  7.19435E+03 -2.36646E+04  1.58871E+04 -1.37729E+04
  1.12163E+04  5.69175E+03 -9.02318E+03  1.29578E+04 -2.19672E+04 -5.36913E+03 -9.16496E+03 -3.40030E+04
  2.39686E+04 -4.49250E+04  4.97395E+04 -1.96870E+04  4.64328E+04  1.99365E+04  1.59801E+04  4.55047E+04
 -1.62668E+04  3.44173E+04 -2.62135E+04  2.48995E+03 -1.02842E+04 -2.81437E+04  2.17152E+04 -3.50653E+04
  4.22594E+04 -9.55136E+03  3.78562E+04  2.42108E+04  1.90936E+04  4.81336E+04 -7.69662E+03  5.18748E+04
 -3.29248E+04  3.54612E+04 -4.39218E+04  1.02406E+04 -4.43126E+04 -1.72170E+04 -2.45959E+04 -3.96613E+04
  7.39428E+03 -3.95880E+04  3.22071E+04 -1.47814E+04  3.05312E+04  1.10184E+04  5.17344E+03  1.95481E+04
 -1.34360E+04  8.77535E+03 -1.06112E+04 -7.56969E+03  6.49534E+03 -1.08436E+04  1.84133E+04  5.57340E+03
  1.36374E+04  2.23376E+04 -5.61979E+03  2.56205E+04 -2.23377E+04  1.22950E+04 -2.89103E+04 -3.90160E+03
 -2.26957E+04 -1.79473E+04 -9.50964E+03 -2.18529E+04  4.02474E+03 -2.17336E+04  1.72132E+04 -2.00696E+04
  2.79119E+04 -1.32152E+04  3.37898E+04  3.26285E+03  2.54507E+04  2.14333E+04  4.05136E+03  3.81430E+04
 -1.81235E+04  3.08633E+04 -2.90619E+04  1.09929E+04 -2.09144E+04 -9.72979E+03 -4.54275E+03 -1.33337E+04
  1.00095E+03 -2.31997E+03 -6.35190E+03  6.92576E+03 -1.68281E+04  5.16393E+03 -1.72756E+04 -7.48339E+03
 -1.02713E+04 -2.08447E+04  5.75943E+03 -2.39804E+04  1.63099E+04 -1.71153E+04  1.88429E+04 -1.46416E+03
  1.17045E+04  1.44079E+04 -6.24242E+02  2.05636E+04 -1.43010E+04  1.16805E+04 -1.93456E+04 -4.17160E+03
 -1.47568E+04 -1.74269E+04 -6.79680E+02 -2.41845E+04  1.07404E+04 -2.02758E+04  2.02686E+04 -9.88054E+03
  1.83487E+04  1.73214E+02  1.35717E+04  4.74076E+03  6.99709E+03  2.05365E+03  9.61216E+03 -1.79831E+03
  1.83107E+04  2.65872E+03  2.11913E+04  1.60525E+04  1.38390E+04  3.25392E+04 -2.87980E+03  3.71923E+04
 -2.04458E+04  3.01406E+04 -3.43447E+04  1.46954E+04 -3.63564E+04 -2.87988E+03 -3.00648E+04 -2.12820E+04
 -1.20978E+04 -2.97454E+04  9.98051E+03 -2.67369E+04  2.31629E+04 -1.34958E+04  2.02259E+04  6.02658E+03
  7.83580E+03  1.62954E+04 -9.55578E+03  1.32371E+04 -1.69487E+04  2.77973E+03 -1.32596E+04 -9.38658E+03
  3.23460E+02 -1.63734E+04  8.57687E+03 -1.15819E+04  1.11957E+04 -1.05330E+03  2.39291E+03  7.06822E+03
 -7.39846E+03  3.06247E+03 -6.73576E+03 -5.76186E+03 -7.59318E+02 -1.47356E+04  1.07742E+04 -1.48557E+04
  1.82201E+04 -7.98341E+03  1.94335E+04  3.09596E+03  1.74536E+04  1.36590E+04  8.11428E+03  2.23534E+04
 -3.87414E+03  2.38755E+04 -1.53183E+04  1.42242E+04 -1.73937E+04  3.17145E+03 -1.25306E+04 -4.39507E+03
 -5.94698E+03 -6.01504E+03 -6.26341E+02  3.79489E+02 -2.46820E+03  2.24971E+03 -6.29574E+03  4.43148E+03
 -1.09325E+04 -8.66820E+02 -1.26910E+04 -9.73345E+03 -5.27953E+03 -1.58103E+04  4.47749E+03 -1.24483E+04
  1.05236E+04 -5.32471E+03  7.15493E+03  3.50037E+03  2.78682E+02  4.22790E+03 -5.37859E+03 -2.75516E+01
 -6.14832E+03 -8.25506E+03 -9.20472E+02 -1.12325E+04  6.31005E+03 -1.23368E+04  1.47347E+04 -6.29114E+03
  1.72573E+04  1.89908E+03  1.36465E+04  1.00572E+04  3.08695E+03  1.38779E+04 -7.79701E+03  1.17904E+04
 -9.71172E+03  3.33964E+03 -5.27160E+03 -2.42685E+03  1.78793E+03 -3.59790E+03  6.75991E+03 -7.89498E+02
  5.09658E+03  4.81473E+03  1.15597E+03  1.01816E+04 -7.05635E+03  9.59537E+03 -1.13098E+04  2.45370E+03
 -7.29738E+03 -6.45325E+03  1.80837E+02 -1.01986E+04  6.21421E+03 -5.21777E+03  6.54367E+03  1.80654E+03
  1.62205E+03  7.03162E+03 -6.00974E+03  7.89317E+03 -8.97438E+03  3.27149E+03 -9.60281E+03 -2.96892E+03
 -5.58788E+03 -1.07212E+04  2.05357E+03 -1.27016E+04  1.02568E+04 -8.08852E+03  1.09112E+04  1.89521E+03
  6.73705E+03  8.84072E+03 -9.95590E+02  1.13883E+04 -7.69991E+03  6.20813E+03 -9.08708E+03 -8.00459E+02
 -7.83062E+03 -7.85171E+03 -8.03030E+02 -8.66753E+03  3.72248E+03 -7.13290E+03  5.14502E+03 -2.96646E+03
  3.47085E+03  1.18080E+03 -2.58738E+02  1.88307E+03 -3.59772E+02 -1.65670E+03  1.54977E+03 -4.32307E+03
  7.26605E+03 -2.22248E+03  1.01442E+04  1.35136E+03  1.03784E+04  6.95630E+03  7.75128E+03  1.32213E+04
 -3.49016E+03  1.50827E+04 -1.38592E+04  1.12417E+04 -1.69903E+04  2.48411E+03 -1.40303E+04 -5.61410E+03
 -6.82182E+03 -1.13744E+04  5.18829E+02 -9.43769E+03  3.89921E+03 -5.57848E+03  3.01820E+03 -3.82033E+03
  2.14389E+03 -2.05298E+03  3.03764E+03 -3.32101E+03  4.17959E+03 -2.46832E+03  5.31677E+03 -4.18039E+02
  7.28521E+03  1.48077E+03  3.46091E+03  5.94698E+03 -1.43632E+03  6.95458E+03 -8.28648E+03  5.02142E+03
 -9.65148E+03 -1.09258E+03 -5.49252E+03 -6.85616E+03 -4.96148E+01 -9.45102E+03  5.11779E+03 -9.68930E+03
  1.00477E+04 -5.81474E+03  1.22853E+04  1.00234E+03  8.83136E+03  8.32626E+03  1.23024E+03  1.13461E+04
 -4.29488E+03  9.98177E+03 -6.59705E+03  3.33604E+03 -4.22152E+03 -1.12518E+03 -2.39691E+03 -1.01826E+03
 -6.55577E+02  3.87119E+02 -1.72434E+03  2.28391E+03 -3.97329E+03  2.24609E+03 -6.87481E+03 -9.62900E+02
 -4.08149E+03 -6.43182E+03 -3.12432E+02 -9.14733E+03  5.20471E+03 -8.18131E+03  8.88359E+03 -2.33580E+03
  8.36165E+03  4.59433E+03  4.23634E+03  7.19123E+03 -1.25636E+03  9.20234E+03 -5.23175E+03  5.10753E+03
 -7.64788E+03  6.58305E+02 -6.38237E+03 -5.19501E+03 -8.59352E+02 -6.84169E+03  3.60939E+03 -5.05030E+03
  5.66924E+03 -1.57415E+03  3.46622E+03  8.41375E+02  6.25800E+02  2.81219E+03  6.18318E+02  1.38743E+03
  2.40749E+03  7.16504E+02  2.57535E+03  2.56175E+03  1.80805E+03  3.76465E+03  2.41541E+03  3.90495E+03
 -1.64738E+03  6.79355E+03 -5.06474E+03  7.05550E+03 -8.21342E+03  1.72121E+03 -9.01059E+03 -2.67322E+03
 -4.08203E+03 -8.26737E+03  1.21536E+03 -9.37992E+03  4.64475E+03 -5.46036E+03  6.44604E+03 -7.82054E+02
  5.03358E+03  2.92374E+03  1.20483E+03  4.81512E+03 -2.07467E+03  2.42555E+03 -3.47264E+03 -6.12134E+02
 -2.22332E+03 -3.20344E+03  1.66569E+03 -3.52581E+03  2.45465E+03 -2.31048E+03  2.91554E+03  1.27735E+03
  1.60838E+03  1.20235E+03  8.96563E+02  1.26683E+03 -9.83714E+02  1.09944E+03  2.16503E+03 -5.65690E+02
  8.58287E+02 -9.69758E+02  3.25516E+03  1.20720E+03  1.00607E+03  4.10577E+03 -6.43007E+02  6.02305E+03
 -3.58084E+03  3.76086E+03 -4.93997E+03  1.15328E+03 -4.57853E+03 -1.73416E+03 -1.34093E+03 -3.29816E+03
  5.49769E+02 -2.60848E+03  1.63039E+03 -1.31995E+03  1.27167E+03  1.33340E+03 -1.55071E+03  2.15034E+03
 -3.01932E+03  9.50259E+02 -3.58394E+03 -2.16936E+03 -2.28119E+03 -4.17719E+03  3.06700E+02 -3.34326E+03
  3.11580E+03 -1.80068E+03  3.20966E+03  2.03007E+02  1.94882E+03  7.89721E+02 -5.39512E+01  1.85451E+03
 -7.77888E+02  5.38962E+02 -1.20843E+03 -1.39993E+03  4.50592E+02 -2.94467E+03  4.32398E+03 -1.81649E+03
  3.71279E+03  4.54023E+01  5.59884E+03  2.62569E+03  2.43923E+03  4.49229E+03 -1.85625E+03  3.87183E+03
 -3.68642E+03  1.85242E+03 -4.28955E+03 -7.98411E+01 -1.94439E+03 -3.28727E+03  8.16944E+02 -2.25384E+03
  2.96749E+03 -1.28350E+03  2.13042E+03  1.45810E+03  1.33299E+03  3.14932E+03 -3.18533E+02  2.26751E+03
 -6.00037E+02  1.67266E+03 -1.19615E+03  7.04998E+02 -9.88209E+02  5.61361E+02 -1.59118E+03  1.11768E+03
 -1.58954E+03  1.68134E+03 -4.20799E+03  1.83456E+03 -4.43150E+03 -7.21228E+01 -4.95474E+03 -2.91923E+03
 -3.34103E+03 -6.20493E+03  1.79328E+03 -6.70583E+03  3.83169E+03 -5.52488E+03  6.43925E+03 -2.69512E+03
  5.74724E+03  7.48782E+02  2.78701E+03  3.43597E+03 -1.65428E+02  4.45172E+03 -1.96953E+03  3.01571E+03
 -2.38876E+03  9.26857E+02 -2.10969E+03 -3.12930E+02 -1.61954E+02 -7.35753E+02 -2.72618E+01 -1.22576E+02
 -9.94425E+02  6.37821E+02 -1.96850E+03 -6.24977E+02 -2.81222E+02 -9.94127E+02 -2.65610E+02 -1.90813E+03
  2.54450E+03 -1.59918E+03  2.25164E+03 -1.02119E+02  2.70388E+03  2.47839E+03  2.98089E+02  4.10800E+03
 -1.55445E+03  5.30535E+03 -4.37684E+03  2.85094E+03 -5.61227E+03  3.11432E+01 -3.91617E+03 -2.97708E+03
 -1.58476E+03 -3.83297E+03  7.42174E+02 -3.04972E+03  2.62167E+03 -1.75901E+03  3.35891E+03  9.34750E+01
  1.08885E+03  1.00132E+03  5.64768E+02  1.61188E+03 -1.02623E+03 -4.79076E+01 -2.25854E+02 -8.96166E+02
  1.63308E+03  4.92652E+02  1.26538E+03  8.98964E+02  9.49465E+02  1.50132E+03  9.42390E+02  1.95780E+03
 -2.03039E+03  1.83126E+03 -2.43296E+03 -5.77475E+02 -2.50780E+03 -1.97706E+03  2.80197E+01 -3.34597E+03
  1.51956E+03 -2.44873E+03  2.66878E+03 -1.90729E+02  2.95624E+03 -7.38353E+01  1.69014E+03  2.11693E+03
  5.80947E+02  2.37012E+03 -5.98414E+02  2.20674E+03 -9.65876E+02  1.66961E+03 -1.25379E+03  5.52551E+02
 -4.07027E+02  7.16338E+01 -8.52269E+02  4.88499E+02 -1.26046E+03  4.05091E+02 -2.06958E+03 -1.14185E+02
 -1.99749E+03 -1.64182E+02 -1.06178E+03 -3.09348E+03  6.20902E+02 -2.74739E+03  2.51048E+03 -1.51267E+03
  2.65750E+03  2.90017E+02  6.58466E+02  1.65237E+03 -1.73493E+02  2.43328E+03 -1.82917E+03  1.98122E+03
