 $NMID ID='MM_0lb_SNR400_17hz_g55_72.RAW', FMTDAT='(8E13.5)'
 TRAMP=1., VOLUME=1. $END
  3.09604E+05  5.85387E+02  3.37818E+05  2.50775E+05  8.44625E+04  3.37581E+05 -1.33278E+05  2.50760E+05
 -1.89522E+05  8.28093E+04 -1.11485E+05 -3.30535E+04  1.03079E+03 -5.11131E+04  5.36099E+04 -2.32253E+02
  3.51117E+04  5.28657E+04 -1.69548E+04  7.51520E+04 -6.06523E+04  6.33471E+04 -8.35382E+04  3.17426E+04
 -8.10581E+04 -1.11753E+04 -5.68116E+04 -5.05676E+04 -1.50061E+04 -6.91892E+04  2.73497E+04 -4.57386E+04
  3.90657E+04  3.91042E+03  1.58210E+04  4.77735E+04 -3.43307E+04  4.72512E+04 -6.66893E+04 -5.22008E+02
 -5.24528E+04 -5.71356E+04 -6.75114E+03 -7.67615E+04  3.34529E+04 -5.46799E+04  4.76497E+04 -1.73607E+04
  4.32476E+04  1.09989E+04  3.14591E+04  2.46779E+04  1.60209E+04  2.88806E+04 -5.02192E+03  2.63446E+04
 -2.21007E+04  1.22243E+04 -1.88278E+04 -4.55973E+03  5.19853E+03 -7.45603E+03  2.13563E+04  1.18708E+04
  7.37913E+03  3.46823E+04 -3.15009E+04  3.52864E+04 -6.27856E+04  1.59743E+03 -5.64947E+04 -4.24602E+04
 -1.29728E+04 -6.24669E+04  3.94716E+04 -4.43841E+04  5.72157E+04 -2.10556E+03  3.36932E+04  3.15174E+04
 -6.95017E+03  3.50988E+04 -2.88894E+04  1.49819E+04 -2.95302E+04 -4.63079E+03 -1.61587E+04 -1.10551E+04
 -7.57882E+03 -1.27792E+04 -9.03388E+02 -1.78946E+04  7.49647E+03 -2.31943E+04  1.53318E+04 -1.31901E+04
  1.19142E+04  4.60221E+03 -7.60863E+03  1.24532E+04 -2.04598E+04 -3.67217E+03 -8.24849E+03 -3.23699E+04
  2.14543E+04 -4.22212E+04  4.66095E+04 -1.89745E+04  4.38542E+04  1.89218E+04  1.49116E+04  4.31267E+04
 -1.56521E+04  3.21195E+04 -2.45771E+04  1.07360E+03 -9.60380E+03 -2.69078E+04  2.10976E+04 -3.30805E+04
  4.03645E+04 -8.55262E+03  3.41812E+04  2.31660E+04  1.70017E+04  4.47381E+04 -7.57249E+03  4.84279E+04
 -3.07374E+04  3.22765E+04 -4.01070E+04  9.17587E+03 -4.11276E+04 -1.61638E+04 -2.28971E+04 -3.64225E+04
  6.98337E+03 -3.62639E+04  3.08968E+04 -1.35815E+04  2.89124E+04  1.08349E+04  3.65716E+03  1.86612E+04
 -1.32010E+04  7.83112E+03 -1.05229E+04 -7.39502E+03  5.77110E+03 -1.03651E+04  1.75465E+04  5.78736E+03
  1.27477E+04  2.17918E+04 -6.67908E+03  2.39582E+04 -2.17996E+04  1.01070E+04 -2.72571E+04 -5.09660E+03
 -1.88260E+04 -1.70252E+04 -7.16810E+03 -1.82333E+04  3.99262E+03 -1.76486E+04  1.45279E+04 -1.72342E+04
  2.42876E+04 -1.20646E+04  3.04135E+04  1.76912E+03  2.25081E+04  1.84949E+04  3.96396E+03  3.44871E+04
 -1.70542E+04  2.89425E+04 -2.71133E+04  1.02640E+04 -1.99491E+04 -1.04966E+04 -4.45828E+03 -1.35533E+04
  2.05385E+03 -3.69950E+03 -4.09562E+03  6.31727E+03 -1.45121E+04  5.10314E+03 -1.48298E+04 -5.80869E+03
 -9.53237E+03 -1.72123E+04  5.07006E+03 -2.12169E+04  1.41685E+04 -1.52532E+04  1.62641E+04 -1.51916E+03
  1.01357E+04  1.17651E+04 -1.15643E+03  1.78229E+04 -1.17980E+04  9.70885E+03 -1.73834E+04 -3.61401E+03
 -1.24877E+04 -1.62314E+04 -1.51473E+03 -2.14893E+04  9.69953E+03 -1.70403E+04  1.79557E+04 -8.52825E+03
  1.62088E+04  5.21625E+02  1.16786E+04  4.09023E+03  5.91569E+03  4.24051E+02  8.34719E+03 -1.19349E+03
  1.59678E+04  3.19424E+03  1.69674E+04  1.36750E+04  1.10095E+04  2.72370E+04 -2.99591E+03  3.04399E+04
 -1.77264E+04  2.38889E+04 -2.75137E+04  1.15769E+04 -2.93433E+04 -2.23359E+03 -2.51800E+04 -1.62757E+04
 -1.08286E+04 -2.41139E+04  8.56190E+03 -2.20476E+04  1.86953E+04 -1.18792E+04  1.80785E+04  3.83848E+03
  6.80028E+03  1.28457E+04 -7.84503E+03  1.14765E+04 -1.49922E+04  2.30610E+03 -1.12919E+04 -8.54869E+03
 -1.12130E+02 -1.37995E+04  6.93829E+03 -1.06407E+04  8.94733E+03 -1.15342E+03  1.51230E+03  5.10396E+03
 -6.23853E+03  1.60457E+03 -4.87393E+03 -5.06123E+03 -3.40791E+02 -1.14864E+04  8.42371E+03 -1.21486E+04
  1.45727E+04 -6.04184E+03  1.42389E+04  3.34006E+03  1.30026E+04  1.14683E+04  5.86986E+03  1.63752E+04
 -2.21175E+03  1.86176E+04 -1.12343E+04  1.18770E+04 -1.37559E+04  2.89872E+03 -9.95597E+03 -2.90890E+03
 -5.00003E+03 -3.60581E+03 -3.70478E+02  1.40509E+03 -1.78515E+03  2.10823E+03 -4.08965E+03  3.99366E+03
 -9.25041E+03 -5.88229E+02 -9.61752E+03 -8.15026E+03 -4.26465E+03 -1.22956E+04  3.77949E+03 -9.56685E+03
  8.63737E+03 -4.19124E+03  5.28363E+03  2.28996E+03  2.96975E+02  3.49382E+03 -4.11979E+03 -8.87443E+02
 -4.14117E+03 -5.85716E+03 -1.15942E+03 -8.75744E+03  5.29144E+03 -9.09357E+03  1.18313E+04 -4.33573E+03
  1.35842E+04  4.34626E+02  1.02812E+04  7.60110E+03  1.86988E+03  1.03127E+04 -6.14689E+03  1.01724E+04
 -7.68324E+03  2.81435E+03 -3.98001E+03 -2.27659E+03  1.52301E+03 -2.29018E+03  5.05352E+03 -1.12306E+03
  5.00714E+03  3.99220E+03  9.86813E+02  7.68993E+03 -5.27357E+03  7.44366E+03 -9.56138E+03  2.02479E+03
 -5.61757E+03 -4.20356E+03 -2.33178E+01 -7.93099E+03  4.34406E+03 -3.70268E+03  3.88023E+03  1.24393E+03
  9.38389E+02  4.58866E+03 -4.26266E+03  5.63625E+03 -6.40166E+03  3.35736E+03 -5.73268E+03 -1.21951E+03
 -3.48278E+03 -7.67550E+03  1.79794E+03 -8.87038E+03  7.22967E+03 -5.60330E+03  8.29128E+03  8.81639E+02
  5.38672E+03  6.41082E+03 -7.82072E+02  8.19824E+03 -6.12654E+03  5.29345E+03 -6.41231E+03 -3.72829E+02
 -6.37300E+03 -6.20742E+03 -1.82894E+03 -5.50868E+03  3.02037E+03 -4.52722E+03  4.13077E+03 -3.27937E+03
  3.60393E+03  4.37922E+02  1.13986E+02  1.67340E+03 -2.02543E+02 -1.03975E+02  4.54643E+02 -2.24561E+03
  5.53320E+03 -1.34443E+03  6.82784E+03  7.50015E+02  7.37437E+03  3.97382E+03  5.62535E+03  9.56099E+03
 -1.94934E+03  1.02303E+04 -9.11659E+03  7.96041E+03 -1.23034E+04  1.42523E+03 -9.63905E+03 -3.02486E+03
 -4.75713E+03 -7.67218E+03 -5.45045E+02 -6.47190E+03  2.58004E+03 -2.68640E+03  1.79600E+03 -2.93117E+03
  1.88810E+03 -1.15524E+03  2.76232E+03 -2.69372E+03  3.96223E+03 -1.62465E+03  4.08650E+03  2.49994E+02
  4.74464E+03  1.69804E+03  1.22574E+03  4.54474E+03 -1.43747E+03  2.97090E+03 -5.15165E+03  3.79060E+03
 -5.86422E+03 -6.83676E+02 -2.84712E+03 -4.01341E+03  1.14722E+02 -6.91763E+03  3.87384E+03 -6.62581E+03
  6.36367E+03 -4.03300E+03  8.38269E+03  8.54972E+02  5.55664E+03  5.52008E+03  1.10631E+03  6.81958E+03
 -2.83684E+03  7.10548E+03 -3.91654E+03  2.21611E+03 -2.54063E+03 -8.50892E+02 -8.64042E+02 -6.56162E+02
 -5.44415E+02 -1.80953E+02 -1.46023E+03  1.89672E+03 -3.47291E+03  8.81130E+02 -5.26999E+03 -3.83857E+02
 -2.44744E+03 -5.04656E+03  1.07371E+03 -4.90188E+03  3.27612E+03 -5.09837E+03  4.83087E+03 -1.28253E+03
  5.64385E+03  2.50044E+03  2.35739E+03  4.17610E+03 -8.48323E+02  6.12050E+03 -3.27788E+03  3.12813E+03
 -4.70542E+03  8.46618E+02 -4.53935E+03 -2.83417E+03 -5.02691E+02 -3.85156E+03  2.19739E+03 -2.79659E+03
  3.50612E+03 -1.56022E+03  2.06437E+03  9.74832E+02  5.14279E+02  2.29355E+03  9.80257E+02  1.53123E+03
  1.89759E+03  8.21035E+02  1.15216E+03  4.67067E+02  1.92685E+03  2.39416E+03  1.44961E+03  2.49392E+03
 -1.63634E+03  3.80296E+03 -3.40136E+03  5.13373E+03 -3.89452E+03  1.28014E+03 -5.46848E+03 -1.13979E+03
 -1.87343E+03 -5.25194E+03  6.09189E+02 -5.72285E+03  2.96428E+03 -3.55450E+03  3.25059E+03 -4.29185E+02
  2.75059E+03  2.89045E+03  2.47645E+02  3.05354E+03 -8.50819E+02  1.08767E+03 -1.50592E+03 -4.76331E+02
 -8.55370E+02 -2.15599E+03  1.64033E+03 -2.10170E+03  2.15275E+03 -1.13112E+03  1.64923E+03  4.25322E+02
  1.27825E+03  5.20576E+02  3.95113E+02 -1.88575E+02 -5.43107E+02  9.17085E+02  1.67356E+03  4.43125E+01
 -3.07354E+02 -5.47002E+01  2.03772E+03  5.44391E+02  6.44966E+02  3.04833E+03 -4.65201E+02  4.01393E+03
 -2.68243E+03  2.10917E+03 -2.70375E+03  8.93130E+02 -2.74361E+03 -1.22203E+03 -8.59443E+02 -1.40645E+03
  5.90403E+02 -1.74076E+03  1.12868E+03 -1.60633E+03  5.35700E+02  7.62121E+02 -5.19250E+02  1.42642E+03
 -1.52856E+03  1.21697E+03 -1.54656E+03 -1.13701E+03 -1.64020E+03 -2.80995E+03 -5.37642E+01 -2.39252E+03
  8.04056E+02 -6.51651E+02  1.42344E+03 -5.23831E+01  1.68748E+03  5.72310E+02  2.58299E+02  1.22532E+03
 -3.05320E+02  2.57765E+02 -8.29051E+02 -4.40362E+02  1.06225E+03 -1.77843E+03  2.62561E+03 -1.67922E+03
  2.19578E+03 -2.79290E+02  3.57594E+03  1.19933E+03  1.22684E+03  2.22441E+03 -3.51670E+02  2.85335E+03
 -1.72141E+03  9.88827E+02 -2.20767E+03  7.62101E+01 -1.64257E+03 -1.81795E+03  6.80273E+02 -9.73040E+02
  1.66951E+03 -1.05946E+03  1.00799E+03  6.36052E+02  3.71673E+01  1.52301E+03  1.45653E+02  1.56518E+03
 -8.17264E+02  1.12547E+03 -9.63913E+02  1.57749E+02  3.15930E+02  5.84966E+02 -8.50041E+02  1.34170E+03
 -5.54461E+02  1.56331E+03 -1.86368E+03  1.09945E+03 -2.12283E+03  7.49888E+02 -3.28350E+03 -1.17788E+03
 -9.96480E+02 -2.97991E+03  9.18717E+02 -3.26080E+03  1.71955E+03 -2.80364E+03  3.15615E+03 -1.32232E+03
  3.17400E+03 -4.55557E+02  2.02260E+03  2.30855E+03 -8.98033E+02  2.17198E+03 -1.01184E+03  1.63269E+03
 -1.23363E+03  7.82124E+02 -7.78463E+02 -8.61218E+02 -6.54289E+02  8.59354E+02 -8.71985E+02 -9.47695E+01
 -1.30983E+03 -4.91248E+02 -1.00258E+03 -2.60469E+02  5.02475E+02 -4.75183E+02 -3.37926E+02 -1.09359E+03
  1.60736E+03 -5.78147E+02  4.67667E+02  8.49682E+01  1.61653E+03  8.72827E+02 -4.22066E+02  2.51628E+03
 -1.09043E+03  2.99124E+03 -1.78744E+03  1.62908E+03 -2.77725E+03 -4.04722E+02 -2.45015E+03 -1.36527E+03
 -1.27524E+03 -2.36801E+03  5.51405E+02 -5.18257E+02  9.07525E+02 -6.29327E+02  6.26059E+02  2.32273E+01
  1.08105E+03  4.24053E+02  2.17445E+02  3.34679E+02 -3.79070E+02  2.64696E+02 -2.02046E+02 -5.94695E+02
  3.80893E+02  4.11042E+02  8.86873E+02  4.66251E+02  6.85348E+02  8.62403E+02  7.04730E+02  1.44828E+02
 -4.32646E+02  5.91945E+02 -7.75877E+02  1.64045E+02 -1.12599E+03 -1.09420E+03 -2.15003E+02 -2.35840E+03
  1.16542E+03 -1.09708E+03  9.43812E+02 -5.37802E+02  9.35043E+02 -1.78439E+02  1.16790E+03  1.36955E+03
  3.59579E+02  1.14864E+03 -4.38144E+02  8.63600E+02 -1.01350E+03  2.00223E+02 -1.62081E+02 -9.28926E+01
 -4.13377E+02 -3.76153E+02 -8.13039E+02 -2.60960E+02 -1.20390E+03  4.79264E+02 -1.09721E+03 -5.51913E+02
 -1.43404E+03 -2.18911E+02 -1.95243E+02 -1.08213E+03  8.05289E+02 -1.98040E+03  1.39638E+03 -2.20669E+02
  6.28708E+02  5.62248E+02  3.62248E+02  3.84793E+01 -1.15151E+02  1.06887E+03 -5.43948E+02  8.43149E+02
