 $NMID ID='MM_0lb_SNR400_17hz_g55_13.RAW', FMTDAT='(8E13.5)'
 TRAMP=1., VOLUME=1. $END
  3.09846E+05  5.00402E+02  3.37847E+05  2.50696E+05  8.44197E+04  3.37872E+05 -1.32688E+05  2.51240E+05
 -1.90381E+05  8.34961E+04 -1.11819E+05 -3.29657E+04  5.47234E+02 -5.04103E+04  5.31371E+04 -4.08461E+01
  3.53704E+04  5.34588E+04 -1.70280E+04  7.51265E+04 -6.04211E+04  6.31927E+04 -8.37299E+04  3.23463E+04
 -8.06285E+04 -1.11622E+04 -5.67774E+04 -5.08352E+04 -1.51605E+04 -6.94914E+04  2.75736E+04 -4.54856E+04
  3.98183E+04  3.89672E+03  1.52276E+04  4.73885E+04 -3.41903E+04  4.68465E+04 -6.59151E+04 -6.35188E+02
 -5.26146E+04 -5.65429E+04 -6.57007E+03 -7.62520E+04  3.39128E+04 -5.44104E+04  4.72459E+04 -1.70772E+04
  4.26025E+04  1.10885E+04  3.11042E+04  2.48225E+04  1.66202E+04  3.00073E+04 -4.99237E+03  2.69668E+04
 -2.22242E+04  1.23120E+04 -1.85418E+04 -4.41624E+03  5.11537E+03 -7.56502E+03  2.18153E+04  1.16806E+04
  7.28925E+03  3.47601E+04 -3.15679E+04  3.45322E+04 -6.27358E+04  2.48167E+03 -5.67064E+04 -4.21578E+04
 -1.21952E+04 -6.26570E+04  3.92467E+04 -4.46194E+04  5.71834E+04 -1.73795E+03  3.40125E+04  3.18162E+04
 -6.36683E+03  3.48447E+04 -2.95840E+04  1.47926E+04 -2.99539E+04 -5.13922E+03 -1.62452E+04 -1.06617E+04
 -8.11076E+03 -1.25235E+04 -6.24160E+02 -1.73841E+04  7.06370E+03 -2.33543E+04  1.48926E+04 -1.39929E+04
  1.17646E+04  4.72825E+03 -7.84312E+03  1.33399E+04 -2.04141E+04 -3.76256E+03 -7.57518E+03 -3.23286E+04
  2.28233E+04 -4.25144E+04  4.68644E+04 -1.88937E+04  4.33485E+04  1.90305E+04  1.49520E+04  4.34949E+04
 -1.56920E+04  3.24877E+04 -2.43466E+04  1.57670E+03 -9.31278E+03 -2.72219E+04  2.10069E+04 -3.31668E+04
  4.04972E+04 -8.12475E+03  3.44445E+04  2.31846E+04  1.77255E+04  4.46267E+04 -7.68816E+03  4.83864E+04
 -3.07920E+04  3.21214E+04 -4.03007E+04  9.32620E+03 -4.06426E+04 -1.61657E+04 -2.25507E+04 -3.62876E+04
  7.31445E+03 -3.59095E+04  3.06382E+04 -1.39329E+04  2.84608E+04  1.09183E+04  3.52527E+03  1.87224E+04
 -1.35606E+04  7.89377E+03 -1.01199E+04 -7.83420E+03  6.00156E+03 -1.02058E+04  1.73949E+04  6.10516E+03
  1.39996E+04  2.16475E+04 -6.36800E+03  2.47996E+04 -2.22645E+04  1.06751E+04 -2.68621E+04 -5.28711E+03
 -1.88732E+04 -1.73354E+04 -6.79185E+03 -1.88185E+04  4.11615E+03 -1.73623E+04  1.40716E+04 -1.68406E+04
  2.38282E+04 -1.26225E+04  3.04799E+04  2.47170E+03  2.22657E+04  1.85401E+04  4.47547E+03  3.40911E+04
 -1.74866E+04  2.91950E+04 -2.67733E+04  1.03180E+04 -2.08856E+04 -1.00735E+04 -4.25682E+03 -1.27360E+04
  2.04719E+03 -2.82861E+03 -4.09108E+03  6.45158E+03 -1.50674E+04  5.64748E+03 -1.48878E+04 -5.79598E+03
 -9.17392E+03 -1.74952E+04  4.53005E+03 -2.13298E+04  1.39766E+04 -1.51997E+04  1.61376E+04 -1.56650E+03
  9.86397E+03  1.18694E+04 -9.06760E+02  1.75066E+04 -1.15169E+04  9.90087E+03 -1.70994E+04 -4.37047E+03
 -1.29841E+04 -1.56450E+04 -1.92045E+03 -2.09263E+04  9.11935E+03 -1.72118E+04  1.73784E+04 -8.64453E+03
  1.68023E+04  4.09959E+02  1.19625E+04  4.14904E+03  5.53037E+03  9.81771E+02  8.50456E+03 -1.22634E+03
  1.60309E+04  2.77036E+03  1.75371E+04  1.39516E+04  1.08533E+04  2.72417E+04 -2.93725E+03  3.08010E+04
 -1.77042E+04  2.42432E+04 -2.80748E+04  1.17473E+04 -2.94298E+04 -1.92510E+03 -2.48980E+04 -1.68468E+04
 -1.04985E+04 -2.41967E+04  7.94283E+03 -2.16104E+04  1.92445E+04 -1.18806E+04  1.73632E+04  4.03594E+03
  6.84523E+03  1.27201E+04 -8.13436E+03  1.15540E+04 -1.52614E+04  2.47968E+03 -1.17700E+04 -9.12905E+03
 -1.34909E+02 -1.39760E+04  7.26055E+03 -1.02017E+04  9.56675E+03 -1.70865E+03  1.88702E+03  5.72530E+03
 -6.18300E+03  2.03766E+03 -4.85438E+03 -4.97678E+03  7.18446E+02 -1.22207E+04  8.65939E+03 -1.20255E+04
  1.41252E+04 -6.26798E+03  1.48482E+04  2.65151E+03  1.33757E+04  1.09842E+04  6.29557E+03  1.65843E+04
 -2.03091E+03  1.91036E+04 -1.15579E+04  1.16143E+04 -1.34218E+04  2.52327E+03 -9.85420E+03 -2.45823E+03
 -4.87730E+03 -4.37087E+03 -3.31867E+02  8.07696E+02 -1.83209E+03  2.84855E+03 -4.72994E+03  3.92927E+03
 -9.15276E+03 -8.55104E+02 -9.99451E+03 -8.39138E+03 -3.60259E+03 -1.29468E+04  4.27547E+03 -9.69844E+03
  8.05882E+03 -4.76532E+03  5.98909E+03  2.21222E+03  3.87012E+02  3.80813E+03 -4.74780E+03 -1.69939E+02
 -4.19510E+03 -6.38748E+03 -7.22648E+02 -8.96496E+03  4.88837E+03 -9.54984E+03  1.18698E+04 -5.02478E+03
  1.40913E+04  1.33705E+03  1.03859E+04  8.32389E+03  1.83345E+03  1.07720E+04 -6.10717E+03  9.52068E+03
 -8.21499E+03  3.31319E+03 -4.03852E+03 -1.60456E+03  1.52837E+03 -2.40384E+03  5.09904E+03 -8.56273E+02
  5.11420E+03  3.83034E+03  1.65718E+03  7.36796E+03 -5.24309E+03  7.53907E+03 -8.93835E+03  2.02480E+03
 -5.88403E+03 -4.64939E+03  2.04771E+02 -8.26903E+03  4.29823E+03 -3.83370E+03  4.52137E+03  1.12486E+03
  8.72638E+02  4.04072E+03 -4.55908E+03  5.75934E+03 -5.94496E+03  2.99578E+03 -5.88458E+03 -2.19865E+03
 -3.64841E+03 -7.80948E+03  1.43139E+03 -8.63167E+03  7.19437E+03 -5.19967E+03  7.86909E+03  1.50781E+03
  5.40099E+03  6.79047E+03  4.89154E+02  8.53193E+03 -6.28621E+03  4.97753E+03 -6.59291E+03 -6.39085E+02
 -6.22411E+03 -5.95501E+03 -1.53465E+03 -5.79204E+03  2.79682E+03 -5.44443E+03  3.52920E+03 -2.89384E+03
  3.43786E+03  9.65245E+02  2.05484E+02  1.32404E+03  5.50288E+02 -7.89423E+02 -3.26334E+02 -2.95162E+03
  5.34762E+03 -1.32094E+03  6.93864E+03  1.23586E+03  6.90053E+03  3.93923E+03  5.98369E+03  8.37350E+03
 -1.49155E+03  1.06349E+04 -9.48652E+03  8.22637E+03 -1.17382E+04  8.26016E+02 -9.54869E+03 -3.26752E+03
 -4.32302E+03 -8.10899E+03 -3.05396E+02 -6.88360E+03  2.61582E+03 -2.95368E+03  2.27739E+03 -2.74644E+03
  1.54397E+03 -1.63449E+03  2.31708E+03 -2.41062E+03  4.36426E+03 -1.64168E+03  4.33927E+03  4.95334E+02
  4.87605E+03  9.97313E+02  1.78435E+03  3.85679E+03 -1.16326E+03  4.18785E+03 -5.36387E+03  3.33703E+03
 -6.62176E+03 -1.75115E+03 -2.84953E+03 -4.17317E+03  7.83075E+02 -6.12652E+03  3.83549E+03 -6.87983E+03
  6.81395E+03 -3.59041E+03  8.28400E+03  9.27745E+02  5.64223E+03  4.87985E+03  1.65448E+03  7.73010E+03
 -2.90222E+03  6.77844E+03 -4.25245E+03  2.08304E+03 -2.90833E+03 -9.89800E+02 -8.47799E+02 -5.93026E+02
 -5.35896E+02  3.20544E+02 -9.74629E+02  2.19428E+03 -3.56845E+03  9.61180E+02 -4.26974E+03 -9.26563E+02
 -2.39342E+03 -4.62916E+03  1.02567E+03 -6.30968E+03  3.27910E+03 -4.93707E+03  4.60531E+03 -1.36279E+03
  4.81580E+03  2.60594E+03  2.47356E+03  4.66606E+03 -5.71947E+02  5.26795E+03 -3.71097E+03  3.18465E+03
 -5.03945E+03  7.18269E+02 -4.26761E+03 -2.97076E+03 -6.36061E+02 -4.60658E+03  2.26065E+03 -3.29281E+03
  3.37389E+03 -1.53274E+03  2.96877E+03  9.86832E+02  4.97039E+02  1.76028E+03  4.44468E+02  6.96261E+02
  1.79580E+03  4.58956E+02  1.53761E+03  1.46253E+03  1.06067E+03  2.71571E+03  1.76005E+03  2.74412E+03
 -1.75232E+03  3.64858E+03 -3.58178E+03  5.50979E+03 -5.25269E+03  1.38081E+03 -5.31767E+03 -9.94228E+02
 -1.72985E+03 -5.41036E+03  3.58754E+02 -6.24869E+03  2.37556E+03 -2.99361E+03  4.40724E+03 -1.01227E+03
  3.50674E+03  2.67087E+03  6.53008E+02  2.79994E+03 -8.33139E+02  1.76701E+03 -1.44810E+03 -4.61843E+02
 -8.12349E+02 -1.44261E+03  1.64396E+03 -2.17581E+03  1.96202E+03 -7.97924E+02  2.28058E+03  1.51615E+02
  6.03716E+02  6.82125E+02  7.86265E+02  6.73116E+01  2.25036E+02  8.31294E+02  2.05350E+03 -3.64796E+02
 -2.03233E+01 -8.08285E+01  1.72487E+03  8.43076E+02  4.67422E+02  3.08756E+03 -5.15326E+02  2.91525E+03
 -2.18256E+03  1.45292E+03 -3.24250E+03 -1.83427E+02 -2.66410E+03 -1.37866E+03 -3.29974E+02 -1.35330E+03
  7.85433E+02 -1.20642E+03  1.54266E+03 -9.03349E+02  1.31601E+03  1.04381E+03 -9.89247E+02  9.21173E+02
 -2.03054E+03  7.49223E+02 -1.35027E+03 -1.37723E+03 -1.23885E+03 -2.50047E+03  2.52090E+01 -2.03254E+03
  2.00371E+02 -1.42779E+03  2.10351E+03 -1.04040E+02  1.90695E+03  6.76365E+02  7.16014E+02  1.44492E+03
 -4.28799E+02  4.18710E+02 -1.05752E+03 -1.41720E+02  8.52893E+02 -8.60759E+02  1.73348E+03 -1.17886E+03
  1.66275E+03  5.94786E+02  3.17770E+03  1.04770E+03  1.43962E+03  2.75018E+03 -4.32545E+02  2.76026E+03
 -1.85014E+03 -2.69873E+01 -1.79426E+03 -5.08741E+02 -5.77505E+02 -1.02396E+03 -9.03108E+01 -1.05347E+03
  2.31358E+03 -1.00773E+02  7.28198E+02  1.15007E+03  1.13797E+02  1.52391E+03  3.14975E+02  1.45816E+03
 -2.25767E+02  1.23253E+03 -7.88999E+02  5.80685E+02 -2.38720E+02  6.06915E+01 -3.42569E+02  5.90662E+02
 -7.35779E+02  1.33571E+03 -2.07041E+03  4.68492E+02 -2.28102E+03  7.64839E+01 -3.11766E+03 -1.49187E+03
 -7.66226E+02 -3.32054E+03  8.65673E+02 -4.18059E+03  1.43366E+03 -3.22736E+03  3.54553E+03 -8.01356E+02
  3.76004E+03  1.96900E+02  1.85985E+03  1.94323E+03 -1.01816E+03  2.18733E+03 -3.09349E+02  1.13418E+03
 -1.03059E+03  8.57535E+02 -1.17951E+03 -3.04882E+01 -9.86117E+02 -3.64057E+02 -6.51030E+02 -2.83010E+02
 -7.93931E+02 -2.32844E+02 -6.43709E+02 -1.43382E+02  1.41227E+01 -4.16298E+02 -3.93231E+02 -1.35495E+03
  1.68263E+03 -3.33080E+02  7.10899E+02 -9.43084E+01  1.08621E+03  1.97849E+03 -5.88346E+02  2.05462E+03
 -1.38195E+03  2.71288E+03 -2.20476E+03  1.70609E+03 -1.95436E+03  2.86515E+01 -1.78634E+03 -1.26071E+03
 -7.71217E+02 -2.09975E+03  7.98309E+02 -1.37133E+03  1.07174E+03 -7.36824E+02  1.42439E+03  4.68948E+02
  1.34326E+03  2.39826E+01  2.80346E+01  6.80272E+02 -7.80684E+02 -2.83805E+02 -1.11648E+02 -2.38755E+02
  1.02460E+03 -6.16579E+02  7.25702E+02  3.19368E+02  6.51183E+02  9.92086E+02  8.30401E+02  9.06729E+02
 -7.77519E+02  8.36536E+02 -7.32004E+02  1.42774E+02 -1.32245E+03 -5.62683E+02  2.42758E+02 -1.58175E+03
  6.77716E+02 -1.48595E+03  1.02641E+03 -2.82961E+02  9.96175E+02 -1.30671E+02  4.67627E+02  8.29450E+02
  4.74568E+02  1.02329E+03 -7.78348E+01  3.94778E+02 -3.48017E+02  6.92971E+02 -8.35881E+02  8.73096E+02
  2.93768E+02 -1.45270E+02 -6.10131E+02  4.22209E+02 -5.64020E+02  3.08055E+02 -6.32326E+02 -9.76996E+02
 -1.22312E+03 -2.95873E+02 -3.64189E+02 -1.16407E+03  3.57530E+02 -1.39003E+03  1.23460E+03 -2.60884E+02
  1.67340E+03  1.84945E+02 -4.19526E+02  3.33129E+02 -3.68875E+02  1.29303E+03 -9.67479E+02  4.44912E+02
