 $NMID ID='MM_0lb_SNR400_20hz_g50_59.RAW', FMTDAT='(8E13.5)'
 TRAMP=1., VOLUME=1. $END
  3.09995E+05  8.69602E+02  3.37208E+05  2.50133E+05  8.40554E+04  3.37191E+05 -1.32224E+05  2.50912E+05
 -1.89644E+05  8.26339E+04 -1.10367E+05 -3.23357E+04  1.55802E+03 -5.05872E+04  5.36502E+04  1.70852E+02
  3.48054E+04  5.28949E+04 -1.72992E+04  7.49349E+04 -6.03231E+04  6.26983E+04 -8.31544E+04  3.12028E+04
 -7.97809E+04 -1.13873E+04 -5.61455E+04 -5.02582E+04 -1.52502E+04 -6.84954E+04  2.67805E+04 -4.45641E+04
  3.91613E+04  3.96940E+03  1.51112E+04  4.68857E+04 -3.39969E+04  4.61290E+04 -6.51331E+04 -1.07832E+03
 -5.21527E+04 -5.59369E+04 -6.02796E+03 -7.46801E+04  3.27817E+04 -5.31633E+04  4.57031E+04 -1.60553E+04
  4.14055E+04  1.11121E+04  3.13322E+04  2.39871E+04  1.53111E+04  2.78542E+04 -4.59177E+03  2.75295E+04
 -2.16410E+04  1.30728E+04 -1.90350E+04 -4.43775E+03  3.76958E+03 -7.89410E+03  2.11265E+04  1.11086E+04
  7.22601E+03  3.29124E+04 -3.02212E+04  3.39543E+04 -6.06056E+04  1.34398E+03 -5.51627E+04 -4.06526E+04
 -1.21434E+04 -6.06026E+04  3.78355E+04 -4.28870E+04  5.49052E+04 -2.66373E+03  3.12945E+04  2.99523E+04
 -7.05078E+03  3.27480E+04 -2.81294E+04  1.30893E+04 -2.70480E+04 -5.70717E+03 -1.41091E+04 -1.00233E+04
 -6.62779E+03 -1.10376E+04 -1.83777E+03 -1.66123E+04  5.96889E+03 -2.25909E+04  1.48585E+04 -1.38206E+04
  1.23864E+04  3.96476E+03 -6.10066E+03  1.31037E+04 -1.85056E+04 -1.84683E+03 -8.11075E+03 -2.95405E+04
  2.07594E+04 -3.95370E+04  4.37701E+04 -1.85461E+04  4.11853E+04  1.81751E+04  1.42096E+04  4.13268E+04
 -1.55512E+04  3.06822E+04 -2.27585E+04  1.22241E+03 -8.01644E+03 -2.63169E+04  2.07136E+04 -3.05916E+04
  3.73168E+04 -6.61334E+03  3.05664E+04  2.33312E+04  1.51310E+04  4.20628E+04 -7.52347E+03  4.43822E+04
 -2.74225E+04  2.90572E+04 -3.67667E+04  8.00187E+03 -3.77025E+04 -1.45334E+04 -2.07004E+04 -3.38158E+04
  6.69649E+03 -3.37546E+04  2.85760E+04 -1.22289E+04  2.59342E+04  1.10106E+04  2.99192E+03  1.75741E+04
 -1.27515E+04  6.92953E+03 -9.80828E+03 -8.19221E+03  6.08833E+03 -1.04312E+04  1.69375E+04  6.59645E+03
  1.22900E+04  2.16967E+04 -6.92872E+03  2.30229E+04 -2.11846E+04  8.77331E+03 -2.48995E+04 -6.75232E+03
 -1.56680E+04 -1.62884E+04 -5.09932E+03 -1.64486E+04  4.06470E+03 -1.43342E+04  1.18433E+04 -1.38724E+04
  2.03569E+04 -1.14524E+04  2.75390E+04  1.21356E+03  2.04646E+04  1.53361E+04  3.94721E+03  3.12616E+04
 -1.56294E+04  2.72364E+04 -2.50864E+04  9.00667E+03 -1.94984E+04 -1.06442E+04 -3.95238E+03 -1.35735E+04
  2.90892E+03 -4.54478E+03 -2.02767E+03  4.25524E+03 -1.27137E+04  5.22888E+03 -1.29182E+04 -4.84644E+03
 -8.06573E+03 -1.46403E+04  4.29878E+03 -1.90561E+04  1.19248E+04 -1.35213E+04  1.40995E+04 -1.90177E+03
  8.20956E+03  1.02487E+04 -8.32515E+02  1.50790E+04 -9.89048E+03  8.34255E+03 -1.46246E+04 -3.39095E+03
 -1.09695E+04 -1.35700E+04 -1.21157E+03 -1.82930E+04  8.78255E+03 -1.45039E+04  1.59346E+04 -6.58626E+03
  1.38288E+04  9.46283E+02  1.02805E+04  3.42124E+03  4.28934E+03  4.49516E+02  7.30182E+03 -9.26646E+02
  1.22010E+04  2.83136E+03  1.34376E+04  1.23532E+04  8.78863E+03  2.33809E+04 -3.76815E+03  2.49150E+04
 -1.49203E+04  1.85768E+04 -2.32145E+04  8.36367E+03 -2.35174E+04 -1.16726E+03 -2.05689E+04 -1.36944E+04
 -9.66489E+03 -1.88378E+04  6.81772E+03 -1.82278E+04  1.55158E+04 -1.06035E+04  1.45951E+04  3.50517E+03
  6.27768E+03  1.06731E+04 -7.35675E+03  9.33707E+03 -1.26973E+04  3.18128E+03 -9.65942E+03 -7.83407E+03
  3.08194E+02 -1.18055E+04  5.89098E+03 -9.17419E+03  7.07244E+03 -8.43018E+02  1.28642E+03  4.40066E+03
 -5.36367E+03  1.24949E+03 -3.20038E+03 -4.19814E+03  6.09249E+02 -9.15957E+03  7.66824E+03 -8.98504E+03
  1.14094E+04 -4.41985E+03  1.03758E+04  2.76516E+03  9.00869E+03  9.07844E+03  4.63733E+03  1.29421E+04
 -5.26037E+02  1.50300E+04 -8.92658E+03  9.00550E+03 -9.74240E+03  2.77298E+03 -7.99321E+03 -2.06175E+03
 -4.83290E+03 -2.89297E+03 -6.51140E+02  1.71398E+03 -2.17874E+03  1.58735E+03 -3.41621E+03  3.50062E+03
 -7.62446E+03 -5.69738E+02 -8.03363E+03 -7.02328E+03 -3.66523E+03 -1.05077E+04  3.24074E+03 -7.90299E+03
  6.52316E+03 -3.52082E+03  5.19474E+03  2.07320E+03  3.90894E+02  2.74762E+03 -2.75620E+03 -7.27147E+02
 -3.32715E+03 -4.74448E+03 -8.45797E+02 -6.40541E+03  3.21534E+03 -6.90319E+03  9.30964E+03 -3.15615E+03
  1.03269E+04  4.04757E+02  7.86054E+03  5.22275E+03  1.84870E+03  8.24768E+03 -4.73997E+03  7.42624E+03
 -6.49006E+03  2.59792E+03 -3.39856E+03 -9.49505E+02  1.59208E+03 -1.94470E+03  4.60778E+03 -1.02780E+03
  4.07939E+03  3.02258E+03  7.35633E+02  5.70866E+03 -4.25835E+03  5.57322E+03 -6.94821E+03  1.48648E+03
 -4.50745E+03 -3.34489E+03  5.31831E+02 -6.66946E+03  3.41043E+03 -3.05585E+03  2.91482E+03  8.08898E+02
  7.48783E+01  2.30203E+03 -3.97751E+03  3.99175E+03 -4.23239E+03  1.99154E+03 -3.57961E+03 -7.67420E+02
 -1.92936E+03 -4.79928E+03  9.92855E+02 -6.29184E+03  5.14525E+03 -3.86214E+03  5.82112E+03  1.15386E+03
  4.63581E+03  4.83041E+03  1.27865E+02  6.86771E+03 -4.49541E+03  4.38232E+03 -4.76991E+03 -6.53867E+02
 -5.31088E+03 -4.68437E+03 -1.63773E+03 -4.01534E+03  2.36851E+03 -4.36446E+03  3.16201E+03 -3.05563E+03
  2.56928E+03 -1.72898E+00  4.88881E+02  1.50541E+03  5.74043E+02 -7.46843E+01 -1.20134E+02 -8.94215E+02
  3.15255E+03 -4.82141E+02  4.49161E+03  6.27159E+02  4.60636E+03  1.80886E+03  5.18011E+03  6.51653E+03
 -1.18437E+03  7.42082E+03 -6.74016E+03  5.57974E+03 -8.63300E+03  8.29838E+02 -6.88376E+03 -2.17104E+03
 -3.86784E+03 -6.12570E+03 -4.92199E+02 -3.88769E+03  1.96347E+03 -1.96716E+03  1.93856E+03 -1.64628E+03
  1.16736E+03 -1.30989E+03  1.62089E+03 -1.97542E+03  3.88556E+03 -1.47810E+03  2.92752E+03  6.27433E+02
  3.74105E+03  1.55027E+03  1.09031E+03  2.76759E+03 -1.40157E+03  2.49661E+03 -3.61829E+03  2.21201E+03
 -4.65765E+03 -1.11485E+03 -1.33947E+03 -2.39855E+03  7.21249E+02 -4.49856E+03  2.44163E+03 -4.58297E+03
  4.43218E+03 -3.25885E+03  6.03392E+03 -7.43560E+01  4.75010E+03  3.40760E+03  7.71508E+02  4.86147E+03
 -1.54213E+03  5.10980E+03 -3.14190E+03  1.16465E+03 -1.11316E+03 -5.65465E+02 -1.73949E+02 -1.04827E+03
 -8.63367E+02 -4.44173E+01 -3.70379E+02  1.20231E+03 -2.59694E+03  7.94322E+02 -4.11467E+03 -1.93152E+02
 -7.01146E+02 -3.88736E+03  7.81740E+02 -4.27696E+03  2.26804E+03 -3.78752E+03  2.46868E+03 -9.16172E+02
  3.37899E+03  1.71391E+03  1.05002E+03  2.80137E+03 -3.16758E+02  3.31248E+03 -2.16967E+03  2.19706E+03
 -2.68378E+03  4.22992E+02 -2.35081E+03 -1.73204E+03 -7.40584E+01 -2.44261E+03  1.39608E+03 -1.99524E+03
  1.76476E+03 -1.20677E+03  1.45054E+03  3.07047E+02  7.51390E+02  1.59595E+03  6.90495E+02  3.63737E+02
  1.42746E+03  6.21044E+02  1.09464E+03  7.59292E+02  6.46278E+02  1.70282E+03  1.36136E+03  1.23037E+03
 -7.33685E+02  1.86527E+03 -9.13076E+02  3.63641E+03 -1.48908E+03  9.45076E+02 -2.95180E+03  4.42297E+01
 -1.17105E+03 -3.05454E+03  4.90848E+02 -3.83709E+03  1.33462E+03 -2.37513E+03  2.39766E+03 -5.81721E+02
  2.11229E+03  1.33048E+03  3.17751E+02  2.03129E+03 -1.03251E+03  1.00322E+03 -5.85727E+02 -4.71765E+02
 -4.21057E+02 -1.72516E+03  9.83438E+02 -9.87940E+02  9.39976E+02 -8.33720E+02  6.53727E+02 -4.89295E+02
  6.42885E+02 -6.34880E+01  9.34919E+02 -3.32980E+02 -5.93047E+02  1.02596E+03  1.75935E+03  1.27298E+02
  4.32189E+01 -1.09521E+02  2.08501E+03  6.72348E+02  1.25639E+02  2.10627E+03 -6.20767E+02  2.38814E+03
 -1.12610E+03  6.72812E+02 -1.85828E+03 -4.36327E+02 -2.23467E+03 -5.23523E+02 -1.87508E+02 -8.62056E+02
  2.59915E+02 -6.98872E+02  6.01147E+02 -3.67331E+02  3.37311E+02  1.21487E+03 -7.77584E+02  1.10620E+03
 -1.52030E+03  2.02397E+02 -4.17598E+02 -1.61108E+03 -2.12400E+02 -1.47358E+03 -2.55722E+02 -8.90814E+02
  1.69551E+02 -1.17019E+02  4.45823E+02  7.52523E+02  8.96502E+02 -4.58560E+01  2.60286E+02  1.12338E+03
  1.82650E+02  2.84410E+01 -8.73406E+02 -7.57844E+02  7.52868E+02 -7.63555E+02  7.71672E+02 -4.30561E+02
  1.00214E+03  5.67096E+02  2.48697E+03  1.61066E+02  1.11523E+03  1.47708E+03 -4.42519E+02  1.11073E+03
 -1.09008E+03 -5.30577E+02 -1.20973E+03  3.10552E+01 -8.31723E+02 -1.12258E+03  1.12099E+02 -7.54558E+02
  9.95492E+02 -3.21998E+02  5.54259E+02  6.43921E+02  7.38597E+01  1.16159E+03 -4.05004E+01  9.65560E+02
  4.82073E+02  9.01832E+02 -1.13795E+02  7.05664E+02  3.03156E+02 -6.48001E+01 -3.41923E+02  6.58026E+02
 -3.84936E+02  1.31800E+03 -1.66923E+03  2.74103E+02 -1.18356E+03  3.02753E+02 -2.44402E+03 -9.75654E+02
 -4.35270E+02 -1.91014E+03  4.95762E+02 -2.06467E+03  3.11330E+02 -1.91461E+03  1.79760E+03 -1.36517E+03
  1.69637E+03  1.83508E+02  7.09129E+02  1.20127E+03 -5.24647E+02  7.12247E+02 -2.62053E+02  1.11308E+03
 -5.88143E+02  4.52636E+02 -1.83510E+02 -4.76542E+02 -5.83376E+02  2.04928E+02 -1.01046E+03  1.44176E+02
 -1.39055E+03  2.87512E+01 -7.54578E+02  1.42613E+01 -1.20270E+02 -4.66547E+02 -7.63907E+02 -1.21780E+03
  7.76194E+02 -8.10457E+02 -9.04170E+01  1.75492E+02  7.45761E+02  6.92554E+02 -3.97959E+02  1.55267E+03
 -2.06071E+02  1.93702E+03 -9.00159E+02  1.06956E+03 -1.12708E+03 -2.92317E+02 -2.30873E+02 -1.26461E+03
 -1.15171E+03 -4.01545E+02  4.10943E+02 -3.15033E+02  3.36226E+02  1.72027E+02  5.43626E+02  9.34602E+01
  1.86156E+02 -2.38782E+02  1.99493E+02  3.40366E+02 -5.93399E+02 -1.16762E+02  1.18364E+02 -2.22310E+02
  1.11827E+02 -2.12998E+01 -2.56376E+02  8.39506E+02 -7.69545E+01  3.40811E+02  8.16923E+02 -1.60094E+02
  1.14044E+02  3.11085E+02 -1.05640E+02  2.10436E+02 -2.35774E+02  7.17663E+01  3.74428E+02 -6.80407E+02
  8.04096E+02 -5.16867E+02 -1.28891E+02  1.65394E+02  8.29276E+02 -8.21161E+02  3.01151E+02  5.54168E+02
  4.80120E+02  1.75954E+02 -1.99389E+02  2.68767E+02 -3.43387E+02  3.41306E+02 -1.05028E+01 -2.70588E+02
 -3.52959E+02 -8.69824E+01 -8.56330E+02  2.14297E+02 -7.34804E+02  3.21774E+02 -3.83655E+02 -2.07271E+02
 -1.37664E+03  7.27361E+02 -3.15577E+02 -6.39876E+02  5.84959E+02 -1.72908E+03  8.04426E+01 -9.89440E+02
  6.56624E+02 -1.58936E+01 -3.63911E+02  2.82187E+02 -3.62178E+02  7.05449E+02  1.61810E+02  4.77815E+01
