 $NMID ID='MM_0lb_SNR400_16hz_g55_68.RAW', FMTDAT='(8E13.5)'
 TRAMP=1., VOLUME=1. $END
  3.09682E+05 -2.11294E+02  3.37463E+05  2.50753E+05  8.43240E+04  3.37281E+05 -1.33071E+05  2.50764E+05
 -1.89995E+05  8.29166E+04 -1.11764E+05 -3.27478E+04  9.47211E+02 -5.06264E+04  5.40194E+04  6.73443E+01
  3.54515E+04  5.29765E+04 -1.63895E+04  7.54574E+04 -6.09181E+04  6.38121E+04 -8.42307E+04  3.13801E+04
 -8.08717E+04 -1.13095E+04 -5.75685E+04 -5.07599E+04 -1.53785E+04 -6.97022E+04  2.72823E+04 -4.54937E+04
  3.97447E+04  3.98299E+03  1.57058E+04  4.73666E+04 -3.38804E+04  4.71194E+04 -6.65907E+04 -1.90533E+02
 -5.36693E+04 -5.63522E+04 -6.75318E+03 -7.63627E+04  3.41577E+04 -5.44056E+04  4.77819E+04 -1.71272E+04
  4.29582E+04  1.10308E+04  3.15889E+04  2.52080E+04  1.56209E+04  2.90952E+04 -4.69520E+03  2.64891E+04
 -2.19379E+04  1.30515E+04 -1.89489E+04 -4.91166E+03  4.78885E+03 -7.54729E+03  2.22979E+04  1.18161E+04
  7.48020E+03  3.44325E+04 -3.13509E+04  3.48997E+04 -6.34438E+04  2.46438E+03 -5.59282E+04 -4.29307E+04
 -1.24029E+04 -6.24763E+04  3.96940E+04 -4.52293E+04  5.73667E+04 -2.69590E+03  3.34446E+04  3.22227E+04
 -6.39581E+03  3.55475E+04 -3.01993E+04  1.53168E+04 -3.06908E+04 -4.46257E+03 -1.66026E+04 -1.10905E+04
 -7.86929E+03 -1.23831E+04 -3.02451E+02 -1.83573E+04  7.33244E+03 -2.29218E+04  1.51918E+04 -1.33785E+04
  1.07540E+04  4.80978E+03 -7.73052E+03  1.29005E+04 -2.02961E+04 -4.51221E+03 -8.35443E+03 -3.29582E+04
  2.25571E+04 -4.30491E+04  4.72334E+04 -1.89706E+04  4.43722E+04  1.89350E+04  1.51770E+04  4.37857E+04
 -1.55987E+04  3.27718E+04 -2.52640E+04  2.02243E+03 -9.64580E+03 -2.67268E+04  2.07955E+04 -3.30498E+04
  4.11074E+04 -8.76071E+03  3.49066E+04  2.27443E+04  1.78561E+04  4.61849E+04 -8.03288E+03  4.88332E+04
 -3.14324E+04  3.28967E+04 -4.09857E+04  9.51751E+03 -4.15860E+04 -1.64892E+04 -2.24540E+04 -3.75615E+04
  7.37833E+03 -3.75399E+04  3.16577E+04 -1.44881E+04  2.81059E+04  1.10839E+04  3.41456E+03  1.91793E+04
 -1.38755E+04  8.30124E+03 -1.10376E+04 -7.45787E+03  6.00681E+03 -1.08257E+04  1.80822E+04  6.36019E+03
  1.30757E+04  2.21488E+04 -6.11357E+03  2.43165E+04 -2.23660E+04  1.06173E+04 -2.73339E+04 -4.86982E+03
 -1.98753E+04 -1.73036E+04 -7.66586E+03 -2.00899E+04  4.15325E+03 -1.80464E+04  1.45156E+04 -1.74489E+04
  2.48147E+04 -1.27248E+04  3.11721E+04  2.65864E+03  2.29948E+04  1.95292E+04  4.42346E+03  3.53349E+04
 -1.69240E+04  2.94073E+04 -2.77893E+04  9.92747E+03 -2.09501E+04 -1.01866E+04 -4.42593E+03 -1.30487E+04
  1.36929E+03 -3.44004E+03 -4.40722E+03  7.03141E+03 -1.50664E+04  4.86394E+03 -1.50502E+04 -6.59620E+03
 -1.03299E+04 -1.79909E+04  5.02468E+03 -2.16703E+04  1.48133E+04 -1.57416E+04  1.69599E+04 -1.64257E+03
  1.09045E+04  1.24138E+04 -1.44449E+03  1.79004E+04 -1.25757E+04  1.00159E+04 -1.73888E+04 -3.86340E+03
 -1.28823E+04 -1.67545E+04 -1.50638E+03 -2.20827E+04  1.02765E+04 -1.77761E+04  1.85562E+04 -8.96584E+03
  1.68244E+04  1.27393E+02  1.21857E+04  3.78320E+03  6.50357E+03  9.19759E+02  9.13735E+03 -1.71635E+03
  1.61734E+04  2.50414E+03  1.76842E+04  1.48461E+04  1.17354E+04  2.86852E+04 -2.54252E+03  3.19563E+04
 -1.81439E+04  2.48979E+04 -2.97426E+04  1.20580E+04 -3.10161E+04 -2.38377E+03 -2.64472E+04 -1.81098E+04
 -1.10640E+04 -2.55260E+04  8.40839E+03 -2.34526E+04  1.98381E+04 -1.21600E+04  1.80608E+04  4.97505E+03
  6.89430E+03  1.33703E+04 -8.36956E+03  1.16352E+04 -1.58390E+04  3.02730E+03 -1.20736E+04 -9.41558E+03
 -4.83111E+02 -1.46118E+04  8.08935E+03 -1.00488E+04  9.71570E+03 -1.19307E+03  1.96302E+03  6.34749E+03
 -6.73837E+03  1.92022E+03 -4.97969E+03 -5.48950E+03 -6.88692E+02 -1.17626E+04  9.27928E+03 -1.27778E+04
  1.55116E+04 -6.18220E+03  1.60785E+04  3.47965E+03  1.40949E+04  1.23420E+04  6.57756E+03  1.80345E+04
 -2.83479E+03  2.02247E+04 -1.25208E+04  1.26012E+04 -1.41081E+04  3.41703E+03 -1.00243E+04 -3.11280E+03
 -5.66139E+03 -3.93751E+03 -8.64657E+02  7.89124E+02 -2.22302E+03  1.86829E+03 -4.39581E+03  4.08514E+03
 -1.02238E+04 -8.69516E+02 -1.04843E+04 -8.43982E+03 -3.69761E+03 -1.36709E+04  4.90169E+03 -1.08701E+04
  8.84835E+03 -4.46237E+03  7.25963E+03  3.53908E+03  9.04698E+02  4.04053E+03 -5.08698E+03  2.92183E+02
 -4.64049E+03 -6.71638E+03 -7.87148E+02 -9.17567E+03  4.84968E+03 -1.00988E+04  1.28758E+04 -5.49131E+03
  1.41375E+04  7.93266E+02  1.08201E+04  7.95701E+03  2.20095E+03  1.09512E+04 -6.35327E+03  9.85850E+03
 -8.73773E+03  3.56296E+03 -4.65783E+03 -1.65756E+03  1.14754E+03 -2.77777E+03  5.73244E+03 -1.51239E+03
  5.02441E+03  4.43384E+03  8.60469E+02  8.24550E+03 -5.68921E+03  7.34555E+03 -9.76104E+03  2.40571E+03
 -6.20389E+03 -4.55935E+03  2.57881E+02 -7.95681E+03  4.95054E+03 -4.75608E+03  5.20764E+03  1.99500E+03
  8.12996E+02  4.57939E+03 -4.96322E+03  6.17723E+03 -7.31211E+03  2.60633E+03 -6.85942E+03 -2.31063E+03
 -3.74529E+03 -9.18899E+03  1.64766E+03 -9.73911E+03  7.96409E+03 -6.81441E+03  9.13022E+03  1.02218E+03
  5.41567E+03  7.33643E+03 -5.51257E+02  9.47964E+03 -6.26300E+03  5.10698E+03 -6.50295E+03 -7.77679E+02
 -7.05205E+03 -6.25507E+03 -1.57670E+03 -6.92243E+03  3.76193E+03 -6.00239E+03  4.05625E+03 -3.26642E+03
  2.87729E+03  1.18529E+03 -3.68040E+02  1.63691E+03  3.74025E+02 -1.18648E+03  6.55225E+02 -2.62094E+03
  5.50547E+03 -1.95713E+03  8.05196E+03  1.00691E+03  8.16734E+03  5.09333E+03  6.63001E+03  1.03451E+04
 -2.02516E+03  1.21227E+04 -1.04709E+04  8.90514E+03 -1.30828E+04  1.44898E+03 -1.09149E+04 -3.72583E+03
 -5.59146E+03 -9.14301E+03 -1.19986E+02 -7.03472E+03  2.44944E+03 -3.49209E+03  2.71372E+03 -2.33988E+03
  1.76229E+03 -1.69830E+03  2.52657E+03 -2.26166E+03  4.33357E+03 -1.93969E+03  4.44843E+03  3.79523E+01
  5.43848E+03  2.15982E+03  2.01545E+03  5.11296E+03 -1.75629E+03  4.58827E+03 -5.77180E+03  4.00287E+03
 -6.83868E+03 -4.79078E+02 -3.15087E+03 -5.26219E+03 -7.16743E+00 -7.56667E+03  4.22366E+03 -7.90876E+03
  7.08956E+03 -3.77708E+03  8.89778E+03  9.75347E+02  6.74322E+03  5.94284E+03  1.41538E+03  8.90647E+03
 -3.20211E+03  7.97294E+03 -5.31635E+03  2.23525E+03 -3.04326E+03 -9.41957E+02 -1.14765E+03 -1.81777E+02
 -7.53270E+02 -1.58524E+02 -1.63493E+03  1.58696E+03 -3.75569E+03  1.43030E+03 -5.40349E+03 -7.71934E+02
 -2.82953E+03 -5.36753E+03  6.04936E+02 -6.86482E+03  3.89743E+03 -6.18192E+03  5.86477E+03 -1.46026E+03
  5.94604E+03  3.35529E+03  1.97294E+03  5.67838E+03 -1.39400E+03  6.37241E+03 -4.36220E+03  3.88062E+03
 -5.46953E+03  6.52066E+02 -4.88246E+03 -3.26790E+03 -2.39329E+02 -5.20679E+03  2.91664E+03 -3.81537E+03
  4.33718E+03 -1.55580E+03  2.43486E+03  3.88497E+02  6.57932E+02  2.57522E+03  1.31780E+03  7.96884E+02
  1.72232E+03  4.61779E+02  1.93254E+03  1.03504E+03  1.68575E+03  2.26404E+03  2.02883E+03  3.11257E+03
 -1.57039E+03  4.31262E+03 -4.47689E+03  5.66896E+03 -4.84880E+03  1.26496E+03 -6.46207E+03 -1.63567E+03
 -3.31875E+03 -5.67831E+03  5.77678E+02 -6.99822E+03  3.17622E+03 -4.06666E+03  4.81251E+03 -7.21065E+02
  3.02305E+03  3.12589E+03  7.00189E+02  3.20911E+03 -1.16801E+03  2.70545E+03 -1.36061E+03 -1.00490E+02
 -6.92499E+02 -1.61399E+03  1.73537E+03 -2.60214E+03  2.12235E+03 -1.59210E+03  1.74157E+03  1.05467E+02
  1.68013E+03  8.16461E+02  1.16959E+03 -1.45240E+02 -3.41647E+02  1.02928E+03  1.51870E+03  1.95841E+02
  6.33981E+02 -6.10970E+02  2.53158E+03  9.64253E+02  1.18065E+03  3.42584E+03 -3.80141E+02  4.22273E+03
 -2.94212E+03  2.14119E+03 -3.27631E+03  7.04218E+02 -3.06103E+03 -1.51906E+03 -3.62935E+02 -1.79404E+03
  4.47624E+02 -2.07132E+03  1.74359E+03 -1.06164E+03  7.15306E+02  1.22991E+03 -4.22314E+02  1.40737E+03
 -2.66464E+03  9.69979E+02 -2.03551E+03 -1.23764E+03 -1.47582E+03 -3.22530E+03  3.82752E+02 -2.82212E+03
  1.01082E+03 -1.15674E+03  1.13590E+03  1.04459E+01  1.32368E+03  5.61675E+02  1.09152E+02  1.47688E+03
 -8.01808E+02  1.43434E+02 -1.32538E+03 -7.98853E+02  1.13222E+03 -1.67496E+03  2.15354E+03 -1.50632E+03
  2.76786E+03 -1.66988E+01  3.15735E+03  1.32849E+03  1.31118E+03  2.48473E+03 -1.18009E+03  2.57257E+03
 -2.76232E+03  3.61535E+02 -3.09563E+03 -3.54095E+02 -1.62949E+03 -2.14467E+03  2.51790E+02 -1.43759E+03
  2.19531E+03 -1.37011E+03  1.06782E+03  6.83047E+02  7.31104E+02  1.99017E+03  1.76392E+02  2.14767E+03
 -7.60269E+02  1.83771E+03 -5.65875E+02  7.98104E+02  8.58474E+01  7.85114E+02 -1.04994E+03  4.20944E+02
 -7.65735E+02  1.04367E+03 -1.95091E+03  6.75718E+02 -2.58692E+03  3.17903E+02 -3.95680E+03 -1.09929E+03
 -1.36662E+03 -3.93447E+03  7.50072E+02 -4.65744E+03  2.46481E+03 -3.78347E+03  4.68911E+03 -1.63529E+03
  4.32198E+03  3.61191E+02  1.87006E+03  2.26298E+03 -4.76795E+02  2.58503E+03 -1.54705E+03  1.45510E+03
 -1.66652E+03  1.67847E+03 -8.45209E+02 -3.48710E+02 -7.16103E+02 -2.42362E+01 -4.78350E+02 -3.00164E+02
 -1.30011E+03  5.00572E+02 -1.46802E+03 -4.33606E+02  4.30406E+02 -6.86022E+02 -5.23665E+02 -1.10536E+03
  2.20768E+03 -8.17832E+02  9.15825E+02  4.87449E+01  1.64253E+03  1.42551E+03  2.50528E+02  2.26670E+03
 -1.31205E+03  3.37417E+03 -2.40812E+03  1.30059E+03 -3.06849E+03 -2.49647E+02 -2.40943E+03 -2.53393E+03
 -1.54079E+03 -2.61775E+03  3.24594E+02 -1.92069E+03  8.46613E+02 -1.49213E+03  1.49626E+03 -3.49308E+02
  1.39109E+03  5.86885E+02 -4.16721E+02  1.33360E+02 -1.21526E+03  2.62880E+02  1.59897E+02 -1.79275E+02
  5.29730E+02 -1.42849E+02  4.17332E+02  1.87470E+01  2.14663E+02  1.18470E+03  4.13549E+02  9.90070E+02
 -2.51362E+02  8.84719E+02 -1.37562E+03  8.24597E+02 -1.02352E+03 -8.58661E+02 -5.30063E+01 -2.20555E+03
  1.22076E+03 -1.39996E+03  1.21117E+03 -3.40867E+02  1.89217E+03 -2.46904E+01  9.67237E+02  1.21094E+03
  7.47248E+02  1.08964E+03 -7.85335E+02  1.16516E+03 -1.14717E+03  9.51150E+02 -1.21013E+03  1.75592E+02
  1.50346E+01 -6.88222E+02 -7.09673E+02  1.29809E+02 -6.61532E+02  2.77752E+01 -9.85241E+02  1.23820E+02
 -1.72669E+03  6.70280E+02 -6.84270E+02 -1.04382E+03  7.41977E+02 -1.94228E+03  1.08001E+03 -3.18190E+00
  1.13637E+03  4.71696E+02  4.20305E+01  9.81870E+02  2.77983E+02  1.85785E+03 -1.03874E+03  1.08067E+03
