 $NMID ID='MM_0lb_SNR400_8hz_g55_21.RAW', FMTDAT='(8E13.5)'
 TRAMP=1., VOLUME=1. $END
  3.09563E+05  9.12768E+02  3.37504E+05  2.50886E+05  8.57670E+04  3.38298E+05 -1.33345E+05  2.51713E+05
 -1.90491E+05  8.45685E+04 -1.13669E+05 -3.24664E+04 -5.28233E+02 -5.06567E+04  5.30903E+04 -1.44892E+03
  3.56984E+04  5.28294E+04 -1.55005E+04  7.58007E+04 -6.13649E+04  6.46601E+04 -8.58884E+04  3.30541E+04
 -8.27257E+04 -1.16937E+04 -5.78760E+04 -5.31545E+04 -1.57366E+04 -7.18828E+04  2.87551E+04 -4.74564E+04
  4.13762E+04  4.12370E+03  1.72207E+04  4.87449E+04 -3.46910E+04  4.83065E+04 -6.82125E+04 -4.36975E+02
 -5.45530E+04 -5.82361E+04 -5.86845E+03 -7.95656E+04  3.54859E+04 -5.84204E+04  5.08029E+04 -1.78172E+04
  4.56661E+04  1.16854E+04  3.32659E+04  2.66813E+04  1.56072E+04  3.03630E+04 -6.47303E+03  2.74567E+04
 -2.27869E+04  1.20688E+04 -1.81871E+04 -5.70513E+03  7.62843E+03 -7.79998E+03  2.40136E+04  1.43423E+04
  7.51438E+03  3.88024E+04 -3.46432E+04  3.72963E+04 -6.69882E+04  2.30163E+03 -5.89292E+04 -4.51101E+04
 -1.29870E+04 -6.71844E+04  4.19687E+04 -4.76770E+04  6.25325E+04 -2.37172E+03  3.69387E+04  3.46779E+04
 -5.61247E+03  3.99547E+04 -3.24982E+04  1.91674E+04 -3.41470E+04 -3.02331E+03 -2.03643E+04 -1.28411E+04
 -9.96879E+03 -1.51229E+04 -1.21106E+03 -1.94002E+04  8.76929E+03 -2.32739E+04  1.58105E+04 -1.32335E+04
  1.08306E+04  7.19723E+03 -1.08438E+04  1.20309E+04 -2.35357E+04 -6.80567E+03 -8.17384E+03 -3.90961E+04
  2.53790E+04 -4.81055E+04  5.29770E+04 -2.08178E+04  4.94457E+04  2.02099E+04  1.77866E+04  4.79314E+04
 -1.70168E+04  3.70202E+04 -2.83078E+04  2.74163E+03 -1.24642E+04 -2.93570E+04  2.18001E+04 -3.79586E+04
  4.58395E+04 -1.24853E+04  4.20775E+04  2.53550E+04  2.30348E+04  5.23679E+04 -8.24859E+03  5.84944E+04
 -3.75197E+04  3.97548E+04 -4.90586E+04  1.16255E+04 -4.92133E+04 -2.00336E+04 -2.76220E+04 -4.35134E+04
  8.10976E+03 -4.36637E+04  3.48713E+04 -1.71234E+04  3.30591E+04  1.05564E+04  5.00071E+03  2.07238E+04
 -1.37865E+04  9.73719E+03 -1.22652E+04 -7.64099E+03  5.31425E+03 -1.13303E+04  1.88665E+04  5.61144E+03
  1.59451E+04  2.33834E+04 -5.04267E+03  2.85086E+04 -2.28299E+04  1.45921E+04 -3.30930E+04 -2.17812E+03
 -2.74170E+04 -1.98094E+04 -1.23066E+04 -2.66645E+04  4.63082E+03 -2.77069E+04  2.10388E+04 -2.44681E+04
  3.36622E+04 -1.48131E+04  4.06078E+04  5.29261E+03  2.85392E+04  2.64335E+04  3.93633E+03  4.35439E+04
 -2.05124E+04  3.49554E+04 -3.03951E+04  1.20118E+04 -2.29861E+04 -9.74433E+03 -5.23119E+03 -1.21407E+04
 -2.37018E+02 -3.66998E+02 -8.30865E+03  8.12305E+03 -2.17228E+04  4.94025E+03 -2.17512E+04 -1.06500E+04
 -1.22649E+04 -2.44393E+04  6.35703E+03 -2.88562E+04  1.93916E+04 -2.10691E+04  2.44168E+04 -2.03049E+03
  1.53860E+04  1.71314E+04 -1.65402E+03  2.43775E+04 -1.80367E+04  1.38494E+04 -2.50273E+04 -5.51706E+03
 -1.75528E+04 -2.07941E+04 -2.43603E+03 -2.88292E+04  1.40448E+04 -2.40970E+04  2.44302E+04 -1.24637E+04
  2.27780E+04  3.13794E+02  1.64742E+04  5.78476E+03  1.03385E+04  1.50852E+03  1.29882E+04 -2.28292E+03
  2.34851E+04  3.23758E+03  2.78783E+04  1.89034E+04  1.89269E+04  3.90720E+04 -3.07433E+03  4.65224E+04
 -2.72281E+04  3.99783E+04 -4.51975E+04  2.15848E+04 -4.81346E+04 -3.58009E+03 -3.95201E+04 -2.78104E+04
 -1.51900E+04 -4.04649E+04  1.38310E+04 -3.46145E+04  3.00910E+04 -1.65709E+04  2.64035E+04  9.33554E+03
  7.72063E+03  2.00475E+04 -1.26597E+04  1.72031E+04 -2.10050E+04  2.97951E+03 -1.56814E+04 -1.42207E+04
 -7.03117E+02 -2.02711E+04  1.11671E+04 -1.42976E+04  1.44221E+04 -2.46686E+03  4.53207E+03  1.00504E+04
 -9.87570E+03  4.92630E+03 -1.10262E+04 -7.60355E+03 -1.71576E+03 -1.94773E+04  1.17970E+04 -2.14084E+04
  2.45031E+04 -1.23732E+04  2.89509E+04  3.87313E+03  2.53939E+04  1.97127E+04  1.21954E+04  3.18676E+04
 -6.61129E+03  3.43207E+04 -2.12282E+04  2.09351E+04 -2.55267E+04  4.69895E+03 -1.68128E+04 -6.19953E+03
 -6.82033E+03 -8.63704E+03  3.31850E+01 -4.07944E+02 -2.79252E+03  3.35900E+03 -8.28853E+03  6.51553E+03
 -1.58015E+04 -4.74368E+02 -1.55830E+04 -1.30370E+04 -6.15424E+03 -2.01613E+04  6.35810E+03 -1.68770E+04
  1.41650E+04 -7.22698E+03  9.68898E+03  4.11264E+03  3.45668E+02  7.75476E+03 -9.48587E+03  1.06531E+02
 -7.66918E+03 -1.05984E+04 -1.43109E+03 -1.68841E+04  9.74606E+03 -1.82018E+04  2.24704E+04 -9.54147E+03
  2.61621E+04  2.52747E+03  1.86064E+04  1.59182E+04  3.50249E+03  2.05307E+04 -9.98633E+03  1.67742E+04
 -1.39351E+04  5.76933E+03 -7.43062E+03 -3.81806E+03  2.50626E+03 -5.33920E+03  9.19196E+03 -7.68903E+02
  7.91230E+03  7.20505E+03  1.83567E+03  1.50587E+04 -1.00717E+04  1.34871E+04 -1.69910E+04  3.10810E+03
 -1.20887E+04 -9.03815E+03 -3.28079E+02 -1.43985E+04  1.01378E+04 -7.75103E+03  1.07103E+04  3.36394E+03
  3.15498E+03  1.05206E+04 -8.92780E+03  1.32430E+04 -1.48327E+04  6.61114E+03 -1.59960E+04 -6.25201E+03
 -9.80983E+03 -1.73107E+04  3.84175E+03 -2.13602E+04  1.79461E+04 -1.24912E+04  1.92643E+04  3.50012E+03
  1.07229E+04  1.55704E+04 -5.15364E+02  1.77005E+04 -1.33778E+04  9.75240E+03 -1.41689E+04 -1.78883E+03
 -1.24533E+04 -1.14336E+04 -2.24762E+03 -1.33076E+04  7.45887E+03 -1.09128E+04  8.09617E+03 -3.18557E+03
  5.04155E+03  2.08284E+03 -1.06895E+03  2.84848E+03 -8.90948E+02 -4.82487E+03  3.66035E+03 -8.36501E+03
  1.31330E+04 -6.25208E+03  1.82163E+04  1.97114E+03  1.76004E+04  1.22545E+04  1.19921E+04  2.37794E+04
 -5.75860E+03  2.75301E+04 -2.24913E+04  2.02239E+04 -2.88807E+04  4.06026E+03 -2.38499E+04 -9.90134E+03
 -1.16158E+04 -1.93184E+04 -3.63878E+02 -1.63540E+04  5.78687E+03 -1.02936E+04  5.30993E+03 -5.94226E+03
  4.87047E+03 -3.43188E+03  4.09834E+03 -4.18275E+03  6.17562E+03 -4.80919E+03  9.34066E+03 -1.73918E+03
  1.21707E+04  1.29204E+03  7.44823E+03  1.03612E+04 -1.99906E+03  1.35939E+04 -1.28344E+04  1.00789E+04
 -1.68255E+04 -1.84770E+03 -1.17611E+04 -1.04308E+04 -1.40174E+03 -1.80997E+04  1.03786E+04 -1.75081E+04
  1.83322E+04 -9.34462E+03  2.31946E+04  3.42276E+03  1.51031E+04  1.53982E+04  1.71634E+03  2.02561E+04
 -8.74026E+03  1.63153E+04 -1.18739E+04  5.90951E+03 -8.50953E+03 -1.97546E+03 -3.03719E+03 -2.17352E+03
 -2.08158E+03  3.87152E+02 -3.75097E+03  4.09269E+03 -7.83525E+03  2.16239E+03 -1.09934E+04 -1.03650E+03
 -8.31148E+03 -1.20453E+04 -8.44321E+02 -1.64271E+04  1.02782E+04 -1.56350E+04  1.72944E+04 -4.31808E+03
  1.65725E+04  8.24177E+03  8.62639E+03  1.49076E+04 -3.16013E+03  1.78123E+04 -1.23151E+04  1.07227E+04
 -1.66300E+04 -3.78979E+02 -1.25783E+04 -1.08266E+04 -1.57932E+03 -1.57375E+04  7.49609E+03 -1.17016E+04
  1.11133E+04 -3.55091E+03  7.56649E+03  3.49204E+03  2.10176E+03  4.98393E+03  1.42229E+03  2.33891E+03
  2.67555E+03  1.73015E+03  4.42781E+03  1.12326E+03  5.00041E+03  6.21811E+03  4.63406E+03  8.95447E+03
 -3.57503E+03  1.42604E+04 -1.20764E+04  1.34924E+04 -1.79322E+04  3.83485E+03 -1.86975E+04 -7.70639E+03
 -8.88375E+03 -1.79383E+04  2.64543E+03 -1.92388E+04  1.06350E+04 -1.22881E+04  1.39948E+04 -4.37601E+03
  1.12504E+04  6.79594E+03  2.62181E+03  9.77679E+03 -5.48355E+03  6.39927E+03 -6.78161E+03 -9.91332E+02
 -3.16925E+03 -7.99358E+03  4.05154E+03 -7.92673E+03  8.22808E+03 -4.24690E+03  7.31410E+03  1.64926E+03
  4.08546E+03  3.83213E+03  1.14921E+03  3.52918E+03 -1.84511E+03  1.45529E+03  2.64996E+03 -5.78238E+02
  3.24595E+03 -7.31283E+02  7.53542E+03  2.88610E+03  5.28842E+03  9.65254E+03 -1.63586E+03  1.31171E+04
 -9.33961E+03  8.64704E+03 -1.15009E+04  2.19995E+03 -9.68950E+03 -3.17545E+03 -4.34495E+03 -6.80775E+03
  1.11749E+03 -7.54988E+03  4.33061E+03 -3.52525E+03  3.23627E+03  4.13608E+03 -2.01237E+03  5.66922E+03
 -7.06143E+03  3.58812E+03 -9.02679E+03 -4.20349E+03 -5.03768E+03 -1.00834E+04  1.87152E+03 -1.04988E+04
  5.51352E+03 -6.00815E+03  7.99265E+03 -1.09193E+03  6.79328E+03  2.33466E+03  1.13218E+03  4.54775E+03
 -3.94936E+03  1.70649E+03 -4.75411E+03 -3.70697E+03  2.07947E+03 -8.36940E+03  8.40858E+03 -6.67209E+03
  1.24417E+04  1.23546E+03  1.06123E+04  8.09543E+03  3.73988E+03  1.29642E+04 -5.09133E+03  1.16702E+04
 -1.03236E+04  5.38960E+03 -1.12675E+04 -1.62759E+03 -6.13261E+03 -6.67176E+03  1.85417E+03 -7.86124E+03
  7.39644E+03 -3.52388E+03  5.77721E+03  3.53958E+03  2.54334E+03  6.02844E+03 -1.26661E+03  6.34443E+03
 -2.68350E+03  4.25390E+03 -2.85612E+03  1.65976E+03 -1.48258E+03  1.59882E+03 -1.97358E+03  2.09978E+03
 -4.00857E+03  4.85271E+03 -7.69246E+03  3.54817E+03 -1.23220E+04 -4.72544E+02 -1.34018E+04 -7.65610E+03
 -7.38795E+03 -1.65083E+04  3.06875E+03 -1.85628E+04  1.20307E+04 -1.42302E+04  1.79679E+04 -5.41799E+03
  1.68794E+04  3.47384E+03  1.01414E+04  1.23728E+04  1.13368E+03  1.35326E+04 -5.25215E+03  9.77883E+03
 -7.10450E+03  3.07584E+03 -4.33510E+03 -7.77306E+02 -7.73563E+02 -1.73275E+03 -1.37010E+03  4.82678E+02
 -1.20217E+03 -1.34294E+03 -2.09045E+03 -1.73253E+03 -1.94931E+03 -2.47616E+03  1.22968E+03 -4.15480E+03
  4.48111E+03 -4.10647E+03  7.91025E+03  9.70110E+01  1.03048E+04  7.24330E+03  2.87120E+03  1.32682E+04
 -6.95417E+03  1.40694E+04 -1.38258E+04  8.13390E+03 -1.61739E+04 -9.94515E+02 -1.11481E+04 -9.75119E+03
 -4.43883E+03 -1.30892E+04  3.72416E+03 -1.23848E+04  9.29933E+03 -7.29233E+03  8.33613E+03  1.09888E+02
  4.17626E+03  4.35672E+03 -3.04336E+02  3.31220E+03 -2.53526E+03 -2.45362E+02  1.18474E+02 -2.88247E+03
  3.54315E+03 -1.68603E+03  5.31988E+03  2.27324E+03  3.22840E+03  4.99503E+03 -4.21431E+02  7.40943E+03
 -6.74484E+03  6.76265E+03 -9.53943E+03  1.12785E+03 -7.76701E+03 -6.56992E+03 -1.33155E+03 -1.21368E+04
  6.27178E+03 -9.05768E+03  9.98934E+03 -3.23983E+03  1.07819E+04  2.87951E+03  5.59331E+03  8.14145E+03
  1.24692E+03  9.19004E+03 -3.42096E+03  7.12250E+03 -6.75067E+03  3.25063E+03 -5.46109E+03 -4.00319E+01
 -2.36078E+03 -8.85703E+02 -2.01951E+03  7.34371E+02 -4.63033E+03  9.42275E+02 -6.80344E+03 -1.62636E+03
 -5.92984E+03 -4.34785E+03 -2.03279E+03 -9.36704E+03  4.92362E+03 -9.08344E+03  8.79879E+03 -4.31895E+03
  9.60016E+03  1.19791E+03  6.05624E+03  7.13160E+03 -7.53219E+02  9.41358E+03 -6.83674E+03  5.37174E+03
