 $NMID ID='MM_0lb_SNR400_14hz_g40_41.RAW', FMTDAT='(8E13.5)'
 TRAMP=1., VOLUME=1. $END
  3.10621E+05  4.39874E+02  3.37105E+05  2.50024E+05  8.49467E+04  3.37733E+05 -1.32335E+05  2.50285E+05
 -1.89764E+05  8.22688E+04 -1.11326E+05 -3.30349E+04  1.43407E+03 -5.06504E+04  5.41419E+04  1.26241E+02
  3.52497E+04  5.30279E+04 -1.65035E+04  7.48293E+04 -6.09213E+04  6.31538E+04 -8.40040E+04  3.17516E+04
 -8.10667E+04 -1.12186E+04 -5.68113E+04 -5.14185E+04 -1.51453E+04 -6.85968E+04  2.73912E+04 -4.52746E+04
  4.03841E+04  3.76072E+03  1.59052E+04  4.76382E+04 -3.40430E+04  4.67555E+04 -6.60607E+04 -6.19262E+01
 -5.28306E+04 -5.70463E+04 -5.42747E+03 -7.62550E+04  3.33930E+04 -5.46385E+04  4.73107E+04 -1.69132E+04
  4.30789E+04  1.12413E+04  3.23266E+04  2.52296E+04  1.50080E+04  2.83045E+04 -4.92605E+03  2.79998E+04
 -2.18084E+04  1.28479E+04 -1.83167E+04 -4.38365E+03  5.67152E+03 -7.54760E+03  2.17735E+04  1.21410E+04
  7.65168E+03  3.50760E+04 -3.14941E+04  3.48770E+04 -6.26811E+04  2.44068E+03 -5.64410E+04 -4.21312E+04
 -1.31348E+04 -6.24718E+04  3.95602E+04 -4.48126E+04  5.79423E+04 -1.97068E+03  3.37526E+04  3.16280E+04
 -6.61668E+03  3.57380E+04 -2.92193E+04  1.57310E+04 -2.98887E+04 -4.62540E+03 -1.61739E+04 -1.08579E+04
 -7.82161E+03 -1.27155E+04 -1.39322E+03 -1.75874E+04  6.91412E+03 -2.31376E+04  1.55031E+04 -1.36818E+04
  1.14421E+04  4.73119E+03 -7.00013E+03  1.31153E+04 -2.09910E+04 -3.45078E+03 -8.36067E+03 -3.30554E+04
  2.19986E+04 -4.24637E+04  4.68906E+04 -1.92893E+04  4.46267E+04  1.92112E+04  1.51134E+04  4.36663E+04
 -1.62263E+04  3.30201E+04 -2.49926E+04  1.24300E+03 -9.42153E+03 -2.79914E+04  2.09897E+04 -3.32202E+04
  4.03293E+04 -8.21691E+03  3.41805E+04  2.32292E+04  1.69769E+04  4.56305E+04 -7.79211E+03  4.87766E+04
 -3.12411E+04  3.24325E+04 -4.08992E+04  9.95084E+03 -4.17604E+04 -1.57935E+04 -2.24209E+04 -3.73418E+04
  7.84682E+03 -3.69063E+04  3.08982E+04 -1.46128E+04  2.90298E+04  1.07387E+04  3.93788E+03  1.86641E+04
 -1.32151E+04  8.44797E+03 -1.03278E+04 -7.52474E+03  5.63918E+03 -1.09418E+04  1.77023E+04  6.34016E+03
  1.35681E+04  2.20887E+04 -5.60806E+03  2.39674E+04 -2.13279E+04  1.15689E+04 -2.68868E+04 -4.14454E+03
 -1.98852E+04 -1.68830E+04 -8.08452E+03 -1.95032E+04  4.43355E+03 -1.79837E+04  1.46944E+04 -1.75521E+04
  2.55892E+04 -1.22699E+04  3.14642E+04  2.49709E+03  2.31731E+04  1.86050E+04  4.35650E+03  3.57403E+04
 -1.71448E+04  2.99711E+04 -2.73612E+04  1.03128E+04 -2.04713E+04 -1.08329E+04 -4.03744E+03 -1.31141E+04
  1.58067E+03 -3.47784E+03 -4.08159E+03  6.41862E+03 -1.53057E+04  5.85236E+03 -1.55041E+04 -6.03608E+03
 -1.03151E+04 -1.80727E+04  4.63352E+03 -2.27135E+04  1.46690E+04 -1.63458E+04  1.73340E+04 -1.57648E+03
  1.08502E+04  1.25342E+04 -5.95157E+02  1.85293E+04 -1.19376E+04  1.02098E+04 -1.80772E+04 -4.15108E+03
 -1.32327E+04 -1.66135E+04 -9.78155E+02 -2.16599E+04  9.56645E+03 -1.72875E+04  1.82807E+04 -9.02963E+03
  1.71615E+04  1.02653E+02  1.21407E+04  4.63568E+03  6.28748E+03  5.97020E+02  9.59978E+03 -1.88360E+03
  1.68175E+04  3.14875E+03  1.83505E+04  1.44640E+04  1.21427E+04  2.90503E+04 -2.70460E+03  3.22484E+04
 -1.89046E+04  2.62460E+04 -3.02731E+04  1.28389E+04 -3.14644E+04 -2.37333E+03 -2.59408E+04 -1.83590E+04
 -1.18582E+04 -2.63496E+04  7.90725E+03 -2.36425E+04  2.07407E+04 -1.24914E+04  1.90555E+04  4.55216E+03
  7.30327E+03  1.38928E+04 -8.58440E+03  1.23754E+04 -1.53130E+04  2.66415E+03 -1.20510E+04 -9.46740E+03
  2.77853E+02 -1.43380E+04  7.87785E+03 -1.12450E+04  1.04115E+04 -1.21941E+03  2.54225E+03  6.06821E+03
 -6.68732E+03  2.14177E+03 -4.89688E+03 -5.55015E+03 -6.42540E+02 -1.23684E+04  8.80395E+03 -1.41729E+04
  1.59090E+04 -6.31396E+03  1.68042E+04  2.60589E+03  1.46485E+04  1.25608E+04  6.84122E+03  1.92084E+04
 -2.71066E+03  2.09827E+04 -1.35968E+04  1.33685E+04 -1.49972E+04  3.15673E+03 -1.06689E+04 -3.44003E+03
 -5.36443E+03 -5.09266E+03 -2.06058E+02  1.34604E+03 -2.13258E+03  2.32743E+03 -4.71047E+03  4.64805E+03
 -9.54807E+03 -1.75210E+02 -1.09968E+04 -8.79186E+03 -4.68952E+03 -1.42072E+04  4.38256E+03 -1.10705E+04
  9.00758E+03 -5.22991E+03  7.12361E+03  1.95546E+03 -1.20969E+02  4.37837E+03 -4.33947E+03 -1.06149E+02
 -5.30732E+03 -6.51361E+03 -1.15339E+03 -9.96367E+03  5.62293E+03 -1.09059E+04  1.30965E+04 -5.41894E+03
  1.58841E+04  1.02740E+03  1.15880E+04  8.75597E+03  2.57856E+03  1.22969E+04 -6.82333E+03  1.06087E+04
 -8.21263E+03  2.99219E+03 -3.92021E+03 -1.54850E+03  1.73414E+03 -2.65533E+03  5.88520E+03 -8.53851E+02
  5.94331E+03  4.46251E+03  1.40816E+03  8.61883E+03 -5.62594E+03  8.19158E+03 -1.11863E+04  2.48022E+03
 -7.12180E+03 -4.62011E+03  2.89900E+01 -8.71265E+03  5.18492E+03 -4.37636E+03  5.48526E+03  2.05917E+03
  1.40782E+03  5.50823E+03 -5.90030E+03  7.02977E+03 -7.85909E+03  3.44976E+03 -7.43223E+03 -2.55511E+03
 -4.86356E+03 -9.59261E+03  2.17360E+03 -1.05771E+04  8.48850E+03 -6.77681E+03  9.92852E+03  2.24441E+03
  6.83354E+03  7.65741E+03 -5.73992E+02  9.74584E+03 -7.17770E+03  5.64389E+03 -7.63584E+03 -1.10358E+03
 -6.85335E+03 -7.27354E+03 -1.20680E+03 -7.31335E+03  3.71010E+03 -5.81695E+03  4.13120E+03 -2.96768E+03
  3.74969E+03  1.01500E+03 -2.97799E+02  1.48947E+03 -1.06517E+02 -1.52875E+03  1.03350E+03 -3.51731E+03
  6.38331E+03 -2.41502E+03  8.57207E+03  4.46657E+02  9.02709E+03  5.39480E+03  6.42538E+03  1.18124E+04
 -2.20898E+03  1.33695E+04 -1.21164E+04  1.00053E+04 -1.53962E+04  1.71892E+03 -1.21278E+04 -4.29674E+03
 -5.76714E+03 -9.53575E+03 -1.75577E+02 -7.73919E+03  2.57921E+03 -4.00508E+03  3.01355E+03 -2.80534E+03
  1.27473E+03 -2.33713E+03  2.95825E+03 -2.68569E+03  4.48145E+03 -1.48812E+03  5.01342E+03  1.33546E+02
  5.89523E+03  2.00082E+03  3.20590E+03  5.64425E+03 -1.93127E+03  5.30107E+03 -6.63976E+03  4.24502E+03
 -8.74113E+03 -1.09325E+03 -4.64957E+03 -5.48384E+03 -7.91406E+02 -8.28662E+03  5.33185E+03 -8.33650E+03
  8.83184E+03 -5.18910E+03  1.08658E+04  1.30549E+03  7.04480E+03  6.94071E+03  1.25624E+03  9.70102E+03
 -4.00283E+03  8.19343E+03 -5.40389E+03  2.57423E+03 -3.50693E+03 -9.79502E+02 -1.13134E+03 -8.74960E+02
 -8.54440E+02  6.25974E+02 -1.59800E+03  2.59446E+03 -3.57653E+03  1.49107E+03 -6.28115E+03 -7.98560E+02
 -3.36627E+03 -5.58667E+03  6.38160E+02 -7.37401E+03  5.07780E+03 -7.18083E+03  7.24898E+03 -2.01942E+03
  6.97836E+03  3.74570E+03  3.74514E+03  6.42190E+03 -1.44938E+03  8.32932E+03 -4.40888E+03  4.81626E+03
 -6.37042E+03  4.79389E+02 -5.95633E+03 -4.81042E+03 -6.10014E+02 -6.32757E+03  3.45302E+03 -4.68005E+03
  4.90323E+03 -2.19325E+03  3.23969E+03  1.25374E+03  9.15257E+02  2.39005E+03  1.24108E+03  1.05447E+03
  2.45193E+03  8.22509E+02  1.62111E+03  9.85901E+02  2.52667E+03  3.07596E+03  2.19286E+03  3.67352E+03
 -1.66973E+03  5.16666E+03 -5.23900E+03  6.63210E+03 -6.40326E+03  1.68903E+03 -7.20199E+03 -2.46126E+03
 -3.18816E+03 -7.78624E+03  7.93976E+02 -7.95870E+03  3.53790E+03 -4.26171E+03  5.46306E+03 -2.00629E+03
  4.10418E+03  2.86963E+03  1.24888E+03  4.46291E+03 -1.45319E+03  2.42422E+03 -2.43453E+03 -6.23755E+02
 -1.59266E+03 -2.61433E+03  2.02160E+03 -3.63971E+03  2.66819E+03 -1.43268E+03  2.68864E+03  6.22502E+02
  6.79434E+02  5.10178E+02  1.29095E+03  1.82155E+02 -7.35113E+02  6.54411E+02  1.84398E+03 -2.48815E+02
  5.11023E+02 -2.88692E+02  2.81884E+03  1.46197E+03  1.45787E+03  4.18223E+03 -5.56875E+02  4.88928E+03
 -3.29666E+03  2.91144E+03 -3.93392E+03  1.16065E+03 -3.88843E+03 -1.70981E+03 -1.25824E+03 -2.63892E+03
  4.73957E+02 -2.30173E+03  2.03277E+03 -1.52101E+03  1.54143E+03  1.57802E+03 -6.60538E+02  2.26236E+03
 -3.17791E+03  1.22483E+03 -3.17170E+03 -2.51400E+03 -1.58303E+03 -4.41325E+03 -1.60773E+02 -3.74626E+03
  2.00554E+03 -1.21503E+03  2.03790E+03  3.38798E+02  2.32589E+03  1.02841E+03  2.69108E+02  2.25749E+03
 -1.29902E+03 -2.46268E+02 -1.21873E+03 -1.03235E+03  9.49580E+02 -2.63478E+03  3.45911E+03 -1.73193E+03
  3.63896E+03  9.44116E+02  5.01118E+03  1.96214E+03  1.84012E+03  3.54359E+03 -8.09242E+02  4.54869E+03
 -3.31420E+03  1.45949E+03 -3.41469E+03 -1.08998E+02 -1.88811E+03 -2.86267E+03 -8.81332E+01 -1.89440E+03
  2.93776E+03 -1.06643E+03  2.67080E+03  1.08295E+03  2.76109E+02  2.59138E+03  2.26996E+02  2.22939E+03
 -1.05466E+03  2.03583E+03 -1.08229E+03  3.49497E+02 -3.45653E+02  9.02979E+02 -1.21919E+03  9.22929E+02
 -1.11988E+03  1.60233E+03 -2.82708E+03  1.44221E+03 -4.34809E+03  3.03890E+02 -4.40224E+03 -2.26982E+03
 -2.25060E+03 -5.11373E+03  4.34342E+02 -6.10307E+03  2.99658E+03 -4.74482E+03  5.71372E+03 -2.25162E+03
  5.62690E+03  1.20487E+03  2.88345E+03  3.30284E+03 -9.99101E+01  3.87528E+03 -1.89042E+03  3.20187E+03
 -2.21836E+03  9.79230E+02 -1.36134E+03 -7.44133E+02 -1.01805E+03 -2.45860E+02 -4.06359E+02 -3.94729E+02
 -1.13424E+03  7.24883E+02 -1.13260E+03 -6.90152E+01 -7.77367E+02 -1.37260E+03 -6.21072E+02 -1.26939E+03
  2.34042E+03 -1.38137E+03  2.26088E+03  1.06938E+02  2.83878E+03  1.88442E+03  5.30493E+01  3.61754E+03
 -1.78786E+03  4.70205E+03 -4.36716E+03  2.47825E+03 -4.89502E+03  9.29442E+01 -3.84396E+03 -3.00258E+03
 -1.78248E+03 -3.94251E+03  5.76865E+02 -3.67581E+03  2.13821E+03 -2.07029E+03  2.35397E+03  1.38000E+02
  1.73005E+03  1.31286E+03 -1.01702E+01  1.64877E+03 -5.91721E+02 -3.23379E+02  8.37157E+01 -5.04121E+02
  1.26187E+03 -6.71006E+02  1.47733E+03  3.00158E+02  1.23386E+03  1.95383E+03  3.86290E+02  1.41933E+03
 -1.89520E+03  1.76374E+03 -2.76589E+03  1.72606E+02 -2.24148E+03 -2.08447E+03  6.48642E+01 -3.13514E+03
  1.40022E+03 -2.20771E+03  2.81552E+03 -3.88516E+02  2.80115E+03 -3.19652E+02  1.43031E+03  2.32062E+03
  1.00367E+03  2.68866E+03 -5.21023E+02  2.29405E+03 -1.97484E+03  1.63268E+03 -9.66330E+02  6.39890E+02
 -1.55849E+02  2.30141E+02 -1.33853E+03  8.47364E+01 -9.56283E+02  4.37799E+02 -2.30291E+03 -5.59170E+02
 -1.46698E+03 -4.20908E+02 -4.94359E+02 -2.76771E+03  1.30451E+03 -2.75582E+03  1.93889E+03 -1.74078E+03
  2.07120E+03  2.61680E+02  6.65016E+02  1.34531E+03 -2.25989E+02  2.40866E+03 -1.66848E+03  2.16485E+03
