 $NMID ID='MM_0lb_SNR400_19hz_g40_38.RAW', FMTDAT='(8E13.5)'
 TRAMP=1., VOLUME=1. $END
  3.09441E+05  4.32455E+02  3.37371E+05  2.50740E+05  8.39562E+04  3.37494E+05 -1.32684E+05  2.50092E+05
 -1.89175E+05  8.21946E+04 -1.10731E+05 -3.27621E+04  2.02305E+03 -4.98872E+04  5.40554E+04  4.61038E+02
  3.53502E+04  5.28650E+04 -1.73120E+04  7.47759E+04 -5.98063E+04  6.24950E+04 -8.25833E+04  3.14366E+04
 -7.93659E+04 -1.04946E+04 -5.63092E+04 -4.94231E+04 -1.44675E+04 -6.79533E+04  2.64045E+04 -4.41472E+04
  3.79516E+04  3.82281E+03  1.53018E+04  4.68828E+04 -3.43206E+04  4.61870E+04 -6.49576E+04 -5.85288E+02
 -5.19901E+04 -5.56104E+04 -6.30425E+03 -7.46256E+04  3.26151E+04 -5.27844E+04  4.49997E+04 -1.57935E+04
  4.13431E+04  1.08720E+04  3.06184E+04  2.40864E+04  1.58872E+04  2.82748E+04 -4.36901E+03  2.63458E+04
 -2.14100E+04  1.22064E+04 -1.95177E+04 -3.98656E+03  4.05753E+03 -7.64119E+03  2.10829E+04  1.05075E+04
  7.36034E+03  3.32106E+04 -3.03989E+04  3.35188E+04 -6.09364E+04  2.17890E+03 -5.50507E+04 -4.03419E+04
 -1.25503E+04 -6.01504E+04  3.77421E+04 -4.17934E+04  5.41986E+04 -2.19982E+03  3.12483E+04  3.00362E+04
 -6.96612E+03  3.26218E+04 -2.73825E+04  1.28308E+04 -2.66385E+04 -5.34929E+03 -1.36414E+04 -9.58725E+03
 -7.10172E+03 -1.05709E+04 -1.60805E+03 -1.62876E+04  6.31438E+03 -2.23620E+04  1.46439E+04 -1.43152E+04
  1.22710E+04  3.90873E+03 -5.42257E+03  1.31033E+04 -1.87214E+04 -1.83229E+03 -7.79219E+03 -2.91527E+04
  2.00317E+04 -3.92850E+04  4.36764E+04 -1.83458E+04  4.10558E+04  1.80964E+04  1.41239E+04  4.07900E+04
 -1.50148E+04  3.02284E+04 -2.29430E+04  5.44855E+02 -7.88786E+03 -2.61233E+04  2.00997E+04 -3.07425E+04
  3.75051E+04 -6.55575E+03  2.96669E+04  2.29596E+04  1.47301E+04  4.12243E+04 -7.96866E+03  4.34457E+04
 -2.79600E+04  2.88246E+04 -3.62884E+04  8.12193E+03 -3.66230E+04 -1.41315E+04 -2.08784E+04 -3.34146E+04
  6.90702E+03 -3.29253E+04  2.82077E+04 -1.24377E+04  2.61552E+04  1.07195E+04  2.37436E+03  1.77398E+04
 -1.28794E+04  6.71980E+03 -9.22705E+03 -7.73974E+03  6.30453E+03 -1.06480E+04  1.67045E+04  6.30257E+03
  1.16938E+04  2.13923E+04 -6.75311E+03  2.26634E+04 -2.11674E+04  8.37273E+03 -2.37172E+04 -6.62930E+03
 -1.57024E+04 -1.60189E+04 -4.53698E+03 -1.61508E+04  3.72280E+03 -1.34488E+04  1.19053E+04 -1.29863E+04
  1.99598E+04 -1.16122E+04  2.68878E+04  1.24397E+03  2.03671E+04  1.55585E+04  3.94696E+03  3.13178E+04
 -1.49296E+04  2.67146E+04 -2.52191E+04  9.15563E+03 -1.92307E+04 -1.05845E+04 -3.53903E+03 -1.38454E+04
  2.86852E+03 -4.57601E+03 -1.96288E+03  5.42783E+03 -1.23138E+04  5.47847E+03 -1.27055E+04 -4.15155E+03
 -8.44205E+03 -1.42488E+04  4.67494E+03 -1.79223E+04  1.19898E+04 -1.36756E+04  1.39387E+04 -1.69463E+03
  8.32491E+03  1.02810E+04 -9.94284E+02  1.47291E+04 -9.72691E+03  7.98148E+03 -1.46700E+04 -3.40392E+03
 -1.08466E+04 -1.37977E+04 -1.45094E+03 -1.77004E+04  8.08593E+03 -1.45317E+04  1.53258E+04 -6.51733E+03
  1.41512E+04  7.88351E+02  9.54083E+03  3.63915E+03  5.22170E+03  2.28318E+02  6.70141E+03 -1.08327E+03
  1.31477E+04  2.84169E+03  1.39670E+04  1.19946E+04  7.82057E+03  2.28192E+04 -3.56722E+03  2.48881E+04
 -1.43827E+04  1.81622E+04 -2.26743E+04  8.75212E+03 -2.30428E+04 -1.68742E+03 -1.98156E+04 -1.29236E+04
 -9.39368E+03 -1.86073E+04  6.15104E+03 -1.74318E+04  1.53340E+04 -1.06702E+04  1.49999E+04  3.27532E+03
  6.56197E+03  1.08181E+04 -6.65215E+03  9.73518E+03 -1.25810E+04  2.77706E+03 -1.00132E+04 -7.59026E+03
 -9.21002E+01 -1.15967E+04  5.85349E+03 -9.05697E+03  7.61569E+03 -1.29563E+03  1.49664E+03  4.86791E+03
 -4.80450E+03  1.13188E+03 -2.83155E+03 -4.33317E+03  9.25110E+02 -9.68957E+03  7.10007E+03 -9.16431E+03
  1.07440E+04 -3.66353E+03  1.03531E+04  2.53938E+03  8.67520E+03  8.77805E+03  4.24315E+03  1.27927E+04
 -9.81209E+02  1.45206E+04 -8.62135E+03  9.35750E+03 -1.03463E+04  2.73901E+03 -7.63978E+03 -1.66796E+03
 -4.04954E+03 -3.15742E+03 -8.06897E+02  2.05403E+03 -2.04720E+03  1.72786E+03 -3.54523E+03  3.34791E+03
 -7.58341E+03 -6.88674E+02 -8.09961E+03 -6.26769E+03 -3.57957E+03 -1.03513E+04  3.14306E+03 -7.91196E+03
  6.56572E+03 -3.79620E+03  4.62278E+03  2.09266E+03  7.00260E+02  2.75328E+03 -3.04787E+03 -2.69795E+02
 -3.54783E+03 -4.52185E+03 -1.03657E+02 -6.59949E+03  3.45103E+03 -7.20191E+03  8.46381E+03 -3.57550E+03
  1.06984E+04  1.17197E+02  8.29565E+03  5.43489E+03  1.75688E+03  8.22471E+03 -5.28671E+03  7.42020E+03
 -6.31880E+03  3.24443E+03 -3.25698E+03 -8.39792E+02  1.15933E+03 -1.27056E+03  4.79042E+03 -9.62705E+02
  3.64469E+03  3.66198E+03  1.49878E+03  6.36845E+03 -3.87299E+03  6.11475E+03 -7.38331E+03  1.94841E+03
 -4.63564E+03 -3.13152E+03  1.48349E+01 -6.52848E+03  3.65078E+03 -2.94026E+03  3.50037E+03  6.15862E+02
  3.92687E+02  2.95593E+03 -4.04390E+03  4.61002E+03 -4.32071E+03  2.08245E+03 -4.17001E+03 -1.06874E+03
 -2.97108E+03 -5.25486E+03  1.26838E+03 -5.76745E+03  4.71806E+03 -4.01330E+03  5.96015E+03  7.98113E+02
  4.07489E+03  4.43264E+03  6.75680E+02  6.31787E+03 -4.64454E+03  3.76956E+03 -4.95452E+03 -5.16913E+01
 -5.34019E+03 -4.33521E+03 -1.25735E+03 -4.48689E+03  2.05788E+03 -4.44531E+03  2.82196E+03 -2.32904E+03
  2.38918E+03  5.36765E+02  3.50794E+02  1.36396E+03  1.01471E+03 -1.46946E+02 -3.00179E+02 -1.59481E+03
  3.45815E+03 -4.06744E+02  4.48365E+03  4.11674E+02  5.24610E+03  2.39410E+03  4.94819E+03  6.16544E+03
 -9.24106E+02  7.34622E+03 -7.03131E+03  5.83970E+03 -9.61953E+03  4.95463E+02 -6.78730E+03 -2.24897E+03
 -3.61487E+03 -5.80268E+03 -6.18200E+02 -5.00046E+03  1.69445E+03 -2.19031E+03  1.58976E+03 -2.43666E+03
  1.28387E+03 -1.33099E+03  2.73355E+03 -2.21087E+03  3.41484E+03 -1.56271E+03  3.16770E+03  5.91239E+02
  4.05246E+03  7.86504E+02  1.12764E+03  3.46384E+03 -1.41652E+03  2.40457E+03 -3.47391E+03  2.06688E+03
 -4.23824E+03 -7.33071E+02 -1.34013E+03 -3.12944E+03  9.58549E+02 -4.68634E+03  2.82686E+03 -4.87516E+03
  4.76520E+03 -2.70056E+03  5.76413E+03 -3.66772E+02  4.72770E+03  3.71029E+03  1.34923E+03  5.72814E+03
 -2.39094E+03  5.34171E+03 -3.45397E+03  1.42814E+03 -1.42575E+03 -9.87070E+02 -4.66374E+02 -5.25781E+02
 -6.51319E+02  4.51918E+02 -9.97609E+02  1.66594E+03 -2.68342E+03  1.06487E+03 -3.55737E+03 -3.45479E+02
 -7.58902E+02 -4.33573E+03  2.92934E+02 -4.51709E+03  2.64120E+03 -4.50174E+03  2.92489E+03 -1.19092E+03
  3.83196E+03  2.18742E+03  1.40964E+03  2.59646E+03 -1.75466E+02  4.15057E+03 -2.35705E+03  2.46420E+03
 -3.21146E+03  7.98986E+02 -3.16695E+03 -2.63811E+03 -1.31170E+02 -2.84552E+03  1.48609E+03 -2.37553E+03
  2.74448E+03 -8.57410E+02  2.00676E+03  4.93572E+02  6.15010E+02  1.62267E+03  1.01188E+03  5.78203E+02
  1.68380E+03  1.10897E+03  1.00738E+03  1.20924E+03  8.88186E+02  2.42304E+03  1.49319E+03  1.27237E+03
 -1.11504E+03  2.64550E+03 -2.21805E+03  3.16219E+03 -2.41996E+03  1.11599E+03 -3.43771E+03  1.11215E+02
 -1.30818E+03 -3.01562E+03  3.84449E+02 -4.48280E+03  2.39199E+03 -2.06229E+03  2.89604E+03 -9.51545E+02
  2.31872E+03  1.70500E+03  2.02413E+02  2.72998E+03 -9.84846E+02  1.50153E+03 -1.13931E+03 -4.53670E+01
 -8.82281E+02 -1.01262E+03  1.19836E+03 -1.61366E+03  8.73290E+02 -1.42593E+03  7.22300E+02  5.64344E+02
  4.34485E+01  3.70334E+02  7.92424E+02  4.21406E+01 -3.08605E+02  8.19408E+02  1.66365E+03  2.69493E+01
 -6.52798E+02  4.24940E+02  2.17693E+03  1.04704E+03  1.52333E+02  2.23903E+03  9.48537E+01  2.65036E+03
 -1.74107E+03  1.10109E+03 -2.19850E+03 -3.73376E+01 -2.39462E+03 -5.88326E+02  1.95755E+02 -2.21711E+02
  4.75972E+02 -1.03224E+03  7.93786E+02  5.71936E+01  1.59546E+01  1.13666E+03 -3.29904E+02  7.73166E+02
 -1.25869E+03  9.66023E+02 -6.37235E+02 -8.14221E+02 -7.07633E+02 -1.62283E+03 -8.32195E+02 -1.66675E+03
  3.54017E+02 -6.59462E+02  3.27483E+02  3.38528E+01  1.22597E+03 -6.72139E+02  7.29183E+02  8.90280E+02
 -1.95790E+02 -1.38579E+02 -5.19213E+02  1.03846E+02  6.71972E+02 -4.74566E+02  1.24284E+03 -6.14443E+02
  7.72514E+02 -3.62488E+01  2.54542E+03  1.13934E+03  1.22117E+03  1.82567E+03 -1.66851E+02  1.82971E+03
 -1.29383E+03  1.47351E+02 -1.49428E+03 -6.34370E+02 -3.42904E+02 -1.27778E+03  1.80466E+02 -2.27347E+02
  1.72740E+03 -4.65774E+02  3.83138E+02  9.18228E+02  3.08450E+02  1.12998E+03  4.98056E+02  6.50903E+02
  1.55401E+01  8.08197E+02 -1.06180E+03  1.82371E+02 -4.10081E+02  7.11007E+01 -8.32584E+02  5.65228E+02
 -2.14811E+02  1.03612E+03 -2.10326E+03  8.75497E+02 -1.71016E+03  6.65375E+02 -2.20332E+03 -8.59753E+02
 -5.08687E+02 -1.63937E+03  5.58704E+02 -2.71499E+03  9.80641E+02 -2.07517E+03  2.76797E+03 -9.92539E+02
  2.06572E+03 -8.50439E+01  1.19353E+03  9.74630E+02 -1.04898E+03  9.52468E+02 -6.18726E+02  5.97991E+02
 -1.57658E+03  1.05758E+03 -3.48641E+02 -3.62540E+02 -2.76584E+02  5.95925E+02 -5.60769E+02 -2.36056E+02
 -8.25250E+02  1.68824E+02 -1.44549E+03  2.92766E+02 -2.17412E+02 -5.19800E+02 -4.01129E+02 -6.22785E+02
  1.51236E+03 -5.61584E+02  5.27890E+02  6.24740E+02  9.58973E+02  9.72717E+02 -6.75104E+01  1.50288E+03
 -1.21737E+03  2.15527E+03 -1.11304E+03  1.66082E+03 -1.47076E+03  3.11258E+01 -7.42834E+02 -9.03666E+02
 -1.00355E+03 -1.15333E+03  4.26740E+02 -1.00030E+03 -2.44607E+02 -1.80999E+02  4.31846E+02  7.02284E+02
  2.73463E+02  7.60435E+02 -5.90217E+01  6.57409E+02  1.12947E+00  1.92474E+02 -1.77502E+02 -3.29970E+02
  5.15309E+02  3.15907E+02 -3.09296E+02  3.96125E+02  3.09864E+02 -5.01529E+00  3.26470E+02  3.77712E+02
 -6.82478E+02  6.28357E+02 -8.82900E+02  2.98331E+02 -7.79585E+02 -4.14078E+02  2.87164E+02 -1.56932E+03
  6.78278E+02 -1.82186E+02  3.78108E+02  5.44793E+02  6.60775E+02 -4.85841E+02  9.71419E+02  9.81172E+02
  3.81390E+02  3.32411E+02  2.39885E+02  5.08857E+02 -5.44176E+02  6.42411E+02 -6.83575E+02  5.31699E+02
 -4.82225E-01 -3.68368E+02 -7.13688E+02  4.21133E+02 -4.41039E+02  2.70602E+02 -6.82859E+02  3.05660E+02
 -5.20063E+02  3.44880E+02 -5.37081E+02 -1.20390E+03  1.09992E+03 -1.46828E+03  2.58344E+02 -3.92855E+02
  6.74256E+02 -5.53692E+02 -2.97669E+02 -3.31497E+01 -2.26293E+02  5.18273E+02  1.53454E+02  6.86646E+02
