 $NMID ID='MM_0lb_SNR400_12hz_g50_17.RAW', FMTDAT='(8E13.5)'
 TRAMP=1., VOLUME=1. $END
  3.10471E+05  1.33881E+01  3.37319E+05  2.50713E+05  8.49001E+04  3.38119E+05 -1.32386E+05  2.51592E+05
 -1.90139E+05  8.33452E+04 -1.12924E+05 -3.23186E+04  6.89110E+02 -5.09889E+04  5.38868E+04 -3.00581E+02
  3.54011E+04  5.29625E+04 -1.70237E+04  7.56815E+04 -6.12639E+04  6.40948E+04 -8.46677E+04  3.23807E+04
 -8.13113E+04 -1.17471E+04 -5.80539E+04 -5.18297E+04 -1.47004E+04 -6.97664E+04  2.78198E+04 -4.63405E+04
  4.06365E+04  4.11812E+03  1.66797E+04  4.84785E+04 -3.43376E+04  4.70528E+04 -6.69881E+04  6.66631E+02
 -5.36480E+04 -5.64485E+04 -6.99177E+03 -7.82999E+04  3.45998E+04 -5.54602E+04  4.83633E+04 -1.74311E+04
  4.45420E+04  1.12040E+04  3.19615E+04  2.59906E+04  1.59377E+04  3.03796E+04 -5.03918E+03  2.79572E+04
 -2.28099E+04  1.24695E+04 -1.84182E+04 -4.80678E+03  5.89137E+03 -7.74851E+03  2.27529E+04  1.30921E+04
  7.13377E+03  3.55803E+04 -3.27131E+04  3.65947E+04 -6.44470E+04  1.79695E+03 -5.74235E+04 -4.31892E+04
 -1.24208E+04 -6.42779E+04  4.10342E+04 -4.62014E+04  5.93377E+04 -2.19232E+03  3.57748E+04  3.30563E+04
 -5.73977E+03  3.83569E+04 -3.03728E+04  1.74651E+04 -3.16464E+04 -4.00724E+03 -1.75202E+04 -1.10518E+04
 -8.75000E+03 -1.47075E+04 -9.79461E+02 -1.87587E+04  7.83273E+03 -2.28772E+04  1.54213E+04 -1.28275E+04
  1.09336E+04  5.28840E+03 -8.66518E+03  1.24851E+04 -2.16648E+04 -5.20473E+03 -8.56053E+03 -3.54814E+04
  2.38709E+04 -4.48559E+04  4.99747E+04 -2.01257E+04  4.64341E+04  1.99210E+04  1.67252E+04  4.54982E+04
 -1.59793E+04  3.48306E+04 -2.66232E+04  1.94500E+03 -1.05117E+04 -2.87413E+04  2.09454E+04 -3.54550E+04
  4.26822E+04 -9.81073E+03  3.77470E+04  2.47816E+04  1.92417E+04  4.91411E+04 -8.27616E+03  5.25722E+04
 -3.29779E+04  3.60967E+04 -4.40634E+04  9.52502E+03 -4.47697E+04 -1.77700E+04 -2.47623E+04 -3.96726E+04
  7.17180E+03 -3.97079E+04  3.29423E+04 -1.62668E+04  3.00724E+04  1.17845E+04  4.76595E+03  1.92141E+04
 -1.34967E+04  9.19332E+03 -1.10467E+04 -7.32673E+03  5.76803E+03 -1.11041E+04  1.83688E+04  6.02681E+03
  1.36458E+04  2.21468E+04 -5.96151E+03  2.66496E+04 -2.32022E+04  1.26686E+04 -3.03017E+04 -3.05029E+03
 -2.25111E+04 -1.73842E+04 -1.04697E+04 -2.26766E+04  4.50999E+03 -2.20650E+04  1.70991E+04 -2.00287E+04
  2.87494E+04 -1.39231E+04  3.53333E+04  3.33064E+03  2.53990E+04  2.16309E+04  4.35820E+03  3.86006E+04
 -1.89350E+04  3.18726E+04 -2.89566E+04  1.12256E+04 -2.17377E+04 -1.03752E+04 -4.76078E+03 -1.37238E+04
  9.27922E+02 -2.51435E+03 -6.34897E+03  7.90637E+03 -1.74542E+04  5.19414E+03 -1.79036E+04 -8.24980E+03
 -9.90527E+03 -2.00697E+04  5.52360E+03 -2.48377E+04  1.61735E+04 -1.80085E+04  1.98862E+04 -1.27420E+03
  1.24301E+04  1.44325E+04 -1.16050E+03  2.08060E+04 -1.42969E+04  1.17185E+04 -2.08067E+04 -4.05630E+03
 -1.56445E+04 -1.90722E+04 -1.59071E+03 -2.48127E+04  1.14841E+04 -2.01970E+04  2.05504E+04 -1.01393E+04
  1.92671E+04 -1.80555E+02  1.39404E+04  5.11937E+03  8.18482E+03  1.42386E+03  1.02175E+04 -1.78421E+03
  1.94259E+04  2.76669E+03  2.21496E+04  1.65426E+04  1.42590E+04  3.29712E+04 -2.75207E+03  3.84829E+04
 -2.19800E+04  3.10617E+04 -3.58964E+04  1.59420E+04 -3.74645E+04 -2.05317E+03 -3.03286E+04 -2.23471E+04
 -1.28057E+04 -3.17208E+04  1.08144E+04 -2.78887E+04  2.38064E+04 -1.32579E+04  2.13561E+04  6.99063E+03
  7.44343E+03  1.63198E+04 -9.64840E+03  1.34305E+04 -1.75194E+04  2.95425E+03 -1.31962E+04 -1.08924E+04
 -1.44555E+02 -1.69927E+04  9.23948E+03 -1.30789E+04  1.15310E+04 -1.82505E+03  2.67925E+03  7.25229E+03
 -8.09609E+03  3.13926E+03 -7.69108E+03 -5.69991E+03 -7.06658E+02 -1.49823E+04  1.04649E+04 -1.65846E+04
  1.89333E+04 -8.55227E+03  2.06696E+04  3.37588E+03  1.86942E+04  1.54645E+04  9.04681E+03  2.37980E+04
 -3.62059E+03  2.54007E+04 -1.66677E+04  1.56996E+04 -1.81484E+04  3.40365E+03 -1.35971E+04 -4.09665E+03
 -5.69329E+03 -6.05095E+03 -7.02487E+02  1.14125E+03 -2.49232E+03  3.16549E+03 -6.17160E+03  4.45467E+03
 -1.21983E+04 -7.22541E+02 -1.23016E+04 -9.86531E+03 -5.54658E+03 -1.66836E+04  4.92186E+03 -1.30850E+04
  1.09398E+04 -5.75464E+03  8.28408E+03  3.45516E+03  2.29919E+02  4.65996E+03 -5.94005E+03  8.77332E+00
 -6.25530E+03 -8.09513E+03 -1.13739E+03 -1.27662E+04  7.13226E+03 -1.34419E+04  1.60188E+04 -7.16904E+03
  1.90611E+04  2.02021E+03  1.39054E+04  1.10814E+04  2.78707E+03  1.45540E+04 -7.78283E+03  1.24322E+04
 -1.10339E+04  4.16871E+03 -5.54636E+03 -2.87340E+03  1.71403E+03 -4.12023E+03  6.53145E+03 -1.38745E+03
  6.32231E+03  5.59439E+03  8.99878E+02  1.02122E+04 -8.36613E+03  9.65501E+03 -1.27944E+04  2.48181E+03
 -8.49339E+03 -6.28083E+03  3.03162E+02 -1.08990E+04  6.56403E+03 -5.74372E+03  7.15047E+03  2.61750E+03
  1.80850E+03  7.77477E+03 -6.83920E+03  9.36011E+03 -9.99338E+03  3.67678E+03 -1.07110E+04 -4.14043E+03
 -6.45494E+03 -1.18578E+04  2.90965E+03 -1.36814E+04  1.15905E+04 -8.64419E+03  1.25797E+04  2.92147E+03
  7.12539E+03  9.65427E+03 -1.32053E+03  1.23106E+04 -8.77091E+03  7.28962E+03 -9.44521E+03 -7.67870E+02
 -8.08107E+03 -8.65342E+03 -1.61425E+03 -9.67581E+03  5.58717E+03 -8.09660E+03  6.08459E+03 -3.60691E+03
  4.37151E+03  1.29389E+03 -6.00650E+02  1.36903E+03  1.19635E+02 -2.23534E+03  9.83238E+02 -5.13652E+03
  8.54999E+03 -3.28139E+03  1.18584E+04  1.78379E+03  1.17283E+04  8.13705E+03  8.06260E+03  1.55741E+04
 -3.12905E+03  1.82575E+04 -1.57263E+04  1.27638E+04 -1.94576E+04  2.30211E+03 -1.52845E+04 -6.07947E+03
 -7.78773E+03 -1.29587E+04 -1.95018E+02 -1.03596E+04  3.71040E+03 -6.06181E+03  4.23864E+03 -4.66268E+03
  2.56841E+03 -2.81452E+03  3.17938E+03 -2.54735E+03  5.03871E+03 -2.28336E+03  6.12890E+03 -9.93277E+02
  7.46420E+03  2.17016E+03  4.28591E+03  6.69159E+03 -1.74286E+03  7.18674E+03 -8.66377E+03  5.77810E+03
 -1.05513E+04 -1.36418E+03 -6.51513E+03 -7.54000E+03 -5.70165E+02 -1.10416E+04  6.93188E+03 -1.17200E+04
  1.19326E+04 -5.98242E+03  1.42074E+04  1.46582E+03  9.80823E+03  1.04109E+04  1.67328E+03  1.24845E+04
 -5.42589E+03  1.12951E+04 -7.17942E+03  3.89069E+03 -5.20082E+03 -1.28773E+03 -2.08301E+03 -1.56556E+03
 -1.60246E+03  1.38602E+02 -1.34681E+03  2.44305E+03 -4.93657E+03  1.46796E+03 -7.45548E+03 -1.27305E+03
 -4.89466E+03 -8.21076E+03  6.70092E+02 -1.01190E+04  5.64816E+03 -1.02412E+04  1.00423E+04 -2.82705E+03
  1.05005E+04  4.80649E+03  4.19783E+03  8.92498E+03 -2.42848E+03  1.08574E+04 -6.80124E+03  6.49467E+03
 -1.01000E+04  6.22642E+02 -7.69814E+03 -6.08207E+03 -9.77489E+02 -8.26699E+03  4.70516E+03 -6.44705E+03
  6.40263E+03 -2.62172E+03  4.65697E+03  1.64510E+03  1.31889E+03  2.36171E+03  6.40564E+02  1.52720E+03
  2.05228E+03  6.74871E+02  3.08851E+03  1.30245E+03  2.64999E+03  3.88260E+03  1.98865E+03  5.39655E+03
 -1.85680E+03  7.75242E+03 -7.24511E+03  8.66115E+03 -9.69643E+03  1.68971E+03 -1.04006E+04 -3.22141E+03
 -5.25318E+03 -9.66987E+03  2.06888E+03 -1.14674E+04  6.56075E+03 -6.72149E+03  9.19470E+03 -2.54564E+03
  6.74141E+03  4.70932E+03  1.36531E+03  6.42248E+03 -2.79283E+03  3.64406E+03 -3.81155E+03 -1.32837E+02
 -1.55622E+03 -4.05090E+03  3.01922E+03 -4.46533E+03  3.83450E+03 -1.99711E+03  3.89574E+03  8.53952E+02
  1.90028E+03  2.20749E+03  7.79029E+02  1.38106E+03 -6.94687E+02  9.70154E+02  8.19515E+02 -5.94085E+02
  1.00842E+03 -6.97139E+02  4.26581E+03  1.83028E+03  1.97252E+03  5.35591E+03 -1.27562E+03  7.24180E+03
 -4.58650E+03  3.90067E+03 -6.43555E+03  1.20051E+03 -6.17240E+03 -1.87166E+03 -1.83288E+03 -3.77931E+03
  6.80166E+02 -3.84769E+03  3.20195E+03 -2.02261E+03  2.41510E+03  1.99138E+03 -1.58944E+03  3.00082E+03
 -3.90782E+03  2.38605E+03 -3.93306E+03 -2.70233E+03 -2.44842E+03 -6.23935E+03  4.49168E+02 -4.83253E+03
  4.20576E+03 -2.78511E+03  3.43347E+03 -5.20995E+02  3.43710E+03  9.49243E+02  7.81639E+02  2.87525E+03
 -1.66694E+03  9.41991E+02 -2.51332E+03 -1.97075E+03  3.42645E+02 -3.67874E+03  4.95757E+03 -3.53056E+03
  5.78927E+03 -2.24051E+02  6.67200E+03  4.07624E+03  2.25728E+03  6.66111E+03 -2.08879E+03  6.39876E+03
 -4.36922E+03  1.82967E+03 -5.66207E+03 -5.18261E+02 -2.43269E+03 -3.99754E+03  9.26695E+02 -3.30260E+03
  3.16408E+03 -2.00264E+03  2.52114E+03  2.01721E+03  1.54039E+03  3.43996E+03 -7.16305E+02  2.93312E+03
 -1.16789E+03  2.50124E+03 -1.39523E+03 -5.85452E+00 -5.83927E+02  9.07782E+02 -9.03645E+02  1.22084E+03
 -1.46263E+03  2.24649E+03 -3.85179E+03  1.63828E+03 -5.88080E+03 -2.60281E+02 -6.82375E+03 -4.09529E+03
 -2.97568E+03 -8.36950E+03  1.84581E+03 -9.42954E+03  5.15571E+03 -7.59332E+03  8.65037E+03 -2.93662E+03
  7.83640E+03  1.30495E+03  4.85020E+03  5.55951E+03 -2.49444E+02  6.23129E+03 -2.55970E+03  3.70663E+03
 -3.46718E+03  1.96830E+03 -2.45687E+03 -1.93489E+02 -7.38748E+02 -3.73854E+02 -8.69207E+02 -1.37421E+02
 -2.39509E+03  8.91503E+02 -1.05731E+03 -4.98949E+01 -6.74716E+02 -1.00959E+03  2.35976E+02 -1.94328E+03
  3.07721E+03 -2.14247E+03  3.67477E+03 -1.56574E+02  4.53357E+03  4.16254E+03  4.53148E+02  5.95530E+03
 -3.61195E+03  6.92072E+03 -6.63312E+03  3.54993E+03 -7.20025E+03 -1.19081E+02 -5.36820E+03 -4.59314E+03
 -2.13603E+03 -5.72312E+03  1.75842E+03 -6.26528E+03  3.70936E+03 -3.93823E+03  3.77014E+03  7.13618E+02
  2.06826E+03  2.28986E+03 -1.58766E+02  9.03853E+02 -1.31322E+03 -4.87242E+02 -2.87249E+02 -1.67761E+03
  1.58331E+03 -4.95142E+02  1.69094E+03  6.94083E+02  9.75996E+02  2.36053E+03  1.62518E+02  3.08536E+03
 -2.46568E+03  3.05565E+03 -3.34592E+03  1.73915E+02 -3.73941E+03 -3.32608E+03 -5.11692E+02 -5.01581E+03
  2.58909E+03 -4.07806E+03  3.49853E+03 -6.57990E+02  3.89366E+03  3.95011E+02  1.85288E+03  3.37872E+03
  6.52352E+02  3.34022E+03 -1.36382E+03  2.42468E+03 -2.55351E+03  1.34716E+03 -1.63918E+03  2.89241E+02
 -6.50953E+02  5.71474E+02 -1.39342E+03  9.25447E+02 -2.40351E+03  1.26094E+03 -2.68553E+03 -3.98879E+02
 -2.53250E+03 -1.55452E+03 -9.95886E+02 -3.82217E+03  2.59307E+03 -4.32346E+03  2.64948E+03 -1.44454E+03
  3.52441E+03  2.54321E+02  1.46262E+03  2.58704E+03 -3.61352E+02  3.37852E+03 -2.85922E+03  2.19401E+03
