 $NMID ID='MM_0lb_SNR400_16hz_g55_55.RAW', FMTDAT='(8E13.5)'
 TRAMP=1., VOLUME=1. $END
  3.09881E+05  7.11863E+02  3.36915E+05  2.50562E+05  8.51759E+04  3.37939E+05 -1.32907E+05  2.51106E+05
 -1.90261E+05  8.25907E+04 -1.11250E+05 -3.27865E+04  6.56821E+02 -5.09121E+04  5.38099E+04 -2.32873E+01
  3.47465E+04  5.33628E+04 -1.74965E+04  7.50992E+04 -6.04428E+04  6.35583E+04 -8.33588E+04  3.21481E+04
 -8.05820E+04 -1.20394E+04 -5.78020E+04 -5.12463E+04 -1.52824E+04 -6.94367E+04  2.73589E+04 -4.58125E+04
  3.99076E+04  3.90363E+03  1.64024E+04  4.73356E+04 -3.47285E+04  4.73530E+04 -6.64729E+04 -4.60935E+02
 -5.31464E+04 -5.66732E+04 -7.11658E+03 -7.66170E+04  3.38269E+04 -5.53387E+04  4.80711E+04 -1.72649E+04
  4.30313E+04  1.17790E+04  3.18384E+04  2.53032E+04  1.59203E+04  2.93514E+04 -5.27216E+03  2.72417E+04
 -2.18808E+04  1.28529E+04 -1.87946E+04 -5.01066E+03  4.88787E+03 -7.83506E+03  2.26107E+04  1.19103E+04
  6.89442E+03  3.52246E+04 -3.21766E+04  3.49660E+04 -6.33642E+04  1.94583E+03 -5.62029E+04 -4.19101E+04
 -1.26251E+04 -6.26166E+04  3.86838E+04 -4.49507E+04  5.78548E+04 -2.30840E+03  3.36802E+04  3.17195E+04
 -6.13283E+03  3.61781E+04 -3.00478E+04  1.57099E+04 -2.95601E+04 -4.87555E+03 -1.62491E+04 -1.05422E+04
 -8.35994E+03 -1.31095E+04 -9.24588E+02 -1.77855E+04  7.86861E+03 -2.31611E+04  1.51849E+04 -1.33493E+04
  1.10668E+04  5.09768E+03 -8.27328E+03  1.35983E+04 -2.09546E+04 -4.49290E+03 -7.90982E+03 -3.31859E+04
  2.27112E+04 -4.26921E+04  4.77570E+04 -2.02160E+04  4.47149E+04  1.92219E+04  1.56521E+04  4.35925E+04
 -1.59167E+04  3.24305E+04 -2.50544E+04  1.84210E+03 -9.58687E+03 -2.79592E+04  2.11837E+04 -3.36792E+04
  4.08929E+04 -8.46080E+03  3.50351E+04  2.35625E+04  1.75445E+04  4.62086E+04 -8.14701E+03  4.90841E+04
 -3.08092E+04  3.26975E+04 -4.10252E+04  9.24417E+03 -4.13748E+04 -1.62563E+04 -2.30897E+04 -3.69344E+04
  7.93226E+03 -3.69597E+04  3.14717E+04 -1.40985E+04  2.84530E+04  1.11657E+04  3.31305E+03  1.91475E+04
 -1.31649E+04  8.04212E+03 -1.02506E+04 -7.69739E+03  6.38927E+03 -1.00877E+04  1.79383E+04  6.23235E+03
  1.34003E+04  2.17841E+04 -5.92540E+03  2.43154E+04 -2.18541E+04  1.09434E+04 -2.71050E+04 -5.30972E+03
 -2.01932E+04 -1.70604E+04 -7.81320E+03 -2.04959E+04  4.20511E+03 -1.88772E+04  1.54977E+04 -1.76916E+04
  2.54404E+04 -1.23936E+04  3.13650E+04  2.36359E+03  2.24663E+04  1.92640E+04  4.34345E+03  3.49779E+04
 -1.70573E+04  2.95393E+04 -2.76161E+04  1.01878E+04 -2.06694E+04 -1.05800E+04 -4.69771E+03 -1.37411E+04
  1.64745E+03 -3.37021E+03 -4.49669E+03  5.92440E+03 -1.56815E+04  5.26010E+03 -1.58728E+04 -6.12243E+03
 -1.03528E+04 -1.79493E+04  4.71248E+03 -2.25375E+04  1.44341E+04 -1.64152E+04  1.66167E+04 -1.25663E+03
  1.05637E+04  1.24239E+04 -9.06861E+02  1.75384E+04 -1.24993E+04  1.02436E+04 -1.81351E+04 -4.22428E+03
 -1.29535E+04 -1.66067E+04 -2.05029E+03 -2.23940E+04  1.00401E+04 -1.78751E+04  1.76957E+04 -8.95030E+03
  1.65803E+04  7.77254E+02  1.21695E+04  4.13813E+03  5.79944E+03  9.00239E+02  9.62135E+03 -1.53424E+03
  1.59720E+04  2.89075E+03  1.76225E+04  1.42550E+04  1.15177E+04  2.87209E+04 -3.30285E+03  3.23891E+04
 -1.85723E+04  2.58778E+04 -2.91655E+04  1.24000E+04 -3.09170E+04 -2.10407E+03 -2.65503E+04 -1.78199E+04
 -1.12226E+04 -2.50079E+04  8.62111E+03 -2.36362E+04  2.03897E+04 -1.21710E+04  1.76911E+04  4.86845E+03
  7.33768E+03  1.29025E+04 -8.32268E+03  1.23952E+04 -1.52930E+04  2.82224E+03 -1.17587E+04 -9.87363E+03
 -3.09036E+02 -1.43041E+04  6.87383E+03 -1.12211E+04  9.86156E+03 -1.32879E+03  1.80627E+03  6.84936E+03
 -6.85541E+03  2.09036E+03 -5.25454E+03 -5.41876E+03  5.03585E+01 -1.20199E+04  9.50409E+03 -1.30661E+04
  1.54128E+04 -6.47448E+03  1.56283E+04  2.58741E+03  1.34543E+04  1.20362E+04  6.40667E+03  1.84909E+04
 -2.90140E+03  1.95832E+04 -1.29146E+04  1.28173E+04 -1.41851E+04  3.07513E+03 -9.98051E+03 -2.99998E+03
 -6.01061E+03 -4.44497E+03 -1.29191E+02  1.45010E+03 -2.32033E+03  1.63623E+03 -4.30129E+03  4.46427E+03
 -9.64557E+03 -1.00354E+02 -1.01471E+04 -8.58433E+03 -4.50814E+03 -1.35924E+04  3.94802E+03 -1.10978E+04
  8.67532E+03 -4.46176E+03  6.80271E+03  2.75010E+03  3.51349E+02  4.15666E+03 -4.13591E+03 -7.95392E+01
 -3.68492E+03 -6.85985E+03 -9.40799E+02 -9.20142E+03  4.90022E+03 -9.80083E+03  1.28602E+04 -4.93009E+03
  1.53136E+04  1.04689E+03  1.15603E+04  8.11750E+03  1.40724E+03  1.14748E+04 -6.75190E+03  1.02033E+04
 -8.51606E+03  2.72380E+03 -4.54651E+03 -1.83245E+03  1.18707E+03 -2.74411E+03  5.68183E+03 -7.28962E+02
  4.22557E+03  4.48360E+03  1.67553E+03  8.15379E+03 -5.89515E+03  8.04424E+03 -9.30436E+03  2.23495E+03
 -6.49182E+03 -4.71463E+03  4.06716E+02 -8.38877E+03  4.65623E+03 -4.13275E+03  4.95588E+03  1.56645E+03
  1.10228E+03  4.63842E+03 -4.68473E+03  6.68940E+03 -7.39347E+03  2.49729E+03 -6.14364E+03 -2.24808E+03
 -4.52719E+03 -9.10942E+03  1.54519E+03 -9.87565E+03  7.90482E+03 -5.86515E+03  8.76139E+03  1.83962E+03
  6.01387E+03  7.34465E+03 -3.59672E+02  9.04978E+03 -6.73147E+03  4.92434E+03 -7.07789E+03 -3.48911E+02
 -6.58070E+03 -6.56025E+03 -1.37436E+03 -6.88031E+03  3.30285E+03 -5.15851E+03  3.38716E+03 -3.02848E+03
  3.51605E+03  1.95326E+02 -2.84016E+01  1.09593E+03 -1.34147E+01 -1.39040E+03  2.80492E+02 -3.71131E+03
  5.00958E+03 -1.50106E+03  7.99939E+03  8.14116E+02  7.86378E+03  4.78297E+03  6.27510E+03  9.86325E+03
 -2.09798E+03  1.19418E+04 -9.95294E+03  8.89602E+03 -1.32784E+04  1.83099E+03 -1.09300E+04 -4.24643E+03
 -5.01984E+03 -8.93355E+03 -6.13210E+02 -6.98431E+03  3.03041E+03 -2.73902E+03  2.45031E+03 -2.70451E+03
  2.19965E+03 -1.83914E+03  2.49968E+03 -2.86116E+03  3.90547E+03 -1.44399E+03  4.54254E+03 -1.60760E+02
  5.50088E+03  1.54903E+03  1.49489E+03  5.38230E+03 -1.68799E+03  4.55822E+03 -6.09399E+03  3.61600E+03
 -6.51158E+03 -1.00766E+03 -3.76377E+03 -4.44471E+03  4.76872E+02 -7.07475E+03  3.88453E+03 -7.60519E+03
  7.93294E+03 -4.91332E+03  9.22358E+03  9.41675E+02  6.61076E+03  5.92658E+03  1.34250E+03  8.70759E+03
 -2.56696E+03  7.35184E+03 -4.44087E+03  2.46692E+03 -2.85841E+03 -1.11070E+03 -1.18266E+03 -1.00330E+03
 -1.03252E+03 -3.34157E+01 -1.12126E+03  1.49039E+03 -3.28478E+03  1.61739E+03 -5.59115E+03 -1.09167E+03
 -2.51243E+03 -5.66836E+03  6.12041E+02 -6.56232E+03  4.17445E+03 -6.53759E+03  5.91980E+03 -1.91065E+03
  5.33266E+03  3.44490E+03  2.63917E+03  5.28323E+03 -7.38276E+02  6.60017E+03 -4.28668E+03  3.61356E+03
 -6.59383E+03  5.96087E+02 -4.84290E+03 -3.78830E+03 -4.72910E+02 -5.46397E+03  2.91687E+03 -3.74982E+03
  3.96117E+03 -1.35449E+03  2.05070E+03  8.67871E+02  7.08671E+02  1.89360E+03  2.75696E+02  4.19203E+02
  2.04989E+03  7.71023E+02  1.47813E+03  1.56483E+03  2.05200E+03  2.69002E+03  1.71042E+03  3.25262E+03
 -1.79204E+03  4.60779E+03 -4.02360E+03  5.69639E+03 -4.93906E+03  1.60718E+03 -6.12902E+03 -1.63258E+03
 -2.81357E+03 -5.66398E+03  1.30521E+03 -6.81983E+03  3.16602E+03 -3.92880E+03  4.01585E+03 -1.42816E+03
  3.89293E+03  2.99341E+03  6.65839E+02  3.27735E+03 -9.36418E+02  1.93738E+03 -1.61197E+03 -6.50681E+02
 -5.14652E+02 -2.19826E+03  1.74036E+03 -2.48014E+03  2.54125E+03 -1.34818E+03  3.06065E+03  3.45269E+02
  1.17418E+03  9.37059E+02  8.05934E+02  2.82963E+02 -8.98536E+01  1.02493E+03  2.07670E+03 -4.52507E+02
  2.26993E+02 -2.83120E+02  2.16354E+03  7.28871E+02  6.62796E+02  3.66036E+03 -1.13459E+03  4.11461E+03
 -3.11602E+03  1.34528E+03 -4.09559E+03  1.13941E+03 -2.80530E+03 -1.16219E+03 -4.72123E+02 -1.90966E+03
  2.08963E+02 -2.17279E+03  1.33116E+03 -4.32394E+02  9.17322E+02  1.25045E+03 -1.71873E+03  2.36527E+03
 -1.98092E+03  9.79459E+02 -2.08438E+03 -1.75091E+03 -8.03661E+02 -2.75359E+03  1.07158E+03 -2.84613E+03
  1.26342E+03 -8.79311E+02  2.16250E+03 -3.30837E+01  1.84414E+03  2.76317E+02  3.96894E+02  1.81022E+03
 -6.04199E+02  6.07875E+02 -1.58302E+03 -8.44112E+02  1.17502E+03 -1.71474E+03  2.57590E+03 -1.55392E+03
  2.48452E+03  1.35399E+02  3.87285E+03  1.60085E+03  1.43382E+03  3.08350E+03 -5.84886E+02  3.50146E+03
 -2.48798E+03  7.48395E+02 -2.44228E+03 -6.07325E+02 -1.04393E+03 -1.99721E+03  5.92940E+02 -1.19349E+03
  1.93057E+03 -1.40153E+03  9.46037E+02  1.02957E+03  3.57859E+02  1.47048E+03 -2.17613E+02  1.75233E+03
 -6.95987E+02  1.57280E+03 -8.39778E+02  5.70760E+02 -3.99614E+02  7.77681E+02 -1.02207E+03  9.96385E+02
 -9.87351E+02  9.94521E+02 -2.06898E+03  8.85776E+02 -2.44699E+03 -2.53486E+01 -4.48967E+03 -2.14088E+03
 -1.81950E+03 -3.97532E+03  8.65286E+02 -4.42437E+03  2.12478E+03 -3.99689E+03  4.51111E+03 -1.81181E+03
  4.05208E+03  1.75322E+02  2.78844E+03  2.93879E+03 -2.02326E+02  2.10237E+03 -3.22042E+02  1.82026E+03
 -2.15576E+03  1.30734E+03 -1.36948E+03 -7.48218E+01 -9.60618E+02 -4.89695E+01 -3.84700E+02 -1.22469E+01
 -8.93591E+02 -3.58546E+01 -1.40133E+03 -5.57936E+01 -2.81751E+02 -2.04282E+02 -2.44227E+02 -7.15781E+02
  1.78815E+03 -1.09753E+03  4.15687E+02 -2.79425E+02  1.17889E+03  9.33688E+02 -2.86385E+02  2.95426E+03
 -1.59877E+03  4.24771E+03 -2.60722E+03  1.26426E+03 -3.05894E+03 -8.62411E+01 -1.95297E+03 -2.24858E+03
 -1.09223E+03 -2.37728E+03  8.02834E+02 -2.23743E+03  1.53808E+03 -8.12094E+02  1.52487E+03 -4.53727E+02
  1.42614E+03  9.54961E+02  5.49055E+00  1.15481E+03 -1.03713E+03 -1.75959E+02 -3.93397E+02 -7.13311E+02
  1.36637E+02 -2.97757E+01  8.32735E+02  6.91089E+02 -3.57087E+02  4.92389E+02  3.38063E+02  7.48462E+02
 -1.56181E+03  9.67929E+02 -1.31582E+03 -2.54259E+02 -1.53045E+03 -8.60022E+02 -1.33266E+01 -1.98156E+03
  9.26611E+02 -1.12557E+03  1.57088E+03 -5.53842E+02  1.62159E+03 -1.00061E+03  9.65931E+02  1.40524E+03
 -8.73208E+01  8.86983E+02 -1.25618E+02  1.40695E+03 -3.64351E+02  6.92444E+02 -9.80531E+02  1.82136E+02
 -5.82530E+02 -2.24327E+01 -8.64430E+02 -3.24594E+01 -9.38180E+02  3.54260E+02 -1.54043E+03 -7.18076E+02
 -2.08186E+03  1.13625E+02 -9.70048E+02 -1.72597E+03  5.02432E+02 -2.10290E+03  1.47545E+03 -4.43004E+02
  1.64837E+03  6.90086E+01  1.48588E+02  7.77933E+02  4.33956E+02  1.69724E+03 -9.94450E+02  1.24423E+03
