 $NMID ID='MM_0lb_SNR400_9hz_g50_60.RAW', FMTDAT='(8E13.5)'
 TRAMP=1., VOLUME=1. $END
  3.09260E+05  5.97579E+02  3.38290E+05  2.50607E+05  8.50972E+04  3.38412E+05 -1.33362E+05  2.51321E+05
 -1.91178E+05  8.40845E+04 -1.12682E+05 -3.20260E+04  7.31830E+02 -5.03002E+04  5.36809E+04 -3.14628E+02
  3.59636E+04  5.30636E+04 -1.63077E+04  7.62837E+04 -6.13267E+04  6.42578E+04 -8.54985E+04  3.20018E+04
 -8.29768E+04 -1.13181E+04 -5.84365E+04 -5.23757E+04 -1.54971E+04 -7.06428E+04  2.85109E+04 -4.70656E+04
  4.05596E+04  2.89861E+03  1.66028E+04  4.86837E+04 -3.47772E+04  4.83075E+04 -6.84023E+04 -1.65212E+02
 -5.45421E+04 -5.75545E+04 -6.92627E+03 -7.88199E+04  3.38204E+04 -5.65260E+04  4.98405E+04 -1.78911E+04
  4.49677E+04  1.13938E+04  3.29459E+04  2.58098E+04  1.59723E+04  3.03487E+04 -6.61386E+03  2.81022E+04
 -2.28718E+04  1.12310E+04 -1.88242E+04 -5.58201E+03  6.22455E+03 -7.44424E+03  2.34175E+04  1.41051E+04
  7.02452E+03  3.77745E+04 -3.38176E+04  3.66864E+04 -6.51016E+04  2.28556E+03 -5.81003E+04 -4.44503E+04
 -1.31105E+04 -6.60728E+04  4.17212E+04 -4.78507E+04  6.12444E+04 -3.03204E+03  3.61798E+04  3.40040E+04
 -5.45727E+03  3.96660E+04 -3.21773E+04  1.92349E+04 -3.30701E+04 -2.89167E+03 -1.90299E+04 -1.15332E+04
 -9.75831E+03 -1.55264E+04 -4.84563E+02 -2.01728E+04  8.64248E+03 -2.41611E+04  1.66545E+04 -1.21798E+04
  1.07255E+04  6.21820E+03 -1.05337E+04  1.30637E+04 -2.27982E+04 -6.67979E+03 -9.02315E+03 -3.68692E+04
  2.55114E+04 -4.65835E+04  5.22453E+04 -2.13059E+04  4.91704E+04  2.00560E+04  1.64886E+04  4.76030E+04
 -1.61663E+04  3.53807E+04 -2.77605E+04  2.62783E+03 -1.15612E+04 -2.88517E+04  2.11338E+04 -3.61429E+04
  4.49606E+04 -1.05851E+04  3.97213E+04  2.52195E+04  2.22258E+04  5.07698E+04 -7.81094E+03  5.64815E+04
 -3.57147E+04  3.85474E+04 -4.73613E+04  1.10860E+04 -4.72911E+04 -1.87136E+04 -2.59243E+04 -4.25255E+04
  8.02937E+03 -4.17964E+04  3.45098E+04 -1.75376E+04  3.10843E+04  1.09203E+04  5.57582E+03  2.08367E+04
 -1.38581E+04  9.51184E+03 -1.24888E+04 -7.35994E+03  5.93327E+03 -1.10932E+04  1.94840E+04  5.52315E+03
  1.54317E+04  2.25789E+04 -4.43477E+03  2.69861E+04 -2.41644E+04  1.36573E+04 -3.11655E+04 -2.68813E+03
 -2.49396E+04 -1.89018E+04 -1.13774E+04 -2.51076E+04  4.13123E+03 -2.62471E+04  1.98011E+04 -2.26633E+04
  3.17176E+04 -1.44498E+04  3.78463E+04  4.15410E+03  2.64802E+04  2.45708E+04  4.45407E+03  4.14477E+04
 -1.94043E+04  3.46995E+04 -3.00122E+04  1.22790E+04 -2.29388E+04 -9.83542E+03 -4.06468E+03 -1.32088E+04
  8.99167E+02 -5.36798E+02 -7.00673E+03  8.33337E+03 -2.09615E+04  4.34786E+03 -2.01553E+04 -9.76874E+03
 -1.23804E+04 -2.40531E+04  6.16150E+03 -2.71000E+04  1.86446E+04 -2.00392E+04  2.29565E+04 -8.34805E+02
  1.49908E+04  1.65254E+04 -8.96911E+02  2.30735E+04 -1.72663E+04  1.33015E+04 -2.30614E+04 -4.82577E+03
 -1.78342E+04 -2.13621E+04 -2.41057E+03 -2.82377E+04  1.30360E+04 -2.37896E+04  2.33244E+04 -1.21815E+04
  2.11272E+04 -9.82873E+02  1.64256E+04  5.43744E+03  8.83477E+03  1.85047E+03  1.22616E+04 -2.51180E+03
  2.14222E+04  2.68560E+03  2.63953E+04  1.83827E+04  1.73727E+04  3.76331E+04 -3.16807E+03  4.45112E+04
 -2.44601E+04  3.73663E+04 -4.09278E+04  1.94248E+04 -4.50270E+04 -3.60270E+03 -3.68394E+04 -2.52326E+04
 -1.39881E+04 -3.70096E+04  1.34945E+04 -3.26249E+04  2.77655E+04 -1.63458E+04  2.39018E+04  7.67456E+03
  8.43151E+03  1.90120E+04 -1.15140E+04  1.54523E+04 -2.05047E+04  2.32107E+03 -1.56633E+04 -1.27647E+04
 -5.01678E+02 -1.95455E+04  1.04768E+04 -1.39230E+04  1.33929E+04 -1.72684E+03  3.66685E+03  8.42928E+03
 -8.27440E+03  4.29462E+03 -8.91518E+03 -6.61245E+03 -2.21151E+03 -1.85138E+04  1.17449E+04 -1.89741E+04
  2.35201E+04 -1.11589E+04  2.63985E+04  3.11458E+03  2.34124E+04  1.78383E+04  1.11464E+04  2.92395E+04
 -5.21450E+03  3.15486E+04 -2.08208E+04  1.95290E+04 -2.26727E+04  3.82500E+03 -1.51269E+04 -6.74187E+03
 -7.47536E+03 -7.36804E+03 -8.70600E+02  1.23811E+03 -2.39996E+03  3.33301E+03 -7.11428E+03  5.38232E+03
 -1.40381E+04 -1.22864E+03 -1.47799E+04 -1.10891E+04 -6.35826E+03 -1.95909E+04  6.49672E+03 -1.53080E+04
  1.35804E+04 -6.22273E+03  9.05690E+03  4.40596E+03  1.19285E+02  6.40475E+03 -7.80799E+03  5.04324E+02
 -8.06829E+03 -1.06655E+04 -1.39082E+03 -1.57949E+04  9.69315E+03 -1.55300E+04  1.97880E+04 -8.81634E+03
  2.36604E+04  3.29412E+03  1.79702E+04  1.37710E+04  3.89256E+03  1.88388E+04 -1.04084E+04  1.48028E+04
 -1.25741E+04  4.88606E+03 -6.02571E+03 -3.59043E+03  2.17835E+03 -4.44168E+03  8.15834E+03 -1.23280E+03
  7.60988E+03  7.47270E+03  1.07265E+03  1.31101E+04 -9.20362E+03  1.14371E+04 -1.53858E+04  3.69438E+03
 -1.08359E+04 -8.16375E+03  8.20068E+02 -1.30578E+04  9.49129E+03 -7.11003E+03  9.86140E+03  2.81878E+03
  2.30078E+03  9.76018E+03 -8.79691E+03  1.13275E+04 -1.34424E+04  5.39635E+03 -1.33992E+04 -4.13651E+03
 -7.83647E+03 -1.62942E+04  4.43593E+03 -1.80915E+04  1.57671E+04 -1.09802E+04  1.70540E+04  2.69069E+03
  9.39741E+03  1.32932E+04 -1.53818E+03  1.50819E+04 -1.23360E+04  8.86415E+03 -1.30177E+04 -1.55943E+03
 -9.99920E+03 -1.05492E+04 -1.79504E+03 -1.25638E+04  6.41048E+03 -9.38177E+03  7.90626E+03 -3.38116E+03
  5.97269E+03  1.99259E+03 -4.89322E+02  2.42962E+03 -4.15530E+02 -2.97211E+03  3.01840E+03 -7.58631E+03
  1.08519E+04 -4.93841E+03  1.63580E+04  1.27806E+03  1.51025E+04  1.06859E+04  1.01193E+04  2.10791E+04
 -4.99470E+03  2.38778E+04 -1.94316E+04  1.77055E+04 -2.59632E+04  4.16129E+03 -2.05583E+04 -9.56188E+03
 -1.00421E+04 -1.74865E+04 -6.69318E+02 -1.48300E+04  5.89702E+03 -8.33555E+03  4.50339E+03 -5.71328E+03
  3.88330E+03 -3.47013E+03  3.86276E+03 -3.23444E+03  5.87195E+03 -3.36842E+03  7.27513E+03 -1.55464E+03
  1.16389E+04  2.31606E+03  6.46123E+03  9.90486E+03 -2.17108E+03  1.11252E+04 -1.15270E+04  8.80490E+03
 -1.43407E+04 -9.13853E+02 -9.15903E+03 -9.67836E+03 -1.41031E+03 -1.62097E+04  8.76865E+03 -1.53675E+04
  1.64045E+04 -8.76479E+03  1.93699E+04  2.38591E+03  1.33989E+04  1.43240E+04  2.41944E+03  1.71057E+04
 -7.94006E+03  1.47613E+04 -9.79165E+03  4.64835E+03 -6.88013E+03 -1.29780E+03 -2.62462E+03 -1.80178E+03
 -2.12590E+03  2.04791E+02 -1.94126E+03  2.62861E+03 -6.20890E+03  2.07662E+03 -9.76008E+03 -1.65950E+03
 -7.16304E+03 -1.04392E+04  1.30666E+02 -1.44003E+04  9.86972E+03 -1.43187E+04  1.56448E+04 -3.54229E+03
  1.48759E+04  6.79297E+03  6.70830E+03  1.32233E+04 -3.04191E+03  1.51932E+04 -1.08793E+04  9.92132E+03
 -1.35824E+04 -5.47311E+02 -1.09468E+04 -9.01975E+03 -1.23789E+03 -1.27092E+04  5.90397E+03 -8.61189E+03
  9.17345E+03 -3.16361E+03  6.75955E+03  1.54072E+03  1.68960E+03  4.86909E+03  1.60927E+03  2.45844E+03
  2.64289E+03  7.02324E+02  3.27080E+03  1.58173E+03  4.40064E+03  4.93039E+03  3.97131E+03  8.19670E+03
 -2.65655E+03  1.16712E+04 -1.05832E+04  1.18398E+04 -1.47602E+04  3.10478E+03 -1.65900E+04 -6.18040E+03
 -7.80308E+03 -1.46375E+04  2.61424E+03 -1.65365E+04  9.54517E+03 -1.05763E+04  1.31526E+04 -2.79814E+03
  1.06938E+04  5.42270E+03  2.24753E+03  8.19075E+03 -4.45948E+03  6.30457E+03 -6.40071E+03 -1.03337E+03
 -2.40733E+03 -6.74684E+03  3.44518E+03 -6.06304E+03  6.06626E+03 -3.25540E+03  5.92174E+03  1.29640E+03
  4.23571E+03  2.79198E+03  8.14419E+02  2.45336E+03 -1.15381E+03  2.44876E+03  2.10033E+03 -3.07981E+02
  2.62126E+03 -1.06876E+03  6.57484E+03  1.50832E+03  4.05658E+03  7.95256E+03 -7.09148E+02  1.08782E+04
 -7.16152E+03  7.08226E+03 -9.24394E+03  1.06334E+03 -8.95102E+03 -3.16010E+03 -3.44955E+03 -5.47099E+03
  1.41195E+03 -6.14562E+03  4.66199E+03 -2.47099E+03  3.16920E+03  3.98067E+03 -1.58846E+03  5.07219E+03
 -5.65685E+03  3.61660E+03 -7.24590E+03 -3.55875E+03 -4.10915E+03 -7.92509E+03  1.04277E+03 -8.80305E+03
  5.53817E+03 -5.21089E+03  6.72595E+03 -8.83729E+02  5.35028E+03  2.93685E+03  1.10496E+03  4.09152E+03
 -2.24478E+03  1.86542E+03 -3.13016E+03 -2.97743E+03  1.54442E+03 -6.60668E+03  7.58879E+03 -5.21513E+03
  9.90138E+03  8.65172E+02  9.51781E+03  6.95912E+03  2.98152E+03  1.07122E+04 -3.46923E+03  9.10088E+03
 -7.81842E+03  4.18740E+03 -7.45324E+03 -1.46268E+03 -4.70007E+03 -6.17271E+03  1.82207E+03 -5.85595E+03
  5.92628E+03 -3.27106E+03  5.66351E+03  2.39682E+03  1.90321E+03  5.30922E+03 -5.53668E+02  4.79163E+03
 -3.95782E+03  2.57900E+03 -3.08572E+03  1.23651E+03 -1.52815E+03  8.74929E+02 -2.02300E+03  2.49000E+03
 -2.75101E+03  3.94381E+03 -6.93520E+03  3.48132E+03 -1.00939E+04  6.40219E+01 -1.16166E+04 -6.27332E+03
 -6.06021E+03 -1.37874E+04  2.89657E+03 -1.53622E+04  1.01405E+04 -1.22781E+04  1.45361E+04 -4.40657E+03
  1.38841E+04  3.41305E+03  8.20459E+03  9.09726E+03  1.00397E+03  9.90181E+03 -3.56956E+03  7.12565E+03
 -6.33197E+03  3.48434E+03 -3.46618E+03 -1.42454E+03 -1.77317E+03 -4.26662E+02 -7.34214E+02 -7.71560E+02
 -1.92438E+03  1.81811E+02 -1.58022E+03 -5.37479E+02  1.77084E+02 -2.09874E+03  6.68016E+02 -3.43544E+03
  4.84277E+03 -4.07009E+03  6.80184E+03 -2.27413E+02  7.21605E+03  5.44809E+03  2.92942E+03  1.08189E+04
 -4.52716E+03  1.23377E+04 -1.17153E+04  7.69449E+03 -1.26629E+04 -1.32994E+03 -9.41333E+03 -7.70796E+03
 -4.63614E+03 -1.09462E+04  2.70752E+03 -9.70145E+03  6.58134E+03 -5.76123E+03  6.87263E+03 -1.46436E+02
  4.28756E+03  3.77156E+03 -9.27366E+02  2.74375E+03 -2.19181E+03 -1.20652E+03 -1.21266E+02 -2.51851E+03
  3.59093E+03 -5.56633E+02  3.68360E+03  2.29191E+03  2.02595E+03  4.59285E+03  6.95686E+02  6.27286E+03
 -5.45892E+03  4.34399E+03 -6.82444E+03  3.37136E+02 -6.41359E+03 -4.72163E+03 -8.97455E+02 -8.52646E+03
  5.46375E+03 -7.49504E+03  8.41352E+03 -1.99391E+03  7.28105E+03  2.86028E+03  4.69146E+03  6.38720E+03
  9.13469E+02  6.51591E+03 -2.39448E+03  6.16182E+03 -4.25702E+03  3.47834E+03 -2.96380E+03  9.72930E+01
 -1.47299E+03 -1.38728E+02 -2.09190E+03  1.35288E+03 -3.63841E+03  1.14519E+02 -5.64879E+03 -1.24777E+03
 -5.70524E+03 -4.05091E+03 -2.01680E+03 -7.72234E+03  2.54808E+03 -7.28794E+03  5.81667E+03 -3.23990E+03
  7.45782E+03  9.37675E+02  3.85965E+03  5.12183E+03 -8.08180E+02  7.15253E+03 -4.90769E+03  4.05700E+03
