 $NMID ID='MM_0lb_SNR400_8hz_g60_2.RAW', FMTDAT='(8E13.5)'
 TRAMP=1., VOLUME=1. $END
  3.10083E+05 -1.23029E+01  3.39156E+05  2.51230E+05  8.50969E+04  3.38473E+05 -1.33632E+05  2.52329E+05
 -1.91096E+05  8.37452E+04 -1.13219E+05 -3.27876E+04 -4.38251E+02 -5.06355E+04  5.46216E+04 -8.23020E+02
  3.57897E+04  5.30541E+04 -1.58557E+04  7.63992E+04 -6.08888E+04  6.45503E+04 -8.64065E+04  3.34811E+04
 -8.37445E+04 -1.24971E+04 -5.87948E+04 -5.23490E+04 -1.58165E+04 -7.09733E+04  2.94792E+04 -4.73791E+04
  4.12495E+04  4.71417E+03  1.68931E+04  4.89869E+04 -3.50721E+04  4.79634E+04 -6.85090E+04  4.61845E+02
 -5.51784E+04 -5.83989E+04 -7.18669E+03 -7.99458E+04  3.54694E+04 -5.83783E+04  5.01594E+04 -1.94598E+04
  4.59816E+04  1.16209E+04  3.28283E+04  2.68350E+04  1.63449E+04  3.06473E+04 -5.55670E+03  2.87538E+04
 -2.33216E+04  1.14879E+04 -1.81674E+04 -5.42461E+03  8.23478E+03 -6.87600E+03  2.46211E+04  1.46712E+04
  6.77757E+03  3.90617E+04 -3.44946E+04  3.82199E+04 -6.78381E+04  2.57146E+03 -5.99419E+04 -4.52766E+04
 -1.29405E+04 -6.69754E+04  4.23324E+04 -4.87018E+04  6.18608E+04 -3.85497E+03  3.68344E+04  3.51801E+04
 -6.26941E+03  4.05172E+04 -3.16424E+04  2.00033E+04 -3.42251E+04 -3.64593E+03 -2.02714E+04 -1.22452E+04
 -1.01698E+04 -1.68093E+04 -5.05828E+02 -2.06738E+04  8.53981E+03 -2.33504E+04  1.57636E+04 -1.20079E+04
  9.95358E+03  6.11095E+03 -1.09378E+04  1.27615E+04 -2.45341E+04 -8.10994E+03 -8.11498E+03 -3.90308E+04
  2.59180E+04 -4.86847E+04  5.37553E+04 -2.21703E+04  5.03641E+04  2.14461E+04  1.78141E+04  4.80172E+04
 -1.68300E+04  3.66493E+04 -2.86580E+04  3.36541E+03 -1.21210E+04 -3.01370E+04  2.18233E+04 -3.72917E+04
  4.60260E+04 -1.19265E+04  4.23573E+04  2.59679E+04  2.25976E+04  5.27667E+04 -8.93852E+03  5.92657E+04
 -3.63999E+04  4.09166E+04 -4.86352E+04  1.19639E+04 -4.96052E+04 -1.93967E+04 -2.69864E+04 -4.31162E+04
  7.97185E+03 -4.40384E+04  3.58846E+04 -1.80417E+04  3.36657E+04  1.05907E+04  6.11564E+03  2.15435E+04
 -1.42200E+04  1.11218E+04 -1.05290E+04 -7.06929E+03  6.07020E+03 -1.18322E+04  1.94810E+04  5.67029E+03
  1.53970E+04  2.25456E+04 -5.32919E+03  2.85622E+04 -2.39500E+04  1.51505E+04 -3.31069E+04 -1.56252E+03
 -2.75836E+04 -1.99024E+04 -1.28295E+04 -2.59284E+04  2.84589E+03 -2.79211E+04  2.15440E+04 -2.48134E+04
  3.49492E+04 -1.46411E+04  4.07317E+04  5.84373E+03  2.83108E+04  2.62522E+04  4.39173E+03  4.32723E+04
 -1.97738E+04  3.51323E+04 -3.17465E+04  1.24620E+04 -2.30203E+04 -1.07576E+04 -4.96804E+03 -1.12453E+04
  3.25122E+02 -3.99231E+02 -8.62898E+03  1.00848E+04 -2.20478E+04  4.57774E+03 -2.15730E+04 -1.04837E+04
 -1.30776E+04 -2.52356E+04  6.62719E+03 -2.89449E+04  2.06349E+04 -2.14016E+04  2.36891E+04 -2.10033E+03
  1.57649E+04  1.70011E+04 -1.82179E+03  2.48988E+04 -1.79875E+04  1.48158E+04 -2.56511E+04 -5.20653E+03
 -1.92527E+04 -2.24011E+04 -2.80193E+03 -3.08093E+04  1.29640E+04 -2.35102E+04  2.53358E+04 -1.28906E+04
  2.34709E+04 -1.12556E+03  1.68262E+04  5.99282E+03  9.93673E+03  1.80430E+03  1.25490E+04 -3.57855E+03
  2.44351E+04  2.84793E+03  2.78032E+04  1.92426E+04  1.87694E+04  4.15276E+04 -2.63100E+03  4.88384E+04
 -2.75943E+04  4.11682E+04 -4.62059E+04  2.07996E+04 -4.92933E+04 -4.86442E+03 -3.89063E+04 -2.88651E+04
 -1.58452E+04 -4.11521E+04  1.54413E+04 -3.49130E+04  3.05406E+04 -1.64618E+04  2.62909E+04  9.25422E+03
  9.01568E+03  1.98276E+04 -1.25924E+04  1.74451E+04 -2.19007E+04  2.71003E+03 -1.70403E+04 -1.38368E+04
 -1.33159E+02 -2.08496E+04  1.20536E+04 -1.54610E+04  1.46575E+04 -1.69740E+03  4.61136E+03  1.00195E+04
 -9.70379E+03  5.23024E+03 -8.86406E+03 -7.80847E+03 -2.08788E+03 -1.95808E+04  1.38631E+04 -2.20597E+04
  2.59065E+04 -1.30418E+04  2.91529E+04  3.48070E+03  2.69588E+04  2.07882E+04  1.15464E+04  3.26086E+04
 -6.47678E+03  3.59768E+04 -2.36400E+04  2.23505E+04 -2.61929E+04  3.34525E+03 -1.61545E+04 -7.41360E+03
 -7.05891E+03 -8.45645E+03 -9.42754E+02 -4.14049E+00 -3.20363E+03  4.64926E+03 -8.68260E+03  5.36768E+03
 -1.56251E+04 -8.52448E+02 -1.60236E+04 -1.31425E+04 -6.45664E+03 -2.17616E+04  7.57039E+03 -1.77550E+04
  1.39727E+04 -7.10476E+03  9.49317E+03  4.30567E+03 -9.21499E+02  6.78652E+03 -9.19310E+03 -6.39228E+02
 -8.79950E+03 -1.17443E+04 -1.30895E+03 -1.87686E+04  9.82319E+03 -1.87745E+04  2.23706E+04 -9.70986E+03
  2.68328E+04  2.49081E+03  1.92926E+04  1.56684E+04  4.25248E+03  2.18282E+04 -1.11592E+04  1.81379E+04
 -1.37314E+04  4.36791E+03 -6.80093E+03 -3.06017E+03  1.97486E+03 -5.05288E+03  9.85580E+03 -6.85845E+02
  7.94418E+03  7.15868E+03  1.50156E+03  1.48621E+04 -1.03786E+04  1.28328E+04 -1.77988E+04  3.03960E+03
 -1.26715E+04 -9.49904E+03  8.21271E+02 -1.45201E+04  9.61222E+03 -8.37853E+03  1.08802E+04  4.22776E+03
  2.85641E+03  1.12434E+04 -9.45344E+03  1.45782E+04 -1.52880E+04  5.71541E+03 -1.66815E+04 -6.55601E+03
 -8.95202E+03 -1.82530E+04  4.91801E+03 -2.09555E+04  1.79580E+04 -1.25907E+04  1.96612E+04  4.31536E+03
  1.13110E+04  1.47217E+04 -1.68506E+03  1.75469E+04 -1.33534E+04  1.01570E+04 -1.53874E+04 -2.47775E+03
 -1.23577E+04 -1.14161E+04 -2.89382E+03 -1.42322E+04  6.91010E+03 -1.09309E+04  9.37410E+03 -3.80741E+03
  5.70971E+03  2.73731E+03 -1.03658E+03  1.71316E+03 -1.83974E+03 -4.78559E+03  3.42459E+03 -9.37526E+03
  1.36945E+04 -6.20025E+03  1.90862E+04  1.47918E+03  1.81287E+04  1.30397E+04  1.16087E+04  2.46139E+04
 -5.57974E+03  2.86239E+04 -2.26842E+04  2.07347E+04 -3.01695E+04  4.21876E+03 -2.42243E+04 -1.06388E+04
 -1.13757E+04 -2.04702E+04  1.64351E+02 -1.70121E+04  5.88012E+03 -9.62499E+03  6.33143E+03 -5.97811E+03
  4.73161E+03 -4.06026E+03  3.35744E+03 -4.56801E+03  6.38602E+03 -4.97087E+03  9.48735E+03 -7.71594E+02
  1.21464E+04  1.98462E+03  8.22158E+03  1.05240E+04 -2.77773E+03  1.55169E+04 -1.33245E+04  1.08208E+04
 -1.77495E+04 -1.35273E+03 -1.17787E+04 -1.26763E+04 -3.03613E+03 -1.99206E+04  9.82924E+03 -1.85189E+04
  2.10727E+04 -1.09026E+04  2.24058E+04  3.31454E+03  1.53197E+04  1.67633E+04  3.10715E+03  2.17384E+04
 -8.91481E+03  1.73009E+04 -1.14993E+04  5.99741E+03 -8.64474E+03 -1.40812E+03 -4.13353E+03 -3.01002E+03
 -2.09887E+03 -5.56626E+02 -2.56527E+03  2.76191E+03 -6.89604E+03  3.70238E+03 -1.15886E+04 -1.98489E+03
 -9.80338E+03 -1.14420E+04 -9.15581E+02 -1.72917E+04  1.04990E+04 -1.57249E+04  1.86846E+04 -4.77398E+03
  1.76844E+04  8.81422E+03  8.77232E+03  1.62419E+04 -3.90768E+03  1.86840E+04 -1.35844E+04  1.10658E+04
 -1.75097E+04  2.39275E+02 -1.32347E+04 -1.08427E+04 -1.41993E+03 -1.56052E+04  8.07830E+03 -1.17927E+04
  1.24792E+04 -3.69026E+03  8.00413E+03  2.30417E+03  2.85068E+03  4.93881E+03  1.75809E+03  2.37489E+03
  2.74392E+03  1.16982E+03  4.05045E+03  2.53477E+03  4.98157E+03  5.88679E+03  4.16033E+03  9.70926E+03
 -2.61294E+03  1.42769E+04 -1.22494E+04  1.47002E+04 -1.92819E+04  3.58525E+03 -1.94501E+04 -8.62405E+03
 -9.32131E+03 -1.91748E+04  2.81824E+03 -1.99306E+04  1.10023E+04 -1.32769E+04  1.55963E+04 -2.90342E+03
  1.22839E+04  6.31394E+03  2.39779E+03  1.06644E+04 -5.69845E+03  6.38565E+03 -7.86283E+03 -6.33128E+02
 -3.86243E+03 -7.87638E+03  4.05638E+03 -7.47102E+03  7.84269E+03 -3.53191E+03  8.26566E+03  1.29957E+03
  4.87351E+03  4.08385E+03  1.75435E+03  3.64871E+03 -1.83377E+03  2.52873E+03  1.41515E+03 -9.69109E+01
  3.26791E+03 -3.32157E+02  7.25574E+03  3.13803E+03  5.52276E+03  1.05368E+04 -1.81475E+03  1.31906E+04
 -1.05364E+04  9.06030E+03 -1.20195E+04  3.00914E+03 -1.02717E+04 -3.48281E+03 -4.08547E+03 -6.95173E+03
  6.01127E+02 -6.74762E+03  4.87677E+03 -3.09249E+03  4.60385E+03  4.02901E+03 -1.70560E+03  6.23682E+03
 -8.27892E+03  3.65234E+03 -8.95091E+03 -4.47745E+03 -5.48129E+03 -9.80835E+03  1.48319E+03 -1.13930E+04
  6.06263E+03 -6.25873E+03  8.46261E+03 -2.60627E+02  7.00955E+03  3.40584E+03  1.61814E+03  6.84064E+03
 -3.41634E+03  2.25429E+03 -4.62103E+03 -3.78734E+03  2.17058E+03 -9.36241E+03  9.52625E+03 -6.08360E+03
  1.30233E+04  8.99933E+02  1.13553E+04  8.61487E+03  3.84639E+03  1.35843E+04 -4.38144E+03  1.21906E+04
 -9.71934E+03  5.44217E+03 -1.06282E+04 -1.31160E+03 -6.04004E+03 -8.43049E+03  2.80765E+03 -8.27819E+03
  7.79215E+03 -3.40812E+03  7.44429E+03  3.67946E+03  2.86937E+03  6.60899E+03 -2.19945E+03  5.63948E+03
 -3.69902E+03  3.30372E+03 -2.51966E+03  1.39227E+03 -8.23929E+02  1.02697E+03 -1.86122E+03  2.49347E+03
 -3.23341E+03  4.93449E+03 -8.37874E+03  4.42005E+03 -1.22998E+04  5.64061E+02 -1.43659E+04 -9.51225E+03
 -8.15258E+03 -1.72317E+04  2.82131E+03 -1.92138E+04  1.25830E+04 -1.63153E+04  1.87753E+04 -5.18172E+03
  1.69573E+04  3.15615E+03  1.12580E+04  1.07328E+04  8.20002E+02  1.28633E+04 -5.06265E+03  9.29849E+03
 -7.54782E+03  2.92373E+03 -4.68296E+03 -1.31330E+03 -9.17751E+02 -2.19498E+03 -8.96304E+02 -2.40707E+02
 -1.82468E+03  5.53050E+02 -2.73175E+03 -1.60580E+02 -8.95641E+02 -3.29510E+03  1.78408E+03 -4.74887E+03
  6.14446E+03 -3.95089E+03  8.24167E+03  2.19294E+02  9.55650E+03  6.46545E+03  3.02517E+03  1.34584E+04
 -6.93028E+03  1.50201E+04 -1.50433E+04  9.52908E+03 -1.68482E+04 -1.50547E+03 -1.20400E+04 -1.01792E+04
 -6.19781E+03 -1.45455E+04  2.87791E+03 -1.26441E+04  8.99858E+03 -7.69630E+03  9.20806E+03  9.07321E+02
  5.06778E+03  4.49442E+03 -1.23183E+03  3.36562E+03 -2.41994E+03  4.86588E-01  2.73575E+02 -2.54807E+03
  3.61249E+03 -2.89007E+03  4.76937E+03  1.08731E+03  3.77741E+03  5.98789E+03  8.69722E+00  7.06118E+03
 -5.89072E+03  6.28854E+03 -9.20468E+03  1.85066E+03 -8.37795E+03 -7.29335E+03 -1.32500E+03 -1.14548E+04
  6.28096E+03 -9.38606E+03  1.03197E+04 -2.86101E+03  1.03596E+04  2.33190E+03  6.25343E+03  8.90404E+03
  1.07137E+03  7.54161E+03 -4.35299E+03  7.40907E+03 -6.04436E+03  4.08238E+03 -4.54345E+03 -7.35099E+02
 -3.10804E+03 -6.36261E+02 -2.04881E+03  7.66076E+02 -4.82695E+03  1.65011E+03 -7.55243E+03 -6.82972E+02
 -6.48795E+03 -5.62549E+03 -1.84572E+03 -9.40687E+03  4.33684E+03 -9.15686E+03  8.82890E+03 -5.05011E+03
  8.63542E+03  2.14074E+03  5.10136E+03  5.93945E+03 -6.42765E+02  9.95187E+03 -7.12720E+03  6.54951E+03
