 $NMID ID='MM_0lb_SNR400_15hz_g50_58.RAW', FMTDAT='(8E13.5)'
 TRAMP=1., VOLUME=1. $END
  3.09725E+05  1.95564E+02  3.37690E+05  2.51255E+05  8.47093E+04  3.38372E+05 -1.32532E+05  2.50511E+05
 -1.90367E+05  8.34035E+04 -1.11459E+05 -3.24551E+04  6.36697E+02 -4.99108E+04  5.37444E+04 -4.27760E+02
  3.50960E+04  5.32803E+04 -1.66521E+04  7.52944E+04 -6.08308E+04  6.37740E+04 -8.39248E+04  3.14757E+04
 -8.05110E+04 -1.06915E+04 -5.72833E+04 -5.09619E+04 -1.52467E+04 -6.90091E+04  2.73555E+04 -4.55122E+04
  3.95033E+04  3.37904E+03  1.57907E+04  4.80927E+04 -3.41700E+04  4.72211E+04 -6.63247E+04 -6.58961E+02
 -5.31878E+04 -5.65472E+04 -7.13774E+03 -7.72263E+04  3.36582E+04 -5.47350E+04  4.76636E+04 -1.70175E+04
  4.30412E+04  1.16424E+04  3.18064E+04  2.53737E+04  1.59766E+04  2.95247E+04 -4.74823E+03  2.65497E+04
 -2.28238E+04  1.29957E+04 -1.91818E+04 -5.05123E+03  5.36789E+03 -7.44049E+03  2.23730E+04  1.15976E+04
  7.31818E+03  3.45555E+04 -3.20287E+04  3.57266E+04 -6.29246E+04  2.67287E+03 -5.64220E+04 -4.25888E+04
 -1.27651E+04 -6.32860E+04  3.92321E+04 -4.43233E+04  5.79528E+04 -2.20844E+03  3.35255E+04  3.20818E+04
 -6.01986E+03  3.56937E+04 -2.99591E+04  1.52352E+04 -2.98925E+04 -4.62214E+03 -1.62727E+04 -1.07635E+04
 -7.85893E+03 -1.27689E+04 -6.85817E+02 -1.79018E+04  7.68774E+03 -2.28885E+04  1.58563E+04 -1.35591E+04
  1.16975E+04  4.94239E+03 -8.66135E+03  1.26876E+04 -2.10402E+04 -4.16610E+03 -8.11279E+03 -3.33691E+04
  2.26067E+04 -4.37841E+04  4.79517E+04 -1.97747E+04  4.45231E+04  1.91871E+04  1.50874E+04  4.31954E+04
 -1.63337E+04  3.31796E+04 -2.50467E+04  2.22733E+03 -1.00482E+04 -2.76088E+04  2.06500E+04 -3.29390E+04
  3.98643E+04 -8.55740E+03  3.46468E+04  2.39954E+04  1.77979E+04  4.54240E+04 -8.68497E+03  4.93415E+04
 -3.13014E+04  3.25681E+04 -4.11222E+04  8.92739E+03 -4.23569E+04 -1.61697E+04 -2.25904E+04 -3.79134E+04
  7.48488E+03 -3.73913E+04  3.08139E+04 -1.45338E+04  2.85716E+04  1.09333E+04  4.36105E+03  1.83006E+04
 -1.36951E+04  7.85291E+03 -1.04276E+04 -7.55476E+03  6.05642E+03 -1.04537E+04  1.80800E+04  5.83143E+03
  1.32960E+04  2.25291E+04 -6.39762E+03  2.38867E+04 -2.20747E+04  1.10994E+04 -2.76815E+04 -4.75177E+03
 -1.99746E+04 -1.71044E+04 -7.46883E+03 -2.00346E+04  5.15139E+03 -1.86495E+04  1.48157E+04 -1.73054E+04
  2.56055E+04 -1.18833E+04  3.17382E+04  2.78967E+03  2.34606E+04  1.95346E+04  4.52773E+03  3.60410E+04
 -1.69417E+04  3.02911E+04 -2.75070E+04  1.04399E+04 -2.05549E+04 -1.08008E+04 -4.49516E+03 -1.36933E+04
  2.66658E+03 -3.38585E+03 -4.65043E+03  6.54480E+03 -1.46565E+04  5.24532E+03 -1.56252E+04 -6.35762E+03
 -9.24592E+03 -1.81391E+04  4.59781E+03 -2.26414E+04  1.44242E+04 -1.56870E+04  1.75817E+04 -1.52839E+03
  1.10590E+04  1.33517E+04 -9.46086E+02  1.82814E+04 -1.26644E+04  1.04203E+04 -1.76218E+04 -4.33546E+03
 -1.36352E+04 -1.71712E+04 -2.09338E+03 -2.17173E+04  9.86136E+03 -1.82362E+04  1.82573E+04 -8.49281E+03
  1.67067E+04  3.84887E+02  1.26837E+04  4.27135E+03  6.60214E+03  1.03929E+03  8.91972E+03 -1.19313E+03
  1.69476E+04  2.56689E+03  1.88292E+04  1.40387E+04  1.18454E+04  2.94974E+04 -3.29617E+03  3.24741E+04
 -1.87197E+04  2.57277E+04 -3.01736E+04  1.28647E+04 -3.19009E+04 -2.67656E+03 -2.66368E+04 -1.79330E+04
 -1.18750E+04 -2.60253E+04  9.08603E+03 -2.32918E+04  2.03440E+04 -1.24606E+04  1.82744E+04  4.87432E+03
  7.55649E+03  1.38732E+04 -8.85597E+03  1.27882E+04 -1.60318E+04  2.82339E+03 -1.20580E+04 -9.51469E+03
 -1.36152E+02 -1.46966E+04  7.19333E+03 -1.05777E+04  9.83441E+03 -1.64262E+03  1.90477E+03  6.33878E+03
 -7.24147E+03  2.04474E+03 -5.50998E+03 -5.36936E+03  2.08194E+02 -1.30935E+04  9.28918E+03 -1.38518E+04
  1.52095E+04 -6.68258E+03  1.69340E+04  3.25368E+03  1.46098E+04  1.23600E+04  6.49259E+03  1.85313E+04
 -3.00944E+03  2.09462E+04 -1.30536E+04  1.27610E+04 -1.49667E+04  3.31651E+03 -1.04931E+04 -2.85271E+03
 -4.88071E+03 -4.73145E+03 -8.76595E+02  7.50988E+02 -2.34334E+03  2.53966E+03 -5.02989E+03  4.12970E+03
 -1.00124E+04 -4.97031E+02 -1.12828E+04 -8.75408E+03 -4.05105E+03 -1.39965E+04  4.55633E+03 -1.06245E+04
  9.27400E+03 -4.96392E+03  6.34592E+03  2.61106E+03  9.69220E+02  4.35823E+03 -5.31773E+03 -2.20110E+01
 -4.48872E+03 -6.51493E+03 -1.08652E+03 -1.00201E+04  5.22439E+03 -1.05621E+04  1.29316E+04 -5.34881E+03
  1.56291E+04  1.54070E+03  1.09233E+04  9.06481E+03  2.13400E+03  1.19442E+04 -6.43716E+03  1.06954E+04
 -8.96777E+03  3.40703E+03 -4.19682E+03 -2.18232E+03  1.21186E+03 -2.68936E+03  6.16544E+03 -5.92160E+02
  5.28003E+03  4.82904E+03  1.62388E+03  8.73263E+03 -5.93658E+03  8.04546E+03 -1.05490E+04  2.47683E+03
 -6.71001E+03 -5.20124E+03  2.54190E+02 -8.74002E+03  5.49277E+03 -4.90130E+03  5.61918E+03  1.91077E+03
  8.40674E+02  5.84540E+03 -5.30857E+03  6.11543E+03 -7.89229E+03  2.91423E+03 -7.34331E+03 -1.93812E+03
 -4.50238E+03 -8.97443E+03  2.15096E+03 -1.09827E+04  8.51892E+03 -5.95429E+03  9.75429E+03  1.66498E+03
  6.40649E+03  7.80150E+03 -7.58877E+02  9.59671E+03 -7.01409E+03  5.44892E+03 -6.87340E+03 -1.25662E+03
 -7.21824E+03 -6.40159E+03 -1.94806E+03 -6.97219E+03  3.46842E+03 -6.31185E+03  4.53865E+03 -3.21910E+03
  3.65425E+03  7.47143E+02 -3.63779E+01  1.48203E+03  3.33986E+02 -1.14959E+03  5.08732E+02 -3.48078E+03
  5.75180E+03 -1.45895E+03  8.15901E+03  9.45628E+02  8.51325E+03  5.12423E+03  7.05465E+03  1.11381E+04
 -3.02328E+03  1.30668E+04 -1.10530E+04  9.43051E+03 -1.42386E+04  1.50150E+03 -1.11410E+04 -4.03213E+03
 -6.44890E+03 -9.17290E+03 -1.78157E+02 -7.45823E+03  2.84935E+03 -3.95396E+03  2.79368E+03 -2.61891E+03
  2.16004E+03 -1.55281E+03  2.77299E+03 -3.14893E+03  3.28621E+03 -1.76286E+03  4.73894E+03 -1.36575E+02
  6.14158E+03  1.38378E+03  2.47755E+03  5.37847E+03 -1.19982E+03  5.30253E+03 -6.19522E+03  4.01943E+03
 -7.72045E+03 -9.50348E+02 -4.22188E+03 -5.78404E+03  1.62508E+01 -8.37496E+03  4.44571E+03 -8.28535E+03
  8.36859E+03 -4.55848E+03  1.00064E+04  2.97485E+02  7.46343E+03  6.73022E+03  1.20932E+03  9.11062E+03
 -4.19873E+03  8.47128E+03 -5.55509E+03  3.12573E+03 -3.31847E+03 -1.26417E+03 -1.44951E+03 -8.78430E+02
 -4.66166E+02  5.14596E+02 -5.89649E+02  2.34264E+03 -3.14050E+03  1.16041E+03 -5.84166E+03 -8.42905E+02
 -3.12054E+03 -5.87310E+03  1.14107E+03 -7.38860E+03  4.56675E+03 -6.86864E+03  6.61534E+03 -1.53365E+03
  6.30447E+03  4.31686E+03  2.97885E+03  5.70725E+03 -1.11792E+03  7.45184E+03 -4.50600E+03  4.53237E+03
 -5.91479E+03  9.50997E+02 -5.47279E+03 -3.97091E+03 -3.14064E+02 -5.93647E+03  2.17142E+03 -4.66212E+03
  4.07828E+03 -1.77215E+03  3.55050E+03  6.05193E+02  1.13640E+03  2.25213E+03  1.16825E+03  6.83877E+02
  2.14965E+03  1.00251E+03  2.10115E+03  1.29868E+03  1.68207E+03  2.35372E+03  2.32803E+03  3.02497E+03
 -1.74550E+03  4.71677E+03 -5.13975E+03  6.24771E+03 -6.05535E+03  1.75455E+03 -6.93466E+03 -2.34163E+03
 -2.85737E+03 -6.59537E+03  9.37230E+02 -7.85520E+03  2.82293E+03 -4.35374E+03  5.69508E+03 -1.46531E+03
  4.07696E+03  3.36357E+03  1.13020E+03  3.45528E+03 -1.77130E+03  2.09186E+03 -2.81139E+03 -2.37699E+02
 -6.56230E+02 -2.69920E+03  1.96647E+03 -3.02210E+03  2.67746E+03 -1.39885E+03  2.88121E+03  9.14390E+02
  1.22088E+03  6.64885E+02  7.73586E+02  4.47756E+02 -6.01628E+02  6.44885E+02  1.64839E+03 -1.32292E+02
  4.84926E+02 -3.52922E+02  2.49577E+03  1.13219E+03  1.47307E+03  3.37155E+03 -5.38726E+02  5.39593E+03
 -2.92969E+03  2.48462E+03 -3.38984E+03  3.96451E+02 -3.75737E+03 -1.43797E+03 -8.15604E+02 -2.17766E+03
  3.34142E+02 -2.15358E+03  1.50431E+03 -1.04413E+03  9.22946E+02  1.37032E+03 -8.59228E+02  1.50638E+03
 -2.14337E+03  1.34900E+03 -2.96109E+03 -1.61629E+03 -1.40818E+03 -3.53737E+03  3.09675E+02 -3.77339E+03
  1.56257E+03 -1.27021E+03  2.34140E+03  8.58997E+01  2.34913E+03  9.69152E+02  7.93415E+02  1.48069E+03
 -9.64595E+02  1.48800E+02 -1.41002E+03 -1.06259E+03  6.00253E+02 -2.33114E+03  2.80075E+03 -9.19439E+02
  2.93451E+03  3.33073E+02  4.14830E+03  2.34503E+03  1.29895E+03  3.48227E+03 -9.92059E+02  3.90152E+03
 -2.79012E+03  1.25342E+03 -3.11799E+03 -2.07220E+02 -1.75936E+03 -2.79407E+03  5.30222E+02 -1.97342E+03
  2.68081E+03 -1.16678E+03  1.18219E+03  7.77417E+02  7.43442E+02  2.22995E+03  2.80510E+02  1.99058E+03
 -6.68433E+02  1.62145E+03 -7.41387E+02 -4.51618E+02 -4.83379E+02  8.52871E+02 -6.80348E+02  1.06345E+03
 -8.86828E+02  1.31687E+03 -2.46168E+03  7.22746E+02 -3.37345E+03  1.39092E+02 -3.97389E+03 -2.14382E+03
 -1.83472E+03 -4.51565E+03  1.21534E+03 -5.48932E+03  2.54491E+03 -4.30340E+03  5.38665E+03 -1.39916E+03
  4.55059E+03  4.15795E+02  3.45068E+03  2.93173E+03 -6.84446E+02  3.61084E+03 -8.64063E+02  2.67430E+03
 -2.00153E+03  1.13552E+03 -2.49292E+02 -3.17611E+02 -4.89736E+02  1.05071E+02 -4.21961E+02 -6.62598E+02
 -1.16776E+03 -5.69600E+02 -1.71305E+03 -3.73346E+02  1.81523E+02 -7.03333E+02 -1.45513E+02 -1.89858E+03
  1.74810E+03 -1.41829E+03  1.02000E+03  2.67568E+02  2.31852E+03  1.53868E+03 -1.88211E+01  3.04869E+03
 -1.75017E+03  4.60486E+03 -3.42634E+03  2.37334E+03 -3.60356E+03 -7.30290E+02 -2.51984E+03 -2.59735E+03
 -1.60084E+03 -2.90878E+03  4.00122E+02 -2.40506E+03  2.54442E+03 -1.15662E+03  2.30130E+03  4.85371E+02
  1.20492E+03  8.00840E+02  2.19243E+02  8.05949E+02 -9.04628E+02 -2.38546E+02 -6.46124E+02  8.76886E+01
  1.28400E+03 -1.66932E+02  5.66648E+02  3.41094E+02  5.13952E+02  1.37278E+03  5.80890E+02  1.32225E+03
 -1.15885E+03  1.26012E+03 -1.38192E+03 -1.33506E+01 -2.25687E+03 -1.62685E+03  1.39172E+02 -2.42425E+03
  1.80184E+03 -2.45522E+03  1.95525E+03 -3.86051E+02  2.06525E+03 -4.44418E+01  1.41331E+03  1.88143E+03
  3.30828E+02  1.67929E+03 -6.37941E+02  1.53244E+03 -1.61451E+03  1.32141E+03 -4.22800E+02 -2.59960E+02
 -4.72100E+02 -1.92967E+02 -9.74949E+02  4.65075E+01 -7.16204E+02 -1.38971E+02 -1.72203E+03 -2.42075E+02
 -1.71773E+03 -6.59752E+02 -4.64283E+02 -2.09498E+03  1.49060E+03 -2.68676E+03  1.91098E+03 -1.19646E+03
  2.30821E+03  8.12083E+01  2.94706E+02  1.41673E+03  3.58225E+02  1.26872E+03 -1.75811E+03  1.70851E+03
