 $NMID ID='MM_0lb_SNR400_16hz_g55_48.RAW', FMTDAT='(8E13.5)'
 TRAMP=1., VOLUME=1. $END
  3.10253E+05  3.85732E+02  3.37358E+05  2.50518E+05  8.42009E+04  3.37621E+05 -1.32252E+05  2.51134E+05
 -1.89903E+05  8.31890E+04 -1.11651E+05 -3.24660E+04  7.54771E+02 -5.08921E+04  5.47946E+04 -7.45023E+01
  3.51740E+04  5.24201E+04 -1.68311E+04  7.53201E+04 -6.08549E+04  6.31403E+04 -8.40521E+04  3.15612E+04
 -8.06058E+04 -1.08175E+04 -5.70362E+04 -5.13611E+04 -1.49669E+04 -6.93695E+04  2.73303E+04 -4.59248E+04
  4.03753E+04  4.01977E+03  1.63381E+04  4.76912E+04 -3.48009E+04  4.74219E+04 -6.63070E+04 -1.38519E+02
 -5.34606E+04 -5.67615E+04 -6.45194E+03 -7.75262E+04  3.40021E+04 -5.44093E+04  4.77256E+04 -1.64857E+04
  4.29110E+04  1.14861E+04  3.10861E+04  2.55111E+04  1.59168E+04  2.90793E+04 -4.90744E+03  2.74593E+04
 -2.19542E+04  1.29404E+04 -1.88843E+04 -5.21341E+03  5.32347E+03 -7.55563E+03  2.24450E+04  1.21928E+04
  7.42429E+03  3.50497E+04 -3.23215E+04  3.55191E+04 -6.29989E+04  2.54661E+03 -5.66919E+04 -4.28669E+04
 -1.25672E+04 -6.25903E+04  3.94378E+04 -4.47476E+04  5.75918E+04 -1.95402E+03  3.39662E+04  3.20080E+04
 -6.26615E+03  3.58215E+04 -2.91016E+04  1.57499E+04 -2.99928E+04 -4.54553E+03 -1.58007E+04 -1.14022E+04
 -8.02144E+03 -1.29520E+04 -1.04886E+03 -1.74647E+04  7.65002E+03 -2.28072E+04  1.49863E+04 -1.39779E+04
  1.21555E+04  4.71175E+03 -7.84141E+03  1.30898E+04 -2.06954E+04 -4.19690E+03 -8.45273E+03 -3.30630E+04
  2.22503E+04 -4.27851E+04  4.76955E+04 -1.97836E+04  4.45526E+04  1.97776E+04  1.51624E+04  4.40500E+04
 -1.55285E+04  3.28986E+04 -2.53680E+04  2.11070E+03 -8.85131E+03 -2.78097E+04  2.07608E+04 -3.35623E+04
  4.02983E+04 -8.90064E+03  3.49892E+04  2.43064E+04  1.74606E+04  4.57233E+04 -8.13344E+03  4.93330E+04
 -3.09467E+04  3.25593E+04 -4.07557E+04  8.92392E+03 -4.19616E+04 -1.62567E+04 -2.33600E+04 -3.72447E+04
  7.14413E+03 -3.73026E+04  3.12253E+04 -1.38285E+04  2.89282E+04  1.11320E+04  3.56536E+03  1.91251E+04
 -1.29981E+04  8.54484E+03 -9.76018E+03 -7.41757E+03  6.43417E+03 -1.07189E+04  1.79604E+04  6.51801E+03
  1.32562E+04  2.21793E+04 -6.40901E+03  2.50182E+04 -2.23940E+04  1.06463E+04 -2.76418E+04 -5.07153E+03
 -1.93729E+04 -1.72935E+04 -7.77180E+03 -1.94859E+04  2.89257E+03 -1.86594E+04  1.54417E+04 -1.73581E+04
  2.57628E+04 -1.29199E+04  3.12756E+04  2.72535E+03  2.33493E+04  1.89043E+04  4.07766E+03  3.55602E+04
 -1.76486E+04  3.02768E+04 -2.75154E+04  1.00554E+04 -2.03109E+04 -1.03060E+04 -4.20529E+03 -1.39350E+04
  1.98529E+03 -3.68472E+03 -3.99513E+03  6.48804E+03 -1.54614E+04  5.12386E+03 -1.63389E+04 -5.75662E+03
 -9.28736E+03 -1.76308E+04  5.32308E+03 -2.26121E+04  1.53140E+04 -1.52749E+04  1.69615E+04 -1.66339E+03
  1.08027E+04  1.26782E+04 -7.97712E+02  1.69935E+04 -1.23619E+04  1.01075E+04 -1.79089E+04 -4.09377E+03
 -1.32888E+04 -1.60075E+04 -1.69571E+03 -2.16964E+04  1.04672E+04 -1.83737E+04  1.90426E+04 -8.70041E+03
  1.71555E+04  8.26024E+02  1.25611E+04  3.83902E+03  6.33761E+03  4.20821E+02  8.95697E+03 -1.51783E+03
  1.63123E+04  2.92213E+03  1.79140E+04  1.41112E+04  1.13722E+04  2.89079E+04 -2.76403E+03  3.23875E+04
 -1.89747E+04  2.55396E+04 -3.01933E+04  1.25972E+04 -3.12196E+04 -2.90134E+03 -2.61798E+04 -1.72360E+04
 -1.16246E+04 -2.56235E+04  9.01906E+03 -2.28560E+04  1.93028E+04 -1.19170E+04  1.82331E+04  4.97319E+03
  7.21060E+03  1.24729E+04 -8.22293E+03  1.17359E+04 -1.51394E+04  2.36070E+03 -1.17526E+04 -9.49780E+03
  1.07991E+02 -1.48555E+04  7.13128E+03 -1.06378E+04  9.55081E+03 -1.06518E+03  2.18765E+03  6.18486E+03
 -6.35497E+03  2.52916E+03 -5.78886E+03 -4.62381E+03  7.79165E+01 -1.23158E+04  9.40062E+03 -1.28636E+04
  1.55091E+04 -6.68718E+03  1.59678E+04  3.13354E+03  1.36244E+04  1.23439E+04  6.55910E+03  1.84438E+04
 -3.18817E+03  2.07094E+04 -1.23466E+04  1.25875E+04 -1.43626E+04  3.62771E+03 -1.05649E+04 -3.13416E+03
 -5.23867E+03 -5.28448E+03 -9.13180E+02  1.36806E+03 -2.09536E+03  2.73706E+03 -4.76751E+03  3.66946E+03
 -9.48932E+03 -1.89460E+02 -1.06526E+04 -8.27502E+03 -4.37057E+03 -1.36391E+04  4.45171E+03 -1.02542E+04
  9.03370E+03 -5.04954E+03  6.39819E+03  2.51409E+03  2.79852E+02  4.25144E+03 -4.68579E+03  7.15103E+02
 -4.49932E+03 -7.14518E+03 -8.18807E+02 -9.30122E+03  5.42394E+03 -1.01233E+04  1.30923E+04 -4.93570E+03
  1.50596E+04  9.62233E+02  1.05629E+04  8.06370E+03  2.29767E+03  1.09573E+04 -6.97024E+03  1.07662E+04
 -8.40630E+03  3.26824E+03 -4.44874E+03 -1.63114E+03  2.15375E+03 -2.21604E+03  5.34843E+03 -7.39435E+02
  5.41213E+03  5.10553E+03  1.43378E+03  8.09352E+03 -5.41579E+03  7.69450E+03 -1.00782E+04  1.67165E+03
 -5.51423E+03 -4.88406E+03  1.03925E+02 -8.67931E+03  4.98600E+03 -4.27880E+03  5.20028E+03  1.88546E+03
  8.09827E+02  4.65443E+03 -4.68607E+03  6.32323E+03 -6.74223E+03  3.02092E+03 -6.50361E+03 -2.53350E+03
 -4.42018E+03 -8.04895E+03  1.76553E+03 -9.94302E+03  8.51170E+03 -6.14016E+03  8.53895E+03  1.97047E+03
  5.47976E+03  6.89119E+03 -6.35294E+02  8.82810E+03 -6.74486E+03  5.12340E+03 -7.33132E+03 -9.46805E+02
 -7.36694E+03 -6.46855E+03 -1.27694E+03 -6.58115E+03  3.26570E+03 -5.42037E+03  3.51938E+03 -2.65119E+03
  3.13415E+03  4.22343E+02  6.00732E+01  1.33601E+03  9.36467E+02 -6.84302E+02  9.34407E+02 -3.08326E+03
  5.46033E+03 -1.22835E+03  7.67916E+03  1.38221E+03  7.85276E+03  4.77751E+03  6.91300E+03  1.00923E+04
 -2.34727E+03  1.19374E+04 -1.01651E+04  8.90801E+03 -1.38626E+04  1.85296E+03 -1.11627E+04 -3.92584E+03
 -5.75704E+03 -9.16440E+03 -4.70845E+02 -7.14194E+03  2.98522E+03 -3.67622E+03  2.45579E+03 -2.81441E+03
  1.76694E+03 -2.35331E+03  2.58606E+03 -2.91427E+03  4.14198E+03 -2.15054E+03  4.44662E+03  3.90636E+02
  5.47811E+03  1.31339E+03  2.11370E+03  4.30654E+03 -1.49301E+03  4.64235E+03 -5.87860E+03  4.34855E+03
 -7.31606E+03 -6.42676E+02 -3.35973E+03 -4.70766E+03  2.86496E+02 -8.00022E+03  4.51573E+03 -7.07069E+03
  6.95987E+03 -4.32998E+03  9.33735E+03  2.92853E+02  6.85128E+03  6.46261E+03  9.31240E+02  8.86949E+03
 -3.53255E+03  7.51331E+03 -4.62905E+03  2.82690E+03 -3.26052E+03 -8.65242E+02 -4.88341E+02 -1.32693E+03
 -5.47244E+02  4.90847E+01 -1.15070E+03  2.18315E+03 -2.95426E+03  7.17823E+02 -5.44921E+03 -1.00915E+03
 -2.55044E+03 -5.36957E+03  1.08744E+03 -6.92464E+03  3.66463E+03 -5.57631E+03  5.91465E+03 -2.20051E+03
  5.98667E+03  3.35207E+03  2.77982E+03  5.44744E+03 -1.77993E+03  6.19434E+03 -3.86623E+03  3.69312E+03
 -5.64736E+03  6.97397E+02 -4.37681E+03 -3.33348E+03 -4.06637E+01 -5.19494E+03  2.05691E+03 -3.68307E+03
  4.06358E+03 -1.39640E+03  2.17987E+03  7.88616E+02  6.74944E+02  1.76060E+03  5.48193E+02  5.16473E+02
  2.45307E+03  2.53430E+02  1.15977E+03  9.09170E+02  1.73663E+03  3.11421E+03  1.80184E+03  3.19061E+03
 -2.27981E+03  4.74770E+03 -3.83091E+03  5.40820E+03 -5.64777E+03  1.68416E+03 -6.34821E+03 -1.95339E+03
 -2.94935E+03 -5.49150E+03  1.18588E+03 -7.05963E+03  3.18605E+03 -4.28072E+03  3.92120E+03 -1.00729E+03
  3.89871E+03  1.89330E+03  6.49626E+02  3.56233E+03 -1.62529E+03  1.75909E+03 -1.43629E+03 -9.49019E+02
 -1.20462E+03 -2.50946E+03  2.06819E+03 -2.02685E+03  2.61034E+03 -1.18192E+03  2.01927E+03  2.41436E+02
  7.87160E+02  3.84215E+02  8.88500E+02  8.83449E+02 -8.25735E+02  6.10072E+02  1.46637E+03 -3.15210E+02
 -3.51004E+02 -1.86859E+02  2.61003E+03  9.01729E+02  5.78291E+02  3.75949E+03 -1.17583E+02  3.83762E+03
 -2.67803E+03  1.66619E+03 -3.40206E+03  5.63213E+02 -2.90216E+03 -1.01331E+03 -6.85089E+02 -2.03724E+03
 -3.30992E+01 -1.54255E+03  6.38525E+02 -1.27777E+03  1.33848E+03  1.37068E+03 -8.72237E+02  1.13600E+03
 -2.24238E+03  7.61479E+02 -2.55885E+03 -1.45465E+03 -9.35822E+02 -3.41376E+03  5.96158E+02 -2.73180E+03
  1.49831E+03 -1.01072E+03  1.14997E+03 -3.23851E+02  1.59878E+03  3.66100E+02  1.26510E+02  1.72680E+03
 -9.53045E+02 -3.67293E+00 -1.35372E+03 -8.14031E+02  4.79594E+02 -1.69054E+03  2.83919E+03 -1.91397E+03
  2.04538E+03  1.56759E+02  3.70973E+03  2.09657E+03  1.49759E+03  2.12873E+03 -1.06500E+03  3.50519E+03
 -1.89229E+03  1.14438E+03 -2.57971E+03  4.09714E+02 -1.70985E+03 -2.39990E+03  5.05520E+02 -1.30029E+03
  1.88246E+03 -8.61121E+02  1.29852E+03  9.96641E+02  5.00627E+02  2.29642E+03 -2.53626E+02  1.29564E+03
 -8.86503E+02  1.77575E+03 -3.91020E+02  9.36318E+02  1.03768E+02  4.17650E+02 -7.94996E+02  1.03382E+03
 -8.21850E+02  7.95005E+02 -2.05079E+03  7.76650E+02 -3.48694E+03  5.31474E+02 -3.48436E+03 -1.53116E+03
 -1.89106E+03 -3.74675E+03  3.28745E+02 -4.85953E+03  1.84647E+03 -4.46628E+03  4.37861E+03 -1.70612E+03
  3.64832E+03  3.08096E+02  2.24989E+03  2.52258E+03 -1.12305E+00  2.89595E+03 -8.75042E+02  1.98687E+03
 -1.73628E+03  4.16248E+02 -9.05260E+02 -7.58350E+02 -6.03974E+02 -2.60949E-01 -1.55138E+02 -5.35867E+00
 -1.53320E+03 -1.22046E+02 -8.20602E+02  9.81980E+01  6.05285E+01 -7.50495E+02 -8.04456E+02 -6.44862E+02
  1.92321E+03 -1.21473E+03  9.00405E+02  6.32959E+01  1.59196E+03  1.27907E+03  4.34564E+01  2.48776E+03
 -1.48111E+03  3.06038E+03 -2.86186E+03  2.58445E+03 -2.97470E+03 -4.39289E+02 -2.51857E+03 -1.79284E+03
 -1.70930E+03 -2.55665E+03  9.75622E+02 -2.43091E+03  1.47261E+03 -1.18484E+03  9.41911E+02 -3.81398E+02
  1.09000E+03  3.49929E+02 -6.70661E+02  1.26811E+03 -1.18269E+03 -5.34036E+02 -2.50206E+02 -7.19044E+02
  3.56275E+02  2.30683E+02  2.04512E+02  7.06705E+02  2.49246E+02  8.16606E+02  5.47701E+02  3.53462E+02
 -1.53138E+03  1.53566E+03 -1.08788E+03  5.27140E+02 -1.15007E+03 -8.51282E+02  4.55046E+02 -2.11190E+03
  1.29543E+03 -1.17110E+03  9.12364E+02 -4.54051E+02  2.11812E+03  4.01309E+01  3.01892E+02  1.31297E+03
  4.40343E+02  7.80952E+02  2.17445E+02  1.15314E+03 -6.66904E+02  7.94602E+02 -5.46809E+02  1.44188E+02
 -6.71412E+02 -5.50764E+02 -4.27777E+01  1.79785E+02 -1.28436E+03  4.05515E+02 -1.27967E+03  2.37021E+02
 -1.60331E+03  2.39394E+02 -4.53452E+02 -1.91908E+03  1.01635E+03 -1.94140E+03  1.42872E+03 -7.16863E+02
  1.64078E+03 -3.39805E+02  4.74792E+02  9.84757E+02  8.02129E+02  1.77770E+03 -1.34918E+03  1.12174E+03
