 $NMID ID='MM_0lb_SNR400_7hz_g55_12.RAW', FMTDAT='(8E13.5)'
 TRAMP=1., VOLUME=1. $END
  3.09350E+05  7.49110E+02  3.37934E+05  2.50986E+05  8.48731E+04  3.38604E+05 -1.33281E+05  2.52067E+05
 -1.90973E+05  8.42769E+04 -1.12935E+05 -3.18484E+04  4.87373E+02 -5.05810E+04  5.38290E+04 -1.29354E+03
  3.59771E+04  5.23821E+04 -1.73374E+04  7.55815E+04 -6.16756E+04  6.45993E+04 -8.60064E+04  3.32781E+04
 -8.29621E+04 -1.16016E+04 -5.82985E+04 -5.36455E+04 -1.47787E+04 -7.10579E+04  2.82829E+04 -4.75658E+04
  4.04947E+04  2.90078E+03  1.69588E+04  4.84829E+04 -3.51094E+04  4.86625E+04 -6.99642E+04  4.88912E+02
 -5.62111E+04 -5.84988E+04 -8.05191E+03 -7.98724E+04  3.55480E+04 -5.73140E+04  4.99457E+04 -1.82445E+04
  4.64171E+04  1.26144E+04  3.28217E+04  2.77137E+04  1.55921E+04  3.18901E+04 -6.36826E+03  2.78183E+04
 -2.23601E+04  1.25994E+04 -1.81887E+04 -5.66231E+03  7.88347E+03 -6.97663E+03  2.53601E+04  1.47037E+04
  7.46459E+03  3.82807E+04 -3.43024E+04  3.75147E+04 -6.75174E+04  1.50589E+03 -6.04095E+04 -4.51902E+04
 -1.20167E+04 -6.65817E+04  4.25713E+04 -4.87571E+04  6.27697E+04 -2.96356E+03  3.74246E+04  3.54970E+04
 -4.86772E+03  3.97587E+04 -3.21645E+04  2.00689E+04 -3.43660E+04 -2.65303E+03 -2.11958E+04 -1.26938E+04
 -9.12503E+03 -1.54053E+04 -1.50115E+03 -2.13914E+04  9.58958E+03 -2.46337E+04  1.57553E+04 -1.28847E+04
  1.07125E+04  7.04577E+03 -1.15472E+04  1.36206E+04 -2.46518E+04 -7.86572E+03 -9.24109E+03 -3.95459E+04
  2.67643E+04 -4.79447E+04  5.34224E+04 -2.15239E+04  5.17221E+04  2.14114E+04  1.81913E+04  4.79338E+04
 -1.66326E+04  3.71733E+04 -2.85253E+04  3.67714E+03 -1.23212E+04 -3.00518E+04  2.16509E+04 -3.78378E+04
  4.60171E+04 -1.16872E+04  4.26137E+04  2.41549E+04  2.28841E+04  5.30962E+04 -8.81504E+03  5.89484E+04
 -3.74428E+04  4.05480E+04 -4.94511E+04  1.27141E+04 -4.90222E+04 -1.87106E+04 -2.72202E+04 -4.42293E+04
  8.73290E+03 -4.51452E+04  3.57145E+04 -1.80139E+04  3.32122E+04  1.08582E+04  6.34055E+03  2.12405E+04
 -1.44736E+04  1.05028E+04 -1.20325E+04 -7.39625E+03  5.82073E+03 -1.25973E+04  1.92122E+04  4.97206E+03
  1.55880E+04  2.33205E+04 -3.88693E+03  2.73831E+04 -2.39266E+04  1.52996E+04 -3.42561E+04 -2.42979E+03
 -2.82199E+04 -1.92221E+04 -1.36699E+04 -2.80002E+04  2.71311E+03 -2.89367E+04  2.29796E+04 -2.58692E+04
  3.54061E+04 -1.54790E+04  4.01055E+04  5.63207E+03  2.78790E+04  2.64137E+04  4.38536E+03  4.41285E+04
 -2.16795E+04  3.57004E+04 -3.21958E+04  1.28490E+04 -2.35671E+04 -9.92158E+03 -5.23551E+03 -1.24372E+04
  1.07959E+03 -5.18459E+02 -9.04155E+03  1.00813E+04 -2.27539E+04  5.80323E+03 -2.24051E+04 -1.05691E+04
 -1.25328E+04 -2.57718E+04  6.47587E+03 -2.95923E+04  2.11064E+04 -2.14093E+04  2.57577E+04 -1.64879E+03
  1.58939E+04  1.76851E+04 -8.14694E+02  2.48110E+04 -1.94395E+04  1.38883E+04 -2.59245E+04 -4.97127E+03
 -1.90399E+04 -2.24526E+04 -2.70618E+03 -3.00540E+04  1.36332E+04 -2.61288E+04  2.40820E+04 -1.35585E+04
  2.42659E+04 -1.86232E+02  1.81505E+04  5.47989E+03  1.07899E+04  1.87042E+03  1.41474E+04 -2.48388E+03
  2.36831E+04  2.50834E+03  2.88419E+04  1.99652E+04  1.98376E+04  4.07026E+04 -1.27108E+03  4.89649E+04
 -2.89001E+04  4.12359E+04 -4.74030E+04  2.12735E+04 -5.06875E+04 -3.94288E+03 -4.14606E+04 -2.96891E+04
 -1.56625E+04 -4.21081E+04  1.48529E+04 -3.63295E+04  3.21156E+04 -1.60766E+04  2.72763E+04  8.92702E+03
  8.80387E+03  2.13777E+04 -1.32225E+04  1.78665E+04 -2.21831E+04  3.16832E+03 -1.59651E+04 -1.43277E+04
 -9.13931E+02 -2.09915E+04  1.15234E+04 -1.54231E+04  1.55428E+04 -1.98571E+03  3.83351E+03  1.06153E+04
 -9.40104E+03  5.10616E+03 -1.02628E+04 -7.78999E+03 -2.30630E+03 -2.14779E+04  1.34311E+04 -2.32928E+04
  2.68870E+04 -1.30844E+04  3.06358E+04  3.21606E+03  2.74101E+04  2.17917E+04  1.33626E+04  3.37003E+04
 -6.47861E+03  3.70109E+04 -2.37421E+04  2.28262E+04 -2.59376E+04  4.64017E+03 -1.76614E+04 -6.71172E+03
 -7.55724E+03 -8.68351E+03 -1.60924E+03 -3.09168E+02 -2.83563E+03  3.77427E+03 -8.22592E+03  6.36269E+03
 -1.64859E+04 -8.36013E+02 -1.59257E+04 -1.26108E+04 -6.64822E+03 -2.20376E+04  7.77569E+03 -1.84648E+04
  1.45896E+04 -7.30443E+03  1.02549E+04  5.02178E+03 -9.59141E+02  6.86166E+03 -9.82347E+03 -9.83443E+01
 -9.17662E+03 -1.28246E+04 -1.68426E+03 -1.96140E+04  1.11096E+04 -1.85646E+04  2.34307E+04 -1.08139E+04
  2.71794E+04  4.08925E+03  1.98257E+04  1.70795E+04  3.74102E+03  2.20398E+04 -1.13560E+04  1.78005E+04
 -1.56897E+04  5.54612E+03 -7.10000E+03 -4.37032E+03  2.86843E+03 -4.26176E+03  9.11074E+03 -1.54449E+03
  8.44793E+03  8.32210E+03  9.80330E+02  1.46610E+04 -1.06392E+04  1.35126E+04 -1.83972E+04  2.50411E+03
 -1.34041E+04 -9.98815E+03  6.55038E+02 -1.51666E+04  1.03484E+04 -7.98036E+03  1.11199E+04  4.72365E+03
  3.45224E+03  1.31952E+04 -9.05973E+03  1.40384E+04 -1.69662E+04  4.81734E+03 -1.75869E+04 -5.56069E+03
 -1.03681E+04 -1.95424E+04  5.79534E+03 -2.26098E+04  1.96348E+04 -1.28056E+04  2.02823E+04  3.28847E+03
  1.21530E+04  1.66633E+04 -2.20033E+03  1.83681E+04 -1.46153E+04  1.00438E+04 -1.55577E+04 -1.60986E+03
 -1.22133E+04 -1.20774E+04 -2.59332E+03 -1.43377E+04  8.59973E+03 -1.09104E+04  1.03795E+04 -4.18292E+03
  5.12123E+03  3.81236E+03 -1.25791E+03  1.44906E+03 -1.55197E+03 -4.95853E+03  3.32459E+03 -9.84123E+03
  1.32380E+04 -6.66469E+03  2.07304E+04  2.33432E+03  2.05952E+04  1.44320E+04  1.27142E+04  2.60500E+04
 -5.83213E+03  2.97455E+04 -2.42596E+04  2.25236E+04 -3.23828E+04  4.80750E+03 -2.62662E+04 -1.20335E+04
 -1.30612E+04 -2.16843E+04  1.40410E+03 -1.88697E+04  6.84900E+03 -1.11309E+04  6.83848E+03 -6.29192E+03
  4.62530E+03 -4.15193E+03  4.65976E+03 -3.69428E+03  7.28329E+03 -3.97383E+03  9.93881E+03 -2.59339E+03
  1.25294E+04  4.04562E+03  7.56706E+03  1.10694E+04 -1.96446E+03  1.50920E+04 -1.45842E+04  1.15919E+04
 -1.89832E+04 -1.02898E+03 -1.20211E+04 -1.28887E+04 -2.19950E+03 -2.05562E+04  1.19221E+04 -1.99159E+04
  2.09573E+04 -1.08299E+04  2.50427E+04  3.73285E+03  1.71293E+04  1.86950E+04  2.81783E+03  2.31668E+04
 -9.41332E+03  1.78377E+04 -1.34581E+04  6.13185E+03 -9.32795E+03 -1.66472E+03 -3.07727E+03 -3.32712E+03
 -1.48082E+03  1.96146E+01 -2.41076E+03  3.76393E+03 -8.21549E+03  2.91508E+03 -1.23781E+04 -2.07632E+03
 -1.05373E+04 -1.20143E+04 -1.62344E+02 -1.92264E+04  1.17286E+04 -1.78966E+04  1.88944E+04 -5.06539E+03
  1.97246E+04  9.12632E+03  8.78981E+03  1.77984E+04 -3.83098E+03  1.81823E+04 -1.33913E+04  1.22765E+04
 -1.76530E+04  2.36489E+02 -1.38751E+04 -1.07824E+04 -7.99995E+02 -1.62423E+04  8.13712E+03 -1.26373E+04
  1.30201E+04 -3.32520E+03  8.26664E+03  4.75900E+03  2.42186E+03  5.54152E+03  2.15748E+03  2.40880E+03
  3.56542E+03  1.51914E+03  4.60226E+03  2.04786E+03  5.46105E+03  6.95093E+03  5.79745E+03  1.03780E+04
 -3.84785E+03  1.58121E+04 -1.31813E+04  1.46142E+04 -2.08455E+04  2.90768E+03 -2.07692E+04 -8.27713E+03
 -1.01058E+04 -2.10942E+04  2.03437E+03 -2.19785E+04  1.26439E+04 -1.42651E+04  1.68823E+04 -3.10004E+03
  1.28775E+04  6.78761E+03  2.64078E+03  1.19204E+04 -5.28279E+03  7.35354E+03 -9.01293E+03 -1.45475E+03
 -3.23363E+03 -9.01059E+03  4.61496E+03 -9.91594E+03  8.72624E+03 -4.17040E+03  7.51079E+03  9.18093E+02
  5.20425E+03  4.16641E+03  2.18050E+03  3.99199E+03 -1.33151E+03  2.95960E+03  1.59783E+03 -2.11962E+02
  3.63196E+03 -9.56554E+02  7.26768E+03  2.80299E+03  5.35577E+03  1.10191E+04 -2.06991E+03  1.50050E+04
 -1.04260E+04  9.78780E+03 -1.37015E+04  2.41579E+03 -1.23255E+04 -4.95243E+03 -5.20442E+03 -8.16803E+03
  2.39662E+03 -8.32353E+03  4.71876E+03 -3.56619E+03  4.28085E+03  2.65217E+03 -2.13895E+03  7.60993E+03
 -9.12277E+03  3.46930E+03 -1.02624E+04 -5.62700E+03 -5.59768E+03 -1.21358E+04  1.58162E+03 -1.20280E+04
  8.27973E+03 -7.07347E+03  8.16479E+03 -3.13056E+02  6.62631E+03  3.48400E+03  2.29783E+02  5.75181E+03
 -3.43390E+03  1.53175E+03 -5.28973E+03 -5.35268E+03  2.36842E+03 -8.77212E+03  9.77953E+03 -7.86154E+03
  1.42654E+04  6.77771E+02  1.31711E+04  9.13739E+03  4.31600E+03  1.60830E+04 -5.95088E+03  1.39037E+04
 -1.07968E+04  6.38676E+03 -1.20988E+04 -1.88525E+03 -6.63841E+03 -8.53849E+03  1.59659E+03 -9.73279E+03
  8.76585E+03 -4.56865E+03  8.07709E+03  3.96943E+03  2.83959E+03  6.96368E+03 -1.86628E+03  6.50739E+03
 -4.32132E+03  3.85090E+03 -3.43526E+03  9.47688E+02 -2.27531E+03  1.25415E+03 -2.30349E+03  3.56989E+03
 -3.27146E+03  6.24105E+03 -1.02704E+04  4.94819E+03 -1.42729E+04  7.37534E+02 -1.61057E+04 -9.65437E+03
 -7.92751E+03 -1.87360E+04  3.69027E+03 -2.08740E+04  1.43287E+04 -1.70698E+04  2.13494E+04 -5.28356E+03
  1.96080E+04  4.75056E+03  1.26880E+04  1.35642E+04  1.70907E+03  1.41767E+04 -6.37767E+03  1.19597E+04
 -8.21563E+03  4.56105E+03 -5.47881E+03 -1.80551E+03 -2.49331E+03 -1.73814E+03 -4.09875E+02  5.55047E+02
 -2.05369E+03  1.05564E+03 -2.90087E+03 -1.06786E+03 -1.41683E+03 -3.62524E+03  1.14458E+03 -5.61975E+03
  7.15684E+03 -5.58761E+03  1.04448E+04 -3.00455E+02  1.00583E+04  8.76473E+03  4.30714E+03  1.56795E+04
 -7.53993E+03  1.77172E+04 -1.66390E+04  1.01071E+04 -1.89657E+04 -1.16342E+03 -1.39971E+04 -1.21042E+04
 -6.29494E+03 -1.52824E+04  4.06495E+03 -1.48775E+04  9.05159E+03 -8.60650E+03  1.09008E+04  2.95607E+02
  5.94396E+03  4.86635E+03 -6.17113E+02  4.68664E+03 -2.92309E+03 -5.93573E+02 -1.39185E+02 -3.74401E+03
  4.21146E+03 -2.01024E+03  6.41924E+03  2.47073E+03  4.32127E+03  6.20553E+03  2.69967E+02  9.19461E+03
 -6.91262E+03  7.20209E+03 -1.11786E+04  4.94941E+02 -9.97688E+03 -8.04090E+03 -1.98062E+03 -1.35916E+04
  7.50554E+03 -1.09707E+04  1.19351E+04 -3.19962E+03  1.30657E+04  3.04953E+03  5.72973E+03  1.00433E+04
  1.26415E+03  1.08012E+04 -4.27035E+03  8.66016E+03 -7.99470E+03  4.75904E+03 -5.47258E+03 -1.24507E+02
 -3.34771E+03 -8.78374E+01 -2.85477E+03  8.77056E+02 -4.75165E+03  1.81092E+03 -8.26987E+03 -2.74435E+03
 -7.14330E+03 -5.46195E+03 -2.71466E+03 -1.01610E+04  4.25488E+03 -1.16038E+04  9.16064E+03 -5.09775E+03
  1.05265E+04  2.86671E+02  6.64557E+03  7.86639E+03 -7.82719E+02  1.13108E+04 -7.45806E+03  7.82573E+03
