 $NMID ID='MM_0lb_SNR400_10hz_g45_98.RAW', FMTDAT='(8E13.5)'
 TRAMP=1., VOLUME=1. $END
  3.10219E+05  7.36465E+01  3.37923E+05  2.50353E+05  8.47220E+04  3.38653E+05 -1.33493E+05  2.51876E+05
 -1.90374E+05  8.36320E+04 -1.11863E+05 -3.30448E+04  4.03195E+02 -5.09249E+04  5.36568E+04 -3.49943E+02
  3.57454E+04  5.30319E+04 -1.58372E+04  7.57889E+04 -6.06913E+04  6.31327E+04 -8.51838E+04  3.21158E+04
 -8.23620E+04 -1.12135E+04 -5.77524E+04 -5.16406E+04 -1.45145E+04 -7.04928E+04  2.80089E+04 -4.64420E+04
  4.03822E+04  3.65919E+03  1.66070E+04  4.89586E+04 -3.44115E+04  4.80761E+04 -6.74800E+04 -1.22382E+02
 -5.41813E+04 -5.75703E+04 -6.93841E+03 -7.85478E+04  3.47230E+04 -5.59395E+04  4.95392E+04 -1.79636E+04
  4.51010E+04  1.09030E+04  3.29742E+04  2.61326E+04  1.59567E+04  3.02903E+04 -5.83936E+03  2.74084E+04
 -2.25269E+04  1.27436E+04 -1.80103E+04 -6.09317E+03  6.33343E+03 -7.73052E+03  2.37688E+04  1.39250E+04
  6.80550E+03  3.63719E+04 -3.35125E+04  3.63404E+04 -6.42745E+04  1.76462E+03 -5.85560E+04 -4.39500E+04
 -1.27725E+04 -6.61997E+04  4.11455E+04 -4.68903E+04  6.00866E+04 -2.06039E+03  3.62350E+04  3.44994E+04
 -5.32254E+03  3.88651E+04 -3.11807E+04  1.74172E+04 -3.26864E+04 -4.16877E+03 -1.87190E+04 -1.16001E+04
 -8.56962E+03 -1.51320E+04 -4.97539E+02 -1.94577E+04  7.82153E+03 -2.38112E+04  1.58286E+04 -1.28702E+04
  1.06912E+04  5.73738E+03 -9.39009E+03  1.23209E+04 -2.26846E+04 -6.41426E+03 -8.45431E+03 -3.59892E+04
  2.41945E+04 -4.59096E+04  5.16076E+04 -2.00014E+04  4.78299E+04  2.02563E+04  1.64430E+04  4.55903E+04
 -1.65154E+04  3.53406E+04 -2.62260E+04  2.58222E+03 -1.06252E+04 -2.87220E+04  2.10381E+04 -3.62500E+04
  4.31962E+04 -1.04946E+04  3.79148E+04  2.45286E+04  1.98287E+04  4.96551E+04 -8.22808E+03  5.42534E+04
 -3.41782E+04  3.67837E+04 -4.56594E+04  1.02193E+04 -4.62022E+04 -1.79225E+04 -2.59541E+04 -4.07531E+04
  7.33302E+03 -4.05111E+04  3.28887E+04 -1.67197E+04  3.12671E+04  1.01246E+04  5.55701E+03  2.04518E+04
 -1.43181E+04  1.02299E+04 -1.12527E+04 -7.93289E+03  5.58958E+03 -1.13206E+04  1.80688E+04  5.79699E+03
  1.40034E+04  2.21655E+04 -5.63162E+03  2.72645E+04 -2.28581E+04  1.28109E+04 -3.03957E+04 -3.19593E+03
 -2.37824E+04 -1.78369E+04 -1.03384E+04 -2.33010E+04  4.62794E+03 -2.36810E+04  1.86144E+04 -2.14711E+04
  3.01787E+04 -1.35854E+04  3.64169E+04  4.29827E+03  2.62500E+04  2.22767E+04  4.22285E+03  4.06242E+04
 -1.90974E+04  3.18343E+04 -2.91701E+04  1.12631E+04 -2.17420E+04 -9.90970E+03 -5.55924E+03 -1.31475E+04
  1.14936E+03 -1.32539E+03 -7.27291E+03  7.27236E+03 -1.88231E+04  5.12030E+03 -1.89064E+04 -8.51980E+03
 -1.14097E+04 -2.19798E+04  5.72333E+03 -2.67519E+04  1.82480E+04 -1.87315E+04  2.15604E+04 -1.00806E+03
  1.36481E+04  1.50591E+04 -1.78896E+03  2.12959E+04 -1.57081E+04  1.23453E+04 -2.20474E+04 -4.95941E+03
 -1.61470E+04 -1.91977E+04 -1.50811E+03 -2.64200E+04  1.21532E+04 -2.18069E+04  2.14433E+04 -1.11025E+04
  1.97671E+04 -4.12386E+02  1.49081E+04  4.87695E+03  8.01917E+03  1.28302E+03  1.16841E+04 -1.50599E+03
  1.99628E+04  2.36887E+03  2.38803E+04  1.75303E+04  1.61096E+04  3.54323E+04 -2.58530E+03  4.15111E+04
 -2.39327E+04  3.45108E+04 -3.89133E+04  1.76290E+04 -4.13265E+04 -3.02297E+03 -3.35943E+04 -2.43567E+04
 -1.36306E+04 -3.43409E+04  1.21334E+04 -3.05105E+04  2.58550E+04 -1.51135E+04  2.17812E+04  7.05698E+03
  7.46621E+03  1.71431E+04 -1.08704E+04  1.42166E+04 -1.88290E+04  3.61051E+03 -1.44513E+04 -1.25946E+04
  1.01660E+02 -1.85485E+04  1.00452E+04 -1.32044E+04  1.21912E+04 -1.82755E+03  3.08024E+03  7.71859E+03
 -8.49879E+03  4.02407E+03 -8.24394E+03 -6.63877E+03 -1.30724E+03 -1.66678E+04  1.18974E+04 -1.82353E+04
  2.17855E+04 -1.00157E+04  2.40360E+04  3.21558E+03  2.01643E+04  1.67986E+04  9.43118E+03  2.61679E+04
 -4.65929E+03  2.78784E+04 -1.91284E+04  1.74345E+04 -2.07749E+04  4.97685E+03 -1.39445E+04 -5.24607E+03
 -6.55721E+03 -6.31506E+03 -1.45467E+03  4.52951E+02 -2.46085E+03  3.95416E+03 -6.51441E+03  4.74064E+03
 -1.32611E+04 -8.43720E+02 -1.34375E+04 -1.02594E+04 -6.06887E+03 -1.82339E+04  6.04538E+03 -1.43485E+04
  1.16406E+04 -5.71085E+03  8.18795E+03  3.79754E+03 -3.51815E+02  5.77713E+03 -7.34873E+03 -1.08740E+02
 -6.76034E+03 -9.20119E+03 -1.42950E+03 -1.38014E+04  8.36706E+03 -1.52044E+04  1.78235E+04 -7.94043E+03
  2.11695E+04  1.44054E+03  1.55019E+04  1.30826E+04  2.21521E+03  1.71336E+04 -9.04807E+03  1.40064E+04
 -1.14607E+04  4.18903E+03 -5.29319E+03 -3.41360E+03  2.49295E+03 -3.94604E+03  6.79287E+03 -7.35833E+02
  6.81962E+03  6.76206E+03  1.08869E+03  1.18268E+04 -8.04663E+03  1.08875E+04 -1.50371E+04  2.70283E+03
 -9.69076E+03 -7.68412E+03  6.26259E+01 -1.20962E+04  8.44790E+03 -6.03193E+03  9.14282E+03  3.01703E+03
  1.61623E+03  8.47184E+03 -7.23469E+03  9.84826E+03 -1.27572E+04  4.57601E+03 -1.24230E+04 -4.12642E+03
 -7.16454E+03 -1.40251E+04  3.85719E+03 -1.57455E+04  1.40031E+04 -9.99159E+03  1.52513E+04  2.59108E+03
  9.86773E+03  1.18018E+04 -1.54274E+03  1.44539E+04 -1.01681E+04  7.24710E+03 -1.18332E+04 -2.13232E+03
 -9.68365E+03 -9.01115E+03 -1.52853E+03 -1.10759E+04  5.08407E+03 -8.24828E+03  7.46718E+03 -3.66582E+03
  4.36536E+03  7.06300E+02 -5.42170E+02  1.46992E+03 -1.00847E+03 -2.66022E+03  2.17007E+03 -6.46258E+03
  1.02785E+04 -3.79110E+03  1.39425E+04  2.06556E+03  1.39965E+04  9.89534E+03  8.80428E+03  1.77271E+04
 -4.12165E+03  2.16115E+04 -1.79623E+04  1.56696E+04 -2.32264E+04  3.41788E+03 -1.84013E+04 -7.48093E+03
 -8.26278E+03 -1.52112E+04 -3.86853E+02 -1.31127E+04  4.99944E+03 -7.80020E+03  4.20011E+03 -4.87750E+03
  2.36848E+03 -2.45412E+03  3.18134E+03 -3.35503E+03  5.11630E+03 -3.38761E+03  7.04974E+03 -8.86919E+02
  1.01660E+04  2.16757E+03  6.11149E+03  8.54746E+03 -2.13912E+03  9.21622E+03 -1.03857E+04  7.37598E+03
 -1.31040E+04 -8.68816E+02 -8.29503E+03 -8.90954E+03 -1.81068E+03 -1.35103E+04  7.60243E+03 -1.36142E+04
  1.36763E+04 -7.59323E+03  1.75747E+04  2.19571E+03  1.20628E+04  1.22789E+04  2.60364E+03  1.51475E+04
 -6.12953E+03  1.30236E+04 -8.53558E+03  4.75103E+03 -6.61385E+03 -1.47307E+03 -2.28117E+03 -1.60383E+03
 -7.09454E+02  4.85558E+02 -1.77817E+03  2.48023E+03 -6.02009E+03  2.47003E+03 -8.60193E+03 -1.35829E+03
 -6.05170E+03 -8.67899E+03 -1.56897E+02 -1.19789E+04  7.65153E+03 -1.15386E+04  1.24632E+04 -3.90644E+03
  1.23608E+04  6.04124E+03  5.81595E+03  1.15203E+04 -2.11984E+03  1.36552E+04 -9.10833E+03  8.44801E+03
 -1.15444E+04  2.95421E+02 -9.08514E+03 -7.76329E+03 -1.32404E+03 -1.10668E+04  4.72262E+03 -7.75347E+03
  8.38286E+03 -2.81036E+03  5.69456E+03  1.82242E+03  1.63387E+03  4.17864E+03  1.91209E+03  1.51124E+03
  1.83982E+03  1.16377E+03  2.37471E+03  1.44126E+03  3.72212E+03  4.50344E+03  3.45013E+03  6.68836E+03
 -2.43201E+03  1.00881E+04 -9.81191E+03  1.07662E+04 -1.37947E+04  2.90629E+03 -1.37951E+04 -5.91747E+03
 -6.30845E+03 -1.31609E+04  2.12725E+03 -1.43016E+04  8.03355E+03 -9.15775E+03  1.07646E+04 -2.25643E+03
  8.41886E+03  5.32284E+03  1.28968E+03  7.01117E+03 -2.92093E+03  4.56203E+03 -4.94286E+03 -1.25696E+03
 -2.03389E+03 -5.17043E+03  3.11707E+03 -5.81557E+03  5.76168E+03 -2.18067E+03  6.28128E+03  1.05721E+03
  3.85332E+03  2.78866E+03  5.51837E+02  1.92942E+03 -4.30557E+02  2.24168E+03  1.82290E+03 -4.64217E+02
  1.73694E+03 -6.95530E+02  5.03848E+03  1.59020E+03  2.45787E+03  6.53272E+03 -1.25237E+03  9.37301E+03
 -6.70629E+03  5.86620E+03 -8.58802E+03  1.54031E+03 -7.71671E+03 -2.64563E+03 -3.38210E+03 -4.98440E+03
  6.61708E+02 -4.94653E+03  3.40809E+03 -2.58728E+03  3.29400E+03  2.87666E+03 -1.29895E+03  4.27402E+03
 -5.23095E+03  3.08554E+03 -6.14964E+03 -3.02157E+03 -3.21821E+03 -7.88906E+03  7.86427E+02 -7.07654E+03
  3.69531E+03 -3.97110E+03  4.80164E+03 -7.11642E+02  4.18984E+03  1.70061E+03  7.24784E+02  3.63897E+03
 -1.99688E+03 -6.61278E+01 -3.08651E+03 -2.45855E+03  1.40942E+03 -5.00230E+03  6.49633E+03 -4.34655E+03
  6.92402E+03  2.89322E+02  8.39435E+03  5.62932E+03  2.76202E+03  9.09829E+03 -3.27660E+03  7.38712E+03
 -6.31990E+03  3.60947E+03 -6.95847E+03 -1.82417E+03 -4.09488E+03 -6.24952E+03  1.97220E+03 -4.64194E+03
  4.67808E+03 -3.15633E+03  4.28445E+03  2.52705E+03  1.72018E+03  5.37251E+03  1.50301E+02  3.85479E+03
 -2.75124E+03  2.98757E+03 -2.12649E+03  6.44200E+02 -1.08078E+03  1.33411E+03 -1.27950E+03  1.28573E+03
 -1.98639E+03  3.33148E+03 -5.70242E+03  2.01480E+03 -7.50802E+03  1.98129E+02 -9.65711E+03 -4.98259E+03
 -4.70269E+03 -1.10048E+04  2.07497E+03 -1.22960E+04  7.48787E+03 -1.00287E+04  1.17821E+04 -3.42909E+03
  1.05489E+04  2.31192E+03  7.25616E+03  7.07103E+03  4.25055E+00  8.64917E+03 -3.03803E+03  6.34106E+03
 -5.19654E+03  2.51271E+03 -2.36654E+03 -1.72552E+03 -1.26034E+03 -1.50543E+03 -8.07628E+02  1.41315E+00
 -2.00318E+03 -1.51986E+02 -2.31980E+03 -4.40758E+02 -6.39571E+01 -2.43906E+03  1.25520E+02 -2.63100E+03
  3.66090E+03 -2.34787E+03  4.54403E+03  3.52220E+02  5.46634E+03  4.06602E+03  1.83885E+03  9.12657E+03
 -3.87762E+03  9.96601E+03 -8.93016E+03  5.52696E+03 -1.01544E+04 -1.07089E+03 -7.54673E+03 -7.41720E+03
 -2.94819E+03 -8.97472E+03  1.78524E+03 -7.07960E+03  5.06545E+03 -5.19447E+03  5.61266E+03 -7.08974E+01
  2.95933E+03  2.60128E+03 -9.61819E+01  3.24869E+03 -1.38590E+03 -1.93469E+02 -2.11135E+02 -2.52081E+03
  3.13889E+03 -6.82466E+02  2.76499E+03  1.39758E+03  2.55057E+03  3.95864E+03  8.52305E+02  4.21413E+03
 -3.18650E+03  4.10487E+03 -4.99425E+03  6.75238E+01 -5.24396E+03 -2.85411E+03 -9.83371E+02 -6.86000E+03
  3.88064E+03 -6.22613E+03  6.10597E+03 -1.68126E+03  5.88085E+03  1.90690E+03  3.30884E+03  5.41849E+03
  1.26957E+03  5.77918E+03 -2.01913E+03  4.16281E+03 -3.51907E+03  2.27520E+03 -2.94094E+03 -9.85353E+01
 -1.99804E+03  1.45491E+02 -1.60765E+03  3.85828E+02 -2.53736E+03  8.84907E+02 -4.46069E+03 -4.41667E+02
 -4.28067E+03 -2.52295E+03 -1.28746E+03 -5.43861E+03  2.98389E+03 -6.52044E+03  5.52952E+03 -2.42970E+03
  5.24273E+03  5.68532E+02  3.51021E+03  4.10571E+03 -4.30191E+02  5.74922E+03 -4.25673E+03  4.01052E+03
