 $NMID ID='MM_0lb_SNR400_18hz_g60_14.RAW', FMTDAT='(8E13.5)'
 TRAMP=1., VOLUME=1. $END
  3.09868E+05  4.87389E+02  3.37589E+05  2.50874E+05  8.45466E+04  3.38243E+05 -1.32781E+05  2.50961E+05
 -1.90778E+05  8.27016E+04 -1.11063E+05 -3.27925E+04  7.38866E+02 -5.10787E+04  5.41560E+04 -4.60792E+02
  3.52963E+04  5.30705E+04 -1.67287E+04  7.53654E+04 -6.05373E+04  6.29070E+04 -8.38681E+04  3.16199E+04
 -8.09591E+04 -1.13784E+04 -5.73855E+04 -5.08811E+04 -1.47697E+04 -6.89253E+04  2.72197E+04 -4.58789E+04
  3.98489E+04  3.64722E+03  1.66293E+04  4.75958E+04 -3.43063E+04  4.70407E+04 -6.64888E+04 -1.99801E+02
 -5.33991E+04 -5.64414E+04 -6.74193E+03 -7.64233E+04  3.37496E+04 -5.49999E+04  4.70830E+04 -1.66689E+04
  4.27631E+04  1.15351E+04  3.15980E+04  2.49317E+04  1.55418E+04  2.94003E+04 -5.53391E+03  2.70879E+04
 -2.21093E+04  1.30180E+04 -1.81811E+04 -4.69024E+03  5.28321E+03 -7.98840E+03  2.20470E+04  1.18661E+04
  7.22742E+03  3.48828E+04 -3.12897E+04  3.50915E+04 -6.26879E+04  1.95344E+03 -5.66476E+04 -4.21782E+04
 -1.22959E+04 -6.22592E+04  3.87764E+04 -4.49615E+04  5.76963E+04 -2.18961E+03  3.34211E+04  3.16263E+04
 -6.48197E+03  3.54116E+04 -2.94655E+04  1.53552E+04 -2.94903E+04 -5.32825E+03 -1.56040E+04 -1.07270E+04
 -7.41948E+03 -1.28052E+04 -1.71591E+02 -1.72286E+04  7.62468E+03 -2.27792E+04  1.52262E+04 -1.34143E+04
  1.11761E+04  5.26346E+03 -7.16055E+03  1.34668E+04 -2.04172E+04 -3.27764E+03 -8.54647E+03 -3.27959E+04
  2.28223E+04 -4.21206E+04  4.67879E+04 -1.94331E+04  4.37987E+04  1.94174E+04  1.51199E+04  4.35662E+04
 -1.56006E+04  3.25575E+04 -2.43086E+04  1.09051E+03 -9.09549E+03 -2.72578E+04  2.07110E+04 -3.27638E+04
  4.01883E+04 -8.57580E+03  3.36606E+04  2.30161E+04  1.64328E+04  4.48801E+04 -8.34735E+03  4.81108E+04
 -3.02174E+04  3.23304E+04 -4.04798E+04  9.07222E+03 -4.08727E+04 -1.58255E+04 -2.24248E+04 -3.60844E+04
  7.40402E+03 -3.64643E+04  3.03110E+04 -1.38305E+04  2.80897E+04  1.10396E+04  3.91769E+03  1.87744E+04
 -1.29436E+04  7.86012E+03 -9.68667E+03 -7.89197E+03  5.70657E+03 -1.02758E+04  1.78664E+04  5.91427E+03
  1.30135E+04  2.18093E+04 -6.29789E+03  2.40676E+04 -2.20456E+04  1.05894E+04 -2.66222E+04 -5.53190E+03
 -1.86199E+04 -1.67692E+04 -6.49495E+03 -1.85342E+04  3.58672E+03 -1.76417E+04  1.47035E+04 -1.64648E+04
  2.40406E+04 -1.19222E+04  3.06711E+04  1.91633E+03  2.25640E+04  1.82401E+04  3.98371E+03  3.49040E+04
 -1.72708E+04  2.86461E+04 -2.71513E+04  1.02714E+04 -2.03099E+04 -1.06859E+04 -4.19364E+03 -1.34502E+04
  1.94330E+03 -3.16080E+03 -3.91423E+03  5.85533E+03 -1.44038E+04  5.19059E+03 -1.51053E+04 -5.64721E+03
 -9.12640E+03 -1.74418E+04  4.87321E+03 -2.06132E+04  1.39050E+04 -1.53458E+04  1.63023E+04 -1.97234E+03
  1.00431E+04  1.22709E+04 -1.10822E+03  1.72991E+04 -1.15575E+04  9.48345E+03 -1.72152E+04 -4.12294E+03
 -1.24113E+04 -1.61597E+04 -1.71280E+03 -2.07909E+04  9.79820E+03 -1.66923E+04  1.72820E+04 -8.14626E+03
  1.67291E+04  8.45814E+02  1.14154E+04  4.18758E+03  5.74248E+03  3.60703E+02  8.39899E+03 -1.32783E+03
  1.56897E+04  2.42180E+03  1.66889E+04  1.45803E+04  1.03299E+04  2.73270E+04 -3.10153E+03  3.00237E+04
 -1.73366E+04  2.38395E+04 -2.80217E+04  1.19745E+04 -2.87053E+04 -2.23508E+03 -2.36984E+04 -1.60389E+04
 -1.04426E+04 -2.33797E+04  8.51070E+03 -2.13471E+04  1.83767E+04 -1.16698E+04  1.67670E+04  4.35992E+03
  6.77604E+03  1.20994E+04 -7.62992E+03  1.10323E+04 -1.46647E+04  2.81646E+03 -1.18939E+04 -9.13111E+03
 -1.72953E+02 -1.32045E+04  7.13897E+03 -9.93628E+03  9.10600E+03 -1.40281E+03  2.00598E+03  5.75856E+03
 -5.81202E+03  2.12877E+03 -4.24582E+03 -4.86016E+03  4.14699E+02 -1.14649E+04  8.57482E+03 -1.12999E+04
  1.40719E+04 -5.71508E+03  1.43113E+04  2.90901E+03  1.22961E+04  1.08575E+04  5.87646E+03  1.65621E+04
 -2.04701E+03  1.81464E+04 -1.18504E+04  1.20752E+04 -1.22583E+04  3.35742E+03 -9.49248E+03 -2.83334E+03
 -4.40418E+03 -3.90540E+03 -1.10095E+02  1.21836E+03 -1.78066E+03  3.01836E+03 -4.28801E+03  4.17444E+03
 -8.98625E+03 -5.32374E+02 -9.84916E+03 -7.75277E+03 -3.97060E+03 -1.27413E+04  3.82995E+03 -9.36082E+03
  8.06230E+03 -4.26886E+03  5.44972E+03  2.01546E+03  7.03792E+02  3.84516E+03 -4.10526E+03  3.48095E+02
 -4.36060E+03 -5.24229E+03 -1.02535E+03 -8.30430E+03  4.68392E+03 -9.35323E+03  1.14591E+04 -4.64430E+03
  1.37723E+04  1.20231E+03  1.01776E+04  7.49965E+03  1.65161E+03  9.66495E+03 -6.11649E+03  9.33781E+03
 -7.83975E+03  3.19519E+03 -3.54930E+03 -1.24374E+03  1.52444E+03 -2.35897E+03  5.57239E+03 -8.15251E+02
  4.71454E+03  3.97225E+03  1.24964E+03  6.79962E+03 -5.38747E+03  6.50211E+03 -8.41199E+03  2.19666E+03
 -5.90609E+03 -4.06478E+03  1.89633E+02 -7.66926E+03  4.15239E+03 -3.59447E+03  4.34697E+03  9.17157E+02
  2.79326E+02  3.78661E+03 -4.33865E+03  6.08049E+03 -5.74076E+03  3.18861E+03 -5.68170E+03 -1.24489E+03
 -3.67852E+03 -7.45727E+03  1.77853E+03 -8.19991E+03  6.70583E+03 -5.34852E+03  7.29852E+03  1.24540E+03
  5.09946E+03  5.62321E+03 -2.75892E+02  7.74537E+03 -6.14281E+03  4.36070E+03 -5.74205E+03 -8.49072E+02
 -6.20866E+03 -5.96025E+03 -8.81964E+02 -6.19909E+03  3.15343E+03 -5.03136E+03  3.23501E+03 -2.64367E+03
  2.76594E+03  7.40828E+02  1.99528E+02  1.00175E+03  7.59274E+02 -4.08911E+02  7.49636E+02 -2.35735E+03
  3.97691E+03 -1.36088E+03  5.87218E+03  1.23073E+03  6.82014E+03  3.79373E+03  5.11120E+03  8.04267E+03
 -9.97077E+02  9.32031E+03 -9.08878E+03  7.28800E+03 -1.12424E+04  1.57646E+03 -9.06573E+03 -3.10582E+03
 -4.60326E+03 -7.55773E+03 -4.70625E+02 -6.04562E+03  2.17425E+03 -2.50927E+03  1.56013E+03 -2.53494E+03
  1.11981E+03 -1.36328E+03  2.02462E+03 -2.46320E+03  4.41668E+03 -1.02192E+03  4.18917E+03  3.44727E+02
  5.20702E+03  1.63594E+03  1.39599E+03  3.56400E+03 -1.78025E+03  3.48562E+03 -4.82344E+03  3.02704E+03
 -6.11534E+03 -1.39526E+03 -2.30473E+03 -3.72384E+03 -3.50243E+02 -5.32207E+03  3.87922E+03 -5.89035E+03
  5.83907E+03 -3.86682E+03  7.76318E+03  5.27884E+02  5.31846E+03  4.47912E+03  1.01385E+03  7.16521E+03
 -2.48845E+03  5.86670E+03 -3.65390E+03  2.16192E+03 -2.66151E+03 -6.74855E+02 -7.99590E+02 -1.17590E+03
 -4.76621E+02  3.73116E+02 -9.14435E+02  2.65647E+03 -2.19800E+03  8.54465E+02 -5.09121E+03 -6.12283E+02
 -2.42756E+03 -3.97739E+03  4.72456E+02 -5.35407E+03  3.68788E+03 -4.85909E+03  4.63375E+03 -1.25772E+03
  4.68452E+03  2.76916E+03  1.86359E+03  3.84994E+03 -6.92992E+02  4.85016E+03 -3.16976E+03  3.20751E+03
 -4.55407E+03  3.75687E+02 -3.53170E+03 -2.50844E+03 -5.03433E+02 -3.60308E+03  2.15679E+03 -3.04372E+03
  3.15438E+03 -1.29059E+03  1.80169E+03  7.59193E+02  9.79598E+02  1.89664E+03  1.29503E+03  1.67248E+02
  1.38760E+03  1.23004E+03  1.37473E+03  9.93632E+02  1.51873E+03  2.45477E+03  1.73225E+03  1.74283E+03
 -1.06785E+03  2.85059E+03 -3.38941E+03  4.47632E+03 -4.21173E+03  5.16511E+02 -4.62248E+03 -1.08882E+03
 -2.18364E+03 -4.47042E+03  4.56988E+02 -5.41558E+03  1.67750E+03 -3.26126E+03  3.73555E+03 -5.77518E+02
  2.42468E+03  1.74567E+03  5.95598E+02  2.58624E+03 -5.14245E+02  1.24657E+03 -6.52305E+02  1.75905E+02
 -9.65786E+02 -1.50901E+03  1.44380E+03 -1.57508E+03  9.16626E+02 -5.12877E+02  1.52359E+03  5.81358E+02
  6.73451E+02  5.00396E+02  2.90911E+02 -2.44872E+02 -9.28233E+02  4.70952E+02  1.06880E+03 -5.36867E+02
 -7.14743E+01 -2.23705E+01  1.81076E+03  8.69204E+02  5.08354E+01  2.23680E+03 -8.91344E+02  3.12068E+03
 -2.57705E+03  1.60297E+03 -2.44781E+03  7.65829E+02 -2.18695E+03 -8.73258E+02 -5.57900E+02 -8.21339E+02
  8.15832E+02 -9.89779E+02  1.27504E+03 -8.03755E+02  1.19026E+03  1.53092E+03 -4.45285E+02  1.21360E+03
 -2.54955E+03  8.33539E+02 -1.69266E+03 -1.29312E+03 -5.82865E+02 -1.96684E+03  4.25695E+01 -1.82306E+03
  8.33230E+02 -6.56072E+02  7.72720E+02  4.48798E+02  1.37483E+03 -3.58478E+02 -1.09440E+02  7.84714E+02
 -6.58498E+02 -5.62292E+01 -3.94827E+02 -3.86906E+02  8.10707E+02 -6.37595E+02  2.19781E+03 -1.19839E+03
  1.68904E+03  5.33265E+02  3.23826E+03  5.79990E+02  1.19032E+03  2.13097E+03 -4.09125E+02  1.87373E+03
 -1.68492E+03  1.12707E+03 -1.91073E+03 -2.64963E+02 -7.87148E+02 -1.70840E+03  7.07072E+02 -9.09795E+02
  1.71258E+03 -3.10545E+02  6.41427E+02  8.81320E+02  5.94350E+02  1.90033E+03  1.37493E+02  9.74255E+02
 -5.68586E+02  1.39753E+03 -8.03903E+02 -6.62551E+00  2.10682E+02  1.60710E+02 -1.21284E+03 -2.81970E+02
 -3.11976E+02  1.55540E+03 -1.67546E+03  4.07920E+02 -2.39004E+03  2.69275E+02 -2.56390E+03 -9.34332E+02
 -9.95644E+02 -2.56699E+03  5.41541E+02 -3.85709E+03  8.53471E+02 -2.30237E+03  2.82321E+03 -1.34757E+03
  2.51581E+03 -4.15302E+02  1.17284E+03  1.71311E+03 -2.90987E+02  1.55171E+03 -4.75329E+02  1.17984E+03
 -8.78444E+02  8.30757E+02 -6.44619E+02 -3.69871E+02 -5.06121E+02  7.28516E+02 -7.99280E+02 -2.87488E+02
 -1.16962E+03  1.79035E+02 -7.33759E+02  3.54123E+00 -4.62986E+00 -6.53363E+02 -4.28618E+02 -8.00924E+02
  1.13602E+03 -7.94060E+02  7.93857E+02  7.97580E+02  1.19644E+03  1.39430E+03 -2.50601E+02  1.82776E+03
 -7.02443E+02  2.32377E+03 -1.78021E+03  1.40376E+03 -1.28569E+03 -3.79932E+02 -1.73169E+03 -1.05674E+03
 -6.18446E+02 -1.48183E+03  2.06707E+02 -1.76193E+03  8.71248E+02 -5.91695E+02  6.41218E+02  4.30890E+02
  4.42847E+02  2.93127E+02  5.60023E+01  3.80693E+02 -4.54479E+02 -4.11406E+02  1.40500E+02 -5.24843E+01
  5.15048E+02  3.70344E+02 -6.51846E+01  4.39846E+02  3.39777E+01  1.12273E+03  5.70562E+02  1.51775E+02
 -9.36361E+02  2.02305E+02 -3.74771E+02 -6.71888E+01 -3.54876E+02 -7.83826E+02  5.23170E+02 -1.07783E+03
  3.43460E+02 -7.99256E+02  7.34904E+02  7.21261E+01  4.59863E+02 -1.28418E+02  7.07146E+02  6.02375E+02
  3.71420E+02  7.09999E+02 -1.17200E+02  7.79906E+02 -7.18270E+01  5.49977E+02 -3.22158E+02 -5.61179E+02
  2.40035E+01  2.11763E+02 -3.37168E+01 -2.87145E+01 -6.75534E+02  2.62315E+02 -1.05699E+03 -1.61138E+02
 -1.14462E+03 -3.92461E+02 -3.99978E+02 -7.31659E+02  4.81179E+02 -1.09544E+03  8.57625E+02 -4.76011E+02
  6.23666E+02  3.71969E+02  1.54848E+02  2.34358E+02 -6.80413E+02  8.28752E+02 -4.98747E+02 -1.32024E+02
