 $NMID ID='MM_0lb_SNR400_20hz_g55_56.RAW', FMTDAT='(8E13.5)'
 TRAMP=1., VOLUME=1. $END
  3.09802E+05  3.49341E+01  3.38131E+05  2.50333E+05  8.44722E+04  3.37910E+05 -1.32629E+05  2.50343E+05
 -1.89824E+05  8.25039E+04 -1.11070E+05 -3.27797E+04  1.37130E+03 -5.02078E+04  5.43546E+04  1.10005E+02
  3.47633E+04  5.27567E+04 -1.72668E+04  7.50376E+04 -6.00841E+04  6.30677E+04 -8.29017E+04  3.13658E+04
 -7.98703E+04 -1.15254E+04 -5.63723E+04 -5.03890E+04 -1.50637E+04 -6.88134E+04  2.69709E+04 -4.46261E+04
  3.86758E+04  4.03195E+03  1.63503E+04  4.72075E+04 -3.39568E+04  4.58054E+04 -6.54689E+04 -1.53090E+02
 -5.19756E+04 -5.65270E+04 -6.22200E+03 -7.52986E+04  3.31326E+04 -5.31517E+04  4.64536E+04 -1.68178E+04
  4.14552E+04  1.13906E+04  3.12089E+04  2.45314E+04  1.56864E+04  2.84575E+04 -4.81425E+03  2.67676E+04
 -2.18038E+04  1.31876E+04 -1.89886E+04 -4.69229E+03  4.57962E+03 -7.41522E+03  2.16686E+04  1.12688E+04
  7.60132E+03  3.34085E+04 -3.08748E+04  3.43349E+04 -6.16413E+04  2.04846E+03 -5.56474E+04 -4.12307E+04
 -1.19882E+04 -6.16264E+04  3.77730E+04 -4.29771E+04  5.53656E+04 -1.90776E+03  3.24693E+04  3.03321E+04
 -6.41279E+03  3.32233E+04 -2.85162E+04  1.38831E+04 -2.77994E+04 -5.00184E+03 -1.43063E+04 -1.01427E+04
 -7.32768E+03 -1.10150E+04 -1.06981E+03 -1.61874E+04  6.80301E+03 -2.26416E+04  1.47821E+04 -1.39880E+04
  1.20533E+04  4.82971E+03 -6.39491E+03  1.35191E+04 -1.98127E+04 -2.45336E+03 -8.22644E+03 -3.04967E+04
  2.09494E+04 -4.08098E+04  4.49518E+04 -1.86726E+04  4.21599E+04  1.82433E+04  1.44351E+04  4.15404E+04
 -1.55313E+04  3.14499E+04 -2.33418E+04  1.22977E+03 -8.18760E+03 -2.68648E+04  2.07134E+04 -3.14610E+04
  3.83094E+04 -7.34844E+03  3.16562E+04  2.28176E+04  1.52623E+04  4.25002E+04 -7.61974E+03  4.50809E+04
 -2.85401E+04  3.03788E+04 -3.72298E+04  8.67528E+03 -3.79129E+04 -1.58837E+04 -2.12951E+04 -3.38143E+04
  6.88674E+03 -3.35837E+04  2.88785E+04 -1.23638E+04  2.70947E+04  1.09791E+04  2.88793E+03  1.78651E+04
 -1.33200E+04  7.59890E+03 -9.38842E+03 -7.52578E+03  5.43159E+03 -1.02018E+04  1.71990E+04  6.22941E+03
  1.23886E+04  2.14125E+04 -6.69028E+03  2.34682E+04 -2.13342E+04  8.93301E+03 -2.46403E+04 -6.22152E+03
 -1.64501E+04 -1.63201E+04 -5.48757E+03 -1.65735E+04  3.84865E+03 -1.45572E+04  1.25378E+04 -1.42056E+04
  2.12541E+04 -1.17682E+04  2.78312E+04  9.87389E+02  2.17417E+04  1.61935E+04  4.01005E+03  3.24624E+04
 -1.56221E+04  2.74034E+04 -2.54602E+04  8.81948E+03 -1.94387E+04 -1.03371E+04 -4.15895E+03 -1.39259E+04
  2.52406E+03 -3.64434E+03 -2.41266E+03  5.64436E+03 -1.25892E+04  5.31087E+03 -1.38044E+04 -4.42242E+03
 -8.41875E+03 -1.45561E+04  4.54076E+03 -1.87396E+04  1.23417E+04 -1.38437E+04  1.42032E+04 -1.76949E+03
  8.75315E+03  1.07602E+04 -1.21227E+03  1.51679E+04 -1.03058E+04  8.58594E+03 -1.52807E+04 -3.37438E+03
 -1.10837E+04 -1.36407E+04 -9.32833E+02 -1.87368E+04  8.23842E+03 -1.48681E+04  1.59808E+04 -7.07487E+03
  1.48383E+04  9.64110E+02  1.05961E+04  3.20109E+03  5.54221E+03  6.31273E+02  7.71443E+03 -1.55114E+03
  1.29307E+04  3.08776E+03  1.42979E+04  1.20632E+04  8.90962E+03  2.45295E+04 -2.73781E+03  2.55945E+04
 -1.52745E+04  1.94346E+04 -2.42989E+04  8.58323E+03 -2.43082E+04 -7.32165E+02 -2.10260E+04 -1.38104E+04
 -1.03137E+04 -1.98937E+04  6.84342E+03 -1.86104E+04  1.60855E+04 -1.07995E+04  1.49905E+04  3.08977E+03
  6.11031E+03  1.02447E+04 -7.01204E+03  9.95216E+03 -1.32667E+04  1.90985E+03 -9.72931E+03 -7.41331E+03
  2.78604E+02 -1.20202E+04  6.01330E+03 -9.38499E+03  7.94127E+03 -1.23641E+03  1.13178E+03  4.63864E+03
 -5.57335E+03  1.62469E+03 -3.30454E+03 -4.38836E+03  1.01378E+03 -9.93651E+03  7.67286E+03 -1.00788E+04
  1.19512E+04 -4.52908E+03  1.15990E+04  3.05618E+03  9.31504E+03  9.29666E+03  4.60092E+03  1.28025E+04
 -1.47730E+03  1.51583E+04 -9.21325E+03  9.66547E+03 -1.06659E+04  2.86369E+03 -8.13509E+03 -1.33293E+03
 -4.38735E+03 -3.37350E+03 -1.11189E+03  1.72272E+03 -2.43981E+03  2.32168E+03 -3.79153E+03  3.46569E+03
 -7.54123E+03 -1.63456E+02 -8.09716E+03 -6.30314E+03 -3.28495E+03 -1.05993E+04  3.20303E+03 -8.12994E+03
  7.08496E+03 -3.53307E+03  5.09048E+03  1.70986E+03  8.30725E+02  2.93595E+03 -2.95165E+03  1.35930E+02
 -2.83753E+03 -4.67658E+03 -5.19441E+02 -6.59623E+03  3.55045E+03 -7.41595E+03  9.51311E+03 -3.71459E+03
  1.08427E+04  5.37234E+02  8.41058E+03  5.63973E+03  1.82208E+03  8.30608E+03 -4.68017E+03  7.48769E+03
 -6.86917E+03  2.86587E+03 -3.05016E+03 -1.18809E+03  8.65430E+02 -2.00058E+03  4.52246E+03 -5.28088E+02
  3.99256E+03  3.27279E+03  9.29022E+02  5.79017E+03 -4.68786E+03  6.38658E+03 -7.86347E+03  1.76011E+03
 -4.74314E+03 -3.55103E+03 -2.77214E+02 -6.40054E+03  3.80908E+03 -2.65686E+03  2.91957E+03  8.06764E+02
  3.74069E+02  2.96712E+03 -3.91489E+03  4.28457E+03 -4.02554E+03  2.17738E+03 -4.25133E+03 -4.39798E+02
 -2.38150E+03 -5.35530E+03  9.85484E+02 -6.21579E+03  5.60147E+03 -4.25167E+03  5.90293E+03  8.25315E+02
  4.45724E+03  4.81117E+03  7.76727E+01  7.28481E+03 -4.20050E+03  4.11235E+03 -4.51481E+03 -2.15506E+02
 -5.45244E+03 -4.69955E+03 -1.48620E+03 -5.02433E+03  2.39953E+03 -4.97312E+03  2.66532E+03 -2.65181E+03
  2.94771E+03  2.90134E+02 -1.11879E+02  1.41570E+03  5.74284E+02 -5.23425E+01 -1.59259E+02 -1.27349E+03
  3.07920E+03 -4.66263E+02  4.41551E+03  9.07149E+01  4.83171E+03  2.25450E+03  4.70405E+03  6.42855E+03
 -6.28966E+02  7.53874E+03 -6.57197E+03  5.95410E+03 -8.47259E+03  8.43420E+02 -6.96121E+03 -1.99103E+03
 -4.02282E+03 -5.07813E+03 -5.44955E+02 -4.81111E+03  1.72519E+03 -1.76041E+03  1.72684E+03 -2.57311E+03
  1.41096E+03 -1.17764E+03  1.59153E+03 -2.64811E+03  4.13294E+03 -1.55598E+03  3.29546E+03  7.12651E+02
  3.81936E+03  8.97325E+02  1.17591E+03  2.42932E+03 -1.10310E+03  1.94579E+03 -3.89247E+03  2.22668E+03
 -4.17545E+03 -1.11192E+03 -1.22139E+03 -2.52482E+03  5.38409E+02 -4.26141E+03  2.63078E+03 -4.27684E+03
  4.33425E+03 -2.89372E+03  5.90972E+03  5.56001E+02  4.60698E+03  3.11322E+03  1.22706E+03  5.22884E+03
 -2.04203E+03  5.42257E+03 -3.05617E+03  1.64405E+03 -1.54690E+03 -9.98469E+02  1.06232E+02 -6.61050E+02
  3.19242E+02  4.57748E+02 -1.17397E+03  1.46621E+03 -2.23716E+03  4.43042E+02 -3.73449E+03 -4.07402E+02
 -1.47502E+03 -3.63213E+03  8.97734E+02 -4.19458E+03  2.66725E+03 -4.09859E+03  2.64409E+03 -1.14618E+03
  3.48623E+03  1.82609E+03  1.43378E+03  2.69641E+03 -3.72170E+02  3.36027E+03 -2.75756E+03  2.14285E+03
 -2.74186E+03  5.22120E+02 -2.56506E+03 -2.04653E+03 -2.72795E+01 -2.45936E+03  1.57539E+03 -2.43553E+03
  2.43781E+03 -1.18090E+03  1.00198E+03  4.21904E+02  1.89898E+02  1.63321E+03  8.27900E+02  9.89850E+01
  2.01977E+03  6.46604E+02  1.19574E+03  1.04379E+03  1.00003E+03  1.76965E+03  9.12244E+02  1.25076E+03
 -8.87878E+02  1.75899E+03 -2.36571E+03  3.35483E+03 -2.32691E+03  7.58404E+02 -3.46254E+03  3.01627E+02
 -1.71678E+03 -3.25146E+03 -2.12816E+02 -4.10046E+03  1.34764E+03 -1.63223E+03  2.26873E+03 -1.05715E+03
  1.96793E+03  1.40127E+03  2.08998E+02  2.10967E+03 -3.93976E+02  1.10359E+03 -8.92112E+02 -4.08279E+02
 -9.99193E+02 -9.26420E+02  9.66322E+02 -1.12168E+03  8.64973E+02 -5.70592E+02  9.21211E+02  2.31451E+02
  4.57546E+02 -1.49872E+02  7.17293E+02 -1.99785E+02  1.14913E+02  1.12844E+03  1.87266E+03 -2.30341E+02
  4.95553E+02 -4.65573E+02  1.67238E+03  5.98043E+02 -2.04314E+02  1.46721E+03 -2.25905E+02  2.39908E+03
 -1.28084E+03  5.90043E+02 -1.17105E+03  3.27844E+02 -1.90941E+03 -5.47797E+02  1.88628E+02 -9.07548E+02
  6.17435E+02 -9.63594E+02  4.90242E+02 -5.01261E+02  5.80479E+02  1.36002E+03 -8.38450E+02  4.12642E+02
 -1.32247E+03  9.16087E+02 -7.04826E+02 -1.21970E+03 -2.51276E+02 -1.90379E+03 -1.22778E+02 -8.63644E+02
  3.19074E+02 -6.27221E+02  1.08275E+03  3.39460E+02  4.32754E+02 -6.62775E+02  3.70534E+02  7.26140E+02
 -2.59484E+02 -2.50135E+01 -5.45952E+02 -1.05451E+02  7.13906E+02 -9.04856E+02  1.46053E+03  1.31901E+02
  6.57968E+02  4.41325E+02  2.22655E+03 -5.71010E+00  1.07841E+03  1.19868E+03  3.44519E+02  1.20048E+03
 -1.27419E+03 -6.00466E+01 -1.07552E+03 -8.38921E+01 -5.89924E+02 -1.48025E+03  7.17922E+02 -6.23950E+02
  1.64637E+03 -9.04495E+02  8.53092E+02  9.55713E+02  2.68164E+02  7.23618E+02  7.31044E+02  7.92400E+02
 -2.01891E+02  1.11996E+03 -5.46657E+02  5.04027E+02  4.63932E+02 -2.10802E+02  4.07596E+01  7.41605E+02
 -4.41658E+02  8.46406E+02 -1.73961E+03  6.35115E+02 -8.39471E+02 -3.81347E+02 -1.96741E+03 -6.23745E+02
 -6.96878E+02 -1.71894E+03  5.05550E+02 -1.70800E+03  1.23958E+02 -2.34500E+03  2.29212E+03 -8.41468E+02
  1.66019E+03 -3.67309E+02  7.39381E+02  1.23977E+03 -1.43550E+03  6.80837E+02 -6.09714E+02  5.93413E+02
 -3.40635E+02  9.31302E+01 -5.41937E+02 -2.33993E+02 -7.05888E+02  6.14826E+02 -1.04488E+03 -5.01369E+02
 -6.03306E+02 -3.85605E+02 -1.21376E+03  2.38760E+02  7.71620E+02 -1.97443E+02 -8.71313E+02 -7.67672E+02
  8.17794E+02 -5.45952E+02  5.54427E+02 -2.98011E+02  9.38955E+02  7.45988E+02 -1.16975E+03  1.04820E+03
 -8.84838E+02  1.49553E+03 -3.91706E+02  1.05044E+03 -9.65971E+02 -3.26995E+02 -1.01477E+03 -3.75939E+02
 -5.08192E+02 -6.31229E+02  4.58397E+02 -6.18060E+02 -9.79430E+01 -2.28671E+02 -5.21626E+02  2.31889E+01
 -1.30359E+02  2.40646E+02  2.19482E+02  5.68536E+02 -8.92990E+01  3.17182E+02 -5.27368E+01 -2.23782E+02
 -5.49795E+01  3.34133E+02 -5.28283E+02  7.68472E+02 -4.70730E+02  5.42554E+02  3.96967E+02  2.11720E+02
 -6.73385E+02  4.29754E+02 -1.56951E+02 -1.62807E+02 -4.48455E+02 -4.14370E+02  9.89218E+01 -6.13680E+02
  4.25537E+02 -4.02191E+02  3.47201E+02  2.84890E+02  6.50729E+02 -3.61253E+02  4.09516E+02  3.87223E+02
  4.29277E+02  3.66353E+02  2.32414E+02  1.23038E+02 -7.28466E+02  7.12133E+02 -6.30156E+01  6.07085E+02
  2.08104E+02  1.22312E+02 -2.23615E+02  1.77039E+02  1.82777E+02  3.76552E+02 -8.82823E+02 -2.25993E+02
 -1.17471E+03  4.14834E+02 -3.94896E+02 -9.67081E+02  5.76726E+02 -1.10730E+03  3.47261E+02 -4.23106E+02
  5.63954E+02  3.57697E+02 -4.50417E+02  9.76315E+01 -3.66931E+02  2.96942E+02  4.19777E+02  5.23756E+02
