 $NMID ID='MM_0lb_SNR400_16hz_g45_4.RAW', FMTDAT='(8E13.5)'
 TRAMP=1., VOLUME=1. $END
  3.10228E+05  2.60497E+01  3.36807E+05  2.50742E+05  8.46407E+04  3.37588E+05 -1.32104E+05  2.50708E+05
 -1.90416E+05  8.26166E+04 -1.11402E+05 -3.26599E+04  1.11633E+03 -5.05717E+04  5.35030E+04 -1.73495E+02
  3.54365E+04  5.31253E+04 -1.67777E+04  7.55445E+04 -5.99192E+04  6.32714E+04 -8.35824E+04  3.18324E+04
 -7.93186E+04 -1.12310E+04 -5.67937E+04 -5.06348E+04 -1.52812E+04 -6.87347E+04  2.62036E+04 -4.52137E+04
  3.91899E+04  3.75137E+03  1.58257E+04  4.72153E+04 -3.40830E+04  4.61239E+04 -6.61766E+04 -2.52602E+02
 -5.35390E+04 -5.63247E+04 -6.73617E+03 -7.63794E+04  3.36358E+04 -5.43557E+04  4.74313E+04 -1.66819E+04
  4.24111E+04  1.13022E+04  3.18337E+04  2.50796E+04  1.57145E+04  2.88872E+04 -5.12134E+03  2.67165E+04
 -2.17819E+04  1.25984E+04 -1.82204E+04 -4.78587E+03  4.91591E+03 -7.25165E+03  2.21254E+04  1.17763E+04
  7.27694E+03  3.42806E+04 -3.10215E+04  3.49004E+04 -6.20117E+04  2.02734E+03 -5.57979E+04 -4.20802E+04
 -1.23412E+04 -6.18942E+04  3.88557E+04 -4.41044E+04  5.69737E+04 -2.16973E+03  3.27446E+04  3.14553E+04
 -6.13609E+03  3.47798E+04 -2.90144E+04  1.48508E+04 -2.89033E+04 -5.17844E+03 -1.50765E+04 -1.03955E+04
 -8.44397E+03 -1.22286E+04 -5.80738E+02 -1.72490E+04  7.36314E+03 -2.21496E+04  1.55736E+04 -1.36849E+04
  1.24285E+04  4.37499E+03 -6.84587E+03  1.30768E+04 -1.97738E+04 -3.46129E+03 -8.57135E+03 -3.18436E+04
  2.14953E+04 -4.18952E+04  4.63422E+04 -1.95717E+04  4.36420E+04  1.91116E+04  1.47172E+04  4.32112E+04
 -1.57563E+04  3.23083E+04 -2.41645E+04  7.79975E+02 -8.81468E+03 -2.68467E+04  2.03273E+04 -3.23690E+04
  3.92905E+04 -7.60206E+03  3.32511E+04  2.32338E+04  1.64854E+04  4.47273E+04 -7.91477E+03  4.74473E+04
 -2.98236E+04  3.13695E+04 -4.00186E+04  8.81296E+03 -4.07785E+04 -1.60641E+04 -2.20373E+04 -3.60434E+04
  6.91393E+03 -3.58887E+04  2.99434E+04 -1.29086E+04  2.84326E+04  1.11689E+04  3.67721E+03  1.86463E+04
 -1.33299E+04  7.98342E+03 -1.00170E+04 -8.19388E+03  5.87840E+03 -1.00019E+04  1.77821E+04  6.00980E+03
  1.33771E+04  2.18392E+04 -6.10757E+03  2.43154E+04 -2.18755E+04  1.01067E+04 -2.67872E+04 -5.96976E+03
 -1.86960E+04 -1.66256E+04 -6.98067E+03 -1.88959E+04  3.66789E+03 -1.68994E+04  1.34282E+04 -1.64753E+04
  2.38293E+04 -1.26997E+04  3.05315E+04  1.86084E+03  2.27502E+04  1.83065E+04  4.25829E+03  3.41368E+04
 -1.70623E+04  2.89402E+04 -2.74302E+04  9.98717E+03 -2.04588E+04 -1.04318E+04 -3.97619E+03 -1.37258E+04
  2.13407E+03 -4.00811E+03 -3.79013E+03  5.44438E+03 -1.48956E+04  5.19693E+03 -1.41868E+04 -5.67604E+03
 -9.58082E+03 -1.68844E+04  4.87355E+03 -2.12725E+04  1.36924E+04 -1.54461E+04  1.61525E+04 -1.65300E+03
  9.86026E+03  1.23544E+04 -1.01786E+03  1.70781E+04 -1.17428E+04  1.02080E+04 -1.71357E+04 -3.72552E+03
 -1.26253E+04 -1.57576E+04 -1.55534E+03 -2.08976E+04  9.73055E+03 -1.68653E+04  1.78652E+04 -8.35954E+03
  1.59512E+04  3.96945E+02  1.15274E+04  4.23642E+03  6.44345E+03  4.40049E+02  8.54568E+03 -1.10342E+03
  1.54839E+04  2.54725E+03  1.75078E+04  1.37309E+04  1.05143E+04  2.73200E+04 -2.92984E+03  3.01670E+04
 -1.74069E+04  2.35167E+04 -2.80229E+04  1.20818E+04 -2.87820E+04 -1.99963E+03 -2.43876E+04 -1.65715E+04
 -1.07110E+04 -2.35027E+04  8.17850E+03 -2.16207E+04  1.85275E+04 -1.16986E+04  1.74786E+04  4.54188E+03
  6.92631E+03  1.25950E+04 -8.12070E+03  1.14618E+04 -1.48005E+04  2.96207E+03 -1.16403E+04 -8.70369E+03
 -5.47284E+02 -1.37556E+04  7.22111E+03 -1.05983E+04  8.77293E+03 -1.03301E+03  1.91278E+03  5.70365E+03
 -6.16426E+03  1.53514E+03 -4.79380E+03 -4.44429E+03 -8.39086E+01 -1.20464E+04  8.34354E+03 -1.18400E+04
  1.49463E+04 -5.43165E+03  1.47569E+04  2.46816E+03  1.28631E+04  1.10114E+04  5.57913E+03  1.63054E+04
 -2.89414E+03  1.89309E+04 -1.16700E+04  1.13655E+04 -1.31727E+04  3.34178E+03 -9.10110E+03 -2.95652E+03
 -4.46555E+03 -4.08285E+03 -7.51484E+02  1.76095E+03 -2.19867E+03  2.00098E+03 -4.29635E+03  4.17685E+03
 -8.94425E+03 -1.00208E+03 -9.62195E+03 -7.82813E+03 -4.79727E+03 -1.33220E+04  3.84032E+03 -9.60641E+03
  7.83561E+03 -4.59765E+03  6.25614E+03  2.74822E+03  3.18257E+02  3.57099E+03 -4.08381E+03 -1.44635E+02
 -4.07026E+03 -6.07756E+03 -8.28678E+02 -8.80820E+03  5.12966E+03 -9.33474E+03  1.23190E+04 -4.48326E+03
  1.40670E+04  6.20872E+02  1.04541E+04  7.36898E+03  1.87537E+03  1.06359E+04 -5.93466E+03  9.07019E+03
 -7.72478E+03  3.14979E+03 -4.33838E+03 -1.64720E+03  1.71041E+03 -1.67930E+03  5.90434E+03 -6.71134E+02
  4.76216E+03  4.50122E+03  8.93793E+02  8.07608E+03 -5.22372E+03  7.99095E+03 -9.68930E+03  1.90900E+03
 -5.93776E+03 -4.64396E+03  6.74160E+01 -8.40612E+03  4.75915E+03 -3.93369E+03  4.41876E+03  1.19412E+03
  6.40080E+02  4.59947E+03 -5.40699E+03  6.54435E+03 -6.73254E+03  2.92509E+03 -6.09606E+03 -1.59674E+03
 -3.39390E+03 -8.61306E+03  2.17970E+03 -8.59760E+03  7.60162E+03 -5.96085E+03  8.50413E+03  1.62656E+03
  5.24680E+03  7.43069E+03 -1.64206E+02  8.80058E+03 -5.92635E+03  5.18510E+03 -6.44975E+03 -8.93868E+02
 -6.64232E+03 -5.94169E+03 -1.64803E+03 -6.56373E+03  3.02203E+03 -5.62415E+03  4.06530E+03 -2.76414E+03
  3.04017E+03 -6.75873E+01  4.50220E+02  1.53614E+03  8.97400E+02 -7.72984E+02  3.25794E+02 -2.83964E+03
  4.94513E+03 -1.57365E+03  7.22670E+03  9.52865E+02  7.25256E+03  4.29254E+03  6.27323E+03  9.20591E+03
 -1.88377E+03  1.13131E+04 -1.01130E+04  7.73547E+03 -1.26800E+04  1.59934E+03 -9.90031E+03 -3.80313E+03
 -5.39328E+03 -8.21841E+03 -6.62610E+02 -6.84440E+03  2.25807E+03 -3.07036E+03  2.43425E+03 -2.51534E+03
  1.81725E+03 -1.97326E+03  2.82455E+03 -2.35067E+03  3.93552E+03 -1.40852E+03  4.25385E+03 -1.12728E+02
  5.77043E+03  1.07355E+03  1.98954E+03  3.97809E+03 -1.71138E+03  3.80467E+03 -4.97290E+03  3.16627E+03
 -6.30678E+03 -6.14879E+02 -3.48482E+03 -3.98276E+03  2.13255E+01 -7.12586E+03  3.43268E+03 -7.11820E+03
  6.62292E+03 -3.78653E+03  8.41145E+03  1.18700E+03  6.25052E+03  5.73759E+03  1.68062E+03  7.76904E+03
 -3.35497E+03  7.27318E+03 -4.55596E+03  2.57293E+03 -3.40846E+03 -1.15352E+03 -9.99747E+02 -1.16293E+03
 -7.00677E+02  6.42197E+02 -1.44267E+03  2.37811E+03 -3.77875E+03  1.45231E+03 -5.34984E+03 -5.28628E+02
 -2.37050E+03 -4.31733E+03  7.06230E+02 -6.43594E+03  3.94480E+03 -4.95935E+03  4.98073E+03 -1.38741E+03
  5.72191E+03  2.89049E+03  2.52129E+03  4.98296E+03 -8.74748E+02  5.57452E+03 -4.22462E+03  3.31518E+03
 -5.57052E+03  4.56408E+02 -4.39854E+03 -3.20725E+03 -7.43326E+02 -4.50068E+03  2.01212E+03 -3.61727E+03
  3.80709E+03 -1.87720E+03  2.87422E+03  7.52006E+02  7.65498E+02  2.94599E+03  1.05810E+03  8.16073E+02
  1.67538E+03  6.70961E+02  1.10639E+03  1.08095E+03  1.77976E+03  2.66283E+03  1.48374E+03  2.46896E+03
 -1.59291E+03  4.51926E+03 -3.72032E+03  5.14015E+03 -4.80513E+03  2.12848E+03 -6.00058E+03 -1.77432E+03
 -3.15539E+03 -5.23871E+03  1.13748E+03 -6.32035E+03  3.77956E+03 -4.00443E+03  4.33281E+03 -1.26560E+03
  3.56166E+03  2.43135E+03  3.95123E+02  2.99832E+03 -9.99157E+02  1.72942E+03 -1.77554E+03 -4.76848E+02
 -5.40333E+02 -2.48128E+03  1.80404E+03 -2.29741E+03  2.40056E+03 -1.46615E+03  1.83133E+03  4.78457E+02
  1.59380E+03  1.90823E+02  8.85230E+02  4.31346E+01 -7.11172E+02  1.12761E+03  2.12570E+03 -1.28825E+02
  1.78629E+02 -9.12503E+01  2.40919E+03  7.89693E+02  1.43046E+03  3.43563E+03  1.43705E+02  4.00901E+03
 -2.50979E+03  1.96951E+03 -3.42250E+03  3.08639E+02 -3.18017E+03 -1.04321E+03 -1.18678E+03 -1.32136E+03
 -7.48459E+01 -1.64179E+03  2.00504E+03 -1.08107E+03  4.50583E+02  1.46045E+03 -3.59833E+02  1.92704E+03
 -1.95772E+03  1.27501E+03 -1.35530E+03 -1.47820E+03 -1.64073E+03 -3.05688E+03  2.04837E+02 -2.74148E+03
  1.33116E+03 -1.26100E+03  1.79910E+03  1.39813E+02  2.43046E+03 -3.22135E+02  7.34617E+02  1.66471E+03
 -3.84345E+02 -5.42350E+02 -1.82665E+03 -1.09300E+03  8.91350E+02 -1.91839E+03  2.44195E+03 -1.50021E+03
  2.28412E+03  4.34785E+02  3.99706E+03  1.22430E+03  1.87990E+03  3.21759E+03 -4.50132E+02  3.01985E+03
 -2.60815E+03  4.78880E+02 -2.09571E+03  7.27299E+01 -1.62422E+03 -2.27769E+03  6.66486E+02 -1.51476E+03
  2.07987E+03 -1.57956E+03  1.14170E+03  5.37030E+02  9.28552E+02  2.31367E+03 -1.71181E+01  1.93477E+03
 -1.09547E+03  8.23426E+02 -1.06181E+03  9.46451E+00 -7.74116E+02  3.89294E+02 -1.18885E+03  1.16486E+03
 -7.44434E+02  1.03755E+03 -2.50475E+03  8.37683E+02 -2.28479E+03  3.74633E+02 -3.35714E+03 -1.58608E+03
 -1.23702E+03 -3.95107E+03  9.64809E+02 -4.91230E+03  2.23674E+03 -3.72973E+03  4.13959E+03 -1.18779E+03
  4.06611E+03  5.24471E+02  1.73552E+03  2.56411E+03 -1.61657E+02  2.41085E+03 -1.10624E+03  2.22002E+03
 -1.61435E+03  1.28193E+03 -7.15336E+02 -2.49238E+02 -3.95027E+02 -1.87923E+02 -8.09960E+02 -2.31483E+02
 -1.41798E+03 -6.85513E+01 -1.55720E+03  1.31095E+02  1.02850E+02 -1.21717E+03  1.27272E+02 -8.04725E+02
  1.58037E+03 -1.07032E+03  1.19272E+03 -4.53295E+02  2.74136E+03  1.58447E+03 -4.59662E+02  2.25512E+03
 -1.62980E+03  3.79946E+03 -2.99246E+03  2.31870E+03 -3.34410E+03 -2.68726E+02 -2.46636E+03 -2.22377E+03
 -1.15658E+03 -2.82197E+03  4.26889E+02 -1.75082E+03  1.31260E+03 -1.56643E+03  1.46770E+03  8.11005E+01
  7.78926E+02  7.77370E+02 -2.07633E+02 -1.06810E-01 -6.06899E+01 -1.79670E+02 -3.52608E+02 -6.61666E+02
  4.23385E+02 -3.87815E+01  9.68630E+02  4.22474E+02  1.30601E+03  9.33596E+02  4.53098E+02  1.17456E+03
 -1.26644E+03  1.08816E+03 -1.48796E+03  1.73027E+02 -1.12908E+03 -7.92570E+02 -1.09805E+02 -1.87721E+03
  7.84034E+02 -1.96463E+03  1.17078E+03 -8.21525E+01  2.27367E+03 -8.83400E+02  4.98519E+02  1.49095E+03
  8.77627E+02  8.40717E+02 -3.52252E+02  1.09698E+03 -1.10926E+03  9.54330E+02 -2.01930E+02 -5.65650E+01
 -8.14432E+02 -1.30957E+02 -4.07840E+02  1.37041E+02 -6.30979E+02  4.03115E+02 -1.14241E+03 -3.57838E+02
 -1.41511E+03 -7.62542E+02 -7.29195E+02 -1.47301E+03  1.13571E+03 -2.60349E+03  6.27036E+02 -4.52655E+02
  1.08210E+03  2.94710E+02  2.32384E+02  9.18587E+02 -2.29216E+01  1.97637E+03 -1.03859E+03  1.24372E+03
