 $NMID ID='MM_0lb_SNR400_15hz_g50_68.RAW', FMTDAT='(8E13.5)'
 TRAMP=1., VOLUME=1. $END
  3.09619E+05 -1.39818E+02  3.37482E+05  2.50751E+05  8.48294E+04  3.37680E+05 -1.32376E+05  2.50869E+05
 -1.90408E+05  8.27538E+04 -1.11455E+05 -3.17112E+04  6.58836E+02 -4.99344E+04  5.33259E+04  1.82333E+02
  3.54203E+04  5.35213E+04 -1.66083E+04  7.53600E+04 -6.02815E+04  6.36189E+04 -8.37481E+04  3.17912E+04
 -8.10706E+04 -1.15339E+04 -5.70000E+04 -5.11982E+04 -1.46745E+04 -6.94611E+04  2.76433E+04 -4.61181E+04
  4.00077E+04  3.88209E+03  1.57139E+04  4.78126E+04 -3.42094E+04  4.68011E+04 -6.72102E+04 -4.67457E+02
 -5.34029E+04 -5.69434E+04 -6.98213E+03 -7.68647E+04  3.34256E+04 -5.44152E+04  4.74396E+04 -1.73972E+04
  4.31351E+04  1.16203E+04  3.16576E+04  2.49665E+04  1.63904E+04  3.04054E+04 -5.26845E+03  2.76717E+04
 -2.20155E+04  1.19827E+04 -1.88488E+04 -4.56129E+03  5.94111E+03 -7.47401E+03  2.23605E+04  1.15327E+04
  7.50319E+03  3.45121E+04 -3.16021E+04  3.53087E+04 -6.30486E+04  2.28335E+03 -5.71979E+04 -4.32506E+04
 -1.25482E+04 -6.22906E+04  3.96733E+04 -4.51064E+04  5.75426E+04 -2.93675E+03  3.41101E+04  3.18787E+04
 -5.56176E+03  3.53486E+04 -2.97087E+04  1.59942E+04 -2.97184E+04 -4.93724E+03 -1.67099E+04 -1.10434E+04
 -7.94037E+03 -1.31947E+04 -1.07208E+03 -1.79892E+04  6.98558E+03 -2.24518E+04  1.51759E+04 -1.37392E+04
  1.11609E+04  3.89958E+03 -8.25750E+03  1.37584E+04 -2.13281E+04 -4.14488E+03 -8.68882E+03 -3.30130E+04
  2.23464E+04 -4.27969E+04  4.76252E+04 -1.93785E+04  4.39214E+04  1.85266E+04  1.51676E+04  4.34308E+04
 -1.49565E+04  3.23421E+04 -2.54505E+04  1.29805E+03 -9.92447E+03 -2.78786E+04  2.09546E+04 -3.31592E+04
  4.06109E+04 -8.67817E+03  3.45858E+04  2.36115E+04  1.83557E+04  4.60433E+04 -7.23721E+03  4.98701E+04
 -3.09438E+04  3.24586E+04 -4.10147E+04  9.25846E+03 -4.22578E+04 -1.67230E+04 -2.23390E+04 -3.67630E+04
  7.25812E+03 -3.70920E+04  3.12991E+04 -1.41641E+04  2.93652E+04  1.07767E+04  4.03366E+03  1.90993E+04
 -1.34934E+04  8.36103E+03 -1.01451E+04 -7.79601E+03  6.05444E+03 -1.08412E+04  1.84799E+04  6.41973E+03
  1.33595E+04  2.22310E+04 -5.67145E+03  2.51087E+04 -2.23619E+04  1.12347E+04 -2.74487E+04 -4.94151E+03
 -1.97904E+04 -1.72266E+04 -7.99622E+03 -2.03307E+04  4.39826E+03 -1.86844E+04  1.51518E+04 -1.72448E+04
  2.53521E+04 -1.30243E+04  3.21126E+04  2.86886E+03  2.31591E+04  1.93366E+04  4.39655E+03  3.58144E+04
 -1.73568E+04  2.98666E+04 -2.72907E+04  1.10773E+04 -2.04094E+04 -1.04167E+04 -4.35274E+03 -1.38510E+04
  2.06214E+03 -3.19084E+03 -4.25290E+03  6.04833E+03 -1.53828E+04  4.87878E+03 -1.60575E+04 -7.05214E+03
 -9.79749E+03 -1.83253E+04  5.42896E+03 -2.24361E+04  1.42810E+04 -1.57445E+04  1.73643E+04 -1.92521E+03
  1.06606E+04  1.25189E+04 -1.17194E+03  1.85645E+04 -1.21066E+04  1.07540E+04 -1.80456E+04 -4.21096E+03
 -1.36600E+04 -1.75090E+04 -1.65756E+03 -2.19487E+04  9.50548E+03 -1.80224E+04  1.81879E+04 -8.97719E+03
  1.74181E+04  2.29187E+02  1.18963E+04  3.59148E+03  6.58172E+03 -9.14191E+01  9.20833E+03 -1.50591E+03
  1.68171E+04  2.59604E+03  1.83964E+04  1.48030E+04  1.22131E+04  2.89107E+04 -2.64679E+03  3.25900E+04
 -1.91769E+04  2.62853E+04 -3.07916E+04  1.32111E+04 -3.18000E+04 -2.90583E+03 -2.68992E+04 -1.89779E+04
 -1.14779E+04 -2.61785E+04  8.69097E+03 -2.37190E+04  2.06051E+04 -1.26331E+04  1.84184E+04  5.47079E+03
  7.11986E+03  1.39862E+04 -8.35188E+03  1.30200E+04 -1.54052E+04  3.08508E+03 -1.19546E+04 -9.74721E+03
  1.92994E+02 -1.44949E+04  7.57633E+03 -1.18888E+04  9.52625E+03 -1.27928E+03  1.60318E+03  6.74072E+03
 -6.36977E+03  2.00853E+03 -6.14547E+03 -5.58634E+03 -1.88921E+02 -1.27811E+04  8.90954E+03 -1.28312E+04
  1.54558E+04 -7.36672E+03  1.64842E+04  3.68781E+03  1.44434E+04  1.23522E+04  6.85577E+03  1.89786E+04
 -3.35407E+03  2.08384E+04 -1.39169E+04  1.36399E+04 -1.50354E+04  3.72660E+03 -1.06569E+04 -3.33600E+03
 -5.41247E+03 -4.37769E+03 -3.14637E+02  1.20635E+03 -2.44095E+03  2.14772E+03 -4.94524E+03  4.35637E+03
 -9.99652E+03 -7.25747E+02 -1.12123E+04 -9.00909E+03 -4.14610E+03 -1.40407E+04  4.28693E+03 -1.09474E+04
  9.05957E+03 -4.56532E+03  5.88302E+03  2.60597E+03  6.25527E+02  4.23670E+03 -4.70505E+03 -2.18283E+01
 -4.33466E+03 -6.94823E+03 -6.51648E+02 -9.90712E+03  5.16633E+03 -1.03151E+04  1.31372E+04 -5.48748E+03
  1.55283E+04  1.14769E+03  1.10649E+04  9.17104E+03  2.61977E+03  1.14447E+04 -6.51880E+03  1.09330E+04
 -8.68904E+03  3.38135E+03 -4.26360E+03 -1.66777E+03  1.76946E+03 -2.78637E+03  5.74433E+03 -6.59772E+02
  5.11978E+03  4.63213E+03  1.20366E+03  7.90999E+03 -5.35852E+03  7.83814E+03 -1.06380E+04  2.40394E+03
 -6.64162E+03 -5.05513E+03  6.49295E+01 -8.38940E+03  5.31289E+03 -5.11435E+03  5.47971E+03  1.35303E+03
  1.81549E+03  5.48266E+03 -5.41839E+03  6.49117E+03 -7.28513E+03  2.87080E+03 -6.89026E+03 -1.60927E+03
 -4.42854E+03 -8.76308E+03  2.11468E+03 -1.04363E+04  8.85549E+03 -6.38637E+03  9.43079E+03  1.86255E+03
  6.14646E+03  7.47519E+03 -4.48062E+02  9.70316E+03 -7.23573E+03  5.70376E+03 -7.79987E+03 -4.35992E+02
 -7.36993E+03 -6.32861E+03 -1.12350E+03 -7.29641E+03  4.17403E+03 -6.37304E+03  4.48927E+03 -3.25127E+03
  2.96091E+03  7.79119E+02  5.83405E+02  1.64081E+03 -8.42462E+01 -1.52909E+03  4.40229E+02 -4.16452E+03
  6.63875E+03 -2.06333E+03  8.73135E+03  1.20853E+03  8.25979E+03  5.50261E+03  5.97888E+03  1.14449E+04
 -2.39738E+03  1.35636E+04 -1.12676E+04  9.78920E+03 -1.42528E+04  1.85763E+03 -1.08581E+04 -4.13278E+03
 -5.03438E+03 -9.39985E+03 -6.58563E+02 -7.23440E+03  2.78450E+03 -3.75025E+03  2.98462E+03 -2.14383E+03
  2.25591E+03 -1.71621E+03  2.74625E+03 -3.12611E+03  4.07196E+03 -2.16400E+03  4.80984E+03  7.53779E+01
  5.54368E+03  1.31356E+03  2.79503E+03  5.08517E+03 -1.51584E+03  5.62050E+03 -6.22527E+03  3.83916E+03
 -7.35027E+03 -4.72873E+02 -3.75793E+03 -4.99690E+03 -1.34280E+02 -7.67755E+03  4.66463E+03 -8.39639E+03
  9.07170E+03 -4.46304E+03  9.53412E+03  3.48518E+02  7.23223E+03  7.30325E+03  1.14002E+03  8.86054E+03
 -3.59598E+03  8.48176E+03 -5.22647E+03  2.48919E+03 -3.58202E+03 -1.40767E+03 -6.76564E+02 -9.13438E+02
 -3.00055E+01  7.84065E+02 -1.85575E+03  1.86006E+03 -3.19881E+03  1.51854E+03 -5.60527E+03 -4.49904E+02
 -3.38392E+03 -5.14329E+03  7.28456E+02 -7.57380E+03  4.15590E+03 -6.68865E+03  6.80797E+03 -1.65724E+03
  6.61479E+03  3.33632E+03  3.55133E+03  5.20574E+03 -1.23988E+03  7.47989E+03 -4.60870E+03  4.20801E+03
 -6.53636E+03  3.61734E+02 -5.50027E+03 -4.53127E+03 -4.09462E+02 -6.18240E+03  2.27022E+03 -4.00930E+03
  4.57643E+03 -1.72174E+03  3.06805E+03  7.01899E+02  9.57944E+02  2.49897E+03  1.28597E+03  1.33790E+03
  1.53831E+03  4.26659E+02  1.71944E+03  9.72846E+02  1.73510E+03  2.81988E+03  1.62738E+03  3.66348E+03
 -1.73693E+03  4.99812E+03 -4.62981E+03  6.16720E+03 -5.75833E+03  1.40108E+03 -6.74970E+03 -1.68933E+03
 -3.18440E+03 -6.19489E+03  1.13324E+03 -7.49274E+03  4.07159E+03 -4.53271E+03  5.09737E+03 -1.71931E+03
  4.06149E+03  2.55005E+03  1.06183E+03  3.78320E+03 -1.74644E+03  2.10084E+03 -2.11686E+03 -5.69867E+02
 -1.64089E+03 -3.12854E+03  1.18489E+03 -2.38180E+03  2.06287E+03 -1.45504E+03  2.76222E+03  6.07463E+02
  1.69489E+03  9.50658E+02  7.29108E+02  2.45578E+02 -3.58102E+02  9.15205E+02  1.66723E+03 -2.04311E+02
  2.44500E+02 -6.24902E+02  3.10271E+03  1.23628E+03  7.29287E+02  3.28097E+03 -4.38286E+02  4.72582E+03
 -2.56123E+03  2.15189E+03 -3.99089E+03  9.94225E+02 -4.23895E+03 -1.36718E+03 -3.58603E+02 -2.58297E+03
  4.32734E+02 -2.45531E+03  1.66675E+03 -9.79886E+02  1.14767E+03  1.80813E+03 -6.24722E+02  2.04105E+03
 -3.29809E+03  8.93032E+02 -1.98847E+03 -1.96942E+03 -1.49713E+03 -3.38429E+03  3.81011E+02 -2.75393E+03
  1.13694E+03 -1.46940E+03  1.92694E+03 -6.21611E+02  2.33068E+03  7.38852E+02 -5.00968E+02  1.41538E+03
 -8.18246E+02  2.09409E+02 -1.04729E+03 -4.97279E+02  1.04036E+03 -2.60307E+03  3.17977E+03 -1.25214E+03
  3.56248E+03  9.20615E+02  4.58622E+03  2.24437E+03  1.55789E+03  3.16801E+03 -7.92814E+02  3.20029E+03
 -2.61886E+03  1.81400E+03 -3.35235E+03 -7.69959E+02 -1.61562E+03 -2.59932E+03  5.22442E+02 -1.84951E+03
  2.85676E+03 -1.19973E+03  1.64048E+03  6.11001E+02  9.41165E+02  2.00130E+03 -1.20025E+02  1.66527E+03
 -9.04162E+02  1.29705E+03 -8.83990E+02  5.08729E+02 -4.22415E+02  6.24954E+02 -1.43184E+03  1.56902E+03
 -1.97684E+03  1.66948E+03 -3.28018E+03  1.13684E+03 -3.36405E+03  3.54674E+01 -3.40415E+03 -2.08131E+03
 -2.50017E+03 -4.47232E+03  7.05452E+02 -5.47880E+03  2.07793E+03 -4.17161E+03  5.09812E+03 -1.84857E+03
  4.85310E+03  6.71223E+02  2.28093E+03  3.35737E+03 -4.62573E+02  3.12715E+03 -1.16404E+03  3.02328E+03
 -2.01143E+03  1.67221E+03 -1.30409E+03 -1.85384E+02 -1.29393E+03  4.18625E+02 -8.82097E+02 -3.62019E+02
 -1.58229E+03  1.18382E+02 -8.55701E+02  4.53235E+02  3.93090E+02 -6.96992E+02 -4.75835E+02 -1.13129E+03
  1.71481E+03 -9.43166E+02  9.79075E+02  3.08228E+02  2.03127E+03  1.86819E+03  1.49287E+02  3.17601E+03
 -1.81843E+03  4.18650E+03 -4.05108E+03  2.48480E+03 -3.80435E+03 -1.08841E+02 -2.84252E+03 -2.56967E+03
 -1.78307E+03 -3.17036E+03  7.60345E+02 -2.60468E+03  1.85510E+03 -1.05357E+03  1.87024E+03  2.86595E+02
  1.10839E+03  4.50432E+02  9.08379E+01  6.98200E+02  2.73881E+02 -6.53994E+02  1.47455E+02 -5.02501E+02
  8.47360E+02 -7.52527E+02  1.29067E+03  6.70926E+02  5.85794E+02  7.22699E+02  8.49844E+02  1.18221E+03
 -1.36462E+03  8.27035E+02 -1.36481E+03  7.17286E+02 -1.76984E+03 -1.41632E+03  9.33819E+00 -2.53251E+03
  7.90552E+02 -1.81523E+03  1.71176E+03 -5.43095E+01  2.01203E+03  8.54337E+01  1.20976E+03  1.42122E+03
  4.76234E+02  1.75348E+03 -3.95626E+02  1.74286E+03 -1.22961E+03  1.01149E+03 -7.31503E+02 -8.24361E+01
 -6.63358E+02 -3.42677E+02 -9.14953E+02  1.29235E+02 -1.21481E+03  2.19417E+02 -7.86541E+02 -5.12349E+02
 -1.55347E+03 -3.64430E+02 -7.09531E+02 -2.29622E+03  1.85244E+03 -2.58353E+03  1.27012E+03 -3.11993E+02
  2.04207E+03  3.14922E+02  6.11720E+02  9.40575E+02 -2.92649E+02  1.63800E+03 -1.70458E+03  8.83667E+02
