 $NMID ID='MM_0lb_SNR400_15hz_g55_95.RAW', FMTDAT='(8E13.5)'
 TRAMP=1., VOLUME=1. $END
  3.10126E+05  7.85895E+02  3.37722E+05  2.49961E+05  8.43689E+04  3.37993E+05 -1.32207E+05  2.51273E+05
 -1.90462E+05  8.29741E+04 -1.12068E+05 -3.32074E+04  7.54198E+02 -5.10988E+04  5.37921E+04 -4.40423E+02
  3.62141E+04  5.32274E+04 -1.67719E+04  7.49418E+04 -6.16503E+04  6.38926E+04 -8.36241E+04  3.18126E+04
 -8.11967E+04 -1.15093E+04 -5.70020E+04 -5.09531E+04 -1.50704E+04 -6.92773E+04  2.75587E+04 -4.59802E+04
  4.08064E+04  3.85204E+03  1.60684E+04  4.73856E+04 -3.38400E+04  4.76076E+04 -6.70293E+04 -5.05949E+00
 -5.33591E+04 -5.64681E+04 -6.60959E+03 -7.72751E+04  3.37221E+04 -5.50534E+04  4.81637E+04 -1.67151E+04
  4.35395E+04  1.10014E+04  3.14899E+04  2.59882E+04  1.53128E+04  2.92049E+04 -4.95274E+03  2.72807E+04
 -2.20441E+04  1.20331E+04 -1.79323E+04 -5.62323E+03  6.22540E+03 -6.90156E+03  2.24001E+04  1.29803E+04
  6.70311E+03  3.56220E+04 -3.24317E+04  3.52781E+04 -6.34683E+04  2.54614E+03 -5.75467E+04 -4.31256E+04
 -1.27447E+04 -6.34886E+04  4.04945E+04 -4.51299E+04  5.79778E+04 -2.62904E+03  3.38368E+04  3.19499E+04
 -6.25190E+03  3.60841E+04 -3.04823E+04  1.61892E+04 -3.00600E+04 -4.58521E+03 -1.62532E+04 -1.09398E+04
 -8.20974E+03 -1.30229E+04 -1.01325E+03 -1.81477E+04  7.46349E+03 -2.29304E+04  1.55987E+04 -1.31194E+04
  1.08844E+04  5.18920E+03 -8.04227E+03  1.26456E+04 -2.13980E+04 -4.50989E+03 -8.25544E+03 -3.37131E+04
  2.25284E+04 -4.35310E+04  4.81707E+04 -1.98855E+04  4.53189E+04  1.92713E+04  1.55541E+04  4.49556E+04
 -1.60916E+04  3.32975E+04 -2.53541E+04  1.66862E+03 -9.38740E+03 -2.75425E+04  2.09217E+04 -3.38176E+04
  4.11620E+04 -9.14274E+03  3.53004E+04  2.36704E+04  1.88986E+04  4.64795E+04 -8.02400E+03  5.06019E+04
 -3.14462E+04  3.37709E+04 -4.16136E+04  9.48278E+03 -4.17106E+04 -1.73458E+04 -2.33834E+04 -3.80690E+04
  7.24683E+03 -3.79828E+04  3.16684E+04 -1.44724E+04  2.88711E+04  1.16416E+04  3.58182E+03  1.95959E+04
 -1.29905E+04  7.97484E+03 -1.04348E+04 -7.97359E+03  5.91920E+03 -1.15414E+04  1.79607E+04  5.75539E+03
  1.37828E+04  2.14431E+04 -6.45038E+03  2.55187E+04 -2.24645E+04  1.06615E+04 -2.83008E+04 -4.73117E+03
 -2.11075E+04 -1.71284E+04 -7.55863E+03 -2.04298E+04  4.15188E+03 -2.00141E+04  1.63206E+04 -1.87875E+04
  2.60107E+04 -1.30420E+04  3.28516E+04  3.13034E+03  2.41143E+04  1.97714E+04  3.95721E+03  3.61661E+04
 -1.72626E+04  3.02042E+04 -2.77501E+04  1.07707E+04 -2.05070E+04 -1.00955E+04 -4.73476E+03 -1.32830E+04
  1.56935E+03 -2.94863E+03 -4.64181E+03  7.30857E+03 -1.58900E+04  5.59928E+03 -1.69550E+04 -7.06327E+03
 -9.92768E+03 -1.83982E+04  5.47818E+03 -2.26022E+04  1.53111E+04 -1.60576E+04  1.82249E+04 -1.06421E+03
  1.10707E+04  1.33234E+04 -1.58123E+03  1.86787E+04 -1.26007E+04  1.09939E+04 -1.86215E+04 -3.31429E+03
 -1.41494E+04 -1.74503E+04 -1.86905E+03 -2.27133E+04  1.02679E+04 -1.81783E+04  1.92096E+04 -9.19545E+03
  1.71765E+04  9.46977E+01  1.28654E+04  4.19406E+03  7.03035E+03  1.46385E+03  9.64807E+03 -1.38463E+03
  1.71161E+04  3.10025E+03  1.96163E+04  1.53978E+04  1.26756E+04  2.95603E+04 -2.60910E+03  3.33761E+04
 -2.00240E+04  2.75871E+04 -3.13447E+04  1.33134E+04 -3.31482E+04 -2.82016E+03 -2.71520E+04 -1.94337E+04
 -1.19341E+04 -2.65270E+04  9.75207E+03 -2.45622E+04  2.10479E+04 -1.20811E+04  1.87944E+04  5.29247E+03
  6.96768E+03  1.45214E+04 -8.61711E+03  1.30296E+04 -1.58049E+04  2.76413E+03 -1.23390E+04 -1.03864E+04
 -7.99109E+02 -1.47293E+04  7.76553E+03 -1.11525E+04  1.01297E+04 -1.49564E+03  1.80804E+03  6.52322E+03
 -6.80013E+03  2.32552E+03 -6.06955E+03 -5.20337E+03 -4.08655E+02 -1.38234E+04  9.19143E+03 -1.39282E+04
  1.68096E+04 -6.85843E+03  1.73610E+04  2.62702E+03  1.52362E+04  1.23925E+04  7.55864E+03  1.98289E+04
 -3.62090E+03  2.16842E+04 -1.38442E+04  1.39248E+04 -1.50080E+04  3.24186E+03 -1.13522E+04 -3.53843E+03
 -5.29164E+03 -4.74175E+03 -4.99077E+02  1.63896E+03 -1.97897E+03  2.58121E+03 -4.13618E+03  3.98349E+03
 -1.03634E+04 -3.33489E+02 -1.15217E+04 -8.65236E+03 -4.46517E+03 -1.46270E+04  4.41322E+03 -1.18556E+04
  9.35899E+03 -4.42729E+03  7.35855E+03  2.77558E+03  4.30834E+02  4.23212E+03 -5.24865E+03 -2.25471E+02
 -4.74271E+03 -6.84366E+03 -1.05587E+03 -1.03352E+04  5.99919E+03 -1.07331E+04  1.33155E+04 -5.22344E+03
  1.57947E+04  1.31540E+03  1.18030E+04  9.02358E+03  2.69838E+03  1.18185E+04 -6.43436E+03  1.08555E+04
 -9.02746E+03  3.70281E+03 -4.50130E+03 -2.01974E+03  1.99629E+03 -2.41428E+03  6.03383E+03 -8.55702E+02
  4.93403E+03  4.90609E+03  1.22657E+03  8.89176E+03 -6.36179E+03  7.72466E+03 -1.06436E+04  1.70122E+03
 -6.54680E+03 -4.50706E+03 -1.48320E+01 -9.25951E+03  5.48295E+03 -4.47933E+03  5.68764E+03  1.73996E+03
  4.10627E+02  5.54936E+03 -4.99318E+03  7.41539E+03 -8.23132E+03  3.77908E+03 -7.56321E+03 -2.09881E+03
 -4.80831E+03 -9.28337E+03  1.81714E+03 -1.05924E+04  8.96935E+03 -7.39738E+03  1.00154E+04  1.14413E+03
  7.08042E+03  8.29172E+03 -7.61716E+02  1.02903E+04 -7.19943E+03  5.18879E+03 -8.40964E+03 -4.29318E+02
 -7.03608E+03 -6.70059E+03 -1.32719E+03 -7.02915E+03  3.52082E+03 -6.22367E+03  4.50303E+03 -2.58298E+03
  3.78951E+03  3.12366E+02 -3.04689E+02  1.63056E+03  6.35115E+02 -1.37502E+03  9.32351E+02 -3.42161E+03
  6.18260E+03 -2.34392E+03  8.27365E+03  1.18970E+03  9.10822E+03  5.78338E+03  6.89480E+03  1.17442E+04
 -2.78294E+03  1.36560E+04 -1.19382E+04  1.00330E+04 -1.53027E+04  1.60738E+03 -1.21577E+04 -4.59558E+03
 -5.81480E+03 -9.67782E+03 -2.45812E+02 -8.28933E+03  2.69047E+03 -4.26856E+03  3.42210E+03 -3.72483E+03
  1.99826E+03 -1.24852E+03  1.97543E+03 -3.39407E+03  3.92695E+03 -1.91261E+03  4.90329E+03 -7.19759E+02
  5.98400E+03  1.27324E+03  3.20681E+03  5.68413E+03 -1.67211E+03  5.49659E+03 -7.02838E+03  4.33873E+03
 -7.77521E+03 -1.18215E+03 -4.47494E+03 -5.11272E+03  6.44987E+02 -8.57857E+03  4.61534E+03 -8.47710E+03
  8.17273E+03 -4.42869E+03  1.07277E+04  7.91205E+02  7.78556E+03  6.65230E+03  1.26201E+03  9.76916E+03
 -3.92266E+03  8.25778E+03 -5.33651E+03  2.12509E+03 -3.92245E+03 -1.54963E+03 -1.29470E+03 -1.15623E+03
 -1.31085E+03  1.92623E+02 -1.13768E+03  1.92801E+03 -3.82683E+03  1.44260E+03 -6.00062E+03 -8.09693E+02
 -3.30467E+03 -6.33506E+03  5.67893E+02 -8.08516E+03  4.58647E+03 -7.53175E+03  6.53328E+03 -2.25788E+03
  7.96982E+03  3.91988E+03  3.20560E+03  5.92645E+03 -1.69533E+03  7.33778E+03 -4.71304E+03  4.30701E+03
 -6.49493E+03  4.47900E+02 -4.91217E+03 -4.23822E+03 -2.51373E+02 -6.01488E+03  3.29735E+03 -4.40178E+03
  4.59176E+03 -1.23420E+03  2.80523E+03  8.84632E+02  1.14364E+03  1.91030E+03  1.15204E+03  1.77856E+03
  1.99665E+03  6.19525E+02  1.29128E+03  1.64981E+03  2.15426E+03  2.85801E+03  2.32193E+03  3.10305E+03
 -1.92825E+03  5.31491E+03 -4.81217E+03  5.87774E+03 -6.05239E+03  1.99990E+03 -7.24829E+03 -2.44370E+03
 -3.30414E+03 -6.91642E+03  1.81485E+03 -7.76419E+03  4.14205E+03 -4.48390E+03  5.36463E+03 -1.86770E+03
  3.97132E+03  3.15608E+03  1.21342E+03  4.04756E+03 -1.93038E+03  1.90799E+03 -2.33267E+03 -2.84981E+02
 -1.05995E+03 -3.21997E+03  2.06595E+03 -2.99664E+03  2.48243E+03 -1.50305E+03  2.09150E+03  2.42958E+01
  1.59122E+03  8.76820E+02  6.52897E+02  5.97282E+02 -5.14713E+02  1.48078E+03  2.40392E+03  4.45235E+00
  4.07798E+02  4.08613E+01  3.26524E+03  9.93893E+02  1.37549E+03  3.97511E+03 -2.48687E+02  4.57060E+03
 -3.15993E+03  2.70921E+03 -4.77639E+03  1.49839E+02 -3.54695E+03 -1.29894E+03 -9.20412E+02 -1.98443E+03
  5.67846E+02 -2.04311E+03  1.36700E+03 -9.23192E+02  1.42124E+03  2.11572E+03 -1.04426E+03  1.55700E+03
 -2.67506E+03  1.67342E+03 -2.02806E+03 -1.64578E+03 -7.90700E+02 -3.95004E+03  4.49084E+02 -3.11268E+03
  1.84943E+03 -1.41267E+03  2.15097E+03 -3.30783E+01  1.88734E+03  3.55811E+02  4.82077E+02  1.18824E+03
 -9.55446E+02  1.36017E+02 -1.40562E+03 -6.48186E+02  7.63667E+02 -2.60346E+03  3.06809E+03 -1.64854E+03
  3.10803E+03  4.41188E+02  4.67834E+03  2.32074E+03  1.80375E+03  3.13337E+03 -2.44088E+02  3.76593E+03
 -2.65152E+03  1.23322E+03 -3.27298E+03  1.32859E+01 -1.37944E+03 -2.67941E+03  4.60518E+02 -2.14158E+03
  3.26620E+03 -8.43780E+02  9.93478E+02  8.47794E+02  4.30380E+02  1.95376E+03  6.14788E+02  1.28973E+03
 -8.49053E+02  1.83173E+03 -1.70393E+03  6.55383E+02 -7.77856E+02  1.63268E+02 -5.75644E+02  6.11664E+02
 -1.53690E+03  1.51953E+03 -2.81789E+03  1.62826E+03 -3.43345E+03  7.90587E+01 -4.92307E+03 -1.76486E+03
 -2.80434E+03 -5.33799E+03  1.15992E+03 -5.90113E+03  3.06049E+03 -4.43227E+03  4.74874E+03 -1.53819E+03
  5.06811E+03  1.87233E+02  2.69283E+03  3.47288E+03 -8.29247E+02  3.37863E+03 -9.76684E+02  2.76297E+03
 -1.23084E+03  1.13675E+03 -1.50490E+03 -6.81068E+01 -6.46539E+02 -5.87061E+02 -4.51662E+02 -3.54551E+02
 -1.36520E+03 -2.18041E+02 -1.37874E+03  8.37987E+01 -9.17613E+01 -1.05487E+03 -3.35312E+02 -1.26825E+03
  1.61126E+03 -1.03352E+03  1.40060E+03  9.46323E+01  2.25761E+03  1.48308E+03  3.70271E+02  2.77188E+03
 -1.76250E+03  4.25271E+03 -4.17199E+03  1.76857E+03 -3.99020E+03 -2.10120E+02 -3.12149E+03 -2.84435E+03
 -1.68488E+03 -3.27588E+03  1.06628E+03 -3.20918E+03  2.08312E+03 -1.98979E+03  2.13644E+03 -9.69438E+01
  9.80496E+02  9.45888E+02 -2.33784E+02  7.78374E+02 -5.33878E+02 -1.06611E+02  4.11494E+01 -5.63546E+02
  1.68120E+03 -7.22147E+01  8.27255E+02  3.07325E+02  2.52156E+02  1.32057E+03  3.21547E+02  1.55219E+03
 -1.62423E+03  1.64760E+03 -1.56801E+03  1.96348E+01 -1.32106E+03 -6.02404E+02  1.48756E+02 -2.32211E+03
  1.23884E+03 -2.16598E+03  1.91475E+03 -3.85795E+02  2.46251E+03  1.67507E+01  9.04732E+02  1.81900E+03
  7.16327E+02  1.74472E+03 -4.78452E+02  1.99828E+03 -1.10575E+03  7.01635E+02 -1.18926E+03  4.51250E+02
 -1.48231E+03 -3.72113E+02 -8.51641E+02  3.56391E+02 -1.05994E+03  2.96685E+01 -1.65539E+03 -4.44644E+02
 -1.25314E+03 -3.20387E+02 -4.49772E+02 -1.95707E+03  4.66414E+02 -2.92905E+03  1.11332E+03 -1.43755E+03
  9.49192E+02  8.34537E+02 -5.77393E+01  9.23650E+02 -2.88858E+02  1.33574E+03 -1.39978E+03  1.75127E+03
