 $NMID ID='MM_0lb_SNR400_10hz_g60_40.RAW', FMTDAT='(8E13.5)'
 TRAMP=1., VOLUME=1. $END
  3.10429E+05 -2.71552E+02  3.38345E+05  2.50900E+05  8.53385E+04  3.38406E+05 -1.32090E+05  2.51484E+05
 -1.91091E+05  8.39966E+04 -1.12841E+05 -3.21027E+04  4.86482E+02 -5.03990E+04  5.38445E+04 -4.85399E+02
  3.50034E+04  5.25866E+04 -1.71361E+04  7.62093E+04 -6.17400E+04  6.40391E+04 -8.50320E+04  3.23296E+04
 -8.23867E+04 -1.22439E+04 -5.78305E+04 -5.28380E+04 -1.49618E+04 -7.08050E+04  2.87631E+04 -4.72628E+04
  4.10811E+04  4.08275E+03  1.70402E+04  4.79306E+04 -3.52571E+04  4.88800E+04 -6.78597E+04 -2.77836E+02
 -5.50650E+04 -5.77305E+04 -7.28888E+03 -7.88550E+04  3.54256E+04 -5.62358E+04  4.95403E+04 -1.82770E+04
  4.57021E+04  1.16142E+04  3.28635E+04  2.65314E+04  1.59063E+04  3.12164E+04 -6.32244E+03  2.82630E+04
 -2.27505E+04  1.17122E+04 -1.80181E+04 -5.89401E+03  6.80060E+03 -7.37214E+03  2.36095E+04  1.35865E+04
  7.31160E+03  3.81624E+04 -3.38239E+04  3.71034E+04 -6.62980E+04  2.10095E+03 -5.92674E+04 -4.47980E+04
 -1.31566E+04 -6.52858E+04  4.20173E+04 -4.75927E+04  6.12619E+04 -2.80609E+03  3.71129E+04  3.42771E+04
 -5.88378E+03  3.89292E+04 -3.17085E+04  1.89537E+04 -3.31578E+04 -3.65755E+03 -2.01341E+04 -1.15879E+04
 -9.26885E+03 -1.53802E+04 -1.62178E+03 -2.02224E+04  8.44573E+03 -2.39809E+04  1.58412E+04 -1.22045E+04
  9.97602E+03  6.08085E+03 -1.01460E+04  1.25334E+04 -2.25041E+04 -7.37113E+03 -8.96603E+03 -3.72661E+04
  2.53223E+04 -4.78676E+04  5.17358E+04 -2.05426E+04  4.94505E+04  2.14503E+04  1.79742E+04  4.78162E+04
 -1.69167E+04  3.62536E+04 -2.76248E+04  2.90906E+03 -1.22632E+04 -2.95231E+04  2.17875E+04 -3.72342E+04
  4.49467E+04 -1.06583E+04  4.07902E+04  2.53288E+04  2.17592E+04  5.11226E+04 -9.15793E+03  5.62960E+04
 -3.51343E+04  3.87145E+04 -4.85079E+04  1.07901E+04 -4.78444E+04 -1.88246E+04 -2.58924E+04 -4.27505E+04
  7.90482E+03 -4.20514E+04  3.42771E+04 -1.75621E+04  3.23497E+04  1.09414E+04  5.51993E+03  2.01749E+04
 -1.43308E+04  9.88324E+03 -1.14122E+04 -7.98159E+03  5.68909E+03 -1.16495E+04  1.89013E+04  4.93387E+03
  1.52045E+04  2.31120E+04 -4.83684E+03  2.73970E+04 -2.40021E+04  1.56919E+04 -3.13596E+04 -3.00714E+03
 -2.49283E+04 -1.89908E+04 -1.14868E+04 -2.52938E+04  4.78196E+03 -2.56098E+04  1.98194E+04 -2.23295E+04
  3.20091E+04 -1.42634E+04  3.81699E+04  4.96962E+03  2.60357E+04  2.45146E+04  4.55234E+03  4.10481E+04
 -1.99760E+04  3.37720E+04 -3.06652E+04  1.20616E+04 -2.28400E+04 -9.65499E+03 -4.85469E+03 -1.28102E+04
  7.26995E+02 -9.36156E+02 -7.62713E+03  8.30433E+03 -2.03118E+04  5.12541E+03 -2.04382E+04 -9.88029E+03
 -1.19012E+04 -2.33959E+04  4.95509E+03 -2.78614E+04  1.82680E+04 -1.95723E+04  2.25861E+04 -1.88919E+03
  1.49514E+04  1.56277E+04 -1.45713E+03  2.30659E+04 -1.67522E+04  1.34722E+04 -2.41033E+04 -4.51012E+03
 -1.71413E+04 -2.12116E+04 -2.14765E+03 -2.79708E+04  1.31234E+04 -2.33156E+04  2.35429E+04 -1.13069E+04
  2.23370E+04 -8.54467E+02  1.57368E+04  5.08250E+03  8.76996E+03  1.82526E+03  1.18852E+04 -2.40527E+03
  2.16374E+04  2.98455E+03  2.57095E+04  1.78855E+04  1.83847E+04  3.74241E+04 -2.70786E+03  4.42528E+04
 -2.50502E+04  3.67656E+04 -4.27056E+04  1.88318E+04 -4.56065E+04 -3.49305E+03 -3.60344E+04 -2.59755E+04
 -1.39404E+04 -3.70727E+04  1.25704E+04 -3.25242E+04  2.84503E+04 -1.58687E+04  2.36364E+04  8.52059E+03
  7.86188E+03  1.87854E+04 -1.15440E+04  1.54045E+04 -2.04202E+04  2.50066E+03 -1.56090E+04 -1.32153E+04
 -5.32706E+02 -2.00852E+04  1.09558E+04 -1.46140E+04  1.34004E+04 -1.74965E+03  3.69496E+03  8.80436E+03
 -9.24345E+03  3.22020E+03 -8.25748E+03 -6.96111E+03 -1.79442E+03 -1.73965E+04  1.20786E+04 -2.01355E+04
  2.26504E+04 -1.15438E+04  2.60736E+04  3.87320E+03  2.34204E+04  1.94541E+04  1.11414E+04  3.01564E+04
 -4.91318E+03  3.12933E+04 -2.01867E+04  1.94766E+04 -2.28479E+04  3.79945E+03 -1.51128E+04 -5.61623E+03
 -6.49923E+03 -7.80444E+03 -3.06836E+02 -4.12272E+00 -2.76746E+03  3.60984E+03 -7.62113E+03  5.17235E+03
 -1.36524E+04 -8.36363E+02 -1.43211E+04 -1.12457E+04 -5.95112E+03 -1.95179E+04  6.21256E+03 -1.52885E+04
  1.33490E+04 -6.40203E+03  9.43505E+03  3.92862E+03 -7.92299E+02  6.13627E+03 -7.53721E+03  3.19444E+01
 -7.30638E+03 -1.02263E+04 -1.22254E+03 -1.50425E+04  9.39674E+03 -1.62595E+04  2.00158E+04 -8.21469E+03
  2.35551E+04  2.39493E+03  1.68280E+04  1.39669E+04  2.99943E+03  1.88253E+04 -9.64978E+03  1.51347E+04
 -1.30173E+04  5.17850E+03 -7.08413E+03 -3.37589E+03  3.13095E+03 -4.56596E+03  8.37589E+03 -1.59264E+02
  7.20164E+03  6.81033E+03  1.34424E+03  1.25193E+04 -8.55236E+03  1.18412E+04 -1.54378E+04  2.24472E+03
 -1.00435E+04 -8.55082E+03  8.15525E+01 -1.32254E+04  8.76784E+03 -6.76825E+03  9.42189E+03  2.75673E+03
  1.61705E+03  1.01619E+04 -8.87258E+03  1.19279E+04 -1.28081E+04  4.88882E+03 -1.37365E+04 -4.79617E+03
 -7.94180E+03 -1.58050E+04  3.93075E+03 -1.80523E+04  1.54532E+04 -1.09149E+04  1.69762E+04  2.17831E+03
  9.82561E+03  1.29689E+04 -1.66424E+03  1.59598E+04 -1.14942E+04  8.94283E+03 -1.31870E+04 -1.39838E+03
 -9.75958E+03 -1.03038E+04 -1.39947E+03 -1.15789E+04  6.29097E+03 -9.54563E+03  7.68208E+03 -2.92597E+03
  4.81396E+03  2.10923E+03 -1.24536E+03  1.05622E+03 -2.90075E+02 -3.50524E+03  3.39445E+03 -8.21018E+03
  1.24415E+04 -5.60475E+03  1.56885E+04  1.16701E+03  1.53580E+04  1.12967E+04  9.39505E+03  2.05751E+04
 -5.43004E+03  2.33721E+04 -1.95589E+04  1.80243E+04 -2.56504E+04  3.05815E+03 -2.03442E+04 -9.12551E+03
 -1.04674E+04 -1.64883E+04 -8.11412E+02 -1.52899E+04  5.25437E+03 -8.01135E+03  5.61902E+03 -5.86125E+03
  2.97948E+03 -3.24883E+03  3.71497E+03 -4.41670E+03  6.22826E+03 -3.55157E+03  7.25610E+03 -1.79836E+03
  1.01438E+04  1.87067E+03  5.32065E+03  8.94307E+03 -2.34922E+03  1.13550E+04 -1.11377E+04  8.29248E+03
 -1.50391E+04 -1.00241E+03 -8.35440E+03 -1.01156E+04 -1.80519E+02 -1.53286E+04  8.68646E+03 -1.55742E+04
  1.60908E+04 -7.87550E+03  1.85643E+04  2.96808E+03  1.29790E+04  1.28119E+04  1.65065E+03  1.73912E+04
 -6.72674E+03  1.41560E+04 -9.84423E+03  5.56960E+03 -7.42540E+03 -1.92212E+03 -1.92243E+03 -1.88313E+03
 -1.53050E+03 -1.41301E+02 -2.12634E+03  3.44031E+03 -5.93831E+03  2.66130E+03 -9.78650E+03 -1.19214E+03
 -6.65115E+03 -9.33874E+03 -7.45084E+01 -1.49669E+04  9.25675E+03 -1.31643E+04  1.37831E+04 -3.88764E+03
  1.42486E+04  6.68560E+03  6.34911E+03  1.27541E+04 -3.26444E+03  1.42076E+04 -9.84066E+03  8.55348E+03
 -1.42312E+04  9.81280E+02 -9.76601E+03 -8.41970E+03 -1.21818E+03 -1.15842E+04  6.40360E+03 -8.91951E+03
  8.72725E+03 -2.61703E+03  6.62025E+03  1.41596E+03  1.89423E+03  4.72002E+03  1.32724E+03  2.36651E+03
  2.42155E+03  1.00196E+03  3.16267E+03  2.62214E+03  3.50357E+03  4.51447E+03  3.98428E+03  7.76717E+03
 -2.32675E+03  1.12057E+04 -1.02929E+04  1.13003E+04 -1.46684E+04  3.23805E+03 -1.48316E+04 -5.57031E+03
 -7.04495E+03 -1.45210E+04  1.58740E+03 -1.59264E+04  8.83528E+03 -1.05202E+04  1.17791E+04 -3.01044E+03
  9.02485E+03  5.53552E+03  1.14218E+03  8.68520E+03 -3.77466E+03  5.37184E+03 -6.62106E+03 -1.55178E+03
 -2.69104E+03 -6.16663E+03  3.43524E+03 -5.86502E+03  5.57593E+03 -2.65968E+03  6.09825E+03  1.73627E+03
  3.92982E+03  3.90636E+03  9.69625E+02  2.10957E+03 -7.11717E+02  2.08375E+03  1.66818E+03 -1.06084E+03
  2.55349E+03 -7.12241E+02  5.81665E+03  2.39426E+03  3.79892E+03  7.61912E+03 -1.17091E+03  9.93204E+03
 -7.16316E+03  6.75032E+03 -8.72113E+03  1.68400E+03 -7.24270E+03 -2.80572E+03 -4.02396E+03 -5.22711E+03
  2.40808E+02 -6.39939E+03  2.87547E+03 -2.86483E+03  3.70551E+03  2.84303E+03 -7.08526E+02  5.12070E+03
 -5.36807E+03  3.39557E+03 -6.72128E+03 -3.63894E+03 -3.47985E+03 -8.19220E+03  1.43263E+03 -7.06274E+03
  4.57332E+03 -4.86642E+03  6.15439E+03 -9.36012E+02  4.36854E+03  1.45280E+03  7.84417E+02  4.67036E+03
 -3.29508E+03  1.30867E+03 -3.53388E+03 -2.40639E+03  1.53958E+03 -6.99597E+03  7.49287E+03 -5.04410E+03
  8.84446E+03  2.00756E+02  9.03586E+03  6.06697E+03  3.39711E+03  1.07094E+04 -3.28756E+03  8.63198E+03
 -7.45458E+03  3.51843E+03 -8.06644E+03 -1.23754E+03 -3.99081E+03 -6.33600E+03  1.51542E+03 -5.39691E+03
  5.46673E+03 -3.01603E+03  4.94856E+03  2.20515E+03  2.12329E+03  5.28867E+03 -8.72847E+02  5.15980E+03
 -3.48460E+03  2.66984E+03 -1.95854E+03  6.83710E+02 -1.62916E+03  1.13919E+03 -1.66305E+03  8.78733E+02
 -2.70885E+03  3.73494E+03 -6.31767E+03  2.49567E+03 -9.32503E+03 -6.13966E+02 -1.08786E+04 -6.28745E+03
 -5.58947E+03 -1.16229E+04  2.66785E+03 -1.41362E+04  9.18312E+03 -1.09092E+04  1.35237E+04 -3.60007E+03
  1.23429E+04  2.71601E+03  7.80366E+03  9.12281E+03  1.10592E+03  9.02356E+03 -4.07178E+03  7.54665E+03
 -5.70163E+03  2.19314E+03 -2.75276E+03 -2.03460E+03 -3.28751E+02 -1.00656E+03 -7.54130E+02 -2.11562E+02
 -1.79243E+03 -1.26883E+02 -1.89565E+03 -1.18753E+03 -7.57972E+02 -2.59562E+03 -2.02464E+02 -3.26222E+03
  3.83343E+03 -3.68517E+03  4.72495E+03 -1.71092E+02  6.09576E+03  4.96845E+03  1.93530E+03  8.85856E+03
 -4.20497E+03  9.94599E+03 -1.02870E+04  5.55205E+03 -1.13288E+04 -1.65713E+02 -8.71355E+03 -6.89342E+03
 -3.98133E+03 -9.79463E+03  2.33808E+03 -8.08346E+03  6.48030E+03 -4.67689E+03  5.84732E+03 -5.82620E+01
  3.90776E+03  3.46395E+03 -5.91331E+01  2.37315E+03 -1.71712E+03 -6.33775E+02 -5.85005E+01 -2.42911E+03
  3.26215E+03 -1.28392E+03  4.01162E+03  1.08570E+03  2.56749E+03  3.60327E+03  3.54268E+02  4.89980E+03
 -4.73421E+03  3.86143E+03 -6.47586E+03  6.96373E+02 -6.01142E+03 -4.50877E+03 -6.78330E+02 -7.75243E+03
  4.39677E+03 -6.35075E+03  7.90063E+03 -2.06408E+03  7.29888E+03  1.56543E+03  3.83988E+03  6.22808E+03
  9.69400E+02  6.12647E+03 -3.19660E+03  5.25868E+03 -3.27002E+03  2.63241E+03 -3.65810E+03  1.89830E+02
 -1.47919E+03 -6.13651E+02 -1.62202E+03  1.11608E+03 -2.74369E+03  1.27026E+03 -4.77021E+03 -7.48992E+02
 -3.88765E+03 -3.40318E+03 -1.68035E+03 -6.72191E+03  2.65439E+03 -6.41148E+03  5.92067E+03 -2.85729E+03
  6.27066E+03  1.34632E+03  3.00683E+03  4.93595E+03 -6.14659E+02  6.54567E+03 -5.30533E+03  3.99889E+03
