 $NMID ID='MM_0lb_SNR400_18hz_g55_13.RAW', FMTDAT='(8E13.5)'
 TRAMP=1., VOLUME=1. $END
  3.10010E+05  5.93532E+02  3.37364E+05  2.50854E+05  8.45969E+04  3.38017E+05 -1.32054E+05  2.50975E+05
 -1.89708E+05  8.30638E+04 -1.11319E+05 -3.20377E+04  7.92313E+02 -5.01230E+04  5.36653E+04  1.23291E+02
  3.51383E+04  5.27339E+04 -1.70348E+04  7.46748E+04 -6.07910E+04  6.26557E+04 -8.38676E+04  3.20081E+04
 -8.01698E+04 -1.16050E+04 -5.71516E+04 -5.08519E+04 -1.49397E+04 -6.90963E+04  2.74183E+04 -4.54476E+04
  3.95734E+04  3.80266E+03  1.65737E+04  4.70145E+04 -3.42356E+04  4.69331E+04 -6.63143E+04 -2.80759E+02
 -5.27754E+04 -5.62739E+04 -6.90033E+03 -7.58495E+04  3.36158E+04 -5.39761E+04  4.73896E+04 -1.66384E+04
  4.21756E+04  1.10484E+04  3.17660E+04  2.51568E+04  1.55258E+04  2.91024E+04 -5.16869E+03  2.72558E+04
 -2.18799E+04  1.28384E+04 -1.89525E+04 -5.06833E+03  5.14151E+03 -7.50924E+03  2.17189E+04  1.18703E+04
  7.04405E+03  3.45956E+04 -3.08845E+04  3.50195E+04 -6.16253E+04  2.35279E+03 -5.62454E+04 -4.18224E+04
 -1.26946E+04 -6.23153E+04  3.89935E+04 -4.42308E+04  5.63540E+04 -1.64337E+03  3.31563E+04  3.13965E+04
 -6.10033E+03  3.43191E+04 -2.91237E+04  1.45530E+04 -2.88160E+04 -4.61452E+03 -1.47687E+04 -1.04502E+04
 -7.42107E+03 -1.23945E+04 -7.49814E+02 -1.67641E+04  6.91119E+03 -2.32427E+04  1.49901E+04 -1.37609E+04
  1.19405E+04  4.75795E+03 -7.40131E+03  1.30730E+04 -2.00123E+04 -3.33951E+03 -8.30312E+03 -3.10501E+04
  2.13901E+04 -4.13763E+04  4.63049E+04 -1.86848E+04  4.26060E+04  1.86193E+04  1.47012E+04  4.24179E+04
 -1.52948E+04  3.16896E+04 -2.41520E+04  1.08971E+03 -8.78325E+03 -2.68542E+04  2.02119E+04 -3.26792E+04
  3.94224E+04 -8.06454E+03  3.29509E+04  2.30976E+04  1.61940E+04  4.37157E+04 -8.02652E+03  4.78036E+04
 -3.00746E+04  3.12869E+04 -3.88288E+04  9.03043E+03 -4.00840E+04 -1.56668E+04 -2.20042E+04 -3.60745E+04
  7.39882E+03 -3.52199E+04  2.97502E+04 -1.28991E+04  2.75602E+04  1.07904E+04  3.44898E+03  1.82061E+04
 -1.32493E+04  8.03716E+03 -9.69215E+03 -7.67448E+03  6.02012E+03 -9.92297E+03  1.76842E+04  6.10504E+03
  1.23073E+04  2.19101E+04 -6.33149E+03  2.35585E+04 -2.14473E+04  9.77333E+03 -2.60834E+04 -5.44310E+03
 -1.79949E+04 -1.63314E+04 -6.52274E+03 -1.78925E+04  3.17283E+03 -1.70193E+04  1.39914E+04 -1.65596E+04
  2.29150E+04 -1.20968E+04  2.96072E+04  1.60122E+03  2.14867E+04  1.76712E+04  3.78961E+03  3.35729E+04
 -1.69501E+04  2.86010E+04 -2.60604E+04  1.00152E+04 -2.04723E+04 -1.00038E+04 -4.18118E+03 -1.37548E+04
  2.27545E+03 -3.44378E+03 -2.99208E+03  5.91277E+03 -1.36517E+04  5.23277E+03 -1.37721E+04 -6.14500E+03
 -8.93121E+03 -1.65545E+04  4.66627E+03 -2.03254E+04  1.35830E+04 -1.47116E+04  1.57467E+04 -1.30258E+03
  9.78967E+03  1.17709E+04 -8.81020E+02  1.67865E+04 -1.09608E+04  8.98646E+03 -1.66245E+04 -3.66321E+03
 -1.29254E+04 -1.48249E+04 -1.44590E+03 -2.00152E+04  9.79586E+03 -1.61908E+04  1.66094E+04 -7.93127E+03
  1.50119E+04  7.12878E+02  1.12877E+04  4.53000E+03  5.89933E+03  1.51711E+02  8.01809E+03 -9.23628E+02
  1.56743E+04  3.00480E+03  1.64063E+04  1.32109E+04  1.01683E+04  2.66576E+04 -3.42077E+03  2.91521E+04
 -1.69013E+04  2.25748E+04 -2.65321E+04  1.12398E+04 -2.69865E+04 -2.35708E+03 -2.30095E+04 -1.56906E+04
 -1.10490E+04 -2.24114E+04  7.05357E+03 -2.08092E+04  1.80681E+04 -1.15066E+04  1.65660E+04  4.29211E+03
  6.66532E+03  1.23494E+04 -7.48323E+03  1.15028E+04 -1.40988E+04  2.49591E+03 -1.13518E+04 -8.40851E+03
  7.92931E+02 -1.34010E+04  6.96504E+03 -9.63815E+03  8.36791E+03 -1.77068E+03  1.60036E+03  4.91249E+03
 -5.77981E+03  1.70286E+03 -4.03999E+03 -4.93322E+03  3.43392E+02 -1.07041E+04  7.68278E+03 -1.10015E+04
  1.37273E+04 -4.77860E+03  1.33135E+04  2.92022E+03  1.21796E+04  1.06794E+04  5.12839E+03  1.58265E+04
 -1.88006E+03  1.73943E+04 -1.11085E+04  1.10828E+04 -1.25260E+04  3.47977E+03 -9.08455E+03 -2.57735E+03
 -4.82874E+03 -3.68833E+03 -1.89339E+02  1.52655E+03 -1.99244E+03  2.25727E+03 -3.24477E+03  3.50905E+03
 -9.19668E+03 -9.22636E+02 -9.61219E+03 -7.72808E+03 -3.75694E+03 -1.19432E+04  3.17067E+03 -9.20693E+03
  7.77378E+03 -4.09869E+03  5.65466E+03  2.65213E+03  5.04750E+02  3.17593E+03 -4.20099E+03 -2.93206E+02
 -3.62963E+03 -5.82363E+03 -1.47594E+03 -8.23442E+03  5.19539E+03 -8.46210E+03  1.03211E+04 -4.18429E+03
  1.28309E+04  1.06163E+03  1.01456E+04  6.98721E+03  1.71388E+03  9.89403E+03 -5.18602E+03  8.90528E+03
 -6.71915E+03  2.97384E+03 -4.23309E+03 -1.32504E+03  1.28727E+03 -2.64800E+03  5.41286E+03 -9.69396E+02
  4.06081E+03  3.77229E+03  7.29259E+02  6.33465E+03 -5.00389E+03  6.92476E+03 -8.22302E+03  2.01346E+03
 -4.91609E+03 -4.00889E+03  4.92524E+02 -6.98147E+03  3.81190E+03 -3.92968E+03  4.32502E+03  8.50592E+02
  1.79146E+02  4.55494E+03 -4.12220E+03  5.15967E+03 -5.89846E+03  2.89027E+03 -5.23594E+03 -1.39958E+03
 -3.15139E+03 -6.82329E+03  9.39061E+02 -8.04956E+03  6.74377E+03 -5.41039E+03  7.44949E+03  1.10744E+03
  4.73538E+03  5.40845E+03  2.15618E+02  7.73363E+03 -4.89249E+03  4.27355E+03 -5.66341E+03  1.73586E+02
 -5.71894E+03 -5.95434E+03 -1.35451E+03 -5.80911E+03  2.47316E+03 -4.65737E+03  3.31724E+03 -2.91400E+03
  2.97685E+03  1.14863E+02  1.57364E+02  1.39792E+03  2.69327E+02 -8.48309E+02  1.65947E+02 -2.42725E+03
  4.38792E+03 -1.07200E+03  6.12058E+03  1.01316E+03  6.12938E+03  3.79203E+03  6.00989E+03  8.29337E+03
 -1.53980E+03  9.34340E+03 -8.40529E+03  6.83923E+03 -1.14548E+04  1.57411E+03 -8.61613E+03 -3.01928E+03
 -4.45878E+03 -7.28608E+03 -4.13740E+02 -5.98312E+03  1.68843E+03 -2.73456E+03  2.20865E+03 -2.05548E+03
  1.10592E+03 -1.82522E+03  2.02923E+03 -3.01467E+03  3.92350E+03 -1.53186E+03  3.51702E+03  2.07514E+02
  4.34959E+03  5.37999E+02  1.71376E+03  3.35102E+03 -1.51901E+03  3.88127E+03 -4.85728E+03  2.73908E+03
 -4.90310E+03 -8.12814E+02 -2.51938E+03 -3.45368E+03  3.03356E+02 -5.74084E+03  3.65662E+03 -5.91712E+03
  6.06923E+03 -3.52682E+03  7.15151E+03  6.94101E+02  5.72381E+03  4.43357E+03  1.28224E+03  6.63614E+03
 -1.90719E+03  6.24765E+03 -3.99518E+03  2.46819E+03 -1.98873E+03 -1.29788E+03 -5.20864E+02 -5.80234E+02
 -2.80989E+01  4.73201E+02 -8.75225E+02  1.50210E+03 -2.63112E+03  1.38591E+03 -4.27612E+03 -2.24149E+02
 -1.87740E+03 -3.98989E+03  1.00716E+03 -4.93644E+03  3.43973E+03 -5.01539E+03  3.84115E+03 -1.02011E+03
  4.29087E+03  2.22383E+03  1.94038E+03  3.28602E+03 -7.93590E+02  4.80035E+03 -3.00189E+03  2.98287E+03
 -4.39114E+03  1.23491E+03 -3.54531E+03 -3.04022E+03 -3.96726E+02 -3.53389E+03  2.06905E+03 -2.44109E+03
  3.24494E+03 -1.87416E+03  2.05122E+03  3.00165E+02 -8.20649E+01  1.63558E+03  9.29023E+02  1.47440E+02
  2.11863E+03  6.43318E+02  9.29871E+02  1.10333E+03  1.91442E+03  2.14989E+03  2.08231E+03  2.28394E+03
 -1.82047E+03  3.20546E+03 -2.95445E+03  4.48891E+03 -3.40774E+03  1.84570E+03 -4.52155E+03 -9.58910E+02
 -2.10651E+03 -4.29056E+03  6.38504E+02 -5.26151E+03  1.88669E+03 -2.49623E+03  3.61603E+03 -9.05928E+02
  2.89055E+03  1.80424E+03  3.00738E+02  3.13353E+03 -1.74957E+02  1.64325E+03 -1.17452E+03  4.65261E+02
 -1.07339E+03 -1.47781E+03  8.30618E+02 -1.94278E+03  9.57093E+02 -1.45536E+03  1.37911E+03 -4.46741E+01
  3.81482E+02  6.46765E+02  7.01692E+02 -4.50334E+02 -5.72643E+02  5.28454E+02  1.46209E+03 -1.92241E+02
  3.05059E+02 -5.76440E+02  2.07942E+03  6.96272E+02  8.85722E+02  2.84558E+03 -4.63929E+02  2.47432E+03
 -1.78840E+03  1.11967E+03 -2.08718E+03  4.38732E+02 -2.85140E+03 -1.35642E+03  2.29993E+00 -8.35165E+02
  1.28045E+02 -1.64610E+03  1.32209E+03 -7.84278E+02  7.05595E+02  1.51535E+03 -8.04675E+02  1.50353E+03
 -1.28187E+03  5.57386E+02 -1.30100E+03 -1.16188E+03 -4.13859E+02 -2.42108E+03 -9.10909E+00 -2.24638E+03
  7.63003E+02 -7.54919E+02  7.85442E+02 -1.35421E+02  1.35117E+03 -2.11365E+02  9.12968E+02  1.11895E+03
 -7.23426E+02  3.29144E+01 -1.07146E+03 -3.23346E+02  6.92118E+02 -9.88412E+02  1.79710E+03 -1.61848E+03
  1.57510E+03 -1.80977E+00  3.01505E+03  1.21623E+03  1.41994E+03  1.60446E+03 -7.56955E+02  1.88847E+03
 -2.11470E+03  6.24418E+02 -1.11457E+03 -6.07181E+02 -1.02045E+03 -1.61927E+03  5.50059E+01 -8.80787E+02
  1.10289E+03 -8.38112E+02  6.43256E+02  7.39889E+02  4.64841E+02  1.46686E+03  7.98221E+02  5.47108E+02
 -4.88630E+02  1.03176E+03 -5.20662E+02  2.48998E+02  1.85585E+01  7.80741E+02 -4.42750E+02  8.32509E+02
 -6.49144E+02  9.85061E+02 -2.02163E+03  3.68893E+02 -1.56260E+03  3.71649E+02 -2.12858E+03 -1.25566E+03
 -1.44946E+03 -2.68959E+03  6.76368E+02 -3.28452E+03  1.51652E+03 -2.22174E+03  3.42034E+03 -9.76454E+02
  2.20496E+03  3.36283E+02  1.32324E+03  1.95682E+03 -3.19620E+02  2.00492E+03 -7.34010E+02  8.49127E+02
 -8.32682E+02  1.09183E+03 -7.91041E+02 -2.92475E+02 -2.88682E+02  3.76066E+02 -5.55464E+02 -1.89675E+01
 -1.40946E+03 -1.17767E+02 -8.77335E+02  1.79006E+02 -3.33403E+02 -3.54535E+02  3.81625E+00 -8.01864E+02
  1.02267E+03 -2.86565E+02  3.19177E+02  6.90121E+01  1.43879E+03  6.77604E+02 -6.42981E+02  1.50802E+03
 -9.82795E+02  2.23424E+03 -2.04168E+03  1.23321E+03 -1.70478E+03 -7.30655E+02 -1.42004E+03 -1.47955E+03
 -1.31384E+03 -1.64463E+03  4.89792E+02 -1.73405E+03  9.72508E+02 -2.66352E+02  1.70731E+03  4.53681E+02
  8.72194E+02  2.46493E+02  3.10751E+02  6.30131E+02 -7.18788E+02 -4.67307E+02 -2.86739E+00 -2.18083E+01
  5.98114E+02  3.54058E+02  8.06762E+01  6.52836E+02  3.01813E+02  6.72769E+02  8.15447E+02  2.69525E+02
 -7.03441E+02  6.21906E+02 -2.12642E+02  5.85323E+02 -2.71066E+02 -5.52937E+02  2.62140E+02 -1.10230E+03
  1.04791E+03 -8.71270E+02  9.07667E+02  2.97946E+02  1.48886E+03 -8.87690E+02  7.47122E+02  7.41645E+02
  2.27815E+02  1.47337E+02 -2.78108E+02 -4.14586E+01 -4.57707E+02  6.99485E+02 -4.59918E+01  2.14071E+01
 -4.24360E+02 -2.82340E+02 -2.26048E+02 -1.69827E+02 -1.87640E+02 -9.11092E+01 -7.57361E+02  8.89098E+01
 -7.50788E+02  1.07774E+01 -6.69735E+02 -8.96487E+02  5.63073E+02 -1.67493E+03  3.62521E+02 -2.50565E+02
  5.53228E+02 -2.78517E+02 -8.28308E+02  4.91517E+02 -1.02670E+02  9.67780E+02 -7.87963E+02  6.40062E+02
