 $NMID ID='MM_0lb_SNR400_10hz_g40_29.RAW', FMTDAT='(8E13.5)'
 TRAMP=1., VOLUME=1. $END
  3.09588E+05  1.84863E+02  3.37955E+05  2.50229E+05  8.40509E+04  3.38247E+05 -1.32489E+05  2.51436E+05
 -1.90336E+05  8.42869E+04 -1.12004E+05 -3.24890E+04  3.30422E+02 -5.06778E+04  5.36242E+04  1.07430E+00
  3.48717E+04  5.25361E+04 -1.66379E+04  7.60205E+04 -6.11069E+04  6.36144E+04 -8.46872E+04  3.19756E+04
 -8.22440E+04 -1.13909E+04 -5.77839E+04 -5.18771E+04 -1.55329E+04 -6.95959E+04  2.83553E+04 -4.62905E+04
  3.99929E+04  3.34038E+03  1.62858E+04  4.81412E+04 -3.50410E+04  4.75387E+04 -6.74273E+04 -2.17256E+02
 -5.33738E+04 -5.75340E+04 -6.46554E+03 -7.83805E+04  3.47660E+04 -5.68347E+04  4.91097E+04 -1.78926E+04
  4.45860E+04  1.18603E+04  3.17566E+04  2.60345E+04  1.67601E+04  3.04778E+04 -5.97106E+03  2.75819E+04
 -2.22476E+04  1.25580E+04 -1.81280E+04 -4.56747E+03  6.39788E+03 -7.49747E+03  2.28752E+04  1.33346E+04
  7.45715E+03  3.66434E+04 -3.29881E+04  3.63805E+04 -6.50741E+04  1.91186E+03 -5.77639E+04 -4.38729E+04
 -1.27074E+04 -6.50761E+04  4.09759E+04 -4.63050E+04  5.94476E+04 -2.20778E+03  3.58831E+04  3.33776E+04
 -5.55022E+03  3.76674E+04 -3.13177E+04  1.73204E+04 -3.22991E+04 -4.42646E+03 -1.81636E+04 -1.17774E+04
 -8.22548E+03 -1.43790E+04 -1.77939E+02 -1.98552E+04  8.37972E+03 -2.33231E+04  1.49919E+04 -1.22161E+04
  1.08083E+04  5.38470E+03 -1.00946E+04  1.27446E+04 -2.26308E+04 -5.69294E+03 -8.60931E+03 -3.52429E+04
  2.46580E+04 -4.51211E+04  5.05506E+04 -2.08127E+04  4.67277E+04  2.00025E+04  1.70531E+04  4.61262E+04
 -1.60729E+04  3.54626E+04 -2.68531E+04  2.25767E+03 -1.09758E+04 -2.90752E+04  2.14149E+04 -3.64193E+04
  4.32859E+04 -9.91859E+03  3.84014E+04  2.43081E+04  1.94432E+04  4.94886E+04 -7.80954E+03  5.36594E+04
 -3.36440E+04  3.63856E+04 -4.53829E+04  1.05822E+04 -4.59478E+04 -1.82116E+04 -2.44794E+04 -4.05313E+04
  7.64527E+03 -4.00820E+04  3.31596E+04 -1.66439E+04  3.02894E+04  1.12208E+04  4.72666E+03  2.05184E+04
 -1.34822E+04  9.51803E+03 -1.15254E+04 -6.68411E+03  5.89879E+03 -1.03146E+04  1.81232E+04  5.59151E+03
  1.39691E+04  2.29229E+04 -5.26407E+03  2.66243E+04 -2.24940E+04  1.31644E+04 -3.06228E+04 -3.36914E+03
 -2.31392E+04 -1.82370E+04 -1.01729E+04 -2.32241E+04  3.87266E+03 -2.33895E+04  1.84886E+04 -2.12115E+04
  2.94642E+04 -1.42292E+04  3.56165E+04  4.54944E+03  2.51645E+04  2.22754E+04  4.54194E+03  3.94566E+04
 -1.91931E+04  3.27017E+04 -2.96993E+04  1.12472E+04 -2.13691E+04 -9.77080E+03 -4.40500E+03 -1.22317E+04
  1.54108E+03 -1.58409E+03 -6.64974E+03  8.34395E+03 -1.80114E+04  5.33384E+03 -1.89211E+04 -8.11932E+03
 -1.20621E+04 -2.16017E+04  5.81355E+03 -2.59722E+04  1.71857E+04 -1.89462E+04  2.05160E+04 -1.53387E+03
  1.30578E+04  1.50880E+04 -1.00840E+03  2.16528E+04 -1.46663E+04  1.30146E+04 -2.18135E+04 -4.72513E+03
 -1.59546E+04 -1.95489E+04 -1.69091E+03 -2.61630E+04  1.15652E+04 -2.15603E+04  2.21837E+04 -1.06917E+04
  1.96534E+04 -2.29718E+02  1.47983E+04  5.18220E+03  7.92417E+03  1.72605E+03  1.13215E+04 -2.54082E+03
  2.04098E+04  2.73537E+03  2.33785E+04  1.64459E+04  1.55544E+04  3.55177E+04 -2.55824E+03  4.08751E+04
 -2.25292E+04  3.35474E+04 -3.73661E+04  1.68953E+04 -4.05445E+04 -2.78268E+03 -3.23925E+04 -2.39077E+04
 -1.26512E+04 -3.44005E+04  1.17485E+04 -2.98026E+04  2.55398E+04 -1.41115E+04  2.17313E+04  6.65852E+03
  7.67509E+03  1.75654E+04 -1.04841E+04  1.48742E+04 -1.88161E+04  2.24779E+03 -1.37624E+04 -1.16314E+04
 -1.98605E+02 -1.73042E+04  9.82428E+03 -1.40731E+04  1.23013E+04 -1.05089E+03  2.57063E+03  7.11922E+03
 -7.92450E+03  3.53596E+03 -8.61544E+03 -6.58030E+03 -2.04186E+03 -1.49368E+04  1.09789E+04 -1.79631E+04
  2.08417E+04 -9.47935E+03  2.32604E+04  2.61089E+03  1.97858E+04  1.64827E+04  9.85082E+03  2.57356E+04
 -5.00521E+03  2.75483E+04 -1.80113E+04  1.71291E+04 -1.91679E+04  3.93311E+03 -1.39162E+04 -5.11134E+03
 -5.57550E+03 -5.75683E+03 -1.29150E+03  1.29419E+03 -3.21563E+03  3.46240E+03 -6.47877E+03  4.99950E+03
 -1.33076E+04 -5.97510E+02 -1.31324E+04 -1.07571E+04 -5.47609E+03 -1.78134E+04  5.56388E+03 -1.38088E+04
  1.14104E+04 -6.06682E+03  8.58202E+03  4.58286E+03 -2.29358E+00  5.82174E+03 -6.14437E+03 -6.50687E+02
 -6.76675E+03 -9.45378E+03 -1.37958E+03 -1.36134E+04  8.08960E+03 -1.48004E+04  1.74226E+04 -8.13492E+03
  2.12946E+04  2.57628E+03  1.51607E+04  1.23288E+04  2.72286E+03  1.59583E+04 -9.12440E+03  1.44478E+04
 -1.13448E+04  3.94568E+03 -6.33165E+03 -2.67896E+03  2.30121E+03 -4.53690E+03  7.54194E+03 -2.07289E+03
  6.46600E+03  6.11243E+03  1.37586E+03  1.08427E+04 -8.75371E+03  1.09636E+04 -1.35440E+04  2.54063E+03
 -9.65515E+03 -7.25184E+03  1.42199E+02 -1.13334E+04  7.48306E+03 -6.47349E+03  8.54977E+03  3.20843E+03
  2.23953E+03  8.21954E+03 -7.38535E+03  1.05220E+04 -1.19263E+04  4.48283E+03 -1.16671E+04 -4.15999E+03
 -6.67933E+03 -1.36161E+04  2.95223E+03 -1.54855E+04  1.30618E+04 -9.28512E+03  1.46305E+04  2.36819E+03
  8.32272E+03  1.25590E+04 -1.21261E+03  1.31182E+04 -9.45754E+03  7.16180E+03 -1.07805E+04 -5.83822E+02
 -9.39978E+03 -9.78450E+03 -1.26942E+03 -1.07674E+04  5.89165E+03 -8.61666E+03  6.84858E+03 -3.48843E+03
  4.33115E+03  1.95692E+03 -8.44080E+02  1.43205E+03 -5.19574E+02 -2.72985E+03  2.33729E+03 -6.40869E+03
  9.14542E+03 -3.67959E+03  1.34889E+04  1.71805E+03  1.28655E+04  9.36094E+03  9.61489E+03  1.73509E+04
 -3.47996E+03  2.05703E+04 -1.74942E+04  1.55580E+04 -2.17401E+04  3.20870E+03 -1.83713E+04 -7.17080E+03
 -9.15792E+03 -1.46221E+04 -1.51136E+02 -1.24248E+04  5.23795E+03 -6.85509E+03  4.14284E+03 -4.48793E+03
  3.18650E+03 -2.78009E+03  3.65783E+03 -3.68858E+03  5.91777E+03 -2.38744E+03  7.26239E+03 -1.38980E+03
  9.32174E+03  1.59324E+03  5.04748E+03  7.84506E+03 -2.57613E+03  8.57593E+03 -9.44566E+03  7.47077E+03
 -1.20371E+04 -1.43308E+03 -7.63305E+03 -9.01783E+03 -2.25333E+02 -1.33162E+04  8.11558E+03 -1.31567E+04
  1.43567E+04 -7.17949E+03  1.69259E+04  2.40315E+03  1.13159E+04  1.10782E+04  2.26217E+03  1.50161E+04
 -6.79264E+03  1.26423E+04 -8.98818E+03  4.60479E+03 -5.89445E+03 -1.70748E+03 -2.39505E+03 -2.54976E+03
 -1.30784E+03 -3.39036E+02 -1.43714E+03  2.55181E+03 -5.02215E+03  2.31819E+03 -9.38565E+03 -3.56594E+02
 -5.81937E+03 -8.62279E+03 -1.29590E+01 -1.20395E+04  7.49562E+03 -1.19886E+04  1.15822E+04 -3.52764E+03
  1.21504E+04  5.45416E+03  5.65415E+03  1.09384E+04 -2.53642E+03  1.30559E+04 -9.40964E+03  7.33407E+03
 -1.16711E+04  6.09592E+02 -8.95030E+03 -6.63393E+03 -1.59428E+03 -1.01779E+04  5.12194E+03 -7.24098E+03
  7.64375E+03 -2.00960E+03  5.45654E+03  2.46268E+03  1.59475E+03  3.58578E+03  1.01958E+03  1.80892E+03
  2.21853E+03  3.58887E+02  3.19479E+03  1.82018E+03  3.56828E+03  4.60141E+03  3.26356E+03  6.44416E+03
 -2.82979E+03  1.01664E+04 -8.32237E+03  9.77391E+03 -1.20484E+04  1.96421E+03 -1.32884E+04 -4.74437E+03
 -6.80584E+03 -1.26679E+04  1.98147E+03 -1.39335E+04  7.54520E+03 -8.61703E+03  1.03565E+04 -1.76615E+03
  8.46361E+03  3.97447E+03  1.79063E+03  6.96649E+03 -3.49848E+03  4.03054E+03 -5.67917E+03 -1.98278E+02
 -2.17658E+03 -4.71109E+03  2.75877E+03 -4.81470E+03  5.51716E+03 -2.50704E+03  4.75851E+03  1.19004E+03
  2.30834E+03  1.61858E+03  9.90815E+02  1.53662E+03 -3.57375E+02  9.52090E+02  1.66446E+03 -5.60730E+02
  2.54010E+03 -9.32723E+02  4.77019E+03  2.05167E+03  3.22756E+03  6.75010E+03 -8.22797E+02  8.27754E+03
 -6.52217E+03  5.90404E+03 -8.15046E+03  1.45866E+03 -7.81602E+03 -3.17377E+03 -2.91273E+03 -5.54951E+03
  4.02194E+02 -4.74628E+03  3.32289E+03 -2.62507E+03  2.39111E+03  2.17481E+03 -1.57803E+03  3.08924E+03
 -4.73496E+03  2.49306E+03 -5.69383E+03 -3.01700E+03 -3.69809E+03 -6.46583E+03  5.74628E+02 -6.76983E+03
  3.93671E+03 -3.79495E+03  4.20923E+03 -1.56165E+02  4.76068E+03  9.41448E+02  3.55524E+01  3.99899E+03
 -2.64938E+03  1.58355E+03 -3.76697E+03 -2.43349E+03  8.14975E+02 -6.06525E+03  5.93836E+03 -3.90071E+03
  7.53547E+03  5.32163E+02  7.77636E+03  5.67486E+03  2.82734E+03  7.66600E+03 -2.87468E+03  6.85361E+03
 -6.26038E+03  3.31876E+03 -7.02714E+03 -9.54515E+02 -3.61871E+03 -5.21409E+03  1.54780E+03 -5.32718E+03
  5.10658E+03 -2.65042E+03  3.30462E+03  2.03610E+03  1.34361E+03  4.67379E+03 -6.74404E+02  3.85637E+03
 -1.66339E+03  2.50908E+03 -1.85902E+03  1.73070E+02 -1.73281E+03  5.90969E+02 -1.42424E+03  2.68939E+03
 -1.86446E+03  3.32655E+03 -5.89047E+03  2.67182E+03 -7.53305E+03  3.34400E+02 -9.51984E+03 -5.72325E+03
 -4.47616E+03 -1.09905E+04  2.55442E+03 -1.18862E+04  7.14021E+03 -9.01587E+03  1.21101E+04 -3.30458E+03
  1.09534E+04  1.79548E+03  5.78380E+03  6.61642E+03  7.17116E+02  7.88155E+03 -3.46116E+03  6.08265E+03
 -4.43410E+03  2.14344E+03 -2.89605E+03 -1.86535E+02 -7.79350E+02 -6.13245E+02 -1.48010E+03  1.27490E+03
 -1.34363E+03  1.43804E+03 -2.03707E+03 -5.15558E+02 -6.96812E+02 -2.12989E+03 -6.27782E+01 -3.99096E+03
  3.62791E+03 -3.11810E+03  4.72644E+03 -2.26744E+02  4.91183E+03  4.61945E+03  1.86927E+03  8.10628E+03
 -4.17855E+03  9.36835E+03 -8.95275E+03  5.53666E+03 -9.92432E+03 -8.64342E+02 -7.26733E+03 -6.83312E+03
 -3.00672E+03 -8.29085E+03  2.19946E+03 -7.71889E+03  5.56462E+03 -3.83307E+03  4.21889E+03 -3.90986E+01
  3.01782E+03  2.73323E+03  1.07835E+02  2.70727E+03 -1.00782E+03 -2.71663E+02  5.33764E+02 -1.60344E+03
  2.46662E+03 -1.08319E+03  2.77766E+03  1.12596E+03  2.09111E+03  3.27953E+03 -6.81064E+02  4.38676E+03
 -3.72640E+03  3.86162E+03 -5.46695E+03 -9.78919E+01 -5.19984E+03 -4.58648E+03 -6.23424E+02 -5.82395E+03
  4.10149E+03 -5.60168E+03  6.36137E+03 -1.35806E+03  6.15148E+03  1.21880E+03  3.82815E+03  5.10153E+03
  1.47285E+03  5.27854E+03 -2.61999E+03  3.75056E+03 -2.98549E+03  2.77278E+03 -2.66265E+03  5.83509E+01
 -1.01792E+03 -4.44010E+02 -2.03597E+03  4.34861E+02 -2.89910E+03  1.29544E+03 -4.68746E+03 -7.86286E+02
 -4.69075E+03 -2.74630E+03 -9.38488E+02 -5.45357E+03  2.51800E+03 -5.81254E+03  4.47601E+03 -2.08430E+03
  5.22531E+03 -1.19719E+02  2.33394E+03  3.94062E+03 -3.98880E+02  5.47712E+03 -4.50652E+03  3.43285E+03
