 $NMID ID='MM_0lb_SNR400_9hz_g50_40.RAW', FMTDAT='(8E13.5)'
 TRAMP=1., VOLUME=1. $END
  3.09779E+05 -6.73162E+02  3.37011E+05  2.50259E+05  8.46178E+04  3.38632E+05 -1.32611E+05  2.52399E+05
 -1.91001E+05  8.38154E+04 -1.13309E+05 -3.19944E+04  9.10106E+02 -5.07865E+04  5.32712E+04 -1.11536E+03
  3.55141E+04  5.34285E+04 -1.60468E+04  7.61603E+04 -6.14196E+04  6.37820E+04 -8.53106E+04  3.23303E+04
 -8.26457E+04 -1.25725E+04 -5.81480E+04 -5.23811E+04 -1.51158E+04 -7.07668E+04  2.79565E+04 -4.71228E+04
  4.12948E+04  3.01660E+03  1.67958E+04  4.84476E+04 -3.50372E+04  4.81504E+04 -6.82766E+04  5.11035E+02
 -5.48014E+04 -5.81269E+04 -7.62164E+03 -7.94216E+04  3.43797E+04 -5.59334E+04  5.00807E+04 -1.78347E+04
  4.51466E+04  1.15187E+04  3.26554E+04  2.65914E+04  1.65495E+04  3.09053E+04 -5.38496E+03  2.80395E+04
 -2.17246E+04  1.15266E+04 -1.80912E+04 -5.36778E+03  7.19593E+03 -7.28172E+03  2.33756E+04  1.49899E+04
  6.99895E+03  3.73799E+04 -3.41564E+04  3.74014E+04 -6.65368E+04  2.56549E+03 -5.91785E+04 -4.43751E+04
 -1.31630E+04 -6.66306E+04  4.19288E+04 -4.75376E+04  6.18404E+04 -2.97924E+03  3.59165E+04  3.37488E+04
 -6.01007E+03  3.91528E+04 -3.15726E+04  1.85207E+04 -3.32167E+04 -3.37611E+03 -1.94765E+04 -1.12957E+04
 -8.96466E+03 -1.49820E+04 -9.54488E+02 -1.98079E+04  8.35563E+03 -2.38248E+04  1.55716E+04 -1.29343E+04
  1.15260E+04  5.33209E+03 -1.11677E+04  1.27184E+04 -2.31324E+04 -6.35076E+03 -8.15310E+03 -3.71577E+04
  2.47570E+04 -4.61652E+04  5.20639E+04 -2.08030E+04  4.81861E+04  2.06729E+04  1.73691E+04  4.73461E+04
 -1.73522E+04  3.56552E+04 -2.72333E+04  2.71426E+03 -1.28820E+04 -2.91355E+04  2.02934E+04 -3.68665E+04
  4.41067E+04 -1.11152E+04  4.00471E+04  2.53630E+04  2.10392E+04  5.10213E+04 -8.58107E+03  5.63181E+04
 -3.47243E+04  3.87577E+04 -4.69443E+04  1.12101E+04 -4.73961E+04 -1.97242E+04 -2.59885E+04 -4.23521E+04
  8.18236E+03 -4.19887E+04  3.36500E+04 -1.78088E+04  3.20011E+04  1.12350E+04  5.58269E+03  2.09576E+04
 -1.40369E+04  1.00278E+04 -1.13930E+04 -7.88289E+03  5.71477E+03 -1.08708E+04  1.84820E+04  4.60457E+03
  1.45529E+04  2.21570E+04 -5.10006E+03  2.62168E+04 -2.33878E+04  1.38666E+04 -3.14748E+04 -3.01722E+03
 -2.48586E+04 -1.81742E+04 -1.06715E+04 -2.51991E+04  4.72892E+03 -2.50898E+04  1.89943E+04 -2.35552E+04
  3.15386E+04 -1.32955E+04  3.84693E+04  5.01811E+03  2.66716E+04  2.42102E+04  3.86400E+03  4.12343E+04
 -1.94874E+04  3.33683E+04 -3.03754E+04  1.15478E+04 -2.34308E+04 -9.74210E+03 -5.30256E+03 -1.30041E+04
  6.53950E+02 -1.02190E+03 -7.59007E+03  7.81526E+03 -1.99215E+04  5.42705E+03 -2.08267E+04 -9.84181E+03
 -1.18344E+04 -2.39403E+04  6.41034E+03 -2.87151E+04  1.80748E+04 -1.95893E+04  2.26841E+04 -1.85164E+03
  1.46734E+04  1.53642E+04 -9.73054E+02  2.30472E+04 -1.68198E+04  1.43419E+04 -2.36267E+04 -4.52899E+03
 -1.75460E+04 -2.07482E+04 -1.90261E+03 -2.78758E+04  1.29767E+04 -2.39771E+04  2.28694E+04 -1.26451E+04
  2.18567E+04 -4.18956E+02  1.58564E+04  4.85260E+03  9.18800E+03  1.75289E+03  1.24093E+04 -2.52119E+03
  2.22249E+04  3.82771E+03  2.55358E+04  1.85079E+04  1.69934E+04  3.76455E+04 -1.94347E+03  4.48140E+04
 -2.51244E+04  3.66007E+04 -4.14037E+04  1.93120E+04 -4.49852E+04 -3.13913E+03 -3.58924E+04 -2.57462E+04
 -1.43646E+04 -3.72940E+04  1.29176E+04 -3.30747E+04  2.75722E+04 -1.56545E+04  2.36276E+04  8.16566E+03
  8.36170E+03  1.81144E+04 -1.13935E+04  1.56848E+04 -1.97587E+04  3.04762E+03 -1.54267E+04 -1.34015E+04
 -3.04138E+02 -1.96135E+04  1.02028E+04 -1.43202E+04  1.29852E+04 -1.58546E+03  3.78992E+03  8.53973E+03
 -9.42354E+03  4.74304E+03 -9.05181E+03 -6.56561E+03 -1.95811E+03 -1.84400E+04  1.19076E+04 -1.92703E+04
  2.28711E+04 -1.09993E+04  2.64146E+04  3.37794E+03  2.31634E+04  1.84467E+04  1.00819E+04  2.90036E+04
 -5.60067E+03  3.08002E+04 -2.06328E+04  1.92339E+04 -2.25997E+04  3.58574E+03 -1.52094E+04 -6.25034E+03
 -6.39792E+03 -6.29471E+03 -1.27743E+03  1.46612E+03 -1.91768E+03  4.07410E+03 -7.29368E+03  5.38039E+03
 -1.38768E+04 -9.14067E+02 -1.43707E+04 -1.24496E+04 -6.00558E+03 -1.88309E+04  6.03039E+03 -1.61076E+04
  1.32390E+04 -6.85197E+03  9.85260E+03  4.50125E+03 -2.46171E+02  6.14318E+03 -7.08938E+03  8.57660E+00
 -7.28908E+03 -1.00970E+04 -1.49620E+03 -1.56196E+04  8.70049E+03 -1.67171E+04  2.04825E+04 -8.90880E+03
  2.32763E+04  1.77073E+03  1.70825E+04  1.46606E+04  2.91892E+03  1.89831E+04 -9.34484E+03  1.58629E+04
 -1.25940E+04  5.25578E+03 -5.91522E+03 -3.27439E+03  2.12790E+03 -5.50071E+03  7.71171E+03 -9.30090E+02
  8.07457E+03  6.70441E+03  1.34067E+03  1.30842E+04 -9.63867E+03  1.29673E+04 -1.53371E+04  2.98790E+03
 -1.04231E+04 -8.16897E+03  4.85577E+00 -1.29441E+04  9.28650E+03 -6.99289E+03  9.25286E+03  3.51545E+03
  1.95551E+03  9.66154E+03 -9.03475E+03  1.16967E+04 -1.36078E+04  5.20092E+03 -1.46827E+04 -4.49741E+03
 -8.28802E+03 -1.61384E+04  3.64692E+03 -1.84637E+04  1.61468E+04 -1.07416E+04  1.69486E+04  2.33144E+03
  1.00562E+04  1.30002E+04 -1.72403E+03  1.65570E+04 -1.21958E+04  9.19260E+03 -1.28126E+04 -9.68547E+02
 -1.03524E+04 -1.04582E+04 -1.18405E+03 -1.20399E+04  6.83701E+03 -1.01813E+04  8.38057E+03 -3.90345E+03
  4.38032E+03  2.26496E+03 -1.38307E+03  2.03235E+03 -5.05411E+02 -4.42060E+03  2.55019E+03 -7.36189E+03
  1.25667E+04 -5.33594E+03  1.62532E+04  1.46983E+03  1.54369E+04  1.10266E+04  9.81608E+03  2.04666E+04
 -5.09416E+03  2.31934E+04 -1.90099E+04  1.72096E+04 -2.58126E+04  2.73733E+03 -2.00997E+04 -9.23613E+03
 -1.05174E+04 -1.68339E+04 -5.67257E+02 -1.40501E+04  5.29399E+03 -8.70448E+03  5.56435E+03 -5.27155E+03
  4.10981E+03 -3.67458E+03  4.26842E+03 -3.08485E+03  5.87027E+03 -3.46016E+03  7.92352E+03 -1.39763E+03
  1.13207E+04  1.75123E+03  5.57024E+03  9.90627E+03 -2.30892E+03  1.12798E+04 -1.19504E+04  7.57887E+03
 -1.49162E+04 -1.51192E+03 -9.84052E+03 -1.03296E+04 -1.47978E+03 -1.61028E+04  8.78875E+03 -1.59007E+04
  1.67362E+04 -8.75874E+03  1.96798E+04  3.10645E+03  1.37129E+04  1.39068E+04  2.65284E+03  1.85019E+04
 -7.19771E+03  1.37181E+04 -1.07686E+04  4.82852E+03 -7.30400E+03 -1.67931E+03 -2.27818E+03 -2.68083E+03
 -7.55712E+02 -5.83344E+02 -2.68759E+03  3.08264E+03 -6.35584E+03  2.76353E+03 -1.03646E+04 -1.32740E+03
 -7.34497E+03 -9.83891E+03  3.50813E+02 -1.46446E+04  8.70057E+03 -1.40672E+04  1.51681E+04 -4.10946E+03
  1.45080E+04  6.75531E+03  6.47133E+03  1.31017E+04 -2.62500E+03  1.51406E+04 -1.04519E+04  9.80755E+03
 -1.45206E+04  4.70179E+02 -1.06617E+04 -9.03479E+03 -1.26982E+03 -1.31621E+04  6.60958E+03 -8.98370E+03
  9.60322E+03 -3.19762E+03  7.08521E+03  2.17136E+03  2.19717E+03  3.78989E+03  1.35222E+03  2.80572E+03
  2.83803E+03  1.48890E+03  3.67890E+03  2.68310E+03  4.65142E+03  5.18038E+03  4.04141E+03  8.79542E+03
 -3.43683E+03  1.14567E+04 -1.03739E+04  1.16403E+04 -1.57153E+04  3.39298E+03 -1.64183E+04 -6.23364E+03
 -7.59337E+03 -1.45687E+04  2.78845E+03 -1.74189E+04  1.00416E+04 -1.02909E+04  1.22829E+04 -2.58785E+03
  9.41301E+03  5.85455E+03  2.43026E+03  9.12747E+03 -4.26049E+03  5.87319E+03 -6.23665E+03 -1.20180E+03
 -1.70415E+03 -5.91543E+03  3.28720E+03 -7.39053E+03  6.85907E+03 -3.16034E+03  6.97174E+03  2.69390E+03
  3.33902E+03  3.06301E+03  1.82106E+03  2.72757E+03 -1.28017E+03  2.61885E+03  1.43994E+03 -4.77680E+02
  2.55949E+03 -1.06654E+03  6.50638E+03  2.05181E+03  3.65130E+03  8.13237E+03 -1.69301E+03  1.09648E+04
 -8.30769E+03  7.93355E+03 -9.19099E+03  1.63299E+03 -8.37366E+03 -3.02168E+03 -3.77522E+03 -6.50590E+03
  9.37023E+02 -6.64112E+03  4.11242E+03 -2.83740E+03  3.25766E+03  1.74050E+03 -1.89299E+03  4.64422E+03
 -5.89796E+03  3.07892E+03 -8.44877E+03 -4.21112E+03 -4.17570E+03 -8.44578E+03  1.61652E+03 -8.48289E+03
  4.48048E+03 -4.42102E+03  6.45629E+03 -8.69144E+02  5.19006E+03  1.50325E+03  4.11234E+02  4.77531E+03
 -1.76525E+03  7.87700E+02 -3.48132E+03 -3.12509E+03  8.98364E+02 -6.17241E+03  7.61901E+03 -6.67802E+03
  9.48763E+03  3.54702E+02  9.37306E+03  6.61383E+03  2.97509E+03  9.95605E+03 -3.60163E+03  9.26970E+03
 -7.98426E+03  3.81485E+03 -8.26043E+03 -8.93796E+02 -5.74550E+03 -6.68937E+03  7.59276E+02 -5.62170E+03
  6.28165E+03 -3.44416E+03  5.92217E+03  2.62675E+03  1.87468E+03  5.91970E+03 -1.22302E+03  5.05183E+03
 -2.61043E+03  2.92814E+03 -2.53973E+03  1.75184E+03 -1.12704E+00  1.80466E+03 -1.47062E+03  1.98494E+03
 -2.57440E+03  3.93175E+03 -6.72449E+03  3.37136E+03 -1.05408E+04  1.05279E+03 -1.18997E+04 -5.81980E+03
 -5.84220E+03 -1.36502E+04  3.01905E+03 -1.58269E+04  9.92795E+03 -1.17257E+04  1.42447E+04 -5.20828E+03
  1.27784E+04  2.71563E+03  8.50176E+03  8.96594E+03  1.26490E+03  1.13521E+04 -4.29284E+03  7.45072E+03
 -5.91644E+03  3.01767E+03 -4.70616E+03 -1.01366E+03 -1.09215E+03 -6.52386E+02 -1.30568E+03  5.31319E+02
 -1.38128E+03 -2.71501E+02 -2.73368E+03 -1.27702E+02 -1.01580E+03 -2.69430E+03  3.45637E+02 -3.53434E+03
  4.13916E+03 -2.81607E+03  5.48010E+03  7.81040E+02  7.74426E+03  5.74094E+03  1.43073E+03  9.65556E+03
 -4.93849E+03  1.19674E+04 -1.07467E+04  6.71349E+03 -1.29306E+04 -5.54565E+02 -9.60169E+03 -8.51118E+03
 -4.51990E+03 -1.10512E+04  3.29870E+03 -9.32217E+03  7.67571E+03 -5.58383E+03  7.27322E+03  8.37487E+02
  3.96690E+03  3.87360E+03 -3.19257E+02  2.96717E+03 -2.33170E+03 -1.41856E+02  7.04858E+02 -2.37238E+03
  3.73232E+03 -6.77227E+02  4.31627E+03  1.78110E+03  2.61343E+03  4.55864E+03  1.43601E+01  5.59588E+03
 -4.45108E+03  4.97522E+03 -7.11255E+03 -2.11040E+02 -5.99550E+03 -5.57191E+03 -1.30593E+03 -8.56562E+03
  5.09307E+03 -7.40831E+03  8.01937E+03 -2.12421E+03  7.93057E+03  1.70482E+03  4.82566E+03  6.47694E+03
  1.41716E+03  7.11216E+03 -1.72442E+03  6.08982E+03 -3.63307E+03  3.23813E+03 -3.35194E+03  1.26638E+03
 -1.93953E+03 -3.24626E+01 -2.17091E+03  1.15147E+03 -3.73713E+03  6.92812E+02 -5.53385E+03 -1.25467E+03
 -5.62136E+03 -3.81430E+03 -2.42421E+03 -6.76722E+03  3.47042E+03 -7.95160E+03  6.11845E+03 -3.88182E+03
  6.73937E+03  2.68450E+02  3.49350E+03  4.91936E+03 -9.78035E+02  8.36504E+03 -5.44019E+03  4.42904E+03
