 $NMID ID='MM_0lb_SNR400_17hz_g60_37.RAW', FMTDAT='(8E13.5)'
 TRAMP=1., VOLUME=1. $END
  3.10174E+05 -4.32955E+01  3.37959E+05  2.50318E+05  8.45499E+04  3.38201E+05 -1.32864E+05  2.50945E+05
 -1.90045E+05  8.36947E+04 -1.11626E+05 -3.29878E+04  9.59646E+02 -5.09248E+04  5.40258E+04 -4.74860E+02
  3.55463E+04  5.24953E+04 -1.66099E+04  7.50272E+04 -6.09155E+04  6.33947E+04 -8.46524E+04  3.24259E+04
 -8.03803E+04 -1.06328E+04 -5.71129E+04 -5.13076E+04 -1.48625E+04 -6.99219E+04  2.76321E+04 -4.55482E+04
  4.00268E+04  3.67848E+03  1.58876E+04  4.75104E+04 -3.46205E+04  4.74635E+04 -6.66862E+04  1.59107E+02
 -5.31963E+04 -5.64687E+04 -6.92781E+03 -7.65327E+04  3.39691E+04 -5.47279E+04  4.76229E+04 -1.73779E+04
  4.32404E+04  1.11073E+04  3.17434E+04  2.55724E+04  1.51608E+04  2.96658E+04 -5.18931E+03  2.66624E+04
 -2.20769E+04  1.29690E+04 -1.87449E+04 -4.64168E+03  5.76194E+03 -7.56502E+03  2.25612E+04  1.26195E+04
  7.25242E+03  3.51664E+04 -3.23782E+04  3.53289E+04 -6.36402E+04  2.34143E+03 -5.68731E+04 -4.26340E+04
 -1.17762E+04 -6.32403E+04  3.98046E+04 -4.52761E+04  5.78784E+04 -2.50508E+03  3.36637E+04  3.19579E+04
 -6.42396E+03  3.56793E+04 -2.96858E+04  1.56220E+04 -2.99283E+04 -4.75829E+03 -1.59531E+04 -1.04475E+04
 -8.52245E+03 -1.25842E+04 -1.06794E+03 -1.77813E+04  7.22417E+03 -2.24766E+04  1.55308E+04 -1.34617E+04
  1.13069E+04  4.88692E+03 -7.45384E+03  1.31495E+04 -2.09540E+04 -4.01791E+03 -8.24699E+03 -3.32941E+04
  2.25349E+04 -4.31990E+04  4.79626E+04 -1.96861E+04  4.48968E+04  1.96620E+04  1.49542E+04  4.29489E+04
 -1.63600E+04  3.27367E+04 -2.44609E+04  1.83378E+03 -9.51571E+03 -2.74634E+04  2.07326E+04 -3.32590E+04
  3.98769E+04 -8.51966E+03  3.43162E+04  2.33807E+04  1.79341E+04  4.54309E+04 -8.38032E+03  4.89115E+04
 -3.14553E+04  3.31405E+04 -4.08787E+04  9.16572E+03 -4.16697E+04 -1.58942E+04 -2.34954E+04 -3.77612E+04
  7.39793E+03 -3.68890E+04  3.09230E+04 -1.43637E+04  2.88077E+04  1.07312E+04  3.84727E+03  1.88624E+04
 -1.33800E+04  7.66517E+03 -1.00633E+04 -7.22618E+03  5.60143E+03 -1.03260E+04  1.81916E+04  6.32402E+03
  1.32593E+04  2.20087E+04 -5.95086E+03  2.42797E+04 -2.23468E+04  1.12058E+04 -2.72538E+04 -4.97839E+03
 -1.97911E+04 -1.67865E+04 -7.57212E+03 -1.95274E+04  3.70435E+03 -1.86821E+04  1.42855E+04 -1.67494E+04
  2.50849E+04 -1.27384E+04  3.16147E+04  2.35253E+03  2.28439E+04  1.91929E+04  4.16262E+03  3.55412E+04
 -1.70619E+04  2.93162E+04 -2.71588E+04  9.93728E+03 -2.06040E+04 -1.03593E+04 -4.44680E+03 -1.37495E+04
  2.00534E+03 -3.25374E+03 -4.02820E+03  6.35674E+03 -1.53223E+04  5.60154E+03 -1.58599E+04 -6.71833E+03
 -9.98649E+03 -1.79878E+04  5.80731E+03 -2.13612E+04  1.47538E+04 -1.56281E+04  1.67140E+04 -1.66150E+03
  1.08828E+04  1.23485E+04 -1.02421E+03  1.71466E+04 -1.20324E+04  1.00236E+04 -1.74560E+04 -3.95280E+03
 -1.36048E+04 -1.55209E+04 -1.11011E+03 -2.13796E+04  9.54943E+03 -1.77721E+04  1.78338E+04 -8.20714E+03
  1.69067E+04 -2.76231E+02  1.20248E+04  4.42836E+03  5.75232E+03  5.07887E+02  9.34254E+03 -1.79492E+03
  1.63087E+04  2.96463E+03  1.75889E+04  1.50365E+04  1.12708E+04  2.81602E+04 -2.68986E+03  3.12653E+04
 -1.87542E+04  2.52275E+04 -2.91567E+04  1.29310E+04 -3.04304E+04 -2.19912E+03 -2.59366E+04 -1.73486E+04
 -1.12713E+04 -2.51466E+04  7.71988E+03 -2.27869E+04  1.93872E+04 -1.26271E+04  1.75515E+04  4.03404E+03
  6.79994E+03  1.29073E+04 -8.74001E+03  1.16982E+04 -1.54006E+04  2.35694E+03 -1.14540E+04 -8.87857E+03
 -2.40916E+02 -1.45896E+04  6.94689E+03 -1.04549E+04  9.24082E+03 -1.01865E+03  1.45938E+03  6.13596E+03
 -6.21445E+03  1.60235E+03 -5.17460E+03 -5.35290E+03 -3.11997E+02 -1.21947E+04  8.68303E+03 -1.26560E+04
  1.51677E+04 -7.05840E+03  1.58264E+04  2.58986E+03  1.34121E+04  1.17278E+04  6.32944E+03  1.76610E+04
 -2.42729E+03  1.94635E+04 -1.25975E+04  1.21109E+04 -1.34917E+04  3.46151E+03 -1.00312E+04 -2.31554E+03
 -4.86048E+03 -4.16531E+03 -2.97801E+02  1.50481E+03 -3.06373E+03  2.58985E+03 -4.35375E+03  3.91446E+03
 -9.19325E+03 -5.30993E+02 -1.04859E+04 -8.27234E+03 -4.36264E+03 -1.32048E+04  3.82340E+03 -9.93778E+03
  8.57443E+03 -4.29849E+03  7.01152E+03  3.07080E+03  8.24550E+02  3.49503E+03 -4.55644E+03  1.27708E+02
 -4.65008E+03 -6.01217E+03 -6.78595E+02 -8.94983E+03  4.77609E+03 -9.86318E+03  1.21881E+04 -5.00786E+03
  1.42867E+04  1.08444E+03  1.09762E+04  7.60382E+03  1.60696E+03  1.10578E+04 -6.59078E+03  9.49733E+03
 -8.03331E+03  3.72329E+03 -3.67050E+03 -2.06932E+03  1.68576E+03 -2.55603E+03  5.54914E+03 -1.28431E+03
  4.66485E+03  4.15759E+03  1.49518E+03  7.81509E+03 -5.47062E+03  6.96531E+03 -9.12682E+03  1.83244E+03
 -6.36570E+03 -3.86164E+03  4.75371E+02 -7.80187E+03  4.91186E+03 -3.55372E+03  4.45541E+03  1.66920E+03
  4.94269E+02  4.73816E+03 -5.09825E+03  6.19875E+03 -6.98260E+03  2.93355E+03 -6.37763E+03 -1.75204E+03
 -3.93644E+03 -8.49071E+03  2.10893E+03 -9.03981E+03  7.81096E+03 -5.95271E+03  8.75448E+03  1.56416E+03
  5.69022E+03  6.89359E+03 -2.15547E+01  8.35145E+03 -6.84901E+03  5.21589E+03 -6.18355E+03 -4.75478E+02
 -6.71670E+03 -5.94461E+03 -1.34455E+03 -6.70339E+03  3.40684E+03 -5.21421E+03  3.28629E+03 -3.02560E+03
  3.23856E+03  8.22697E+02 -5.07289E+02  1.28277E+03  7.21639E+02 -1.37749E+03  8.81243E+02 -2.72065E+03
  4.99030E+03 -1.86690E+03  6.95576E+03  1.34923E+03  7.39269E+03  4.44396E+03  6.51399E+03  9.73396E+03
 -1.86795E+03  1.13010E+04 -9.95356E+03  7.91125E+03 -1.21689E+04  1.58257E+03 -9.22441E+03 -4.32190E+03
 -5.23405E+03 -8.63000E+03 -1.11693E+02 -7.16199E+03  2.21406E+03 -2.83110E+03  2.30943E+03 -2.71222E+03
  1.74990E+03 -1.37182E+03  2.27662E+03 -2.55185E+03  3.76560E+03 -1.85511E+03  3.90330E+03 -1.14143E+02
  5.86374E+03  1.25403E+03  1.88016E+03  4.50109E+03 -1.44045E+03  4.28674E+03 -5.30015E+03  3.42258E+03
 -5.83475E+03 -1.24308E+03 -2.74292E+03 -3.95869E+03  3.46831E+02 -7.13494E+03  3.42110E+03 -6.59500E+03
  6.56300E+03 -4.01131E+03  8.27054E+03  7.75446E+02  5.90928E+03  5.73403E+03  1.06653E+03  7.55416E+03
 -2.60906E+03  7.87553E+03 -4.23020E+03  2.19405E+03 -2.99980E+03 -1.83781E+03 -8.36783E+02 -3.64950E+02
 -4.43724E+02  7.07760E+02 -1.49709E+03  2.14243E+03 -3.07529E+03  9.72141E+02 -5.27226E+03 -5.32311E+02
 -2.33240E+03 -4.85925E+03  1.12368E+03 -6.29719E+03  3.84401E+03 -5.01523E+03  4.65509E+03 -1.38300E+03
  4.57103E+03  3.02445E+03  3.00918E+03  4.45082E+03 -7.16227E+02  5.97186E+03 -3.19847E+03  3.74184E+03
 -4.74643E+03  4.28868E+02 -4.01016E+03 -3.05906E+03 -4.44544E+02 -4.09476E+03  2.28034E+03 -3.40213E+03
  3.68878E+03 -1.74543E+03  2.72883E+03  7.27857E+02  3.83238E+02  1.62638E+03  9.84791E+02  4.42493E+02
  2.04405E+03  5.93399E+02  1.20497E+03  1.37286E+03  1.83840E+03  2.30922E+03  1.61194E+03  2.17990E+03
 -1.55935E+03  3.96672E+03 -4.02727E+03  5.18546E+03 -3.85768E+03  1.59024E+03 -5.48883E+03 -1.38935E+03
 -2.27599E+03 -4.63446E+03  4.55323E+02 -5.65562E+03  2.51696E+03 -3.65868E+03  4.21592E+03 -1.50501E+03
  3.04597E+03  1.88593E+03  4.07790E+02  2.65585E+03 -9.85387E+02  1.31241E+03 -1.57994E+03 -4.19957E+02
 -9.28884E+02 -2.20659E+03  1.07763E+03 -2.12977E+03  1.96496E+03 -1.45037E+03  1.70684E+03  9.64886E+02
  8.40225E+02  8.16316E+02  7.14338E+02 -2.63104E+02  3.89540E+01  1.30475E+03  1.18078E+03  1.13199E+02
  2.81709E+02 -1.42848E+02  2.21744E+03  8.86437E+02  4.60504E+02  2.84499E+03 -6.54193E+02  3.49856E+03
 -2.45956E+03  1.31876E+03 -2.12909E+03  5.03132E+02 -2.72016E+03 -8.22917E+02 -7.01776E+02 -1.06993E+03
  2.15474E+02 -1.75825E+03  1.17768E+03 -3.50977E+02  7.67061E+02  1.51003E+03 -7.64688E+02  1.04556E+03
 -2.08205E+03  1.17564E+03 -1.39414E+03 -1.99974E+03 -1.21454E+03 -2.57387E+03  1.83182E+02 -2.32233E+03
  1.19944E+03 -9.01933E+02  1.59372E+03  6.38605E+02  2.31017E+03  6.85739E+02  1.02967E+03  1.75640E+03
 -6.88256E+02  6.17420E+02 -7.23721E+02 -1.77021E+02  1.03646E+03 -1.29666E+03  1.76096E+03 -1.12176E+03
  1.77640E+03  3.20956E+02  3.08003E+03  8.38762E+02  7.09271E+02  1.97721E+03 -6.16337E+02  2.46083E+03
 -2.24103E+03  7.24982E+02 -1.70677E+03 -5.15002E+02 -1.62790E+03 -1.46085E+03  6.36638E+02 -8.22120E+02
  1.60057E+03 -4.95721E+02  7.40171E+02  9.84714E+02  6.97426E+02  1.60927E+03  2.14815E+02  2.01241E+03
 -5.77815E+02  1.64530E+03 -5.12844E+02 -3.12019E+02  1.43662E+02  7.58685E+02 -6.51247E+02  8.33100E+02
 -1.08047E+03  1.07971E+03 -2.45182E+03  1.11977E+03 -2.03202E+03  4.45464E+02 -2.92830E+03 -1.69199E+03
 -1.48056E+03 -2.07781E+03  7.11950E+02 -3.80649E+03  1.44242E+03 -3.33967E+03  2.59059E+03 -1.44111E+03
  2.97325E+03 -1.58041E+02  1.87628E+03  1.60646E+03  4.27346E+01  2.30900E+03 -7.04529E+02  1.46924E+03
 -1.52756E+03  9.56777E+02 -3.67535E+02 -8.77340E+02 -8.26243E+02 -3.38401E+01 -7.72960E+02 -3.62463E+01
 -7.27530E+02 -8.92972E+02 -9.88233E+02 -9.52398E+01 -2.58578E+02 -1.02412E+03 -6.17522E+02 -8.48051E+02
  1.31477E+03 -7.00794E+02  1.38370E+03  7.17698E+02  1.18585E+03  8.73561E+02 -5.15545E+02  1.57514E+03
 -1.26461E+03  2.13177E+03 -2.13657E+03  1.11101E+03 -2.59678E+03 -4.64925E+02 -1.42598E+03 -8.03691E+02
 -9.26203E+02 -1.92946E+03  2.04146E+02 -2.02239E+03  7.27284E+02 -4.17286E+02  9.94479E+02  7.46815E+02
  1.31522E+03  7.41007E+02 -1.91275E+01  5.28669E+02 -4.84486E+02  3.23854E+02  9.75663E+01 -6.60798E+02
  9.37978E+02 -1.65591E+02 -5.46231E+01  5.22096E+02  4.15609E+02  5.22475E+02  5.39849E+02  1.60893E+02
 -1.18353E+03  4.11010E+02 -9.86296E+02  2.26474E+02 -1.02581E+03 -1.03688E+03  3.83338E+02 -9.89710E+02
  1.07417E+03 -7.24053E+02  6.93778E+02 -4.65689E+02  7.10649E+02 -6.90863E+02  1.01132E+03  1.33812E+03
  6.73361E+02  6.02985E+02 -6.15370E+02  6.59638E+02 -7.85025E+02  2.91774E+02 -9.27877E+02  8.23499E+02
 -2.27907E+01 -3.07215E+02 -4.95072E+02  6.10311E+01 -1.03319E+03  1.09102E+02 -6.03763E+02 -3.32016E+02
 -9.56230E+02 -9.97423E+01 -5.03283E+01 -1.64753E+03  1.36078E+03 -1.70926E+03  1.11124E+03 -1.03280E+03
  1.06444E+03 -4.77801E+02 -1.97495E+02  7.14047E+01  4.23655E+00  1.46889E+03 -3.83287E+02  7.77464E+02
