 $NMID ID='MM_0lb_SNR400_20hz_g40_39.RAW', FMTDAT='(8E13.5)'
 TRAMP=1., VOLUME=1. $END
  3.09924E+05  7.06359E+02  3.37190E+05  2.49914E+05  8.45526E+04  3.36930E+05 -1.32314E+05  2.49622E+05
 -1.89178E+05  8.21613E+04 -1.10297E+05 -3.26362E+04  1.89820E+03 -5.00498E+04  5.39847E+04  8.91955E+02
  3.45974E+04  5.29632E+04 -1.75510E+04  7.49809E+04 -6.01786E+04  6.25895E+04 -8.26233E+04  3.08718E+04
 -7.89776E+04 -1.09010E+04 -5.56670E+04 -4.92165E+04 -1.55610E+04 -6.76721E+04  2.64384E+04 -4.46823E+04
  3.85874E+04  3.85302E+03  1.53183E+04  4.64592E+04 -3.37289E+04  4.54610E+04 -6.46207E+04 -6.29069E+02
 -5.15580E+04 -5.54017E+04 -5.06514E+03 -7.45721E+04  3.33329E+04 -5.21434E+04  4.53436E+04 -1.63116E+04
  4.04771E+04  1.03677E+04  3.02452E+04  2.34853E+04  1.61224E+04  2.72451E+04 -3.87025E+03  2.64352E+04
 -2.16638E+04  1.29166E+04 -1.91710E+04 -3.77522E+03  3.38632E+03 -7.44757E+03  2.08533E+04  1.02659E+04
  7.34787E+03  3.19735E+04 -2.97877E+04  3.33402E+04 -5.96709E+04  1.82573E+03 -5.44378E+04 -3.99315E+04
 -1.19729E+04 -5.96289E+04  3.74053E+04 -4.25332E+04  5.35356E+04 -1.64600E+03  3.04934E+04  3.02760E+04
 -7.30876E+03  3.15132E+04 -2.73983E+04  1.19522E+04 -2.64026E+04 -5.75018E+03 -1.36595E+04 -9.55636E+03
 -7.22649E+03 -1.07291E+04 -1.09505E+03 -1.59136E+04  5.82925E+03 -2.21007E+04  1.47867E+04 -1.45860E+04
  1.25878E+04  4.28980E+03 -5.29069E+03  1.27443E+04 -1.82833E+04 -1.44279E+03 -8.04583E+03 -2.90625E+04
  2.02210E+04 -3.89540E+04  4.29035E+04 -1.81467E+04  4.05481E+04  1.73807E+04  1.34457E+04  4.01294E+04
 -1.49031E+04  2.98951E+04 -2.24466E+04  8.84224E+02 -7.27928E+03 -2.59926E+04  1.97514E+04 -3.03190E+04
  3.66361E+04 -6.18994E+03  2.92508E+04  2.22408E+04  1.39283E+04  4.03856E+04 -7.51507E+03  4.23720E+04
 -2.66371E+04  2.80447E+04 -3.50129E+04  7.94047E+03 -3.63140E+04 -1.39842E+04 -1.97623E+04 -3.25359E+04
  6.46019E+03 -3.27346E+04  2.71299E+04 -1.19799E+04  2.59010E+04  9.79430E+03  2.82242E+03  1.73154E+04
 -1.29468E+04  7.14681E+03 -9.31002E+03 -7.97102E+03  5.81777E+03 -9.41311E+03  1.69725E+04  7.11957E+03
  1.14849E+04  2.16390E+04 -6.67729E+03  2.23621E+04 -2.07013E+04  8.00111E+03 -2.40447E+04 -7.25086E+03
 -1.50326E+04 -1.58001E+04 -4.46070E+03 -1.55620E+04  3.63062E+03 -1.23971E+04  1.08998E+04 -1.24483E+04
  1.88254E+04 -1.09241E+04  2.58300E+04  2.38649E+02  2.03784E+04  1.46427E+04  3.58915E+03  3.08077E+04
 -1.58583E+04  2.62100E+04 -2.46260E+04  8.77419E+03 -1.88276E+04 -1.03379E+04 -4.17274E+03 -1.39262E+04
  3.23950E+03 -4.53066E+03 -1.87008E+03  4.39661E+03 -1.20167E+04  5.12914E+03 -1.21614E+04 -3.95704E+03
 -7.99719E+03 -1.37665E+04  3.95427E+03 -1.78225E+04  1.10359E+04 -1.29726E+04  1.38776E+04 -1.50223E+03
  7.73365E+03  1.00782E+04 -9.08001E+02  1.45053E+04 -9.03468E+03  7.46719E+03 -1.35698E+04 -3.17100E+03
 -1.03760E+04 -1.27442E+04 -1.23937E+03 -1.74958E+04  8.31077E+03 -1.36991E+04  1.45027E+04 -6.02813E+03
  1.35744E+04  3.42429E+02  9.01463E+03  3.90842E+03  4.33974E+03  7.42076E+01  6.40953E+03 -8.54399E+02
  1.20773E+04  3.00089E+03  1.31559E+04  1.19256E+04  8.09563E+03  2.29859E+04 -3.26506E+03  2.32888E+04
 -1.41480E+04  1.73527E+04 -2.12516E+04  8.16327E+03 -2.14012E+04 -1.25292E+03 -1.89530E+04 -1.19408E+04
 -9.54401E+03 -1.73229E+04  5.80695E+03 -1.68793E+04  1.48207E+04 -9.86135E+03  1.41892E+04  3.18564E+03
  6.54150E+03  9.87790E+03 -6.41093E+03  9.39873E+03 -1.26870E+04  2.95277E+03 -9.43868E+03 -7.57889E+03
  6.95890E+01 -1.15853E+04  5.72733E+03 -8.83432E+03  7.06457E+03 -1.23447E+03  1.04414E+03  4.31111E+03
 -4.69530E+03  7.41162E+02 -2.86157E+03 -4.00814E+03  1.18244E+03 -8.83730E+03  6.87344E+03 -8.70829E+03
  1.02856E+04 -4.22852E+03  9.49435E+03  2.96014E+03  8.07074E+03  7.69470E+03  3.94140E+03  1.17261E+04
 -8.67716E+02  1.33807E+04 -8.05317E+03  8.88969E+03 -9.28067E+03  2.46329E+03 -7.05048E+03 -1.07669E+03
 -3.91279E+03 -3.08876E+03 -7.05187E+02  1.74485E+03 -1.55119E+03  1.88324E+03 -2.90097E+03  3.35198E+03
 -7.05965E+03 -9.48030E+02 -7.75006E+03 -6.77014E+03 -3.49824E+03 -9.98885E+03  3.08536E+03 -7.25375E+03
  6.24376E+03 -3.92878E+03  5.43019E+03  1.62423E+03  8.16847E+02  2.70934E+03 -2.52369E+03 -2.87869E+02
 -2.83075E+03 -4.71344E+03 -3.03907E+02 -5.62856E+03  3.16453E+03 -7.09539E+03  8.75591E+03 -3.63489E+03
  1.01766E+04  3.88835E+02  7.79940E+03  4.98415E+03  1.81509E+03  7.27835E+03 -4.58850E+03  7.42184E+03
 -6.06978E+03  2.90369E+03 -3.09347E+03 -7.77379E+02  1.07783E+03 -1.37886E+03  4.30583E+03 -6.47588E+02
  3.91220E+03  2.75295E+03  6.63493E+02  6.00035E+03 -4.45597E+03  6.17308E+03 -6.53758E+03  1.20654E+03
 -3.58402E+03 -3.09476E+03 -2.02042E+02 -6.11489E+03  2.92735E+03 -2.67211E+03  2.87749E+03  2.89600E+02
  5.78878E+02  2.59320E+03 -4.04257E+03  4.28413E+03 -4.23554E+03  2.31450E+03 -3.19101E+03  5.55716E+01
 -2.70045E+03 -4.69259E+03  5.40482E+02 -5.59067E+03  4.93564E+03 -3.57245E+03  5.44017E+03  8.49568E+02
  4.06675E+03  4.24000E+03  2.84890E+01  6.32920E+03 -4.45715E+03  3.44185E+03 -4.22763E+03 -3.93937E+02
 -4.66119E+03 -4.33279E+03 -1.18777E+03 -4.29539E+03  2.19672E+03 -4.05422E+03  2.19846E+03 -2.67845E+03
  2.67396E+03 -2.66295E+01  2.54905E+02  1.10401E+03  1.07980E+03 -6.52735E+01 -1.85936E+02 -9.03712E+02
  2.98887E+03  8.92011E+01  3.92648E+03  4.14038E+02  4.65927E+03  2.32593E+03  4.47005E+03  5.29395E+03
 -9.29574E+02  6.68816E+03 -6.40269E+03  5.13179E+03 -7.94414E+03  8.05357E+02 -6.91099E+03 -2.05575E+03
 -2.54593E+03 -5.21451E+03 -1.08854E+01 -3.75970E+03  1.51363E+03 -1.88107E+03  1.28830E+03 -1.66425E+03
  8.73426E+02 -1.33850E+03  1.42104E+03 -1.99604E+03  3.04599E+03 -1.38287E+03  2.84980E+03  6.39321E+02
  3.94506E+03  1.17221E+03  6.55427E+02  2.99239E+03 -1.78383E+03  2.06719E+03 -3.57661E+03  2.40254E+03
 -3.41392E+03 -1.39694E+03 -1.56974E+03 -2.77097E+03  4.49895E+02 -3.80808E+03  2.88543E+03 -4.43471E+03
  3.88382E+03 -2.56244E+03  5.96930E+03 -5.30476E+02  3.82776E+03  3.14894E+03  1.06242E+03  4.67064E+03
 -1.87651E+03  4.90283E+03 -2.74458E+03  1.51806E+03 -1.43403E+03 -9.13193E+02 -3.57050E+02 -3.58742E+02
 -1.43775E+02 -1.63881E+01 -7.33562E+02  1.07081E+03 -2.65807E+03  9.38302E+02 -3.57897E+03 -7.53631E+01
 -1.39215E+03 -3.46785E+03  8.85208E+02 -3.59476E+03  1.78368E+03 -3.68213E+03  2.92413E+03 -7.93639E+02
  2.90411E+03  2.36619E+03  1.52706E+03  1.93100E+03 -5.19155E+02  3.42274E+03 -1.97475E+03  1.37147E+03
 -2.78962E+03  3.40183E+02 -2.37080E+03 -1.72080E+03 -1.81871E+02 -2.40515E+03  1.38013E+03 -1.58581E+03
  1.71443E+03 -9.29428E+02  1.76345E+03  1.21330E+02  1.78351E+02  1.47769E+03  1.10617E+03  2.83833E+02
  1.75424E+03  9.28105E+02  1.28977E+03  8.10396E+02  6.34037E+02  2.01817E+03  1.34778E+03  1.18341E+03
 -1.20490E+03  1.99088E+03 -2.17647E+03  3.30664E+03 -2.35716E+03  1.38015E+03 -3.68646E+03  3.60829E+02
 -1.31493E+03 -2.34528E+03  5.51541E+02 -4.06380E+03  1.68950E+03 -2.19432E+03  2.43861E+03 -6.89838E+02
  1.82870E+03  1.35541E+03  1.24486E+02  1.42520E+03 -1.07592E+02  1.06615E+03 -4.73588E+02 -2.83608E+02
 -6.82577E+02 -1.44040E+03  1.02771E+03 -6.97435E+02  1.33869E+03 -7.59570E+02  5.61313E+02  6.01074E+01
  2.74980E+02  4.30084E+02  6.81377E+02 -1.26500E+03 -4.74591E+02  7.43037E+02  1.00228E+03 -2.72120E+02
  5.55916E+01  4.24181E+02  1.11402E+03  7.42020E+02  2.15476E+02  2.03254E+03 -7.29977E+00  2.47668E+03
 -1.76416E+03  6.34056E+02 -1.64433E+03  1.63533E+02 -1.59849E+03 -7.70280E+02  2.62653E+01 -8.32709E+02
  9.03649E+01 -1.21511E+03  5.87273E+02 -7.66775E+02  4.63558E+02  1.47327E+03 -4.89434E+02  1.01817E+03
 -1.33970E+03  1.00641E+02 -6.71138E+02 -1.04907E+03 -2.02269E+02 -1.99267E+03  1.33523E+02 -1.25068E+03
 -1.38809E+01  2.44717E+02  2.63890E+02  7.02577E+02  9.74342E+02  1.18498E+02  4.06033E+02  9.81096E+02
  1.28081E+02 -1.68185E+02 -7.31513E+02  2.34713E+02  1.03623E+03 -3.53041E+02  1.79127E+03 -4.71667E+02
  5.55784E+02  3.68455E+02  2.24888E+03  6.24338E+02  6.56591E+02  1.16107E+03  4.38248E+01  1.36239E+03
 -1.83802E+03  1.49090E+02 -1.21947E+03 -5.83917E+02 -9.59351E+02 -1.13490E+03  1.59921E+01 -2.82664E+02
  1.50798E+03 -9.82705E+02  7.88941E+02  5.74649E+01  4.77374E+02  1.27132E+03  3.61170E+02  8.75302E+02
 -4.62303E+02  1.37932E+03 -7.11919E+02  4.65754E+02  2.57719E+02  2.41292E+02 -8.55006E+02  5.65774E+02
 -7.41535E+02  1.50800E+03 -1.48103E+03  4.87661E+02 -1.17341E+03  4.41208E+02 -2.21596E+03 -1.16337E+03
 -9.78088E+02 -1.42757E+03  1.83767E+02 -2.02437E+03  8.09224E+02 -1.61416E+03  2.22308E+03 -9.60441E+02
  1.47394E+03 -2.14632E+02  1.02959E+03  1.38134E+03 -3.04142E+02  1.75171E+03 -2.09111E+02  1.10129E+03
 -8.22221E+02  5.29190E+02 -8.07915E+02  2.86092E+02 -3.00928E+02  1.69602E+00 -5.53817E+02  5.21320E+02
 -1.09308E+03 -6.36713E+01 -5.86971E+02 -3.76142E+01  1.08084E+03 -4.66359E+02 -1.77115E+02 -6.80204E+02
  1.57203E+03 -5.19584E+02  7.71457E+01  5.62320E+02  4.11507E+02  1.40354E+02 -4.39570E+02  1.32512E+03
 -9.74927E+02  1.43040E+03 -1.12003E+03  8.27642E+02 -1.48737E+03  7.79855E+01 -9.19513E+02 -3.57679E+02
 -5.95547E+02 -1.11626E+03 -1.48692E+02 -1.05204E+03  4.32669E+02 -3.10223E+02  3.74209E+02  3.00192E+02
  9.57685E+02  7.16560E+02  4.53732E+01  4.20519E+02  5.31109E+00 -5.35148E+02  2.74310E+01 -2.14975E+02
  8.88123E+01 -1.71336E+02  8.14857E+01  5.95977E+02  4.93884E+02  2.46130E+02  3.63867E+02  4.45286E+02
 -3.03903E+02  2.68231E+02 -3.76822E+02  3.53607E+01 -1.10396E+02 -3.41833E+02 -2.16104E+02 -9.11708E+02
  3.92067E+02 -1.92355E+02 -1.84526E+02  3.06427E+02  2.50156E+02 -6.35847E+02  7.15969E+02  6.88188E+02
  2.91882E+02  4.94943E+02 -8.82132E+01  5.24182E+02 -8.76422E+02  9.22762E+02  4.45110E+02  8.42489E+01
 -5.23797E+02  2.57379E+02 -5.26528E+02  4.65944E+02 -3.52819E+02 -1.48439E+02 -4.51304E+02 -5.10550E+02
 -5.37405E+02  4.14413E+02 -6.33683E+02 -7.74493E+02  7.72519E+02 -9.70611E+02  3.64730E+02 -6.17031E+00
  7.17060E+02 -1.71421E+02 -1.77113E+01  1.68658E+01 -7.81334E-01  6.41174E+02  1.46350E+02  5.00514E+02
