 $NMID ID='MM_0lb_SNR400_7hz_g45_72.RAW', FMTDAT='(8E13.5)'
 TRAMP=1., VOLUME=1. $END
  3.10257E+05  1.03829E+03  3.37773E+05  2.50292E+05  8.59549E+04  3.39320E+05 -1.33385E+05  2.52441E+05
 -1.90608E+05  8.45977E+04 -1.12872E+05 -3.15272E+04  4.37797E+02 -5.17920E+04  5.38233E+04 -9.65813E+02
  3.65759E+04  5.24178E+04 -1.70257E+04  7.59857E+04 -6.25111E+04  6.44838E+04 -8.58773E+04  3.36289E+04
 -8.35797E+04 -1.16947E+04 -5.79923E+04 -5.31706E+04 -1.55212E+04 -7.13800E+04  2.81921E+04 -4.79481E+04
  4.19657E+04  3.95355E+03  1.69443E+04  4.87116E+04 -3.43340E+04  4.88132E+04 -6.81837E+04 -5.66934E+02
 -5.51309E+04 -5.84706E+04 -6.81706E+03 -7.98226E+04  3.57246E+04 -5.80719E+04  4.99154E+04 -1.89967E+04
  4.59895E+04  1.18903E+04  3.35183E+04  2.65219E+04  1.57821E+04  3.07712E+04 -5.95651E+03  2.87815E+04
 -2.19174E+04  1.14281E+04 -1.64750E+04 -6.07677E+03  7.55237E+03 -6.64823E+03  2.36666E+04  1.39900E+04
  6.50570E+03  3.90685E+04 -3.47406E+04  3.71899E+04 -6.66702E+04  1.84795E+03 -6.01529E+04 -4.53866E+04
 -1.25112E+04 -6.65365E+04  4.21849E+04 -4.83504E+04  6.19445E+04 -3.10863E+03  3.71601E+04  3.45896E+04
 -4.41305E+03  4.13104E+04 -3.33111E+04  1.98602E+04 -3.46159E+04 -3.00145E+03 -2.00747E+04 -1.31038E+04
 -9.59359E+03 -1.59405E+04  2.53142E+02 -2.01560E+04  8.29925E+03 -2.30597E+04  1.56404E+04 -1.23487E+04
  1.05027E+04  7.07252E+03 -1.14794E+04  1.28233E+04 -2.45418E+04 -7.12469E+03 -8.50960E+03 -3.85378E+04
  2.58193E+04 -4.76474E+04  5.28866E+04 -2.17453E+04  5.07984E+04  2.03663E+04  1.71984E+04  4.73669E+04
 -1.68572E+04  3.80057E+04 -2.84599E+04  3.85474E+03 -1.19426E+04 -2.99678E+04  2.15649E+04 -3.83222E+04
  4.50106E+04 -1.26405E+04  4.28168E+04  2.53483E+04  2.27622E+04  5.24183E+04 -8.02329E+03  5.81574E+04
 -3.72732E+04  4.02800E+04 -4.95873E+04  1.28618E+04 -4.91945E+04 -1.90148E+04 -2.61136E+04 -4.36567E+04
  8.81610E+03 -4.44433E+04  3.55100E+04 -1.87758E+04  3.32770E+04  1.10331E+04  5.51986E+03  2.21884E+04
 -1.29500E+04  9.94627E+03 -1.12231E+04 -7.96708E+03  5.98464E+03 -1.18922E+04  1.93344E+04  5.66675E+03
  1.54061E+04  2.33602E+04 -5.68070E+03  2.77943E+04 -2.42455E+04  1.62566E+04 -3.31153E+04 -2.44073E+03
 -2.72879E+04 -1.87394E+04 -1.25470E+04 -2.72744E+04  4.47274E+03 -2.77315E+04  2.09631E+04 -2.48959E+04
  3.44728E+04 -1.45298E+04  3.98534E+04  5.44532E+03  2.83118E+04  2.56970E+04  4.51320E+03  4.20146E+04
 -2.08939E+04  3.50837E+04 -3.18275E+04  1.26781E+04 -2.23012E+04 -1.00665E+04 -5.33505E+03 -1.29362E+04
  1.07315E+03 -6.94030E+02 -7.74547E+03  9.08652E+03 -2.16492E+04  5.51216E+03 -2.19789E+04 -1.04187E+04
 -1.28276E+04 -2.49724E+04  6.32214E+03 -2.84132E+04  1.94133E+04 -2.17308E+04  2.38205E+04 -2.41702E+03
  1.56339E+04  1.66973E+04 -5.80122E+02  2.30387E+04 -1.70983E+04  1.45057E+04 -2.57127E+04 -4.85256E+03
 -1.83158E+04 -2.12835E+04 -1.87432E+03 -3.00153E+04  1.31631E+04 -2.50280E+04  2.49964E+04 -1.37834E+04
  2.31139E+04 -1.56841E+03  1.61790E+04  5.44009E+03  8.79209E+03  1.02443E+03  1.27298E+04 -1.76243E+03
  2.37278E+04  2.91945E+03  2.70305E+04  1.92352E+04  1.94511E+04  4.09836E+04 -2.47055E+03  4.88242E+04
 -2.64611E+04  4.09432E+04 -4.52165E+04  2.14559E+04 -4.90835E+04 -2.81891E+03 -3.81309E+04 -2.85508E+04
 -1.44790E+04 -4.13139E+04  1.46960E+04 -3.50661E+04  3.10377E+04 -1.60697E+04  2.56250E+04  8.63796E+03
  8.82370E+03  1.97335E+04 -1.19712E+04  1.64353E+04 -2.20827E+04  3.29493E+03 -1.68375E+04 -1.44583E+04
 -1.07809E+03 -2.13373E+04  1.16036E+04 -1.60704E+04  1.48330E+04 -1.28095E+03  4.08275E+03  8.78416E+03
 -9.33574E+03  4.63906E+03 -1.02535E+04 -7.77614E+03 -3.43122E+03 -2.02388E+04  1.27446E+04 -2.23878E+04
  2.58050E+04 -1.12026E+04  2.98422E+04  3.39537E+03  2.50709E+04  2.02178E+04  1.17925E+04  3.26094E+04
 -7.51252E+03  3.49218E+04 -2.24277E+04  2.11529E+04 -2.48924E+04  2.95679E+03 -1.63419E+04 -7.05493E+03
 -7.30210E+03 -8.51989E+03 -8.05313E+02 -1.99587E+02 -3.52422E+03  3.13614E+03 -8.00028E+03  5.89641E+03
 -1.56378E+04 -1.97562E+03 -1.64826E+04 -1.19854E+04 -6.81713E+03 -2.18958E+04  6.86170E+03 -1.68526E+04
  1.39460E+04 -6.60679E+03  9.44979E+03  4.42080E+03 -1.61386E+03  7.18519E+03 -9.53412E+03 -2.30278E+02
 -8.78817E+03 -1.23895E+04 -1.67534E+03 -1.74547E+04  9.06222E+03 -1.73656E+04  2.24461E+04 -1.05045E+04
  2.67363E+04  2.70445E+03  1.94591E+04  1.57410E+04  4.17992E+03  2.19999E+04 -1.03831E+04  1.72439E+04
 -1.44073E+04  4.06447E+03 -7.28158E+03 -3.25993E+03  1.81259E+03 -4.34418E+03  8.85787E+03 -1.62029E+03
  8.82623E+03  7.85692E+03  1.34754E+03  1.37386E+04 -1.03369E+04  1.35126E+04 -1.74014E+04  3.53806E+03
 -1.26537E+04 -9.02481E+03 -5.03562E+01 -1.51553E+04  1.01010E+04 -8.23528E+03  1.05653E+04  4.48647E+03
  2.67431E+03  1.14641E+04 -9.46494E+03  1.28909E+04 -1.59991E+04  5.39072E+03 -1.64358E+04 -6.23225E+03
 -9.41640E+03 -1.89075E+04  4.90936E+03 -2.16560E+04  1.75370E+04 -1.23762E+04  1.84779E+04  3.46998E+03
  1.07772E+04  1.52254E+04 -1.11791E+03  1.80174E+04 -1.33317E+04  9.94214E+03 -1.55139E+04 -1.39346E+03
 -1.16945E+04 -1.21035E+04 -1.44868E+03 -1.34036E+04  7.45582E+03 -1.00085E+04  8.81409E+03 -3.40525E+03
  5.63748E+03  2.68028E+03 -1.24016E+03  1.97214E+03 -4.43443E+02 -3.81910E+03  3.17724E+03 -9.02335E+03
  1.40277E+04 -6.12767E+03  1.90515E+04  2.19642E+03  1.82492E+04  1.35455E+04  1.24173E+04  2.41473E+04
 -6.19618E+03  2.86885E+04 -2.38051E+04  2.13218E+04 -3.01623E+04  3.53488E+03 -2.49384E+04 -1.09494E+04
 -1.23613E+04 -2.00822E+04 -2.53046E+02 -1.75989E+04  6.35363E+03 -1.00744E+04  6.62799E+03 -5.58494E+03
  4.87528E+03 -4.46916E+03  4.09060E+03 -4.57088E+03  6.63679E+03 -3.35523E+03  9.27084E+03 -2.30633E+03
  1.38098E+04  3.61445E+03  7.25549E+03  1.14157E+04 -2.74420E+03  1.43058E+04 -1.29958E+04  1.04043E+04
 -1.74797E+04 -1.42612E+03 -1.16411E+04 -1.23844E+04 -1.61328E+03 -1.87628E+04  1.05133E+04 -1.91315E+04
  2.05611E+04 -1.07551E+04  2.34104E+04  3.12586E+03  1.51163E+04  1.57155E+04  2.29584E+03  2.15481E+04
 -9.23890E+03  1.67271E+04 -1.23390E+04  5.31474E+03 -9.10747E+03 -1.97411E+03 -4.07110E+03 -2.59313E+03
 -1.62754E+03 -1.09777E+02 -1.84936E+03  2.58908E+03 -6.77808E+03  3.40573E+03 -1.18958E+04 -1.05438E+03
 -8.90629E+03 -1.17222E+04  6.24399E+02 -1.84424E+04  1.19892E+04 -1.67492E+04  1.83891E+04 -5.34531E+03
  1.80703E+04  9.05313E+03  8.36514E+03  1.66567E+04 -3.87321E+03  1.80928E+04 -1.28108E+04  1.15651E+04
 -1.76751E+04  1.67226E+02 -1.38643E+04 -1.10047E+04 -1.79703E+03 -1.55683E+04  7.51108E+03 -1.12819E+04
  1.08686E+04 -3.57442E+03  8.40598E+03  3.56186E+03  3.26519E+03  5.37704E+03  1.67504E+03  2.92504E+03
  2.72857E+03  1.43990E+03  4.31727E+03  2.69211E+03  6.14226E+03  6.76509E+03  5.47244E+03  1.12903E+04
 -3.37696E+03  1.58165E+04 -1.36214E+04  1.50002E+04 -1.95653E+04  3.66396E+03 -1.93133E+04 -8.14611E+03
 -9.42229E+03 -1.92059E+04  2.77797E+03 -2.04561E+04  1.12378E+04 -1.28962E+04  1.51694E+04 -3.74159E+03
  1.13552E+04  6.91881E+03  2.77358E+03  1.09932E+04 -4.60443E+03  6.82878E+03 -8.27596E+03 -5.01092E+02
 -4.07361E+03 -7.82695E+03  4.67156E+03 -8.42900E+03  7.50899E+03 -4.39105E+03  7.99412E+03  1.76419E+03
  4.32208E+03  4.20137E+03  1.74005E+03  3.59215E+03 -1.30462E+03  3.08451E+03  1.34306E+03 -3.23760E+01
  3.05648E+03 -1.72291E+03  7.02868E+03  3.12423E+03  4.36703E+03  9.86735E+03 -1.36343E+03  1.33934E+04
 -9.75162E+03  8.86411E+03 -1.32535E+04  2.70371E+03 -1.16565E+04 -4.62577E+03 -4.79944E+03 -8.08572E+03
  1.66868E+03 -8.10488E+03  4.79020E+03 -4.30363E+03  4.24287E+03  3.36459E+03 -1.08082E+03  6.85342E+03
 -8.66116E+03  3.42708E+03 -8.64181E+03 -4.87716E+03 -5.85794E+03 -1.10306E+04  1.33625E+03 -1.12665E+04
  6.28193E+03 -6.59498E+03  7.70867E+03 -9.96457E+02  6.39735E+03  3.32013E+03  1.71988E+03  5.84122E+03
 -3.93945E+03  1.36163E+03 -4.59109E+03 -4.44735E+03  1.63054E+03 -8.64782E+03  8.82702E+03 -6.63157E+03
  1.32918E+04  6.42076E+02  1.16094E+04  9.35779E+03  3.57225E+03  1.27495E+04 -3.83662E+03  1.20599E+04
 -1.10163E+04  5.54745E+03 -1.24226E+04 -1.81875E+03 -6.21600E+03 -9.18183E+03  1.56780E+03 -8.07165E+03
  8.56855E+03 -3.86973E+03  7.18992E+03  2.98544E+03  2.48686E+03  7.52466E+03 -6.48061E+02  6.43364E+03
 -3.05715E+03  4.74172E+03 -2.93268E+03  8.49975E+02 -2.05018E+03  1.84713E+02 -2.48042E+03  2.58436E+03
 -2.95035E+03  5.25409E+03 -9.43613E+03  4.29093E+03 -1.24865E+04 -2.98274E+02 -1.36735E+04 -9.31134E+03
 -8.32208E+03 -1.85207E+04  3.41998E+03 -2.04834E+04  1.28836E+04 -1.48389E+04  2.02684E+04 -5.56788E+03
  1.91002E+04  3.12326E+03  1.17905E+04  1.27445E+04  7.89496E+02  1.49336E+04 -6.23621E+03  9.90429E+03
 -8.23618E+03  3.95885E+03 -4.73641E+03 -1.71234E+03 -2.07053E+03 -1.62096E+03 -3.35156E+02  7.46692E+02
 -2.04300E+03  1.33913E+03 -3.58874E+03 -7.94792E+02 -2.34341E+03 -3.34841E+03  9.59133E+02 -5.56086E+03
  5.85279E+03 -4.36866E+03  7.85606E+03  8.35968E+02  1.00132E+04  8.26098E+03  3.75841E+03  1.44539E+04
 -6.43732E+03  1.65910E+04 -1.48876E+04  9.15347E+03 -1.75119E+04 -1.92079E+03 -1.31216E+04 -1.05685E+04
 -5.88087E+03 -1.49887E+04  3.51972E+03 -1.46380E+04  9.55388E+03 -7.71712E+03  9.74715E+03  3.73279E+02
  5.14773E+03  5.15618E+03 -5.40293E+02  4.69694E+03 -2.96308E+03 -1.16803E+03  4.76453E+02 -3.65907E+03
  3.62202E+03 -2.44158E+03  5.71044E+03  2.17775E+03  4.46719E+03  6.35469E+03 -2.34682E+02  7.41925E+03
 -6.49411E+03  5.85380E+03 -1.00755E+04  4.59495E+02 -8.98436E+03 -6.99551E+03 -1.43882E+03 -1.24565E+04
  7.09195E+03 -1.07684E+04  1.08539E+04 -2.92973E+03  1.07833E+04  2.60469E+03  6.20172E+03  9.39310E+03
  1.25471E+03  8.99165E+03 -3.45482E+03  8.90528E+03 -5.32310E+03  3.20385E+03 -4.68378E+03 -1.91060E+02
 -2.77235E+03  1.84748E+02 -2.69336E+03  2.03953E+03 -5.58497E+03  2.29945E+03 -7.81436E+03 -9.81925E+02
 -6.15026E+03 -4.83547E+03 -2.74595E+03 -1.01076E+04  4.37474E+03 -1.00177E+04  8.33019E+03 -4.05837E+03
  1.00956E+04  1.84080E+03  5.42453E+03  7.60187E+03 -3.52766E+02  9.78823E+03 -8.14173E+03  6.49677E+03
