 $NMID ID='MM_0lb_SNR400_8hz_g50_31.RAW', FMTDAT='(8E13.5)'
 TRAMP=1., VOLUME=1. $END
  3.10111E+05  3.94626E+02  3.37075E+05  2.51126E+05  8.50535E+04  3.39360E+05 -1.32439E+05  2.51843E+05
 -1.91011E+05  8.50992E+04 -1.12307E+05 -3.22743E+04  2.24879E+02 -5.08715E+04  5.25015E+04 -8.19799E+02
  3.58936E+04  5.30231E+04 -1.73019E+04  7.58813E+04 -6.14573E+04  6.46016E+04 -8.60311E+04  3.34588E+04
 -8.21781E+04 -1.18191E+04 -5.78529E+04 -5.24203E+04 -1.45149E+04 -7.06748E+04  2.91696E+04 -4.63485E+04
  4.14160E+04  3.84675E+03  1.70494E+04  4.90399E+04 -3.53493E+04  4.82604E+04 -6.85729E+04 -1.12312E+03
 -5.58183E+04 -5.83200E+04 -7.43799E+03 -7.87201E+04  3.50480E+04 -5.73954E+04  4.95141E+04 -1.80118E+04
  4.62144E+04  1.25779E+04  3.33583E+04  2.66936E+04  1.56300E+04  3.02939E+04 -5.72115E+03  2.78331E+04
 -2.31282E+04  1.19110E+04 -1.86750E+04 -6.06016E+03  7.57618E+03 -6.80463E+03  2.36658E+04  1.33776E+04
  7.15442E+03  3.80034E+04 -3.43298E+04  3.74771E+04 -6.58970E+04  2.25803E+03 -5.96653E+04 -4.45167E+04
 -1.25367E+04 -6.64868E+04  4.16063E+04 -4.80118E+04  6.20299E+04 -1.85057E+03  3.76085E+04  3.55538E+04
 -5.14017E+03  3.96543E+04 -3.15030E+04  1.99363E+04 -3.41584E+04 -2.01938E+03 -2.05456E+04 -1.20725E+04
 -9.11604E+03 -1.58561E+04 -5.90972E+02 -1.98641E+04  8.90111E+03 -2.27561E+04  1.62370E+04 -1.27184E+04
  1.01850E+04  5.79007E+03 -1.05483E+04  1.24612E+04 -2.34264E+04 -6.64266E+03 -8.44579E+03 -3.81496E+04
  2.49989E+04 -4.80301E+04  5.29045E+04 -2.05938E+04  4.89960E+04  2.13550E+04  1.73948E+04  4.83661E+04
 -1.65391E+04  3.74620E+04 -2.82639E+04  3.09474E+03 -1.14336E+04 -2.94752E+04  2.23956E+04 -3.70904E+04
  4.56066E+04 -1.17763E+04  4.13985E+04  2.52650E+04  2.06824E+04  5.15385E+04 -8.72456E+03  5.70635E+04
 -3.58089E+04  3.96620E+04 -4.93664E+04  1.19997E+04 -4.89101E+04 -1.89965E+04 -2.70803E+04 -4.24362E+04
  7.92122E+03 -4.30833E+04  3.51445E+04 -1.76444E+04  3.24075E+04  1.14878E+04  5.96322E+03  2.07654E+04
 -1.43057E+04  9.45871E+03 -1.09935E+04 -8.36278E+03  5.20716E+03 -1.16385E+04  1.86228E+04  5.11910E+03
  1.52477E+04  2.26192E+04 -5.20202E+03  2.75766E+04 -2.34515E+04  1.51617E+04 -3.16845E+04 -2.68581E+03
 -2.62753E+04 -2.01298E+04 -1.20199E+04 -2.63368E+04  4.28929E+03 -2.72829E+04  2.00171E+04 -2.38531E+04
  3.38108E+04 -1.43827E+04  3.95626E+04  5.32986E+03  2.78191E+04  2.50666E+04  4.44059E+03  4.16161E+04
 -2.07417E+04  3.50698E+04 -3.10578E+04  1.15251E+04 -2.31103E+04 -9.69137E+03 -5.03864E+03 -1.25540E+04
 -1.74287E+02  2.24376E+01 -7.92637E+03  8.58556E+03 -2.10056E+04  4.41853E+03 -2.10077E+04 -1.00720E+04
 -1.33636E+04 -2.39936E+04  5.95402E+03 -2.83088E+04  2.00231E+04 -2.05896E+04  2.43382E+04 -1.49448E+03
  1.50927E+04  1.59592E+04 -2.42823E+03  2.46154E+04 -1.77239E+04  1.39658E+04 -2.48232E+04 -4.25625E+03
 -1.79981E+04 -2.25370E+04 -1.39365E+03 -2.91950E+04  1.29018E+04 -2.38565E+04  2.38585E+04 -1.26995E+04
  2.31257E+04 -5.68928E+01  1.70400E+04  5.70914E+03  9.41288E+03  2.19449E+03  1.28151E+04 -1.97855E+03
  2.30054E+04  2.81583E+03  2.68593E+04  1.96097E+04  1.80627E+04  3.90641E+04 -2.47004E+03  4.60934E+04
 -2.62911E+04  3.90118E+04 -4.51747E+04  1.97016E+04 -4.84195E+04 -3.31136E+03 -3.82049E+04 -2.70889E+04
 -1.43551E+04 -4.04516E+04  1.40120E+04 -3.47829E+04  2.93580E+04 -1.59557E+04  2.52221E+04  7.70581E+03
  8.70084E+03  1.97987E+04 -1.30612E+04  1.64664E+04 -2.14791E+04  2.32848E+03 -1.53112E+04 -1.39456E+04
 -1.16815E+03 -2.07081E+04  1.11524E+04 -1.53138E+04  1.38585E+04 -1.47203E+03  4.30730E+03  9.49630E+03
 -9.05054E+03  4.68412E+03 -9.37225E+03 -7.25172E+03 -2.15272E+03 -1.91601E+04  1.31996E+04 -2.08564E+04
  2.48715E+04 -1.15432E+04  2.80705E+04  2.66240E+03  2.48751E+04  2.00425E+04  1.22838E+04  3.08897E+04
 -6.73845E+03  3.30729E+04 -2.18884E+04  2.03253E+04 -2.41280E+04  4.21667E+03 -1.58850E+04 -6.62089E+03
 -6.58200E+03 -8.21533E+03 -2.40949E+02  5.71292E+02 -2.63980E+03  4.35580E+03 -7.27493E+03  6.02553E+03
 -1.45507E+04 -6.18482E+02 -1.63736E+04 -1.24727E+04 -5.70283E+03 -2.11070E+04  7.18444E+03 -1.66918E+04
  1.44112E+04 -6.20286E+03  9.63777E+03  4.71843E+03 -1.03364E+03  5.99287E+03 -8.46207E+03  3.20787E+02
 -8.61478E+03 -1.03369E+04 -1.20726E+03 -1.63219E+04  1.00757E+04 -1.81094E+04  2.15491E+04 -1.03061E+04
  2.50996E+04  3.23322E+03  1.84622E+04  1.48018E+04  4.23770E+03  2.10724E+04 -1.02529E+04  1.62395E+04
 -1.33297E+04  4.91668E+03 -7.65540E+03 -3.21752E+03  2.60398E+03 -5.37631E+03  9.47137E+03 -1.25601E+03
  7.88375E+03  7.15591E+03  1.01766E+03  1.33559E+04 -8.84590E+03  1.25798E+04 -1.68400E+04  2.37468E+03
 -1.14645E+04 -8.83887E+03 -3.06223E+02 -1.43988E+04  9.85015E+03 -7.45830E+03  9.52313E+03  3.77632E+03
  1.73144E+03  1.12984E+04 -8.66271E+03  1.26352E+04 -1.53812E+04  5.85476E+03 -1.48591E+04 -5.39651E+03
 -9.58506E+03 -1.70565E+04  4.76195E+03 -1.92642E+04  1.63928E+04 -1.14479E+04  1.83486E+04  2.48934E+03
  1.07304E+04  1.51440E+04 -3.20665E+03  1.72383E+04 -1.29385E+04  8.64714E+03 -1.36479E+04 -1.52938E+03
 -1.19039E+04 -1.03787E+04 -2.05922E+03 -1.28441E+04  6.21563E+03 -9.96456E+03  8.48273E+03 -3.52588E+03
  4.96473E+03  2.87879E+03 -1.37064E+03  1.39315E+03 -7.72914E+02 -4.00358E+03  2.87407E+03 -8.71986E+03
  1.26933E+04 -5.45829E+03  1.84575E+04  2.03632E+03  1.74962E+04  1.29411E+04  9.56576E+03  2.21369E+04
 -6.69437E+03  2.63434E+04 -2.17394E+04  1.87606E+04 -2.88414E+04  3.92706E+03 -2.29389E+04 -1.08669E+04
 -1.20972E+04 -1.86159E+04  1.27996E+01 -1.59729E+04  5.51095E+03 -8.25893E+03  5.98321E+03 -6.11776E+03
  3.92531E+03 -3.70129E+03  4.51856E+03 -4.10052E+03  5.65547E+03 -4.20010E+03  8.79060E+03 -1.25207E+03
  1.14581E+04  1.72072E+03  6.52696E+03  1.07005E+04 -2.98873E+03  1.27230E+04 -1.26493E+04  1.03393E+04
 -1.67325E+04 -1.54828E+03 -1.10063E+04 -1.17621E+04 -2.31151E+03 -1.76319E+04  8.15818E+03 -1.77286E+04
  1.88070E+04 -8.92282E+03  2.11552E+04  3.00723E+03  1.53731E+04  1.48991E+04  2.41415E+03  1.94893E+04
 -8.47011E+03  1.52387E+04 -1.13942E+04  5.18212E+03 -8.20405E+03 -2.12764E+03 -3.91867E+03 -2.91207E+03
 -1.21981E+03 -7.27876E+01 -2.25689E+03  3.74164E+03 -6.68271E+03  2.92800E+03 -1.15248E+04 -1.72709E+03
 -7.93026E+03 -1.06619E+04  2.05946E+02 -1.75073E+04  1.06491E+04 -1.50474E+04  1.76162E+04 -4.73072E+03
  1.64884E+04  7.81444E+03  7.22111E+03  1.46314E+04 -3.33799E+03  1.71265E+04 -1.18333E+04  1.09391E+04
 -1.53307E+04  8.79202E+02 -1.14545E+04 -1.03073E+04 -1.29458E+03 -1.35255E+04  7.08579E+03 -1.06728E+04
  1.11693E+04 -3.42548E+03  7.43073E+03  3.30275E+03  1.86568E+03  5.19244E+03  2.10835E+03  2.30552E+03
  2.61957E+03  9.18531E+02  4.29049E+03  2.20199E+03  5.18542E+03  5.91986E+03  3.87072E+03  9.06213E+03
 -3.36516E+03  1.28148E+04 -1.22564E+04  1.30185E+04 -1.73131E+04  4.33876E+03 -1.79697E+04 -7.48228E+03
 -7.96301E+03 -1.73011E+04  2.92961E+03 -1.93230E+04  9.62557E+03 -1.15578E+04  1.33242E+04 -3.89803E+03
  1.12551E+04  6.69009E+03  2.31077E+03  9.64094E+03 -5.30816E+03  5.51332E+03 -6.68103E+03 -8.55277E+02
 -3.03771E+03 -7.57673E+03  4.31420E+03 -7.23570E+03  6.97491E+03 -3.34308E+03  7.22452E+03  1.72463E+03
  4.23997E+03  3.36694E+03  1.68915E+03  3.25964E+03 -8.10690E+02  2.47957E+03  1.91978E+03 -2.19122E+02
  2.34343E+03 -1.28743E+03  7.75335E+03  2.83456E+03  3.31066E+03  9.64893E+03 -2.59288E+03  1.21504E+04
 -8.83046E+03  7.98327E+03 -1.07060E+04  2.75466E+03 -1.01540E+04 -3.81784E+03 -4.02158E+03 -7.14564E+03
  1.56531E+03 -6.66613E+03  4.35403E+03 -2.84508E+03  4.04582E+03  3.33887E+03 -1.84946E+03  5.25011E+03
 -7.70779E+03  3.08819E+03 -8.46663E+03 -3.97602E+03 -5.66077E+03 -9.13483E+03  1.40592E+03 -1.00569E+04
  6.14193E+03 -5.99273E+03  7.05102E+03 -1.09775E+03  6.83002E+03  2.10022E+03  1.20464E+02  5.94704E+03
 -3.63769E+03  2.23783E+03 -4.47178E+03 -4.14836E+03  2.02575E+03 -6.75716E+03  9.42380E+03 -6.66303E+03
  1.02736E+04  8.40387E+02  1.07587E+04  7.20555E+03  3.85540E+03  1.17121E+04 -4.79291E+03  1.11814E+04
 -9.42950E+03  4.92187E+03 -9.61523E+03 -1.56747E+03 -4.89173E+03 -6.75824E+03  1.89002E+03 -7.71439E+03
  7.88435E+03 -3.05131E+03  6.30641E+03  3.50991E+03  1.95051E+03  6.54938E+03 -1.29026E+03  6.37752E+03
 -3.38705E+03  4.50981E+03 -1.96630E+03  1.24642E+03 -8.77775E+02  1.46007E+02 -1.44136E+03  2.31557E+03
 -2.39002E+03  4.82999E+03 -8.31325E+03  3.81154E+03 -1.22933E+04  9.05346E+01 -1.29594E+04 -6.96727E+03
 -6.08351E+03 -1.49002E+04  3.43251E+03 -1.80199E+04  1.15258E+04 -1.39519E+04  1.75817E+04 -5.93822E+03
  1.64952E+04  2.95231E+03  9.75287E+03  1.10151E+04  1.16537E+03  1.30477E+04 -4.27394E+03  9.12155E+03
 -7.07003E+03  3.22398E+03 -3.64224E+03 -1.44107E+03 -1.94116E+03 -1.46886E+03 -4.54021E+02  8.38308E+02
 -2.23785E+03  1.71103E+00 -2.38625E+03 -1.61892E+02 -8.71357E+02 -2.63844E+03  3.56263E+02 -4.25479E+03
  6.05267E+03 -3.85208E+03  6.99963E+03  5.26992E+00  8.27023E+03  7.19106E+03  3.17416E+03  1.30296E+04
 -6.83748E+03  1.45640E+04 -1.34441E+04  8.72555E+03 -1.53193E+04 -1.81646E+03 -1.13035E+04 -8.96151E+03
 -4.09542E+03 -1.21930E+04  2.48731E+03 -1.22511E+04  9.17754E+03 -6.42470E+03  7.37378E+03  7.66740E+02
  5.55359E+03  4.88868E+03 -1.97579E+02  3.60679E+03 -2.16301E+03  3.13028E+01 -1.99200E+02 -2.98222E+03
  3.07842E+03 -1.39832E+03  4.87015E+03  2.00196E+03  3.04591E+03  4.48160E+03  4.64711E+02  5.75456E+03
 -5.67870E+03  5.56683E+03 -8.52157E+03  9.84020E+02 -7.75921E+03 -7.02620E+03 -1.55039E+03 -1.03606E+04
  5.68724E+03 -9.07598E+03  1.00459E+04 -2.67855E+03  9.61077E+03  2.26352E+03  5.35516E+03  7.65942E+03
  1.30135E+03  8.87367E+03 -4.14520E+03  6.91042E+03 -4.88386E+03  4.72936E+03 -3.69628E+03  8.22818E+02
 -2.36835E+03  9.82529E+01 -2.52849E+03  9.04449E+02 -4.13559E+03  1.11672E+03 -6.36081E+03 -1.53141E+03
 -5.95582E+03 -5.85532E+03 -1.74443E+03 -9.08151E+03  3.80280E+03 -9.45287E+03  7.43349E+03 -4.28288E+03
  9.41316E+03  6.76873E+02  4.25002E+03  6.21517E+03 -9.14569E+02  8.31087E+03 -6.21288E+03  5.83068E+03
