 $NMID ID='MM_0lb_SNR400_10hz_g45_73.RAW', FMTDAT='(8E13.5)'
 TRAMP=1., VOLUME=1. $END
  3.09686E+05  3.81983E+02  3.38304E+05  2.50558E+05  8.41139E+04  3.38135E+05 -1.32582E+05  2.52187E+05
 -1.89915E+05  8.45006E+04 -1.11072E+05 -3.26702E+04 -7.24391E+02 -5.04669E+04  5.33281E+04 -7.21561E+02
  3.63191E+04  5.29502E+04 -1.66749E+04  7.52803E+04 -6.12733E+04  6.45629E+04 -8.49251E+04  3.29193E+04
 -8.21188E+04 -1.22046E+04 -5.84273E+04 -5.20431E+04 -1.55947E+04 -7.05235E+04  2.72123E+04 -4.60741E+04
  4.11795E+04  3.44279E+03  1.68131E+04  4.83610E+04 -3.50537E+04  4.78505E+04 -6.70879E+04  3.43681E+02
 -5.37195E+04 -5.73353E+04 -7.03801E+03 -7.83610E+04  3.36197E+04 -5.63978E+04  4.96608E+04 -1.77104E+04
  4.53611E+04  1.18924E+04  3.20180E+04  2.60786E+04  1.52949E+04  2.97804E+04 -5.81420E+03  2.82216E+04
 -2.21507E+04  1.13467E+04 -1.81664E+04 -5.70579E+03  6.92326E+03 -7.86743E+03  2.34433E+04  1.30387E+04
  7.38827E+03  3.67065E+04 -3.35787E+04  3.58163E+04 -6.51909E+04  2.12150E+03 -5.87883E+04 -4.39761E+04
 -1.30861E+04 -6.47528E+04  4.16442E+04 -4.71747E+04  6.03704E+04 -2.60570E+03  3.56673E+04  3.37416E+04
 -5.56472E+03  3.82045E+04 -3.05895E+04  1.81638E+04 -3.29074E+04 -3.47899E+03 -1.78884E+04 -1.22213E+04
 -9.50444E+03 -1.49817E+04 -2.37001E+02 -1.89314E+04  8.37240E+03 -2.24656E+04  1.63666E+04 -1.31731E+04
  1.06133E+04  5.11339E+03 -1.01233E+04  1.29810E+04 -2.32717E+04 -6.30336E+03 -8.76501E+03 -3.65011E+04
  2.46257E+04 -4.57022E+04  5.12650E+04 -2.10492E+04  4.73138E+04  2.07257E+04  1.70690E+04  4.51705E+04
 -1.61856E+04  3.53432E+04 -2.60354E+04  2.50023E+03 -1.09661E+04 -2.90876E+04  2.11469E+04 -3.66575E+04
  4.34017E+04 -9.89794E+03  3.89979E+04  2.51224E+04  1.99104E+04  5.01156E+04 -8.14846E+03  5.43174E+04
 -3.46864E+04  3.71774E+04 -4.57509E+04  1.06648E+04 -4.58562E+04 -1.81431E+04 -2.56443E+04 -4.06795E+04
  7.95845E+03 -4.11354E+04  3.31630E+04 -1.68712E+04  3.14172E+04  1.08111E+04  4.61252E+03  2.01776E+04
 -1.40712E+04  9.25296E+03 -1.12284E+04 -7.51528E+03  5.43276E+03 -1.08819E+04  1.86625E+04  5.21459E+03
  1.39697E+04  2.23121E+04 -5.85097E+03  2.67481E+04 -2.28980E+04  1.37566E+04 -3.05807E+04 -2.93266E+03
 -2.43623E+04 -1.77617E+04 -1.02359E+04 -2.37505E+04  3.78839E+03 -2.39712E+04  1.85371E+04 -2.16591E+04
  2.95850E+04 -1.35508E+04  3.56629E+04  4.18059E+03  2.51601E+04  2.28567E+04  4.41710E+03  3.96130E+04
 -1.91172E+04  3.33580E+04 -2.92722E+04  1.16079E+04 -2.25128E+04 -1.00224E+04 -4.90402E+03 -1.26818E+04
  1.40229E+03 -1.89004E+03 -6.99447E+03  7.46139E+03 -1.97008E+04  4.82495E+03 -1.95433E+04 -9.32047E+03
 -1.10749E+04 -2.22128E+04  5.86370E+03 -2.61410E+04  1.79462E+04 -1.86485E+04  2.11842E+04 -2.39307E+03
  1.38416E+04  1.56060E+04 -1.45326E+03  2.17826E+04 -1.48623E+04  1.28006E+04 -2.19235E+04 -4.28249E+03
 -1.64927E+04 -1.93476E+04 -1.84062E+03 -2.67113E+04  1.21610E+04 -2.20000E+04  2.22339E+04 -1.10374E+04
  2.08485E+04 -8.02728E+02  1.56034E+04  5.11315E+03  7.46040E+03  2.00358E+03  1.10220E+04 -1.15531E+03
  2.11821E+04  2.60213E+03  2.32781E+04  1.75320E+04  1.58851E+04  3.51199E+04 -2.95787E+03  4.09206E+04
 -2.37889E+04  3.43279E+04 -3.86170E+04  1.72799E+04 -4.15557E+04 -2.43128E+03 -3.32372E+04 -2.39003E+04
 -1.41606E+04 -3.39819E+04  1.16359E+04 -3.05520E+04  2.65837E+04 -1.44276E+04  2.23959E+04  7.76056E+03
  7.81567E+03  1.71829E+04 -1.02741E+04  1.43992E+04 -1.88723E+04  2.63656E+03 -1.44430E+04 -1.20301E+04
 -3.52287E+02 -1.78277E+04  8.92453E+03 -1.36361E+04  1.22559E+04 -1.71070E+03  2.87560E+03  7.91342E+03
 -8.19055E+03  4.34533E+03 -8.30189E+03 -6.22911E+03 -1.56232E+03 -1.70617E+04  1.06568E+04 -1.78783E+04
  2.11612E+04 -1.02649E+04  2.37264E+04  2.43708E+03  2.03140E+04  1.60189E+04  1.02006E+04  2.64964E+04
 -4.95753E+03  2.89592E+04 -1.87119E+04  1.72571E+04 -2.11473E+04  3.97107E+03 -1.41172E+04 -5.42542E+03
 -6.66280E+03 -6.44638E+03 -1.09778E+03  6.44807E+02 -2.01592E+03  3.09664E+03 -6.55015E+03  4.85376E+03
 -1.30603E+04 -1.23210E+03 -1.37647E+04 -1.04020E+04 -5.21294E+03 -1.83159E+04  6.09041E+03 -1.41240E+04
  1.18092E+04 -6.24093E+03  8.47037E+03  4.56560E+03 -3.53880E+02  5.42917E+03 -6.86269E+03  4.51471E+02
 -7.03831E+03 -8.72334E+03 -2.86377E+02 -1.41196E+04  8.75939E+03 -1.49466E+04  1.82767E+04 -8.27939E+03
  2.11970E+04  1.83651E+03  1.55520E+04  1.27119E+04  3.55427E+03  1.72714E+04 -8.90352E+03  1.44941E+04
 -1.11771E+04  4.23353E+03 -5.54187E+03 -3.13406E+03  2.18402E+03 -4.11786E+03  7.89351E+03 -1.41673E+03
  7.15347E+03  6.18598E+03  1.49145E+03  1.16047E+04 -7.68707E+03  1.08618E+04 -1.40686E+04  2.23617E+03
 -9.62060E+03 -6.89326E+03  7.39011E+02 -1.13795E+04  8.11227E+03 -6.56969E+03  8.09259E+03  2.92394E+03
  2.00235E+03  9.04458E+03 -7.57976E+03  1.00281E+04 -1.19735E+04  5.34013E+03 -1.21896E+04 -4.03558E+03
 -7.32485E+03 -1.40091E+04  3.69924E+03 -1.56107E+04  1.35381E+04 -9.59133E+03  1.52858E+04  3.58746E+03
  8.90670E+03  1.19214E+04 -1.79183E+03  1.50377E+04 -1.03858E+04  7.83871E+03 -1.10243E+04 -1.08189E+03
 -1.02620E+04 -9.93444E+03 -1.98565E+03 -1.09357E+04  6.05324E+03 -7.76606E+03  6.44849E+03 -3.68525E+03
  4.47253E+03  1.51532E+03 -6.97426E+02  2.29731E+03 -5.33181E+02 -3.13017E+03  2.71591E+03 -6.13487E+03
  9.77298E+03 -4.22289E+03  1.38760E+04  1.92364E+03  1.38969E+04  9.89969E+03  9.44846E+03  1.78755E+04
 -4.16155E+03  2.03773E+04 -1.74427E+04  1.51965E+04 -2.30482E+04  3.42139E+03 -1.77590E+04 -7.52428E+03
 -8.71882E+03 -1.48006E+04 -2.30138E+02 -1.31143E+04  4.55150E+03 -6.73001E+03  4.58947E+03 -4.00331E+03
  3.57141E+03 -2.64112E+03  4.02811E+03 -3.85465E+03  5.63966E+03 -2.55382E+03  7.14851E+03 -9.18211E+02
  9.46391E+03  3.27759E+03  5.03109E+03  8.12800E+03 -2.00075E+03  1.00467E+04 -1.05676E+04  7.58554E+03
 -1.31632E+04 -8.22475E+02 -8.45552E+03 -8.38618E+03 -5.85430E+02 -1.38356E+04  7.11136E+03 -1.39352E+04
  1.39848E+04 -7.55089E+03  1.64827E+04  2.49168E+03  1.14926E+04  1.12780E+04  1.60919E+03  1.55508E+04
 -6.73589E+03  1.24610E+04 -8.86124E+03  4.74437E+03 -6.93527E+03 -1.59186E+03 -2.28843E+03 -1.94151E+03
 -1.84918E+03  5.60872E+02 -1.51543E+03  3.27654E+03 -5.04334E+03  2.34902E+03 -8.79240E+03 -8.23712E+02
 -5.97427E+03 -8.83735E+03 -2.91300E+02 -1.28709E+04  7.51091E+03 -1.14084E+04  1.25150E+04 -3.10429E+03
  1.30880E+04  6.05740E+03  6.13549E+03  1.11766E+04 -2.88918E+03  1.29290E+04 -9.28456E+03  7.17533E+03
 -1.14236E+04  8.20271E+02 -8.55430E+03 -8.04578E+03 -9.68238E+02 -1.01130E+04  5.56583E+03 -7.29220E+03
  8.74557E+03 -3.01608E+03  5.75104E+03  2.67306E+03  1.70580E+03  3.87488E+03  1.63261E+03  1.77369E+03
  3.19749E+03  6.77305E+02  3.53578E+03  1.58068E+03  3.88346E+03  4.35816E+03  3.64327E+03  6.33970E+03
 -2.77813E+03  1.08876E+04 -9.79665E+03  1.07808E+04 -1.43462E+04  2.37776E+03 -1.35545E+04 -5.50236E+03
 -5.39130E+03 -1.26910E+04  1.67369E+03 -1.44467E+04  7.49871E+03 -8.35157E+03  1.05883E+04 -3.04468E+03
  7.75037E+03  4.69524E+03  1.81003E+03  7.36458E+03 -3.27056E+03  4.81366E+03 -4.74693E+03 -6.70570E+02
 -2.08174E+03 -5.47326E+03  3.41968E+03 -5.04298E+03  5.31418E+03 -2.84880E+03  5.35392E+03  8.11642E+02
  3.16656E+03  1.77988E+03  1.44038E+03  1.59467E+03 -6.56008E+02  2.38853E+03  1.51195E+03 -9.41838E+02
  1.99389E+03 -6.50818E+02  5.49831E+03  2.29945E+03  3.66582E+03  6.47320E+03 -8.24104E+02  9.29082E+03
 -6.60279E+03  5.91313E+03 -7.96097E+03  2.01944E+03 -6.91302E+03 -3.52049E+03 -2.28039E+03 -5.50400E+03
  9.39599E+02 -4.98546E+03  3.69735E+03 -2.23611E+03  2.64432E+03  2.92803E+03 -1.58407E+03  3.58408E+03
 -5.75080E+03  2.30674E+03 -5.71090E+03 -2.96248E+03 -3.98893E+03 -6.31937E+03  8.54550E+02 -7.42608E+03
  4.05771E+03 -4.11923E+03  5.52959E+03 -2.88547E+02  4.06082E+03  1.80572E+03  1.33456E+03  4.14342E+03
 -2.56887E+03  5.59095E+02 -3.68913E+03 -1.95004E+03  1.15275E+03 -5.41156E+03  5.90797E+03 -3.61642E+03
  7.45312E+03  8.48852E+02  7.55736E+03  5.08747E+03  2.73955E+03  8.18559E+03 -2.16832E+03  7.37283E+03
 -6.64661E+03  4.10147E+03 -6.21080E+03 -1.62775E+03 -3.21569E+03 -5.69024E+03  1.70313E+03 -5.49375E+03
  4.87079E+03 -2.25400E+03  4.46945E+03  1.81624E+03  1.29244E+03  4.37062E+03 -6.35682E+02  4.48778E+03
 -2.08199E+03  3.58963E+03 -1.79727E+03  5.40503E+02 -4.55577E+02  6.08810E+02 -1.13333E+03  2.06739E+03
 -1.85330E+03  3.21569E+03 -5.58412E+03  2.96136E+03 -8.03529E+03 -2.73333E+02 -9.86587E+03 -5.54972E+03
 -5.05014E+03 -1.15172E+04  2.49190E+03 -1.27122E+04  7.15682E+03 -1.04203E+04  1.21386E+04 -3.28890E+03
  1.07464E+04  2.60256E+03  6.71490E+03  7.32480E+03  1.04109E+03  8.71201E+03 -3.82887E+03  7.68486E+03
 -4.84066E+03  3.33319E+03 -2.61794E+03 -1.24286E+03 -9.23781E+02 -8.20009E+02 -7.13615E+02 -4.77458E+00
 -1.33393E+03  3.85435E+02 -1.43916E+03 -4.27393E+02 -8.59075E+02 -2.35038E+03 -2.46162E+02 -3.46337E+03
  3.76980E+03 -2.73314E+03  5.27571E+03 -2.41664E+02  5.53682E+03  5.02164E+03  2.04079E+03  8.92524E+03
 -4.32692E+03  9.75196E+03 -9.09986E+03  5.55126E+03 -1.01074E+04 -4.69300E+02 -7.61178E+03 -6.03679E+03
 -2.85400E+03 -8.65253E+03  2.57703E+03 -8.44752E+03  5.68914E+03 -4.82889E+03  5.94624E+03 -3.37505E+02
  2.34037E+03  2.32067E+03  4.56362E+01  2.42727E+03 -8.48118E+02  2.63811E+02 -1.07763E+01 -1.32726E+03
  2.14945E+03 -4.22437E+02  2.82009E+03  7.43742E+02  2.32089E+03  3.40681E+03  1.21968E+02  4.36481E+03
 -3.27709E+03  4.53963E+03 -5.98778E+03  2.99334E+02 -5.34667E+03 -4.13152E+03  1.62938E+02 -7.45620E+03
  4.24586E+03 -5.52601E+03  6.87049E+03 -1.92721E+03  5.90700E+03  1.22545E+03  2.97123E+03  6.00852E+03
  9.90668E+02  5.50067E+03 -1.88821E+03  4.38388E+03 -3.56289E+03  3.19512E+03 -3.33083E+03 -3.74247E+02
 -1.79850E+03  2.96205E+01 -6.20314E+02  6.68574E+02 -3.20892E+03  4.47107E+02 -5.13636E+03 -1.19831E+03
 -4.08942E+03 -2.85996E+03 -1.11563E+03 -5.62591E+03  2.44026E+03 -5.65112E+03  5.39651E+03 -3.19664E+03
  5.68004E+03  1.25662E+03  2.55371E+03  3.71233E+03 -1.79415E+02  6.37214E+03 -4.04522E+03  3.46831E+03
