 $NMID ID='MM_0lb_SNR400_14hz_g40_79.RAW', FMTDAT='(8E13.5)'
 TRAMP=1., VOLUME=1. $END
  3.10046E+05  3.97115E+02  3.37496E+05  2.50684E+05  8.44483E+04  3.37359E+05 -1.33030E+05  2.50695E+05
 -1.89368E+05  8.31757E+04 -1.11405E+05 -3.29742E+04  7.16707E+02 -4.99799E+04  5.40573E+04 -3.39814E+02
  3.51566E+04  5.28989E+04 -1.65506E+04  7.50345E+04 -6.04450E+04  6.32383E+04 -8.37510E+04  3.19769E+04
 -8.01385E+04 -1.16707E+04 -5.68800E+04 -5.05507E+04 -1.49105E+04 -6.93619E+04  2.76431E+04 -4.55358E+04
  3.93560E+04  2.80686E+03  1.56962E+04  4.77949E+04 -3.45711E+04  4.59399E+04 -6.68287E+04 -4.32796E+02
 -5.35039E+04 -5.63925E+04 -6.10228E+03 -7.64891E+04  3.38558E+04 -5.45349E+04  4.79458E+04 -1.67355E+04
  4.33024E+04  1.14593E+04  3.13135E+04  2.53257E+04  1.60745E+04  2.95650E+04 -4.39253E+03  2.72593E+04
 -2.20203E+04  1.20190E+04 -1.95420E+04 -4.20058E+03  5.39963E+03 -7.11115E+03  2.21740E+04  1.18095E+04
  7.34552E+03  3.43879E+04 -3.18596E+04  3.49306E+04 -6.21078E+04  1.90867E+03 -5.61516E+04 -4.24916E+04
 -1.25403E+04 -6.23281E+04  3.96731E+04 -4.46047E+04  5.75949E+04 -2.27971E+03  3.34351E+04  3.16591E+04
 -5.56503E+03  3.54455E+04 -2.96665E+04  1.54895E+04 -2.99877E+04 -5.36040E+03 -1.61094E+04 -1.12387E+04
 -8.06172E+03 -1.28789E+04 -7.24668E+02 -1.77420E+04  7.22911E+03 -2.28272E+04  1.48355E+04 -1.39797E+04
  1.13845E+04  5.21806E+03 -7.48473E+03  1.31686E+04 -2.02256E+04 -3.89753E+03 -8.75355E+03 -3.27408E+04
  2.27447E+04 -4.26657E+04  4.70746E+04 -1.94515E+04  4.43663E+04  1.93410E+04  1.53005E+04  4.39987E+04
 -1.57422E+04  3.29913E+04 -2.54843E+04  2.09922E+03 -9.16222E+03 -2.75085E+04  2.08855E+04 -3.32887E+04
  4.04582E+04 -9.06447E+03  3.47509E+04  2.36485E+04  1.73569E+04  4.59203E+04 -8.07669E+03  4.92650E+04
 -3.03759E+04  3.27535E+04 -4.11120E+04  9.24135E+03 -4.17724E+04 -1.59091E+04 -2.35596E+04 -3.75930E+04
  7.14288E+03 -3.71227E+04  3.10285E+04 -1.47377E+04  2.91956E+04  1.06874E+04  3.66414E+03  1.85358E+04
 -1.39537E+04  7.98107E+03 -1.00689E+04 -6.92364E+03  5.44116E+03 -1.08881E+04  1.79927E+04  5.61911E+03
  1.32272E+04  2.19972E+04 -6.08863E+03  2.45955E+04 -2.22320E+04  1.09056E+04 -2.73035E+04 -5.27714E+03
 -1.96806E+04 -1.70637E+04 -7.78062E+03 -1.99029E+04  3.69720E+03 -1.88271E+04  1.50055E+04 -1.76718E+04
  2.54441E+04 -1.32001E+04  3.20965E+04  2.14304E+03  2.32979E+04  1.91762E+04  4.33266E+03  3.61455E+04
 -1.77560E+04  2.94874E+04 -2.77724E+04  1.03711E+04 -2.03310E+04 -1.03260E+04 -4.52119E+03 -1.39086E+04
  2.28344E+03 -3.50154E+03 -4.55188E+03  6.61044E+03 -1.54771E+04  5.04363E+03 -1.57170E+04 -7.00408E+03
 -9.73377E+03 -1.76639E+04  5.06805E+03 -2.21830E+04  1.42692E+04 -1.61723E+04  1.73174E+04 -1.60635E+03
  1.05538E+04  1.27659E+04 -1.50405E+03  1.83653E+04 -1.19473E+04  1.09821E+04 -1.76933E+04 -4.28625E+03
 -1.33846E+04 -1.71179E+04 -2.22994E+03 -2.21152E+04  9.94783E+03 -1.84880E+04  1.84227E+04 -8.96776E+03
  1.63805E+04  4.22004E+02  1.21558E+04  4.20471E+03  6.59723E+03  4.14485E+02  8.86037E+03 -1.46765E+03
  1.64238E+04  2.65642E+03  1.83081E+04  1.45149E+04  1.28670E+04  2.85441E+04 -3.37258E+03  3.23858E+04
 -1.93615E+04  2.58076E+04 -3.02111E+04  1.32017E+04 -3.15770E+04 -2.18630E+03 -2.65892E+04 -1.76195E+04
 -1.19561E+04 -2.58875E+04  8.50625E+03 -2.36679E+04  2.03936E+04 -1.25812E+04  1.89982E+04  4.77872E+03
  6.55173E+03  1.39363E+04 -8.12199E+03  1.20965E+04 -1.52567E+04  3.04545E+03 -1.19803E+04 -9.43907E+03
  3.19181E+02 -1.47723E+04  8.08925E+03 -1.06672E+04  9.40611E+03 -1.22452E+03  2.10719E+03  6.80001E+03
 -6.80452E+03  2.63241E+03 -5.60062E+03 -5.51821E+03 -5.30355E+02 -1.28695E+04  9.27039E+03 -1.33800E+04
  1.59698E+04 -6.98705E+03  1.71602E+04  3.07428E+03  1.41162E+04  1.26047E+04  6.31056E+03  1.92879E+04
 -2.96472E+03  2.04490E+04 -1.35798E+04  1.29404E+04 -1.45203E+04  3.80263E+03 -1.02992E+04 -2.86409E+03
 -5.60858E+03 -5.11354E+03 -1.05257E+03  9.03457E+02 -2.16902E+03  2.34997E+03 -4.87328E+03  4.14437E+03
 -1.04076E+04 -2.86418E+02 -1.02283E+04 -8.20923E+03 -4.22603E+03 -1.42653E+04  4.68154E+03 -1.12425E+04
  9.12122E+03 -4.15400E+03  6.55728E+03  2.83356E+03 -4.96458E+02  4.08760E+03 -4.76939E+03  1.46180E+02
 -4.39303E+03 -7.03361E+03 -1.18450E+03 -1.02643E+04  5.14541E+03 -1.07441E+04  1.31937E+04 -5.99645E+03
  1.59457E+04  1.55985E+03  1.18532E+04  8.95023E+03  2.09573E+03  1.19765E+04 -7.03130E+03  1.02656E+04
 -8.69984E+03  4.28082E+03 -4.20258E+03 -1.95604E+03  1.66393E+03 -2.08421E+03  6.04456E+03 -1.21950E+03
  5.26208E+03  4.24449E+03  9.70328E+02  8.82949E+03 -5.80131E+03  8.52870E+03 -1.02823E+04  3.15943E+03
 -6.39375E+03 -5.15437E+03 -4.75889E+01 -8.98792E+03  5.64660E+03 -5.35253E+03  5.35497E+03  1.76460E+03
  6.18041E+02  6.22268E+03 -6.04156E+03  6.76957E+03 -7.70848E+03  3.63862E+03 -7.12357E+03 -2.90739E+03
 -4.56098E+03 -8.84715E+03  2.10367E+03 -1.07713E+04  9.33039E+03 -6.87752E+03  9.88594E+03  1.52605E+03
  6.31568E+03  8.06402E+03 -8.63942E+02  9.80616E+03 -7.26080E+03  5.73183E+03 -8.13625E+03 -1.30610E+03
 -7.68715E+03 -6.91347E+03 -1.08642E+03 -7.21540E+03  3.60890E+03 -6.16574E+03  3.62418E+03 -3.55551E+03
  3.98294E+03  1.34729E+03 -4.59606E+02  1.77491E+03  1.82045E+02 -6.58385E+02  8.42077E+02 -3.62636E+03
  6.36379E+03 -1.76369E+03  8.96240E+03  9.08080E+02  9.13997E+03  5.83225E+03  6.67534E+03  1.16021E+04
 -2.80845E+03  1.39466E+04 -1.19641E+04  1.05651E+04 -1.45753E+04  2.36734E+03 -1.23905E+04 -5.01852E+03
 -5.95437E+03 -9.84012E+03 -6.99208E+02 -8.08396E+03  2.61743E+03 -4.86035E+03  2.70569E+03 -2.88446E+03
  1.72747E+03 -2.50215E+03  2.74512E+03 -3.10239E+03  3.86725E+03 -1.81005E+03  4.95626E+03  8.47539E+02
  6.64229E+03  1.17369E+03  2.87217E+03  5.07578E+03 -1.70408E+03  5.47404E+03 -6.75152E+03  4.26223E+03
 -8.77347E+03 -1.60565E+03 -4.07880E+03 -5.26150E+03  2.02994E+02 -8.74131E+03  4.89826E+03 -8.00073E+03
  9.18645E+03 -4.91853E+03  1.02191E+04  1.12753E+03  7.42176E+03  6.87560E+03  1.28320E+03  8.90073E+03
 -3.86634E+03  8.49201E+03 -5.82441E+03  2.74304E+03 -3.83248E+03 -1.39610E+03 -1.06034E+03 -7.80522E+02
 -1.21291E+03 -1.98193E+02 -1.63099E+03  2.52015E+03 -3.80833E+03  1.61959E+03 -5.98361E+03 -1.29339E+03
 -3.93769E+03 -5.47515E+03  3.43914E+02 -7.75742E+03  4.89674E+03 -7.55759E+03  6.78277E+03 -2.59951E+03
  7.63617E+03  4.31523E+03  2.99417E+03  5.82319E+03 -1.51025E+03  7.59932E+03 -5.08697E+03  4.52486E+03
 -6.69709E+03  6.57889E+02 -5.76662E+03 -4.99942E+03 -5.46334E+02 -6.34715E+03  3.05567E+03 -3.97095E+03
  5.04786E+03 -1.61069E+03  3.66156E+03  1.75678E+03  6.95006E+02  2.07061E+03  1.01265E+03  1.45338E+03
  2.23732E+03  7.95995E+02  2.24336E+03  3.53590E+02  1.76668E+03  3.35614E+03  1.71699E+03  3.57299E+03
 -2.45894E+03  4.59777E+03 -5.13866E+03  6.66514E+03 -6.74605E+03  1.92840E+03 -7.76082E+03 -2.05520E+03
 -3.79968E+03 -7.22506E+03  6.27346E+02 -7.64895E+03  4.83941E+03 -4.48984E+03  4.92171E+03 -1.92280E+03
  4.22180E+03  2.63050E+03  1.16006E+03  3.78749E+03 -2.30417E+03  2.27986E+03 -2.90493E+03  3.13779E+01
 -5.62430E+02 -3.15681E+03  2.81669E+03 -2.47431E+03  3.07206E+03 -1.93955E+03  2.17244E+03  8.15780E+02
  1.82092E+03  1.04198E+03  4.96529E+02  6.18042E+02 -2.04924E+02  1.10084E+03  1.78045E+03 -3.36333E+02
  1.23371E+03  1.36548E+02  3.31808E+03  1.54121E+03  1.55780E+03  3.63513E+03 -3.00812E+02  4.62413E+03
 -3.60476E+03  2.74367E+03 -4.17733E+03  8.11075E+02 -3.63927E+03 -1.31208E+03 -1.28536E+03 -2.22812E+03
  5.65814E+02 -2.81757E+03  1.73085E+03 -1.20319E+03  1.49350E+03  2.71382E+03 -7.19534E+02  2.19977E+03
 -3.09641E+03  1.00896E+03 -2.87524E+03 -1.78907E+03 -1.67658E+03 -3.35563E+03  3.17135E+02 -3.55876E+03
  1.50566E+03 -2.45939E+03  2.08990E+03 -3.61434E+02  1.90643E+03  1.79797E+02  6.43684E+02  1.90619E+03
 -7.51107E+02 -1.73151E+02 -1.84045E+03 -3.78344E+02  8.26105E+02 -2.29197E+03  3.17615E+03 -2.11823E+03
  3.72707E+03  3.63534E+01  5.42582E+03  2.91185E+03  2.44666E+03  3.40141E+03 -1.17506E+03  4.06829E+03
 -3.38571E+03  1.23787E+03 -3.50762E+03 -7.45988E+02 -1.95807E+03 -2.67803E+03  7.84320E+02 -2.13351E+03
  2.15306E+03 -6.38671E+02  1.81672E+03  1.01995E+03  9.02531E+02  2.08678E+03  7.26558E+01  1.97827E+03
 -1.20593E+03  2.00003E+03 -1.15125E+03  4.79000E+02 -6.21129E+02  5.45151E+02 -1.19179E+03  1.30401E+03
 -1.41090E+03  1.68200E+03 -3.47117E+03  1.24235E+03 -3.92186E+03  4.57665E+02 -4.48807E+03 -2.06069E+03
 -2.59960E+03 -5.51616E+03  1.23079E+03 -6.47700E+03  3.80547E+03 -4.35248E+03  6.13313E+03 -2.07879E+03
  5.68415E+03  5.81947E+02  3.17718E+03  3.82683E+03 -1.84505E+02  3.46862E+03 -1.95589E+03  2.65544E+03
 -2.25583E+03  1.24752E+03 -1.38970E+03 -6.68075E+02 -6.65813E+02  9.81678E+01 -4.37607E+02  2.05531E+02
 -1.80255E+03  2.53731E+02 -1.45503E+03 -3.94437E+01 -3.50300E+01 -1.63756E+03 -3.73544E+01 -1.45062E+03
  2.54183E+03 -1.27802E+03  2.15203E+03 -6.10403E+02  2.38856E+03  2.85825E+03  2.22421E+02  3.82457E+03
 -1.59389E+03  4.82949E+03 -4.02700E+03  3.03980E+03 -4.54590E+03 -3.73502E+02 -3.73165E+03 -2.96922E+03
 -1.94192E+03 -3.32656E+03  8.55770E+02 -3.96641E+03  2.48904E+03 -1.59508E+03  2.53488E+03  1.12545E+02
  1.23743E+03  8.73126E+02 -3.30707E+02  9.77518E+02 -2.04121E+02 -3.14008E+02 -2.52498E+02 -8.50751E+02
  1.78540E+03 -1.28255E+02  1.28615E+03  1.06361E+03  5.58961E+02  1.07105E+03  8.57107E+02  1.70929E+03
 -1.20717E+03  1.95340E+03 -1.44428E+03 -2.53459E+02 -1.61148E+03 -1.91963E+03 -1.39215E+02 -3.03044E+03
  1.90198E+03 -3.25885E+03  2.17319E+03  8.79600E+01  2.79689E+03 -7.43158E+02  1.05191E+03  2.44950E+03
  4.84615E+02  2.04161E+03 -5.50424E+02  2.03418E+03 -1.38234E+03  9.61653E+02 -1.32911E+03  4.09328E+01
 -7.52723E+02 -7.33907E+02 -8.31795E+02  1.70441E+01 -1.14531E+03  4.17408E+02 -1.21665E+03 -3.60138E+02
 -1.97912E+03 -8.22496E+02 -6.78044E+02 -2.48325E+03  1.23721E+03 -3.36811E+03  2.13708E+03 -6.12692E+02
  2.21918E+03  2.00898E+01  3.16368E+01  1.29455E+03 -1.76790E+02  2.36338E+03 -1.87462E+03  1.24063E+03
