 $NMID ID='MM_0lb_SNR400_20hz_g40_56.RAW', FMTDAT='(8E13.5)'
 TRAMP=1., VOLUME=1. $END
  3.10334E+05  7.80169E+02  3.37232E+05  2.50922E+05  8.42472E+04  3.37070E+05 -1.32517E+05  2.49651E+05
 -1.89198E+05  8.25226E+04 -1.10928E+05 -3.29897E+04  1.99381E+03 -4.98411E+04  5.38653E+04  5.29688E+02
  3.46425E+04  5.28300E+04 -1.70917E+04  7.47475E+04 -5.97968E+04  6.20742E+04 -8.24220E+04  3.10506E+04
 -7.85903E+04 -1.11408E+04 -5.57806E+04 -4.93300E+04 -1.50342E+04 -6.73284E+04  2.61510E+04 -4.40448E+04
  3.82972E+04  3.94695E+03  1.49356E+04  4.64435E+04 -3.32985E+04  4.54948E+04 -6.50188E+04 -2.87657E+02
 -5.14553E+04 -5.50927E+04 -5.38653E+03 -7.41988E+04  3.27736E+04 -5.19845E+04  4.50647E+04 -1.56544E+04
  4.05612E+04  1.14422E+04  3.01012E+04  2.36124E+04  1.59639E+04  2.75454E+04 -4.08736E+03  2.62705E+04
 -2.13202E+04  1.24401E+04 -1.97324E+04 -4.03853E+03  3.42783E+03 -7.22837E+03  2.10508E+04  1.05104E+04
  7.52308E+03  3.22860E+04 -2.96891E+04  3.28241E+04 -5.99451E+04  2.57521E+03 -5.45877E+04 -4.07713E+04
 -1.18065E+04 -5.92872E+04  3.74465E+04 -4.22255E+04  5.40803E+04 -2.27955E+03  3.01568E+04  2.98719E+04
 -6.66551E+03  3.12857E+04 -2.75495E+04  1.20639E+04 -2.62655E+04 -5.65453E+03 -1.30252E+04 -9.67502E+03
 -6.60646E+03 -1.01572E+04 -1.44157E+03 -1.61843E+04  6.06647E+03 -2.19707E+04  1.48257E+04 -1.43958E+04
  1.29065E+04  4.06462E+03 -4.87969E+03  1.30255E+04 -1.82632E+04 -1.66918E+03 -7.31415E+03 -2.90057E+04
  1.98515E+04 -3.85409E+04  4.30224E+04 -1.81431E+04  4.11107E+04  1.80097E+04  1.35972E+04  4.03177E+04
 -1.53434E+04  2.97243E+04 -2.22255E+04  8.46143E+02 -7.75224E+03 -2.61390E+04  2.00371E+04 -2.97786E+04
  3.63956E+04 -6.55494E+03  2.92041E+04  2.24678E+04  1.37133E+04  4.05194E+04 -7.68943E+03  4.31075E+04
 -2.66233E+04  2.77067E+04 -3.50808E+04  7.83622E+03 -3.63268E+04 -1.43975E+04 -2.03964E+04 -3.28961E+04
  6.57458E+03 -3.27153E+04  2.80626E+04 -1.23952E+04  2.54302E+04  1.04037E+04  2.73393E+03  1.69502E+04
 -1.38308E+04  6.38998E+03 -9.44458E+03 -8.18997E+03  6.13841E+03 -9.88452E+03  1.71992E+04  6.95829E+03
  1.23579E+04  2.11949E+04 -6.83082E+03  2.23026E+04 -2.13271E+04  8.11087E+03 -2.39355E+04 -6.71658E+03
 -1.48156E+04 -1.62270E+04 -4.70644E+03 -1.48427E+04  4.04463E+03 -1.20551E+04  1.08528E+04 -1.30049E+04
  1.90483E+04 -1.11295E+04  2.60211E+04  4.86145E+02  2.00902E+04  1.42939E+04  4.36478E+03  3.02854E+04
 -1.53165E+04  2.63632E+04 -2.51525E+04  9.03859E+03 -1.90610E+04 -1.03032E+04 -3.92365E+03 -1.44085E+04
  2.39551E+03 -4.95640E+03 -1.92101E+03  4.87221E+03 -1.16668E+04  5.43000E+03 -1.24790E+04 -3.93651E+03
 -8.06327E+03 -1.44082E+04  4.26351E+03 -1.80167E+04  1.10042E+04 -1.29894E+04  1.26525E+04 -1.85572E+03
  8.42648E+03  1.00820E+04 -9.78448E+02  1.40965E+04 -9.01083E+03  8.22446E+03 -1.32720E+04 -3.34231E+03
 -1.06658E+04 -1.27588E+04 -1.42829E+03 -1.77176E+04  8.11740E+03 -1.35623E+04  1.50275E+04 -6.37226E+03
  1.32699E+04  7.53971E+02  9.41282E+03  3.90313E+03  4.44864E+03  4.17159E+02  6.33838E+03 -1.35479E+03
  1.24261E+04  2.74229E+03  1.27580E+04  1.19935E+04  7.39429E+03  2.21902E+04 -3.67188E+03  2.33657E+04
 -1.43577E+04  1.77240E+04 -2.11901E+04  7.92938E+03 -2.16976E+04 -1.21034E+03 -1.87294E+04 -1.26258E+04
 -9.26637E+03 -1.76045E+04  5.47429E+03 -1.68927E+04  1.47257E+04 -1.03350E+04  1.41932E+04  2.88396E+03
  6.29195E+03  1.00108E+04 -6.54501E+03  9.76135E+03 -1.19503E+04  2.80110E+03 -9.76039E+03 -6.91372E+03
 -2.72863E+02 -1.15860E+04  5.44577E+03 -8.53097E+03  7.33458E+03 -1.51299E+03  9.64608E+02  4.74864E+03
 -5.28591E+03  8.99138E+02 -2.66200E+03 -3.57974E+03  1.23433E+03 -9.56559E+03  7.51807E+03 -8.07323E+03
  1.06345E+04 -3.85117E+03  1.01751E+04  2.50627E+03  8.94232E+03  7.95387E+03  4.39422E+03  1.17855E+04
 -1.37154E+03  1.34291E+04 -7.79136E+03  8.91220E+03 -9.40402E+03  3.00558E+03 -7.58677E+03 -1.12778E+03
 -4.06698E+03 -2.53205E+03 -9.94635E+02  1.69764E+03 -1.75651E+03  1.97062E+03 -2.94075E+03  3.45419E+03
 -7.00753E+03 -3.68085E+02 -7.77401E+03 -6.23295E+03 -3.34214E+03 -1.02412E+04  3.41432E+03 -7.36701E+03
  6.66500E+03 -3.58597E+03  4.72696E+03  2.32214E+03  7.57736E+02  2.55575E+03 -2.54267E+03  3.12015E+02
 -2.58186E+03 -4.50394E+03 -1.05555E+03 -5.70468E+03  2.89170E+03 -7.01275E+03  8.72006E+03 -3.33881E+03
  1.01562E+04  1.99867E+02  7.90081E+03  5.26370E+03  1.39213E+03  6.84175E+03 -4.78257E+03  7.65136E+03
 -6.63426E+03  2.55970E+03 -2.97309E+03 -1.06902E+03  1.22533E+03 -2.15002E+03  4.57012E+03 -1.07401E+03
  3.58995E+03  3.48352E+03  8.52433E+02  5.14792E+03 -3.86832E+03  5.96766E+03 -6.53048E+03  1.68898E+03
 -4.25836E+03 -3.33976E+03  5.60666E+02 -5.80570E+03  3.05664E+03 -2.61338E+03  2.91646E+03  1.09356E+03
  4.86121E+02  2.59631E+03 -3.95139E+03  3.97515E+03 -3.76060E+03  2.06051E+03 -3.33729E+03 -6.98504E+02
 -2.62852E+03 -4.46358E+03  4.21122E+02 -5.28261E+03  4.78295E+03 -3.80800E+03  4.90795E+03  8.08351E+02
  3.85624E+03  4.01851E+03  3.52705E+02  6.53920E+03 -4.56003E+03  4.37155E+03 -4.37323E+03 -1.03155E+03
 -5.06133E+03 -4.46438E+03 -1.54652E+03 -4.77740E+03  2.51071E+03 -3.90888E+03  2.19648E+03 -2.78993E+03
  2.27430E+03  3.46302E+02  2.80555E+01  1.50439E+03  1.00091E+03  4.03119E+02 -4.68518E+02 -9.42680E+02
  2.61448E+03  1.28535E+01  4.07628E+03  8.96073E+02  5.04094E+03  1.96204E+03  4.88707E+03  5.74993E+03
 -8.35410E+02  6.90589E+03 -6.57131E+03  5.59229E+03 -8.37943E+03  8.56766E+02 -6.05810E+03 -1.94758E+03
 -3.56448E+03 -5.47588E+03 -1.78332E+02 -4.16806E+03  1.54237E+03 -1.70253E+03  1.42034E+03 -1.74529E+03
  1.07932E+03 -2.04374E+03  1.93307E+03 -2.45825E+03  3.47907E+03 -1.46654E+03  3.30251E+03  6.03818E+02
  4.38168E+03  1.49753E+03  2.90868E+02  2.64165E+03 -1.23762E+03  2.06618E+03 -3.53499E+03  1.40493E+03
 -3.85797E+03 -1.14756E+03 -1.20199E+03 -2.36708E+03  4.99612E+02 -4.34830E+03  2.96762E+03 -4.66641E+03
  4.23310E+03 -2.48208E+03  5.60519E+03  1.97739E+02  4.19306E+03  3.28655E+03  1.29483E+03  4.95376E+03
 -1.39691E+03  4.90968E+03 -2.49201E+03  1.56899E+03 -1.39155E+03 -1.38310E+03 -3.59421E+02 -3.25178E+02
 -7.40876E+01  6.42949E+02 -6.87687E+02  1.62744E+03 -1.84087E+03  1.08644E+03 -3.64153E+03 -1.76815E+02
 -1.06575E+03 -3.48227E+03  7.60248E+02 -3.66463E+03  1.71152E+03 -3.60714E+03  2.39681E+03 -6.54045E+02
  3.26566E+03  2.15202E+03  1.71071E+03  2.43889E+03 -7.46038E+02  3.72238E+03 -2.21758E+03  1.75628E+03
 -3.12959E+03  7.61693E+02 -2.82464E+03 -1.93562E+03 -1.05153E+03 -2.66659E+03  6.51994E+02 -1.92366E+03
  2.06786E+03 -1.40583E+03  1.30931E+03  4.97589E+02  1.78479E+00  1.37422E+03  5.35361E+02  1.69305E+02
  1.36765E+03  4.86378E+02  1.13639E+03  6.86027E+02  8.26629E+02  1.59371E+03  1.11444E+03  1.67615E+03
 -1.15431E+03  2.24394E+03 -1.79657E+03  3.31415E+03 -2.44005E+03  1.26581E+03 -2.90523E+03  1.16608E+02
 -1.23495E+03 -2.82160E+03  5.97238E+02 -3.73707E+03  1.04965E+03 -1.97587E+03  2.37852E+03 -1.11787E+03
  1.44227E+03  1.33913E+03 -1.19438E+02  1.42272E+03 -5.65266E+02  6.69548E+02 -3.90866E+02 -2.58010E+01
 -5.88676E+02 -1.11765E+03  1.12469E+03 -8.04377E+02  6.89232E+02 -1.10201E+03  9.48386E+02  1.93696E+02
  8.19036E+02 -7.40422E+01  6.75982E+02 -9.39663E+02 -7.04427E+01  4.26852E+02  1.24378E+03 -5.59095E+02
 -4.94381E+01 -3.93015E+02  1.39593E+03  7.28603E+02  4.58417E+02  2.24333E+03 -8.92751E+02  2.54258E+03
 -1.32183E+03  9.47141E+02 -1.40186E+03  6.11260E+01 -1.77603E+03 -4.40378E+02  2.04733E+01 -2.22959E+02
  5.65264E+02 -7.53770E+02  4.19804E+02 -4.08350E+02  8.57129E+02  1.67338E+03 -8.83996E+02  1.04460E+03
 -1.51292E+03  4.31460E+02 -3.66573E+02 -9.68054E+02 -2.98669E+02 -1.91688E+03 -8.44848E+01 -1.13988E+03
  4.20330E+02  2.60111E+02  2.79606E+02 -4.59872E+01  1.16616E+03  1.56258E+02 -1.76781E+02  1.22694E+03
  3.47817E+02 -5.08303E+01 -5.57633E+02 -5.92855E+01  6.54715E+02 -5.99572E+02  1.60600E+03 -5.90746E+02
  5.74455E+02  1.96956E+02  2.17778E+03  3.66963E+02  1.33733E+03  9.44242E+02  3.48629E+02  1.46564E+03
 -1.45332E+03  4.94431E+02 -1.07315E+03  8.50295E+01 -7.67574E+02 -9.67168E+02  4.08365E+02 -6.71170E+01
  1.41511E+03 -8.39064E+02  5.82103E+02  1.11217E+03  4.70982E+02  1.24251E+03  1.43807E+02  9.09833E+02
 -7.59610E+02  1.31407E+03 -4.02524E+02 -7.77275E+01  9.96868E+01 -1.11694E+02 -8.04138E+02  3.66399E+02
 -4.69200E+02  6.16379E+02 -1.34734E+03  5.21825E+02 -1.71197E+03  5.68033E+02 -1.76085E+03 -4.04833E+02
 -8.70763E+02 -1.44895E+03  3.71093E+02 -1.84967E+03  6.30809E+02 -1.88069E+03  1.88792E+03 -6.95719E+02
  1.60619E+03 -3.51604E+02  9.71275E+02  1.33435E+03 -4.48923E+02  8.72210E+02 -2.47528E+02  8.79274E+01
 -6.98806E+02  2.83830E+02 -6.96198E+02  1.57832E+02 -6.44739E+02  6.30222E+02 -4.26425E+02  2.61714E+02
 -1.20935E+03  9.94164E+01 -2.48582E+02 -2.37446E+02 -4.66940E+02 -5.78665E+02 -7.54494E+02 -1.05988E+03
  1.24436E+03  1.33780E+02  3.76062E+01 -1.60722E+02  1.09462E+03  3.62723E+02 -5.19953E+02  8.52116E+02
 -6.56578E+02  1.18482E+03 -1.08936E+03  1.46313E+03 -1.34975E+03 -6.01208E+02 -3.17138E+02 -1.46255E+03
 -8.91513E+02 -7.30176E+02  5.78009E+02 -1.01692E+03 -1.59155E+02 -2.48099E+02  7.54567E+02 -2.20040E+02
  7.77743E+02  4.91304E+02  1.00150E+02  7.80487E+02 -1.32891E+02  8.06577E+01 -3.61814E+02 -8.50096E+00
  4.47327E+02  2.79083E+02  2.95960E+02  2.68157E+02 -2.31155E+02 -2.53266E+02  5.57861E+02  2.30770E+01
 -4.11817E+02  4.20616E+02 -6.37190E+02  1.62580E+02 -4.38247E+02  3.81690E+02  2.71521E+02 -3.76311E+02
  3.56576E+02 -7.08341E+02  2.42726E+02  7.52968E+02  6.49642E+02 -5.50723E+02  8.25556E+02  5.79102E+02
  2.02009E+02  8.22065E+02 -3.00858E+01  4.86746E+02 -4.31718E+02  2.27532E+02 -6.05243E+02  2.42689E+02
 -2.45568E+02  8.06380E+01 -3.06652E+02  3.88190E+02 -1.09952E+03 -2.60527E+01 -5.23273E+02 -4.59425E+02
 -9.02016E+02  6.32581E+02 -3.17033E+02 -1.06267E+03  8.78664E+02 -1.46266E+03  4.25066E+02 -2.99138E+02
  1.65153E+02  2.18792E+02 -1.11541E+03  3.82377E+02 -4.30535E+02  1.01955E+03 -3.07809E+02  3.42922E+02
