 $NMID ID='MM_0lb_SNR400_18hz_g50_82.RAW', FMTDAT='(8E13.5)'
 TRAMP=1., VOLUME=1. $END
  3.09497E+05  2.97396E+02  3.36971E+05  2.50564E+05  8.45794E+04  3.37768E+05 -1.32905E+05  2.50567E+05
 -1.89861E+05  8.24006E+04 -1.11670E+05 -3.26116E+04  1.11138E+03 -5.08958E+04  5.40381E+04 -7.73761E+01
  3.53271E+04  5.32999E+04 -1.71384E+04  7.50795E+04 -6.02181E+04  6.23232E+04 -8.37218E+04  3.21297E+04
 -8.01116E+04 -1.10612E+04 -5.60385E+04 -5.01961E+04 -1.49613E+04 -6.88264E+04  2.69846E+04 -4.47765E+04
  3.96674E+04  4.04087E+03  1.55179E+04  4.71223E+04 -3.35918E+04  4.62549E+04 -6.54612E+04 -5.25058E+02
 -5.23136E+04 -5.57793E+04 -6.68608E+03 -7.57732E+04  3.32925E+04 -5.33468E+04  4.68236E+04 -1.59799E+04
  4.21741E+04  1.13177E+04  3.07792E+04  2.43782E+04  1.60179E+04  2.84579E+04 -4.63479E+03  2.74511E+04
 -2.20835E+04  1.27718E+04 -1.83860E+04 -4.84177E+03  5.11741E+03 -7.46509E+03  2.11074E+04  1.10345E+04
  7.78844E+03  3.34755E+04 -3.11635E+04  3.44203E+04 -6.19251E+04  2.40970E+03 -5.54150E+04 -4.18286E+04
 -1.21375E+04 -6.15460E+04  3.88619E+04 -4.38690E+04  5.56991E+04 -1.26279E+03  3.24603E+04  3.08988E+04
 -6.75177E+03  3.35846E+04 -2.92286E+04  1.40535E+04 -2.80588E+04 -4.94127E+03 -1.46273E+04 -1.03767E+04
 -7.80578E+03 -1.15559E+04 -1.09229E+03 -1.64721E+04  6.84695E+03 -2.28741E+04  1.45214E+04 -1.33660E+04
  1.14235E+04  4.13227E+03 -6.50962E+03  1.32140E+04 -1.97556E+04 -3.32871E+03 -8.25889E+03 -3.11921E+04
  2.11981E+04 -4.07028E+04  4.55458E+04 -1.87395E+04  4.26998E+04  1.87053E+04  1.47491E+04  4.20232E+04
 -1.57441E+04  3.16072E+04 -2.39425E+04  1.68344E+03 -8.49974E+03 -2.64383E+04  2.07516E+04 -3.15704E+04
  3.91649E+04 -7.62121E+03  3.21777E+04  2.25242E+04  1.57019E+04  4.37610E+04 -7.47836E+03  4.59114E+04
 -2.90769E+04  3.03988E+04 -3.81465E+04  8.50738E+03 -3.86325E+04 -1.50860E+04 -2.20023E+04 -3.52672E+04
  6.85361E+03 -3.54449E+04  2.92211E+04 -1.28921E+04  2.68914E+04  1.05986E+04  2.90675E+03  1.81143E+04
 -1.31550E+04  7.76679E+03 -9.81573E+03 -7.26408E+03  5.93448E+03 -9.96616E+03  1.74969E+04  6.32954E+03
  1.21086E+04  2.18014E+04 -6.01135E+03  2.34282E+04 -2.21852E+04  9.46387E+03 -2.54627E+04 -6.30022E+03
 -1.73376E+04 -1.66550E+04 -5.91622E+03 -1.74923E+04  3.68226E+03 -1.54269E+04  1.33460E+04 -1.54508E+04
  2.21323E+04 -1.21922E+04  2.88273E+04  1.42700E+03  2.17646E+04  1.70848E+04  4.11236E+03  3.25965E+04
 -1.58784E+04  2.79929E+04 -2.62743E+04  9.60122E+03 -1.94369E+04 -1.02913E+04 -3.82004E+03 -1.40443E+04
  2.00662E+03 -4.03733E+03 -2.34615E+03  5.66752E+03 -1.34812E+04  5.69985E+03 -1.39989E+04 -5.81081E+03
 -9.10757E+03 -1.61694E+04  4.87970E+03 -2.03462E+04  1.25631E+04 -1.45669E+04  1.52763E+04 -9.87529E+02
  9.53977E+03  1.10704E+04 -1.05231E+03  1.61391E+04 -1.06598E+04  9.38581E+03 -1.64200E+04 -3.91865E+03
 -1.25161E+04 -1.47183E+04 -1.20304E+03 -2.00108E+04  9.11825E+03 -1.62968E+04  1.64165E+04 -7.25090E+03
  1.48089E+04  6.67957E+02  1.11180E+04  3.62751E+03  5.42686E+03  5.52740E+02  7.70069E+03 -1.34874E+03
  1.44326E+04  2.97148E+03  1.55754E+04  1.33321E+04  9.87869E+03  2.58920E+04 -2.77987E+03  2.84343E+04
 -1.65455E+04  2.10361E+04 -2.56437E+04  1.01179E+04 -2.68131E+04 -1.66129E+03 -2.29094E+04 -1.48299E+04
 -1.07276E+04 -2.17929E+04  7.70880E+03 -1.94280E+04  1.69762E+04 -1.18094E+04  1.63421E+04  4.05368E+03
  6.62070E+03  1.13779E+04 -7.32452E+03  1.06035E+04 -1.38312E+04  2.47540E+03 -1.05177E+04 -7.82474E+03
 -5.04729E+02 -1.28552E+04  6.49318E+03 -9.70460E+03  7.58380E+03 -1.62430E+03  1.79314E+03  5.18699E+03
 -5.61672E+03  1.62096E+03 -3.75918E+03 -4.50903E+03  7.04344E+02 -1.06250E+04  7.79109E+03 -1.05933E+04
  1.27938E+04 -5.66718E+03  1.19519E+04  2.57044E+03  1.15603E+04  9.54717E+03  5.52852E+03  1.46515E+04
 -2.46804E+03  1.67007E+04 -1.03772E+04  1.06552E+04 -1.22179E+04  2.93149E+03 -8.97626E+03 -2.10075E+03
 -4.93826E+03 -3.04081E+03 -8.28491E+02  1.83682E+03 -2.30571E+03  2.34256E+03 -3.73061E+03  3.52426E+03
 -8.31122E+03 -7.08702E+02 -9.70889E+03 -7.01972E+03 -4.06605E+03 -1.21296E+04  3.91187E+03 -8.52730E+03
  7.04846E+03 -3.83676E+03  5.14355E+03  2.61438E+03  7.09350E+02  2.91951E+03 -2.81251E+03  3.88248E+02
 -3.31045E+03 -6.04372E+03 -3.45577E+02 -7.44430E+03  3.95141E+03 -8.63564E+03  1.09605E+04 -4.39716E+03
  1.18623E+04  4.84909E+02  9.15552E+03  6.81403E+03  1.50589E+03  9.39197E+03 -5.46521E+03  8.22929E+03
 -7.25732E+03  3.21874E+03 -3.71499E+03 -1.23768E+03  1.36642E+03 -1.91838E+03  5.34065E+03 -1.04665E+03
  4.86435E+03  3.80221E+03  7.46593E+02  6.65737E+03 -4.61581E+03  6.75544E+03 -8.32888E+03  1.85239E+03
 -5.31302E+03 -4.37587E+03  9.62536E+01 -6.88993E+03  3.95747E+03 -3.16225E+03  3.48817E+03  1.02988E+03
  5.43156E+02  3.70729E+03 -4.71961E+03  5.17095E+03 -4.97331E+03  2.52653E+03 -4.72433E+03 -1.55162E+03
 -3.57326E+03 -6.65451E+03  1.41853E+03 -7.16083E+03  5.90316E+03 -5.45475E+03  6.90470E+03  3.84774E+02
  4.92473E+03  6.07105E+03 -1.95127E+02  7.19730E+03 -4.96993E+03  4.50408E+03 -5.82404E+03 -4.63908E+02
 -6.00001E+03 -5.36938E+03 -1.70745E+03 -5.22146E+03  2.84670E+03 -5.08831E+03  3.42948E+03 -2.83647E+03
  3.18711E+03  4.73211E+02 -1.15726E+02  4.48388E+02  7.77242E+02 -1.61980E+02 -3.04310E+02 -2.67090E+03
  4.28781E+03 -5.26125E+02  5.60774E+03  8.28805E+02  5.95579E+03  3.95973E+03  5.13827E+03  7.83169E+03
 -1.30621E+03  9.26658E+03 -7.87393E+03  7.10075E+03 -1.04641E+04  1.81755E+03 -8.03616E+03 -2.54109E+03
 -4.28172E+03 -7.21407E+03 -5.78509E+02 -6.18245E+03  2.71495E+03 -2.82982E+03  1.98373E+03 -2.09606E+03
  1.82022E+03 -1.30090E+03  2.56855E+03 -2.51609E+03  2.96983E+03 -1.06940E+03  3.36464E+03  4.24121E+02
  4.71563E+03  1.43239E+03  1.71710E+03  3.80492E+03 -1.99186E+03  3.32727E+03 -4.92661E+03  3.50650E+03
 -5.65674E+03 -1.34570E+03 -1.90793E+03 -3.74791E+03  4.23087E+02 -5.77230E+03  3.47274E+03 -5.72776E+03
  6.14655E+03 -3.41478E+03  7.36523E+03 -3.07503E+02  5.05269E+03  4.72041E+03  1.14012E+03  6.65603E+03
 -2.57823E+03  6.26922E+03 -3.75173E+03  1.82565E+03 -2.35798E+03 -1.07810E+03 -5.89134E+02 -8.39027E+02
 -2.91045E+02  5.21873E+02 -1.00328E+03  2.21674E+03 -2.34386E+03  1.18934E+03 -3.79715E+03 -4.48628E+02
 -2.11792E+03 -4.43112E+03  9.26115E+02 -5.03524E+03  2.75503E+03 -4.64766E+03  3.86402E+03 -1.07015E+03
  4.88379E+03  2.68308E+03  2.02061E+03  3.78306E+03 -7.44821E+02  5.24429E+03 -3.15849E+03  2.70020E+03
 -4.46663E+03  7.45517E+02 -3.28390E+03 -2.73444E+03 -4.57928E+01 -3.44828E+03  1.87153E+03 -2.75000E+03
  2.74344E+03 -9.54503E+02  1.90377E+03  4.34342E+02  6.36007E+02  1.68205E+03  8.71239E+02  8.04332E+01
  2.00373E+03  9.48396E+02  8.85635E+02  7.75814E+02  1.36790E+03  2.28683E+03  1.82182E+03  1.30021E+03
 -1.46596E+03  3.37606E+03 -2.24822E+03  4.99930E+03 -3.62280E+03  1.17346E+03 -5.12480E+03 -5.99048E+01
 -1.92278E+03 -3.89535E+03  1.01006E+03 -5.10183E+03  2.86005E+03 -2.69818E+03  3.19768E+03 -5.61017E+02
  2.80233E+03  1.45109E+03  6.28122E+02  2.16141E+03 -6.29773E+02  1.28400E+03 -1.09568E+03 -1.00227E+02
  3.58363E+01 -1.22511E+03  1.07585E+03 -1.31756E+03  1.82339E+03 -1.01871E+03  1.29256E+03  5.19170E+02
  6.86520E+02  1.66857E+02  1.03343E+03  1.82294E+00 -4.18067E+02  8.39119E+02  1.33075E+03  1.00444E+03
  5.25410E+01 -8.31303E+02  2.05613E+03  1.09125E+03  8.28241E+02  2.58483E+03  1.05510E+02  3.39014E+03
 -1.61826E+03  1.43295E+03 -2.36008E+03  5.82835E+02 -2.22173E+03 -8.98847E+02  2.13551E+02 -1.33517E+03
  3.44125E+02 -1.55686E+03  8.47294E+02 -5.63663E+02  8.29830E+02  1.22280E+03 -7.93233E+02  1.26965E+03
 -1.33947E+03  7.54648E+02 -1.46680E+03 -1.50808E+03 -8.81194E+02 -2.45610E+03  5.86232E+02 -1.59053E+03
  1.93820E+02 -9.69470E+02  9.53244E+02  3.62557E+02  1.61867E+03 -5.16366E+02  2.27735E+02  8.61854E+02
 -2.05477E+02  5.51634E+02 -3.07978E+02 -1.29888E+02  5.72656E+01 -9.70755E+02  1.54477E+03 -5.98132E+02
  1.43863E+03  1.65988E+02  2.77547E+03  3.51675E+02  1.16128E+03  1.70047E+03 -3.07470E+02  1.74847E+03
 -1.45600E+03  4.04733E+02 -1.38131E+03 -1.48416E+02 -1.42808E+03 -1.11735E+03  5.97097E+02 -9.57589E+02
  1.32636E+03 -8.80251E+02  8.59400E+02  6.87323E+02  2.41083E+02  1.86111E+03  2.37394E+02  1.75234E+03
 -5.16486E+02  1.17770E+03 -4.79091E+02  3.31916E+02 -2.72011E+01  2.12855E+02 -1.03452E+03  2.39674E+02
 -4.67077E+02  7.58796E+02 -2.13250E+03  4.29797E+01 -2.19567E+03  1.47696E+02 -2.58881E+03 -1.17833E+03
 -1.59193E+03 -2.79387E+03  4.24434E+02 -3.65690E+03  1.26752E+03 -2.80291E+03  2.76962E+03 -1.45367E+03
  2.50971E+03 -4.36114E+01  4.43519E+02  1.55008E+03 -5.75287E+02  1.56465E+03 -3.34769E+02  1.14407E+03
 -1.58534E+03  8.19628E+02 -3.15487E+02 -4.31612E+02  4.34067E+02  6.20734E+02 -6.47647E+02  6.59463E+01
 -1.60992E+03 -2.07492E+02 -1.14747E+03  4.52538E+02  4.79434E+01 -6.16766E+02 -5.26161E+02 -9.31300E+02
  1.32786E+03 -5.14417E+02  6.78834E+02 -6.60853E+01  1.42336E+03  8.69377E+02 -1.19490E+03  1.45869E+03
 -1.00264E+03  2.24781E+03 -1.99678E+03  9.25629E+02 -1.94865E+03 -4.62203E+02 -1.73033E+03 -9.04588E+02
 -1.28048E+03 -1.58558E+03  6.88843E+02 -1.34915E+03  2.72282E+02 -8.21936E+02  5.48809E+02 -4.06987E+02
  1.09922E+03 -1.17148E+02 -4.41021E+02  4.89280E+02  1.67867E+02 -3.63447E+02 -3.35655E+02 -1.85583E+02
  5.86785E+02 -8.36607E+01  1.27344E+02  7.59892E+02 -7.44961E+02  6.17835E+02  4.86918E+02  2.61975E+02
 -5.99698E+02  6.12679E+02 -6.23005E+02  1.68516E+02 -5.82831E+02 -3.72111E+02  5.01535E+02 -1.65801E+03
  5.77521E+02 -4.32692E+02  2.62943E+02 -3.75111E+01  1.01162E+03 -1.21780E+03  9.86204E+02  1.18526E+03
  5.41987E+02  1.89485E+02  4.70093E+01  6.26636E+02 -2.02139E+02 -2.14753E+00 -4.09011E+02  2.37987E+02
 -8.14398E+01  3.40349E+02 -1.26921E+03 -6.84700E+01 -5.20829E+02  3.84305E+01 -1.41366E+03 -5.49951E+02
 -1.22882E+03 -4.59018E+01 -1.03991E+02 -1.35905E+03  6.76485E+02 -2.04826E+03  1.38324E+03  1.85603E-01
  8.18065E+02  2.24384E+02 -1.14364E+02  2.08969E+02  3.30390E+02  9.87007E+02 -7.20699E+02  6.78802E+02
