 $NMID ID='MM_0lb_SNR400_12hz_g50_32.RAW', FMTDAT='(8E13.5)'
 TRAMP=1., VOLUME=1. $END
  3.10119E+05  4.03053E+02  3.37883E+05  2.50649E+05  8.52012E+04  3.38725E+05 -1.32767E+05  2.51040E+05
 -1.90567E+05  8.41770E+04 -1.12734E+05 -3.31066E+04  4.32780E+02 -5.00789E+04  5.42451E+04 -2.18204E+02
  3.57323E+04  5.30480E+04 -1.65512E+04  7.58930E+04 -6.13581E+04  6.35526E+04 -8.45668E+04  3.19513E+04
 -8.09645E+04 -1.14091E+04 -5.77255E+04 -5.13654E+04 -1.53107E+04 -6.98173E+04  2.77647E+04 -4.60725E+04
  3.99136E+04  4.08072E+03  1.64426E+04  4.80640E+04 -3.44700E+04  4.77867E+04 -6.73289E+04  3.49292E+01
 -5.35247E+04 -5.71571E+04 -6.56471E+03 -7.72847E+04  3.38480E+04 -5.67140E+04  4.86621E+04 -1.79963E+04
  4.35520E+04  1.11816E+04  3.34461E+04  2.56272E+04  1.59491E+04  2.96531E+04 -5.49560E+03  2.71804E+04
 -2.23689E+04  1.19758E+04 -1.83208E+04 -5.22196E+03  6.33151E+03 -7.08931E+03  2.26213E+04  1.21553E+04
  7.05712E+03  3.60719E+04 -3.32996E+04  3.65094E+04 -6.53273E+04  1.96781E+03 -5.75179E+04 -4.29602E+04
 -1.25845E+04 -6.41203E+04  3.98481E+04 -4.61955E+04  5.94725E+04 -2.50356E+03  3.56530E+04  3.33610E+04
 -6.03569E+03  3.82641E+04 -3.08518E+04  1.76097E+04 -3.17274E+04 -4.11422E+03 -1.75954E+04 -1.12825E+04
 -9.03787E+03 -1.40627E+04 -9.41185E+02 -1.92138E+04  8.27557E+03 -2.32719E+04  1.58415E+04 -1.34065E+04
  1.03142E+04  6.27312E+03 -9.27616E+03  1.33838E+04 -2.21400E+04 -5.82451E+03 -8.93151E+03 -3.52487E+04
  2.28488E+04 -4.43429E+04  4.89395E+04 -2.01733E+04  4.74378E+04  1.96957E+04  1.63960E+04  4.61457E+04
 -1.66739E+04  3.45185E+04 -2.63914E+04  1.82071E+03 -1.05477E+04 -2.80266E+04  2.15949E+04 -3.50296E+04
  4.32367E+04 -1.01582E+04  3.79634E+04  2.41579E+04  1.93964E+04  4.83306E+04 -7.33413E+03  5.30566E+04
 -3.33318E+04  3.59623E+04 -4.46599E+04  1.01610E+04 -4.49755E+04 -1.73409E+04 -2.43287E+04 -3.97693E+04
  7.67301E+03 -3.93433E+04  3.23271E+04 -1.56943E+04  3.00185E+04  1.13681E+04  4.16033E+03  1.99625E+04
 -1.42825E+04  8.34442E+03 -9.93174E+03 -7.92378E+03  5.38702E+03 -1.09120E+04  1.80035E+04  5.89260E+03
  1.34273E+04  2.17562E+04 -5.25348E+03  2.62248E+04 -2.19277E+04  1.27353E+04 -2.91976E+04 -4.52851E+03
 -2.23547E+04 -1.86298E+04 -9.25391E+03 -2.26956E+04  4.29771E+03 -2.22342E+04  1.70710E+04 -2.01982E+04
  2.86250E+04 -1.31389E+04  3.43755E+04  2.87005E+03  2.56907E+04  2.14110E+04  4.46395E+03  3.85051E+04
 -1.89212E+04  3.21722E+04 -2.84905E+04  1.13104E+04 -2.14164E+04 -1.04731E+04 -5.12975E+03 -1.43260E+04
  8.00361E+02 -2.44929E+03 -6.16598E+03  8.22875E+03 -1.77699E+04  5.02587E+03 -1.79060E+04 -8.05447E+03
 -1.02740E+04 -2.03391E+04  5.52409E+03 -2.49966E+04  1.67481E+04 -1.79403E+04  2.00919E+04 -1.65214E+03
  1.22858E+04  1.49742E+04 -1.07977E+03  2.06932E+04 -1.50635E+04  1.12194E+04 -2.06819E+04 -3.97113E+03
 -1.54509E+04 -1.87569E+04 -1.36965E+03 -2.52225E+04  1.14695E+04 -2.07310E+04  1.99178E+04 -1.02527E+04
  1.92486E+04 -2.05207E+02  1.44626E+04  4.90276E+03  8.04631E+03  1.00812E+03  1.15023E+04 -1.51325E+03
  1.91943E+04  3.19874E+03  2.21141E+04  1.58089E+04  1.42429E+04  3.29688E+04 -3.02001E+03  3.84759E+04
 -2.11607E+04  3.12410E+04 -3.56067E+04  1.53162E+04 -3.72413E+04 -2.48643E+03 -3.07059E+04 -2.24783E+04
 -1.22669E+04 -3.10487E+04  1.13126E+04 -2.83979E+04  2.38729E+04 -1.34875E+04  2.16187E+04  6.59377E+03
  8.00824E+03  1.58554E+04 -9.62392E+03  1.39333E+04 -1.76959E+04  2.10191E+03 -1.35920E+04 -1.13173E+04
 -3.49600E+02 -1.74077E+04  9.16338E+03 -1.23077E+04  1.18495E+04 -1.26625E+03  2.95018E+03  7.00694E+03
 -7.78646E+03  2.93550E+03 -7.54439E+03 -5.93015E+03 -1.09966E+03 -1.53756E+04  1.04862E+04 -1.65402E+04
  1.86315E+04 -9.19414E+03  2.05634E+04  3.37094E+03  1.85936E+04  1.51613E+04  8.40893E+03  2.42191E+04
 -3.82000E+03  2.61931E+04 -1.59899E+04  1.60035E+04 -1.87130E+04  3.79163E+03 -1.35583E+04 -4.18406E+03
 -5.59320E+03 -5.91689E+03 -3.08691E+02  5.25338E+02 -2.74602E+03  3.09776E+03 -6.02361E+03  4.54434E+03
 -1.26431E+04 -9.50207E+02 -1.26973E+04 -9.83924E+03 -4.62317E+03 -1.66359E+04  5.80325E+03 -1.35826E+04
  1.02036E+04 -5.74020E+03  7.66075E+03  3.71271E+03 -2.59680E+02  4.57277E+03 -6.48204E+03 -2.90301E+02
 -5.06555E+03 -8.32661E+03 -7.07524E+02 -1.23191E+04  7.70450E+03 -1.29974E+04  1.60303E+04 -7.14539E+03
  1.89901E+04  2.06287E+03  1.35398E+04  1.13672E+04  2.65204E+03  1.54040E+04 -7.63949E+03  1.29547E+04
 -9.79701E+03  3.50930E+03 -5.38212E+03 -3.12534E+03  1.32371E+03 -3.57568E+03  7.27417E+03 -1.28055E+03
  6.82336E+03  4.73668E+03  1.15161E+03  1.06262E+04 -7.60019E+03  9.66359E+03 -1.24931E+04  1.55692E+03
 -8.62827E+03 -7.15503E+03  5.61970E+02 -1.04256E+04  6.55567E+03 -5.62447E+03  7.58540E+03  2.00084E+03
  1.68991E+03  7.80558E+03 -6.73269E+03  8.81031E+03 -9.87229E+03  3.97667E+03 -1.02129E+04 -3.72173E+03
 -5.71606E+03 -1.22379E+04  3.01722E+03 -1.34934E+04  1.13346E+04 -8.31087E+03  1.33692E+04  1.75142E+03
  8.13526E+03  9.93889E+03 -5.71605E+02  1.27601E+04 -9.20500E+03  7.61620E+03 -9.80450E+03 -7.94027E+02
 -8.88139E+03 -8.57949E+03 -1.97596E+03 -9.56357E+03  4.69207E+03 -7.56540E+03  5.82781E+03 -3.21876E+03
  3.99418E+03  1.15264E+03 -6.48543E+02  1.56930E+03 -4.91032E+02 -1.48478E+03  1.25080E+03 -6.03067E+03
  7.46369E+03 -2.65148E+03  1.20070E+04  1.31840E+03  1.24298E+04  8.70771E+03  8.30653E+03  1.51162E+04
 -3.06876E+03  1.80237E+04 -1.53217E+04  1.26467E+04 -1.93437E+04  1.78565E+03 -1.59811E+04 -6.12941E+03
 -8.18245E+03 -1.26873E+04 -2.45323E+02 -1.07108E+04  3.49337E+03 -5.70364E+03  3.38405E+03 -4.13365E+03
  2.99670E+03 -2.01633E+03  3.03987E+03 -3.34282E+03  5.07451E+03 -3.70238E+03  5.76911E+03 -5.98902E+02
  8.70626E+03  2.21368E+03  4.16876E+03  6.63207E+03 -2.09496E+03  8.21134E+03 -8.02438E+03  5.71375E+03
 -9.95480E+03 -1.17778E+03 -6.36768E+03 -7.18894E+03 -1.21721E+03 -1.13677E+04  6.12184E+03 -1.18438E+04
  1.14588E+04 -6.68990E+03  1.37319E+04  1.30741E+03  1.01801E+04  1.02298E+04  1.13249E+03  1.29248E+04
 -5.12456E+03  1.09621E+04 -7.73266E+03  3.75853E+03 -4.28470E+03 -1.14718E+03 -2.14947E+03 -1.61820E+03
 -1.26342E+03  6.89741E+01 -1.83758E+03  2.21397E+03 -4.83770E+03  2.58484E+03 -7.06333E+03 -4.26577E+02
 -4.71302E+03 -8.02263E+03  3.35046E+02 -1.05458E+04  5.95809E+03 -1.06904E+04  1.04709E+04 -3.03797E+03
  1.03051E+04  5.23175E+03  5.02047E+03  8.90795E+03 -2.65842E+03  1.07865E+04 -7.84238E+03  6.82994E+03
 -9.84291E+03 -1.37284E+02 -8.00515E+03 -4.99339E+03 -5.85533E+02 -9.28778E+03  4.62234E+03 -5.69133E+03
  6.97083E+03 -2.29154E+03  4.17074E+03  1.23525E+03  1.79585E+03  2.57468E+03  1.26189E+03  1.59537E+03
  1.84877E+03  1.02226E+03  2.25868E+03  8.52753E+02  3.29282E+03  3.21534E+03  2.89197E+03  5.49943E+03
 -2.69713E+03  7.76596E+03 -6.53556E+03  8.44672E+03 -1.00381E+04  2.72811E+03 -1.04576E+04 -3.39392E+03
 -5.22419E+03 -1.00916E+04  1.68991E+03 -1.08817E+04  6.66694E+03 -6.96023E+03  8.12458E+03 -2.17912E+03
  6.75665E+03  3.07191E+03  1.77892E+03  6.20944E+03 -2.93765E+03  3.65768E+03 -4.02246E+03 -3.62205E+02
 -1.76472E+03 -4.28980E+03  1.50651E+03 -4.01617E+03  4.39724E+03 -1.96937E+03  4.27195E+03  5.17735E+02
  2.03038E+03  1.32971E+03  1.96408E+03  1.21943E+03 -4.26293E+02  1.56126E+03  2.31450E+03 -6.92483E+02
  1.75403E+03 -5.57786E+02  4.16311E+03  1.82922E+03  2.50931E+03  5.84391E+03 -3.35992E+02  7.02756E+03
 -4.86337E+03  3.53075E+03 -7.16996E+03  1.28517E+03 -5.32416E+03 -1.69615E+03 -1.84474E+03 -4.20124E+03
  2.58934E+02 -3.68163E+03  2.36813E+03 -1.67609E+03  2.55173E+03  2.04596E+03 -9.96995E+02  3.24959E+03
 -3.66556E+03  1.89697E+03 -4.69922E+03 -2.37292E+03 -2.98747E+03 -5.86075E+03  1.56764E+03 -4.49958E+03
  2.88343E+03 -2.83662E+03  3.30353E+03 -4.21235E+02  3.45374E+03  5.10812E+02  1.47231E+02  2.73016E+03
 -1.71312E+03  6.66013E+02 -2.51061E+03 -1.84873E+03  7.96608E+02 -4.13680E+03  5.02627E+03 -3.64080E+03
  5.19523E+03 -1.85951E+02  5.72004E+03  4.01174E+03  2.23378E+03  5.69244E+03 -2.17750E+03  6.07728E+03
 -5.40132E+03  2.72422E+03 -5.40258E+03 -4.95239E+02 -2.59621E+03 -3.72604E+03  9.81665E+02 -3.26221E+03
  3.55954E+03 -1.76461E+03  3.05274E+03  1.60996E+03  1.36511E+03  3.14224E+03 -5.06829E+02  3.40616E+03
 -9.43451E+02  1.36690E+03 -7.12412E+02  2.42294E+02 -3.63371E+02  1.03748E+03 -8.39653E+02  1.41715E+03
 -1.82754E+03  2.44066E+03 -4.58847E+03  2.09673E+03 -5.86823E+03  5.60272E+02 -7.72810E+03 -3.94437E+03
 -3.07312E+03 -8.86512E+03  1.65290E+03 -8.67500E+03  5.51213E+03 -7.78681E+03  9.05962E+03 -2.96841E+03
  8.42342E+03  1.09589E+03  4.70604E+03  5.51229E+03 -9.77646E+01  5.64923E+03 -2.82239E+03  4.37827E+03
 -3.84024E+03  2.03078E+03 -1.82137E+03 -3.70675E+02 -9.89253E+02 -5.66614E+02 -5.87246E+02 -2.12357E+02
 -1.19263E+03 -7.26927E+01 -6.11726E+02 -2.47297E+02  2.86259E+02 -1.21051E+03 -5.18566E+02 -2.49325E+03
  3.51026E+03 -2.21233E+03  3.47417E+03 -1.96962E+02  3.90469E+03  3.52469E+03  7.39740E+02  5.75667E+03
 -2.94338E+03  7.36373E+03 -6.16717E+03  4.18513E+03 -6.90092E+03 -9.92456E+02 -4.67497E+03 -4.20142E+03
 -2.34631E+03 -6.33175E+03  1.19758E+03 -5.14193E+03  3.74628E+03 -2.53401E+03  4.37340E+03  6.37885E+02
  1.91439E+03  1.40101E+03  1.31173E+01  1.20488E+03 -1.11597E+03 -1.54905E+02 -3.50259E+02 -7.19966E+02
  2.08685E+03 -3.54851E+02  2.14134E+03  9.22439E+02  1.66613E+03  2.24085E+03  1.75575E+02  3.64613E+03
 -2.66850E+03  3.00900E+03 -3.46958E+03 -8.15824E+01 -3.89970E+03 -2.63469E+03 -7.89775E+02 -4.51864E+03
  2.13969E+03 -3.54402E+03  4.46204E+03 -1.50401E+03  4.60268E+03  9.47901E+01  2.62068E+03  3.67243E+03
  4.87645E+02  2.93978E+03 -7.75873E+02  3.13701E+03 -2.32971E+03  4.60013E+02 -1.64136E+03  8.45625E+01
 -1.14041E+03 -3.35115E+02 -1.53355E+03  1.06910E+03 -1.67617E+03  7.45975E+02 -3.47440E+03 -8.02882E+02
 -3.27697E+03 -2.15388E+03 -9.28585E+02 -3.68201E+03  1.91900E+03 -4.10279E+03  3.81129E+03 -2.02457E+03
  4.11276E+03  3.97525E+02  1.93644E+03  2.92553E+03  2.08728E+02  3.76624E+03 -2.56192E+03  2.08356E+03
