 $NMID ID='MM_0lb_SNR400_17hz_g60_23.RAW', FMTDAT='(8E13.5)'
 TRAMP=1., VOLUME=1. $END
  3.10260E+05  4.69276E+02  3.37951E+05  2.50749E+05  8.42676E+04  3.37808E+05 -1.32593E+05  2.51182E+05
 -1.90719E+05  8.34613E+04 -1.11850E+05 -3.28440E+04  1.57927E+03 -5.08282E+04  5.38490E+04 -5.51257E+02
  3.52407E+04  5.25428E+04 -1.61332E+04  7.53123E+04 -6.06137E+04  6.38593E+04 -8.43592E+04  3.26527E+04
 -8.11344E+04 -1.08635E+04 -5.68415E+04 -5.15188E+04 -1.53300E+04 -6.93511E+04  2.69886E+04 -4.57607E+04
  4.00388E+04  3.66953E+03  1.62947E+04  4.81134E+04 -3.41097E+04  4.64924E+04 -6.62617E+04 -1.43273E+02
 -5.31582E+04 -5.64906E+04 -7.08681E+03 -7.69844E+04  3.40306E+04 -5.48262E+04  4.71446E+04 -1.71669E+04
  4.35524E+04  1.12619E+04  3.26696E+04  2.57222E+04  1.57558E+04  2.92754E+04 -5.48637E+03  2.68830E+04
 -2.25585E+04  1.26630E+04 -1.84197E+04 -4.91394E+03  5.32791E+03 -7.08273E+03  2.18110E+04  1.20652E+04
  7.54520E+03  3.48474E+04 -3.19845E+04  3.49989E+04 -6.31060E+04  1.62856E+03 -5.67557E+04 -4.24947E+04
 -1.22162E+04 -6.25533E+04  3.94581E+04 -4.47262E+04  5.77724E+04 -2.68895E+03  3.33579E+04  3.23338E+04
 -5.82008E+03  3.61200E+04 -2.92202E+04  1.61284E+04 -3.00414E+04 -4.42090E+03 -1.69546E+04 -1.09783E+04
 -8.14041E+03 -1.28644E+04 -7.12012E+02 -1.80489E+04  7.38204E+03 -2.25100E+04  1.54532E+04 -1.29413E+04
  1.09777E+04  4.48858E+03 -8.01836E+03  1.32777E+04 -2.10435E+04 -4.33802E+03 -8.32944E+03 -3.34579E+04
  2.27051E+04 -4.26415E+04  4.78459E+04 -1.92797E+04  4.44132E+04  1.92176E+04  1.53056E+04  4.36524E+04
 -1.59828E+04  3.26867E+04 -2.54672E+04  1.54837E+03 -9.83129E+03 -2.78472E+04  2.10505E+04 -3.31228E+04
  4.07328E+04 -8.66300E+03  3.51256E+04  2.39828E+04  1.75466E+04  4.55810E+04 -7.99910E+03  4.88324E+04
 -3.11223E+04  3.28818E+04 -4.13475E+04  9.55165E+03 -4.11109E+04 -1.64036E+04 -2.32343E+04 -3.68513E+04
  7.27062E+03 -3.67367E+04  3.11311E+04 -1.37161E+04  2.85781E+04  1.10512E+04  3.40330E+03  1.82635E+04
 -1.32299E+04  7.36927E+03 -1.03532E+04 -8.27080E+03  5.88859E+03 -1.04917E+04  1.73063E+04  6.26442E+03
  1.28876E+04  2.18230E+04 -6.28802E+03  2.53111E+04 -2.17546E+04  1.02861E+04 -2.68905E+04 -5.17972E+03
 -1.97513E+04 -1.77427E+04 -7.65252E+03 -1.96934E+04  3.80242E+03 -1.80552E+04  1.49048E+04 -1.69742E+04
  2.48130E+04 -1.30462E+04  3.16588E+04  2.28081E+03  2.34452E+04  1.87493E+04  4.10361E+03  3.50225E+04
 -1.69187E+04  2.92247E+04 -2.69414E+04  1.00809E+04 -2.10049E+04 -1.05915E+04 -4.66813E+03 -1.34216E+04
  2.19065E+03 -2.80690E+03 -4.35251E+03  6.23690E+03 -1.51394E+04  5.06110E+03 -1.58091E+04 -6.25119E+03
 -9.37927E+03 -1.80351E+04  4.88623E+03 -2.15472E+04  1.41712E+04 -1.56805E+04  1.68661E+04 -1.43490E+03
  1.03568E+04  1.25167E+04 -9.30762E+02  1.82680E+04 -1.23735E+04  9.83409E+03 -1.78848E+04 -3.39071E+03
 -1.32372E+04 -1.59455E+04 -1.56386E+03 -2.15884E+04  1.06799E+04 -1.81422E+04  1.83747E+04 -8.30143E+03
  1.68187E+04  7.00655E+02  1.16809E+04  4.21491E+03  6.62021E+03  1.55682E+03  9.20557E+03 -2.10659E+03
  1.62143E+04  2.45116E+03  1.78331E+04  1.42206E+04  1.16609E+04  2.85299E+04 -3.03601E+03  3.13221E+04
 -1.80341E+04  2.53492E+04 -2.95362E+04  1.21603E+04 -3.07697E+04 -1.80689E+03 -2.58290E+04 -1.71749E+04
 -1.06059E+04 -2.49648E+04  8.06507E+03 -2.26190E+04  1.96633E+04 -1.21895E+04  1.77875E+04  5.28258E+03
  6.61034E+03  1.31011E+04 -8.26322E+03  1.19831E+04 -1.52937E+04  2.92452E+03 -1.13360E+04 -9.12990E+03
 -6.68214E+02 -1.41759E+04  6.96375E+03 -1.06017E+04  9.31777E+03 -1.14524E+03  2.15281E+03  6.46081E+03
 -6.13684E+03  1.99174E+03 -4.81890E+03 -5.30364E+03 -1.79877E+02 -1.26495E+04  8.69592E+03 -1.26430E+04
  1.52723E+04 -6.94364E+03  1.53157E+04  2.92047E+03  1.33865E+04  1.18588E+04  6.44782E+03  1.79673E+04
 -2.59186E+03  1.96543E+04 -1.25070E+04  1.27343E+04 -1.43801E+04  3.18180E+03 -9.98668E+03 -2.57130E+03
 -4.99263E+03 -4.24205E+03 -7.11958E+02  1.02211E+03 -2.21988E+03  2.45325E+03 -4.61364E+03  3.32837E+03
 -9.07532E+03 -7.44309E+02 -1.04253E+04 -8.24520E+03 -4.48682E+03 -1.31668E+04  4.09667E+03 -1.00290E+04
  8.74106E+03 -4.24732E+03  6.43950E+03  2.51220E+03  7.18898E+00  3.88864E+03 -4.47340E+03 -4.25973E+02
 -4.26002E+03 -5.70441E+03 -3.22504E+02 -8.94909E+03  5.09322E+03 -9.22134E+03  1.22796E+04 -5.24599E+03
  1.46140E+04  9.50282E+02  1.07335E+04  7.79823E+03  1.76941E+03  1.04431E+04 -6.24578E+03  9.85358E+03
 -7.99160E+03  2.93409E+03 -4.31513E+03 -1.84469E+03  1.31305E+03 -2.54472E+03  5.08112E+03 -9.25668E+02
  4.91604E+03  3.47656E+03  1.75856E+03  7.89370E+03 -5.41664E+03  7.86703E+03 -9.93885E+03  1.66732E+03
 -5.66508E+03 -4.58361E+03  9.34017E+01 -8.27052E+03  4.33966E+03 -4.09337E+03  4.54275E+03  1.82539E+03
  8.33451E+02  4.77732E+03 -5.52471E+03  6.03657E+03 -5.92629E+03  2.90192E+03 -6.33422E+03 -8.64817E+02
 -4.02219E+03 -7.85551E+03  1.98310E+03 -9.00425E+03  7.68100E+03 -5.91655E+03  7.65969E+03  1.49675E+03
  5.56490E+03  7.09079E+03 -2.57447E+02  8.83900E+03 -5.99316E+03  5.14846E+03 -6.96069E+03 -2.78687E+02
 -6.74643E+03 -6.76425E+03 -1.48630E+03 -5.93871E+03  2.83879E+03 -5.79477E+03  3.62637E+03 -2.85361E+03
  2.79486E+03  1.12001E+03 -2.38331E+02  1.44997E+03  4.16509E+02 -9.15331E+02  6.41321E+02 -2.97736E+03
  4.81855E+03 -1.55999E+03  6.70071E+03  5.60480E+02  7.40923E+03  4.99834E+03  5.60569E+03  9.66022E+03
 -1.86804E+03  1.03388E+04 -9.80600E+03  8.68079E+03 -1.26555E+04  1.80806E+03 -9.91119E+03 -4.02019E+03
 -5.43169E+03 -8.22072E+03 -1.20945E+02 -7.39807E+03  2.59217E+03 -2.58122E+03  2.34382E+03 -2.35647E+03
  1.39028E+03 -1.65253E+03  2.41170E+03 -2.40595E+03  4.03108E+03 -1.29612E+03  4.57659E+03  1.10041E+02
  5.50005E+03  1.09656E+03  1.86295E+03  4.32071E+03 -2.18008E+03  4.40888E+03 -5.46213E+03  3.76966E+03
 -6.34772E+03 -1.14387E+03 -2.97846E+03 -4.05656E+03  5.23850E+01 -6.60292E+03  3.78899E+03 -6.80949E+03
  6.11165E+03 -3.91841E+03  8.15366E+03  1.20039E+02  6.61228E+03  5.74546E+03  1.67015E+03  7.74704E+03
 -2.59713E+03  6.97715E+03 -4.20081E+03  2.47494E+03 -2.78900E+03 -1.20483E+03 -9.45100E+02 -4.52040E+02
 -6.65265E+02  1.67533E+02 -1.09679E+03  2.22488E+03 -3.23843E+03  1.81503E+03 -5.01452E+03 -7.58484E+02
 -2.18573E+03 -4.45361E+03  1.16278E+03 -5.60981E+03  3.20070E+03 -5.91021E+03  5.04961E+03 -1.51685E+03
  5.46920E+03  3.58364E+03  1.89802E+03  3.89974E+03 -9.73368E+02  5.50225E+03 -3.08740E+03  2.86894E+03
 -5.31589E+03  1.19722E+03 -4.68930E+03 -3.63556E+03 -2.37709E+02 -4.65649E+03  2.17310E+03 -4.02943E+03
  3.69498E+03 -2.11932E+03  1.63472E+03  1.32265E+02  4.42476E+02  1.52005E+03  5.88785E+02  4.07905E+02
  1.85556E+03  3.62078E+02  1.17919E+03  4.25807E+02  1.15348E+03  2.13932E+03  1.80616E+03  2.75180E+03
 -1.36103E+03  4.06408E+03 -3.48366E+03  5.95362E+03 -4.43715E+03  2.30966E+03 -5.42830E+03 -1.43216E+03
 -1.84870E+03 -5.16175E+03  5.61289E+02 -6.25195E+03  3.08844E+03 -3.49246E+03  4.32014E+03 -1.04718E+03
  3.09342E+03  1.68204E+03  7.69240E+02  2.87911E+03 -1.02350E+03  1.69594E+03 -1.73178E+03 -6.34673E+01
 -6.59487E+02 -2.40264E+03  1.21565E+03 -1.66114E+03  1.85575E+03 -9.76607E+02  1.49143E+03  9.20866E+02
  1.31332E+03  7.89754E+02  1.07146E+03  2.45710E+02 -5.73694E+02  4.75279E+02  1.48831E+03 -1.72239E+02
  1.01766E+03 -2.83554E+02  1.82647E+03  5.41234E+02  4.41093E+02  2.37647E+03 -4.82148E+02  3.49526E+03
 -2.27317E+03  1.79266E+03 -3.07460E+03  6.37192E+02 -2.64418E+03 -1.13531E+03 -5.05010E+02 -1.27952E+03
  1.31807E+02 -1.39675E+03  6.48326E+02 -9.57598E+02  7.63389E+02  1.42119E+03 -8.59143E+02  1.52417E+03
 -2.28511E+03  1.10057E+03 -1.09600E+03 -1.40612E+03 -4.10882E+02 -2.37285E+03  3.77868E+02 -2.29786E+03
  7.44326E+02 -7.40105E+02  1.53267E+03  2.28332E+02  1.67669E+03  6.62329E+02  1.16080E+02  1.23702E+03
 -3.18757E+02 -2.95309E+02 -1.44302E+03 -5.45578E+01  8.47183E+02 -1.24683E+03  2.16946E+03 -1.05267E+03
  2.26015E+03 -3.05904E+02  3.61548E+03  1.93548E+03  1.54044E+03  2.28806E+03 -9.89583E+01  1.98214E+03
 -2.11815E+03 -1.72076E+02 -1.92635E+03 -3.28776E+02 -9.18448E+02 -1.61677E+03  2.99521E+02 -1.15432E+03
  1.77024E+03 -4.00751E+02  1.27365E+03  6.75971E+02 -1.04990E+02  1.57085E+03  5.29445E+02  1.45718E+03
 -1.47248E+02  8.48459E+02 -5.54800E+02  6.43657E+02  2.09664E+02  8.40880E+02 -9.68794E+02  4.19021E+02
 -7.62996E+02  7.61927E+02 -1.88548E+03  2.93274E+02 -2.27442E+03  3.85070E+02 -3.72854E+03 -9.78408E+02
 -1.05204E+03 -3.05953E+03  7.89518E+02 -3.70079E+03  1.67529E+03 -3.17527E+03  3.30851E+03 -1.53170E+03
  2.92608E+03 -3.15189E+02  1.95514E+03  2.04591E+03 -3.18333E+02  2.00884E+03 -1.47134E+03  1.23474E+03
 -1.16474E+03  1.09676E+03 -4.75456E+02 -2.80149E+02 -2.73284E+02  8.85513E+02 -5.85052E+02  3.25555E+02
 -1.47834E+03 -3.09049E+02 -1.05168E+03 -1.35444E+02 -5.67969E+02 -1.22778E+03 -8.24666E+02 -1.10082E+03
  1.33417E+03 -6.50567E+02  8.45116E+02 -3.36580E+02  1.36385E+03  1.10479E+03  1.47790E+02  2.06409E+03
 -1.05194E+03  2.75605E+03 -1.92802E+03  1.32665E+03 -2.36798E+03 -3.34561E+02 -1.85972E+03 -1.28979E+03
 -9.52382E+02 -8.28257E+02  2.52343E+02 -1.44917E+03  8.75300E+02 -4.55340E+02  6.82092E+02  5.26123E+02
  1.07847E+03 -1.31583E+02  5.10917E+02  5.01822E+02 -1.12293E+03  7.66142E+02  9.02132E+01 -5.77337E+01
  8.95245E+02  2.14370E+02  9.08719E+02  8.09056E+02 -1.66662E+01  5.63287E+02  8.74638E+01  4.70513E+02
 -1.46260E+03  8.45770E+02 -8.95696E+02  3.65634E+02 -1.33687E+03 -5.49001E+02  3.24518E+02 -1.59712E+03
  4.65857E+02 -8.25966E+02  6.89993E+02 -3.96660E+02  8.82140E+02 -7.61934E+02  1.16591E+03  9.05588E+02
  6.04707E+02  6.83963E+02  2.82921E+02  7.62363E+02 -7.18532E+02  8.99352E+02 -1.94627E+02 -2.68341E+01
 -4.87836E+02 -9.20384E+01 -4.40358E+02  1.18024E+02 -8.42958E+02 -2.31998E+01 -9.63231E+02 -5.11007E+02
 -1.44937E+03 -2.16896E+02  1.36633E+02 -9.91241E+02  5.85821E+02 -2.07752E+03  7.21647E+02  1.00691E+02
  1.23101E+03 -1.06170E+02 -4.22797E+02  1.74332E+02  5.15883E+02  1.16293E+03 -7.62506E+02  1.13596E+03
