 $NMID ID='MM_0lb_SNR400_14hz_g60_73.RAW', FMTDAT='(8E13.5)'
 TRAMP=1., VOLUME=1. $END
  3.09965E+05  8.12733E+02  3.37921E+05  2.50830E+05  8.48747E+04  3.38506E+05 -1.32540E+05  2.50553E+05
 -1.90614E+05  8.36913E+04 -1.12280E+05 -3.20664E+04  5.49566E+02 -4.98040E+04  5.36186E+04 -4.23267E+02
  3.52963E+04  5.26068E+04 -1.71341E+04  7.61838E+04 -6.10198E+04  6.38659E+04 -8.50277E+04  3.30729E+04
 -8.12310E+04 -1.14122E+04 -5.73741E+04 -5.17508E+04 -1.49151E+04 -7.04762E+04  2.79297E+04 -4.55546E+04
  4.06229E+04  3.63866E+03  1.66379E+04  4.85647E+04 -3.38125E+04  4.73125E+04 -6.69609E+04  4.31687E+02
 -5.41079E+04 -5.71665E+04 -7.15812E+03 -7.70962E+04  3.41732E+04 -5.64860E+04  4.86245E+04 -1.81837E+04
  4.39720E+04  1.16351E+04  3.29185E+04  2.62341E+04  1.58469E+04  2.95358E+04 -5.35869E+03  2.77655E+04
 -2.29271E+04  1.25946E+04 -1.83227E+04 -5.51695E+03  6.37924E+03 -7.05312E+03  2.22616E+04  1.28877E+04
  7.93917E+03  3.59602E+04 -3.37068E+04  3.64420E+04 -6.38377E+04  2.58188E+03 -5.76094E+04 -4.37217E+04
 -1.31315E+04 -6.37524E+04  4.08378E+04 -4.57850E+04  5.92857E+04 -1.99373E+03  3.49159E+04  3.26656E+04
 -5.63802E+03  3.67702E+04 -3.06061E+04  1.70306E+04 -3.19201E+04 -3.89197E+03 -1.77768E+04 -1.09505E+04
 -8.62278E+03 -1.34817E+04 -3.48983E+02 -1.91410E+04  8.41274E+03 -2.29493E+04  1.53652E+04 -1.26195E+04
  1.12390E+04  5.35837E+03 -9.47772E+03  1.29354E+04 -2.15918E+04 -5.60605E+03 -8.10832E+03 -3.54825E+04
  2.40608E+04 -4.46625E+04  4.95443E+04 -1.99440E+04  4.59006E+04  2.02630E+04  1.58903E+04  4.48568E+04
 -1.65840E+04  3.42962E+04 -2.59818E+04  1.99800E+03 -9.96288E+03 -2.84990E+04  2.09169E+04 -3.53307E+04
  4.20032E+04 -9.93353E+03  3.77650E+04  2.41761E+04  1.94198E+04  4.78701E+04 -8.01060E+03  5.23204E+04
 -3.22579E+04  3.46284E+04 -4.41189E+04  9.79471E+03 -4.43030E+04 -1.71538E+04 -2.39780E+04 -3.94578E+04
  7.58622E+03 -3.90765E+04  3.24585E+04 -1.59459E+04  3.00758E+04  1.13995E+04  4.54781E+03  1.98434E+04
 -1.35049E+04  8.92161E+03 -1.03333E+04 -6.82139E+03  6.27933E+03 -1.07923E+04  1.78501E+04  5.80094E+03
  1.41129E+04  2.19529E+04 -5.97357E+03  2.56967E+04 -2.27034E+04  1.19340E+04 -2.89387E+04 -4.18326E+03
 -2.16162E+04 -1.80668E+04 -9.03474E+03 -2.18983E+04  4.31090E+03 -2.14883E+04  1.73051E+04 -1.97613E+04
  2.77331E+04 -1.34868E+04  3.43047E+04  3.93080E+03  2.48985E+04  2.11174E+04  4.24434E+03  3.73725E+04
 -1.83572E+04  3.13873E+04 -2.84718E+04  1.06569E+04 -2.15164E+04 -1.02307E+04 -4.78156E+03 -1.32502E+04
  1.81630E+03 -1.81764E+03 -4.55675E+03  7.56235E+03 -1.69687E+04  5.54252E+03 -1.74036E+04 -7.86460E+03
 -1.09440E+04 -2.04480E+04  5.19297E+03 -2.48835E+04  1.61430E+04 -1.76249E+04  1.99351E+04 -1.65384E+03
  1.22814E+04  1.37826E+04 -8.71853E+02  1.99967E+04 -1.46631E+04  1.12971E+04 -1.99512E+04 -3.81869E+03
 -1.45934E+04 -1.86788E+04 -2.21496E+03 -2.36092E+04  1.06121E+04 -2.03689E+04  1.93897E+04 -9.92852E+03
  1.88793E+04  7.00056E+01  1.38711E+04  4.73828E+03  7.72548E+03  1.10821E+03  1.02657E+04 -1.99493E+03
  1.85861E+04  3.12233E+03  2.05875E+04  1.56341E+04  1.39922E+04  3.20637E+04 -2.98424E+03  3.59324E+04
 -2.13955E+04  2.92805E+04 -3.37958E+04  1.48301E+04 -3.63047E+04 -2.92838E+03 -3.02453E+04 -2.08124E+04
 -1.24655E+04 -3.04145E+04  9.91289E+03 -2.63393E+04  2.27133E+04 -1.41207E+04  2.02603E+04  5.97534E+03
  7.39360E+03  1.51262E+04 -9.99612E+03  1.26902E+04 -1.72135E+04  2.61726E+03 -1.31967E+04 -1.03026E+04
 -2.96799E+02 -1.57904E+04  8.51444E+03 -1.22955E+04  1.12697E+04 -1.04164E+03  2.41706E+03  7.51245E+03
 -7.65428E+03  2.15261E+03 -7.07414E+03 -6.06837E+03 -5.58857E+02 -1.44197E+04  9.55412E+03 -1.58600E+04
  1.76811E+04 -8.38493E+03  2.04198E+04  3.03992E+03  1.77407E+04  1.42422E+04  7.85085E+03  2.22842E+04
 -3.54771E+03  2.40825E+04 -1.53607E+04  1.49150E+04 -1.80617E+04  3.92473E+03 -1.15870E+04 -4.29438E+03
 -5.51807E+03 -5.74686E+03 -5.86105E+02  1.11526E+03 -2.40192E+03  2.88317E+03 -6.40308E+03  4.85506E+03
 -1.11862E+04 -3.83106E+01 -1.18561E+04 -9.73566E+03 -4.93384E+03 -1.54385E+04  5.18410E+03 -1.25125E+04
  1.12640E+04 -4.90909E+03  7.67827E+03  3.71249E+03  2.51844E+01  4.63015E+03 -5.61872E+03  2.16155E+02
 -5.58821E+03 -7.83464E+03 -7.37044E+01 -1.14240E+04  6.96275E+03 -1.24075E+04  1.56239E+04 -6.82304E+03
  1.77253E+04  2.10316E+03  1.32801E+04  1.09080E+04  3.07688E+03  1.39095E+04 -7.31283E+03  1.18292E+04
 -1.05382E+04  3.59319E+03 -5.04314E+03 -1.98874E+03  1.63761E+03 -2.48912E+03  6.20226E+03 -1.67011E+03
  5.58721E+03  5.28734E+03  8.20241E+02  9.26591E+03 -6.95347E+03  9.24216E+03 -1.19449E+04  2.32852E+03
 -7.81830E+03 -5.78065E+03  8.48124E+02 -1.01989E+04  5.98382E+03 -5.57617E+03  6.19710E+03  1.45085E+03
  7.70455E+02  6.70561E+03 -5.69667E+03  7.98849E+03 -8.91824E+03  4.09943E+03 -9.26693E+03 -3.08277E+03
 -5.53745E+03 -1.01607E+04  1.63596E+03 -1.22594E+04  1.10012E+04 -7.48239E+03  1.16220E+04  1.91039E+03
  6.94961E+03  9.83126E+03 -7.82598E+02  1.07805E+04 -8.44909E+03  6.90614E+03 -9.49899E+03 -5.06094E+02
 -7.51885E+03 -7.41120E+03 -1.95539E+03 -8.45699E+03  4.20618E+03 -6.95824E+03  5.16046E+03 -3.62951E+03
  3.63706E+03  1.33788E+03 -2.56621E+02  1.93022E+03 -1.96179E+02 -1.77772E+03  1.44841E+03 -4.21096E+03
  7.59134E+03 -3.04568E+03  1.07893E+04  1.02413E+03  1.05303E+04  6.40297E+03  7.47784E+03  1.35730E+04
 -3.25770E+03  1.55847E+04 -1.33507E+04  1.18858E+04 -1.65262E+04  2.43199E+03 -1.33185E+04 -5.88578E+03
 -7.15376E+03 -1.13918E+04 -2.02829E+02 -9.40869E+03  2.67082E+03 -5.28611E+03  3.17833E+03 -4.08804E+03
  2.34569E+03 -1.83682E+03  3.35914E+03 -2.66797E+03  4.28079E+03 -2.52080E+03  5.64630E+03 -6.78960E+02
  7.23665E+03  1.56812E+03  3.60331E+03  6.07600E+03 -2.14685E+03  7.02868E+03 -8.22474E+03  5.48431E+03
 -8.93937E+03 -1.48327E+03 -5.40071E+03 -5.82159E+03 -7.55940E+02 -9.93251E+03  5.46633E+03 -1.06537E+04
  9.60612E+03 -5.93843E+03  1.19262E+04  1.26848E+03  8.51195E+03  8.92223E+03  1.91446E+03  1.12259E+04
 -4.47326E+03  9.29278E+03 -5.81552E+03  3.24905E+03 -4.00065E+03 -1.02623E+03 -2.18627E+03 -1.50605E+03
 -6.09820E+02  1.08551E+00 -6.67468E+02  2.04623E+03 -3.77093E+03  1.38760E+03 -6.78538E+03 -9.96814E+02
 -4.00418E+03 -6.87544E+03  3.34214E+02 -8.89908E+03  6.38786E+03 -8.31095E+03  8.10430E+03 -1.82788E+03
  8.38951E+03  4.89099E+03  3.84963E+03  7.75493E+03 -2.11859E+03  8.51545E+03 -6.16268E+03  5.32552E+03
 -7.90203E+03  1.13113E+03 -5.85131E+03 -5.00070E+03 -7.83988E+02 -6.39632E+03  3.35066E+03 -5.12102E+03
  6.03158E+03 -2.02429E+03  4.08405E+03  1.45545E+03  1.11951E+03  2.45909E+03  1.14187E+03  1.08791E+03
  2.30727E+03  9.09912E+02  2.00684E+03  1.16847E+03  2.66295E+03  2.90285E+03  2.37963E+03  4.59584E+03
 -1.87363E+03  6.64709E+03 -5.48497E+03  7.11537E+03 -7.72486E+03  2.05614E+03 -8.77381E+03 -3.03953E+03
 -3.63864E+03 -7.84738E+03  5.64620E+02 -1.01817E+04  4.09158E+03 -5.91787E+03  6.58896E+03 -1.54808E+03
  5.26101E+03  2.55628E+03  9.04659E+02  5.03929E+03 -2.01887E+03  2.07377E+03 -2.97956E+03 -3.31992E+02
 -1.62610E+03 -3.32015E+03  2.12374E+03 -3.21779E+03  3.30950E+03 -1.19459E+03  2.55275E+03  9.16074E+02
  1.98319E+03  1.73344E+03  5.08866E+02  1.07014E+03 -6.52953E+02  1.67919E+03  1.56224E+03 -5.82538E+02
  1.14296E+03 -5.48633E+02  3.42079E+03  1.47815E+03  1.28600E+03  4.74385E+03 -4.10489E+02  5.79339E+03
 -3.58840E+03  3.28598E+03 -4.89807E+03  1.41723E+02 -4.43657E+03 -1.61509E+03 -1.56384E+03 -2.88597E+03
  1.09208E+03 -3.19626E+03  2.98379E+03 -1.06686E+03  1.59764E+03  2.24445E+03 -6.51894E+02  3.03556E+03
 -3.38230E+03  1.04508E+03 -3.02571E+03 -2.72116E+03 -9.94974E+02 -4.02490E+03  4.22702E+02 -3.96751E+03
  1.83618E+03 -2.11833E+03  2.51029E+03 -6.13011E+02  2.56534E+03  7.95240E+02  5.81599E+02  2.91656E+03
 -8.98385E+02  8.26813E+02 -2.27239E+03 -5.98816E+02  1.25346E+03 -2.95359E+03  3.75511E+03 -1.48211E+03
  3.60561E+03  8.03660E+02  5.64866E+03  2.69195E+03  1.52950E+03  3.84125E+03 -1.53105E+03  4.25672E+03
 -4.01690E+03  2.04069E+03 -3.42394E+03 -9.05870E+02 -2.23953E+03 -2.66430E+03  1.16585E+03 -2.15826E+03
  3.59227E+03 -1.54318E+03  2.05694E+03  7.71154E+02  6.06823E+02  2.25421E+03  2.59508E+02  2.89278E+03
 -9.42428E+02  2.52727E+03 -8.56449E+02  5.78754E+02 -1.17470E+03  9.16535E+02 -1.32712E+03  1.06625E+03
 -1.42906E+03  1.64737E+03 -3.30191E+03  1.68190E+03 -4.54624E+03 -4.75977E+02 -4.92028E+03 -2.47114E+03
 -2.68097E+03 -5.56691E+03  6.74310E+02 -6.52446E+03  3.47879E+03 -5.56860E+03  7.09615E+03 -1.93406E+03
  5.82332E+03  5.75577E+02  4.14662E+03  4.14536E+03  1.24558E+02  3.94081E+03 -2.18718E+03  3.95921E+03
 -2.31858E+03  1.00011E+03 -1.32754E+03 -5.28082E+02 -9.86618E+02  4.39060E+02 -1.02659E+03 -6.52643E+02
 -1.89494E+03 -2.50170E+02 -1.06262E+03 -2.48459E+02 -5.88212E+02 -6.48482E+02  1.07873E+00 -1.99958E+03
  1.95582E+03 -1.80070E+03  2.00734E+03  5.66740E+02  3.02511E+03  2.16777E+03  2.98043E+02  3.73735E+03
 -1.96408E+03  4.60070E+03 -4.67231E+03  3.48524E+03 -4.97472E+03 -7.35908E+02 -3.92993E+03 -3.47872E+03
 -1.84021E+03 -4.10830E+03  1.24376E+03 -3.61953E+03  2.83414E+03 -1.81783E+03  1.87317E+03  6.99971E+02
  1.78926E+03  1.44659E+03 -6.19386E+02  1.91603E+03 -2.73874E+02 -4.54124E+02 -1.97869E+02 -1.65482E+03
  1.28125E+03 -1.75778E+02  1.26849E+03  8.40989E+02  8.15891E+02  1.79309E+03  7.58141E+02  2.08902E+03
 -1.48322E+03  2.23766E+03 -2.15465E+03  4.11888E+02 -2.23435E+03 -2.02703E+03  8.03332E+01 -3.04368E+03
  9.98686E+02 -2.34027E+03  2.96735E+03 -8.43642E+02  2.75722E+03  6.01999E+02  1.97143E+03  2.46137E+03
  1.76294E+01  2.19246E+03 -9.99753E+02  2.02804E+03 -1.73847E+03  1.35945E+03 -1.38091E+03  2.29034E+02
 -7.98075E+02 -2.50529E+02 -7.74685E+02  4.86995E+02 -1.40548E+03  9.15506E+02 -1.58008E+03 -2.65814E+02
 -2.13585E+03 -8.33514E+02  3.69710E+01 -2.29654E+03  1.07607E+03 -3.86137E+03  1.39349E+03 -1.67352E+03
  2.32398E+03 -9.20597E+01  1.08301E+03  1.27762E+03  3.64468E+01  3.22179E+03 -1.95711E+03  1.77567E+03
