 $NMID ID='MM_0lb_SNR400_19hz_g40_65.RAW', FMTDAT='(8E13.5)'
 TRAMP=1., VOLUME=1. $END
  3.09728E+05  1.11109E+02  3.37306E+05  2.49961E+05  8.42264E+04  3.37178E+05 -1.32779E+05  2.49661E+05
 -1.89727E+05  8.21774E+04 -1.11091E+05 -3.30185E+04  1.49226E+03 -5.03585E+04  5.40298E+04  1.34534E+01
  3.49527E+04  5.27655E+04 -1.66865E+04  7.52648E+04 -6.04919E+04  6.23400E+04 -8.24410E+04  3.08006E+04
 -7.89059E+04 -1.09957E+04 -5.60104E+04 -4.95349E+04 -1.48237E+04 -6.77417E+04  2.65960E+04 -4.44221E+04
  3.85062E+04  3.87149E+03  1.53935E+04  4.63877E+04 -3.38481E+04  4.59231E+04 -6.45196E+04 -4.54708E+02
 -5.12018E+04 -5.58357E+04 -6.69311E+03 -7.49349E+04  3.27163E+04 -5.23799E+04  4.57957E+04 -1.58743E+04
  4.09812E+04  1.10303E+04  3.04648E+04  2.41008E+04  1.58961E+04  2.75849E+04 -4.81551E+03  2.65871E+04
 -2.15055E+04  1.33996E+04 -1.93704E+04 -3.83252E+03  3.56184E+03 -7.53637E+03  2.05975E+04  1.04947E+04
  7.88671E+03  3.28838E+04 -3.00905E+04  3.36305E+04 -6.06094E+04  2.32081E+03 -5.43046E+04 -4.07138E+04
 -1.21891E+04 -6.01940E+04  3.74247E+04 -4.25693E+04  5.43584E+04 -1.59286E+03  3.17366E+04  2.98437E+04
 -6.38483E+03  3.20941E+04 -2.77672E+04  1.25744E+04 -2.68494E+04 -5.41931E+03 -1.37336E+04 -1.00188E+04
 -6.92943E+03 -1.10153E+04 -1.40882E+03 -1.61121E+04  6.45317E+03 -2.23074E+04  1.49883E+04 -1.44262E+04
  1.24002E+04  4.42878E+03 -5.55315E+03  1.34159E+04 -1.83567E+04 -1.50474E+03 -7.97215E+03 -2.98474E+04
  2.04665E+04 -3.98266E+04  4.41802E+04 -1.83640E+04  4.10795E+04  1.78230E+04  1.36019E+04  4.07967E+04
 -1.49829E+04  3.07435E+04 -2.26616E+04  9.64337E+02 -8.01064E+03 -2.60958E+04  1.99969E+04 -3.03334E+04
  3.70844E+04 -7.53076E+03  3.03358E+04  2.20709E+04  1.46979E+04  4.16003E+04 -7.48466E+03  4.34992E+04
 -2.72391E+04  2.92370E+04 -3.61014E+04  8.41504E+03 -3.69457E+04 -1.44400E+04 -2.03636E+04 -3.31071E+04
  6.99428E+03 -3.30905E+04  2.83101E+04 -1.22421E+04  2.62576E+04  1.05092E+04  2.29805E+03  1.75916E+04
 -1.28471E+04  7.12613E+03 -9.48655E+03 -7.80250E+03  6.02515E+03 -9.27545E+03  1.69408E+04  6.37222E+03
  1.17473E+04  2.15532E+04 -7.16675E+03  2.23750E+04 -2.12316E+04  8.71457E+03 -2.40597E+04 -6.80458E+03
 -1.56660E+04 -1.59094E+04 -5.17548E+03 -1.57926E+04  3.72877E+03 -1.31358E+04  1.15590E+04 -1.36948E+04
  2.00159E+04 -1.14248E+04  2.71320E+04  6.81198E+02  2.10719E+04  1.63365E+04  4.25978E+03  3.16580E+04
 -1.59779E+04  2.66441E+04 -2.53703E+04  9.28736E+03 -1.96575E+04 -1.04169E+04 -3.92764E+03 -1.40983E+04
  3.26074E+03 -4.51998E+03 -1.71347E+03  5.29157E+03 -1.20705E+04  5.43316E+03 -1.26631E+04 -4.52454E+03
 -8.33048E+03 -1.49616E+04  4.41631E+03 -1.81221E+04  1.14519E+04 -1.34203E+04  1.32914E+04 -1.49388E+03
  8.42231E+03  1.00009E+04 -5.72703E+02  1.53321E+04 -9.39125E+03  8.49736E+03 -1.47641E+04 -3.66659E+03
 -1.10163E+04 -1.32213E+04 -9.86366E+02 -1.86184E+04  8.09899E+03 -1.50108E+04  1.54243E+04 -6.76059E+03
  1.39598E+04  4.95964E+02  9.57392E+03  3.96059E+03  5.13433E+03  5.23453E+02  7.05990E+03 -8.97988E+02
  1.27366E+04  2.89915E+03  1.38390E+04  1.21004E+04  8.42884E+03  2.37754E+04 -2.88822E+03  2.52714E+04
 -1.44483E+04  1.81193E+04 -2.27206E+04  8.76860E+03 -2.29791E+04 -1.51349E+03 -1.98995E+04 -1.27483E+04
 -9.65431E+03 -1.85604E+04  5.70995E+03 -1.79092E+04  1.53167E+04 -1.06829E+04  1.47520E+04  2.95964E+03
  6.57934E+03  1.04078E+04 -6.89636E+03  9.55593E+03 -1.24910E+04  2.90154E+03 -1.00890E+04 -7.54844E+03
  3.74085E+01 -1.15043E+04  6.06660E+03 -9.29064E+03  7.55333E+03 -1.54543E+03  7.48658E+02  4.46548E+03
 -4.32686E+03  6.16438E+02 -2.85892E+03 -4.53906E+03  1.54632E+03 -9.23952E+03  7.79414E+03 -9.18130E+03
  1.13681E+04 -4.41496E+03  1.08096E+04  2.60653E+03  9.35173E+03  8.76482E+03  4.27729E+03  1.29530E+04
 -1.12481E+03  1.47989E+04 -9.00589E+03  9.64894E+03 -1.04890E+04  2.54065E+03 -8.08291E+03 -1.46448E+03
 -4.31615E+03 -2.82249E+03 -8.33550E+02  2.09438E+03 -2.06964E+03  1.85715E+03 -3.32638E+03  3.28967E+03
 -7.33902E+03 -2.48400E+02 -8.11211E+03 -6.30290E+03 -2.93286E+03 -1.11591E+04  3.23930E+03 -7.87115E+03
  6.78566E+03 -3.38027E+03  5.54293E+03  2.06732E+03  6.34694E+02  2.81570E+03 -2.95956E+03 -1.20783E+02
 -3.44400E+03 -4.60257E+03 -6.60980E+02 -6.72097E+03  3.54655E+03 -7.45052E+03  8.78496E+03 -3.43703E+03
  1.11777E+04  4.02303E+02  8.13993E+03  5.48609E+03  1.82307E+03  8.61364E+03 -4.92926E+03  7.56195E+03
 -6.43836E+03  2.36965E+03 -3.38322E+03 -1.33512E+03  9.71869E+02 -1.71824E+03  4.88999E+03 -1.25767E+03
  4.06226E+03  3.35405E+03  6.63520E+02  5.84700E+03 -4.70171E+03  6.07052E+03 -7.45466E+03  1.59721E+03
 -4.51666E+03 -3.23244E+03  4.31814E+02 -6.60926E+03  3.40140E+03 -2.89878E+03  3.41289E+03  8.65411E+02
  6.89980E+02  3.31860E+03 -3.34113E+03  4.47814E+03 -4.47416E+03  2.31734E+03 -3.89132E+03 -1.05126E+03
 -2.50810E+03 -5.61244E+03  1.41423E+03 -6.65573E+03  5.16840E+03 -3.72758E+03  6.26146E+03  1.04202E+03
  4.45903E+03  4.02708E+03  3.92926E+02  6.72043E+03 -4.94393E+03  3.76065E+03 -4.95151E+03 -1.75230E+02
 -5.30583E+03 -4.61198E+03 -8.94435E+02 -4.52095E+03  2.39514E+03 -4.69815E+03  2.52937E+03 -2.82441E+03
  2.70854E+03  1.80597E+02  1.89542E+02  8.85319E+02  5.55940E+02 -2.41175E+02 -2.16426E+02 -1.52810E+03
  3.54098E+03 -7.23080E+02  4.13632E+03  5.73211E+02  4.56663E+03  3.12812E+03  4.96976E+03  6.50118E+03
 -8.07749E+02  7.92930E+03 -7.06126E+03  6.45279E+03 -9.36711E+03  7.44107E+02 -7.65548E+03 -1.81599E+03
 -3.89500E+03 -5.77519E+03 -6.49017E+02 -4.77085E+03  2.38305E+03 -2.01835E+03  1.19984E+03 -2.26253E+03
  9.70446E+02 -1.53223E+03  1.70584E+03 -1.86123E+03  3.81815E+03 -1.18053E+03  3.53820E+03  7.73915E+02
  3.86675E+03  1.07987E+03  9.31222E+02  3.26654E+03 -1.36113E+03  1.88484E+03 -4.13809E+03  2.40773E+03
 -4.83521E+03 -7.41542E+02 -1.37714E+03 -3.04408E+03  9.04801E+02 -4.71681E+03  2.80051E+03 -4.78174E+03
  4.82815E+03 -3.00603E+03  5.85756E+03  4.27375E+02  3.91257E+03  4.26653E+03  1.12816E+03  5.51575E+03
 -1.53898E+03  5.07351E+03 -3.18758E+03  1.23276E+03 -1.42718E+03 -1.32019E+03 -6.27883E+02 -6.67018E+02
 -3.60998E+02  6.96750E+02 -1.18421E+03  2.27569E+03 -2.31290E+03  1.22176E+03 -3.91474E+03 -5.19998E+02
 -1.25889E+03 -3.47577E+03  6.45944E+02 -4.29212E+03  3.12238E+03 -3.95706E+03  2.80954E+03 -1.11682E+03
  3.98221E+03  2.43021E+03  1.17084E+03  2.34032E+03 -5.76191E+02  4.14312E+03 -2.21974E+03  2.45704E+03
 -3.70082E+03  1.02949E+03 -3.16296E+03 -1.90646E+03 -2.95575E+02 -2.75176E+03  1.28658E+03 -1.73799E+03
  2.59407E+03 -1.21163E+03  1.63870E+03  1.13549E+02  3.25887E+02  2.24739E+03  1.01942E+03  5.91899E+02
  1.80160E+03  8.21314E+02  9.37920E+02  1.06081E+03  8.03823E+02  2.41186E+03  1.47923E+03  1.36396E+03
 -1.59713E+03  2.69935E+03 -1.97668E+03  3.94488E+03 -2.69540E+03  8.87475E+02 -3.57747E+03  1.54985E+02
 -1.35049E+03 -3.17655E+03  6.17816E+02 -4.19437E+03  1.69288E+03 -1.96725E+03  2.60263E+03 -9.61643E+02
  1.96332E+03  1.78245E+03  1.23984E+02  1.97355E+03 -1.60437E+02  6.03071E+02 -9.27046E+02 -3.85461E+00
 -7.70633E+02 -1.33870E+03  8.39799E+02 -1.31859E+03  1.22835E+03 -4.76677E+02  9.65928E+02  2.66648E+02
  4.37483E+02 -1.89689E+02  2.34244E+02 -1.08713E+02 -4.91251E+02  6.38665E+02  1.22505E+03 -3.59136E+02
  6.39868E+01 -3.90251E+01  2.02843E+03  4.25029E+02  1.92685E+02  2.42277E+03 -1.03755E+03  2.53395E+03
 -1.24844E+03  1.21554E+03 -1.36903E+03  3.41215E+02 -1.90151E+03 -9.43586E+02  2.03600E+02 -5.36640E+02
  6.99192E+02 -5.20163E+02  6.02184E+02 -1.19693E+03  4.03461E+02  1.35544E+03 -5.67209E+02  9.54442E+02
 -1.10882E+03  5.53412E+02 -8.61028E+02 -6.91566E+02 -7.09850E+02 -1.87637E+03  1.61169E+01 -1.45808E+03
  1.76772E+02 -6.95820E+01  1.15797E+03  4.87680E+02  1.40823E+03 -4.27301E+02  6.22142E+02  1.04100E+03
 -1.76436E+02  5.64957E+01 -8.84595E+02 -1.95276E-01  7.55248E+02 -8.42503E+02  1.55113E+03 -4.88295E+02
  1.17726E+03  5.26940E+02  2.63469E+03  9.80716E+02  6.53632E+02  9.22703E+02 -2.50447E+02  2.05117E+03
 -1.08858E+03  1.70746E+02 -1.33237E+03 -6.80193E+00 -4.19684E+02 -1.28625E+03  2.49283E+02 -7.96202E+02
  1.29795E+03 -2.95201E+02  1.01130E+03  9.76640E+01  9.09000E+02  1.10134E+03  2.39822E+02  1.20403E+03
 -2.68361E+02  1.08061E+03 -7.35083E+02  6.90240E+01 -4.26020E+01  1.03765E+02 -6.05394E+02  6.59612E+02
 -6.67404E+02  1.38588E+03 -1.99806E+03  5.46259E+02 -1.31474E+03 -1.04238E+02 -1.86752E+03 -5.60167E+02
 -7.52431E+02 -1.67495E+03  6.18204E+02 -2.47253E+03  6.76522E+02 -2.01158E+03  2.63149E+03 -1.12144E+03
  2.05515E+03 -5.04666E+01  1.28801E+03  1.55185E+03 -6.02601E+02  1.50990E+03 -5.45664E+02  8.90288E+02
 -7.89270E+02  6.24598E+02 -4.47650E+02  1.21559E+01 -5.59508E+02  3.85721E+02 -5.90321E+02 -7.94897E+02
 -1.22057E+03 -4.29493E+01 -1.10101E+03  2.12192E+02  7.76014E+02 -5.86008E+02 -5.62645E+02 -6.27607E+02
  1.58595E+03 -3.25704E+02  8.93952E+02 -1.36550E+02  1.15566E+03  1.22219E+03 -4.07479E+02  1.31493E+03
 -7.21547E+02  1.81490E+03 -1.61840E+03  4.99366E+02 -1.04799E+03 -2.87866E+02 -1.09522E+03 -1.21042E+03
 -1.03673E+03 -1.38224E+03  3.65410E+02 -1.06365E+03  9.45171E+02 -8.51938E+02  6.65092E+02  1.08156E+03
  6.51102E+02  5.36609E+02  4.70994E+02  5.86058E+02 -4.05601E+02  3.03515E+02  1.96527E+01  3.64584E+02
  7.13566E+02  3.58846E+02 -2.25432E+02  2.90304E+02 -2.00381E+01  1.11047E+02 -1.63449E+02  3.25440E+02
 -7.88088E+02  7.41603E+02 -7.05194E+02  5.07533E+02 -1.06130E+03  1.89974E+00  2.03619E+02 -9.94216E+02
  6.29406E+02 -6.75315E+02  5.29242E+02 -2.21704E+02  6.55293E+02 -6.42534E+02  4.57623E+02  8.38048E+02
  1.38256E+02  3.74051E+02 -1.52678E+02  4.09235E+02 -4.09342E+01  3.48407E+02 -2.79578E+02  2.43212E+02
 -4.43872E+01  1.06380E+02 -2.68660E+02 -2.96388E+02 -5.99981E+02 -2.46222E+02 -9.83415E+02  3.28101E+02
 -1.32987E+03  2.44703E+02 -3.05882E+02 -8.92385E+02  6.31481E+02 -1.38201E+03  5.60339E+02 -7.37227E+01
  5.67504E+02  6.12436E+02 -6.70500E+02  5.88653E+02 -5.16214E+02  8.76125E+02 -1.12990E+02  5.83549E+02
