 $NMID ID='MM_0lb_SNR400_14hz_g60_15.RAW', FMTDAT='(8E13.5)'
 TRAMP=1., VOLUME=1. $END
  3.09615E+05  1.04949E+02  3.37667E+05  2.50794E+05  8.48046E+04  3.37954E+05 -1.33243E+05  2.51687E+05
 -1.91207E+05  8.39086E+04 -1.12211E+05 -3.23129E+04 -2.04449E+02 -5.03699E+04  5.37636E+04 -3.24454E+02
  3.58854E+04  5.27611E+04 -1.73320E+04  7.53994E+04 -6.14003E+04  6.39287E+04 -8.49352E+04  3.21402E+04
 -8.17046E+04 -1.09340E+04 -5.71016E+04 -5.14903E+04 -1.51186E+04 -6.99587E+04  2.76377E+04 -4.62421E+04
  4.01923E+04  3.81202E+03  1.57405E+04  4.80926E+04 -3.48129E+04  4.77464E+04 -6.75672E+04 -5.40565E+02
 -5.34007E+04 -5.69552E+04 -7.03659E+03 -7.74349E+04  3.53229E+04 -5.58257E+04  4.86450E+04 -1.83686E+04
  4.42269E+04  1.13835E+04  3.18698E+04  2.65652E+04  1.53708E+04  2.96471E+04 -5.72337E+03  2.76086E+04
 -2.21419E+04  1.27375E+04 -1.83883E+04 -4.77006E+03  5.91558E+03 -7.36837E+03  2.31977E+04  1.31364E+04
  7.55301E+03  3.63429E+04 -3.31191E+04  3.61173E+04 -6.39280E+04  2.09470E+03 -5.78715E+04 -4.26330E+04
 -1.26638E+04 -6.44091E+04  4.10822E+04 -4.64241E+04  5.89378E+04 -2.65647E+03  3.53920E+04  3.32831E+04
 -5.98322E+03  3.67583E+04 -3.09181E+04  1.63503E+04 -3.14515E+04 -3.51531E+03 -1.79123E+04 -1.17177E+04
 -8.63777E+03 -1.43737E+04 -5.55720E+02 -1.83881E+04  7.90247E+03 -2.31312E+04  1.60248E+04 -1.36009E+04
  1.09253E+04  5.66709E+03 -8.41167E+03  1.29416E+04 -2.21253E+04 -5.41717E+03 -8.50862E+03 -3.50372E+04
  2.34832E+04 -4.46240E+04  4.93076E+04 -1.99005E+04  4.66666E+04  1.95200E+04  1.67596E+04  4.50203E+04
 -1.65135E+04  3.42583E+04 -2.59643E+04  2.11817E+03 -1.03542E+04 -2.87452E+04  2.14327E+04 -3.49570E+04
  4.24558E+04 -9.49501E+03  3.71976E+04  2.42867E+04  1.95836E+04  4.81624E+04 -8.15244E+03  5.14472E+04
 -3.27869E+04  3.54992E+04 -4.39588E+04  1.02348E+04 -4.49145E+04 -1.75350E+04 -2.45453E+04 -3.97058E+04
  7.08223E+03 -3.96045E+04  3.22201E+04 -1.55394E+04  2.99967E+04  1.09329E+04  4.22165E+03  1.92563E+04
 -1.35588E+04  8.68138E+03 -1.08507E+04 -7.12406E+03  6.10925E+03 -1.16413E+04  1.81685E+04  6.22356E+03
  1.40759E+04  2.20596E+04 -5.73881E+03  2.54013E+04 -2.21311E+04  1.30468E+04 -2.86994E+04 -4.38917E+03
 -2.22931E+04 -1.82882E+04 -9.22161E+03 -2.17677E+04  4.19701E+03 -2.16455E+04  1.72394E+04 -2.01751E+04
  2.83658E+04 -1.38587E+04  3.42909E+04  3.66157E+03  2.46383E+04  2.18001E+04  4.18466E+03  3.71032E+04
 -1.88939E+04  3.14485E+04 -2.89108E+04  1.07019E+04 -2.16981E+04 -1.05066E+04 -4.62652E+03 -1.30918E+04
  2.19421E+03 -1.95967E+03 -5.78525E+03  7.51101E+03 -1.76758E+04  5.47593E+03 -1.76226E+04 -7.41065E+03
 -1.13677E+04 -2.01091E+04  5.79336E+03 -2.45237E+04  1.60076E+04 -1.79534E+04  1.92162E+04 -1.52133E+03
  1.24313E+04  1.37713E+04 -1.33051E+03  1.96848E+04 -1.40432E+04  1.13602E+04 -2.01263E+04 -4.51855E+03
 -1.47449E+04 -1.77844E+04 -2.28288E+03 -2.49278E+04  1.10728E+04 -2.00201E+04  1.97279E+04 -9.80288E+03
  1.84470E+04  6.19594E+00  1.38051E+04  4.86703E+03  7.06264E+03  1.69278E+03  9.46170E+03 -1.50730E+03
  1.87567E+04  2.69657E+03  2.03122E+04  1.59191E+04  1.41622E+04  3.18525E+04 -3.12097E+03  3.69134E+04
 -2.11923E+04  2.97377E+04 -3.42677E+04  1.48007E+04 -3.66007E+04 -2.84768E+03 -2.98043E+04 -2.11287E+04
 -1.25586E+04 -2.95716E+04  9.67643E+03 -2.70203E+04  2.30497E+04 -1.29777E+04  2.06297E+04  6.21186E+03
  7.18335E+03  1.51505E+04 -9.33386E+03  1.32869E+04 -1.69516E+04  1.92003E+03 -1.33477E+04 -1.07750E+04
 -1.03478E+02 -1.63396E+04  8.14946E+03 -1.22388E+04  1.17893E+04 -1.03503E+03  2.51511E+03  7.59329E+03
 -7.47993E+03  3.77075E+03 -6.66229E+03 -6.24759E+03 -7.80527E+01 -1.48552E+04  9.93238E+03 -1.53249E+04
  1.82844E+04 -7.85783E+03  1.91888E+04  3.43212E+03  1.74073E+04  1.44606E+04  8.32309E+03  2.25219E+04
 -3.61994E+03  2.42385E+04 -1.53008E+04  1.50064E+04 -1.72003E+04  3.62502E+03 -1.22896E+04 -3.98007E+03
 -6.28220E+03 -4.96824E+03 -7.44857E+02  1.07579E+03 -2.84237E+03  2.31459E+03 -5.52274E+03  4.34424E+03
 -1.16918E+04 -4.04185E+02 -1.14848E+04 -9.67822E+03 -5.02882E+03 -1.50351E+04  4.92752E+03 -1.25002E+04
  9.94775E+03 -4.76648E+03  7.37583E+03  3.41636E+03 -2.86716E+02  4.88723E+03 -5.85873E+03  4.91306E+02
 -5.72150E+03 -7.39858E+03 -6.15251E+02 -1.17009E+04  5.54912E+03 -1.16141E+04  1.45915E+04 -6.10278E+03
  1.75715E+04  1.63377E+03  1.24935E+04  1.07208E+04  2.53180E+03  1.38343E+04 -7.54718E+03  1.18840E+04
 -1.04896E+04  3.24665E+03 -4.58549E+03 -2.06016E+03  1.64607E+03 -3.05351E+03  6.53982E+03 -1.24133E+03
  5.91164E+03  5.56114E+03  1.04759E+03  1.03891E+04 -6.98426E+03  9.35665E+03 -1.24843E+04  2.12049E+03
 -7.73642E+03 -5.93398E+03 -9.15081E+01 -9.84933E+03  6.54555E+03 -5.11541E+03  6.95458E+03  2.50343E+03
  1.87322E+03  6.14717E+03 -6.19848E+03  8.07254E+03 -9.30396E+03  3.47632E+03 -9.14212E+03 -3.09375E+03
 -5.45715E+03 -1.05968E+04  1.64268E+03 -1.24624E+04  1.05870E+04 -7.90997E+03  1.10600E+04  2.20986E+03
  6.89454E+03  9.18683E+03 -1.46592E+03  1.13717E+04 -8.03122E+03  6.28957E+03 -8.62479E+03 -7.25528E+02
 -7.56592E+03 -7.73642E+03 -1.65458E+03 -8.70100E+03  4.34855E+03 -7.09478E+03  5.81390E+03 -3.50323E+03
  3.69304E+03  1.16107E+03 -7.88180E+02  1.70235E+03  3.45687E+02 -1.92545E+03  1.59792E+03 -4.65316E+03
  7.01456E+03 -3.05891E+03  1.03048E+04  1.40985E+03  9.47273E+03  7.04446E+03  8.03359E+03  1.28275E+04
 -3.20515E+03  1.55222E+04 -1.36554E+04  1.22595E+04 -1.71147E+04  2.32123E+03 -1.34866E+04 -6.07414E+03
 -6.92639E+03 -1.11773E+04 -3.20786E+02 -1.01096E+04  3.32494E+03 -4.84385E+03  3.14881E+03 -3.75334E+03
  2.19970E+03 -1.94434E+03  2.93667E+03 -3.59814E+03  3.64108E+03 -2.28431E+03  5.26851E+03 -4.95615E+02
  7.57592E+03  1.80407E+03  3.34092E+03  5.45374E+03 -1.61506E+03  6.72402E+03 -7.48194E+03  4.96707E+03
 -9.39310E+03 -1.19360E+03 -5.04449E+03 -6.39665E+03 -6.05959E+02 -9.39661E+03  5.52091E+03 -9.58386E+03
  9.89418E+03 -5.52062E+03  1.22600E+04  1.22474E+03  8.71551E+03  8.44162E+03  1.57079E+03  1.12432E+04
 -3.59454E+03  1.02363E+04 -5.62929E+03  3.05282E+03 -4.68095E+03 -1.37836E+03 -1.53531E+03 -1.58837E+03
 -1.63308E+03 -5.18802E+02 -1.36457E+03  2.65123E+03 -4.52691E+03  1.62884E+03 -6.90360E+03 -1.19694E+03
 -3.99474E+03 -6.49879E+03  4.57952E+02 -8.61000E+03  5.35321E+03 -7.89882E+03  7.94856E+03 -2.60747E+03
  8.07487E+03  4.45351E+03  4.09515E+03  6.86075E+03 -1.05190E+03  8.16962E+03 -5.91972E+03  5.15586E+03
 -8.05689E+03  1.82856E+02 -5.78253E+03 -5.12588E+03 -1.06474E+03 -6.83061E+03  3.44574E+03 -5.29173E+03
  4.72405E+03 -2.09562E+03  4.21478E+03  1.42016E+03  9.66958E+02  2.87811E+03  1.70523E+03  1.37824E+03
  1.49401E+03  9.38587E+02  2.24937E+03  1.16714E+03  2.51294E+03  3.40317E+03  2.06626E+03  3.98867E+03
 -2.42950E+03  5.90164E+03 -5.74646E+03  6.69484E+03 -7.46734E+03  2.52613E+03 -7.93133E+03 -3.24791E+03
 -4.61047E+03 -8.00392E+03  1.43178E+03 -9.52667E+03  4.16621E+03 -5.75453E+03  6.37935E+03 -1.84701E+03
  4.94652E+03  2.70615E+03  8.35036E+02  4.96330E+03 -1.96390E+03  3.01053E+03 -3.00257E+03 -6.19900E+02
 -1.83926E+03 -3.20273E+03  2.03746E+03 -2.94828E+03  2.67628E+03 -2.13528E+03  3.30977E+03  5.55435E+02
  2.32071E+03  1.17727E+03  8.68669E+02  7.38823E+02 -2.69329E+02  1.73075E+03  1.69675E+03 -6.16676E+02
  1.43247E+03 -4.56157E+02  2.75958E+03  1.37447E+03  1.22332E+03  4.42929E+03 -6.86003E+02  5.83705E+03
 -4.09697E+03  3.51989E+03 -4.79897E+03  1.33791E+03 -4.90220E+03 -2.31606E+03 -1.66872E+03 -2.68652E+03
  1.08681E+02 -2.62218E+03  2.85504E+03 -1.45298E+03  1.06493E+03  1.55421E+03 -8.68677E+02  2.35320E+03
 -3.13787E+03  1.64933E+03 -2.94977E+03 -2.57516E+03 -2.36877E+03 -4.21979E+03  6.16292E+02 -3.96963E+03
  2.32680E+03 -2.40259E+03  2.25430E+03 -1.10531E+02  2.83746E+03  6.65789E+02  4.42536E+01  1.93817E+03
 -1.35934E+03  7.19206E+02 -2.35442E+03 -1.66951E+03  1.07883E+03 -3.09288E+03  3.80327E+03 -2.31233E+03
  3.43178E+03  3.12825E+02  4.68583E+03  1.98813E+03  1.64068E+03  4.26814E+03 -1.27833E+03  4.83191E+03
 -3.89949E+03  1.73238E+03 -3.90390E+03 -1.37309E+02 -2.03616E+03 -3.03379E+03  1.26925E+02 -3.06255E+03
  3.08821E+03 -1.36468E+03  2.70501E+03  1.53713E+03  7.85710E+02  2.56286E+03 -4.56862E+02  2.61145E+03
 -6.85986E+02  1.64046E+03 -9.92555E+02  5.85732E+02 -1.43178E+02  5.31133E+02 -1.19609E+03  1.31345E+03
 -9.27377E+02  1.43350E+03 -3.22522E+03  1.14993E+03 -4.52443E+03  3.34899E+02 -4.96469E+03 -2.42949E+03
 -2.32147E+03 -6.00972E+03  5.25362E+02 -7.09915E+03  3.45768E+03 -5.90962E+03  6.46848E+03 -2.59230E+03
  5.83055E+03  6.70647E+02  2.75957E+03  4.52395E+03 -2.86176E+02  4.46756E+03 -1.90917E+03  2.67232E+03
 -2.15630E+03  1.83459E+03 -1.50771E+03 -5.68621E+02  4.01232E+00 -8.77763E+01 -4.20697E+02  2.17049E+02
 -1.62799E+03 -1.72368E+02 -1.19752E+03  1.02289E+02  5.75737E+02 -7.96375E+02  4.17203E+02 -1.58110E+03
  2.19911E+03 -9.71120E+02  2.12715E+03  9.00558E+00  2.73117E+03  2.26546E+03 -4.27276E+01  3.91609E+03
 -3.04523E+03  4.92261E+03 -3.62866E+03  2.81014E+03 -4.80030E+03 -8.31778E+02 -3.38730E+03 -2.51888E+03
 -1.53911E+03 -4.08771E+03  1.30392E+03 -3.55170E+03  2.46926E+03 -2.52894E+03  2.14160E+03  4.11480E+02
  1.55328E+03  1.31284E+03 -6.77081E+02  1.09791E+03 -2.67335E+02  1.34921E+02  2.09427E+02 -6.66802E+02
  1.23729E+03 -1.55788E+02  1.08726E+03  7.35163E+02  4.20713E+02  1.31004E+03  3.95062E+02  1.13912E+03
 -2.20373E+03  1.53954E+03 -2.60491E+03 -4.21314E+02 -2.26798E+03 -2.33354E+03 -3.43135E+02 -3.15118E+03
  1.62254E+03 -2.24668E+03  2.92312E+03 -7.72199E+02  2.23981E+03  4.08391E+02  1.38057E+03  2.35815E+03
  3.46939E+02  2.54360E+03 -8.31559E+02  1.83758E+03 -1.71514E+03  1.41740E+03 -1.24123E+03  2.93939E+02
 -6.07715E+02 -3.26086E+02 -6.94894E+02  2.99125E+02 -5.35214E+02  6.34983E+02 -1.83623E+03 -5.81743E+02
 -1.84680E+03 -7.32597E+02  1.63950E+01 -3.78687E+03  1.59316E+03 -2.96185E+03  2.08789E+03 -1.20062E+03
  2.27098E+03 -3.41041E+02  9.64088E+02  6.86024E+02 -6.26467E+02  2.48376E+03 -1.69066E+03  1.76335E+03
