 $NMID ID='MM_0lb_SNR400_16hz_g50_79.RAW', FMTDAT='(8E13.5)'
 TRAMP=1., VOLUME=1. $END
  3.09703E+05  1.98659E+02  3.36828E+05  2.50289E+05  8.48156E+04  3.37670E+05 -1.32630E+05  2.50252E+05
 -1.90246E+05  8.29965E+04 -1.11098E+05 -3.25936E+04  1.23571E+03 -5.03659E+04  5.35250E+04  2.85274E+02
  3.51495E+04  5.29197E+04 -1.64136E+04  7.52652E+04 -6.08384E+04  6.28014E+04 -8.41531E+04  3.22889E+04
 -8.07447E+04 -1.16722E+04 -5.64545E+04 -5.11087E+04 -1.46156E+04 -6.87176E+04  2.66474E+04 -4.46094E+04
  3.97882E+04  3.33358E+03  1.59804E+04  4.77056E+04 -3.37116E+04  4.67215E+04 -6.66471E+04 -4.92994E+02
 -5.29425E+04 -5.65274E+04 -6.84844E+03 -7.66603E+04  3.32843E+04 -5.47109E+04  4.76489E+04 -1.65476E+04
  4.27274E+04  1.09692E+04  3.10312E+04  2.48075E+04  1.57665E+04  2.86714E+04 -5.31152E+03  2.72857E+04
 -2.21816E+04  1.23846E+04 -1.85386E+04 -4.81099E+03  5.00330E+03 -7.87601E+03  2.16866E+04  1.16300E+04
  7.51397E+03  3.46775E+04 -3.18692E+04  3.50316E+04 -6.21108E+04  1.66089E+03 -5.66321E+04 -4.22018E+04
 -1.23574E+04 -6.22932E+04  3.84064E+04 -4.41255E+04  5.72933E+04 -1.93444E+03  3.32233E+04  3.14950E+04
 -6.08711E+03  3.48448E+04 -2.96312E+04  1.49787E+04 -2.93139E+04 -5.38516E+03 -1.57860E+04 -1.02628E+04
 -8.14233E+03 -1.25138E+04 -8.36617E+02 -1.73644E+04  7.66691E+03 -2.22276E+04  1.48714E+04 -1.38314E+04
  1.16495E+04  4.46205E+03 -7.54417E+03  1.26323E+04 -2.05765E+04 -4.04497E+03 -8.42543E+03 -3.22765E+04
  2.26821E+04 -4.18908E+04  4.67011E+04 -1.96518E+04  4.35667E+04  1.95183E+04  1.49010E+04  4.35250E+04
 -1.57904E+04  3.25976E+04 -2.43998E+04  2.00775E+03 -9.32086E+03 -2.74238E+04  2.09506E+04 -3.28919E+04
  3.95705E+04 -7.36486E+03  3.43218E+04  2.27933E+04  1.72452E+04  4.52710E+04 -7.70510E+03  4.85997E+04
 -3.03396E+04  3.19774E+04 -4.05173E+04  9.77385E+03 -4.08665E+04 -1.58925E+04 -2.25847E+04 -3.61279E+04
  7.42334E+03 -3.67583E+04  3.05608E+04 -1.44781E+04  2.86457E+04  1.12522E+04  3.66099E+03  1.90181E+04
 -1.38345E+04  8.12101E+03 -9.65351E+03 -7.82366E+03  5.38273E+03 -1.04597E+04  1.79674E+04  6.33972E+03
  1.31305E+04  2.13981E+04 -5.92595E+03  2.42234E+04 -2.19808E+04  1.09249E+04 -2.65319E+04 -4.51083E+03
 -1.91572E+04 -1.68424E+04 -7.43313E+03 -1.90378E+04  4.68544E+03 -1.74354E+04  1.41680E+04 -1.68399E+04
  2.41622E+04 -1.23420E+04  3.07881E+04  2.37248E+03  2.25109E+04  1.84768E+04  3.82870E+03  3.48287E+04
 -1.72392E+04  2.89785E+04 -2.71958E+04  1.02292E+04 -2.00382E+04 -1.01399E+04 -4.27718E+03 -1.32530E+04
  2.00517E+03 -3.08766E+03 -3.90162E+03  5.73860E+03 -1.49495E+04  5.21470E+03 -1.49295E+04 -5.96223E+03
 -9.27901E+03 -1.73216E+04  4.95279E+03 -2.15111E+04  1.39356E+04 -1.56988E+04  1.66014E+04 -1.69587E+03
  1.05455E+04  1.24596E+04 -8.12226E+02  1.80628E+04 -1.22606E+04  9.71884E+03 -1.77476E+04 -3.32757E+03
 -1.31164E+04 -1.55228E+04 -1.67849E+03 -2.13937E+04  9.50298E+03 -1.76765E+04  1.82149E+04 -8.97406E+03
  1.60612E+04  7.84388E+02  1.24559E+04  4.04258E+03  6.46914E+03  3.89352E+02  8.65471E+03 -1.61152E+03
  1.59915E+04  2.82851E+03  1.68116E+04  1.45503E+04  1.07769E+04  2.82612E+04 -2.90077E+03  3.05867E+04
 -1.80488E+04  2.42199E+04 -2.88408E+04  1.18163E+04 -2.97500E+04 -2.16559E+03 -2.44198E+04 -1.71314E+04
 -1.06806E+04 -2.46362E+04  8.71323E+03 -2.25654E+04  1.96592E+04 -1.16355E+04  1.79614E+04  4.60625E+03
  6.68930E+03  1.25892E+04 -8.32306E+03  1.16155E+04 -1.51043E+04  2.62017E+03 -1.15156E+04 -9.24167E+03
 -6.43174E+01 -1.41178E+04  6.67373E+03 -1.07192E+04  8.97400E+03 -1.15731E+03  1.88858E+03  5.85664E+03
 -7.16750E+03  2.14965E+03 -5.44845E+03 -4.52656E+03  5.14154E+02 -1.20419E+04  8.45857E+03 -1.28664E+04
  1.47015E+04 -6.45567E+03  1.62273E+04  3.24811E+03  1.34161E+04  1.13673E+04  6.83272E+03  1.80225E+04
 -1.85364E+03  1.94827E+04 -1.22355E+04  1.22337E+04 -1.45299E+04  3.30147E+03 -1.03984E+04 -2.35733E+03
 -5.15673E+03 -3.89846E+03 -8.93556E+02  1.19345E+03 -2.27735E+03  2.72580E+03 -4.80450E+03  3.94213E+03
 -9.53410E+03 -4.85644E+02 -1.01379E+04 -7.72389E+03 -4.88054E+03 -1.34831E+04  4.29556E+03 -1.03681E+04
  8.73557E+03 -4.35116E+03  6.12921E+03  2.84077E+03  4.04380E+02  3.26494E+03 -4.08992E+03  4.62591E+01
 -4.21851E+03 -6.27376E+03 -8.24544E+02 -8.66050E+03  4.79571E+03 -9.35123E+03  1.20831E+04 -5.38606E+03
  1.42258E+04  1.02017E+03  1.09090E+04  7.56108E+03  2.18786E+03  1.05141E+04 -6.12572E+03  9.67259E+03
 -7.81451E+03  2.82458E+03 -3.74003E+03 -1.77605E+03  1.30427E+03 -2.14909E+03  5.46775E+03 -1.16233E+03
  4.31642E+03  4.10393E+03  4.01944E+02  7.49134E+03 -5.00610E+03  7.11571E+03 -9.06875E+03  2.21716E+03
 -6.33482E+03 -4.64711E+03  4.38725E+02 -8.34221E+03  4.61161E+03 -3.75098E+03  5.19413E+03  1.82056E+03
  4.37337E+02  4.70861E+03 -4.43433E+03  6.84927E+03 -6.58890E+03  2.79312E+03 -6.37521E+03 -1.67654E+03
 -3.90183E+03 -8.03508E+03  1.83053E+03 -9.18325E+03  7.69020E+03 -5.53379E+03  8.58970E+03  1.59429E+03
  6.29247E+03  7.18344E+03 -1.00130E+03  9.73980E+03 -6.08702E+03  5.09293E+03 -6.50234E+03 -9.00749E+02
 -6.52210E+03 -6.70630E+03 -1.37245E+03 -6.63629E+03  3.16040E+03 -5.46751E+03  3.81223E+03 -2.80412E+03
  3.35589E+03  7.65365E+02  2.52904E+02  8.47768E+02  5.35253E+02 -1.18320E+03  9.24274E+02 -2.88340E+03
  4.86733E+03 -1.88628E+03  7.73557E+03  7.82768E+02  7.63994E+03  4.84424E+03  6.78220E+03  1.02602E+04
 -2.34197E+03  1.17996E+04 -1.01369E+04  9.04360E+03 -1.29658E+04  1.81209E+03 -1.06377E+04 -4.14439E+03
 -4.87135E+03 -8.01458E+03 -7.92271E+02 -7.42888E+03  2.39970E+03 -3.63616E+03  2.03795E+03 -3.23564E+03
  1.62718E+03 -1.72320E+03  2.68253E+03 -2.73018E+03  4.10833E+03 -1.16748E+03  4.32753E+03  1.02644E+01
  5.97571E+03  1.37675E+03  2.14205E+03  4.89370E+03 -1.93815E+03  3.81517E+03 -5.28439E+03  4.20579E+03
 -7.16919E+03 -8.11818E+02 -3.03276E+03 -4.78016E+03  4.12046E+02 -7.30757E+03  4.11455E+03 -7.01712E+03
  7.14346E+03 -4.30178E+03  8.93478E+03  8.94510E+02  6.35849E+03  6.14356E+03  1.64569E+03  8.39710E+03
 -2.74612E+03  6.92135E+03 -4.43057E+03  2.59842E+03 -3.07264E+03 -1.12556E+03  1.00803E+01 -3.30726E+01
 -1.83055E+02  7.28737E+01 -1.15560E+03  1.61479E+03 -3.69928E+03  1.67621E+03 -4.78258E+03 -2.42536E+02
 -2.72397E+03 -5.42481E+03  3.79427E+02 -6.25198E+03  4.05578E+03 -5.89088E+03  5.77854E+03 -1.58123E+03
  5.91601E+03  3.27012E+03  2.29413E+03  4.99635E+03 -1.26918E+03  5.40632E+03 -3.91387E+03  3.88431E+03
 -5.61665E+03 -1.57638E+02 -4.63591E+03 -4.09258E+03 -8.01839E+02 -5.16189E+03  2.35406E+03 -3.51854E+03
  3.90779E+03 -1.31062E+03  2.85499E+03  9.74897E+02  5.39216E+02  1.45135E+03  1.24814E+03  1.01983E+03
  2.04035E+03  4.08404E+02  2.29406E+03  9.73032E+02  2.06998E+03  2.50578E+03  1.48064E+03  2.94708E+03
 -1.74675E+03  4.46041E+03 -3.35698E+03  5.15700E+03 -5.36696E+03  1.89619E+03 -6.33699E+03 -1.12854E+03
 -2.63460E+03 -5.56085E+03  5.28228E+02 -6.28315E+03  3.07942E+03 -3.83825E+03  4.33409E+03 -1.30503E+03
  3.86531E+03  2.31457E+03  3.37258E+02  3.27239E+03 -1.29284E+03  2.58777E+03 -1.92854E+03 -6.55229E+01
 -4.89662E+02 -2.15255E+03  1.49158E+03 -1.88903E+03  2.37095E+03 -1.38308E+03  2.25281E+03  4.25615E+02
  1.53990E+03  1.05705E+03  1.09124E+03  2.64700E+02 -6.04438E+01  1.17298E+03  1.17606E+03 -5.74160E+02
 -1.66280E+01 -9.88639E+01  2.50751E+03  8.02279E+02  6.34275E+02  3.10638E+03 -3.36110E+02  3.71797E+03
 -2.46487E+03  1.78793E+03 -3.35631E+03  1.64711E+01 -3.05596E+03 -2.99194E+02 -4.35772E+02 -1.80072E+03
  5.66198E+02 -1.98630E+03  1.49707E+03 -9.47264E+02 -3.50351E+01  1.53498E+03 -2.20801E+02  1.91423E+03
 -2.15532E+03  8.88249E+02 -2.30813E+03 -1.63780E+03 -1.32268E+03 -2.97615E+03  5.59232E+02 -2.48920E+03
  1.44618E+03 -1.60864E+03  1.16836E+03 -5.43292E+02  1.97117E+03  5.79142E+02 -9.81475E+01  1.69895E+03
 -1.00354E+03  4.55222E+02 -1.19804E+03 -5.56013E+02  4.49180E+02 -1.53344E+03  2.85845E+03 -1.41835E+03
  2.01851E+03  3.25068E+02  3.76591E+03  1.75199E+03  1.82805E+03  3.11598E+03 -9.59986E+02  3.06014E+03
 -1.62747E+03  5.65247E+02 -2.78587E+03 -4.93925E+01 -1.03630E+03 -2.03814E+03  1.13658E+02 -1.77937E+03
  2.47534E+03 -7.30517E+02  1.07225E+03  8.75096E+02  2.21750E+02  2.01677E+03  6.34549E+02  2.04539E+03
 -8.58248E+02  1.27786E+03 -7.80337E+02  5.22627E+02  1.36125E+02  5.06682E+02 -1.14857E+03  8.70536E+02
 -7.63425E+02  1.52768E+03 -2.41402E+03  5.93023E+02 -2.72337E+03  4.87351E+02 -3.74140E+03 -1.83813E+03
 -1.55167E+03 -3.91444E+03  9.85116E+02 -4.18227E+03  2.21618E+03 -3.60013E+03  5.22025E+03 -1.74409E+03
  3.77451E+03  2.93399E+02  1.73037E+03  2.65827E+03 -4.00384E+02  2.88396E+03 -1.23258E+03  1.37221E+03
 -1.75693E+03  3.58121E+02 -8.88522E+02 -2.71634E+02 -1.01236E+03  3.62786E+02 -8.33891E+02  1.13906E+02
 -1.25585E+03  1.05530E+02 -4.04799E+02 -4.67264E+02 -1.69338E+02 -1.16674E+03 -3.93615E+02 -1.56638E+03
  1.66667E+03 -5.85032E+02  1.54149E+03  2.57367E+01  1.38933E+03  1.28319E+03 -9.21414E+01  3.15234E+03
 -1.65160E+03  3.30913E+03 -2.42516E+03  2.21897E+03 -2.62717E+03 -1.03263E+03 -2.53816E+03 -2.17941E+03
 -1.09523E+03 -2.57346E+03  6.14176E+02 -2.09704E+03  9.55821E+02 -1.23576E+03  1.21271E+03 -3.04706E+02
  9.79903E+02  1.27841E+02 -4.47406E+01  7.07334E+02 -7.14083E+02 -2.45430E+02  2.81030E+02 -1.17478E+02
  4.77796E+02 -1.24013E+02  1.22164E+03 -2.55391E+01  2.16732E+02  5.48727E+02 -2.19747E+01  1.12109E+03
 -1.09543E+03  1.12495E+03 -1.15526E+03  5.41195E+02 -1.80304E+03 -7.74543E+02 -1.82701E+02 -1.71353E+03
  8.09402E+02 -1.60923E+03  1.13530E+03 -9.12618E+02  2.11166E+03 -5.04785E+02  1.25814E+03  1.41958E+03
  4.47969E+02  7.23987E+02 -3.63158E+02  1.52251E+03 -2.94890E+02  7.55868E+02 -8.53458E+02  3.92244E+02
 -4.60730E+02 -1.30842E+02 -1.32280E+01  9.00860E+01 -1.01090E+03 -8.56661E+01 -1.32768E+03 -4.44600E+02
 -1.80417E+03 -6.20713E+02 -1.00906E+03 -1.79592E+03  4.65174E+02 -2.00528E+03  1.49146E+03 -1.49265E+02
  1.36273E+03  6.61242E+02  2.56062E+02  1.16044E+03 -6.62426E+01  6.25370E+02 -9.95913E+01  1.38555E+03
