 $NMID ID='MM_0lb_SNR400_20hz_g50_84.RAW', FMTDAT='(8E13.5)'
 TRAMP=1., VOLUME=1. $END
  3.09677E+05  2.81685E+02  3.36872E+05  2.51099E+05  8.40826E+04  3.36881E+05 -1.32477E+05  2.50439E+05
 -1.89742E+05  8.20128E+04 -1.10631E+05 -3.27059E+04  1.25002E+03 -5.00097E+04  5.41712E+04 -3.87541E+02
  3.49775E+04  5.36428E+04 -1.72571E+04  7.47493E+04 -5.98853E+04  6.22015E+04 -8.26765E+04  3.14216E+04
 -7.94523E+04 -1.07031E+04 -5.60087E+04 -5.00849E+04 -1.50161E+04 -6.85660E+04  2.66989E+04 -4.49666E+04
  3.90122E+04  4.44514E+03  1.52944E+04  4.68668E+04 -3.35638E+04  4.61589E+04 -6.54532E+04 -9.00855E+01
 -5.22145E+04 -5.57070E+04 -5.91027E+03 -7.47125E+04  3.32838E+04 -5.31986E+04  4.54963E+04 -1.58303E+04
  4.15141E+04  1.13120E+04  3.08793E+04  2.38924E+04  1.56555E+04  2.81005E+04 -5.10102E+03  2.67902E+04
 -2.16317E+04  1.28320E+04 -1.96260E+04 -4.32723E+03  4.07224E+03 -8.00035E+03  2.15606E+04  1.05706E+04
  7.40144E+03  3.28243E+04 -3.05707E+04  3.40328E+04 -6.02834E+04  2.70627E+03 -5.57462E+04 -4.09467E+04
 -1.24044E+04 -6.03505E+04  3.76294E+04 -4.32824E+04  5.45676E+04 -2.08216E+03  3.08962E+04  3.04744E+04
 -6.54100E+03  3.27841E+04 -2.75479E+04  1.31495E+04 -2.70552E+04 -5.35999E+03 -1.40478E+04 -1.03424E+04
 -6.52480E+03 -1.08556E+04 -1.57829E+03 -1.64984E+04  6.34318E+03 -2.21852E+04  1.49497E+04 -1.34395E+04
  1.23587E+04  4.16987E+03 -6.44566E+03  1.26968E+04 -1.84448E+04 -2.23985E+03 -8.05757E+03 -3.00476E+04
  2.09131E+04 -3.99746E+04  4.44131E+04 -1.84054E+04  4.14101E+04  1.76651E+04  1.41714E+04  4.09821E+04
 -1.50028E+04  3.04343E+04 -2.31920E+04  1.25841E+03 -8.10735E+03 -2.58223E+04  1.99957E+04 -3.11514E+04
  3.78020E+04 -7.12623E+03  3.11248E+04  2.23329E+04  1.49255E+04  4.27352E+04 -7.93440E+03  4.45828E+04
 -2.75517E+04  2.89955E+04 -3.68864E+04  7.90514E+03 -3.77026E+04 -1.41301E+04 -2.08995E+04 -3.39268E+04
  6.31478E+03 -3.34909E+04  2.85941E+04 -1.20723E+04  2.62208E+04  1.06828E+04  2.69744E+03  1.76043E+04
 -1.27851E+04  6.96189E+03 -9.24599E+03 -7.57971E+03  6.26567E+03 -1.00633E+04  1.67851E+04  6.46817E+03
  1.25088E+04  2.14748E+04 -6.75242E+03  2.29594E+04 -2.15267E+04  9.08965E+03 -2.46605E+04 -7.04272E+03
 -1.61474E+04 -1.62215E+04 -5.28952E+03 -1.57373E+04  3.74105E+03 -1.38066E+04  1.18534E+04 -1.39215E+04
  2.05802E+04 -1.14461E+04  2.69794E+04  1.12288E+03  2.10422E+04  1.58209E+04  3.77069E+03  3.14045E+04
 -1.59723E+04  2.68604E+04 -2.56574E+04  9.53240E+03 -1.97237E+04 -1.04157E+04 -3.96035E+03 -1.43071E+04
  2.92724E+03 -4.73176E+03 -2.23120E+03  5.11872E+03 -1.25473E+04  4.58234E+03 -1.25021E+04 -5.05265E+03
 -8.59283E+03 -1.47573E+04  4.54261E+03 -1.85278E+04  1.17285E+04 -1.32849E+04  1.34354E+04 -1.52739E+03
  8.33701E+03  1.04535E+04 -9.56593E+02  1.48659E+04 -9.67137E+03  8.95019E+03 -1.46157E+04 -2.95821E+03
 -1.13714E+04 -1.39020E+04 -1.29076E+03 -1.81951E+04  8.28396E+03 -1.46429E+04  1.58699E+04 -6.93076E+03
  1.38498E+04  4.98990E+02  9.67573E+03  3.93875E+03  5.30762E+03  2.65924E+02  7.26470E+03 -1.32709E+03
  1.31016E+04  2.46789E+03  1.36829E+04  1.24982E+04  8.25962E+03  2.36421E+04 -2.60362E+03  2.53262E+04
 -1.51561E+04  1.87544E+04 -2.23148E+04  8.73983E+03 -2.36593E+04 -1.26533E+03 -1.98841E+04 -1.33112E+04
 -9.59280E+03 -1.88849E+04  6.70939E+03 -1.81100E+04  1.56354E+04 -1.02584E+04  1.45612E+04  3.39995E+03
  5.96582E+03  1.01917E+04 -6.55462E+03  9.89753E+03 -1.28965E+04  2.52202E+03 -1.02499E+04 -7.36166E+03
  1.54755E+02 -1.20497E+04  5.89611E+03 -8.78673E+03  7.77075E+03 -1.63012E+03  1.30394E+03  5.02753E+03
 -4.53151E+03  1.44890E+03 -2.94542E+03 -4.30703E+03  7.96715E+02 -9.56898E+03  7.28836E+03 -8.98552E+03
  1.15344E+04 -4.06843E+03  1.05359E+04  3.17411E+03  8.74166E+03  8.81783E+03  5.02373E+03  1.25447E+04
 -6.74071E+02  1.46083E+04 -8.62354E+03  9.55232E+03 -1.02779E+04  3.15798E+03 -7.82743E+03 -1.54690E+03
 -4.24208E+03 -2.49075E+03 -8.42899E+02  1.92978E+03 -2.66553E+03  1.58408E+03 -3.08991E+03  3.22192E+03
 -7.54233E+03 -4.90412E+02 -7.97002E+03 -6.99579E+03 -3.80522E+03 -1.09795E+04  3.51953E+03 -7.83239E+03
  6.47362E+03 -3.43120E+03  4.51738E+03  2.14075E+03  2.96102E+02  2.77022E+03 -3.13790E+03 -5.02289E+01
 -2.85582E+03 -4.57923E+03 -7.38066E+02 -6.40344E+03  3.39743E+03 -7.19530E+03  9.36073E+03 -3.95432E+03
  1.06302E+04  4.81787E+02  8.31034E+03  5.01159E+03  1.59556E+03  8.02750E+03 -4.58048E+03  7.62063E+03
 -6.83525E+03  2.62275E+03 -3.11731E+03 -1.39314E+03  1.21868E+03 -1.82378E+03  4.39077E+03 -1.45218E+03
  3.91654E+03  3.06342E+03  7.39671E+02  5.62068E+03 -4.09505E+03  5.82259E+03 -7.19139E+03  2.12198E+03
 -4.36544E+03 -3.35539E+03  4.98963E+01 -6.26632E+03  3.63482E+03 -2.82315E+03  3.05364E+03  6.09641E+02
  4.80340E+02  3.34424E+03 -3.35148E+03  4.08242E+03 -4.56706E+03  2.23222E+03 -3.60604E+03 -4.14125E+02
 -2.94028E+03 -4.89789E+03  5.80733E+02 -5.91265E+03  5.32834E+03 -4.07641E+03  5.26891E+03  5.26706E+02
  3.58145E+03  4.34616E+03 -1.98211E+02  6.74632E+03 -4.59648E+03  4.05480E+03 -4.81631E+03 -3.22939E+02
 -5.51432E+03 -4.39042E+03 -1.00895E+03 -4.59421E+03  2.72080E+03 -4.32481E+03  2.58007E+03 -2.66024E+03
  2.10616E+03 -5.44925E+02 -2.31950E+02  1.18534E+03  4.64098E+02  1.62291E+02 -1.69821E+02 -1.28844E+03
  3.37712E+03 -5.83058E+02  4.60652E+03  5.38495E+02  3.88033E+03  2.46362E+03  4.78479E+03  5.63510E+03
 -6.58397E+02  7.05330E+03 -6.86244E+03  5.86408E+03 -8.57933E+03  1.02171E+03 -6.71425E+03 -1.58377E+03
 -3.42857E+03 -5.19670E+03 -2.64871E+02 -4.36628E+03  1.40205E+03 -1.71758E+03  9.68287E+02 -2.14330E+03
  1.27298E+03 -1.35949E+03  2.09802E+03 -2.04732E+03  3.02776E+03 -7.07655E+02  3.18202E+03  8.39288E+02
  3.62659E+03  1.11395E+03  7.81262E+02  2.95305E+03 -1.45842E+03  2.23408E+03 -4.26404E+03  2.10896E+03
 -4.51988E+03 -7.26721E+02 -2.95575E+02 -2.83749E+03  6.35681E+02 -4.12093E+03  3.00143E+03 -5.05314E+03
  4.67884E+03 -2.76493E+03  5.28381E+03  7.58228E+01  3.95814E+03  3.31289E+03  9.56559E+02  5.37493E+03
 -1.81458E+03  5.09782E+03 -2.88839E+03  1.93039E+03 -1.61759E+03 -9.73948E+02 -3.93631E+02 -4.62252E+02
 -4.58762E+02  5.04948E+02 -8.06835E+02  1.41056E+03 -2.49857E+03  1.13347E+03 -3.32484E+03 -7.13166E+02
 -1.13223E+03 -3.18034E+03  1.08856E+03 -3.87345E+03  1.94225E+03 -2.98125E+03  3.03130E+03 -9.21192E+02
  2.67811E+03  1.87490E+03  1.81970E+03  2.90862E+03 -6.96625E+02  4.05589E+03 -1.79068E+03  2.14920E+03
 -3.38192E+03  9.54796E+02 -3.07340E+03 -1.58785E+03  9.98664E+01 -1.98521E+03  1.02422E+03 -2.05639E+03
  2.27584E+03 -9.77505E+02  1.65251E+03  4.63978E+02  3.01411E+02  1.63580E+03  4.78107E+02  2.39225E+02
  1.82549E+03  1.50389E+02  6.53840E+02  7.95772E+02  5.38794E+02  1.93232E+03  1.13117E+03  1.20367E+03
 -9.36451E+02  2.51178E+03 -2.13008E+03  3.42996E+03 -2.57310E+03  1.34039E+03 -3.67221E+03  1.86370E+02
 -1.06419E+03 -2.58331E+03  4.00390E+02 -4.34204E+03  1.60530E+03 -1.79349E+03  2.66204E+03 -4.78172E+02
  1.70397E+03  1.55841E+03  8.95186E+01  2.18375E+03 -6.46377E+02  1.24736E+03 -1.15661E+03 -3.04693E+02
 -8.48513E+02 -1.32046E+03  7.92260E+02 -1.47130E+03  1.42535E+03 -7.08422E+02  7.16021E+02 -3.04058E+01
  4.18263E+02  2.29685E+02  8.20626E+02  7.20651E+00 -4.73976E+02  2.87017E+02  1.62768E+03 -6.49547E+02
 -5.15265E+02 -2.64502E+02  1.75937E+03  6.96347E+02  1.48352E+02  1.97259E+03 -4.17811E+02  2.43956E+03
 -8.20409E+02  5.89174E+02 -1.08637E+03  7.80088E+02 -1.27568E+03 -9.96921E+02 -4.30762E+02 -4.49547E+02
  2.17002E+02 -8.32399E+02  7.14061E+02 -7.06080E+02  4.92873E+02  1.32889E+03 -8.32188E+02  9.35251E+02
 -1.02955E+03  8.96682E+02 -5.08726E+02 -7.10924E+02 -4.04806E+02 -1.53263E+03  2.36273E+01 -1.06571E+03
  3.68363E+02  1.51808E+01  6.76627E+02  1.23873E+02  1.04406E+03 -1.27911E+02  3.39586E+02  9.15084E+02
 -1.22884E+02 -5.02373E+01 -3.64929E+02  2.03451E+02  5.64569E+02 -3.89094E+02  1.63322E+03 -7.90872E+02
  2.96730E+02 -1.46060E+02  2.16648E+03 -5.47815E+01  1.12573E+03  1.43063E+03 -2.12307E+02  1.13196E+03
 -3.63830E+02  2.15829E+01 -8.35768E+02  2.21613E+02 -2.77028E+02 -1.37420E+03  2.05759E+02  9.84699E+01
  8.26881E+02 -4.65414E+02  6.37194E+02  9.47068E+02 -2.65721E+01  6.45373E+02  4.72901E+02  1.15916E+03
 -4.41567E+02  9.17575E+02 -2.03793E+02  9.21463E+01 -3.13407E+02  3.39837E+02 -8.00874E+02  3.48657E+02
 -9.25550E+02  8.60599E+02 -1.13319E+03 -2.55682E+02 -1.13806E+03  3.74065E+02 -1.25015E+03 -4.69541E+02
 -3.59011E+02 -1.67664E+03  3.31562E+02 -2.43395E+03  7.20385E+02 -1.66782E+03  1.91411E+03 -7.09948E+02
  1.96298E+03 -4.43376E+01  6.83551E+02  1.35417E+03 -3.06265E+02  8.82469E+02 -5.75308E+02  1.31834E+03
 -9.62085E+02 -1.73736E+02 -1.88103E+02 -8.05531E+02 -2.31763E+02  7.34283E+02 -1.01085E+03  2.86900E+02
 -6.70662E+02 -1.71935E+02 -8.17585E+02  5.54705E+02 -8.90467E+01 -2.72292E+02 -9.48864E+01 -9.31091E+02
  1.16712E+03 -3.19882E+02  1.45687E+02 -2.92621E+01  1.32313E+03  8.11744E+02 -5.32437E+02  1.14891E+03
 -6.84621E+02  1.56432E+03 -1.24165E+03  9.16815E+02 -7.87320E+02 -2.66065E+02 -5.82317E+02 -1.14804E+03
 -1.01043E+03 -8.49312E+02 -1.07599E+00 -4.42933E+02  2.10600E+02 -6.05872E+02  4.68678E+02  6.90966E+02
  7.14405E+02  2.76353E+02  2.31540E+02 -5.69275E+01 -5.58008E+02  5.94822E+02 -1.30676E+01  1.47049E+02
  3.73268E+02  5.18204E+02 -4.39576E+02  4.60806E+02 -7.47719E+02  5.25325E+02  3.32588E+02 -2.51284E+02
 -1.43237E+01  8.03059E+02 -4.21499E+01 -1.01658E+02 -4.80825E+02 -2.38818E+02 -6.95720E+01 -8.45631E+02
  1.26058E+02  8.24849E+01  5.52715E+02 -7.27365E+02 -5.89710E+01 -8.98452E+02  2.22319E+02 -2.94709E+01
  3.24744E+02  5.53577E+02  5.53148E+02  4.66276E+02 -2.98937E+02  4.20697E+02  2.69070E+02  7.69231E+01
 -4.02529E+02 -4.44602E+02 -6.97099E+02  2.98816E+02 -3.40998E+02 -2.65103E+01 -7.62163E+02  4.60563E+01
 -7.80252E+02  8.73069E+02 -1.86865E+02 -7.59756E+02  8.27359E+02 -1.16874E+03  3.08014E+02  4.29070E+02
 -3.97506E+02  1.75996E+02 -3.43571E+02 -1.75329E+02 -1.93324E+02  8.08978E+01 -2.81213E+02  5.54069E+02
