 $NMID ID='MM_0lb_SNR400_8hz_g60_80.RAW', FMTDAT='(8E13.5)'
 TRAMP=1., VOLUME=1. $END
  3.10644E+05  5.96349E+02  3.38095E+05  2.50857E+05  8.55158E+04  3.38837E+05 -1.32949E+05  2.51961E+05
 -1.91001E+05  8.42917E+04 -1.12429E+05 -3.18507E+04 -7.68447E+01 -5.05545E+04  5.34704E+04 -1.01473E+03
  3.66612E+04  5.22998E+04 -1.61461E+04  7.57328E+04 -6.13482E+04  6.54348E+04 -8.59530E+04  3.33874E+04
 -8.30779E+04 -1.23913E+04 -5.83791E+04 -5.28160E+04 -1.62453E+04 -7.09456E+04  2.92095E+04 -4.65044E+04
  4.20873E+04  3.59667E+03  1.71719E+04  4.94865E+04 -3.42764E+04  4.87352E+04 -6.80699E+04  1.29735E+02
 -5.56847E+04 -5.83526E+04 -8.05433E+03 -8.00136E+04  3.50667E+04 -5.76065E+04  5.06360E+04 -1.84543E+04
  4.60516E+04  1.03256E+04  3.26831E+04  2.77340E+04  1.54642E+04  3.05782E+04 -5.66328E+03  2.84775E+04
 -2.26235E+04  1.19225E+04 -1.76118E+04 -5.57347E+03  7.51346E+03 -6.79293E+03  2.52565E+04  1.44749E+04
  6.98467E+03  3.81931E+04 -3.38032E+04  3.86021E+04 -6.68784E+04  2.35045E+03 -5.98586E+04 -4.40293E+04
 -1.32006E+04 -6.71845E+04  4.24175E+04 -4.94274E+04  6.27637E+04 -2.31910E+03  3.84215E+04  3.58772E+04
 -5.17177E+03  4.07334E+04 -3.27412E+04  2.06520E+04 -3.45832E+04 -3.17040E+03 -2.00792E+04 -1.26949E+04
 -9.81225E+03 -1.51293E+04  4.61020E+01 -2.04001E+04  9.04581E+03 -2.44053E+04  1.59281E+04 -1.19851E+04
  1.05468E+04  6.36928E+03 -1.18368E+04  1.29976E+04 -2.38044E+04 -7.03165E+03 -8.19674E+03 -3.86966E+04
  2.56291E+04 -4.92130E+04  5.41131E+04 -2.16989E+04  4.95805E+04  2.16531E+04  1.81363E+04  4.78699E+04
 -1.68477E+04  3.68885E+04 -2.79239E+04  3.01401E+03 -1.26001E+04 -3.00949E+04  2.07234E+04 -3.85845E+04
  4.64865E+04 -1.22403E+04  4.32708E+04  2.45305E+04  2.24001E+04  5.35595E+04 -8.52837E+03  5.87595E+04
 -3.65263E+04  4.01723E+04 -5.03270E+04  1.21747E+04 -4.96063E+04 -1.94683E+04 -2.73528E+04 -4.34848E+04
  7.99247E+03 -4.34699E+04  3.63896E+04 -1.73242E+04  3.26896E+04  1.08895E+04  5.11690E+03  2.15701E+04
 -1.51385E+04  1.03550E+04 -1.08654E+04 -7.06585E+03  5.64588E+03 -1.11312E+04  1.96204E+04  5.96873E+03
  1.42492E+04  2.27463E+04 -5.10909E+03  2.75167E+04 -2.46215E+04  1.57418E+04 -3.26472E+04 -2.26404E+03
 -2.69034E+04 -1.89591E+04 -1.32229E+04 -2.75451E+04  4.48018E+03 -2.88932E+04  2.19182E+04 -2.53268E+04
  3.58765E+04 -1.44273E+04  4.00939E+04  5.47961E+03  2.80488E+04  2.52203E+04  5.02402E+03  4.36014E+04
 -2.08898E+04  3.59733E+04 -3.26635E+04  1.35203E+04 -2.31769E+04 -1.00912E+04 -5.28183E+03 -1.26719E+04
  3.01996E+02  5.58183E+01 -8.13456E+03  9.13227E+03 -2.15570E+04  4.64931E+03 -2.15670E+04 -1.14732E+04
 -1.33001E+04 -2.55356E+04  6.67303E+03 -2.88062E+04  1.99882E+04 -2.08226E+04  2.51888E+04 -1.74409E+03
  1.56925E+04  1.76828E+04 -8.06706E+02  2.56161E+04 -1.78976E+04  1.44187E+04 -2.49528E+04 -5.74849E+03
 -1.82141E+04 -2.27881E+04 -1.91585E+03 -3.08569E+04  1.34717E+04 -2.58568E+04  2.45274E+04 -1.35228E+04
  2.43293E+04  9.46793E+00  1.74196E+04  5.65644E+03  9.79553E+03  1.95493E+03  1.32910E+04 -1.94944E+03
  2.41146E+04  2.74798E+03  2.84707E+04  1.95122E+04  1.94976E+04  4.07852E+04 -2.88492E+03  4.88842E+04
 -2.74215E+04  4.07117E+04 -4.53464E+04  2.21167E+04 -4.96311E+04 -3.91023E+03 -3.99315E+04 -2.93390E+04
 -1.64804E+04 -4.15644E+04  1.44545E+04 -3.58703E+04  3.11387E+04 -1.67004E+04  2.62985E+04  8.99065E+03
  8.76568E+03  2.20434E+04 -1.22048E+04  1.62161E+04 -2.20013E+04  2.97429E+03 -1.61924E+04 -1.43290E+04
 -3.96691E+02 -2.07615E+04  1.15156E+04 -1.51726E+04  1.48550E+04 -3.72372E+02  4.27841E+03  1.00507E+04
 -9.54169E+03  3.27287E+03 -1.01608E+04 -8.11867E+03 -1.50510E+03 -1.92785E+04  1.23170E+04 -2.28691E+04
  2.64191E+04 -1.22472E+04  3.00537E+04  3.46733E+03  2.62741E+04  2.05439E+04  1.22721E+04  3.28742E+04
 -6.31263E+03  3.59002E+04 -2.35979E+04  2.14820E+04 -2.58492E+04  4.77864E+03 -1.72117E+04 -7.07344E+03
 -6.58030E+03 -8.23096E+03 -1.31086E+03  4.34471E+02 -3.10491E+03  2.84632E+03 -8.37291E+03  6.68530E+03
 -1.59598E+04 -6.61604E+02 -1.59936E+04 -1.30705E+04 -6.27127E+03 -2.05642E+04  6.84308E+03 -1.81264E+04
  1.45606E+04 -7.00898E+03  1.01148E+04  4.91683E+03 -5.42027E+01  6.41049E+03 -9.15118E+03  1.10708E+02
 -8.56758E+03 -1.13532E+04 -7.22059E+02 -1.80879E+04  9.84297E+03 -1.87725E+04  2.23445E+04 -1.01213E+04
  2.67578E+04  3.14899E+03  1.92750E+04  1.59212E+04  3.54501E+03  2.23668E+04 -1.05069E+04  1.71193E+04
 -1.42687E+04  5.22874E+03 -7.33270E+03 -4.50812E+03  2.05713E+03 -4.19515E+03  8.65578E+03 -1.22889E+03
  8.51127E+03  7.25176E+03  1.85285E+03  1.46455E+04 -9.99101E+03  1.30759E+04 -1.76139E+04  3.33934E+03
 -1.24300E+04 -9.51464E+03  6.88445E+02 -1.48915E+04  9.73744E+03 -8.13509E+03  1.06962E+04  4.04789E+03
  2.67001E+03  1.07759E+04 -7.96284E+03  1.33340E+04 -1.58190E+04  5.68209E+03 -1.64657E+04 -6.07205E+03
 -9.27143E+03 -1.86678E+04  4.72471E+03 -2.15190E+04  1.81370E+04 -1.32154E+04  2.04803E+04  3.70482E+03
  1.20363E+04  1.52933E+04 -2.96862E+03  1.81650E+04 -1.37297E+04  1.00109E+04 -1.55204E+04 -1.42438E+03
 -1.13595E+04 -1.14623E+04 -1.46099E+03 -1.38703E+04  8.01812E+03 -1.05721E+04  9.05128E+03 -3.73826E+03
  5.65084E+03  3.11216E+03 -1.55053E+03  2.76971E+03 -8.05428E+02 -5.11309E+03  3.60534E+03 -8.90565E+03
  1.37294E+04 -5.88775E+03  1.94484E+04  1.63033E+03  1.89738E+04  1.28353E+04  1.17915E+04  2.44581E+04
 -6.21873E+03  2.77467E+04 -2.46296E+04  2.25703E+04 -3.07652E+04  4.13833E+03 -2.47673E+04 -1.10337E+04
 -1.19570E+04 -2.03440E+04 -9.66011E+02 -1.69276E+04  5.88544E+03 -1.04432E+04  5.91291E+03 -7.03006E+03
  4.86011E+03 -3.00651E+03  4.08506E+03 -3.94980E+03  5.82453E+03 -5.29071E+03  8.99771E+03 -2.08614E+03
  1.24819E+04  2.79650E+03  7.27152E+03  1.07723E+04 -2.49421E+03  1.43886E+04 -1.40821E+04  1.00201E+04
 -1.72677E+04 -1.13620E+03 -1.17159E+04 -1.27266E+04 -1.53704E+03 -1.90754E+04  1.01126E+04 -1.87902E+04
  1.89447E+04 -1.01706E+04  2.31390E+04  3.21010E+03  1.54182E+04  1.58177E+04  2.66245E+03  2.19626E+04
 -8.75687E+03  1.57291E+04 -1.28018E+04  5.60769E+03 -8.49955E+03 -3.18241E+03 -3.58852E+03 -3.01565E+03
 -2.05326E+03 -2.50274E+02 -1.59418E+03  2.39143E+03 -7.00748E+03  3.65251E+03 -1.14881E+04 -1.31281E+03
 -8.99514E+03 -1.17270E+04  3.61519E+02 -1.77857E+04  1.21821E+04 -1.61988E+04  1.82623E+04 -5.13744E+03
  1.72645E+04  8.47968E+03  9.03629E+03  1.59683E+04 -3.27267E+03  1.87636E+04 -1.33883E+04  1.18505E+04
 -1.77662E+04  9.99730E+02 -1.31399E+04 -1.05998E+04 -1.11521E+03 -1.54766E+04  8.09990E+03 -1.11450E+04
  1.18615E+04 -3.36875E+03  6.97432E+03  3.60932E+03  3.61436E+03  5.57361E+03  2.07345E+03  2.35692E+03
  3.47689E+03  9.90765E+02  4.51327E+03  2.43312E+03  5.57944E+03  6.68425E+03  3.70874E+03  9.72656E+03
 -3.26565E+03  1.45662E+04 -1.30550E+04  1.44457E+04 -1.89882E+04  4.25390E+03 -1.94931E+04 -7.41476E+03
 -9.21609E+03 -1.91248E+04  2.67581E+03 -1.93986E+04  1.09816E+04 -1.32405E+04  1.60007E+04 -3.82851E+03
  1.18899E+04  6.82444E+03  3.19853E+03  1.16713E+04 -5.08650E+03  7.55569E+03 -6.73850E+03 -1.65720E+03
 -3.94586E+03 -8.30171E+03  4.22022E+03 -7.50081E+03  8.86283E+03 -3.67996E+03  7.59137E+03  1.06654E+03
  4.32772E+03  4.03195E+03  2.46341E+03  3.49184E+03 -2.92267E+02  3.22349E+03  1.32074E+03  6.05239E+02
  3.05508E+03 -6.20805E+02  7.09436E+03  3.42685E+03  4.64841E+03  1.02570E+04 -1.91227E+03  1.22861E+04
 -8.94290E+03  9.46078E+03 -1.19498E+04  2.60581E+03 -1.01193E+04 -4.60626E+03 -5.36884E+03 -8.05820E+03
  1.11884E+03 -7.79704E+03  5.80829E+03 -3.01015E+03  4.50614E+03  3.47913E+03 -1.65373E+03  7.25954E+03
 -7.33976E+03  4.73169E+03 -8.66675E+03 -4.14914E+03 -5.52732E+03 -9.41075E+03  1.26897E+03 -1.04512E+04
  6.59142E+03 -6.61862E+03  8.05556E+03 -6.34429E+02  5.90857E+03  2.59689E+03  1.17919E+03  5.52985E+03
 -3.81623E+03  1.24419E+03 -5.37344E+03 -3.96894E+03  2.00823E+03 -8.52958E+03  9.12354E+03 -6.74739E+03
  1.20684E+04  3.63039E+02  1.23392E+04  9.15070E+03  3.46553E+03  1.30721E+04 -4.51661E+03  1.16181E+04
 -1.07989E+04  5.46714E+03 -1.09589E+04 -1.78718E+03 -6.24024E+03 -8.65899E+03  1.86784E+03 -8.20586E+03
  8.10353E+03 -3.94360E+03  7.04931E+03  2.50247E+03  2.41366E+03  6.52308E+03 -1.20254E+03  5.10572E+03
 -3.27323E+03  3.13821E+03 -2.44233E+03  8.13039E+02 -1.44736E+03  7.10828E+02 -1.35385E+03  2.86247E+03
 -3.53459E+03  4.89074E+03 -7.76286E+03  4.37324E+03 -1.38280E+04  9.64689E+02 -1.36151E+04 -8.32134E+03
 -7.03995E+03 -1.64211E+04  3.29463E+03 -1.92605E+04  1.28818E+04 -1.58765E+04  1.85774E+04 -5.93062E+03
  1.71249E+04  3.40102E+03  1.04434E+04  1.20589E+04  1.66971E+03  1.41488E+04 -5.04868E+03  1.04747E+04
 -7.58194E+03  3.50246E+03 -4.36385E+03 -8.04008E+02 -9.71234E+02 -2.03482E+03 -2.55236E+02 -1.75645E+02
 -1.78285E+03  2.71271E+01 -3.65752E+03  4.17725E+02 -1.24820E+03 -3.43680E+03  2.83950E+02 -5.17948E+03
  6.53710E+03 -4.30932E+03  8.19582E+03  2.75160E+02  9.47367E+03  7.15020E+03  2.71672E+03  1.42422E+04
 -5.47727E+03  1.56741E+04 -1.34136E+04  9.18961E+03 -1.64282E+04 -7.09959E+02 -1.18407E+04 -9.97812E+03
 -4.88715E+03 -1.44091E+04  4.59917E+03 -1.25030E+04  8.66876E+03 -7.35577E+03  9.12973E+03 -9.65943E+01
  5.21741E+03  3.46178E+03 -6.55026E+02  3.04059E+03 -2.49529E+03 -5.71636E+02  3.15148E+01 -2.36144E+03
  3.91557E+03 -2.30759E+03  5.93013E+03  1.72172E+03  3.34849E+03  5.39012E+03 -4.49143E+02  6.62897E+03
 -6.04471E+03  6.36021E+03 -9.15938E+03  7.03805E+02 -7.89129E+03 -7.31076E+03 -1.70042E+03 -1.14669E+04
  6.58933E+03 -1.05634E+04  1.06797E+04 -2.61117E+03  1.04214E+04  3.09466E+03  5.84714E+03  8.61148E+03
  8.18153E+02  8.58459E+03 -3.67679E+03  7.24128E+03 -5.65653E+03  4.29343E+03 -4.82120E+03  2.21281E+02
 -2.74698E+03 -1.06976E+03 -3.16823E+03  1.65251E+03 -5.40274E+03  1.89024E+03 -6.94197E+03 -6.17861E+02
 -7.01825E+03 -5.52043E+03 -2.21887E+03 -8.96778E+03  4.24421E+03 -1.04086E+04  8.60503E+03 -4.18723E+03
  8.72078E+03  4.79172E+02  5.26822E+03  7.00753E+03 -2.19174E+02  9.94723E+03 -7.67835E+03  6.03820E+03
