 $NMID ID='MM_0lb_SNR400_9hz_g40_66.RAW', FMTDAT='(8E13.5)'
 TRAMP=1., VOLUME=1. $END
  3.10400E+05 -3.97369E+02  3.38084E+05  2.50910E+05  8.52632E+04  3.38266E+05 -1.33348E+05  2.51887E+05
 -1.91788E+05  8.32631E+04 -1.11924E+05 -3.30860E+04  1.79885E+02 -5.05823E+04  5.38462E+04 -2.89565E+02
  3.54180E+04  5.32076E+04 -1.66554E+04  7.61890E+04 -6.17849E+04  6.43285E+04 -8.52202E+04  3.24004E+04
 -8.17978E+04 -1.16454E+04 -5.81109E+04 -5.10927E+04 -1.53268E+04 -7.14063E+04  2.78703E+04 -4.61039E+04
  4.12288E+04  3.91041E+03  1.60925E+04  4.85458E+04 -3.48828E+04  4.81982E+04 -6.74061E+04 -1.90901E+02
 -5.42351E+04 -5.72958E+04 -7.73246E+03 -7.78689E+04  3.46870E+04 -5.69641E+04  4.98158E+04 -1.80354E+04
  4.48903E+04  1.20357E+04  3.21068E+04  2.61081E+04  1.61613E+04  3.12730E+04 -6.88632E+03  2.75172E+04
 -2.15512E+04  1.23528E+04 -1.82821E+04 -5.44463E+03  7.15134E+03 -7.39463E+03  2.36477E+04  1.34391E+04
  6.90990E+03  3.60371E+04 -3.29177E+04  3.76496E+04 -6.58398E+04  1.15446E+03 -5.80327E+04 -4.42437E+04
 -1.29448E+04 -6.51594E+04  4.11961E+04 -4.67935E+04  6.15987E+04 -1.46902E+03  3.58306E+04  3.41286E+04
 -5.84899E+03  3.89241E+04 -3.23445E+04  1.79958E+04 -3.28031E+04 -3.36883E+03 -1.84579E+04 -1.14723E+04
 -8.33922E+03 -1.46785E+04 -5.42334E+02 -1.95040E+04  8.21836E+03 -2.36593E+04  1.58943E+04 -1.26360E+04
  1.07198E+04  5.55398E+03 -1.05481E+04  1.38081E+04 -2.24254E+04 -6.54740E+03 -9.05508E+03 -3.71947E+04
  2.44380E+04 -4.59652E+04  5.05088E+04 -2.02169E+04  4.83534E+04  2.11213E+04  1.64416E+04  4.71518E+04
 -1.67142E+04  3.49224E+04 -2.72978E+04  2.68695E+03 -1.16997E+04 -2.90097E+04  2.12267E+04 -3.59945E+04
  4.39230E+04 -1.15815E+04  3.91561E+04  2.51906E+04  2.04103E+04  5.04978E+04 -7.94065E+03  5.50325E+04
 -3.45584E+04  3.71107E+04 -4.69081E+04  1.10702E+04 -4.66946E+04 -1.80283E+04 -2.54245E+04 -4.12372E+04
  7.77602E+03 -4.13784E+04  3.34767E+04 -1.68682E+04  3.21876E+04  1.07855E+04  5.43318E+03  2.00322E+04
 -1.47979E+04  1.03058E+04 -1.13058E+04 -7.31556E+03  5.49677E+03 -1.14196E+04  1.86089E+04  6.10363E+03
  1.42139E+04  2.25249E+04 -6.15199E+03  2.70453E+04 -2.38780E+04  1.36685E+04 -3.06722E+04 -3.28224E+03
 -2.47656E+04 -1.84063E+04 -1.09656E+04 -2.49673E+04  4.23674E+03 -2.47336E+04  1.83179E+04 -2.18873E+04
  3.11101E+04 -1.42418E+04  3.65662E+04  4.03371E+03  2.61998E+04  2.41321E+04  5.09876E+03  4.03987E+04
 -1.87963E+04  3.31495E+04 -2.91134E+04  1.15045E+04 -2.19866E+04 -1.05606E+04 -4.64364E+03 -1.37156E+04
 -1.45982E+02 -9.78467E+02 -7.38109E+03  8.65824E+03 -2.01662E+04  4.88721E+03 -1.98058E+04 -9.45628E+03
 -1.13546E+04 -2.27588E+04  5.50002E+03 -2.69758E+04  1.76793E+04 -1.90344E+04  2.17163E+04 -1.59606E+03
  1.39279E+04  1.66834E+04 -1.32537E+03  2.27782E+04 -1.70428E+04  1.35045E+04 -2.30624E+04 -4.33840E+03
 -1.71935E+04 -2.07105E+04 -1.35506E+03 -2.60992E+04  1.23868E+04 -2.31366E+04  2.29232E+04 -1.08172E+04
  2.09715E+04 -9.92992E+02  1.51251E+04  5.31923E+03  9.38416E+03  1.27930E+03  1.15501E+04 -1.80226E+03
  2.22015E+04  2.77267E+03  2.41250E+04  1.82975E+04  1.65829E+04  3.57269E+04 -3.15279E+03  4.24310E+04
 -2.48209E+04  3.55522E+04 -3.96386E+04  1.79902E+04 -4.22719E+04 -2.44823E+03 -3.52734E+04 -2.49833E+04
 -1.45765E+04 -3.55173E+04  1.35202E+04 -3.09218E+04  2.68130E+04 -1.47687E+04  2.35856E+04  7.14672E+03
  7.85865E+03  1.77488E+04 -1.05608E+04  1.47537E+04 -1.95417E+04  2.42911E+03 -1.46583E+04 -1.28681E+04
 -7.93047E+02 -1.79116E+04  9.13905E+03 -1.32142E+04  1.26236E+04 -1.37607E+03  3.23486E+03  7.99207E+03
 -7.91473E+03  3.64532E+03 -8.73769E+03 -6.11404E+03 -1.67138E+03 -1.71806E+04  1.16955E+04 -1.90461E+04
  2.18990E+04 -9.92345E+03  2.47008E+04  3.09069E+03  2.18247E+04  1.79134E+04  9.91754E+03  2.65392E+04
 -5.03590E+03  3.02799E+04 -1.93047E+04  1.81255E+04 -2.16645E+04  4.07459E+03 -1.47163E+04 -5.61873E+03
 -5.81956E+03 -6.98106E+03 -8.84230E+02  2.94302E+02 -2.89344E+03  3.56555E+03 -6.85007E+03  5.54508E+03
 -1.42806E+04 -4.72309E+02 -1.36556E+04 -1.11224E+04 -5.72738E+03 -1.79617E+04  6.23717E+03 -1.50353E+04
  1.21943E+04 -6.29888E+03  8.41426E+03  4.73342E+03 -3.65374E+02  6.00314E+03 -6.98983E+03 -5.33130E+02
 -6.89126E+03 -9.71570E+03 -1.87957E+03 -1.48581E+04  8.86511E+03 -1.57172E+04  1.91216E+04 -8.48654E+03
  2.25694E+04  2.52677E+03  1.68704E+04  1.29353E+04  2.43844E+03  1.81658E+04 -9.78983E+03  1.48195E+04
 -1.11533E+04  3.92782E+03 -6.20418E+03 -3.13884E+03  2.37954E+03 -4.20003E+03  7.75026E+03 -1.13656E+03
  7.55659E+03  7.05346E+03  1.07795E+03  1.25513E+04 -8.53706E+03  1.10087E+04 -1.42882E+04  2.63170E+03
 -1.02834E+04 -7.98428E+03  1.93480E+02 -1.24670E+04  8.01143E+03 -6.62660E+03  8.64393E+03  3.76945E+03
  1.55560E+03  9.10053E+03 -7.41090E+03  1.12336E+04 -1.26222E+04  4.47243E+03 -1.30429E+04 -4.74279E+03
 -7.46911E+03 -1.51042E+04  3.47317E+03 -1.65450E+04  1.51164E+04 -1.00339E+04  1.59619E+04  3.11569E+03
  9.74392E+03  1.21481E+04 -1.93420E+03  1.53753E+04 -1.12689E+04  8.73360E+03 -1.24461E+04 -1.52134E+03
 -1.05352E+04 -9.92135E+03 -5.87224E+02 -1.23782E+04  5.71361E+03 -8.97489E+03  7.75476E+03 -3.87947E+03
  4.79169E+03  2.00280E+03 -1.01379E+03  1.84642E+03 -9.09887E+02 -3.02264E+03  3.39307E+03 -6.51918E+03
  1.11867E+04 -4.69358E+03  1.65154E+04  1.21031E+03  1.46974E+04  1.04630E+04  8.96096E+03  1.99679E+04
 -4.20885E+03  2.27741E+04 -1.93267E+04  1.69925E+04 -2.37541E+04  3.16770E+03 -1.99320E+04 -8.72116E+03
 -9.88703E+03 -1.59703E+04 -2.69893E+02 -1.33569E+04  5.87617E+03 -7.54249E+03  5.06796E+03 -4.15278E+03
  3.25638E+03 -3.03816E+03  3.59507E+03 -3.49282E+03  6.35328E+03 -3.23638E+03  7.57612E+03 -1.59265E+03
  1.00367E+04  2.42285E+03  6.31766E+03  8.87823E+03 -1.44035E+03  1.06572E+04 -1.10048E+04  9.25515E+03
 -1.37639E+04 -1.70202E+03 -8.69430E+03 -9.59459E+03 -4.56588E+02 -1.49957E+04  8.72742E+03 -1.47023E+04
  1.56586E+04 -8.33103E+03  1.93418E+04  1.91635E+03  1.23550E+04  1.33813E+04  2.02967E+03  1.74818E+04
 -6.67040E+03  1.30199E+04 -8.83275E+03  4.41163E+03 -6.06181E+03 -1.43331E+03 -2.24120E+03 -1.74326E+03
 -6.68300E+02  1.72987E+02 -2.88739E+03  3.57799E+03 -5.78971E+03  1.93424E+03 -9.47692E+03 -1.89198E+03
 -6.86225E+03 -9.79460E+03 -3.03390E+02 -1.28522E+04  7.83860E+03 -1.28161E+04  1.41935E+04 -3.16955E+03
  1.38378E+04  6.99644E+03  6.99668E+03  1.28350E+04 -3.72351E+03  1.39723E+04 -9.63863E+03  8.44326E+03
 -1.28359E+04  1.13800E+03 -9.85579E+03 -8.22555E+03 -1.06543E+03 -1.15179E+04  5.88124E+03 -8.54334E+03
  8.32572E+03 -3.66586E+03  6.64092E+03  2.15478E+03  2.54074E+03  4.29750E+03  1.88359E+03  2.00266E+03
  2.49694E+03  1.94983E+03  4.15892E+03  1.16857E+03  4.74594E+03  4.28399E+03  4.79962E+03  7.75616E+03
 -2.60774E+03  1.11555E+04 -9.91763E+03  1.04480E+04 -1.38965E+04  3.21330E+03 -1.44617E+04 -5.90555E+03
 -7.41561E+03 -1.39098E+04  3.05627E+03 -1.53551E+04  8.78634E+03 -9.57664E+03  1.15880E+04 -2.72296E+03
  9.14590E+03  5.71413E+03  1.44546E+03  7.85393E+03 -4.42400E+03  5.19067E+03 -5.74476E+03 -9.48057E+02
 -2.40029E+03 -6.11282E+03  3.85043E+03 -5.44409E+03  6.43710E+03 -2.92476E+03  5.89825E+03  1.53987E+03
  2.90259E+03  3.16852E+03  1.08843E+03  2.71340E+03 -7.93584E+02  2.32800E+03  1.31589E+03 -1.28158E+03
  1.68219E+03 -1.28869E+03  5.82188E+03  2.35732E+03  3.63705E+03  7.51704E+03 -5.61172E+02  9.81954E+03
 -6.90292E+03  6.73489E+03 -8.94157E+03  1.10965E+03 -8.59603E+03 -3.38057E+03 -3.29910E+03 -5.45609E+03
  2.19495E+02 -6.01625E+03  3.47013E+03 -2.22991E+03  3.63134E+03  2.74732E+03 -2.02050E+03  4.88283E+03
 -6.14212E+03  2.68848E+03 -6.47131E+03 -3.18192E+03 -4.09574E+03 -8.19085E+03  1.59360E+03 -8.20984E+03
  5.15475E+03 -4.92871E+03  5.92153E+03 -3.62365E+02  5.01690E+03  2.28003E+03  1.12933E+03  3.86883E+03
 -1.60799E+03  1.18469E+03 -3.98597E+03 -2.45331E+03  1.61582E+03 -6.28989E+03  7.22645E+03 -4.98587E+03
  9.29117E+03  3.96057E+02  8.66232E+03  5.57867E+03  3.10665E+03  9.29498E+03 -2.75413E+03  9.12384E+03
 -8.31168E+03  3.30213E+03 -8.79599E+03 -1.43550E+03 -4.22599E+03 -5.81090E+03  1.11639E+03 -6.71634E+03
  5.96116E+03 -3.37923E+03  5.12771E+03  1.67660E+03  1.87778E+03  5.05795E+03 -1.08064E+03  3.85720E+03
 -2.49599E+03  2.11063E+03 -1.62203E+03  1.05686E+03 -5.38462E+02  3.66063E+02 -2.39487E+03  1.57433E+03
 -2.04640E+03  3.79719E+03 -6.10893E+03  3.17604E+03 -9.53955E+03  6.10024E+02 -1.05760E+04 -6.60107E+03
 -4.89050E+03 -1.20557E+04  2.06442E+03 -1.44943E+04  9.29535E+03 -1.08951E+04  1.33642E+04 -3.68766E+03
  1.17891E+04  3.18344E+03  7.95599E+03  9.34007E+03  5.71706E+02  9.70954E+03 -3.78179E+03  8.03107E+03
 -5.56392E+03  3.57825E+03 -3.34045E+03 -9.90330E+02 -4.89916E+02 -4.64834E+02 -4.39429E+02  1.91417E+01
 -2.31499E+03 -6.48572E+02 -1.93007E+03  4.85346E+02 -4.51707E+02 -2.22535E+03  1.23478E+02 -3.40102E+03
  4.34701E+03 -3.19645E+03  6.14983E+03  1.69068E+02  6.65254E+03  4.79177E+03  1.50175E+03  9.70994E+03
 -4.58002E+03  1.15472E+04 -1.10365E+04  6.95636E+03 -1.22234E+04 -1.20127E+03 -9.18973E+03 -6.85531E+03
 -3.07694E+03 -9.67070E+03  2.15888E+03 -9.29133E+03  6.09057E+03 -5.90562E+03  6.06119E+03  6.09744E+01
  4.17945E+03  3.69174E+03 -1.65704E+02  3.25291E+03 -2.09240E+03  1.60605E+02 -2.94218E+01 -2.68155E+03
  2.75002E+03 -1.44612E+03  3.50249E+03  9.51817E+02  2.29434E+03  3.79731E+03  6.96190E+02  5.17359E+03
 -3.54443E+03  3.98878E+03 -7.18630E+03  8.66795E+02 -5.89363E+03 -4.96770E+03 -7.22938E+02 -8.16057E+03
  4.37996E+03 -7.30286E+03  7.74865E+03 -2.61076E+03  7.49999E+03  1.58395E+03  3.83485E+03  5.93218E+03
  7.02542E+02  7.26280E+03 -1.80330E+03  5.58133E+03 -3.49340E+03  2.34102E+03 -4.43929E+03  2.34687E+02
 -1.38215E+03 -4.03644E+02 -2.33628E+03  1.48213E+03 -3.50551E+03  9.59060E+02 -4.27267E+03 -1.09637E+03
 -5.02664E+03 -4.23216E+03 -1.25932E+03 -6.85160E+03  3.23591E+03 -7.47360E+03  6.28349E+03 -3.26982E+03
  6.16373E+03  8.11339E+02  3.25080E+03  4.57367E+03 -7.07376E+02  6.84521E+03 -4.56284E+03  3.72173E+03
