 $NMID ID='MM_0lb_SNR400_12hz_g60_88.RAW', FMTDAT='(8E13.5)'
 TRAMP=1., VOLUME=1. $END
  3.09814E+05  7.46807E+02  3.37659E+05  2.50313E+05  8.47315E+04  3.37798E+05 -1.32497E+05  2.51759E+05
 -1.90509E+05  8.43741E+04 -1.12512E+05 -3.23810E+04  8.33611E+02 -5.04357E+04  5.38508E+04  8.30323E+01
  3.49778E+04  5.29751E+04 -1.60020E+04  7.64256E+04 -6.09821E+04  6.46211E+04 -8.57644E+04  3.24804E+04
 -8.24372E+04 -1.16900E+04 -5.72640E+04 -5.21876E+04 -1.49711E+04 -7.02775E+04  2.79768E+04 -4.62788E+04
  4.07411E+04  4.28487E+03  1.67984E+04  4.85483E+04 -3.47083E+04  4.80798E+04 -6.84303E+04 -1.19720E+03
 -5.45672E+04 -5.78890E+04 -7.06634E+03 -7.89516E+04  3.54592E+04 -5.65908E+04  4.95466E+04 -1.78364E+04
  4.50774E+04  1.16825E+04  3.27288E+04  2.58476E+04  1.56448E+04  2.99224E+04 -5.62391E+03  2.76033E+04
 -2.27796E+04  1.18305E+04 -1.81605E+04 -5.74088E+03  6.55049E+03 -7.66294E+03  2.27963E+04  1.36663E+04
  6.65362E+03  3.73719E+04 -3.33682E+04  3.68547E+04 -6.44933E+04  2.85503E+03 -5.82977E+04 -4.39947E+04
 -1.24476E+04 -6.52198E+04  4.06850E+04 -4.73020E+04  6.03528E+04 -2.69802E+03  3.56723E+04  3.31002E+04
 -5.32514E+03  3.92074E+04 -3.16120E+04  1.71235E+04 -3.24587E+04 -3.94586E+03 -1.84346E+04 -1.20775E+04
 -9.07742E+03 -1.43374E+04 -6.25489E+02 -1.95069E+04  8.09301E+03 -2.30862E+04  1.53851E+04 -1.26180E+04
  1.06721E+04  4.98903E+03 -9.98655E+03  1.27026E+04 -2.24282E+04 -5.53611E+03 -8.40133E+03 -3.62046E+04
  2.42083E+04 -4.58856E+04  5.13657E+04 -2.04779E+04  4.79414E+04  2.00923E+04  1.71600E+04  4.59942E+04
 -1.67923E+04  3.43825E+04 -2.69808E+04  2.18882E+03 -1.10370E+04 -2.92889E+04  2.14286E+04 -3.60010E+04
  4.32733E+04 -1.02633E+04  3.92664E+04  2.46565E+04  2.05510E+04  4.92028E+04 -8.54120E+03  5.42059E+04
 -3.51676E+04  3.66939E+04 -4.52404E+04  1.11072E+04 -4.59350E+04 -1.84657E+04 -2.53751E+04 -4.13044E+04
  7.88459E+03 -3.99952E+04  3.29722E+04 -1.59925E+04  3.12563E+04  1.13608E+04  5.02332E+03  2.09289E+04
 -1.40338E+04  9.72345E+03 -1.04436E+04 -7.43040E+03  5.79592E+03 -1.09827E+04  1.90061E+04  5.33785E+03
  1.39512E+04  2.27417E+04 -5.45362E+03  2.62261E+04 -2.33547E+04  1.35383E+04 -3.01866E+04 -3.75740E+03
 -2.39076E+04 -1.74694E+04 -1.00996E+04 -2.34260E+04  4.77951E+03 -2.38877E+04  1.83068E+04 -2.17397E+04
  2.94579E+04 -1.37808E+04  3.68709E+04  4.23538E+03  2.61320E+04  2.25663E+04  5.03181E+03  3.98532E+04
 -1.90758E+04  3.27773E+04 -3.02692E+04  1.19209E+04 -2.20828E+04 -1.02028E+04 -4.35756E+03 -1.28523E+04
  1.45822E+03 -1.23564E+03 -7.39617E+03  7.59622E+03 -1.90239E+04  5.17463E+03 -1.88293E+04 -8.44646E+03
 -1.11420E+04 -2.14749E+04  6.12088E+03 -2.55079E+04  1.75870E+04 -1.89451E+04  2.12641E+04 -2.16077E+03
  1.36804E+04  1.51694E+04 -1.32419E+03  2.23559E+04 -1.51543E+04  1.23030E+04 -2.18759E+04 -3.94825E+03
 -1.64627E+04 -1.97610E+04 -1.87362E+03 -2.56728E+04  1.14153E+04 -2.17827E+04  2.15224E+04 -1.00740E+04
  2.00382E+04 -1.31565E+02  1.49112E+04  4.80669E+03  8.20924E+03  1.14414E+03  1.09959E+04 -1.50496E+03
  1.97512E+04  2.67452E+03  2.31296E+04  1.66936E+04  1.48335E+04  3.52122E+04 -2.95318E+03  4.05460E+04
 -2.34427E+04  3.28989E+04 -3.83752E+04  1.74229E+04 -4.03598E+04 -3.14526E+03 -3.29208E+04 -2.34184E+04
 -1.33950E+04 -3.37307E+04  1.11150E+04 -2.95356E+04  2.54407E+04 -1.45720E+04  2.23356E+04  7.12059E+03
  8.52555E+03  1.68925E+04 -1.08735E+04  1.43312E+04 -1.79801E+04  2.11641E+03 -1.44458E+04 -1.14749E+04
  3.12774E+02 -1.79491E+04  9.39208E+03 -1.37794E+04  1.25299E+04 -1.10028E+03  3.15030E+03  8.04697E+03
 -7.97301E+03  3.22871E+03 -7.29994E+03 -6.77136E+03 -1.41445E+03 -1.62275E+04  1.08248E+04 -1.69738E+04
  1.99360E+04 -9.66910E+03  2.31908E+04  3.24616E+03  2.00575E+04  1.56517E+04  9.33952E+03  2.48266E+04
 -4.68165E+03  2.78090E+04 -1.79579E+04  1.70624E+04 -1.96430E+04  3.32633E+03 -1.34838E+04 -5.15969E+03
 -6.60647E+03 -7.20241E+03 -9.91917E+01  8.10228E+02 -2.19051E+03  3.19699E+03 -6.58560E+03  5.48933E+03
 -1.23606E+04 -4.20703E+02 -1.32266E+04 -1.08316E+04 -4.74073E+03 -1.70718E+04  5.24454E+03 -1.37487E+04
  1.11808E+04 -6.35991E+03  7.43251E+03  3.82598E+03 -2.97535E+02  6.05585E+03 -7.23898E+03 -9.17875E+01
 -6.75144E+03 -8.47933E+03 -1.20717E+03 -1.29470E+04  7.82692E+03 -1.38559E+04  1.67303E+04 -7.46927E+03
  2.05370E+04  2.13451E+03  1.50940E+04  1.27276E+04  3.27396E+03  1.64622E+04 -8.59910E+03  1.37258E+04
 -1.15821E+04  3.85062E+03 -5.28506E+03 -2.95299E+03  1.97007E+03 -3.38824E+03  7.25251E+03 -1.20994E+03
  6.92708E+03  6.38735E+03  8.17768E+02  1.14884E+04 -7.51955E+03  1.02749E+04 -1.30726E+04  2.20996E+03
 -9.58583E+03 -6.49126E+03  3.37973E+02 -1.14932E+04  7.58187E+03 -6.20633E+03  8.06516E+03  1.98865E+03
  1.99157E+03  7.96814E+03 -6.59096E+03  1.02817E+04 -1.03498E+04  3.77568E+03 -1.12016E+04 -3.39468E+03
 -6.70708E+03 -1.33262E+04  3.26381E+03 -1.56539E+04  1.26915E+04 -8.55581E+03  1.37760E+04  2.22564E+03
  8.35625E+03  1.10778E+04 -1.67404E+03  1.30092E+04 -9.22753E+03  7.72378E+03 -1.07959E+04 -1.16054E+03
 -9.33517E+03 -8.75098E+03 -1.13504E+03 -1.01221E+04  4.46930E+03 -8.32491E+03  6.06207E+03 -3.58252E+03
  4.24443E+03  1.40159E+03 -9.66381E+01  2.43706E+03 -8.30538E+01 -2.26223E+03  2.00436E+03 -5.87139E+03
  9.71371E+03 -3.76920E+03  1.31862E+04  1.51485E+03  1.24617E+04  8.03502E+03  8.72689E+03  1.74130E+04
 -3.73038E+03  1.93631E+04 -1.55547E+04  1.43159E+04 -2.15918E+04  2.90854E+03 -1.74600E+04 -7.20148E+03
 -8.99871E+03 -1.34612E+04  1.84579E+02 -1.11191E+04  4.18951E+03 -6.20159E+03  4.49571E+03 -4.20307E+03
  2.76123E+03 -2.75729E+03  3.61815E+03 -3.61078E+03  5.19193E+03 -2.52167E+03  6.99605E+03 -5.13370E+02
  8.90829E+03  8.58825E+02  4.34702E+03  6.57175E+03 -2.46372E+03  8.75992E+03 -9.17447E+03  7.03330E+03
 -1.15218E+04 -8.53460E+02 -7.61123E+03 -8.06475E+03 -1.44310E+02 -1.23421E+04  7.60577E+03 -1.23188E+04
  1.18716E+04 -6.71117E+03  1.52275E+04  1.92233E+03  1.04642E+04  1.01496E+04  1.91892E+03  1.40310E+04
 -5.04790E+03  1.18010E+04 -8.17471E+03  4.47051E+03 -5.25523E+03 -1.30388E+03 -2.10953E+03 -2.19347E+03
 -1.03729E+03 -2.45839E+01 -2.28625E+03  2.21264E+03 -3.98821E+03  2.12736E+03 -7.77443E+03 -1.46513E+03
 -5.63851E+03 -7.77054E+03  5.05403E+02 -1.11087E+04  7.07397E+03 -1.00353E+04  1.10838E+04 -3.06319E+03
  1.07408E+04  5.87972E+03  5.37840E+03  1.02506E+04 -2.40795E+03  1.09747E+04 -7.41136E+03  7.23716E+03
 -1.01018E+04  2.07123E+02 -7.42557E+03 -6.32012E+03 -4.63224E+02 -8.46678E+03  5.01024E+03 -7.09903E+03
  6.74878E+03 -2.39773E+03  4.87043E+03  1.62917E+03  1.74826E+03  3.71820E+03  4.10188E+02  1.69455E+03
  1.84706E+03  3.58299E+02  2.76234E+03  1.74968E+03  3.58829E+03  4.55266E+03  2.77699E+03  5.82633E+03
 -2.84213E+03  8.39582E+03 -7.15635E+03  8.74586E+03 -1.17107E+04  1.84759E+03 -1.15975E+04 -4.32773E+03
 -5.58427E+03 -1.12905E+04  1.87504E+03 -1.19357E+04  6.27829E+03 -7.62935E+03  9.34792E+03 -1.96151E+03
  6.80571E+03  3.59163E+03  1.26175E+03  5.83413E+03 -3.23148E+03  3.83818E+03 -4.95688E+03  7.80468E+01
 -2.31045E+03 -4.31649E+03  2.51218E+03 -4.10592E+03  4.03820E+03 -2.21703E+03  4.36878E+03  4.68980E+02
  2.74330E+03  1.54987E+03  1.44234E+03  1.58057E+03 -2.79021E+02  1.14770E+03  1.38943E+03 -2.44542E+01
  1.42631E+03 -5.10846E+02  4.46916E+03  1.48336E+03  2.39952E+03  5.48306E+03 -1.00272E+03  7.60859E+03
 -5.24103E+03  4.26470E+03 -6.89949E+03  1.17241E+03 -6.09902E+03 -3.04010E+03 -1.86640E+03 -3.81192E+03
  8.96363E+02 -4.20366E+03  2.69129E+03 -1.95061E+03  2.65647E+03  1.97290E+03 -1.50783E+03  2.97448E+03
 -4.05321E+03  1.67332E+03 -5.19788E+03 -2.44405E+03 -2.78803E+03 -6.56858E+03  9.96229E+02 -5.30720E+03
  2.16533E+03 -3.56813E+03  3.13572E+03 -2.28568E+02  3.46357E+03  1.28217E+03  4.73234E+02  3.27335E+03
 -2.36235E+03  3.09432E+02 -2.74526E+03 -1.56122E+03  1.28589E+03 -3.74681E+03  5.21072E+03 -3.42318E+03
  6.41557E+03  2.07958E+02  6.61758E+03  4.94543E+03  2.46560E+03  6.56962E+03 -2.45039E+03  6.50501E+03
 -4.52785E+03  2.38326E+03 -5.53481E+03 -1.06938E+02 -2.92028E+03 -4.48828E+03  1.10912E+03 -3.87653E+03
  4.64664E+03 -2.02090E+03  2.46847E+03  1.89741E+03  8.88127E+02  3.34355E+03 -8.10972E+02  3.55792E+03
 -2.06497E+03  2.70807E+03 -9.75295E+02  2.77814E+02 -4.76230E+02  2.92073E+02 -1.47697E+03  1.35157E+03
 -1.76937E+03  2.13362E+03 -4.27031E+03  1.41363E+03 -6.05532E+03  5.97293E+02 -7.24159E+03 -4.66703E+03
 -4.29590E+03 -8.95325E+03  2.62565E+03 -9.77233E+03  6.33776E+03 -7.29773E+03  9.08110E+03 -2.93354E+03
  8.40006E+03  1.39986E+03  4.75559E+03  5.97096E+03  6.13366E+01  6.09773E+03 -2.52819E+03  4.72028E+03
 -3.16957E+03  2.17794E+03 -2.69242E+03 -8.65588E+02 -2.50671E+02 -2.37512E+02 -1.22519E+03 -1.25085E+01
 -1.55699E+03  5.54919E+02 -1.52877E+03 -2.95011E+02 -5.81720E+02 -1.90683E+03  1.79391E+02 -1.92722E+03
  2.72847E+03 -2.38866E+03  3.84006E+03 -6.69539E+01  4.18644E+03  3.29359E+03  1.02954E+03  6.68131E+03
 -2.55500E+03  7.96825E+03 -7.28793E+03  4.39004E+03 -7.74013E+03 -4.37498E+01 -5.28293E+03 -5.25219E+03
 -1.83817E+03 -5.76968E+03  1.93552E+03 -6.01119E+03  4.39113E+03 -3.29573E+03  3.39411E+03 -5.30411E+01
  2.28209E+03  2.18508E+03 -6.64315E+01  1.98209E+03 -5.59804E+02 -8.81242E+02  3.91366E+02 -1.90320E+03
  1.11046E+03 -1.01462E+03  2.40592E+03  8.94321E+02  1.26879E+03  2.53659E+03  9.24254E+02  3.50655E+03
 -2.90084E+03  2.77665E+03 -4.38657E+03  3.96456E+02 -3.59104E+03 -2.27636E+03 -2.65616E-01 -5.10023E+03
  2.47858E+03 -3.48657E+03  4.50080E+03 -1.38935E+03  4.45977E+03  8.27536E+02  2.58238E+03  3.95589E+03
  5.43283E+02  3.65407E+03 -1.31164E+03  2.21691E+03 -1.98020E+03  2.28385E+03 -2.06824E+03  8.22216E+02
 -1.15273E+03 -2.05651E+02 -1.83379E+03  4.45781E+02 -1.84314E+03  1.25002E+03 -2.93565E+03 -7.88156E+02
 -3.19701E+03 -1.70220E+03 -7.99668E+02 -3.80931E+03  1.93737E+03 -4.17581E+03  2.84324E+03 -2.42619E+03
  3.97433E+03  2.68401E+02  2.11962E+03  2.80254E+03 -1.36848E+02  3.81267E+03 -2.43489E+03  2.96839E+03
