 $NMID ID='MM_0lb_SNR400_13hz_g50_40.RAW', FMTDAT='(8E13.5)'
 TRAMP=1., VOLUME=1. $END
  3.10261E+05  7.93861E+02  3.38069E+05  2.50737E+05  8.47927E+04  3.38355E+05 -1.33261E+05  2.51666E+05
 -1.90404E+05  8.37990E+04 -1.12263E+05 -3.17928E+04  6.96548E+02 -5.03426E+04  5.32328E+04  1.35261E+02
  3.54006E+04  5.29605E+04 -1.69211E+04  7.49309E+04 -6.03678E+04  6.36328E+04 -8.42680E+04  3.22983E+04
 -8.13982E+04 -1.08416E+04 -5.74556E+04 -5.13396E+04 -1.55899E+04 -7.03849E+04  2.73972E+04 -4.52468E+04
  4.03604E+04  3.57593E+03  1.64859E+04  4.80685E+04 -3.42016E+04  4.76604E+04 -6.69915E+04  1.46176E+02
 -5.43969E+04 -5.74848E+04 -6.77660E+03 -7.74166E+04  3.37580E+04 -5.55280E+04  4.86989E+04 -1.81172E+04
  4.34398E+04  1.11774E+04  3.14669E+04  2.54366E+04  1.56304E+04  2.97444E+04 -5.47437E+03  2.72860E+04
 -2.18562E+04  1.31041E+04 -1.90523E+04 -5.44332E+03  6.02149E+03 -6.98930E+03  2.23237E+04  1.20399E+04
  7.64926E+03  3.57613E+04 -3.23193E+04  3.54780E+04 -6.46503E+04  2.00700E+03 -5.76173E+04 -4.27684E+04
 -1.26129E+04 -6.39984E+04  3.98976E+04 -4.60791E+04  5.85150E+04 -2.36225E+03  3.49778E+04  3.27316E+04
 -5.99936E+03  3.65586E+04 -3.00926E+04  1.67673E+04 -3.10296E+04 -3.90910E+03 -1.76889E+04 -1.19119E+04
 -8.76887E+03 -1.39600E+04 -7.96435E+02 -1.82743E+04  7.78785E+03 -2.30367E+04  1.57264E+04 -1.30570E+04
  1.08257E+04  5.39003E+03 -8.77747E+03  1.34250E+04 -2.07573E+04 -5.02222E+03 -8.29853E+03 -3.48859E+04
  2.36509E+04 -4.41137E+04  4.83128E+04 -1.97910E+04  4.62312E+04  2.01223E+04  1.63989E+04  4.47796E+04
 -1.56113E+04  3.41665E+04 -2.57055E+04  2.12778E+03 -1.06781E+04 -2.81873E+04  2.12779E+04 -3.46503E+04
  4.20682E+04 -1.01944E+04  3.69477E+04  2.47790E+04  1.87594E+04  4.70013E+04 -9.06320E+03  5.09914E+04
 -3.26782E+04  3.56088E+04 -4.31011E+04  9.18681E+03 -4.36788E+04 -1.70431E+04 -2.38060E+04 -3.87614E+04
  7.28207E+03 -3.87050E+04  3.15485E+04 -1.51342E+04  2.93618E+04  1.09599E+04  4.54742E+03  1.97484E+04
 -1.37666E+04  8.56188E+03 -1.07054E+04 -7.49627E+03  5.57049E+03 -1.08862E+04  1.82741E+04  5.84877E+03
  1.40012E+04  2.27987E+04 -5.81980E+03  2.52801E+04 -2.20712E+04  1.22574E+04 -2.91275E+04 -4.56478E+03
 -2.23400E+04 -1.79081E+04 -9.14850E+03 -2.10654E+04  3.87769E+03 -2.12891E+04  1.68431E+04 -1.83367E+04
  2.74913E+04 -1.33288E+04  3.36040E+04  3.37244E+03  2.45690E+04  2.10680E+04  3.97515E+03  3.72328E+04
 -1.83079E+04  3.03336E+04 -2.86720E+04  1.04993E+04 -2.12505E+04 -1.02808E+04 -3.93944E+03 -1.36395E+04
  1.29820E+03 -2.26261E+03 -5.34265E+03  7.24524E+03 -1.65629E+04  5.52338E+03 -1.66768E+04 -7.59093E+03
 -1.02593E+04 -1.97577E+04  5.22124E+03 -2.38445E+04  1.54639E+04 -1.71479E+04  1.88350E+04 -1.73381E+03
  1.18680E+04  1.35632E+04 -1.55576E+03  1.92251E+04 -1.40574E+04  1.14770E+04 -1.98789E+04 -4.69479E+03
 -1.51857E+04 -1.82503E+04 -2.21369E+03 -2.37781E+04  1.11881E+04 -1.98720E+04  2.01441E+04 -9.35551E+03
  1.88743E+04  2.05536E+02  1.37878E+04  4.60180E+03  7.09074E+03  1.23228E+03  1.00596E+04 -2.06722E+03
  1.81882E+04  3.00871E+03  2.06510E+04  1.56646E+04  1.37855E+04  3.15944E+04 -3.06887E+03  3.68225E+04
 -2.13342E+04  2.92055E+04 -3.36541E+04  1.57265E+04 -3.56009E+04 -2.44960E+03 -2.99261E+04 -2.09199E+04
 -1.23462E+04 -3.00433E+04  9.75723E+03 -2.66137E+04  2.27728E+04 -1.34064E+04  1.97720E+04  5.67012E+03
  7.24535E+03  1.54111E+04 -9.66344E+03  1.30638E+04 -1.71330E+04  2.91953E+03 -1.29062E+04 -1.04486E+04
  2.42361E+02 -1.63818E+04  8.83005E+03 -1.20152E+04  1.01509E+04 -1.11124E+03  2.60334E+03  7.54428E+03
 -7.32541E+03  2.87089E+03 -5.84930E+03 -6.44050E+03 -5.18163E+02 -1.40462E+04  1.03322E+04 -1.58207E+04
  1.77751E+04 -7.74019E+03  1.96786E+04  3.33228E+03  1.69704E+04  1.42263E+04  8.38260E+03  2.27669E+04
 -3.44153E+03  2.34876E+04 -1.50092E+04  1.50946E+04 -1.67268E+04  2.54444E+03 -1.21257E+04 -3.69541E+03
 -5.19918E+03 -5.08130E+03 -9.24364E+02  1.10934E+03 -2.15577E+03  2.53446E+03 -5.09443E+03  4.58611E+03
 -1.14142E+04 -4.15776E+02 -1.15896E+04 -9.51428E+03 -4.45895E+03 -1.58276E+04  5.21284E+03 -1.22254E+04
  1.05314E+04 -4.95341E+03  7.62318E+03  3.01936E+03  9.44315E+01  4.67170E+03 -5.77088E+03 -7.45639E+02
 -6.01530E+03 -8.05789E+03 -1.65103E+03 -1.13311E+04  6.51635E+03 -1.22196E+04  1.48696E+04 -6.44988E+03
  1.81133E+04  1.94835E+03  1.32278E+04  1.05012E+04  2.52778E+03  1.41230E+04 -7.93751E+03  1.21367E+04
 -9.53828E+03  3.11499E+03 -5.59567E+03 -2.71446E+03  2.78564E+03 -3.00477E+03  6.36738E+03 -8.36488E+02
  5.89501E+03  4.81776E+03  1.56199E+03  1.00211E+04 -6.88511E+03  9.02221E+03 -1.19021E+04  1.85718E+03
 -8.24817E+03 -6.64941E+03  7.37341E+02 -1.09805E+04  6.32995E+03 -4.69007E+03  6.01571E+03  2.19289E+03
  1.80761E+03  7.19666E+03 -5.71090E+03  7.70471E+03 -9.46675E+03  3.55745E+03 -9.38267E+03 -3.45534E+03
 -5.47749E+03 -1.06283E+04  2.53310E+03 -1.24201E+04  1.06499E+04 -8.34414E+03  1.17664E+04  2.30656E+03
  6.81577E+03  9.27847E+03 -4.49469E+02  1.17211E+04 -8.30336E+03  6.54401E+03 -8.75063E+03 -5.77791E+02
 -8.12191E+03 -7.93509E+03 -1.35565E+03 -8.01467E+03  4.07187E+03 -6.85588E+03  4.84512E+03 -3.05488E+03
  3.64663E+03  1.18577E+03 -5.12809E+02  1.97519E+03  4.61621E+02 -1.61379E+03  1.36045E+03 -4.65236E+03
  7.34519E+03 -2.96818E+03  1.06514E+04  5.20090E+02  1.08784E+04  6.91176E+03  7.59966E+03  1.38788E+04
 -3.38688E+03  1.56758E+04 -1.38132E+04  1.16380E+04 -1.74000E+04  2.11624E+03 -1.39265E+04 -5.87505E+03
 -7.69383E+03 -1.18993E+04 -5.25054E+02 -9.46130E+03  3.29491E+03 -5.17393E+03  3.31170E+03 -3.86672E+03
  2.29626E+03 -2.24562E+03  2.27542E+03 -3.10443E+03  4.94777E+03 -2.27241E+03  5.65406E+03 -3.82111E+02
  7.90623E+03  1.73213E+03  3.32227E+03  5.81473E+03 -1.76290E+03  6.78262E+03 -8.05874E+03  5.69638E+03
 -9.88182E+03 -9.62361E+02 -5.13556E+03 -6.40894E+03 -1.02741E+03 -1.01601E+04  5.65492E+03 -1.10806E+04
  1.02437E+04 -6.20815E+03  1.29494E+04  1.51213E+03  8.84382E+03  8.40452E+03  2.10412E+03  1.15065E+04
 -4.57207E+03  1.01538E+04 -5.92989E+03  4.15771E+03 -4.22611E+03 -9.27862E+02 -1.74589E+03 -1.32619E+03
 -7.08797E+02  3.03993E+02 -1.90382E+03  2.61251E+03 -4.55453E+03  1.92315E+03 -6.98021E+03 -5.04123E+02
 -4.75109E+03 -7.00537E+03  5.31540E+02 -8.80718E+03  5.50813E+03 -8.73270E+03  8.73479E+03 -2.28421E+03
  9.15544E+03  4.76226E+03  3.64208E+03  8.17861E+03 -1.80278E+03  9.70209E+03 -6.18042E+03  5.60363E+03
 -8.69805E+03  6.67649E+02 -6.85790E+03 -5.34961E+03 -1.16275E+03 -6.71862E+03  3.63645E+03 -5.48215E+03
  5.84900E+03 -2.59829E+03  3.70583E+03  1.15291E+03  1.11713E+03  2.81182E+03  1.03329E+03  1.38293E+03
  2.63662E+03  1.25652E+03  1.43088E+03  1.60921E+03  2.37372E+03  3.76025E+03  1.93735E+03  4.26785E+03
 -2.06026E+03  7.06562E+03 -5.97647E+03  7.75606E+03 -9.10963E+03  1.73674E+03 -9.76075E+03 -3.09443E+03
 -3.85301E+03 -8.48939E+03  1.13561E+03 -9.69862E+03  5.06083E+03 -5.86737E+03  7.06073E+03 -1.94770E+03
  5.38212E+03  3.59047E+03  1.30172E+03  5.17756E+03 -1.95562E+03  3.32706E+03 -2.64307E+03 -4.96372E+02
 -1.13457E+03 -4.37969E+03  1.99948E+03 -4.03743E+03  3.45365E+03 -1.91361E+03  3.63110E+03  5.96977E+02
  2.23438E+03  2.14304E+03  4.51918E+02  9.77081E+02 -8.08394E+02  1.55028E+03  1.35571E+03 -1.23296E+03
  1.08878E+03 -1.13647E+03  4.04839E+03  1.50345E+03  1.88466E+03  4.82769E+03 -5.02427E+02  6.22304E+03
 -3.91712E+03  3.64330E+03 -5.89695E+03  9.08415E+02 -4.99796E+03 -2.18633E+03 -1.84093E+03 -2.63506E+03
  8.14799E+02 -3.44943E+03  2.08405E+03 -9.16772E+02  1.84963E+03  1.80714E+03 -1.64342E+03  3.01201E+03
 -3.10539E+03  1.84166E+03 -4.20370E+03 -2.28507E+03 -2.05497E+03 -4.57011E+03  2.24023E+02 -3.78167E+03
  2.13738E+03 -2.03948E+03  3.66258E+03 -4.76414E+02  3.15714E+03  1.21907E+03  4.65917E+02  2.15020E+03
 -1.83799E+03  3.92164E+02 -2.59867E+03 -9.64927E+02  7.24714E+02 -3.24603E+03  3.90891E+03 -2.82612E+03
  4.14499E+03 -4.15716E+02  4.82319E+03  2.42162E+03  1.11502E+03  5.39260E+03 -1.47164E+03  4.96291E+03
 -4.01877E+03  1.94104E+03 -4.11140E+03 -6.66381E+02 -2.39569E+03 -3.60209E+03  6.33553E+02 -2.67356E+03
  4.29716E+03 -2.02911E+03  2.58628E+03  1.42567E+03  5.72823E+02  2.82512E+03 -5.56158E+02  2.14254E+03
 -9.96863E+02  1.34155E+03 -1.22595E+03  2.87285E+02 -5.36219E+02  8.85070E+02 -1.75807E+03  1.20689E+03
 -1.59097E+03  2.34319E+03 -3.71861E+03  1.51929E+03 -4.41822E+03 -3.89253E+02 -5.59010E+03 -3.52627E+03
 -3.14817E+03 -6.05989E+03  9.17181E+02 -7.53036E+03  4.77475E+03 -5.96734E+03  7.94837E+03 -2.73662E+03
  6.85832E+03  1.27211E+03  4.45168E+03  4.82471E+03  9.85964E+01  5.08707E+03 -1.63929E+03  3.74934E+03
 -3.02151E+03  1.90507E+03 -1.85285E+03 -8.81979E+02 -1.62029E+03 -5.10692E+02 -1.15626E+02 -1.87876E+02
 -1.73382E+03  5.84567E+02 -1.36857E+03 -3.59545E+02 -4.23189E+00 -9.51020E+02  2.35776E+02 -1.31508E+03
  1.99313E+03 -1.83606E+03  1.72279E+03  3.16587E+02  3.79647E+03  2.57038E+03  4.42217E+02  4.44036E+03
 -2.28503E+03  5.26180E+03 -5.12902E+03  3.15457E+03 -6.51562E+03  5.07403E+01 -4.25777E+03 -3.73856E+03
 -2.35312E+03 -4.43972E+03  1.63829E+03 -3.95538E+03  2.98762E+03 -1.94239E+03  2.64974E+03  2.51220E+01
  1.89086E+03  1.60382E+03 -1.91503E+02  1.74881E+03 -7.65295E+02  2.68126E+02 -2.24569E+02 -9.56734E+02
  1.79707E+03 -7.03297E+02  1.44656E+03  3.16928E+02  1.20422E+03  2.09639E+03  6.11760E+02  2.66200E+03
 -2.55092E+03  1.88200E+03 -3.14647E+03  6.95146E+02 -2.49655E+03 -1.91797E+03 -6.78266E+02 -3.75879E+03
  2.36096E+03 -3.26286E+03  2.75173E+03 -1.49866E+03  3.11622E+03  2.57713E+02  2.30696E+03  2.38410E+03
  2.11239E+02  2.73283E+03 -1.32869E+03  1.36630E+03 -1.86982E+03  1.60771E+03 -2.14909E+03  4.68820E+02
 -1.19119E+03 -3.82745E+02 -1.19880E+03  2.34311E+02 -1.50573E+03  1.02062E+03 -2.83325E+03 -6.52507E+02
 -2.42732E+03 -1.23009E+03 -8.16459E+02 -3.57769E+03  1.46665E+03 -3.45444E+03  2.90905E+03 -1.53258E+03
  3.15516E+03  2.35210E+02  1.18842E+03  1.79224E+03 -2.02449E+02  2.65444E+03 -2.35795E+03  1.80612E+03
