 $NMID ID='MM_0lb_SNR400_15hz_g60_88.RAW', FMTDAT='(8E13.5)'
 TRAMP=1., VOLUME=1. $END
  3.09694E+05  4.04506E+02  3.37076E+05  2.50263E+05  8.49200E+04  3.37655E+05 -1.32399E+05  2.51786E+05
 -1.90258E+05  8.39315E+04 -1.12024E+05 -3.29824E+04  1.40834E+03 -5.03815E+04  5.41448E+04 -2.07544E+02
  3.48991E+04  5.29479E+04 -1.73141E+04  7.61199E+04 -6.07461E+04  6.36350E+04 -8.42961E+04  3.26295E+04
 -8.14220E+04 -1.21778E+04 -5.79801E+04 -5.19433E+04 -1.46730E+04 -7.01822E+04  2.75204E+04 -4.60981E+04
  3.99857E+04  4.16847E+03  1.63389E+04  4.76368E+04 -3.51335E+04  4.75991E+04 -6.71863E+04 -2.30288E+02
 -5.34742E+04 -5.74494E+04 -6.62715E+03 -7.73384E+04  3.39093E+04 -5.54934E+04  4.83596E+04 -1.72709E+04
  4.38842E+04  1.13385E+04  3.22998E+04  2.61080E+04  1.61957E+04  2.98742E+04 -4.95599E+03  2.73825E+04
 -2.24242E+04  1.23638E+04 -1.83829E+04 -5.06209E+03  5.63792E+03 -7.20968E+03  2.24937E+04  1.20840E+04
  7.24627E+03  3.61953E+04 -3.22555E+04  3.58480E+04 -6.35975E+04  1.66498E+03 -5.70981E+04 -4.31504E+04
 -1.21171E+04 -6.38561E+04  3.98149E+04 -4.60906E+04  5.89008E+04 -1.72951E+03  3.51813E+04  3.33928E+04
 -5.91316E+03  3.73250E+04 -3.07211E+04  1.64390E+04 -3.10761E+04 -3.46059E+03 -1.80300E+04 -1.08371E+04
 -9.43086E+03 -1.37020E+04 -1.00487E+03 -1.87090E+04  7.42070E+03 -2.30266E+04  1.59636E+04 -1.26270E+04
  1.11627E+04  4.96906E+03 -8.50810E+03  1.30948E+04 -2.13326E+04 -5.09761E+03 -9.26652E+03 -3.37546E+04
  2.29936E+04 -4.40753E+04  4.89951E+04 -2.01674E+04  4.56892E+04  2.03286E+04  1.66426E+04  4.44797E+04
 -1.60612E+04  3.36693E+04 -2.54430E+04  1.60140E+03 -1.02758E+04 -2.81557E+04  2.09216E+04 -3.46657E+04
  4.15993E+04 -9.60683E+03  3.58840E+04  2.40102E+04  1.82520E+04  4.76233E+04 -7.53749E+03  5.14528E+04
 -3.22798E+04  3.47190E+04 -4.31907E+04  9.94617E+03 -4.33565E+04 -1.66098E+04 -2.40746E+04 -3.84870E+04
  7.28306E+03 -3.81930E+04  3.20439E+04 -1.52316E+04  2.98513E+04  1.09596E+04  4.20187E+03  1.90628E+04
 -1.38750E+04  9.11481E+03 -1.09297E+04 -7.97867E+03  6.24754E+03 -1.05433E+04  1.77575E+04  6.17300E+03
  1.41645E+04  2.18751E+04 -6.57633E+03  2.54713E+04 -2.28146E+04  1.19109E+04 -2.85346E+04 -4.31747E+03
 -2.10966E+04 -1.77518E+04 -8.37227E+03 -2.07998E+04  4.53853E+03 -2.05989E+04  1.58464E+04 -1.83393E+04
  2.68784E+04 -1.39219E+04  3.36922E+04  3.02448E+03  2.40425E+04  2.05165E+04  3.99949E+03  3.70480E+04
 -1.77167E+04  3.07714E+04 -2.73369E+04  1.05403E+04 -2.11101E+04 -1.07383E+04 -4.18978E+03 -1.33013E+04
  1.50136E+03 -2.13680E+03 -4.73240E+03  6.68908E+03 -1.61919E+04  5.40233E+03 -1.68161E+04 -8.28007E+03
 -1.06693E+04 -1.97650E+04  5.64348E+03 -2.35046E+04  1.57813E+04 -1.73652E+04  1.88111E+04 -1.53626E+03
  1.14953E+04  1.29472E+04 -9.18223E+02  1.87976E+04 -1.35988E+04  1.14579E+04 -1.95864E+04 -4.11252E+03
 -1.38899E+04 -1.73904E+04 -2.10603E+03 -2.29749E+04  1.03721E+04 -1.97611E+04  1.96932E+04 -9.13546E+03
  1.77634E+04  1.23942E+02  1.33087E+04  4.71549E+03  6.48575E+03  1.03612E+03  9.72651E+03 -2.33121E+03
  1.78487E+04  2.53382E+03  1.99830E+04  1.49651E+04  1.32453E+04  3.08963E+04 -2.48875E+03  3.46316E+04
 -2.05448E+04  2.82803E+04 -3.27638E+04  1.37505E+04 -3.43129E+04 -2.30745E+03 -2.85979E+04 -2.01686E+04
 -1.26747E+04 -2.80732E+04  9.94421E+03 -2.53456E+04  2.19305E+04 -1.20945E+04  1.93990E+04  5.33559E+03
  7.26315E+03  1.46360E+04 -8.29474E+03  1.26004E+04 -1.67158E+04  2.51566E+03 -1.29713E+04 -9.61588E+03
  1.09170E+02 -1.54343E+04  8.19573E+03 -1.18991E+04  1.03656E+04 -1.66182E+03  2.23290E+03  6.64202E+03
 -7.60375E+03  3.17540E+03 -5.79539E+03 -5.76943E+03 -5.04007E+02 -1.38401E+04  9.93312E+03 -1.45915E+04
  1.72445E+04 -7.08902E+03  1.81485E+04  3.41640E+03  1.58323E+04  1.36017E+04  7.23838E+03  2.04553E+04
 -3.54080E+03  2.32374E+04 -1.40079E+04  1.44064E+04 -1.62245E+04  3.08228E+03 -1.17138E+04 -3.75762E+03
 -5.20571E+03 -4.68137E+03 -2.81571E+02  6.54523E+02 -2.73849E+03  3.04606E+03 -4.88075E+03  4.08417E+03
 -1.10569E+04 -9.22087E+02 -1.16744E+04 -9.34588E+03 -4.46927E+03 -1.50751E+04  4.86742E+03 -1.18109E+04
  9.42734E+03 -5.44911E+03  6.67926E+03  2.81627E+03  3.74632E+02  3.89814E+03 -5.10749E+03 -5.68051E+02
 -4.87159E+03 -7.02998E+03 -8.61201E+02 -1.12224E+04  6.12044E+03 -1.23189E+04  1.44964E+04 -5.74341E+03
  1.68534E+04  1.48320E+03  1.23267E+04  8.95908E+03  2.45171E+03  1.32074E+04 -6.66882E+03  1.07485E+04
 -9.79276E+03  2.60223E+03 -4.66107E+03 -2.27943E+03  1.25692E+03 -2.50286E+03  6.27227E+03 -3.16119E+02
  4.66712E+03  4.63161E+03  1.01506E+03  8.68742E+03 -6.48203E+03  8.82439E+03 -1.07642E+04  2.20484E+03
 -7.24349E+03 -5.15457E+03  4.96821E+02 -9.41491E+03  5.18529E+03 -4.91351E+03  5.99017E+03  2.53863E+03
  1.01643E+03  5.62422E+03 -5.55470E+03  7.65504E+03 -7.90442E+03  3.04720E+03 -7.87435E+03 -2.04438E+03
 -5.26735E+03 -9.30909E+03  2.53056E+03 -1.12677E+04  9.89973E+03 -7.22235E+03  1.04089E+04  1.76532E+03
  6.46161E+03  8.06416E+03  1.24183E+02  1.07213E+04 -7.73151E+03  6.76671E+03 -7.85607E+03 -9.82491E+02
 -7.88636E+03 -7.18082E+03 -9.53941E+02 -7.64487E+03  4.27321E+03 -6.14804E+03  4.88837E+03 -3.22958E+03
  4.11746E+03  8.75883E+02  2.64571E+02  2.19333E+03  4.62478E+02 -1.63633E+03  1.20998E+03 -3.88767E+03
  6.97140E+03 -2.01507E+03  9.43888E+03  1.63580E+03  9.17028E+03  5.99220E+03  7.35987E+03  1.20554E+04
 -2.82620E+03  1.45215E+04 -1.22774E+04  1.03685E+04 -1.57086E+04  2.06374E+03 -1.29346E+04 -5.10631E+03
 -6.28526E+03 -1.08321E+04  1.03046E+02 -8.47335E+03  3.25014E+03 -4.29012E+03  2.20496E+03 -2.75988E+03
  2.06696E+03 -1.87552E+03  2.57084E+03 -2.76640E+03  4.73017E+03 -2.38191E+03  5.15416E+03  5.45922E+02
  6.36121E+03  2.03451E+03  2.80259E+03  5.16465E+03 -1.94725E+03  5.01850E+03 -7.20878E+03  5.10691E+03
 -8.32930E+03 -1.63779E+03 -4.00635E+03 -5.60254E+03 -6.28373E+00 -8.53288E+03  5.01315E+03 -8.81380E+03
  9.01213E+03 -4.95291E+03  1.04099E+04  1.21985E+03  7.73678E+03  7.20119E+03  1.51977E+03  1.00264E+04
 -4.00489E+03  8.14210E+03 -5.33742E+03  2.92137E+03 -3.27753E+03 -2.03697E+03 -9.17202E+02 -1.12448E+03
 -1.21930E+03  3.60724E+02 -1.94996E+03  2.21036E+03 -2.92683E+03  1.56083E+03 -5.57085E+03 -1.19639E+03
 -3.60662E+03 -5.75568E+03  3.37266E+02 -7.71403E+03  5.23370E+03 -7.04495E+03  7.47394E+03 -2.29659E+03
  7.41849E+03  3.97132E+03  3.22171E+03  6.30359E+03 -2.20566E+03  8.02761E+03 -5.29884E+03  4.98740E+03
 -6.86455E+03  2.24545E+02 -6.29986E+03 -4.00788E+03 -9.16162E+01 -5.73436E+03  2.91984E+03 -4.76329E+03
  4.91672E+03 -1.79719E+03  3.45965E+03  8.38335E+02  7.52239E+02  2.48081E+03  1.82494E+03  6.71620E+02
  1.73118E+03  3.99799E+02  1.53958E+03  1.14280E+03  2.35669E+03  3.24989E+03  2.01962E+03  4.09105E+03
 -1.03300E+03  6.05032E+03 -4.98475E+03  6.45776E+03 -6.25206E+03  1.69573E+03 -8.01725E+03 -2.18822E+03
 -3.72801E+03 -6.42531E+03  4.91664E+02 -8.47498E+03  4.20669E+03 -4.79255E+03  5.81682E+03 -1.41471E+03
  4.70143E+03  2.86496E+03  9.75011E+02  3.91294E+03 -1.19047E+03  2.32947E+03 -2.09404E+03 -4.39123E+00
 -8.30973E+02 -2.77865E+03  1.60729E+03 -2.74153E+03  2.45195E+03 -1.35747E+03  2.58375E+03  4.87416E+01
  1.43804E+03  1.31830E+03  1.11867E+03  3.29105E+02 -3.47578E+02  1.27245E+03  2.12386E+03 -3.10637E+02
  7.69865E+02 -4.49587E+02  2.55289E+03  1.26120E+03  1.13696E+03  3.80897E+03 -6.79818E+02  5.08485E+03
 -3.38135E+03  3.37134E+03 -4.85905E+03  4.24571E+02 -3.71025E+03 -1.38775E+03 -1.21316E+03 -2.19613E+03
  1.91984E+02 -2.93508E+03  5.97253E+02 -1.31919E+03  6.10023E+02  1.55233E+03 -4.72046E+02  2.53602E+03
 -2.67826E+03  1.43547E+03 -2.51619E+03 -2.03356E+03 -1.80792E+03 -4.28944E+03  2.50877E+02 -3.20438E+03
  1.76235E+03 -1.39488E+03  2.52787E+03 -4.18255E+02  1.87090E+03 -1.04456E+02  2.65355E+02  1.88097E+03
 -1.08465E+03  1.73312E+02 -1.32411E+03 -8.80232E+02  5.34436E+02 -1.82240E+03  3.17260E+03 -2.22748E+03
  3.55307E+03  3.29288E+02  4.46913E+03  2.08157E+03  1.77604E+03  3.55748E+03 -1.20837E+03  3.27986E+03
 -2.75420E+03  1.28038E+03 -3.30266E+03  2.12246E+01 -1.54300E+03 -2.32110E+03  1.61025E+02 -1.96106E+03
  2.81952E+03 -1.07348E+03  1.70359E+03  8.47183E+02 -2.93806E+01  2.68766E+03  2.02239E+02  1.36768E+03
 -8.06597E+02  1.18373E+03 -8.43508E+02  5.02109E+02 -2.06677E+02  3.29925E+02 -8.92739E+02  5.89956E+02
 -1.68920E+03  2.39974E+03 -2.15014E+03  9.73860E+02 -3.07425E+03  6.33765E+02 -4.42478E+03 -2.55630E+03
 -2.27097E+03 -4.88077E+03  1.53908E+03 -6.10066E+03  2.93109E+03 -4.41179E+03  5.27764E+03 -1.87254E+03
  4.65663E+03  1.02147E+02  2.95474E+03  3.08376E+03  4.15076E+02  2.93069E+03 -2.06192E+03  2.73531E+03
 -1.51168E+03  9.00807E+02 -7.36842E+02 -4.85798E+02 -5.35673E+02 -1.12481E+02 -8.01062E+02 -7.32360E+01
 -1.47422E+03 -5.71074E+02 -1.01828E+03 -6.88286E+01 -3.09151E+02 -1.15117E+03 -6.81187E+02 -1.36324E+03
  1.59088E+03 -1.22933E+03  4.78824E+02  9.02395E+01  1.80018E+03  1.60913E+03  7.98430E+01  3.26384E+03
 -2.34136E+03  3.85156E+03 -3.98232E+03  2.11167E+03 -4.10057E+03 -6.10108E+02 -2.93336E+03 -2.59232E+03
 -1.68782E+03 -3.66373E+03  2.43226E+02 -2.51484E+03  2.20397E+03 -1.87102E+03  1.60258E+03  2.20584E+02
  1.34792E+03  1.34569E+03 -6.00021E+01  7.53342E+02 -5.76889E+02 -1.29725E+02 -1.61018E+02 -4.60850E+02
  1.14217E+03  2.25157E+02  1.29921E+03  9.82409E+01  6.41627E+00  9.22784E+02  1.28594E+02  1.32307E+03
 -1.05195E+03  1.70081E+03 -1.86421E+03 -3.27105E+01 -1.79470E+03 -1.69236E+03 -2.72278E+02 -2.57839E+03
  8.03006E+02 -2.22569E+03  1.77415E+03 -3.99589E+02  2.15856E+03 -6.15558E+02  1.76408E+03  1.65310E+03
  4.96894E+02  1.84970E+03 -4.64544E+02  1.78471E+03 -7.82306E+02  1.24634E+03 -1.19890E+03  3.40596E+02
 -9.52269E+02 -6.49112E+02 -5.35582E+02  2.61663E+02 -9.43861E+02 -4.08833E+01 -9.43640E+02 -3.93191E+02
 -1.79774E+03 -5.99859E+02 -1.95173E+01 -2.18098E+03  7.30986E+02 -2.63912E+03  1.20632E+03 -1.10998E+03
  2.05093E+03  4.41976E+02  5.55553E+02  1.86559E+03 -2.42438E+02  1.24087E+03 -1.06758E+03  1.36117E+03
