 $NMID ID='MM_0lb_SNR400_20hz_g40_65.RAW', FMTDAT='(8E13.5)'
 TRAMP=1., VOLUME=1. $END
  3.09669E+05  1.64976E+02  3.37168E+05  2.49971E+05  8.40120E+04  3.37187E+05 -1.32438E+05  2.49409E+05
 -1.89958E+05  8.20119E+04 -1.10347E+05 -3.32947E+04  1.47371E+03 -4.99090E+04  5.40742E+04  3.80384E+02
  3.48809E+04  5.29619E+04 -1.72232E+04  7.47913E+04 -6.06343E+04  6.27366E+04 -8.24664E+04  3.15033E+04
 -7.89734E+04 -1.10662E+04 -5.54194E+04 -4.98175E+04 -1.47272E+04 -6.73694E+04  2.61006E+04 -4.39104E+04
  3.82268E+04  4.07572E+03  1.51788E+04  4.64105E+04 -3.31401E+04  4.57928E+04 -6.51190E+04 -8.08084E+02
 -5.14656E+04 -5.52107E+04 -5.57938E+03 -7.46105E+04  3.23145E+04 -5.22852E+04  4.53782E+04 -1.54869E+04
  4.03728E+04  1.09660E+04  3.03720E+04  2.37214E+04  1.53947E+04  2.77482E+04 -3.56248E+03  2.64241E+04
 -2.13665E+04  1.27598E+04 -1.95145E+04 -3.86636E+03  3.67666E+03 -7.87564E+03  2.08243E+04  9.88908E+03
  6.97774E+03  3.19273E+04 -2.92072E+04  3.31144E+04 -5.99579E+04  2.22090E+03 -5.43638E+04 -4.03013E+04
 -1.22310E+04 -5.99806E+04  3.70199E+04 -4.21352E+04  5.36519E+04 -2.64799E+03  3.08421E+04  2.99948E+04
 -6.73148E+03  3.15580E+04 -2.72171E+04  1.19338E+04 -2.56854E+04 -6.05901E+03 -1.32447E+04 -9.54380E+03
 -6.61278E+03 -1.01823E+04 -1.12977E+03 -1.58009E+04  5.99934E+03 -2.18367E+04  1.48329E+04 -1.46133E+04
  1.29606E+04  3.84274E+03 -4.99708E+03  1.24127E+04 -1.83269E+04 -1.81840E+03 -7.54714E+03 -2.83283E+04
  1.97416E+04 -3.87830E+04  4.29276E+04 -1.84495E+04  4.04053E+04  1.75085E+04  1.31556E+04  4.03213E+04
 -1.42036E+04  2.97706E+04 -2.22277E+04  7.04201E+02 -8.02794E+03 -2.54150E+04  2.00676E+04 -3.01422E+04
  3.65607E+04 -6.68257E+03  2.92325E+04  2.19876E+04  1.38358E+04  4.06759E+04 -7.94587E+03  4.27270E+04
 -2.67416E+04  2.79481E+04 -3.54258E+04  7.89657E+03 -3.61891E+04 -1.45593E+04 -2.00887E+04 -3.28832E+04
  7.13111E+03 -3.28421E+04  2.81001E+04 -1.22180E+04  2.56699E+04  1.08208E+04  2.02047E+03  1.68589E+04
 -1.25391E+04  6.45992E+03 -8.71885E+03 -7.62738E+03  6.42381E+03 -1.02413E+04  1.72580E+04  6.21611E+03
  1.18861E+04  2.19242E+04 -7.20998E+03  2.26291E+04 -2.14506E+04  8.22061E+03 -2.36127E+04 -7.33072E+03
 -1.47929E+04 -1.63552E+04 -4.55105E+03 -1.49959E+04  3.44046E+03 -1.25883E+04  1.09021E+04 -1.21957E+04
  1.92080E+04 -1.10314E+04  2.61887E+04  1.23067E+02  2.09453E+04  1.46038E+04  3.51355E+03  3.13668E+04
 -1.55213E+04  2.59796E+04 -2.50177E+04  8.91441E+03 -1.88144E+04 -1.03696E+04 -3.90975E+03 -1.43644E+04
  2.75813E+03 -4.68872E+03 -1.32191E+03  5.31881E+03 -1.15231E+04  5.17844E+03 -1.18255E+04 -3.93907E+03
 -8.14317E+03 -1.36602E+04  4.06098E+03 -1.74467E+04  1.11979E+04 -1.30874E+04  1.33354E+04 -1.39834E+03
  7.81708E+03  9.59481E+03 -8.95520E+02  1.44757E+04 -8.85099E+03  8.21348E+03 -1.37725E+04 -3.48327E+03
 -1.07528E+04 -1.30184E+04 -1.18676E+03 -1.73134E+04  8.21293E+03 -1.34966E+04  1.46526E+04 -6.53721E+03
  1.30932E+04  6.09932E+02  8.95214E+03  3.31133E+03  4.65307E+03  1.00538E+02  6.36800E+03 -1.70136E+03
  1.25170E+04  2.80376E+03  1.29822E+04  1.20529E+04  7.96729E+03  2.23397E+04 -3.36350E+03  2.35969E+04
 -1.42263E+04  1.72760E+04 -2.15369E+04  7.89830E+03 -2.12417E+04 -1.92019E+03 -1.85202E+04 -1.24364E+04
 -9.22427E+03 -1.73377E+04  5.38240E+03 -1.68897E+04  1.45638E+04 -1.00454E+04  1.41626E+04  3.08315E+03
  6.27571E+03  1.00474E+04 -6.29377E+03  9.47428E+03 -1.22822E+04  2.56135E+03 -9.74866E+03 -6.81702E+03
 -5.12887E+01 -1.16944E+04  5.44669E+03 -8.83743E+03  7.24801E+03 -1.49451E+03  8.61449E+02  4.38302E+03
 -5.27642E+03  4.60888E+02 -2.94849E+03 -4.27260E+03  8.06123E+02 -8.70861E+03  7.40644E+03 -8.84160E+03
  1.06879E+04 -4.03864E+03  1.00045E+04  2.77959E+03  8.63644E+03  7.97678E+03  4.41533E+03  1.19263E+04
 -9.70266E+02  1.33775E+04 -8.18720E+03  8.59395E+03 -9.41493E+03  3.09415E+03 -7.40170E+03 -1.17266E+03
 -4.20072E+03 -2.48742E+03 -1.12361E+03  2.20952E+03 -2.21135E+03  1.87117E+03 -3.08528E+03  3.76732E+03
 -6.97981E+03 -2.03367E+02 -7.59326E+03 -6.41201E+03 -3.10608E+03 -1.06977E+04  3.56043E+03 -7.44871E+03
  6.34409E+03 -3.50712E+03  5.08852E+03  1.82271E+03  8.53590E+02  2.66339E+03 -2.84228E+03 -1.49525E+02
 -2.61824E+03 -4.55694E+03 -8.02602E+02 -6.46073E+03  3.24132E+03 -6.57812E+03  8.46778E+03 -3.50709E+03
  1.00637E+04  5.47055E+02  7.82285E+03  4.59167E+03  1.40207E+03  7.33053E+03 -4.56948E+03  7.61950E+03
 -6.11169E+03  2.67936E+03 -2.95218E+03 -1.17838E+03  1.23510E+03 -1.65171E+03  4.51127E+03 -9.37771E+02
  4.14054E+03  3.03905E+03  9.95234E+02  5.43869E+03 -3.57329E+03  5.81323E+03 -7.22000E+03  1.42729E+03
 -4.02096E+03 -2.85948E+03  4.13732E+02 -5.66406E+03  2.46831E+03 -2.57811E+03  2.79624E+03  6.74607E+02
 -1.34961E+02  2.74280E+03 -3.46815E+03  3.93888E+03 -3.66991E+03  2.47633E+03 -3.37075E+03 -6.56875E+02
 -2.18407E+03 -4.04669E+03  1.35203E+03 -6.23609E+03  5.08024E+03 -3.35481E+03  5.64627E+03  1.60687E+03
  3.70773E+03  4.88613E+03  3.57338E+02  5.65406E+03 -4.17326E+03  3.55347E+03 -4.28673E+03 -2.77155E+02
 -4.92408E+03 -4.05746E+03 -1.68867E+03 -3.86316E+03  2.05811E+03 -4.37419E+03  2.59100E+03 -2.64240E+03
  2.09437E+03  5.28349E+02  6.96968E+02  1.19391E+03  7.02129E+02  2.25948E+02 -5.12624E+02 -1.20028E+03
  3.10047E+03 -4.56090E+02  4.36310E+03  3.78939E+02  4.45047E+03  2.75328E+03  4.27319E+03  5.93707E+03
 -9.35953E+02  6.69289E+03 -6.62592E+03  4.65854E+03 -8.02814E+03  1.02415E+03 -6.64088E+03 -2.13945E+03
 -3.78126E+03 -5.18425E+03 -2.08791E+02 -4.04557E+03  1.98205E+03 -1.65839E+03  1.75450E+03 -1.28959E+03
  4.23526E+02 -1.46705E+03  1.59902E+03 -2.61826E+03  3.52698E+03 -8.21019E+02  3.10910E+03  5.67370E+02
  3.48906E+03  7.68953E+02  5.41025E+02  2.67873E+03 -1.50061E+03  1.95598E+03 -3.94758E+03  1.45926E+03
 -3.70990E+03 -1.23127E+03 -7.07834E+02 -2.36550E+03  4.97231E+02 -3.52508E+03  2.73732E+03 -4.45878E+03
  3.66532E+03 -2.66843E+03  5.35785E+03 -7.00001E+01  4.17611E+03  3.43423E+03  1.12536E+03  4.47390E+03
 -1.91528E+03  5.24599E+03 -2.70232E+03  1.62079E+03 -1.43489E+03 -1.58654E+03 -3.20474E+02 -7.86906E+02
 -3.07758E+02  6.04757E+01 -9.39492E+02  1.86855E+03 -2.32651E+03  1.41056E+03 -3.53477E+03 -5.00617E+02
 -1.48730E+03 -3.50763E+03  8.93494E+02 -3.96023E+03  2.13874E+03 -3.70062E+03  2.92316E+03 -3.92672E+02
  3.28035E+03  1.76477E+03  1.20638E+03  2.65117E+03 -3.21051E+02  3.34530E+03 -1.96710E+03  2.54231E+03
 -3.04371E+03  8.82472E+02 -2.92782E+03 -1.83819E+03  9.29274E+01 -2.40975E+03  1.40203E+03 -2.38672E+03
  2.34208E+03 -1.21079E+03  1.06206E+03  3.69458E+02  1.48717E+02  1.44191E+03  8.84416E+02  4.35210E+02
  1.58757E+03  7.39911E+02  6.81403E+02  9.02409E+02  8.96002E+02  2.01409E+03  1.08558E+03  1.77251E+03
 -1.36780E+03  2.29114E+03 -1.82261E+03  3.69106E+03 -2.08422E+03  1.00832E+03 -3.47381E+03  3.75990E+01
 -1.15943E+03 -3.05962E+03  7.60603E+02 -3.52198E+03  9.66706E+02 -2.37768E+03  2.38598E+03 -1.43892E+03
  2.04840E+03  1.46394E+03 -3.34453E+02  1.54280E+03 -5.80089E+02  9.55647E+02 -4.60201E+02 -3.70021E+02
  3.94659E+02 -1.14262E+03  1.19114E+03 -1.04208E+03  8.42258E+02 -5.47881E+02  8.28893E+02  2.36379E+02
  3.16490E+02 -1.26092E+02  1.17698E+03 -3.01924E+02 -5.46801E+02  4.64241E+02  1.49334E+03 -5.60402E+02
 -4.20464E+02  1.13346E+02  1.37306E+03  5.41510E+02 -2.58526E+02  2.19004E+03 -3.99198E+02  2.16510E+03
 -1.05726E+03  1.85483E+02 -1.00699E+03  4.46801E+01 -1.86523E+03 -9.32745E+02  3.68071E+02 -7.15527E+02
  5.26978E+02 -1.02146E+03  7.40887E+02 -3.68228E+02  1.16738E+02  1.24509E+03 -1.05355E+03  7.49820E+02
 -1.34323E+03  5.12636E+02 -7.31835E+02 -9.74982E+02 -6.81072E+02 -1.86101E+03  1.29519E+02 -8.77051E+02
  5.64287E+02 -6.00420E+02  4.53674E+02  1.73183E+02  1.18901E+03 -5.66466E+02  5.63790E+02  8.62282E+02
 -1.44528E+02 -6.41094E+01 -6.80297E+02  1.21931E+02  7.62854E+02 -2.21433E+02  1.86422E+03 -1.19460E+03
  8.98573E+02  4.89423E+02  2.85626E+03  5.73804E+02  9.43613E+02  1.06219E+03 -1.43975E+02  8.44702E+02
 -1.01400E+03 -2.59475E+02 -6.65374E+02 -1.48600E+02 -5.48344E+02 -1.12827E+03  5.82508E+02  1.62366E+02
  5.77394E+02 -7.87778E+02  2.00899E+02  3.44701E+02 -1.73191E+02  1.26210E+03  1.71481E+02  7.87724E+02
 -2.10793E+02  1.21707E+03 -4.31005E+02 -2.15325E+02  2.34301E+02 -9.50838E+01 -5.93265E+02  3.80857E+02
 -8.25446E+02  7.39417E+02 -1.98853E+03  4.62793E+01 -5.68225E+02  2.31780E+02 -2.18193E+03 -2.00121E+02
 -8.57879E+02 -1.70376E+03  6.27444E+02 -2.08835E+03  4.68824E+02 -2.43535E+03  1.78147E+03 -8.78752E+02
  1.89522E+03 -5.25320E+02  6.96807E+02  1.25693E+03 -9.40748E+02  1.21376E+03 -3.08504E+02  6.52363E+02
 -7.55648E+02  8.93492E+02 -3.65498E+02 -2.76043E+02 -2.44203E+02  4.02652E+02 -4.43079E+02  1.14783E+02
 -1.43881E+03 -1.61218E+02 -7.31370E+02 -1.48566E+02  1.39141E+02 -8.80089E+02 -1.49117E+01 -4.82831E+02
  3.22685E+02 -9.81679E+02  7.10078E+01 -3.12405E+01  4.98723E+02  1.59750E+03 -5.17912E+02  1.03315E+03
 -9.25817E+02  1.65126E+03 -9.71390E+02  1.38397E+03 -8.32559E+02 -2.66410E+01 -8.73119E+02 -1.11928E+03
 -1.05253E+03 -9.11618E+02  4.52569E+02 -4.57453E+02  3.68653E+02 -5.54054E+02  8.70928E+01  6.37228E+01
  7.65282E+02  3.38817E+02 -1.70522E+02 -1.48994E+02 -3.68803E+02 -1.82015E+02  1.82587E+01  2.44334E+02
  4.39056E+02  3.26261E+00 -1.50172E+02  5.84928E+02 -8.50192E+01  6.91161E+01  1.05393E+03 -1.78499E+02
 -1.21711E+02  5.15483E+02 -2.71549E+02  4.18748E+02 -1.01048E+03 -2.33186E+02 -7.70180E+01 -1.38674E+03
  4.94932E+02 -3.50175E+02  5.29739E+02 -1.02241E+02  5.56132E+02 -7.24923E+02  5.43467E+02  8.67221E+02
  6.67366E+02  7.06102E+02 -3.95129E+02  5.64021E+02 -4.28896E+02  8.97967E+02  6.96794E+01 -3.39444E+02
 -5.24503E+02  5.58190E+02  7.06114E+01  4.58597E+01 -4.02681E+02 -2.32248E+02 -9.59500E+02 -4.51105E+02
 -1.53233E+03  4.90899E+02 -4.46991E+02 -1.24018E+03  5.70357E+02 -1.38273E+03  5.26632E+02  2.37914E+02
  6.08616E+02 -1.34831E+02 -3.55323E+02 -2.21845E+01 -3.65661E+02  5.32249E+02 -6.60535E+02  4.92493E+02
