 $NMID ID='MM_0lb_SNR400_15hz_g55_92.RAW', FMTDAT='(8E13.5)'
 TRAMP=1., VOLUME=1. $END
  3.10289E+05  1.15954E+03  3.37513E+05  2.50754E+05  8.47774E+04  3.38380E+05 -1.32118E+05  2.51194E+05
 -1.90481E+05  8.32572E+04 -1.11662E+05 -3.29173E+04  6.15912E+02 -5.04005E+04  5.31605E+04 -9.02043E+01
  3.47139E+04  5.29668E+04 -1.65997E+04  7.55878E+04 -6.06288E+04  6.37226E+04 -8.40734E+04  3.24056E+04
 -8.10063E+04 -1.17065E+04 -5.73721E+04 -5.17869E+04 -1.43431E+04 -6.95637E+04  2.76272E+04 -4.55109E+04
  4.05337E+04  4.28104E+03  1.57303E+04  4.80383E+04 -3.45491E+04  4.74141E+04 -6.69154E+04 -3.99235E+02
 -5.33449E+04 -5.71544E+04 -7.53299E+03 -7.74466E+04  3.39483E+04 -5.47366E+04  4.79689E+04 -1.74446E+04
  4.31226E+04  1.14106E+04  3.16982E+04  2.52854E+04  1.64508E+04  2.94061E+04 -5.35329E+03  2.71478E+04
 -2.25095E+04  1.23929E+04 -1.87194E+04 -4.94289E+03  5.01359E+03 -7.74401E+03  2.20668E+04  1.27635E+04
  7.36516E+03  3.55442E+04 -3.20938E+04  3.55941E+04 -6.35323E+04  2.14445E+03 -5.67671E+04 -4.27133E+04
 -1.22819E+04 -6.32019E+04  4.00209E+04 -4.51917E+04  5.83335E+04 -1.69700E+03  3.46065E+04  3.27078E+04
 -5.90035E+03  3.61505E+04 -2.98914E+04  1.62661E+04 -3.02461E+04 -5.10685E+03 -1.62528E+04 -1.20445E+04
 -8.29222E+03 -1.31949E+04 -6.57576E+02 -1.84073E+04  7.24580E+03 -2.31952E+04  1.48346E+04 -1.32370E+04
  1.11835E+04  4.89009E+03 -7.55822E+03  1.33249E+04 -2.17945E+04 -4.86913E+03 -8.59815E+03 -3.37547E+04
  2.30574E+04 -4.35413E+04  4.83016E+04 -1.96220E+04  4.51273E+04  1.95695E+04  1.52346E+04  4.42313E+04
 -1.57835E+04  3.36060E+04 -2.47580E+04  2.04043E+03 -9.62604E+03 -2.74780E+04  2.08515E+04 -3.42659E+04
  4.12240E+04 -9.05221E+03  3.57817E+04  2.38413E+04  1.83755E+04  4.69591E+04 -8.06691E+03  4.99438E+04
 -3.18465E+04  3.36288E+04 -4.22116E+04  9.94916E+03 -4.21429E+04 -1.63684E+04 -2.34691E+04 -3.80917E+04
  7.25406E+03 -3.80264E+04  3.16921E+04 -1.46837E+04  2.97382E+04  1.08643E+04  3.86184E+03  1.90368E+04
 -1.35607E+04  8.45482E+03 -1.01323E+04 -7.72363E+03  5.88011E+03 -1.06118E+04  1.80534E+04  5.09370E+03
  1.33370E+04  2.19321E+04 -6.24644E+03  2.53154E+04 -2.24599E+04  1.07491E+04 -2.82367E+04 -5.23383E+03
 -2.05554E+04 -1.83206E+04 -7.75406E+03 -2.02870E+04  4.16836E+03 -1.99155E+04  1.58338E+04 -1.81224E+04
  2.59042E+04 -1.29593E+04  3.25360E+04  2.95180E+03  2.37573E+04  1.96012E+04  4.15576E+03  3.62854E+04
 -1.71254E+04  3.04031E+04 -2.83471E+04  1.03376E+04 -2.12187E+04 -9.91576E+03 -4.52176E+03 -1.34615E+04
  2.21341E+03 -3.29958E+03 -5.57249E+03  6.97205E+03 -1.63879E+04  4.91192E+03 -1.71428E+04 -7.33654E+03
 -1.04403E+04 -1.90659E+04  5.12642E+03 -2.28582E+04  1.49306E+04 -1.64056E+04  1.80255E+04 -1.06815E+03
  1.13374E+04  1.31744E+04 -9.56802E+02  1.87294E+04 -1.30548E+04  1.11187E+04 -1.97968E+04 -3.14440E+03
 -1.30347E+04 -1.70516E+04 -1.69531E+03 -2.26296E+04  1.01701E+04 -1.88036E+04  1.93730E+04 -9.16502E+03
  1.78849E+04  2.40584E+02  1.20625E+04  4.47437E+03  6.28462E+03  9.45340E+02  9.77991E+03 -1.97632E+03
  1.75803E+04  2.85632E+03  1.91393E+04  1.47528E+04  1.28530E+04  2.96460E+04 -3.11359E+03  3.35931E+04
 -1.98386E+04  2.68199E+04 -3.17083E+04  1.34396E+04 -3.21913E+04 -2.32679E+03 -2.73159E+04 -1.87193E+04
 -1.15509E+04 -2.69894E+04  9.28737E+03 -2.44198E+04  2.10954E+04 -1.27955E+04  1.91245E+04  4.84088E+03
  6.98168E+03  1.40119E+04 -9.12088E+03  1.26639E+04 -1.58921E+04  3.05994E+03 -1.20501E+04 -1.00610E+04
  2.64316E+02 -1.47073E+04  7.50326E+03 -1.12225E+04  9.85194E+03 -1.03453E+03  2.23618E+03  5.86704E+03
 -6.75133E+03  2.23277E+03 -6.26118E+03 -5.15669E+03 -2.51656E+02 -1.31712E+04  9.12843E+03 -1.30893E+04
  1.64396E+04 -7.14679E+03  1.67109E+04  2.76049E+03  1.50515E+04  1.33883E+04  7.52878E+03  2.00633E+04
 -3.04687E+03  2.17042E+04 -1.38707E+04  1.41191E+04 -1.48746E+04  3.41974E+03 -1.11505E+04 -3.69290E+03
 -4.87434E+03 -4.50773E+03 -7.38860E+02  8.82991E+02 -2.38843E+03  2.50235E+03 -5.13042E+03  4.53201E+03
 -1.03325E+04 -9.52579E+02 -1.08980E+04 -9.89814E+03 -3.94591E+03 -1.44928E+04  4.65671E+03 -1.11900E+04
  9.87728E+03 -4.57246E+03  6.65119E+03  2.36191E+03  5.92242E+02  3.82331E+03 -4.76910E+03 -5.58950E+00
 -5.15398E+03 -7.43122E+03 -5.36192E+02 -1.02133E+04  5.94933E+03 -1.10827E+04  1.33506E+04 -5.43195E+03
  1.54760E+04  1.63780E+03  1.15309E+04  9.26676E+03  3.08820E+03  1.26194E+04 -6.99740E+03  1.11188E+04
 -8.95807E+03  2.95558E+03 -4.37650E+03 -1.86688E+03  1.65962E+03 -2.87513E+03  6.32761E+03 -4.45793E+02
  4.85278E+03  4.65085E+03  9.88170E+02  9.11623E+03 -5.55936E+03  9.17929E+03 -1.06158E+04  2.41525E+03
 -7.26601E+03 -4.74599E+03  7.21174E+02 -8.48419E+03  5.26369E+03 -4.04568E+03  5.62996E+03  1.69646E+03
  1.52109E+03  5.09626E+03 -5.26290E+03  7.42962E+03 -7.87710E+03  3.01472E+03 -7.81892E+03 -2.34126E+03
 -4.47892E+03 -8.94485E+03  2.17312E+03 -1.10489E+04  8.76515E+03 -6.41309E+03  9.76008E+03  1.63242E+03
  6.29154E+03  7.81504E+03 -3.53079E+02  1.02170E+04 -8.24150E+03  5.59459E+03 -7.01729E+03 -9.76789E+02
 -7.67229E+03 -6.53409E+03 -1.65181E+03 -7.51387E+03  4.19838E+03 -6.74375E+03  4.15205E+03 -3.22710E+03
  3.18579E+03  5.13245E+02 -4.15180E+02  1.69128E+03  5.64270E+02 -8.55074E+02  8.29466E+02 -3.24303E+03
  5.93437E+03 -2.64947E+03  8.65722E+03  1.14400E+03  9.54482E+03  5.92555E+03  6.99062E+03  1.14893E+04
 -2.18304E+03  1.30456E+04 -1.17288E+04  1.06728E+04 -1.46898E+04  1.29286E+03 -1.17189E+04 -4.29034E+03
 -5.98953E+03 -9.57666E+03 -9.51451E+01 -8.31725E+03  2.26880E+03 -3.82815E+03  2.65863E+03 -3.49377E+03
  2.56706E+03 -1.69165E+03  2.84465E+03 -2.31693E+03  4.28478E+03 -2.23501E+03  4.79654E+03  2.25018E+02
  6.79849E+03  1.29628E+03  2.47427E+03  5.05215E+03 -1.38267E+03  5.05018E+03 -5.96600E+03  4.48847E+03
 -8.00582E+03 -1.04288E+03 -4.07109E+03 -5.18417E+03 -1.48103E+02 -8.16801E+03  4.72134E+03 -8.82560E+03
  7.38585E+03 -4.88394E+03  1.04439E+04  9.24446E+02  7.54818E+03  7.56879E+03  1.79396E+03  8.75185E+03
 -3.46289E+03  8.53008E+03 -5.53719E+03  2.98174E+03 -3.57692E+03 -1.21461E+03 -1.15081E+03 -1.03862E+03
 -6.73023E+02  4.76920E+02 -1.58571E+03  2.43967E+03 -3.70513E+03  1.52402E+03 -5.71622E+03 -6.74311E+02
 -3.14968E+03 -5.33137E+03  8.08941E+02 -7.81364E+03  4.76893E+03 -6.68666E+03  6.12567E+03 -2.28450E+03
  5.85380E+03  3.33679E+03  3.73838E+03  5.89146E+03 -1.21338E+03  7.51595E+03 -5.37625E+03  4.45744E+03
 -6.46761E+03  7.19737E+02 -5.36575E+03 -4.07685E+03 -2.56265E+02 -5.65836E+03  2.44836E+03 -4.34365E+03
  3.88232E+03 -7.19852E+02  3.38895E+03  1.23832E+03  1.22542E+03  2.52721E+03  6.56132E+02  6.65114E+02
  2.18477E+03  5.55446E+02  2.14209E+03  1.12990E+03  1.91811E+03  3.12898E+03  1.62769E+03  3.80535E+03
 -1.39253E+03  5.12445E+03 -4.33486E+03  6.11706E+03 -6.17067E+03  1.69415E+03 -7.10526E+03 -2.11154E+03
 -3.84539E+03 -6.44499E+03  1.49746E+03 -7.75909E+03  4.84835E+03 -4.51586E+03  6.20790E+03 -1.50321E+03
  4.56349E+03  2.71993E+03  1.35571E+02  4.36595E+03 -1.38394E+03  2.03183E+03 -2.10997E+03 -4.17815E+02
 -7.42866E+02 -2.80037E+03  1.95754E+03 -2.75032E+03  2.48677E+03 -1.18127E+03  2.95930E+03  4.73651E+02
  1.85491E+03  1.29481E+03  3.47201E+02  5.47019E+02 -3.58697E+02  1.40043E+03  1.72719E+03 -4.22800E+02
  2.70178E+02 -7.92750E+02  2.93283E+03  8.63457E+02  5.88364E+02  3.62287E+03 -5.98583E+02  4.54701E+03
 -2.52691E+03  2.46770E+03 -3.74528E+03  7.67995E+01 -2.96148E+03 -1.35517E+03 -3.45089E+02 -1.89887E+03
 -3.12011E+01 -2.42605E+03  1.61831E+03 -1.32397E+03  1.28551E+03  1.54736E+03 -6.77624E+02  1.59126E+03
 -2.23267E+03  1.75882E+03 -2.22906E+03 -1.63218E+03 -1.77174E+03 -3.69153E+03  5.17484E+02 -3.01466E+03
  1.66812E+03 -2.14565E+03  1.89016E+03  3.05971E+02  2.45914E+03  7.97739E+01  3.83843E+02  2.11397E+03
 -1.39885E+03  1.00406E+02 -2.23254E+03 -6.84279E+02  7.12177E+02 -1.56180E+03  3.66687E+03 -1.81362E+03
  2.76236E+03  4.96947E+02  4.22806E+03  2.19787E+03  1.75604E+03  3.72559E+03 -1.19189E+03  3.14343E+03
 -3.06374E+03  1.03132E+03 -3.29289E+03 -2.14937E+02 -1.75315E+03 -2.95026E+03  3.57632E+02 -2.23389E+03
  2.22252E+03 -1.36041E+03  1.94608E+03  9.84441E+02  3.57970E+02  2.45686E+03  1.93365E+01  1.28763E+03
 -8.28152E+02  1.33446E+03 -5.47982E+02  5.28425E+02  6.38393E+02  7.78715E+02 -8.06246E+02  1.16512E+03
 -1.66999E+03  1.74596E+03 -2.88292E+03  1.35313E+03 -3.63918E+03  1.57585E+02 -3.94190E+03 -2.61722E+03
 -1.93712E+03 -4.55268E+03  1.13808E+03 -5.72032E+03  3.13315E+03 -4.37562E+03  4.69575E+03 -1.50953E+03
  4.66127E+03  2.48874E+02  3.32852E+03  2.83346E+03  2.09201E+02  3.38722E+03 -1.23284E+03  2.59225E+03
 -1.69274E+03  1.60245E+03 -9.39211E+02 -7.87649E+02 -2.65414E+02 -2.48558E+01 -6.50178E+02 -1.72079E+02
 -1.16542E+03  5.58078E+02 -1.08560E+03 -2.93498E+02  1.62476E+02 -2.95945E+02 -4.48737E+02 -1.57175E+03
  2.00323E+03 -1.29138E+03  1.96737E+03  1.81179E+00  2.97043E+03  2.39709E+03  1.92197E+02  3.18232E+03
 -1.77374E+03  4.47620E+03 -3.17061E+03  2.59547E+03 -3.80791E+03  2.22037E+02 -3.29795E+03 -2.22984E+03
 -1.35252E+03 -3.48911E+03  7.90714E+02 -3.07435E+03  2.26777E+03 -1.55163E+03  1.44610E+03  1.55093E+01
  9.38117E+02  1.22145E+03  2.52988E+02  8.42228E+02 -5.61989E+02  2.28396E+02 -5.52871E+02 -1.26796E+03
  1.20901E+03 -8.91473E+01  1.24484E+03  5.18337E+02  6.03331E+02  2.61656E+02  4.99005E+01  1.02166E+03
 -1.71047E+03  1.02433E+03 -1.08776E+03 -3.01403E+02 -1.70777E+03 -1.18099E+03 -5.04101E+02 -2.71922E+03
  1.75813E+03 -2.20167E+03  2.13634E+03 -5.43598E+02  2.71605E+03 -5.63133E+01  1.38859E+03  1.56830E+03
  5.33477E+02  1.57522E+03 -1.02363E+03  1.00957E+03 -1.12769E+03  1.05674E+03 -1.16157E+03 -1.11760E+02
 -4.49699E+02 -6.55842E+02 -1.10876E+03  3.43899E+02 -4.58486E+02  5.92574E+02 -1.71583E+03 -6.51672E+02
 -1.76044E+03 -1.40930E+02 -8.82910E+02 -1.79005E+03  1.37396E+03 -2.26517E+03  1.71302E+03 -7.55009E+02
  1.33724E+03  1.52719E+02  3.94055E+02  8.90758E+02 -3.99675E+01  1.69900E+03 -1.01651E+03  1.73770E+03
