 $NMID ID='MM_0lb_SNR400_10hz_g50_10.RAW', FMTDAT='(8E13.5)'
 TRAMP=1., VOLUME=1. $END
  3.09313E+05  7.13381E+02  3.37188E+05  2.49628E+05  8.47260E+04  3.38325E+05 -1.33091E+05  2.51707E+05
 -1.90950E+05  8.38889E+04 -1.12777E+05 -3.22095E+04 -3.06427E+02 -5.07631E+04  5.43276E+04 -4.05285E+01
  3.59373E+04  5.24102E+04 -1.66923E+04  7.56100E+04 -6.11957E+04  6.50106E+04 -8.58324E+04  3.27503E+04
 -8.13946E+04 -1.13341E+04 -5.78397E+04 -5.25317E+04 -1.50405E+04 -7.08684E+04  2.80661E+04 -4.71363E+04
  4.06216E+04  3.09657E+03  1.68902E+04  4.82612E+04 -3.39523E+04  4.84829E+04 -6.77546E+04  3.15738E+02
 -5.49714E+04 -5.73934E+04 -7.07234E+03 -7.94224E+04  3.48094E+04 -5.68304E+04  4.94486E+04 -1.81944E+04
  4.50788E+04  1.19893E+04  3.20790E+04  2.64000E+04  1.58440E+04  2.93750E+04 -5.64812E+03  2.76672E+04
 -2.32133E+04  1.21717E+04 -1.82099E+04 -4.90117E+03  5.84297E+03 -7.33872E+03  2.41033E+04  1.34262E+04
  6.49138E+03  3.76828E+04 -3.35385E+04  3.64610E+04 -6.57268E+04  2.65612E+03 -5.85777E+04 -4.36849E+04
 -1.21506E+04 -6.47830E+04  4.15356E+04 -4.71765E+04  6.00134E+04 -2.57203E+03  3.61056E+04  3.42863E+04
 -5.14718E+03  3.84668E+04 -3.17876E+04  1.82207E+04 -3.28251E+04 -3.11091E+03 -1.81652E+04 -1.18720E+04
 -8.63228E+03 -1.46096E+04 -1.51604E+02 -1.89709E+04  7.93476E+03 -2.34751E+04  1.62890E+04 -1.28450E+04
  1.08679E+04  5.59546E+03 -9.83541E+03  1.30794E+04 -2.25742E+04 -6.80748E+03 -8.83532E+03 -3.65513E+04
  2.49004E+04 -4.60684E+04  5.17226E+04 -2.11160E+04  4.75141E+04  2.03979E+04  1.62287E+04  4.59683E+04
 -1.59017E+04  3.52370E+04 -2.64591E+04  2.52757E+03 -1.10300E+04 -2.96986E+04  2.13243E+04 -3.63193E+04
  4.36714E+04 -1.10143E+04  3.89235E+04  2.47475E+04  2.11793E+04  4.99634E+04 -9.02998E+03  5.50273E+04
 -3.50882E+04  3.71738E+04 -4.62963E+04  1.13484E+04 -4.59989E+04 -1.82956E+04 -2.55407E+04 -4.09454E+04
  7.86836E+03 -4.10114E+04  3.37149E+04 -1.65114E+04  3.17250E+04  1.11083E+04  5.14216E+03  2.06908E+04
 -1.37269E+04  9.75524E+03 -1.13376E+04 -8.59520E+03  6.35901E+03 -1.09427E+04  1.86135E+04  5.73373E+03
  1.54605E+04  2.26528E+04 -5.62372E+03  2.63680E+04 -2.31045E+04  1.35177E+04 -3.08651E+04 -3.30761E+03
 -2.44457E+04 -1.78060E+04 -1.18174E+04 -2.39133E+04  3.92357E+03 -2.41589E+04  1.86795E+04 -2.15893E+04
  3.01261E+04 -1.38100E+04  3.64731E+04  4.74545E+03  2.64389E+04  2.39186E+04  4.35121E+03  3.92674E+04
 -1.92095E+04  3.27841E+04 -3.02408E+04  1.18085E+04 -2.25235E+04 -9.59912E+03 -4.52753E+03 -1.34407E+04
  3.00376E+02 -1.18918E+03 -7.32755E+03  8.19814E+03 -1.92672E+04  5.14920E+03 -1.95073E+04 -8.62690E+03
 -1.08140E+04 -2.20611E+04  5.29005E+03 -2.68089E+04  1.78473E+04 -1.93585E+04  2.15764E+04 -1.70510E+03
  1.38598E+04  1.56876E+04 -1.15019E+03  2.27333E+04 -1.60309E+04  1.34220E+04 -2.33455E+04 -5.51601E+03
 -1.62499E+04 -1.97062E+04 -1.84964E+03 -2.70354E+04  1.21417E+04 -2.22546E+04  2.28166E+04 -1.12244E+04
  2.04739E+04  8.03000E+02  1.61311E+04  4.37565E+03  8.39228E+03  1.19838E+03  1.16779E+04 -1.91814E+03
  2.10282E+04  2.68165E+03  2.47713E+04  1.76316E+04  1.61055E+04  3.58716E+04 -2.01376E+03  4.19192E+04
 -2.44242E+04  3.42903E+04 -3.98918E+04  1.80857E+04 -4.23405E+04 -3.33729E+03 -3.39937E+04 -2.36219E+04
 -1.34888E+04 -3.51980E+04  1.18613E+04 -3.12005E+04  2.63414E+04 -1.45979E+04  2.34760E+04  7.05658E+03
  8.01509E+03  1.75696E+04 -1.06825E+04  1.47371E+04 -1.94941E+04  2.10556E+03 -1.43756E+04 -1.23939E+04
 -3.45561E+02 -1.75345E+04  1.05365E+04 -1.42184E+04  1.26672E+04 -6.68695E+02  3.22097E+03  8.63582E+03
 -8.39542E+03  3.61552E+03 -8.32642E+03 -5.98558E+03 -1.35277E+03 -1.72910E+04  1.11251E+04 -1.83495E+04
  2.12706E+04 -1.00779E+04  2.48048E+04  3.17938E+03  2.14231E+04  1.72853E+04  9.94036E+03  2.73425E+04
 -5.16988E+03  2.88601E+04 -1.91873E+04  1.87014E+04 -2.13887E+04  3.90622E+03 -1.40425E+04 -5.86283E+03
 -6.69654E+03 -6.76995E+03 -9.77425E+00  4.26915E+02 -3.05334E+03  3.63816E+03 -6.96916E+03  5.10325E+03
 -1.33112E+04 -1.10133E+03 -1.39235E+04 -1.11692E+04 -5.62780E+03 -1.80691E+04  5.50851E+03 -1.41110E+04
  1.17440E+04 -5.96517E+03  8.54481E+03  3.88549E+03 -6.78700E+01  5.65318E+03 -7.15300E+03 -1.41392E+02
 -7.19396E+03 -1.02279E+04 -1.29705E+03 -1.42818E+04  8.48985E+03 -1.49662E+04  1.90907E+04 -8.12371E+03
  2.14175E+04  2.30857E+03  1.62071E+04  1.33587E+04  3.36492E+03  1.78199E+04 -8.91043E+03  1.41674E+04
 -1.18297E+04  3.50775E+03 -5.93234E+03 -3.65674E+03  2.68921E+03 -3.80580E+03  8.21535E+03 -1.15493E+03
  7.45160E+03  6.96151E+03  1.03281E+03  1.20889E+04 -7.97062E+03  1.12127E+04 -1.53246E+04  3.89199E+03
 -1.04544E+04 -7.56474E+03  1.58826E+02 -1.25799E+04  8.32084E+03 -6.52975E+03  8.78265E+03  2.97256E+03
  2.28608E+03  8.87304E+03 -7.04108E+03  1.11690E+04 -1.21024E+04  4.33175E+03 -1.31156E+04 -4.09176E+03
 -8.04994E+03 -1.42362E+04  3.12575E+03 -1.63577E+04  1.47901E+04 -1.03403E+04  1.51936E+04  2.15986E+03
  8.56344E+03  1.15077E+04 -1.27378E+03  1.52813E+04 -1.09361E+04  9.44200E+03 -1.16398E+04 -1.41161E+03
 -9.86328E+03 -9.30486E+03 -1.40774E+03 -1.12406E+04  5.69309E+03 -8.80542E+03  7.20242E+03 -3.54529E+03
  4.29652E+03  2.45863E+03 -8.84243E+02  2.40991E+03 -6.42369E+01 -2.98689E+03  2.52705E+03 -7.10281E+03
  1.03877E+04 -4.31766E+03  1.48321E+04  2.04790E+03  1.41331E+04  9.97688E+03  8.85758E+03  1.87032E+04
 -4.37584E+03  2.17118E+04 -1.81846E+04  1.59837E+04 -2.41908E+04  3.02269E+03 -1.95792E+04 -8.12358E+03
 -9.15629E+03 -1.50443E+04  6.83062E+02 -1.38660E+04  4.60666E+03 -7.62864E+03  4.89135E+03 -4.58884E+03
  3.38343E+03 -2.70136E+03  2.98131E+03 -2.96014E+03  5.06017E+03 -4.05155E+03  7.66970E+03 -1.09594E+03
  9.67673E+03  2.49150E+03  5.75839E+03  8.30382E+03 -2.77933E+03  1.01372E+04 -1.06902E+04  7.42912E+03
 -1.40193E+04 -1.28193E+03 -8.35013E+03 -8.43373E+03 -1.35679E+03 -1.43786E+04  7.55647E+03 -1.34796E+04
  1.51422E+04 -7.77443E+03  1.71942E+04  1.80053E+03  1.22051E+04  1.32777E+04  2.33583E+03  1.57542E+04
 -7.14779E+03  1.37942E+04 -9.39541E+03  4.86748E+03 -6.08862E+03 -1.02523E+03 -2.15245E+03 -1.98992E+03
 -1.51669E+03  1.60332E+02 -2.81616E+03  3.22708E+03 -5.26703E+03  2.62865E+03 -8.81794E+03 -1.64705E+03
 -6.99949E+03 -8.74927E+03 -8.28073E+02 -1.32866E+04  8.20806E+03 -1.26944E+04  1.27329E+04 -3.56891E+03
  1.29181E+04  7.22758E+03  5.92132E+03  1.20001E+04 -2.20186E+03  1.31884E+04 -9.62311E+03  8.02295E+03
 -1.25162E+04  7.42606E+02 -9.05416E+03 -7.44298E+03 -7.89282E+02 -1.12698E+04  5.00506E+03 -8.27305E+03
  8.31376E+03 -2.09977E+03  5.72003E+03  2.03803E+03  1.54918E+03  4.26250E+03  1.03656E+03  2.58138E+03
  2.74847E+03  6.44256E+02  2.82810E+03  1.71651E+03  4.44168E+03  4.69189E+03  3.86970E+03  7.16762E+03
 -2.53496E+03  9.98875E+03 -8.74396E+03  9.85780E+03 -1.28832E+04  3.20771E+03 -1.40534E+04 -5.49119E+03
 -7.18376E+03 -1.21002E+04  2.21085E+03 -1.48436E+04  7.71150E+03 -9.77704E+03  1.10554E+04 -1.66603E+03
  8.95609E+03  4.79772E+03  1.99091E+03  8.09494E+03 -3.10473E+03  4.74732E+03 -5.20152E+03 -5.13386E+02
 -2.44499E+03 -5.81806E+03  2.87567E+03 -5.57130E+03  5.85484E+03 -2.41452E+03  6.04333E+03  9.14572E+02
  3.23255E+03  1.74156E+03  1.55360E+03  1.31047E+03 -9.52144E+02  2.23237E+03  1.85441E+03  4.89854E+01
  2.23116E+03 -1.31726E+03  5.71121E+03  2.13416E+03  2.78416E+03  6.54045E+03 -1.25659E+03  9.26833E+03
 -7.05200E+03  6.41116E+03 -8.76904E+03  1.71291E+03 -7.83766E+03 -2.42717E+03 -2.15006E+03 -5.06192E+03
  6.18279E+02 -5.61172E+03  3.99376E+03 -2.22452E+03  2.64101E+03  2.69054E+03 -7.72314E+02  4.59025E+03
 -5.27900E+03  1.60019E+03 -6.48888E+03 -3.88422E+03 -3.29404E+03 -7.44072E+03  1.49283E+03 -7.47440E+03
  3.85708E+03 -3.90138E+03  5.12391E+03 -9.81359E+02  3.69318E+03  1.16433E+03  4.42312E+02  3.64522E+03
 -2.55015E+03  1.36079E+03 -4.28994E+03 -2.25262E+03  1.25331E+03 -4.93523E+03  6.22494E+03 -4.46219E+03
  7.97714E+03  1.22454E+03  7.84533E+03  5.37598E+03  2.50692E+03  8.75614E+03 -2.91218E+03  8.45456E+03
 -6.41878E+03  3.27624E+03 -7.19385E+03 -7.09734E+02 -4.10913E+03 -6.28555E+03  8.81407E+02 -5.48734E+03
  5.56205E+03 -3.44462E+03  4.87022E+03  2.99603E+03  1.68438E+03  5.27372E+03 -1.25665E+03  4.30436E+03
 -2.36730E+03  2.91242E+03 -2.25892E+03  6.87803E+02 -2.55405E+02  5.82461E+02 -7.70665E+02  2.12126E+03
 -1.75029E+03  2.96361E+03 -5.50046E+03  2.47981E+03 -9.50613E+03  9.47637E+02 -9.60889E+03 -5.32814E+03
 -5.45781E+03 -1.06744E+04  1.83077E+03 -1.28711E+04  7.90110E+03 -9.93511E+03  1.19428E+04 -4.52871E+03
  1.12336E+04  2.42096E+03  8.00507E+03  7.58872E+03  7.08639E+01  9.05716E+03 -3.57122E+03  6.75269E+03
 -4.91694E+03  3.46099E+03 -3.14770E+03 -9.23649E+02 -1.15121E+03 -1.18315E+03 -1.20407E+03 -4.15586E+02
 -1.62787E+03 -5.52557E+02 -2.41385E+03 -4.69621E+02  4.56554E+01 -2.40202E+03 -3.26152E+02 -3.03291E+03
  4.51198E+03 -2.32813E+03  4.80268E+03  6.60406E+02  6.01307E+03  4.43535E+03  1.49645E+03  8.37965E+03
 -4.34682E+03  9.67481E+03 -8.70739E+03  5.72677E+03 -1.08836E+04 -7.69592E+02 -8.31043E+03 -7.03292E+03
 -3.87302E+03 -9.61056E+03  2.85787E+03 -8.01666E+03  6.04155E+03 -4.47800E+03  5.21572E+03  3.32105E+02
  2.81175E+03  2.87815E+03 -7.28215E+02  2.08699E+03 -1.06420E+03 -6.48237E+02  8.77857E+01 -2.00716E+03
  2.47288E+03 -8.80432E+02  3.20133E+03  1.75876E+03  1.43803E+03  3.56214E+03  7.68643E+02  4.80716E+03
 -3.52336E+03  4.49934E+03 -5.64919E+03  4.32740E+02 -4.99863E+03 -3.84102E+03 -1.00816E+03 -6.76051E+03
  4.85073E+03 -5.78138E+03  6.66745E+03 -1.86712E+03  6.70222E+03  1.73407E+03  3.35362E+03  5.76835E+03
  3.22121E+02  5.41701E+03 -1.87346E+03  4.56217E+03 -3.67042E+03  2.65962E+03 -3.21945E+03 -1.73711E+01
 -1.57300E+03 -1.47204E+02 -2.85171E+03  6.41767E+02 -3.26952E+03  9.98699E+02 -4.84689E+03 -7.87468E+02
 -4.09095E+03 -2.50215E+03 -1.89972E+03 -5.71224E+03  2.80958E+03 -6.53977E+03  5.19372E+03 -3.06411E+03
  5.45649E+03  8.35420E+02  2.73641E+03  4.09102E+03 -1.03248E+03  5.62713E+03 -4.72476E+03  3.31807E+03
