 $NMID ID='MM_0lb_SNR400_18hz_g60_26.RAW', FMTDAT='(8E13.5)'
 TRAMP=1., VOLUME=1. $END
  3.10265E+05  6.10272E+02  3.37540E+05  2.50749E+05  8.47249E+04  3.38168E+05 -1.32867E+05  2.51150E+05
 -1.89605E+05  8.27692E+04 -1.11525E+05 -3.26413E+04  1.25532E+03 -5.00457E+04  5.35301E+04 -8.47959E+01
  3.49988E+04  5.29358E+04 -1.69802E+04  7.52994E+04 -6.08994E+04  6.32883E+04 -8.35063E+04  3.18186E+04
 -8.07390E+04 -1.14022E+04 -5.70702E+04 -5.08516E+04 -1.53192E+04 -6.91861E+04  2.66942E+04 -4.55879E+04
  4.06793E+04  3.43237E+03  1.59054E+04  4.76083E+04 -3.44406E+04  4.71817E+04 -6.62588E+04 -3.24635E+02
 -5.26818E+04 -5.60834E+04 -6.93417E+03 -7.60628E+04  3.33317E+04 -5.41683E+04  4.74477E+04 -1.68330E+04
  4.32481E+04  1.10472E+04  3.10660E+04  2.50358E+04  1.55102E+04  2.90344E+04 -4.82372E+03  2.70703E+04
 -2.16589E+04  1.24150E+04 -1.90287E+04 -4.37752E+03  5.04627E+03 -7.37192E+03  2.24885E+04  1.13922E+04
  6.90079E+03  3.50828E+04 -3.20183E+04  3.46346E+04 -6.24709E+04  2.10701E+03 -5.63037E+04 -4.20343E+04
 -1.25499E+04 -6.21762E+04  3.89488E+04 -4.43781E+04  5.69595E+04 -2.63031E+03  3.36408E+04  3.17377E+04
 -5.77833E+03  3.48847E+04 -2.94723E+04  1.47207E+04 -2.94847E+04 -5.32792E+03 -1.58857E+04 -1.04530E+04
 -7.95988E+03 -1.19908E+04 -1.03091E+03 -1.78157E+04  7.43137E+03 -2.31214E+04  1.47515E+04 -1.34523E+04
  1.20963E+04  4.52648E+03 -7.56324E+03  1.30859E+04 -2.08546E+04 -4.18654E+03 -8.28105E+03 -3.22532E+04
  2.20383E+04 -4.24352E+04  4.72636E+04 -1.90149E+04  4.37874E+04  1.87589E+04  1.55883E+04  4.34411E+04
 -1.64378E+04  3.25828E+04 -2.46339E+04  1.48506E+03 -9.52081E+03 -2.75699E+04  2.10440E+04 -3.27080E+04
  4.00881E+04 -8.17656E+03  3.39830E+04  2.34436E+04  1.68824E+04  4.54843E+04 -7.58095E+03  4.83369E+04
 -3.06328E+04  3.22102E+04 -4.02545E+04  8.96513E+03 -4.09114E+04 -1.60321E+04 -2.28093E+04 -3.64828E+04
  7.38520E+03 -3.62021E+04  3.05254E+04 -1.39363E+04  2.82789E+04  1.10973E+04  3.44727E+03  1.80664E+04
 -1.34134E+04  8.16071E+03 -9.97305E+03 -7.68531E+03  5.96425E+03 -1.03798E+04  1.79242E+04  6.38677E+03
  1.25539E+04  2.15052E+04 -5.86187E+03  2.43444E+04 -2.22891E+04  1.04744E+04 -2.64785E+04 -5.54591E+03
 -1.87280E+04 -1.68451E+04 -7.01702E+03 -1.88816E+04  4.17713E+03 -1.75662E+04  1.41846E+04 -1.62712E+04
  2.33857E+04 -1.27746E+04  3.08526E+04  2.23484E+03  2.24668E+04  1.83423E+04  4.46490E+03  3.46024E+04
 -1.66731E+04  2.93407E+04 -2.69874E+04  9.94440E+03 -2.05380E+04 -1.03735E+04 -3.96193E+03 -1.33609E+04
  1.78094E+03 -3.33679E+03 -4.23922E+03  5.91834E+03 -1.53188E+04  5.05931E+03 -1.50430E+04 -6.17500E+03
 -9.68639E+03 -1.73078E+04  4.76808E+03 -2.13079E+04  1.39994E+04 -1.51571E+04  1.61766E+04 -1.30959E+03
  1.04350E+04  1.18861E+04 -7.35685E+02  1.76041E+04 -1.14969E+04  9.52320E+03 -1.62313E+04 -3.44142E+03
 -1.28349E+04 -1.56761E+04 -1.70819E+03 -2.07756E+04  9.71223E+03 -1.67515E+04  1.74603E+04 -8.73817E+03
  1.62805E+04  8.39048E+02  1.21541E+04  3.53007E+03  5.43220E+03  4.41763E+02  8.49641E+03 -1.26027E+03
  1.57932E+04  2.23122E+03  1.70188E+04  1.35214E+04  1.07762E+04  2.77256E+04 -3.46083E+03  3.03353E+04
 -1.72978E+04  2.35366E+04 -2.79389E+04  1.16425E+04 -2.88230E+04 -2.26702E+03 -2.42954E+04 -1.69687E+04
 -1.06544E+04 -2.40428E+04  7.56824E+03 -2.10168E+04  1.93602E+04 -1.21095E+04  1.71067E+04  4.03570E+03
  7.00245E+03  1.23170E+04 -8.32924E+03  1.11690E+04 -1.43741E+04  2.55487E+03 -1.09650E+04 -9.33444E+03
 -7.87348E+02 -1.35819E+04  6.95196E+03 -1.00553E+04  8.50575E+03 -8.65364E+02  2.03140E+03  5.35509E+03
 -6.27840E+03  1.55902E+03 -4.31269E+03 -4.81528E+03  5.13661E+02 -1.08654E+04  8.76745E+03 -1.15909E+04
  1.42766E+04 -6.17425E+03  1.40796E+04  2.59829E+03  1.18836E+04  1.10401E+04  5.75610E+03  1.61753E+04
 -2.25375E+03  1.82230E+04 -1.17329E+04  1.20831E+04 -1.24164E+04  3.38034E+03 -1.03157E+04 -2.94069E+03
 -4.91821E+03 -3.59269E+03 -5.56882E+02  1.67881E+03 -2.33350E+03  2.43729E+03 -4.05353E+03  4.01844E+03
 -9.11481E+03 -7.96906E+02 -9.84145E+03 -7.86516E+03 -4.02705E+03 -1.26390E+04  4.16982E+03 -9.02052E+03
  7.99278E+03 -4.07042E+03  6.20957E+03  2.22937E+03  8.94061E+02  3.10778E+03 -4.66755E+03 -3.88975E+01
 -4.44850E+03 -5.80933E+03 -1.36074E+03 -8.42609E+03  3.98057E+03 -9.27029E+03  1.10667E+04 -4.01999E+03
  1.31946E+04  1.06468E+03  9.93816E+03  7.18454E+03  2.02308E+03  9.53331E+03 -5.97310E+03  8.93197E+03
 -8.15153E+03  3.19319E+03 -4.00921E+03 -1.69701E+03  1.51635E+03 -1.57733E+03  4.57013E+03 -5.37024E+02
  4.15307E+03  4.25036E+03  1.02794E+03  6.55452E+03 -4.68762E+03  7.28216E+03 -8.53690E+03  1.08054E+03
 -5.92220E+03 -4.31976E+03  4.04573E+02 -7.69488E+03  4.45960E+03 -3.61957E+03  3.58082E+03  1.27699E+03
  5.23230E+02  3.74514E+03 -4.94354E+03  5.91438E+03 -5.84401E+03  2.87830E+03 -5.31629E+03 -1.74846E+03
 -3.39073E+03 -6.43918E+03  1.74263E+03 -8.11106E+03  7.02088E+03 -5.47836E+03  7.39107E+03  1.41977E+03
  5.57846E+03  6.38343E+03 -6.80219E+00  7.87583E+03 -6.01616E+03  4.61978E+03 -6.38988E+03 -8.90911E+02
 -6.76604E+03 -5.58652E+03 -1.53833E+03 -4.99050E+03  3.53340E+03 -5.25235E+03  3.22226E+03 -3.18232E+03
  3.00178E+03  6.60052E+02  2.89848E+02  8.17371E+02 -1.92905E+02 -5.00797E+02  2.85353E+02 -3.00789E+03
  4.47991E+03 -1.49176E+03  6.43872E+03  3.65650E+02  6.14636E+03  3.65347E+03  5.74412E+03  8.92839E+03
 -1.04361E+03  1.00314E+04 -8.70013E+03  7.88112E+03 -1.07413E+04  1.37668E+03 -8.90759E+03 -3.11935E+03
 -4.57112E+03 -7.50117E+03 -3.35327E+02 -5.82538E+03  2.48530E+03 -2.61360E+03  2.25686E+03 -2.34197E+03
  1.43114E+03 -1.96128E+03  2.86765E+03 -2.31689E+03  3.78555E+03 -1.89897E+03  3.86018E+03  6.24070E+02
  5.61830E+03  9.70317E+02  2.03979E+03  3.37014E+03 -1.53972E+03  3.75334E+03 -5.15593E+03  2.76868E+03
 -5.34038E+03 -9.32345E+02 -2.48431E+03 -3.58694E+03  3.77818E-01 -5.84066E+03  3.85535E+03 -6.27117E+03
  6.07844E+03 -4.09724E+03  7.57824E+03  4.28894E+02  5.62565E+03  4.98199E+03  7.69766E+02  6.93466E+03
 -2.33326E+03  6.91116E+03 -3.71626E+03  2.04662E+03 -2.53694E+03 -1.12680E+03 -6.42846E+02 -8.89048E+02
 -3.59676E+02  1.71776E+02 -1.02686E+03  2.26533E+03 -2.65199E+03  6.66567E+02 -4.78004E+03 -7.90463E+02
 -2.06219E+03 -4.30218E+03  1.12935E+03 -5.29607E+03  3.24809E+03 -5.16795E+03  4.19273E+03 -1.43244E+03
  4.78774E+03  2.96478E+03  1.62743E+03  4.14968E+03 -1.04784E+03  5.15752E+03 -2.61926E+03  2.94254E+03
 -4.55682E+03  3.16714E+02 -3.52107E+03 -2.35886E+03 -6.90664E+01 -3.53019E+03  1.77529E+03 -3.08173E+03
  2.79460E+03 -1.35490E+03  1.70369E+03  5.51851E+02  1.91946E+02  1.83848E+03  9.72896E+02  1.01886E+03
  1.59437E+03  8.51796E+02  7.60906E+02  8.70652E+02  1.46804E+03  2.23920E+03  1.35948E+03  2.05207E+03
 -1.33976E+03  3.52528E+03 -2.76961E+03  4.46850E+03 -3.55079E+03  1.34827E+03 -4.98700E+03 -3.77254E+02
 -2.09752E+03 -3.95598E+03  8.20412E+02 -5.67076E+03  2.65381E+03 -3.19434E+03  3.66368E+03 -8.56888E+02
  2.71829E+03  1.35211E+03  6.44286E+02  2.67839E+03 -7.15547E+02  1.45259E+03 -1.06574E+03 -1.46728E+02
 -6.14992E+02 -1.37291E+03  1.29354E+03 -1.33291E+03  1.14784E+03 -9.46882E+02  1.57968E+03  7.26123E+02
  9.53474E+02  3.46657E+02  9.93614E+02 -1.05787E+02  4.92825E+01  3.76197E+02  1.69768E+03  2.19105E+02
 -5.56743E+02  1.69821E+02  1.85070E+03  8.96672E+02  8.78314E+02  2.84276E+03 -2.97467E+02  3.27857E+03
 -1.47226E+03  9.15030E+02 -2.71249E+03  4.21021E+02 -2.03812E+03 -6.53021E+02 -1.26818E+02 -1.31670E+03
  3.81638E+02 -1.19488E+03  9.70301E+02 -5.57142E+02  9.37533E+02  1.28768E+03 -7.97306E+02  1.32760E+03
 -1.37140E+03  1.14376E+03 -1.11317E+03 -1.65975E+03 -7.05062E+02 -2.43622E+03 -2.06312E+02 -1.09438E+03
  6.95402E+02 -6.50648E+02  3.32994E+02  7.62035E+02  1.60305E+03 -3.14752E+02  4.80690E+02  1.39103E+03
 -5.60924E+02 -2.75122E+02 -1.03419E+03  8.98605E+01  7.77874E+02 -1.17919E+03  1.49102E+03 -1.21433E+03
  1.14011E+03  9.31015E+01  2.52976E+03  1.03565E+03  1.28374E+03  1.89183E+03 -8.93755E+02  2.26560E+03
 -1.46489E+03  5.18786E+02 -1.40865E+03 -4.04802E+02 -2.83606E+02 -1.52868E+03  5.49872E+02 -7.16435E+02
  1.04268E+03 -1.17478E+03  6.65337E+02  6.77401E+02  1.45698E+02  1.36518E+03  5.72099E+02  9.76611E+02
 -3.31674E+02  7.95104E+02  2.33276E+02  3.95901E+02 -6.98390E+02  2.90630E+02  5.02907E+01  4.74956E+02
 -2.86646E+02  9.60562E+02 -1.77773E+03  3.08059E+02 -1.92073E+03 -2.86002E+02 -2.57793E+03 -7.15634E+02
 -1.92776E+03 -2.55669E+03 -1.94341E+02 -3.00413E+03  9.48698E+02 -2.65801E+03  3.20261E+03 -4.17738E+02
  2.25665E+03  7.94351E+01  1.73392E+03  1.76853E+03 -6.17404E+02  1.66110E+03 -9.21281E+02  1.57973E+03
 -1.24329E+03  5.54075E+02 -1.03726E+03 -7.46858E+02 -1.11772E+03  2.24054E+02 -3.92017E+02 -2.19925E+02
 -9.40834E+02 -6.01040E+01 -5.56775E+02 -2.31917E+02  3.38763E+02 -3.88376E+02 -2.52083E+02 -1.00222E+03
  9.58656E+02 -8.79021E+02  5.48268E+02  2.16350E+02  1.84911E+03  4.46102E+02 -3.17249E+02  1.66383E+03
 -7.00562E+02  2.73648E+03 -1.60875E+03  1.27918E+03 -1.28906E+03 -6.21701E+02 -6.82494E+02 -1.12358E+03
 -7.97995E+02 -8.57840E+02  5.73529E+02 -1.22128E+03  4.46852E+01 -1.01158E+03  6.03594E+02  4.24684E+02
  8.64860E+02 -1.55958E+02  2.46554E+02  2.37001E+02 -4.41967E+02 -2.44791E+02  2.91461E+01  1.49264E+02
  8.30033E+02  7.38291E+02  9.76419E+02  1.44563E+02  7.42417E+02  2.50106E+02  6.72072E+02  1.47543E+02
 -1.30055E+03  6.24708E+02 -9.42374E+02 -1.04151E+02 -7.58894E+02 -5.69615E+02  1.91598E+01 -1.35851E+03
  5.45508E+01 -7.66603E+02  3.80488E+02 -2.61633E+02  1.02808E+03 -1.04858E+02  1.20467E+03  8.26518E+02
  6.56947E+02  7.94582E+02  1.14578E+02  7.16502E+02 -4.10427E+02  1.89558E+02 -1.03784E+02  3.71167E+02
 -4.44285E+02 -5.09276E+02 -7.77795E+02  2.57837E+02 -1.05446E+03  4.51150E+02 -5.32536E+02 -5.29257E+02
 -1.50231E+03  8.05767E+02 -1.57394E+02 -1.52570E+03  7.99413E+02 -2.13127E+03  5.51537E+02  2.55817E+02
  5.05146E+02  3.34789E+02 -2.82833E+02  6.40407E+01 -9.18298E+00  4.66858E+02 -8.74991E+01  7.72226E+02
