 $NMID ID='MM_0lb_SNR400_14hz_g60_60.RAW', FMTDAT='(8E13.5)'
 TRAMP=1., VOLUME=1. $END
  3.09951E+05  8.42121E+02  3.37902E+05  2.50933E+05  8.50455E+04  3.37885E+05 -1.32185E+05  2.51367E+05
 -1.91210E+05  8.29892E+04 -1.12152E+05 -3.22720E+04  1.03383E+03 -5.07299E+04  5.37983E+04 -1.13228E+02
  3.58663E+04  5.30182E+04 -1.68942E+04  7.57077E+04 -6.07848E+04  6.34371E+04 -8.53656E+04  3.19658E+04
 -8.12620E+04 -1.17398E+04 -5.76009E+04 -5.19625E+04 -1.52328E+04 -6.93485E+04  2.78460E+04 -4.60126E+04
  4.07163E+04  4.06625E+03  1.69338E+04  4.81235E+04 -3.50132E+04  4.72991E+04 -6.69123E+04  4.21980E+02
 -5.39429E+04 -5.70725E+04 -7.48077E+03 -7.82321E+04  3.47147E+04 -5.60503E+04  4.92300E+04 -1.81669E+04
  4.43367E+04  1.13696E+04  3.26378E+04  2.59816E+04  1.64475E+04  2.95621E+04 -5.70911E+03  2.74087E+04
 -2.24413E+04  1.23081E+04 -1.83833E+04 -4.86023E+03  5.79794E+03 -7.63723E+03  2.35095E+04  1.29954E+04
  7.30999E+03  3.55722E+04 -3.25396E+04  3.66687E+04 -6.49676E+04  1.73720E+03 -5.77366E+04 -4.35035E+04
 -1.25579E+04 -6.39860E+04  4.04845E+04 -4.60454E+04  5.93294E+04 -1.97986E+03  3.54467E+04  3.23605E+04
 -5.47938E+03  3.79529E+04 -3.09117E+04  1.65781E+04 -3.14143E+04 -4.10905E+03 -1.72962E+04 -1.10948E+04
 -8.44114E+03 -1.39330E+04 -7.68723E+02 -1.87697E+04  7.53509E+03 -2.33308E+04  1.55944E+04 -1.27784E+04
  1.08285E+04  5.36544E+03 -9.78506E+03  1.30390E+04 -2.20860E+04 -5.01701E+03 -8.35526E+03 -3.52720E+04
  2.32886E+04 -4.41819E+04  4.90522E+04 -1.91608E+04  4.62807E+04  1.94849E+04  1.64441E+04  4.51733E+04
 -1.64187E+04  3.43475E+04 -2.61810E+04  2.64775E+03 -1.01390E+04 -2.81969E+04  2.11574E+04 -3.48449E+04
  4.21473E+04 -9.57188E+03  3.69271E+04  2.40132E+04  1.98274E+04  4.83336E+04 -8.28841E+03  5.18348E+04
 -3.29446E+04  3.55009E+04 -4.39484E+04  9.43763E+03 -4.49036E+04 -1.74258E+04 -2.49052E+04 -3.92861E+04
  7.50677E+03 -3.94878E+04  3.24599E+04 -1.53161E+04  2.95851E+04  1.09434E+04  4.24369E+03  1.97244E+04
 -1.38101E+04  8.62823E+03 -1.07970E+04 -7.74076E+03  5.96495E+03 -1.13089E+04  1.89023E+04  6.29816E+03
  1.39959E+04  2.25489E+04 -5.57194E+03  2.59693E+04 -2.25983E+04  1.22281E+04 -2.95807E+04 -4.49451E+03
 -2.19544E+04 -1.80614E+04 -9.13634E+03 -2.17704E+04  4.05987E+03 -2.23943E+04  1.63443E+04 -1.97427E+04
  2.76130E+04 -1.31279E+04  3.45384E+04  3.19347E+03  2.47402E+04  2.12916E+04  3.97376E+03  3.70436E+04
 -1.83153E+04  3.14971E+04 -2.88909E+04  1.08512E+04 -2.09487E+04 -1.04741E+04 -4.00462E+03 -1.34064E+04
  9.62665E+02 -3.07486E+03 -5.85511E+03  7.22576E+03 -1.72164E+04  5.94274E+03 -1.78665E+04 -7.67383E+03
 -1.07926E+04 -2.04508E+04  4.92961E+03 -2.44896E+04  1.64911E+04 -1.68369E+04  1.99038E+04 -1.28531E+03
  1.28914E+04  1.38867E+04 -1.30463E+03  2.00413E+04 -1.39383E+04  1.11511E+04 -1.96865E+04 -4.29895E+03
 -1.42649E+04 -1.76927E+04 -2.43342E+03 -2.39719E+04  1.03976E+04 -2.05847E+04  2.02700E+04 -9.28570E+03
  1.89295E+04  1.85670E+02  1.34045E+04  4.70348E+03  7.36806E+03  7.61135E+02  9.84552E+03 -1.52941E+03
  1.88912E+04  3.66921E+03  2.08871E+04  1.58846E+04  1.40280E+04  3.23339E+04 -3.15776E+03  3.70568E+04
 -2.08662E+04  2.94087E+04 -3.45106E+04  1.46522E+04 -3.55066E+04 -3.25060E+03 -2.97833E+04 -2.13893E+04
 -1.20588E+04 -3.00561E+04  1.01519E+04 -2.72072E+04  2.31527E+04 -1.38321E+04  2.05938E+04  5.99410E+03
  6.90143E+03  1.57299E+04 -9.85989E+03  1.30403E+04 -1.69505E+04  2.85089E+03 -1.32364E+04 -1.10782E+04
 -1.04524E+02 -1.60240E+04  8.09487E+03 -1.20443E+04  1.11672E+04 -1.64526E+03  2.55506E+03  6.00533E+03
 -6.83998E+03  3.18204E+03 -7.18471E+03 -6.03598E+03 -1.09930E+03 -1.51420E+04  1.03171E+04 -1.57952E+04
  1.82353E+04 -8.44860E+03  1.95505E+04  3.01493E+03  1.67858E+04  1.45593E+04  8.22899E+03  2.21236E+04
 -3.64307E+03  2.44723E+04 -1.52296E+04  1.49694E+04 -1.68747E+04  2.70089E+03 -1.29069E+04 -3.90830E+03
 -5.30245E+03 -6.02563E+03 -6.98676E+02  5.96177E+02 -2.38275E+03  2.59289E+03 -5.50169E+03  4.56526E+03
 -1.14453E+04 -5.39428E+02 -1.16468E+04 -8.89796E+03 -5.57742E+03 -1.55903E+04  4.98324E+03 -1.17296E+04
  1.01342E+04 -4.97056E+03  7.02977E+03  3.16957E+03  1.01526E+02  4.65897E+03 -5.93669E+03  2.22462E+02
 -5.61801E+03 -7.15726E+03 -2.21157E+02 -1.12936E+04  7.01848E+03 -1.23198E+04  1.46918E+04 -7.09035E+03
  1.80208E+04  1.28709E+03  1.32900E+04  1.06538E+04  2.62548E+03  1.47775E+04 -8.20219E+03  1.15631E+04
 -1.01877E+04  3.43384E+03 -4.44970E+03 -1.94518E+03  1.39114E+03 -3.66207E+03  6.10046E+03 -1.31593E+03
  5.26814E+03  5.08098E+03  3.15252E+02  9.80708E+03 -6.75543E+03  9.42970E+03 -1.16517E+04  2.21795E+03
 -7.45097E+03 -5.89071E+03 -3.34145E+02 -9.96498E+03  6.30269E+03 -5.01684E+03  6.79878E+03  1.59517E+03
  1.16158E+03  7.17889E+03 -5.74193E+03  8.31527E+03 -9.31017E+03  3.92620E+03 -9.15098E+03 -3.28948E+03
 -5.26152E+03 -1.08254E+04  3.45686E+03 -1.23059E+04  1.01674E+04 -7.78496E+03  1.17843E+04  2.05820E+03
  7.35319E+03  9.75360E+03 -8.90835E+02  1.15257E+04 -8.13979E+03  6.76152E+03 -8.71402E+03 -1.19500E+03
 -7.78476E+03 -7.86380E+03 -8.66091E+02 -8.29962E+03  4.12221E+03 -7.10746E+03  5.04279E+03 -2.93812E+03
  3.80915E+03  1.20964E+03 -8.60605E+01  1.40365E+03  2.14898E+01 -1.48360E+03  1.80452E+03 -4.35495E+03
  7.66259E+03 -3.02192E+03  1.06758E+04  1.07056E+03  1.06151E+04  7.09765E+03  7.46907E+03  1.34258E+04
 -2.56682E+03  1.56558E+04 -1.31100E+04  1.15956E+04 -1.69878E+04  2.44719E+03 -1.42038E+04 -5.33983E+03
 -7.33274E+03 -1.16519E+04  2.05293E+02 -9.59830E+03  3.63041E+03 -5.45167E+03  3.56793E+03 -3.77951E+03
  2.68170E+03 -2.40600E+03  3.10505E+03 -2.60667E+03  4.55741E+03 -2.13893E+03  6.25696E+03 -4.26949E+02
  7.07157E+03  1.65950E+03  2.60718E+03  6.74581E+03 -1.97316E+03  6.69252E+03 -7.26082E+03  5.59193E+03
 -9.07094E+03 -1.48018E+03 -5.84489E+03 -6.35875E+03  8.58987E+00 -9.55768E+03  5.30517E+03 -1.02517E+04
  1.01163E+04 -5.29380E+03  1.20874E+04  1.29312E+03  9.20163E+03  7.66503E+03  1.99870E+03  1.16652E+04
 -4.45798E+03  9.91998E+03 -6.82816E+03  3.51255E+03 -4.53183E+03 -6.94236E+02 -1.63103E+03 -1.33175E+03
 -9.35838E+02  7.16978E+02 -2.11851E+03  2.13809E+03 -3.93411E+03  1.32752E+03 -6.42036E+03 -7.94257E+01
 -3.73858E+03 -6.74592E+03 -3.55179E+02 -8.71845E+03  4.92070E+03 -7.55155E+03  8.72314E+03 -2.42904E+03
  8.09567E+03  4.05994E+03  3.29224E+03  7.66399E+03 -1.67911E+03  9.03225E+03 -5.82913E+03  5.14982E+03
 -7.25342E+03  5.95524E+02 -6.67549E+03 -4.72325E+03 -9.64802E+02 -7.24468E+03  3.74953E+03 -5.49222E+03
  5.75400E+03 -2.10081E+03  3.76951E+03  1.21954E+03  1.19925E+03  2.51296E+03  7.50011E+02  6.94382E+02
  2.59334E+03  1.03376E+03  2.49551E+03  1.23735E+03  1.95395E+03  3.07232E+03  2.66233E+03  4.14414E+03
 -1.55446E+03  6.17105E+03 -5.37968E+03  7.29640E+03 -7.88493E+03  1.98484E+03 -8.52293E+03 -2.65087E+03
 -3.70294E+03 -8.88592E+03  8.23434E+02 -9.74077E+03  5.44011E+03 -5.86983E+03  7.32152E+03 -1.37290E+03
  5.42983E+03  3.41633E+03  9.87206E+02  5.01507E+03 -2.00880E+03  2.47752E+03 -2.76522E+03 -3.66855E+02
 -1.15199E+03 -3.94500E+03  1.18055E+03 -3.07183E+03  3.60676E+03 -2.60664E+03  2.73424E+03  1.74462E+03
  1.87634E+03  1.74902E+03  1.76201E+03  5.53340E+02 -5.03823E+02  1.12508E+03  1.28512E+03 -5.38539E+02
  1.21650E+03 -2.49266E+02  3.21438E+03  1.20089E+03  1.74361E+03  4.41242E+03 -7.48514E+02  6.13608E+03
 -3.61617E+03  2.96696E+03 -4.95533E+03  9.51811E+02 -4.39268E+03 -1.09500E+03 -9.90102E+02 -2.34689E+03
  3.73188E+02 -3.08520E+03  2.13810E+03 -1.36176E+03  2.34975E+03  1.20792E+03 -9.40035E+02  2.89653E+03
 -3.25969E+03  1.45325E+03 -2.96221E+03 -1.48436E+03 -1.87142E+03 -4.97053E+03  5.54330E+02 -4.24636E+03
  2.42953E+03 -1.85923E+03  2.80776E+03  9.52683E+01  2.55883E+03  8.28379E+02  3.25024E+02  2.08063E+03
 -9.67357E+02  1.80115E+02 -1.69181E+03 -9.66011E+02  1.44719E+03 -2.60647E+03  4.06535E+03 -2.15276E+03
  3.58385E+03  7.59436E+02  4.90492E+03  2.36818E+03  1.58003E+03  3.68175E+03 -1.53696E+03  4.35690E+03
 -2.79218E+03  1.45148E+03 -4.10873E+03 -2.68528E+02 -2.39681E+03 -3.01106E+03  6.27360E+02 -1.88884E+03
  3.52565E+03 -1.62911E+03  2.58867E+03  1.61654E+03  5.58943E+02  2.84835E+03  1.26538E+02  3.17051E+03
 -1.15749E+03  1.52822E+03 -8.45636E+02  6.82302E+02 -7.38997E+02  6.63589E+02 -1.38673E+03  1.05595E+03
 -1.55378E+03  2.26101E+03 -3.12815E+03  1.39987E+03 -3.92257E+03  5.14534E+02 -5.21649E+03 -3.30820E+03
 -2.27228E+03 -5.73429E+03  1.60966E+03 -6.65617E+03  3.78452E+03 -5.93426E+03  6.51544E+03 -2.48379E+03
  6.20512E+03  2.42604E+02  3.10858E+03  4.53603E+03 -2.53594E+01  4.57481E+03 -1.49302E+03  3.20771E+03
 -2.76884E+03  1.48720E+03 -1.43779E+03 -5.64801E+02 -7.05747E+02  2.18426E+02 -1.32665E+03 -1.97010E+02
 -6.19280E+02  1.28257E+02 -1.46999E+03 -3.99050E+02 -4.91238E+02 -1.93775E+03 -9.26305E+01 -1.75022E+03
  2.28874E+03 -1.42003E+03  2.35244E+03  4.18090E+01  2.69518E+03  2.16281E+03  2.06610E+02  3.68453E+03
 -2.35077E+03  4.63935E+03 -4.13185E+03  3.27358E+03 -4.41106E+03 -1.01178E+03 -3.55557E+03 -3.98450E+03
 -2.23051E+03 -3.90182E+03  9.56490E+02 -2.92960E+03  1.66060E+03 -2.66831E+03  2.22690E+03  8.32852E+02
  1.69876E+03  1.48511E+03 -1.67107E+02  8.34619E+02 -5.93210E+02 -7.25588E+02 -1.37557E+02 -1.16775E+03
  9.88671E+02 -1.31226E+02  1.18338E+03  9.34661E+02  6.50014E+02  1.37607E+03  1.94024E+02  1.06968E+03
 -1.85303E+03  1.53524E+03 -2.79800E+03  1.08670E+02 -2.48176E+03 -1.53344E+03  4.78338E+02 -3.16978E+03
  1.58804E+03 -2.36481E+03  2.56284E+03  7.07937E+01  2.82124E+03  2.86855E+02  1.81505E+03  2.26489E+03
  5.23818E+02  2.55400E+03 -9.27563E+02  1.37969E+03 -1.57638E+03  1.55648E+03 -4.39578E+02 -5.68744E+01
 -6.34103E+02 -3.20317E+02 -9.99179E+02  5.20732E+02 -1.56963E+03  9.50275E+02 -1.98445E+03 -3.91444E+02
 -2.29244E+03 -4.71303E+02 -1.30288E+02 -2.24127E+03  1.46314E+03 -2.58014E+03  2.38650E+03 -9.85053E+02
  1.61524E+03  4.98938E+02  7.64038E+02  8.77107E+02 -3.64936E+02  2.13894E+03 -1.02507E+03  1.66230E+03
