 $NMID ID='MM_0lb_SNR400_12hz_g60_20.RAW', FMTDAT='(8E13.5)'
 TRAMP=1., VOLUME=1. $END
  3.10396E+05  2.12980E+02  3.37792E+05  2.50253E+05  8.51669E+04  3.38679E+05 -1.32408E+05  2.50859E+05
 -1.90460E+05  8.36139E+04 -1.12112E+05 -3.21691E+04  6.58938E+02 -5.08900E+04  5.44276E+04  4.65685E+02
  3.53685E+04  5.28808E+04 -1.65573E+04  7.54124E+04 -6.10802E+04  6.50070E+04 -8.52969E+04  3.22388E+04
 -8.18687E+04 -1.21541E+04 -5.79412E+04 -5.19736E+04 -1.53239E+04 -7.13381E+04  2.76797E+04 -4.64147E+04
  4.12504E+04  3.97525E+03  1.67901E+04  4.91257E+04 -3.39808E+04  4.67974E+04 -6.76856E+04 -3.21267E+02
 -5.41546E+04 -5.82903E+04 -7.09586E+03 -7.85498E+04  3.44893E+04 -5.56629E+04  4.94341E+04 -1.79774E+04
  4.42628E+04  1.15072E+04  3.25947E+04  2.62687E+04  1.55385E+04  3.02316E+04 -6.19022E+03  2.73292E+04
 -2.24574E+04  1.19203E+04 -1.79021E+04 -5.75323E+03  6.93229E+03 -7.10443E+03  2.31303E+04  1.38737E+04
  7.39323E+03  3.73619E+04 -3.34582E+04  3.68409E+04 -6.59996E+04  2.30951E+03 -5.79278E+04 -4.36895E+04
 -1.29396E+04 -6.47133E+04  4.07973E+04 -4.70338E+04  5.99188E+04 -2.95986E+03  3.55708E+04  3.42054E+04
 -5.21587E+03  3.82820E+04 -3.04493E+04  1.89994E+04 -3.24632E+04 -4.41095E+03 -1.87832E+04 -1.15253E+04
 -8.96155E+03 -1.47741E+04 -1.15530E+03 -1.98854E+04  8.13677E+03 -2.36697E+04  1.48454E+04 -1.23015E+04
  1.08104E+04  6.21420E+03 -9.19516E+03  1.35366E+04 -2.20312E+04 -5.80299E+03 -8.40010E+03 -3.58009E+04
  2.41230E+04 -4.59729E+04  5.08827E+04 -2.01873E+04  4.77986E+04  2.02706E+04  1.66380E+04  4.63226E+04
 -1.64542E+04  3.54647E+04 -2.72217E+04  2.16112E+03 -1.11578E+04 -2.87282E+04  2.08533E+04 -3.61623E+04
  4.32436E+04 -9.88121E+03  3.91869E+04  2.40676E+04  2.01633E+04  4.98858E+04 -8.80901E+03  5.39299E+04
 -3.37218E+04  3.69516E+04 -4.57705E+04  1.03235E+04 -4.63309E+04 -1.82772E+04 -2.56032E+04 -4.08094E+04
  7.43223E+03 -4.07257E+04  3.37266E+04 -1.66009E+04  3.12518E+04  1.04214E+04  4.75348E+03  1.99080E+04
 -1.35549E+04  8.88440E+03 -1.07362E+04 -7.21458E+03  5.83675E+03 -1.13123E+04  1.79061E+04  6.02463E+03
  1.49602E+04  2.22912E+04 -4.76965E+03  2.63333E+04 -2.32953E+04  1.36816E+04 -3.03370E+04 -3.74946E+03
 -2.37638E+04 -1.84189E+04 -1.02249E+04 -2.30357E+04  4.51225E+03 -2.33843E+04  1.89013E+04 -2.13041E+04
  3.07184E+04 -1.40846E+04  3.61012E+04  4.26825E+03  2.54005E+04  2.32630E+04  4.55692E+03  3.96208E+04
 -1.84926E+04  3.28242E+04 -3.04203E+04  1.06826E+04 -2.22187E+04 -9.66319E+03 -4.21603E+03 -1.29541E+04
  9.29741E+02 -1.64321E+03 -6.19663E+03  8.01224E+03 -1.83926E+04  4.92651E+03 -1.91200E+04 -8.79026E+03
 -1.18396E+04 -2.17342E+04  5.71249E+03 -2.61540E+04  1.74690E+04 -1.80865E+04  2.05444E+04 -1.63714E+03
  1.35329E+04  1.48381E+04 -8.90246E+02  2.17154E+04 -1.53590E+04  1.29174E+04 -2.14962E+04 -4.51361E+03
 -1.53957E+04 -1.92490E+04 -2.30252E+03 -2.61777E+04  1.19300E+04 -2.16996E+04  2.11588E+04 -1.13417E+04
  2.05567E+04  1.70783E+02  1.49546E+04  4.20142E+03  8.00407E+03  1.04955E+03  1.13603E+04 -2.23384E+03
  1.99639E+04  3.13860E+03  2.22445E+04  1.72602E+04  1.50594E+04  3.45210E+04 -3.51627E+03  3.99039E+04
 -2.30368E+04  3.28418E+04 -3.79163E+04  1.69316E+04 -4.11688E+04 -2.93890E+03 -3.29981E+04 -2.38319E+04
 -1.35622E+04 -3.42447E+04  1.24337E+04 -2.97307E+04  2.56058E+04 -1.46619E+04  2.23135E+04  6.92017E+03
  7.22422E+03  1.69076E+04 -1.09276E+04  1.44334E+04 -1.83334E+04  2.97038E+03 -1.42490E+04 -1.14420E+04
 -7.12639E+02 -1.76943E+04  9.17374E+03 -1.29862E+04  1.18628E+04 -1.40533E+03  2.61802E+03  8.31789E+03
 -8.09115E+03  3.68615E+03 -8.15784E+03 -6.35707E+03 -1.60207E+03 -1.56341E+04  1.06838E+04 -1.74145E+04
  2.04684E+04 -9.25759E+03  2.27925E+04  3.93988E+03  1.99081E+04  1.67655E+04  9.16691E+03  2.56486E+04
 -4.14997E+03  2.72048E+04 -1.74993E+04  1.67271E+04 -1.96440E+04  4.26010E+03 -1.44211E+04 -4.71077E+03
 -6.43219E+03 -6.28558E+03  6.55048E+02  7.30630E+02 -2.07350E+03  2.92594E+03 -6.39119E+03  4.24303E+03
 -1.26967E+04 -5.36597E+02 -1.35049E+04 -1.10489E+04 -5.37131E+03 -1.76068E+04  5.46780E+03 -1.36273E+04
  1.18319E+04 -5.48914E+03  7.38028E+03  3.10028E+03  1.52346E+02  5.77584E+03 -6.69232E+03 -6.36918E+01
 -6.70446E+03 -8.88020E+03 -1.38050E+03 -1.34731E+04  7.84654E+03 -1.42843E+04  1.71665E+04 -6.72637E+03
  2.02420E+04  1.45504E+03  1.49722E+04  1.23824E+04  3.37943E+03  1.63226E+04 -9.09895E+03  1.38964E+04
 -1.03199E+04  3.52730E+03 -6.29522E+03 -2.72873E+03  1.58826E+03 -3.77044E+03  7.30017E+03 -1.01774E+03
  6.00408E+03  5.94166E+03  1.34770E+03  1.07695E+04 -8.06386E+03  1.11377E+04 -1.34182E+04  2.71473E+03
 -8.92193E+03 -6.91482E+03  2.65215E+02 -1.13639E+04  7.48415E+03 -5.81061E+03  8.12923E+03  2.78332E+03
  1.99894E+03  9.06144E+03 -7.36856E+03  9.69025E+03 -1.17043E+04  5.20552E+03 -1.10581E+04 -3.23697E+03
 -6.00124E+03 -1.32425E+04  3.23484E+03 -1.50303E+04  1.33590E+04 -9.22667E+03  1.34270E+04  2.03615E+03
  8.93023E+03  1.15076E+04 -1.10443E+03  1.31640E+04 -9.88025E+03  7.91692E+03 -1.06213E+04 -7.87915E+02
 -8.68352E+03 -9.39372E+03 -1.57362E+03 -9.04167E+03  4.92808E+03 -8.70931E+03  6.27385E+03 -3.71714E+03
  4.31513E+03  1.40813E+03 -6.73998E+02  2.19438E+03 -1.52799E+02 -2.56613E+03  1.60962E+03 -5.55855E+03
  9.50980E+03 -3.61975E+03  1.31374E+04  1.71003E+03  1.27139E+04  8.35911E+03  8.96923E+03  1.67336E+04
 -3.16467E+03  1.97729E+04 -1.70692E+04  1.37251E+04 -2.17097E+04  3.19543E+03 -1.57774E+04 -7.29532E+03
 -8.24797E+03 -1.33982E+04  5.89857E+02 -1.19796E+04  3.56980E+03 -6.72628E+03  4.60916E+03 -4.61686E+03
  2.70037E+03 -2.66880E+03  4.61050E+03 -4.06765E+03  5.02945E+03 -3.10562E+03  6.02489E+03 -3.09015E+02
  8.73595E+03  2.38996E+03  4.27665E+03  7.70623E+03 -2.23490E+03  8.64593E+03 -9.28142E+03  6.31208E+03
 -1.10483E+04 -1.30339E+03 -7.28633E+03 -8.15425E+03 -7.99586E+02 -1.18342E+04  6.76330E+03 -1.25078E+04
  1.22768E+04 -6.92437E+03  1.51281E+04  1.68576E+03  1.16631E+04  1.03929E+04  1.33343E+03  1.36304E+04
 -5.84933E+03  1.15254E+04 -8.06667E+03  3.60855E+03 -5.20432E+03 -1.16676E+03 -2.33230E+03 -2.00444E+03
 -7.68820E+02 -1.80075E+02 -1.91916E+03  2.42842E+03 -4.42184E+03  1.41389E+03 -7.36432E+03 -1.26739E+03
 -5.25707E+03 -8.04351E+03 -8.02508E+01 -1.08584E+04  7.35629E+03 -1.02802E+04  1.10836E+04 -2.83599E+03
  1.03457E+04  4.99421E+03  5.06246E+03  1.01616E+04 -2.44961E+03  1.16214E+04 -8.03002E+03  7.51407E+03
 -1.14705E+04  6.66821E+01 -8.15358E+03 -6.50835E+03 -4.88135E+02 -9.65927E+03  5.14797E+03 -6.41317E+03
  7.24196E+03 -2.78027E+03  4.36695E+03  1.89145E+03  1.65972E+03  3.64382E+03  1.44650E+03  1.89195E+03
  2.04157E+03  8.76344E+02  2.50429E+03  2.14354E+03  2.60157E+03  4.49980E+03  2.53137E+03  5.69740E+03
 -2.43701E+03  7.93403E+03 -7.94736E+03  9.05846E+03 -9.87125E+03  2.51045E+03 -1.13687E+04 -3.92539E+03
 -4.41873E+03 -1.15954E+04  1.37832E+03 -1.23448E+04  6.25400E+03 -7.54204E+03  8.50208E+03 -1.30574E+03
  7.49572E+03  4.47954E+03  1.74216E+03  6.97771E+03 -2.72265E+03  3.27800E+03 -4.14332E+03 -9.14236E+02
 -1.79821E+03 -4.48554E+03  2.31935E+03 -5.02517E+03  4.62231E+03 -2.37359E+03  4.53785E+03  9.25896E+02
  2.06217E+03  1.82572E+03  5.91151E+02  1.59094E+03 -1.12017E+03  2.37605E+03  1.76958E+03  1.30922E+02
  1.31581E+03 -1.11057E+03  4.91062E+03  1.37927E+03  2.49126E+03  6.27296E+03 -4.06858E+02  8.12323E+03
 -4.60122E+03  4.99714E+03 -6.85946E+03  1.35111E+03 -6.35251E+03 -2.78071E+03 -2.78258E+03 -3.68370E+03
  6.00835E+02 -4.19334E+03  3.03551E+03 -1.35995E+03  2.70367E+03  2.89657E+03 -1.36666E+03  3.59724E+03
 -4.35336E+03  2.35623E+03 -4.70798E+03 -2.65517E+03 -2.95923E+03 -5.44382E+03  1.21615E+03 -5.22558E+03
  3.31470E+03 -3.45917E+03  4.21761E+03  1.11850E+01  4.04235E+03  1.30026E+03 -1.70984E+02  2.93202E+03
 -2.36945E+03  1.15128E+03 -2.76862E+03 -1.75266E+03  1.20063E+03 -4.29179E+03  5.27208E+03 -3.63089E+03
  6.30015E+03  2.92578E+02  6.46458E+03  4.19220E+03  2.26137E+03  6.30784E+03 -2.29212E+03  6.21076E+03
 -4.97749E+03  2.41714E+03 -5.61210E+03 -4.95896E+02 -3.49154E+03 -4.22150E+03  5.49103E+02 -3.49310E+03
  4.07552E+03 -1.63732E+03  2.81956E+03  1.58530E+03  1.01435E+03  3.81822E+03 -6.42978E+02  3.30443E+03
 -1.68411E+03  2.38672E+03 -1.64288E+03  8.08077E+02 -1.35943E+03  8.08201E+02 -1.29211E+03  1.66441E+03
 -1.16991E+03  2.12966E+03 -4.44165E+03  2.10111E+03 -6.17968E+03 -8.49441E+01 -7.43472E+03 -3.76823E+03
 -3.59741E+03 -8.46242E+03  1.47787E+03 -9.57114E+03  5.93134E+03 -7.79839E+03  9.19404E+03 -3.21880E+03
  8.69145E+03  1.88039E+03  5.33216E+03  5.47746E+03  4.57116E+02  6.32938E+03 -2.46534E+03  5.00003E+03
 -3.55816E+03  1.69071E+03 -2.69977E+03 -1.05921E+03 -1.10387E+03  1.59285E+02 -5.22287E+02 -1.71563E+02
 -1.87983E+03 -1.20181E+02 -1.68948E+03  3.94693E+01 -2.94406E+02 -6.64065E+02  5.40185E+02 -2.60084E+03
  3.95617E+03 -1.92679E+03  4.47923E+03  4.00092E+02  4.45435E+03  3.77721E+03  7.15435E+02  6.53650E+03
 -2.90301E+03  7.63212E+03 -7.24428E+03  4.63199E+03 -7.55854E+03 -1.07409E+03 -5.50971E+03 -5.10580E+03
 -2.27534E+03 -6.18754E+03  1.41806E+03 -5.58528E+03  4.02976E+03 -3.15201E+03  3.87236E+03  4.87209E+02
  2.61523E+03  2.39114E+03 -3.56028E+02  2.00942E+03 -1.68674E+03 -2.61809E+02 -1.11001E+03 -1.59462E+03
  1.86849E+03 -8.20516E+02  2.12308E+03  1.26539E+03  2.03132E+03  1.71755E+03 -6.18573E+02  3.13840E+03
 -3.01060E+03  3.39235E+03 -3.89757E+03  1.74503E+02 -3.76686E+03 -2.49836E+03 -3.74548E+02 -4.48954E+03
  2.84337E+03 -4.33753E+03  4.35603E+03 -1.63011E+03  4.73400E+03  8.06838E+02  2.45109E+03  3.84594E+03
  6.51567E+02  3.69683E+03 -1.95219E+03  3.70432E+03 -2.51390E+03  1.96630E+03 -2.44571E+03  6.41188E+02
 -1.05599E+03 -6.74355E+02 -1.22423E+03  4.31598E+02 -2.00200E+03  1.18566E+03 -3.73211E+03 -9.67096E+02
 -2.91174E+03 -1.89558E+03 -1.17750E+03 -3.76890E+03  2.27037E+03 -4.66146E+03  3.67978E+03 -2.14729E+03
  3.21526E+03 -9.29256E+00  2.17754E+03  2.68466E+03 -6.58672E+02  4.17111E+03 -2.48037E+03  2.20527E+03
