 $NMID ID='MM_0lb_SNR400_7hz_g40_76.RAW', FMTDAT='(8E13.5)'
 TRAMP=1., VOLUME=1. $END
  3.08771E+05  1.20471E+03  3.37717E+05  2.51683E+05  8.56132E+04  3.39047E+05 -1.33455E+05  2.51392E+05
 -1.90538E+05  8.40008E+04 -1.13423E+05 -3.24324E+04 -1.48735E+02 -5.07567E+04  5.41059E+04 -7.43945E+02
  3.45913E+04  5.30326E+04 -1.59435E+04  7.62668E+04 -6.22589E+04  6.51693E+04 -8.50464E+04  3.27003E+04
 -8.22366E+04 -1.22223E+04 -5.91498E+04 -5.29608E+04 -1.38738E+04 -7.09738E+04  2.77005E+04 -4.58659E+04
  4.16380E+04  4.51373E+03  1.67621E+04  4.88162E+04 -3.51550E+04  4.86121E+04 -6.82795E+04 -1.20653E+02
 -5.51264E+04 -5.78641E+04 -7.05866E+03 -7.99476E+04  3.60377E+04 -5.73981E+04  5.00032E+04 -1.93154E+04
  4.49232E+04  1.14338E+04  3.29493E+04  2.74030E+04  1.66766E+04  3.09575E+04 -6.49079E+03  2.78678E+04
 -2.18537E+04  1.17104E+04 -1.78521E+04 -5.25019E+03  7.61108E+03 -8.56879E+03  2.38136E+04  1.41705E+04
  7.14153E+03  3.80088E+04 -3.47440E+04  3.73515E+04 -6.63861E+04  1.86626E+03 -5.88044E+04 -4.52321E+04
 -1.25537E+04 -6.58391E+04  4.21308E+04 -4.85017E+04  6.17333E+04 -2.39805E+03  3.71954E+04  3.57003E+04
 -5.78312E+03  3.96962E+04 -3.30033E+04  1.91134E+04 -3.45581E+04 -2.84514E+03 -2.02978E+04 -1.17237E+04
 -9.86677E+03 -1.55853E+04 -3.24811E+02 -2.05538E+04  8.64378E+03 -2.48832E+04  1.68490E+04 -1.27391E+04
  9.42239E+03  7.07992E+03 -1.12685E+04  1.29275E+04 -2.41896E+04 -7.05070E+03 -7.85122E+03 -3.74725E+04
  2.57422E+04 -4.73777E+04  5.33484E+04 -2.08490E+04  4.92613E+04  2.16875E+04  1.76030E+04  4.71719E+04
 -1.73600E+04  3.70562E+04 -2.82126E+04  2.83110E+03 -1.18243E+04 -2.98106E+04  2.11742E+04 -3.68915E+04
  4.59552E+04 -1.19086E+04  4.16109E+04  2.43761E+04  2.25324E+04  5.22262E+04 -7.83208E+03  5.65699E+04
 -3.64384E+04  3.95916E+04 -4.96977E+04  1.09696E+04 -4.87826E+04 -1.90353E+04 -2.70282E+04 -4.35916E+04
  8.31169E+03 -4.30607E+04  3.47630E+04 -1.70742E+04  3.25134E+04  1.01133E+04  4.39713E+03  2.19338E+04
 -1.44025E+04  1.03770E+04 -1.11996E+04 -7.63951E+03  4.37228E+03 -1.14717E+04  1.97150E+04  5.58315E+03
  1.53127E+04  2.25312E+04 -5.80119E+03  2.80011E+04 -2.33613E+04  1.47497E+04 -3.18536E+04 -2.24077E+03
 -2.66184E+04 -1.86515E+04 -1.36650E+04 -2.66321E+04  4.15966E+03 -2.68936E+04  1.97610E+04 -2.47667E+04
  3.30208E+04 -1.46963E+04  3.96359E+04  6.21605E+03  2.77848E+04  2.53553E+04  4.17375E+03  4.32877E+04
 -1.99973E+04  3.55131E+04 -3.11676E+04  1.20243E+04 -2.38693E+04 -9.82321E+03 -4.46582E+03 -1.30704E+04
 -3.70373E+02 -1.76600E+03 -9.33690E+03  9.30953E+03 -2.14146E+04  5.07904E+03 -2.10486E+04 -1.10855E+04
 -1.31645E+04 -2.50154E+04  6.36880E+03 -3.03990E+04  2.13223E+04 -2.00880E+04  2.38872E+04 -1.30598E+03
  1.58032E+04  1.71827E+04 -1.33612E+03  2.49503E+04 -1.77532E+04  1.41851E+04 -2.44855E+04 -4.25097E+03
 -1.80766E+04 -2.19607E+04 -2.37898E+03 -2.88354E+04  1.31412E+04 -2.48220E+04  2.36916E+04 -1.20478E+04
  2.30027E+04 -8.65706E+02  1.67963E+04  5.48130E+03  8.39624E+03  1.26106E+03  1.31217E+04 -2.82012E+03
  2.34492E+04  2.42184E+03  2.69683E+04  1.97458E+04  1.89739E+04  3.98956E+04 -2.81205E+03  4.75985E+04
 -2.78558E+04  3.94193E+04 -4.55388E+04  1.99671E+04 -4.79970E+04 -2.87362E+03 -3.91967E+04 -2.89348E+04
 -1.62815E+04 -3.99987E+04  1.43135E+04 -3.50842E+04  2.99997E+04 -1.65894E+04  2.65057E+04  7.34092E+03
  9.31063E+03  2.08552E+04 -1.20399E+04  1.63820E+04 -2.12590E+04  1.48309E+03 -1.63968E+04 -1.36556E+04
  8.03044E+02 -2.07118E+04  1.14397E+04 -1.57865E+04  1.46019E+04 -9.23366E+02  4.09933E+03  8.93244E+03
 -1.01656E+04  4.03703E+03 -1.00151E+04 -8.00555E+03 -2.09621E+03 -2.01866E+04  1.13312E+04 -2.18638E+04
  2.39291E+04 -1.25477E+04  2.85408E+04  3.87084E+03  2.46987E+04  1.99777E+04  1.22909E+04  3.20124E+04
 -5.80286E+03  3.42731E+04 -2.23822E+04  2.01171E+04 -2.49135E+04  3.92523E+03 -1.61884E+04 -5.29968E+03
 -7.25137E+03 -8.62885E+03 -4.61279E+02  1.41885E+03 -2.59394E+03  3.75229E+03 -7.59459E+03  5.59717E+03
 -1.48659E+04 -1.49249E+03 -1.64767E+04 -1.18619E+04 -6.24479E+03 -2.03297E+04  7.74413E+03 -1.72527E+04
  1.37452E+04 -6.01610E+03  1.01441E+04  4.52046E+03 -1.67735E+02  6.21242E+03 -8.97224E+03  3.31852E+01
 -8.36469E+03 -1.13073E+04 -1.51486E+03 -1.70713E+04  1.00411E+04 -1.78748E+04  2.23548E+04 -9.90447E+03
  2.59652E+04  3.15181E+03  1.97149E+04  1.55310E+04  3.76630E+03  2.12961E+04 -1.09509E+04  1.70467E+04
 -1.34977E+04  5.29886E+03 -7.09965E+03 -4.36390E+03  2.21996E+03 -5.70464E+03  8.20642E+03 -1.37260E+03
  8.08576E+03  7.11127E+03  1.59768E+03  1.37054E+04 -1.01228E+04  1.32924E+04 -1.67830E+04  2.58163E+03
 -1.16770E+04 -8.77948E+03  1.07375E+03 -1.51224E+04  9.23584E+03 -7.89948E+03  9.92637E+03  3.73980E+03
  2.33038E+03  1.18814E+04 -8.93910E+03  1.31327E+04 -1.52167E+04  5.97473E+03 -1.57243E+04 -6.93106E+03
 -8.87210E+03 -1.75407E+04  3.59587E+03 -2.02055E+04  1.79385E+04 -1.23817E+04  1.85807E+04  3.50027E+03
  1.20122E+04  1.57279E+04 -1.63424E+03  1.78762E+04 -1.30977E+04  9.59559E+03 -1.42190E+04 -6.91786E+02
 -1.21489E+04 -1.20486E+04 -1.60645E+03 -1.32824E+04  7.32083E+03 -1.02981E+04  9.54090E+03 -3.99353E+03
  5.01658E+03  3.19451E+03 -4.53398E+02  2.93679E+03  3.82708E+01 -3.40234E+03  2.83826E+03 -8.80028E+03
  1.34035E+04 -5.50140E+03  1.91934E+04  1.47465E+03  1.72018E+04  1.28498E+04  1.04154E+04  2.33432E+04
 -6.52076E+03  2.74748E+04 -2.22155E+04  1.99008E+04 -2.95583E+04  2.58242E+03 -2.42094E+04 -1.09540E+04
 -1.29251E+04 -1.93856E+04 -2.97687E+02 -1.67675E+04  5.26510E+03 -9.94784E+03  5.67720E+03 -6.66799E+03
  4.63954E+03 -3.02137E+03  3.87852E+03 -3.60132E+03  6.57861E+03 -4.02501E+03  9.70869E+03 -1.78920E+03
  1.23255E+04  2.53066E+03  7.01815E+03  1.17760E+04 -2.96751E+03  1.32059E+04 -1.35340E+04  9.94967E+03
 -1.76663E+04 -1.20707E+03 -1.10761E+04 -1.21534E+04 -2.09670E+03 -1.82831E+04  1.00837E+04 -1.87728E+04
  1.91312E+04 -1.01295E+04  2.34763E+04  2.72204E+03  1.61616E+04  1.62239E+04  2.75666E+03  2.11265E+04
 -9.03652E+03  1.59238E+04 -1.30197E+04  5.14973E+03 -9.76529E+03 -1.82651E+03 -3.98329E+03 -3.14341E+03
 -2.61536E+03 -2.59460E+02 -2.37610E+03  3.58777E+03 -7.48295E+03  2.40844E+03 -1.13395E+04 -1.41033E+03
 -9.26885E+03 -1.12052E+04 -1.32809E+03 -1.71478E+04  9.78497E+03 -1.60693E+04  1.66535E+04 -5.59112E+03
  1.69278E+04  7.48507E+03  8.22727E+03  1.60241E+04 -3.49250E+03  1.74768E+04 -1.25276E+04  1.07707E+04
 -1.66391E+04 -1.77616E+02 -1.29818E+04 -1.13703E+04 -1.77300E+03 -1.57544E+04  7.94256E+03 -1.08151E+04
  1.08379E+04 -2.70917E+03  7.15996E+03  2.62065E+03  2.41154E+03  5.48831E+03  7.68404E+02  2.35549E+03
  3.41208E+03  1.52168E+03  4.00722E+03  2.30109E+03  6.08616E+03  5.92213E+03  3.89215E+03  1.02810E+04
 -3.63197E+03  1.39111E+04 -1.22014E+04  1.47912E+04 -1.95152E+04  3.86223E+03 -1.86571E+04 -8.65129E+03
 -8.96796E+03 -1.83689E+04  2.19696E+03 -2.02182E+04  1.03760E+04 -1.25432E+04  1.55884E+04 -3.53184E+03
  1.14607E+04  6.99132E+03  3.08972E+03  1.13713E+04 -5.39189E+03  7.97542E+03 -8.41210E+03 -9.01498E+02
 -3.86052E+03 -8.01708E+03  3.39452E+03 -7.07615E+03  7.50566E+03 -3.92459E+03  7.13583E+03  2.00133E+03
  4.23555E+03  3.84373E+03  1.21090E+03  3.16546E+03 -1.06450E+03  1.77144E+03  1.66938E+03 -7.69900E+02
  3.36840E+03 -1.36891E+03  7.71261E+03  2.92312E+03  4.85920E+03  9.85490E+03 -2.47640E+03  1.27781E+04
 -9.32011E+03  1.00212E+04 -1.27397E+04  2.75489E+03 -1.04084E+04 -4.26383E+03 -4.03089E+03 -7.41124E+03
  5.16610E+02 -7.21109E+03  4.44553E+03 -3.83803E+03  4.25346E+03  3.82749E+03 -1.73234E+03  6.87144E+03
 -8.06547E+03  3.91933E+03 -9.20927E+03 -4.48292E+03 -5.92113E+03 -1.12639E+04  1.90040E+03 -1.12953E+04
  5.40706E+03 -6.16821E+03  8.96686E+03 -1.09438E+03  5.67895E+03  1.84236E+03  7.97009E+02  6.00264E+03
 -3.47073E+03  1.95825E+03 -4.92635E+03 -2.94862E+03  1.50912E+03 -8.18289E+03  9.67460E+03 -7.02832E+03
  1.24108E+04  1.25576E+03  1.14027E+04  8.04878E+03  4.62056E+03  1.32211E+04 -5.12323E+03  1.25529E+04
 -1.06736E+04  6.27654E+03 -1.05778E+04 -5.29494E+02 -5.18401E+03 -7.57721E+03  1.30473E+03 -8.35112E+03
  7.78278E+03 -3.65893E+03  6.16293E+03  3.43095E+03  1.54126E+03  6.77923E+03 -1.63147E+03  5.88282E+03
 -2.97361E+03  3.74351E+03 -3.03654E+03  5.47004E+02 -1.08582E+03  1.09689E+03 -2.26789E+03  2.63061E+03
 -3.08441E+03  4.68546E+03 -7.91585E+03  3.95271E+03 -1.30607E+04 -2.99054E+02 -1.34411E+04 -7.97711E+03
 -7.49622E+03 -1.62596E+04  2.08496E+03 -2.00209E+04  1.31041E+04 -1.51661E+04  1.89028E+04 -5.68338E+03
  1.83032E+04  3.38902E+03  1.17769E+04  1.19813E+04  1.06623E+03  1.42444E+04 -5.60238E+03  9.80583E+03
 -7.28293E+03  3.81681E+03 -4.92263E+03 -1.52409E+03 -1.58755E+03 -2.09547E+03 -2.60820E+02 -4.09676E+01
 -2.68947E+03 -1.93416E+02 -3.59051E+03 -5.62255E+02 -1.59335E+03 -3.03038E+03 -6.11322E+01 -5.19632E+03
  5.81336E+03 -4.71350E+03  8.74126E+03 -5.14840E+01  9.76780E+03  8.88741E+03  3.80259E+03  1.32266E+04
 -6.16594E+03  1.59951E+04 -1.44087E+04  9.16285E+03 -1.74622E+04  6.11467E+01 -1.36926E+04 -1.07132E+04
 -5.19326E+03 -1.46785E+04  2.17102E+03 -1.27439E+04  8.73901E+03 -7.10610E+03  1.02404E+04  7.10144E+02
  5.86932E+03  4.14090E+03 -1.36816E+03  4.03396E+03 -2.82951E+03 -1.01974E+03  3.62680E+02 -3.48056E+03
  4.79777E+03 -2.31080E+03  5.51464E+03  1.48723E+03  4.56662E+03  6.20702E+03  4.30816E+02  6.89252E+03
 -6.37016E+03  6.52177E+03 -9.17953E+03  1.17187E+03 -8.06447E+03 -6.37910E+03 -1.75726E+03 -1.20945E+04
  6.99005E+03 -9.58572E+03  1.17478E+04 -4.28031E+03  1.12169E+04  2.70782E+03  6.40280E+03  9.28270E+03
  9.48157E+02  1.01819E+04 -3.65157E+03  7.63213E+03 -5.83275E+03  4.95761E+03 -4.68158E+03  9.03848E+02
 -2.94062E+03 -1.02592E+03 -3.50059E+03  2.28733E+03 -5.25270E+03  1.26399E+03 -6.97505E+03 -5.80501E+02
 -6.77638E+03 -4.76011E+03 -1.53629E+03 -9.35630E+03  4.42396E+03 -1.00326E+04  9.39166E+03 -5.03496E+03
  1.03947E+04  2.00542E+03  5.12828E+03  6.24771E+03 -1.02377E+03  9.70178E+03 -7.83404E+03  6.42261E+03
