 $NMID ID='MM_0lb_SNR400_13hz_g40_71.RAW', FMTDAT='(8E13.5)'
 TRAMP=1., VOLUME=1. $END
  3.09914E+05  1.16234E+03  3.37206E+05  2.50767E+05  8.43437E+04  3.37977E+05 -1.32199E+05  2.51290E+05
 -1.89727E+05  8.28121E+04 -1.12059E+05 -3.28733E+04  1.02898E+03 -5.04580E+04  5.38015E+04  5.88930E+02
  3.49349E+04  5.34793E+04 -1.71493E+04  7.53799E+04 -6.01945E+04  6.36956E+04 -8.45767E+04  3.22709E+04
 -8.03825E+04 -1.21462E+04 -5.72206E+04 -5.10941E+04 -1.50665E+04 -7.00666E+04  2.66783E+04 -4.52808E+04
  3.97679E+04  3.69275E+03  1.56014E+04  4.74595E+04 -3.41804E+04  4.68721E+04 -6.66441E+04 -8.47687E+02
 -5.35067E+04 -5.71339E+04 -6.77314E+03 -7.70635E+04  3.34274E+04 -5.49752E+04  4.79560E+04 -1.69974E+04
  4.33720E+04  1.13231E+04  3.17634E+04  2.55185E+04  1.64983E+04  2.90325E+04 -5.56227E+03  2.73697E+04
 -2.18465E+04  1.26687E+04 -1.83657E+04 -4.88251E+03  5.42220E+03 -7.57034E+03  2.27218E+04  1.26543E+04
  6.86129E+03  3.53222E+04 -3.14695E+04  3.53898E+04 -6.34995E+04  2.37164E+03 -5.73078E+04 -4.29377E+04
 -1.24702E+04 -6.30626E+04  3.90064E+04 -4.56782E+04  5.84032E+04 -2.85319E+03  3.39516E+04  3.26198E+04
 -5.73985E+03  3.65124E+04 -2.92599E+04  1.55015E+04 -2.98694E+04 -4.32685E+03 -1.71228E+04 -1.13672E+04
 -8.30802E+03 -1.29610E+04 -8.04936E+02 -1.81949E+04  8.02182E+03 -2.18841E+04  1.58727E+04 -1.34303E+04
  1.17929E+04  5.75526E+03 -7.38442E+03  1.28980E+04 -2.15667E+04 -4.65462E+03 -8.31505E+03 -3.33656E+04
  2.23240E+04 -4.39201E+04  4.71917E+04 -1.95143E+04  4.57248E+04  1.94238E+04  1.49017E+04  4.41077E+04
 -1.58774E+04  3.34047E+04 -2.48034E+04  1.98883E+03 -9.82164E+03 -2.80447E+04  2.09026E+04 -3.33588E+04
  4.15764E+04 -8.94516E+03  3.51992E+04  2.37419E+04  1.85337E+04  4.65431E+04 -7.99087E+03  5.01905E+04
 -3.14297E+04  3.32360E+04 -4.16349E+04  9.49447E+03 -4.20648E+04 -1.61547E+04 -2.34007E+04 -3.71868E+04
  7.30154E+03 -3.77511E+04  3.11044E+04 -1.48202E+04  2.93909E+04  1.07138E+04  3.92627E+03  1.87016E+04
 -1.30751E+04  8.20970E+03 -1.02123E+04 -8.13012E+03  5.70782E+03 -1.06187E+04  1.81462E+04  5.66193E+03
  1.42999E+04  2.20424E+04 -5.19934E+03  2.53751E+04 -2.28004E+04  1.14942E+04 -2.80371E+04 -4.98439E+03
 -2.04756E+04 -1.72003E+04 -7.74286E+03 -2.03344E+04  3.99839E+03 -2.03827E+04  1.57552E+04 -1.81620E+04
  2.54646E+04 -1.26189E+04  3.35111E+04  2.89604E+03  2.42657E+04  2.00557E+04  3.71600E+03  3.66509E+04
 -1.77632E+04  3.03182E+04 -2.79204E+04  9.87952E+03 -2.00494E+04 -1.05537E+04 -3.98365E+03 -1.37679E+04
  1.82052E+03 -2.63936E+03 -4.83320E+03  6.54491E+03 -1.70199E+04  4.78052E+03 -1.72791E+04 -6.60221E+03
 -1.00395E+04 -1.91865E+04  5.06726E+03 -2.32142E+04  1.53404E+04 -1.76414E+04  1.84893E+04 -1.72024E+03
  1.11263E+04  1.31613E+04 -6.31429E+02  1.94671E+04 -1.23990E+04  1.02580E+04 -1.86398E+04 -3.65393E+03
 -1.42521E+04 -1.67863E+04 -2.10693E+03 -2.33603E+04  1.04698E+04 -1.91459E+04  1.93800E+04 -9.44734E+03
  1.77036E+04  3.91416E+02  1.33300E+04  4.46396E+03  6.60978E+03  8.10965E+02  9.49659E+03 -1.20735E+03
  1.71329E+04  2.46138E+03  1.88293E+04  1.52622E+04  1.32758E+04  3.01849E+04 -2.83467E+03  3.45493E+04
 -2.04295E+04  2.83438E+04 -3.19102E+04  1.36869E+04 -3.41154E+04 -2.22377E+03 -2.80293E+04 -1.96984E+04
 -1.21239E+04 -2.75455E+04  1.01842E+04 -2.53482E+04  2.17110E+04 -1.31653E+04  1.94425E+04  5.86881E+03
  7.23600E+03  1.43734E+04 -9.18509E+03  1.28272E+04 -1.63046E+04  2.88914E+03 -1.27817E+04 -1.01495E+04
 -1.01075E+00 -1.54384E+04  8.19057E+03 -1.14508E+04  1.03176E+04 -1.01002E+03  2.59006E+03  6.94783E+03
 -7.01574E+03  2.42070E+03 -5.96803E+03 -6.11606E+03 -6.02369E+02 -1.34981E+04  1.01018E+04 -1.40757E+04
  1.74148E+04 -7.80991E+03  1.90722E+04  3.25265E+03  1.51245E+04  1.36190E+04  7.29008E+03  2.01483E+04
 -3.34079E+03  2.27955E+04 -1.53489E+04  1.43637E+04 -1.61386E+04  3.70132E+03 -1.15770E+04 -3.34046E+03
 -5.52942E+03 -4.78439E+03 -7.19929E+02  7.97384E+02 -2.66632E+03  2.64458E+03 -5.23640E+03  4.60476E+03
 -1.06055E+04 -2.56555E+02 -1.11651E+04 -9.39598E+03 -4.08067E+03 -1.52348E+04  4.82079E+03 -1.18748E+04
  9.68593E+03 -5.00795E+03  7.35223E+03  3.31794E+03  1.50616E+02  4.68956E+03 -4.79390E+03  9.04396E+02
 -5.75261E+03 -6.99060E+03 -8.09047E+02 -1.10670E+04  6.31063E+03 -1.20263E+04  1.42539E+04 -6.13564E+03
  1.65727E+04  7.07344E+02  1.23335E+04  9.44539E+03  2.18301E+03  1.32173E+04 -7.64413E+03  1.07654E+04
 -9.44685E+03  3.34905E+03 -4.21127E+03 -1.54347E+03  1.88835E+03 -3.09221E+03  6.37489E+03 -9.99616E+02
  5.35327E+03  5.43627E+03  9.57405E+02  8.83034E+03 -6.80097E+03  8.51461E+03 -1.12793E+04  2.47285E+03
 -7.19823E+03 -5.76049E+03 -1.04157E+02 -9.24978E+03  5.56191E+03 -5.02685E+03  5.42448E+03  1.79876E+03
  7.38713E+02  6.01739E+03 -5.89218E+03  7.48304E+03 -9.21847E+03  3.58142E+03 -8.35190E+03 -3.00547E+03
 -4.60692E+03 -9.98785E+03  2.71189E+03 -1.14869E+04  1.01094E+04 -7.72353E+03  1.12503E+04  1.39187E+03
  7.32448E+03  8.33576E+03 -3.58833E+02  1.10045E+04 -7.92097E+03  6.40103E+03 -8.79984E+03 -5.73678E+02
 -8.22646E+03 -6.81426E+03 -1.86260E+03 -7.82443E+03  3.56290E+03 -6.30593E+03  4.77578E+03 -2.36426E+03
  3.25082E+03  1.52232E+03 -6.16737E+02  1.45183E+03  1.49261E+02 -1.92753E+03  1.40941E+03 -4.81482E+03
  7.19327E+03 -2.29973E+03  9.49534E+03  1.21577E+03  1.01976E+04  6.52843E+03  7.14882E+03  1.31519E+04
 -3.05135E+03  1.52198E+04 -1.31032E+04  1.03027E+04 -1.60515E+04  2.70164E+03 -1.30141E+04 -5.44429E+03
 -6.73334E+03 -1.05367E+04 -5.90636E+02 -9.36196E+03  2.53976E+03 -4.93204E+03  2.88207E+03 -3.55947E+03
  2.16883E+03 -2.35988E+03  3.27297E+03 -2.71776E+03  4.14831E+03 -2.43248E+03  4.75570E+03 -2.65877E+02
  6.86681E+03  1.56586E+03  3.72903E+03  5.27821E+03 -1.86391E+03  6.09074E+03 -7.17280E+03  4.57837E+03
 -8.85209E+03 -6.92708E+02 -4.46463E+03 -5.90972E+03 -1.07232E+02 -9.28686E+03  4.90432E+03 -9.81288E+03
  9.77917E+03 -5.08243E+03  1.23910E+04  4.53464E+02  7.97595E+03  8.35905E+03  2.23215E+03  1.06794E+04
 -4.60263E+03  9.09928E+03 -6.05269E+03  3.65500E+03 -3.65562E+03 -1.47720E+03 -1.62013E+03 -7.26217E+02
 -1.19397E+03 -3.68701E+02 -1.54783E+03  2.45992E+03 -4.08402E+03  1.68341E+03 -6.48061E+03 -9.17554E+02
 -3.55451E+03 -6.49545E+03  2.46334E+02 -8.97746E+03  5.63224E+03 -8.22828E+03  8.23504E+03 -2.34233E+03
  9.02261E+03  4.88926E+03  3.78973E+03  6.81113E+03 -1.98665E+03  9.19651E+03 -5.67741E+03  5.18740E+03
 -7.24160E+03  1.53658E+02 -6.34969E+03 -4.90758E+03 -7.62643E+02 -6.44098E+03  3.14729E+03 -4.74159E+03
  4.74318E+03 -1.74219E+03  3.49290E+03  6.06398E+02  1.76135E+03  2.59738E+03  6.40320E+02  1.13448E+03
  1.85723E+03  5.14375E+02  1.84463E+03  9.57946E+02  2.48344E+03  3.28433E+03  2.18148E+03  4.40968E+03
 -1.61920E+03  6.54193E+03 -5.43033E+03  6.62743E+03 -8.09246E+03  1.77851E+03 -9.13912E+03 -3.10285E+03
 -4.01725E+03 -8.87493E+03  1.00262E+03 -9.14309E+03  4.83850E+03 -6.19552E+03  6.54434E+03 -1.94972E+03
  5.36565E+03  3.30169E+03  8.16691E+02  4.90698E+03 -2.00025E+03  2.85455E+03 -3.14397E+03 -6.49918E+02
 -1.40895E+03 -3.60506E+03  2.06256E+03 -3.32505E+03  2.98294E+03 -2.15875E+03  3.84397E+03  3.27102E+02
  1.53514E+03  9.56755E+02  1.28358E+03  2.75486E+02 -7.23140E+02  1.69189E+03  1.62614E+03 -2.82880E+02
  9.55381E+02 -3.94006E+02  4.55554E+03  1.02475E+03  1.42496E+03  4.55641E+03 -1.80667E+02  5.60197E+03
 -4.02092E+03  3.45588E+03 -4.77064E+03  1.33517E+03 -4.85985E+03 -1.91492E+03 -1.24651E+03 -2.41286E+03
 -5.94223E+01 -2.65612E+03  1.91334E+03 -2.02377E+03  1.75761E+03  2.57649E+03 -8.43826E+02  3.07408E+03
 -3.37386E+03  1.20190E+03 -3.14528E+03 -2.76565E+03 -2.97431E+03 -5.08973E+03  9.41635E+02 -4.05259E+03
  2.33123E+03 -2.26804E+03  3.03582E+03  6.85940E+01  3.00246E+03  1.00496E+03  3.75929E+02  1.93982E+03
 -1.43355E+03  9.80131E+02 -1.83756E+03 -1.88492E+03  7.09428E+02 -3.97261E+03  3.93860E+03 -2.78372E+03
  4.43760E+03  1.55668E+02  5.59143E+03  3.15567E+03  2.22420E+03  5.00453E+03 -2.07645E+03  4.29881E+03
 -3.94968E+03  1.67132E+03 -3.67244E+03 -7.32285E+02 -2.33276E+03 -3.05074E+03  4.35343E+02 -2.91112E+03
  3.61721E+03 -1.17849E+03  3.03750E+03  1.83673E+03  4.58128E+02  2.90347E+03 -1.72008E+02  3.30762E+03
 -8.24319E+02  2.55886E+03 -1.24145E+03  7.22259E+02 -3.10467E+02  1.21431E+03 -1.15196E+03  1.58262E+03
 -1.57117E+03  1.95654E+03 -4.03297E+03  1.90441E+03 -4.81944E+03  1.32561E+02 -4.71807E+03 -3.03444E+03
 -2.14118E+03 -6.88267E+03  1.46057E+03 -7.48781E+03  3.75223E+03 -5.53920E+03  6.83832E+03 -2.41591E+03
  6.63319E+03  9.56508E+02  4.32925E+03  4.02786E+03  5.49907E+02  4.81723E+03 -1.53409E+03  3.64227E+03
 -3.13055E+03  1.45537E+03 -1.61495E+03 -3.71094E+02 -1.42045E+03 -4.82596E+02 -4.46950E+02  2.53478E+02
 -1.18883E+03  1.89199E+02 -1.13716E+03  9.86719E+01 -7.77433E+02 -1.03657E+03  3.02440E+02 -2.35767E+03
  2.20586E+03 -1.92756E+03  2.46712E+03  1.25325E+02  3.42546E+03  2.75896E+03  5.74127E+02  4.91926E+03
 -2.82034E+03  5.45768E+03 -4.57923E+03  3.89235E+03 -6.00518E+03 -4.04343E+02 -4.43380E+03 -4.04197E+03
 -1.68783E+03 -5.17856E+03  1.52170E+03 -3.92061E+03  2.93447E+03 -2.22578E+03  2.39887E+03 -1.87177E+01
  1.66793E+03  1.86802E+03 -7.00869E+01  1.85832E+03 -6.85243E+02  2.39580E+01 -5.43855E+02 -6.96584E+02
  1.71796E+03 -2.28842E+02  1.38036E+03  7.34279E+02  1.01455E+03  1.29089E+03  8.17098E+02  2.37043E+03
 -1.62439E+03  2.26344E+03 -2.52315E+03 -8.55047E+01 -2.40134E+03 -2.17956E+03 -7.02311E+02 -3.81869E+03
  2.62500E+03 -2.73793E+03  2.67832E+03 -4.84304E+02  3.60938E+03  9.89293E+02  1.93099E+03  2.30069E+03
  4.86915E+02  3.24005E+03 -1.10291E+03  2.85376E+03 -2.03331E+03  2.15199E+03 -8.09722E+02  1.24653E+03
 -1.75220E+02  2.86385E+02 -3.53090E+02  4.04351E+02 -2.18081E+03  4.14183E+02 -2.96164E+03 -6.59999E+02
 -2.18164E+03 -7.26023E+02 -2.43539E+02 -3.12858E+03  1.64452E+03 -3.32543E+03  2.86898E+03 -3.42149E+02
  3.31949E+03  3.64175E+02  3.34432E+02  1.73535E+03 -7.57195E+02  3.41098E+03 -2.35011E+03  2.47238E+03
