 $NMID ID='MM_0lb_SNR400_13hz_g60_50.RAW', FMTDAT='(8E13.5)'
 TRAMP=1., VOLUME=1. $END
  3.09538E+05  7.47195E+02  3.37597E+05  2.51134E+05  8.44412E+04  3.38557E+05 -1.32660E+05  2.52017E+05
 -1.90465E+05  8.36957E+04 -1.12207E+05 -3.27235E+04  6.54162E+02 -5.05101E+04  5.33043E+04 -6.69960E+02
  3.55248E+04  5.25350E+04 -1.68733E+04  7.66458E+04 -6.15883E+04  6.41150E+04 -8.45975E+04  3.24979E+04
 -8.17871E+04 -1.27079E+04 -5.72725E+04 -5.19794E+04 -1.49104E+04 -7.10644E+04  2.73714E+04 -4.63364E+04
  4.02033E+04  3.66104E+03  1.60952E+04  4.82954E+04 -3.49626E+04  4.81467E+04 -6.75509E+04 -1.38997E+02
 -5.42844E+04 -5.74511E+04 -7.10209E+03 -7.83551E+04  3.37786E+04 -5.64955E+04  4.86045E+04 -1.79594E+04
  4.48674E+04  1.14950E+04  3.28366E+04  2.64410E+04  1.61539E+04  3.00104E+04 -5.48708E+03  2.70499E+04
 -2.20334E+04  1.22224E+04 -1.83101E+04 -5.29769E+03  6.15926E+03 -7.35962E+03  2.31351E+04  1.27389E+04
  7.74479E+03  3.66189E+04 -3.25491E+04  3.66409E+04 -6.45583E+04  2.16991E+03 -5.83037E+04 -4.38372E+04
 -1.22893E+04 -6.47412E+04  4.03353E+04 -4.56356E+04  5.93021E+04 -2.82241E+03  3.58737E+04  3.29377E+04
 -5.64168E+03  3.78146E+04 -3.15919E+04  1.70729E+04 -3.22551E+04 -3.47336E+03 -1.80500E+04 -1.12306E+04
 -9.05303E+03 -1.41458E+04 -5.17614E+02 -1.91293E+04  8.41302E+03 -2.30534E+04  1.53202E+04 -1.26183E+04
  1.03608E+04  5.44224E+03 -9.08481E+03  1.27615E+04 -2.26193E+04 -5.14294E+03 -8.16692E+03 -3.52495E+04
  2.35281E+04 -4.54973E+04  5.01266E+04 -2.03004E+04  4.75266E+04  1.88438E+04  1.66751E+04  4.51455E+04
 -1.63959E+04  3.55411E+04 -2.67445E+04  2.98847E+03 -1.06188E+04 -2.89158E+04  2.14871E+04 -3.62600E+04
  4.29494E+04 -1.04608E+04  3.81720E+04  2.45593E+04  1.97174E+04  4.90533E+04 -8.41835E+03  5.30697E+04
 -3.35770E+04  3.58449E+04 -4.57366E+04  1.02159E+04 -4.55950E+04 -1.72519E+04 -2.47351E+04 -4.02601E+04
  8.02372E+03 -4.01889E+04  3.30099E+04 -1.58129E+04  3.03934E+04  1.21715E+04  4.82023E+03  1.97118E+04
 -1.37265E+04  8.79202E+03 -1.03665E+04 -7.56331E+03  5.86265E+03 -1.19602E+04  1.80173E+04  6.11792E+03
  1.37837E+04  2.27096E+04 -5.87415E+03  2.58656E+04 -2.32395E+04  1.31649E+04 -3.03627E+04 -3.59010E+03
 -2.30006E+04 -1.79637E+04 -9.10398E+03 -2.29086E+04  3.53910E+03 -2.27044E+04  1.79993E+04 -2.06263E+04
  2.89526E+04 -1.28560E+04  3.60079E+04  3.26889E+03  2.56293E+04  2.21321E+04  4.39821E+03  3.92024E+04
 -1.81985E+04  3.12611E+04 -2.96331E+04  1.08312E+04 -2.18869E+04 -1.01133E+04 -4.12296E+03 -1.26425E+04
  1.21097E+03 -2.51427E+03 -6.14727E+03  7.56112E+03 -1.83591E+04  4.90685E+03 -1.89172E+04 -7.85341E+03
 -1.13456E+04 -2.12330E+04  5.76352E+03 -2.53561E+04  1.62244E+04 -1.81445E+04  2.02983E+04 -1.38415E+03
  1.29340E+04  1.53516E+04 -1.02964E+03  2.01897E+04 -1.39377E+04  1.13508E+04 -2.15389E+04 -4.30852E+03
 -1.61050E+04 -1.91140E+04 -1.97575E+03 -2.50172E+04  1.13435E+04 -2.02315E+04  2.03877E+04 -1.02672E+04
  2.05319E+04  2.80802E+02  1.37879E+04  5.22564E+03  7.71674E+03  6.91133E+02  1.06132E+04 -1.74303E+03
  1.95289E+04  3.02391E+03  2.13221E+04  1.66648E+04  1.45247E+04  3.29679E+04 -3.01209E+03  3.95701E+04
 -2.22236E+04  3.16516E+04 -3.64065E+04  1.65679E+04 -3.81931E+04 -3.19927E+03 -3.08171E+04 -2.19889E+04
 -1.30568E+04 -3.18557E+04  1.13903E+04 -2.81335E+04  2.41729E+04 -1.39557E+04  2.07836E+04  6.54462E+03
  7.00314E+03  1.64248E+04 -9.77122E+03  1.36825E+04 -1.70312E+04  2.10181E+03 -1.33057E+04 -1.09652E+04
 -7.63701E+02 -1.71339E+04  9.19869E+03 -1.30589E+04  1.18457E+04 -1.40246E+03  3.19373E+03  7.29976E+03
 -7.74904E+03  3.52418E+03 -6.79169E+03 -5.66117E+03 -1.22506E+03 -1.51925E+04  1.09926E+04 -1.61030E+04
  1.96489E+04 -8.82722E+03  2.17090E+04  3.16573E+03  1.90886E+04  1.49552E+04  8.81076E+03  2.39574E+04
 -3.89582E+03  2.64242E+04 -1.64603E+04  1.59386E+04 -1.89603E+04  4.09418E+03 -1.26370E+04 -4.49408E+03
 -5.76306E+03 -5.87104E+03 -7.85172E+02  1.13583E+03 -2.76872E+03  2.91155E+03 -5.81852E+03  4.22854E+03
 -1.14670E+04 -8.81389E+02 -1.24072E+04 -1.05739E+04 -4.06340E+03 -1.71313E+04  5.40898E+03 -1.29448E+04
  1.08199E+04 -5.14180E+03  8.20572E+03  3.71519E+03  9.97712E+02  4.68391E+03 -6.25901E+03 -4.42260E+02
 -5.91580E+03 -8.57053E+03 -5.06025E+02 -1.21671E+04  7.35760E+03 -1.32227E+04  1.60862E+04 -6.84096E+03
  1.92738E+04  1.27243E+03  1.40668E+04  1.17669E+04  3.21898E+03  1.48221E+04 -7.75199E+03  1.26189E+04
 -9.85590E+03  3.63634E+03 -5.39112E+03 -1.66161E+03  1.66399E+03 -3.47135E+03  6.84176E+03 -1.11046E+03
  6.07077E+03  5.91611E+03  1.43555E+03  1.01299E+04 -6.69382E+03  1.04497E+04 -1.20847E+04  2.56162E+03
 -8.45037E+03 -6.44567E+03  2.76128E+02 -1.08223E+04  7.39525E+03 -5.55432E+03  6.66341E+03  2.08664E+03
  1.55720E+03  7.54694E+03 -6.68395E+03  9.31154E+03 -9.59730E+03  5.14725E+03 -1.06073E+04 -3.66806E+03
 -5.73966E+03 -1.22640E+04  2.95940E+03 -1.38419E+04  1.13229E+04 -8.32953E+03  1.29823E+04  2.10525E+03
  8.25958E+03  9.92678E+03 -9.68754E+02  1.16520E+04 -9.46646E+03  6.06927E+03 -9.86326E+03 -1.16132E+03
 -8.83530E+03 -8.22351E+03 -1.72788E+03 -8.83834E+03  5.20055E+03 -7.98787E+03  5.89645E+03 -3.37643E+03
  4.01293E+03  1.74783E+03 -6.43161E+02  1.91166E+03 -2.46316E+02 -2.52811E+03  1.45812E+03 -4.74524E+03
  7.56782E+03 -2.82639E+03  1.16085E+04  1.02221E+03  1.14634E+04  7.39775E+03  8.75732E+03  1.50928E+04
 -3.37200E+03  1.74597E+04 -1.45920E+04  1.34920E+04 -1.93027E+04  2.12657E+03 -1.45886E+04 -5.94979E+03
 -7.30294E+03 -1.24783E+04  3.32060E+02 -1.06065E+04  3.31988E+03 -6.63596E+03  3.83334E+03 -3.81726E+03
  2.96351E+03 -2.87338E+03  3.31336E+03 -3.13611E+03  4.36361E+03 -3.15925E+03  5.96205E+03 -1.38437E+03
  7.61436E+03  2.43223E+03  3.69938E+03  6.69783E+03 -2.00260E+03  7.41098E+03 -8.76285E+03  5.96278E+03
 -1.04627E+04 -1.79817E+03 -5.68073E+03 -7.44364E+03  1.53359E+02 -1.09044E+04  6.28107E+03 -1.16972E+04
  1.13145E+04 -6.00392E+03  1.37728E+04  1.20515E+03  9.54234E+03  9.42323E+03  1.47819E+03  1.19803E+04
 -4.96604E+03  1.08041E+04 -6.97415E+03  4.13228E+03 -4.47354E+03 -1.52737E+03 -2.78130E+03 -1.37019E+03
 -9.89909E+02 -2.79522E+02 -2.16846E+03  2.70011E+03 -4.67299E+03  2.05901E+03 -7.53513E+03 -1.03329E+02
 -4.53710E+03 -7.34518E+03 -6.61105E+02 -9.44369E+03  6.18173E+03 -9.28658E+03  9.63812E+03 -2.74728E+03
  9.72803E+03  4.44805E+03  4.43525E+03  8.48533E+03 -2.54007E+03  1.00838E+04 -6.07515E+03  6.35947E+03
 -8.80270E+03  2.15356E+02 -6.74195E+03 -6.15114E+03  1.96436E+02 -7.93221E+03  5.00578E+03 -6.04100E+03
  6.78900E+03 -2.67659E+03  4.26742E+03  1.87665E+03  1.01592E+03  2.91493E+03  1.20676E+03  1.25948E+03
  2.39033E+03  1.15962E+03  2.57616E+03  1.04676E+03  2.42301E+03  3.42593E+03  2.57004E+03  4.65509E+03
 -2.69235E+03  8.04864E+03 -6.55899E+03  7.66871E+03 -9.52991E+03  2.07454E+03 -9.82469E+03 -4.06018E+03
 -4.31518E+03 -9.69943E+03  1.65826E+03 -1.04005E+04  5.18223E+03 -6.43674E+03  7.78166E+03 -1.97207E+03
  6.37244E+03  3.70539E+03  1.28253E+03  5.50582E+03 -2.01704E+03  3.35056E+03 -3.71532E+03 -7.87154E+02
 -1.86892E+03 -3.40614E+03  2.11172E+03 -3.96787E+03  4.04757E+03 -1.50167E+03  3.66761E+03  1.11086E+03
  2.56400E+03  1.82800E+03  1.49960E+03  1.45641E+03 -1.88222E+02  5.44692E+02  1.77100E+03 -1.09185E+03
  1.24845E+03 -1.09051E+03  4.32338E+03  9.16919E+02  2.12657E+03  4.41716E+03 -1.51296E+03  6.59969E+03
 -3.68402E+03  4.07793E+03 -6.03712E+03  9.34457E+02 -5.12851E+03 -1.83400E+03 -1.92264E+03 -2.74144E+03
  5.08929E+02 -3.36637E+03  2.51196E+03 -1.29483E+03  1.79926E+03  2.81806E+03 -1.21578E+03  2.93073E+03
 -3.10716E+03  1.86615E+03 -3.72123E+03 -2.66282E+03 -2.08755E+03 -4.94260E+03  7.17965E+02 -4.88167E+03
  2.71969E+03 -2.43318E+03  3.74156E+03 -3.27239E+02  3.03022E+03  1.18707E+03  9.20765E+02  2.46210E+03
 -1.59485E+03  4.56749E+02 -2.17075E+03 -1.33426E+03  1.21487E+03 -3.18133E+03  4.12384E+03 -2.79713E+03
  4.55023E+03  5.28647E+02  5.45418E+03  3.36061E+03  2.09206E+03  5.36611E+03 -1.95352E+03  5.55691E+03
 -4.77727E+03  1.80134E+03 -5.03221E+03 -1.11556E+03 -2.03153E+03 -4.01712E+03  9.43188E+02 -2.68371E+03
  3.44403E+03 -1.85402E+03  3.37349E+03  1.80812E+03  1.42718E+03  3.42502E+03  4.30128E+02  3.15846E+03
 -1.75835E+03  2.07899E+03 -7.87790E+02  7.09452E+02 -2.05520E+02  6.98719E+02 -1.08708E+03  1.50651E+03
 -1.79927E+03  2.70920E+03 -3.86970E+03  1.52860E+03 -5.68764E+03  3.76028E+02 -6.74000E+03 -3.95142E+03
 -2.83552E+03 -6.61754E+03  1.79819E+03 -8.38798E+03  4.82593E+03 -7.52621E+03  8.44816E+03 -2.88800E+03
  7.16888E+03  1.21373E+03  4.29350E+03  4.80267E+03 -1.56733E+02  5.40048E+03 -1.96229E+03  4.16681E+03
 -3.05761E+03  1.41325E+03 -1.96200E+03 -2.97007E+02 -9.18453E+02  6.32651E+01 -1.01133E+03 -2.39983E+02
 -1.95035E+03  4.29083E+02 -1.81130E+03  5.58276E+02 -7.66955E+02 -9.99379E+02  5.08903E+01 -2.53195E+03
  2.23996E+03 -2.63992E+03  2.92824E+03 -2.91966E+02  3.65835E+03  2.24725E+03 -3.25728E+02  5.14973E+03
 -2.22949E+03  6.75379E+03 -5.57593E+03  3.81356E+03 -6.23874E+03 -4.19031E+02 -4.25907E+03 -4.26870E+03
 -1.89363E+03 -5.66047E+03  1.03553E+03 -4.45955E+03  2.81596E+03 -2.58113E+03  2.74283E+03  7.13689E+02
  2.13170E+03  1.52806E+03  2.15448E+02  1.74020E+03 -1.22604E+03 -3.08710E+02  1.92167E+01 -8.04648E+02
  2.07886E+03 -4.27255E+02  1.64168E+03  1.60623E+03  1.45006E+03  2.34439E+03  9.67815E+01  2.66637E+03
 -2.04383E+03  2.59618E+03 -2.77997E+03  4.77584E+01 -3.30149E+03 -2.22027E+03  1.99654E+02 -4.04589E+03
  2.10041E+03 -3.21750E+03  3.29285E+03 -6.26551E+02  3.53042E+03  1.13954E+01  1.77347E+03  3.13139E+03
  4.77776E+02  3.58872E+03 -4.54193E+02  2.45647E+03 -2.51414E+03  1.68981E+03 -1.57156E+03  3.57481E+02
 -6.65965E+02  1.91057E+02 -9.19815E+02  5.22100E+02 -1.20658E+03  4.95536E+02 -2.49280E+03 -3.29627E+02
 -2.29185E+03 -1.18577E+03 -4.11911E+02 -3.27854E+03  1.77686E+03 -3.80469E+03  2.89155E+03 -1.60971E+03
  3.52480E+03  8.69246E+02  1.33544E+03  2.08559E+03 -1.83520E+02  2.59807E+03 -2.00679E+03  2.09998E+03
