 $NMID ID='MM_0lb_SNR400_19hz_g60_80.RAW', FMTDAT='(8E13.5)'
 TRAMP=1., VOLUME=1. $END
  3.09745E+05  9.56039E+02  3.37337E+05  2.50621E+05  8.44357E+04  3.37774E+05 -1.32368E+05  2.50840E+05
 -1.90343E+05  8.23218E+04 -1.11471E+05 -3.27889E+04  1.08308E+03 -5.03260E+04  5.34560E+04  1.95445E+02
  3.51551E+04  5.27945E+04 -1.69252E+04  7.48444E+04 -6.07544E+04  6.33397E+04 -8.38819E+04  3.15045E+04
 -8.11089E+04 -1.11922E+04 -5.69747E+04 -5.08398E+04 -1.49531E+04 -6.91607E+04  2.73942E+04 -4.56270E+04
  3.97721E+04  3.82913E+03  1.61114E+04  4.71823E+04 -3.44014E+04  4.65643E+04 -6.62661E+04 -2.54111E+02
 -5.30247E+04 -5.58368E+04 -6.50939E+03 -7.66192E+04  3.38387E+04 -5.44083E+04  4.66891E+04 -1.65204E+04
  4.18920E+04  1.09986E+04  3.14676E+04  2.50321E+04  1.57761E+04  2.88296E+04 -5.14962E+03  2.67875E+04
 -2.18603E+04  1.26985E+04 -1.87008E+04 -4.71649E+03  5.14807E+03 -7.94651E+03  2.18995E+04  1.24868E+04
  7.29891E+03  3.43892E+04 -3.14216E+04  3.47591E+04 -6.23334E+04  2.49313E+03 -5.59386E+04 -4.14131E+04
 -1.24448E+04 -6.21714E+04  3.88604E+04 -4.48043E+04  5.63330E+04 -1.55851E+03  3.33193E+04  3.12694E+04
 -6.12581E+03  3.51569E+04 -2.93717E+04  1.47205E+04 -2.96442E+04 -5.14977E+03 -1.60070E+04 -1.06843E+04
 -8.36825E+03 -1.21554E+04 -1.41935E+03 -1.75003E+04  7.06759E+03 -2.30928E+04  1.51245E+04 -1.32984E+04
  1.27819E+04  4.62637E+03 -7.30250E+03  1.30491E+04 -2.04838E+04 -3.54160E+03 -8.09638E+03 -3.15192E+04
  2.16832E+04 -4.17736E+04  4.66296E+04 -1.93955E+04  4.34538E+04  1.89026E+04  1.45590E+04  4.27093E+04
 -1.57082E+04  3.20243E+04 -2.46376E+04  1.27625E+03 -8.24366E+03 -2.69300E+04  2.04805E+04 -3.25483E+04
  3.92113E+04 -7.98347E+03  3.32302E+04  2.32874E+04  1.68491E+04  4.44416E+04 -8.30822E+03  4.74527E+04
 -2.96946E+04  3.16306E+04 -3.89642E+04  8.87053E+03 -4.05812E+04 -1.50499E+04 -2.22198E+04 -3.57441E+04
  7.48496E+03 -3.55848E+04  3.06293E+04 -1.34062E+04  2.77893E+04  1.06939E+04  3.60457E+03  1.85367E+04
 -1.32385E+04  7.62386E+03 -9.76058E+03 -6.67555E+03  5.88976E+03 -1.02488E+04  1.69982E+04  6.63290E+03
  1.31781E+04  2.14846E+04 -6.63355E+03  2.40892E+04 -2.22849E+04  9.96721E+03 -2.64647E+04 -6.16249E+03
 -1.86025E+04 -1.67588E+04 -6.61100E+03 -1.84257E+04  3.66802E+03 -1.63017E+04  1.35687E+04 -1.54282E+04
  2.27274E+04 -1.22907E+04  2.96163E+04  1.37894E+03  2.16979E+04  1.76608E+04  3.94346E+03  3.34896E+04
 -1.69232E+04  2.81342E+04 -2.66477E+04  1.01343E+04 -2.01010E+04 -1.08012E+04 -3.60158E+03 -1.40719E+04
  2.37579E+03 -3.96871E+03 -3.09622E+03  5.65709E+03 -1.44697E+04  4.92767E+03 -1.41722E+04 -5.85729E+03
 -9.50951E+03 -1.67643E+04  4.56381E+03 -2.03128E+04  1.36602E+04 -1.48517E+04  1.55904E+04 -2.13475E+03
  9.72675E+03  1.13616E+04 -1.34707E+03  1.67703E+04 -1.05716E+04  9.00643E+03 -1.63664E+04 -3.92251E+03
 -1.18574E+04 -1.47050E+04 -1.55018E+03 -1.94145E+04  8.77501E+03 -1.61055E+04  1.68327E+04 -7.93653E+03
  1.60124E+04  5.97345E+02  1.11189E+04  4.20796E+03  5.31088E+03  3.18436E+02  7.95499E+03 -1.64729E+03
  1.47080E+04  2.92618E+03  1.54446E+04  1.34854E+04  1.02397E+04  2.65707E+04 -3.23919E+03  2.81059E+04
 -1.71200E+04  2.20464E+04 -2.61941E+04  1.10198E+04 -2.67727E+04 -2.08090E+03 -2.26439E+04 -1.52681E+04
 -1.09336E+04 -2.13057E+04  8.00652E+03 -2.04926E+04  1.76266E+04 -1.17028E+04  1.64528E+04  3.88302E+03
  6.87349E+03  1.19922E+04 -7.39016E+03  1.11720E+04 -1.39354E+04  2.70014E+03 -1.07561E+04 -8.14261E+03
  3.82143E+01 -1.29553E+04  6.61155E+03 -9.78093E+03  8.39148E+03 -1.39505E+03  1.23197E+03  5.47443E+03
 -5.77341E+03  1.89740E+03 -3.93528E+03 -5.35496E+03  4.96014E+02 -1.09439E+04  7.86435E+03 -1.08309E+04
  1.29272E+04 -5.94207E+03  1.33025E+04  2.55200E+03  1.07860E+04  9.69958E+03  5.82493E+03  1.53044E+04
 -2.29652E+03  1.67736E+04 -1.03921E+04  1.10444E+04 -1.19966E+04  2.86267E+03 -8.93487E+03 -2.09465E+03
 -4.67557E+03 -3.11612E+03 -6.46907E+02  1.14628E+03 -2.63571E+03  2.03888E+03 -4.24768E+03  3.44009E+03
 -8.19592E+03 -7.20069E+02 -9.29996E+03 -7.50309E+03 -3.14613E+03 -1.19271E+04  3.87407E+03 -9.25994E+03
  7.47529E+03 -3.84106E+03  5.01629E+03  1.79752E+03  5.36948E+02  3.66170E+03 -4.06882E+03 -7.43621E+02
 -3.82370E+03 -5.79524E+03 -9.33576E+02 -7.54351E+03  3.90468E+03 -8.33245E+03  1.03483E+04 -4.23156E+03
  1.24588E+04  5.75219E+01  9.28713E+03  6.68925E+03  1.93786E+03  8.86231E+03 -5.49470E+03  8.57244E+03
 -6.65497E+03  2.73620E+03 -3.78829E+03 -1.54901E+03  1.74566E+03 -2.39497E+03  5.13734E+03 -9.86032E+02
  4.22311E+03  3.65517E+03  1.60448E+03  6.45799E+03 -4.38323E+03  7.15088E+03 -7.68342E+03  1.49027E+03
 -5.12458E+03 -3.81373E+03  4.49592E+02 -7.11995E+03  3.87368E+03 -3.25683E+03  3.49698E+03  1.16572E+03
  8.81771E+02  3.59413E+03 -4.38730E+03  5.61235E+03 -5.23828E+03  2.57095E+03 -4.37147E+03 -1.54131E+03
 -2.66950E+03 -6.65286E+03  1.42891E+03 -7.39632E+03  6.00823E+03 -5.18609E+03  7.00793E+03  1.69223E+03
  4.84777E+03  6.09512E+03 -2.68333E+02  7.01041E+03 -4.50188E+03  4.50144E+03 -4.64916E+03 -4.86323E+02
 -5.81824E+03 -4.57136E+03 -1.10136E+03 -5.64222E+03  2.55113E+03 -4.24998E+03  2.54346E+03 -2.56111E+03
  3.35454E+03  1.64763E+02  1.00315E+03  1.38892E+03  5.05272E+02 -5.76564E+02  2.43954E+02 -2.15964E+03
  3.99909E+03 -8.41102E+02  5.13034E+03  1.03879E+03  5.71713E+03  3.42546E+03  5.58205E+03  7.28215E+03
 -1.16206E+03  9.45476E+03 -7.70389E+03  6.93496E+03 -1.05948E+04  1.06870E+03 -8.12886E+03 -2.66060E+03
 -3.92029E+03 -6.94048E+03 -7.38501E+02 -5.36339E+03  2.29931E+03 -1.88430E+03  2.08728E+03 -1.79966E+03
  7.78084E+02 -1.15810E+03  2.37182E+03 -2.20599E+03  3.73341E+03 -1.61849E+03  3.75326E+03  6.09369E+02
  4.64167E+03  1.10192E+03  8.93264E+02  3.25295E+03 -1.05046E+03  3.26866E+03 -4.29342E+03  2.36786E+03
 -4.87198E+03 -1.33335E+03 -1.82835E+03 -3.00874E+03  9.20683E+02 -4.56028E+03  3.86386E+03 -5.62852E+03
  4.64439E+03 -3.30146E+03  6.83119E+03  3.57799E+02  4.89055E+03  4.03750E+03  1.24947E+03  6.48129E+03
 -2.36040E+03  5.76586E+03 -3.25892E+03  1.87947E+03 -1.90796E+03 -1.19844E+03 -7.30056E+02 -4.50916E+02
 -5.84788E+02 -1.91494E+02 -6.23762E+02  2.20294E+03 -2.04155E+03  7.22605E+02 -4.43505E+03 -6.36893E+02
 -1.01518E+03 -4.31967E+03  6.90545E+02 -5.00397E+03  3.21672E+03 -4.09242E+03  3.38420E+03 -9.32588E+02
  3.91263E+03  2.22762E+03  1.36431E+03  3.20096E+03 -1.85762E+01  4.18586E+03 -3.06211E+03  2.76414E+03
 -3.07640E+03  5.48850E+02 -3.50187E+03 -2.81176E+03  1.88972E+02 -3.24804E+03  1.57179E+03 -2.64412E+03
  2.46832E+03 -9.22059E+02  1.94929E+03 -1.10524E+02  7.06128E+02  1.60484E+03  8.48933E+02  4.77390E+02
  7.41753E+02  4.95816E+02  6.18363E+02  1.31923E+03  9.43397E+02  2.79095E+03  1.84903E+03  1.77832E+03
 -1.16720E+03  3.45461E+03 -2.29319E+03  4.08249E+03 -2.90304E+03  1.13418E+03 -4.62571E+03 -1.02703E+02
 -1.42215E+03 -3.43482E+03  4.32323E+02 -4.70449E+03  1.49748E+03 -2.22037E+03  2.63213E+03 -7.68470E+02
  2.54611E+03  1.98736E+03  4.89620E+02  1.89975E+03 -5.49834E+02  1.38458E+03 -2.85319E+02 -8.74540E+01
 -3.33235E+02 -1.54791E+03  1.09739E+03 -1.48706E+03  9.09711E+02 -8.21903E+02  1.17654E+03  8.33568E+02
  7.99715E+02  2.00302E+02  1.38012E+03 -1.87169E+02 -3.61882E+02  5.89158E+02  1.53319E+03 -2.67097E+02
 -2.58053E+02  6.88997E+01  1.11352E+03  4.88292E+02  2.81346E+02  2.37438E+03 -1.21103E+02  2.36177E+03
 -1.71259E+03  7.22508E+02 -1.54947E+03  5.24966E+01 -2.19854E+03 -5.63883E+02 -3.69314E+01 -8.67017E+02
  5.51586E+02 -1.00269E+03  3.62175E+02 -6.94432E+02  2.09325E+02  1.22753E+03 -4.22516E+02  1.21473E+03
 -1.55942E+03  1.27621E+02 -1.65340E+03 -8.55669E+02 -7.86473E+02 -2.20261E+03  1.56095E+02 -1.34928E+03
 -1.20294E+01 -4.58989E+02  1.01460E+03  5.85505E+02  9.56131E+02 -2.72870E+00  2.29145E+02  1.02852E+03
 -4.43649E+01  4.52312E+01 -1.36754E+03  4.19824E+02  6.68630E+02 -1.05577E+03  1.71264E+03 -1.23568E+03
  8.79420E+02  3.22701E+02  2.50165E+03  1.67728E+02  1.62386E+03  1.59719E+03 -1.84218E+02  1.69865E+03
 -1.34464E+03 -7.46911E+01 -1.17359E+03 -5.87296E+02 -1.27881E+03 -1.09167E+03  2.17379E+02 -3.48104E+02
  1.84986E+03 -8.96406E+02  1.02013E+03  7.45360E+02  1.58287E+02  1.07960E+03  1.02510E+02  8.97551E+02
 -5.61950E+01  1.65445E+03 -9.60683E+02  2.15995E+02  1.68290E+02  2.22604E+02 -9.15253E+02  4.47737E+02
 -7.35423E+02  9.48545E+02 -2.12765E+03  3.91939E+02 -1.28489E+03 -1.06097E+01 -1.69772E+03 -9.82703E+02
 -1.42267E+03 -1.94110E+03 -1.92370E+01 -2.17616E+03  7.35747E+02 -2.19252E+03  2.38542E+03 -1.22080E+03
  2.50356E+03 -2.26230E+02  1.03787E+03  1.26297E+03 -7.15625E+02  8.53777E+02 -9.04154E+02  9.05031E+02
 -7.75456E+02  8.15536E+02 -8.65022E+02  5.71524E+01 -6.74576E+02 -9.67263E+00 -8.64204E+02 -6.43211E+01
 -7.68702E+02  3.68537E+02 -9.56424E+02 -3.57572E+01  2.39353E+02 -4.28340E+02 -3.86444E+02 -5.92501E+02
  1.23132E+03 -2.13360E+02  2.26776E+02  5.03077E+02  1.36630E+03  1.63003E+03 -9.86281E+01  8.83708E+02
 -7.30243E+02  2.25082E+03 -1.78954E+03  8.62030E+02 -1.20980E+03  2.28581E+02 -9.79802E+02 -9.58587E+02
 -5.34180E+02 -1.31776E+03 -1.98783E+02 -1.12591E+03  7.95468E+02 -5.55889E+02  4.72949E+02 -1.32164E+02
  3.06950E+02  3.90827E-01 -2.07335E+02  4.52852E+02 -2.93378E+02 -1.34866E+02 -5.08938E+01 -4.15495E+02
  6.13470E+02 -9.48823E+01  1.38203E+02  5.84511E+02 -3.19997E+02  4.25104E+02  1.21642E+02  1.07089E+00
 -7.12148E+02  1.03429E+03  3.36675E+01 -2.75456E+02 -7.97839E+02 -2.75085E+02  1.57661E+02 -4.78803E+02
  4.39693E+02 -2.37171E+02  1.27160E+02  4.50052E+02  9.70240E+02 -9.11658E+01  9.42425E+02  5.99422E+02
  1.60301E+02 -4.17194E+02  1.72216E+02  1.15060E+02 -5.92911E+02  2.01813E+02 -5.47349E+02  3.69434E+02
 -1.49128E+02 -2.53886E+01 -6.00534E+02  1.67854E+02 -7.51946E+02  9.14511E+00 -1.12452E+03 -6.74757E+02
 -3.90746E+02  3.60980E+01 -1.21133E+02 -8.29317E+02  3.61969E+02 -1.55222E+03  9.55176E+02 -4.24400E+02
  8.30169E+02  7.09509E+01 -1.32523E+02 -1.80826E+02 -1.75712E+02  1.51197E+03 -2.15951E+02  9.13923E+02
