 $NMID ID='MM_0lb_SNR400_8hz_g55_62.RAW', FMTDAT='(8E13.5)'
 TRAMP=1., VOLUME=1. $END
  3.10017E+05 -8.61470E+02  3.38709E+05  2.51550E+05  8.53358E+04  3.37864E+05 -1.33205E+05  2.51892E+05
 -1.91559E+05  8.46885E+04 -1.12542E+05 -3.23258E+04 -8.03695E+02 -5.07681E+04  5.47026E+04 -3.60222E+02
  3.62116E+04  5.33692E+04 -1.72117E+04  7.62014E+04 -6.10906E+04  6.52027E+04 -8.53584E+04  3.29209E+04
 -8.30041E+04 -1.18883E+04 -5.83762E+04 -5.14162E+04 -1.44719E+04 -7.17838E+04  2.82736E+04 -4.68873E+04
  4.12083E+04  3.51614E+03  1.66130E+04  4.83726E+04 -3.45738E+04  4.91236E+04 -6.87192E+04  7.83417E+02
 -5.48546E+04 -5.84250E+04 -7.61097E+03 -8.04361E+04  3.51309E+04 -5.71711E+04  5.05009E+04 -1.90768E+04
  4.48972E+04  1.10594E+04  3.29180E+04  2.76112E+04  1.64649E+04  3.11201E+04 -6.21297E+03  2.85365E+04
 -2.29450E+04  1.21773E+04 -1.83819E+04 -5.37082E+03  6.74882E+03 -7.79795E+03  2.34686E+04  1.30307E+04
  6.48081E+03  3.84940E+04 -3.40518E+04  3.83151E+04 -6.67331E+04  1.16420E+03 -5.91415E+04 -4.48315E+04
 -1.20799E+04 -6.68345E+04  4.17095E+04 -4.82424E+04  6.20608E+04 -2.30517E+03  3.74832E+04  3.42462E+04
 -4.68482E+03  4.04467E+04 -3.25268E+04  1.97432E+04 -3.39556E+04 -3.00309E+03 -2.08475E+04 -1.19210E+04
 -9.58648E+03 -1.59931E+04  4.73666E+02 -1.97840E+04  8.50313E+03 -2.34442E+04  1.68586E+04 -1.30846E+04
  1.07523E+04  6.40206E+03 -1.20479E+04  1.23341E+04 -2.36074E+04 -7.11806E+03 -9.12803E+03 -3.83638E+04
  2.52316E+04 -4.68645E+04  5.27141E+04 -2.12854E+04  4.98760E+04  2.01994E+04  1.79956E+04  4.78463E+04
 -1.73534E+04  3.70293E+04 -2.84644E+04  2.67697E+03 -1.27902E+04 -3.00450E+04  2.15666E+04 -3.75561E+04
  4.63502E+04 -1.13155E+04  4.18722E+04  2.61465E+04  2.14998E+04  5.28275E+04 -8.41066E+03  5.82359E+04
 -3.64088E+04  3.95016E+04 -4.80913E+04  1.13306E+04 -4.90920E+04 -1.86574E+04 -2.64377E+04 -4.29327E+04
  8.10762E+03 -4.31555E+04  3.52869E+04 -1.81723E+04  3.23295E+04  1.15115E+04  4.86219E+03  2.05100E+04
 -1.45807E+04  1.03779E+04 -1.08328E+04 -8.02401E+03  5.13095E+03 -1.16193E+04  1.94897E+04  6.27334E+03
  1.48166E+04  2.29428E+04 -5.21666E+03  2.73212E+04 -2.38627E+04  1.47847E+04 -3.21372E+04 -2.68503E+03
 -2.67849E+04 -1.85432E+04 -1.25493E+04 -2.57559E+04  3.56925E+03 -2.76662E+04  2.03413E+04 -2.52412E+04
  3.43771E+04 -1.44570E+04  3.94595E+04  5.57277E+03  2.74933E+04  2.57552E+04  4.32845E+03  4.34977E+04
 -2.06611E+04  3.55558E+04 -3.19874E+04  1.22147E+04 -2.35562E+04 -1.00086E+04 -4.85302E+03 -1.27861E+04
  6.06518E+02 -4.46972E+02 -8.61857E+03  9.06339E+03 -2.13910E+04  4.82077E+03 -2.12931E+04 -1.01748E+04
 -1.19391E+04 -2.40803E+04  6.79614E+03 -2.91873E+04  1.89849E+04 -1.99403E+04  2.45441E+04 -1.15156E+03
  1.53823E+04  1.65795E+04 -1.65634E+03  2.53491E+04 -1.82920E+04  1.49326E+04 -2.45831E+04 -5.71035E+03
 -1.85221E+04 -2.20376E+04 -3.27123E+03 -2.96483E+04  1.32202E+04 -2.54570E+04  2.46180E+04 -1.26305E+04
  2.29926E+04 -8.67386E+02  1.64378E+04  4.92976E+03  9.65258E+03  6.12681E+02  1.24097E+04 -2.18294E+03
  2.33320E+04  3.22778E+03  2.64610E+04  1.94402E+04  1.97403E+04  3.92586E+04 -2.67185E+03  4.67171E+04
 -2.67131E+04  3.99083E+04 -4.41942E+04  2.01673E+04 -4.83882E+04 -3.38583E+03 -3.94991E+04 -2.84069E+04
 -1.49754E+04 -4.08139E+04  1.43444E+04 -3.44792E+04  3.06741E+04 -1.68066E+04  2.57708E+04  9.48691E+03
  8.97569E+03  2.04667E+04 -1.17093E+04  1.59284E+04 -2.15649E+04  2.39644E+03 -1.64053E+04 -1.35746E+04
 -1.17721E+03 -2.01772E+04  1.08718E+04 -1.47992E+04  1.46263E+04 -1.44180E+03  3.91114E+03  9.05050E+03
 -1.01508E+04  4.31311E+03 -1.01421E+04 -6.99101E+03 -2.00008E+03 -1.91982E+04  1.31658E+04 -2.19016E+04
  2.43006E+04 -1.31947E+04  2.81024E+04  3.82076E+03  2.43235E+04  2.08782E+04  1.15999E+04  3.14392E+04
 -6.14205E+03  3.30205E+04 -2.25618E+04  2.16127E+04 -2.49922E+04  3.63012E+03 -1.66692E+04 -6.49676E+03
 -7.32264E+03 -7.83939E+03 -3.11179E+02  3.33426E+02 -3.19217E+03  3.77583E+03 -8.73505E+03  5.62461E+03
 -1.52615E+04 -1.40163E+03 -1.55199E+04 -1.21263E+04 -6.87486E+03 -2.11545E+04  6.88179E+03 -1.69496E+04
  1.44487E+04 -6.24855E+03  9.26194E+03  4.31241E+03 -1.05434E+03  6.88787E+03 -8.96115E+03  5.63698E+02
 -9.07442E+03 -1.13271E+04 -1.77853E+03 -1.62602E+04  1.02911E+04 -1.86192E+04  2.20838E+04 -9.67918E+03
  2.55207E+04  3.16273E+03  1.91765E+04  1.64621E+04  4.09557E+03  2.06805E+04 -9.93767E+03  1.64157E+04
 -1.46830E+04  3.89987E+03 -6.92289E+03 -3.86225E+03  2.75624E+03 -4.36656E+03  7.14875E+03 -3.37294E+02
  7.75262E+03  7.15686E+03  1.34408E+03  1.35106E+04 -1.02050E+04  1.34262E+04 -1.68312E+04  3.55505E+03
 -1.17069E+04 -9.46725E+03 -3.99392E+02 -1.44954E+04  9.79518E+03 -8.07890E+03  1.02718E+04  3.46563E+03
  2.20630E+03  1.11381E+04 -8.91797E+03  1.32149E+04 -1.48377E+04  5.37216E+03 -1.55221E+04 -5.83609E+03
 -8.36375E+03 -1.83558E+04  4.55809E+03 -2.00325E+04  1.72033E+04 -1.20751E+04  1.83117E+04  3.81847E+03
  1.08463E+04  1.49681E+04 -2.06785E+03  1.71801E+04 -1.31868E+04  9.32549E+03 -1.47321E+04 -1.48604E+03
 -1.12333E+04 -1.14429E+04 -2.30381E+03 -1.39300E+04  6.78160E+03 -9.72214E+03  8.18122E+03 -4.11545E+03
  5.58525E+03  2.98184E+03 -2.00403E+03  1.55768E+03 -1.49069E+03 -4.41782E+03  3.41247E+03 -8.49842E+03
  1.31747E+04 -5.82160E+03  1.77848E+04  1.64757E+03  1.70266E+04  1.30886E+04  1.08684E+04  2.44841E+04
 -5.38560E+03  2.81163E+04 -2.23584E+04  2.03845E+04 -2.93825E+04  3.65639E+03 -2.37232E+04 -1.05309E+04
 -1.15832E+04 -1.94402E+04 -7.16213E+02 -1.70570E+04  6.00608E+03 -9.52941E+03  5.76086E+03 -4.97696E+03
  4.95894E+03 -2.94126E+03  3.83303E+03 -4.51649E+03  6.04266E+03 -4.23813E+03  9.46254E+03 -1.63603E+03
  1.17637E+04  1.96108E+03  7.21730E+03  1.06468E+04 -1.70251E+03  1.25768E+04 -1.40089E+04  9.34237E+03
 -1.72382E+04 -1.25029E+03 -1.05539E+04 -1.21081E+04 -1.79479E+03 -1.90317E+04  1.02330E+04 -1.84888E+04
  1.90791E+04 -9.33866E+03  2.23060E+04  3.20531E+03  1.55287E+04  1.53341E+04  2.62803E+03  2.07517E+04
 -8.55481E+03  1.67538E+04 -1.21569E+04  4.80947E+03 -7.48491E+03 -2.39270E+03 -2.70130E+03 -3.08398E+03
 -1.84753E+03 -1.55765E+03 -2.23185E+03  2.83751E+03 -7.52208E+03  2.50111E+03 -1.11585E+04 -1.43373E+03
 -8.82173E+03 -1.20641E+04 -1.41977E+02 -1.68316E+04  1.12186E+04 -1.58646E+04  1.66216E+04 -4.24683E+03
  1.64718E+04  8.95309E+03  8.06307E+03  1.49122E+04 -3.58450E+03  1.68310E+04 -1.26139E+04  1.11173E+04
 -1.57342E+04  1.22377E+03 -1.16184E+04 -1.13931E+04 -1.43820E+03 -1.45612E+04  7.95652E+03 -1.07674E+04
  1.15113E+04 -3.03662E+03  8.04382E+03  3.09215E+03  2.69067E+03  5.04833E+03  8.27374E+02  2.14819E+03
  2.64283E+03  1.53054E+02  4.45576E+03  1.60325E+03  5.23592E+03  5.73691E+03  3.77986E+03  1.03635E+04
 -3.79795E+03  1.30326E+04 -1.24517E+04  1.33499E+04 -1.85206E+04  2.68869E+03 -1.77482E+04 -7.36260E+03
 -8.98850E+03 -1.71333E+04  2.32810E+03 -1.91523E+04  1.00651E+04 -1.28256E+04  1.45832E+04 -3.66424E+03
  1.15322E+04  5.97038E+03  2.88244E+03  8.85004E+03 -5.05876E+03  7.15173E+03 -7.62265E+03 -1.29666E+03
 -3.36446E+03 -7.05475E+03  3.84989E+03 -8.04354E+03  7.79273E+03 -4.27558E+03  7.32150E+03  1.42193E+03
  4.70814E+03  4.79053E+03  2.02011E+03  3.88205E+03 -1.95680E+02  2.03716E+03  1.38331E+03 -1.10043E+01
  3.03157E+03 -1.53353E+03  7.29207E+03  2.81966E+03  5.06185E+03  9.30155E+03 -1.48141E+03  1.20534E+04
 -7.95944E+03  9.15429E+03 -1.14963E+04  1.77935E+03 -1.01554E+04 -3.57133E+03 -4.37917E+03 -6.76263E+03
  5.87177E+02 -6.91580E+03  4.86419E+03 -3.17512E+03  3.81530E+03  4.39988E+03 -1.46813E+03  5.84739E+03
 -7.53151E+03  3.74114E+03 -9.02064E+03 -3.35284E+03 -4.58876E+03 -9.46054E+03  7.63424E+02 -9.47081E+03
  6.25299E+03 -6.09480E+03  8.04312E+03 -8.88352E+02  6.04666E+03  3.20859E+03  1.77619E+03  5.51741E+03
 -4.44424E+03  1.16193E+03 -4.58451E+03 -4.77179E+03  1.88894E+03 -8.45697E+03  7.85707E+03 -6.12600E+03
  1.22255E+04  1.69428E+03  1.14937E+04  7.49856E+03  3.54571E+03  1.19566E+04 -5.97802E+03  1.16276E+04
 -9.84030E+03  5.73667E+03 -9.82429E+03 -1.76441E+03 -5.16475E+03 -7.45446E+03  2.80454E+03 -7.36906E+03
  7.98446E+03 -3.53086E+03  6.99738E+03  1.94153E+03  2.98575E+03  6.30531E+03 -9.74873E+02  6.24451E+03
 -3.79455E+03  3.46955E+03 -2.34909E+03  8.02735E+02 -1.44297E+03  5.58916E+02 -1.23936E+03  2.40484E+03
 -3.80407E+03  4.80949E+03 -8.49614E+03  4.29007E+03 -1.29571E+04  6.81432E+02 -1.41583E+04 -7.15137E+03
 -7.20150E+03 -1.66676E+04  2.89504E+03 -1.90732E+04  1.25837E+04 -1.37126E+04  1.72194E+04 -5.14157E+03
  1.69102E+04  4.51678E+03  1.04921E+04  1.13027E+04  8.74349E+02  1.30133E+04 -4.71404E+03  9.33212E+03
 -6.97477E+03  3.16569E+03 -4.08185E+03 -7.71546E+02 -1.22159E+03 -1.79866E+03  5.18176E+01 -2.80531E+02
 -2.52713E+03  3.37647E+02 -2.37200E+03  1.01900E+02 -1.04979E+03 -2.65556E+03  1.00713E+03 -5.21435E+03
  5.08308E+03 -3.71982E+03  7.58299E+03 -4.40768E+02  9.70801E+03  6.54988E+03  3.41908E+03  1.29548E+04
 -6.50179E+03  1.47939E+04 -1.34321E+04  8.57214E+03 -1.47456E+04 -5.46335E+02 -1.24401E+04 -1.02334E+04
 -4.95247E+03 -1.36996E+04  3.69019E+03 -1.13239E+04  8.50145E+03 -7.31239E+03  8.89450E+03  4.87143E+02
  4.59479E+03  4.03082E+03 -9.82419E+02  3.46477E+03 -3.14100E+03 -4.54397E+02 -3.99710E+02 -3.22850E+03
  4.01364E+03 -2.32585E+03  4.81600E+03  1.57807E+03  4.17795E+03  5.22711E+03 -6.28083E+02  6.42229E+03
 -5.79271E+03  5.99859E+03 -8.85603E+03  4.57971E+02 -8.29748E+03 -6.71967E+03 -6.40017E+02 -1.05011E+04
  5.76228E+03 -9.36658E+03  9.96174E+03 -3.66330E+03  1.09954E+04  3.06112E+03  5.84029E+03  8.38491E+03
  9.92072E+02  8.78901E+03 -3.44089E+03  7.56165E+03 -4.98611E+03  4.11184E+03 -4.60865E+03  1.82205E+02
 -3.16468E+03 -8.71344E+02 -2.19578E+03  1.74800E+03 -5.45898E+03  1.26164E+03 -7.60552E+03 -2.00758E+03
 -6.80877E+03 -6.25461E+03 -1.51679E+03 -7.73403E+03  4.04089E+03 -9.51634E+03  7.44390E+03 -5.25799E+03
  9.84497E+03  1.31353E+03  5.24762E+03  6.01839E+03 -9.42626E+02  8.89394E+03 -7.69616E+03  6.36967E+03
