 $NMID ID='MM_0lb_SNR400_10hz_g45_3.RAW', FMTDAT='(8E13.5)'
 TRAMP=1., VOLUME=1. $END
  3.09676E+05  2.04707E+02  3.37858E+05  2.51215E+05  8.47621E+04  3.38671E+05 -1.32661E+05  2.52025E+05
 -1.91276E+05  8.31997E+04 -1.12828E+05 -3.25555E+04  8.33491E+02 -5.13889E+04  5.36679E+04 -7.38030E+02
  3.55885E+04  5.22793E+04 -1.67976E+04  7.53015E+04 -6.13533E+04  6.44783E+04 -8.50192E+04  3.26630E+04
 -8.18217E+04 -1.10729E+04 -5.80590E+04 -5.21360E+04 -1.50416E+04 -7.09072E+04  2.82278E+04 -4.62599E+04
  4.08434E+04  3.26128E+03  1.68589E+04  4.86207E+04 -3.40107E+04  4.81036E+04 -6.72937E+04 -4.94032E+02
 -5.45586E+04 -5.72467E+04 -7.46692E+03 -7.86067E+04  3.44050E+04 -5.62386E+04  4.94469E+04 -1.75381E+04
  4.43968E+04  1.17134E+04  3.25087E+04  2.61579E+04  1.61472E+04  3.06597E+04 -5.73595E+03  2.78885E+04
 -2.20873E+04  1.22344E+04 -1.84948E+04 -5.30278E+03  7.06011E+03 -7.19446E+03  2.32590E+04  1.29639E+04
  7.01049E+03  3.63244E+04 -3.31955E+04  3.62345E+04 -6.45296E+04  2.58371E+03 -5.83515E+04 -4.41848E+04
 -1.19748E+04 -6.53819E+04  4.13291E+04 -4.76877E+04  6.02932E+04 -2.56803E+03  3.62534E+04  3.39439E+04
 -5.98836E+03  3.82573E+04 -3.08674E+04  1.79146E+04 -3.29457E+04 -3.56614E+03 -1.83993E+04 -1.22440E+04
 -9.70514E+03 -1.50198E+04 -1.05220E+03 -1.94442E+04  7.71145E+03 -2.32436E+04  1.56170E+04 -1.34310E+04
  1.01162E+04  6.02805E+03 -9.98461E+03  1.24628E+04 -2.24468E+04 -5.97623E+03 -8.51044E+03 -3.64281E+04
  2.47352E+04 -4.56227E+04  5.14435E+04 -2.01526E+04  4.73304E+04  1.96092E+04  1.69954E+04  4.58127E+04
 -1.68136E+04  3.54766E+04 -2.68612E+04  2.31170E+03 -1.08573E+04 -2.91019E+04  2.07695E+04 -3.64469E+04
  4.26169E+04 -9.75352E+03  3.89224E+04  2.47242E+04  2.06191E+04  4.99759E+04 -8.29630E+03  5.41255E+04
 -3.39990E+04  3.66490E+04 -4.62332E+04  1.09761E+04 -4.58334E+04 -1.83526E+04 -2.60769E+04 -4.07375E+04
  7.79316E+03 -4.08863E+04  3.30223E+04 -1.59834E+04  3.07668E+04  1.09565E+04  5.02424E+03  2.04040E+04
 -1.43740E+04  9.19852E+03 -1.09660E+04 -7.84240E+03  5.69639E+03 -1.11155E+04  1.82984E+04  5.62368E+03
  1.40903E+04  2.22940E+04 -5.06835E+03  2.65305E+04 -2.28366E+04  1.37266E+04 -2.97396E+04 -3.57687E+03
 -2.42334E+04 -1.82065E+04 -1.06831E+04 -2.32609E+04  4.51632E+03 -2.31587E+04  1.85759E+04 -2.10270E+04
  2.96946E+04 -1.41877E+04  3.64332E+04  3.98757E+03  2.62481E+04  2.36789E+04  5.26766E+03  3.96789E+04
 -1.94068E+04  3.25916E+04 -2.92938E+04  1.12263E+04 -2.21988E+04 -9.78428E+03 -5.41403E+03 -1.31062E+04
  1.13163E+03 -1.98069E+03 -7.37533E+03  7.12126E+03 -1.91605E+04  4.58090E+03 -1.86389E+04 -9.16264E+03
 -1.16472E+04 -2.23809E+04  5.21354E+03 -2.58340E+04  1.72137E+04 -1.86536E+04  2.07242E+04 -1.62632E+03
  1.36678E+04  1.47952E+04 -7.69351E+02  2.21181E+04 -1.55725E+04  1.19065E+04 -2.15936E+04 -3.94674E+03
 -1.59587E+04 -1.95445E+04 -2.18305E+03 -2.60872E+04  1.20907E+04 -2.18851E+04  2.25807E+04 -1.11798E+04
  2.06922E+04 -1.00862E+03  1.59905E+04  5.23782E+03  8.67057E+03  1.30107E+03  1.15621E+04 -2.29265E+03
  2.08357E+04  3.01153E+03  2.42875E+04  1.74702E+04  1.63041E+04  3.56338E+04 -2.80857E+03  4.13569E+04
 -2.37045E+04  3.41746E+04 -3.84474E+04  1.72404E+04 -4.11881E+04 -2.86878E+03 -3.32354E+04 -2.39549E+04
 -1.33590E+04 -3.36272E+04  1.22264E+04 -3.07015E+04  2.53040E+04 -1.45516E+04  2.24617E+04  6.87164E+03
  7.59896E+03  1.72902E+04 -1.06069E+04  1.41104E+04 -1.90963E+04  1.84233E+03 -1.40227E+04 -1.18982E+04
  7.13637E+02 -1.82570E+04  9.57196E+03 -1.41605E+04  1.29017E+04 -1.17217E+03  2.59332E+03  7.95692E+03
 -8.49539E+03  3.72945E+03 -7.44523E+03 -6.87460E+03 -1.88038E+03 -1.64621E+04  1.10504E+04 -1.80466E+04
  2.09609E+04 -1.01526E+04  2.36987E+04  3.33372E+03  2.03658E+04  1.74825E+04  1.01114E+04  2.69810E+04
 -5.25438E+03  2.83900E+04 -1.82736E+04  1.73468E+04 -2.05937E+04  3.45124E+03 -1.44643E+04 -6.25213E+03
 -6.77289E+03 -6.07207E+03 -5.40999E+01  1.12151E+03 -2.70378E+03  3.20757E+03 -6.93242E+03  5.49083E+03
 -1.33935E+04 -9.31087E+02 -1.34419E+04 -1.10305E+04 -6.11923E+03 -1.83581E+04  6.01561E+03 -1.48917E+04
  1.17887E+04 -5.75456E+03  8.16003E+03  4.42766E+03  4.18753E+02  5.55336E+03 -7.26344E+03 -6.30791E+02
 -7.14380E+03 -8.87178E+03 -1.58862E+03 -1.36516E+04  8.22235E+03 -1.54009E+04  1.79373E+04 -8.57057E+03
  2.09249E+04  2.47665E+03  1.58449E+04  1.35835E+04  3.17821E+03  1.71365E+04 -9.12133E+03  1.44044E+04
 -1.16481E+04  4.16103E+03 -6.03416E+03 -3.54339E+03  2.29021E+03 -3.80525E+03  7.78157E+03 -1.32114E+03
  6.98893E+03  6.36329E+03  8.59197E+02  1.17377E+04 -8.57618E+03  1.12637E+04 -1.41880E+04  3.24072E+03
 -9.88120E+03 -7.45461E+03 -2.63036E+02 -1.21004E+04  7.24110E+03 -5.61996E+03  7.53466E+03  2.87204E+03
  2.16930E+03  9.06286E+03 -7.11645E+03  1.03583E+04 -1.19565E+04  3.83760E+03 -1.30455E+04 -4.75789E+03
 -8.26399E+03 -1.45445E+04  4.07122E+03 -1.61173E+04  1.34411E+04 -9.98199E+03  1.52135E+04  1.95935E+03
  9.10621E+03  1.16823E+04 -1.78034E+03  1.43949E+04 -1.03651E+04  7.77715E+03 -1.18234E+04 -1.64914E+03
 -1.03424E+04 -9.15463E+03 -1.90494E+03 -1.06436E+04  5.36975E+03 -8.41589E+03  6.72966E+03 -2.82668E+03
  4.86193E+03  2.87561E+03 -5.64970E+02  2.16273E+03 -6.84299E+02 -2.89349E+03  1.34803E+03 -6.74405E+03
  9.87751E+03 -3.75404E+03  1.49769E+04  1.19164E+03  1.44627E+04  9.41241E+03  8.56817E+03  1.82108E+04
 -4.64013E+03  2.09627E+04 -1.78445E+04  1.50623E+04 -2.25509E+04  2.30118E+03 -1.84724E+04 -7.37258E+03
 -9.19564E+03 -1.45828E+04 -5.16650E+02 -1.22952E+04  4.62408E+03 -6.56768E+03  4.91823E+03 -4.55039E+03
  3.54630E+03 -2.78820E+03  3.68981E+03 -3.07671E+03  5.46947E+03 -3.40172E+03  7.22413E+03 -5.64451E+02
  1.02748E+04  2.11740E+03  5.03458E+03  8.03339E+03 -2.15667E+03  9.68014E+03 -9.83421E+03  7.25567E+03
 -1.34658E+04 -1.08994E+03 -7.87056E+03 -8.48943E+03 -1.02480E+03 -1.44437E+04  7.57848E+03 -1.32304E+04
  1.40225E+04 -7.91855E+03  1.72521E+04  2.11140E+03  1.10452E+04  1.20409E+04  1.66146E+03  1.58255E+04
 -6.52326E+03  1.31120E+04 -8.77126E+03  3.73712E+03 -5.19770E+03 -1.54649E+03 -2.12830E+03 -2.03658E+03
 -1.12022E+03 -2.07605E+02 -1.92162E+03  3.28651E+03 -5.94434E+03  2.45379E+03 -8.35584E+03 -7.82884E+02
 -5.68325E+03 -8.50293E+03  4.44910E+02 -1.22887E+04  7.66463E+03 -1.16042E+04  1.20421E+04 -3.23334E+03
  1.24310E+04  5.51865E+03  5.87927E+03  1.19392E+04 -2.03349E+03  1.29978E+04 -1.00212E+04  7.77184E+03
 -1.21449E+04  6.48447E+02 -9.53537E+03 -7.47857E+03 -1.39240E+03 -1.12587E+04  5.20730E+03 -8.11576E+03
  7.99838E+03 -3.14353E+03  5.72513E+03  1.87366E+03  2.01642E+03  3.96905E+03  3.05836E+02  1.95165E+03
  3.35642E+03  1.29492E+03  3.61090E+03  1.72047E+03  4.45605E+03  3.81900E+03  3.08199E+03  7.28386E+03
 -2.85807E+03  1.06072E+04 -8.83219E+03  9.15614E+03 -1.26970E+04  3.26339E+03 -1.39516E+04 -5.23463E+03
 -5.99176E+03 -1.27104E+04  1.68175E+03 -1.39872E+04  6.91674E+03 -8.68738E+03  1.08384E+04 -2.26078E+03
  8.71480E+03  5.20307E+03  1.96319E+03  7.68216E+03 -4.08484E+03  5.21509E+03 -5.31201E+03 -4.42320E+00
 -2.75553E+03 -5.80332E+03  2.99028E+03 -6.04618E+03  4.95377E+03 -2.47469E+03  4.35226E+03  1.28471E+03
  3.13344E+03  2.80963E+03  5.09080E+02  1.35943E+03 -5.93150E+02  2.22694E+03  2.49011E+03 -2.74801E+02
  2.20466E+03 -1.94133E+02  5.61383E+03  1.57861E+03  3.25257E+03  7.29916E+03 -1.44973E+03  8.99005E+03
 -6.52611E+03  5.68472E+03 -8.52739E+03  1.42990E+03 -6.99453E+03 -3.50121E+03 -3.02209E+03 -4.92882E+03
  6.06600E+02 -4.62715E+03  3.74529E+03 -2.79073E+03  2.36344E+03  2.08915E+03 -1.71850E+03  3.86619E+03
 -5.32580E+03  2.61287E+03 -6.67245E+03 -3.03046E+03 -3.19919E+03 -6.30620E+03  1.08083E+03 -6.39181E+03
  4.32695E+03 -3.60728E+03  5.08245E+03 -7.84584E+02  4.27309E+03  2.16649E+03  5.74900E+02  3.43792E+03
 -2.13752E+03  8.27280E+02 -2.74678E+03 -2.64734E+03  6.53184E+02 -5.36954E+03  6.75500E+03 -4.54477E+03
  8.11218E+03  6.35383E+02  7.86180E+03  5.97376E+03  3.06287E+03  8.46049E+03 -2.92160E+03  8.04639E+03
 -6.97995E+03  3.36357E+03 -7.41750E+03 -1.19723E+03 -4.31032E+03 -5.38192E+03  1.21045E+03 -4.23189E+03
  5.03341E+03 -2.67024E+03  3.72197E+03  2.13270E+03  1.31480E+03  4.50335E+03 -1.26678E+03  4.33667E+03
 -2.30720E+03  2.75944E+03 -1.94098E+03  9.90493E+02 -1.02608E+03  7.15267E+02 -1.24685E+03  1.59954E+03
 -2.41485E+03  3.28397E+03 -5.78102E+03  2.46689E+03 -7.97774E+03  5.24596E+01 -8.60820E+03 -5.04610E+03
 -4.45464E+03 -1.11271E+04  1.92572E+03 -1.30830E+04  7.57859E+03 -1.01144E+04  1.32827E+04 -3.22014E+03
  1.09733E+04  2.31779E+03  6.92960E+03  8.26549E+03  3.87493E+02  8.57731E+03 -3.32925E+03  6.34745E+03
 -4.34575E+03  2.36080E+03 -2.70979E+03 -1.49849E+03 -1.09906E+03 -2.31715E+02  2.57005E+02  3.57777E+01
 -1.35031E+03  1.89631E+02 -1.95209E+03 -1.70944E+02 -7.74517E+02 -2.41286E+03  3.56759E+02 -3.08422E+03
  3.85554E+03 -3.43174E+03  4.86274E+03 -2.32492E+02  6.47837E+03  4.48093E+03  1.40544E+03  8.40408E+03
 -4.23873E+03  9.83328E+03 -8.99491E+03  5.61252E+03 -9.72925E+03 -1.36591E+03 -7.49086E+03 -6.73246E+03
 -2.73485E+03 -8.58297E+03  2.03838E+03 -7.80667E+03  4.22675E+03 -4.26315E+03  5.42016E+03  9.27925E+02
  3.14907E+03  2.74145E+03 -4.92032E+01  2.28992E+03 -2.01367E+03 -4.66849E+02  8.91983E+02 -1.36176E+03
  2.49750E+03 -1.23634E+03  3.53379E+03  1.31882E+03  2.23045E+03  2.74584E+03  5.14464E+02  4.13611E+03
 -3.83389E+03  4.28643E+03 -5.65113E+03  3.97671E+02 -4.34283E+03 -3.77562E+03 -8.43202E+02 -6.74127E+03
  4.45249E+03 -5.70404E+03  6.93792E+03 -1.08967E+03  6.32713E+03  1.39083E+03  3.26073E+03  5.80509E+03
  3.85630E+02  5.51149E+03 -1.73877E+03  4.78136E+03 -3.16540E+03  2.75934E+03 -3.81262E+03  6.13019E+02
 -1.10650E+03 -1.55597E+02 -2.23627E+03  4.85663E+02 -2.66477E+03  1.37711E+03 -4.41679E+03 -7.11835E+02
 -4.72622E+03 -1.76140E+03 -1.59178E+03 -6.22870E+03  3.13122E+03 -5.78048E+03  5.00350E+03 -2.33911E+03
  4.96954E+03  4.04497E+02  2.52237E+03  3.03198E+03 -4.61584E+02  5.63080E+03 -4.14083E+03  3.22283E+03
