 $NMID ID='MM_0lb_SNR400_13hz_g60_63.RAW', FMTDAT='(8E13.5)'
 TRAMP=1., VOLUME=1. $END
  3.09726E+05 -4.45157E+02  3.37969E+05  2.50334E+05  8.54872E+04  3.38291E+05 -1.32310E+05  2.51848E+05
 -1.90329E+05  8.34184E+04 -1.12460E+05 -3.21627E+04  1.28145E+03 -5.05531E+04  5.40331E+04 -2.47954E+02
  3.59147E+04  5.30170E+04 -1.70534E+04  7.55401E+04 -6.08844E+04  6.40747E+04 -8.43521E+04  3.26444E+04
 -8.23061E+04 -1.16115E+04 -5.76164E+04 -5.10780E+04 -1.54911E+04 -7.11178E+04  2.76563E+04 -4.64615E+04
  4.10052E+04  3.16568E+03  1.67041E+04  4.88247E+04 -3.42448E+04  4.81162E+04 -6.73377E+04 -7.37790E+02
 -5.40675E+04 -5.70098E+04 -7.22247E+03 -7.94201E+04  3.39540E+04 -5.64162E+04  4.89696E+04 -1.77822E+04
  4.37738E+04  1.15723E+04  3.24162E+04  2.60828E+04  1.63096E+04  3.02701E+04 -5.76352E+03  2.74989E+04
 -2.21909E+04  1.16760E+04 -1.84040E+04 -5.50660E+03  6.30801E+03 -7.30097E+03  2.29194E+04  1.28604E+04
  7.34540E+03  3.68969E+04 -3.31375E+04  3.54916E+04 -6.43649E+04  1.84287E+03 -5.76762E+04 -4.42347E+04
 -1.21115E+04 -6.44645E+04  4.08566E+04 -4.65593E+04  5.99225E+04 -2.53635E+03  3.56678E+04  3.34430E+04
 -5.31751E+03  3.78036E+04 -3.07910E+04  1.73133E+04 -3.18443E+04 -3.80927E+03 -1.76669E+04 -1.14696E+04
 -8.77264E+03 -1.37164E+04 -4.82745E+02 -1.89398E+04  7.66041E+03 -2.36999E+04  1.53274E+04 -1.31264E+04
  1.00074E+04  5.61492E+03 -9.28940E+03  1.25249E+04 -2.20738E+04 -5.91232E+03 -8.53597E+03 -3.62791E+04
  2.45018E+04 -4.55019E+04  5.03965E+04 -2.05102E+04  4.75701E+04  2.03171E+04  1.67113E+04  4.55459E+04
 -1.61193E+04  3.47188E+04 -2.65986E+04  1.53738E+03 -1.03693E+04 -2.84644E+04  2.13487E+04 -3.53104E+04
  4.31152E+04 -1.02784E+04  3.78560E+04  2.46163E+04  2.00455E+04  4.91228E+04 -8.54714E+03  5.25239E+04
 -3.36919E+04  3.66669E+04 -4.44343E+04  1.06082E+04 -4.51649E+04 -1.70670E+04 -2.52131E+04 -4.06851E+04
  7.21402E+03 -4.05900E+04  3.30395E+04 -1.63714E+04  3.08189E+04  1.11713E+04  4.79238E+03  2.03066E+04
 -1.35094E+04  8.72197E+03 -1.08705E+04 -7.70199E+03  5.37742E+03 -1.15595E+04  1.81080E+04  6.31402E+03
  1.44097E+04  2.29102E+04 -6.02097E+03  2.63707E+04 -2.27903E+04  1.26725E+04 -2.99020E+04 -4.18967E+03
 -2.31805E+04 -1.82142E+04 -1.06821E+04 -2.26174E+04  4.14740E+03 -2.29226E+04  1.73345E+04 -1.98961E+04
  2.92049E+04 -1.37889E+04  3.43773E+04  4.16668E+03  2.58488E+04  2.22048E+04  4.71312E+03  3.84656E+04
 -1.87655E+04  3.22208E+04 -2.93805E+04  1.18309E+04 -2.12748E+04 -1.06392E+04 -4.71777E+03 -1.32708E+04
  1.87115E+03 -2.49186E+03 -6.31599E+03  7.75103E+03 -1.80203E+04  5.55344E+03 -1.86963E+04 -8.15997E+03
 -1.08621E+04 -2.08453E+04  6.04147E+03 -2.61097E+04  1.72691E+04 -1.81796E+04  1.98841E+04 -1.47022E+03
  1.31294E+04  1.44835E+04 -1.77926E+03  2.11324E+04 -1.47933E+04  1.16344E+04 -2.09923E+04 -4.71562E+03
 -1.49275E+04 -1.92745E+04 -2.08608E+03 -2.49978E+04  1.09764E+04 -2.03142E+04  2.08107E+04 -1.05360E+04
  2.00067E+04 -5.59145E+01  1.47656E+04  4.83559E+03  8.03929E+03  1.92754E+03  1.08801E+04 -1.62669E+03
  1.96186E+04  3.21422E+03  2.23866E+04  1.65151E+04  1.42059E+04  3.34750E+04 -2.96732E+03  3.85964E+04
 -2.22500E+04  3.16614E+04 -3.58596E+04  1.64199E+04 -3.78663E+04 -2.96227E+03 -3.11570E+04 -2.21996E+04
 -1.28699E+04 -3.17898E+04  1.17222E+04 -2.85449E+04  2.40669E+04 -1.43316E+04  2.09142E+04  6.58842E+03
  7.81841E+03  1.59843E+04 -9.85586E+03  1.43929E+04 -1.80623E+04  2.55378E+03 -1.35599E+04 -1.09612E+04
  3.47218E+00 -1.74721E+04  9.18924E+03 -1.22390E+04  1.12372E+04 -8.89269E+02  2.45435E+03  7.62423E+03
 -7.21461E+03  3.67761E+03 -7.14001E+03 -6.10358E+03 -1.05186E+03 -1.60946E+04  1.06052E+04 -1.63416E+04
  1.95511E+04 -8.94934E+03  2.14535E+04  2.69257E+03  1.86073E+04  1.55512E+04  9.16074E+03  2.43063E+04
 -4.31337E+03  2.50659E+04 -1.59074E+04  1.54481E+04 -1.88473E+04  3.40572E+03 -1.29704E+04 -4.13161E+03
 -5.33764E+03 -6.21083E+03 -2.68315E+02  6.68662E+02 -2.65707E+03  3.19288E+03 -6.28388E+03  5.01697E+03
 -1.19887E+04 -5.06936E+02 -1.20992E+04 -1.06110E+04 -4.57868E+03 -1.64576E+04  5.03386E+03 -1.31416E+04
  1.03080E+04 -5.45109E+03  8.19178E+03  3.04950E+03 -8.97836E+01  5.25528E+03 -5.45388E+03 -4.67456E+02
 -6.27782E+03 -8.35723E+03 -9.64525E+02 -1.23154E+04  6.55510E+03 -1.36216E+04  1.59059E+04 -6.97900E+03
  1.87087E+04  7.09377E+02  1.48463E+04  1.08675E+04  2.19864E+03  1.51686E+04 -8.22883E+03  1.29004E+04
 -1.04327E+04  3.32972E+03 -5.39027E+03 -2.27589E+03  1.83707E+03 -3.08074E+03  7.04433E+03 -1.08780E+03
  5.90152E+03  6.11634E+03  1.10774E+03  9.83947E+03 -7.68305E+03  9.84690E+03 -1.27966E+04  2.31244E+03
 -8.72674E+03 -6.74194E+03 -1.52689E+02 -1.06282E+04  6.92419E+03 -4.81470E+03  7.02203E+03  1.84542E+03
  2.05492E+03  7.27692E+03 -6.59312E+03  9.43932E+03 -9.98433E+03  4.24086E+03 -9.77887E+03 -3.34722E+03
 -6.00318E+03 -1.19073E+04  2.99765E+03 -1.41166E+04  1.11374E+04 -7.80940E+03  1.29110E+04  1.66766E+03
  8.40565E+03  9.79708E+03 -5.50666E+02  1.22453E+04 -9.48152E+03  6.91044E+03 -9.62849E+03 -6.72332E+02
 -8.86121E+03 -8.67883E+03 -1.32557E+03 -9.55179E+03  4.69198E+03 -8.13043E+03  6.37373E+03 -3.64998E+03
  4.03435E+03  1.65936E+03 -8.65905E+02  1.85201E+03 -6.66190E+02 -1.97931E+03  1.12971E+03 -5.38435E+03
  8.38752E+03 -3.33439E+03  1.14833E+04  2.08840E+03  1.11827E+04  7.54233E+03  8.18503E+03  1.56322E+04
 -3.49916E+03  1.76399E+04 -1.44142E+04  1.27451E+04 -1.89023E+04  2.56077E+03 -1.51177E+04 -6.98254E+03
 -8.03175E+03 -1.24407E+04 -1.20058E+02 -1.05911E+04  3.87310E+03 -5.28941E+03  3.74452E+03 -3.83054E+03
  2.20504E+03 -2.11038E+03  2.61718E+03 -3.03748E+03  4.57353E+03 -2.34247E+03  5.33994E+03 -5.50668E+02
  8.02354E+03  2.29223E+03  3.94320E+03  6.39521E+03 -1.62625E+03  7.98436E+03 -8.68448E+03  5.85188E+03
 -1.08915E+04 -1.51471E+03 -6.51092E+03 -7.54282E+03 -5.50202E+02 -1.11055E+04  6.09356E+03 -1.08654E+04
  1.15052E+04 -5.88891E+03  1.39179E+04  1.71535E+03  9.47432E+03  8.77678E+03  1.94799E+03  1.22480E+04
 -5.16434E+03  1.03248E+04 -7.45505E+03  2.95809E+03 -4.64180E+03 -1.46418E+03 -2.19192E+03 -1.38917E+03
 -1.01291E+03  2.08492E+02 -1.20227E+03  1.85221E+03 -4.72686E+03  1.54163E+03 -6.96048E+03 -7.60513E+02
 -4.67580E+03 -6.93532E+03  4.73200E+02 -1.04004E+04  6.32465E+03 -8.41472E+03  9.82193E+03 -2.73944E+03
  9.63452E+03  4.95104E+03  4.50615E+03  8.63314E+03 -2.64147E+03  9.59460E+03 -6.88604E+03  5.93526E+03
 -9.16345E+03  7.98696E+02 -7.72481E+03 -6.16185E+03 -1.19825E+03 -7.69333E+03  4.07267E+03 -5.53571E+03
  6.14944E+03 -2.42571E+03  4.30560E+03  1.50673E+03  1.57110E+03  3.67571E+03  1.10519E+03  1.75621E+03
  3.06920E+03  7.32977E+02  1.73765E+03  1.11130E+03  2.63048E+03  3.92320E+03  3.21834E+03  5.19389E+03
 -1.85547E+03  7.40362E+03 -6.16744E+03  7.73903E+03 -9.69211E+03  2.87462E+03 -9.57503E+03 -4.08595E+03
 -5.28561E+03 -9.15176E+03  2.08404E+03 -1.07629E+04  5.28638E+03 -6.12440E+03  7.71366E+03 -1.92749E+03
  6.51101E+03  3.90340E+03  1.62124E+03  5.20883E+03 -2.14864E+03  3.05041E+03 -3.46134E+03 -8.92958E+02
 -2.65905E+03 -4.02131E+03  3.06298E+03 -3.69434E+03  3.43577E+03 -2.04142E+03  3.79032E+03  4.67787E+02
  2.01406E+03  2.30587E+03  9.40591E+02  7.48357E+02 -8.19961E+02  8.11805E+02  1.58134E+03 -4.80963E+02
  1.63158E+03 -9.27918E+02  4.03300E+03  1.34800E+03  1.75048E+03  4.98217E+03 -8.66686E+02  7.14772E+03
 -4.83782E+03  4.06379E+03 -6.00009E+03  1.53940E+03 -5.26879E+03 -2.32866E+03 -1.92685E+03 -3.69461E+03
  6.70410E+02 -3.53855E+03  1.84927E+03 -2.57428E+03  1.62185E+03  2.41117E+03 -1.29977E+03  3.33799E+03
 -4.33774E+03  2.10862E+03 -4.18923E+03 -2.30215E+03 -2.68278E+03 -5.23286E+03  2.57117E+02 -4.62077E+03
  2.47479E+03 -2.26152E+03  3.50468E+03 -2.86094E+02  3.45086E+03  1.13230E+03  6.86305E+02  1.85625E+03
 -1.12691E+03  9.22849E+01 -2.11407E+03 -1.26846E+03  1.23178E+03 -4.26619E+03  4.28367E+03 -2.91846E+03
  4.99964E+03  7.53338E+02  5.17291E+03  3.84454E+03  2.37602E+03  5.61079E+03 -2.22722E+03  4.80944E+03
 -4.71340E+03  2.25132E+03 -4.37416E+03 -3.60977E+02 -2.11858E+03 -4.27033E+03  8.50203E+02 -2.47138E+03
  3.48115E+03 -1.80506E+03  2.12083E+03  1.66574E+03  1.22356E+03  3.00367E+03 -1.41982E+02  2.86840E+03
 -9.24344E+02  2.74790E+03 -1.70324E+03  6.66411E+02 -9.33396E+02  6.28034E+02 -8.84953E+02  1.21097E+03
 -9.88785E+02  2.16363E+03 -4.42239E+03  1.50323E+03 -5.35990E+03  3.93015E+02 -6.37936E+03 -3.54782E+03
 -3.32027E+03 -6.66013E+03  1.34638E+03 -8.71947E+03  4.35257E+03 -6.44689E+03  8.23625E+03 -2.28013E+03
  6.78257E+03  1.21086E+03  4.73143E+03  4.34642E+03 -6.65354E+02  5.21433E+03 -2.58844E+03  4.24027E+03
 -2.70618E+03  1.82148E+03 -1.77666E+03 -7.92188E+02 -8.61148E+02 -3.48531E+02  1.64887E+01 -8.76686E+02
 -8.70066E+02 -2.62036E+02 -1.56851E+03  1.59936E+02 -1.32469E+02 -1.57386E+03  3.97399E+02 -1.94189E+03
  2.60142E+03 -1.76258E+03  2.99421E+03 -1.56870E+02  3.57986E+03  3.00205E+03  9.76210E+02  5.47309E+03
 -2.77339E+03  6.38466E+03 -5.64063E+03  2.97065E+03 -6.08009E+03 -4.85097E+02 -4.35333E+03 -3.58571E+03
 -1.70946E+03 -5.84425E+03  1.50722E+03 -4.78639E+03  2.90647E+03 -2.51472E+03  3.78175E+03 -1.59835E+02
  1.47165E+03  1.24431E+03 -2.43549E+02  1.29911E+03 -7.03435E+02 -3.34151E+02 -6.87623E+01 -6.74566E+02
  1.97955E+03 -4.37607E+02  2.17297E+03  8.76671E+02  1.26286E+03  1.78560E+03  1.02006E+03  2.20596E+03
 -1.72063E+03  2.85960E+03 -3.05417E+03  2.24024E+01 -2.67243E+03 -2.59666E+03 -7.05091E+02 -4.41704E+03
  1.98392E+03 -2.50365E+03  3.66552E+03 -8.64140E+02  3.38953E+03  1.01706E+02  1.67470E+03  3.16583E+03
  9.48744E+02  2.83633E+03 -1.20871E+03  2.09521E+03 -1.30406E+03  1.20528E+03 -1.36882E+03  1.07378E+03
 -1.20119E+03 -4.49893E+02 -8.58152E+02  1.17772E+03 -1.75303E+03  3.40328E+02 -1.97378E+03 -6.32480E+02
 -2.54802E+03 -1.55745E+03 -4.02925E+02 -3.51134E+03  1.58954E+03 -4.06211E+03  3.08669E+03 -1.03983E+03
  2.58371E+03  6.31602E+02  3.85470E+02  2.03084E+03 -8.84517E+02  3.24812E+03 -2.68595E+03  2.09181E+03
