 $NMID ID='MM_0lb_SNR400_12hz_g60_59.RAW', FMTDAT='(8E13.5)'
 TRAMP=1., VOLUME=1. $END
  3.10307E+05  6.89715E+02  3.37835E+05  2.50785E+05  8.48653E+04  3.38733E+05 -1.32370E+05  2.51843E+05
 -1.90469E+05  8.40144E+04 -1.12488E+05 -3.21478E+04  5.79343E+02 -5.03559E+04  5.41510E+04  1.61527E+02
  3.48241E+04  5.32403E+04 -1.64726E+04  7.61805E+04 -6.13925E+04  6.38467E+04 -8.53285E+04  3.23531E+04
 -8.30289E+04 -1.20462E+04 -5.73953E+04 -5.22652E+04 -1.45473E+04 -7.10682E+04  2.79514E+04 -4.62205E+04
  4.08159E+04  3.90603E+03  1.67967E+04  4.75325E+04 -3.43451E+04  4.79100E+04 -6.79794E+04 -3.51556E+02
 -5.43053E+04 -5.71101E+04 -6.93762E+03 -7.85229E+04  3.46901E+04 -5.61368E+04  4.93264E+04 -1.79777E+04
  4.44393E+04  1.10927E+04  3.29143E+04  2.67974E+04  1.57842E+04  3.07829E+04 -5.99008E+03  2.81724E+04
 -2.22715E+04  1.23621E+04 -1.77959E+04 -5.25388E+03  6.52162E+03 -7.41361E+03  2.29866E+04  1.32055E+04
  7.58875E+03  3.76163E+04 -3.34273E+04  3.67022E+04 -6.48373E+04  1.93859E+03 -5.83893E+04 -4.33433E+04
 -1.24759E+04 -6.57374E+04  4.10913E+04 -4.68320E+04  6.05843E+04 -2.62792E+03  3.67577E+04  3.37665E+04
 -5.37354E+03  3.83880E+04 -3.15122E+04  1.84141E+04 -3.19920E+04 -3.81494E+03 -1.91404E+04 -1.16303E+04
 -9.98697E+03 -1.47548E+04 -4.39987E+02 -1.91976E+04  8.18105E+03 -2.28177E+04  1.60982E+04 -1.24982E+04
  1.02609E+04  5.55184E+03 -9.88688E+03  1.26168E+04 -2.31573E+04 -6.51809E+03 -8.00761E+03 -3.58102E+04
  2.44106E+04 -4.58170E+04  5.12040E+04 -2.06912E+04  4.71019E+04  2.03180E+04  1.60481E+04  4.59021E+04
 -1.63769E+04  3.52200E+04 -2.64198E+04  2.82347E+03 -1.07743E+04 -2.92164E+04  2.11403E+04 -3.55008E+04
  4.36358E+04 -1.02383E+04  3.90424E+04  2.48779E+04  2.06751E+04  4.94766E+04 -8.43075E+03  5.42468E+04
 -3.39418E+04  3.65713E+04 -4.56792E+04  9.85337E+03 -4.61215E+04 -1.79218E+04 -2.52396E+04 -4.10326E+04
  7.76633E+03 -4.07341E+04  3.35739E+04 -1.54576E+04  3.12168E+04  1.13784E+04  4.70095E+03  2.05235E+04
 -1.37681E+04  9.46139E+03 -1.12335E+04 -7.33513E+03  5.58301E+03 -1.07157E+04  1.83419E+04  5.33709E+03
  1.44644E+04  2.20209E+04 -5.69448E+03  2.64269E+04 -2.37997E+04  1.29922E+04 -3.02423E+04 -2.56494E+03
 -2.36110E+04 -1.83704E+04 -1.02649E+04 -2.39276E+04  4.25746E+03 -2.37682E+04  1.76435E+04 -2.14265E+04
  2.98273E+04 -1.31605E+04  3.56420E+04  4.63528E+03  2.54759E+04  2.31675E+04  4.71565E+03  3.99518E+04
 -1.99476E+04  3.24175E+04 -2.99124E+04  1.05587E+04 -2.23509E+04 -9.56200E+03 -5.04661E+03 -1.35181E+04
  1.01737E+03 -1.52846E+03 -7.02943E+03  7.49322E+03 -1.85939E+04  4.82111E+03 -1.84637E+04 -8.70535E+03
 -1.14231E+04 -2.19072E+04  6.19914E+03 -2.58418E+04  1.78084E+04 -1.87381E+04  2.11046E+04 -8.14035E+02
  1.36341E+04  1.48570E+04 -1.39440E+03  2.13640E+04 -1.48017E+04  1.26174E+04 -2.19375E+04 -4.06648E+03
 -1.60027E+04 -1.94663E+04 -2.29106E+03 -2.65534E+04  1.16135E+04 -2.16105E+04  2.15635E+04 -1.11404E+04
  2.02367E+04 -2.03576E+02  1.49976E+04  5.31962E+03  8.26543E+03  3.73148E+02  1.09927E+04 -2.21321E+03
  2.04553E+04  2.92993E+03  2.31120E+04  1.66465E+04  1.51881E+04  3.48550E+04 -3.18539E+03  3.99534E+04
 -2.33475E+04  3.33802E+04 -3.76924E+04  1.69957E+04 -4.05151E+04 -2.70097E+03 -3.32065E+04 -2.33778E+04
 -1.39083E+04 -3.36409E+04  1.21208E+04 -2.88396E+04  2.57173E+04 -1.42969E+04  2.24291E+04  6.60473E+03
  7.46629E+03  1.71825E+04 -1.03148E+04  1.50716E+04 -1.88598E+04  3.21847E+03 -1.38762E+04 -1.20795E+04
  7.32958E+01 -1.75313E+04  9.84976E+03 -1.31602E+04  1.19445E+04 -1.82292E+03  2.79831E+03  7.70610E+03
 -7.75570E+03  3.06214E+03 -7.35520E+03 -6.34606E+03 -8.50295E+02 -1.66644E+04  1.03282E+04 -1.77016E+04
  2.03688E+04 -9.54103E+03  2.32418E+04  3.03432E+03  1.98456E+04  1.58702E+04  9.36421E+03  2.57995E+04
 -4.55959E+03  2.68686E+04 -1.81896E+04  1.63369E+04 -1.97908E+04  4.07395E+03 -1.43563E+04 -5.30997E+03
 -5.62555E+03 -6.06750E+03 -3.63943E+02  6.01987E+02 -2.12068E+03  2.71275E+03 -6.48507E+03  4.19937E+03
 -1.28314E+04 -9.31393E+02 -1.30070E+04 -1.00357E+04 -5.48630E+03 -1.74914E+04  6.17529E+03 -1.39720E+04
  1.16136E+04 -5.50962E+03  8.69916E+03  3.75783E+03 -6.83062E+02  6.68951E+03 -6.46170E+03  8.03628E+02
 -6.68433E+03 -9.07210E+03 -6.82444E+02 -1.35406E+04  7.11330E+03 -1.42992E+04  1.80791E+04 -7.53975E+03
  1.99836E+04  1.93693E+03  1.44664E+04  1.23554E+04  3.16733E+03  1.62207E+04 -8.13390E+03  1.40686E+04
 -1.09913E+04  4.08522E+03 -5.70887E+03 -3.15692E+03  2.11257E+03 -3.72922E+03  7.26496E+03 -2.37087E+02
  6.78830E+03  6.29704E+03  9.12843E+02  1.13975E+04 -7.63828E+03  1.00593E+04 -1.31014E+04  2.22525E+03
 -9.62373E+03 -6.80359E+03  7.68376E+02 -1.17330E+04  7.51992E+03 -5.58641E+03  7.73798E+03  2.45126E+03
  2.29964E+03  8.60066E+03 -7.45651E+03  9.50652E+03 -1.09567E+04  3.70077E+03 -1.10375E+04 -3.53546E+03
 -7.38598E+03 -1.29682E+04  3.14141E+03 -1.46546E+04  1.25617E+04 -9.26091E+03  1.39919E+04  2.77624E+03
  8.19924E+03  1.08557E+04 -1.03307E+03  1.30193E+04 -9.64163E+03  7.92625E+03 -1.06190E+04 -1.02911E+03
 -9.58016E+03 -8.72317E+03 -1.60470E+03 -1.07190E+04  5.55196E+03 -8.09025E+03  6.27695E+03 -4.08188E+03
  3.40406E+03  1.92074E+03 -8.90733E+02  1.71905E+03 -2.78733E+02 -2.96832E+03  1.88844E+03 -5.63398E+03
  8.68236E+03 -3.33692E+03  1.29482E+04  1.37219E+03  1.26436E+04  8.76345E+03  7.99475E+03  1.72162E+04
 -3.60159E+03  1.89417E+04 -1.60891E+04  1.47189E+04 -2.08160E+04  2.72618E+03 -1.63948E+04 -7.45407E+03
 -8.18292E+03 -1.39319E+04 -2.73085E+02 -1.16526E+04  4.74318E+03 -6.77301E+03  4.06603E+03 -4.50198E+03
  2.86889E+03 -2.83062E+03  3.95635E+03 -3.05180E+03  4.97422E+03 -3.03616E+03  7.07442E+03 -1.31125E+03
  8.84447E+03  2.84983E+03  4.71919E+03  7.29429E+03 -2.53428E+03  8.78308E+03 -9.87901E+03  6.72019E+03
 -1.21585E+04 -1.33383E+03 -6.36699E+03 -8.20939E+03 -5.60759E+02 -1.25828E+04  7.45606E+03 -1.25331E+04
  1.29339E+04 -6.61589E+03  1.56245E+04  1.79430E+03  9.86443E+03  1.04863E+04  9.97803E+02  1.38575E+04
 -5.37314E+03  1.16168E+04 -8.18429E+03  4.06460E+03 -5.93985E+03 -1.53144E+03 -2.72523E+03 -1.87615E+03
 -9.86720E+02 -1.66846E+02 -1.76089E+03  2.44435E+03 -5.00776E+03  2.13288E+03 -8.61851E+03 -1.17294E+03
 -5.57152E+03 -7.61571E+03 -2.88283E+01 -1.10932E+04  6.78456E+03 -9.83794E+03  1.09173E+04 -3.70227E+03
  1.01492E+04  5.26041E+03  5.39564E+03  1.02420E+04 -2.45721E+03  1.10392E+04 -8.05146E+03  7.66395E+03
 -1.03681E+04  6.63888E+02 -8.65371E+03 -6.66089E+03 -1.05289E+03 -9.38768E+03  5.34663E+03 -6.74699E+03
  7.18351E+03 -2.27849E+03  4.47179E+03  1.16573E+03  1.54247E+03  3.37697E+03  1.08686E+03  1.08936E+03
  1.74370E+03  4.84535E+02  2.59575E+03  1.11284E+03  3.57726E+03  3.64766E+03  2.28491E+03  5.66466E+03
 -2.38563E+03  8.56577E+03 -7.71438E+03  8.66066E+03 -1.07372E+04  3.06380E+03 -1.11521E+04 -4.18525E+03
 -6.41712E+03 -1.07559E+04  1.56604E+03 -1.20326E+04  7.19093E+03 -7.76490E+03  8.85823E+03 -2.86338E+03
  7.45957E+03  4.62207E+03  1.61345E+03  7.05946E+03 -2.85969E+03  4.44209E+03 -3.71065E+03 -2.47057E+02
 -1.94032E+03 -4.45035E+03  2.87581E+03 -4.67199E+03  4.87917E+03 -2.35853E+03  3.89795E+03  1.07667E+03
  2.49228E+03  2.08746E+03  1.48674E+03  1.86114E+03 -3.99027E+02  1.97384E+03  1.71346E+03 -8.01926E+02
  2.07598E+03 -2.21329E+02  4.26857E+03  1.32649E+03  1.73660E+03  5.38341E+03 -2.27772E+02  7.53874E+03
 -5.11900E+03  4.55151E+03 -7.36002E+03  1.36996E+03 -6.83463E+03 -1.99141E+03 -2.67293E+03 -3.73278E+03
  2.21391E+02 -4.70085E+03  2.89223E+03 -2.11376E+03  2.55689E+03  2.70994E+03 -1.37942E+03  3.04802E+03
 -3.84475E+03  1.80510E+03 -4.90605E+03 -2.75284E+03 -2.56246E+03 -6.15317E+03  4.43531E+02 -5.82012E+03
  3.36332E+03 -3.47816E+03  4.13674E+03 -1.14683E+01  4.05838E+03  1.28427E+03  1.38023E+03  3.88354E+03
 -1.39313E+03  9.81677E+02 -2.17647E+03 -1.92260E+03  1.31718E+03 -3.70126E+03  4.78884E+03 -3.48894E+03
  6.74419E+03  2.13525E+02  6.57422E+03  4.10000E+03  2.77149E+03  6.84854E+03 -3.34500E+03  5.96524E+03
 -5.88833E+03  2.56548E+03 -5.50768E+03 -7.87454E+02 -3.25145E+03 -4.71908E+03  5.73048E+02 -3.63174E+03
  4.50662E+03 -2.54996E+03  2.87967E+03  2.32568E+03  1.32129E+03  3.58756E+03  2.94673E+01  3.45405E+03
 -1.36128E+03  2.64441E+03 -1.37592E+03  1.64407E+03 -8.90804E+02  4.55467E+02 -1.35349E+03  1.80133E+03
 -1.68751E+03  3.28324E+03 -4.59381E+03  1.82851E+03 -6.45344E+03 -1.42385E+02 -7.58294E+03 -3.84916E+03
 -3.14146E+03 -8.88095E+03  1.00486E+03 -9.83745E+03  6.04495E+03 -7.93492E+03  9.33589E+03 -3.00633E+03
  8.35004E+03  1.45408E+03  5.08049E+03  5.60947E+03  1.87577E+02  6.72132E+03 -1.38794E+03  4.65629E+03
 -3.16779E+03  2.03143E+03 -1.84925E+03 -6.91379E+02 -1.39204E+03 -6.87953E+02 -6.67375E+02 -1.38765E+02
 -1.55064E+03  2.97210E+02 -1.40693E+03 -2.49210E+02 -3.46110E+02 -1.67548E+03  7.46563E+02 -1.99565E+03
  3.06593E+03 -1.87110E+03  3.70640E+03 -8.89446E+02  4.45556E+03  3.95475E+03  1.64256E+03  5.38788E+03
 -1.95837E+03  6.90324E+03 -7.22793E+03  4.25850E+03 -7.59877E+03 -5.83081E+02 -5.58698E+03 -5.45637E+03
 -2.11999E+03 -6.20488E+03  1.51359E+03 -5.76409E+03  3.97587E+03 -3.02124E+03  3.60101E+03  3.60794E+02
  2.10587E+03  1.86216E+03 -2.05146E+02  1.86897E+03 -2.05678E+03 -2.49730E+02  3.49947E+02 -1.01252E+03
  1.41755E+03 -3.92483E+02  2.43904E+03  1.42412E+03  1.23956E+03  2.51279E+03  5.99919E+02  3.24047E+03
 -2.84072E+03  3.02025E+03 -3.53543E+03  2.88738E+02 -3.17516E+03 -3.13505E+03 -6.60129E+02 -4.87784E+03
  2.16848E+03 -4.50849E+03  4.03066E+03 -7.13398E+02  4.76384E+03  4.57324E+01  1.80409E+03  3.30009E+03
  2.80714E+02  3.78877E+03 -1.34542E+03  3.71063E+03 -2.65803E+03  2.21494E+03 -1.89153E+03  1.45452E+02
 -1.20793E+03  4.62043E+02 -1.79139E+03  6.35879E+02 -1.75808E+03  1.11373E+03 -2.86888E+03 -8.22129E+02
 -3.48645E+03 -7.08001E+02 -8.37828E+02 -4.55339E+03  1.69574E+03 -4.77306E+03  3.26269E+03 -1.78420E+03
  3.46395E+03  3.23194E+02  1.05936E+03  2.73617E+03 -4.77818E+02  4.37941E+03 -2.90128E+03  1.79331E+03
