 $NMID ID='MM_0lb_SNR400_18hz_g50_88.RAW', FMTDAT='(8E13.5)'
 TRAMP=1., VOLUME=1. $END
  3.10029E+05  4.27112E+02  3.37572E+05  2.50587E+05  8.40464E+04  3.37097E+05 -1.32483E+05  2.50866E+05
 -1.89556E+05  8.22872E+04 -1.10609E+05 -3.27815E+04  8.85274E+02 -5.03605E+04  5.36082E+04  2.24715E+02
  3.45359E+04  5.27186E+04 -1.65636E+04  7.53634E+04 -6.06449E+04  6.29379E+04 -8.40011E+04  3.16355E+04
 -7.98526E+04 -1.06034E+04 -5.61849E+04 -5.02381E+04 -1.49460E+04 -6.88485E+04  2.67572E+04 -4.53477E+04
  3.92775E+04  3.23082E+03  1.57874E+04  4.73836E+04 -3.42692E+04  4.65770E+04 -6.59036E+04 -8.07676E+01
 -5.25989E+04 -5.62642E+04 -6.64895E+03 -7.52381E+04  3.32536E+04 -5.38312E+04  4.69283E+04 -1.62845E+04
  4.20425E+04  1.12334E+04  3.14619E+04  2.50965E+04  1.61314E+04  2.92075E+04 -5.01476E+03  2.73740E+04
 -2.17129E+04  1.24282E+04 -1.92641E+04 -3.99896E+03  4.02800E+03 -7.35954E+03  2.14114E+04  1.08490E+04
  7.66858E+03  3.34699E+04 -3.06452E+04  3.43349E+04 -6.17076E+04  1.94442E+03 -5.52620E+04 -4.13696E+04
 -1.25305E+04 -6.09342E+04  3.82981E+04 -4.39225E+04  5.57945E+04 -1.99760E+03  3.25484E+04  3.11669E+04
 -6.53314E+03  3.37775E+04 -2.89447E+04  1.34502E+04 -2.85425E+04 -5.14928E+03 -1.44630E+04 -9.78256E+03
 -7.77699E+03 -1.18030E+04 -4.31780E+02 -1.67215E+04  6.79228E+03 -2.27884E+04  1.51050E+04 -1.40206E+04
  1.16952E+04  4.53944E+03 -7.01036E+03  1.28206E+04 -1.97629E+04 -2.59836E+03 -7.78079E+03 -3.08256E+04
  2.13117E+04 -4.08559E+04  4.53889E+04 -1.90121E+04  4.22217E+04  1.85096E+04  1.49670E+04  4.22423E+04
 -1.54889E+04  3.16418E+04 -2.40527E+04  9.58365E+02 -8.37186E+03 -2.65744E+04  2.08574E+04 -3.15149E+04
  3.87580E+04 -7.76949E+03  3.24542E+04  2.27873E+04  1.59034E+04  4.35625E+04 -7.68541E+03  4.62574E+04
 -2.93621E+04  3.10203E+04 -3.82643E+04  8.93664E+03 -3.86158E+04 -1.51810E+04 -2.14995E+04 -3.53182E+04
  6.92178E+03 -3.48100E+04  2.93550E+04 -1.32067E+04  2.69522E+04  1.02461E+04  3.63076E+03  1.80034E+04
 -1.31961E+04  7.63527E+03 -9.84617E+03 -8.16116E+03  5.88760E+03 -9.73270E+03  1.79430E+04  6.13722E+03
  1.22928E+04  2.12911E+04 -6.44499E+03  2.42679E+04 -2.14984E+04  9.77590E+03 -2.56906E+04 -5.74848E+03
 -1.68731E+04 -1.64515E+04 -6.44605E+03 -1.75198E+04  4.21675E+03 -1.56325E+04  1.35840E+04 -1.55485E+04
  2.17097E+04 -1.21454E+04  2.87816E+04  1.84681E+03  2.19667E+04  1.67471E+04  4.49021E+03  3.34365E+04
 -1.63461E+04  2.76552E+04 -2.60383E+04  9.71018E+03 -1.96733E+04 -1.04033E+04 -4.00093E+03 -1.40094E+04
  2.86234E+03 -3.42388E+03 -2.89237E+03  5.37628E+03 -1.31171E+04  5.06807E+03 -1.42415E+04 -5.10393E+03
 -9.34155E+03 -1.56410E+04  4.80556E+03 -2.03407E+04  1.35713E+04 -1.46036E+04  1.51890E+04 -1.44023E+03
  8.97567E+03  1.15498E+04 -7.76581E+02  1.61087E+04 -1.10749E+04  8.76220E+03 -1.63787E+04 -4.05586E+03
 -1.24292E+04 -1.44475E+04 -1.26047E+03 -1.99283E+04  9.07084E+03 -1.54287E+04  1.67664E+04 -7.65468E+03
  1.52402E+04  2.39996E+02  1.13675E+04  4.35330E+03  5.24510E+03  3.02859E+02  8.53939E+03 -1.54856E+03
  1.48868E+04  2.99188E+03  1.54119E+04  1.32426E+04  9.60718E+03  2.56696E+04 -3.05385E+03  2.80480E+04
 -1.62091E+04  2.18822E+04 -2.59753E+04  1.01164E+04 -2.61669E+04 -1.87333E+03 -2.27596E+04 -1.53586E+04
 -1.05187E+04 -2.16612E+04  7.41966E+03 -1.94575E+04  1.74127E+04 -1.15375E+04  1.61238E+04  4.15887E+03
  6.48660E+03  1.13222E+04 -7.66887E+03  1.09171E+04 -1.40827E+04  2.86371E+03 -1.07251E+04 -8.07792E+03
  1.69964E+02 -1.31082E+04  6.60624E+03 -1.01547E+04  8.30951E+03 -1.02162E+03  1.69550E+03  5.00425E+03
 -6.00772E+03  1.38868E+03 -4.31226E+03 -4.81661E+03  2.94601E+02 -1.05970E+04  8.57703E+03 -1.09346E+04
  1.27251E+04 -5.73866E+03  1.26592E+04  2.49319E+03  1.05765E+04  9.71248E+03  5.43554E+03  1.53433E+04
 -1.94427E+03  1.65839E+04 -1.03824E+04  1.11343E+04 -1.16483E+04  3.00818E+03 -8.74007E+03 -2.60179E+03
 -4.70137E+03 -3.65504E+03 -4.57583E+02  1.51631E+03 -1.94959E+03  2.33298E+03 -3.82406E+03  4.04576E+03
 -9.06028E+03 -7.35692E+01 -9.25575E+03 -7.65019E+03 -3.49259E+03 -1.22347E+04  3.83411E+03 -9.27266E+03
  7.68838E+03 -3.85294E+03  5.79064E+03  1.98422E+03  2.36214E+02  3.25577E+03 -4.06760E+03 -1.88953E+02
 -3.74947E+03 -5.79622E+03 -2.04102E+02 -7.45872E+03  4.57981E+03 -8.53197E+03  1.03431E+04 -4.07881E+03
  1.16720E+04  9.56973E+02  8.80773E+03  6.67031E+03  2.28836E+03  9.19574E+03 -5.58551E+03  8.96678E+03
 -7.06266E+03  3.09447E+03 -4.08438E+03 -1.38809E+03  1.37915E+03 -1.86507E+03  5.60270E+03 -1.36863E+03
  4.08558E+03  3.66418E+03  7.45550E+02  6.57553E+03 -4.03559E+03  6.93566E+03 -8.39083E+03  2.03384E+03
 -4.88180E+03 -4.11906E+03  3.84620E+02 -7.55552E+03  4.26136E+03 -3.11849E+03  3.55514E+03  4.34069E+02
  6.73204E+02  3.51228E+03 -4.13409E+03  5.32698E+03 -5.72888E+03  2.75945E+03 -4.55930E+03 -9.79547E+02
 -3.21927E+03 -6.10856E+03  8.81341E+02 -7.54690E+03  6.27514E+03 -5.67111E+03  7.27570E+03  1.17211E+03
  4.86450E+03  5.28180E+03  5.79443E+02  7.66612E+03 -4.58586E+03  4.65561E+03 -5.15450E+03 -5.07709E+02
 -5.81685E+03 -5.80735E+03 -1.06261E+03 -5.40769E+03  2.76603E+03 -5.10356E+03  3.77616E+03 -3.23753E+03
  2.56367E+03  6.80541E+02  3.85365E+02  8.37995E+02  4.46239E+02 -1.85870E+02 -3.85698E+01 -2.49416E+03
  3.92865E+03 -1.30994E+02  5.94204E+03  6.81026E+02  5.61170E+03  3.62014E+03  5.22301E+03  7.29944E+03
 -1.30172E+03  9.28910E+03 -7.79758E+03  6.60961E+03 -1.09966E+04  1.50204E+03 -8.14446E+03 -3.37279E+03
 -3.91325E+03 -7.37157E+03 -9.37939E+02 -5.32341E+03  2.56929E+03 -2.04650E+03  2.15858E+03 -2.80626E+03
  1.71232E+03 -1.40213E+03  1.70299E+03 -2.64132E+03  3.75356E+03 -1.65720E+03  3.90681E+03  4.93029E+02
  4.56409E+03  5.20734E+02  5.76722E+02  3.78987E+03 -1.34222E+03  3.09692E+03 -4.19682E+03  2.78901E+03
 -4.86230E+03 -9.10939E+02 -2.31435E+03 -3.95948E+03  5.03855E+02 -5.19445E+03  3.61667E+03 -5.59200E+03
  5.43310E+03 -3.15921E+03  7.65304E+03  8.87990E+01  5.51423E+03  4.74202E+03  9.87761E+02  6.80469E+03
 -2.09713E+03  6.25295E+03 -3.73059E+03  2.23297E+03 -2.50873E+03 -7.81457E+02 -9.04948E+02 -7.44718E+02
 -5.92465E+02  7.06733E+02 -5.63539E+02  2.19549E+03 -2.60797E+03  6.25361E+02 -3.75771E+03 -5.10635E+02
 -1.09053E+03 -4.56651E+03  1.12338E+03 -4.34886E+03  3.14300E+03 -4.96194E+03  3.82297E+03 -1.14021E+03
  4.23313E+03  2.80615E+03  1.89613E+03  4.05629E+03 -8.91183E+02  4.51266E+03 -3.12222E+03  2.61812E+03
 -3.85428E+03  8.30979E+02 -3.76546E+03 -2.53978E+03 -5.86374E+01 -3.72939E+03  2.01221E+03 -2.86684E+03
  2.51287E+03 -1.29442E+03  1.51303E+03  8.00242E+02  3.51544E+02  1.78750E+03  1.00193E+03  9.25387E+02
  2.38620E+03  8.86553E+02  8.24512E+02  6.87516E+02  1.38436E+03  2.36326E+03  1.23753E+03  1.94893E+03
 -1.09135E+03  3.24666E+03 -2.64372E+03  4.50391E+03 -2.90006E+03  1.16341E+03 -5.02606E+03 -2.14533E+02
 -2.53055E+03 -3.81836E+03  7.47713E+02 -5.15128E+03  2.02770E+03 -2.79324E+03  3.41121E+03 -5.82161E+02
  2.77540E+03  1.84318E+03  1.00557E+03  2.76929E+03 -3.81195E+02  2.21748E+03 -8.96010E+02 -5.68098E+02
 -8.67385E+02 -1.94730E+03  1.49866E+03 -1.65250E+03  8.99946E+02 -1.18165E+03  1.38840E+03  7.05874E+02
  1.23172E+03  6.54949E+02  5.98255E+02 -4.44106E+01  3.30684E+02  1.20354E+03  1.86590E+03 -3.65633E+02
 -3.44877E+02 -1.26813E+02  2.26996E+03  8.29795E+02  7.79393E+01  2.76042E+03 -1.06370E+02  3.73662E+03
 -1.76869E+03  1.25321E+03 -2.10536E+03  6.46841E+02 -2.11245E+03 -1.35645E+03 -1.59862E+02 -8.30945E+02
  6.15206E+02 -1.07165E+03  7.21223E+02 -5.80982E+02  6.91016E+02  1.12892E+03 -3.79735E+02  1.20117E+03
 -1.37879E+03  1.24388E+03 -8.92990E+02 -1.89112E+03 -4.45251E+02 -2.73064E+03 -1.41922E+02 -2.18135E+03
  1.02842E+03 -5.53976E+02  9.49796E+02  1.72599E+02  1.50261E+03 -5.14168E+01  2.91810E+02  1.28459E+03
 -1.06392E+02 -2.15057E+01 -1.18411E+03  2.43936E+02  1.10397E+02 -1.11468E+03  1.83254E+03 -1.13365E+03
  1.92200E+03  3.59389E+02  3.07593E+03  7.88025E+02  1.38556E+03  2.07279E+03 -2.08644E+02  1.79929E+03
 -1.46354E+03  6.56496E+02 -1.76977E+03  5.15802E+00 -6.80452E+02 -1.22149E+03  3.84765E+02 -1.04584E+03
  1.53499E+03 -1.22089E+03  8.72519E+02  7.86995E+02  3.73484E+01  1.60676E+03 -1.54344E+02  1.72840E+03
 -9.80100E+01  1.18016E+03 -4.90228E+02  9.13085E+02 -1.32661E+02  3.43504E+02 -7.33473E+02  4.93014E+02
 -8.85780E+02  1.57462E+03 -2.42771E+03  2.40286E+02 -2.22235E+03  1.00656E+02 -2.64396E+03 -1.66518E+03
 -9.62549E+02 -2.64174E+03  3.46422E+02 -3.24973E+03  1.38254E+03 -2.41978E+03  2.74207E+03 -1.31430E+03
  2.23263E+03 -3.24549E+02  1.33413E+03  2.00540E+03 -1.31617E+03  1.53946E+03 -8.53006E+02  1.46197E+03
 -7.00853E+02  1.50075E+03 -1.48672E+02 -9.16547E+01 -4.73665E+02  4.14588E+02 -5.39039E+02  1.06233E+02
 -1.26797E+03  2.12819E+01 -1.01510E+03  3.81741E+02  7.49452E+02 -4.65789E+02 -6.35071E+02 -7.26637E+02
  1.55861E+03 -8.57623E+02  5.41530E+02 -1.47431E+02  1.79259E+03  1.21108E+03 -7.14329E+02  1.60926E+03
 -1.02621E+03  2.60083E+03 -1.89736E+03  1.24233E+03 -2.04370E+03 -1.29701E+02 -1.32760E+03 -8.64974E+02
 -7.53119E+02 -1.86236E+03  5.60826E+02 -1.64760E+03  2.26723E+02 -5.44793E+02  5.70371E+02  5.81896E+00
  1.34306E+03 -1.01958E+02 -1.90715E+02  7.01728E+02 -4.69280E+02  4.31909E+01 -2.18497E+02 -5.17739E+02
  5.22309E+02  3.54783E+02  2.82836E+02  6.73200E+02  1.22479E+02  8.77794E+01  6.16490E+02  1.75784E+02
 -2.09504E+02  4.22072E+02 -1.29843E+03  5.23778E+02 -7.35976E+02 -3.95094E+02  6.30997E+02 -1.30909E+03
  6.46140E+02 -6.76951E+02  5.01753E+02 -1.70322E+02  9.69633E+02 -5.10714E+02  1.12938E+01  9.13722E+02
  3.30501E+02  1.99282E+02 -7.55456E+02  2.61842E+02 -7.45466E+02  5.54840E+02 -1.66777E+02  3.66626E+02
  6.10836E+01 -5.55899E+02 -4.95168E+02  2.81328E+02 -8.56045E+02  9.81812E+01 -1.07414E+03 -3.60267E+02
 -9.33623E+02  5.68489E+02 -8.81507E+02 -1.27430E+03  1.18062E+03 -1.50175E+03  6.22093E+02 -5.93548E+02
  4.50505E+02  6.06827E+01 -2.87922E+02  7.49812E+02 -1.76574E+02  9.85379E+02 -4.79605E+02  8.40446E+02
