 $NMID ID='MM_0lb_SNR400_16hz_g40_38.RAW', FMTDAT='(8E13.5)'
 TRAMP=1., VOLUME=1. $END
  3.09489E+05  2.76743E+02  3.37382E+05  2.49917E+05  8.41686E+04  3.37191E+05 -1.32342E+05  2.50749E+05
 -1.90211E+05  8.27037E+04 -1.10984E+05 -3.31252E+04  5.53430E+02 -5.02548E+04  5.32354E+04  3.64974E+02
  3.58013E+04  5.26709E+04 -1.67683E+04  7.59522E+04 -6.07160E+04  6.32270E+04 -8.34045E+04  3.17478E+04
 -7.97767E+04 -1.17259E+04 -5.64970E+04 -5.04081E+04 -1.49877E+04 -6.83826E+04  2.72686E+04 -4.55036E+04
  3.91852E+04  4.00007E+03  1.54591E+04  4.71773E+04 -3.38582E+04  4.59742E+04 -6.58934E+04 -1.08073E+02
 -5.26807E+04 -5.67436E+04 -6.00325E+03 -7.52323E+04  3.32233E+04 -5.39792E+04  4.68101E+04 -1.66293E+04
  4.26455E+04  1.11758E+04  3.11677E+04  2.37714E+04  1.55331E+04  2.90833E+04 -4.93317E+03  2.76221E+04
 -2.16501E+04  1.27473E+04 -1.85086E+04 -4.62000E+03  4.85129E+03 -7.36868E+03  2.20835E+04  1.09927E+04
  7.63781E+03  3.35356E+04 -3.10513E+04  3.48307E+04 -6.22636E+04  3.03206E+03 -5.58901E+04 -4.15458E+04
 -1.27742E+04 -6.13966E+04  3.88028E+04 -4.40236E+04  5.66156E+04 -2.04935E+03  3.28325E+04  3.15349E+04
 -6.25633E+03  3.39959E+04 -2.88222E+04  1.38400E+04 -2.89147E+04 -5.07748E+03 -1.55350E+04 -1.04490E+04
 -7.49552E+03 -1.19674E+04 -1.17991E+03 -1.75941E+04  6.79351E+03 -2.21085E+04  1.53065E+04 -1.41067E+04
  1.21053E+04  5.09081E+03 -7.05478E+03  1.30866E+04 -2.02100E+04 -2.64656E+03 -7.79274E+03 -3.14597E+04
  2.11489E+04 -4.10600E+04  4.57664E+04 -1.90652E+04  4.29238E+04  1.86823E+04  1.46647E+04  4.18866E+04
 -1.54313E+04  3.15938E+04 -2.34530E+04  1.28762E+03 -8.44218E+03 -2.66234E+04  2.06051E+04 -3.16612E+04
  3.87190E+04 -7.93169E+03  3.31082E+04  2.31161E+04  1.66317E+04  4.35884E+04 -7.80784E+03  4.73667E+04
 -2.95349E+04  3.10173E+04 -3.87708E+04  8.65777E+03 -3.98247E+04 -1.59155E+04 -2.19046E+04 -3.59183E+04
  7.63635E+03 -3.53085E+04  2.97750E+04 -1.38201E+04  2.74101E+04  1.12426E+04  3.71203E+03  1.77259E+04
 -1.28661E+04  7.84498E+03 -9.72151E+03 -7.89412E+03  5.25077E+03 -9.91157E+03  1.80586E+04  5.71511E+03
  1.30231E+04  2.19186E+04 -6.46487E+03  2.34431E+04 -2.17526E+04  1.01478E+04 -2.65700E+04 -6.23627E+03
 -1.79783E+04 -1.66155E+04 -6.92998E+03 -1.79027E+04  4.06308E+03 -1.67011E+04  1.34419E+04 -1.57696E+04
  2.25762E+04 -1.16880E+04  2.98582E+04  1.51750E+03  2.23745E+04  1.75710E+04  4.01513E+03  3.40178E+04
 -1.67894E+04  2.88829E+04 -2.64850E+04  9.87628E+03 -2.04728E+04 -1.04076E+04 -4.54130E+03 -1.38949E+04
  2.39477E+03 -3.72685E+03 -3.43152E+03  6.07954E+03 -1.40323E+04  4.60305E+03 -1.45770E+04 -5.63880E+03
 -9.46347E+03 -1.63975E+04  4.80678E+03 -2.01772E+04  1.39577E+04 -1.50142E+04  1.57187E+04 -1.48916E+03
  9.89214E+03  1.14792E+04 -1.32293E+03  1.65320E+04 -1.13487E+04  9.18944E+03 -1.68684E+04 -3.64474E+03
 -1.25406E+04 -1.50470E+04 -9.43415E+02 -2.04346E+04  8.93037E+03 -1.60946E+04  1.75179E+04 -7.92683E+03
  1.56886E+04  5.54817E+02  1.12031E+04  4.15259E+03  5.81784E+03  1.15355E+03  8.55398E+03 -1.18447E+03
  1.47152E+04  2.65788E+03  1.65539E+04  1.37685E+04  9.75348E+03  2.63497E+04 -3.17774E+03  2.89875E+04
 -1.70561E+04  2.31127E+04 -2.68450E+04  1.15355E+04 -2.82642E+04 -2.67044E+03 -2.31515E+04 -1.56607E+04
 -1.07263E+04 -2.30492E+04  7.56554E+03 -2.05831E+04  1.81473E+04 -1.14605E+04  1.62341E+04  4.30360E+03
  6.92121E+03  1.22313E+04 -8.05124E+03  1.14325E+04 -1.47749E+04  2.61183E+03 -1.13272E+04 -8.67692E+03
 -7.40001E+01 -1.34363E+04  6.66254E+03 -9.65172E+03  8.52123E+03 -6.41204E+02  1.62683E+03  5.24804E+03
 -6.42417E+03  1.47451E+03 -3.97056E+03 -4.81215E+03  1.42541E+02 -1.10298E+04  8.82743E+03 -1.17569E+04
  1.41382E+04 -5.76472E+03  1.41735E+04  2.94113E+03  1.22822E+04  1.09035E+04  5.76511E+03  1.61449E+04
 -2.15115E+03  1.78252E+04 -1.10886E+04  1.10849E+04 -1.27928E+04  2.91663E+03 -8.67605E+03 -2.31942E+03
 -5.22233E+03 -4.16288E+03 -7.73163E+02  1.54631E+03 -2.29237E+03  1.73159E+03 -3.62117E+03  3.78079E+03
 -8.73679E+03 -6.27710E+02 -9.17045E+03 -7.67083E+03 -3.93334E+03 -1.23987E+04  4.12846E+03 -9.15830E+03
  7.60846E+03 -4.54157E+03  5.54473E+03  2.83610E+03  8.02847E+02  3.35906E+03 -4.27998E+03  2.99367E+02
 -3.62097E+03 -6.13847E+03 -9.37807E+02 -8.12783E+03  4.47520E+03 -8.96358E+03  1.13734E+04 -4.92226E+03
  1.33603E+04  9.55716E+02  9.78460E+03  7.16264E+03  2.66540E+03  1.04773E+04 -5.76086E+03  9.23608E+03
 -7.45980E+03  3.38860E+03 -3.71215E+03 -1.91472E+03  1.64681E+03 -2.09306E+03  5.06813E+03 -1.61338E+03
  4.59866E+03  3.86299E+03  1.34006E+03  6.93082E+03 -5.28652E+03  6.83821E+03 -8.63036E+03  1.76964E+03
 -5.86827E+03 -4.54627E+03  9.68828E+01 -7.59084E+03  4.69661E+03 -3.67614E+03  4.48855E+03  1.05761E+03
  7.96107E+02  3.61271E+03 -4.52228E+03  6.01311E+03 -6.86684E+03  2.91346E+03 -6.17616E+03 -1.60014E+03
 -3.73684E+03 -7.23934E+03  1.70111E+03 -8.39671E+03  6.88890E+03 -5.97647E+03  8.19082E+03  1.77912E+03
  5.33730E+03  6.09048E+03 -3.42699E+02  8.23041E+03 -5.41432E+03  4.94717E+03 -6.78944E+03 -1.11866E+03
 -6.26463E+03 -6.07538E+03 -1.50909E+03 -5.89753E+03  3.06402E+03 -5.44608E+03  3.57797E+03 -3.15948E+03
  3.67011E+03  3.52052E+02 -2.20964E+02  1.61441E+03  2.53440E+02 -6.33974E+02  6.65655E+02 -2.39664E+03
  4.85783E+03 -1.58266E+03  6.58023E+03  7.50536E+02  6.58548E+03  4.23645E+03  5.76643E+03  9.17666E+03
 -1.51730E+03  1.08578E+04 -9.11245E+03  8.32667E+03 -1.21351E+04  1.55912E+03 -9.94566E+03 -3.15604E+03
 -4.87205E+03 -7.83935E+03 -8.43324E+02 -6.35288E+03  1.49644E+03 -2.83308E+03  2.73661E+03 -2.12844E+03
  2.26607E+03 -1.72585E+03  2.54816E+03 -2.73296E+03  4.61475E+03 -1.47690E+03  5.02838E+03 -1.31370E+02
  5.33712E+03  9.57548E+02  1.76951E+03  3.70472E+03 -1.84971E+03  4.33732E+03 -5.21115E+03  3.89182E+03
 -6.28672E+03 -1.31951E+03 -2.90502E+03 -3.26692E+03  7.90940E+01 -6.76527E+03  4.14844E+03 -6.78049E+03
  6.35726E+03 -4.27760E+03  8.37658E+03  1.47300E+02  6.77195E+03  6.07224E+03  1.65758E+03  7.98415E+03
 -2.90844E+03  7.49917E+03 -4.33585E+03  2.47474E+03 -1.88075E+03 -1.17403E+03 -5.57176E+02 -8.14224E+02
 -5.35533E+02  7.51600E+02 -1.14381E+03  1.45722E+03 -2.94030E+03  1.18027E+03 -5.15013E+03 -3.88351E+02
 -2.53780E+03 -4.89906E+03  1.59043E+01 -5.97122E+03  3.50506E+03 -5.13617E+03  4.96218E+03 -2.00472E+03
  5.35018E+03  3.35131E+03  2.57801E+03  4.69360E+03 -1.59274E+03  5.42386E+03 -4.23876E+03  3.61701E+03
 -5.29756E+03  8.90766E+02 -4.43749E+03 -3.01474E+03  3.02528E+02 -4.46337E+03  1.85197E+03 -3.48298E+03
  3.65094E+03 -1.87075E+03  2.30930E+03  9.02799E+02  9.17996E+02  2.32569E+03  4.32063E+02  1.77425E+02
  1.88447E+03  5.12694E+02  1.62001E+03  3.73427E+02  1.49225E+03  2.70020E+03  1.34895E+03  2.61092E+03
 -2.00474E+03  3.98208E+03 -3.44791E+03  4.77220E+03 -5.16917E+03  1.64913E+03 -6.01984E+03 -1.60191E+03
 -3.26372E+03 -5.45521E+03  7.81702E+02 -6.48362E+03  2.90779E+03 -3.08098E+03  4.69370E+03 -7.13545E+02
  3.79266E+03  2.55605E+03  8.65570E+02  3.61293E+03 -5.39632E+02  1.70612E+03 -2.36128E+03 -1.21982E+02
 -1.01275E+03 -2.13381E+03  1.77273E+03 -2.37791E+03  2.10824E+03 -7.55952E+02  1.76945E+03  2.02499E+02
  1.53724E+03  2.48147E+02  1.13503E+03 -3.35291E+02  3.30992E+02  1.28716E+03  1.84885E+03 -4.53756E+02
  9.86398E+01 -2.49737E+02  2.76437E+03  1.22010E+03  6.62582E+01  3.41530E+03 -5.40166E+02  4.05227E+03
 -2.81068E+03  1.79527E+03 -3.05251E+03  6.88305E+02 -2.92519E+03 -7.47325E+02 -1.10142E+03 -1.63888E+03
  1.01827E+03 -1.99556E+03  1.51589E+03 -4.70215E+02  1.25605E+03  1.56301E+03 -1.36282E+03  2.04099E+03
 -1.82579E+03  6.00916E+02 -2.12250E+03 -1.44786E+03 -1.61729E+03 -2.77893E+03  2.01497E+02 -1.99067E+03
  1.09955E+03 -7.53854E+02  1.63165E+03  3.81159E+02  1.15995E+03 -2.55267E+02  5.41439E+02  1.64628E+03
 -3.00387E+02  3.72047E+02 -1.56763E+03 -7.65701E+02  1.41428E+03 -1.66768E+03  2.07569E+03 -1.42002E+03
  2.15382E+03  3.35491E+02  4.02859E+03  1.55393E+03  1.76444E+03  2.53187E+03 -8.97234E+02  2.94160E+03
 -2.31855E+03  6.18287E+02 -2.78936E+03 -2.33275E+02 -1.43513E+03 -2.38858E+03  4.55361E+02 -9.72810E+02
  2.73425E+03 -6.78406E+02  1.19690E+03  8.18939E+02  3.01454E+02  1.69188E+03  2.97774E+02  2.27409E+03
 -6.98686E+02  1.50723E+03 -1.70947E+03  6.83932E+01  4.87551E+01  3.53935E+02 -5.64441E+02  9.00640E+02
 -6.56670E+02  1.31229E+03 -2.29660E+03  9.83827E+02 -2.02287E+03  9.04259E+01 -3.96676E+03 -1.64887E+03
 -2.19913E+03 -2.92720E+03  5.71705E+02 -4.36977E+03  1.94088E+03 -3.42767E+03  4.17470E+03 -1.57033E+03
  4.23176E+03  7.29499E+02  2.29049E+03  2.48757E+03 -1.41902E+01  2.62412E+03 -9.11187E+02  1.95990E+03
 -1.42622E+03  5.54066E+01 -4.58932E+02 -3.36721E+02 -4.00744E+02  1.98204E+02 -6.85958E+02  3.20348E+02
 -1.28443E+03 -5.85586E+02 -1.50116E+03  4.33850E+02  2.05838E+02 -1.13811E+03 -2.70011E+02 -9.36042E+02
  1.55484E+03 -8.83061E+02  7.87589E+02 -1.20312E+02  1.67899E+03  2.10414E+03 -5.58471E+01  2.58415E+03
 -1.42052E+03  3.09311E+03 -2.16167E+03  1.75264E+03 -2.79884E+03 -2.17533E+02 -1.71086E+03 -2.43206E+03
 -1.33906E+03 -2.44366E+03  1.56107E+02 -1.68633E+03  1.54321E+03 -1.43319E+03  6.88311E+02  2.99861E+02
  1.29042E+03  3.00087E+02  1.03199E+02  7.37774E+02 -1.16325E+03  1.62051E+02 -1.13892E+01 -9.75064E+01
  1.23499E+03 -2.06478E+02  2.09781E+02  6.70881E+02  4.09769E+02  7.69251E+02  1.21101E+02  1.25544E+03
 -2.96384E+02  6.94699E+02 -1.29729E+03  5.22549E+02 -1.90462E+03 -1.28949E+03  2.54226E+01 -1.84947E+03
  2.98655E+02 -1.42930E+03  4.10269E+02 -3.12016E+02  1.96094E+03  5.60307E+02  1.05864E+03  9.56260E+02
  1.05816E+01  1.11882E+03 -6.44890E+02  9.85155E+02 -8.70041E+02  3.51665E+02 -7.55545E+02 -1.75604E+02
 -2.24554E+02  3.18010E+02 -7.37583E+02  8.22054E+02 -7.36768E+02 -7.55874E+01 -1.31606E+03  3.38962E+00
 -1.35128E+03 -6.64649E+01 -6.28521E+02 -1.88370E+03  6.18584E+02 -2.76478E+03  1.52179E+03 -4.83185E+02
  1.28824E+03 -1.97625E+02  4.70206E+02  3.82656E+02  5.30584E+02  1.27153E+03 -1.28775E+03  1.07235E+03
