 $NMID ID='MM_0lb_SNR400_18hz_g55_14.RAW', FMTDAT='(8E13.5)'
 TRAMP=1., VOLUME=1. $END
  3.09649E+05  5.57824E+02  3.37587E+05  2.50116E+05  8.47750E+04  3.37720E+05 -1.32663E+05  2.50394E+05
 -1.89207E+05  8.24392E+04 -1.11520E+05 -3.24951E+04  6.24423E+02 -5.01601E+04  5.35238E+04  9.04273E+01
  3.57946E+04  5.33579E+04 -1.62950E+04  7.47008E+04 -6.11868E+04  6.26531E+04 -8.36516E+04  3.13807E+04
 -7.97092E+04 -1.09548E+04 -5.67427E+04 -5.08972E+04 -1.47101E+04 -6.85652E+04  2.72248E+04 -4.53490E+04
  3.90813E+04  3.54266E+03  1.58803E+04  4.75634E+04 -3.36390E+04  4.72105E+04 -6.59966E+04 -6.74515E+02
 -5.26983E+04 -5.62218E+04 -6.45991E+03 -7.55884E+04  3.36240E+04 -5.44093E+04  4.73401E+04 -1.67090E+04
  4.20925E+04  1.11054E+04  3.14766E+04  2.51704E+04  1.59630E+04  2.92092E+04 -4.45617E+03  2.68470E+04
 -2.14077E+04  1.20972E+04 -1.91550E+04 -5.00908E+03  4.57363E+03 -7.16554E+03  2.21489E+04  1.21333E+04
  7.19951E+03  3.46371E+04 -3.10192E+04  3.46134E+04 -6.19678E+04  2.43885E+03 -5.63037E+04 -4.18458E+04
 -1.21928E+04 -6.19413E+04  3.91414E+04 -4.43680E+04  5.68990E+04 -1.87368E+03  3.28741E+04  3.13763E+04
 -6.19450E+03  3.46435E+04 -2.91297E+04  1.46570E+04 -2.88770E+04 -4.91586E+03 -1.50646E+04 -1.07333E+04
 -7.72481E+03 -1.19930E+04 -1.28836E+03 -1.71167E+04  6.96680E+03 -2.24467E+04  1.54314E+04 -1.28562E+04
  1.16033E+04  5.18315E+03 -7.12395E+03  1.23057E+04 -2.00676E+04 -3.99595E+03 -8.48746E+03 -3.19881E+04
  2.17162E+04 -4.18746E+04  4.59523E+04 -1.89981E+04  4.41576E+04  1.90985E+04  1.53139E+04  4.31162E+04
 -1.54028E+04  3.19099E+04 -2.41383E+04  1.69308E+03 -8.89974E+03 -2.69847E+04  2.06904E+04 -3.26147E+04
  3.90087E+04 -8.16218E+03  3.35230E+04  2.31213E+04  1.67171E+04  4.37705E+04 -7.69630E+03  4.66870E+04
 -3.04859E+04  3.17240E+04 -3.86732E+04  8.92398E+03 -3.98315E+04 -1.53435E+04 -2.22801E+04 -3.61226E+04
  7.40444E+03 -3.57209E+04  3.02160E+04 -1.33751E+04  2.76810E+04  1.07974E+04  3.09503E+03  1.80694E+04
 -1.35739E+04  7.89707E+03 -1.01154E+04 -7.61795E+03  5.74815E+03 -1.12748E+04  1.77882E+04  6.24423E+03
  1.26366E+04  2.22298E+04 -6.96337E+03  2.35304E+04 -2.19827E+04  1.05826E+04 -2.65228E+04 -5.85879E+03
 -1.83027E+04 -1.62403E+04 -6.35304E+03 -1.88377E+04  3.63056E+03 -1.59834E+04  1.41227E+04 -1.57490E+04
  2.25583E+04 -1.21043E+04  2.97365E+04  1.69222E+03  2.20006E+04  1.79812E+04  3.84808E+03  3.35678E+04
 -1.65173E+04  2.80240E+04 -2.67758E+04  9.89535E+03 -1.99331E+04 -1.03222E+04 -4.42954E+03 -1.33384E+04
  2.59320E+03 -3.97706E+03 -2.83847E+03  5.78327E+03 -1.34900E+04  5.35575E+03 -1.43018E+04 -5.77448E+03
 -9.25374E+03 -1.66886E+04  3.96157E+03 -2.02412E+04  1.35990E+04 -1.50755E+04  1.61227E+04 -8.93545E+02
  9.60777E+03  1.15686E+04 -6.33697E+02  1.66092E+04 -1.12104E+04  9.56105E+03 -1.64222E+04 -3.19788E+03
 -1.23479E+04 -1.53147E+04 -1.17773E+03 -2.02323E+04  9.07786E+03 -1.65602E+04  1.63329E+04 -7.66458E+03
  1.54786E+04  8.37049E+02  1.13195E+04  4.18249E+03  4.98968E+03  6.34661E+02  8.31049E+03 -1.21242E+03
  1.51077E+04  2.45397E+03  1.60500E+04  1.31587E+04  1.03620E+04  2.69088E+04 -2.89392E+03  2.94804E+04
 -1.77022E+04  2.28123E+04 -2.67880E+04  1.06737E+04 -2.74906E+04 -2.17269E+03 -2.30734E+04 -1.59857E+04
 -1.08406E+04 -2.27887E+04  7.64387E+03 -2.06743E+04  1.80204E+04 -1.14780E+04  1.64417E+04  4.55391E+03
  6.98377E+03  1.30806E+04 -7.51323E+03  1.06703E+04 -1.47609E+04  2.63249E+03 -1.14593E+04 -8.46480E+03
 -9.19597E+01 -1.35832E+04  6.10948E+03 -1.02019E+04  8.36477E+03 -8.72007E+02  1.45401E+03  4.98764E+03
 -5.72223E+03  1.30612E+03 -3.55038E+03 -4.62598E+03  6.17678E+02 -1.08766E+04  8.19164E+03 -1.09266E+04
  1.36063E+04 -5.27334E+03  1.35470E+04  2.54686E+03  1.19177E+04  1.05112E+04  5.97904E+03  1.54047E+04
 -2.44168E+03  1.79356E+04 -1.05466E+04  1.11775E+04 -1.27628E+04  2.89844E+03 -8.76702E+03 -1.82060E+03
 -5.10991E+03 -3.54131E+03 -6.11939E+02  1.24188E+03 -1.72851E+03  1.86265E+03 -3.65058E+03  3.80298E+03
 -8.88294E+03 -6.03088E+02 -9.39288E+03 -7.77310E+03 -3.81810E+03 -1.21828E+04  3.56285E+03 -9.40291E+03
  7.78974E+03 -3.81190E+03  5.45961E+03  2.42669E+03  4.69173E+02  3.34889E+03 -4.19938E+03  1.21248E+02
 -4.04961E+03 -5.54632E+03 -1.16336E+03 -7.72266E+03  4.15963E+03 -8.71568E+03  1.08736E+04 -4.37259E+03
  1.34443E+04  6.80367E+02  1.00947E+04  6.90748E+03  2.31728E+03  9.53912E+03 -5.68489E+03  8.61296E+03
 -7.84816E+03  3.10517E+03 -3.39131E+03 -1.15777E+03  1.47300E+03 -1.97457E+03  4.97928E+03 -1.04439E+03
  4.23094E+03  3.46462E+03  8.88404E+02  6.98285E+03 -4.59054E+03  6.97108E+03 -8.64862E+03  1.96894E+03
 -5.72535E+03 -4.35941E+03  4.53094E+02 -7.16022E+03  3.86630E+03 -3.53816E+03  4.04988E+03  6.69562E+02
  1.14865E+02  3.35894E+03 -4.34429E+03  5.31572E+03 -5.49625E+03  2.79259E+03 -4.98309E+03 -1.82080E+03
 -3.02369E+03 -7.12494E+03  1.12660E+03 -7.76367E+03  6.67885E+03 -4.79453E+03  7.30365E+03  1.15923E+03
  5.15274E+03  5.08390E+03 -1.69178E+02  7.53412E+03 -5.96673E+03  4.48597E+03 -6.38923E+03 -2.00460E+02
 -6.76350E+03 -5.21990E+03 -1.19479E+03 -5.37617E+03  3.00976E+03 -5.05730E+03  3.29163E+03 -2.73839E+03
  3.19547E+03  3.05074E+02  1.56238E+01  1.43671E+03  9.66581E+02 -3.98023E+02  1.79305E+02 -2.44615E+03
  4.56321E+03 -1.51602E+03  6.08693E+03  5.33543E+02  5.80755E+03  3.77749E+03  6.16941E+03  8.17300E+03
 -1.93870E+03  9.66740E+03 -8.68369E+03  7.32290E+03 -1.06364E+04  1.42821E+03 -8.67340E+03 -2.99510E+03
 -4.35276E+03 -7.05583E+03 -1.03549E+02 -5.72754E+03  2.53695E+03 -2.67577E+03  1.76530E+03 -2.14947E+03
  7.29563E+02 -1.57801E+03  2.19916E+03 -2.66389E+03  4.04999E+03 -1.34281E+03  3.79403E+03  4.22038E+02
  4.78634E+03  1.34441E+03  1.57362E+03  4.11365E+03 -1.16676E+03  3.56112E+03 -4.84176E+03  3.14426E+03
 -5.44231E+03 -1.10195E+03 -1.94132E+03 -3.87747E+03  4.41588E+01 -5.74987E+03  3.27658E+03 -5.87212E+03
  5.74189E+03 -3.38832E+03  6.94262E+03  1.75244E+02  4.99392E+03  4.56741E+03  9.78951E+02  6.62233E+03
 -3.29490E+03  5.86907E+03 -3.80862E+03  2.22123E+03 -1.97552E+03 -1.23209E+03 -3.44791E+02 -8.91287E+02
 -8.88919E+01  3.85284E+02 -2.35140E+02  1.99518E+03 -2.83465E+03  1.29125E+03 -4.99094E+03 -6.43790E+02
 -2.40196E+03 -4.65891E+03  7.91206E+02 -5.16848E+03  3.07407E+03 -4.93653E+03  4.16577E+03 -1.11234E+03
  4.46506E+03  2.34147E+03  2.24367E+03  3.38881E+03 -1.37892E+03  4.78562E+03 -2.86464E+03  2.85263E+03
 -4.69996E+03  7.20140E+02 -2.90220E+03 -2.91687E+03  2.54227E+02 -4.00574E+03  2.24010E+03 -2.36248E+03
  2.26716E+03 -1.24510E+03  1.48711E+03  4.90452E+02  6.30081E+02  2.05050E+03  9.71443E+02  2.38974E+02
  1.57911E+03  1.95813E+02  1.00106E+03  1.01671E+03  1.35178E+03  2.38940E+03  2.10770E+03  1.43634E+03
 -1.32444E+03  3.48552E+03 -2.46567E+03  4.65584E+03 -3.89456E+03  1.27238E+03 -4.78550E+03 -6.57912E+02
 -2.02173E+03 -3.92932E+03  6.12650E+02 -5.68426E+03  2.24517E+03 -3.03383E+03  3.42188E+03 -1.08829E+03
  2.61622E+03  2.36676E+03  4.64533E+02  2.31609E+03 -1.02809E+03  1.16440E+03 -7.14578E+02 -1.00010E+02
 -3.42939E+02 -1.59873E+03  1.23467E+03 -1.83645E+03  1.70992E+03 -4.79627E+02  1.77888E+03  7.39267E+02
  7.93017E+02  1.15406E+03  8.31434E+02 -5.24606E+01 -3.66379E+02  3.55153E+02  1.19298E+03 -2.90391E+02
  2.64719E+02 -5.21719E+00  2.01753E+03  4.42744E+02  2.08588E+02  2.27309E+03 -3.88050E+02  2.92698E+03
 -1.72815E+03  8.17187E+02 -2.20258E+03 -2.93868E+00 -2.36875E+03 -4.93894E+02 -2.49139E+01 -4.39384E+02
  6.11966E+02 -1.43774E+03  1.22560E+03 -9.32141E+02  1.13261E+03  1.55298E+03 -1.00885E+03  1.37304E+03
 -1.97092E+03  2.27293E+02 -1.49127E+03 -1.49425E+03 -9.22105E+02 -1.37910E+03  2.30098E+02 -1.57876E+03
  4.54059E+02 -1.06030E+03  3.94032E+02  1.61361E+02  1.40578E+03  2.56056E+02  1.76847E+02  7.87001E+02
 -2.55557E+02  2.29745E+02 -1.18549E+03 -4.92898E+01  1.08584E+03 -1.28964E+03  1.41502E+03 -5.91183E+02
  1.06552E+03  2.80658E+02  2.95490E+03  8.02329E+02  1.19145E+03  1.99168E+03 -7.90370E+01  1.27360E+03
 -2.09080E+03  3.37623E+02 -1.48954E+03  4.59492E+02 -9.78107E+02 -1.78582E+03  4.16460E+02 -9.44518E+02
  1.50850E+03 -7.70798E+02  9.66168E+02  8.01075E+02 -4.82076E+01  9.14932E+02 -4.90903E+01  1.08659E+03
 -5.68420E+02  1.32725E+03 -2.78984E+02  4.01277E+02  5.98241E+02  2.73659E+02 -1.28211E+03  6.62767E+02
 -6.01822E+02  8.47422E+02 -1.65510E+03  4.01795E+02 -1.95704E+03  3.85999E+02 -2.48685E+03 -9.62372E+02
 -6.58935E+02 -2.67776E+03  6.16687E+02 -3.08048E+03  1.20266E+03 -1.84926E+03  3.34455E+03 -1.22709E+03
  2.38164E+03 -3.69333E+02  1.49539E+03  1.20404E+03 -6.48223E+02  1.31333E+03 -9.36407E+02  1.01343E+03
 -8.26282E+02  9.89091E+02  1.26269E+02 -2.17629E+02 -5.16509E+02 -9.92117E+01 -8.35611E+02 -5.38613E+02
 -1.58595E+03 -2.93168E+02 -6.37500E+02 -1.57246E+02  2.34184E+02 -7.15517E+01 -5.93399E+02 -8.38386E+02
  1.46758E+03 -5.66891E+02  8.81687E+01  2.86087E+01  1.15285E+03  9.20721E+02 -8.90164E+02  2.07555E+03
 -1.33501E+03  2.53388E+03 -1.57247E+03  1.23736E+03 -1.87245E+03 -4.11185E+02 -1.43288E+03 -1.09494E+03
 -7.32082E+02 -1.74526E+03  8.14559E+01 -1.35793E+03  2.59301E+02 -3.60459E+02  5.84896E+02 -4.41641E+02
  7.62577E+02  4.71908E+02  2.73150E+02  1.02658E+02 -2.31118E+02 -1.75638E+02 -6.37494E+01 -1.86331E+02
  5.56832E+02 -3.27189E+02 -1.04508E+02  4.27705E+02  5.42922E+02  3.91721E+02  9.87062E+02  2.32435E+02
 -3.35512E+02  6.22958E+02 -4.55852E+02 -3.48140E+02 -5.01951E+02 -6.08443E+02  2.82279E+02 -1.00015E+03
  2.31528E+02 -1.41149E+03  5.81055E+02  4.10707E+01  7.12478E+02 -5.46889E+02 -1.40359E+02  6.96103E+02
  2.40144E+02  9.45812E+02 -4.43602E+02  6.20902E+02 -5.91696E+02  5.29022E+02 -5.98826E+02  2.48780E+02
  1.13134E+02  1.64219E+02 -2.26272E+02 -2.93705E+02 -1.10792E+03  1.06569E+02 -1.10917E+03 -5.61739E+02
 -9.32378E+02 -2.24668E+01 -2.44267E+02 -1.35921E+03  5.22708E+02 -1.52613E+03  6.14578E+02 -2.10743E+02
  1.10798E+03 -2.20628E+01 -7.98303E+01  5.83923E+02  4.33605E+02  9.08653E+02 -6.72918E+02  4.92545E+02
