 $NMID ID='MM_0lb_SNR400_15hz_g50_3.RAW', FMTDAT='(8E13.5)'
 TRAMP=1., VOLUME=1. $END
  3.09539E+05  3.99305E+02  3.37371E+05  2.50269E+05  8.42295E+04  3.37988E+05 -1.32377E+05  2.51535E+05
 -1.90299E+05  8.31940E+04 -1.11733E+05 -3.30528E+04  6.60291E+02 -5.06218E+04  5.39425E+04 -5.19682E+01
  3.52679E+04  5.28054E+04 -1.70723E+04  7.54567E+04 -6.09209E+04  6.28598E+04 -8.41812E+04  3.25931E+04
 -8.04603E+04 -1.10457E+04 -5.72428E+04 -5.10045E+04 -1.48904E+04 -6.86098E+04  2.76658E+04 -4.52222E+04
  3.98312E+04  4.48575E+03  1.64379E+04  4.75034E+04 -3.41093E+04  4.66514E+04 -6.60309E+04  2.45438E+01
 -5.32135E+04 -5.63401E+04 -6.59451E+03 -7.67421E+04  3.43099E+04 -5.49579E+04  4.76182E+04 -1.72475E+04
  4.30072E+04  1.16438E+04  3.19346E+04  2.49934E+04  1.58298E+04  2.94385E+04 -4.87376E+03  2.67910E+04
 -2.22722E+04  1.22792E+04 -1.83280E+04 -4.36208E+03  5.10405E+03 -7.54924E+03  2.24543E+04  1.22006E+04
  7.20371E+03  3.50193E+04 -3.24126E+04  3.49491E+04 -6.31925E+04  1.86134E+03 -5.69317E+04 -4.26807E+04
 -1.22310E+04 -6.31043E+04  3.94586E+04 -4.47665E+04  5.74753E+04 -2.04179E+03  3.38679E+04  3.24418E+04
 -5.49044E+03  3.58105E+04 -2.97019E+04  1.56424E+04 -3.07392E+04 -4.45627E+03 -1.58492E+04 -1.14394E+04
 -7.72233E+03 -1.34694E+04 -6.69767E+02 -1.78674E+04  6.89525E+03 -2.33216E+04  1.53842E+04 -1.37597E+04
  1.19334E+04  4.53277E+03 -8.22878E+03  1.27910E+04 -2.13580E+04 -4.02659E+03 -8.35910E+03 -3.37452E+04
  2.26035E+04 -4.32352E+04  4.75478E+04 -1.93994E+04  4.49011E+04  1.92451E+04  1.54371E+04  4.39641E+04
 -1.56432E+04  3.25226E+04 -2.52204E+04  1.76545E+03 -9.41659E+03 -2.73602E+04  2.11605E+04 -3.43885E+04
  4.10023E+04 -8.17583E+03  3.52084E+04  2.33652E+04  1.73143E+04  4.56713E+04 -8.19896E+03  4.98416E+04
 -3.11349E+04  3.30666E+04 -4.14872E+04  9.52559E+03 -4.16532E+04 -1.61665E+04 -2.29622E+04 -3.67406E+04
  7.72086E+03 -3.71990E+04  3.13639E+04 -1.44032E+04  2.86234E+04  1.07558E+04  3.38759E+03  1.92729E+04
 -1.37328E+04  8.54820E+03 -1.07001E+04 -7.41072E+03  5.90178E+03 -1.06955E+04  1.82253E+04  5.64923E+03
  1.33091E+04  2.12721E+04 -6.56082E+03  2.47606E+04 -2.28324E+04  1.12502E+04 -2.78788E+04 -4.73576E+03
 -1.97055E+04 -1.66687E+04 -7.93842E+03 -1.94559E+04  3.62133E+03 -1.80295E+04  1.51199E+04 -1.74053E+04
  2.60715E+04 -1.21203E+04  3.16157E+04  2.47191E+03  2.35412E+04  1.94022E+04  4.56656E+03  3.58977E+04
 -1.72563E+04  2.96946E+04 -2.75235E+04  1.01114E+04 -2.09889E+04 -1.02174E+04 -4.02629E+03 -1.30623E+04
  2.12988E+03 -2.53695E+03 -4.32353E+03  6.78845E+03 -1.54438E+04  5.40386E+03 -1.55339E+04 -6.27491E+03
 -9.69598E+03 -1.83637E+04  5.43259E+03 -2.23832E+04  1.48984E+04 -1.57513E+04  1.76370E+04 -1.46635E+03
  1.12523E+04  1.26710E+04 -8.83895E+02  1.87362E+04 -1.22964E+04  1.01954E+04 -1.88878E+04 -4.47388E+03
 -1.25371E+04 -1.62465E+04 -1.60781E+03 -2.17774E+04  1.00501E+04 -1.85076E+04  1.82185E+04 -8.14285E+03
  1.70428E+04  6.35655E+02  1.19750E+04  3.96555E+03  6.41576E+03  9.76724E+02  9.71451E+03 -1.46312E+03
  1.69833E+04  2.32834E+03  1.78744E+04  1.47259E+04  1.16248E+04  2.91929E+04 -2.71287E+03  3.25876E+04
 -1.94566E+04  2.59830E+04 -3.01697E+04  1.38086E+04 -3.17636E+04 -2.17746E+03 -2.64857E+04 -1.80769E+04
 -1.14882E+04 -2.65483E+04  8.98823E+03 -2.41657E+04  2.02967E+04 -1.25050E+04  1.81419E+04  4.67180E+03
  7.13412E+03  1.36258E+04 -9.09326E+03  1.24040E+04 -1.54028E+04  2.80267E+03 -1.19468E+04 -9.52441E+03
 -1.12092E+02 -1.48927E+04  7.87570E+03 -1.12181E+04  9.71869E+03 -1.00100E+03  1.34963E+03  6.57442E+03
 -6.63183E+03  2.70239E+03 -5.36318E+03 -5.79253E+03 -2.81364E+02 -1.29101E+04  9.19225E+03 -1.38638E+04
  1.56609E+04 -7.13075E+03  1.71418E+04  2.54014E+03  1.43964E+04  1.24935E+04  7.13057E+03  1.88527E+04
 -3.33889E+03  2.10367E+04 -1.35377E+04  1.30730E+04 -1.47099E+04  3.47154E+03 -1.09870E+04 -3.27603E+03
 -5.37028E+03 -4.22684E+03 -7.38839E+02  1.30065E+03 -2.57634E+03  2.48261E+03 -4.85556E+03  4.37579E+03
 -9.60415E+03 -9.43294E+02 -1.04776E+04 -8.29546E+03 -4.54655E+03 -1.38132E+04  4.87995E+03 -1.12229E+04
  8.96113E+03 -4.47637E+03  5.95491E+03  2.68087E+03  1.53284E+02  3.72009E+03 -5.17070E+03 -3.94311E+02
 -4.79043E+03 -6.69552E+03 -7.50287E+02 -1.02134E+04  5.72290E+03 -1.04399E+04  1.28908E+04 -5.42430E+03
  1.51638E+04  1.40198E+03  1.10767E+04  8.08264E+03  2.79783E+03  1.14794E+04 -7.46468E+03  1.03812E+04
 -8.48629E+03  3.51955E+03 -4.16009E+03 -2.03619E+03  1.58769E+03 -2.42465E+03  5.62413E+03 -3.17929E+02
  5.07455E+03  4.34286E+03  1.43149E+03  8.31147E+03 -5.67969E+03  8.00795E+03 -1.02389E+04  2.37536E+03
 -6.52789E+03 -4.91719E+03  1.77655E+02 -9.06102E+03  4.91551E+03 -4.69005E+03  5.64826E+03  2.14636E+03
  1.35953E+03  5.46821E+03 -5.49396E+03  6.65027E+03 -7.39724E+03  3.19692E+03 -7.01436E+03 -2.38593E+03
 -4.38449E+03 -8.53978E+03  2.44445E+03 -1.02647E+04  8.76278E+03 -6.09661E+03  9.88803E+03  1.00258E+03
  6.17585E+03  7.63310E+03 -1.20725E+02  9.63158E+03 -6.81732E+03  5.71065E+03 -7.24907E+03 -6.09955E+02
 -6.75113E+03 -6.48099E+03 -1.32684E+03 -7.38823E+03  3.94506E+03 -6.17639E+03  4.22077E+03 -2.78749E+03
  3.49489E+03  1.64243E+03 -1.72296E+02  1.28366E+03 -1.41085E+02 -9.96263E+02  7.57010E+02 -3.67521E+03
  6.63856E+03 -1.25617E+03  8.39094E+03  7.69131E+02  8.46845E+03  5.06637E+03  7.15524E+03  1.02308E+04
 -2.33747E+03  1.32583E+04 -1.14164E+04  9.11946E+03 -1.50898E+04  1.77847E+03 -1.14099E+04 -3.81809E+03
 -5.96121E+03 -9.75661E+03 -7.64255E+02 -7.73751E+03  2.72051E+03 -4.19327E+03  2.71703E+03 -2.78659E+03
  1.45181E+03 -2.00370E+03  2.72275E+03 -3.26237E+03  4.30980E+03 -1.82528E+03  4.91831E+03  1.39230E+02
  6.42511E+03  1.43651E+03  2.99025E+03  4.94578E+03 -1.99554E+03  5.52918E+03 -6.34668E+03  3.55823E+03
 -7.41924E+03 -1.29069E+03 -4.28091E+03 -4.97972E+03 -8.02726E+02 -8.11659E+03  4.91486E+03 -8.71298E+03
  8.66159E+03 -4.44198E+03  1.00090E+04  8.89710E+02  6.55849E+03  7.09263E+03  1.26074E+03  9.23043E+03
 -3.50681E+03  8.62929E+03 -5.29149E+03  2.64872E+03 -3.18870E+03 -1.48646E+03 -1.29116E+03 -4.02589E+02
 -7.25433E+02  7.69856E+02 -9.39314E+02  2.07636E+03 -3.88237E+03  1.51416E+03 -5.42642E+03 -3.37781E+02
 -3.04851E+03 -6.34613E+03  1.01873E+03 -6.89801E+03  4.71452E+03 -6.53009E+03  6.59935E+03 -1.37026E+03
  6.83259E+03  3.97409E+03  3.48976E+03  5.56986E+03 -1.01047E+03  7.33801E+03 -4.43976E+03  4.56766E+03
 -6.59369E+03  2.89627E+02 -5.62397E+03 -3.99912E+03 -2.63624E+02 -5.69473E+03  3.13749E+03 -4.06340E+03
  3.81318E+03 -2.15126E+03  2.81022E+03  1.13445E+03  1.17089E+03  2.57821E+03  5.55436E+02  7.72150E+02
  2.28152E+03  9.37973E+02  2.23726E+03  1.59078E+03  2.52374E+03  2.83752E+03  2.38584E+03  3.13819E+03
 -2.06489E+03  4.80224E+03 -4.35765E+03  5.71774E+03 -6.36431E+03  1.46286E+03 -6.58668E+03 -2.35647E+03
 -3.20046E+03 -6.79235E+03  1.10704E+03 -7.90557E+03  3.92359E+03 -4.83062E+03  5.64876E+03 -1.71402E+03
  4.03211E+03  2.20812E+03  9.33507E+02  3.32508E+03 -1.86047E+03  2.32926E+03 -2.48458E+03 -3.48804E+02
 -1.55284E+03 -2.83605E+03  1.88724E+03 -2.69947E+03  2.52222E+03 -1.14279E+03  2.61858E+03  1.52991E+03
  1.69721E+03  7.43237E+02  1.02682E+03  4.45870E+02 -7.09983E+02  1.30840E+03  1.76385E+03  2.44945E+01
  8.77384E+02 -5.76713E+02  2.69223E+03  1.28145E+03 -5.20506E+01  3.72504E+03 -1.38753E+03  4.81463E+03
 -2.25156E+03  1.94942E+03 -3.98150E+03  1.29478E+02 -3.95644E+03 -1.18906E+03 -1.06258E+03 -1.78968E+03
  7.22832E+02 -2.49178E+03  1.19769E+03 -7.36821E+02  1.07461E+03  1.46982E+03 -1.21073E+02  2.12869E+03
 -2.24781E+03  1.49338E+03 -2.66445E+03 -1.73685E+03 -1.05321E+03 -3.04612E+03  1.12280E+03 -3.07713E+03
  1.53351E+03 -1.57387E+03  2.12536E+03 -2.56237E+02  2.50704E+03  4.19105E+02  9.57292E+02  2.14002E+03
 -1.36458E+03  1.93026E+02 -1.52339E+03 -1.40246E+03  8.75006E+02 -2.17663E+03  3.17922E+03 -1.89200E+03
  2.81167E+03  2.62976E+02  3.86695E+03  1.29619E+03  1.45704E+03  3.42071E+03 -1.02591E+03  3.16877E+03
 -3.51552E+03  7.47382E+02 -2.60601E+03 -4.12181E+02 -2.24705E+03 -1.83574E+03  4.68641E+02 -2.07808E+03
  2.75860E+03 -1.17476E+03  1.59667E+03  1.13933E+03  3.88393E+02  1.96253E+03  2.95570E+02  1.52890E+03
 -2.48645E+02  1.88848E+03 -1.00190E+03  4.55099E+02  2.11091E+02  2.81776E+02 -6.86585E+02  1.02241E+03
 -9.24889E+02  1.89584E+03 -3.03153E+03  1.09819E+03 -3.11330E+03  4.40041E+02 -4.10367E+03 -2.15002E+03
 -2.23214E+03 -4.65172E+03  3.37613E+02 -5.16467E+03  2.40043E+03 -4.31123E+03  5.33350E+03 -1.66095E+03
  4.17479E+03  4.70004E+02  2.74877E+03  3.42997E+03  3.63850E+02  2.63846E+03 -9.59206E+02  2.68823E+03
 -1.42685E+03  1.41271E+03 -1.25820E+03 -8.88289E+02 -5.01628E+02  6.58786E+01 -7.25504E+02  6.24443E+02
 -1.30977E+03 -1.21420E+02 -1.34553E+03 -1.59991E+02 -2.86275E+02 -1.21138E+03 -6.54458E+02 -1.34371E+03
  1.86568E+03 -1.12413E+03  1.91679E+03 -3.74651E+02  2.16097E+03  1.70704E+03 -1.38667E+02  3.24002E+03
 -2.12200E+03  4.30750E+03 -2.66199E+03  2.20403E+03 -4.13366E+03 -1.50793E+02 -3.03435E+03 -2.76721E+03
 -6.60914E+02 -3.23996E+03  6.65345E+02 -2.91340E+03  2.13098E+03 -1.21288E+03  1.64821E+03  5.89898E+02
  1.08573E+03  5.75024E+02 -1.66262E+02  1.75709E+02 -8.49834E+02  1.79546E+02 -8.07609E+01 -1.29212E+02
  8.02294E+02  7.96069E+02  1.02677E+03  1.18546E+03  1.06708E+03  1.04402E+03  3.04559E+02  1.21444E+03
 -1.11108E+03  1.11702E+03 -1.63482E+03  1.73491E+02 -1.99452E+03 -1.51606E+03 -4.25527E+02 -2.81610E+03
  1.82128E+03 -1.79421E+03  1.77292E+03 -6.44879E+02  1.63362E+03 -1.48230E+02  1.35044E+03  1.63721E+03
  3.53285E+02  1.59879E+03 -4.42327E+02  1.67873E+03 -1.18305E+03  1.44934E+03 -1.40433E+03  1.60242E+02
 -3.58607E+02 -6.14025E+02 -1.28507E+03  6.64258E+01 -6.35996E+02 -9.51948E+01 -8.50506E+02 -3.15527E+02
 -1.57218E+03  2.81496E+01 -1.25243E+03 -1.99897E+03  8.50381E+02 -2.82740E+03  1.02408E+03 -1.00847E+03
  1.25644E+03  8.32073E+01  5.91734E+02  1.14818E+03 -1.00591E+02  2.48207E+03 -1.43124E+03  1.60184E+03
