 $NMID ID='MM_0lb_SNR400_16hz_g60_63.RAW', FMTDAT='(8E13.5)'
 TRAMP=1., VOLUME=1. $END
  3.09821E+05  9.44475E+02  3.37151E+05  2.50714E+05  8.41714E+04  3.38340E+05 -1.32773E+05  2.50752E+05
 -1.89965E+05  8.35198E+04 -1.11541E+05 -3.25190E+04  9.61897E+02 -4.96705E+04  5.38445E+04 -3.81382E+02
  3.49120E+04  5.31258E+04 -1.68674E+04  7.55552E+04 -6.05658E+04  6.37347E+04 -8.37553E+04  3.16109E+04
 -8.09197E+04 -1.07170E+04 -5.71708E+04 -5.16079E+04 -1.52818E+04 -6.97893E+04  2.73408E+04 -4.56534E+04
  4.02195E+04  3.48764E+03  1.70556E+04  4.77859E+04 -3.45705E+04  4.76307E+04 -6.65358E+04 -3.20351E+02
 -5.36419E+04 -5.67459E+04 -6.33776E+03 -7.70423E+04  3.39726E+04 -5.53738E+04  4.82263E+04 -1.71616E+04
  4.32462E+04  1.20423E+04  3.21059E+04  2.55881E+04  1.60717E+04  2.95924E+04 -5.43968E+03  2.72490E+04
 -2.24922E+04  1.21493E+04 -1.83263E+04 -5.27513E+03  5.53892E+03 -7.32761E+03  2.19662E+04  1.23620E+04
  7.21284E+03  3.55729E+04 -3.20643E+04  3.54997E+04 -6.33556E+04  2.06753E+03 -5.72432E+04 -4.33392E+04
 -1.18568E+04 -6.36481E+04  3.95401E+04 -4.54176E+04  5.83273E+04 -2.37547E+03  3.40055E+04  3.26452E+04
 -5.89905E+03  3.62895E+04 -2.98386E+04  1.62626E+04 -3.03415E+04 -3.88230E+03 -1.66347E+04 -1.11261E+04
 -8.19762E+03 -1.34233E+04 -8.74424E+02 -1.81007E+04  7.74553E+03 -2.26303E+04  1.58405E+04 -1.31415E+04
  1.18827E+04  5.45152E+03 -8.65872E+03  1.28724E+04 -2.16300E+04 -4.62725E+03 -8.41098E+03 -3.41333E+04
  2.30834E+04 -4.38940E+04  4.85974E+04 -1.93412E+04  4.47559E+04  1.97653E+04  1.60922E+04  4.41581E+04
 -1.64752E+04  3.33984E+04 -2.48210E+04  1.69675E+03 -9.92915E+03 -2.79444E+04  2.04723E+04 -3.37669E+04
  4.07858E+04 -8.78680E+03  3.56882E+04  2.43634E+04  1.81634E+04  4.66111E+04 -8.70651E+03  4.99106E+04
 -3.17175E+04  3.36391E+04 -4.18338E+04  9.24064E+03 -4.28808E+04 -1.69520E+04 -2.29231E+04 -3.78016E+04
  7.49852E+03 -3.80273E+04  3.10421E+04 -1.46869E+04  2.94455E+04  1.08911E+04  3.66568E+03  1.88110E+04
 -1.29512E+04  8.80670E+03 -1.09990E+04 -8.34496E+03  5.72326E+03 -1.01460E+04  1.79008E+04  6.41306E+03
  1.29676E+04  2.22925E+04 -5.57682E+03  2.46366E+04 -2.22561E+04  1.11809E+04 -2.74510E+04 -4.73016E+03
 -2.04012E+04 -1.72883E+04 -8.08083E+03 -2.04808E+04  4.17431E+03 -1.90275E+04  1.60249E+04 -1.79727E+04
  2.49924E+04 -1.30584E+04  3.27030E+04  2.69336E+03  2.33727E+04  1.99643E+04  4.33520E+03  3.61605E+04
 -1.77727E+04  3.02244E+04 -2.76299E+04  1.03687E+04 -2.02576E+04 -1.04592E+04 -4.46894E+03 -1.35064E+04
  2.08386E+03 -2.79378E+03 -4.79730E+03  6.80036E+03 -1.64346E+04  5.16581E+03 -1.63841E+04 -6.52377E+03
 -9.65169E+03 -1.90008E+04  4.72401E+03 -2.28003E+04  1.52044E+04 -1.61915E+04  1.75051E+04 -1.85281E+03
  1.12605E+04  1.30131E+04 -9.93720E+02  1.89051E+04 -1.25672E+04  1.01757E+04 -1.82674E+04 -3.88022E+03
 -1.43489E+04 -1.65239E+04 -1.33533E+03 -2.35172E+04  1.06127E+04 -1.79131E+04  1.89246E+04 -9.52273E+03
  1.71548E+04  6.65380E+02  1.23549E+04  4.40269E+03  7.23860E+03  8.05448E+02  8.99883E+03 -1.05410E+03
  1.76266E+04  2.66227E+03  1.87438E+04  1.48525E+04  1.26074E+04  2.98765E+04 -2.95664E+03  3.33333E+04
 -1.95492E+04  2.65257E+04 -3.11803E+04  1.31861E+04 -3.23158E+04 -2.39856E+03 -2.72463E+04 -1.77408E+04
 -1.18412E+04 -2.61292E+04  9.12386E+03 -2.39939E+04  2.11563E+04 -1.26375E+04  1.90613E+04  5.11636E+03
  6.86530E+03  1.38864E+04 -8.75465E+03  1.24905E+04 -1.59999E+04  2.94923E+03 -1.21148E+04 -9.08038E+03
 -8.14575E+01 -1.47985E+04  8.06211E+03 -1.14358E+04  1.01931E+04 -1.56540E+03  1.56577E+03  6.68104E+03
 -6.76369E+03  2.00277E+03 -5.71626E+03 -5.66574E+03 -3.24182E+02 -1.34140E+04  9.07284E+03 -1.38623E+04
  1.64025E+04 -6.47230E+03  1.70060E+04  2.95899E+03  1.48093E+04  1.25629E+04  7.67896E+03  1.93619E+04
 -2.63030E+03  2.14033E+04 -1.35636E+04  1.27201E+04 -1.57408E+04  3.29980E+03 -1.07541E+04 -2.76426E+03
 -5.29464E+03 -4.56131E+03 -1.62597E+03  1.01616E+03 -2.68634E+03  2.83192E+03 -4.81155E+03  4.33975E+03
 -9.87274E+03 -9.69855E+02 -1.08713E+04 -8.77309E+03 -4.19956E+03 -1.44502E+04  3.98275E+03 -1.12574E+04
  8.31807E+03 -4.74157E+03  6.33824E+03  3.20981E+03  6.13291E+02  4.23127E+03 -5.60698E+03 -2.14702E+02
 -4.25331E+03 -7.07712E+03 -1.01995E+03 -1.00523E+04  5.11810E+03 -1.06951E+04  1.29700E+04 -5.83374E+03
  1.54792E+04  9.31497E+02  1.15077E+04  9.09238E+03  1.75749E+03  1.16582E+04 -6.34511E+03  1.03005E+04
 -9.18573E+03  3.34505E+03 -3.96069E+03 -2.32107E+03  1.44203E+03 -2.66504E+03  5.79202E+03 -1.09046E+03
  5.15852E+03  3.81744E+03  1.68835E+03  8.37850E+03 -5.21862E+03  7.94024E+03 -1.03192E+04  2.20509E+03
 -6.46976E+03 -4.98985E+03  3.69515E+02 -8.86103E+03  4.48742E+03 -4.56551E+03  5.42185E+03  2.14148E+03
  1.02417E+03  4.77297E+03 -5.37947E+03  6.67597E+03 -6.63447E+03  3.21688E+03 -7.15241E+03 -1.87885E+03
 -4.17915E+03 -8.66417E+03  1.62478E+03 -9.85563E+03  8.55994E+03 -6.37917E+03  9.21821E+03  1.12839E+03
  6.17078E+03  7.15330E+03 -4.98383E+02  9.82103E+03 -6.71140E+03  5.31347E+03 -7.43528E+03 -3.72672E+02
 -6.64421E+03 -6.10975E+03 -1.33673E+03 -6.69195E+03  3.47734E+03 -5.73923E+03  4.70552E+03 -3.06950E+03
  3.46647E+03  1.00471E+03 -1.23887E+02  1.34656E+03  6.65437E+02 -1.42427E+03  1.58640E+03 -2.87049E+03
  5.56536E+03 -2.03263E+03  7.78632E+03  4.26788E+02  8.31352E+03  4.71474E+03  6.75879E+03  1.12022E+04
 -2.55102E+03  1.24915E+04 -1.07891E+04  9.31263E+03 -1.41113E+04  1.54505E+03 -1.08558E+04 -4.56157E+03
 -6.04864E+03 -9.28604E+03 -6.32755E+02 -7.54399E+03  3.35581E+03 -3.05349E+03  1.93401E+03 -3.10163E+03
  2.44307E+03 -1.79844E+03  2.15202E+03 -3.11388E+03  4.21595E+03 -2.20844E+03  4.56650E+03 -1.44565E+02
  5.68452E+03  1.60146E+03  1.95274E+03  5.15999E+03 -1.58707E+03  5.25946E+03 -6.43054E+03  3.64270E+03
 -7.29737E+03 -1.12212E+03 -3.69580E+03 -5.38623E+03 -3.12837E+02 -7.56696E+03  4.83535E+03 -7.35565E+03
  8.28686E+03 -4.37110E+03  9.70690E+03  6.18668E+02  7.24858E+03  6.07819E+03  1.31681E+03  7.99093E+03
 -3.08159E+03  7.80796E+03 -4.94281E+03  2.56230E+03 -3.35412E+03 -2.06250E+03 -9.05445E+02 -3.10499E+02
 -7.66597E+02  8.29033E+02 -1.40967E+03  2.33667E+03 -3.36777E+03  1.55033E+03 -5.82000E+03 -1.06162E+03
 -2.93742E+03 -5.25305E+03  1.10601E+03 -7.00166E+03  4.10761E+03 -6.42629E+03  5.94363E+03 -2.26611E+03
  7.09468E+03  3.28897E+03  2.26843E+03  5.86288E+03 -9.78899E+02  6.55936E+03 -3.69613E+03  4.23013E+03
 -5.81393E+03  3.08299E+02 -5.38359E+03 -3.50609E+03 -9.16749E+00 -4.91617E+03  2.78643E+03 -4.11533E+03
  3.90972E+03 -1.33248E+03  3.52179E+03  1.21249E+03  5.88894E+02  2.09426E+03  1.07884E+03  1.47153E+03
  1.88139E+03  3.05189E+02  1.04060E+03  1.03573E+03  2.11176E+03  3.23461E+03  1.78540E+03  2.74349E+03
 -1.69189E+03  5.27209E+03 -3.79910E+03  5.93799E+03 -5.59507E+03  1.28007E+03 -6.22663E+03 -1.35873E+03
 -2.39396E+03 -5.79537E+03  1.03783E+03 -7.45327E+03  3.05252E+03 -3.97232E+03  4.68913E+03 -1.31098E+03
  3.36387E+03  2.05116E+03  4.11104E+02  3.42940E+03 -1.29854E+03  1.96840E+03 -2.27555E+03 -1.42041E+01
 -7.02721E+02 -2.82690E+03  1.14113E+03 -2.48833E+03  2.27432E+03 -1.54088E+03  2.32110E+03  7.58175E+02
  4.69232E+02  5.26140E+02  7.27031E+02 -5.82929E+02 -1.70098E+02  1.43532E+03  1.54947E+03  1.18771E+02
  4.59506E+02 -3.53744E+02  2.78311E+03  1.36193E+03  5.60357E+02  3.65487E+03 -1.74129E+02  4.20270E+03
 -2.46464E+03  2.14302E+03 -2.79705E+03  3.76616E+02 -3.02511E+03 -1.07905E+03 -7.98815E+02 -1.45249E+03
  3.66879E+02 -2.13135E+03  7.53008E+02 -1.17099E+03  1.14413E+03  1.30626E+03 -9.37700E+02  1.31776E+03
 -2.23119E+03  1.28258E+03 -2.48035E+03 -1.80422E+03 -1.41703E+03 -3.21107E+03  3.22182E+02 -2.40493E+03
  7.64636E+02 -1.33095E+03  1.68391E+03  8.69398E+01  1.90895E+03  7.33386E+02  5.19648E+02  1.85203E+03
 -2.66082E+02 -3.44941E+02 -1.74892E+03  3.33367E+01  8.54671E+02 -1.73764E+03  2.63061E+03 -1.55721E+03
  2.11684E+03  1.71145E+02  3.35967E+03  1.59822E+03  1.49265E+03  3.27145E+03 -6.55895E+02  3.01455E+03
 -2.68550E+03  5.53785E+02 -2.86923E+03 -6.19165E+02 -1.82988E+03 -1.92502E+03  2.63473E+02 -1.40119E+03
  2.22494E+03 -5.18473E+02  1.84186E+03  6.61728E+02  6.03914E+02  2.30807E+03 -2.79550E+02  1.31671E+03
 -1.23789E+03  1.66007E+03 -9.02763E+02  7.93781E+02 -6.45720E+01  5.19706E+02 -6.67612E+02  4.43891E+02
 -8.80829E+02  1.31590E+03 -2.00977E+03  9.73058E+02 -3.34041E+03  3.78428E+02 -3.58756E+03 -1.57066E+03
 -1.88297E+03 -3.88463E+03  8.22009E+02 -5.21190E+03  2.14620E+03 -3.31423E+03  4.18485E+03 -1.18733E+03
  3.77031E+03  7.31193E+02  2.28496E+03  2.75580E+03 -1.79040E+02  2.85531E+03 -5.88527E+02  2.30890E+03
 -2.71568E+03  1.72838E+03 -1.17955E+03 -6.53980E+02 -5.16156E+02  1.03059E+02 -2.84553E+02 -3.22007E+02
 -1.40345E+03  1.05936E+02 -7.45503E+02  3.75453E+02  2.63547E+02 -1.97814E+02 -2.96676E+02 -8.70013E+02
  1.32613E+03 -7.95756E+02  9.81658E+02  2.56593E-01  1.69926E+03  1.55843E+03 -6.13152E+01  2.58444E+03
 -1.44879E+03  3.11648E+03 -2.90212E+03  1.35990E+03 -3.68605E+03 -4.70816E+01 -2.19891E+03 -2.11293E+03
 -1.65483E+03 -2.69910E+03  9.38096E+02 -2.40295E+03  1.58495E+03 -5.05717E+02  1.79870E+03 -6.07623E+02
  1.45715E+03  7.50221E+02  2.75591E+02  1.19799E+03 -4.99726E+02 -6.95704E+00  1.77647E+02 -1.87043E+02
  7.65562E+02 -2.96815E+02  6.76452E+02  4.94614E+02  2.96812E+02  1.23837E+03  1.16066E+02  4.54324E+02
 -8.69240E+02  1.05271E+03 -1.13472E+03  3.17411E+02 -1.63567E+03 -4.45456E+02 -3.56645E+02 -2.24046E+03
  1.49764E+03 -1.34092E+03  1.50123E+03 -3.78085E+02  1.86883E+03 -5.24074E+02  1.04681E+03  1.39279E+03
  4.67489E+02  1.54754E+03 -6.49694E+02  1.73097E+03 -9.85573E+02  1.30712E+03 -9.19969E+02  4.28352E+02
  5.09895E+02  2.98202E+01 -6.59814E+02  5.19524E+02 -1.21413E+03 -2.70960E+02 -2.22726E+03 -3.68130E+02
 -1.49289E+03  1.99596E+02 -7.23740E+02 -1.89482E+03  9.93043E+02 -1.95299E+03  1.00855E+03 -6.65777E+02
  1.45191E+03  7.41541E+02 -3.17945E+00  7.37696E+02  5.55148E+02  1.42584E+03 -9.33564E+02  1.80253E+03
