 $NMID ID='MM_0lb_SNR400_15hz_g50_72.RAW', FMTDAT='(8E13.5)'
 TRAMP=1., VOLUME=1. $END
  3.10186E+05  4.25901E+02  3.37484E+05  2.50814E+05  8.46676E+04  3.37779E+05 -1.32233E+05  2.51134E+05
 -1.90581E+05  8.29468E+04 -1.11973E+05 -3.24630E+04  8.52684E+02 -5.03357E+04  5.33515E+04  5.25692E+02
  3.50903E+04  5.27437E+04 -1.68810E+04  7.53063E+04 -6.05517E+04  6.28654E+04 -8.38564E+04  3.19408E+04
 -8.13416E+04 -1.05503E+04 -5.70927E+04 -5.14267E+04 -1.55352E+04 -6.97584E+04  2.70178E+04 -4.53137E+04
  3.94500E+04  2.82698E+03  1.62606E+04  4.83069E+04 -3.41753E+04  4.66833E+04 -6.66853E+04 -3.70401E+02
 -5.31291E+04 -5.67026E+04 -6.57960E+03 -7.72083E+04  3.42018E+04 -5.49789E+04  4.77348E+04 -1.68029E+04
  4.29356E+04  1.13104E+04  3.13598E+04  2.53166E+04  1.60249E+04  2.92626E+04 -4.76164E+03  2.72806E+04
 -2.23143E+04  1.23156E+04 -1.90818E+04 -5.15160E+03  5.29514E+03 -7.34882E+03  2.20892E+04  1.19665E+04
  6.77134E+03  3.50323E+04 -3.14313E+04  3.53318E+04 -6.35156E+04  1.76558E+03 -5.70246E+04 -4.29602E+04
 -1.17666E+04 -6.25986E+04  3.96248E+04 -4.57098E+04  5.79643E+04 -2.21032E+03  3.44318E+04  3.27601E+04
 -6.09977E+03  3.63340E+04 -2.99095E+04  1.54303E+04 -2.93475E+04 -4.38326E+03 -1.60314E+04 -1.08984E+04
 -7.95625E+03 -1.26214E+04 -7.91698E+02 -1.76893E+04  7.77907E+03 -2.34805E+04  1.52505E+04 -1.35366E+04
  1.08384E+04  5.29668E+03 -8.31181E+03  1.31180E+04 -2.11853E+04 -4.25985E+03 -7.68974E+03 -3.35797E+04
  2.26746E+04 -4.27602E+04  4.77492E+04 -1.85586E+04  4.50939E+04  1.92676E+04  1.54455E+04  4.41400E+04
 -1.57569E+04  3.26992E+04 -2.52974E+04  1.72727E+03 -9.36215E+03 -2.75303E+04  2.07080E+04 -3.30396E+04
  4.00310E+04 -9.42691E+03  3.48261E+04  2.36474E+04  1.74288E+04  4.56975E+04 -8.42833E+03  4.93104E+04
 -3.16787E+04  3.28269E+04 -4.07501E+04  9.65753E+03 -4.17484E+04 -1.65523E+04 -2.27929E+04 -3.79471E+04
  7.51359E+03 -3.67664E+04  3.10568E+04 -1.40666E+04  2.89247E+04  1.13458E+04  3.65325E+03  1.87346E+04
 -1.29004E+04  8.28919E+03 -9.92030E+03 -7.98065E+03  6.14818E+03 -1.04538E+04  1.79976E+04  5.84196E+03
  1.33392E+04  2.17408E+04 -6.37772E+03  2.48552E+04 -2.21139E+04  1.15738E+04 -2.74299E+04 -4.73535E+03
 -2.01749E+04 -1.78007E+04 -7.71765E+03 -2.00184E+04  4.08548E+03 -1.85601E+04  1.57595E+04 -1.73378E+04
  2.52105E+04 -1.23989E+04  3.17430E+04  2.75475E+03  2.29504E+04  1.96919E+04  4.54873E+03  3.61296E+04
 -1.77229E+04  2.95866E+04 -2.66524E+04  1.06148E+04 -2.05160E+04 -1.03933E+04 -4.30177E+03 -1.33453E+04
  2.04115E+03 -2.73808E+03 -4.82570E+03  6.25757E+03 -1.54039E+04  5.54358E+03 -1.60087E+04 -6.42344E+03
 -9.50067E+03 -1.80630E+04  5.35605E+03 -2.26020E+04  1.55223E+04 -1.62751E+04  1.76444E+04 -1.54268E+03
  1.11326E+04  1.35180E+04 -1.27321E+03  1.85113E+04 -1.23283E+04  1.00482E+04 -1.79949E+04 -3.97583E+03
 -1.42668E+04 -1.67959E+04 -1.97281E+03 -2.19950E+04  1.02485E+04 -1.81974E+04  1.81768E+04 -8.86385E+03
  1.73169E+04  4.54756E+02  1.18699E+04  4.15663E+03  6.00934E+03  1.26186E+03  9.45479E+03 -1.10266E+03
  1.63612E+04  3.22952E+03  1.86104E+04  1.50282E+04  1.23234E+04  2.90162E+04 -2.25794E+03  3.22917E+04
 -1.92299E+04  2.62459E+04 -3.06890E+04  1.31367E+04 -3.20745E+04 -2.33457E+03 -2.62911E+04 -1.80212E+04
 -1.14609E+04 -2.60072E+04  9.30404E+03 -2.39691E+04  2.08452E+04 -1.21013E+04  1.86204E+04  4.94731E+03
  6.65638E+03  1.38784E+04 -9.30648E+03  1.19898E+04 -1.55118E+04  2.99780E+03 -1.14852E+04 -9.83333E+03
 -5.31177E+02 -1.49412E+04  7.49922E+03 -1.11375E+04  1.01975E+04 -1.64126E+03  1.94123E+03  6.31134E+03
 -5.68580E+03  2.09649E+03 -5.98532E+03 -5.65461E+03  3.70198E+02 -1.30146E+04  9.44216E+03 -1.29492E+04
  1.60378E+04 -7.41351E+03  1.64344E+04  2.55491E+03  1.46459E+04  1.20595E+04  6.94220E+03  1.92133E+04
 -2.98654E+03  2.11337E+04 -1.34087E+04  1.31358E+04 -1.48217E+04  3.53469E+03 -1.15149E+04 -3.91055E+03
 -5.03479E+03 -5.03022E+03 -8.84331E+02  1.40076E+03 -2.29448E+03  2.46969E+03 -4.99045E+03  4.49443E+03
 -1.00128E+04 -1.02484E+03 -1.06557E+04 -8.60375E+03 -4.63257E+03 -1.39611E+04  3.92811E+03 -1.08781E+04
  9.33773E+03 -4.92215E+03  6.11500E+03  2.44191E+03  2.75849E+02  4.30244E+03 -4.67085E+03 -5.00101E+01
 -4.27846E+03 -6.35558E+03 -1.16493E+03 -9.89868E+03  5.42332E+03 -1.03704E+04  1.29254E+04 -5.55030E+03
  1.54767E+04  1.65347E+03  1.20217E+04  8.41421E+03  2.18228E+03  1.19213E+04 -7.18577E+03  1.05829E+04
 -8.45014E+03  2.65652E+03 -4.55752E+03 -2.22423E+03  1.42818E+03 -3.08980E+03  5.80251E+03 -6.25372E+02
  5.84067E+03  4.20983E+03  1.05133E+03  8.58829E+03 -5.62643E+03  8.28526E+03 -1.00080E+04  1.96822E+03
 -6.74518E+03 -4.69550E+03 -2.04380E+02 -8.34660E+03  5.31077E+03 -4.09854E+03  4.97300E+03  1.68439E+03
  1.13636E+03  6.00390E+03 -4.84031E+03  6.84867E+03 -7.21391E+03  3.42206E+03 -7.01893E+03 -2.10014E+03
 -4.50214E+03 -9.27510E+03  2.09275E+03 -1.01482E+04  8.99010E+03 -6.45453E+03  9.68623E+03  1.68575E+03
  6.29836E+03  7.49749E+03 -3.19077E+02  9.50573E+03 -7.23538E+03  5.60054E+03 -7.78346E+03 -5.32688E+02
 -7.46366E+03 -6.30201E+03 -1.86916E+03 -7.53225E+03  3.74079E+03 -5.90926E+03  3.74893E+03 -2.79898E+03
  3.77247E+03  8.25385E+02 -6.80959E+02  1.27596E+03 -7.22802E+01 -1.50395E+03  3.98636E+02 -3.28413E+03
  5.91298E+03 -2.08128E+03  8.36196E+03  1.66545E+03  8.69682E+03  4.82348E+03  6.49303E+03  1.14900E+04
 -2.26730E+03  1.30043E+04 -1.11456E+04  9.29240E+03 -1.46283E+04  1.32263E+03 -1.09697E+04 -4.58706E+03
 -6.18388E+03 -9.49064E+03 -8.02878E+02 -8.05490E+03  2.82611E+03 -3.97645E+03  3.40585E+03 -3.22435E+03
  1.35120E+03 -2.23265E+03  2.09528E+03 -2.94871E+03  4.16493E+03 -1.79947E+03  5.06398E+03  8.45996E+01
  5.87653E+03  8.29426E+02  2.30702E+03  5.28859E+03 -1.77364E+03  4.84656E+03 -6.48356E+03  4.24101E+03
 -7.47641E+03 -5.75297E+02 -3.98675E+03 -5.52216E+03  2.31468E+02 -7.15561E+03  4.98762E+03 -8.81983E+03
  8.35960E+03 -4.75535E+03  1.03383E+04  9.45761E+02  6.49511E+03  6.89423E+03  1.45639E+03  8.96895E+03
 -3.53983E+03  8.40175E+03 -5.49350E+03  2.79038E+03 -4.00230E+03 -8.65797E+02 -1.81030E+03 -6.77542E+02
 -1.68512E+02  6.43011E+02 -1.15590E+03  2.25760E+03 -3.37326E+03  1.36793E+03 -6.05937E+03 -4.29511E+02
 -3.46090E+03 -5.69094E+03  8.95466E+02 -7.50884E+03  4.24699E+03 -6.78709E+03  6.21741E+03 -1.73744E+03
  6.89818E+03  3.55094E+03  3.18628E+03  6.15508E+03 -6.62991E+02  7.13515E+03 -4.59134E+03  4.39468E+03
 -5.78008E+03  3.51457E+02 -5.47156E+03 -3.62868E+03 -5.52505E+01 -5.28306E+03  3.06760E+03 -3.76118E+03
  4.85635E+03 -1.71590E+03  3.08677E+03  5.00718E+02  2.23009E+02  2.76696E+03  9.29095E+02  1.23420E+03
  1.60657E+03  6.22763E+02  2.28447E+03  1.01132E+03  2.19292E+03  3.21309E+03  1.71114E+03  3.28697E+03
 -2.09244E+03  5.66778E+03 -4.26947E+03  5.78283E+03 -5.85530E+03  8.71693E+02 -7.31460E+03 -1.79164E+03
 -3.08592E+03 -6.98044E+03  3.60278E+02 -7.69485E+03  3.57726E+03 -4.26376E+03  5.38708E+03 -1.04086E+03
  3.97992E+03  2.44180E+03  8.75461E+02  3.79239E+03 -1.73337E+03  1.55231E+03 -2.14036E+03  1.94070E+01
 -6.89092E+02 -2.20062E+03  2.30619E+03 -3.26207E+03  2.54161E+03 -1.95931E+03  2.45496E+03  5.04707E+02
  1.39814E+03  1.60150E+03  1.71105E+03  4.02598E+02 -2.87109E+02  1.26350E+03  1.27728E+03 -9.65300E+02
  9.15032E+02 -3.92000E+01  2.83328E+03  9.48711E+02  1.20569E+03  3.43597E+03 -8.15455E+02  4.38508E+03
 -2.90366E+03  1.95852E+03 -3.23782E+03  8.95193E+02 -3.25871E+03 -1.83549E+03 -4.51967E+02 -2.39380E+03
  8.10374E+02 -3.10338E+03  1.79589E+03 -1.38674E+03  6.11386E+02  1.94968E+03 -1.17128E+03  1.75622E+03
 -2.27163E+03  1.19618E+03 -2.68931E+03 -1.39451E+03 -1.57388E+03 -3.86009E+03  2.78647E+02 -3.14849E+03
  1.82759E+03 -1.40048E+03  1.60217E+03  2.08880E+02  2.15777E+03  5.95290E+02  5.31421E+02  1.83155E+03
 -9.07089E+02  1.63770E+02 -1.79546E+03 -8.05068E+02  8.60005E+02 -2.61415E+03  2.99980E+03 -1.95172E+03
  3.18586E+03 -5.28291E+01  3.87173E+03  1.31699E+03  1.55266E+03  3.08783E+03 -1.35620E+03  3.33375E+03
 -2.96513E+03  1.17268E+03 -2.98064E+03 -7.41367E+02 -1.89677E+03 -2.79969E+03  5.68370E+02 -2.15611E+03
  2.36994E+03 -1.28991E+03  2.05650E+03  5.73226E+02  3.29203E+02  2.20110E+03 -4.74436E+02  2.15149E+03
 -5.91833E+01  1.26605E+03 -3.94303E+02  5.08079E+02 -1.67855E+02  5.49215E+02 -1.49025E+03  1.00489E+03
 -1.27525E+03  1.72221E+03 -2.83426E+03  1.04938E+03 -2.92403E+03  2.35726E+02 -4.39950E+03 -2.20211E+03
 -2.14605E+03 -4.73739E+03  9.05153E+02 -5.22408E+03  2.73768E+03 -4.25033E+03  4.79850E+03 -1.80737E+03
  4.10175E+03  8.74883E+02  2.78039E+03  3.72940E+03 -5.80018E+00  3.07287E+03 -1.20295E+03  2.70151E+03
 -2.01219E+03  7.48334E+02 -1.67371E+03 -7.94532E+02 -7.13527E+02 -1.11058E+02 -2.90447E+02 -1.81150E+01
 -1.97779E+03 -3.63903E+02 -8.25343E+02  7.97309E+02  3.30884E+02 -8.48288E+02 -5.58808E+01 -1.73500E+03
  2.12021E+03 -1.34675E+03  9.97895E+02  2.64458E+02  2.55770E+03  1.94410E+03  2.38724E+02  2.68115E+03
 -1.59740E+03  3.77079E+03 -3.47042E+03  2.19057E+03 -3.66207E+03  3.85418E+01 -2.65605E+03 -2.28954E+03
 -2.04606E+03 -2.80244E+03  1.09857E+03 -2.77129E+03  1.20714E+03 -1.51020E+03  2.49122E+03 -5.36991E+02
  1.35200E+03 -2.78130E+01  2.54368E+02  9.27205E+02 -7.43071E+02 -1.83532E+02 -2.66931E+02 -6.03269E+02
  3.90498E+02 -2.76016E+02  6.00238E+02  5.58418E+02  1.57745E+01  1.04527E+03  3.73502E+02  1.19710E+03
 -1.71006E+03  1.27778E+03 -1.82677E+03  8.27781E+02 -1.19504E+03 -1.21385E+03 -1.45163E+02 -2.82802E+03
  1.34183E+03 -1.89533E+03  1.68523E+03 -6.38331E+02  2.53284E+03  1.17629E+01  1.15323E+03  1.48992E+03
  1.67795E+02  1.70560E+03 -9.27580E+02  1.62883E+03 -1.37223E+03  2.02223E+03 -8.51408E+02  5.49078E+02
 -8.67061E+02  1.92216E+02 -9.08040E+02  3.20563E+02 -9.49032E+02 -2.67473E+01 -1.59121E+03 -2.95416E+02
 -2.14540E+03 -4.25815E+02 -5.50529E+02 -1.92032E+03  1.20112E+03 -2.69127E+03  2.08388E+03 -7.67641E+02
  2.39701E+03  4.02878E+02 -1.33175E+02  1.27684E+03 -2.73170E+02  1.90967E+03 -4.61273E+02  1.33189E+03
