 $NMID ID='MM_0lb_SNR400_15hz_g50_42.RAW', FMTDAT='(8E13.5)'
 TRAMP=1., VOLUME=1. $END
  3.09600E+05  3.86275E+02  3.37392E+05  2.50569E+05  8.43315E+04  3.37724E+05 -1.32125E+05  2.51718E+05
 -1.89960E+05  8.33007E+04 -1.11327E+05 -3.23857E+04  9.80311E+02 -5.06638E+04  5.40569E+04 -8.68056E+02
  3.55406E+04  5.25190E+04 -1.66896E+04  7.52996E+04 -6.05776E+04  6.32144E+04 -8.41923E+04  3.18463E+04
 -8.11332E+04 -1.17400E+04 -5.71012E+04 -5.06257E+04 -1.54101E+04 -6.91694E+04  2.77606E+04 -4.61642E+04
  4.04464E+04  4.17359E+03  1.65256E+04  4.75954E+04 -3.43953E+04  4.72966E+04 -6.58009E+04 -8.95416E+02
 -5.32144E+04 -5.64917E+04 -6.55176E+03 -7.67235E+04  3.31736E+04 -5.49083E+04  4.77642E+04 -1.69901E+04
  4.26786E+04  1.13661E+04  3.16518E+04  2.55646E+04  1.56783E+04  2.90695E+04 -5.25143E+03  2.72483E+04
 -2.27023E+04  1.25516E+04 -1.88253E+04 -4.75420E+03  5.44816E+03 -7.53255E+03  2.24802E+04  1.17184E+04
  7.21014E+03  3.51394E+04 -3.20380E+04  3.49023E+04 -6.31473E+04  2.11200E+03 -5.68624E+04 -4.22694E+04
 -1.29323E+04 -6.24847E+04  3.93752E+04 -4.52521E+04  5.73597E+04 -1.69810E+03  3.38393E+04  3.20941E+04
 -6.06346E+03  3.58416E+04 -3.02652E+04  1.55198E+04 -3.04211E+04 -4.80506E+03 -1.58141E+04 -1.08419E+04
 -8.05361E+03 -1.35888E+04 -3.71719E+02 -1.71735E+04  8.18058E+03 -2.30591E+04  1.56654E+04 -1.35206E+04
  1.15749E+04  4.70709E+03 -8.37287E+03  1.29131E+04 -2.09725E+04 -3.35586E+03 -8.68068E+03 -3.34670E+04
  2.20995E+04 -4.27101E+04  4.76228E+04 -1.97284E+04  4.46577E+04  1.88806E+04  1.53491E+04  4.39021E+04
 -1.56856E+04  3.29943E+04 -2.44412E+04  2.05314E+03 -9.22279E+03 -2.80433E+04  2.14807E+04 -3.34775E+04
  4.03255E+04 -8.92885E+03  3.47136E+04  2.40859E+04  1.76828E+04  4.60696E+04 -7.77544E+03  4.90004E+04
 -3.12909E+04  3.25475E+04 -4.13410E+04  9.51571E+03 -4.18799E+04 -1.62926E+04 -2.31640E+04 -3.77015E+04
  7.26977E+03 -3.72272E+04  3.09522E+04 -1.44791E+04  2.84557E+04  1.07199E+04  2.94465E+03  1.87172E+04
 -1.40849E+04  8.31670E+03 -1.00571E+04 -7.39771E+03  5.94456E+03 -1.02775E+04  1.76858E+04  6.75781E+03
  1.30060E+04  2.22724E+04 -5.73322E+03  2.53790E+04 -2.25008E+04  1.13732E+04 -2.73593E+04 -4.81985E+03
 -1.92547E+04 -1.74706E+04 -8.09506E+03 -1.92437E+04  4.28377E+03 -1.87208E+04  1.57863E+04 -1.76144E+04
  2.49516E+04 -1.22347E+04  3.17587E+04  1.72283E+03  2.36893E+04  1.90208E+04  4.29864E+03  3.52387E+04
 -1.74476E+04  2.96759E+04 -2.75776E+04  1.02315E+04 -1.98304E+04 -1.03423E+04 -4.52348E+03 -1.30619E+04
  1.28988E+03 -3.39203E+03 -4.83445E+03  6.97098E+03 -1.55923E+04  4.94340E+03 -1.55416E+04 -6.64499E+03
 -9.59303E+03 -1.85056E+04  5.42836E+03 -2.20761E+04  1.48717E+04 -1.64489E+04  1.70855E+04 -1.70802E+03
  1.12689E+04  1.22535E+04 -8.09165E+02  1.81700E+04 -1.27972E+04  1.04539E+04 -1.83404E+04 -4.09128E+03
 -1.37240E+04 -1.64249E+04 -2.02923E+03 -2.25145E+04  1.01505E+04 -1.81289E+04  1.87408E+04 -9.11113E+03
  1.70924E+04 -2.40883E+02  1.23200E+04  4.22464E+03  6.44907E+03  8.67562E+02  9.14479E+03 -1.05149E+03
  1.63747E+04  2.78707E+03  1.86533E+04  1.43499E+04  1.24741E+04  2.93612E+04 -3.01363E+03  3.23892E+04
 -1.94553E+04  2.58446E+04 -3.02352E+04  1.29915E+04 -3.19461E+04 -1.45571E+03 -2.61280E+04 -1.83838E+04
 -1.14439E+04 -2.57865E+04  8.77575E+03 -2.29943E+04  2.03468E+04 -1.19235E+04  1.83150E+04  5.47977E+03
  7.30226E+03  1.34446E+04 -8.73582E+03  1.24312E+04 -1.58721E+04  3.52082E+03 -1.24464E+04 -9.74363E+03
  7.87111E-01 -1.48323E+04  7.49596E+03 -1.15144E+04  9.31010E+03 -1.51213E+03  2.16749E+03  6.05747E+03
 -6.45833E+03  2.57520E+03 -5.84158E+03 -4.97118E+03 -4.02898E+02 -1.29781E+04  9.11627E+03 -1.33108E+04
  1.54677E+04 -6.67862E+03  1.67321E+04  3.73516E+03  1.50031E+04  1.19942E+04  7.02611E+03  1.87702E+04
 -2.95830E+03  2.12034E+04 -1.31303E+04  1.30100E+04 -1.47505E+04  2.69155E+03 -1.06242E+04 -2.67943E+03
 -5.47471E+03 -4.40348E+03 -6.82507E+02  8.44520E+02 -1.65211E+03  2.75582E+03 -4.35234E+03  4.57309E+03
 -9.80378E+03 -7.06901E+02 -1.07765E+04 -8.85315E+03 -4.63163E+03 -1.39666E+04  4.91057E+03 -1.10969E+04
  8.97663E+03 -4.43945E+03  6.67463E+03  2.50745E+03  7.82837E+02  3.89299E+03 -4.95475E+03  2.50101E+02
 -4.28387E+03 -6.31919E+03 -1.33624E+03 -9.60477E+03  5.23422E+03 -9.96482E+03  1.26765E+04 -5.65611E+03
  1.54906E+04  1.47149E+03  1.15892E+04  9.10710E+03  2.30690E+03  1.18491E+04 -6.82965E+03  1.05989E+04
 -8.96980E+03  2.74013E+03 -4.53971E+03 -1.58366E+03  1.57376E+03 -3.16600E+03  5.72273E+03 -3.89044E+02
  4.73248E+03  4.41899E+03  1.18603E+03  7.78716E+03 -5.78183E+03  7.78796E+03 -1.05621E+04  2.24226E+03
 -6.83891E+03 -5.27702E+03 -2.06501E+02 -8.29686E+03  4.18090E+03 -4.20512E+03  5.42285E+03  1.94668E+03
  1.04750E+03  5.20872E+03 -5.29332E+03  6.33895E+03 -7.24132E+03  2.85291E+03 -7.06714E+03 -2.48542E+03
 -3.74865E+03 -8.88435E+03  2.36668E+03 -1.03426E+04  9.17100E+03 -6.03777E+03  9.19995E+03  1.92909E+03
  6.23981E+03  7.34911E+03 -5.93409E+02  9.56736E+03 -7.12143E+03  5.68817E+03 -7.72965E+03 -8.33570E+02
 -7.28065E+03 -6.58290E+03 -1.38550E+03 -7.14436E+03  3.91314E+03 -6.11037E+03  4.28776E+03 -2.82797E+03
  3.92944E+03  9.54061E+02  2.17140E+02  1.91327E+03 -1.53323E+02 -1.47421E+03  4.07815E+02 -3.69499E+03
  6.08042E+03 -1.77866E+03  9.02603E+03  8.47988E+02  9.07685E+03  5.47365E+03  6.40232E+03  1.08269E+04
 -2.63049E+03  1.25457E+04 -1.13076E+04  9.05371E+03 -1.40496E+04  1.97216E+03 -1.17955E+04 -4.03547E+03
 -5.51378E+03 -9.55539E+03 -4.42534E+02 -8.00885E+03  2.95555E+03 -4.32130E+03  2.79138E+03 -3.45188E+03
  2.16842E+03 -1.67369E+03  2.86798E+03 -2.48796E+03  4.13908E+03 -1.73381E+03  4.85538E+03  1.78154E+02
  6.22674E+03  2.21398E+03  2.16660E+03  4.33071E+03 -1.86794E+03  5.10504E+03 -6.34607E+03  3.79050E+03
 -7.36993E+03 -1.50748E+03 -3.96809E+03 -5.23665E+03 -9.24951E+01 -8.24255E+03  4.86130E+03 -8.54749E+03
  8.63027E+03 -5.07502E+03  1.00693E+04  9.30664E+02  7.39948E+03  6.88000E+03  1.20701E+03  8.93254E+03
 -3.65778E+03  7.97903E+03 -5.44035E+03  2.88479E+03 -3.24801E+03 -1.07213E+03 -1.23461E+03 -1.26027E+03
 -7.06077E+02 -4.13952E+01 -1.31205E+03  1.85150E+03 -3.85200E+03  9.84745E+02 -5.87155E+03 -7.81045E+02
 -2.86105E+03 -6.03570E+03  3.62463E+02 -6.97640E+03  4.37155E+03 -6.76950E+03  6.52733E+03 -2.19539E+03
  6.37637E+03  4.20760E+03  3.17303E+03  6.43864E+03 -1.08283E+03  7.39354E+03 -4.53513E+03  4.36091E+03
 -6.07041E+03  7.49595E+02 -5.30058E+03 -4.17388E+03 -4.79987E+02 -5.55264E+03  2.52348E+03 -3.76713E+03
  4.42449E+03 -1.82842E+03  2.25110E+03  8.84340E+02  3.27764E+02  2.39465E+03  1.07738E+03  9.29581E+02
  1.40592E+03  1.10332E+03  1.02433E+03  1.71557E+03  7.64401E+02  3.28863E+03  1.92680E+03  2.95712E+03
 -1.44802E+03  4.80924E+03 -4.52435E+03  6.24528E+03 -6.37103E+03  1.54992E+03 -6.98060E+03 -1.61382E+03
 -3.88537E+03 -6.75369E+03  2.35369E+02 -7.77955E+03  3.75674E+03 -4.73220E+03  5.64834E+03 -1.17937E+03
  3.72125E+03  2.60581E+03  6.67064E+02  3.58825E+03 -2.09219E+03  1.67952E+03 -2.06128E+03 -6.44633E+00
 -1.41474E+03 -2.83842E+03  1.64376E+03 -3.00847E+03  1.96599E+03 -1.46757E+03  2.33934E+03  5.59683E+02
  1.32222E+03  1.29141E+03  1.23518E+03  1.61875E+03 -4.77477E+02  9.82839E+02  1.50021E+03 -5.51774E+02
  5.80951E+02 -6.33000E+02  2.90344E+03  6.10178E+02  1.10085E+03  3.98236E+03 -2.97820E+02  4.62993E+03
 -2.40936E+03  1.72384E+03 -3.75627E+03  3.92852E+02 -3.64712E+03 -1.37307E+03 -1.28032E+03 -2.53370E+03
  1.47636E+02 -2.59410E+03  1.32437E+03 -1.30437E+03  1.16284E+03  2.03942E+03 -9.78706E+02  2.34364E+03
 -2.05270E+03  1.00310E+03 -3.48795E+03 -2.64691E+03 -1.35971E+03 -3.15532E+03  7.26779E+02 -3.33003E+03
  1.51619E+03 -1.51375E+03  2.25256E+03 -2.59516E+02  2.31903E+03  3.13148E+02 -1.52363E+02  1.61466E+03
 -2.79094E+02  5.86308E+02 -1.57123E+03  1.70392E+02  9.87519E+02 -1.93754E+03  2.74759E+03 -1.56723E+03
  3.55309E+03  1.45503E+02  4.50131E+03  1.97414E+03  1.18013E+03  3.46436E+03 -1.09958E+03  4.17074E+03
 -2.14236E+03  1.27052E+03 -3.30495E+03 -2.83278E+02 -1.57829E+03 -2.80971E+03  1.57364E+02 -1.82587E+03
  2.33931E+03 -8.57446E+02  1.90234E+03  1.01161E+03  9.43312E+02  2.10150E+03  4.04837E+02  2.12474E+03
 -4.58065E+02  1.47041E+03 -1.57128E+03  1.08306E+02  1.87843E+02  5.47425E+00 -2.33153E+02  6.73047E+02
 -1.29410E+03  1.68630E+03 -2.54291E+03  1.52454E+03 -3.22329E+03 -7.10398E+01 -4.25911E+03 -2.25771E+03
 -2.16579E+03 -4.52090E+03  1.25299E+03 -5.19447E+03  3.39255E+03 -4.01985E+03  5.68603E+03 -1.94692E+03
  4.80844E+03  3.55659E+02  2.22380E+03  3.20572E+03 -4.68671E+02  3.27404E+03 -1.63494E+03  1.70678E+03
 -1.89281E+03  1.07147E+03 -1.02903E+03 -2.65419E+02 -6.45210E+02  2.45123E+02 -4.00100E+02  3.87860E+02
 -1.39890E+03 -2.24414E+02 -1.12937E+03  5.88478E+02  1.00510E+02 -7.36729E+02 -7.03453E+02 -9.43983E+02
  1.56900E+03 -9.66594E+02  1.98611E+03 -6.43040E+01  2.65544E+03  1.08252E+03 -2.24876E+02  3.23164E+03
 -1.15066E+03  4.64992E+03 -3.18961E+03  2.71781E+03 -3.54683E+03 -1.06057E+03 -2.38645E+03 -2.55763E+03
 -1.44803E+03 -3.36940E+03  6.58788E+02 -2.41716E+03  2.20416E+03 -1.71952E+03  1.18278E+03  3.03717E+02
  1.42945E+03  9.66406E+02  7.80193E+01  7.03123E+02 -4.30998E+02  1.31982E+02  6.19988E+01 -7.82295E+02
  1.30961E+03 -7.55347E+01  7.81563E+02  2.22804E+02  8.09782E+02  1.03249E+03  5.38433E+02  1.39933E+03
 -1.06020E+03  8.30973E+02 -1.56368E+03  1.00043E+02 -2.28737E+03 -1.10382E+03 -4.85952E+02 -2.26705E+03
  1.20852E+03 -1.53546E+03  2.43501E+03 -4.14774E+02  2.69322E+03 -2.73743E+02  1.22816E+03  1.50976E+03
  6.06878E+02  1.39396E+03 -4.32974E+02  1.27751E+03 -1.13240E+03  1.90618E+03 -8.19826E+02  3.41945E+02
 -5.26830E+02 -1.42802E+02 -8.23430E+02  5.14441E+02 -9.64882E+02 -1.20889E+02 -1.76455E+03 -1.75083E+02
 -1.84343E+03 -5.78822E+02 -5.92291E+02 -2.09682E+03  9.41553E+02 -2.88081E+03  2.33527E+03 -6.83136E+02
  1.97532E+03  3.08487E+02  5.83758E+01  1.44937E+03 -5.77966E+02  1.83421E+03 -1.38086E+03  1.25377E+03
