 $NMID ID='MM_0lb_SNR400_14hz_g50_73.RAW', FMTDAT='(8E13.5)'
 TRAMP=1., VOLUME=1. $END
  3.09981E+05  8.41672E+02  3.38126E+05  2.50390E+05  8.45846E+04  3.37898E+05 -1.32764E+05  2.50756E+05
 -1.90528E+05  8.29882E+04 -1.11190E+05 -3.31445E+04  4.40705E+02 -5.00071E+04  5.42290E+04 -2.78639E+02
  3.46081E+04  5.24727E+04 -1.67238E+04  7.52909E+04 -6.07131E+04  6.33254E+04 -8.38425E+04  3.26585E+04
 -8.08809E+04 -1.20271E+04 -5.70531E+04 -5.13131E+04 -1.54850E+04 -6.93430E+04  2.76397E+04 -4.58292E+04
  4.02093E+04  3.87632E+03  1.60164E+04  4.85371E+04 -3.39559E+04  4.73207E+04 -6.65653E+04 -3.84375E+02
 -5.38785E+04 -5.68251E+04 -6.77229E+03 -7.66348E+04  3.40419E+04 -5.50913E+04  4.86191E+04 -1.72178E+04
  4.29538E+04  1.09398E+04  3.19717E+04  2.57066E+04  1.57191E+04  2.95339E+04 -5.10174E+03  2.75683E+04
 -2.20944E+04  1.27706E+04 -1.86759E+04 -4.95124E+03  5.61062E+03 -6.97168E+03  2.22800E+04  1.27754E+04
  7.33700E+03  3.51279E+04 -3.18065E+04  3.53944E+04 -6.37396E+04  1.82508E+03 -5.75194E+04 -4.26575E+04
 -1.26201E+04 -6.34742E+04  3.95809E+04 -4.51651E+04  5.89856E+04 -2.84552E+03  3.46208E+04  3.24241E+04
 -5.95250E+03  3.58356E+04 -3.03443E+04  1.64540E+04 -3.09761E+04 -3.97327E+03 -1.70126E+04 -1.11992E+04
 -8.47093E+03 -1.35942E+04 -1.06818E+03 -1.81123E+04  7.74013E+03 -2.33743E+04  1.56444E+04 -1.28783E+04
  1.17923E+04  5.20204E+03 -8.64736E+03  1.31125E+04 -2.17293E+04 -4.87281E+03 -8.48043E+03 -3.40456E+04
  2.25767E+04 -4.34864E+04  4.87534E+04 -2.02954E+04  4.53008E+04  1.91440E+04  1.59595E+04  4.40952E+04
 -1.58961E+04  3.33339E+04 -2.50789E+04  1.72965E+03 -9.57617E+03 -2.77718E+04  2.12407E+04 -3.28064E+04
  4.13294E+04 -9.35895E+03  3.56947E+04  2.38697E+04  1.82497E+04  4.72699E+04 -7.97385E+03  5.03507E+04
 -3.15814E+04  3.41512E+04 -4.23600E+04  9.88250E+03 -4.31070E+04 -1.67040E+04 -2.38095E+04 -3.81354E+04
  8.03732E+03 -3.80136E+04  3.18409E+04 -1.50828E+04  2.94479E+04  1.06947E+04  4.53362E+03  1.95925E+04
 -1.43840E+04  8.32287E+03 -1.03150E+04 -7.52828E+03  5.54772E+03 -1.07670E+04  1.75416E+04  5.46567E+03
  1.27512E+04  2.19145E+04 -6.56461E+03  2.43789E+04 -2.21898E+04  1.19166E+04 -2.82670E+04 -4.91207E+03
 -2.10278E+04 -1.74721E+04 -9.38753E+03 -2.02586E+04  4.02219E+03 -2.01353E+04  1.54947E+04 -1.84555E+04
  2.61857E+04 -1.33116E+04  3.24049E+04  2.66987E+03  2.44529E+04  1.99661E+04  4.33162E+03  3.61191E+04
 -1.85344E+04  3.06666E+04 -2.76306E+04  1.06454E+04 -2.11566E+04 -9.87435E+03 -4.51936E+03 -1.29096E+04
  2.16533E+03 -2.91159E+03 -5.42197E+03  6.41192E+03 -1.69149E+04  5.80644E+03 -1.61468E+04 -6.70016E+03
 -1.10920E+04 -1.87653E+04  5.30838E+03 -2.33885E+04  1.53498E+04 -1.69232E+04  1.84812E+04 -1.67853E+03
  1.17373E+04  1.31960E+04 -1.89313E+03  1.92059E+04 -1.30869E+04  1.04299E+04 -1.95220E+04 -3.84917E+03
 -1.37683E+04 -1.74895E+04 -2.00865E+03 -2.31953E+04  1.02084E+04 -1.90750E+04  1.90718E+04 -8.23639E+03
  1.74044E+04 -1.73588E+01  1.29436E+04  3.92485E+03  7.08800E+03  8.39690E+02  1.00463E+04 -2.14034E+03
  1.72028E+04  2.70792E+03  1.89764E+04  1.54354E+04  1.29594E+04  3.04041E+04 -2.98620E+03  3.46392E+04
 -2.04835E+04  2.69737E+04 -3.22184E+04  1.37365E+04 -3.38501E+04 -2.38771E+03 -2.76452E+04 -1.93570E+04
 -1.21462E+04 -2.76188E+04  9.88771E+03 -2.50609E+04  2.12362E+04 -1.28193E+04  1.94935E+04  5.74191E+03
  7.02831E+03  1.47991E+04 -9.10278E+03  1.27361E+04 -1.65991E+04  3.17095E+03 -1.24792E+04 -1.07861E+04
 -3.33551E+02 -1.59132E+04  7.89650E+03 -1.20343E+04  1.02809E+04 -1.34583E+03  2.11128E+03  6.66777E+03
 -6.52453E+03  2.18063E+03 -5.66474E+03 -6.20973E+03 -3.47844E+02 -1.40724E+04  9.43583E+03 -1.48433E+04
  1.69895E+04 -8.31373E+03  1.83593E+04  3.08243E+03  1.53140E+04  1.37409E+04  7.39655E+03  2.02466E+04
 -2.92751E+03  2.23501E+04 -1.41545E+04  1.36870E+04 -1.64422E+04  3.75900E+03 -1.10608E+04 -3.66509E+03
 -5.27196E+03 -4.94283E+03 -9.07986E+02  9.12414E+02 -2.86586E+03  3.12512E+03 -4.99857E+03  4.38871E+03
 -1.17898E+04 -5.14845E+02 -1.12064E+04 -8.61680E+03 -4.73204E+03 -1.46877E+04  4.27676E+03 -1.18056E+04
  9.09557E+03 -4.60029E+03  6.40408E+03  3.01809E+03  1.99405E+02  4.32223E+03 -5.91013E+03 -5.50960E+02
 -5.18086E+03 -7.19593E+03 -3.68099E+02 -1.14519E+04  5.72374E+03 -1.14154E+04  1.44537E+04 -5.60914E+03
  1.68548E+04  1.15663E+03  1.25018E+04  9.44637E+03  2.09506E+03  1.33554E+04 -6.74530E+03  1.19475E+04
 -9.42135E+03  2.95347E+03 -4.95879E+03 -2.36267E+03  1.35018E+03 -2.55887E+03  6.25632E+03 -1.33765E+03
  5.05883E+03  5.05431E+03  1.10227E+03  8.66187E+03 -6.06254E+03  7.88433E+03 -1.05407E+04  2.22404E+03
 -7.03856E+03 -5.49837E+03  5.19518E+02 -9.78896E+03  6.30179E+03 -4.58781E+03  6.35809E+03  2.04295E+03
  6.20517E+02  6.03459E+03 -5.49140E+03  7.64471E+03 -8.27834E+03  3.24233E+03 -8.20185E+03 -2.58710E+03
 -5.10287E+03 -1.00874E+04  2.15939E+03 -1.09085E+04  1.01468E+04 -7.25354E+03  1.02370E+04  1.46859E+03
  6.82487E+03  8.19766E+03 -5.95594E+02  1.07814E+04 -7.78947E+03  6.54793E+03 -8.28915E+03 -1.07778E+03
 -7.41712E+03 -6.89379E+03 -2.08076E+03 -7.84787E+03  3.78345E+03 -6.77669E+03  4.80621E+03 -3.31607E+03
  2.96259E+03  1.12257E+03 -7.24859E+02  1.65557E+03  8.34091E+01 -1.59610E+03  1.64260E+03 -5.02093E+03
  6.55852E+03 -2.23171E+03  9.27225E+03  7.09343E+02  9.17741E+03  6.31104E+03  6.74545E+03  1.24240E+04
 -3.42738E+03  1.40341E+04 -1.23398E+04  1.04811E+04 -1.56147E+04  2.31934E+03 -1.30267E+04 -5.30562E+03
 -6.95581E+03 -1.03833E+04 -1.64677E+02 -8.59488E+03  2.97375E+03 -4.33260E+03  3.12025E+03 -3.21531E+03
  2.30254E+03 -2.22133E+03  3.01429E+03 -3.97152E+03  4.36015E+03 -2.04598E+03  5.18025E+03 -8.69987E+02
  7.10593E+03  1.73972E+03  3.49671E+03  5.45060E+03 -1.22432E+03  5.74898E+03 -6.84924E+03  5.27099E+03
 -9.65104E+03 -8.67589E+02 -5.06643E+03 -6.26232E+03 -3.81590E+02 -9.21206E+03  5.40159E+03 -9.12894E+03
  9.17270E+03 -5.48265E+03  1.13580E+04  1.41172E+03  7.85230E+03  7.66141E+03  1.52592E+03  1.08828E+04
 -3.89087E+03  9.14488E+03 -5.80001E+03  3.35126E+03 -3.70848E+03 -1.89261E+03 -1.53211E+03 -1.11558E+03
 -7.31818E+02  3.83660E+02 -7.90496E+02  2.38116E+03 -3.95618E+03  1.08994E+03 -6.01508E+03 -8.45750E+02
 -3.95073E+03 -6.15512E+03 -1.15697E+02 -8.19442E+03  5.14812E+03 -7.70088E+03  8.09364E+03 -3.27308E+03
  7.04544E+03  4.05260E+03  3.86488E+03  7.44404E+03 -1.24384E+03  8.46186E+03 -5.81808E+03  5.05268E+03
 -7.31251E+03  5.25109E+02 -5.44625E+03 -4.86668E+03 -4.30931E+02 -6.68251E+03  3.12392E+03 -5.03963E+03
  5.08269E+03 -1.43670E+03  3.60555E+03  1.31772E+03  1.26373E+03  2.73778E+03  1.08946E+03  1.07346E+03
  2.30684E+03  1.16292E+03  2.14316E+03  1.69219E+03  1.44501E+03  3.40185E+03  2.58511E+03  4.25703E+03
 -1.70723E+03  6.46056E+03 -4.79026E+03  6.81411E+03 -7.38737E+03  2.05916E+03 -8.63495E+03 -2.25529E+03
 -3.91676E+03 -7.87062E+03  1.36285E+03 -8.94801E+03  3.86749E+03 -5.14783E+03  6.09430E+03 -9.59770E+02
  4.64826E+03  2.59379E+03  1.22676E+03  4.33234E+03 -2.20238E+03  2.86041E+03 -2.63762E+03 -8.08465E+02
 -9.47033E+02 -3.47359E+03  1.46223E+03 -3.82766E+03  2.75856E+03 -1.83917E+03  2.84517E+03  7.13470E+02
  1.42675E+03  1.46273E+03  8.29583E+02  4.78443E+02 -4.15958E+02  1.13320E+03  1.24052E+03 -5.44558E+02
  5.90735E+02 -9.28539E+02  3.53451E+03  2.29290E+03  1.49867E+03  4.10194E+03  1.23137E+02  5.66379E+03
 -3.93836E+03  2.67902E+03 -4.75615E+03  6.78643E+02 -3.75520E+03 -1.47839E+03 -1.02407E+03 -1.85920E+03
  4.15022E+02 -3.14848E+03  2.06547E+03 -1.39381E+03  1.64086E+03  1.41271E+03 -1.03491E+03  2.33190E+03
 -2.21262E+03  1.15303E+03 -2.39141E+03 -1.95088E+03 -1.38650E+03 -4.25833E+03  3.47959E+02 -3.64680E+03
  1.96050E+03 -1.63671E+03  2.35052E+03 -2.13548E+02  2.51441E+03  1.22301E+02  8.97956E+02  3.30750E+03
 -8.19198E+02  5.64056E+02 -2.14337E+03 -6.94135E+02  7.95101E+02 -2.54701E+03  3.05806E+03 -2.27700E+03
  3.55353E+03  2.85419E+02  5.34742E+03  2.00300E+03  1.83526E+03  4.49561E+03 -1.81506E+03  3.88698E+03
 -2.91130E+03  1.63498E+03 -3.85730E+03 -4.65931E+02 -1.72804E+03 -2.12390E+03  6.40087E+02 -2.27120E+03
  2.58449E+03 -1.26525E+03  2.06322E+03  1.05174E+03  5.58050E+02  2.83827E+03 -3.48994E+02  2.07768E+03
 -6.54815E+02  7.65506E+02 -1.45893E+03  6.62546E+02 -9.57912E+02  4.72916E+02 -1.70524E+03  7.56601E+02
 -1.38832E+03  2.65330E+03 -3.89605E+03  1.55655E+03 -4.10168E+03  3.11309E+02 -4.83688E+03 -2.16190E+03
 -2.34299E+03 -5.48800E+03  1.14455E+03 -6.39442E+03  4.03079E+03 -5.39356E+03  6.67413E+03 -2.10181E+03
  5.86639E+03  7.05140E+02  2.94261E+03  3.56109E+03 -1.38098E+02  4.05989E+03 -1.77063E+03  3.66051E+03
 -3.11758E+03  1.56070E+03 -1.19198E+03 -1.45641E+03 -4.48836E+02  2.52319E+01 -7.85906E+01  6.32438E+02
 -1.81295E+03 -1.34502E+02 -1.70283E+03 -1.52772E+02 -1.54442E+02 -1.32061E+03  5.39266E+02 -1.31201E+03
  2.18892E+03 -1.26009E+03  2.08948E+03  3.42512E+02  3.09291E+03  1.96935E+03 -1.84219E+01  4.21225E+03
 -1.72127E+03  5.38696E+03 -4.10698E+03  3.22111E+03 -5.03076E+03 -3.49323E+02 -3.67592E+03 -2.75749E+03
 -1.93264E+03 -4.04721E+03  1.18703E+03 -4.08206E+03  2.50458E+03 -1.91368E+03  2.44557E+03 -9.46042E+01
  1.35665E+03  1.03449E+03 -5.73112E+02  1.50919E+03 -1.03328E+03 -4.32403E+02 -7.32041E+01 -9.54052E+02
  1.51159E+03 -3.76120E+02  1.66450E+03  1.73037E+03  7.42983E+02  1.59078E+03  4.14444E+02  1.96058E+03
 -2.28682E+03  1.75338E+03 -1.85508E+03  2.32753E+02 -1.87989E+03 -1.24561E+03 -2.25270E+02 -2.61499E+03
  1.47440E+03 -2.39135E+03  2.34094E+03 -1.24112E+03  2.42192E+03  3.98875E+02  1.10464E+03  2.16561E+03
  1.46764E+03  1.97549E+03 -1.04017E+03  1.92054E+03 -1.19162E+03  1.35876E+03 -1.51075E+03  7.89917E+01
 -8.16807E+02  3.13140E+02 -1.23142E+03  2.78012E+02 -1.26054E+03  2.94047E+02 -1.91438E+03 -1.31508E+03
 -1.50827E+03 -1.20024E+03 -6.51109E+02 -2.57345E+03  1.49157E+03 -2.85093E+03  2.02446E+03 -8.88863E+02
  2.34976E+03 -4.31042E+02  4.12554E+02  1.56954E+03 -2.30796E+02  2.66494E+03 -1.66216E+03  9.87427E+02
