 $NMID ID='MM_0lb_SNR400_11hz_g40_18.RAW', FMTDAT='(8E13.5)'
 TRAMP=1., VOLUME=1. $END
  3.10407E+05  9.71965E+01  3.37742E+05  2.50697E+05  8.48948E+04  3.38291E+05 -1.31787E+05  2.51639E+05
 -1.90332E+05  8.33442E+04 -1.11963E+05 -3.26803E+04  4.72348E+02 -5.04940E+04  5.36965E+04 -1.32013E+02
  3.56794E+04  5.26872E+04 -1.62841E+04  7.51352E+04 -6.07767E+04  6.39974E+04 -8.45531E+04  3.23111E+04
 -8.15114E+04 -1.18046E+04 -5.69871E+04 -5.19326E+04 -1.49351E+04 -7.06293E+04  2.83034E+04 -4.56878E+04
  4.13519E+04  4.22939E+03  1.70806E+04  4.77453E+04 -3.44112E+04  4.75138E+04 -6.72859E+04  6.36563E+02
 -5.40158E+04 -5.78239E+04 -6.93352E+03 -7.76310E+04  3.46295E+04 -5.59362E+04  4.85632E+04 -1.74356E+04
  4.47851E+04  1.11222E+04  3.20631E+04  2.65130E+04  1.63351E+04  2.97071E+04 -5.25001E+03  2.72989E+04
 -2.21386E+04  1.28249E+04 -1.84298E+04 -5.83139E+03  5.81437E+03 -7.03492E+03  2.30220E+04  1.30030E+04
  7.02105E+03  3.61217E+04 -3.28923E+04  3.64775E+04 -6.45549E+04  2.19943E+03 -5.81639E+04 -4.37748E+04
 -1.25974E+04 -6.46701E+04  4.05965E+04 -4.57697E+04  5.98157E+04 -2.06375E+03  3.54725E+04  3.35228E+04
 -6.00713E+03  3.74473E+04 -3.08915E+04  1.70005E+04 -3.14146E+04 -3.79551E+03 -1.78993E+04 -1.11935E+04
 -8.88523E+03 -1.39336E+04 -3.62330E+02 -1.84649E+04  6.84053E+03 -2.32472E+04  1.54717E+04 -1.27259E+04
  1.06470E+04  5.61504E+03 -9.20089E+03  1.28474E+04 -2.26668E+04 -4.91607E+03 -8.39156E+03 -3.51029E+04
  2.35888E+04 -4.41771E+04  5.00490E+04 -2.02868E+04  4.65184E+04  1.97844E+04  1.60960E+04  4.51170E+04
 -1.58483E+04  3.48197E+04 -2.64598E+04  2.14939E+03 -1.08750E+04 -2.83514E+04  2.11752E+04 -3.57739E+04
  4.20717E+04 -9.25881E+03  3.71327E+04  2.43662E+04  1.93819E+04  4.82157E+04 -8.30681E+03  5.18717E+04
 -3.31582E+04  3.54909E+04 -4.45339E+04  1.07522E+04 -4.46530E+04 -1.71901E+04 -2.44685E+04 -3.91471E+04
  7.53389E+03 -3.89245E+04  3.24248E+04 -1.58288E+04  3.05077E+04  1.18279E+04  4.35178E+03  1.95357E+04
 -1.39606E+04  9.39206E+03 -1.09698E+04 -7.79361E+03  5.94094E+03 -1.07045E+04  1.76631E+04  5.82714E+03
  1.41370E+04  2.19273E+04 -5.53835E+03  2.62770E+04 -2.27064E+04  1.23723E+04 -3.00021E+04 -4.64181E+03
 -2.20520E+04 -1.76617E+04 -1.05727E+04 -2.17180E+04  3.54680E+03 -2.19306E+04  1.71724E+04 -2.05049E+04
  2.85703E+04 -1.35401E+04  3.48031E+04  3.93087E+03  2.53489E+04  2.20422E+04  3.37394E+03  3.82925E+04
 -1.87976E+04  3.19311E+04 -2.93666E+04  1.05240E+04 -2.14473E+04 -1.04928E+04 -4.20023E+03 -1.30823E+04
  1.39856E+03 -2.31443E+03 -5.32836E+03  6.88180E+03 -1.72340E+04  4.97247E+03 -1.73095E+04 -7.94888E+03
 -1.03027E+04 -2.07888E+04  5.60801E+03 -2.48145E+04  1.72981E+04 -1.75098E+04  2.01635E+04 -1.70284E+03
  1.27808E+04  1.44479E+04 -1.38245E+03  2.02297E+04 -1.42130E+04  1.21924E+04 -2.08717E+04 -4.47520E+03
 -1.50724E+04 -1.86155E+04 -2.21199E+03 -2.47323E+04  1.14350E+04 -2.11742E+04  2.13333E+04 -1.03429E+04
  1.97859E+04  1.11623E+02  1.38459E+04  5.06127E+03  7.56828E+03  6.07630E+02  1.04689E+04 -2.07871E+03
  2.00090E+04  2.85244E+03  2.19280E+04  1.60578E+04  1.46689E+04  3.29149E+04 -3.22578E+03  3.83481E+04
 -2.19680E+04  3.16789E+04 -3.58267E+04  1.58795E+04 -3.79953E+04 -1.88260E+03 -3.11201E+04 -2.17540E+04
 -1.29418E+04 -3.19640E+04  1.11955E+04 -2.80672E+04  2.41281E+04 -1.32713E+04  2.11710E+04  6.33870E+03
  7.58866E+03  1.56332E+04 -9.59510E+03  1.35937E+04 -1.83849E+04  1.83380E+03 -1.35937E+04 -1.13302E+04
 -1.70173E+02 -1.72089E+04  9.33740E+03 -1.31074E+04  1.13406E+04 -1.33942E+03  3.14095E+03  7.82647E+03
 -7.29866E+03  3.27774E+03 -7.46739E+03 -6.69289E+03 -1.14073E+03 -1.49510E+04  1.08938E+04 -1.60495E+04
  1.91776E+04 -9.56153E+03  2.14739E+04  2.76012E+03  1.87261E+04  1.48988E+04  8.75283E+03  2.33278E+04
 -4.35500E+03  2.55763E+04 -1.63024E+04  1.59048E+04 -1.89978E+04  3.20691E+03 -1.22155E+04 -4.20388E+03
 -5.73831E+03 -5.94914E+03 -5.09953E+02  1.33231E+03 -3.10988E+03  2.71503E+03 -5.91878E+03  5.23025E+03
 -1.18551E+04 -9.41210E+02 -1.26332E+04 -1.05465E+04 -5.60444E+03 -1.62404E+04  4.95221E+03 -1.27892E+04
  1.09517E+04 -5.77100E+03  8.10730E+03  3.73525E+03  1.93440E+02  5.31386E+03 -5.89242E+03 -5.16408E+02
 -5.71775E+03 -8.46068E+03 -1.07232E+03 -1.31593E+04  7.01829E+03 -1.31278E+04  1.65168E+04 -6.96750E+03
  1.96343E+04  9.36723E+02  1.40169E+04  1.11868E+04  3.09474E+03  1.54420E+04 -7.76144E+03  1.26525E+04
 -1.04388E+04  3.61535E+03 -5.23742E+03 -2.81880E+03  2.25068E+03 -3.59674E+03  7.18362E+03 -1.05821E+03
  6.02772E+03  6.67220E+03  1.66835E+03  1.01217E+04 -7.02808E+03  9.85556E+03 -1.24836E+04  2.63141E+03
 -8.46855E+03 -6.41358E+03 -1.10339E+02 -1.14537E+04  6.73129E+03 -5.81239E+03  7.52934E+03  2.52401E+03
  1.39126E+03  7.90347E+03 -6.72182E+03  9.58794E+03 -1.07176E+04  4.09161E+03 -1.06956E+04 -3.88789E+03
 -6.23077E+03 -1.20085E+04  3.32549E+03 -1.43464E+04  1.21271E+04 -8.51405E+03  1.29495E+04  2.39517E+03
  7.67314E+03  1.03693E+04 -1.38435E+03  1.24456E+04 -9.47757E+03  7.25960E+03 -1.02599E+04 -8.73496E+02
 -8.74327E+03 -8.66754E+03 -1.77842E+03 -8.94531E+03  5.07782E+03 -7.94430E+03  6.00343E+03 -3.58664E+03
  4.34559E+03  1.19329E+03 -8.10478E+02  1.43136E+03 -2.88078E+02 -2.98549E+03  2.67291E+03 -5.64603E+03
  8.29515E+03 -3.21741E+03  1.25576E+04  8.72227E+02  1.25840E+04  8.70938E+03  8.56302E+03  1.61018E+04
 -3.54880E+03  1.84348E+04 -1.59072E+04  1.43658E+04 -2.02095E+04  2.21105E+03 -1.62269E+04 -6.22397E+03
 -8.41679E+03 -1.37131E+04  6.11155E+02 -1.09950E+04  3.59049E+03 -6.19538E+03  4.57926E+03 -4.62999E+03
  2.98673E+03 -2.60560E+03  3.03433E+03 -3.63059E+03  3.96244E+03 -2.99823E+03  6.22429E+03 -4.74701E+02
  8.03783E+03  2.10888E+03  3.97358E+03  7.98243E+03 -1.47464E+03  8.28758E+03 -8.53160E+03  6.23895E+03
 -1.08558E+04 -1.01748E+03 -6.93132E+03 -7.56382E+03 -4.61695E+02 -1.13843E+04  6.22723E+03 -1.22421E+04
  1.27961E+04 -6.87352E+03  1.49540E+04  2.29172E+03  9.82468E+03  1.02301E+04  1.73056E+03  1.32980E+04
 -5.45209E+03  1.15254E+04 -6.96068E+03  3.71692E+03 -5.47400E+03 -1.00624E+03 -2.25767E+03 -2.04774E+03
 -1.17227E+03  5.57330E+02 -1.49636E+03  2.85074E+03 -5.04448E+03  1.95543E+03 -7.84118E+03 -8.07507E+02
 -5.36627E+03 -8.37811E+03  8.49592E+02 -1.06434E+04  7.09840E+03 -1.04225E+04  1.03509E+04 -2.71192E+03
  1.08115E+04  5.83297E+03  4.31679E+03  9.43404E+03 -1.51318E+03  1.11774E+04 -7.59954E+03  7.00889E+03
 -1.07473E+04  1.95871E+01 -7.76431E+03 -6.85748E+03 -6.66927E+02 -8.52076E+03  4.98376E+03 -7.02471E+03
  7.05756E+03 -1.57453E+03  5.13992E+03  1.79382E+03  2.42335E+03  4.02465E+03  1.77400E+03  1.28420E+03
  2.15522E+03  1.66303E+03  2.09876E+03  1.29416E+03  3.17878E+03  3.58177E+03  3.00908E+03  5.86630E+03
 -2.80889E+03  8.38098E+03 -7.33625E+03  8.77361E+03 -1.06499E+04  2.35087E+03 -1.10637E+04 -4.04815E+03
 -5.76541E+03 -1.16458E+04  1.57040E+03 -1.23019E+04  6.29888E+03 -7.88030E+03  8.89453E+03 -2.03085E+03
  7.13283E+03  4.61613E+03  1.72990E+03  5.96600E+03 -3.41493E+03  3.84142E+03 -4.27475E+03 -3.98075E+02
 -1.64808E+03 -4.89762E+03  2.93363E+03 -3.70725E+03  4.66116E+03 -2.90271E+03  4.50156E+03  4.96129E+02
  2.04704E+03  2.16969E+03  1.35357E+03  1.67404E+03 -1.30391E+03  1.57683E+03  1.19148E+03 -7.64108E+02
  1.53645E+03 -1.91104E+02  4.31939E+03  1.97540E+03  2.34463E+03  5.67984E+03 -8.91674E+02  7.47468E+03
 -5.24792E+03  4.83572E+03 -6.58279E+03  8.24778E+02 -5.45264E+03 -2.87195E+03 -2.50735E+03 -4.30290E+03
  5.89416E+02 -4.40184E+03  2.91620E+03 -2.45485E+03  2.68726E+03  2.92182E+03 -1.70711E+03  4.07582E+03
 -4.46760E+03  2.37902E+03 -5.29311E+03 -2.62612E+03 -2.53519E+03 -5.63576E+03  1.11111E+03 -5.31168E+03
  3.94340E+03 -3.02334E+03  3.77153E+03 -5.79643E+02  3.32333E+03  1.23381E+03  1.74455E+02  3.11364E+03
 -1.46779E+03  9.02265E+02 -2.62717E+03 -2.30968E+03  1.28969E+03 -4.17380E+03  4.99101E+03 -3.50462E+03
  7.18490E+03  6.44850E+02  6.63940E+03  4.54408E+03  2.32227E+03  6.95211E+03 -2.74525E+03  6.82211E+03
 -4.48414E+03  2.90713E+03 -5.54402E+03 -7.76876E+02 -3.47816E+03 -4.61077E+03  1.17933E+03 -3.70095E+03
  4.07516E+03 -1.87495E+03  3.71376E+03  2.29078E+03  1.33038E+03  3.25747E+03 -4.72789E+02  3.06206E+03
 -1.05321E+03  2.36491E+03 -1.53883E+03  3.25586E+02 -1.96259E+02  1.34496E+03 -8.62045E+02  1.57804E+03
 -1.89446E+03  2.66011E+03 -4.62561E+03  2.26121E+03 -6.31613E+03  2.32189E+02 -8.29869E+03 -3.99084E+03
 -3.75625E+03 -9.30242E+03  2.01584E+03 -1.02064E+04  5.69995E+03 -8.36399E+03  9.54026E+03 -3.45176E+03
  8.80955E+03  1.15139E+03  5.75625E+03  5.74756E+03  3.10912E+02  6.86143E+03 -2.79561E+03  4.95440E+03
 -4.05047E+03  1.60209E+03 -2.53475E+03 -1.64081E+03 -3.56545E+02  3.12881E+02 -9.00691E+02  3.64399E+02
 -2.12075E+03  1.61127E+02 -1.99379E+03 -9.93834E+02 -1.70399E+03 -2.05279E+03  1.37521E+02 -2.63385E+03
  2.95544E+03 -2.07303E+03  3.67868E+03 -3.12074E+02  4.53558E+03  3.99979E+03  1.04753E+03  6.87063E+03
 -3.50386E+03  7.75093E+03 -7.09751E+03  5.40546E+03 -8.06560E+03 -1.17917E+03 -5.73107E+03 -5.17856E+03
 -2.74571E+03 -6.72182E+03  1.81913E+03 -5.72495E+03  3.93978E+03 -2.99747E+03  4.12205E+03  8.88159E+02
  2.34722E+03  2.17500E+03 -5.84846E+02  1.59815E+03 -1.25000E+03  2.09589E+02  9.23952E+02 -1.10796E+03
  1.01953E+03 -2.64535E+02  3.42638E+03  1.06129E+03  1.48117E+03  2.67813E+03 -5.38476E+01  3.07720E+03
 -2.71878E+03  3.18961E+03 -4.49871E+03  1.07211E+02 -4.79136E+03 -3.98031E+03  5.07246E+01 -5.55190E+03
  3.48500E+03 -5.20762E+03  4.49559E+03 -1.38885E+03  5.66816E+03  9.77495E+02  3.04925E+03  4.05217E+03
  9.66243E+02  4.75727E+03 -1.37585E+03  3.76070E+03 -2.09605E+03  1.99377E+03 -2.90126E+03  3.53034E+02
 -1.30074E+03 -3.51998E+02 -1.47394E+03  2.58467E+02 -2.23535E+03  1.12835E+03 -3.55316E+03 -1.28284E+03
 -3.50229E+03 -1.82957E+03 -2.99510E+02 -3.93433E+03  2.42698E+03 -5.22005E+03  4.53314E+03 -2.26169E+03
  3.77125E+03  1.21460E+03  2.37643E+03  3.18713E+03 -6.79262E+02  4.39749E+03 -3.26403E+03  3.21250E+03
