 $NMID ID='MM_0lb_SNR400_13hz_g45_25.RAW', FMTDAT='(8E13.5)'
 TRAMP=1., VOLUME=1. $END
  3.09329E+05 -7.37436E+00  3.37991E+05  2.50024E+05  8.47669E+04  3.37889E+05 -1.33204E+05  2.50864E+05
 -1.90096E+05  8.37614E+04 -1.11908E+05 -3.26559E+04  3.84159E+02 -5.00415E+04  5.45763E+04 -1.72625E+02
  3.58756E+04  5.25115E+04 -1.72761E+04  7.62300E+04 -6.08421E+04  6.29683E+04 -8.43690E+04  3.21860E+04
 -8.12811E+04 -1.14412E+04 -5.73760E+04 -5.12617E+04 -1.49773E+04 -6.95453E+04  2.76205E+04 -4.59890E+04
  4.02554E+04  3.99401E+03  1.60639E+04  4.80980E+04 -3.43739E+04  4.76862E+04 -6.67505E+04  3.72721E+02
 -5.35638E+04 -5.65464E+04 -6.37642E+03 -7.69608E+04  3.32226E+04 -5.50476E+04  4.80088E+04 -1.75356E+04
  4.32527E+04  1.11625E+04  3.15713E+04  2.62536E+04  1.56815E+04  2.91512E+04 -5.10147E+03  2.75870E+04
 -2.20902E+04  1.23909E+04 -1.91707E+04 -5.44186E+03  5.81135E+03 -7.22618E+03  2.23136E+04  1.24197E+04
  7.01675E+03  3.57355E+04 -3.18631E+04  3.59713E+04 -6.33905E+04  2.31789E+03 -5.76629E+04 -4.24277E+04
 -1.22269E+04 -6.34700E+04  4.03719E+04 -4.54413E+04  5.85182E+04 -2.19373E+03  3.45712E+04  3.31866E+04
 -6.23905E+03  3.59029E+04 -3.01395E+04  1.65069E+04 -3.06879E+04 -4.39699E+03 -1.68763E+04 -1.08269E+04
 -8.34164E+03 -1.30371E+04 -9.33222E+02 -1.84508E+04  7.94649E+03 -2.32492E+04  1.56229E+04 -1.31730E+04
  1.10951E+04  5.07212E+03 -8.10673E+03  1.33624E+04 -2.13931E+04 -4.09527E+03 -8.27009E+03 -3.46056E+04
  2.32552E+04 -4.33744E+04  4.87833E+04 -2.02589E+04  4.51162E+04  2.01999E+04  1.58858E+04  4.39934E+04
 -1.54909E+04  3.38502E+04 -2.59903E+04  2.09903E+03 -1.02634E+04 -2.75880E+04  2.06068E+04 -3.40764E+04
  4.12159E+04 -9.03404E+03  3.57513E+04  2.40453E+04  1.82142E+04  4.68671E+04 -7.84148E+03  5.08112E+04
 -3.15327E+04  3.42241E+04 -4.21734E+04  9.47502E+03 -4.33893E+04 -1.68095E+04 -2.39262E+04 -3.87591E+04
  7.13765E+03 -3.85098E+04  3.19511E+04 -1.49007E+04  2.96385E+04  1.08903E+04  4.28043E+03  1.95193E+04
 -1.37500E+04  9.13151E+03 -1.08228E+04 -8.07863E+03  6.20282E+03 -1.07334E+04  1.82454E+04  6.35118E+03
  1.42138E+04  2.17192E+04 -6.22543E+03  2.60607E+04 -2.21975E+04  1.14448E+04 -2.87870E+04 -4.52293E+03
 -2.10692E+04 -1.73676E+04 -8.88206E+03 -2.06923E+04  4.40526E+03 -2.02662E+04  1.69899E+04 -1.88897E+04
  2.71693E+04 -1.31595E+04  3.28933E+04  3.61499E+03  2.40622E+04  2.04227E+04  4.11884E+03  3.70280E+04
 -1.82708E+04  3.09038E+04 -2.81398E+04  1.17540E+04 -2.05428E+04 -1.09962E+04 -4.40954E+03 -1.31949E+04
  1.68569E+03 -2.57987E+03 -4.94939E+03  6.69322E+03 -1.71668E+04  4.71630E+03 -1.66369E+04 -6.99569E+03
 -1.04750E+04 -1.90235E+04  5.14926E+03 -2.30918E+04  1.53470E+04 -1.75912E+04  1.85088E+04 -2.26311E+03
  1.20758E+04  1.35978E+04 -1.96983E+03  1.96700E+04 -1.36254E+04  1.13785E+04 -1.95187E+04 -4.21595E+03
 -1.41464E+04 -1.71402E+04 -1.77458E+03 -2.33101E+04  1.00188E+04 -1.95537E+04  1.98035E+04 -9.75881E+03
  1.88935E+04  4.77047E+02  1.35868E+04  3.98588E+03  7.12607E+03  1.04502E+03  1.03058E+04 -1.32113E+03
  1.76049E+04  2.73499E+03  1.97466E+04  1.54925E+04  1.36355E+04  3.09978E+04 -3.04921E+03  3.48666E+04
 -2.05656E+04  2.79934E+04 -3.25980E+04  1.40701E+04 -3.44597E+04 -3.04885E+03 -2.90371E+04 -2.07191E+04
 -1.20212E+04 -2.86037E+04  1.01104E+04 -2.54271E+04  2.24010E+04 -1.29423E+04  1.89655E+04  5.54198E+03
  7.09256E+03  1.54889E+04 -9.48228E+03  1.27631E+04 -1.62628E+04  2.70280E+03 -1.30582E+04 -1.09366E+04
 -8.45394E+02 -1.54985E+04  8.74358E+03 -1.14230E+04  1.05981E+04 -1.38919E+03  2.63445E+03  6.44646E+03
 -6.99001E+03  3.15846E+03 -6.16628E+03 -5.83478E+03 -3.71584E+02 -1.45299E+04  9.51256E+03 -1.52525E+04
  1.73294E+04 -7.77210E+03  1.95619E+04  2.62445E+03  1.66046E+04  1.38803E+04  7.88843E+03  2.15670E+04
 -3.98277E+03  2.30672E+04 -1.42297E+04  1.40062E+04 -1.64414E+04  3.19585E+03 -1.16138E+04 -3.46344E+03
 -4.75062E+03 -4.72964E+03 -8.28063E+02  1.34938E+03 -1.99228E+03  2.65171E+03 -5.36572E+03  4.25998E+03
 -1.12074E+04  7.36530E+01 -1.15010E+04 -9.50556E+03 -4.60671E+03 -1.56877E+04  4.85610E+03 -1.22280E+04
  1.01340E+04 -5.39801E+03  7.29215E+03  3.15957E+03 -1.95839E+02  4.47244E+03 -5.63235E+03 -5.48769E+02
 -5.40086E+03 -7.19041E+03 -1.60796E+03 -1.18541E+04  6.02010E+03 -1.16134E+04  1.43877E+04 -6.12795E+03
  1.73294E+04  1.21288E+03  1.24661E+04  1.00656E+04  2.01043E+03  1.33329E+04 -7.41415E+03  1.17446E+04
 -9.48435E+03  3.71279E+03 -5.12691E+03 -2.25121E+03  2.35698E+03 -2.78243E+03  6.22778E+03 -7.08617E+02
  6.03326E+03  4.81359E+03  1.66925E+03  9.36091E+03 -6.19513E+03  9.11851E+03 -1.14699E+04  2.21656E+03
 -7.71845E+03 -5.94850E+03  1.69697E+02 -9.37846E+03  5.91578E+03 -5.28941E+03  6.39065E+03  2.31405E+03
  1.96293E+03  6.58122E+03 -5.88319E+03  7.82717E+03 -8.58445E+03  3.46395E+03 -8.32782E+03 -3.50752E+03
 -5.33331E+03 -1.01127E+04  2.40635E+03 -1.17905E+04  1.10841E+04 -7.76093E+03  1.10668E+04  1.79615E+03
  7.68885E+03  9.03210E+03 -1.29781E+03  1.14285E+04 -7.66656E+03  7.11257E+03 -9.32204E+03 -2.76002E+02
 -8.45148E+03 -7.26790E+03 -1.06020E+03 -8.66863E+03  4.25425E+03 -6.65283E+03  5.29093E+03 -3.77166E+03
  3.76150E+03  9.50628E+02 -7.80667E+02  1.56600E+03 -5.20583E+01 -1.49493E+03  1.81333E+03 -4.61857E+03
  7.72845E+03 -2.18298E+03  1.02734E+04  6.99332E+02  1.02221E+04  6.67643E+03  7.80480E+03  1.30012E+04
 -3.27115E+03  1.54929E+04 -1.38895E+04  1.14297E+04 -1.70214E+04  2.56846E+03 -1.35223E+04 -5.77772E+03
 -7.27975E+03 -1.18021E+04 -7.99824E+02 -8.92623E+03  3.63058E+03 -4.65586E+03  2.79355E+03 -3.15104E+03
  2.08359E+03 -3.13968E+03  2.43945E+03 -3.64537E+03  4.57725E+03 -3.18844E+03  5.74889E+03 -3.76158E+02
  6.55368E+03  2.04500E+03  3.36674E+03  5.89859E+03 -2.05750E+03  6.60895E+03 -7.80354E+03  5.36723E+03
 -9.28790E+03 -1.13905E+03 -5.58792E+03 -6.21319E+03 -1.95690E+02 -9.56883E+03  5.22978E+03 -9.86641E+03
  9.97552E+03 -5.80224E+03  1.19271E+04  1.58506E+03  8.70098E+03  8.58489E+03  1.52361E+03  1.05669E+04
 -4.23377E+03  9.39981E+03 -6.64914E+03  2.85915E+03 -4.10296E+03 -1.06579E+03 -1.21645E+03 -1.10399E+03
 -7.95244E+02 -1.00962E+02 -1.25931E+03  1.89424E+03 -4.48064E+03  1.45458E+03 -6.70062E+03 -1.06328E+03
 -4.19724E+03 -6.87277E+03  2.96876E+01 -9.20212E+03  5.58969E+03 -8.42232E+03  8.61361E+03 -2.87457E+03
  8.06625E+03  4.55493E+03  4.15206E+03  7.50679E+03 -1.34987E+03  9.20165E+03 -6.20324E+03  5.49894E+03
 -8.25187E+03  3.93478E+02 -6.08581E+03 -5.60102E+03 -6.07024E+02 -7.45420E+03  4.31290E+03 -5.03542E+03
  5.70270E+03 -1.72700E+03  4.05592E+03  8.11793E+02  1.25438E+03  2.62260E+03  1.24543E+03  1.06780E+03
  2.83862E+03  5.58860E+02  2.27513E+03  1.96449E+03  2.55499E+03  2.67250E+03  2.66755E+03  3.80638E+03
 -2.06673E+03  6.06062E+03 -5.71835E+03  7.07250E+03 -7.93314E+03  2.32764E+03 -9.11882E+03 -3.24860E+03
 -3.95306E+03 -8.21037E+03  1.54598E+03 -9.15231E+03  5.62104E+03 -6.54419E+03  7.14590E+03 -2.71359E+03
  5.68080E+03  3.00836E+03  1.56743E+03  4.78083E+03 -1.93681E+03  2.89456E+03 -3.51175E+03 -1.54525E+03
 -1.18501E+03 -3.69640E+03  2.17433E+03 -3.40926E+03  3.14839E+03 -1.54442E+03  3.32470E+03  1.28892E+03
  2.20942E+03  1.71176E+03  9.20812E+02  5.79348E+02 -1.00315E+03  1.15845E+03  1.53745E+03 -1.53353E+02
  1.18667E+03 -6.30634E+02  3.25496E+03  1.02813E+03  8.01103E+02  4.54333E+03 -4.23182E+02  6.46197E+03
 -3.95857E+03  3.40243E+03 -5.00348E+03  8.51859E+02 -4.39295E+03 -1.77887E+03 -2.00628E+03 -2.56667E+03
  1.01621E+03 -3.09504E+03  3.02059E+03 -1.14998E+03  1.43796E+03  1.99439E+03 -7.30453E+02  3.47365E+03
 -3.64558E+03  1.66163E+03 -3.66249E+03 -2.64476E+03 -1.97957E+03 -4.60720E+03  4.02545E+02 -4.14145E+03
  2.80202E+03 -2.86714E+03  2.31466E+03  3.25899E+01  3.32830E+03  1.27106E+03 -1.14093E+02  2.70136E+03
 -1.32663E+03  2.81694E+02 -2.58200E+03 -1.22584E+03  9.71097E+02 -2.55578E+03  3.70826E+03 -1.96502E+03
  4.28658E+03  4.28160E+02  5.70836E+03  3.18841E+03  2.13205E+03  4.94161E+03 -1.43572E+03  5.15436E+03
 -3.92330E+03  2.24632E+03 -4.27744E+03 -5.20465E+02 -2.02287E+03 -3.45680E+03  1.44807E+03 -2.80175E+03
  3.44277E+03 -1.74619E+03  2.90528E+03  1.77189E+03  1.35479E+03  3.24561E+03 -2.71929E+02  3.01247E+03
 -1.44700E+03  1.89237E+03 -1.28906E+03  1.19387E+03 -5.11625E+02  5.05847E+02 -1.42927E+03  1.27420E+03
 -1.22336E+03  1.52679E+03 -3.37798E+03  1.35059E+03 -4.14083E+03 -2.98986E+02 -5.51446E+03 -3.96629E+03
 -2.80794E+03 -6.45814E+03  1.36557E+03 -7.40579E+03  3.81969E+03 -5.80461E+03  7.78753E+03 -2.19663E+03
  6.46986E+03  5.83956E+02  4.26241E+03  4.43283E+03 -1.45472E+02  4.18671E+03 -2.75530E+03  2.77492E+03
 -2.83447E+03  1.49431E+03 -1.79117E+03 -3.94442E+02 -9.27144E+02 -3.89862E+02 -7.25645E+02  2.48642E+02
 -1.14705E+03  4.66387E+02 -1.76349E+03  7.47530E+00 -1.79727E+02 -1.42627E+03 -4.61399E+02 -1.64629E+03
  2.34133E+03 -1.75527E+03  2.48076E+03  4.87864E+02  3.15153E+03  2.09576E+03  1.08319E+03  4.11814E+03
 -2.60553E+03  5.70054E+03 -5.16592E+03  3.33660E+03 -5.47074E+03 -2.17141E+02 -4.31476E+03 -3.73406E+03
 -2.16531E+03 -4.28534E+03  9.88477E+02 -4.82271E+03  2.34213E+03 -2.30700E+03  2.45651E+03  1.34676E+02
  2.36870E+03  1.29502E+03 -5.42275E+00  8.46059E+02 -1.16176E+03 -2.72987E+02 -3.74567E+02 -7.90380E+02
  9.14178E+02 -5.71357E+02  1.91783E+03  1.08272E+03  1.71503E+03  2.52053E+03 -1.40321E+02  1.91179E+03
 -2.19339E+03  1.69711E+03 -2.48722E+03  8.08662E+02 -2.58237E+03 -1.95814E+03 -5.72200E+02 -4.16974E+03
  2.82182E+03 -3.06251E+03  3.04273E+03 -9.84733E+02  3.54093E+03  5.84713E+02  2.77229E+03  2.99152E+03
  8.51602E+02  2.79591E+03 -1.32297E+03  3.02848E+03 -1.95299E+03  1.62517E+03 -1.03614E+03 -1.43447E+02
 -7.67365E+02 -2.66982E+02 -8.67021E+02  7.78577E+02 -2.19277E+03  7.48512E+02 -2.52595E+03 -4.30092E+02
 -2.97640E+03 -1.21585E+03 -1.13309E+03 -3.29800E+03  1.63668E+03 -4.05441E+03  2.81670E+03 -1.41863E+03
  2.18281E+03  9.74048E+02  7.47938E+02  1.83695E+03 -3.78902E+02  2.71114E+03 -1.84008E+03  1.50041E+03
