 $NMID ID='MM_0lb_SNR400_7hz_g55_63.RAW', FMTDAT='(8E13.5)'
 TRAMP=1., VOLUME=1. $END
  3.10450E+05 -2.69110E+02  3.38257E+05  2.50539E+05  8.47631E+04  3.38254E+05 -1.32697E+05  2.52075E+05
 -1.90486E+05  8.47986E+04 -1.12765E+05 -3.16895E+04  7.44311E+02 -4.99298E+04  5.36396E+04 -2.92046E+02
  3.64188E+04  5.27288E+04 -1.59787E+04  7.64826E+04 -6.19576E+04  6.49639E+04 -8.60460E+04  3.18652E+04
 -8.32327E+04 -1.32085E+04 -5.79653E+04 -5.37443E+04 -1.49853E+04 -7.13678E+04  2.85526E+04 -4.70594E+04
  4.12949E+04  4.20364E+03  1.64387E+04  4.86802E+04 -3.43569E+04  4.90162E+04 -6.88874E+04 -3.66053E+02
 -5.59582E+04 -5.82684E+04 -7.69088E+03 -8.07549E+04  3.42465E+04 -5.80610E+04  5.08387E+04 -1.83348E+04
  4.64987E+04  1.09842E+04  3.40133E+04  2.70550E+04  1.52120E+04  3.12161E+04 -5.32864E+03  2.75911E+04
 -2.31643E+04  1.17783E+04 -1.76082E+04 -5.60409E+03  8.14891E+03 -6.83354E+03  2.32824E+04  1.40110E+04
  6.45625E+03  3.85342E+04 -3.54406E+04  3.82470E+04 -6.75977E+04  2.33371E+03 -5.97371E+04 -4.50754E+04
 -1.36729E+04 -6.64927E+04  4.25069E+04 -4.85422E+04  6.29370E+04 -3.17118E+03  3.80522E+04  3.53509E+04
 -5.75082E+03  4.05124E+04 -3.29143E+04  2.01102E+04 -3.48635E+04 -2.88991E+03 -2.13725E+04 -1.23646E+04
 -1.03672E+04 -1.70470E+04  4.06178E+02 -2.06062E+04  8.37846E+03 -2.38140E+04  1.62215E+04 -1.12157E+04
  9.35176E+03  5.74813E+03 -1.17836E+04  1.31656E+04 -2.43821E+04 -8.55479E+03 -8.91572E+03 -3.91892E+04
  2.67976E+04 -4.80871E+04  5.46362E+04 -2.27655E+04  4.91377E+04  2.16602E+04  1.77867E+04  4.76047E+04
 -1.57227E+04  3.79963E+04 -2.94324E+04  2.98423E+03 -1.22589E+04 -3.02928E+04  2.23930E+04 -3.76960E+04
  4.62314E+04 -1.25757E+04  4.24891E+04  2.54601E+04  2.24786E+04  5.38124E+04 -8.14948E+03  5.85535E+04
 -3.63508E+04  4.13136E+04 -5.03899E+04  1.17444E+04 -5.03311E+04 -2.00533E+04 -2.73100E+04 -4.36158E+04
  8.05964E+03 -4.41362E+04  3.62044E+04 -1.88693E+04  3.34824E+04  1.14701E+04  6.09454E+03  2.17679E+04
 -1.43835E+04  1.09839E+04 -1.08799E+04 -7.50349E+03  4.94761E+03 -1.18083E+04  1.93197E+04  5.61462E+03
  1.62121E+04  2.26733E+04 -4.39535E+03  2.83009E+04 -2.41590E+04  1.53957E+04 -3.32152E+04 -2.18364E+03
 -2.73998E+04 -1.85335E+04 -1.25201E+04 -2.68931E+04  3.87031E+03 -2.81270E+04  2.22918E+04 -2.48778E+04
  3.52494E+04 -1.51621E+04  4.08625E+04  5.69794E+03  2.81870E+04  2.56955E+04  4.30273E+03  4.37650E+04
 -2.09000E+04  3.56949E+04 -3.18129E+04  1.20500E+04 -2.34578E+04 -9.98652E+03 -5.58809E+03 -1.23624E+04
  1.02215E+03 -5.71894E+02 -8.99874E+03  7.97435E+03 -2.17202E+04  4.20363E+03 -2.18564E+04 -1.04826E+04
 -1.36395E+04 -2.58259E+04  6.86523E+03 -3.04687E+04  1.93040E+04 -2.11763E+04  2.48551E+04 -2.31866E+03
  1.60195E+04  1.70950E+04 -7.52642E+02  2.61223E+04 -1.75413E+04  1.46764E+04 -2.64713E+04 -5.40620E+03
 -1.93308E+04 -2.39889E+04 -2.48060E+03 -3.03284E+04  1.43448E+04 -2.60308E+04  2.57507E+04 -1.29424E+04
  2.49476E+04 -4.05758E+02  1.69283E+04  5.18639E+03  1.03593E+04  1.52534E+03  1.38357E+04 -3.05614E+03
  2.45270E+04  3.33038E+03  2.83191E+04  2.03746E+04  1.96145E+04  4.13417E+04 -1.91286E+03  4.90233E+04
 -2.89546E+04  4.19039E+04 -4.77613E+04  2.22238E+04 -5.05286E+04 -3.93879E+03 -4.20948E+04 -2.92636E+04
 -1.49614E+04 -4.23057E+04  1.53935E+04 -3.58027E+04  3.20394E+04 -1.65250E+04  2.64536E+04  8.54368E+03
  9.26180E+03  2.14449E+04 -1.26982E+04  1.75470E+04 -2.19365E+04  1.95380E+03 -1.65564E+04 -1.45607E+04
 -7.28630E+02 -2.11422E+04  1.12705E+04 -1.56178E+04  1.48295E+04 -1.60689E+03  5.08323E+03  1.04933E+04
 -1.01243E+04  5.40869E+03 -1.10016E+04 -7.59193E+03 -2.46759E+03 -2.15698E+04  1.35483E+04 -2.21899E+04
  2.67465E+04 -1.32241E+04  3.09578E+04  3.11323E+03  2.73265E+04  2.17603E+04  1.32849E+04  3.44868E+04
 -6.55430E+03  3.56721E+04 -2.43025E+04  2.26519E+04 -2.65801E+04  3.74875E+03 -1.73978E+04 -6.82262E+03
 -7.19940E+03 -8.93682E+03 -7.80875E+02  3.10453E+02 -3.31655E+03  4.16745E+03 -7.56737E+03  5.63598E+03
 -1.58093E+04 -1.07244E+03 -1.74142E+04 -1.26778E+04 -6.06245E+03 -2.30755E+04  8.44963E+03 -1.76271E+04
  1.48447E+04 -7.12705E+03  1.04082E+04  5.24169E+03 -1.10765E+03  6.92475E+03 -9.86203E+03 -3.04419E+02
 -9.52998E+03 -1.17641E+04 -2.37900E+03 -1.89741E+04  1.03811E+04 -1.90400E+04  2.37633E+04 -1.03156E+04
  2.73957E+04  2.68793E+03  2.04394E+04  1.71467E+04  4.77469E+03  2.16311E+04 -1.21103E+04  1.91082E+04
 -1.41793E+04  4.38114E+03 -7.16879E+03 -3.81251E+03  2.56880E+03 -5.50239E+03  8.76641E+03 -1.14552E+03
  8.89594E+03  8.55677E+03  1.87790E+03  1.48233E+04 -1.03893E+04  1.50626E+04 -1.85354E+04  3.83796E+03
 -1.30850E+04 -9.57406E+03 -2.25621E+02 -1.61714E+04  1.07312E+04 -7.20238E+03  1.17804E+04  4.84390E+03
  2.86093E+03  1.21907E+04 -9.53217E+03  1.40017E+04 -1.69294E+04  6.14548E+03 -1.80850E+04 -6.06803E+03
 -9.85179E+03 -2.03093E+04  5.60388E+03 -2.20460E+04  1.84454E+04 -1.21457E+04  2.01966E+04  3.25001E+03
  1.11965E+04  1.55734E+04 -2.15587E+03  1.74603E+04 -1.33171E+04  1.02809E+04 -1.58804E+04 -1.97468E+03
 -1.26985E+04 -1.22187E+04 -1.97272E+03 -1.51603E+04  7.22737E+03 -1.24183E+04  9.00522E+03 -4.15807E+03
  4.93010E+03  2.63082E+03 -1.62838E+03  2.22171E+03 -8.43066E+02 -4.61989E+03  2.47340E+03 -9.40022E+03
  1.44173E+04 -6.58029E+03  2.06596E+04  2.63452E+03  1.92238E+04  1.35826E+04  1.18898E+04  2.59860E+04
 -6.31874E+03  2.97634E+04 -2.45569E+04  2.19361E+04 -3.13796E+04  3.77825E+03 -2.52421E+04 -1.19259E+04
 -1.29945E+04 -2.02335E+04 -1.89237E+02 -1.84157E+04  6.80982E+03 -1.06953E+04  7.11880E+03 -6.72313E+03
  3.93722E+03 -3.75016E+03  4.65171E+03 -5.19750E+03  5.96892E+03 -4.75207E+03  9.93750E+03 -1.41055E+03
  1.44090E+04  2.85527E+03  7.37057E+03  1.17647E+04 -2.60111E+03  1.50127E+04 -1.43890E+04  1.11295E+04
 -1.88365E+04 -1.40041E+03 -1.34517E+04 -1.26379E+04 -1.09272E+03 -2.03193E+04  1.04969E+04 -2.01297E+04
  2.11683E+04 -1.06591E+04  2.42510E+04  3.09751E+03  1.61603E+04  1.86392E+04  2.07515E+03  2.29665E+04
 -9.12727E+03  1.91902E+04 -1.35650E+04  6.53646E+03 -8.92922E+03 -1.95855E+03 -4.17374E+03 -3.06390E+03
 -1.57575E+03  6.24530E+02 -3.66444E+03  3.68771E+03 -7.61544E+03  3.15200E+03 -1.23934E+04 -2.68375E+03
 -1.03859E+04 -1.30735E+04  4.92428E+02 -1.86948E+04  1.15910E+04 -1.74559E+04  1.88539E+04 -5.78811E+03
  1.89895E+04  8.36437E+03  8.84351E+03  1.79682E+04 -4.10135E+03  1.83988E+04 -1.49275E+04  1.21275E+04
 -1.80471E+04  2.75928E+02 -1.42406E+04 -1.09406E+04 -1.60748E+03 -1.80480E+04  8.91285E+03 -1.13685E+04
  1.24246E+04 -3.85298E+03  7.84075E+03  4.00410E+03  3.12563E+03  5.54066E+03  1.66530E+03  2.28641E+03
  3.06408E+03  1.82512E+03  4.64018E+03  2.29701E+03  5.47846E+03  6.67281E+03  5.56482E+03  1.07680E+04
 -4.63500E+03  1.62537E+04 -1.30808E+04  1.54607E+04 -2.05676E+04  3.91298E+03 -2.16963E+04 -9.21805E+03
 -1.00234E+04 -2.06773E+04  2.49638E+03 -2.15338E+04  1.27353E+04 -1.40214E+04  1.61199E+04 -2.50509E+03
  1.35815E+04  7.12551E+03  3.34866E+03  1.19677E+04 -5.98849E+03  7.74013E+03 -8.82511E+03 -1.63533E+03
 -4.33486E+03 -8.06911E+03  4.09180E+03 -8.87285E+03  8.75223E+03 -5.08199E+03  8.98524E+03  2.41094E+03
  4.68831E+03  4.07383E+03  1.40643E+03  4.20529E+03 -1.71455E+03  1.94790E+03  1.86941E+03 -3.41408E+02
  4.02659E+03 -1.22626E+03  7.86984E+03  2.62447E+03  5.36481E+03  1.03210E+04 -1.88067E+03  1.42040E+04
 -9.92197E+03  1.00994E+04 -1.32524E+04  2.62519E+03 -1.19613E+04 -4.28441E+03 -4.70445E+03 -8.44706E+03
 -1.50431E+01 -8.70253E+03  5.66337E+03 -3.60370E+03  4.62964E+03  4.86318E+03 -1.75981E+03  6.67315E+03
 -8.86927E+03  3.73180E+03 -1.06034E+04 -3.47525E+03 -5.49296E+03 -1.05305E+04  1.61586E+03 -1.13905E+04
  7.19461E+03 -7.29188E+03  9.14770E+03 -1.14189E+03  7.25430E+03  2.69983E+03  1.37921E+03  6.05098E+03
 -4.63912E+03  2.38347E+03 -5.37507E+03 -4.82773E+03  1.70657E+03 -9.56756E+03  1.09274E+04 -7.94790E+03
  1.44678E+04  4.68909E+01  1.21741E+04  1.00565E+04  4.04504E+03  1.43451E+04 -5.44192E+03  1.24403E+04
 -1.06707E+04  5.64349E+03 -1.19090E+04 -2.26839E+03 -5.44631E+03 -9.00146E+03  2.85371E+03 -8.00441E+03
  9.32481E+03 -4.13752E+03  7.50792E+03  3.57642E+03  2.42896E+03  8.54905E+03 -9.83936E+02  7.02512E+03
 -4.48418E+03  3.93715E+03 -3.83120E+03  7.74225E+02 -2.22762E+03  1.42504E+03 -1.52954E+03  2.56663E+03
 -2.79963E+03  5.18604E+03 -8.95502E+03  4.39669E+03 -1.46653E+04  9.59464E+01 -1.62825E+04 -9.89120E+03
 -8.16394E+03 -1.93029E+04  3.73453E+03 -2.21497E+04  1.41803E+04 -1.70248E+04  2.00929E+04 -6.49519E+03
  1.97193E+04  4.05068E+03  1.24304E+04  1.47068E+04  2.02125E+03  1.47161E+04 -5.92418E+03  1.16701E+04
 -8.48058E+03  4.29261E+03 -5.47832E+03 -1.70600E+03 -1.86868E+03 -1.00456E+03 -7.36334E+02  2.47373E+02
 -2.08464E+03  4.15175E+02 -3.47244E+03 -8.60991E+02 -1.21285E+03 -3.36504E+03  6.99054E+02 -5.94306E+03
  6.94466E+03 -4.53147E+03  8.98012E+03 -7.67509E+01  1.02243E+04  8.40593E+03  3.35536E+03  1.58736E+04
 -7.40474E+03  1.74689E+04 -1.58279E+04  1.01008E+04 -1.93370E+04 -1.17719E+03 -1.36872E+04 -1.19923E+04
 -5.50241E+03 -1.47071E+04  4.36455E+03 -1.48814E+04  1.09344E+04 -8.07968E+03  9.32472E+03  1.23422E+03
  4.72165E+03  5.63563E+03  7.26087E+01  4.26906E+03 -2.71824E+03 -1.17142E+03 -1.06174E+03 -4.43016E+03
  4.26400E+03 -2.22610E+03  5.76163E+03  2.26307E+03  4.76961E+03  6.68067E+03  1.85450E+02  8.76515E+03
 -7.00737E+03  7.50231E+03 -1.07815E+04  1.48565E+03 -9.90452E+03 -7.86438E+03 -1.84356E+03 -1.41491E+04
  8.00764E+03 -1.09205E+04  1.30123E+04 -4.13027E+03  1.19040E+04  3.29390E+03  7.72929E+03  1.00559E+04
  1.40038E+03  1.04427E+04 -4.41658E+03  8.42313E+03 -7.01271E+03  4.25457E+03 -5.35282E+03  4.68866E+02
 -2.72174E+03 -9.86945E+02 -3.20428E+03  9.69785E+02 -5.70474E+03  2.83256E+03 -8.25338E+03 -1.67458E+03
 -7.88128E+03 -5.05542E+03 -2.30674E+03 -1.03967E+04  4.30679E+03 -1.14788E+04  9.54372E+03 -5.64116E+03
  1.10789E+04  2.80549E+03  6.37380E+03  8.26628E+03 -5.56031E+02  1.12879E+04 -8.30276E+03  7.24361E+03
