 $NMID ID='MM_0lb_SNR400_11hz_g40_37.RAW', FMTDAT='(8E13.5)'
 TRAMP=1., VOLUME=1. $END
  3.10334E+05  7.59990E+02  3.37463E+05  2.51006E+05  8.44001E+04  3.38152E+05 -1.33472E+05  2.50338E+05
 -1.90547E+05  8.36404E+04 -1.11810E+05 -3.25337E+04  9.10863E+02 -5.05599E+04  5.35760E+04 -3.30276E+02
  3.50481E+04  5.30558E+04 -1.70904E+04  7.54801E+04 -6.10998E+04  6.43748E+04 -8.41672E+04  3.22691E+04
 -8.12985E+04 -1.13694E+04 -5.77844E+04 -5.10824E+04 -1.45970E+04 -7.08415E+04  2.79286E+04 -4.59774E+04
  4.05540E+04  3.62800E+03  1.62683E+04  4.79004E+04 -3.48662E+04  4.73471E+04 -6.68689E+04 -1.85741E+02
 -5.42899E+04 -5.68361E+04 -6.53723E+03 -7.70493E+04  3.43599E+04 -5.55911E+04  4.85106E+04 -1.75755E+04
  4.48104E+04  1.12924E+04  3.21923E+04  2.63686E+04  1.58322E+04  2.95273E+04 -4.91051E+03  2.77196E+04
 -2.16307E+04  1.19371E+04 -1.83914E+04 -5.33499E+03  6.43389E+03 -6.97100E+03  2.28485E+04  1.28405E+04
  7.58178E+03  3.53746E+04 -3.24433E+04  3.59509E+04 -6.39099E+04  2.99050E+03 -5.73897E+04 -4.37766E+04
 -1.23461E+04 -6.41873E+04  4.00441E+04 -4.69107E+04  5.99047E+04 -2.32945E+03  3.58742E+04  3.35226E+04
 -6.00919E+03  3.65297E+04 -3.09801E+04  1.72455E+04 -3.18452E+04 -4.47349E+03 -1.81772E+04 -1.07111E+04
 -9.53852E+03 -1.41589E+04 -6.01137E+02 -1.84783E+04  8.35310E+03 -2.36893E+04  1.55687E+04 -1.30393E+04
  1.09752E+04  5.12717E+03 -8.88868E+03  1.35844E+04 -2.14978E+04 -4.54056E+03 -9.25953E+03 -3.52807E+04
  2.37635E+04 -4.44611E+04  4.97176E+04 -1.97487E+04  4.67060E+04  1.96767E+04  1.59706E+04  4.47512E+04
 -1.53149E+04  3.44817E+04 -2.63700E+04  2.15510E+03 -1.07356E+04 -2.86869E+04  2.12429E+04 -3.52098E+04
  4.27696E+04 -9.77818E+03  3.73228E+04  2.46556E+04  1.96811E+04  4.75706E+04 -7.84195E+03  5.27422E+04
 -3.28351E+04  3.57811E+04 -4.43928E+04  9.53749E+03 -4.45634E+04 -1.76030E+04 -2.46129E+04 -3.95447E+04
  8.19685E+03 -3.93375E+04  3.28961E+04 -1.54335E+04  3.00139E+04  1.10396E+04  4.61167E+03  1.94368E+04
 -1.37656E+04  8.82476E+03 -1.05557E+04 -6.94461E+03  5.52435E+03 -1.03799E+04  1.82472E+04  6.21682E+03
  1.45182E+04  2.22972E+04 -5.94198E+03  2.50404E+04 -2.28609E+04  1.24569E+04 -2.90208E+04 -3.56280E+03
 -2.24534E+04 -1.82745E+04 -9.92073E+03 -2.22619E+04  4.14358E+03 -2.15655E+04  1.69268E+04 -2.11642E+04
  2.81542E+04 -1.31139E+04  3.43174E+04  4.28671E+03  2.51976E+04  2.18173E+04  4.27069E+03  3.81358E+04
 -1.87252E+04  3.16573E+04 -2.89775E+04  1.11297E+04 -2.15714E+04 -1.00095E+04 -4.44916E+03 -1.33571E+04
  1.88429E+03 -2.12780E+03 -6.11629E+03  7.54784E+03 -1.79080E+04  5.23428E+03 -1.84741E+04 -7.76682E+03
 -1.13564E+04 -2.06834E+04  5.58402E+03 -2.52229E+04  1.68488E+04 -1.77730E+04  1.96400E+04 -1.51384E+03
  1.26830E+04  1.39446E+04 -1.26276E+03  2.04213E+04 -1.38878E+04  1.22701E+04 -2.01252E+04 -4.15641E+03
 -1.53530E+04 -1.88594E+04 -2.60485E+03 -2.48909E+04  1.08529E+04 -2.05086E+04  2.05517E+04 -9.97589E+03
  1.98448E+04  3.01319E+02  1.41948E+04  5.07255E+03  7.70139E+03  1.41622E+03  1.04007E+04 -1.64782E+03
  1.96207E+04  2.50602E+03  2.18334E+04  1.64616E+04  1.46779E+04  3.28379E+04 -2.71056E+03  3.83250E+04
 -2.17457E+04  3.17398E+04 -3.64185E+04  1.68895E+04 -3.83217E+04 -3.03768E+03 -3.14869E+04 -2.21431E+04
 -1.32800E+04 -3.08301E+04  1.12726E+04 -2.73920E+04  2.41862E+04 -1.40554E+04  2.12386E+04  5.77220E+03
  7.99718E+03  1.61202E+04 -9.44426E+03  1.43405E+04 -1.82567E+04  2.66553E+03 -1.30686E+04 -1.10305E+04
 -1.53338E+02 -1.72659E+04  9.74538E+03 -1.27808E+04  1.17608E+04 -1.77187E+03  3.01083E+03  6.89468E+03
 -7.63460E+03  3.61602E+03 -7.18317E+03 -6.07451E+03 -1.21010E+03 -1.61825E+04  1.05377E+04 -1.64666E+04
  1.93978E+04 -8.25648E+03  2.15907E+04  3.58825E+03  1.91000E+04  1.50570E+04  8.72106E+03  2.40554E+04
 -4.53426E+03  2.53190E+04 -1.67832E+04  1.61081E+04 -1.81281E+04  3.74516E+03 -1.28196E+04 -4.61515E+03
 -6.51598E+03 -6.39679E+03 -7.25208E+02  3.92855E+02 -1.99122E+03  2.75732E+03 -6.23104E+03  4.49220E+03
 -1.21666E+04 -7.16636E+02 -1.36355E+04 -1.01089E+04 -5.34678E+03 -1.64760E+04  5.16499E+03 -1.28975E+04
  1.06250E+04 -6.02476E+03  7.64849E+03  3.83129E+03  1.17986E+02  4.84586E+03 -6.49707E+03  1.32285E+02
 -6.59560E+03 -7.90953E+03 -1.51197E+03 -1.24542E+04  6.97089E+03 -1.34106E+04  1.60209E+04 -7.06132E+03
  1.91981E+04  1.18880E+03  1.44176E+04  1.14257E+04  3.39798E+03  1.56239E+04 -8.51238E+03  1.25446E+04
 -1.04920E+04  4.19387E+03 -5.81631E+03 -3.24558E+03  1.90233E+03 -4.12019E+03  6.82111E+03 -1.26879E+02
  6.28395E+03  5.58038E+03  1.78060E+03  1.05911E+04 -7.96086E+03  1.07460E+04 -1.33594E+04  1.79422E+03
 -8.87528E+03 -6.23421E+03 -1.44047E+02 -1.14539E+04  6.83084E+03 -4.98086E+03  7.33680E+03  1.62851E+03
  1.82201E+03  8.02429E+03 -6.50587E+03  9.78767E+03 -1.06200E+04  3.98002E+03 -1.06217E+04 -3.30021E+03
 -6.41983E+03 -1.29546E+04  3.03663E+03 -1.42189E+04  1.18332E+04 -8.69224E+03  1.37186E+04  3.11626E+03
  7.33650E+03  1.04936E+04 -1.15838E+03  1.22722E+04 -9.27375E+03  6.98980E+03 -1.03924E+04 -5.86925E+02
 -9.22944E+03 -9.05204E+03 -1.32175E+03 -9.72871E+03  4.99913E+03 -7.34800E+03  6.33438E+03 -3.11945E+03
  4.85578E+03  1.76825E+03 -1.04160E+03  1.98275E+03 -4.03227E+02 -1.67014E+03  9.03977E+02 -5.33614E+03
  8.75982E+03 -3.23804E+03  1.28586E+04  1.14061E+03  1.23523E+04  8.01053E+03  8.41389E+03  1.63212E+04
 -3.66414E+03  1.89830E+04 -1.59257E+04  1.37252E+04 -1.97441E+04  2.20772E+03 -1.69413E+04 -6.42868E+03
 -8.62722E+03 -1.33827E+04 -5.50101E+02 -1.15148E+04  4.84558E+03 -5.73757E+03  3.30068E+03 -3.96454E+03
  2.75567E+03 -2.65815E+03  2.93119E+03 -3.96149E+03  5.13403E+03 -2.71655E+03  6.30747E+03 -8.51931E+02
  8.54581E+03  2.30129E+03  4.83576E+03  7.05657E+03 -1.87350E+03  8.19650E+03 -9.11805E+03  6.47709E+03
 -1.12690E+04 -1.59601E+03 -5.80687E+03 -7.89605E+03 -1.06343E+03 -1.15678E+04  7.11041E+03 -1.21523E+04
  1.20887E+04 -7.17058E+03  1.42203E+04  1.15091E+03  1.08386E+04  1.08040E+04  2.81341E+03  1.35701E+04
 -5.73323E+03  1.12924E+04 -8.12565E+03  3.40237E+03 -5.75645E+03 -1.35432E+03 -2.41141E+03 -1.44432E+03
 -1.13804E+03 -5.77333E+01 -1.30758E+03  2.85051E+03 -4.98148E+03  2.01228E+03 -7.80922E+03 -7.39317E+02
 -5.11964E+03 -7.75425E+03  5.42515E+02 -1.09332E+04  6.23396E+03 -1.04361E+04  1.06035E+04 -2.71014E+03
  1.08723E+04  5.48665E+03  4.92132E+03  8.91450E+03 -2.06404E+03  1.10324E+04 -8.03988E+03  6.64719E+03
 -1.03259E+04  7.68785E+02 -8.37572E+03 -6.16857E+03 -8.07144E+02 -9.44384E+03  4.63937E+03 -6.67114E+03
  7.36588E+03 -2.19208E+03  4.96709E+03  2.24303E+03  1.89602E+03  3.48375E+03  4.64813E+02  1.53361E+03
  1.89475E+03  8.72070E+02  2.69088E+03  1.69124E+03  2.90542E+03  4.52402E+03  2.87792E+03  6.09529E+03
 -1.41775E+03  8.90983E+03 -7.21572E+03  9.36906E+03 -1.11663E+04  3.11938E+03 -1.14506E+04 -4.17290E+03
 -5.20023E+03 -1.10157E+04  1.21464E+03 -1.25998E+04  6.89435E+03 -6.96871E+03  8.48126E+03 -2.01522E+03
  6.84989E+03  4.18055E+03  1.56475E+03  6.59592E+03 -2.72593E+03  3.68737E+03 -4.51592E+03 -4.59001E+02
 -1.78072E+03 -4.86265E+03  2.16279E+03 -4.89224E+03  4.40078E+03 -2.13589E+03  4.05125E+03  1.30334E+03
  2.24944E+03  1.31320E+03  1.21658E+03  1.48993E+03 -2.54797E+02  1.00736E+03  1.96799E+03 -3.77719E+02
  6.65134E+02 -1.12596E+03  4.22558E+03  1.61938E+03  1.83119E+03  5.66744E+03 -9.29333E+02  8.33884E+03
 -5.33778E+03  4.82870E+03 -6.82645E+03  7.76751E+02 -5.76460E+03 -2.58213E+03 -2.25290E+03 -4.05863E+03
  5.79286E+02 -3.93872E+03  2.95833E+03 -1.95089E+03  2.17127E+03  1.88857E+03 -1.63579E+03  3.55605E+03
 -4.93950E+03  2.22467E+03 -4.68150E+03 -2.36117E+03 -2.65541E+03 -5.94112E+03  1.01031E+03 -5.60568E+03
  3.52175E+03 -3.18155E+03  3.82944E+03  1.60637E+02  4.07520E+03  6.97045E+02  8.08365E+02  3.29876E+03
 -1.89909E+03  6.16595E+02 -3.07275E+03 -2.31619E+03  9.05395E+02 -4.34085E+03  5.17146E+03 -3.59705E+03
  6.31710E+03  8.76589E+02  6.34537E+03  4.26210E+03  1.93169E+03  6.91122E+03 -2.71627E+03  6.50822E+03
 -5.64827E+03  2.77026E+03 -6.35195E+03 -6.28098E+02 -3.16617E+03 -4.69115E+03  4.10026E+02 -4.18513E+03
  4.31592E+03 -1.61572E+03  3.34491E+03  1.86270E+03  8.48677E+02  3.72863E+03 -1.06762E+02  3.15321E+03
 -1.36131E+03  1.86225E+03 -9.11479E+02  7.09581E+02 -3.79062E+02  6.58304E+02 -1.40594E+03  2.02135E+03
 -1.60394E+03  3.23876E+03 -5.16376E+03  2.45017E+03 -6.78606E+03  7.80817E+02 -7.68595E+03 -4.80129E+03
 -3.30826E+03 -8.80227E+03  1.88776E+03 -1.11084E+04  5.30641E+03 -8.13777E+03  1.03591E+04 -2.99426E+03
  9.00523E+03  1.71734E+03  5.99718E+03  6.18771E+03 -4.37161E+01  6.85545E+03 -3.56759E+03  5.26666E+03
 -3.54435E+03  1.86669E+03 -2.64822E+03 -8.84860E+02 -1.27455E+03 -9.31116E+01 -6.91043E+02  1.93343E+02
 -1.25422E+03  4.04723E+02 -2.13393E+03 -5.37559E+02 -7.60533E+02 -1.42331E+03  2.74165E+02 -2.67710E+03
  3.25188E+03 -2.42877E+03  4.54099E+03 -3.56050E+02  4.86398E+03  3.78327E+03  5.42765E+02  6.75838E+03
 -3.55859E+03  7.98216E+03 -7.53045E+03  4.81476E+03 -7.97558E+03 -1.01577E+03 -5.41120E+03 -4.89011E+03
 -2.49030E+03 -7.21760E+03  1.98110E+03 -6.50140E+03  3.77390E+03 -3.17156E+03  4.34617E+03  1.04824E+03
  2.21591E+03  2.27168E+03  2.24156E+02  1.68071E+03 -8.88556E+02 -4.85714E+02  9.81408E+01 -1.74842E+03
  1.64689E+03 -1.94458E+03  2.41280E+03  9.93464E+02  1.84895E+03  3.79263E+03  3.46750E+02  3.42019E+03
 -2.15363E+03  2.92176E+03 -5.17020E+03  1.35090E+03 -4.13150E+03 -3.25236E+03 -9.82064E+01 -5.64179E+03
  2.78171E+03 -4.12188E+03  4.68361E+03 -1.63707E+03  5.36137E+03  1.63895E+03  3.36938E+03  4.26829E+03
  8.70613E+02  4.13663E+03 -1.38936E+03  3.32394E+03 -2.40364E+03  2.09286E+03 -3.31522E+03  3.50392E+02
 -9.09412E+02  3.02899E+02 -1.08206E+03  9.74418E+02 -2.57803E+03  2.03855E+02 -3.74228E+03 -4.66673E+02
 -3.36919E+03 -2.14659E+03 -8.84536E+02 -4.13825E+03  2.33728E+03 -4.65180E+03  3.77796E+03 -1.96213E+03
  4.61212E+03  1.47828E+02  1.80324E+03  2.73197E+03 -2.44578E+01  4.84897E+03 -3.26030E+03  2.39419E+03
