 $NMID ID='MM_0lb_SNR400_12hz_g50_29.RAW', FMTDAT='(8E13.5)'
 TRAMP=1., VOLUME=1. $END
  3.09280E+05  4.17883E+02  3.37984E+05  2.49970E+05  8.44041E+04  3.38229E+05 -1.32452E+05  2.51595E+05
 -1.90953E+05  8.39619E+04 -1.11821E+05 -3.30732E+04  9.13908E+01 -5.03293E+04  5.33176E+04 -1.46340E+02
  3.53022E+04  5.21484E+04 -1.64183E+04  7.53464E+04 -6.04039E+04  6.39775E+04 -8.44391E+04  3.18049E+04
 -8.17522E+04 -1.13252E+04 -5.74308E+04 -5.19069E+04 -1.42349E+04 -7.03670E+04  2.80396E+04 -4.57550E+04
  4.01747E+04  3.90882E+03  1.67454E+04  4.81454E+04 -3.44016E+04  4.82106E+04 -6.73993E+04  2.34379E+02
 -5.36793E+04 -5.70583E+04 -7.12355E+03 -7.78258E+04  3.44050E+04 -5.60485E+04  4.84868E+04 -1.78534E+04
  4.48600E+04  1.15993E+04  3.17716E+04  2.65982E+04  1.56408E+04  2.93454E+04 -5.10475E+03  2.70101E+04
 -2.23368E+04  1.21925E+04 -1.84588E+04 -5.53884E+03  5.76722E+03 -6.98353E+03  2.31707E+04  1.26012E+04
  6.68681E+03  3.66126E+04 -3.28684E+04  3.61454E+04 -6.42292E+04  1.87468E+03 -5.78204E+04 -4.39668E+04
 -1.31426E+04 -6.45058E+04  4.04559E+04 -4.54369E+04  5.91609E+04 -2.56603E+03  3.55790E+04  3.32063E+04
 -6.11231E+03  3.66970E+04 -3.08847E+04  1.68926E+04 -3.17032E+04 -3.87191E+03 -1.79344E+04 -1.16410E+04
 -8.23372E+03 -1.37756E+04 -6.94126E+02 -1.92643E+04  8.24118E+03 -2.31097E+04  1.58862E+04 -1.23953E+04
  1.10643E+04  5.55660E+03 -9.42253E+03  1.27881E+04 -2.19119E+04 -5.99224E+03 -8.44822E+03 -3.58607E+04
  2.38847E+04 -4.39392E+04  4.97684E+04 -1.99656E+04  4.68538E+04  1.99476E+04  1.61075E+04  4.55952E+04
 -1.65671E+04  3.43736E+04 -2.63657E+04  2.69660E+03 -1.06711E+04 -2.80452E+04  2.11261E+04 -3.47739E+04
  4.22112E+04 -9.71857E+03  3.77324E+04  2.39316E+04  1.98648E+04  4.85139E+04 -7.92839E+03  5.27976E+04
 -3.22405E+04  3.60362E+04 -4.48475E+04  1.01547E+04 -4.43725E+04 -1.76491E+04 -2.46328E+04 -3.91515E+04
  7.37622E+03 -3.90870E+04  3.21995E+04 -1.58876E+04  3.09811E+04  1.19711E+04  4.86064E+03  1.97651E+04
 -1.41758E+04  8.75653E+03 -1.07993E+04 -7.18673E+03  5.36334E+03 -1.17796E+04  1.85963E+04  5.60164E+03
  1.41929E+04  2.25451E+04 -6.47961E+03  2.54405E+04 -2.30536E+04  1.25390E+04 -3.01748E+04 -4.38704E+03
 -2.25715E+04 -1.72254E+04 -9.78458E+03 -2.26585E+04  4.13253E+03 -2.16261E+04  1.70559E+04 -2.00597E+04
  2.79498E+04 -1.36180E+04  3.51897E+04  4.20852E+03  2.48782E+04  2.17602E+04  3.99928E+03  3.79160E+04
 -1.92401E+04  3.13971E+04 -2.88400E+04  1.07920E+04 -2.13028E+04 -1.03815E+04 -4.47398E+03 -1.32585E+04
  1.63702E+03 -2.60417E+03 -5.97367E+03  7.40721E+03 -1.73114E+04  5.03857E+03 -1.74902E+04 -8.25413E+03
 -1.03305E+04 -2.08049E+04  5.83929E+03 -2.45908E+04  1.64174E+04 -1.80640E+04  2.01548E+04 -1.26924E+03
  1.19876E+04  1.45503E+04 -6.83039E+02  2.06370E+04 -1.42389E+04  1.21035E+04 -2.09375E+04 -4.33391E+03
 -1.53522E+04 -1.91759E+04 -1.96613E+03 -2.46432E+04  1.12017E+04 -2.07632E+04  2.02039E+04 -1.03751E+04
  1.92747E+04 -1.81660E+02  1.38791E+04  5.06303E+03  7.94033E+03  8.73573E+02  1.08111E+04 -2.26007E+03
  1.89489E+04  2.72967E+03  2.21027E+04  1.67905E+04  1.41957E+04  3.37511E+04 -3.05653E+03  3.73875E+04
 -2.23237E+04  3.08903E+04 -3.58645E+04  1.59324E+04 -3.80321E+04 -2.56486E+03 -3.09674E+04 -2.22768E+04
 -1.29397E+04 -3.14261E+04  1.07257E+04 -2.79781E+04  2.39079E+04 -1.38056E+04  2.12100E+04  6.20111E+03
  7.39758E+03  1.53979E+04 -1.01325E+04  1.35752E+04 -1.74646E+04  2.61234E+03 -1.37261E+04 -1.21641E+04
 -5.82381E+02 -1.74423E+04  8.38301E+03 -1.23572E+04  1.16573E+04 -1.34579E+03  2.62251E+03  7.33440E+03
 -7.38588E+03  3.25725E+03 -7.17816E+03 -6.07127E+03 -9.47341E+02 -1.52203E+04  1.07115E+04 -1.64034E+04
  1.93504E+04 -8.68555E+03  2.05395E+04  3.23930E+03  1.79616E+04  1.52093E+04  8.77282E+03  2.34062E+04
 -4.06698E+03  2.54618E+04 -1.62990E+04  1.66484E+04 -1.83489E+04  3.76215E+03 -1.35748E+04 -4.38944E+03
 -5.99283E+03 -6.17930E+03 -4.00053E+02  7.32385E+02 -2.51374E+03  3.52886E+03 -5.92042E+03  4.38939E+03
 -1.18207E+04 -1.24694E+03 -1.26346E+04 -1.02969E+04 -5.07394E+03 -1.63209E+04  4.91533E+03 -1.27456E+04
  1.13029E+04 -5.25453E+03  7.25194E+03  3.63092E+03 -8.04881E+02  4.69461E+03 -6.35972E+03  1.30442E+02
 -5.80084E+03 -7.88601E+03 -1.64249E+03 -1.17622E+04  7.51232E+03 -1.30524E+04  1.57495E+04 -7.04822E+03
  1.89720E+04  2.76457E+03  1.39610E+04  1.15658E+04  2.83713E+03  1.54918E+04 -8.10656E+03  1.33980E+04
 -1.06195E+04  3.80787E+03 -5.28450E+03 -2.28271E+03  1.90860E+03 -3.51708E+03  6.74212E+03 -8.97898E+02
  6.89062E+03  6.29774E+03  1.52696E+03  9.97415E+03 -6.83083E+03  9.48738E+03 -1.20972E+04  2.14319E+03
 -8.62367E+03 -6.49470E+03  8.91128E+02 -1.13008E+04  6.74672E+03 -5.32352E+03  7.42049E+03  2.09329E+03
  2.10068E+03  7.08951E+03 -6.86024E+03  9.48058E+03 -9.77281E+03  4.15620E+03 -1.02450E+04 -3.54016E+03
 -6.24403E+03 -1.20865E+04  2.73952E+03 -1.38768E+04  1.19411E+04 -8.38027E+03  1.24871E+04  2.19137E+03
  8.36343E+03  1.02592E+04 -5.28861E+02  1.21928E+04 -9.66915E+03  7.02771E+03 -1.05407E+04 -1.02206E+03
 -9.26629E+03 -8.78503E+03 -1.98592E+03 -9.37426E+03  4.95146E+03 -8.16332E+03  5.05989E+03 -3.33236E+03
  4.06866E+03  9.71250E+02 -7.70806E+02  1.92272E+03 -2.76860E+02 -2.23933E+03  1.95221E+03 -5.69178E+03
  9.01858E+03 -3.35410E+03  1.13325E+04  1.19173E+03  1.18932E+04  8.46197E+03  8.10471E+03  1.55046E+04
 -3.41122E+03  1.80961E+04 -1.57483E+04  1.35853E+04 -1.92711E+04  2.81036E+03 -1.55494E+04 -6.72010E+03
 -7.48141E+03 -1.23193E+04  1.78303E+02 -1.11370E+04  4.26338E+03 -5.72199E+03  4.29376E+03 -4.08139E+03
  3.15477E+03 -2.73916E+03  2.98016E+03 -2.92656E+03  4.42242E+03 -2.32866E+03  6.21555E+03 -3.54408E+02
  7.49146E+03  2.02823E+03  3.47572E+03  7.38867E+03 -1.96260E+03  7.40635E+03 -8.16805E+03  5.57718E+03
 -1.14077E+04 -1.15569E+03 -6.01533E+03 -7.07450E+03 -9.72937E+02 -1.18786E+04  6.72787E+03 -1.14042E+04
  1.16915E+04 -6.66902E+03  1.35170E+04  1.96671E+03  9.80348E+03  9.57889E+03  1.03931E+03  1.25867E+04
 -5.08754E+03  1.09344E+04 -7.58174E+03  3.68994E+03 -4.58842E+03 -1.23072E+03 -2.41970E+03 -1.81813E+03
 -9.41498E+02 -4.40972E+01 -1.87138E+03  2.52787E+03 -4.17866E+03  1.79560E+03 -7.47633E+03 -8.93148E+02
 -5.65612E+03 -7.29827E+03  3.39355E+02 -1.07264E+04  5.76159E+03 -9.13834E+03  9.78179E+03 -3.21555E+03
  9.96456E+03  5.42077E+03  4.60571E+03  9.18918E+03 -1.74106E+03  1.00048E+04 -7.29601E+03  6.08258E+03
 -9.19402E+03  3.55012E+02 -7.35869E+03 -5.86952E+03 -8.05202E+02 -8.37625E+03  4.38466E+03 -6.84077E+03
  6.67335E+03 -1.99798E+03  4.42900E+03  1.47577E+03  1.60494E+03  3.21266E+03  1.29873E+03  1.08319E+03
  1.85361E+03  9.46217E+02  2.31744E+03  1.61181E+03  2.80626E+03  4.05989E+03  3.31329E+03  5.66918E+03
 -2.16040E+03  7.72656E+03 -7.69713E+03  8.13859E+03 -1.02932E+04  1.83500E+03 -1.07384E+04 -3.83146E+03
 -4.92895E+03 -1.01328E+04  1.06988E+03 -1.10759E+04  6.28686E+03 -6.92952E+03  8.02358E+03 -1.90868E+03
  6.86824E+03  3.58643E+03  1.29012E+03  5.90645E+03 -2.94361E+03  3.81599E+03 -3.77638E+03 -1.46077E+03
 -2.10600E+03 -4.51507E+03  2.41391E+03 -4.49097E+03  3.68746E+03 -2.21575E+03  3.86834E+03  9.32809E+02
  2.52411E+03  1.69081E+03  7.28784E+02  6.54545E+02 -5.32795E+02  1.22605E+03  1.16775E+03 -6.11255E+02
  1.15382E+03  3.45548E+02  4.30207E+03  1.52883E+03  2.17469E+03  5.50578E+03 -1.57759E+03  7.39827E+03
 -4.21880E+03  4.02207E+03 -6.00309E+03  1.64799E+03 -5.50305E+03 -2.18256E+03 -1.48335E+03 -3.95151E+03
  5.14073E+02 -3.39449E+03  2.14297E+03 -1.18884E+03  1.92784E+03  2.58855E+03 -9.12503E+02  2.92071E+03
 -4.15783E+03  2.00340E+03 -5.04943E+03 -2.60225E+03 -2.42923E+03 -5.36835E+03  7.03455E+02 -5.21953E+03
  1.98126E+03 -2.09093E+03  3.43279E+03 -7.65398E+02  3.59613E+03  9.51108E+02  6.85879E+02  3.34006E+03
 -1.60090E+03  5.11415E+02 -2.66704E+03 -2.06782E+03  6.12817E+02 -3.72943E+03  5.20859E+03 -3.28372E+03
  6.11163E+03  5.74604E+02  6.01908E+03  4.13739E+03  2.22279E+03  5.65706E+03 -1.98329E+03  5.91181E+03
 -5.57558E+03  2.51786E+03 -5.38649E+03 -9.45800E+02 -2.05793E+03 -4.24304E+03  1.39578E+03 -3.77986E+03
  3.79160E+03 -1.30409E+03  3.58554E+03  2.07690E+03  9.30557E+02  2.81583E+03 -7.41447E+02  3.34631E+03
 -2.55524E+03  2.27697E+03 -8.62026E+02  7.48498E+02 -7.05377E+02  9.82662E+02 -1.78186E+03  1.00598E+03
 -1.63101E+03  2.27692E+03 -3.77064E+03  2.12284E+03 -5.41098E+03  5.66296E+02 -7.14857E+03 -3.77848E+03
 -3.23425E+03 -8.01401E+03  1.60192E+03 -9.63888E+03  5.14749E+03 -8.21417E+03  8.98659E+03 -3.35237E+03
  8.35156E+03  1.46835E+03  4.92345E+03  4.90065E+03  1.70792E+02  6.13929E+03 -2.36538E+03  4.57081E+03
 -2.94984E+03  2.02919E+03 -2.08684E+03 -6.66659E+02 -1.16681E+03 -2.22684E+02 -7.35504E+02  5.08040E+02
 -1.34068E+03 -9.40088E+00 -1.13493E+03  2.50364E+02 -3.62954E+02 -9.48327E+02 -2.32872E+02 -3.00515E+03
  2.87495E+03 -2.16672E+03  3.65080E+03  1.98005E+02  4.71453E+03  3.46106E+03  1.45651E+03  6.38605E+03
 -2.81813E+03  7.62385E+03 -6.34301E+03  3.35868E+03 -7.48381E+03 -7.68610E+02 -5.44434E+03 -4.81951E+03
 -2.16939E+03 -6.19972E+03  9.44589E+02 -6.05971E+03  3.76016E+03 -3.32478E+03  3.25819E+03  6.14829E+02
  2.22434E+03  1.42026E+03 -2.94855E+02  1.27527E+03 -1.02064E+03  1.39303E+02 -8.96355E+01 -1.58079E+03
  2.10521E+03 -3.47024E+02  2.70589E+03  3.00118E+02  8.22116E+02  2.14198E+03  8.86435E+02  3.08210E+03
 -2.81020E+03  2.72159E+03 -3.59090E+03 -4.84867E+02 -3.63950E+03 -3.30811E+03 -2.39899E+02 -4.50665E+03
  2.71115E+03 -3.86300E+03  4.18884E+03 -1.15678E+03  4.39082E+03  2.96733E+02  2.23207E+03  3.56144E+03
  2.71951E+02  3.54409E+03 -1.91351E+03  3.35950E+03 -2.36690E+03  1.61250E+03 -1.08577E+03  4.50820E+02
 -6.89104E+02 -7.74266E+02 -1.08344E+03  8.93474E+02 -1.99026E+03  3.51768E+02 -3.00067E+03 -8.75805E+02
 -2.95631E+03 -1.58731E+03 -6.13697E+02 -3.76250E+03  1.59550E+03 -4.58148E+03  3.07817E+03 -1.18368E+03
  3.80380E+03  7.21542E+02  1.29562E+03  2.05265E+03 -1.16439E+02  2.82584E+03 -2.50016E+03  2.65829E+03
