 $NMID ID='MM_0lb_SNR400_19hz_g40_15.RAW', FMTDAT='(8E13.5)'
 TRAMP=1., VOLUME=1. $END
  3.10027E+05  2.06810E+02  3.37105E+05  2.49671E+05  8.43699E+04  3.37731E+05 -1.32540E+05  2.50148E+05
 -1.89417E+05  8.24653E+04 -1.10594E+05 -3.30052E+04  1.61210E+03 -5.00861E+04  5.43223E+04  6.39449E+02
  3.52539E+04  5.28528E+04 -1.67085E+04  7.44493E+04 -5.97680E+04  6.23364E+04 -8.27214E+04  3.19578E+04
 -7.91783E+04 -1.12126E+04 -5.59378E+04 -4.97207E+04 -1.53562E+04 -6.78058E+04  2.62969E+04 -4.45749E+04
  3.82076E+04  3.80963E+03  1.50946E+04  4.70671E+04 -3.39806E+04  4.51764E+04 -6.48589E+04 -8.85315E+02
 -5.13529E+04 -5.57795E+04 -6.22596E+03 -7.43960E+04  3.31177E+04 -5.27962E+04  4.58606E+04 -1.62240E+04
  4.09172E+04  1.07502E+04  3.00515E+04  2.43041E+04  1.57470E+04  2.77390E+04 -4.13033E+03  2.70546E+04
 -2.15618E+04  1.29110E+04 -1.84351E+04 -3.98383E+03  3.45901E+03 -7.52450E+03  2.12231E+04  1.05236E+04
  7.49697E+03  3.20932E+04 -2.99131E+04  3.32767E+04 -5.96277E+04  2.57187E+03 -5.48607E+04 -4.02175E+04
 -1.25584E+04 -6.02580E+04  3.73629E+04 -4.29899E+04  5.51607E+04 -1.99277E+03  3.09744E+04  3.01933E+04
 -7.08945E+03  3.20304E+04 -2.78495E+04  1.28039E+04 -2.71522E+04 -5.76913E+03 -1.34818E+04 -9.61690E+03
 -7.04813E+03 -1.08687E+04 -1.34549E+03 -1.56392E+04  6.14837E+03 -2.20717E+04  1.46810E+04 -1.40321E+04
  1.20813E+04  4.17950E+03 -5.14280E+03  1.33368E+04 -1.89848E+04 -2.06061E+03 -7.80497E+03 -2.94776E+04
  1.99608E+04 -3.92461E+04  4.34944E+04 -1.89304E+04  4.08905E+04  1.79018E+04  1.38701E+04  4.11651E+04
 -1.47014E+04  3.06838E+04 -2.24799E+04  1.02719E+03 -7.77160E+03 -2.59216E+04  2.04371E+04 -3.03600E+04
  3.66890E+04 -6.84388E+03  2.99613E+04  2.24432E+04  1.48251E+04  4.16876E+04 -7.61148E+03  4.36595E+04
 -2.73304E+04  2.89592E+04 -3.58683E+04  8.09299E+03 -3.74289E+04 -1.48474E+04 -2.03898E+04 -3.35938E+04
  6.68965E+03 -3.38266E+04  2.87263E+04 -1.23239E+04  2.60463E+04  1.05465E+04  2.94276E+03  1.75822E+04
 -1.35810E+04  6.80673E+03 -9.49143E+03 -7.33806E+03  6.65892E+03 -1.02131E+04  1.71831E+04  6.56718E+03
  1.23695E+04  2.14602E+04 -6.74226E+03  2.27354E+04 -2.12980E+04  8.67944E+03 -2.39516E+04 -6.39714E+03
 -1.59368E+04 -1.62881E+04 -5.12579E+03 -1.54336E+04  3.94627E+03 -1.32069E+04  1.17268E+04 -1.30183E+04
  1.97615E+04 -1.12899E+04  2.70117E+04  4.90002E+01  2.05756E+04  1.60255E+04  4.13051E+03  3.13949E+04
 -1.58065E+04  2.66414E+04 -2.57004E+04  9.40878E+03 -1.93242E+04 -9.88959E+03 -3.80388E+03 -1.39403E+04
  2.65098E+03 -4.26631E+03 -1.95588E+03  4.63228E+03 -1.17321E+04  5.28180E+03 -1.24764E+04 -5.19813E+03
 -8.03467E+03 -1.48998E+04  3.99220E+03 -1.78496E+04  1.19176E+04 -1.35844E+04  1.40673E+04 -1.17186E+03
  8.63392E+03  1.03751E+04 -7.99573E+01  1.48687E+04 -9.64106E+03  8.57024E+03 -1.48567E+04 -3.50082E+03
 -1.10757E+04 -1.36579E+04 -1.67440E+03 -1.82373E+04  7.89666E+03 -1.48576E+04  1.51959E+04 -6.55075E+03
  1.43044E+04  5.43564E+02  1.01265E+04  3.91830E+03  4.31258E+03  4.67851E+02  7.48979E+03 -8.30569E+02
  1.31895E+04  2.58447E+03  1.36519E+04  1.20294E+04  8.28280E+03  2.35372E+04 -3.07596E+03  2.51532E+04
 -1.53505E+04  1.85305E+04 -2.22774E+04  8.62213E+03 -2.28858E+04 -1.72850E+03 -1.99477E+04 -1.29392E+04
 -9.64259E+03 -1.88693E+04  6.41424E+03 -1.81690E+04  1.54543E+04 -1.04807E+04  1.45488E+04  3.60233E+03
  6.39817E+03  1.02441E+04 -6.71495E+03  1.01234E+04 -1.29237E+04  3.00680E+03 -1.03278E+04 -7.26312E+03
 -1.46695E+02 -1.18303E+04  5.61969E+03 -9.07131E+03  7.87428E+03 -1.00461E+03  1.54383E+03  4.05239E+03
 -4.90629E+03  1.76549E+03 -2.94018E+03 -4.84894E+03  6.95562E+02 -9.43480E+03  7.49916E+03 -9.45227E+03
  1.13633E+04 -4.44348E+03  1.06654E+04  2.75159E+03  9.21747E+03  8.64417E+03  4.13930E+03  1.25274E+04
 -1.21402E+03  1.47652E+04 -8.44970E+03  9.36792E+03 -1.05587E+04  3.02528E+03 -7.78037E+03 -1.62454E+03
 -4.30893E+03 -3.02438E+03 -6.81263E+02  1.34575E+03 -2.30266E+03  2.01726E+03 -3.67930E+03  3.58728E+03
 -6.99292E+03 -4.07455E+02 -8.03452E+03 -6.71100E+03 -3.24154E+03 -1.05339E+04  3.52851E+03 -8.24985E+03
  6.61009E+03 -3.42490E+03  5.41220E+03  2.33080E+03  8.51397E+02  2.68797E+03 -3.15828E+03 -2.78259E+02
 -2.84375E+03 -4.84242E+03 -4.32056E+02 -6.48520E+03  3.65410E+03 -6.80334E+03  9.00514E+03 -3.52353E+03
  1.08931E+04 -1.74736E+02  8.01685E+03  6.09359E+03  1.37455E+03  7.90666E+03 -4.92453E+03  8.13310E+03
 -6.46365E+03  2.57068E+03 -3.46213E+03 -8.78110E+02  1.28716E+03 -1.76273E+03  4.62291E+03 -8.57555E+02
  3.85491E+03  3.35121E+03  5.23669E+02  5.75641E+03 -4.10877E+03  6.12606E+03 -7.50881E+03  2.11874E+03
 -4.22139E+03 -3.66124E+03  2.31673E+02 -6.12670E+03  3.60417E+03 -2.84788E+03  3.32066E+03  6.62841E+02
 -5.13739E+01  2.86114E+03 -3.56987E+03  4.13788E+03 -4.68924E+03  2.05153E+03 -3.75387E+03 -6.49388E+02
 -2.37444E+03 -5.46981E+03  4.63173E+02 -5.98639E+03  5.30664E+03 -4.37483E+03  5.58106E+03  5.28921E+02
  4.41882E+03  4.59778E+03  3.90551E+02  7.53667E+03 -4.85185E+03  4.25610E+03 -4.31709E+03 -7.69042E+01
 -5.25591E+03 -4.63749E+03 -1.53238E+03 -4.53436E+03  2.64945E+03 -4.93472E+03  2.50066E+03 -2.33476E+03
  2.69735E+03  2.22915E+02  3.79796E+02  8.58654E+02  1.05814E+03  2.53397E+02 -6.19886E+01 -1.61267E+03
  3.48084E+03 -7.44102E+02  5.00493E+03  1.16014E+03  4.93559E+03  2.30805E+03  5.12211E+03  6.52871E+03
 -9.52978E+02  7.49234E+03 -7.05247E+03  5.89141E+03 -8.77574E+03  1.01569E+03 -6.93819E+03 -1.46208E+03
 -3.73395E+03 -6.64159E+03 -5.93048E+02 -4.91491E+03  2.26365E+03 -1.44074E+03  1.39806E+03 -1.87505E+03
  4.75828E+02 -1.53898E+03  2.38748E+03 -2.14683E+03  3.31077E+03 -9.61985E+02  3.32470E+03  1.65781E+02
  4.42550E+03  1.26994E+03  6.77019E+02  3.01043E+03 -2.40538E+03  2.42594E+03 -3.89946E+03  1.48767E+03
 -4.56372E+03 -4.74704E+02 -1.19506E+03 -3.46592E+03  1.06320E+02 -3.92126E+03  2.91848E+03 -4.99128E+03
  4.19660E+03 -2.59342E+03  5.92396E+03 -3.99412E+01  4.93809E+03  3.92037E+03  1.25695E+03  5.13428E+03
 -2.54254E+03  5.36300E+03 -3.23927E+03  1.37828E+03 -2.00281E+03 -1.37564E+03 -4.90486E+02 -7.72482E+02
  1.33258E+02  6.67363E+02 -1.01996E+03  1.94440E+03 -2.25297E+03  7.38131E+02 -3.34453E+03 -6.61121E+02
 -1.59001E+03 -3.91068E+03  8.19062E+02 -4.12303E+03  2.32100E+03 -3.95103E+03  2.93427E+03 -1.51402E+03
  4.01579E+03  2.49984E+03  1.15642E+03  2.79574E+03 -1.27355E+03  3.98487E+03 -2.58083E+03  2.18308E+03
 -2.94431E+03  1.10971E+03 -3.19350E+03 -2.12575E+03  3.04536E+02 -2.58588E+03  1.93331E+03 -2.15206E+03
  2.50524E+03 -1.48327E+03  1.79087E+03  4.36430E+02  4.77293E+02  1.74862E+03  8.09330E+02  3.99988E+02
  1.77033E+03  7.91879E+02  7.83559E+02  6.67365E+02  1.23808E+03  2.66319E+03  1.27914E+03  1.20113E+03
 -1.44323E+03  2.91808E+03 -1.72545E+03  3.47956E+03 -2.66663E+03  1.12257E+03 -3.70725E+03 -3.12653E+02
 -1.72880E+03 -3.12046E+03  1.01539E+03 -3.96771E+03  1.56721E+03 -2.22508E+03  3.08505E+03 -9.54440E+02
  2.06967E+03  1.51143E+03  3.56449E+02  1.94441E+03 -7.55262E+02  1.31169E+03 -5.52032E+02 -1.37569E+02
 -1.90017E+02 -1.07462E+03  1.53756E+03 -1.11325E+03  9.51635E+02 -1.32510E+03  1.81308E+03  6.08068E+02
  6.47372E+02 -2.38707E+02  6.94951E+02 -5.31189E+02 -4.87866E+02  3.59492E+02  1.20733E+03  1.55869E+02
 -2.23248E+02 -2.49128E+02  1.51478E+03  1.12855E+03  2.47676E+01  1.75754E+03 -4.32532E+02  2.50761E+03
 -1.24826E+03  7.20440E+02 -1.76813E+03  5.47743E+02 -1.88096E+03 -1.11224E+03  1.25319E+02 -9.49060E+02
  4.38364E+02 -9.86971E+02  7.58694E+02 -7.14670E+02  6.46795E+02  1.18731E+03 -1.05499E+03  8.18807E+02
 -1.55118E+03  7.47745E+02 -1.18424E+03 -1.47736E+03 -6.14770E+02 -1.57478E+03  2.97570E+01 -1.10181E+03
  2.66897E+02 -3.31771E+02  3.37102E+02 -1.35862E+02  1.44132E+03  5.19442E+01  5.73185E+01  9.38759E+02
 -4.10300E+02 -3.84821E+02 -4.39086E+02  9.46245E+01  8.82672E+02 -1.44490E+03  1.76393E+03 -1.16323E+03
  1.02895E+03 -3.26521E+02  1.98381E+03  2.92869E+02  1.27465E+03  1.47842E+03  2.28412E+02  2.09628E+03
 -1.48671E+03  2.95534E+02 -1.62955E+03 -3.38625E+02 -4.04476E+02 -1.01921E+03  8.85089E+00 -3.10060E+02
  1.59247E+03 -6.47449E+02  1.05903E+03  7.21476E+02  3.75301E+02  8.86511E+02  4.42331E+02  1.19374E+03
 -1.59637E+02  8.16884E+02 -2.25096E+02 -4.60016E+02  6.73145E+01  9.45155E+02 -4.90078E+02  5.29496E+02
 -1.17366E+02  1.43340E+03 -1.89129E+03  5.67780E+02 -1.84336E+03  1.02253E+02 -2.07349E+03 -1.48096E+03
 -5.91582E+02 -2.08583E+03  1.15751E+02 -2.33925E+03  8.37443E+02 -2.20441E+03  2.49791E+03 -9.51331E+02
  2.30348E+03  1.90146E+02  6.04558E+02  1.17239E+03 -4.98131E+02  1.01003E+03 -5.93590E+02  1.45498E+03
 -8.50633E+02  8.60940E+02 -3.34370E+02  2.87910E+02 -4.33645E+01  6.17385E+02 -5.05540E+02  3.26405E+02
 -1.49830E+03  3.61264E+02 -9.48526E+02  1.72164E+01  1.64775E+01 -6.86511E+02 -2.52809E+02 -6.06069E+02
  1.75825E+03 -7.65374E+02  3.77047E+02  9.14202E+01  1.18418E+03  1.50675E+03 -9.11220E+02  1.45475E+03
 -3.06819E+02  2.12579E+03 -1.67083E+03  1.56749E+03 -1.84027E+03 -6.29502E+02 -1.27344E+03 -8.42165E+02
 -6.95701E+02 -5.24030E+02 -5.09747E+01 -1.00685E+03 -1.20421E+02 -1.60199E+02  4.47988E+02  1.85555E+02
  7.61483E+02  6.98892E+02 -1.03961E+02 -4.10046E+02 -7.95444E+02  4.71098E+02 -2.17186E+01 -1.08361E+02
  4.50540E+02  1.50472E+02  2.71435E+02  6.83845E+02 -2.10367E+02  7.61493E+02  2.47283E+02  2.70372E+02
 -3.83727E+02  4.17905E+02 -3.41427E+02  4.01501E+02 -1.04124E+03 -3.44218E+02 -3.18772E+02 -7.55394E+02
  2.49164E+02 -6.41761E+02  3.34347E+02 -1.35587E+02  1.26353E+03 -7.75611E+02  6.97784E+02  8.34894E+02
  9.69822E+02  3.65870E+02 -1.99003E+02  5.74901E+02 -4.87257E+02  5.23417E+02 -5.97081E+01 -4.73973E+02
 -2.32861E+02 -4.91444E+02 -2.51765E+01  5.46727E+02 -4.18264E+02  3.00869E+02 -3.22249E+02 -7.20590E+02
 -8.79616E+02  3.10072E+02  2.64718E+01 -8.29265E+02  8.46630E+02 -1.26645E+03  6.00186E+02 -4.29122E+02
  5.18216E+02 -9.17340E+01 -1.94721E+02  1.02520E+02  1.00122E+02  4.21020E+02 -2.63080E+02  7.69900E+02
