 $NMID ID='MM_0lb_SNR400_20hz_g60_42.RAW', FMTDAT='(8E13.5)'
 TRAMP=1., VOLUME=1. $END
  3.10004E+05  7.33466E+02  3.37491E+05  2.50645E+05  8.45396E+04  3.37799E+05 -1.32587E+05  2.51215E+05
 -1.89540E+05  8.29030E+04 -1.11460E+05 -3.30193E+04  9.04279E+02 -5.09513E+04  5.38387E+04  9.26947E+01
  3.53288E+04  5.28369E+04 -1.68820E+04  7.50208E+04 -6.02527E+04  6.31887E+04 -8.26545E+04  3.17237E+04
 -7.99891E+04 -1.17355E+04 -5.62798E+04 -5.06421E+04 -1.47035E+04 -6.89957E+04  2.67541E+04 -4.52684E+04
  3.96565E+04  3.84817E+03  1.58300E+04  4.70456E+04 -3.40636E+04  4.63453E+04 -6.56420E+04 -6.96120E+02
 -5.24602E+04 -5.65505E+04 -6.63106E+03 -7.56937E+04  3.32437E+04 -5.45515E+04  4.70124E+04 -1.65433E+04
  4.25076E+04  1.12437E+04  3.16771E+04  2.47915E+04  1.53613E+04  2.84239E+04 -4.72663E+03  2.70865E+04
 -2.14938E+04  1.22744E+04 -1.84883E+04 -3.97788E+03  4.79499E+03 -6.76086E+03  2.18908E+04  1.15622E+04
  7.01606E+03  3.40203E+04 -3.12355E+04  3.44427E+04 -6.14200E+04  1.82664E+03 -5.57131E+04 -4.20871E+04
 -1.23689E+04 -6.15829E+04  3.84856E+04 -4.37784E+04  5.62829E+04 -2.21342E+03  3.22396E+04  3.11358E+04
 -6.34619E+03  3.42935E+04 -2.90186E+04  1.34325E+04 -2.90919E+04 -4.88189E+03 -1.49558E+04 -1.03931E+04
 -7.55337E+03 -1.14799E+04 -9.42487E+02 -1.70176E+04  6.80918E+03 -2.25031E+04  1.53853E+04 -1.34579E+04
  1.18121E+04  4.53435E+03 -6.17665E+03  1.29592E+04 -1.97485E+04 -3.21355E+03 -8.29632E+03 -3.13094E+04
  2.08153E+04 -4.14609E+04  4.54312E+04 -1.89545E+04  4.30310E+04  1.89987E+04  1.45409E+04  4.25238E+04
 -1.59842E+04  3.09417E+04 -2.39154E+04  1.31319E+03 -8.75973E+03 -2.64969E+04  2.05557E+04 -3.21009E+04
  3.82654E+04 -7.69629E+03  3.24602E+04  2.24687E+04  1.60974E+04  4.30303E+04 -8.39884E+03  4.62365E+04
 -2.90334E+04  3.11550E+04 -3.82046E+04  7.92435E+03 -3.93870E+04 -1.53258E+04 -2.16725E+04 -3.54626E+04
  7.19235E+03 -3.43533E+04  3.03150E+04 -1.28278E+04  2.70960E+04  1.10931E+04  3.15818E+03  1.79368E+04
 -1.32974E+04  7.77029E+03 -9.53716E+03 -7.47813E+03  6.07652E+03 -1.03508E+04  1.73211E+04  6.51743E+03
  1.25052E+04  2.23174E+04 -6.70963E+03  2.33300E+04 -2.15356E+04  9.46998E+03 -2.57392E+04 -6.15183E+03
 -1.71596E+04 -1.65122E+04 -6.50952E+03 -1.76115E+04  3.67898E+03 -1.58825E+04  1.27387E+04 -1.48772E+04
  2.22913E+04 -1.23438E+04  2.89849E+04  1.44366E+03  2.17627E+04  1.70955E+04  4.03984E+03  3.29986E+04
 -1.61908E+04  2.78931E+04 -2.60466E+04  1.00542E+04 -1.99432E+04 -1.02807E+04 -4.28883E+03 -1.38573E+04
  3.08675E+03 -4.04321E+03 -3.11347E+03  5.53984E+03 -1.37399E+04  5.44345E+03 -1.37465E+04 -5.23458E+03
 -9.00927E+03 -1.56659E+04  4.30710E+03 -1.96564E+04  1.29528E+04 -1.37590E+04  1.51767E+04 -1.43433E+03
  9.11367E+03  1.13926E+04 -7.17795E+02  1.60181E+04 -1.09605E+04  9.12093E+03 -1.62139E+04 -3.39428E+03
 -1.13674E+04 -1.38547E+04 -1.48558E+03 -1.95959E+04  8.47878E+03 -1.54212E+04  1.64569E+04 -7.61665E+03
  1.49854E+04  2.93078E+02  1.06163E+04  4.24176E+03  5.34813E+03  6.12541E+02  7.72054E+03 -1.50104E+03
  1.42539E+04  2.74769E+03  1.47086E+04  1.29839E+04  9.39912E+03  2.49590E+04 -3.80997E+03  2.70449E+04
 -1.59202E+04  2.06121E+04 -2.47546E+04  9.79973E+03 -2.52426E+04 -1.86231E+03 -2.12483E+04 -1.46379E+04
 -1.02097E+04 -2.01549E+04  6.77093E+03 -1.95277E+04  1.67512E+04 -1.10581E+04  1.59947E+04  3.74268E+03
  6.25006E+03  1.10389E+04 -7.03808E+03  1.04539E+04 -1.35630E+04  3.13230E+03 -1.03449E+04 -7.76147E+03
 -3.08916E+02 -1.22117E+04  6.10953E+03 -9.96861E+03  7.74104E+03 -1.16462E+03  1.71541E+03  4.92815E+03
 -5.22368E+03  1.07126E+03 -3.95742E+03 -4.62243E+03  1.06252E+03 -1.03170E+04  7.94808E+03 -1.02749E+04
  1.22534E+04 -4.83251E+03  1.20159E+04  2.91209E+03  1.05190E+04  9.68665E+03  5.09527E+03  1.37430E+04
 -1.87120E+03  1.58412E+04 -9.62135E+03  9.92804E+03 -1.06504E+04  3.20889E+03 -8.37509E+03 -1.92688E+03
 -4.70691E+03 -2.84129E+03 -8.50890E+02  1.40601E+03 -2.26308E+03  2.37601E+03 -3.30557E+03  3.70091E+03
 -8.06988E+03 -3.56388E+02 -8.55411E+03 -6.48763E+03 -3.45853E+03 -1.13817E+04  2.87254E+03 -8.32245E+03
  7.26157E+03 -3.99440E+03  5.33137E+03  1.89889E+03  8.35122E+02  3.15258E+03 -2.83744E+03  2.75669E+01
 -3.53426E+03 -5.41506E+03 -9.76527E+02 -6.78881E+03  3.36626E+03 -7.97841E+03  9.99602E+03 -3.77046E+03
  1.14626E+04  3.31973E+01  8.56303E+03  5.64789E+03  1.57370E+03  8.59576E+03 -5.16058E+03  8.04803E+03
 -6.94437E+03  2.93161E+03 -3.97483E+03 -7.53765E+02  1.32703E+03 -1.89357E+03  4.80190E+03 -6.95718E+02
  3.57542E+03  3.30681E+03  1.43258E+03  6.01071E+03 -4.59852E+03  6.04385E+03 -7.44605E+03  1.58279E+03
 -4.74451E+03 -3.78474E+03  1.47681E+02 -6.59116E+03  3.25771E+03 -3.21839E+03  3.46327E+03  6.72712E+02
  4.79560E+02  2.76440E+03 -3.39236E+03  4.51999E+03 -4.21334E+03  2.59311E+03 -3.98995E+03 -7.67941E+02
 -2.92814E+03 -5.02712E+03  1.03775E+03 -6.29382E+03  5.34298E+03 -4.07806E+03  5.91149E+03  6.38387E+02
  4.68951E+03  4.86041E+03  1.98867E+02  6.55507E+03 -4.60880E+03  3.78964E+03 -5.03575E+03 -2.35380E+02
 -5.73938E+03 -4.42501E+03 -9.60933E+02 -4.75620E+03  2.31081E+03 -4.49471E+03  2.31535E+03 -2.78214E+03
  2.44720E+03  1.35862E+01 -3.04043E+02  9.90452E+02  4.55809E+02  1.21819E+02  2.26370E+02 -1.65244E+03
  3.90816E+03 -7.09125E+02  4.69581E+03  5.31006E+02  4.82803E+03  2.75824E+03  5.45681E+03  6.73367E+03
 -1.40166E+03  7.63687E+03 -7.15374E+03  5.75042E+03 -8.92644E+03  1.16922E+03 -7.14980E+03 -1.89871E+03
 -3.80532E+03 -6.22005E+03 -1.95371E+02 -4.53958E+03  2.37208E+03 -2.11019E+03  1.63232E+03 -1.91788E+03
  1.33878E+03 -1.07724E+03  1.67981E+03 -1.79641E+03  3.32785E+03 -1.56819E+03  3.86932E+03  9.53651E+02
  4.41826E+03  1.55193E+03  9.20543E+02  3.11026E+03 -1.91801E+03  2.15666E+03 -3.83526E+03  2.00173E+03
 -4.46880E+03 -6.83910E+02 -1.27245E+03 -2.57585E+03  5.90786E+02 -3.73446E+03  3.09380E+03 -4.44721E+03
  4.22013E+03 -2.79050E+03  6.08313E+03 -3.06293E+01  4.89496E+03  4.21299E+03  9.36261E+02  5.13964E+03
 -2.20700E+03  5.44262E+03 -3.12581E+03  1.78476E+03 -2.08609E+03 -1.34042E+03 -4.71984E+02 -9.08845E+02
 -7.48224E+02  8.38687E+02 -8.24221E+02  1.86117E+03 -2.51707E+03  4.51413E+02 -3.57807E+03 -2.96649E+02
 -3.68251E+02 -3.89967E+03  7.58146E+02 -4.32628E+03  2.59335E+03 -4.17825E+03  2.69778E+03 -5.77707E+02
  3.28957E+03  1.64181E+03  1.54593E+03  2.23884E+03  7.76487E+01  3.79859E+03 -2.22103E+03  2.27610E+03
 -2.77152E+03  7.05857E+02 -2.85428E+03 -2.17462E+03 -5.40027E+02 -2.55095E+03  1.34598E+03 -2.00454E+03
  1.57685E+03 -6.93432E+02  1.98263E+03  2.66492E+02  7.10754E+02  1.76856E+03  6.89595E+02  8.35677E+02
  1.30888E+03  6.85827E+02  6.20745E+02  5.61058E+02  1.21802E+03  1.72735E+03  1.78298E+03  1.13538E+03
 -9.70645E+02  2.34519E+03 -1.56680E+03  3.72731E+03 -1.78750E+03  1.40541E+03 -3.30422E+03 -3.52299E+02
 -1.38918E+03 -2.69510E+03  8.69321E+02 -3.90509E+03  1.44816E+03 -1.90833E+03  2.36501E+03 -8.76159E+02
  2.13449E+03  1.86641E+03 -1.14540E+02  1.72030E+03 -5.70300E+02  8.72209E+02 -1.00949E+03  7.98341E+01
 -1.19047E+02 -1.19600E+03  1.69463E+03 -1.18825E+03  9.88554E+02 -5.07261E+02  5.75702E+02  4.27689E+02
  3.95392E+02  2.11600E+02  5.66038E+02  5.69793E+01 -7.91268E+02  4.02212E+02  1.43525E+03 -1.01551E+02
 -4.19486E+02 -1.52800E+01  1.52221E+03  3.51072E+02 -4.17652E+02  2.20611E+03 -1.96192E+01  2.36998E+03
 -1.19966E+03  6.12573E+02 -1.13785E+03  6.53225E+02 -1.91625E+03 -4.80362E+02  2.94086E+01 -1.01698E+03
  5.89058E+02 -8.51562E+02  1.10531E+03 -5.99489E+02  4.86397E+02  1.00818E+03 -5.01364E+02  6.38836E+02
 -9.08653E+02  6.40271E+02 -4.69486E+02 -1.37940E+03 -4.67696E+02 -1.27281E+03  2.28862E+02 -1.03374E+03
  4.03930E+02 -2.46199E+02  7.34858E+02  1.21302E+02  6.32256E+02 -3.50455E+01  3.51418E+02  1.25106E+03
 -6.00367E+02 -4.02948E+01 -4.81344E+02 -2.69598E+02  4.90553E+02 -5.65386E+02  1.52762E+03 -3.82379E+02
  8.34612E+02  3.24149E+02  2.72685E+03 -4.04499E+01  5.60685E+02  1.08824E+03  3.14259E+02  1.66493E+03
 -1.00419E+03 -3.59152E+01 -1.11070E+03  7.89777E+01 -2.99355E+02 -8.39616E+02  2.34292E+02 -4.10716E+02
  1.24486E+03 -3.95354E+02  4.52855E+02  6.84418E+02  3.27948E+02  9.37524E+02  4.01543E+02  1.02252E+03
 -4.04334E+01  1.03638E+03 -6.52450E+02  2.33802E+02  8.60939E+02  9.34411E+02 -3.78527E+02  6.24757E+02
 -5.32742E+02  6.46675E+02 -1.30794E+03  2.02723E+02 -9.89608E+02  5.10701E+01 -1.50924E+03 -5.20460E+02
 -8.69165E+02 -1.69653E+03  7.43808E+02 -1.94593E+03  4.87059E+02 -2.30492E+03  2.45221E+03 -5.55463E+02
  1.61158E+03 -6.06808E+02  7.33184E+02  9.54884E+02 -6.67489E+02  8.16854E+02 -6.19253E+02  9.92483E+02
 -3.63224E+02  2.72446E+02 -4.49451E+02 -7.69460E+00 -9.82567E+02  4.64569E+02 -8.42166E+02 -1.81120E+02
 -9.35451E+02 -2.74180E+02 -4.95478E+02  5.46303E+02  7.20516E+02 -6.70357E+02 -6.14934E+02 -6.39370E+02
  1.41096E+03 -3.40485E+02 -1.20373E+02  8.71597E+01  4.26765E+02  4.04307E+02 -1.08335E+03  9.34828E+02
 -2.05690E+02  1.76418E+03 -1.10911E+03  1.09468E+03 -1.59742E+03  1.59900E+01 -1.28065E+03 -1.32742E+03
 -1.12041E+03 -9.14252E+02 -3.13033E+02 -7.51847E+02  1.71937E+02 -2.72523E+02  2.32043E+02  2.69397E+02
  4.39813E+02  1.32283E+02  1.66831E+02  2.08314E+02 -3.11128E+02  7.13504E+01  7.25018E+02  2.00576E+02
  9.05417E+02  4.76052E+02  1.41237E+02  3.49651E+02 -4.53369E+02  8.19647E+00 -3.66291E+01  1.34016E+02
 -1.29102E+02  7.18642E+02  3.97427E+02  2.70353E+01 -2.37823E+02 -7.62764E+01  2.32129E+02 -6.27320E+02
  1.37559E+02 -1.23556E+02 -3.99045E+02  1.12443E+02  1.36743E+03 -6.31481E+02  4.66745E+02 -6.75814E+01
  7.85055E+02  2.09530E+02  1.86264E+02  7.97627E+02 -7.23694E+01  5.94007E+02  8.73024E+01  6.95103E+02
 -3.91497E+02 -5.60296E+01 -1.31034E+02  4.25179E+02 -5.20329E+02  1.79835E+02 -9.46023E+02 -3.56627E+02
 -8.59437E+02  1.20637E+03 -5.85559E+02 -3.21492E+02  3.57478E+02 -1.19984E+03  3.77847E+02 -2.70259E+02
  2.65538E+02  4.74932E+02 -7.69918E+02  2.08555E+02 -3.65457E+01  2.37037E+02 -7.46387E+01  4.47271E+02
