 $NMID ID='MM_0lb_SNR400_12hz_g60_55.RAW', FMTDAT='(8E13.5)'
 TRAMP=1., VOLUME=1. $END
  3.10530E+05  4.88513E+02  3.38113E+05  2.50233E+05  8.52186E+04  3.38169E+05 -1.33103E+05  2.51816E+05
 -1.90578E+05  8.33153E+04 -1.12491E+05 -3.20102E+04 -4.06418E+00 -5.12181E+04  5.40685E+04 -1.11352E+03
  3.55888E+04  5.28078E+04 -1.70798E+04  7.64271E+04 -6.15517E+04  6.48837E+04 -8.51714E+04  3.22017E+04
 -8.17823E+04 -1.08889E+04 -5.79077E+04 -5.20175E+04 -1.49080E+04 -7.07831E+04  2.79847E+04 -4.74825E+04
  4.13592E+04  4.03162E+03  1.74434E+04  4.83909E+04 -3.47851E+04  4.82288E+04 -6.71928E+04  5.45279E+01
 -5.45224E+04 -5.72995E+04 -6.43966E+03 -7.88702E+04  3.46479E+04 -5.64706E+04  4.90970E+04 -1.85825E+04
  4.45746E+04  1.15316E+04  3.28185E+04  2.63876E+04  1.55505E+04  3.03440E+04 -5.26218E+03  2.77723E+04
 -2.25676E+04  1.17202E+04 -1.81130E+04 -5.71262E+03  6.59576E+03 -6.61406E+03  2.38887E+04  1.33539E+04
  7.16030E+03  3.61401E+04 -3.38767E+04  3.64942E+04 -6.54834E+04  1.29547E+03 -5.83473E+04 -4.48005E+04
 -1.30191E+04 -6.51605E+04  4.16724E+04 -4.67508E+04  6.07982E+04 -2.36724E+03  3.56468E+04  3.32609E+04
 -5.56727E+03  3.88755E+04 -3.10667E+04  1.80665E+04 -3.31016E+04 -3.39720E+03 -1.84729E+04 -1.18529E+04
 -8.84391E+03 -1.39180E+04 -7.64616E+02 -1.84876E+04  8.73055E+03 -2.28859E+04  1.53501E+04 -1.30467E+04
  1.08033E+04  6.48988E+03 -1.00258E+04  1.32764E+04 -2.28903E+04 -6.39840E+03 -9.20961E+03 -3.69095E+04
  2.40534E+04 -4.58830E+04  5.10059E+04 -2.08721E+04  4.72101E+04  2.01426E+04  1.68084E+04  4.59101E+04
 -1.66121E+04  3.53607E+04 -2.70143E+04  2.68597E+03 -1.09903E+04 -2.88595E+04  2.14610E+04 -3.60265E+04
  4.39895E+04 -1.08294E+04  3.94870E+04  2.45213E+04  2.04716E+04  4.95108E+04 -7.83831E+03  5.38973E+04
 -3.37881E+04  3.70751E+04 -4.59937E+04  1.09112E+04 -4.62652E+04 -1.78319E+04 -2.51746E+04 -4.12773E+04
  7.77108E+03 -4.06235E+04  3.30405E+04 -1.69315E+04  3.14971E+04  1.10053E+04  4.84715E+03  1.99659E+04
 -1.40202E+04  8.94731E+03 -1.08703E+04 -7.14503E+03  5.43099E+03 -1.14754E+04  1.90924E+04  6.04202E+03
  1.43213E+04  2.22206E+04 -5.74356E+03  2.64631E+04 -2.31045E+04  1.36648E+04 -3.01112E+04 -3.81111E+03
 -2.33062E+04 -1.80249E+04 -1.11509E+04 -2.34243E+04  4.30527E+03 -2.31633E+04  1.81692E+04 -2.14494E+04
  2.96026E+04 -1.35487E+04  3.56379E+04  4.29205E+03  2.66187E+04  2.27558E+04  4.68116E+03  3.93399E+04
 -1.95955E+04  3.25233E+04 -2.98972E+04  1.12119E+04 -2.18087E+04 -1.07125E+04 -4.06132E+03 -1.28816E+04
  1.81883E+03 -1.51821E+03 -7.29569E+03  7.63514E+03 -1.94521E+04  5.02655E+03 -1.90106E+04 -9.18294E+03
 -1.12042E+04 -2.13511E+04  5.94594E+03 -2.63882E+04  1.77812E+04 -1.87698E+04  2.07563E+04 -1.70636E+03
  1.28037E+04  1.49126E+04 -1.39245E+03  2.15984E+04 -1.49109E+04  1.19371E+04 -2.21008E+04 -5.12578E+03
 -1.61802E+04 -2.03885E+04 -1.06345E+03 -2.61598E+04  1.19578E+04 -2.14055E+04  2.17882E+04 -1.09066E+04
  2.05982E+04 -3.04595E+02  1.44418E+04  5.50491E+03  8.39399E+03  9.50143E+02  1.08114E+04 -1.61033E+03
  1.98223E+04  2.59241E+03  2.28676E+04  1.74467E+04  1.59490E+04  3.46787E+04 -2.28035E+03  4.06196E+04
 -2.37371E+04  3.25670E+04 -3.76606E+04  1.66972E+04 -4.00631E+04 -3.01070E+03 -3.36674E+04 -2.37283E+04
 -1.36046E+04 -3.34352E+04  1.11409E+04 -2.94014E+04  2.56930E+04 -1.36791E+04  2.18864E+04  7.30004E+03
  7.45328E+03  1.70058E+04 -1.14728E+04  1.47171E+04 -1.79419E+04  2.66472E+03 -1.47960E+04 -1.19946E+04
 -4.67261E+02 -1.76153E+04  8.88306E+03 -1.31375E+04  1.25071E+04 -9.89781E+02  2.90705E+03  7.76837E+03
 -8.28167E+03  3.02291E+03 -7.87881E+03 -6.21021E+03 -1.22796E+03 -1.68484E+04  1.10584E+04 -1.76047E+04
  2.05391E+04 -9.57970E+03  2.35142E+04  3.99368E+03  1.97755E+04  1.62874E+04  9.48063E+03  2.54867E+04
 -4.80919E+03  2.72965E+04 -1.83687E+04  1.72332E+04 -2.00960E+04  3.76860E+03 -1.33561E+04 -4.72640E+03
 -6.04781E+03 -6.43650E+03 -8.84574E+02  2.91511E+02 -2.74852E+03  3.92553E+03 -6.01166E+03  4.48126E+03
 -1.18167E+04 -9.24142E+02 -1.34294E+04 -1.04929E+04 -5.32373E+03 -1.74079E+04  5.85902E+03 -1.38674E+04
  1.12660E+04 -6.00654E+03  7.56666E+03  4.46751E+03  3.67047E+02  5.66995E+03 -6.37514E+03 -9.89787E+01
 -6.62639E+03 -8.94470E+03 -1.34014E+03 -1.29130E+04  8.04906E+03 -1.46832E+04  1.78771E+04 -7.87188E+03
  2.03400E+04  1.64290E+03  1.49589E+04  1.15656E+04  3.49538E+03  1.61802E+04 -8.62510E+03  1.41555E+04
 -1.17642E+04  4.44581E+03 -5.58919E+03 -2.79500E+03  2.55062E+03 -4.37062E+03  7.31840E+03 -6.35566E+02
  6.59180E+03  5.02264E+03  7.42708E+02  1.17898E+04 -8.15399E+03  9.93595E+03 -1.39342E+04  2.57099E+03
 -9.05728E+03 -7.10312E+03 -2.70258E+02 -1.22490E+04  7.61663E+03 -5.54305E+03  8.09036E+03  2.85895E+03
  2.62548E+03  7.39918E+03 -7.31818E+03  1.00844E+04 -1.06441E+04  3.96455E+03 -1.10575E+04 -4.47451E+03
 -6.20243E+03 -1.32754E+04  2.70532E+03 -1.51961E+04  1.23355E+04 -8.66120E+03  1.42366E+04  3.12500E+03
  8.59537E+03  1.09559E+04 -6.87978E+02  1.37446E+04 -1.02115E+04  8.12291E+03 -1.14501E+04 -9.62490E+02
 -9.29323E+03 -8.66180E+03 -2.09194E+03 -9.93485E+03  4.49311E+03 -7.96545E+03  5.82290E+03 -3.27168E+03
  4.89393E+03  1.25508E+03 -1.02566E+03  2.02504E+03 -6.68733E+01 -1.76756E+03  2.09789E+03 -5.18839E+03
  9.48480E+03 -3.51324E+03  1.25090E+04  7.98420E+02  1.23415E+04  8.73425E+03  8.62065E+03  1.75306E+04
 -3.83283E+03  1.90869E+04 -1.61660E+04  1.42256E+04 -2.11182E+04  2.72575E+03 -1.69484E+04 -6.39389E+03
 -8.67070E+03 -1.33194E+04 -8.11790E+01 -1.16434E+04  3.93266E+03 -6.57729E+03  4.71924E+03 -4.04092E+03
  3.15115E+03 -1.93332E+03  2.89636E+03 -2.87182E+03  5.17264E+03 -3.16523E+03  6.71854E+03 -1.37933E+03
  9.00039E+03  1.67548E+03  4.57357E+03  7.02429E+03 -2.48097E+03  8.38811E+03 -8.79541E+03  6.71426E+03
 -1.17358E+04 -6.32556E+02 -6.86482E+03 -7.45078E+03 -1.04537E+03 -1.17057E+04  7.82266E+03 -1.24161E+04
  1.32401E+04 -7.65660E+03  1.60240E+04  1.86220E+03  1.06605E+04  1.00338E+04  1.88344E+03  1.36262E+04
 -5.60617E+03  1.15685E+04 -9.08774E+03  3.65133E+03 -4.99169E+03 -1.76544E+03 -1.94787E+03 -1.43137E+03
 -7.72272E+02 -1.55258E+02 -1.45150E+03  2.87984E+03 -5.17501E+03  2.18360E+03 -8.06597E+03 -1.36123E+03
 -5.27650E+03 -8.25122E+03  5.50434E+02 -1.16268E+04  6.86601E+03 -1.06317E+04  1.11039E+04 -3.83341E+03
  1.11145E+04  5.96821E+03  4.73645E+03  9.49345E+03 -2.76884E+03  1.14091E+04 -7.64392E+03  6.93666E+03
 -1.04151E+04  3.99519E+02 -8.20427E+03 -6.81701E+03 -8.16377E+02 -9.14988E+03  4.58098E+03 -7.07062E+03
  6.56268E+03 -2.59801E+03  4.14079E+03  1.31732E+03  1.39936E+03  3.41117E+03  1.20840E+03  1.10245E+03
  2.59153E+03  3.58737E+02  2.96903E+03  1.34620E+02  3.42510E+03  2.92496E+03  3.73468E+03  6.07004E+03
 -2.89348E+03  8.16412E+03 -7.87128E+03  8.83641E+03 -9.97610E+03  2.47236E+03 -1.10372E+04 -4.52608E+03
 -5.45630E+03 -1.03770E+04  2.20968E+03 -1.15324E+04  6.70216E+03 -7.50552E+03  9.63906E+03 -1.74276E+03
  7.98284E+03  4.26702E+03  1.77816E+03  6.10554E+03 -2.90739E+03  3.55332E+03 -3.98092E+03 -1.36210E+03
 -1.44387E+03 -4.87313E+03  2.63922E+03 -3.93752E+03  4.43191E+03 -2.18653E+03  4.76270E+03  1.21977E+03
  2.40643E+03  1.78123E+03  1.39861E+03  1.80510E+03 -6.47960E+02  1.33636E+03  9.00256E+02 -6.57166E+02
  1.58666E+03 -1.10462E+03  4.59608E+03  2.35614E+03  2.17112E+03  5.53382E+03 -6.05539E+02  7.57179E+03
 -5.70388E+03  4.31272E+03 -6.77975E+03  1.16372E+03 -6.69472E+03 -1.99166E+03 -2.66102E+03 -3.77917E+03
  3.80177E+02 -3.93513E+03  2.87686E+03 -2.50702E+03  2.32120E+03  2.01789E+03 -1.24237E+03  3.38122E+03
 -4.57294E+03  1.65570E+03 -4.60917E+03 -2.59716E+03 -3.10441E+03 -6.25914E+03  1.19159E+03 -5.34160E+03
  2.94581E+03 -3.48541E+03  3.39210E+03 -7.27209E+01  3.83178E+03  1.96739E+03  1.28922E+03  3.57836E+03
 -1.87769E+03  6.45015E+02 -2.53303E+03 -1.63215E+03  1.19026E+03 -4.29017E+03  5.40202E+03 -3.43632E+03
  6.36478E+03  7.44783E+02  6.14384E+03  3.93116E+03  2.73815E+03  6.39618E+03 -1.72809E+03  6.08609E+03
 -5.33594E+03  2.01143E+03 -5.93966E+03 -1.39637E+03 -2.59637E+03 -3.87435E+03  3.07679E+02 -4.01550E+03
  4.17491E+03 -2.40173E+03  3.89798E+03  1.27965E+03  9.07579E+02  4.57353E+03  3.14462E+01  4.03510E+03
 -2.43871E+03  2.84791E+03 -1.59042E+03  1.08639E+03 -5.41076E+02  4.98909E+02 -1.48195E+03  2.09824E+03
 -1.33300E+03  2.49047E+03 -4.28719E+03  2.32615E+03 -6.44279E+03  9.24146E+01 -7.54428E+03 -4.03311E+03
 -3.31726E+03 -8.54051E+03  1.03945E+03 -9.64262E+03  5.59688E+03 -7.04813E+03  9.32344E+03 -3.46340E+03
  8.90257E+03  1.52865E+03  4.98366E+03  5.93100E+03 -4.51717E+02  6.46337E+03 -2.23395E+03  4.65456E+03
 -3.17559E+03  1.92865E+03 -2.10293E+03 -1.23152E+03 -9.04725E+02 -8.90893E+02 -8.36417E+02  5.26833E+02
 -1.45142E+03 -7.68631E+01 -1.31457E+03 -3.26351E+01  1.39723E+02 -1.75828E+03  1.14358E+02 -3.70091E+03
  3.56001E+03 -1.57834E+03  3.25774E+03  2.55241E+02  4.23582E+03  3.23014E+03  1.34823E+03  6.51543E+03
 -3.13049E+03  6.64043E+03 -6.31874E+03  4.17639E+03 -8.27817E+03 -1.02186E+03 -5.36928E+03 -4.69462E+03
 -2.23303E+03 -5.85790E+03  1.73150E+03 -5.96479E+03  3.36655E+03 -2.46659E+03  4.01612E+03  4.35821E+02
  2.57053E+03  1.46098E+03 -1.75034E+02  1.47930E+03 -1.90100E+03  3.36056E+01 -1.77360E+02 -1.19718E+03
  1.77191E+03 -1.20279E+03  2.02795E+03  7.12355E+02  1.45846E+03  2.39932E+03  4.45423E+02  3.36043E+03
 -2.53222E+03  3.05319E+03 -3.90263E+03  3.39404E+02 -3.15987E+03 -2.50284E+03 -1.11836E+03 -4.68411E+03
  3.01494E+03 -3.54184E+03  4.46002E+03 -8.75593E+02  5.08784E+03  5.81032E+02  2.00792E+03  3.47923E+03
  3.78086E+02  4.24393E+03 -1.35776E+03  3.16230E+03 -1.63550E+03  2.11109E+03 -1.84071E+03 -8.90917E+02
 -1.16962E+03 -4.39250E+02 -1.34997E+03  1.43533E+02 -1.75633E+03  7.76502E+02 -3.00293E+03 -1.18901E+03
 -3.22177E+03 -2.01920E+03 -7.47078E+02 -4.10125E+03  1.90755E+03 -4.73175E+03  3.36579E+03 -1.88570E+03
  4.34238E+03  1.32527E+03  1.46710E+03  2.64748E+03  5.60543E+02  3.29931E+03 -3.13625E+03  3.08346E+03
