 $NMID ID='MM_0lb_SNR400_15hz_g50_74.RAW', FMTDAT='(8E13.5)'
 TRAMP=1., VOLUME=1. $END
  3.09820E+05  7.66730E+02  3.37906E+05  2.51053E+05  8.51988E+04  3.38378E+05 -1.32496E+05  2.51169E+05
 -1.90803E+05  8.30108E+04 -1.12094E+05 -3.28731E+04  9.43226E+02 -5.09255E+04  5.38855E+04 -8.64344E+01
  3.53687E+04  5.32084E+04 -1.68584E+04  7.55591E+04 -6.05665E+04  6.32556E+04 -8.40163E+04  3.19055E+04
 -8.05348E+04 -1.12269E+04 -5.68845E+04 -5.12817E+04 -1.47291E+04 -6.96837E+04  2.72503E+04 -4.55198E+04
  4.00277E+04  3.11928E+03  1.62952E+04  4.70374E+04 -3.41458E+04  4.69795E+04 -6.67038E+04  6.04744E+01
 -5.32199E+04 -5.71860E+04 -6.55046E+03 -7.72332E+04  3.37765E+04 -5.41561E+04  4.76364E+04 -1.69064E+04
  4.34312E+04  1.06514E+04  3.17004E+04  2.52288E+04  1.55236E+04  2.87427E+04 -5.59509E+03  2.72641E+04
 -2.29479E+04  1.31499E+04 -1.88198E+04 -4.59912E+03  5.59241E+03 -7.93744E+03  2.31097E+04  1.18557E+04
  7.53709E+03  3.52047E+04 -3.19021E+04  3.48086E+04 -6.28151E+04  2.37765E+03 -5.63023E+04 -4.21275E+04
 -1.22436E+04 -6.28109E+04  3.97629E+04 -4.52179E+04  5.77046E+04 -1.73878E+03  3.37267E+04  3.19647E+04
 -6.42833E+03  3.59084E+04 -2.98426E+04  1.55571E+04 -2.94941E+04 -4.88962E+03 -1.68166E+04 -1.08386E+04
 -8.22751E+03 -1.29395E+04 -5.05870E+02 -1.74672E+04  7.41533E+03 -2.25931E+04  1.53430E+04 -1.30043E+04
  1.17609E+04  4.98723E+03 -8.11703E+03  1.28028E+04 -2.02786E+04 -3.99030E+03 -8.00200E+03 -3.35351E+04
  2.21492E+04 -4.32448E+04  4.75482E+04 -2.00990E+04  4.51119E+04  1.98355E+04  1.52646E+04  4.37289E+04
 -1.64721E+04  3.30120E+04 -2.54043E+04  2.38587E+03 -9.20176E+03 -2.79833E+04  2.11220E+04 -3.35937E+04
  4.08963E+04 -9.00929E+03  3.47648E+04  2.34651E+04  1.79587E+04  4.54912E+04 -8.41738E+03  4.92372E+04
 -3.14442E+04  3.26111E+04 -4.12815E+04  9.61158E+03 -4.14126E+04 -1.66254E+04 -2.28593E+04 -3.80267E+04
  7.21361E+03 -3.70615E+04  3.08614E+04 -1.41595E+04  2.88756E+04  1.11210E+04  3.35561E+03  1.93540E+04
 -1.33305E+04  8.47959E+03 -1.00564E+04 -7.31019E+03  6.14277E+03 -1.08704E+04  1.83916E+04  6.27238E+03
  1.30663E+04  2.13557E+04 -6.01685E+03  2.48421E+04 -2.20227E+04  1.09083E+04 -2.71854E+04 -5.38311E+03
 -2.03743E+04 -1.61766E+04 -7.27554E+03 -1.98710E+04  4.13477E+03 -1.85093E+04  1.55078E+04 -1.78616E+04
  2.51690E+04 -1.21043E+04  3.17772E+04  2.64118E+03  2.32296E+04  1.94380E+04  4.37179E+03  3.57434E+04
 -1.71850E+04  2.99693E+04 -2.80786E+04  1.03144E+04 -2.10727E+04 -1.06417E+04 -4.46015E+03 -1.33222E+04
  1.91338E+03 -3.25201E+03 -4.18632E+03  6.06886E+03 -1.56414E+04  5.22940E+03 -1.59071E+04 -6.14988E+03
 -9.52979E+03 -1.87883E+04  4.94798E+03 -2.26527E+04  1.48474E+04 -1.58263E+04  1.76174E+04 -1.68506E+03
  1.07090E+04  1.25181E+04 -1.01923E+03  1.81828E+04 -1.22619E+04  1.05676E+04 -1.86487E+04 -3.28124E+03
 -1.36851E+04 -1.65789E+04 -1.58152E+03 -2.22269E+04  9.75258E+03 -1.78422E+04  1.80167E+04 -8.58163E+03
  1.68574E+04  6.06771E+02  1.18464E+04  4.00625E+03  6.08578E+03  1.09377E+03  8.78115E+03 -1.48570E+03
  1.70176E+04  2.52172E+03  1.92610E+04  1.43735E+04  1.16567E+04  2.86424E+04 -2.90962E+03  3.27998E+04
 -1.85520E+04  2.65261E+04 -3.01148E+04  1.30725E+04 -3.23359E+04 -1.94586E+03 -2.69358E+04 -1.85268E+04
 -1.13812E+04 -2.60356E+04  8.30882E+03 -2.33891E+04  2.06247E+04 -1.19469E+04  1.88787E+04  4.97836E+03
  6.91406E+03  1.39075E+04 -9.19461E+03  1.23223E+04 -1.57569E+04  2.67468E+03 -1.27057E+04 -8.96318E+03
 -3.09523E+02 -1.42364E+04  7.40992E+03 -1.12299E+04  9.46020E+03 -1.40269E+03  2.10261E+03  7.04797E+03
 -6.26799E+03  2.26409E+03 -5.24264E+03 -5.38882E+03 -3.12548E+02 -1.27812E+04  8.71780E+03 -1.30859E+04
  1.55526E+04 -7.23800E+03  1.72426E+04  3.12143E+03  1.44507E+04  1.19364E+04  7.01456E+03  1.96411E+04
 -2.85535E+03  2.06221E+04 -1.29988E+04  1.32911E+04 -1.54158E+04  2.92827E+03 -1.07577E+04 -3.25102E+03
 -5.33520E+03 -4.79530E+03 -1.01118E+03  1.12214E+03 -2.35224E+03  3.04906E+03 -5.29939E+03  3.74312E+03
 -1.00015E+04 -8.68299E+02 -1.03271E+04 -8.82557E+03 -4.24930E+03 -1.41473E+04  4.56085E+03 -1.07287E+04
  8.96026E+03 -4.22829E+03  6.38791E+03  2.70138E+03  4.93799E+02  4.44404E+03 -4.42098E+03  1.05162E+02
 -4.92714E+03 -6.44618E+03 -1.32699E+03 -9.63981E+03  5.62753E+03 -1.07392E+04  1.32766E+04 -5.01717E+03
  1.51743E+04  1.85246E+03  1.14634E+04  8.90109E+03  2.09871E+03  1.15162E+04 -7.10766E+03  1.04867E+04
 -8.41135E+03  3.19722E+03 -4.58902E+03 -1.83237E+03  2.01006E+03 -2.95470E+03  6.62725E+03 -1.02162E+03
  5.54645E+03  4.41724E+03  9.34227E+02  8.07766E+03 -6.68809E+03  7.64631E+03 -1.05799E+04  1.74024E+03
 -6.59128E+03 -5.41829E+03  4.88737E+02 -8.76673E+03  5.66934E+03 -4.87868E+03  5.55140E+03  1.78980E+03
  1.20149E+03  5.35940E+03 -4.95502E+03  6.76423E+03 -7.71257E+03  2.54566E+03 -7.38175E+03 -2.62369E+03
 -4.72825E+03 -8.58768E+03  2.31220E+03 -1.06087E+04  9.13901E+03 -6.18908E+03  9.88605E+03  1.67648E+03
  6.05686E+03  7.85027E+03 -2.75914E+02  9.50690E+03 -7.17736E+03  5.60953E+03 -7.21665E+03 -9.06861E+02
 -7.07797E+03 -6.56573E+03 -1.39187E+03 -6.96974E+03  3.24406E+03 -6.79598E+03  4.25324E+03 -4.15061E+03
  3.35244E+03  3.12334E+02  1.60686E+02  1.51390E+03 -3.63760E+02 -8.74238E+02  6.67619E+02 -3.41450E+03
  6.21119E+03 -1.68541E+03  8.15730E+03  1.43688E+03  8.47043E+03  5.09271E+03  6.67448E+03  1.07288E+04
 -2.44534E+03  1.32532E+04 -1.13318E+04  1.02577E+04 -1.43837E+04  1.72063E+03 -1.07539E+04 -4.01942E+03
 -5.21872E+03 -9.37235E+03 -8.56266E+02 -7.60097E+03  3.21476E+03 -3.23577E+03  2.94408E+03 -2.76767E+03
  2.71403E+03 -1.22425E+03  2.47210E+03 -2.95058E+03  4.47083E+03 -2.41365E+03  5.08012E+03 -1.38411E+02
  5.64321E+03  1.89124E+03  2.47582E+03  5.52145E+03 -1.45711E+03  5.29060E+03 -5.80622E+03  4.33040E+03
 -7.00295E+03 -9.55018E+02 -4.15253E+03 -5.46603E+03 -9.59674E+00 -7.45768E+03  4.48214E+03 -7.83411E+03
  8.84527E+03 -4.42124E+03  1.00392E+04  1.09948E+03  6.71000E+03  6.80947E+03  1.34267E+03  9.54918E+03
 -3.33919E+03  8.60546E+03 -5.44855E+03  2.96081E+03 -3.29708E+03 -1.06325E+03 -8.83676E+02 -9.11651E+02
 -3.35082E+02  5.09443E+02 -8.13158E+02  2.00128E+03 -3.43032E+03  1.35623E+03 -5.95893E+03 -9.49634E+02
 -3.28308E+03 -5.34426E+03  6.62498E+02 -6.99498E+03  4.17728E+03 -6.98964E+03  6.22956E+03 -2.03021E+03
  6.89751E+03  3.64912E+03  3.10895E+03  5.38423E+03 -1.08593E+03  7.35149E+03 -5.17382E+03  4.32747E+03
 -6.09285E+03 -1.65197E+01 -5.15437E+03 -4.00736E+03 -5.94401E+02 -4.97694E+03  3.19501E+03 -4.06672E+03
  4.34158E+03 -2.10405E+03  3.22775E+03  1.11377E+03  7.32444E+02  2.67829E+03  1.44551E+03  9.40958E+02
  1.73020E+03  1.07591E+03  1.58922E+03  1.64728E+03  2.27171E+03  3.15543E+03  2.10367E+03  3.24782E+03
 -1.97280E+03  5.36134E+03 -4.89577E+03  6.11602E+03 -5.96291E+03  1.53701E+03 -6.52249E+03 -1.88875E+03
 -3.62583E+03 -6.80310E+03  9.15179E+02 -8.38320E+03  3.84359E+03 -4.76666E+03  5.51370E+03 -8.03675E+02
  3.99915E+03  2.55615E+03  1.46691E+03  3.63600E+03 -1.64899E+03  2.32442E+03 -2.74471E+03 -3.93129E+02
 -1.00610E+03 -3.14496E+03  1.81543E+03 -2.36742E+03  2.73018E+03 -2.15095E+03  2.33044E+03  2.75627E+02
  1.82656E+03  1.05626E+03  9.07455E+02  5.61734E+02 -1.22022E+02  8.66907E+02  1.54247E+03 -4.42461E+02
  3.84443E+02 -7.31734E+02  3.21794E+03  1.35648E+03  6.30113E+02  4.12717E+03 -6.57439E+02  4.72266E+03
 -3.31396E+03  2.47992E+03 -4.28817E+03  5.09877E+02 -3.53395E+03 -1.48769E+03 -8.64065E+02 -2.02106E+03
  7.61454E+02 -2.38251E+03  1.44217E+03 -1.36091E+03  1.34613E+03  2.02716E+03 -9.74024E+02  1.68660E+03
 -2.22666E+03  1.36596E+03 -2.48262E+03 -1.94600E+03 -1.38238E+03 -3.90672E+03  4.88182E+02 -3.09031E+03
  1.17543E+03 -1.41768E+03  2.59228E+03  4.73476E+02  2.15221E+03  5.21827E+02  2.04383E+02  1.49379E+03
 -1.02243E+03  4.98951E+02 -1.37104E+03 -8.61922E+02  3.67366E+02 -2.49600E+03  2.89906E+03 -1.61711E+03
  3.64318E+03  2.25263E+01  4.72333E+03  2.29708E+03  1.74035E+03  3.43864E+03 -1.13415E+03  3.52890E+03
 -2.62503E+03  8.17505E+02 -2.67492E+03 -2.40491E+02 -1.70398E+03 -2.75253E+03  7.59003E+02 -2.03166E+03
  2.25893E+03 -1.44802E+03  2.07499E+03  1.19217E+03  5.57317E+02  2.00091E+03  6.38189E+02  1.61159E+03
 -3.34892E+02  1.27405E+03 -5.14521E+02  6.26340E+02 -8.50717E+01  6.28747E+02 -5.47553E+02  6.03602E+02
 -6.61057E+02  1.46572E+03 -3.10144E+03  9.28202E+02 -3.34313E+03  5.14854E+02 -3.97023E+03 -2.20307E+03
 -2.51425E+03 -4.56839E+03  7.15823E+02 -5.03420E+03  2.32122E+03 -4.71861E+03  5.25424E+03 -1.13351E+03
  4.94517E+03  5.44930E+02  2.88584E+03  3.31676E+03 -4.06761E+02  2.94431E+03 -1.73598E+03  3.34517E+03
 -2.30019E+03  9.55325E+02 -1.15902E+03 -1.17628E+02 -6.06751E+02 -3.84219E+02 -1.20482E+03 -1.38045E+02
 -1.38922E+03  1.87242E+02 -1.25068E+03 -3.63145E+02  3.11613E+02 -7.18755E+02 -4.20919E+02 -1.64463E+03
  2.02811E+03 -1.10752E+03  1.29217E+03  6.30955E+02  2.70186E+03  1.98418E+03  1.10268E+02  2.80838E+03
 -1.50214E+03  3.97227E+03 -3.24312E+03  2.66470E+03 -4.14780E+03 -5.65650E+02 -2.06881E+03 -2.31742E+03
 -1.07532E+03 -3.04279E+03  7.36280E+02 -2.69570E+03  1.75499E+03 -1.47461E+03  1.87242E+03  4.73208E+02
  1.02950E+03  7.76660E+02 -7.35433E+02  1.03558E+03 -2.31352E+02  6.18847E+02  7.17481E+00 -3.68133E+02
  9.54615E+02 -2.36635E+02  9.36221E+02  3.96217E+02  3.91319E+02  1.06036E+03  5.49749E+02  1.44436E+03
 -1.85644E+03  1.28261E+03 -1.24654E+03  2.67516E+02 -1.65853E+03 -1.58620E+03  6.02329E+02 -1.97569E+03
  1.43948E+03 -2.58318E+03  1.98776E+03  1.11084E+02  2.53733E+03  2.38538E+02  7.99125E+02  2.19264E+03
  7.87697E+02  1.84444E+03 -2.36352E+02  1.31564E+03 -1.27295E+03  1.35973E+03 -9.10992E+02  9.11437E+01
 -9.71587E+02 -1.42642E+02 -7.54747E+02  4.23017E+02 -1.41670E+03  2.97524E+02 -1.35512E+03 -9.34637E+01
 -1.33895E+03  1.42947E+02 -1.53088E+02 -1.78906E+03  1.04978E+03 -2.22564E+03  1.77601E+03 -8.50823E+02
  1.80327E+03  6.82898E+01  5.97962E+02  1.58576E+03 -2.57526E+02  2.02471E+03 -9.36967E+02  1.54870E+03
