 $NMID ID='MM_0lb_SNR400_16hz_g55_94.RAW', FMTDAT='(8E13.5)'
 TRAMP=1., VOLUME=1. $END
  3.09602E+05 -9.17725E+01  3.37469E+05  2.50857E+05  8.49627E+04  3.38185E+05 -1.32145E+05  2.50657E+05
 -1.89546E+05  8.31533E+04 -1.11488E+05 -3.24300E+04  1.08581E+03 -5.07676E+04  5.34793E+04 -2.04623E+02
  3.50990E+04  5.28948E+04 -1.68926E+04  7.55841E+04 -6.02705E+04  6.36369E+04 -8.37541E+04  3.22382E+04
 -8.05437E+04 -1.16142E+04 -5.72752E+04 -5.10782E+04 -1.50003E+04 -6.94230E+04  2.77218E+04 -4.53829E+04
  4.01203E+04  3.98469E+03  1.60793E+04  4.78098E+04 -3.41313E+04  4.68708E+04 -6.57524E+04 -5.95826E+01
 -5.33852E+04 -5.66129E+04 -7.46243E+03 -7.69536E+04  3.36245E+04 -5.47001E+04  4.75127E+04 -1.66748E+04
  4.31996E+04  1.18455E+04  3.15152E+04  2.57572E+04  1.54054E+04  2.91807E+04 -5.57254E+03  2.70966E+04
 -2.18869E+04  1.28118E+04 -1.82287E+04 -4.96582E+03  5.51318E+03 -7.65644E+03  2.23949E+04  1.23038E+04
  7.06814E+03  3.49244E+04 -3.11878E+04  3.54747E+04 -6.33014E+04  1.64509E+03 -5.72814E+04 -4.24856E+04
 -1.27380E+04 -6.26415E+04  3.94894E+04 -4.52612E+04  5.76425E+04 -2.67965E+03  3.41348E+04  3.17264E+04
 -6.36954E+03  3.52824E+04 -2.95319E+04  1.51334E+04 -2.96392E+04 -4.50858E+03 -1.67936E+04 -1.02694E+04
 -8.64745E+03 -1.26390E+04 -5.95149E+02 -1.83572E+04  7.46337E+03 -2.33963E+04  1.51702E+04 -1.37509E+04
  1.17844E+04  5.15281E+03 -8.30145E+03  1.31910E+04 -2.13056E+04 -3.93190E+03 -8.05100E+03 -3.34884E+04
  2.21399E+04 -4.32627E+04  4.69656E+04 -2.00643E+04  4.46659E+04  1.94703E+04  1.57385E+04  4.37448E+04
 -1.58394E+04  3.26217E+04 -2.50742E+04  2.02456E+03 -1.00674E+04 -2.77094E+04  2.02800E+04 -3.28217E+04
  4.04397E+04 -8.54321E+03  3.50576E+04  2.34974E+04  1.73731E+04  4.58090E+04 -7.88576E+03  4.89937E+04
 -3.09596E+04  3.26830E+04 -4.11913E+04  9.64534E+03 -4.20010E+04 -1.60174E+04 -2.36167E+04 -3.77478E+04
  8.09110E+03 -3.70280E+04  3.13884E+04 -1.41760E+04  2.86736E+04  1.07723E+04  3.94202E+03  1.89230E+04
 -1.35696E+04  7.88563E+03 -1.01894E+04 -7.55160E+03  5.42052E+03 -1.09138E+04  1.73322E+04  6.36540E+03
  1.30848E+04  2.16498E+04 -6.62585E+03  2.44510E+04 -2.19582E+04  1.11078E+04 -2.66843E+04 -5.12593E+03
 -2.02036E+04 -1.72263E+04 -6.93835E+03 -1.93022E+04  4.23804E+03 -1.90695E+04  1.49053E+04 -1.75004E+04
  2.53328E+04 -1.25387E+04  3.18823E+04  2.57926E+03  2.35196E+04  1.88500E+04  4.75296E+03  3.59236E+04
 -1.69494E+04  3.00850E+04 -2.69722E+04  1.01738E+04 -2.09432E+04 -1.04417E+04 -4.48284E+03 -1.31974E+04
  1.66825E+03 -2.84093E+03 -4.61554E+03  6.77341E+03 -1.52097E+04  4.95682E+03 -1.58143E+04 -6.09503E+03
 -9.70666E+03 -1.77682E+04  5.13905E+03 -2.19763E+04  1.50661E+04 -1.61302E+04  1.71225E+04 -9.38345E+02
  1.07133E+04  1.29393E+04 -5.27807E+02  1.75159E+04 -1.20747E+04  9.88957E+03 -1.80252E+04 -3.84268E+03
 -1.30244E+04 -1.58775E+04 -2.07745E+03 -2.15158E+04  9.88997E+03 -1.77400E+04  1.82609E+04 -8.56629E+03
  1.69493E+04  1.56586E+02  1.19995E+04  3.80593E+03  5.89300E+03  1.00911E+03  9.19336E+03 -1.36112E+03
  1.64438E+04  2.84255E+03  1.86587E+04  1.44088E+04  1.14907E+04  2.86232E+04 -3.25346E+03  3.21152E+04
 -1.83450E+04  2.58507E+04 -2.96666E+04  1.23749E+04 -3.01507E+04 -2.08787E+03 -2.63004E+04 -1.79584E+04
 -1.16050E+04 -2.51782E+04  8.84858E+03 -2.32349E+04  1.97382E+04 -1.17265E+04  1.85528E+04  5.46729E+03
  6.70854E+03  1.33083E+04 -8.28115E+03  1.13789E+04 -1.46658E+04  2.26471E+03 -1.22284E+04 -9.34679E+03
 -3.73478E+02 -1.45274E+04  7.58366E+03 -1.11988E+04  9.65558E+03 -1.70826E+03  2.30571E+03  6.27972E+03
 -6.15897E+03  2.20040E+03 -5.08314E+03 -5.73061E+03 -9.44445E+01 -1.26723E+04  8.46706E+03 -1.29727E+04
  1.45735E+04 -6.36334E+03  1.59287E+04  3.30961E+03  1.36397E+04  1.21195E+04  6.25761E+03  1.82018E+04
 -2.46260E+03  2.02181E+04 -1.23841E+04  1.21001E+04 -1.49433E+04  2.43052E+03 -1.05593E+04 -2.92892E+03
 -5.11972E+03 -4.71579E+03 -7.48697E+02  1.70723E+03 -2.35056E+03  1.92139E+03 -4.95365E+03  3.97874E+03
 -9.47439E+03 -7.75328E+02 -1.06630E+04 -8.75825E+03 -4.23568E+03 -1.36276E+04  4.20367E+03 -1.01089E+04
  8.27048E+03 -5.32550E+03  6.09750E+03  2.29795E+03  4.97813E+02  3.59897E+03 -4.62916E+03 -1.64797E+02
 -4.46321E+03 -6.28127E+03 -1.15533E+02 -9.24452E+03  5.20380E+03 -1.07460E+04  1.24962E+04 -5.26977E+03
  1.48824E+04  7.48348E+02  1.09964E+04  8.57432E+03  1.95723E+03  1.08685E+04 -6.22719E+03  9.70922E+03
 -8.70378E+03  3.75537E+03 -4.72063E+03 -2.04029E+03  1.28524E+03 -2.88322E+03  6.12191E+03 -8.26668E+02
  5.13876E+03  4.33891E+03  9.77148E+02  7.54822E+03 -5.57745E+03  7.67202E+03 -1.01669E+04  2.11617E+03
 -6.00344E+03 -5.01814E+03  3.99928E+02 -8.19246E+03  4.99763E+03 -4.22895E+03  5.22678E+03  1.73242E+03
  9.68176E+02  4.31691E+03 -5.49367E+03  6.00258E+03 -7.04287E+03  3.25626E+03 -7.56382E+03 -1.81737E+03
 -4.19421E+03 -7.81222E+03  1.60562E+03 -9.78080E+03  7.97290E+03 -5.79606E+03  8.79168E+03  9.11958E+02
  6.38070E+03  6.66591E+03 -2.03845E+02  9.40054E+03 -7.04897E+03  4.82728E+03 -7.10430E+03 -3.07999E+02
 -6.26950E+03 -6.67821E+03 -1.01323E+03 -7.02614E+03  3.06861E+03 -4.99107E+03  4.31691E+03 -2.96500E+03
  3.72280E+03  4.68637E+02 -1.12396E+02  1.54275E+03 -1.75431E+02 -8.28105E+02  4.90572E+02 -3.07790E+03
  6.32745E+03 -1.91531E+03  7.63660E+03  1.13265E+03  7.73109E+03  4.89939E+03  6.75902E+03  9.67877E+03
 -2.12530E+03  1.22005E+04 -1.04097E+04  9.61412E+03 -1.34868E+04  1.60912E+03 -1.04214E+04 -3.80605E+03
 -5.56184E+03 -9.27746E+03 -2.87420E+02 -7.44491E+03  2.56016E+03 -3.44149E+03  3.13552E+03 -2.58068E+03
  1.98161E+03 -2.16749E+03  2.52071E+03 -3.04255E+03  3.51451E+03 -1.85506E+03  4.69399E+03 -3.86681E+02
  5.37265E+03  1.70887E+03  1.78273E+03  4.69260E+03 -1.48563E+03  4.22140E+03 -6.42326E+03  4.11488E+03
 -7.22359E+03 -1.61486E+03 -3.73218E+03 -4.32408E+03 -3.54113E+02 -6.67617E+03  3.92089E+03 -6.84228E+03
  7.51680E+03 -4.20022E+03  9.12331E+03  6.16180E+02  6.96024E+03  6.21849E+03  1.47111E+03  8.53338E+03
 -3.14940E+03  7.64969E+03 -4.70836E+03  2.50071E+03 -2.90955E+03 -1.45440E+03 -1.15055E+03  1.33168E+02
 -5.87863E+02  1.25076E+02 -1.29134E+03  1.88752E+03 -3.86630E+03  1.37560E+03 -5.52922E+03 -9.47642E+02
 -2.44391E+03 -5.42086E+03  9.85698E+02 -6.87576E+03  3.62774E+03 -5.83906E+03  5.71437E+03 -1.57399E+03
  5.85338E+03  3.40532E+03  2.32638E+03  5.50635E+03 -1.39207E+03  6.51898E+03 -3.96417E+03  3.72772E+03
 -6.01878E+03  4.93229E+02 -4.95442E+03 -3.12375E+03 -4.21345E+02 -5.10562E+03  2.88331E+03 -3.69114E+03
  3.73277E+03 -2.60421E+03  2.74980E+03  1.17606E+03  3.44315E+02  2.41226E+03  1.27099E+03  1.19421E+03
  2.04979E+03  1.18643E+03  1.49005E+03  1.31786E+03  1.69376E+03  2.67174E+03  2.02620E+03  2.81504E+03
 -1.31176E+03  4.34400E+03 -4.03145E+03  5.04260E+03 -5.61652E+03  1.54185E+03 -6.10059E+03 -1.47549E+03
 -2.96168E+03 -5.73791E+03  1.79524E+02 -6.30940E+03  3.50250E+03 -4.80042E+03  5.16383E+03 -1.07266E+03
  3.62568E+03  2.39643E+03  5.21277E+02  3.69038E+03 -1.14727E+03  1.94838E+03 -1.79400E+03 -1.78932E+02
 -7.58804E+02 -2.09058E+03  2.16415E+03 -2.53683E+03  1.12055E+03 -1.64390E+03  1.77959E+03  9.39982E+02
  1.63362E+03  5.06234E+02  1.05331E+03  2.95663E+02 -4.02298E+02  1.16525E+03  2.00423E+03 -7.07165E+02
  5.86579E+02 -5.68483E+02  2.60125E+03  1.07680E+03  1.01648E+03  3.42676E+03 -4.96983E+02  4.55271E+03
 -1.87956E+03  2.05087E+03 -3.14878E+03  1.22062E+03 -2.83767E+03 -1.02610E+03 -9.44918E+02 -1.68036E+03
  3.52507E+02 -2.53396E+03  1.15827E+03 -1.37613E+03  7.95995E+02  1.56441E+03 -7.73451E+01  2.22959E+03
 -2.72310E+03  1.27441E+03 -2.51305E+03 -1.39341E+03 -1.58215E+03 -2.99213E+03  8.72970E+01 -1.95863E+03
  1.13355E+03 -1.25071E+03  2.07039E+03  3.24515E+02  1.71900E+03  3.95970E+02  6.62615E+02  1.56194E+03
 -7.12503E+02  8.05735E+02 -1.55244E+03 -8.81479E+02  1.34907E+03 -1.25394E+03  2.54197E+03 -1.53828E+03
  2.17153E+03 -2.90645E+02  3.88853E+03  1.02062E+03  1.49367E+03  2.76007E+03 -1.32058E+03  2.76645E+03
 -3.11341E+03  6.65944E+02 -2.49446E+03 -1.79306E+02 -1.40640E+03 -1.90190E+03  1.22078E+03 -1.52155E+03
  2.13271E+03 -6.19528E+02  1.59507E+03  1.01330E+03  2.51220E+02  1.60076E+03 -6.58319E+02  1.67025E+03
 -4.39164E+02  1.37771E+03 -7.83065E+02  4.98551E+01 -6.70529E+02  7.44823E+02 -5.48801E+02  5.73841E+02
 -7.22950E+02  1.26201E+03 -1.77869E+03  7.56170E+02 -2.76343E+03  2.15970E+02 -3.44152E+03 -1.44264E+03
 -1.70586E+03 -3.64585E+03  8.47320E+02 -4.81221E+03  1.93908E+03 -4.06725E+03  4.77428E+03 -1.62566E+03
  3.90016E+03  2.85674E+02  2.21801E+03  2.38283E+03 -6.99241E+02  2.36275E+03 -1.05374E+03  2.22694E+03
 -1.96556E+03  1.35730E+03 -7.31519E+02 -1.33889E+02 -4.03569E+02 -5.26211E+02 -8.29469E+02 -7.33362E+02
 -1.36023E+03 -1.77690E+02 -9.53887E+02  1.54565E+02 -1.39418E+02 -3.34312E+02 -1.52846E+02 -1.54942E+03
  1.58475E+03 -1.04131E+03  8.13326E+02 -4.45100E+02  2.12723E+03  1.32629E+03  8.98072E+00  2.79071E+03
 -1.79958E+03  2.88925E+03 -3.57602E+03  1.80065E+03 -3.22314E+03 -3.26298E+02 -2.23216E+03 -1.97682E+03
 -1.90506E+03 -2.34295E+03  9.34427E+02 -2.20692E+03  2.54425E+03 -1.57839E+03  1.14720E+03  4.77082E+02
  7.20146E+02  3.28346E+02 -3.63404E+02  8.26492E+02 -4.08263E+02 -5.50586E+01 -6.81673E+02 -4.63596E+02
  1.49297E+03 -1.28221E+02  7.74235E+02  1.09652E+03 -2.14286E+02  6.27025E+02  8.46744E+02  6.88293E+02
 -8.77706E+02  6.87763E+02 -1.27418E+03 -1.42282E+02 -1.65457E+03 -1.26209E+03 -3.87798E+02 -2.37385E+03
  1.26137E+03 -7.53963E+02  1.32717E+03 -4.04153E+02  1.44662E+03 -3.23420E+02  6.05564E+02  1.32181E+03
  1.42158E+02  1.69262E+03 -8.16132E+01  1.05948E+03 -1.48460E+03  8.05128E+02 -9.75747E+02 -1.73272E+02
 -8.21910E+02 -4.44684E+02 -4.61024E+02 -2.51833E+02 -9.12520E+02  3.03623E+02 -1.19840E+03 -6.84730E+01
 -1.31858E+03 -1.85125E+02 -9.13483E+02 -1.34704E+03  7.99090E+02 -3.12505E+03  1.35653E+03 -8.43056E+02
  1.68513E+03 -6.08699E+02 -4.66324E+02  7.86063E+02 -5.19861E+02  1.77658E+03 -8.38921E+02  1.15355E+03
