 $NMID ID='MM_0lb_SNR400_14hz_g55_90.RAW', FMTDAT='(8E13.5)'
 TRAMP=1., VOLUME=1. $END
  3.09810E+05  3.79841E+02  3.37772E+05  2.50583E+05  8.42082E+04  3.37788E+05 -1.32790E+05  2.51519E+05
 -1.90222E+05  8.34440E+04 -1.11582E+05 -3.25750E+04  4.76651E+02 -4.98932E+04  5.38967E+04  5.09274E+01
  3.54313E+04  5.31009E+04 -1.72313E+04  7.60238E+04 -6.11101E+04  6.37416E+04 -8.48019E+04  3.23071E+04
 -8.13703E+04 -1.19841E+04 -5.75251E+04 -5.06713E+04 -1.47082E+04 -7.02671E+04  2.73806E+04 -4.60736E+04
  4.01274E+04  3.57022E+03  1.60088E+04  4.79725E+04 -3.45591E+04  4.76621E+04 -6.67711E+04 -3.78953E+02
 -5.36755E+04 -5.71488E+04 -6.86676E+03 -7.75031E+04  3.42066E+04 -5.56180E+04  4.74225E+04 -1.77210E+04
  4.42149E+04  1.10140E+04  3.20587E+04  2.51947E+04  1.51355E+04  2.98176E+04 -5.53182E+03  2.71780E+04
 -2.17633E+04  1.24461E+04 -1.80316E+04 -5.41976E+03  6.50240E+03 -6.81954E+03  2.26341E+04  1.24953E+04
  7.09907E+03  3.54307E+04 -3.26317E+04  3.59037E+04 -6.41318E+04  2.42776E+03 -5.74952E+04 -4.29166E+04
 -1.21133E+04 -6.39813E+04  3.99682E+04 -4.54865E+04  5.87759E+04 -2.14969E+03  3.48338E+04  3.25025E+04
 -6.42458E+03  3.69436E+04 -3.05890E+04  1.66155E+04 -3.05882E+04 -4.55714E+03 -1.73694E+04 -1.10985E+04
 -8.88912E+03 -1.36534E+04 -5.86226E+02 -1.89312E+04  7.86381E+03 -2.33677E+04  1.50858E+04 -1.33729E+04
  1.10202E+04  5.11457E+03 -8.55671E+03  1.26726E+04 -2.19056E+04 -4.55287E+03 -8.48854E+03 -3.43638E+04
  2.36726E+04 -4.40291E+04  4.89318E+04 -2.00330E+04  4.60255E+04  1.94124E+04  1.61547E+04  4.44025E+04
 -1.63661E+04  3.36138E+04 -2.59647E+04  2.70185E+03 -1.06798E+04 -2.85770E+04  2.11473E+04 -3.43166E+04
  4.21438E+04 -9.06630E+03  3.65877E+04  2.38700E+04  1.89010E+04  4.70221E+04 -8.41123E+03  5.10014E+04
 -3.23741E+04  3.48659E+04 -4.30610E+04  9.80872E+03 -4.33383E+04 -1.67506E+04 -2.39200E+04 -3.81526E+04
  7.19048E+03 -3.84800E+04  3.19845E+04 -1.52579E+04  2.98288E+04  1.04713E+04  4.31313E+03  1.92042E+04
 -1.37288E+04  8.90155E+03 -1.00241E+04 -8.17291E+03  5.40180E+03 -1.12051E+04  1.83577E+04  6.57038E+03
  1.34273E+04  2.25029E+04 -5.46190E+03  2.51396E+04 -2.23887E+04  1.18244E+04 -2.93522E+04 -4.05434E+03
 -2.17879E+04 -1.77513E+04 -9.21855E+03 -2.13237E+04  4.13247E+03 -2.07475E+04  1.63493E+04 -1.90571E+04
  2.66815E+04 -1.29224E+04  3.36831E+04  2.87348E+03  2.37719E+04  2.08588E+04  4.00546E+03  3.66942E+04
 -1.81346E+04  3.06922E+04 -2.83441E+04  9.53236E+03 -2.10002E+04 -1.10948E+04 -4.48013E+03 -1.33262E+04
  1.70462E+03 -2.64147E+03 -5.27492E+03  6.89618E+03 -1.65958E+04  5.20847E+03 -1.69656E+04 -7.15321E+03
 -1.02664E+04 -1.84947E+04  5.57221E+03 -2.43056E+04  1.59231E+04 -1.66750E+04  1.88797E+04 -1.28802E+03
  1.19273E+04  1.30297E+04 -8.19018E+02  2.00894E+04 -1.41360E+04  1.11515E+04 -2.00188E+04 -3.65779E+03
 -1.41837E+04 -1.80572E+04 -1.92771E+03 -2.37507E+04  1.04339E+04 -1.90351E+04  1.94376E+04 -9.77263E+03
  1.84553E+04  6.31546E+02  1.34968E+04  4.94887E+03  7.39483E+03  6.52226E+02  9.86887E+03 -1.55175E+03
  1.85678E+04  2.96365E+03  2.02359E+04  1.53189E+04  1.29552E+04  3.13222E+04 -2.89128E+03  3.54267E+04
 -2.07876E+04  2.88547E+04 -3.35814E+04  1.53000E+04 -3.43857E+04 -2.30335E+03 -2.86891E+04 -2.07378E+04
 -1.21413E+04 -2.79089E+04  9.80351E+03 -2.60060E+04  2.22431E+04 -1.28116E+04  1.97119E+04  5.82451E+03
  7.25516E+03  1.43246E+04 -9.23374E+03  1.28024E+04 -1.60996E+04  2.76501E+03 -1.28051E+04 -1.00699E+04
 -3.79991E+02 -1.60017E+04  8.08756E+03 -1.21405E+04  1.01354E+04 -1.48266E+03  3.00477E+03  6.60847E+03
 -6.81156E+03  2.67077E+03 -6.52897E+03 -6.17431E+03  1.87059E+02 -1.38179E+04  9.84471E+03 -1.59156E+04
  1.71934E+04 -8.19631E+03  1.88943E+04  3.13344E+03  1.63784E+04  1.36830E+04  7.30804E+03  2.14462E+04
 -3.63123E+03  2.31621E+04 -1.46755E+04  1.45533E+04 -1.65239E+04  3.57747E+03 -1.16824E+04 -3.67573E+03
 -5.48389E+03 -5.41701E+03 -8.34067E+02  1.41506E+03 -1.72136E+03  2.74324E+03 -5.95321E+03  4.76455E+03
 -1.08888E+04 -1.00011E+03 -1.12530E+04 -9.08807E+03 -5.35103E+03 -1.50732E+04  4.76497E+03 -1.19997E+04
  9.54589E+03 -4.96847E+03  7.03202E+03  2.98194E+03 -1.18051E+00  4.43851E+03 -5.57348E+03 -1.17394E+02
 -5.12388E+03 -7.83367E+03 -1.00674E+03 -1.11758E+04  6.67665E+03 -1.17221E+04  1.46501E+04 -7.26306E+03
  1.69009E+04  1.38468E+03  1.30541E+04  9.64672E+03  2.88046E+03  1.36026E+04 -7.25404E+03  1.24572E+04
 -9.51481E+03  4.15132E+03 -4.58767E+03 -2.32176E+03  1.63638E+03 -3.26500E+03  6.55476E+03 -6.77435E+02
  5.86770E+03  5.14169E+03  8.82819E+02  9.31884E+03 -6.60022E+03  8.94530E+03 -1.10488E+04  1.97655E+03
 -7.77711E+03 -6.14568E+03  3.71996E+02 -9.54812E+03  5.93209E+03 -5.06643E+03  6.05416E+03  2.20344E+03
  1.17527E+03  5.75501E+03 -6.27445E+03  7.89793E+03 -8.84119E+03  3.57687E+03 -9.39736E+03 -2.55790E+03
 -5.06978E+03 -1.02436E+04  2.46703E+03 -1.17702E+04  1.02878E+04 -7.10829E+03  1.16184E+04  1.96450E+03
  6.77510E+03  9.09438E+03 -4.81316E+02  1.10393E+04 -7.80347E+03  6.13656E+03 -8.76809E+03 -7.09205E+02
 -7.84127E+03 -7.86693E+03 -1.71416E+03 -8.02936E+03  4.36691E+03 -6.38910E+03  4.42186E+03 -2.54330E+03
  3.59723E+03  8.84551E+02 -8.27144E+02  1.88430E+03 -1.68143E+02 -1.67317E+03  1.29952E+03 -4.43997E+03
  6.21194E+03 -2.10104E+03  1.05903E+04  1.65617E+03  1.03506E+04  6.55535E+03  7.72178E+03  1.30176E+04
 -2.87035E+03  1.50288E+04 -1.28048E+04  1.08369E+04 -1.66973E+04  1.28458E+03 -1.27036E+04 -5.51117E+03
 -6.19130E+03 -1.13134E+04 -7.12478E+02 -9.17941E+03  2.88107E+03 -4.87656E+03  3.81766E+03 -2.80543E+03
  2.86730E+03 -1.77631E+03  3.14098E+03 -2.69518E+03  4.45230E+03 -2.45080E+03  5.78744E+03 -2.87893E+02
  6.24509E+03  1.50989E+03  3.33119E+03  5.55531E+03 -2.49991E+03  5.96541E+03 -7.27158E+03  4.88668E+03
 -8.82068E+03 -1.38577E+03 -4.46629E+03 -5.85619E+03  3.62731E+02 -9.15190E+03  5.32004E+03 -9.81508E+03
  9.45958E+03 -5.45556E+03  1.21698E+04  9.44365E+02  8.02511E+03  7.85110E+03  1.46110E+03  1.04443E+04
 -4.03576E+03  8.79184E+03 -6.26190E+03  3.61724E+03 -3.37720E+03 -1.41761E+03 -1.67469E+03 -1.55849E+03
 -8.17432E+02  7.36560E+01 -1.47445E+03  2.14858E+03 -3.28637E+03  1.63451E+03 -6.46913E+03 -8.15797E+02
 -3.50848E+03 -6.16864E+03  9.15541E+02 -8.53408E+03  5.60889E+03 -8.23485E+03  7.48746E+03 -2.51686E+03
  8.11782E+03  4.02709E+03  4.37374E+03  6.81736E+03 -1.43822E+03  8.19452E+03 -5.88505E+03  4.92235E+03
 -8.17679E+03  1.24546E+03 -6.11012E+03 -5.30058E+03  6.04758E+01 -6.77520E+03  2.88058E+03 -5.09632E+03
  5.18969E+03 -2.20222E+03  3.77279E+03  1.12922E+03  7.31138E+02  2.58162E+03  1.33272E+03  1.65657E+03
  2.32804E+03  8.50041E+02  2.17046E+03  8.94609E+02  3.05226E+03  3.30163E+03  2.71663E+03  4.17198E+03
 -2.84866E+03  6.33407E+03 -5.60999E+03  7.38394E+03 -6.75337E+03  2.12290E+03 -8.02358E+03 -2.66355E+03
 -3.44408E+03 -7.18726E+03  8.14599E+02 -8.82090E+03  4.74713E+03 -5.47965E+03  6.76100E+03 -1.85345E+03
  4.47710E+03  3.00167E+03  1.44879E+03  4.33005E+03 -1.57195E+03  2.86402E+03 -2.60491E+03 -5.09567E+02
 -1.33959E+03 -2.64793E+03  1.45927E+03 -3.91767E+03  3.18716E+03 -1.07635E+03  3.44686E+03  8.19855E+02
  1.89736E+03  9.43012E+02  9.35454E+02  4.31318E+02 -3.03856E+02  2.20494E+03  1.81817E+03 -6.45703E+02
  1.22766E+03 -8.74767E+02  3.41446E+03  5.25662E+02  1.46909E+03  5.08076E+03 -2.54569E+02  5.25392E+03
 -3.30526E+03  2.77463E+03 -4.64034E+03  1.12790E+02 -4.53129E+03 -1.01531E+03 -1.43207E+03 -2.89704E+03
  3.01257E+02 -3.32895E+03  1.85375E+03 -1.70875E+03  1.57496E+03  2.32600E+03 -5.20923E+02  2.40804E+03
 -3.13437E+03  1.26679E+03 -3.17005E+03 -1.80505E+03 -1.63064E+03 -4.11581E+03  8.79227E+02 -3.92828E+03
  1.81344E+03 -2.11519E+03  2.54077E+03  2.47875E+02  2.40781E+03  9.76690E+02  1.86845E+02  2.01142E+03
 -1.40667E+03  2.37439E+02 -1.76477E+03 -1.02315E+03  1.15104E+03 -2.34824E+03  3.91089E+03 -1.95152E+03
  3.67458E+03 -2.94237E+02  4.53246E+03  2.89637E+03  1.69209E+03  4.13471E+03 -1.15675E+03  4.07967E+03
 -3.38963E+03  8.67699E+02 -3.76587E+03 -4.46281E+02 -2.81846E+03 -2.56864E+03  1.70472E+02 -2.34877E+03
  3.43242E+03 -1.21948E+03  2.11035E+03  1.15370E+03  1.11816E+03  2.52095E+03 -1.09366E+02  2.57369E+03
 -1.46814E+03  1.82719E+03 -1.12925E+03  8.66374E+02 -1.80004E+02  7.20274E+02 -8.99247E+02  6.59479E+02
 -8.79768E+02  2.05620E+03 -3.75455E+03  1.48252E+03 -4.45591E+03  1.90364E+02 -5.25201E+03 -2.94463E+03
 -2.84335E+03 -5.35363E+03  3.29824E+02 -6.35427E+03  3.12327E+03 -4.87948E+03  5.94177E+03 -2.20068E+03
  6.14892E+03  1.09537E+03  3.64863E+03  4.32028E+03 -6.77835E+02  4.09960E+03 -1.96287E+03  2.76747E+03
 -2.65674E+03  8.80022E+02 -2.01019E+03 -8.05700E+02 -1.05923E+03  7.26267E+02 -9.01328E+02 -1.35235E+02
 -7.16014E+02 -1.96403E+02 -9.83735E+02 -2.03450E+02 -1.57468E+02 -1.26708E+03 -2.24153E+02 -2.23781E+03
  2.42478E+03 -1.38776E+03  2.19722E+03 -1.97398E+02  2.27196E+03  1.71292E+03  5.96641E+02  4.19601E+03
 -2.01191E+03  5.30872E+03 -4.89202E+03  2.86362E+03 -5.66996E+03 -6.92102E+02 -2.77712E+03 -2.89154E+03
 -1.72972E+03 -4.12805E+03  1.20308E+03 -3.40851E+03  2.31898E+03 -1.71559E+03  2.10318E+03 -4.55117E+01
  1.40352E+03  1.45911E+03 -1.02074E+02  9.27925E+02 -1.07213E+03 -8.86657E+02  7.33292E+02 -5.58569E+02
  6.16984E+02 -1.61192E+02  1.58895E+03  4.70521E+02  1.04755E+03  2.02279E+03  9.43675E+02  1.86054E+03
 -2.12141E+03  1.79003E+03 -2.18095E+03 -4.34759E-01 -1.93507E+03 -1.56146E+03 -2.69757E+02 -2.61357E+03
  1.08505E+03 -1.97269E+03  2.23839E+03 -2.48140E+02  2.85202E+03  1.79737E+02  2.04471E+03  2.53036E+03
 -2.03639E+01  2.27927E+03 -2.03116E+02  1.73918E+03 -1.13130E+03  1.26656E+03 -1.21515E+03  6.23490E+01
 -6.96836E+02 -8.92324E+01 -1.26993E+03  2.15135E+02 -1.17648E+03  7.65880E+02 -1.95760E+03 -4.02999E+02
 -2.04192E+03 -4.29285E+02 -9.93128E+02 -1.88549E+03  1.70279E+03 -3.01620E+03  2.34340E+03 -9.51478E+02
  1.75495E+03 -1.78124E+02  6.93516E+02  1.00292E+03  4.50850E+02  1.76588E+03 -1.64237E+03  1.93545E+03
