 $NMID ID='MM_0lb_SNR400_10hz_g55_37.RAW', FMTDAT='(8E13.5)'
 TRAMP=1., VOLUME=1. $END
  3.09507E+05  3.58919E+02  3.38438E+05  2.51303E+05  8.46206E+04  3.38533E+05 -1.32445E+05  2.51234E+05
 -1.90914E+05  8.33945E+04 -1.12371E+05 -3.24991E+04 -9.72567E+01 -5.08382E+04  5.37155E+04 -1.23718E+03
  3.59511E+04  5.28363E+04 -1.61269E+04  7.61593E+04 -6.21047E+04  6.41211E+04 -8.55696E+04  3.26752E+04
 -8.22251E+04 -1.16020E+04 -5.84505E+04 -5.20515E+04 -1.51132E+04 -7.16044E+04  2.83192E+04 -4.74185E+04
  4.05972E+04  3.37905E+03  1.69885E+04  4.85454E+04 -3.49093E+04  4.75744E+04 -6.76673E+04  3.32058E+02
 -5.45538E+04 -5.78635E+04 -7.00565E+03 -7.78534E+04  3.45086E+04 -5.65900E+04  4.95981E+04 -1.83331E+04
  4.42382E+04  1.10660E+04  3.34786E+04  2.61179E+04  1.69597E+04  3.06618E+04 -5.56754E+03  2.69943E+04
 -2.25358E+04  1.14841E+04 -1.83435E+04 -5.94251E+03  7.20365E+03 -7.11515E+03  2.30709E+04  1.35698E+04
  7.32369E+03  3.75504E+04 -3.37964E+04  3.71093E+04 -6.64449E+04  1.89221E+03 -5.82708E+04 -4.45935E+04
 -1.18340E+04 -6.59048E+04  4.13455E+04 -4.74873E+04  6.07630E+04 -2.25529E+03  3.64153E+04  3.48291E+04
 -5.50626E+03  3.94455E+04 -3.14032E+04  1.83236E+04 -3.28062E+04 -4.10848E+03 -1.93420E+04 -1.16473E+04
 -8.81368E+03 -1.46356E+04 -1.13564E+03 -1.99431E+04  8.86651E+03 -2.41587E+04  1.51522E+04 -1.23916E+04
  1.02969E+04  5.50080E+03 -9.99294E+03  1.20817E+04 -2.40971E+04 -5.55523E+03 -8.95982E+03 -3.65971E+04
  2.46452E+04 -4.68146E+04  5.18938E+04 -2.06436E+04  4.82709E+04  2.01874E+04  1.75858E+04  4.62333E+04
 -1.73051E+04  3.60449E+04 -2.70865E+04  2.19893E+03 -1.15365E+04 -2.90049E+04  2.18744E+04 -3.74378E+04
  4.42273E+04 -1.00466E+04  3.97417E+04  2.50145E+04  2.09802E+04  5.06648E+04 -8.35302E+03  5.52340E+04
 -3.49567E+04  3.80377E+04 -4.66457E+04  1.06214E+04 -4.71900E+04 -1.80451E+04 -2.60358E+04 -4.17309E+04
  7.51271E+03 -4.16770E+04  3.39461E+04 -1.73722E+04  3.09231E+04  1.22091E+04  4.56692E+03  2.10169E+04
 -1.44038E+04  1.00772E+04 -1.08088E+04 -7.44349E+03  5.58250E+03 -1.13245E+04  1.88289E+04  5.17880E+03
  1.50114E+04  2.32195E+04 -5.18668E+03  2.71062E+04 -2.36356E+04  1.39414E+04 -3.15313E+04 -2.85282E+03
 -2.44370E+04 -1.75294E+04 -1.20244E+04 -2.45955E+04  4.11733E+03 -2.51229E+04  1.91013E+04 -2.29357E+04
  3.17900E+04 -1.39677E+04  3.67184E+04  4.97326E+03  2.64669E+04  2.38827E+04  4.37871E+03  4.04800E+04
 -1.97102E+04  3.31611E+04 -3.03822E+04  1.20686E+04 -2.16617E+04 -1.02363E+04 -4.50307E+03 -1.23369E+04
  1.21574E+03 -1.10440E+03 -7.51829E+03  8.34673E+03 -2.04513E+04  4.77505E+03 -1.95935E+04 -8.92941E+03
 -1.20717E+04 -2.38188E+04  6.15630E+03 -2.69722E+04  1.86518E+04 -1.88688E+04  2.26572E+04 -2.34721E+03
  1.42552E+04  1.55798E+04 -1.55629E+03  2.27451E+04 -1.59423E+04  1.30267E+04 -2.38180E+04 -4.90224E+03
 -1.69219E+04 -2.06667E+04 -1.44432E+03 -2.75428E+04  1.29054E+04 -2.26738E+04  2.28401E+04 -1.15277E+04
  2.12746E+04 -7.69314E+02  1.60603E+04  5.26629E+03  9.59071E+03  1.39962E+03  1.20472E+04 -2.03208E+03
  2.21456E+04  3.49398E+03  2.43202E+04  1.79758E+04  1.58856E+04  3.67829E+04 -3.09001E+03  4.35295E+04
 -2.45182E+04  3.52447E+04 -4.12353E+04  1.85604E+04 -4.37249E+04 -3.17664E+03 -3.45989E+04 -2.58654E+04
 -1.40333E+04 -3.66000E+04  1.23243E+04 -3.12893E+04  2.72597E+04 -1.49875E+04  2.39445E+04  8.56510E+03
  8.30175E+03  1.84733E+04 -1.15981E+04  1.48214E+04 -2.05872E+04  3.16367E+03 -1.47423E+04 -1.22966E+04
 -2.65567E+02 -1.96887E+04  9.57016E+03 -1.45399E+04  1.27577E+04 -5.72524E+02  3.43105E+03  8.16600E+03
 -8.79073E+03  4.46271E+03 -8.75997E+03 -6.78339E+03 -1.49121E+03 -1.84126E+04  1.17290E+04 -1.90646E+04
  2.24461E+04 -1.09732E+04  2.61929E+04  3.79353E+03  2.28230E+04  1.79980E+04  1.02603E+04  2.78686E+04
 -4.62476E+03  2.97030E+04 -1.97140E+04  1.92441E+04 -2.16122E+04  4.72128E+03 -1.56961E+04 -5.91971E+03
 -6.68922E+03 -6.68794E+03 -1.08708E+03  1.04117E+03 -2.84954E+03  3.70282E+03 -6.99828E+03  4.74798E+03
 -1.29250E+04 -1.61920E+03 -1.42607E+04 -1.17100E+04 -5.41963E+03 -1.91626E+04  5.76779E+03 -1.51639E+04
  1.24338E+04 -6.25223E+03  9.12788E+03  3.96413E+03 -4.80007E+02  6.47342E+03 -8.11112E+03 -4.59241E+02
 -7.43495E+03 -9.99785E+03 -7.66958E+02 -1.48079E+04  8.67113E+03 -1.57080E+04  1.94223E+04 -8.94007E+03
  2.30841E+04  1.90043E+03  1.59270E+04  1.35844E+04  3.40507E+03  1.82440E+04 -9.31478E+03  1.47755E+04
 -1.21340E+04  4.24360E+03 -6.11778E+03 -3.36124E+03  1.96882E+03 -4.30719E+03  8.07812E+03 -1.59355E+03
  6.62664E+03  7.41323E+03  1.91550E+03  1.29980E+04 -8.73794E+03  1.12028E+04 -1.55084E+04  2.77176E+03
 -1.05249E+04 -7.95728E+03 -1.80905E+02 -1.31202E+04  8.89621E+03 -6.55264E+03  9.65929E+03  3.15886E+03
  1.59320E+03  8.61081E+03 -7.66854E+03  1.12374E+04 -1.21171E+04  4.97695E+03 -1.35834E+04 -4.68831E+03
 -7.75053E+03 -1.48112E+04  3.78642E+03 -1.73547E+04  1.46010E+04 -1.01845E+04  1.67299E+04  2.57294E+03
  9.26879E+03  1.24251E+04 -1.69020E+03  1.48502E+04 -1.07785E+04  8.44349E+03 -1.25036E+04 -8.67273E+02
 -1.04346E+04 -1.03361E+04 -2.23488E+03 -1.12056E+04  5.76244E+03 -9.01825E+03  7.35752E+03 -4.08855E+03
  4.60738E+03  1.60751E+03 -1.22604E+03  1.93084E+03 -9.48256E+02 -3.00087E+03  2.66780E+03 -7.50591E+03
  1.13301E+04 -5.39714E+03  1.54242E+04  1.09160E+03  1.41729E+04  1.06946E+04  9.26956E+03  2.00343E+04
 -4.22521E+03  2.24360E+04 -1.82861E+04  1.65378E+04 -2.43095E+04  2.66356E+03 -2.02177E+04 -7.97046E+03
 -1.01347E+04 -1.61513E+04 -4.44401E+02 -1.38706E+04  4.75685E+03 -8.31270E+03  4.83038E+03 -4.77080E+03
  4.09628E+03 -2.82947E+03  3.98903E+03 -3.54934E+03  5.09763E+03 -2.83158E+03  7.65710E+03 -1.54845E+03
  1.02860E+04  1.77737E+03  6.09384E+03  8.66458E+03 -1.83382E+03  1.04370E+04 -1.08542E+04  7.98789E+03
 -1.41980E+04 -2.04268E+03 -8.26087E+03 -9.45721E+03 -2.36699E+03 -1.47068E+04  8.87253E+03 -1.42855E+04
  1.61459E+04 -8.82354E+03  1.80749E+04  2.49505E+03  1.17639E+04  1.32038E+04  2.43498E+03  1.68986E+04
 -7.04032E+03  1.32193E+04 -1.06970E+04  4.69571E+03 -7.03472E+03 -1.71311E+03 -2.50698E+03 -2.82413E+03
 -1.34140E+03  4.27114E+02 -2.91339E+03  2.71293E+03 -6.08850E+03  1.95787E+03 -9.55802E+03 -1.50238E+03
 -6.54463E+03 -1.00645E+04 -7.26883E+02 -1.42193E+04  8.31262E+03 -1.32676E+04  1.36309E+04 -3.58303E+03
  1.37886E+04  6.73220E+03  5.87292E+03  1.21599E+04 -2.21064E+03  1.41514E+04 -9.92165E+03  7.94146E+03
 -1.37083E+04  4.71234E+02 -1.08956E+04 -8.42513E+03 -3.24812E+02 -1.11000E+04  6.49681E+03 -8.50698E+03
  8.19345E+03 -2.22039E+03  5.57743E+03  1.79597E+03  1.70889E+03  4.18297E+03  1.02240E+03  1.39540E+03
  2.65753E+03  1.87466E+02  3.22486E+03  1.14758E+03  3.73078E+03  4.29568E+03  3.12049E+03  7.53285E+03
 -2.58667E+03  1.08099E+04 -9.14000E+03  1.10700E+04 -1.45420E+04  3.13915E+03 -1.45339E+04 -5.99288E+03
 -6.80181E+03 -1.29744E+04  1.80412E+03 -1.49011E+04  8.76598E+03 -9.65982E+03  1.13582E+04 -2.51566E+03
  8.48997E+03  4.44655E+03  2.08100E+03  7.78685E+03 -3.42240E+03  4.99446E+03 -5.97620E+03 -9.85282E+02
 -2.82188E+03 -5.85503E+03  2.83428E+03 -6.12995E+03  5.00331E+03 -2.75720E+03  5.77800E+03  6.65215E+02
  4.18958E+03  2.34158E+03  9.47167E+02  2.36026E+03 -7.98018E+02  2.49518E+03  1.43580E+03 -1.31116E+03
  2.47713E+03 -1.24998E+03  5.06003E+03  2.35908E+03  3.04113E+03  7.75846E+03 -1.52938E+03  1.04692E+04
 -6.29205E+03  5.85294E+03 -9.45936E+03  2.00556E+03 -8.45202E+03 -3.98115E+03 -2.67839E+03 -5.83622E+03
  1.96273E+02 -5.69526E+03  3.48226E+03 -2.83979E+03  2.80823E+03  1.78441E+03 -7.23791E+02  4.83591E+03
 -6.19047E+03  2.34327E+03 -5.98675E+03 -3.34624E+03 -3.27716E+03 -6.89462E+03  1.49195E+03 -8.19109E+03
  4.72376E+03 -4.55437E+03  5.82428E+03 -4.75009E+02  5.43792E+03  2.07032E+03  1.35448E+03  4.24443E+03
 -2.50750E+03  1.21787E+03 -3.09369E+03 -2.05586E+03  1.47370E+03 -5.92205E+03  6.13287E+03 -4.42557E+03
  8.41552E+03  9.44490E+02  9.07234E+03  5.37454E+03  2.65249E+03  8.72023E+03 -3.58046E+03  8.28299E+03
 -7.56373E+03  3.38367E+03 -7.12493E+03 -3.60387E+02 -3.34343E+03 -5.52387E+03  1.08675E+03 -5.76707E+03
  5.99983E+03 -3.08012E+03  5.44804E+03  2.00248E+03  2.23604E+03  4.94251E+03 -8.28264E+02  4.73822E+03
 -2.14021E+03  3.01770E+03 -1.64905E+03  1.97800E+02 -9.05797E+02  2.87543E+02 -1.22778E+03  2.00177E+03
 -1.93113E+03  3.09619E+03 -6.89405E+03  3.17913E+03 -8.81303E+03 -5.13010E+02 -9.73196E+03 -5.47807E+03
 -5.51046E+03 -1.21648E+04  2.13938E+03 -1.33629E+04  9.00447E+03 -1.04431E+04  1.24915E+04 -3.77773E+03
  1.20814E+04  1.44476E+03  7.80108E+03  8.57296E+03  4.01097E+02  9.45928E+03 -2.83241E+03  6.97168E+03
 -5.61233E+03  2.04525E+03 -2.29077E+03 -3.49245E+02 -1.91023E+03 -9.50795E+02 -3.46540E+02 -2.68751E+02
 -1.44879E+03 -3.17154E+02 -1.81070E+03 -1.67518E+02 -9.83584E+02 -1.38611E+03 -4.97356E+02 -3.78107E+03
  3.55833E+03 -2.84889E+03  5.33037E+03 -2.97718E+02  6.43465E+03  4.26252E+03  1.40198E+03  9.64580E+03
 -3.66051E+03  1.04254E+04 -9.83943E+03  5.40252E+03 -1.12730E+04 -3.95385E+02 -8.14640E+03 -7.51987E+03
 -3.91597E+03 -9.05608E+03  1.57301E+03 -8.49960E+03  5.69932E+03 -5.13506E+03  5.88684E+03  1.09451E+03
  2.82216E+03  2.90558E+03 -5.62880E+02  2.05289E+03 -1.41283E+03 -2.16627E+02 -3.08911E+02 -2.00638E+03
  2.46525E+03 -4.94441E+02  1.89909E+03  8.69695E+02  1.84408E+03  3.26215E+03 -5.05527E+01  4.20080E+03
 -3.92978E+03  4.21391E+03 -6.52902E+03  6.05083E+01 -4.05242E+03 -4.43614E+03 -9.34449E+02 -6.88984E+03
  3.38971E+03 -6.95469E+03  6.95959E+03 -2.00525E+03  7.49632E+03  1.68173E+03  3.87254E+03  5.68993E+03
  7.07908E+02  6.05273E+03 -1.60744E+03  5.00082E+03 -4.15011E+03  2.98278E+03 -3.23035E+03  2.85927E+02
 -2.11425E+03 -8.57902E+02 -1.77137E+03  5.42523E+02 -3.19812E+03 -1.85014E+01 -4.88473E+03 -1.14025E+03
 -4.39335E+03 -2.64560E+03 -2.08135E+03 -6.97174E+03  2.82265E+03 -6.45822E+03  5.69697E+03 -3.10770E+03
  5.85494E+03  8.42678E+02  3.27295E+03  4.07785E+03 -5.81657E+02  6.04245E+03 -5.43798E+03  3.50540E+03
