 $NMID ID='MM_0lb_SNR400_9hz_g60_78.RAW', FMTDAT='(8E13.5)'
 TRAMP=1., VOLUME=1. $END
  3.08439E+05  7.06379E+02  3.37641E+05  2.51465E+05  8.47854E+04  3.38333E+05 -1.32440E+05  2.51988E+05
 -1.90994E+05  8.35317E+04 -1.12917E+05 -3.22158E+04 -6.04814E+02 -5.08373E+04  5.36672E+04 -4.60413E+02
  3.57152E+04  5.19994E+04 -1.68085E+04  7.59425E+04 -6.14371E+04  6.43114E+04 -8.58606E+04  3.20988E+04
 -8.26121E+04 -1.13057E+04 -5.86015E+04 -5.27673E+04 -1.54060E+04 -7.23939E+04  2.82777E+04 -4.71271E+04
  4.14455E+04  4.38934E+03  1.69733E+04  4.96836E+04 -3.34373E+04  4.81161E+04 -6.87029E+04  4.78722E+02
 -5.53819E+04 -5.81411E+04 -6.97071E+03 -7.96384E+04  3.51555E+04 -5.70508E+04  4.97940E+04 -1.78615E+04
  4.53048E+04  1.18600E+04  3.35581E+04  2.72288E+04  1.56890E+04  3.10193E+04 -6.75872E+03  2.83829E+04
 -2.29423E+04  1.16259E+04 -1.83700E+04 -5.95641E+03  7.82307E+03 -7.65597E+03  2.28145E+04  1.44421E+04
  6.85415E+03  3.86673E+04 -3.38025E+04  3.73846E+04 -6.60654E+04  2.15275E+03 -5.91702E+04 -4.58565E+04
 -1.29628E+04 -6.72511E+04  4.20238E+04 -4.79164E+04  6.20661E+04 -2.83585E+03  3.70299E+04  3.52373E+04
 -5.12058E+03  3.94751E+04 -3.22080E+04  1.94143E+04 -3.42080E+04 -3.98478E+03 -2.00642E+04 -1.25653E+04
 -1.01030E+04 -1.65052E+04 -7.00028E+02 -2.01947E+04  8.74611E+03 -2.42901E+04  1.66308E+04 -1.19979E+04
  1.02736E+04  7.13359E+03 -1.04176E+04  1.30534E+04 -2.29422E+04 -6.90158E+03 -8.78782E+03 -3.86295E+04
  2.61313E+04 -4.63230E+04  5.27498E+04 -2.17270E+04  4.98055E+04  2.12540E+04  1.70786E+04  4.77875E+04
 -1.65819E+04  3.66269E+04 -2.84562E+04  2.95911E+03 -1.18267E+04 -2.97677E+04  2.18219E+04 -3.78126E+04
  4.58611E+04 -1.16156E+04  4.15188E+04  2.53668E+04  2.28911E+04  5.20189E+04 -8.23672E+03  5.69630E+04
 -3.64524E+04  3.92799E+04 -4.82200E+04  1.23709E+04 -4.85860E+04 -1.93235E+04 -2.68564E+04 -4.38675E+04
  7.81713E+03 -4.33010E+04  3.52888E+04 -1.72754E+04  3.24609E+04  1.12437E+04  5.36258E+03  2.13025E+04
 -1.41320E+04  9.88083E+03 -1.19715E+04 -7.87692E+03  5.79422E+03 -1.25409E+04  1.88321E+04  5.59745E+03
  1.55843E+04  2.24811E+04 -5.46672E+03  2.75292E+04 -2.34522E+04  1.49932E+04 -3.17454E+04 -2.66087E+03
 -2.63943E+04 -1.90316E+04 -1.27360E+04 -2.60576E+04  4.04707E+03 -2.71966E+04  2.11425E+04 -2.35526E+04
  3.34953E+04 -1.46296E+04  3.96584E+04  5.27902E+03  2.74612E+04  2.59343E+04  4.72408E+03  4.27202E+04
 -2.02876E+04  3.38591E+04 -3.14431E+04  1.21803E+04 -2.32814E+04 -1.05690E+04 -4.96486E+03 -1.26152E+04
  7.56340E+02 -1.28194E+03 -6.90528E+03  8.52832E+03 -2.10261E+04  5.23038E+03 -2.18151E+04 -9.79957E+03
 -1.11651E+04 -2.46471E+04  5.92972E+03 -2.90078E+04  1.89532E+04 -2.01984E+04  2.39047E+04 -2.51387E+03
  1.48015E+04  1.61439E+04 -1.35887E+03  2.38821E+04 -1.68082E+04  1.45533E+04 -2.48079E+04 -5.16422E+03
 -1.77411E+04 -2.19922E+04 -2.35101E+03 -2.95280E+04  1.27686E+04 -2.33013E+04  2.40036E+04 -1.26034E+04
  2.31037E+04 -2.31378E+02  1.68271E+04  5.08581E+03  9.19671E+03  2.03117E+03  1.33594E+04 -2.71114E+03
  2.26759E+04  2.39731E+03  2.68612E+04  1.89623E+04  1.86705E+04  3.99417E+04 -1.89257E+03  4.65357E+04
 -2.59539E+04  3.92636E+04 -4.42651E+04  2.03524E+04 -4.74809E+04 -3.97744E+03 -3.85670E+04 -2.66529E+04
 -1.49100E+04 -3.92731E+04  1.43435E+04 -3.47033E+04  2.90766E+04 -1.64399E+04  2.50239E+04  8.46104E+03
  8.81844E+03  1.91961E+04 -1.20551E+04  1.60874E+04 -2.11643E+04  2.54127E+03 -1.60800E+04 -1.31011E+04
 -1.59265E+03 -1.98609E+04  1.10567E+04 -1.43399E+04  1.40552E+04 -1.48313E+03  3.76007E+03  9.85272E+03
 -8.84264E+03  4.73125E+03 -9.74306E+03 -7.38153E+03 -2.16754E+03 -1.98263E+04  1.15791E+04 -2.10295E+04
  2.39530E+04 -1.22370E+04  2.79513E+04  3.06385E+03  2.38989E+04  1.89194E+04  1.12817E+04  3.08397E+04
 -6.09553E+03  3.26165E+04 -2.17669E+04  2.06884E+04 -2.42947E+04  3.74382E+03 -1.58059E+04 -6.79483E+03
 -6.56952E+03 -7.74910E+03 -1.30497E+03 -2.08956E+02 -3.84743E+03  3.59965E+03 -8.02352E+03  5.84141E+03
 -1.49551E+04 -9.13830E+02 -1.59494E+04 -1.28317E+04 -6.16963E+03 -2.03254E+04  6.17518E+03 -1.63697E+04
  1.34846E+04 -6.83128E+03  9.43462E+03  4.60914E+03 -1.09320E+03  7.46986E+03 -9.04525E+03 -1.65525E+02
 -7.66445E+03 -1.11249E+04 -9.20796E+02 -1.58272E+04  9.81204E+03 -1.72893E+04  2.16511E+04 -8.84557E+03
  2.48875E+04  2.74978E+03  1.84960E+04  1.51622E+04  3.28594E+03  2.03105E+04 -1.03995E+04  1.60872E+04
 -1.32702E+04  4.33722E+03 -5.96388E+03 -3.59088E+03  2.80761E+03 -3.81608E+03  8.78570E+03 -5.98260E+02
  7.45341E+03  7.81000E+03  2.38672E+03  1.42060E+04 -1.00487E+04  1.34361E+04 -1.62572E+04  2.27702E+03
 -1.12411E+04 -8.92712E+03  7.89335E+02 -1.42835E+04  8.87893E+03 -6.73069E+03  1.00733E+04  3.40471E+03
  3.54540E+03  1.06866E+04 -8.25023E+03  1.15347E+04 -1.43326E+04  4.87685E+03 -1.52110E+04 -4.46138E+03
 -8.46187E+03 -1.71834E+04  4.04028E+03 -1.89742E+04  1.57955E+04 -1.16951E+04  1.89651E+04  3.35484E+03
  1.04766E+04  1.40703E+04 -2.57538E+03  1.70032E+04 -1.26937E+04  9.57375E+03 -1.32248E+04 -1.23654E+03
 -1.17057E+04 -1.14571E+04 -1.53265E+03 -1.26250E+04  7.27102E+03 -1.01337E+04  8.25535E+03 -3.06988E+03
  5.58077E+03  2.62435E+03 -1.76897E+03  2.34940E+03 -8.76588E+02 -4.05726E+03  2.92168E+03 -8.23259E+03
  1.25353E+04 -4.55996E+03  1.67378E+04  1.84563E+03  1.65449E+04  1.16308E+04  1.07942E+04  2.30120E+04
 -4.92879E+03  2.63753E+04 -2.07126E+04  1.87383E+04 -2.70546E+04  4.02790E+03 -2.22219E+04 -9.67161E+03
 -1.07955E+04 -1.81398E+04 -2.85377E+02 -1.59775E+04  4.91551E+03 -9.29754E+03  5.47462E+03 -6.36790E+03
  4.23010E+03 -2.99861E+03  3.55261E+03 -3.56711E+03  6.11378E+03 -3.36052E+03  8.21562E+03 -1.96134E+03
  1.13062E+04  3.55624E+03  6.66314E+03  1.03145E+04 -2.27767E+03  1.21719E+04 -1.21820E+04  9.36813E+03
 -1.57400E+04 -1.51659E+03 -1.02466E+04 -1.07313E+04 -1.34244E+03 -1.76496E+04  9.32863E+03 -1.73580E+04
  1.90105E+04 -9.49540E+03  2.15274E+04  3.77159E+03  1.29215E+04  1.42289E+04  2.24450E+03  1.94767E+04
 -7.85174E+03  1.55626E+04 -1.11794E+04  5.55300E+03 -8.15514E+03 -3.18509E+03 -4.27800E+03 -2.72554E+03
 -1.40754E+03 -5.69531E+02 -3.64352E+03  3.07758E+03 -7.36411E+03  2.60195E+03 -1.11854E+04 -1.78611E+03
 -8.02430E+03 -1.07728E+04 -1.17323E+02 -1.59355E+04  9.76795E+03 -1.47903E+04  1.57157E+04 -5.06998E+03
  1.57228E+04  7.53879E+03  7.91790E+03  1.47313E+04 -2.91976E+03  1.64587E+04 -1.13178E+04  1.09010E+04
 -1.47824E+04  7.57942E+02 -1.20482E+04 -9.57431E+03 -1.41556E+03 -1.30438E+04  7.46849E+03 -9.70468E+03
  9.97873E+03 -2.98797E+03  7.87235E+03  3.13244E+03  1.75659E+03  5.16024E+03  1.71083E+03  2.09935E+03
  2.18316E+03  1.94531E+03  3.61008E+03  2.81546E+03  5.30867E+03  5.93151E+03  4.47184E+03  8.68072E+03
 -2.70179E+03  1.29621E+04 -1.12380E+04  1.16157E+04 -1.71038E+04  3.23448E+03 -1.67404E+04 -7.25073E+03
 -8.14327E+03 -1.72487E+04  2.82344E+03 -1.75720E+04  9.85479E+03 -1.15748E+04  1.38395E+04 -3.41659E+03
  1.18172E+04  6.10756E+03  2.50280E+03  9.54103E+03 -4.13134E+03  5.55785E+03 -7.03405E+03 -5.90199E+02
 -3.26575E+03 -6.35057E+03  4.17492E+03 -7.05951E+03  6.71980E+03 -3.81800E+03  6.55470E+03  1.71159E+03
  4.48180E+03  3.56432E+03  1.52247E+03  2.00908E+03 -1.01817E+03  3.20222E+03  2.04551E+03 -3.54477E+02
  2.72672E+03 -1.30487E+03  6.78425E+03  3.15342E+03  4.61300E+03  9.20911E+03 -1.58816E+03  1.13199E+04
 -8.32587E+03  7.85775E+03 -1.06440E+04  3.23529E+03 -9.37397E+03 -3.99733E+03 -3.84856E+03 -6.89314E+03
  4.62546E+02 -5.20928E+03  3.86152E+03 -3.99709E+03  3.44972E+03  2.90284E+03 -1.96883E+03  4.94291E+03
 -7.20772E+03  2.52185E+03 -7.88193E+03 -3.82356E+03 -4.35375E+03 -9.51477E+03  1.10707E+03 -9.34760E+03
  4.36983E+03 -6.52852E+03  5.98988E+03 -1.05435E+03  5.88674E+03  2.79251E+03  6.30469E+02  5.09323E+03
 -2.42125E+03  2.20084E+03 -3.99720E+03 -2.82618E+03  1.41017E+03 -8.25416E+03  7.97086E+03 -5.62351E+03
  1.10630E+04  5.27273E+02  9.60642E+03  6.73569E+03  3.79706E+03  1.10595E+04 -3.77080E+03  9.77965E+03
 -9.17446E+03  4.87124E+03 -9.24054E+03 -1.25244E+03 -6.08714E+03 -5.94827E+03  2.25421E+03 -6.80411E+03
  6.81530E+03 -2.86664E+03  6.42805E+03  2.57417E+03  2.15395E+03  6.35187E+03 -1.24327E+03  5.02380E+03
 -2.47949E+03  2.86239E+03 -2.77051E+03  9.16493E+02 -1.66891E+03  1.69155E+03 -1.64195E+03  2.10519E+03
 -2.33121E+03  4.25369E+03 -7.73422E+03  3.10357E+03 -1.03947E+04 -1.52625E+02 -1.12222E+04 -6.77820E+03
 -5.53900E+03 -1.42610E+04  2.08927E+03 -1.73601E+04  1.03927E+04 -1.20647E+04  1.52915E+04 -4.68942E+03
  1.40635E+04  2.39242E+03  9.17986E+03  1.03164E+04  7.33717E+02  1.16614E+04 -4.40938E+03  7.77523E+03
 -5.63587E+03  2.47095E+03 -3.59755E+03 -6.79662E+02 -1.45874E+03 -1.27212E+03 -1.57768E+02 -5.78491E+02
 -1.96374E+03 -2.68078E+02 -2.02909E+03 -9.62002E+02 -1.46790E+03 -3.03369E+03  3.80582E+02 -4.29635E+03
  5.17771E+03 -2.78631E+03  6.71930E+03 -3.90412E+02  8.15398E+03  6.12306E+03  2.46963E+03  1.18306E+04
 -5.79974E+03  1.30542E+04 -1.22948E+04  7.50831E+03 -1.37994E+04 -9.77079E+02 -1.09585E+04 -8.42829E+03
 -4.12159E+03 -1.09833E+04  2.93298E+03 -1.09640E+04  7.64922E+03 -5.49051E+03  7.61499E+03  1.87767E+02
  4.23218E+03  3.28814E+03 -6.63987E+02  3.10556E+03 -1.83995E+03 -3.70514E+02 -7.36007E+02 -2.14777E+03
  3.47109E+03 -1.73301E+03  4.84754E+03  1.45001E+03  3.71410E+03  4.33887E+03  2.02122E+02  5.82087E+03
 -4.87186E+03  4.38703E+03 -8.40197E+03  3.25213E+02 -6.96761E+03 -5.86144E+03 -1.52846E+03 -9.43119E+03
  4.59114E+03 -7.46632E+03  9.09386E+03 -3.25920E+03  8.96966E+03  1.80825E+03  5.87587E+03  7.27310E+03
  1.29518E+03  7.43590E+03 -2.66991E+03  6.45225E+03 -5.13749E+03  2.29135E+03 -3.47274E+03 -2.12557E+00
 -2.76391E+03 -7.37048E+02 -2.03541E+03  1.28930E+03 -4.53396E+03  1.43901E+03 -5.90660E+03 -1.44396E+03
 -6.22573E+03 -4.16689E+03 -2.31156E+03 -8.37869E+03  3.30358E+03 -7.15508E+03  7.05839E+03 -3.60963E+03
  8.01610E+03  9.79496E+02  3.74285E+03  5.87283E+03 -7.20686E+02  7.64567E+03 -5.92618E+03  5.44350E+03
