 $NMID ID='MM_0lb_SNR400_12hz_g40_38.RAW', FMTDAT='(8E13.5)'
 TRAMP=1., VOLUME=1. $END
  3.10041E+05  4.20794E+02  3.37893E+05  2.50940E+05  8.50890E+04  3.37124E+05 -1.32690E+05  2.51224E+05
 -1.90297E+05  8.39655E+04 -1.12208E+05 -3.25423E+04  4.39595E+02 -5.09167E+04  5.45584E+04 -7.15724E+01
  3.51166E+04  5.24427E+04 -1.65735E+04  7.55725E+04 -6.14953E+04  6.39331E+04 -8.43491E+04  3.16861E+04
 -8.08927E+04 -1.17208E+04 -5.69574E+04 -5.17847E+04 -1.46744E+04 -7.02042E+04  2.77779E+04 -4.60277E+04
  4.02322E+04  3.74852E+03  1.63425E+04  4.78951E+04 -3.45846E+04  4.74576E+04 -6.70280E+04 -4.95970E+02
 -5.34322E+04 -5.68767E+04 -7.16608E+03 -7.72792E+04  3.40382E+04 -5.51728E+04  4.79606E+04 -1.72943E+04
  4.39181E+04  1.15051E+04  3.24858E+04  2.57422E+04  1.57538E+04  3.00029E+04 -4.98152E+03  2.72995E+04
 -2.22768E+04  1.25969E+04 -1.79510E+04 -5.72100E+03  5.88449E+03 -7.29968E+03  2.22753E+04  1.20111E+04
  6.84205E+03  3.58605E+04 -3.25270E+04  3.54377E+04 -6.38750E+04  2.42800E+03 -5.77407E+04 -4.28984E+04
 -1.26635E+04 -6.31075E+04  4.00292E+04 -4.66837E+04  5.88816E+04 -1.85072E+03  3.51263E+04  3.26688E+04
 -6.18605E+03  3.61595E+04 -3.05272E+04  1.66926E+04 -3.09707E+04 -5.18838E+03 -1.65034E+04 -1.12209E+04
 -8.53315E+03 -1.39021E+04 -4.67503E+02 -1.84747E+04  8.16296E+03 -2.26720E+04  1.53279E+04 -1.29880E+04
  1.16861E+04  5.21347E+03 -8.66491E+03  1.32697E+04 -2.16403E+04 -4.31137E+03 -8.24832E+03 -3.52010E+04
  2.30620E+04 -4.38716E+04  4.91966E+04 -1.99336E+04  4.59586E+04  1.96012E+04  1.60959E+04  4.42732E+04
 -1.65738E+04  3.41905E+04 -2.56318E+04  2.69635E+03 -1.07309E+04 -2.76599E+04  2.16414E+04 -3.46690E+04
  4.09724E+04 -9.32603E+03  3.69595E+04  2.39402E+04  1.92344E+04  4.70172E+04 -8.33540E+03  5.12257E+04
 -3.28239E+04  3.43753E+04 -4.26206E+04  9.73765E+03 -4.31295E+04 -1.67532E+04 -2.36608E+04 -3.92071E+04
  7.67005E+03 -3.83757E+04  3.18573E+04 -1.61133E+04  2.97975E+04  1.12291E+04  4.95049E+03  1.95208E+04
 -1.33795E+04  8.41516E+03 -1.05093E+04 -7.35887E+03  6.70920E+03 -1.09158E+04  1.81003E+04  5.60174E+03
  1.34800E+04  2.24803E+04 -6.01307E+03  2.57196E+04 -2.27809E+04  1.18110E+04 -2.90442E+04 -4.14295E+03
 -2.22428E+04 -1.73336E+04 -8.88588E+03 -2.13056E+04  4.32156E+03 -2.04197E+04  1.70643E+04 -1.96111E+04
  2.73935E+04 -1.25418E+04  3.34549E+04  3.78965E+03  2.49934E+04  2.10664E+04  4.09026E+03  3.69451E+04
 -1.72679E+04  3.12255E+04 -2.86222E+04  1.06994E+04 -2.08605E+04 -1.05893E+04 -4.29126E+03 -1.25437E+04
  1.87997E+03 -2.18181E+03 -5.28560E+03  7.38428E+03 -1.66961E+04  5.50647E+03 -1.72637E+04 -7.61180E+03
 -1.07481E+04 -1.99998E+04  5.12142E+03 -2.39952E+04  1.59750E+04 -1.73844E+04  1.90945E+04 -1.64272E+03
  1.15564E+04  1.37284E+04 -1.26490E+03  1.95029E+04 -1.35551E+04  1.18528E+04 -2.03751E+04 -5.12128E+03
 -1.37268E+04 -1.76020E+04 -2.00459E+03 -2.39642E+04  1.04430E+04 -2.01648E+04  1.98087E+04 -9.94326E+03
  1.88304E+04 -8.75763E+01  1.24774E+04  4.47156E+03  6.94360E+03  9.55187E+02  9.47079E+03 -2.05324E+03
  1.77915E+04  2.60766E+03  2.05046E+04  1.54876E+04  1.33122E+04  3.13121E+04 -2.50953E+03  3.64070E+04
 -2.13615E+04  2.97999E+04 -3.31170E+04  1.56727E+04 -3.60212E+04 -2.73642E+03 -2.96222E+04 -2.01351E+04
 -1.26205E+04 -2.96635E+04  1.01846E+04 -2.63350E+04  2.33694E+04 -1.34057E+04  2.04775E+04  5.40688E+03
  7.61896E+03  1.55878E+04 -9.42202E+03  1.33781E+04 -1.71097E+04  2.34652E+03 -1.34300E+04 -1.11498E+04
 -1.28170E+01 -1.62556E+04  8.36532E+03 -1.22861E+04  1.02123E+04 -1.03717E+03  2.14873E+03  7.36621E+03
 -7.11392E+03  2.22432E+03 -5.93914E+03 -5.94944E+03 -5.41623E+02 -1.42842E+04  9.95669E+03 -1.62018E+04
  1.74190E+04 -8.19479E+03  1.89834E+04  3.00758E+03  1.73320E+04  1.47348E+04  8.39842E+03  2.18691E+04
 -3.75563E+03  2.38148E+04 -1.59824E+04  1.52398E+04 -1.70770E+04  3.75870E+03 -1.18026E+04 -4.49484E+03
 -5.63783E+03 -5.02408E+03 -4.55047E+02  1.41909E+03 -2.57529E+03  2.55690E+03 -4.93789E+03  4.74059E+03
 -1.15919E+04 -9.80115E+02 -1.24982E+04 -9.56297E+03 -5.03816E+03 -1.52747E+04  5.14812E+03 -1.23891E+04
  1.02152E+04 -5.30407E+03  7.68989E+03  3.17385E+03 -5.81998E+02  4.83026E+03 -5.32674E+03 -5.51123E+02
 -5.40688E+03 -8.31489E+03 -1.10024E+03 -1.14064E+04  6.95129E+03 -1.24250E+04  1.53112E+04 -6.32009E+03
  1.80169E+04  1.91753E+03  1.33040E+04  1.01237E+04  2.51312E+03  1.47234E+04 -7.85328E+03  1.21212E+04
 -1.01187E+04  3.74605E+03 -5.02356E+03 -2.36946E+03  2.19009E+03 -3.34989E+03  6.63559E+03 -8.77186E+02
  6.16642E+03  5.47693E+03  9.37061E+02  9.53849E+03 -6.05375E+03  9.42707E+03 -1.18800E+04  2.27078E+03
 -7.76692E+03 -5.71201E+03  4.11157E+02 -1.10995E+04  6.31846E+03 -4.99873E+03  5.91836E+03  2.12948E+03
  1.45826E+03  7.57619E+03 -6.58341E+03  8.63990E+03 -9.27900E+03  3.62794E+03 -9.03545E+03 -3.43840E+03
 -5.58544E+03 -1.08663E+04  2.47308E+03 -1.31300E+04  1.15017E+04 -7.76742E+03  1.19252E+04  1.88787E+03
  7.81254E+03  9.99480E+03 -6.19754E+02  1.18236E+04 -9.30368E+03  6.87385E+03 -9.03215E+03 -1.04435E+03
 -8.28505E+03 -7.80393E+03 -1.33208E+03 -8.99011E+03  4.55695E+03 -6.64365E+03  5.66275E+03 -3.49953E+03
  4.43000E+03  1.18985E+03 -2.31252E+02  1.62132E+03 -1.68416E+02 -1.80536E+03  1.68676E+03 -4.15859E+03
  7.45999E+03 -3.35127E+03  1.07419E+04  5.96377E+02  1.07873E+04  7.10940E+03  7.69656E+03  1.48276E+04
 -2.97415E+03  1.66029E+04 -1.37595E+04  1.21179E+04 -1.86922E+04  2.80223E+03 -1.52165E+04 -5.72659E+03
 -7.31408E+03 -1.18476E+04 -3.42748E+02 -1.00607E+04  3.70135E+03 -4.95675E+03  3.94485E+03 -4.07897E+03
  2.45299E+03 -2.00480E+03  2.70982E+03 -3.39963E+03  4.36133E+03 -2.93529E+03  5.44466E+03 -6.35187E+02
  7.89622E+03  2.13541E+03  3.54142E+03  6.84348E+03 -1.91456E+03  7.45010E+03 -8.12871E+03  4.85930E+03
 -9.86628E+03 -1.18232E+03 -5.72269E+03 -7.39336E+03 -1.76249E+02 -1.03925E+04  5.99526E+03 -1.10403E+04
  1.15426E+04 -5.81111E+03  1.32035E+04  1.41983E+03  9.68782E+03  8.78592E+03  2.46282E+03  1.19105E+04
 -5.88697E+03  1.02743E+04 -7.12404E+03  3.83929E+03 -4.67695E+03 -1.49339E+03 -1.59266E+03 -1.88617E+03
 -1.11884E+03  5.97418E+02 -1.59912E+03  3.11501E+03 -5.21575E+03  8.48165E+02 -6.33549E+03 -4.08522E+02
 -4.74954E+03 -6.87602E+03  2.06379E+02 -1.02481E+04  6.09225E+03 -9.07803E+03  9.73338E+03 -2.28373E+03
  9.49572E+03  5.50533E+03  3.92770E+03  8.29753E+03 -2.14388E+03  1.01600E+04 -6.37330E+03  6.36322E+03
 -8.60755E+03  5.85281E+02 -6.49552E+03 -5.37860E+03 -8.40530E+02 -7.42169E+03  4.75444E+03 -5.68146E+03
  5.94234E+03 -2.39593E+03  3.47784E+03  1.92911E+03  2.02495E+03  3.47005E+03  7.95570E+02  1.65575E+03
  1.96853E+03  1.09557E+03  3.12703E+03  8.19396E+02  2.85678E+03  3.26479E+03  2.17111E+03  4.85518E+03
 -1.89974E+03  7.70889E+03 -6.56770E+03  7.80149E+03 -9.37534E+03  1.91946E+03 -9.87727E+03 -3.97233E+03
 -4.60590E+03 -9.05826E+03  1.63414E+03 -1.05674E+04  5.49490E+03 -6.18200E+03  7.47375E+03 -1.22672E+03
  5.27603E+03  3.41522E+03  1.49778E+03  6.17468E+03 -2.69049E+03  3.72230E+03 -3.85885E+03 -6.84593E+02
 -1.59017E+03 -4.23255E+03  1.75962E+03 -4.46481E+03  4.19562E+03 -2.71314E+03  4.06250E+03  1.64880E+03
  2.11735E+03  2.39056E+03  1.33361E+03  1.38151E+03 -7.38147E+02  1.10981E+03  1.80267E+03 -4.29378E+02
  9.98724E+02 -3.56764E+02  4.60214E+03  1.79436E+03  2.76982E+03  5.56451E+03 -8.89372E+02  6.92468E+03
 -4.10125E+03  4.50831E+03 -5.76475E+03  9.51068E+02 -4.78995E+03 -2.08342E+03 -2.30136E+03 -3.69233E+03
  5.23448E+02 -2.76199E+03  2.52083E+03 -1.66419E+03  2.11095E+03  2.25241E+03 -1.17895E+03  3.29942E+03
 -3.74348E+03  2.04632E+03 -4.67679E+03 -1.96649E+03 -2.61338E+03 -5.65235E+03  5.88864E+02 -4.73375E+03
  2.38666E+03 -3.28190E+03  3.49507E+03 -8.48875E+02  3.74540E+03  7.85154E+02  9.82019E+02  2.18936E+03
 -2.14709E+03  3.70176E+02 -2.87864E+03 -1.17355E+03  8.20707E+02 -4.30572E+03  4.49795E+03 -3.37352E+03
  5.36590E+03  8.21820E+02  5.96798E+03  4.39065E+03  2.18536E+03  6.07003E+03 -1.50326E+03  5.98332E+03
 -4.41918E+03  2.67108E+03 -4.60846E+03 -7.96073E+02 -2.52132E+03 -3.44266E+03  6.47984E+02 -2.93108E+03
  3.52586E+03 -2.02600E+03  2.96294E+03  1.42028E+03  3.43802E+02  2.68130E+03 -4.27033E+02  2.88014E+03
 -1.18354E+03  2.26372E+03 -1.04244E+03  3.65078E+02 -6.17063E+02  8.85634E+02 -8.43245E+02  1.54460E+03
 -1.40219E+03  2.07939E+03 -4.27695E+03  2.24594E+03 -5.43993E+03  4.63959E+01 -6.63639E+03 -3.88610E+03
 -3.44423E+03 -7.38247E+03  1.58625E+03 -8.69563E+03  5.11730E+03 -6.83633E+03  8.18876E+03 -2.81862E+03
  7.54170E+03  7.90977E+02  4.11794E+03  5.01004E+03  6.91166E+02  5.86690E+03 -2.75075E+03  5.09240E+03
 -3.07343E+03  1.66489E+03 -1.85055E+03 -5.75690E+02 -1.52918E+03 -2.45000E+02 -6.33810E+02 -1.88989E+02
 -1.47236E+03  6.59832E+02 -2.05347E+03 -1.99198E+02 -4.04148E+02 -9.66590E+02 -8.11666E+02 -2.22915E+03
  2.68079E+03 -1.88287E+03  2.73684E+03 -5.90876E+02  4.17552E+03  2.97390E+03  1.34968E+03  5.49825E+03
 -2.85519E+03  7.02382E+03 -6.70253E+03  4.44870E+03 -7.31005E+03 -7.35584E+02 -5.45892E+03 -4.14705E+03
 -2.18216E+03 -5.87165E+03  1.13739E+03 -5.68830E+03  3.54639E+03 -2.71769E+03  3.74802E+03  3.64758E+02
  1.64922E+03  1.07290E+03 -3.48952E+02  1.89072E+03 -5.83051E+02 -4.62044E+02  1.09495E+02 -1.51220E+03
  1.70452E+03 -1.07940E+03  2.14305E+03  9.92316E+02  1.63128E+03  1.97392E+03  2.60686E+02  2.78495E+03
 -2.29543E+03  2.34250E+03 -3.57901E+03  3.60212E+02 -2.88509E+03 -2.16326E+03 -4.66300E+02 -5.12220E+03
  2.14630E+03 -4.09341E+03  3.43092E+03 -9.96274E+02  4.37107E+03  3.57472E+02  2.33457E+03  2.94728E+03
 -1.40100E+02  3.38850E+03 -1.23123E+03  3.00024E+03 -2.60577E+03  1.86456E+03 -2.05140E+03  1.21779E+02
 -7.75464E+02 -7.65500E+02 -1.49876E+03  1.24920E+03 -1.62521E+03  7.13819E+02 -3.54355E+03 -2.90784E+02
 -3.05917E+03 -9.86018E+02 -1.53536E+03 -3.48911E+03  2.35530E+03 -4.33580E+03  2.91057E+03 -2.12519E+03
  3.26443E+03  6.47610E+02  1.17731E+03  1.74340E+03 -6.26019E+02  3.46321E+03 -2.75302E+03  2.83905E+03
