 $NMID ID='MM_0lb_SNR400_15hz_g45_5.RAW', FMTDAT='(8E13.5)'
 TRAMP=1., VOLUME=1. $END
  3.09717E+05  2.42688E+02  3.37544E+05  2.49917E+05  8.47187E+04  3.37357E+05 -1.33006E+05  2.50984E+05
 -1.89982E+05  8.24196E+04 -1.11262E+05 -3.21182E+04  1.17188E+03 -5.09297E+04  5.35320E+04 -3.63946E+02
  3.52051E+04  5.29768E+04 -1.73497E+04  7.53096E+04 -6.14025E+04  6.37641E+04 -8.30420E+04  3.18770E+04
 -7.99139E+04 -1.12536E+04 -5.73270E+04 -5.09117E+04 -1.48020E+04 -6.90520E+04  2.71018E+04 -4.52702E+04
  3.95559E+04  3.56298E+03  1.61697E+04  4.72254E+04 -3.35583E+04  4.72047E+04 -6.62148E+04 -6.84580E+02
 -5.31927E+04 -5.66298E+04 -6.49643E+03 -7.58769E+04  3.37104E+04 -5.40073E+04  4.69781E+04 -1.67708E+04
  4.26886E+04  1.10887E+04  3.17017E+04  2.44970E+04  1.61337E+04  2.93083E+04 -4.96451E+03  2.70209E+04
 -2.21530E+04  1.19585E+04 -1.91419E+04 -5.00926E+03  5.15184E+03 -7.69877E+03  2.22746E+04  1.20179E+04
  7.25691E+03  3.50831E+04 -3.13252E+04  3.51261E+04 -6.23872E+04  1.76579E+03 -5.65065E+04 -4.28819E+04
 -1.26656E+04 -6.26131E+04  3.89878E+04 -4.42761E+04  5.75115E+04 -1.94497E+03  3.36641E+04  3.16313E+04
 -6.04189E+03  3.48824E+04 -2.93369E+04  1.48261E+04 -2.95480E+04 -5.11195E+03 -1.57964E+04 -1.07183E+04
 -8.07183E+03 -1.28573E+04 -1.22751E+03 -1.74821E+04  7.60297E+03 -2.32412E+04  1.57378E+04 -1.30359E+04
  1.20115E+04  4.79158E+03 -7.24484E+03  1.33755E+04 -2.08315E+04 -3.91342E+03 -7.96758E+03 -3.21386E+04
  2.24755E+04 -4.22352E+04  4.72735E+04 -1.93354E+04  4.35443E+04  1.90009E+04  1.53165E+04  4.32515E+04
 -1.58149E+04  3.26299E+04 -2.47462E+04  1.58967E+03 -9.08900E+03 -2.75219E+04  2.11098E+04 -3.30281E+04
  3.93490E+04 -8.39315E+03  3.37486E+04  2.31044E+04  1.70932E+04  4.50849E+04 -7.90367E+03  4.89468E+04
 -3.04192E+04  3.24790E+04 -4.03537E+04  9.83630E+03 -4.12461E+04 -1.59841E+04 -2.24745E+04 -3.63412E+04
  7.32768E+03 -3.68739E+04  3.06671E+04 -1.37409E+04  2.85053E+04  1.05759E+04  3.60774E+03  1.85220E+04
 -1.34153E+04  8.02507E+03 -1.02551E+04 -7.71455E+03  5.85262E+03 -1.00665E+04  1.82415E+04  6.01331E+03
  1.30529E+04  2.17302E+04 -6.90061E+03  2.45955E+04 -2.20387E+04  1.13041E+04 -2.70980E+04 -4.69031E+03
 -1.88095E+04 -1.71070E+04 -7.23789E+03 -1.92289E+04  3.87102E+03 -1.76546E+04  1.36396E+04 -1.73164E+04
  2.46586E+04 -1.23979E+04  3.06445E+04  2.77793E+03  2.33738E+04  1.88731E+04  4.15325E+03  3.53911E+04
 -1.72349E+04  3.01775E+04 -2.73939E+04  9.64260E+03 -2.07749E+04 -1.03059E+04 -4.54185E+03 -1.33917E+04
  1.88790E+03 -2.65182E+03 -4.00303E+03  6.08415E+03 -1.54981E+04  4.69416E+03 -1.58686E+04 -5.97189E+03
 -9.96454E+03 -1.75660E+04  4.50103E+03 -2.17345E+04  1.38117E+04 -1.63249E+04  1.67566E+04 -1.58390E+03
  1.07994E+04  1.24986E+04 -7.71013E+02  1.81350E+04 -1.14591E+04  1.05696E+04 -1.77181E+04 -4.47706E+03
 -1.31128E+04 -1.63590E+04 -2.04799E+03 -2.15985E+04  1.01114E+04 -1.74725E+04  1.81620E+04 -8.58859E+03
  1.67149E+04  4.35752E+02  1.15986E+04  4.07087E+03  5.88539E+03  6.77755E+02  8.88238E+03 -1.80853E+03
  1.60510E+04  2.58963E+03  1.80862E+04  1.42398E+04  1.22047E+04  2.88194E+04 -2.78069E+03  3.17490E+04
 -1.86048E+04  2.56324E+04 -3.00415E+04  1.27872E+04 -3.04773E+04 -2.26447E+03 -2.54594E+04 -1.80171E+04
 -1.11084E+04 -2.52242E+04  8.21655E+03 -2.34518E+04  2.02354E+04 -1.20821E+04  1.81763E+04  5.05682E+03
  6.85712E+03  1.31932E+04 -9.13173E+03  1.18045E+04 -1.46528E+04  2.08383E+03 -1.15032E+04 -9.91213E+03
  8.82876E+01 -1.47780E+04  7.93357E+03 -1.13017E+04  1.00027E+04 -1.24404E+03  1.56251E+03  6.02361E+03
 -6.70687E+03  2.46824E+03 -5.17218E+03 -5.25101E+03 -3.83867E+02 -1.29419E+04  8.98430E+03 -1.27561E+04
  1.46849E+04 -6.19858E+03  1.59943E+04  2.70331E+03  1.37402E+04  1.19239E+04  6.57949E+03  1.83096E+04
 -2.69024E+03  2.04805E+04 -1.27868E+04  1.32484E+04 -1.43473E+04  3.41539E+03 -9.98372E+03 -2.83047E+03
 -5.07674E+03 -4.09080E+03 -1.33795E+03  1.62894E+03 -2.55638E+03  2.64877E+03 -4.62886E+03  3.93963E+03
 -9.61210E+03 -8.08001E+02 -1.01046E+04 -8.38317E+03 -4.35392E+03 -1.36616E+04  4.78078E+03 -1.05601E+04
  8.61125E+03 -4.31856E+03  5.88105E+03  2.19365E+03  2.61652E+02  4.16036E+03 -4.57665E+03 -4.36420E+02
 -3.99248E+03 -6.53943E+03 -7.44483E+02 -9.66137E+03  5.33396E+03 -1.03847E+04  1.23802E+04 -4.85097E+03
  1.51124E+04  1.18793E+03  1.11320E+04  8.29697E+03  1.61023E+03  1.15484E+04 -6.88196E+03  1.03985E+04
 -8.59126E+03  4.02491E+03 -4.52909E+03 -1.94499E+03  1.66348E+03 -2.86932E+03  5.40789E+03 -9.88315E+02
  4.96960E+03  4.37906E+03  1.04907E+03  8.05174E+03 -5.60039E+03  7.83691E+03 -9.98678E+03  2.09483E+03
 -6.28063E+03 -5.45747E+03  5.07572E+02 -8.71382E+03  5.45446E+03 -4.60342E+03  5.36164E+03  1.92762E+03
  6.55578E+02  4.88377E+03 -5.20310E+03  6.04139E+03 -6.77259E+03  3.21439E+03 -6.77050E+03 -1.83031E+03
 -3.84358E+03 -8.09084E+03  1.48156E+03 -1.04889E+04  8.76425E+03 -6.28533E+03  9.73717E+03  1.82428E+03
  5.86592E+03  7.58559E+03  2.16982E+01  9.43850E+03 -6.49750E+03  5.12042E+03 -6.80663E+03 -4.15408E+02
 -7.28025E+03 -6.59497E+03 -1.47635E+03 -7.13196E+03  3.32973E+03 -6.14623E+03  4.65117E+03 -3.76440E+03
  3.47965E+03  7.67729E+02  2.13307E+01  8.57679E+02  1.99160E+02 -1.05706E+03  3.64719E+02 -2.96915E+03
  5.58632E+03 -1.29521E+03  8.14183E+03  1.36700E+03  8.21829E+03  5.07442E+03  6.61862E+03  1.09320E+04
 -2.41585E+03  1.22568E+04 -1.12837E+04  9.42575E+03 -1.34921E+04  2.32006E+03 -1.07822E+04 -3.92746E+03
 -5.55929E+03 -8.88774E+03  1.78306E+01 -6.53845E+03  3.03757E+03 -3.90522E+03  3.45192E+03 -3.48985E+03
  1.99530E+03 -2.29646E+03  2.80454E+03 -3.30999E+03  3.63613E+03 -2.01522E+03  4.62008E+03  2.75950E+02
  5.75921E+03  1.49470E+03  2.15862E+03  5.19781E+03 -1.76155E+03  4.74815E+03 -6.52792E+03  4.06533E+03
 -7.04427E+03 -7.66574E+02 -3.69246E+03 -5.21198E+03 -1.85325E+02 -7.71254E+03  4.26139E+03 -7.73099E+03
  8.16020E+03 -4.55052E+03  1.01809E+04  1.22098E+03  7.04519E+03  7.23168E+03  1.24102E+03  8.33630E+03
 -3.25956E+03  7.75335E+03 -4.82310E+03  2.45355E+03 -3.01262E+03 -1.39418E+03 -8.20927E+02 -1.26293E+03
 -1.21438E+02  2.78837E+02 -1.55187E+03  2.73921E+03 -3.64904E+03  1.38855E+03 -5.72554E+03 -9.76942E+02
 -3.05014E+03 -4.75808E+03  2.51787E+02 -6.95648E+03  4.55845E+03 -7.30326E+03  5.56168E+03 -2.09348E+03
  7.06479E+03  3.90627E+03  3.53603E+03  5.51001E+03 -8.39728E+02  6.81756E+03 -4.86464E+03  4.24255E+03
 -6.29756E+03  8.30725E+02 -5.28870E+03 -3.83110E+03 -2.44650E+02 -5.24651E+03  2.47570E+03 -3.56114E+03
  3.88684E+03 -1.70798E+03  2.91803E+03  7.41316E+02  9.46049E+02  2.97524E+03  5.61247E+02  6.95546E+02
  1.70324E+03  2.52636E+02  2.00657E+03  1.23703E+03  1.84762E+03  2.84552E+03  1.89063E+03  3.07937E+03
 -1.54871E+03  4.71696E+03 -4.66398E+03  5.98760E+03 -5.84408E+03  2.03810E+03 -7.30408E+03 -1.90949E+03
 -3.00018E+03 -6.20269E+03  2.97042E+02 -7.48772E+03  3.81737E+03 -4.24907E+03  5.50995E+03 -1.60965E+03
  3.96612E+03  2.30881E+03  1.45463E+03  4.23655E+03 -1.66564E+03  2.14510E+03 -1.43929E+03 -4.84300E+02
 -3.98794E+02 -2.82231E+03  2.05304E+03 -2.52815E+03  2.93332E+03 -1.00064E+03  2.25068E+03  8.08416E+02
  1.52261E+03  7.51602E+02  7.72906E+02  5.33516E+01 -5.74620E+02  8.04458E+02  1.90013E+03 -2.27118E+01
  1.08990E+03 -6.86330E+02  2.53367E+03  1.35384E+03  1.31999E+03  3.40826E+03 -4.37427E+02  4.43059E+03
 -2.69279E+03  2.26121E+03 -3.89047E+03  3.95193E+02 -4.05816E+03 -1.48602E+03 -8.01419E+02 -2.37037E+03
  7.21237E+02 -1.80501E+03  1.91332E+03 -1.20410E+03  1.00885E+03  2.05986E+03 -8.79146E+02  1.90825E+03
 -2.63627E+03  1.31306E+03 -2.21284E+03 -2.24568E+03 -1.46826E+03 -3.29411E+03  6.69143E+02 -3.55869E+03
  1.89036E+03 -1.02146E+03  1.79960E+03 -8.57004E+01  2.14587E+03  2.99642E+02  6.46888E+02  1.93161E+03
 -7.91815E+02  4.69679E+02 -1.63990E+03 -8.79414E+02  8.99764E+02 -1.39855E+03  2.46041E+03 -1.22154E+03
  3.02457E+03  7.70657E+02  4.60570E+03  1.50143E+03  1.08870E+03  3.66335E+03 -9.19730E+02  3.69532E+03
 -3.31508E+03  1.11596E+03 -3.18739E+03 -1.75479E+01 -1.77065E+03 -2.50277E+03  5.66452E+02 -2.02286E+03
  2.60207E+03 -5.94065E+02  1.47113E+03  6.59139E+02  3.39339E+02  1.99180E+03  1.25395E+02  2.04461E+03
 -9.26509E+02  9.17581E+02 -1.00597E+03 -6.14796E+01 -8.08175E+02  6.21697E+02 -6.95495E+02  3.15820E+02
 -4.67891E+02  1.46418E+03 -2.75583E+03  1.39988E+03 -3.24901E+03  3.22106E+02 -4.41056E+03 -2.45067E+03
 -1.96436E+03 -4.68028E+03  1.86350E+02 -5.33726E+03  2.76627E+03 -4.52855E+03  5.83578E+03 -1.95560E+03
  4.72165E+03  5.97302E+02  2.37061E+03  2.78068E+03 -4.64189E+02  2.86496E+03 -1.43462E+03  2.46276E+03
 -1.88904E+03  7.73257E+02 -6.89764E+02  1.05421E+02 -6.97195E+02 -1.40984E+02 -5.32481E+02 -3.53149E+02
 -1.45109E+03  1.16793E+02 -1.19131E+03 -2.98547E+01  3.85775E+01 -1.13306E+03 -9.30238E+01 -1.37273E+03
  2.23774E+03 -2.76692E+02  1.29717E+03 -9.96190E+02  1.98644E+03  2.46261E+03  4.38633E+02  3.23860E+03
 -2.19855E+03  4.19987E+03 -3.20327E+03  2.31745E+03 -3.64165E+03 -4.11308E+02 -2.85925E+03 -2.38239E+03
 -1.45939E+03 -2.72057E+03  3.93153E+02 -2.86176E+03  2.18138E+03 -1.31686E+03  2.19706E+03 -1.41762E+02
  1.37256E+03  1.32043E+03  1.26031E+02  2.83435E+02 -9.52609E+02 -1.07159E+01  1.33957E+02 -4.27714E+02
  9.55098E+02 -5.75423E+01  2.79863E+02  1.08976E+02  3.81575E+02  9.20055E+02 -2.83560E+02  4.67843E+02
 -1.82599E+03  5.76959E+02 -1.81442E+03 -5.62959E+02 -1.40029E+03 -1.35054E+03 -2.63817E+02 -2.52991E+03
  4.77023E+02 -1.29267E+03  1.91393E+03 -7.54281E+02  2.46605E+03 -2.45782E+02  7.73604E+02  2.03348E+03
  9.93217E+01  1.19059E+03 -2.99276E+02  9.66949E+02 -1.55942E+03  1.41753E+03 -4.89697E+02 -1.41116E+02
 -4.59081E+02  3.44149E+02 -1.92807E+01 -5.95244E+02 -5.68578E+02  7.42558E+02 -1.51489E+03 -4.47013E+02
 -1.49360E+03  6.88069E+01 -1.08469E+03 -2.42717E+03  1.18134E+03 -3.35566E+03  1.62257E+03 -1.62324E+03
  1.72465E+03  3.54180E+02  3.53585E+02  9.28972E+02 -3.44133E+02  1.60904E+03 -1.14203E+03  1.72853E+03
