 $NMID ID='MM_0lb_SNR400_8hz_g50_77.RAW', FMTDAT='(8E13.5)'
 TRAMP=1., VOLUME=1. $END
  3.09564E+05  4.59302E+02  3.38088E+05  2.51468E+05  8.44615E+04  3.38129E+05 -1.32995E+05  2.51831E+05
 -1.90978E+05  8.44005E+04 -1.13089E+05 -3.21856E+04 -2.86021E+02 -5.16225E+04  5.31434E+04 -3.63576E+02
  3.53703E+04  5.32812E+04 -1.65270E+04  7.59721E+04 -6.06888E+04  6.58285E+04 -8.49747E+04  3.21122E+04
 -8.27062E+04 -1.19453E+04 -5.87844E+04 -5.37789E+04 -1.52544E+04 -7.17220E+04  2.82073E+04 -4.69734E+04
  4.07432E+04  3.46103E+03  1.66535E+04  4.87214E+04 -3.52511E+04  4.86239E+04 -6.82344E+04  3.50098E+02
 -5.48540E+04 -5.71881E+04 -7.82154E+03 -8.03990E+04  3.48234E+04 -5.88601E+04  5.04337E+04 -1.93500E+04
  4.42810E+04  1.12398E+04  3.25327E+04  2.71423E+04  1.56485E+04  3.11271E+04 -6.39776E+03  2.78455E+04
 -2.26212E+04  1.15150E+04 -1.73248E+04 -7.15937E+03  7.21651E+03 -7.62107E+03  2.31678E+04  1.37946E+04
  7.04323E+03  3.80487E+04 -3.52680E+04  3.66968E+04 -6.60417E+04  2.20003E+03 -5.84914E+04 -4.47147E+04
 -1.31565E+04 -6.66545E+04  4.14420E+04 -4.80021E+04  6.23050E+04 -2.26878E+03  3.71492E+04  3.49035E+04
 -4.75830E+03  4.02796E+04 -3.22738E+04  2.04116E+04 -3.39971E+04 -3.63050E+03 -2.00301E+04 -1.22214E+04
 -8.88488E+03 -1.47285E+04 -5.05095E+02 -1.94950E+04  8.94860E+03 -2.32642E+04  1.58877E+04 -1.36384E+04
  1.02473E+04  6.61888E+03 -1.03859E+04  1.26599E+04 -2.30247E+04 -7.57913E+03 -8.45011E+03 -3.75064E+04
  2.54661E+04 -4.78289E+04  5.23306E+04 -2.13508E+04  5.00786E+04  2.11208E+04  1.77900E+04  4.76817E+04
 -1.72490E+04  3.70314E+04 -2.74413E+04  2.36689E+03 -1.19938E+04 -2.92235E+04  2.15926E+04 -3.77328E+04
  4.57725E+04 -1.17546E+04  4.20782E+04  2.61847E+04  2.20668E+04  5.19759E+04 -7.48143E+03  5.82892E+04
 -3.55744E+04  3.88276E+04 -4.92964E+04  1.08522E+04 -4.85151E+04 -1.90299E+04 -2.64694E+04 -4.23658E+04
  7.46965E+03 -4.24513E+04  3.60030E+04 -1.79018E+04  3.19955E+04  1.04084E+04  5.10057E+03  2.06529E+04
 -1.49120E+04  9.68202E+03 -1.15786E+04 -7.76954E+03  5.59590E+03 -1.14754E+04  1.84130E+04  6.01137E+03
  1.53795E+04  2.29077E+04 -4.41216E+03  2.77822E+04 -2.37014E+04  1.48484E+04 -3.22245E+04 -1.96463E+03
 -2.64948E+04 -1.84662E+04 -1.19698E+04 -2.62222E+04  4.95886E+03 -2.66861E+04  2.09150E+04 -2.43760E+04
  3.38265E+04 -1.38193E+04  3.93645E+04  5.80443E+03  2.70869E+04  2.54376E+04  4.68671E+03  4.20906E+04
 -2.07827E+04  3.55014E+04 -3.14227E+04  1.22935E+04 -2.31432E+04 -1.03745E+04 -4.69488E+03 -1.28901E+04
  1.34733E+03 -4.70701E+02 -8.60533E+03  8.67293E+03 -2.04852E+04  4.33288E+03 -2.11423E+04 -9.68478E+03
 -1.22572E+04 -2.43860E+04  6.48602E+03 -2.75366E+04  2.05518E+04 -2.08745E+04  2.30555E+04 -2.25503E+03
  1.42198E+04  1.68506E+04 -9.87990E+02  2.37614E+04 -1.68864E+04  1.47164E+04 -2.49836E+04 -4.89695E+03
 -1.76512E+04 -2.24696E+04 -2.45709E+03 -2.90003E+04  1.24696E+04 -2.43619E+04  2.35895E+04 -1.32712E+04
  2.32738E+04  3.49397E+02  1.70742E+04  5.41802E+03  9.04861E+03  1.11898E+03  1.35915E+04 -2.41385E+03
  2.27107E+04  3.51472E+03  2.67332E+04  1.89088E+04  1.83128E+04  3.83876E+04 -2.78694E+03  4.61410E+04
 -2.73595E+04  3.86207E+04 -4.39050E+04  2.00858E+04 -4.71722E+04 -2.62202E+03 -3.82659E+04 -2.80505E+04
 -1.55325E+04 -3.93226E+04  1.38277E+04 -3.40968E+04  2.99117E+04 -1.61218E+04  2.56318E+04  8.11195E+03
  8.11359E+03  2.06168E+04 -1.24808E+04  1.54881E+04 -2.14777E+04  2.89526E+03 -1.54956E+04 -1.31693E+04
 -6.79560E+02 -2.07283E+04  1.03883E+04 -1.54526E+04  1.32928E+04 -8.66908E+02  4.55035E+03  8.87394E+03
 -9.01832E+03  3.71723E+03 -1.02632E+04 -7.04152E+03 -1.79780E+03 -1.90100E+04  1.22513E+04 -2.11265E+04
  2.42694E+04 -1.16500E+04  2.86979E+04  3.46233E+03  2.45818E+04  1.90310E+04  1.18838E+04  3.12846E+04
 -6.13766E+03  3.33183E+04 -2.21813E+04  2.01964E+04 -2.41016E+04  3.77089E+03 -1.64887E+04 -6.42668E+03
 -7.74694E+03 -8.01039E+03 -1.37847E+03  3.64442E+02 -3.98763E+03  3.97429E+03 -7.34251E+03  6.02186E+03
 -1.51540E+04 -1.23912E+03 -1.62777E+04 -1.23999E+04 -6.99074E+03 -2.10988E+04  6.81333E+03 -1.74441E+04
  1.27971E+04 -7.34537E+03  9.82194E+03  4.85316E+03 -3.22750E+02  6.63360E+03 -8.88707E+03 -4.84472E+02
 -7.86580E+03 -1.05382E+04 -1.69639E+03 -1.63858E+04  1.03168E+04 -1.73882E+04  2.11635E+04 -9.74913E+03
  2.57750E+04  2.78168E+03  1.87595E+04  1.56929E+04  3.41459E+03  2.03397E+04 -1.06908E+04  1.54944E+04
 -1.28752E+04  4.97624E+03 -6.92469E+03 -4.96888E+03  2.76787E+03 -4.19208E+03  8.70525E+03 -3.68450E+02
  7.67007E+03  7.63342E+03  1.47965E+03  1.30856E+04 -1.00536E+04  1.25185E+04 -1.74922E+04  3.36561E+03
 -1.14444E+04 -8.83623E+03 -3.75756E+02 -1.53194E+04  9.94711E+03 -7.16571E+03  1.01298E+04  3.93165E+03
  3.34625E+03  1.13002E+04 -9.06468E+03  1.25254E+04 -1.52731E+04  4.92990E+03 -1.56121E+04 -6.44512E+03
 -8.96106E+03 -1.72520E+04  4.90139E+03 -1.99126E+04  1.67148E+04 -1.10666E+04  1.87496E+04  3.28792E+03
  1.05845E+04  1.41284E+04 -1.98684E+03  1.70983E+04 -1.27700E+04  9.84103E+03 -1.37179E+04 -1.54452E+03
 -1.07708E+04 -1.12979E+04 -2.40710E+03 -1.27790E+04  6.46392E+03 -1.04539E+04  9.13703E+03 -4.15474E+03
  4.62092E+03  2.68123E+03 -5.93020E+02  1.52953E+03 -3.66163E+02 -4.42630E+03  2.17839E+03 -7.73051E+03
  1.27064E+04 -5.15803E+03  1.80096E+04  1.95688E+03  1.75859E+04  1.25662E+04  1.12411E+04  2.31860E+04
 -4.82827E+03  2.60796E+04 -2.22784E+04  1.93021E+04 -2.88171E+04  3.81577E+03 -2.31439E+04 -1.02797E+04
 -1.17435E+04 -1.86008E+04 -1.06446E+03 -1.62014E+04  5.25314E+03 -1.05511E+04  4.96452E+03 -5.40685E+03
  4.31814E+03 -3.31328E+03  4.40087E+03 -3.89078E+03  6.16230E+03 -3.96679E+03  9.01093E+03 -1.69477E+03
  1.14370E+04  2.99554E+03  6.40901E+03  1.08946E+04 -1.12655E+03  1.22450E+04 -1.29311E+04  1.02884E+04
 -1.73061E+04 -7.92142E+02 -1.05652E+04 -1.17608E+04 -8.55171E+02 -1.78113E+04  8.92712E+03 -1.73066E+04
  1.89613E+04 -9.77704E+03  2.16293E+04  2.67270E+03  1.52876E+04  1.53169E+04  2.54263E+03  1.95046E+04
 -8.25565E+03  1.53597E+04 -1.12191E+04  5.63368E+03 -8.54903E+03 -2.11737E+03 -3.27081E+03 -2.86649E+03
 -1.10373E+03  2.70555E+02 -2.96442E+03  3.27411E+03 -6.62418E+03  2.94515E+03 -1.23767E+04 -2.13310E+03
 -7.93601E+03 -1.16616E+04 -4.49585E+01 -1.64680E+04  1.04567E+04 -1.54281E+04  1.61036E+04 -4.80136E+03
  1.68106E+04  7.86964E+03  7.43320E+03  1.55895E+04 -3.05283E+03  1.62263E+04 -1.20429E+04  1.01166E+04
 -1.55532E+04  6.49539E+02 -1.16252E+04 -1.09132E+04 -1.44466E+03 -1.41091E+04  7.52070E+03 -1.02293E+04
  1.04399E+04 -2.59196E+03  6.17581E+03  2.93075E+03  2.36395E+03  5.04264E+03  4.00602E+02  2.49473E+03
  3.52121E+03  1.80522E+03  3.62896E+03  2.46399E+03  4.83802E+03  5.62777E+03  4.47853E+03  9.63138E+03
 -3.44382E+03  1.30980E+04 -1.23745E+04  1.29747E+04 -1.73319E+04  3.02717E+03 -1.67166E+04 -8.16770E+03
 -9.12618E+03 -1.69176E+04  2.83261E+03 -1.89915E+04  1.12568E+04 -1.10958E+04  1.38472E+04 -2.95364E+03
  1.06497E+04  6.28299E+03  1.85257E+03  9.79309E+03 -5.50756E+03  6.31925E+03 -7.13067E+03 -9.36568E+02
 -3.31644E+03 -7.57718E+03  4.36991E+03 -8.48576E+03  6.32038E+03 -3.50222E+03  6.72865E+03  1.48689E+03
  4.63959E+03  4.54765E+03  1.85875E+03  3.71697E+03 -1.08607E+03  2.48140E+03  1.90569E+03 -1.61612E+02
  2.27627E+03 -2.84231E+02  7.43201E+03  2.33441E+03  4.51428E+03  9.17873E+03 -1.63225E+03  1.23602E+04
 -7.96637E+03  9.07909E+03 -1.10990E+04  2.31457E+03 -1.02802E+04 -4.49214E+03 -4.67765E+03 -6.42918E+03
  7.87239E+02 -6.27177E+03  4.45672E+03 -3.67701E+03  3.59543E+03  3.22758E+03 -2.03586E+03  6.24656E+03
 -7.27337E+03  3.07941E+03 -8.86297E+03 -3.52386E+03 -4.71562E+03 -9.71680E+03  2.25277E+03 -9.66349E+03
  6.13406E+03 -5.04692E+03  6.91511E+03 -9.17035E+02  5.33751E+03  2.76350E+03  1.81203E+03  4.88963E+03
 -3.76811E+03  2.23299E+03 -4.68962E+03 -3.59197E+03  1.39682E+03 -8.15905E+03  9.66174E+03 -6.30630E+03
  1.12747E+04  9.74187E+02  1.13250E+04  8.05777E+03  3.23813E+03  1.17899E+04 -4.64225E+03  1.10679E+04
 -9.00084E+03  5.08783E+03 -9.18416E+03 -1.55784E+03 -5.95574E+03 -7.92065E+03  1.75784E+03 -7.48070E+03
  6.94826E+03 -3.59398E+03  7.29061E+03  3.32258E+03  1.87147E+03  7.19039E+03 -1.00396E+03  5.46021E+03
 -2.76590E+03  3.14320E+03 -3.62843E+03  1.81180E+03 -1.25207E+03  1.01353E+03 -1.36538E+03  2.30236E+03
 -4.11756E+03  3.89429E+03 -8.11087E+03  3.87656E+03 -1.21147E+04 -2.98570E+01 -1.31559E+04 -7.85616E+03
 -6.90464E+03 -1.57431E+04  2.64068E+03 -1.81091E+04  1.19227E+04 -1.46783E+04  1.74953E+04 -4.79331E+03
  1.64708E+04  3.35967E+03  9.97371E+03  1.08362E+04  9.64998E+02  1.29118E+04 -5.33332E+03  9.83699E+03
 -7.56486E+03  4.08116E+03 -4.79774E+03 -1.11458E+03 -9.81161E+02 -1.91231E+03 -1.04902E+03 -1.74533E+02
 -2.08608E+03  1.72601E+02 -2.55007E+03 -9.23208E+02 -7.66239E+02 -3.53955E+03  7.46705E+02 -4.96758E+03
  5.34454E+03 -4.67949E+03  7.76901E+03 -6.18218E+02  8.29680E+03  6.70386E+03  2.81453E+03  1.30639E+04
 -5.70865E+03  1.29041E+04 -1.26015E+04  7.44714E+03 -1.54137E+04 -1.90424E+03 -1.07898E+04 -9.90788E+03
 -5.40950E+03 -1.23426E+04  3.09063E+03 -1.24146E+04  7.52590E+03 -6.26673E+03  8.42049E+03  3.34920E+02
  4.05557E+03  4.50088E+03 -7.48213E+02  4.48895E+03 -1.39850E+03 -3.82616E+02  4.08123E+02 -2.53033E+03
  4.80600E+03 -1.45951E+03  5.25134E+03  2.37712E+03  3.24248E+03  5.64115E+03 -2.54504E+02  6.58779E+03
 -5.36538E+03  5.86281E+03 -8.17547E+03  7.79735E+02 -8.42889E+03 -6.87827E+03 -8.44823E+02 -1.02379E+04
  6.58537E+03 -9.11505E+03  9.62720E+03 -3.56263E+03  9.58330E+03  3.09611E+03  5.80588E+03  7.29141E+03
  1.06252E+03  9.02290E+03 -3.63751E+03  6.63868E+03 -5.81771E+03  3.75855E+03 -5.38311E+03  4.86754E+02
 -1.95251E+03 -7.49360E+01 -2.30770E+03  7.86885E+02 -4.89530E+03  1.85911E+03 -5.84206E+03 -5.63831E+02
 -6.52519E+03 -3.99739E+03 -2.61798E+03 -7.92426E+03  4.20580E+03 -8.72218E+03  6.65168E+03 -4.71949E+03
  9.10154E+03  7.66512E+02  5.77141E+03  6.31670E+03 -4.14086E+02  8.59980E+03 -6.79611E+03  5.45328E+03
