 $NMID ID='MM_0lb_SNR400_9hz_g40_5.RAW', FMTDAT='(8E13.5)'
 TRAMP=1., VOLUME=1. $END
  3.09647E+05  4.74008E+02  3.37787E+05  2.50613E+05  8.49982E+04  3.37862E+05 -1.32521E+05  2.51238E+05
 -1.90724E+05  8.34450E+04 -1.12798E+05 -3.25304E+04  1.46189E+02 -4.95551E+04  5.39056E+04 -4.73047E+02
  3.51928E+04  5.23733E+04 -1.68937E+04  7.58016E+04 -6.09584E+04  6.37767E+04 -8.45951E+04  3.25039E+04
 -8.17646E+04 -1.09757E+04 -5.86338E+04 -5.24931E+04 -1.49089E+04 -7.09698E+04  2.73883E+04 -4.66453E+04
  4.10411E+04  3.87076E+03  1.66486E+04  4.81206E+04 -3.44734E+04  4.80292E+04 -6.79110E+04 -4.71120E+02
 -5.44748E+04 -5.73674E+04 -8.04740E+03 -7.90886E+04  3.37859E+04 -5.63525E+04  4.92645E+04 -1.77609E+04
  4.50337E+04  1.14987E+04  3.29959E+04  2.65261E+04  1.57061E+04  3.09074E+04 -5.47947E+03  2.80295E+04
 -2.18583E+04  1.22654E+04 -1.82191E+04 -5.64101E+03  6.50138E+03 -7.24799E+03  2.40126E+04  1.42194E+04
  7.56331E+03  3.73633E+04 -3.31100E+04  3.62825E+04 -6.54759E+04  2.81664E+03 -5.81134E+04 -4.46731E+04
 -1.35102E+04 -6.56213E+04  4.15023E+04 -4.71420E+04  6.07530E+04 -2.29138E+03  3.66074E+04  3.40006E+04
 -5.80166E+03  3.92106E+04 -3.09246E+04  1.79645E+04 -3.27838E+04 -3.07275E+03 -1.84357E+04 -1.20440E+04
 -9.48623E+03 -1.54845E+04 -5.75537E+02 -1.97183E+04  8.12612E+03 -2.38623E+04  1.62553E+04 -1.24398E+04
  1.09253E+04  5.74412E+03 -9.58946E+03  1.24409E+04 -2.24906E+04 -6.32291E+03 -8.11275E+03 -3.70504E+04
  2.47881E+04 -4.56102E+04  5.15225E+04 -2.08232E+04  4.76337E+04  2.00570E+04  1.78872E+04  4.59949E+04
 -1.66056E+04  3.52300E+04 -2.65452E+04  2.83778E+03 -1.09459E+04 -2.95135E+04  2.13561E+04 -3.58662E+04
  4.39728E+04 -1.04670E+04  4.02444E+04  2.44995E+04  2.00682E+04  5.03420E+04 -8.11887E+03  5.48652E+04
 -3.47747E+04  3.72828E+04 -4.59247E+04  1.05932E+04 -4.71589E+04 -1.82390E+04 -2.58498E+04 -4.17603E+04
  7.42085E+03 -4.14034E+04  3.33709E+04 -1.62841E+04  3.11047E+04  1.16927E+04  5.22527E+03  2.11915E+04
 -1.38391E+04  8.78655E+03 -1.11887E+04 -7.81626E+03  5.58606E+03 -1.12944E+04  1.93782E+04  6.20861E+03
  1.43960E+04  2.31069E+04 -5.10117E+03  2.65919E+04 -2.37267E+04  1.35978E+04 -3.14289E+04 -3.80751E+03
 -2.39282E+04 -1.83138E+04 -1.17632E+04 -2.34102E+04  5.04240E+03 -2.44276E+04  1.91034E+04 -2.23168E+04
  3.16664E+04 -1.36684E+04  3.69553E+04  4.28828E+03  2.64362E+04  2.37306E+04  4.65481E+03  4.04669E+04
 -1.97763E+04  3.33981E+04 -3.04294E+04  1.17280E+04 -2.19976E+04 -9.94961E+03 -3.95687E+03 -1.29176E+04
  5.84200E+02 -1.24851E+03 -6.29527E+03  7.76972E+03 -2.01654E+04  5.04348E+03 -1.99703E+04 -9.09061E+03
 -1.22255E+04 -2.20941E+04  5.99295E+03 -2.67743E+04  1.87382E+04 -1.87833E+04  2.20408E+04 -1.50028E+03
  1.49026E+04  1.49875E+04 -1.68511E+03  2.26777E+04 -1.55709E+04  1.27104E+04 -2.32863E+04 -5.13905E+03
 -1.65263E+04 -1.98443E+04 -1.66863E+03 -2.67758E+04  1.24331E+04 -2.23939E+04  2.26657E+04 -1.16992E+04
  2.11996E+04 -1.07991E+02  1.60287E+04  5.53446E+03  9.00464E+03  1.76772E+03  1.13989E+04 -2.35220E+03
  2.14394E+04  2.74440E+03  2.50362E+04  1.83828E+04  1.59441E+04  3.68984E+04 -2.57132E+03  4.20043E+04
 -2.44469E+04  3.56299E+04 -3.98075E+04  1.76012E+04 -4.30327E+04 -3.30717E+03 -3.52580E+04 -2.53332E+04
 -1.42501E+04 -3.56418E+04  1.27637E+04 -3.04361E+04  2.70880E+04 -1.44839E+04  2.25591E+04  7.57355E+03
  7.85377E+03  1.76263E+04 -1.09804E+04  1.49671E+04 -2.00158E+04  2.48309E+03 -1.50826E+04 -1.29363E+04
  4.59367E+02 -1.86980E+04  9.76786E+03 -1.38486E+04  1.24043E+04 -1.78621E+03  4.30431E+03  8.40217E+03
 -8.47965E+03  3.86661E+03 -8.74995E+03 -6.88674E+03 -1.90539E+03 -1.71547E+04  1.09777E+04 -1.94782E+04
  2.28284E+04 -1.11950E+04  2.54373E+04  2.54932E+03  2.15305E+04  1.72578E+04  9.87785E+03  2.87123E+04
 -5.36767E+03  3.05912E+04 -1.99508E+04  1.83879E+04 -2.13118E+04  4.02477E+03 -1.47076E+04 -5.15598E+03
 -6.02037E+03 -7.37418E+03 -6.09435E+02  9.67840E+02 -2.50212E+03  3.42228E+03 -6.73357E+03  5.06399E+03
 -1.35588E+04 -9.20036E+02 -1.43301E+04 -1.13326E+04 -6.14272E+03 -1.79810E+04  4.89367E+03 -1.44810E+04
  1.24378E+04 -6.13182E+03  8.56884E+03  3.59057E+03 -2.86447E+02  6.12696E+03 -7.40499E+03  4.77049E+02
 -7.19697E+03 -9.16825E+03 -1.42582E+03 -1.57684E+04  7.93310E+03 -1.58995E+04  1.83983E+04 -8.55381E+03
  2.22757E+04  1.77863E+03  1.63770E+04  1.33658E+04  3.16913E+03  1.81414E+04 -9.45791E+03  1.56727E+04
 -1.22581E+04  4.51660E+03 -6.14826E+03 -3.34465E+03  2.34528E+03 -4.62797E+03  7.62018E+03 -1.54935E+03
  7.02626E+03  6.93801E+03  2.74449E+02  1.25404E+04 -9.36970E+03  1.07963E+04 -1.46271E+04  2.20282E+03
 -9.94955E+03 -8.03349E+03 -5.03738E+01 -1.30244E+04  8.73790E+03 -6.34698E+03  8.81245E+03  2.90086E+03
  2.18995E+03  9.33394E+03 -7.48376E+03  1.18428E+04 -1.25123E+04  5.01693E+03 -1.30497E+04 -5.24536E+03
 -7.01382E+03 -1.56111E+04  4.18636E+03 -1.78183E+04  1.47177E+04 -9.78545E+03  1.65952E+04  2.96641E+03
  9.32173E+03  1.27754E+04 -1.31453E+03  1.45278E+04 -1.07177E+04  8.42097E+03 -1.23148E+04 -1.57179E+03
 -1.04792E+04 -1.03656E+04 -1.69179E+03 -1.19048E+04  6.19136E+03 -9.42281E+03  6.67814E+03 -3.66733E+03
  5.37649E+03  2.00756E+03 -1.29544E+03  1.70949E+03 -1.14922E+03 -3.18030E+03  2.32984E+03 -7.44913E+03
  1.04355E+04 -4.77371E+03  1.51798E+04  2.14910E+03  1.46744E+04  1.04266E+04  9.12909E+03  1.92934E+04
 -4.99170E+03  2.28819E+04 -1.84633E+04  1.63278E+04 -2.38217E+04  3.47874E+03 -1.94834E+04 -8.42393E+03
 -9.28530E+03 -1.63551E+04 -6.52701E+02 -1.31646E+04  3.88960E+03 -7.89772E+03  4.65829E+03 -5.15593E+03
  3.99619E+03 -2.87092E+03  3.04080E+03 -4.43360E+03  5.46273E+03 -3.93270E+03  8.18303E+03 -1.64476E+03
  1.03944E+04  2.69929E+03  5.18447E+03  8.56572E+03 -2.05561E+03  1.06723E+04 -1.04847E+04  7.67519E+03
 -1.38329E+04 -1.69305E+03 -8.24792E+03 -9.57671E+03 -1.46255E+03 -1.53074E+04  8.09531E+03 -1.49745E+04
  1.62019E+04 -8.17846E+03  1.86784E+04  2.20006E+03  1.33939E+04  1.24245E+04  1.77368E+03  1.64141E+04
 -7.06150E+03  1.25699E+04 -1.03300E+04  4.76228E+03 -5.98913E+03 -1.18152E+03 -3.05252E+03 -2.44155E+03
 -1.70254E+03 -1.81510E+01 -2.45946E+03  2.70701E+03 -6.14605E+03  1.92499E+03 -9.09420E+03 -1.72210E+03
 -6.65968E+03 -9.35286E+03  3.59047E+02 -1.35214E+04  9.03150E+03 -1.34521E+04  1.37817E+04 -4.36821E+03
  1.38505E+04  6.08596E+03  6.00184E+03  1.26861E+04 -2.72904E+03  1.37269E+04 -9.90776E+03  8.76391E+03
 -1.31279E+04  8.63822E+02 -1.00637E+04 -7.55922E+03 -1.17946E+03 -1.16949E+04  6.74803E+03 -8.31351E+03
  8.76200E+03 -2.20327E+03  5.89743E+03  2.29326E+03  1.74450E+03  3.31813E+03  1.21875E+03  1.90560E+03
  2.35638E+03  1.46301E+03  3.50199E+03  1.92230E+03  4.43501E+03  4.76902E+03  4.00790E+03  7.16239E+03
 -3.73978E+03  1.13937E+04 -1.02141E+04  1.03623E+04 -1.48794E+04  2.77478E+03 -1.48423E+04 -5.40216E+03
 -7.63153E+03 -1.46330E+04  2.14302E+03 -1.49603E+04  8.11247E+03 -9.28058E+03  1.11198E+04 -2.64308E+03
  8.73074E+03  4.51302E+03  1.52908E+03  8.17600E+03 -4.07688E+03  5.52673E+03 -5.99143E+03 -9.32113E+02
 -3.51842E+03 -6.57765E+03  3.10196E+03 -6.17115E+03  6.16136E+03 -3.17457E+03  5.98817E+03  1.14031E+03
  3.41485E+03  2.59322E+03  1.91656E+03  1.35460E+03 -6.25410E+02  1.83117E+03  2.14651E+03 -1.05308E+03
  2.06373E+03 -8.38339E+02  5.47577E+03  3.44929E+03  2.93317E+03  7.05743E+03 -1.84861E+03  1.03066E+04
 -6.79362E+03  6.74410E+03 -9.00206E+03  1.47871E+03 -7.83325E+03 -3.39733E+03 -2.83200E+03 -4.99384E+03
  1.15479E+03 -5.21919E+03  3.86064E+03 -3.45566E+03  2.88844E+03  3.67899E+03 -9.94305E+02  4.51498E+03
 -5.68584E+03  3.52934E+03 -6.36258E+03 -2.96029E+03 -4.19421E+03 -8.01266E+03  8.34392E+02 -8.08968E+03
  4.61917E+03 -4.77148E+03  5.38401E+03 -8.86724E+02  4.75420E+03  1.20661E+03  1.09134E+03  4.15040E+03
 -2.96729E+03  1.17455E+03 -4.17600E+03 -3.11695E+03  9.62684E+02 -6.15013E+03  6.99129E+03 -3.96827E+03
  9.02853E+03  1.28768E+03  8.73760E+03  5.70832E+03  2.91986E+03  9.89349E+03 -3.37123E+03  8.60348E+03
 -8.28384E+03  4.09159E+03 -7.69401E+03 -1.07812E+03 -4.29569E+03 -7.03888E+03  9.79102E+02 -4.92363E+03
  5.71717E+03 -3.56097E+03  5.30177E+03  2.55216E+03  2.07004E+03  6.12255E+03 -8.32677E+02  4.09643E+03
 -2.38317E+03  3.01209E+03 -2.39434E+03  1.05849E+03 -7.30632E+02  1.23626E+03 -1.86453E+03  8.81720E+02
 -2.79577E+03  3.12495E+03 -6.85243E+03  3.69380E+03 -9.85849E+03 -2.37242E+02 -1.05912E+04 -5.61686E+03
 -4.36133E+03 -1.07523E+04  2.35170E+03 -1.37592E+04  8.69216E+03 -1.12992E+04  1.41393E+04 -4.44621E+03
  1.32035E+04  2.99903E+03  7.50805E+03  8.70106E+03  7.63004E+02  9.46014E+03 -3.47153E+03  6.71670E+03
 -5.68865E+03  3.14133E+03 -4.03947E+03 -8.99214E+02 -1.56094E+03 -3.21412E+02 -9.73490E+02  1.61441E+02
 -1.69764E+03  2.66561E+02 -2.44742E+03 -2.40166E+02 -5.56847E+02 -2.59983E+03  7.86910E+02 -3.32090E+03
  4.88573E+03 -3.25493E+03  5.96856E+03  3.29016E+00  6.78693E+03  5.22254E+03  1.52759E+03  1.07624E+04
 -5.41574E+03  1.15769E+04 -1.05376E+04  6.50700E+03 -1.18287E+04 -9.88520E+02 -9.27020E+03 -6.64573E+03
 -4.16860E+03 -1.02426E+04  1.76742E+03 -8.71120E+03  5.92216E+03 -4.67039E+03  6.80279E+03  9.83178E+02
  4.05291E+03  3.15110E+03 -1.14505E+03  3.15386E+03 -1.83689E+03 -1.16082E+01  1.52223E+03 -2.32141E+03
  3.01937E+03 -1.27745E+03  3.51349E+03  6.36600E+02  3.02343E+03  3.52724E+03  4.95989E+02  4.97869E+03
 -3.96797E+03  4.05923E+03 -7.20558E+03  1.22327E+03 -6.34076E+03 -4.75254E+03  3.79542E+01 -7.91308E+03
  4.20933E+03 -7.40080E+03  7.53162E+03 -2.80291E+03  7.46655E+03  1.30482E+03  3.58582E+03  6.10679E+03
  1.19487E+03  6.36296E+03 -2.82297E+03  5.75949E+03 -4.23836E+03  3.08513E+03 -2.90469E+03  1.08973E+03
 -1.81056E+03 -2.74881E+02 -1.91505E+03  7.89799E+02 -3.02666E+03  1.57858E+03 -4.74188E+03 -4.17206E+02
 -4.75477E+03 -3.07929E+03 -1.73046E+03 -6.78673E+03  3.35557E+03 -7.40275E+03  5.60744E+03 -3.25392E+03
  6.65292E+03  9.38264E+02  3.40789E+03  4.16083E+03 -5.43005E+02  7.18915E+03 -5.05652E+03  4.67674E+03
