 $NMID ID='MM_0lb_SNR400_15hz_g55_86.RAW', FMTDAT='(8E13.5)'
 TRAMP=1., VOLUME=1. $END
  3.10579E+05  4.80392E+01  3.37326E+05  2.50426E+05  8.50090E+04  3.38197E+05 -1.32728E+05  2.51166E+05
 -1.90243E+05  8.30526E+04 -1.11614E+05 -3.26590E+04  1.20336E+03 -5.05611E+04  5.40424E+04 -1.84850E+02
  3.51441E+04  5.33592E+04 -1.62809E+04  7.55604E+04 -6.12566E+04  6.40383E+04 -8.40568E+04  3.14345E+04
 -8.11007E+04 -1.16112E+04 -5.74098E+04 -5.13936E+04 -1.46837E+04 -6.99751E+04  2.79471E+04 -4.53478E+04
  3.96704E+04  3.73291E+03  1.63730E+04  4.72183E+04 -3.42368E+04  4.73940E+04 -6.69086E+04 -6.14489E+02
 -5.37358E+04 -5.62913E+04 -7.13399E+03 -7.67911E+04  3.36999E+04 -5.48224E+04  4.79106E+04 -1.71051E+04
  4.39003E+04  1.10563E+04  3.17401E+04  2.52798E+04  1.54344E+04  2.88757E+04 -5.57681E+03  2.66694E+04
 -2.22345E+04  1.23850E+04 -1.87117E+04 -5.28576E+03  5.50456E+03 -7.50215E+03  2.19686E+04  1.22126E+04
  6.99992E+03  3.58156E+04 -3.23755E+04  3.63546E+04 -6.38316E+04  1.73081E+03 -5.75168E+04 -4.26975E+04
 -1.33185E+04 -6.35319E+04  3.98202E+04 -4.50452E+04  5.80750E+04 -2.63579E+03  3.43895E+04  3.15358E+04
 -5.89441E+03  3.59890E+04 -2.99306E+04  1.69534E+04 -3.03450E+04 -4.87451E+03 -1.66384E+04 -1.08589E+04
 -7.77414E+03 -1.27115E+04 -6.96203E+02 -1.83923E+04  7.53003E+03 -2.24622E+04  1.55790E+04 -1.30142E+04
  1.14314E+04  4.96514E+03 -8.58063E+03  1.28857E+04 -2.13425E+04 -4.52934E+03 -8.35244E+03 -3.37266E+04
  2.25579E+04 -4.33888E+04  4.83325E+04 -1.99349E+04  4.54354E+04  1.94809E+04  1.57482E+04  4.36859E+04
 -1.59497E+04  3.37733E+04 -2.54736E+04  1.72489E+03 -9.94919E+03 -2.78008E+04  2.10635E+04 -3.39275E+04
  4.10809E+04 -8.78911E+03  3.55476E+04  2.33799E+04  1.81947E+04  4.62910E+04 -7.23972E+03  4.99488E+04
 -3.14516E+04  3.35347E+04 -4.22018E+04  9.62346E+03 -4.31221E+04 -1.66433E+04 -2.39753E+04 -3.79525E+04
  8.00068E+03 -3.79545E+04  3.14619E+04 -1.51756E+04  2.90680E+04  1.15071E+04  4.11744E+03  1.88049E+04
 -1.36334E+04  7.83673E+03 -1.06319E+04 -8.22987E+03  5.21750E+03 -1.05784E+04  1.72538E+04  5.63414E+03
  1.33595E+04  2.19179E+04 -5.67162E+03  2.53916E+04 -2.19935E+04  1.13056E+04 -2.77999E+04 -5.38855E+03
 -2.02500E+04 -1.71410E+04 -8.83368E+03 -2.04016E+04  4.15762E+03 -1.96061E+04  1.56074E+04 -1.82338E+04
  2.60482E+04 -1.28666E+04  3.20101E+04  2.50695E+03  2.34953E+04  2.02830E+04  3.49052E+03  3.67765E+04
 -1.80508E+04  2.98371E+04 -2.77116E+04  1.08750E+04 -2.04794E+04 -1.08795E+04 -4.69819E+03 -1.38497E+04
  2.11223E+03 -2.66766E+03 -4.91160E+03  6.00376E+03 -1.55370E+04  4.58852E+03 -1.58803E+04 -6.77029E+03
 -1.05078E+04 -1.84406E+04  5.23379E+03 -2.27087E+04  1.52591E+04 -1.64110E+04  1.82967E+04 -1.66670E+03
  1.14417E+04  1.27008E+04 -1.37640E+03  1.93638E+04 -1.27571E+04  1.03195E+04 -1.83609E+04 -4.16944E+03
 -1.39161E+04 -1.69194E+04 -2.05055E+03 -2.22849E+04  1.08597E+04 -1.85527E+04  1.92391E+04 -9.64166E+03
  1.80425E+04  3.26094E+02  1.23569E+04  4.27175E+03  6.56056E+03  7.54159E+02  9.30424E+03 -2.03063E+03
  1.71522E+04  2.86393E+03  1.91303E+04  1.50729E+04  1.24270E+04  3.03736E+04 -3.38527E+03  3.35214E+04
 -1.98832E+04  2.69424E+04 -3.10706E+04  1.32264E+04 -3.25065E+04 -2.10309E+03 -2.78520E+04 -1.95660E+04
 -1.15635E+04 -2.69810E+04  9.12430E+03 -2.44205E+04  2.12919E+04 -1.26791E+04  1.88812E+04  5.26522E+03
  7.39618E+03  1.43077E+04 -9.40431E+03  1.25170E+04 -1.66467E+04  2.94265E+03 -1.22828E+04 -1.01416E+04
  2.96551E+02 -1.47507E+04  7.76087E+03 -1.16188E+04  9.67055E+03 -1.58737E+03  1.68243E+03  6.72911E+03
 -6.58136E+03  2.35619E+03 -5.70864E+03 -5.27666E+03  1.77360E+02 -1.36977E+04  9.62469E+03 -1.35212E+04
  1.59124E+04 -7.52506E+03  1.71879E+04  2.64781E+03  1.50424E+04  1.26263E+04  6.86627E+03  1.97678E+04
 -3.63746E+03  2.16617E+04 -1.36675E+04  1.30481E+04 -1.63320E+04  2.72342E+03 -1.13582E+04 -3.43635E+03
 -5.10648E+03 -4.93334E+03 -1.07898E+03  8.81712E+02 -1.76481E+03  2.33933E+03 -4.98520E+03  4.02594E+03
 -1.05020E+04 -2.64926E+02 -1.13071E+04 -9.41074E+03 -4.24037E+03 -1.46030E+04  4.66631E+03 -1.12001E+04
  9.26630E+03 -4.91812E+03  6.21793E+03  2.90062E+03  7.67179E+02  4.40988E+03 -4.52202E+03  1.31783E+02
 -4.97931E+03 -7.17258E+03 -8.88360E+02 -9.74734E+03  5.85971E+03 -1.16291E+04  1.38607E+04 -6.11334E+03
  1.65214E+04  1.36763E+03  1.22121E+04  9.07896E+03  2.79785E+03  1.22587E+04 -6.58135E+03  1.13284E+04
 -9.30566E+03  3.13482E+03 -4.87588E+03 -2.77237E+03  1.72750E+03 -2.71519E+03  6.17723E+03 -1.38727E+03
  5.50997E+03  4.75139E+03  1.28537E+03  8.51990E+03 -6.06989E+03  8.42106E+03 -1.02003E+04  2.36234E+03
 -6.56179E+03 -5.42287E+03  5.83339E+02 -9.40159E+03  5.26224E+03 -4.57799E+03  5.62995E+03  1.60363E+03
  4.59097E+02  5.78452E+03 -4.89775E+03  7.19943E+03 -7.97516E+03  3.16511E+03 -7.74581E+03 -2.30140E+03
 -4.61504E+03 -9.50014E+03  1.81640E+03 -1.13549E+04  8.98787E+03 -6.39126E+03  1.02487E+04  2.16503E+03
  6.29384E+03  8.12654E+03 -4.34448E+02  1.02459E+04 -7.70223E+03  5.79810E+03 -8.02470E+03 -7.59209E+02
 -7.11559E+03 -7.08205E+03 -1.08172E+03 -8.24092E+03  4.21293E+03 -6.38328E+03  4.42765E+03 -3.53721E+03
  3.52575E+03  9.39417E+02 -3.24345E+02  1.69544E+03  2.43411E+02 -8.51284E+02  8.50747E+02 -3.37536E+03
  6.56424E+03 -1.86768E+03  9.17484E+03  9.86845E+02  9.15139E+03  5.32422E+03  7.04485E+03  1.18257E+04
 -2.12346E+03  1.34504E+04 -1.13034E+04  9.83874E+03 -1.51355E+04  1.91754E+03 -1.19564E+04 -4.11762E+03
 -6.33197E+03 -9.69496E+03 -8.74660E+02 -8.05161E+03  2.87225E+03 -3.35181E+03  2.86352E+03 -3.12337E+03
  2.49891E+03 -1.83258E+03  2.47700E+03 -2.92753E+03  4.01837E+03 -2.63119E+03  5.40117E+03 -5.75141E+01
  6.71552E+03  1.46655E+03  3.11997E+03  5.40534E+03 -1.73177E+03  4.95434E+03 -6.72783E+03  4.30685E+03
 -7.79531E+03 -9.82159E+02 -3.42163E+03 -5.62286E+03 -5.19894E+02 -8.04441E+03  4.63828E+03 -8.61657E+03
  8.69618E+03 -5.06894E+03  9.47030E+03  7.85735E+02  7.26956E+03  7.02791E+03  1.36284E+03  9.46559E+03
 -3.45252E+03  8.51450E+03 -5.31469E+03  2.85217E+03 -3.44348E+03 -1.61402E+03 -1.45239E+03 -4.35894E+02
 -5.37135E+02  5.41944E+01 -1.27324E+03  2.24614E+03 -3.18504E+03  1.28628E+03 -5.74896E+03 -7.47261E+02
 -3.54693E+03 -6.35833E+03  3.01669E+02 -7.85923E+03  4.67745E+03 -7.59278E+03  6.56676E+03 -1.65757E+03
  7.06045E+03  3.77488E+03  3.27201E+03  6.20167E+03 -1.79974E+03  7.65211E+03 -4.51790E+03  4.83244E+03
 -6.41423E+03  9.63779E+02 -4.91583E+03 -4.28199E+03 -1.91165E+01 -5.66086E+03  3.08010E+03 -3.86999E+03
  4.63307E+03 -1.70729E+03  3.06925E+03  1.11538E+03  1.29391E+03  2.75997E+03  7.47167E+02  7.01489E+02
  2.45477E+03  1.02148E+03  2.28020E+03  1.24030E+03  2.00901E+03  3.52561E+03  2.55728E+03  3.04187E+03
 -2.12593E+03  5.33641E+03 -4.18386E+03  5.74992E+03 -6.51896E+03  2.31934E+03 -6.59986E+03 -2.41596E+03
 -3.07884E+03 -6.45668E+03  9.54375E+02 -7.91710E+03  4.44578E+03 -4.54103E+03  5.51557E+03 -1.01820E+03
  4.34850E+03  2.49317E+03  6.59087E+02  4.37974E+03 -2.08596E+03  2.00157E+03 -2.35955E+03 -8.47978E+02
 -1.26357E+03 -2.77171E+03  9.58311E+02 -2.71411E+03  2.68440E+03 -1.85771E+03  2.08809E+03  7.82633E+02
  2.22667E+03  5.02909E+02  8.65764E+02  3.40233E+02 -2.27705E+00  1.13746E+03  2.29903E+03  1.87162E+02
  2.52500E+02 -1.09694E+02  3.37390E+03  1.09644E+03  1.25388E+03  2.82875E+03 -3.40729E+02  5.12201E+03
 -3.08257E+03  2.87897E+03 -3.53959E+03  5.76935E+02 -3.63672E+03 -1.23215E+03 -1.03482E+03 -1.70772E+03
  4.47737E+02 -2.50820E+03  1.36533E+03 -9.46983E+02  1.61322E+03  1.90589E+03 -1.28158E+03  2.28561E+03
 -2.88710E+03  1.57873E+03 -2.68334E+03 -1.94957E+03 -1.97579E+03 -3.66900E+03  7.95707E+02 -2.66950E+03
  1.41879E+03 -1.56762E+03  1.94043E+03  2.35596E+01  2.03388E+03 -5.23536E+01  7.77389E+02  2.63089E+03
 -4.08346E+02  2.36495E+02 -1.68781E+03 -7.61173E+02  7.04935E+02 -1.92310E+03  3.54731E+03 -1.74414E+03
  3.38368E+03  2.16990E+02  3.88307E+03  1.96386E+03  1.43656E+03  3.45828E+03 -1.24474E+03  3.30592E+03
 -3.21875E+03  1.62224E+03 -2.80415E+03 -2.99653E+02 -1.32864E+03 -2.53828E+03  4.50213E+02 -1.99382E+03
  2.50955E+03 -1.62985E+03  1.52158E+03  1.11947E+03  3.64060E+02  2.56444E+03  4.01168E+02  1.75529E+03
 -1.18991E+03  2.08601E+03 -8.98100E+02  4.76469E+02  1.89965E+02  1.77208E+02 -1.28846E+03  9.10882E+02
 -1.37525E+03  1.41923E+03 -2.71311E+03  1.30087E+03 -2.86927E+03 -7.14099E+02 -4.44701E+03 -2.13731E+03
 -2.30647E+03 -4.78422E+03  1.41237E+03 -5.24396E+03  2.92264E+03 -4.54837E+03  5.41777E+03 -2.36043E+03
  4.46989E+03  3.71480E+02  2.31596E+03  3.50415E+03  2.81993E+02  3.61542E+03 -1.29284E+03  2.75583E+03
 -2.05011E+03  1.22238E+03 -9.59922E+02 -4.44160E+01 -9.18885E+02 -2.52094E+02 -3.45362E+02 -3.63119E+02
 -7.78364E+02 -2.30840E+02 -1.04251E+03  3.39897E+00  3.47485E+02 -1.01665E+03 -4.25057E+01 -7.03682E+02
  1.32982E+03 -1.43864E+03  1.57038E+03  6.38254E+02  2.50962E+03  2.52752E+03 -5.62681E+02  3.56311E+03
 -1.13439E+03  4.50271E+03 -3.99835E+03  2.71580E+03 -4.13539E+03  1.68897E+02 -2.73038E+03 -2.92375E+03
 -1.57543E+03 -2.98275E+03  7.03387E+02 -3.44649E+03  1.33754E+03 -1.21026E+03  1.56737E+03  4.94453E+02
  5.65405E+02  7.13540E+02  8.11318E+02  8.46373E+02 -4.74495E+02 -1.88755E+02  6.88200E+02 -1.75340E+02
  8.42829E+02  9.18824E+01  3.41944E+02  2.27589E+01  8.20890E+02  1.26661E+03  3.88212E+02  1.28173E+03
 -1.44604E+03  1.28633E+03 -1.43550E+03  1.39012E+02 -1.56839E+03 -1.57593E+03  1.01262E+02 -2.80025E+03
  1.53274E+03 -1.54318E+03  1.91396E+03 -3.65238E+02  1.93036E+03 -4.31766E+02  1.77434E+03  1.89773E+03
 -7.18627E+01  2.21547E+03 -3.16197E+02  1.69472E+03 -1.42864E+03  5.18517E+02 -5.98796E+02  3.46651E+02
 -4.31339E+02 -4.97729E+02 -5.91879E+02 -3.21842E+02 -9.70884E+02  3.43846E+02 -1.82185E+03 -5.76327E+02
 -1.85088E+03 -2.18349E+02 -5.63907E+02 -1.93328E+03  8.65114E+02 -2.17479E+03  1.52713E+03 -1.21462E+03
  1.48494E+03 -1.77956E+02  5.60167E+02  1.52300E+03  6.72155E+01  1.92319E+03 -8.87518E+02  1.37956E+03
