 $NMID ID='MM_0lb_SNR400_16hz_g40_85.RAW', FMTDAT='(8E13.5)'
 TRAMP=1., VOLUME=1. $END
  3.09626E+05  5.55548E+02  3.37267E+05  2.50109E+05  8.44269E+04  3.37244E+05 -1.32096E+05  2.50774E+05
 -1.90225E+05  8.27165E+04 -1.11806E+05 -3.29648E+04  1.88939E+03 -4.95865E+04  5.39890E+04  2.82416E+02
  3.52460E+04  5.31761E+04 -1.60335E+04  7.55940E+04 -6.02155E+04  6.26407E+04 -8.33800E+04  3.14765E+04
 -7.99549E+04 -1.09850E+04 -5.64265E+04 -5.02506E+04 -1.56671E+04 -6.81914E+04  2.66550E+04 -4.50021E+04
  3.92358E+04  4.07613E+03  1.58463E+04  4.69303E+04 -3.46798E+04  4.67410E+04 -6.59366E+04 -7.85991E+02
 -5.19121E+04 -5.68250E+04 -6.55022E+03 -7.55257E+04  3.30381E+04 -5.38970E+04  4.63648E+04 -1.65391E+04
  4.23519E+04  1.09450E+04  3.09409E+04  2.48102E+04  1.59806E+04  2.86964E+04 -4.64847E+03  2.65861E+04
 -2.17146E+04  1.23505E+04 -1.94512E+04 -4.76911E+03  4.33455E+03 -7.64997E+03  2.25917E+04  1.14456E+04
  7.38401E+03  3.40987E+04 -3.13196E+04  3.40520E+04 -6.12547E+04  2.27415E+03 -5.55448E+04 -4.20316E+04
 -1.26648E+04 -6.12714E+04  3.86482E+04 -4.38141E+04  5.66165E+04 -2.08905E+03  3.26075E+04  3.09161E+04
 -6.70786E+03  3.40449E+04 -2.89730E+04  1.45763E+04 -2.82694E+04 -5.64506E+03 -1.51379E+04 -1.05320E+04
 -7.40219E+03 -1.20192E+04 -3.97573E+02 -1.67608E+04  6.81405E+03 -2.24015E+04  1.47381E+04 -1.41308E+04
  1.16902E+04  4.19290E+03 -6.92641E+03  1.32628E+04 -2.04055E+04 -3.56506E+03 -8.10839E+03 -3.06018E+04
  2.11133E+04 -4.10711E+04  4.60652E+04 -1.90429E+04  4.27534E+04  1.85888E+04  1.44006E+04  4.23738E+04
 -1.58148E+04  3.15485E+04 -2.41831E+04  1.37838E+03 -8.33535E+03 -2.64630E+04  2.04151E+04 -3.20628E+04
  3.94942E+04 -7.98952E+03  3.31065E+04  2.35265E+04  1.65747E+04  4.42770E+04 -7.84441E+03  4.68962E+04
 -2.96128E+04  3.14878E+04 -3.89870E+04  8.52942E+03 -3.99725E+04 -1.54659E+04 -2.16582E+04 -3.56868E+04
  6.25318E+03 -3.50255E+04  2.96410E+04 -1.33158E+04  2.74216E+04  1.05736E+04  3.41860E+03  1.82363E+04
 -1.29967E+04  7.08070E+03 -9.53268E+03 -7.76314E+03  5.48183E+03 -1.08101E+04  1.76953E+04  6.08574E+03
  1.25634E+04  2.26708E+04 -6.35619E+03  2.41957E+04 -2.19596E+04  9.82193E+03 -2.61906E+04 -6.26801E+03
 -1.78188E+04 -1.62867E+04 -6.49879E+03 -1.77829E+04  3.95284E+03 -1.62317E+04  1.38066E+04 -1.59436E+04
  2.27807E+04 -1.19134E+04  2.88900E+04  1.53307E+03  2.16582E+04  1.73269E+04  4.32030E+03  3.39295E+04
 -1.64746E+04  2.85309E+04 -2.63015E+04  9.92035E+03 -1.98444E+04 -1.09592E+04 -4.51615E+03 -1.35680E+04
  1.93931E+03 -4.01220E+03 -3.88827E+03  5.89614E+03 -1.36592E+04  4.83089E+03 -1.40566E+04 -5.90473E+03
 -8.45954E+03 -1.65756E+04  4.70795E+03 -2.03941E+04  1.33582E+04 -1.50326E+04  1.56672E+04 -1.77552E+03
  9.00745E+03  1.15306E+04 -6.37281E+02  1.70457E+04 -1.11309E+04  9.32365E+03 -1.69644E+04 -3.91982E+03
 -1.26653E+04 -1.49995E+04 -1.96809E+03 -2.01672E+04  9.21561E+03 -1.67442E+04  1.75013E+04 -8.23030E+03
  1.55177E+04  3.97962E+02  1.21782E+04  3.82466E+03  6.09385E+03  9.97430E+02  8.22878E+03 -1.34187E+03
  1.53523E+04  3.05176E+03  1.65062E+04  1.41009E+04  1.02962E+04  2.66309E+04 -3.08160E+03  2.88044E+04
 -1.72130E+04  2.29661E+04 -2.68450E+04  1.14016E+04 -2.78357E+04 -2.22803E+03 -2.34155E+04 -1.62081E+04
 -1.07837E+04 -2.30536E+04  7.60073E+03 -2.04790E+04  1.80891E+04 -1.13457E+04  1.65686E+04  4.48850E+03
  6.55535E+03  1.19685E+04 -7.39480E+03  1.09152E+04 -1.44263E+04  2.76837E+03 -1.09515E+04 -8.77409E+03
  1.27042E+02 -1.36067E+04  6.96104E+03 -1.05552E+04  9.13894E+03 -1.83327E+03  2.18573E+03  5.51484E+03
 -5.86929E+03  1.41458E+03 -4.36801E+03 -4.67506E+03  2.19377E+02 -1.11487E+04  8.27490E+03 -1.15066E+04
  1.33938E+04 -6.00713E+03  1.34654E+04  2.85133E+03  1.19268E+04  1.06360E+04  6.27675E+03  1.61534E+04
 -1.99240E+03  1.79280E+04 -1.14012E+04  1.13645E+04 -1.22436E+04  3.21957E+03 -9.79465E+03 -2.42461E+03
 -4.67918E+03 -3.86860E+03 -7.80123E+02  1.26202E+03 -1.83921E+03  1.75696E+03 -4.11071E+03  3.83215E+03
 -9.02414E+03 -5.02364E+02 -9.82599E+03 -7.90028E+03 -4.67970E+03 -1.23470E+04  3.91586E+03 -9.87897E+03
  8.23261E+03 -3.75788E+03  5.88260E+03  2.93745E+03  1.50545E+02  3.85363E+03 -4.09700E+03 -1.28585E+02
 -4.24522E+03 -5.50145E+03 -2.89172E+02 -8.27437E+03  5.30998E+03 -9.19646E+03  1.18183E+04 -5.32337E+03
  1.33847E+04  7.58336E+02  9.57446E+03  7.78778E+03  2.16760E+03  1.03038E+04 -5.94943E+03  9.09471E+03
 -7.65185E+03  2.59040E+03 -3.50356E+03 -1.44005E+03  1.45539E+03 -2.56510E+03  5.10260E+03 -1.13593E+03
  4.50189E+03  3.60238E+03  1.02075E+03  6.76273E+03 -5.07885E+03  6.57423E+03 -9.49374E+03  2.18107E+03
 -5.65041E+03 -3.83128E+03  2.00972E+02 -8.02451E+03  4.31203E+03 -3.55881E+03  3.93434E+03  1.80115E+03
  1.08964E+03  3.74008E+03 -5.10858E+03  5.29477E+03 -5.90532E+03  2.70265E+03 -6.02088E+03 -1.60511E+03
 -3.34761E+03 -7.21252E+03  1.61494E+03 -9.00169E+03  7.40192E+03 -5.64658E+03  7.71591E+03  1.67542E+03
  5.52323E+03  6.86333E+03 -5.73316E+02  8.24651E+03 -6.44879E+03  4.63634E+03 -6.19560E+03 -5.26671E+02
 -6.65971E+03 -5.73131E+03 -1.36603E+03 -6.28372E+03  3.34344E+03 -5.66626E+03  4.25254E+03 -3.67728E+03
  3.08968E+03  5.18139E+02  1.09665E+02  1.98867E+03  3.83344E+02 -9.01243E+02  4.74881E+02 -2.52355E+03
  5.26861E+03 -1.53837E+03  6.20700E+03  7.84242E+02  7.65310E+03  3.90794E+03  5.81073E+03  9.58915E+03
 -1.69859E+03  1.09676E+04 -9.71687E+03  7.53961E+03 -1.21459E+04  2.00920E+03 -9.28469E+03 -3.38341E+03
 -5.02932E+03 -8.62912E+03 -4.86473E+02 -6.17355E+03  1.82990E+03 -2.91549E+03  2.79571E+03 -1.79873E+03
  1.65619E+03 -1.02148E+03  3.04706E+03 -2.38963E+03  4.16834E+03 -1.63898E+03  4.31193E+03  6.00571E+01
  5.48679E+03  1.33338E+03  2.72421E+03  4.35949E+03 -1.45650E+03  4.03859E+03 -5.59888E+03  3.18710E+03
 -6.47418E+03 -1.34058E+03 -2.90530E+03 -4.14738E+03  1.64113E+02 -6.40146E+03  4.43455E+03 -6.61607E+03
  7.16370E+03 -3.60990E+03  8.46141E+03  1.48983E+02  6.45530E+03  5.65458E+03  9.71015E+02  7.94867E+03
 -3.21410E+03  6.99904E+03 -4.49908E+03  2.07098E+03 -3.02427E+03 -1.32756E+03 -7.91687E+02 -3.67512E+02
 -1.17877E+03  4.23319E+02 -1.18621E+03  2.55529E+03 -3.01197E+03  1.33416E+03 -5.16987E+03 -4.92095E+02
 -2.47833E+03 -4.95329E+03  6.83959E+02 -6.09345E+03  3.31939E+03 -5.75564E+03  5.13003E+03 -1.71621E+03
  5.47815E+03  3.05912E+03  3.19634E+03  4.56514E+03 -1.25953E+03  5.08861E+03 -3.90021E+03  3.56165E+03
 -5.11019E+03 -4.39630E+01 -4.01053E+03 -3.72773E+03 -2.25165E+02 -4.30035E+03  3.02744E+03 -3.60114E+03
  3.88707E+03 -1.50451E+03  2.39317E+03  4.44940E+02  1.07179E+03  1.12282E+03  7.00849E+02  1.20895E+03
  1.69842E+03  6.57282E+02  1.95391E+03  1.47183E+03  1.37384E+03  2.24705E+03  1.34259E+03  2.27690E+03
 -1.45254E+03  4.40466E+03 -3.10989E+03  5.46477E+03 -4.74496E+03  2.01775E+03 -5.58610E+03 -1.35159E+03
 -2.26898E+03 -4.90766E+03  1.34517E+03 -6.11991E+03  2.83899E+03 -3.28172E+03  4.27186E+03 -1.13208E+03
  3.23084E+03  2.14622E+03  6.96332E+02  3.20620E+03 -1.02818E+03  1.99311E+03 -1.91300E+03 -5.61706E+02
 -8.63790E+02 -2.10237E+03  1.71786E+03 -2.07001E+03  1.52003E+03 -1.24570E+03  1.53187E+03  1.16731E+02
  1.03166E+03  2.47968E+02  1.10669E+03 -2.66138E+01  2.12918E+02  1.07369E+03  9.21634E+02 -1.19194E+02
 -1.61024E+02  2.57036E+02  2.43435E+03  7.90429E+02  4.66842E+02  3.68812E+03 -4.89209E+02  4.60184E+03
 -2.62028E+03  1.77974E+03 -2.61380E+03  3.67782E+02 -2.55609E+03 -1.20888E+03 -4.65981E+02 -1.45978E+03
 -1.33236E+02 -1.36635E+03  1.60301E+03 -8.59143E+02  7.25997E+02  1.19940E+03 -1.40043E+03  1.77618E+03
 -2.22495E+03  1.07984E+03 -1.79990E+03 -1.54976E+03 -1.41757E+03 -2.93630E+03  8.69317E+02 -2.68381E+03
  8.71224E+02 -1.48022E+03  1.20243E+03 -1.16802E+02  1.85622E+03  5.38588E+02  9.31986E+02  1.36474E+03
 -7.86596E+02  2.55687E+02 -1.21525E+03 -9.12306E+01  6.43967E+02 -1.72735E+03  2.99214E+03 -1.08266E+03
  2.18157E+03  3.69254E+02  3.54154E+03  1.07777E+03  1.07735E+03  2.40325E+03 -8.16267E+02  3.02541E+03
 -2.07054E+03  4.13437E+02 -2.89235E+03  4.23827E+02 -1.43381E+03 -1.93189E+03  2.76706E+02 -1.34106E+03
  2.32555E+03 -1.03138E+03  1.30913E+03  7.59425E+02 -4.11065E+02  1.83991E+03 -3.46583E+02  1.98601E+03
 -5.38238E+02  8.68431E+02 -4.20723E+02  4.67406E+02  1.15957E+02  3.47077E+02 -4.47500E+02  1.25674E+03
 -9.47894E+02  1.01306E+03 -2.34348E+03  8.94283E+02 -2.51043E+03  7.23492E+00 -3.82222E+03 -1.45978E+03
 -1.53567E+03 -3.58770E+03  3.66170E+02 -4.67590E+03  1.86460E+03 -3.75368E+03  4.70860E+03 -1.25448E+03
  4.18195E+03  6.04956E+02  2.41537E+03  2.03642E+03 -3.76078E+02  2.88970E+03 -1.16900E+03  2.20147E+03
 -1.56195E+03  9.73307E+02 -5.53162E+02 -6.80085E+02 -1.77578E+02  3.90190E+02 -5.19243E+02 -1.34954E+02
 -1.08932E+03 -4.54303E+02 -8.17638E+02 -6.18147E+02 -1.51184E+02 -1.32135E+03 -5.37212E+02 -1.30385E+03
  1.80518E+03 -1.22529E+03  9.16875E+02 -2.85049E+02  2.13793E+03  1.54373E+03  3.64468E+02  2.76358E+03
 -9.33313E+02  3.33633E+03 -2.71273E+03  1.51319E+03 -2.63146E+03 -6.19469E+02 -1.97808E+03 -2.09948E+03
 -1.28371E+03 -2.72036E+03  2.58545E+02 -2.40496E+03  1.03336E+03 -1.10473E+03  2.08125E+03  5.31732E+02
  1.26717E+03  7.63131E+02  1.53560E+02  2.07916E+02  9.37728E+01 -3.38639E+02  6.47278E+01 -4.93584E+02
  1.29131E+03  2.30202E+02  2.69673E+02  7.49392E+02  1.18831E+02  1.16377E+03  4.40874E+02  4.29560E+02
 -9.32567E+02  7.83416E+02 -1.27385E+03  3.17050E+02 -1.59313E+03 -8.29923E+02  6.27129E+01 -2.06368E+03
  1.01351E+03 -1.27379E+03  1.51336E+03 -4.38092E+02  1.96120E+03 -4.49018E+02  4.26651E+02  1.70117E+03
  3.29196E+02  1.67329E+03 -2.18143E+02  1.45550E+03 -8.03697E+02  1.05732E+03 -6.40023E+02  1.94031E+02
 -4.61226E+02  2.70963E+02 -3.89928E+02  6.30570E+01 -3.86033E+02 -1.56683E+02 -8.56722E+02 -3.85310E+02
 -1.42880E+03 -8.99375E+02 -3.57240E+01 -1.64048E+03  5.99679E+02 -1.66955E+03  1.84727E+03 -3.77986E+02
  1.34805E+03 -3.49504E+02 -3.98593E+02  1.33805E+03 -2.77119E+02  1.57921E+03 -1.13522E+03  8.98670E+02
