 $NMID ID='MM_0lb_SNR400_10hz_g45_34.RAW', FMTDAT='(8E13.5)'
 TRAMP=1., VOLUME=1. $END
  3.09994E+05  9.97978E+02  3.37843E+05  2.51090E+05  8.43790E+04  3.38310E+05 -1.32686E+05  2.51982E+05
 -1.90219E+05  8.36306E+04 -1.12421E+05 -3.25022E+04 -2.29913E+02 -5.08993E+04  5.35494E+04 -3.17001E+02
  3.46838E+04  5.23049E+04 -1.67660E+04  7.65064E+04 -6.06977E+04  6.35838E+04 -8.49916E+04  3.21318E+04
 -8.17971E+04 -1.14554E+04 -5.79826E+04 -5.22546E+04 -1.52568E+04 -7.03836E+04  2.84398E+04 -4.74492E+04
  4.06394E+04  3.98587E+03  1.65446E+04  4.89612E+04 -3.47652E+04  4.74937E+04 -6.78350E+04  3.33364E+02
 -5.46013E+04 -5.66675E+04 -6.84055E+03 -7.84505E+04  3.46608E+04 -5.66881E+04  4.89641E+04 -1.78762E+04
  4.46607E+04  1.17823E+04  3.25957E+04  2.60266E+04  1.57151E+04  3.03274E+04 -6.15139E+03  2.70668E+04
 -2.18798E+04  1.19778E+04 -1.89019E+04 -5.40283E+03  6.60681E+03 -8.01224E+03  2.32166E+04  1.30352E+04
  6.64174E+03  3.70681E+04 -3.42032E+04  3.72708E+04 -6.47217E+04  2.73810E+03 -5.83402E+04 -4.38477E+04
 -1.28658E+04 -6.51715E+04  4.08727E+04 -4.68448E+04  6.09345E+04 -2.68475E+03  3.60815E+04  3.39109E+04
 -6.31058E+03  3.83037E+04 -3.13915E+04  1.80713E+04 -3.23384E+04 -4.22822E+03 -1.86236E+04 -1.18071E+04
 -9.38770E+03 -1.50673E+04 -4.07540E+02 -1.89180E+04  8.54783E+03 -2.29729E+04  1.53378E+04 -1.31699E+04
  1.07930E+04  5.91011E+03 -9.29731E+03  1.25860E+04 -2.28016E+04 -5.64580E+03 -8.52180E+03 -3.59473E+04
  2.49188E+04 -4.55023E+04  5.03809E+04 -2.04437E+04  4.81381E+04  2.09238E+04  1.63672E+04  4.63464E+04
 -1.63452E+04  3.54780E+04 -2.68980E+04  1.78290E+03 -1.05332E+04 -2.85374E+04  2.13432E+04 -3.57861E+04
  4.36857E+04 -1.03756E+04  3.85101E+04  2.52508E+04  2.00866E+04  4.97113E+04 -8.69643E+03  5.38339E+04
 -3.48596E+04  3.71860E+04 -4.60658E+04  1.02394E+04 -4.63109E+04 -1.75910E+04 -2.56273E+04 -4.10824E+04
  7.86087E+03 -4.03577E+04  3.32203E+04 -1.65933E+04  3.10844E+04  1.14608E+04  5.49707E+03  2.05288E+04
 -1.33368E+04  9.21772E+03 -1.06864E+04 -7.80593E+03  6.11489E+03 -1.17884E+04  1.91530E+04  5.49694E+03
  1.44457E+04  2.17773E+04 -5.02529E+03  2.59915E+04 -2.36909E+04  1.36806E+04 -2.95543E+04 -3.84766E+03
 -2.37841E+04 -1.89600E+04 -1.03443E+04 -2.40336E+04  4.00306E+03 -2.35225E+04  1.90268E+04 -2.13199E+04
  3.07068E+04 -1.37279E+04  3.60839E+04  4.27259E+03  2.66168E+04  2.33049E+04  4.04311E+03  3.97353E+04
 -1.99312E+04  3.30463E+04 -2.92957E+04  1.08823E+04 -2.25371E+04 -9.94064E+03 -4.03951E+03 -1.31190E+04
  1.13596E+03 -1.89277E+03 -6.43922E+03  7.85325E+03 -1.94589E+04  5.27657E+03 -1.89874E+04 -8.50299E+03
 -1.09614E+04 -2.20791E+04  5.13724E+03 -2.68984E+04  1.83276E+04 -1.94852E+04  2.03975E+04 -1.99220E+03
  1.34587E+04  1.48642E+04 -1.68265E+03  2.18195E+04 -1.49345E+04  1.24156E+04 -2.22080E+04 -3.91503E+03
 -1.59268E+04 -1.97420E+04 -2.18884E+03 -2.66074E+04  1.24179E+04 -2.15217E+04  2.10543E+04 -1.07498E+04
  2.07933E+04 -4.06959E+02  1.48848E+04  5.76871E+03  7.70194E+03  1.11265E+03  1.10771E+04 -1.47415E+03
  2.05302E+04  2.99931E+03  2.37378E+04  1.71746E+04  1.57589E+04  3.51008E+04 -2.60890E+03  4.22015E+04
 -2.38457E+04  3.39340E+04 -3.81343E+04  1.73345E+04 -4.12414E+04 -2.60776E+03 -3.36001E+04 -2.40563E+04
 -1.39840E+04 -3.38939E+04  1.21066E+04 -2.98937E+04  2.52493E+04 -1.45747E+04  2.29271E+04  7.38701E+03
  7.42769E+03  1.71934E+04 -1.14805E+04  1.51549E+04 -1.91657E+04  2.81668E+03 -1.42990E+04 -1.22354E+04
 -1.63059E+02 -1.85044E+04  1.00815E+04 -1.31416E+04  1.23926E+04 -1.07913E+03  3.31132E+03  7.99468E+03
 -8.26946E+03  3.50036E+03 -7.56745E+03 -7.08814E+03 -1.09609E+03 -1.76539E+04  1.14332E+04 -1.87248E+04
  2.10853E+04 -1.02176E+04  2.35595E+04  3.33085E+03  2.08270E+04  1.72541E+04  9.28495E+03  2.57837E+04
 -5.31692E+03  2.86684E+04 -1.84571E+04  1.75305E+04 -2.02553E+04  3.30870E+03 -1.43319E+04 -5.70841E+03
 -6.61414E+03 -6.43659E+03 -1.07421E+03  8.17225E+02 -3.35101E+03  3.64476E+03 -6.87385E+03  5.23229E+03
 -1.35321E+04 -8.98706E+02 -1.38398E+04 -1.03232E+04 -5.58218E+03 -1.83066E+04  6.09294E+03 -1.40567E+04
  1.11187E+04 -6.39017E+03  8.31040E+03  4.22652E+03  1.39551E+02  6.23767E+03 -6.74728E+03 -5.46037E+02
 -6.70345E+03 -1.00021E+04 -4.77581E+02 -1.38795E+04  8.78538E+03 -1.48712E+04  1.85573E+04 -7.80560E+03
  2.16045E+04  2.35431E+03  1.61475E+04  1.21924E+04  2.35479E+03  1.74003E+04 -8.16324E+03  1.40747E+04
 -1.21008E+04  4.76293E+03 -5.47225E+03 -2.91139E+03  1.88419E+03 -3.60929E+03  8.10155E+03 -9.08313E+02
  7.36006E+03  6.22274E+03  1.73880E+03  1.25041E+04 -7.68430E+03  1.15410E+04 -1.36163E+04  2.45318E+03
 -1.01590E+04 -7.45031E+03  8.67654E+02 -1.12784E+04  7.69607E+03 -6.57872E+03  8.19689E+03  3.53828E+03
  1.96081E+03  8.53746E+03 -7.06845E+03  1.02445E+04 -1.26115E+04  4.69936E+03 -1.13807E+04 -4.25467E+03
 -7.00539E+03 -1.37055E+04  3.43536E+03 -1.61746E+04  1.41893E+04 -1.01998E+04  1.47713E+04  2.62978E+03
  8.68940E+03  1.26241E+04 -1.85089E+03  1.39423E+04 -1.00229E+04  8.68722E+03 -1.08043E+04 -1.00975E+03
 -1.01785E+04 -9.20978E+03 -2.20667E+03 -1.07663E+04  5.45293E+03 -8.73311E+03  6.34121E+03 -3.02006E+03
  3.85484E+03  2.49244E+03 -1.57534E+03  1.01109E+03  1.90087E+02 -3.04544E+03  1.90214E+03 -6.17464E+03
  1.03413E+04 -3.49870E+03  1.37516E+04  1.83917E+03  1.36842E+04  9.62998E+03  8.82766E+03  1.76555E+04
 -4.64160E+03  2.07762E+04 -1.73931E+04  1.50042E+04 -2.25092E+04  2.38852E+03 -1.80995E+04 -7.81844E+03
 -9.36825E+03 -1.44772E+04 -4.41740E+02 -1.31076E+04  4.29743E+03 -6.93572E+03  4.54959E+03 -4.43043E+03
  3.20517E+03 -2.47820E+03  3.32556E+03 -3.41992E+03  4.99183E+03 -3.48466E+03  7.14888E+03 -1.49987E+03
  9.84463E+03  2.15183E+03  5.38386E+03  8.42250E+03 -2.49874E+03  9.83923E+03 -9.91506E+03  6.98025E+03
 -1.28755E+04 -1.21172E+03 -7.38557E+03 -9.95152E+03 -1.78463E+03 -1.35351E+04  7.59913E+03 -1.33356E+04
  1.39829E+04 -7.63824E+03  1.75219E+04  2.58815E+03  1.09829E+04  1.26627E+04  1.64895E+03  1.54729E+04
 -7.01054E+03  1.25817E+04 -9.18146E+03  4.17833E+03 -6.64064E+03 -1.77248E+03 -2.72055E+03 -1.37891E+03
 -8.21675E+02  5.75622E+02 -1.99612E+03  2.84892E+03 -5.21686E+03  2.25032E+03 -8.76705E+03 -2.09413E+03
 -5.88981E+03 -8.82762E+03 -7.04340E+02 -1.22023E+04  7.33697E+03 -1.19211E+04  1.24437E+04 -3.37413E+03
  1.25110E+04  6.26949E+03  5.45424E+03  1.11590E+04 -2.06743E+03  1.27171E+04 -9.09613E+03  8.15870E+03
 -1.27270E+04  3.79422E+02 -9.55587E+03 -7.11696E+03 -7.86477E+02 -1.06762E+04  4.92688E+03 -8.26745E+03
  7.98496E+03 -2.67620E+03  5.34515E+03  2.06435E+03  1.43698E+03  3.87489E+03  1.18891E+03  1.59719E+03
  2.25598E+03  1.44386E+03  3.05542E+03  1.53386E+03  3.63714E+03  3.71803E+03  2.35875E+03  6.55085E+03
 -1.96448E+03  1.07917E+04 -9.01278E+03  9.31510E+03 -1.28530E+04  3.20197E+03 -1.35890E+04 -5.23008E+03
 -6.55180E+03 -1.23634E+04  2.55176E+03 -1.41623E+04  7.82695E+03 -8.53107E+03  1.03962E+04 -2.44978E+03
  8.16228E+03  4.38297E+03  2.14149E+03  8.51289E+03 -3.45605E+03  4.52820E+03 -5.34510E+03 -7.84753E+02
 -2.83121E+03 -5.59059E+03  2.60054E+03 -5.73245E+03  5.71383E+03 -2.02837E+03  5.23818E+03  1.10157E+03
  2.54515E+03  1.73657E+03  1.25183E+03  2.30186E+03 -9.41178E+02  1.76302E+03  1.93995E+03 -4.92288E+02
  1.59116E+03 -8.43645E+02  5.35920E+03  2.30175E+03  3.05303E+03  7.07887E+03 -7.18462E+02  8.54199E+03
 -6.29641E+03  5.47137E+03 -7.65899E+03  1.29239E+03 -6.52862E+03 -2.98900E+03 -2.72594E+03 -4.69607E+03
  6.01660E+02 -4.91277E+03  3.11147E+03 -1.39836E+03  2.75734E+03  3.06318E+03 -9.84037E+02  4.09664E+03
 -4.76214E+03  1.57666E+03 -6.50081E+03 -3.36026E+03 -3.13531E+03 -7.22982E+03  1.14062E+03 -7.11707E+03
  4.14685E+03 -3.96609E+03  4.91436E+03 -6.97518E+01  4.85831E+03  1.91181E+03  7.53371E+02  3.60544E+03
 -2.72036E+03 -2.13283E+01 -4.31526E+03 -2.59597E+03  1.54522E+03 -5.55124E+03  7.02940E+03 -4.71084E+03
  7.59611E+03  1.33733E+03  8.00095E+03  5.30057E+03  2.80166E+03  8.27738E+03 -2.87357E+03  7.13789E+03
 -5.85645E+03  4.00328E+03 -7.45124E+03 -6.36646E+02 -4.45819E+03 -5.08732E+03  1.31945E+03 -5.05666E+03
  5.62813E+03 -3.13992E+03  4.56026E+03  1.91256E+03  1.48106E+03  4.48112E+03 -9.76634E+02  3.77237E+03
 -1.64360E+03  3.04995E+03 -2.05766E+03  6.22614E+02 -7.92918E+02  1.07438E+03 -1.50315E+03  2.21726E+03
 -1.70053E+03  3.31579E+03 -5.71338E+03  2.83280E+03 -7.96019E+03  5.41551E+01 -9.10090E+03 -4.83886E+03
 -4.36596E+03 -1.07216E+04  2.01092E+03 -1.24839E+04  7.47459E+03 -9.32343E+03  1.24805E+04 -4.27002E+03
  1.12486E+04  1.81732E+03  6.38517E+03  8.18084E+03  7.40710E+02  8.99594E+03 -2.94946E+03  6.56413E+03
 -4.11176E+03  2.59514E+03 -2.89449E+03 -7.72304E+02 -1.37713E+03 -7.31148E+02 -7.44430E+02 -2.32652E+02
 -1.44811E+03  5.11127E+01 -1.89503E+03 -3.40295E+02 -1.72047E+02 -2.73101E+03  4.28587E+02 -4.16149E+03
  3.40695E+03 -2.66924E+03  4.73451E+03  2.69504E+02  6.27421E+03  4.69582E+03  1.89100E+03  8.48521E+03
 -4.23477E+03  9.23461E+03 -9.12415E+03  6.26631E+03 -1.00687E+04 -9.76490E+02 -7.12895E+03 -7.05793E+03
 -3.02089E+03 -9.03985E+03  1.46273E+03 -7.86129E+03  4.83553E+03 -4.53184E+03  5.96321E+03  5.43347E+02
  3.27349E+03  3.30147E+03  8.21214E+01  2.17109E+03 -1.31971E+03  1.72988E+02 -5.06393E+01 -2.27211E+03
  2.72226E+03 -1.65354E+03  3.44286E+03  1.66749E+03  1.92185E+03  3.10083E+03  3.52409E+02  4.18879E+03
 -3.95435E+03  3.78024E+03 -5.39383E+03  8.44197E+02 -5.19193E+03 -4.03193E+03 -8.64741E+02 -7.02579E+03
  4.21341E+03 -6.01362E+03  6.26291E+03 -1.49053E+03  6.11401E+03  1.14678E+03  3.05482E+03  5.46591E+03
  6.96435E+02  5.38596E+03 -2.10997E+03  3.67605E+03 -3.83135E+03  2.58925E+03 -3.44194E+03 -6.11899E+01
 -1.70867E+03 -4.26886E+02 -1.32302E+03  1.31919E+03 -3.08756E+03  8.27754E+02 -4.21989E+03 -6.61713E+02
 -4.58448E+03 -2.18281E+03 -9.21371E+02 -5.60863E+03  1.75633E+03 -6.10270E+03  5.52754E+03 -2.46286E+03
  5.84188E+03 -1.28447E+02  3.16694E+03  3.93683E+03 -9.74153E+02  5.50536E+03 -3.75874E+03  3.78442E+03
