 $NMID ID='MM_0lb_SNR400_15hz_g55_87.RAW', FMTDAT='(8E13.5)'
 TRAMP=1., VOLUME=1. $END
  3.09614E+05  8.98238E+01  3.37368E+05  2.50141E+05  8.45380E+04  3.37641E+05 -1.32708E+05  2.51113E+05
 -1.90700E+05  8.34602E+04 -1.11385E+05 -3.15870E+04  1.30271E+03 -5.07526E+04  5.39595E+04 -1.84847E+02
  3.57663E+04  5.32027E+04 -1.65112E+04  7.54996E+04 -6.16800E+04  6.31557E+04 -8.46668E+04  3.23394E+04
 -8.12746E+04 -1.15453E+04 -5.67906E+04 -5.09502E+04 -1.51116E+04 -6.95241E+04  2.72217E+04 -4.61595E+04
  4.00245E+04  3.12332E+03  1.62218E+04  4.79341E+04 -3.38874E+04  4.76772E+04 -6.67626E+04 -8.73052E+02
 -5.36127E+04 -5.66252E+04 -6.40340E+03 -7.70673E+04  3.43033E+04 -5.55156E+04  4.78222E+04 -1.70744E+04
  4.34671E+04  1.10492E+04  3.22514E+04  2.52090E+04  1.60621E+04  2.91139E+04 -5.26582E+03  2.77036E+04
 -2.21234E+04  1.24500E+04 -1.81736E+04 -5.66057E+03  5.58581E+03 -7.08799E+03  2.24800E+04  1.20965E+04
  7.00527E+03  3.50708E+04 -3.24541E+04  3.55719E+04 -6.32313E+04  2.68937E+03 -5.71783E+04 -4.26230E+04
 -1.30541E+04 -6.34160E+04  3.99458E+04 -4.53876E+04  5.84014E+04 -2.11543E+03  3.42733E+04  3.23172E+04
 -6.10797E+03  3.58890E+04 -3.01696E+04  1.58697E+04 -2.97350E+04 -4.47424E+03 -1.62205E+04 -1.10820E+04
 -8.29396E+03 -1.32872E+04 -4.97342E+02 -1.79788E+04  7.29578E+03 -2.27203E+04  1.54399E+04 -1.27441E+04
  1.08553E+04  5.05344E+03 -8.20044E+03  1.30847E+04 -2.16370E+04 -4.27105E+03 -8.48648E+03 -3.34662E+04
  2.32125E+04 -4.32761E+04  4.73572E+04 -1.95056E+04  4.53476E+04  2.00557E+04  1.56769E+04  4.41525E+04
 -1.63520E+04  3.35356E+04 -2.52588E+04  1.47798E+03 -9.95091E+03 -2.77160E+04  2.16058E+04 -3.39083E+04
  4.11464E+04 -9.69386E+03  3.54704E+04  2.35138E+04  1.76794E+04  4.67470E+04 -8.16435E+03  5.02094E+04
 -3.13661E+04  3.35650E+04 -4.26747E+04  9.15011E+03 -4.24219E+04 -1.63093E+04 -2.38655E+04 -3.77224E+04
  6.85138E+03 -3.75534E+04  3.15508E+04 -1.52765E+04  2.91932E+04  1.02284E+04  3.41855E+03  1.89651E+04
 -1.31691E+04  8.36444E+03 -1.02831E+04 -7.59378E+03  5.52263E+03 -1.08981E+04  1.75103E+04  6.76923E+03
  1.31624E+04  2.23498E+04 -6.38718E+03  2.50943E+04 -2.16254E+04  1.14395E+04 -2.80581E+04 -4.85978E+03
 -2.04697E+04 -1.70096E+04 -8.18877E+03 -2.04217E+04  4.12063E+03 -1.96170E+04  1.53715E+04 -1.81192E+04
  2.63933E+04 -1.31049E+04  3.20404E+04  3.19226E+03  2.38996E+04  2.03938E+04  4.18056E+03  3.69214E+04
 -1.73629E+04  3.00455E+04 -2.79449E+04  9.78224E+03 -2.11468E+04 -1.05811E+04 -4.33387E+03 -1.33603E+04
  1.89764E+03 -2.54894E+03 -4.85002E+03  6.70438E+03 -1.60017E+04  5.67224E+03 -1.64345E+04 -6.27901E+03
 -9.82801E+03 -1.92228E+04  5.43634E+03 -2.27539E+04  1.51285E+04 -1.67843E+04  1.85214E+04 -1.17632E+03
  1.11963E+04  1.32435E+04 -1.33795E+03  1.87014E+04 -1.31961E+04  1.07332E+04 -1.81849E+04 -3.88501E+03
 -1.45014E+04 -1.72763E+04 -2.00582E+03 -2.28215E+04  9.89852E+03 -1.84255E+04  1.91013E+04 -9.20514E+03
  1.70952E+04  6.63799E+02  1.24534E+04  4.30635E+03  6.65967E+03  1.10959E+03  9.43691E+03 -1.08126E+03
  1.71671E+04  2.31023E+03  1.89044E+04  1.55791E+04  1.24345E+04  2.97074E+04 -2.59766E+03  3.33684E+04
 -1.95935E+04  2.69425E+04 -3.11936E+04  1.33057E+04 -3.27791E+04 -2.58734E+03 -2.71129E+04 -1.81135E+04
 -1.19595E+04 -2.70680E+04  8.89278E+03 -2.40266E+04  2.12880E+04 -1.32433E+04  1.93862E+04  5.61370E+03
  7.69088E+03  1.50082E+04 -9.15996E+03  1.21947E+04 -1.66465E+04  2.32480E+03 -1.24084E+04 -1.03858E+04
  7.84597E+01 -1.50116E+04  7.67968E+03 -1.15523E+04  9.59593E+03 -1.15619E+03  1.97834E+03  6.24997E+03
 -6.70881E+03  2.65580E+03 -5.59227E+03 -5.76547E+03 -1.13834E+03 -1.30215E+04  9.30191E+03 -1.35126E+04
  1.60502E+04 -7.42714E+03  1.69225E+04  3.69187E+03  1.52868E+04  1.34339E+04  6.60184E+03  1.93139E+04
 -3.21430E+03  2.17447E+04 -1.36725E+04  1.33922E+04 -1.54661E+04  3.32239E+03 -1.05146E+04 -2.96263E+03
 -5.61913E+03 -4.49230E+03 -6.30948E+02  1.28490E+03 -2.23880E+03  2.70507E+03 -5.12229E+03  4.46648E+03
 -1.03528E+04 -1.14942E+03 -1.09951E+04 -8.41668E+03 -4.37709E+03 -1.46196E+04  4.47412E+03 -1.14057E+04
  9.58682E+03 -4.71777E+03  6.44360E+03  3.30806E+03  3.21372E+02  4.59917E+03 -4.26599E+03  2.68725E+02
 -4.86605E+03 -7.05397E+03 -6.45861E+02 -1.06671E+04  6.12955E+03 -1.06330E+04  1.38945E+04 -5.67057E+03
  1.54761E+04  1.51348E+03  1.15680E+04  9.26069E+03  2.77854E+03  1.24236E+04 -6.90545E+03  1.02704E+04
 -9.06861E+03  3.80627E+03 -4.92472E+03 -1.48446E+03  1.62037E+03 -2.82670E+03  6.39726E+03 -9.58056E+02
  5.78211E+03  4.36305E+03  1.13235E+03  8.83523E+03 -5.67086E+03  8.31033E+03 -1.03210E+04  1.98260E+03
 -6.55253E+03 -5.16728E+03 -7.31407E+01 -9.38166E+03  5.25262E+03 -4.16421E+03  5.08484E+03  2.43424E+03
  7.36489E+02  5.66504E+03 -5.69717E+03  6.95968E+03 -7.87236E+03  2.77892E+03 -7.48043E+03 -2.84198E+03
 -4.59371E+03 -9.02492E+03  2.28028E+03 -1.06243E+04  9.21054E+03 -6.65310E+03  9.39050E+03  1.48169E+03
  6.47439E+03  8.41630E+03 -7.57594E+02  9.99656E+03 -7.47659E+03  5.73882E+03 -7.41868E+03 -7.22246E+02
 -7.54422E+03 -7.33801E+03 -1.98755E+03 -7.75036E+03  4.14568E+03 -6.76246E+03  4.67022E+03 -3.13420E+03
  3.50982E+03  1.06561E+03 -2.56973E+02  1.64280E+03 -1.17477E+02 -1.61142E+03  1.25742E+03 -3.76547E+03
  5.84518E+03 -1.72091E+03  8.15549E+03  1.20987E+03  9.22970E+03  5.66769E+03  6.56181E+03  1.14835E+04
 -2.17865E+03  1.32686E+04 -1.10812E+04  1.07240E+04 -1.46798E+04  1.62256E+03 -1.13716E+04 -4.39334E+03
 -6.46263E+03 -9.98093E+03 -9.05677E+02 -7.91766E+03  3.13573E+03 -3.88142E+03  2.72595E+03 -3.39001E+03
  1.99651E+03 -1.69146E+03  2.15046E+03 -2.89661E+03  4.64134E+03 -2.43127E+03  5.56642E+03 -1.83302E+02
  6.26325E+03  1.81933E+03  2.84696E+03  5.26471E+03 -1.74436E+03  5.00669E+03 -6.15506E+03  4.63565E+03
 -8.27732E+03 -1.26793E+03 -4.78245E+03 -4.88333E+03  2.70578E+02 -7.51261E+03  4.42861E+03 -7.92005E+03
  9.33536E+03 -4.67125E+03  1.09317E+04  1.15822E+03  7.60199E+03  7.04738E+03  1.23565E+03  9.26814E+03
 -3.23068E+03  8.31138E+03 -5.91605E+03  2.33854E+03 -4.00446E+03 -1.40421E+03 -1.09255E+03 -1.23350E+03
 -2.40159E+01  4.04825E+02 -1.47165E+03  1.94621E+03 -3.69289E+03  1.49446E+03 -5.99129E+03 -7.85776E+02
 -2.59366E+03 -5.45023E+03  7.09756E+02 -7.82380E+03  4.67582E+03 -6.69586E+03  6.27986E+03 -2.35524E+03
  7.19597E+03  3.40429E+03  2.92295E+03  5.79047E+03 -1.43299E+03  7.14409E+03 -4.67301E+03  4.25340E+03
 -6.61736E+03  6.97193E+02 -5.79689E+03 -4.45250E+03 -5.72195E+02 -5.56366E+03  3.30053E+03 -3.73643E+03
  4.96400E+03 -2.53476E+03  3.67264E+03  4.43563E+02  1.30151E+03  2.02429E+03  1.01981E+03  1.03735E+03
  1.29276E+03  9.44751E+02  1.30583E+03  1.29906E+03  2.41785E+03  3.56423E+03  2.52857E+03  3.62899E+03
 -2.01211E+03  5.72242E+03 -3.98740E+03  6.11408E+03 -5.98147E+03  1.59787E+03 -7.00314E+03 -1.32416E+03
 -3.36470E+03 -6.52909E+03  1.38147E+03 -8.10239E+03  3.59023E+03 -4.80343E+03  5.89092E+03 -1.68223E+03
  4.40484E+03  2.50043E+03  5.92130E+02  4.13763E+03 -1.31490E+03  2.29075E+03 -2.13041E+03 -2.22561E+02
 -1.66981E+03 -3.20188E+03  2.58187E+03 -3.57506E+03  2.71040E+03 -1.77711E+03  1.82196E+03  3.38255E+02
  1.44079E+03  1.45064E+03  1.14609E+03  6.06126E+02 -7.69583E+02  7.47551E+02  1.40985E+03 -1.38625E+03
  2.44243E+02 -8.37506E+02  2.77480E+03  8.79909E+02  8.85758E+02  3.39747E+03 -9.22954E+02  5.24694E+03
 -2.79092E+03  2.68077E+03 -3.45500E+03  1.08152E+03 -3.45365E+03 -6.68810E+02 -8.06879E+02 -1.87797E+03
  5.68508E+02 -2.33646E+03  1.73904E+03 -1.40262E+03  1.21104E+03  2.06204E+03 -6.09746E+02  2.13149E+03
 -2.54116E+03  1.66530E+03 -1.68804E+03 -2.23164E+03 -1.26580E+03 -3.44488E+03  4.45436E+02 -2.63606E+03
  1.13227E+03 -2.47317E+03  2.26720E+03  2.22213E+02  2.11574E+03  3.14784E+02  1.74066E+02  1.74654E+03
 -1.41057E+03  8.61965E+02 -1.17203E+03 -9.69832E+02  1.06177E+03 -2.21905E+03  3.40520E+03 -2.29495E+03
  3.14097E+03  5.33905E+01  3.96877E+03  1.91947E+03  1.29541E+03  3.78248E+03 -1.01010E+03  2.84023E+03
 -2.94987E+03  3.66436E+02 -3.05706E+03 -2.67516E+02 -1.72031E+03 -2.57765E+03  9.83473E+02 -1.00090E+03
  2.28787E+03 -1.51342E+03  1.09257E+03  8.55470E+02  1.84045E+02  1.99163E+03  2.66815E+02  2.14129E+03
 -4.74465E+02  1.09927E+03 -9.10526E+02  7.94504E+01 -1.00137E+03  6.94948E+01 -1.51495E+03  6.92622E+02
 -8.96636E+02  1.84995E+03 -2.97329E+03  1.40879E+03 -2.98170E+03  7.83044E+02 -4.61247E+03 -1.42296E+03
 -1.28872E+03 -4.75079E+03  1.02806E+03 -5.61182E+03  2.82507E+03 -4.83667E+03  4.70479E+03 -1.20007E+03
  4.73625E+03  5.43426E+02  2.48581E+03  3.19655E+03 -3.33409E+02  3.67239E+03 -1.22896E+03  2.22841E+03
 -2.22573E+03  2.05521E+02 -9.89168E+02 -3.56507E+02 -1.21221E+03  2.31566E+02 -1.04885E+03 -4.47511E+02
 -1.05887E+03 -7.05208E+02 -7.15021E+02 -2.15139E+02 -5.11124E+02 -3.47858E+02 -8.34183E+01 -1.36890E+03
  2.17107E+03 -1.33785E+03  1.33697E+03 -6.84820E+01  2.29868E+03  2.07933E+03  3.07470E+02  3.10161E+03
 -1.91316E+03  3.41817E+03 -3.57698E+03  2.20452E+03 -3.49414E+03 -2.11367E+02 -2.81795E+03 -2.12061E+03
 -1.57640E+03 -3.09604E+03  8.16676E+02 -2.38818E+03  1.76299E+03 -1.70776E+03  1.77022E+03 -3.61286E+02
  1.23304E+03  1.19206E+03  1.82021E+02  5.95144E+02 -8.89579E+02 -4.34002E+01 -1.89100E+02 -9.25038E+02
  1.09191E+03 -7.06532E+02  1.98229E+03  1.11243E+03  9.37107E+02  1.28184E+03  1.88586E+02  9.35763E+02
 -1.69226E+03  1.57076E+03 -1.62748E+03 -4.15973E+02 -1.66045E+03 -1.56620E+03  2.69887E+02 -2.74244E+03
  1.14114E+03 -2.19525E+03  1.77539E+03 -3.52017E+02  1.78401E+03 -3.02901E+02  1.39196E+03  1.06312E+03
  7.47519E+02  1.71391E+03 -5.46797E+02  1.21220E+03 -1.45780E+03  1.04689E+03 -8.07204E+02  2.93853E+02
 -6.31462E+02 -2.02307E+02 -7.51795E+02  1.39784E+01 -1.05346E+03  2.92634E+02 -2.00315E+03 -3.34360E+02
 -1.70588E+03 -3.11206E+02 -4.36197E+02 -1.80168E+03  8.32006E+02 -2.65309E+03  1.64649E+03 -1.26315E+03
  1.92723E+03  1.42647E+02  9.74498E+02  1.04315E+03  7.21283E+01  2.17852E+03 -7.85987E+02  1.64040E+03
