 $NMID ID='MM_0lb_SNR400_15hz_g40_27.RAW', FMTDAT='(8E13.5)'
 TRAMP=1., VOLUME=1. $END
  3.09732E+05  8.67366E+02  3.37784E+05  2.50090E+05  8.42910E+04  3.37735E+05 -1.31835E+05  2.50685E+05
 -1.90194E+05  8.29660E+04 -1.11419E+05 -3.30413E+04  1.86520E+03 -5.06754E+04  5.34880E+04 -3.60227E+00
  3.52079E+04  5.28288E+04 -1.68072E+04  7.56173E+04 -6.05064E+04  6.31139E+04 -8.39080E+04  3.17119E+04
 -8.09640E+04 -1.15723E+04 -5.64973E+04 -5.08905E+04 -1.50282E+04 -6.91901E+04  2.70878E+04 -4.51490E+04
  3.91268E+04  3.94242E+03  1.58285E+04  4.80821E+04 -3.49645E+04  4.65774E+04 -6.65588E+04 -5.62548E+02
 -5.24201E+04 -5.61625E+04 -6.26499E+03 -7.65298E+04  3.37776E+04 -5.40222E+04  4.70060E+04 -1.66885E+04
  4.26193E+04  1.09738E+04  3.13776E+04  2.47865E+04  1.56070E+04  2.81695E+04 -4.58002E+03  2.66538E+04
 -2.18200E+04  1.29257E+04 -1.85989E+04 -4.21318E+03  5.17722E+03 -7.29792E+03  2.12059E+04  1.15167E+04
  7.34389E+03  3.42448E+04 -3.14919E+04  3.46731E+04 -6.24817E+04  2.36552E+03 -5.58602E+04 -4.18218E+04
 -1.25888E+04 -6.21494E+04  3.89952E+04 -4.44650E+04  5.64705E+04 -1.96783E+03  3.30985E+04  3.10402E+04
 -6.06460E+03  3.50527E+04 -2.86806E+04  1.46069E+04 -2.88336E+04 -4.91152E+03 -1.56271E+04 -9.96627E+03
 -7.82032E+03 -1.19518E+04 -1.06139E+03 -1.68205E+04  6.97796E+03 -2.28292E+04  1.53308E+04 -1.39561E+04
  1.19897E+04  5.27658E+03 -7.46591E+03  1.30403E+04 -2.02526E+04 -3.36585E+03 -7.68523E+03 -3.17005E+04
  2.20036E+04 -4.17139E+04  4.61768E+04 -1.92964E+04  4.38887E+04  1.86901E+04  1.51213E+04  4.28808E+04
 -1.60495E+04  3.22704E+04 -2.45921E+04  1.37364E+03 -8.71492E+03 -2.75085E+04  2.08151E+04 -3.26392E+04
  3.95894E+04 -8.13069E+03  3.29152E+04  2.31497E+04  1.68618E+04  4.55696E+04 -7.86046E+03  4.72653E+04
 -2.98598E+04  3.16030E+04 -3.93721E+04  9.52157E+03 -4.09159E+04 -1.56630E+04 -2.21672E+04 -3.69677E+04
  7.04369E+03 -3.57970E+04  3.00774E+04 -1.39514E+04  2.80010E+04  1.06203E+04  3.36710E+03  1.86521E+04
 -1.33543E+04  8.20330E+03 -1.02306E+04 -7.60610E+03  6.56751E+03 -1.03684E+04  1.73982E+04  6.02173E+03
  1.24911E+04  2.16736E+04 -7.12143E+03  2.39176E+04 -2.18352E+04  1.06568E+04 -2.69084E+04 -5.63108E+03
 -1.90104E+04 -1.69147E+04 -7.08244E+03 -1.92131E+04  3.72060E+03 -1.73923E+04  1.39321E+04 -1.65329E+04
  2.36987E+04 -1.19957E+04  3.08740E+04  2.09166E+03  2.27080E+04  1.80093E+04  3.87470E+03  3.47098E+04
 -1.79281E+04  2.94180E+04 -2.69580E+04  1.05859E+04 -2.03613E+04 -1.10819E+04 -3.93687E+03 -1.33758E+04
  2.27977E+03 -2.90366E+03 -3.85019E+03  6.55694E+03 -1.49397E+04  5.45326E+03 -1.50138E+04 -6.40566E+03
 -9.99591E+03 -1.71815E+04  5.10972E+03 -2.17397E+04  1.39959E+04 -1.59077E+04  1.61880E+04 -1.95901E+03
  1.03240E+04  1.27992E+04 -1.76697E+03  1.76863E+04 -1.20319E+04  1.01618E+04 -1.73354E+04 -4.10178E+03
 -1.24956E+04 -1.59531E+04 -1.75644E+03 -2.12992E+04  9.47740E+03 -1.69511E+04  1.74894E+04 -8.78996E+03
  1.66604E+04  6.91928E+02  1.20610E+04  4.58032E+03  6.15226E+03  3.33973E+02  9.12158E+03 -1.41307E+03
  1.58362E+04  2.54538E+03  1.76558E+04  1.46263E+04  1.12380E+04  2.85278E+04 -3.03906E+03  3.05062E+04
 -1.72562E+04  2.44209E+04 -2.88493E+04  1.18505E+04 -2.98461E+04 -2.52426E+03 -2.48610E+04 -1.70211E+04
 -1.10727E+04 -2.43454E+04  8.05323E+03 -2.20938E+04  1.94215E+04 -1.16361E+04  1.77623E+04  4.98263E+03
  7.51405E+03  1.25658E+04 -7.86109E+03  1.12779E+04 -1.51487E+04  1.94196E+03 -1.16337E+04 -9.37649E+03
 -3.08917E+02 -1.48879E+04  6.88950E+03 -1.17237E+04  9.13772E+03 -1.56009E+03  2.24648E+03  6.12358E+03
 -6.09879E+03  2.13949E+03 -4.97197E+03 -5.50725E+03 -2.00819E+02 -1.19132E+04  8.70296E+03 -1.25120E+04
  1.48660E+04 -6.05953E+03  1.53068E+04  2.92751E+03  1.32810E+04  1.17199E+04  6.10885E+03  1.77979E+04
 -2.64322E+03  1.98795E+04 -1.21026E+04  1.28365E+04 -1.36058E+04  3.15343E+03 -1.00858E+04 -2.91300E+03
 -5.23952E+03 -4.13661E+03 -9.20451E+02  1.76320E+03 -1.66432E+03  2.06445E+03 -4.39577E+03  3.74951E+03
 -9.22770E+03 -3.09549E+02 -9.58667E+03 -8.30191E+03 -4.14364E+03 -1.35402E+04  3.55170E+03 -1.01193E+04
  8.78747E+03 -4.53631E+03  6.60394E+03  3.24373E+03  5.41595E+02  3.44397E+03 -4.08585E+03  3.90124E+01
 -4.79516E+03 -6.42910E+03 -6.92600E+02 -9.00049E+03  5.04345E+03 -9.42496E+03  1.17477E+04 -5.48699E+03
  1.47699E+04  1.24341E+03  1.02605E+04  7.87582E+03  2.82915E+03  1.11569E+04 -6.67533E+03  1.00901E+04
 -8.51242E+03  3.05509E+03 -4.22810E+03 -2.16451E+03  1.81842E+03 -2.86513E+03  5.51564E+03 -1.43930E+03
  5.61359E+03  4.68797E+03  7.26588E+02  7.85875E+03 -5.58119E+03  7.97375E+03 -9.43141E+03  2.03271E+03
 -6.15174E+03 -4.40270E+03  7.38488E+01 -7.70395E+03  4.09154E+03 -3.92648E+03  4.59790E+03  2.18540E+03
  1.12849E+03  5.36210E+03 -5.35997E+03  6.61797E+03 -6.63990E+03  3.27758E+03 -6.73185E+03 -1.50457E+03
 -4.09491E+03 -8.66878E+03  2.14420E+03 -9.76562E+03  7.43431E+03 -6.23875E+03  8.75738E+03  1.15495E+03
  6.18311E+03  6.82040E+03 -5.99812E+01  9.26312E+03 -6.70513E+03  5.39989E+03 -7.30223E+03 -8.61798E+02
 -7.30497E+03 -6.28480E+03 -1.40087E+03 -6.21120E+03  3.32865E+03 -5.91852E+03  4.18589E+03 -3.01174E+03
  3.82218E+03  9.91547E+02 -4.72295E+02  1.64559E+03 -1.10598E+02 -7.78425E+02  1.03895E+03 -3.63994E+03
  5.92735E+03 -2.38936E+03  8.05819E+03  7.57200E+02  7.84451E+03  4.98578E+03  6.90566E+03  9.73092E+03
 -2.29923E+03  1.21381E+04 -1.09206E+04  9.74743E+03 -1.31139E+04  1.59168E+03 -1.06567E+04 -3.85957E+03
 -5.26967E+03 -9.25261E+03 -2.98630E+02 -7.11080E+03  2.68113E+03 -2.94689E+03  2.59641E+03 -2.66821E+03
  1.85534E+03 -2.18023E+03  2.39253E+03 -2.89340E+03  3.81927E+03 -1.55983E+03  4.44649E+03 -1.75487E+01
  5.57550E+03  1.28021E+03  2.14077E+03  4.50620E+03 -1.12488E+03  4.48141E+03 -5.96540E+03  4.18074E+03
 -6.78518E+03 -1.30554E+03 -3.32353E+03 -4.81897E+03 -4.81471E+02 -7.87270E+03  4.82854E+03 -8.01096E+03
  8.17170E+03 -4.70738E+03  9.22532E+03  7.91937E+02  7.35901E+03  6.08051E+03  7.66996E+02  8.30044E+03
 -3.72671E+03  7.50256E+03 -4.29299E+03  2.96092E+03 -3.08176E+03 -9.79559E+02 -1.20961E+03 -4.68221E+02
 -9.26911E+02  1.13569E+02 -1.20623E+03  2.09028E+03 -3.29579E+03  1.70009E+03 -5.44626E+03 -4.85462E+02
 -2.67161E+03 -5.82699E+03  6.20049E+02 -6.87281E+03  3.86082E+03 -6.49730E+03  5.96795E+03 -1.83205E+03
  6.43306E+03  3.39079E+03  2.78562E+03  5.20882E+03 -9.48877E+02  6.98716E+03 -3.96537E+03  4.07247E+03
 -6.02552E+03  1.03692E+03 -4.92634E+03 -3.81944E+03 -4.64982E+02 -4.96619E+03  1.95406E+03 -4.45498E+03
  4.19174E+03 -1.28196E+03  2.87498E+03  9.21595E+02  8.69011E+02  2.25218E+03  6.91439E+02  1.57625E+02
  1.67967E+03  6.12576E+02  1.77969E+03  1.18120E+03  1.93156E+03  2.55106E+03  1.77538E+03  3.36615E+03
 -1.91176E+03  5.24246E+03 -3.94745E+03  5.78670E+03 -5.41537E+03  1.38291E+03 -6.75473E+03 -1.72802E+03
 -2.93461E+03 -5.51327E+03  1.32087E+03 -7.60357E+03  3.63813E+03 -4.61210E+03  5.21557E+03 -1.30052E+03
  3.61213E+03  2.78617E+03  6.10348E+02  3.64101E+03 -1.36772E+03  2.68678E+03 -2.56804E+03 -2.01520E+02
 -4.78253E+02 -2.34596E+03  1.55138E+03 -2.99656E+03  1.96199E+03 -1.64754E+03  2.49251E+03  9.55257E+02
  1.71588E+03  1.25031E+03  1.01445E+03  4.02162E+02 -5.26698E+02  8.91636E+02  2.04359E+03 -9.27733E+02
  1.87123E+02 -6.82764E+02  2.27789E+03  1.69300E+03  4.90594E+02  3.58031E+03 -3.82292E+02  4.38440E+03
 -3.27441E+03  1.47466E+03 -3.37133E+03  7.60493E+02 -3.21955E+03 -1.27677E+03 -7.22255E+02 -2.18886E+03
  4.84373E+02 -2.55213E+03  1.33748E+03 -7.25581E+02  1.18755E+03  1.58107E+03 -1.95717E+02  1.61678E+03
 -2.64912E+03  1.31940E+03 -2.43042E+03 -1.42656E+03 -1.23081E+03 -2.85282E+03  4.76219E+02 -3.13914E+03
  1.50384E+03 -1.37142E+03  2.24179E+03  2.02119E+02  1.77599E+03  3.30888E+02  2.66092E+02  1.56546E+03
 -8.20049E+02  2.09174E+02 -1.84851E+03 -5.11892E+02  9.82131E+02 -1.30525E+03  2.16756E+03 -1.51050E+03
  3.48833E+03  1.48952E+02  4.16906E+03  2.08616E+03  1.70353E+03  2.99079E+03 -1.06814E+03  3.38269E+03
 -2.49525E+03  1.61668E+03 -2.96471E+03 -6.51894E+01 -1.70089E+03 -2.60815E+03  9.71922E+02 -1.06303E+03
  2.12329E+03 -1.45818E+03  1.85827E+03  7.43810E+02  4.20444E+02  1.77657E+03  1.19756E+02  1.70971E+03
 -3.52233E+02  1.85327E+03 -1.26109E+02  5.33683E+02 -8.65620E+01  3.34557E+02 -1.51637E+02  7.80048E+02
 -8.83434E+02  1.49442E+03 -3.23729E+03  1.34212E+03 -3.48813E+03  3.15473E+02 -4.00286E+03 -2.05781E+03
 -1.42687E+03 -4.05853E+03  6.47765E+02 -5.20548E+03  2.57911E+03 -4.32065E+03  5.05675E+03 -2.25283E+03
  4.19172E+03  4.00350E+02  2.26735E+03  3.15572E+03 -7.14065E+02  3.24395E+03 -1.61812E+03  2.42416E+03
 -1.93703E+03  9.60700E+02 -6.59317E+02 -2.23932E+02 -2.88915E+02 -7.09376E-01 -1.23008E+03  4.08347E+02
 -1.41250E+03  4.79265E+01 -1.40038E+03 -3.77560E+02  1.25365E+02 -1.31004E+03 -4.56210E+02 -1.26367E+03
  2.27118E+03 -6.79295E+02  1.08624E+03  1.21297E+02  2.60529E+03  1.45677E+03  4.17584E+02  2.86745E+03
 -1.54519E+03  4.08642E+03 -3.08630E+03  2.87533E+03 -3.30771E+03 -3.87722E+02 -2.93508E+03 -2.36797E+03
 -1.25441E+03 -2.40628E+03  3.76985E+02 -2.27143E+03  1.49487E+03 -1.60490E+03  1.73732E+03  8.22484E+02
  7.75091E+02  1.38948E+03 -1.08185E+02  8.86922E+02 -9.87695E+02  4.40173E+02 -1.61763E+01 -5.34053E+02
  7.81985E+02  3.49303E+02  1.18992E+03  7.30276E+02  5.76454E+02  1.40712E+03  8.63662E+02  9.96017E+02
 -9.41585E+02  1.11598E+03 -1.78326E+03 -3.95464E+00 -1.68590E+03 -1.06394E+03  3.61562E+01 -2.49946E+03
  1.30442E+03 -2.12442E+03  1.95429E+03 -3.81993E+02  2.60679E+03  8.02994E+00  1.19203E+03  1.87289E+03
  3.10746E+02  1.50219E+03 -6.86724E+02  1.39420E+03 -4.25811E+02  1.02176E+03 -8.56553E+02  5.31165E+02
 -6.75047E+02  2.93310E+02 -8.12166E+02  8.50583E+02 -1.38012E+03  2.25212E+02 -1.23763E+03 -1.12840E+03
 -2.40767E+03 -4.61150E+02 -4.65868E+02 -1.85150E+03  1.16129E+03 -2.68600E+03  2.07972E+03 -9.01034E+02
  2.41323E+03  2.44654E+02  6.32617E+02  6.73727E+02 -3.61522E+02  1.49717E+03 -1.10142E+03  9.66504E+02
