 $NMID ID='MM_0lb_SNR400_14hz_g60_38.RAW', FMTDAT='(8E13.5)'
 TRAMP=1., VOLUME=1. $END
  3.09891E+05  5.75015E+02  3.38162E+05  2.50786E+05  8.50315E+04  3.38643E+05 -1.32886E+05  2.51478E+05
 -1.90365E+05  8.34936E+04 -1.11655E+05 -3.28770E+04  4.03836E+02 -5.07306E+04  5.34153E+04 -1.64991E+02
  3.61815E+04  5.33651E+04 -1.66871E+04  7.56208E+04 -6.05779E+04  6.37181E+04 -8.48349E+04  3.20886E+04
 -8.14726E+04 -1.14236E+04 -5.70165E+04 -5.18818E+04 -1.43122E+04 -7.00618E+04  2.76928E+04 -4.59582E+04
  4.07064E+04  3.76577E+03  1.59279E+04  4.82762E+04 -3.47170E+04  4.71954E+04 -6.76687E+04 -1.40443E+02
 -5.40312E+04 -5.72402E+04 -7.38136E+03 -7.77005E+04  3.42896E+04 -5.64622E+04  4.87607E+04 -1.75340E+04
  4.38525E+04  1.09504E+04  3.19648E+04  2.56840E+04  1.56366E+04  2.99561E+04 -5.14866E+03  2.73147E+04
 -2.19974E+04  1.20432E+04 -1.92286E+04 -5.17301E+03  6.33662E+03 -7.59942E+03  2.20514E+04  1.32909E+04
  7.52018E+03  3.55114E+04 -3.27087E+04  3.61432E+04 -6.42804E+04  1.99490E+03 -5.79220E+04 -4.33636E+04
 -1.30729E+04 -6.42707E+04  4.02058E+04 -4.62899E+04  5.97820E+04 -2.01960E+03  3.49981E+04  3.31264E+04
 -5.66278E+03  3.73033E+04 -2.99000E+04  1.69343E+04 -3.07210E+04 -4.40757E+03 -1.76845E+04 -1.13988E+04
 -8.97144E+03 -1.30410E+04 -8.44189E+02 -1.92269E+04  7.54994E+03 -2.35455E+04  1.57981E+04 -1.30080E+04
  1.14211E+04  5.91756E+03 -9.76625E+03  1.30042E+04 -2.24642E+04 -5.28024E+03 -7.74957E+03 -3.47968E+04
  2.37963E+04 -4.46663E+04  4.95466E+04 -2.02488E+04  4.64187E+04  1.96556E+04  1.64252E+04  4.51474E+04
 -1.62152E+04  3.47608E+04 -2.57863E+04  2.65058E+03 -1.09743E+04 -2.82100E+04  2.06998E+04 -3.49224E+04
  4.27623E+04 -9.96809E+03  3.75125E+04  2.39471E+04  2.00867E+04  4.82487E+04 -7.76649E+03  5.26327E+04
 -3.28449E+04  3.51752E+04 -4.36698E+04  1.01231E+04 -4.42884E+04 -1.73929E+04 -2.43425E+04 -3.97357E+04
  7.42040E+03 -3.92431E+04  3.18971E+04 -1.56594E+04  2.99750E+04  1.09287E+04  4.23106E+03  1.95065E+04
 -1.35746E+04  9.34133E+03 -1.06431E+04 -7.19973E+03  4.98419E+03 -1.09678E+04  1.85258E+04  6.30869E+03
  1.33815E+04  2.21522E+04 -6.04957E+03  2.55534E+04 -2.28956E+04  1.23770E+04 -2.96153E+04 -4.73658E+03
 -2.22622E+04 -1.75749E+04 -9.69387E+03 -2.15102E+04  4.41234E+03 -2.19644E+04  1.76379E+04 -2.02893E+04
  2.75870E+04 -1.29508E+04  3.41724E+04  3.00178E+03  2.48061E+04  2.13316E+04  4.26606E+03  3.77561E+04
 -1.85476E+04  3.17467E+04 -2.83732E+04  1.11367E+04 -2.15194E+04 -9.83044E+03 -4.49390E+03 -1.37617E+04
  1.64289E+03 -2.77417E+03 -5.39101E+03  7.19276E+03 -1.69523E+04  5.59450E+03 -1.73136E+04 -8.04071E+03
 -1.08165E+04 -1.95976E+04  4.96442E+03 -2.40036E+04  1.67363E+04 -1.70747E+04  1.95036E+04 -1.36015E+03
  1.18981E+04  1.37415E+04 -1.13910E+03  1.98370E+04 -1.40414E+04  1.14169E+04 -2.04597E+04 -3.91921E+03
 -1.50668E+04 -1.84597E+04 -1.95595E+03 -2.46657E+04  1.09670E+04 -2.02290E+04  2.04207E+04 -1.03390E+04
  1.88961E+04  1.34968E+02  1.30839E+04  5.23564E+03  6.86096E+03  1.13439E+03  9.84630E+03 -1.75079E+03
  1.81742E+04  2.41892E+03  2.15431E+04  1.66083E+04  1.41146E+04  3.21263E+04 -3.32395E+03  3.70434E+04
 -2.10123E+04  2.95184E+04 -3.42216E+04  1.52273E+04 -3.63675E+04 -2.92267E+03 -2.96740E+04 -2.12506E+04
 -1.30403E+04 -3.00395E+04  1.06503E+04 -2.74360E+04  2.27289E+04 -1.33045E+04  2.04287E+04  6.35767E+03
  7.21088E+03  1.54298E+04 -9.85301E+03  1.30823E+04 -1.72929E+04  2.30525E+03 -1.32429E+04 -9.35662E+03
 -1.59198E+02 -1.62133E+04  9.06191E+03 -1.22587E+04  1.07837E+04 -9.72683E+02  2.79461E+03  7.80488E+03
 -7.16746E+03  2.84811E+03 -6.42341E+03 -5.97549E+03 -1.04289E+03 -1.43867E+04  9.82845E+03 -1.48173E+04
  1.80762E+04 -8.50666E+03  1.98496E+04  3.19533E+03  1.70093E+04  1.43889E+04  7.90672E+03  2.19788E+04
 -3.82125E+03  2.52976E+04 -1.53256E+04  1.47356E+04 -1.71257E+04  2.77853E+03 -1.21440E+04 -3.97351E+03
 -5.75676E+03 -5.53732E+03 -9.28977E+02  1.18507E+03 -2.21092E+03  2.31591E+03 -5.60642E+03  4.84142E+03
 -1.13859E+04 -1.05223E+03 -1.17072E+04 -9.29118E+03 -4.49009E+03 -1.54835E+04  5.08047E+03 -1.16181E+04
  1.01361E+04 -5.28027E+03  7.73097E+03  3.12311E+03 -1.92098E+02  5.14919E+03 -5.27482E+03 -2.23048E+02
 -5.31813E+03 -7.66588E+03 -1.43653E+03 -1.19277E+04  7.08448E+03 -1.16757E+04  1.49987E+04 -6.02567E+03
  1.79115E+04  1.83868E+03  1.26847E+04  9.80015E+03  3.13677E+03  1.41710E+04 -7.38108E+03  1.24530E+04
 -9.88953E+03  3.77512E+03 -5.36453E+03 -2.18514E+03  1.27010E+03 -4.13222E+03  6.45837E+03 -1.01950E+03
  5.82187E+03  5.80978E+03  8.82098E+02  9.91739E+03 -6.77889E+03  9.15535E+03 -1.21483E+04  2.74331E+03
 -7.55007E+03 -6.26309E+03 -1.11219E+02 -9.78953E+03  6.44498E+03 -5.27815E+03  6.95207E+03  1.72832E+03
  2.01853E+03  6.27731E+03 -5.68212E+03  7.88941E+03 -9.14488E+03  3.80993E+03 -8.50382E+03 -3.48229E+03
 -5.50369E+03 -1.12233E+04  2.45562E+03 -1.22388E+04  1.01244E+04 -7.82409E+03  1.13525E+04  2.43636E+03
  7.96243E+03  9.23273E+03 -3.11660E+02  1.09314E+04 -8.20018E+03  6.11283E+03 -8.80557E+03 -5.47518E+02
 -8.03456E+03 -8.22137E+03 -1.89476E+03 -7.72923E+03  4.61224E+03 -7.11764E+03  5.34199E+03 -3.30468E+03
  3.24404E+03  1.38286E+03 -3.30441E+02  1.43369E+03  5.07345E+02 -1.83608E+03  1.02822E+03 -4.26309E+03
  7.32555E+03 -3.39308E+03  1.04467E+04  1.32179E+03  1.03650E+04  6.73827E+03  8.26008E+03  1.33083E+04
 -2.79831E+03  1.60912E+04 -1.35253E+04  1.06651E+04 -1.71879E+04  2.64962E+03 -1.38709E+04 -6.26387E+03
 -6.62643E+03 -1.16174E+04 -1.05226E+02 -9.71977E+03  2.90396E+03 -4.64272E+03  3.16922E+03 -3.89820E+03
  2.36842E+03 -2.02628E+03  2.66466E+03 -2.55394E+03  4.50026E+03 -2.45787E+03  5.77085E+03 -4.32454E+02
  6.84747E+03  1.27240E+03  3.37927E+03  6.22649E+03 -1.17926E+03  6.11333E+03 -6.99355E+03  5.37622E+03
 -9.05444E+03 -1.31020E+03 -4.80375E+03 -6.35663E+03 -3.67374E+01 -9.92615E+03  6.01620E+03 -9.51336E+03
  1.05270E+04 -5.83380E+03  1.15915E+04  8.47905E+02  9.12126E+03  7.96667E+03  2.06250E+03  1.06552E+04
 -5.10684E+03  9.34139E+03 -6.30762E+03  3.25016E+03 -4.49699E+03 -9.36533E+02 -1.07831E+03 -7.25918E+02
 -9.19063E+02 -3.59254E+01 -1.76845E+03  2.30868E+03 -4.14809E+03  1.56305E+03 -6.40418E+03 -8.94810E+02
 -4.44307E+03 -6.60675E+03  7.07800E+02 -9.38015E+03  5.02982E+03 -8.41129E+03  7.88080E+03 -2.40312E+03
  8.69441E+03  4.10259E+03  3.89570E+03  7.39688E+03 -2.15267E+03  9.41209E+03 -5.85986E+03  5.56707E+03
 -8.50140E+03  2.44906E+02 -6.33184E+03 -5.19772E+03 -7.26856E+02 -7.34553E+03  3.50070E+03 -5.01843E+03
  4.96497E+03 -2.03153E+03  3.61673E+03  1.12293E+03  1.61111E+03  2.53100E+03  1.15546E+03  5.44302E+02
  1.47670E+03  8.96774E+02  2.48861E+03  1.49946E+03  2.08349E+03  3.37934E+03  1.97903E+03  4.70548E+03
 -1.80530E+03  6.71271E+03 -5.98068E+03  7.32059E+03 -8.12696E+03  1.92070E+03 -7.97845E+03 -3.31037E+03
 -4.00881E+03 -8.57762E+03  1.23629E+03 -9.45390E+03  4.61271E+03 -5.75794E+03  7.00356E+03 -1.59308E+03
  5.44333E+03  3.54765E+03  9.48327E+02  4.76577E+03 -1.96877E+03  3.56283E+03 -2.60842E+03 -5.86456E+02
 -1.24458E+03 -4.01981E+03  2.64444E+03 -3.73149E+03  3.08641E+03 -1.71167E+03  2.87107E+03  8.28852E+02
  1.34367E+03  1.38470E+03  3.95374E+02  7.18889E+02 -6.35084E+02  1.31478E+03  1.89731E+03  1.28360E+02
  1.49022E+03 -6.01110E+02  2.69740E+03  9.91391E+02  1.62536E+03  4.71291E+03 -9.08176E+02  5.33633E+03
 -3.62251E+03  3.20102E+03 -4.76068E+03  3.20169E+02 -4.19451E+03 -1.69182E+03 -1.22500E+03 -2.37861E+03
  1.15410E+03 -2.91106E+03  1.87001E+03 -1.05201E+03  1.33596E+03  1.75771E+03 -7.82568E+02  2.47619E+03
 -3.12434E+03  1.44705E+03 -4.12708E+03 -2.49076E+03 -2.11178E+03 -4.98122E+03  9.21395E+02 -3.87346E+03
  2.53076E+03 -1.69330E+03  2.30388E+03  1.53924E+02  2.64900E+03  7.31472E+02  1.56643E+02  2.60403E+03
 -8.81760E+02  6.26165E+02 -1.92167E+03 -9.64805E+02  6.90028E+02 -3.48775E+03  4.25941E+03 -2.32205E+03
  3.47271E+03  8.08036E+02  4.53981E+03  2.53715E+03  1.24579E+03  4.21659E+03 -1.49647E+03  5.02224E+03
 -3.77845E+03  1.83380E+03 -4.25412E+03 -5.57939E+02 -1.68109E+03 -2.34242E+03  1.19092E+03 -2.17386E+03
  2.98337E+03 -1.51413E+03  1.98394E+03  9.60299E+02  1.04796E+03  2.69341E+03 -4.03660E+02  2.16227E+03
 -1.00867E+03  1.67156E+03 -1.08051E+03  8.59686E+02 -5.59287E+02  5.72608E+02 -1.38297E+03  1.58547E+03
 -9.73129E+02  1.86698E+03 -3.20403E+03  1.73512E+03 -4.20106E+03  2.14229E+02 -4.84671E+03 -3.59414E+03
 -2.68343E+03 -6.03994E+03  1.17911E+03 -6.68856E+03  3.63488E+03 -5.51969E+03  6.68335E+03 -1.77826E+03
  5.57176E+03  6.44565E+02  3.79849E+03  3.78161E+03  4.14493E+02  4.77150E+03 -2.08006E+03  3.16906E+03
 -2.41858E+03  1.33687E+03 -1.72337E+03 -8.86527E+02 -6.43926E+02  1.49361E+02 -3.22413E+02 -5.14247E+02
 -1.87116E+03  1.73995E+02 -1.34299E+03 -3.36434E+02 -3.74539E+02 -6.73778E+02 -9.74373E+01 -2.68867E+03
  2.19879E+03 -8.64551E+02  1.57907E+03  3.18544E+02  2.60482E+03  2.32893E+03  2.72198E+02  4.66216E+03
 -2.27922E+03  5.68056E+03 -4.64795E+03  3.37003E+03 -4.97999E+03 -6.08011E+02 -3.40512E+03 -3.33514E+03
 -1.54515E+03 -3.94275E+03  1.27246E+03 -3.53964E+03  2.39575E+03 -2.03328E+03  2.44039E+03  9.68453E+02
  1.08876E+03  1.31232E+03 -4.61690E+02  8.69470E+02 -1.20298E+03 -5.90713E+02 -2.22498E+02 -5.71611E+02
  1.25451E+03 -3.41911E+01  1.31845E+03  5.00832E+02  1.26029E+03  1.30931E+03  1.24097E+03  1.48587E+03
 -1.84808E+03  2.11174E+03 -2.04777E+03 -2.18325E+02 -2.28102E+03 -2.15706E+03 -9.09513E+02 -3.22720E+03
  1.39747E+03 -2.59376E+03  2.43483E+03  5.57941E+01  2.18963E+03 -3.32425E+02  1.19997E+03  1.95666E+03
  7.50183E+02  2.23253E+03 -1.11155E+03  1.89305E+03 -1.65066E+03  2.63359E+02 -1.08422E+03 -2.14204E+02
 -7.27287E+02 -2.87698E+02 -1.46336E+03  4.40992E+02 -1.14830E+03  4.98284E+02 -2.30936E+03 -5.38024E+02
 -2.39208E+03 -7.11828E+02 -1.71405E+02 -2.33286E+03  8.85752E+02 -3.41104E+03  1.78144E+03 -4.70916E+02
  1.83129E+03  1.83251E+02  4.72153E+02  1.26437E+03  2.04009E+02  2.36674E+03 -1.65939E+03  1.40598E+03
