 $NMID ID='MM_0lb_SNR400_7hz_g45_98.RAW', FMTDAT='(8E13.5)'
 TRAMP=1., VOLUME=1. $END
  3.09854E+05  4.57976E+02  3.38648E+05  2.50530E+05  8.52974E+04  3.38979E+05 -1.32489E+05  2.52174E+05
 -1.90563E+05  8.44296E+04 -1.12966E+05 -3.23861E+04  1.95810E+02 -5.19676E+04  5.40613E+04 -1.20560E+03
  3.53264E+04  5.24959E+04 -1.62797E+04  7.54868E+04 -6.17115E+04  6.43619E+04 -8.58451E+04  3.20314E+04
 -8.23169E+04 -1.22890E+04 -5.80440E+04 -5.33690E+04 -1.50959E+04 -7.01568E+04  2.79193E+04 -4.75735E+04
  4.10817E+04  3.86851E+03  1.59526E+04  4.78883E+04 -3.50027E+04  4.81960E+04 -6.85440E+04 -4.81308E+02
 -5.50164E+04 -5.86135E+04 -6.17594E+03 -7.98526E+04  3.57985E+04 -5.63752E+04  5.04888E+04 -1.82819E+04
  4.50022E+04  1.16947E+04  3.24382E+04  2.73648E+04  1.56248E+04  3.06111E+04 -6.24328E+03  2.75368E+04
 -2.22722E+04  1.14082E+04 -1.69868E+04 -5.78425E+03  7.50224E+03 -7.37508E+03  2.37162E+04  1.38739E+04
  7.60870E+03  3.85339E+04 -3.44383E+04  3.81524E+04 -6.64120E+04  1.66157E+03 -5.93786E+04 -4.48604E+04
 -1.25486E+04 -6.61775E+04  4.15958E+04 -4.85698E+04  6.23371E+04 -2.50634E+03  3.63943E+04  3.49250E+04
 -5.77163E+03  4.00468E+04 -3.24098E+04  1.96627E+04 -3.38575E+04 -3.11788E+03 -2.09316E+04 -1.19457E+04
 -9.45898E+03 -1.64069E+04 -5.37985E+02 -1.92768E+04  8.59425E+03 -2.40709E+04  1.62581E+04 -1.24549E+04
  9.54280E+03  6.48737E+03 -1.11101E+04  1.30054E+04 -2.40670E+04 -7.89945E+03 -8.25206E+03 -3.83455E+04
  2.60662E+04 -4.82472E+04  5.39552E+04 -2.10300E+04  5.06440E+04  2.08045E+04  1.79973E+04  4.83696E+04
 -1.67686E+04  3.73779E+04 -2.84950E+04  2.72919E+03 -1.20871E+04 -3.00578E+04  2.09306E+04 -3.82869E+04
  4.55509E+04 -1.17389E+04  4.22161E+04  2.59315E+04  2.21039E+04  5.28139E+04 -8.95464E+03  5.74973E+04
 -3.64192E+04  3.92753E+04 -4.92534E+04  1.20888E+04 -4.94405E+04 -1.95200E+04 -2.70930E+04 -4.33362E+04
  7.92934E+03 -4.45818E+04  3.44561E+04 -1.74073E+04  3.35208E+04  1.22700E+04  6.04444E+03  2.07546E+04
 -1.43815E+04  1.07093E+04 -1.13147E+04 -6.98960E+03  5.61763E+03 -1.17637E+04  1.85300E+04  5.27136E+03
  1.50295E+04  2.36251E+04 -5.93738E+03  2.70982E+04 -2.37168E+04  1.63682E+04 -3.25781E+04 -2.19002E+03
 -2.72257E+04 -1.90931E+04 -1.37729E+04 -2.63675E+04  4.81760E+03 -2.78993E+04  2.09208E+04 -2.43707E+04
  3.44121E+04 -1.49829E+04  3.94895E+04  5.58832E+03  2.80783E+04  2.70177E+04  3.77665E+03  4.30378E+04
 -2.07475E+04  3.49508E+04 -3.11949E+04  1.30617E+04 -2.29950E+04 -1.06204E+04 -5.50719E+03 -1.29833E+04
  2.42805E+02 -1.58437E+03 -8.73402E+03  8.45870E+03 -2.16032E+04  4.32188E+03 -2.16516E+04 -1.04598E+04
 -1.31308E+04 -2.46694E+04  6.88412E+03 -2.96812E+04  2.00065E+04 -2.14388E+04  2.44124E+04 -1.96416E+03
  1.53183E+04  1.77461E+04 -1.38816E+03  2.48345E+04 -1.82201E+04  1.39626E+04 -2.56635E+04 -5.30868E+03
 -1.86371E+04 -2.32107E+04 -2.67875E+03 -3.00863E+04  1.34180E+04 -2.46394E+04  2.49210E+04 -1.31522E+04
  2.31809E+04 -1.64647E+02  1.66866E+04  6.20560E+03  9.54070E+03  9.33180E+02  1.33972E+04 -2.37851E+03
  2.42485E+04  2.48526E+03  2.82265E+04  2.00854E+04  1.91585E+04  4.01945E+04 -2.87458E+03  4.77747E+04
 -2.71704E+04  4.08625E+04 -4.46730E+04  2.17783E+04 -4.89544E+04 -3.51156E+03 -3.95324E+04 -2.77966E+04
 -1.53343E+04 -4.06395E+04  1.48238E+04 -3.59334E+04  3.01278E+04 -1.61108E+04  2.56943E+04  8.72631E+03
  8.62416E+03  1.99331E+04 -1.19255E+04  1.62295E+04 -2.06508E+04  3.00258E+03 -1.59705E+04 -1.37051E+04
 -1.21792E+03 -2.02050E+04  1.18395E+04 -1.51575E+04  1.41214E+04 -1.88173E+03  2.94119E+03  9.99732E+03
 -9.29117E+03  4.83116E+03 -1.05122E+04 -7.17587E+03 -2.02634E+03 -2.04613E+04  1.24651E+04 -2.10365E+04
  2.54335E+04 -1.26304E+04  2.92352E+04  2.29725E+03  2.53989E+04  2.09944E+04  1.25390E+04  3.26622E+04
 -6.27081E+03  3.51208E+04 -2.28220E+04  2.09384E+04 -2.46127E+04  4.21695E+03 -1.81872E+04 -6.42459E+03
 -6.85701E+03 -8.07163E+03 -9.48741E+02 -1.87931E+02 -3.26051E+03  4.04968E+03 -9.14578E+03  6.13951E+03
 -1.52452E+04 -1.61715E+03 -1.57478E+04 -1.45325E+04 -5.72240E+03 -2.11846E+04  7.52597E+03 -1.76914E+04
  1.47950E+04 -7.78176E+03  9.79372E+03  4.56363E+03 -5.08609E+02  6.57030E+03 -9.87414E+03 -4.34359E+01
 -8.05188E+03 -1.17975E+04 -1.04373E+03 -1.82932E+04  1.04551E+04 -1.71202E+04  2.28203E+04 -1.03639E+04
  2.56773E+04  2.90967E+03  1.89954E+04  1.64924E+04  4.07426E+03  2.15832E+04 -1.09958E+04  1.75308E+04
 -1.49979E+04  5.90852E+03 -8.00072E+03 -3.93813E+03  3.39638E+03 -5.37701E+03  9.23117E+03 -1.86988E+03
  8.08672E+03  7.57579E+03  8.95094E+02  1.47493E+04 -9.96430E+03  1.36076E+04 -1.79131E+04  3.82808E+03
 -1.33072E+04 -9.26884E+03 -4.55114E+02 -1.61861E+04  1.07991E+04 -8.04030E+03  1.12534E+04  3.69841E+03
  2.86726E+03  1.17381E+04 -9.51417E+03  1.33540E+04 -1.55938E+04  5.87208E+03 -1.64768E+04 -6.04841E+03
 -9.41376E+03 -1.80996E+04  5.06943E+03 -2.08788E+04  1.78321E+04 -1.20027E+04  1.92104E+04  3.51163E+03
  1.13732E+04  1.50627E+04 -1.98052E+03  1.80150E+04 -1.27935E+04  9.58600E+03 -1.47727E+04 -1.63350E+03
 -1.25664E+04 -1.20869E+04 -2.03630E+03 -1.33771E+04  6.87817E+03 -1.01946E+04  8.19986E+03 -3.49291E+03
  4.89532E+03  2.71838E+03 -1.01862E+03  2.75514E+03 -1.00498E+03 -4.16573E+03  3.28732E+03 -9.53369E+03
  1.36414E+04 -6.74194E+03  1.92457E+04  2.57195E+03  1.82333E+04  1.31179E+04  1.09288E+04  2.45886E+04
 -5.58334E+03  2.80802E+04 -2.30059E+04  2.07350E+04 -3.12140E+04  4.47435E+03 -2.43992E+04 -1.01485E+04
 -1.22159E+04 -2.00186E+04 -8.92474E+02 -1.79756E+04  5.83974E+03 -1.05498E+04  5.88383E+03 -6.08615E+03
  4.64322E+03 -3.49089E+03  5.17188E+03 -4.73932E+03  7.25763E+03 -4.67151E+03  8.82711E+03 -2.75224E+03
  1.22239E+04  2.62080E+03  7.63155E+03  1.13182E+04 -2.77044E+03  1.42506E+04 -1.37809E+04  9.87754E+03
 -1.71616E+04 -1.34897E+03 -1.19573E+04 -1.25890E+04 -1.72838E+03 -1.92228E+04  1.00080E+04 -1.95731E+04
  1.98217E+04 -1.01861E+04  2.42646E+04  3.74565E+03  1.59474E+04  1.58259E+04  1.54260E+03  2.05348E+04
 -8.88201E+03  1.63670E+04 -1.25128E+04  6.24423E+03 -9.08607E+03 -1.84657E+03 -3.59043E+03 -1.95992E+03
 -2.16195E+03 -1.35451E+03 -2.33275E+03  2.92318E+03 -6.64901E+03  2.32380E+03 -1.27377E+04 -1.35153E+03
 -9.31647E+03 -1.17804E+04 -6.46273E+02 -1.83835E+04  1.13361E+04 -1.60725E+04  1.90041E+04 -4.10118E+03
  1.81908E+04  7.62088E+03  9.00665E+03  1.63071E+04 -2.60871E+03  1.84291E+04 -1.27919E+04  1.12814E+04
 -1.76740E+04 -1.31109E+02 -1.26376E+04 -1.04739E+04 -1.06214E+03 -1.50290E+04  8.20315E+03 -1.14812E+04
  1.14133E+04 -4.26089E+03  8.19652E+03  3.25123E+03  2.47248E+03  5.47732E+03  1.53293E+03  2.23007E+03
  2.95674E+03  1.10547E+03  3.53675E+03  2.30273E+03  5.46660E+03  6.22855E+03  4.41494E+03  9.25841E+03
 -4.60699E+03  1.44216E+04 -1.25430E+04  1.45225E+04 -1.89144E+04  4.08820E+03 -1.98090E+04 -8.53592E+03
 -9.11520E+03 -1.92868E+04  1.98275E+03 -2.00317E+04  1.12845E+04 -1.38464E+04  1.62587E+04 -3.12293E+03
  1.20098E+04  6.73444E+03  3.00864E+03  1.01494E+04 -5.42735E+03  7.71284E+03 -7.51151E+03 -8.55407E+02
 -3.68161E+03 -8.70952E+03  3.66276E+03 -8.58766E+03  8.06775E+03 -4.03622E+03  7.88324E+03  1.79510E+03
  4.38801E+03  4.67203E+03  2.86274E+03  3.41436E+03 -1.18569E+03  2.46875E+03  1.56777E+03 -7.44472E+02
  3.22851E+03 -8.00811E+02  8.01341E+03  2.94476E+03  4.78775E+03  1.00636E+04 -1.41197E+03  1.41592E+04
 -9.97905E+03  8.07267E+03 -1.29344E+04  2.15720E+03 -1.12343E+04 -4.69770E+03 -4.26539E+03 -7.11139E+03
  6.48170E+02 -7.65964E+03  5.67704E+03 -4.24603E+03  4.40086E+03  3.02877E+03 -1.65413E+03  7.34576E+03
 -7.72430E+03  3.97043E+03 -9.03395E+03 -4.24351E+03 -5.77737E+03 -1.11168E+04  1.85261E+03 -1.08887E+04
  6.66133E+03 -6.82056E+03  8.51951E+03 -1.11210E+03  6.72282E+03  3.89386E+03  2.39706E+02  6.22451E+03
 -3.84914E+03  2.13017E+03 -5.37464E+03 -3.38119E+03  1.45324E+03 -7.78987E+03  9.68888E+03 -6.78783E+03
  1.24177E+04  1.12607E+03  1.13770E+04  8.51375E+03  3.36068E+03  1.34845E+04 -4.27960E+03  1.34664E+04
 -1.04928E+04  5.56346E+03 -1.10312E+04 -2.12173E+02 -5.30475E+03 -8.31215E+03  2.07216E+03 -8.87114E+03
  7.06518E+03 -3.42694E+03  7.55783E+03  3.65735E+03  1.68536E+03  7.08770E+03 -1.17032E+03  6.61356E+03
 -3.74711E+03  3.90231E+03 -2.41577E+03  1.34164E+03 -1.35520E+03  9.10653E+02 -2.01777E+03  3.00860E+03
 -4.03574E+03  4.95982E+03 -8.69266E+03  4.52170E+03 -1.32186E+04  5.06898E+02 -1.48869E+04 -8.26888E+03
 -7.70177E+03 -1.80567E+04  3.01992E+03 -2.08122E+04  1.34046E+04 -1.58855E+04  1.91094E+04 -5.40059E+03
  1.89959E+04  4.87660E+03  1.16979E+04  1.28660E+04  1.77461E+03  1.34763E+04 -5.32898E+03  1.01943E+04
 -7.96039E+03  3.38418E+03 -4.90250E+03 -2.48343E+03 -1.52555E+03 -2.01953E+03 -5.65030E+02 -4.68632E+01
 -1.75021E+03  9.01503E+01 -3.24813E+03 -4.83312E+02 -1.13635E+03 -3.34304E+03  2.33722E+02 -5.55513E+03
  6.16454E+03 -4.91580E+03  8.60654E+03 -9.10602E+01  9.54731E+03  7.40876E+03  2.76990E+03  1.37653E+04
 -6.00433E+03  1.57856E+04 -1.62942E+04  9.85472E+03 -1.83036E+04 -1.11684E+03 -1.39004E+04 -1.04433E+04
 -5.35117E+03 -1.52748E+04  3.55488E+03 -1.44158E+04  9.64379E+03 -7.84198E+03  9.50038E+03 -5.29250E+02
  5.16122E+03  4.94646E+03 -3.65163E+02  4.62658E+03 -3.52967E+03  3.69920E+01  3.97928E+02 -3.11379E+03
  4.43758E+03 -2.11320E+03  6.59861E+03  1.37839E+03  3.82092E+03  5.93922E+03  4.70210E+02  8.39909E+03
 -5.57906E+03  7.05694E+03 -1.02631E+04  9.36757E+02 -8.75342E+03 -7.46340E+03 -2.48607E+03 -1.24760E+04
  7.49645E+03 -1.03191E+04  1.17259E+04 -3.12781E+03  1.14487E+04  2.58813E+03  7.02420E+03  1.01914E+04
  4.22090E+02  1.02774E+04 -4.13760E+03  7.55322E+03 -7.09755E+03  4.74889E+03 -5.47112E+03  1.18154E+03
 -2.53325E+03 -1.59566E+03 -2.62150E+03  1.55001E+03 -3.82892E+03  1.52838E+03 -6.39289E+03 -2.18786E+03
 -8.32549E+03 -6.18664E+03 -2.41314E+03 -9.55449E+03  4.70529E+03 -1.07505E+04  9.27647E+03 -5.12157E+03
  9.77050E+03  3.08805E+02  5.66984E+03  6.52298E+03 -2.46567E+02  9.44200E+03 -7.93189E+03  6.46943E+03
