 $NMID ID='MM_0lb_SNR400_14hz_g40_67.RAW', FMTDAT='(8E13.5)'
 TRAMP=1., VOLUME=1. $END
  3.09935E+05 -2.98710E+02  3.37406E+05  2.50704E+05  8.47839E+04  3.37770E+05 -1.32424E+05  2.50507E+05
 -1.89622E+05  8.26171E+04 -1.11854E+05 -3.23111E+04  1.05330E+03 -5.06044E+04  5.42213E+04 -1.68460E+02
  3.47206E+04  5.25538E+04 -1.63708E+04  7.57920E+04 -6.05713E+04  6.31000E+04 -8.32900E+04  3.19092E+04
 -8.03479E+04 -1.15218E+04 -5.71219E+04 -5.09153E+04 -1.54033E+04 -6.91918E+04  2.72948E+04 -4.53324E+04
  3.92834E+04  3.48556E+03  1.60364E+04  4.77273E+04 -3.36844E+04  4.69309E+04 -6.58474E+04 -5.62911E+02
 -5.29172E+04 -5.64026E+04 -6.89145E+03 -7.61651E+04  3.31511E+04 -5.47579E+04  4.72596E+04 -1.67713E+04
  4.27016E+04  1.15013E+04  3.09777E+04  2.56654E+04  1.55246E+04  2.90445E+04 -5.04913E+03  2.72277E+04
 -2.14722E+04  1.19361E+04 -1.85473E+04 -5.10850E+03  5.44763E+03 -7.74340E+03  2.20934E+04  1.16764E+04
  7.35238E+03  3.49783E+04 -3.16366E+04  3.49912E+04 -6.24889E+04  2.52352E+03 -5.64600E+04 -4.27759E+04
 -1.22388E+04 -6.29349E+04  3.96616E+04 -4.47927E+04  5.78976E+04 -2.15606E+03  3.38928E+04  3.15014E+04
 -6.47283E+03  3.51848E+04 -2.95441E+04  1.54542E+04 -3.01004E+04 -4.81802E+03 -1.58718E+04 -1.05585E+04
 -8.30334E+03 -1.27931E+04 -2.67939E+01 -1.76985E+04  7.64450E+03 -2.32409E+04  1.49895E+04 -1.32147E+04
  1.17678E+04  4.65602E+03 -8.11856E+03  1.25533E+04 -2.10108E+04 -4.18681E+03 -8.17762E+03 -3.31896E+04
  2.24438E+04 -4.29644E+04  4.73563E+04 -1.95430E+04  4.45969E+04  1.92973E+04  1.55230E+04  4.30617E+04
 -1.59382E+04  3.23306E+04 -2.49325E+04  1.57706E+03 -9.47505E+03 -2.72853E+04  2.10724E+04 -3.36968E+04
  4.02509E+04 -8.30519E+03  3.55776E+04  2.38492E+04  1.77555E+04  4.53995E+04 -7.71271E+03  4.86531E+04
 -3.02141E+04  3.24043E+04 -4.11458E+04  9.12294E+03 -4.11069E+04 -1.58787E+04 -2.24240E+04 -3.64718E+04
  7.78580E+03 -3.68052E+04  3.03908E+04 -1.36571E+04  2.82524E+04  1.06463E+04  3.68858E+03  1.84599E+04
 -1.35386E+04  8.14255E+03 -1.05683E+04 -7.79312E+03  5.81382E+03 -1.00787E+04  1.78635E+04  6.32062E+03
  1.31666E+04  2.19563E+04 -5.26908E+03  2.45583E+04 -2.21676E+04  1.11623E+04 -2.74697E+04 -5.24753E+03
 -1.97251E+04 -1.66785E+04 -7.68356E+03 -1.91620E+04  3.96715E+03 -1.83978E+04  1.50441E+04 -1.70438E+04
  2.52016E+04 -1.24527E+04  3.15595E+04  2.56659E+03  2.26669E+04  1.89563E+04  3.75832E+03  3.62590E+04
 -1.75841E+04  2.96406E+04 -2.75551E+04  1.01714E+04 -2.07060E+04 -1.11316E+04 -3.93680E+03 -1.30976E+04
  1.80531E+03 -3.37413E+03 -3.89210E+03  5.62920E+03 -1.49950E+04  5.22557E+03 -1.64703E+04 -6.36334E+03
 -9.98403E+03 -1.81960E+04  4.59846E+03 -2.23512E+04  1.49921E+04 -1.61839E+04  1.70307E+04 -1.82440E+03
  1.14242E+04  1.28587E+04 -9.98498E+02  1.79245E+04 -1.23814E+04  1.04410E+04 -1.83254E+04 -3.64215E+03
 -1.28568E+04 -1.64331E+04 -1.98351E+03 -2.18243E+04  1.02717E+04 -1.86913E+04  1.88951E+04 -9.04760E+03
  1.70212E+04  6.09354E+02  1.24072E+04  4.48020E+03  6.45509E+03  1.31467E+03  9.52955E+03 -9.32560E+02
  1.66257E+04  3.16627E+03  1.79862E+04  1.49884E+04  1.15866E+04  2.89753E+04 -2.57793E+03  3.24274E+04
 -1.90020E+04  2.56916E+04 -3.03169E+04  1.28581E+04 -3.14281E+04 -2.41033E+03 -2.61994E+04 -1.73015E+04
 -1.13520E+04 -2.60880E+04  9.27507E+03 -2.36714E+04  2.07607E+04 -1.24940E+04  1.88373E+04  5.16519E+03
  6.68798E+03  1.37548E+04 -9.18897E+03  1.21302E+04 -1.50999E+04  2.68155E+03 -1.25917E+04 -9.46314E+03
 -5.40426E+02 -1.51288E+04  7.62944E+03 -1.03198E+04  9.89374E+03 -1.16855E+03  2.14892E+03  6.17214E+03
 -6.66009E+03  2.71964E+03 -5.80576E+03 -5.53927E+03 -3.98925E+02 -1.36284E+04  9.16987E+03 -1.29243E+04
  1.62600E+04 -6.44510E+03  1.67153E+04  2.90791E+03  1.42533E+04  1.24203E+04  6.61363E+03  1.94411E+04
 -3.21247E+03  2.03765E+04 -1.32842E+04  1.38001E+04 -1.43273E+04  3.80816E+03 -1.11135E+04 -3.36109E+03
 -5.46690E+03 -4.61363E+03 -1.13712E+03  1.06705E+03 -2.31497E+03  2.26839E+03 -4.93907E+03  4.05541E+03
 -1.01532E+04 -9.76808E+02 -1.08954E+04 -9.05157E+03 -4.46390E+03 -1.42026E+04  4.35913E+03 -1.07125E+04
  9.23998E+03 -4.39769E+03  6.43146E+03  2.83917E+03  5.51677E+01  4.29243E+03 -5.40576E+03  1.15647E+02
 -4.81053E+03 -6.48269E+03 -1.46785E+03 -9.89711E+03  6.38537E+03 -1.10485E+04  1.30686E+04 -5.54032E+03
  1.62058E+04  1.05344E+03  1.12528E+04  8.60011E+03  2.29444E+03  1.17700E+04 -6.56625E+03  9.99768E+03
 -9.11159E+03  4.42884E+03 -4.38843E+03 -1.88629E+03  1.52130E+03 -2.69606E+03  5.89415E+03 -1.12953E+03
  4.63351E+03  4.38981E+03  1.13715E+03  8.37499E+03 -6.23560E+03  7.98559E+03 -1.06990E+04  2.43716E+03
 -6.57005E+03 -5.60622E+03  4.65308E+02 -8.87085E+03  5.22245E+03 -4.96429E+03  5.24360E+03  1.92933E+03
  8.48072E+02  5.68858E+03 -5.62347E+03  6.96867E+03 -8.06102E+03  3.43026E+03 -7.10256E+03 -2.77768E+03
 -4.54529E+03 -9.45854E+03  1.94807E+03 -1.06803E+04  9.00029E+03 -6.95284E+03  1.00227E+04  1.58972E+03
  6.58191E+03  8.17446E+03 -6.02912E+02  1.00207E+04 -6.86433E+03  6.05427E+03 -8.05047E+03 -6.00353E+02
 -6.91165E+03 -6.95600E+03 -1.56707E+03 -7.30156E+03  3.81088E+03 -6.89266E+03  4.36906E+03 -2.81230E+03
  3.42057E+03  9.20811E+02 -3.84188E+02  1.90843E+03  1.87216E+02 -1.14593E+03  4.45815E+02 -3.84276E+03
  6.41109E+03 -2.28717E+03  8.98721E+03  8.99070E+02  8.77720E+03  4.85681E+03  6.66133E+03  1.10374E+04
 -2.10145E+03  1.32994E+04 -1.16271E+04  1.00904E+04 -1.51109E+04  1.66658E+03 -1.20633E+04 -5.15458E+03
 -5.80403E+03 -9.61870E+03 -3.22049E+02 -8.15247E+03  2.71680E+03 -4.08989E+03  3.07955E+03 -2.98748E+03
  1.89711E+03 -2.23956E+03  2.52089E+03 -2.52421E+03  4.25443E+03 -2.49049E+03  4.34068E+03 -3.28224E+01
  6.46113E+03  1.27767E+03  2.31267E+03  5.59665E+03 -1.25895E+03  5.46850E+03 -6.06575E+03  3.79006E+03
 -7.84912E+03 -1.25500E+03 -4.43573E+03 -5.98980E+03  9.96667E+01 -8.24498E+03  4.53237E+03 -8.92041E+03
  8.92099E+03 -4.90028E+03  1.03723E+04  9.19715E+02  7.38106E+03  6.97828E+03  1.98005E+03  9.85193E+03
 -4.26813E+03  8.53772E+03 -5.58847E+03  3.44363E+03 -3.50851E+03 -1.01823E+03 -1.60306E+03 -7.15229E+02
 -7.79465E+02  4.88793E+02 -1.49360E+03  1.74312E+03 -3.04922E+03  2.02237E+03 -5.91250E+03 -1.08604E+03
 -3.35556E+03 -5.92094E+03  8.20099E+02 -7.80085E+03  4.42702E+03 -7.42820E+03  6.77698E+03 -1.50088E+03
  7.50026E+03  4.00179E+03  3.47753E+03  5.48818E+03 -1.21039E+03  7.76084E+03 -5.12889E+03  4.47613E+03
 -6.83063E+03  1.05178E+02 -5.59088E+03 -3.89273E+03 -9.22357E+02 -6.37656E+03  2.78012E+03 -5.07932E+03
  4.38787E+03 -1.11717E+03  3.33366E+03  6.72877E+02  7.90884E+02  2.44937E+03  4.53944E+02  9.07579E+02
  8.31126E+02  1.17090E+03  2.10430E+03  1.34043E+03  1.64047E+03  2.83950E+03  1.77694E+03  3.93053E+03
 -1.70679E+03  5.30013E+03 -5.74564E+03  6.75364E+03 -7.02873E+03  1.52456E+03 -7.78658E+03 -1.71334E+03
 -3.70320E+03 -6.81658E+03  1.04138E+03 -8.49917E+03  3.58642E+03 -4.90417E+03  5.40574E+03 -1.75736E+03
  4.99575E+03  2.66802E+03  1.08105E+03  4.24235E+03 -1.04808E+03  2.68039E+03 -3.14645E+03 -4.75743E+02
 -8.26180E+02 -2.92841E+03  2.34518E+03 -3.29210E+03  2.96689E+03 -1.43120E+03  3.05138E+03  6.70077E+02
  1.70564E+03  8.83616E+02  7.15814E+02 -2.08221E+02 -3.31471E+02  1.28777E+03  1.01748E+03 -2.74579E+02
  8.14887E+02 -6.32455E+02  3.24208E+03  8.08897E+02  1.57952E+03  4.34377E+03 -1.39435E+03  4.83896E+03
 -3.31096E+03  3.39013E+03 -4.09968E+03  8.87211E+02 -3.68809E+03 -1.24496E+03 -1.01757E+03 -2.18915E+03
  4.15831E+02 -2.65771E+03  2.19718E+03 -1.23903E+03  1.77572E+03  2.03409E+03 -4.20243E+02  2.91522E+03
 -3.17826E+03  1.59312E+03 -3.13617E+03 -2.16726E+03 -1.59599E+03 -3.92178E+03  5.97761E+02 -4.07640E+03
  2.10538E+03 -2.32466E+03  2.53679E+03  1.88146E+02  2.30486E+03  9.85857E+02 -6.58746E+01  2.50596E+03
 -1.38010E+03  2.31646E+02 -1.07313E+03 -7.89364E+02  1.07394E+03 -2.51652E+03  3.76752E+03 -2.39720E+03
  3.58637E+03 -6.67877E+02  4.80022E+03  1.96991E+03  1.59871E+03  4.18133E+03 -1.37928E+03  4.29702E+03
 -3.45916E+03  1.45424E+03 -3.44348E+03 -5.43036E+02 -2.45552E+03 -2.91872E+03  1.18222E+03 -1.27569E+03
  3.11199E+03 -1.32536E+03  1.83534E+03  8.77855E+02  2.08549E+01  1.82165E+03  3.43531E+02  2.46526E+03
 -7.31668E+02  1.55025E+03 -1.92104E+03  8.15468E+02  2.32840E+02  1.08146E+03 -9.30860E+02  1.29342E+03
 -1.01655E+03  1.76697E+03 -2.98547E+03  5.43729E+02 -3.59849E+03  9.22517E+01 -4.08247E+03 -2.38017E+03
 -2.20464E+03 -4.89368E+03  1.00417E+03 -6.61755E+03  3.23381E+03 -5.23675E+03  6.15344E+03 -1.22199E+03
  5.54561E+03  6.31940E+02  3.40950E+03  3.81287E+03 -1.78035E+02  3.78676E+03 -1.82964E+03  2.94565E+03
 -1.83713E+03  9.09406E+02 -1.41327E+03 -1.11901E+03 -8.84715E+02 -2.26624E+02 -6.12957E+02  7.28199E+01
 -1.21411E+03  2.76532E+02 -1.25114E+03 -8.31073E+00 -3.48951E+02 -9.65678E+02 -2.28140E+01 -1.52848E+03
  1.61014E+03 -1.88631E+03  2.55277E+03  6.19675E+02  2.25591E+03  2.50627E+03  2.07056E+02  3.73563E+03
 -1.88575E+03  5.07144E+03 -3.86603E+03  2.78846E+03 -4.91994E+03 -1.02334E+03 -4.15146E+03 -2.73798E+03
 -1.22241E+03 -3.59438E+03  5.81438E+02 -3.78253E+03  2.17594E+03 -1.63071E+03  2.29601E+03  1.43242E+02
  1.81680E+03  1.24449E+03  2.68885E+02  5.40008E+02 -9.26717E+02 -2.49683E+02  1.81671E+02 -6.65475E+02
  1.26602E+03 -3.98156E+02  9.21095E+02  6.44188E+01  1.23125E+03  1.00684E+03  7.93970E+01  2.41179E+03
 -2.05572E+03  1.99013E+03 -2.21413E+03  7.90350E+01 -2.14318E+03 -1.46493E+03 -1.71951E+02 -2.58983E+03
  1.47092E+03 -2.38255E+03  2.67170E+03 -1.09465E+03  2.87458E+03 -1.75189E+01  1.89162E+03  2.48079E+03
  8.65089E+01  2.24254E+03 -5.70502E+02  1.82590E+03 -1.59784E+03  1.11552E+03 -7.94140E+02 -1.96968E+02
 -4.20154E+02  2.94506E+02 -1.49002E+03  5.33272E+02 -1.15138E+03  7.20638E+02 -2.01883E+03 -2.20551E+02
 -2.17998E+03 -7.52835E+02 -9.82671E+02 -1.70150E+03  1.16783E+03 -2.39113E+03  2.31388E+03 -1.32626E+03
  2.07630E+03  2.51292E+02  1.32748E+02  1.79546E+03 -6.52365E+02  2.32586E+03 -1.46581E+03  1.97015E+03
