 $NMID ID='MM_0lb_SNR400_14hz_g40_27.RAW', FMTDAT='(8E13.5)'
 TRAMP=1., VOLUME=1. $END
  3.10315E+05  7.34025E+01  3.37466E+05  2.51144E+05  8.45800E+04  3.37836E+05 -1.32867E+05  2.50768E+05
 -1.89871E+05  8.30195E+04 -1.11750E+05 -3.33608E+04  1.30534E+03 -5.08939E+04  5.34751E+04 -1.08696E+02
  3.58572E+04  5.28416E+04 -1.69103E+04  7.49556E+04 -6.02001E+04  6.38269E+04 -8.39615E+04  3.17120E+04
 -8.07174E+04 -1.09181E+04 -5.71052E+04 -5.12153E+04 -1.47866E+04 -6.94732E+04  2.69949E+04 -4.52386E+04
  3.95338E+04  3.61815E+03  1.61237E+04  4.76284E+04 -3.42896E+04  4.72311E+04 -6.60488E+04 -3.37261E+02
 -5.22085E+04 -5.61519E+04 -6.48004E+03 -7.64175E+04  3.30950E+04 -5.49739E+04  4.72048E+04 -1.70538E+04
  4.28498E+04  1.10757E+04  3.13433E+04  2.49039E+04  1.60538E+04  2.88785E+04 -5.08628E+03  2.71169E+04
 -2.20302E+04  1.25427E+04 -1.84336E+04 -4.73673E+03  4.76661E+03 -6.80765E+03  2.21636E+04  1.17307E+04
  7.19425E+03  3.50627E+04 -3.17162E+04  3.52785E+04 -6.26863E+04  1.99509E+03 -5.66899E+04 -4.22065E+04
 -1.21031E+04 -6.19242E+04  3.96203E+04 -4.44003E+04  5.77988E+04 -1.92027E+03  3.38012E+04  3.22013E+04
 -5.48956E+03  3.57880E+04 -2.97336E+04  1.47750E+04 -2.99127E+04 -4.60400E+03 -1.60465E+04 -1.08281E+04
 -7.67363E+03 -1.28262E+04 -1.14557E+03 -1.75847E+04  7.39408E+03 -2.31237E+04  1.49106E+04 -1.32211E+04
  1.15485E+04  5.08934E+03 -7.61403E+03  1.33709E+04 -2.10975E+04 -3.39236E+03 -8.51897E+03 -3.27523E+04
  2.23981E+04 -4.22737E+04  4.68900E+04 -1.98229E+04  4.49918E+04  1.87076E+04  1.52690E+04  4.33776E+04
 -1.64249E+04  3.30400E+04 -2.52027E+04  1.48179E+03 -9.75487E+03 -2.71767E+04  2.04276E+04 -3.37761E+04
  4.06014E+04 -9.32085E+03  3.49709E+04  2.36623E+04  1.75630E+04  4.54593E+04 -7.59386E+03  4.89888E+04
 -3.11009E+04  3.24735E+04 -4.04794E+04  9.68050E+03 -4.17023E+04 -1.66902E+04 -2.26859E+04 -3.66753E+04
  7.26857E+03 -3.68955E+04  3.12622E+04 -1.47236E+04  2.90089E+04  1.03130E+04  3.77379E+03  1.84312E+04
 -1.34199E+04  8.06187E+03 -1.04523E+04 -7.30835E+03  6.33943E+03 -9.96225E+03  1.75758E+04  6.42142E+03
  1.34001E+04  2.18431E+04 -6.21720E+03  2.52502E+04 -2.23205E+04  1.05314E+04 -2.71406E+04 -5.44610E+03
 -1.99891E+04 -1.67331E+04 -7.70311E+03 -1.99024E+04  4.27651E+03 -1.82192E+04  1.46289E+04 -1.70622E+04
  2.53168E+04 -1.30407E+04  3.23450E+04  3.08875E+03  2.33673E+04  1.89178E+04  4.57173E+03  3.56010E+04
 -1.79011E+04  2.95806E+04 -2.73762E+04  1.00745E+04 -2.04731E+04 -9.82131E+03 -4.89090E+03 -1.37500E+04
  1.89872E+03 -3.20720E+03 -4.39060E+03  6.86927E+03 -1.55249E+04  5.48617E+03 -1.61143E+04 -6.98473E+03
 -9.43109E+03 -1.79938E+04  5.05241E+03 -2.25132E+04  1.50986E+04 -1.59583E+04  1.76077E+04 -1.50317E+03
  1.11288E+04  1.29736E+04 -7.59830E+02  1.85653E+04 -1.23673E+04  1.00372E+04 -1.80628E+04 -3.88810E+03
 -1.33286E+04 -1.68275E+04 -1.48339E+03 -2.18158E+04  9.76909E+03 -1.79343E+04  1.83853E+04 -8.37263E+03
  1.75537E+04  5.00023E+02  1.24398E+04  3.94918E+03  6.11608E+03  7.31835E+02  9.18207E+03 -1.70687E+03
  1.64597E+04  2.90740E+03  1.84402E+04  1.44787E+04  1.15402E+04  2.96826E+04 -2.77873E+03  3.27011E+04
 -1.92829E+04  2.62055E+04 -2.99464E+04  1.30165E+04 -3.18878E+04 -1.96067E+03 -2.61895E+04 -1.82045E+04
 -1.15594E+04 -2.61209E+04  8.67485E+03 -2.36913E+04  2.03182E+04 -1.26941E+04  1.85579E+04  4.81314E+03
  7.60373E+03  1.36390E+04 -8.13458E+03  1.23292E+04 -1.50184E+04  2.80324E+03 -1.25252E+04 -9.45745E+03
 -5.70668E+02 -1.48176E+04  7.24375E+03 -1.10033E+04  9.03452E+03 -8.35112E+02  1.55545E+03  6.35679E+03
 -6.38471E+03  2.33572E+03 -5.65052E+03 -5.50126E+03 -2.55252E+02 -1.28332E+04  9.05897E+03 -1.41871E+04
  1.56345E+04 -6.63091E+03  1.68659E+04  3.34559E+03  1.45746E+04  1.24339E+04  6.36029E+03  1.90097E+04
 -2.15604E+03  2.08219E+04 -1.34269E+04  1.28798E+04 -1.53388E+04  2.97709E+03 -1.04507E+04 -2.70802E+03
 -4.69916E+03 -4.17929E+03 -1.13373E+03  9.88890E+02 -2.54975E+03  2.33661E+03 -5.03145E+03  4.07770E+03
 -9.58310E+03 -5.47328E+02 -1.08461E+04 -7.69019E+03 -4.68916E+03 -1.36832E+04  4.98656E+03 -1.09548E+04
  8.90481E+03 -4.77242E+03  6.48652E+03  2.43267E+03  2.83685E+01  4.60755E+03 -5.07315E+03 -2.34766E+02
 -4.82640E+03 -6.37714E+03 -1.45346E+03 -9.99715E+03  5.74559E+03 -1.07939E+04  1.34795E+04 -5.42647E+03
  1.54141E+04  1.48930E+03  1.11111E+04  9.22987E+03  1.86233E+03  1.24085E+04 -6.81885E+03  1.02713E+04
 -8.49211E+03  3.36243E+03 -4.67310E+03 -2.44406E+03  1.33376E+03 -2.73921E+03  5.50295E+03 -1.26496E+03
  4.68463E+03  4.60074E+03  1.11923E+03  7.99013E+03 -6.19554E+03  8.48394E+03 -1.05452E+04  2.23513E+03
 -6.77941E+03 -5.33912E+03 -1.93016E+02 -8.13987E+03  4.93496E+03 -4.28930E+03  5.47694E+03  1.45295E+03
  7.98931E+02  5.38594E+03 -5.06184E+03  6.67086E+03 -7.75284E+03  3.56278E+03 -7.95592E+03 -2.40251E+03
 -4.64046E+03 -9.61053E+03  2.07905E+03 -1.06678E+04  9.05693E+03 -6.84255E+03  9.82405E+03  1.41138E+03
  6.13090E+03  7.74939E+03 -2.00022E+02  9.93869E+03 -7.34713E+03  6.26915E+03 -8.53961E+03 -5.30057E+02
 -7.65280E+03 -6.97324E+03 -1.58345E+03 -7.70796E+03  3.77892E+03 -6.49915E+03  4.24639E+03 -2.67930E+03
  2.69445E+03  1.11025E+03 -1.13564E+02  9.83114E+02  2.55818E+02 -1.58042E+03  9.68128E+02 -3.89138E+03
  6.46970E+03 -2.15124E+03  8.26571E+03  3.60593E+02  8.82540E+03  5.29324E+03  6.67226E+03  1.19846E+04
 -1.98000E+03  1.29712E+04 -1.19967E+04  9.27576E+03 -1.48602E+04  2.14010E+03 -1.16508E+04 -4.70034E+03
 -5.78859E+03 -9.97311E+03 -6.73653E+02 -8.16646E+03  3.53877E+03 -4.35941E+03  2.99307E+03 -3.28217E+03
  2.17893E+03 -2.29952E+03  2.80620E+03 -2.36522E+03  4.92423E+03 -1.94512E+03  4.82392E+03 -5.97824E+00
  6.32147E+03  1.99652E+03  2.57331E+03  5.51500E+03 -1.07246E+03  5.52576E+03 -6.65643E+03  4.18683E+03
 -8.29012E+03 -1.56415E+03 -4.16513E+03 -5.47873E+03 -2.54909E+02 -8.41389E+03  5.14739E+03 -8.59403E+03
  9.11594E+03 -4.58262E+03  1.09325E+04  6.51492E+02  7.28810E+03  7.28300E+03  1.77237E+03  9.49765E+03
 -3.32063E+03  8.44047E+03 -5.20949E+03  2.38644E+03 -3.71232E+03 -1.13128E+03 -1.75274E+03 -1.02125E+03
 -8.00114E+02 -1.57669E+01 -1.17717E+03  2.16180E+03 -4.24845E+03  2.22566E+03 -5.89247E+03 -1.02427E+03
 -3.30154E+03 -5.59524E+03  7.51547E+02 -7.92124E+03  4.43891E+03 -7.42969E+03  6.61256E+03 -1.96315E+03
  6.73467E+03  4.12772E+03  3.34136E+03  6.37129E+03 -1.65103E+03  7.79177E+03 -5.10449E+03  5.04008E+03
 -7.00274E+03  6.04254E+01 -5.51921E+03 -4.73751E+03 -6.84157E+02 -6.39141E+03  3.11072E+03 -3.77995E+03
  4.91910E+03 -1.80556E+03  3.21826E+03  9.47986E+02  4.63548E+02  2.09060E+03  1.06341E+03  6.56765E+02
  2.25655E+03  3.13961E+02  2.21818E+03  8.70905E+02  2.31602E+03  2.98374E+03  1.40563E+03  3.67914E+03
 -2.03364E+03  5.20811E+03 -4.71055E+03  5.81970E+03 -6.72300E+03  1.64816E+03 -7.05247E+03 -2.26729E+03
 -3.36312E+03 -6.87254E+03  1.43915E+03 -7.71026E+03  4.36444E+03 -4.79611E+03  6.07932E+03 -2.07835E+03
  3.93049E+03  3.15651E+03  6.22950E+02  3.63751E+03 -2.41624E+03  2.84845E+03 -2.57640E+03 -6.64540E+02
 -1.02930E+03 -2.78082E+03  1.91039E+03 -3.07465E+03  3.13230E+03 -1.65441E+03  2.45845E+03  1.57421E+02
  1.72090E+03  9.12842E+02  1.07678E+03  5.97080E+02  2.27532E+01  1.70962E+03  1.09173E+03 -5.01862E+02
  6.47736E+02  3.67858E+02  2.80946E+03  1.50951E+03  1.60442E+03  4.02528E+03  1.81898E+01  4.78274E+03
 -3.03962E+03  2.54089E+03 -4.23684E+03  1.31010E+03 -3.67995E+03 -2.00303E+03 -6.60954E+02 -1.84714E+03
  2.49141E+02 -2.09874E+03  1.31848E+03 -7.36854E+02  1.67585E+03  2.01659E+03 -1.43269E+03  2.45377E+03
 -2.11419E+03  8.76030E+02 -3.04914E+03 -2.06806E+03 -1.64872E+03 -3.40883E+03  5.40062E+01 -4.06131E+03
  1.74958E+03 -2.34149E+03  2.42089E+03  4.61686E+02  2.33773E+03  6.63789E+02  7.96865E+02  1.86788E+03
 -6.88803E+02  4.85934E+02 -1.98326E+03 -8.86183E+02  1.60371E+03 -2.39209E+03  2.39317E+03 -2.58335E+03
  4.27371E+03  8.13979E+02  4.45175E+03  2.51890E+03  1.63788E+03  3.93749E+03 -8.95505E+02  3.79518E+03
 -3.71856E+03  2.03842E+03 -3.25159E+03 -3.48219E+02 -1.63890E+03 -2.74438E+03  1.38846E+03 -1.93117E+03
  2.75815E+03 -1.50139E+03  1.83882E+03  1.56227E+03  7.16162E+02  2.32285E+03 -8.64351E+01  2.44910E+03
 -8.45808E+02  2.16677E+03 -1.18650E+03  5.00490E+02  3.62517E+01  5.94589E+02 -6.49888E+02  1.33079E+03
 -1.48009E+03  2.11380E+03 -2.80074E+03  5.87959E+02 -4.16332E+03 -5.02441E+02 -5.05759E+03 -2.51173E+03
 -2.30786E+03 -5.24340E+03  1.87745E+03 -6.76336E+03  2.84658E+03 -4.89532E+03  6.06585E+03 -2.28221E+03
  5.16555E+03  4.16874E+02  2.75685E+03  3.20121E+03  8.17529E+01  3.62272E+03 -1.77034E+03  2.74237E+03
 -2.51075E+03  1.21861E+03 -1.37000E+03 -5.77368E+02 -7.17467E+02 -1.67864E+02 -3.42054E+02  5.49754E+02
 -1.60911E+03  1.90890E+02 -1.55644E+03  7.97155E+01 -3.29363E+02 -1.48755E+03  1.39472E+02 -1.77918E+03
  2.66325E+03 -1.85341E+03  2.11544E+03 -2.81970E+01  3.22599E+03  2.23783E+03 -2.70312E+02  3.50509E+03
 -1.70526E+03  4.86843E+03 -4.30558E+03  2.74929E+03 -4.97365E+03 -5.41470E+02 -3.41942E+03 -3.13717E+03
 -2.14002E+03 -3.53408E+03  9.96332E+02 -4.02251E+03  2.21173E+03 -1.73979E+03  1.77436E+03  4.94187E+02
  1.56538E+03  3.83296E+02  1.81772E+01  9.48583E+02 -7.83828E+02  5.34819E+02 -5.60838E+02 -7.09743E+02
  1.40055E+03 -1.14849E+03  1.28274E+03  8.75235E+02  1.30549E+03  1.58999E+03  4.25441E+02  1.54521E+03
 -1.61475E+03  1.45476E+03 -2.61611E+03  1.26313E+02 -2.20873E+03 -1.53058E+03  6.89472E+01 -2.21789E+03
  2.03059E+03 -2.93426E+03  2.28180E+03 -9.61480E+02  2.91205E+03 -3.54423E+02  1.18019E+03  2.97719E+03
  1.17463E+03  2.19669E+03 -1.19681E+03  1.78974E+03 -1.24533E+03  1.66050E+03 -7.12532E+02  8.15721E+02
 -7.17686E+02  3.16344E+02 -1.43608E+03  7.85060E+02 -5.65317E+02  3.07119E+02 -1.65462E+03 -4.73804E+02
 -2.06870E+03 -1.26514E+03 -7.38781E+02 -2.32408E+03  1.11626E+03 -3.38213E+03  1.95209E+03 -1.88747E+03
  1.92749E+03  5.68801E+02  2.55076E+01  1.47109E+03 -4.50294E+01  2.78260E+03 -1.18686E+03  1.28151E+03
