 $NMID ID='MM_0lb_SNR400_12hz_g40_65.RAW', FMTDAT='(8E13.5)'
 TRAMP=1., VOLUME=1. $END
  3.09500E+05  4.64162E+02  3.37380E+05  2.50464E+05  8.53513E+04  3.37670E+05 -1.32602E+05  2.51277E+05
 -1.90408E+05  8.34151E+04 -1.11994E+05 -3.18724E+04  1.12746E+03 -5.12270E+04  5.43004E+04 -3.15499E+02
  3.53237E+04  5.27314E+04 -1.65462E+04  7.60466E+04 -6.05302E+04  6.37979E+04 -8.42318E+04  3.25678E+04
 -8.11072E+04 -1.14902E+04 -5.69991E+04 -5.13148E+04 -1.51404E+04 -7.02124E+04  2.70773E+04 -4.55685E+04
  3.95523E+04  3.93187E+03  1.60641E+04  4.72348E+04 -3.36759E+04  4.78048E+04 -6.72155E+04 -8.77908E+01
 -5.35437E+04 -5.70484E+04 -6.40895E+03 -7.72403E+04  3.37745E+04 -5.48289E+04  4.82444E+04 -1.72692E+04
  4.39051E+04  1.12853E+04  3.16716E+04  2.64265E+04  1.56049E+04  2.99821E+04 -4.96504E+03  2.68557E+04
 -2.21385E+04  1.22838E+04 -1.85720E+04 -4.83824E+03  5.92862E+03 -7.00191E+03  2.27720E+04  1.28910E+04
  7.65580E+03  3.56311E+04 -3.20950E+04  3.58114E+04 -6.39108E+04  1.60076E+03 -5.72653E+04 -4.33394E+04
 -1.26975E+04 -6.35472E+04  4.02439E+04 -4.53135E+04  5.94247E+04 -1.99939E+03  3.45871E+04  3.28223E+04
 -5.77542E+03  3.60733E+04 -3.05513E+04  1.68852E+04 -3.10535E+04 -4.53203E+03 -1.69329E+04 -1.05699E+04
 -9.11239E+03 -1.33371E+04 -7.27837E+02 -1.85157E+04  7.72998E+03 -2.29513E+04  1.58591E+04 -1.39694E+04
  1.12879E+04  5.02993E+03 -7.93721E+03  1.30169E+04 -2.14568E+04 -4.80522E+03 -8.70304E+03 -3.42148E+04
  2.32322E+04 -4.37968E+04  4.86240E+04 -1.92214E+04  4.59797E+04  1.96145E+04  1.54894E+04  4.45705E+04
 -1.57670E+04  3.42754E+04 -2.56354E+04  2.20604E+03 -1.01642E+04 -2.82026E+04  2.05369E+04 -3.42003E+04
  4.21292E+04 -9.65385E+03  3.63379E+04  2.42057E+04  1.88584E+04  4.76953E+04 -8.04175E+03  5.11842E+04
 -3.25491E+04  3.47434E+04 -4.32029E+04  9.73049E+03 -4.33209E+04 -1.73998E+04 -2.42295E+04 -3.87661E+04
  7.68687E+03 -3.86670E+04  3.21537E+04 -1.51364E+04  2.99142E+04  1.06275E+04  4.66863E+03  1.90649E+04
 -1.33937E+04  8.32755E+03 -1.08574E+04 -7.44376E+03  5.59566E+03 -1.04942E+04  1.84851E+04  6.07078E+03
  1.31893E+04  2.20747E+04 -5.60871E+03  2.55969E+04 -2.28812E+04  1.15639E+04 -2.80430E+04 -4.85381E+03
 -2.12321E+04 -1.78208E+04 -9.28912E+03 -2.10267E+04  4.13368E+03 -2.09696E+04  1.65635E+04 -1.93488E+04
  2.71851E+04 -1.33272E+04  3.34940E+04  2.83364E+03  2.50463E+04  2.12379E+04  4.86309E+03  3.81879E+04
 -1.79150E+04  3.11331E+04 -2.87783E+04  1.12320E+04 -2.14109E+04 -1.06952E+04 -4.23708E+03 -1.29185E+04
  1.70306E+03 -3.28950E+03 -6.15254E+03  7.21053E+03 -1.73080E+04  4.89626E+03 -1.68561E+04 -7.63607E+03
 -1.06105E+04 -1.96171E+04  5.39607E+03 -2.34088E+04  1.61320E+04 -1.72091E+04  1.91316E+04 -1.79028E+03
  1.21284E+04  1.36049E+04 -1.45173E+03  1.91978E+04 -1.38967E+04  1.16845E+04 -2.00435E+04 -4.65005E+03
 -1.47670E+04 -1.79542E+04 -1.85600E+03 -2.36465E+04  1.10447E+04 -2.04508E+04  1.95943E+04 -9.82813E+03
  1.83799E+04 -1.88278E+01  1.35235E+04  4.99395E+03  6.74196E+03  1.08890E+03  9.70891E+03 -1.54445E+03
  1.80378E+04  3.04533E+03  2.04749E+04  1.55620E+04  1.35918E+04  3.23497E+04 -2.92835E+03  3.68977E+04
 -2.10925E+04  3.00996E+04 -3.41249E+04  1.48653E+04 -3.57329E+04 -2.61627E+03 -2.95807E+04 -2.07572E+04
 -1.21346E+04 -2.97756E+04  1.04845E+04 -2.70050E+04  2.29505E+04 -1.37094E+04  2.05194E+04  5.86852E+03
  7.61809E+03  1.60526E+04 -9.88599E+03  1.33261E+04 -1.69965E+04  3.10014E+03 -1.30346E+04 -1.08861E+04
 -8.44941E+01 -1.63548E+04  8.94931E+03 -1.27502E+04  1.13915E+04 -9.68241E+02  2.51247E+03  7.29136E+03
 -7.30807E+03  3.04372E+03 -6.32102E+03 -5.28371E+03 -6.26290E+02 -1.39255E+04  9.14365E+03 -1.58493E+04
  1.79558E+04 -7.82142E+03  1.93007E+04  3.22025E+03  1.79551E+04  1.41041E+04  8.19815E+03  2.19766E+04
 -3.57369E+03  2.41042E+04 -1.54322E+04  1.46145E+04 -1.75047E+04  2.61993E+03 -1.21996E+04 -3.87142E+03
 -5.77349E+03 -5.45600E+03 -1.52290E+03  7.53184E+02 -2.44906E+03  2.84606E+03 -5.78379E+03  4.97264E+03
 -1.09223E+04 -1.05324E+03 -1.15435E+04 -9.73420E+03 -4.53780E+03 -1.54278E+04  4.64257E+03 -1.20892E+04
  1.01289E+04 -5.29462E+03  7.48828E+03  3.45484E+03  1.30353E+02  4.90221E+03 -5.70467E+03 -5.22660E+02
 -5.79162E+03 -7.46197E+03 -3.18345E+02 -1.17971E+04  6.12118E+03 -1.22061E+04  1.54989E+04 -6.33373E+03
  1.84792E+04  1.30147E+03  1.34783E+04  1.09308E+04  2.29521E+03  1.38439E+04 -7.58256E+03  1.22254E+04
 -1.00322E+04  3.76460E+03 -5.04362E+03 -2.60242E+03  1.71329E+03 -3.45931E+03  7.32292E+03 -8.05767E+02
  6.55259E+03  4.71966E+03  1.19375E+03  9.66998E+03 -6.57325E+03  9.68063E+03 -1.22664E+04  2.49623E+03
 -7.79694E+03 -6.76980E+03  3.27266E+02 -9.87520E+03  6.39772E+03 -5.40956E+03  6.84864E+03  1.79362E+03
  1.11817E+03  6.88008E+03 -7.19332E+03  7.81124E+03 -9.48176E+03  3.62814E+03 -8.81063E+03 -2.11913E+03
 -4.94589E+03 -1.10729E+04  2.34512E+03 -1.25287E+04  1.09731E+04 -7.93822E+03  1.20716E+04  2.08810E+03
  6.74387E+03  9.14809E+03 -8.95519E+02  1.19937E+04 -8.69727E+03  7.01026E+03 -9.50405E+03 -8.21474E+02
 -7.67847E+03 -7.84221E+03 -9.05943E+02 -8.81441E+03  4.10980E+03 -7.54829E+03  5.53832E+03 -3.93186E+03
  3.78647E+03  1.59158E+03 -7.31116E+02  1.71490E+03 -1.57187E+02 -2.24486E+03  1.86674E+03 -4.94421E+03
  7.26654E+03 -2.94527E+03  1.16987E+04  9.93559E+02  1.12804E+04  6.91878E+03  7.99607E+03  1.46114E+04
 -3.07293E+03  1.71806E+04 -1.36317E+04  1.26670E+04 -1.76208E+04  2.07415E+03 -1.37423E+04 -6.37667E+03
 -7.52301E+03 -1.14538E+04  5.40160E+02 -1.02232E+04  3.67644E+03 -4.78511E+03  3.60092E+03 -3.42984E+03
  2.56205E+03 -2.29659E+03  2.58545E+03 -2.84209E+03  4.35747E+03 -2.63837E+03  5.54883E+03  2.97398E+01
  7.66722E+03  1.40230E+03  3.60463E+03  6.57202E+03 -1.76100E+03  7.84476E+03 -7.23700E+03  5.97947E+03
 -1.03250E+04 -1.54401E+03 -6.10041E+03 -7.25545E+03 -6.94388E+02 -1.07241E+04  5.71533E+03 -1.04845E+04
  1.11951E+04 -6.17881E+03  1.38037E+04  1.22648E+03  8.98831E+03  9.38188E+03  2.12417E+03  1.16065E+04
 -5.34985E+03  9.87846E+03 -7.23366E+03  3.57730E+03 -4.63752E+03 -1.26406E+03 -1.82921E+03 -1.38450E+03
 -5.69338E+02  4.35520E+02 -5.87024E+02  2.74708E+03 -3.89565E+03  2.30054E+03 -7.63552E+03 -1.03780E+03
 -3.45450E+03 -6.84137E+03  1.96333E+02 -9.86896E+03  6.12210E+03 -9.25284E+03  9.41800E+03 -2.95544E+03
  9.67936E+03  4.69021E+03  4.53414E+03  9.06597E+03 -1.47838E+03  9.80741E+03 -7.39784E+03  6.12755E+03
 -8.89029E+03  3.60038E+02 -7.21180E+03 -5.26313E+03 -1.34555E+03 -8.46756E+03  3.71943E+03 -5.38601E+03
  5.89633E+03 -1.79123E+03  4.71961E+03  1.52485E+03  1.29518E+03  2.97601E+03  8.97558E+02  1.69764E+03
  2.21284E+03  5.61490E+02  2.20864E+03  8.03993E+02  3.24032E+03  3.78412E+03  2.71746E+03  5.30359E+03
 -1.71829E+03  7.41685E+03 -6.88784E+03  7.83028E+03 -9.50492E+03  2.24493E+03 -9.74254E+03 -3.25771E+03
 -4.08688E+03 -9.57197E+03  1.57470E+03 -1.09699E+04  4.82900E+03 -6.78197E+03  7.79418E+03 -7.05431E+02
  5.22805E+03  2.92596E+03  1.40904E+03  5.43504E+03 -3.11033E+03  2.74459E+03 -3.62280E+03 -4.77566E+02
 -2.00262E+03 -4.48553E+03  2.49917E+03 -4.52018E+03  4.07701E+03 -1.48064E+03  3.67045E+03  9.04296E+02
  2.50631E+03  2.09553E+03  1.04495E+03  4.04846E+02 -1.07314E+03  1.10123E+03  1.39915E+03 -2.27110E+02
  1.33030E+03 -1.34669E+02  4.29970E+03  1.40940E+03  1.60499E+03  5.28214E+03 -9.61020E+02  6.52827E+03
 -4.00595E+03  3.71388E+03 -5.41283E+03  9.94978E+02 -4.35634E+03 -1.85590E+03 -2.06672E+03 -3.30722E+03
  1.56920E+03 -3.29005E+03  2.48702E+03 -1.74926E+03  1.98884E+03  1.86239E+03 -7.79639E+02  3.18928E+03
 -3.85128E+03  1.43833E+03 -3.84559E+03 -2.50570E+03 -3.04216E+03 -5.02246E+03  5.73091E+02 -5.18961E+03
  2.53168E+03 -3.23494E+03  4.08898E+03 -4.45964E+02  3.08946E+03  1.44357E+03  6.98515E+02  2.28885E+03
 -1.82365E+03  6.60353E+02 -2.12825E+03 -1.38395E+03  1.22580E+03 -4.26683E+03  4.91614E+03 -2.51384E+03
  5.26443E+03  2.19794E+02  6.35721E+03  3.46413E+03  1.25430E+03  5.70006E+03 -2.30926E+03  5.62990E+03
 -5.20335E+03  2.35975E+03 -5.03711E+03 -7.98999E+02 -2.26147E+03 -3.33658E+03  1.09566E+03 -2.95815E+03
  3.79061E+03 -1.85464E+03  3.08506E+03  1.66014E+03  9.91764E+02  3.13584E+03  4.02954E+02  3.58287E+03
 -1.06099E+03  2.11113E+03 -1.48462E+03  9.52385E+02 -1.08196E+03  4.66909E+02 -9.00617E+02  5.43144E+02
 -1.61969E+03  1.98740E+03 -3.89023E+03  1.18818E+03 -5.68306E+03 -6.18821E+02 -6.68935E+03 -3.78524E+03
 -2.94756E+03 -7.54246E+03  1.79413E+03 -8.17212E+03  5.35542E+03 -7.14389E+03  8.93685E+03 -3.56097E+03
  7.43432E+03  1.56627E+03  4.43106E+03  4.91525E+03  2.19657E+02  5.43348E+03 -2.41799E+03  4.17332E+03
 -3.26594E+03  2.11980E+03 -1.89255E+03 -7.50221E+02 -1.01005E+03 -4.12984E+02 -2.02961E+02 -2.61187E+02
 -1.54822E+03  5.65827E+02 -1.45698E+03  5.63370E+02  2.03334E+02 -9.25828E+02 -6.58249E+02 -2.69805E+03
  2.42567E+03 -2.06736E+03  3.34445E+03  1.55713E+02  4.15169E+03  2.93356E+03  8.49081E+02  5.41637E+03
 -2.98348E+03  6.85477E+03 -5.94058E+03  3.73598E+03 -7.10140E+03 -6.57021E+02 -5.64482E+03 -4.41320E+03
 -2.95631E+03 -6.20596E+03  2.09067E+03 -5.40389E+03  3.31835E+03 -2.79814E+03  3.47492E+03 -4.66355E+02
  2.51966E+03  1.68739E+03  5.01146E+02  1.32846E+03 -9.93488E+02 -5.12194E+02 -7.14779E+01 -1.00518E+03
  1.12068E+03 -7.68292E+02  2.21176E+03  1.15924E+03  1.86143E+03  2.56308E+03  1.49909E+02  2.69518E+03
 -2.69337E+03  2.03447E+03 -2.89356E+03  5.69246E+01 -3.08309E+03 -2.51106E+03 -5.87812E+02 -4.08644E+03
  2.42995E+03 -3.80507E+03  4.16993E+03 -1.43499E+03  4.48604E+03  1.15059E+03  2.42887E+03  3.18563E+03
  7.56975E+02  3.48489E+03 -8.76031E+02  2.85662E+03 -2.31269E+03  1.11418E+03 -1.92229E+03  6.98670E+02
 -1.76739E+02 -3.82746E+02 -9.75762E+02  5.02324E+02 -1.89484E+03  1.21167E+03 -3.10364E+03 -1.33944E+03
 -2.79172E+03 -1.02506E+03 -5.87056E+01 -3.63647E+03  1.82201E+03 -4.67422E+03  3.31843E+03 -2.04381E+03
  3.26434E+03  4.29349E+02  1.42181E+03  2.30163E+03 -4.58633E+02  3.66706E+03 -3.03876E+03  2.92637E+03
