 $NMID ID='MM_0lb_SNR400_7hz_g55_5.RAW', FMTDAT='(8E13.5)'
 TRAMP=1., VOLUME=1. $END
  3.09024E+05 -2.00397E+02  3.37967E+05  2.50920E+05  8.56022E+04  3.39102E+05 -1.32720E+05  2.52357E+05
 -1.91538E+05  8.37320E+04 -1.12589E+05 -3.20108E+04  1.00554E+03 -4.97792E+04  5.35884E+04 -1.77339E+03
  3.53873E+04  5.32307E+04 -1.61053E+04  7.54416E+04 -6.18277E+04  6.46487E+04 -8.57589E+04  3.30340E+04
 -8.30711E+04 -1.20989E+04 -5.80129E+04 -5.26263E+04 -1.42132E+04 -7.19046E+04  2.81395E+04 -4.87959E+04
  4.09377E+04  3.93957E+03  1.73805E+04  4.96443E+04 -3.40919E+04  4.93178E+04 -6.87990E+04 -8.93204E+02
 -5.53098E+04 -5.87434E+04 -7.03050E+03 -8.01207E+04  3.47576E+04 -5.71767E+04  5.10535E+04 -1.84370E+04
  4.53622E+04  1.17390E+04  3.37106E+04  2.70222E+04  1.64955E+04  3.01977E+04 -6.33073E+03  2.85776E+04
 -2.23186E+04  1.16756E+04 -1.77756E+04 -6.42652E+03  7.63256E+03 -7.57338E+03  2.38873E+04  1.49563E+04
  7.31459E+03  3.79423E+04 -3.31332E+04  3.65145E+04 -6.69593E+04  2.00140E+03 -6.02672E+04 -4.56794E+04
 -1.31576E+04 -6.77254E+04  4.27971E+04 -4.88658E+04  6.28929E+04 -2.69127E+03  3.74886E+04  3.47866E+04
 -5.24229E+03  4.05196E+04 -3.25833E+04  2.02592E+04 -3.59582E+04 -2.79847E+03 -2.05844E+04 -1.34548E+04
 -9.79094E+03 -1.63644E+04 -2.91878E+02 -2.03300E+04  9.44759E+03 -2.32692E+04  1.51785E+04 -1.18706E+04
  1.01940E+04  5.58047E+03 -1.22548E+04  1.25827E+04 -2.54628E+04 -7.91331E+03 -9.12030E+03 -3.98272E+04
  2.61554E+04 -4.85096E+04  5.48393E+04 -2.10623E+04  5.03705E+04  2.15307E+04  1.65341E+04  4.84699E+04
 -1.75070E+04  3.66886E+04 -2.92442E+04  2.44411E+03 -1.20970E+04 -3.05174E+04  2.15814E+04 -3.92406E+04
  4.63420E+04 -1.18945E+04  4.21860E+04  2.50295E+04  2.26841E+04  5.35116E+04 -8.51529E+03  5.95866E+04
 -3.69663E+04  4.05002E+04 -5.00705E+04  1.22808E+04 -4.94577E+04 -1.96119E+04 -2.67939E+04 -4.41665E+04
  8.17078E+03 -4.50589E+04  3.54776E+04 -1.80029E+04  3.46784E+04  1.10527E+04  5.32574E+03  2.11541E+04
 -1.38183E+04  1.09640E+04 -1.13586E+04 -8.98242E+03  5.84787E+03 -1.18613E+04  1.90535E+04  4.19134E+03
  1.60400E+04  2.26126E+04 -5.28161E+03  2.84576E+04 -2.41831E+04  1.58150E+04 -3.24508E+04 -1.97054E+03
 -2.78977E+04 -1.94675E+04 -1.38733E+04 -2.67814E+04  4.78183E+03 -2.91533E+04  2.22720E+04 -2.50921E+04
  3.49485E+04 -1.44173E+04  4.14253E+04  7.00457E+03  2.95009E+04  2.71068E+04  4.26485E+03  4.32147E+04
 -2.11326E+04  3.50676E+04 -3.07209E+04  1.24784E+04 -2.40270E+04 -1.09729E+04 -4.86049E+03 -1.29998E+04
 -2.07257E+02 -9.47976E+01 -9.02297E+03  9.15922E+03 -2.14890E+04  5.47016E+03 -2.23890E+04 -1.17360E+04
 -1.27855E+04 -2.48470E+04  6.12107E+03 -3.04356E+04  2.10840E+04 -2.21216E+04  2.46373E+04 -1.31933E+03
  1.72209E+04  1.72446E+04 -1.93604E+03  2.60067E+04 -1.82412E+04  1.46578E+04 -2.54090E+04 -5.22045E+03
 -1.88012E+04 -2.28215E+04 -2.62049E+03 -3.11016E+04  1.37489E+04 -2.58910E+04  2.59559E+04 -1.49573E+04
  2.51122E+04 -6.66266E+01  1.70146E+04  5.81640E+03  9.68178E+03  2.19509E+03  1.47882E+04 -2.13816E+03
  2.33611E+04  2.73171E+03  2.84463E+04  2.00284E+04  2.01414E+04  4.14698E+04 -2.61591E+03  4.98660E+04
 -2.85104E+04  4.15505E+04 -4.65770E+04  2.14575E+04 -5.15525E+04 -2.97153E+03 -4.00989E+04 -3.05740E+04
 -1.54421E+04 -4.11124E+04  1.52870E+04 -3.66260E+04  3.15209E+04 -1.70683E+04  2.61992E+04  9.08367E+03
  8.44253E+03  2.17772E+04 -1.41231E+04  1.71016E+04 -2.19567E+04  1.79009E+03 -1.65960E+04 -1.45649E+04
 -4.43155E+01 -2.23503E+04  1.16320E+04 -1.56282E+04  1.51927E+04 -1.19163E+03  5.27607E+03  1.13323E+04
 -1.09214E+04  6.00400E+03 -1.05093E+04 -7.86853E+03 -3.31381E+03 -2.12576E+04  1.27875E+04 -2.31206E+04
  2.62726E+04 -1.42847E+04  3.01315E+04  3.21663E+03  2.73081E+04  2.11598E+04  1.27729E+04  3.31094E+04
 -6.62730E+03  3.51908E+04 -2.48732E+04  2.25949E+04 -2.64098E+04  5.34604E+03 -1.79185E+04 -6.32169E+03
 -7.53379E+03 -8.69949E+03 -1.07356E+03  1.31559E+02 -3.74031E+03  3.78738E+03 -7.27179E+03  6.07066E+03
 -1.67279E+04 -1.50467E+03 -1.61630E+04 -1.29714E+04 -6.30642E+03 -2.19099E+04  7.56743E+03 -1.78635E+04
  1.59659E+04 -7.72887E+03  1.04456E+04  5.06338E+03 -5.64928E+02  6.28568E+03 -9.09692E+03 -3.98032E+02
 -8.00402E+03 -1.13726E+04 -1.53075E+02 -1.81902E+04  1.11273E+04 -1.93301E+04  2.31772E+04 -1.12249E+04
  2.82050E+04  4.27975E+03  1.95777E+04  1.76471E+04  3.54307E+03  2.22141E+04 -1.18135E+04  1.76905E+04
 -1.49205E+04  5.72762E+03 -7.47178E+03 -4.28820E+03  2.99295E+03 -5.23910E+03  7.98446E+03 -1.11712E+03
  9.14727E+03  8.48880E+03  7.46243E+02  1.56823E+04 -1.00429E+04  1.44005E+04 -1.79206E+04  2.70913E+03
 -1.32882E+04 -9.98606E+03 -4.71322E+02 -1.64305E+04  1.04782E+04 -8.31292E+03  1.17027E+04  3.91621E+03
  1.66032E+03  1.23779E+04 -9.00206E+03  1.43030E+04 -1.61712E+04  5.54087E+03 -1.76974E+04 -7.49626E+03
 -1.05601E+04 -2.01684E+04  5.29614E+03 -2.24096E+04  1.87033E+04 -1.29870E+04  2.08091E+04  3.46440E+03
  1.10494E+04  1.65628E+04 -2.44997E+03  1.81756E+04 -1.36512E+04  1.07141E+04 -1.55462E+04 -1.03967E+03
 -1.17040E+04 -1.15838E+04 -1.55573E+03 -1.44668E+04  8.14044E+03 -1.15357E+04  9.13957E+03 -3.68056E+03
  5.30638E+03  2.20783E+03 -1.32555E+03  3.09016E+03 -1.16648E+03 -3.72995E+03  3.92727E+03 -1.04578E+04
  1.39309E+04 -6.39882E+03  2.07609E+04  1.91679E+03  1.98120E+04  1.44918E+04  1.23326E+04  2.58454E+04
 -6.51651E+03  2.89429E+04 -2.54867E+04  2.15043E+04 -3.14624E+04  4.25744E+03 -2.66078E+04 -1.30106E+04
 -1.26223E+04 -2.24500E+04 -4.24362E+02 -1.82104E+04  5.50513E+03 -1.12930E+04  7.30511E+03 -7.08496E+03
  5.19751E+03 -2.51235E+03  5.78607E+03 -3.37933E+03  6.11000E+03 -5.09166E+03  9.96710E+03 -1.61806E+03
  1.31469E+04  2.64370E+03  7.88009E+03  1.13449E+04 -2.79010E+03  1.51943E+04 -1.46710E+04  1.16354E+04
 -1.84562E+04 -2.19273E+03 -1.26936E+04 -1.33145E+04 -1.84309E+03 -2.04363E+04  1.01032E+04 -2.05628E+04
  2.09309E+04 -1.06721E+04  2.49237E+04  2.65848E+03  1.73155E+04  1.71209E+04  2.65197E+03  2.23122E+04
 -9.51083E+03  1.78287E+04 -1.31870E+04  6.15240E+03 -9.17444E+03 -2.75576E+03 -5.31331E+03 -2.43934E+03
 -1.29290E+03 -1.46271E+03 -3.44069E+03  3.54995E+03 -8.06308E+03  2.53405E+03 -1.24646E+04 -9.83374E+02
 -9.08960E+03 -1.26142E+04 -3.71219E+02 -1.92959E+04  1.17731E+04 -1.79203E+04  2.01774E+04 -6.45824E+03
  1.91372E+04  9.39476E+03  8.79959E+03  1.71117E+04 -3.85951E+03  1.97772E+04 -1.40698E+04  1.10848E+04
 -1.77797E+04  6.95937E+02 -1.51310E+04 -1.17390E+04 -1.85021E+03 -1.54311E+04  9.06933E+03 -1.31717E+04
  1.31865E+04 -3.67632E+03  8.87523E+03  2.70393E+03  2.93100E+03  5.91811E+03  2.29010E+03  2.08246E+03
  3.80330E+03  9.63279E+02  4.75300E+03  2.23912E+03  6.01989E+03  6.62511E+03  5.40586E+03  1.15309E+04
 -3.81825E+03  1.58720E+04 -1.37046E+04  1.52116E+04 -2.11684E+04  3.41113E+03 -2.09638E+04 -9.33536E+03
 -1.05864E+04 -1.99798E+04  2.63697E+03 -2.09730E+04  1.24637E+04 -1.45027E+04  1.60191E+04 -3.84858E+03
  1.26962E+04  7.17727E+03  2.86649E+03  1.22128E+04 -5.84619E+03  7.78921E+03 -8.28360E+03 -1.33839E+03
 -2.88591E+03 -8.93131E+03  5.05310E+03 -9.15073E+03  8.36260E+03 -4.56518E+03  8.55826E+03  1.56530E+03
  5.50460E+03  3.91027E+03  2.68475E+03  4.39771E+03 -3.08903E+02  2.86354E+03  1.21085E+03  5.69267E+02
  3.49681E+03 -4.48212E+02  8.40659E+03  3.56299E+03  4.95226E+03  1.13713E+04 -1.08587E+03  1.38930E+04
 -9.45076E+03  9.33882E+03 -1.34520E+04  2.79214E+03 -1.13658E+04 -5.04551E+03 -4.77677E+03 -7.72482E+03
  1.97899E+03 -7.93046E+03  5.28560E+03 -3.79293E+03  4.56979E+03  4.28723E+03 -1.86276E+03  6.56143E+03
 -8.31398E+03  3.80468E+03 -1.08917E+04 -5.39358E+03 -6.32431E+03 -1.04573E+04  1.09687E+03 -1.22993E+04
  7.36396E+03 -7.64975E+03  8.83003E+03 -2.78456E+02  6.56988E+03  3.62172E+03  7.96533E+02  5.70173E+03
 -4.25312E+03  1.61674E+03 -5.13485E+03 -3.79908E+03  1.15355E+03 -9.21363E+03  1.02272E+04 -7.40576E+03
  1.33229E+04  3.26886E+02  1.25437E+04  9.67387E+03  3.84524E+03  1.41675E+04 -3.69881E+03  1.39053E+04
 -1.11842E+04  6.10997E+03 -1.13868E+04 -1.56288E+03 -5.86410E+03 -9.40627E+03  1.41117E+03 -8.38900E+03
  8.85664E+03 -3.66978E+03  7.30609E+03  4.06680E+03  1.82937E+03  7.73503E+03 -5.66145E+02  6.59794E+03
 -4.58753E+03  4.10630E+03 -3.62912E+03  1.80054E+03 -4.43336E+02  5.82775E+02 -9.89949E+02  3.09194E+03
 -3.31444E+03  5.99080E+03 -9.23612E+03  4.84577E+03 -1.43796E+04 -6.26237E+02 -1.56530E+04 -9.90909E+03
 -9.50587E+03 -1.93368E+04  3.11590E+03 -2.21884E+04  1.31873E+04 -1.69456E+04  2.04314E+04 -5.51727E+03
  1.96569E+04  3.47839E+03  1.23338E+04  1.26991E+04  1.09858E+03  1.47649E+04 -5.93280E+03  1.10951E+04
 -9.01190E+03  4.64658E+03 -5.66754E+03 -1.84773E+03 -1.82079E+03 -1.26284E+03 -1.41528E+03  3.92289E+02
 -2.18225E+03 -3.99539E+02 -2.96855E+03 -9.91460E+02 -1.76053E+03 -3.32732E+03  8.98276E+02 -6.23381E+03
  6.69043E+03 -4.33494E+03  1.02743E+04  4.12728E+02  1.06895E+04  8.15558E+03  3.78484E+03  1.57721E+04
 -7.80920E+03  1.69093E+04 -1.63809E+04  1.14395E+04 -2.00354E+04 -2.21323E+03 -1.40764E+04 -1.09255E+04
 -5.93108E+03 -1.65156E+04  4.23331E+03 -1.41364E+04  1.07325E+04 -8.44819E+03  1.07139E+04  7.83592E+02
  5.37048E+03  5.30209E+03 -4.44707E+02  5.16533E+03 -3.23738E+03 -7.24299E+02  6.82963E+02 -4.12229E+03
  4.63377E+03 -1.91328E+03  6.75776E+03  1.48343E+03  4.57227E+03  6.36449E+03 -3.27025E+01  9.03063E+03
 -7.53111E+03  6.32155E+03 -1.13457E+04  1.14958E+03 -9.23344E+03 -8.39244E+03 -8.39876E+02 -1.34366E+04
  7.36514E+03 -1.14926E+04  1.19086E+04 -3.60019E+03  1.27780E+04  4.01171E+03  6.98595E+03  1.00484E+04
  1.32239E+03  1.07327E+04 -4.45080E+03  8.36605E+03 -6.25315E+03  4.49310E+03 -5.64023E+03  2.40325E+02
 -2.91941E+03 -1.59376E+02 -3.29802E+03  1.09336E+03 -5.57428E+03  1.40340E+03 -9.14935E+03 -1.85871E+03
 -6.57291E+03 -5.26128E+03 -2.32493E+03 -1.13926E+04  5.45417E+03 -1.13929E+04  9.45201E+03 -5.64348E+03
  1.04932E+04  1.81879E+03  6.51816E+03  7.71524E+03 -1.18736E+03  1.17902E+04 -9.10959E+03  7.42527E+03
