 $NMID ID='MM_0lb_SNR400_16hz_g55_28.RAW', FMTDAT='(8E13.5)'
 TRAMP=1., VOLUME=1. $END
  3.10167E+05  2.44045E+02  3.37386E+05  2.50682E+05  8.40726E+04  3.37769E+05 -1.32517E+05  2.52120E+05
 -1.90232E+05  8.32235E+04 -1.11528E+05 -3.21891E+04  1.41544E+03 -5.03993E+04  5.37068E+04  1.57672E+02
  3.53595E+04  5.30071E+04 -1.74337E+04  7.42953E+04 -6.04286E+04  6.39071E+04 -8.42738E+04  3.19266E+04
 -8.08003E+04 -1.12332E+04 -5.68005E+04 -5.10811E+04 -1.46620E+04 -6.91496E+04  2.69261E+04 -4.51256E+04
  3.93849E+04  3.48649E+03  1.60078E+04  4.70110E+04 -3.41228E+04  4.74254E+04 -6.61441E+04  9.55501E+01
 -5.32151E+04 -5.69740E+04 -6.26936E+03 -7.72902E+04  3.34930E+04 -5.41258E+04  4.76549E+04 -1.69473E+04
  4.34520E+04  1.15405E+04  3.13262E+04  2.56434E+04  1.61984E+04  2.89228E+04 -5.49788E+03  2.72091E+04
 -2.21305E+04  1.28843E+04 -1.83600E+04 -4.49451E+03  5.44722E+03 -7.52359E+03  2.23184E+04  1.24399E+04
  7.15672E+03  3.48542E+04 -3.16621E+04  3.52809E+04 -6.27339E+04  1.87480E+03 -5.66114E+04 -4.24174E+04
 -1.22998E+04 -6.29991E+04  3.95212E+04 -4.44427E+04  5.75488E+04 -1.93669E+03  3.39144E+04  3.20404E+04
 -6.13586E+03  3.54317E+04 -2.94994E+04  1.58180E+04 -2.99716E+04 -4.30118E+03 -1.63392E+04 -1.06829E+04
 -8.02872E+03 -1.22828E+04 -7.20139E+02 -1.77387E+04  6.74224E+03 -2.31723E+04  1.51502E+04 -1.32992E+04
  1.17717E+04  5.20776E+03 -8.52128E+03  1.28801E+04 -2.07594E+04 -4.78433E+03 -8.57196E+03 -3.28722E+04
  2.28839E+04 -4.24284E+04  4.77274E+04 -1.96966E+04  4.44244E+04  1.93969E+04  1.55797E+04  4.44144E+04
 -1.60471E+04  3.31869E+04 -2.47606E+04  1.71543E+03 -9.08985E+03 -2.76079E+04  2.06122E+04 -3.33121E+04
  4.04981E+04 -8.53008E+03  3.41845E+04  2.34503E+04  1.78967E+04  4.56070E+04 -7.67513E+03  4.90836E+04
 -3.11680E+04  3.32467E+04 -4.13700E+04  9.10180E+03 -4.20010E+04 -1.65331E+04 -2.29973E+04 -3.75672E+04
  7.42463E+03 -3.69025E+04  3.13015E+04 -1.45214E+04  2.88162E+04  1.06461E+04  3.61380E+03  1.91908E+04
 -1.33773E+04  8.53005E+03 -1.01877E+04 -7.77715E+03  5.66397E+03 -1.08236E+04  1.82711E+04  6.24400E+03
  1.34996E+04  2.16578E+04 -5.74272E+03  2.46936E+04 -2.21364E+04  1.12867E+04 -2.68753E+04 -4.87966E+03
 -1.99398E+04 -1.70665E+04 -7.48288E+03 -2.01289E+04  3.91660E+03 -1.85134E+04  1.55296E+04 -1.80340E+04
  2.46715E+04 -1.22441E+04  3.10633E+04  2.07842E+03  2.28540E+04  1.91631E+04  3.80604E+03  3.54439E+04
 -1.76553E+04  2.96887E+04 -2.77291E+04  1.02515E+04 -2.10928E+04 -9.61354E+03 -4.17106E+03 -1.38471E+04
  2.29012E+03 -2.56343E+03 -4.30514E+03  6.41096E+03 -1.52843E+04  5.36959E+03 -1.59724E+04 -6.51611E+03
 -9.50414E+03 -1.81205E+04  4.86178E+03 -2.19097E+04  1.44651E+04 -1.62590E+04  1.65908E+04 -1.90872E+03
  1.02145E+04  1.23934E+04 -1.10779E+03  1.83772E+04 -1.28735E+04  1.05387E+04 -1.83155E+04 -4.11193E+03
 -1.29506E+04 -1.60043E+04 -1.69018E+03 -2.19835E+04  1.01755E+04 -1.86209E+04  1.81091E+04 -9.07974E+03
  1.72408E+04  1.58524E+00  1.24233E+04  3.96734E+03  5.77215E+03  1.43965E+03  9.59582E+03 -1.79314E+03
  1.66181E+04  2.44775E+03  1.81165E+04  1.45298E+04  1.15710E+04  2.88422E+04 -2.97488E+03  3.18004E+04
 -1.85425E+04  2.51896E+04 -3.02899E+04  1.32473E+04 -3.10681E+04 -2.75696E+03 -2.56724E+04 -1.81791E+04
 -1.13162E+04 -2.57784E+04  8.52661E+03 -2.35468E+04  2.02913E+04 -1.19104E+04  1.87036E+04  5.11008E+03
  6.63392E+03  1.35699E+04 -8.23408E+03  1.21798E+04 -1.50591E+04  2.11299E+03 -1.13157E+04 -9.49407E+03
  1.01160E+02 -1.42018E+04  6.96620E+03 -1.13336E+04  9.66250E+03 -1.28687E+03  2.11565E+03  6.17887E+03
 -6.29171E+03  1.62615E+03 -5.45530E+03 -5.35353E+03 -2.35301E+02 -1.25572E+04  8.88094E+03 -1.26131E+04
  1.53592E+04 -6.28336E+03  1.58128E+04  2.83045E+03  1.35248E+04  1.21070E+04  6.29938E+03  1.87443E+04
 -2.37568E+03  2.04428E+04 -1.27066E+04  1.22868E+04 -1.43409E+04  2.67691E+03 -1.06260E+04 -3.01612E+03
 -4.75323E+03 -4.98330E+03 -7.74880E+02  1.10969E+03 -2.39839E+03  2.35436E+03 -5.06079E+03  4.41716E+03
 -1.00387E+04 -4.73765E+02 -1.10542E+04 -8.09820E+03 -4.55563E+03 -1.35047E+04  4.25265E+03 -1.07339E+04
  8.98688E+03 -4.46502E+03  5.51069E+03  2.65949E+03  3.03223E+02  3.47951E+03 -4.70515E+03  4.80733E+02
 -4.48679E+03 -6.42513E+03 -1.02973E+03 -9.46450E+03  5.35578E+03 -1.08824E+04  1.26454E+04 -5.14447E+03
  1.46586E+04  8.55870E+02  1.14492E+04  8.08002E+03  1.98180E+03  1.08418E+04 -6.59934E+03  1.07604E+04
 -9.02034E+03  2.92933E+03 -4.51144E+03 -2.48290E+03  2.08079E+03 -2.37782E+03  6.06808E+03 -9.68366E+02
  4.88704E+03  4.21673E+03  1.16030E+03  7.84715E+03 -5.81169E+03  8.05475E+03 -9.96777E+03  2.16475E+03
 -7.02946E+03 -4.68017E+03  2.52896E+02 -8.28113E+03  4.37124E+03 -4.06133E+03  5.33772E+03  1.39615E+03
  9.66519E+02  4.65268E+03 -4.93442E+03  6.45038E+03 -6.88539E+03  2.74238E+03 -6.33086E+03 -1.95274E+03
 -3.96027E+03 -8.90334E+03  1.84110E+03 -9.79294E+03  8.61500E+03 -5.58965E+03  8.89819E+03  8.42292E+02
  6.26041E+03  7.60684E+03 -6.26849E+02  9.38716E+03 -6.59015E+03  5.17052E+03 -6.90493E+03 -7.47497E+02
 -7.00686E+03 -6.68896E+03 -6.81391E+02 -6.60690E+03  3.80605E+03 -5.52228E+03  4.06776E+03 -3.47121E+03
  3.74538E+03  8.25196E+02 -2.24486E+02  1.38615E+03  4.29677E+02 -1.30463E+03  1.17348E+03 -2.96204E+03
  5.45205E+03 -1.46375E+03  7.30497E+03  5.71451E+02  7.32059E+03  4.83941E+03  6.38451E+03  9.57075E+03
 -1.83866E+03  1.15978E+04 -9.71683E+03  9.15085E+03 -1.35284E+04  1.30047E+03 -1.01005E+04 -3.85025E+03
 -5.83227E+03 -8.70230E+03 -1.87664E+02 -7.43347E+03  2.78048E+03 -3.71516E+03  2.64895E+03 -3.13852E+03
  2.06769E+03 -2.00968E+03  2.30778E+03 -2.57555E+03  4.24521E+03 -2.14072E+03  4.75421E+03 -8.11447E+00
  5.89017E+03  1.60339E+03  1.89336E+03  4.98668E+03 -1.53616E+03  4.42059E+03 -5.77618E+03  3.78464E+03
 -7.02588E+03 -1.55042E+03 -2.90146E+03 -4.98921E+03  1.26082E+02 -7.39055E+03  4.19974E+03 -7.15075E+03
  7.20325E+03 -4.62539E+03  9.07064E+03 -1.52482E+02  7.28306E+03  5.97642E+03  1.22332E+03  8.05561E+03
 -3.35286E+03  8.54459E+03 -4.58131E+03  2.54960E+03 -3.11110E+03 -1.18664E+03 -1.49792E+03 -9.36811E+02
 -8.62707E+02  4.39440E+02 -1.20795E+03  1.51726E+03 -2.75948E+03  1.41834E+03 -5.38897E+03 -6.07161E+02
 -2.17026E+03 -5.39325E+03  4.99308E+02 -7.05041E+03  3.90405E+03 -6.31634E+03  6.16300E+03 -2.02777E+03
  5.93978E+03  3.06425E+03  2.97479E+03  4.60514E+03 -1.60989E+03  7.07451E+03 -3.85031E+03  4.04684E+03
 -5.69908E+03  9.54387E+02 -4.83152E+03 -3.90523E+03 -8.45710E+02 -5.14806E+03  2.45786E+03 -3.60381E+03
  3.62254E+03 -1.68738E+03  1.95064E+03  1.53531E+02  9.66195E+02  2.11790E+03  1.08162E+03  5.13003E+02
  1.67869E+03  1.15949E+03  1.94184E+03  1.11387E+03  1.74641E+03  2.60721E+03  1.87787E+03  2.70145E+03
 -1.67620E+03  4.24118E+03 -3.45026E+03  5.69003E+03 -5.26436E+03  1.90853E+03 -5.78596E+03 -1.24601E+03
 -2.70597E+03 -5.34419E+03  9.98002E+02 -6.93374E+03  2.57493E+03 -4.05145E+03  4.55755E+03 -9.48836E+02
  4.14617E+03  2.33162E+03  7.64271E+02  3.49958E+03 -1.21615E+03  9.07271E+02 -1.87510E+03 -3.95627E+02
 -1.02668E+03 -1.67132E+03  1.81722E+03 -2.31401E+03  2.19305E+03 -1.22820E+03  1.52260E+03  2.62603E+02
  1.47681E+03  7.16774E+02  7.97953E+02  3.81697E+02 -9.20857E+02  6.46692E+02  1.36170E+03 -1.34975E+02
  2.51497E+02 -6.74876E+02  2.95370E+03  8.43235E+02  1.64332E+03  2.83090E+03 -1.34098E+03  4.17018E+03
 -2.85948E+03  1.62002E+03 -3.26132E+03  3.62008E+02 -3.34028E+03 -1.27109E+03 -1.08976E+03 -1.58650E+03
  6.45668E+02 -1.24351E+03  1.24278E+03 -1.19543E+03  9.17580E+02  1.64221E+03 -1.04387E+03  1.37883E+03
 -2.31603E+03  8.52183E+02 -2.37491E+03 -1.45587E+03 -1.24931E+03 -3.67024E+03 -5.27916E+01 -2.72973E+03
  1.10568E+03 -1.11709E+03  1.93267E+03  7.59501E+02  1.80125E+03 -2.00827E+01  3.25081E+02  9.74662E+02
 -5.84583E+02  2.29833E+02 -1.61311E+03 -4.35557E+02  5.88970E+02 -1.19782E+03  2.12982E+03 -1.15373E+03
  2.21626E+03  1.16266E+03  3.79158E+03  1.09737E+03  1.68076E+03  2.98461E+03 -7.93689E+02  3.06855E+03
 -3.19497E+03  1.16147E+03 -2.16205E+03 -3.49195E+02 -6.50782E+02 -2.00216E+03  6.78504E+02 -1.45818E+03
  2.64346E+03 -1.29101E+03  1.04645E+03  5.66519E+02  3.51098E+02  2.34475E+03  1.00841E+02  1.68812E+03
 -1.49937E+03  1.10145E+03 -8.91963E+02 -2.33016E+02  1.27892E+02  1.94452E+01 -1.02810E+03  9.55666E+02
 -1.02644E+03  1.24849E+03 -2.90221E+03  1.41586E+03 -2.90846E+03  8.02058E+02 -3.21745E+03 -2.16418E+03
 -1.85652E+03 -2.99485E+03  6.56536E+02 -4.66429E+03  2.31795E+03 -3.19128E+03  4.16950E+03 -1.54931E+03
  3.49796E+03  3.61833E+02  1.97411E+03  3.47553E+03 -2.33193E+02  2.57809E+03 -1.82689E+03  1.47985E+03
 -1.24490E+03  1.31383E+03 -1.72523E+03 -3.91487E+02 -6.82439E+02  7.25823E+02 -8.11296E+02  1.30595E+02
 -1.83953E+03 -5.39979E+02 -1.15183E+03  9.02211E+01 -3.71111E+02 -7.01818E+02 -1.93498E+01 -9.09555E+02
  1.16709E+03 -6.38170E+02  5.12520E+02  9.03639E+01  1.45376E+03  1.42383E+03  1.61873E+02  2.67580E+03
 -1.30717E+03  3.94929E+03 -2.65679E+03  1.48767E+03 -2.88331E+03  4.01851E+00 -2.82679E+03 -2.04233E+03
 -1.15270E+03 -2.51057E+03  1.01813E+03 -2.28877E+03  1.38670E+03 -1.46361E+03  8.69066E+02 -4.72129E+01
  1.28751E+03  1.28761E+03 -1.68099E+02  3.05814E+02 -8.52943E+02  4.59789E+02 -3.34344E+02 -6.44469E+02
  7.82137E+02  3.22752E+01  9.84498E+02  6.10003E+02  4.53612E+02  5.78620E+02  4.48103E+02  6.89597E+02
 -8.50117E+02  9.37581E+02 -7.21356E+02  4.57519E+02 -1.43365E+03 -7.16821E+02 -2.40691E+01 -2.44552E+03
  1.04815E+03 -1.80829E+03  1.22685E+03 -5.06616E+02  1.83466E+03 -5.45310E+02  1.07892E+03  1.21627E+03
  4.82504E+02  9.00163E+02 -1.65207E+02  1.32462E+03 -7.90017E+02  8.19967E+02 -6.36960E+02 -7.28658E+01
  1.15789E+02 -3.14551E+02 -8.88486E+02  2.16813E+02 -7.26626E+02  7.89705E+02 -1.09699E+03 -3.32308E+02
 -1.07015E+03 -3.21570E+02 -6.40485E+02 -1.82242E+03  1.11122E+03 -2.82677E+03  1.37746E+03 -7.57289E+02
  1.74304E+03  4.15435E+01  2.42851E+02  8.01212E+02  6.07278E+02  1.12561E+03 -7.21517E+02  1.68689E+03
