 $NMID ID='MM_0lb_SNR400_19hz_g45_66.RAW', FMTDAT='(8E13.5)'
 TRAMP=1., VOLUME=1. $END
  3.09767E+05  2.34697E+02  3.36940E+05  2.49884E+05  8.41421E+04  3.37336E+05 -1.32327E+05  2.49952E+05
 -1.89223E+05  8.22074E+04 -1.11033E+05 -3.23447E+04  1.30701E+03 -5.04455E+04  5.40497E+04  2.22492E+02
  3.45954E+04  5.29601E+04 -1.72672E+04  7.46465E+04 -6.00873E+04  6.20173E+04 -8.25484E+04  3.18144E+04
 -7.94203E+04 -1.15207E+04 -5.60416E+04 -5.04967E+04 -1.49665E+04 -6.81005E+04  2.69175E+04 -4.46795E+04
  3.90183E+04  4.27348E+03  1.54970E+04  4.70543E+04 -3.36478E+04  4.55179E+04 -6.47747E+04 -5.95608E+02
 -5.17467E+04 -5.59035E+04 -6.23093E+03 -7.44323E+04  3.30491E+04 -5.29538E+04  4.59218E+04 -1.60220E+04
  4.14456E+04  1.14701E+04  3.06662E+04  2.41808E+04  1.56676E+04  2.79663E+04 -4.91227E+03  2.69493E+04
 -2.14338E+04  1.29559E+04 -1.99451E+04 -4.27005E+03  4.24629E+03 -7.34118E+03  2.08143E+04  1.10649E+04
  7.20292E+03  3.30151E+04 -3.01895E+04  3.38946E+04 -6.06635E+04  2.06512E+03 -5.46927E+04 -4.14203E+04
 -1.26820E+04 -6.07848E+04  3.78466E+04 -4.32446E+04  5.48485E+04 -1.99616E+03  3.15923E+04  3.03023E+04
 -6.34598E+03  3.28435E+04 -2.81839E+04  1.28305E+04 -2.76283E+04 -5.48757E+03 -1.41809E+04 -1.00142E+04
 -6.84292E+03 -1.08102E+04 -1.05505E+03 -1.67016E+04  6.45527E+03 -2.24182E+04  1.48559E+04 -1.42712E+04
  1.21486E+04  4.25864E+03 -5.87589E+03  1.26627E+04 -1.88829E+04 -2.24987E+03 -8.46393E+03 -2.96906E+04
  2.02954E+04 -4.03425E+04  4.39719E+04 -1.83642E+04  4.17708E+04  1.77691E+04  1.38096E+04  4.08013E+04
 -1.48027E+04  3.06436E+04 -2.25906E+04  1.52985E+03 -7.98670E+03 -2.62323E+04  2.07611E+04 -3.06782E+04
  3.80155E+04 -7.14306E+03  3.14202E+04  2.26402E+04  1.55652E+04  4.25700E+04 -7.42598E+03  4.40056E+04
 -2.81110E+04  2.95844E+04 -3.70789E+04  8.31398E+03 -3.79297E+04 -1.50609E+04 -2.08601E+04 -3.38152E+04
  6.42180E+03 -3.39312E+04  2.83648E+04 -1.20371E+04  2.61849E+04  1.03647E+04  3.42753E+03  1.75470E+04
 -1.30235E+04  7.25168E+03 -9.54034E+03 -7.55296E+03  6.00821E+03 -9.92700E+03  1.71622E+04  6.30643E+03
  1.21927E+04  2.15934E+04 -6.97870E+03  2.32395E+04 -2.14123E+04  8.77974E+03 -2.45240E+04 -6.56846E+03
 -1.58627E+04 -1.61284E+04 -5.41454E+03 -1.69101E+04  3.49693E+03 -1.37369E+04  1.24428E+04 -1.35862E+04
  2.04886E+04 -1.16348E+04  2.66299E+04  5.75928E+02  2.11459E+04  1.56150E+04  4.02190E+03  3.21642E+04
 -1.58532E+04  2.70886E+04 -2.53384E+04  9.17580E+03 -1.93553E+04 -1.06395E+04 -4.19651E+03 -1.35849E+04
  3.17069E+03 -4.16044E+03 -2.96864E+03  4.90920E+03 -1.26431E+04  5.13921E+03 -1.31048E+04 -4.99942E+03
 -8.04685E+03 -1.52412E+04  4.40035E+03 -1.91271E+04  1.25982E+04 -1.35544E+04  1.42963E+04 -1.23063E+03
  8.36041E+03  1.02065E+04 -6.49023E+02  1.55296E+04 -9.96683E+03  8.66790E+03 -1.46823E+04 -3.14957E+03
 -1.14203E+04 -1.43842E+04 -1.60952E+03 -1.81086E+04  8.49344E+03 -1.50075E+04  1.53928E+04 -7.85348E+03
  1.39901E+04  8.16015E+02  1.01706E+04  3.68270E+03  4.90229E+03  3.28211E+02  7.87030E+03 -9.48397E+02
  1.36411E+04  2.75967E+03  1.42449E+04  1.24966E+04  8.56648E+03  2.40224E+04 -2.93290E+03  2.59705E+04
 -1.54232E+04  1.95825E+04 -2.34008E+04  9.02472E+03 -2.32597E+04 -1.60524E+03 -2.05613E+04 -1.38384E+04
 -9.63786E+03 -1.89954E+04  6.49894E+03 -1.85834E+04  1.60452E+04 -1.05765E+04  1.51252E+04  3.20536E+03
  6.61108E+03  1.04143E+04 -6.85129E+03  1.03690E+04 -1.32599E+04  3.00212E+03 -9.76044E+03 -7.57180E+03
 -3.79137E+02 -1.20672E+04  6.01546E+03 -8.96286E+03  7.71257E+03 -1.39633E+03  8.79635E+02  5.30397E+03
 -5.69075E+03  9.32660E+02 -3.11541E+03 -4.85208E+03  1.14343E+03 -9.89656E+03  7.75033E+03 -9.39811E+03
  1.15445E+04 -4.62840E+03  1.09205E+04  2.92215E+03  9.84761E+03  8.96490E+03  4.53810E+03  1.33465E+04
 -1.64365E+03  1.47726E+04 -9.31668E+03  9.55254E+03 -1.07142E+04  2.55980E+03 -7.85628E+03 -1.63953E+03
 -4.32821E+03 -2.89164E+03 -1.21897E+03  1.42549E+03 -1.79441E+03  1.89385E+03 -3.28733E+03  4.17910E+03
 -7.73938E+03 -9.73310E+02 -9.12615E+03 -6.70328E+03 -3.62629E+03 -1.10169E+04  3.63471E+03 -8.02026E+03
  7.27198E+03 -3.48856E+03  4.73385E+03  1.60163E+03  8.40494E+02  2.80152E+03 -3.14911E+03 -5.80409E+02
 -2.75901E+03 -4.83655E+03 -5.83891E+02 -6.94327E+03  3.40366E+03 -7.33608E+03  9.75330E+03 -3.48150E+03
  1.11544E+04  1.02742E+03  8.55607E+03  6.13714E+03  1.39938E+03  8.59801E+03 -5.10735E+03  7.25749E+03
 -6.54799E+03  2.89727E+03 -2.96175E+03 -1.18296E+03  1.10426E+03 -1.87685E+03  4.24449E+03 -6.49938E+02
  4.03421E+03  3.02400E+03  1.05293E+03  5.68179E+03 -4.22600E+03  6.57885E+03 -7.52334E+03  2.13802E+03
 -4.82709E+03 -3.29872E+03  2.76000E+02 -6.56025E+03  3.80258E+03 -2.98509E+03  3.40082E+03  1.26454E+03
  2.97382E+02  3.54892E+03 -4.35804E+03  4.74128E+03 -4.28105E+03  1.93640E+03 -4.23546E+03 -8.13495E+02
 -2.29394E+03 -5.90390E+03  1.33689E+03 -5.95560E+03  5.57940E+03 -4.73324E+03  6.19802E+03  2.99343E+02
  4.69377E+03  5.15915E+03  5.61739E+02  6.61166E+03 -5.20947E+03  4.52703E+03 -4.44995E+03 -9.84302E+01
 -5.17366E+03 -4.88188E+03 -1.03801E+03 -4.93450E+03  2.18299E+03 -5.21338E+03  2.07684E+03 -2.50651E+03
  2.86817E+03 -2.75804E+01  2.13564E+02  1.39413E+03  1.13634E+03 -6.56525E+02 -2.03230E+02 -1.85512E+03
  3.07359E+03 -1.21938E+03  5.30913E+03  1.06690E+03  5.14701E+03  2.64469E+03  4.53314E+03  6.46576E+03
 -9.44277E+02  7.58833E+03 -7.00723E+03  6.54641E+03 -9.39829E+03  1.31696E+03 -6.79432E+03 -2.31756E+03
 -4.18636E+03 -5.72210E+03 -1.82027E+02 -4.61133E+03  2.25975E+03 -1.88639E+03  2.13357E+03 -2.16702E+03
  8.32037E+02 -1.71022E+03  1.69040E+03 -2.17934E+03  3.79397E+03 -7.42534E+02  3.52420E+03  6.01353E+02
  4.74587E+03  1.24082E+03  1.02456E+03  3.01433E+03 -1.47334E+03  2.61113E+03 -3.54423E+03  1.99302E+03
 -4.57879E+03 -6.66922E+02 -1.41536E+03 -3.14076E+03  2.73347E+02 -4.37927E+03  3.00307E+03 -4.48107E+03
  4.72917E+03 -3.07205E+03  6.15412E+03 -1.65890E+02  5.05808E+03  3.92828E+03  1.08742E+03  5.41266E+03
 -2.24539E+03  5.55406E+03 -3.13231E+03  1.51893E+03 -2.03679E+03 -1.00947E+03 -3.76910E+02 -4.63455E+02
 -1.44712E+02  8.34520E+02 -6.97170E+02  1.58623E+03 -2.11700E+03  9.32617E+02 -3.25820E+03 -2.58353E+02
 -1.13829E+03 -4.03346E+03  1.21275E+03 -4.10084E+03  2.49153E+03 -3.84447E+03  3.06522E+03 -1.05465E+03
  4.22987E+03  1.93914E+03  1.69745E+03  2.65399E+03 -8.44205E+02  3.15619E+03 -2.01118E+03  1.98730E+03
 -3.54023E+03  4.58961E+02 -2.97469E+03 -1.93872E+03 -2.69081E+02 -3.49132E+03  1.12079E+03 -2.41205E+03
  2.61870E+03 -1.16659E+03  1.82225E+03  1.37453E+02  3.07412E+02  1.83334E+03  1.12938E+03  6.86567E+02
  1.51777E+03  9.47703E+02  1.25472E+03  1.26354E+03  1.01190E+03  2.04306E+03  1.04480E+03  1.79872E+03
 -9.79382E+02  2.87441E+03 -2.18286E+03  3.71888E+03 -2.61601E+03  1.31620E+03 -4.12044E+03 -1.12658E+02
 -1.53053E+03 -3.17727E+03  4.76923E+02 -4.08720E+03  1.42136E+03 -2.54608E+03  2.73816E+03 -8.38355E+02
  2.15029E+03  1.78915E+03  4.32823E+02  2.05674E+03 -7.88816E+02  1.09759E+03 -6.51469E+02 -3.44874E+02
  1.58812E+02 -1.11159E+03  1.36798E+03 -1.22140E+03  9.84251E+02 -1.25138E+03  1.03996E+03  2.69220E+02
  6.63040E+02  7.40529E+01  1.39136E+03 -2.71707E+02 -5.13470E+02  4.32940E+02  1.99887E+03 -3.74700E+02
  2.97278E+01 -1.09084E+02  1.57192E+03  4.11483E+02  4.04271E+02  2.19177E+03 -5.03817E+02  2.94116E+03
 -1.46997E+03  1.19167E+03 -1.89886E+03  4.02501E+01 -2.07747E+03  9.62853E+01  3.44798E+02 -8.87807E+02
  1.73839E+02 -9.54133E+02  8.56841E+02 -3.97334E+02  4.24735E+02  1.51523E+03 -7.31206E+02  8.52910E+02
 -1.25785E+03  5.92213E+02 -8.42354E+02 -1.24030E+03 -8.60794E+02 -1.66543E+03  5.23558E+01 -1.23726E+03
  3.80293E+02 -3.11150E+02  3.15499E+02  5.79125E+02  8.50540E+02 -5.35184E+02  3.68559E+02  1.05198E+03
 -1.15144E+03 -1.75733E+02 -1.25323E+03 -1.03580E+02  5.66689E+02 -8.08307E+02  1.45234E+03 -1.32275E+03
  1.26607E+03  1.45255E+02  2.57544E+03  1.06896E+03  1.05924E+03  1.14382E+03  1.43504E+02  1.43784E+03
 -1.20487E+03 -7.37516E+01 -2.06305E+03 -2.74717E+02 -5.93509E+02 -1.44449E+03  8.85258E+01 -4.40396E+02
  9.49953E+02 -5.12443E+02  6.54210E+02  5.53461E+02  3.47572E+02  1.46110E+03  5.89548E+02  1.13581E+03
 -6.30336E+02  1.17889E+03 -2.87428E+02  1.72663E+02  1.03992E+02 -4.50339E+01 -7.58025E+02  5.66894E+02
 -4.27273E+02  1.55932E+03 -1.77095E+03  5.13453E+02 -1.31754E+03 -1.64007E+02 -1.98936E+03 -5.32007E+02
 -5.68742E+02 -1.99188E+03  6.02738E+02 -2.03560E+03  1.13223E+03 -2.53748E+03  2.13273E+03 -1.04806E+03
  2.17526E+03  1.63130E+02  1.19257E+03  1.93891E+03 -3.22582E+02  1.28148E+03 -5.46503E+02  1.26527E+03
 -7.40449E+02  9.36270E+02 -4.59238E+02 -4.34870E+02 -2.68326E+02  1.22276E+02 -8.74089E+02 -2.60770E+02
 -1.23163E+03 -9.34879E+02 -1.33132E+03  3.30526E+02  8.72643E+02 -5.22396E+02 -3.58751E+02 -7.06951E+02
  1.31902E+03 -5.10773E+02  4.20220E+02 -3.33581E+02  7.97734E+02  8.80724E+02 -1.10725E+03  5.14711E+02
 -7.60715E+02  1.82494E+03 -1.58627E+03  1.05425E+03 -9.81359E+02 -1.14746E+02 -1.25792E+03 -8.71287E+02
 -6.48338E+02 -9.04228E+02  4.83286E+02 -1.56782E+03  2.44448E+02 -4.57900E+02  4.87022E+02  2.57154E+02
  4.36002E+02  2.83688E+02  6.81760E+01  2.48432E+02 -6.30424E+02 -2.70753E+02 -3.06903E+02 -2.54490E+02
  3.08662E+02  4.31204E+02 -2.17861E+02  5.78277E+02  1.89328E+02 -1.43582E+02  7.69728E+02  1.69957E+02
 -3.56640E+02  5.38605E+02 -5.43059E+02 -1.30546E+01 -1.23852E+03 -9.54554E+02  1.55967E+01 -1.06594E+03
  4.54042E+02 -5.99290E+02  7.29841E+02  8.16634E+02  7.56960E+02 -8.66060E+02  2.55972E+02 -4.10762E+01
  3.98774E+02  2.56936E+02 -1.25432E+02  3.50290E+02 -3.53012E+02  1.04358E+02 -1.73896E+02  2.47251E+01
  2.25090E+02 -1.70002E+02 -6.42218E+02  9.14051E+01 -8.00784E+02  2.36150E+02 -5.13420E+02  1.40084E+02
 -1.31134E+03  6.96262E+02 -1.50939E+02 -1.07261E+03  8.25508E+02 -1.29685E+03  6.15948E+02 -3.50401E+02
  4.91299E+02  1.95345E+02 -8.60819E+02  3.92862E+02 -6.52820E+02  8.50351E+02 -3.48428E+01  7.87514E+02
