 $NMID ID='MM_0lb_SNR400_18hz_g55_91.RAW', FMTDAT='(8E13.5)'
 TRAMP=1., VOLUME=1. $END
  3.10117E+05  9.02314E+02  3.37400E+05  2.50385E+05  8.51051E+04  3.38347E+05 -1.32480E+05  2.50340E+05
 -1.90033E+05  8.27651E+04 -1.11341E+05 -3.28109E+04  1.29001E+03 -5.05841E+04  5.35102E+04 -1.13609E+02
  3.48721E+04  5.29982E+04 -1.66965E+04  7.52566E+04 -6.05583E+04  6.22448E+04 -8.35211E+04  3.19744E+04
 -8.04226E+04 -1.14987E+04 -5.68594E+04 -5.07398E+04 -1.50565E+04 -6.92989E+04  2.70281E+04 -4.46380E+04
  3.96540E+04  4.21040E+03  1.57784E+04  4.74649E+04 -3.43101E+04  4.68565E+04 -6.60221E+04 -8.58007E+02
 -5.22280E+04 -5.62510E+04 -6.81460E+03 -7.66659E+04  3.33913E+04 -5.41219E+04  4.68091E+04 -1.70461E+04
  4.26520E+04  1.12370E+04  3.12077E+04  2.45369E+04  1.58520E+04  2.83331E+04 -5.29046E+03  2.69955E+04
 -2.16077E+04  1.21541E+04 -1.87982E+04 -4.74559E+03  5.08779E+03 -7.54150E+03  2.14933E+04  1.16586E+04
  7.02830E+03  3.40542E+04 -3.14674E+04  3.51157E+04 -6.24052E+04  2.07595E+03 -5.64168E+04 -4.20271E+04
 -1.21485E+04 -6.19828E+04  3.83577E+04 -4.42187E+04  5.67504E+04 -2.06281E+03  3.30402E+04  3.13419E+04
 -6.58864E+03  3.44195E+04 -2.87508E+04  1.47682E+04 -2.88581E+04 -4.79778E+03 -1.51635E+04 -1.03531E+04
 -7.90229E+03 -1.18469E+04 -1.02753E+03 -1.77435E+04  7.30159E+03 -2.26542E+04  1.49895E+04 -1.38985E+04
  1.17477E+04  4.96664E+03 -6.81491E+03  1.25067E+04 -2.00762E+04 -3.26973E+03 -8.16750E+03 -3.18014E+04
  2.17734E+04 -4.17255E+04  4.57790E+04 -1.89738E+04  4.33009E+04  1.81767E+04  1.48311E+04  4.26248E+04
 -1.53942E+04  3.22444E+04 -2.38507E+04  1.76133E+03 -8.75786E+03 -2.76582E+04  2.05480E+04 -3.20222E+04
  3.91011E+04 -8.08851E+03  3.31756E+04  2.36092E+04  1.69347E+04  4.43127E+04 -8.04894E+03  4.79288E+04
 -2.97067E+04  3.17143E+04 -3.87863E+04  8.75620E+03 -3.99131E+04 -1.52491E+04 -2.20382E+04 -3.61293E+04
  7.18282E+03 -3.54749E+04  3.03890E+04 -1.33780E+04  2.73141E+04  1.05147E+04  3.27943E+03  1.88389E+04
 -1.30501E+04  7.74124E+03 -9.83746E+03 -7.97776E+03  6.15890E+03 -1.04598E+04  1.77762E+04  5.81993E+03
  1.26823E+04  2.20322E+04 -5.87997E+03  2.33727E+04 -2.14788E+04  9.79988E+03 -2.62891E+04 -5.39211E+03
 -1.82331E+04 -1.71520E+04 -6.62332E+03 -1.80274E+04  3.77665E+03 -1.70348E+04  1.41713E+04 -1.56311E+04
  2.28494E+04 -1.22947E+04  2.94542E+04  1.81693E+03  2.25443E+04  1.76022E+04  4.29797E+03  3.37877E+04
 -1.67262E+04  2.82724E+04 -2.68041E+04  9.76885E+03 -1.98736E+04 -1.04986E+04 -4.29524E+03 -1.36609E+04
  2.39882E+03 -3.88227E+03 -3.86258E+03  5.64369E+03 -1.35895E+04  4.87805E+03 -1.46334E+04 -5.42473E+03
 -9.02588E+03 -1.64329E+04  4.11339E+03 -2.06405E+04  1.36216E+04 -1.50339E+04  1.55252E+04 -1.81102E+03
  9.80388E+03  1.11946E+04 -1.10958E+03  1.68280E+04 -1.12738E+04  9.86517E+03 -1.65429E+04 -3.68831E+03
 -1.20940E+04 -1.46288E+04 -1.94027E+03 -2.00575E+04  8.87789E+03 -1.65540E+04  1.70289E+04 -7.96156E+03
  1.58432E+04  7.09472E+02  1.12607E+04  3.90372E+03  5.34872E+03  9.67313E+02  8.54504E+03 -1.47743E+03
  1.51336E+04  2.61083E+03  1.56127E+04  1.34623E+04  9.85653E+03  2.59360E+04 -3.48827E+03  2.90645E+04
 -1.62811E+04  2.24791E+04 -2.68612E+04  1.10941E+04 -2.75956E+04 -1.61507E+03 -2.30274E+04 -1.55170E+04
 -1.05761E+04 -2.17501E+04  7.50339E+03 -2.05168E+04  1.76208E+04 -1.13687E+04  1.68497E+04  4.46727E+03
  6.57902E+03  1.20337E+04 -7.29816E+03  1.11236E+04 -1.38080E+04  2.45089E+03 -1.06987E+04 -8.84969E+03
 -8.07308E+02 -1.34937E+04  6.61884E+03 -1.02291E+04  8.31244E+03 -1.32838E+03  1.75941E+03  5.53901E+03
 -5.35188E+03  2.40300E+03 -4.05155E+03 -5.02007E+03 -1.01520E+02 -1.13358E+04  8.18523E+03 -1.10478E+04
  1.33862E+04 -5.83134E+03  1.33743E+04  2.76300E+03  1.20266E+04  1.06286E+04  5.72790E+03  1.50652E+04
 -2.04627E+03  1.76898E+04 -1.09554E+04  1.12751E+04 -1.19261E+04  2.93740E+03 -8.81633E+03 -2.38536E+03
 -5.23599E+03 -3.52140E+03 -5.99152E+02  1.29103E+03 -2.46752E+03  1.96183E+03 -3.99485E+03  4.23330E+03
 -8.80605E+03 -1.18094E+03 -8.52004E+03 -7.58412E+03 -4.19390E+03 -1.16738E+04  4.06367E+03 -9.26276E+03
  7.20780E+03 -3.88649E+03  5.70691E+03  2.50664E+03 -1.02735E+02  3.42339E+03 -3.54376E+03  2.97071E+01
 -4.03413E+03 -6.06229E+03 -4.72060E+02 -8.11198E+03  4.47441E+03 -8.96741E+03  1.14174E+04 -4.08373E+03
  1.31205E+04  1.14870E+02  1.01061E+04  7.33517E+03  1.82609E+03  9.58290E+03 -5.36293E+03  8.92288E+03
 -6.65408E+03  2.36680E+03 -3.83613E+03 -1.46458E+03  1.41212E+03 -1.94551E+03  5.10707E+03 -1.18695E+03
  4.70173E+03  3.72455E+03  8.65405E+02  6.77409E+03 -5.04695E+03  6.80846E+03 -8.45518E+03  1.86369E+03
 -5.75540E+03 -3.43739E+03 -8.41605E+01 -6.82341E+03  3.77549E+03 -3.81751E+03  3.72021E+03  1.13459E+03
  5.96184E+02  4.30893E+03 -3.82015E+03  5.61325E+03 -5.76729E+03  2.82985E+03 -5.21186E+03 -1.39441E+03
 -4.30798E+03 -6.91445E+03  1.35526E+03 -7.38888E+03  6.79780E+03 -4.50281E+03  7.47258E+03  8.09263E+02
  4.67223E+03  5.81097E+03 -3.55852E+02  7.46455E+03 -4.61538E+03  4.64678E+03 -5.81404E+03 -6.03201E+01
 -5.90829E+03 -5.14267E+03 -1.68504E+03 -6.21740E+03  3.00732E+03 -4.82116E+03  3.18356E+03 -2.70038E+03
  2.51244E+03 -1.20042E+02 -2.97456E+01  1.63485E+03  1.24542E+03 -2.45676E+02  6.20053E+02 -2.19969E+03
  4.07548E+03 -1.30154E+03  6.20068E+03  7.62548E+02  6.12248E+03  3.61184E+03  5.41891E+03  8.35042E+03
 -1.25950E+03  8.91276E+03 -8.41494E+03  6.79537E+03 -1.09629E+04  1.24891E+03 -8.54044E+03 -3.02933E+03
 -4.18689E+03 -6.63662E+03 -8.26982E+02 -5.47513E+03  2.61379E+03 -2.36544E+03  1.99445E+03 -2.41749E+03
  1.33786E+03 -1.79838E+03  2.27822E+03 -2.51211E+03  3.72841E+03 -1.26898E+03  3.99351E+03 -1.48933E+02
  4.72210E+03  1.25099E+03  1.44821E+03  3.88957E+03 -1.49472E+03  2.75537E+03 -4.84725E+03  2.60912E+03
 -5.69893E+03 -1.01957E+03 -2.59431E+03 -3.66080E+03  2.74927E+02 -6.05633E+03  3.27723E+03 -5.72134E+03
  5.55714E+03 -3.51100E+03  7.43527E+03  1.34931E+02  5.80386E+03  4.96794E+03  1.38921E+03  7.12358E+03
 -2.50063E+03  6.30768E+03 -4.35257E+03  2.26856E+03 -2.40959E+03 -9.66473E+02 -4.16878E+02 -5.47089E+02
 -7.55365E+02  1.04743E+03 -9.09281E+02  1.71269E+03 -2.43859E+03  6.62856E+02 -3.91851E+03 -5.12760E+02
 -1.23057E+03 -4.24499E+03  9.66965E+02 -4.84572E+03  2.73552E+03 -4.92100E+03  4.21474E+03 -1.36933E+03
  4.47492E+03  2.79700E+03  2.11875E+03  3.54335E+03 -6.69612E+02  4.62799E+03 -2.56189E+03  2.87470E+03
 -3.74818E+03  7.32655E+02 -3.99654E+03 -2.65062E+03 -1.49097E+01 -3.38161E+03  2.05529E+03 -2.56191E+03
  3.09592E+03 -1.31309E+03  1.98786E+03  4.04014E+02  5.31943E+02  1.57192E+03  1.03825E+03  4.70490E+02
  2.12462E+03  1.84662E+02  7.11097E+02  9.99370E+02  1.39284E+03  2.55743E+03  1.55781E+03  2.02580E+03
 -1.43119E+03  3.63626E+03 -2.59831E+03  4.65463E+03 -3.20795E+03  1.42247E+03 -4.04069E+03 -5.55242E+02
 -2.06316E+03 -4.11786E+03  9.26181E+02 -5.14139E+03  1.62211E+03 -2.63473E+03  3.87146E+03 -9.19748E+02
  2.78007E+03  1.65812E+03  4.40458E+02  2.00726E+03 -6.81341E+02  1.83209E+03 -1.19744E+03 -3.78079E+02
 -8.37930E+02 -1.30311E+03  1.11510E+03 -2.01548E+03  8.54814E+02 -9.04415E+02  1.23779E+03  7.50298E+02
  8.77487E+02  1.29064E+02  9.80742E+02  1.49405E+02 -2.14217E+02  5.60435E+02  1.27147E+03 -3.21367E+02
 -1.45320E+02  2.08038E+01  1.88359E+03  6.47786E+02  1.00576E+03  2.32589E+03 -2.41069E+02  3.01162E+03
 -1.06324E+03  1.07459E+03 -1.88958E+03  4.44303E+02 -2.62347E+03 -8.66525E+02 -1.64806E+02 -1.40585E+03
 -1.16173E+02 -8.85137E+02  8.18749E+02 -2.01904E+02  1.01145E+03  1.24570E+03 -6.18637E+02  1.01274E+03
 -1.43728E+03  1.47860E+03 -8.91398E+02 -1.42354E+03 -9.83721E+02 -2.26457E+03  1.79496E+02 -1.39588E+03
  6.22572E+02 -7.69230E+02  9.86501E+02  8.10858E+02  6.98735E+02  3.50529E+01  1.81814E+02  1.34441E+03
 -1.04105E+03  2.18575E+02 -9.99633E+02  1.40608E+02  4.20391E+02 -1.11080E+03  1.26975E+03 -1.08313E+03
  1.45930E+03  7.44951E+01  3.65472E+03  1.07272E+03  5.88728E+02  1.75295E+03 -5.64134E+01  2.17395E+03
 -1.26490E+03  1.50630E+02 -1.64442E+03 -6.72238E+02 -3.33746E+02 -9.59230E+02  8.79340E+02 -3.90985E+02
  1.58433E+03 -8.75953E+02  6.41442E+02  7.68376E+02  1.08929E+02  1.66754E+03  4.66454E+02  9.27911E+02
 -3.93089E+02  6.60134E+02 -4.39318E+02  1.73072E+02  6.91107E+02  6.54652E+02 -7.07394E+02  7.42995E+02
 -5.12175E+02  1.06111E+03 -1.39570E+03  6.51681E+02 -2.04529E+03 -3.34962E+02 -2.15713E+03 -1.07830E+03
 -1.17763E+03 -2.47415E+03  4.37282E+02 -2.93546E+03  1.17284E+03 -2.30769E+03  2.96249E+03 -8.24057E+02
  2.64291E+03 -6.13971E+02  2.13043E+03  1.62272E+03 -4.11446E+02  1.58028E+03 -1.17900E+03  1.57867E+03
 -9.30673E+02  1.00232E+03 -3.60622E+02  4.58142E+01 -5.69080E+02  2.08690E+02 -9.61694E+02 -4.98831E+02
 -1.27684E+03  3.16920E+02 -9.50285E+02  1.20285E+02  5.95223E+02 -7.16590E+02 -1.53423E+02 -8.73733E+02
  8.64930E+02 -1.02628E+03  5.83482E+02 -7.28000E+02  1.67187E+03  1.04359E+03 -3.99080E+02  1.73940E+03
 -6.35041E+02  2.46000E+03 -2.01789E+03  1.79058E+03 -1.09061E+03  3.15941E+01 -1.59988E+03 -1.78199E+03
 -1.05911E+03 -1.21795E+03  4.55837E+02 -1.78164E+03  7.94079E+02 -7.81591E+02  6.33608E+02  4.19179E+02
  6.70892E+02 -1.08189E+01  2.67818E+02  4.71991E+02 -1.84960E+02  1.80209E+02  5.97644E+01 -7.93827E+02
  5.47856E+02  4.83562E+02  6.20449E+02  2.77693E+02  3.78185E+02  2.15788E+02  4.63802E+02  1.42103E+02
 -5.48454E+02  8.64376E+02 -3.19815E+02 -4.52893E+00 -8.46925E+02 -3.87040E+02 -7.03632E+01 -1.47478E+03
  6.61027E+02 -7.55987E+02  3.69826E+02  2.08400E+02  7.54530E+02 -6.59633E+02  9.58357E+02  1.14750E+03
  6.82790E+02  6.38226E+02 -4.56964E+02  9.77416E+02 -3.93548E+02  1.00898E+03 -2.19494E+02  2.70634E+02
 -4.61498E+02 -2.04542E+01 -1.06171E+02 -2.93503E+02 -2.92060E+02  2.72785E+02 -7.83915E+02 -1.61294E+02
 -5.56505E+02  2.14014E+02 -3.69166E+02 -1.18135E+03  5.13426E+02 -1.68175E+03  1.27439E+03 -5.57531E+02
  1.06381E+03 -1.20811E+02 -7.87923E+02  3.30952E+02  1.52743E+02  1.13604E+03 -1.24478E+02  7.70326E+02
