 $NMID ID='MM_0lb_SNR400_9hz_g50_13.RAW', FMTDAT='(8E13.5)'
 TRAMP=1., VOLUME=1. $END
  3.09478E+05  1.16409E+03  3.38004E+05  2.51427E+05  8.45725E+04  3.38001E+05 -1.32132E+05  2.52322E+05
 -1.90495E+05  8.44535E+04 -1.13161E+05 -3.23075E+04  7.11999E+02 -5.04694E+04  5.38268E+04 -7.40869E+01
  3.57936E+04  5.22492E+04 -1.69476E+04  7.54741E+04 -6.11433E+04  6.50984E+04 -8.47368E+04  3.23654E+04
 -8.19487E+04 -1.26706E+04 -5.82446E+04 -5.26397E+04 -1.48881E+04 -7.09819E+04  2.83265E+04 -4.65868E+04
  4.06075E+04  3.56306E+03  1.66342E+04  4.87956E+04 -3.48169E+04  4.82735E+04 -6.82581E+04 -2.43142E+02
 -5.48391E+04 -5.76780E+04 -7.06989E+03 -7.83894E+04  3.43966E+04 -5.77103E+04  5.00691E+04 -1.82753E+04
  4.55008E+04  1.21928E+04  3.38172E+04  2.63462E+04  1.57006E+04  3.12557E+04 -6.53399E+03  2.79674E+04
 -2.21040E+04  1.17475E+04 -1.76907E+04 -5.74420E+03  7.01931E+03 -7.21546E+03  2.39518E+04  1.41917E+04
  6.41898E+03  3.77579E+04 -3.44059E+04  3.71399E+04 -6.57805E+04  1.67345E+03 -5.89513E+04 -4.46672E+04
 -1.27009E+04 -6.57533E+04  4.17897E+04 -4.81408E+04  6.13167E+04 -3.05468E+03  3.57120E+04  3.48824E+04
 -6.09345E+03  3.92976E+04 -3.17177E+04  1.87724E+04 -3.31969E+04 -3.09209E+03 -1.94666E+04 -1.19998E+04
 -9.39231E+03 -1.57189E+04 -4.55303E+02 -1.92583E+04  7.85861E+03 -2.40865E+04  1.56157E+04 -1.24579E+04
  1.13148E+04  6.78191E+03 -1.01292E+04  1.28557E+04 -2.34158E+04 -6.86534E+03 -8.66315E+03 -3.70875E+04
  2.43477E+04 -4.71607E+04  5.10991E+04 -2.13083E+04  4.78189E+04  2.05604E+04  1.69642E+04  4.71669E+04
 -1.67834E+04  3.62697E+04 -2.65654E+04  3.33624E+03 -1.26731E+04 -3.00408E+04  2.06329E+04 -3.76132E+04
  4.37546E+04 -1.11749E+04  3.99734E+04  2.50759E+04  2.12395E+04  4.98104E+04 -7.99763E+03  5.66060E+04
 -3.57411E+04  3.88675E+04 -4.75967E+04  1.08712E+04 -4.69476E+04 -1.87687E+04 -2.57317E+04 -4.24690E+04
  7.88067E+03 -4.13783E+04  3.38634E+04 -1.76542E+04  3.18578E+04  1.10049E+04  5.82744E+03  2.10295E+04
 -1.36728E+04  9.82837E+03 -1.09616E+04 -7.70192E+03  5.90982E+03 -1.12237E+04  1.90647E+04  5.40447E+03
  1.53188E+04  2.34817E+04 -5.44354E+03  2.74893E+04 -2.36717E+04  1.42421E+04 -3.08331E+04 -3.56129E+03
 -2.51196E+04 -1.80839E+04 -1.22525E+04 -2.55324E+04  4.45015E+03 -2.58707E+04  1.91256E+04 -2.21904E+04
  3.18137E+04 -1.42848E+04  3.76781E+04  5.22176E+03  2.75671E+04  2.47090E+04  4.76383E+03  4.13069E+04
 -1.96325E+04  3.33296E+04 -3.09849E+04  1.26618E+04 -2.23679E+04 -1.03349E+04 -4.78641E+03 -1.32662E+04
  9.40958E+02 -1.86606E+03 -7.37485E+03  8.43002E+03 -2.02093E+04  4.49119E+03 -2.04801E+04 -9.40277E+03
 -1.23565E+04 -2.34366E+04  6.07072E+03 -2.78226E+04  1.87061E+04 -1.96444E+04  2.32697E+04 -1.73524E+03
  1.43735E+04  1.57529E+04 -1.37783E+03  2.33300E+04 -1.73359E+04  1.35265E+04 -2.37411E+04 -5.17004E+03
 -1.72998E+04 -2.17710E+04 -2.06239E+03 -2.80732E+04  1.26892E+04 -2.35099E+04  2.35690E+04 -1.18138E+04
  2.20077E+04 -1.08835E+02  1.56309E+04  4.26737E+03  8.46879E+03  1.02557E+03  1.22368E+04 -2.43252E+03
  2.23245E+04  3.23011E+03  2.54939E+04  1.89000E+04  1.75568E+04  3.74217E+04 -2.82384E+03  4.33311E+04
 -2.53225E+04  3.75264E+04 -4.12924E+04  1.92033E+04 -4.50971E+04 -2.60008E+03 -3.60800E+04 -2.62608E+04
 -1.42872E+04 -3.69892E+04  1.37501E+04 -3.30693E+04  2.85859E+04 -1.54236E+04  2.46639E+04  8.46981E+03
  8.52602E+03  1.83452E+04 -1.12184E+04  1.52074E+04 -1.96517E+04  3.58927E+03 -1.45421E+04 -1.32176E+04
 -5.68819E+02 -1.96537E+04  1.03778E+04 -1.49619E+04  1.37842E+04 -1.01927E+03  4.52124E+03  9.09855E+03
 -8.37078E+03  4.16888E+03 -8.71366E+03 -7.43568E+03 -1.90824E+03 -1.76937E+04  1.18997E+04 -1.96951E+04
  2.20493E+04 -1.08351E+04  2.57810E+04  3.51328E+03  2.30919E+04  1.79178E+04  1.04797E+04  2.84431E+04
 -5.85978E+03  3.22293E+04 -2.06815E+04  1.94852E+04 -2.25685E+04  3.88855E+03 -1.57769E+04 -5.84109E+03
 -6.56729E+03 -8.00250E+03 -1.26715E+03 -7.00352E+01 -3.14846E+03  2.58793E+03 -7.55083E+03  5.04293E+03
 -1.42052E+04 -4.32573E+02 -1.45913E+04 -1.21898E+04 -6.30166E+03 -1.85936E+04  6.00199E+03 -1.58360E+04
  1.22322E+04 -7.27931E+03  9.93548E+03  4.32823E+03  4.40820E+02  6.51439E+03 -8.16440E+03 -8.16566E+02
 -7.32070E+03 -1.00433E+04 -8.28157E+02 -1.57102E+04  9.34369E+03 -1.65103E+04  2.02492E+04 -9.03647E+03
  2.42433E+04  1.97603E+03  1.70551E+04  1.51811E+04  3.72338E+03  1.92867E+04 -8.99071E+03  1.58706E+04
 -1.20767E+04  4.59200E+03 -6.06119E+03 -3.48621E+03  2.74819E+03 -3.83844E+03  8.08916E+03  6.71605E+01
  7.33713E+03  7.05031E+03  5.79297E+02  1.25533E+04 -8.52003E+03  1.18402E+04 -1.57420E+04  2.81367E+03
 -1.14854E+04 -8.59078E+03  9.41537E+02 -1.37227E+04  8.91761E+03 -7.56771E+03  9.69345E+03  4.12650E+03
  2.85362E+03  9.73520E+03 -8.18718E+03  1.15284E+04 -1.38275E+04  5.64058E+03 -1.38007E+04 -5.09150E+03
 -8.35444E+03 -1.61487E+04  3.55747E+03 -1.89006E+04  1.49994E+04 -1.11190E+04  1.60294E+04  3.06245E+03
  9.75325E+03  1.35536E+04 -1.55179E+03  1.47958E+04 -1.21686E+04  8.18494E+03 -1.30019E+04 -1.60580E+03
 -1.04032E+04 -1.00653E+04 -1.65930E+03 -1.16990E+04  6.88923E+03 -9.87192E+03  8.08168E+03 -2.86683E+03
  4.93271E+03  2.73890E+03 -1.03375E+03  1.90388E+03 -9.93364E+02 -4.01947E+03  2.54802E+03 -7.49475E+03
  1.11906E+04 -4.85787E+03  1.60604E+04  1.52841E+03  1.57799E+04  1.13919E+04  9.90602E+03  2.07458E+04
 -4.75125E+03  2.41359E+04 -2.00250E+04  1.75740E+04 -2.59396E+04  3.70077E+03 -2.20646E+04 -8.89233E+03
 -1.01021E+04 -1.68568E+04 -4.77137E+02 -1.47230E+04  5.49564E+03 -7.93021E+03  4.71436E+03 -6.64906E+03
  3.75552E+03 -3.09642E+03  4.11032E+03 -3.90294E+03  6.49107E+03 -2.93036E+03  7.96403E+03 -1.63565E+03
  1.07345E+04  2.01140E+03  5.41522E+03  9.56653E+03 -2.23224E+03  1.21749E+04 -1.12637E+04  8.14525E+03
 -1.46123E+04 -8.16555E+02 -9.19662E+03 -1.06516E+04 -1.08040E+03 -1.53276E+04  9.23957E+03 -1.53720E+04
  1.60800E+04 -8.44362E+03  1.95662E+04  2.50996E+03  1.36471E+04  1.38935E+04  2.58526E+03  1.80976E+04
 -7.35658E+03  1.46175E+04 -9.81404E+03  5.19228E+03 -6.62769E+03 -1.31944E+03 -2.97954E+03 -1.34946E+03
 -1.18786E+03 -6.67226E+02 -2.69632E+03  2.95831E+03 -6.56873E+03  2.21337E+03 -1.00445E+04 -1.33516E+03
 -7.62503E+03 -9.89960E+03 -8.77195E+02 -1.48101E+04  9.85840E+03 -1.36764E+04  1.51536E+04 -4.30581E+03
  1.46258E+04  7.36858E+03  7.49124E+03  1.23745E+04 -3.99776E+03  1.42952E+04 -1.04641E+04  9.09685E+03
 -1.42114E+04  7.21350E+02 -1.10615E+04 -8.84714E+03 -1.48792E+03 -1.27763E+04  6.11083E+03 -9.22634E+03
  8.99254E+03 -2.68263E+03  6.89228E+03  2.60815E+03  1.76123E+03  5.00609E+03  1.59035E+03  1.58171E+03
  2.49612E+03  8.98568E+02  3.95155E+03  1.59561E+03  5.12632E+03  4.82706E+03  3.42304E+03  7.60634E+03
 -3.06319E+03  1.24649E+04 -1.04175E+04  1.19351E+04 -1.58819E+04  2.51365E+03 -1.59698E+04 -6.06457E+03
 -7.76169E+03 -1.47358E+04  1.93553E+03 -1.64565E+04  9.26460E+03 -1.01693E+04  1.22097E+04 -3.14616E+03
  9.11533E+03  5.09557E+03  2.47000E+03  8.79772E+03 -3.94489E+03  4.99807E+03 -6.03723E+03 -2.85911E+02
 -2.99104E+03 -5.57379E+03  3.10439E+03 -7.06895E+03  6.52621E+03 -3.17363E+03  6.92515E+03  1.31594E+03
  4.44298E+03  3.17842E+03  1.10907E+03  3.01447E+03 -8.85691E+02  2.52958E+03  2.26354E+03 -8.18752E+02
  2.71679E+03 -1.02336E+03  5.64345E+03  2.45862E+03  2.95135E+03  8.01217E+03 -1.39118E+03  1.15338E+04
 -7.57199E+03  6.65333E+03 -9.30431E+03  2.38514E+03 -9.16282E+03 -2.78401E+03 -3.40408E+03 -5.75950E+03
  9.03221E+02 -6.40696E+03  3.85320E+03 -2.88300E+03  4.05721E+03  2.64753E+03 -1.73744E+03  4.62587E+03
 -7.11087E+03  2.67851E+03 -6.43640E+03 -4.17679E+03 -3.96976E+03 -8.55002E+03  1.17688E+03 -8.49974E+03
  4.60269E+03 -6.07055E+03  5.14581E+03 -8.56710E+02  4.62513E+03  1.96147E+03  1.16688E+03  4.29596E+03
 -2.25604E+03  7.43100E+02 -3.19104E+03 -3.41964E+03  8.94797E+02 -6.43446E+03  7.09644E+03 -4.88462E+03
  9.45816E+03  7.96191E+02  9.29587E+03  5.37924E+03  3.40862E+03  1.00683E+04 -2.42618E+03  9.46938E+03
 -7.37528E+03  5.08389E+03 -8.26794E+03 -1.30484E+03 -4.47918E+03 -6.09870E+03  8.29813E+02 -5.82910E+03
  6.32773E+03 -3.06719E+03  4.97467E+03  2.75931E+03  1.60367E+03  5.58576E+03 -7.92061E+02  4.63658E+03
 -2.55770E+03  3.79100E+03 -2.03967E+03  1.31396E+02 -1.30452E+03  8.02369E+01 -1.54740E+03  1.25869E+03
 -2.79432E+03  3.21219E+03 -7.68335E+03  3.70763E+03 -1.04018E+04  1.62841E+02 -1.06743E+04 -6.63978E+03
 -5.71185E+03 -1.24400E+04  2.74763E+03 -1.51124E+04  8.25770E+03 -1.15481E+04  1.41028E+04 -4.71297E+03
  1.35294E+04  3.04239E+03  8.38022E+03  9.45904E+03  1.09986E+03  1.03636E+04 -3.80062E+03  7.77445E+03
 -6.15934E+03  3.26543E+03 -3.57911E+03 -1.39301E+03 -1.91553E+03 -8.60778E+02  1.84750E+01  3.09332E+02
 -2.83838E+03  5.77506E+02 -2.31150E+03 -5.39242E+02 -5.06430E+02 -2.29500E+03  5.45232E+02 -4.98394E+03
  4.44346E+03 -2.86311E+03  6.23211E+03  7.65369E+01  7.77540E+03  5.34047E+03  2.45149E+03  9.72365E+03
 -5.54093E+03  1.23693E+04 -1.15189E+04  7.40239E+03 -1.31394E+04 -1.25562E+03 -9.82639E+03 -7.67321E+03
 -4.05372E+03 -1.07716E+04  3.18203E+03 -1.01447E+04  6.35463E+03 -5.88376E+03  6.40832E+03  2.29176E+02
  3.39115E+03  3.40602E+03 -4.64561E+02  2.77576E+03 -1.93087E+03 -5.14156E+02 -1.52493E+02 -2.04398E+03
  4.01029E+03 -2.02164E+03  3.56402E+03  1.31272E+03  2.70313E+03  4.40715E+03 -8.67207E+01  5.41175E+03
 -3.81239E+03  4.20518E+03 -7.32049E+03  1.35076E+03 -6.37048E+03 -5.33085E+03 -2.55953E+02 -8.87686E+03
  4.70826E+03 -8.26426E+03  7.87978E+03 -2.44197E+03  8.52957E+03  1.62077E+03  5.43084E+03  7.04743E+03
  1.31765E+03  7.59165E+03 -2.48898E+03  5.48006E+03 -5.10130E+03  2.92959E+03 -3.32112E+03 -4.24500E+01
 -2.51716E+03 -6.43152E+02 -2.05054E+03  1.10823E+03 -3.54723E+03  1.28396E+03 -5.06030E+03 -1.29540E+03
 -5.58571E+03 -4.09815E+03 -1.80829E+03 -7.37076E+03  1.95022E+03 -7.47987E+03  6.14151E+03 -2.74520E+03
  7.77284E+03  1.14087E+03  3.34299E+03  5.20286E+03 -1.09492E+03  7.06647E+03 -4.67793E+03  4.58085E+03
