 $NMID ID='MM_0lb_SNR400_10hz_g40_11.RAW', FMTDAT='(8E13.5)'
 TRAMP=1., VOLUME=1. $END
  3.09105E+05  1.00567E+03  3.37905E+05  2.50220E+05  8.50505E+04  3.38105E+05 -1.32337E+05  2.51657E+05
 -1.90640E+05  8.34872E+04 -1.13218E+05 -3.25792E+04  2.65882E+02 -5.04278E+04  5.34906E+04  3.29132E+02
  3.55425E+04  5.26787E+04 -1.67556E+04  7.58942E+04 -6.05295E+04  6.42944E+04 -8.44405E+04  3.24317E+04
 -8.19778E+04 -1.18823E+04 -5.81952E+04 -5.16960E+04 -1.51724E+04 -7.01278E+04  2.78781E+04 -4.67631E+04
  4.01711E+04  3.58542E+03  1.65181E+04  4.82598E+04 -3.44029E+04  4.79142E+04 -6.80054E+04  3.74784E+02
 -5.37239E+04 -5.72476E+04 -6.56767E+03 -7.75731E+04  3.36952E+04 -5.57775E+04  4.87334E+04 -1.82061E+04
  4.45052E+04  1.11294E+04  3.17488E+04  2.62811E+04  1.65235E+04  2.98641E+04 -5.97791E+03  2.79279E+04
 -2.23819E+04  1.16559E+04 -1.81797E+04 -5.20726E+03  6.29188E+03 -7.58121E+03  2.30034E+04  1.30892E+04
  6.90912E+03  3.61720E+04 -3.30370E+04  3.67227E+04 -6.54774E+04  1.47134E+03 -5.81875E+04 -4.36841E+04
 -1.25899E+04 -6.48628E+04  4.12072E+04 -4.72638E+04  6.03996E+04 -2.56069E+03  3.57443E+04  3.34172E+04
 -6.12658E+03  3.76275E+04 -3.12613E+04  1.75948E+04 -3.26937E+04 -4.24665E+03 -1.78357E+04 -1.23270E+04
 -8.97664E+03 -1.45979E+04 -1.00203E+03 -1.89972E+04  7.77918E+03 -2.36009E+04  1.53368E+04 -1.33426E+04
  1.13461E+04  5.22093E+03 -1.00329E+04  1.30537E+04 -2.30430E+04 -5.41118E+03 -9.10746E+03 -3.54440E+04
  2.41666E+04 -4.55989E+04  5.05841E+04 -2.04930E+04  4.76460E+04  2.01346E+04  1.71451E+04  4.56109E+04
 -1.68884E+04  3.49024E+04 -2.74576E+04  1.80711E+03 -1.09159E+04 -2.91288E+04  2.16713E+04 -3.58219E+04
  4.33701E+04 -1.02370E+04  3.85999E+04  2.41677E+04  2.02719E+04  4.93444E+04 -8.48042E+03  5.38043E+04
 -3.35635E+04  3.64660E+04 -4.56477E+04  1.03064E+04 -4.62680E+04 -1.80327E+04 -2.54505E+04 -4.01580E+04
  7.41571E+03 -4.00645E+04  3.36484E+04 -1.63101E+04  3.06523E+04  1.05830E+04  4.67950E+03  1.95318E+04
 -1.39321E+04  8.88876E+03 -1.01497E+04 -7.76782E+03  5.81305E+03 -1.17631E+04  1.75875E+04  5.35531E+03
  1.35053E+04  2.20463E+04 -4.96103E+03  2.69222E+04 -2.27860E+04  1.31333E+04 -3.03555E+04 -4.07931E+03
 -2.36769E+04 -1.78434E+04 -1.10533E+04 -2.38343E+04  4.56096E+03 -2.32170E+04  1.78074E+04 -2.06829E+04
  3.01604E+04 -1.35749E+04  3.62504E+04  3.92892E+03  2.59458E+04  2.37482E+04  3.40378E+03  3.98800E+04
 -1.88487E+04  3.28728E+04 -2.93031E+04  1.18560E+04 -2.24040E+04 -1.02674E+04 -3.88209E+03 -1.22086E+04
  7.86922E+02 -2.54755E+03 -6.61801E+03  8.47332E+03 -1.85097E+04  4.69314E+03 -1.83998E+04 -8.31762E+03
 -1.11592E+04 -2.20920E+04  5.53162E+03 -2.62234E+04  1.70470E+04 -1.93261E+04  2.14194E+04 -1.47529E+03
  1.33572E+04  1.55227E+04 -9.10920E+02  2.20584E+04 -1.54108E+04  1.22250E+04 -2.23363E+04 -3.97371E+03
 -1.60226E+04 -1.91573E+04 -1.84808E+03 -2.58914E+04  1.10331E+04 -2.13222E+04  2.20675E+04 -1.13186E+04
  1.96881E+04 -2.51515E+02  1.45878E+04  5.13234E+03  8.07375E+03  9.36655E+02  1.06566E+04 -1.65385E+03
  2.04996E+04  2.88649E+03  2.33803E+04  1.77616E+04  1.53003E+04  3.50872E+04 -3.51183E+03  3.93862E+04
 -2.35453E+04  3.33768E+04 -3.80983E+04  1.71963E+04 -3.98658E+04 -3.27105E+03 -3.24438E+04 -2.29079E+04
 -1.28664E+04 -3.31311E+04  1.18809E+04 -2.98334E+04  2.49834E+04 -1.46860E+04  2.24513E+04  7.51747E+03
  7.66681E+03  1.71020E+04 -1.05720E+04  1.50034E+04 -1.77480E+04  2.14907E+03 -1.40236E+04 -1.16974E+04
 -4.10484E+02 -1.75777E+04  9.18424E+03 -1.33945E+04  1.21028E+04 -1.40934E+03  2.84264E+03  8.24454E+03
 -7.98590E+03  3.61703E+03 -7.35811E+03 -7.16588E+03 -1.25311E+03 -1.61406E+04  1.11719E+04 -1.77112E+04
  2.04714E+04 -1.01186E+04  2.34191E+04  2.97511E+03  1.98320E+04  1.63453E+04  9.89196E+03  2.53322E+04
 -4.61822E+03  2.73289E+04 -1.78401E+04  1.77074E+04 -2.06194E+04  3.39132E+03 -1.35803E+04 -4.84640E+03
 -5.55044E+03 -6.11859E+03 -2.80093E+02  6.89740E+02 -3.69365E+03  3.20434E+03 -6.31969E+03  4.89807E+03
 -1.30486E+04 -5.25449E+02 -1.39885E+04 -1.05560E+04 -5.24949E+03 -1.80277E+04  5.94815E+03 -1.38046E+04
  1.12304E+04 -6.18450E+03  7.19512E+03  4.52981E+03 -2.63629E+02  6.02318E+03 -6.97484E+03  7.63239E+01
 -6.14291E+03 -8.24639E+03 -8.02908E+02 -1.40586E+04  7.73374E+03 -1.43350E+04  1.86404E+04 -7.62962E+03
  2.11254E+04  1.92936E+03  1.49556E+04  1.25782E+04  2.86296E+03  1.71073E+04 -8.43052E+03  1.40800E+04
 -1.12429E+04  4.39716E+03 -5.54188E+03 -2.43004E+03  1.72664E+03 -3.89783E+03  7.93172E+03 -9.31932E+02
  7.09098E+03  5.95901E+03  1.08789E+03  1.06098E+04 -8.32941E+03  1.05404E+04 -1.36595E+04  1.93085E+03
 -1.01974E+04 -6.74702E+03  2.59466E+02 -1.20709E+04  7.25219E+03 -6.05764E+03  7.81168E+03  2.94603E+03
  1.66471E+03  9.13763E+03 -7.40324E+03  1.01606E+04 -1.11372E+04  4.00971E+03 -1.16648E+04 -4.29799E+03
 -7.33851E+03 -1.34739E+04  3.12910E+03 -1.63016E+04  1.41873E+04 -9.07572E+03  1.48132E+04  2.30389E+03
  9.24595E+03  1.12108E+04 -1.36113E+03  1.37733E+04 -1.03738E+04  7.71938E+03 -1.08605E+04 -1.59493E+03
 -9.24546E+03 -9.15838E+03 -1.47309E+03 -1.06021E+04  5.09009E+03 -8.69264E+03  6.03130E+03 -4.34407E+03
  4.98772E+03  2.35828E+03 -2.50876E+02  1.32856E+03 -5.62530E+01 -2.89421E+03  2.07133E+03 -6.61947E+03
  9.36851E+03 -3.80503E+03  1.40250E+04  2.35468E+03  1.37258E+04  9.43064E+03  9.53509E+03  1.80644E+04
 -3.88188E+03  1.99997E+04 -1.69225E+04  1.45002E+04 -2.18466E+04  3.51834E+03 -1.79016E+04 -8.60457E+03
 -8.45282E+03 -1.40957E+04 -6.47138E+02 -1.23714E+04  3.71277E+03 -6.42271E+03  4.35558E+03 -3.78699E+03
  4.20769E+03 -2.23027E+03  3.75757E+03 -3.68859E+03  5.80777E+03 -3.09619E+03  6.95547E+03 -5.55232E+02
  9.27087E+03  2.24647E+03  4.98205E+03  7.65514E+03 -2.21348E+03  9.36549E+03 -1.08651E+04  7.08046E+03
 -1.16943E+04 -2.05209E+03 -7.80623E+03 -8.70841E+03 -1.18926E+03 -1.26802E+04  7.63433E+03 -1.32508E+04
  1.43074E+04 -7.11697E+03  1.62714E+04  1.82757E+03  1.12146E+04  1.13010E+04  1.43156E+03  1.49621E+04
 -6.10216E+03  1.22893E+04 -8.73278E+03  4.54886E+03 -4.98956E+03 -1.05682E+03 -2.44409E+03 -2.31566E+03
 -4.27107E+02 -6.07779E+02 -1.64202E+03  3.03655E+03 -5.00726E+03  2.40099E+03 -8.89982E+03 -1.47961E+03
 -5.56458E+03 -8.14451E+03  4.69781E+02 -1.30581E+04  8.02604E+03 -1.12103E+04  1.20850E+04 -3.37077E+03
  1.24804E+04  5.57298E+03  5.18115E+03  1.09441E+04 -3.18476E+03  1.27991E+04 -8.15614E+03  7.42333E+03
 -1.17622E+04  1.23446E+02 -8.36570E+03 -8.05855E+03 -1.23945E+03 -1.03769E+04  5.23181E+03 -7.76133E+03
  8.27907E+03 -1.76841E+03  5.56745E+03  2.39888E+03  2.15443E+03  3.72610E+03  1.90321E+03  1.54645E+03
  2.86335E+03  7.32331E+02  2.73714E+03  9.64387E+02  4.14205E+03  3.78318E+03  3.33424E+03  7.12568E+03
 -2.71450E+03  9.76802E+03 -8.91987E+03  1.02519E+04 -1.18199E+04  2.12241E+03 -1.29250E+04 -5.03800E+03
 -5.58129E+03 -1.25041E+04  2.86071E+03 -1.35885E+04  7.19886E+03 -8.39898E+03  9.50269E+03 -2.39850E+03
  7.84220E+03  4.81442E+03  2.15168E+03  6.50970E+03 -3.59747E+03  4.24503E+03 -5.21956E+03 -6.17911E+02
 -2.61164E+03 -4.97562E+03  2.90740E+03 -4.89848E+03  5.17638E+03 -2.03028E+03  4.46821E+03  1.91078E+03
  2.65383E+03  2.48247E+03  1.56477E+03  2.32764E+03 -2.69685E+02  1.60273E+03  1.50855E+03 -8.80082E+02
  2.38453E+03 -1.75103E+03  5.23497E+03  1.46941E+03  2.72490E+03  6.54294E+03 -7.40811E+02  8.58120E+03
 -6.01169E+03  6.13776E+03 -7.94270E+03  1.91164E+03 -7.05277E+03 -2.99306E+03 -1.85870E+03 -4.71924E+03
  4.94849E+02 -4.99827E+03  3.18117E+03 -2.37909E+03  2.82996E+03  2.28455E+03 -1.19631E+03  4.18800E+03
 -4.07756E+03  2.60099E+03 -5.62847E+03 -3.23701E+03 -3.66009E+03 -6.97925E+03  1.08708E+03 -6.86755E+03
  4.23008E+03 -4.01909E+03  5.57351E+03 -9.65668E+01  4.13660E+03  1.75883E+03  7.99567E+02  3.02505E+03
 -2.93646E+03  1.49495E+03 -3.31595E+03 -1.93529E+03  1.09093E+03 -5.53453E+03  5.56786E+03 -3.54708E+03
  7.58977E+03  2.19503E+02  7.85337E+03  4.88310E+03  2.40947E+03  8.10262E+03 -2.46650E+03  7.39907E+03
 -5.77432E+03  2.75824E+03 -7.28986E+03 -1.32227E+03 -3.45767E+03 -5.18030E+03  4.17629E+02 -4.73067E+03
  4.97804E+03 -2.28842E+03  4.21025E+03  1.25695E+03  1.08495E+03  4.59458E+03 -6.71804E+02  3.58092E+03
 -2.13527E+03  3.43358E+03 -1.20351E+03  9.27299E+02 -1.08819E+03  1.70812E+02 -1.51976E+03  2.22826E+03
 -2.14173E+03  2.85748E+03 -4.65481E+03  3.35516E+03 -8.56585E+03  2.32970E+02 -9.29999E+03 -4.93638E+03
 -4.96353E+03 -1.07635E+04  1.85813E+03 -1.19892E+04  8.09737E+03 -9.30714E+03  1.18768E+04 -3.39926E+03
  1.14793E+04  2.40663E+03  5.77082E+03  7.28440E+03  9.33378E+02  8.28308E+03 -2.64745E+03  6.02044E+03
 -4.53878E+03  1.92860E+03 -3.07474E+03 -1.26114E+03 -1.92413E+02 -4.78438E+02 -2.29503E+02  1.22294E+02
 -1.24319E+03  1.32852E+02 -1.92115E+03 -4.26044E+02 -1.12383E+02 -1.70944E+03  5.99616E+02 -3.36521E+03
  4.17267E+03 -2.72093E+03  4.54391E+03 -5.66478E+02  5.90853E+03  4.58269E+03  1.58261E+03  8.31876E+03
 -3.25494E+03  1.00822E+04 -8.33343E+03  5.47616E+03 -1.04125E+04 -8.95430E+02 -8.05213E+03 -6.52365E+03
 -2.54284E+03 -8.34099E+03  1.99805E+03 -7.37400E+03  4.94954E+03 -4.70685E+03  5.23721E+03  4.40426E+01
  3.54593E+03  3.47826E+03 -5.75495E+02  2.61277E+03 -1.39834E+03 -1.11230E+03  6.60390E+02 -1.33295E+03
  1.92181E+03 -1.40001E+03  3.14779E+03  1.33457E+03  2.21134E+03  3.59728E+03  5.66038E+02  3.69866E+03
 -3.14405E+03  3.93467E+03 -5.43437E+03  2.30312E+02 -5.11779E+03 -3.72936E+03 -1.31634E+02 -6.42808E+03
  3.95052E+03 -5.64148E+03  6.50934E+03 -2.44401E+03  6.27467E+03  9.61457E+02  3.62573E+03  5.49082E+03
  7.36555E+02  4.83217E+03 -2.03045E+03  3.94600E+03 -3.75706E+03  2.68488E+03 -3.00790E+03  3.33788E+02
 -1.27404E+03 -3.77017E+02 -1.62499E+03  1.11718E+03 -3.27530E+03  1.01459E+03 -4.09935E+03 -6.72215E+02
 -5.35573E+03 -2.20390E+03 -1.23546E+03 -4.98947E+03  2.17664E+03 -5.48211E+03  4.58920E+03 -2.54838E+03
  4.43064E+03  6.99886E+02  2.04829E+03  3.86759E+03 -3.89783E+02  5.92208E+03 -4.33454E+03  3.95780E+03
