 $NMID ID='MM_0lb_SNR400_9hz_g60_46.RAW', FMTDAT='(8E13.5)'
 TRAMP=1., VOLUME=1. $END
  3.09547E+05  6.86793E+02  3.38470E+05  2.51176E+05  8.45521E+04  3.38952E+05 -1.32627E+05  2.52180E+05
 -1.90785E+05  8.38937E+04 -1.12648E+05 -3.22607E+04  7.14218E+02 -5.00809E+04  5.35808E+04 -2.19550E+02
  3.61227E+04  5.24413E+04 -1.72537E+04  7.64081E+04 -6.12440E+04  6.53877E+04 -8.61721E+04  3.25256E+04
 -8.29766E+04 -1.21756E+04 -5.82260E+04 -5.26587E+04 -1.57717E+04 -7.18036E+04  2.80231E+04 -4.74640E+04
  4.11959E+04  4.51752E+03  1.64069E+04  4.83365E+04 -3.51604E+04  4.82082E+04 -6.82205E+04 -1.44805E+02
 -5.54368E+04 -5.80789E+04 -6.76213E+03 -7.93121E+04  3.53511E+04 -5.79448E+04  4.95572E+04 -1.81306E+04
  4.64094E+04  1.04780E+04  3.28350E+04  2.71631E+04  1.59150E+04  3.04926E+04 -5.94231E+03  2.72724E+04
 -2.17719E+04  1.20184E+04 -1.82569E+04 -5.74063E+03  7.09733E+03 -7.22719E+03  2.49906E+04  1.38423E+04
  7.40936E+03  3.78144E+04 -3.38931E+04  3.82553E+04 -6.66762E+04  2.31537E+03 -5.92766E+04 -4.52978E+04
 -1.28049E+04 -6.62082E+04  4.23603E+04 -4.81733E+04  6.24341E+04 -3.29063E+03  3.74104E+04  3.52956E+04
 -5.43269E+03  3.99366E+04 -3.23181E+04  1.97231E+04 -3.41717E+04 -3.43229E+03 -1.98875E+04 -1.19127E+04
 -9.85094E+03 -1.58647E+04 -1.06167E+03 -2.02327E+04  8.14770E+03 -2.36655E+04  1.60198E+04 -1.21079E+04
  9.54822E+03  5.42085E+03 -1.12088E+04  1.24374E+04 -2.31653E+04 -7.09031E+03 -8.54459E+03 -3.87373E+04
  2.50723E+04 -4.70666E+04  5.33045E+04 -2.11867E+04  4.88097E+04  2.05275E+04  1.76313E+04  4.76416E+04
 -1.64791E+04  3.67118E+04 -2.78071E+04  1.88155E+03 -1.23968E+04 -3.00848E+04  2.16737E+04 -3.73254E+04
  4.54423E+04 -1.11857E+04  4.20431E+04  2.43318E+04  2.20909E+04  5.15468E+04 -8.40447E+03  5.67229E+04
 -3.67672E+04  4.02437E+04 -4.88392E+04  1.15660E+04 -4.91110E+04 -1.96052E+04 -2.69295E+04 -4.32565E+04
  8.38808E+03 -4.26240E+04  3.49598E+04 -1.76053E+04  3.31782E+04  1.00871E+04  5.83689E+03  2.04879E+04
 -1.42617E+04  9.55617E+03 -1.13146E+04 -8.13091E+03  6.24173E+03 -1.25567E+04  1.92028E+04  4.59862E+03
  1.51683E+04  2.31693E+04 -5.60295E+03  2.79038E+04 -2.38906E+04  1.60542E+04 -3.25367E+04 -2.24861E+03
 -2.65948E+04 -1.90789E+04 -1.18301E+04 -2.62083E+04  3.95888E+03 -2.71717E+04  2.13399E+04 -2.41374E+04
  3.32754E+04 -1.47319E+04  3.99166E+04  5.48763E+03  2.74088E+04  2.56555E+04  5.31997E+03  4.30550E+04
 -1.95233E+04  3.58480E+04 -3.13638E+04  1.31973E+04 -2.24062E+04 -1.01588E+04 -5.08007E+03 -1.28168E+04
  6.36035E+02 -9.85510E+02 -8.86254E+03  8.58688E+03 -2.15611E+04  3.93056E+03 -2.12238E+04 -1.03413E+04
 -1.30645E+04 -2.43478E+04  5.61889E+03 -2.84728E+04  1.92223E+04 -2.03808E+04  2.39662E+04 -1.39370E+03
  1.50177E+04  1.70654E+04 -1.89069E+03  2.44335E+04 -1.71852E+04  1.39909E+04 -2.49871E+04 -5.90490E+03
 -1.84674E+04 -2.19753E+04 -2.44135E+03 -2.96932E+04  1.30780E+04 -2.43278E+04  2.32120E+04 -1.25063E+04
  2.29195E+04  2.87566E+02  1.59150E+04  5.91149E+03  8.99105E+03  1.81266E+03  1.24241E+04 -1.84942E+03
  2.33881E+04  3.06704E+03  2.71997E+04  1.87222E+04  1.79933E+04  4.01234E+04 -2.14862E+03  4.66740E+04
 -2.68371E+04  3.90360E+04 -4.36700E+04  2.07047E+04 -4.67139E+04 -3.05268E+03 -3.73577E+04 -2.78252E+04
 -1.47708E+04 -3.94208E+04  1.37531E+04 -3.38025E+04  2.85163E+04 -1.58046E+04  2.48672E+04  7.77912E+03
  7.65593E+03  1.98089E+04 -1.18424E+04  1.53544E+04 -2.13161E+04  2.40457E+03 -1.56100E+04 -1.39407E+04
 -1.18809E+03 -2.04330E+04  1.06555E+04 -1.54829E+04  1.45987E+04 -7.81102E+02  3.49217E+03  8.78426E+03
 -9.24817E+03  4.98684E+03 -1.01772E+04 -6.77207E+03 -2.06488E+03 -1.82633E+04  1.25511E+04 -2.05649E+04
  2.38152E+04 -1.18781E+04  2.78724E+04  2.75753E+03  2.45229E+04  1.94481E+04  1.06491E+04  3.12306E+04
 -6.84078E+03  3.29784E+04 -2.17282E+04  2.03700E+04 -2.43658E+04  4.27465E+03 -1.66816E+04 -5.98246E+03
 -6.77154E+03 -7.97500E+03  1.32068E+02  1.46792E+02 -2.65781E+03  4.38798E+03 -8.52266E+03  4.59118E+03
 -1.45522E+04 -9.50808E+02 -1.54208E+04 -1.23260E+04 -6.56861E+03 -1.99629E+04  6.70854E+03 -1.69012E+04
  1.42312E+04 -7.47780E+03  9.64194E+03  4.03490E+03 -9.86426E+02  6.10899E+03 -8.79474E+03 -3.61506E+01
 -7.67102E+03 -1.05891E+04 -1.22669E+03 -1.67867E+04  1.00016E+04 -1.76575E+04  2.11616E+04 -9.97747E+03
  2.51610E+04  2.14790E+03  1.80215E+04  1.56016E+04  3.94223E+03  2.08382E+04 -1.07015E+04  1.60223E+04
 -1.31791E+04  4.83057E+03 -7.66330E+03 -3.03239E+03  2.54984E+03 -4.67262E+03  7.95628E+03 -1.65925E+03
  8.67775E+03  7.51540E+03  6.59062E+02  1.32335E+04 -9.85247E+03  1.25575E+04 -1.69926E+04  3.68128E+03
 -1.11105E+04 -8.94557E+03  4.42870E+02 -1.44909E+04  9.66711E+03 -7.40555E+03  9.72054E+03  3.29565E+03
  2.46870E+03  1.10062E+04 -8.20116E+03  1.21879E+04 -1.46489E+04  5.11777E+03 -1.57647E+04 -5.29841E+03
 -8.10928E+03 -1.66693E+04  4.22612E+03 -1.93234E+04  1.66630E+04 -1.18033E+04  1.75615E+04  3.52542E+03
  1.07101E+04  1.42327E+04 -2.97478E+03  1.70893E+04 -1.21727E+04  9.12933E+03 -1.33179E+04 -1.01820E+03
 -1.14408E+04 -1.10294E+04 -1.89118E+03 -1.30090E+04  6.40586E+03 -1.03885E+04  8.03940E+03 -3.89721E+03
  5.06886E+03  2.82264E+03 -1.11811E+03  2.22271E+03 -1.11240E+03 -3.56730E+03  2.22780E+03 -8.85787E+03
  1.26668E+04 -5.17561E+03  1.68388E+04  2.81418E+03  1.68427E+04  1.21784E+04  1.07720E+04  2.28536E+04
 -5.79225E+03  2.51617E+04 -2.18181E+04  1.92699E+04 -2.78867E+04  4.56509E+03 -2.36705E+04 -1.06060E+04
 -1.12037E+04 -1.84408E+04  3.05409E+02 -1.56285E+04  6.46937E+03 -9.65367E+03  5.39095E+03 -5.60541E+03
  4.08601E+03 -3.57217E+03  4.43429E+03 -3.90084E+03  6.70259E+03 -4.05069E+03  8.82629E+03 -2.11151E+03
  1.17986E+04  2.41136E+03  6.08393E+03  1.00371E+04 -2.06392E+03  1.19993E+04 -1.14495E+04  9.64728E+03
 -1.53499E+04 -1.40324E+03 -1.07398E+04 -1.20366E+04 -1.72630E+03 -1.73596E+04  9.89066E+03 -1.70272E+04
  1.74218E+04 -9.61260E+03  2.15290E+04  2.23131E+03  1.40383E+04  1.48000E+04  1.41228E+03  1.92683E+04
 -8.14042E+03  1.51200E+04 -1.20040E+04  5.56504E+03 -7.99381E+03 -1.46708E+03 -3.32769E+03 -3.06525E+03
 -1.09272E+03  3.13764E+02 -3.30751E+03  2.99202E+03 -6.77395E+03  3.31863E+03 -1.10393E+04 -1.24721E+03
 -8.13501E+03 -1.13134E+04  7.01744E+02 -1.64068E+04  1.04359E+04 -1.46216E+04  1.68204E+04 -5.22673E+03
  1.56081E+04  7.32266E+03  7.58524E+03  1.46582E+04 -3.92744E+03  1.65514E+04 -1.14090E+04  1.03175E+04
 -1.55526E+04  3.03890E+02 -1.22896E+04 -1.00899E+04 -1.17987E+03 -1.34888E+04  7.65524E+03 -1.00479E+04
  1.04997E+04 -2.91043E+03  7.75788E+03  2.99407E+03  3.34568E+03  4.55585E+03  1.78522E+03  2.56982E+03
  2.67770E+03  9.16949E+02  3.97968E+03  2.46250E+03  4.74359E+03  5.46812E+03  4.38997E+03  7.90940E+03
 -3.49822E+03  1.34645E+04 -1.11814E+04  1.28971E+04 -1.65162E+04  3.33889E+03 -1.72925E+04 -6.71118E+03
 -8.06494E+03 -1.60430E+04  1.88183E+03 -1.84842E+04  1.01654E+04 -1.21628E+04  1.37217E+04 -3.08290E+03
  9.75146E+03  6.36590E+03  2.03961E+03  9.34715E+03 -4.02797E+03  6.50115E+03 -7.04442E+03 -1.00742E+03
 -2.83361E+03 -7.18464E+03  4.03111E+03 -8.42000E+03  7.07019E+03 -3.13083E+03  7.08538E+03  1.95970E+03
  4.63810E+03  3.06071E+03  1.99405E+03  2.78237E+03 -8.81504E+02  2.42539E+03  1.53057E+03 -1.33351E+03
  3.33805E+03 -1.21833E+03  6.14444E+03  2.05028E+03  3.95236E+03  9.54797E+03 -1.18551E+03  1.20255E+04
 -7.90465E+03  7.77746E+03 -1.08772E+04  2.12052E+03 -8.90952E+03 -3.36883E+03 -4.10533E+03 -6.74527E+03
  6.65974E+02 -6.04947E+03  4.12441E+03 -3.68191E+03  2.03023E+03  2.58497E+03 -8.00780E+02  5.97281E+03
 -7.82031E+03  2.53217E+03 -7.51697E+03 -4.45112E+03 -4.03612E+03 -9.53256E+03  2.13123E+02 -9.64191E+03
  4.76902E+03 -5.69766E+03  6.74842E+03 -1.37759E+03  5.56896E+03  2.78038E+03  5.01859E+02  4.57482E+03
 -2.93608E+03  1.03095E+03 -4.12600E+03 -3.52678E+03  2.10877E+03 -7.26454E+03  7.84791E+03 -5.44695E+03
  1.07748E+04  4.45133E+02  1.01992E+04  7.12545E+03  3.83593E+03  1.14579E+04 -4.50700E+03  1.08070E+04
 -8.53782E+03  4.85529E+03 -9.14726E+03 -1.38276E+03 -5.94350E+03 -6.91502E+03  1.44961E+03 -6.94530E+03
  6.68032E+03 -2.50149E+03  6.57530E+03  3.65035E+03  2.38793E+03  6.09106E+03 -1.06635E+03  4.64075E+03
 -3.11076E+03  3.17795E+03 -2.95872E+03  1.81635E+03 -1.94109E+03  1.73924E+03 -1.76763E+03  1.75495E+03
 -2.65269E+03  4.42866E+03 -7.90447E+03  3.35752E+03 -1.02270E+04  4.91494E+02 -1.22925E+04 -7.19561E+03
 -6.58216E+03 -1.52187E+04  3.40180E+03 -1.66990E+04  1.04206E+04 -1.32159E+04  1.61790E+04 -4.11411E+03
  1.45263E+04  3.07024E+03  9.10595E+03  1.03302E+04  7.35649E+02  1.14397E+04 -4.25139E+03  8.43076E+03
 -6.75382E+03  3.36097E+03 -4.03917E+03 -7.28527E+02 -1.81774E+03 -9.65125E+02 -4.61046E+02 -3.55291E+02
 -1.86857E+03 -5.61102E+00 -2.27178E+03 -1.81866E+02 -1.00429E+03 -2.60579E+03  6.27854E+02 -3.54708E+03
  5.01805E+03 -3.07138E+03  6.87866E+03 -2.87834E+02  7.41760E+03  5.98621E+03  1.78850E+03  1.14610E+04
 -5.07286E+03  1.34395E+04 -1.28889E+04  8.49231E+03 -1.43322E+04 -1.18813E+03 -1.04516E+04 -8.19620E+03
 -4.80896E+03 -1.18303E+04  2.65396E+03 -1.06566E+04  7.35758E+03 -5.96659E+03  7.51401E+03  1.43563E+02
  4.27910E+03  3.10429E+03  3.30191E+01  3.54489E+03 -1.98196E+03 -8.03294E+02  5.46441E+02 -2.88518E+03
  3.29315E+03 -1.70735E+03  4.50213E+03  1.79835E+03  3.16097E+03  4.48896E+03 -3.49442E+02  6.14275E+03
 -5.47056E+03  4.90861E+03 -8.39596E+03  6.82717E+02 -6.38502E+03 -4.55287E+03 -1.21802E+03 -9.04495E+03
  5.46814E+03 -7.83097E+03  9.48170E+03 -2.03295E+03  9.42058E+03  2.22599E+03  5.20817E+03  6.85624E+03
  3.66483E+02  7.35306E+03 -3.18344E+03  6.43630E+03 -3.99920E+03  2.46239E+03 -4.03436E+03 -1.28116E+02
 -1.61222E+03  3.40654E+02 -1.88284E+03  8.43182E+02 -3.73391E+03  1.30774E+03 -5.37973E+03 -6.37984E+02
 -5.77516E+03 -4.71146E+03 -2.04577E+03 -7.63363E+03  3.86078E+03 -7.97050E+03  6.47081E+03 -3.03105E+03
  7.36474E+03  2.21207E+02  4.23268E+03  5.41131E+03 -7.31507E+02  6.99479E+03 -6.05597E+03  5.83296E+03
