 $NMID ID='MM_0lb_SNR400_17hz_g45_79.RAW', FMTDAT='(8E13.5)'
 TRAMP=1., VOLUME=1. $END
  3.09555E+05  8.26264E+02  3.37435E+05  2.50601E+05  8.45887E+04  3.36923E+05 -1.32606E+05  2.49970E+05
 -1.89414E+05  8.29308E+04 -1.10658E+05 -3.33542E+04  1.29855E+03 -4.99564E+04  5.40224E+04  7.91564E+02
  3.58328E+04  5.31471E+04 -1.69407E+04  7.53558E+04 -6.07209E+04  6.29077E+04 -8.35177E+04  3.17498E+04
 -7.98613E+04 -1.10205E+04 -5.68686E+04 -5.04997E+04 -1.47706E+04 -6.83567E+04  2.66038E+04 -4.50600E+04
  3.95326E+04  4.01622E+03  1.55528E+04  4.71517E+04 -3.42025E+04  4.64675E+04 -6.53751E+04 -1.66942E+02
 -5.21987E+04 -5.64580E+04 -6.12277E+03 -7.58995E+04  3.34318E+04 -5.35845E+04  4.68557E+04 -1.64698E+04
  4.23822E+04  1.11413E+04  3.08885E+04  2.47065E+04  1.53056E+04  2.84589E+04 -4.93843E+03  2.68728E+04
 -2.14189E+04  1.26640E+04 -1.93535E+04 -4.48262E+03  4.57258E+03 -7.33067E+03  2.13859E+04  1.12592E+04
  7.36497E+03  3.40649E+04 -3.05820E+04  3.44643E+04 -6.19487E+04  1.74023E+03 -5.59294E+04 -4.18434E+04
 -1.24252E+04 -6.15482E+04  3.84550E+04 -4.39631E+04  5.68658E+04 -1.90688E+03  3.23627E+04  3.08181E+04
 -6.05303E+03  3.39402E+04 -2.92858E+04  1.37596E+04 -2.85071E+04 -5.02716E+03 -1.48591E+04 -1.03510E+04
 -7.75861E+03 -1.16703E+04 -1.19283E+03 -1.67253E+04  6.70493E+03 -2.25615E+04  1.54336E+04 -1.44282E+04
  1.16122E+04  4.58017E+03 -6.94791E+03  1.34304E+04 -1.92408E+04 -3.10722E+03 -8.15657E+03 -3.15251E+04
  2.14893E+04 -4.15172E+04  4.60668E+04 -1.89717E+04  4.30362E+04  1.83630E+04  1.41814E+04  4.22607E+04
 -1.53622E+04  3.15983E+04 -2.36827E+04  1.45970E+03 -8.23902E+03 -2.65795E+04  2.06479E+04 -3.15757E+04
  3.88233E+04 -7.53171E+03  3.21563E+04  2.30728E+04  1.65158E+04  4.38429E+04 -7.61247E+03  4.63198E+04
 -2.93109E+04  3.03143E+04 -3.86400E+04  8.44593E+03 -3.95953E+04 -1.51384E+04 -2.14136E+04 -3.54614E+04
  7.32951E+03 -3.54791E+04  3.00750E+04 -1.29247E+04  2.71741E+04  1.09315E+04  3.09772E+03  1.79438E+04
 -1.35703E+04  7.85315E+03 -1.00562E+04 -7.81477E+03  5.36808E+03 -9.99563E+03  1.76806E+04  6.67620E+03
  1.25894E+04  2.14217E+04 -6.85264E+03  2.40779E+04 -2.10413E+04  9.04656E+03 -2.58796E+04 -6.15093E+03
 -1.78460E+04 -1.58632E+04 -5.56461E+03 -1.77839E+04  3.93756E+03 -1.64150E+04  1.33731E+04 -1.54597E+04
  2.29246E+04 -1.18481E+04  2.87161E+04  1.15882E+03  2.15538E+04  1.72733E+04  4.27338E+03  3.34166E+04
 -1.67114E+04  2.84043E+04 -2.57877E+04  1.02631E+04 -1.98454E+04 -1.04010E+04 -4.25301E+03 -1.36673E+04
  2.67750E+03 -3.91568E+03 -2.75153E+03  5.10472E+03 -1.38751E+04  5.17417E+03 -1.39226E+04 -5.31294E+03
 -9.17750E+03 -1.63045E+04  5.48796E+03 -2.02667E+04  1.31855E+04 -1.47199E+04  1.54778E+04 -1.36507E+03
  9.01222E+03  1.18136E+04 -1.12829E+03  1.66974E+04 -1.10001E+04  9.38434E+03 -1.61463E+04 -3.60910E+03
 -1.24364E+04 -1.52200E+04 -1.41767E+03 -2.00770E+04  8.92120E+03 -1.66900E+04  1.65971E+04 -8.18265E+03
  1.51937E+04  1.20211E+02  1.06941E+04  4.17853E+03  5.69330E+03  1.65361E+02  8.45892E+03 -1.27322E+03
  1.47547E+04  2.76392E+03  1.57922E+04  1.35128E+04  1.02013E+04  2.61930E+04 -2.98147E+03  2.84103E+04
 -1.66329E+04  2.19389E+04 -2.63148E+04  1.03706E+04 -2.70825E+04 -2.56853E+03 -2.32085E+04 -1.56327E+04
 -1.08514E+04 -2.25684E+04  7.43266E+03 -2.10795E+04  1.80528E+04 -1.06605E+04  1.62437E+04  4.51591E+03
  6.22803E+03  1.21425E+04 -7.87490E+03  1.06016E+04 -1.36748E+04  2.36921E+03 -1.07612E+04 -8.40655E+03
 -1.32664E+02 -1.35740E+04  6.67844E+03 -9.80531E+03  8.15672E+03 -1.68971E+03  1.22577E+03  5.40122E+03
 -6.00596E+03  1.68050E+03 -4.28398E+03 -4.68512E+03  1.03075E+02 -1.13250E+04  8.75699E+03 -1.10606E+04
  1.35743E+04 -5.11848E+03  1.35629E+04  2.55879E+03  1.17558E+04  1.08563E+04  5.17362E+03  1.53303E+04
 -1.77639E+03  1.73803E+04 -1.09942E+04  1.11630E+04 -1.24322E+04  3.10241E+03 -8.67806E+03 -2.79967E+03
 -5.02707E+03 -4.00676E+03 -1.08776E+03  1.30728E+03 -2.24271E+03  2.34595E+03 -4.09808E+03  3.45203E+03
 -8.24138E+03 -5.92784E+02 -9.24790E+03 -7.31080E+03 -4.18593E+03 -1.24942E+04  3.76198E+03 -9.40606E+03
  7.59605E+03 -3.71874E+03  5.77394E+03  2.26669E+03  4.28895E+02  3.12914E+03 -4.30105E+03  7.00523E+02
 -3.05750E+03 -5.90126E+03 -5.87730E+02 -8.02278E+03  4.67131E+03 -8.83674E+03  1.09265E+04 -4.48264E+03
  1.29281E+04  6.12163E+02  9.32824E+03  7.28049E+03  1.78777E+03  9.64014E+03 -5.79225E+03  8.75088E+03
 -7.26895E+03  2.77386E+03 -3.60802E+03 -1.55468E+03  1.26337E+03 -1.90901E+03  5.31810E+03 -9.43637E+02
  4.44327E+03  4.25768E+03  1.11960E+03  6.48779E+03 -4.73285E+03  6.76864E+03 -8.18310E+03  1.93974E+03
 -5.71214E+03 -3.63835E+03 -8.36887E+01 -7.61625E+03  4.26094E+03 -3.34427E+03  4.11467E+03  1.23447E+03
  2.33018E+02  3.30585E+03 -4.39609E+03  5.36455E+03 -5.23030E+03  2.98798E+03 -4.94640E+03 -1.84384E+03
 -3.42003E+03 -6.44680E+03  1.38858E+03 -8.22483E+03  7.10170E+03 -4.90690E+03  7.60151E+03  1.07857E+03
  5.25783E+03  6.56392E+03 -1.84103E+01  8.25772E+03 -5.89192E+03  4.58754E+03 -5.63029E+03 -7.97110E+02
 -5.66482E+03 -6.24399E+03 -9.78127E+02 -5.82922E+03  3.03469E+03 -5.29498E+03  3.71337E+03 -2.93963E+03
  2.72811E+03  3.05617E+01 -4.06416E+00  1.82498E+03  2.53922E+02 -7.29660E+02  5.02272E+02 -2.27112E+03
  4.62725E+03 -1.42265E+03  6.55216E+03  6.93386E+02  6.57528E+03  4.05033E+03  5.24606E+03  8.19588E+03
 -1.74451E+03  1.01221E+04 -9.05374E+03  7.51999E+03 -1.15208E+04  1.28868E+03 -9.41107E+03 -3.61796E+03
 -4.65605E+03 -7.66320E+03 -4.38989E+01 -5.73167E+03  2.40237E+03 -2.31773E+03  2.26634E+03 -1.97411E+03
  1.37697E+03 -1.15076E+03  2.25026E+03 -2.90564E+03  3.81095E+03 -1.33113E+03  4.24889E+03  6.63424E+02
  5.18883E+03  1.42250E+03  1.70919E+03  3.99801E+03 -1.58892E+03  3.64548E+03 -5.05038E+03  3.11042E+03
 -5.24089E+03 -9.02679E+02 -2.86687E+03 -3.42315E+03  1.70380E+02 -5.72002E+03  3.34517E+03 -5.84539E+03
  6.52763E+03 -3.57986E+03  7.72162E+03  1.35846E+02  5.44737E+03  4.88435E+03  1.16272E+03  7.02401E+03
 -2.41734E+03  6.66744E+03 -3.79356E+03  2.24430E+03 -1.95977E+03 -1.47372E+03 -6.41847E+02 -1.11890E+03
 -9.83444E+02  1.85577E+02 -1.16347E+03  2.09686E+03 -2.81926E+03  1.35452E+03 -4.38798E+03 -6.60758E+02
 -1.59174E+03 -4.52499E+03  7.93889E+02 -5.57369E+03  3.01286E+03 -5.38047E+03  4.43673E+03 -1.09355E+03
  5.79588E+03  2.78670E+03  2.57406E+03  4.08099E+03 -1.23424E+03  4.98252E+03 -3.15455E+03  3.03680E+03
 -4.56478E+03  5.87492E+02 -4.42480E+03 -2.70042E+03  4.98797E+01 -4.28081E+03  1.50609E+03 -3.50167E+03
  3.58384E+03 -1.55230E+03  1.71716E+03  9.82596E+02  1.21694E+02  1.99844E+03  1.29255E+03  5.23910E+02
  1.65870E+03  1.00156E+03  1.82850E+03  1.17087E+03  2.04254E+03  2.66918E+03  1.97016E+03  2.07524E+03
 -1.70405E+03  3.73597E+03 -3.67573E+03  4.40689E+03 -4.27388E+03  1.68285E+03 -5.20545E+03 -5.47209E+02
 -1.61223E+03 -4.19101E+03  1.14816E+03 -5.27949E+03  2.23067E+03 -3.13403E+03  3.48400E+03 -8.45958E+02
  2.94384E+03  2.10864E+03  8.75019E+02  2.73947E+03 -2.87009E+02  1.43298E+03 -9.16256E+02 -2.52454E+02
 -9.41639E+02 -1.69361E+03  1.47983E+03 -2.14000E+03  2.08202E+03 -1.67627E+03  1.52491E+03  6.36645E+02
  1.38427E+03  2.18713E+02  1.80561E+02 -2.57712E+02 -5.94991E+02  7.89912E+02  1.68212E+03  1.73245E+02
  7.40997E+02 -3.54192E+02  2.32444E+03  8.83683E+02  1.01987E+03  2.68490E+03 -4.84358E+02  4.10743E+03
 -2.32936E+03  1.13958E+03 -2.60122E+03  1.01119E+03 -2.00528E+03 -1.01284E+03 -3.38145E+02 -1.85751E+03
 -2.50230E+02 -1.67640E+03  1.23074E+03 -4.25785E+02  4.41759E+02  2.21144E+03 -1.01316E+03  1.79643E+03
 -1.97277E+03  9.38411E+02 -9.64984E+02 -1.10020E+03 -6.96763E+02 -2.43982E+03  1.02448E+03 -2.37759E+03
  8.40967E+02 -9.07521E+02  1.19385E+03 -1.94129E+02  1.45821E+03  1.60695E+02  9.15208E+02  8.16333E+02
 -4.23825E+02  1.40972E+02 -6.56077E+02 -1.00233E+03  6.61984E+02 -6.95334E+02  2.33129E+03 -1.83920E+02
  2.10642E+03  1.51632E+02  3.38891E+03  7.22909E+02  1.03700E+03  2.15444E+03 -8.21370E+02  2.08871E+03
 -2.17312E+03  9.28914E+01 -1.77921E+03 -2.06285E+01 -1.34369E+03 -1.66251E+03  3.67657E+02 -1.26704E+03
  1.40821E+03 -4.19723E+02  1.11300E+03  6.78201E+02  1.48746E+02  1.53975E+03 -5.45509E+02  1.73307E+03
 -4.16324E+02  1.31102E+03 -8.40081E+02  5.37065E+02 -3.05514E+02  1.20121E+03 -8.28918E+02  1.30813E+03
 -6.13254E+02  1.19038E+03 -1.94823E+03  4.44049E+02 -2.65223E+03 -1.19263E+02 -3.22879E+03 -1.48854E+03
 -1.89386E+03 -3.27735E+03  9.41138E+02 -3.63938E+03  1.40282E+03 -3.28251E+03  3.65077E+03 -7.03922E+02
  3.10929E+03  3.96950E+02  1.49453E+03  1.93266E+03 -8.53782E+02  1.80739E+03 -1.07878E+03  1.90965E+03
 -1.27316E+03  6.93543E+02 -8.29847E+02 -5.96168E+02 -4.42271E+02  6.57838E+02 -5.47491E+02  1.99448E+02
 -1.38051E+03 -1.24847E+02 -6.83616E+02 -2.92045E+02 -2.08591E+02 -2.36581E+02 -7.27246E+02 -1.44446E+03
  1.92055E+03 -4.78969E+02  4.85833E+02 -2.36779E+02  1.48483E+03  9.90099E+02 -7.13026E+01  2.09838E+03
 -1.44084E+03  3.03472E+03 -1.56687E+03  1.28943E+03 -2.77257E+03  2.71098E+01 -1.95193E+03 -1.10763E+03
 -1.34800E+03 -1.89222E+03  4.59044E+02 -1.82628E+03  1.15541E+03 -7.98597E+02  1.52808E+03  3.50857E+02
  1.13942E+03  8.40792E+02 -1.68785E+02  7.04367E+02 -4.09333E+02 -3.22769E+02  2.51523E+01 -4.57887E+02
  1.24288E+03  5.37467E+00  4.31819E+01  1.59474E+02  2.92612E+02  4.74189E+02  9.99085E+01  6.67758E+02
 -4.79048E+02  1.25168E+03 -1.45073E+03 -2.31810E+02 -1.30354E+03 -5.73966E+02 -1.06168E+02 -1.54262E+03
  4.45529E+02 -6.59523E+02  1.14126E+03 -4.96137E+02  1.65798E+03 -5.76234E+02  1.88700E+02  1.54386E+03
  5.04440E+02  9.95609E+02 -2.33686E+02  1.10347E+03 -1.03497E+03  4.71651E+02 -3.60609E+02  1.37632E+02
 -9.47338E+01  2.49823E+02 -5.81374E+02  4.61034E+01 -5.94736E+02  2.68909E+02 -1.52256E+03 -7.37390E+02
 -9.67344E+02  1.35759E+02 -5.81308E+02 -1.06596E+03  8.11947E+02 -1.67226E+03  1.42549E+03 -6.03392E+02
  1.31881E+03 -5.17687E+02 -1.90213E+02  5.80257E+02 -5.64010E+02  1.23775E+03 -8.73242E+02  1.16028E+03
