 $NMID ID='MM_0lb_SNR400_10hz_g40_26.RAW', FMTDAT='(8E13.5)'
 TRAMP=1., VOLUME=1. $END
  3.09937E+05  7.58203E+02  3.37344E+05  2.50687E+05  8.46755E+04  3.38066E+05 -1.32546E+05  2.51838E+05
 -1.90682E+05  8.35728E+04 -1.12146E+05 -3.29576E+04  8.71656E+02 -4.99797E+04  5.37600E+04  1.83060E+02
  3.51572E+04  5.37841E+04 -1.69207E+04  7.63343E+04 -6.09674E+04  6.43141E+04 -8.46134E+04  3.27375E+04
 -8.10614E+04 -1.11324E+04 -5.83546E+04 -5.23174E+04 -1.54900E+04 -7.06570E+04  2.75851E+04 -4.59508E+04
  4.05113E+04  3.53059E+03  1.67224E+04  4.75409E+04 -3.43297E+04  4.79499E+04 -6.70549E+04 -3.61869E+02
 -5.34843E+04 -5.73065E+04 -7.09206E+03 -7.79994E+04  3.38760E+04 -5.68383E+04  4.97573E+04 -1.86378E+04
  4.34590E+04  1.06690E+04  3.20410E+04  2.64741E+04  1.62972E+04  3.04692E+04 -5.80741E+03  2.71735E+04
 -2.11937E+04  1.20678E+04 -1.83004E+04 -5.48928E+03  6.43680E+03 -7.56224E+03  2.33804E+04  1.27985E+04
  6.80814E+03  3.66923E+04 -3.36541E+04  3.64641E+04 -6.50480E+04  2.47283E+03 -5.79600E+04 -4.36319E+04
 -1.23502E+04 -6.49796E+04  4.01387E+04 -4.63867E+04  5.95579E+04 -1.72922E+03  3.60870E+04  3.23358E+04
 -5.92291E+03  3.80089E+04 -3.06642E+04  1.73974E+04 -3.23800E+04 -3.66175E+03 -1.87516E+04 -1.13627E+04
 -9.10779E+03 -1.46270E+04 -4.44675E+02 -1.94016E+04  7.39158E+03 -2.27160E+04  1.54251E+04 -1.31935E+04
  1.08597E+04  5.70902E+03 -9.95708E+03  1.34856E+04 -2.23617E+04 -5.46736E+03 -8.10802E+03 -3.61805E+04
  2.45162E+04 -4.51734E+04  5.05860E+04 -2.05846E+04  4.79659E+04  2.04825E+04  1.65002E+04  4.64186E+04
 -1.58646E+04  3.49266E+04 -2.72933E+04  2.12052E+03 -1.11410E+04 -2.84353E+04  2.15183E+04 -3.48527E+04
  4.32293E+04 -1.08880E+04  3.79455E+04  2.41608E+04  2.00283E+04  4.87887E+04 -7.70601E+03  5.33278E+04
 -3.32756E+04  3.58168E+04 -4.48665E+04  1.05080E+04 -4.59763E+04 -1.86169E+04 -2.48067E+04 -4.09072E+04
  7.66048E+03 -3.98031E+04  3.28823E+04 -1.65326E+04  3.12134E+04  1.10140E+04  3.93122E+03  2.01819E+04
 -1.36319E+04  9.54580E+03 -1.00343E+04 -7.18318E+03  6.38106E+03 -1.08457E+04  1.76648E+04  5.56116E+03
  1.51258E+04  2.24296E+04 -5.77196E+03  2.67607E+04 -2.26606E+04  1.35491E+04 -3.02721E+04 -3.32803E+03
 -2.45078E+04 -1.83060E+04 -1.16961E+04 -2.28881E+04  4.04277E+03 -2.28938E+04  1.84379E+04 -2.10996E+04
  2.97073E+04 -1.38426E+04  3.59742E+04  2.80552E+03  2.55513E+04  2.27958E+04  5.34501E+03  3.92536E+04
 -1.93262E+04  3.29804E+04 -2.93199E+04  1.11739E+04 -2.22734E+04 -1.05258E+04 -5.47354E+03 -1.36362E+04
  7.22984E+02 -1.49816E+03 -6.43011E+03  7.80813E+03 -1.86702E+04  5.75362E+03 -1.87665E+04 -8.90307E+03
 -1.01841E+04 -2.14883E+04  6.09346E+03 -2.58755E+04  1.71274E+04 -1.88216E+04  2.08005E+04 -1.43564E+03
  1.37176E+04  1.51435E+04 -1.41700E+03  2.16533E+04 -1.58733E+04  1.18651E+04 -2.17333E+04 -4.14590E+03
 -1.57057E+04 -1.91652E+04 -1.69111E+03 -2.54063E+04  1.20903E+04 -2.16862E+04  2.15102E+04 -1.08971E+04
  2.03005E+04 -8.97707E+02  1.45412E+04  4.94296E+03  8.57687E+03  1.31357E+03  1.09437E+04 -1.63051E+03
  2.01847E+04  3.02940E+03  2.32274E+04  1.68921E+04  1.52136E+04  3.51716E+04 -2.76470E+03  4.02622E+04
 -2.27116E+04  3.28026E+04 -3.70351E+04  1.79482E+04 -4.07843E+04 -3.04218E+03 -3.24134E+04 -2.45593E+04
 -1.41003E+04 -3.34482E+04  1.17324E+04 -2.99707E+04  2.50883E+04 -1.41670E+04  2.25756E+04  6.14794E+03
  7.10975E+03  1.63179E+04 -1.06125E+04  1.38261E+04 -1.87804E+04  2.73328E+03 -1.38156E+04 -1.21468E+04
 -1.02811E+03 -1.71396E+04  9.98853E+03 -1.28873E+04  1.20123E+04 -2.08314E+03  3.01730E+03  7.60716E+03
 -7.98334E+03  3.66534E+03 -8.30349E+03 -6.74082E+03 -1.28502E+03 -1.58750E+04  1.13909E+04 -1.72839E+04
  2.06405E+04 -1.00656E+04  2.28918E+04  3.14533E+03  1.95619E+04  1.61537E+04  1.01187E+04  2.62523E+04
 -4.89761E+03  2.78252E+04 -1.73690E+04  1.69496E+04 -2.03071E+04  3.18241E+03 -1.39294E+04 -4.90469E+03
 -6.62301E+03 -5.40548E+03 -4.62542E+02  1.06795E+03 -2.71909E+03  3.57577E+03 -6.69581E+03  4.52529E+03
 -1.25478E+04 -6.46061E+02 -1.28298E+04 -1.12755E+04 -5.79908E+03 -1.81504E+04  6.28760E+03 -1.41428E+04
  1.22175E+04 -5.50561E+03  7.54553E+03  3.36974E+03 -1.87112E+02  5.10588E+03 -6.24530E+03 -5.17882E+02
 -7.13334E+03 -9.66660E+03 -8.09324E+02 -1.33733E+04  7.50891E+03 -1.37090E+04  1.82332E+04 -7.82920E+03
  2.09429E+04  1.77552E+03  1.51330E+04  1.26355E+04  2.53764E+03  1.71599E+04 -8.95608E+03  1.43393E+04
 -1.16790E+04  4.30574E+03 -5.66209E+03 -3.24897E+03  2.44781E+03 -4.16240E+03  6.80511E+03 -6.14555E+02
  6.87965E+03  5.97519E+03  9.85462E+02  1.12165E+04 -8.08011E+03  1.12432E+04 -1.32508E+04  4.03114E+03
 -9.56521E+03 -7.81549E+03  1.06398E+02 -1.15085E+04  8.74545E+03 -6.10619E+03  8.39221E+03  3.63279E+03
  1.43247E+03  8.51176E+03 -6.71892E+03  1.06114E+04 -1.17241E+04  4.20294E+03 -1.21334E+04 -3.96989E+03
 -7.00148E+03 -1.31236E+04  3.66954E+03 -1.48741E+04  1.35316E+04 -9.60592E+03  1.42876E+04  2.47616E+03
  9.67748E+03  1.15173E+04 -1.50984E+03  1.44746E+04 -9.63179E+03  7.99460E+03 -1.14962E+04 -6.69675E+02
 -9.45281E+03 -8.87380E+03 -1.29927E+03 -1.01734E+04  5.57157E+03 -8.44024E+03  7.30988E+03 -3.74606E+03
  4.30562E+03  1.81145E+03 -1.18625E+03  2.14084E+03 -7.10754E+02 -2.04697E+03  2.36384E+03 -6.62960E+03
  9.38044E+03 -3.97097E+03  1.39230E+04  1.42028E+03  1.34350E+04  9.37367E+03  9.49628E+03  1.83802E+04
 -3.88305E+03  2.00241E+04 -1.62305E+04  1.53875E+04 -2.19915E+04  2.81567E+03 -1.76807E+04 -7.94383E+03
 -8.39513E+03 -1.44964E+04 -8.22768E+02 -1.15817E+04  4.86125E+03 -7.30030E+03  4.42026E+03 -3.71591E+03
  4.11423E+03 -2.49796E+03  4.19971E+03 -4.50736E+03  5.56758E+03 -3.04343E+03  6.88922E+03 -4.24346E+02
  9.55802E+03  2.34346E+03  5.47315E+03  8.51185E+03 -2.06726E+03  8.75178E+03 -9.08168E+03  6.58880E+03
 -1.22399E+04 -8.35498E+02 -7.42931E+03 -7.75039E+03 -1.30945E+03 -1.33233E+04  7.60793E+03 -1.33141E+04
  1.37125E+04 -7.90447E+03  1.55801E+04  2.15524E+03  1.19571E+04  1.18281E+04  1.41381E+03  1.44565E+04
 -5.79518E+03  1.26274E+04 -8.84223E+03  4.51082E+03 -5.78234E+03 -1.24787E+03 -2.03216E+03 -1.56414E+03
 -1.12196E+03  6.50491E+01 -2.04957E+03  2.85520E+03 -5.54303E+03  2.30479E+03 -8.61064E+03 -1.55538E+03
 -5.86841E+03 -8.30228E+03 -4.36547E+02 -1.23126E+04  7.82647E+03 -1.12207E+04  1.24493E+04 -2.68879E+03
  1.16928E+04  6.12260E+03  5.75913E+03  1.12812E+04 -2.28687E+03  1.21107E+04 -8.74131E+03  8.44756E+03
 -1.17139E+04  6.09611E+02 -9.17166E+03 -7.13303E+03 -1.14894E+03 -1.08292E+04  4.66225E+03 -7.08657E+03
  7.46975E+03 -3.04234E+03  6.34460E+03  2.49725E+03  2.71566E+03  3.64704E+03  9.29397E+02  2.37388E+03
  2.22078E+03  1.57305E+03  3.06038E+03  1.66457E+03  3.80971E+03  4.59544E+03  3.24575E+03  6.39562E+03
 -2.41957E+03  9.59493E+03 -7.89556E+03  1.05268E+04 -1.28366E+04  3.39574E+03 -1.32113E+04 -4.74321E+03
 -6.67677E+03 -1.23742E+04  1.29342E+03 -1.38972E+04  8.00175E+03 -8.71292E+03  1.01136E+04 -2.25084E+03
  7.51486E+03  4.61295E+03  2.28981E+03  7.22399E+03 -3.79450E+03  3.89912E+03 -5.22873E+03 -1.01827E+03
 -1.94894E+03 -5.75910E+03  2.85373E+03 -5.55754E+03  5.60890E+03 -3.15866E+03  4.96015E+03  1.39461E+03
  3.14992E+03  3.07405E+03  1.83958E+03  1.60347E+03 -6.42867E+02  1.93798E+03  1.23003E+03 -3.15802E+02
  2.52670E+03 -5.58111E+02  5.25019E+03  1.83587E+03  2.96509E+03  7.05468E+03 -7.90728E+02  8.50708E+03
 -6.81870E+03  5.46799E+03 -7.84182E+03  1.75803E+03 -6.59633E+03 -3.13264E+03 -2.37455E+03 -4.97582E+03
  1.34159E+03 -5.16705E+03  2.70137E+03 -2.53275E+03  2.30914E+03  2.75244E+03 -1.96034E+03  4.35818E+03
 -4.36018E+03  1.42880E+03 -5.11513E+03 -2.75708E+03 -3.33210E+03 -6.89184E+03  1.58491E+03 -6.77235E+03
  3.65010E+03 -4.31242E+03  4.66013E+03 -5.02817E+02  4.32956E+03  1.60401E+03  1.60594E+03  3.83718E+03
 -2.27451E+03  9.15818E+02 -3.15517E+03 -2.38039E+03  1.58929E+03 -4.64033E+03  6.40865E+03 -3.65509E+03
  7.62012E+03  6.05295E+02  7.63998E+03  5.49070E+03  2.38175E+03  8.60917E+03 -3.66905E+03  8.08434E+03
 -6.29719E+03  3.67951E+03 -6.26999E+03 -1.23313E+03 -3.45279E+03 -5.38075E+03  1.99401E+03 -3.69217E+03
  4.37338E+03 -2.61061E+03  3.85301E+03  2.68496E+03  1.30692E+03  4.24644E+03 -8.92703E+02  3.78785E+03
 -2.55959E+03  2.01853E+03 -2.53269E+03  9.70087E+02 -4.69750E+02  8.67283E+02 -7.53556E+02  9.84909E+02
 -1.84745E+03  2.66753E+03 -5.95395E+03  2.64428E+03 -7.69790E+03  3.54192E+02 -8.89774E+03 -5.08361E+03
 -4.92062E+03 -1.05890E+04  9.64409E+02 -1.18708E+04  7.53902E+03 -9.91576E+03  1.20999E+04 -3.75483E+03
  1.08054E+04  1.43844E+03  6.83916E+03  7.22281E+03 -2.55816E+01  7.86945E+03 -3.46634E+03  6.43073E+03
 -5.14195E+03  2.72004E+03 -1.94464E+03 -3.17401E+02 -1.72407E+03 -5.78206E+02 -8.08894E+02  5.58248E+02
 -1.68186E+03 -1.56217E+02 -1.91860E+03 -2.35828E+02 -4.51931E+02 -1.85713E+03  1.78459E+02 -3.03447E+03
  4.24962E+03 -3.18419E+03  4.95609E+03  4.81426E+02  5.74718E+03  3.68881E+03  1.48934E+03  7.24744E+03
 -4.25114E+03  9.36998E+03 -8.60557E+03  5.39973E+03 -9.99033E+03 -8.48031E+02 -6.99352E+03 -6.19352E+03
 -3.07732E+03 -8.66934E+03  2.41192E+03 -7.85358E+03  5.35268E+03 -4.66901E+03  5.93782E+03 -3.11019E+00
  2.84385E+03  2.22326E+03  2.55532E+02  2.04576E+03 -1.88428E+03 -2.67773E+02 -2.30975E+02 -1.12101E+03
  2.80644E+03 -1.39269E+03  2.95845E+03  1.33440E+03  2.16412E+03  3.39470E+03 -3.53145E+01  4.17933E+03
 -3.11422E+03  3.81267E+03 -5.28953E+03  3.57156E+02 -4.42476E+03 -4.23934E+03 -3.91440E+01 -7.34236E+03
  3.75707E+03 -5.56276E+03  5.48806E+03 -1.76041E+03  5.96549E+03  1.00811E+03  2.99675E+03  4.08277E+03
  6.13610E+02  5.38696E+03 -2.29049E+03  3.40563E+03 -3.18376E+03  2.60528E+03 -3.29605E+03  4.10594E+02
 -2.00414E+03  8.67732E+02 -1.48169E+03  6.90236E+02 -3.29125E+03  9.01303E+02 -3.61442E+03 -4.78007E+02
 -4.06480E+03 -2.45121E+03 -1.72417E+03 -5.21115E+03  2.44571E+03 -5.32631E+03  5.00204E+03 -2.40771E+03
  4.85181E+03  9.25127E+02  2.81269E+03  3.70548E+03  1.20382E+02  5.44310E+03 -3.75508E+03  3.93126E+03
