 $NMID ID='MM_0lb_SNR400_16hz_g50_2.RAW', FMTDAT='(8E13.5)'
 TRAMP=1., VOLUME=1. $END
  3.09703E+05 -2.24422E+02  3.37482E+05  2.50452E+05  8.48647E+04  3.37735E+05 -1.32023E+05  2.50911E+05
 -1.90102E+05  8.33815E+04 -1.11496E+05 -3.32372E+04  8.33097E+02 -4.93477E+04  5.41327E+04  2.40576E+02
  3.57248E+04  5.22841E+04 -1.71835E+04  7.52711E+04 -6.02301E+04  6.33522E+04 -8.33748E+04  3.20734E+04
 -8.06086E+04 -1.18250E+04 -5.72211E+04 -5.05102E+04 -1.55013E+04 -6.99750E+04  2.67941E+04 -4.56613E+04
  3.88408E+04  3.80756E+03  1.61200E+04  4.70348E+04 -3.42537E+04  4.70520E+04 -6.66176E+04 -1.35953E+02
 -5.27084E+04 -5.60205E+04 -6.82092E+03 -7.65807E+04  3.34390E+04 -5.45810E+04  4.77438E+04 -1.69084E+04
  4.23985E+04  1.06694E+04  3.10361E+04  2.47489E+04  1.55570E+04  2.92200E+04 -5.20102E+03  2.73581E+04
 -2.14440E+04  1.25933E+04 -1.92422E+04 -4.27751E+03  5.32796E+03 -7.54216E+03  2.14673E+04  1.19505E+04
  7.57970E+03  3.45132E+04 -3.20874E+04  3.50313E+04 -6.27104E+04  2.01064E+03 -5.64168E+04 -4.21750E+04
 -1.23166E+04 -6.26560E+04  3.86721E+04 -4.38555E+04  5.70223E+04 -2.35966E+03  3.34004E+04  3.15576E+04
 -5.70654E+03  3.50656E+04 -2.94155E+04  1.52507E+04 -2.94015E+04 -4.77725E+03 -1.58695E+04 -1.09822E+04
 -7.95135E+03 -1.23820E+04 -9.33397E+02 -1.76680E+04  7.36261E+03 -2.35936E+04  1.45493E+04 -1.34633E+04
  1.19625E+04  4.84169E+03 -7.46395E+03  1.30718E+04 -2.04245E+04 -4.00607E+03 -7.85012E+03 -3.24946E+04
  2.19288E+04 -4.20025E+04  4.73296E+04 -1.95222E+04  4.40455E+04  1.84725E+04  1.54354E+04  4.31631E+04
 -1.56804E+04  3.26062E+04 -2.49383E+04  1.31170E+03 -9.22252E+03 -2.70768E+04  2.08417E+04 -3.33468E+04
  4.00210E+04 -8.21282E+03  3.40157E+04  2.34916E+04  1.71419E+04  4.49560E+04 -7.90586E+03  4.87424E+04
 -3.01054E+04  3.24267E+04 -4.01906E+04  9.45734E+03 -4.06859E+04 -1.61681E+04 -2.26468E+04 -3.59061E+04
  7.40304E+03 -3.59948E+04  3.03872E+04 -1.38198E+04  2.81510E+04  1.01441E+04  3.52020E+03  1.86614E+04
 -1.35271E+04  8.29555E+03 -1.05209E+04 -7.38164E+03  5.97082E+03 -1.01719E+04  1.75281E+04  6.28236E+03
  1.24558E+04  2.17203E+04 -6.44590E+03  2.41434E+04 -2.27210E+04  9.88875E+03 -2.72379E+04 -6.01881E+03
 -1.85247E+04 -1.74532E+04 -7.19561E+03 -1.88818E+04  4.02023E+03 -1.72609E+04  1.39639E+04 -1.65888E+04
  2.45226E+04 -1.23074E+04  3.07425E+04  2.59425E+03  2.25095E+04  1.84583E+04  3.95097E+03  3.46284E+04
 -1.72359E+04  2.94453E+04 -2.66375E+04  9.85642E+03 -2.00060E+04 -1.00097E+04 -4.63297E+03 -1.37916E+04
  2.18598E+03 -3.42241E+03 -4.53164E+03  6.29374E+03 -1.49874E+04  5.42500E+03 -1.55697E+04 -6.45657E+03
 -9.18240E+03 -1.72030E+04  5.17935E+03 -2.21338E+04  1.43871E+04 -1.51063E+04  1.68613E+04 -1.89211E+03
  1.03719E+04  1.22244E+04 -1.01283E+03  1.78347E+04 -1.27462E+04  9.62481E+03 -1.69747E+04 -3.57793E+03
 -1.26496E+04 -1.54707E+04 -1.78803E+03 -2.13372E+04  9.53953E+03 -1.67856E+04  1.82021E+04 -8.79929E+03
  1.63229E+04  2.53999E+02  1.20739E+04  3.73570E+03  5.99979E+03  6.86408E+02  8.60534E+03 -1.96534E+03
  1.61051E+04  2.46430E+03  1.73830E+04  1.37611E+04  1.13183E+04  2.82423E+04 -3.45894E+03  3.05895E+04
 -1.86211E+04  2.48556E+04 -2.84609E+04  1.23219E+04 -2.97266E+04 -1.77436E+03 -2.48270E+04 -1.76017E+04
 -1.09243E+04 -2.41438E+04  8.49265E+03 -2.18151E+04  1.93166E+04 -1.11941E+04  1.71160E+04  4.76317E+03
  6.67865E+03  1.26037E+04 -8.15025E+03  1.22461E+04 -1.48768E+04  2.42036E+03 -1.15517E+04 -9.49706E+03
 -1.73345E+02 -1.43460E+04  7.20867E+03 -1.11091E+04  9.36351E+03 -9.84412E+02  1.95541E+03  5.97021E+03
 -6.08183E+03  2.02227E+03 -5.16384E+03 -5.74041E+03 -1.44907E+02 -1.18295E+04  8.74621E+03 -1.23821E+04
  1.53442E+04 -6.51102E+03  1.51681E+04  3.17410E+03  1.31277E+04  1.19423E+04  6.27456E+03  1.70318E+04
 -2.43126E+03  1.97678E+04 -1.24000E+04  1.24455E+04 -1.39837E+04  3.06033E+03 -1.00693E+04 -2.95584E+03
 -4.57249E+03 -3.86551E+03 -4.27709E+02  1.15982E+03 -1.90830E+03  2.51293E+03 -5.03162E+03  4.41106E+03
 -9.78175E+03 -3.94364E+02 -1.05800E+04 -8.43116E+03 -4.10003E+03 -1.38249E+04  4.06837E+03 -9.84954E+03
  8.35437E+03 -4.58299E+03  6.55314E+03  2.58291E+03  4.65687E+02  3.31623E+03 -5.03699E+03  5.33052E+02
 -3.89027E+03 -6.15210E+03 -1.23056E+03 -9.17348E+03  5.47307E+03 -1.01385E+04  1.17018E+04 -4.83109E+03
  1.47672E+04  1.56785E+03  1.07680E+04  8.13138E+03  1.84663E+03  1.09716E+04 -6.32284E+03  9.80963E+03
 -7.58154E+03  3.51644E+03 -3.93527E+03 -1.84141E+03  1.60436E+03 -2.23378E+03  5.16701E+03 -1.15562E+03
  4.88600E+03  3.90491E+03  1.28083E+03  7.70273E+03 -5.38773E+03  7.73285E+03 -9.65922E+03  2.01700E+03
 -6.44284E+03 -4.53060E+03 -5.15044E+00 -8.70429E+03  5.54061E+03 -4.02120E+03  4.62813E+03  1.03857E+03
  9.02564E+02  4.34196E+03 -4.60743E+03  6.57057E+03 -6.54804E+03  3.13194E+03 -6.80818E+03 -2.60373E+03
 -3.29846E+03 -8.96522E+03  2.04305E+03 -9.64108E+03  8.12258E+03 -5.98943E+03  8.42833E+03  1.34221E+03
  5.61808E+03  6.15923E+03 -6.56263E+02  9.37805E+03 -6.13521E+03  4.53386E+03 -7.17538E+03 -1.17395E+03
 -6.65355E+03 -5.65451E+03 -1.32878E+03 -6.33000E+03  3.48221E+03 -5.63066E+03  3.82177E+03 -3.42352E+03
  3.51077E+03  5.62749E+02  4.24776E+01  1.01721E+03  1.91477E+02 -7.32235E+02  1.01296E+02 -2.95675E+03
  5.50589E+03 -1.02581E+03  7.79065E+03  8.66482E+02  7.79845E+03  4.87764E+03  6.29015E+03  1.03221E+04
 -2.12166E+03  1.16845E+04 -1.01000E+04  8.66303E+03 -1.29741E+04  1.40417E+03 -9.90469E+03 -3.62301E+03
 -5.84976E+03 -8.50324E+03 -6.54021E+02 -6.49278E+03  2.23748E+03 -3.49902E+03  2.43517E+03 -2.45881E+03
  1.83696E+03 -1.72538E+03  2.32717E+03 -2.85112E+03  4.00606E+03 -1.30928E+03  5.02727E+03  6.66924E+01
  5.61892E+03  1.17895E+03  2.33486E+03  4.59912E+03 -2.10582E+03  4.90076E+03 -6.01339E+03  3.80302E+03
 -6.88812E+03 -1.16520E+03 -2.90946E+03 -4.78210E+03  1.16149E+02 -6.61138E+03  3.61837E+03 -7.60407E+03
  6.74384E+03 -4.18514E+03  9.11849E+03  5.07654E+02  6.87198E+03  5.68140E+03  1.40663E+03  8.02871E+03
 -2.77278E+03  7.52637E+03 -5.15664E+03  2.80979E+03 -2.65236E+03 -1.10296E+03 -9.10718E+02 -6.66798E+02
 -7.11905E+02  6.68970E+02 -4.57049E+02  2.14915E+03 -2.49679E+03  9.41251E+02 -5.75667E+03 -6.68208E+02
 -2.73843E+03 -4.94991E+03  1.33577E+03 -6.70689E+03  3.85003E+03 -6.19777E+03  5.29734E+03 -1.66384E+03
  5.59223E+03  2.90294E+03  2.68057E+03  4.51342E+03 -1.38164E+03  6.30020E+03 -4.09081E+03  4.09610E+03
 -5.68578E+03  6.26368E+02 -4.92748E+03 -3.44625E+03 -6.30001E+02 -4.13990E+03  2.25063E+03 -3.62967E+03
  3.60125E+03 -1.32322E+03  2.80690E+03  6.85081E+02  5.57173E+02  1.74367E+03  1.38608E+03  1.39426E+03
  2.05906E+03  5.75750E+02  1.58515E+03  9.05864E+02  1.63403E+03  2.39585E+03  1.60940E+03  2.99523E+03
 -1.36208E+03  3.88795E+03 -3.74013E+03  5.32462E+03 -4.66330E+03  1.46924E+03 -5.76860E+03 -1.15264E+03
 -2.53673E+03 -6.00601E+03  5.15596E+02 -6.51921E+03  2.59715E+03 -3.22948E+03  4.65032E+03 -7.57890E+02
  3.24876E+03  2.83122E+03  6.64691E+02  3.48978E+03 -1.62756E+03  1.57538E+03 -1.55724E+03 -2.78691E+02
 -9.08388E+02 -2.13360E+03  1.22284E+03 -1.75806E+03  2.00466E+03 -1.13153E+03  1.50035E+03  1.23358E+02
  1.67703E+03  3.13481E+02  8.96073E+02  5.92258E+02 -5.52304E+02  1.00835E+03  2.03681E+03 -3.99885E+02
 -5.11607E+01 -1.21301E+02  2.52008E+03  8.32043E+02  5.97286E+02  2.75998E+03 -6.88774E+02  4.37717E+03
 -2.26297E+03  2.28667E+03 -3.43593E+03  1.08156E+03 -3.44904E+03 -9.95230E+02 -8.40754E+02 -1.49844E+03
  8.15185E+02 -2.37549E+03  1.31948E+03 -7.79673E+02  8.67185E+02  1.33922E+03 -1.36430E+03  1.67136E+03
 -1.92053E+03  8.70997E+02 -2.05141E+03 -1.87350E+03 -1.28762E+03 -3.16233E+03  4.67888E+02 -2.36170E+03
  1.00862E+03 -1.07672E+03  8.56539E+02 -7.30295E+01  1.78884E+03  5.54227E+02  2.85341E+02  1.80775E+03
 -8.38310E+02  1.22626E+02 -9.92782E+02 -8.13728E+02  1.28796E+03 -1.80685E+03  2.76126E+03 -1.84032E+03
  3.02039E+03  2.70632E+02  3.53048E+03  1.19563E+03  8.29979E+02  2.97296E+03 -1.31479E+03  2.99563E+03
 -2.73046E+03  8.41344E+02 -2.06726E+03 -1.35330E+02 -1.46260E+03 -2.41857E+03  7.09884E+02 -1.01212E+03
  1.92474E+03 -1.25709E+03  1.61020E+03  1.41017E+03  2.94864E+02  1.88227E+03  3.67032E+02  1.53472E+03
 -8.54125E+02  9.61695E+02 -1.03493E+03  8.54102E+02 -2.82744E+02  3.64234E+02 -8.06102E+02  3.96793E+02
 -5.08109E+02  7.55637E+02 -2.29960E+03  1.09608E+03 -2.57232E+03  4.95333E+02 -3.48831E+03 -1.36831E+03
 -1.42101E+03 -3.77245E+03  6.79038E+02 -4.78298E+03  2.22852E+03 -3.91826E+03  4.74457E+03 -1.99510E+03
  3.91638E+03  2.69377E+02  2.31921E+03  3.07594E+03 -2.55249E+02  2.65960E+03 -5.37881E+02  2.20261E+03
 -1.84678E+03  1.01325E+03 -6.81948E+02 -2.89627E+02 -8.52899E+02  2.39931E+02 -4.55238E+02  4.72415E+02
 -1.22098E+03 -1.64164E+02 -8.91325E+02  3.80328E+02  3.60243E+02 -4.82985E+02 -5.73993E+02 -9.18409E+02
  1.42700E+03 -9.38777E+02  1.00971E+03  3.85255E+02  1.82079E+03  1.69316E+03  1.58690E+02  2.21774E+03
 -1.50018E+03  3.73208E+03 -2.32355E+03  2.09379E+03 -2.78304E+03 -5.48046E+01 -1.83121E+03 -2.05597E+03
 -1.84650E+03 -2.54896E+03  5.77679E+02 -2.28717E+03  1.41532E+03 -8.67319E+02  1.24194E+03 -7.86797E+01
  8.67184E+02  9.40787E+02 -2.11820E+02  1.15796E+03 -1.54919E+02  4.78191E+02  5.34344E+02 -3.74939E+02
  4.35573E+02 -5.40945E+02  7.74682E+02  1.63609E+02  2.59536E+02  8.55009E+02  5.28383E+02  1.01083E+03
 -8.63852E+02  1.79187E+03 -1.39367E+03  3.20866E+02 -1.96402E+03 -9.69823E+02  1.97601E+02 -2.00351E+03
  1.03593E+03 -2.21887E+03  1.60953E+03 -8.24126E+01  1.77946E+03 -7.63952E+02  7.12987E+02  1.23760E+03
  3.18709E+02  1.09195E+03  1.13909E+02  8.92865E+02 -8.55581E+02  8.12115E+02 -2.53103E+02  4.12594E+02
 -3.47934E+02  1.30036E+02 -9.61705E+02 -1.89414E+02 -7.27069E+02  6.34926E+02 -8.58933E+02 -5.59730E+02
 -1.05355E+03  2.09509E+02 -5.61556E+02 -1.15806E+03  1.24910E+03 -2.20001E+03  1.49851E+03 -9.02504E+02
  1.21493E+03  4.21090E+01  2.72230E+02  8.56203E+02 -7.16343E+02  1.11214E+03 -1.19113E+03  1.30071E+03
