 $NMID ID='MM_0lb_SNR400_10hz_g50_57.RAW', FMTDAT='(8E13.5)'
 TRAMP=1., VOLUME=1. $END
  3.09836E+05  4.71489E+02  3.38559E+05  2.50024E+05  8.49016E+04  3.38648E+05 -1.32273E+05  2.51520E+05
 -1.90890E+05  8.43128E+04 -1.11954E+05 -3.33707E+04 -2.92362E+02 -5.09041E+04  5.36889E+04 -5.90733E+02
  3.57904E+04  5.27658E+04 -1.68640E+04  7.60217E+04 -6.16301E+04  6.49342E+04 -8.56418E+04  3.29779E+04
 -8.24412E+04 -1.21892E+04 -5.88198E+04 -5.20072E+04 -1.55650E+04 -7.05515E+04  2.81199E+04 -4.70977E+04
  4.04646E+04  3.75442E+03  1.57985E+04  4.86311E+04 -3.49501E+04  4.82649E+04 -6.79442E+04  4.41550E+02
 -5.46027E+04 -5.78412E+04 -7.61465E+03 -7.87576E+04  3.45213E+04 -5.65117E+04  4.89999E+04 -1.76292E+04
  4.45491E+04  1.12944E+04  3.24457E+04  2.61448E+04  1.62126E+04  3.01090E+04 -5.99455E+03  2.79446E+04
 -2.26502E+04  1.20945E+04 -1.87005E+04 -5.93032E+03  6.45254E+03 -7.25209E+03  2.28835E+04  1.33096E+04
  7.00179E+03  3.68168E+04 -3.36305E+04  3.66943E+04 -6.55009E+04  1.77325E+03 -5.79866E+04 -4.50045E+04
 -1.23640E+04 -6.50745E+04  4.14164E+04 -4.64701E+04  6.18417E+04 -2.89319E+03  3.58135E+04  3.37945E+04
 -5.50825E+03  3.88284E+04 -3.17345E+04  1.83238E+04 -3.29850E+04 -3.84536E+03 -1.87014E+04 -1.19044E+04
 -8.83082E+03 -1.49405E+04 -7.89329E+01 -1.93123E+04  8.86682E+03 -2.29670E+04  1.58436E+04 -1.24626E+04
  1.04495E+04  5.89071E+03 -9.93486E+03  1.33185E+04 -2.27092E+04 -5.39440E+03 -8.53787E+03 -3.68225E+04
  2.47306E+04 -4.58722E+04  5.04549E+04 -2.10917E+04  4.76323E+04  2.00836E+04  1.68491E+04  4.70145E+04
 -1.72056E+04  3.55188E+04 -2.65533E+04  1.77656E+03 -1.18182E+04 -2.91948E+04  2.14446E+04 -3.67438E+04
  4.33137E+04 -1.05765E+04  3.95007E+04  2.39755E+04  2.08652E+04  4.96973E+04 -8.03628E+03  5.46680E+04
 -3.45022E+04  3.68389E+04 -4.64814E+04  9.81296E+03 -4.63510E+04 -1.75378E+04 -2.66272E+04 -4.04326E+04
  7.80410E+03 -4.10007E+04  3.36944E+04 -1.63419E+04  3.21239E+04  1.10598E+04  4.66300E+03  1.99498E+04
 -1.34441E+04  9.47383E+03 -1.11331E+04 -7.78869E+03  5.64515E+03 -1.20560E+04  1.85790E+04  5.61341E+03
  1.43144E+04  2.28691E+04 -5.74230E+03  2.62014E+04 -2.27314E+04  1.40066E+04 -3.12847E+04 -3.44395E+03
 -2.36949E+04 -1.80336E+04 -1.07011E+04 -2.40601E+04  3.91738E+03 -2.40956E+04  1.92642E+04 -2.28382E+04
  3.04337E+04 -1.38433E+04  3.67652E+04  4.83518E+03  2.53590E+04  2.35321E+04  4.22499E+03  4.00310E+04
 -2.00173E+04  3.27226E+04 -3.03656E+04  1.23518E+04 -2.21187E+04 -9.78319E+03 -4.53365E+03 -1.29936E+04
  6.86634E+02 -1.48792E+03 -6.32316E+03  8.51983E+03 -1.95410E+04  4.49096E+03 -1.98646E+04 -9.37971E+03
 -1.19302E+04 -2.19992E+04  5.86795E+03 -2.68513E+04  1.81247E+04 -1.94821E+04  2.20981E+04 -1.63986E+03
  1.33357E+04  1.53824E+04 -1.60763E+03  2.27491E+04 -1.63558E+04  1.24563E+04 -2.15458E+04 -4.57126E+03
 -1.62258E+04 -2.05491E+04 -1.96709E+03 -2.68761E+04  1.25664E+04 -2.19470E+04  2.21549E+04 -1.23322E+04
  2.07339E+04 -1.46253E+02  1.59903E+04  5.68549E+03  8.80169E+03  8.00512E+02  1.20485E+04 -1.98209E+03
  2.14676E+04  3.25034E+03  2.36906E+04  1.72545E+04  1.69927E+04  3.60768E+04 -2.54389E+03  4.21131E+04
 -2.41682E+04  3.46689E+04 -3.92498E+04  1.82744E+04 -4.26748E+04 -3.45883E+03 -3.45204E+04 -2.43790E+04
 -1.39980E+04 -3.41961E+04  1.17454E+04 -3.05458E+04  2.61124E+04 -1.53920E+04  2.27617E+04  7.73475E+03
  8.29871E+03  1.81804E+04 -1.05500E+04  1.48489E+04 -1.93737E+04  3.20535E+03 -1.52866E+04 -1.23412E+04
  4.10621E+01 -1.87964E+04  1.03198E+04 -1.39712E+04  1.31838E+04 -1.02588E+03  2.71225E+03  7.37148E+03
 -8.83248E+03  3.88900E+03 -8.48279E+03 -7.48033E+03 -1.29057E+03 -1.69772E+04  1.14665E+04 -1.86815E+04
  2.15242E+04 -1.07216E+04  2.42752E+04  2.56490E+03  2.16569E+04  1.75230E+04  9.65097E+03  2.71045E+04
 -5.77353E+03  2.95220E+04 -1.88699E+04  1.86697E+04 -2.12142E+04  3.92249E+03 -1.52203E+04 -5.37018E+03
 -6.23031E+03 -6.59175E+03 -9.68472E+02  1.11265E+02 -3.05923E+03  3.47092E+03 -6.43278E+03  5.45708E+03
 -1.39334E+04 -1.25270E+03 -1.44249E+04 -1.10829E+04 -5.76567E+03 -1.77037E+04  5.69643E+03 -1.53575E+04
  1.17292E+04 -5.60948E+03  8.91304E+03  3.75857E+03 -4.99342E+02  5.96855E+03 -7.54840E+03  4.07239E+02
 -7.38305E+03 -8.60858E+03 -1.20687E+03 -1.46907E+04  9.02085E+03 -1.50278E+04  1.89641E+04 -7.78886E+03
  2.16949E+04  2.49233E+03  1.61970E+04  1.28542E+04  3.11945E+03  1.80123E+04 -9.20497E+03  1.38658E+04
 -1.20332E+04  4.05734E+03 -5.82999E+03 -2.88566E+03  2.32606E+03 -3.93292E+03  8.74631E+03 -4.18400E+02
  7.22346E+03  6.23012E+03  1.03860E+03  1.24639E+04 -8.46789E+03  1.03986E+04 -1.47920E+04  2.38298E+03
 -9.71518E+03 -7.38270E+03  7.25907E+02 -1.27572E+04  7.98731E+03 -5.88901E+03  7.99663E+03  2.66084E+03
  1.75364E+03  9.47858E+03 -7.52439E+03  1.03632E+04 -1.30061E+04  4.42856E+03 -1.28093E+04 -5.44689E+03
 -7.32240E+03 -1.45697E+04  4.27639E+03 -1.73606E+04  1.38687E+04 -1.01022E+04  1.58189E+04  3.20936E+03
  9.58357E+03  1.20457E+04 -1.59484E+03  1.48939E+04 -1.06303E+04  8.57769E+03 -1.16967E+04 -1.94951E+03
 -9.64560E+03 -1.00208E+04 -1.17958E+03 -1.16415E+04  5.52618E+03 -8.60267E+03  6.80152E+03 -3.92044E+03
  4.40692E+03  2.19374E+03 -8.61827E+02  1.74066E+03 -1.32476E+03 -2.66540E+03  2.08849E+03 -6.71146E+03
  1.01390E+04 -4.28065E+03  1.40836E+04  1.88722E+03  1.43684E+04  1.00550E+04  9.91238E+03  1.87114E+04
 -4.53023E+03  2.13786E+04 -1.80553E+04  1.62895E+04 -2.38057E+04  3.25702E+03 -1.88201E+04 -8.05873E+03
 -9.70327E+03 -1.56435E+04 -1.01032E+03 -1.33542E+04  4.58305E+03 -7.11167E+03  4.64538E+03 -4.77834E+03
  2.52791E+03 -2.84016E+03  3.96055E+03 -3.56968E+03  5.29286E+03 -2.99859E+03  7.41080E+03 -1.18633E+03
  9.90705E+03  2.24328E+03  4.25932E+03  8.46677E+03 -1.75947E+03  9.97203E+03 -1.03917E+04  7.79939E+03
 -1.33240E+04 -2.12874E+03 -8.39998E+03 -9.57052E+03 -1.15836E+03 -1.40479E+04  8.01320E+03 -1.46858E+04
  1.53360E+04 -8.07031E+03  1.78645E+04  2.46393E+03  1.24883E+04  1.24144E+04  2.15899E+03  1.57133E+04
 -6.70339E+03  1.26755E+04 -9.07422E+03  4.76531E+03 -6.50547E+03 -1.72312E+03 -2.20081E+03 -2.21311E+03
 -1.27592E+03 -1.55945E+02 -2.13721E+03  1.99856E+03 -4.87105E+03  2.50633E+03 -8.49285E+03 -1.25768E+03
 -7.16842E+03 -9.56859E+03 -2.94063E+01 -1.37561E+04  8.37672E+03 -1.21334E+04  1.36413E+04 -3.82557E+03
  1.23493E+04  6.80843E+03  5.78214E+03  1.20533E+04 -3.04348E+03  1.32594E+04 -9.35871E+03  8.14160E+03
 -1.22422E+04  2.70508E+02 -9.72221E+03 -8.07298E+03 -3.23130E+02 -1.01932E+04  4.95199E+03 -8.28274E+03
  8.63507E+03 -2.78812E+03  5.88664E+03  1.96443E+03  1.60586E+03  3.98102E+03  1.48596E+03  1.69713E+03
  2.32012E+03  1.16636E+03  2.48189E+03  1.54653E+03  4.50824E+03  4.98123E+03  4.31206E+03  6.98264E+03
 -2.55518E+03  9.71871E+03 -9.38431E+03  1.06047E+04 -1.34678E+04  2.72370E+03 -1.29412E+04 -5.66215E+03
 -6.53447E+03 -1.30123E+04  2.34746E+03 -1.43886E+04  7.40475E+03 -9.13141E+03  1.09435E+04 -3.13179E+03
  8.25207E+03  5.13616E+03  2.77643E+03  7.87516E+03 -4.39693E+03  5.20144E+03 -5.23630E+03 -1.45431E+03
 -3.24420E+03 -5.21214E+03  3.49454E+03 -5.83098E+03  5.84821E+03 -2.81467E+03  4.95097E+03  1.08211E+03
  3.06158E+03  2.60085E+03  2.38780E+03  2.32908E+03 -2.74672E+02  2.37908E+03  2.24202E+03  1.58053E+02
  1.93068E+03 -9.85997E+02  5.41668E+03  2.31081E+03  2.88475E+03  7.02898E+03 -9.98006E+02  9.47287E+03
 -6.28800E+03  6.67938E+03 -8.95695E+03  2.07533E+03 -7.49894E+03 -3.13460E+03 -3.01752E+03 -4.97383E+03
  1.43025E+02 -4.97442E+03  3.35503E+03 -2.06405E+03  3.37361E+03  1.68772E+03 -1.63638E+03  4.08819E+03
 -5.50312E+03  2.76023E+03 -6.19710E+03 -4.49794E+03 -3.63830E+03 -7.41220E+03  1.15649E+03 -6.28871E+03
  4.07961E+03 -4.79463E+03  5.19265E+03 -3.97310E+02  4.06349E+03  1.56013E+03 -1.03176E+02  3.38495E+03
 -2.51171E+03  8.87957E+02 -3.95392E+03 -2.04228E+03  1.15991E+03 -5.42818E+03  6.14196E+03 -4.57365E+03
  8.10034E+03  1.35172E+02  8.20507E+03  5.75015E+03  2.90910E+03  8.30386E+03 -3.65939E+03  7.64274E+03
 -7.14801E+03  3.31390E+03 -7.97220E+03 -1.02788E+03 -4.36852E+03 -5.13158E+03  1.31055E+03 -5.34355E+03
  4.84790E+03 -2.29248E+03  4.50688E+03  2.29827E+03  1.24993E+03  5.12173E+03 -1.11583E+03  4.40451E+03
 -2.21839E+03  2.91715E+03 -2.20466E+03  1.86678E+03 -1.50693E+03  1.35208E+03 -1.01886E+03  1.80476E+03
 -2.68741E+03  2.87066E+03 -6.19253E+03  2.97273E+03 -8.09336E+03  6.29551E+02 -1.00809E+04 -6.47945E+03
 -4.84665E+03 -1.12420E+04  2.60886E+03 -1.29197E+04  7.96536E+03 -1.01430E+04  1.25789E+04 -4.10782E+03
  1.14122E+04  2.38882E+03  7.18598E+03  7.80394E+03  8.62225E+02  8.69862E+03 -3.20507E+03  6.90612E+03
 -4.97023E+03  3.13685E+03 -2.97730E+03 -2.12151E+02 -4.36723E+01 -7.35742E+02 -6.37148E+02  5.56976E+02
 -1.90299E+03  6.97824E+02 -2.24568E+03 -2.41608E+02 -9.46976E+02 -1.73033E+03  4.26566E+02 -4.05212E+03
  3.63544E+03 -3.52408E+03  5.86202E+03  7.35251E+01  6.46790E+03  4.38195E+03  2.18040E+03  9.05860E+03
 -4.16717E+03  1.04003E+04 -9.76750E+03  5.79550E+03 -1.08226E+04 -1.30533E+03 -7.98495E+03 -5.71053E+03
 -2.70475E+03 -8.24285E+03  2.88737E+03 -8.46126E+03  5.50297E+03 -4.83022E+03  5.92988E+03  5.64005E+02
  3.14771E+03  3.04674E+03 -5.27590E+02  3.02137E+03 -2.19440E+03  2.76477E+02 -5.22851E+02 -2.61795E+03
  2.84943E+03 -1.48091E+03  2.60582E+03  1.63608E+03  2.48517E+03  3.67005E+03  8.62487E+01  4.86061E+03
 -3.44774E+03  4.40362E+03 -5.25301E+03  3.48841E+02 -4.80797E+03 -3.95143E+03 -1.33675E+03 -7.46344E+03
  3.87114E+03 -6.08267E+03  6.84218E+03 -2.60423E+03  6.31924E+03  1.71110E+03  3.90039E+03  5.44354E+03
  8.29162E+02  5.65923E+03 -1.64410E+03  5.19485E+03 -3.79582E+03  3.12415E+03 -3.46089E+03  1.76618E+02
 -1.05892E+03 -3.23811E+02 -1.49141E+03  7.46391E+02 -2.68942E+03  1.18990E+03 -4.90311E+03 -1.71224E+03
 -4.02261E+03 -3.28974E+03 -7.52278E+02 -6.38086E+03  3.23807E+03 -6.60260E+03  5.14666E+03 -2.06475E+03
  5.22639E+03  1.04392E+03  2.90494E+03  3.83401E+03 -6.08600E+02  5.84906E+03 -3.67476E+03  4.03306E+03
