 $NMID ID='MM_0lb_SNR400_19hz_g40_80.RAW', FMTDAT='(8E13.5)'
 TRAMP=1., VOLUME=1. $END
  3.10016E+05  3.89903E+02  3.37345E+05  2.50355E+05  8.41718E+04  3.36960E+05 -1.32184E+05  2.49921E+05
 -1.89546E+05  8.21814E+04 -1.10337E+05 -3.28757E+04  2.04735E+03 -5.02379E+04  5.39022E+04 -1.80790E+02
  3.52512E+04  5.28288E+04 -1.72224E+04  7.46964E+04 -6.04511E+04  6.26300E+04 -8.24872E+04  3.13176E+04
 -7.91145E+04 -1.13421E+04 -5.57600E+04 -4.99438E+04 -1.51069E+04 -6.77692E+04  2.67771E+04 -4.42306E+04
  3.84102E+04  4.10466E+03  1.54884E+04  4.70268E+04 -3.36481E+04  4.59913E+04 -6.45143E+04 -1.17307E+03
 -5.16040E+04 -5.52820E+04 -6.16237E+03 -7.48597E+04  3.29727E+04 -5.26214E+04  4.51884E+04 -1.61310E+04
  4.09151E+04  1.08647E+04  3.04892E+04  2.46404E+04  1.58551E+04  2.77772E+04 -4.29865E+03  2.70879E+04
 -2.13691E+04  1.24472E+04 -1.94712E+04 -4.25394E+03  3.97542E+03 -7.13746E+03  2.07589E+04  1.10919E+04
  7.20557E+03  3.29205E+04 -3.03108E+04  3.35118E+04 -6.06266E+04  1.29540E+03 -5.50713E+04 -4.06611E+04
 -1.22435E+04 -5.97772E+04  3.78558E+04 -4.26100E+04  5.48553E+04 -2.13900E+03  3.14575E+04  3.04400E+04
 -7.04846E+03  3.20769E+04 -2.75006E+04  1.24727E+04 -2.68998E+04 -5.70546E+03 -1.37125E+04 -9.87967E+03
 -6.85736E+03 -1.07052E+04 -1.45383E+03 -1.62182E+04  6.66108E+03 -2.25308E+04  1.46103E+04 -1.41942E+04
  1.26723E+04  3.86523E+03 -5.51681E+03  1.27966E+04 -1.87493E+04 -1.87909E+03 -7.65531E+03 -2.94496E+04
  2.01020E+04 -3.93168E+04  4.33701E+04 -1.83860E+04  4.11655E+04  1.78909E+04  1.36211E+04  4.06454E+04
 -1.54083E+04  3.01759E+04 -2.24762E+04  1.46459E+03 -8.69260E+03 -2.58181E+04  1.95836E+04 -3.04072E+04
  3.75707E+04 -6.76399E+03  3.01231E+04  2.20362E+04  1.44433E+04  4.12428E+04 -7.19006E+03  4.40596E+04
 -2.73819E+04  2.85289E+04 -3.58381E+04  8.21237E+03 -3.69497E+04 -1.44498E+04 -2.07470E+04 -3.36987E+04
  6.91493E+03 -3.32711E+04  2.82496E+04 -1.26334E+04  2.57407E+04  1.05604E+04  2.68207E+03  1.80140E+04
 -1.26606E+04  7.18815E+03 -9.19557E+03 -7.58832E+03  6.19684E+03 -9.80493E+03  1.69229E+04  7.25579E+03
  1.23420E+04  2.18482E+04 -6.76455E+03  2.23218E+04 -2.12691E+04  8.47947E+03 -2.43525E+04 -6.96539E+03
 -1.57650E+04 -1.55551E+04 -4.45760E+03 -1.59061E+04  3.62856E+03 -1.32710E+04  1.14482E+04 -1.36058E+04
  1.97602E+04 -1.09216E+04  2.64450E+04  6.03194E+02  2.06825E+04  1.56734E+04  4.65111E+03  3.15030E+04
 -1.55449E+04  2.67826E+04 -2.51208E+04  9.27838E+03 -1.96808E+04 -1.04831E+04 -3.91546E+03 -1.41369E+04
  2.68383E+03 -3.59018E+03 -1.78303E+03  4.94003E+03 -1.24775E+04  5.53900E+03 -1.25030E+04 -4.44277E+03
 -8.02537E+03 -1.48965E+04  4.48037E+03 -1.80025E+04  1.18700E+04 -1.35184E+04  1.36471E+04 -1.34833E+03
  8.28196E+03  1.06893E+04 -6.89937E+02  1.50082E+04 -9.41824E+03  8.22127E+03 -1.48793E+04 -3.02824E+03
 -1.13971E+04 -1.32585E+04 -1.44168E+03 -1.90138E+04  7.77245E+03 -1.42970E+04  1.50055E+04 -6.24809E+03
  1.42044E+04  6.72973E+02  9.63871E+03  3.49703E+03  5.06075E+03  4.25171E+02  6.81037E+03 -1.44968E+03
  1.30343E+04  2.09972E+03  1.37851E+04  1.18376E+04  8.39801E+03  2.30145E+04 -2.76552E+03  2.47079E+04
 -1.45350E+04  1.86611E+04 -2.24030E+04  8.46897E+03 -2.31412E+04 -1.56029E+03 -1.93873E+04 -1.31287E+04
 -9.19996E+03 -1.85083E+04  6.43032E+03 -1.72999E+04  1.57398E+04 -1.01746E+04  1.42098E+04  3.22068E+03
  5.95172E+03  9.91316E+03 -6.60172E+03  9.47741E+03 -1.32386E+04  2.84200E+03 -1.00738E+04 -6.82628E+03
 -7.05207E+01 -1.18816E+04  5.61499E+03 -8.80404E+03  7.56340E+03 -1.01441E+03  8.15936E+02  4.72541E+03
 -5.60257E+03  9.20343E+02 -3.45043E+03 -3.88937E+03  1.15021E+03 -9.46098E+03  8.19930E+03 -9.17225E+03
  1.11954E+04 -4.03542E+03  1.03020E+04  2.78469E+03  9.11747E+03  8.22931E+03  4.72678E+03  1.29973E+04
 -1.38765E+03  1.48160E+04 -8.45067E+03  9.22174E+03 -1.02497E+04  3.03463E+03 -8.10421E+03 -1.70088E+03
 -3.79121E+03 -2.62764E+03 -6.82331E+02  1.99724E+03 -2.04411E+03  1.92658E+03 -2.93895E+03  3.45007E+03
 -7.68342E+03 -2.78980E+02 -8.19540E+03 -6.82853E+03 -3.62020E+03 -1.08279E+04  3.13325E+03 -7.75952E+03
  6.55900E+03 -4.06466E+03  5.10258E+03  2.16470E+03  7.27690E+02  3.12549E+03 -2.62180E+03 -1.26206E+02
 -3.03471E+03 -4.75151E+03 -3.53452E+02 -6.81157E+03  3.46561E+03 -7.52228E+03  8.77956E+03 -3.71797E+03
  1.08396E+04  6.56201E+02  8.71268E+03  5.63638E+03  2.15986E+03  7.92201E+03 -5.42882E+03  7.67699E+03
 -7.04205E+03  2.64254E+03 -3.53773E+03 -1.74224E+03  1.00301E+03 -2.27465E+03  4.54309E+03 -5.56890E+02
  3.71100E+03  3.74275E+03  1.29734E+03  6.21067E+03 -3.86517E+03  6.18807E+03 -7.27502E+03  2.05595E+03
 -4.83774E+03 -3.32414E+03  4.34303E+02 -6.53244E+03  3.61337E+03 -2.42677E+03  3.25072E+03  6.69146E+02
  2.06879E+02  2.90638E+03 -3.42584E+03  4.34534E+03 -3.95371E+03  2.44809E+03 -4.15836E+03 -9.69536E+02
 -2.23865E+03 -6.01073E+03  8.37879E+02 -6.21540E+03  5.65097E+03 -4.47052E+03  5.92425E+03  7.86012E+02
  4.05791E+03  4.27371E+03  1.82090E+02  6.50996E+03 -4.78421E+03  3.67753E+03 -4.87482E+03 -1.55377E+02
 -5.33322E+03 -4.95223E+03 -1.58208E+03 -5.04364E+03  2.35689E+03 -4.33514E+03  2.83322E+03 -2.62132E+03
  2.46989E+03  1.32387E+02 -2.17696E+01  1.19279E+03  4.62396E+02 -2.72620E+02  2.94779E+02 -1.17718E+03
  3.67174E+03 -7.61670E+02  4.59349E+03  7.16785E+02  4.93042E+03  2.74510E+03  5.26556E+03  6.84590E+03
 -8.07558E+02  7.80788E+03 -6.90048E+03  5.95146E+03 -8.76614E+03  1.37130E+03 -6.42621E+03 -2.34382E+03
 -3.62841E+03 -5.92729E+03 -1.43299E+02 -4.65985E+03  2.03871E+03 -1.67722E+03  1.48282E+03 -2.10901E+03
  6.05330E+02 -1.54422E+03  2.11450E+03 -2.39313E+03  3.46522E+03 -1.54579E+03  3.82925E+03  8.34039E+02
  4.27129E+03  1.53749E+03  9.41954E+02  2.69373E+03 -1.35152E+03  2.47299E+03 -4.50072E+03  2.48771E+03
 -4.74343E+03 -9.84113E+02 -1.46988E+03 -2.53818E+03  5.22130E+02 -4.47547E+03  2.72826E+03 -4.74020E+03
  4.36550E+03 -3.22746E+03  6.41419E+03  1.79250E+02  4.27413E+03  4.03591E+03  1.82144E+03  5.80133E+03
 -1.49084E+03  5.37850E+03 -3.06831E+03  2.30449E+03 -1.61878E+03 -7.24591E+02 -1.15686E+01 -9.65524E+02
 -1.83063E+02  2.24178E+02 -1.14184E+03  2.09784E+03 -1.95680E+03  1.24480E+03 -3.43499E+03 -2.98325E+02
 -1.74748E+03 -3.94272E+03  9.26262E+02 -4.77681E+03  2.37214E+03 -3.88626E+03  3.22084E+03 -1.11026E+03
  3.27769E+03  2.06977E+03  1.51223E+03  3.05719E+03 -4.39918E+02  4.23401E+03 -2.42851E+03  2.11592E+03
 -3.02964E+03  8.95834E+02 -2.87607E+03 -2.34790E+03 -5.48406E+02 -2.92687E+03  1.07298E+03 -1.89700E+03
  2.77765E+03 -1.02599E+03  1.11668E+03  3.88067E+02  4.30737E+02  1.55749E+03  4.89162E+02  3.79139E+02
  1.78328E+03  6.42661E+02  1.31102E+03  6.21394E+02  1.21841E+03  1.90111E+03  1.04614E+03  1.57885E+03
 -1.23070E+03  2.29460E+03 -2.12159E+03  4.03302E+03 -2.22110E+03  1.11411E+03 -3.43862E+03 -4.20025E+01
 -1.25436E+03 -3.15092E+03  5.06548E+02 -4.27855E+03  1.68902E+03 -1.85543E+03  2.89921E+03 -7.80903E+02
  2.06542E+03  1.49009E+03  2.47108E+02  2.21662E+03 -7.15714E+02  1.42853E+03 -8.64323E+02  2.88481E+01
 -4.27010E+02 -1.21241E+03  1.08020E+03 -7.81295E+02  1.05070E+03 -4.32422E+02  1.07729E+03  3.61836E+02
  2.51732E+02  1.41690E+02  1.14625E+03 -3.14109E+02 -7.72399E+02  7.92845E+02  1.41882E+03 -1.76615E+02
 -1.59789E+02 -3.89450E+02  1.61022E+03  6.64907E+02  4.14084E+02  1.62236E+03 -5.65797E+02  2.36488E+03
 -1.39394E+03  5.10391E+02 -1.63702E+03  2.01701E+02 -1.94061E+03 -1.08189E+03  2.90647E+01 -1.02429E+03
  5.95459E+02 -1.15045E+03  8.50692E+02 -4.85687E+02  5.46955E+02  9.72476E+02 -4.51616E+02  1.29327E+03
 -1.47179E+03  5.07443E+01 -1.34802E+03 -1.41936E+03  5.65312E+00 -1.88728E+03 -3.72190E+02 -1.54782E+03
  7.73741E+00 -1.38577E+03  8.84063E+02  3.76049E+02  1.24919E+03 -1.08047E+02  3.55599E+02  6.71745E+02
 -5.62912E+02  1.36620E+02 -4.39844E+02 -2.45977E+02  1.16006E+03 -7.81458E+02  1.49486E+03 -4.40885E+02
  6.20862E+02  2.77801E+02  2.56318E+03  9.12854E+02  1.16598E+03  1.57498E+03 -2.03929E+02  1.95847E+03
 -1.47582E+03  2.84332E+02 -1.82499E+03 -8.18845E+01 -9.89953E+02 -1.08654E+03  2.16935E+02 -2.86191E+02
  1.61080E+03 -8.55847E+02  1.17243E+03  1.11270E+03  7.71063E+01  1.22650E+03  6.78750E+02  8.52587E+02
 -3.61737E+02  1.05022E+03 -1.98799E+02 -1.20532E+02 -7.48140E+01  2.98253E+00 -5.30543E+02  6.78516E+02
 -8.02771E+02  1.19854E+03 -1.51209E+03  1.79758E+02 -1.50728E+03  9.55326E+01 -1.77248E+03 -4.69513E+02
 -1.18965E+03 -2.50643E+03  3.21860E+02 -2.62294E+03  1.03060E+03 -2.39012E+03  2.71587E+03 -1.28434E+03
  2.25067E+03 -1.54414E+01  1.02442E+03  1.09645E+03 -5.52720E+02  1.55438E+03 -5.46412E+02  9.72735E+02
 -1.01624E+03  6.06864E+02 -4.04922E+02 -2.39755E+02 -5.12790E+02  8.46555E+01 -7.85473E+02 -1.97157E+02
 -1.30819E+03  3.84090E+02 -8.54189E+02  4.98286E+02  2.85654E+02 -5.99363E+02 -3.42872E+02 -6.15469E+02
  1.27657E+03 -4.89622E+02  7.58631E+01  6.47263E+02  1.40816E+03  1.10331E+03 -2.19645E+02  1.42482E+03
 -1.08906E+03  2.04986E+03 -1.34683E+03  1.33762E+03 -1.68621E+03 -5.95347E+02 -7.23494E+02 -1.29493E+03
 -8.04987E+02 -1.14217E+03 -1.11768E+02 -9.25307E+02  8.84031E+02 -3.62209E+02  3.48774E+02  2.02065E+02
  9.07132E+02  3.44700E+02 -3.32597E+02 -1.69032E+02 -4.86376E+02  1.61760E+02 -1.41123E+02 -2.61306E+02
  9.07142E+02  4.56766E+02  3.51115E+02  4.96705E+02  2.19031E+02  5.70604E+02  5.16656E+02  3.57245E+02
 -3.00658E+02  3.87021E+01 -1.58414E+02  4.31077E+00 -8.39074E+02  2.46030E+02  2.82418E+02 -9.66016E+02
  3.39959E+02 -9.34598E+02  7.52021E+02  3.13734E+01  9.54735E+02 -5.49198E+02  3.94669E+02  6.24547E+02
  6.97786E+02  5.85282E+02 -1.80441E+02  9.55983E+02 -4.81471E+02  8.79258E+02 -8.96282E+01 -2.84598E+02
  1.97299E+02  7.54192E+02 -3.49296E+02  4.68167E+02 -8.75747E+02  9.59760E+01 -8.06598E+02 -1.37729E+02
 -1.03450E+03 -3.15913E+01 -4.17578E+02 -8.80604E+02  6.48222E+02 -1.44830E+03  5.67920E+02 -2.78878E+02
  8.81896E+02  2.74647E+02 -4.85645E+02 -1.23946E+02  8.08577E+01  1.05769E+03 -3.00737E+02  5.85224E+02
