 $NMID ID='MM_0lb_SNR400_17hz_g45_86.RAW', FMTDAT='(8E13.5)'
 TRAMP=1., VOLUME=1. $END
  3.10035E+05  7.66604E+02  3.37664E+05  2.50753E+05  8.40160E+04  3.37384E+05 -1.32633E+05  2.50824E+05
 -1.89557E+05  8.30156E+04 -1.11257E+05 -3.19024E+04  1.01071E+03 -4.99568E+04  5.39488E+04  5.22315E+02
  3.54726E+04  5.27422E+04 -1.64972E+04  7.47409E+04 -6.04883E+04  6.29921E+04 -8.33288E+04  3.11860E+04
 -8.02004E+04 -1.12518E+04 -5.63960E+04 -5.05040E+04 -1.50857E+04 -6.87400E+04  2.61866E+04 -4.48023E+04
  3.98375E+04  3.99254E+03  1.60094E+04  4.71794E+04 -3.40557E+04  4.64953E+04 -6.57949E+04  2.18946E+02
 -5.25223E+04 -5.57258E+04 -6.17864E+03 -7.57010E+04  3.39642E+04 -5.34423E+04  4.70138E+04 -1.71171E+04
  4.18190E+04  1.12697E+04  3.07237E+04  2.42501E+04  1.54908E+04  2.80759E+04 -4.37297E+03  2.64272E+04
 -2.15649E+04  1.24163E+04 -1.91172E+04 -5.08593E+03  4.49997E+03 -7.26836E+03  2.17605E+04  1.08914E+04
  7.89009E+03  3.40119E+04 -3.11197E+04  3.41431E+04 -6.12798E+04  2.28790E+03 -5.57841E+04 -4.13809E+04
 -1.26662E+04 -6.12382E+04  3.87182E+04 -4.38606E+04  5.63481E+04 -2.17982E+03  3.21208E+04  3.10590E+04
 -6.28688E+03  3.36916E+04 -2.85699E+04  1.35844E+04 -2.80311E+04 -4.80838E+03 -1.55036E+04 -1.00632E+04
 -7.63213E+03 -1.17842E+04 -1.30268E+03 -1.70635E+04  6.85295E+03 -2.28139E+04  1.54884E+04 -1.40731E+04
  1.18222E+04  4.34586E+03 -6.36314E+03  1.26449E+04 -1.98275E+04 -2.97728E+03 -8.39360E+03 -3.16096E+04
  2.11066E+04 -4.14402E+04  4.54529E+04 -1.87570E+04  4.32512E+04  1.84751E+04  1.44028E+04  4.25000E+04
 -1.54916E+04  3.16255E+04 -2.38484E+04  1.47551E+03 -8.55485E+03 -2.64775E+04  2.00688E+04 -3.14889E+04
  3.90792E+04 -7.48836E+03  3.25756E+04  2.28470E+04  1.61588E+04  4.26961E+04 -7.83545E+03  4.60689E+04
 -2.84058E+04  3.05144E+04 -3.84954E+04  8.74028E+03 -3.96331E+04 -1.55064E+04 -2.15087E+04 -3.53804E+04
  6.71777E+03 -3.56825E+04  2.96356E+04 -1.33954E+04  2.77140E+04  1.07261E+04  3.09784E+03  1.82608E+04
 -1.27001E+04  7.91243E+03 -9.92658E+03 -7.36263E+03  5.96762E+03 -1.05608E+04  1.80045E+04  5.98918E+03
  1.25390E+04  2.25242E+04 -6.46187E+03  2.40655E+04 -2.13584E+04  9.81613E+03 -2.56506E+04 -5.87686E+03
 -1.83493E+04 -1.72169E+04 -5.95869E+03 -1.76819E+04  3.67019E+03 -1.61967E+04  1.38225E+04 -1.53013E+04
  2.27067E+04 -1.14135E+04  2.92821E+04  1.47284E+03  2.17722E+04  1.70507E+04  4.16623E+03  3.25878E+04
 -1.58595E+04  2.83252E+04 -2.63906E+04  9.76620E+03 -1.95859E+04 -1.08231E+04 -4.24379E+03 -1.36919E+04
  2.50230E+03 -3.49976E+03 -3.52150E+03  5.88063E+03 -1.38231E+04  5.23359E+03 -1.42311E+04 -5.01436E+03
 -9.09850E+03 -1.64036E+04  4.73298E+03 -2.02052E+04  1.29156E+04 -1.45907E+04  1.51006E+04 -1.42655E+03
  9.86176E+03  1.09690E+04 -5.81466E+02  1.59732E+04 -1.11513E+04  9.62482E+03 -1.64169E+04 -3.64763E+03
 -1.21610E+04 -1.47863E+04 -1.77229E+03 -1.99872E+04  8.77438E+03 -1.58718E+04  1.58042E+04 -7.64923E+03
  1.54400E+04  2.41096E+02  1.02741E+04  3.68644E+03  5.45691E+03  9.45595E+02  8.54139E+03 -1.38646E+03
  1.45813E+04  2.41453E+03  1.61179E+04  1.37459E+04  1.09983E+04  2.62923E+04 -3.44241E+03  2.84268E+04
 -1.67165E+04  2.17743E+04 -2.58569E+04  1.09310E+04 -2.67496E+04 -2.10558E+03 -2.28869E+04 -1.49487E+04
 -1.00470E+04 -2.17006E+04  7.63032E+03 -2.04643E+04  1.77693E+04 -1.13754E+04  1.67648E+04  3.73832E+03
  6.51251E+03  1.21786E+04 -7.80122E+03  1.07571E+04 -1.40599E+04  2.13484E+03 -1.05857E+04 -8.72070E+03
  1.19514E+02 -1.32249E+04  7.08802E+03 -1.01824E+04  8.23717E+03 -1.30856E+03  1.97217E+03  5.15011E+03
 -5.86228E+03  1.87432E+03 -4.12078E+03 -4.96828E+03 -5.58123E+01 -1.11279E+04  8.30898E+03 -1.12499E+04
  1.29874E+04 -5.68226E+03  1.35066E+04  2.38794E+03  1.19224E+04  1.00430E+04  5.33638E+03  1.50907E+04
 -1.81433E+03  1.72250E+04 -1.05298E+04  1.12367E+04 -1.25782E+04  2.80103E+03 -9.34651E+03 -2.53807E+03
 -5.08222E+03 -3.69544E+03 -1.44760E+03  1.07991E+03 -2.11245E+03  2.41719E+03 -3.95115E+03  3.77695E+03
 -8.48929E+03 -3.34879E+02 -8.87980E+03 -7.51125E+03 -4.09168E+03 -1.19056E+04  3.54033E+03 -9.40559E+03
  7.95338E+03 -4.12214E+03  5.54650E+03  2.09608E+03  5.31257E+02  3.42987E+03 -3.92356E+03 -2.25082E+02
 -3.94593E+03 -5.69566E+03 -4.89356E+02 -8.79101E+03  4.85069E+03 -8.30197E+03  1.10535E+04 -4.25327E+03
  1.33891E+04  6.15163E+02  9.73049E+03  7.24433E+03  2.14244E+03  9.72697E+03 -5.68210E+03  9.32466E+03
 -7.64929E+03  2.86610E+03 -3.25548E+03 -1.29893E+03  1.11736E+03 -2.34004E+03  5.56223E+03 -9.78190E+02
  4.38401E+03  4.06602E+03  1.02367E+03  7.19248E+03 -4.92421E+03  7.04550E+03 -8.14200E+03  1.78399E+03
 -5.68109E+03 -3.93219E+03 -1.25501E+01 -7.48185E+03  4.10609E+03 -3.79846E+03  4.08510E+03  1.73168E+03
  7.25720E+02  3.30788E+03 -4.58544E+03  5.53220E+03 -5.80666E+03  2.93476E+03 -4.75608E+03 -1.23175E+03
 -3.31291E+03 -6.76672E+03  1.50419E+03 -7.55794E+03  6.39091E+03 -5.08620E+03  7.50438E+03  1.12215E+03
  5.03163E+03  5.77965E+03  1.16377E+02  8.15577E+03 -6.02642E+03  4.32656E+03 -6.47813E+03 -7.20924E+02
 -6.36668E+03 -6.24434E+03 -1.85663E+03 -5.58185E+03  2.67670E+03 -5.11245E+03  3.17940E+03 -2.97650E+03
  2.94106E+03  1.67088E+02  5.91871E+02  1.72568E+03  9.73216E+02 -4.97615E+02  5.15405E+02 -2.32154E+03
  4.76671E+03 -1.73210E+03  6.21953E+03  1.07279E+03  6.55863E+03  3.86875E+03  6.42792E+03  9.19865E+03
 -1.26649E+03  9.94101E+03 -9.12358E+03  7.61422E+03 -1.14344E+04  1.61420E+03 -8.91484E+03 -2.76463E+03
 -4.60966E+03 -7.36581E+03 -1.85726E+02 -6.46228E+03  2.67057E+03 -3.19641E+03  1.94573E+03 -2.38225E+03
  8.93715E+02 -2.43335E+03  1.84605E+03 -2.59653E+03  3.36040E+03 -1.22624E+03  3.92787E+03  4.58392E+02
  4.62767E+03  1.46321E+03  1.45994E+03  3.88575E+03 -1.99403E+03  4.00292E+03 -5.25070E+03  3.10585E+03
 -5.92137E+03 -1.05205E+03 -1.97382E+03 -3.65012E+03  4.32560E+02 -6.06414E+03  3.60331E+03 -6.26413E+03
  6.30711E+03 -3.57377E+03  7.75847E+03 -1.06527E+00  5.35780E+03  4.95297E+03  1.29737E+03  7.30131E+03
 -2.75711E+03  6.44333E+03 -3.93040E+03  1.33688E+03 -2.95945E+03 -6.51072E+02 -3.39601E+02 -8.87522E+02
 -4.84252E+02  8.82351E+01 -1.42419E+03  1.95363E+03 -3.74313E+03  1.19759E+03 -4.37035E+03 -8.47397E+02
 -2.42501E+03 -4.39815E+03  9.63775E+02 -5.75495E+03  3.53126E+03 -4.96562E+03  4.68744E+03 -1.46965E+03
  5.37074E+03  2.81714E+03  1.93410E+03  3.95232E+03 -1.12162E+03  5.21273E+03 -3.07495E+03  2.90772E+03
 -4.90720E+03  2.26269E+02 -4.02538E+03 -3.11547E+03 -4.82972E+02 -3.69692E+03  2.32121E+03 -2.94702E+03
  3.21388E+03 -1.16571E+03  2.31057E+03  6.11112E+02  6.57805E+02  1.54364E+03  9.12884E+02  6.72340E+02
  2.09388E+03  4.86625E+02  9.02790E+02  1.65844E+03  1.46208E+03  2.86096E+03  1.83495E+03  2.09620E+03
 -1.46048E+03  3.70983E+03 -3.02696E+03  4.66692E+03 -4.04009E+03  7.98885E+02 -5.31728E+03 -9.60118E+02
 -2.41704E+03 -4.85619E+03  9.32125E+02 -5.11723E+03  2.23363E+03 -3.35400E+03  3.89086E+03 -6.82154E+02
  3.28006E+03  1.97112E+03  8.50824E+02  2.74184E+03 -8.82282E+02  1.55551E+03 -1.51154E+03 -2.36679E+02
 -4.15042E+02 -2.09694E+03  1.63360E+03 -1.74188E+03  1.59036E+03 -7.52142E+02  1.87279E+03  4.40463E+02
  1.02848E+03  7.05051E+02  7.35657E+02 -3.10893E+02 -9.11877E+02  9.82871E+02  1.49696E+03 -5.43293E+02
  2.57294E+02  4.84498E+01  2.21740E+03  4.88116E+02  4.98818E+02  3.45444E+03 -8.69662E+02  3.94114E+03
 -1.77088E+03  1.59703E+03 -2.75016E+03  1.30269E+02 -2.81039E+03 -8.54036E+02 -3.59590E+02 -9.09648E+02
  9.27035E+01 -1.67363E+03  1.46819E+03 -6.92717E+02  5.03485E+02  8.21247E+02 -1.35320E+03  1.22261E+03
 -1.71434E+03  7.31868E+02 -1.52279E+03 -1.06418E+03 -1.05324E+03 -2.80521E+03  8.12042E+01 -2.02198E+03
  7.95966E+02 -6.94351E+02  1.20947E+03  9.77971E+00  2.49239E+03  5.75230E+02 -1.80764E+02  9.33166E+02
 -7.67107E+02  3.23755E+02 -1.41391E+03 -2.57743E+02  4.52472E+02 -1.25645E+03  2.19711E+03 -5.63429E+02
  2.20453E+03  2.04679E+02  3.51797E+03  1.16105E+03  9.34940E+02  1.99860E+03 -4.85183E+02  2.73528E+03
 -2.62953E+03  7.98923E+02 -2.30924E+03 -5.45625E+02 -7.95041E+02 -1.47306E+03  4.27606E+02 -9.36009E+02
  1.95661E+03 -1.17124E+03  1.12282E+03  6.00098E+02  1.52411E+02  1.32225E+03  2.99674E+02  1.81709E+03
 -7.09486E+02  1.15210E+03 -5.92048E+02  2.18935E+02 -6.52073E+02  2.89868E+02 -1.12328E+03  1.55415E+02
 -1.22386E+02  1.21975E+03 -1.99881E+03  8.29905E+02 -2.36685E+03  3.10679E+02 -2.92876E+03 -1.35921E+03
 -1.53692E+03 -3.11045E+03  9.56613E+02 -3.06803E+03  1.33175E+03 -3.10041E+03  3.28979E+03 -1.27824E+03
  3.16221E+03 -1.70945E+02  1.69003E+03  2.53076E+03 -7.03088E+02  1.96046E+03 -4.67607E+02  1.39705E+03
 -1.14709E+03  5.55464E+02 -2.24753E+02 -7.64764E+02 -6.70049E+02  2.10534E+02 -7.96173E+02 -1.53967E+02
 -1.01467E+03  5.85139E+01 -3.92891E+02 -1.92649E+02  3.15143E+02 -1.66931E+02  4.13222E+02 -8.71100E+02
  1.72621E+03 -8.59792E+02  7.21166E+02  5.82561E+00  1.72793E+03  1.90841E+03 -3.35120E+02  1.93987E+03
 -1.23463E+03  2.91899E+03 -2.89349E+03  1.64193E+03 -1.79515E+03 -7.06488E+02 -1.40528E+03 -9.01714E+02
 -1.17716E+03 -2.39645E+03  7.47342E+02 -1.45583E+03  9.76331E+02 -6.67751E+02  9.78044E+02 -4.27087E+02
  1.07895E+03  5.02404E+02  1.31033E+02  2.91728E+02 -2.22679E+02  3.10691E+01  2.97228E+02 -5.27308E+02
  4.93084E+02  5.86336E+01  1.21301E+03  7.99949E+02  5.83002E+02  6.81822E+02  8.91886E+02  5.62621E+02
 -1.11684E+03  6.84184E+02 -1.42117E+03  1.12548E+02 -8.56516E+02 -4.83783E+02  1.07689E+02 -1.87912E+03
  1.00854E+03 -1.08879E+03  1.26959E+03  2.42659E+02  1.60702E+03 -5.14505E+01  3.72609E+01  6.29434E+02
  7.29980E+02  1.50105E+03  5.83722E+00  1.25875E+03 -2.65065E+02  4.33491E+02 -6.85176E+02 -1.67996E+02
 -3.99742E+02 -1.75119E+02 -8.37708E+02  1.74480E+02 -4.96768E+02  6.28999E+02 -6.65350E+02  9.34365E+01
 -1.05443E+03 -3.83237E+02 -4.82335E+02 -6.42756E+02  4.97432E+02 -1.87043E+03  8.59261E+02 -3.85900E+02
  1.13579E+03 -3.45345E+02 -3.67209E+01  4.78448E+02  4.21511E+02  1.42079E+03 -4.10097E+02  8.92897E+02
