 $NMID ID='MM_0lb_SNR400_14hz_g50_45.RAW', FMTDAT='(8E13.5)'
 TRAMP=1., VOLUME=1. $END
  3.09637E+05  6.32165E+02  3.37261E+05  2.50569E+05  8.46046E+04  3.37947E+05 -1.32476E+05  2.50821E+05
 -1.90369E+05  8.33625E+04 -1.12094E+05 -3.29954E+04  2.31442E+02 -5.04978E+04  5.39873E+04 -5.11249E+02
  3.53371E+04  5.31593E+04 -1.61802E+04  7.52219E+04 -6.00318E+04  6.40758E+04 -8.34529E+04  3.18712E+04
 -8.12051E+04 -1.10636E+04 -5.72574E+04 -5.09291E+04 -1.49991E+04 -6.95668E+04  2.71335E+04 -4.51512E+04
  4.00069E+04  3.77577E+03  1.62834E+04  4.84001E+04 -3.41815E+04  4.65303E+04 -6.69776E+04 -8.90726E+01
 -5.37349E+04 -5.64836E+04 -6.74249E+03 -7.73037E+04  3.45883E+04 -5.51666E+04  4.77024E+04 -1.77299E+04
  4.30738E+04  1.10706E+04  3.24200E+04  2.57364E+04  1.59973E+04  2.97282E+04 -5.70575E+03  2.75884E+04
 -2.18021E+04  1.21338E+04 -1.86189E+04 -5.41291E+03  5.54079E+03 -7.82909E+03  2.20730E+04  1.23386E+04
  6.94907E+03  3.50615E+04 -3.20722E+04  3.53002E+04 -6.32245E+04  1.82767E+03 -5.78967E+04 -4.31271E+04
 -1.24054E+04 -6.33785E+04  3.95966E+04 -4.54266E+04  5.83428E+04 -2.23501E+03  3.49945E+04  3.28681E+04
 -5.72603E+03  3.63652E+04 -2.98709E+04  1.68028E+04 -3.09685E+04 -4.38557E+03 -1.76941E+04 -1.09577E+04
 -9.00535E+03 -1.31325E+04 -8.29698E+02 -1.80655E+04  7.99962E+03 -2.33405E+04  1.58772E+04 -1.34300E+04
  1.20477E+04  4.72221E+03 -9.10471E+03  1.28915E+04 -2.09926E+04 -4.80854E+03 -8.05085E+03 -3.33427E+04
  2.27434E+04 -4.35638E+04  4.77179E+04 -1.95435E+04  4.52357E+04  1.95809E+04  1.56943E+04  4.40555E+04
 -1.62348E+04  3.37018E+04 -2.58562E+04  2.19473E+03 -9.34038E+03 -2.73895E+04  2.11151E+04 -3.40601E+04
  4.12781E+04 -9.43560E+03  3.53418E+04  2.34397E+04  1.79781E+04  4.69419E+04 -7.92183E+03  5.11366E+04
 -3.17091E+04  3.43899E+04 -4.16486E+04  1.00684E+04 -4.25459E+04 -1.65992E+04 -2.28969E+04 -3.78988E+04
  6.74562E+03 -3.77654E+04  3.18439E+04 -1.41786E+04  2.95924E+04  1.13641E+04  4.08238E+03  1.91415E+04
 -1.41293E+04  8.39951E+03 -1.04646E+04 -7.52512E+03  5.40626E+03 -1.07378E+04  1.80435E+04  5.37947E+03
  1.33380E+04  2.21827E+04 -6.30859E+03  2.55987E+04 -2.24137E+04  1.16435E+04 -2.80188E+04 -4.88699E+03
 -2.04513E+04 -1.71204E+04 -7.93430E+03 -2.08243E+04  4.10890E+03 -1.94128E+04  1.54694E+04 -1.83700E+04
  2.58645E+04 -1.25759E+04  3.23275E+04  2.51835E+03  2.34517E+04  1.94745E+04  4.21454E+03  3.65967E+04
 -1.74704E+04  3.07246E+04 -2.79522E+04  1.06274E+04 -2.08322E+04 -9.89791E+03 -4.45530E+03 -1.28316E+04
  1.78179E+03 -2.26778E+03 -5.12107E+03  6.49033E+03 -1.64731E+04  5.12251E+03 -1.66682E+04 -7.06276E+03
 -1.08582E+04 -1.86772E+04  4.85459E+03 -2.28590E+04  1.54135E+04 -1.68924E+04  1.77782E+04 -1.84791E+03
  1.08659E+04  1.30448E+04 -1.19505E+03  1.83771E+04 -1.31345E+04  1.12121E+04 -1.86603E+04 -4.19206E+03
 -1.40743E+04 -1.68351E+04 -2.30587E+03 -2.23218E+04  1.05560E+04 -1.91196E+04  1.96954E+04 -8.93480E+03
  1.81040E+04  6.91618E+02  1.28846E+04  4.04880E+03  7.00180E+03  1.28687E+03  9.24863E+03 -1.27636E+03
  1.79685E+04  2.40986E+03  1.97467E+04  1.54256E+04  1.32868E+04  3.01657E+04 -2.56718E+03  3.45529E+04
 -2.00400E+04  2.73308E+04 -3.21854E+04  1.35521E+04 -3.38451E+04 -3.10496E+03 -2.75870E+04 -1.92977E+04
 -1.16977E+04 -2.82854E+04  9.48101E+03 -2.46406E+04  2.14435E+04 -1.27591E+04  1.93947E+04  5.50107E+03
  6.43884E+03  1.43254E+04 -9.08131E+03  1.26235E+04 -1.58850E+04  2.97133E+03 -1.26420E+04 -9.92099E+03
 -9.62777E+02 -1.51843E+04  8.02566E+03 -1.12720E+04  1.04277E+04 -1.69418E+03  2.39563E+03  6.38242E+03
 -6.91467E+03  2.38438E+03 -6.63078E+03 -5.30261E+03 -8.96492E+02 -1.36527E+04  9.31596E+03 -1.44046E+04
  1.71053E+04 -7.32837E+03  1.78306E+04  2.66032E+03  1.58638E+04  1.35833E+04  7.81547E+03  2.04700E+04
 -3.08121E+03  2.22032E+04 -1.43558E+04  1.40943E+04 -1.67343E+04  3.25750E+03 -1.12733E+04 -3.13245E+03
 -5.08152E+03 -5.11964E+03 -2.42904E+02  1.35193E+03 -2.45435E+03  3.04452E+03 -4.93011E+03  4.26318E+03
 -1.10003E+04 -1.18471E+02 -1.11553E+04 -9.41416E+03 -4.78100E+03 -1.43003E+04  4.19880E+03 -1.15868E+04
  9.03529E+03 -5.19609E+03  6.23676E+03  3.02731E+03  3.89053E+02  3.82545E+03 -5.07405E+03 -2.33436E+01
 -5.13273E+03 -6.74149E+03 -3.75192E+02 -1.07355E+04  5.96248E+03 -1.11031E+04  1.43585E+04 -6.43092E+03
  1.64274E+04  9.08805E+02  1.25233E+04  1.05840E+04  2.03491E+03  1.34150E+04 -7.03770E+03  1.10390E+04
 -9.20857E+03  2.78845E+03 -4.64554E+03 -1.87048E+03  1.40244E+03 -3.60799E+03  6.22604E+03 -1.10284E+03
  5.49669E+03  4.49059E+03  1.11523E+03  8.70350E+03 -6.49166E+03  8.52360E+03 -1.12415E+04  2.17820E+03
 -7.01985E+03 -5.52742E+03  3.46735E+02 -9.46140E+03  5.72075E+03 -5.09466E+03  5.85690E+03  1.72571E+03
  1.45890E+03  6.43971E+03 -5.64524E+03  7.22227E+03 -8.01899E+03  3.54670E+03 -8.34926E+03 -3.38573E+03
 -4.61749E+03 -1.01979E+04  2.06994E+03 -1.15039E+04  9.28777E+03 -7.42874E+03  1.02671E+04  1.61508E+03
  6.75919E+03  8.66516E+03 -1.69910E+02  1.02575E+04 -7.85827E+03  6.26847E+03 -8.36886E+03 -7.47459E+02
 -7.58668E+03 -7.04731E+03 -1.79750E+03 -8.00366E+03  4.34268E+03 -6.60173E+03  5.19342E+03 -3.65527E+03
  3.48604E+03  5.77042E+02  3.39377E+00  1.44811E+03  2.86958E+02 -1.59568E+03  8.66581E+02 -4.37775E+03
  6.90598E+03 -2.44629E+03  8.81115E+03  8.91252E+02  9.05402E+03  5.67950E+03  7.33592E+03  1.28663E+04
 -2.70440E+03  1.46535E+04 -1.30662E+04  1.03351E+04 -1.62560E+04  2.16758E+03 -1.27858E+04 -4.57119E+03
 -6.03857E+03 -1.06789E+04 -2.85754E+02 -9.55637E+03  3.16538E+03 -4.27883E+03  3.09375E+03 -3.42612E+03
  2.70602E+03 -1.83274E+03  2.40482E+03 -2.15225E+03  4.51005E+03 -1.97858E+03  5.37681E+03 -2.51243E+02
  7.26370E+03  1.74581E+03  2.53292E+03  5.82629E+03 -1.53754E+03  5.99146E+03 -6.70663E+03  5.11416E+03
 -8.48729E+03 -9.27386E+02 -4.62049E+03 -5.23886E+03  3.56768E+02 -9.34288E+03  4.76899E+03 -8.84078E+03
  9.51317E+03 -5.53568E+03  1.14477E+04  7.64713E+02  8.59442E+03  7.84409E+03  1.50917E+03  1.06794E+04
 -4.53411E+03  9.11200E+03 -6.20761E+03  3.23399E+03 -3.81197E+03 -1.30025E+03 -8.63345E+02 -1.68919E+03
 -1.13930E+03 -1.91049E+02 -1.92000E+03  2.88477E+03 -4.27196E+03  1.73805E+03 -6.10243E+03 -1.38231E+03
 -3.82748E+03 -5.75619E+03  5.97628E+02 -8.08942E+03  5.32349E+03 -7.29052E+03  7.52191E+03 -1.54946E+03
  7.80970E+03  3.84558E+03  3.70835E+03  6.88397E+03 -7.76663E+02  7.98630E+03 -5.59051E+03  4.83987E+03
 -7.96321E+03  7.85637E+02 -5.33544E+03 -4.23981E+03 -6.38723E+02 -6.70342E+03  2.80625E+03 -4.79054E+03
  5.31649E+03 -1.79192E+03  3.15007E+03  1.22159E+03  1.75109E+03  2.45799E+03  1.20940E+03  1.28526E+03
  1.96392E+03  5.55597E+02  2.08566E+03  1.46405E+03  2.43959E+03  3.60879E+03  2.55675E+03  3.90259E+03
 -1.88706E+03  5.70717E+03 -5.51682E+03  6.56969E+03 -6.84724E+03  1.92036E+03 -7.93417E+03 -2.34268E+03
 -4.05783E+03 -7.48133E+03  1.50029E+03 -9.22698E+03  4.42611E+03 -5.57856E+03  5.92641E+03 -2.08868E+03
  5.17309E+03  3.18917E+03  1.50440E+03  4.72169E+03 -1.79712E+03  2.67438E+03 -2.70392E+03 -5.04777E+02
 -1.59431E+03 -3.10476E+03  2.37676E+03 -3.06311E+03  3.77270E+03 -2.02310E+03  2.60662E+03  2.29112E+02
  1.68208E+03  1.12542E+03  1.35929E+03  7.55704E+02 -5.85098E+02  9.32498E+02  1.73373E+03 -7.34589E+02
  6.84455E+02 -1.43563E+02  3.09723E+03  1.35630E+03  1.48604E+03  4.98657E+03 -4.53556E+02  5.22415E+03
 -3.19343E+03  2.61412E+03 -4.03809E+03  9.26045E+02 -4.26866E+03 -1.47888E+03 -1.26996E+03 -2.41409E+03
 -5.22893E+01 -2.51386E+03  2.47327E+03 -1.89304E+03  1.38721E+03  1.45126E+03 -1.25023E+03  2.31938E+03
 -3.06865E+03  1.59911E+03 -3.90235E+03 -1.78234E+03 -1.75024E+03 -4.21320E+03  3.63468E+02 -3.59119E+03
  1.81863E+03 -1.94101E+03  2.70791E+03 -2.44986E+02  2.92364E+03  8.53610E+02  2.20884E+02  2.17390E+03
 -8.28865E+02 -6.20200E+02 -1.82045E+03 -1.04054E+03  8.85333E+02 -2.65111E+03  3.26457E+03 -2.60948E+03
  3.69082E+03  6.91227E+02  4.99054E+03  2.20988E+03  1.31167E+03  4.41903E+03 -1.29923E+03  4.42134E+03
 -3.55962E+03  1.67502E+03 -3.73295E+03  1.35960E+02 -1.45887E+03 -3.32970E+03  6.51323E+02 -1.59149E+03
  3.06427E+03 -1.44356E+03  2.18388E+03  1.04465E+03  9.16011E+02  2.20947E+03 -3.02754E+02  1.93847E+03
 -1.18391E+03  2.02575E+03 -5.25679E+02  9.51682E+01 -4.37693E+02  6.51137E+02 -9.72128E+02  1.11012E+03
 -9.01578E+02  2.08704E+03 -3.45744E+03  1.51999E+03 -4.46176E+03  3.25104E+02 -4.34567E+03 -2.36765E+03
 -1.90633E+03 -5.57917E+03  9.09386E+02 -6.41210E+03  3.83118E+03 -5.37533E+03  5.82842E+03 -1.73406E+03
  5.58342E+03  8.81916E+02  2.84892E+03  3.61401E+03 -1.24811E+02  4.35258E+03 -1.98751E+03  3.14870E+03
 -2.23607E+03  1.72800E+03 -1.14764E+03  3.87535E+01 -7.70072E+02  1.23228E+02 -1.33111E+02  4.09580E+02
 -1.58427E+03 -2.19573E+01 -9.03724E+02  6.07481E+02 -3.82561E+00 -1.28518E+03 -2.46862E+02 -1.79654E+03
  1.65820E+03 -1.05195E+03  1.93465E+03  2.68343E+02  3.12256E+03  1.61334E+03  5.74661E+01  4.22987E+03
 -1.82864E+03  4.93882E+03 -4.56498E+03  3.19820E+03 -4.91565E+03 -2.43033E+02 -3.38645E+03 -2.93321E+03
 -1.60216E+03 -4.62302E+03  8.02123E+02 -3.40880E+03  2.37720E+03 -2.33142E+03  2.73474E+03 -1.62593E+02
  1.02009E+03  1.29999E+03  5.82059E+02  8.17735E+02 -1.36684E+03 -6.92123E+02 -4.46619E+02 -6.84676E+02
  8.87565E+02  9.99075E+01  7.90099E+02  6.04289E+02  5.92880E+01  1.47430E+03  1.24460E+02  1.61105E+03
 -1.47246E+03  1.84258E+03 -2.55591E+03  5.80418E+02 -2.54478E+03 -1.28234E+03 -1.10025E+02 -3.29991E+03
  1.74599E+03 -2.09146E+03  2.57495E+03 -1.01192E+03  2.25302E+03 -1.22093E+02  2.38077E+03  2.46809E+03
  2.77904E+02  2.95577E+03 -5.19681E+02  2.32112E+03 -1.36523E+03  1.13246E+03 -1.12874E+03  4.88077E+02
 -4.01047E+02 -5.89620E+02 -1.35067E+03  9.86213E+01 -1.04864E+03  3.14940E+02 -2.08259E+03 -1.29752E+01
 -2.39804E+03 -5.84426E+02 -4.27899E+02 -2.19521E+03  1.85404E+03 -3.35764E+03  2.22965E+03 -1.18221E+03
  2.38141E+03 -3.22114E+02  9.07323E+02  1.15974E+03 -2.69330E+02  2.21248E+03 -1.71981E+03  1.54575E+03
