 $NMID ID='MM_0lb_SNR400_17hz_g55_58.RAW', FMTDAT='(8E13.5)'
 TRAMP=1., VOLUME=1. $END
  3.09735E+05  1.67572E+02  3.37614E+05  2.50178E+05  8.44701E+04  3.37728E+05 -1.32719E+05  2.50769E+05
 -1.90452E+05  8.31798E+04 -1.10912E+05 -3.31211E+04  1.03842E+03 -5.00499E+04  5.37771E+04  6.36976E+01
  3.51617E+04  5.32807E+04 -1.67977E+04  7.60633E+04 -6.09726E+04  6.37011E+04 -8.40495E+04  3.25096E+04
 -8.06220E+04 -1.13969E+04 -5.68179E+04 -5.09143E+04 -1.52255E+04 -6.87879E+04  2.74582E+04 -4.54316E+04
  3.94832E+04  3.48978E+03  1.54319E+04  4.79502E+04 -3.42255E+04  4.67356E+04 -6.61771E+04  2.00642E+02
 -5.23401E+04 -5.67139E+04 -6.75867E+03 -7.67628E+04  3.37932E+04 -5.43589E+04  4.69625E+04 -1.75210E+04
  4.25819E+04  1.09891E+04  3.13209E+04  2.47514E+04  1.57842E+04  2.90464E+04 -5.22802E+03  2.68677E+04
 -2.19709E+04  1.28098E+04 -1.90817E+04 -4.64001E+03  4.78418E+03 -7.06058E+03  2.23240E+04  1.22500E+04
  7.33943E+03  3.41876E+04 -3.15496E+04  3.50438E+04 -6.26169E+04  2.10760E+03 -5.61965E+04 -4.19056E+04
 -1.27056E+04 -6.18054E+04  3.89919E+04 -4.48836E+04  5.72305E+04 -1.93631E+03  3.35688E+04  3.13216E+04
 -6.88847E+03  3.46629E+04 -2.88561E+04  1.45698E+04 -2.98535E+04 -4.87576E+03 -1.58538E+04 -1.03293E+04
 -7.84736E+03 -1.25707E+04 -8.29548E+02 -1.79950E+04  7.08995E+03 -2.24692E+04  1.47583E+04 -1.37485E+04
  1.13070E+04  4.95554E+03 -8.22593E+03  1.30040E+04 -2.07209E+04 -4.07847E+03 -8.16654E+03 -3.20849E+04
  2.17973E+04 -4.25753E+04  4.67159E+04 -1.90185E+04  4.39536E+04  1.83272E+04  1.48280E+04  4.30714E+04
 -1.53366E+04  3.24736E+04 -2.46740E+04  8.13330E+02 -8.88407E+03 -2.76532E+04  2.06729E+04 -3.31310E+04
  3.96902E+04 -8.06625E+03  3.41192E+04  2.30704E+04  1.68199E+04  4.52361E+04 -8.01229E+03  4.79239E+04
 -3.08612E+04  3.22526E+04 -3.98495E+04  9.19525E+03 -4.04325E+04 -1.57172E+04 -2.23368E+04 -3.72462E+04
  7.07951E+03 -3.68528E+04  3.01291E+04 -1.35664E+04  2.83770E+04  1.08771E+04  3.33584E+03  1.83859E+04
 -1.32257E+04  7.77162E+03 -1.00276E+04 -7.95057E+03  5.95603E+03 -1.06315E+04  1.79310E+04  5.86793E+03
  1.31196E+04  2.19243E+04 -6.30155E+03  2.46300E+04 -2.14616E+04  1.02772E+04 -2.69105E+04 -5.25093E+03
 -1.86028E+04 -1.71475E+04 -7.64994E+03 -1.87089E+04  4.22068E+03 -1.71111E+04  1.39114E+04 -1.58872E+04
  2.37420E+04 -1.19122E+04  3.02019E+04  2.37866E+03  2.26862E+04  1.84731E+04  4.27803E+03  3.42280E+04
 -1.73172E+04  2.90375E+04 -2.68178E+04  1.03731E+04 -2.02934E+04 -9.27611E+03 -3.85984E+03 -1.34669E+04
  2.25920E+03 -2.91672E+03 -4.01227E+03  6.11079E+03 -1.43383E+04  4.78066E+03 -1.50874E+04 -5.94531E+03
 -9.32622E+03 -1.72890E+04  5.01324E+03 -2.12267E+04  1.41548E+04 -1.58958E+04  1.60262E+04 -1.07729E+03
  1.02975E+04  1.21165E+04 -6.81798E+02  1.75392E+04 -1.18343E+04  9.74150E+03 -1.74486E+04 -4.07404E+03
 -1.30309E+04 -1.52046E+04 -1.51053E+03 -2.10818E+04  1.01709E+04 -1.72339E+04  1.81816E+04 -7.92295E+03
  1.61614E+04  4.54736E+02  1.11138E+04  4.29622E+03  6.09205E+03  1.61934E+03  9.05660E+03 -2.07776E+03
  1.57180E+04  1.98025E+03  1.74084E+04  1.41190E+04  1.04042E+04  2.79037E+04 -3.04328E+03  3.02468E+04
 -1.80932E+04  2.43740E+04 -2.82643E+04  1.17203E+04 -2.95114E+04 -1.68307E+03 -2.42761E+04 -1.65889E+04
 -1.11679E+04 -2.38756E+04  7.76472E+03 -2.21656E+04  1.97341E+04 -1.21100E+04  1.79696E+04  4.43415E+03
  6.49457E+03  1.29750E+04 -8.38915E+03  1.14632E+04 -1.48223E+04  2.67768E+03 -1.12159E+04 -8.91242E+03
  3.33211E+02 -1.38371E+04  6.79210E+03 -1.10042E+04  9.05999E+03 -1.27779E+03  1.66356E+03  5.47593E+03
 -6.34919E+03  2.25235E+03 -4.88590E+03 -5.17893E+03  1.63936E+02 -1.16928E+04  8.75777E+03 -1.21056E+04
  1.48629E+04 -5.95304E+03  1.46810E+04  3.17004E+03  1.27022E+04  1.06558E+04  6.90723E+03  1.71777E+04
 -2.92819E+03  1.83738E+04 -1.14885E+04  1.18400E+04 -1.33213E+04  2.87124E+03 -9.86261E+03 -2.35184E+03
 -4.66467E+03 -4.26321E+03 -9.48020E+02  1.47568E+03 -2.49554E+03  2.48701E+03 -3.80516E+03  4.05509E+03
 -9.27978E+03 -5.01979E+02 -9.53774E+03 -8.11060E+03 -4.43852E+03 -1.29353E+04  4.06528E+03 -9.80692E+03
  7.98505E+03 -4.18550E+03  5.98393E+03  1.91258E+03  1.21661E+02  3.62997E+03 -4.42047E+03  1.83389E+02
 -4.25127E+03 -6.11587E+03 -9.49349E+02 -8.95203E+03  5.19885E+03 -9.56927E+03  1.18791E+04 -5.24816E+03
  1.41356E+04  1.18893E+03  9.99085E+03  8.21230E+03  1.96459E+03  1.01863E+04 -5.73553E+03  9.62768E+03
 -7.55220E+03  3.16515E+03 -3.86649E+03 -1.79276E+03  2.27041E+03 -2.20539E+03  5.07777E+03 -1.13826E+03
  4.44461E+03  3.96988E+03  1.07766E+03  7.17593E+03 -5.67590E+03  7.12991E+03 -9.19493E+03  1.68987E+03
 -5.87127E+03 -3.98306E+03  2.13567E+02 -7.36445E+03  4.84711E+03 -4.04034E+03  4.17389E+03  1.34844E+03
  4.36215E+02  4.76681E+03 -4.57448E+03  6.34766E+03 -6.41775E+03  2.76938E+03 -5.83795E+03 -1.38690E+03
 -3.84979E+03 -7.56965E+03  1.58630E+03 -8.89536E+03  6.46812E+03 -5.59617E+03  8.02000E+03  1.68844E+03
  5.87127E+03  6.45735E+03  1.95854E+02  8.05674E+03 -6.62446E+03  4.45628E+03 -7.14019E+03 -3.87845E+02
 -6.74867E+03 -5.83628E+03 -1.02300E+03 -5.32114E+03  2.92080E+03 -5.79239E+03  3.49566E+03 -3.16276E+03
  3.30424E+03  3.78539E+02  2.90662E+02  1.48337E+03  2.95873E+02 -5.70665E+01  6.62670E+02 -2.63055E+03
  4.46575E+03 -1.28323E+03  6.46220E+03  1.22562E+03  6.89241E+03  4.58075E+03  5.91748E+03  8.41828E+03
 -1.85618E+03  1.10938E+04 -9.27870E+03  8.50076E+03 -1.20759E+04  1.32516E+03 -9.40058E+03 -2.90416E+03
 -5.38150E+03 -7.82345E+03 -2.96936E+01 -6.16026E+03  2.72706E+03 -3.13368E+03  2.44636E+03 -2.84331E+03
  1.29850E+03 -1.95104E+03  2.81611E+03 -3.16156E+03  3.68102E+03 -6.55922E+02  4.29249E+03  3.85123E+02
  5.25451E+03  1.40649E+03  1.92499E+03  4.24437E+03 -1.30017E+03  3.64845E+03 -5.85185E+03  3.18290E+03
 -6.02410E+03 -1.24214E+03 -2.52414E+03 -4.30915E+03 -3.24590E+01 -5.79251E+03  4.00962E+03 -6.52964E+03
  6.61913E+03 -4.18118E+03  8.58248E+03  5.06503E+02  5.74634E+03  5.71400E+03  1.08891E+03  7.29096E+03
 -2.88247E+03  7.03323E+03 -4.10970E+03  2.36799E+03 -2.52721E+03 -1.12601E+03 -4.51560E+02 -7.24384E+02
  1.62682E+02  8.69153E+02 -8.73230E+02  2.21367E+03 -2.91404E+03  1.65444E+03 -4.92708E+03 -1.10687E+03
 -2.27789E+03 -5.02802E+03  1.18553E+03 -5.27696E+03  3.97378E+03 -5.28922E+03  4.70681E+03 -1.96216E+03
  5.58732E+03  3.21242E+03  2.40086E+03  4.65027E+03 -1.71512E+03  5.81765E+03 -4.08626E+03  3.58980E+03
 -4.82445E+03  5.85571E+02 -3.95666E+03 -3.08043E+03 -5.68823E+02 -4.52045E+03  2.19052E+03 -3.54952E+03
  3.74363E+03 -1.38222E+03  2.04265E+03  7.33459E+02  3.97485E+02  2.10701E+03  5.59386E+02  1.22806E+03
  1.54401E+03  4.73442E+02  1.41606E+03  8.02747E+02  1.38631E+03  2.59194E+03  1.38398E+03  2.72896E+03
 -1.64925E+03  3.93977E+03 -3.27177E+03  4.98627E+03 -4.37495E+03  1.82049E+03 -5.53980E+03 -1.09359E+03
 -2.28072E+03 -4.70162E+03  1.46736E+03 -5.97930E+03  2.76408E+03 -3.08339E+03  4.51187E+03 -1.18404E+03
  3.30771E+03  2.18589E+03  5.13259E+02  3.32192E+03 -5.74174E+02  2.04687E+03 -1.22846E+03  1.79785E+02
 -4.01038E+02 -2.20841E+03  1.12631E+03 -2.01149E+03  1.97050E+03 -1.32533E+03  1.97798E+03  2.02670E+02
  1.27546E+03  7.23745E+02  4.35763E+02  5.69565E+02 -5.52643E+02  8.69418E+02  1.76343E+03 -5.37943E+02
  8.77865E+02  3.38280E+02  2.02095E+03  7.36632E+02  1.01933E+03  2.98830E+03 -7.51409E+02  3.91237E+03
 -1.80893E+03  1.81256E+03 -2.99964E+03  4.51364E+02 -3.15003E+03 -1.01948E+03 -1.67882E+02 -1.56402E+03
  4.58725E+02 -1.58386E+03  1.15200E+03 -1.17577E+03  6.67207E+02  1.75200E+03 -6.24894E+02  1.39997E+03
 -1.58468E+03  1.11557E+03 -1.98854E+03 -1.48723E+03 -1.01851E+03 -2.39397E+03  4.14226E+02 -2.54185E+03
  8.57376E+02 -7.59173E+02  1.38789E+03  5.16607E+02  1.75493E+03  7.94882E+02  3.96471E+01  1.45080E+03
 -1.52954E+02  3.56571E+01 -9.02592E+02 -1.01465E+03  1.00167E+03 -1.11040E+03  2.61018E+03 -1.34654E+03
  2.04366E+03 -3.32568E+02  3.18948E+03  1.05761E+03  1.42690E+03  2.27611E+03 -1.20156E+02  2.33172E+03
 -1.78233E+03  6.44255E+02 -1.78580E+03  1.05014E+02 -1.21991E+03 -1.88837E+03  4.11855E+02 -5.04664E+02
  1.93403E+03 -9.12166E+02  1.29465E+03  5.83503E+02  2.10737E+02  2.02678E+03  2.78741E+02  1.11769E+03
 -5.74732E+02  1.39779E+03 -5.50035E+02  7.80316E+02  2.13746E+02  5.42282E+02 -7.92743E+02  8.02271E+02
 -9.42446E+02  1.46706E+03 -1.67664E+03  1.26888E+02 -2.36505E+03  5.85607E+02 -3.01883E+03 -1.25268E+03
 -1.03015E+03 -3.36361E+03  4.21052E+02 -3.74348E+03  1.63203E+03 -2.82857E+03  3.16060E+03 -6.25018E+02
  3.64093E+03  4.12974E+02  1.73651E+03  2.01181E+03 -9.51123E+02  2.22135E+03 -9.94133E+02  2.30045E+03
 -1.65350E+03  6.10471E+02 -1.08014E+03 -2.43329E+01 -2.85605E+02  3.17057E+02 -3.73102E+02  1.90747E+02
 -7.09633E+02 -3.27286E+02 -6.07278E+02 -3.33962E+02  5.36872E+02 -7.61293E+02 -1.02487E+01 -1.03958E+03
  1.23241E+03 -7.63471E+02  3.47285E+02  4.10885E+01  1.59191E+03  1.43602E+03 -3.60860E+02  1.82321E+03
 -1.17169E+03  2.62781E+03 -2.27898E+03  1.63946E+03 -2.34292E+03  2.15656E+02 -1.60896E+03 -1.84379E+03
 -7.93120E+02 -1.20552E+03  3.01019E+02 -1.84810E+03  1.30508E+03 -5.81406E+02  1.71141E+03  1.51792E+02
  7.72059E+02  4.99795E+02 -2.59566E+02  8.03179E+02 -4.68491E+02 -3.00682E+02 -1.03557E+01 -2.31405E+02
  7.92829E+02  2.20400E+02  4.68639E+02  2.54377E+02 -2.57357E+01  1.95981E+02  7.97283E+02  7.74683E+02
 -6.51382E+02  1.07328E+03 -8.92730E+02  1.47103E+02 -1.33858E+03 -4.54431E+02  9.40620E+01 -1.57019E+03
  1.07414E+03 -1.31915E+03  1.08290E+03 -2.39142E+02  1.16168E+03 -4.56256E+02  3.90751E+02  7.10023E+02
  1.77428E+02  1.01972E+03 -1.07514E+02  4.30524E+02 -1.14364E+03  1.19688E+03 -7.40031E+02 -5.18818E+01
  3.83296E+01 -3.37897E+02 -7.48153E+02  1.50489E+02 -4.21852E+02  1.12897E+02 -1.09506E+03 -2.51264E+02
 -1.27656E+03  2.40379E+02 -5.57574E+02 -1.36634E+03  1.07510E+03 -1.86500E+03  1.08298E+03 -3.06871E+02
  9.79668E+02  7.28469E+01 -1.77753E+01  5.14327E+02 -4.89497E+02  1.28148E+03 -5.77805E+02  7.09471E+02
