 $NMID ID='MM_0lb_SNR400_13hz_g55_5.RAW', FMTDAT='(8E13.5)'
 TRAMP=1., VOLUME=1. $END
  3.09959E+05  7.13861E+02  3.37643E+05  2.50263E+05  8.52444E+04  3.38025E+05 -1.32611E+05  2.51515E+05
 -1.90613E+05  8.34313E+04 -1.12521E+05 -3.23336E+04  1.17436E+03 -5.07196E+04  5.36844E+04  8.20434E+00
  3.57905E+04  5.26687E+04 -1.74685E+04  7.56606E+04 -6.08328E+04  6.38930E+04 -8.42036E+04  3.20641E+04
 -8.16977E+04 -1.18887E+04 -5.78348E+04 -5.18834E+04 -1.52836E+04 -6.98362E+04  2.79703E+04 -4.59642E+04
  4.04688E+04  4.18776E+03  1.62491E+04  4.78247E+04 -3.48742E+04  4.73050E+04 -6.63236E+04  4.52266E+02
 -5.37220E+04 -5.69548E+04 -6.88584E+03 -7.74476E+04  3.40378E+04 -5.63358E+04  4.81299E+04 -1.77259E+04
  4.45633E+04  1.11696E+04  3.17820E+04  2.60293E+04  1.61354E+04  2.98661E+04 -5.78067E+03  2.69035E+04
 -2.20515E+04  1.23887E+04 -1.80227E+04 -5.26446E+03  6.21567E+03 -7.55430E+03  2.29619E+04  1.28546E+04
  6.95970E+03  3.65488E+04 -3.27197E+04  3.62187E+04 -6.37000E+04  2.20394E+03 -5.81016E+04 -4.36477E+04
 -1.22531E+04 -6.42931E+04  4.09203E+04 -4.59142E+04  6.02606E+04 -2.06261E+03  3.53480E+04  3.29463E+04
 -5.81421E+03  3.69893E+04 -3.05208E+04  1.71708E+04 -3.18991E+04 -3.95048E+03 -1.72895E+04 -1.09272E+04
 -8.63848E+03 -1.31936E+04  1.96240E+01 -1.91431E+04  8.19567E+03 -2.26639E+04  1.58963E+04 -1.29314E+04
  1.16824E+04  5.77140E+03 -8.77654E+03  1.30407E+04 -2.15247E+04 -4.85982E+03 -8.61040E+03 -3.52869E+04
  2.38017E+04 -4.48674E+04  4.94122E+04 -1.99074E+04  4.66849E+04  1.99488E+04  1.64593E+04  4.47830E+04
 -1.59258E+04  3.42917E+04 -2.61104E+04  1.94542E+03 -1.00624E+04 -2.87184E+04  2.13388E+04 -3.51546E+04
  4.27290E+04 -8.94829E+03  3.74097E+04  2.39150E+04  1.84520E+04  4.79047E+04 -8.43052E+03  5.20842E+04
 -3.29887E+04  3.58606E+04 -4.40292E+04  1.01753E+04 -4.39613E+04 -1.78240E+04 -2.47965E+04 -3.95130E+04
  7.23261E+03 -3.94403E+04  3.29303E+04 -1.60879E+04  3.03001E+04  1.15267E+04  4.53751E+03  1.99179E+04
 -1.39287E+04  8.83053E+03 -1.01232E+04 -7.66632E+03  6.14211E+03 -1.10453E+04  1.75062E+04  6.08650E+03
  1.44190E+04  2.16067E+04 -4.53338E+03  2.64518E+04 -2.27335E+04  1.25440E+04 -2.92106E+04 -4.11319E+03
 -2.19278E+04 -1.72277E+04 -9.09121E+03 -2.17001E+04  4.11393E+03 -2.18370E+04  1.70402E+04 -1.87553E+04
  2.79725E+04 -1.38247E+04  3.40507E+04  2.97235E+03  2.51668E+04  2.18729E+04  4.19172E+03  3.74942E+04
 -1.83760E+04  3.14218E+04 -2.94436E+04  1.06479E+04 -2.09111E+04 -9.86663E+03 -4.70251E+03 -1.30131E+04
  1.59286E+03 -1.77398E+03 -5.88344E+03  6.84444E+03 -1.75074E+04  4.64393E+03 -1.75483E+04 -8.41244E+03
 -1.03280E+04 -2.02668E+04  5.18450E+03 -2.41233E+04  1.70706E+04 -1.73045E+04  1.95452E+04 -1.46939E+03
  1.27832E+04  1.40381E+04 -1.10892E+03  2.06014E+04 -1.47980E+04  1.19369E+04 -2.02921E+04 -4.53904E+03
 -1.54443E+04 -1.81691E+04 -1.29261E+03 -2.49798E+04  1.08221E+04 -1.97172E+04  2.07425E+04 -1.00085E+04
  1.89270E+04  4.27456E+02  1.35792E+04  4.31018E+03  7.04533E+03  1.34807E+03  1.00283E+04 -1.82799E+03
  1.91950E+04  2.52156E+03  2.09253E+04  1.60160E+04  1.42465E+04  3.18492E+04 -2.72418E+03  3.78598E+04
 -2.13975E+04  2.97951E+04 -3.52923E+04  1.51274E+04 -3.72095E+04 -2.16505E+03 -3.04352E+04 -2.15774E+04
 -1.25809E+04 -3.10532E+04  1.01989E+04 -2.68399E+04  2.36934E+04 -1.34932E+04  2.07230E+04  6.24209E+03
  7.93144E+03  1.59454E+04 -9.82768E+03  1.41588E+04 -1.72015E+04  2.64986E+03 -1.37484E+04 -1.10411E+04
 -4.97065E+02 -1.68125E+04  8.23955E+03 -1.21289E+04  1.14652E+04 -8.01464E+02  2.35388E+03  7.17767E+03
 -6.79530E+03  3.20847E+03 -6.56218E+03 -5.86306E+03 -7.52509E+02 -1.52244E+04  9.90426E+03 -1.58587E+04
  1.84085E+04 -8.34593E+03  2.02182E+04  3.45635E+03  1.78531E+04  1.46263E+04  8.38518E+03  2.29263E+04
 -3.92045E+03  2.44126E+04 -1.56452E+04  1.58546E+04 -1.78778E+04  3.85458E+03 -1.23587E+04 -4.06081E+03
 -5.22621E+03 -5.54622E+03 -1.22459E+03  2.51508E+02 -2.28335E+03  2.34937E+03 -6.09487E+03  5.02185E+03
 -1.14251E+04 -8.15702E+02 -1.24008E+04 -9.33859E+03 -4.64494E+03 -1.62862E+04  4.70788E+03 -1.20617E+04
  1.05003E+04 -5.35119E+03  7.39672E+03  3.36456E+03 -2.96036E+02  5.05392E+03 -5.48860E+03  2.81042E+01
 -5.79332E+03 -8.03494E+03 -8.74373E+02 -1.17187E+04  6.81533E+03 -1.23940E+04  1.54744E+04 -6.96770E+03
  1.81429E+04  1.54916E+03  1.38662E+04  1.13531E+04  2.97932E+03  1.46337E+04 -7.87089E+03  1.25428E+04
 -1.03847E+04  4.07069E+03 -5.09114E+03 -1.56407E+03  2.02249E+03 -3.45996E+03  6.77095E+03 -1.10706E+03
  5.43954E+03  5.46648E+03  1.02496E+03  1.03190E+04 -7.33633E+03  9.62999E+03 -1.17993E+04  2.03363E+03
 -8.55528E+03 -6.47748E+03 -1.74767E+02 -1.07490E+04  6.01371E+03 -5.30107E+03  7.11277E+03  2.25807E+03
  1.55913E+03  6.33038E+03 -6.20429E+03  8.65999E+03 -9.40361E+03  3.46504E+03 -8.95543E+03 -3.68057E+03
 -5.69623E+03 -1.08613E+04  2.05646E+03 -1.31983E+04  1.10606E+04 -7.47384E+03  1.23863E+04  1.98552E+03
  7.54217E+03  1.00144E+04 -8.92517E+02  1.16200E+04 -8.56214E+03  6.87394E+03 -9.46057E+03 -9.32516E+02
 -8.71683E+03 -7.85735E+03 -1.56933E+03 -9.28768E+03  4.63111E+03 -6.90561E+03  5.31313E+03 -3.10237E+03
  3.37440E+03  5.03300E+02 -1.03104E+03  1.80274E+03 -1.52683E+02 -2.04402E+03  1.05361E+03 -5.20782E+03
  7.96844E+03 -3.24503E+03  1.20766E+04  1.32032E+03  1.18530E+04  8.29731E+03  8.02751E+03  1.44625E+04
 -3.59929E+03  1.67317E+04 -1.42796E+04  1.27334E+04 -1.86918E+04  2.48258E+03 -1.42312E+04 -6.32732E+03
 -7.19639E+03 -1.16589E+04 -4.79677E+02 -1.02065E+04  4.18441E+03 -5.57064E+03  3.21026E+03 -3.70703E+03
  2.44919E+03 -1.66841E+03  3.50177E+03 -3.61230E+03  4.62547E+03 -2.34185E+03  5.43891E+03 -5.92686E+02
  8.18686E+03  1.28820E+03  3.63914E+03  6.21834E+03 -2.49448E+03  7.27380E+03 -7.73374E+03  5.75518E+03
 -9.55313E+03 -7.94580E+02 -5.92291E+03 -6.83327E+03 -1.03857E+03 -1.05062E+04  6.10367E+03 -1.13629E+04
  1.06601E+04 -6.17761E+03  1.30418E+04  2.11620E+03  9.12311E+03  9.08630E+03  1.39325E+03  1.19849E+04
 -4.67184E+03  1.06712E+04 -7.20893E+03  2.91443E+03 -4.40143E+03 -2.26180E+03 -1.74827E+03 -1.27721E+03
 -1.41967E+03 -2.25352E+02 -9.56459E+02  2.12343E+03 -4.52055E+03  1.52212E+03 -6.68008E+03 -7.91807E+02
 -4.31700E+03 -7.57266E+03  7.02801E+02 -9.79458E+03  5.85544E+03 -9.16102E+03  9.09511E+03 -3.37031E+03
  8.40414E+03  4.76895E+03  4.83403E+03  8.17957E+03 -1.55364E+03  9.02835E+03 -6.62035E+03  5.81019E+03
 -8.19122E+03  1.14261E+03 -7.12160E+03 -5.82841E+03 -7.82629E+02 -6.90475E+03  3.77207E+03 -5.37758E+03
  5.84220E+03 -2.17722E+03  4.55691E+03  1.52728E+03  1.09236E+03  3.43347E+03  1.24219E+03  1.49570E+03
  2.25348E+03  1.13621E+03  2.66419E+03  1.34912E+03  2.67602E+03  4.09574E+03  2.97093E+03  4.93553E+03
 -2.08410E+03  7.67353E+03 -6.84742E+03  7.69571E+03 -9.04199E+03  1.34093E+03 -9.00312E+03 -4.06324E+03
 -4.65469E+03 -9.66372E+03  8.22921E+02 -9.37078E+03  4.83726E+03 -6.13728E+03  7.45496E+03 -1.40424E+03
  5.42994E+03  4.39838E+03  7.52993E+02  5.82475E+03 -2.57106E+03  2.44578E+03 -3.49461E+03  5.61310E+01
 -1.87039E+03 -3.81537E+03  2.14703E+03 -3.77651E+03  3.50758E+03 -2.39197E+03  3.60720E+03  1.87847E+02
  2.57906E+03  1.97040E+03  1.11862E+03  1.35504E+03 -8.08077E+02  1.17356E+03  1.46093E+03  6.64742E+01
  1.17410E+03 -6.74861E+02  4.54252E+03  1.57031E+03  2.43527E+03  4.49183E+03 -7.25012E+02  6.64078E+03
 -4.33758E+03  4.23063E+03 -6.10846E+03  1.14369E+03 -4.66402E+03 -1.65147E+03 -1.46596E+03 -3.23445E+03
  4.69191E+02 -3.64460E+03  2.88115E+03 -1.30230E+03  2.02381E+03  2.14992E+03 -5.43698E+02  2.77045E+03
 -4.34736E+03  1.53085E+03 -3.67036E+03 -1.38397E+03 -2.12010E+03 -5.00072E+03  1.82171E+02 -4.78366E+03
  2.42867E+03 -2.25215E+03  3.66346E+03 -1.36010E+02  3.31619E+03  1.11153E+03  3.59540E+02  2.55113E+03
 -1.53942E+03  7.54089E+02 -2.18924E+03 -1.28759E+03  1.17715E+03 -3.51032E+03  4.11035E+03 -2.74035E+03
  5.12874E+03  7.29726E+02  6.48003E+03  3.47111E+03  2.26668E+03  4.30865E+03 -1.44689E+03  5.01031E+03
 -4.32169E+03  2.24644E+03 -4.11086E+03 -9.52460E+02 -2.66735E+03 -3.79197E+03  2.81552E+02 -3.29640E+03
  2.93990E+03 -2.31619E+03  3.05710E+03  1.54460E+03  7.17997E+02  2.95658E+03 -4.66933E+02  3.09111E+03
 -2.08143E+03  2.31486E+03 -1.67836E+03  2.37232E+02 -1.04978E+03  1.27904E+03 -5.48458E+02  1.52241E+03
 -2.07032E+03  2.47784E+03 -3.26845E+03  1.50423E+03 -5.32512E+03  3.64014E+02 -5.97944E+03 -2.81677E+03
 -3.03951E+03 -6.21755E+03  1.47933E+03 -8.40789E+03  4.15731E+03 -6.88390E+03  7.91796E+03 -2.19611E+03
  6.87748E+03  1.17771E+03  4.88236E+03  4.59412E+03  1.75301E+01  4.86855E+03 -2.06709E+03  4.28508E+03
 -2.29660E+03  1.60188E+03 -1.36001E+03 -1.19616E+03 -1.26858E+03 -9.14063E+01 -9.68239E+02  4.41482E+02
 -1.41342E+03 -1.20727E+02 -7.97570E+02 -6.10983E+02 -3.20431E+02 -1.70873E+03 -8.74689E+02 -1.49887E+03
  3.28396E+03 -1.46043E+03  2.83884E+03 -2.63823E+01  3.75137E+03  2.60375E+03  8.81916E+02  4.95195E+03
 -2.28566E+03  5.79685E+03 -4.86609E+03  3.00833E+03 -6.48278E+03 -8.52536E+02 -4.32884E+03 -4.02406E+03
 -1.24260E+03 -4.60925E+03  1.08952E+03 -4.86607E+03  3.25885E+03 -2.08010E+03  2.84948E+03  1.07043E+02
  8.78020E+02  1.44237E+03 -2.03018E+02  1.07302E+03 -9.92692E+02 -2.02746E+02  2.97235E+02 -7.39448E+02
  1.44105E+03  4.70381E+01  1.29370E+03  7.14872E+02  9.89032E+02  1.86828E+03  6.41260E+02  2.38702E+03
 -2.01343E+03  2.11198E+03 -3.15906E+03  4.42723E+02 -2.72227E+03 -2.51111E+03 -7.71217E+02 -3.74436E+03
  2.85344E+03 -2.77437E+03  3.02056E+03 -1.45404E+03  3.13187E+03  3.59694E+02  1.72245E+03  2.62911E+03
  1.04070E+03  2.81490E+03 -1.14449E+03  3.18330E+03 -1.62195E+03  1.62222E+03 -1.08012E+03 -1.38590E+02
 -7.89042E+02 -8.19280E+02 -8.77716E+02  3.60959E+02 -1.67254E+03  7.71684E+02 -1.98868E+03 -5.03191E+02
 -2.41348E+03 -7.68397E+02 -5.87986E+02 -2.39643E+03  1.78191E+03 -3.94494E+03  2.51476E+03 -1.20885E+03
  3.37410E+03  2.87433E+02  1.29552E+03  1.96626E+03 -6.15354E+02  3.61123E+03 -2.20767E+03  2.08217E+03
