 $NMID ID='MM_0lb_SNR400_18hz_g60_18.RAW', FMTDAT='(8E13.5)'
 TRAMP=1., VOLUME=1. $END
  3.09723E+05  1.29171E+02  3.37553E+05  2.50530E+05  8.41507E+04  3.37563E+05 -1.32614E+05  2.50861E+05
 -1.90037E+05  8.26586E+04 -1.11581E+05 -3.29321E+04  1.35937E+03 -5.05971E+04  5.39155E+04  3.10993E+02
  3.55282E+04  5.27291E+04 -1.63192E+04  7.47647E+04 -6.04850E+04  6.32921E+04 -8.36870E+04  3.19389E+04
 -8.06034E+04 -1.14559E+04 -5.71046E+04 -5.07932E+04 -1.49372E+04 -6.93345E+04  2.74573E+04 -4.57390E+04
  3.96851E+04  3.95399E+03  1.64705E+04  4.77967E+04 -3.42423E+04  4.71092E+04 -6.62606E+04 -6.36413E+02
 -5.28491E+04 -5.64239E+04 -6.44809E+03 -7.62533E+04  3.42330E+04 -5.47878E+04  4.75467E+04 -1.69551E+04
  4.26575E+04  1.15813E+04  3.15288E+04  2.54029E+04  1.56421E+04  2.88864E+04 -4.82654E+03  2.64339E+04
 -2.16507E+04  1.22802E+04 -1.92782E+04 -4.85940E+03  5.35959E+03 -8.08902E+03  2.18416E+04  1.17910E+04
  7.60305E+03  3.51379E+04 -3.15551E+04  3.54006E+04 -6.30383E+04  2.33927E+03 -5.65880E+04 -4.20451E+04
 -1.27808E+04 -6.17470E+04  3.97790E+04 -4.40502E+04  5.74534E+04 -2.63670E+03  3.31730E+04  3.16711E+04
 -5.39355E+03  3.51945E+04 -2.96633E+04  1.57026E+04 -2.87822E+04 -4.40359E+03 -1.63943E+04 -1.09514E+04
 -8.56959E+03 -1.29752E+04 -1.17386E+03 -1.71928E+04  6.84705E+03 -2.28805E+04  1.54019E+04 -1.29139E+04
  1.16507E+04  4.57312E+03 -7.52922E+03  1.30354E+04 -2.04848E+04 -3.67403E+03 -8.11558E+03 -3.25898E+04
  2.24667E+04 -4.22352E+04  4.73216E+04 -1.92947E+04  4.40721E+04  1.96058E+04  1.50093E+04  4.34575E+04
 -1.59930E+04  3.22776E+04 -2.41035E+04  1.02492E+03 -9.61291E+03 -2.71703E+04  2.06038E+04 -3.30312E+04
  3.98378E+04 -7.73330E+03  3.38271E+04  2.32171E+04  1.69145E+04  4.48420E+04 -7.67220E+03  4.85908E+04
 -3.04986E+04  3.20139E+04 -3.98990E+04  9.10641E+03 -4.10971E+04 -1.62534E+04 -2.27607E+04 -3.66141E+04
  6.78886E+03 -3.65990E+04  3.06915E+04 -1.43903E+04  2.83957E+04  1.07203E+04  3.53964E+03  1.80781E+04
 -1.35808E+04  7.52630E+03 -9.95170E+03 -7.73775E+03  6.06529E+03 -1.04264E+04  1.79217E+04  6.09700E+03
  1.28874E+04  2.23159E+04 -6.28195E+03  2.43482E+04 -2.22049E+04  1.06081E+04 -2.68509E+04 -5.85379E+03
 -1.87426E+04 -1.73732E+04 -7.29992E+03 -1.93911E+04  3.65826E+03 -1.76263E+04  1.41560E+04 -1.67391E+04
  2.34111E+04 -1.22784E+04  3.05430E+04  1.70582E+03  2.23330E+04  1.79635E+04  4.17904E+03  3.49064E+04
 -1.75022E+04  2.93152E+04 -2.71745E+04  1.00446E+04 -2.08213E+04 -1.05579E+04 -4.21391E+03 -1.38769E+04
  2.42494E+03 -3.48474E+03 -3.38560E+03  6.03390E+03 -1.48093E+04  5.25001E+03 -1.47996E+04 -5.90964E+03
 -9.08225E+03 -1.71218E+04  4.99114E+03 -2.10246E+04  1.38987E+04 -1.53635E+04  1.67535E+04 -1.29329E+03
  1.02376E+04  1.20495E+04 -8.02424E+02  1.70309E+04 -1.12700E+04  9.71271E+03 -1.70354E+04 -4.14595E+03
 -1.29811E+04 -1.52042E+04 -1.89656E+03 -2.04886E+04  9.61337E+03 -1.67782E+04  1.76936E+04 -7.42529E+03
  1.59794E+04  4.88553E+02  1.16286E+04  4.20350E+03  5.85891E+03  6.50369E+02  8.57586E+03 -1.51064E+03
  1.46680E+04  2.59390E+03  1.66706E+04  1.34087E+04  1.05510E+04  2.71540E+04 -3.20741E+03  2.96874E+04
 -1.75378E+04  2.37862E+04 -2.69397E+04  1.18080E+04 -2.84248E+04 -2.29329E+03 -2.49390E+04 -1.60871E+04
 -1.09440E+04 -2.32178E+04  8.40669E+03 -2.16080E+04  1.88932E+04 -1.09104E+04  1.70148E+04  4.85999E+03
  6.76313E+03  1.26723E+04 -8.25922E+03  1.13424E+04 -1.41311E+04  2.02658E+03 -1.10525E+04 -9.13923E+03
 -3.22131E+02 -1.37539E+04  6.83547E+03 -1.01839E+04  8.77739E+03 -1.82243E+03  1.49823E+03  5.41192E+03
 -6.09277E+03  1.92704E+03 -4.28571E+03 -5.32460E+03  3.13192E+02 -1.18791E+04  8.62788E+03 -1.16715E+04
  1.42738E+04 -5.93150E+03  1.43902E+04  3.06448E+03  1.24068E+04  1.10188E+04  5.60131E+03  1.64331E+04
 -2.63522E+03  1.87052E+04 -1.15803E+04  1.09826E+04 -1.31189E+04  2.91699E+03 -9.66867E+03 -1.93041E+03
 -4.81225E+03 -3.75849E+03 -3.73249E+02  1.24542E+03 -2.43115E+03  2.49679E+03 -4.60456E+03  3.58855E+03
 -9.62577E+03 -5.20438E+02 -9.36463E+03 -7.48680E+03 -4.54533E+03 -1.22207E+04  4.48223E+03 -9.29424E+03
  7.82303E+03 -4.49234E+03  5.64621E+03  1.97038E+03  1.03792E+03  3.40892E+03 -4.27422E+03 -1.10020E+02
 -4.22890E+03 -5.91906E+03 -5.84139E+02 -8.54777E+03  5.45936E+03 -8.83593E+03  1.10448E+04 -5.20650E+03
  1.31727E+04  1.37821E+02  1.00923E+04  7.55396E+03  2.27049E+03  1.02405E+04 -5.50024E+03  9.42332E+03
 -7.45026E+03  2.87597E+03 -3.57041E+03 -1.21731E+03  1.57542E+03 -2.06360E+03  5.73298E+03 -6.50700E+02
  4.79283E+03  4.08416E+03  3.08069E+02  7.17349E+03 -4.99781E+03  7.09862E+03 -8.85133E+03  1.52592E+03
 -5.26019E+03 -4.13603E+03  2.09526E+02 -7.14109E+03  4.43336E+03 -3.89088E+03  4.46702E+03  5.31795E+02
  6.50325E+02  4.36179E+03 -4.74211E+03  5.20822E+03 -5.38227E+03  2.84709E+03 -5.88780E+03 -1.48450E+03
 -3.55467E+03 -7.71330E+03  1.84120E+03 -8.05380E+03  6.66375E+03 -5.64173E+03  7.57695E+03  1.04036E+03
  5.17487E+03  6.26545E+03 -1.68447E+02  8.46875E+03 -6.14230E+03  4.53387E+03 -5.77566E+03 -5.96766E+02
 -5.77880E+03 -5.68384E+03 -1.40642E+03 -5.98587E+03  3.18333E+03 -5.38034E+03  2.58227E+03 -3.77671E+03
  3.02201E+03  4.91143E+02  1.03442E+02  1.25285E+03  7.83640E+02 -7.14398E+02  4.34426E+02 -2.27661E+03
  4.11590E+03 -7.70263E+02  6.22771E+03  1.30488E+03  6.47249E+03  3.51768E+03  5.76709E+03  8.85482E+03
 -1.18720E+03  1.02883E+04 -8.51681E+03  7.24265E+03 -1.11327E+04  8.95438E+02 -9.08368E+03 -3.25847E+03
 -5.25063E+03 -7.57787E+03 -4.93355E+01 -5.59261E+03  2.27942E+03 -2.92330E+03  1.88924E+03 -2.61594E+03
  1.48180E+03 -1.23702E+03  2.38186E+03 -2.72519E+03  3.31012E+03 -1.45865E+03  4.11471E+03  2.37839E+02
  5.30068E+03  8.03476E+02  1.28799E+03  3.83545E+03 -1.17181E+03  3.27098E+03 -5.08797E+03  2.92976E+03
 -6.25484E+03 -1.44963E+03 -1.62470E+03 -4.01429E+03  5.64064E+02 -6.03253E+03  3.42452E+03 -5.77384E+03
  5.55114E+03 -3.76536E+03  7.46102E+03  3.95817E+02  5.17248E+03  4.42081E+03  1.82079E+03  6.40085E+03
 -2.47042E+03  6.62149E+03 -3.82412E+03  1.93487E+03 -2.01533E+03 -6.11353E+02 -6.27842E+02 -4.96256E+02
 -9.60515E+02  8.63241E+02 -9.27630E+02  1.85534E+03 -2.91132E+03  1.38259E+03 -4.17454E+03 -3.81326E+02
 -2.30816E+03 -4.66052E+03  9.07294E+02 -4.87833E+03  2.91140E+03 -5.28865E+03  3.77973E+03 -1.18539E+03
  4.67636E+03  2.92868E+03  2.40641E+03  3.86738E+03 -1.32963E+03  5.03927E+03 -2.69670E+03  3.08556E+03
 -4.42216E+03  5.67787E+02 -3.95776E+03 -2.49252E+03 -3.45678E+02 -3.80482E+03  1.74211E+03 -2.69869E+03
  2.81542E+03 -1.56361E+03  1.72575E+03  4.32430E+02  6.58765E+01  2.11038E+03  1.13155E+03  1.08803E+03
  1.85918E+03  5.94142E+02  1.52014E+03  1.51480E+03  1.22841E+03  2.12745E+03  1.98225E+03  2.11996E+03
 -1.81169E+03  3.45725E+03 -2.11602E+03  4.26491E+03 -3.31129E+03  7.32339E+02 -4.84363E+03 -4.01683E+02
 -2.18282E+03 -4.40425E+03  4.66824E+02 -5.05096E+03  2.04195E+03 -3.27299E+03  3.53263E+03 -8.05323E+02
  2.45099E+03  2.25305E+03  5.41978E+02  2.75188E+03 -8.36052E+02  1.45479E+03 -1.20867E+03 -1.27423E+02
 -5.28690E+02 -1.73553E+03  1.20121E+03 -1.64922E+03  1.17676E+03 -1.00254E+03  1.34321E+03  6.44285E+02
  8.54696E+02  3.31922E+02  6.31182E+02 -2.41245E+02 -2.85066E+02  5.42959E+02  1.66332E+03 -5.45295E+02
 -4.67262E+01  4.01062E+02  2.30379E+03  1.24505E+03  8.46911E+02  2.55407E+03 -1.79065E+02  3.82290E+03
 -1.70876E+03  1.00650E+03 -2.22893E+03  2.64061E+02 -2.32026E+03 -6.55089E+02 -5.39316E+02 -8.68487E+02
  3.31311E+02 -1.37503E+03  1.44729E+03 -9.39969E+02  4.58727E+02  1.02758E+03 -8.15369E+02  1.01739E+03
 -1.43072E+03  7.46471E+02 -1.30849E+03 -2.10729E+03 -1.49657E+03 -1.95484E+03  3.43133E+02 -1.83689E+03
  5.19564E+02 -4.62134E+02  7.25784E+02 -2.51162E+02  1.45694E+03 -4.63027E+02  6.51872E+02  9.08453E+02
 -7.70481E+02  4.19406E+02 -9.78764E+02  1.64402E+02  7.69601E+02 -9.44178E+02  2.38185E+03 -1.10644E+03
  1.91994E+03  7.13500E+02  3.28737E+03  7.21455E+02  7.81729E+02  2.01916E+03  6.76049E-01  1.76947E+03
 -1.40910E+03  7.41898E+02 -1.06449E+03  1.71470E+02 -1.14193E+03 -1.43699E+03  2.92597E+01 -1.01432E+03
  1.36792E+03 -8.18549E+02  7.79334E+02  1.16518E+03 -1.85107E+02  1.84611E+03  3.25096E+02  1.42921E+03
 -5.68630E+02  1.37251E+03 -2.80325E+02  1.97097E+02  3.08601E+02  5.95312E+02 -1.93892E+02  5.96197E+02
 -3.47274E+02  4.41771E+02 -1.69691E+03  4.08527E+02 -1.47493E+03 -6.05121E+00 -2.96738E+03 -1.15067E+03
 -9.05672E+02 -2.46658E+03  9.78505E+02 -2.26945E+03  1.21803E+03 -2.73860E+03  2.68761E+03 -1.51146E+03
  2.78636E+03 -4.04009E+02  1.27603E+03  1.99726E+03 -7.89726E+02  1.82756E+03 -3.55300E+02  1.13660E+03
 -4.31492E+02  2.16314E+02 -8.28149E+02 -2.41646E+02 -2.52133E+02  1.49677E+02 -1.03904E+03  2.41940E+02
 -1.02169E+03 -1.21960E+02 -1.13045E+03  3.48590E+02  9.95079E+01 -7.17125E+02 -5.87580E+02 -5.40723E+02
  1.26764E+03 -7.31340E+02 -6.54326E+01 -1.26214E+02  1.38914E+03  1.12107E+03 -3.27900E+02  1.47190E+03
 -9.45720E+02  2.17621E+03 -1.44199E+03  1.49407E+03 -1.36015E+03  2.85600E+02 -1.43500E+03 -1.79409E+03
 -1.18067E+03 -1.41781E+03  6.62365E+02 -1.09050E+03  1.20857E+03 -4.02755E+02  1.08124E+03 -3.14756E+02
  1.03363E+03 -3.09569E+02  9.94121E+01  8.36369E+02 -7.97779E+02  5.87264E+02 -7.87035E+02 -2.01918E+02
  8.98127E+02  4.77497E+01  2.36216E+02  3.12100E+02 -4.04228E+02  4.91886E+02  6.93712E+02  1.11691E+03
 -5.80807E+02  1.64928E+02 -1.03012E+02 -2.51101E+02 -9.60947E+01 -3.75174E+02  4.23332E+00 -1.02348E+03
  7.13059E+02 -9.39195E+02  3.76188E+02 -5.25344E+02  3.08035E+02 -1.07646E+03 -4.55472E+01  9.02919E+02
  8.19339E+02  7.99199E+02 -8.30954E+01  4.83648E+02  3.49247E+02  6.33822E+02 -2.17016E+02 -2.63325E+02
 -6.52319E+01 -1.83061E+02 -3.36732E+02  5.94680E+02 -7.07033E+02 -8.22894E+01 -1.17180E+03 -5.22215E+01
 -1.26553E+03  4.60492E+02 -3.91991E+02 -1.17000E+03  8.59846E+02 -1.40752E+03  1.22205E+02 -3.36895E+02
  7.75157E+02  6.58098E+01  1.24977E+02  5.85392E+00 -1.90647E+02  9.38925E+02 -5.61466E+02  8.33629E+02
