 $NMID ID='MM_0lb_SNR400_15hz_g60_25.RAW', FMTDAT='(8E13.5)'
 TRAMP=1., VOLUME=1. $END
  3.09773E+05  2.23396E+02  3.37281E+05  2.50334E+05  8.49558E+04  3.38283E+05 -1.32723E+05  2.50996E+05
 -1.91064E+05  8.36611E+04 -1.11902E+05 -3.22386E+04  7.47007E+02 -4.99761E+04  5.32494E+04  1.51603E+02
  3.55473E+04  5.26008E+04 -1.67315E+04  7.57568E+04 -6.09155E+04  6.39023E+04 -8.49125E+04  3.19278E+04
 -8.13144E+04 -1.07958E+04 -5.76989E+04 -5.14162E+04 -1.54064E+04 -7.04134E+04  2.70773E+04 -4.60676E+04
  4.00041E+04  3.60563E+03  1.67515E+04  4.77206E+04 -3.41673E+04  4.78854E+04 -6.77252E+04 -3.57763E+02
 -5.41519E+04 -5.68880E+04 -7.70310E+03 -7.79224E+04  3.41856E+04 -5.59547E+04  4.84280E+04 -1.76367E+04
  4.42363E+04  1.09539E+04  3.24997E+04  2.57630E+04  1.57333E+04  2.93319E+04 -5.22201E+03  2.79712E+04
 -2.24079E+04  1.25395E+04 -1.82849E+04 -4.67586E+03  6.67360E+03 -7.39802E+03  2.26863E+04  1.34402E+04
  7.38498E+03  3.62611E+04 -3.28459E+04  3.59223E+04 -6.38335E+04  2.08079E+03 -5.73092E+04 -4.32732E+04
 -1.24430E+04 -6.36284E+04  4.04259E+04 -4.58906E+04  5.92902E+04 -2.09235E+03  3.49765E+04  3.22926E+04
 -6.13766E+03  3.63676E+04 -3.03036E+04  1.61775E+04 -3.15543E+04 -4.17894E+03 -1.77437E+04 -1.16485E+04
 -8.61777E+03 -1.34266E+04 -9.69864E+01 -1.81379E+04  8.11590E+03 -2.28988E+04  1.53534E+04 -1.32578E+04
  1.09848E+04  5.44172E+03 -8.31719E+03  1.25082E+04 -2.15962E+04 -4.94219E+03 -8.10932E+03 -3.45291E+04
  2.31411E+04 -4.38776E+04  4.89032E+04 -1.98942E+04  4.57064E+04  1.98782E+04  1.62417E+04  4.47442E+04
 -1.51660E+04  3.40109E+04 -2.59920E+04  1.45739E+03 -9.96706E+03 -2.78694E+04  2.09038E+04 -3.39690E+04
  4.12265E+04 -9.77902E+03  3.60122E+04  2.38154E+04  1.86888E+04  4.74989E+04 -7.68363E+03  5.12159E+04
 -3.22930E+04  3.46752E+04 -4.35466E+04  9.38440E+03 -4.35716E+04 -1.62671E+04 -2.40832E+04 -3.84169E+04
  7.90675E+03 -3.82703E+04  3.17714E+04 -1.46354E+04  2.92577E+04  1.05991E+04  3.64035E+03  1.94957E+04
 -1.31513E+04  8.74349E+03 -1.02035E+04 -7.69633E+03  5.58188E+03 -1.12746E+04  1.79194E+04  5.12622E+03
  1.30809E+04  2.19636E+04 -6.12647E+03  2.55041E+04 -2.27726E+04  1.21643E+04 -2.84742E+04 -4.63644E+03
 -2.05995E+04 -1.69720E+04 -8.61950E+03 -2.08212E+04  4.52549E+03 -2.09234E+04  1.65613E+04 -1.87907E+04
  2.71993E+04 -1.28390E+04  3.35449E+04  3.11607E+03  2.44579E+04  2.01044E+04  4.77721E+03  3.70664E+04
 -1.83409E+04  3.07261E+04 -2.83154E+04  1.09182E+04 -2.08242E+04 -1.06947E+04 -4.27739E+03 -1.36028E+04
  1.46765E+03 -2.43815E+03 -4.86817E+03  6.76660E+03 -1.61524E+04  5.16926E+03 -1.74367E+04 -7.16917E+03
 -1.02112E+04 -1.93755E+04  4.89678E+03 -2.30376E+04  1.53092E+04 -1.70751E+04  1.87015E+04 -1.80158E+03
  1.17531E+04  1.34935E+04 -9.62571E+02  1.92492E+04 -1.29824E+04  1.08913E+04 -1.95317E+04 -4.32791E+03
 -1.52511E+04 -1.78864E+04 -1.85637E+03 -2.35393E+04  1.08721E+04 -1.89393E+04  1.98521E+04 -9.84050E+03
  1.81040E+04 -1.97387E+02  1.26983E+04  4.24157E+03  6.76089E+03  1.20066E+03  9.47350E+03 -1.87638E+03
  1.80545E+04  2.84746E+03  1.98869E+04  1.54677E+04  1.31732E+04  3.11211E+04 -2.40925E+03  3.53173E+04
 -2.03246E+04  2.83620E+04 -3.23206E+04  1.42300E+04 -3.38003E+04 -1.97905E+03 -2.87090E+04 -1.98170E+04
 -1.20356E+04 -2.82676E+04  1.02960E+04 -2.52067E+04  2.22095E+04 -1.35754E+04  1.98677E+04  5.98457E+03
  7.12219E+03  1.46968E+04 -8.68931E+03  1.28392E+04 -1.59484E+04  2.71348E+03 -1.23999E+04 -1.05763E+04
 -4.49604E+02 -1.52718E+04  8.37115E+03 -1.14259E+04  1.08453E+04 -1.83125E+03  2.12323E+03  6.28175E+03
 -7.32547E+03  2.60957E+03 -6.52121E+03 -6.06341E+03 -1.80698E+02 -1.37635E+04  9.97898E+03 -1.46529E+04
  1.74991E+04 -7.52794E+03  1.80133E+04  2.58501E+03  1.61317E+04  1.26329E+04  7.60458E+03  2.04074E+04
 -4.21786E+03  2.26326E+04 -1.50185E+04  1.43579E+04 -1.64288E+04  3.24433E+03 -1.19707E+04 -4.30757E+03
 -5.59062E+03 -4.84227E+03 -1.10420E+03  7.90124E+02 -2.09088E+03  2.72923E+03 -5.28533E+03  3.95469E+03
 -1.04234E+04 -7.78636E+02 -1.05231E+04 -9.62059E+03 -4.53081E+03 -1.46779E+04  4.73547E+03 -1.11576E+04
  9.81232E+03 -5.01043E+03  6.68142E+03  2.93277E+03  1.36021E+02  4.56570E+03 -5.09233E+03 -9.10654E+02
 -5.35099E+03 -6.92447E+03 -1.25261E+03 -1.02668E+04  6.35179E+03 -1.18261E+04  1.40145E+04 -5.85681E+03
  1.67195E+04  1.21745E+03  1.26501E+04  9.34437E+03  2.31743E+03  1.30378E+04 -6.50796E+03  1.14351E+04
 -8.76944E+03  3.34202E+03 -4.99518E+03 -1.79574E+03  1.59601E+03 -2.92390E+03  5.89865E+03 -6.14736E+02
  4.51132E+03  4.94675E+03  1.17312E+03  8.78460E+03 -5.77113E+03  8.70488E+03 -1.10667E+04  2.28948E+03
 -7.38734E+03 -5.00256E+03  2.45613E+02 -9.61150E+03  5.60533E+03 -5.28282E+03  5.72059E+03  1.78212E+03
  1.01027E+03  5.39956E+03 -5.62239E+03  8.19305E+03 -8.18276E+03  3.24535E+03 -8.54528E+03 -2.55123E+03
 -4.96813E+03 -9.08506E+03  1.57743E+03 -1.10268E+04  9.38472E+03 -7.24694E+03  1.01748E+04  2.08798E+03
  6.67292E+03  8.54862E+03 -8.16552E+02  1.00544E+04 -7.09361E+03  5.75267E+03 -7.46577E+03 -8.82613E+02
 -7.25139E+03 -6.89262E+03 -2.10486E+03 -7.01257E+03  3.74037E+03 -6.65458E+03  4.67237E+03 -2.77801E+03
  4.36780E+03  1.67926E+03 -4.47041E+02  1.94396E+03 -2.02362E+02 -1.46435E+03  7.64934E+02 -3.88093E+03
  6.38949E+03 -2.46611E+03  9.29682E+03  1.20248E+03  8.83152E+03  5.72502E+03  7.53638E+03  1.22145E+04
 -2.79114E+03  1.41608E+04 -1.15278E+04  1.04433E+04 -1.58401E+04  2.48684E+03 -1.20862E+04 -5.11823E+03
 -6.37056E+03 -9.92279E+03 -9.58407E+02 -8.49025E+03  3.40701E+03 -4.11955E+03  3.29159E+03 -2.97162E+03
  2.33329E+03 -2.11641E+03  3.04242E+03 -2.57967E+03  4.51082E+03 -3.06732E+03  5.14082E+03 -1.25487E+02
  6.38829E+03  1.55933E+03  2.12345E+03  5.09781E+03 -1.89732E+03  5.86360E+03 -6.64948E+03  4.43118E+03
 -8.62861E+03 -1.63358E+03 -4.53294E+03 -5.07550E+03 -4.89872E+02 -8.51390E+03  4.81794E+03 -8.82603E+03
  9.07115E+03 -5.12156E+03  1.07512E+04  1.24729E+03  7.33971E+03  7.24504E+03  1.61948E+03  1.04594E+04
 -3.69996E+03  8.83307E+03 -5.10954E+03  2.95086E+03 -4.03006E+03 -6.24982E+02 -1.28675E+03 -5.64923E+02
 -8.79657E+02 -7.34587E+01 -1.12042E+03  1.73501E+03 -3.81982E+03  1.80652E+03 -6.37138E+03 -1.44608E+03
 -2.68785E+03 -5.84746E+03  3.16733E+02 -8.39006E+03  4.67902E+03 -7.12397E+03  7.02018E+03 -1.62572E+03
  7.44704E+03  4.24114E+03  3.53082E+03  6.42594E+03 -1.25853E+03  7.37971E+03 -4.65681E+03  4.56554E+03
 -7.05071E+03  2.64704E+02 -5.52790E+03 -4.00681E+03  1.54176E+01 -6.11257E+03  3.91896E+03 -4.72715E+03
  4.22780E+03 -1.47761E+03  3.26342E+03  1.46896E+03  1.56138E+03  2.21327E+03  1.42768E+03  1.38674E+03
  2.16519E+03  3.54215E+02  1.85275E+03  8.93202E+02  2.45514E+03  2.53093E+03  2.22141E+03  3.11033E+03
 -1.19546E+03  5.44536E+03 -4.54131E+03  6.90943E+03 -6.53968E+03  1.47564E+03 -7.66456E+03 -2.28118E+03
 -3.07631E+03 -6.67334E+03  1.00980E+03 -8.16014E+03  4.68017E+03 -4.92162E+03  5.70565E+03 -1.01648E+03
  4.23570E+03  2.94971E+03  5.29911E+02  3.25403E+03 -1.95437E+03  2.22578E+03 -2.10078E+03 -4.29329E+02
 -1.21892E+03 -2.44786E+03  1.62500E+03 -2.07881E+03  2.70327E+03 -1.66521E+03  3.35918E+03  7.64275E+02
  1.31718E+03  2.38523E+02  3.98634E+02  2.11141E+02 -3.18528E+02  1.30621E+03  1.62643E+03 -7.04706E+02
  3.02798E+02 -6.25844E+02  2.74072E+03  8.88600E+02  1.20220E+03  3.46799E+03 -3.65069E+02  4.83156E+03
 -3.26030E+03  2.95459E+03 -3.87844E+03  8.66208E+02 -3.57979E+03 -1.31851E+03 -8.74636E+02 -2.11313E+03
 -9.38066E+01 -2.34170E+03  1.95752E+03 -1.06555E+03  1.23327E+03  1.77702E+03 -7.38984E+02  2.14358E+03
 -2.96427E+03  1.56820E+03 -2.41408E+03 -1.74330E+03 -1.90913E+03 -3.30460E+03  3.02184E+02 -3.33935E+03
  1.93324E+03 -1.41648E+03  2.13317E+03 -3.45515E+01  2.55423E+03  2.49733E+02  1.80363E+02  1.83519E+03
 -5.44895E+02  6.20925E+02 -1.98504E+03 -5.76246E+02  8.45172E+02 -2.12465E+03  3.64978E+03 -2.41092E+03
  3.23967E+03  3.97730E+02  4.82307E+03  2.70784E+03  1.32503E+03  3.88704E+03 -1.16761E+03  3.26714E+03
 -2.84806E+03  1.24571E+03 -2.96280E+03 -8.78844E+02 -2.09711E+03 -2.59806E+03  6.92063E+02 -1.63400E+03
  2.68300E+03 -9.57244E+02  1.66822E+03  4.73362E+02  4.57172E+02  2.18730E+03  2.28034E+02  1.94053E+03
 -9.00693E+02  1.76935E+03 -1.08878E+03  9.99397E+01 -5.28187E+01  1.27190E+03 -8.45870E+02  1.09864E+03
 -1.30465E+03  1.95937E+03 -3.06875E+03  1.64745E+03 -3.77276E+03 -7.95518E+01 -3.94222E+03 -1.77145E+03
 -1.77743E+03 -5.29163E+03  1.59489E+03 -5.81338E+03  3.07372E+03 -4.86744E+03  5.26225E+03 -1.57525E+03
  4.52907E+03  8.81718E+02  2.51808E+03  2.73855E+03 -1.27405E+02  3.19172E+03 -1.15499E+03  1.59615E+03
 -1.66298E+03  7.38953E+02 -1.14470E+03 -7.43443E+02 -2.50648E+02 -1.13655E+02  2.59000E+01 -1.99222E+02
 -2.14784E+03 -8.01156E+01 -7.78035E+02  5.78918E+01  5.60386E+01 -1.13558E+03 -6.78574E+02 -2.12463E+03
  1.82524E+03 -7.45462E+02  9.09533E+02  4.70939E+02  2.29267E+03  1.82228E+03  5.94788E+02  2.99798E+03
 -1.10488E+03  4.84703E+03 -3.77939E+03  1.88443E+03 -4.02950E+03 -6.30256E+02 -2.94602E+03 -2.10053E+03
 -1.36139E+03 -3.02402E+03  4.45275E+02 -1.97630E+03  1.85889E+03 -9.69634E+02  1.60949E+03 -3.54058E+02
  1.13935E+03  9.00050E+02 -1.87460E+02  1.06445E+03 -1.26303E+03 -9.16072E+02 -2.52346E+02 -1.11965E+03
  1.44952E+03 -1.90858E+02  1.47645E+03  4.93520E+02  6.26757E+02  1.35196E+03  2.27714E+02  1.17468E+03
 -7.62728E+02  1.13675E+03 -1.74369E+03  1.14780E+02 -1.40069E+03 -1.77759E+03 -6.81654E+02 -2.50294E+03
  1.53676E+03 -1.79271E+03  1.99546E+03 -7.54022E+02  2.12808E+03  2.14569E+02  1.34067E+03  2.24684E+03
  7.80765E+02  1.82486E+03 -7.27209E+02  1.33328E+03 -1.53753E+03  1.36575E+03 -1.01636E+03 -1.66999E+02
 -2.39332E+02 -2.19586E+02 -4.44420E+02  5.59780E+01 -6.64038E+02  1.17011E+02 -1.92278E+03 -3.57738E+02
 -1.69555E+03 -7.27703E+02 -2.38784E+02 -1.39133E+03  1.05262E+03 -3.10976E+03  2.03747E+03 -1.76482E+02
  1.89189E+03 -6.46295E+00  3.56423E+02  6.33277E+02  3.49502E+02  2.12029E+03 -1.11821E+03  1.35678E+03
