 $NMID ID='MM_0lb_SNR400_20hz_g60_55.RAW', FMTDAT='(8E13.5)'
 TRAMP=1., VOLUME=1. $END
  3.09789E+05  2.76583E+02  3.37783E+05  2.50556E+05  8.49260E+04  3.37752E+05 -1.32971E+05  2.50309E+05
 -1.90040E+05  8.24834E+04 -1.10877E+05 -3.26454E+04  3.26615E+02 -5.04776E+04  5.41152E+04  5.36991E+01
  3.49002E+04  5.29201E+04 -1.72638E+04  7.56090E+04 -6.09641E+04  6.32541E+04 -8.36849E+04  3.19164E+04
 -8.01188E+04 -1.18485E+04 -5.67138E+04 -5.08132E+04 -1.48136E+04 -6.89922E+04  2.65946E+04 -4.54530E+04
  3.88748E+04  4.05366E+03  1.54221E+04  4.70585E+04 -3.43218E+04  4.67208E+04 -6.55938E+04 -1.21325E+03
 -5.24216E+04 -5.63327E+04 -6.46959E+03 -7.63879E+04  3.37815E+04 -5.43043E+04  4.62294E+04 -1.65036E+04
  4.22339E+04  1.15546E+04  3.12974E+04  2.51153E+04  1.53062E+04  2.87960E+04 -5.01276E+03  2.65088E+04
 -2.13846E+04  1.27267E+04 -1.85399E+04 -4.65940E+03  5.18344E+03 -8.08847E+03  2.17707E+04  1.16744E+04
  7.58430E+03  3.38772E+04 -3.08222E+04  3.47094E+04 -6.17955E+04  2.23950E+03 -5.56197E+04 -4.12068E+04
 -1.23880E+04 -6.14134E+04  3.83041E+04 -4.37413E+04  5.63434E+04 -1.60413E+03  3.25103E+04  3.16523E+04
 -6.48231E+03  3.43145E+04 -2.87568E+04  1.44409E+04 -2.81470E+04 -5.26601E+03 -1.52367E+04 -1.01555E+04
 -7.92749E+03 -1.14999E+04 -1.09366E+03 -1.70456E+04  6.92987E+03 -2.25759E+04  1.55274E+04 -1.37019E+04
  1.15439E+04  4.52638E+03 -6.81301E+03  1.33581E+04 -1.98435E+04 -3.00264E+03 -8.17332E+03 -3.09242E+04
  2.11916E+04 -4.14005E+04  4.54095E+04 -1.92110E+04  4.30915E+04  1.85191E+04  1.46693E+04  4.21332E+04
 -1.51017E+04  3.14968E+04 -2.36381E+04  1.43952E+03 -8.81493E+03 -2.71217E+04  2.13877E+04 -3.19294E+04
  3.89689E+04 -8.35127E+03  3.24008E+04  2.33900E+04  1.58371E+04  4.34447E+04 -7.96003E+03  4.66622E+04
 -2.94238E+04  3.04000E+04 -3.87978E+04  8.20465E+03 -3.91493E+04 -1.54272E+04 -2.18341E+04 -3.52795E+04
  7.05582E+03 -3.50485E+04  2.92707E+04 -1.29445E+04  2.68403E+04  9.95767E+03  2.80325E+03  1.83987E+04
 -1.34573E+04  7.31836E+03 -9.90074E+03 -7.71595E+03  5.96003E+03 -9.98299E+03  1.75519E+04  6.17688E+03
  1.25680E+04  2.12389E+04 -6.58822E+03  2.38076E+04 -2.15028E+04  9.39457E+03 -2.58687E+04 -6.58657E+03
 -1.74721E+04 -1.67692E+04 -6.38879E+03 -1.75719E+04  4.04018E+03 -1.51118E+04  1.24375E+04 -1.52171E+04
  2.18290E+04 -1.27019E+04  2.90349E+04  1.58966E+03  2.12118E+04  1.68901E+04  4.18664E+03  3.28468E+04
 -1.58077E+04  2.80487E+04 -2.61120E+04  9.27907E+03 -2.03695E+04 -1.02694E+04 -4.38169E+03 -1.32855E+04
  2.63837E+03 -3.88919E+03 -3.33282E+03  5.73249E+03 -1.31128E+04  4.93037E+03 -1.36292E+04 -5.23098E+03
 -9.29760E+03 -1.62005E+04  4.86434E+03 -1.98162E+04  1.21177E+04 -1.41301E+04  1.46643E+04 -1.12399E+03
  9.29126E+03  1.11362E+04 -1.44633E+03  1.54523E+04 -1.05346E+04  8.84174E+03 -1.56786E+04 -3.50402E+03
 -1.16519E+04 -1.44045E+04 -1.08685E+03 -1.92720E+04  7.93671E+03 -1.56200E+04  1.63780E+04 -7.36169E+03
  1.44095E+04  9.04588E+02  1.06403E+04  3.94050E+03  4.80789E+03  7.23672E+02  7.67934E+03 -1.84676E+03
  1.40027E+04  2.60262E+03  1.52744E+04  1.34049E+04  9.03017E+03  2.49662E+04 -3.00688E+03  2.68886E+04
 -1.62599E+04  2.07534E+04 -2.48541E+04  1.00067E+04 -2.49617E+04 -2.06336E+03 -2.14114E+04 -1.47444E+04
 -1.03659E+04 -2.06444E+04  6.98904E+03 -1.90406E+04  1.62925E+04 -1.11584E+04  1.52773E+04  3.49711E+03
  6.39421E+03  1.14821E+04 -6.79048E+03  1.01514E+04 -1.30973E+04  2.60131E+03 -9.94055E+03 -7.94881E+03
 -7.05725E+01 -1.23796E+04  6.21078E+03 -9.30367E+03  7.62885E+03 -1.29279E+03  1.42855E+03  5.07905E+03
 -5.63697E+03  1.03895E+03 -3.43965E+03 -4.46829E+03  9.87267E+02 -1.00902E+04  7.75321E+03 -1.04091E+04
  1.17382E+04 -4.79126E+03  1.19465E+04  2.76274E+03  1.00566E+04  9.49662E+03  5.00925E+03  1.38313E+04
 -1.53168E+03  1.56080E+04 -9.65513E+03  1.00669E+04 -1.10982E+04  2.44530E+03 -7.96326E+03 -1.97307E+03
 -4.54523E+03 -2.81933E+03 -6.40708E+02  1.59925E+03 -2.10758E+03  1.49988E+03 -3.39921E+03  3.59004E+03
 -7.82902E+03 -4.38711E+02 -8.56909E+03 -7.31617E+03 -3.33955E+03 -1.16249E+04  2.73735E+03 -8.35306E+03
  6.75094E+03 -3.86885E+03  4.75193E+03  2.50360E+03  5.50918E+02  2.87457E+03 -3.41911E+03 -3.53515E+02
 -3.20247E+03 -5.02517E+03 -4.11994E+02 -7.59088E+03  3.52750E+03 -7.93371E+03  9.88088E+03 -3.57796E+03
  1.14341E+04  7.46687E+02  8.45533E+03  6.00342E+03  1.86589E+03  8.15210E+03 -5.12483E+03  7.91062E+03
 -6.26504E+03  3.01808E+03 -3.30666E+03 -1.03622E+03  8.38983E+02 -1.76205E+03  4.97410E+03 -7.82745E+02
  4.22341E+03  3.41614E+03  1.49272E+03  6.58526E+03 -4.05528E+03  5.98765E+03 -7.10176E+03  1.69826E+03
 -4.37959E+03 -3.54864E+03  6.04326E+02 -6.47685E+03  3.16899E+03 -3.32262E+03  3.24227E+03  7.08450E+02
  1.91049E+02  3.12297E+03 -3.95170E+03  4.53400E+03 -4.55025E+03  2.30529E+03 -4.06306E+03 -6.28529E+02
 -2.58215E+03 -5.45228E+03  1.35376E+03 -6.65552E+03  6.10932E+03 -4.56862E+03  6.44816E+03  6.46205E+02
  4.62438E+03  4.69211E+03  4.47054E+02  6.78240E+03 -4.61830E+03  3.89693E+03 -4.99152E+03 -5.83494E+02
 -5.46507E+03 -5.03647E+03 -1.60898E+03 -4.62177E+03  1.92648E+03 -4.37355E+03  2.66557E+03 -2.64260E+03
  2.86134E+03  1.33753E+02  5.85697E+01  1.15526E+03  8.50947E+02  1.08909E+02  4.40601E+01 -1.27777E+03
  3.22345E+03 -2.16947E+02  4.57367E+03  6.95564E+02  4.63827E+03  2.37840E+03  4.72516E+03  6.71816E+03
 -1.03159E+03  7.42583E+03 -7.04859E+03  5.94681E+03 -9.41777E+03  1.13522E+03 -7.33706E+03 -2.45147E+03
 -4.30567E+03 -5.58263E+03 -4.97899E+02 -5.13276E+03  1.64885E+03 -2.37570E+03  1.33858E+03 -1.53174E+03
  1.41909E+03 -1.77607E+03  2.06143E+03 -2.07065E+03  3.06181E+03 -1.13971E+03  3.36934E+03  4.83289E+02
  3.93975E+03  1.31690E+03  9.98064E+02  2.63396E+03 -1.59168E+03  2.71719E+03 -4.02084E+03  2.27707E+03
 -4.37454E+03 -7.85218E+02 -1.71327E+03 -3.16892E+03  3.18790E+02 -4.28377E+03  2.67477E+03 -4.70059E+03
  4.50202E+03 -2.99716E+03  5.46113E+03  2.68831E+02  4.40335E+03  4.41294E+03  1.04039E+03  5.11812E+03
 -1.74923E+03  5.47849E+03 -3.35133E+03  1.36441E+03 -1.81422E+03 -1.18527E+03 -2.64238E+02 -1.51473E+02
 -1.84867E+02  6.07726E+02 -6.70205E+02  1.61653E+03 -2.54325E+03  6.96210E+02 -3.72130E+03 -4.63446E+02
 -1.14623E+03 -3.53577E+03  1.21048E+03 -4.30832E+03  2.44033E+03 -4.01761E+03  3.25660E+03 -1.17574E+03
  3.66226E+03  1.95387E+03  1.36909E+03  2.52854E+03 -2.47176E+02  3.93324E+03 -2.37931E+03  2.10290E+03
 -2.91966E+03  7.93375E+02 -2.90825E+03 -1.24927E+03 -4.97269E+02 -2.30108E+03  1.93094E+03 -2.19633E+03
  2.03248E+03 -1.41279E+03  1.37908E+03  1.31581E+02 -2.89219E+02  1.64257E+03  1.37926E+03  4.92904E+02
  9.18131E+02  1.48549E+01  1.04238E+03  1.09779E+03  3.28154E+02  2.09421E+03  1.55306E+03  1.18887E+03
 -1.41714E+03  1.88699E+03 -2.27305E+03  3.33199E+03 -2.77726E+03  9.85905E+02 -2.91726E+03 -6.27276E+01
 -1.58338E+03 -2.55397E+03  7.77501E+02 -3.52306E+03  1.00024E+03 -2.22943E+03  2.28967E+03 -1.04187E+03
  2.32107E+03  1.06939E+03  2.93659E+02  1.29816E+03  9.59404E+01  2.70254E+02 -6.21234E+02 -5.95237E+01
 -3.38875E+02 -1.21755E+03  1.17059E+03 -1.39524E+03  1.49272E+03 -5.96841E+02  8.26601E+02  3.32917E+02
  4.30790E+02  2.95088E+02  6.59162E+02 -2.58546E+02 -2.83480E+02  8.47816E+02  1.26342E+03  1.22221E+02
  2.22995E+02 -4.18649E+02  9.90687E+02  4.20499E+02 -5.79082E+01  1.98035E+03 -3.44225E+02  1.75308E+03
 -9.26134E+02  1.27375E+02 -1.26282E+03  5.34971E+02 -2.18231E+03 -7.94303E+02 -3.49321E+02  5.49428E+01
  7.13683E+02 -9.08393E+02  5.14496E+02 -9.59253E+02  1.31775E+02  9.28132E+02 -1.16755E+03  1.07808E+03
 -8.19717E+02  6.48132E+02 -6.04044E+02 -1.40580E+03 -4.14562E+02 -1.60583E+03 -4.58553E+02 -1.12389E+03
  1.50672E+02 -3.02603E+02  2.91331E+02  6.80353E+01  1.28509E+03 -7.13596E+02  3.56709E+02  8.52180E+02
 -6.83815E+02 -5.29958E+01 -5.54931E+02  7.18625E+01  4.50663E+02 -4.33542E+01  1.24279E+03 -1.21271E+03
  1.26056E+02  4.11985E+02  2.57715E+03  1.90434E+02  7.53380E+02  1.05294E+03 -7.94459E+02  1.53095E+03
 -7.35131E+02 -1.35027E+01 -1.27200E+03 -1.50836E+02 -6.47535E+02 -1.17067E+03  5.34983E+02  1.27665E+02
  8.94185E+02 -5.89926E+02  2.22995E+02  3.96438E+02  1.44923E+02  1.03125E+03  1.07062E+02  9.72670E+02
 -3.59380E+01  5.62371E+02 -1.15890E+02 -8.65955E+01 -2.83047E+02  4.28225E+02 -9.04291E+02  4.21977E+02
 -6.63990E+02  9.58537E+02 -1.21280E+03  4.05421E+02 -1.08288E+03 -3.47060E+02 -1.60429E+03 -1.87320E+02
 -9.06984E+02 -1.19938E+03  7.59887E+02 -2.32810E+03  1.61206E+02 -1.78859E+03  2.68666E+03 -9.60052E+02
  1.50804E+03  6.69763E+01  6.89391E+02  1.04577E+03 -5.67323E+02 -6.99601E+01 -4.28102E+02  9.41002E+02
 -6.78225E+02  3.70256E+02  2.70611E+02  1.68455E+02 -8.67573E+02  6.81719E+02 -1.17940E+03 -6.34168E+02
 -1.29582E+03  1.97687E+02 -6.86037E+02  1.56066E+02  4.66405E+02 -5.04200E+02 -2.29187E+02 -6.84209E+02
  9.36847E+02 -4.73492E+02 -1.02914E+02  2.85467E+02  5.47047E+02  9.27382E+02 -5.40660E+02  1.45430E+03
 -4.55713E+02  1.51671E+03 -1.11283E+03  7.06860E+02 -6.35566E+02 -4.00039E+02 -2.78092E+02 -9.02824E+02
 -1.04011E+03 -1.35851E+03  5.45147E+02 -1.04580E+03 -1.10891E+02 -4.36512E+02  1.18015E+02  3.04808E+02
  6.74092E+01  4.21228E+02 -2.71350E+02  5.29265E+02 -7.13338E+01 -1.29123E+02  6.06687E+01  1.79865E+02
 -5.21010E+01  1.85099E+02 -2.35999E+02 -2.20371E+02 -1.05166E+02  5.43934E+02  4.01935E+02 -2.63911E+01
 -8.32542E+02  5.08858E+02  1.06803E+02  5.56920E+02 -5.01104E+02 -3.49319E+02  1.04118E+01 -5.54032E+02
  1.08974E+02 -6.60050E+02  2.66143E+02  6.99674E+02  6.46869E+02 -1.02985E+03  1.45432E+02  3.86284E+02
  6.41489E+02 -1.71131E+02 -2.55902E+02 -4.53044E+02 -6.72428E+02  4.97911E+02 -4.27604E+02 -2.58194E+00
  1.84153E+02 -5.79535E+02 -4.71041E+02  2.95136E+02  7.32985E+01  4.73140E+02 -5.31275E+02  1.70438E+02
 -5.38755E+02  1.19862E+03 -6.55622E+02 -3.62529E+01  6.41285E+02 -5.51772E+02  5.79143E+02  2.20560E+02
  4.56694E+02  1.43172E+02 -5.80541E+02  3.70986E+02 -1.89341E+02  5.78093E+02 -2.09799E+02  7.50144E+02
