 $NMID ID='MM_0lb_SNR400_9hz_g50_28.RAW', FMTDAT='(8E13.5)'
 TRAMP=1., VOLUME=1. $END
  3.10342E+05  4.26558E+02  3.38143E+05  2.51017E+05  8.51490E+04  3.39036E+05 -1.33428E+05  2.51669E+05
 -1.91032E+05  8.41828E+04 -1.12442E+05 -3.32060E+04  2.60973E+02 -5.12683E+04  5.34183E+04 -7.50531E+00
  3.56082E+04  5.25253E+04 -1.65922E+04  7.58694E+04 -6.08461E+04  6.39511E+04 -8.48967E+04  3.22157E+04
 -8.26542E+04 -1.22454E+04 -5.76864E+04 -5.27882E+04 -1.49001E+04 -7.07435E+04  2.79885E+04 -4.71756E+04
  4.09439E+04  3.73164E+03  1.65565E+04  4.86405E+04 -3.51911E+04  4.78979E+04 -6.84072E+04  3.30682E+01
 -5.49629E+04 -5.81149E+04 -7.76131E+03 -7.83498E+04  3.56318E+04 -5.69832E+04  5.03201E+04 -1.86451E+04
  4.42968E+04  1.26416E+04  3.27424E+04  2.66271E+04  1.66599E+04  3.00579E+04 -7.10196E+03  2.76209E+04
 -2.32201E+04  1.23289E+04 -1.85934E+04 -5.85445E+03  7.06372E+03 -6.55832E+03  2.28540E+04  1.37952E+04
  7.22830E+03  3.68978E+04 -3.34555E+04  3.69499E+04 -6.57150E+04  2.05058E+03 -5.84964E+04 -4.44558E+04
 -1.22900E+04 -6.60634E+04  4.14251E+04 -4.76184E+04  6.12508E+04 -3.08020E+03  3.71586E+04  3.36544E+04
 -5.14682E+03  3.98533E+04 -3.14988E+04  1.86917E+04 -3.28826E+04 -3.38468E+03 -1.91767E+04 -1.19288E+04
 -9.77197E+03 -1.49375E+04 -8.24553E+02 -1.92517E+04  8.81582E+03 -2.36538E+04  1.59826E+04 -1.35960E+04
  1.04922E+04  6.68010E+03 -1.05275E+04  1.28310E+04 -2.34709E+04 -6.87408E+03 -9.05425E+03 -3.78756E+04
  2.50855E+04 -4.65623E+04  5.26315E+04 -2.06217E+04  4.89699E+04  2.05715E+04  1.68867E+04  4.80868E+04
 -1.61182E+04  3.63897E+04 -2.78565E+04  1.90371E+03 -1.19043E+04 -2.87922E+04  2.19052E+04 -3.63063E+04
  4.52785E+04 -1.10079E+04  4.00749E+04  2.44089E+04  2.15765E+04  5.15188E+04 -8.06797E+03  5.66608E+04
 -3.57731E+04  3.88166E+04 -4.72810E+04  1.07825E+04 -4.76199E+04 -1.90706E+04 -2.60039E+04 -4.29199E+04
  8.10311E+03 -4.19360E+04  3.42616E+04 -1.69571E+04  3.11311E+04  1.08560E+04  4.97068E+03  2.06081E+04
 -1.39313E+04  1.00308E+04 -1.11872E+04 -7.47212E+03  6.81261E+03 -1.12575E+04  1.88137E+04  5.71135E+03
  1.47171E+04  2.25028E+04 -5.37787E+03  2.64440E+04 -2.35014E+04  1.52030E+04 -3.12607E+04 -2.70229E+03
 -2.60422E+04 -1.84135E+04 -1.22663E+04 -2.46771E+04  4.62230E+03 -2.50260E+04  2.05835E+04 -2.34983E+04
  3.23059E+04 -1.45875E+04  3.79663E+04  5.81252E+03  2.72623E+04  2.48452E+04  4.49818E+03  4.06380E+04
 -2.02540E+04  3.38283E+04 -3.06034E+04  1.10656E+04 -2.17448E+04 -9.65210E+03 -4.62675E+03 -1.34054E+04
  9.05886E+02 -2.45581E+03 -7.16928E+03  8.13613E+03 -1.98514E+04  5.29806E+03 -2.05032E+04 -9.74831E+03
 -1.18083E+04 -2.37606E+04  6.38094E+03 -2.73505E+04  1.86787E+04 -1.97214E+04  2.27223E+04 -1.34565E+03
  1.55975E+04  1.57116E+04 -2.07431E+03  2.37669E+04 -1.70571E+04  1.24917E+04 -2.30775E+04 -4.67589E+03
 -1.72674E+04 -2.06716E+04 -2.37543E+03 -2.72644E+04  1.23545E+04 -2.30098E+04  2.33957E+04 -1.26981E+04
  2.18509E+04 -1.93414E+02  1.63491E+04  4.70691E+03  9.09203E+03  1.38549E+03  1.22243E+04 -2.18353E+03
  2.18952E+04  3.56783E+03  2.62020E+04  1.85608E+04  1.77272E+04  3.72057E+04 -2.29985E+03  4.45992E+04
 -2.56112E+04  3.68467E+04 -4.23178E+04  1.92499E+04 -4.45790E+04 -3.62283E+03 -3.62057E+04 -2.66618E+04
 -1.36926E+04 -3.61423E+04  1.28853E+04 -3.18688E+04  2.79645E+04 -1.46979E+04  2.40257E+04  6.69310E+03
  8.65834E+03  1.88950E+04 -1.22001E+04  1.49869E+04 -2.01952E+04  2.60714E+03 -1.53445E+04 -1.27997E+04
 -4.17702E+02 -1.96631E+04  1.09647E+04 -1.30785E+04  1.32491E+04 -8.38468E+02  2.51841E+03  9.30595E+03
 -8.20417E+03  4.56978E+03 -9.53692E+03 -7.54774E+03 -2.28348E+03 -1.80786E+04  1.23170E+04 -1.92450E+04
  2.31227E+04 -1.05944E+04  2.61951E+04  3.07566E+03  2.29551E+04  1.79692E+04  1.05277E+04  2.91541E+04
 -5.50479E+03  3.09000E+04 -1.98696E+04  1.94852E+04 -2.25349E+04  4.29722E+03 -1.45826E+04 -5.49602E+03
 -6.40189E+03 -6.75937E+03 -7.91693E+02  8.44390E+02 -2.96467E+03  3.25336E+03 -7.01183E+03  5.97797E+03
 -1.37004E+04 -5.57957E+02 -1.52922E+04 -1.15672E+04 -6.40443E+03 -1.87948E+04  5.91666E+03 -1.57064E+04
  1.20715E+04 -6.02920E+03  9.22222E+03  4.02235E+03 -1.74194E+02  6.99629E+03 -7.33012E+03  1.18392E+02
 -6.76032E+03 -9.80820E+03 -2.31704E+03 -1.49828E+04  9.15751E+03 -1.62998E+04  1.90561E+04 -8.72222E+03
  2.38357E+04  2.76405E+03  1.76860E+04  1.38576E+04  3.31935E+03  1.93937E+04 -9.35430E+03  1.58313E+04
 -1.28049E+04  4.54856E+03 -5.90935E+03 -3.04483E+03  2.17702E+03 -4.54162E+03  8.57301E+03 -3.96562E+02
  7.63955E+03  6.70204E+03  1.54455E+03  1.31252E+04 -8.77166E+03  1.24571E+04 -1.45831E+04  3.82700E+03
 -1.02422E+04 -8.06318E+03  2.64325E+02 -1.36372E+04  8.88688E+03 -7.33333E+03  9.48215E+03  3.60706E+03
  2.61068E+03  1.06526E+04 -8.34754E+03  1.07650E+04 -1.37835E+04  5.42772E+03 -1.43225E+04 -5.19586E+03
 -7.74685E+03 -1.56393E+04  4.53008E+03 -1.76750E+04  1.51742E+04 -1.04584E+04  1.72439E+04  2.79854E+03
  1.00915E+04  1.33481E+04 -1.67591E+03  1.52698E+04 -1.10844E+04  9.45139E+03 -1.26665E+04 -1.72745E+03
 -1.05127E+04 -1.01768E+04 -1.30196E+03 -1.23205E+04  6.50739E+03 -9.19584E+03  8.27743E+03 -3.38063E+03
  4.55506E+03  3.02043E+03 -1.10611E+03  1.60194E+03 -9.10145E+02 -2.79506E+03  2.41020E+03 -7.09674E+03
  1.21713E+04 -5.75854E+03  1.68268E+04  1.35878E+03  1.51881E+04  1.15652E+04  1.01074E+04  2.16076E+04
 -4.96486E+03  2.43767E+04 -2.00090E+04  1.79486E+04 -2.58246E+04  2.72926E+03 -2.12532E+04 -9.09470E+03
 -9.96721E+03 -1.70014E+04 -1.02804E+02 -1.39775E+04  4.97501E+03 -7.47103E+03  5.14626E+03 -5.32490E+03
  4.08602E+03 -2.88080E+03  3.97519E+03 -3.59697E+03  5.49770E+03 -3.57560E+03  8.75105E+03 -6.89855E+02
  1.15188E+04  3.09785E+03  5.80152E+03  8.76203E+03 -1.86120E+03  1.16952E+04 -1.09530E+04  8.55188E+03
 -1.49935E+04 -1.29335E+03 -9.43686E+03 -1.05266E+04 -1.13609E+03 -1.65994E+04  9.17342E+03 -1.68607E+04
  1.63640E+04 -8.38017E+03  1.93827E+04  2.23864E+03  1.39958E+04  1.35245E+04  1.21080E+03  1.75798E+04
 -6.65445E+03  1.46848E+04 -1.10384E+04  5.01043E+03 -7.37772E+03 -1.76157E+03 -2.78611E+03 -2.24826E+03
 -1.85727E+03  6.26564E+02 -2.06688E+03  2.47859E+03 -5.94593E+03  1.80362E+03 -1.03409E+04 -1.72440E+03
 -6.79712E+03 -9.89031E+03  1.00737E+01 -1.47846E+04  9.09035E+03 -1.38173E+04  1.54403E+04 -3.86184E+03
  1.49842E+04  7.75431E+03  6.98384E+03  1.30369E+04 -3.25811E+03  1.39254E+04 -1.14288E+04  9.42232E+03
 -1.44548E+04  3.78626E+02 -1.14689E+04 -8.53691E+03 -7.35596E+02 -1.20965E+04  6.96542E+03 -9.12961E+03
  9.92321E+03 -2.65500E+03  6.97748E+03  2.56804E+03  2.53004E+03  4.84979E+03  9.12755E+02  2.03006E+03
  3.32681E+03  3.54788E+02  3.24212E+03  1.98134E+03  5.25628E+03  4.97312E+03  3.37023E+03  7.90934E+03
 -2.81012E+03  1.26113E+04 -1.05450E+04  1.12973E+04 -1.53515E+04  3.77122E+03 -1.51573E+04 -6.19526E+03
 -7.92369E+03 -1.48300E+04  2.51087E+03 -1.65160E+04  8.92081E+03 -1.01494E+04  1.17145E+04 -2.98739E+03
  1.01597E+04  4.87563E+03  2.26239E+03  8.06733E+03 -4.12860E+03  5.44897E+03 -6.63703E+03  2.24472E+00
 -2.78394E+03 -7.10850E+03  3.54784E+03 -7.00966E+03  6.20353E+03 -3.76739E+03  5.67703E+03  7.71619E+02
  3.71663E+03  2.31097E+03  1.75695E+03  1.95256E+03 -8.62465E+02  2.23751E+03  2.37910E+03 -3.53493E+02
  1.25865E+03 -4.38661E+02  6.73258E+03  2.39780E+03  4.12619E+03  8.41559E+03 -1.10119E+03  1.06890E+04
 -7.35990E+03  7.29844E+03 -9.26528E+03  2.26854E+03 -8.57123E+03 -3.90991E+03 -3.69587E+03 -6.96672E+03
  2.69009E+02 -5.66304E+03  4.49864E+03 -1.94162E+03  3.07004E+03  3.57400E+03 -1.28985E+03  5.06812E+03
 -7.07619E+03  4.01343E+03 -7.22900E+03 -3.78376E+03 -4.60003E+03 -8.91637E+03  1.34446E+03 -8.58737E+03
  4.60127E+03 -5.32251E+03  6.43615E+03 -1.90615E+02  5.53316E+03  2.36794E+03  9.46878E+02  4.00016E+03
 -3.24247E+03  1.20489E+03 -4.08466E+03 -3.40929E+03  1.46087E+03 -6.57597E+03  7.18094E+03 -5.22628E+03
  9.96328E+03 -2.96942E+02  9.80317E+03  6.99595E+03  3.49691E+03  1.09524E+04 -3.92742E+03  1.03814E+04
 -7.79377E+03  4.37812E+03 -9.13282E+03 -1.49665E+03 -5.35168E+03 -6.45171E+03  1.50735E+03 -6.02029E+03
  6.96289E+03 -2.76501E+03  5.12704E+03  2.57737E+03  1.85214E+03  5.93740E+03 -9.18230E+02  4.71019E+03
 -2.62171E+03  2.88703E+03 -2.38981E+03  4.64866E+02 -1.69196E+02  1.74225E+03 -1.02561E+03  2.48909E+03
 -2.40851E+03  4.20084E+03 -6.59845E+03  3.53245E+03 -1.05490E+04  4.00423E+02 -1.13659E+04 -6.18219E+03
 -5.33736E+03 -1.38372E+04  2.25232E+03 -1.58976E+04  1.00602E+04 -1.11407E+04  1.43912E+04 -5.16357E+03
  1.28327E+04  3.70185E+03  8.01417E+03  9.74061E+03 -5.61930E+01  1.11881E+04 -4.24595E+03  7.99854E+03
 -5.06303E+03  3.76360E+03 -3.72508E+03 -1.61498E+03 -1.59798E+03 -7.26176E+02 -1.12500E+03  4.29188E+02
 -1.86624E+03  7.01285E+01 -2.47214E+03  3.18122E+02 -5.16491E+02 -3.55948E+03 -1.09351E+03 -3.21481E+03
  4.02133E+03 -3.55973E+03  5.78979E+03 -3.86337E+02  7.53480E+03  5.12558E+03  8.40023E+02  1.05743E+04
 -5.48875E+03  1.15814E+04 -1.08594E+04  7.17068E+03 -1.24753E+04 -8.03501E+02 -9.80941E+03 -8.07792E+03
 -4.47050E+03 -1.11670E+04  2.62807E+03 -1.02069E+04  5.81806E+03 -4.61173E+03  7.40364E+03  3.30576E+02
  3.84100E+03  3.65847E+03 -4.29587E+02  3.05291E+03 -2.02283E+03 -6.15824E+00  3.27571E+02 -2.43120E+03
  3.56750E+03 -1.25070E+03  3.91171E+03  7.75869E+02  2.26281E+03  4.23221E+03 -3.01430E+02  5.45635E+03
 -4.19298E+03  5.31059E+03 -5.82044E+03  1.78861E+02 -5.71409E+03 -4.40984E+03 -1.02891E+03 -8.78689E+03
  4.81886E+03 -7.54216E+03  7.86030E+03 -2.38484E+03  8.27492E+03  1.89637E+03  5.00770E+03  7.13804E+03
  1.11766E+03  7.21072E+03 -2.81721E+03  6.27797E+03 -4.44502E+03  2.78026E+03 -3.59322E+03  8.20965E+02
 -1.89552E+03 -2.86020E+02 -1.85857E+03  6.99032E+02 -4.45025E+03  1.58296E+03 -4.23438E+03 -8.98704E+02
 -5.31474E+03 -4.18879E+03 -1.47766E+03 -6.90304E+03  3.34367E+03 -6.91968E+03  6.54989E+03 -4.40297E+03
  7.46866E+03  1.10731E+03  4.24810E+03  5.59511E+03 -4.39035E+02  6.77742E+03 -5.59805E+03  4.66738E+03
