 $NMID ID='MM_0lb_SNR400_15hz_g55_12.RAW', FMTDAT='(8E13.5)'
 TRAMP=1., VOLUME=1. $END
  3.09759E+05  7.74861E+02  3.37741E+05  2.50602E+05  8.45371E+04  3.38026E+05 -1.33502E+05  2.51201E+05
 -1.89954E+05  8.32863E+04 -1.11534E+05 -3.20391E+04  8.13715E+02 -5.01972E+04  5.42244E+04 -4.51464E+02
  3.50855E+04  5.25912E+04 -1.69665E+04  7.52369E+04 -6.07810E+04  6.37441E+04 -8.43682E+04  3.19137E+04
 -8.06570E+04 -1.13862E+04 -5.73643E+04 -5.12216E+04 -1.50291E+04 -6.95109E+04  2.67253E+04 -4.56252E+04
  4.02490E+04  3.58680E+03  1.58971E+04  4.80944E+04 -3.35942E+04  4.68266E+04 -6.71909E+04  2.77347E+02
 -5.36124E+04 -5.66927E+04 -7.00087E+03 -7.68430E+04  3.34432E+04 -5.46675E+04  4.79091E+04 -1.79215E+04
  4.34041E+04  1.11890E+04  3.22225E+04  2.55164E+04  1.62219E+04  2.90180E+04 -5.67684E+03  2.73357E+04
 -2.23474E+04  1.18494E+04 -1.89192E+04 -4.72427E+03  5.20364E+03 -7.59141E+03  2.22318E+04  1.24726E+04
  7.34932E+03  3.57229E+04 -3.21243E+04  3.50349E+04 -6.39099E+04  1.87279E+03 -5.72766E+04 -4.26663E+04
 -1.18136E+04 -6.31210E+04  3.89511E+04 -4.51800E+04  5.85509E+04 -2.28135E+03  3.40593E+04  3.16792E+04
 -6.71464E+03  3.66722E+04 -3.05180E+04  1.63794E+04 -3.00073E+04 -5.09112E+03 -1.63767E+04 -1.05641E+04
 -8.61067E+03 -1.30136E+04 -6.81838E+02 -1.85794E+04  7.84274E+03 -2.29236E+04  1.53045E+04 -1.37806E+04
  1.09526E+04  5.28539E+03 -8.38449E+03  1.31300E+04 -2.17936E+04 -4.45836E+03 -8.21026E+03 -3.42105E+04
  2.24616E+04 -4.33679E+04  4.84862E+04 -1.96025E+04  4.51050E+04  1.91326E+04  1.57999E+04  4.37440E+04
 -1.57684E+04  3.37048E+04 -2.53274E+04  1.78040E+03 -9.85053E+03 -2.83471E+04  2.09525E+04 -3.43360E+04
  4.13612E+04 -8.92021E+03  3.55561E+04  2.39407E+04  1.77598E+04  4.62422E+04 -8.48239E+03  5.05178E+04
 -3.14036E+04  3.37591E+04 -4.10751E+04  9.31199E+03 -4.29643E+04 -1.66748E+04 -2.36728E+04 -3.80725E+04
  7.37368E+03 -3.75643E+04  3.16025E+04 -1.43574E+04  2.92738E+04  1.13938E+04  3.86485E+03  1.88624E+04
 -1.38118E+04  8.47814E+03 -1.03093E+04 -7.15526E+03  5.09891E+03 -1.09126E+04  1.79330E+04  5.91402E+03
  1.37421E+04  2.23193E+04 -6.09168E+03  2.49858E+04 -2.25102E+04  1.14308E+04 -2.80530E+04 -4.85934E+03
 -2.05255E+04 -1.74118E+04 -8.43675E+03 -2.04411E+04  3.92120E+03 -1.93660E+04  1.54200E+04 -1.80403E+04
  2.62703E+04 -1.25116E+04  3.23014E+04  2.80737E+03  2.38335E+04  1.98011E+04  4.23854E+03  3.66270E+04
 -1.82326E+04  3.02899E+04 -2.82667E+04  1.03803E+04 -2.09250E+04 -1.00057E+04 -3.82374E+03 -1.33673E+04
  1.75182E+03 -2.62202E+03 -5.60787E+03  7.21864E+03 -1.63143E+04  5.61628E+03 -1.57647E+04 -6.63657E+03
 -1.03781E+04 -1.91037E+04  4.66872E+03 -2.29175E+04  1.51377E+04 -1.67551E+04  1.76207E+04 -1.87164E+03
  1.15242E+04  1.27473E+04 -1.54894E+03  1.87533E+04 -1.34493E+04  1.05342E+04 -1.94503E+04 -4.59320E+03
 -1.39179E+04 -1.69749E+04 -1.55113E+03 -2.27614E+04  1.06878E+04 -1.86899E+04  1.87255E+04 -8.69090E+03
  1.79433E+04  4.80796E+02  1.28096E+04  4.87809E+03  6.58965E+03  6.30501E+02  9.42864E+03 -1.43731E+03
  1.76139E+04  2.81358E+03  1.86635E+04  1.44382E+04  1.23402E+04  2.93078E+04 -2.65876E+03  3.38749E+04
 -1.97653E+04  2.69878E+04 -3.17246E+04  1.40168E+04 -3.27093E+04 -2.19984E+03 -2.72378E+04 -1.90528E+04
 -1.23243E+04 -2.67473E+04  9.04100E+03 -2.42920E+04  2.11950E+04 -1.26229E+04  1.89764E+04  5.75928E+03
  7.31058E+03  1.39164E+04 -9.29189E+03  1.31556E+04 -1.64443E+04  2.57354E+03 -1.17561E+04 -1.01690E+04
 -3.08043E+02 -1.52402E+04  7.66416E+03 -1.16194E+04  9.75029E+03 -9.57231E+02  1.77746E+03  6.38666E+03
 -7.35510E+03  2.34546E+03 -5.64161E+03 -5.74897E+03 -4.67131E+02 -1.31837E+04  9.64608E+03 -1.40547E+04
  1.64482E+04 -7.54649E+03  1.78248E+04  2.99629E+03  1.59788E+04  1.23164E+04  7.00041E+03  2.00423E+04
 -3.02685E+03  2.16275E+04 -1.33500E+04  1.38277E+04 -1.51524E+04  3.63700E+03 -1.15855E+04 -3.98061E+03
 -4.90913E+03 -4.41469E+03 -6.69181E+02  1.40275E+03 -2.05957E+03  2.19582E+03 -5.15906E+03  3.94596E+03
 -1.02629E+04 -7.96954E+02 -1.06094E+04 -8.55469E+03 -4.25111E+03 -1.45597E+04  4.71369E+03 -1.15825E+04
  9.25859E+03 -4.92897E+03  7.56194E+03  3.31405E+03  2.37045E+02  4.17292E+03 -4.64996E+03  1.59917E+02
 -4.12248E+03 -6.55882E+03 -7.90616E+02 -1.00236E+04  6.04646E+03 -1.10604E+04  1.36144E+04 -5.84300E+03
  1.58029E+04  1.15227E+03  1.20070E+04  9.28258E+03  2.14702E+03  1.22277E+04 -6.64693E+03  1.09634E+04
 -9.28208E+03  3.61454E+03 -4.87959E+03 -1.46772E+03  1.60057E+03 -3.46023E+03  5.95564E+03 -1.05768E+03
  4.66492E+03  4.64665E+03  1.21446E+03  8.19536E+03 -6.17827E+03  8.68961E+03 -1.07666E+04  1.96811E+03
 -7.16145E+03 -5.32553E+03  6.38063E+02 -8.67065E+03  4.94510E+03 -4.29674E+03  4.97488E+03  2.11317E+03
  1.24525E+03  5.42675E+03 -5.41762E+03  7.21243E+03 -7.39758E+03  3.82949E+03 -7.38573E+03 -2.45146E+03
 -4.58925E+03 -1.00371E+04  1.58555E+03 -1.03069E+04  8.91207E+03 -6.81558E+03  1.06291E+04  1.36680E+03
  6.34676E+03  7.80144E+03 -4.43815E+02  1.01402E+04 -7.31016E+03  5.78673E+03 -7.39811E+03 -3.16352E+02
 -7.55112E+03 -6.76734E+03 -1.76155E+03 -6.93657E+03  3.57456E+03 -6.45718E+03  4.69100E+03 -3.21359E+03
  3.15734E+03  6.13170E+02 -2.90700E+02  1.65302E+03 -1.08940E+02 -1.89452E+03  1.14796E+03 -4.19163E+03
  5.83398E+03 -2.11166E+03  8.33786E+03  1.10315E+03  9.17518E+03  5.46755E+03  6.90011E+03  1.14240E+04
 -2.51610E+03  1.26017E+04 -1.16533E+04  1.02316E+04 -1.53296E+04  1.96519E+03 -1.20228E+04 -4.57522E+03
 -6.28248E+03 -9.25057E+03 -1.30068E+02 -8.12431E+03  3.34883E+03 -4.25044E+03  2.76528E+03 -3.00736E+03
  2.54416E+03 -1.35868E+03  2.62465E+03 -3.13917E+03  4.87714E+03 -1.81521E+03  4.91189E+03 -7.78594E+01
  6.36477E+03  1.86002E+03  2.42538E+03  5.10058E+03 -2.11666E+03  5.54365E+03 -6.79209E+03  4.21155E+03
 -7.58868E+03 -6.51924E+02 -4.10022E+03 -5.60417E+03 -3.27431E+02 -8.16069E+03  4.86199E+03 -8.76729E+03
  8.62752E+03 -4.97517E+03  1.04674E+04  1.34361E+03  7.35953E+03  6.78158E+03  7.60562E+02  1.00274E+04
 -3.93800E+03  8.42021E+03 -5.62450E+03  3.08625E+03 -3.97613E+03 -8.67336E+02 -1.12399E+03 -7.82577E+02
 -1.49728E+03 -5.17956E+01 -1.04941E+03  2.73416E+03 -3.59795E+03  1.51629E+03 -6.14412E+03 -8.11225E+02
 -3.41641E+03 -5.58721E+03  4.79296E+02 -7.15111E+03  4.38497E+03 -7.09470E+03  6.93052E+03 -2.08231E+03
  7.12035E+03  4.00776E+03  2.79584E+03  5.36321E+03 -1.55018E+03  7.14384E+03 -4.79539E+03  4.71077E+03
 -7.03811E+03  3.26129E+02 -5.24638E+03 -4.27945E+03 -1.09860E+03 -5.95664E+03  2.91185E+03 -4.31508E+03
  4.32407E+03 -1.79634E+03  2.88980E+03  1.36455E+03  5.02584E+02  2.21552E+03  2.75513E+02  8.90982E+02
  1.69486E+03  9.23330E+02  1.36269E+03  9.63306E+02  1.56941E+03  2.45796E+03  1.79187E+03  4.01556E+03
 -1.57509E+03  5.40322E+03 -5.10066E+03  5.56160E+03 -5.98543E+03  1.62975E+03 -7.34566E+03 -1.74903E+03
 -3.51333E+03 -7.00525E+03  1.22197E+03 -7.42857E+03  3.79324E+03 -4.62711E+03  5.98423E+03 -1.35687E+03
  4.43767E+03  3.33631E+03  6.87811E+02  4.15340E+03 -1.47854E+03  1.78368E+03 -2.62244E+03 -6.14114E+02
 -1.53036E+03 -2.37521E+03  1.49647E+03 -3.13690E+03  2.14288E+03 -1.74518E+03  2.58072E+03  9.33817E+02
  1.90044E+03  3.83121E+02  1.43147E+03  7.40042E+02 -6.65721E+02  1.28033E+03  1.81258E+03 -3.49948E+02
  1.81824E+02 -1.18396E+02  2.93860E+03  1.33357E+03  7.65442E+02  3.91053E+03 -5.76673E+02  4.71572E+03
 -3.73492E+03  2.48687E+03 -3.51163E+03  1.42201E+03 -3.27904E+03 -1.05185E+03 -1.11341E+03 -2.31520E+03
  1.07219E+03 -1.72369E+03  1.92328E+03 -6.31510E+02  1.05728E+03  1.55483E+03 -7.08882E+02  1.92101E+03
 -2.46758E+03  1.51268E+03 -2.60325E+03 -1.65089E+03 -1.58376E+03 -4.13609E+03  4.46153E+02 -4.05114E+03
  1.40111E+03 -1.35233E+03  2.41678E+03  1.56112E+02  2.16534E+03  3.69326E+02  2.16020E+01  1.88973E+03
 -7.24027E+02  8.02880E+02 -1.33079E+03 -3.02796E+02  1.01965E+03 -2.43209E+03  2.54362E+03 -1.44467E+03
  3.33546E+03  2.14021E+02  4.22208E+03  1.64431E+03  1.96947E+03  3.19074E+03 -1.20265E+03  3.66616E+03
 -3.34823E+03  1.49639E+03 -3.09447E+03 -2.30051E+01 -1.71680E+03 -2.57384E+03  5.26003E+02 -1.57809E+03
  2.51984E+03 -1.12037E+03  1.58989E+03  8.29785E+02  8.59703E+02  2.46886E+03 -1.92790E+02  1.53217E+03
 -8.17819E+02  1.00562E+03 -9.55742E+02  2.54411E+02 -3.92373E+02 -9.00275E+01 -1.02263E+03  1.31793E+03
 -1.47608E+03  1.44938E+03 -2.23345E+03  1.01666E+03 -3.16452E+03  1.19030E+02 -4.03585E+03 -1.66905E+03
 -2.60011E+03 -4.22162E+03  1.47524E+03 -5.54284E+03  3.20286E+03 -4.26482E+03  4.88666E+03 -1.95312E+03
  4.61210E+03  6.92822E+02  2.47951E+03  3.15058E+03 -2.63520E+02  3.80774E+03 -1.57682E+03  2.59030E+03
 -1.35623E+03  1.15468E+03 -1.18477E+03 -3.81028E+02 -4.17634E+02  4.82082E+02 -6.93147E+02  2.75633E+02
 -1.14309E+03  9.95739E+01 -9.71014E+02 -3.46912E+02 -2.79836E+02 -9.77510E+02 -5.41993E+01 -1.36939E+03
  2.21145E+03 -1.01235E+03  1.89524E+03  2.55251E+02  2.64046E+03  1.96155E+03  1.36428E+02  2.76547E+03
 -2.11105E+03  4.35644E+03 -3.58198E+03  2.99098E+03 -3.57250E+03 -7.40691E+02 -2.34589E+03 -2.26165E+03
 -1.19401E+03 -3.65605E+03  9.69633E+02 -2.35958E+03  1.58971E+03 -1.69397E+03  2.36809E+03  8.74325E+01
  1.77439E+03  6.74575E+02 -6.86375E+02  7.98050E+02 -3.40115E+02  2.74628E+02  3.08258E+01 -1.75842E+02
  8.14597E+02 -3.40361E+02  6.10702E+02  8.65370E+02  3.42422E+02  1.57616E+03  9.50502E+00  9.90402E+02
 -1.05265E+03  1.48224E+03 -1.80675E+03 -2.36079E+02 -1.46286E+03 -1.81681E+03  2.22653E+01 -2.59573E+03
  1.53465E+03 -2.40315E+03  1.97022E+03 -7.77437E+02  2.20598E+03 -1.44499E+02  1.16360E+03  2.40200E+03
  6.28790E+02  1.85002E+03 -1.14582E+03  1.76812E+03 -1.42251E+03  6.85596E+02 -1.07645E+03  5.38971E+02
 -5.89825E+02  6.06436E+00 -3.34155E+02 -1.58657E+02 -1.18340E+03  1.76358E+02 -1.79379E+03 -2.36216E+02
 -1.78137E+03 -1.78205E+02  3.95649E+02 -1.93447E+03  1.37913E+03 -2.40060E+03  1.60486E+03 -4.06219E+02
  1.27222E+03 -2.19085E+02  6.84527E+02  1.33112E+03  5.44694E+01  1.48170E+03 -1.19957E+03  8.41374E+02
