 $NMID ID='MM_0lb_SNR400_17hz_g45_100.RAW', FMTDAT='(8E13.5)'
 TRAMP=1., VOLUME=1. $END
  3.10203E+05  5.49455E+02  3.37835E+05  2.50831E+05  8.46343E+04  3.37303E+05 -1.32319E+05  2.50090E+05
 -1.89465E+05  8.26592E+04 -1.10731E+05 -3.25717E+04  9.89182E+02 -4.97796E+04  5.37275E+04  1.62737E+02
  3.47816E+04  5.27337E+04 -1.66847E+04  7.51124E+04 -6.02848E+04  6.28907E+04 -8.37787E+04  3.16671E+04
 -8.01718E+04 -1.16173E+04 -5.69158E+04 -5.04380E+04 -1.48283E+04 -6.87530E+04  2.66123E+04 -4.52571E+04
  3.95310E+04  3.98942E+03  1.54135E+04  4.69624E+04 -3.39888E+04  4.59206E+04 -6.56942E+04  9.42628E+00
 -5.19202E+04 -5.58373E+04 -6.77812E+03 -7.58267E+04  3.31710E+04 -5.32744E+04  4.67029E+04 -1.64079E+04
  4.21943E+04  1.09228E+04  3.11741E+04  2.46687E+04  1.56354E+04  2.85295E+04 -5.05184E+03  2.68181E+04
 -2.20891E+04  1.27146E+04 -1.90922E+04 -4.36749E+03  4.55735E+03 -7.57732E+03  2.11715E+04  1.13188E+04
  6.91942E+03  3.37502E+04 -3.07332E+04  3.42880E+04 -6.15339E+04  1.99800E+03 -5.63391E+04 -4.17691E+04
 -1.21916E+04 -6.13123E+04  3.83954E+04 -4.34492E+04  5.60451E+04 -1.96980E+03  3.24696E+04  3.07633E+04
 -6.06318E+03  3.35790E+04 -2.87268E+04  1.44711E+04 -2.77451E+04 -4.93905E+03 -1.51212E+04 -1.04711E+04
 -8.05533E+03 -1.16826E+04 -1.20462E+03 -1.73136E+04  7.44994E+03 -2.27564E+04  1.52587E+04 -1.37825E+04
  1.22114E+04  4.48446E+03 -6.36385E+03  1.29074E+04 -1.97400E+04 -2.93073E+03 -8.46748E+03 -3.14996E+04
  2.12724E+04 -4.07286E+04  4.57238E+04 -1.89186E+04  4.27191E+04  1.86654E+04  1.44323E+04  4.25267E+04
 -1.52656E+04  3.19942E+04 -2.39265E+04  1.18732E+03 -8.37067E+03 -2.69953E+04  2.05345E+04 -3.18331E+04
  3.87785E+04 -8.20732E+03  3.29439E+04  2.26079E+04  1.63812E+04  4.33689E+04 -7.58515E+03  4.69009E+04
 -2.94384E+04  3.09941E+04 -3.83069E+04  8.97835E+03 -3.96013E+04 -1.54158E+04 -2.14797E+04 -3.56744E+04
  7.10483E+03 -3.55198E+04  2.95302E+04 -1.33385E+04  2.74016E+04  1.02844E+04  3.34245E+03  1.78203E+04
 -1.30338E+04  7.29024E+03 -9.22450E+03 -7.80738E+03  6.16129E+03 -1.02929E+04  1.77724E+04  5.90747E+03
  1.27092E+04  2.15563E+04 -6.60735E+03  2.38743E+04 -2.17314E+04  9.82838E+03 -2.58244E+04 -5.34677E+03
 -1.78663E+04 -1.63262E+04 -6.25616E+03 -1.75291E+04  3.94613E+03 -1.61094E+04  1.38540E+04 -1.56462E+04
  2.24708E+04 -1.22517E+04  2.92138E+04  1.51768E+03  2.18840E+04  1.71037E+04  4.19354E+03  3.41065E+04
 -1.66203E+04  2.82879E+04 -2.68692E+04  9.72477E+03 -2.06214E+04 -1.05242E+04 -4.08595E+03 -1.40095E+04
  3.15133E+03 -3.92868E+03 -3.89836E+03  5.59738E+03 -1.36401E+04  5.07191E+03 -1.39061E+04 -5.27911E+03
 -8.83832E+03 -1.61691E+04  4.43810E+03 -1.99024E+04  1.30258E+04 -1.41711E+04  1.56770E+04 -1.27083E+03
  9.54548E+03  1.12007E+04 -4.51475E+02  1.64546E+04 -1.13213E+04  8.74096E+03 -1.65822E+04 -3.90136E+03
 -1.25972E+04 -1.48052E+04 -1.50752E+03 -1.96513E+04  9.02888E+03 -1.65263E+04  1.71282E+04 -7.88153E+03
  1.56480E+04  3.06499E+02  1.11338E+04  4.26004E+03  5.55459E+03  8.31502E+02  8.34397E+03 -1.28468E+03
  1.46975E+04  2.83525E+03  1.61725E+04  1.34063E+04  1.05188E+04  2.56640E+04 -3.28239E+03  2.85820E+04
 -1.67894E+04  2.20835E+04 -2.57946E+04  1.05866E+04 -2.71009E+04 -2.31375E+03 -2.23876E+04 -1.51923E+04
 -1.01841E+04 -2.22301E+04  7.94004E+03 -2.04147E+04  1.81845E+04 -1.14012E+04  1.60728E+04  4.36550E+03
  6.73189E+03  1.17233E+04 -7.80193E+03  1.04961E+04 -1.39777E+04  2.74994E+03 -1.04960E+04 -8.54019E+03
 -5.25722E+02 -1.27266E+04  6.55553E+03 -1.00414E+04  8.69278E+03 -1.98080E+03  1.55302E+03  5.24973E+03
 -6.20108E+03  2.10676E+03 -4.16380E+03 -4.73718E+03  4.81462E+02 -1.11195E+04  8.69866E+03 -1.10292E+04
  1.34277E+04 -5.73386E+03  1.31530E+04  3.25510E+03  1.13634E+04  9.76524E+03  5.24414E+03  1.63590E+04
 -1.81801E+03  1.74063E+04 -1.06682E+04  1.07510E+04 -1.18755E+04  3.30836E+03 -8.98622E+03 -2.70216E+03
 -4.87842E+03 -3.02689E+03 -8.29385E+02  9.72316E+02 -2.05500E+03  1.63230E+03 -3.59152E+03  3.70976E+03
 -8.58523E+03 -8.72578E+02 -9.91312E+03 -7.10066E+03 -4.40233E+03 -1.16518E+04  3.85047E+03 -8.91265E+03
  7.94370E+03 -4.28886E+03  5.44319E+03  2.39079E+03  3.12605E+02  3.12376E+03 -3.62560E+03 -1.07278E+02
 -3.97607E+03 -5.70334E+03 -6.64029E+02 -8.34252E+03  4.25900E+03 -8.67983E+03  1.13032E+04 -4.33034E+03
  1.26828E+04  6.57069E+02  9.45349E+03  6.68327E+03  1.64632E+03  1.00572E+04 -5.75111E+03  9.43602E+03
 -7.55232E+03  2.58938E+03 -4.09434E+03 -1.89160E+03  1.78275E+03 -2.24312E+03  5.43954E+03 -7.04493E+02
  4.41282E+03  3.77244E+03  1.65606E+03  7.00506E+03 -5.22692E+03  7.37212E+03 -8.61763E+03  1.39485E+03
 -4.88953E+03 -3.64657E+03  5.56790E+00 -7.39484E+03  4.08352E+03 -3.89237E+03  4.38683E+03  1.00634E+03
  6.83724E+02  4.07323E+03 -4.27065E+03  5.17877E+03 -5.61802E+03  2.49639E+03 -4.65981E+03 -1.68760E+03
 -3.88565E+03 -7.16832E+03  1.77907E+03 -8.68952E+03  7.16072E+03 -5.40496E+03  7.79645E+03  1.55791E+03
  5.72480E+03  6.61539E+03 -1.43520E+02  8.44381E+03 -5.50585E+03  4.77394E+03 -6.20184E+03 -5.98443E+02
 -6.31173E+03 -5.74721E+03 -9.94976E+02 -6.23886E+03  2.88116E+03 -5.09118E+03  3.40355E+03 -2.85876E+03
  2.81261E+03  6.19167E+02  3.13873E+01  1.57983E+03  8.82753E+01 -3.70910E+02  7.01677E+02 -2.39447E+03
  4.27151E+03 -1.13748E+03  6.28169E+03  1.14153E+03  6.41016E+03  3.53787E+03  6.03506E+03  8.42268E+03
 -1.45042E+03  1.01257E+04 -9.11014E+03  7.82611E+03 -1.10416E+04  1.05474E+03 -9.13049E+03 -3.48997E+03
 -4.72417E+03 -7.49422E+03 -9.43984E+02 -6.15964E+03  2.07520E+03 -2.36464E+03  1.77005E+03 -2.59731E+03
  1.08437E+03 -1.56131E+03  2.19788E+03 -2.80246E+03  3.54638E+03 -1.50031E+03  4.27220E+03  1.55946E+02
  4.92762E+03  1.11135E+03  2.26666E+03  4.11234E+03 -1.79245E+03  3.48579E+03 -4.87999E+03  3.36690E+03
 -5.66426E+03 -9.00026E+02 -2.58227E+03 -4.00446E+03  6.67084E+02 -6.04368E+03  3.45914E+03 -6.51514E+03
  6.06174E+03 -3.36883E+03  7.39152E+03  2.07791E+02  5.61505E+03  4.81133E+03  1.14531E+03  6.80654E+03
 -2.18722E+03  6.96886E+03 -3.68093E+03  2.37552E+03 -2.77209E+03 -1.21401E+03 -4.99996E+02 -5.73838E+02
 -5.68090E+02  6.47457E+02 -8.52460E+02  1.49920E+03 -3.05137E+03  1.40153E+03 -4.91285E+03 -7.70084E-02
 -2.17203E+03 -4.45027E+03  6.42307E+02 -5.39157E+03  3.10642E+03 -4.83529E+03  4.10766E+03 -9.81914E+02
  4.96285E+03  2.95077E+03  1.55859E+03  4.17498E+03 -1.35669E+03  5.36024E+03 -3.31654E+03  3.83187E+03
 -4.91753E+03  8.21014E+02 -4.11927E+03 -3.04346E+03 -4.37293E+02 -3.40689E+03  1.72694E+03 -3.10533E+03
  3.17664E+03 -1.39201E+03  2.59977E+03  4.42205E+02  8.81088E+02  1.93435E+03  5.84234E+02  5.34736E+02
  2.15328E+03  1.11174E+03  1.26965E+03  1.30956E+03  1.60883E+03  2.81603E+03  1.51990E+03  2.28876E+03
 -1.05228E+03  4.28738E+03 -3.11081E+03  5.03769E+03 -3.60423E+03  8.53939E+02 -5.35404E+03 -8.26235E+02
 -2.62945E+03 -4.45231E+03  9.76445E+02 -5.81678E+03  2.08488E+03 -3.27058E+03  3.56629E+03 -1.00934E+03
  3.59665E+03  2.30662E+03  9.49981E+02  2.64948E+03 -9.42622E+02  1.78273E+03 -1.39332E+03 -1.09681E+02
 -7.06983E+02 -2.31282E+03  1.91540E+03 -1.79499E+03  1.60479E+03 -9.89631E+02  1.71827E+03  2.87369E+01
  3.60334E+02  5.02710E+02  7.92799E+02  2.43213E+02 -8.14137E+02  9.61958E+02  1.14032E+03 -2.30601E+02
 -1.36463E+02 -6.23075E+02  1.88684E+03  8.15802E+02  6.69890E+02  2.72660E+03 -7.88815E+02  3.57989E+03
 -1.79556E+03  2.22272E+03 -3.06490E+03  6.87679E+02 -3.01929E+03 -7.31642E+02 -2.56563E+02 -1.76749E+03
  3.16428E+02 -1.53498E+03  6.37569E+02 -9.32157E+02  6.71478E+02  1.75618E+03 -7.49334E+02  1.20675E+03
 -1.81146E+03  5.01070E+02 -1.89307E+03 -1.99619E+03 -1.19694E+03 -2.59353E+03  7.00051E+02 -1.62057E+03
  7.24366E+02 -1.02246E+03  1.41423E+03 -2.16473E+01  1.54572E+03  8.16323E+00 -1.34842E+02  9.74676E+02
 -9.24832E+02  1.92627E+01 -1.13404E+03 -4.23907E+02  7.10601E+02 -1.63580E+03  2.03522E+03 -9.03905E+02
  1.58750E+03  2.85519E+02  3.78851E+03  7.29801E+02  1.66950E+03  2.03655E+03 -6.09155E+02  2.08432E+03
 -2.17536E+03  4.10222E+02 -2.31110E+03 -4.13574E+01 -1.25594E+03 -2.21311E+03 -3.55363E+01 -1.30211E+03
  1.39040E+03 -9.01664E+02  9.65473E+02  6.78105E+02  3.21838E+02  1.64572E+03 -1.66306E+00  1.71233E+03
 -5.36407E+02  1.33544E+03 -8.09591E+02  1.68858E+02  6.68354E+02  1.01186E+02 -9.39314E+02  7.73557E+02
 -7.12175E+02  1.66679E+03 -2.42775E+03  6.22816E+02 -2.18753E+03  2.19731E+00 -3.54938E+03 -1.82813E+03
 -1.37253E+03 -3.27150E+03  3.90541E+02 -3.51924E+03  1.63335E+03 -2.86938E+03  3.29233E+03 -8.71410E+02
  3.06873E+03 -2.19808E+02  1.36035E+03  2.20006E+03 -3.42002E+02  2.12784E+03 -6.04200E+02  1.15138E+03
 -1.41680E+03  5.68322E+02 -6.17051E+02 -6.89822E+02 -6.21308E+02 -1.91981E+02 -5.31681E+02  2.68876E+02
 -1.15226E+03  8.41013E+01 -1.18417E+03 -1.15949E+02  8.17395E+02 -5.98414E+02  2.68718E+02 -1.49890E+03
  1.21172E+03 -1.11222E+03  7.66916E+02  1.53724E+02  1.67699E+03  6.61969E+02 -1.97472E+02  2.22728E+03
 -1.10450E+03  3.04971E+03 -1.91044E+03  1.31721E+03 -2.05590E+03 -3.04636E+02 -2.29127E+03 -1.32624E+03
 -1.61000E+03 -2.13124E+03  1.12626E+02 -1.65314E+03  9.61215E+02 -7.91603E+02  1.01416E+03  5.82306E+02
  1.25181E+03  9.79774E+02  3.71379E+02  7.43240E+02 -3.67780E+02  4.14666E+02 -4.69013E+02 -1.96769E+02
  2.04901E+02  2.31563E+02  6.16386E+02  2.96974E+02  2.69043E+02  8.74830E+02 -3.02514E+02  4.68659E+02
 -1.68801E+03  5.68963E+02 -3.48395E+02  5.50108E+02 -1.33057E+03 -4.89011E+02 -2.42216E+02 -1.15780E+03
  4.29466E+02 -7.25791E+02  3.31279E+02  6.50332E+01  8.25936E+02 -8.49794E+02  4.88871E+02  9.51763E+02
  4.53807E+02  7.50953E+02  6.65533E+01  8.30348E+02 -6.92707E+02  1.10410E+03 -8.18097E+02  1.90281E+02
 -5.06938E+01  4.25544E+02 -3.97800E+02  3.86331E+02 -8.89832E+02  2.24823E+02 -1.52865E+03 -8.21967E+02
 -1.09854E+03  3.44702E+02 -4.83378E+01 -1.60165E+03  4.29392E+02 -1.60616E+03  9.57021E+02  7.39089E+01
  8.80970E+02  8.23717E+00 -5.00387E+02  7.02723E+02 -4.43984E+01  6.10302E+02 -7.67424E+02  8.60586E+02
