 $NMID ID='MM_0lb_SNR400_9hz_g45_41.RAW', FMTDAT='(8E13.5)'
 TRAMP=1., VOLUME=1. $END
  3.09329E+05  5.02495E+02  3.37914E+05  2.51879E+05  8.55173E+04  3.37880E+05 -1.32155E+05  2.52309E+05
 -1.90847E+05  8.34479E+04 -1.12863E+05 -3.32963E+04  7.84848E+02 -5.05882E+04  5.33428E+04 -2.78680E+02
  3.56080E+04  5.25905E+04 -1.70702E+04  7.56916E+04 -6.17766E+04  6.47162E+04 -8.60215E+04  3.26865E+04
 -8.28882E+04 -1.16268E+04 -5.78885E+04 -5.27915E+04 -1.58027E+04 -7.09385E+04  2.73286E+04 -4.73410E+04
  4.09527E+04  3.52664E+03  1.68599E+04  4.85639E+04 -3.57565E+04  4.84118E+04 -6.74319E+04 -9.02464E+01
 -5.37848E+04 -5.78289E+04 -7.35329E+03 -7.81085E+04  3.48032E+04 -5.65996E+04  4.91907E+04 -1.87630E+04
  4.52853E+04  1.11503E+04  3.32478E+04  2.67214E+04  1.59163E+04  3.02276E+04 -6.45003E+03  2.70838E+04
 -2.26770E+04  1.18286E+04 -1.71369E+04 -5.68502E+03  6.77968E+03 -7.19302E+03  2.38552E+04  1.34892E+04
  6.20833E+03  3.76546E+04 -3.35067E+04  3.75710E+04 -6.54285E+04  2.21868E+03 -5.87370E+04 -4.42297E+04
 -1.31589E+04 -6.56183E+04  4.12926E+04 -4.72754E+04  6.10665E+04 -2.83654E+03  3.66797E+04  3.33886E+04
 -5.36944E+03  3.84184E+04 -3.15811E+04  1.84391E+04 -3.34120E+04 -3.68858E+03 -1.90220E+04 -1.28627E+04
 -9.38169E+03 -1.50040E+04 -6.48953E+01 -1.93720E+04  8.98001E+03 -2.34793E+04  1.56783E+04 -1.21161E+04
  1.01164E+04  6.46483E+03 -1.10401E+04  1.27879E+04 -2.25622E+04 -5.79458E+03 -9.18731E+03 -3.65688E+04
  2.59603E+04 -4.64578E+04  5.13384E+04 -2.12039E+04  4.81398E+04  2.07360E+04  1.70945E+04  4.74987E+04
 -1.69162E+04  3.56672E+04 -2.75837E+04  2.61705E+03 -1.21446E+04 -2.89833E+04  2.12522E+04 -3.67243E+04
  4.42731E+04 -1.05748E+04  3.97015E+04  2.49012E+04  2.17990E+04  5.02619E+04 -7.57801E+03  5.53541E+04
 -3.51130E+04  3.73390E+04 -4.78867E+04  1.02571E+04 -4.65595E+04 -1.84356E+04 -2.56208E+04 -4.18985E+04
  7.32253E+03 -4.19640E+04  3.39756E+04 -1.71790E+04  3.25518E+04  1.12127E+04  5.19634E+03  2.07003E+04
 -1.40297E+04  9.56397E+03 -1.13958E+04 -7.88165E+03  5.65564E+03 -1.18277E+04  1.80028E+04  6.33544E+03
  1.39579E+04  2.28129E+04 -4.84931E+03  2.74083E+04 -2.34081E+04  1.39000E+04 -3.12067E+04 -3.43330E+03
 -2.49959E+04 -1.80771E+04 -1.11364E+04 -2.43332E+04  5.22261E+03 -2.46989E+04  1.97143E+04 -2.30983E+04
  3.23569E+04 -1.37697E+04  3.67831E+04  5.04178E+03  2.67828E+04  2.39422E+04  3.93622E+03  4.10573E+04
 -1.99288E+04  3.37287E+04 -3.04588E+04  1.16435E+04 -2.27220E+04 -1.10509E+04 -5.04568E+03 -1.29162E+04
  6.99346E+02 -1.14136E+03 -6.94568E+03  7.90305E+03 -1.95358E+04  4.67827E+03 -1.96408E+04 -9.03687E+03
 -1.12598E+04 -2.24642E+04  5.66091E+03 -2.72128E+04  1.86192E+04 -1.85245E+04  2.32049E+04 -2.00791E+03
  1.35948E+04  1.60939E+04 -1.33484E+03  2.32325E+04 -1.62929E+04  1.26201E+04 -2.25749E+04 -4.99888E+03
 -1.64824E+04 -2.02701E+04 -2.29906E+03 -2.70644E+04  1.25360E+04 -2.29962E+04  2.29449E+04 -1.24898E+04
  2.14520E+04 -6.88211E+02  1.52998E+04  5.32740E+03  8.31271E+03  2.02059E+03  1.26341E+04 -1.71446E+03
  2.14208E+04  3.03137E+03  2.46148E+04  1.79177E+04  1.74611E+04  3.67267E+04 -2.67376E+03  4.35525E+04
 -2.52907E+04  3.58929E+04 -4.11141E+04  1.96095E+04 -4.37277E+04 -2.65954E+03 -3.49471E+04 -2.55574E+04
 -1.47147E+04 -3.65805E+04  1.26721E+04 -3.22244E+04  2.76213E+04 -1.54263E+04  2.41427E+04  6.87222E+03
  7.68479E+03  1.83790E+04 -1.14659E+04  1.49784E+04 -2.01239E+04  2.15162E+03 -1.50837E+04 -1.21619E+04
 -7.27770E+02 -1.95028E+04  1.01995E+04 -1.38178E+04  1.34500E+04 -1.24733E+03  3.56139E+03  8.90974E+03
 -8.91747E+03  3.83096E+03 -8.09745E+03 -5.99672E+03 -9.63480E+02 -1.80701E+04  1.14812E+04 -1.93580E+04
  2.19045E+04 -1.16505E+04  2.54555E+04  3.39898E+03  2.24785E+04  1.79687E+04  9.87867E+03  2.82315E+04
 -5.51715E+03  2.99207E+04 -1.94802E+04  1.87612E+04 -2.20366E+04  3.50922E+03 -1.45617E+04 -5.83297E+03
 -6.39919E+03 -6.83028E+03 -4.61936E+01  7.45083E+02 -2.70886E+03  3.47510E+03 -7.47618E+03  5.57184E+03
 -1.31553E+04 -1.20061E+03 -1.43224E+04 -1.18394E+04 -5.41227E+03 -1.90317E+04  6.67453E+03 -1.49217E+04
  1.22697E+04 -6.71634E+03  7.78730E+03  3.41940E+03  4.87180E+01  5.97665E+03 -7.37424E+03  3.11064E+02
 -7.37911E+03 -9.82805E+03 -1.58570E+03 -1.47400E+04  8.65350E+03 -1.59148E+04  1.98270E+04 -8.85735E+03
  2.34402E+04  1.53690E+03  1.67854E+04  1.37111E+04  3.02653E+03  1.86293E+04 -9.54010E+03  1.55654E+04
 -1.20457E+04  4.64715E+03 -6.89378E+03 -3.14710E+03  2.49151E+03 -3.84787E+03  8.09619E+03 -1.00944E+03
  7.07792E+03  6.34970E+03  1.57973E+03  1.19470E+04 -8.92156E+03  1.12501E+04 -1.60736E+04  2.18636E+03
 -1.09165E+04 -7.09526E+03  5.74369E+02 -1.33691E+04  8.31291E+03 -7.73564E+03  9.20316E+03  2.50874E+03
  1.60144E+03  1.00737E+04 -8.49801E+03  1.08961E+04 -1.33956E+04  4.83011E+03 -1.32926E+04 -5.29692E+03
 -7.12504E+03 -1.55228E+04  3.50892E+03 -1.78197E+04  1.45305E+04 -1.10120E+04  1.57588E+04  3.13420E+03
  9.67515E+03  1.24279E+04 -1.23818E+03  1.52777E+04 -1.16911E+04  9.11245E+03 -1.24004E+04 -1.27673E+03
 -1.05983E+04 -1.00274E+04 -2.31500E+03 -1.20371E+04  6.59603E+03 -9.89693E+03  7.32914E+03 -3.50207E+03
  4.59060E+03  2.56459E+03 -1.88386E+03  2.14123E+03 -7.63220E+02 -2.89159E+03  2.37240E+03 -7.32444E+03
  1.17793E+04 -5.01006E+03  1.60754E+04  1.71015E+03  1.56438E+04  1.09571E+04  9.73924E+03  2.03446E+04
 -5.61010E+03  2.36994E+04 -1.94261E+04  1.65788E+04 -2.51559E+04  3.54843E+03 -2.04289E+04 -8.01388E+03
 -1.03617E+04 -1.64529E+04  2.52918E+01 -1.36300E+04  4.79969E+03 -8.15272E+03  5.03270E+03 -5.34128E+03
  3.88768E+03 -3.89122E+03  4.35248E+03 -3.53855E+03  5.80014E+03 -4.38694E+03  8.27194E+03 -1.38838E+03
  9.72936E+03  1.85318E+03  5.07734E+03  9.89571E+03 -1.77314E+03  1.08399E+04 -1.11798E+04  8.16258E+03
 -1.36266E+04 -1.60124E+03 -8.80594E+03 -9.98379E+03 -6.30584E+02 -1.52125E+04  8.04722E+03 -1.54191E+04
  1.58754E+04 -8.59458E+03  1.92792E+04  2.57422E+03  1.30036E+04  1.29221E+04  2.82613E+03  1.75589E+04
 -7.43073E+03  1.38893E+04 -1.06891E+04  5.00685E+03 -7.28497E+03 -1.48049E+03 -2.87591E+03 -1.42279E+03
 -1.07477E+03 -7.74539E+01 -2.21715E+03  3.28366E+03 -6.06840E+03  2.61530E+03 -9.92953E+03 -1.13435E+03
 -7.27505E+03 -1.00996E+04  1.04099E+02 -1.37998E+04  8.64611E+03 -1.33522E+04  1.38557E+04 -3.88360E+03
  1.43868E+04  6.77963E+03  6.29401E+03  1.26804E+04 -2.06033E+03  1.40700E+04 -1.14811E+04  8.90752E+03
 -1.33564E+04  6.53837E+02 -1.03453E+04 -8.55340E+03 -1.33387E+03 -1.23618E+04  5.96271E+03 -9.22589E+03
  9.38956E+03 -3.18510E+03  5.72312E+03  2.84904E+03  2.02228E+03  4.83282E+03  5.69616E+02  1.70165E+03
  3.16632E+03  1.04589E+03  2.50566E+03  2.03896E+03  4.31058E+03  4.76576E+03  3.83153E+03  8.31240E+03
 -2.69787E+03  1.13577E+04 -9.88579E+03  1.19650E+04 -1.45035E+04  2.96495E+03 -1.54650E+04 -6.35755E+03
 -7.33177E+03 -1.44330E+04  2.75566E+03 -1.53965E+04  9.06806E+03 -1.00927E+04  1.15833E+04 -2.31282E+03
  9.34783E+03  4.84504E+03  1.36518E+03  8.26602E+03 -4.31238E+03  5.77635E+03 -6.61489E+03 -6.03410E+02
 -2.42015E+03 -6.36364E+03  3.56711E+03 -6.43675E+03  5.95561E+03 -3.54968E+03  5.94686E+03  1.13762E+03
  3.07641E+03  3.39364E+03  1.22530E+03  2.88764E+03  3.72969E+02  2.73661E+03  1.25580E+03 -1.34060E+02
  2.26843E+03 -6.35008E+02  6.33370E+03  2.81848E+03  3.99487E+03  7.39577E+03 -1.01122E+03  9.76029E+03
 -6.46838E+03  7.11320E+03 -8.70654E+03  2.28614E+03 -8.40774E+03 -3.52311E+03 -3.02338E+03 -5.24621E+03
  3.51366E+02 -5.45491E+03  4.32295E+03 -2.42732E+03  3.24111E+03  3.07942E+03 -1.40466E+03  5.51501E+03
 -6.08935E+03  3.09498E+03 -7.37362E+03 -2.93464E+03 -4.01513E+03 -7.90666E+03  1.90094E+03 -8.76178E+03
  4.88298E+03 -4.62035E+03  5.47304E+03 -9.19702E+02  4.98451E+03  2.16859E+03  1.26184E+03  4.38721E+03
 -2.70368E+03  1.39008E+03 -2.78943E+03 -2.53913E+03  1.37489E+03 -6.39277E+03  8.05694E+03 -5.36148E+03
  9.34325E+03  1.34668E+03  9.07707E+03  7.01197E+03  3.10428E+03  9.76187E+03 -3.42570E+03  9.74956E+03
 -8.40263E+03  4.27223E+03 -8.98025E+03 -2.68790E+03 -4.81956E+03 -5.77793E+03  1.55491E+03 -5.42695E+03
  6.02075E+03 -3.20408E+03  5.89762E+03  2.83556E+03  1.47140E+03  5.72656E+03 -9.67232E+02  4.84835E+03
 -2.47616E+03  3.77335E+03 -2.43854E+03 -1.24497E+02 -1.25394E+03  8.11925E+02 -9.57463E+02  1.63130E+03
 -2.14856E+03  3.33653E+03 -6.61700E+03  2.58782E+03 -9.09827E+03  7.19000E+02 -1.05131E+04 -6.20675E+03
 -5.63986E+03 -1.28322E+04  2.90018E+03 -1.47670E+04  9.45968E+03 -1.13739E+04  1.36512E+04 -4.00008E+03
  1.38071E+04  3.05623E+03  8.48313E+03  8.39749E+03  1.14070E+03  9.88984E+03 -3.99907E+03  7.46552E+03
 -5.80043E+03  3.29621E+03 -3.62459E+03 -2.08455E+03 -1.64195E+03 -6.42991E+02 -6.70711E+02  1.00263E+03
 -2.17919E+03 -1.70032E+02 -3.03622E+03  1.91915E+02 -1.57867E+03 -2.65015E+03  1.21801E+03 -3.64206E+03
  4.31098E+03 -3.51009E+03  6.45523E+03  2.01786E+02  7.67916E+03  5.07152E+03  1.87647E+03  9.92277E+03
 -4.17670E+03  1.16388E+04 -1.08183E+04  5.86055E+03 -1.29103E+04 -6.23756E+02 -1.01917E+04 -7.00733E+03
 -4.02393E+03 -9.98665E+03  2.83930E+03 -9.13293E+03  6.68810E+03 -4.33585E+03  6.78228E+03  9.14325E+02
  3.13058E+03  2.53396E+03 -9.64446E+02  2.99626E+03 -2.21091E+03  3.88539E+02  5.77342E+02 -2.06653E+03
  3.32503E+03 -1.69886E+03  4.77832E+03  1.10710E+03  3.22549E+03  5.12964E+03 -1.48550E+02  6.37097E+03
 -4.63524E+03  4.90325E+03 -6.15650E+03  3.31600E+02 -6.23596E+03 -4.53314E+03 -1.16367E+03 -8.29535E+03
  4.37778E+03 -7.31016E+03  8.47846E+03 -1.79424E+03  8.51414E+03  2.10030E+03  3.91215E+03  5.07479E+03
  1.34196E+03  6.33777E+03 -2.98762E+03  5.29103E+03 -4.88271E+03  2.59622E+03 -4.10370E+03  2.27086E+02
 -2.46656E+03 -6.25554E+02 -2.36412E+03  8.81012E+02 -3.97854E+03  5.63501E+02 -4.71922E+03 -1.05538E+03
 -4.93289E+03 -3.88293E+03 -1.29586E+03 -7.32633E+03  2.80683E+03 -6.72243E+03  6.43540E+03 -3.47577E+03
  7.30619E+03  8.13389E+02  3.68355E+03  4.78002E+03 -1.04858E+03  5.95647E+03 -5.13095E+03  4.68835E+03
