 $NMID ID='MM_0lb_SNR400_12hz_g45_40.RAW', FMTDAT='(8E13.5)'
 TRAMP=1., VOLUME=1. $END
  3.09695E+05  1.01672E+03  3.37592E+05  2.50825E+05  8.50571E+04  3.38284E+05 -1.32335E+05  2.51152E+05
 -1.90839E+05  8.36412E+04 -1.11628E+05 -3.22880E+04  1.05629E+03 -5.08303E+04  5.36004E+04  1.69473E+02
  3.59601E+04  5.25880E+04 -1.70612E+04  7.58801E+04 -6.10671E+04  6.37797E+04 -8.49205E+04  3.25316E+04
 -8.15692E+04 -1.13356E+04 -5.75454E+04 -5.14471E+04 -1.50430E+04 -6.94334E+04  2.74949E+04 -4.63465E+04
  4.07877E+04  3.70916E+03  1.72297E+04  4.72205E+04 -3.41004E+04  4.74907E+04 -6.66369E+04 -6.41848E+02
 -5.36505E+04 -5.73708E+04 -7.31900E+03 -7.80872E+04  3.40770E+04 -5.55171E+04  4.83567E+04 -1.84485E+04
  4.48444E+04  1.12823E+04  3.23119E+04  2.51888E+04  1.57009E+04  2.91367E+04 -5.61811E+03  2.73440E+04
 -2.20625E+04  1.26215E+04 -1.87496E+04 -4.76320E+03  6.17840E+03 -7.30289E+03  2.26813E+04  1.27860E+04
  7.81616E+03  3.54564E+04 -3.28199E+04  3.54234E+04 -6.36270E+04  2.29910E+03 -5.77191E+04 -4.35113E+04
 -1.25402E+04 -6.37236E+04  4.01203E+04 -4.60818E+04  5.83377E+04 -2.93766E+03  3.55274E+04  3.28957E+04
 -5.56542E+03  3.70637E+04 -3.07387E+04  1.68871E+04 -3.15569E+04 -4.42494E+03 -1.73638E+04 -1.17771E+04
 -8.34763E+03 -1.39552E+04 -7.93975E+02 -1.90669E+04  7.44697E+03 -2.29665E+04  1.57220E+04 -1.37583E+04
  1.10571E+04  5.96659E+03 -9.36182E+03  1.26748E+04 -2.16870E+04 -5.18229E+03 -8.31366E+03 -3.52116E+04
  2.39284E+04 -4.48215E+04  4.91895E+04 -1.97898E+04  4.61736E+04  2.00173E+04  1.60693E+04  4.46722E+04
 -1.58936E+04  3.48537E+04 -2.64229E+04  1.86639E+03 -1.04632E+04 -2.90608E+04  2.22052E+04 -3.49691E+04
  4.21535E+04 -9.72706E+03  3.71456E+04  2.41967E+04  1.87032E+04  4.78250E+04 -7.45521E+03  5.19513E+04
 -3.32556E+04  3.52661E+04 -4.38062E+04  9.78557E+03 -4.44330E+04 -1.72411E+04 -2.43205E+04 -3.86564E+04
  7.40421E+03 -3.93098E+04  3.16885E+04 -1.53557E+04  2.94585E+04  1.10046E+04  3.86871E+03  1.98724E+04
 -1.37813E+04  8.12773E+03 -1.05858E+04 -7.39046E+03  6.04603E+03 -1.14380E+04  1.82588E+04  6.69721E+03
  1.31401E+04  2.24770E+04 -5.54512E+03  2.57396E+04 -2.26801E+04  1.19417E+04 -2.82987E+04 -4.69200E+03
 -2.18410E+04 -1.74546E+04 -9.18703E+03 -2.18230E+04  4.75654E+03 -2.13108E+04  1.73761E+04 -1.99629E+04
  2.84003E+04 -1.36529E+04  3.36686E+04  2.86563E+03  2.47136E+04  2.13119E+04  4.10180E+03  3.76666E+04
 -1.84675E+04  3.17363E+04 -2.81250E+04  1.06663E+04 -2.13312E+04 -1.00089E+04 -4.57562E+03 -1.28108E+04
  1.30932E+03 -2.19737E+03 -5.33428E+03  6.78083E+03 -1.70192E+04  5.31282E+03 -1.71206E+04 -7.37110E+03
 -1.05474E+04 -2.00651E+04  5.74748E+03 -2.44750E+04  1.60777E+04 -1.72341E+04  1.93853E+04 -1.86466E+03
  1.22619E+04  1.35634E+04 -7.36600E+02  2.05888E+04 -1.32592E+04  1.16998E+04 -2.05774E+04 -4.32220E+03
 -1.47736E+04 -1.74458E+04 -2.20384E+03 -2.45878E+04  1.07766E+04 -2.04633E+04  2.02843E+04 -9.93891E+03
  1.89351E+04  8.92254E+01  1.37079E+04  4.87699E+03  7.83771E+03  1.05182E+03  1.10711E+04 -1.93016E+03
  1.89567E+04  2.32812E+03  2.12857E+04  1.55777E+04  1.43219E+04  3.19984E+04 -2.22609E+03  3.76492E+04
 -2.13249E+04  3.04234E+04 -3.48341E+04  1.54328E+04 -3.74932E+04 -2.81531E+03 -3.04896E+04 -2.10690E+04
 -1.28781E+04 -3.10277E+04  1.14380E+04 -2.66336E+04  2.27943E+04 -1.39297E+04  2.09476E+04  6.40038E+03
  7.52434E+03  1.54338E+04 -9.65769E+03  1.38691E+04 -1.75790E+04  2.35177E+03 -1.23221E+04 -1.07831E+04
 -6.86899E+02 -1.64566E+04  7.52953E+03 -1.22604E+04  1.08862E+04 -2.71577E+01  1.78553E+03  6.62753E+03
 -7.24152E+03  3.21743E+03 -7.29931E+03 -6.26493E+03 -5.44630E+02 -1.47115E+04  1.02306E+04 -1.57097E+04
  1.84568E+04 -8.51830E+03  2.03126E+04  2.93017E+03  1.78731E+04  1.46655E+04  8.51489E+03  2.28940E+04
 -3.96350E+03  2.51771E+04 -1.62283E+04  1.49632E+04 -1.78593E+04  3.10379E+03 -1.26042E+04 -4.52644E+03
 -5.04145E+03 -5.55613E+03 -2.18463E+02  1.13893E+03 -2.62427E+03  3.32147E+03 -5.94046E+03  5.40681E+03
 -1.19614E+04 -1.12448E+03 -1.17483E+04 -9.87338E+03 -4.40225E+03 -1.64877E+04  5.53817E+03 -1.25198E+04
  1.08309E+04 -5.72090E+03  7.17529E+03  3.29782E+03 -1.26958E+02  5.23254E+03 -6.12112E+03 -8.70749E+01
 -6.76666E+03 -8.12296E+03 -1.02706E+03 -1.17194E+04  7.27354E+03 -1.23634E+04  1.59908E+04 -7.04620E+03
  1.86962E+04  1.60570E+03  1.28937E+04  1.03848E+04  2.22119E+03  1.39706E+04 -8.17787E+03  1.21287E+04
 -1.03447E+04  3.57828E+03 -5.93351E+03 -2.21883E+03  1.97374E+03 -3.19358E+03  6.64399E+03 -6.74802E+02
  5.94609E+03  5.15969E+03  1.09420E+03  1.00865E+04 -6.47663E+03  9.67013E+03 -1.26098E+04  1.47725E+03
 -8.50824E+03 -6.32607E+03 -5.80642E+01 -1.05613E+04  6.39927E+03 -5.25256E+03  6.66683E+03  1.61103E+03
  1.38929E+03  7.22985E+03 -6.89972E+03  8.73420E+03 -9.67143E+03  4.05998E+03 -1.01181E+04 -3.25218E+03
 -5.99129E+03 -1.14293E+04  2.58902E+03 -1.31333E+04  1.17610E+04 -8.21546E+03  1.25527E+04  2.33060E+03
  7.29937E+03  9.98301E+03 -2.61665E+02  1.17851E+04 -8.96871E+03  6.95302E+03 -9.82468E+03 -8.01627E+02
 -8.44064E+03 -7.48091E+03 -1.45459E+03 -9.34243E+03  4.99135E+03 -7.74467E+03  6.15326E+03 -3.36974E+03
  3.51887E+03  1.20768E+03 -5.99930E+02  1.76194E+03 -1.88811E+02 -2.12723E+03  1.05824E+03 -5.12096E+03
  7.72828E+03 -3.17445E+03  1.15589E+04  1.70395E+03  1.13423E+04  7.54540E+03  7.70330E+03  1.52305E+04
 -3.10386E+03  1.64824E+04 -1.43760E+04  1.21522E+04 -1.88542E+04  2.34584E+03 -1.49075E+04 -6.60359E+03
 -7.88563E+03 -1.21564E+04  3.08864E+02 -1.05066E+04  3.60425E+03 -6.06339E+03  3.82245E+03 -3.69805E+03
  2.97565E+03 -2.43177E+03  2.68029E+03 -2.54719E+03  5.18137E+03 -3.00902E+03  6.08364E+03 -1.59176E+03
  7.96919E+03  1.37785E+03  3.41077E+03  6.66973E+03 -1.78875E+03  6.87221E+03 -8.09237E+03  6.09468E+03
 -1.04967E+04 -1.40846E+03 -6.39814E+03 -7.90266E+03 -6.85450E+02 -1.15215E+04  5.60313E+03 -1.09388E+04
  1.13338E+04 -6.71008E+03  1.34508E+04  1.59090E+03  9.65363E+03  9.46368E+03  1.58555E+03  1.24704E+04
 -4.86268E+03  1.01417E+04 -7.20642E+03  3.87145E+03 -4.67320E+03 -9.27254E+02 -2.29075E+03 -1.15319E+03
 -8.15013E+02 -4.38846E+00 -1.65590E+03  2.46068E+03 -4.85161E+03  2.08980E+03 -6.87333E+03 -1.23600E+03
 -4.28416E+03 -7.14770E+03  2.37893E+02 -1.03015E+04  5.95111E+03 -8.84436E+03  8.78312E+03 -2.83426E+03
  9.68324E+03  4.72215E+03  4.55031E+03  8.89801E+03 -1.76790E+03  9.97307E+03 -6.80830E+03  6.11483E+03
 -9.00598E+03  5.56307E+02 -7.56336E+03 -5.86330E+03 -5.69346E+01 -8.56074E+03  4.08429E+03 -6.26293E+03
  6.54362E+03 -1.82150E+03  4.75130E+03  1.12387E+03  2.22405E+03  3.62742E+03  8.29594E+02  1.65800E+03
  2.13941E+03  1.63523E+03  3.12534E+03  5.75071E+02  3.40129E+03  4.29682E+03  2.86190E+03  5.05754E+03
 -1.72502E+03  6.61639E+03 -6.80384E+03  8.33889E+03 -9.22289E+03  1.94883E+03 -1.00285E+04 -3.67987E+03
 -4.81283E+03 -9.19998E+03  1.39244E+03 -1.10889E+04  5.98429E+03 -6.14954E+03  7.59903E+03 -2.34952E+03
  6.29327E+03  4.01547E+03  1.18770E+03  5.92586E+03 -2.55888E+03  4.30503E+03 -3.90913E+03 -6.78465E+02
 -1.82128E+03 -4.02843E+03  2.32714E+03 -4.58213E+03  4.18139E+03 -1.87626E+03  3.70488E+03  7.13874E+02
  2.75329E+03  1.67068E+03  1.39571E+03  1.18709E+03 -7.05935E+02  1.26333E+03  1.12116E+03 -6.97766E+02
  1.92130E+03 -4.04808E+02  3.44867E+03  1.03869E+03  2.23030E+03  5.05957E+03 -1.14016E+03  6.52956E+03
 -4.39601E+03  4.76371E+03 -6.42233E+03  1.13230E+03 -5.17555E+03 -2.02367E+03 -1.69133E+03 -2.94873E+03
  5.77226E+02 -3.56522E+03  2.57858E+03 -1.53846E+03  2.43352E+03  2.81587E+03 -9.78616E+02  2.92659E+03
 -3.84654E+03  2.01989E+03 -4.09915E+03 -2.42692E+03 -2.36550E+03 -5.55174E+03  6.11299E+02 -5.35665E+03
  2.87850E+03 -2.22738E+03  3.29325E+03  2.16392E+02  3.08933E+03  1.64518E+03  3.22266E+02  2.83432E+03
 -1.41208E+03  8.66083E+02 -1.83411E+03 -1.63835E+03  2.33042E+02 -3.41877E+03  4.79207E+03 -2.79824E+03
  4.96924E+03  5.12038E+02  6.18888E+03  3.48852E+03  1.36871E+03  5.55486E+03 -2.30784E+03  5.57330E+03
 -4.50318E+03  2.30977E+03 -4.29741E+03 -8.90086E+02 -3.17259E+03 -4.02390E+03  9.09984E+02 -3.70366E+03
  3.77042E+03 -1.80810E+03  2.64568E+03  1.52792E+03  1.26593E+03  3.45131E+03 -4.00242E+02  2.73213E+03
 -1.46386E+03  2.24330E+03 -1.32114E+03  3.14311E+02 -1.09091E+03  9.15817E+02 -7.56922E+02  1.22551E+03
 -1.46743E+03  2.54692E+03 -4.49314E+03  2.06065E+03 -6.08014E+03  5.74171E+02 -6.58195E+03 -3.86763E+03
 -3.44445E+03 -6.80761E+03  1.53035E+03 -8.91438E+03  5.50664E+03 -7.12807E+03  8.50822E+03 -2.13091E+03
  7.84305E+03  1.52212E+03  4.17407E+03  4.76400E+03  1.74725E+02  6.51054E+03 -2.88060E+03  5.30764E+03
 -3.27162E+03  2.18658E+03 -2.61425E+03 -1.23252E+03 -8.18455E+02 -7.17574E+02 -1.10193E+03  6.73664E+01
 -1.28192E+03 -6.41074E+01 -1.46969E+03 -4.11625E+02 -6.76181E+02 -1.19289E+03  3.42031E+02 -2.54720E+03
  3.55410E+03 -1.73970E+03  3.52679E+03  1.67789E+02  4.16374E+03  3.52307E+03  4.95511E+02  5.50576E+03
 -2.41798E+03  6.86798E+03 -6.36041E+03  4.01786E+03 -7.08886E+03 -3.47686E+02 -5.25750E+03 -4.89689E+03
 -2.86589E+03 -6.01137E+03  1.88383E+03 -4.78878E+03  3.59783E+03 -2.94814E+03  3.71929E+03  1.08416E+03
  2.07588E+03  1.63424E+03  1.50980E+02  1.71119E+03 -1.33596E+03 -4.45253E+02 -5.06007E+02 -1.41868E+03
  1.51302E+03 -6.41629E+02  2.02757E+03  7.09464E+02  1.45724E+03  2.40466E+03  4.73177E+02  3.08742E+03
 -3.03119E+03  2.11748E+03 -4.14283E+03  8.99288E+01 -3.87965E+03 -2.28516E+03 -1.66861E+02 -3.93327E+03
  3.39597E+03 -4.26843E+03  4.60630E+03 -1.05298E+03  4.14518E+03  4.70266E+02  2.14092E+03  3.68749E+03
  4.01932E+02  3.50387E+03 -1.31566E+03  2.54291E+03 -1.78448E+03  1.54185E+03 -1.90173E+03  3.77337E+02
 -1.36898E+03 -1.14455E+02 -7.87893E+02  3.09363E+02 -2.75333E+03  6.25781E+02 -3.08109E+03 -3.90816E+02
 -2.54706E+03 -4.09398E+02 -8.04635E+02 -4.12559E+03  2.17047E+03 -4.30445E+03  2.96110E+03 -1.99083E+03
  4.21264E+03  4.42017E+02  9.58772E+02  2.42173E+03  1.52380E+02  3.46890E+03 -3.35427E+03  2.24419E+03
