 $NMID ID='MM_0lb_SNR400_11hz_g45_94.RAW', FMTDAT='(8E13.5)'
 TRAMP=1., VOLUME=1. $END
  3.10197E+05  1.23705E+02  3.37845E+05  2.50951E+05  8.41724E+04  3.38241E+05 -1.32556E+05  2.51859E+05
 -1.89891E+05  8.28562E+04 -1.12520E+05 -3.29699E+04  3.35136E+02 -5.08218E+04  5.36388E+04 -1.27562E+02
  3.56910E+04  5.32655E+04 -1.66016E+04  7.54896E+04 -6.07201E+04  6.43383E+04 -8.49805E+04  3.19504E+04
 -8.13990E+04 -1.14945E+04 -5.76032E+04 -5.19476E+04 -1.49584E+04 -7.00469E+04  2.79562E+04 -4.56018E+04
  4.07566E+04  3.42454E+03  1.64363E+04  4.80876E+04 -3.48077E+04  4.79960E+04 -6.77422E+04  4.82770E+02
 -5.40122E+04 -5.76723E+04 -6.70140E+03 -7.84972E+04  3.46012E+04 -5.53031E+04  4.89993E+04 -1.82585E+04
  4.31364E+04  1.19571E+04  3.21753E+04  2.58019E+04  1.52811E+04  3.03790E+04 -5.09799E+03  2.77406E+04
 -2.21313E+04  1.19145E+04 -1.78850E+04 -5.77065E+03  6.22546E+03 -7.56656E+03  2.33649E+04  1.27944E+04
  7.24037E+03  3.67268E+04 -3.21095E+04  3.63482E+04 -6.46523E+04  2.07820E+03 -5.77476E+04 -4.32359E+04
 -1.26786E+04 -6.42123E+04  4.10632E+04 -4.63315E+04  5.97643E+04 -2.78706E+03  3.56632E+04  3.38384E+04
 -5.94665E+03  3.77363E+04 -3.08622E+04  1.73406E+04 -3.26957E+04 -3.78836E+03 -1.71219E+04 -1.19715E+04
 -9.00151E+03 -1.41306E+04 -6.56998E+02 -1.89000E+04  7.88809E+03 -2.28475E+04  1.54806E+04 -1.28669E+04
  9.97110E+03  5.58819E+03 -9.40507E+03  1.25257E+04 -2.21846E+04 -5.23194E+03 -7.90045E+03 -3.59211E+04
  2.36723E+04 -4.55990E+04  5.00139E+04 -1.97724E+04  4.70595E+04  2.01436E+04  1.63283E+04  4.56796E+04
 -1.64715E+04  3.47156E+04 -2.64260E+04  1.70711E+03 -1.10208E+04 -2.83459E+04  2.08401E+04 -3.50027E+04
  4.27683E+04 -1.03241E+04  3.80034E+04  2.45919E+04  2.00182E+04  4.90711E+04 -8.24688E+03  5.25651E+04
 -3.29039E+04  3.56048E+04 -4.48225E+04  1.00814E+04 -4.51738E+04 -1.75516E+04 -2.49791E+04 -4.05876E+04
  7.80170E+03 -3.90870E+04  3.29411E+04 -1.58347E+04  3.04299E+04  1.12682E+04  4.11861E+03  1.98488E+04
 -1.36951E+04  8.95222E+03 -1.13472E+04 -7.33002E+03  5.07870E+03 -1.12403E+04  1.87881E+04  5.55804E+03
  1.42403E+04  2.22054E+04 -5.87627E+03  2.59306E+04 -2.29584E+04  1.32841E+04 -2.94215E+04 -3.97914E+03
 -2.26634E+04 -1.76185E+04 -9.91272E+03 -2.29737E+04  4.29722E+03 -2.25407E+04  1.79381E+04 -2.03330E+04
  2.85090E+04 -1.40427E+04  3.59077E+04  3.50951E+03  2.60608E+04  2.21390E+04  3.21617E+03  3.90420E+04
 -1.84459E+04  3.09768E+04 -2.95203E+04  1.13033E+04 -2.15465E+04 -9.92472E+03 -4.74602E+03 -1.39505E+04
  1.90589E+03 -1.82087E+03 -6.30504E+03  7.39978E+03 -1.80478E+04  5.21250E+03 -1.85338E+04 -8.45465E+03
 -1.16274E+04 -2.11090E+04  6.13484E+03 -2.47130E+04  1.72714E+04 -1.82074E+04  2.01204E+04 -1.81002E+03
  1.26080E+04  1.44257E+04 -1.20117E+03  2.08533E+04 -1.47528E+04  1.23717E+04 -2.13546E+04 -4.05010E+03
 -1.56554E+04 -1.89809E+04 -1.89522E+03 -2.51800E+04  1.07916E+04 -2.11387E+04  2.20666E+04 -1.08970E+04
  2.02049E+04 -2.27236E+02  1.39494E+04  4.55938E+03  6.89738E+03  1.10086E+03  1.13646E+04 -2.18802E+03
  1.96200E+04  2.53268E+03  2.23655E+04  1.64058E+04  1.49303E+04  3.37615E+04 -2.24848E+03  3.92218E+04
 -2.24033E+04  3.20163E+04 -3.71650E+04  1.63267E+04 -3.88247E+04 -3.40766E+03 -3.18954E+04 -2.22647E+04
 -1.33520E+04 -3.24317E+04  1.14364E+04 -2.89184E+04  2.43880E+04 -1.47768E+04  2.20608E+04  6.72183E+03
  7.74117E+03  1.68698E+04 -9.69646E+03  1.38294E+04 -1.76820E+04  2.78263E+03 -1.39751E+04 -1.16148E+04
  5.99249E+02 -1.76005E+04  9.21302E+03 -1.33944E+04  1.11088E+04 -9.98613E+02  3.33147E+03  8.41525E+03
 -8.07420E+03  2.98862E+03 -7.01665E+03 -6.12951E+03 -8.47959E+02 -1.59824E+04  1.10509E+04 -1.70856E+04
  1.99632E+04 -9.68214E+03  2.24547E+04  3.24629E+03  1.94268E+04  1.48768E+04  8.77818E+03  2.44765E+04
 -4.58338E+03  2.62768E+04 -1.73658E+04  1.64364E+04 -1.93196E+04  4.20329E+03 -1.30991E+04 -5.04026E+03
 -5.42012E+03 -6.10259E+03 -8.70458E+02  1.31815E+03 -3.18655E+03  3.10805E+03 -6.50814E+03  4.78842E+03
 -1.29077E+04 -8.28379E+02 -1.27296E+04 -1.07373E+04 -5.37401E+03 -1.65740E+04  5.32231E+03 -1.28725E+04
  1.07989E+04 -5.84650E+03  8.07796E+03  3.67294E+03 -3.07936E+02  5.12653E+03 -6.98135E+03 -8.13635E+02
 -6.35068E+03 -8.25874E+03 -8.83423E+02 -1.33782E+04  7.81171E+03 -1.38572E+04  1.77631E+04 -7.30769E+03
  1.95828E+04  1.49995E+03  1.47729E+04  1.20164E+04  3.13180E+03  1.53249E+04 -7.85620E+03  1.33358E+04
 -1.08877E+04  3.55943E+03 -5.57276E+03 -3.12811E+03  2.08896E+03 -3.28784E+03  7.64149E+03 -1.83821E+03
  6.81941E+03  5.60740E+03  1.11506E+03  1.01757E+04 -7.81617E+03  1.04224E+04 -1.29388E+04  3.22368E+03
 -8.87625E+03 -7.33935E+03 -4.24836E+02 -1.11836E+04  7.79895E+03 -5.67200E+03  7.51744E+03  2.72881E+03
  2.52848E+03  7.09174E+03 -7.08763E+03  9.42762E+03 -1.17404E+04  4.95713E+03 -1.16839E+04 -4.03618E+03
 -5.62015E+03 -1.21910E+04  3.55754E+03 -1.46803E+04  1.31870E+04 -9.18075E+03  1.36917E+04  2.74517E+03
  8.62123E+03  1.01606E+04 -1.31724E+03  1.38241E+04 -9.47365E+03  6.80117E+03 -9.96499E+03 -3.46763E+02
 -9.35891E+03 -9.34922E+03 -1.80263E+03 -9.57985E+03  5.04551E+03 -7.53591E+03  5.88314E+03 -3.26582E+03
  4.35863E+03  1.37192E+03 -7.90016E+02  2.23892E+03 -2.07269E+02 -2.11891E+03  1.77600E+03 -5.42099E+03
  9.16302E+03 -3.25135E+03  1.23628E+04  1.27394E+03  1.25866E+04  8.40363E+03  8.71560E+03  1.62411E+04
 -3.49700E+03  1.94579E+04 -1.64286E+04  1.45474E+04 -2.09391E+04  2.59227E+03 -1.66795E+04 -6.94386E+03
 -8.45181E+03 -1.41410E+04 -3.30270E+02 -1.16335E+04  3.93224E+03 -6.36651E+03  3.48908E+03 -3.41930E+03
  3.08957E+03 -2.62838E+03  3.58172E+03 -3.98579E+03  5.47329E+03 -2.87166E+03  6.75351E+03 -1.17431E+03
  9.01656E+03  2.62534E+03  3.90503E+03  8.16796E+03 -1.81753E+03  8.64098E+03 -9.90342E+03  6.67035E+03
 -1.14198E+04 -1.52658E+03 -6.69533E+03 -8.17758E+03 -6.40221E+02 -1.18183E+04  7.21856E+03 -1.19890E+04
  1.28401E+04 -7.13365E+03  1.52178E+04  2.99717E+03  1.09594E+04  1.05450E+04  2.51833E+03  1.39937E+04
 -5.80599E+03  1.13724E+04 -7.60903E+03  3.81434E+03 -5.74408E+03 -1.58751E+03 -2.56106E+03 -1.66098E+03
 -9.61564E+02 -4.12940E+02 -1.43453E+03  2.56392E+03 -4.74633E+03  1.60605E+03 -7.81564E+03 -1.18265E+03
 -5.55230E+03 -7.83023E+03  3.73976E+02 -1.12983E+04  6.94019E+03 -1.08432E+04  1.10972E+04 -3.36583E+03
  1.05015E+04  5.43126E+03  5.35913E+03  9.91169E+03 -2.44801E+03  1.15113E+04 -8.43590E+03  6.87747E+03
 -9.90567E+03  7.28318E+02 -8.19785E+03 -6.53440E+03 -8.87021E+02 -9.63290E+03  5.32004E+03 -7.46261E+03
  6.87536E+03 -2.18236E+03  4.45945E+03  2.30721E+03  1.87273E+03  3.96369E+03  1.67896E+03  1.32368E+03
  1.52809E+03  1.30287E+03  1.97510E+03  1.98892E+03  3.21853E+03  4.04702E+03  3.02924E+03  6.23804E+03
 -2.79951E+03  8.56402E+03 -8.15467E+03  9.58540E+03 -1.05400E+04  2.08075E+03 -1.14601E+04 -4.72733E+03
 -5.92365E+03 -1.12624E+04  1.61953E+03 -1.27520E+04  7.17564E+03 -7.72846E+03  9.23365E+03 -2.29444E+03
  6.86248E+03  4.15716E+03  1.17800E+03  5.86476E+03 -2.82984E+03  4.27531E+03 -4.29171E+03 -4.71764E+02
 -2.55443E+03 -4.50752E+03  3.34360E+03 -4.36651E+03  4.66877E+03 -2.46703E+03  4.54683E+03  6.56328E+02
  2.73593E+03  2.24156E+03  7.82596E+02  1.85809E+03 -3.83024E+02  1.96889E+03  1.61262E+03 -6.70411E+00
  1.30248E+03 -1.22718E+03  4.65650E+03  2.09419E+03  2.93514E+03  5.32079E+03 -1.00096E+03  8.20940E+03
 -5.38001E+03  4.77540E+03 -6.61039E+03  1.44895E+03 -6.74341E+03 -2.07784E+03 -2.94818E+03 -3.86975E+03
  4.05987E+02 -4.60733E+03  3.02677E+03 -1.94990E+03  2.44303E+03  2.72391E+03 -1.67193E+03  3.75787E+03
 -4.16675E+03  2.68678E+03 -4.92698E+03 -2.95058E+03 -2.57624E+03 -6.51819E+03  5.85431E+02 -5.55781E+03
  3.43254E+03 -3.57647E+03  4.00484E+03 -6.00136E+02  4.13229E+03  8.39575E+02  6.54575E+02  3.21789E+03
 -2.37785E+03  4.64282E+02 -2.66857E+03 -1.76573E+03  7.71576E+02 -4.78000E+03  5.86979E+03 -3.47198E+03
  6.12887E+03  4.50629E+02  7.27496E+03  4.80893E+03  1.94210E+03  7.16359E+03 -2.41418E+03  6.47325E+03
 -5.48717E+03  2.85744E+03 -5.72338E+03 -8.76720E+02 -2.93299E+03 -4.27594E+03  1.68208E+03 -3.84667E+03
  4.63154E+03 -1.72019E+03  3.50920E+03  1.89819E+03  1.71513E+03  4.22779E+03 -7.27559E+02  3.45342E+03
 -2.17728E+03  2.16091E+03 -1.80254E+03  7.19445E+02 -6.29839E+02  2.94200E+02 -1.33428E+03  1.95674E+03
 -1.84478E+03  3.04773E+03 -5.03295E+03  2.40942E+03 -7.07444E+03 -2.13589E+02 -8.30421E+03 -4.21681E+03
 -3.57098E+03 -9.45628E+03  1.68597E+03 -1.08820E+04  6.22457E+03 -8.34053E+03  1.05155E+04 -3.73075E+03
  1.01051E+04  2.45686E+03  6.16071E+03  6.73635E+03  2.80422E+02  7.44303E+03 -3.96679E+03  5.77425E+03
 -3.58153E+03  1.65483E+03 -3.02493E+03 -5.39007E+02 -9.44264E+02  3.04337E+02 -1.17519E+03  2.06122E+01
 -1.22675E+03 -6.07279E+01 -1.78045E+03 -5.24980E+02 -9.13600E+02 -1.93212E+03 -1.32914E+01 -3.62286E+03
  3.71439E+03 -2.59643E+03  4.73096E+03 -2.24440E+02  4.75489E+03  3.68768E+03  1.42404E+03  7.10812E+03
 -2.71533E+03  7.64582E+03 -7.16803E+03  4.19892E+03 -7.74666E+03 -1.00422E+03 -6.31753E+03 -5.00944E+03
 -2.99673E+03 -6.32142E+03  1.82848E+03 -7.03005E+03  4.98899E+03 -4.17319E+03  4.49817E+03 -5.70939E+01
  2.88416E+03  1.91381E+03  3.13761E+02  2.58202E+03 -1.40867E+03  2.10325E+02  7.59470E+02 -1.47399E+03
  2.35568E+03 -9.24299E+02  2.82529E+03  8.19054E+02  1.52186E+03  2.99874E+03  3.76773E+02  3.32035E+03
 -3.64167E+03  3.43140E+03 -4.29118E+03  9.39009E+02 -4.61616E+03 -3.13869E+03 -1.43150E+03 -5.45218E+03
  4.10773E+03 -5.34076E+03  4.88542E+03 -1.50945E+03  5.09268E+03  6.64980E+02  3.53287E+03  3.94451E+03
  9.73450E+02  4.66797E+03 -1.20363E+03  4.22781E+03 -3.09040E+03  1.54980E+03 -1.78447E+03  2.88030E+02
 -1.16705E+03 -5.92852E+02 -1.42932E+03  8.97974E+02 -2.45140E+03  1.17990E+03 -3.30337E+03 -7.38447E+02
 -3.96779E+03 -2.84781E+03 -9.85070E+02 -4.40935E+03  3.10677E+03 -4.46806E+03  3.70127E+03 -2.67673E+03
  4.95796E+03  6.61970E+02  2.08468E+03  3.04325E+03 -2.73266E+02  4.62853E+03 -2.88247E+03  2.50848E+03
