 $NMID ID='MM_0lb_SNR400_18hz_g50_21.RAW', FMTDAT='(8E13.5)'
 TRAMP=1., VOLUME=1. $END
  3.09664E+05  5.40033E+02  3.37001E+05  2.50657E+05  8.41654E+04  3.37513E+05 -1.32557E+05  2.50902E+05
 -1.89674E+05  8.23492E+04 -1.10996E+05 -3.22868E+04  1.86417E+03 -5.01587E+04  5.38288E+04  4.82768E+02
  3.54132E+04  5.24953E+04 -1.69682E+04  7.47789E+04 -6.03549E+04  6.28664E+04 -8.28460E+04  3.16595E+04
 -7.99426E+04 -1.09576E+04 -5.63591E+04 -5.02577E+04 -1.53700E+04 -6.81978E+04  2.68427E+04 -4.50616E+04
  3.91901E+04  4.10551E+03  1.55206E+04  4.71731E+04 -3.33591E+04  4.61244E+04 -6.56598E+04 -5.96046E+01
 -5.25781E+04 -5.64125E+04 -6.51790E+03 -7.56920E+04  3.35337E+04 -5.34445E+04  4.64350E+04 -1.65802E+04
  4.21165E+04  1.15286E+04  3.10221E+04  2.44957E+04  1.56815E+04  2.90436E+04 -4.58706E+03  2.71057E+04
 -2.19681E+04  1.28610E+04 -1.93226E+04 -3.84761E+03  4.77423E+03 -7.49640E+03  2.16560E+04  1.07235E+04
  7.27129E+03  3.31637E+04 -3.13353E+04  3.41519E+04 -6.14304E+04  1.93420E+03 -5.57801E+04 -4.17017E+04
 -1.14819E+04 -6.12779E+04  3.82903E+04 -4.34479E+04  5.61522E+04 -1.77746E+03  3.24341E+04  3.09116E+04
 -6.79019E+03  3.36636E+04 -2.91634E+04  1.39701E+04 -2.85268E+04 -5.09864E+03 -1.49937E+04 -1.00881E+04
 -8.03281E+03 -1.18164E+04 -8.43568E+02 -1.72653E+04  7.04057E+03 -2.31524E+04  1.54024E+04 -1.40563E+04
  1.22643E+04  4.40865E+03 -6.60051E+03  1.31193E+04 -1.95857E+04 -3.08289E+03 -8.09203E+03 -3.12480E+04
  2.15238E+04 -4.11870E+04  4.53072E+04 -1.90372E+04  4.25842E+04  1.85410E+04  1.46569E+04  4.19250E+04
 -1.54839E+04  3.11707E+04 -2.35596E+04  9.75431E+02 -9.01754E+03 -2.66345E+04  2.07472E+04 -3.18509E+04
  3.89951E+04 -7.70457E+03  3.21227E+04  2.30666E+04  1.60101E+04  4.32703E+04 -8.07782E+03  4.64934E+04
 -2.88284E+04  3.08960E+04 -3.83925E+04  8.67818E+03 -3.91271E+04 -1.52873E+04 -2.16844E+04 -3.46913E+04
  6.83367E+03 -3.50078E+04  3.00095E+04 -1.31003E+04  2.72456E+04  1.06214E+04  3.19890E+03  1.74617E+04
 -1.31668E+04  7.19592E+03 -9.94164E+03 -7.58196E+03  6.17389E+03 -9.74800E+03  1.74114E+04  6.28345E+03
  1.30736E+04  2.16599E+04 -6.79417E+03  2.35854E+04 -2.16964E+04  9.71338E+03 -2.54315E+04 -5.99491E+03
 -1.70674E+04 -1.64805E+04 -6.30009E+03 -1.77830E+04  4.43981E+03 -1.57240E+04  1.31973E+04 -1.57413E+04
  2.22883E+04 -1.19772E+04  2.83638E+04  1.75051E+03  2.17157E+04  1.73647E+04  4.03369E+03  3.30386E+04
 -1.61927E+04  2.82026E+04 -2.61374E+04  9.60521E+03 -2.02593E+04 -1.03417E+04 -3.76174E+03 -1.41223E+04
  2.59464E+03 -4.64149E+03 -3.24400E+03  6.31291E+03 -1.36375E+04  5.24401E+03 -1.45328E+04 -5.33365E+03
 -8.74341E+03 -1.60141E+04  4.57586E+03 -1.98201E+04  1.24361E+04 -1.46371E+04  1.53810E+04 -1.42922E+03
  9.57592E+03  1.08438E+04 -1.15618E+03  1.68756E+04 -1.08937E+04  9.17256E+03 -1.60547E+04 -3.40780E+03
 -1.19256E+04 -1.45467E+04 -1.39165E+03 -1.94924E+04  9.08746E+03 -1.60030E+04  1.67187E+04 -7.46589E+03
  1.49103E+04  4.55827E+02  1.08288E+04  3.67065E+03  5.36174E+03  6.67573E+02  8.17960E+03 -1.39153E+03
  1.44259E+04  2.65782E+03  1.55137E+04  1.33712E+04  9.60407E+03  2.57606E+04 -2.35504E+03  2.83180E+04
 -1.65609E+04  2.17258E+04 -2.58430E+04  1.06609E+04 -2.63531E+04 -1.64667E+03 -2.17605E+04 -1.49578E+04
 -1.03196E+04 -2.17241E+04  7.73254E+03 -1.99847E+04  1.75193E+04 -1.18610E+04  1.69456E+04  4.52650E+03
  6.84681E+03  1.15270E+04 -7.21664E+03  1.06482E+04 -1.41288E+04  2.36719E+03 -1.05528E+04 -8.41995E+03
 -3.88956E+02 -1.28863E+04  6.42854E+03 -9.44980E+03  8.12397E+03 -1.08223E+03  1.32886E+03  5.37857E+03
 -5.93897E+03  1.59190E+03 -4.36532E+03 -4.88111E+03  2.67970E+02 -1.08022E+04  8.14874E+03 -1.07194E+04
  1.34668E+04 -5.17442E+03  1.27295E+04  3.09774E+03  1.13809E+04  1.07345E+04  5.41430E+03  1.51961E+04
 -1.62719E+03  1.67914E+04 -1.07085E+04  1.00247E+04 -1.19766E+04  2.26713E+03 -8.88470E+03 -2.18675E+03
 -4.98525E+03 -3.35863E+03 -6.62483E+02  1.45417E+03 -2.23634E+03  1.78952E+03 -3.67793E+03  3.50671E+03
 -8.96702E+03 -4.36014E+02 -9.60563E+03 -7.78790E+03 -3.35424E+03 -1.15517E+04  3.54730E+03 -8.79831E+03
  7.16771E+03 -4.02352E+03  5.87202E+03  2.35089E+03  4.24395E+02  3.54983E+03 -3.31027E+03  3.58619E+02
 -3.95851E+03 -5.54125E+03 -6.99962E+02 -8.06909E+03  3.91433E+03 -8.55291E+03  1.06540E+04 -3.42423E+03
  1.21505E+04  9.22426E+02  9.25389E+03  6.26402E+03  1.64053E+03  9.07424E+03 -5.31377E+03  8.09152E+03
 -7.57824E+03  3.16959E+03 -4.11133E+03 -1.63025E+03  1.58968E+03 -2.07743E+03  4.99822E+03 -1.60896E+03
  4.68746E+03  3.75403E+03  1.52232E+03  6.50199E+03 -4.54333E+03  6.62278E+03 -8.41698E+03  1.03203E+03
 -5.33540E+03 -3.99170E+03  3.88803E+02 -7.24047E+03  4.30998E+03 -3.16624E+03  4.63316E+03  7.85972E+02
  8.22604E+02  3.52848E+03 -4.53986E+03  5.14253E+03 -6.03829E+03  2.40200E+03 -5.20618E+03 -1.07633E+03
 -2.98489E+03 -6.28091E+03  5.92116E+02 -7.20926E+03  6.35422E+03 -4.84047E+03  7.30185E+03  9.42056E+02
  4.70753E+03  5.81266E+03  2.52473E+01  7.70801E+03 -4.93297E+03  4.57919E+03 -5.59817E+03 -3.43780E+02
 -6.15627E+03 -5.47436E+03 -1.61132E+03 -4.81902E+03  2.59766E+03 -4.15144E+03  3.57539E+03 -3.25401E+03
  2.82397E+03  2.08282E+01 -3.61932E+01  1.58806E+03  7.59868E+02 -8.06281E+02  3.10700E+01 -1.81275E+03
  3.97202E+03 -1.40114E+03  5.77684E+03  8.78179E+02  6.00328E+03  3.62135E+03  5.52718E+03  8.15452E+03
 -1.56120E+03  9.14408E+03 -7.87849E+03  6.86871E+03 -1.05796E+04  1.40775E+03 -8.20183E+03 -3.14764E+03
 -4.53634E+03 -6.99680E+03 -6.15807E+02 -5.59710E+03  2.16816E+03 -2.33302E+03  2.40965E+03 -2.84117E+03
  1.25764E+03 -1.77407E+03  1.85908E+03 -2.67606E+03  3.66436E+03 -1.13700E+03  3.60566E+03  1.56754E+02
  4.86685E+03  1.33082E+03  1.30648E+03  3.27886E+03 -1.35348E+03  3.28672E+03 -3.98402E+03  3.12535E+03
 -5.61481E+03 -1.20604E+03 -1.79948E+03 -3.63454E+03  5.42084E+02 -5.17681E+03  3.09214E+03 -5.96007E+03
  5.51849E+03 -3.15195E+03  7.00863E+03  3.47849E+02  5.51990E+03  4.70612E+03  1.23450E+03  6.66924E+03
 -2.07909E+03  5.87026E+03 -3.66173E+03  2.12152E+03 -2.33426E+03 -1.28752E+03 -6.23839E+02 -9.02657E+02
 -8.82563E+02  6.28993E+02 -1.08824E+03  1.87666E+03 -2.49419E+03  6.70447E+02 -4.22520E+03 -1.06542E+03
 -1.40410E+03 -3.59682E+03  4.65118E+02 -5.59693E+03  2.89763E+03 -5.28378E+03  3.50837E+03 -1.41339E+03
  4.30973E+03  2.74867E+03  1.98200E+03  3.74378E+03 -8.89587E+02  4.76636E+03 -2.91618E+03  3.03430E+03
 -4.08127E+03 -1.33222E+02 -3.62868E+03 -2.61940E+03 -2.13794E+02 -3.51560E+03  1.63918E+03 -3.18174E+03
  2.81130E+03 -1.45547E+03  1.30590E+03  1.18611E+02  4.68183E+02  1.40945E+03  5.04275E+02  5.35956E+02
  1.64346E+03  6.47271E+02  1.25662E+03  1.80183E+03  1.53970E+03  2.78558E+03  1.39252E+03  1.74199E+03
 -1.36803E+03  3.07596E+03 -3.13382E+03  4.10909E+03 -3.11017E+03  8.25149E+02 -4.30737E+03 -7.43073E+02
 -2.31304E+03 -3.73906E+03  6.95593E+02 -5.17041E+03  2.54101E+03 -2.76803E+03  3.15182E+03 -1.24657E+03
  2.85103E+03  1.96740E+03  4.34391E+02  1.83293E+03 -7.79326E+02  1.48481E+03 -1.14327E+03  8.37482E+01
 -9.75539E+02 -2.04741E+03  1.42552E+03 -1.65549E+03  1.31889E+03 -1.52464E+03  1.69350E+03  2.86250E+02
  9.41373E+02  1.84334E+02  6.39648E+02 -3.18131E+02 -1.78926E+01  1.74069E+01  1.16943E+03 -6.46314E+02
  5.03689E+02 -7.67811E+01  2.11710E+03  6.27950E+02  4.25555E+02  2.53184E+03 -5.99040E+02  3.30513E+03
 -1.66616E+03  1.31100E+03 -1.88153E+03  2.68288E+02 -1.72127E+03 -1.42955E+03 -5.42402E+01 -1.32054E+03
  8.30169E+02 -1.20483E+03  6.66149E+02 -1.24583E+03  4.60477E+02  1.57666E+03 -1.05365E+03  1.63091E+03
 -1.30098E+03  8.71574E+02 -1.86496E+03 -1.40719E+03 -5.92741E+02 -2.45080E+03  6.01950E+02 -2.08526E+03
  5.64146E+02 -9.18137E+02  8.89041E+02  7.77657E+01  1.19455E+03  3.01661E+02  2.65149E+02  1.40545E+03
 -6.99151E+02  6.46080E+01 -1.62134E+03 -1.34475E+02  6.65059E+02 -6.55049E+02  1.87833E+03 -9.64345E+02
  1.66246E+03  3.49737E+02  2.59828E+03  9.69756E+02  8.76501E+02  1.62132E+03 -8.88671E+02  2.02958E+03
 -1.40067E+03  3.70354E+02 -1.37774E+03 -2.23057E+02 -1.31905E+03 -1.10380E+03  1.38379E+02 -7.96556E+02
  1.42658E+03 -5.00022E+02  9.76788E+02  8.55492E+02  2.18720E+02  9.65794E+02  3.86318E+02  1.08249E+03
 -9.44454E+02  1.83383E+03 -1.73600E+02 -5.12988E+00  1.09718E+02  5.39323E+02 -5.10410E+02  2.88219E+02
 -8.14518E+02  1.12609E+03 -2.25743E+03  5.01391E+02 -1.71825E+03  6.77134E+02 -2.64544E+03 -9.77958E+02
 -6.09782E+02 -2.98721E+03  7.43065E+02 -2.94315E+03  9.70480E+02 -1.98107E+03  2.82049E+03 -8.63717E+02
  2.55201E+03 -3.02838E+02  1.28055E+03  1.79496E+03 -8.57537E+02  2.11660E+03 -3.72087E+02  1.50393E+03
 -9.02855E+02  4.57370E+02 -6.54352E+02 -3.36293E+02 -4.69240E+02 -1.58579E+02 -7.42100E+02 -2.15077E+02
 -1.10421E+03 -1.05867E+02 -1.41456E+03 -4.36498E+02  1.26435E+02 -8.02126E+02  2.74092E+02 -9.08221E+02
  1.31140E+03 -7.02180E+02  5.99179E+02  7.39921E+02  1.26580E+03  1.12884E+03 -5.06455E+02  1.38076E+03
 -8.71851E+02  1.93570E+03 -1.59915E+03  1.84108E+03 -1.43172E+03  3.53190E+00 -1.17824E+03 -1.00038E+03
 -1.11737E+03 -1.97117E+03  3.22637E+02 -7.95538E+02  1.01175E+03 -4.58739E+02  9.90949E+02  1.91240E+02
  1.17979E+03  3.62695E+02  5.57826E+02  5.60816E+02 -6.36335E+02 -1.03433E+02 -2.28858E+02 -6.08953E+02
  7.24040E+02  1.83792E+02 -2.04768E+02  3.01592E+02  2.12046E+02  9.47808E+02  6.09779E+02  3.13337E+02
 -9.37176E+02  8.11956E+02 -8.84099E+02 -3.39039E+02 -9.70055E+02 -5.91685E+02  3.04271E+02 -1.13935E+03
  7.91397E+02 -9.02528E+02  3.92529E+02  6.82765E+01  8.96035E+02 -3.32837E+02  2.16838E+02  9.57676E+02
 -2.61624E+01  5.57205E+02 -1.48832E+01  5.34616E+02 -7.90018E+02  8.16988E+02 -3.46382E+02  1.95226E+02
 -7.07054E+01  4.58649E+01 -5.05852E+02  2.02649E+02 -6.02741E+02  2.90699E+02 -5.69947E+02 -6.91153E+02
 -4.41989E+02  3.52181E+02 -5.77643E+02 -1.50631E+03  9.65014E+02 -9.68814E+02  8.34380E+02 -1.15895E+02
  1.08711E+03  1.58126E+02 -5.40512E+02  5.91984E+02 -9.93372E+01  6.86206E+02 -7.63387E+02  4.48673E+02
