 $NMID ID='MM_0lb_SNR400_11hz_g60_43.RAW', FMTDAT='(8E13.5)'
 TRAMP=1., VOLUME=1. $END
  3.10010E+05  2.16402E+02  3.37619E+05  2.50946E+05  8.50559E+04  3.38620E+05 -1.32084E+05  2.51384E+05
 -1.90755E+05  8.31055E+04 -1.12151E+05 -3.27773E+04  1.54262E+02 -5.04659E+04  5.47223E+04 -7.79646E+02
  3.60302E+04  5.29923E+04 -1.68796E+04  7.53984E+04 -6.20766E+04  6.47386E+04 -8.54600E+04  3.21339E+04
 -8.18798E+04 -1.12310E+04 -5.80096E+04 -5.15999E+04 -1.46802E+04 -7.09733E+04  2.81008E+04 -4.58246E+04
  4.12266E+04  3.88211E+03  1.70597E+04  4.88509E+04 -3.40068E+04  4.69737E+04 -6.82359E+04 -2.22560E+02
 -5.50586E+04 -5.75333E+04 -7.75662E+03 -7.91124E+04  3.44510E+04 -5.68012E+04  4.98207E+04 -1.76853E+04
  4.49416E+04  1.13253E+04  3.33748E+04  2.61605E+04  1.57130E+04  3.04488E+04 -6.28889E+03  2.72940E+04
 -2.24841E+04  1.19413E+04 -1.82274E+04 -5.43193E+03  6.31803E+03 -7.15039E+03  2.29597E+04  1.43190E+04
  7.91579E+03  3.76084E+04 -3.30794E+04  3.66345E+04 -6.55763E+04  2.33894E+03 -5.83338E+04 -4.47904E+04
 -1.28619E+04 -6.48482E+04  4.06231E+04 -4.71887E+04  6.10442E+04 -2.53187E+03  3.59040E+04  3.43350E+04
 -4.78833E+03  3.94256E+04 -3.12159E+04  1.85622E+04 -3.31348E+04 -3.42642E+03 -1.85625E+04 -1.22177E+04
 -9.82414E+03 -1.50958E+04 -2.92850E+02 -2.06135E+04  8.86915E+03 -2.29422E+04  1.62644E+04 -1.29074E+04
  1.08786E+04  6.74680E+03 -9.71098E+03  1.26704E+04 -2.32336E+04 -6.01163E+03 -8.26678E+03 -3.65282E+04
  2.48106E+04 -4.64267E+04  5.23888E+04 -2.07597E+04  4.78302E+04  2.04011E+04  1.68920E+04  4.68565E+04
 -1.68678E+04  3.51542E+04 -2.71510E+04  2.26456E+03 -1.10910E+04 -2.92123E+04  2.20331E+04 -3.60327E+04
  4.48100E+04 -1.07136E+04  3.93038E+04  2.52222E+04  2.09661E+04  5.06229E+04 -8.41408E+03  5.49159E+04
 -3.46907E+04  3.78796E+04 -4.68710E+04  1.14760E+04 -4.63265E+04 -1.84834E+04 -2.60179E+04 -4.18289E+04
  8.35124E+03 -4.19368E+04  3.38464E+04 -1.69128E+04  3.17319E+04  1.05160E+04  5.50668E+03  2.06746E+04
 -1.36786E+04  9.90112E+03 -1.04985E+04 -6.98814E+03  5.94300E+03 -1.14753E+04  1.85947E+04  5.25544E+03
  1.44588E+04  2.27736E+04 -5.13602E+03  2.62066E+04 -2.40416E+04  1.36533E+04 -3.00953E+04 -2.79293E+03
 -2.49877E+04 -1.81285E+04 -1.13283E+04 -2.39724E+04  4.21136E+03 -2.45633E+04  1.93797E+04 -2.26954E+04
  3.06081E+04 -1.39503E+04  3.71662E+04  4.47186E+03  2.60586E+04  2.37655E+04  4.49270E+03  4.07136E+04
 -1.91636E+04  3.35742E+04 -3.05752E+04  1.21610E+04 -2.21282E+04 -9.76350E+03 -4.69680E+03 -1.34727E+04
  9.98228E+02 -8.89905E+02 -6.65158E+03  7.90105E+03 -1.96719E+04  4.87133E+03 -1.95517E+04 -1.01695E+04
 -1.16944E+04 -2.27227E+04  5.54683E+03 -2.68007E+04  1.76835E+04 -1.93944E+04  2.19239E+04 -1.65824E+03
  1.37816E+04  1.62015E+04 -1.75107E+03  2.21420E+04 -1.56006E+04  1.35606E+04 -2.26932E+04 -4.41383E+03
 -1.63500E+04 -2.00879E+04 -2.31865E+03 -2.66378E+04  1.25129E+04 -2.24309E+04  2.20545E+04 -1.12226E+04
  2.12257E+04 -1.47395E+02  1.50681E+04  4.62295E+03  8.36567E+03  1.11045E+03  1.16350E+04 -1.42618E+03
  2.09122E+04  3.86085E+03  2.44837E+04  1.79045E+04  1.62746E+04  3.61535E+04 -2.34841E+03  4.19054E+04
 -2.39511E+04  3.59682E+04 -4.06529E+04  1.80580E+04 -4.28381E+04 -3.43618E+03 -3.45756E+04 -2.50038E+04
 -1.43043E+04 -3.53023E+04  1.30580E+04 -3.06559E+04  2.62632E+04 -1.48821E+04  2.32697E+04  7.11421E+03
  8.76834E+03  1.84742E+04 -1.04126E+04  1.51686E+04 -1.95562E+04  2.53882E+03 -1.43086E+04 -1.28449E+04
 -5.67413E+02 -1.90183E+04  9.13966E+03 -1.37785E+04  1.27508E+04 -4.05497E+02  3.21345E+03  7.09405E+03
 -8.54247E+03  4.46981E+03 -9.24135E+03 -6.53787E+03 -2.17061E+03 -1.72830E+04  1.18028E+04 -1.84329E+04
  2.09722E+04 -1.01483E+04  2.35558E+04  3.47884E+03  2.24877E+04  1.73536E+04  1.02483E+04  2.77316E+04
 -4.75635E+03  2.92410E+04 -1.92727E+04  1.83494E+04 -2.13125E+04  3.72695E+03 -1.48039E+04 -4.99331E+03
 -5.90297E+03 -6.54322E+03 -2.36497E+02  7.23530E+02 -2.77390E+03  3.33284E+03 -7.18917E+03  5.88687E+03
 -1.32514E+04 -1.20828E+03 -1.36085E+04 -1.07020E+04 -6.06575E+03 -1.82408E+04  5.86338E+03 -1.46518E+04
  1.21016E+04 -6.42298E+03  8.55271E+03  3.95296E+03 -3.96487E+02  5.53038E+03 -7.36872E+03 -3.05555E+02
 -7.25746E+03 -9.16848E+03 -1.25134E+03 -1.40814E+04  8.20465E+03 -1.47904E+04  1.86783E+04 -8.50747E+03
  2.16005E+04  2.19796E+03  1.61319E+04  1.36665E+04  3.04947E+03  1.73403E+04 -9.41436E+03  1.45442E+04
 -1.15002E+04  3.99060E+03 -6.26939E+03 -3.27625E+03  1.31915E+03 -4.51282E+03  8.03516E+03 -1.19147E+03
  7.06359E+03  6.29514E+03  7.24642E+02  1.15692E+04 -8.18520E+03  1.17968E+04 -1.48129E+04  2.67218E+03
 -1.03460E+04 -7.36792E+03 -1.54026E+02 -1.30835E+04  7.43970E+03 -6.09370E+03  8.27165E+03  3.41826E+03
  1.76603E+03  8.85638E+03 -7.80283E+03  1.01526E+04 -1.21232E+04  4.67212E+03 -1.21142E+04 -4.26170E+03
 -7.54147E+03 -1.31305E+04  3.83518E+03 -1.68267E+04  1.37051E+04 -1.01473E+04  1.57309E+04  2.77936E+03
  8.43549E+03  1.25314E+04 -1.32701E+03  1.49393E+04 -1.03210E+04  8.31511E+03 -1.17218E+04 -1.44719E+03
 -9.82794E+03 -9.63798E+03 -2.28050E+03 -1.07553E+04  6.78703E+03 -8.45663E+03  6.73297E+03 -3.52098E+03
  4.54187E+03  2.29467E+03 -6.77549E+02  1.62751E+03 -8.18100E+02 -3.28055E+03  2.42446E+03 -6.31984E+03
  1.00737E+04 -4.88817E+03  1.42418E+04  6.48474E+02  1.37268E+04  1.02282E+04  9.20641E+03  1.90272E+04
 -4.12943E+03  2.14777E+04 -1.80215E+04  1.55504E+04 -2.27735E+04  2.05119E+03 -1.89198E+04 -7.68634E+03
 -8.83311E+03 -1.53075E+04 -4.75287E+02 -1.33174E+04  4.78748E+03 -7.07752E+03  4.25026E+03 -4.96565E+03
  2.73508E+03 -2.41665E+03  3.70021E+03 -3.72216E+03  5.30784E+03 -2.97305E+03  7.20039E+03 -1.20079E+03
  9.98141E+03  2.72238E+03  5.41343E+03  8.33564E+03 -2.05505E+03  9.70308E+03 -1.03525E+04  7.19424E+03
 -1.28294E+04 -1.59196E+03 -8.19218E+03 -9.15325E+03 -6.68903E+02 -1.37804E+04  7.06714E+03 -1.47606E+04
  1.50568E+04 -8.03831E+03  1.66910E+04  2.46518E+03  1.16573E+04  1.21838E+04  1.23616E+03  1.56457E+04
 -6.54317E+03  1.29519E+04 -8.80260E+03  4.31920E+03 -5.66350E+03 -1.66552E+03 -2.61574E+03 -1.53944E+03
 -1.48852E+03  2.52872E+02 -2.48624E+03  2.67206E+03 -5.23890E+03  2.48049E+03 -9.11873E+03 -1.21184E+03
 -5.59639E+03 -9.04478E+03 -5.46825E+02 -1.26716E+04  7.83641E+03 -1.22163E+04  1.28711E+04 -3.83770E+03
  1.29376E+04  6.51100E+03  6.66704E+03  1.11194E+04 -2.56471E+03  1.23884E+04 -1.00977E+04  8.68347E+03
 -1.16296E+04  6.28626E+02 -9.27430E+03 -7.64163E+03 -7.38479E+02 -1.09633E+04  5.76700E+03 -8.05053E+03
  7.74587E+03 -2.82136E+03  5.73496E+03  2.64680E+03  2.15737E+03  3.03870E+03  3.74417E+02  1.58146E+03
  2.64279E+03  9.75258E+02  3.26410E+03  1.20436E+03  3.67556E+03  3.80814E+03  2.65038E+03  7.10868E+03
 -2.72638E+03  1.01288E+04 -9.12073E+03  1.05979E+04 -1.28606E+04  2.40325E+03 -1.30165E+04 -5.49399E+03
 -6.48682E+03 -1.29738E+04  1.61256E+03 -1.41059E+04  7.64258E+03 -8.65128E+03  1.05798E+04 -2.76053E+03
  7.86939E+03  4.66937E+03  1.96228E+03  7.44033E+03 -3.68962E+03  4.57507E+03 -4.89646E+03 -6.33321E+02
 -2.59689E+03 -5.42303E+03  2.24356E+03 -4.46721E+03  5.09674E+03 -2.47253E+03  5.45307E+03  1.04823E+03
  2.63974E+03  2.96599E+03  1.39626E+03  1.67848E+03 -8.45006E+02  1.11785E+03  1.46465E+03 -3.78729E+02
  1.84123E+03 -4.59058E+02  5.14285E+03  1.54206E+03  3.15195E+03  6.34009E+03 -7.66632E+02  8.20346E+03
 -6.08262E+03  5.49492E+03 -7.65948E+03  1.81872E+03 -7.34227E+03 -3.16575E+03 -2.36578E+03 -4.48796E+03
  5.60034E+02 -4.74891E+03  2.50440E+03 -2.72215E+03  2.28243E+03  2.40393E+03 -1.55347E+03  3.50938E+03
 -5.27956E+03  2.44564E+03 -5.93181E+03 -2.39991E+03 -3.51603E+03 -7.31211E+03  8.80212E+02 -7.27528E+03
  4.00511E+03 -4.55311E+03  4.15285E+03 -1.97287E+02  4.40096E+03  1.08423E+03  1.51576E+03  3.99462E+03
 -1.96580E+03  1.05531E+03 -3.53918E+03 -1.90354E+03  1.13208E+03 -4.16790E+03  6.05339E+03 -4.62906E+03
  7.66509E+03  7.60211E+02  7.94009E+03  4.78329E+03  2.55810E+03  7.30558E+03 -3.13325E+03  7.93354E+03
 -6.25381E+03  3.20034E+03 -6.85788E+03 -4.07911E+02 -3.28855E+03 -5.48765E+03  1.67679E+03 -4.86792E+03
  5.21579E+03 -2.92846E+03  4.30533E+03  2.62076E+03  1.57347E+03  5.15421E+03 -9.42344E+02  3.47152E+03
 -1.74074E+03  3.38289E+03 -1.68999E+03  9.33571E+02 -1.15976E+03  6.49617E+02 -1.08269E+03  1.98988E+03
 -2.25311E+03  3.15665E+03 -5.59264E+03  2.76832E+03 -7.03759E+03  3.78011E+02 -8.71772E+03 -4.94521E+03
 -4.13076E+03 -9.85542E+03  2.26018E+03 -1.22613E+04  7.10359E+03 -9.27580E+03  1.09873E+04 -2.75004E+03
  1.07507E+04  1.14853E+03  7.17408E+03  7.20207E+03  6.41112E+02  8.08479E+03 -3.73793E+03  6.92684E+03
 -4.27268E+03  1.51085E+03 -2.64880E+03 -1.00187E+03 -1.52235E+03 -7.16334E+02 -3.76409E+02  5.94011E+01
 -2.17850E+03  7.21923E+02 -1.92232E+03 -8.52152E+02 -6.12614E+02 -2.60453E+03  1.58724E+02 -3.32004E+03
  3.40430E+03 -2.39781E+03  5.28642E+03 -5.88909E+02  5.56445E+03  3.91953E+03  9.25462E+02  8.24549E+03
 -4.60291E+03  9.37243E+03 -8.33862E+03  5.39561E+03 -9.24383E+03 -3.80787E+02 -7.40828E+03 -6.07022E+03
 -2.52243E+03 -7.95411E+03  1.84421E+03 -6.96866E+03  4.88269E+03 -4.01468E+03  4.25774E+03  1.16872E+02
  2.64614E+03  2.52224E+03 -4.57518E+01  2.62307E+03 -1.39290E+03 -4.60633E+02  5.18360E+00 -1.25807E+03
  2.22121E+03 -5.23297E+02  2.54998E+03  1.33338E+03  2.31621E+03  2.60214E+03  4.09341E+02  3.82447E+03
 -3.00896E+03  3.81302E+03 -4.97366E+03 -4.01267E+02 -4.23918E+03 -3.82465E+03 -7.93372E+02 -5.48895E+03
  3.79106E+03 -5.06649E+03  5.26995E+03 -1.41197E+03  5.89656E+03  1.30220E+03  2.92250E+03  5.14608E+03
  7.31126E+02  4.59421E+03 -2.06277E+03  3.59546E+03 -3.10449E+03  1.89899E+03 -2.52052E+03  3.71286E+02
 -1.59573E+03 -7.56244E+02 -1.03491E+03  8.48947E+02 -2.52982E+03  5.25326E+02 -3.59265E+03 -3.76193E+02
 -3.41048E+03 -2.84460E+03 -1.30823E+03 -5.37990E+03  2.26003E+03 -5.47597E+03  4.76625E+03 -2.78421E+03
  4.61820E+03  4.28587E+02  2.05930E+03  3.52088E+03 -4.52577E+02  5.51195E+03 -3.57647E+03  3.34493E+03
