 $NMID ID='MM_0lb_SNR400_11hz_g55_67.RAW', FMTDAT='(8E13.5)'
 TRAMP=1., VOLUME=1. $END
  3.10238E+05  4.11996E+02  3.37777E+05  2.50469E+05  8.38663E+04  3.38968E+05 -1.32444E+05  2.51808E+05
 -1.91237E+05  8.36310E+04 -1.12932E+05 -3.27825E+04 -4.94524E+02 -5.04004E+04  5.36674E+04 -1.24484E+02
  3.55140E+04  5.35957E+04 -1.65617E+04  7.57959E+04 -6.12354E+04  6.30914E+04 -8.52487E+04  3.25225E+04
 -8.25663E+04 -1.17544E+04 -5.83485E+04 -5.13109E+04 -1.47455E+04 -7.07314E+04  2.82216E+04 -4.70951E+04
  4.12369E+04  3.84924E+03  1.67636E+04  4.77199E+04 -3.40844E+04  4.83084E+04 -6.78512E+04  1.57520E+02
 -5.45722E+04 -5.76033E+04 -6.84846E+03 -7.83526E+04  3.44344E+04 -5.54403E+04  4.99029E+04 -1.81836E+04
  4.46488E+04  1.20058E+04  3.28034E+04  2.58059E+04  1.57924E+04  3.02248E+04 -5.87265E+03  2.70704E+04
 -2.22577E+04  1.13787E+04 -1.80204E+04 -5.27722E+03  6.66098E+03 -7.11095E+03  2.35581E+04  1.34188E+04
  7.21874E+03  3.77354E+04 -3.35136E+04  3.71775E+04 -6.58766E+04  2.53279E+03 -5.78768E+04 -4.41099E+04
 -1.29991E+04 -6.55108E+04  4.06071E+04 -4.75668E+04  6.02202E+04 -2.90685E+03  3.59118E+04  3.29442E+04
 -5.14663E+03  3.86177E+04 -3.11913E+04  1.75842E+04 -3.28907E+04 -3.46691E+03 -1.87533E+04 -1.20705E+04
 -9.16534E+03 -1.46680E+04 -1.09013E+03 -1.95680E+04  8.35682E+03 -2.30375E+04  1.67087E+04 -1.22837E+04
  1.02878E+04  5.52693E+03 -1.06645E+04  1.27333E+04 -2.29980E+04 -6.42259E+03 -8.68272E+03 -3.66142E+04
  2.45239E+04 -4.60329E+04  5.15210E+04 -2.08144E+04  4.83079E+04  2.09383E+04  1.62954E+04  4.61723E+04
 -1.64141E+04  3.54827E+04 -2.67553E+04  2.79654E+03 -1.14564E+04 -2.96050E+04  2.09835E+04 -3.60930E+04
  4.38293E+04 -1.01100E+04  3.88609E+04  2.40247E+04  2.01935E+04  5.02590E+04 -7.82820E+03  5.45789E+04
 -3.43439E+04  3.71367E+04 -4.61935E+04  1.03363E+04 -4.59186E+04 -1.77990E+04 -2.55606E+04 -4.10221E+04
  7.56225E+03 -4.11506E+04  3.35984E+04 -1.63739E+04  3.10389E+04  1.19608E+04  4.70964E+03  1.99601E+04
 -1.43014E+04  9.49621E+03 -1.05538E+04 -7.05021E+03  5.31335E+03 -1.13313E+04  1.77346E+04  5.52480E+03
  1.42491E+04  2.31195E+04 -5.60937E+03  2.71415E+04 -2.35911E+04  1.36082E+04 -3.09697E+04 -3.70192E+03
 -2.38115E+04 -1.78479E+04 -1.06215E+04 -2.38627E+04  4.46935E+03 -2.34881E+04  1.93604E+04 -2.16987E+04
  3.11470E+04 -1.38796E+04  3.63406E+04  4.66661E+03  2.59198E+04  2.34239E+04  4.69182E+03  3.95661E+04
 -1.95888E+04  3.32016E+04 -3.03419E+04  1.12591E+04 -2.10500E+04 -1.01455E+04 -5.51016E+03 -1.35485E+04
  1.69127E+03 -1.82698E+03 -6.72534E+03  8.52606E+03 -1.91304E+04  5.29666E+03 -1.90886E+04 -8.75665E+03
 -1.15457E+04 -2.22691E+04  5.66424E+03 -2.64610E+04  1.75231E+04 -1.90662E+04  2.18008E+04 -1.92325E+03
  1.41532E+04  1.57529E+04 -1.10686E+03  2.14271E+04 -1.57406E+04  1.28711E+04 -2.23675E+04 -3.98534E+03
 -1.57053E+04 -1.98670E+04 -1.84350E+03 -2.58280E+04  1.16654E+04 -2.15494E+04  2.17113E+04 -1.10587E+04
  2.04618E+04  2.11140E+02  1.53227E+04  4.86890E+03  8.66317E+03  1.07461E+03  1.12394E+04 -1.21602E+03
  2.06752E+04  2.75547E+03  2.34399E+04  1.78302E+04  1.62604E+04  3.57989E+04 -2.45464E+03  4.08133E+04
 -2.32814E+04  3.44522E+04 -3.90775E+04  1.76035E+04 -4.13338E+04 -3.13873E+03 -3.38268E+04 -2.46297E+04
 -1.31395E+04 -3.38515E+04  1.17090E+04 -2.94153E+04  2.60198E+04 -1.44644E+04  2.25045E+04  7.02982E+03
  8.19745E+03  1.67434E+04 -1.12110E+04  1.46122E+04 -1.91441E+04  2.07099E+03 -1.42154E+04 -1.19953E+04
 -6.12947E+02 -1.83231E+04  9.46340E+03 -1.38302E+04  1.16710E+04 -1.13869E+03  2.37684E+03  7.85085E+03
 -8.17410E+03  3.45389E+03 -7.95254E+03 -6.16954E+03 -1.92387E+03 -1.65966E+04  1.06529E+04 -1.86641E+04
  2.08650E+04 -9.53237E+03  2.38312E+04  3.03956E+03  2.08372E+04  1.61719E+04  1.06884E+04  2.60725E+04
 -5.04799E+03  2.82143E+04 -1.81335E+04  1.76888E+04 -2.07072E+04  3.97940E+03 -1.36140E+04 -5.15404E+03
 -5.36727E+03 -6.78792E+03 -6.73157E+02  1.95859E+02 -2.43369E+03  3.45216E+03 -7.44429E+03  4.81247E+03
 -1.29430E+04 -2.40629E+02 -1.41283E+04 -1.03070E+04 -5.77307E+03 -1.75411E+04  6.52078E+03 -1.43552E+04
  1.20774E+04 -5.84873E+03  8.86405E+03  3.43715E+03  3.23407E+02  5.33401E+03 -6.97218E+03 -7.16963E+02
 -7.21146E+03 -8.92274E+03 -1.58710E+03 -1.36338E+04  8.32851E+03 -1.49475E+04  1.74436E+04 -8.03408E+03
  2.10820E+04  1.89833E+03  1.53252E+04  1.25787E+04  2.29272E+03  1.70360E+04 -7.89084E+03  1.35094E+04
 -1.19311E+04  4.12872E+03 -6.82610E+03 -2.65124E+03  2.09935E+03 -4.59724E+03  7.11597E+03 -9.50633E+02
  7.09227E+03  5.73050E+03  1.18840E+03  1.10804E+04 -7.88332E+03  1.17392E+04 -1.51100E+04  3.02316E+03
 -9.40315E+03 -7.28938E+03  3.99015E+02 -1.21922E+04  8.00718E+03 -6.54351E+03  7.89965E+03  2.52208E+03
  1.13652E+03  9.65734E+03 -7.38037E+03  1.00105E+04 -1.17352E+04  5.70284E+03 -1.21311E+04 -4.53242E+03
 -7.29373E+03 -1.35187E+04  3.69673E+03 -1.53867E+04  1.32076E+04 -9.45064E+03  1.47404E+04  1.97323E+03
  8.90110E+03  1.15539E+04 -1.20935E+03  1.44532E+04 -1.02129E+04  8.45615E+03 -1.18203E+04 -1.42510E+03
 -9.34290E+03 -8.87517E+03 -1.53898E+03 -1.02010E+04  5.59886E+03 -8.51712E+03  7.15393E+03 -3.00034E+03
  4.74852E+03  1.09368E+03  7.57493E+01  2.00521E+03 -1.45979E+02 -1.97334E+03  1.83329E+03 -6.32980E+03
  9.89000E+03 -3.47431E+03  1.33520E+04  1.81734E+03  1.43286E+04  9.07474E+03  8.62556E+03  1.79481E+04
 -4.13285E+03  2.01064E+04 -1.72261E+04  1.46869E+04 -2.26429E+04  2.87323E+03 -1.86302E+04 -6.94602E+03
 -8.90531E+03 -1.42850E+04 -2.39703E+01 -1.25921E+04  4.11546E+03 -6.22494E+03  4.10761E+03 -4.07827E+03
  3.13355E+03 -3.28487E+03  3.52416E+03 -3.27088E+03  4.64848E+03 -3.13247E+03  6.43091E+03 -5.64187E+02
  9.74104E+03  2.32788E+03  4.81794E+03  7.84254E+03 -1.47229E+03  9.63436E+03 -9.47400E+03  7.10941E+03
 -1.18918E+04 -1.77958E+03 -8.07489E+03 -8.39814E+03 -5.55071E+02 -1.29881E+04  7.11064E+03 -1.33973E+04
  1.37141E+04 -7.37460E+03  1.66076E+04  1.79938E+03  1.27507E+04  1.20390E+04  2.53375E+03  1.54026E+04
 -6.20828E+03  1.14517E+04 -9.31541E+03  4.11755E+03 -6.24496E+03 -1.61871E+03 -2.25094E+03 -1.63435E+03
 -7.53156E+02 -1.23645E+02 -2.05033E+03  3.32817E+03 -5.95072E+03  2.34824E+03 -8.78132E+03 -1.71550E+03
 -5.13693E+03 -8.31379E+03 -5.63994E+02 -1.18628E+04  7.51466E+03 -1.05568E+04  1.13164E+04 -4.05780E+03
  1.22805E+04  5.98187E+03  5.41486E+03  1.05901E+04 -2.69348E+03  1.24139E+04 -9.48349E+03  7.11466E+03
 -1.14419E+04  1.18276E+03 -9.13078E+03 -7.66558E+03 -1.69212E+03 -1.01002E+04  5.07270E+03 -7.47051E+03
  7.99619E+03 -2.48660E+03  5.27683E+03  1.45808E+03  2.02291E+03  4.31276E+03  1.04498E+03  1.07793E+03
  2.38929E+03  8.69648E+02  2.28447E+03  1.47568E+03  3.60255E+03  5.06566E+03  4.03849E+03  6.00046E+03
 -2.06272E+03  9.93172E+03 -8.35918E+03  9.86044E+03 -1.27195E+04  1.94292E+03 -1.30902E+04 -5.31016E+03
 -5.21316E+03 -1.15771E+04  1.93892E+03 -1.33368E+04  7.11258E+03 -8.83589E+03  9.84033E+03 -1.97779E+03
  6.94731E+03  4.81579E+03  1.68914E+03  6.80487E+03 -3.00193E+03  4.33757E+03 -4.97123E+03 -5.91160E+02
 -2.78858E+03 -5.34784E+03  3.06768E+03 -5.57874E+03  4.98978E+03 -2.62829E+03  5.47379E+03  1.34319E+03
  3.31527E+03  2.07355E+03  1.85482E+03  1.62240E+03 -5.51808E+02  1.68660E+03  1.33522E+03 -1.36535E+03
  1.34139E+03 -4.71255E+02  4.73244E+03  1.48658E+03  1.83248E+03  6.65099E+03 -9.16996E+02  8.81372E+03
 -5.90484E+03  4.97213E+03 -7.23944E+03  1.40226E+03 -6.97106E+03 -2.01476E+03 -1.54943E+03 -5.04432E+03
  3.28618E+02 -5.05569E+03  3.07657E+03 -2.56927E+03  2.72729E+03  2.43036E+03 -1.33942E+03  3.03706E+03
 -4.61207E+03  2.01585E+03 -5.51713E+03 -3.49548E+03 -2.96410E+03 -7.27861E+03  2.05941E+03 -6.97835E+03
  3.76583E+03 -3.95947E+03  5.14375E+03 -3.11374E+02  3.89582E+03  1.38274E+03  3.81454E+02  4.01325E+03
 -2.02325E+03  1.13112E+03 -2.67036E+03 -2.17684E+03  1.61723E+03 -4.61628E+03  6.15872E+03 -3.47265E+03
  7.56995E+03 -1.10252E+02  7.34848E+03  4.71072E+03  1.79120E+03  7.74700E+03 -2.92636E+03  6.94271E+03
 -6.13678E+03  2.78877E+03 -5.76703E+03 -6.77527E+02 -3.97484E+03 -4.53057E+03  8.32234E+02 -4.50997E+03
  4.96227E+03 -2.31495E+03  4.01440E+03  2.67248E+03  9.42019E+02  4.72994E+03 -7.15296E+02  3.61572E+03
 -2.30334E+03  2.61717E+03 -1.85759E+03  5.65201E+02 -8.95096E+02  1.02220E+03 -1.37804E+03  1.17852E+03
 -2.28566E+03  3.80401E+03 -5.33847E+03  2.51008E+03 -7.36054E+03  8.15260E+00 -7.75607E+03 -4.95520E+03
 -3.87584E+03 -9.58099E+03  2.15818E+03 -1.18585E+04  6.32616E+03 -9.10480E+03  1.06594E+04 -3.63172E+03
  9.58512E+03  1.44882E+03  5.36825E+03  7.34500E+03  8.83725E+02  7.70033E+03 -3.63655E+03  5.09117E+03
 -4.28243E+03  2.39804E+03 -3.12676E+03 -1.37502E+03 -1.13804E+03 -1.56786E+02 -9.50119E+02  2.66685E+01
 -1.60286E+03 -2.81521E+02 -1.72992E+03 -4.65715E+02 -1.66824E+02 -1.70485E+03 -2.59632E+01 -3.26196E+03
  3.65452E+03 -3.23522E+03  4.52222E+03  5.60164E+01  4.98160E+03  4.68779E+03  1.49078E+03  7.33220E+03
 -3.56065E+03  8.87196E+03 -7.84765E+03  5.19377E+03 -8.91485E+03 -8.08360E+02 -6.62794E+03 -4.78754E+03
 -3.86130E+03 -7.55376E+03  2.86717E+03 -6.10982E+03  5.16312E+03 -3.87754E+03  4.67020E+03  1.68519E+02
  2.63790E+03  1.49987E+03 -9.62103E+02  2.42097E+03 -1.68227E+03 -9.18862E+01 -2.99487E+02 -1.76466E+03
  2.16224E+03 -1.35904E+03  3.37685E+03  1.64859E+03  1.90661E+03  2.56463E+03  9.50064E+02  3.61373E+03
 -2.74909E+03  3.33822E+03 -4.37422E+03  7.59978E+02 -4.55363E+03 -3.07184E+03 -7.88878E+02 -5.75739E+03
  2.92541E+03 -4.67416E+03  5.90916E+03 -9.97624E+02  5.13353E+03  1.61199E+03  3.21636E+03  4.42230E+03
  9.41157E+02  4.48100E+03 -2.35309E+03  4.35274E+03 -2.86673E+03  2.11537E+03 -2.44143E+03  2.48521E+01
 -2.04144E+03 -5.44493E+02 -2.33986E+03  9.10225E+02 -2.98379E+03  1.07952E+03 -3.54926E+03 -1.25879E+03
 -3.70887E+03 -2.63249E+03 -7.72540E+02 -4.59244E+03  1.88209E+03 -4.98329E+03  3.96796E+03 -2.63528E+03
  4.20243E+03  7.22882E+02  2.46489E+03  3.47794E+03 -3.28724E+02  4.63211E+03 -3.61329E+03  3.96918E+03
