 $NMID ID='MM_0lb_SNR400_10hz_g50_75.RAW', FMTDAT='(8E13.5)'
 TRAMP=1., VOLUME=1. $END
  3.09119E+05 -1.61989E+02  3.37566E+05  2.51674E+05  8.53246E+04  3.38022E+05 -1.32564E+05  2.51783E+05
 -1.91252E+05  8.39124E+04 -1.12537E+05 -3.23436E+04  4.14408E+02 -5.07476E+04  5.35031E+04  2.36290E+02
  3.54908E+04  5.30521E+04 -1.64342E+04  7.57542E+04 -6.14634E+04  6.43794E+04 -8.48284E+04  3.21797E+04
 -8.22491E+04 -1.13314E+04 -5.83828E+04 -5.31794E+04 -1.53469E+04 -7.09581E+04  2.82294E+04 -4.70145E+04
  4.11093E+04  3.60777E+03  1.64301E+04  4.87888E+04 -3.51329E+04  4.80281E+04 -6.78563E+04  1.64412E+02
 -5.53965E+04 -5.73645E+04 -7.35178E+03 -7.86097E+04  3.46490E+04 -5.71887E+04  4.98685E+04 -1.82590E+04
  4.47719E+04  1.10539E+04  3.28244E+04  2.68322E+04  1.49811E+04  3.05561E+04 -5.50744E+03  2.75929E+04
 -2.18658E+04  1.11704E+04 -1.78144E+04 -5.82946E+03  6.89464E+03 -6.73491E+03  2.36465E+04  1.31734E+04
  7.59806E+03  3.66513E+04 -3.43599E+04  3.60372E+04 -6.60930E+04  2.00400E+03 -5.83344E+04 -4.42157E+04
 -1.22221E+04 -6.50490E+04  4.10958E+04 -4.68405E+04  6.08547E+04 -2.36365E+03  3.57398E+04  3.41510E+04
 -5.26013E+03  3.83805E+04 -3.16852E+04  1.72691E+04 -3.21700E+04 -3.40619E+03 -1.87038E+04 -1.16233E+04
 -9.33529E+03 -1.47701E+04 -1.55843E+02 -1.88374E+04  8.85290E+03 -2.32387E+04  1.53523E+04 -1.24652E+04
  1.14177E+04  5.99444E+03 -1.01771E+04  1.24187E+04 -2.32250E+04 -5.96187E+03 -8.69211E+03 -3.64227E+04
  2.44340E+04 -4.57064E+04  5.13641E+04 -2.05893E+04  4.74135E+04  2.06320E+04  1.70156E+04  4.70292E+04
 -1.72829E+04  3.59709E+04 -2.67577E+04  2.16868E+03 -1.11767E+04 -2.82054E+04  2.19037E+04 -3.65982E+04
  4.41340E+04 -1.08491E+04  3.93698E+04  2.57999E+04  2.13726E+04  4.96875E+04 -8.50621E+03  5.56952E+04
 -3.50548E+04  3.64591E+04 -4.63556E+04  1.10679E+04 -4.64311E+04 -1.80045E+04 -2.51192E+04 -4.13912E+04
  8.31225E+03 -4.12187E+04  3.38694E+04 -1.61425E+04  3.12316E+04  1.12169E+04  4.64023E+03  1.99641E+04
 -1.35670E+04  9.11888E+03 -1.08518E+04 -7.54221E+03  5.50976E+03 -1.16378E+04  1.92104E+04  5.74253E+03
  1.50632E+04  2.28069E+04 -5.01728E+03  2.58544E+04 -2.33204E+04  1.44669E+04 -3.12727E+04 -3.68869E+03
 -2.44213E+04 -1.82664E+04 -1.13245E+04 -2.37859E+04  3.61998E+03 -2.40569E+04  1.87767E+04 -2.19881E+04
  3.09494E+04 -1.33197E+04  3.70135E+04  4.34497E+03  2.75185E+04  2.33919E+04  4.41350E+03  4.04718E+04
 -1.97451E+04  3.28238E+04 -2.97914E+04  1.13089E+04 -2.23003E+04 -1.03623E+04 -4.90006E+03 -1.32465E+04
  7.14918E+02 -1.03514E+03 -6.76319E+03  7.75735E+03 -1.94133E+04  5.04673E+03 -1.90211E+04 -9.80703E+03
 -1.14658E+04 -2.24221E+04  5.67650E+03 -2.68862E+04  1.79265E+04 -1.86326E+04  2.13368E+04 -1.86499E+03
  1.45516E+04  1.57219E+04 -1.10434E+03  2.24467E+04 -1.55066E+04  1.23081E+04 -2.28990E+04 -4.35298E+03
 -1.68998E+04 -1.93922E+04 -2.21050E+03 -2.70472E+04  1.19387E+04 -2.32680E+04  2.18670E+04 -1.18980E+04
  2.12020E+04  1.42090E+02  1.55648E+04  4.66953E+03  8.02078E+03  1.41734E+03  1.14822E+04 -9.46170E+02
  2.14408E+04  2.98878E+03  2.44504E+04  1.68772E+04  1.61649E+04  3.61685E+04 -2.39615E+03  4.28170E+04
 -2.40835E+04  3.42407E+04 -3.97131E+04  1.69234E+04 -4.22102E+04 -3.54494E+03 -3.46176E+04 -2.48874E+04
 -1.43544E+04 -3.47426E+04  1.26831E+04 -3.05402E+04  2.67678E+04 -1.48357E+04  2.30265E+04  7.42946E+03
  7.94056E+03  1.74966E+04 -1.01853E+04  1.43293E+04 -1.87067E+04  2.30241E+03 -1.45785E+04 -1.25542E+04
 -8.17870E+02 -1.90960E+04  9.20900E+03 -1.31006E+04  1.38766E+04 -1.43371E+03  3.44489E+03  8.08776E+03
 -8.52211E+03  3.91195E+03 -8.13077E+03 -7.10815E+03 -2.15742E+03 -1.70210E+04  1.17750E+04 -1.81933E+04
  2.13252E+04 -1.10852E+04  2.40273E+04  3.46364E+03  2.09170E+04  1.73401E+04  1.04169E+04  2.72028E+04
 -5.05765E+03  2.95046E+04 -1.94701E+04  1.84327E+04 -2.08900E+04  3.82840E+03 -1.46157E+04 -5.60301E+03
 -6.21355E+03 -6.68914E+03 -7.92033E+02  9.73602E+02 -2.96922E+03  3.62825E+03 -6.73567E+03  4.88941E+03
 -1.28379E+04 -4.06293E+02 -1.36151E+04 -1.07237E+04 -5.99848E+03 -1.80109E+04  6.16501E+03 -1.46054E+04
  1.17786E+04 -6.11319E+03  8.56891E+03  3.54587E+03 -1.85185E+02  5.86258E+03 -7.35237E+03 -5.87024E+02
 -7.64675E+03 -9.42091E+03 -8.65601E+02 -1.45952E+04  8.10205E+03 -1.50813E+04  1.91176E+04 -8.44185E+03
  2.15955E+04  2.10705E+03  1.60890E+04  1.33330E+04  2.87126E+03  1.79413E+04 -8.31802E+03  1.40083E+04
 -1.11830E+04  4.07471E+03 -6.28341E+03 -2.80989E+03  2.11554E+03 -3.17446E+03  8.43203E+03 -1.46657E+03
  7.09746E+03  5.97521E+03  5.70374E+02  1.12603E+04 -9.02558E+03  1.16199E+04 -1.44806E+04  2.89757E+03
 -9.74997E+03 -7.64055E+03  3.06208E+02 -1.26306E+04  8.03581E+03 -5.93581E+03  8.44049E+03  2.75311E+03
  1.99430E+03  8.97149E+03 -7.35031E+03  1.03411E+04 -1.19877E+04  4.33131E+03 -1.23405E+04 -4.34603E+03
 -6.92913E+03 -1.47672E+04  3.84714E+03 -1.66705E+04  1.46739E+04 -9.88562E+03  1.47188E+04  3.17024E+03
  8.99144E+03  1.26732E+04 -9.93302E+02  1.58186E+04 -1.12639E+04  8.31226E+03 -1.16548E+04 -4.21102E+02
 -1.03946E+04 -1.00714E+04 -1.66516E+03 -1.11587E+04  4.75170E+03 -8.04639E+03  6.48236E+03 -3.57018E+03
  4.24416E+03  1.79591E+03 -5.48216E+02  2.21512E+03 -1.09756E+03 -3.21105E+03  1.96279E+03 -6.45867E+03
  9.74813E+03 -3.10034E+03  1.44220E+04  1.64833E+03  1.36835E+04  1.02557E+04  9.98219E+03  1.90142E+04
 -5.54297E+03  2.13660E+04 -1.83016E+04  1.57795E+04 -2.37898E+04  3.22766E+03 -1.85802E+04 -8.38113E+03
 -9.15754E+03 -1.57999E+04 -6.83952E+02 -1.28655E+04  4.94391E+03 -7.47060E+03  3.88600E+03 -4.72157E+03
  3.32897E+03 -2.77891E+03  3.52617E+03 -3.15138E+03  5.49584E+03 -3.05167E+03  7.19093E+03 -1.48045E+03
  1.00094E+04  2.37251E+03  4.73148E+03  8.13255E+03 -2.35553E+03  1.01756E+04 -1.01323E+04  7.99276E+03
 -1.34843E+04 -1.21357E+03 -8.58894E+03 -9.70203E+03 -4.89371E+02 -1.45658E+04  7.77046E+03 -1.46552E+04
  1.46611E+04 -8.02959E+03  1.68497E+04  2.21062E+03  1.25276E+04  1.24745E+04  1.70244E+03  1.54965E+04
 -6.54336E+03  1.32566E+04 -9.10802E+03  3.90769E+03 -6.71113E+03 -1.54865E+03 -2.45483E+03 -2.56990E+03
 -1.44365E+03 -3.66131E+02 -1.96203E+03  3.03636E+03 -4.98507E+03  1.84076E+03 -9.48489E+03 -1.45372E+03
 -6.68257E+03 -8.93095E+03 -7.36034E+02 -1.28308E+04  8.52791E+03 -1.26346E+04  1.28410E+04 -3.04728E+03
  1.30018E+04  6.68347E+03  6.41947E+03  1.10679E+04 -2.01193E+03  1.32088E+04 -9.65049E+03  8.56483E+03
 -1.19181E+04  7.13722E+02 -9.95961E+03 -8.75115E+03 -1.56403E+03 -1.12896E+04  5.57520E+03 -8.33823E+03
  8.44870E+03 -2.19561E+03  5.23574E+03  1.91711E+03  2.36306E+03  3.60133E+03  1.35013E+03  2.09310E+03
  2.74990E+03  7.87438E+02  3.46321E+03  1.94200E+03  3.94339E+03  5.14418E+03  3.38673E+03  7.79082E+03
 -2.77776E+03  1.06897E+04 -9.13522E+03  1.07805E+04 -1.34358E+04  3.74779E+03 -1.32775E+04 -5.10842E+03
 -6.55339E+03 -1.29362E+04  2.23730E+03 -1.45624E+04  7.50868E+03 -9.48453E+03  1.06649E+04 -2.38088E+03
  8.27723E+03  4.94337E+03  2.57413E+03  7.14305E+03 -3.58314E+03  4.93912E+03 -5.52099E+03 -6.44687E+02
 -2.71983E+03 -5.80095E+03  2.99235E+03 -4.85214E+03  4.45442E+03 -3.22767E+03  5.03206E+03  7.22440E+02
  2.62734E+03  2.58701E+03  1.48883E+03  2.35406E+03 -1.26966E+03  1.83544E+03  1.86521E+03 -5.59993E+02
  2.13702E+03 -8.22902E+02  5.10372E+03  2.95684E+03  2.83248E+03  6.96426E+03 -1.68415E+03  9.62056E+03
 -6.50667E+03  5.85416E+03 -8.75635E+03  2.69885E+03 -7.92083E+03 -2.08679E+03 -3.59241E+03 -4.91583E+03
  5.71092E+02 -5.13157E+03  3.23500E+03 -2.79354E+03  2.94242E+03  3.47500E+03 -1.06985E+03  4.48530E+03
 -5.50492E+03  1.88100E+03 -6.59420E+03 -2.09992E+03 -3.25743E+03 -7.49618E+03  9.59835E+02 -7.13822E+03
  4.35066E+03 -3.78499E+03  5.55077E+03 -3.92704E+01  4.73432E+03  2.55517E+03  3.98709E+02  4.02667E+03
 -3.08370E+03  2.25708E+02 -2.99735E+03 -3.00464E+03  1.70647E+03 -5.78136E+03  6.45598E+03 -4.06377E+03
  8.30621E+03  9.05687E+02  8.40545E+03  5.66505E+03  2.60176E+03  8.70226E+03 -3.60007E+03  8.03641E+03
 -7.01243E+03  3.98490E+03 -7.69745E+03 -6.66076E+02 -3.95588E+03 -5.77626E+03  1.99778E+03 -5.24402E+03
  4.76414E+03 -1.46204E+03  4.82916E+03  2.13406E+03  1.23946E+03  5.01596E+03 -5.53507E+02  3.88426E+03
 -2.81510E+03  3.13198E+03 -1.50645E+03  9.44870E+02 -1.23447E+03  9.19947E+02 -1.04263E+03  2.15558E+03
 -2.37034E+03  3.34864E+03 -6.25371E+03  2.92278E+03 -9.05694E+03 -4.82279E+02 -9.59331E+03 -5.31188E+03
 -4.63524E+03 -1.08249E+04  2.05242E+03 -1.28378E+04  7.93060E+03 -1.00495E+04  1.26439E+04 -3.57778E+03
  1.16808E+04  2.13985E+03  6.68589E+03  7.25275E+03  2.56969E+02  8.74836E+03 -2.89066E+03  6.57094E+03
 -5.15491E+03  3.41690E+03 -3.19486E+03 -1.53298E+03 -1.32840E+03 -9.88562E+02 -5.17086E+02  3.65470E+01
 -1.77705E+03  7.67743E+02 -1.69844E+03 -1.91540E+02 -6.09851E+02 -2.31241E+03  7.23964E+02 -2.84645E+03
  3.77097E+03 -2.64016E+03  5.56278E+03  2.71280E+02  5.84437E+03  5.38358E+03  1.23092E+03  8.64255E+03
 -4.24831E+03  9.79347E+03 -9.23708E+03  6.19323E+03 -1.00662E+04 -3.41900E+02 -7.86705E+03 -6.12193E+03
 -4.03251E+03 -8.75342E+03  2.60706E+03 -8.61649E+03  5.58030E+03 -4.05885E+03  6.24673E+03  2.12081E+02
  2.98180E+03  3.42237E+03 -4.24986E+02  2.97587E+03 -1.87637E+03 -1.14278E+02 -2.03522E+02 -2.51589E+03
  2.27205E+03 -9.90330E+02  3.89284E+03  5.85363E+02  1.97422E+03  2.66258E+03 -5.22554E+02  4.14897E+03
 -3.23625E+03  4.62792E+03 -5.84856E+03 -5.42971E+02 -5.73065E+03 -4.66166E+03 -1.69260E+03 -7.72843E+03
  4.57299E+03 -5.30468E+03  6.57295E+03 -1.98260E+03  6.77386E+03  1.83119E+03  4.64163E+03  5.08809E+03
  4.05090E+02  5.67620E+03 -2.47641E+03  5.16417E+03 -3.30460E+03  2.09604E+03 -3.40441E+03  3.92975E+02
 -2.10292E+03 -2.47079E+02 -1.21239E+03  1.85537E+02 -3.72829E+03  1.01074E+03 -4.35792E+03 -2.74205E+02
 -4.09460E+03 -2.92194E+03 -1.29044E+03 -5.73969E+03  2.95527E+03 -6.28030E+03  4.75274E+03 -2.67095E+03
  5.42344E+03  4.69393E+02  1.84121E+03  3.33492E+03 -5.89839E+02  5.91633E+03 -4.53352E+03  4.08999E+03
