 $NMID ID='MM_0lb_SNR400_11hz_g45_76.RAW', FMTDAT='(8E13.5)'
 TRAMP=1., VOLUME=1. $END
  3.10856E+05  1.44985E+02  3.37392E+05  2.50866E+05  8.48977E+04  3.37644E+05 -1.32503E+05  2.51635E+05
 -1.90189E+05  8.30517E+04 -1.12738E+05 -3.22542E+04  4.86627E+02 -5.04812E+04  5.42416E+04  5.95811E+02
  3.53250E+04  5.31254E+04 -1.64427E+04  7.60737E+04 -6.05811E+04  6.43015E+04 -8.48751E+04  3.23547E+04
 -8.16321E+04 -1.14276E+04 -5.76436E+04 -5.11954E+04 -1.46670E+04 -7.06727E+04  2.77856E+04 -4.54882E+04
  4.03411E+04  3.93970E+03  1.62035E+04  4.86458E+04 -3.43880E+04  4.73277E+04 -6.77540E+04 -2.33543E+01
 -5.37728E+04 -5.78156E+04 -7.56958E+03 -7.81021E+04  3.43777E+04 -5.61010E+04  4.86455E+04 -1.77850E+04
  4.39230E+04  1.17453E+04  3.25010E+04  2.55336E+04  1.57610E+04  2.91377E+04 -5.45755E+03  2.77330E+04
 -2.26034E+04  1.24180E+04 -1.79822E+04 -5.24304E+03  6.55031E+03 -7.18314E+03  2.21089E+04  1.35214E+04
  7.26167E+03  3.67457E+04 -3.23317E+04  3.59760E+04 -6.48550E+04  1.47139E+03 -5.72985E+04 -4.35796E+04
 -1.25265E+04 -6.45013E+04  4.08423E+04 -4.57035E+04  5.95427E+04 -2.18723E+03  3.51310E+04  3.31032E+04
 -5.84545E+03  3.80673E+04 -3.07532E+04  1.78696E+04 -3.10980E+04 -3.76866E+03 -1.82771E+04 -1.17869E+04
 -8.68228E+03 -1.34636E+04 -1.31419E+02 -1.87414E+04  8.47639E+03 -2.30336E+04  1.56547E+04 -1.33260E+04
  1.10956E+04  5.84272E+03 -9.58110E+03  1.31064E+04 -2.19047E+04 -5.65025E+03 -8.35569E+03 -3.52386E+04
  2.39410E+04 -4.45956E+04  4.96174E+04 -1.97583E+04  4.69840E+04  1.99701E+04  1.66189E+04  4.55541E+04
 -1.58153E+04  3.52896E+04 -2.63212E+04  2.56992E+03 -1.04413E+04 -2.82733E+04  2.18636E+04 -3.59975E+04
  4.21274E+04 -1.11989E+04  3.77422E+04  2.37097E+04  1.95291E+04  4.85461E+04 -8.14267E+03  5.32978E+04
 -3.37198E+04  3.51209E+04 -4.42108E+04  1.10878E+04 -4.47871E+04 -1.73230E+04 -2.48934E+04 -3.99652E+04
  7.51195E+03 -4.02055E+04  3.28221E+04 -1.66306E+04  3.07695E+04  1.12540E+04  4.68453E+03  1.95960E+04
 -1.31906E+04  9.02247E+03 -1.04275E+04 -7.67025E+03  5.60187E+03 -1.16207E+04  1.84348E+04  5.73253E+03
  1.41253E+04  2.25510E+04 -5.60733E+03  2.63259E+04 -2.26582E+04  1.30456E+04 -3.04523E+04 -3.54296E+03
 -2.29134E+04 -1.75493E+04 -1.02649E+04 -2.32790E+04  4.03995E+03 -2.34546E+04  1.81673E+04 -2.05776E+04
  2.89745E+04 -1.35228E+04  3.47270E+04  3.29646E+03  2.55524E+04  2.18613E+04  5.05431E+03  3.91003E+04
 -1.93559E+04  3.21442E+04 -2.94153E+04  1.09480E+04 -2.15629E+04 -9.80610E+03 -5.26627E+03 -1.26792E+04
  1.52752E+03 -2.52265E+03 -6.13257E+03  6.72996E+03 -1.88370E+04  5.00985E+03 -1.84883E+04 -7.90089E+03
 -1.15864E+04 -2.09727E+04  5.81488E+03 -2.55037E+04  1.69057E+04 -1.84081E+04  2.11428E+04 -1.20620E+03
  1.31762E+04  1.52023E+04 -1.72129E+03  2.15787E+04 -1.44355E+04  1.21555E+04 -2.05802E+04 -4.63585E+03
 -1.54932E+04 -1.92806E+04 -1.55995E+03 -2.52703E+04  1.05622E+04 -2.08223E+04  2.14712E+04 -1.16235E+04
  1.98175E+04  2.89033E+02  1.51169E+04  5.08136E+03  6.78586E+03  1.41330E+03  1.15179E+04 -1.52862E+03
  1.95278E+04  3.14210E+03  2.20730E+04  1.61991E+04  1.46566E+04  3.41286E+04 -2.78540E+03  3.88299E+04
 -2.22299E+04  3.19978E+04 -3.66645E+04  1.68948E+04 -3.90884E+04 -2.43173E+03 -3.12712E+04 -2.31242E+04
 -1.28648E+04 -3.23525E+04  1.06073E+04 -2.85516E+04  2.47138E+04 -1.41461E+04  2.15104E+04  6.33502E+03
  7.02539E+03  1.66037E+04 -1.01820E+04  1.48734E+04 -1.82897E+04  2.51734E+03 -1.31814E+04 -1.15975E+04
 -9.72330E+02 -1.73808E+04  9.35073E+03 -1.34893E+04  1.25098E+04 -1.71286E+03  2.84465E+03  7.58472E+03
 -8.05676E+03  3.99082E+03 -7.97459E+03 -5.87617E+03 -1.68696E+03 -1.60596E+04  1.12904E+04 -1.72869E+04
  2.02216E+04 -9.30252E+03  2.20471E+04  2.95868E+03  1.89502E+04  1.62871E+04  8.81985E+03  2.50156E+04
 -4.34877E+03  2.64335E+04 -1.74175E+04  1.65217E+04 -1.95961E+04  4.11528E+03 -1.33271E+04 -4.93793E+03
 -5.47067E+03 -6.53222E+03 -3.71357E+02  6.37112E+02 -3.11933E+03  3.16588E+03 -5.99908E+03  4.91496E+03
 -1.27821E+04 -7.28850E+02 -1.34385E+04 -1.03632E+04 -5.31486E+03 -1.75257E+04  5.45520E+03 -1.36913E+04
  1.10689E+04 -5.77113E+03  8.24438E+03  4.74769E+03 -4.89129E+02  5.04471E+03 -6.25824E+03  6.11561E+02
 -6.09831E+03 -8.78274E+03 -7.34225E+02 -1.32931E+04  7.62385E+03 -1.35554E+04  1.68111E+04 -6.78742E+03
  2.00327E+04  2.00431E+03  1.45224E+04  1.14548E+04  2.81283E+03  1.64797E+04 -8.13223E+03  1.33217E+04
 -1.10442E+04  4.32558E+03 -5.56386E+03 -2.82088E+03  2.12727E+03 -3.39782E+03  7.23741E+03 -1.31319E+03
  7.12852E+03  5.69292E+03  1.36432E+03  1.05081E+04 -7.20540E+03  1.05509E+04 -1.35845E+04  1.95739E+03
 -8.48552E+03 -7.15426E+03  7.59475E+02 -1.16576E+04  7.44157E+03 -5.85685E+03  7.59792E+03  1.89644E+03
  2.30679E+03  8.07843E+03 -6.06744E+03  9.97372E+03 -1.10476E+04  4.41965E+03 -1.12214E+04 -3.83270E+03
 -6.55108E+03 -1.29695E+04  2.97822E+03 -1.45579E+04  1.26311E+04 -9.24888E+03  1.41176E+04  2.26640E+03
  8.24841E+03  1.12786E+04 -4.70931E+02  1.32740E+04 -9.30112E+03  7.43501E+03 -1.04736E+04 -1.24297E+03
 -9.51404E+03 -9.13269E+03 -1.97087E+03 -9.95876E+03  5.29217E+03 -7.98847E+03  6.92040E+03 -3.29920E+03
  4.88568E+03  8.82138E+02 -8.57562E+02  1.42956E+03 -6.68430E+02 -2.35318E+03  2.10660E+03 -5.55455E+03
  9.38328E+03 -3.43575E+03  1.27814E+04  1.19593E+03  1.22592E+04  9.03397E+03  8.53277E+03  1.68497E+04
 -3.67859E+03  1.88058E+04 -1.64216E+04  1.41409E+04 -2.08615E+04  2.36414E+03 -1.59549E+04 -6.58570E+03
 -8.73890E+03 -1.36129E+04 -1.66143E+02 -1.25280E+04  4.32654E+03 -5.62627E+03  4.21643E+03 -4.44231E+03
  3.42449E+03 -2.32404E+03  3.67717E+03 -3.11481E+03  5.09573E+03 -3.03875E+03  6.94233E+03 -8.94096E+02
  9.20239E+03  2.14236E+03  4.46142E+03  7.40144E+03 -1.72475E+03  8.71186E+03 -9.38044E+03  6.02988E+03
 -1.12150E+04 -1.82071E+03 -7.02071E+03 -8.22894E+03 -4.12510E+02 -1.14579E+04  6.67973E+03 -1.20461E+04
  1.29793E+04 -6.41193E+03  1.51344E+04  2.24902E+03  1.10748E+04  1.02386E+04  2.23007E+03  1.39122E+04
 -5.96142E+03  1.18309E+04 -7.95767E+03  4.40516E+03 -5.36178E+03 -1.56076E+03 -1.81672E+03 -1.53549E+03
 -6.78328E+02  1.23237E+02 -2.00992E+03  2.55331E+03 -4.32703E+03  1.96902E+03 -7.79408E+03 -7.42407E+02
 -5.31100E+03 -7.99660E+03 -3.42841E+02 -1.18790E+04  6.86891E+03 -1.05699E+04  1.10234E+04 -3.59586E+03
  1.14553E+04  5.12949E+03  4.93175E+03  1.01529E+04 -2.62294E+03  1.21955E+04 -7.36744E+03  7.09756E+03
 -1.08032E+04  2.23131E+02 -8.56199E+03 -7.11405E+03 -9.15115E+02 -9.24514E+03  4.38028E+03 -6.55920E+03
  6.91641E+03 -2.40931E+03  4.75171E+03  1.73008E+03  1.16963E+03  3.33384E+03  1.22063E+03  1.73589E+03
  2.38423E+03  1.27597E+03  3.36307E+03  2.55746E+03  2.71798E+03  3.77894E+03  3.46790E+03  5.39509E+03
 -2.04014E+03  8.34331E+03 -7.61246E+03  9.70298E+03 -1.09265E+04  2.52175E+03 -1.25913E+04 -4.23735E+03
 -5.62274E+03 -1.13191E+04  1.94720E+03 -1.22877E+04  7.05056E+03 -8.60416E+03  9.54568E+03 -2.32098E+03
  6.94771E+03  4.54201E+03  1.65042E+03  6.47412E+03 -3.19192E+03  4.30266E+03 -4.42595E+03 -7.44197E+02
 -2.42810E+03 -4.40914E+03  2.67572E+03 -5.21373E+03  4.71317E+03 -2.52928E+03  4.44563E+03  1.07079E+03
  2.76135E+03  1.68480E+03  9.44910E+02  2.12616E+03 -6.79588E+02  1.57586E+03  1.31722E+03 -9.93114E+02
  1.38230E+03 -5.97159E+02  3.84946E+03  2.20746E+03  1.79648E+03  6.05230E+03 -9.92378E+02  7.72580E+03
 -5.21530E+03  4.16110E+03 -7.08488E+03  8.16441E+02 -6.18673E+03 -1.59193E+03 -2.52648E+03 -4.30853E+03
  7.21832E+02 -4.11956E+03  3.24771E+03 -2.39293E+03  2.07365E+03  2.71721E+03 -1.52746E+03  3.74333E+03
 -4.61727E+03  1.47463E+03 -5.53241E+03 -2.61939E+03 -2.45423E+03 -6.24916E+03  5.19093E+02 -5.91200E+03
  3.05667E+03 -3.49354E+03  4.15794E+03 -5.22910E+02  3.82393E+03  1.34567E+03  7.72633E+02  3.49854E+03
 -2.40931E+03  1.26583E+03 -2.90980E+03 -1.97345E+03  1.06985E+03 -3.94967E+03  6.17994E+03 -3.50707E+03
  7.01332E+03  1.04413E+03  6.84026E+03  4.36201E+03  2.23999E+03  6.90336E+03 -2.29902E+03  6.82043E+03
 -6.08976E+03  2.26123E+03 -5.64606E+03 -9.05718E+02 -2.84367E+03 -4.97577E+03  1.54382E+03 -4.32898E+03
  4.63448E+03 -2.02232E+03  3.18630E+03  1.14140E+03  9.60922E+02  3.90373E+03 -4.16591E+02  3.89039E+03
 -1.71393E+03  2.49572E+03 -1.31013E+03  5.71205E+02 -1.17734E+03  6.75649E+02 -1.38108E+03  1.06421E+03
 -2.12273E+03  1.89376E+03 -4.65280E+03  2.55472E+03 -6.25804E+03 -2.73422E+02 -7.59900E+03 -4.16866E+03
 -4.15523E+03 -9.22553E+03  2.06381E+03 -1.04103E+04  5.36049E+03 -8.17892E+03  9.70622E+03 -3.15321E+03
  9.40711E+03  2.45934E+03  5.63499E+03  6.38595E+03  2.08011E+02  6.89707E+03 -2.52959E+03  5.13467E+03
 -4.29514E+03  1.92343E+03 -2.96689E+03 -4.92901E+02 -8.51811E+02 -1.65776E+03 -6.21384E+02 -4.30915E+02
 -1.54766E+03 -1.33310E+02 -2.31651E+03  8.63857E+00 -3.60661E+02 -2.01110E+03 -1.02700E+02 -2.54499E+03
  3.26912E+03 -2.92533E+03  4.36956E+03 -3.98934E+02  4.80505E+03  3.89663E+03  1.03776E+03  6.75385E+03
 -3.67881E+03  7.20143E+03 -7.82044E+03  4.84594E+03 -8.53515E+03  1.76514E+02 -6.23482E+03 -5.54159E+03
 -2.48420E+03 -6.48617E+03  2.04184E+03 -6.04717E+03  4.42172E+03 -4.27070E+03  5.04274E+03  8.09393E+01
  2.87073E+03  2.02485E+03 -4.54570E+02  2.08835E+03 -1.66059E+03 -1.97978E+01  2.64629E+02 -1.77004E+03
  1.87836E+03 -1.33789E+03  2.14654E+03  1.48970E+03  1.88261E+03  3.06058E+03 -3.70380E+02  2.88377E+03
 -3.29005E+03  3.02621E+03 -4.51119E+03 -1.72506E+02 -3.82206E+03 -3.33961E+03 -6.08922E+02 -5.94778E+03
  3.13824E+03 -3.03971E+03  5.20688E+03 -1.93922E+03  5.49210E+03  1.32346E+03  2.72908E+03  5.15330E+03
  7.39911E+02  3.77856E+03 -1.35903E+03  3.02202E+03 -2.82171E+03  2.16269E+03 -2.42708E+03 -2.52777E+02
 -9.23435E+02 -2.45267E+02 -1.22368E+03  7.86661E+02 -2.63138E+03  8.02962E+02 -3.17469E+03 -6.77430E+02
 -3.27914E+03 -1.89736E+03 -6.61490E+02 -4.53673E+03  2.54253E+03 -5.25104E+03  4.47292E+03 -2.24010E+03
  3.94926E+03  5.23908E+02  2.31705E+03  2.80159E+03 -1.05865E+02  5.19089E+03 -3.79881E+03  2.97928E+03
