 $NMID ID='MM_0lb_SNR400_16hz_g60_22.RAW', FMTDAT='(8E13.5)'
 TRAMP=1., VOLUME=1. $END
  3.10107E+05  6.13311E+02  3.37441E+05  2.50564E+05  8.48294E+04  3.38213E+05 -1.32786E+05  2.51676E+05
 -1.90235E+05  8.28707E+04 -1.11740E+05 -3.26480E+04  5.54224E+02 -5.07812E+04  5.36108E+04  2.52230E+02
  3.55399E+04  5.28497E+04 -1.59628E+04  7.48396E+04 -6.08070E+04  6.35677E+04 -8.42392E+04  3.23748E+04
 -8.18846E+04 -1.18009E+04 -5.70463E+04 -5.15237E+04 -1.46026E+04 -6.91126E+04  2.76948E+04 -4.59311E+04
  4.08212E+04  3.71639E+03  1.59864E+04  4.85437E+04 -3.38450E+04  4.75445E+04 -6.66770E+04 -5.11633E+02
 -5.35466E+04 -5.69458E+04 -6.99043E+03 -7.71689E+04  3.36722E+04 -5.54893E+04  4.82990E+04 -1.80311E+04
  4.41672E+04  1.11772E+04  3.16384E+04  2.58224E+04  1.62878E+04  2.92644E+04 -5.10522E+03  2.74005E+04
 -2.19787E+04  1.25960E+04 -1.85794E+04 -4.63981E+03  6.42284E+03 -7.12076E+03  2.24201E+04  1.24654E+04
  7.74666E+03  3.57373E+04 -3.23307E+04  3.58569E+04 -6.36305E+04  1.97320E+03 -5.72020E+04 -4.34046E+04
 -1.26311E+04 -6.31216E+04  3.98740E+04 -4.54867E+04  5.83692E+04 -2.34960E+03  3.44202E+04  3.19995E+04
 -5.69797E+03  3.63137E+04 -3.05099E+04  1.57518E+04 -3.07030E+04 -4.13385E+03 -1.67199E+04 -1.07132E+04
 -8.21566E+03 -1.28617E+04 -2.50774E+02 -1.80888E+04  8.35361E+03 -2.25935E+04  1.57397E+04 -1.36572E+04
  1.10779E+04  5.14747E+03 -8.17238E+03  1.30443E+04 -2.10046E+04 -4.27639E+03 -8.73088E+03 -3.43976E+04
  2.30269E+04 -4.37259E+04  4.78923E+04 -1.99398E+04  4.48190E+04  1.95142E+04  1.56168E+04  4.41083E+04
 -1.65176E+04  3.42154E+04 -2.54672E+04  1.25380E+03 -9.98599E+03 -2.74022E+04  2.09596E+04 -3.44076E+04
  4.11176E+04 -9.19953E+03  3.65535E+04  2.35381E+04  1.77251E+04  4.61659E+04 -7.93657E+03  5.02869E+04
 -3.17147E+04  3.40911E+04 -4.25110E+04  9.58003E+03 -4.21962E+04 -1.63016E+04 -2.29821E+04 -3.79535E+04
  7.30027E+03 -3.76843E+04  3.13970E+04 -1.44139E+04  2.87660E+04  1.09872E+04  4.52526E+03  1.96435E+04
 -1.34624E+04  8.01847E+03 -1.02916E+04 -7.57451E+03  6.00315E+03 -1.07768E+04  1.76138E+04  6.08392E+03
  1.35848E+04  2.18802E+04 -6.31468E+03  2.57859E+04 -2.23442E+04  1.15577E+04 -2.73747E+04 -5.14630E+03
 -2.05990E+04 -1.71071E+04 -8.47744E+03 -2.01518E+04  4.64806E+03 -1.93018E+04  1.50988E+04 -1.79728E+04
  2.54408E+04 -1.27230E+04  3.20751E+04  2.65766E+03  2.34162E+04  2.01436E+04  4.65845E+03  3.63661E+04
 -1.72438E+04  3.00557E+04 -2.77645E+04  1.01140E+04 -2.06604E+04 -1.06772E+04 -4.11008E+03 -1.33152E+04
  1.72714E+03 -2.56657E+03 -4.51796E+03  6.43271E+03 -1.56384E+04  5.10225E+03 -1.63451E+04 -7.17936E+03
 -1.00733E+04 -1.86182E+04  4.88002E+03 -2.29266E+04  1.47364E+04 -1.60820E+04  1.75351E+04 -1.85378E+03
  1.06370E+04  1.28709E+04 -5.73389E+02  1.88558E+04 -1.30294E+04  1.09622E+04 -1.91266E+04 -3.62591E+03
 -1.36482E+04 -1.66461E+04 -2.40637E+03 -2.28053E+04  1.01320E+04 -1.86492E+04  1.86879E+04 -8.91109E+03
  1.77306E+04 -1.95602E+02  1.28443E+04  4.60546E+03  6.55196E+03  5.28902E+02  9.07368E+03 -1.74849E+03
  1.64578E+04  2.60641E+03  1.85654E+04  1.49205E+04  1.22032E+04  2.99249E+04 -3.17645E+03  3.31271E+04
 -1.93708E+04  2.64445E+04 -3.06629E+04  1.30723E+04 -3.24272E+04 -2.32359E+03 -2.69572E+04 -1.86726E+04
 -1.16608E+04 -2.62787E+04  9.24815E+03 -2.42563E+04  2.10357E+04 -1.30896E+04  1.89602E+04  4.36410E+03
  6.80080E+03  1.46580E+04 -8.59718E+03  1.23703E+04 -1.51151E+04  2.90897E+03 -1.19871E+04 -9.88662E+03
 -3.38367E+02 -1.45139E+04  7.34174E+03 -1.12027E+04  9.16732E+03 -1.25374E+03  1.26774E+03  5.97112E+03
 -6.16255E+03  1.95151E+03 -5.67197E+03 -5.46700E+03 -4.36175E+02 -1.32638E+04  9.67562E+03 -1.35737E+04
  1.62874E+04 -6.46881E+03  1.62483E+04  3.14866E+03  1.53500E+04  1.22314E+04  7.13366E+03  1.90435E+04
 -3.26763E+03  2.09465E+04 -1.38311E+04  1.34023E+04 -1.49078E+04  3.56516E+03 -1.07806E+04 -3.60162E+03
 -5.37585E+03 -3.97178E+03 -9.95331E+02  1.49390E+03 -2.69864E+03  2.05783E+03 -5.15967E+03  3.84425E+03
 -1.00503E+04 -9.69156E+02 -1.08747E+04 -9.12056E+03 -3.50078E+03 -1.47827E+04  4.23723E+03 -1.04790E+04
  9.58900E+03 -5.07699E+03  6.30641E+03  2.49188E+03  5.33682E+02  4.22693E+03 -4.97881E+03 -5.83907E-01
 -4.97913E+03 -6.78760E+03 -5.95951E+02 -9.43574E+03  5.36866E+03 -9.66277E+03  1.28296E+04 -5.75092E+03
  1.57725E+04  1.12195E+03  1.15947E+04  9.24987E+03  2.41123E+03  1.18332E+04 -6.88446E+03  1.07728E+04
 -8.78659E+03  3.01835E+03 -4.21701E+03 -2.04166E+03  1.83444E+03 -2.36228E+03  6.00023E+03 -1.09200E+03
  5.46690E+03  4.73636E+03  1.10939E+03  8.03744E+03 -5.92842E+03  7.76633E+03 -9.84739E+03  1.96915E+03
 -7.01458E+03 -5.04215E+03 -2.52613E+02 -8.64131E+03  5.25655E+03 -3.78700E+03  6.36173E+03  1.39641E+03
  6.53969E+02  5.40475E+03 -4.96454E+03  6.54703E+03 -7.78660E+03  2.64478E+03 -6.87474E+03 -2.35688E+03
 -4.24251E+03 -8.46337E+03  2.14784E+03 -1.01782E+04  8.88662E+03 -6.74686E+03  9.74182E+03  1.52227E+03
  5.99832E+03  7.39160E+03 -7.38103E+02  9.30472E+03 -6.42622E+03  5.87223E+03 -7.27299E+03 -6.88688E+02
 -6.72891E+03 -6.81428E+03 -9.33621E+02 -6.87159E+03  3.84943E+03 -5.33618E+03  3.68653E+03 -3.10032E+03
  3.81813E+03  5.76342E+02 -4.47472E+02  1.60837E+03 -2.94461E+02 -1.07143E+03  7.42606E+02 -4.19005E+03
  5.39528E+03 -2.24785E+03  8.47053E+03  5.61335E+02  8.48100E+03  4.70176E+03  6.68726E+03  1.04252E+04
 -2.09237E+03  1.18563E+04 -1.08342E+04  9.61542E+03 -1.44064E+04  1.61488E+03 -1.12081E+04 -4.40045E+03
 -6.14110E+03 -9.38887E+03 -8.12516E+02 -7.47966E+03  3.07287E+03 -3.30475E+03  2.53462E+03 -2.80115E+03
  1.98339E+03 -2.02710E+03  2.28100E+03 -2.80139E+03  3.65008E+03 -2.16534E+03  4.55616E+03 -3.03775E+02
  6.07390E+03  1.48667E+03  1.78721E+03  5.40967E+03 -2.11415E+03  4.29518E+03 -5.88670E+03  4.18419E+03
 -6.64908E+03 -1.34326E+03 -3.50360E+03 -5.32178E+03  3.99438E+02 -7.24591E+03  4.32635E+03 -8.08557E+03
  7.49591E+03 -4.04830E+03  1.00304E+04  8.34267E+02  6.67707E+03  6.30018E+03  9.71059E+02  8.68642E+03
 -3.37355E+03  7.74656E+03 -4.37002E+03  3.10747E+03 -2.53316E+03 -1.23127E+03 -6.15528E+02 -8.61661E+02
 -5.80511E+02  2.57859E+02 -1.19669E+03  2.34639E+03 -3.69600E+03  1.59989E+03 -4.91478E+03 -6.87882E+02
 -2.99940E+03 -5.24986E+03  7.44410E+02 -7.31512E+03  4.10739E+03 -5.99827E+03  6.37072E+03 -1.80843E+03
  6.48491E+03  3.98931E+03  2.46434E+03  5.37424E+03 -1.63449E+03  6.82754E+03 -4.26367E+03  4.13740E+03
 -5.56976E+03  1.57483E+02 -4.14273E+03 -4.16104E+03 -4.99984E+01 -5.01582E+03  2.49186E+03 -3.83525E+03
  4.54960E+03 -1.70029E+03  3.05853E+03  1.11659E+03  1.11639E+03  2.76262E+03  9.74388E+02  1.09873E+03
  1.77502E+03  1.87288E+02  1.89671E+03  8.96051E+02  1.49549E+03  2.99722E+03  1.77349E+03  2.97242E+03
 -1.61321E+03  4.02204E+03 -4.32946E+03  5.70437E+03 -5.13767E+03  2.02239E+03 -6.02674E+03 -1.52825E+03
 -3.73270E+03 -5.61227E+03  6.03005E+02 -7.18639E+03  3.32822E+03 -4.63352E+03  5.22359E+03 -1.69506E+03
  3.88878E+03  1.99371E+03  3.47364E+02  4.10464E+03 -1.06834E+03  2.24039E+03 -1.35880E+03 -4.39131E+02
 -1.30275E+03 -1.91554E+03  2.01542E+03 -2.73695E+03  1.97423E+03 -1.84673E+03  2.63106E+03 -5.96850E+00
  1.57518E+03  8.42737E+02  1.49657E+03 -3.83789E+02 -3.46667E+02  1.56666E+03  2.14370E+03 -8.77381E+01
  3.28357E+02 -8.20689E+01  2.36382E+03  6.48762E+02  1.14040E+03  3.01424E+03 -1.72629E+02  4.05050E+03
 -2.59341E+03  2.00753E+03 -3.28592E+03  8.30693E+02 -2.89155E+03 -5.19348E+02 -7.43156E+02 -1.90173E+03
  3.79889E+02 -1.35095E+03  1.07909E+03 -1.26425E+03  1.23233E+03  1.66552E+03 -6.40401E+02  1.83214E+03
 -2.60589E+03  1.49846E+03 -2.13389E+03 -1.35622E+03 -1.49304E+03 -2.37754E+03  6.34512E+02 -2.74309E+03
  1.32115E+03 -9.56346E+02  1.90733E+03 -3.46555E+02  1.56525E+03 -1.39603E+02  6.48407E+02  2.10430E+03
 -1.26423E+03  5.27262E+02 -1.28756E+03 -8.91436E+02  1.07479E+03 -2.01744E+03  3.10000E+03 -1.67310E+03
  2.48940E+03  8.32628E+02  3.33319E+03  1.37579E+03  1.95272E+03  3.41412E+03 -4.85827E+02  3.33368E+03
 -2.17642E+03  1.47679E+03 -2.47096E+03 -4.84987E+02 -2.26714E+03 -1.90255E+03  5.31115E+02 -1.68978E+03
  2.17465E+03 -8.43710E+02  1.28803E+03  1.02517E+03  2.02505E+01  2.58805E+03  5.37397E+02  1.64072E+03
 -5.46364E+02  1.28329E+03 -8.73728E+02 -1.46183E+02 -4.15314E+02  4.76816E+02 -1.21428E+03  7.18723E+02
 -1.42944E+03  1.97497E+03 -2.11523E+03  7.87884E+02 -2.90047E+03 -3.89033E+02 -3.30957E+03 -2.20279E+03
 -1.71856E+03 -3.39499E+03  7.55032E+02 -4.65758E+03  2.34214E+03 -3.45581E+03  3.71298E+03 -1.97557E+03
  3.49468E+03  3.67088E+02  1.81430E+03  2.21974E+03  5.41759E+01  2.91602E+03 -1.57926E+03  2.15112E+03
 -2.13231E+03  1.08658E+03 -1.21009E+03 -3.58977E+02  2.06973E+02  6.22542E+02 -9.90924E+02  4.70831E+02
 -1.06170E+03 -3.14504E+02 -1.30241E+03 -3.97927E+02  2.41862E+02 -1.13348E+03 -9.16814E+02 -1.00713E+03
  1.67442E+03 -8.40059E+02  1.47364E+03  3.17274E+02  1.63583E+03  9.20214E+02 -2.47421E+02  2.75661E+03
 -1.47197E+03  3.52131E+03 -2.70508E+03  2.00572E+03 -3.02880E+03 -1.55484E+02 -1.78738E+03 -2.28140E+03
 -1.52198E+03 -1.98207E+03  9.41739E+02 -1.91844E+03  1.40589E+03 -1.32557E+03  8.40263E+02  1.39217E+02
  8.14042E+02  9.91001E+02  2.61588E+00  2.62643E+02 -6.80650E+02 -3.15458E+02 -3.01846E+02 -6.84521E+02
 -6.04362E+01 -2.39841E+02  2.41885E+02  2.05059E+02  4.44685E+02  8.59745E+02  9.00890E+01  8.54247E+02
 -7.31119E+02  1.04451E+03 -1.17251E+03  2.27000E+02 -1.19559E+03 -1.34782E+03 -2.53709E+02 -2.09182E+03
  6.65503E+02 -1.64827E+03  1.05032E+03 -2.36286E+02  1.40919E+03 -4.01707E+02  4.85183E+02  8.86339E+02
  4.31455E+02  8.52255E+02 -6.24917E+02  1.11811E+03 -5.12905E+02  8.35353E+02 -5.87782E+02 -7.24221E+01
 -2.72255E+01  1.45893E+02 -1.32357E+03  3.32898E+02 -5.64536E+02 -3.98691E+01 -1.24634E+03 -7.59149E+02
 -2.07029E+03  9.72056E+01 -6.89826E+02 -2.09788E+03  5.47977E+02 -2.26858E+03  8.94229E+02 -7.36598E+02
  1.08447E+03 -1.55356E+02 -3.79865E+02  9.88973E+02 -4.20234E+02  1.87650E+03 -1.31485E+03  1.06287E+03
