 $NMID ID='MM_0lb_SNR400_11hz_g50_52.RAW', FMTDAT='(8E13.5)'
 TRAMP=1., VOLUME=1. $END
  3.09451E+05  1.17758E+03  3.38121E+05  2.50331E+05  8.48655E+04  3.38107E+05 -1.32363E+05  2.51876E+05
 -1.90848E+05  8.43635E+04 -1.12417E+05 -3.19967E+04  9.04487E+02 -5.02927E+04  5.38001E+04 -3.05483E+02
  3.59749E+04  5.27598E+04 -1.63805E+04  7.54748E+04 -6.04643E+04  6.43712E+04 -8.50194E+04  3.23765E+04
 -8.18131E+04 -1.14797E+04 -5.74266E+04 -5.18387E+04 -1.52962E+04 -7.00513E+04  2.81108E+04 -4.55901E+04
  4.03514E+04  3.27918E+03  1.70134E+04  4.85839E+04 -3.53835E+04  4.75379E+04 -6.77788E+04  3.48243E+02
 -5.46112E+04 -5.73382E+04 -6.95751E+03 -7.80451E+04  3.45119E+04 -5.65024E+04  4.83446E+04 -1.76192E+04
  4.45061E+04  1.14440E+04  3.28577E+04  2.63063E+04  1.60157E+04  3.13702E+04 -5.11143E+03  2.76936E+04
 -2.17764E+04  1.20445E+04 -1.89158E+04 -5.46859E+03  6.40153E+03 -7.40134E+03  2.28279E+04  1.28339E+04
  7.73879E+03  3.65902E+04 -3.33835E+04  3.65717E+04 -6.48639E+04  1.38985E+03 -5.90883E+04 -4.34168E+04
 -1.26377E+04 -6.42068E+04  4.06217E+04 -4.61179E+04  5.91518E+04 -2.45267E+03  3.59845E+04  3.34817E+04
 -6.04958E+03  3.87621E+04 -3.13247E+04  1.74435E+04 -3.24788E+04 -3.94804E+03 -1.87692E+04 -1.12275E+04
 -9.28782E+03 -1.38751E+04 -9.06834E+02 -1.87207E+04  8.64630E+03 -2.37501E+04  1.56975E+04 -1.29542E+04
  1.02503E+04  6.22566E+03 -8.85665E+03  1.35012E+04 -2.25611E+04 -5.84286E+03 -9.18773E+03 -3.61268E+04
  2.48632E+04 -4.56496E+04  5.08816E+04 -2.03323E+04  4.79874E+04  1.98573E+04  1.76005E+04  4.55664E+04
 -1.60865E+04  3.51261E+04 -2.64276E+04  2.02407E+03 -1.11117E+04 -2.89300E+04  2.15551E+04 -3.56616E+04
  4.33775E+04 -1.02285E+04  3.86998E+04  2.41601E+04  1.93398E+04  4.95589E+04 -8.77462E+03  5.34099E+04
 -3.42373E+04  3.70605E+04 -4.50066E+04  1.09261E+04 -4.53951E+04 -1.75554E+04 -2.47540E+04 -4.06317E+04
  7.51761E+03 -4.05739E+04  3.36547E+04 -1.60615E+04  3.01708E+04  9.69297E+03  5.03151E+03  1.99783E+04
 -1.43050E+04  8.62040E+03 -1.11091E+04 -7.45436E+03  5.14374E+03 -1.13131E+04  1.89086E+04  5.99453E+03
  1.43242E+04  2.32424E+04 -5.59136E+03  2.59614E+04 -2.31605E+04  1.30853E+04 -3.05619E+04 -3.64443E+03
 -2.24860E+04 -1.74966E+04 -1.05300E+04 -2.39392E+04  3.72392E+03 -2.35592E+04  1.87317E+04 -2.07800E+04
  2.94039E+04 -1.33809E+04  3.60431E+04  4.27295E+03  2.58079E+04  2.21145E+04  4.28110E+03  3.89853E+04
 -1.94839E+04  3.30675E+04 -2.99145E+04  1.12347E+04 -2.23022E+04 -1.00591E+04 -5.35545E+03 -1.34742E+04
  7.85978E+02 -2.17111E+03 -7.02831E+03  8.01763E+03 -1.84270E+04  5.28484E+03 -1.86698E+04 -8.59575E+03
 -1.12841E+04 -2.17464E+04  5.65253E+03 -2.63939E+04  1.66587E+04 -1.85647E+04  2.09574E+04 -8.94965E+02
  1.34812E+04  1.43083E+04 -1.75019E+03  2.13553E+04 -1.59627E+04  1.26538E+04 -2.15847E+04 -4.35796E+03
 -1.64884E+04 -1.89926E+04 -1.81044E+03 -2.59180E+04  1.27624E+04 -2.16444E+04  2.11766E+04 -1.02186E+04
  1.99883E+04 -2.34947E+00  1.42797E+04  4.46394E+03  8.69414E+03  1.72921E+03  1.01870E+04 -1.76107E+03
  1.94293E+04  2.64048E+03  2.26706E+04  1.65332E+04  1.51985E+04  3.46003E+04 -2.92835E+03  3.96619E+04
 -2.31457E+04  3.33391E+04 -3.75429E+04  1.75343E+04 -3.98822E+04 -3.16660E+03 -3.28925E+04 -2.33350E+04
 -1.36386E+04 -3.30795E+04  1.12064E+04 -2.89332E+04  2.57512E+04 -1.41156E+04  2.18769E+04  6.33738E+03
  8.15232E+03  1.66178E+04 -9.88114E+03  1.43180E+04 -1.83670E+04  1.59610E+03 -1.38361E+04 -1.21871E+04
 -2.87979E+02 -1.75098E+04  9.98704E+03 -1.36356E+04  1.17259E+04 -1.52414E+03  3.03930E+03  7.98937E+03
 -7.91327E+03  3.25079E+03 -7.73654E+03 -6.57868E+03 -1.46893E+03 -1.67734E+04  1.05321E+04 -1.76334E+04
  2.07322E+04 -9.28569E+03  2.27065E+04  2.86376E+03  1.97950E+04  1.65582E+04  8.97177E+03  2.54289E+04
 -4.51401E+03  2.74847E+04 -1.83551E+04  1.71621E+04 -1.93421E+04  3.40366E+03 -1.30505E+04 -5.34046E+03
 -6.50589E+03 -5.71425E+03 -4.39438E+02  1.02333E+03 -2.68565E+03  3.29210E+03 -6.40258E+03  4.53599E+03
 -1.22824E+04 -7.84127E+02 -1.33913E+04 -1.10265E+04 -5.53318E+03 -1.77722E+04  5.76501E+03 -1.38258E+04
  1.14834E+04 -5.80266E+03  8.21250E+03  4.40949E+03 -4.88561E+01  5.10506E+03 -6.67605E+03  6.54300E+01
 -7.26336E+03 -8.64161E+03 -1.09742E+03 -1.29478E+04  7.79825E+03 -1.45558E+04  1.73445E+04 -7.79556E+03
  2.10308E+04  9.02202E+02  1.49417E+04  1.22482E+04  3.35730E+03  1.62445E+04 -8.95813E+03  1.35465E+04
 -1.08522E+04  3.84914E+03 -6.05191E+03 -2.61599E+03  2.12954E+03 -3.52485E+03  7.48978E+03 -1.02724E+03
  6.45392E+03  5.81997E+03  8.81106E+02  1.04749E+04 -8.41225E+03  9.73441E+03 -1.37199E+04  2.85617E+03
 -9.05912E+03 -7.04312E+03  7.43472E+02 -1.15580E+04  7.75258E+03 -6.47854E+03  8.13017E+03  2.45729E+03
  1.35754E+03  8.48039E+03 -7.60825E+03  1.04799E+04 -1.14777E+04  4.39629E+03 -1.16737E+04 -4.02859E+03
 -5.97510E+03 -1.30675E+04  3.68469E+03 -1.52950E+04  1.27586E+04 -9.28591E+03  1.39130E+04  2.25834E+03
  8.53814E+03  1.09680E+04 -1.09087E+03  1.35426E+04 -9.08734E+03  7.64549E+03 -1.08557E+04 -1.02681E+03
 -9.98505E+03 -8.91551E+03 -1.15344E+03 -1.00627E+04  5.04589E+03 -8.13319E+03  6.84730E+03 -3.59112E+03
  3.59451E+03  1.47088E+03 -8.59999E+02  1.42766E+03 -2.55131E+02 -2.95784E+03  2.28346E+03 -6.30067E+03
  9.16039E+03 -3.78269E+03  1.33431E+04  1.29475E+03  1.28828E+04  8.72948E+03  8.43129E+03  1.74865E+04
 -4.22532E+03  2.01078E+04 -1.72713E+04  1.40201E+04 -2.15330E+04  2.21807E+03 -1.69997E+04 -7.63489E+03
 -9.00434E+03 -1.38889E+04 -4.86315E+01 -1.18250E+04  4.04054E+03 -6.86217E+03  3.93530E+03 -4.53254E+03
  3.14233E+03 -2.75660E+03  3.35801E+03 -3.62938E+03  5.16047E+03 -2.66937E+03  6.83499E+03 -7.31633E+01
  9.21997E+03  1.03412E+03  5.41406E+03  7.74279E+03 -2.02509E+03  8.90386E+03 -9.28627E+03  6.88580E+03
 -1.14500E+04 -1.08209E+03 -6.64217E+03 -7.64971E+03 -9.31119E+02 -1.33735E+04  7.19603E+03 -1.25323E+04
  1.32594E+04 -6.99843E+03  1.53245E+04  1.83845E+03  1.14097E+04  1.10061E+04  2.01370E+03  1.45272E+04
 -5.78011E+03  1.17389E+04 -8.23687E+03  3.88667E+03 -5.29549E+03 -9.29287E+02 -2.76030E+03 -1.78680E+03
 -1.22502E+03 -6.88412E+02 -2.26569E+03  2.95301E+03 -5.17859E+03  1.59589E+03 -8.63011E+03 -1.16202E+03
 -5.83940E+03 -8.74186E+03  3.45326E+02 -1.26290E+04  7.14187E+03 -1.12374E+04  1.08147E+04 -3.44375E+03
  1.15076E+04  6.13529E+03  5.43333E+03  1.03339E+04 -2.79940E+03  1.13597E+04 -8.06105E+03  7.74915E+03
 -1.07689E+04 -1.05828E+02 -7.86378E+03 -6.86341E+03 -7.73201E+02 -1.04491E+04  4.13114E+03 -7.20786E+03
  7.42544E+03 -2.04214E+03  4.98065E+03  2.23361E+03  1.63137E+03  3.27503E+03  1.20694E+03  1.45750E+03
  2.56102E+03  6.75223E+02  2.64627E+03  2.01897E+03  3.91260E+03  3.91717E+03  3.83817E+03  6.19524E+03
 -2.70970E+03  8.91333E+03 -7.95641E+03  9.77525E+03 -1.18027E+04  2.47697E+03 -1.24157E+04 -4.69615E+03
 -5.67768E+03 -1.19936E+04  1.94607E+03 -1.33171E+04  7.08298E+03 -7.66378E+03  9.65617E+03 -2.01376E+03
  7.11412E+03  5.34894E+03  2.03724E+03  7.30232E+03 -3.88165E+03  4.74282E+03 -4.77074E+03 -4.56476E+02
 -1.88238E+03 -4.71703E+03  2.86499E+03 -4.88014E+03  4.75103E+03 -2.39025E+03  3.76848E+03  5.75119E+02
  2.61909E+03  2.24207E+03  1.51185E+03  1.72673E+03 -4.42696E+02  1.12488E+03  1.99879E+03 -7.84994E+02
  1.49848E+03 -6.19811E+02  4.86039E+03  1.76171E+03  2.73259E+03  6.48664E+03 -1.51212E+03  7.92554E+03
 -5.35785E+03  5.71213E+03 -7.20295E+03  1.39608E+03 -6.20443E+03 -2.55206E+03 -1.17255E+03 -3.69656E+03
  1.32029E+03 -4.84055E+03  2.64351E+03 -1.82139E+03  1.95780E+03  2.32356E+03 -1.67384E+03  3.45872E+03
 -4.75389E+03  2.85338E+03 -5.21064E+03 -2.33297E+03 -2.97060E+03 -6.22356E+03  1.64150E+03 -6.59720E+03
  3.54552E+03 -3.85316E+03  4.89742E+03 -4.27415E+02  2.70140E+03  1.82964E+03  1.10765E+03  3.65076E+03
 -2.54274E+03  1.59510E+03 -3.59227E+03 -1.72974E+03  1.62671E+03 -4.44408E+03  5.70754E+03 -4.26109E+03
  6.37370E+03  1.73950E+02  6.83185E+03  3.57093E+03  2.68437E+03  7.16888E+03 -1.96369E+03  7.07505E+03
 -6.09682E+03  2.86153E+03 -6.48658E+03 -9.23244E+02 -2.72343E+03 -4.88931E+03  8.53926E+02 -4.28587E+03
  4.51966E+03 -2.40893E+03  3.31368E+03  2.12948E+03  1.66439E+03  3.77293E+03 -4.91669E+02  3.64914E+03
 -1.43251E+03  2.16897E+03 -1.69246E+03  3.63896E+02 -9.35091E+02  3.38105E+02 -9.36441E+02  1.41137E+03
 -2.08543E+03  3.12370E+03 -5.39776E+03  3.00675E+03 -7.29669E+03  1.49316E+02 -8.57694E+03 -4.42181E+03
 -4.09532E+03 -9.78032E+03  2.10836E+03 -1.07524E+04  6.41145E+03 -8.33325E+03  1.02069E+04 -3.85145E+03
  1.00451E+04  1.80900E+03  6.28925E+03  6.64524E+03  2.21010E+02  7.26776E+03 -3.10783E+03  5.88531E+03
 -4.76458E+03  2.45056E+03 -2.68386E+03 -2.75307E+02 -7.28162E+02 -4.34985E+02 -8.20003E+01  3.04574E+02
 -2.08462E+03 -9.02231E+02 -1.94452E+03 -5.71536E+01  1.59916E+02 -1.64070E+03  2.57950E+02 -2.81726E+03
  2.91404E+03 -2.10283E+03  4.59218E+03  5.32630E+02  5.93837E+03  3.45930E+03  1.03367E+03  6.87276E+03
 -3.82797E+03  7.98540E+03 -7.55274E+03  4.28522E+03 -8.10805E+03 -5.20617E+02 -6.42383E+03 -5.62852E+03
 -3.44422E+03 -7.63539E+03  1.71938E+03 -6.76164E+03  4.66301E+03 -3.95199E+03  5.16576E+03  8.82407E+02
  2.74419E+03  2.46004E+03 -8.10644E+02  2.37290E+03 -9.52326E+02 -2.52554E+01  3.34562E+02 -1.31753E+03
  3.02185E+03 -1.12648E+03  2.20581E+03  1.23957E+03  1.62494E+03  2.40634E+03  5.69249E+02  3.89464E+03
 -3.03123E+03  3.19888E+03 -4.42969E+03  1.08408E+03 -4.80793E+03 -3.95650E+03 -5.09255E+02 -6.18933E+03
  3.45543E+03 -4.98809E+03  5.32019E+03 -1.27955E+03  5.40305E+03  6.99120E+02  3.27222E+03  3.25999E+03
  5.18070E+02  4.87004E+03 -1.91581E+03  4.74960E+03 -2.47070E+03  2.23628E+03 -2.36393E+03  5.44881E+02
 -1.24587E+03 -3.01283E+02 -1.49377E+03  8.87489E+02 -2.68292E+03  3.55207E+01 -3.86351E+03 -7.09853E+02
 -3.24917E+03 -1.64426E+03 -1.62644E+03 -4.85421E+03  2.17659E+03 -5.37894E+03  3.93498E+03 -2.00863E+03
  4.40438E+03  6.17324E+02  2.21929E+03  3.40744E+03 -3.94093E+02  4.75711E+03 -3.82440E+03  2.40716E+03
