 $NMID ID='MM_0lb_SNR400_9hz_g40_97.RAW', FMTDAT='(8E13.5)'
 TRAMP=1., VOLUME=1. $END
  3.09907E+05  5.26172E+02  3.37243E+05  2.49747E+05  8.50320E+04  3.38305E+05 -1.32894E+05  2.51563E+05
 -1.90714E+05  8.32509E+04 -1.11944E+05 -3.20523E+04  1.71493E+02 -5.03735E+04  5.36783E+04 -3.05580E+02
  3.59578E+04  5.28278E+04 -1.62502E+04  7.60620E+04 -6.11077E+04  6.44718E+04 -8.42473E+04  3.25848E+04
 -8.26030E+04 -1.25891E+04 -5.77247E+04 -5.23301E+04 -1.51582E+04 -7.07101E+04  2.75063E+04 -4.69120E+04
  4.02861E+04  4.13351E+03  1.61852E+04  4.82813E+04 -3.51443E+04  4.71384E+04 -6.79800E+04  8.78297E+02
 -5.45735E+04 -5.69174E+04 -6.96718E+03 -7.87263E+04  3.43932E+04 -5.64874E+04  4.89795E+04 -1.81116E+04
  4.50163E+04  1.10825E+04  3.27683E+04  2.60034E+04  1.55879E+04  3.13030E+04 -6.21326E+03  2.78177E+04
 -2.20458E+04  1.23781E+04 -1.87011E+04 -5.73832E+03  7.01830E+03 -7.30248E+03  2.40746E+04  1.29343E+04
  7.85043E+03  3.73351E+04 -3.30984E+04  3.70985E+04 -6.48335E+04  9.84464E+02 -5.83525E+04 -4.44261E+04
 -1.30125E+04 -6.55300E+04  4.10067E+04 -4.67708E+04  6.02050E+04 -2.20494E+03  3.62852E+04  3.34712E+04
 -6.44259E+03  3.90308E+04 -3.13303E+04  1.76933E+04 -3.34094E+04 -4.18481E+03 -1.93838E+04 -1.14858E+04
 -9.34551E+03 -1.53222E+04 -3.70655E+02 -1.92713E+04  7.97312E+03 -2.35935E+04  1.63244E+04 -1.26297E+04
  9.93193E+03  5.32982E+03 -1.05517E+04  1.26521E+04 -2.31559E+04 -5.68925E+03 -7.98875E+03 -3.68791E+04
  2.42972E+04 -4.58475E+04  5.13726E+04 -2.09198E+04  4.81541E+04  1.99811E+04  1.61268E+04  4.69762E+04
 -1.73369E+04  3.54024E+04 -2.77705E+04  3.00407E+03 -1.15730E+04 -2.96461E+04  2.20847E+04 -3.60229E+04
  4.34772E+04 -1.05898E+04  3.97746E+04  2.42593E+04  1.98825E+04  4.95734E+04 -8.03199E+03  5.52880E+04
 -3.46857E+04  3.70369E+04 -4.63651E+04  1.12346E+04 -4.68663E+04 -1.80864E+04 -2.57646E+04 -4.16277E+04
  7.43818E+03 -4.09232E+04  3.35379E+04 -1.65569E+04  3.09547E+04  1.17056E+04  4.08582E+03  2.00432E+04
 -1.41720E+04  9.65697E+03 -1.12675E+04 -7.21868E+03  5.91242E+03 -1.14982E+04  1.84244E+04  5.40951E+03
  1.48209E+04  2.27852E+04 -5.15209E+03  2.67357E+04 -2.32091E+04  1.38515E+04 -3.04667E+04 -2.60474E+03
 -2.43482E+04 -1.81690E+04 -1.11342E+04 -2.40198E+04  4.55281E+03 -2.49527E+04  1.86310E+04 -2.27267E+04
  3.11064E+04 -1.43999E+04  3.73331E+04  4.86382E+03  2.60608E+04  2.40991E+04  4.65311E+03  4.08311E+04
 -1.94405E+04  3.35351E+04 -3.00148E+04  1.13922E+04 -2.22557E+04 -1.01446E+04 -4.34705E+03 -1.22733E+04
  8.90640E+02 -1.86439E+03 -7.75343E+03  7.33046E+03 -1.92502E+04  4.93952E+03 -1.93176E+04 -9.04138E+03
 -1.18562E+04 -2.27716E+04  6.01000E+03 -2.69973E+04  1.81161E+04 -1.89868E+04  2.19938E+04 -1.81100E+03
  1.42848E+04  1.52788E+04 -1.09860E+03  2.22599E+04 -1.55737E+04  1.28247E+04 -2.28270E+04 -5.14914E+03
 -1.65650E+04 -2.08987E+04 -2.50344E+03 -2.66639E+04  1.26484E+04 -2.27907E+04  2.16264E+04 -1.13388E+04
  2.19267E+04 -1.99250E+02  1.55793E+04  5.16622E+03  8.01580E+03  1.95255E+03  1.12560E+04 -1.71236E+03
  2.10275E+04  3.36661E+03  2.43285E+04  1.76049E+04  1.68775E+04  3.56391E+04 -3.16295E+03  4.20521E+04
 -2.44316E+04  3.48318E+04 -4.04318E+04  1.83047E+04 -4.26318E+04 -3.39023E+03 -3.48188E+04 -2.51978E+04
 -1.36816E+04 -3.53985E+04  1.22724E+04 -3.15976E+04  2.65028E+04 -1.47103E+04  2.37696E+04  7.16215E+03
  8.69963E+03  1.81962E+04 -1.16131E+04  1.53116E+04 -1.97318E+04  2.96616E+03 -1.42636E+04 -1.24671E+04
  1.08088E+02 -1.85222E+04  9.67343E+03 -1.39170E+04  1.22844E+04 -1.67902E+03  3.42062E+03  8.27551E+03
 -8.43358E+03  3.76610E+03 -8.14882E+03 -7.28579E+03 -1.55281E+03 -1.68794E+04  1.21867E+04 -1.85985E+04
  2.23245E+04 -1.00450E+04  2.52727E+04  2.62948E+03  2.15473E+04  1.76415E+04  9.52141E+03  2.74785E+04
 -5.67458E+03  2.92268E+04 -1.96161E+04  1.88102E+04 -2.12127E+04  4.20865E+03 -1.38791E+04 -5.77384E+03
 -6.61940E+03 -6.77342E+03 -1.10090E+03  5.70941E+02 -3.15216E+03  3.10976E+03 -7.02888E+03  5.41139E+03
 -1.40662E+04 -8.90517E+02 -1.40628E+04 -1.17879E+04 -6.20235E+03 -1.81904E+04  4.99731E+03 -1.49229E+04
  1.28728E+04 -5.91468E+03  9.44688E+03  3.70225E+03  4.59686E+02  4.97725E+03 -7.50658E+03 -4.11972E+02
 -7.12579E+03 -9.25797E+03 -1.05347E+03 -1.45403E+04  8.76125E+03 -1.56260E+04  1.96388E+04 -8.18564E+03
  2.24931E+04  1.70224E+03  1.67642E+04  1.28733E+04  2.63366E+03  1.86464E+04 -1.03281E+04  1.51474E+04
 -1.13751E+04  3.94628E+03 -6.44698E+03 -3.14607E+03  1.92577E+03 -4.28633E+03  8.48056E+03 -1.54972E+03
  6.99470E+03  6.20866E+03  1.12459E+03  1.21376E+04 -8.30132E+03  1.13810E+04 -1.45459E+04  2.22056E+03
 -9.83463E+03 -8.54640E+03  2.13522E+02 -1.30114E+04  7.48207E+03 -7.08350E+03  8.33655E+03  2.91166E+03
  2.63865E+03  9.40550E+03 -7.23666E+03  1.12164E+04 -1.25757E+04  5.05011E+03 -1.38029E+04 -5.28778E+03
 -7.32127E+03 -1.49700E+04  3.67927E+03 -1.72141E+04  1.43879E+04 -1.04846E+04  1.66530E+04  2.34399E+03
  9.99893E+03  1.28894E+04 -2.00341E+03  1.43037E+04 -1.19385E+04  8.38766E+03 -1.18778E+04 -1.35888E+03
 -1.04313E+04 -9.43500E+03 -2.01666E+03 -1.19559E+04  6.73249E+03 -8.85647E+03  7.63701E+03 -3.23433E+03
  5.90056E+03  2.49384E+03 -1.24117E+03  1.94949E+03 -3.29251E+02 -3.53304E+03  2.30304E+03 -7.08592E+03
  1.12457E+04 -4.67281E+03  1.46318E+04  8.73343E+02  1.46087E+04  9.95931E+03  9.62261E+03  1.96890E+04
 -4.38978E+03  2.31583E+04 -1.89867E+04  1.66996E+04 -2.40757E+04  3.43440E+03 -1.99248E+04 -8.50198E+03
 -1.01522E+04 -1.65034E+04 -3.56369E+02 -1.44860E+04  5.47724E+03 -7.86161E+03  5.29283E+03 -4.42886E+03
  3.44336E+03 -2.53478E+03  3.74448E+03 -3.29319E+03  5.91822E+03 -3.31838E+03  7.75975E+03 -1.57532E+03
  9.75076E+03  2.29288E+03  5.09149E+03  8.43381E+03 -2.00010E+03  1.11596E+04 -1.07245E+04  8.25171E+03
 -1.40285E+04 -1.46668E+03 -8.60325E+03 -9.77934E+03 -8.20302E+02 -1.48137E+04  8.39917E+03 -1.49275E+04
  1.60314E+04 -8.73678E+03  1.80325E+04  2.63548E+03  1.27646E+04  1.30347E+04  1.85907E+03  1.77993E+04
 -7.16215E+03  1.39537E+04 -9.19268E+03  4.59863E+03 -7.57686E+03 -1.24869E+03 -2.74646E+03 -1.66523E+03
 -5.77472E+02 -1.99299E+02 -2.19435E+03  2.36914E+03 -6.73799E+03  2.39038E+03 -1.02559E+04 -1.04262E+03
 -6.85021E+03 -9.19536E+03 -3.10829E+02 -1.33227E+04  7.55619E+03 -1.27571E+04  1.30691E+04 -4.31175E+03
  1.33044E+04  6.26287E+03  6.32695E+03  1.21963E+04 -2.51814E+03  1.39851E+04 -9.85319E+03  8.84675E+03
 -1.29288E+04  2.24256E+02 -1.08085E+04 -8.50506E+03 -2.67720E+02 -1.17309E+04  6.17972E+03 -8.34881E+03
  9.33910E+03 -3.04072E+03  6.05792E+03  3.15763E+03  1.80484E+03  3.69666E+03  1.23090E+03  2.23125E+03
  2.55209E+03  8.62245E+02  3.97313E+03  1.78164E+03  4.17110E+03  4.97638E+03  3.43614E+03  7.27063E+03
 -2.81850E+03  1.13659E+04 -9.71867E+03  1.09451E+04 -1.44098E+04  2.72235E+03 -1.49719E+04 -6.28870E+03
 -6.84982E+03 -1.41614E+04  2.00486E+03 -1.49698E+04  8.61108E+03 -1.00587E+04  1.11129E+04 -2.06079E+03
  8.54882E+03  5.47220E+03  2.26941E+03  8.54758E+03 -3.59066E+03  5.75825E+03 -5.09820E+03 -7.37198E+02
 -2.82562E+03 -6.03642E+03  2.86557E+03 -7.61485E+03  5.47519E+03 -2.63995E+03  5.28353E+03  8.60305E+02
  3.66042E+03  3.94814E+03  8.49261E+02  1.86122E+03 -5.30677E+02  1.87401E+03  1.88080E+03 -5.51446E+02
  1.56991E+03 -2.84467E+02  5.83187E+03  2.34365E+03  3.81455E+03  7.54330E+03 -2.07538E+03  9.68999E+03
 -7.10239E+03  7.00874E+03 -8.68433E+03  1.91825E+03 -8.36810E+03 -3.03649E+03 -2.03706E+03 -5.19226E+03
  5.82647E+02 -5.59701E+03  3.42186E+03 -2.67403E+03  3.36052E+03  3.16212E+03 -9.98682E+02  4.49594E+03
 -5.80288E+03  2.97478E+03 -6.52213E+03 -2.49264E+03 -3.98018E+03 -8.02253E+03  2.08896E+03 -7.94259E+03
  4.44546E+03 -4.12519E+03  5.07500E+03 -1.10010E+03  4.49667E+03  2.04379E+03  5.42971E+01  4.37050E+03
 -2.94204E+03  1.84074E+03 -3.64768E+03 -2.93317E+03  1.41728E+03 -5.48594E+03  7.56266E+03 -5.12300E+03
  9.19697E+03  8.25604E+02  8.84664E+03  5.99810E+03  2.90764E+03  9.85381E+03 -2.67703E+03  9.03600E+03
 -7.66442E+03  3.37254E+03 -8.52788E+03 -9.05866E+02 -4.77273E+03 -5.45971E+03  1.35332E+03 -5.76274E+03
  6.19640E+03 -2.92210E+03  5.38122E+03  2.36057E+03  1.63767E+03  4.96693E+03 -7.83367E+02  4.29210E+03
 -1.93712E+03  2.65543E+03 -1.97608E+03  7.48001E+02 -1.38703E+03  1.61346E+03 -1.80187E+03  1.72904E+03
 -2.19804E+03  3.18288E+03 -5.97168E+03  3.84655E+03 -9.13341E+03  7.30720E+02 -1.08311E+04 -7.54744E+03
 -4.73036E+03 -1.28438E+04  2.76227E+03 -1.38513E+04  9.26744E+03 -1.06226E+04  1.37062E+04 -4.16174E+03
  1.22360E+04  2.36066E+03  7.27120E+03  8.90489E+03 -1.79208E+02  9.31602E+03 -3.97784E+03  8.25138E+03
 -5.21876E+03  2.74383E+03 -4.07767E+03 -4.14114E+02 -1.16369E+03 -4.60750E+02  3.91019E+02  5.80221E+02
 -1.59713E+03  1.29658E+02 -2.35672E+03 -2.27962E+02 -1.55837E+02 -3.13394E+03 -5.41635E+02 -4.41310E+03
  4.09197E+03 -3.49903E+03  5.97154E+03  1.02227E+01  6.59669E+03  5.11320E+03  1.33499E+03  1.06101E+04
 -4.35893E+03  1.06365E+04 -1.06083E+04  6.57481E+03 -1.21473E+04 -7.15442E+02 -8.97337E+03 -6.83351E+03
 -4.11916E+03 -1.00461E+04  2.23295E+03 -8.98802E+03  6.47234E+03 -4.56498E+03  6.41429E+03 -3.56272E+02
  3.36651E+03  3.05829E+03  5.35936E+02  2.68907E+03 -2.11020E+03 -4.23947E+02  1.32647E+02 -2.87840E+03
  3.11151E+03 -1.32789E+03  3.83166E+03  1.24103E+03  2.51338E+03  4.65146E+03 -2.93997E+02  5.80155E+03
 -4.70145E+03  4.54036E+03 -6.19234E+03  7.91449E+02 -5.71217E+03 -4.92661E+03 -1.37834E+02 -8.32800E+03
  4.79808E+03 -6.85688E+03  8.23419E+03 -1.78099E+03  7.67165E+03  2.48204E+03  3.72293E+03  5.86121E+03
  1.48454E+03  6.69516E+03 -2.71637E+03  5.65415E+03 -4.69615E+03  3.38021E+03 -3.37942E+03  4.84856E+02
 -1.95538E+03 -3.01498E+02 -1.16299E+03  1.19897E+03 -3.63934E+03  7.27153E+02 -5.07311E+03 -1.69509E+03
 -5.31374E+03 -3.68885E+03 -1.57613E+03 -6.32849E+03  3.19188E+03 -6.94259E+03  5.25443E+03 -3.12752E+03
  6.03095E+03  5.72250E+02  3.35024E+03  4.68561E+03 -1.16815E+03  6.81146E+03 -5.23112E+03  4.11929E+03
