 $NMID ID='MM_0lb_SNR400_19hz_g60_24.RAW', FMTDAT='(8E13.5)'
 TRAMP=1., VOLUME=1. $END
  3.10158E+05  1.81442E+02  3.37147E+05  2.50081E+05  8.48627E+04  3.37449E+05 -1.32112E+05  2.50464E+05
 -1.89657E+05  8.28120E+04 -1.11326E+05 -3.23329E+04  7.48156E+02 -5.08266E+04  5.40799E+04 -1.59514E+02
  3.52919E+04  5.28365E+04 -1.73934E+04  7.51394E+04 -6.09361E+04  6.31343E+04 -8.36518E+04  3.19712E+04
 -8.06065E+04 -1.15996E+04 -5.71339E+04 -5.05929E+04 -1.52321E+04 -6.90877E+04  2.66801E+04 -4.55367E+04
  3.97152E+04  3.83488E+03  1.59261E+04  4.78051E+04 -3.44688E+04  4.62883E+04 -6.58786E+04 -4.00508E+02
 -5.29371E+04 -5.62613E+04 -6.93358E+03 -7.60584E+04  3.39060E+04 -5.40395E+04  4.71248E+04 -1.68014E+04
  4.25324E+04  1.17622E+04  3.09616E+04  2.53397E+04  1.59304E+04  2.86448E+04 -4.66060E+03  2.70134E+04
 -2.18377E+04  1.23217E+04 -1.88998E+04 -4.66341E+03  4.66885E+03 -7.85879E+03  2.16975E+04  1.22019E+04
  8.02500E+03  3.43983E+04 -3.07283E+04  3.47431E+04 -6.19823E+04  2.47916E+03 -5.65512E+04 -4.21414E+04
 -1.22299E+04 -6.18704E+04  3.90959E+04 -4.45152E+04  5.68232E+04 -2.03958E+03  3.31429E+04  3.18248E+04
 -6.21055E+03  3.41821E+04 -2.87119E+04  1.44056E+04 -2.96480E+04 -5.90773E+03 -1.55082E+04 -1.09392E+04
 -8.11391E+03 -1.22297E+04 -5.99954E+02 -1.74965E+04  6.94718E+03 -2.28152E+04  1.51630E+04 -1.36184E+04
  1.17883E+04  4.66195E+03 -7.32705E+03  1.31575E+04 -2.01524E+04 -3.28187E+03 -7.88603E+03 -3.16467E+04
  2.19343E+04 -4.20245E+04  4.61299E+04 -1.90629E+04  4.34373E+04  1.86402E+04  1.50806E+04  4.28158E+04
 -1.57171E+04  3.16765E+04 -2.40764E+04  1.25629E+03 -8.83562E+03 -2.68760E+04  2.06886E+04 -3.18933E+04
  3.95073E+04 -8.06218E+03  3.35436E+04  2.25790E+04  1.64839E+04  4.42222E+04 -8.05268E+03  4.70679E+04
 -2.96004E+04  3.13163E+04 -4.01084E+04  9.17679E+03 -4.01620E+04 -1.59261E+04 -2.23401E+04 -3.52749E+04
  7.20742E+03 -3.57073E+04  3.02678E+04 -1.35555E+04  2.76474E+04  1.05291E+04  3.47380E+03  1.83080E+04
 -1.36118E+04  7.70665E+03 -9.59863E+03 -7.90176E+03  6.28739E+03 -1.03601E+04  1.77801E+04  6.54974E+03
  1.24856E+04  2.17046E+04 -6.36802E+03  2.40563E+04 -2.19312E+04  9.73267E+03 -2.57046E+04 -6.07327E+03
 -1.82134E+04 -1.69602E+04 -6.81575E+03 -1.81523E+04  4.00266E+03 -1.65259E+04  1.34428E+04 -1.54205E+04
  2.29843E+04 -1.16913E+04  2.96226E+04  1.15321E+03  2.23771E+04  1.74807E+04  4.32907E+03  3.39780E+04
 -1.67924E+04  2.88543E+04 -2.65858E+04  9.90761E+03 -2.01633E+04 -1.05958E+04 -3.73825E+03 -1.37134E+04
  2.16697E+03 -4.15742E+03 -3.81762E+03  5.77419E+03 -1.41018E+04  5.42661E+03 -1.42775E+04 -5.84167E+03
 -8.99097E+03 -1.68031E+04  4.84250E+03 -2.02676E+04  1.30916E+04 -1.45750E+04  1.54345E+04 -1.55005E+03
  9.36004E+03  1.15762E+04 -9.54585E+02  1.73893E+04 -1.10377E+04  9.17013E+03 -1.59731E+04 -3.50998E+03
 -1.22677E+04 -1.50949E+04 -1.47773E+03 -2.01779E+04  9.19443E+03 -1.59276E+04  1.66058E+04 -8.11797E+03
  1.52610E+04  6.06679E+02  1.08311E+04  3.93435E+03  5.28926E+03  1.13567E+03  8.29710E+03 -1.12817E+03
  1.46593E+04  2.63442E+03  1.64839E+04  1.31701E+04  8.86818E+03  2.62403E+04 -2.88919E+03  2.81642E+04
 -1.70860E+04  2.23716E+04 -2.56420E+04  1.01810E+04 -2.68867E+04 -1.96141E+03 -2.29186E+04 -1.55328E+04
 -1.03457E+04 -2.19617E+04  8.04767E+03 -2.04384E+04  1.76745E+04 -1.13887E+04  1.66004E+04  4.17400E+03
  6.22963E+03  1.21183E+04 -7.52173E+03  1.11635E+04 -1.39077E+04  2.75918E+03 -1.11407E+04 -8.54111E+03
  7.86564E+01 -1.35761E+04  6.32777E+03 -1.00476E+04  7.88985E+03 -1.30750E+03  1.82939E+03  5.22853E+03
 -5.82908E+03  1.29440E+03 -4.33506E+03 -4.57857E+03  3.93322E+02 -1.10781E+04  8.35261E+03 -1.05846E+04
  1.26958E+04 -5.02017E+03  1.28621E+04  2.44452E+03  1.15804E+04  1.02137E+04  5.50534E+03  1.49625E+04
 -1.73992E+03  1.73012E+04 -1.09481E+04  1.08754E+04 -1.22644E+04  3.07413E+03 -9.38924E+03 -2.43229E+03
 -4.83594E+03 -3.74207E+03 -9.09783E+02  1.61916E+03 -1.86642E+03  1.98163E+03 -3.63644E+03  3.81676E+03
 -8.38595E+03 -1.92881E+02 -9.13906E+03 -7.34276E+03 -3.49736E+03 -1.21944E+04  3.36051E+03 -8.83786E+03
  7.67600E+03 -4.08039E+03  5.25876E+03  2.51512E+03  3.71501E+02  3.36516E+03 -3.81551E+03 -1.60705E+02
 -3.73387E+03 -5.37964E+03 -4.96008E+02 -7.56293E+03  4.73691E+03 -8.52135E+03  1.02920E+04 -4.10870E+03
  1.20932E+04  1.11727E+03  8.88666E+03  6.30195E+03  1.58378E+03  8.97455E+03 -4.97309E+03  8.77938E+03
 -7.81596E+03  2.94221E+03 -3.60122E+03 -1.29651E+03  7.70611E+02 -2.45898E+03  5.73312E+03 -6.58859E+02
  4.55090E+03  3.59125E+03  1.15006E+03  6.71637E+03 -4.46803E+03  6.55405E+03 -8.40301E+03  1.29501E+03
 -5.05624E+03 -3.82786E+03  3.46748E+02 -6.40473E+03  3.80176E+03 -3.62760E+03  3.56416E+03  1.30850E+03
  8.83926E+02  3.64362E+03 -4.27513E+03  4.81449E+03 -5.26863E+03  2.26199E+03 -4.59960E+03 -9.10720E+02
 -2.95948E+03 -6.37375E+03  1.03538E+03 -7.08557E+03  6.39094E+03 -4.79987E+03  6.47121E+03  1.17846E+03
  5.03112E+03  5.48384E+03  8.22470E+01  7.32629E+03 -4.93035E+03  4.61600E+03 -5.32687E+03 -5.19401E+02
 -5.85900E+03 -5.15973E+03 -1.08491E+03 -5.45009E+03  2.75938E+03 -4.64739E+03  2.64444E+03 -2.33143E+03
  3.54673E+03  4.79734E+02 -3.59176E+02  1.21457E+03  7.09539E+02  1.02606E+02 -3.58852E+02 -1.90282E+03
  3.85850E+03 -6.41045E+02  5.95292E+03  8.26585E+02  5.52644E+03  3.33997E+03  5.55579E+03  7.44819E+03
 -1.67263E+03  8.63048E+03 -8.11571E+03  6.50374E+03 -1.01925E+04  1.32523E+03 -7.92028E+03 -2.81897E+03
 -4.07108E+03 -6.58663E+03 -9.58914E+02 -4.91327E+03  2.40837E+03 -2.47361E+03  1.67454E+03 -2.55176E+03
  1.80600E+03 -1.43575E+03  2.80000E+03 -2.60688E+03  3.64542E+03 -1.45525E+03  3.40812E+03 -7.96521E+01
  4.67719E+03  1.28472E+03  1.71470E+03  3.44847E+03 -1.97552E+03  2.46430E+03 -4.58572E+03  2.39397E+03
 -4.61084E+03 -1.91089E+03 -1.83398E+03 -3.83529E+03  4.32545E+02 -4.89600E+03  2.86843E+03 -5.10701E+03
  5.39351E+03 -3.11064E+03  6.64500E+03  2.94904E+02  5.26975E+03  4.46177E+03  8.29089E+02  6.95252E+03
 -2.06298E+03  5.76682E+03 -3.51876E+03  2.24514E+03 -2.21731E+03 -1.67294E+03 -7.36563E+02 -5.99146E+02
 -6.90991E+02  4.10829E+02 -1.24598E+03  1.97089E+03 -3.19604E+03  1.09651E+03 -4.03947E+03 -1.91507E+02
 -1.68238E+03 -4.11602E+03  2.54918E+02 -4.01438E+03  2.64075E+03 -4.03413E+03  3.76197E+03 -9.34868E+02
  4.13799E+03  3.31814E+03  1.82498E+03  3.40020E+03 -7.09963E+02  5.13942E+03 -1.89145E+03  2.45472E+03
 -3.70643E+03  5.54171E+02 -3.05258E+03 -2.42184E+03 -4.97630E+02 -2.97328E+03  1.47468E+03 -2.22548E+03
  2.24659E+03 -1.41268E+03  1.43674E+03  4.73354E+02 -2.07015E+02  1.39596E+03  1.03205E+03  2.91105E+02
  2.11892E+03  6.77663E+02  1.28934E+03  1.02347E+03  1.11735E+03  2.13117E+03  7.05570E+02  1.63229E+03
 -1.28274E+03  2.71919E+03 -2.59113E+03  4.18146E+03 -2.56206E+03  1.35289E+03 -3.72423E+03 -2.56213E+02
 -1.33203E+03 -3.46927E+03  8.11784E+02 -4.17651E+03  1.67146E+03 -2.55977E+03  2.59414E+03 -8.21673E+02
  2.20731E+03  1.51026E+03  3.40844E+02  2.06586E+03 -5.29976E+02  9.86585E+02 -1.22976E+03  6.53853E+02
 -1.03707E+03 -1.47720E+03  1.71494E+03 -1.44951E+03  1.75263E+03 -1.10539E+03  1.11116E+03  5.74725E+01
  6.94110E+02  3.21676E+02  1.17924E+03 -3.41108E+02 -1.26389E+02  1.16658E+03  1.35202E+03 -4.94723E+02
 -2.31257E+02 -4.09051E+02  1.77373E+03  5.61171E+02  6.22844E+01  2.38369E+03 -1.20434E+02  2.55920E+03
 -1.53707E+03  2.59483E+02 -1.50735E+03  3.53219E+02 -1.92903E+03 -7.56329E+02  3.03186E+02 -7.84996E+02
  8.86961E+02 -1.49035E+03  6.91417E+02 -1.91613E+02  8.16271E+02  1.37594E+03 -6.01215E+02  7.58687E+02
 -1.28641E+03  5.55013E+02 -8.31906E+02 -1.29772E+03 -7.38237E+02 -1.85295E+03  2.40147E+02 -1.75929E+03
  3.46663E+01  1.56355E+02  3.69371E+02 -7.29535E+01  8.73147E+02 -8.67402E+01  1.03325E+02  1.03514E+03
 -4.80208E+02 -3.29845E+01 -1.30404E+03  4.27389E+01  1.02685E+03 -7.30532E+02  1.80368E+03 -1.03723E+03
  1.55569E+03  2.43212E+02  2.40237E+03  3.92531E+02  9.37692E+02  1.44239E+03  6.13642E+01  9.56803E+02
 -1.02541E+03 -1.00509E+02 -9.46042E+02 -1.05170E+02 -1.03233E+03 -1.02783E+03  5.39600E+02  6.52452E+01
  1.66206E+03 -2.52383E+02  6.16602E+02  9.02618E+02  1.63695E+02  1.20289E+03  8.11652E+02  7.78813E+02
 -3.82146E+02  6.66861E+02 -7.04355E+02  9.59771E+01  4.78633E+02  3.08297E+02 -1.03640E+03  6.57320E+02
 -1.36099E+03  6.65811E+02 -1.10370E+03  4.32699E+02 -1.10393E+03 -1.67972E+02 -2.50632E+03 -1.25619E+03
 -1.34281E+03 -2.17427E+03  7.38277E+02 -2.42321E+03  6.65721E+02 -1.98666E+03  2.79325E+03 -1.10224E+03
  1.48530E+03 -6.42931E+01  3.07186E+02  1.39995E+03 -4.74625E+02  8.32185E+02 -5.37802E+02  8.18475E+02
 -8.45590E+02  6.10788E+02 -3.32558E+02  3.37673E+02 -3.28735E+02 -4.68007E+02 -1.66068E+02  2.01918E+02
 -9.17290E+02  2.59013E+01 -7.56322E+02  1.05177E+02  6.27311E+02 -1.67449E+01 -4.55666E+02 -6.19459E+02
  1.31981E+03 -3.40694E+02  2.98156E+02  2.73403E+02  6.97648E+02  4.23726E+02 -1.82697E+02  7.11262E+02
 -9.91010E+02  2.08456E+03 -1.36195E+03  1.36000E+03 -1.35055E+03 -2.95228E+02 -1.16434E+03 -2.33347E+02
 -9.84397E+02 -8.70705E+02  9.64949E+02 -7.57314E+02  6.48090E+02 -4.51807E+02  6.23592E+02  5.60877E+02
  5.95055E+02  7.66247E+02  3.94060E+02  6.83689E+02  1.15414E+02 -4.90641E+02  1.15780E+02 -2.36877E+02
  3.81202E+02  5.48994E+01 -2.64177E+02  7.63462E+02  4.10692E+01  4.98684E+02  3.09346E+02 -5.89037E+01
 -9.93511E+02  3.23873E+02 -2.53763E+02 -2.86120E+02 -3.38154E+02 -1.57293E+02 -1.53810E+02 -7.24493E+02
 -1.10825E+02 -1.14527E+03  3.43691E+02  8.97138E+01  8.80259E+02 -3.43230E+02  4.58538E+02  5.53966E+02
  7.92794E+02  2.04441E+02  2.68731E+02  5.38869E+02 -6.07200E+02  8.64423E+02 -4.99426E+02  6.55241E+02
 -4.95017E+02  4.59107E+02 -7.81023E+02  2.34306E+02 -8.92179E+02  4.19943E+02 -4.26350E+02 -4.61319E+02
 -6.60458E+02  1.00136E+02 -1.73300E+02 -4.29062E+02  4.19757E+02 -1.12486E+03  4.09099E+02 -1.78819E+02
  8.33072E+02  1.03507E+01 -5.37429E+02 -1.55389E+02 -8.65917E+01  5.99206E+02 -3.02914E+02  3.38888E+02
