 $NMID ID='MM_0lb_SNR400_12hz_g60_92.RAW', FMTDAT='(8E13.5)'
 TRAMP=1., VOLUME=1. $END
  3.10254E+05  5.57473E+02  3.38014E+05  2.50214E+05  8.45464E+04  3.38224E+05 -1.32645E+05  2.51101E+05
 -1.90515E+05  8.38101E+04 -1.12445E+05 -3.26417E+04  2.18797E+02 -5.08829E+04  5.44683E+04 -2.42544E+02
  3.59540E+04  5.23540E+04 -1.64967E+04  7.56182E+04 -6.19568E+04  6.40558E+04 -8.49129E+04  3.26712E+04
 -8.22047E+04 -1.17203E+04 -5.81926E+04 -5.25340E+04 -1.54591E+04 -7.04457E+04  2.84525E+04 -4.62065E+04
  4.09355E+04  3.32764E+03  1.64135E+04  4.83470E+04 -3.49795E+04  4.78792E+04 -6.69658E+04 -3.05061E+02
 -5.42679E+04 -5.73445E+04 -6.75268E+03 -7.86675E+04  3.52574E+04 -5.69954E+04  4.96901E+04 -1.76775E+04
  4.47256E+04  1.15895E+04  3.24807E+04  2.63700E+04  1.62754E+04  2.98515E+04 -5.47798E+03  2.76292E+04
 -2.28776E+04  1.23680E+04 -1.81332E+04 -6.02231E+03  6.60449E+03 -7.02977E+03  2.28218E+04  1.31057E+04
  6.88528E+03  3.71036E+04 -3.35767E+04  3.59010E+04 -6.53577E+04  2.73614E+03 -5.83698E+04 -4.37731E+04
 -1.30627E+04 -6.51880E+04  4.07890E+04 -4.69316E+04  6.04335E+04 -2.22348E+03  3.62311E+04  3.38553E+04
 -5.50904E+03  3.86932E+04 -3.12866E+04  1.73401E+04 -3.32704E+04 -3.88164E+03 -1.83819E+04 -1.12553E+04
 -8.94507E+03 -1.43092E+04 -3.98041E+02 -1.97506E+04  8.94728E+03 -2.28440E+04  1.58099E+04 -1.37506E+04
  1.07442E+04  6.22049E+03 -1.00336E+04  1.29004E+04 -2.27920E+04 -5.53031E+03 -8.28190E+03 -3.59723E+04
  2.41602E+04 -4.61097E+04  5.06207E+04 -2.02719E+04  4.75360E+04  2.04494E+04  1.68966E+04  4.62912E+04
 -1.66281E+04  3.53786E+04 -2.72847E+04  2.03993E+03 -1.15204E+04 -2.90065E+04  2.16534E+04 -3.61315E+04
  4.32822E+04 -1.05686E+04  3.94569E+04  2.51524E+04  2.06964E+04  4.95383E+04 -8.42560E+03  5.45921E+04
 -3.41917E+04  3.64635E+04 -4.58728E+04  1.07684E+04 -4.60793E+04 -1.77403E+04 -2.54338E+04 -4.05432E+04
  7.52340E+03 -4.04526E+04  3.32139E+04 -1.57479E+04  3.02529E+04  1.11083E+04  4.82151E+03  2.05194E+04
 -1.38484E+04  8.87064E+03 -1.09624E+04 -7.42990E+03  4.93264E+03 -1.12607E+04  1.82326E+04  6.14445E+03
  1.49582E+04  2.24537E+04 -5.38998E+03  2.65845E+04 -2.28640E+04  1.33882E+04 -3.05376E+04 -2.96147E+03
 -2.42454E+04 -1.72933E+04 -1.05031E+04 -2.34699E+04  4.06513E+03 -2.32635E+04  1.81731E+04 -2.11874E+04
  2.96326E+04 -1.38577E+04  3.65866E+04  3.64687E+03  2.54265E+04  2.26860E+04  4.37411E+03  3.94554E+04
 -1.86634E+04  3.22092E+04 -2.96311E+04  1.11682E+04 -2.13594E+04 -1.00052E+04 -4.51748E+03 -1.28786E+04
  1.36070E+03 -1.55005E+03 -7.24056E+03  7.77920E+03 -1.90418E+04  5.40101E+03 -1.88645E+04 -8.49867E+03
 -1.14010E+04 -2.15651E+04  5.72324E+03 -2.60781E+04  1.73023E+04 -1.83349E+04  2.09719E+04 -1.30954E+03
  1.32752E+04  1.56521E+04 -1.16136E+03  2.14031E+04 -1.40185E+04  1.28825E+04 -2.13159E+04 -4.39450E+03
 -1.61651E+04 -1.89947E+04 -1.60571E+03 -2.64686E+04  1.24047E+04 -2.14781E+04  2.10745E+04 -1.14372E+04
  2.07460E+04  5.43815E+02  1.45673E+04  5.12422E+03  7.79114E+03  8.22777E+02  1.11425E+04 -1.29683E+03
  2.00726E+04  2.86572E+03  2.24897E+04  1.74333E+04  1.58354E+04  3.47233E+04 -3.25622E+03  3.98331E+04
 -2.26039E+04  3.34096E+04 -3.81235E+04  1.68288E+04 -4.08147E+04 -2.87958E+03 -3.26762E+04 -2.34673E+04
 -1.31822E+04 -3.33874E+04  1.22160E+04 -2.98040E+04  2.61774E+04 -1.41286E+04  2.23627E+04  6.58560E+03
  7.55838E+03  1.67799E+04 -1.06728E+04  1.41538E+04 -1.86453E+04  2.44284E+03 -1.37119E+04 -1.16760E+04
  3.11320E+02 -1.73636E+04  9.52009E+03 -1.27386E+04  1.22433E+04 -1.04383E+03  2.75815E+03  8.21556E+03
 -8.04198E+03  3.22566E+03 -8.20078E+03 -6.35411E+03 -7.78264E+02 -1.65144E+04  1.00802E+04 -1.68932E+04
  2.06167E+04 -9.42255E+03  2.27990E+04  2.87475E+03  2.04175E+04  1.64606E+04  9.01855E+03  2.58089E+04
 -4.19700E+03  2.71979E+04 -1.78829E+04  1.69557E+04 -1.94602E+04  3.81748E+03 -1.35878E+04 -5.38430E+03
 -5.95435E+03 -6.31169E+03 -1.77495E+02  9.74775E+02 -2.58510E+03  2.82038E+03 -5.83827E+03  4.93848E+03
 -1.29536E+04 -8.57498E+02 -1.31538E+04 -1.03712E+04 -5.15793E+03 -1.81223E+04  5.55044E+03 -1.39299E+04
  1.12812E+04 -5.76630E+03  7.48562E+03  3.77654E+03  3.24049E+02  5.16799E+03 -7.04784E+03  3.60172E+02
 -6.79182E+03 -8.85798E+03 -1.27922E+03 -1.32986E+04  7.48880E+03 -1.44234E+04  1.74767E+04 -7.42133E+03
  1.97762E+04  1.69733E+03  1.47488E+04  1.22076E+04  3.20509E+03  1.66895E+04 -8.86238E+03  1.33001E+04
 -1.13907E+04  4.23702E+03 -5.11607E+03 -2.96969E+03  2.06144E+03 -3.34818E+03  7.62792E+03 -1.23915E+03
  6.49658E+03  5.73453E+03  1.36184E+03  1.06518E+04 -7.76996E+03  1.04732E+04 -1.36618E+04  2.70508E+03
 -9.58945E+03 -6.68303E+03  7.96392E+02 -1.13713E+04  7.50094E+03 -6.12034E+03  7.93302E+03  2.66090E+03
  1.46672E+03  7.98139E+03 -7.26412E+03  9.76455E+03 -1.10222E+04  3.91954E+03 -1.07592E+04 -4.14809E+03
 -5.34313E+03 -1.32594E+04  3.85845E+03 -1.50121E+04  1.25493E+04 -9.02730E+03  1.43425E+04  1.94107E+03
  9.12526E+03  1.11263E+04 -6.77752E+02  1.34709E+04 -9.96551E+03  7.45600E+03 -1.09727E+04 -1.20189E+03
 -9.51179E+03 -8.56997E+03 -1.23792E+03 -9.43044E+03  4.74938E+03 -8.31400E+03  6.33516E+03 -3.30671E+03
  4.44836E+03  1.76531E+03 -3.44533E+02  2.36428E+03 -3.02505E+01 -2.50774E+03  1.67680E+03 -5.66316E+03
  9.27109E+03 -3.60746E+03  1.26363E+04  1.89716E+03  1.29687E+04  8.57434E+03  9.22975E+03  1.61257E+04
 -3.35866E+03  1.86165E+04 -1.58387E+04  1.49832E+04 -2.01056E+04  2.93959E+03 -1.70949E+04 -6.49461E+03
 -8.30954E+03 -1.36304E+04 -6.05161E+02 -1.18992E+04  4.02980E+03 -5.64667E+03  4.58954E+03 -4.96934E+03
  3.28549E+03 -3.14393E+03  3.99239E+03 -3.68272E+03  5.31855E+03 -2.58986E+03  7.55393E+03 -8.36421E+02
  8.57231E+03  1.66308E+03  4.86823E+03  7.18178E+03 -2.00052E+03  8.81019E+03 -8.70633E+03  7.03556E+03
 -1.13841E+04 -1.58349E+03 -6.68959E+03 -8.40476E+03 -9.81896E+02 -1.22961E+04  7.44264E+03 -1.18824E+04
  1.32798E+04 -6.83708E+03  1.52735E+04  2.35948E+03  1.07293E+04  1.13231E+04  1.74285E+03  1.39215E+04
 -5.87206E+03  1.15416E+04 -7.48529E+03  3.86375E+03 -5.46155E+03 -1.62992E+03 -1.57794E+03 -1.95457E+03
 -1.32192E+03  3.44225E+02 -2.07183E+03  3.16831E+03 -5.24211E+03  2.00212E+03 -8.04040E+03 -9.52927E+02
 -5.35584E+03 -8.27241E+03  4.81548E+02 -1.08726E+04  6.84444E+03 -9.85158E+03  1.13437E+04 -2.80509E+03
  1.03586E+04  5.28627E+03  5.13852E+03  9.52969E+03 -2.37308E+03  1.13628E+04 -8.35376E+03  6.95766E+03
 -9.91630E+03 -1.35150E+02 -8.58340E+03 -6.26594E+03 -9.62826E+02 -9.00253E+03  5.07373E+03 -6.40233E+03
  6.47161E+03 -2.48883E+03  5.30214E+03  1.67762E+03  1.89170E+03  3.84735E+03  1.55097E+03  1.41764E+03
  2.43277E+03  9.00764E+02  2.60581E+03  1.26940E+03  3.48203E+03  4.42168E+03  2.48227E+03  6.07105E+03
 -2.56718E+03  9.08570E+03 -7.69425E+03  8.61449E+03 -1.07482E+04  2.44117E+03 -1.13207E+04 -3.74522E+03
 -5.42007E+03 -1.04336E+04  1.57061E+03 -1.17836E+04  7.03980E+03 -8.15703E+03  9.43465E+03 -1.44845E+03
  6.89896E+03  3.84194E+03  1.62333E+03  5.73394E+03 -3.08804E+03  3.64982E+03 -3.82954E+03 -6.81108E+02
 -2.37069E+03 -5.12178E+03  2.66342E+03 -4.83933E+03  3.71181E+03 -2.90904E+03  4.22725E+03  1.40236E+03
  2.39691E+03  2.55441E+03  1.22989E+03  1.01705E+03 -4.33736E+02  1.73491E+03  2.63304E+03 -8.66034E+02
  9.90387E+02 -5.35172E+02  4.89108E+03  1.51783E+03  2.42214E+03  6.24828E+03 -1.15902E+03  7.46580E+03
 -5.19805E+03  4.75579E+03 -6.69872E+03  1.87240E+03 -5.68022E+03 -1.57946E+03 -2.52849E+03 -3.93127E+03
  7.11132E+02 -3.63187E+03  2.70471E+03 -1.59462E+03  2.89074E+03  2.65273E+03 -1.58738E+03  3.22468E+03
 -4.44987E+03  2.46164E+03 -5.07991E+03 -2.95321E+03 -2.76140E+03 -5.52593E+03  1.27610E+03 -6.43986E+03
  3.47909E+03 -2.59752E+03  4.40132E+03 -7.36279E+02  3.61928E+03  1.83266E+03  5.53474E+02  3.69989E+03
 -1.56621E+03  5.86991E+02 -3.15780E+03 -2.14294E+03  8.07861E+02 -3.48237E+03  4.94372E+03 -3.37491E+03
  6.02437E+03  1.43585E+03  6.66585E+03  4.71294E+03  2.07570E+03  6.74697E+03 -2.62107E+03  6.39055E+03
 -5.57528E+03  2.40330E+03 -5.87636E+03 -1.07439E+03 -3.24806E+03 -3.93592E+03  9.75701E+02 -3.99635E+03
  4.85604E+03 -2.18822E+03  3.11992E+03  2.09519E+03  7.93104E+02  4.00683E+03 -3.50773E+02  3.68799E+03
 -1.85717E+03  2.49968E+03 -1.55410E+03  1.01439E+03  1.17186E+01  1.18674E+03 -2.20913E+03  1.35111E+03
 -1.11874E+03  2.86574E+03 -5.15335E+03  2.45084E+03 -6.78612E+03 -3.86591E+01 -6.95653E+03 -4.90658E+03
 -3.31530E+03 -8.14100E+03  1.29310E+03 -9.94133E+03  5.63513E+03 -7.85148E+03  9.81967E+03 -3.23072E+03
  8.43888E+03  8.52588E+02  4.44910E+03  5.94700E+03  3.94479E+02  6.55396E+03 -2.52244E+03  4.81240E+03
 -4.38898E+03  2.19234E+03 -2.13707E+03 -1.28973E+03 -1.23761E+03 -3.88789E+02 -8.13098E+02 -1.87689E+02
 -7.46987E+02  3.77533E+02 -1.47742E+03 -2.36616E+02 -5.57440E+02 -1.95487E+03 -4.39685E+02 -2.55626E+03
  2.75997E+03 -2.62689E+03  4.23064E+03 -8.16614E+01  3.78766E+03  3.21490E+03  5.19559E+02  5.85336E+03
 -2.95244E+03  6.87136E+03 -6.65502E+03  3.95289E+03 -7.65050E+03 -8.39629E+02 -5.24041E+03 -5.34827E+03
 -2.01385E+03 -5.78905E+03  1.66366E+03 -6.62953E+03  3.97652E+03 -2.69398E+03  3.59237E+03  3.20872E+01
  2.72309E+03  1.87606E+03  4.28923E+02  1.78083E+03 -1.29756E+03  2.78961E+02 -3.07102E+02 -9.26046E+02
  2.04295E+03 -9.93632E+02  2.41673E+03  1.37619E+03  1.32886E+03  2.52845E+03  1.18618E+03  3.45696E+03
 -2.80715E+03  3.03323E+03 -3.95575E+03  2.61573E+02 -3.68907E+03 -3.03802E+03 -6.68293E+02 -5.78449E+03
  2.91402E+03 -3.86567E+03  4.67462E+03 -1.47737E+03  4.36130E+03  1.02341E+03  2.92880E+03  3.21377E+03
  8.45225E+02  3.66192E+03 -2.15819E+03  3.58769E+03 -2.43134E+03  1.91551E+03 -1.93317E+03 -9.23709E+01
 -8.02780E+02 -2.66066E+01 -7.62602E+02  6.64771E+02 -1.31516E+03  2.94592E+02 -3.05714E+03 -2.10392E+02
 -2.75782E+03 -1.51962E+03 -1.14483E+03 -3.94441E+03  2.20794E+03 -4.86013E+03  3.05693E+03 -2.01863E+03
  4.33938E+03  8.29796E+02  1.49589E+03  2.66716E+03  9.36169E+01  4.02993E+03 -2.85340E+03  2.65584E+03
