 $NMID ID='MM_0lb_SNR400_15hz_g50_49.RAW', FMTDAT='(8E13.5)'
 TRAMP=1., VOLUME=1. $END
  3.10242E+05  3.95752E+02  3.37396E+05  2.50290E+05  8.49824E+04  3.37526E+05 -1.33080E+05  2.50974E+05
 -1.89895E+05  8.31094E+04 -1.11278E+05 -3.21080E+04  8.01678E+02 -5.12173E+04  5.45717E+04  2.15384E+02
  3.50990E+04  5.29924E+04 -1.61898E+04  7.56979E+04 -6.08105E+04  6.35326E+04 -8.37557E+04  3.21336E+04
 -8.09003E+04 -1.09668E+04 -5.72426E+04 -5.10702E+04 -1.51623E+04 -6.86634E+04  2.72663E+04 -4.57155E+04
  4.03084E+04  4.03402E+03  1.58390E+04  4.72696E+04 -3.43804E+04  4.67254E+04 -6.64184E+04 -3.10901E+02
 -5.31198E+04 -5.63408E+04 -6.85649E+03 -7.60500E+04  3.36724E+04 -5.48923E+04  4.72981E+04 -1.68214E+04
  4.29434E+04  1.11631E+04  3.19774E+04  2.50721E+04  1.58357E+04  2.90312E+04 -5.59250E+03  2.74145E+04
 -2.21876E+04  1.24493E+04 -1.84065E+04 -4.91103E+03  5.66934E+03 -7.34530E+03  2.22342E+04  1.19286E+04
  7.67980E+03  3.50442E+04 -3.17706E+04  3.51986E+04 -6.21990E+04  1.90578E+03 -5.66442E+04 -4.23582E+04
 -1.24367E+04 -6.23164E+04  3.96197E+04 -4.53963E+04  5.75070E+04 -2.64915E+03  3.40933E+04  3.22655E+04
 -6.69645E+03  3.54233E+04 -3.01229E+04  1.56874E+04 -2.98673E+04 -4.80811E+03 -1.58868E+04 -1.09518E+04
 -8.20770E+03 -1.27894E+04 -4.96203E+02 -1.79964E+04  7.01172E+03 -2.31158E+04  1.54783E+04 -1.37929E+04
  1.18045E+04  4.51895E+03 -8.28116E+03  1.33984E+04 -2.05740E+04 -3.75040E+03 -8.30177E+03 -3.35775E+04
  2.24650E+04 -4.39230E+04  4.70735E+04 -1.97264E+04  4.42721E+04  1.92532E+04  1.53458E+04  4.34359E+04
 -1.59601E+04  3.26493E+04 -2.52552E+04  1.75850E+03 -9.22783E+03 -2.77071E+04  2.06722E+04 -3.34611E+04
  4.06016E+04 -9.49150E+03  3.53852E+04  2.37415E+04  1.80729E+04  4.58121E+04 -8.23764E+03  4.95754E+04
 -3.10397E+04  3.32637E+04 -4.09530E+04  9.55627E+03 -4.13097E+04 -1.65010E+04 -2.23987E+04 -3.71001E+04
  7.53005E+03 -3.72431E+04  3.11305E+04 -1.52981E+04  2.88695E+04  1.02431E+04  3.99202E+03  1.86279E+04
 -1.33869E+04  8.37385E+03 -1.04446E+04 -8.06241E+03  5.60032E+03 -1.13225E+04  1.75575E+04  6.21640E+03
  1.33478E+04  2.15145E+04 -6.39602E+03  2.47939E+04 -2.18610E+04  1.12684E+04 -2.74858E+04 -5.44168E+03
 -1.96663E+04 -1.73106E+04 -8.03650E+03 -2.02125E+04  3.99364E+03 -1.86140E+04  1.49326E+04 -1.72454E+04
  2.57691E+04 -1.21876E+04  3.14423E+04  2.61719E+03  2.29946E+04  1.86910E+04  4.32291E+03  3.55751E+04
 -1.70510E+04  2.97521E+04 -2.76032E+04  1.03164E+04 -2.06104E+04 -1.05838E+04 -4.11540E+03 -1.34641E+04
  2.03471E+03 -2.97094E+03 -3.78968E+03  6.39343E+03 -1.47881E+04  5.04812E+03 -1.59143E+04 -6.19852E+03
 -9.73730E+03 -1.91756E+04  5.04283E+03 -2.21907E+04  1.44466E+04 -1.65863E+04  1.71864E+04 -1.57536E+03
  1.12258E+04  1.28296E+04 -1.31571E+03  1.87207E+04 -1.26821E+04  1.00850E+04 -1.80887E+04 -4.07204E+03
 -1.32747E+04 -1.68661E+04 -1.96928E+03 -2.22048E+04  1.04608E+04 -1.79977E+04  1.85080E+04 -9.52507E+03
  1.74711E+04 -1.99189E+02  1.24670E+04  4.84415E+03  6.72804E+03  9.73741E+02  9.51199E+03 -1.37379E+03
  1.67002E+04  2.61706E+03  1.88033E+04  1.47355E+04  1.14925E+04  2.88094E+04 -2.73633E+03  3.26071E+04
 -1.95796E+04  2.62493E+04 -3.03285E+04  1.30202E+04 -3.16714E+04 -2.50500E+03 -2.59711E+04 -1.87552E+04
 -1.21366E+04 -2.60637E+04  9.12363E+03 -2.38329E+04  2.08798E+04 -1.24756E+04  1.82106E+04  4.69903E+03
  7.38987E+03  1.40752E+04 -8.31124E+03  1.17814E+04 -1.62546E+04  2.92607E+03 -1.17630E+04 -9.38521E+03
 -1.77698E+01 -1.51916E+04  7.63312E+03 -1.06711E+04  9.81344E+03 -1.86531E+03  2.05819E+03  6.36883E+03
 -6.98127E+03  2.51475E+03 -5.42026E+03 -5.46997E+03 -3.60636E+02 -1.30448E+04  9.27140E+03 -1.38502E+04
  1.52376E+04 -7.07913E+03  1.67119E+04  2.45459E+03  1.39534E+04  1.27890E+04  6.94765E+03  1.90860E+04
 -3.54772E+03  2.10894E+04 -1.33740E+04  1.30450E+04 -1.46531E+04  3.05708E+03 -1.04728E+04 -3.28031E+03
 -5.23780E+03 -4.48133E+03 -5.62421E+02  7.95449E+02 -1.56095E+03  2.15303E+03 -4.45732E+03  4.01217E+03
 -9.80028E+03 -9.69860E+02 -1.08170E+04 -8.62462E+03 -3.92152E+03 -1.37961E+04  4.95780E+03 -1.09522E+04
  8.47060E+03 -4.84354E+03  6.52531E+03  2.73422E+03 -1.65735E+02  3.61756E+03 -5.32395E+03  5.45630E+01
 -4.67463E+03 -7.11980E+03 -9.50845E+02 -9.67419E+03  5.10170E+03 -1.06649E+04  1.31446E+04 -5.48923E+03
  1.56907E+04  9.12393E+02  1.19352E+04  8.30726E+03  2.37587E+03  1.17115E+04 -5.99317E+03  1.02872E+04
 -8.75271E+03  2.56681E+03 -4.39607E+03 -2.25849E+03  1.80367E+03 -2.66196E+03  5.57695E+03 -1.67925E+03
  4.97846E+03  4.67502E+03  8.06449E+02  8.28411E+03 -5.46888E+03  7.87431E+03 -1.03500E+04  1.88047E+03
 -6.56408E+03 -4.70811E+03  8.69110E+02 -9.52983E+03  5.37038E+03 -4.43236E+03  5.31992E+03  1.81485E+03
  1.12321E+03  5.57437E+03 -5.64198E+03  6.49944E+03 -7.45172E+03  3.01895E+03 -7.67019E+03 -2.18140E+03
 -5.21082E+03 -8.95942E+03  1.92765E+03 -1.05051E+04  8.83696E+03 -6.36630E+03  9.10487E+03  1.03084E+03
  5.71614E+03  7.29623E+03 -5.57317E+02  9.87965E+03 -7.01234E+03  5.51712E+03 -7.30216E+03 -1.48867E+03
 -6.95580E+03 -7.19850E+03 -1.41821E+03 -6.80316E+03  3.75049E+03 -6.43726E+03  4.14319E+03 -2.29080E+03
  3.23579E+03  1.00410E+03 -2.64778E+02  9.63392E+02  3.91883E+02 -7.89428E+02  1.19726E+03 -3.38856E+03
  6.12055E+03 -2.02334E+03  8.30839E+03  7.23793E+02  8.09551E+03  5.21639E+03  6.46531E+03  1.08415E+04
 -1.83358E+03  1.25990E+04 -1.15446E+04  9.73451E+03 -1.41701E+04  1.73608E+03 -1.15830E+04 -4.50078E+03
 -6.33786E+03 -1.01912E+04 -4.97370E+02 -8.64206E+03  2.85424E+03 -3.65556E+03  2.43529E+03 -3.12496E+03
  1.89873E+03 -1.71919E+03  2.49805E+03 -3.07675E+03  4.19499E+03 -1.68780E+03  4.92160E+03 -4.36505E+02
  6.49070E+03  1.28939E+03  2.12401E+03  4.85226E+03 -2.05262E+03  5.43862E+03 -6.20735E+03  4.26839E+03
 -7.98035E+03 -1.23612E+03 -4.26835E+03 -5.47137E+03 -3.65459E+02 -7.59227E+03  4.75098E+03 -8.16583E+03
  7.86833E+03 -5.17043E+03  1.06793E+04  1.15169E+03  7.65878E+03  6.14845E+03  1.78002E+03  9.32051E+03
 -3.81649E+03  8.27677E+03 -5.69938E+03  2.67424E+03 -3.72978E+03 -1.40094E+03 -9.16308E+02 -4.85195E+02
 -5.86283E+02  3.42691E+02 -1.00603E+03  1.88793E+03 -3.43017E+03  1.52058E+03 -4.95255E+03 -5.49083E+02
 -3.03221E+03 -5.57136E+03  3.27909E+02 -7.57902E+03  3.70605E+03 -6.51675E+03  6.66570E+03 -1.57672E+03
  7.03263E+03  3.69226E+03  2.63018E+03  6.26085E+03 -1.69500E+03  7.31609E+03 -4.74795E+03  4.16506E+03
 -6.37175E+03  6.41917E+02 -5.28093E+03 -3.99556E+03 -6.74203E+02 -5.36651E+03  2.55378E+03 -4.30576E+03
  4.13570E+03 -1.44084E+03  3.37868E+03  7.02991E+02  1.12825E+03  2.85764E+03  1.62034E+03  1.16108E+03
  1.23774E+03  5.95264E+02  1.53810E+03  1.02813E+03  1.94384E+03  3.06800E+03  2.06233E+03  3.29404E+03
 -1.52270E+03  4.99161E+03 -4.18907E+03  6.07301E+03 -6.17530E+03  1.64474E+03 -6.88582E+03 -1.68882E+03
 -3.27026E+03 -6.09290E+03  1.22713E+03 -7.56805E+03  3.22804E+03 -4.37683E+03  5.18644E+03 -9.58835E+02
  3.82307E+03  2.86727E+03  2.57915E+02  3.09609E+03 -2.06700E+03  2.23749E+03 -2.30641E+03  2.72629E+02
 -8.77243E+02 -2.87529E+03  1.83242E+03 -2.95766E+03  2.06483E+03 -1.31490E+03  2.55347E+03  1.03149E+03
  1.14969E+03  9.99519E+02  7.36441E+02  8.46506E+02 -3.13275E+02  1.20259E+03  1.60231E+03 -3.92069E+02
  1.06655E+03 -1.82467E+02  2.62282E+03  1.32625E+03  9.51484E+02  3.47595E+03 -2.50487E+02  4.10198E+03
 -3.07127E+03  3.00554E+03 -3.33371E+03  1.93541E+01 -3.39007E+03 -1.76186E+03 -9.35708E+02 -2.52366E+03
  3.23305E+02 -2.87953E+03  1.52988E+03 -1.56856E+03  2.05099E+03  2.01730E+03 -8.42419E+02  2.32321E+03
 -2.55136E+03  1.35489E+03 -2.65116E+03 -1.90705E+03 -1.70485E+03 -3.73476E+03  4.04687E+02 -3.55402E+03
  1.79150E+03 -1.90131E+03  1.97555E+03 -1.52558E+01  2.82720E+03  2.83906E+02  3.10196E+02  2.17868E+03
 -8.09638E+02  5.15145E+01 -1.32496E+03 -8.56278E+02  2.07362E+02 -2.15573E+03  2.43172E+03 -1.99966E+03
  2.94289E+03 -4.25868E+01  4.15785E+03  1.60953E+03  5.73698E+02  3.58171E+03 -1.71915E+03  2.89015E+03
 -2.93043E+03  7.27145E+02 -2.72681E+03 -5.62538E+02 -1.58122E+03 -2.23596E+03  6.64695E+02 -1.66429E+03
  2.49592E+03 -1.29075E+03  1.47819E+03  8.17459E+02  5.12991E+02  2.04210E+03  6.70601E+02  2.52661E+03
 -1.17449E+03  1.85478E+03 -7.99385E+02 -5.24092E+01 -1.93788E+02  4.60836E+02 -1.01798E+03  4.43001E+02
 -1.23211E+03  1.73570E+03 -2.88019E+03  6.04199E+02 -3.04692E+03 -1.25333E+02 -3.92480E+03 -2.50443E+03
 -1.70137E+03 -5.45420E+03  8.49843E+02 -5.15588E+03  2.27266E+03 -4.84392E+03  4.93475E+03 -1.90295E+03
  4.65424E+03  4.86578E+02  3.07791E+03  3.38597E+03 -2.69824E+02  2.86504E+03 -1.56964E+03  2.48610E+03
 -2.16094E+03  8.44094E+02 -1.27417E+03  2.47048E+02 -7.98175E+02  6.18382E+02 -7.29799E+02  3.55582E+02
 -1.09018E+03  6.71336E+02 -1.27368E+03 -4.93867E+02 -2.73205E+02 -1.73361E+03 -6.88208E+02 -1.09350E+03
  1.70084E+03 -1.46782E+03  1.27098E+03 -1.24615E+02  2.59443E+03  2.06782E+03 -2.96705E+02  3.16201E+03
 -1.81426E+03  3.50679E+03 -3.93267E+03  2.17647E+03 -2.80038E+03 -2.62037E+02 -2.88198E+03 -2.72927E+03
 -1.43263E+03 -3.18492E+03  5.04307E+02 -2.93396E+03  2.07002E+03 -1.34809E+03  1.97879E+03  9.17494E+02
  1.40986E+03  5.23285E+02  4.08148E+02  6.66050E+02 -8.24828E+02  2.69113E+02 -3.44578E+02 -9.36715E+02
  6.54724E+02  3.43448E+02  7.24365E+02  7.90947E+02  5.20742E+02  1.11773E+03 -2.19953E+02  7.79966E+02
 -8.25280E+02  3.50417E+02 -1.58218E+03  2.10360E+02 -1.95176E+03 -1.01160E+03 -1.36933E+02 -2.62319E+03
  1.30131E+03 -1.84432E+03  1.94407E+03  1.62260E+02  1.62147E+03  1.52319E+02  1.27172E+03  1.49746E+03
  1.42967E+02  1.57184E+03 -5.73664E+02  1.84851E+03 -1.08727E+03  1.36647E+03 -1.01513E+03  5.12763E+01
 -1.01637E+02  3.70400E+02 -6.59464E+02  2.95629E+02 -9.66503E+02  3.45575E+02 -1.78492E+03 -4.72920E+02
 -2.26459E+03 -3.67683E+02 -1.03748E+03 -2.12994E+03  1.32195E+03 -2.14187E+03  1.54812E+03 -9.38093E+02
  1.34783E+03 -3.58405E+02  1.88171E+02  6.17620E+02  3.67069E+02  1.79364E+03 -8.62266E+02  1.19507E+03
