 $NMID ID='MM_0lb_SNR400_19hz_g40_4.RAW', FMTDAT='(8E13.5)'
 TRAMP=1., VOLUME=1. $END
  3.09326E+05  4.21432E+02  3.37020E+05  2.50421E+05  8.41447E+04  3.37200E+05 -1.32184E+05  2.49913E+05
 -1.89286E+05  8.19404E+04 -1.10844E+05 -3.29222E+04  1.46249E+03 -5.02104E+04  5.40341E+04  1.38415E+02
  3.57035E+04  5.25335E+04 -1.67624E+04  7.41981E+04 -6.06147E+04  6.23470E+04 -8.29348E+04  3.15074E+04
 -7.88743E+04 -1.16448E+04 -5.59207E+04 -5.01352E+04 -1.47274E+04 -6.78207E+04  2.62040E+04 -4.49505E+04
  3.85822E+04  4.18108E+03  1.54786E+04  4.68770E+04 -3.34056E+04  4.62301E+04 -6.49279E+04  5.93048E+01
 -5.17656E+04 -5.54769E+04 -5.89647E+03 -7.46587E+04  3.28625E+04 -5.17612E+04  4.57767E+04 -1.57366E+04
  4.08537E+04  1.03572E+04  3.05497E+04  2.38490E+04  1.57851E+04  2.76820E+04 -4.69637E+03  2.64281E+04
 -2.15823E+04  1.27103E+04 -1.96846E+04 -3.68115E+03  3.79760E+03 -7.15678E+03  2.11810E+04  1.04364E+04
  7.18464E+03  3.24615E+04 -2.96443E+04  3.35192E+04 -6.05086E+04  2.46942E+03 -5.51824E+04 -4.07632E+04
 -1.25228E+04 -6.02023E+04  3.74291E+04 -4.25308E+04  5.46107E+04 -2.00937E+03  3.16077E+04  2.98924E+04
 -6.73698E+03  3.23400E+04 -2.85493E+04  1.20265E+04 -2.64173E+04 -5.11972E+03 -1.34198E+04 -9.49799E+03
 -7.20019E+03 -1.04229E+04 -1.22711E+03 -1.63956E+04  6.59748E+03 -2.23029E+04  1.47660E+04 -1.42636E+04
  1.26829E+04  3.61304E+03 -5.72601E+03  1.25762E+04 -1.84468E+04 -1.98184E+03 -7.75384E+03 -2.95914E+04
  2.02054E+04 -3.95894E+04  4.40088E+04 -1.85484E+04  4.07147E+04  1.77739E+04  1.35966E+04  4.07974E+04
 -1.50549E+04  3.05628E+04 -2.26716E+04  6.92678E+02 -7.63108E+03 -2.60487E+04  2.07382E+04 -3.00846E+04
  3.67493E+04 -6.61562E+03  2.97536E+04  2.24139E+04  1.47620E+04  4.14684E+04 -7.61203E+03  4.37707E+04
 -2.80733E+04  2.88926E+04 -3.61910E+04  8.01868E+03 -3.68451E+04 -1.43333E+04 -2.05005E+04 -3.34154E+04
  6.81026E+03 -3.32353E+04  2.82389E+04 -1.23854E+04  2.65698E+04  1.04516E+04  2.80387E+03  1.77735E+04
 -1.31243E+04  6.89445E+03 -9.36564E+03 -8.10463E+03  6.27815E+03 -1.00212E+04  1.66930E+04  6.46559E+03
  1.12830E+04  2.16145E+04 -7.04843E+03  2.31913E+04 -2.13849E+04  8.73928E+03 -2.39302E+04 -6.82213E+03
 -1.55836E+04 -1.59955E+04 -4.87621E+03 -1.64693E+04  3.84019E+03 -1.34123E+04  1.14025E+04 -1.33615E+04
  1.95141E+04 -1.17249E+04  2.69343E+04  5.40475E+02  2.06279E+04  1.53582E+04  3.60945E+03  3.16003E+04
 -1.58673E+04  2.70877E+04 -2.55280E+04  8.73700E+03 -1.92208E+04 -1.04439E+04 -4.11412E+03 -1.41334E+04
  3.25703E+03 -3.98634E+03 -1.92471E+03  5.09263E+03 -1.24565E+04  4.86991E+03 -1.26390E+04 -4.27536E+03
 -8.61281E+03 -1.44495E+04  4.02109E+03 -1.87316E+04  1.23003E+04 -1.26520E+04  1.36340E+04 -1.51362E+03
  7.98179E+03  1.02837E+04 -7.52400E+02  1.51751E+04 -9.93069E+03  8.87536E+03 -1.43296E+04 -3.08077E+03
 -1.07868E+04 -1.29742E+04 -1.25664E+03 -1.86404E+04  7.92475E+03 -1.43317E+04  1.53732E+04 -6.58711E+03
  1.36442E+04  3.35094E+02  9.98546E+03  3.63186E+03  5.03610E+03  6.16895E+02  7.21980E+03 -1.45342E+03
  1.29068E+04  2.86941E+03  1.33166E+04  1.20266E+04  8.20831E+03  2.35530E+04 -3.21586E+03  2.52315E+04
 -1.44588E+04  1.85980E+04 -2.24926E+04  8.74365E+03 -2.30250E+04 -2.22568E+03 -2.02470E+04 -1.29976E+04
 -9.85861E+03 -1.91769E+04  5.82449E+03 -1.74408E+04  1.57092E+04 -1.09637E+04  1.48546E+04  3.32683E+03
  6.44091E+03  1.05140E+04 -6.19590E+03  9.65836E+03 -1.30815E+04  2.64905E+03 -1.01392E+04 -7.35305E+03
 -2.33043E+02 -1.22436E+04  5.80588E+03 -8.71414E+03  7.71336E+03 -9.65048E+02  1.19661E+03  4.17745E+03
 -4.84662E+03  1.04727E+03 -3.14128E+03 -4.45219E+03  6.59823E+02 -9.68399E+03  7.02646E+03 -9.39240E+03
  1.12346E+04 -4.03532E+03  1.13886E+04  2.39869E+03  9.51194E+03  8.78921E+03  4.26981E+03  1.20171E+04
 -1.21977E+03  1.43164E+04 -8.16440E+03  9.02812E+03 -1.03516E+04  2.89795E+03 -7.98053E+03 -1.86250E+03
 -4.33793E+03 -2.83493E+03 -1.36948E+03  1.22773E+03 -1.84435E+03  1.54697E+03 -3.42899E+03  3.33038E+03
 -7.53838E+03 -5.77792E+02 -8.20361E+03 -6.89789E+03 -3.30216E+03 -1.05272E+04  3.32456E+03 -8.21818E+03
  6.87890E+03 -4.25771E+03  5.41084E+03  1.85637E+03  6.08457E+02  2.37979E+03 -3.20276E+03 -3.31728E+02
 -3.02751E+03 -4.57054E+03 -3.65476E+02 -6.47487E+03  3.83240E+03 -7.20738E+03  9.03191E+03 -3.55318E+03
  1.10471E+04  6.44958E+02  7.97329E+03  5.61819E+03  2.03132E+03  7.89253E+03 -4.19448E+03  7.72331E+03
 -6.33932E+03  2.66517E+03 -3.16693E+03 -9.86639E+02  9.77965E+02 -2.05934E+03  4.32981E+03 -3.71998E+02
  3.89615E+03  2.51879E+03  9.51558E+02  4.99592E+03 -4.19879E+03  5.85636E+03 -6.96099E+03  1.60229E+03
 -4.34915E+03 -2.90886E+03  5.58526E+01 -6.02405E+03  3.51232E+03 -3.31325E+03  3.25977E+03  7.61116E+02
  4.37530E+02  2.83965E+03 -4.27744E+03  4.14282E+03 -4.02133E+03  2.03075E+03 -4.29989E+03 -9.86150E+02
 -2.87833E+03 -5.31099E+03  8.09818E+02 -6.54016E+03  5.29999E+03 -4.11535E+03  5.80250E+03  1.03484E+03
  4.50909E+03  4.56999E+03  3.59039E+02  7.60008E+03 -4.52697E+03  4.17123E+03 -4.74036E+03 -4.57927E+02
 -5.39130E+03 -4.43866E+03 -1.40556E+03 -4.70883E+03  2.36444E+03 -3.74533E+03  2.62160E+03 -2.87807E+03
  2.57972E+03  1.68323E+02  2.29494E+02  1.11652E+03  1.01013E+03 -4.52742E+02  2.67154E+02 -2.04860E+03
  2.96520E+03 -2.27172E+02  4.35257E+03  3.29202E+02  4.76821E+03  2.97204E+03  4.99593E+03  5.84162E+03
 -6.59943E+02  7.38776E+03 -6.48116E+03  6.07393E+03 -8.96743E+03  7.53621E+02 -6.73194E+03 -1.83482E+03
 -3.84081E+03 -5.99692E+03 -7.45447E+02 -4.44971E+03  2.02514E+03 -1.76501E+03  1.77575E+03 -1.84662E+03
  9.52734E+02 -1.74339E+03  2.41478E+03 -2.42471E+03  3.45879E+03 -1.72183E+03  3.24476E+03  5.08637E+02
  3.69998E+03  1.21372E+03  9.41540E+02  3.38538E+03 -1.28773E+03  2.23397E+03 -4.28205E+03  2.25432E+03
 -4.24500E+03 -1.11822E+03 -1.20847E+03 -2.78069E+03  4.70287E+02 -4.31385E+03  3.00602E+03 -5.19395E+03
  4.20838E+03 -3.29790E+03  6.37530E+03  1.78367E+02  4.59214E+03  3.71697E+03  9.31673E+02  6.00721E+03
 -1.54414E+03  5.70293E+03 -2.95934E+03  1.78753E+03 -1.88656E+03 -1.14313E+03 -3.25656E+02 -3.47655E+02
 -3.44501E+02  6.59048E+02 -9.88287E+02  1.59700E+03 -2.35813E+03  4.85417E+02 -3.95535E+03 -5.78797E+02
 -1.24559E+03 -3.37775E+03  8.10592E+02 -4.50253E+03  2.88965E+03 -3.89719E+03  3.08623E+03 -7.95282E+02
  3.72524E+03  1.91063E+03  1.27274E+03  2.96759E+03 -1.08769E+03  3.58015E+03 -2.52322E+03  2.75027E+03
 -3.02550E+03  6.84970E+02 -3.06872E+03 -1.76724E+03 -2.78336E+02 -3.15526E+03  1.38254E+03 -2.08444E+03
  2.58399E+03 -8.98462E+02  1.54012E+03  3.61932E+02  5.69492E-01  1.36229E+03  5.13587E+02 -7.66574E+01
  1.60270E+03  9.53332E+02  7.39812E+02  1.08022E+03  1.53148E+03  1.68369E+03  1.37536E+03  1.88982E+03
 -1.09767E+03  2.32428E+03 -2.35817E+03  3.88398E+03 -2.85962E+03  1.14016E+03 -3.57322E+03 -3.67355E+02
 -1.42047E+03 -2.95293E+03  7.35464E+02 -4.44823E+03  1.51541E+03 -2.53483E+03  2.69878E+03 -9.11449E+02
  2.18283E+03  1.70316E+03 -2.09802E+02  1.70348E+03 -1.67377E+02  1.47750E+03 -9.52324E+02  3.54600E+02
  3.60100E+02 -1.31556E+03  1.25937E+03 -1.00966E+03  1.39111E+03 -2.78898E+02  7.32081E+02  7.04559E+02
  8.01577E+02  6.35229E+02  9.69355E+02 -4.13439E+02 -4.46252E+02  8.44441E+02  1.49322E+03 -9.37891E+01
 -1.76751E+01  5.79618E+01  1.81572E+03  8.83871E+02  6.29770E+01  2.20255E+03 -4.57392E+02  2.67352E+03
 -1.54783E+03  6.50694E+02 -1.65085E+03  4.32388E+02 -1.89182E+03 -4.60613E+02 -9.78207E+00 -7.07696E+02
  7.53246E+02 -1.14420E+03  5.14898E+02 -2.81567E+02  1.70900E+02  1.04710E+03 -6.31998E+02  1.43047E+03
 -1.50254E+03  6.45473E+02 -1.17301E+03 -1.46540E+03 -6.62670E+02 -2.39904E+03  1.29855E+02 -1.48836E+03
  2.71973E+02 -1.09059E+03  5.02994E+02  3.49940E+02  1.06888E+03 -3.38575E+02  4.26453E+02  1.23227E+03
 -2.98455E+02 -7.01410E+02 -1.04390E+03 -2.11241E+02  3.43676E+02 -5.62202E+02  1.92159E+03 -8.49850E+02
  9.31379E+02  4.16479E+02  2.31839E+03  7.52362E+02  8.92796E+02  1.36808E+03 -1.33068E+01  1.44619E+03
 -1.26788E+03  1.70633E+02 -1.02125E+03  2.58330E+02 -1.19670E+03 -8.78016E+02 -1.70661E+01 -4.86558E+02
  1.05013E+03 -3.43764E+02  8.66234E+02  5.40780E+02  8.16912E+01  9.22886E+02  4.76039E+02  1.07411E+03
 -1.40454E+02  1.27428E+03 -3.84585E+02  5.40030E+02 -6.15926E+02  4.89180E+02 -5.01718E+02  7.75691E+02
 -8.75054E+02  8.30600E+02 -1.78812E+03  3.50349E+02 -1.05132E+03 -1.15772E+02 -2.45872E+03 -5.88429E+02
 -7.65161E+02 -2.03959E+03  1.44983E+02 -2.64033E+03  8.58915E+02 -1.57058E+03  2.24885E+03 -1.23351E+03
  2.64338E+03 -4.78284E+01  7.73419E+02  1.63938E+03 -6.24300E+02  1.39640E+03 -6.93252E+02  1.57439E+03
 -1.13623E+03  3.94467E+02 -7.91389E+01 -3.86652E+02 -4.78975E+02 -1.69256E+01 -4.51701E+02  2.21598E+02
 -1.16986E+03 -1.93163E+02 -7.81388E+02  4.34695E+01 -1.98784E+01 -5.67164E+02 -4.41455E+02 -7.86604E+02
  1.37341E+03 -9.75967E+02  7.27713E+02 -4.83949E+01  9.04181E+02  4.89887E+02 -8.40596E+02  1.59948E+03
 -1.03659E+03  2.18236E+03 -1.45667E+03  1.15433E+03 -1.68184E+03 -2.59260E+02 -1.12947E+03 -1.52704E+03
 -1.38224E+03 -5.80555E+02  5.11306E+02 -9.07380E+02  7.38253E+02 -7.85694E+02  5.87193E+02  4.91010E+02
  9.42747E+02  1.41512E+02 -8.14981E+01  4.84915E+02 -7.94183E+01  1.10576E+02 -5.12519E+02 -4.86880E+02
  2.38098E+02  2.03455E+02 -7.51590E+01 -1.62353E+02  2.14907E+02  5.52481E+02  5.31772E+02  6.34533E+02
 -4.71152E+02  6.94761E+02 -7.61665E+02  8.44923E+00 -6.16908E+02  2.26561E+02  3.17326E+02 -1.18071E+03
  3.68841E+02 -2.22996E+02  1.79719E+02 -5.03278E+01  1.07107E+03 -5.45394E+02  2.71945E+02  8.77401E+02
  3.35690E+02  3.20597E+02 -4.48387E+02  7.12409E+02 -7.27056E+02  7.24462E+02  1.30517E+02  3.05703E+02
  2.10275E+02  7.55339E+02 -9.98451E+02  2.77242E+02  3.01874E+01  4.73726E+02 -4.03965E+02 -5.82966E+02
 -8.22156E+02  7.14395E+02 -3.69492E+01 -1.41590E+03  9.82372E+02 -1.44390E+03  3.84776E+02 -8.35501E+01
  1.96973E+02  8.67344E+01 -5.58466E+02  4.05582E+02 -2.85868E+02  4.30578E+02 -3.89736E+02  6.44049E+02
