 $NMID ID='MM_0lb_SNR400_13hz_g60_29.RAW', FMTDAT='(8E13.5)'
 TRAMP=1., VOLUME=1. $END
  3.09864E+05  9.26594E+02  3.38242E+05  2.50797E+05  8.46214E+04  3.38034E+05 -1.32842E+05  2.51564E+05
 -1.90675E+05  8.30521E+04 -1.12513E+05 -3.23481E+04  1.04882E+03 -5.06625E+04  5.36946E+04 -4.77007E+02
  3.60319E+04  5.27665E+04 -1.59971E+04  7.58508E+04 -6.03052E+04  6.40107E+04 -8.49807E+04  3.28698E+04
 -8.23761E+04 -1.17560E+04 -5.86461E+04 -5.21995E+04 -1.50532E+04 -7.03543E+04  2.79832E+04 -4.58323E+04
  4.04269E+04  4.08303E+03  1.59786E+04  4.83191E+04 -3.48228E+04  4.80214E+04 -6.78565E+04 -5.57172E+01
 -5.43091E+04 -5.74589E+04 -7.25786E+03 -7.81336E+04  3.46783E+04 -5.62044E+04  4.90318E+04 -1.77896E+04
  4.41424E+04  1.10283E+04  3.30133E+04  2.60559E+04  1.63033E+04  3.01391E+04 -6.17162E+03  2.70149E+04
 -2.18025E+04  1.22852E+04 -1.86113E+04 -5.07883E+03  6.64798E+03 -8.26266E+03  2.27176E+04  1.32912E+04
  6.87300E+03  3.63593E+04 -3.31962E+04  3.70466E+04 -6.50022E+04  2.22998E+03 -5.83478E+04 -4.42656E+04
 -1.23300E+04 -6.55883E+04  4.13482E+04 -4.56703E+04  6.00599E+04 -2.12630E+03  3.54017E+04  3.42473E+04
 -6.21581E+03  3.78475E+04 -3.16320E+04  1.74431E+04 -3.19569E+04 -4.00141E+03 -1.85258E+04 -1.18075E+04
 -9.54159E+03 -1.35994E+04 -5.53496E+02 -1.91507E+04  8.05225E+03 -2.31979E+04  1.58442E+04 -1.31653E+04
  1.06481E+04  5.54880E+03 -9.55022E+03  1.29589E+04 -2.22023E+04 -5.69067E+03 -8.96266E+03 -3.54252E+04
  2.42212E+04 -4.51216E+04  5.05195E+04 -1.99178E+04  4.71910E+04  1.95856E+04  1.60897E+04  4.57786E+04
 -1.62374E+04  3.47502E+04 -2.67023E+04  2.01541E+03 -1.16354E+04 -2.89182E+04  2.13302E+04 -3.54443E+04
  4.34173E+04 -1.01415E+04  3.79833E+04  2.45408E+04  1.94953E+04  4.84029E+04 -8.98418E+03  5.32892E+04
 -3.35262E+04  3.63153E+04 -4.50781E+04  1.06318E+04 -4.52090E+04 -1.74908E+04 -2.45583E+04 -3.91336E+04
  7.54902E+03 -4.01077E+04  3.31630E+04 -1.54451E+04  3.13718E+04  1.11803E+04  4.54881E+03  1.96179E+04
 -1.44169E+04  8.64781E+03 -1.01099E+04 -6.97534E+03  6.02193E+03 -1.08180E+04  1.82879E+04  5.19751E+03
  1.30694E+04  2.22080E+04 -6.56518E+03  2.64739E+04 -2.24516E+04  1.28888E+04 -2.95196E+04 -4.44447E+03
 -2.30332E+04 -1.80614E+04 -9.51536E+03 -2.32890E+04  4.17515E+03 -2.22523E+04  1.75064E+04 -2.00104E+04
  2.87711E+04 -1.35435E+04  3.56893E+04  3.61249E+03  2.54280E+04  2.23940E+04  3.88001E+03  3.88688E+04
 -1.87592E+04  3.21290E+04 -2.91322E+04  1.12420E+04 -2.15967E+04 -1.06936E+04 -4.15932E+03 -1.29766E+04
  1.31475E+03 -1.74353E+03 -5.55043E+03  7.41664E+03 -1.85724E+04  4.49313E+03 -1.84749E+04 -8.41115E+03
 -1.08198E+04 -2.09197E+04  5.83050E+03 -2.54253E+04  1.76430E+04 -1.80041E+04  2.00672E+04 -1.86204E+03
  1.26608E+04  1.46264E+04 -1.61201E+03  2.19173E+04 -1.48738E+04  1.18061E+04 -2.13110E+04 -4.62027E+03
 -1.55520E+04 -1.84972E+04 -2.28787E+03 -2.56954E+04  1.14249E+04 -2.05477E+04  2.10909E+04 -1.07511E+04
  2.01239E+04 -5.97851E+01  1.36899E+04  4.50045E+03  7.49623E+03  8.18446E+02  1.08764E+04 -1.00789E+03
  1.97204E+04  2.32791E+03  2.23956E+04  1.60372E+04  1.48856E+04  3.30682E+04 -2.31314E+03  3.81007E+04
 -2.22975E+04  3.21362E+04 -3.56249E+04  1.63974E+04 -3.93530E+04 -2.53472E+03 -3.12457E+04 -2.16082E+04
 -1.29393E+04 -3.19811E+04  1.11932E+04 -2.77679E+04  2.39808E+04 -1.36986E+04  2.10303E+04  6.96642E+03
  7.27647E+03  1.59739E+04 -9.90678E+03  1.32883E+04 -1.83172E+04  2.83670E+03 -1.36028E+04 -1.15311E+04
 -2.87687E+02 -1.72691E+04  8.69437E+03 -1.27314E+04  1.11413E+04 -1.19841E+03  2.50371E+03  7.86084E+03
 -7.89422E+03  3.43618E+03 -6.87160E+03 -6.44729E+03 -7.91990E+02 -1.50576E+04  1.04959E+04 -1.59207E+04
  1.91761E+04 -8.53161E+03  2.11698E+04  2.83386E+03  1.84196E+04  1.53447E+04  8.43601E+03  2.35024E+04
 -4.46879E+03  2.57523E+04 -1.62924E+04  1.61905E+04 -1.83926E+04  3.41976E+03 -1.30058E+04 -4.24389E+03
 -4.80628E+03 -6.15314E+03 -9.06991E+02  9.44009E+02 -2.77451E+03  2.91066E+03 -6.20847E+03  4.39698E+03
 -1.19793E+04 -9.72434E+02 -1.26021E+04 -1.01861E+04 -6.20583E+03 -1.60833E+04  5.47997E+03 -1.32727E+04
  1.10175E+04 -5.70073E+03  8.13565E+03  3.59854E+03  6.05580E+02  5.01548E+03 -6.82658E+03 -1.87971E+02
 -6.00902E+03 -8.34751E+03 -8.33843E+02 -1.25921E+04  7.52572E+03 -1.35945E+04  1.58308E+04 -7.03876E+03
  1.89881E+04  1.37621E+03  1.31428E+04  1.21815E+04  2.84468E+03  1.49395E+04 -8.20468E+03  1.24265E+04
 -1.00320E+04  3.25000E+03 -4.71806E+03 -2.79606E+03  2.67109E+03 -3.41078E+03  6.61717E+03 -8.39932E+02
  6.46036E+03  6.40541E+03  1.15653E+03  1.01508E+04 -7.38785E+03  1.00161E+04 -1.26560E+04  2.08232E+03
 -8.20759E+03 -6.58241E+03  8.92599E+02 -1.12718E+04  7.36818E+03 -5.37032E+03  7.86957E+03  2.26252E+03
  2.01327E+03  6.94130E+03 -6.52381E+03  9.37462E+03 -1.01568E+04  3.66473E+03 -1.03343E+04 -3.58449E+03
 -6.17742E+03 -1.18163E+04  3.47198E+03 -1.42491E+04  1.14276E+04 -8.57623E+03  1.26065E+04  2.42397E+03
  7.29635E+03  1.01293E+04 -5.64442E+02  1.18991E+04 -8.87126E+03  6.79697E+03 -1.03451E+04 -1.02493E+03
 -8.59709E+03 -7.90216E+03 -1.27054E+03 -9.18049E+03  4.89700E+03 -7.69137E+03  5.28891E+03 -3.87923E+03
  3.95489E+03  1.56377E+03 -7.85552E+02  1.69112E+03 -4.83574E+02 -2.04454E+03  1.30565E+03 -4.93208E+03
  7.78764E+03 -3.34953E+03  1.20936E+04  1.58037E+03  1.06617E+04  6.99356E+03  8.08937E+03  1.57323E+04
 -3.10117E+03  1.75534E+04 -1.45129E+04  1.33120E+04 -1.89291E+04  2.18521E+03 -1.51696E+04 -5.92069E+03
 -7.25100E+03 -1.25127E+04 -1.12150E+03 -1.02597E+04  3.33519E+03 -5.82918E+03  4.55847E+03 -3.66043E+03
  2.49386E+03 -2.15578E+03  3.39242E+03 -3.15950E+03  4.95140E+03 -3.23004E+03  6.26699E+03 -9.37177E+02
  8.63249E+03  1.97528E+03  3.61747E+03  6.40614E+03 -1.70763E+03  7.38301E+03 -8.26228E+03  6.12848E+03
 -9.84445E+03 -1.78460E+03 -5.84510E+03 -7.63836E+03 -2.34723E+02 -1.12744E+04  5.94055E+03 -1.15904E+04
  1.11092E+04 -6.00332E+03  1.38491E+04  1.29374E+03  9.66366E+03  9.67247E+03  1.18252E+03  1.24090E+04
 -5.20261E+03  1.06204E+04 -7.22301E+03  3.36658E+03 -4.90848E+03 -1.74243E+03 -2.05697E+03 -1.53244E+03
 -4.91695E+02  4.79138E+01 -1.36692E+03  1.88597E+03 -5.08914E+03  1.63209E+03 -7.12668E+03 -1.02218E+03
 -4.98094E+03 -7.16375E+03  9.75809E+01 -1.05200E+04  5.72527E+03 -9.03397E+03  9.16873E+03 -2.85217E+03
  9.85683E+03  5.07135E+03  4.36138E+03  8.87158E+03 -1.73793E+03  9.96076E+03 -6.89757E+03  6.03171E+03
 -9.24456E+03  1.21355E+03 -7.72971E+03 -6.25964E+03 -6.52252E+02 -8.11485E+03  4.18859E+03 -5.67265E+03
  6.20564E+03 -1.76397E+03  3.83899E+03  1.11063E+03  1.61459E+03  2.67160E+03  1.32547E+03  9.94298E+02
  1.68687E+03  1.45595E+03  2.11115E+03  1.58277E+03  3.15506E+03  4.44735E+03  2.90628E+03  4.72747E+03
 -1.87891E+03  6.92282E+03 -6.91640E+03  8.33920E+03 -9.06707E+03  1.66280E+03 -1.04685E+04 -3.41590E+03
 -3.95926E+03 -9.70433E+03  1.08463E+03 -1.06485E+04  5.70272E+03 -6.36898E+03  7.41640E+03 -1.62116E+03
  5.43686E+03  3.32897E+03  1.31669E+03  5.77261E+03 -2.37973E+03  3.79721E+03 -3.24291E+03 -9.71569E+02
 -1.81923E+03 -4.32769E+03  2.24851E+03 -3.64382E+03  3.84645E+03 -1.75541E+03  4.13766E+03  7.62442E+02
  1.82159E+03  1.68193E+03  1.81229E+03  1.53713E+03 -5.61390E+02  1.15312E+03  2.55189E+03 -6.12591E+02
  1.00057E+03 -9.02521E+02  3.85214E+03  1.46294E+03  1.76426E+03  4.98056E+03 -7.47286E+02  7.04161E+03
 -4.07302E+03  4.20938E+03 -5.33954E+03  1.78101E+03 -4.86483E+03 -1.89909E+03 -1.81844E+03 -4.15065E+03
 -5.70013E+01 -4.16043E+03  2.25199E+03 -1.11174E+03  1.37344E+03  2.04822E+03 -4.25897E+02  3.11063E+03
 -3.66744E+03  2.27640E+03 -4.26834E+03 -2.61720E+03 -2.32733E+03 -5.20906E+03  1.68021E+02 -4.49890E+03
  2.07109E+03 -2.29101E+03  3.48230E+03 -4.58127E+02  2.84203E+03  9.64487E+02  6.31708E+02  2.43680E+03
 -1.79775E+03  1.25851E+03 -2.58167E+03 -1.37333E+03  6.83451E+02 -3.30843E+03  4.47614E+03 -2.99182E+03
  5.60375E+03  1.96104E+02  6.00496E+03  3.55563E+03  1.78594E+03  5.74027E+03 -1.73057E+03  5.77455E+03
 -4.42800E+03  1.57780E+03 -4.77540E+03 -7.03070E+02 -2.74164E+03 -3.62099E+03  1.06253E+03 -3.74904E+03
  3.50450E+03 -1.73566E+03  3.02054E+03  1.64330E+03  7.85379E+02  3.23805E+03 -4.77254E+02  3.08752E+03
 -1.47743E+03  2.25228E+03 -1.48716E+03  3.58042E+02 -3.39750E+02  9.28895E+02 -1.71648E+03  1.64181E+03
 -7.70605E+02  2.32088E+03 -3.93223E+03  1.82140E+03 -4.84162E+03 -1.44700E+02 -6.27166E+03 -3.06875E+03
 -3.21487E+03 -7.48304E+03  1.48414E+03 -8.00606E+03  4.55617E+03 -7.17751E+03  7.68340E+03 -2.32396E+03
  7.25298E+03  1.64065E+03  5.00691E+03  4.31026E+03  1.69442E+02  5.35125E+03 -2.44831E+03  3.65050E+03
 -2.75262E+03  1.68692E+03 -2.30571E+03 -3.74953E+02 -4.46567E+02 -2.10853E+02 -9.66343E+02  8.54400E+01
 -1.28509E+03  2.71676E+02 -1.40005E+03 -1.94048E+02  3.96363E+02 -1.17301E+03  2.66044E+02 -2.32310E+03
  2.54561E+03 -1.91273E+03  2.78064E+03  4.16277E+02  3.09152E+03  2.68718E+03  1.27302E+03  5.07843E+03
 -2.58823E+03  6.17865E+03 -5.19707E+03  3.43264E+03 -5.95353E+03 -2.11343E+01 -4.72357E+03 -3.28261E+03
 -1.93472E+03 -5.41702E+03  8.70178E+02 -4.88729E+03  2.51421E+03 -2.99421E+03  3.37789E+03 -1.58557E+02
  2.85833E+03  1.66272E+03 -1.14639E+02  8.72205E+02 -1.05904E+03 -3.34497E+01  3.21604E+02 -6.35510E+02
  1.44484E+03 -7.66650E+02  1.24270E+03  8.18912E+02  1.23291E+03  1.53299E+03  2.24251E+02  1.94022E+03
 -1.61991E+03  2.15712E+03 -3.30345E+03  5.39821E+02 -2.84126E+03 -1.89489E+03 -4.82628E+02 -3.62301E+03
  2.75145E+03 -3.49470E+03  3.00822E+03 -7.23888E+02  4.25872E+03  8.84046E+02  2.34752E+03  2.71605E+03
  2.44910E+02  2.72111E+03 -1.25740E+03  3.07222E+03 -1.97461E+03  8.73045E+02 -2.04568E+03 -7.70579E+01
 -8.18087E+02 -4.14530E+02 -6.58995E+02  6.98839E+01 -1.63440E+03  1.99059E+02 -2.25235E+03 -4.76265E+02
 -2.30305E+03 -1.12234E+03 -1.43077E+03 -2.49571E+03  2.49860E+03 -3.77381E+03  2.26782E+03 -9.66164E+02
  2.97676E+03  4.91691E+02  9.65268E+02  2.29791E+03 -2.35311E+02  3.38192E+03 -2.63069E+03  1.83709E+03
