 $NMID ID='MM_0lb_SNR400_19hz_g55_70.RAW', FMTDAT='(8E13.5)'
 TRAMP=1., VOLUME=1. $END
  3.09708E+05  2.30189E+02  3.37108E+05  2.50989E+05  8.45977E+04  3.37639E+05 -1.32856E+05  2.50491E+05
 -1.90213E+05  8.19634E+04 -1.11420E+05 -3.27792E+04  6.50387E+02 -5.07988E+04  5.36658E+04  1.12277E+02
  3.50486E+04  5.30404E+04 -1.67713E+04  7.49790E+04 -6.00651E+04  6.34336E+04 -8.32134E+04  3.23532E+04
 -7.95698E+04 -1.14066E+04 -5.66570E+04 -5.07522E+04 -1.50017E+04 -6.85378E+04  2.69632E+04 -4.52345E+04
  3.94799E+04  4.51051E+03  1.58378E+04  4.70548E+04 -3.41383E+04  4.60523E+04 -6.56893E+04 -3.63972E+02
 -5.17814E+04 -5.63278E+04 -6.12994E+03 -7.60145E+04  3.34473E+04 -5.38928E+04  4.70586E+04 -1.65008E+04
  4.17744E+04  1.08686E+04  3.15493E+04  2.50493E+04  1.54783E+04  2.82275E+04 -5.45281E+03  2.71656E+04
 -2.13487E+04  1.29398E+04 -1.87239E+04 -4.42567E+03  4.59744E+03 -7.53892E+03  2.09461E+04  1.07569E+04
  8.00595E+03  3.39092E+04 -3.15468E+04  3.43899E+04 -6.21143E+04  1.90635E+03 -5.53889E+04 -4.09865E+04
 -1.23417E+04 -6.17222E+04  3.85732E+04 -4.38694E+04  5.60848E+04 -2.27403E+03  3.24425E+04  3.08954E+04
 -6.46796E+03  3.37495E+04 -2.91146E+04  1.39259E+04 -2.82601E+04 -5.52051E+03 -1.49483E+04 -9.79889E+03
 -7.05964E+03 -1.17233E+04 -1.01790E+03 -1.71003E+04  6.97687E+03 -2.26954E+04  1.49934E+04 -1.32958E+04
  1.23015E+04  4.59522E+03 -6.95905E+03  1.32180E+04 -1.98783E+04 -3.21169E+03 -8.13687E+03 -3.14577E+04
  2.17382E+04 -4.13516E+04  4.54029E+04 -1.87296E+04  4.30663E+04  1.89183E+04  1.49546E+04  4.23075E+04
 -1.56523E+04  3.15149E+04 -2.34353E+04  1.26685E+03 -8.70902E+03 -2.64588E+04  2.09646E+04 -3.18737E+04
  3.83677E+04 -7.38291E+03  3.22729E+04  2.32098E+04  1.62124E+04  4.33132E+04 -7.52863E+03  4.63252E+04
 -2.93235E+04  3.10799E+04 -3.82759E+04  8.91382E+03 -3.93777E+04 -1.51794E+04 -2.17214E+04 -3.51998E+04
  6.92297E+03 -3.48072E+04  2.95656E+04 -1.31649E+04  2.66897E+04  1.03281E+04  3.08577E+03  1.79200E+04
 -1.32652E+04  7.63773E+03 -9.81895E+03 -7.15917E+03  5.75138E+03 -9.87926E+03  1.74467E+04  6.74571E+03
  1.27658E+04  2.17221E+04 -6.84826E+03  2.34327E+04 -2.19690E+04  9.79140E+03 -2.56424E+04 -5.82430E+03
 -1.72328E+04 -1.65599E+04 -5.95123E+03 -1.75011E+04  3.77577E+03 -1.59340E+04  1.33530E+04 -1.51384E+04
  2.18669E+04 -1.21235E+04  2.91156E+04  1.59574E+03  2.16014E+04  1.69911E+04  3.84366E+03  3.30824E+04
 -1.61268E+04  2.77779E+04 -2.61913E+04  9.55060E+03 -1.99404E+04 -9.98797E+03 -4.16135E+03 -1.40989E+04
  2.70268E+03 -4.47538E+03 -2.68185E+03  5.47591E+03 -1.40153E+04  5.67381E+03 -1.35824E+04 -5.51360E+03
 -8.56377E+03 -1.59158E+04  4.97947E+03 -1.98705E+04  1.26049E+04 -1.49160E+04  1.47059E+04 -1.79741E+03
  8.89756E+03  1.06956E+04 -1.13715E+03  1.61443E+04 -1.06461E+04  8.83641E+03 -1.65611E+04 -2.96558E+03
 -1.17468E+04 -1.47083E+04 -1.44088E+03 -1.96424E+04  7.95728E+03 -1.53597E+04  1.65161E+04 -7.59346E+03
  1.45041E+04  7.41417E+02  1.07516E+04  4.11813E+03  6.14933E+03  6.47893E+02  7.86987E+03 -1.66061E+03
  1.48578E+04  3.05523E+03  1.52194E+04  1.29565E+04  9.35847E+03  2.52602E+04 -3.30284E+03  2.71771E+04
 -1.62944E+04  2.13481E+04 -2.52592E+04  1.00125E+04 -2.51841E+04 -1.56770E+03 -2.18420E+04 -1.49974E+04
 -1.05883E+04 -2.06497E+04  6.99307E+03 -1.98874E+04  1.66353E+04 -1.09907E+04  1.57625E+04  3.55985E+03
  6.17449E+03  1.12410E+04 -6.90470E+03  1.02739E+04 -1.31751E+04  2.23681E+03 -1.02883E+04 -7.55326E+03
  3.28241E+02 -1.24756E+04  6.26963E+03 -9.57637E+03  8.61522E+03 -1.32458E+03  1.80851E+03  4.60981E+03
 -5.98869E+03  1.22197E+03 -3.78135E+03 -4.43428E+03  7.38057E+02 -1.01990E+04  8.02961E+03 -1.06523E+04
  1.22117E+04 -4.81742E+03  1.25220E+04  3.21051E+03  1.07699E+04  9.44217E+03  5.00741E+03  1.52282E+04
 -1.91898E+03  1.53832E+04 -9.52716E+03  1.03341E+04 -1.16813E+04  2.88179E+03 -8.26760E+03 -1.85909E+03
 -4.63385E+03 -3.58100E+03 -8.43777E+02  1.23724E+03 -1.46391E+03  2.31626E+03 -3.96262E+03  3.45077E+03
 -8.69712E+03 -7.14083E+02 -8.96094E+03 -7.76684E+03 -3.52414E+03 -1.13584E+04  3.51957E+03 -8.61173E+03
  7.28681E+03 -3.51776E+03  4.69852E+03  2.10420E+03  3.46268E+02  3.22558E+03 -3.80689E+03  1.29532E+02
 -3.48894E+03 -5.45808E+03 -7.07040E+02 -6.93022E+03  4.04697E+03 -7.89159E+03  9.91223E+03 -3.69915E+03
  1.14103E+04  6.10005E+02  8.33559E+03  6.00499E+03  1.57792E+03  8.92743E+03 -5.02780E+03  8.21305E+03
 -7.49747E+03  2.93518E+03 -3.38430E+03 -1.44472E+03  9.58827E+02 -1.87865E+03  4.66709E+03 -1.37183E+03
  4.28467E+03  2.97849E+03  1.47801E+03  6.84067E+03 -4.05722E+03  6.04290E+03 -7.73517E+03  1.72315E+03
 -4.93941E+03 -3.89573E+03  5.36485E+02 -6.98223E+03  3.55822E+03 -3.11286E+03  3.66855E+03  1.05629E+03
  6.74930E+02  3.94419E+03 -4.40143E+03  4.77571E+03 -4.74528E+03  2.40190E+03 -4.57336E+03 -1.48580E+03
 -2.67946E+03 -5.88812E+03  8.84943E+02 -7.30950E+03  6.24120E+03 -4.87205E+03  6.84661E+03  7.48989E+02
  4.51678E+03  5.12432E+03 -3.58572E+01  7.63829E+03 -4.78636E+03  4.21093E+03 -5.36191E+03 -6.48417E+02
 -5.34354E+03 -4.75773E+03 -1.49547E+03 -5.32974E+03  2.83192E+03 -4.25767E+03  2.55945E+03 -2.66430E+03
  2.75643E+03  2.01890E+02  2.76540E+02  9.57365E+02  7.75849E+02 -3.08713E+02  7.48625E+02 -1.41082E+03
  3.94683E+03 -3.41575E+02  5.41196E+03  7.81274E+02  5.60227E+03  3.06367E+03  5.09813E+03  6.60081E+03
 -8.10027E+02  8.38855E+03 -7.46494E+03  6.39442E+03 -9.95453E+03  1.43915E+03 -8.08649E+03 -2.51801E+03
 -3.97408E+03 -6.60880E+03 -2.63151E+01 -5.15088E+03  1.92169E+03 -1.70634E+03  1.78930E+03 -1.72495E+03
  1.28150E+03 -1.47197E+03  2.38738E+03 -2.63078E+03  3.69060E+03 -1.52592E+03  3.77241E+03  5.41417E+02
  4.39413E+03  8.90656E+02  1.63350E+03  3.03948E+03 -1.81456E+03  3.31479E+03 -4.04738E+03  2.77022E+03
 -4.37542E+03 -1.31955E+03 -2.04496E+03 -2.56467E+03  1.31451E+02 -4.71691E+03  2.88316E+03 -5.68350E+03
  5.54460E+03 -2.82940E+03  6.42585E+03  5.66401E+02  4.37996E+03  4.26917E+03  1.01365E+03  6.15830E+03
 -1.92056E+03  5.65221E+03 -2.73180E+03  1.54623E+03 -1.54026E+03 -8.27922E+02  5.63298E+00 -4.00447E+02
 -7.25633E+02  5.45307E+02 -9.65840E+02  1.31226E+03 -2.89021E+03  5.67518E+02 -4.52193E+03  1.27930E+02
 -1.64013E+03 -4.14151E+03  6.79809E+02 -4.41297E+03  2.49039E+03 -4.28993E+03  3.00575E+03 -7.69618E+02
  4.27484E+03  2.42707E+03  1.72496E+03  3.56081E+03 -8.48022E+02  4.12616E+03 -2.88843E+03  2.17309E+03
 -3.21528E+03  8.71901E+02 -2.91668E+03 -2.17099E+03  3.72008E+01 -3.17399E+03  1.71288E+03 -3.15015E+03
  2.49106E+03 -9.43877E+02  1.87149E+03  1.17718E+03  2.86866E+02  1.78300E+03  6.83853E+02  9.01176E+02
  1.30585E+03  2.88160E+02  1.13417E+03  1.12531E+03  8.40280E+02  1.99739E+03  1.29030E+03  1.96500E+03
 -1.21627E+03  2.84081E+03 -2.12060E+03  3.67353E+03 -2.50875E+03  1.44662E+03 -3.78059E+03 -2.97761E+02
 -1.53825E+03 -3.28007E+03  2.42463E+02 -4.55832E+03  1.77437E+03 -1.84034E+03  2.47744E+03 -1.34020E+03
  2.30291E+03  2.04883E+03  4.30627E+02  1.82796E+03 -2.93200E+02  1.15955E+03 -1.15259E+03  1.07440E+02
 -4.97127E+02 -1.59630E+03  1.45606E+03 -1.17375E+03  9.06244E+02 -1.25239E+03  1.19449E+03 -1.07969E+01
  3.83203E+02  5.82548E+02  2.04315E+02 -1.48118E+02 -5.09483E+02  9.84540E+02  1.35596E+03 -1.75262E+02
  5.81238E+02  6.41248E+02  1.53180E+03  4.01460E+02 -2.07888E+02  1.87272E+03 -2.51150E+02  3.00576E+03
 -2.04251E+03  6.02719E+02 -1.97623E+03  2.07560E+02 -1.88117E+03 -1.10097E+03 -1.75407E+02 -4.34183E+02
  4.85379E+02 -5.48750E+02  5.28583E+02 -4.88640E+02  6.38916E+02  1.16410E+03 -1.14035E+03  1.12061E+03
 -1.03175E+03  6.75561E+02 -1.00181E+03 -1.45531E+03 -3.46002E+02 -1.82527E+03  3.38957E+02 -1.48916E+03
  3.77087E+02  1.33019E+02  6.76498E+02 -6.49855E+01  1.85351E+03 -2.71127E+02  3.96074E+02  7.27953E+02
 -4.99198E+02 -1.31419E+02 -8.54193E+02 -3.33492E+02  1.01931E+03 -5.39103E+02  1.21362E+03 -9.39886E+02
  1.60865E+03  4.26602E+02  2.01762E+03  2.86607E+02  1.24866E+03  1.47510E+03 -4.31886E+01  2.24511E+03
 -1.31432E+03  1.25308E+02 -1.15199E+03 -4.94172E+02 -7.44883E+02 -5.26387E+02  2.41933E+02 -8.82760E+02
  1.51611E+03 -5.72989E+02  1.34892E+03  8.50576E+02  6.66057E+01  1.47802E+03 -5.00086E+02  8.89805E+02
 -1.19093E+02  4.84186E+02 -2.13618E+02  1.95472E+01  1.05266E+02  3.61321E+02 -7.50532E+02  9.75243E+02
 -4.63051E+02  1.20772E+03 -1.40559E+03 -2.83293E+01 -1.25950E+03 -1.96565E+02 -2.47189E+03 -9.65653E+02
 -9.87594E+02 -2.57259E+03  7.72012E+02 -2.06082E+03  9.06599E+02 -1.87155E+03  2.67250E+03 -7.83966E+02
  2.13155E+03  1.26096E+02  1.29576E+03  1.34401E+03 -1.01859E+03  1.50791E+03 -6.32765E+02  9.92826E+02
 -6.87164E+02  6.01408E+02 -1.10245E+03  4.40443E+01 -5.25862E+02  4.02602E+02 -5.04330E+02 -5.88866E+02
 -7.10262E+02 -3.76942E+02 -7.44305E+02  1.96126E+02 -8.69197E+01 -8.71421E+02 -2.86255E+02 -6.38947E+02
  9.48404E+02 -1.01107E+03  5.80906E+02  2.67898E+02  6.11529E+02  8.26983E+02 -8.04186E+02  1.14345E+03
 -7.35295E+02  2.04615E+03 -1.53454E+03  1.39370E+03 -1.50019E+03  1.95021E+02 -9.99356E+02 -1.30004E+03
 -7.91571E+02 -9.13154E+02 -3.32279E+02 -1.00296E+03  2.74453E+02 -4.74952E+02  6.72281E+02  1.36318E+02
  9.76584E+02  5.63796E+02 -7.34052E+02  2.40402E+02 -6.36403E+02 -1.77510E+02  1.23659E+02 -3.58880E+02
  4.59934E+02  2.51601E+02 -4.16441E+01  2.52716E+02 -8.25063E+01  3.41785E+02 -1.37857E+02  6.91568E+01
 -3.88784E+02  3.02895E+02 -5.37221E+02 -2.00482E+02 -4.41087E+02 -3.72782E+01 -2.84746E+01 -7.02812E+02
  2.08179E+02 -4.02421E+02  1.20776E+02  1.32997E+02  4.58867E+02 -5.62394E+02 -4.53249E+01  5.53636E+02
  2.14846E+02  4.12536E+02 -2.97041E+02  5.02418E+02 -1.66075E+02  1.29484E+02 -2.07452E+02 -3.61887E+01
  2.20713E+02 -6.21128E+02 -7.37705E+02  4.17883E+02 -7.07445E+01 -3.52547E+02 -9.30683E+02 -1.48058E+02
 -7.58882E+02  5.10273E+01 -5.55109E+02 -7.47678E+02  7.52230E+02 -1.44598E+03  6.58129E+02  1.71820E+02
  2.60854E+01  1.37492E+01 -3.85770E+02  2.84462E+01 -4.20425E+02  2.15527E+02 -3.07540E+02  1.30728E+02
