 $NMID ID='MM_0lb_SNR400_8hz_g50_67.RAW', FMTDAT='(8E13.5)'
 TRAMP=1., VOLUME=1. $END
  3.09846E+05 -6.58039E+01  3.38225E+05  2.50247E+05  8.53246E+04  3.38551E+05 -1.32406E+05  2.52317E+05
 -1.90163E+05  8.33866E+04 -1.12119E+05 -3.20433E+04  1.89558E+01 -5.07050E+04  5.36486E+04 -3.57592E+02
  3.55129E+04  5.32958E+04 -1.69275E+04  7.70290E+04 -6.11641E+04  6.43531E+04 -8.58344E+04  3.24099E+04
 -8.28889E+04 -1.30904E+04 -5.81385E+04 -5.22360E+04 -1.48040E+04 -7.11856E+04  2.80143E+04 -4.76790E+04
  4.08819E+04  2.99158E+03  1.67197E+04  4.84320E+04 -3.49775E+04  4.86637E+04 -6.80458E+04 -1.93416E+02
 -5.58839E+04 -5.84846E+04 -7.98681E+03 -7.87681E+04  3.51755E+04 -5.72585E+04  5.05065E+04 -1.85467E+04
  4.50834E+04  1.17515E+04  3.35818E+04  2.70044E+04  1.57094E+04  3.10757E+04 -6.31960E+03  2.74631E+04
 -2.31368E+04  1.14563E+04 -1.84642E+04 -6.22303E+03  6.82385E+03 -6.56309E+03  2.41956E+04  1.41635E+04
  6.64164E+03  3.74705E+04 -3.38336E+04  3.79892E+04 -6.63716E+04  2.79160E+03 -5.87721E+04 -4.44611E+04
 -1.33216E+04 -6.72393E+04  4.14467E+04 -4.80494E+04  6.20595E+04 -2.11371E+03  3.77863E+04  3.49906E+04
 -5.30509E+03  3.94511E+04 -3.29287E+04  1.96633E+04 -3.40213E+04 -3.36745E+03 -1.93556E+04 -1.21426E+04
 -9.56740E+03 -1.56238E+04 -7.22808E+02 -1.97152E+04  8.35025E+03 -2.33828E+04  1.62385E+04 -1.27875E+04
  1.05134E+04  6.88929E+03 -1.10467E+04  1.28027E+04 -2.37654E+04 -6.72300E+03 -8.25638E+03 -3.81238E+04
  2.61903E+04 -4.84662E+04  5.28457E+04 -2.08492E+04  4.84810E+04  2.07089E+04  1.82073E+04  4.76456E+04
 -1.62552E+04  3.58642E+04 -2.81549E+04  2.99800E+03 -1.25247E+04 -3.00241E+04  2.13414E+04 -3.82074E+04
  4.52384E+04 -1.12385E+04  4.15285E+04  2.54260E+04  2.24054E+04  5.23651E+04 -6.91981E+03  5.65668E+04
 -3.59795E+04  3.94885E+04 -4.81379E+04  1.15073E+04 -4.93658E+04 -1.93018E+04 -2.77307E+04 -4.21050E+04
  7.87305E+03 -4.25771E+04  3.46946E+04 -1.76737E+04  3.22954E+04  1.14580E+04  5.04327E+03  2.04287E+04
 -1.33733E+04  9.83897E+03 -1.24177E+04 -7.39945E+03  6.08428E+03 -1.16591E+04  1.89273E+04  4.79298E+03
  1.53665E+04  2.28687E+04 -5.16673E+03  2.72865E+04 -2.43188E+04  1.45137E+04 -3.27565E+04 -3.12557E+03
 -2.64559E+04 -1.76833E+04 -1.27655E+04 -2.55783E+04  4.05275E+03 -2.73019E+04  2.03207E+04 -2.36442E+04
  3.35384E+04 -1.43642E+04  3.88299E+04  5.42701E+03  2.75810E+04  2.51713E+04  4.84838E+03  4.27946E+04
 -2.04076E+04  3.42444E+04 -3.13871E+04  1.26050E+04 -2.27755E+04 -1.03772E+04 -4.66012E+03 -1.28277E+04
  8.74433E+02 -1.44948E+03 -8.84918E+03  9.45349E+03 -2.14240E+04  5.06788E+03 -2.13891E+04 -1.01818E+04
 -1.24936E+04 -2.47042E+04  6.81691E+03 -2.87598E+04  1.97372E+04 -1.99896E+04  2.42537E+04 -1.56751E+03
  1.52964E+04  1.64379E+04 -8.72445E+02  2.48899E+04 -1.83482E+04  1.42003E+04 -2.36989E+04 -3.99584E+03
 -1.79946E+04 -2.14514E+04 -2.13150E+03 -2.86439E+04  1.29863E+04 -2.43459E+04  2.41918E+04 -1.27192E+04
  2.28691E+04 -3.30313E+02  1.74927E+04  5.49703E+03  9.24322E+03  1.52269E+03  1.24351E+04 -1.67183E+03
  2.29843E+04  2.73160E+03  2.70270E+04  1.88063E+04  1.83497E+04  3.94851E+04 -2.75601E+03  4.68609E+04
 -2.64389E+04  4.03695E+04 -4.37336E+04  1.98188E+04 -4.67533E+04 -3.12762E+03 -3.76029E+04 -2.75849E+04
 -1.50331E+04 -3.97227E+04  1.34090E+04 -3.48737E+04  2.97620E+04 -1.57241E+04  2.51304E+04  8.78727E+03
  8.11808E+03  2.06694E+04 -1.21066E+04  1.63018E+04 -2.13002E+04  1.87709E+03 -1.63216E+04 -1.33932E+04
  1.18594E+02 -1.97447E+04  1.05746E+04 -1.56743E+04  1.38887E+04 -7.39874E+02  2.67695E+03  8.77719E+03
 -9.32005E+03  4.54979E+03 -1.03371E+04 -7.23976E+03 -1.98192E+03 -1.86095E+04  1.23629E+04 -2.13217E+04
  2.45715E+04 -1.19852E+04  2.76616E+04  3.63737E+03  2.49158E+04  1.96100E+04  1.13858E+04  3.17647E+04
 -5.77943E+03  3.30211E+04 -2.28115E+04  2.04628E+04 -2.44892E+04  3.98630E+03 -1.61937E+04 -6.26570E+03
 -7.18623E+03 -8.01249E+03 -1.07330E+03  7.58471E+02 -3.10875E+03  4.39546E+03 -8.07819E+03  6.44845E+03
 -1.39340E+04 -1.01136E+03 -1.54759E+04 -1.24978E+04 -6.53569E+03 -2.02256E+04  6.81901E+03 -1.63623E+04
  1.39647E+04 -6.51940E+03  9.33233E+03  4.64086E+03  4.71114E+02  6.09819E+03 -7.67986E+03 -1.74254E+02
 -8.52176E+03 -1.06211E+04 -1.76115E+03 -1.61520E+04  1.04685E+04 -1.73442E+04  2.10555E+04 -9.00212E+03
  2.47330E+04  2.60473E+03  1.91446E+04  1.50982E+04  3.40042E+03  2.05355E+04 -1.00771E+04  1.71158E+04
 -1.30378E+04  3.64600E+03 -6.85399E+03 -3.55817E+03  1.66775E+03 -5.18775E+03  8.46943E+03 -1.36490E+03
  7.79778E+03  7.43052E+03  8.66296E+02  1.36266E+04 -1.00422E+04  1.31933E+04 -1.57261E+04  2.16633E+03
 -1.17470E+04 -8.58959E+03 -1.78470E+02 -1.47073E+04  9.68092E+03 -7.40588E+03  1.02659E+04  3.88314E+03
  2.25242E+03  1.19244E+04 -9.52098E+03  1.22780E+04 -1.54125E+04  5.62029E+03 -1.54569E+04 -5.59538E+03
 -8.96373E+03 -1.69708E+04  4.61902E+03 -1.95765E+04  1.67709E+04 -1.16003E+04  1.84287E+04  2.97293E+03
  1.10370E+04  1.42655E+04 -1.59989E+03  1.59930E+04 -1.26526E+04  1.10835E+04 -1.41129E+04 -9.99191E+02
 -1.13310E+04 -1.04754E+04 -1.18715E+03 -1.24040E+04  7.14994E+03 -1.05123E+04  8.99506E+03 -4.09583E+03
  4.95892E+03  1.57531E+03 -1.60670E+03  1.53800E+03 -1.14584E+03 -3.38604E+03  3.22316E+03 -7.67852E+03
  1.30474E+04 -5.54177E+03  1.79698E+04  2.08874E+03  1.73744E+04  1.19613E+04  1.14298E+04  2.31517E+04
 -5.24715E+03  2.63917E+04 -2.18918E+04  1.87779E+04 -2.86086E+04  4.07636E+03 -2.30910E+04 -1.01948E+04
 -1.07731E+04 -1.92792E+04 -1.51130E+03 -1.54564E+04  5.26807E+03 -9.33869E+03  5.36947E+03 -6.17159E+03
  5.12855E+03 -4.22718E+03  4.79442E+03 -4.33339E+03  5.40706E+03 -3.71460E+03  8.38837E+03 -1.48724E+03
  1.18491E+04  2.83445E+03  6.41535E+03  1.04624E+04 -2.40256E+03  1.29225E+04 -1.23450E+04  1.00969E+04
 -1.77109E+04 -9.25309E+02 -1.03873E+04 -1.09234E+04 -1.74709E+03 -1.77415E+04  9.44490E+03 -1.69161E+04
  1.83799E+04 -9.46688E+03  2.17467E+04  3.30405E+03  1.50679E+04  1.48680E+04  2.59672E+03  1.90712E+04
 -8.37595E+03  1.65361E+04 -1.20571E+04  6.09761E+03 -8.00239E+03 -2.37549E+03 -3.42378E+03 -2.29991E+03
 -1.74148E+03  6.12479E+01 -2.95917E+03  3.85473E+03 -6.96223E+03  2.57912E+03 -1.15213E+04 -2.22808E+03
 -7.98818E+03 -1.14166E+04 -4.70416E+02 -1.57534E+04  9.70053E+03 -1.57067E+04  1.71119E+04 -4.83240E+03
  1.56874E+04  7.88904E+03  7.90415E+03  1.46575E+04 -3.08923E+03  1.69942E+04 -1.19088E+04  1.11640E+04
 -1.61249E+04  1.00018E+03 -1.23096E+04 -1.07212E+04 -1.58683E+03 -1.33959E+04  7.23840E+03 -1.07814E+04
  1.08734E+04 -3.29622E+03  7.42898E+03  2.94516E+03  2.10134E+03  4.50770E+03  1.20249E+03  2.36326E+03
  3.34438E+03  1.19284E+03  4.61905E+03  2.44735E+03  5.15000E+03  5.37303E+03  4.06850E+03  8.38111E+03
 -3.15215E+03  1.33457E+04 -1.15683E+04  1.40577E+04 -1.77378E+04  2.97896E+03 -1.75238E+04 -7.49660E+03
 -8.96271E+03 -1.77570E+04  2.78773E+03 -1.80883E+04  1.05128E+04 -1.25007E+04  1.42816E+04 -3.15892E+03
  1.09231E+04  7.11461E+03  2.43060E+03  9.55062E+03 -4.24398E+03  6.88062E+03 -7.39463E+03 -1.05795E+03
 -2.75613E+03 -7.88742E+03  3.55658E+03 -8.12059E+03  6.71852E+03 -4.04711E+03  7.12896E+03  1.74429E+03
  4.99122E+03  2.63033E+03  1.73109E+03  2.75312E+03 -1.05990E+03  2.78143E+03  2.10196E+03 -7.54987E+02
  3.26929E+03 -7.53988E+02  7.34516E+03  1.88940E+03  3.76847E+03  9.74987E+03 -2.10307E+03  1.18735E+04
 -8.03147E+03  8.11449E+03 -1.16891E+04  1.87476E+03 -9.86412E+03 -3.97429E+03 -4.20162E+03 -7.77949E+03
  4.40612E+02 -6.94976E+03  3.58057E+03 -2.97512E+03  3.90310E+03  3.90347E+03 -1.57168E+03  6.11331E+03
 -7.16674E+03  3.40747E+03 -8.52296E+03 -4.09560E+03 -5.30599E+03 -9.73735E+03  1.75509E+03 -9.33243E+03
  5.62903E+03 -6.11210E+03  6.72178E+03 -6.15143E+02  6.29382E+03  2.10187E+03  7.85292E+02  5.48358E+03
 -4.22682E+03  1.67602E+03 -4.37334E+03 -3.27821E+03  5.34778E+02 -8.01552E+03  8.66686E+03 -6.70896E+03
  1.12078E+04  3.20801E+02  1.11280E+04  7.96913E+03  3.48152E+03  1.24493E+04 -4.98939E+03  1.14563E+04
 -1.09381E+04  5.12556E+03 -1.04094E+04 -9.01421E+02 -5.11448E+03 -7.11306E+03  1.42520E+03 -7.29776E+03
  7.11252E+03 -3.17757E+03  6.27263E+03  3.33228E+03  2.39303E+03  7.00491E+03 -1.85518E+03  5.87122E+03
 -3.73214E+03  3.86572E+03 -3.36195E+03  6.12414E+02 -1.53537E+03  1.27222E+03 -2.61540E+03  2.29491E+03
 -2.95578E+03  3.73364E+03 -7.98237E+03  4.57411E+03 -1.25629E+04  2.01365E+02 -1.28751E+04 -7.21028E+03
 -7.09493E+03 -1.51628E+04  3.93509E+03 -1.81554E+04  1.10557E+04 -1.40710E+04  1.67919E+04 -5.38035E+03
  1.57393E+04  2.95628E+03  1.08328E+04  1.04518E+04  8.26475E+02  1.27169E+04 -4.73467E+03  8.73566E+03
 -6.34026E+03  2.76941E+03 -4.96449E+03 -1.59693E+03 -1.01887E+03 -1.68302E+03 -2.55179E+02  2.90075E+02
 -8.83792E+02  5.72979E+02 -2.82712E+03  6.31204E+01 -1.11970E+03 -3.63220E+03  2.63583E+02 -5.22556E+03
  5.10589E+03 -4.01600E+03  7.19691E+03  2.35706E+02  8.78908E+03  6.46509E+03  1.42867E+03  1.26329E+04
 -6.30866E+03  1.40205E+04 -1.40038E+04  7.81421E+03 -1.55913E+04 -1.50139E+03 -1.22392E+04 -9.71492E+03
 -4.08858E+03 -1.34740E+04  3.96713E+03 -1.16700E+04  8.60601E+03 -6.93528E+03  8.69177E+03 -1.92636E+02
  4.69608E+03  4.64273E+03 -1.94600E+02  3.67757E+03 -2.04302E+03 -8.36117E+00  9.33749E+02 -2.79917E+03
  3.82779E+03 -1.96747E+03  4.99335E+03  1.87427E+03  2.91867E+03  5.04585E+03  1.78098E+02  7.19906E+03
 -6.32584E+03  5.75402E+03 -8.66567E+03  6.31731E+02 -7.26187E+03 -5.45649E+03 -1.65790E+03 -9.69663E+03
  6.04225E+03 -9.32289E+03  9.91660E+03 -2.08627E+03  9.68366E+03  2.62587E+03  6.31782E+03  7.62916E+03
  5.62492E+02  8.14952E+03 -3.08945E+03  7.11243E+03 -5.35052E+03  3.85042E+03 -4.33988E+03  8.64784E+02
 -2.68039E+03  3.14724E+02 -3.04544E+03  1.31416E+03 -4.54456E+03  1.67133E+03 -6.01204E+03 -8.63703E+02
 -6.38019E+03 -4.41445E+03 -2.79956E+03 -8.79231E+03  4.30492E+03 -7.51354E+03  7.16035E+03 -5.05495E+03
  9.00543E+03  1.80911E+03  5.10881E+03  5.76540E+03 -2.05446E+02  9.12891E+03 -6.84397E+03  5.76660E+03
