 $NMID ID='MM_0lb_SNR400_18hz_g60_52.RAW', FMTDAT='(8E13.5)'
 TRAMP=1., VOLUME=1. $END
  3.09796E+05  1.55891E+02  3.37451E+05  2.51354E+05  8.42867E+04  3.37280E+05 -1.32700E+05  2.50995E+05
 -1.89937E+05  8.33140E+04 -1.11604E+05 -3.28685E+04  1.06438E+03 -5.01197E+04  5.37182E+04 -2.94044E+02
  3.54555E+04  5.26093E+04 -1.68707E+04  7.51276E+04 -6.08537E+04  6.33699E+04 -8.46884E+04  3.14691E+04
 -8.11275E+04 -1.11955E+04 -5.70650E+04 -5.13356E+04 -1.47907E+04 -6.92963E+04  2.73027E+04 -4.53411E+04
  4.01228E+04  3.23448E+03  1.64657E+04  4.76245E+04 -3.39721E+04  4.70252E+04 -6.59774E+04 -5.71069E+02
 -5.28379E+04 -5.61561E+04 -6.63675E+03 -7.63534E+04  3.41585E+04 -5.51022E+04  4.71962E+04 -1.71682E+04
  4.27516E+04  1.06851E+04  3.14102E+04  2.50377E+04  1.58241E+04  2.90196E+04 -5.25586E+03  2.71869E+04
 -2.17342E+04  1.27623E+04 -1.88327E+04 -3.74592E+03  4.89736E+03 -7.32748E+03  2.24645E+04  1.24714E+04
  7.03718E+03  3.43946E+04 -3.18400E+04  3.49843E+04 -6.28700E+04  1.92750E+03 -5.64505E+04 -4.21771E+04
 -1.27939E+04 -6.25364E+04  3.92557E+04 -4.44108E+04  5.75796E+04 -2.57132E+03  3.40726E+04  3.25638E+04
 -6.47140E+03  3.53881E+04 -2.99258E+04  1.52007E+04 -2.91158E+04 -4.35049E+03 -1.59040E+04 -1.04064E+04
 -8.01413E+03 -1.22489E+04 -4.81863E+02 -1.74250E+04  6.92110E+03 -2.28045E+04  1.52285E+04 -1.31553E+04
  1.17949E+04  4.28681E+03 -7.63596E+03  1.27980E+04 -2.06190E+04 -3.61296E+03 -8.15948E+03 -3.22420E+04
  2.21760E+04 -4.28023E+04  4.70866E+04 -1.93463E+04  4.40402E+04  1.92170E+04  1.51169E+04  4.32270E+04
 -1.55425E+04  3.30583E+04 -2.46128E+04  1.11289E+03 -8.96123E+03 -2.66322E+04  2.08226E+04 -3.30011E+04
  3.97568E+04 -8.47637E+03  3.36456E+04  2.33207E+04  1.72715E+04  4.49018E+04 -8.06836E+03  4.83102E+04
 -3.06709E+04  3.22080E+04 -4.04220E+04  8.97227E+03 -4.04885E+04 -1.58842E+04 -2.32404E+04 -3.66720E+04
  7.34391E+03 -3.66924E+04  3.04697E+04 -1.39607E+04  2.82008E+04  1.06903E+04  3.89119E+03  1.91937E+04
 -1.34820E+04  8.12101E+03 -9.96569E+03 -7.67670E+03  5.47146E+03 -1.00086E+04  1.82733E+04  6.10274E+03
  1.32711E+04  2.19406E+04 -5.93856E+03  2.46281E+04 -2.18059E+04  9.89273E+03 -2.64280E+04 -4.79038E+03
 -1.86264E+04 -1.67529E+04 -7.16577E+03 -1.83604E+04  4.31181E+03 -1.74472E+04  1.38122E+04 -1.63775E+04
  2.41862E+04 -1.20638E+04  3.09207E+04  2.22345E+03  2.26177E+04  1.85094E+04  3.88747E+03  3.44012E+04
 -1.70278E+04  2.94206E+04 -2.69752E+04  9.60011E+03 -2.03010E+04 -1.07123E+04 -4.32699E+03 -1.35308E+04
  2.47728E+03 -3.45039E+03 -3.67839E+03  5.97158E+03 -1.45677E+04  5.36678E+03 -1.53625E+04 -6.69847E+03
 -8.92295E+03 -1.73853E+04  4.85792E+03 -2.07346E+04  1.38886E+04 -1.53670E+04  1.64022E+04 -1.96750E+03
  1.09342E+04  1.17207E+04 -8.68232E+02  1.75459E+04 -1.16863E+04  9.84737E+03 -1.71173E+04 -3.42380E+03
 -1.22774E+04 -1.52828E+04 -2.22389E+03 -2.10609E+04  9.57456E+03 -1.73270E+04  1.77884E+04 -8.49404E+03
  1.61443E+04  8.93835E+02  1.17318E+04  4.41979E+03  6.20212E+03  8.43950E+02  8.54358E+03 -1.59085E+03
  1.52056E+04  3.08749E+03  1.66252E+04  1.35505E+04  1.06639E+04  2.74074E+04 -3.06510E+03  2.98503E+04
 -1.77825E+04  2.36348E+04 -2.77258E+04  1.11184E+04 -2.86536E+04 -2.20756E+03 -2.39146E+04 -1.65846E+04
 -1.10570E+04 -2.37800E+04  8.17485E+03 -2.13432E+04  1.88414E+04 -1.18307E+04  1.69520E+04  4.06228E+03
  7.06900E+03  1.19524E+04 -7.99111E+03  1.13126E+04 -1.41170E+04  2.37407E+03 -1.08667E+04 -8.71654E+03
  3.50970E+02 -1.36417E+04  7.06952E+03 -1.01005E+04  8.54640E+03 -1.71960E+03  2.30662E+03  5.76139E+03
 -5.75298E+03  1.62791E+03 -4.49735E+03 -5.07557E+03  5.09864E+01 -1.16438E+04  8.64056E+03 -1.19424E+04
  1.40532E+04 -5.73580E+03  1.44244E+04  2.97107E+03  1.27179E+04  1.11034E+04  5.56422E+03  1.65129E+04
 -2.13106E+03  1.82038E+04 -1.13663E+04  1.12127E+04 -1.28883E+04  3.14881E+03 -9.03793E+03 -2.45162E+03
 -4.65182E+03 -3.82811E+03 -4.33086E+02  2.08591E+03 -2.14738E+03  2.07000E+03 -4.26770E+03  3.69879E+03
 -9.23047E+03 -6.96367E+02 -9.90673E+03 -7.64907E+03 -3.68769E+03 -1.29197E+04  3.79716E+03 -9.64807E+03
  7.63136E+03 -4.43050E+03  5.99862E+03  2.44328E+03  1.23920E+03  3.79946E+03 -3.89206E+03  5.71035E+02
 -3.86582E+03 -6.41216E+03 -4.72922E+02 -8.32496E+03  5.28864E+03 -9.29728E+03  1.09807E+04 -4.25236E+03
  1.32102E+04  9.71217E+02  9.71855E+03  7.14765E+03  2.12027E+03  1.02931E+04 -5.58961E+03  9.42154E+03
 -8.16315E+03  3.23297E+03 -3.71567E+03 -1.28614E+03  1.03505E+03 -1.61575E+03  4.82696E+03 -8.34101E+02
  4.37561E+03  4.27087E+03  5.65006E+02  6.99913E+03 -4.80287E+03  7.32923E+03 -8.14264E+03  1.42877E+03
 -5.75821E+03 -4.27916E+03  8.37397E+00 -7.75624E+03  4.55119E+03 -3.61357E+03  4.12754E+03  7.27734E+02
  1.01238E+03  4.10110E+03 -4.65927E+03  5.56418E+03 -5.48616E+03  2.50598E+03 -5.32995E+03 -1.57384E+03
 -3.46065E+03 -7.41997E+03  1.73581E+03 -8.30695E+03  6.98043E+03 -5.58679E+03  7.75455E+03  1.51104E+03
  4.69701E+03  5.81568E+03 -3.53615E+02  8.58351E+03 -5.52182E+03  4.80396E+03 -5.66380E+03 -3.12369E+02
 -5.46409E+03 -5.73440E+03 -1.64308E+03 -5.78250E+03  2.83637E+03 -5.06768E+03  3.45516E+03 -3.29674E+03
  3.40299E+03 -3.55748E+02 -2.17127E+01  1.44693E+03  5.01224E+02 -7.63263E+02  1.14191E+03 -2.53151E+03
  4.49752E+03 -1.28424E+03  5.95472E+03  8.81126E+02  6.70350E+03  3.90233E+03  6.21496E+03  8.41021E+03
 -1.72593E+03  9.19596E+03 -8.73441E+03  7.38101E+03 -1.10715E+04  1.28619E+03 -8.88859E+03 -3.23020E+03
 -4.76111E+03 -8.13085E+03 -4.22411E+02 -5.63228E+03  1.94647E+03 -2.58727E+03  1.77430E+03 -2.41110E+03
  1.70544E+03 -1.77944E+03  2.37730E+03 -2.13636E+03  3.23986E+03 -6.13184E+02  4.12436E+03  4.36844E+02
  4.90779E+03  6.25672E+02  1.56133E+03  3.69792E+03 -1.41060E+03  3.41827E+03 -4.99447E+03  3.31207E+03
 -5.93790E+03 -5.27873E+02 -2.40163E+03 -4.36352E+03  2.49288E+02 -5.93474E+03  3.58946E+03 -5.51974E+03
  5.71287E+03 -3.34385E+03  7.99940E+03  5.28254E+02  5.85269E+03  4.75547E+03  1.83719E+03  7.00349E+03
 -2.43291E+03  6.31843E+03 -3.06868E+03  2.29244E+03 -1.60269E+03 -1.06329E+03 -7.83894E+02 -5.65012E+02
 -2.51991E+02  8.35520E+02 -9.94511E+02  2.11462E+03 -2.58031E+03  9.27909E+02 -4.49146E+03 -3.80857E+02
 -2.46869E+03 -4.41828E+03  5.88895E+02 -5.44586E+03  3.15256E+03 -5.49217E+03  4.09461E+03 -1.16649E+03
  4.60564E+03  2.82754E+03  2.29780E+03  3.87403E+03 -4.53992E+02  4.96517E+03 -3.47261E+03  2.51959E+03
 -4.41432E+03  8.46256E+02 -3.46413E+03 -2.58454E+03 -1.43487E+02 -3.83538E+03  1.58465E+03 -2.71121E+03
  2.55167E+03 -1.88332E+03  1.84966E+03  8.36905E+02  6.61606E+02  1.65407E+03  1.20824E+03  5.06742E+02
  2.39351E+03  6.12275E+02  1.68080E+03  8.27785E+02  1.37436E+03  2.15306E+03  1.83548E+03  1.80074E+03
 -1.30618E+03  3.60202E+03 -3.09875E+03  4.38065E+03 -3.41547E+03  1.46617E+03 -4.65247E+03 -6.01960E+02
 -2.39070E+03 -4.19016E+03  1.31182E+02 -5.28566E+03  2.11800E+03 -3.12678E+03  3.11927E+03 -7.64431E+02
  2.69810E+03  2.35833E+03  4.58396E+02  2.45041E+03 -7.00413E+02  2.15829E+03 -9.90459E+02 -3.19011E+02
 -6.51570E+01 -1.58508E+03  1.70863E+03 -1.78960E+03  1.49656E+03 -1.65601E+03  1.19039E+03  2.93926E+02
  1.06189E+03 -2.19964E+02  7.52771E+02  4.52316E+02 -6.11202E+02  8.83124E+02  1.33177E+03  1.86038E+01
  3.54927E+02 -5.40914E+02  1.93676E+03  2.46688E+02  1.80348E+02  3.36310E+03 -3.78979E+02  3.09465E+03
 -1.82287E+03  7.20028E+02 -2.45002E+03  5.45167E+02 -2.52808E+03 -1.17310E+03 -5.35095E+02 -7.37395E+02
  1.91468E+02 -1.15049E+03  9.83890E+02 -7.78728E+02  3.25109E+02  6.89622E+02 -8.17050E+02  1.32016E+03
 -1.18741E+03  4.13911E+02 -1.10592E+03 -1.64352E+03 -8.85110E+02 -2.80539E+03  2.28614E+02 -1.58020E+03
  9.08769E+02 -4.72599E+02  4.94606E+02  4.88303E+02  1.30835E+03 -3.36762E+02  2.32239E+02  1.42357E+03
 -2.90685E+02  3.66120E+02 -7.63321E+02 -5.19676E+02  7.70425E+02 -1.24446E+03  2.08240E+03 -9.28551E+02
  1.69460E+03  5.93092E+02  3.11585E+03  1.37025E+03  1.42322E+03  1.96127E+03 -3.98853E+02  2.37489E+03
 -1.50457E+03  2.69929E+02 -1.06226E+03 -7.29354E+02 -1.55829E+02 -1.59803E+03  2.72694E+02 -1.21850E+03
  1.37067E+03 -1.19306E+03  5.46107E+02  1.04448E+03  1.26110E+02  1.21889E+03 -1.99498E+02  1.16233E+03
  1.99478E+02  7.60528E+02  7.80018E+01  3.40257E+02 -3.11813E+02  2.45671E+02 -1.02561E+03  1.46211E+02
 -1.86366E+02  1.11881E+03 -1.79780E+03  6.72442E+02 -1.79586E+03  3.19000E+02 -2.28541E+03 -1.05771E+03
 -1.19199E+03 -2.54287E+03  3.89796E+02 -2.52935E+03  8.50944E+02 -1.89531E+03  2.76825E+03 -6.25731E+02
  2.67770E+03  5.42877E+01  1.26673E+03  1.73523E+03 -6.75174E+02  1.76223E+03 -3.50399E+02  1.11990E+03
 -1.28011E+03  1.26419E+03 -5.50927E+02  2.79267E+00 -1.16853E+03  7.60706E+02 -6.88350E+02  1.64929E+02
 -1.39595E+03 -2.04718E+02 -4.31815E+02 -4.98522E+01  1.15917E+02 -5.18491E+02 -1.35290E+02 -7.19565E+02
  1.37358E+03 -6.80395E+02  2.37481E+02  4.75619E+02  1.05595E+03  1.01133E+03 -8.85737E+02  1.41396E+03
 -7.42706E+02  1.65550E+03 -1.62505E+03  1.10831E+03 -1.40103E+03 -5.50691E+02 -1.73813E+03 -1.54967E+03
 -1.19181E+03 -1.42807E+03 -4.32353E+02 -1.44076E+03  6.02820E+02 -4.91852E+02  1.08226E+03 -3.29965E+02
  3.90104E+02  9.27747E+01  4.43146E+02  4.33501E+02 -4.25409E+02 -8.59536E+01  2.71697E+02 -9.91823E+01
  5.23841E+02  1.72270E+02  5.38428E+02  6.38145E+02  1.72259E+02  7.65567E+02  2.18102E+02  1.81710E+02
 -4.24071E+02  8.60417E+02 -8.49127E+02  6.66891E+02 -7.55289E+02 -4.40798E+02  7.44054E+01 -1.13560E+03
  6.28605E+02 -5.98074E+02  6.81257E+02  5.16273E+01  5.52650E+02 -6.45610E+02  7.94918E+02  1.10900E+03
  3.38955E+02  3.55456E+02  4.59460E+01  6.60337E+02 -7.88495E+02  5.83907E+02 -8.93767E+02  5.07540E+02
 -9.81033E+01 -7.59270E+01 -8.06758E+02  6.31554E+02 -7.15975E+02  1.61731E+02 -3.15956E+02 -2.09922E+02
 -1.09379E+03  5.46688E+02 -8.22130E+02 -9.32549E+02  9.73871E+02 -1.19177E+03  7.68268E+02 -4.94822E+02
  1.05598E+03 -5.16931E+02 -2.86244E+02  4.51223E+02 -5.29820E+02  7.49796E+02 -5.29181E+02  3.02830E+02
