 $NMID ID='MM_0lb_SNR400_11hz_g60_17.RAW', FMTDAT='(8E13.5)'
 TRAMP=1., VOLUME=1. $END
  3.09828E+05  7.89730E+01  3.37635E+05  2.51060E+05  8.53251E+04  3.38288E+05 -1.33094E+05  2.52205E+05
 -1.91014E+05  8.33510E+04 -1.12559E+05 -3.32130E+04  7.20158E+02 -5.14164E+04  5.38188E+04 -1.47174E+02
  3.50977E+04  5.23163E+04 -1.59515E+04  7.64415E+04 -6.05234E+04  6.44340E+04 -8.53287E+04  3.26033E+04
 -8.18260E+04 -1.17607E+04 -5.87219E+04 -5.21761E+04 -1.52810E+04 -7.08923E+04  2.80451E+04 -4.60889E+04
  4.13615E+04  3.81985E+03  1.64670E+04  4.88025E+04 -3.47001E+04  4.84621E+04 -6.80396E+04 -2.59203E+02
 -5.45182E+04 -5.87853E+04 -8.32502E+03 -7.88507E+04  3.49071E+04 -5.64456E+04  4.97058E+04 -1.80165E+04
  4.52651E+04  1.18551E+04  3.33492E+04  2.63437E+04  1.55274E+04  3.04956E+04 -5.40356E+03  2.73568E+04
 -2.26901E+04  1.14027E+04 -1.84094E+04 -6.09554E+03  6.44093E+03 -7.36012E+03  2.32564E+04  1.39362E+04
  6.44639E+03  3.72360E+04 -3.28064E+04  3.71969E+04 -6.53440E+04  2.60071E+03 -5.87344E+04 -4.36185E+04
 -1.27203E+04 -6.65474E+04  4.10848E+04 -4.70833E+04  6.10003E+04 -2.62362E+03  3.61925E+04  3.40087E+04
 -6.51118E+03  3.92228E+04 -3.14148E+04  1.88230E+04 -3.27928E+04 -4.08589E+03 -1.88079E+04 -1.18506E+04
 -1.01780E+04 -1.47323E+04  3.75783E+02 -1.90498E+04  7.62954E+03 -2.33592E+04  1.55464E+04 -1.29185E+04
  1.00549E+04  5.65031E+03 -1.00114E+04  1.30912E+04 -2.36322E+04 -7.17034E+03 -8.76033E+03 -3.73159E+04
  2.47541E+04 -4.66055E+04  5.17687E+04 -2.10864E+04  4.76907E+04  2.05000E+04  1.74519E+04  4.60504E+04
 -1.69506E+04  3.59653E+04 -2.81133E+04  2.46837E+03 -1.15002E+04 -2.94492E+04  2.15903E+04 -3.67297E+04
  4.43922E+04 -1.06226E+04  3.96063E+04  2.40857E+04  2.07475E+04  5.03335E+04 -7.99063E+03  5.52308E+04
 -3.52469E+04  3.81766E+04 -4.67248E+04  1.10801E+04 -4.70057E+04 -1.80204E+04 -2.62006E+04 -4.15868E+04
  7.45488E+03 -4.15297E+04  3.37758E+04 -1.70264E+04  3.21610E+04  1.09055E+04  5.02230E+03  2.10771E+04
 -1.38532E+04  9.26843E+03 -1.07870E+04 -7.82749E+03  6.42294E+03 -1.13752E+04  1.86641E+04  5.70345E+03
  1.46931E+04  2.20408E+04 -4.94225E+03  2.72270E+04 -2.34191E+04  1.47515E+04 -3.14018E+04 -3.30646E+03
 -2.43529E+04 -1.90561E+04 -1.12870E+04 -2.48400E+04  4.81735E+03 -2.48530E+04  1.91168E+04 -2.27103E+04
  3.12530E+04 -1.45311E+04  3.71244E+04  4.32466E+03  2.62765E+04  2.39083E+04  4.26338E+03  4.09605E+04
 -2.04591E+04  3.31696E+04 -3.00470E+04  1.18525E+04 -2.12519E+04 -1.07154E+04 -5.78829E+03 -1.27797E+04
  9.86492E+02 -1.41923E+03 -7.35396E+03  7.70477E+03 -2.03269E+04  5.77198E+03 -1.93416E+04 -9.57320E+03
 -1.15973E+04 -2.24030E+04  7.07059E+03 -2.71243E+04  1.78225E+04 -1.95368E+04  2.28431E+04 -1.43300E+03
  1.40974E+04  1.60161E+04 -9.06926E+02  2.24250E+04 -1.62491E+04  1.36213E+04 -2.33915E+04 -4.72808E+03
 -1.71558E+04 -2.08426E+04 -1.70662E+03 -2.67261E+04  1.17373E+04 -2.32749E+04  2.22755E+04 -1.19589E+04
  2.16181E+04 -1.51909E+02  1.55502E+04  5.59021E+03  9.29392E+03  1.76406E+03  1.19434E+04 -1.21098E+03
  2.18947E+04  2.52176E+03  2.45298E+04  1.82740E+04  1.67794E+04  3.60498E+04 -2.51619E+03  4.16339E+04
 -2.43601E+04  3.58210E+04 -3.98593E+04  1.75412E+04 -4.26818E+04 -2.79015E+03 -3.46701E+04 -2.42081E+04
 -1.36219E+04 -3.60367E+04  1.24211E+04 -3.17201E+04  2.71209E+04 -1.45504E+04  2.37665E+04  7.64808E+03
  7.62588E+03  1.76034E+04 -1.13084E+04  1.48967E+04 -1.91042E+04  2.22463E+03 -1.51454E+04 -1.20500E+04
 -5.99595E+02 -1.84345E+04  1.07556E+04 -1.39821E+04  1.28226E+04 -1.93421E+03  2.96610E+03  8.32011E+03
 -8.47824E+03  3.76729E+03 -8.40852E+03 -6.37112E+03 -1.75605E+03 -1.73561E+04  1.19440E+04 -1.86653E+04
  2.21806E+04 -1.08321E+04  2.43565E+04  3.71969E+03  2.16773E+04  1.74386E+04  1.01512E+04  2.70656E+04
 -6.17498E+03  2.93594E+04 -1.82735E+04  1.89144E+04 -2.13365E+04  4.07630E+03 -1.49532E+04 -5.28481E+03
 -6.74689E+03 -6.52001E+03 -3.23451E+02  3.66199E+02 -2.91184E+03  3.38373E+03 -7.23418E+03  5.07968E+03
 -1.35924E+04 -6.58019E+02 -1.46169E+04 -1.12455E+04 -5.84604E+03 -1.77246E+04  6.47319E+03 -1.50956E+04
  1.26540E+04 -6.33033E+03  8.01926E+03  4.34029E+03 -5.56464E+02  5.89390E+03 -7.56611E+03 -9.31746E+02
 -6.99580E+03 -9.05470E+03 -1.30714E+03 -1.37951E+04  8.89627E+03 -1.48361E+04  1.94469E+04 -7.89649E+03
  2.21635E+04  1.89658E+03  1.51756E+04  1.34380E+04  3.27615E+03  1.73748E+04 -9.00361E+03  1.43860E+04
 -1.30298E+04  3.93819E+03 -6.26455E+03 -3.35388E+03  2.17898E+03 -4.15891E+03  8.08585E+03 -1.18256E+03
  6.39711E+03  6.82847E+03  6.99201E+02  1.14906E+04 -7.92066E+03  1.12080E+04 -1.43475E+04  3.28706E+03
 -1.03460E+04 -7.33954E+03  1.14810E+00 -1.30053E+04  8.03704E+03 -5.75442E+03  8.80235E+03  3.12808E+03
  1.64624E+03  8.73627E+03 -7.26849E+03  1.02168E+04 -1.27586E+04  4.43756E+03 -1.24089E+04 -4.65234E+03
 -7.32529E+03 -1.45917E+04  3.35190E+03 -1.60586E+04  1.40668E+04 -9.86157E+03  1.58473E+04  3.24272E+03
  1.00996E+04  1.17712E+04 -1.25709E+03  1.46052E+04 -1.14989E+04  8.31212E+03 -1.19220E+04 -1.03392E+03
 -9.55689E+03 -8.90477E+03 -1.72807E+03 -1.09690E+04  4.89367E+03 -9.36956E+03  7.28142E+03 -3.60726E+03
  4.80134E+03  1.90224E+03 -1.60583E+03  1.38371E+03 -5.70171E+02 -2.82285E+03  1.81223E+03 -6.94503E+03
  1.04965E+04 -3.66445E+03  1.42083E+04  1.67285E+03  1.38707E+04  9.87300E+03  9.65659E+03  1.87736E+04
 -3.71755E+03  2.09737E+04 -1.66908E+04  1.55823E+04 -2.42972E+04  2.74924E+03 -1.83368E+04 -8.76426E+03
 -8.90160E+03 -1.45280E+04  1.74832E+02 -1.29444E+04  4.10976E+03 -7.79077E+03  4.68358E+03 -4.66300E+03
  3.63658E+03 -2.82139E+03  3.91295E+03 -4.13848E+03  6.05201E+03 -3.25931E+03  6.98621E+03 -9.96000E+02
  9.73068E+03  2.43893E+03  5.36976E+03  7.72796E+03 -1.86601E+03  9.64002E+03 -1.12340E+04  8.72531E+03
 -1.27621E+04 -1.74753E+03 -7.23520E+03 -9.79856E+03 -1.37629E+03 -1.35107E+04  7.50705E+03 -1.36822E+04
  1.43238E+04 -7.12438E+03  1.75002E+04  1.56211E+03  1.20840E+04  1.20510E+04  1.97512E+03  1.56164E+04
 -6.50576E+03  1.25949E+04 -9.65870E+03  4.30288E+03 -6.60080E+03 -1.66261E+03 -2.10476E+03 -1.93547E+03
 -1.32183E+03 -3.59294E+02 -1.77481E+03  3.12933E+03 -5.25017E+03  1.49361E+03 -9.05478E+03 -1.55893E+03
 -6.29706E+03 -9.22078E+03  7.09616E+01 -1.25959E+04  7.81833E+03 -1.19877E+04  1.25452E+04 -3.49593E+03
  1.26495E+04  6.17589E+03  5.87198E+03  1.15640E+04 -2.96690E+03  1.24318E+04 -9.38643E+03  7.96306E+03
 -1.25828E+04  7.51587E+02 -8.78098E+03 -7.64837E+03 -1.25692E+03 -1.06094E+04  5.64877E+03 -7.73701E+03
  8.40745E+03 -2.34262E+03  5.96607E+03  2.38287E+03  1.86911E+03  4.23727E+03  1.87350E+03  2.26768E+03
  2.77376E+03  6.88044E+02  3.14722E+03  1.93869E+03  3.45324E+03  4.83765E+03  2.95397E+03  6.44442E+03
 -2.52145E+03  9.85356E+03 -8.62679E+03  9.83793E+03 -1.26632E+04  2.13375E+03 -1.33208E+04 -5.37882E+03
 -5.73511E+03 -1.27221E+04  1.97925E+03 -1.45550E+04  7.13078E+03 -8.55339E+03  1.09939E+04 -2.28253E+03
  8.06891E+03  4.59317E+03  2.53625E+03  6.85362E+03 -2.45618E+03  4.81982E+03 -4.68625E+03 -1.07712E+03
 -1.82390E+03 -4.86041E+03  3.04964E+03 -5.74865E+03  5.17149E+03 -2.74012E+03  4.83398E+03  1.62015E+03
  3.10196E+03  2.84406E+03  1.51484E+03  1.66419E+03 -8.59243E+02  1.16065E+03  1.57333E+03 -2.95303E+02
  1.83962E+03 -4.49575E+02  5.88875E+03  1.94788E+03  2.62560E+03  7.27596E+03 -1.24482E+03  8.82524E+03
 -6.12025E+03  5.39927E+03 -7.34458E+03  1.60965E+03 -7.11635E+03 -2.63118E+03 -3.00890E+03 -5.19810E+03
  1.13325E+03 -4.47132E+03  3.77130E+03 -2.65842E+03  2.38796E+03  2.64765E+03 -5.24978E+02  4.32464E+03
 -5.34506E+03  1.75612E+03 -5.42456E+03 -3.16515E+03 -2.90629E+03 -6.56829E+03  5.19633E+02 -6.74554E+03
  3.71892E+03 -3.29257E+03  5.21888E+03 -2.94969E+02  4.04366E+03  1.82141E+03  4.36916E+01  3.73566E+03
 -2.39828E+03  1.16375E+03 -2.19670E+03 -1.97816E+03  1.20162E+03 -5.21944E+03  6.13121E+03 -3.66798E+03
  7.10542E+03  2.20038E+02  7.64095E+03  4.78325E+03  2.35540E+03  8.79534E+03 -2.35504E+03  7.44792E+03
 -7.06976E+03  2.61924E+03 -7.01556E+03 -4.33841E+02 -3.42300E+03 -4.67643E+03  6.98526E+02 -4.86948E+03
  4.99332E+03 -2.08215E+03  4.29829E+03  2.17363E+03  9.28460E+02  4.68736E+03  1.71352E+02  4.18197E+03
 -2.16223E+03  2.02736E+03 -1.86479E+03 -1.35406E+02 -1.32876E+03  2.47269E+02 -8.97848E+02  1.07741E+03
 -1.30891E+03  2.87349E+03 -5.75858E+03  2.91742E+03 -8.24003E+03  4.93072E+02 -8.66747E+03 -4.51772E+03
 -4.15078E+03 -1.07921E+04  1.49470E+03 -1.18553E+04  7.16256E+03 -9.16286E+03  1.12100E+04 -3.12345E+03
  1.04350E+04  2.24586E+03  6.33400E+03  6.10500E+03  1.70441E+02  8.42832E+03 -2.89497E+03  5.71205E+03
 -4.16813E+03  2.85195E+03 -3.35391E+03 -4.59610E+02 -1.24247E+03 -4.95751E+02 -5.20292E+02 -3.51025E+02
 -1.37922E+03  1.73650E+02 -1.51533E+03 -1.81262E+01 -6.91358E+02 -2.03262E+03 -1.98598E+02 -2.99990E+03
  3.72720E+03 -1.96569E+03  3.90614E+03 -3.72866E+02  6.17773E+03  3.89615E+03  1.55749E+03  7.98482E+03
 -3.85877E+03  9.31611E+03 -8.24883E+03  5.16688E+03 -9.97154E+03 -4.73051E+02 -7.12488E+03 -6.28519E+03
 -2.70752E+03 -7.12204E+03  1.77782E+03 -7.91607E+03  5.41828E+03 -3.70014E+03  4.56703E+03  1.10983E+03
  3.02107E+03  2.50936E+03 -3.51080E+02  1.99215E+03 -4.93964E+02 -2.57088E+02 -8.34089E+01 -1.96281E+03
  2.01661E+03 -1.06914E+03  2.63220E+03  1.13513E+03  2.02093E+03  3.12074E+03  2.02342E+02  3.90495E+03
 -3.25936E+03  3.72417E+03 -4.91837E+03 -1.68007E+02 -4.40311E+03 -3.97773E+03 -8.89148E+02 -6.26672E+03
  3.48925E+03 -4.16433E+03  5.54356E+03 -8.24795E+02  5.88194E+03  9.32259E+02  2.76081E+03  5.06728E+03
  8.88339E+02  4.97764E+03 -1.71330E+03  4.76763E+03 -3.04366E+03  2.79110E+03 -2.20430E+03 -1.11590E+02
 -1.40564E+03 -5.29034E+02 -1.31910E+03  4.56188E+02 -2.15706E+03  1.35587E+03 -4.47506E+03 -1.14840E+03
 -3.96276E+03 -2.85989E+03 -1.16354E+03 -5.74151E+03  3.09217E+03 -5.87717E+03  4.26548E+03 -2.75551E+03
  4.30201E+03  4.24496E+02  2.36069E+03  3.97971E+03  1.73487E+02  4.61931E+03 -3.76396E+03  2.68814E+03
