 $NMID ID='MM_0lb_SNR400_10hz_g50_62.RAW', FMTDAT='(8E13.5)'
 TRAMP=1., VOLUME=1. $END
  3.10054E+05  1.05676E+03  3.37528E+05  2.50583E+05  8.44749E+04  3.38870E+05 -1.32907E+05  2.51987E+05
 -1.91029E+05  8.33414E+04 -1.12598E+05 -3.21104E+04  6.00672E+02 -5.12359E+04  5.27767E+04 -2.58550E+02
  3.54759E+04  5.22593E+04 -1.64682E+04  7.59166E+04 -6.06432E+04  6.46536E+04 -8.49866E+04  3.26947E+04
 -8.20127E+04 -1.06544E+04 -5.79576E+04 -5.17206E+04 -1.52934E+04 -7.07065E+04  2.79597E+04 -4.70061E+04
  4.14441E+04  3.70453E+03  1.62097E+04  4.81830E+04 -3.45168E+04  4.83182E+04 -6.78627E+04  3.64165E+01
 -5.37994E+04 -5.77099E+04 -7.09836E+03 -7.83989E+04  3.51064E+04 -5.65739E+04  4.92702E+04 -1.77710E+04
  4.47635E+04  1.13406E+04  3.21652E+04  2.57530E+04  1.64985E+04  3.06515E+04 -5.62531E+03  2.80190E+04
 -2.27516E+04  1.19097E+04 -1.86420E+04 -5.58847E+03  7.00160E+03 -7.77489E+03  2.30695E+04  1.38791E+04
  7.68696E+03  3.63604E+04 -3.36722E+04  3.68818E+04 -6.58014E+04  2.18072E+03 -5.82749E+04 -4.44092E+04
 -1.32951E+04 -6.48326E+04  4.14493E+04 -4.67177E+04  6.01478E+04 -2.28454E+03  3.64070E+04  3.40737E+04
 -5.47907E+03  3.86388E+04 -3.07270E+04  1.75909E+04 -3.30418E+04 -4.27334E+03 -1.89726E+04 -1.20281E+04
 -9.87959E+03 -1.49526E+04 -1.26938E+03 -1.97286E+04  8.51699E+03 -2.38505E+04  1.59368E+04 -1.27920E+04
  1.04775E+04  6.28504E+03 -9.75922E+03  1.24353E+04 -2.32598E+04 -6.80617E+03 -8.44715E+03 -3.74428E+04
  2.47697E+04 -4.67103E+04  5.04260E+04 -2.10317E+04  4.80390E+04  2.05484E+04  1.74051E+04  4.54278E+04
 -1.66151E+04  3.59853E+04 -2.65910E+04  2.87059E+03 -1.06584E+04 -2.92062E+04  2.17925E+04 -3.66658E+04
  4.44858E+04 -1.07882E+04  3.92594E+04  2.44551E+04  2.08565E+04  5.03430E+04 -8.43087E+03  5.48323E+04
 -3.43300E+04  3.74239E+04 -4.70155E+04  1.00978E+04 -4.65911E+04 -1.80321E+04 -2.51947E+04 -4.18559E+04
  8.27209E+03 -4.13514E+04  3.31157E+04 -1.70199E+04  3.11650E+04  1.10442E+04  4.61208E+03  2.12283E+04
 -1.45685E+04  9.60920E+03 -1.07206E+04 -7.44974E+03  5.90061E+03 -1.07680E+04  1.79397E+04  5.06456E+03
  1.42897E+04  2.30449E+04 -5.03830E+03  2.67252E+04 -2.32526E+04  1.38233E+04 -3.06612E+04 -3.06977E+03
 -2.42287E+04 -1.83547E+04 -1.07536E+04 -2.41139E+04  4.33894E+03 -2.38789E+04  1.92903E+04 -2.15606E+04
  3.05025E+04 -1.34246E+04  3.67980E+04  4.70998E+03  2.76307E+04  2.38048E+04  4.61501E+03  4.05521E+04
 -1.90107E+04  3.30514E+04 -3.06379E+04  1.13531E+04 -2.19191E+04 -1.07993E+04 -5.00990E+03 -1.31750E+04
  5.57190E+02 -1.21085E+03 -6.31935E+03  7.93076E+03 -1.92091E+04  5.06647E+03 -1.92779E+04 -9.22686E+03
 -1.14749E+04 -2.18378E+04  6.22731E+03 -2.66039E+04  1.78153E+04 -1.94769E+04  2.14154E+04 -2.01293E+03
  1.36068E+04  1.49628E+04 -1.26325E+03  2.27211E+04 -1.60152E+04  1.33485E+04 -2.25252E+04 -5.02730E+03
 -1.68436E+04 -2.02473E+04 -1.81712E+03 -2.68717E+04  1.26255E+04 -2.26348E+04  2.28552E+04 -1.08148E+04
  2.02715E+04 -3.48654E+02  1.61034E+04  5.75389E+03  9.05611E+03  1.21654E+03  1.14259E+04 -2.39743E+03
  2.10664E+04  3.38643E+03  2.37445E+04  1.75001E+04  1.64387E+04  3.65750E+04 -1.85832E+03  4.23069E+04
 -2.42141E+04  3.45029E+04 -4.01997E+04  1.80186E+04 -4.28861E+04 -3.65279E+03 -3.39383E+04 -2.48487E+04
 -1.40993E+04 -3.56293E+04  1.28198E+04 -3.09928E+04  2.64386E+04 -1.47790E+04  2.35611E+04  8.01343E+03
  8.15642E+03  1.77253E+04 -1.10830E+04  1.50236E+04 -1.93920E+04  2.69333E+03 -1.49127E+04 -1.23159E+04
 -2.80454E+02 -1.79636E+04  9.90297E+03 -1.36109E+04  1.31005E+04 -1.10202E+03  3.79848E+03  7.27167E+03
 -8.20022E+03  3.39361E+03 -8.87397E+03 -6.39379E+03 -1.37369E+03 -1.74253E+04  1.10268E+04 -1.89477E+04
  2.08321E+04 -1.11655E+04  2.41651E+04  2.71536E+03  2.09055E+04  1.69823E+04  9.97605E+03  2.74539E+04
 -5.63162E+03  2.98552E+04 -1.90507E+04  1.78572E+04 -2.12770E+04  3.67392E+03 -1.44925E+04 -6.12504E+03
 -6.01319E+03 -6.94480E+03 -3.09327E+02  6.90310E+02 -2.07223E+03  3.57565E+03 -7.19196E+03  6.46031E+03
 -1.30479E+04 -9.32580E+02 -1.39620E+04 -1.16943E+04 -5.50139E+03 -1.75899E+04  5.91752E+03 -1.48504E+04
  1.24831E+04 -6.30740E+03  8.36630E+03  3.82629E+03 -3.86163E+02  6.04868E+03 -7.38205E+03 -2.77829E+02
 -7.07033E+03 -9.03576E+03 -1.46384E+03 -1.39622E+04  8.67524E+03 -1.53989E+04  1.75421E+04 -7.90748E+03
  2.23829E+04  2.53213E+03  1.60729E+04  1.27245E+04  2.53974E+03  1.85175E+04 -9.30898E+03  1.49660E+04
 -1.19723E+04  4.38877E+03 -6.47681E+03 -3.06313E+03  2.25178E+03 -3.68904E+03  8.15555E+03 -1.38390E+03
  6.54921E+03  6.71855E+03  1.56270E+03  1.17515E+04 -8.70393E+03  1.08949E+04 -1.47784E+04  2.81116E+03
 -9.93800E+03 -7.78903E+03  4.45391E+02 -1.23791E+04  8.58008E+03 -5.32584E+03  8.48043E+03  2.67981E+03
  1.56369E+03  9.35493E+03 -7.31934E+03  1.08325E+04 -1.23050E+04  4.42760E+03 -1.30712E+04 -3.83701E+03
 -7.69557E+03 -1.42115E+04  4.24158E+03 -1.67219E+04  1.44103E+04 -9.80186E+03  1.53830E+04  2.11057E+03
  8.37194E+03  1.23367E+04 -1.09781E+03  1.51263E+04 -1.07047E+04  8.10809E+03 -1.18869E+04 -8.81187E+02
 -1.01720E+04 -1.02425E+04 -2.08137E+03 -1.13865E+04  5.62339E+03 -8.41593E+03  6.50365E+03 -3.59620E+03
  4.22133E+03  1.90988E+03 -9.03165E+02  1.51909E+03 -6.88615E+02 -2.54028E+03  2.69222E+03 -5.79854E+03
  1.02099E+04 -4.12527E+03  1.41848E+04  2.38196E+03  1.44989E+04  9.63037E+03  9.28221E+03  1.82660E+04
 -4.36036E+03  2.17489E+04 -1.88403E+04  1.58297E+04 -2.32573E+04  3.04181E+03 -1.88073E+04 -8.96211E+03
 -9.33545E+03 -1.58370E+04  3.53247E+02 -1.34659E+04  5.55612E+03 -7.45497E+03  4.93811E+03 -4.62329E+03
  3.42717E+03 -2.83810E+03  4.06202E+03 -3.85367E+03  6.03985E+03 -2.82114E+03  6.61724E+03 -1.63409E+03
  1.04676E+04  1.44542E+03  5.41757E+03  7.57529E+03 -2.47321E+03  9.86360E+03 -1.05633E+04  7.86994E+03
 -1.37445E+04 -1.72005E+03 -8.58866E+03 -8.58436E+03 -1.84896E+03 -1.38784E+04  8.22368E+03 -1.40485E+04
  1.46506E+04 -8.28084E+03  1.79473E+04  2.10560E+03  1.17094E+04  1.27465E+04  1.19615E+03  1.61620E+04
 -6.35858E+03  1.26678E+04 -8.81349E+03  4.63678E+03 -6.43608E+03 -1.35344E+03 -2.95860E+03 -1.15850E+03
 -1.74173E+03  4.94506E+02 -1.99163E+03  3.02524E+03 -5.51827E+03  2.13258E+03 -9.50906E+03 -1.68442E+03
 -6.31601E+03 -9.69593E+03  2.31524E+02 -1.27597E+04  8.74381E+03 -1.24573E+04  1.33385E+04 -4.39001E+03
  1.31147E+04  5.55749E+03  5.52724E+03  1.20282E+04 -2.73895E+03  1.40018E+04 -9.15922E+03  8.24526E+03
 -1.19268E+04  8.42065E+02 -1.01189E+04 -7.41196E+03 -8.93245E+02 -1.06977E+04  5.40287E+03 -8.28029E+03
  7.73557E+03 -2.29224E+03  5.13698E+03  2.83741E+03  2.05263E+03  4.51773E+03  1.62872E+03  1.45564E+03
  3.43830E+03  3.47314E+02  3.25145E+03  2.43615E+03  3.72690E+03  5.50316E+03  3.50505E+03  7.26418E+03
 -2.07688E+03  9.37617E+03 -9.75923E+03  1.08736E+04 -1.32239E+04  2.06005E+03 -1.33827E+04 -5.12374E+03
 -6.46358E+03 -1.23225E+04  2.03945E+03 -1.44525E+04  8.51345E+03 -9.21142E+03  1.10347E+04 -2.07643E+03
  8.23346E+03  4.58317E+03  1.19281E+03  7.10138E+03 -3.86159E+03  4.82784E+03 -5.32690E+03 -1.20466E+03
 -2.28412E+03 -5.80535E+03  3.30843E+03 -5.80074E+03  6.08639E+03 -3.33694E+03  5.69607E+03  6.55882E+02
  3.62002E+03  2.98069E+03  1.32217E+03  1.92012E+03 -6.57122E+02  1.50883E+03  2.56242E+03 -9.05730E+02
  2.41731E+03 -3.52491E+02  4.92825E+03  1.80090E+03  2.76226E+03  7.00100E+03  1.84292E+02  9.27419E+03
 -5.73219E+03  6.59573E+03 -8.09447E+03  2.09848E+03 -6.98780E+03 -3.13851E+03 -3.09685E+03 -4.32246E+03
  3.58703E+02 -4.60146E+03  3.29745E+03 -2.93888E+03  2.80123E+03  2.87259E+03 -1.78189E+03  4.72415E+03
 -5.33286E+03  2.93852E+03 -5.28588E+03 -2.98471E+03 -4.52401E+03 -6.79683E+03  1.00063E+03 -7.24342E+03
  4.14429E+03 -4.12717E+03  5.66880E+03 -5.45409E+02  4.02160E+03  2.08783E+03  8.58916E+02  4.20728E+03
 -2.18185E+03  1.28860E+03 -3.26495E+03 -2.06721E+03  1.63612E+03 -5.65460E+03  6.27934E+03 -4.15074E+03
  8.60874E+03  8.03498E+02  8.11679E+03  6.22462E+03  2.79349E+03  9.07522E+03 -2.71878E+03  8.61022E+03
 -7.05641E+03  3.22263E+03 -7.13373E+03 -1.26133E+03 -3.71633E+03 -5.63926E+03  2.08390E+03 -5.10653E+03
  5.68221E+03 -1.88270E+03  4.93049E+03  1.67978E+03  1.80451E+03  4.20363E+03  1.52367E+02  3.19450E+03
 -1.49601E+03  2.16695E+03 -1.95113E+03  1.35973E+03 -5.70971E+02  1.06355E+03 -1.53623E+03  2.06888E+03
 -1.96261E+03  3.18452E+03 -5.59065E+03  1.60651E+03 -8.92509E+03  1.89158E+02 -9.36099E+03 -5.84362E+03
 -4.28493E+03 -1.13278E+04  1.95069E+03 -1.28090E+04  7.86362E+03 -1.02453E+04  1.25028E+04 -3.30086E+03
  1.13981E+04  1.69417E+03  6.09974E+03  8.30899E+03  1.05365E+03  9.86146E+03 -3.31665E+03  7.24919E+03
 -5.15424E+03  2.09852E+03 -2.91941E+03 -1.02389E+03 -8.45101E+02 -1.09923E+03 -1.08302E+03 -5.19441E+02
 -2.43859E+03 -4.74744E+02 -2.41979E+03 -7.96007E+02  1.81824E+02 -2.39386E+03  7.32282E+02 -3.73388E+03
  3.67265E+03 -2.62926E+03  4.55364E+03 -6.26380E+02  6.53982E+03  4.87769E+03  1.08322E+03  8.55902E+03
 -4.82482E+03  1.01425E+04 -8.95377E+03  5.61504E+03 -1.08630E+04 -5.65243E+02 -8.39251E+03 -7.29503E+03
 -3.79888E+03 -8.54395E+03  2.13379E+03 -8.39408E+03  5.89570E+03 -4.15045E+03  6.48089E+03  3.73855E+02
  4.19613E+03  3.96853E+03 -2.87861E+01  2.69542E+03 -1.24383E+03 -6.53893E+02 -7.17060E+02 -1.92783E+03
  2.29376E+03 -1.20969E+03  3.87842E+03  1.64199E+03  1.92018E+03  2.90991E+03 -8.79995E+01  4.05787E+03
 -4.19157E+03  3.75606E+03 -6.03080E+03  8.13484E+02 -5.48759E+03 -4.04099E+03 -1.04167E+03 -7.74129E+03
  3.62918E+03 -6.52582E+03  6.32262E+03 -1.36722E+03  6.75587E+03  1.32346E+03  3.53464E+03  5.77507E+03
  1.00331E+03  6.05938E+03 -2.20622E+03  4.98398E+03 -3.28013E+03  2.31740E+03 -2.29295E+03 -6.76573E+02
 -1.73628E+03 -1.34405E+02 -1.19317E+03  6.13553E+02 -3.71829E+03  6.93241E+02 -4.41896E+03 -2.65544E+02
 -4.14536E+03 -2.70285E+03 -1.01542E+03 -5.71452E+03  3.61040E+03 -6.74494E+03  5.69495E+03 -3.17122E+03
  6.26168E+03  3.89792E+02  2.49931E+03  4.15378E+03 -4.41916E+02  6.97332E+03 -4.25314E+03  4.32415E+03
