 $NMID ID='MM_0lb_SNR400_10hz_g40_97.RAW', FMTDAT='(8E13.5)'
 TRAMP=1., VOLUME=1. $END
  3.10037E+05  6.42095E+02  3.37908E+05  2.50018E+05  8.43934E+04  3.38225E+05 -1.32858E+05  2.50642E+05
 -1.90911E+05  8.33721E+04 -1.11990E+05 -3.33316E+04  2.76378E+02 -5.02548E+04  5.36757E+04 -6.62871E+02
  3.56283E+04  5.22820E+04 -1.71871E+04  7.54536E+04 -6.08638E+04  6.39846E+04 -8.52790E+04  3.26314E+04
 -8.13216E+04 -1.16665E+04 -5.74318E+04 -5.17152E+04 -1.51119E+04 -7.06660E+04  2.78795E+04 -4.64036E+04
  4.06143E+04  2.90525E+03  1.59080E+04  4.78156E+04 -3.43352E+04  4.83616E+04 -6.75277E+04 -9.42529E+02
 -5.45684E+04 -5.70341E+04 -6.53682E+03 -7.82681E+04  3.40060E+04 -5.59489E+04  4.89342E+04 -1.81509E+04
  4.41048E+04  1.13265E+04  3.24079E+04  2.57699E+04  1.53523E+04  2.94643E+04 -5.86351E+03  2.74742E+04
 -2.18308E+04  1.19038E+04 -1.80351E+04 -5.28050E+03  6.73680E+03 -7.97743E+03  2.28587E+04  1.34334E+04
  6.91891E+03  3.61714E+04 -3.29879E+04  3.60355E+04 -6.53285E+04  2.33671E+03 -5.82819E+04 -4.32642E+04
 -1.24678E+04 -6.48132E+04  4.12414E+04 -4.59648E+04  5.91569E+04 -2.18221E+03  3.46189E+04  3.39204E+04
 -5.75066E+03  3.84361E+04 -3.07905E+04  1.78632E+04 -3.29337E+04 -4.33997E+03 -1.85559E+04 -1.11408E+04
 -9.31069E+03 -1.44085E+04 -3.91814E+02 -1.86961E+04  8.20303E+03 -2.30274E+04  1.56892E+04 -1.31943E+04
  1.09942E+04  5.68815E+03 -9.63373E+03  1.32283E+04 -2.21396E+04 -5.55600E+03 -8.12002E+03 -3.55225E+04
  2.39473E+04 -4.56740E+04  5.06160E+04 -2.00516E+04  4.70860E+04  2.05549E+04  1.67936E+04  4.59164E+04
 -1.63882E+04  3.49558E+04 -2.63809E+04  2.50965E+03 -1.03605E+04 -2.89365E+04  2.11164E+04 -3.52969E+04
  4.33643E+04 -1.00177E+04  3.85069E+04  2.52116E+04  2.00566E+04  4.89287E+04 -8.20045E+03  5.36134E+04
 -3.42308E+04  3.52222E+04 -4.54277E+04  9.67042E+03 -4.53114E+04 -1.79791E+04 -2.51384E+04 -4.07317E+04
  8.27177E+03 -4.08402E+04  3.32045E+04 -1.66248E+04  3.06112E+04  1.09785E+04  5.05495E+03  1.99866E+04
 -1.31689E+04  9.05178E+03 -1.14162E+04 -7.72563E+03  5.79644E+03 -1.06498E+04  1.87285E+04  6.75703E+03
  1.40861E+04  2.20516E+04 -5.68468E+03  2.70815E+04 -2.34594E+04  1.33005E+04 -2.99636E+04 -3.33939E+03
 -2.40151E+04 -1.83285E+04 -9.36135E+03 -2.34468E+04  4.43943E+03 -2.28275E+04  1.82109E+04 -2.07010E+04
  2.96843E+04 -1.30516E+04  3.55788E+04  4.20483E+03  2.59961E+04  2.27024E+04  5.15614E+03  3.93322E+04
 -1.89703E+04  3.15383E+04 -2.96700E+04  1.13983E+04 -2.12339E+04 -9.94214E+03 -5.16775E+03 -1.32476E+04
  1.23735E+03 -1.87246E+03 -5.69496E+03  7.13010E+03 -1.89407E+04  5.39031E+03 -1.78214E+04 -9.24342E+03
 -1.15858E+04 -2.11356E+04  4.99686E+03 -2.56583E+04  1.71337E+04 -1.85708E+04  2.15112E+04 -2.18163E+03
  1.29321E+04  1.52308E+04 -1.11267E+03  2.22315E+04 -1.54390E+04  1.32818E+04 -2.15173E+04 -4.51530E+03
 -1.59364E+04 -1.99647E+04 -2.29329E+03 -2.64595E+04  1.17451E+04 -2.09163E+04  2.11614E+04 -1.07707E+04
  2.01792E+04  7.39779E+01  1.51766E+04  5.18736E+03  7.48662E+03  4.57277E+02  1.08002E+04 -2.44803E+03
  1.98144E+04  3.49525E+03  2.30083E+04  1.72410E+04  1.53682E+04  3.45699E+04 -2.70998E+03  4.07587E+04
 -2.26915E+04  3.27483E+04 -3.77179E+04  1.69801E+04 -3.96243E+04 -4.03085E+03 -3.30873E+04 -2.30902E+04
 -1.40009E+04 -3.28982E+04  1.17843E+04 -2.94628E+04  2.55503E+04 -1.43567E+04  2.18786E+04  6.20313E+03
  7.78969E+03  1.65851E+04 -1.05338E+04  1.43423E+04 -1.80911E+04  2.30300E+03 -1.36487E+04 -1.17482E+04
  9.31980E+00 -1.82012E+04  1.00736E+04 -1.34017E+04  1.23817E+04 -1.88943E+03  2.92136E+03  7.50797E+03
 -7.69206E+03  2.80415E+03 -8.43034E+03 -6.44565E+03 -9.67064E+02 -1.66668E+04  1.10116E+04 -1.70238E+04
  2.02031E+04 -1.02359E+04  2.24701E+04  2.99550E+03  2.06825E+04  1.70531E+04  9.32345E+03  2.56035E+04
 -4.38784E+03  2.73209E+04 -1.74577E+04  1.70744E+04 -2.00800E+04  3.66328E+03 -1.37873E+04 -4.78913E+03
 -5.65295E+03 -6.66528E+03 -9.68886E+02  5.10045E+02 -3.03318E+03  2.94176E+03 -6.04652E+03  4.69670E+03
 -1.29933E+04 -8.38254E+02 -1.31897E+04 -1.06647E+04 -4.74686E+03 -1.73495E+04  5.35188E+03 -1.38415E+04
  1.11856E+04 -5.86718E+03  8.03744E+03  3.33818E+03 -6.38144E+01  5.57247E+03 -7.20906E+03 -3.54265E+02
 -6.83022E+03 -9.12352E+03 -7.25248E+02 -1.38280E+04  8.26017E+03 -1.51856E+04  1.80495E+04 -8.45930E+03
  2.15885E+04  2.38885E+03  1.55024E+04  1.25588E+04  2.20539E+03  1.64346E+04 -9.24652E+03  1.37276E+04
 -1.09764E+04  3.62456E+03 -5.98962E+03 -2.88245E+03  1.73011E+03 -3.92281E+03  7.85486E+03 -6.22953E+02
  7.34367E+03  6.43470E+03  1.04590E+03  1.03180E+04 -8.05063E+03  1.06935E+04 -1.35935E+04  2.75678E+03
 -9.08111E+03 -6.80966E+03  3.67510E+02 -1.19379E+04  7.59376E+03 -6.42868E+03  7.85762E+03  3.42117E+03
  1.72371E+03  7.96856E+03 -7.06485E+03  9.70023E+03 -1.20044E+04  4.19755E+03 -1.08842E+04 -4.17227E+03
 -6.65280E+03 -1.41739E+04  2.51676E+03 -1.51405E+04  1.29114E+04 -9.63912E+03  1.39072E+04  2.29462E+03
  8.81529E+03  1.16926E+04 -1.02122E+03  1.40229E+04 -1.03272E+04  7.75687E+03 -1.12363E+04 -1.14234E+03
 -1.01096E+04 -9.30414E+03 -1.11901E+03 -1.07812E+04  5.18607E+03 -8.90909E+03  6.50736E+03 -3.51683E+03
  4.56358E+03  1.26167E+03 -7.23983E+02  1.99924E+03 -6.63785E+02 -1.87797E+03  1.95353E+03 -6.74706E+03
  9.42673E+03 -3.72860E+03  1.35914E+04  1.26496E+03  1.37628E+04  9.86239E+03  9.48177E+03  1.81506E+04
 -3.92429E+03  2.00462E+04 -1.77354E+04  1.42898E+04 -2.20524E+04  3.13822E+03 -1.89845E+04 -7.55008E+03
 -8.94399E+03 -1.47839E+04 -7.16877E+01 -1.26270E+04  5.07010E+03 -6.35765E+03  4.23900E+03 -4.28598E+03
  2.80997E+03 -3.35086E+03  3.48048E+03 -3.72620E+03  5.06089E+03 -2.59799E+03  7.07709E+03 -4.95699E+02
  9.26283E+03  2.45281E+03  3.96182E+03  7.50699E+03 -1.93698E+03  9.64630E+03 -8.38137E+03  6.40880E+03
 -1.30068E+04 -1.87893E+03 -7.81063E+03 -8.87873E+03 -2.52027E+02 -1.36552E+04  7.47586E+03 -1.35084E+04
  1.28730E+04 -7.58815E+03  1.58464E+04  2.78944E+03  1.11496E+04  1.08315E+04  1.89516E+03  1.44801E+04
 -6.62976E+03  1.26164E+04 -8.72871E+03  4.04362E+03 -5.33715E+03 -1.36213E+03 -2.41807E+03 -2.37157E+03
 -7.73487E+02 -3.15453E+02 -3.32973E+03  3.17610E+03 -4.64205E+03  2.04324E+03 -9.21735E+03 -8.71654E+02
 -6.02607E+03 -9.01613E+03  7.96189E+01 -1.28512E+04  7.71796E+03 -1.21071E+04  1.17674E+04 -3.17434E+03
  1.25330E+04  5.93463E+03  4.71553E+03  1.12224E+04 -2.31985E+03  1.17151E+04 -9.08642E+03  7.88970E+03
 -1.12251E+04  3.71334E+02 -8.80802E+03 -7.15523E+03 -9.81588E+02 -1.01879E+04  5.08799E+03 -7.74015E+03
  6.99420E+03 -2.84505E+03  5.70172E+03  2.00782E+03  2.42647E+03  4.32629E+03  1.05459E+03  1.34700E+03
  2.18109E+03  3.33795E+02  3.53477E+03  1.40957E+03  3.51897E+03  4.69794E+03  3.35888E+03  6.17353E+03
 -2.32550E+03  9.21973E+03 -8.87839E+03  1.01047E+04 -1.25237E+04  2.35216E+03 -1.35588E+04 -5.07985E+03
 -6.03069E+03 -1.23643E+04  2.03730E+03 -1.34798E+04  7.14197E+03 -8.55976E+03  1.03076E+04 -1.73611E+03
  7.45293E+03  4.77253E+03  1.38343E+03  7.18372E+03 -3.42213E+03  5.54110E+03 -5.23272E+03 -1.32795E+03
 -2.05806E+03 -5.14365E+03  2.80581E+03 -4.26626E+03  5.00711E+03 -2.95144E+03  5.23297E+03  1.46586E+03
  3.32358E+03  2.24157E+03  6.23723E+02  1.06438E+03 -1.50321E+02  1.97373E+03  1.58091E+03 -1.25087E+02
  1.80067E+03 -7.47040E+02  4.57005E+03  2.52779E+03  2.25455E+03  7.24307E+03 -9.01557E+02  8.73190E+03
 -5.84862E+03  4.83634E+03 -7.79503E+03  1.27125E+03 -6.72430E+03 -2.42096E+03 -3.39703E+03 -4.68829E+03
  6.06310E+02 -4.75331E+03  3.19516E+03 -1.94958E+03  2.23063E+03  1.73236E+03 -1.22456E+03  4.09579E+03
 -4.54633E+03  2.37407E+03 -5.63547E+03 -2.97594E+03 -3.43198E+03 -6.44191E+03  1.26230E+03 -7.13458E+03
  2.99052E+03 -3.85754E+03  4.37450E+03 -2.78552E+02  4.09621E+03  1.41634E+03  1.17026E+03  3.86882E+03
 -1.97281E+03  1.31254E+03 -3.18418E+03 -2.73829E+03  1.45059E+03 -4.72392E+03  6.63305E+03 -4.32470E+03
  7.47299E+03  6.73273E+02  8.63878E+03  5.18456E+03  2.30564E+03  8.95248E+03 -3.47354E+03  6.82417E+03
 -6.22797E+03  3.59774E+03 -7.02641E+03 -5.50234E+02 -3.57346E+03 -4.36626E+03  1.14404E+03 -4.88830E+03
  5.38067E+03 -1.33635E+03  4.74112E+03  2.09514E+03  1.57049E+03  4.83718E+03 -5.49141E+02  5.03475E+03
 -2.19551E+03  2.33610E+03 -2.15850E+03  6.01824E+02 -1.16920E+03  1.08859E+03 -1.21717E+03  1.08943E+03
 -1.71733E+03  3.07481E+03 -5.69823E+03  2.52168E+03 -8.05842E+03  3.80570E+02 -8.79032E+03 -5.32809E+03
 -5.66065E+03 -1.09198E+04  2.35648E+03 -1.26027E+04  7.53406E+03 -9.04574E+03  1.15713E+04 -3.14745E+03
  1.11962E+04  2.46057E+03  6.55626E+03  7.26531E+03  1.56344E+03  8.56019E+03 -3.38649E+03  6.64567E+03
 -4.77377E+03  1.87645E+03 -2.90465E+03 -1.12033E+03 -1.47456E+03 -1.17384E+03 -5.08908E+02  3.74565E+02
 -1.59910E+03  7.07920E+02 -2.23395E+03  2.91510E+02 -5.00297E+01 -2.59102E+03  7.79102E+02 -3.15755E+03
  3.84648E+03 -2.07978E+03  4.61802E+03  5.04745E+02  5.73791E+03  4.00521E+03  1.24567E+03  8.03864E+03
 -4.28411E+03  9.44516E+03 -9.45421E+03  5.94575E+03 -1.01195E+04 -9.53490E+02 -7.71586E+03 -7.11385E+03
 -3.57973E+03 -7.79270E+03  1.73729E+03 -7.56677E+03  5.00525E+03 -4.32017E+03  5.62735E+03  2.54631E+02
  2.90912E+03  2.55639E+03  2.79131E+02  2.43762E+03 -1.57350E+03  3.11018E+02 -3.25398E+01 -1.40283E+03
  2.92312E+03 -1.16275E+03  2.71901E+03  4.75139E+02  2.40462E+03  3.12746E+03 -3.14986E+02  4.52341E+03
 -3.60045E+03  3.24231E+03 -4.83251E+03  8.94808E+02 -4.73392E+03 -4.05699E+03 -5.30809E+02 -7.17157E+03
  3.30251E+03 -6.47920E+03  6.03460E+03 -1.60945E+03  6.32553E+03  1.32892E+03  3.15127E+03  5.01418E+03
  9.64605E+02  4.11869E+03 -2.73118E+03  4.16653E+03 -3.51720E+03  2.42088E+03 -2.55340E+03  5.02066E+02
 -1.24000E+03  3.03736E+02 -1.24723E+03  1.13986E+02 -3.32301E+03  1.02233E+03 -4.56123E+03 -7.41511E+02
 -4.70209E+03 -2.44166E+03 -8.89267E+02 -4.94521E+03  2.29868E+03 -6.42792E+03  4.81300E+03 -2.69489E+03
  4.88945E+03  5.32552E+02  2.32437E+03  3.56960E+03 -6.26631E+02  5.01267E+03 -4.05317E+03  4.32536E+03
