 $NMID ID='MM_0lb_SNR400_9hz_g55_52.RAW', FMTDAT='(8E13.5)'
 TRAMP=1., VOLUME=1. $END
  3.10209E+05  7.40390E+02  3.37780E+05  2.51074E+05  8.44466E+04  3.38792E+05 -1.32362E+05  2.52536E+05
 -1.90545E+05  8.35592E+04 -1.13978E+05 -3.27239E+04  7.21488E+02 -5.08075E+04  5.34347E+04 -3.95547E+02
  3.47881E+04  5.42425E+04 -1.64736E+04  7.58105E+04 -6.17263E+04  6.49545E+04 -8.57015E+04  3.25302E+04
 -8.19773E+04 -1.17451E+04 -5.74208E+04 -5.18598E+04 -1.48571E+04 -7.10293E+04  2.82236E+04 -4.65023E+04
  4.12036E+04  3.80444E+03  1.66546E+04  4.82230E+04 -3.45221E+04  4.86905E+04 -6.93745E+04 -2.29614E+02
 -5.55664E+04 -5.79542E+04 -7.29433E+03 -7.97616E+04  3.40838E+04 -5.66781E+04  4.94206E+04 -1.82137E+04
  4.61076E+04  1.21286E+04  3.27826E+04  2.72926E+04  1.53771E+04  3.13264E+04 -5.50135E+03  2.65482E+04
 -2.22561E+04  1.20371E+04 -1.72637E+04 -6.32881E+03  7.80306E+03 -7.10006E+03  2.36615E+04  1.39999E+04
  7.84779E+03  3.76343E+04 -3.43739E+04  3.75357E+04 -6.59553E+04  2.04967E+03 -5.92577E+04 -4.53880E+04
 -1.27482E+04 -6.58585E+04  4.25384E+04 -4.67942E+04  6.09546E+04 -1.64724E+03  3.73069E+04  3.46063E+04
 -5.84594E+03  4.00674E+04 -3.27888E+04  1.89226E+04 -3.31133E+04 -2.62425E+03 -1.91114E+04 -1.20165E+04
 -9.45450E+03 -1.57549E+04  3.38484E+02 -1.98563E+04  8.18060E+03 -2.39343E+04  1.64358E+04 -1.21101E+04
  1.05873E+04  6.09863E+03 -1.11247E+04  1.38141E+04 -2.33105E+04 -7.22873E+03 -8.47531E+03 -3.80285E+04
  2.52006E+04 -4.72203E+04  5.30414E+04 -2.08579E+04  4.96371E+04  2.04873E+04  1.72045E+04  4.71786E+04
 -1.69201E+04  3.66443E+04 -2.73207E+04  2.19274E+03 -1.20168E+04 -2.98694E+04  2.12270E+04 -3.75333E+04
  4.52060E+04 -1.15679E+04  4.15229E+04  2.46019E+04  2.19170E+04  5.14914E+04 -8.50691E+03  5.67406E+04
 -3.55252E+04  3.82366E+04 -4.80593E+04  1.14466E+04 -4.81336E+04 -1.79854E+04 -2.62971E+04 -4.26938E+04
  7.51022E+03 -4.24939E+04  3.44702E+04 -1.73652E+04  3.24535E+04  1.08066E+04  5.56478E+03  2.15226E+04
 -1.43439E+04  1.07301E+04 -1.17490E+04 -7.38328E+03  5.80532E+03 -1.11635E+04  1.94874E+04  5.76908E+03
  1.47185E+04  2.22517E+04 -5.17606E+03  2.79311E+04 -2.39527E+04  1.50129E+04 -3.16882E+04 -3.22929E+03
 -2.59629E+04 -1.85821E+04 -1.24182E+04 -2.56665E+04  4.73080E+03 -2.66028E+04  1.99192E+04 -2.39890E+04
  3.21907E+04 -1.38570E+04  3.90347E+04  5.48545E+03  2.77612E+04  2.42365E+04  5.06350E+03  4.14929E+04
 -1.98966E+04  3.45022E+04 -3.08930E+04  1.17313E+04 -2.22898E+04 -1.09162E+04 -4.60440E+03 -1.35467E+04
  7.68117E+02 -1.15188E+03 -7.36229E+03  8.95749E+03 -1.97613E+04  5.20504E+03 -2.11934E+04 -1.15339E+04
 -1.11595E+04 -2.41916E+04  6.29315E+03 -2.80464E+04  1.87294E+04 -2.06451E+04  2.32813E+04 -1.41351E+03
  1.40416E+04  1.71116E+04 -9.92909E+02  2.33899E+04 -1.71252E+04  1.28621E+04 -2.42673E+04 -4.64754E+03
 -1.76033E+04 -2.10180E+04 -3.25864E+03 -2.85458E+04  1.31732E+04 -2.45472E+04  2.45112E+04 -1.17579E+04
  2.22654E+04 -7.91699E+02  1.63292E+04  5.21250E+03  9.44082E+03  1.26731E+03  1.24448E+04 -2.39988E+03
  2.24493E+04  2.87835E+03  2.54217E+04  1.83357E+04  1.83455E+04  3.79780E+04 -2.25535E+03  4.51026E+04
 -2.63376E+04  3.80138E+04 -4.23974E+04  2.05572E+04 -4.67548E+04 -3.32470E+03 -3.74688E+04 -2.66595E+04
 -1.48393E+04 -3.80117E+04  1.29831E+04 -3.35122E+04  2.88851E+04 -1.48595E+04  2.43292E+04  8.68772E+03
  8.19267E+03  1.86995E+04 -1.22839E+04  1.68067E+04 -2.03591E+04  2.42802E+03 -1.52293E+04 -1.26219E+04
 -3.25615E+02 -1.94908E+04  1.09685E+04 -1.51152E+04  1.41623E+04 -1.70931E+03  3.11636E+03  9.67214E+03
 -9.24294E+03  4.53311E+03 -9.88399E+03 -6.95958E+03 -1.22042E+03 -1.76784E+04  1.19425E+04 -1.99130E+04
  2.28426E+04 -1.18484E+04  2.77799E+04  2.60117E+03  2.39881E+04  1.90511E+04  1.06815E+04  2.98940E+04
 -6.03917E+03  3.19635E+04 -2.11924E+04  1.99605E+04 -2.33154E+04  4.49667E+03 -1.57970E+04 -5.61299E+03
 -6.63793E+03 -7.03239E+03 -6.22094E+02 -5.44583E+01 -3.13597E+03  3.81011E+03 -7.59048E+03  5.59038E+03
 -1.44639E+04 -6.19744E+02 -1.55521E+04 -1.26878E+04 -6.35637E+03 -1.98439E+04  6.39745E+03 -1.59364E+04
  1.28705E+04 -6.13381E+03  9.57042E+03  4.50852E+03 -4.42405E+02  6.35376E+03 -8.56072E+03  4.02550E+02
 -8.36789E+03 -1.00219E+04 -1.03200E+03 -1.65642E+04  9.49873E+03 -1.65981E+04  2.06963E+04 -9.18137E+03
  2.43016E+04  2.56940E+03  1.71040E+04  1.46396E+04  4.01079E+03  2.00761E+04 -9.73397E+03  1.59085E+04
 -1.25350E+04  3.96899E+03 -7.24365E+03 -3.39509E+03  1.68407E+03 -4.37053E+03  9.46459E+03 -7.34694E+02
  8.29950E+03  7.24103E+03  1.10142E+03  1.31422E+04 -9.90284E+03  1.28436E+04 -1.64914E+04  2.77726E+03
 -1.11331E+04 -8.22899E+03 -5.83807E+01 -1.39427E+04  9.25100E+03 -6.36351E+03  9.52900E+03  3.14430E+03
  2.52841E+03  1.06432E+04 -8.51194E+03  1.15531E+04 -1.48826E+04  4.93945E+03 -1.45083E+04 -4.55214E+03
 -8.20185E+03 -1.61977E+04  4.93865E+03 -1.85593E+04  1.59907E+04 -1.19229E+04  1.74255E+04  3.80378E+03
  1.06589E+04  1.39631E+04 -2.13851E+03  1.66767E+04 -1.24541E+04  8.55317E+03 -1.34898E+04 -2.18602E+03
 -1.10843E+04 -1.03154E+04 -1.61066E+03 -1.20343E+04  5.73244E+03 -1.03252E+04  8.46519E+03 -3.46242E+03
  5.11932E+03  1.49008E+03 -1.74341E+03  1.36719E+03 -6.65149E+02 -3.62047E+03  2.10673E+03 -8.20929E+03
  1.23191E+04 -4.29691E+03  1.60903E+04  1.53808E+03  1.59316E+04  1.15735E+04  9.66734E+03  2.20315E+04
 -5.34170E+03  2.48157E+04 -2.05170E+04  1.82652E+04 -2.61140E+04  3.58184E+03 -2.08806E+04 -9.54764E+03
 -1.10147E+04 -1.74702E+04 -1.19514E+03 -1.59055E+04  5.61932E+03 -8.00664E+03  6.41632E+03 -5.19949E+03
  4.00487E+03 -3.09414E+03  4.42925E+03 -4.18288E+03  5.78154E+03 -3.17060E+03  8.64028E+03 -9.84567E+02
  1.09314E+04  2.54636E+03  5.64662E+03  1.06489E+04 -1.69857E+03  1.15184E+04 -1.16865E+04  9.08274E+03
 -1.50529E+04 -4.15689E+02 -9.89758E+03 -1.10742E+04 -9.58914E+02 -1.71236E+04  9.10366E+03 -1.55761E+04
  1.71241E+04 -9.38917E+03  1.99205E+04  2.45473E+03  1.41181E+04  1.44139E+04  2.04224E+03  1.87389E+04
 -7.49335E+03  1.52098E+04 -1.12661E+04  6.22876E+03 -7.29040E+03 -1.51464E+03 -3.52993E+03 -1.89615E+03
 -1.19643E+03 -4.84116E+02 -2.31440E+03  3.59123E+03 -6.04985E+03  2.84831E+03 -1.00198E+04 -1.25202E+03
 -7.60232E+03 -1.01786E+04  2.03669E+02 -1.52340E+04  9.41934E+03 -1.34795E+04  1.58290E+04 -4.75416E+03
  1.55359E+04  7.42420E+03  6.12442E+03  1.33406E+04 -3.85891E+03  1.56828E+04 -1.08371E+04  9.44250E+03
 -1.37813E+04  5.97843E+02 -1.13130E+04 -9.09892E+03 -1.58872E+03 -1.33601E+04  6.00673E+03 -9.45505E+03
  1.01486E+04 -2.67267E+03  7.02985E+03  2.53572E+03  2.92402E+03  4.27962E+03  1.98802E+03  2.52036E+03
  2.65619E+03  1.56448E+03  3.81798E+03  1.95710E+03  4.47425E+03  4.71420E+03  3.78202E+03  8.01039E+03
 -2.95622E+03  1.29582E+04 -1.00819E+04  1.21690E+04 -1.60626E+04  3.01366E+03 -1.62896E+04 -6.74364E+03
 -7.85507E+03 -1.64135E+04  2.71173E+03 -1.72452E+04  9.68459E+03 -1.14785E+04  1.27671E+04 -2.43634E+03
  1.04555E+04  6.57426E+03  2.48614E+03  9.08679E+03 -4.72538E+03  6.01989E+03 -6.97450E+03 -4.08621E+02
 -3.08066E+03 -7.27358E+03  3.63579E+03 -7.26879E+03  7.20159E+03 -3.37036E+03  6.48865E+03  1.44384E+03
  3.46575E+03  3.74430E+03  1.96361E+03  3.18883E+03 -8.77578E+02  2.56646E+03  1.73128E+03 -9.95085E+02
  1.99675E+03 -8.12044E+02  6.52234E+03  2.22722E+03  3.37421E+03  7.41248E+03 -1.07383E+03  1.05966E+04
 -7.21118E+03  7.31778E+03 -1.00380E+04  2.30304E+03 -9.36229E+03 -3.41813E+03 -3.30531E+03 -6.30074E+03
  8.82181E+02 -5.71770E+03  3.80701E+03 -2.93523E+03  3.07160E+03  2.90388E+03 -1.00314E+03  4.87998E+03
 -6.37944E+03  2.67541E+03 -7.68945E+03 -3.69098E+03 -4.63429E+03 -8.37991E+03  1.63416E+03 -8.99575E+03
  5.40121E+03 -5.43626E+03  6.23005E+03 -4.86975E+02  5.82223E+03  1.89008E+03  1.25652E+03  4.94247E+03
 -2.37788E+03  5.07168E+02 -4.61692E+03 -3.75878E+03  1.69091E+03 -6.63282E+03  7.36873E+03 -5.41981E+03
  1.03075E+04  1.10828E+03  9.41297E+03  6.56639E+03  2.76833E+03  1.04611E+04 -3.24706E+03  9.87918E+03
 -8.81024E+03  3.77361E+03 -8.85132E+03 -7.78423E+02 -5.32202E+03 -6.45257E+03  1.76083E+03 -6.76915E+03
  6.01189E+03 -2.91715E+03  5.83022E+03  2.58584E+03  2.74701E+03  5.15150E+03 -1.11602E+03  4.88826E+03
 -2.24901E+03  4.00197E+03 -1.80859E+03  1.49142E+03 -1.23699E+03  1.29974E+03 -1.49417E+03  2.23402E+03
 -2.61408E+03  3.99099E+03 -6.75241E+03  4.00914E+03 -1.06348E+04  2.63051E+02 -1.18989E+04 -6.97386E+03
 -6.27137E+03 -1.35990E+04  2.54945E+03 -1.69413E+04  9.66049E+03 -1.25937E+04  1.49953E+04 -5.27978E+03
  1.42380E+04  3.13664E+03  8.38474E+03  1.00515E+04  9.45375E+02  1.12896E+04 -4.20784E+03  8.27503E+03
 -5.67176E+03  2.62153E+03 -4.80567E+03 -1.25696E+03 -1.58532E+03 -8.74343E+02 -1.59799E+02 -6.99294E+02
 -1.58029E+03 -9.35750E+02 -1.71252E+03 -2.64278E+02 -8.49903E+02 -2.54703E+03 -8.98039E+01 -4.26422E+03
  4.54105E+03 -3.61684E+03  6.49218E+03  4.29616E+02  7.68011E+03  5.83071E+03  2.08056E+03  1.13285E+04
 -4.74918E+03  1.28168E+04 -1.20654E+04  6.88166E+03 -1.38265E+04 -9.42665E+02 -9.78192E+03 -8.92018E+03
 -4.35432E+03 -1.09630E+04  2.95556E+03 -1.06831E+04  7.37824E+03 -5.49769E+03  7.39984E+03  2.96895E+02
  3.81603E+03  3.37649E+03 -2.35563E+02  3.63869E+03 -2.00206E+03 -2.53441E+02  1.13552E+02 -3.16743E+03
  3.64546E+03 -1.74238E+03  4.14039E+03  5.13793E+02  2.77998E+03  4.16369E+03 -2.20824E+01  4.67191E+03
 -5.27630E+03  5.18974E+03 -7.57309E+03  1.15078E+03 -7.04515E+03 -5.05390E+03 -1.06721E+03 -9.50680E+03
  4.94764E+03 -7.59525E+03  8.23340E+03 -2.90490E+03  8.30957E+03  2.06009E+03  4.92846E+03  5.96582E+03
  9.72463E+02  6.89853E+03 -3.37915E+03  6.18745E+03 -5.01452E+03  2.73266E+03 -3.56786E+03  1.59314E+02
 -2.81218E+03 -9.83218E+02 -1.50051E+03  1.78832E+03 -3.83438E+03  1.29719E+03 -4.62323E+03 -1.40262E+03
 -4.73696E+03 -3.82487E+03 -1.90341E+03 -6.61029E+03  3.52995E+03 -7.87280E+03  7.13974E+03 -3.59565E+03
  7.99083E+03  1.26056E+03  5.07186E+03  6.16078E+03 -9.42709E+02  7.75868E+03 -4.75960E+03  4.76102E+03
