 $NMID ID='MM_0lb_SNR400_16hz_g55_69.RAW', FMTDAT='(8E13.5)'
 TRAMP=1., VOLUME=1. $END
  3.10155E+05  2.75073E+02  3.37055E+05  2.50426E+05  8.45132E+04  3.38022E+05 -1.32616E+05  2.50675E+05
 -1.90143E+05  8.40308E+04 -1.11788E+05 -3.21954E+04  1.11647E+03 -5.03619E+04  5.39570E+04 -1.13729E+02
  3.50172E+04  5.31657E+04 -1.64879E+04  7.55152E+04 -6.12782E+04  6.33088E+04 -8.35615E+04  3.19802E+04
 -8.10953E+04 -1.15544E+04 -5.66775E+04 -5.15376E+04 -1.53016E+04 -6.90360E+04  2.76009E+04 -4.60926E+04
  4.01697E+04  3.69308E+03  1.54638E+04  4.77106E+04 -3.40676E+04  4.68357E+04 -6.65983E+04 -2.89687E+02
 -5.28415E+04 -5.71965E+04 -6.66981E+03 -7.64057E+04  3.39996E+04 -5.45115E+04  4.72256E+04 -1.71549E+04
  4.28334E+04  1.14211E+04  3.19948E+04  2.52724E+04  1.59948E+04  2.93781E+04 -5.24545E+03  2.69307E+04
 -2.20412E+04  1.24689E+04 -1.85245E+04 -5.26384E+03  5.29493E+03 -7.79708E+03  2.21432E+04  1.18233E+04
  7.29163E+03  3.45861E+04 -3.16789E+04  3.56498E+04 -6.30975E+04  2.44621E+03 -5.67294E+04 -4.34130E+04
 -1.23276E+04 -6.25219E+04  3.99197E+04 -4.49629E+04  5.75165E+04 -2.22072E+03  3.36255E+04  3.15679E+04
 -6.30087E+03  3.60530E+04 -3.01866E+04  1.52720E+04 -2.96981E+04 -4.70135E+03 -1.63684E+04 -1.09638E+04
 -8.26240E+03 -1.25986E+04 -1.26032E+03 -1.81721E+04  7.35976E+03 -2.26231E+04  1.56212E+04 -1.36265E+04
  1.16748E+04  5.04405E+03 -8.03458E+03  1.29827E+04 -2.10215E+04 -4.21459E+03 -8.58701E+03 -3.23755E+04
  2.25042E+04 -4.28649E+04  4.74723E+04 -1.96961E+04  4.54672E+04  1.89442E+04  1.58514E+04  4.36351E+04
 -1.55119E+04  3.31214E+04 -2.48089E+04  1.54005E+03 -9.50174E+03 -2.76718E+04  2.05958E+04 -3.24715E+04
  3.99100E+04 -8.42198E+03  3.45563E+04  2.31772E+04  1.76176E+04  4.59135E+04 -7.60458E+03  4.94548E+04
 -3.11586E+04  3.32570E+04 -4.13716E+04  9.67802E+03 -4.22010E+04 -1.66476E+04 -2.29107E+04 -3.68758E+04
  7.18544E+03 -3.75063E+04  3.05587E+04 -1.43260E+04  2.85090E+04  1.13675E+04  3.59550E+03  1.85901E+04
 -1.31828E+04  8.24362E+03 -9.60263E+03 -7.78289E+03  6.21578E+03 -1.06322E+04  1.84037E+04  6.80039E+03
  1.32251E+04  2.18083E+04 -6.50273E+03  2.43425E+04 -2.23447E+04  1.10575E+04 -2.75966E+04 -4.79148E+03
 -1.99464E+04 -1.70712E+04 -7.47659E+03 -2.00712E+04  4.03984E+03 -1.83082E+04  1.51073E+04 -1.80291E+04
  2.53303E+04 -1.22438E+04  3.17006E+04  2.26809E+03  2.33926E+04  1.93761E+04  4.99523E+03  3.53957E+04
 -1.73107E+04  2.95146E+04 -2.80567E+04  1.04053E+04 -2.07742E+04 -1.08020E+04 -4.47360E+03 -1.39564E+04
  2.30253E+03 -2.55498E+03 -4.47398E+03  6.87918E+03 -1.58691E+04  5.09313E+03 -1.55022E+04 -6.45597E+03
 -9.84392E+03 -1.84729E+04  5.03972E+03 -2.24720E+04  1.41576E+04 -1.56652E+04  1.73799E+04 -1.53582E+03
  1.17375E+04  1.25753E+04 -5.93284E+02  1.81320E+04 -1.24547E+04  1.06297E+04 -1.92525E+04 -4.08350E+03
 -1.35107E+04 -1.65677E+04 -1.99732E+03 -2.17213E+04  9.47515E+03 -1.81861E+04  1.85906E+04 -8.60338E+03
  1.63648E+04  1.10835E+02  1.19688E+04  4.15156E+03  5.66905E+03  8.10543E+02  8.82065E+03 -1.77084E+03
  1.60013E+04  3.09476E+03  1.84513E+04  1.47924E+04  1.15099E+04  2.86134E+04 -2.95874E+03  3.19243E+04
 -1.84722E+04  2.50579E+04 -2.99455E+04  1.31796E+04 -3.06380E+04 -2.04742E+03 -2.58484E+04 -1.80504E+04
 -1.19104E+04 -2.56353E+04  8.75645E+03 -2.34855E+04  2.02119E+04 -1.23182E+04  1.80373E+04  4.89156E+03
  6.70787E+03  1.26606E+04 -9.17121E+03  1.17599E+04 -1.50032E+04  2.49375E+03 -1.19581E+04 -9.64084E+03
 -1.37729E+02 -1.43145E+04  7.59190E+03 -1.11494E+04  9.37455E+03 -1.02719E+03  2.00357E+03  6.03699E+03
 -6.95859E+03  2.94378E+03 -5.35175E+03 -5.29474E+03 -1.16703E+02 -1.22584E+04  8.64201E+03 -1.28393E+04
  1.55452E+04 -5.70960E+03  1.64829E+04  3.24442E+03  1.39537E+04  1.19488E+04  6.82791E+03  1.83905E+04
 -2.19947E+03  2.01634E+04 -1.27529E+04  1.31353E+04 -1.42003E+04  3.76985E+03 -1.04895E+04 -3.16531E+03
 -4.66765E+03 -4.19789E+03 -1.65904E+03  1.02295E+03 -2.39280E+03  2.67317E+03 -5.26774E+03  4.25090E+03
 -9.91726E+03 -4.02168E+02 -1.03614E+04 -8.85033E+03 -4.45001E+03 -1.35973E+04  3.98651E+03 -1.09111E+04
  8.77429E+03 -4.60587E+03  6.51508E+03  2.73454E+03  1.81712E+02  3.78585E+03 -4.71228E+03  1.15428E+02
 -4.36111E+03 -6.56361E+03 -7.99039E+02 -9.54562E+03  5.29020E+03 -1.03441E+04  1.25876E+04 -5.80421E+03
  1.49449E+04  9.08857E+02  1.03713E+04  8.22154E+03  2.36875E+03  1.14923E+04 -6.43767E+03  9.85095E+03
 -8.24298E+03  2.69229E+03 -3.96658E+03 -1.72883E+03  1.46180E+03 -2.48880E+03  5.75560E+03 -5.15094E+02
  5.06912E+03  4.26113E+03  1.27827E+03  8.07258E+03 -5.67901E+03  8.28667E+03 -9.73245E+03  2.30114E+03
 -6.43843E+03 -4.80228E+03  8.32454E+02 -8.17399E+03  4.36474E+03 -4.41309E+03  5.54159E+03  1.76053E+03
  1.27518E+03  5.28763E+03 -5.13495E+03  6.07185E+03 -6.99115E+03  2.58337E+03 -7.24808E+03 -2.07495E+03
 -4.03525E+03 -8.73333E+03  1.46756E+03 -9.84952E+03  8.12866E+03 -6.58528E+03  9.27847E+03  1.50509E+03
  6.21207E+03  7.73715E+03 -3.75727E+01  9.29376E+03 -6.53674E+03  5.99569E+03 -7.04901E+03 -5.00370E+02
 -6.57836E+03 -6.80522E+03 -1.09453E+03 -6.20226E+03  3.12168E+03 -5.30383E+03  3.54051E+03 -2.67307E+03
  3.86117E+03  2.01526E+02  1.61924E+02  1.91137E+03 -2.32561E+02 -1.22049E+03  1.07060E+03 -3.40930E+03
  5.31814E+03 -1.99626E+03  8.05768E+03  1.17232E+03  7.97311E+03  5.06388E+03  6.13944E+03  1.02974E+04
 -1.95363E+03  1.21798E+04 -1.09523E+04  9.65112E+03 -1.32349E+04  2.38109E+03 -1.08934E+04 -4.21202E+03
 -4.98225E+03 -9.00462E+03 -3.53015E+02 -7.73653E+03  2.51250E+03 -3.99926E+03  2.61881E+03 -2.09649E+03
  1.80050E+03 -1.70442E+03  2.26722E+03 -2.88704E+03  3.52204E+03 -1.96692E+03  4.28588E+03 -6.45068E+02
  5.38459E+03  1.25176E+03  2.33071E+03  4.78312E+03 -1.60635E+03  4.62213E+03 -5.76160E+03  4.12740E+03
 -7.17926E+03 -4.71878E+02 -4.05222E+03 -4.92904E+03 -3.68386E+01 -7.05203E+03  4.45815E+03 -7.26312E+03
  7.68751E+03 -3.88525E+03  9.51964E+03  1.09058E+03  6.31673E+03  6.48287E+03  1.42052E+03  8.04839E+03
 -3.86503E+03  7.79393E+03 -4.59024E+03  2.45208E+03 -2.37095E+03 -1.12234E+03 -9.83168E+02 -7.02915E+02
 -4.74686E+02  6.58496E+01 -1.92442E+03  2.23048E+03 -3.02595E+03  1.71695E+03 -5.24420E+03 -1.01967E+03
 -2.82185E+03 -4.86988E+03  9.07888E+02 -6.96795E+03  3.97704E+03 -5.99167E+03  6.01819E+03 -1.33213E+03
  6.00698E+03  3.01822E+03  2.59353E+03  5.28694E+03 -1.16496E+03  6.32269E+03 -4.43056E+03  3.83146E+03
 -5.78919E+03  5.95535E+02 -4.67703E+03 -3.66788E+03 -4.84722E+02 -5.29475E+03  2.13918E+03 -4.00712E+03
  3.94945E+03 -1.03412E+03  2.55935E+03  7.05317E+02  6.13986E+02  2.28707E+03  1.00043E+03  7.89358E+02
  1.91698E+03  1.24822E+03  1.33196E+03  1.44407E+03  1.34684E+03  2.62031E+03  1.46165E+03  2.83485E+03
 -1.65365E+03  4.11963E+03 -4.34226E+03  5.97567E+03 -5.06470E+03  1.67345E+03 -6.46747E+03 -2.00325E+03
 -1.97190E+03 -5.53968E+03  1.17507E+03 -7.33796E+03  3.65457E+03 -3.49005E+03  4.21591E+03 -1.31999E+03
  4.01219E+03  2.68163E+03  8.84808E+02  3.25528E+03 -7.80390E+02  1.77327E+03 -2.14626E+03 -3.02689E+02
 -6.05161E+02 -2.27821E+03  1.38196E+03 -2.90093E+03  2.17499E+03 -7.66614E+02  2.21029E+03  4.78961E+02
  1.44945E+03  8.63290E+02  7.84558E+02 -1.23722E+02 -3.98726E+02  8.75498E+02  1.27995E+03  2.07768E+02
  1.84167E+02 -2.77388E+02  2.60532E+03  1.10476E+03  7.98957E+02  2.71602E+03  1.21572E+02  4.06014E+03
 -2.93718E+03  1.98226E+03 -3.63021E+03  3.08095E+02 -3.35716E+03 -1.13889E+03 -6.98332E+02 -2.50760E+03
 -2.55296E+01 -1.48584E+03  1.68958E+03 -1.03826E+03  1.20118E+03  1.20204E+03 -7.46575E+02  1.81002E+03
 -2.03359E+03  9.83333E+02 -1.98425E+03 -1.48015E+03 -1.63601E+03 -2.58462E+03  9.20041E+02 -2.29531E+03
  1.18426E+03 -1.40654E+03  1.21729E+03  2.68059E+02  1.85529E+03  2.44143E+02  6.63831E+02  1.93208E+03
 -9.80796E+02  5.89730E+02 -1.22310E+03 -1.20578E+03  1.23398E+03 -1.41395E+03  3.01753E+03 -1.65303E+03
  1.92064E+03  1.23721E+02  3.13855E+03  1.65195E+03  1.35784E+03  3.40642E+03 -6.04430E+02  3.13374E+03
 -2.16334E+03  7.87355E+02 -2.74847E+03 -7.03839E+02 -1.47835E+03 -1.77483E+03 -2.06143E+02 -2.13131E+03
  1.99301E+03 -1.04317E+03  1.35039E+03  7.07690E+02 -3.34406E+02  2.18784E+03  6.86996E+00  1.82178E+03
 -9.21468E+02  1.63606E+03 -3.42759E+02  5.45122E+02 -4.48501E+02  4.09895E+02 -6.75757E+02  9.01320E+02
 -1.01622E+03  1.63647E+03 -2.30434E+03  1.40574E+03 -2.71769E+03  7.45464E+02 -3.41757E+03 -1.06159E+03
 -2.08983E+03 -3.83286E+03  1.04548E+03 -3.91005E+03  2.33725E+03 -3.59583E+03  4.05622E+03 -1.28435E+03
  3.87364E+03  3.65311E+02  2.05765E+03  2.67346E+03 -5.61596E+02  2.33659E+03 -7.93534E+02  2.38847E+03
 -1.40836E+03  1.37451E+03 -8.15058E+02 -4.76191E+02 -5.18348E+02  9.37957E+02 -1.25333E+03 -7.55271E+01
 -1.46829E+03 -1.70826E+02 -8.14106E+02  4.10983E+02  3.26878E+02 -5.52762E+02 -1.77883E+02 -1.52691E+03
  1.55316E+03 -8.40326E+02  1.20916E+03  4.22560E+02  2.48856E+03  1.22342E+03  2.06050E+01  1.97201E+03
 -1.51996E+03  3.37762E+03 -2.82580E+03  2.31351E+03 -3.41584E+03 -1.15490E+02 -1.95027E+03 -2.15694E+03
 -1.44557E+03 -2.53243E+03 -4.47160E+01 -2.17607E+03  1.30677E+03 -6.39956E+02  1.06720E+03 -2.65347E+02
  1.18480E+03  4.07078E+02  6.27077E+02  6.62630E+02 -6.45486E+02  8.26800E+02 -4.74658E+01  1.02278E+02
  5.39367E+02  3.86203E+02  7.68999E+02  3.11624E+02  3.19534E+02  6.00682E+02  4.30639E+02  3.02673E+02
 -6.07855E+02  1.29968E+03 -6.26651E+02  3.62069E+02 -1.46945E+03 -7.71485E+02  2.05819E+02 -2.31658E+03
  8.55412E+02 -1.63867E+03  1.00061E+03 -7.10818E+02  2.03033E+03 -1.50752E+02  1.13727E+03  1.84535E+03
 -7.94885E+01  1.58142E+03 -1.57874E+02  1.27495E+03 -1.58281E+03  9.83059E+02 -1.44291E+03 -3.03737E+02
 -6.76140E+02 -1.65736E+02 -5.88096E+02  5.37435E+02 -1.00437E+03  4.34745E+02 -1.30631E+03 -1.16217E+02
 -1.75501E+03  6.84590E+02 -6.49586E+02 -8.80877E+02  7.09261E+02 -2.68542E+03  1.27660E+03 -9.02135E+02
  1.69774E+03  4.35436E+02  1.46314E+02  3.71408E+02  6.12706E+02  1.35883E+03 -8.67772E+02  9.18790E+02
