 $NMID ID='MM_0lb_SNR400_13hz_g50_31.RAW', FMTDAT='(8E13.5)'
 TRAMP=1., VOLUME=1. $END
  3.10208E+05  2.11045E+02  3.37670E+05  2.50667E+05  8.46431E+04  3.37761E+05 -1.32223E+05  2.51311E+05
 -1.90225E+05  8.36046E+04 -1.12397E+05 -3.30078E+04  5.36539E+02 -5.03392E+04  5.34918E+04  5.09729E+01
  3.56210E+04  5.29582E+04 -1.70967E+04  7.60793E+04 -6.12203E+04  6.39612E+04 -8.41023E+04  3.20443E+04
 -8.09266E+04 -1.16236E+04 -5.73452E+04 -5.08719E+04 -1.50017E+04 -7.01326E+04  2.74598E+04 -4.57932E+04
  4.02156E+04  4.04511E+03  1.62388E+04  4.78208E+04 -3.48427E+04  4.64605E+04 -6.72530E+04 -2.11110E+02
 -5.32176E+04 -5.72570E+04 -6.69013E+03 -7.81299E+04  3.32191E+04 -5.56904E+04  4.81946E+04 -1.77379E+04
  4.37288E+04  1.09929E+04  3.22928E+04  2.58036E+04  1.57889E+04  2.96534E+04 -5.25447E+03  2.70683E+04
 -2.21716E+04  1.29750E+04 -1.80938E+04 -5.25078E+03  5.66241E+03 -7.95483E+03  2.24689E+04  1.27092E+04
  6.97928E+03  3.58437E+04 -3.21198E+04  3.57687E+04 -6.34822E+04  1.95984E+03 -5.78443E+04 -4.26804E+04
 -1.26398E+04 -6.31265E+04  4.04052E+04 -4.58489E+04  5.89099E+04 -2.37442E+03  3.45837E+04  3.32091E+04
 -6.19783E+03  3.71001E+04 -2.99055E+04  1.57768E+04 -3.12218E+04 -4.03824E+03 -1.67966E+04 -1.09889E+04
 -9.11324E+03 -1.39564E+04 -4.65007E+02 -1.79514E+04  7.72127E+03 -2.30961E+04  1.59191E+04 -1.31563E+04
  1.12767E+04  5.16851E+03 -8.73417E+03  1.27925E+04 -2.15149E+04 -4.81009E+03 -7.91392E+03 -3.51275E+04
  2.38955E+04 -4.43009E+04  4.95134E+04 -2.03323E+04  4.64792E+04  1.91133E+04  1.62579E+04  4.45461E+04
 -1.64174E+04  3.42024E+04 -2.61050E+04  2.37556E+03 -1.01869E+04 -2.84298E+04  2.16939E+04 -3.49248E+04
  4.19177E+04 -9.03195E+03  3.70732E+04  2.41702E+04  1.89312E+04  4.69651E+04 -7.59895E+03  5.13750E+04
 -3.26527E+04  3.55815E+04 -4.32171E+04  9.82311E+03 -4.36185E+04 -1.72174E+04 -2.43208E+04 -3.88046E+04
  7.44307E+03 -3.87097E+04  3.16526E+04 -1.52887E+04  2.94850E+04  1.10233E+04  3.92489E+03  1.99650E+04
 -1.30315E+04  8.93507E+03 -1.00241E+04 -7.37988E+03  6.13925E+03 -1.13544E+04  1.84653E+04  6.28807E+03
  1.35452E+04  2.21225E+04 -5.79020E+03  2.55803E+04 -2.25700E+04  1.14648E+04 -2.83111E+04 -3.79197E+03
 -2.16005E+04 -1.72727E+04 -9.48152E+03 -2.14607E+04  3.52759E+03 -2.07352E+04  1.65377E+04 -1.88764E+04
  2.73297E+04 -1.30734E+04  3.40426E+04  3.00123E+03  2.45348E+04  2.09567E+04  4.30106E+03  3.72655E+04
 -1.76047E+04  3.14047E+04 -2.85735E+04  1.01356E+04 -2.04283E+04 -1.03013E+04 -4.62247E+03 -1.38511E+04
  1.93455E+03 -2.60914E+03 -5.77562E+03  6.91879E+03 -1.66754E+04  5.79748E+03 -1.79536E+04 -7.58953E+03
 -1.09988E+04 -2.01444E+04  5.17737E+03 -2.40285E+04  1.59136E+04 -1.76692E+04  1.88452E+04 -1.81338E+03
  1.26658E+04  1.39022E+04 -1.45772E+03  2.01999E+04 -1.41911E+04  1.11909E+04 -2.00489E+04 -3.73729E+03
 -1.43003E+04 -1.79093E+04 -2.45713E+03 -2.37171E+04  1.04467E+04 -1.98228E+04  1.99000E+04 -9.82376E+03
  1.83754E+04 -1.33872E+01  1.37469E+04  5.28639E+03  6.97266E+03  1.33032E+03  1.06032E+04 -1.52274E+03
  1.79741E+04  2.25313E+03  2.06461E+04  1.56117E+04  1.33868E+04  3.15451E+04 -3.16329E+03  3.61574E+04
 -2.12156E+04  2.88757E+04 -3.41379E+04  1.41818E+04 -3.57873E+04 -2.92328E+03 -2.93166E+04 -2.03236E+04
 -1.23759E+04 -2.92638E+04  1.00326E+04 -2.67579E+04  2.28780E+04 -1.36459E+04  1.98439E+04  6.45416E+03
  7.60733E+03  1.50394E+04 -9.52471E+03  1.26205E+04 -1.65527E+04  2.61695E+03 -1.30520E+04 -1.05097E+04
 -8.21202E+01 -1.56891E+04  8.78043E+03 -1.23266E+04  1.10979E+04 -1.41752E+03  2.20840E+03  7.20948E+03
 -6.88630E+03  2.46731E+03 -7.16156E+03 -5.25911E+03 -5.07150E+02 -1.44640E+04  9.81097E+03 -1.50924E+04
  1.75096E+04 -8.27116E+03  2.01374E+04  2.38514E+03  1.67582E+04  1.49183E+04  8.45531E+03  2.17795E+04
 -3.84009E+03  2.42886E+04 -1.50622E+04  1.46634E+04 -1.77173E+04  4.14410E+03 -1.24251E+04 -4.01580E+03
 -5.72341E+03 -5.37414E+03 -9.15966E+02  3.68411E+02 -2.77752E+03  3.02223E+03 -5.45555E+03  4.55830E+03
 -1.14677E+04 -1.34174E+03 -1.13903E+04 -9.82486E+03 -4.95234E+03 -1.56694E+04  5.19836E+03 -1.18360E+04
  9.85616E+03 -4.80721E+03  6.92960E+03  3.63035E+03  2.52568E+02  4.41383E+03 -6.59614E+03 -1.45639E+02
 -5.71065E+03 -7.23031E+03 -1.27159E+03 -1.09040E+04  6.48911E+03 -1.17782E+04  1.50813E+04 -6.62031E+03
  1.79996E+04  1.33549E+03  1.29772E+04  1.01808E+04  2.46513E+03  1.41347E+04 -7.44927E+03  1.21733E+04
 -9.47180E+03  3.52498E+03 -4.44318E+03 -1.69574E+03  2.23815E+03 -2.81173E+03  6.44930E+03 -1.06167E+03
  5.82995E+03  4.83970E+03  8.71815E+02  9.23902E+03 -7.45364E+03  9.29186E+03 -1.19013E+04  1.76030E+03
 -7.81534E+03 -6.29413E+03  5.73798E+02 -1.05730E+04  6.21078E+03 -5.00701E+03  6.18262E+03  2.25509E+03
  2.19175E+03  6.78230E+03 -6.79544E+03  8.62290E+03 -9.53263E+03  3.51960E+03 -8.96203E+03 -3.11183E+03
 -5.67580E+03 -1.14546E+04  2.62426E+03 -1.31739E+04  1.05622E+04 -7.74831E+03  1.19266E+04  2.15254E+03
  7.54531E+03  9.02129E+03 -1.19438E+03  1.16176E+04 -8.67974E+03  6.42361E+03 -9.04304E+03 -2.72445E+02
 -8.27970E+03 -8.09382E+03 -1.49268E+03 -8.02766E+03  4.85886E+03 -7.67883E+03  5.62688E+03 -3.49903E+03
  3.64254E+03  3.60891E+02  2.83640E+02  1.72460E+03  3.81962E+02 -1.61334E+03  1.01593E+03 -4.55202E+03
  7.40381E+03 -2.34006E+03  1.03476E+04  6.80236E+02  9.74738E+03  6.55903E+03  7.16145E+03  1.36991E+04
 -3.45595E+03  1.63920E+04 -1.39038E+04  1.23184E+04 -1.75966E+04  2.58362E+03 -1.36992E+04 -6.02442E+03
 -7.17781E+03 -1.12804E+04 -6.26616E+02 -9.86290E+03  3.28233E+03 -5.15907E+03  3.41021E+03 -2.90896E+03
  2.67432E+03 -2.39850E+03  2.67561E+03 -2.98944E+03  4.68310E+03 -2.54171E+03  5.52682E+03 -5.96155E+02
  7.12220E+03  1.50859E+03  4.02665E+03  6.17928E+03 -1.62799E+03  6.67564E+03 -8.08784E+03  5.25803E+03
 -9.52758E+03 -1.32195E+03 -5.37670E+03 -6.94740E+03 -4.09120E+02 -1.04131E+04  6.19489E+03 -1.01410E+04
  1.03149E+04 -5.56138E+03  1.28677E+04  1.45882E+03  9.04457E+03  8.67853E+03  1.58475E+03  1.13186E+04
 -4.81767E+03  9.98342E+03 -6.22253E+03  3.02801E+03 -3.84599E+03 -1.49920E+03 -1.73103E+03 -1.57232E+03
 -1.07194E+03  6.65606E+02 -1.40562E+03  2.86266E+03 -3.78296E+03  2.10023E+03 -6.58365E+03 -9.14489E+02
 -4.78393E+03 -7.80755E+03  3.75424E+02 -9.42853E+03  5.62786E+03 -8.88998E+03  8.78220E+03 -2.45259E+03
  8.82710E+03  4.09598E+03  3.79520E+03  8.32133E+03 -1.60543E+03  9.63574E+03 -6.57472E+03  5.78549E+03
 -8.15969E+03 -1.24624E+02 -6.36833E+03 -4.83735E+03 -7.10833E+02 -7.49852E+03  3.67396E+03 -5.67294E+03
  5.69885E+03 -2.09631E+03  3.74310E+03  1.40865E+03  8.13102E+02  3.00888E+03  8.12100E+02  1.00121E+03
  1.64577E+03  8.56131E+02  2.42814E+03  1.33600E+03  2.60298E+03  3.78100E+03  3.15717E+03  4.73425E+03
 -2.16733E+03  7.25505E+03 -6.04595E+03  6.82966E+03 -8.42552E+03  1.90372E+03 -9.73885E+03 -2.96211E+03
 -4.23822E+03 -8.84192E+03  8.92917E+02 -1.01938E+04  5.01790E+03 -5.99645E+03  7.05695E+03 -2.11846E+03
  5.92266E+03  3.35820E+03  9.77221E+02  5.66523E+03 -2.37039E+03  3.12555E+03 -2.80132E+03 -4.91362E+02
 -1.41298E+03 -3.55011E+03  2.04422E+03 -3.61844E+03  3.67746E+03 -1.96581E+03  3.13840E+03  6.20103E+02
  1.93870E+03  1.53957E+03  1.14680E+03  1.04142E+03  2.60871E+02  1.96524E+03  1.11937E+03 -1.61716E+02
  1.17945E+03 -2.53647E+02  3.97670E+03  1.27881E+03  1.04477E+03  4.98416E+03 -1.16219E+03  6.05409E+03
 -4.16681E+03  3.33728E+03 -4.60763E+03  1.17951E+03 -4.59318E+03 -1.58724E+03 -1.54199E+03 -2.96177E+03
  7.50553E+02 -3.39787E+03  2.17114E+03 -1.39366E+03  1.81759E+03  2.57496E+03 -1.07498E+03  2.70855E+03
 -3.47648E+03  1.13389E+03 -3.92242E+03 -2.81955E+03 -2.29117E+03 -5.32850E+03  9.86178E+02 -4.22390E+03
  2.56703E+03 -2.45034E+03  2.96518E+03  2.63828E+01  2.81799E+03  1.05213E+03  5.48464E+02  2.11013E+03
 -1.28818E+03  2.39893E+02 -2.52090E+03 -1.48948E+03  1.13892E+03 -3.20670E+03  4.75692E+03 -2.54881E+03
  4.65762E+03  2.64107E+02  5.31617E+03  3.68616E+03  1.61128E+03  4.85154E+03 -2.08852E+03  4.83498E+03
 -4.65105E+03  1.76979E+03 -4.35794E+03 -8.53255E+02 -2.29757E+03 -2.69930E+03  7.08678E+02 -2.75174E+03
  4.10140E+03 -1.19070E+03  1.92106E+03  1.16194E+03  1.13137E+03  3.58569E+03  2.75161E+02  2.62349E+03
 -1.26880E+03  1.90572E+03 -9.88014E+02  8.04422E+02 -7.52206E+02  4.58970E+02 -9.00552E+02  7.63128E+02
 -1.35833E+03  2.31889E+03 -3.44272E+03  1.73725E+03 -4.71037E+03  2.54691E+02 -6.46703E+03 -2.96803E+03
 -3.25576E+03 -6.32334E+03  1.14278E+03 -8.02484E+03  4.52102E+03 -5.29575E+03  7.25844E+03 -2.16182E+03
  6.78205E+03  1.39206E+03  4.34311E+03  5.23247E+03 -2.42066E+02  4.87229E+03 -1.94299E+03  4.10030E+03
 -2.52229E+03  1.38771E+03 -1.92518E+03 -1.17186E+03 -1.00517E+03 -2.58439E+02 -2.87725E+02  1.91093E+02
 -1.22745E+03  2.48080E+02 -1.10452E+03 -1.53800E+02 -1.92884E+02 -1.68562E+03 -3.55395E+02 -2.65148E+03
  2.41664E+03 -2.17587E+03  2.78080E+03  3.64239E+00  3.64991E+03  3.47579E+03  1.60480E+02  4.35494E+03
 -2.62421E+03  5.74610E+03 -5.04111E+03  3.13899E+03 -5.92373E+03 -6.32711E+02 -3.40096E+03 -3.87555E+03
 -2.26537E+03 -4.50476E+03  1.08333E+03 -4.00294E+03  3.21038E+03 -2.48548E+03  3.05713E+03  3.78965E+02
  1.73410E+03  1.56990E+03  3.89914E+00  1.25354E+03 -1.01949E+03 -3.37286E+02  1.75836E+02 -8.25472E+02
  1.48838E+03  1.97028E+02  2.04188E+03  1.10925E+03  6.60742E+02  1.82805E+03  2.43256E+01  2.90910E+03
 -1.99076E+03  2.12958E+03 -3.21717E+03  3.12535E+02 -2.75031E+03 -2.45737E+03 -1.85776E+02 -3.76557E+03
  1.84434E+03 -3.69259E+03  3.61654E+03 -8.03611E+02  3.81018E+03  6.43742E+02  2.28467E+03  3.12812E+03
  4.85074E+02  2.17735E+03 -1.03680E+03  2.49941E+03 -1.96493E+03  1.63840E+03 -1.22196E+03 -4.28128E+02
 -8.79502E+02 -1.03033E+03 -6.36333E+02 -3.26045E+01 -1.21954E+03  3.17690E+02 -2.29651E+03 -3.45365E+02
 -2.41095E+03 -1.27028E+03 -6.68865E+02 -2.28629E+03  1.27670E+03 -3.57236E+03  2.88842E+03 -1.72037E+03
  2.57817E+03  4.62868E+02  3.83167E+02  2.07331E+03 -3.51917E+02  2.80551E+03 -2.30428E+03  2.25867E+03
