 $NMID ID='MM_0lb_SNR400_16hz_g40_21.RAW', FMTDAT='(8E13.5)'
 TRAMP=1., VOLUME=1. $END
  3.09960E+05  1.64432E+01  3.37053E+05  2.50339E+05  8.45814E+04  3.37242E+05 -1.32613E+05  2.50065E+05
 -1.89969E+05  8.28192E+04 -1.12248E+05 -3.28627E+04  1.49568E+03 -4.97783E+04  5.35978E+04  9.18984E+01
  3.46973E+04  5.32546E+04 -1.67465E+04  7.48650E+04 -6.01958E+04  6.30609E+04 -8.32347E+04  3.22105E+04
 -8.04011E+04 -1.13963E+04 -5.65981E+04 -5.02965E+04 -1.51276E+04 -6.84773E+04  2.73685E+04 -4.53605E+04
  3.92661E+04  3.31034E+03  1.58694E+04  4.77764E+04 -3.35773E+04  4.60994E+04 -6.55068E+04 -8.20531E+02
 -5.24140E+04 -5.63729E+04 -6.14399E+03 -7.62665E+04  3.37105E+04 -5.34479E+04  4.70575E+04 -1.68284E+04
  4.19255E+04  1.14522E+04  3.09928E+04  2.53666E+04  1.58839E+04  2.84496E+04 -4.85811E+03  2.74932E+04
 -2.14861E+04  1.25093E+04 -1.85231E+04 -4.75640E+03  4.64277E+03 -7.25583E+03  2.16396E+04  1.16563E+04
  7.38306E+03  3.36078E+04 -3.11347E+04  3.42527E+04 -6.13087E+04  1.98939E+03 -5.59190E+04 -4.18484E+04
 -1.25427E+04 -6.18300E+04  3.87673E+04 -4.45358E+04  5.64085E+04 -1.88001E+03  3.26591E+04  3.18180E+04
 -6.53943E+03  3.39995E+04 -2.90928E+04  1.39493E+04 -2.90317E+04 -5.23644E+03 -1.54710E+04 -1.02608E+04
 -7.90760E+03 -1.19514E+04 -9.90403E+02 -1.67888E+04  7.19775E+03 -2.24997E+04  1.49040E+04 -1.36810E+04
  1.22889E+04  4.70854E+03 -6.92803E+03  1.31563E+04 -2.02584E+04 -3.54615E+03 -8.15536E+03 -3.17107E+04
  2.16175E+04 -4.12550E+04  4.58687E+04 -1.87274E+04  4.27855E+04  1.91768E+04  1.49127E+04  4.27023E+04
 -1.54338E+04  3.17700E+04 -2.39860E+04  1.91822E+03 -9.12794E+03 -2.67116E+04  2.11014E+04 -3.14499E+04
  3.88990E+04 -7.55854E+03  3.29355E+04  2.34805E+04  1.69188E+04  4.43234E+04 -7.87082E+03  4.67244E+04
 -2.93516E+04  3.10964E+04 -3.91039E+04  8.76410E+03 -3.95000E+04 -1.50920E+04 -2.19823E+04 -3.54420E+04
  7.11574E+03 -3.45477E+04  2.98813E+04 -1.32727E+04  2.75679E+04  1.05505E+04  3.03309E+03  1.80109E+04
 -1.36876E+04  7.25868E+03 -1.01216E+04 -7.89654E+03  6.40213E+03 -1.06811E+04  1.73183E+04  5.98460E+03
  1.22401E+04  2.19955E+04 -6.49275E+03  2.38792E+04 -2.16309E+04  1.05029E+04 -2.54794E+04 -5.98749E+03
 -1.79450E+04 -1.65662E+04 -6.65676E+03 -1.76324E+04  3.52913E+03 -1.60529E+04  1.34156E+04 -1.58149E+04
  2.34110E+04 -1.19769E+04  2.91634E+04  1.54091E+03  2.17144E+04  1.72757E+04  4.23935E+03  3.39208E+04
 -1.70297E+04  2.86742E+04 -2.67442E+04  9.94234E+03 -2.02759E+04 -1.09323E+04 -3.85867E+03 -1.38585E+04
  2.46728E+03 -3.47647E+03 -3.64423E+03  5.58730E+03 -1.40596E+04  5.28114E+03 -1.41650E+04 -5.50062E+03
 -8.58725E+03 -1.68684E+04  4.74263E+03 -2.02502E+04  1.32490E+04 -1.37844E+04  1.54866E+04 -1.54321E+03
  9.36895E+03  1.15522E+04 -1.19835E+03  1.69451E+04 -1.13398E+04  9.26531E+03 -1.69251E+04 -3.85610E+03
 -1.25180E+04 -1.52656E+04 -2.00875E+03 -2.04249E+04  9.29181E+03 -1.68083E+04  1.74433E+04 -7.78298E+03
  1.58468E+04  9.70780E+02  1.17598E+04  3.44168E+03  5.41927E+03  9.66275E+02  7.96831E+03 -1.27770E+03
  1.50253E+04  2.11226E+03  1.62842E+04  1.34508E+04  1.00332E+04  2.70002E+04 -2.57583E+03  2.95575E+04
 -1.73924E+04  2.28207E+04 -2.72514E+04  1.18259E+04 -2.82384E+04 -1.96882E+03 -2.40725E+04 -1.61890E+04
 -1.04257E+04 -2.29729E+04  8.01850E+03 -2.11047E+04  1.84808E+04 -1.17262E+04  1.70568E+04  4.61465E+03
  6.83393E+03  1.21870E+04 -7.29090E+03  1.10475E+04 -1.42563E+04  2.51198E+03 -1.12522E+04 -8.74809E+03
 -1.43154E+02 -1.35179E+04  6.67451E+03 -1.07547E+04  9.00657E+03 -1.34186E+03  1.61779E+03  5.69848E+03
 -5.98873E+03  1.82537E+03 -4.66427E+03 -5.08454E+03  1.10836E+03 -1.13897E+04  8.28502E+03 -1.16759E+04
  1.36164E+04 -5.43576E+03  1.39067E+04  3.30371E+03  1.22843E+04  1.08254E+04  6.07733E+03  1.67308E+04
 -1.95151E+03  1.84319E+04 -1.09049E+04  1.15215E+04 -1.32078E+04  2.66832E+03 -9.27555E+03 -2.82861E+03
 -4.78996E+03 -3.28467E+03 -7.40267E+02  1.48438E+03 -2.70205E+03  2.60945E+03 -4.41982E+03  3.99507E+03
 -8.66363E+03 -8.54943E+02 -9.34577E+03 -7.97385E+03 -4.50379E+03 -1.30893E+04  3.75706E+03 -9.03377E+03
  7.70775E+03 -3.75861E+03  5.47568E+03  2.42549E+03  8.11927E+02  4.07878E+03 -4.05175E+03 -3.23008E+02
 -3.89086E+03 -5.38343E+03 -5.29211E+02 -7.89089E+03  4.34752E+03 -9.37263E+03  1.14816E+04 -4.82236E+03
  1.32270E+04  1.03966E+03  9.54699E+03  7.11645E+03  2.16121E+03  9.73036E+03 -5.75422E+03  8.77149E+03
 -8.05163E+03  3.15190E+03 -3.55130E+03 -1.40583E+03  1.23344E+03 -2.04472E+03  5.39702E+03 -8.50822E+02
  4.35497E+03  3.94488E+03  1.27161E+03  7.37033E+03 -4.94766E+03  7.30468E+03 -8.71109E+03  2.44782E+03
 -5.55288E+03 -4.72672E+03  4.63127E+02 -7.34140E+03  5.23431E+03 -3.54456E+03  4.15097E+03  1.36968E+03
  4.95725E+02  4.30573E+03 -4.47124E+03  5.04515E+03 -5.98934E+03  2.63876E+03 -5.43718E+03 -1.30875E+03
 -4.07960E+03 -7.06271E+03  1.25143E+03 -8.12209E+03  7.63041E+03 -5.39625E+03  7.86593E+03  1.35201E+03
  5.10748E+03  6.81486E+03 -7.17982E+00  8.36115E+03 -5.32683E+03  4.84482E+03 -6.37997E+03 -7.86252E+02
 -6.93913E+03 -5.62547E+03 -1.37484E+03 -5.80848E+03  3.16307E+03 -5.44134E+03  3.42760E+03 -3.32049E+03
  2.82587E+03  2.79900E+01 -2.29851E+02  1.21555E+03  4.96023E+01 -6.48608E+02  3.25356E+02 -2.61582E+03
  4.95997E+03 -1.38744E+03  7.15618E+03  8.46056E+02  6.87889E+03  3.79284E+03  5.46957E+03  8.93371E+03
 -1.86693E+03  1.06789E+04 -9.75525E+03  7.85554E+03 -1.19811E+04  1.61076E+03 -9.63002E+03 -3.45383E+03
 -5.15492E+03 -8.65937E+03 -1.64863E+02 -6.31650E+03  2.87861E+03 -3.14886E+03  2.06592E+03 -2.05728E+03
  2.32122E+03 -1.77349E+03  2.24925E+03 -2.40734E+03  4.24775E+03 -1.66033E+03  4.01509E+03  1.44041E+02
  4.81181E+03  1.65845E+03  1.72262E+03  4.58307E+03 -1.69446E+03  4.26200E+03 -5.03648E+03  3.51423E+03
 -6.80143E+03 -1.46975E+03 -2.59424E+03 -4.36314E+03 -1.20080E+02 -6.37598E+03  4.07820E+03 -6.97552E+03
  7.20922E+03 -3.71669E+03  8.63965E+03  4.48089E+02  5.98585E+03  5.10152E+03  1.24651E+03  7.48739E+03
 -2.68086E+03  6.94146E+03 -4.51585E+03  1.88443E+03 -2.05574E+03 -9.44177E+02 -5.84321E+02 -2.96085E+02
 -1.83845E+02  5.55031E+02 -1.22412E+03  2.79460E+03 -3.14208E+03  1.19776E+03 -4.70839E+03 -1.00237E+03
 -2.31741E+03 -4.61289E+03  9.11628E+02 -6.18289E+03  3.47635E+03 -5.42111E+03  5.28280E+03 -1.91525E+03
  6.02801E+03  2.65365E+03  2.09762E+03  4.38111E+03 -6.59203E+02  6.45716E+03 -3.34733E+03  3.19581E+03
 -5.42026E+03  1.29316E+03 -4.30685E+03 -3.25481E+03 -2.79828E+02 -4.29986E+03  2.04473E+03 -4.27802E+03
  3.58234E+03 -1.58256E+03  2.15313E+03  3.94425E+02  1.04833E+03  1.74112E+03  9.65781E+02  1.13263E+03
  1.79955E+03  1.00659E+03  1.89128E+03  1.48746E+03  1.30865E+03  2.66987E+03  1.54028E+03  2.51959E+03
 -1.90776E+03  4.03017E+03 -3.50068E+03  4.88905E+03 -4.68524E+03  1.76453E+03 -5.98240E+03 -1.62090E+03
 -2.51364E+03 -5.13984E+03  5.92927E+02 -6.63235E+03  3.08175E+03 -3.98712E+03  4.36004E+03 -1.28711E+03
  3.13339E+03  2.29439E+03  7.97181E+02  3.26966E+03 -1.66757E+03  1.68842E+03 -1.75890E+03 -3.86423E+01
 -8.94355E+02 -2.15485E+03  1.84844E+03 -2.14778E+03  1.06696E+03 -1.43409E+03  1.49030E+03  1.86885E+02
  1.13284E+03  6.64909E+02  5.55749E+02  4.98582E+02 -2.81661E+02  8.56549E+02  1.84234E+03  6.68669E+01
  6.09639E+02 -5.68629E+02  2.40030E+03  1.19252E+03  5.56559E+02  3.03668E+03 -2.80699E+02  4.26340E+03
 -2.96321E+03  1.37948E+03 -4.31378E+03  8.83736E+02 -3.23863E+03 -1.79049E+03 -6.87380E+02 -1.89247E+03
  3.92292E+02 -2.00566E+03  1.16773E+03 -8.65320E+02  1.06283E+03  1.21014E+03 -1.10471E+03  1.04546E+03
 -2.51911E+03  5.60049E+02 -2.26944E+03 -1.57186E+03 -1.25715E+03 -3.24472E+03 -3.11447E+00 -2.43529E+03
  7.35098E+02 -1.26116E+03  1.62477E+03  3.98822E+02  1.78194E+03 -1.65436E+02  2.45759E+02  1.95266E+03
 -7.74934E+02  2.73375E+02 -1.85501E+03 -3.90700E+02  8.07336E+02 -1.20954E+03  2.82406E+03 -1.50273E+03
  2.46316E+03  1.17645E+02  3.53622E+03  1.56263E+03  1.41812E+03  2.83403E+03 -9.55682E+02  2.68397E+03
 -2.60584E+03  7.05984E+02 -2.04626E+03 -4.08217E+02 -1.57014E+03 -2.21009E+03  7.99448E+02 -8.08474E+02
  2.07185E+03 -1.14146E+03  1.24779E+03  1.14859E+03  3.55262E+02  1.96203E+03  5.17467E+02  1.62115E+03
 -5.73859E+02  1.53101E+03 -8.04223E+02 -1.51402E+02 -1.47059E+02  6.99200E+02 -8.01462E+02  6.68108E+02
 -8.92061E+02  1.12288E+03 -2.45913E+03  8.21789E+02 -2.57440E+03  5.08010E+01 -4.44316E+03 -1.78779E+03
 -1.84152E+03 -4.13605E+03  3.57343E+02 -3.84404E+03  2.44524E+03 -3.67549E+03  4.16516E+03 -1.73093E+03
  4.03015E+03 -3.83118E+02  2.01844E+03  2.77049E+03 -4.38366E+02  2.12976E+03 -1.27944E+03  2.31940E+03
 -1.82104E+03  9.97911E+02 -7.78556E+02 -6.01694E+02 -1.03561E+03  3.69215E+02 -6.35211E+02  2.40284E+02
 -1.64721E+03  6.01511E+02 -1.12710E+03  4.43828E+02 -6.89072E+01 -8.08678E+02 -3.82610E+02 -1.54458E+03
  1.49854E+03 -1.34194E+03  1.55305E+03  5.70012E+02  1.87432E+03  1.63236E+03 -8.68784E+02  2.28915E+03
 -1.34493E+03  2.62197E+03 -3.15872E+03  2.26605E+03 -2.91211E+03 -6.73350E+02 -2.07213E+03 -1.40620E+03
 -1.48181E+03 -2.92490E+03  3.46566E+02 -2.59913E+03  1.20961E+03 -1.14403E+03  1.19575E+03  1.13224E+02
  1.47273E+03  2.77665E+02  2.26487E+01  8.54285E+02 -6.65852E+02 -2.75483E+02 -2.54424E+01  3.18809E+01
  7.83595E+02 -1.82788E+02  8.33852E+02  7.60354E+02 -1.00114E+02  1.78027E+02 -4.23394E+01  1.07853E+03
 -9.95923E+02  1.32518E+03 -1.26006E+03  3.74632E+02 -9.54550E+02 -5.17513E+02 -4.74923E+02 -2.39633E+03
  1.49387E+03 -1.25311E+03  2.36340E+03 -1.33579E+01  1.40910E+03  1.29476E+02  3.01084E+02  1.00493E+03
  7.79547E+02  1.35524E+03 -3.49348E+02  1.04720E+03 -1.19185E+03  5.70962E+02 -4.34685E+02  2.09984E+02
 -4.89183E+02 -2.17246E+02 -6.01719E+02  9.66266E+01 -1.22969E+03  7.76611E+01 -1.45994E+03 -3.70125E+02
 -1.68324E+03 -3.18704E+02 -8.64606E+02 -1.80123E+03  1.04625E+03 -1.89985E+03  6.99446E+02 -1.18182E+03
  1.43920E+03  3.62021E+02  7.16642E+01  4.01391E+02  2.72804E+02  1.98499E+03 -5.89650E+02  1.55908E+03
