 $NMID ID='MM_0lb_SNR400_7hz_g40_92.RAW', FMTDAT='(8E13.5)'
 TRAMP=1., VOLUME=1. $END
  3.10277E+05  7.88998E+01  3.38203E+05  2.51330E+05  8.48977E+04  3.38877E+05 -1.32327E+05  2.51930E+05
 -1.90822E+05  8.40983E+04 -1.12243E+05 -3.18765E+04 -9.92434E+01 -5.12193E+04  5.40987E+04 -8.49507E+02
  3.65269E+04  5.27200E+04 -1.72835E+04  7.53971E+04 -6.11903E+04  6.45930E+04 -8.51787E+04  3.29927E+04
 -8.25472E+04 -1.23753E+04 -5.74955E+04 -5.23288E+04 -1.54887E+04 -7.04608E+04  2.84788E+04 -4.72762E+04
  4.18606E+04  3.39680E+03  1.59779E+04  4.90108E+04 -3.43743E+04  4.73503E+04 -6.93099E+04 -5.25774E+02
 -5.47175E+04 -5.81795E+04 -7.48358E+03 -7.95785E+04  3.50995E+04 -5.73395E+04  5.03903E+04 -1.83186E+04
  4.63963E+04  1.20413E+04  3.30654E+04  2.71310E+04  1.53909E+04  3.09039E+04 -6.12373E+03  2.72788E+04
 -2.22930E+04  1.20097E+04 -1.71538E+04 -6.49432E+03  7.45713E+03 -7.56364E+03  2.41056E+04  1.40908E+04
  6.30047E+03  3.81500E+04 -3.45276E+04  3.62620E+04 -6.69149E+04  1.55138E+03 -5.93980E+04 -4.47340E+04
 -1.19512E+04 -6.59988E+04  4.17661E+04 -4.73777E+04  6.20339E+04 -2.16288E+03  3.78218E+04  3.47850E+04
 -5.37529E+03  4.01110E+04 -3.20392E+04  2.00587E+04 -3.44891E+04 -3.57113E+03 -1.99014E+04 -1.23240E+04
 -1.00248E+04 -1.56300E+04 -6.52321E+02 -2.05257E+04  9.35964E+03 -2.39627E+04  1.57483E+04 -1.19666E+04
  1.03327E+04  6.30591E+03 -1.09150E+04  1.28352E+04 -2.40206E+04 -7.04066E+03 -8.73707E+03 -3.89218E+04
  2.57112E+04 -4.71479E+04  5.30785E+04 -2.26437E+04  4.93076E+04  2.15685E+04  1.74772E+04  4.74407E+04
 -1.66880E+04  3.73178E+04 -2.90528E+04  2.51159E+03 -1.11846E+04 -3.09429E+04  2.18426E+04 -3.77657E+04
  4.58075E+04 -1.16646E+04  4.07348E+04  2.50112E+04  2.21914E+04  5.24311E+04 -9.17406E+03  5.72648E+04
 -3.67488E+04  3.98172E+04 -4.93602E+04  1.10761E+04 -4.89358E+04 -1.84063E+04 -2.59950E+04 -4.31728E+04
  8.40048E+03 -4.35555E+04  3.49466E+04 -1.79279E+04  3.27304E+04  1.10992E+04  4.57413E+03  2.14006E+04
 -1.36196E+04  1.06040E+04 -1.11775E+04 -7.62637E+03  5.49698E+03 -1.15934E+04  1.92723E+04  6.05648E+03
  1.49939E+04  2.31815E+04 -5.03686E+03  2.73390E+04 -2.35238E+04  1.50126E+04 -3.22937E+04 -2.52421E+03
 -2.73903E+04 -1.91554E+04 -1.25667E+04 -2.64124E+04  4.37266E+03 -2.72893E+04  2.26619E+04 -2.46663E+04
  3.43212E+04 -1.46842E+04  3.98151E+04  4.96180E+03  2.83906E+04  2.58432E+04  3.85169E+03  4.22224E+04
 -1.97937E+04  3.56435E+04 -3.09796E+04  1.25156E+04 -2.26792E+04 -1.00050E+04 -4.67048E+03 -1.26048E+04
  9.55593E+02 -1.57733E+03 -9.36871E+03  9.42039E+03 -2.18544E+04  5.95844E+03 -2.13678E+04 -1.08883E+04
 -1.19409E+04 -2.44584E+04  6.75611E+03 -2.86015E+04  1.92686E+04 -2.13176E+04  2.41530E+04 -2.69068E+03
  1.59639E+04  1.68845E+04 -1.25904E+03  2.39742E+04 -1.73608E+04  1.35061E+04 -2.34434E+04 -4.72535E+03
 -1.83111E+04 -2.14043E+04 -2.29287E+03 -2.94471E+04  1.36424E+04 -2.56213E+04  2.33347E+04 -1.31864E+04
  2.38731E+04 -1.10947E+03  1.68112E+04  6.66206E+03  9.71495E+03  1.66494E+03  1.34774E+04 -2.07536E+03
  2.34204E+04  2.04503E+03  2.81282E+04  2.04253E+04  1.85994E+04  3.97988E+04 -2.18491E+03  4.73971E+04
 -2.67239E+04  3.98974E+04 -4.56457E+04  2.06618E+04 -4.75003E+04 -4.00020E+03 -3.79719E+04 -2.73881E+04
 -1.55583E+04 -4.00686E+04  1.47308E+04 -3.44762E+04  3.04495E+04 -1.57002E+04  2.51921E+04  8.04526E+03
  8.95393E+03  2.02205E+04 -1.28540E+04  1.68893E+04 -2.09013E+04  2.56660E+03 -1.65969E+04 -1.40781E+04
  6.64977E+01 -2.07830E+04  1.15773E+04 -1.62732E+04  1.40591E+04 -7.77638E+02  3.95039E+03  1.01001E+04
 -9.46504E+03  4.01766E+03 -1.03712E+04 -7.46466E+03 -2.58119E+03 -1.95321E+04  1.26263E+04 -2.06516E+04
  2.50787E+04 -1.27690E+04  2.92767E+04  3.42982E+03  2.52577E+04  1.99153E+04  1.12467E+04  3.10759E+04
 -5.93490E+03  3.36702E+04 -2.32040E+04  2.02947E+04 -2.48978E+04  4.99717E+03 -1.64396E+04 -6.73136E+03
 -6.90500E+03 -7.55532E+03 -7.30689E+02  1.73865E+02 -2.67136E+03  2.72573E+03 -7.49214E+03  5.56379E+03
 -1.50551E+04 -1.37394E+03 -1.67609E+04 -1.31501E+04 -6.30242E+03 -2.14014E+04  6.82281E+03 -1.75420E+04
  1.37749E+04 -6.56094E+03  1.05729E+04  4.79609E+03  3.46171E+01  6.85039E+03 -8.94886E+03 -4.53515E+02
 -7.86206E+03 -1.12493E+04 -7.98741E+02 -1.75072E+04  1.02791E+04 -1.82779E+04  2.24206E+04 -1.00340E+04
  2.56690E+04  2.47244E+03  1.87314E+04  1.57211E+04  3.54496E+03  2.15683E+04 -1.12388E+04  1.67672E+04
 -1.44408E+04  4.71896E+03 -6.89880E+03 -4.53872E+03  2.23509E+03 -4.84426E+03  8.80994E+03 -1.76193E+03
  8.74703E+03  7.54328E+03  1.20269E+03  1.40080E+04 -1.07588E+04  1.30383E+04 -1.63685E+04  2.64214E+03
 -1.14190E+04 -9.07800E+03  2.36637E+02 -1.46635E+04  1.05526E+04 -8.28741E+03  1.07911E+04  3.59538E+03
  2.74369E+03  1.14167E+04 -9.01634E+03  1.35066E+04 -1.59524E+04  5.90886E+03 -1.56495E+04 -6.18313E+03
 -9.87623E+03 -1.80274E+04  4.08675E+03 -2.09921E+04  1.78510E+04 -1.25701E+04  1.89408E+04  3.57053E+03
  1.14683E+04  1.45095E+04 -1.52186E+03  1.68845E+04 -1.29336E+04  9.22042E+03 -1.46632E+04 -1.65263E+03
 -1.17167E+04 -1.17626E+04 -1.22078E+03 -1.44225E+04  8.04622E+03 -1.15424E+04  9.12064E+03 -5.02604E+03
  6.02162E+03  3.47030E+03 -8.95960E+02  1.63999E+03 -1.91760E+03 -3.19144E+03  3.50254E+03 -8.70166E+03
  1.30168E+04 -5.80287E+03  1.81850E+04  2.00487E+03  1.76451E+04  1.30899E+04  1.14091E+04  2.40059E+04
 -5.76889E+03  2.88331E+04 -2.29369E+04  2.01104E+04 -2.92827E+04  3.88849E+03 -2.41335E+04 -1.08245E+04
 -1.22470E+04 -1.86467E+04  3.54047E+02 -1.73944E+04  4.99652E+03 -9.59601E+03  6.13378E+03 -6.75423E+03
  4.23727E+03 -4.07344E+03  4.16313E+03 -4.20571E+03  7.15425E+03 -4.27482E+03  8.30698E+03 -1.85268E+03
  1.23576E+04  2.26716E+03  7.18620E+03  1.02401E+04 -2.76970E+03  1.32380E+04 -1.24018E+04  1.04921E+04
 -1.70615E+04 -1.90983E+03 -1.18047E+04 -1.24220E+04 -1.45096E+03 -1.87597E+04  9.54151E+03 -1.77004E+04
  2.00596E+04 -1.07899E+04  2.31872E+04  3.30780E+03  1.54911E+04  1.63377E+04  1.89234E+03  2.15696E+04
 -8.98684E+03  1.60711E+04 -1.23580E+04  6.15841E+03 -9.44572E+03 -2.02360E+03 -3.55326E+03 -3.13176E+03
 -1.19749E+03 -1.26394E+02 -3.49616E+03  3.31974E+03 -7.66759E+03  3.01526E+03 -1.13057E+04 -1.38585E+03
 -8.25305E+03 -1.22954E+04 -5.18441E+02 -1.75378E+04  1.08815E+04 -1.70532E+04  1.62625E+04 -4.24263E+03
  1.71794E+04  8.34998E+03  8.12105E+03  1.59470E+04 -4.52412E+03  1.80221E+04 -1.35899E+04  1.19171E+04
 -1.66621E+04 -5.34739E-01 -1.28218E+04 -1.04758E+04 -1.78168E+03 -1.46241E+04  7.48410E+03 -1.09057E+04
  1.18524E+04 -3.47101E+03  7.69002E+03  2.92665E+03  2.27191E+03  5.09974E+03  2.06478E+03  2.93048E+03
  2.74905E+03  1.15475E+03  4.20967E+03  2.87824E+03  4.60539E+03  4.75818E+03  4.81071E+03  9.74599E+03
 -4.07974E+03  1.38416E+04 -1.25289E+04  1.38625E+04 -1.90672E+04  3.60291E+03 -1.95743E+04 -8.35778E+03
 -9.64450E+03 -1.78013E+04  2.57839E+03 -2.07529E+04  1.13460E+04 -1.24885E+04  1.45646E+04 -2.61861E+03
  1.13895E+04  7.10220E+03  1.89952E+03  1.09540E+04 -5.13378E+03  6.22436E+03 -9.02531E+03 -1.68469E+03
 -4.15887E+03 -8.56634E+03  4.03411E+03 -9.71420E+03  7.40536E+03 -4.76500E+03  7.44837E+03  1.75742E+03
  4.53563E+03  3.80477E+03  1.89869E+03  2.81712E+03 -2.69381E+01  2.61232E+03  1.67926E+03 -7.53622E+02
  2.81207E+03 -1.16255E+03  8.68392E+03  3.07153E+03  4.84407E+03  1.01437E+04 -2.43467E+03  1.24680E+04
 -9.02975E+03  9.53211E+03 -1.16434E+04  2.94686E+03 -1.10556E+04 -3.84851E+03 -4.29854E+03 -7.48686E+03
  1.18512E+03 -7.42854E+03  4.39374E+03 -3.28939E+03  3.97803E+03  3.52908E+03 -1.06706E+03  6.98343E+03
 -8.84536E+03  3.46314E+03 -8.63361E+03 -4.63836E+03 -5.70610E+03 -9.76154E+03  1.47036E+03 -1.07268E+04
  7.08480E+03 -6.29713E+03  8.95916E+03 -1.00957E+03  5.81638E+03  3.12109E+03  1.70577E+03  5.50421E+03
 -2.99742E+03  2.11873E+03 -4.65280E+03 -3.56700E+03  2.08419E+03 -7.95081E+03  9.73067E+03 -6.87571E+03
  1.13858E+04  7.79224E+01  1.14181E+04  8.34357E+03  4.31742E+03  1.30241E+04 -3.91682E+03  1.21171E+04
 -1.01154E+04  4.80228E+03 -1.07895E+04 -1.58805E+03 -6.16433E+03 -8.11013E+03  1.57639E+03 -7.84920E+03
  7.47553E+03 -3.07146E+03  6.86343E+03  2.95897E+03  2.25449E+03  6.64400E+03 -1.81344E+03  5.68426E+03
 -3.35132E+03  4.01599E+03 -2.63396E+03  6.26931E+02 -1.94655E+03  1.32282E+03 -1.80153E+03  2.02655E+03
 -4.44035E+03  4.40732E+03 -8.77892E+03  4.07478E+03 -1.28406E+04  4.68497E+02 -1.47987E+04 -9.28123E+03
 -7.55442E+03 -1.71895E+04  2.86104E+03 -2.05904E+04  1.19048E+04 -1.57536E+04  1.91567E+04 -6.18770E+03
  1.75534E+04  3.81455E+03  1.08817E+04  1.23441E+04  2.63203E+02  1.36427E+04 -5.58072E+03  1.05647E+04
 -8.24094E+03  3.88742E+03 -4.68247E+03 -1.78489E+03 -2.07427E+03 -1.88915E+03 -7.41372E+02 -5.46784E+02
 -1.45636E+03  1.14986E+03 -2.54927E+03 -1.30567E+03 -6.92205E+02 -3.41150E+03  6.09069E+01 -4.96762E+03
  5.07611E+03 -4.88243E+03  8.50221E+03  4.87857E+02  1.05375E+04  6.58482E+03  2.82054E+03  1.38161E+04
 -7.48994E+03  1.56948E+04 -1.43530E+04  9.18680E+03 -1.69668E+04 -1.60593E+03 -1.38625E+04 -1.07063E+04
 -5.69499E+03 -1.47525E+04  3.20989E+03 -1.28093E+04  8.84274E+03 -6.53316E+03  9.74761E+03  1.34555E+02
  5.74455E+03  4.04435E+03 -1.28262E+02  3.57899E+03 -2.21867E+03 -4.85770E+02 -6.15112E+02 -3.38308E+03
  3.06945E+03 -2.14309E+03  5.63300E+03  1.21909E+03  4.21119E+03  5.86832E+03  6.15605E+02  8.25954E+03
 -6.90030E+03  6.61016E+03 -9.28259E+03  1.19660E+03 -8.45870E+03 -6.76975E+03 -1.24104E+03 -1.22248E+04
  6.35476E+03 -9.24476E+03  1.08837E+04 -3.84507E+03  1.02868E+04  2.69554E+03  6.13957E+03  8.78299E+03
  1.71038E+03  8.48830E+03 -3.62080E+03  8.29816E+03 -5.75034E+03  4.78681E+03 -5.10523E+03  1.38214E+03
 -2.32717E+03 -2.67790E+02 -2.96745E+03  1.19210E+03 -5.55633E+03  1.85630E+03 -7.65277E+03 -1.60907E+03
 -7.07395E+03 -5.14477E+03 -2.22328E+03 -9.58399E+03  3.74112E+03 -1.04987E+04  8.33544E+03 -3.83490E+03
  9.26344E+03  4.50570E+02  4.98204E+03  7.80039E+03 -7.54053E+02  1.02040E+04 -7.67274E+03  7.07075E+03
