 $NMID ID='MM_0lb_SNR400_20hz_g55_88.RAW', FMTDAT='(8E13.5)'
 TRAMP=1., VOLUME=1. $END
  3.09913E+05  4.34793E+02  3.37596E+05  2.50430E+05  8.46740E+04  3.37344E+05 -1.32117E+05  2.50282E+05
 -1.89811E+05  8.28683E+04 -1.11152E+05 -3.25362E+04  1.32321E+03 -5.06120E+04  5.39235E+04  2.84053E+02
  3.52349E+04  5.28217E+04 -1.64300E+04  7.51099E+04 -6.02623E+04  6.27447E+04 -8.30663E+04  3.11276E+04
 -8.00872E+04 -1.10633E+04 -5.69517E+04 -5.00861E+04 -1.45951E+04 -6.85951E+04  2.68664E+04 -4.49223E+04
  3.91537E+04  4.24245E+03  1.65818E+04  4.68314E+04 -3.33384E+04  4.64904E+04 -6.56855E+04 -2.55337E+02
 -5.23243E+04 -5.58786E+04 -6.66590E+03 -7.57028E+04  3.30349E+04 -5.34678E+04  4.65983E+04 -1.63808E+04
  4.17092E+04  1.12832E+04  3.04407E+04  2.46685E+04  1.64329E+04  2.88819E+04 -5.14505E+03  2.63386E+04
 -2.17794E+04  1.30760E+04 -1.89408E+04 -4.65373E+03  4.25247E+03 -7.53651E+03  2.13709E+04  1.07130E+04
  7.42466E+03  3.33126E+04 -3.06329E+04  3.37173E+04 -6.16412E+04  2.03416E+03 -5.56110E+04 -4.09298E+04
 -1.24497E+04 -6.08582E+04  3.79875E+04 -4.36013E+04  5.59594E+04 -2.09871E+03  3.24340E+04  3.01172E+04
 -6.55824E+03  3.34116E+04 -2.84714E+04  1.35601E+04 -2.76332E+04 -4.42090E+03 -1.43171E+04 -1.00502E+04
 -7.17760E+03 -1.19220E+04 -1.07658E+03 -1.72420E+04  6.50858E+03 -2.23087E+04  1.49759E+04 -1.39580E+04
  1.23013E+04  4.02454E+03 -6.51066E+03  1.32290E+04 -1.97750E+04 -2.46135E+03 -7.33678E+03 -3.03328E+04
  2.08435E+04 -4.09173E+04  4.48275E+04 -1.89288E+04  4.18912E+04  1.86496E+04  1.45569E+04  4.16771E+04
 -1.53326E+04  3.13856E+04 -2.36253E+04  8.44587E+02 -8.53383E+03 -2.68808E+04  2.09403E+04 -3.08625E+04
  3.80622E+04 -7.41521E+03  3.18867E+04  2.28023E+04  1.52444E+04  4.27497E+04 -7.65978E+03  4.49822E+04
 -2.83433E+04  3.01102E+04 -3.71911E+04  8.14637E+03 -3.79364E+04 -1.46985E+04 -2.14315E+04 -3.43201E+04
  7.19051E+03 -3.43125E+04  2.87547E+04 -1.25948E+04  2.70858E+04  1.10586E+04  2.70150E+03  1.80125E+04
 -1.34740E+04  7.29506E+03 -9.76052E+03 -8.45345E+03  5.98112E+03 -9.87198E+03  1.72985E+04  6.33078E+03
  1.23594E+04  2.16738E+04 -7.24384E+03  2.33210E+04 -2.20976E+04  8.54593E+03 -2.48254E+04 -6.73320E+03
 -1.64567E+04 -1.60474E+04 -5.09228E+03 -1.66259E+04  3.30432E+03 -1.43939E+04  1.29672E+04 -1.46154E+04
  2.12763E+04 -1.16631E+04  2.78642E+04  1.57938E+03  2.10735E+04  1.61475E+04  3.86676E+03  3.26049E+04
 -1.64569E+04  2.72200E+04 -2.53320E+04  8.81365E+03 -1.91238E+04 -1.02000E+04 -3.39960E+03 -1.46644E+04
  2.78760E+03 -4.15406E+03 -2.34972E+03  5.05480E+03 -1.30918E+04  5.19265E+03 -1.32507E+04 -4.92861E+03
 -8.37649E+03 -1.53517E+04  4.08952E+03 -1.91384E+04  1.25616E+04 -1.37749E+04  1.39536E+04 -1.55083E+03
  8.54189E+03  1.06459E+04 -8.54432E+02  1.57960E+04 -1.01360E+04  8.93579E+03 -1.49850E+04 -3.00032E+03
 -1.11242E+04 -1.34390E+04 -9.00171E+02 -1.87317E+04  8.68465E+03 -1.46080E+04  1.62244E+04 -7.22149E+03
  1.38598E+04  4.11051E+02  1.03737E+04  3.47492E+03  5.08489E+03  4.42458E+02  7.62032E+03 -1.15704E+03
  1.31143E+04  2.32106E+03  1.39605E+04  1.21077E+04  8.68623E+03  2.46281E+04 -2.89324E+03  2.55994E+04
 -1.47968E+04  1.96855E+04 -2.40374E+04  8.80940E+03 -2.41980E+04 -1.92271E+03 -2.13251E+04 -1.39334E+04
 -1.03889E+04 -1.96912E+04  6.62565E+03 -1.85372E+04  1.60556E+04 -1.08047E+04  1.50912E+04  3.39098E+03
  6.35174E+03  1.09570E+04 -6.80480E+03  9.76289E+03 -1.32701E+04  2.22087E+03 -1.01731E+04 -7.33353E+03
 -2.51554E+02 -1.23369E+04  6.22071E+03 -9.75799E+03  7.59707E+03 -8.78556E+02  1.05397E+03  5.06120E+03
 -5.16690E+03  1.16659E+03 -3.05348E+03 -4.62014E+03  5.40576E+02 -9.86500E+03  7.36249E+03 -9.42944E+03
  1.23721E+04 -4.77666E+03  1.12811E+04  2.71293E+03  9.34357E+03  9.43355E+03  4.80016E+03  1.33386E+04
 -1.44934E+03  1.54650E+04 -8.74495E+03  9.36043E+03 -1.05074E+04  2.77417E+03 -7.92600E+03 -2.21682E+03
 -4.41476E+03 -3.30205E+03 -8.57818E+02  2.30662E+03 -2.20038E+03  2.12389E+03 -3.19804E+03  3.63212E+03
 -7.98589E+03 -3.67352E+02 -8.33525E+03 -7.47905E+03 -3.12533E+03 -1.12113E+04  3.29772E+03 -8.28588E+03
  6.81082E+03 -4.12873E+03  5.15399E+03  2.30323E+03  9.74698E+02  2.39205E+03 -3.35486E+03 -2.86671E+02
 -3.79370E+03 -4.94917E+03 -6.09541E+02 -6.66059E+03  3.58319E+03 -7.33163E+03  9.39911E+03 -3.73159E+03
  1.11385E+04  2.63751E+02  8.25639E+03  5.57278E+03  1.49208E+03  8.23599E+03 -4.83774E+03  8.15498E+03
 -6.09220E+03  2.58400E+03 -3.60867E+03 -1.09590E+03  1.77556E+03 -1.90125E+03  4.27409E+03 -7.48114E+02
  4.21868E+03  2.90369E+03  1.24863E+03  6.10085E+03 -4.18846E+03  5.97580E+03 -7.39515E+03  2.08639E+03
 -4.33333E+03 -3.92034E+03 -2.63945E+02 -6.12149E+03  3.21695E+03 -2.77538E+03  2.99088E+03  1.02952E+03
  5.27779E+02  3.09108E+03 -3.66427E+03  4.05149E+03 -4.17977E+03  1.98524E+03 -3.73246E+03 -8.35205E+02
 -2.60348E+03 -5.58067E+03  8.32721E+02 -6.30292E+03  5.57803E+03 -3.96269E+03  6.19503E+03  1.32742E+03
  4.06372E+03  4.76827E+03  3.07074E+02  6.92087E+03 -4.58258E+03  4.25267E+03 -4.70040E+03  1.54730E+02
 -5.21328E+03 -4.39113E+03 -1.09044E+03 -4.78818E+03  1.96101E+03 -4.84097E+03  2.54662E+03 -2.99679E+03
  2.80984E+03  1.37740E+01  8.85655E+01  1.80902E+03  4.67756E+02  1.66428E+01 -3.42027E+01 -1.58018E+03
  3.00078E+03 -8.91763E+02  4.19810E+03  6.76124E+02  4.82506E+03  2.38861E+03  4.85775E+03  5.76639E+03
 -8.78286E+02  8.13206E+03 -6.98465E+03  5.91821E+03 -8.83634E+03  1.11732E+03 -6.43885E+03 -2.07267E+03
 -3.71684E+03 -6.56425E+03 -2.06734E+02 -4.70194E+03  2.07949E+03 -1.73447E+03  1.38837E+03 -1.76937E+03
  1.52282E+03 -1.23924E+03  2.30057E+03 -1.97169E+03  3.29963E+03 -1.71692E+03  3.78032E+03  4.52985E+02
  4.15823E+03  8.63279E+02  8.08313E+02  3.03359E+03 -1.91249E+03  2.61849E+03 -3.89647E+03  2.33634E+03
 -4.39287E+03 -8.92752E+02 -1.05726E+03 -2.88239E+03  2.67531E+02 -3.74084E+03  2.16374E+03 -4.12245E+03
  4.19989E+03 -3.24393E+03  5.79610E+03  1.31773E+02  3.84473E+03  3.51044E+03  1.17575E+03  5.32206E+03
 -2.01113E+03  5.43570E+03 -2.82396E+03  1.41978E+03 -1.59684E+03 -8.28212E+02 -8.31422E+01 -2.19975E+02
 -7.97272E+02  3.89111E+02 -1.27740E+03  1.90233E+03 -1.74183E+03  1.63419E+03 -3.79078E+03 -1.88554E+02
 -5.54860E+02 -3.69428E+03  1.11024E+03 -3.71370E+03  2.25070E+03 -3.22608E+03  2.76428E+03 -8.92573E+02
  3.35121E+03  2.47228E+03  1.40547E+03  2.50314E+03 -1.22185E+03  3.37482E+03 -2.53300E+03  2.57982E+03
 -2.67492E+03  1.18479E+03 -2.81890E+03 -2.10199E+03 -7.30960E+00 -2.36216E+03  1.10405E+03 -1.90465E+03
  2.56218E+03 -1.37096E+03  1.64578E+03  3.09425E+02  1.68504E+02  1.40136E+03  1.17017E+03  9.59631E+02
  2.10457E+03  3.07986E+02  8.88718E+02  1.07398E+03  1.14584E+03  1.55356E+03  1.69375E+03  1.09853E+03
 -1.39505E+03  2.28739E+03 -2.62918E+03  3.71974E+03 -2.13452E+03  3.01427E+02 -3.27176E+03  6.78321E+00
 -1.75520E+03 -2.87093E+03  2.16129E+02 -3.58595E+03  1.25370E+03 -2.07411E+03  2.92719E+03 -5.67475E+02
  2.35171E+03  1.53189E+03 -7.85277E+00  1.75929E+03 -5.13820E+02  9.31156E+02 -7.52354E+02 -7.98883E+01
 -3.71679E+02 -1.53843E+03  8.43455E+02 -1.31472E+03  1.16745E+03 -7.11628E+02  9.55802E+02  8.45994E+01
  7.54796E+02  1.37838E+02  5.85558E+02 -4.26163E+02  1.40062E+02  2.58861E+02  8.53734E+02  2.35684E+02
 -1.02693E+02  1.39456E+02  1.44612E+03  8.43844E+02  4.42536E+02  1.72180E+03 -5.04503E+02  1.82339E+03
 -1.07599E+03  4.88843E+02 -1.44741E+03 -1.37945E+02 -1.87092E+03 -6.45384E+02  6.56468E+02 -7.11925E+02
  1.95271E+02 -6.62075E+02  6.74507E+02 -1.03941E+03  9.26952E+01  5.81221E+02 -1.45451E+02  1.08645E+03
 -1.03402E+03  6.70854E+02 -8.73161E+02 -2.21096E+02 -4.70536E+02 -2.03438E+03  5.44073E+02 -9.81128E+02
  4.10438E+02  2.29093E+02  8.24975E+02 -7.25163E+01  1.34228E+03 -4.03474E+02  1.26749E+01  1.10881E+03
 -3.11306E+01  4.24140E+01 -5.99600E+02 -2.80575E+02  5.56418E+02 -4.56764E+02  1.23117E+03 -4.50318E+02
  8.66112E+02  1.96537E+02  2.79273E+03  5.48414E+02  1.20319E+03  1.16410E+03 -1.32419E+02  1.52485E+03
 -1.35383E+03 -1.19588E+02 -9.01922E+02 -1.24722E+02 -3.49188E+02 -1.02542E+03  3.05735E+02 -4.11805E+02
  1.11384E+03 -1.53696E+02  4.06943E+02  5.25381E+02  3.37799E+01  9.28079E+02  6.89883E+02  1.25540E+03
 -6.72432E+02  8.73748E+02 -2.72738E+01  1.90024E+02 -3.23660E+02  3.78233E+02 -7.28823E+02  1.27259E+03
 -3.01257E+02  7.41119E+02 -1.36942E+03  3.68346E+02 -1.92668E+02 -1.50887E+02 -2.03324E+03 -1.00454E+03
 -1.05742E+03 -1.44356E+03  3.69700E+02 -1.63284E+03  2.77571E+00 -2.35082E+03  2.18062E+03 -7.03256E+02
  1.35490E+03 -3.76177E+02  6.99040E+02  7.66992E+02 -4.71524E+02  1.02917E+03 -1.10856E+03  8.64260E+02
 -7.53773E+02  1.99904E+02  8.34323E+00 -2.93491E+02  8.70936E+01  4.06729E+02 -3.58779E+02  5.02762E+01
 -1.14709E+03  4.87862E+01 -3.74201E+02 -2.16839E+02 -1.97375E+02 -1.26029E+02 -3.72255E+02 -1.16247E+03
  1.14638E+03 -1.34046E+02  3.96496E+02  1.08421E+02  9.79424E+02  7.78691E+02 -3.66632E+02  6.45637E+02
 -5.99255E+02  1.55948E+03 -5.63078E+02  5.49662E+02 -1.11457E+03 -2.80054E+02 -2.26191E+02 -9.15138E+02
 -7.04887E+02 -5.46684E+02  4.54923E+02 -1.03090E+03  2.56919E+02  1.98294E+02 -7.10956E+01  6.88680E+02
  7.55415E+02  2.36405E+02 -6.31681E+02  2.71388E+02 -2.31567E+02  2.58722E+02 -3.67543E+02 -1.89292E+02
  3.74983E+02  5.34734E+02  3.24523E+02  1.62153E+02  1.46371E+02  1.08385E+02 -1.71700E+02  2.66732E+02
 -5.68992E+02  7.01585E+02 -5.97015E+02 -1.07703E+01 -1.55748E+02  3.52276E+02 -1.07185E+01 -2.91843E+02
 -1.48473E+02  3.26661E+02  1.96009E+02  6.22662E+01  8.78554E+02 -5.66925E+02 -3.23436E+01  6.43883E+02
  6.15086E+02  4.03574E+02 -2.67493E+02  2.17925E+02 -6.51280E+01  6.21141E+02 -3.19268E+02  6.99979E+01
 -1.19181E+02 -1.81558E+02 -6.84431E+02 -2.05254E+02 -5.02362E+02  4.57675E+02 -5.57090E+02 -3.86301E+00
 -6.18187E+02  3.38349E+02 -8.69053E+01 -4.71181E+02  9.63279E+02 -1.49825E+03  5.32790E+02 -3.44174E+02
  1.37590E+02  3.14815E+02 -7.41495E+02  5.51554E+02 -1.08665E+02  9.02053E+02  3.66534E+01  6.22239E+02
