 $NMID ID='MM_0lb_SNR400_11hz_g60_30.RAW', FMTDAT='(8E13.5)'
 TRAMP=1., VOLUME=1. $END
  3.09516E+05  1.45667E+02  3.37756E+05  2.51090E+05  8.47397E+04  3.38460E+05 -1.33127E+05  2.51766E+05
 -1.90809E+05  8.42126E+04 -1.12533E+05 -3.25586E+04  5.42285E+02 -4.98841E+04  5.38216E+04 -4.12036E+01
  3.62514E+04  5.29146E+04 -1.70355E+04  7.54767E+04 -6.09920E+04  6.50767E+04 -8.58757E+04  3.22826E+04
 -8.27595E+04 -1.19325E+04 -5.81607E+04 -5.22884E+04 -1.47842E+04 -7.07410E+04  2.78360E+04 -4.65569E+04
  4.04124E+04  3.35964E+03  1.70999E+04  4.89865E+04 -3.47445E+04  4.69461E+04 -6.79320E+04  9.53951E+02
 -5.50148E+04 -5.87059E+04 -7.10738E+03 -7.82406E+04  3.44684E+04 -5.70682E+04  4.96303E+04 -1.84254E+04
  4.51078E+04  1.21708E+04  3.23254E+04  2.67281E+04  1.57793E+04  3.07004E+04 -6.18593E+03  2.82292E+04
 -2.30528E+04  1.22287E+04 -1.81372E+04 -5.71556E+03  7.43752E+03 -7.09224E+03  2.31319E+04  1.44035E+04
  7.19434E+03  3.74334E+04 -3.30606E+04  3.73197E+04 -6.54600E+04  2.45031E+03 -5.86521E+04 -4.48558E+04
 -1.33516E+04 -6.60119E+04  4.14105E+04 -4.76618E+04  6.06759E+04 -2.57958E+03  3.58623E+04  3.39879E+04
 -5.39877E+03  3.93039E+04 -3.20432E+04  1.85673E+04 -3.24201E+04 -3.21713E+03 -1.93586E+04 -1.17605E+04
 -8.97954E+03 -1.56535E+04 -4.52312E+02 -1.91580E+04  8.64423E+03 -2.38682E+04  1.64665E+04 -1.27234E+04
  1.10828E+04  6.48876E+03 -1.03189E+04  1.30753E+04 -2.31808E+04 -6.49653E+03 -9.09437E+03 -3.76309E+04
  2.55161E+04 -4.73785E+04  5.16063E+04 -2.03395E+04  4.83423E+04  2.04305E+04  1.73910E+04  4.68284E+04
 -1.69764E+04  3.54936E+04 -2.74722E+04  2.25647E+03 -1.09516E+04 -2.99044E+04  2.10387E+04 -3.67172E+04
  4.38903E+04 -1.05119E+04  3.97898E+04  2.47149E+04  2.14014E+04  5.03713E+04 -7.96273E+03  5.54425E+04
 -3.51178E+04  3.76958E+04 -4.61667E+04  1.09266E+04 -4.62785E+04 -1.81965E+04 -2.59212E+04 -4.13192E+04
  7.92493E+03 -4.15430E+04  3.32518E+04 -1.69285E+04  3.18193E+04  1.10915E+04  4.78718E+03  2.08572E+04
 -1.38075E+04  9.88063E+03 -1.08056E+04 -7.17522E+03  5.59453E+03 -1.15915E+04  1.88209E+04  5.94944E+03
  1.51545E+04  2.28421E+04 -5.60894E+03  2.71557E+04 -2.35695E+04  1.38398E+04 -3.11810E+04 -2.81477E+03
 -2.50173E+04 -1.87744E+04 -1.16736E+04 -2.38362E+04  4.02222E+03 -2.42888E+04  1.87810E+04 -2.25923E+04
  3.17548E+04 -1.40026E+04  3.76599E+04  4.88406E+03  2.66883E+04  2.34673E+04  4.16969E+03  4.02696E+04
 -1.94340E+04  3.33365E+04 -3.05638E+04  1.14291E+04 -2.22787E+04 -9.81975E+03 -5.25750E+03 -1.31074E+04
  7.32539E+02 -1.37823E+03 -7.06494E+03  7.54434E+03 -2.01194E+04  4.53342E+03 -1.93549E+04 -9.04813E+03
 -1.11089E+04 -2.30137E+04  6.11063E+03 -2.76177E+04  1.82673E+04 -1.90450E+04  2.27811E+04 -1.82253E+03
  1.36653E+04  1.58532E+04 -1.42460E+03  2.29450E+04 -1.65083E+04  1.28640E+04 -2.27747E+04 -5.01583E+03
 -1.61164E+04 -2.01091E+04 -3.04774E+03 -2.71602E+04  1.23057E+04 -2.18509E+04  2.15739E+04 -1.13881E+04
  2.06757E+04 -6.54742E+02  1.57888E+04  5.30191E+03  8.27722E+03  1.42214E+03  1.15743E+04 -2.37728E+03
  2.13687E+04  3.78975E+03  2.41126E+04  1.81308E+04  1.65819E+04  3.61491E+04 -2.58720E+03  4.35099E+04
 -2.45618E+04  3.51241E+04 -3.97774E+04  1.80464E+04 -4.26058E+04 -4.22173E+03 -3.51313E+04 -2.52840E+04
 -1.36757E+04 -3.56176E+04  1.11654E+04 -3.07391E+04  2.68709E+04 -1.43698E+04  2.34117E+04  7.20672E+03
  7.89968E+03  1.72458E+04 -1.10462E+04  1.50556E+04 -1.90992E+04  2.66736E+03 -1.46810E+04 -1.25609E+04
 -5.67056E+02 -1.85304E+04  9.62068E+03 -1.44861E+04  1.29674E+04 -1.34210E+03  3.17280E+03  8.74561E+03
 -7.87735E+03  3.99253E+03 -8.42050E+03 -6.97749E+03 -1.94429E+03 -1.69406E+04  1.11380E+04 -1.88604E+04
  2.22270E+04 -1.02293E+04  2.50812E+04  3.10146E+03  2.14388E+04  1.69832E+04  1.02500E+04  2.73115E+04
 -4.80524E+03  2.89854E+04 -1.96905E+04  1.85209E+04 -2.03842E+04  4.14225E+03 -1.47570E+04 -5.93014E+03
 -6.08610E+03 -6.23015E+03 -1.06487E+03  9.55990E+02 -3.19249E+03  2.86234E+03 -7.04974E+03  5.20841E+03
 -1.32000E+04 -7.05855E+02 -1.32830E+04 -9.90138E+03 -4.63172E+03 -1.81624E+04  5.73195E+03 -1.47685E+04
  1.23723E+04 -6.43596E+03  8.06340E+03  4.13035E+03 -8.14790E+02  5.75547E+03 -7.38415E+03 -6.84568E+02
 -6.52013E+03 -9.05210E+03 -5.16449E+02 -1.44982E+04  8.09310E+03 -1.56604E+04  1.92780E+04 -8.00791E+03
  2.21651E+04  3.05199E+03  1.64017E+04  1.31064E+04  3.11537E+03  1.80455E+04 -9.32255E+03  1.45729E+04
 -1.17282E+04  3.70284E+03 -6.21703E+03 -3.91065E+03  2.95814E+03 -3.89780E+03  7.48641E+03 -1.09607E+03
  7.25233E+03  6.85954E+03  1.33240E+03  1.17991E+04 -8.60864E+03  1.09694E+04 -1.45120E+04  2.92980E+03
 -9.90642E+03 -8.28975E+03 -4.36329E+02 -1.18998E+04  7.63769E+03 -6.47860E+03  8.72162E+03  2.69809E+03
  1.69362E+03  9.33027E+03 -8.00075E+03  1.08901E+04 -1.19116E+04  4.37308E+03 -1.17978E+04 -4.57650E+03
 -7.74234E+03 -1.45773E+04  3.79796E+03 -1.57347E+04  1.38174E+04 -1.01417E+04  1.53951E+04  3.20311E+03
  8.92986E+03  1.12325E+04 -5.15641E+02  1.44975E+04 -1.02320E+04  8.03214E+03 -1.15803E+04 -1.77376E+03
 -1.01390E+04 -1.01698E+04 -1.30523E+03 -1.06897E+04  5.56450E+03 -8.76670E+03  7.13278E+03 -3.61230E+03
  4.38306E+03  1.27175E+03 -6.82430E+02  1.73015E+03  4.82380E+01 -3.34809E+03  2.48908E+03 -6.55970E+03
  9.85186E+03 -3.51122E+03  1.40765E+04  9.13682E+02  1.41103E+04  9.18686E+03  9.31812E+03  1.82195E+04
 -4.69136E+03  2.14316E+04 -1.82473E+04  1.54091E+04 -2.32873E+04  2.80049E+03 -1.86694E+04 -8.39519E+03
 -9.56986E+03 -1.58848E+04 -1.13218E+03 -1.28733E+04  3.69768E+03 -7.70616E+03  4.62359E+03 -5.18252E+03
  3.46235E+03 -2.64032E+03  4.16435E+03 -3.35900E+03  5.05600E+03 -2.46088E+03  7.60650E+03 -1.11232E+03
  9.38334E+03  1.85835E+03  4.81597E+03  8.88176E+03 -3.00599E+03  1.02874E+04 -9.87862E+03  7.93966E+03
 -1.27037E+04 -1.76550E+03 -8.08112E+03 -9.31511E+03 -1.38890E+03 -1.34795E+04  7.82582E+03 -1.40385E+04
  1.50293E+04 -7.60323E+03  1.67082E+04  1.92528E+03  1.16669E+04  1.27004E+04  1.43350E+03  1.54116E+04
 -6.03463E+03  1.29953E+04 -9.74782E+03  5.09370E+03 -6.15177E+03 -1.55227E+03 -2.36083E+03 -1.76724E+03
 -1.22469E+03 -5.22100E+02 -1.71002E+03  2.82805E+03 -5.39672E+03  2.44597E+03 -9.68435E+03 -5.44521E+02
 -6.29772E+03 -9.25645E+03  3.30062E+02 -1.30150E+04  8.24832E+03 -1.13120E+04  1.20474E+04 -3.98417E+03
  1.19131E+04  5.78663E+03  5.47232E+03  1.10393E+04 -2.36649E+03  1.25496E+04 -8.88260E+03  7.63955E+03
 -1.18875E+04  1.32841E+03 -9.20889E+03 -7.26296E+03 -9.70676E+02 -1.11250E+04  6.13766E+03 -7.57543E+03
  7.13838E+03 -2.03365E+03  5.29015E+03  2.07443E+03  1.50482E+03  4.01789E+03  1.31479E+03  2.13693E+03
  2.96894E+03  1.40503E+03  3.24901E+03  1.85635E+03  3.88840E+03  4.00062E+03  2.80548E+03  6.70963E+03
 -3.36075E+03  9.83588E+03 -8.48621E+03  1.01285E+04 -1.28277E+04  1.90534E+03 -1.29973E+04 -5.00390E+03
 -6.30439E+03 -1.22297E+04  1.50349E+03 -1.37467E+04  8.19744E+03 -8.53470E+03  1.03836E+04 -2.51985E+03
  7.19537E+03  4.76950E+03  1.32509E+03  7.50648E+03 -4.32176E+03  4.67773E+03 -4.88953E+03 -9.56505E+02
 -1.90732E+03 -5.60745E+03  3.37631E+03 -4.81816E+03  4.93871E+03 -2.81851E+03  5.19697E+03  1.66476E+03
  2.54122E+03  2.02882E+03  1.27896E+03  1.69348E+03 -1.41545E+03  1.59897E+03  1.83535E+03 -3.74385E+02
  2.30800E+03 -6.91202E+02  5.25959E+03  2.00839E+03  2.68592E+03  6.72823E+03 -1.11211E+03  9.54345E+03
 -5.56643E+03  5.79157E+03 -8.05644E+03  1.40858E+03 -6.62662E+03 -2.53959E+03 -3.12470E+03 -4.42557E+03
  1.74132E+02 -5.04396E+03  3.25553E+03 -2.69323E+03  2.80215E+03  2.40540E+03 -1.06006E+03  4.22783E+03
 -5.39820E+03  2.43306E+03 -5.79965E+03 -2.65335E+03 -3.33616E+03 -6.76153E+03  1.72216E+03 -6.93866E+03
  3.85253E+03 -3.84275E+03  4.92766E+03 -8.24536E+02  4.04151E+03  2.07662E+03  4.51435E+02  3.41032E+03
 -2.41827E+03  1.09694E+03 -3.47533E+03 -2.92091E+03  7.05415E+02 -4.59476E+03  6.31691E+03 -3.93910E+03
  7.97977E+03  8.39641E+02  7.03247E+03  5.05046E+03  2.92508E+03  7.42175E+03 -2.96726E+03  7.50316E+03
 -6.65490E+03  3.16301E+03 -7.11401E+03 -1.53221E+03 -3.64574E+03 -5.23928E+03  1.53379E+03 -4.34266E+03
  4.24620E+03 -2.71560E+03  3.67326E+03  1.63452E+03  7.83556E+02  3.52062E+03 -6.00050E+02  3.51311E+03
 -2.49754E+03  1.94469E+03 -1.52608E+03  3.28511E+02 -9.54137E+02  7.48656E+02 -1.47373E+03  1.36107E+03
 -1.80302E+03  3.00020E+03 -6.40087E+03  1.91811E+03 -7.83185E+03 -8.62523E+02 -8.62068E+03 -5.00036E+03
 -5.04397E+03 -9.92881E+03  2.64927E+03 -1.15471E+04  7.10488E+03 -8.72760E+03  1.12856E+04 -3.90857E+03
  1.04904E+04  1.91133E+03  6.00522E+03  7.36433E+03  4.74672E+02  6.49439E+03 -3.41413E+03  6.26423E+03
 -3.58951E+03  2.49769E+03 -3.06491E+03 -8.77721E+02 -4.62693E+02 -8.65827E+01 -4.01839E+02 -3.43543E+02
 -1.53055E+03 -3.41873E+01 -1.76495E+03  5.18420E+02 -7.78679E+01 -1.34150E+03  2.32958E+02 -2.69363E+03
  3.75361E+03 -2.45554E+03  5.02356E+03  1.73374E+02  5.81622E+03  3.99853E+03  1.37255E+03  7.79104E+03
 -3.83896E+03  8.59484E+03 -7.55510E+03  4.61747E+03 -1.00270E+04 -4.33907E+02 -6.70951E+03 -5.78759E+03
 -2.39106E+03 -7.84393E+03  2.52211E+03 -6.85530E+03  4.71687E+03 -4.59434E+03  5.08261E+03  1.10795E+02
  2.80665E+03  2.69317E+03 -8.28645E+02  1.89962E+03 -2.06311E+03 -3.60026E+02 -6.76339E+01 -1.28352E+03
  1.93347E+03 -5.25589E+02  2.79680E+03  9.05905E+02  1.68079E+03  2.56808E+03 -3.08641E+02  3.65580E+03
 -3.31997E+03  3.53564E+03 -4.96310E+03  6.11493E+02 -4.31590E+03 -3.97284E+03 -7.59570E+02 -6.54777E+03
  3.45292E+03 -5.84528E+03  6.22511E+03 -1.43428E+03  5.50793E+03  8.40841E+02  2.99581E+03  4.67593E+03
  2.85671E+02  4.57616E+03 -2.23990E+03  4.34201E+03 -2.99211E+03  2.27114E+03 -2.38320E+03 -9.33744E+00
 -1.36945E+03 -8.48450E+02 -1.78191E+03  3.37380E+02 -2.92818E+03  1.08631E+03 -3.97748E+03 -7.75677E+02
 -4.21788E+03 -2.58470E+03 -1.25675E+03 -4.49890E+03  1.64955E+03 -6.20627E+03  4.06676E+03 -2.46238E+03
  5.67709E+03  1.00662E+03  2.49703E+03  5.00614E+03 -5.38978E+02  4.73888E+03 -3.55003E+03  3.74366E+03
