 $NMID ID='MM_0lb_SNR400_9hz_g45_31.RAW', FMTDAT='(8E13.5)'
 TRAMP=1., VOLUME=1. $END
  3.09974E+05  3.80248E+02  3.38556E+05  2.50493E+05  8.51040E+04  3.38017E+05 -1.32206E+05  2.51728E+05
 -1.91098E+05  8.34465E+04 -1.12268E+05 -3.25223E+04  1.21238E+02 -5.09258E+04  5.38178E+04 -1.45659E+03
  3.50421E+04  5.28308E+04 -1.67294E+04  7.62999E+04 -6.04846E+04  6.45697E+04 -8.52615E+04  3.31058E+04
 -8.14396E+04 -1.14304E+04 -5.79579E+04 -5.24854E+04 -1.48930E+04 -7.05659E+04  2.88221E+04 -4.71416E+04
  4.07676E+04  3.85785E+03  1.66295E+04  4.94524E+04 -3.47333E+04  4.71132E+04 -6.81528E+04 -2.50694E+02
 -5.47207E+04 -5.76239E+04 -6.96266E+03 -7.81952E+04  3.54390E+04 -5.72476E+04  4.94225E+04 -1.83016E+04
  4.59624E+04  1.12924E+04  3.24419E+04  2.66007E+04  1.62455E+04  3.10048E+04 -5.78503E+03  2.80216E+04
 -2.23303E+04  1.22556E+04 -1.92235E+04 -5.58025E+03  6.40113E+03 -6.89062E+03  2.25352E+04  1.36222E+04
  7.53434E+03  3.67132E+04 -3.44468E+04  3.69662E+04 -6.52151E+04  2.48134E+03 -5.83758E+04 -4.39562E+04
 -1.18604E+04 -6.50206E+04  4.14433E+04 -4.71883E+04  6.09224E+04 -2.78852E+03  3.61439E+04  3.49459E+04
 -5.77923E+03  3.84833E+04 -3.21556E+04  1.85049E+04 -3.32895E+04 -4.82724E+03 -1.96787E+04 -1.13876E+04
 -8.75409E+03 -1.50256E+04  1.65420E+02 -1.97900E+04  8.26117E+03 -2.31053E+04  1.63398E+04 -1.29013E+04
  1.08313E+04  5.67126E+03 -1.05825E+04  1.32355E+04 -2.34112E+04 -6.10559E+03 -9.61178E+03 -3.59453E+04
  2.46177E+04 -4.59422E+04  5.19443E+04 -2.11705E+04  4.75510E+04  2.06117E+04  1.65843E+04  4.66998E+04
 -1.60388E+04  3.57291E+04 -2.80392E+04  1.85697E+03 -1.17032E+04 -2.95835E+04  2.19400E+04 -3.63522E+04
  4.35470E+04 -1.04108E+04  4.01830E+04  2.47297E+04  2.07710E+04  5.02979E+04 -8.13625E+03  5.54593E+04
 -3.48883E+04  3.75131E+04 -4.73177E+04  1.09505E+04 -4.80454E+04 -1.93816E+04 -2.58263E+04 -4.13204E+04
  8.39767E+03 -4.16905E+04  3.46249E+04 -1.63542E+04  3.21413E+04  1.14060E+04  4.87697E+03  2.09402E+04
 -1.31203E+04  9.90347E+03 -1.11868E+04 -6.72722E+03  5.97993E+03 -1.07986E+04  1.81353E+04  6.34004E+03
  1.45653E+04  2.25640E+04 -5.27485E+03  2.65099E+04 -2.33647E+04  1.39035E+04 -3.07705E+04 -3.11998E+03
 -2.48916E+04 -1.87109E+04 -1.12824E+04 -2.52241E+04  4.17199E+03 -2.51161E+04  2.00180E+04 -2.26045E+04
  3.19983E+04 -1.42799E+04  3.73399E+04  4.89196E+03  2.62280E+04  2.37986E+04  4.33859E+03  4.03632E+04
 -2.04194E+04  3.35520E+04 -3.05868E+04  1.17725E+04 -2.16073E+04 -1.08399E+04 -5.09991E+03 -1.36257E+04
  2.24408E+02 -9.16918E+02 -6.57581E+03  7.58275E+03 -1.98466E+04  4.93262E+03 -1.98089E+04 -9.65695E+03
 -1.21416E+04 -2.21902E+04  6.19750E+03 -2.74698E+04  1.91019E+04 -1.98078E+04  2.25827E+04 -1.21933E+03
  1.43388E+04  1.59359E+04 -1.50814E+03  2.32073E+04 -1.57816E+04  1.39751E+04 -2.36408E+04 -5.58433E+03
 -1.69926E+04 -2.02847E+04 -2.41004E+03 -2.73936E+04  1.23280E+04 -2.29464E+04  2.25859E+04 -1.22330E+04
  2.16268E+04 -5.08700E+02  1.53662E+04  5.15509E+03  7.69926E+03  1.30937E+03  1.20733E+04 -1.93821E+03
  2.19178E+04  1.83323E+03  2.52859E+04  1.74122E+04  1.73080E+04  3.63437E+04 -2.63869E+03  4.33269E+04
 -2.44020E+04  3.63140E+04 -4.11320E+04  1.89710E+04 -4.39763E+04 -4.23274E+03 -3.56509E+04 -2.68059E+04
 -1.48058E+04 -3.67987E+04  1.27266E+04 -3.21892E+04  2.75396E+04 -1.47202E+04  2.34252E+04  7.58564E+03
  7.64099E+03  1.80429E+04 -1.09733E+04  1.44918E+04 -2.01529E+04  2.81450E+03 -1.46736E+04 -1.24918E+04
  1.52675E+02 -1.92341E+04  1.05270E+04 -1.37573E+04  1.31167E+04 -8.58469E+02  3.36967E+03  9.22427E+03
 -7.99882E+03  3.92346E+03 -8.63920E+03 -6.53852E+03 -2.25359E+03 -1.77124E+04  1.14872E+04 -2.02403E+04
  2.29441E+04 -1.08858E+04  2.52604E+04  2.87144E+03  2.15730E+04  1.85962E+04  1.02117E+04  2.85780E+04
 -4.76674E+03  3.01581E+04 -1.90713E+04  1.92755E+04 -2.20460E+04  3.89132E+03 -1.55836E+04 -5.87799E+03
 -5.80025E+03 -7.83690E+03 -3.57604E+02  3.82455E+02 -3.45384E+03  3.18483E+03 -7.85163E+03  5.76338E+03
 -1.33162E+04 -3.79753E+02 -1.47339E+04 -1.12567E+04 -5.59381E+03 -1.93556E+04  6.90343E+03 -1.51130E+04
  1.29253E+04 -5.75421E+03  8.96750E+03  3.18712E+03 -4.71077E+02  6.88561E+03 -7.63742E+03 -2.46598E+02
 -7.29418E+03 -9.47266E+03 -7.31132E+02 -1.48449E+04  8.76785E+03 -1.59255E+04  1.98866E+04 -9.47442E+03
  2.29050E+04  2.83013E+03  1.73918E+04  1.31326E+04  3.00476E+03  1.83931E+04 -9.82261E+03  1.45419E+04
 -1.24127E+04  4.34045E+03 -6.80763E+03 -3.81431E+03  2.19629E+03 -4.59440E+03  7.93996E+03 -1.54970E+02
  7.65293E+03  6.90808E+03  6.56533E+02  1.36857E+04 -8.83603E+03  1.16707E+04 -1.47992E+04  2.64827E+03
 -9.75915E+03 -8.23245E+03 -1.59507E+02 -1.38156E+04  8.85889E+03 -6.03659E+03  9.17357E+03  3.31363E+03
  2.22812E+03  1.00711E+04 -7.95323E+03  1.16710E+04 -1.33314E+04  4.19898E+03 -1.27205E+04 -5.06711E+03
 -7.88516E+03 -1.54430E+04  4.07911E+03 -1.89922E+04  1.52922E+04 -1.09814E+04  1.66696E+04  2.60317E+03
  9.71652E+03  1.23498E+04 -1.47707E+03  1.56153E+04 -1.20329E+04  8.87979E+03 -1.30692E+04 -1.24081E+03
 -1.01648E+04 -1.01070E+04 -2.61464E+03 -1.12733E+04  6.84371E+03 -9.51879E+03  7.95442E+03 -4.67065E+03
  4.69811E+03  1.96177E+03 -3.42425E+02  1.81271E+03 -1.19636E+03 -3.58789E+03  2.12621E+03 -7.24705E+03
  1.11145E+04 -5.29315E+03  1.67131E+04  1.02609E+03  1.47666E+04  1.10734E+04  9.61696E+03  2.09782E+04
 -4.65103E+03  2.36667E+04 -1.84916E+04  1.62030E+04 -2.53076E+04  3.79517E+03 -1.95805E+04 -8.45490E+03
 -1.03323E+04 -1.68138E+04 -2.77152E+02 -1.41325E+04  5.39483E+03 -8.61278E+03  4.91901E+03 -5.13285E+03
  4.66586E+03 -3.28084E+03  3.26311E+03 -3.96853E+03  5.79674E+03 -3.29885E+03  7.59479E+03 -1.47690E+03
  1.07530E+04  2.53256E+03  5.37477E+03  9.60587E+03 -1.93970E+03  1.13437E+04 -1.07693E+04  7.96434E+03
 -1.48687E+04 -1.21725E+03 -9.40800E+03 -9.61350E+03 -1.40636E+03 -1.59067E+04  9.41037E+03 -1.56885E+04
  1.54311E+04 -9.37491E+03  1.78603E+04  2.56980E+03  1.32827E+04  1.32457E+04  1.81662E+03  1.67386E+04
 -7.22435E+03  1.39359E+04 -1.07265E+04  3.92451E+03 -6.57003E+03 -1.43829E+03 -2.72916E+03 -2.28164E+03
 -2.32719E+03  2.83660E+02 -1.65073E+03  2.39765E+03 -5.87330E+03  2.07479E+03 -1.02489E+04 -1.29158E+03
 -7.61873E+03 -9.69010E+03  5.77019E+02 -1.45154E+04  9.12671E+03 -1.25781E+04  1.47439E+04 -3.29361E+03
  1.38538E+04  6.40470E+03  6.72930E+03  1.31877E+04 -2.74842E+03  1.43489E+04 -9.63725E+03  8.82438E+03
 -1.33816E+04  3.46797E+02 -1.08769E+04 -8.68488E+03 -5.22128E+02 -1.18019E+04  6.42116E+03 -9.27834E+03
  8.58866E+03 -2.63269E+03  5.67128E+03  2.94017E+03  2.18160E+03  4.01218E+03  1.14528E+03  1.15029E+03
  3.02717E+03  9.37392E+02  3.96695E+03  1.57326E+03  4.23667E+03  4.70316E+03  2.94104E+03  7.91221E+03
 -3.34665E+03  1.10988E+04 -9.53858E+03  1.19338E+04 -1.44802E+04  2.82488E+03 -1.56421E+04 -5.88401E+03
 -7.73255E+03 -1.44950E+04  2.39641E+03 -1.62635E+04  8.37825E+03 -9.71370E+03  1.15344E+04 -3.15298E+03
  9.39781E+03  5.86678E+03  2.76703E+03  8.32605E+03 -4.16322E+03  6.77838E+03 -5.70246E+03 -1.45380E+03
 -3.29736E+03 -5.92533E+03  3.60192E+03 -6.83789E+03  6.37976E+03 -2.76028E+03  5.35093E+03  1.67564E+03
  3.66937E+03  3.22534E+03  1.71975E+03  2.10310E+03  1.07188E+02  2.15084E+03  1.77536E+03 -4.34559E+02
  2.86740E+03 -4.43424E+02  5.18890E+03  2.27987E+03  3.49592E+03  7.58129E+03 -1.16223E+03  9.97193E+03
 -6.98745E+03  7.19243E+03 -9.41934E+03  9.13140E+02 -8.30279E+03 -2.70259E+03 -3.03922E+03 -5.44461E+03
  1.11078E+03 -5.36175E+03  4.11517E+03 -2.61097E+03  2.93942E+03  2.42651E+03 -1.81877E+03  5.29149E+03
 -6.34533E+03  2.41142E+03 -6.09712E+03 -3.66796E+03 -4.25205E+03 -8.67289E+03  1.30339E+03 -8.68247E+03
  4.98780E+03 -4.23251E+03  6.37735E+03  1.65187E+02  4.80742E+03  2.61467E+03  7.51359E+02  4.08192E+03
 -2.84342E+03  1.09637E+03 -4.02380E+03 -2.01141E+03  1.93573E+03 -6.46041E+03  6.22875E+03 -5.05323E+03
  9.52948E+03  3.91035E+02  9.36741E+03  6.64134E+03  2.77998E+03  1.01432E+04 -3.79625E+03  9.46595E+03
 -8.31410E+03  2.84267E+03 -8.03925E+03 -1.91068E+03 -4.49790E+03 -6.46957E+03  8.17734E+02 -5.60767E+03
  6.77914E+03 -2.38463E+03  4.93266E+03  1.88986E+03  1.39112E+03  6.19559E+03 -7.20900E+02  5.19988E+03
 -3.16413E+03  2.39504E+03 -2.96310E+03  5.09207E+02 -5.91645E+02  6.44135E+02 -1.22974E+03  1.66722E+03
 -2.45975E+03  3.37854E+03 -6.79375E+03  3.50261E+03 -9.74472E+03  2.85215E+02 -1.12945E+04 -6.30285E+03
 -5.65958E+03 -1.26450E+04  2.07206E+03 -1.46392E+04  9.26320E+03 -1.24521E+04  1.48092E+04 -3.86604E+03
  1.36011E+04  2.74013E+03  8.25327E+03  9.40408E+03  2.41523E+02  9.94152E+03 -4.24401E+03  8.14360E+03
 -5.79746E+03  2.23726E+03 -4.51070E+03 -1.64863E+03 -7.16592E+02 -1.62178E+03 -9.23925E+02  2.19005E+01
 -1.97603E+02  1.12042E+02 -2.19836E+03 -2.27008E+02 -8.26802E+02 -2.48237E+03  4.28174E+02 -4.27925E+03
  4.42602E+03 -3.33196E+03  6.22496E+03 -4.69583E+02  6.87143E+03  5.87618E+03  2.01251E+03  1.02973E+04
 -4.87069E+03  1.14615E+04 -1.03890E+04  6.78144E+03 -1.24371E+04 -7.37796E+02 -9.85366E+03 -7.07675E+03
 -3.91674E+03 -1.07789E+04  2.91939E+03 -9.59298E+03  6.64224E+03 -5.49149E+03  6.49615E+03  6.82001E+02
  3.40223E+03  3.24414E+03 -4.12511E+02  2.67004E+03 -1.47406E+03 -5.69441E+02  2.30837E+02 -2.15514E+03
  3.40580E+03 -9.33353E+02  4.28668E+03  1.16017E+03  2.83803E+03  3.86150E+03 -1.20540E+02  6.06348E+03
 -4.13172E+03  4.93045E+03 -6.75339E+03  6.64120E+02 -6.15437E+03 -4.29948E+03 -9.97101E+02 -8.03587E+03
  4.85756E+03 -7.86202E+03  7.62091E+03 -1.92572E+03  7.88230E+03  1.38126E+03  4.85084E+03  7.21538E+03
  2.63310E+02  7.18661E+03 -3.11932E+03  5.81747E+03 -3.74989E+03  3.01528E+03 -3.30478E+03  8.58240E+02
 -1.34185E+03  1.11525E+02 -2.29524E+03  6.51601E+02 -4.11306E+03  1.12514E+03 -5.80130E+03 -2.79296E+03
 -5.09849E+03 -3.63874E+03 -1.20728E+03 -6.58367E+03  3.39408E+03 -7.59380E+03  5.83314E+03 -3.86054E+03
  7.15531E+03  8.56624E+02  4.07978E+03  4.74019E+03 -8.99839E+02  7.18815E+03 -3.89850E+03  4.08842E+03
