 $NMID ID='MM_0lb_SNR400_10hz_g45_60.RAW', FMTDAT='(8E13.5)'
 TRAMP=1., VOLUME=1. $END
  3.10301E+05  1.83829E+02  3.38333E+05  2.51013E+05  8.49404E+04  3.37905E+05 -1.32759E+05  2.51905E+05
 -1.90373E+05  8.39314E+04 -1.11645E+05 -3.25363E+04  4.93880E+02 -5.11905E+04  5.37947E+04  4.21296E+01
  3.52175E+04  5.24081E+04 -1.71327E+04  7.54720E+04 -6.11454E+04  6.37027E+04 -8.50104E+04  3.19783E+04
 -8.20826E+04 -1.15763E+04 -5.78950E+04 -5.16587E+04 -1.50000E+04 -7.09880E+04  2.78275E+04 -4.63786E+04
  4.03083E+04  3.79490E+03  1.57718E+04  4.82296E+04 -3.49877E+04  4.80336E+04 -6.71793E+04  5.05371E+02
 -5.48157E+04 -5.74547E+04 -7.66491E+03 -7.83023E+04  3.41822E+04 -5.60225E+04  4.92129E+04 -1.81095E+04
  4.48047E+04  1.16359E+04  3.26905E+04  2.59724E+04  1.62522E+04  2.98802E+04 -6.13945E+03  2.76228E+04
 -2.19250E+04  1.16825E+04 -1.73232E+04 -5.90141E+03  6.47189E+03 -7.58821E+03  2.32871E+04  1.26036E+04
  7.63854E+03  3.64598E+04 -3.33218E+04  3.60271E+04 -6.44930E+04  2.02632E+03 -5.85978E+04 -4.47859E+04
 -1.23427E+04 -6.45755E+04  4.11171E+04 -4.70728E+04  6.06389E+04 -2.54831E+03  3.62019E+04  3.35577E+04
 -5.44840E+03  3.90188E+04 -3.12260E+04  1.81105E+04 -3.17220E+04 -3.90523E+03 -1.86619E+04 -1.21842E+04
 -9.28741E+03 -1.47115E+04 -2.89600E+01 -1.97001E+04  8.19759E+03 -2.28906E+04  1.61410E+04 -1.28311E+04
  1.05234E+04  5.82138E+03 -1.01942E+04  1.27705E+04 -2.22467E+04 -5.35626E+03 -8.51147E+03 -3.65417E+04
  2.40364E+04 -4.52273E+04  5.04635E+04 -2.08129E+04  4.72081E+04  1.98854E+04  1.68017E+04  4.61424E+04
 -1.67678E+04  3.53630E+04 -2.70112E+04  3.26593E+03 -1.07886E+04 -2.88744E+04  2.10989E+04 -3.57018E+04
  4.35606E+04 -1.11257E+04  3.93912E+04  2.46489E+04  2.02887E+04  4.95711E+04 -7.80981E+03  5.41898E+04
 -3.40119E+04  3.73478E+04 -4.58530E+04  1.05641E+04 -4.54738E+04 -1.77218E+04 -2.55310E+04 -4.07147E+04
  7.79004E+03 -4.04121E+04  3.35107E+04 -1.59302E+04  3.12377E+04  1.12204E+04  5.05153E+03  1.98545E+04
 -1.35905E+04  9.62746E+03 -1.10605E+04 -7.98743E+03  6.29117E+03 -1.08142E+04  1.87172E+04  6.10664E+03
  1.44648E+04  2.25460E+04 -5.05222E+03  2.64189E+04 -2.34296E+04  1.34685E+04 -3.02271E+04 -4.55118E+03
 -2.35638E+04 -1.79824E+04 -1.05022E+04 -2.40834E+04  4.25602E+03 -2.36946E+04  1.86892E+04 -2.18901E+04
  3.04043E+04 -1.41264E+04  3.68770E+04  3.58222E+03  2.63057E+04  2.36500E+04  4.28026E+03  3.93759E+04
 -1.85851E+04  3.25880E+04 -2.92935E+04  1.14635E+04 -2.17795E+04 -1.01895E+04 -4.88766E+03 -1.31880E+04
  1.64952E+03 -6.10462E+02 -6.96063E+03  7.59337E+03 -1.96193E+04  4.71044E+03 -1.87312E+04 -9.12723E+03
 -1.20554E+04 -2.21486E+04  5.89014E+03 -2.64853E+04  1.80888E+04 -1.88414E+04  2.14524E+04 -1.85347E+03
  1.42943E+04  1.52400E+04 -1.52803E+03  2.19813E+04 -1.56510E+04  1.27020E+04 -2.24558E+04 -4.40028E+03
 -1.64302E+04 -2.06588E+04 -2.22113E+03 -2.66947E+04  1.23347E+04 -2.10874E+04  2.20915E+04 -1.08577E+04
  2.05704E+04  4.03022E+02  1.49595E+04  4.35919E+03  8.04846E+03  1.47373E+03  1.11784E+04 -8.77924E+02
  2.13022E+04  2.37718E+03  2.34027E+04  1.79970E+04  1.56532E+04  3.48854E+04 -2.38181E+03  4.09171E+04
 -2.37090E+04  3.40682E+04 -3.86070E+04  1.76848E+04 -4.13589E+04 -2.65502E+03 -3.31481E+04 -2.37686E+04
 -1.32427E+04 -3.44863E+04  1.18014E+04 -3.00832E+04  2.60231E+04 -1.41887E+04  2.28879E+04  7.17461E+03
  8.03678E+03  1.71335E+04 -1.03900E+04  1.45621E+04 -1.83490E+04  2.38765E+03 -1.39051E+04 -1.15830E+04
 -2.00588E+01 -1.81834E+04  9.58475E+03 -1.24904E+04  1.19923E+04 -1.59256E+03  3.15023E+03  9.08867E+03
 -8.29333E+03  3.58539E+03 -7.57320E+03 -6.43537E+03 -1.15533E+03 -1.63998E+04  1.11956E+04 -1.84207E+04
  2.08423E+04 -1.01273E+04  2.38962E+04  3.23776E+03  2.00890E+04  1.60800E+04  9.59324E+03  2.59754E+04
 -4.83237E+03  2.77950E+04 -1.80520E+04  1.74399E+04 -2.05502E+04  3.57968E+03 -1.41367E+04 -5.22512E+03
 -6.19383E+03 -6.71515E+03  1.08131E+02  6.40988E+02 -2.73145E+03  3.16527E+03 -7.11310E+03  4.39615E+03
 -1.28479E+04 -7.84778E+02 -1.40672E+04 -1.15832E+04 -5.83612E+03 -1.75368E+04  6.14605E+03 -1.45366E+04
  1.12079E+04 -5.93282E+03  8.54148E+03  3.77144E+03  2.64185E+02  5.78565E+03 -7.58465E+03 -2.47216E+02
 -6.09699E+03 -9.64859E+03 -1.35854E+03 -1.40954E+04  8.64983E+03 -1.52859E+04  1.79042E+04 -8.12170E+03
  2.09429E+04  1.06812E+03  1.53124E+04  1.28802E+04  3.07008E+03  1.71062E+04 -9.14526E+03  1.43381E+04
 -1.19518E+04  3.54597E+03 -6.06703E+03 -3.43729E+03  2.56281E+03 -4.38004E+03  8.09074E+03 -1.45216E+03
  5.88325E+03  6.78004E+03  1.42730E+03  1.11162E+04 -7.69221E+03  1.10472E+04 -1.40819E+04  2.37635E+03
 -1.01040E+04 -6.75933E+03  1.11363E+02 -1.22071E+04  7.78628E+03 -6.05944E+03  7.58031E+03  2.92033E+03
  1.62243E+03  8.95695E+03 -7.01032E+03  1.02997E+04 -1.15353E+04  3.85483E+03 -1.27203E+04 -4.92343E+03
 -7.39380E+03 -1.45028E+04  3.00513E+03 -1.56396E+04  1.32382E+04 -9.18594E+03  1.47397E+04  2.72284E+03
  8.76602E+03  1.19918E+04 -4.31353E+02  1.38424E+04 -1.04923E+04  7.98456E+03 -1.13488E+04 -1.64912E+03
 -9.99283E+03 -8.58710E+03 -1.03776E+03 -1.06387E+04  5.35532E+03 -8.51151E+03  7.65728E+03 -4.16883E+03
  4.52704E+03  1.87250E+03 -7.54633E+02  1.59067E+03 -3.00895E+02 -3.53443E+03  1.87878E+03 -6.69582E+03
  9.93989E+03 -3.66449E+03  1.37058E+04  9.84208E+02  1.46727E+04  9.88379E+03  9.52941E+03  1.83910E+04
 -4.36061E+03  2.15214E+04 -1.73338E+04  1.54123E+04 -2.23717E+04  2.78349E+03 -1.84478E+04 -8.21017E+03
 -9.11631E+03 -1.48867E+04 -5.84438E+02 -1.34014E+04  4.55810E+03 -6.32303E+03  4.52694E+03 -4.57697E+03
  2.95604E+03 -2.73960E+03  3.63181E+03 -4.30262E+03  5.34842E+03 -3.41008E+03  7.14422E+03 -8.75918E+02
  9.49163E+03  2.25268E+03  5.03735E+03  8.47691E+03 -2.68138E+03  1.04989E+04 -1.01592E+04  7.71555E+03
 -1.33751E+04 -1.16734E+03 -7.77885E+03 -9.58069E+03 -4.72054E+02 -1.40396E+04  7.53188E+03 -1.33189E+04
  1.41544E+04 -7.66372E+03  1.65045E+04  2.33918E+03  1.18760E+04  1.14454E+04  1.77632E+03  1.55353E+04
 -7.21489E+03  1.22359E+04 -9.49956E+03  3.80463E+03 -5.72189E+03 -1.76646E+03 -3.21838E+03 -1.87233E+03
 -1.04306E+03 -4.51186E+02 -1.33720E+03  2.82518E+03 -4.91904E+03  2.58651E+03 -8.23058E+03 -8.51459E+02
 -6.65150E+03 -8.45689E+03  5.51838E+02 -1.23020E+04  8.13543E+03 -1.21384E+04  1.25922E+04 -4.59325E+03
  1.23169E+04  7.17907E+03  5.32614E+03  1.09196E+04 -2.07283E+03  1.31847E+04 -9.65855E+03  8.73783E+03
 -1.19915E+04  1.23174E+03 -9.45963E+03 -7.49795E+03 -1.02084E+03 -1.03595E+04  5.46379E+03 -7.72876E+03
  8.14747E+03 -2.79116E+03  5.56577E+03  2.01430E+03  1.76871E+03  3.83346E+03  1.24949E+03  2.11270E+03
  2.67782E+03  2.10019E+03  3.23341E+03  1.98454E+03  3.31431E+03  4.06791E+03  3.41392E+03  6.79776E+03
 -2.93820E+03  1.04731E+04 -9.22035E+03  1.00957E+04 -1.29264E+04  2.86702E+03 -1.36069E+04 -5.35243E+03
 -6.09142E+03 -1.23209E+04  2.01485E+03 -1.44547E+04  7.54600E+03 -9.28787E+03  1.11688E+04 -2.52269E+03
  7.92297E+03  4.79479E+03  1.74278E+03  7.62725E+03 -3.64494E+03  4.34866E+03 -5.06484E+03 -1.06583E+03
 -2.45319E+03 -4.91362E+03  2.41280E+03 -6.12490E+03  4.91501E+03 -3.04476E+03  5.25381E+03  1.35701E+03
  3.16363E+03  2.39139E+03  1.32226E+03  1.60494E+03 -6.48273E+02  2.57472E+03  2.02319E+03  1.59320E+02
  2.26654E+03 -1.25472E+03  5.47244E+03  1.84460E+03  3.53025E+03  7.70913E+03 -1.60296E+03  9.20875E+03
 -5.59706E+03  6.35814E+03 -7.85936E+03  1.36779E+03 -7.12274E+03 -2.93128E+03 -3.05778E+03 -5.08885E+03
  1.61679E+03 -5.33979E+03  3.51233E+03 -2.45952E+03  2.33460E+03  2.50906E+03 -1.20304E+03  4.36804E+03
 -5.40010E+03  2.63442E+03 -6.12622E+03 -2.74972E+03 -2.96365E+03 -6.87003E+03  9.93643E+02 -7.44621E+03
  4.01322E+03 -3.63182E+03  4.58084E+03 -2.68623E+02  3.54617E+03  2.34421E+03  1.03665E+03  3.71387E+03
 -2.30116E+03  1.26311E+03 -3.15362E+03 -1.78682E+03  1.52338E+03 -5.23509E+03  6.20811E+03 -4.07984E+03
  8.53852E+03  5.69936E+02  8.16455E+03  5.54216E+03  2.86165E+03  9.00590E+03 -2.48761E+03  7.58371E+03
 -7.18584E+03  3.04725E+03 -7.45667E+03 -1.60553E+03 -3.58865E+03 -4.54212E+03  1.80435E+03 -5.33019E+03
  5.21694E+03 -2.17581E+03  3.60989E+03  2.76442E+03  1.64073E+03  4.30755E+03 -1.12312E+03  4.58031E+03
 -2.33707E+03  2.36904E+03 -2.08767E+03  5.43396E+02 -3.84869E+02  7.97588E+02 -2.53220E+03  1.60762E+03
 -1.88366E+03  3.12755E+03 -5.36269E+03  3.19948E+03 -8.13133E+03  7.53308E+02 -9.00058E+03 -4.93623E+03
 -5.26864E+03 -9.87643E+03  2.11933E+03 -1.21059E+04  7.79066E+03 -1.07065E+04  1.15831E+04 -3.21178E+03
  1.21409E+04  1.98708E+03  6.55769E+03  7.59887E+03  5.38697E+02  8.97349E+03 -3.34417E+03  6.41144E+03
 -4.88392E+03  2.20454E+03 -2.70035E+03 -4.31892E+02 -5.12655E+02 -9.20240E+02 -3.92598E+02 -1.10976E+02
 -2.17859E+03 -7.39413E+01 -1.53190E+03  2.13667E+02 -1.08920E+03 -2.35582E+03  9.12844E+01 -2.97153E+03
  3.47791E+03 -2.28457E+03  5.56455E+03 -1.70770E+02  6.38936E+03  4.67032E+03  9.88336E+02  8.84397E+03
 -4.38249E+03  1.02150E+04 -9.16950E+03  5.34361E+03 -1.00924E+04 -1.04200E+03 -7.86564E+03 -6.53788E+03
 -3.68468E+03 -8.47019E+03  2.50794E+03 -7.89191E+03  4.22626E+03 -4.08159E+03  5.57757E+03  6.40338E+02
  3.09160E+03  3.12293E+03 -9.73822E+02  2.48980E+03 -1.70333E+03  6.97624E+02  7.43465E+02 -2.58633E+03
  3.19309E+03 -1.18492E+03  3.19510E+03  1.65452E+03  2.03923E+03  2.96369E+03 -1.26169E+02  4.32044E+03
 -4.24361E+03  3.56557E+03 -5.70299E+03  1.64311E+03 -5.32729E+03 -3.80110E+03 -6.13189E+02 -6.35652E+03
  4.22577E+03 -5.69886E+03  6.62922E+03 -1.86021E+03  6.18293E+03  1.08790E+03  4.24407E+03  5.08993E+03
  8.37221E+02  5.36322E+03 -1.68761E+03  4.85322E+03 -3.59424E+03  2.84783E+03 -3.12702E+03 -2.43169E+02
 -9.30561E+02  7.25262E+01 -1.49498E+03  1.12148E+03 -2.80305E+03  1.23603E+03 -4.97420E+03 -7.31616E+02
 -4.21645E+03 -3.08819E+03 -7.13466E+02 -5.65725E+03  2.58690E+03 -5.70369E+03  5.28385E+03 -2.08827E+03
  5.66668E+03  1.18321E+03  2.41650E+03  3.95489E+03 -2.80574E+02  5.92043E+03 -4.52100E+03  3.18088E+03
