 $NMID ID='MM_0lb_SNR400_10hz_g40_5.RAW', FMTDAT='(8E13.5)'
 TRAMP=1., VOLUME=1. $END
  3.10092E+05  3.63922E+02  3.38049E+05  2.50372E+05  8.45271E+04  3.38200E+05 -1.32449E+05  2.52020E+05
 -1.90692E+05  8.37059E+04 -1.12082E+05 -3.21962E+04  6.81038E+01 -5.03186E+04  5.41302E+04 -3.13828E+02
  3.54166E+04  5.30082E+04 -1.67345E+04  7.59282E+04 -6.14032E+04  6.40554E+04 -8.52518E+04  3.23864E+04
 -8.17527E+04 -1.10277E+04 -5.83907E+04 -5.17124E+04 -1.52661E+04 -7.04639E+04  2.76767E+04 -4.63566E+04
  4.02323E+04  4.00555E+03  1.61403E+04  4.80013E+04 -3.39916E+04  4.73725E+04 -6.73837E+04  2.08952E+02
 -5.38245E+04 -5.75365E+04 -6.38588E+03 -7.84312E+04  3.49744E+04 -5.56159E+04  4.89340E+04 -1.76558E+04
  4.43325E+04  1.10000E+04  3.27596E+04  2.53013E+04  1.64416E+04  2.94504E+04 -5.08300E+03  2.82477E+04
 -2.24391E+04  1.22068E+04 -1.87228E+04 -5.13593E+03  6.83787E+03 -7.02461E+03  2.24095E+04  1.34931E+04
  6.56654E+03  3.61703E+04 -3.28337E+04  3.62479E+04 -6.44054E+04  1.50000E+03 -5.78094E+04 -4.33855E+04
 -1.22244E+04 -6.48765E+04  4.07235E+04 -4.64398E+04  5.99999E+04 -2.51970E+03  3.53479E+04  3.37699E+04
 -5.20394E+03  3.81083E+04 -3.11236E+04  1.71523E+04 -3.18939E+04 -3.88100E+03 -1.83003E+04 -1.16575E+04
 -9.44450E+03 -1.44055E+04 -5.36116E+02 -1.87834E+04  7.71326E+03 -2.29322E+04  1.59278E+04 -1.31055E+04
  1.09560E+04  6.00042E+03 -9.01253E+03  1.30120E+04 -2.20777E+04 -6.38651E+03 -7.76697E+03 -3.57901E+04
  2.42233E+04 -4.52698E+04  5.00565E+04 -2.06130E+04  4.72832E+04  2.01317E+04  1.63210E+04  4.49307E+04
 -1.66224E+04  3.54613E+04 -2.68454E+04  2.16731E+03 -1.03105E+04 -2.85248E+04  2.15492E+04 -3.60065E+04
  4.23473E+04 -1.07542E+04  3.87630E+04  2.43767E+04  1.99640E+04  4.89998E+04 -7.93912E+03  5.30998E+04
 -3.42862E+04  3.60081E+04 -4.49695E+04  9.99565E+03 -4.58855E+04 -1.72794E+04 -2.53282E+04 -4.03373E+04
  7.68961E+03 -3.99113E+04  3.25915E+04 -1.57225E+04  3.17820E+04  1.08173E+04  4.38791E+03  2.00122E+04
 -1.36527E+04  8.68580E+03 -1.12242E+04 -7.55758E+03  5.79653E+03 -1.09700E+04  1.82369E+04  5.77025E+03
  1.50965E+04  2.22163E+04 -5.38274E+03  2.61560E+04 -2.28400E+04  1.38273E+04 -3.03531E+04 -2.81465E+03
 -2.31466E+04 -1.80143E+04 -1.01793E+04 -2.33126E+04  4.55547E+03 -2.35686E+04  1.74351E+04 -2.11468E+04
  2.95035E+04 -1.33844E+04  3.54409E+04  4.44645E+03  2.55907E+04  2.28189E+04  3.66107E+03  3.97008E+04
 -1.91713E+04  3.24748E+04 -2.93435E+04  1.09156E+04 -2.19565E+04 -9.81554E+03 -4.27742E+03 -1.25916E+04
  1.36476E+03 -2.38521E+03 -7.32868E+03  7.11336E+03 -1.90154E+04  4.93629E+03 -1.88521E+04 -8.73672E+03
 -1.10139E+04 -2.15825E+04  5.70336E+03 -2.60884E+04  1.75534E+04 -1.81955E+04  2.16641E+04 -1.39834E+03
  1.25394E+04  1.43418E+04 -1.03041E+03  2.16940E+04 -1.50157E+04  1.25957E+04 -2.14829E+04 -4.60023E+03
 -1.63240E+04 -1.98154E+04 -2.86594E+03 -2.57214E+04  1.19274E+04 -2.20755E+04  2.21377E+04 -1.11672E+04
  2.07810E+04 -1.29793E+02  1.49407E+04  4.38204E+03  7.39844E+03  8.87371E+02  1.04504E+04 -2.58497E+03
  2.00325E+04  2.53658E+03  2.28393E+04  1.71664E+04  1.58869E+04  3.41449E+04 -2.84288E+03  3.99641E+04
 -2.27465E+04  3.30233E+04 -3.80182E+04  1.77421E+04 -4.01674E+04 -3.20930E+03 -3.30872E+04 -2.39614E+04
 -1.36434E+04 -3.34755E+04  1.14661E+04 -2.97811E+04  2.53629E+04 -1.40533E+04  2.23534E+04  7.00699E+03
  7.83464E+03  1.74526E+04 -1.00561E+04  1.43970E+04 -1.88507E+04  2.43685E+03 -1.42036E+04 -1.14539E+04
 -2.46493E+02 -1.80960E+04  8.90689E+03 -1.39005E+04  1.21895E+04 -1.40182E+03  2.71400E+03  7.41068E+03
 -8.01140E+03  4.29492E+03 -7.85313E+03 -5.79130E+03 -1.31896E+03 -1.63741E+04  1.09559E+04 -1.74633E+04
  2.09285E+04 -9.93739E+03  2.31801E+04  3.31677E+03  2.02350E+04  1.65959E+04  9.25626E+03  2.60537E+04
 -4.84491E+03  2.75245E+04 -1.84052E+04  1.69733E+04 -2.00662E+04  3.93603E+03 -1.40527E+04 -4.84709E+03
 -5.96276E+03 -6.98815E+03 -1.07868E+03  1.02887E+03 -2.44075E+03  3.89613E+03 -6.26145E+03  5.09368E+03
 -1.21984E+04 -5.69440E+02 -1.37228E+04 -1.04372E+04 -5.42623E+03 -1.75177E+04  6.04031E+03 -1.32153E+04
  1.16773E+04 -5.67993E+03  7.98930E+03  3.51110E+03 -8.19517E+02  5.61502E+03 -7.58947E+03  5.57351E+02
 -6.31670E+03 -9.41284E+03 -1.64660E+03 -1.40247E+04  8.44203E+03 -1.47099E+04  1.84566E+04 -8.03831E+03
  2.09165E+04  2.45559E+03  1.56299E+04  1.19152E+04  2.94362E+03  1.74572E+04 -8.00885E+03  1.39823E+04
 -1.13112E+04  4.48365E+03 -5.76890E+03 -2.86200E+03  1.46319E+03 -3.86577E+03  7.59839E+03 -1.47416E+03
  6.65935E+03  6.74905E+03  1.16006E+03  1.05414E+04 -7.92555E+03  1.07616E+04 -1.39398E+04  2.15881E+03
 -9.60580E+03 -7.20430E+03  3.64735E+02 -1.26911E+04  7.78195E+03 -6.33000E+03  7.83465E+03  2.88108E+03
  2.10913E+03  8.73321E+03 -7.19950E+03  1.03618E+04 -1.18872E+04  4.18082E+03 -1.16112E+04 -4.10925E+03
 -6.85583E+03 -1.36378E+04  3.06470E+03 -1.56603E+04  1.32800E+04 -9.54891E+03  1.45044E+04  2.16531E+03
  8.68184E+03  1.11655E+04 -8.09975E+02  1.41750E+04 -9.97333E+03  7.14918E+03 -1.14416E+04 -9.52445E+02
 -9.48721E+03 -8.92865E+03 -1.22097E+03 -1.02993E+04  5.48384E+03 -8.98962E+03  6.17767E+03 -3.21684E+03
  5.41210E+03  2.01763E+03 -2.63088E+02  1.75123E+03 -9.71271E+02 -2.07524E+03  2.20940E+03 -6.39704E+03
  9.84181E+03 -4.11304E+03  1.31963E+04  1.38545E+03  1.36404E+04  9.40702E+03  8.75416E+03  1.80116E+04
 -3.64550E+03  2.03193E+04 -1.76622E+04  1.49670E+04 -2.25130E+04  2.54763E+03 -1.80645E+04 -7.70918E+03
 -8.70647E+03 -1.44802E+04 -4.22397E+02 -1.33320E+04  4.32389E+03 -7.36114E+03  4.63733E+03 -5.51275E+03
  3.32879E+03 -3.12431E+03  3.69760E+03 -3.86918E+03  5.57845E+03 -2.57241E+03  6.41028E+03 -1.20700E+03
  9.41113E+03  1.99065E+03  5.33146E+03  7.60040E+03 -2.20135E+03  1.01948E+04 -1.02793E+04  6.65680E+03
 -1.26950E+04 -1.38629E+03 -7.80038E+03 -9.04134E+03 -1.01206E+03 -1.35882E+04  7.78396E+03 -1.26729E+04
  1.37817E+04 -7.28467E+03  1.66228E+04  1.81046E+03  1.16799E+04  1.18823E+04  2.00760E+03  1.57439E+04
 -6.37556E+03  1.13749E+04 -9.02479E+03  4.11523E+03 -5.68850E+03 -1.82431E+03 -2.16704E+03 -1.64440E+03
 -1.38844E+03  3.73567E+02 -2.01449E+03  2.51235E+03 -5.48245E+03  2.43139E+03 -8.76515E+03 -8.58609E+02
 -6.00661E+03 -9.00949E+03  7.84185E+01 -1.31900E+04  7.86240E+03 -1.12045E+04  1.27864E+04 -3.20371E+03
  1.17642E+04  6.07878E+03  5.32318E+03  1.13839E+04 -2.09332E+03  1.23701E+04 -8.33928E+03  7.45486E+03
 -1.20654E+04  1.10719E+03 -8.87933E+03 -7.11602E+03 -1.67069E+03 -1.03611E+04  4.76977E+03 -8.12047E+03
  8.05080E+03 -2.87145E+03  5.29666E+03  1.90146E+03  1.78049E+03  3.10856E+03  1.47778E+03  1.90699E+03
  2.13479E+03  1.25807E+03  2.87880E+03  1.78557E+03  3.49192E+03  4.61294E+03  2.70496E+03  6.12993E+03
 -2.97788E+03  9.97651E+03 -8.26050E+03  9.48155E+03 -1.25700E+04  2.62603E+03 -1.33788E+04 -4.95157E+03
 -6.71831E+03 -1.22764E+04  2.24828E+03 -1.38678E+04  7.13972E+03 -8.66058E+03  9.45324E+03 -2.61481E+03
  7.95107E+03  4.87191E+03  1.44866E+03  7.70500E+03 -3.89646E+03  4.63373E+03 -4.56222E+03 -1.20421E+03
 -2.56220E+03 -5.56464E+03  3.51654E+03 -4.71717E+03  5.25831E+03 -2.94663E+03  5.35138E+03  5.51486E+02
  2.65796E+03  2.92017E+03  1.25555E+03  2.18877E+03 -7.24945E+02  2.68860E+03  1.43475E+03 -3.51990E+01
  2.02139E+03 -1.14469E+03  5.14028E+03  1.46810E+03  2.63342E+03  6.51178E+03 -1.55251E+03  8.75754E+03
 -5.69697E+03  5.62216E+03 -8.30606E+03  1.85748E+03 -6.59115E+03 -3.01267E+03 -2.08881E+03 -5.20267E+03
  6.41656E+02 -4.52921E+03  3.04241E+03 -2.11409E+03  2.58703E+03  2.88290E+03 -1.70235E+03  4.53380E+03
 -4.92092E+03  2.86116E+03 -5.71289E+03 -3.46470E+03 -3.21343E+03 -7.31266E+03  1.28689E+03 -6.58570E+03
  4.08830E+03 -4.01196E+03  4.57110E+03 -5.55352E+02  4.05168E+03  1.31911E+03  4.75379E+02  4.19143E+03
 -2.10871E+03  1.05712E+03 -3.30619E+03 -1.52085E+03  1.46451E+03 -5.17035E+03  6.07412E+03 -3.99054E+03
  7.54572E+03  3.21185E+02  7.53062E+03  4.98624E+03  2.55012E+03  7.70918E+03 -3.38865E+03  7.38909E+03
 -6.52143E+03  3.34527E+03 -6.84890E+03 -4.78677E+02 -3.55737E+03 -4.59089E+03  1.66837E+03 -4.78563E+03
  5.18049E+03 -2.65876E+03  3.83647E+03  1.95797E+03  1.77969E+03  4.41577E+03 -5.43006E+02  3.82129E+03
 -2.01894E+03  2.20336E+03 -1.85410E+03  1.13532E+03 -1.00682E+03  3.84079E+02 -1.09757E+03  1.77926E+03
 -2.72322E+03  3.14661E+03 -4.74096E+03  3.12522E+03 -7.95773E+03  3.42230E+02 -9.43119E+03 -5.16847E+03
 -4.39499E+03 -1.04190E+04  2.21625E+03 -1.20905E+04  7.16595E+03 -9.97591E+03  1.12934E+04 -3.26418E+03
  1.11448E+04  1.61646E+03  7.34485E+03  7.59727E+03  2.92603E+02  8.11391E+03 -3.88749E+03  6.55113E+03
 -4.59299E+03  2.93443E+03 -2.64289E+03 -1.17527E+03 -1.45855E+03 -2.76770E+02 -6.54474E+02  2.21892E+02
 -1.94083E+03  3.22233E+02 -1.83985E+03 -6.33174E+02 -1.93846E+03 -2.26716E+03  1.38355E+02 -3.18517E+03
  3.20544E+03 -2.67891E+03  4.76820E+03 -2.60236E+02  5.70149E+03  4.86123E+03  8.16974E+02  8.13915E+03
 -3.59462E+03  9.48180E+03 -8.50421E+03  5.18251E+03 -9.49552E+03 -1.65547E+02 -7.53872E+03 -6.50575E+03
 -3.06864E+03 -7.97836E+03  1.32864E+03 -7.63884E+03  4.35164E+03 -3.86948E+03  5.27355E+03  1.17337E+02
  3.35297E+03  3.18783E+03  2.14247E+01  2.35312E+03 -1.68199E+03 -9.31479E+02 -5.15806E+02 -1.46981E+03
  2.70713E+03 -6.30339E+02  2.97141E+03  1.04556E+03  1.52190E+03  3.09130E+03  1.91979E+02  3.74083E+03
 -3.66068E+03  4.19208E+03 -4.94245E+03  9.72761E+02 -5.22357E+03 -3.68431E+03 -5.81036E+02 -6.89662E+03
  4.31339E+03 -5.95117E+03  6.22977E+03 -2.51831E+03  6.61258E+03  2.06438E+03  3.08272E+03  4.88016E+03
  5.34206E+02  5.44943E+03 -1.76232E+03  4.44599E+03 -3.27742E+03  3.45977E+03 -3.30897E+03  2.79065E+02
 -9.17373E+02 -3.97239E+02 -1.29487E+03  5.86898E+02 -2.97523E+03  5.82076E+02 -4.12696E+03 -9.32091E+02
 -3.80123E+03 -3.33898E+03 -6.83116E+02 -5.71524E+03  1.70775E+03 -5.47754E+03  4.78356E+03 -3.22716E+03
  5.66535E+03  9.11731E+02  2.58330E+03  4.06333E+03 -3.67133E+02  5.98908E+03 -4.05363E+03  4.56994E+03
