 $NMID ID='MM_0lb_SNR400_8hz_g60_39.RAW', FMTDAT='(8E13.5)'
 TRAMP=1., VOLUME=1. $END
  3.10432E+05  1.87851E+02  3.37599E+05  2.51269E+05  8.60986E+04  3.38128E+05 -1.32684E+05  2.52496E+05
 -1.90321E+05  8.38394E+04 -1.13458E+05 -3.27628E+04 -7.59523E+01 -5.06345E+04  5.35229E+04 -1.20820E+03
  3.51988E+04  5.30980E+04 -1.63523E+04  7.63265E+04 -6.13591E+04  6.43878E+04 -8.55811E+04  3.23677E+04
 -8.24970E+04 -1.23024E+04 -5.88750E+04 -5.33630E+04 -1.55391E+04 -7.15095E+04  2.92272E+04 -4.70751E+04
  4.15977E+04  3.71285E+03  1.72744E+04  4.85551E+04 -3.54987E+04  4.90628E+04 -6.79208E+04  4.83838E+02
 -5.60278E+04 -5.72911E+04 -7.95460E+03 -7.99013E+04  3.54591E+04 -5.74908E+04  4.98653E+04 -1.83361E+04
  4.58269E+04  1.19977E+04  3.28645E+04  2.71522E+04  1.48823E+04  3.12074E+04 -5.89809E+03  2.76796E+04
 -2.23646E+04  1.19755E+04 -1.67966E+04 -6.62080E+03  7.86631E+03 -6.76478E+03  2.34510E+04  1.52933E+04
  6.16139E+03  3.85289E+04 -3.43090E+04  3.80842E+04 -6.66931E+04  2.38287E+03 -5.93220E+04 -4.51823E+04
 -1.26533E+04 -6.69632E+04  4.29323E+04 -4.80293E+04  6.15722E+04 -3.50680E+03  3.73375E+04  3.50712E+04
 -6.14997E+03  4.12072E+04 -3.15569E+04  2.03217E+04 -3.50515E+04 -3.38280E+03 -2.00775E+04 -1.21673E+04
 -1.02437E+04 -1.53595E+04  4.22291E+01 -1.93836E+04  8.61172E+03 -2.41229E+04  1.62567E+04 -1.19645E+04
  9.89092E+03  6.13243E+03 -1.14685E+04  1.19869E+04 -2.54179E+04 -7.86515E+03 -9.12431E+03 -3.77657E+04
  2.57137E+04 -4.79836E+04  5.30838E+04 -2.10564E+04  5.05516E+04  2.13893E+04  1.79455E+04  4.80493E+04
 -1.72152E+04  3.75968E+04 -2.81451E+04  2.26399E+03 -1.24900E+04 -2.99319E+04  2.15481E+04 -3.82544E+04
  4.60075E+04 -1.16301E+04  4.22044E+04  2.56108E+04  2.25162E+04  5.28998E+04 -8.23996E+03  5.86116E+04
 -3.71140E+04  4.02623E+04 -4.98529E+04  1.11393E+04 -4.95644E+04 -1.83507E+04 -2.68899E+04 -4.37251E+04
  8.37106E+03 -4.35010E+04  3.52261E+04 -1.77275E+04  3.36812E+04  1.08432E+04  6.00547E+03  2.12070E+04
 -1.32953E+04  1.02499E+04 -1.09630E+04 -7.29722E+03  6.10093E+03 -1.17265E+04  1.93128E+04  5.10542E+03
  1.60080E+04  2.23002E+04 -5.20336E+03  2.77655E+04 -2.34303E+04  1.47668E+04 -3.30745E+04 -2.17032E+03
 -2.69782E+04 -1.83510E+04 -1.26087E+04 -2.71184E+04  3.97230E+03 -2.81970E+04  2.15711E+04 -2.40469E+04
  3.48663E+04 -1.49751E+04  4.14232E+04  6.69857E+03  2.84660E+04  2.65447E+04  4.47355E+03  4.34095E+04
 -2.02313E+04  3.54870E+04 -3.25150E+04  1.26681E+04 -2.27439E+04 -1.06115E+04 -4.58842E+03 -1.23372E+04
 -3.20433E+02 -3.13686E+02 -8.51162E+03  8.61208E+03 -2.20333E+04  6.00735E+03 -2.14572E+04 -1.05067E+04
 -1.25197E+04 -2.46714E+04  6.63446E+03 -2.94700E+04  2.03895E+04 -2.15684E+04  2.49836E+04 -1.30788E+03
  1.49103E+04  1.70264E+04 -1.22444E+03  2.52222E+04 -1.76968E+04  1.48521E+04 -2.57522E+04 -6.27639E+03
 -1.81151E+04 -2.20290E+04 -2.07769E+03 -2.99039E+04  1.37779E+04 -2.45699E+04  2.41897E+04 -1.28420E+04
  2.37289E+04 -2.65292E+01  1.72384E+04  6.21824E+03  8.95283E+03  3.40351E+02  1.29628E+04 -2.28419E+03
  2.44698E+04  2.82393E+03  2.87812E+04  1.97231E+04  1.97481E+04  4.03221E+04 -1.96453E+03  4.85633E+04
 -2.80065E+04  3.99236E+04 -4.63872E+04  2.05607E+04 -4.93244E+04 -3.99519E+03 -3.97252E+04 -2.84755E+04
 -1.57335E+04 -4.19639E+04  1.37913E+04 -3.63325E+04  2.98047E+04 -1.56117E+04  2.63053E+04  9.11170E+03
  9.02432E+03  2.03108E+04 -1.30154E+04  1.68855E+04 -2.19947E+04  2.77919E+03 -1.72106E+04 -1.27788E+04
 -3.78481E+02 -2.12543E+04  1.17914E+04 -1.56867E+04  1.46536E+04 -1.70967E+03  3.59994E+03  9.72255E+03
 -9.96857E+03  5.49951E+03 -1.02049E+04 -6.66225E+03 -2.48630E+03 -2.08736E+04  1.24627E+04 -2.21123E+04
  2.52201E+04 -1.18738E+04  3.03578E+04  3.08039E+03  2.63226E+04  2.12312E+04  1.31286E+04  3.21870E+04
 -5.83411E+03  3.61861E+04 -2.33496E+04  2.15203E+04 -2.68156E+04  4.01132E+03 -1.80191E+04 -7.20256E+03
 -6.71056E+03 -7.70925E+03 -1.86180E+02 -1.83620E+02 -3.46680E+03  3.84485E+03 -8.69406E+03  5.64553E+03
 -1.54931E+04 -1.47321E+03 -1.54657E+04 -1.34410E+04 -6.36806E+03 -2.05739E+04  6.50522E+03 -1.82415E+04
  1.47977E+04 -7.86273E+03  9.70903E+03  4.72888E+03 -7.15357E+02  6.93631E+03 -8.37764E+03 -7.25675E+01
 -9.77989E+03 -1.12403E+04 -9.05454E+02 -1.78160E+04  1.03470E+04 -1.80629E+04  2.28528E+04 -9.58156E+03
  2.69190E+04  3.49996E+03  1.94107E+04  1.69639E+04  4.03180E+03  2.23382E+04 -1.05733E+04  1.65735E+04
 -1.37577E+04  4.34300E+03 -7.31741E+03 -3.68948E+03  2.73465E+03 -5.45230E+03  9.54559E+03 -1.10817E+03
  8.86386E+03  7.51084E+03  9.71195E+02  1.46354E+04 -1.11118E+04  1.38123E+04 -1.70732E+04  2.57879E+03
 -1.26884E+04 -9.63516E+03 -4.29419E+02 -1.46921E+04  1.06512E+04 -7.77205E+03  1.11711E+04  4.57337E+03
  2.20792E+03  1.23093E+04 -8.64459E+03  1.34915E+04 -1.60371E+04  5.68935E+03 -1.70059E+04 -5.91297E+03
 -8.75538E+03 -1.91739E+04  4.91216E+03 -2.11844E+04  1.74743E+04 -1.17317E+04  1.92268E+04  3.09396E+03
  1.08910E+04  1.57011E+04 -1.89657E+03  1.80431E+04 -1.35488E+04  9.73464E+03 -1.48982E+04 -2.42837E+03
 -1.20170E+04 -1.15036E+04 -2.26713E+03 -1.37721E+04  6.76789E+03 -1.14466E+04  9.94661E+03 -3.76908E+03
  5.46276E+03  1.68522E+03 -1.31657E+03  2.72357E+03 -2.10076E+03 -4.52965E+03  3.26460E+03 -8.86383E+03
  1.38516E+04 -6.14130E+03  1.92139E+04  1.57119E+03  1.83652E+04  1.38930E+04  1.16304E+04  2.45390E+04
 -7.13726E+03  2.88152E+04 -2.35403E+04  2.02391E+04 -2.93492E+04  3.87435E+03 -2.37994E+04 -1.12084E+04
 -1.15988E+04 -1.97628E+04 -1.12048E+03 -1.58629E+04  5.36821E+03 -1.03915E+04  6.01571E+03 -6.99814E+03
  4.18772E+03 -4.02531E+03  4.20940E+03 -4.70363E+03  6.28022E+03 -4.55499E+03  8.97665E+03 -1.60700E+03
  1.28876E+04  2.54824E+03  7.96131E+03  1.16323E+04 -2.33154E+03  1.34444E+04 -1.42752E+04  1.01186E+04
 -1.86725E+04 -2.11398E+03 -1.21656E+04 -1.31402E+04 -1.98149E+03 -2.00513E+04  1.09776E+04 -1.86785E+04
  1.95625E+04 -1.03820E+04  2.28166E+04  3.47264E+03  1.63665E+04  1.65221E+04  2.55688E+03  2.06025E+04
 -9.45042E+03  1.65506E+04 -1.25972E+04  5.68496E+03 -8.52032E+03 -2.43141E+03 -4.22864E+03 -2.11468E+03
 -1.26152E+03 -2.82722E+02 -3.02353E+03  4.24239E+03 -6.81717E+03  2.73216E+03 -1.10472E+04 -2.35057E+03
 -8.98817E+03 -1.16863E+04  9.63179E+01 -1.77200E+04  1.10253E+04 -1.65486E+04  1.82460E+04 -5.89276E+03
  1.74381E+04  8.91977E+03  7.99356E+03  1.73233E+04 -3.34990E+03  1.75344E+04 -1.38030E+04  1.19127E+04
 -1.64672E+04  6.45024E+02 -1.27484E+04 -1.15142E+04 -1.75131E+03 -1.58282E+04  7.29349E+03 -1.08482E+04
  1.13811E+04 -3.96747E+03  7.23535E+03  2.79232E+03  3.15929E+03  5.52455E+03  1.12796E+03  2.71263E+03
  2.23408E+03  1.08325E+03  4.25935E+03  1.39497E+03  5.31712E+03  5.66550E+03  4.89238E+03  1.00894E+04
 -3.53980E+03  1.35983E+04 -1.29110E+04  1.50943E+04 -1.92450E+04  3.19560E+03 -1.91792E+04 -8.66466E+03
 -9.70929E+03 -1.82255E+04  3.21682E+03 -2.06398E+04  1.11808E+04 -1.25648E+04  1.50376E+04 -2.98388E+03
  1.25209E+04  5.70548E+03  3.36280E+03  1.07784E+04 -5.05552E+03  6.14064E+03 -7.81053E+03 -1.70705E+03
 -2.69335E+03 -7.41537E+03  4.52026E+03 -7.97353E+03  7.50795E+03 -3.37017E+03  8.55191E+03  2.50650E+03
  4.54646E+03  3.25135E+03  1.15646E+03  3.35624E+03 -1.42350E+03  2.11816E+03  1.87929E+03 -3.17730E+02
  2.97978E+03 -9.82673E+02  7.72771E+03  3.00636E+03  3.59060E+03  1.03747E+04 -2.65747E+02  1.33537E+04
 -8.46811E+03  8.43124E+03 -1.25757E+04  2.51202E+03 -1.06222E+04 -4.17377E+03 -3.46326E+03 -7.20016E+03
  1.00601E+03 -7.15231E+03  4.88033E+03 -3.23424E+03  4.01468E+03  2.90155E+03 -2.34065E+03  5.69509E+03
 -8.21212E+03  3.75940E+03 -9.63815E+03 -3.64959E+03 -4.99177E+03 -1.01069E+04  1.24664E+03 -1.03756E+04
  7.06882E+03 -6.39103E+03  7.21420E+03 -1.22981E+03  5.62284E+03  3.29138E+03 -9.70028E+00  4.99174E+03
 -3.83227E+03  1.78679E+03 -3.56501E+03 -3.69614E+03  1.95043E+03 -7.72801E+03  9.26526E+03 -7.09412E+03
  1.20488E+04  1.74337E+03  1.21509E+04  7.45054E+03  4.64360E+03  1.29970E+04 -5.70222E+03  1.18657E+04
 -1.11323E+04  5.67668E+03 -1.08589E+04 -1.85993E+03 -5.72878E+03 -7.82239E+03  2.92412E+03 -7.46511E+03
  8.03059E+03 -4.34095E+03  6.27555E+03  3.54331E+03  1.47655E+03  7.27780E+03 -1.40102E+03  6.04010E+03
 -2.90388E+03  3.51276E+03 -3.17727E+03  1.24352E+03 -1.83373E+03  1.56734E+03 -1.84359E+03  2.41377E+03
 -2.85351E+03  4.80919E+03 -8.39643E+03  4.50529E+03 -1.31271E+04  1.27197E+03 -1.36826E+04 -8.57730E+03
 -6.81693E+03 -1.71156E+04  3.15654E+03 -2.07639E+04  1.23391E+04 -1.50968E+04  1.85613E+04 -5.61533E+03
  1.68598E+04  3.81034E+03  1.06100E+04  1.23437E+04  2.00603E+03  1.37057E+04 -5.49191E+03  1.03033E+04
 -7.57798E+03  3.15615E+03 -5.03603E+03 -1.90956E+03 -1.46823E+03 -1.07835E+03  7.57177E+02  5.68702E+02
 -1.78999E+03  1.16640E+03 -3.51010E+03 -4.69987E+02 -1.03226E+03 -2.67623E+03 -9.30751E+02 -5.20678E+03
  5.69653E+03 -4.32025E+03  8.64951E+03 -9.83839E+02  9.56201E+03  6.98034E+03  2.41975E+03  1.32996E+04
 -6.26712E+03  1.53842E+04 -1.51056E+04  9.05604E+03 -1.70421E+04 -1.46587E+03 -1.23530E+04 -1.05188E+04
 -5.24624E+03 -1.41706E+04  3.34091E+03 -1.28822E+04  9.65538E+03 -6.55163E+03  9.30703E+03  1.72926E+03
  4.88374E+03  4.73112E+03 -1.91008E+02  4.29133E+03 -1.92237E+03 -7.08455E+02 -4.63685E+02 -3.82369E+03
  4.35455E+03 -2.69360E+03  5.19337E+03  1.40841E+03  3.73189E+03  5.45568E+03  1.55450E+03  8.13682E+03
 -6.07258E+03  5.17536E+03 -9.50136E+03  6.88553E+02 -8.46749E+03 -6.58238E+03 -1.02164E+03 -1.12962E+04
  6.31882E+03 -8.97356E+03  1.11282E+04 -2.77826E+03  1.07223E+04  3.57137E+03  4.40275E+03  9.10179E+03
  5.27187E+02  8.60396E+03 -3.29630E+03  7.69971E+03 -6.27988E+03  4.37419E+03 -3.98946E+03  4.28307E+02
 -2.94102E+03 -6.63492E+02 -2.58072E+03  1.09737E+03 -4.77181E+03  1.43777E+03 -6.75694E+03 -9.06838E+02
 -7.22283E+03 -5.46400E+03 -1.34006E+03 -9.16097E+03  4.33846E+03 -9.28130E+03  9.20069E+03 -4.56779E+03
  1.00365E+04  1.47628E+03  4.52688E+03  6.50363E+03 -7.04084E+00  9.31168E+03 -8.20826E+03  5.04064E+03
