 $NMID ID='MM_0lb_SNR400_10hz_g40_80.RAW', FMTDAT='(8E13.5)'
 TRAMP=1., VOLUME=1. $END
  3.10299E+05 -4.53144E+02  3.37105E+05  2.50500E+05  8.45836E+04  3.38391E+05 -1.32600E+05  2.51643E+05
 -1.90246E+05  8.34718E+04 -1.12795E+05 -3.24293E+04 -1.14061E+02 -5.04176E+04  5.33762E+04 -1.06929E+03
  3.49861E+04  5.30586E+04 -1.69117E+04  7.57836E+04 -6.11088E+04  6.41719E+04 -8.50018E+04  3.25810E+04
 -8.24496E+04 -1.16862E+04 -5.75329E+04 -5.22901E+04 -1.48963E+04 -7.03619E+04  2.77336E+04 -4.62484E+04
  4.11372E+04  3.86709E+03  1.67488E+04  4.85145E+04 -3.41558E+04  4.73369E+04 -6.73465E+04  6.64769E+02
 -5.40860E+04 -5.69127E+04 -6.51854E+03 -7.81748E+04  3.45062E+04 -5.65499E+04  4.88831E+04 -1.82815E+04
  4.44525E+04  1.14096E+04  3.21777E+04  2.56363E+04  1.53237E+04  3.12933E+04 -5.34437E+03  2.72572E+04
 -2.20713E+04  1.17829E+04 -1.80030E+04 -5.52335E+03  6.67556E+03 -7.57070E+03  2.34486E+04  1.35859E+04
  6.90778E+03  3.67431E+04 -3.31141E+04  3.57693E+04 -6.47432E+04  2.30562E+03 -5.82080E+04 -4.36649E+04
 -1.23486E+04 -6.41002E+04  4.19643E+04 -4.73406E+04  5.89919E+04 -1.53662E+03  3.59481E+04  3.29848E+04
 -5.91332E+03  3.85303E+04 -3.12822E+04  1.80195E+04 -3.23306E+04 -4.38317E+03 -1.81808E+04 -1.22228E+04
 -9.12760E+03 -1.47020E+04 -9.68707E+02 -1.92953E+04  8.01798E+03 -2.33011E+04  1.59323E+04 -1.31829E+04
  1.01507E+04  5.88824E+03 -9.26906E+03  1.33866E+04 -2.34842E+04 -6.47911E+03 -8.34975E+03 -3.61128E+04
  2.41063E+04 -4.52292E+04  5.03420E+04 -2.09884E+04  4.63318E+04  2.04922E+04  1.59024E+04  4.57741E+04
 -1.69427E+04  3.49701E+04 -2.62783E+04  2.67305E+03 -1.10433E+04 -2.92312E+04  2.13742E+04 -3.61425E+04
  4.26278E+04 -1.08302E+04  3.84969E+04  2.43655E+04  2.07286E+04  4.87382E+04 -7.64659E+03  5.39270E+04
 -3.34547E+04  3.71273E+04 -4.62061E+04  1.01727E+04 -4.58541E+04 -1.77873E+04 -2.50678E+04 -4.06871E+04
  8.32376E+03 -3.97978E+04  3.27674E+04 -1.55819E+04  3.08095E+04  1.05668E+04  5.00548E+03  1.99369E+04
 -1.28947E+04  8.88540E+03 -1.06273E+04 -8.04097E+03  5.35044E+03 -1.10107E+04  1.81007E+04  5.38632E+03
  1.39332E+04  2.21635E+04 -5.71461E+03  2.61718E+04 -2.33051E+04  1.35415E+04 -3.04336E+04 -3.84306E+03
 -2.34993E+04 -1.86390E+04 -1.10908E+04 -2.39128E+04  3.90274E+03 -2.32674E+04  1.78578E+04 -2.08263E+04
  2.94011E+04 -1.33549E+04  3.56397E+04  4.02609E+03  2.55442E+04  2.27686E+04  4.02037E+03  3.92116E+04
 -1.92072E+04  3.24352E+04 -2.93094E+04  1.16983E+04 -2.12210E+04 -9.51729E+03 -4.68372E+03 -1.32557E+04
  1.72539E+03 -1.93064E+03 -6.46602E+03  7.61954E+03 -1.86922E+04  5.65587E+03 -1.90200E+04 -8.71172E+03
 -1.10231E+04 -2.14384E+04  6.73965E+03 -2.45244E+04  1.66164E+04 -1.77668E+04  2.10876E+04 -1.56249E+03
  1.22641E+04  1.47061E+04 -1.25511E+03  2.21148E+04 -1.54004E+04  1.24379E+04 -2.10374E+04 -4.89847E+03
 -1.64793E+04 -1.91747E+04 -2.68706E+03 -2.59660E+04  1.17391E+04 -2.15055E+04  2.13802E+04 -1.14334E+04
  2.02428E+04 -6.04406E+02  1.49985E+04  5.10799E+03  7.87218E+03  1.53741E+03  1.12255E+04 -1.19193E+03
  1.99774E+04  3.57667E+03  2.32020E+04  1.71435E+04  1.59760E+04  3.45210E+04 -2.62077E+03  4.01274E+04
 -2.30993E+04  3.40660E+04 -3.73331E+04  1.74057E+04 -4.08446E+04 -3.49449E+03 -3.19527E+04 -2.37002E+04
 -1.39218E+04 -3.32332E+04  1.21318E+04 -3.00424E+04  2.53255E+04 -1.43266E+04  2.22296E+04  7.13175E+03
  7.65545E+03  1.80105E+04 -9.77539E+03  1.47602E+04 -1.91745E+04  1.95441E+03 -1.47414E+04 -1.25703E+04
 -8.88473E+02 -1.73743E+04  8.61728E+03 -1.37117E+04  1.21023E+04 -1.49189E+03  3.08895E+03  8.40209E+03
 -7.94621E+03  3.60723E+03 -7.35378E+03 -5.74281E+03 -1.20782E+03 -1.60599E+04  1.09445E+04 -1.79983E+04
  2.04885E+04 -9.63997E+03  2.34828E+04  3.02820E+03  2.02133E+04  1.63073E+04  9.58941E+03  2.54609E+04
 -4.92569E+03  2.84448E+04 -1.71818E+04  1.70627E+04 -2.05261E+04  3.32576E+03 -1.44724E+04 -4.49043E+03
 -6.06749E+03 -6.23036E+03 -3.02901E+02  7.79530E+02 -2.45279E+03  3.42862E+03 -6.43751E+03  5.19603E+03
 -1.33873E+04 -1.33493E+03 -1.36729E+04 -1.12978E+04 -5.44987E+03 -1.81625E+04  5.02309E+03 -1.37319E+04
  1.18830E+04 -5.68393E+03  7.94047E+03  4.04094E+03 -4.34883E+02  5.33159E+03 -6.15505E+03 -2.45261E+02
 -6.87583E+03 -8.80663E+03 -1.28101E+03 -1.37426E+04  8.35917E+03 -1.44133E+04  1.78905E+04 -7.65247E+03
  2.05686E+04  1.49566E+03  1.57212E+04  1.31961E+04  3.08705E+03  1.64598E+04 -8.37914E+03  1.33106E+04
 -1.05957E+04  3.71253E+03 -6.20264E+03 -2.22881E+03  1.05410E+03 -3.40481E+03  7.11905E+03 -6.77917E+02
  5.95527E+03  5.64652E+03  1.55012E+03  1.18695E+04 -7.39258E+03  1.02334E+04 -1.41160E+04  2.57817E+03
 -9.40627E+03 -7.24956E+03  4.17343E+02 -1.21737E+04  7.68899E+03 -6.19244E+03  8.13521E+03  3.15987E+03
  1.87232E+03  8.45846E+03 -7.29046E+03  9.95964E+03 -1.15970E+04  4.62519E+03 -1.19193E+04 -4.89990E+03
 -7.03917E+03 -1.38788E+04  2.88179E+03 -1.58356E+04  1.36985E+04 -9.39953E+03  1.47085E+04  2.09367E+03
  8.94824E+03  1.17058E+04 -8.77451E+02  1.33701E+04 -1.06813E+04  8.21727E+03 -1.09428E+04 -4.66214E+02
 -1.00303E+04 -8.63079E+03 -1.97286E+03 -1.05775E+04  5.72336E+03 -8.77319E+03  5.72482E+03 -3.70195E+03
  4.13169E+03  1.50614E+03 -3.61189E+02  2.49782E+03 -4.62888E+02 -2.64643E+03  1.98624E+03 -6.15967E+03
  9.20843E+03 -3.91168E+03  1.37763E+04  1.67969E+03  1.38737E+04  9.40103E+03  8.93911E+03  1.70828E+04
 -3.71208E+03  2.04055E+04 -1.72071E+04  1.54113E+04 -2.14609E+04  3.07802E+03 -1.80571E+04 -7.18531E+03
 -9.68303E+03 -1.42263E+04 -7.05719E+02 -1.22426E+04  4.33446E+03 -7.10326E+03  4.36865E+03 -4.96396E+03
  3.01990E+03 -2.58155E+03  3.36988E+03 -2.91271E+03  5.25216E+03 -3.37002E+03  7.06252E+03 -9.88053E+02
  8.82652E+03  2.80789E+03  5.60996E+03  7.92387E+03 -2.06824E+03  8.69280E+03 -9.99484E+03  6.39120E+03
 -1.29181E+04 -7.96977E+02 -7.75917E+03 -9.03284E+03 -1.15803E+03 -1.38955E+04  6.90828E+03 -1.28697E+04
  1.37718E+04 -7.04405E+03  1.63097E+04  2.04328E+03  1.14395E+04  1.15884E+04  2.20402E+03  1.51944E+04
 -6.16366E+03  1.21067E+04 -8.55109E+03  3.84242E+03 -6.72636E+03 -9.44141E+02 -2.50108E+03 -1.85050E+03
 -1.74862E+03  1.18579E+02 -1.72879E+03  2.28980E+03 -5.02089E+03  2.41154E+03 -9.09434E+03 -1.26083E+03
 -5.37633E+03 -8.43024E+03  1.78737E+02 -1.22745E+04  6.97928E+03 -1.17948E+04  1.15485E+04 -3.65112E+03
  1.23016E+04  5.77910E+03  5.54216E+03  1.04579E+04 -2.26251E+03  1.23462E+04 -9.56696E+03  8.51713E+03
 -1.17899E+04  2.18708E+02 -9.09156E+03 -7.08115E+03 -2.12104E+02 -1.04150E+04  5.04355E+03 -7.39634E+03
  7.24515E+03 -2.46199E+03  4.10917E+03  2.21802E+03  1.11397E+03  3.59014E+03  1.84097E+03  2.21751E+03
  2.95060E+03  6.46692E+02  2.36727E+03  1.20147E+03  3.69961E+03  4.60276E+03  3.23681E+03  6.72517E+03
 -2.23291E+03  9.97903E+03 -8.48667E+03  9.57690E+03 -1.29043E+04  3.47802E+03 -1.33885E+04 -4.50934E+03
 -6.41630E+03 -1.25307E+04  9.49032E+02 -1.43844E+04  7.52279E+03 -8.61781E+03  1.05651E+04 -1.99651E+03
  8.21923E+03  4.87888E+03  1.74250E+03  6.52026E+03 -3.24174E+03  4.59306E+03 -4.92133E+03 -4.88877E+02
 -1.97356E+03 -4.82811E+03  3.12690E+03 -5.12113E+03  4.60678E+03 -1.92075E+03  4.77370E+03  1.00985E+03
  2.99183E+03  2.65472E+03  1.36063E+03  1.94375E+03 -8.14535E+02  2.45312E+03  9.02594E+02 -1.29286E+02
  1.70646E+03 -4.05555E+02  5.31900E+03  1.56661E+03  3.05141E+03  6.40679E+03 -1.57146E+03  8.33786E+03
 -6.67922E+03  6.04152E+03 -7.53272E+03  1.90384E+03 -7.24937E+03 -2.60386E+03 -3.20549E+03 -4.55358E+03
  2.17771E+02 -4.61059E+03  3.46031E+03 -2.81658E+03  2.83528E+03  3.15365E+03 -7.12452E+02  4.27050E+03
 -4.28801E+03  2.29715E+03 -5.80563E+03 -2.04972E+03 -3.61647E+03 -7.04546E+03  1.29043E+03 -7.20840E+03
  3.49538E+03 -3.95837E+03  4.61097E+03 -4.50046E+02  4.11474E+03  1.17841E+03  1.29065E+03  2.86949E+03
 -2.26678E+03  7.71624E+02 -2.98123E+03 -2.25527E+03  1.23584E+03 -4.97313E+03  6.01601E+03 -4.53506E+03
  7.43644E+03  2.64315E+02  8.15551E+03  5.41543E+03  3.02863E+03  8.26576E+03 -2.95855E+03  7.68293E+03
 -6.16359E+03  3.75370E+03 -6.94779E+03 -5.70891E+02 -4.07926E+03 -5.22230E+03  1.08646E+03 -4.47234E+03
  4.94234E+03 -2.30170E+03  4.48790E+03  2.46832E+03  9.93259E+02  3.73842E+03 -1.26214E+03  4.70221E+03
 -1.86168E+03  2.74659E+03 -1.68476E+03  9.69832E+02 -1.60753E+03  1.29234E+03 -1.20125E+03  2.80183E+03
 -2.63830E+03  3.18226E+03 -5.85949E+03  2.91264E+03 -7.40863E+03 -3.56489E+02 -8.99051E+03 -4.74759E+03
 -4.94308E+03 -1.01949E+04  3.61251E+03 -1.19699E+04  7.10689E+03 -9.95419E+03  1.19254E+04 -3.31575E+03
  1.10873E+04  2.67362E+03  6.59507E+03  7.38014E+03  3.19142E+02  8.11235E+03 -3.29077E+03  6.72573E+03
 -4.46972E+03  2.41540E+03 -2.77603E+03 -1.45341E+03 -1.45014E+03 -1.01041E+03 -2.25657E+02  5.06466E+01
 -1.75034E+03  3.15515E+02 -1.87275E+03 -3.24943E+02 -1.07236E+02 -1.88817E+03  2.31216E+02 -3.16131E+03
  3.95403E+03 -2.46265E+03  4.34477E+03 -2.22900E+02  5.98385E+03  4.38897E+03  1.77776E+03  8.58126E+03
 -3.14394E+03  8.97376E+03 -8.08486E+03  5.73501E+03 -9.78061E+03 -4.63137E+02 -8.03522E+03 -5.98311E+03
 -3.30857E+03 -8.85070E+03  1.74820E+03 -7.21349E+03  5.21068E+03 -4.48886E+03  5.07701E+03 -3.98007E+02
  3.45153E+03  2.42440E+03 -8.51670E+02  2.23143E+03 -1.63316E+03 -4.11459E+02 -5.23812E+01 -1.59591E+03
  2.55980E+03 -1.10248E+03  4.09119E+03  1.24308E+03  2.53488E+03  2.58470E+03  1.54875E+02  3.70459E+03
 -2.45027E+03  3.87260E+03 -5.49359E+03 -4.48207E+02 -5.53245E+03 -3.59792E+03 -1.04658E+03 -7.29691E+03
  3.54697E+03 -5.61701E+03  6.66494E+03 -1.61876E+03  6.01783E+03  1.71152E+03  3.13093E+03  5.37000E+03
  1.18634E+03  5.97103E+03 -2.19252E+03  4.92492E+03 -3.74407E+03  3.06252E+03 -2.07533E+03  3.37264E+02
 -5.48373E+02 -3.90523E+02 -6.62923E+02  1.15045E+03 -2.72887E+03  5.57430E+02 -4.54760E+03 -1.79325E+03
 -4.33566E+03 -2.18717E+03 -1.22066E+03 -6.12546E+03  2.41887E+03 -5.58847E+03  5.21879E+03 -2.50729E+03
  5.34289E+03  1.05715E+03  2.67211E+03  3.66087E+03  2.56784E+02  5.44479E+03 -3.70500E+03  3.80611E+03
