 $NMID ID='MM_0lb_SNR400_16hz_g50_33.RAW', FMTDAT='(8E13.5)'
 TRAMP=1., VOLUME=1. $END
  3.09908E+05  2.55399E+02  3.37702E+05  2.50465E+05  8.49613E+04  3.38108E+05 -1.33143E+05  2.50156E+05
 -1.89740E+05  8.31397E+04 -1.11660E+05 -3.32721E+04  1.10523E+03 -5.01851E+04  5.34585E+04  1.76270E+02
  3.48267E+04  5.26170E+04 -1.65509E+04  7.51286E+04 -6.06930E+04  6.35287E+04 -8.40312E+04  3.16988E+04
 -8.01217E+04 -1.09561E+04 -5.72017E+04 -5.14340E+04 -1.53161E+04 -6.89812E+04  2.77013E+04 -4.48549E+04
  3.98833E+04  2.87283E+03  1.57141E+04  4.76322E+04 -3.40287E+04  4.69671E+04 -6.63669E+04 -1.50704E+02
 -5.22926E+04 -5.67759E+04 -6.55736E+03 -7.68158E+04  3.39038E+04 -5.48384E+04  4.70822E+04 -1.71049E+04
  4.26686E+04  1.12598E+04  3.13910E+04  2.53899E+04  1.60458E+04  2.94057E+04 -5.14117E+03  2.69349E+04
 -2.22304E+04  1.25378E+04 -1.85925E+04 -4.99536E+03  5.39221E+03 -7.87957E+03  2.23204E+04  1.14989E+04
  7.09434E+03  3.42642E+04 -3.17915E+04  3.52253E+04 -6.31279E+04  2.11327E+03 -5.61754E+04 -4.18786E+04
 -1.26134E+04 -6.22487E+04  3.91856E+04 -4.42876E+04  5.76403E+04 -1.62979E+03  3.36217E+04  3.24503E+04
 -6.21955E+03  3.53473E+04 -2.95034E+04  1.49867E+04 -2.92288E+04 -4.94516E+03 -1.60800E+04 -1.05055E+04
 -7.87057E+03 -1.24006E+04 -6.59696E+02 -1.78773E+04  7.39604E+03 -2.32087E+04  1.53937E+04 -1.33835E+04
  1.22346E+04  5.06100E+03 -7.55065E+03  1.26759E+04 -2.03093E+04 -3.44823E+03 -8.42463E+03 -3.25511E+04
  2.20568E+04 -4.25234E+04  4.70328E+04 -1.90577E+04  4.39142E+04  1.91058E+04  1.51489E+04  4.32034E+04
 -1.52096E+04  3.20027E+04 -2.49381E+04  1.21906E+03 -9.31520E+03 -2.71938E+04  2.12994E+04 -3.35195E+04
  3.95817E+04 -8.39941E+03  3.44075E+04  2.31915E+04  1.65253E+04  4.47600E+04 -8.28367E+03  4.82059E+04
 -3.01802E+04  3.25743E+04 -4.03738E+04  8.75690E+03 -4.09762E+04 -1.60647E+04 -2.26657E+04 -3.69926E+04
  7.10076E+03 -3.64183E+04  3.07799E+04 -1.38442E+04  2.85571E+04  1.11138E+04  3.77503E+03  1.91607E+04
 -1.31829E+04  7.90630E+03 -1.01071E+04 -7.52573E+03  5.75071E+03 -1.05363E+04  1.75977E+04  6.15901E+03
  1.26814E+04  2.24608E+04 -6.38030E+03  2.46840E+04 -2.22422E+04  1.11522E+04 -2.66166E+04 -5.41126E+03
 -1.89969E+04 -1.70258E+04 -6.96080E+03 -1.93346E+04  3.86247E+03 -1.76141E+04  1.44558E+04 -1.63515E+04
  2.41791E+04 -1.23587E+04  3.02123E+04  2.42501E+03  2.25322E+04  1.84860E+04  3.75257E+03  3.45820E+04
 -1.72051E+04  2.90541E+04 -2.72356E+04  9.87165E+03 -1.98617E+04 -1.06990E+04 -4.33040E+03 -1.37855E+04
  2.88195E+03 -3.58477E+03 -4.23271E+03  5.77928E+03 -1.47461E+04  5.13822E+03 -1.50479E+04 -6.08205E+03
 -9.41536E+03 -1.76442E+04  5.35934E+03 -2.15403E+04  1.42026E+04 -1.54644E+04  1.70432E+04 -1.43795E+03
  1.01861E+04  1.28800E+04 -1.03125E+03  1.77018E+04 -1.14424E+04  9.74146E+03 -1.74442E+04 -3.28930E+03
 -1.30964E+04 -1.53730E+04 -1.32522E+03 -2.12075E+04  9.98822E+03 -1.74233E+04  1.81577E+04 -8.26871E+03
  1.70617E+04  3.50431E+02  1.13211E+04  3.90837E+03  6.01776E+03  4.57412E+02  8.02147E+03 -1.33929E+03
  1.53123E+04  2.95167E+03  1.67968E+04  1.37142E+04  1.10481E+04  2.82624E+04 -3.45919E+03  3.14418E+04
 -1.80388E+04  2.45420E+04 -2.88463E+04  1.20316E+04 -2.94873E+04 -1.76474E+03 -2.45810E+04 -1.73463E+04
 -1.10209E+04 -2.41507E+04  9.11427E+03 -2.23514E+04  1.95887E+04 -1.21160E+04  1.79510E+04  4.86733E+03
  7.24239E+03  1.24856E+04 -7.98616E+03  1.17078E+04 -1.48944E+04  2.78195E+03 -1.12104E+04 -9.66626E+03
 -2.91176E+02 -1.40562E+04  6.99618E+03 -1.01858E+04  9.43092E+03 -1.35791E+03  1.31626E+03  6.04200E+03
 -6.37951E+03  2.31526E+03 -5.02129E+03 -5.71268E+03 -2.60917E+02 -1.19033E+04  9.58891E+03 -1.21459E+04
  1.54993E+04 -6.06135E+03  1.49516E+04  2.58481E+03  1.35590E+04  1.12778E+04  6.03732E+03  1.73063E+04
 -2.70921E+03  2.00667E+04 -1.22189E+04  1.26124E+04 -1.37482E+04  3.75253E+03 -1.01641E+04 -2.50924E+03
 -5.03135E+03 -4.49863E+03 -1.22127E+03  1.69353E+03 -2.26999E+03  2.13364E+03 -4.93409E+03  4.02374E+03
 -9.49133E+03 -1.86924E+02 -1.00297E+04 -8.06427E+03 -3.68974E+03 -1.33679E+04  4.35929E+03 -1.00094E+04
  8.35522E+03 -4.84796E+03  5.77903E+03  2.46693E+03  2.79738E+02  3.20035E+03 -4.24715E+03 -7.02602E+00
 -3.71061E+03 -6.42919E+03 -9.67890E+02 -8.90612E+03  4.97599E+03 -1.03516E+04  1.20046E+04 -5.32230E+03
  1.46646E+04  6.74103E+02  1.05949E+04  8.54703E+03  2.21467E+03  1.06365E+04 -6.01376E+03  9.55614E+03
 -8.09034E+03  3.64568E+03 -4.39129E+03 -1.14837E+03  1.64492E+03 -1.81957E+03  5.96307E+03 -1.13636E+03
  4.83971E+03  4.28319E+03  8.47330E+02  7.48833E+03 -5.07539E+03  7.85384E+03 -9.38644E+03  1.98460E+03
 -6.28109E+03 -4.95788E+03  1.70026E+02 -8.20682E+03  4.20182E+03 -4.04961E+03  5.47998E+03  8.12826E+02
  8.57973E+02  4.86742E+03 -4.40582E+03  6.27394E+03 -6.09436E+03  3.51461E+03 -6.20191E+03 -2.29098E+03
 -4.53060E+03 -8.00095E+03  1.50480E+03 -9.85242E+03  7.91061E+03 -6.35800E+03  9.17388E+03  1.51722E+03
  6.30891E+03  6.96785E+03 -2.87972E+02  8.93965E+03 -6.29732E+03  4.97113E+03 -6.86614E+03 -1.97484E+02
 -6.70507E+03 -6.23280E+03 -1.93963E+03 -6.31644E+03  2.79724E+03 -5.56794E+03  4.11502E+03 -3.70680E+03
  3.69690E+03  5.01197E+02 -2.65257E+02  1.70286E+03  9.51508E+00 -8.30454E+02  9.11105E+02 -2.73914E+03
  5.74553E+03 -2.02917E+03  7.23099E+03  7.22275E+02  7.71015E+03  4.90038E+03  6.31331E+03  9.96806E+03
 -2.06622E+03  1.12205E+04 -1.02710E+04  8.53197E+03 -1.33812E+04  1.71987E+03 -1.02053E+04 -3.44167E+03
 -5.76772E+03 -7.97625E+03 -5.74536E+02 -6.92710E+03  2.80903E+03 -3.93941E+03  2.46503E+03 -2.25461E+03
  1.93914E+03 -1.62529E+03  2.21759E+03 -2.98833E+03  4.14918E+03 -1.89834E+03  4.33502E+03  1.70985E+02
  6.00242E+03  1.56718E+03  2.36512E+03  4.47852E+03 -1.53659E+03  4.43286E+03 -5.12265E+03  3.54001E+03
 -6.59498E+03 -1.16877E+03 -3.10428E+03 -4.95627E+03  2.46173E+02 -7.39680E+03  4.60237E+03 -7.64390E+03
  7.60646E+03 -4.14751E+03  9.16060E+03  1.04895E+03  6.20856E+03  5.79996E+03  1.47644E+03  7.82329E+03
 -3.28424E+03  7.25196E+03 -4.98535E+03  2.80964E+03 -2.36655E+03 -5.56123E+02 -9.12639E+02 -9.96629E+02
 -4.08187E+02  2.54173E+02 -1.14719E+03  2.11424E+03 -3.62718E+03  1.73921E+03 -5.30178E+03 -5.25117E+02
 -2.52558E+03 -5.12208E+03  5.78484E+02 -6.93397E+03  3.36063E+03 -5.59951E+03  5.72698E+03 -1.63123E+03
  5.49115E+03  3.63523E+03  2.61689E+03  4.82034E+03 -1.63112E+03  6.04682E+03 -3.96359E+03  4.25652E+03
 -5.68229E+03  3.32099E+02 -4.87439E+03 -3.83221E+03 -5.11317E+02 -4.65168E+03  2.07971E+03 -3.47222E+03
  3.82165E+03 -1.36278E+03  2.80107E+03  4.29186E+02  6.46221E+02  1.72851E+03  1.42997E+03  9.12856E+01
  2.47090E+03  5.11194E+02  2.02289E+03  1.13313E+03  2.08059E+03  1.99078E+03  1.18665E+03  3.02437E+03
 -1.52132E+03  4.39120E+03 -3.82417E+03  5.37113E+03 -5.03926E+03  1.47753E+03 -5.93118E+03 -1.27620E+03
 -3.07594E+03 -5.75489E+03  2.78333E+02 -6.73543E+03  3.10468E+03 -3.31898E+03  3.98473E+03 -8.16139E+02
  3.77396E+03  2.62248E+03  8.31127E+02  3.68409E+03 -5.62524E+02  2.24342E+03 -1.54956E+03 -5.32090E+01
 -1.01365E+03 -1.83797E+03  1.46934E+03 -1.99535E+03  1.79724E+03 -1.17294E+03  2.59320E+03  1.27143E+03
  1.49273E+03  3.70595E+02  1.18859E+03 -1.33458E+02 -6.20491E+02  1.16294E+03  1.18490E+03 -6.15939E+02
  3.56280E+02 -3.07442E+02  2.46105E+03  8.13469E+02  1.14749E+03  2.73688E+03 -2.48986E+02  4.51875E+03
 -1.78453E+03  2.28061E+03 -2.44974E+03  7.68728E+02 -2.83902E+03 -6.86210E+02 -2.89589E+02 -1.64438E+03
  7.19797E+02 -2.36893E+03  1.74129E+03 -9.55211E+02  1.72074E+03  1.01334E+03 -9.70427E+02  1.71459E+03
 -1.97043E+03  7.22462E+02 -1.65184E+03 -1.66405E+03 -1.41902E+03 -3.49319E+03  9.18447E+02 -3.20202E+03
  1.57601E+03 -9.07829E+02  1.78902E+03  2.89858E+01  2.33189E+03  1.63364E+02  3.46644E+02  1.89724E+03
 -1.35107E+03  4.43308E+02 -1.46804E+03 -5.94442E+02  9.25743E+02 -1.80327E+03  3.10803E+03 -1.43301E+03
  2.63065E+03 -1.34792E+02  3.42388E+03  9.63604E+02  1.07328E+03  2.17600E+03 -1.07765E+03  2.74759E+03
 -2.47664E+03  1.33370E+03 -2.73366E+03 -5.63128E+01 -1.30808E+03 -2.11052E+03  6.38365E+02 -1.34135E+03
  1.87047E+03 -8.88250E+02  1.83448E+03  9.97708E+02  3.84140E+02  1.82661E+03 -5.80850E+01  1.54720E+03
 -4.28910E+02  1.80749E+03 -4.35361E+02  7.00063E+02 -3.42055E+01  4.84049E+02 -1.45467E+01  3.96810E+02
 -1.61247E+02  9.30921E+02 -2.12948E+03  9.09594E+02 -2.89645E+03  1.94752E+02 -3.68229E+03 -1.61416E+03
 -1.73195E+03 -4.15924E+03  7.36633E+02 -4.53349E+03  2.50491E+03 -4.46927E+03  4.25741E+03 -1.31907E+03
  4.52376E+03  5.07422E+02  1.83420E+03  2.45470E+03  1.50394E+02  2.57322E+03 -1.16192E+03  2.03195E+03
 -1.54035E+03  1.42463E+03 -9.83517E+02 -3.57919E+02 -1.22247E+03 -7.60742E+01 -8.10820E+01  2.21348E+02
 -1.09789E+03  8.97704E+02 -5.95886E+02 -2.50068E+02  3.14193E+02 -1.22431E+03 -1.74732E+02 -1.25454E+03
  1.47708E+03 -1.24647E+03  8.38561E+02  2.34507E+02  1.98190E+03  1.46086E+03 -1.56676E+02  2.40286E+03
 -2.10379E+03  3.73193E+03 -2.93807E+03  1.99069E+03 -2.67690E+03 -5.33459E+02 -1.97569E+03 -1.82158E+03
 -1.10335E+03 -1.79282E+03  8.80934E+02 -2.28140E+03  2.19558E+03 -1.31481E+03  1.38613E+03  1.47480E+02
  9.58747E+02  9.01147E+02 -2.05528E+02  4.02461E+02 -5.12293E+02 -8.79980E+01  6.08822E+02 -2.73217E+02
  6.77758E+02  3.24879E+02  1.73370E+02  1.15951E+03  2.83949E+02  4.05470E+02  3.91231E+02  1.02005E+03
 -1.26702E+03  1.59397E+03 -1.72907E+03 -1.87474E+02 -2.23677E+03 -1.57756E+03 -1.75244E+02 -1.88602E+03
  2.87662E+02 -1.19022E+03  1.80612E+03 -2.58239E+01  1.98144E+03 -4.29056E+02  1.15250E+03  1.07641E+03
  4.62640E+02  1.70344E+03 -5.39124E+02  1.88252E+03 -1.01681E+03  8.76344E+02 -7.79655E+02  4.54230E+02
 -7.22675E+02  1.46920E+02 -8.05221E+02 -1.42532E+02 -7.96974E+02  9.59066E+02 -1.30233E+03 -1.33759E+02
 -2.31026E+03  1.21041E+02 -2.17100E+01 -1.57317E+03  1.09380E+03 -2.24692E+03  1.10269E+03 -6.14325E+02
  1.63878E+03 -5.52737E+02 -1.48420E+02  6.96969E+02 -1.97786E+02  1.63553E+03 -8.65057E+02  9.91455E+02
