 $NMID ID='MM_0lb_SNR400_18hz_g45_72.RAW', FMTDAT='(8E13.5)'
 TRAMP=1., VOLUME=1. $END
  3.09821E+05  7.90060E+02  3.36963E+05  2.51093E+05  8.41751E+04  3.37742E+05 -1.32189E+05  2.50114E+05
 -1.89187E+05  8.27205E+04 -1.10951E+05 -3.26241E+04  1.50227E+03 -5.06687E+04  5.37167E+04 -2.96859E+02
  3.53374E+04  5.26541E+04 -1.67873E+04  7.45178E+04 -5.99786E+04  6.28184E+04 -8.32255E+04  3.16265E+04
 -7.98576E+04 -1.14766E+04 -5.58603E+04 -5.03450E+04 -1.52361E+04 -6.81682E+04  2.71285E+04 -4.50011E+04
  3.94283E+04  3.84577E+03  1.55936E+04  4.71288E+04 -3.40444E+04  4.60801E+04 -6.55785E+04 -7.05938E+02
 -5.26061E+04 -5.65036E+04 -6.78888E+03 -7.52571E+04  3.26436E+04 -5.29119E+04  4.60309E+04 -1.63498E+04
  4.18944E+04  1.14940E+04  3.08004E+04  2.40920E+04  1.59675E+04  2.79598E+04 -4.77231E+03  2.68828E+04
 -2.11533E+04  1.29148E+04 -1.87975E+04 -4.23507E+03  4.70967E+03 -8.09101E+03  2.15311E+04  1.09720E+04
  7.33283E+03  3.35167E+04 -3.09886E+04  3.35129E+04 -6.15558E+04  2.49482E+03 -5.54282E+04 -4.14183E+04
 -1.20905E+04 -6.09945E+04  3.81046E+04 -4.34957E+04  5.56724E+04 -1.93451E+03  3.22420E+04  3.02745E+04
 -6.42822E+03  3.31060E+04 -2.86711E+04  1.32424E+04 -2.85285E+04 -5.18534E+03 -1.44990E+04 -1.00687E+04
 -7.72567E+03 -1.14631E+04 -1.23628E+03 -1.66529E+04  7.11879E+03 -2.28871E+04  1.46391E+04 -1.37147E+04
  1.19623E+04  4.30141E+03 -5.67623E+03  1.28200E+04 -1.96589E+04 -1.88378E+03 -8.00137E+03 -3.07543E+04
  2.08444E+04 -4.01981E+04  4.52667E+04 -1.87236E+04  4.24358E+04  1.83842E+04  1.47646E+04  4.19233E+04
 -1.50148E+04  3.07532E+04 -2.31528E+04  1.09857E+03 -8.56943E+03 -2.56494E+04  2.01632E+04 -3.10423E+04
  3.82667E+04 -7.23447E+03  3.13112E+04  2.27675E+04  1.55509E+04  4.27629E+04 -7.78627E+03  4.53804E+04
 -2.81666E+04  3.00210E+04 -3.70386E+04  8.39274E+03 -3.86470E+04 -1.53532E+04 -2.14478E+04 -3.44063E+04
  6.71444E+03 -3.45867E+04  2.90635E+04 -1.27620E+04  2.72796E+04  1.08901E+04  3.10935E+03  1.77652E+04
 -1.32385E+04  7.40736E+03 -9.20675E+03 -7.62045E+03  5.66584E+03 -1.02968E+04  1.71600E+04  6.44680E+03
  1.25583E+04  2.12613E+04 -6.94413E+03  2.34157E+04 -2.17330E+04  8.97312E+03 -2.48672E+04 -6.06047E+03
 -1.69158E+04 -1.69976E+04 -5.83485E+03 -1.72895E+04  4.00934E+03 -1.51554E+04  1.27684E+04 -1.47427E+04
  2.14095E+04 -1.18028E+04  2.84194E+04  8.58802E+02  2.14033E+04  1.64012E+04  3.95589E+03  3.27784E+04
 -1.62515E+04  2.72101E+04 -2.59194E+04  9.42792E+03 -2.00263E+04 -1.01777E+04 -3.76255E+03 -1.37435E+04
  2.70318E+03 -3.99115E+03 -2.62213E+03  5.69616E+03 -1.35329E+04  5.19929E+03 -1.36890E+04 -4.66006E+03
 -9.03796E+03 -1.52472E+04  4.76155E+03 -1.91428E+04  1.30531E+04 -1.40846E+04  1.51353E+04 -1.26872E+03
  8.74414E+03  1.11344E+04 -6.09378E+02  1.57950E+04 -1.02782E+04  9.12820E+03 -1.55708E+04 -3.90576E+03
 -1.15190E+04 -1.39633E+04 -1.02600E+03 -1.93041E+04  8.95856E+03 -1.57374E+04  1.64391E+04 -7.00885E+03
  1.46379E+04  3.63283E+02  1.03726E+04  4.31881E+03  5.20247E+03  4.06380E+02  7.28086E+03 -1.15090E+03
  1.44908E+04  2.18857E+03  1.47726E+04  1.23298E+04  9.21696E+03  2.51946E+04 -3.35814E+03  2.67675E+04
 -1.61851E+04  2.02875E+04 -2.50828E+04  9.90522E+03 -2.55582E+04 -1.71769E+03 -2.16605E+04 -1.46189E+04
 -9.80655E+03 -2.06534E+04  6.91968E+03 -1.95604E+04  1.67389E+04 -1.04933E+04  1.56269E+04  4.02297E+03
  6.69634E+03  1.06003E+04 -7.23736E+03  1.09087E+04 -1.30165E+04  1.88909E+03 -1.06504E+04 -8.17533E+03
 -1.65795E+02 -1.23436E+04  6.31564E+03 -9.33024E+03  7.91068E+03 -1.96833E+03  1.36929E+03  5.17966E+03
 -5.78783E+03  1.76496E+03 -3.82903E+03 -4.14048E+03  1.86938E+02 -1.04920E+04  7.71408E+03 -9.75259E+03
  1.29255E+04 -5.31733E+03  1.24184E+04  2.44675E+03  1.09494E+04  9.30603E+03  5.25857E+03  1.44161E+04
 -1.89533E+03  1.69901E+04 -9.76796E+03  1.02274E+04 -1.17054E+04  2.58695E+03 -8.75813E+03 -1.40133E+03
 -4.42499E+03 -3.01230E+03 -8.89475E+02  9.02703E+02 -2.12804E+03  1.86692E+03 -3.73902E+03  3.59335E+03
 -8.92868E+03 -4.25942E+02 -8.68694E+03 -7.41214E+03 -3.77594E+03 -1.20457E+04  3.99831E+03 -8.58430E+03
  8.32031E+03 -3.66866E+03  5.48777E+03  2.31400E+03  6.68998E+02  2.77555E+03 -3.03179E+03 -5.14032E+02
 -4.05019E+03 -4.88481E+03 -7.92531E+02 -7.70791E+03  3.84632E+03 -8.06459E+03  9.75731E+03 -3.47750E+03
  1.19262E+04  5.89712E+02  8.85580E+03  6.15995E+03  1.22151E+03  8.77011E+03 -5.58501E+03  8.06304E+03
 -6.76647E+03  2.63970E+03 -3.65964E+03 -1.11380E+03  1.41779E+03 -2.28930E+03  4.53355E+03 -6.94426E+02
  3.80876E+03  3.72559E+03  9.87511E+02  6.32513E+03 -4.05140E+03  6.46734E+03 -8.39588E+03  1.50368E+03
 -5.05432E+03 -3.72954E+03  2.85631E+02 -7.01792E+03  3.54245E+03 -3.60470E+03  3.56125E+03  1.33920E+03
  9.07818E+02  3.32036E+03 -4.31789E+03  5.08447E+03 -4.70154E+03  2.69138E+03 -5.37593E+03 -1.21707E+03
 -3.22271E+03 -5.66058E+03  5.13981E+02 -7.54235E+03  6.62808E+03 -4.77006E+03  6.77327E+03  8.10689E+02
  4.60717E+03  5.97266E+03  1.63686E+02  7.45218E+03 -5.09797E+03  4.27181E+03 -5.21938E+03  8.17895E+00
 -5.19962E+03 -5.52764E+03 -1.48774E+03 -5.27485E+03  2.61678E+03 -4.80176E+03  2.43199E+03 -2.68798E+03
  2.74248E+03  1.79812E+02  5.26649E+01  1.81289E+03  1.68410E+02 -6.61846E+02  1.41133E+02 -2.29836E+03
  4.06945E+03 -5.17744E+02  5.61508E+03  8.33698E+02  5.41698E+03  3.12677E+03  5.34008E+03  7.82319E+03
 -1.50725E+03  9.14839E+03 -8.10038E+03  6.40082E+03 -1.02560E+04  1.91388E+03 -8.00733E+03 -3.22914E+03
 -4.41706E+03 -7.35699E+03  1.73016E+02 -5.32685E+03  2.44946E+03 -2.04207E+03  1.93601E+03 -2.12367E+03
  1.59205E+03 -1.96972E+03  2.18965E+03 -2.01186E+03  3.19134E+03 -1.68087E+03  3.99412E+03 -1.93170E+01
  5.00286E+03  1.51678E+03  8.14369E+02  3.64867E+03 -1.58796E+03  3.26153E+03 -4.85889E+03  2.44944E+03
 -5.08389E+03 -1.08828E+03 -2.06540E+03 -3.55615E+03  4.83141E+02 -5.56564E+03  3.52948E+03 -5.79395E+03
  5.23456E+03 -3.14454E+03  7.10355E+03  1.78046E+01  4.93573E+03  4.35059E+03  7.95938E+02  5.95603E+03
 -2.20856E+03  6.06933E+03 -3.52175E+03  2.13441E+03 -2.35354E+03 -6.58968E+02 -5.77116E+02 -2.96792E+02
 -6.18990E+02  1.23683E+02 -7.87407E+02  2.20096E+03 -2.64687E+03  8.12706E+02 -4.07293E+03 -7.06574E+02
 -2.01277E+03 -4.38293E+03  9.95418E+02 -4.62876E+03  3.09127E+03 -5.13458E+03  4.05904E+03 -1.43283E+03
  4.75717E+03  3.26533E+03  1.98627E+03  3.35219E+03 -7.50617E+02  4.32049E+03 -2.65776E+03  2.57515E+03
 -4.13067E+03  5.34611E+02 -3.52314E+03 -1.96136E+03  2.55443E+01 -3.56891E+03  1.60523E+03 -2.85105E+03
  3.07470E+03 -6.19688E+02  1.67019E+03  3.94613E+02  9.32203E+02  1.41219E+03  7.29271E+02  3.80504E+02
  1.38343E+03  5.52669E+02  2.01704E+03  1.08662E+03  9.77356E+02  2.66323E+03  9.65214E+02  2.26172E+03
 -1.37072E+03  2.89651E+03 -2.69557E+03  4.14625E+03 -3.33130E+03  1.32163E+03 -4.45429E+03 -6.04154E+02
 -1.63418E+03 -3.58505E+03  7.46980E+02 -4.33436E+03  1.84834E+03 -2.83519E+03  3.09504E+03 -4.02507E+02
  2.42941E+03  1.82935E+03  5.48495E+01  2.65254E+03 -1.84497E+02  1.00581E+03 -8.56397E+02  1.43267E+02
 -7.61731E+02 -1.40144E+03  1.06820E+03 -2.23605E+03  1.83544E+03 -1.25143E+03  1.19100E+03  2.97145E+02
  1.22352E+03  2.71004E+02  1.05234E+03 -5.02447E+02 -3.39547E+02  9.63649E+02  1.88917E+03 -1.55273E+02
  2.09836E+02 -3.33603E+02  1.54095E+03  2.51905E+02  1.92867E+01  2.53367E+03 -6.02163E+02  3.39943E+03
 -1.49734E+03  8.92951E+02 -2.29300E+03  4.92846E+02 -1.83518E+03 -6.03456E+02 -6.72532E+02 -1.01603E+03
 -1.09817E+02 -1.26676E+03  1.05360E+03 -5.75862E+02  4.68729E+02  1.44727E+03 -3.77642E+02  1.43435E+03
 -1.65288E+03  6.54998E+02 -1.02276E+03 -1.64235E+03 -1.32697E+03 -2.03792E+03  5.63030E+02 -1.66274E+03
  7.02150E+01 -5.22906E+02  1.16578E+03  1.34981E+03  1.74576E+03  2.64023E+02  3.66310E+02  9.48555E+02
 -2.11566E+02 -4.90675E+01 -1.15988E+03 -3.91231E+02  3.53793E+02 -5.41615E+02  1.72566E+03 -6.87823E+02
  1.52577E+03  3.76780E+02  2.95957E+03  9.79029E+02  1.54166E+03  1.86377E+03 -5.31807E+02  2.01570E+03
 -1.47153E+03  7.14335E+02 -1.50524E+03  3.04688E+01 -4.85288E+02 -1.69056E+03  3.28786E+02 -5.90676E+02
  2.03381E+03 -7.86943E+02  8.98648E+02  7.34892E+02  3.31547E+02  1.77858E+03 -3.44622E+02  9.07248E+02
 -3.20060E+02  1.43041E+03 -3.13608E+02  6.96943E+01 -2.07005E+02  6.57635E+02 -7.64353E+02  8.38016E+02
 -1.66917E+00  1.31173E+03 -2.50450E+03  6.50884E+02 -1.85852E+03 -1.19370E+02 -2.65637E+03 -1.42953E+03
 -1.30673E+03 -2.81218E+03  8.03112E+02 -2.86581E+03  1.18043E+03 -2.63984E+03  2.69196E+03 -7.51230E+02
  2.71649E+03 -1.44970E+02  1.46390E+03  1.81543E+03 -4.22572E+02  1.58968E+03 -7.58786E+02  9.57581E+02
 -4.79150E+02  4.84784E+02 -7.23815E+02  4.25870E+02 -3.94531E+02  2.95722E+02 -9.75715E+02 -7.58517E+01
 -1.60784E+03 -5.95934E+01 -7.88394E+02  4.25011E+02  4.37898E+02 -9.29430E+02 -1.58531E+02 -6.60940E+02
  9.22032E+02 -8.29224E+02  5.27186E+02  2.60916E+02  1.25814E+03  1.39655E+03 -2.75870E+02  1.60137E+03
 -7.72309E+02  2.20410E+03 -1.82426E+03  1.04038E+03 -1.85241E+03 -4.80478E+01 -1.59952E+03 -1.41930E+03
 -1.02417E+03 -1.66467E+03  4.06472E+02 -1.06602E+03  9.40014E+02 -9.32835E+02  5.63574E+02  4.60334E+02
  5.47546E+02 -4.65363E+01  3.64428E+02  2.55574E+02 -3.18156E+02 -1.61263E+02  3.20104E+02 -2.06752E+02
  2.74374E+02  2.86902E+02  2.07349E+02  9.49014E+02  3.12763E+02  4.25109E+02  9.08352E+02  1.03323E+02
 -7.10880E+02  1.10265E+03 -9.95211E+02 -6.99365E+01 -7.99565E+02 -4.06639E+02 -3.06514E+02 -1.20313E+03
  9.63835E+02 -7.34817E+02  8.01408E+02 -2.61545E+02  9.66177E+02 -1.14235E+03  3.86148E+02  9.86693E+02
  2.50783E+02  3.40316E+02 -4.63809E+02  5.99779E+02 -6.05175E+02  1.03348E+03 -6.48851E+02  3.23528E+02
 -2.33682E+01 -2.90805E+02 -8.15391E+02  1.35935E+01 -2.31001E+02  2.46716E+02 -9.83075E+02 -7.09973E+02
 -7.65232E+02  1.19877E+02 -2.02643E+02 -6.21669E+02  2.99551E+02 -1.51670E+03  1.24212E+03 -2.97182E+02
  7.92653E+02 -3.81239E+02  4.22617E+02  3.59616E+02  1.62784E+01  8.09890E+02 -4.22861E+02  2.00512E+02
