 $NMID ID='MM_0lb_SNR400_10hz_g45_13.RAW', FMTDAT='(8E13.5)'
 TRAMP=1., VOLUME=1. $END
  3.09757E+05  5.88818E+02  3.37499E+05  2.50844E+05  8.41757E+04  3.37765E+05 -1.32511E+05  2.51712E+05
 -1.90453E+05  8.30541E+04 -1.11656E+05 -3.25351E+04  5.68561E+02 -4.98947E+04  5.33974E+04 -1.13652E+03
  3.59303E+04  5.31600E+04 -1.66431E+04  7.55819E+04 -6.12939E+04  6.46757E+04 -8.54987E+04  3.21053E+04
 -8.12361E+04 -1.17357E+04 -5.75619E+04 -5.21346E+04 -1.56418E+04 -7.04331E+04  2.73673E+04 -4.63515E+04
  4.08649E+04  3.51786E+03  1.71684E+04  4.81980E+04 -3.40136E+04  4.83296E+04 -6.77950E+04  2.44802E+02
 -5.44161E+04 -5.68265E+04 -7.80513E+03 -7.84964E+04  3.39603E+04 -5.59321E+04  4.91337E+04 -1.81823E+04
  4.48281E+04  1.12557E+04  3.27032E+04  2.63558E+04  1.55415E+04  3.02964E+04 -6.09201E+03  2.72694E+04
 -2.28142E+04  1.20410E+04 -1.76121E+04 -5.58783E+03  6.47235E+03 -7.57050E+03  2.30208E+04  1.33010E+04
  7.11018E+03  3.66930E+04 -3.28378E+04  3.65472E+04 -6.51841E+04  2.96297E+03 -5.86489E+04 -4.28603E+04
 -1.29989E+04 -6.50632E+04  4.07266E+04 -4.65641E+04  6.00212E+04 -2.08557E+03  3.52962E+04  3.44312E+04
 -5.35679E+03  3.85792E+04 -3.15978E+04  1.83640E+04 -3.16443E+04 -3.73814E+03 -1.79729E+04 -1.21193E+04
 -9.69759E+03 -1.47599E+04 -3.16833E+02 -1.92607E+04  8.06415E+03 -2.31429E+04  1.55101E+04 -1.27746E+04
  1.07259E+04  5.80959E+03 -9.83070E+03  1.27299E+04 -2.33498E+04 -4.99249E+03 -8.20550E+03 -3.59773E+04
  2.43994E+04 -4.53780E+04  5.04812E+04 -2.00141E+04  4.74769E+04  2.02973E+04  1.73373E+04  4.62788E+04
 -1.58971E+04  3.58009E+04 -2.72792E+04  2.57677E+03 -1.05504E+04 -2.87516E+04  2.13994E+04 -3.58543E+04
  4.25709E+04 -1.10595E+04  3.93972E+04  2.43830E+04  2.11329E+04  5.02706E+04 -8.48205E+03  5.46748E+04
 -3.34087E+04  3.69643E+04 -4.56935E+04  1.12415E+04 -4.64322E+04 -1.73168E+04 -2.54964E+04 -4.09516E+04
  7.40381E+03 -4.10978E+04  3.39043E+04 -1.55806E+04  3.12694E+04  1.22595E+04  4.13126E+03  2.08173E+04
 -1.42334E+04  9.07625E+03 -1.16443E+04 -6.96689E+03  5.10716E+03 -1.06722E+04  1.92369E+04  6.15944E+03
  1.43847E+04  2.22223E+04 -5.35062E+03  2.60682E+04 -2.28086E+04  1.40278E+04 -3.03285E+04 -3.59220E+03
 -2.31788E+04 -1.79792E+04 -1.10844E+04 -2.42693E+04  4.13737E+03 -2.41481E+04  1.90060E+04 -2.17771E+04
  3.11132E+04 -1.39219E+04  3.59341E+04  4.61634E+03  2.57223E+04  2.34318E+04  4.61357E+03  3.93307E+04
 -1.99861E+04  3.27991E+04 -2.93999E+04  1.20192E+04 -2.21358E+04 -1.05953E+04 -4.27432E+03 -1.34568E+04
  1.65097E+03 -1.56875E+03 -6.69582E+03  7.72229E+03 -1.91672E+04  4.57015E+03 -1.89881E+04 -8.47179E+03
 -1.14946E+04 -2.19264E+04  6.04505E+03 -2.57361E+04  1.79160E+04 -1.94020E+04  2.09551E+04 -1.84522E+03
  1.34450E+04  1.48971E+04 -4.98340E+02  2.21527E+04 -1.50413E+04  1.24807E+04 -2.23500E+04 -4.62215E+03
 -1.62517E+04 -1.90100E+04 -2.10124E+03 -2.68136E+04  1.17552E+04 -2.23739E+04  2.17987E+04 -1.12276E+04
  2.13051E+04 -8.87305E+02  1.50866E+04  4.28447E+03  8.64734E+03  1.33916E+03  1.10034E+04 -1.12976E+03
  2.04076E+04  2.24160E+03  2.35669E+04  1.73574E+04  1.63823E+04  3.52133E+04 -2.50474E+03  4.16255E+04
 -2.37909E+04  3.38235E+04 -3.76846E+04  1.83599E+04 -4.17966E+04 -3.51955E+03 -3.34758E+04 -2.32906E+04
 -1.38717E+04 -3.38693E+04  1.19743E+04 -3.04776E+04  2.52553E+04 -1.41823E+04  2.29250E+04  7.12646E+03
  8.24895E+03  1.69345E+04 -1.08357E+04  1.41249E+04 -1.83990E+04  2.44122E+03 -1.41398E+04 -1.16713E+04
 -7.49286E+02 -1.81297E+04  9.46904E+03 -1.35031E+04  1.24720E+04 -1.00499E+03  3.59040E+03  8.81023E+03
 -7.70837E+03  3.73486E+03 -8.24566E+03 -7.00585E+03 -1.76226E+03 -1.69006E+04  1.04138E+04 -1.83268E+04
  2.05463E+04 -1.02082E+04  2.38758E+04  3.20884E+03  2.02426E+04  1.67762E+04  9.79526E+03  2.66892E+04
 -5.39076E+03  2.82514E+04 -1.88096E+04  1.74575E+04 -2.08530E+04  3.42726E+03 -1.41953E+04 -4.36370E+03
 -6.28485E+03 -6.63894E+03 -4.22261E+02  1.04978E+03 -2.26630E+03  2.57459E+03 -6.50710E+03  5.37630E+03
 -1.36754E+04 -6.35634E+02 -1.32369E+04 -1.10370E+04 -5.17414E+03 -1.79376E+04  5.73299E+03 -1.48117E+04
  1.19718E+04 -6.35792E+03  7.90328E+03  3.73444E+03 -2.07321E+02  6.05424E+03 -6.93611E+03  2.94907E+02
 -6.82564E+03 -9.02984E+03 -9.36838E+02 -1.38548E+04  8.02170E+03 -1.48952E+04  1.86183E+04 -8.46680E+03
  2.09237E+04  2.01232E+03  1.61351E+04  1.35723E+04  2.64113E+03  1.71436E+04 -9.48067E+03  1.43709E+04
 -1.15798E+04  4.01805E+03 -6.31337E+03 -3.44833E+03  2.56361E+03 -3.27350E+03  7.34961E+03 -1.55536E+03
  6.91507E+03  5.90781E+03  1.60097E+03  1.11509E+04 -7.98427E+03  1.00840E+04 -1.38481E+04  2.90252E+03
 -9.91091E+03 -7.29998E+03  6.84602E+02 -1.22235E+04  7.99998E+03 -6.16799E+03  8.34406E+03  2.47209E+03
  1.54884E+03  8.04554E+03 -7.65984E+03  1.05795E+04 -1.23829E+04  4.21208E+03 -1.19527E+04 -4.56007E+03
 -7.63591E+03 -1.39498E+04  4.25079E+03 -1.55843E+04  1.35921E+04 -9.31958E+03  1.50831E+04  2.32960E+03
  9.26572E+03  1.22510E+04 -1.74783E+03  1.52050E+04 -1.05682E+04  7.87313E+03 -1.08982E+04 -1.21066E+03
 -1.04484E+04 -8.93877E+03 -1.57252E+03 -1.08978E+04  5.59565E+03 -8.63421E+03  7.19292E+03 -3.44399E+03
  4.50532E+03  1.80222E+03 -8.65048E+02  1.72045E+03 -9.49226E+02 -2.30948E+03  1.90485E+03 -6.50479E+03
  9.37103E+03 -3.75765E+03  1.40660E+04  1.32825E+03  1.27982E+04  9.33161E+03  9.84833E+03  1.80347E+04
 -4.27586E+03  2.06860E+04 -1.78186E+04  1.55126E+04 -2.26566E+04  2.08251E+03 -1.84473E+04 -7.85704E+03
 -9.39211E+03 -1.51131E+04 -4.93396E+02 -1.23697E+04  4.34975E+03 -6.75833E+03  4.77450E+03 -3.94435E+03
  3.67650E+03 -2.45192E+03  4.14731E+03 -3.65568E+03  5.36643E+03 -2.46609E+03  7.36326E+03 -1.83667E+03
  9.34797E+03  2.17237E+03  5.72726E+03  9.01476E+03 -2.05883E+03  9.28530E+03 -9.91083E+03  7.78941E+03
 -1.27601E+04 -1.27634E+03 -7.85596E+03 -8.91716E+03 -1.33635E+03 -1.35448E+04  7.90442E+03 -1.43883E+04
  1.34262E+04 -6.76010E+03  1.68984E+04  1.94768E+03  1.13140E+04  1.17657E+04  1.50810E+03  1.55265E+04
 -5.94943E+03  1.30087E+04 -9.63834E+03  3.89401E+03 -6.07482E+03 -1.74564E+03 -2.27540E+03 -1.90125E+03
 -1.12623E+03 -7.76993E+02 -1.73902E+03  2.59290E+03 -5.07020E+03  1.45886E+03 -8.83951E+03 -4.18275E+02
 -5.52609E+03 -8.41470E+03 -9.28787E+01 -1.26652E+04  7.62675E+03 -1.21498E+04  1.26309E+04 -3.84135E+03
  1.21700E+04  5.87283E+03  5.93705E+03  1.16296E+04 -2.88806E+03  1.23362E+04 -9.43608E+03  7.59320E+03
 -1.14700E+04  4.14591E+02 -9.41868E+03 -7.42082E+03 -7.21115E+02 -1.05914E+04  5.18400E+03 -7.89270E+03
  7.98684E+03 -2.19312E+03  5.43129E+03  2.39925E+03  2.03762E+03  3.50947E+03  1.52319E+03  1.31560E+03
  2.71424E+03  9.55736E+02  2.74860E+03  1.01447E+03  3.03801E+03  5.16208E+03  3.48494E+03  6.40148E+03
 -2.59581E+03  1.01279E+04 -8.55054E+03  9.84626E+03 -1.25213E+04  3.41565E+03 -1.36541E+04 -4.99654E+03
 -7.06716E+03 -1.33135E+04  2.23618E+03 -1.39982E+04  7.93835E+03 -8.82323E+03  1.03042E+04 -2.50126E+03
  8.43817E+03  4.86720E+03  1.76838E+03  7.70359E+03 -3.83173E+03  4.21220E+03 -5.39100E+03 -9.52081E+02
 -2.36702E+03 -6.02034E+03  2.98030E+03 -5.76084E+03  4.96405E+03 -2.74202E+03  5.01558E+03  1.39872E+03
  3.76742E+03  2.49340E+03  1.53488E+03  1.95375E+03 -8.83687E+02  1.84589E+03  1.53361E+03 -2.61071E+02
  2.77015E+03 -1.73915E+03  5.68398E+03  2.29833E+03  3.11995E+03  6.68064E+03 -9.18142E+02  9.10743E+03
 -6.04744E+03  5.75089E+03 -8.24296E+03  1.12696E+03 -7.07681E+03 -2.68546E+03 -1.95395E+03 -4.93690E+03
  1.70784E+02 -5.17039E+03  3.26755E+03 -2.89121E+03  2.74335E+03  2.33074E+03 -1.40552E+03  3.86459E+03
 -4.43573E+03  2.20083E+03 -5.55254E+03 -3.43688E+03 -3.41206E+03 -7.20665E+03  9.96123E+02 -7.14509E+03
  3.53484E+03 -4.18420E+03  5.32477E+03 -6.67560E+02  3.72167E+03  1.59939E+03  7.94109E+02  3.95893E+03
 -3.07603E+03  9.95273E+02 -3.53798E+03 -3.21350E+03  1.25956E+03 -5.49292E+03  6.01342E+03 -4.22210E+03
  8.45573E+03  3.06379E+02  7.70886E+03  5.32050E+03  2.57984E+03  8.37100E+03 -3.35745E+03  7.27982E+03
 -6.92899E+03  3.04464E+03 -7.74310E+03 -1.16302E+03 -3.73244E+03 -5.12504E+03  1.18751E+03 -4.42764E+03
  4.53641E+03 -2.13601E+03  4.05879E+03  2.65004E+03  1.63201E+03  4.28387E+03 -6.50962E+02  3.40989E+03
 -2.55222E+03  2.53525E+03 -2.85864E+03  9.37283E+02 -1.18553E+03  8.96250E+02 -1.28000E+03  1.54212E+03
 -1.70742E+03  3.71736E+03 -5.87463E+03  2.36820E+03 -7.82097E+03  4.38075E+02 -9.50263E+03 -5.34929E+03
 -4.19597E+03 -1.13421E+04  1.21877E+03 -1.22529E+04  7.47464E+03 -1.05611E+04  1.19701E+04 -4.08510E+03
  1.11542E+04  2.75731E+03  7.61018E+03  7.67359E+03  1.02893E+03  8.88665E+03 -3.70575E+03  6.36299E+03
 -5.32309E+03  2.34893E+03 -2.73543E+03 -8.50542E+02 -1.78481E+03 -3.76956E+02 -1.10998E+03  7.07221E+00
 -1.64773E+03  4.17685E+02 -1.72863E+03 -2.95511E+02 -1.02782E+03 -2.39492E+03  1.54993E+02 -3.41578E+03
  3.94006E+03 -3.61425E+03  5.02317E+03  5.12991E+02  6.45077E+03  4.18907E+03  1.55776E+03  8.88105E+03
 -3.63503E+03  9.37952E+03 -9.36436E+03  5.30286E+03 -1.04017E+04 -8.82696E+02 -7.68467E+03 -5.84872E+03
 -3.34906E+03 -8.41909E+03  2.21942E+03 -8.07740E+03  4.86036E+03 -3.92022E+03  4.82769E+03 -5.27653E+02
  3.20951E+03  2.70746E+03 -1.60190E+01  2.81738E+03 -1.88968E+03  6.63029E+01  1.66346E+02 -1.49411E+03
  3.00157E+03 -4.83079E+02  2.87923E+03  7.26374E+02  1.61901E+03  3.16191E+03  9.78462E+00  4.20404E+03
 -4.65833E+03  3.18232E+03 -5.67949E+03  7.01214E+02 -5.11577E+03 -3.72506E+03 -6.39274E+02 -6.27177E+03
  3.98309E+03 -5.86734E+03  6.61896E+03 -1.22905E+03  6.34387E+03  1.63988E+03  3.77083E+03  6.33286E+03
  7.52909E+02  4.78811E+03 -2.39767E+03  4.75148E+03 -3.57487E+03  2.69603E+03 -1.99715E+03  3.22115E+02
 -1.80497E+03 -6.04468E+02 -1.54545E+03  8.32326E+02 -3.26021E+03  7.68118E+02 -4.59551E+03 -1.36601E+03
 -4.66296E+03 -2.73625E+03 -1.65102E+03 -5.21670E+03  3.06238E+03 -6.07457E+03  5.26076E+03 -2.70123E+03
  5.46129E+03  1.07917E+03  3.13461E+03  3.91122E+03 -2.92515E+02  5.67102E+03 -3.80530E+03  3.57090E+03
