 $NMID ID='MM_0lb_SNR400_15hz_g55_16.RAW', FMTDAT='(8E13.5)'
 TRAMP=1., VOLUME=1. $END
  3.09744E+05  6.66871E+02  3.37111E+05  2.50955E+05  8.46720E+04  3.38454E+05 -1.32420E+05  2.50872E+05
 -1.90425E+05  8.30536E+04 -1.11430E+05 -3.30546E+04  4.15909E+02 -5.07129E+04  5.35930E+04  3.12197E+02
  3.55117E+04  5.27699E+04 -1.63981E+04  7.61339E+04 -6.05478E+04  6.31257E+04 -8.41485E+04  3.17401E+04
 -8.11168E+04 -1.12896E+04 -5.71665E+04 -5.08953E+04 -1.49796E+04 -6.99366E+04  2.74898E+04 -4.60091E+04
  4.01611E+04  4.11424E+03  1.58317E+04  4.84687E+04 -3.39906E+04  4.70631E+04 -6.67891E+04 -1.61528E+02
 -5.34073E+04 -5.70355E+04 -6.38685E+03 -7.72824E+04  3.41578E+04 -5.47321E+04  4.83783E+04 -1.78920E+04
  4.35951E+04  1.09129E+04  3.17013E+04  2.48005E+04  1.60500E+04  2.92665E+04 -5.09305E+03  2.77505E+04
 -2.24058E+04  1.22268E+04 -1.84146E+04 -5.59421E+03  6.09183E+03 -7.81006E+03  2.21350E+04  1.19279E+04
  7.02721E+03  3.52703E+04 -3.27700E+04  3.54739E+04 -6.35515E+04  1.82594E+03 -5.63056E+04 -4.27610E+04
 -1.23835E+04 -6.30882E+04  3.98405E+04 -4.59445E+04  5.82806E+04 -1.68981E+03  3.42626E+04  3.25678E+04
 -5.86538E+03  3.58673E+04 -3.05142E+04  1.61901E+04 -3.00476E+04 -4.77487E+03 -1.63573E+04 -1.09792E+04
 -8.11903E+03 -1.29121E+04 -1.19632E+03 -1.78273E+04  8.16775E+03 -2.30729E+04  1.52775E+04 -1.34048E+04
  1.15075E+04  4.82281E+03 -8.21076E+03  1.30715E+04 -2.07092E+04 -4.52626E+03 -8.31511E+03 -3.29532E+04
  2.29357E+04 -4.39252E+04  4.84939E+04 -1.98162E+04  4.43541E+04  1.94674E+04  1.54984E+04  4.42253E+04
 -1.59804E+04  3.33540E+04 -2.52995E+04  1.65486E+03 -9.37409E+03 -2.82347E+04  2.09597E+04 -3.39270E+04
  4.13289E+04 -9.28479E+03  3.54336E+04  2.38969E+04  1.81237E+04  4.61996E+04 -8.00130E+03  5.02816E+04
 -3.16788E+04  3.35951E+04 -4.13811E+04  9.14904E+03 -4.30220E+04 -1.64181E+04 -2.30093E+04 -3.78879E+04
  6.64826E+03 -3.77592E+04  3.13612E+04 -1.52402E+04  2.88606E+04  1.06905E+04  3.82398E+03  1.88321E+04
 -1.32805E+04  8.68534E+03 -1.00659E+04 -7.28086E+03  5.91225E+03 -1.03699E+04  1.75817E+04  5.82474E+03
  1.33252E+04  2.22267E+04 -6.22217E+03  2.50199E+04 -2.16673E+04  1.12932E+04 -2.76988E+04 -4.91801E+03
 -2.05987E+04 -1.73607E+04 -8.79992E+03 -2.09056E+04  4.41507E+03 -1.94093E+04  1.58149E+04 -1.81785E+04
  2.58459E+04 -1.25916E+04  3.27872E+04  2.42211E+03  2.43077E+04  1.92839E+04  4.38224E+03  3.61206E+04
 -1.73261E+04  3.04692E+04 -2.80835E+04  1.02708E+04 -2.05278E+04 -1.03796E+04 -4.46713E+03 -1.37907E+04
  1.58779E+03 -3.19514E+03 -4.94215E+03  6.83365E+03 -1.60350E+04  5.66080E+03 -1.64275E+04 -7.61627E+03
 -9.98571E+03 -1.95003E+04  5.40143E+03 -2.29000E+04  1.49818E+04 -1.66853E+04  1.80131E+04 -9.11914E+02
  1.09258E+04  1.26075E+04 -1.07850E+03  1.90129E+04 -1.32709E+04  1.01804E+04 -1.80559E+04 -3.82931E+03
 -1.40284E+04 -1.67051E+04 -2.31183E+03 -2.25687E+04  1.00317E+04 -1.84709E+04  1.88492E+04 -9.52833E+03
  1.70743E+04  2.87322E+02  1.23673E+04  4.38456E+03  7.21248E+03  8.13256E+02  9.18946E+03 -1.88578E+03
  1.67704E+04  2.96740E+03  1.93153E+04  1.51558E+04  1.25117E+04  2.98162E+04 -3.01343E+03  3.36542E+04
 -1.95489E+04  2.71994E+04 -3.19230E+04  1.38491E+04 -3.33022E+04 -2.82196E+03 -2.71077E+04 -1.91477E+04
 -1.21654E+04 -2.69157E+04  8.57362E+03 -2.40904E+04  2.09839E+04 -1.29614E+04  1.90328E+04  5.77101E+03
  7.88068E+03  1.42285E+04 -9.14025E+03  1.26941E+04 -1.58116E+04  2.74643E+03 -1.31773E+04 -1.02042E+04
  7.11416E+01 -1.53632E+04  7.65692E+03 -1.11740E+04  1.04153E+04 -1.72018E+03  2.19638E+03  6.86835E+03
 -6.58838E+03  2.64440E+03 -5.84606E+03 -6.26315E+03 -8.38156E+02 -1.38542E+04  9.25385E+03 -1.36681E+04
  1.61083E+04 -7.43235E+03  1.82101E+04  3.84167E+03  1.51715E+04  1.24806E+04  7.51990E+03  1.98862E+04
 -3.80273E+03  2.15975E+04 -1.34973E+04  1.39356E+04 -1.55433E+04  2.74120E+03 -1.13572E+04 -3.61915E+03
 -4.73375E+03 -4.68327E+03 -7.23641E+02  4.34919E+02 -2.89705E+03  2.22754E+03 -4.92018E+03  4.06234E+03
 -1.01909E+04 -6.91245E+02 -1.15216E+04 -8.99820E+03 -4.56505E+03 -1.44609E+04  4.71894E+03 -1.10187E+04
  9.38222E+03 -4.72952E+03  6.10081E+03  3.00787E+03 -2.42304E+02  4.72446E+03 -5.07617E+03 -4.65668E+02
 -5.03415E+03 -6.56714E+03 -1.07711E+03 -1.01412E+04  5.48126E+03 -1.10634E+04  1.35240E+04 -5.68363E+03
  1.61679E+04  1.05378E+03  1.16573E+04  8.77824E+03  1.82834E+03  1.22525E+04 -6.63942E+03  1.05783E+04
 -9.58649E+03  3.95587E+03 -4.11314E+03 -1.79600E+03  1.96736E+03 -2.70256E+03  5.70815E+03 -1.47946E+03
  5.21193E+03  4.57865E+03  9.85309E+02  8.74311E+03 -6.23115E+03  8.39921E+03 -1.03819E+04  1.43890E+03
 -6.84803E+03 -5.06452E+03  7.17948E+02 -9.37971E+03  5.42447E+03 -4.30179E+03  5.57847E+03  1.90526E+03
  1.27371E+03  5.45019E+03 -6.00520E+03  7.89300E+03 -7.67816E+03  3.34684E+03 -7.75208E+03 -2.16513E+03
 -4.84860E+03 -9.39341E+03  2.13876E+03 -1.10950E+04  9.39774E+03 -7.77119E+03  9.78761E+03  1.16112E+03
  6.24765E+03  8.43551E+03 -4.05302E+02  9.83374E+03 -7.35747E+03  6.19675E+03 -8.34500E+03 -9.63209E+02
 -7.28955E+03 -7.58997E+03 -1.22508E+03 -7.68389E+03  4.17894E+03 -5.98851E+03  4.32484E+03 -2.71040E+03
  3.97746E+03  6.58553E+02 -6.64626E+01  2.03516E+03  6.14027E+01 -9.51219E+02  1.41803E+03 -3.70900E+03
  7.06067E+03 -1.83223E+03  9.34074E+03  8.92595E+02  8.79485E+03  5.55488E+03  7.06517E+03  1.19121E+04
 -2.63950E+03  1.29373E+04 -1.16021E+04  1.03916E+04 -1.56576E+04  1.79635E+03 -1.19672E+04 -5.02183E+03
 -6.29534E+03 -9.78194E+03 -2.17278E+02 -7.77917E+03  2.99455E+03 -3.90595E+03  3.18125E+03 -3.16157E+03
  1.74953E+03 -2.48047E+03  2.87351E+03 -2.30795E+03  4.07703E+03 -2.42522E+03  4.48253E+03 -1.00299E+02
  6.47966E+03  1.54985E+03  2.88663E+03  4.89994E+03 -1.57504E+03  5.13349E+03 -6.91933E+03  4.19852E+03
 -8.28340E+03 -9.89883E+02 -4.52992E+03 -5.76596E+03  5.39759E+02 -8.72281E+03  4.94615E+03 -8.29286E+03
  8.74073E+03 -5.35000E+03  1.03504E+04  7.34198E+02  8.31229E+03  7.08264E+03  1.64036E+03  9.34782E+03
 -3.77751E+03  8.57419E+03 -4.90753E+03  2.87761E+03 -3.27371E+03 -9.23472E+02 -1.25459E+03 -1.32171E+03
 -6.50931E+02 -4.44795E+01 -1.57453E+03  1.57680E+03 -3.61768E+03  1.46642E+03 -5.23212E+03 -5.57848E+02
 -3.13731E+03 -5.93078E+03  1.27094E+03 -7.85024E+03  4.03143E+03 -7.03641E+03  6.56929E+03 -2.20173E+03
  7.06621E+03  4.35750E+03  3.04494E+03  5.53860E+03 -1.84277E+03  7.19706E+03 -4.75670E+03  4.63928E+03
 -6.83704E+03  3.28082E+01 -5.37292E+03 -4.12207E+03 -5.56257E+02 -5.61817E+03  2.52690E+03 -4.11902E+03
  4.34044E+03 -1.41441E+03  2.77597E+03  9.97977E+02  5.97874E+02  2.54776E+03  1.06548E+03  8.18679E+02
  2.23780E+03  6.40393E+02  1.46350E+03  1.84631E+03  2.47462E+03  3.24931E+03  2.29722E+03  3.56775E+03
 -1.80457E+03  5.72258E+03 -4.74094E+03  5.93954E+03 -6.19815E+03  1.53511E+03 -7.06192E+03 -1.88681E+03
 -3.23083E+03 -6.98544E+03  1.42884E+03 -7.42689E+03  3.53007E+03 -4.36929E+03  6.03010E+03 -1.69708E+03
  4.61232E+03  2.36821E+03  4.88570E+02  4.61164E+03 -1.45659E+03  2.33986E+03 -2.20108E+03 -3.08363E+02
 -1.51392E+03 -2.69642E+03  1.49522E+03 -2.98009E+03  3.29687E+03 -1.45566E+03  2.59363E+03  4.78000E+02
  1.87255E+03  1.53690E+03  1.13898E+03  9.52998E+02 -4.18996E+02  1.14078E+03  1.92282E+03  5.24473E+01
  2.80663E+02 -4.76420E+02  3.01056E+03  3.67581E+02  1.03761E+03  3.67184E+03 -8.60670E+02  4.64689E+03
 -2.96981E+03  2.84903E+03 -3.42820E+03  8.81230E+02 -3.84819E+03 -1.22919E+03 -1.20930E+03 -2.92605E+03
  3.82614E+02 -2.69720E+03  1.92355E+03 -1.18400E+03  8.24728E+02  1.39249E+03 -1.16763E+03  2.22008E+03
 -2.53537E+03  2.09709E+03 -2.86920E+03 -1.47535E+03 -2.00114E+03 -3.25539E+03  6.11970E+02 -2.99048E+03
  1.53700E+03 -1.87280E+03  2.32921E+03  4.96402E+01  2.34245E+03  2.05945E+02  8.81433E+02  1.96450E+03
 -1.02035E+03  7.85451E+01 -1.44653E+03 -8.73900E+02  1.06168E+03 -2.40618E+03  3.41046E+03 -1.84511E+03
  3.15908E+03  1.66946E+02  4.18591E+03  2.02379E+03  2.05470E+03  3.94965E+03 -8.37462E+02  3.30098E+03
 -3.33147E+03  8.67147E+02 -2.57713E+03 -4.57776E+02 -1.61718E+03 -2.63981E+03  2.65380E+02 -1.44317E+03
  2.40004E+03 -1.20356E+03  1.73946E+03  7.05568E+02  9.62156E+02  2.01877E+03  4.20003E+02  1.85818E+03
 -7.47577E+02  1.42722E+03 -6.85833E+02  5.98861E+02  2.34328E+02  4.81958E+02 -7.21692E+02  1.25685E+03
 -9.20101E+02  1.36399E+03 -3.00748E+03  1.04147E+03 -3.56640E+03  4.44083E+02 -4.48228E+03 -1.83876E+03
 -2.33267E+03 -4.70859E+03  1.03158E+03 -5.17037E+03  2.35868E+03 -4.46811E+03  4.91943E+03 -1.62663E+03
  4.86228E+03  1.78599E+02  2.76034E+03  3.62470E+03 -7.74276E+02  3.29807E+03 -1.30861E+03  2.59623E+03
 -1.72543E+03  1.12453E+03 -9.66514E+02 -1.76351E+02 -3.90296E+02 -3.71114E+02 -1.58792E+02 -2.05860E+01
 -1.35371E+03  8.46940E+01 -1.19173E+03 -1.69381E+02 -4.59891E+00 -8.00711E+02 -4.19316E+02 -2.20175E+03
  1.89148E+03 -1.45028E+03  8.65324E+02  1.53791E+02  2.60385E+03  2.20284E+03 -1.77901E+02  2.83457E+03
 -1.76866E+03  3.86094E+03 -3.15537E+03  2.42565E+03 -3.70398E+03 -1.04900E+02 -2.31866E+03 -2.40717E+03
 -1.54258E+03 -3.69628E+03  1.04181E+03 -3.42306E+03  1.86562E+03 -1.39530E+03  1.75472E+03  6.11953E+02
  1.09857E+03  6.80366E+02  6.56122E+02  9.53300E+02 -3.15909E+02  4.27891E+01  2.25504E+02 -8.56348E+02
  1.69699E+03 -1.19687E+02  1.45516E+03  7.26090E+01  6.80606E+02  4.80831E+02  5.56251E+02  1.34244E+03
 -2.00197E+03  1.06295E+03 -1.72872E+03 -2.28672E+02 -1.54604E+03 -9.65255E+02  7.19737E+02 -2.88417E+03
  1.84902E+03 -1.91771E+03  1.31934E+03 -4.59896E+02  2.69246E+03 -1.03430E+03  8.97592E+02  1.88936E+03
  5.37541E+02  1.18200E+03 -5.42367E+02  1.85706E+03 -1.33830E+03  1.48303E+03 -8.77047E+02  6.45838E+01
 -2.98712E+02  2.78158E+02 -4.56982E+02  7.95323E+02 -1.57665E+03  1.15035E+03 -1.34150E+03 -1.12965E+02
 -1.88138E+03 -4.33468E+02 -4.35593E+02 -1.41379E+03  1.47161E+03 -3.25564E+03  1.50533E+03 -1.28739E+03
  1.70388E+03  6.99955E+02  1.29386E+02  1.05206E+03 -2.59353E+02  2.07023E+03 -1.46423E+03  1.29352E+03
