 $NMID ID='MM_0lb_SNR400_13hz_g40_23.RAW', FMTDAT='(8E13.5)'
 TRAMP=1., VOLUME=1. $END
  3.09688E+05  3.22905E+02  3.37930E+05  2.50454E+05  8.39993E+04  3.38143E+05 -1.33301E+05  2.50890E+05
 -1.90747E+05  8.27651E+04 -1.12208E+05 -3.28536E+04  1.26886E+03 -5.05477E+04  5.34156E+04  6.76353E+02
  3.53208E+04  5.28597E+04 -1.68488E+04  7.57955E+04 -6.02236E+04  6.36416E+04 -8.38205E+04  3.21294E+04
 -8.10933E+04 -1.13800E+04 -5.69616E+04 -5.18616E+04 -1.49611E+04 -6.92404E+04  2.72251E+04 -4.56615E+04
  4.00659E+04  3.49042E+03  1.66136E+04  4.75426E+04 -3.47159E+04  4.69944E+04 -6.62422E+04 -4.01263E+02
 -5.38576E+04 -5.66184E+04 -6.49472E+03 -7.67089E+04  3.32118E+04 -5.53279E+04  4.80529E+04 -1.71551E+04
  4.40950E+04  1.23468E+04  3.15288E+04  2.58763E+04  1.51646E+04  2.95593E+04 -5.07406E+03  2.75868E+04
 -2.19916E+04  1.18913E+04 -1.82911E+04 -4.80179E+03  5.04433E+03 -6.90444E+03  2.24908E+04  1.19821E+04
  7.40690E+03  3.49265E+04 -3.20306E+04  3.54580E+04 -6.30267E+04  1.69421E+03 -5.70320E+04 -4.26636E+04
 -1.24674E+04 -6.33494E+04  3.92767E+04 -4.52703E+04  5.83010E+04 -2.15739E+03  3.35825E+04  3.27250E+04
 -6.49674E+03  3.64618E+04 -3.02969E+04  1.60352E+04 -3.02411E+04 -4.38438E+03 -1.65266E+04 -1.07931E+04
 -8.61770E+03 -1.27953E+04 -2.57264E+02 -1.77423E+04  7.52094E+03 -2.35568E+04  1.53865E+04 -1.30652E+04
  1.13454E+04  5.44243E+03 -7.91863E+03  1.27561E+04 -2.03890E+04 -4.40439E+03 -8.40867E+03 -3.36320E+04
  2.25774E+04 -4.32256E+04  4.80857E+04 -1.99567E+04  4.47341E+04  1.90010E+04  1.51947E+04  4.44065E+04
 -1.58631E+04  3.30988E+04 -2.54460E+04  1.47224E+03 -9.49133E+03 -2.79491E+04  2.09593E+04 -3.39238E+04
  4.11177E+04 -8.89049E+03  3.51377E+04  2.37372E+04  1.85272E+04  4.61758E+04 -8.26891E+03  5.00196E+04
 -3.14285E+04  3.38201E+04 -4.22268E+04  9.32808E+03 -4.28232E+04 -1.58476E+04 -2.34660E+04 -3.84141E+04
  7.88494E+03 -3.76098E+04  3.14984E+04 -1.43470E+04  2.92205E+04  1.08503E+04  3.85603E+03  1.89785E+04
 -1.33787E+04  8.70817E+03 -1.02635E+04 -7.34143E+03  5.64002E+03 -9.90960E+03  1.77519E+04  6.15214E+03
  1.40970E+04  2.15300E+04 -5.46825E+03  2.50916E+04 -2.26287E+04  1.13198E+04 -2.78623E+04 -4.48455E+03
 -2.07169E+04 -1.73998E+04 -9.13403E+03 -2.06074E+04  3.69981E+03 -1.95078E+04  1.57384E+04 -1.84715E+04
  2.66733E+04 -1.25403E+04  3.23548E+04  2.03837E+03  2.38998E+04  1.99428E+04  4.21932E+03  3.65783E+04
 -1.75497E+04  3.02693E+04 -2.84290E+04  1.04414E+04 -2.07596E+04 -9.78481E+03 -4.37525E+03 -1.38807E+04
  2.70541E+03 -2.75196E+03 -4.97076E+03  6.91116E+03 -1.54995E+04  5.53072E+03 -1.59555E+04 -7.31169E+03
 -1.01615E+04 -1.93960E+04  5.33196E+03 -2.32624E+04  1.54023E+04 -1.66023E+04  1.84895E+04 -1.48003E+03
  1.18324E+04  1.29137E+04 -6.55069E+02  1.91058E+04 -1.28880E+04  1.14200E+04 -1.94697E+04 -4.00385E+03
 -1.36339E+04 -1.69270E+04 -1.72880E+03 -2.30219E+04  1.05306E+04 -1.89530E+04  1.93390E+04 -9.50588E+03
  1.74406E+04  3.06543E+02  1.26078E+04  4.14384E+03  6.78077E+03  9.58768E+02  9.33501E+03 -1.52701E+03
  1.73352E+04  2.62699E+03  1.89238E+04  1.55872E+04  1.32051E+04  3.06688E+04 -3.04250E+03  3.46012E+04
 -2.03361E+04  2.74638E+04 -3.17951E+04  1.40553E+04 -3.37992E+04 -2.18129E+03 -2.82546E+04 -1.94982E+04
 -1.21551E+04 -2.84486E+04  9.25776E+03 -2.47652E+04  2.13581E+04 -1.32368E+04  1.96298E+04  5.66560E+03
  7.29321E+03  1.42578E+04 -8.91212E+03  1.32542E+04 -1.63159E+04  2.95781E+03 -1.23858E+04 -1.03664E+04
 -4.56493E+02 -1.57369E+04  7.82438E+03 -1.13112E+04  1.07903E+04 -1.68499E+03  2.40987E+03  6.58780E+03
 -7.15875E+03  2.17126E+03 -6.27717E+03 -5.80332E+03 -9.93991E+02 -1.35118E+04  9.42478E+03 -1.47811E+04
  1.64444E+04 -7.64892E+03  1.78428E+04  3.66659E+03  1.60376E+04  1.40883E+04  7.89857E+03  2.05927E+04
 -3.19413E+03  2.20807E+04 -1.41341E+04  1.43527E+04 -1.63149E+04  3.31713E+03 -1.07367E+04 -4.00456E+03
 -6.23935E+03 -4.90668E+03 -7.32290E+02  6.92431E+02 -2.75488E+03  2.54370E+03 -5.67333E+03  4.42510E+03
 -1.06343E+04 -1.12168E+03 -1.12527E+04 -8.84008E+03 -4.44075E+03 -1.55216E+04  5.04574E+03 -1.10641E+04
  9.59072E+03 -4.84086E+03  6.57620E+03  2.91086E+03 -3.13699E+02  4.56460E+03 -4.94062E+03 -3.92602E+02
 -5.00697E+03 -7.50280E+03 -1.47389E+03 -1.13927E+04  6.18365E+03 -1.16178E+04  1.41633E+04 -5.56000E+03
  1.69794E+04  1.76654E+03  1.31929E+04  9.50039E+03  1.82199E+03  1.29560E+04 -7.48355E+03  1.08123E+04
 -9.94767E+03  3.46638E+03 -4.62059E+03 -1.41895E+03  2.34239E+03 -2.62409E+03  5.87971E+03 -8.25696E+02
  5.61618E+03  4.96085E+03  4.30474E+02  9.69132E+03 -6.27423E+03  8.62175E+03 -1.09726E+04  2.40568E+03
 -6.76684E+03 -4.67057E+03  2.70540E+02 -8.92873E+03  6.11492E+03 -5.10211E+03  6.49146E+03  2.54749E+03
  1.41946E+03  6.33322E+03 -5.46100E+03  7.34035E+03 -8.13356E+03  3.46852E+03 -8.29573E+03 -2.62843E+03
 -5.14985E+03 -9.78753E+03  2.57702E+03 -1.22395E+04  1.03706E+04 -7.36678E+03  1.06374E+04  1.33924E+03
  6.93851E+03  8.81037E+03 -1.67072E+02  1.05829E+04 -7.63415E+03  6.01422E+03 -7.99067E+03 -7.17136E+02
 -8.33596E+03 -7.88707E+03 -2.06102E+03 -8.81963E+03  4.63306E+03 -6.96082E+03  5.39216E+03 -2.67976E+03
  3.98985E+03  7.74733E+02 -9.73126E+02  1.63545E+03  7.29232E+02 -2.16630E+03  8.66442E+02 -4.04913E+03
  7.46673E+03 -2.70155E+03  1.00285E+04  6.68908E+02  9.97445E+03  6.93641E+03  7.22366E+03  1.31840E+04
 -3.14043E+03  1.52444E+04 -1.29201E+04  1.08528E+04 -1.65191E+04  2.46222E+03 -1.37270E+04 -5.30262E+03
 -6.40021E+03 -1.08465E+04 -9.95249E+02 -8.71307E+03  3.44548E+03 -4.71466E+03  2.59697E+03 -3.30402E+03
  2.49571E+03 -1.54543E+03  2.56171E+03 -2.45745E+03  4.53260E+03 -2.39721E+03  5.78285E+03 -6.50767E+00
  7.33985E+03  1.66329E+03  2.53451E+03  5.33752E+03 -2.05758E+03  6.08424E+03 -7.10692E+03  5.58887E+03
 -8.91626E+03 -1.53658E+03 -4.76307E+03 -6.21141E+03 -2.61269E+02 -9.46539E+03  5.21834E+03 -9.65808E+03
  9.85040E+03 -5.55615E+03  1.19566E+04  1.59009E+03  8.51510E+03  8.15976E+03  1.06186E+03  1.07837E+04
 -4.33895E+03  9.39712E+03 -6.28271E+03  3.25575E+03 -4.26904E+03 -1.35836E+03 -1.06841E+03 -1.56958E+03
 -1.36946E+03  4.71452E+02 -1.72359E+03  2.10409E+03 -4.26724E+03  1.63968E+03 -6.81336E+03 -6.73090E+02
 -4.02413E+03 -6.43511E+03  5.60565E+02 -9.10880E+03  5.23223E+03 -8.14658E+03  8.70448E+03 -2.52968E+03
  8.12130E+03  4.82359E+03  3.31042E+03  7.00962E+03 -1.51517E+03  8.15850E+03 -6.06294E+03  5.13990E+03
 -7.54679E+03  1.10345E+03 -6.47596E+03 -5.10069E+03 -5.95931E+02 -6.94906E+03  3.48920E+03 -5.38502E+03
  4.93721E+03 -1.24922E+03  3.35992E+03  9.00222E+02  1.29716E+03  3.15153E+03  5.83933E+02  8.88146E+02
  2.18977E+03  8.45591E+02  2.50805E+03  9.36167E+02  2.34539E+03  2.93488E+03  3.10657E+03  4.72615E+03
 -1.38524E+03  6.68869E+03 -5.41718E+03  7.11644E+03 -7.45227E+03  2.07649E+03 -9.09628E+03 -1.97871E+03
 -4.00213E+03 -7.55963E+03  1.03323E+03 -9.12138E+03  4.75603E+03 -5.85917E+03  6.49621E+03 -1.78597E+03
  5.64276E+03  3.43967E+03  1.53859E+03  5.09398E+03 -2.38678E+03  3.08321E+03 -3.52469E+03 -5.06691E+02
 -1.49153E+03 -3.11989E+03  1.91654E+03 -3.50151E+03  3.38670E+03 -2.01880E+03  2.43953E+03  7.40207E+02
  1.92762E+03  1.24654E+03  6.00767E+02  4.24881E+02 -5.06985E+02  1.99706E+03  1.33463E+03 -7.02008E+02
  7.57606E+02 -2.85281E+02  3.87948E+03  1.52710E+03  7.94434E+02  4.84795E+03 -1.05626E+03  5.44008E+03
 -4.22925E+03  3.01166E+03 -5.15374E+03  8.04453E+02 -4.46075E+03 -1.87334E+03 -1.28859E+03 -3.52363E+03
  3.73337E+02 -3.22138E+03  2.32657E+03 -1.87368E+03  1.70782E+03  2.45333E+03 -5.17545E+02  2.56439E+03
 -3.66990E+03  9.20657E+02 -3.64663E+03 -2.14350E+03 -1.70275E+03 -4.83060E+03  8.71210E+01 -4.15192E+03
  2.31908E+03 -1.86302E+03  2.78267E+03 -4.55770E+02  3.17597E+03  5.77756E+02  6.22821E+02  2.32549E+03
 -9.75823E+02  5.69487E+01 -1.78129E+03 -1.18612E+03  1.50647E+03 -3.74263E+03  4.33183E+03 -2.52201E+03
  4.23832E+03  2.47611E+02  5.32113E+03  3.09701E+03  2.24980E+03  5.13978E+03 -1.29708E+03  4.78394E+03
 -3.43618E+03  1.69402E+03 -3.55468E+03 -1.22331E+03 -2.18362E+03 -3.07018E+03  9.78791E+02 -2.74768E+03
  3.87916E+03 -1.57547E+03  2.01338E+03  7.65208E+02  4.53935E+02  2.65859E+03 -1.16865E+03  3.07069E+03
 -1.58826E+03  2.38611E+03 -8.20711E+02  4.17422E+02 -3.29107E+02  8.61838E+02 -1.24156E+03  1.39208E+03
 -1.04179E+03  1.59268E+03 -3.90663E+03  1.70174E+03 -4.55328E+03  4.32578E+02 -5.46698E+03 -3.11994E+03
 -3.26206E+03 -6.24602E+03  1.21948E+03 -8.23343E+03  3.65842E+03 -5.85046E+03  6.74835E+03 -2.48772E+03
  6.40571E+03  8.91792E+02  3.50738E+03  4.42970E+03  6.14492E+02  5.10723E+03 -2.50312E+03  3.85905E+03
 -2.84016E+03  1.38708E+03 -1.51482E+03 -8.11350E+02 -1.05341E+03 -8.55682E+02 -6.93321E+02 -4.46141E+02
 -1.39334E+03  3.91899E+02 -1.45326E+03  4.40640E+02 -2.87365E+02 -1.16946E+03 -7.43346E+01 -2.06086E+03
  2.87226E+03 -1.72104E+03  2.11392E+03  7.46321E+02  3.73615E+03  2.67238E+03  2.33690E+02  4.70529E+03
 -2.84524E+03  5.81678E+03 -5.14067E+03  3.05440E+03 -5.47844E+03 -8.28111E+00 -3.84983E+03 -3.84823E+03
 -1.65081E+03 -4.64878E+03  4.98186E+02 -3.96579E+03  2.41650E+03 -2.04330E+03  2.86729E+03  3.11911E+02
  1.84841E+03  8.58249E+02  2.38928E+01  1.56567E+03 -7.70628E+02 -5.24735E+02 -7.02505E+01 -9.18346E+02
  1.88533E+03 -1.15458E+02  1.53051E+03  7.20126E+02  9.98724E+02  2.11709E+03 -1.23706E+02  2.21030E+03
 -2.53989E+03  2.24250E+03 -2.48286E+03 -2.10079E+02 -3.08743E+03 -2.21162E+03 -2.34880E+02 -3.60623E+03
  1.89606E+03 -3.63842E+03  3.50185E+03 -8.61583E+02  3.07059E+03  2.22599E+02  2.20578E+03  3.10769E+03
  1.50265E+02  2.94573E+03 -9.88913E+02  1.73790E+03 -1.85685E+03  2.05264E+03 -2.13788E+03  1.08565E+03
 -5.07124E+02 -1.87531E+02 -9.55253E+02  6.32146E+02 -2.44813E+03 -6.75343E+01 -2.21756E+03 -6.58597E+02
 -2.60488E+03 -1.29502E+03 -5.02938E+02 -2.13012E+03  1.59238E+03 -2.91541E+03  2.76531E+03 -8.90830E+02
  3.31825E+03  8.84640E+02  7.75901E+02  2.19561E+03 -3.10996E+01  3.31759E+03 -2.21994E+03  1.94484E+03
