 $NMID ID='MM_0lb_SNR400_8hz_g45_77.RAW', FMTDAT='(8E13.5)'
 TRAMP=1., VOLUME=1. $END
  3.10225E+05  3.22754E+02  3.37816E+05  2.51082E+05  8.51882E+04  3.39020E+05 -1.32592E+05  2.52033E+05
 -1.90712E+05  8.44714E+04 -1.12662E+05 -3.21329E+04  3.95232E+02 -5.08287E+04  5.43167E+04 -7.69808E+02
  3.55456E+04  5.32806E+04 -1.59325E+04  7.65919E+04 -6.08819E+04  6.59681E+04 -8.47694E+04  3.30638E+04
 -8.22156E+04 -1.23856E+04 -5.81424E+04 -5.22258E+04 -1.43334E+04 -7.10537E+04  2.71915E+04 -4.69621E+04
  4.09692E+04  3.22437E+03  1.67649E+04  4.91527E+04 -3.43247E+04  4.86461E+04 -6.79313E+04  1.15702E+02
 -5.43774E+04 -5.77554E+04 -7.70573E+03 -7.95641E+04  3.43590E+04 -5.74895E+04  5.00038E+04 -1.81147E+04
  4.61757E+04  1.20797E+04  3.27065E+04  2.67613E+04  1.62262E+04  3.00976E+04 -6.53941E+03  2.76464E+04
 -2.28505E+04  1.19472E+04 -1.71281E+04 -5.58791E+03  6.65143E+03 -7.15761E+03  2.30943E+04  1.37274E+04
  7.32108E+03  3.75396E+04 -3.42461E+04  3.75313E+04 -6.56954E+04  1.98290E+03 -5.83237E+04 -4.53680E+04
 -1.23220E+04 -6.67651E+04  4.19340E+04 -4.73043E+04  6.15697E+04 -1.71210E+03  3.79068E+04  3.42225E+04
 -5.72964E+03  3.99348E+04 -3.21365E+04  1.88401E+04 -3.38552E+04 -3.75975E+03 -1.86735E+04 -1.14955E+04
 -9.40508E+03 -1.52592E+04 -1.74840E+02 -2.07384E+04  9.24873E+03 -2.34359E+04  1.57677E+04 -1.22791E+04
  1.09408E+04  6.34423E+03 -1.11238E+04  1.33759E+04 -2.34707E+04 -6.62629E+03 -8.83263E+03 -3.78997E+04
  2.50365E+04 -4.77342E+04  5.16179E+04 -2.08428E+04  4.91360E+04  2.12162E+04  1.75752E+04  4.69916E+04
 -1.61091E+04  3.67834E+04 -2.82428E+04  3.06050E+03 -1.25898E+04 -2.97848E+04  2.16635E+04 -3.70646E+04
  4.42809E+04 -1.17586E+04  4.10380E+04  2.53234E+04  2.10810E+04  5.12664E+04 -8.18646E+03  5.67426E+04
 -3.55984E+04  3.87659E+04 -4.76189E+04  1.16124E+04 -4.81136E+04 -1.88109E+04 -2.64136E+04 -4.23169E+04
  7.60474E+03 -4.22754E+04  3.47360E+04 -1.74332E+04  3.25752E+04  1.14956E+04  5.06453E+03  2.11224E+04
 -1.41667E+04  9.72362E+03 -1.25378E+04 -8.13277E+03  5.70426E+03 -1.20101E+04  1.89576E+04  5.23439E+03
  1.56394E+04  2.30232E+04 -4.88006E+03  2.71541E+04 -2.38261E+04  1.42744E+04 -3.10312E+04 -2.71198E+03
 -2.55668E+04 -1.78826E+04 -1.22324E+04 -2.55924E+04  3.72012E+03 -2.59378E+04  1.98463E+04 -2.43450E+04
  3.15368E+04 -1.45726E+04  3.90332E+04  4.82125E+03  2.78207E+04  2.54751E+04  4.32587E+03  4.14065E+04
 -1.98879E+04  3.42827E+04 -3.04425E+04  1.21713E+04 -2.34807E+04 -1.10526E+04 -5.00899E+03 -1.31231E+04
  6.26388E+02 -8.12923E+02 -7.99011E+03  8.17019E+03 -1.98689E+04  5.44161E+03 -1.99664E+04 -1.00912E+04
 -1.18648E+04 -2.43035E+04  5.29611E+03 -2.83696E+04  1.97948E+04 -1.99311E+04  2.41014E+04 -2.17568E+03
  1.41512E+04  1.62067E+04 -1.29730E+03  2.38564E+04 -1.66972E+04  1.44229E+04 -2.46157E+04 -5.73719E+03
 -1.80300E+04 -2.14926E+04 -3.15504E+03 -2.86522E+04  1.29939E+04 -2.35534E+04  2.37209E+04 -1.27720E+04
  2.21018E+04 -8.49559E+02  1.67903E+04  5.74758E+03  8.82895E+03  7.08522E+02  1.15121E+04 -2.47231E+03
  2.26282E+04  3.30872E+03  2.62120E+04  1.93762E+04  1.81878E+04  3.93269E+04 -3.12168E+03  4.56661E+04
 -2.52558E+04  3.78282E+04 -4.44406E+04  2.09664E+04 -4.55702E+04 -3.10717E+03 -3.69281E+04 -2.67095E+04
 -1.47351E+04 -3.77484E+04  1.26599E+04 -3.40265E+04  2.89251E+04 -1.48842E+04  2.47951E+04  7.62594E+03
  8.23761E+03  1.93862E+04 -1.18807E+04  1.64999E+04 -2.06697E+04  1.83426E+03 -1.52099E+04 -1.37114E+04
 -6.59917E+02 -2.05585E+04  1.07525E+04 -1.50645E+04  1.39922E+04 -1.19404E+03  3.44617E+03  9.22645E+03
 -9.93407E+03  4.11168E+03 -9.58984E+03 -6.78610E+03 -2.32400E+03 -1.85406E+04  1.21043E+04 -2.07042E+04
  2.33526E+04 -1.12248E+04  2.77147E+04  3.99298E+03  2.32581E+04  2.07015E+04  1.15372E+04  3.03674E+04
 -5.70001E+03  3.25764E+04 -2.10022E+04  2.03008E+04 -2.37496E+04  4.28426E+03 -1.55233E+04 -6.33662E+03
 -7.00779E+03 -7.53865E+03 -6.76088E+02  5.48958E+02 -3.26483E+03  4.10062E+03 -7.27765E+03  5.35143E+03
 -1.47670E+04 -8.66767E+02 -1.57775E+04 -1.23494E+04 -7.01670E+03 -1.90853E+04  7.01271E+03 -1.64021E+04
  1.35083E+04 -6.17951E+03  9.38662E+03  4.86812E+03 -1.49703E+03  6.74812E+03 -7.84663E+03  7.75652E+01
 -8.09552E+03 -9.87113E+03 -6.99891E+02 -1.64105E+04  9.80660E+03 -1.74301E+04  2.16347E+04 -9.84382E+03
  2.42374E+04  2.44726E+03  1.79770E+04  1.49542E+04  3.14687E+03  2.00162E+04 -1.03660E+04  1.66838E+04
 -1.37684E+04  4.35655E+03 -6.57595E+03 -3.21895E+03  2.32875E+03 -5.20304E+03  8.67118E+03 -6.57058E+02
  6.44777E+03  7.01824E+03  9.65608E+02  1.42744E+04 -8.53752E+03  1.23315E+04 -1.66031E+04  3.63887E+03
 -1.19376E+04 -7.79326E+03  7.89867E+02 -1.37870E+04  9.04129E+03 -7.06752E+03  9.98823E+03  3.26236E+03
  3.00203E+03  1.10617E+04 -8.20720E+03  1.18187E+04 -1.40600E+04  4.90529E+03 -1.45082E+04 -4.45649E+03
 -8.53891E+03 -1.65383E+04  4.29357E+03 -1.99708E+04  1.62006E+04 -1.14725E+04  1.74756E+04  2.78184E+03
  1.05992E+04  1.50605E+04 -2.34694E+03  1.66309E+04 -1.27265E+04  9.32614E+03 -1.33874E+04 -2.06806E+03
 -1.04584E+04 -1.11477E+04 -1.85994E+03 -1.28175E+04  7.17890E+03 -1.07324E+04  8.08179E+03 -3.30236E+03
  4.26893E+03  2.09661E+03 -7.83739E+02  1.19186E+03 -1.24682E+03 -4.04031E+03  3.99142E+03 -7.86181E+03
  1.20571E+04 -4.78371E+03  1.70513E+04  1.89437E+03  1.69201E+04  1.25341E+04  1.07229E+04  2.31008E+04
 -4.96989E+03  2.56028E+04 -2.06787E+04  1.87434E+04 -2.80448E+04  3.83940E+03 -2.26555E+04 -9.86528E+03
 -1.17183E+04 -1.88715E+04 -9.58929E+02 -1.53685E+04  5.59599E+03 -8.66511E+03  5.73763E+03 -5.09129E+03
  5.24039E+03 -3.70961E+03  3.88591E+03 -3.51972E+03  6.07722E+03 -4.39659E+03  8.33762E+03 -1.49874E+03
  1.14921E+04  2.20030E+03  5.82567E+03  1.04017E+04 -3.06379E+03  1.17067E+04 -1.14994E+04  8.64431E+03
 -1.57938E+04 -1.30350E+03 -1.05637E+04 -1.06308E+04 -2.03888E+03 -1.71230E+04  8.20984E+03 -1.74357E+04
  1.85529E+04 -1.03821E+04  2.15017E+04  3.22584E+03  1.38002E+04  1.46134E+04  1.55519E+03  1.91893E+04
 -7.81173E+03  1.57833E+04 -1.15723E+04  5.25211E+03 -7.74374E+03 -1.53604E+03 -3.18595E+03 -2.44317E+03
 -2.70583E+03 -1.60944E+03 -2.39898E+03  2.74847E+03 -6.76627E+03  2.53429E+03 -1.11608E+04 -1.38236E+03
 -7.79656E+03 -1.14353E+04 -1.47676E+02 -1.64511E+04  9.52903E+03 -1.49842E+04  1.58273E+04 -4.10470E+03
  1.57375E+04  7.91514E+03  7.16439E+03  1.48941E+04 -3.93254E+03  1.62896E+04 -1.20048E+04  1.01891E+04
 -1.57195E+04 -1.44463E+02 -1.23530E+04 -9.90914E+03 -1.64963E+03 -1.34125E+04  7.84462E+03 -9.03968E+03
  1.03229E+04 -3.39954E+03  7.05116E+03  3.41690E+03  2.17941E+03  4.89817E+03  1.70385E+03  2.38909E+03
  3.54954E+03  1.23270E+03  3.69016E+03  2.37957E+03  4.12784E+03  5.41706E+03  3.56444E+03  8.86454E+03
 -2.91026E+03  1.26446E+04 -1.11908E+04  1.31073E+04 -1.70558E+04  3.11318E+03 -1.67466E+04 -7.33342E+03
 -7.95031E+03 -1.64973E+04  1.79623E+03 -1.84908E+04  9.32453E+03 -1.13248E+04  1.36399E+04 -3.03384E+03
  1.01574E+04  7.10207E+03  2.74587E+03  1.06446E+04 -3.90254E+03  5.80693E+03 -6.62899E+03 -1.23744E+03
 -2.97704E+03 -7.14761E+03  4.01726E+03 -7.37186E+03  6.78920E+03 -2.89290E+03  7.07169E+03  1.73182E+03
  5.00558E+03  3.96283E+03  1.73261E+03  3.12294E+03 -8.46846E+02  2.55121E+03  2.16013E+03 -1.36208E+03
  3.00677E+03 -1.21387E+03  6.44570E+03  2.81985E+03  4.29613E+03  8.21207E+03 -6.89003E+02  1.18007E+04
 -8.01441E+03  7.33179E+03 -1.05538E+04  1.80257E+03 -9.85557E+03 -3.31575E+03 -4.17440E+03 -6.02241E+03
  7.08332E+02 -6.48112E+03  4.62367E+03 -3.15424E+03  4.21065E+03  3.29131E+03 -1.92391E+03  5.26189E+03
 -7.05898E+03  3.45557E+03 -8.44026E+03 -4.59871E+03 -4.84303E+03 -8.56448E+03  1.74747E+03 -9.98611E+03
  5.82732E+03 -5.43780E+03  6.85399E+03  5.85968E+01  5.24335E+03  1.88673E+03  6.63944E+02  4.77770E+03
 -3.19762E+03  1.95741E+03 -4.09311E+03 -3.55235E+03  1.47488E+03 -7.72334E+03  8.42991E+03 -5.57844E+03
  1.12433E+04  1.02926E+03  1.04080E+04  7.38726E+03  2.89984E+03  1.11386E+04 -3.45331E+03  1.10255E+04
 -1.00222E+04  4.66869E+03 -8.59508E+03 -2.77504E+03 -5.98480E+03 -6.85106E+03  1.58864E+03 -6.53668E+03
  6.23553E+03 -3.82704E+03  5.15173E+03  3.63049E+03  1.40223E+03  6.44000E+03 -9.60582E+02  5.67622E+03
 -3.38423E+03  3.11112E+03 -2.28457E+03  7.85028E+01 -1.91623E+03  5.28953E+02 -1.60414E+03  2.20725E+03
 -3.63199E+03  4.30052E+03 -8.37976E+03  4.46566E+03 -1.14490E+04  3.01537E+02 -1.26142E+04 -8.13251E+03
 -6.59311E+03 -1.54683E+04  2.64735E+03 -1.65713E+04  1.11908E+04 -1.39219E+04  1.60200E+04 -5.08509E+03
  1.61552E+04  4.51357E+03  9.80280E+03  1.07595E+04  1.38993E+03  1.22364E+04 -4.70199E+03  8.87515E+03
 -6.90726E+03  2.51871E+03 -3.50229E+03 -1.59486E+03 -1.32742E+03 -2.14425E+03 -1.78472E+02 -6.78331E+02
 -1.60831E+03  1.61634E+03 -2.98201E+03  1.98229E+02 -1.02411E+03 -2.63036E+03  6.89227E+02 -4.26582E+03
  5.40653E+03 -3.71572E+03  6.85077E+03  4.90998E+01  8.72203E+03  6.95949E+03  3.03556E+03  1.22201E+04
 -6.19952E+03  1.31936E+04 -1.25751E+04  6.70872E+03 -1.44470E+04 -1.64668E+03 -1.05930E+04 -9.75842E+03
 -4.24284E+03 -1.26235E+04  3.88147E+03 -1.15825E+04  7.82713E+03 -6.23947E+03  8.38014E+03 -2.42811E+01
  4.42896E+03  3.48522E+03 -2.48851E+02  3.31557E+03 -2.75280E+03 -2.97859E+02  6.04113E+02 -2.51657E+03
  3.21293E+03 -1.28774E+03  3.77884E+03  1.37357E+03  4.55798E+03  4.57722E+03  4.27237E+02  6.07529E+03
 -5.04203E+03  6.29121E+03 -8.71091E+03  4.49712E+02 -7.86116E+03 -5.61643E+03 -1.00256E+03 -1.03610E+04
  5.01826E+03 -8.27037E+03  9.84558E+03 -3.24909E+03  1.01467E+04  2.07250E+03  5.78009E+03  7.67640E+03
  5.93077E+02  8.74032E+03 -3.62582E+03  6.87022E+03 -5.73484E+03  3.82311E+03 -4.12942E+03  6.93508E+02
 -1.68092E+03 -4.13472E+02 -2.37488E+03  3.81645E+02 -5.08568E+03  1.78128E+03 -6.16262E+03 -1.25472E+03
 -5.40209E+03 -4.10790E+03 -2.32721E+03 -7.96903E+03  3.16651E+03 -8.07747E+03  7.33518E+03 -4.52475E+03
  7.79628E+03  1.16413E+03  5.66746E+03  6.27683E+03 -1.24963E+03  8.34126E+03 -6.48951E+03  5.52766E+03
