 $NMID ID='MM_0lb_SNR400_8hz_g40_85.RAW', FMTDAT='(8E13.5)'
 TRAMP=1., VOLUME=1. $END
  3.10590E+05 -5.57502E+01  3.38065E+05  2.49995E+05  8.51993E+04  3.38133E+05 -1.32668E+05  2.52567E+05
 -1.90572E+05  8.38249E+04 -1.12935E+05 -3.23921E+04  2.20942E+02 -5.00245E+04  5.33207E+04 -3.48569E+01
  3.54851E+04  5.25632E+04 -1.71389E+04  7.67711E+04 -6.15568E+04  6.40459E+04 -8.58332E+04  3.28223E+04
 -8.21174E+04 -1.17182E+04 -5.79370E+04 -5.26984E+04 -1.46344E+04 -7.06446E+04  2.80142E+04 -4.54841E+04
  4.11615E+04  3.61613E+03  1.70640E+04  4.83506E+04 -3.48163E+04  4.73716E+04 -6.84566E+04  4.56595E+02
 -5.50174E+04 -5.69921E+04 -7.58791E+03 -7.84187E+04  3.51213E+04 -5.65794E+04  4.90908E+04 -1.81478E+04
  4.59149E+04  1.03390E+04  3.31639E+04  2.69411E+04  1.62177E+04  3.20167E+04 -5.94255E+03  2.82948E+04
 -2.21124E+04  1.20305E+04 -1.73806E+04 -5.90926E+03  7.45017E+03 -7.07666E+03  2.40542E+04  1.39885E+04
  7.70170E+03  3.75675E+04 -3.40980E+04  3.71098E+04 -6.62020E+04  2.42474E+03 -5.92998E+04 -4.47392E+04
 -1.30625E+04 -6.62661E+04  4.22662E+04 -4.69912E+04  6.19000E+04 -2.36491E+03  3.74220E+04  3.46031E+04
 -5.51491E+03  3.98254E+04 -3.12383E+04  1.89641E+04 -3.39619E+04 -3.07883E+03 -1.88250E+04 -1.24679E+04
 -9.85400E+03 -1.48913E+04  2.70994E+02 -1.97900E+04  8.73728E+03 -2.32558E+04  1.58015E+04 -1.25705E+04
  1.04742E+04  6.13018E+03 -1.01952E+04  1.30518E+04 -2.36973E+04 -5.57209E+03 -8.81626E+03 -3.76843E+04
  2.48253E+04 -4.72067E+04  5.12159E+04 -2.07163E+04  4.90115E+04  1.93536E+04  1.79985E+04  4.69208E+04
 -1.74876E+04  3.52270E+04 -2.80178E+04  1.86705E+03 -1.21068E+04 -2.93586E+04  2.20487E+04 -3.67295E+04
  4.44646E+04 -1.07701E+04  4.09618E+04  2.48773E+04  2.08503E+04  5.11098E+04 -8.45030E+03  5.63277E+04
 -3.57589E+04  3.93541E+04 -4.78571E+04  1.11850E+04 -4.78063E+04 -1.85165E+04 -2.56014E+04 -4.18840E+04
  7.94430E+03 -4.31317E+04  3.41679E+04 -1.74224E+04  3.29049E+04  1.10336E+04  5.11232E+03  2.06434E+04
 -1.28040E+04  1.03182E+04 -1.09678E+04 -6.40494E+03  6.56710E+03 -1.17434E+04  1.89370E+04  4.75265E+03
  1.48307E+04  2.33721E+04 -5.15625E+03  2.67851E+04 -2.40394E+04  1.41957E+04 -3.18490E+04 -2.83061E+03
 -2.56015E+04 -1.88592E+04 -1.21127E+04 -2.57559E+04  4.48070E+03 -2.54854E+04  1.94262E+04 -2.21610E+04
  3.25138E+04 -1.44829E+04  3.82439E+04  5.07541E+03  2.80381E+04  2.46660E+04  4.41402E+03  4.14462E+04
 -1.98949E+04  3.41190E+04 -3.10471E+04  1.24103E+04 -2.24032E+04 -9.68124E+03 -4.60480E+03 -1.20490E+04
  5.49094E+02 -8.76804E+02 -8.94643E+03  8.47760E+03 -2.09025E+04  5.36617E+03 -2.11328E+04 -9.36667E+03
 -1.19688E+04 -2.38491E+04  6.22962E+03 -2.76799E+04  1.90891E+04 -2.00974E+04  2.25321E+04 -2.24844E+03
  1.47797E+04  1.48259E+04 -1.62410E+03  2.33404E+04 -1.68953E+04  1.32682E+04 -2.45777E+04 -4.60865E+03
 -1.73246E+04 -2.11665E+04 -2.31273E+03 -2.75543E+04  1.16748E+04 -2.39526E+04  2.33457E+04 -1.15571E+04
  2.19182E+04 -5.65720E+02  1.58737E+04  5.64822E+03  9.60582E+03  1.07379E+03  1.19518E+04 -1.91304E+03
  2.30794E+04  2.46935E+03  2.60885E+04  1.89656E+04  1.76943E+04  3.80408E+04 -3.38114E+03  4.42893E+04
 -2.42563E+04  3.68441E+04 -4.24182E+04  1.90277E+04 -4.51990E+04 -3.21172E+03 -3.68135E+04 -2.62478E+04
 -1.44600E+04 -3.80027E+04  1.39788E+04 -3.32743E+04  2.89670E+04 -1.53338E+04  2.43081E+04  7.35793E+03
  8.34325E+03  1.84096E+04 -1.21233E+04  1.60132E+04 -1.93729E+04  2.31322E+03 -1.48611E+04 -1.28797E+04
 -7.27893E+02 -1.90699E+04  1.07018E+04 -1.44363E+04  1.34928E+04 -1.67205E+03  3.79556E+03  8.85673E+03
 -8.64563E+03  4.81947E+03 -9.58749E+03 -7.63760E+03 -2.33008E+03 -1.85633E+04  1.20417E+04 -1.96426E+04
  2.32069E+04 -1.14775E+04  2.65351E+04  4.19704E+03  2.33860E+04  1.82917E+04  1.09297E+04  2.91682E+04
 -5.48877E+03  3.16919E+04 -2.05083E+04  1.93800E+04 -2.25733E+04  4.08655E+03 -1.49587E+04 -6.46874E+03
 -6.51818E+03 -7.11263E+03  3.39572E+02  2.99571E+01 -2.86955E+03  3.59468E+03 -7.75821E+03  4.95492E+03
 -1.47314E+04 -5.02140E+02 -1.46211E+04 -1.27011E+04 -6.19598E+03 -2.05149E+04  6.33162E+03 -1.63892E+04
  1.36039E+04 -6.07627E+03  8.95712E+03  3.96761E+03 -7.38884E+02  6.76015E+03 -7.22581E+03 -2.59978E+02
 -7.49097E+03 -9.53084E+03 -1.00305E+03 -1.59373E+04  8.89821E+03 -1.63280E+04  2.05692E+04 -8.75631E+03
  2.35464E+04  2.82074E+03  1.74977E+04  1.42175E+04  3.14108E+03  1.98683E+04 -9.40783E+03  1.56122E+04
 -1.27780E+04  4.72596E+03 -6.79135E+03 -3.84995E+03  2.96507E+03 -4.53742E+03  8.30250E+03 -3.29013E+02
  7.57260E+03  7.53612E+03  1.56121E+03  1.28345E+04 -8.84414E+03  1.25421E+04 -1.52046E+04  2.30799E+03
 -1.04450E+04 -8.35853E+03  2.29029E+02 -1.43056E+04  9.20986E+03 -7.23261E+03  9.24907E+03  3.57505E+03
  2.93640E+03  1.04741E+04 -8.28929E+03  1.13618E+04 -1.42476E+04  5.17237E+03 -1.37921E+04 -5.54008E+03
 -7.89387E+03 -1.61935E+04  4.01573E+03 -1.91474E+04  1.51749E+04 -1.14067E+04  1.74090E+04  3.46550E+03
  1.02333E+04  1.30722E+04 -1.33515E+03  1.66331E+04 -1.18256E+04  9.82818E+03 -1.30392E+04 -9.63835E+02
 -1.20572E+04 -1.15697E+04 -2.19907E+03 -1.33577E+04  7.77075E+03 -1.00946E+04  7.49216E+03 -4.00135E+03
  5.22503E+03  3.38129E+03 -1.59720E+03  1.42149E+03 -1.52423E+03 -2.23618E+03  2.27919E+03 -7.31643E+03
  1.24739E+04 -5.25601E+03  1.78914E+04  1.56643E+03  1.67265E+04  1.01908E+04  1.01577E+04  2.21063E+04
 -4.74565E+03  2.48464E+04 -2.14854E+04  1.82024E+04 -2.67908E+04  3.56233E+03 -2.21915E+04 -9.40234E+03
 -1.12093E+04 -1.71747E+04 -4.11461E+02 -1.40586E+04  5.53330E+03 -9.07421E+03  4.81610E+03 -5.49220E+03
  3.67598E+03 -3.95915E+03  3.85883E+03 -4.34734E+03  5.98754E+03 -2.99085E+03  7.80305E+03 -1.40168E+03
  1.05844E+04  2.52851E+03  6.61362E+03  9.74427E+03 -2.63184E+03  1.19400E+04 -1.19187E+04  8.45887E+03
 -1.54306E+04 -5.92840E+02 -1.00429E+04 -1.18816E+04 -1.02797E+03 -1.65675E+04  8.44676E+03 -1.74516E+04
  1.70704E+04 -9.04294E+03  2.05629E+04  3.02025E+03  1.41483E+04  1.41186E+04  2.31131E+03  1.84031E+04
 -7.17676E+03  1.49206E+04 -1.13038E+04  4.90570E+03 -7.41151E+03 -1.38046E+03 -2.48585E+03 -2.26823E+03
 -9.51395E+02 -1.05719E+02 -2.13460E+03  3.61604E+03 -6.35182E+03  2.95828E+03 -1.02939E+04 -1.70593E+03
 -8.35891E+03 -1.05720E+04 -5.77688E+02 -1.54868E+04  9.88766E+03 -1.49620E+04  1.52907E+04 -4.67023E+03
  1.59732E+04  7.36109E+03  6.49737E+03  1.36687E+04 -2.73327E+03  1.61008E+04 -1.11726E+04  9.98849E+03
 -1.50192E+04  5.16673E+02 -1.11695E+04 -9.54339E+03 -8.32891E+02 -1.33799E+04  7.10551E+03 -1.02627E+04
  9.94642E+03 -3.08474E+03  6.59270E+03  3.45264E+03  2.32598E+03  4.38904E+03  1.75038E+03  2.47804E+03
  3.20460E+03  1.28920E+03  3.68450E+03  1.75822E+03  5.10105E+03  5.72879E+03  4.24469E+03  8.84507E+03
 -3.05123E+03  1.28050E+04 -1.05817E+04  1.25591E+04 -1.73760E+04  2.70037E+03 -1.67755E+04 -7.71519E+03
 -8.46846E+03 -1.53969E+04  2.23819E+03 -1.69843E+04  9.93909E+03 -1.16233E+04  1.31916E+04 -2.62385E+03
  1.04073E+04  6.10920E+03  2.32200E+03  9.94311E+03 -4.28768E+03  5.81883E+03 -5.77253E+03 -6.68726E+02
 -3.53853E+03 -7.50163E+03  3.40282E+03 -6.49009E+03  7.16840E+03 -3.35125E+03  6.43534E+03  2.12305E+03
  4.28209E+03  3.54069E+03  1.84074E+03  3.21141E+03 -9.98177E+02  2.13835E+03  8.87494E+02 -3.09436E+02
  3.15854E+03 -8.46758E+02  6.08585E+03  3.31183E+03  3.24173E+03  8.74314E+03 -1.51441E+03  1.15722E+04
 -7.64284E+03  7.99975E+03 -1.12207E+04  1.84285E+03 -8.73594E+03 -4.52462E+03 -3.23845E+03 -6.88820E+03
  9.90971E+02 -6.76663E+03  3.98714E+03 -2.93544E+03  3.94140E+03  3.28594E+03 -2.26613E+03  5.65280E+03
 -6.94750E+03  2.61605E+03 -8.11447E+03 -4.28130E+03 -5.05676E+03 -9.38621E+03  2.02369E+03 -9.09661E+03
  5.40272E+03 -5.66100E+03  6.75788E+03 -1.33024E+03  5.16150E+03  2.22038E+03  1.14009E+02  5.04726E+03
 -3.58277E+03  1.43824E+03 -4.34455E+03 -3.20206E+03  1.19298E+03 -7.01740E+03  8.70276E+03 -5.03259E+03
  1.10659E+04  4.51263E+02  9.62008E+03  7.11638E+03  3.70052E+03  1.12350E+04 -4.05283E+03  1.01663E+04
 -8.40291E+03  4.26045E+03 -9.00894E+03 -1.51541E+03 -4.87320E+03 -6.76873E+03  1.41758E+03 -6.80477E+03
  5.49291E+03 -3.77402E+03  5.80514E+03  2.48086E+03  2.75228E+03  5.77540E+03 -6.72542E+02  5.29211E+03
 -3.84970E+03  2.84616E+03 -2.12445E+03  1.76200E+03 -6.99784E+02  1.09913E+03 -1.57048E+03  2.08102E+03
 -1.52046E+03  3.84805E+03 -8.16045E+03  3.97026E+03 -1.08441E+04  5.54898E+02 -1.23681E+04 -6.83751E+03
 -7.09392E+03 -1.52095E+04  3.56598E+03 -1.66243E+04  1.07470E+04 -1.24846E+04  1.62929E+04 -5.45842E+03
  1.50728E+04  4.22070E+03  9.63400E+03  1.06755E+04  1.28234E+03  1.14457E+04 -4.45444E+03  8.98351E+03
 -5.78792E+03  2.71478E+03 -3.78354E+03 -1.20224E+03 -1.38594E+03 -1.00450E+03 -9.33419E+02 -6.71125E+02
 -2.39070E+03  4.16096E+02 -2.93773E+03 -5.57204E+01 -8.97948E+02 -2.57436E+03 -8.56532E+01 -4.28918E+03
  4.80790E+03 -3.54887E+03  6.89440E+03  5.07416E+02  8.17461E+03  6.37192E+03  1.89271E+03  1.14663E+04
 -5.79571E+03  1.32882E+04 -1.29439E+04  7.65642E+03 -1.47598E+04 -5.65167E+02 -1.03415E+04 -9.43383E+03
 -4.17466E+03 -1.31910E+04  3.77840E+03 -1.08159E+04  7.14228E+03 -6.08061E+03  7.81899E+03 -7.10082E+02
  4.20883E+03  4.00702E+03 -2.07875E+02  2.90746E+03 -1.94919E+03 -4.70330E+02 -1.58937E+02 -2.45381E+03
  3.74839E+03 -1.27310E+03  4.48257E+03  8.64861E+02  3.13569E+03  4.09537E+03  4.87968E+02  6.80843E+03
 -5.08302E+03  5.87650E+03 -8.07044E+03  2.61843E+01 -7.44495E+03 -5.62052E+03 -1.12400E+03 -9.46059E+03
  5.60350E+03 -7.71021E+03  9.38584E+03 -3.22653E+03  8.91214E+03  3.37686E+03  6.09871E+03  7.55854E+03
  8.65853E+02  7.66917E+03 -3.12102E+03  6.59159E+03 -6.39918E+03  3.21862E+03 -3.59159E+03 -3.87122E+02
 -2.28485E+03 -2.80848E+02 -2.35990E+03  5.52101E+02 -3.91595E+03  1.28078E+03 -5.63006E+03 -1.11286E+03
 -5.94934E+03 -4.09719E+03 -1.80756E+03 -7.91336E+03  3.68427E+03 -9.53143E+03  7.38317E+03 -3.28136E+03
  8.11849E+03  6.12870E+02  3.90897E+03  5.85732E+03 -7.02145E+01  8.18161E+03 -5.90117E+03  5.66601E+03
