 $NMID ID='MM_0lb_SNR400_10hz_g50_54.RAW', FMTDAT='(8E13.5)'
 TRAMP=1., VOLUME=1. $END
  3.09859E+05 -2.53222E+02  3.38077E+05  2.51235E+05  8.44069E+04  3.38525E+05 -1.32553E+05  2.50845E+05
 -1.90956E+05  8.35461E+04 -1.11996E+05 -3.22229E+04  4.59858E+02 -5.07230E+04  5.39377E+04  2.73662E+01
  3.54762E+04  5.25823E+04 -1.62670E+04  7.61701E+04 -6.10274E+04  6.47052E+04 -8.55349E+04  3.24837E+04
 -8.18023E+04 -1.25420E+04 -5.82164E+04 -5.22590E+04 -1.54985E+04 -7.07630E+04  2.72228E+04 -4.60117E+04
  4.05240E+04  4.07554E+03  1.68748E+04  4.85936E+04 -3.62809E+04  4.76874E+04 -6.84600E+04  6.89142E+02
 -5.44354E+04 -5.79902E+04 -7.30525E+03 -7.86920E+04  3.52796E+04 -5.69713E+04  4.89017E+04 -1.80762E+04
  4.48561E+04  1.17655E+04  3.32022E+04  2.60319E+04  1.61111E+04  3.01438E+04 -5.54557E+03  2.75861E+04
 -2.26806E+04  1.21013E+04 -1.79058E+04 -6.27678E+03  6.20362E+03 -8.20339E+03  2.31473E+04  1.29723E+04
  6.38691E+03  3.70958E+04 -3.34419E+04  3.69654E+04 -6.58856E+04  2.08326E+03 -5.86382E+04 -4.40713E+04
 -1.27480E+04 -6.51169E+04  4.04573E+04 -4.70782E+04  6.07055E+04 -3.14410E+03  3.63105E+04  3.44191E+04
 -5.52348E+03  3.89632E+04 -3.15280E+04  1.86149E+04 -3.29163E+04 -3.70326E+03 -1.92126E+04 -1.23882E+04
 -9.49116E+03 -1.50042E+04 -4.24492E+02 -1.93893E+04  9.11490E+03 -2.35203E+04  1.57091E+04 -1.33820E+04
  1.07832E+04  5.19146E+03 -9.99046E+03  1.34124E+04 -2.33800E+04 -6.52760E+03 -7.87511E+03 -3.66455E+04
  2.45895E+04 -4.66667E+04  5.13835E+04 -2.00841E+04  4.88448E+04  2.07898E+04  1.68742E+04  4.58259E+04
 -1.72480E+04  3.53253E+04 -2.70676E+04  2.22453E+03 -1.15892E+04 -2.91588E+04  2.16956E+04 -3.67352E+04
  4.37441E+04 -1.03011E+04  3.91525E+04  2.43939E+04  2.05799E+04  5.00779E+04 -8.84058E+03  5.52778E+04
 -3.46805E+04  3.71007E+04 -4.64190E+04  1.06189E+04 -4.62060E+04 -1.85834E+04 -2.56528E+04 -4.14944E+04
  8.29783E+03 -4.19267E+04  3.31557E+04 -1.61644E+04  3.16417E+04  1.07832E+04  5.05782E+03  2.03140E+04
 -1.43529E+04  9.59900E+03 -1.06973E+04 -7.52003E+03  5.55656E+03 -1.08744E+04  1.85718E+04  5.72410E+03
  1.43496E+04  2.29822E+04 -5.99044E+03  2.65277E+04 -2.32861E+04  1.36742E+04 -3.12333E+04 -2.69562E+03
 -2.45740E+04 -1.86520E+04 -1.05751E+04 -2.50741E+04  4.59447E+03 -2.42494E+04  1.87961E+04 -2.19946E+04
  3.12257E+04 -1.37316E+04  3.66153E+04  4.09940E+03  2.66454E+04  2.41837E+04  4.38702E+03  4.09187E+04
 -1.92043E+04  3.26282E+04 -3.03061E+04  1.17528E+04 -2.21666E+04 -9.94766E+03 -4.55012E+03 -1.27456E+04
  2.67622E+01 -1.36169E+03 -7.08661E+03  7.74887E+03 -1.86929E+04  5.99995E+03 -1.89640E+04 -9.19151E+03
 -1.17966E+04 -2.17757E+04  5.27929E+03 -2.69933E+04  1.82387E+04 -1.89714E+04  2.13581E+04 -9.20860E+02
  1.41761E+04  1.60661E+04 -8.80986E+02  2.19743E+04 -1.60863E+04  1.30007E+04 -2.32646E+04 -4.56737E+03
 -1.65908E+04 -2.04709E+04 -2.62067E+03 -2.67708E+04  1.24685E+04 -2.31151E+04  2.22939E+04 -1.21148E+04
  2.13334E+04  4.09515E+02  1.56649E+04  4.98303E+03  7.95523E+03  1.21599E+03  1.17301E+04 -1.66484E+03
  2.12195E+04  3.45628E+03  2.45282E+04  1.72632E+04  1.64487E+04  3.57541E+04 -2.82808E+03  4.12489E+04
 -2.41085E+04  3.48413E+04 -3.91645E+04  1.79593E+04 -4.16419E+04 -3.11374E+03 -3.48066E+04 -2.49831E+04
 -1.31095E+04 -3.45410E+04  1.21728E+04 -3.09157E+04  2.66362E+04 -1.50053E+04  2.29003E+04  7.34709E+03
  7.18019E+03  1.81402E+04 -1.05619E+04  1.50287E+04 -1.90571E+04  2.72317E+03 -1.58573E+04 -1.19151E+04
 -1.10441E+02 -1.85478E+04  9.95508E+03 -1.43736E+04  1.20690E+04 -1.79879E+03  2.88849E+03  8.11461E+03
 -8.80412E+03  3.84109E+03 -8.67022E+03 -7.30658E+03 -1.59691E+03 -1.70543E+04  1.14203E+04 -1.84473E+04
  2.15968E+04 -1.08700E+04  2.39265E+04  2.60083E+03  2.15962E+04  1.72042E+04  9.39815E+03  2.76026E+04
 -4.77876E+03  2.89727E+04 -1.93010E+04  1.74608E+04 -2.08361E+04  3.40502E+03 -1.41052E+04 -5.10030E+03
 -5.90790E+03 -6.78376E+03 -3.70530E+02  4.30844E+02 -2.57636E+03  3.56224E+03 -7.51210E+03  5.11646E+03
 -1.32236E+04 -1.33915E+03 -1.38673E+04 -1.10301E+04 -5.79014E+03 -1.80200E+04  6.34036E+03 -1.42050E+04
  1.21407E+04 -5.84972E+03  9.05068E+03  3.75055E+03 -4.46828E+02  5.67483E+03 -7.26178E+03  1.48684E+02
 -6.65946E+03 -8.69729E+03 -7.20588E+02 -1.40957E+04  9.05763E+03 -1.59711E+04  1.82508E+04 -8.70917E+03
  2.14071E+04  2.29134E+03  1.56773E+04  1.32873E+04  3.23999E+03  1.75456E+04 -8.60372E+03  1.41415E+04
 -1.18841E+04  4.17245E+03 -6.55959E+03 -2.68680E+03  1.40421E+03 -4.23890E+03  7.67944E+03 -1.26179E+03
  7.06272E+03  6.62397E+03  1.55569E+03  1.24917E+04 -8.48527E+03  1.07192E+04 -1.44507E+04  2.43312E+03
 -1.04558E+04 -8.12716E+03  8.84157E+02 -1.17001E+04  7.60228E+03 -6.12228E+03  7.88005E+03  3.08853E+03
  1.53335E+03  8.55409E+03 -8.26892E+03  1.09938E+04 -1.31657E+04  3.81954E+03 -1.23949E+04 -4.90037E+03
 -7.69331E+03 -1.41201E+04  3.53387E+03 -1.68637E+04  1.43372E+04 -1.03522E+04  1.47808E+04  3.76392E+03
  8.80491E+03  1.16696E+04 -1.78552E+03  1.39213E+04 -1.08325E+04  8.18346E+03 -1.12447E+04 -1.24783E+03
 -1.00221E+04 -9.49303E+03 -2.06317E+03 -1.12222E+04  5.84953E+03 -8.98056E+03  6.98939E+03 -4.12041E+03
  4.16411E+03  1.45375E+03 -1.01213E+03  2.29046E+03 -6.66294E+02 -3.05345E+03  2.68128E+03 -7.14634E+03
  9.80746E+03 -3.42402E+03  1.39396E+04  8.24865E+02  1.42290E+04  9.57385E+03  9.23936E+03  1.97656E+04
 -4.32114E+03  2.16348E+04 -1.85347E+04  1.57991E+04 -2.32545E+04  3.72925E+03 -1.92007E+04 -8.39355E+03
 -9.12966E+03 -1.48683E+04 -6.09483E+02 -1.26079E+04  4.52339E+03 -7.61280E+03  4.74330E+03 -5.20933E+03
  3.20259E+03 -2.43821E+03  4.61336E+03 -4.57205E+03  5.85799E+03 -3.44419E+03  7.57262E+03 -8.53524E+02
  9.69859E+03  2.17840E+03  5.34148E+03  8.45412E+03 -2.80182E+03  1.05275E+04 -1.07931E+04  7.77597E+03
 -1.33587E+04 -1.15099E+03 -8.51376E+03 -9.96998E+03 -1.21172E+03 -1.40914E+04  8.29477E+03 -1.47865E+04
  1.53272E+04 -8.32884E+03  1.71753E+04  2.40626E+03  1.18160E+04  1.20404E+04  1.78136E+03  1.59086E+04
 -6.59202E+03  1.32451E+04 -8.60598E+03  4.87140E+03 -6.57373E+03 -1.82200E+03 -3.75237E+03 -2.71455E+03
 -1.38629E+03 -1.81491E+02 -1.87721E+03  3.33037E+03 -5.28955E+03  2.10051E+03 -9.36626E+03 -1.25516E+03
 -6.28949E+03 -1.00425E+04 -1.33986E+03 -1.26220E+04  8.11530E+03 -1.23957E+04  1.33280E+04 -4.03566E+03
  1.25943E+04  6.78345E+03  6.36255E+03  1.26468E+04 -2.63636E+03  1.39653E+04 -8.62577E+03  8.68863E+03
 -1.08152E+04 -1.12466E+02 -9.78092E+03 -7.63986E+03 -1.25652E+03 -1.09011E+04  5.46399E+03 -8.06662E+03
  8.39103E+03 -3.28732E+03  5.92085E+03  1.96305E+03  2.18671E+03  4.08383E+03  8.61564E+02  2.07712E+03
  3.01495E+03  1.14522E+03  2.43045E+03  1.09570E+03  4.15384E+03  4.76205E+03  3.12872E+03  6.57058E+03
 -3.19828E+03  1.07822E+04 -9.14519E+03  1.10559E+04 -1.33370E+04  2.66198E+03 -1.36117E+04 -6.13507E+03
 -6.31730E+03 -1.33941E+04  2.23761E+03 -1.50788E+04  7.96592E+03 -9.77725E+03  1.11261E+04 -3.48634E+03
  8.61383E+03  5.47677E+03  2.01961E+03  7.53610E+03 -3.26605E+03  4.74982E+03 -5.60468E+03 -1.16612E+03
 -2.36622E+03 -5.44836E+03  2.74322E+03 -5.23566E+03  5.39715E+03 -3.00916E+03  5.85981E+03  1.50074E+03
  2.72355E+03  2.71430E+03  1.40862E+03  2.40419E+03 -6.36603E+02  2.11575E+03  1.21639E+03 -6.67612E+02
  2.21561E+03 -3.64509E+02  4.77056E+03  2.15977E+03  2.33491E+03  7.36397E+03 -1.61381E+03  8.80031E+03
 -6.13367E+03  5.54068E+03 -8.43546E+03  1.30268E+03 -7.27311E+03 -3.69604E+03 -2.20440E+03 -5.18458E+03
  1.44311E+03 -5.14948E+03  4.22005E+03 -2.22075E+03  2.47689E+03  3.14068E+03 -1.83461E+03  4.15695E+03
 -5.08615E+03  2.84486E+03 -5.45796E+03 -3.33898E+03 -3.48576E+03 -7.34214E+03  8.59561E+02 -6.60134E+03
  4.22932E+03 -3.35632E+03  4.70249E+03 -6.33582E+02  4.25906E+03  1.62375E+03 -4.88593E+02  4.25011E+03
 -2.37697E+03  1.19698E+03 -3.86120E+03 -2.77465E+03  1.38675E+03 -5.45447E+03  6.10463E+03 -4.87370E+03
  7.52102E+03  5.65910E+02  7.62849E+03  5.71534E+03  1.96677E+03  8.74801E+03 -3.04345E+03  7.94895E+03
 -8.04864E+03  3.44374E+03 -6.85974E+03 -1.20491E+03 -3.80735E+03 -5.68960E+03  9.55600E+02 -5.08199E+03
  4.82110E+03 -2.40770E+03  5.19851E+03  2.12504E+03  1.48680E+03  4.78693E+03 -1.13773E+03  4.05159E+03
 -2.74074E+03  2.73547E+03 -2.38694E+03  7.88074E+02 -1.11447E+03  4.86200E+02 -1.56681E+03  1.28474E+03
 -1.99774E+03  3.49253E+03 -5.74200E+03  2.33889E+03 -8.44580E+03 -7.31180E+02 -9.72288E+03 -5.37582E+03
 -4.40036E+03 -1.19250E+04  1.62923E+03 -1.33719E+04  8.69298E+03 -1.03749E+04  1.23031E+04 -3.17307E+03
  1.13365E+04  1.88718E+03  7.32688E+03  7.09162E+03  2.55455E+02  8.30206E+03 -3.52715E+03  6.12786E+03
 -4.56766E+03  2.34281E+03 -2.85149E+03 -2.38512E+02 -1.26292E+03 -6.96229E+02 -3.48110E+02 -1.52488E+02
 -1.56685E+03  1.93386E+02 -1.70878E+03 -7.18943E+02 -4.19661E+02 -1.76589E+03  7.78608E+02 -3.78720E+03
  3.11236E+03 -2.94182E+03  5.44421E+03  2.23828E+02  6.66875E+03  4.19496E+03  9.73146E+02  8.78613E+03
 -3.99976E+03  9.67114E+03 -9.03475E+03  5.91295E+03 -1.05775E+04 -5.80077E+02 -7.63577E+03 -6.41809E+03
 -3.53735E+03 -9.14052E+03  2.91643E+03 -8.26555E+03  5.96856E+03 -5.09110E+03  5.52513E+03  4.04230E+01
  2.61267E+03  3.03707E+03 -9.42114E+02  3.14395E+03 -1.92726E+03  1.19714E+02 -1.17671E+02 -1.96986E+03
  2.99365E+03 -1.32564E+03  2.59095E+03  1.34830E+03  2.31263E+03  3.89982E+03  3.23932E+02  3.99965E+03
 -3.57597E+03  4.09765E+03 -6.10926E+03  6.91940E+02 -5.67850E+03 -3.26461E+03 -8.32361E+02 -6.83597E+03
  3.87767E+03 -5.84079E+03  6.22508E+03 -1.79232E+03  6.45028E+03  1.65233E+03  3.16521E+03  5.10825E+03
  1.69699E+02  5.90543E+03 -1.53088E+03  4.38008E+03 -3.04740E+03  2.01269E+03 -3.70495E+03  2.56326E+02
 -2.42506E+03 -6.92075E+02 -1.97746E+03  6.54934E+02 -2.97044E+03  1.55711E+03 -3.90034E+03 -3.98561E+02
 -4.08643E+03 -2.67239E+03 -1.41229E+03 -5.43995E+03  2.90724E+03 -6.07185E+03  5.15396E+03 -3.06188E+03
  5.23332E+03  6.01662E+02  2.45905E+03  4.05754E+03 -9.95573E+02  5.38923E+03 -4.51363E+03  3.10087E+03
