 $NMID ID='MM_0lb_SNR400_16hz_g60_29.RAW', FMTDAT='(8E13.5)'
 TRAMP=1., VOLUME=1. $END
  3.09207E+05  5.41683E+02  3.37550E+05  2.51008E+05  8.46066E+04  3.38658E+05 -1.33063E+05  2.51124E+05
 -1.90885E+05  8.38643E+04 -1.11457E+05 -3.23316E+04  1.00922E+03 -5.10836E+04  5.37016E+04 -1.40592E+02
  3.55468E+04  5.30727E+04 -1.63662E+04  7.55343E+04 -6.13047E+04  6.35694E+04 -8.43826E+04  3.14007E+04
 -8.16867E+04 -1.13771E+04 -5.72543E+04 -5.14079E+04 -1.53399E+04 -7.01084E+04  2.72205E+04 -4.59850E+04
  4.05578E+04  3.33971E+03  1.62663E+04  4.78794E+04 -3.41279E+04  4.76510E+04 -6.63892E+04 -7.35353E+02
 -5.33416E+04 -5.72533E+04 -6.31764E+03 -7.71186E+04  3.45174E+04 -5.54367E+04  4.83399E+04 -1.71041E+04
  4.38577E+04  1.13121E+04  3.17812E+04  2.56434E+04  1.60443E+04  2.98932E+04 -4.79833E+03  2.71727E+04
 -2.25116E+04  1.26540E+04 -1.85188E+04 -4.91080E+03  5.91232E+03 -7.46949E+03  2.24802E+04  1.22926E+04
  7.11502E+03  3.48980E+04 -3.23106E+04  3.50102E+04 -6.41028E+04  2.91032E+03 -5.74470E+04 -4.35237E+04
 -1.20795E+04 -6.34227E+04  3.95820E+04 -4.53349E+04  5.78269E+04 -2.79811E+03  3.43690E+04  3.26155E+04
 -5.88628E+03  3.58454E+04 -3.02496E+04  1.60825E+04 -3.06339E+04 -4.54270E+03 -1.65896E+04 -1.11726E+04
 -8.68440E+03 -1.34708E+04 -3.15364E+02 -1.81559E+04  7.45904E+03 -2.28118E+04  1.56861E+04 -1.27416E+04
  1.14822E+04  6.06273E+03 -8.76373E+03  1.29289E+04 -2.15995E+04 -4.38154E+03 -8.67942E+03 -3.35414E+04
  2.26618E+04 -4.38030E+04  4.77755E+04 -1.97897E+04  4.55568E+04  1.95910E+04  1.52374E+04  4.40705E+04
 -1.53575E+04  3.32446E+04 -2.52060E+04  1.43974E+03 -9.42715E+03 -2.79824E+04  2.18621E+04 -3.33332E+04
  4.09126E+04 -9.31941E+03  3.55233E+04  2.36439E+04  1.84186E+04  4.67205E+04 -8.07648E+03  5.11328E+04
 -3.19747E+04  3.35142E+04 -4.15505E+04  9.48352E+03 -4.23156E+04 -1.72064E+04 -2.32215E+04 -3.79144E+04
  6.89708E+03 -3.74444E+04  3.16239E+04 -1.45472E+04  2.87577E+04  1.08094E+04  4.00322E+03  1.90206E+04
 -1.35497E+04  8.73724E+03 -1.01248E+04 -7.46665E+03  5.81196E+03 -1.02474E+04  1.78189E+04  6.46854E+03
  1.39056E+04  2.20295E+04 -5.97825E+03  2.50287E+04 -2.21734E+04  1.14665E+04 -2.84861E+04 -4.89691E+03
 -2.00482E+04 -1.73100E+04 -8.25294E+03 -2.01200E+04  4.25585E+03 -1.93861E+04  1.53279E+04 -1.79534E+04
  2.57910E+04 -1.28113E+04  3.18488E+04  2.51161E+03  2.32418E+04  1.97420E+04  4.09068E+03  3.60646E+04
 -1.79217E+04  3.06902E+04 -2.76395E+04  1.04959E+04 -2.09397E+04 -9.49308E+03 -4.51464E+03 -1.34622E+04
  1.52080E+03 -3.06040E+03 -4.70237E+03  6.49306E+03 -1.56010E+04  4.96322E+03 -1.61825E+04 -6.96553E+03
 -9.53672E+03 -1.85288E+04  5.05112E+03 -2.26709E+04  1.49195E+04 -1.67949E+04  1.77463E+04 -1.73430E+03
  1.08926E+04  1.25705E+04 -1.11972E+03  1.82953E+04 -1.29277E+04  1.07355E+04 -1.88566E+04 -4.80927E+03
 -1.32808E+04 -1.65491E+04 -1.09446E+03 -2.29885E+04  1.05375E+04 -1.84084E+04  1.90138E+04 -8.81311E+03
  1.74844E+04  2.06964E+02  1.24593E+04  4.50920E+03  6.79843E+03  9.99893E+02  9.24011E+03 -1.36692E+03
  1.66765E+04  3.07917E+03  1.81394E+04  1.47247E+04  1.21935E+04  2.96442E+04 -2.61989E+03  3.31133E+04
 -1.96782E+04  2.65731E+04 -3.14078E+04  1.31002E+04 -3.25687E+04 -2.70394E+03 -2.62470E+04 -1.87424E+04
 -1.15075E+04 -2.66590E+04  9.37847E+03 -2.45149E+04  2.09049E+04 -1.26518E+04  1.88581E+04  5.24130E+03
  7.48587E+03  1.39771E+04 -9.48660E+03  1.20408E+04 -1.59370E+04  1.82547E+03 -1.26660E+04 -8.92232E+03
 -1.69260E+02 -1.48204E+04  7.74123E+03 -1.12042E+04  9.77861E+03 -1.37928E+03  2.34941E+03  5.76816E+03
 -6.69623E+03  2.23208E+03 -5.04057E+03 -5.37026E+03 -1.23905E+02 -1.35890E+04  8.93315E+03 -1.39634E+04
  1.58768E+04 -6.59982E+03  1.65149E+04  3.67118E+03  1.42515E+04  1.23382E+04  7.01794E+03  1.93887E+04
 -3.05296E+03  2.10377E+04 -1.30337E+04  1.32470E+04 -1.46992E+04  3.52332E+03 -1.04862E+04 -3.07496E+03
 -5.81921E+03 -4.78312E+03 -6.66851E+02  6.74653E+02 -2.07564E+03  1.80807E+03 -5.05770E+03  4.42316E+03
 -1.00941E+04 -1.09622E+03 -1.04354E+04 -8.37766E+03 -4.67987E+03 -1.41960E+04  4.17693E+03 -1.11479E+04
  8.68724E+03 -4.72854E+03  6.68223E+03  2.94365E+03  1.79582E+02  4.14714E+03 -4.92276E+03  1.26439E+02
 -4.50053E+03 -6.92627E+03 -1.50652E+03 -1.02583E+04  5.77080E+03 -1.05448E+04  1.31602E+04 -5.29869E+03
  1.53912E+04  7.42783E+02  1.10606E+04  8.59651E+03  2.05192E+03  1.13181E+04 -6.17577E+03  1.05890E+04
 -9.09088E+03  3.09207E+03 -4.59063E+03 -1.46526E+03  1.44627E+03 -2.71651E+03  5.57114E+03 -1.17551E+03
  5.53406E+03  4.92552E+03  1.29855E+03  8.02381E+03 -6.06858E+03  8.16313E+03 -9.66145E+03  2.16903E+03
 -6.92926E+03 -5.09136E+03  7.01746E+02 -9.05087E+03  5.34243E+03 -4.45179E+03  5.34677E+03  1.48808E+03
  9.76131E+02  5.30238E+03 -6.20279E+03  6.59841E+03 -6.95322E+03  3.43805E+03 -7.16274E+03 -2.09505E+03
 -4.05047E+03 -8.87352E+03  2.28296E+03 -1.02544E+04  8.52102E+03 -6.46812E+03  9.78930E+03  1.49393E+03
  5.53800E+03  7.33351E+03 -7.02584E+02  1.02213E+04 -7.07474E+03  5.98316E+03 -6.43186E+03 -8.82610E+02
 -7.61288E+03 -6.96440E+03 -1.25218E+03 -6.75365E+03  3.50477E+03 -6.15491E+03  4.35067E+03 -3.58217E+03
  2.92674E+03  5.47196E+02 -2.74865E+02  1.33841E+03 -7.62885E+02 -8.65547E+02  1.00311E+03 -3.63591E+03
  6.03362E+03 -1.82701E+03  7.88069E+03  1.01922E+03  8.47162E+03  5.18830E+03  5.79779E+03  1.06423E+04
 -1.83631E+03  1.32055E+04 -1.05923E+04  8.58505E+03 -1.44891E+04  1.80074E+03 -1.19572E+04 -4.38810E+03
 -5.67972E+03 -9.43780E+03  1.27403E+02 -7.05831E+03  2.49627E+03 -3.51789E+03  2.59976E+03 -3.01724E+03
  1.58100E+03 -1.52859E+03  2.29383E+03 -2.62067E+03  3.83846E+03 -1.81831E+03  5.06482E+03 -1.23695E+01
  6.00318E+03  1.62642E+03  2.43196E+03  4.48086E+03 -1.99530E+03  4.92182E+03 -5.99973E+03  4.12721E+03
 -7.01589E+03 -7.58820E+02 -4.14801E+03 -4.87020E+03  1.92595E+02 -7.74296E+03  4.67724E+03 -8.02804E+03
  7.54776E+03 -4.04640E+03  1.02765E+04  3.97499E+02  7.10518E+03  6.47608E+03  1.51744E+03  8.80466E+03
 -2.97746E+03  7.77286E+03 -4.96148E+03  2.77739E+03 -3.34089E+03 -1.23553E+03 -9.74989E+02 -2.73247E+02
 -2.23079E+02  7.25559E+02 -1.69342E+03  2.56013E+03 -3.30453E+03  1.28970E+03 -5.44471E+03 -1.05447E+03
 -3.12798E+03 -5.33106E+03  2.77814E+02 -6.79237E+03  4.17097E+03 -6.86965E+03  5.96732E+03 -1.78000E+03
  5.97449E+03  3.14082E+03  2.56839E+03  5.30166E+03 -1.23083E+03  6.52692E+03 -4.68657E+03  3.87950E+03
 -6.19451E+03  3.96384E+02 -5.23238E+03 -4.52804E+03 -2.97601E+01 -5.05125E+03  2.86649E+03 -3.57037E+03
  4.70930E+03 -2.00105E+03  2.05945E+03  4.84694E+02  9.54565E+02  2.44907E+03  1.13444E+03  5.75427E+02
  1.91626E+03  6.13647E+02  1.46895E+03  1.15127E+03  1.93113E+03  3.22562E+03  1.09218E+03  2.89379E+03
 -1.85083E+03  5.03663E+03 -3.87049E+03  5.31521E+03 -5.50384E+03  1.44320E+03 -6.58802E+03 -1.37489E+03
 -2.70517E+03 -5.61763E+03  9.17381E+02 -7.58180E+03  3.18698E+03 -4.79033E+03  4.96298E+03 -1.15792E+03
  3.71543E+03  2.49980E+03  7.03578E+02  3.12984E+03 -8.83713E+02  2.18422E+03 -1.66649E+03 -4.56956E+02
 -1.33736E+03 -2.00984E+03  9.27337E+02 -2.38120E+03  1.84485E+03 -1.32065E+03  2.22954E+03  4.55942E+02
  1.55168E+03  1.17315E+03  7.38330E+02  4.27198E+02 -6.02486E+02  9.41643E+02  1.76005E+03 -5.58775E+01
 -8.51615E+01 -2.64523E+02  2.73511E+03  8.61859E+02  3.74377E+02  3.18986E+03 -3.96873E+02  4.35020E+03
 -2.46481E+03  1.84698E+03 -3.59623E+03  1.30026E+02 -3.62011E+03 -1.29855E+03 -1.19113E+03 -1.57317E+03
  2.18982E+01 -1.98089E+03  1.35137E+03 -9.91879E+02  7.57636E+02  1.29396E+03 -1.12108E+03  1.84667E+03
 -2.52191E+03  9.91260E+02 -2.36726E+03 -2.23163E+03 -9.08386E+02 -3.38277E+03  3.82022E+02 -2.97351E+03
  1.58449E+03 -8.89243E+02  1.92473E+03  2.57683E+01  1.75648E+03  1.70553E+02  4.44572E+02  1.82606E+03
 -6.28491E+02  8.07317E+01 -8.28851E+02 -9.21091E+02  9.56084E+02 -1.84782E+03  2.23618E+03 -1.61816E+03
  2.26317E+03  3.29044E+01  3.35941E+03  1.67607E+03  1.81900E+03  3.28524E+03 -1.05662E+03  2.50506E+03
 -2.00073E+03  3.43059E+02 -2.13544E+03 -3.75096E+02 -1.68444E+03 -2.35315E+03  1.44812E+02 -1.43831E+03
  2.31349E+03 -1.26844E+03  1.37148E+03  9.64211E+02 -6.66713E+01  1.16910E+03  1.80174E+02  1.81933E+03
 -9.61561E+02  1.18756E+03 -8.90682E+02  1.52316E+02  3.71577E+02 -2.33569E+02 -1.12978E+03  9.91862E+02
 -3.11198E+02  1.07196E+03 -2.35190E+03  6.38827E+02 -2.99051E+03  1.89082E+02 -3.49930E+03 -1.65832E+03
 -2.02191E+03 -4.11622E+03  8.58432E+02 -4.34804E+03  2.46504E+03 -3.63398E+03  4.02414E+03 -1.63470E+03
  3.77834E+03  3.55130E+02  2.30565E+03  2.67638E+03  1.90656E+02  2.36955E+03 -5.89186E+02  2.03858E+03
 -1.58648E+03  1.33710E+03 -1.07034E+03  1.78828E+02 -4.97582E+02 -5.68020E+01 -9.06981E+02  1.76717E+02
 -1.36916E+03 -1.58479E+02 -9.12024E+02  1.96191E+02 -2.15466E+02 -8.33547E+02 -1.23919E+02 -9.75169E+02
  1.62114E+03 -1.04212E+03  1.14083E+03  5.87655E+02  2.06816E+03  1.57319E+03 -2.75762E+02  2.99305E+03
 -1.38931E+03  3.61661E+03 -2.93511E+03  2.30598E+03 -2.53941E+03 -6.23988E+02 -2.02266E+03 -2.08706E+03
 -1.76257E+03 -2.24371E+03  1.61985E+02 -2.06306E+03  1.32092E+03 -8.47563E+01  1.16861E+03 -2.30805E+02
 -4.51646E+01  5.10191E+02 -1.86952E+02  5.70063E+02 -6.81015E+02 -3.47415E+02 -4.44396E+02 -2.05752E+01
  9.06045E+02 -2.06248E+02  5.63971E+02  3.96266E+02  5.13130E+02  1.13760E+03  3.44057E+00  7.71356E+02
 -9.50734E+02  1.28103E+03 -7.34063E+02  1.55097E+02 -1.65732E+03 -1.20915E+03 -3.72662E+02 -2.39934E+03
  1.03871E+03 -1.52838E+03  5.66726E+02 -2.19759E+02  2.01181E+03  1.36667E+02  7.47466E+02  1.17785E+03
  4.81224E+02  1.09631E+03 -8.42671E+02  7.09923E+02 -5.33516E+02  1.06782E+03 -7.37833E+02  3.56294E+02
 -5.90933E+02  1.99564E+02 -1.05501E+03  2.47537E+02 -1.31025E+02  2.55992E+02 -1.05613E+03 -1.10298E+03
 -1.41303E+03  1.56566E+02 -9.46762E+02 -1.31171E+03  1.36508E+03 -2.81640E+03  2.01062E+03 -3.69165E+02
  1.46238E+03 -1.75346E+02 -9.06836E+01  6.87072E+02 -9.90831E+01  2.22468E+03 -6.11467E+02  1.09532E+03
