 $NMID ID='MM_0lb_SNR400_12hz_g40_24.RAW', FMTDAT='(8E13.5)'
 TRAMP=1., VOLUME=1. $END
  3.09633E+05  5.84149E+02  3.37209E+05  2.50548E+05  8.39436E+04  3.37917E+05 -1.32666E+05  2.51207E+05
 -1.90423E+05  8.32607E+04 -1.12278E+05 -3.19961E+04  7.54327E+02 -5.11814E+04  5.42988E+04 -4.45370E+02
  3.60957E+04  5.36954E+04 -1.69828E+04  7.52727E+04 -6.14495E+04  6.34809E+04 -8.44354E+04  3.19763E+04
 -8.10079E+04 -1.15518E+04 -5.73365E+04 -5.10386E+04 -1.53115E+04 -7.00790E+04  2.72326E+04 -4.56944E+04
  4.13923E+04  3.36969E+03  1.56948E+04  4.79523E+04 -3.43621E+04  4.75908E+04 -6.65748E+04  6.70085E+01
 -5.34185E+04 -5.73150E+04 -6.99085E+03 -7.78608E+04  3.38891E+04 -5.54893E+04  4.79955E+04 -1.74737E+04
  4.43067E+04  1.13678E+04  3.25949E+04  2.54848E+04  1.59424E+04  2.98508E+04 -4.89920E+03  2.73259E+04
 -2.24105E+04  1.20770E+04 -1.86715E+04 -5.23043E+03  5.62451E+03 -7.47504E+03  2.31920E+04  1.24358E+04
  7.10195E+03  3.63253E+04 -3.25617E+04  3.57801E+04 -6.39995E+04  1.14476E+03 -5.70565E+04 -4.31280E+04
 -1.27183E+04 -6.32296E+04  3.96116E+04 -4.50905E+04  5.84049E+04 -2.03072E+03  3.45051E+04  3.25693E+04
 -5.52143E+03  3.67167E+04 -3.09896E+04  1.62238E+04 -3.12539E+04 -4.42044E+03 -1.71139E+04 -1.18009E+04
 -8.06139E+03 -1.34735E+04 -6.63090E+02 -1.81820E+04  7.20884E+03 -2.22603E+04  1.58479E+04 -1.31823E+04
  1.16404E+04  4.78141E+03 -9.04809E+03  1.24490E+04 -2.15899E+04 -4.70997E+03 -8.23016E+03 -3.41143E+04
  2.35157E+04 -4.40689E+04  4.92989E+04 -2.00678E+04  4.56936E+04  1.92639E+04  1.61807E+04  4.49771E+04
 -1.64051E+04  3.34896E+04 -2.58556E+04  2.03191E+03 -1.02148E+04 -2.80329E+04  2.12267E+04 -3.48712E+04
  4.18358E+04 -9.58712E+03  3.69927E+04  2.41938E+04  1.85888E+04  4.73402E+04 -8.32897E+03  5.13216E+04
 -3.24503E+04  3.42426E+04 -4.30138E+04  9.35187E+03 -4.32713E+04 -1.75306E+04 -2.45318E+04 -3.80190E+04
  7.59991E+03 -3.88010E+04  3.16077E+04 -1.60448E+04  3.00359E+04  1.08334E+04  3.54733E+03  1.96107E+04
 -1.33095E+04  8.43631E+03 -1.01468E+04 -7.53336E+03  5.99147E+03 -1.17853E+04  1.81053E+04  5.82882E+03
  1.35406E+04  2.23290E+04 -6.50584E+03  2.56347E+04 -2.25877E+04  1.21387E+04 -2.92266E+04 -4.16778E+03
 -2.14342E+04 -1.74774E+04 -9.74998E+03 -2.11599E+04  3.71277E+03 -2.10509E+04  1.67941E+04 -1.92581E+04
  2.78920E+04 -1.28867E+04  3.39218E+04  3.10116E+03  2.37946E+04  2.07159E+04  4.69042E+03  3.73942E+04
 -1.76885E+04  3.06734E+04 -2.79024E+04  1.16234E+04 -2.10261E+04 -1.05365E+04 -4.24664E+03 -1.33018E+04
  1.55714E+03 -2.62782E+03 -5.47845E+03  6.53255E+03 -1.66645E+04  5.52487E+03 -1.77156E+04 -7.75209E+03
 -1.01009E+04 -1.92825E+04  4.95287E+03 -2.43416E+04  1.67446E+04 -1.68838E+04  1.84025E+04 -1.92350E+03
  1.22794E+04  1.35265E+04 -1.11179E+03  2.02448E+04 -1.34532E+04  1.06329E+04 -1.96807E+04 -4.62443E+03
 -1.49613E+04 -1.75001E+04 -2.22183E+03 -2.43367E+04  1.09469E+04 -1.96332E+04  2.00545E+04 -9.59120E+03
  1.85287E+04 -5.59907E+02  1.36758E+04  3.96663E+03  6.64395E+03  7.68724E+02  1.07218E+04 -1.57879E+03
  1.89527E+04  2.74793E+03  1.99855E+04  1.53722E+04  1.34877E+04  3.20758E+04 -3.14974E+03  3.62471E+04
 -2.05845E+04  3.01472E+04 -3.33391E+04  1.48881E+04 -3.55269E+04 -2.62970E+03 -2.91501E+04 -2.08014E+04
 -1.27981E+04 -2.91181E+04  1.05106E+04 -2.60104E+04  2.24382E+04 -1.30684E+04  2.02230E+04  6.50204E+03
  7.41764E+03  1.56576E+04 -1.03156E+04  1.31632E+04 -1.71175E+04  2.47742E+03 -1.25904E+04 -1.08534E+04
 -4.08171E+02 -1.58943E+04  8.09387E+03 -1.19676E+04  1.03794E+04 -5.38154E+02  3.22438E+03  6.37399E+03
 -7.17564E+03  3.19912E+03 -6.68826E+03 -5.81900E+03 -4.46576E+02 -1.43253E+04  1.00452E+04 -1.60470E+04
  1.82752E+04 -8.89867E+03  1.93785E+04  2.95212E+03  1.72764E+04  1.43944E+04  8.01919E+03  2.14073E+04
 -3.70475E+03  2.39865E+04 -1.55917E+04  1.47905E+04 -1.75475E+04  3.64559E+03 -1.25805E+04 -4.28738E+03
 -6.86269E+03 -5.52023E+03 -8.22500E+02  1.45799E+03 -2.34919E+03  2.75670E+03 -5.56977E+03  4.29320E+03
 -1.18125E+04 -2.70450E+02 -1.23523E+04 -9.82515E+03 -5.29478E+03 -1.60756E+04  4.85036E+03 -1.17083E+04
  1.02284E+04 -4.76420E+03  7.18364E+03  3.77030E+03 -2.89965E+02  4.41418E+03 -5.87194E+03 -2.70409E+02
 -5.66176E+03 -7.51038E+03 -6.82109E+02 -1.13336E+04  7.01197E+03 -1.21277E+04  1.48360E+04 -6.61037E+03
  1.80752E+04  1.07896E+03  1.32039E+04  1.08707E+04  2.70477E+03  1.35081E+04 -7.69565E+03  1.18887E+04
 -1.04573E+04  3.86336E+03 -5.02875E+03 -2.57489E+03  2.02949E+03 -3.36020E+03  6.45073E+03 -9.02276E+02
  5.42769E+03  5.40222E+03  1.07018E+03  9.16735E+03 -7.16672E+03  9.41130E+03 -1.28659E+04  2.16877E+03
 -8.22628E+03 -5.84310E+03 -8.30365E+02 -1.01274E+04  6.10079E+03 -4.60963E+03  6.36140E+03  2.60647E+03
  1.23467E+03  6.97724E+03 -6.18659E+03  8.36694E+03 -1.03013E+04  4.44525E+03 -9.91937E+03 -2.83528E+03
 -5.53929E+03 -1.13347E+04  2.62616E+03 -1.27421E+04  1.05181E+04 -8.48464E+03  1.22546E+04  1.83207E+03
  7.33641E+03  1.01342E+04 -3.56070E+02  1.14180E+04 -9.03674E+03  6.56125E+03 -9.28035E+03 -8.09326E+02
 -8.71628E+03 -7.73566E+03 -1.70390E+03 -8.65302E+03  5.19737E+03 -7.88023E+03  6.00973E+03 -4.07723E+03
  4.30112E+03  1.06207E+03 -7.58369E+02  1.97755E+03 -2.24568E+02 -2.20946E+03  1.70789E+03 -4.56784E+03
  8.21732E+03 -3.67208E+03  1.12649E+04  4.88603E+02  1.06279E+04  6.78560E+03  7.61221E+03  1.42187E+04
 -3.43893E+03  1.64855E+04 -1.43963E+04  1.27892E+04 -1.76302E+04  3.46954E+03 -1.51154E+04 -5.83301E+03
 -7.36983E+03 -1.29198E+04 -4.94316E+02 -1.04502E+04  3.75721E+03 -5.59176E+03  3.42523E+03 -3.41497E+03
  2.41317E+03 -2.43788E+03  3.44382E+03 -3.15187E+03  4.61448E+03 -2.29276E+03  6.22590E+03 -8.30630E+02
  7.75689E+03  2.31176E+03  3.42251E+03  6.36286E+03 -1.79766E+03  7.17027E+03 -8.10881E+03  5.23356E+03
 -9.84291E+03 -8.56823E+02 -5.65768E+03 -6.95514E+03  6.37581E+01 -1.07441E+04  6.30710E+03 -1.03587E+04
  1.04931E+04 -6.12780E+03  1.30641E+04  2.43112E+03  1.00526E+04  9.11939E+03  1.38217E+03  1.20198E+04
 -4.27823E+03  1.04870E+04 -7.20195E+03  3.22854E+03 -4.28092E+03 -1.72675E+03 -1.45125E+03 -1.04869E+03
 -6.99821E+02  9.74353E+02 -2.34399E+03  2.68498E+03 -4.18317E+03  1.95507E+03 -7.38076E+03 -1.71905E+03
 -5.11062E+03 -6.81265E+03  1.38607E+03 -9.48729E+03  6.20319E+03 -8.92089E+03  8.70229E+03 -2.79457E+03
  8.80296E+03  4.62005E+03  4.43392E+03  8.93906E+03 -1.39469E+03  9.04416E+03 -6.58335E+03  5.45969E+03
 -8.61671E+03  8.24362E+01 -6.59473E+03 -5.97411E+03 -7.23644E+02 -8.07070E+03  4.28724E+03 -6.54150E+03
  6.77121E+03 -1.95903E+03  3.84328E+03  1.80106E+03  1.62033E+03  2.77141E+03  1.25946E+03  1.06113E+03
  2.05949E+03  1.02697E+03  2.59995E+03  1.14966E+03  2.20711E+03  3.71831E+03  2.72091E+03  4.73796E+03
 -1.93478E+03  7.61165E+03 -6.32805E+03  7.93389E+03 -8.76539E+03  1.91464E+03 -9.77971E+03 -3.28465E+03
 -4.42584E+03 -1.00085E+04  1.24282E+03 -1.11650E+04  5.76015E+03 -6.10767E+03  7.13875E+03 -1.30164E+03
  6.08514E+03  3.53502E+03  5.24528E+02  5.73331E+03 -2.87072E+03  3.46573E+03 -3.62789E+03 -7.94880E+02
 -2.12194E+03 -4.44091E+03  2.25622E+03 -3.95128E+03  3.49441E+03 -2.28121E+03  3.62142E+03  1.13870E+03
  1.83331E+03  1.66623E+03  1.01881E+03  1.12304E+03 -2.88285E+02  8.36548E+02  1.31939E+03 -7.29208E+02
  2.06456E+03 -5.35438E+01  3.07389E+03  1.51267E+03  3.10152E+03  5.39076E+03 -1.23509E+03  6.32752E+03
 -3.69655E+03  4.37003E+03 -6.26284E+03  9.91117E+02 -5.72315E+03 -1.65755E+03 -2.06137E+03 -3.33827E+03
  1.09341E+02 -3.45635E+03  2.68912E+03 -1.07372E+03  1.45055E+03  2.42632E+03 -1.31068E+03  3.58904E+03
 -3.89238E+03  2.24655E+03 -4.21765E+03 -2.48302E+03 -2.13354E+03 -5.35363E+03  9.48408E+02 -5.49595E+03
  2.76591E+03 -2.90787E+03  3.17686E+03 -3.32413E+02  3.28766E+03  1.32657E+03  3.75113E+02  2.30800E+03
 -1.07796E+03  6.85442E+02 -2.03241E+03 -1.84492E+03  3.78389E+02 -3.82169E+03  4.77576E+03 -2.49893E+03
  5.23968E+03  7.37479E+02  5.82836E+03  2.85229E+03  2.69586E+03  5.20209E+03 -2.42680E+03  5.57295E+03
 -4.87592E+03  2.28094E+03 -5.31638E+03 -1.10717E+03 -2.91791E+03 -4.41956E+03  8.53014E+02 -3.26118E+03
  3.25457E+03 -1.86491E+03  3.02477E+03  1.79088E+03  7.84050E+02  4.08047E+03 -6.82445E+02  3.94382E+03
 -2.33276E+03  2.19508E+03 -1.09085E+03  2.12866E+02 -2.69895E+02  3.63427E+02 -1.45801E+03  1.01023E+03
 -2.07731E+03  2.49469E+03 -4.15235E+03  1.79619E+03 -5.66404E+03  8.20607E+01 -6.59049E+03 -3.63494E+03
 -2.98638E+03 -7.42306E+03  1.30050E+03 -9.36508E+03  5.46315E+03 -6.51907E+03  8.62084E+03 -3.04333E+03
  7.94866E+03  9.31209E+02  4.98485E+03  5.18119E+03 -1.69108E+02  5.61254E+03 -2.41444E+03  4.53416E+03
 -3.06450E+03  1.92479E+03 -1.77783E+03 -6.50788E+02 -1.73925E+03  2.84262E+01 -1.42726E+03 -4.43776E+02
 -2.20303E+03  9.73900E+01 -1.44804E+03  3.94317E+02  8.93420E+01 -1.60455E+03  1.40631E+02 -2.54759E+03
  2.36874E+03 -1.96453E+03  3.33909E+03 -6.08058E+02  4.09309E+03  3.16086E+03  9.89315E+02  5.40537E+03
 -2.90971E+03  6.70328E+03 -5.97289E+03  3.84585E+03 -6.45896E+03 -6.81639E+02 -4.74212E+03 -4.88142E+03
 -2.89346E+03 -6.24823E+03  1.46131E+03 -5.23007E+03  3.42248E+03 -1.89114E+03  3.60727E+03  1.82979E+02
  1.78638E+03  2.42645E+03 -1.19850E+02  1.76898E+03 -1.12670E+03 -2.30097E+02  2.60197E+01 -6.95432E+02
  2.06646E+03 -4.01617E+02  1.51166E+03  1.06805E+03  1.05296E+03  2.13140E+03  2.60906E+02  2.26362E+03
 -2.18188E+03  2.87778E+03 -3.73129E+03  6.35889E+02 -2.94902E+03 -2.83781E+03 -8.12619E+01 -4.84771E+03
  2.20953E+03 -3.67286E+03  4.21479E+03 -9.84387E+02  4.32271E+03  1.10935E+03  1.94413E+03  3.90880E+03
  1.48505E+02  3.95567E+03 -1.31452E+03  3.50684E+03 -2.52592E+03  1.11565E+03 -2.36462E+03  3.02257E+02
 -8.18567E+02 -4.82333E+02 -8.16198E+02  5.73383E+02 -2.78392E+03  7.75234E+02 -3.03770E+03 -1.13725E+03
 -2.61564E+03 -1.13620E+03 -8.79417E+02 -3.59026E+03  1.98081E+03 -4.31482E+03  2.85936E+03 -1.65513E+03
  3.41826E+03  5.63439E+02  1.22379E+03  1.96964E+03  3.55232E+01  3.93283E+03 -2.41342E+03  2.45122E+03
