 $NMID ID='MM_0lb_SNR400_20hz_g60_60.RAW', FMTDAT='(8E13.5)'
 TRAMP=1., VOLUME=1. $END
  3.09486E+05  4.14221E+02  3.37607E+05  2.50521E+05  8.43694E+04  3.37807E+05 -1.32667E+05  2.50553E+05
 -1.90445E+05  8.28367E+04 -1.11056E+05 -3.26871E+04  1.19278E+03 -4.98539E+04  5.41286E+04  3.00524E+02
  3.50137E+04  5.33881E+04 -1.68195E+04  7.50861E+04 -6.00423E+04  6.30177E+04 -8.33184E+04  3.19110E+04
 -8.07132E+04 -1.07154E+04 -5.65831E+04 -5.08224E+04 -1.46233E+04 -6.89333E+04  2.66711E+04 -4.52726E+04
  3.92073E+04  4.23340E+03  1.61542E+04  4.73536E+04 -3.44027E+04  4.65313E+04 -6.61515E+04 -2.24129E+02
 -5.21096E+04 -5.60980E+04 -6.91811E+03 -7.55367E+04  3.34039E+04 -5.34916E+04  4.64720E+04 -1.69220E+04
  4.19473E+04  1.12188E+04  3.09467E+04  2.43787E+04  1.60220E+04  2.83602E+04 -5.63534E+03  2.71959E+04
 -2.20245E+04  1.25942E+04 -1.91185E+04 -4.70966E+03  5.16504E+03 -7.45320E+03  2.15622E+04  1.13211E+04
  7.59626E+03  3.39671E+04 -3.08005E+04  3.43884E+04 -6.19239E+04  2.39574E+03 -5.51528E+04 -4.15804E+04
 -1.19234E+04 -6.15878E+04  3.86489E+04 -4.39383E+04  5.61364E+04 -1.82223E+03  3.28527E+04  3.11027E+04
 -6.65083E+03  3.37481E+04 -2.86897E+04  1.39964E+04 -2.81666E+04 -5.26773E+03 -1.45464E+04 -1.09224E+04
 -7.51218E+03 -1.22644E+04 -8.48593E+02 -1.70926E+04  7.45939E+03 -2.22947E+04  1.49012E+04 -1.40532E+04
  1.19340E+04  4.50467E+03 -6.53275E+03  1.32941E+04 -1.97976E+04 -3.50369E+03 -8.84907E+03 -3.17894E+04
  2.15236E+04 -4.19606E+04  4.55897E+04 -1.84402E+04  4.21174E+04  1.79211E+04  1.48567E+04  4.19735E+04
 -1.53356E+04  3.19457E+04 -2.36238E+04  9.19999E+02 -9.15508E+03 -2.67347E+04  2.05518E+04 -3.18652E+04
  3.85047E+04 -7.69511E+03  3.27518E+04  2.33522E+04  1.54420E+04  4.33743E+04 -7.69523E+03  4.64501E+04
 -2.94832E+04  3.06377E+04 -3.82711E+04  8.64852E+03 -3.94140E+04 -1.58742E+04 -2.20011E+04 -3.50449E+04
  7.20400E+03 -3.48388E+04  2.93967E+04 -1.31285E+04  2.72435E+04  1.08888E+04  3.12204E+03  1.82014E+04
 -1.35875E+04  7.38747E+03 -9.46044E+03 -7.93390E+03  5.81221E+03 -1.07297E+04  1.74696E+04  6.02884E+03
  1.28538E+04  2.20029E+04 -6.68841E+03  2.30780E+04 -2.14110E+04  9.70399E+03 -2.54743E+04 -5.91109E+03
 -1.71992E+04 -1.59834E+04 -6.15036E+03 -1.77302E+04  4.12975E+03 -1.50418E+04  1.26167E+04 -1.51489E+04
  2.16629E+04 -1.18865E+04  2.82967E+04  2.06623E+03  2.19406E+04  1.73234E+04  4.12928E+03  3.27070E+04
 -1.63719E+04  2.77328E+04 -2.59278E+04  9.94316E+03 -1.97256E+04 -1.04059E+04 -4.28660E+03 -1.33953E+04
  2.74817E+03 -3.49853E+03 -3.28035E+03  5.10554E+03 -1.35705E+04  5.00644E+03 -1.34746E+04 -4.97614E+03
 -8.59952E+03 -1.60228E+04  4.36630E+03 -1.96278E+04  1.28924E+04 -1.46358E+04  1.51542E+04 -7.49123E+02
  9.42263E+03  1.14266E+04 -1.17921E+03  1.58896E+04 -1.04006E+04  8.71610E+03 -1.53103E+04 -3.22149E+03
 -1.21848E+04 -1.42371E+04 -1.26130E+03 -1.94139E+04  8.33681E+03 -1.57624E+04  1.67262E+04 -7.15660E+03
  1.46188E+04  1.27757E+03  1.02886E+04  3.76446E+03  5.49852E+03  2.93340E+02  7.53222E+03 -1.39189E+03
  1.39772E+04  2.36834E+03  1.50816E+04  1.29189E+04  9.45093E+03  2.50297E+04 -2.85531E+03  2.68605E+04
 -1.61344E+04  2.04980E+04 -2.49892E+04  9.92745E+03 -2.50240E+04 -1.73923E+03 -2.18919E+04 -1.51537E+04
 -9.94879E+03 -2.05058E+04  7.26592E+03 -1.92762E+04  1.66479E+04 -1.09492E+04  1.62320E+04  3.37555E+03
  6.75756E+03  1.11950E+04 -7.26021E+03  1.04044E+04 -1.34411E+04  2.91942E+03 -1.01920E+04 -8.03502E+03
 -6.14601E+02 -1.25136E+04  6.19940E+03 -9.08285E+03  7.68725E+03 -1.58262E+03  1.41763E+03  4.85730E+03
 -5.34186E+03  1.26174E+03 -3.86768E+03 -4.36164E+03  4.77596E+02 -1.02724E+04  8.07064E+03 -9.80045E+03
  1.21390E+04 -4.45226E+03  1.17294E+04  2.88426E+03  1.04897E+04  9.15264E+03  5.14539E+03  1.38735E+04
 -1.46865E+03  1.59210E+04 -9.64180E+03  1.02367E+04 -1.15078E+04  3.39087E+03 -8.02967E+03 -1.75105E+03
 -3.99043E+03 -3.19667E+03 -6.71460E+02  1.40569E+03 -2.17944E+03  2.05178E+03 -3.16063E+03  4.08951E+03
 -7.72760E+03 -9.66579E+01 -8.72315E+03 -6.90014E+03 -3.61725E+03 -1.10404E+04  3.76555E+03 -7.91987E+03
  6.90422E+03 -3.76968E+03  4.84768E+03  2.67259E+03  7.80546E+01  2.78414E+03 -3.39877E+03 -5.16986E+02
 -3.07001E+03 -5.32597E+03 -6.35716E+02 -6.83396E+03  3.70580E+03 -7.86404E+03  9.52414E+03 -3.69842E+03
  1.09777E+04  4.40670E+02  8.83971E+03  5.74465E+03  1.86118E+03  8.17299E+03 -5.15357E+03  8.42015E+03
 -6.78680E+03  2.30457E+03 -3.70659E+03 -1.54844E+03  1.21566E+03 -1.97874E+03  4.90318E+03 -1.26470E+03
  4.25660E+03  2.93409E+03  1.13005E+03  6.18755E+03 -4.30787E+03  6.05468E+03 -7.41972E+03  1.81177E+03
 -4.76425E+03 -4.15220E+03  9.81033E+01 -6.22747E+03  3.39819E+03 -3.21338E+03  3.32866E+03  8.87506E+02
  4.58207E+02  3.34640E+03 -4.16402E+03  3.80636E+03 -4.34736E+03  2.54245E+03 -3.97533E+03 -1.02281E+03
 -3.03636E+03 -5.74216E+03  1.23210E+03 -6.64826E+03  5.93963E+03 -4.31030E+03  5.38731E+03  8.45770E+02
  4.49690E+03  4.45187E+03 -1.07945E+02  6.93518E+03 -4.78347E+03  4.04721E+03 -4.14461E+03 -1.13375E+02
 -5.82686E+03 -5.14021E+03 -1.05927E+03 -4.76520E+03  2.26221E+03 -4.43481E+03  2.27450E+03 -3.00793E+03
  2.66723E+03 -6.97999E+02 -1.82703E+02  1.48109E+03 -4.02971E+01  1.42074E+01  1.46494E+02 -9.55000E+02
  3.25682E+03 -4.20273E+02  4.98814E+03  4.60454E+02  4.89356E+03  2.71057E+03  4.33507E+03  6.20652E+03
 -1.10080E+03  7.42777E+03 -7.23283E+03  5.68763E+03 -8.99880E+03  6.56763E+02 -7.11835E+03 -2.28310E+03
 -3.65854E+03 -5.45019E+03 -5.09282E+02 -4.41428E+03  2.04247E+03 -1.37972E+03  1.40480E+03 -1.59722E+03
  1.03184E+03 -8.89060E+02  1.66367E+03 -2.74928E+03  3.36765E+03 -1.45623E+03  3.64541E+03  4.44389E+02
  4.03507E+03  9.18733E+02  1.17178E+03  3.00496E+03 -1.71255E+03  2.53541E+03 -3.91758E+03  2.56993E+03
 -4.29181E+03 -1.06597E+03 -1.38833E+03 -2.94716E+03  7.18623E+02 -4.03766E+03  3.10245E+03 -4.51750E+03
  3.94335E+03 -2.89598E+03  5.58330E+03  2.63687E+02  4.49093E+03  3.19864E+03  1.47556E+03  4.86639E+03
 -1.93862E+03  5.33599E+03 -3.47110E+03  1.57002E+03 -1.24506E+03 -8.76075E+02 -3.32560E+02 -3.82225E+02
 -5.04535E+02  7.24823E+01 -1.32661E+03  1.89798E+03 -2.24482E+03  8.54825E+02 -3.89404E+03 -7.18592E+01
 -1.36043E+03 -3.91067E+03  8.08480E+02 -3.81535E+03  2.44923E+03 -3.99246E+03  2.51161E+03 -1.00065E+03
  3.63899E+03  1.83063E+03  1.04318E+03  2.89561E+03 -4.25098E+02  3.88764E+03 -2.14711E+03  1.74878E+03
 -2.87048E+03  3.91918E+02 -3.31923E+03 -1.84018E+03  3.79654E+01 -2.55227E+03  8.85397E+02 -2.38420E+03
  2.06606E+03 -1.41428E+03  1.69649E+03 -1.18147E+02 -3.66529E+02  9.05184E+02  3.61340E+02  1.67562E+02
  2.08735E+03  2.63932E+02  1.00775E+03  6.51890E+02  1.01772E+03  1.93919E+03  1.14261E+03  1.06287E+03
 -1.16816E+03  2.97084E+03 -1.84792E+03  4.17579E+03 -2.74449E+03  1.04864E+03 -3.52136E+03 -1.43975E+01
 -1.02814E+03 -2.88480E+03  9.30747E+02 -3.59753E+03  1.79532E+03 -2.42171E+03  2.59427E+03 -9.66497E+02
  2.06417E+03  1.38870E+03 -8.61652E+01  1.78530E+03 -4.53170E+02  1.05375E+03 -6.08254E+02  2.40936E+02
 -3.35420E+02 -1.47479E+03  6.99997E+02 -1.33202E+03  1.15618E+03 -5.12177E+02  1.19489E+03  1.72035E+02
  6.98090E+02 -4.43193E+02  6.15781E+02 -7.95182E-01 -3.17078E+02  8.27282E+02  1.43450E+03 -5.60739E+02
 -5.98599E+01  8.42507E+01  1.66020E+03  4.14925E+02 -3.33795E+02  2.49144E+03 -3.39402E+02  2.50754E+03
 -1.21600E+03  6.96427E+02 -1.61098E+03  8.23608E+01 -2.16225E+03 -3.23461E+02 -1.21653E+02 -5.17423E+02
  4.86423E+02 -6.00333E+02  7.28748E+02 -3.78264E+02  3.87092E+02  1.14305E+03 -1.09822E+03  7.21186E+02
 -1.50434E+03  2.57505E+02 -9.95492E+02 -1.78706E+03 -4.95153E+01 -1.54387E+03  3.74509E+01 -8.79916E+02
  1.96250E+02  5.62815E+00 -9.98814E+01 -6.63655E+01  1.04348E+03  2.82007E+01  4.19879E+02  7.22399E+02
 -5.63925E+02  1.98469E+02 -9.32852E+02 -1.76693E+02  7.92972E+02 -5.51219E+02  1.13156E+03 -7.36548E+02
 -4.30155E+01  4.37710E+02  2.64514E+03 -3.51113E+01  1.46298E+03  8.16000E+02 -1.24822E+02  1.50421E+03
 -9.89861E+02  4.43907E+01 -1.15656E+03  5.83636E+02 -3.76409E+02 -7.69367E+02  4.29719E+02 -6.66556E+02
  1.32192E+03 -8.00912E+02  3.82798E+02  2.60100E+01  1.52906E+02  1.21273E+03  6.08860E+02  9.62396E+02
 -5.20202E+02  1.13896E+03  1.09698E+02  2.65446E+02  1.12432E+02 -4.30124E+01 -7.01100E+02  5.40339E+02
 -7.84999E+02  8.03068E+02 -1.73447E+03 -1.40834E+02 -9.85680E+02  4.28797E+01 -2.00510E+03 -7.13317E+02
 -9.48399E+02 -1.13276E+03  3.95863E+02 -1.70901E+03  3.04900E+02 -1.69243E+03  2.14071E+03 -1.06271E+03
  1.85002E+03 -5.49558E+02  6.83995E+02  1.42307E+03 -9.63049E+02  1.17002E+03 -3.68331E+02  5.54379E+02
 -1.04180E+03  8.78172E+02 -5.92577E+02 -4.19195E+02 -8.41217E+02 -1.39442E+02 -4.49315E+02  1.83581E+02
 -7.58168E+02  1.53069E+02 -2.19456E+02  8.57675E+01  4.29265E+01 -8.83109E+02 -2.54684E+02 -3.50942E+02
  1.36495E+03 -6.08650E+02 -6.14563E+01  6.31632E+02  9.36201E+02  9.22417E+02 -5.33326E+02  3.03810E+02
 -1.10101E+03  1.90028E+03 -1.14656E+03  9.52566E+02 -1.45525E+03 -1.92707E+01 -1.44835E+03 -1.13233E+03
 -4.52431E+02 -4.02880E+02 -2.93927E+02 -5.42220E+02  7.11832E+02 -7.52681E+02  4.14834E+02  2.58820E+02
  2.89987E+02 -1.47177E+02  3.76958E+00 -4.13582E+02  5.41011E+02  8.28773E+01 -7.74212E+01 -1.47197E+02
 -2.26944E+02  3.33609E+02 -2.89424E+00  3.14160E+02  8.61361E+01  2.83592E+02  1.29808E+02  8.17193E+01
  2.31745E+01  5.20878E+02  2.61515E+00 -5.37565E+01 -6.52635E+02 -1.87895E+02  2.17171E+02 -6.59249E+02
  2.75276E+02 -4.70292E+02 -6.33140E+02  2.24680E+02  2.63130E+02 -7.90049E+02 -2.08056E+02  5.31525E+02
  1.20287E+02  6.76141E+02  3.61119E+02  1.27741E+02 -3.86483E+02  4.75037E+02 -1.03356E+02 -2.11339E+02
  4.75795E+01  1.47579E+01 -2.89227E+02  3.19562E+02 -5.02438E+02  2.54755E+02 -1.69403E+02 -4.39652E+02
 -1.00634E+03  6.81146E+02 -7.19271E+02 -5.62034E+02  4.27044E+02 -1.09248E+03  1.15809E+02 -3.13992E+02
  9.94335E+01 -5.31928E+02 -1.74979E+02 -1.68806E+02 -1.67190E+02  6.82364E+02  5.08794E+02  6.50377E+02
