 $NMID ID='MM_0lb_SNR400_14hz_g50_61.RAW', FMTDAT='(8E13.5)'
 TRAMP=1., VOLUME=1. $END
  3.09868E+05  1.03516E+03  3.37044E+05  2.50834E+05  8.45650E+04  3.38141E+05 -1.32795E+05  2.50692E+05
 -1.90648E+05  8.36164E+04 -1.11839E+05 -3.31357E+04  1.17391E+03 -5.04415E+04  5.32686E+04 -3.41446E+02
  3.53711E+04  5.26664E+04 -1.64021E+04  7.55326E+04 -6.07158E+04  6.38126E+04 -8.46592E+04  3.23247E+04
 -8.03908E+04 -1.14447E+04 -5.70626E+04 -5.08029E+04 -1.52891E+04 -6.98658E+04  2.70437E+04 -4.56558E+04
  4.00407E+04  3.22256E+03  1.61104E+04  4.81012E+04 -3.41265E+04  4.74017E+04 -6.63036E+04 -5.21113E+02
 -5.40559E+04 -5.72533E+04 -6.83660E+03 -7.72970E+04  3.39829E+04 -5.51720E+04  4.79757E+04 -1.74085E+04
  4.38537E+04  1.11900E+04  3.13768E+04  2.51662E+04  1.62618E+04  2.95110E+04 -5.02779E+03  2.73239E+04
 -2.14260E+04  1.22498E+04 -1.85490E+04 -4.72174E+03  5.75052E+03 -7.64576E+03  2.24493E+04  1.28191E+04
  7.67037E+03  3.50767E+04 -3.22018E+04  3.48344E+04 -6.36240E+04  2.21119E+03 -5.66384E+04 -4.31179E+04
 -1.21678E+04 -6.34785E+04  4.00530E+04 -4.54240E+04  5.82612E+04 -1.47804E+03  3.48385E+04  3.24889E+04
 -6.16333E+03  3.62787E+04 -2.93807E+04  1.58254E+04 -3.08221E+04 -4.20134E+03 -1.69774E+04 -1.13297E+04
 -8.54839E+03 -1.35782E+04 -2.53148E+02 -1.82363E+04  7.94344E+03 -2.33855E+04  1.55571E+04 -1.34076E+04
  1.09066E+04  4.81693E+03 -8.14716E+03  1.31236E+04 -2.13545E+04 -4.23076E+03 -8.92028E+03 -3.36171E+04
  2.31518E+04 -4.37147E+04  4.86134E+04 -1.93455E+04  4.53577E+04  1.99060E+04  1.60549E+04  4.40391E+04
 -1.58444E+04  3.37230E+04 -2.55355E+04  1.75590E+03 -9.69221E+03 -2.82628E+04  2.05106E+04 -3.38909E+04
  4.14719E+04 -9.40063E+03  3.51278E+04  2.37460E+04  1.88916E+04  4.62811E+04 -8.39122E+03  5.00922E+04
 -3.20293E+04  3.44931E+04 -4.25955E+04  9.94088E+03 -4.29787E+04 -1.72046E+04 -2.37920E+04 -3.78812E+04
  7.45157E+03 -3.83092E+04  3.16116E+04 -1.49158E+04  2.87712E+04  1.13799E+04  3.78293E+03  1.96558E+04
 -1.36023E+04  8.70191E+03 -1.06440E+04 -7.95322E+03  5.68761E+03 -1.06252E+04  1.83392E+04  6.29575E+03
  1.34865E+04  2.20644E+04 -6.37193E+03  2.51304E+04 -2.22436E+04  1.21044E+04 -2.80812E+04 -4.96066E+03
 -2.04872E+04 -1.74300E+04 -8.06491E+03 -2.03838E+04  3.59215E+03 -1.97369E+04  1.61196E+04 -1.87118E+04
  2.62987E+04 -1.33384E+04  3.21876E+04  2.93383E+03  2.38631E+04  2.02690E+04  4.07922E+03  3.64424E+04
 -1.83403E+04  3.11505E+04 -2.81955E+04  1.03829E+04 -2.06857E+04 -1.05235E+04 -4.06659E+03 -1.33631E+04
  1.63112E+03 -2.76664E+03 -5.08421E+03  6.64583E+03 -1.61316E+04  5.15857E+03 -1.61377E+04 -7.66800E+03
 -1.04493E+04 -1.90917E+04  5.71971E+03 -2.33244E+04  1.60555E+04 -1.65844E+04  1.83803E+04 -1.35237E+03
  1.14564E+04  1.32215E+04 -9.44035E+02  1.92061E+04 -1.23573E+04  1.06255E+04 -1.91049E+04 -4.33479E+03
 -1.43418E+04 -1.74093E+04 -1.63399E+03 -2.27145E+04  1.02821E+04 -1.90701E+04  1.93059E+04 -9.53202E+03
  1.82813E+04 -2.58197E+02  1.25803E+04  4.80641E+03  7.11982E+03  1.13753E+03  9.15585E+03 -1.92865E+03
  1.71219E+04  2.86239E+03  1.90028E+04  1.54230E+04  1.24044E+04  3.12500E+04 -3.24762E+03  3.39333E+04
 -1.96552E+04  2.77797E+04 -3.19745E+04  1.34835E+04 -3.37033E+04 -2.40934E+03 -2.75703E+04 -1.98866E+04
 -1.20179E+04 -2.80218E+04  9.60416E+03 -2.51886E+04  2.18254E+04 -1.31449E+04  1.90707E+04  5.43571E+03
  7.51003E+03  1.52582E+04 -8.89302E+03  1.23925E+04 -1.68493E+04  2.27353E+03 -1.23147E+04 -9.68273E+03
 -2.56330E+02 -1.57738E+04  8.36312E+03 -1.18052E+04  1.03516E+04 -1.37695E+03  2.14727E+03  6.71261E+03
 -7.21561E+03  2.68406E+03 -5.75868E+03 -5.55745E+03 -4.72324E+02 -1.38323E+04  9.71202E+03 -1.49028E+04
  1.69757E+04 -7.06261E+03  1.73331E+04  2.63862E+03  1.54840E+04  1.35757E+04  7.61821E+03  2.07221E+04
 -3.43660E+03  2.23814E+04 -1.42465E+04  1.40839E+04 -1.65506E+04  3.04797E+03 -1.12580E+04 -4.15236E+03
 -5.02626E+03 -5.05773E+03 -9.81383E+02  6.60226E+02 -2.42494E+03  3.12857E+03 -4.95373E+03  4.10784E+03
 -1.10738E+04 -6.20007E+02 -1.08630E+04 -8.66129E+03 -4.44908E+03 -1.45846E+04  4.05350E+03 -1.13000E+04
  9.64340E+03 -4.62975E+03  6.52598E+03  2.74906E+03  5.38434E+02  5.01284E+03 -5.68186E+03 -5.64934E+02
 -5.08915E+03 -6.84464E+03 -9.40975E+02 -1.00594E+04  6.09557E+03 -1.17618E+04  1.34952E+04 -6.15486E+03
  1.73117E+04  2.08686E+03  1.25076E+04  1.00315E+04  2.57585E+03  1.23239E+04 -7.28174E+03  1.20268E+04
 -9.13986E+03  3.58399E+03 -4.85870E+03 -2.09181E+03  1.41118E+03 -3.10535E+03  6.49005E+03 -7.11620E+02
  5.51819E+03  4.70862E+03  9.03589E+02  9.05724E+03 -5.64922E+03  8.78510E+03 -1.14017E+04  2.62564E+03
 -7.00044E+03 -5.82504E+03  3.08289E+02 -9.48557E+03  5.52560E+03 -4.09585E+03  5.87435E+03  1.82321E+03
  1.22275E+03  5.99855E+03 -6.10359E+03  6.85375E+03 -8.40246E+03  3.77497E+03 -8.21927E+03 -2.65006E+03
 -4.59464E+03 -1.01188E+04  1.66837E+03 -1.13409E+04  9.18700E+03 -7.33085E+03  1.10445E+04  1.27051E+03
  6.16354E+03  7.94977E+03 -1.10917E+02  1.01028E+04 -7.47474E+03  6.11975E+03 -8.71212E+03 -9.72158E+02
 -8.36817E+03 -7.31309E+03 -1.17995E+03 -8.71625E+03  4.00153E+03 -6.47925E+03  4.29473E+03 -3.29462E+03
  3.29833E+03  7.01679E+02 -7.10410E+02  1.77840E+03  2.22909E+02 -1.39132E+03  1.22338E+03 -4.15930E+03
  6.54814E+03 -2.11879E+03  9.70373E+03  1.11141E+03  9.40972E+03  5.91192E+03  7.33275E+03  1.35677E+04
 -2.64190E+03  1.43688E+04 -1.22905E+04  1.07215E+04 -1.62923E+04  2.42943E+03 -1.23168E+04 -4.69507E+03
 -6.74815E+03 -1.08927E+04 -4.61845E+02 -8.61666E+03  2.39475E+03 -4.44372E+03  3.60651E+03 -3.05552E+03
  2.15314E+03 -1.68951E+03  2.49282E+03 -3.17648E+03  4.26620E+03 -2.42202E+03  5.80035E+03 -5.32316E+02
  6.99836E+03  1.46182E+03  2.84901E+03  5.75333E+03 -2.26620E+03  5.81397E+03 -7.25158E+03  4.72437E+03
 -8.55417E+03 -6.22927E+02 -4.95113E+03 -6.01821E+03  2.54096E+02 -8.92086E+03  5.07970E+03 -9.71668E+03
  9.40613E+03 -5.54683E+03  1.14923E+04  1.16805E+03  7.71776E+03  6.64382E+03  1.64245E+03  1.00503E+04
 -4.31750E+03  9.64736E+03 -6.30605E+03  4.01725E+03 -3.85102E+03 -1.34641E+03 -8.54210E+02 -6.11656E+02
 -5.33064E+02  6.58756E+02 -1.47275E+03  2.81223E+03 -3.85587E+03  1.89106E+03 -6.12279E+03 -8.61449E+02
 -3.72908E+03 -6.31684E+03  1.33903E+02 -8.38439E+03  4.20468E+03 -7.87892E+03  7.67024E+03 -2.04961E+03
  7.91694E+03  4.32051E+03  3.22014E+03  6.91472E+03 -1.24986E+03  8.23920E+03 -5.22428E+03  5.32124E+03
 -7.26940E+03  1.38537E+02 -6.33657E+03 -4.49855E+03 -1.08904E+03 -6.72332E+03  3.42896E+03 -4.31965E+03
  4.62613E+03 -1.31340E+03  4.17955E+03  1.78338E+03  1.58454E+03  2.90454E+03  1.35635E+03  1.05470E+03
  2.64078E+03  8.29169E+02  1.61735E+03  9.61140E+02  2.70725E+03  2.99380E+03  2.13095E+03  3.40142E+03
 -1.69932E+03  5.75148E+03 -4.99604E+03  6.62994E+03 -7.55851E+03  2.20386E+03 -8.04072E+03 -2.65416E+03
 -3.42082E+03 -7.84348E+03  1.33802E+03 -8.76339E+03  5.00066E+03 -5.26925E+03  6.17918E+03 -2.20020E+03
  5.50002E+03  2.81484E+03  2.67177E+02  4.76906E+03 -2.52895E+03  3.07256E+03 -3.31214E+03 -2.69059E+02
 -1.91031E+03 -2.74230E+03  2.03232E+03 -2.52597E+03  3.20594E+03 -1.68198E+03  2.78947E+03  8.10337E+02
  1.93249E+03  1.79843E+03  1.32268E+03  1.39413E+03 -6.58219E+02  1.05449E+03  9.84922E+02 -6.63233E+02
  4.73880E+02 -2.02639E+02  3.33162E+03  1.18248E+03  1.51072E+03  4.38283E+03 -1.13203E+03  5.87584E+03
 -3.69204E+03  2.72906E+03 -4.73014E+03  9.02701E+02 -3.72180E+03 -1.37086E+03 -7.15164E+02 -2.52741E+03
  1.20678E+03 -3.13424E+03  1.89430E+03 -1.79461E+03  8.39492E+02  1.97077E+03 -2.55336E+02  2.99293E+03
 -3.11664E+03  1.48676E+03 -2.75290E+03 -1.77612E+03 -2.02243E+03 -4.25791E+03  2.24024E+02 -3.25149E+03
  2.23590E+03 -2.39522E+03  2.28991E+03  2.21854E+02  2.29318E+03  9.43517E+02 -6.35753E+01  2.68307E+03
 -1.56716E+03  8.30438E+02 -1.60669E+03 -1.24281E+03  7.89698E+02 -2.51141E+03  2.76384E+03 -1.47388E+03
  4.11517E+03  1.88273E+02  4.81484E+03  2.89541E+03  1.25079E+03  4.15512E+03 -6.14760E+02  4.62172E+03
 -2.78535E+03  1.03115E+03 -3.14470E+03 -5.74402E+02 -1.68659E+03 -2.87427E+03  9.35021E+02 -2.70231E+03
  2.83141E+03 -1.07762E+03  1.49972E+03  1.20148E+03  2.69865E+02  2.96652E+03  2.02613E+02  2.66139E+03
 -3.61876E+02  1.22073E+03 -1.06906E+03  2.67354E+02 -6.90991E+02  8.46689E+02 -7.26066E+02  9.13141E+02
 -1.08958E+03  1.87571E+03 -2.78727E+03  1.45856E+03 -3.97206E+03  4.71418E+02 -5.21495E+03 -2.73377E+03
 -2.46871E+03 -5.64414E+03  1.18422E+03 -6.53342E+03  2.67074E+03 -4.73248E+03  6.42173E+03 -1.75409E+03
  5.44863E+03  9.65548E+02  3.79762E+03  3.75724E+03 -5.70964E+02  3.93448E+03 -1.34239E+03  2.29660E+03
 -1.71285E+03  1.10896E+03 -1.42821E+03 -8.24364E+02 -1.45766E+03 -1.91931E+02 -7.13897E+02  6.43012E+02
 -1.94685E+03 -3.30562E+02 -1.51090E+03  2.14842E+02 -4.17210E+02 -1.38928E+03 -1.60754E+01 -1.08718E+03
  2.05331E+03 -1.64536E+03  2.88862E+03  3.12570E+01  2.41446E+03  2.16390E+03 -2.77031E+02  3.74248E+03
 -1.70826E+03  4.35173E+03 -4.07690E+03  3.10764E+03 -4.85919E+03 -2.99026E+01 -3.70842E+03 -3.62010E+03
 -1.45673E+03 -4.40870E+03  1.33502E+03 -3.28208E+03  2.12301E+03 -1.70393E+03  2.33198E+03 -5.47101E+02
  1.41447E+03  9.37587E+02 -6.52624E+01  1.23047E+03 -7.57598E+02 -4.24667E+02 -2.78953E+02 -2.97514E+02
  1.03461E+03 -1.58544E+02  1.78508E+03  1.30599E+02  1.08421E+03  1.66736E+03  6.84748E+02  1.13802E+03
 -1.87579E+03  1.87062E+03 -2.57627E+03 -8.36190E+01 -2.06820E+03 -2.34659E+03 -4.13151E+02 -3.26946E+03
  1.46135E+03 -1.85326E+03  2.44502E+03 -9.71389E+01  2.91369E+03  3.17215E+02  1.67268E+03  2.10322E+03
  2.91452E+02  2.01778E+03 -9.34395E+02  1.83479E+03 -2.11257E+03  1.39950E+03 -2.50169E+02  4.43119E+02
 -7.47593E+02  5.16757E+02 -7.69014E+02  2.11137E+02 -1.52949E+03  2.71436E+02 -1.56608E+03 -9.79429E+02
 -1.98396E+03 -1.10339E+03 -1.10113E+03 -2.39351E+03  1.43103E+03 -2.36969E+03  2.35440E+03 -9.33856E+02
  2.86159E+03  4.11506E+02  4.97821E+02  2.00286E+03 -6.43988E+02  2.58359E+03 -1.51347E+03  1.79914E+03
