 $NMID ID='MM_0lb_SNR400_7hz_g55_76.RAW', FMTDAT='(8E13.5)'
 TRAMP=1., VOLUME=1. $END
  3.10050E+05  7.88965E+02  3.38332E+05  2.50966E+05  8.45756E+04  3.39058E+05 -1.32037E+05  2.51946E+05
 -1.90927E+05  8.37486E+04 -1.13008E+05 -3.12067E+04 -7.89148E+02 -5.16367E+04  5.47944E+04 -2.92644E+02
  3.50773E+04  5.25754E+04 -1.70243E+04  7.69180E+04 -6.19283E+04  6.42652E+04 -8.58097E+04  3.41036E+04
 -8.35862E+04 -1.13730E+04 -5.87801E+04 -5.31502E+04 -1.43903E+04 -7.20534E+04  2.79598E+04 -4.82320E+04
  4.10383E+04  3.15501E+03  1.81851E+04  4.89283E+04 -3.46782E+04  4.73547E+04 -6.90128E+04  1.08783E+03
 -5.58142E+04 -5.81744E+04 -8.07351E+03 -8.03328E+04  3.62236E+04 -5.83874E+04  5.10631E+04 -1.93987E+04
  4.63224E+04  1.18893E+04  3.36163E+04  2.69867E+04  1.61798E+04  3.10312E+04 -6.13177E+03  2.84067E+04
 -2.14152E+04  1.22843E+04 -1.79609E+04 -5.46115E+03  7.57223E+03 -7.28664E+03  2.33369E+04  1.52483E+04
  7.13296E+03  3.88583E+04 -3.44458E+04  3.79959E+04 -6.62645E+04  1.90871E+03 -5.96080E+04 -4.49361E+04
 -1.23249E+04 -6.63051E+04  4.18252E+04 -4.86621E+04  6.24685E+04 -3.10609E+03  3.84444E+04  3.61219E+04
 -5.24388E+03  4.12124E+04 -3.24444E+04  2.05662E+04 -3.43942E+04 -3.10821E+03 -2.13735E+04 -1.27797E+04
 -1.05504E+04 -1.57497E+04  8.64735E+01 -2.05323E+04  7.82403E+03 -2.37102E+04  1.68145E+04 -1.27607E+04
  9.79695E+03  6.88478E+03 -1.12297E+04  1.29814E+04 -2.41824E+04 -7.89722E+03 -8.76946E+03 -3.92743E+04
  2.62596E+04 -4.88052E+04  5.34858E+04 -2.15898E+04  4.99475E+04  2.15608E+04  1.84497E+04  4.82103E+04
 -1.65836E+04  3.71629E+04 -2.96801E+04  3.16019E+03 -1.19331E+04 -3.07025E+04  2.14190E+04 -3.80620E+04
  4.67612E+04 -1.19298E+04  4.32141E+04  2.58311E+04  2.29079E+04  5.38928E+04 -8.14130E+03  5.88662E+04
 -3.71444E+04  4.05866E+04 -5.06377E+04  1.08915E+04 -5.09149E+04 -1.87602E+04 -2.79795E+04 -4.43645E+04
  7.90064E+03 -4.46493E+04  3.50562E+04 -1.84092E+04  3.41579E+04  1.15882E+04  5.79859E+03  2.13645E+04
 -1.34157E+04  1.08178E+04 -1.14415E+04 -7.04715E+03  5.59664E+03 -1.21919E+04  1.96853E+04  4.84695E+03
  1.54740E+04  2.30498E+04 -4.33936E+03  2.71420E+04 -2.47811E+04  1.59594E+04 -3.41424E+04 -2.35887E+03
 -2.74424E+04 -1.86506E+04 -1.30231E+04 -2.69563E+04  4.39366E+03 -2.90082E+04  2.17338E+04 -2.58856E+04
  3.59245E+04 -1.53565E+04  4.08054E+04  6.37389E+03  2.82713E+04  2.73722E+04  4.36463E+03  4.42479E+04
 -1.98369E+04  3.55213E+04 -3.16488E+04  1.27416E+04 -2.40854E+04 -1.14771E+04 -4.88234E+03 -1.32874E+04
  4.48962E+01 -2.69863E+02 -8.98066E+03  8.73000E+03 -2.26526E+04  4.82459E+03 -2.25145E+04 -1.06167E+04
 -1.22465E+04 -2.56664E+04  5.51948E+03 -3.03465E+04  1.94457E+04 -2.19706E+04  2.48759E+04 -1.23344E+03
  1.60873E+04  1.83551E+04 -1.75783E+03  2.50001E+04 -1.80696E+04  1.47066E+04 -2.64744E+04 -6.12355E+03
 -1.79940E+04 -2.31959E+04 -2.20107E+03 -2.93158E+04  1.40922E+04 -2.59182E+04  2.58165E+04 -1.21756E+04
  2.54819E+04  5.13682E+01  1.72623E+04  5.23862E+03  9.40140E+03  1.99037E+03  1.38422E+04 -2.43836E+03
  2.49736E+04  2.72514E+03  2.78377E+04  2.00540E+04  2.05016E+04  4.18128E+04 -2.46752E+03  4.95656E+04
 -2.85695E+04  4.19643E+04 -4.64594E+04  2.26932E+04 -5.06251E+04 -4.00029E+03 -4.01608E+04 -2.96907E+04
 -1.46265E+04 -4.18343E+04  1.54899E+04 -3.66879E+04  3.15316E+04 -1.66856E+04  2.62760E+04  8.99103E+03
  8.54100E+03  2.20800E+04 -1.29734E+04  1.81172E+04 -2.26352E+04  2.46965E+03 -1.73568E+04 -1.49808E+04
 -8.73787E+02 -2.14005E+04  1.11164E+04 -1.56198E+04  1.49128E+04 -1.39400E+03  4.15950E+03  1.06966E+04
 -9.63193E+03  4.88072E+03 -1.14976E+04 -7.56093E+03 -2.02075E+03 -2.09918E+04  1.26941E+04 -2.31446E+04
  2.57794E+04 -1.32515E+04  3.00882E+04  4.26331E+03  2.71172E+04  2.12279E+04  1.26234E+04  3.39961E+04
 -7.79654E+03  3.57434E+04 -2.40896E+04  2.22154E+04 -2.57766E+04  5.06821E+03 -1.70442E+04 -6.81194E+03
 -6.61526E+03 -9.73949E+03 -1.05186E+03 -5.70610E+01 -2.19679E+03  3.81168E+03 -8.99966E+03  6.27678E+03
 -1.66763E+04  5.21987E+01 -1.74704E+04 -1.31711E+04 -5.49619E+03 -2.18495E+04  7.77759E+03 -1.76222E+04
  1.46241E+04 -7.70310E+03  1.04293E+04  5.21198E+03 -8.64454E+02  7.20071E+03 -9.37823E+03 -5.46123E+02
 -8.84733E+03 -1.23096E+04 -2.21801E+03 -1.85495E+04  1.04868E+04 -1.94987E+04  2.33012E+04 -1.09543E+04
  2.71298E+04  2.58637E+03  2.07886E+04  1.66783E+04  4.19690E+03  2.29164E+04 -1.09683E+04  1.81817E+04
 -1.37305E+04  4.44096E+03 -7.89815E+03 -3.15775E+03  2.46387E+03 -5.51337E+03  1.01932E+04 -2.35087E+03
  8.42568E+03  8.11995E+03  1.26340E+03  1.49535E+04 -1.05829E+04  1.36941E+04 -1.73121E+04  1.95538E+03
 -1.22785E+04 -1.00337E+04  6.83065E+02 -1.50624E+04  1.05993E+04 -7.88464E+03  1.21054E+04  4.29087E+03
  2.12808E+03  1.28243E+04 -8.71165E+03  1.44654E+04 -1.62056E+04  6.28210E+03 -1.80742E+04 -6.75136E+03
 -9.14554E+03 -1.90830E+04  5.48426E+03 -2.23115E+04  1.82191E+04 -1.33428E+04  2.12407E+04  3.90385E+03
  1.17083E+04  1.65326E+04 -1.67250E+03  1.93579E+04 -1.45832E+04  9.12353E+03 -1.46028E+04 -2.23698E+03
 -1.19439E+04 -1.21347E+04 -1.66921E+03 -1.41137E+04  7.37251E+03 -1.10330E+04  9.77677E+03 -4.58594E+03
  5.95445E+03  2.52327E+03 -1.24163E+03  3.12279E+03 -1.01144E+03 -4.00537E+03  4.29389E+03 -8.88148E+03
  1.40269E+04 -6.09883E+03  2.08489E+04  1.75734E+03  1.94865E+04  1.39551E+04  1.09475E+04  2.66347E+04
 -6.13346E+03  3.01625E+04 -2.51036E+04  2.19128E+04 -3.22345E+04  4.22574E+03 -2.52967E+04 -1.14063E+04
 -1.28248E+04 -2.10700E+04 -1.00142E+03 -1.81012E+04  6.42668E+03 -1.14645E+04  6.39740E+03 -7.11331E+03
  5.06225E+03 -4.15862E+03  3.65312E+03 -4.37208E+03  7.40031E+03 -3.88172E+03  1.07021E+04 -2.35409E+03
  1.36180E+04  3.62378E+03  8.16792E+03  1.16732E+04 -2.57666E+03  1.42366E+04 -1.48594E+04  1.11401E+04
 -1.86038E+04 -1.24094E+03 -1.33909E+04 -1.30353E+04 -2.26832E+03 -2.01867E+04  1.08136E+04 -1.97179E+04
  2.17145E+04 -1.11928E+04  2.44757E+04  3.63287E+03  1.67828E+04  1.71161E+04  1.86897E+03  2.27560E+04
 -9.37774E+03  1.78937E+04 -1.30073E+04  5.54681E+03 -8.69083E+03 -2.23460E+03 -4.59772E+03 -2.20337E+03
 -2.09009E+03 -5.80469E+02 -2.60310E+03  2.99645E+03 -8.00977E+03  4.13728E+03 -1.31371E+04 -2.55080E+03
 -1.03853E+04 -1.21593E+04  4.33143E+01 -1.84866E+04  1.11219E+04 -1.71996E+04  1.90549E+04 -5.59293E+03
  1.93288E+04  8.62196E+03  8.54964E+03  1.71247E+04 -3.75624E+03  1.93145E+04 -1.41818E+04  1.15658E+04
 -1.83685E+04 -6.68301E+02 -1.36343E+04 -1.23085E+04 -2.36887E+03 -1.63891E+04  8.65592E+03 -1.25064E+04
  1.23325E+04 -3.59589E+03  8.86657E+03  4.03306E+03  3.07576E+03  5.39649E+03  2.45260E+03  3.72927E+03
  2.19381E+03  7.62742E+02  4.32456E+03  2.70326E+03  6.81236E+03  6.45250E+03  4.31734E+03  1.11093E+04
 -3.60291E+03  1.54827E+04 -1.48382E+04  1.57897E+04 -2.11944E+04  3.92920E+03 -2.13142E+04 -9.26105E+03
 -1.02172E+04 -2.06188E+04  2.09059E+03 -2.14599E+04  1.27805E+04 -1.45644E+04  1.67389E+04 -2.26144E+03
  1.19524E+04  7.66592E+03  2.76357E+03  1.12498E+04 -6.01357E+03  7.37922E+03 -7.16382E+03 -7.01501E+02
 -3.74368E+03 -9.04180E+03  4.41190E+03 -8.94167E+03  7.94803E+03 -4.27218E+03  7.86486E+03  1.18911E+03
  5.43428E+03  4.20325E+03  2.52061E+03  3.79702E+03 -1.34398E+03  2.23051E+03  1.60374E+03 -4.11347E+02
  4.07915E+03 -1.52559E+03  8.01333E+03  3.43383E+03  6.19708E+03  1.09093E+04 -1.14230E+03  1.45452E+04
 -9.01915E+03  9.92166E+03 -1.35774E+04  3.01210E+03 -1.14520E+04 -4.23402E+03 -4.74412E+03 -7.92257E+03
  8.40725E+02 -9.46066E+03  5.24344E+03 -4.12410E+03  3.20489E+03  4.48349E+03 -1.68051E+03  6.94215E+03
 -8.38775E+03  5.46191E+03 -9.87620E+03 -4.97913E+03 -5.61508E+03 -1.09725E+04  1.77164E+03 -1.18154E+04
  7.94666E+03 -6.84041E+03  9.25411E+03 -1.13510E+03  7.09391E+03  3.29480E+03  2.12819E+03  6.31238E+03
 -4.09765E+03  2.89187E+03 -5.08242E+03 -4.78577E+03  1.16593E+03 -9.53767E+03  1.11249E+04 -7.96786E+03
  1.34158E+04  5.96925E+02  1.29415E+04  9.00238E+03  3.67830E+03  1.50068E+04 -5.51346E+03  1.28774E+04
 -1.18647E+04  6.24591E+03 -1.16423E+04 -3.22412E+03 -6.47519E+03 -8.90793E+03  1.89822E+03 -9.14905E+03
  8.48508E+03 -4.63897E+03  6.95427E+03  4.58074E+03  1.61435E+03  7.44997E+03 -1.41879E+03  6.70143E+03
 -3.35740E+03  4.43798E+03 -3.46730E+03  1.16091E+03 -2.15468E+03  1.45125E+03 -2.36896E+03  2.63182E+03
 -4.07080E+03  6.07057E+03 -9.72771E+03  4.60555E+03 -1.37055E+04 -4.01632E+02 -1.68402E+04 -9.83150E+03
 -8.36503E+03 -1.93712E+04  3.55343E+03 -2.15817E+04  1.36052E+04 -1.68209E+04  2.07479E+04 -6.85905E+03
  2.01992E+04  3.64070E+03  1.18309E+04  1.44694E+04  2.06454E+03  1.56131E+04 -6.22781E+03  1.06239E+04
 -8.17784E+03  5.24181E+03 -5.15751E+03 -2.05401E+03 -1.82484E+03 -1.50148E+03 -4.29402E+02  1.16716E+01
 -2.88177E+03 -2.87468E+02 -3.13780E+03 -1.08204E+03 -1.02586E+03 -3.31303E+03  7.93255E+02 -5.07109E+03
  6.86904E+03 -4.59078E+03  9.98838E+03 -1.78990E+02  1.10447E+04  8.13960E+03  3.39392E+03  1.54220E+04
 -6.54823E+03  1.72896E+04 -1.60829E+04  1.07989E+04 -1.99105E+04 -2.40049E+03 -1.35251E+04 -1.13616E+04
 -6.38519E+03 -1.58767E+04  3.71812E+03 -1.49118E+04  1.07564E+04 -8.50416E+03  1.07259E+04  9.35282E+02
  5.64492E+03  5.50124E+03 -4.65534E+02  5.57373E+03 -2.37636E+03 -5.93537E+02  1.40349E+03 -3.46067E+03
  5.71380E+03 -2.01361E+03  6.40666E+03  1.86140E+03  4.89101E+03  6.37500E+03  1.56980E+02  8.28181E+03
 -7.40683E+03  6.44531E+03 -1.22447E+04  3.58501E+02 -1.01815E+04 -7.22528E+03 -2.77998E+03 -1.30993E+04
  7.54158E+03 -1.13525E+04  1.26215E+04 -3.62161E+03  1.28469E+04  3.15103E+03  7.06324E+03  9.26524E+03
  1.74183E+03  1.16645E+04 -4.24415E+03  8.56151E+03 -6.80533E+03  5.23898E+03 -5.78998E+03  1.02833E+03
 -3.72829E+03 -5.99622E+02 -2.94210E+03  2.22429E+03 -6.50487E+03  2.04132E+03 -8.98255E+03 -1.62096E+03
 -7.73912E+03 -5.74527E+03 -2.60758E+03 -1.05580E+04  4.75798E+03 -1.02961E+04  9.36288E+03 -5.54266E+03
  1.13050E+04  1.53491E+03  5.64464E+03  9.41813E+03 -1.17694E+03  1.18759E+04 -7.87485E+03  7.79724E+03
