 $NMID ID='MM_0lb_SNR400_12hz_g40_48.RAW', FMTDAT='(8E13.5)'
 TRAMP=1., VOLUME=1. $END
  3.09607E+05  3.60362E+02  3.36700E+05  2.50866E+05  8.44993E+04  3.38055E+05 -1.32941E+05  2.50878E+05
 -1.90696E+05  8.30805E+04 -1.11812E+05 -3.24883E+04  1.36418E+03 -5.10350E+04  5.38413E+04 -3.08640E+02
  3.50032E+04  5.29174E+04 -1.73668E+04  7.56844E+04 -6.09695E+04  6.39434E+04 -8.41068E+04  3.17075E+04
 -8.14921E+04 -1.16618E+04 -5.73552E+04 -5.17304E+04 -1.42458E+04 -7.05232E+04  2.75729E+04 -4.59703E+04
  3.98804E+04  3.60927E+03  1.63008E+04  4.79765E+04 -3.41650E+04  4.75186E+04 -6.67520E+04 -5.69252E+02
 -5.36410E+04 -5.77111E+04 -7.34129E+03 -7.71147E+04  3.40525E+04 -5.49420E+04  4.78253E+04 -1.77504E+04
  4.36630E+04  1.13888E+04  3.16357E+04  2.60257E+04  1.57720E+04  2.91458E+04 -4.85534E+03  2.71305E+04
 -2.25247E+04  1.26344E+04 -1.90010E+04 -5.30438E+03  5.78855E+03 -7.69055E+03  2.27416E+04  1.30734E+04
  7.09361E+03  3.59032E+04 -3.23494E+04  3.61622E+04 -6.36557E+04  2.54415E+03 -5.70963E+04 -4.34687E+04
 -1.28594E+04 -6.35807E+04  3.99111E+04 -4.65897E+04  5.88461E+04 -1.80596E+03  3.45679E+04  3.31311E+04
 -5.87387E+03  3.57359E+04 -3.13970E+04  1.68001E+04 -3.00326E+04 -4.33632E+03 -1.64682E+04 -1.13564E+04
 -8.95190E+03 -1.36362E+04 -4.23268E+02 -1.84726E+04  7.38404E+03 -2.34072E+04  1.51772E+04 -1.33627E+04
  1.18675E+04  5.99178E+03 -9.18044E+03  1.33164E+04 -2.23124E+04 -4.94262E+03 -8.86222E+03 -3.41645E+04
  2.37059E+04 -4.39221E+04  4.88144E+04 -1.99050E+04  4.50315E+04  2.02982E+04  1.59223E+04  4.43882E+04
 -1.53561E+04  3.40603E+04 -2.55249E+04  1.92655E+03 -1.06184E+04 -2.78878E+04  2.13598E+04 -3.48231E+04
  4.12321E+04 -9.32858E+03  3.66940E+04  2.41320E+04  1.91182E+04  4.72894E+04 -7.69574E+03  5.08221E+04
 -3.22113E+04  3.45451E+04 -4.34912E+04  9.30048E+03 -4.32167E+04 -1.69544E+04 -2.37934E+04 -3.87284E+04
  7.77319E+03 -3.77009E+04  3.21628E+04 -1.50493E+04  2.93986E+04  1.14837E+04  4.73362E+03  1.95535E+04
 -1.37288E+04  8.07756E+03 -1.08320E+04 -8.18531E+03  6.21870E+03 -1.09999E+04  1.82319E+04  6.27152E+03
  1.38056E+04  2.19794E+04 -5.69460E+03  2.55328E+04 -2.26005E+04  1.22240E+04 -2.87476E+04 -4.00392E+03
 -2.10428E+04 -1.75117E+04 -9.10590E+03 -2.12608E+04  4.28137E+03 -2.04683E+04  1.70117E+04 -1.96868E+04
  2.70174E+04 -1.31008E+04  3.33389E+04  3.33552E+03  2.44345E+04  2.07552E+04  4.79028E+03  3.66932E+04
 -1.87616E+04  3.12759E+04 -2.86451E+04  1.06084E+04 -2.09871E+04 -9.87069E+03 -4.40670E+03 -1.29628E+04
  1.53484E+03 -2.00653E+03 -5.52320E+03  7.73170E+03 -1.68959E+04  5.15324E+03 -1.80212E+04 -7.56418E+03
 -1.00562E+04 -2.00989E+04  4.84176E+03 -2.37891E+04  1.60583E+04 -1.68925E+04  1.84841E+04 -1.61662E+03
  1.20551E+04  1.42875E+04 -1.37605E+03  2.01712E+04 -1.35827E+04  1.17752E+04 -1.97174E+04 -4.08457E+03
 -1.43313E+04 -1.76492E+04 -1.76148E+03 -2.38646E+04  1.16776E+04 -1.93164E+04  1.99587E+04 -1.00475E+04
  1.82094E+04  4.02497E+02  1.34646E+04  5.16466E+03  6.89267E+03  1.01836E+03  1.00674E+04 -1.96220E+03
  1.80976E+04  2.52763E+03  2.14418E+04  1.55243E+04  1.31133E+04  3.18947E+04 -3.40049E+03  3.63475E+04
 -2.14117E+04  2.88638E+04 -3.31178E+04  1.50933E+04 -3.66874E+04 -2.73150E+03 -2.93547E+04 -2.08597E+04
 -1.22308E+04 -2.94370E+04  1.02491E+04 -2.58368E+04  2.31355E+04 -1.34472E+04  2.04466E+04  6.43134E+03
  7.83906E+03  1.49644E+04 -9.60213E+03  1.31335E+04 -1.71181E+04  2.96440E+03 -1.25160E+04 -1.05145E+04
  2.24664E+02 -1.59665E+04  8.81239E+03 -1.20878E+04  1.06472E+04 -1.52758E+03  2.67900E+03  7.34190E+03
 -6.94732E+03  3.21827E+03 -6.83989E+03 -6.53755E+03 -6.19358E+02 -1.48624E+04  1.02445E+04 -1.49047E+04
  1.85908E+04 -8.48250E+03  1.96306E+04  2.89311E+03  1.69953E+04  1.39412E+04  8.60811E+03  2.27217E+04
 -3.47502E+03  2.45083E+04 -1.57283E+04  1.49048E+04 -1.85628E+04  4.31450E+03 -1.21457E+04 -3.88529E+03
 -5.87515E+03 -5.56367E+03 -9.29904E+02  1.36002E+03 -2.34365E+03  2.56370E+03 -5.66862E+03  4.71721E+03
 -1.20768E+04 -6.99509E+02 -1.23902E+04 -1.02743E+04 -4.67496E+03 -1.58329E+04  4.69678E+03 -1.24575E+04
  9.92376E+03 -5.82982E+03  7.17619E+03  2.77158E+03  5.00963E+02  4.47509E+03 -5.71409E+03 -2.85128E+01
 -5.38315E+03 -7.80960E+03 -5.52887E+02 -1.12409E+04  6.30626E+03 -1.26323E+04  1.57911E+04 -6.55072E+03
  1.74978E+04  1.45145E+03  1.33884E+04  1.07098E+04  2.44885E+03  1.40586E+04 -7.68462E+03  1.11097E+04
 -1.00216E+04  4.18196E+03 -5.40509E+03 -2.47484E+03  1.58473E+03 -3.03533E+03  6.11551E+03 -1.55531E+03
  5.88760E+03  5.26473E+03  1.53271E+03  9.04443E+03 -6.99018E+03  1.02071E+04 -1.21622E+04  2.36649E+03
 -8.07134E+03 -6.37728E+03 -4.35878E+00 -1.05549E+04  6.17491E+03 -5.00987E+03  6.08829E+03  2.14396E+03
  1.39616E+03  6.90335E+03 -5.64860E+03  8.88789E+03 -9.78786E+03  4.07378E+03 -1.02052E+04 -3.53689E+03
 -6.16317E+03 -1.09618E+04  2.79232E+03 -1.27744E+04  1.03423E+04 -8.06657E+03  1.18957E+04  2.71363E+03
  7.97672E+03  8.93042E+03 -1.38455E+03  1.19589E+04 -8.58780E+03  6.57061E+03 -9.47955E+03 -1.22667E+03
 -8.11552E+03 -7.86425E+03 -1.74120E+03 -8.47176E+03  4.81973E+03 -6.91639E+03  6.00900E+03 -3.06245E+03
  3.53360E+03  1.60670E+03 -1.06112E+03  1.01375E+03  6.45696E+02 -1.98994E+03  1.87497E+03 -4.56069E+03
  7.96554E+03 -3.09151E+03  1.07534E+04  9.69114E+02  1.07896E+04  7.31583E+03  8.01068E+03  1.44060E+04
 -3.03248E+03  1.59942E+04 -1.39560E+04  1.19838E+04 -1.83393E+04  2.22924E+03 -1.51613E+04 -5.06695E+03
 -7.94732E+03 -1.23487E+04 -6.24781E+01 -1.00592E+04  3.48846E+03 -5.50866E+03  3.21329E+03 -3.25242E+03
  2.71811E+03 -2.58000E+03  3.29789E+03 -3.03475E+03  5.11730E+03 -2.24147E+03  6.14980E+03 -7.82666E+02
  7.77761E+03  1.67382E+03  4.80264E+03  6.39904E+03 -2.14825E+03  7.23853E+03 -8.65294E+03  5.49060E+03
 -1.03229E+04 -1.65940E+03 -5.00596E+03 -7.52323E+03 -3.49633E+02 -1.08666E+04  6.30707E+03 -1.08857E+04
  1.14707E+04 -5.28578E+03  1.40252E+04  1.63546E+03  9.72312E+03  8.67295E+03  1.28207E+03  1.19916E+04
 -4.85312E+03  1.06062E+04 -6.51700E+03  3.33796E+03 -4.63716E+03 -1.77685E+03 -1.21692E+03 -1.52405E+03
 -8.98435E+02  2.72391E+02 -2.32519E+03  2.31294E+03 -4.26443E+03  1.46506E+03 -7.26619E+03 -7.42897E+02
 -4.28772E+03 -7.09446E+03  3.68538E+01 -9.73781E+03  6.17834E+03 -9.03613E+03  9.65730E+03 -3.16471E+03
  9.71036E+03  4.77333E+03  4.57908E+03  8.03355E+03 -1.50495E+03  9.81503E+03 -6.32000E+03  6.13069E+03
 -8.75497E+03 -1.46796E+02 -7.39984E+03 -5.67431E+03 -6.44097E+02 -8.28885E+03  3.98447E+03 -5.93081E+03
  6.52766E+03 -2.90988E+03  4.09641E+03  1.00334E+03  1.71929E+03  2.74383E+03  1.35527E+03  1.43282E+03
  2.25804E+03  1.00770E+03  3.15421E+03  1.82169E+03  2.63899E+03  3.96928E+03  2.92919E+03  4.57169E+03
 -2.48605E+03  7.37747E+03 -6.27895E+03  8.23800E+03 -9.29477E+03  2.92388E+03 -9.60661E+03 -3.19545E+03
 -4.12999E+03 -1.04039E+04  1.20209E+03 -1.08040E+04  4.56046E+03 -7.12282E+03  7.59157E+03 -1.99379E+03
  5.82032E+03  4.17295E+03  9.45628E+02  5.37932E+03 -2.85299E+03  3.78027E+03 -3.74559E+03 -8.44918E+02
 -1.87217E+03 -3.82687E+03  2.85830E+03 -3.80611E+03  3.79136E+03 -2.25191E+03  3.36451E+03  8.12426E+02
  1.90545E+03  1.52865E+03  9.78129E+02  1.65883E+03 -4.22314E+02  7.51547E+02  1.41007E+03 -4.76491E+02
  1.08218E+03 -5.88602E+02  3.47607E+03  1.73417E+03  2.00016E+03  4.79661E+03 -5.00154E+02  6.37426E+03
 -3.76300E+03  4.30509E+03 -5.65366E+03  1.56231E+03 -4.67221E+03 -1.80311E+03 -1.76410E+03 -3.52434E+03
 -9.20054E+00 -3.24551E+03  3.19439E+03 -1.80787E+03  1.93108E+03  1.64286E+03 -7.26563E+02  3.77779E+03
 -3.62056E+03  2.49464E+03 -3.48117E+03 -2.06784E+03 -3.11478E+03 -5.13512E+03  5.13862E+02 -4.98222E+03
  2.72994E+03 -3.27752E+03  3.88935E+03 -3.09690E+02  3.40117E+03  9.92828E+02  7.56367E+02  2.50582E+03
 -1.80158E+03  1.34595E+03 -2.33842E+03 -1.66043E+03 -1.23781E+01 -3.91767E+03  4.47683E+03 -2.82205E+03
  5.44594E+03  4.16377E+02  6.02310E+03  3.78803E+03  1.84603E+03  6.30031E+03 -2.25517E+03  5.64861E+03
 -5.17999E+03  2.51434E+03 -5.00075E+03 -7.30535E+02 -2.44112E+03 -3.79483E+03  1.44774E+03 -3.36316E+03
  3.59298E+03 -2.27376E+03  3.31485E+03  2.03758E+03  5.60860E+02  3.71386E+03 -5.16017E+02  2.54076E+03
 -1.04984E+03  2.32010E+03 -1.87081E+03  9.19098E+02 -5.55195E+02  1.62898E+03 -1.05114E+03  1.48540E+03
 -1.74591E+03  2.88442E+03 -4.28446E+03  1.87714E+03 -5.98171E+03 -1.90185E+02 -6.56445E+03 -3.80460E+03
 -3.84831E+03 -6.93463E+03  1.00721E+03 -8.50656E+03  5.06708E+03 -6.85166E+03  8.79205E+03 -1.97393E+03
  7.34940E+03  1.37948E+03  4.33280E+03  5.60234E+03 -7.60101E+01  5.23741E+03 -2.21175E+03  4.14184E+03
 -3.61258E+03  1.49888E+03 -1.75516E+03 -7.77913E+02 -3.18075E+02 -1.86526E+02 -1.86208E+02  3.10788E+02
 -1.44858E+03  3.09502E+02 -1.47295E+03 -2.00344E+02  3.52451E+01 -1.60327E+03 -6.30813E+02 -1.85703E+03
  3.17140E+03 -2.34359E+03  3.24659E+03  5.35041E+00  3.45585E+03  3.14451E+03  4.56994E+02  5.24162E+03
 -3.71277E+03  7.21915E+03 -5.62640E+03  3.29237E+03 -7.35106E+03 -3.92292E+02 -4.88532E+03 -4.55461E+03
 -2.34386E+03 -4.79583E+03  1.45239E+03 -5.03225E+03  3.36073E+03 -3.16576E+03  3.75754E+03  4.81488E+02
  1.94661E+03  1.36560E+03  1.56675E+02  2.12179E+03 -1.00372E+03 -4.14266E+02 -2.39813E+01 -1.24963E+03
  2.15928E+03 -3.01367E+02  1.36178E+03  1.11224E+03  7.39856E+02  2.18362E+03 -4.12329E+02  3.22482E+03
 -3.02417E+03  2.85402E+03 -3.43990E+03 -1.97012E+02 -3.01342E+03 -2.88989E+03 -2.42740E+02 -4.45999E+03
  3.04977E+03 -3.84906E+03  4.38765E+03 -8.15429E+02  4.40700E+03  1.83443E+02  2.73311E+03  3.37424E+03
  9.08077E+02  3.42448E+03 -1.53258E+03  3.69527E+03 -2.86346E+03  2.16329E+03 -2.24477E+03  6.05196E+02
 -4.29764E+02 -6.45163E+02 -1.16883E+03  1.11096E+03 -2.18106E+03  6.46822E+02 -3.22573E+03 -1.04621E+03
 -2.72180E+03 -2.03354E+03 -1.34992E+03 -3.89918E+03  1.96678E+03 -4.07771E+03  3.16444E+03 -1.91769E+03
  4.25198E+03  1.46031E+01  2.03173E+03  2.37185E+03 -2.17117E+02  3.58964E+03 -2.61599E+03  2.01838E+03
