 $NMID ID='MM_0lb_SNR400_20hz_g55_23.RAW', FMTDAT='(8E13.5)'
 TRAMP=1., VOLUME=1. $END
  3.09423E+05  2.56877E+02  3.37615E+05  2.50491E+05  8.46576E+04  3.37393E+05 -1.32664E+05  2.50349E+05
 -1.89533E+05  8.19783E+04 -1.11098E+05 -3.21304E+04  8.22438E+02 -5.03435E+04  5.31297E+04  1.02634E+02
  3.50387E+04  5.31878E+04 -1.69168E+04  7.51124E+04 -5.99561E+04  6.31005E+04 -8.27008E+04  3.16578E+04
 -7.95389E+04 -1.09725E+04 -5.60958E+04 -5.08081E+04 -1.55329E+04 -6.83679E+04  2.67145E+04 -4.48364E+04
  3.96526E+04  4.32219E+03  1.61540E+04  4.72240E+04 -3.43095E+04  4.59906E+04 -6.52564E+04 -6.67856E+02
 -5.18941E+04 -5.58686E+04 -6.51824E+03 -7.54606E+04  3.30308E+04 -5.35093E+04  4.65790E+04 -1.58156E+04
  4.20922E+04  1.10176E+04  3.12544E+04  2.42906E+04  1.54966E+04  2.82562E+04 -5.08002E+03  2.67324E+04
 -2.18827E+04  1.22805E+04 -1.91273E+04 -4.35087E+03  4.63097E+03 -7.60253E+03  2.16444E+04  1.09457E+04
  7.73467E+03  3.34064E+04 -3.06452E+04  3.41481E+04 -6.14115E+04  1.66173E+03 -5.54738E+04 -4.12809E+04
 -1.25399E+04 -6.07846E+04  3.76194E+04 -4.34840E+04  5.57611E+04 -1.76697E+03  3.23595E+04  3.10023E+04
 -6.31529E+03  3.33954E+04 -2.88553E+04  1.33429E+04 -2.77001E+04 -5.01123E+03 -1.40427E+04 -1.02020E+04
 -7.66577E+03 -1.16168E+04 -8.65923E+02 -1.62480E+04  6.72199E+03 -2.28391E+04  1.51329E+04 -1.35298E+04
  1.21110E+04  4.69005E+03 -6.75660E+03  1.29753E+04 -1.93411E+04 -2.44428E+03 -7.91952E+03 -3.00766E+04
  2.08372E+04 -4.07976E+04  4.51448E+04 -1.85902E+04  4.20448E+04  1.77430E+04  1.38194E+04  4.20735E+04
 -1.52873E+04  3.14662E+04 -2.34480E+04  1.40527E+03 -8.29071E+03 -2.65976E+04  2.03008E+04 -3.13640E+04
  3.78596E+04 -7.13366E+03  3.17397E+04  2.28571E+04  1.52278E+04  4.24050E+04 -7.96364E+03  4.49026E+04
 -2.90070E+04  2.98548E+04 -3.78036E+04  8.29833E+03 -3.84543E+04 -1.47218E+04 -2.14562E+04 -3.47662E+04
  6.59698E+03 -3.41629E+04  2.93042E+04 -1.29178E+04  2.66067E+04  1.09859E+04  3.15877E+03  1.77610E+04
 -1.34309E+04  7.05698E+03 -9.91164E+03 -7.24525E+03  5.95007E+03 -1.00554E+04  1.77647E+04  6.29003E+03
  1.21643E+04  2.14444E+04 -6.78516E+03  2.31341E+04 -2.16772E+04  9.18010E+03 -2.47071E+04 -6.57274E+03
 -1.69000E+04 -1.61473E+04 -5.65541E+03 -1.74315E+04  4.27864E+03 -1.46774E+04  1.24611E+04 -1.47362E+04
  2.15735E+04 -1.14904E+04  2.79492E+04  1.01216E+03  2.07285E+04  1.67229E+04  3.79041E+03  3.28154E+04
 -1.61073E+04  2.72100E+04 -2.59294E+04  9.20720E+03 -1.92538E+04 -1.08823E+04 -3.72973E+03 -1.37239E+04
  2.56226E+03 -4.56609E+03 -2.85983E+03  5.23965E+03 -1.30139E+04  5.46073E+03 -1.31078E+04 -4.81324E+03
 -8.29783E+03 -1.45930E+04  4.63090E+03 -1.90277E+04  1.28803E+04 -1.37540E+04  1.47327E+04 -1.72236E+03
  8.96038E+03  1.07905E+04 -1.08739E+03  1.54333E+04 -1.04186E+04  9.06143E+03 -1.48079E+04 -3.80594E+03
 -1.15483E+04 -1.38447E+04 -1.58327E+03 -1.84609E+04  8.73659E+03 -1.53447E+04  1.62628E+04 -7.00390E+03
  1.41980E+04  8.15886E+02  1.04269E+04  3.67276E+03  4.77031E+03  1.54436E+02  7.43555E+03 -1.13470E+03
  1.33859E+04  2.57218E+03  1.43463E+04  1.26435E+04  8.61491E+03  2.40987E+04 -2.81898E+03  2.63884E+04
 -1.54485E+04  1.99774E+04 -2.37409E+04  9.45965E+03 -2.41610E+04 -1.64294E+03 -2.10006E+04 -1.34793E+04
 -9.81599E+03 -1.98377E+04  6.55558E+03 -1.84747E+04  1.59177E+04 -1.08745E+04  1.52670E+04  3.63157E+03
  6.55507E+03  1.07620E+04 -7.02623E+03  1.01765E+04 -1.29700E+04  2.48571E+03 -1.04535E+04 -7.61704E+03
  6.28727E+01 -1.16465E+04  5.83735E+03 -9.18239E+03  8.22454E+03 -1.12396E+03  1.14621E+03  5.24534E+03
 -5.95942E+03  9.73206E+02 -3.98230E+03 -5.00621E+03  7.00539E+02 -9.50732E+03  7.54580E+03 -9.63458E+03
  1.16471E+04 -4.45476E+03  1.11232E+04  3.06436E+03  1.00890E+04  9.14087E+03  4.91911E+03  1.27401E+04
 -1.77460E+03  1.53625E+04 -8.44455E+03  9.43962E+03 -1.07783E+04  2.77482E+03 -7.81413E+03 -2.11054E+03
 -4.22228E+03 -3.04604E+03 -7.41677E+02  1.79571E+03 -2.18458E+03  2.02488E+03 -3.27691E+03  3.61551E+03
 -8.29778E+03  9.30956E+01 -8.23331E+03 -6.80707E+03 -3.76254E+03 -1.04475E+04  3.75466E+03 -7.98509E+03
  6.98763E+03 -3.10640E+03  5.64601E+03  2.07117E+03  5.16726E+02  2.86993E+03 -3.82328E+03 -8.39306E+00
 -2.88993E+03 -5.10711E+03 -3.98433E+02 -6.57520E+03  2.74519E+03 -7.62839E+03  9.16580E+03 -3.84610E+03
  1.08726E+04  4.80903E+02  7.64916E+03  5.54239E+03  1.22130E+03  8.24565E+03 -4.48449E+03  7.40825E+03
 -7.03854E+03  2.97110E+03 -3.58168E+03 -1.07071E+03  1.07506E+03 -1.82822E+03  4.54096E+03 -1.14989E+03
  3.99690E+03  3.10460E+03  9.18221E+02  5.75636E+03 -4.20797E+03  6.48637E+03 -6.72516E+03  1.66981E+03
 -4.66404E+03 -3.31019E+03  2.78975E+02 -6.07358E+03  3.36799E+03 -2.36176E+03  3.61355E+03  1.00147E+03
  3.16386E+02  2.63489E+03 -3.72178E+03  3.82924E+03 -4.40823E+03  2.16757E+03 -3.79028E+03 -1.09068E+03
 -3.40486E+03 -4.93440E+03  7.16085E+02 -6.35219E+03  5.38282E+03 -3.85240E+03  5.21267E+03  1.02297E+03
  4.19293E+03  4.71261E+03  7.35766E+02  6.63290E+03 -4.85309E+03  4.03159E+03 -4.43737E+03 -4.04356E+02
 -5.06045E+03 -4.51810E+03 -1.45854E+03 -4.36061E+03  2.11147E+03 -3.86009E+03  2.67604E+03 -2.82894E+03
  2.96456E+03  3.21613E+02 -2.19102E+02  1.39459E+03  7.72257E+02  5.05200E+02 -6.93360E+02 -1.37004E+03
  3.40947E+03 -1.17397E+02  4.83203E+03  8.34631E+02  4.61023E+03  2.47456E+03  4.63252E+03  5.97324E+03
 -5.82120E+02  7.21689E+03 -6.65528E+03  5.77997E+03 -8.27758E+03  1.35741E+03 -7.12554E+03 -2.21523E+03
 -3.91762E+03 -6.01727E+03 -1.93012E+02 -4.63011E+03  1.76399E+03 -1.93295E+03  1.55408E+03 -2.35665E+03
  1.27581E+03 -9.63694E+02  2.51301E+03 -2.29211E+03  3.37438E+03 -1.34527E+03  3.31509E+03  3.46489E+02
  4.20125E+03  1.31545E+03  3.00915E+02  2.95054E+03 -1.46365E+03  2.11018E+03 -4.03569E+03  1.70448E+03
 -4.18853E+03 -9.23083E+02 -8.99199E+02 -2.96808E+03  5.80269E+02 -4.15450E+03  2.67388E+03 -4.07361E+03
  3.80718E+03 -2.99017E+03  6.28478E+03 -4.58630E+01  3.73433E+03  3.59285E+03  1.25878E+03  4.66403E+03
 -1.96503E+03  5.28738E+03 -3.03288E+03  1.41108E+03 -1.32258E+03 -9.31958E+02 -1.59685E+02 -3.59008E+02
 -3.01884E+02  6.08590E+01 -4.68967E+02  1.79170E+03 -2.26772E+03  1.06690E+03 -3.59623E+03 -1.29055E+02
 -1.38053E+03 -3.62172E+03  1.07600E+03 -4.18297E+03  2.33657E+03 -3.26910E+03  2.79854E+03 -6.37115E+02
  3.56040E+03  1.91881E+03  1.71433E+03  2.47039E+03 -8.53983E+02  3.75236E+03 -2.55791E+03  2.35834E+03
 -3.54168E+03  2.36670E+02 -2.62494E+03 -2.32104E+03 -1.28408E+02 -2.32394E+03  1.26301E+03 -1.84954E+03
  2.44707E+03 -1.56118E+03  1.39790E+03  2.33219E+02  2.03703E+02  1.37809E+03  1.32863E+03  3.43598E+02
  1.57872E+03  6.04500E+02  7.67077E+02  1.31903E+03  7.86225E+02  2.17788E+03  1.22376E+03  8.20119E+02
 -1.07931E+03  2.65587E+03 -2.02433E+03  3.25314E+03 -2.24939E+03  1.17875E+03 -3.07070E+03  3.87249E+01
 -1.49883E+03 -3.29086E+03  8.07365E+02 -3.53260E+03  1.42307E+03 -2.51870E+03  2.69187E+03 -1.12312E+03
  2.17671E+03  1.82314E+03 -6.07707E+02  1.70941E+03 -3.46320E+02  8.34146E+02 -4.94616E+02 -6.72860E+01
 -8.06631E+02 -1.20363E+03  1.35606E+03 -1.20273E+03  7.02748E+02 -1.20196E+03  1.21187E+03  3.03450E+02
  9.65298E+02  2.89351E+02  5.20467E+02 -4.67532E+02 -4.08486E+02  1.02332E+03  1.48878E+03 -3.23281E+02
 -1.47160E+02  4.44377E+02  1.67901E+03  8.35619E+02 -6.34302E+02  1.42368E+03 -1.05586E+02  2.33836E+03
 -1.01295E+03  5.86767E+02 -1.70265E+03 -7.94088E+01 -1.45899E+03 -7.45066E+02  3.49702E+02 -4.85259E+02
  3.29537E+02 -6.21622E+02  3.63422E+02 -5.57485E+02  9.00847E+01  1.30215E+03 -8.74691E+02  7.36092E+02
 -4.25818E+02  2.36576E+02 -6.25217E+02 -8.28464E+02 -3.17581E+02 -1.95070E+03  2.44984E+02 -1.08629E+03
  1.52689E+01 -6.39210E+02  7.33942E+01  5.99340E+02  1.13129E+03 -1.34926E+02  8.36460E+00  1.05717E+03
  1.33542E+02  1.24483E+02 -1.11191E+03 -3.39520E+02  4.07555E+02 -7.25034E+02  1.17588E+03 -8.64142E+02
  2.42386E+02 -1.53191E+02  2.54144E+03  7.47640E+02  1.34305E+03  7.14852E+02 -2.48179E+01  6.87055E+02
 -3.86051E+02  2.97824E+02 -8.84036E+02 -2.84098E+02 -5.81204E+02 -9.85555E+02 -1.78377E+02  1.99163E+02
  1.18725E+03 -3.68326E+02  9.37348E+02  5.90560E+02  2.09920E+01  1.13415E+03  4.07101E+02  1.01116E+03
 -6.87978E+01  1.21175E+03 -5.28309E+02  3.63733E+02 -2.33529E+02  3.40057E+02 -1.03583E+03  6.10004E+02
 -5.42090E+02  7.76082E+02 -1.59969E+03  2.22097E+02 -1.77754E+03 -2.79857E+02 -2.17453E+03 -1.99863E+02
 -9.14775E+02 -1.53736E+03  7.71640E+02 -2.05711E+03  5.78231E+02 -1.83633E+03  1.87269E+03 -9.78129E+02
  1.42262E+03 -3.87362E+02  1.03263E+03  1.36705E+03 -7.39557E+02  1.12703E+03  8.47913E+01  5.82340E+02
 -1.00098E+03  4.26768E+02  1.47386E+02 -8.08894E+01 -1.81861E+02  7.99947E+02 -4.08678E+02 -2.33684E+02
 -7.75724E+02 -3.31787E+02 -9.03662E+02  3.49164E+01  4.92416E+02 -8.06597E+02 -8.62532E+02 -6.45209E+02
  9.58135E+02 -1.66354E+02  1.14066E+02  7.42540E+01  8.23354E+02  9.99941E+02 -6.01813E+02  1.21418E+03
 -5.39770E+02  1.42292E+03 -1.08823E+03  8.07162E+02 -8.74742E+02 -2.20091E+01 -6.94963E+02 -7.69958E+02
 -3.65195E+02 -7.87102E+02  5.38126E+01 -1.07550E+03 -4.08821E+01 -4.60098E+02  7.68323E+02 -1.39738E+02
  4.81068E+02  1.12035E+02  6.23314E+02  3.62988E+02  1.08321E+02  3.61958E+02 -4.80723E+02  3.29501E+02
  7.95918E+02  2.17857E+02 -1.78356E+02  6.27196E+02  1.20357E+02  4.92447E+02  2.94698E+02  2.58713E+02
 -5.10186E+02  5.06724E+02 -5.20579E+02 -1.61478E+02 -5.19036E+02 -7.53612E+01 -1.86818E+02 -4.87540E+02
  5.23981E+02 -4.00552E+02  6.65778E+01  3.36974E+02  7.30277E+02 -7.91976E+02  5.22937E+02  5.00732E+02
  7.57895E+02  4.92821E+02 -2.04981E+02  2.37749E+02  1.12723E+02  1.46174E+02 -5.79174E+02 -3.93931E+01
  1.25978E+02  2.07585E+02 -3.28413E+02  1.03426E+02 -5.93267E+02  1.50783E+02 -3.48008E+02 -1.66502E+02
 -1.06502E+03  6.68280E+02 -1.47708E+02 -8.37885E+02  5.26830E+02 -1.19095E+03  5.10482E+02 -2.59979E+02
  1.01152E+02  2.02479E+02 -5.33376E+02  6.15972E+02  1.41181E+02  6.12715E+02 -1.36884E+02  3.74129E+02
