 $NMID ID='MM_0lb_SNR400_11hz_g60_33.RAW', FMTDAT='(8E13.5)'
 TRAMP=1., VOLUME=1. $END
  3.09577E+05  7.30496E+02  3.37782E+05  2.51155E+05  8.47478E+04  3.38760E+05 -1.32663E+05  2.51929E+05
 -1.90128E+05  8.33779E+04 -1.12589E+05 -3.33886E+04  1.58002E+02 -5.06933E+04  5.28984E+04 -3.97301E+02
  3.55642E+04  5.30825E+04 -1.64282E+04  7.65355E+04 -6.16408E+04  6.46355E+04 -8.43881E+04  3.24862E+04
 -8.18511E+04 -1.22276E+04 -5.83079E+04 -5.15649E+04 -1.49202E+04 -7.11882E+04  2.76608E+04 -4.64237E+04
  4.08560E+04  3.45296E+03  1.72971E+04  4.83763E+04 -3.44012E+04  4.77290E+04 -6.86182E+04  5.80533E+02
 -5.45954E+04 -5.73646E+04 -7.22196E+03 -7.89476E+04  3.41994E+04 -5.68076E+04  4.97365E+04 -1.81479E+04
  4.49177E+04  1.20958E+04  3.25744E+04  2.68336E+04  1.55763E+04  3.09227E+04 -5.80649E+03  2.77509E+04
 -2.16263E+04  1.21411E+04 -1.82380E+04 -5.70376E+03  7.17760E+03 -6.75139E+03  2.32508E+04  1.38273E+04
  7.02303E+03  3.72636E+04 -3.35653E+04  3.69682E+04 -6.54775E+04  2.73989E+03 -5.80012E+04 -4.55565E+04
 -1.26787E+04 -6.59852E+04  4.16306E+04 -4.62373E+04  6.02557E+04 -2.71338E+03  3.63927E+04  3.41703E+04
 -5.16668E+03  3.93853E+04 -3.22105E+04  1.83927E+04 -3.31764E+04 -3.77605E+03 -1.91365E+04 -1.17616E+04
 -9.61219E+03 -1.53482E+04 -7.71200E+02 -1.89544E+04  8.21467E+03 -2.34669E+04  1.60603E+04 -1.29729E+04
  1.14082E+04  5.79453E+03 -1.09520E+04  1.30613E+04 -2.29107E+04 -6.99596E+03 -8.73557E+03 -3.69825E+04
  2.55423E+04 -4.67757E+04  5.20152E+04 -2.08843E+04  4.89535E+04  2.06789E+04  1.69305E+04  4.70888E+04
 -1.62460E+04  3.54402E+04 -2.76153E+04  3.27028E+03 -1.13945E+04 -2.95684E+04  2.15564E+04 -3.64488E+04
  4.44776E+04 -1.06186E+04  3.99447E+04  2.51581E+04  2.12534E+04  5.02400E+04 -8.23228E+03  5.55839E+04
 -3.40854E+04  3.84153E+04 -4.67554E+04  1.14315E+04 -4.64491E+04 -1.77771E+04 -2.56801E+04 -4.15262E+04
  7.95260E+03 -4.12348E+04  3.33227E+04 -1.65426E+04  3.14388E+04  1.13956E+04  4.87985E+03  2.12315E+04
 -1.41354E+04  9.74320E+03 -1.08680E+04 -7.11198E+03  6.53306E+03 -1.18466E+04  1.86831E+04  5.59259E+03
  1.48197E+04  2.24679E+04 -5.41152E+03  2.61533E+04 -2.30325E+04  1.36431E+04 -3.03405E+04 -3.33268E+03
 -2.52095E+04 -1.80759E+04 -1.08767E+04 -2.41670E+04  4.03532E+03 -2.44271E+04  1.95868E+04 -2.17471E+04
  3.08902E+04 -1.41349E+04  3.74079E+04  4.59353E+03  2.66974E+04  2.37503E+04  4.43485E+03  4.09448E+04
 -1.92059E+04  3.32698E+04 -2.99284E+04  1.15732E+04 -2.20345E+04 -1.03415E+04 -4.20972E+03 -1.28333E+04
  1.03039E+03 -1.50153E+03 -7.42919E+03  8.77288E+03 -1.96480E+04  4.96076E+03 -2.01338E+04 -8.35885E+03
 -1.10449E+04 -2.29746E+04  6.03568E+03 -2.69106E+04  1.79533E+04 -1.91698E+04  2.18781E+04 -1.07610E+03
  1.32602E+04  1.55764E+04 -1.54324E+03  2.21971E+04 -1.58423E+04  1.31842E+04 -2.27844E+04 -5.35092E+03
 -1.70540E+04 -2.03641E+04 -2.65626E+03 -2.75499E+04  1.24935E+04 -2.24213E+04  2.24221E+04 -1.15316E+04
  2.17612E+04 -3.32704E+02  1.57738E+04  5.06002E+03  8.90140E+03  3.75774E+02  1.17033E+04 -1.61024E+03
  2.22279E+04  2.28159E+03  2.43817E+04  1.67200E+04  1.64043E+04  3.59582E+04 -1.97695E+03  4.22779E+04
 -2.45807E+04  3.48550E+04 -4.01707E+04  1.82930E+04 -4.28657E+04 -3.37599E+03 -3.47042E+04 -2.39855E+04
 -1.40388E+04 -3.55652E+04  1.27446E+04 -2.99979E+04  2.65069E+04 -1.49678E+04  2.28989E+04  6.94221E+03
  8.17342E+03  1.72859E+04 -1.09907E+04  1.53416E+04 -1.89465E+04  2.40097E+03 -1.42766E+04 -1.27734E+04
 -5.50112E+02 -1.94331E+04  9.98732E+03 -1.35836E+04  1.27560E+04 -1.11040E+03  3.11308E+03  9.35130E+03
 -8.09031E+03  4.06864E+03 -8.21416E+03 -6.84973E+03 -2.20933E+03 -1.71668E+04  1.09931E+04 -1.87565E+04
  2.21417E+04 -1.05070E+04  2.43241E+04  3.24896E+03  2.14596E+04  1.75389E+04  9.62005E+03  2.66811E+04
 -5.10644E+03  2.93144E+04 -1.91396E+04  1.80913E+04 -1.98935E+04  3.93679E+03 -1.41265E+04 -5.71010E+03
 -6.44209E+03 -6.96388E+03 -8.87383E+02  3.79404E+02 -3.58010E+03  3.62870E+03 -7.23351E+03  5.09900E+03
 -1.30747E+04 -1.15210E+03 -1.40164E+04 -1.07757E+04 -6.22208E+03 -1.86300E+04  5.41708E+03 -1.50673E+04
  1.26968E+04 -5.85872E+03  8.33351E+03  3.30171E+03 -3.14217E+02  5.67902E+03 -7.09303E+03 -6.66391E+02
 -7.26919E+03 -9.70964E+03 -1.70438E+03 -1.38187E+04  8.02872E+03 -1.54650E+04  1.87086E+04 -8.41410E+03
  2.12686E+04  1.96458E+03  1.63359E+04  1.30865E+04  3.39036E+03  1.73614E+04 -8.64532E+03  1.46529E+04
 -1.21605E+04  3.87461E+03 -5.68134E+03 -2.67602E+03  2.31497E+03 -4.09946E+03  7.57958E+03 -1.13529E+03
  6.62165E+03  6.29277E+03  1.49446E+03  1.22880E+04 -8.34800E+03  1.14709E+04 -1.46076E+04  2.55969E+03
 -9.91452E+03 -6.98627E+03  6.03912E+02 -1.28080E+04  7.85747E+03 -6.79966E+03  8.40653E+03  3.33160E+03
  2.24235E+03  9.24194E+03 -8.06915E+03  1.05540E+04 -1.18864E+04  4.49122E+03 -1.23764E+04 -4.83397E+03
 -7.01381E+03 -1.46411E+04  3.54279E+03 -1.61687E+04  1.40245E+04 -9.84062E+03  1.46083E+04  2.98877E+03
  9.77103E+03  1.24915E+04 -1.26195E+03  1.48792E+04 -1.09530E+04  8.03321E+03 -1.14018E+04 -5.38165E+02
 -1.08851E+04 -9.06965E+03 -1.72875E+03 -1.02522E+04  4.93989E+03 -9.13325E+03  6.57771E+03 -3.75110E+03
  5.00160E+03  1.59171E+03 -2.05205E+03  1.87378E+03 -4.41383E+02 -2.95275E+03  2.17032E+03 -7.16840E+03
  1.01621E+04 -3.92416E+03  1.40650E+04  1.54593E+03  1.41090E+04  9.28728E+03  8.84124E+03  1.87256E+04
 -3.65870E+03  2.08946E+04 -1.78485E+04  1.61903E+04 -2.35994E+04  2.96209E+03 -1.86593E+04 -7.88730E+03
 -9.30475E+03 -1.46863E+04 -9.19895E+02 -1.22725E+04  5.59870E+03 -6.68195E+03  5.12560E+03 -4.81870E+03
  3.86869E+03 -3.14642E+03  3.17261E+03 -3.43475E+03  5.72038E+03 -2.84105E+03  7.34150E+03 -1.23897E+03
  9.89325E+03  1.97345E+03  5.79159E+03  8.49571E+03 -2.84264E+03  9.69618E+03 -1.00271E+04  7.60402E+03
 -1.28755E+04 -1.24024E+03 -8.05174E+03 -8.75678E+03 -6.46734E+02 -1.33202E+04  7.17656E+03 -1.40993E+04
  1.39374E+04 -8.00589E+03  1.72968E+04  2.10660E+03  1.22157E+04  1.22096E+04  1.97133E+03  1.57414E+04
 -6.76517E+03  1.30325E+04 -8.45710E+03  4.12368E+03 -5.84953E+03 -1.05381E+03 -1.83189E+03 -1.71907E+03
 -6.43684E+02  2.58263E+02 -1.98665E+03  2.69967E+03 -5.30390E+03  2.23518E+03 -9.14022E+03 -1.12926E+03
 -6.59142E+03 -8.69341E+03 -3.90196E+02 -1.23408E+04  7.74421E+03 -1.14990E+04  1.18823E+04 -3.16637E+03
  1.28151E+04  6.52904E+03  5.93641E+03  1.12920E+04 -2.59210E+03  1.29646E+04 -9.08666E+03  7.21808E+03
 -1.14289E+04  1.01259E+03 -9.50676E+03 -7.00573E+03 -7.36850E+02 -9.89164E+03  6.24744E+03 -7.72757E+03
  8.35747E+03 -2.40524E+03  4.98732E+03  2.47789E+03  1.98794E+03  3.96446E+03  1.52415E+03  2.27702E+03
  2.24599E+03  1.06162E+03  3.68824E+03  2.14414E+03  3.92551E+03  3.91172E+03  3.06277E+03  6.52509E+03
 -1.98834E+03  9.31616E+03 -8.65898E+03  1.03522E+04 -1.25525E+04  2.70723E+03 -1.33819E+04 -4.87336E+03
 -5.89079E+03 -1.18779E+04  1.61751E+03 -1.33505E+04  7.08393E+03 -8.28875E+03  1.05544E+04 -2.31100E+03
  8.39431E+03  5.15955E+03  1.63048E+03  7.13122E+03 -3.50762E+03  5.34923E+03 -4.88842E+03 -6.35990E+02
 -2.58121E+03 -5.63874E+03  2.67684E+03 -5.74518E+03  4.63104E+03 -2.63105E+03  4.99827E+03  1.22660E+03
  2.60408E+03  2.28520E+03  1.47219E+03  2.40016E+03 -9.02178E+02  1.57532E+03  1.74049E+03 -4.62705E+02
  1.98364E+03 -7.21462E+02  5.04180E+03  2.44644E+03  3.84741E+03  6.65271E+03 -9.81346E+02  8.53100E+03
 -5.58992E+03  5.83504E+03 -7.46971E+03  1.55810E+03 -7.11141E+03 -2.58615E+03 -2.71053E+03 -4.79893E+03
  1.37839E+02 -4.12949E+03  3.00246E+03 -1.88620E+03  2.81728E+03  2.59798E+03 -1.03447E+03  4.59338E+03
 -4.83177E+03  1.85575E+03 -5.46667E+03 -2.83821E+03 -3.93781E+03 -6.41694E+03  9.22545E+02 -7.39905E+03
  3.79075E+03 -2.96012E+03  4.92632E+03 -5.96131E+02  4.46464E+03  1.39666E+03  9.33333E+02  3.75207E+03
 -2.43787E+03  1.17539E+03 -3.16796E+03 -2.46764E+03  1.38430E+03 -4.96855E+03  6.58262E+03 -3.78233E+03
  7.50125E+03  1.56886E+02  7.36233E+03  5.42275E+03  2.01279E+03  8.41521E+03 -2.88481E+03  7.20062E+03
 -5.93892E+03  3.20604E+03 -6.13912E+03 -8.84709E+02 -2.94531E+03 -5.71712E+03  8.93460E+02 -4.56601E+03
  5.05709E+03 -2.68336E+03  4.25485E+03  1.66631E+03  1.27779E+03  3.61346E+03 -4.55136E+02  4.56768E+03
 -2.45247E+03  2.05377E+03 -1.87729E+03  3.93531E+02 -9.73689E+02  4.01916E+02 -1.02876E+03  1.97587E+03
 -1.78870E+03  3.09371E+03 -5.55388E+03  3.30337E+03 -7.69047E+03 -4.58909E+02 -8.93217E+03 -4.47909E+03
 -4.24630E+03 -9.20485E+03  1.43783E+03 -1.19791E+04  7.24285E+03 -8.96311E+03  1.10466E+04 -3.82000E+03
  1.06313E+04  2.72434E+03  6.17198E+03  6.38751E+03  1.34111E+02  8.09583E+03 -3.14015E+03  5.76345E+03
 -3.77090E+03  2.38240E+03 -2.31334E+03 -5.81572E+02 -7.87255E+02  1.87840E+02 -4.05031E+02 -2.88975E+02
 -1.64664E+03  1.08755E+03 -1.43050E+03 -5.04690E+02  2.96167E+01 -2.17302E+03 -5.59460E+02 -2.76704E+03
  3.23304E+03 -2.84586E+03  4.67163E+03  3.16081E+02  5.78703E+03  3.61098E+03  1.27256E+03  7.79612E+03
 -4.14975E+03  8.68722E+03 -8.58766E+03  5.27686E+03 -9.10855E+03 -2.61817E+02 -6.16204E+03 -6.20974E+03
 -3.24774E+03 -8.67525E+03  2.58530E+03 -7.84609E+03  4.46804E+03 -3.78812E+03  4.62460E+03  6.79149E+01
  2.81280E+03  2.73441E+03 -6.25324E+02  2.48117E+03 -7.74036E+02  2.00207E+02  1.49862E+02 -2.30136E+03
  2.34323E+03 -1.20089E+03  2.64613E+03  9.88804E+02  2.05376E+03  2.61159E+03  6.14475E+02  3.90165E+03
 -3.75600E+03  3.02840E+03 -4.86405E+03  3.52384E+02 -4.30079E+03 -3.51080E+03 -1.19474E+03 -6.15020E+03
  2.51279E+03 -5.51393E+03  6.23791E+03 -1.08259E+03  5.79771E+03  1.18326E+03  3.91822E+03  5.05430E+03
  9.27155E+02  5.39244E+03 -2.24329E+03  4.66974E+03 -3.01501E+03  2.25233E+03 -2.22775E+03  3.07731E+02
 -1.83125E+03 -2.09434E+02 -1.36904E+03  6.05213E+02 -2.48996E+03  9.87196E+02 -4.13603E+03 -5.37769E+02
 -4.26626E+03 -2.78698E+03 -1.06807E+03 -5.16792E+03  1.99969E+03 -5.25246E+03  4.73814E+03 -1.92610E+03
  4.36933E+03  6.90112E+02  1.99784E+03  3.53199E+03  8.51037E+01  5.65662E+03 -3.00680E+03  3.46149E+03
