 $NMID ID='MM_0lb_SNR400_14hz_g40_2.RAW', FMTDAT='(8E13.5)'
 TRAMP=1., VOLUME=1. $END
  3.09528E+05 -2.16388E+02  3.37442E+05  2.50806E+05  8.47261E+04  3.37901E+05 -1.32355E+05  2.50602E+05
 -1.90167E+05  8.31918E+04 -1.11419E+05 -3.27618E+04  1.21868E+03 -5.14462E+04  5.38579E+04  2.56757E+01
  3.47440E+04  5.29320E+04 -1.69071E+04  7.51177E+04 -6.07856E+04  6.40738E+04 -8.41687E+04  3.17428E+04
 -8.05577E+04 -1.16943E+04 -5.72211E+04 -5.07207E+04 -1.49205E+04 -6.97835E+04  2.72572E+04 -4.58178E+04
  3.95262E+04  3.21762E+03  1.61024E+04  4.72290E+04 -3.41604E+04  4.70933E+04 -6.68586E+04 -2.72087E+02
 -5.29006E+04 -5.71669E+04 -6.77160E+03 -7.62850E+04  3.38232E+04 -5.44560E+04  4.76360E+04 -1.74878E+04
  4.22716E+04  1.11022E+04  3.19261E+04  2.52474E+04  1.54544E+04  2.90670E+04 -5.32255E+03  2.67036E+04
 -2.21007E+04  1.18082E+04 -1.84851E+04 -4.94694E+03  5.29808E+03 -7.54698E+03  2.12052E+04  1.23899E+04
  7.60953E+03  3.47644E+04 -3.19176E+04  3.54780E+04 -6.22771E+04  2.63528E+03 -5.61974E+04 -4.25632E+04
 -1.22795E+04 -6.27637E+04  3.92697E+04 -4.45545E+04  5.75138E+04 -1.91451E+03  3.40373E+04  3.19680E+04
 -6.46952E+03  3.50805E+04 -2.96704E+04  1.51878E+04 -2.98130E+04 -4.09543E+03 -1.68976E+04 -1.03807E+04
 -8.22563E+03 -1.34939E+04 -1.28725E+03 -1.75133E+04  7.07699E+03 -2.26946E+04  1.58211E+04 -1.35303E+04
  1.24382E+04  4.90210E+03 -8.25062E+03  1.30544E+04 -2.11428E+04 -3.83097E+03 -8.21487E+03 -3.31521E+04
  2.23476E+04 -4.29204E+04  4.74834E+04 -1.94667E+04  4.42984E+04  1.96689E+04  1.51384E+04  4.34497E+04
 -1.56931E+04  3.30196E+04 -2.46865E+04  1.62155E+03 -9.34699E+03 -2.73838E+04  2.04632E+04 -3.32845E+04
  3.99207E+04 -8.74772E+03  3.46684E+04  2.30084E+04  1.78525E+04  4.53913E+04 -7.66016E+03  4.88380E+04
 -3.06022E+04  3.26052E+04 -4.06117E+04  9.66938E+03 -4.14076E+04 -1.67150E+04 -2.35993E+04 -3.68854E+04
  7.68788E+03 -3.70311E+04  3.09793E+04 -1.42860E+04  2.87737E+04  1.11656E+04  4.26142E+03  1.91424E+04
 -1.35513E+04  8.65890E+03 -9.97302E+03 -7.39586E+03  6.31891E+03 -1.05761E+04  1.78657E+04  6.10025E+03
  1.29024E+04  2.21234E+04 -5.73904E+03  2.40631E+04 -2.19754E+04  1.04707E+04 -2.71891E+04 -5.07379E+03
 -1.97327E+04 -1.68920E+04 -7.66003E+03 -1.96592E+04  4.03089E+03 -1.92850E+04  1.50869E+04 -1.68809E+04
  2.55074E+04 -1.29663E+04  3.12479E+04  2.56715E+03  2.38544E+04  1.91569E+04  3.73841E+03  3.53592E+04
 -1.77888E+04  2.95426E+04 -2.74906E+04  1.04889E+04 -2.03496E+04 -1.06883E+04 -4.25719E+03 -1.33481E+04
  1.56553E+03 -3.13731E+03 -4.63963E+03  6.24695E+03 -1.50950E+04  4.52088E+03 -1.55309E+04 -6.80626E+03
 -9.74948E+03 -1.86027E+04  5.04563E+03 -2.23175E+04  1.45012E+04 -1.61535E+04  1.71421E+04 -1.49580E+03
  1.07717E+04  1.27043E+04 -9.44695E+02  1.86031E+04 -1.20665E+04  1.04099E+04 -1.83705E+04 -4.00594E+03
 -1.32777E+04 -1.64841E+04 -1.86187E+03 -2.26375E+04  1.01710E+04 -1.84526E+04  1.77445E+04 -8.76193E+03
  1.70169E+04  2.30256E+02  1.21615E+04  4.26845E+03  6.89026E+03  1.67537E+03  9.47932E+03 -1.75901E+03
  1.65556E+04  2.84705E+03  1.90548E+04  1.47376E+04  1.17568E+04  2.94555E+04 -3.54449E+03  3.29020E+04
 -1.94061E+04  2.56012E+04 -3.06296E+04  1.28093E+04 -3.25262E+04 -2.23487E+03 -2.64779E+04 -1.85471E+04
 -1.18940E+04 -2.65838E+04  9.18227E+03 -2.34844E+04  2.03800E+04 -1.24534E+04  1.90293E+04  5.33241E+03
  6.65545E+03  1.37331E+04 -8.45424E+03  1.19918E+04 -1.58720E+04  2.48566E+03 -1.22979E+04 -9.32039E+03
 -5.04735E+02 -1.43795E+04  7.33499E+03 -1.11347E+04  9.62800E+03 -1.77024E+03  1.83601E+03  6.75667E+03
 -7.11698E+03  2.43764E+03 -5.56024E+03 -4.40222E+03 -6.25275E+01 -1.26558E+04  9.45979E+03 -1.37631E+04
  1.62562E+04 -7.48006E+03  1.65911E+04  3.44374E+03  1.45473E+04  1.28272E+04  7.04811E+03  1.86235E+04
 -2.98846E+03  2.07534E+04 -1.26958E+04  1.27577E+04 -1.47401E+04  2.98376E+03 -1.05560E+04 -3.62733E+03
 -5.34023E+03 -4.81387E+03 -8.04170E+02  7.74885E+02 -2.24723E+03  2.87829E+03 -5.26127E+03  4.32921E+03
 -1.00434E+04 -4.25592E+02 -1.04255E+04 -8.67627E+03 -4.31808E+03 -1.42965E+04  3.48938E+03 -1.05725E+04
  9.09155E+03 -4.76238E+03  5.86828E+03  2.40893E+03  4.66056E+02  4.16313E+03 -4.98106E+03 -3.70057E+02
 -4.79626E+03 -7.00422E+03 -8.22223E+02 -9.75222E+03  6.01392E+03 -1.08485E+04  1.30211E+04 -5.25449E+03
  1.55412E+04  1.10251E+03  1.21246E+04  8.98327E+03  2.33934E+03  1.26307E+04 -6.42933E+03  1.08768E+04
 -8.71869E+03  3.75874E+03 -4.66386E+03 -2.37328E+03  1.97767E+03 -2.72727E+03  5.60164E+03 -1.11618E+03
  5.42580E+03  4.75097E+03  1.30312E+03  8.55442E+03 -6.23211E+03  9.02161E+03 -1.04884E+04  2.29959E+03
 -6.55501E+03 -4.74995E+03  1.46283E+02 -8.99471E+03  4.99736E+03 -4.15458E+03  5.63376E+03  1.33571E+03
  1.20391E+03  5.80952E+03 -5.46070E+03  7.04361E+03 -7.38692E+03  3.37664E+03 -7.18334E+03 -2.40460E+03
 -4.59019E+03 -9.15356E+03  2.05985E+03 -1.08799E+04  9.13976E+03 -6.52277E+03  9.60828E+03  1.60618E+03
  6.21391E+03  8.23463E+03 -6.87184E+02  9.92696E+03 -7.09372E+03  5.74465E+03 -7.58544E+03 -5.88245E+02
 -7.40212E+03 -6.36928E+03 -1.85069E+03 -7.39534E+03  3.69345E+03 -6.69278E+03  4.41813E+03 -2.77683E+03
  3.96173E+03  7.41826E+02 -3.77047E+02  1.37428E+03  4.62831E+02 -4.98927E+02  8.88429E+02 -3.73204E+03
  6.12959E+03 -2.28115E+03  8.57157E+03  1.07108E+03  8.86018E+03  5.80605E+03  7.69094E+03  1.14931E+04
 -2.49647E+03  1.40882E+04 -1.18799E+04  9.72098E+03 -1.53626E+04  1.42030E+03 -1.21859E+04 -4.40613E+03
 -5.74498E+03 -1.08961E+04 -4.52753E+02 -8.61906E+03  2.93471E+03 -4.10220E+03  3.17267E+03 -3.31259E+03
  1.79760E+03 -1.80769E+03  2.85710E+03 -2.72747E+03  4.12344E+03 -1.98711E+03  5.26066E+03  1.45663E+01
  7.17921E+03  1.28167E+03  2.59623E+03  5.70013E+03 -1.52703E+03  5.28878E+03 -6.27450E+03  4.29365E+03
 -8.26062E+03 -8.98041E+02 -3.99024E+03 -5.46084E+03  9.38561E+00 -7.75502E+03  4.82664E+03 -8.40691E+03
  8.52804E+03 -4.71418E+03  1.07935E+04  1.46579E+03  8.15257E+03  7.06414E+03  1.28437E+03  9.71482E+03
 -3.93271E+03  9.03401E+03 -5.93081E+03  2.70460E+03 -3.22023E+03 -1.19040E+03 -1.71635E+03 -9.41332E+02
 -6.78695E+02  1.42253E+02 -1.06589E+03  1.84215E+03 -3.41056E+03  1.40662E+03 -6.42164E+03 -5.77792E+02
 -3.28486E+03 -6.08824E+03  2.91936E+02 -7.95731E+03  4.99492E+03 -6.65550E+03  6.96872E+03 -2.08560E+03
  7.07168E+03  3.85224E+03  2.70295E+03  6.11828E+03 -1.32964E+03  7.19832E+03 -4.74189E+03  5.03574E+03
 -6.78588E+03  8.93336E+02 -5.75603E+03 -4.05940E+03 -3.41233E+02 -5.76238E+03  2.68526E+03 -4.87216E+03
  4.75044E+03 -2.64334E+03  3.47620E+03  1.12288E+03  1.15434E+03  2.58255E+03  9.97031E+02  9.00265E+02
  1.43628E+03  1.27146E+03  2.21845E+03  9.00722E+02  2.21370E+03  3.13598E+03  2.31427E+03  3.30611E+03
 -1.24381E+03  5.85494E+03 -4.69521E+03  6.78398E+03 -6.85162E+03  1.57571E+03 -7.78607E+03 -2.36411E+03
 -3.86947E+03 -6.41137E+03  7.43970E+02 -8.65872E+03  4.46059E+03 -4.76817E+03  6.13450E+03 -9.86791E+02
  4.25722E+03  2.70661E+03  7.98732E+02  3.95180E+03 -1.44022E+03  2.82632E+03 -2.33151E+03  2.59649E+01
 -9.45516E+02 -2.94927E+03  2.12549E+03 -2.86565E+03  2.52217E+03 -2.01373E+03  2.27241E+03  8.13155E+02
  1.77017E+03  1.85850E+03  1.02461E+03  5.22112E+02 -2.70149E+02  1.56576E+02  1.68230E+03 -6.59278E+02
  9.20947E+02 -4.99398E+02  3.22291E+03  8.67434E+02  9.29623E+02  3.55731E+03 -9.49453E+02  4.65910E+03
 -3.36244E+03  2.79489E+03 -4.14308E+03  1.77537E+03 -4.39436E+03 -6.25387E+02 -1.10451E+03 -2.42045E+03
  5.26412E+02 -3.02250E+03  1.64494E+03 -1.07881E+03  1.07689E+03  1.89674E+03 -7.45829E+02  1.74278E+03
 -2.38454E+03  1.97802E+03 -3.01856E+03 -2.51356E+03 -1.80353E+03 -4.04935E+03  1.00681E+03 -4.06060E+03
  1.71593E+03 -1.84718E+03  2.33453E+03 -4.68175E+01  2.14938E+03  2.45407E+02  1.98104E+02  1.98514E+03
 -8.15497E+02  3.93486E+02 -1.79561E+03 -5.55332E+02  5.16262E+02 -2.57301E+03  2.97654E+03 -2.24914E+03
  3.95046E+03 -2.80694E+01  4.46072E+03  2.06437E+03  2.14363E+03  3.72997E+03 -1.02998E+03  4.52740E+03
 -2.19523E+03  1.48668E+03 -3.40454E+03 -6.34952E+02 -1.69781E+03 -1.92997E+03  9.68540E+02 -1.77892E+03
  2.45516E+03 -1.42110E+03  2.60005E+03  1.40426E+03  6.33181E+02  2.76573E+03 -4.96349E+02  2.02091E+03
 -1.17550E+03  1.72405E+03 -1.38109E+03  1.44833E+01 -5.31586E+02  3.41665E+02 -6.04766E+02  7.94910E+02
 -1.71085E+03  1.94598E+03 -2.92487E+03  1.38550E+03 -4.00741E+03 -1.28269E+02 -5.02090E+03 -2.20836E+03
 -2.62627E+03 -5.60229E+03  1.08857E+03 -6.50291E+03  3.13189E+03 -5.06050E+03  5.43028E+03 -1.95140E+03
  5.27289E+03  9.87126E+02  2.97202E+03  3.59667E+03  1.55910E+02  3.97745E+03 -1.99667E+03  3.45458E+03
 -2.25381E+03  3.29844E+02 -1.28176E+03 -7.86236E+02 -6.82081E+02  2.76521E+02 -5.63450E+02 -7.65053E+02
 -9.86976E+02  2.69549E+02 -6.60692E+02 -1.70843E+02  3.93873E+02 -6.37454E+02 -6.73556E+02 -1.57520E+03
  2.54344E+03 -1.31081E+03  1.99773E+03  5.83148E+02  2.80609E+03  2.27530E+03  7.58278E+01  3.98524E+03
 -1.32718E+03  4.92821E+03 -3.75051E+03  3.23257E+03 -5.02838E+03 -3.25149E+02 -2.95905E+03 -2.57397E+03
 -9.12039E+02 -4.19431E+03  1.13005E+03 -4.02906E+03  2.48301E+03 -1.43545E+03  2.51971E+03 -1.04435E+02
  1.70515E+03  9.05648E+02  2.26925E+01  1.62005E+03 -6.98239E+02  7.23660E+01  5.31764E+01 -6.80426E+02
  6.30745E+02  3.73733E+02  1.78281E+03  3.52255E+02  8.30202E+02  2.13857E+03  1.92239E+02  1.90687E+03
 -1.48425E+03  1.40544E+03 -2.63349E+03  3.71695E+02 -2.20165E+03 -1.35402E+03 -3.25986E+02 -2.98615E+03
  2.26013E+03 -2.59739E+03  2.67532E+03 -4.12500E+02  2.35167E+03  3.31879E+02  1.67652E+03  2.70567E+03
  3.47317E+02  1.79860E+03 -3.64632E+02  2.01881E+03 -9.08508E+02  1.48636E+03 -7.44888E+02 -1.51219E+02
 -7.25316E+02  1.16393E+02 -1.13143E+03  4.88890E+02 -1.40936E+03 -1.20657E+02 -1.94506E+03 -3.80512E+02
 -2.18788E+03 -1.06649E+03 -9.62605E+02 -2.86192E+03  9.38424E+02 -3.04909E+03  2.00496E+03 -9.57394E+02
  2.14600E+03  2.63309E+02  5.95863E+02  9.10639E+02 -9.11097E+01  2.38362E+03 -1.48323E+03  1.55885E+03
