 $NMID ID='MM_0lb_SNR400_18hz_g55_11.RAW', FMTDAT='(8E13.5)'
 TRAMP=1., VOLUME=1. $END
  3.09907E+05  7.38211E+02  3.37668E+05  2.50225E+05  8.42551E+04  3.37653E+05 -1.32777E+05  2.50525E+05
 -1.90077E+05  8.24670E+04 -1.11256E+05 -3.31775E+04  1.45691E+03 -5.01234E+04  5.36742E+04 -9.83434E+01
  3.48211E+04  5.26262E+04 -1.69049E+04  7.56933E+04 -6.04734E+04  6.30277E+04 -8.36505E+04  3.18079E+04
 -8.02607E+04 -1.13814E+04 -5.71579E+04 -4.99882E+04 -1.55552E+04 -6.89322E+04  2.67360E+04 -4.49099E+04
  4.01399E+04  3.77579E+03  1.59815E+04  4.66131E+04 -3.39367E+04  4.65855E+04 -6.56347E+04 -1.33152E+02
 -5.27034E+04 -5.66619E+04 -6.57185E+03 -7.61523E+04  3.33083E+04 -5.42187E+04  4.70325E+04 -1.69877E+04
  4.21248E+04  1.10675E+04  3.12291E+04  2.39891E+04  1.55261E+04  2.86073E+04 -4.95433E+03  2.68022E+04
 -2.20779E+04  1.25840E+04 -1.89123E+04 -4.67735E+03  4.34925E+03 -7.16094E+03  2.16702E+04  1.15154E+04
  7.63621E+03  3.44349E+04 -3.10963E+04  3.44512E+04 -6.26670E+04  2.54398E+03 -5.56818E+04 -4.18813E+04
 -1.26397E+04 -6.15078E+04  3.86494E+04 -4.39121E+04  5.66453E+04 -1.81111E+03  3.29179E+04  3.10827E+04
 -6.31136E+03  3.46963E+04 -2.90362E+04  1.41401E+04 -2.87432E+04 -5.04866E+03 -1.52932E+04 -1.07835E+04
 -7.59590E+03 -1.19649E+04 -8.01553E+02 -1.76192E+04  6.93079E+03 -2.32330E+04  1.54006E+04 -1.37439E+04
  1.16641E+04  4.35641E+03 -7.03372E+03  1.31335E+04 -2.00555E+04 -3.06151E+03 -8.15445E+03 -3.17406E+04
  2.18460E+04 -4.15486E+04  4.62739E+04 -1.89223E+04  4.32218E+04  1.88287E+04  1.51432E+04  4.29630E+04
 -1.55579E+04  3.17183E+04 -2.43870E+04  1.36570E+03 -8.82499E+03 -2.71838E+04  2.05779E+04 -3.18162E+04
  3.94012E+04 -7.91336E+03  3.25569E+04  2.32892E+04  1.63841E+04  4.44690E+04 -8.07278E+03  4.73342E+04
 -2.96928E+04  3.14231E+04 -3.92944E+04  8.74091E+03 -3.94090E+04 -1.51323E+04 -2.22907E+04 -3.56468E+04
  6.92351E+03 -3.58047E+04  2.98758E+04 -1.32877E+04  2.71711E+04  1.07684E+04  3.47956E+03  1.91177E+04
 -1.32689E+04  7.88651E+03 -9.71823E+03 -7.67284E+03  5.92132E+03 -1.03046E+04  1.71843E+04  6.01397E+03
  1.27430E+04  2.15554E+04 -6.69745E+03  2.39571E+04 -2.15759E+04  1.01536E+04 -2.64751E+04 -5.81201E+03
 -1.77248E+04 -1.68445E+04 -7.04151E+03 -1.76963E+04  3.54488E+03 -1.67937E+04  1.33272E+04 -1.49797E+04
  2.32196E+04 -1.19563E+04  2.96335E+04  1.50836E+03  2.18636E+04  1.71131E+04  3.47059E+03  3.40862E+04
 -1.65732E+04  2.86125E+04 -2.69598E+04  9.98538E+03 -1.98511E+04 -1.01307E+04 -3.97369E+03 -1.41985E+04
  2.55788E+03 -3.55097E+03 -3.80536E+03  5.83863E+03 -1.36673E+04  5.17788E+03 -1.43074E+04 -5.73238E+03
 -9.27622E+03 -1.67386E+04  4.68548E+03 -2.05337E+04  1.37020E+04 -1.49030E+04  1.57620E+04 -1.57378E+03
  9.59597E+03  1.13837E+04 -8.28816E+02  1.66533E+04 -1.11137E+04  9.48107E+03 -1.69828E+04 -3.34927E+03
 -1.23968E+04 -1.58697E+04 -1.07169E+03 -2.07967E+04  8.63126E+03 -1.60537E+04  1.68891E+04 -7.87919E+03
  1.58318E+04  6.72117E+02  1.12472E+04  4.82415E+03  5.46329E+03  6.84447E+02  8.02950E+03 -1.00907E+03
  1.50234E+04  3.10390E+03  1.63765E+04  1.33885E+04  1.07087E+04  2.63275E+04 -3.15299E+03  2.86585E+04
 -1.70134E+04  2.22252E+04 -2.65024E+04  1.12219E+04 -2.73211E+04 -1.52510E+03 -2.35110E+04 -1.59843E+04
 -1.06064E+04 -2.23458E+04  7.71473E+03 -2.08782E+04  1.77708E+04 -1.13332E+04  1.67239E+04  3.78961E+03
  7.03471E+03  1.22323E+04 -7.15576E+03  1.11590E+04 -1.44011E+04  2.59440E+03 -1.05690E+04 -8.24336E+03
 -1.80130E+02 -1.34186E+04  6.49877E+03 -9.60565E+03  8.43599E+03 -1.84779E+03  1.08092E+03  5.52643E+03
 -5.88449E+03  1.42461E+03 -4.83595E+03 -5.19424E+03  4.27967E+02 -1.07078E+04  8.13849E+03 -1.11467E+04
  1.35142E+04 -5.34530E+03  1.40576E+04  2.95564E+03  1.18919E+04  1.04057E+04  5.72020E+03  1.54998E+04
 -2.30180E+03  1.70388E+04 -1.10643E+04  1.11700E+04 -1.20697E+04  2.98657E+03 -9.39731E+03 -2.32929E+03
 -4.49288E+03 -3.06937E+03  3.67071E+01  1.44376E+03 -2.45838E+03  2.44457E+03 -4.24329E+03  3.74681E+03
 -8.74577E+03 -2.14011E+02 -8.88804E+03 -7.38391E+03 -4.08269E+03 -1.18675E+04  3.99238E+03 -9.79550E+03
  7.66761E+03 -3.44042E+03  5.80892E+03  2.37753E+03  5.75677E+02  3.48118E+03 -3.89058E+03 -1.93203E+01
 -3.77881E+03 -5.47336E+03 -9.81793E+02 -7.53858E+03  4.83844E+03 -8.11908E+03  1.13629E+04 -4.16587E+03
  1.29368E+04  6.35557E+02  9.57053E+03  7.05270E+03  1.69962E+03  1.00189E+04 -5.70447E+03  8.35633E+03
 -7.66999E+03  3.72139E+03 -3.98482E+03 -1.05490E+03  1.21294E+03 -2.06871E+03  4.82630E+03 -8.41131E+02
  4.08223E+03  3.89766E+03  1.58593E+03  6.77613E+03 -4.43155E+03  7.09051E+03 -8.69394E+03  1.75266E+03
 -5.39741E+03 -4.76963E+03  7.48834E+02 -7.23914E+03  3.74885E+03 -3.46088E+03  4.03383E+03  1.48773E+03
  8.56006E+02  3.71565E+03 -4.28681E+03  4.93878E+03 -5.65749E+03  2.64155E+03 -5.36431E+03 -1.40203E+03
 -2.77782E+03 -6.48022E+03  1.59246E+03 -7.99464E+03  6.33764E+03 -5.07790E+03  6.84078E+03  6.72847E+02
  5.19224E+03  6.20967E+03  7.09524E+01  8.11790E+03 -5.33330E+03  4.92709E+03 -5.45962E+03 -7.62193E+02
 -6.11736E+03 -5.59853E+03 -1.45149E+03 -5.86520E+03  2.92754E+03 -5.27307E+03  3.07934E+03 -2.55476E+03
  3.27091E+03  1.91169E+02 -3.55970E+02  1.48106E+03  5.42374E+02 -9.30905E+02  9.32398E+00 -2.30120E+03
  4.33621E+03 -1.44108E+03  5.98788E+03  5.27502E+02  6.68562E+03  3.86354E+03  5.28926E+03  7.94295E+03
 -1.41562E+03  9.10580E+03 -8.61666E+03  7.04148E+03 -1.12228E+04  1.37221E+03 -8.43351E+03 -2.85091E+03
 -4.67194E+03 -6.96576E+03 -1.63821E+02 -5.46233E+03  2.00158E+03 -2.86267E+03  2.18228E+03 -2.56841E+03
  8.85993E+02 -1.91802E+03  2.34302E+03 -2.51935E+03  4.21547E+03 -1.09582E+03  4.14506E+03  6.54261E+02
  4.58953E+03  1.73668E+03  1.65241E+03  4.12512E+03 -1.74984E+03  3.65012E+03 -5.13293E+03  3.37466E+03
 -5.27357E+03 -1.06798E+03 -2.13365E+03 -3.89768E+03  4.76027E+02 -5.48064E+03  3.51373E+03 -5.44260E+03
  5.38639E+03 -3.43840E+03  7.60996E+03  3.56702E+02  5.51155E+03  4.69742E+03  1.40318E+03  6.30634E+03
 -2.12351E+03  6.07301E+03 -3.61616E+03  1.80870E+03 -2.40433E+03 -9.10243E+02 -1.86522E+02 -4.08739E+02
 -7.59852E+02  7.24314E+02 -8.91843E+02  1.87489E+03 -2.55088E+03  1.36222E+03 -4.13594E+03 -1.40746E+02
 -1.74868E+03 -4.17869E+03  3.96033E+02 -4.98844E+03  2.93023E+03 -4.13929E+03  3.53506E+03 -1.67907E+03
  4.48761E+03  2.59462E+03  1.92574E+03  3.92509E+03 -8.33134E+02  4.93134E+03 -2.36304E+03  2.77454E+03
 -4.41611E+03  7.02172E+02 -3.40932E+03 -2.42512E+03 -3.85233E+02 -3.76750E+03  1.95044E+03 -2.57092E+03
  2.32344E+03 -1.62240E+03  1.87903E+03  2.86302E+02  5.53692E+02  2.41389E+03  1.17798E+03  3.80633E+02
  1.93587E+03  3.72224E+02  1.07226E+03  1.23161E+03  1.08874E+03  2.68729E+03  1.46635E+03  1.72151E+03
 -1.52748E+03  3.12257E+03 -2.70321E+03  4.69798E+03 -3.53278E+03  8.46209E+02 -4.53890E+03 -2.27135E+02
 -2.27517E+03 -3.92151E+03  6.39555E+02 -4.90811E+03  2.19867E+03 -3.06755E+03  3.83653E+03 -4.90402E+02
  2.77447E+03  1.77660E+03  8.88651E+02  1.99167E+03 -1.05805E+03  1.46411E+03 -1.11682E+03 -3.78304E+02
 -9.39970E+02 -1.57130E+03  1.29118E+03 -1.20068E+03  1.09074E+03 -1.19351E+03  1.62966E+03  5.94746E+02
  9.22663E+02  2.84477E+02  1.06290E+03  2.47235E+02 -2.98132E+02  6.76793E+02  2.00579E+03  1.16446E+02
 -2.99427E+02 -8.26781E+00  1.98066E+03  6.18415E+02  7.78326E+02  2.50599E+03 -6.39989E+02  2.91954E+03
 -1.81615E+03  1.45494E+03 -2.58691E+03  7.49672E+02 -2.54778E+03 -6.79863E+02 -8.97966E+01 -1.39397E+03
 -2.74569E+01 -1.57477E+03  1.58139E+03 -9.10168E+02  2.64056E+02  1.04754E+03 -1.02631E+03  1.14942E+03
 -1.43007E+03  8.77522E+02 -1.30638E+03 -1.89679E+03 -8.07594E+02 -2.47711E+03  9.89492E+01 -1.67201E+03
  8.01347E+02 -3.51235E+02  6.15195E+02  4.53011E+02  1.17492E+03  1.17866E+02  1.18107E+02  1.45320E+03
 -2.73091E+01  1.34328E+02 -9.59680E+02 -5.36295E+02  5.68420E+02 -8.94710E+02  1.71531E+03 -9.68098E+02
  1.65356E+03 -8.49969E+01  2.84441E+03  5.41079E+02  7.46182E+02  1.42826E+03 -4.55825E+01  2.21965E+03
 -1.76668E+03 -1.61526E+02 -2.07629E+03  2.37869E+02 -1.22096E+03 -1.78566E+03  3.10084E+02 -6.55650E+02
  1.10558E+03 -8.55383E+02  8.31998E+02  6.15596E+02 -3.72875E+02  1.41376E+03  5.60799E+02  1.06005E+03
 -5.44134E+02  1.16994E+03 -7.55994E+02  3.14558E+02 -2.11000E+02  4.72989E+02 -7.20074E+02 -2.14598E+02
  2.28182E+02  8.21767E+02 -1.57550E+03  6.52234E+02 -1.29136E+03  4.99659E+01 -2.32411E+03 -3.56537E+02
 -1.73605E+03 -2.44873E+03  5.55820E+02 -2.92353E+03  1.40452E+03 -2.36362E+03  3.69762E+03 -1.48359E+03
  2.32611E+03 -1.63591E+02  1.43022E+03  1.78911E+03 -1.14837E+03  1.54241E+03 -7.64827E+02  1.05729E+03
 -1.25078E+03  6.17418E+02 -8.32513E+02 -2.04051E+01 -3.52184E+02  3.31690E+01 -1.10155E+02  2.19269E+02
 -9.02896E+02  1.41989E+02 -9.88622E+02  2.45803E+02  4.76824E+02 -9.16533E+02 -4.18485E+02 -3.83964E+02
  1.41168E+03 -4.32941E+02  9.48156E+02 -6.27118E+01  1.06549E+03  1.20489E+03 -6.79470E+02  9.40522E+02
 -1.46667E+03  2.45665E+03 -1.69744E+03  1.26298E+03 -1.81233E+03 -1.68632E+02 -1.81075E+03 -1.47483E+03
 -8.02927E+02 -1.90692E+03  5.74803E+02 -1.87903E+03  4.96200E+02  2.98406E+01  5.81483E+02  1.08872E+02
 -8.62407E+01 -1.66427E+00  3.05642E+02  4.15016E+02 -5.49036E+02  2.32278E+02 -6.13103E+02  1.51883E+02
  3.88708E+02  7.39650E+01  2.85167E+01  3.90904E+02  3.51212E+02  5.32812E+02  1.44563E+02  6.01678E+02
 -2.28249E+02  9.94472E+02 -6.48090E+02  7.04479E+02 -8.03251E+02 -9.02826E+02  1.07677E+02 -8.35356E+02
  2.47323E+02 -7.09138E+02  5.68979E+02 -2.22991E+02  1.22312E+03 -3.60626E+02  2.34899E+02  1.10767E+03
  6.12725E+02  4.33413E+02  3.59640E+02  4.69987E+02 -2.68095E+02  2.66957E+02 -2.45449E+02  1.26683E+02
 -2.21495E+02  7.20008E+01 -7.32268E+02 -2.24169E+02 -1.10455E+03  1.24488E+02 -3.95468E+02 -3.95402E+02
 -8.81847E+02 -7.35357E+01 -3.57170E+02 -4.23773E+02  4.91361E+02 -1.85690E+03  1.10286E+03 -1.18503E+01
  4.85183E+02  1.57679E+02 -1.75035E+02  3.22072E+02  2.24513E+02  1.18111E+03 -5.30706E+02  7.25446E+02
