 $NMID ID='MM_0lb_SNR400_17hz_g40_77.RAW', FMTDAT='(8E13.5)'
 TRAMP=1., VOLUME=1. $END
  3.09520E+05  2.46491E+02  3.37268E+05  2.50080E+05  8.44856E+04  3.37632E+05 -1.32256E+05  2.50129E+05
 -1.89911E+05  8.26274E+04 -1.10452E+05 -3.26433E+04  1.50520E+03 -5.00641E+04  5.38029E+04  3.47654E+02
  3.47891E+04  5.24660E+04 -1.70008E+04  7.52813E+04 -6.04076E+04  6.26017E+04 -8.33228E+04  3.12609E+04
 -7.98018E+04 -1.13587E+04 -5.64574E+04 -5.04134E+04 -1.54827E+04 -6.92213E+04  2.66313E+04 -4.53514E+04
  3.91964E+04  4.26971E+03  1.56893E+04  4.71738E+04 -3.35804E+04  4.63913E+04 -6.58684E+04 -8.35988E+02
 -5.18535E+04 -5.57483E+04 -6.33621E+03 -7.50617E+04  3.31931E+04 -5.29902E+04  4.65076E+04 -1.61296E+04
  4.17549E+04  1.09479E+04  3.06281E+04  2.45073E+04  1.57145E+04  2.84146E+04 -5.25368E+03  2.74470E+04
 -2.15950E+04  1.23337E+04 -1.89480E+04 -4.31450E+03  4.14373E+03 -7.68821E+03  2.15081E+04  1.13261E+04
  8.20580E+03  3.32107E+04 -3.01176E+04  3.44008E+04 -6.09131E+04  2.63325E+03 -5.49112E+04 -4.16701E+04
 -1.23216E+04 -6.12138E+04  3.82391E+04 -4.37469E+04  5.55711E+04 -2.30738E+03  3.18500E+04  3.09952E+04
 -7.10060E+03  3.32835E+04 -2.86953E+04  1.32679E+04 -2.81745E+04 -5.62562E+03 -1.44389E+04 -1.04231E+04
 -7.12411E+03 -1.19729E+04 -1.87477E+03 -1.66648E+04  6.25338E+03 -2.23238E+04  1.48404E+04 -1.39736E+04
  1.23882E+04  4.53716E+03 -6.44246E+03  1.28189E+04 -1.95180E+04 -2.90410E+03 -7.63575E+03 -3.09046E+04
  2.15066E+04 -4.12043E+04  4.53058E+04 -1.92618E+04  4.18610E+04  1.87814E+04  1.43708E+04  4.18042E+04
 -1.58527E+04  3.16635E+04 -2.33464E+04  1.34608E+03 -8.70446E+03 -2.69312E+04  2.07643E+04 -3.13551E+04
  3.87970E+04 -7.79555E+03  3.19389E+04  2.27681E+04  1.58612E+04  4.24280E+04 -8.05102E+03  4.55231E+04
 -2.89324E+04  3.03258E+04 -3.82028E+04  8.18456E+03 -3.85191E+04 -1.51999E+04 -2.17430E+04 -3.48973E+04
  7.13600E+03 -3.40848E+04  2.93308E+04 -1.24875E+04  2.62745E+04  1.02868E+04  3.22324E+03  1.79132E+04
 -1.31519E+04  7.00997E+03 -1.01230E+04 -7.48093E+03  5.69615E+03 -1.04103E+04  1.74869E+04  6.34544E+03
  1.25032E+04  2.15592E+04 -6.85463E+03  2.35104E+04 -2.16368E+04  1.00778E+04 -2.54482E+04 -6.04687E+03
 -1.66283E+04 -1.68984E+04 -6.17700E+03 -1.76250E+04  3.29869E+03 -1.51520E+04  1.30715E+04 -1.53071E+04
  2.22177E+04 -1.17961E+04  2.85174E+04  1.46786E+03  2.15925E+04  1.66442E+04  3.75897E+03  3.32991E+04
 -1.59718E+04  2.77217E+04 -2.67020E+04  8.90677E+03 -1.98204E+04 -1.02882E+04 -4.24872E+03 -1.40662E+04
  2.55102E+03 -4.33326E+03 -3.09972E+03  5.63488E+03 -1.36554E+04  5.48867E+03 -1.42934E+04 -5.26653E+03
 -8.68171E+03 -1.58853E+04  4.42265E+03 -1.97755E+04  1.33114E+04 -1.46079E+04  1.50124E+04 -2.09736E+03
  8.99938E+03  1.12915E+04 -9.13561E+02  1.55008E+04 -1.04994E+04  9.18092E+03 -1.63343E+04 -3.78547E+03
 -1.15985E+04 -1.46296E+04 -1.48129E+03 -1.96414E+04  8.67500E+03 -1.60896E+04  1.66491E+04 -7.79131E+03
  1.49371E+04  6.65608E+02  1.09573E+04  3.95158E+03  5.48708E+03  2.62969E+02  8.38592E+03 -1.69678E+03
  1.43285E+04  2.88196E+03  1.51215E+04  1.29068E+04  9.68694E+03  2.58055E+04 -3.42287E+03  2.75422E+04
 -1.59023E+04  2.12514E+04 -2.54140E+04  1.01812E+04 -2.63654E+04 -1.89240E+03 -2.25987E+04 -1.52577E+04
 -1.06051E+04 -2.15014E+04  7.19565E+03 -1.97779E+04  1.68934E+04 -1.08202E+04  1.61185E+04  4.08529E+03
  6.63098E+03  1.17138E+04 -7.52089E+03  1.02618E+04 -1.38620E+04  2.81398E+03 -1.02240E+04 -8.65198E+03
  4.75734E+02 -1.30432E+04  5.98092E+03 -1.02706E+04  7.86062E+03 -1.28654E+03  2.07779E+03  5.05591E+03
 -6.23511E+03  2.35945E+03 -4.08205E+03 -4.79440E+03  5.49641E+02 -1.07572E+04  8.61879E+03 -1.06788E+04
  1.33019E+04 -5.30017E+03  1.31608E+04  3.47871E+03  1.11965E+04  1.00377E+04  4.77670E+03  1.54757E+04
 -2.04159E+03  1.66430E+04 -1.09346E+04  1.12085E+04 -1.20470E+04  3.14044E+03 -8.66974E+03 -2.25091E+03
 -4.64339E+03 -3.68184E+03 -5.07905E+02  1.81504E+03 -2.09392E+03  1.49642E+03 -3.37014E+03  4.02048E+03
 -8.29133E+03 -4.66588E+02 -9.03349E+03 -7.48059E+03 -3.49821E+03 -1.17304E+04  3.52861E+03 -8.98474E+03
  7.52065E+03 -4.28961E+03  5.43741E+03  2.01348E+03  7.78836E+02  3.47573E+03 -4.37146E+03  3.22860E+00
 -4.07817E+03 -5.44364E+03 -1.98833E+02 -7.74303E+03  4.28227E+03 -8.00168E+03  1.01028E+04 -4.26927E+03
  1.25150E+04  8.55575E+02  9.25160E+03  7.25810E+03  1.47281E+03  9.65582E+03 -5.75617E+03  8.83659E+03
 -6.83349E+03  2.77269E+03 -4.48099E+03 -8.35499E+02  1.64995E+03 -1.73408E+03  4.38314E+03 -5.47229E+02
  4.44684E+03  3.99206E+03  8.37690E+02  6.71468E+03 -4.75909E+03  6.84398E+03 -8.42722E+03  1.98422E+03
 -5.37783E+03 -3.68528E+03  7.57178E+01 -7.34683E+03  4.31130E+03 -3.53458E+03  3.80280E+03  1.14961E+03
  7.31682E+02  4.24046E+03 -4.17078E+03  5.00200E+03 -5.49187E+03  2.19881E+03 -5.10204E+03 -1.23966E+03
 -3.39792E+03 -6.34190E+03  1.34745E+03 -8.23693E+03  6.54137E+03 -5.38120E+03  6.68099E+03  1.28904E+03
  4.95565E+03  5.73861E+03  8.97116E+01  7.25865E+03 -5.48738E+03  4.15195E+03 -5.37566E+03 -8.26543E+02
 -5.96274E+03 -5.63413E+03 -1.68973E+03 -5.03146E+03  2.69673E+03 -5.01409E+03  3.82914E+03 -3.29917E+03
  2.99343E+03  6.71521E+02 -2.21389E+02  1.46520E+03  4.26364E+02 -6.33770E+02  7.42030E+02 -1.61909E+03
  4.83094E+03 -9.48589E+02  6.33671E+03  1.07327E+03  6.40239E+03  3.30321E+03  5.78308E+03  8.52298E+03
 -1.60731E+03  9.06057E+03 -8.28941E+03  7.34161E+03 -1.08321E+04  1.27178E+03 -8.17255E+03 -3.22424E+03
 -4.68464E+03 -7.39077E+03 -6.66828E+02 -6.20565E+03  2.20018E+03 -2.40002E+03  1.88622E+03 -2.23895E+03
  1.17464E+03 -1.04888E+03  2.59093E+03 -2.11577E+03  3.65152E+03 -1.54718E+03  4.15197E+03 -7.15579E+01
  5.23312E+03  9.26722E+02  1.54168E+03  3.42463E+03 -1.52492E+03  3.49203E+03 -4.75107E+03  3.14282E+03
 -4.86581E+03 -1.21130E+03 -2.75736E+03 -3.16267E+03  7.49864E+02 -5.89133E+03  3.36284E+03 -5.91175E+03
  5.81497E+03 -3.79074E+03  7.44356E+03  4.78545E+02  5.63065E+03  4.83887E+03  1.03602E+03  6.67846E+03
 -2.37500E+03  6.38658E+03 -4.28289E+03  1.69989E+03 -2.29345E+03 -5.62920E+02 -1.20419E+03 -1.19229E+02
 -1.33967E+03  4.39134E+02 -1.23312E+03  2.04512E+03 -2.47529E+03  1.56413E+03 -3.97792E+03 -6.74878E+02
 -1.78472E+03 -4.30920E+03  4.83052E+02 -5.29215E+03  2.50489E+03 -4.86389E+03  4.38905E+03 -1.29035E+03
  4.42059E+03  2.66452E+03  2.14494E+03  3.66617E+03 -1.54096E+02  5.56387E+03 -2.78704E+03  3.08869E+03
 -4.99170E+03  3.39840E+02 -3.94964E+03 -2.34457E+03 -4.73560E+02 -3.87869E+03  1.67035E+03 -2.72878E+03
  2.60208E+03 -8.67783E+02  2.14045E+03  7.81546E+02  8.99738E+02  1.21279E+03  7.83922E+02  1.91495E+02
  1.36794E+03  8.16894E+02  1.88774E+03  8.85742E+02  1.51604E+03  2.08975E+03  1.17429E+03  2.09434E+03
 -1.65389E+03  3.89418E+03 -2.96427E+03  3.95693E+03 -3.77285E+03  1.31407E+03 -5.01135E+03 -6.23873E+02
 -1.84466E+03 -4.64138E+03  1.13974E+03 -6.26128E+03  2.71899E+03 -2.92070E+03  3.56713E+03 -1.17707E+03
  3.04975E+03  2.22535E+03  2.61318E+02  2.76150E+03 -8.47262E+02  1.68808E+03 -1.48278E+03 -4.16178E+02
 -5.06202E+02 -1.89355E+03  1.48538E+03 -1.76947E+03  1.70237E+03 -1.06232E+03  1.67165E+03  2.98020E+02
  1.22818E+03  5.05127E+01  6.14816E+02 -2.06720E+02  3.74653E+02  4.20258E+02  1.41644E+03 -7.13651E+02
  2.86143E+02  1.05304E+02  1.99192E+03  1.07518E+03  1.86408E+02  2.69854E+03 -6.53083E+01  3.92922E+03
 -2.42584E+03  1.66018E+03 -2.46549E+03 -5.74344E+01 -2.74734E+03 -8.21125E+02 -1.34779E+02 -1.16890E+03
  2.74498E+02 -1.23537E+03  1.27507E+03 -4.06457E+02  9.41151E+02  1.16141E+03 -6.44597E+02  1.34519E+03
 -2.52811E+03  1.10546E+03 -2.16059E+03 -2.04187E+03 -9.71929E+02 -2.31654E+03  2.68250E+02 -2.07350E+03
  1.04553E+03 -1.29923E+03  5.97557E+02 -4.78710E+02  1.66171E+03  1.90521E+02  4.61310E+02  1.63725E+03
 -1.09291E+02 -2.54191E+00 -1.55912E+03 -3.58453E+02  4.76046E+02 -7.30854E+02  1.47441E+03 -1.12686E+03
  1.91837E+03  8.22559E+00  2.93953E+03  1.62296E+03  1.25580E+03  2.29537E+03 -6.32813E+02  2.40663E+03
 -2.03746E+03  2.32267E+02 -1.92585E+03 -5.46489E+02 -7.50839E+02 -1.92060E+03  2.66074E+02 -1.17709E+03
  1.94828E+03 -8.80382E+02  1.19909E+03  1.25304E+03  8.62083E+02  1.36303E+03 -2.26299E+02  1.62897E+03
 -4.38141E+02  7.85928E+02 -1.04310E+03  3.34432E+02  4.92272E+02  6.80974E+02 -1.51212E+03  5.97775E+02
 -1.41919E+02  1.16803E+03 -2.07198E+03  4.93393E+02 -1.87612E+03 -1.03545E+02 -3.09508E+03 -1.13983E+03
 -1.79403E+03 -3.18432E+03  7.97551E+02 -2.84061E+03  8.47602E+02 -2.76121E+03  4.18430E+03 -1.36123E+03
  3.16320E+03  1.12857E+02  1.38769E+03  1.75463E+03 -1.05819E+03  2.65888E+03 -6.00834E+02  1.33737E+03
 -1.68352E+03  1.03942E+03 -8.78437E+02 -1.51273E+02 -6.76719E+02 -1.38488E+02 -7.40343E+02  2.77406E+02
 -1.24058E+03  1.07095E+02 -3.33291E+02  2.84471E+02  1.66675E+02 -8.51348E+02 -7.05670E+02 -9.89035E+02
  1.58676E+03 -1.11326E+03  7.30843E+02  8.00848E+02  1.41804E+03  1.93557E+03 -6.04211E+02  2.07075E+03
 -9.27387E+02  2.66251E+03 -2.58555E+03  1.29506E+03 -2.76037E+03 -1.58103E+02 -1.44944E+03 -2.03818E+03
 -7.02441E+02 -1.80451E+03 -6.61453E+01 -1.63427E+03  1.69332E+03 -1.48749E+03  1.03945E+03 -2.95679E+01
  7.25174E+02  3.80459E+02  3.83425E+02  7.80467E+02 -6.36391E+02 -7.94186E+01 -1.11954E+02 -3.83821E+02
  1.78675E+02 -4.90555E+02  2.56140E+02  1.55923E+02  5.94614E+02  2.56868E+02  1.03419E+03  5.99064E+02
 -1.12652E+03  1.39712E+03 -8.41729E+02 -2.93559E+02 -1.53276E+03 -1.20319E+03 -3.56141E+02 -1.59876E+03
  1.76158E+02 -9.88197E+02  9.55614E+02  1.34356E+02  1.43243E+03 -7.60795E+02  1.10255E+03  6.56764E+02
  2.89395E+02  1.16950E+03 -2.92783E+01  9.91908E+02 -7.79727E+02  6.50834E+02 -6.74470E+01 -1.05942E+02
  2.68385E+02 -6.89546E+02 -4.35527E+02  7.82654E+01 -1.13419E+03  3.20656E+02 -1.07267E+03 -6.16268E+02
 -8.52965E+02  1.52009E+02 -7.64012E+02 -1.37319E+03  4.97734E+02 -2.22822E+03  9.16794E+02 -2.51849E+01
  1.11065E+03  6.06889E+00 -5.12657E+02  3.90886E+02 -3.14383E+02  1.12188E+03 -9.67847E+02  3.57042E+02
