 $NMID ID='MM_0lb_SNR400_13hz_g40_40.RAW', FMTDAT='(8E13.5)'
 TRAMP=1., VOLUME=1. $END
  3.09714E+05  2.32399E+02  3.37615E+05  2.50285E+05  8.43720E+04  3.38011E+05 -1.32287E+05  2.51363E+05
 -1.89833E+05  8.32798E+04 -1.11584E+05 -3.30694E+04  1.35394E+03 -5.01867E+04  5.38082E+04 -1.95626E+01
  3.50897E+04  5.27836E+04 -1.65521E+04  7.50517E+04 -6.11784E+04  6.33330E+04 -8.38733E+04  3.14405E+04
 -8.11035E+04 -1.12863E+04 -5.71840E+04 -5.08670E+04 -1.54798E+04 -6.91509E+04  2.71391E+04 -4.54426E+04
  4.05455E+04  3.20990E+03  1.67057E+04  4.88691E+04 -3.43161E+04  4.75271E+04 -6.64306E+04 -6.38550E+02
 -5.34905E+04 -5.63081E+04 -6.40317E+03 -7.72248E+04  3.39197E+04 -5.46831E+04  4.78349E+04 -1.75441E+04
  4.24862E+04  1.13854E+04  3.19002E+04  2.53519E+04  1.60323E+04  2.94961E+04 -5.58359E+03  2.73572E+04
 -2.14278E+04  1.27614E+04 -1.86668E+04 -5.24042E+03  5.18492E+03 -7.30031E+03  2.27138E+04  1.25503E+04
  6.61443E+03  3.48999E+04 -3.21047E+04  3.55888E+04 -6.29628E+04  1.82890E+03 -5.65961E+04 -4.27719E+04
 -1.25326E+04 -6.37816E+04  3.93909E+04 -4.53488E+04  5.81604E+04 -2.50857E+03  3.38537E+04  3.13931E+04
 -6.19996E+03  3.59961E+04 -2.95437E+04  1.62514E+04 -3.07118E+04 -4.49447E+03 -1.65172E+04 -1.02232E+04
 -8.24105E+03 -1.27073E+04 -9.57140E+02 -1.84301E+04  7.87614E+03 -2.32443E+04  1.48613E+04 -1.34715E+04
  1.11399E+04  5.03878E+03 -8.29387E+03  1.27173E+04 -2.09228E+04 -4.71079E+03 -8.65532E+03 -3.43287E+04
  2.32174E+04 -4.30727E+04  4.77349E+04 -1.96791E+04  4.54863E+04  1.91011E+04  1.61332E+04  4.35556E+04
 -1.64400E+04  3.38082E+04 -2.57295E+04  2.16678E+03 -1.02721E+04 -2.82873E+04  2.10531E+04 -3.38206E+04
  4.08832E+04 -9.78401E+03  3.52116E+04  2.35103E+04  1.80567E+04  4.65882E+04 -8.16815E+03  4.98113E+04
 -3.10253E+04  3.35362E+04 -4.17716E+04  9.77447E+03 -4.28793E+04 -1.59697E+04 -2.35687E+04 -3.81001E+04
  7.00672E+03 -3.79738E+04  3.17297E+04 -1.49158E+04  2.89832E+04  1.12879E+04  4.23854E+03  1.92030E+04
 -1.43396E+04  9.38996E+03 -1.05006E+04 -7.82871E+03  5.82663E+03 -1.08670E+04  1.77631E+04  5.58927E+03
  1.32995E+04  2.23616E+04 -6.29238E+03  2.51122E+04 -2.18808E+04  1.22051E+04 -2.78354E+04 -4.35053E+03
 -2.02947E+04 -1.73693E+04 -9.01733E+03 -2.04332E+04  4.27405E+03 -1.95848E+04  1.60666E+04 -1.90485E+04
  2.60186E+04 -1.32253E+04  3.26663E+04  2.67721E+03  2.38926E+04  1.97170E+04  3.93620E+03  3.66672E+04
 -1.77879E+04  3.01371E+04 -2.78748E+04  1.10078E+04 -2.06443E+04 -1.09221E+04 -4.69131E+03 -1.36201E+04
  1.76174E+03 -2.92543E+03 -4.95180E+03  6.64039E+03 -1.59258E+04  5.46753E+03 -1.67242E+04 -7.37599E+03
 -9.94797E+03 -1.88936E+04  5.19958E+03 -2.35272E+04  1.53999E+04 -1.64730E+04  1.79835E+04 -1.71107E+03
  1.22633E+04  1.28641E+04 -9.65580E+02  1.85945E+04 -1.34854E+04  1.09968E+04 -1.89146E+04 -3.99876E+03
 -1.45253E+04 -1.67585E+04 -1.81649E+03 -2.29178E+04  1.02023E+04 -1.80339E+04  1.93156E+04 -9.58097E+03
  1.77534E+04  3.77336E+02  1.27706E+04  4.06738E+03  6.98124E+03  9.90604E+02  1.01190E+04 -2.39058E+03
  1.74909E+04  3.48119E+03  1.96851E+04  1.49337E+04  1.23870E+04  3.00366E+04 -2.86840E+03  3.50724E+04
 -1.96054E+04  2.73678E+04 -3.20342E+04  1.30439E+04 -3.45338E+04 -1.91990E+03 -2.77294E+04 -1.98989E+04
 -1.18641E+04 -2.79704E+04  9.68989E+03 -2.49136E+04  2.14192E+04 -1.23048E+04  1.93254E+04  5.64094E+03
  7.32877E+03  1.40529E+04 -9.25500E+03  1.25194E+04 -1.61648E+04  3.07905E+03 -1.31686E+04 -1.02011E+04
  2.22139E+02 -1.54578E+04  7.49320E+03 -1.19280E+04  1.05137E+04 -1.62949E+03  2.09263E+03  6.53412E+03
 -6.55375E+03  3.12971E+03 -6.17412E+03 -5.40402E+03 -4.14902E+02 -1.33142E+04  9.85331E+03 -1.41124E+04
  1.63865E+04 -8.02578E+03  1.84200E+04  3.14563E+03  1.54578E+04  1.33605E+04  7.62062E+03  2.11438E+04
 -3.16520E+03  2.23040E+04 -1.42447E+04  1.40834E+04 -1.49470E+04  3.54088E+03 -1.15790E+04 -3.87554E+03
 -5.50849E+03 -4.75427E+03 -1.22508E+03  8.92369E+02 -2.11993E+03  2.93342E+03 -5.81719E+03  4.67775E+03
 -1.07981E+04 -9.09675E+02 -1.14044E+04 -9.23241E+03 -4.02498E+03 -1.49261E+04  4.48863E+03 -1.16219E+04
  9.78575E+03 -5.32375E+03  7.26708E+03  3.25984E+03 -1.36486E+02  4.45797E+03 -5.33377E+03  1.56842E+02
 -5.28917E+03 -7.53317E+03 -1.07420E+03 -1.08103E+04  6.01386E+03 -1.17150E+04  1.38663E+04 -6.59810E+03
  1.66514E+04  1.10308E+03  1.22097E+04  9.65440E+03  2.73377E+03  1.36228E+04 -7.09441E+03  1.14132E+04
 -9.18375E+03  3.78570E+03 -4.79429E+03 -2.28763E+03  1.84914E+03 -2.99755E+03  5.76585E+03 -8.57598E+02
  5.06916E+03  5.30158E+03  8.71075E+02  9.12267E+03 -7.13516E+03  8.36744E+03 -1.09233E+04  2.54586E+03
 -7.24995E+03 -6.00947E+03  3.58182E+01 -9.47765E+03  6.38925E+03 -5.18915E+03  5.57427E+03  1.57518E+03
  1.45941E+03  6.10098E+03 -5.58542E+03  8.09974E+03 -8.51178E+03  3.50615E+03 -8.41619E+03 -2.58039E+03
 -5.14100E+03 -9.54886E+03  2.38585E+03 -1.19713E+04  1.01716E+04 -7.03876E+03  1.04226E+04  2.14466E+03
  6.98241E+03  9.15576E+03 -1.12224E+03  1.10741E+04 -7.87307E+03  5.24669E+03 -8.66977E+03 -1.21315E+03
 -8.23008E+03 -7.05598E+03 -1.34189E+03 -7.34030E+03  4.31617E+03 -7.19157E+03  4.96255E+03 -3.18743E+03
  3.98071E+03  8.85295E+02 -5.60177E+02  1.58520E+03 -2.53556E+02 -1.90542E+03  1.78955E+03 -4.65902E+03
  7.13766E+03 -2.22157E+03  9.74565E+03  1.34071E+03  9.74528E+03  6.08147E+03  7.58340E+03  1.34761E+04
 -2.49556E+03  1.47770E+04 -1.25860E+04  1.11048E+04 -1.62745E+04  1.76375E+03 -1.33769E+04 -5.20723E+03
 -6.61924E+03 -1.07206E+04 -4.26749E+02 -9.39968E+03  3.17437E+03 -4.90750E+03  3.19528E+03 -3.32528E+03
  2.27514E+03 -1.75151E+03  3.34509E+03 -2.63069E+03  4.66203E+03 -2.76794E+03  5.35460E+03 -3.54313E+01
  7.67060E+03  1.68076E+03  3.07774E+03  5.37253E+03 -1.71754E+03  6.82345E+03 -6.86397E+03  5.40663E+03
 -8.79616E+03 -9.25956E+02 -4.78642E+03 -6.22089E+03 -8.69669E+01 -9.45537E+03  5.48434E+03 -9.97686E+03
  9.37157E+03 -6.16404E+03  1.19346E+04  1.30873E+03  8.34215E+03  7.66814E+03  1.29534E+03  1.05229E+04
 -4.44630E+03  8.78369E+03 -6.37383E+03  2.79856E+03 -4.07373E+03 -1.69516E+03 -1.39550E+03 -8.98965E+02
 -1.42915E+03 -6.19155E+02 -1.62814E+03  2.72167E+03 -3.99215E+03  2.42735E+03 -6.62361E+03 -1.04676E+03
 -3.42490E+03 -6.17641E+03  5.32310E+02 -9.05572E+03  5.22290E+03 -8.01919E+03  8.13741E+03 -1.90657E+03
  7.77765E+03  3.62253E+03  3.36166E+03  6.82013E+03 -2.07266E+03  9.03737E+03 -5.87004E+03  5.36700E+03
 -8.14035E+03  1.20504E+02 -6.39301E+03 -5.10177E+03 -7.68122E+02 -6.84778E+03  4.19037E+03 -5.26286E+03
  5.17002E+03 -1.89670E+03  3.78251E+03  1.17465E+03  9.27133E+02  2.94665E+03  4.48686E+02  1.62880E+03
  2.65526E+03  1.11462E+03  2.51611E+03  1.40222E+03  2.99120E+03  3.31612E+03  2.36430E+03  4.13317E+03
 -1.75427E+03  6.61173E+03 -6.12608E+03  6.84300E+03 -8.08289E+03  1.81769E+03 -9.03398E+03 -2.73439E+03
 -4.08050E+03 -8.23773E+03  6.97570E+02 -8.76641E+03  4.48511E+03 -6.32237E+03  7.05430E+03 -1.03568E+03
  5.23892E+03  3.39672E+03  9.54729E+02  4.51607E+03 -2.27900E+03  2.40312E+03 -3.35086E+03 -3.27601E+02
 -1.29408E+03 -3.55906E+03  2.26937E+03 -3.84356E+03  3.10382E+03 -1.86115E+03  3.16077E+03  4.00665E+02
  2.12055E+03  1.01974E+03  1.17025E+03  9.72779E+02 -4.37217E+02  1.43238E+03  1.76874E+03 -2.15609E+02
  1.22317E+03 -1.08306E+03  3.73784E+03  1.17783E+03  9.73287E+02  4.98835E+03 -7.57804E+02  5.48077E+03
 -3.64106E+03  3.15632E+03 -5.23073E+03  8.28978E+02 -4.75998E+03 -1.91006E+03 -1.87994E+03 -3.38694E+03
  5.55136E+02 -3.39343E+03  2.17980E+03 -7.94823E+02  1.62636E+03  1.77968E+03 -1.09930E+03  2.57858E+03
 -2.89523E+03  1.63150E+03 -3.47553E+03 -2.18155E+03 -1.95612E+03 -3.86846E+03  1.22821E+03 -3.92888E+03
  2.37037E+03 -1.95023E+03  2.70179E+03 -5.32360E+02  2.55306E+03  4.17099E+02  8.47742E+02  2.73703E+03
 -1.59162E+03  7.65160E+02 -2.08328E+03 -1.21308E+03  9.61516E+02 -2.96726E+03  3.99715E+03 -2.75787E+03
  4.33456E+03  4.93475E+02  5.41038E+03  2.38379E+03  1.82324E+03  5.26957E+03 -1.77881E+03  4.82074E+03
 -4.21685E+03  1.49897E+03 -4.12840E+03 -1.15935E+03 -2.07340E+03 -3.23746E+03  4.39751E+02 -2.99812E+03
  3.46844E+03 -1.71647E+03  1.94186E+03  1.56790E+03  1.03301E+03  2.91562E+03 -5.28554E+02  3.23536E+03
 -7.43241E+02  1.67755E+03 -1.46173E+03  8.08918E+02 -7.59219E+02  2.61773E+02 -9.68061E+02  1.17421E+03
 -1.47986E+03  3.21461E+03 -3.03119E+03  1.10682E+03 -4.10390E+03  9.48419E+02 -6.05677E+03 -2.83206E+03
 -2.83054E+03 -6.16156E+03  1.65353E+03 -7.43950E+03  3.55565E+03 -5.87278E+03  7.15021E+03 -2.48660E+03
  6.42836E+03  6.60905E+02  3.16134E+03  4.49538E+03 -4.75713E+02  5.29982E+03 -1.67066E+03  3.58882E+03
 -2.68720E+03  1.24059E+03 -1.06451E+03 -6.15834E+02 -6.93581E+02 -4.37906E+02 -5.51835E+02  5.14605E+02
 -1.25437E+03 -2.92898E+02 -1.28750E+03  2.17698E+02  8.69844E+01 -1.62449E+03  1.07438E+02 -1.72470E+03
  2.48849E+03 -1.32780E+03  2.59916E+03 -6.10524E+02  3.32787E+03  2.30835E+03 -1.33115E+02  4.21217E+03
 -2.36994E+03  5.70737E+03 -5.30420E+03  3.05891E+03 -5.33818E+03 -1.88498E+02 -4.32195E+03 -3.59082E+03
 -1.69656E+03 -4.51383E+03  6.69447E+02 -4.57488E+03  2.35312E+03 -1.94569E+03  2.78163E+03  2.84952E+01
  1.84489E+03  1.83337E+03 -9.87981E+01  1.16187E+03 -5.50190E+02  1.77885E+02 -5.74298E+02 -1.42569E+03
  1.34981E+03 -4.74997E+02  1.42423E+03  4.34320E+02  5.86621E+02  2.05837E+03  5.29206E+02  1.70832E+03
 -1.88919E+03  2.33327E+03 -2.41238E+03  3.25465E+01 -2.65496E+03 -2.40977E+03  2.16112E+02 -3.69171E+03
  1.61273E+03 -2.72196E+03  3.30297E+03 -8.66056E+02  3.03542E+03  1.16280E+02  1.98321E+03  2.52579E+03
  4.63067E+02  3.01691E+03 -1.02790E+03  2.35204E+03 -2.08674E+03  1.51040E+03 -1.27826E+03  3.73708E+02
  6.42528E+01  3.54987E+01 -1.25653E+03  8.27014E+02 -1.39905E+03  1.11557E+03 -2.22276E+03  2.58174E+01
 -1.74480E+03 -1.28470E+03 -8.14116E+02 -2.46415E+03  1.23885E+03 -3.34782E+03  2.74177E+03 -1.70425E+03
  2.77682E+03  7.15400E+02  1.48540E+03  1.74731E+03  4.91590E+02  3.10545E+03 -2.54841E+03  2.09667E+03
