 $NMID ID='MM_0lb_SNR400_18hz_g55_75.RAW', FMTDAT='(8E13.5)'
 TRAMP=1., VOLUME=1. $END
  3.10222E+05  2.55040E+02  3.37683E+05  2.50510E+05  8.51757E+04  3.37689E+05 -1.32639E+05  2.50573E+05
 -1.90061E+05  8.26089E+04 -1.11274E+05 -3.23688E+04  5.55194E+02 -5.07691E+04  5.44905E+04 -2.67180E+01
  3.42915E+04  5.24166E+04 -1.67748E+04  7.52769E+04 -6.03592E+04  6.33499E+04 -8.30353E+04  3.14077E+04
 -8.00708E+04 -1.09664E+04 -5.65527E+04 -5.07767E+04 -1.54550E+04 -6.88554E+04  2.69286E+04 -4.50157E+04
  3.96940E+04  3.95535E+03  1.62339E+04  4.75787E+04 -3.44126E+04  4.62825E+04 -6.62299E+04  6.96728E+01
 -5.26286E+04 -5.60990E+04 -6.56088E+03 -7.66501E+04  3.40146E+04 -5.38757E+04  4.71560E+04 -1.68715E+04
  4.25851E+04  1.13495E+04  3.17003E+04  2.54166E+04  1.59124E+04  2.84178E+04 -4.85518E+03  2.68461E+04
 -2.19847E+04  1.25339E+04 -1.87179E+04 -4.63103E+03  5.35712E+03 -7.17188E+03  2.15847E+04  1.19311E+04
  7.83628E+03  3.41051E+04 -3.07870E+04  3.47897E+04 -6.20276E+04  1.85342E+03 -5.52457E+04 -4.17421E+04
 -1.26479E+04 -6.15193E+04  3.85509E+04 -4.44297E+04  5.64913E+04 -1.79783E+03  3.29914E+04  3.09857E+04
 -6.93021E+03  3.43628E+04 -2.91965E+04  1.42652E+04 -2.87276E+04 -4.43394E+03 -1.55726E+04 -1.02762E+04
 -8.11325E+03 -1.19936E+04 -4.27683E+02 -1.75267E+04  7.12661E+03 -2.26408E+04  1.52008E+04 -1.33044E+04
  1.21187E+04  4.84948E+03 -6.82610E+03  1.29177E+04 -2.00839E+04 -3.38871E+03 -8.71573E+03 -3.16577E+04
  2.13914E+04 -4.18401E+04  4.66377E+04 -1.87615E+04  4.37175E+04  1.89313E+04  1.52035E+04  4.27736E+04
 -1.56817E+04  3.22116E+04 -2.45848E+04  1.44967E+03 -9.04979E+03 -2.66640E+04  2.04678E+04 -3.25310E+04
  3.89872E+04 -7.52617E+03  3.27948E+04  2.26881E+04  1.62493E+04  4.44243E+04 -8.06734E+03  4.75280E+04
 -2.97821E+04  3.11584E+04 -3.85877E+04  8.88492E+03 -3.97888E+04 -1.54807E+04 -2.17910E+04 -3.55326E+04
  6.46486E+03 -3.58862E+04  2.97278E+04 -1.37102E+04  2.81162E+04  1.09451E+04  3.94730E+03  1.89961E+04
 -1.30318E+04  7.80500E+03 -9.39169E+03 -7.81395E+03  6.17871E+03 -1.02947E+04  1.75346E+04  6.27514E+03
  1.34085E+04  2.20687E+04 -6.11511E+03  2.39113E+04 -2.18331E+04  1.00903E+04 -2.70379E+04 -5.74403E+03
 -1.83648E+04 -1.62690E+04 -6.58677E+03 -1.81099E+04  3.83001E+03 -1.67330E+04  1.37447E+04 -1.62059E+04
  2.28273E+04 -1.16256E+04  2.95710E+04  2.11580E+03  2.23563E+04  1.78105E+04  4.40862E+03  3.36627E+04
 -1.63367E+04  2.83047E+04 -2.65356E+04  9.56666E+03 -1.99125E+04 -1.02482E+04 -4.25116E+03 -1.40930E+04
  2.51309E+03 -3.61003E+03 -3.77796E+03  6.05410E+03 -1.36092E+04  5.11361E+03 -1.41485E+04 -5.61762E+03
 -9.17216E+03 -1.64039E+04  5.12044E+03 -2.06822E+04  1.38298E+04 -1.50572E+04  1.61650E+04 -1.54753E+03
  1.06326E+04  1.11426E+04 -1.34367E+03  1.71818E+04 -1.05606E+04  9.70793E+03 -1.67475E+04 -3.19807E+03
 -1.21269E+04 -1.47307E+04 -1.92558E+03 -2.05466E+04  8.84962E+03 -1.65016E+04  1.67321E+04 -7.74318E+03
  1.55921E+04  1.03753E+03  1.07673E+04  3.88596E+03  5.58595E+03  5.21312E+02  7.72170E+03 -1.71210E+03
  1.48467E+04  3.28692E+03  1.60837E+04  1.35016E+04  9.91972E+03  2.65933E+04 -3.08929E+03  2.93440E+04
 -1.71331E+04  2.26442E+04 -2.65424E+04  1.12519E+04 -2.73103E+04 -2.14380E+03 -2.36434E+04 -1.58105E+04
 -1.06821E+04 -2.24981E+04  7.49591E+03 -2.06525E+04  1.79444E+04 -1.19307E+04  1.64151E+04  4.27468E+03
  7.24189E+03  1.22688E+04 -7.57686E+03  1.10388E+04 -1.42892E+04  2.96113E+03 -1.10940E+04 -8.80900E+03
  2.81544E+02 -1.28835E+04  6.29063E+03 -9.70674E+03  8.54386E+03 -1.24806E+03  1.40476E+03  5.65080E+03
 -5.61929E+03  1.95478E+03 -4.65298E+03 -4.97063E+03 -2.24760E+02 -1.08705E+04  8.62066E+03 -1.13163E+04
  1.38580E+04 -4.93213E+03  1.36403E+04  2.86720E+03  1.18696E+04  1.04196E+04  5.42723E+03  1.60470E+04
 -2.55574E+03  1.76497E+04 -1.07904E+04  1.10408E+04 -1.29524E+04  3.19031E+03 -9.29579E+03 -2.21218E+03
 -4.84084E+03 -3.28125E+03 -9.39248E+02  1.75742E+03 -1.98721E+03  1.89122E+03 -4.06042E+03  3.56145E+03
 -9.00995E+03 -6.10395E+02 -9.72973E+03 -7.58610E+03 -3.34296E+03 -1.19013E+04  3.87463E+03 -9.43238E+03
  7.48913E+03 -4.17161E+03  6.20268E+03  2.11231E+03  3.38629E+02  2.99143E+03 -4.06980E+03 -1.29680E+02
 -3.21521E+03 -5.61085E+03 -6.32674E+02 -7.97535E+03  4.56808E+03 -8.45081E+03  1.09516E+04 -4.81662E+03
  1.27610E+04  1.09665E+03  9.44208E+03  7.09723E+03  1.80618E+03  9.61294E+03 -5.49142E+03  8.56402E+03
 -7.79050E+03  2.92837E+03 -3.53779E+03 -1.72215E+03  8.61547E+02 -1.94342E+03  4.71188E+03 -8.91308E+02
  4.12931E+03  3.99343E+03  1.01742E+03  6.78839E+03 -5.11934E+03  6.54155E+03 -8.78091E+03  1.30292E+03
 -5.62710E+03 -4.24628E+03  1.30309E+02 -7.49010E+03  4.29672E+03 -3.77976E+03  4.04913E+03  1.39722E+03
  1.26994E+03  3.34383E+03 -4.25272E+03  5.36976E+03 -5.97132E+03  2.27111E+03 -5.42629E+03 -1.27833E+03
 -2.82359E+03 -6.89802E+03  1.21354E+03 -8.08063E+03  6.45461E+03 -4.35680E+03  7.95947E+03  1.04235E+03
  4.87647E+03  6.11425E+03  2.22902E+01  7.78787E+03 -5.55086E+03  4.32182E+03 -5.70759E+03 -8.40855E+02
 -6.18526E+03 -5.07775E+03 -1.78213E+03 -5.58994E+03  2.52638E+03 -5.04018E+03  3.09421E+03 -2.69239E+03
  2.14223E+03  4.78033E+02  1.80134E+01  1.26423E+03  6.65799E+02 -1.69970E+02  2.38890E+02 -1.93925E+03
  4.57765E+03 -7.82858E+02  6.18486E+03  1.19661E+03  6.51800E+03  3.49038E+03  5.71490E+03  7.78785E+03
 -1.31513E+03  9.40874E+03 -8.03077E+03  7.05371E+03 -1.11943E+04  1.53580E+03 -8.25871E+03 -2.90749E+03
 -4.85892E+03 -6.94794E+03 -2.68748E+02 -5.53660E+03  2.66780E+03 -2.86562E+03  1.62689E+03 -1.93206E+03
  1.39050E+03 -1.61340E+03  2.75880E+03 -2.42224E+03  3.40752E+03 -1.87509E+03  3.82916E+03  2.10357E+02
  4.82707E+03  9.22793E+02  1.40662E+03  3.84813E+03 -1.38818E+03  3.27239E+03 -4.36172E+03  2.94675E+03
 -4.99489E+03 -8.80734E+02 -2.54526E+03 -3.81921E+03  3.97597E+02 -5.28728E+03  3.27084E+03 -5.90206E+03
  6.03655E+03 -3.17905E+03  7.01894E+03  2.97679E+02  5.81102E+03  4.73515E+03  1.32252E+03  6.60032E+03
 -2.02460E+03  5.69252E+03 -4.08001E+03  1.97889E+03 -1.96811E+03 -9.00968E+02 -1.04654E+03 -7.04504E+02
 -6.30335E+01  4.09095E+02 -7.53205E+02  2.02433E+03 -2.79973E+03  1.03498E+03 -4.52187E+03 -1.17288E+03
 -2.40610E+03 -4.37602E+03  3.51131E+02 -4.84737E+03  3.15910E+03 -5.13097E+03  4.00071E+03 -5.80666E+02
  4.33256E+03  2.61684E+03  2.30425E+03  3.82371E+03 -1.99182E+02  5.19142E+03 -2.79425E+03  2.75946E+03
 -4.54559E+03  9.13700E+01 -3.86792E+03 -2.84468E+03 -1.99654E+02 -3.57123E+03  1.76501E+03 -2.79763E+03
  3.23078E+03 -1.33599E+03  1.72914E+03 -1.38101E+02  6.09905E+02  2.05166E+03  9.57883E+02  7.57184E+02
  1.50799E+03  4.70306E+02  1.66710E+03  5.24880E+02  1.19315E+03  2.07231E+03  1.29626E+03  2.53215E+03
 -9.05537E+02  3.41955E+03 -2.62154E+03  4.55259E+03 -4.15716E+03  1.07748E+03 -4.59783E+03 -2.38456E+02
 -2.01311E+03 -3.98282E+03  5.48752E+02 -5.30162E+03  2.28438E+03 -2.94733E+03  3.98160E+03 -8.44643E+02
  3.02979E+03  2.04123E+03  7.73860E+02  2.07654E+03 -1.07546E+03  2.10947E+03 -1.34560E+03  1.28945E+02
 -9.46020E+02 -2.13908E+03  1.31077E+03 -1.66427E+03  8.37609E+02 -9.52659E+02  1.20008E+03  1.26222E+02
  7.49685E+02  6.91362E+01  7.74493E+02 -5.70562E+02 -2.29247E+02  6.03973E+02  1.92667E+03 -1.42848E+02
 -1.44797E+02 -3.65946E+01  1.78431E+03  7.45353E+02  3.71502E+02  2.45122E+03 -1.14621E+02  2.66703E+03
 -1.37685E+03  1.31230E+03 -2.01573E+03  4.40907E+02 -2.61140E+03 -5.18296E+02 -4.85782E+02 -1.01350E+03
  5.77298E+02 -1.26821E+03  7.42566E+02 -1.36033E+03  5.13660E+02  1.85193E+03 -1.29802E+03  1.46112E+03
 -1.57054E+03  1.43873E+03 -8.09172E+02 -1.55803E+03 -8.31663E+02 -2.40577E+03  2.10667E+02 -1.85317E+03
 -2.43872E+02 -7.47126E+02  1.07543E+03  7.05021E+02  1.48520E+03  2.21715E+02  8.21399E+02  1.43953E+03
  2.33927E+02 -2.80132E+02 -9.97016E+02 -5.56552E+02  4.16064E+02 -7.35804E+02  2.01060E+03 -9.49932E+02
  1.70015E+03  1.15282E+03  2.79115E+03  8.53667E+02  1.03214E+03  1.46164E+03 -5.78989E+02  2.38895E+03
 -1.51972E+03  2.16834E+02 -1.40117E+03  3.77762E+01 -6.85271E+02 -1.11715E+03 -2.25341E+02 -1.18641E+02
  1.25180E+03 -1.34544E+03  4.57038E+02  4.69281E+02  6.60201E+02  1.32577E+03  2.55052E+02  1.27363E+03
 -6.50189E+02  1.21662E+03 -7.87875E+01  4.98251E+02  2.12926E+01  5.81582E+02 -8.89840E+02  1.17552E+03
 -4.75084E+02  9.96947E+02 -1.57884E+03  8.31744E+02 -1.95558E+03  2.35710E+02 -2.69702E+03 -8.26008E+02
 -1.31868E+03 -2.81069E+03  6.14981E+02 -3.10397E+03  1.11528E+03 -3.08743E+03  2.94214E+03 -1.23845E+03
  2.20788E+03 -4.22340E+02  1.08978E+03  1.41038E+03 -5.18080E+01  1.46736E+03 -2.28150E+02  1.36052E+03
 -8.36179E+02  6.35235E+02 -6.07161E+02 -5.09803E+02 -3.34167E+02  9.54889E+01 -5.12665E+02 -2.29796E+02
 -1.06573E+03  1.13370E+02 -3.01880E+02  1.12019E+02 -4.80195E+01 -5.36311E+02 -3.67310E+02 -9.50960E+02
  1.30160E+03 -6.10283E+02 -1.37168E+02 -2.60513E+02  1.62315E+03  6.03327E+02 -5.49973E+02  1.59523E+03
 -1.14519E+03  2.61675E+03 -2.00754E+03  1.72002E+03 -1.77357E+03 -6.69018E+02 -9.31610E+02 -1.31277E+03
 -1.11010E+03 -1.36705E+03  4.96513E+02 -9.55127E+02  6.51120E+02 -5.12699E+02  2.22460E+02  3.51432E+02
  1.68232E+03  4.00953E+02  2.27695E+02  6.28465E+02 -4.97442E+01 -1.98115E+02 -6.14962E+02 -5.48832E+02
  4.25523E+02  6.35322E+02  4.27986E+02  2.55271E+02 -3.50771E+02  1.76694E+02  2.61208E+02  1.43686E+02
 -1.15599E+03  5.05046E+02 -5.45443E+02  1.25642E+02 -8.48680E+02 -9.75004E+02  2.00362E+02 -1.18834E+03
  7.38075E+01 -7.86808E+02  9.43859E+02  2.80671E+02  8.38661E+02 -9.68545E+01  6.95027E+02  4.11523E+02
  8.56599E+02  3.57607E+02 -4.02593E+02  8.53836E+02 -1.10302E+03  7.65337E+02 -2.55601E+02  2.32280E+02
 -3.16551E+02  8.26382E+01 -7.03740E+02 -4.75329E+02  2.56461E+02  3.96718E+00 -6.76984E+02 -2.59347E+01
 -1.02420E+03  7.63498E+02 -5.17719E+02 -1.23828E+03  8.38015E+02 -1.48184E+03 -2.29406E+02 -2.05488E+02
  5.57357E+02 -7.05755E+02 -5.72837E+02 -2.47660E+02 -5.98622E+02  8.73376E+02 -7.05945E+02  1.14253E+03
