 $NMID ID='MM_0lb_SNR400_15hz_g45_88.RAW', FMTDAT='(8E13.5)'
 TRAMP=1., VOLUME=1. $END
  3.10117E+05  2.37058E+02  3.37637E+05  2.50635E+05  8.42434E+04  3.37586E+05 -1.31825E+05  2.50932E+05
 -1.89979E+05  8.35230E+04 -1.11715E+05 -3.33068E+04  1.03980E+03 -5.01675E+04  5.36440E+04  6.17555E+02
  3.57675E+04  5.23561E+04 -1.69618E+04  7.51690E+04 -6.04019E+04  6.30513E+04 -8.45878E+04  3.13350E+04
 -8.07337E+04 -1.19150E+04 -5.68788E+04 -5.03900E+04 -1.49893E+04 -6.91512E+04  2.73520E+04 -4.54664E+04
  3.98824E+04  3.67202E+03  1.56755E+04  4.77967E+04 -3.41631E+04  4.63132E+04 -6.58551E+04 -3.33662E+02
 -5.33404E+04 -5.63585E+04 -7.10081E+03 -7.66527E+04  3.43468E+04 -5.41038E+04  4.76391E+04 -1.71411E+04
  4.26820E+04  1.13296E+04  3.12119E+04  2.41390E+04  1.53315E+04  2.86211E+04 -4.89252E+03  2.70952E+04
 -2.16972E+04  1.27636E+04 -1.87168E+04 -4.67203E+03  5.02539E+03 -7.47159E+03  2.18677E+04  1.18318E+04
  7.09108E+03  3.48101E+04 -3.16919E+04  3.47917E+04 -6.24891E+04  1.82886E+03 -5.67769E+04 -4.21662E+04
 -1.25604E+04 -6.25423E+04  3.98021E+04 -4.40605E+04  5.76249E+04 -2.43676E+03  3.33948E+04  3.16904E+04
 -6.12257E+03  3.48987E+04 -2.92689E+04  1.47563E+04 -2.92496E+04 -4.65560E+03 -1.59564E+04 -1.06066E+04
 -8.08094E+03 -1.24411E+04 -6.69826E+02 -1.72028E+04  6.65191E+03 -2.24339E+04  1.53297E+04 -1.37509E+04
  1.15566E+04  4.65573E+03 -8.09026E+03  1.25907E+04 -2.09393E+04 -3.29405E+03 -8.35432E+03 -3.31387E+04
  2.26620E+04 -4.24498E+04  4.74762E+04 -1.91613E+04  4.39744E+04  1.89170E+04  1.53294E+04  4.32942E+04
 -1.58080E+04  3.26321E+04 -2.50952E+04  1.34100E+03 -9.22857E+03 -2.72354E+04  2.07616E+04 -3.35956E+04
  4.01559E+04 -8.86659E+03  3.42165E+04  2.37969E+04  1.64088E+04  4.52599E+04 -7.82571E+03  4.88143E+04
 -3.11992E+04  3.29566E+04 -4.02244E+04  9.06809E+03 -4.14894E+04 -1.64322E+04 -2.26435E+04 -3.64659E+04
  6.91233E+03 -3.67507E+04  3.06448E+04 -1.37818E+04  2.86487E+04  1.15873E+04  3.90493E+03  1.84873E+04
 -1.37353E+04  7.76577E+03 -1.00762E+04 -7.69790E+03  5.54469E+03 -1.04849E+04  1.76529E+04  6.11332E+03
  1.28875E+04  2.16753E+04 -5.88852E+03  2.41227E+04 -2.27781E+04  1.04586E+04 -2.70146E+04 -5.16884E+03
 -1.95671E+04 -1.65628E+04 -7.17190E+03 -1.89244E+04  3.61728E+03 -1.81071E+04  1.43088E+04 -1.74559E+04
  2.46109E+04 -1.25342E+04  3.12141E+04  2.14936E+03  2.28299E+04  1.85439E+04  4.47656E+03  3.51836E+04
 -1.72003E+04  2.95977E+04 -2.67688E+04  1.03373E+04 -2.08524E+04 -1.06761E+04 -4.71764E+03 -1.35272E+04
  2.64317E+03 -3.17383E+03 -3.95460E+03  6.08362E+03 -1.52318E+04  5.05627E+03 -1.51429E+04 -5.98849E+03
 -9.78031E+03 -1.74583E+04  4.52650E+03 -2.25616E+04  1.44280E+04 -1.61611E+04  1.73347E+04 -1.91963E+03
  1.04556E+04  1.24896E+04 -1.43807E+03  1.82298E+04 -1.20930E+04  1.02176E+04 -1.77957E+04 -4.03352E+03
 -1.33302E+04 -1.60513E+04 -1.86566E+03 -2.20889E+04  9.43681E+03 -1.81574E+04  1.87895E+04 -8.41434E+03
  1.66074E+04  2.51284E+02  1.16908E+04  4.29735E+03  5.99992E+03  4.68081E+02  8.77936E+03 -1.80600E+03
  1.65251E+04  2.40594E+03  1.79735E+04  1.43167E+04  1.15191E+04  2.84892E+04 -3.23232E+03  3.23373E+04
 -1.84400E+04  2.55727E+04 -2.93486E+04  1.19872E+04 -3.08995E+04 -2.23456E+03 -2.56905E+04 -1.71072E+04
 -1.16611E+04 -2.52520E+04  8.15803E+03 -2.26243E+04  1.97872E+04 -1.21049E+04  1.71549E+04  4.86282E+03
  7.26342E+03  1.28392E+04 -7.68250E+03  1.24239E+04 -1.49428E+04  3.12218E+03 -1.14318E+04 -9.74226E+03
 -1.41499E+02 -1.44391E+04  7.59277E+03 -1.13077E+04  9.39080E+03 -1.60877E+03  2.01925E+03  6.06881E+03
 -6.34756E+03  2.05334E+03 -4.94869E+03 -5.29592E+03 -5.35524E+01 -1.22797E+04  9.04126E+03 -1.28649E+04
  1.54637E+04 -6.30671E+03  1.57423E+04  2.95977E+03  1.36006E+04  1.25209E+04  6.28696E+03  1.84478E+04
 -2.65319E+03  2.00116E+04 -1.29358E+04  1.30454E+04 -1.42801E+04  3.17183E+03 -1.00533E+04 -3.12655E+03
 -4.47960E+03 -4.80228E+03 -8.71438E+02  7.61652E+02 -2.14010E+03  2.78901E+03 -5.18220E+03  3.80146E+03
 -9.40842E+03 -6.85995E+02 -1.00998E+04 -8.17837E+03 -4.21113E+03 -1.37997E+04  4.84463E+03 -1.00517E+04
  9.39834E+03 -4.55187E+03  5.80464E+03  2.72910E+03  7.06893E+02  3.74500E+03 -4.93289E+03 -1.61264E+02
 -4.10681E+03 -6.59237E+03 -9.47602E+02 -8.91863E+03  5.09176E+03 -1.02465E+04  1.28718E+04 -5.49128E+03
  1.49980E+04  1.63511E+03  1.12072E+04  7.78950E+03  2.43967E+03  1.14439E+04 -6.04371E+03  1.01360E+04
 -8.42692E+03  2.98066E+03 -4.43943E+03 -1.97402E+03  1.72742E+03 -2.88670E+03  5.47040E+03 -6.15822E+02
  4.88767E+03  4.52881E+03  1.11137E+03  8.35180E+03 -5.72267E+03  7.86416E+03 -9.85317E+03  2.05067E+03
 -6.62201E+03 -5.04979E+03  1.60877E+02 -8.08568E+03  4.89079E+03 -4.63443E+03  5.56970E+03  1.87507E+03
  1.06253E+03  5.16940E+03 -5.47393E+03  6.48046E+03 -6.84605E+03  3.58811E+03 -7.26684E+03 -2.35010E+03
 -4.11471E+03 -8.91279E+03  2.06319E+03 -9.98500E+03  8.32402E+03 -5.76878E+03  9.39492E+03  1.48116E+03
  6.66415E+03  7.58283E+03 -4.65541E+02  9.01000E+03 -6.80773E+03  5.78819E+03 -6.79041E+03 -7.50828E+02
 -7.19263E+03 -6.44418E+03 -1.35824E+03 -6.50962E+03  4.17242E+03 -5.92976E+03  3.82714E+03 -2.54765E+03
  3.26946E+03  3.31397E+02 -3.09590E+02  1.86291E+03  4.56664E+02 -1.17102E+03  1.27063E+03 -3.07873E+03
  6.42708E+03 -1.71470E+03  8.01052E+03  7.33296E+02  7.96042E+03  5.21966E+03  6.52978E+03  1.08343E+04
 -2.20575E+03  1.28991E+04 -1.06803E+04  9.20858E+03 -1.39412E+04  2.03747E+03 -1.11985E+04 -3.74002E+03
 -5.63125E+03 -9.31597E+03 -7.86884E+02 -7.18770E+03  2.78934E+03 -3.48995E+03  2.98517E+03 -3.45309E+03
  2.21794E+03 -1.64310E+03  2.72719E+03 -2.62899E+03  3.64783E+03 -2.35810E+03  5.33148E+03 -4.90677E+02
  5.94070E+03  1.49432E+03  1.72527E+03  4.87616E+03 -1.91664E+03  4.96423E+03 -6.41895E+03  4.78393E+03
 -7.57171E+03 -1.19561E+03 -4.12254E+03 -5.17201E+03  5.34412E+02 -7.83497E+03  4.18640E+03 -7.51807E+03
  7.71555E+03 -4.50811E+03  1.03439E+04  9.87452E+02  6.77010E+03  6.52455E+03  1.55910E+03  9.21539E+03
 -3.50990E+03  7.81252E+03 -4.36359E+03  2.66744E+03 -3.17119E+03 -1.16988E+03 -1.00964E+03 -1.36558E+03
 -9.37203E+02  2.30117E+02 -1.79557E+03  2.07187E+03 -4.04852E+03  1.56912E+03 -5.40123E+03 -8.12668E+02
 -3.21861E+03 -5.62526E+03 -1.30451E+02 -7.38376E+03  3.61610E+03 -7.04738E+03  6.06201E+03 -1.84546E+03
  6.65749E+03  3.83101E+03  2.35171E+03  5.53316E+03 -1.61853E+03  7.07197E+03 -4.83396E+03  4.52886E+03
 -6.07205E+03  6.28791E+02 -5.43311E+03 -3.77229E+03 -7.96837E+02 -5.82235E+03  3.03104E+03 -3.60406E+03
  4.37951E+03 -1.33247E+03  2.60144E+03  1.03329E+03  6.10079E+02  1.86556E+03  1.21487E+03  1.60689E+03
  1.50865E+03  7.87344E+02  1.59639E+03  1.11709E+03  1.64197E+03  3.11542E+03  1.72142E+03  2.54242E+03
 -1.77427E+03  4.94581E+03 -4.43150E+03  6.01647E+03 -6.02450E+03  1.75472E+03 -6.62367E+03 -1.89552E+03
 -2.72675E+03 -6.03851E+03  1.00982E+03 -7.23984E+03  3.27687E+03 -3.95350E+03  4.71915E+03 -1.08248E+03
  3.66706E+03  2.49478E+03  1.11948E+03  3.48645E+03 -1.42586E+03  2.45974E+03 -1.84037E+03 -7.64822E+02
 -9.25650E+02 -2.47691E+03  1.84125E+03 -2.95444E+03  1.93743E+03 -1.97894E+03  2.54533E+03  9.46423E+02
  1.74406E+03  9.70100E+02  8.61854E+02  8.03441E+00 -7.18567E+02  8.24509E+02  1.42872E+03 -5.66464E+01
  1.40102E+03 -1.49938E+03  2.52421E+03  1.48898E+03  1.00488E+03  4.38311E+03 -1.20184E+03  5.02411E+03
 -2.90041E+03  2.08907E+03 -3.75107E+03  1.35851E+02 -3.74606E+03 -1.39557E+03 -9.79451E+02 -1.51403E+03
  8.25856E+02 -2.52010E+03  1.87933E+03 -8.53094E+02  1.53131E+03  1.48651E+03 -5.63512E+02  2.26595E+03
 -2.53917E+03  8.53524E+02 -2.35225E+03 -1.61844E+03 -1.22037E+03 -3.27403E+03  4.97998E+02 -3.36011E+03
  1.12080E+03 -2.05423E+03  2.03655E+03 -1.48531E+02  2.05485E+03  1.93663E+02  2.95788E+02  1.54441E+03
 -1.01410E+03 -4.24589E+02 -1.50051E+03 -7.26377E+02  1.01087E+03 -2.61918E+03  3.24599E+03 -1.66362E+03
  3.51404E+03  2.73408E+02  4.38438E+03  2.01895E+03  1.46504E+03  3.36487E+03 -6.91378E+02  3.50108E+03
 -3.22169E+03  1.10393E+03 -2.99680E+03 -4.31309E+02 -7.37199E+02 -2.04505E+03  6.64635E+02 -1.62167E+03
  2.78009E+03 -7.96834E+02  1.61788E+03  9.85355E+02  1.01477E+03  2.14397E+03 -4.15416E+02  2.39476E+03
 -8.40848E+02  2.08352E+03 -8.83751E+02 -1.10019E+02  3.50091E+02  5.13389E+02 -2.90721E+02  9.19760E+02
 -1.31721E+03  1.28516E+03 -3.12414E+03  7.47524E+02 -3.58252E+03 -1.56403E+02 -4.21828E+03 -2.35042E+03
 -1.76650E+03 -4.54721E+03  1.48315E+03 -5.16957E+03  2.57990E+03 -4.44238E+03  5.35810E+03 -1.74307E+03
  4.38371E+03  3.80247E+02  2.16691E+03  3.44484E+03 -1.97166E+02  2.89300E+03 -1.51742E+03  2.30645E+03
 -2.38497E+03  1.42406E+03 -6.14494E+02 -5.14901E+01 -3.11558E+02 -3.76948E+02 -1.19710E+03 -4.57859E+02
 -1.32557E+03  4.33830E+02 -1.00428E+03 -2.01281E+02  4.39647E+02 -1.04668E+03 -5.62654E+02 -1.17677E+03
  1.23987E+03 -1.06817E+03  1.67824E+03  4.97277E+02  2.44822E+03  2.26645E+03  1.04107E+02  2.36310E+03
 -1.77645E+03  3.42923E+03 -3.69470E+03  2.54875E+03 -3.89181E+03  6.98538E+01 -2.52350E+03 -2.36922E+03
 -1.71137E+03 -3.12016E+03  9.56443E+02 -3.00068E+03  1.67574E+03 -1.04105E+03  2.40596E+03  3.88037E+02
  1.24499E+03  2.84271E+02  3.45229E+02  1.12668E+03 -8.17987E+02  4.27589E+02 -1.78025E+02 -2.86322E+01
  8.81046E+02  5.63451E+02  1.02180E+03  8.56918E+02  6.68975E+02  1.12512E+03  5.89755E+02  8.61380E+02
 -1.61173E+03  1.27378E+03 -1.77494E+03  4.53751E+02 -1.64732E+03 -1.55928E+03 -3.27697E+02 -2.27440E+03
  1.50023E+03 -2.15428E+03  1.38601E+03 -5.14507E+02  1.80494E+03  5.48568E+02  1.02860E+03  2.01163E+03
  3.61785E+02  1.59426E+03 -5.86269E+02  1.03139E+03 -7.18501E+02  1.44717E+03 -8.29747E+02  4.03226E+02
 -4.92761E+02  1.13505E-01 -7.95956E+02  2.04414E+02 -8.63493E+02  4.78563E+02 -2.02857E+03 -8.03026E+02
 -1.84502E+03 -4.39219E+02 -6.60094E+02 -1.87051E+03  1.32772E+03 -2.47629E+03  1.36624E+03 -3.14548E+02
  1.86599E+03  1.87421E+02  6.74651E+02  1.53286E+03 -4.01902E+02  1.03721E+03 -8.94259E+02  8.89477E+02
