 $NMID ID='MM_0lb_SNR400_20hz_g40_61.RAW', FMTDAT='(8E13.5)'
 TRAMP=1., VOLUME=1. $END
  3.09954E+05  4.29910E+02  3.37360E+05  2.50101E+05  8.45163E+04  3.36888E+05 -1.32074E+05  2.49782E+05
 -1.89186E+05  8.19185E+04 -1.10186E+05 -3.31739E+04  2.16742E+03 -5.02113E+04  5.40401E+04  7.54952E+02
  3.49996E+04  5.31700E+04 -1.72185E+04  7.46721E+04 -6.05666E+04  6.18516E+04 -8.20430E+04  3.11732E+04
 -7.85050E+04 -1.13023E+04 -5.61419E+04 -4.91186E+04 -1.49465E+04 -6.75574E+04  2.59974E+04 -4.44577E+04
  3.83706E+04  3.95492E+03  1.55412E+04  4.69449E+04 -3.35292E+04  4.58231E+04 -6.48415E+04 -8.07919E+02
 -5.14869E+04 -5.53240E+04 -5.91641E+03 -7.43866E+04  3.27701E+04 -5.17531E+04  4.55029E+04 -1.59414E+04
  4.03523E+04  1.13972E+04  2.98050E+04  2.37372E+04  1.56836E+04  2.71193E+04 -4.02011E+03  2.68070E+04
 -2.13420E+04  1.31176E+04 -1.94498E+04 -4.01875E+03  3.39826E+03 -7.70286E+03  2.04660E+04  1.01780E+04
  7.41106E+03  3.19989E+04 -3.04054E+04  3.34241E+04 -5.97345E+04  2.01887E+03 -5.44486E+04 -4.03034E+04
 -1.23736E+04 -5.95589E+04  3.77979E+04 -4.23122E+04  5.40968E+04 -2.35368E+03  3.07974E+04  3.00018E+04
 -6.76986E+03  3.16367E+04 -2.74751E+04  1.20316E+04 -2.62253E+04 -5.79858E+03 -1.34851E+04 -9.81682E+03
 -6.57954E+03 -1.02934E+04 -1.46969E+03 -1.60512E+04  6.29727E+03 -2.21818E+04  1.44987E+04 -1.42922E+04
  1.30632E+04  3.97164E+03 -5.36259E+03  1.28196E+04 -1.83486E+04 -1.93947E+03 -7.79536E+03 -2.91099E+04
  1.99514E+04 -3.85091E+04  4.27149E+04 -1.80121E+04  4.00998E+04  1.77577E+04  1.35071E+04  3.98248E+04
 -1.50262E+04  2.97286E+04 -2.25203E+04  5.62429E+02 -7.54505E+03 -2.59963E+04  2.06377E+04 -2.94314E+04
  3.68284E+04 -6.75636E+03  2.90747E+04  2.16321E+04  1.39291E+04  4.06866E+04 -7.56494E+03  4.31418E+04
 -2.66841E+04  2.81541E+04 -3.56712E+04  7.38727E+03 -3.61702E+04 -1.42747E+04 -1.99878E+04 -3.32003E+04
  6.54687E+03 -3.24281E+04  2.77696E+04 -1.19599E+04  2.61440E+04  1.07456E+04  2.74634E+03  1.71611E+04
 -1.30919E+04  6.81047E+03 -8.88809E+03 -7.46203E+03  6.00331E+03 -9.78255E+03  1.69666E+04  6.90858E+03
  1.23607E+04  2.14018E+04 -6.84948E+03  2.27510E+04 -2.04751E+04  8.17422E+03 -2.37161E+04 -7.24912E+03
 -1.47827E+04 -1.63063E+04 -4.56931E+03 -1.52328E+04  3.55352E+03 -1.19332E+04  1.07380E+04 -1.22918E+04
  1.87230E+04 -1.10150E+04  2.64370E+04  5.10941E+02  1.97773E+04  1.45041E+04  4.11468E+03  3.07448E+04
 -1.51466E+04  2.61159E+04 -2.52232E+04  9.20386E+03 -1.89672E+04 -1.05123E+04 -3.56975E+03 -1.36960E+04
  2.73666E+03 -4.93500E+03 -1.58139E+03  4.55751E+03 -1.17681E+04  5.58149E+03 -1.18997E+04 -4.12674E+03
 -8.22199E+03 -1.39899E+04  4.14466E+03 -1.80143E+04  1.12997E+04 -1.28092E+04  1.25685E+04 -8.70439E+02
  7.55231E+03  9.65766E+03 -8.97394E+02  1.49300E+04 -8.70088E+03  8.19258E+03 -1.38307E+04 -3.53231E+03
 -1.03881E+04 -1.28987E+04 -1.78854E+03 -1.73712E+04  8.14652E+03 -1.28605E+04  1.50070E+04 -6.33270E+03
  1.36726E+04  7.75565E+02  8.77693E+03  3.76651E+03  4.24166E+03  1.53022E+02  6.76362E+03 -9.84795E+02
  1.23780E+04  2.83234E+03  1.32480E+04  1.17729E+04  7.85520E+03  2.25117E+04 -2.97902E+03  2.31235E+04
 -1.44658E+04  1.77459E+04 -2.18454E+04  7.82092E+03 -2.13786E+04 -1.32472E+03 -1.86950E+04 -1.24960E+04
 -9.25344E+03 -1.81077E+04  5.29182E+03 -1.64237E+04  1.47123E+04 -1.01201E+04  1.38170E+04  2.66947E+03
  6.40616E+03  9.86391E+03 -6.33760E+03  9.13093E+03 -1.26429E+04  3.19050E+03 -9.57889E+03 -6.72127E+03
 -1.22289E+02 -1.19047E+04  5.36241E+03 -8.73086E+03  6.84237E+03 -1.37791E+03  5.81985E+02  4.39386E+03
 -4.89096E+03  1.07536E+03 -3.09721E+03 -3.95556E+03  7.46660E+02 -8.98373E+03  6.71267E+03 -8.47889E+03
  1.04377E+04 -3.88243E+03  1.01532E+04  2.71311E+03  8.98367E+03  8.09536E+03  4.06471E+03  1.16419E+04
 -1.17236E+03  1.35687E+04 -8.04565E+03  8.81164E+03 -9.82333E+03  3.02606E+03 -6.86064E+03 -1.01699E+03
 -4.23061E+03 -2.46832E+03 -5.59931E+02  1.82631E+03 -2.05029E+03  1.43538E+03 -2.74672E+03  3.72256E+03
 -7.13642E+03 -6.92195E+02 -8.35499E+03 -6.45296E+03 -3.01461E+03 -1.03125E+04  3.10099E+03 -7.52459E+03
  6.06067E+03 -3.86028E+03  4.39656E+03  1.63400E+03  2.52165E+02  3.13035E+03 -2.83362E+03 -2.59089E+01
 -3.05590E+03 -4.55531E+03 -1.12417E+03 -5.82605E+03  2.73917E+03 -6.67537E+03  8.86251E+03 -3.36771E+03
  1.03385E+04  2.16979E+02  7.98108E+03  4.74249E+03  1.77734E+03  7.40413E+03 -5.24296E+03  7.13479E+03
 -6.05363E+03  2.47002E+03 -3.02750E+03 -4.29165E+02  1.67068E+03 -1.79367E+03  4.31276E+03 -1.09218E+03
  3.74950E+03  2.63968E+03  1.61466E+03  5.79632E+03 -4.17023E+03  5.89897E+03 -6.95191E+03  1.70066E+03
 -4.40197E+03 -2.85078E+03  1.57575E+02 -5.56500E+03  3.25561E+03 -2.98000E+03  2.87935E+03  1.94690E+02
  4.50010E+02  2.64670E+03 -3.56214E+03  3.58109E+03 -3.62767E+03  1.98234E+03 -3.39439E+03 -5.29147E+02
 -2.35224E+03 -5.03655E+03  1.00101E+03 -5.67312E+03  4.73234E+03 -3.91367E+03  4.82712E+03  5.89410E+02
  3.80546E+03  4.19627E+03  4.18822E+02  6.52998E+03 -3.94438E+03  3.82850E+03 -4.50572E+03 -3.64910E+02
 -5.26950E+03 -4.75565E+03 -1.31521E+03 -4.36124E+03  2.21958E+03 -4.52467E+03  2.25004E+03 -2.83562E+03
  2.65706E+03 -2.20889E+02 -1.95256E+02  1.16435E+03  6.85071E+02  5.45642E+02 -1.24363E+02 -1.09837E+03
  2.69648E+03 -1.63565E+02  3.80263E+03  9.04490E+02  4.10074E+03  2.19700E+03  4.76405E+03  5.91676E+03
 -1.01572E+03  7.01056E+03 -6.33935E+03  4.71861E+03 -7.86609E+03  1.48029E+03 -7.29985E+03 -1.73223E+03
 -3.11188E+03 -5.11857E+03 -3.72386E+02 -4.00586E+03  1.55543E+03 -1.56734E+03  1.55278E+03 -1.89848E+03
  1.02038E+03 -1.41430E+03  1.56060E+03 -2.08798E+03  2.62427E+03 -8.01320E+02  3.05365E+03  9.16620E+02
  3.83989E+03  1.09805E+03  5.46038E+02  3.05648E+03 -1.10669E+03  1.97435E+03 -3.84321E+03  2.44963E+03
 -4.08726E+03 -1.32298E+03 -1.18590E+03 -2.44188E+03  6.74872E+02 -3.68734E+03  2.54919E+03 -4.38046E+03
  3.79789E+03 -2.58565E+03  5.57927E+03 -1.50222E+02  3.88202E+03  2.98964E+03  9.00726E+02  4.93141E+03
 -1.59655E+03  4.98681E+03 -2.53343E+03  1.16979E+03 -1.30735E+03 -7.41324E+02 -3.75548E+02 -3.70338E+02
 -4.54058E+02  6.31379E+02 -7.74554E+02  2.07361E+03 -2.13519E+03  1.19245E+03 -3.32316E+03 -8.77416E+02
 -8.34826E+02 -3.74149E+03  6.61314E+02 -4.22438E+03  1.85133E+03 -4.15672E+03  2.37590E+03 -5.75643E+02
  3.32729E+03  2.43601E+03  1.73425E+03  2.66863E+03 -1.23424E+03  3.41046E+03 -1.97930E+03  1.66059E+03
 -2.81291E+03  8.32520E+02 -2.39628E+03 -2.34097E+03 -3.98088E+02 -2.11199E+03  1.69379E+03 -1.80623E+03
  2.32383E+03 -1.48849E+03  1.51172E+03  5.04581E+02  2.38407E+02  1.69131E+03  5.53902E+02  1.62987E+02
  1.57645E+03  3.67128E+02  6.42686E+02  9.28414E+02  1.20745E+03  1.86021E+03  1.19507E+03  1.19201E+03
 -1.56821E+03  2.27575E+03 -2.32649E+03  3.26525E+03 -2.13424E+03  7.17106E+02 -3.21343E+03  1.63765E+01
 -1.14983E+03 -2.84261E+03  3.11806E+02 -3.93350E+03  1.41163E+03 -2.12640E+03  2.33697E+03 -1.01600E+03
  1.75759E+03  1.72700E+03  3.15932E+02  1.85006E+03 -5.15300E+02  5.70684E+02 -8.85297E+02 -1.21590E+02
 -5.12522E+02 -9.80239E+02  7.31953E+02 -1.33605E+03  7.91404E+02 -1.48786E+03  1.32638E+03  3.16238E+02
  6.63262E+02  1.65348E+02  5.14107E+02 -4.40006E+02 -2.79172E+02  3.36388E+02  1.82040E+03  3.26285E+02
 -1.41170E+02 -7.96484E+00  1.49260E+03  7.53809E+02 -2.26678E+02  1.99921E+03 -3.32806E+02  2.13147E+03
 -1.33125E+03  5.87214E+02 -1.20850E+03  2.49139E+02 -1.60171E+03 -9.79788E+02  4.36663E+00 -4.95622E+02
 -1.20615E+02 -1.02310E+03  7.82405E+02 -6.11936E+02  4.33345E+02  1.51556E+03 -8.16288E+02  5.26840E+02
 -1.32214E+03  3.66149E+02 -7.86855E+02 -1.42175E+03 -6.17917E+02 -1.50019E+03  1.75275E+02 -8.65852E+02
  1.38060E+01 -1.56285E+02 -2.36083E+01  3.02803E+02  7.37986E+02 -2.43377E+02  3.13883E+02  2.41763E+02
 -2.24968E+02  2.54280E+02 -7.69565E+02 -4.57574E+02  3.06314E+02 -7.10406E+02  1.35872E+03 -5.81413E+02
  8.90085E+02  1.25064E+02  2.17424E+03 -1.59046E+01  9.43700E+02  1.03713E+03 -2.59812E+02  1.25193E+03
 -7.95401E+02  3.33351E+02 -1.39756E+03  2.68361E+02 -4.78462E+02 -1.02565E+03  3.67406E+01 -1.87735E+02
  1.47042E+03  8.17589E+01  6.12099E+02  6.22452E+02  3.48269E+02  5.86228E+02  2.97000E+01  1.22164E+03
 -3.15488E+02  6.05865E+02 -3.58794E+02  5.59067E+02 -3.01166E+02 -1.05328E+02 -3.37910E+02  5.20374E+02
 -6.68772E+02  6.07977E+02 -1.36169E+03  5.29943E+02 -1.09238E+03  2.12595E+02 -1.89915E+03 -8.08680E+02
 -7.96207E+02 -1.06062E+03  4.65948E+01 -2.54663E+03  6.85032E+02 -1.77853E+03  2.02952E+03 -9.27530E+02
  1.48958E+03  6.87902E+01  1.17928E+03  1.21154E+03 -1.41385E+03  1.14235E+03 -9.32766E+02  1.21690E+03
 -7.26093E+02  5.75790E+02 -5.03182E+02 -3.83437E+02 -8.38143E+02  1.60626E+02 -5.65085E+02  5.65815E+02
 -1.27000E+03 -3.08456E+01 -8.86726E+02  2.84788E+02 -1.39933E+01 -4.25460E+02 -8.25543E+02 -9.59490E+02
  9.86859E+02 -3.08255E+02 -1.88067E+02  2.53334E+02  9.51242E+02  6.75723E+02 -6.42964E+02  1.01359E+03
 -1.10434E+03  1.58974E+03 -1.02608E+03  9.43471E+02 -1.51605E+03  1.25797E+02 -7.40580E+02 -1.30004E+03
 -6.16573E+02 -8.90934E+02  1.10921E+02 -9.42422E+02  3.00001E+02 -3.02610E+02  3.67464E+02  7.42473E+02
  4.39368E+02  2.43803E+02  2.20084E+02  3.24124E+02  1.36973E+02 -4.80102E+02 -2.44890E+02 -3.09731E+02
  1.11441E+02 -3.49094E+01  1.64509E+02  5.23522E+02  1.88634E+02  2.06964E+02  8.77809E+02 -7.22204E+01
 -6.96948E+02  1.25339E+03 -5.85619E+02  6.54713E+02 -5.71984E+01 -3.21329E+02  5.75978E+02 -7.12201E+02
  3.93315E+02 -3.08189E+02  6.35621E+02  8.74502E+01  5.04379E+02 -2.59256E+02  6.20629E+02  7.08037E+02
  7.40798E+02  5.11899E+02 -2.60279E+02  3.01178E+02  1.27253E+02  1.41803E+02 -5.75614E+02  9.68995E+01
 -1.99441E+02  3.96911E+02 -1.13690E+01  1.95101E+02 -3.82404E+02  2.43207E+02 -5.19591E+02 -4.18445E+02
 -1.25508E+03 -1.94984E+02 -3.56070E+02 -6.32929E+02  5.69268E+02 -4.27408E+02  7.02983E+02 -5.32197E+00
  5.80324E+02 -7.46255E+01 -2.35094E+02  8.86109E+01 -6.54476E+01  7.01348E+01 -3.75790E+02  7.60522E+02
