 $NMID ID='MM_0lb_SNR400_8hz_g50_23.RAW', FMTDAT='(8E13.5)'
 TRAMP=1., VOLUME=1. $END
  3.09180E+05 -1.01876E+02  3.37923E+05  2.50713E+05  8.48550E+04  3.38446E+05 -1.32610E+05  2.51990E+05
 -1.91507E+05  8.40901E+04 -1.12835E+05 -3.16926E+04  2.96424E+02 -5.23539E+04  5.27180E+04 -1.07447E+03
  3.55218E+04  5.33814E+04 -1.59950E+04  7.56225E+04 -6.11733E+04  6.47128E+04 -8.44606E+04  3.35611E+04
 -8.15334E+04 -1.21523E+04 -5.83716E+04 -5.18284E+04 -1.52351E+04 -7.11084E+04  2.76875E+04 -4.69301E+04
  4.04105E+04  3.95777E+03  1.68131E+04  4.93199E+04 -3.50968E+04  4.81549E+04 -6.82439E+04  5.73603E+01
 -5.50139E+04 -5.83717E+04 -8.14126E+03 -7.97260E+04  3.55870E+04 -5.64344E+04  4.95621E+04 -1.86729E+04
  4.53310E+04  1.15815E+04  3.36341E+04  2.74596E+04  1.59388E+04  2.97975E+04 -5.44152E+03  2.78063E+04
 -2.23639E+04  1.19157E+04 -1.75490E+04 -5.64205E+03  7.70541E+03 -7.51272E+03  2.32076E+04  1.39980E+04
  7.27474E+03  3.80414E+04 -3.41102E+04  3.75152E+04 -6.56231E+04  2.12118E+03 -5.96345E+04 -4.51976E+04
 -1.32801E+04 -6.63819E+04  4.10966E+04 -4.76486E+04  6.12949E+04 -2.18958E+03  3.74586E+04  3.49147E+04
 -5.74797E+03  3.98320E+04 -3.15933E+04  1.90763E+04 -3.41496E+04 -4.22155E+03 -1.91044E+04 -1.27081E+04
 -9.20088E+03 -1.58291E+04 -4.55241E+02 -1.99138E+04  8.34217E+03 -2.45486E+04  1.66493E+04 -1.26192E+04
  1.04186E+04  6.58247E+03 -1.12736E+04  1.22376E+04 -2.36848E+04 -6.82953E+03 -8.92480E+03 -3.80678E+04
  2.48267E+04 -4.73871E+04  5.27382E+04 -2.20495E+04  4.95639E+04  2.11337E+04  1.82516E+04  4.71269E+04
 -1.67752E+04  3.70799E+04 -2.85315E+04  2.95527E+03 -1.17990E+04 -2.94321E+04  2.13935E+04 -3.74947E+04
  4.63144E+04 -1.10330E+04  4.06303E+04  2.55756E+04  2.23394E+04  5.30017E+04 -8.75874E+03  5.79940E+04
 -3.62707E+04  3.87634E+04 -4.83994E+04  1.07879E+04 -4.87305E+04 -1.92444E+04 -2.72237E+04 -4.29913E+04
  8.04003E+03 -4.30268E+04  3.38766E+04 -1.72115E+04  3.25678E+04  1.13359E+04  5.32329E+03  2.04604E+04
 -1.38139E+04  9.90136E+03 -1.19539E+04 -7.24649E+03  5.92073E+03 -1.16481E+04  1.84564E+04  5.43270E+03
  1.53183E+04  2.23447E+04 -5.05127E+03  2.79544E+04 -2.40344E+04  1.47352E+04 -3.27913E+04 -2.01280E+03
 -2.64736E+04 -1.78780E+04 -1.23227E+04 -2.62122E+04  4.36879E+03 -2.68005E+04  2.11561E+04 -2.34930E+04
  3.39744E+04 -1.51845E+04  3.87849E+04  4.79228E+03  2.74554E+04  2.47543E+04  4.57356E+03  4.21520E+04
 -2.09373E+04  3.45178E+04 -3.10609E+04  1.17962E+04 -2.30848E+04 -1.05532E+04 -5.33775E+03 -1.29725E+04
  6.90480E+01 -8.19325E+02 -7.95423E+03  8.96879E+03 -2.02656E+04  4.49574E+03 -2.06252E+04 -1.00372E+04
 -1.31679E+04 -2.38155E+04  6.34827E+03 -2.85511E+04  1.96134E+04 -2.05952E+04  2.39343E+04 -1.42270E+03
  1.51156E+04  1.70676E+04 -1.57901E+03  2.43943E+04 -1.72078E+04  1.41013E+04 -2.41651E+04 -5.24509E+03
 -1.75741E+04 -2.14367E+04 -2.36332E+03 -2.91136E+04  1.25096E+04 -2.40443E+04  2.45912E+04 -1.32306E+04
  2.31553E+04 -2.90194E+02  1.62577E+04  5.12061E+03  9.66152E+03  1.52047E+03  1.31775E+04 -2.63671E+03
  2.33752E+04  2.66741E+03  2.58178E+04  1.84326E+04  1.81246E+04  3.92313E+04 -2.62668E+03  4.63583E+04
 -2.64722E+04  3.88635E+04 -4.40861E+04  2.02609E+04 -4.76769E+04 -2.99952E+03 -3.76238E+04 -2.75548E+04
 -1.46695E+04 -3.92629E+04  1.40956E+04 -3.44416E+04  2.91288E+04 -1.61196E+04  2.53200E+04  9.11105E+03
  7.80008E+03  1.96975E+04 -1.21707E+04  1.67859E+04 -2.08926E+04  2.65746E+03 -1.57272E+04 -1.35708E+04
 -6.49023E+02 -1.96482E+04  1.08710E+04 -1.51582E+04  1.34396E+04 -2.62520E+02  3.84948E+03  9.72237E+03
 -8.94232E+03  4.73388E+03 -9.64970E+03 -7.00625E+03 -1.39910E+03 -1.96076E+04  1.19301E+04 -2.17016E+04
  2.43286E+04 -1.22239E+04  2.83912E+04  3.54153E+03  2.48283E+04  2.04807E+04  1.12456E+04  3.08768E+04
 -5.45486E+03  3.30148E+04 -2.18759E+04  2.16654E+04 -2.45552E+04  3.63409E+03 -1.62431E+04 -6.12667E+03
 -6.66639E+03 -7.80937E+03 -1.66413E+03 -5.69676E+02 -3.27518E+03  2.73736E+03 -7.41587E+03  5.93554E+03
 -1.53856E+04 -7.51207E+02 -1.58140E+04 -1.21201E+04 -6.68353E+03 -2.07977E+04  5.92284E+03 -1.76426E+04
  1.44821E+04 -6.87292E+03  9.50080E+03  4.30884E+03 -6.49118E+02  7.63994E+03 -8.31339E+03 -2.11605E+02
 -9.29210E+03 -1.11409E+04 -1.36797E+03 -1.69205E+04  1.00771E+04 -1.68325E+04  2.20246E+04 -9.82928E+03
  2.51567E+04  2.84602E+03  1.76752E+04  1.55757E+04  3.04181E+03  2.10283E+04 -1.04422E+04  1.63684E+04
 -1.37985E+04  5.16634E+03 -7.45917E+03 -3.79564E+03  2.71304E+03 -5.13175E+03  8.92616E+03 -1.29327E+03
  7.92099E+03  7.75967E+03  1.98061E+03  1.31873E+04 -9.01734E+03  1.35432E+04 -1.71004E+04  3.36466E+03
 -1.12875E+04 -8.49589E+03 -3.17597E+02 -1.43235E+04  9.09950E+03 -6.98179E+03  1.03575E+04  3.64467E+03
  2.52143E+03  1.11924E+04 -8.01570E+03  1.26803E+04 -1.48628E+04  4.91238E+03 -1.49831E+04 -7.13043E+03
 -8.68965E+03 -1.64433E+04  4.65622E+03 -1.98894E+04  1.69726E+04 -1.16968E+04  1.85718E+04  3.22271E+03
  1.13125E+04  1.41089E+04 -1.65947E+03  1.66682E+04 -1.27892E+04  9.10081E+03 -1.37900E+04 -1.57330E+03
 -1.22256E+04 -1.08130E+04 -2.02421E+03 -1.23469E+04  7.15583E+03 -9.82274E+03  8.38282E+03 -4.01960E+03
  4.24389E+03  1.41303E+03 -1.73237E+03  2.56231E+03 -1.44461E+03 -3.41824E+03  2.73475E+03 -9.03988E+03
  1.29981E+04 -5.21966E+03  1.75099E+04  1.57880E+03  1.72965E+04  1.12348E+04  1.16862E+04  2.23876E+04
 -5.71180E+03  2.64993E+04 -2.15843E+04  1.90750E+04 -2.89252E+04  3.37602E+03 -2.24662E+04 -1.00837E+04
 -1.12404E+04 -1.88902E+04 -1.69439E+02 -1.63759E+04  5.61631E+03 -9.83074E+03  6.05529E+03 -5.73247E+03
  4.39671E+03 -3.41041E+03  3.89124E+03 -4.77809E+03  5.98445E+03 -4.48939E+03  8.95025E+03 -2.18001E+03
  1.20469E+04  2.11313E+03  6.55027E+03  1.02716E+04 -2.57245E+03  1.25528E+04 -1.25658E+04  9.87546E+03
 -1.65146E+04 -2.22015E+03 -1.01393E+04 -1.11565E+04 -1.79116E+03 -1.67563E+04  9.63516E+03 -1.77520E+04
  1.78730E+04 -9.56331E+03  2.14133E+04  2.66574E+03  1.49041E+04  1.51578E+04  1.59534E+03  1.91682E+04
 -8.64410E+03  1.52545E+04 -1.17066E+04  5.60987E+03 -8.03457E+03 -2.58347E+03 -3.04088E+03 -1.98465E+03
 -1.97580E+03  4.07867E+02 -2.23342E+03  3.52533E+03 -7.46202E+03  2.17925E+03 -1.09622E+04 -2.33089E+03
 -8.67350E+03 -1.10851E+04 -9.04865E+02 -1.67127E+04  1.11372E+04 -1.40436E+04  1.58220E+04 -4.10141E+03
  1.59465E+04  6.71294E+03  8.42215E+03  1.50663E+04 -3.23965E+03  1.67342E+04 -1.24065E+04  1.02868E+04
 -1.51553E+04  7.47808E+02 -1.13618E+04 -9.51402E+03 -9.33747E+02 -1.39004E+04  7.71296E+03 -1.09443E+04
  1.06033E+04 -2.46006E+03  7.01233E+03  2.40581E+03  2.18396E+03  4.48801E+03  1.81660E+03  2.29230E+03
  3.10528E+03  1.69697E+03  4.20719E+03  1.94112E+03  5.34157E+03  5.59783E+03  4.11123E+03  8.26208E+03
 -2.84267E+03  1.32964E+04 -1.17067E+04  1.29585E+04 -1.72863E+04  2.45533E+03 -1.79959E+04 -7.52041E+03
 -9.21791E+03 -1.78718E+04  3.34281E+03 -1.83394E+04  1.05025E+04 -1.25543E+04  1.29053E+04 -3.57947E+03
  1.05706E+04  5.46781E+03  2.22237E+03  1.05216E+04 -5.02948E+03  6.37751E+03 -7.00365E+03 -2.02663E+02
 -3.42900E+03 -6.66418E+03  3.80167E+03 -7.28119E+03  7.17753E+03 -3.21918E+03  7.41688E+03  1.61642E+03
  3.72756E+03  2.57959E+03  1.32453E+03  2.96363E+03 -1.36103E+03  2.91978E+03  1.10580E+03  8.87898E+00
  2.70497E+03 -4.56531E+02  6.56421E+03  2.58836E+03  4.55076E+03  8.96596E+03 -2.41220E+03  1.21188E+04
 -8.70088E+03  8.00991E+03 -1.09237E+04  1.81235E+03 -9.21639E+03 -4.56987E+03 -3.60266E+03 -6.41612E+03
  1.71935E+03 -6.64264E+03  4.61700E+03 -2.77385E+03  3.30748E+03  3.37940E+03 -2.13600E+03  4.86205E+03
 -7.30200E+03  2.60175E+03 -8.01296E+03 -3.47095E+03 -5.44748E+03 -9.41032E+03  2.00155E+03 -1.00336E+04
  6.12256E+03 -5.71493E+03  6.87919E+03 -1.63121E+03  5.71699E+03  3.24134E+03  5.62078E+02  4.54479E+03
 -4.20134E+03  1.27310E+03 -3.94287E+03 -3.46204E+03  2.06425E+03 -7.45562E+03  8.93465E+03 -5.87104E+03
  1.07593E+04  1.44848E+02  1.03403E+04  7.68798E+03  3.66308E+03  1.25505E+04 -4.13629E+03  1.05745E+04
 -9.78659E+03  4.15569E+03 -1.05239E+04 -1.81641E+03 -4.55322E+03 -8.27332E+03  1.67008E+03 -7.03675E+03
  6.62256E+03 -3.81610E+03  6.90936E+03  2.59509E+03  2.45715E+03  5.65808E+03 -1.51840E+03  5.93626E+03
 -3.06533E+03  3.66779E+03 -2.92467E+03  1.20285E+03 -7.40655E+02  5.34134E+02 -1.25482E+03  2.30320E+03
 -2.80946E+03  4.06776E+03 -7.99426E+03  4.26329E+03 -1.30767E+04  4.19740E+02 -1.34460E+04 -8.39360E+03
 -7.49828E+03 -1.53552E+04  2.75631E+03 -1.86044E+04  1.06702E+04 -1.32924E+04  1.76041E+04 -5.21511E+03
  1.61382E+04  2.62090E+03  1.02422E+04  1.11021E+04  1.14661E+03  1.27376E+04 -4.74341E+03  9.14111E+03
 -5.87303E+03  2.96985E+03 -4.57070E+03 -9.61300E+02 -2.19002E+03 -1.46810E+03 -1.04797E+03 -1.11289E+01
 -2.23648E+03  3.77139E+02 -2.25696E+03 -3.91400E+02 -8.73680E+02 -2.83546E+03  6.34091E+02 -4.99864E+03
  4.93006E+03 -3.73189E+03  8.03917E+03  1.23882E+02  8.08389E+03  5.95955E+03  2.47713E+03  1.17745E+04
 -6.53210E+03  1.31716E+04 -1.36075E+04  8.72969E+03 -1.62195E+04 -9.49423E+02 -1.12208E+04 -9.95702E+03
 -4.31861E+03 -1.19866E+04  2.95087E+03 -1.23111E+04  8.69921E+03 -5.73667E+03  8.32802E+03 -5.76629E+02
  4.32915E+03  4.40801E+03 -1.05046E+03  3.71349E+03 -2.84941E+03  3.34631E+02  5.87321E+01 -3.94827E+03
  4.53655E+03 -1.08079E+03  4.12631E+03  1.12730E+03  3.23198E+03  4.97722E+03 -2.08895E+01  6.73067E+03
 -5.59964E+03  5.09190E+03 -8.45248E+03  1.66367E+03 -7.24400E+03 -6.29597E+03 -1.65332E+03 -1.06969E+04
  4.92280E+03 -8.94805E+03  9.26513E+03 -3.20717E+03  1.00334E+04  1.75289E+03  5.52482E+03  8.07577E+03
  2.24038E+03  7.91431E+03 -3.21418E+03  8.16283E+03 -5.55678E+03  4.44406E+03 -4.76706E+03  2.75436E+02
 -2.01101E+03 -8.48678E+02 -3.11146E+03  2.00397E+03 -4.25379E+03  2.18181E+03 -6.74013E+03 -5.95200E+02
 -5.79004E+03 -4.49991E+03 -1.22241E+03 -8.09655E+03  3.72712E+03 -8.71974E+03  7.37150E+03 -4.60305E+03
  9.18237E+03  1.20058E+03  4.71499E+03  6.69977E+03 -9.22053E+02  8.37598E+03 -6.86157E+03  5.61236E+03
