 $NMID ID='MM_0lb_SNR400_14hz_g40_19.RAW', FMTDAT='(8E13.5)'
 TRAMP=1., VOLUME=1. $END
  3.09547E+05  4.48277E+02  3.37216E+05  2.50515E+05  8.44387E+04  3.38296E+05 -1.32853E+05  2.51191E+05
 -1.90208E+05  8.31818E+04 -1.11676E+05 -3.29378E+04  1.03002E+03 -5.04134E+04  5.41379E+04  3.82052E+02
  3.52383E+04  5.26346E+04 -1.69070E+04  7.60765E+04 -6.06945E+04  6.36996E+04 -8.33510E+04  3.23067E+04
 -8.05147E+04 -1.08233E+04 -5.68631E+04 -5.10227E+04 -1.54652E+04 -6.91199E+04  2.72116E+04 -4.52497E+04
  3.96811E+04  3.78148E+03  1.57708E+04  4.75151E+04 -3.48332E+04  4.66616E+04 -6.68775E+04 -1.08951E+02
 -5.29149E+04 -5.66272E+04 -6.96222E+03 -7.62542E+04  3.41707E+04 -5.43296E+04  4.72962E+04 -1.59709E+04
  4.33860E+04  1.09915E+04  3.13482E+04  2.52124E+04  1.51815E+04  2.89520E+04 -5.18393E+03  2.70209E+04
 -2.16208E+04  1.28623E+04 -1.85470E+04 -4.94971E+03  5.77125E+03 -7.50983E+03  2.22632E+04  1.17402E+04
  7.14766E+03  3.48488E+04 -3.20572E+04  3.49794E+04 -6.28977E+04  2.08104E+03 -5.64900E+04 -4.28572E+04
 -1.22741E+04 -6.24826E+04  3.91327E+04 -4.43506E+04  5.72829E+04 -2.33146E+03  3.36925E+04  3.18691E+04
 -5.77357E+03  3.50107E+04 -2.97442E+04  1.53229E+04 -2.95885E+04 -4.42741E+03 -1.61547E+04 -1.06902E+04
 -8.29871E+03 -1.28802E+04 -7.31997E+02 -1.79142E+04  7.01790E+03 -2.27083E+04  1.58814E+04 -1.34150E+04
  1.21370E+04  4.63649E+03 -7.64731E+03  1.29538E+04 -2.07190E+04 -4.04116E+03 -8.59704E+03 -3.37575E+04
  2.19498E+04 -4.29006E+04  4.68980E+04 -1.97531E+04  4.44012E+04  1.94886E+04  1.55252E+04  4.42275E+04
 -1.65270E+04  3.30252E+04 -2.50993E+04  2.26702E+03 -9.07509E+03 -2.74755E+04  2.11667E+04 -3.29417E+04
  4.09095E+04 -8.76067E+03  3.46757E+04  2.33403E+04  1.77006E+04  4.51500E+04 -8.06366E+03  4.91265E+04
 -3.08684E+04  3.27103E+04 -4.09471E+04  8.93836E+03 -4.12291E+04 -1.55322E+04 -2.29896E+04 -3.75712E+04
  7.42735E+03 -3.63016E+04  3.05393E+04 -1.43017E+04  2.77944E+04  1.08963E+04  4.07262E+03  1.84641E+04
 -1.42919E+04  8.40348E+03 -1.01068E+04 -7.20157E+03  5.87631E+03 -1.07078E+04  1.77971E+04  6.14023E+03
  1.29494E+04  2.21410E+04 -6.51615E+03  2.46870E+04 -2.14970E+04  1.11591E+04 -2.73420E+04 -5.88774E+03
 -1.96978E+04 -1.68970E+04 -8.09610E+03 -1.99814E+04  4.32595E+03 -1.84345E+04  1.52020E+04 -1.73219E+04
  2.46677E+04 -1.27848E+04  3.19556E+04  2.23040E+03  2.26767E+04  1.88406E+04  3.78803E+03  3.57359E+04
 -1.71949E+04  2.87971E+04 -2.80204E+04  1.02525E+04 -2.07621E+04 -1.06451E+04 -3.91986E+03 -1.29766E+04
  1.88734E+03 -2.90565E+03 -4.27343E+03  6.21222E+03 -1.54118E+04  5.30190E+03 -1.62996E+04 -6.92597E+03
 -9.86571E+03 -1.81114E+04  6.16297E+03 -2.19161E+04  1.41610E+04 -1.61885E+04  1.70662E+04 -1.12484E+03
  1.02292E+04  1.23608E+04 -1.17593E+03  1.87230E+04 -1.27695E+04  1.05972E+04 -1.83094E+04 -3.80118E+03
 -1.31272E+04 -1.64962E+04 -1.51115E+03 -2.23968E+04  9.70798E+03 -1.80258E+04  1.92427E+04 -9.07629E+03
  1.73037E+04  4.10044E+02  1.18872E+04  4.38394E+03  6.53246E+03  9.91303E+02  9.84886E+03 -1.87001E+03
  1.59360E+04  2.59917E+03  1.79663E+04  1.46551E+04  1.19263E+04  2.99527E+04 -2.96573E+03  3.23116E+04
 -1.85720E+04  2.55960E+04 -3.05571E+04  1.25073E+04 -3.24309E+04 -2.91583E+03 -2.61830E+04 -1.88425E+04
 -1.14573E+04 -2.63277E+04  9.22548E+03 -2.35494E+04  2.04720E+04 -1.23219E+04  1.92060E+04  4.63549E+03
  7.44645E+03  1.33851E+04 -8.53112E+03  1.21903E+04 -1.56451E+04  2.22019E+03 -1.16314E+04 -9.69281E+03
 -5.41575E+02 -1.46539E+04  7.71369E+03 -1.15559E+04  9.33423E+03 -1.44686E+03  1.95630E+03  6.00452E+03
 -5.89311E+03  2.50122E+03 -6.22589E+03 -5.56750E+03 -2.44078E+01 -1.34730E+04  9.31847E+03 -1.32088E+04
  1.51825E+04 -6.89121E+03  1.62637E+04  2.35234E+03  1.48068E+04  1.23455E+04  7.11831E+03  1.94179E+04
 -2.78354E+03  2.13886E+04 -1.31523E+04  1.30676E+04 -1.45430E+04  3.19428E+03 -1.08760E+04 -3.44227E+03
 -5.22894E+03 -4.83485E+03 -4.89297E+02  1.10516E+03 -2.24573E+03  2.70899E+03 -5.43487E+03  4.41528E+03
 -9.99920E+03 -4.79646E+02 -1.10144E+04 -9.05991E+03 -4.49115E+03 -1.42454E+04  4.05739E+03 -9.67213E+03
  9.37441E+03 -5.16360E+03  6.26685E+03  2.80986E+03  6.91066E+02  3.86405E+03 -4.57660E+03  3.78445E+00
 -4.60812E+03 -6.59079E+03 -1.52822E+03 -9.99086E+03  5.98294E+03 -1.06953E+04  1.35997E+04 -5.34065E+03
  1.59489E+04  5.69651E+02  1.17603E+04  8.76884E+03  2.15157E+03  1.21950E+04 -5.87772E+03  1.12859E+04
 -8.43764E+03  3.29735E+03 -4.45925E+03 -2.20549E+03  1.39312E+03 -2.66790E+03  5.33471E+03 -1.15699E+03
  5.23773E+03  5.28367E+03  9.34011E+02  8.71749E+03 -6.06495E+03  8.51221E+03 -1.09655E+04  2.55857E+03
 -6.95043E+03 -5.47419E+03 -1.97861E+02 -8.72196E+03  5.33771E+03 -4.69158E+03  5.13946E+03  1.95127E+03
  8.07396E+02  5.63780E+03 -5.03132E+03  7.27002E+03 -7.94007E+03  3.35444E+03 -7.74065E+03 -2.10763E+03
 -4.66657E+03 -9.32571E+03  2.62969E+03 -1.03648E+04  8.60977E+03 -6.61415E+03  9.35605E+03  1.66806E+03
  6.60874E+03  8.13634E+03 -5.68083E+02  1.03272E+04 -7.27236E+03  5.48531E+03 -7.44863E+03 -1.49603E+03
 -7.25192E+03 -7.05410E+03 -1.47235E+03 -7.68083E+03  3.85625E+03 -6.75691E+03  4.48018E+03 -2.74130E+03
  3.51336E+03  2.13367E+02 -6.76448E+02  1.49264E+03 -4.63855E+00 -7.92103E+02  5.04369E+02 -3.42715E+03
  5.29149E+03 -2.44071E+03  9.13333E+03  1.31889E+03  8.67025E+03  5.31672E+03  6.28441E+03  1.18334E+04
 -2.80178E+03  1.35237E+04 -1.16156E+04  1.01437E+04 -1.49460E+04  1.58504E+03 -1.15303E+04 -4.16078E+03
 -6.39969E+03 -1.01844E+04 -3.38531E+02 -7.96617E+03  3.07510E+03 -4.29146E+03  3.17767E+03 -3.00601E+03
  2.09217E+03 -2.26946E+03  2.96089E+03 -3.01223E+03  4.21196E+03 -2.44297E+03  4.87484E+03 -1.06045E+02
  6.03937E+03  1.78326E+03  2.10057E+03  5.65570E+03 -2.02839E+03  5.87540E+03 -6.68420E+03  4.61404E+03
 -7.90626E+03 -1.06215E+03 -4.21359E+03 -5.66905E+03  4.91601E+02 -8.59432E+03  5.04696E+03 -8.50311E+03
  9.08576E+03 -4.91061E+03  1.06714E+04  1.13802E+03  8.01343E+03  7.45509E+03  7.67288E+02  1.00026E+04
 -4.29510E+03  8.63319E+03 -5.66754E+03  2.91810E+03 -3.90952E+03 -1.16683E+03 -1.58579E+03 -1.08064E+03
 -7.28799E+02  1.55552E+02 -1.46987E+03  2.52320E+03 -3.30028E+03  1.94019E+03 -5.78703E+03 -5.03813E+02
 -3.42660E+03 -6.08169E+03  1.16867E+02 -7.77792E+03  4.70272E+03 -6.86338E+03  7.75706E+03 -1.98058E+03
  7.38908E+03  3.90259E+03  4.19693E+03  6.11129E+03 -1.82364E+03  7.26236E+03 -4.97852E+03  4.28107E+03
 -6.49203E+03  1.17406E+03 -5.37159E+03 -4.69959E+03 -2.27488E+02 -5.47663E+03  3.61350E+03 -4.16633E+03
  4.92415E+03 -1.86365E+03  3.66051E+03  3.90689E+02  1.26714E+03  2.45053E+03  9.59275E+02  9.73091E+02
  2.13808E+03  6.42620E+02  1.84937E+03  9.79481E+02  2.10533E+03  3.61504E+03  2.16841E+03  3.84509E+03
 -2.59058E+03  5.36672E+03 -4.75101E+03  6.52261E+03 -6.27551E+03  1.56361E+03 -7.14355E+03 -2.39068E+03
 -3.71515E+03 -6.96304E+03  1.06598E+03 -7.64468E+03  4.17758E+03 -4.84956E+03  6.32776E+03 -1.17009E+03
  4.39034E+03  2.84903E+03  9.69929E+02  4.21323E+03 -2.29711E+03  2.70819E+03 -2.87672E+03 -9.45424E+02
 -8.77659E+02 -3.58394E+03  1.21820E+03 -3.17623E+03  2.72322E+03 -1.83013E+03  2.31714E+03  1.14997E+03
  1.15444E+03  1.96075E+03  1.16134E+03  2.15867E+02 -9.73716E+02  6.99153E+02  1.87807E+03 -3.05232E+02
  4.65224E+02  9.40379E+01  2.87354E+03  1.02800E+03  1.27750E+03  4.45772E+03 -4.07750E+02  5.09353E+03
 -3.33838E+03  2.84960E+03 -3.94138E+03  6.08763E+02 -3.63122E+03 -1.15998E+03 -6.49972E+02 -2.73028E+03
  4.29196E+02 -2.74884E+03  2.40677E+03 -5.88461E+02  9.62999E+02  1.20851E+03 -8.15661E+02  2.38047E+03
 -3.12151E+03  1.07398E+03 -2.77395E+03 -2.24187E+03 -1.97819E+03 -3.28950E+03  6.99881E+02 -3.74891E+03
  2.04616E+03 -2.28357E+03  2.51688E+03 -6.17266E+02  1.99038E+03  3.02639E+02  7.92489E+02  1.53405E+03
 -9.32857E+02 -1.02647E+02 -2.23305E+03 -9.70119E+02  7.97560E+01 -1.84709E+03  3.00462E+03 -2.05486E+03
  4.14008E+03  3.87823E+02  4.60586E+03  2.57677E+03  2.13552E+03  3.85832E+03 -1.31898E+03  3.74352E+03
 -2.93579E+03  1.39474E+03 -2.93501E+03 -8.78911E+02 -2.42471E+03 -2.89825E+03  6.07529E+02 -1.78956E+03
  3.78360E+03 -9.46453E+02  1.99815E+03  1.81470E+03 -8.48153E+00  2.42018E+03 -5.06297E+02  2.34372E+03
 -4.89900E+02  1.54105E+03 -9.02901E+02  5.46483E+02 -1.53564E+02  6.05908E+01 -5.93976E+02  9.40289E+02
 -1.43159E+03  1.64756E+03 -3.09429E+03  9.51583E+01 -4.44789E+03  5.66012E+02 -4.51968E+03 -2.72770E+03
 -2.55715E+03 -4.83090E+03  5.86062E+02 -5.82912E+03  3.28197E+03 -5.12959E+03  6.03116E+03 -1.96175E+03
  5.37715E+03  6.19075E+02  2.81650E+03  3.13163E+03 -8.51526E+02  4.32591E+03 -1.20556E+03  2.97791E+03
 -2.01851E+03  1.34754E+03 -1.27067E+03 -6.70225E+02 -7.50001E+02  3.92367E+01 -1.14993E+03 -5.35810E+02
 -1.92016E+03  1.39036E+02 -1.90079E+03  2.33836E+02  4.06556E+02 -1.55767E+03 -1.32765E+02 -1.79525E+03
  2.73430E+03 -1.48135E+03  1.65859E+03 -2.66115E+01  2.80099E+03  1.76044E+03  2.52610E+02  3.66659E+03
 -2.60551E+03  4.47643E+03 -4.20320E+03  1.98600E+03 -4.08686E+03 -6.26006E+01 -3.00398E+03 -3.53067E+03
 -1.90348E+03 -3.66515E+03  1.51919E+03 -3.50086E+03  2.44252E+03 -1.96714E+03  2.69227E+03 -9.39999E+01
  1.30965E+03  1.01522E+03  2.78374E+02  1.18679E+03 -5.28395E+02  7.66648E+01  2.58022E+02 -5.11956E+02
  7.86616E+02 -5.48043E+02  1.37004E+03  5.28476E+02  1.24885E+03  1.01820E+03  4.66654E+02  1.84321E+03
 -1.47339E+03  1.09734E+03 -2.01397E+03  1.52068E+02 -2.44326E+03 -1.30992E+03  5.49168E+02 -2.72613E+03
  1.85138E+03 -2.21399E+03  2.84732E+03  1.41514E+01  3.02761E+03 -4.08067E+02  1.01058E+03  2.02428E+03
  7.33759E+02  1.40767E+03 -9.44565E+02  2.49080E+03 -1.48178E+03  1.11733E+03 -1.35748E+03  1.30949E+03
 -1.01424E+03  1.68391E+01 -3.94748E+02  5.20027E+02 -1.66747E+03  3.83382E+02 -2.02103E+03 -7.93331E+02
 -2.32725E+03 -9.55106E+02 -7.07469E+02 -2.78210E+03  1.48207E+03 -2.68935E+03  2.46855E+03 -1.35755E+03
  1.86246E+03  3.34891E+02  4.76418E+02  1.40854E+03 -2.03663E+02  3.12436E+03 -2.32884E+03  1.84633E+03
