 $NMID ID='MM_0lb_SNR400_10hz_g60_49.RAW', FMTDAT='(8E13.5)'
 TRAMP=1., VOLUME=1. $END
  3.09974E+05  2.21531E+02  3.36896E+05  2.50508E+05  8.40407E+04  3.37994E+05 -1.32677E+05  2.52054E+05
 -1.91372E+05  8.39492E+04 -1.12918E+05 -3.27345E+04 -3.38380E+02 -5.09471E+04  5.31839E+04 -6.38003E+02
  3.56042E+04  5.27033E+04 -1.68497E+04  7.62327E+04 -6.17076E+04  6.42370E+04 -8.46099E+04  3.24393E+04
 -8.26923E+04 -1.14311E+04 -5.84309E+04 -5.20078E+04 -1.46039E+04 -7.08298E+04  2.88583E+04 -4.65245E+04
  4.11535E+04  4.12160E+03  1.68202E+04  4.94292E+04 -3.46373E+04  4.88763E+04 -6.78905E+04  2.06954E+02
 -5.53934E+04 -5.71874E+04 -7.54824E+03 -7.90329E+04  3.48823E+04 -5.68471E+04  5.07729E+04 -1.85290E+04
  4.52308E+04  1.09610E+04  3.42697E+04  2.66650E+04  1.63792E+04  3.07333E+04 -6.04436E+03  2.84582E+04
 -2.26155E+04  1.24190E+04 -1.76496E+04 -4.76739E+03  8.31688E+03 -6.72637E+03  2.44515E+04  1.41186E+04
  7.09236E+03  3.80039E+04 -3.41972E+04  3.70896E+04 -6.55191E+04  1.79449E+03 -5.91692E+04 -4.49845E+04
 -1.29201E+04 -6.47056E+04  4.23104E+04 -4.66686E+04  6.22198E+04 -3.06172E+03  3.69023E+04  3.52912E+04
 -4.95725E+03  3.90955E+04 -3.15337E+04  1.87488E+04 -3.38870E+04 -3.59042E+03 -1.98196E+04 -1.13275E+04
 -8.99546E+03 -1.56648E+04 -5.01272E+02 -1.92070E+04  8.26418E+03 -2.31719E+04  1.51523E+04 -1.20355E+04
  1.07554E+04  6.65640E+03 -1.10600E+04  1.22079E+04 -2.38200E+04 -7.06581E+03 -7.97695E+03 -3.80686E+04
  2.55068E+04 -4.69633E+04  5.24632E+04 -2.07170E+04  4.87252E+04  2.16172E+04  1.73967E+04  4.78531E+04
 -1.72407E+04  3.65333E+04 -2.77317E+04  3.25459E+03 -1.18516E+04 -2.89822E+04  2.15941E+04 -3.80788E+04
  4.46691E+04 -1.06846E+04  4.09274E+04  2.51026E+04  2.19252E+04  5.10885E+04 -8.29469E+03  5.66478E+04
 -3.56474E+04  3.85565E+04 -4.72556E+04  1.06272E+04 -4.79965E+04 -1.93534E+04 -2.63213E+04 -4.22874E+04
  7.76737E+03 -4.22473E+04  3.44471E+04 -1.70053E+04  3.18270E+04  1.14879E+04  5.42687E+03  2.06705E+04
 -1.39277E+04  9.25186E+03 -1.09091E+04 -7.65432E+03  5.18359E+03 -1.20886E+04  1.92069E+04  5.68289E+03
  1.50772E+04  2.28966E+04 -4.75640E+03  2.64862E+04 -2.37429E+04  1.44868E+04 -3.15112E+04 -2.48418E+03
 -2.50316E+04 -1.85024E+04 -1.26561E+04 -2.57646E+04  4.74288E+03 -2.59842E+04  1.95909E+04 -2.32242E+04
  3.17810E+04 -1.40674E+04  3.70861E+04  5.13022E+03  2.71480E+04  2.41519E+04  3.43226E+03  4.13597E+04
 -1.99262E+04  3.40588E+04 -3.08940E+04  1.22789E+04 -2.19976E+04 -9.86494E+03 -5.33362E+03 -1.28818E+04
  6.47457E+02 -1.25878E+03 -6.72125E+03  8.57833E+03 -2.10682E+04  5.21456E+03 -1.99718E+04 -9.96779E+03
 -1.20843E+04 -2.38489E+04  6.15708E+03 -2.75437E+04  1.87962E+04 -1.88591E+04  2.24528E+04 -2.57703E+03
  1.44883E+04  1.57890E+04 -1.98926E+03  2.34002E+04 -1.80607E+04  1.36066E+04 -2.36378E+04 -4.53903E+03
 -1.76727E+04 -2.14328E+04 -1.64843E+03 -2.80513E+04  1.31640E+04 -2.42787E+04  2.33217E+04 -1.20379E+04
  2.18996E+04  2.41751E+02  1.57319E+04  6.02697E+03  9.06434E+03  1.44743E+03  1.25236E+04 -2.46529E+03
  2.15370E+04  3.31588E+03  2.57257E+04  1.81970E+04  1.73436E+04  3.81789E+04 -2.31128E+03  4.49905E+04
 -2.56019E+04  3.73183E+04 -4.30537E+04  1.84660E+04 -4.45735E+04 -3.19311E+03 -3.53939E+04 -2.58362E+04
 -1.35628E+04 -3.77874E+04  1.34069E+04 -3.27972E+04  2.78085E+04 -1.49313E+04  2.38439E+04  7.24838E+03
  7.56359E+03  1.92484E+04 -1.22155E+04  1.61021E+04 -2.00754E+04  2.89684E+03 -1.52771E+04 -1.33282E+04
 -5.43640E+02 -1.92115E+04  1.04133E+04 -1.36948E+04  1.36525E+04 -6.56776E+02  2.99648E+03  8.42654E+03
 -7.90292E+03  4.35956E+03 -9.02472E+03 -6.35357E+03 -9.63387E+02 -1.73886E+04  1.19528E+04 -2.05369E+04
  2.29127E+04 -1.11477E+04  2.64285E+04  3.29553E+03  2.29116E+04  1.85064E+04  1.06961E+04  2.80850E+04
 -5.88675E+03  3.10691E+04 -2.02114E+04  1.90198E+04 -2.24079E+04  4.17997E+03 -1.59448E+04 -5.76205E+03
 -6.11046E+03 -7.05174E+03 -2.97226E+02  9.72849E+02 -2.52426E+03  2.98482E+03 -7.89041E+03  5.24694E+03
 -1.39710E+04 -9.62817E+02 -1.49189E+04 -1.12599E+04 -6.30819E+03 -1.94444E+04  6.45941E+03 -1.61701E+04
  1.37762E+04 -6.33044E+03  8.33443E+03  4.36283E+03 -4.76255E+02  6.58367E+03 -7.46395E+03 -4.26766E+02
 -7.65470E+03 -9.32311E+03 -1.36369E+03 -1.65211E+04  8.25156E+03 -1.63693E+04  1.98916E+04 -8.28647E+03
  2.34490E+04  2.24624E+03  1.73479E+04  1.47609E+04  3.28152E+03  1.88663E+04 -9.92113E+03  1.51185E+04
 -1.27331E+04  3.99181E+03 -6.48796E+03 -4.15164E+03  2.96796E+03 -3.96687E+03  8.10474E+03 -1.71113E+03
  7.38299E+03  6.34682E+03  1.74542E+03  1.23264E+04 -9.12578E+03  1.21398E+04 -1.59122E+04  2.76782E+03
 -1.12186E+04 -8.65726E+03 -6.13648E+01 -1.38871E+04  8.79485E+03 -7.29799E+03  9.26856E+03  3.05002E+03
  2.78772E+03  9.81869E+03 -7.70034E+03  1.12513E+04 -1.36283E+04  4.25213E+03 -1.30472E+04 -4.96855E+03
 -7.74014E+03 -1.55956E+04  3.87445E+03 -1.74595E+04  1.53179E+04 -1.01731E+04  1.68066E+04  2.21504E+03
  1.04419E+04  1.28367E+04 -2.17574E+03  1.60618E+04 -1.19042E+04  8.64390E+03 -1.23711E+04 -1.80554E+03
 -1.02036E+04 -1.02167E+04 -2.07483E+03 -1.26982E+04  6.12209E+03 -8.62673E+03  6.87782E+03 -3.14457E+03
  4.39472E+03  2.12204E+03 -5.92384E+02  1.18625E+03 -1.25139E+03 -3.46660E+03  2.40089E+03 -7.58658E+03
  1.13407E+04 -4.89655E+03  1.57354E+04  1.60589E+03  1.53812E+04  1.08051E+04  9.77158E+03  2.09574E+04
 -5.30828E+03  2.38669E+04 -1.90771E+04  1.64564E+04 -2.48427E+04  4.28214E+03 -2.06860E+04 -8.81817E+03
 -1.04093E+04 -1.67115E+04 -8.42763E+01 -1.47856E+04  5.17069E+03 -7.37582E+03  5.00418E+03 -5.61545E+03
  3.36908E+03 -3.81989E+03  3.64333E+03 -3.44075E+03  6.59191E+03 -4.80727E+03  7.36744E+03 -1.22703E+03
  1.08609E+04  2.30438E+03  5.87868E+03  8.70656E+03 -1.97402E+03  1.13177E+04 -1.16114E+04  7.97555E+03
 -1.38893E+04 -8.70888E+02 -9.33365E+03 -1.00685E+04 -1.66246E+03 -1.53685E+04  8.84737E+03 -1.61681E+04
  1.60929E+04 -8.43735E+03  1.96611E+04  3.09940E+03  1.27562E+04  1.32566E+04  1.17311E+03  1.76072E+04
 -7.39387E+03  1.45915E+04 -9.97210E+03  4.70122E+03 -7.46001E+03 -1.24261E+03 -3.77818E+03 -2.32297E+03
 -1.20616E+03 -3.15108E+01 -2.61763E+03  3.30798E+03 -6.11462E+03  3.25865E+03 -9.48496E+03 -6.71093E+02
 -6.85206E+03 -9.81902E+03 -1.60554E+01 -1.43965E+04  8.53670E+03 -1.29778E+04  1.38463E+04 -5.12613E+03
  1.31628E+04  6.58510E+03  6.90531E+03  1.30354E+04 -2.92671E+03  1.43903E+04 -1.02420E+04  9.04864E+03
 -1.30066E+04  3.54161E+02 -1.02567E+04 -8.56968E+03 -1.20662E+03 -1.18239E+04  6.36836E+03 -9.30370E+03
  8.36590E+03 -3.27673E+03  6.73036E+03  2.36042E+03  1.79486E+03  4.85055E+03  9.24444E+02  2.54160E+03
  3.48570E+03  5.17204E+02  3.62727E+03  2.34541E+03  3.73195E+03  4.41154E+03  3.10608E+03  7.99643E+03
 -3.22172E+03  1.04480E+04 -9.67847E+03  1.20334E+04 -1.41488E+04  3.46513E+03 -1.54102E+04 -6.19214E+03
 -7.29740E+03 -1.41110E+04  6.97476E+02 -1.49632E+04  9.30100E+03 -1.03801E+04  1.20581E+04 -2.68820E+03
  9.00788E+03  6.00803E+03  2.61489E+03  8.24783E+03 -4.13377E+03  6.21419E+03 -5.72695E+03 -1.12016E+03
 -2.89611E+03 -5.90477E+03  2.79721E+03 -6.32672E+03  6.32371E+03 -3.76740E+03  5.38787E+03  7.92547E+02
  3.32013E+03  3.12333E+03  9.26234E+02  2.33560E+03  3.74761E+02  2.47540E+03  1.97969E+03 -6.26272E+02
  2.52578E+03 -6.53500E+02  5.78210E+03  2.30995E+03  3.74024E+03  7.48982E+03 -1.55349E+03  9.71029E+03
 -6.72890E+03  6.79013E+03 -9.64796E+03  8.47128E+02 -8.19557E+03 -3.37720E+03 -3.87391E+03 -4.93985E+03
  1.40357E+03 -5.92438E+03  4.28051E+03 -2.77260E+03  3.40218E+03  2.82505E+03 -1.44287E+03  5.24591E+03
 -5.30754E+03  2.51496E+03 -6.67277E+03 -3.08998E+03 -3.62143E+03 -8.60741E+03  1.50178E+03 -7.30941E+03
  4.87363E+03 -4.55394E+03  5.84326E+03 -2.81348E+02  5.16607E+03  2.16474E+03  1.12962E+03  4.14768E+03
 -2.57207E+03  9.85546E+02 -3.35635E+03 -2.55680E+03  1.55394E+03 -6.04816E+03  7.07936E+03 -4.73919E+03
  8.28426E+03  1.38062E+02  8.26644E+03  6.54039E+03  2.66651E+03  9.13679E+03 -3.00289E+03  8.67732E+03
 -7.57782E+03  4.50919E+03 -7.69998E+03 -1.92118E+03 -4.27864E+03 -5.84325E+03  1.27637E+03 -5.35106E+03
  6.16543E+03 -2.27261E+03  4.05637E+03  2.83992E+03  2.55362E+03  4.68382E+03 -1.22797E+03  4.70915E+03
 -2.60832E+03  3.74319E+03 -2.31524E+03  1.09167E+03 -1.08234E+03  1.55421E+03 -1.00239E+03  2.37657E+03
 -2.16270E+03  3.49611E+03 -6.10299E+03  4.27471E+03 -9.04767E+03  1.23654E+02 -9.74644E+03 -5.24244E+03
 -5.03874E+03 -1.21730E+04  2.63874E+03 -1.45093E+04  8.69113E+03 -1.09789E+04  1.38723E+04 -4.04932E+03
  1.25545E+04  2.09183E+03  8.27526E+03  8.37816E+03 -2.72453E+01  1.00241E+04 -2.95091E+03  7.98935E+03
 -5.77761E+03  2.82629E+03 -2.92988E+03 -9.24893E+02 -3.58228E+02 -1.03604E+03 -7.06223E+02 -2.95549E+02
 -2.09203E+03  7.00574E+02 -2.06999E+03 -3.63095E+02 -5.20551E+01 -2.22112E+03  9.08808E+01 -3.79293E+03
  4.50504E+03 -2.38069E+03  4.92139E+03 -8.40218E+02  6.93677E+03  4.28363E+03  1.38158E+03  9.86332E+03
 -4.72562E+03  1.02312E+04 -1.07184E+04  6.90601E+03 -1.15705E+04 -1.19690E+03 -8.50061E+03 -6.77803E+03
 -4.04845E+03 -9.95380E+03  2.26886E+03 -8.43024E+03  5.98116E+03 -4.50905E+03  5.83747E+03  9.11285E+02
  3.66032E+03  3.08376E+03 -9.62794E+02  2.88719E+03 -2.69915E+03  8.21923E+01 -3.55066E+02 -2.34217E+03
  2.96348E+03 -1.19497E+03  2.82448E+03  6.52743E+02  2.17826E+03  3.79719E+03  2.47805E+02  5.13645E+03
 -4.27080E+03  4.38023E+03 -6.22886E+03  9.35042E+02 -5.87694E+03 -4.57715E+03 -6.33118E+02 -7.09384E+03
  4.17498E+03 -6.28306E+03  7.22390E+03 -1.74271E+03  7.49169E+03  1.60103E+03  4.77508E+03  6.03653E+03
  1.89473E+03  6.38035E+03 -2.62078E+03  4.14349E+03 -4.10706E+03  2.56097E+03 -2.99294E+03  8.62384E+02
 -1.80665E+03 -5.53231E+02 -1.45177E+03  5.93734E+02 -3.23808E+03  1.35546E+03 -4.57664E+03 -1.44981E+03
 -4.07200E+03 -2.95387E+03 -1.72778E+03 -6.35424E+03  2.75604E+03 -6.50047E+03  5.73153E+03 -3.50433E+03
  6.01226E+03  1.63413E+03  3.59324E+03  4.86769E+03 -5.98836E+02  6.11504E+03 -4.82811E+03  3.05739E+03
