 $NMID ID='MM_0lb_SNR400_9hz_g60_98.RAW', FMTDAT='(8E13.5)'
 TRAMP=1., VOLUME=1. $END
  3.10123E+05  1.01388E+02  3.37851E+05  2.50109E+05  8.55088E+04  3.38130E+05 -1.32731E+05  2.51692E+05
 -1.90779E+05  8.37960E+04 -1.12137E+05 -3.29119E+04  4.95434E+02 -5.03774E+04  5.40458E+04  2.31541E+01
  3.49486E+04  5.22524E+04 -1.81011E+04  7.61227E+04 -6.11463E+04  6.46786E+04 -8.54656E+04  3.23031E+04
 -8.34647E+04 -1.25445E+04 -5.93378E+04 -5.29602E+04 -1.52419E+04 -7.23542E+04  2.81744E+04 -4.70039E+04
  4.11862E+04  4.19764E+03  1.66182E+04  4.89460E+04 -3.47629E+04  4.89605E+04 -6.88252E+04 -3.58035E+02
 -5.57176E+04 -5.77861E+04 -7.53293E+03 -7.97987E+04  3.52930E+04 -5.76104E+04  5.04046E+04 -1.87398E+04
  4.60891E+04  1.12519E+04  3.33543E+04  2.73198E+04  1.59830E+04  3.05227E+04 -5.99425E+03  2.80022E+04
 -2.19475E+04  1.18979E+04 -1.78934E+04 -6.03781E+03  7.56362E+03 -6.84157E+03  2.40156E+04  1.36790E+04
  6.91612E+03  3.78186E+04 -3.44794E+04  3.68158E+04 -6.64707E+04  2.68591E+03 -5.93306E+04 -4.40146E+04
 -1.28164E+04 -6.70253E+04  4.23527E+04 -4.82748E+04  6.20579E+04 -2.59665E+03  3.68688E+04  3.45183E+04
 -5.19152E+03  4.03895E+04 -3.15488E+04  1.97288E+04 -3.33241E+04 -4.00063E+03 -1.94488E+04 -1.24497E+04
 -9.63840E+03 -1.52842E+04 -9.10413E+02 -1.97794E+04  8.51269E+03 -2.45078E+04  1.63661E+04 -1.14708E+04
  1.04235E+04  6.52471E+03 -1.08638E+04  1.26779E+04 -2.33842E+04 -6.79986E+03 -8.34600E+03 -3.82441E+04
  2.55223E+04 -4.68731E+04  5.25972E+04 -2.17563E+04  4.98243E+04  2.08495E+04  1.80884E+04  4.81453E+04
 -1.52622E+04  3.64576E+04 -2.85539E+04  3.29638E+03 -1.22583E+04 -2.95328E+04  2.13649E+04 -3.86904E+04
  4.57763E+04 -1.13924E+04  4.08022E+04  2.52344E+04  2.20050E+04  5.22783E+04 -8.72300E+03  5.79880E+04
 -3.59351E+04  3.86377E+04 -4.82915E+04  1.12571E+04 -4.83952E+04 -1.91249E+04 -2.63316E+04 -4.33448E+04
  8.02487E+03 -4.32847E+04  3.47041E+04 -1.78921E+04  3.20656E+04  1.24185E+04  6.37716E+03  2.11491E+04
 -1.36651E+04  1.01534E+04 -1.09736E+04 -7.91339E+03  5.79452E+03 -1.18394E+04  1.98797E+04  5.15075E+03
  1.49065E+04  2.33585E+04 -4.60475E+03  2.75992E+04 -2.38400E+04  1.45621E+04 -3.25371E+04 -2.92389E+03
 -2.63858E+04 -1.93017E+04 -1.33097E+04 -2.61211E+04  3.78436E+03 -2.70197E+04  2.02975E+04 -2.39436E+04
  3.32998E+04 -1.43587E+04  3.96274E+04  5.02811E+03  2.80781E+04  2.59751E+04  3.94798E+03  4.24595E+04
 -2.05285E+04  3.48648E+04 -3.15557E+04  1.20926E+04 -2.25043E+04 -9.72824E+03 -4.43142E+03 -1.25734E+04
  6.54101E+02 -5.96228E+02 -8.21428E+03  8.05868E+03 -2.15287E+04  5.60899E+03 -1.99908E+04 -9.25361E+03
 -1.27799E+04 -2.42822E+04  6.02593E+03 -2.91218E+04  1.97990E+04 -2.05201E+04  2.40303E+04 -1.33584E+03
  1.46239E+04  1.70978E+04 -1.26337E+03  2.40895E+04 -1.74819E+04  1.38600E+04 -2.47924E+04 -4.63186E+03
 -1.73667E+04 -2.17922E+04 -1.64124E+03 -2.87348E+04  1.32607E+04 -2.50874E+04  2.40367E+04 -1.21910E+04
  2.32570E+04 -2.12793E+02  1.57303E+04  5.06078E+03  9.47208E+03  1.26702E+03  1.30637E+04 -2.08261E+03
  2.33316E+04  3.38156E+03  2.67408E+04  1.98678E+04  1.88429E+04  3.94447E+04 -2.70668E+03  4.68666E+04
 -2.66447E+04  3.94086E+04 -4.36488E+04  2.06533E+04 -4.68740E+04 -3.69644E+03 -3.80880E+04 -2.80905E+04
 -1.58509E+04 -3.90683E+04  1.41528E+04 -3.38809E+04  2.85931E+04 -1.54194E+04  2.56264E+04  8.25126E+03
  9.31085E+03  1.98946E+04 -1.17630E+04  1.60080E+04 -2.02778E+04  3.22230E+03 -1.62948E+04 -1.41403E+04
 -4.96289E+02 -2.03951E+04  1.09304E+04 -1.55035E+04  1.44065E+04 -1.69231E+03  3.80413E+03  9.33777E+03
 -9.07624E+03  4.20546E+03 -9.28398E+03 -7.44703E+03 -1.73538E+03 -1.92498E+04  1.21276E+04 -2.12541E+04
  2.34350E+04 -1.14322E+04  2.78113E+04  2.65237E+03  2.41957E+04  2.00912E+04  1.07518E+04  3.13169E+04
 -5.30661E+03  3.36924E+04 -2.26344E+04  2.02728E+04 -2.33640E+04  4.28954E+03 -1.71700E+04 -5.72127E+03
 -6.59826E+03 -8.76827E+03 -1.35755E+03  4.62753E+02 -3.25109E+03  3.92390E+03 -6.93943E+03  6.32375E+03
 -1.45014E+04 -3.26142E+02 -1.61998E+04 -1.25110E+04 -5.14988E+03 -2.02534E+04  7.13216E+03 -1.65925E+04
  1.34164E+04 -6.81434E+03  1.00236E+04  4.91602E+03  4.39181E+01  6.53371E+03 -8.35817E+03 -3.15292E+02
 -7.73962E+03 -1.06279E+04 -1.36960E+03 -1.66417E+04  9.86969E+03 -1.78915E+04  2.12819E+04 -9.56854E+03
  2.47611E+04  2.70205E+03  1.79203E+04  1.40634E+04  3.49274E+03  2.03776E+04 -1.06774E+04  1.69819E+04
 -1.30344E+04  4.48626E+03 -7.09980E+03 -4.03699E+03  2.14661E+03 -5.56093E+03  8.40880E+03 -6.10479E+02
  7.82913E+03  8.27938E+03  1.08512E+03  1.37068E+04 -9.68673E+03  1.23330E+04 -1.61731E+04  3.12533E+03
 -1.16916E+04 -9.07705E+03 -1.61915E+02 -1.41100E+04  8.70597E+03 -6.77061E+03  1.03715E+04  3.89081E+03
  2.03412E+03  1.11286E+04 -9.04168E+03  1.22914E+04 -1.39750E+04  5.54350E+03 -1.51911E+04 -5.32532E+03
 -8.55723E+03 -1.65794E+04  4.38841E+03 -1.98823E+04  1.63290E+04 -1.11449E+04  1.83527E+04  3.74887E+03
  1.09757E+04  1.46124E+04 -1.64462E+03  1.63368E+04 -1.22716E+04  9.77114E+03 -1.42410E+04 -1.21959E+03
 -1.15993E+04 -1.14218E+04 -1.62412E+03 -1.20280E+04  7.07137E+03 -1.02953E+04  8.11570E+03 -4.47687E+03
  5.51050E+03  2.19921E+03 -1.70185E+03  1.58789E+03 -5.91480E+02 -4.61705E+03  3.12082E+03 -8.80014E+03
  1.18165E+04 -5.59917E+03  1.76365E+04  1.55295E+03  1.75579E+04  1.17829E+04  1.04829E+04  2.29223E+04
 -5.99976E+03  2.57826E+04 -2.09551E+04  1.82576E+04 -2.78579E+04  3.93033E+03 -2.25492E+04 -9.71483E+03
 -1.07483E+04 -1.81900E+04 -3.82373E+02 -1.61750E+04  5.07286E+03 -9.12318E+03  5.52411E+03 -6.10029E+03
  4.26440E+03 -3.15399E+03  4.32575E+03 -3.90951E+03  6.28098E+03 -3.63993E+03  8.97620E+03 -2.01360E+03
  1.18080E+04  2.07556E+03  5.97019E+03  1.00010E+04 -1.81336E+03  1.26777E+04 -1.16741E+04  9.59505E+03
 -1.59282E+04 -9.70329E+02 -1.12544E+04 -1.07909E+04 -1.11685E+03 -1.61723E+04  9.35790E+03 -1.75580E+04
  1.75340E+04 -8.54390E+03  2.04580E+04  1.79441E+03  1.49757E+04  1.55162E+04  2.21282E+03  1.86681E+04
 -8.76083E+03  1.57565E+04 -1.10592E+04  5.56312E+03 -7.03802E+03 -2.79795E+03 -3.52911E+03 -2.39376E+03
 -1.70090E+03  2.35098E+01 -1.78640E+03  3.10727E+03 -6.12464E+03  2.69197E+03 -1.13085E+04 -1.88417E+03
 -7.97856E+03 -1.00787E+04  1.65240E+02 -1.48835E+04  1.00100E+04 -1.43935E+04  1.63089E+04 -5.40483E+03
  1.57609E+04  6.58829E+03  6.69352E+03  1.44525E+04 -3.68050E+03  1.57867E+04 -1.19250E+04  9.76951E+03
 -1.57578E+04  4.21942E+02 -1.16894E+04 -1.01813E+04 -2.18599E+03 -1.35941E+04  7.20718E+03 -1.02445E+04
  1.11162E+04 -2.76220E+03  7.16510E+03  2.67856E+03  2.31110E+03  3.87442E+03  1.03177E+03  2.64131E+03
  3.28552E+03  9.55022E+02  3.97037E+03  1.94793E+03  5.04708E+03  5.22979E+03  4.09115E+03  8.73046E+03
 -3.41064E+03  1.28101E+04 -1.09917E+04  1.29599E+04 -1.71677E+04  3.58860E+03 -1.68955E+04 -6.15454E+03
 -8.58578E+03 -1.72046E+04  2.71513E+03 -1.76781E+04  9.40085E+03 -1.24429E+04  1.34514E+04 -2.92563E+03
  9.83484E+03  6.27478E+03  2.73201E+03  9.04376E+03 -4.43788E+03  5.81458E+03 -6.03944E+03 -9.19514E+02
 -2.25401E+03 -6.82857E+03  4.10398E+03 -6.86624E+03  6.75049E+03 -3.56283E+03  6.69668E+03  1.79227E+03
  3.98219E+03  3.17801E+03  1.32591E+03  2.83736E+03 -1.20012E+03  1.65258E+03  1.29238E+03 -1.18033E+03
  3.06579E+03 -1.09281E+03  5.91371E+03  3.22830E+03  4.19129E+03  8.25749E+03 -7.16554E+02  1.18767E+04
 -8.62377E+03  7.12538E+03 -1.04203E+04  1.96590E+03 -9.32190E+03 -3.30216E+03 -3.62305E+03 -6.99553E+03
  6.87062E+02 -6.08463E+03  4.71564E+03 -3.38680E+03  4.20770E+03  2.61894E+03 -1.61424E+03  5.43719E+03
 -6.54418E+03  3.04793E+03 -7.95520E+03 -4.18066E+03 -4.39805E+03 -9.45164E+03  1.97722E+03 -9.25262E+03
  6.13561E+03 -5.67817E+03  6.33170E+03 -7.70068E+02  5.74306E+03  3.14170E+03  8.73383E+02  3.96673E+03
 -3.32458E+03  9.56591E+02 -3.78716E+03 -3.14902E+03  1.49296E+03 -6.03213E+03  8.07624E+03 -6.22304E+03
  1.09862E+04  1.24056E+03  1.03147E+04  7.70138E+03  4.62869E+03  1.17656E+04 -4.60465E+03  9.82930E+03
 -9.61538E+03  4.09252E+03 -1.00422E+04 -2.90177E+03 -5.21351E+03 -7.60552E+03  2.26887E+03 -8.13281E+03
  5.84914E+03 -3.98502E+03  5.16409E+03  2.97561E+03  1.46697E+03  5.86594E+03 -1.41925E+03  4.28890E+03
 -2.94895E+03  4.22704E+03 -1.76274E+03  8.38921E+02 -6.61180E+02  8.28345E+02 -1.08028E+03  2.61530E+03
 -2.33337E+03  3.65531E+03 -7.88004E+03  2.98832E+03 -1.09719E+04 -1.08406E+02 -1.23367E+04 -7.20673E+03
 -5.99728E+03 -1.42177E+04  2.90983E+03 -1.65941E+04  1.02003E+04 -1.30958E+04  1.58442E+04 -5.27139E+03
  1.53753E+04  3.61363E+03  9.61821E+03  1.00991E+04  1.57874E+02  1.16671E+04 -4.24597E+03  8.98197E+03
 -6.67181E+03  2.96616E+03 -4.09561E+03 -1.16643E+03 -1.81415E+03 -9.65687E+02 -1.27453E+03 -7.25323E+02
 -1.72819E+03  7.87248E+02 -3.35579E+03 -1.19209E+02 -9.34716E+02 -3.35429E+03  1.86877E+02 -3.77095E+03
  4.45208E+03 -4.02764E+03  6.51123E+03 -2.21292E+02  7.31798E+03  6.99698E+03  1.85950E+03  1.15417E+04
 -5.74590E+03  1.23357E+04 -1.20534E+04  7.53010E+03 -1.39377E+04 -5.62978E+02 -1.08451E+04 -8.78745E+03
 -4.21092E+03 -1.15143E+04  3.61237E+03 -1.09831E+04  7.11545E+03 -5.95423E+03  7.63755E+03  3.11879E+01
  3.63352E+03  3.56380E+03 -7.16538E+02  3.95679E+03 -2.38885E+03 -1.04087E+02 -5.11805E+01 -3.01717E+03
  3.43385E+03 -1.01876E+03  5.28619E+03  1.65121E+03  3.68328E+03  4.19015E+03  1.41974E+02  6.32884E+03
 -4.62020E+03  5.60492E+03 -7.83369E+03  6.52645E+02 -5.96994E+03 -5.32125E+03 -1.56329E+03 -8.98326E+03
  4.72881E+03 -7.92429E+03  8.32732E+03 -3.00014E+03  9.89315E+03  2.21963E+03  5.10683E+03  7.53582E+03
  4.55020E+02  8.17335E+03 -3.16109E+03  5.70261E+03 -4.83304E+03  3.11159E+03 -3.58804E+03  3.51105E+02
 -2.11576E+03 -5.74917E+02 -2.58102E+03  1.40039E+03 -3.98169E+03  2.88779E+02 -5.53970E+03 -1.67347E+03
 -5.76055E+03 -4.18100E+03 -1.66726E+03 -8.16422E+03  3.63095E+03 -7.95985E+03  7.65927E+03 -4.03543E+03
  8.31067E+03  2.09232E+03  3.78504E+03  5.20331E+03 -8.06072E+02  6.99137E+03 -6.18187E+03  5.30227E+03
