 $NMID ID='MM_0lb_SNR400_9hz_g55_67.RAW', FMTDAT='(8E13.5)'
 TRAMP=1., VOLUME=1. $END
  3.09630E+05  1.51900E+02  3.38914E+05  2.50965E+05  8.43207E+04  3.39394E+05 -1.32542E+05  2.51957E+05
 -1.90439E+05  8.29849E+04 -1.12085E+05 -3.24995E+04  6.47482E+02 -5.08398E+04  5.39045E+04  9.57920E+01
  3.51226E+04  5.29142E+04 -1.61719E+04  7.61697E+04 -6.16559E+04  6.52237E+04 -8.57256E+04  3.25903E+04
 -8.18496E+04 -1.15928E+04 -5.85291E+04 -5.20810E+04 -1.54945E+04 -7.10609E+04  2.83385E+04 -4.68444E+04
  4.15675E+04  3.64357E+03  1.62720E+04  4.87436E+04 -3.54846E+04  4.86651E+04 -6.85950E+04  3.76354E+02
 -5.50495E+04 -5.84072E+04 -6.85680E+03 -7.92386E+04  3.53427E+04 -5.73886E+04  5.05023E+04 -1.82187E+04
  4.52363E+04  1.13743E+04  3.34091E+04  2.66912E+04  1.52515E+04  3.05639E+04 -6.66934E+03  2.86063E+04
 -2.21155E+04  1.19673E+04 -1.76891E+04 -6.13550E+03  7.24088E+03 -7.76554E+03  2.33370E+04  1.38645E+04
  7.37343E+03  3.81655E+04 -3.41703E+04  3.68552E+04 -6.58464E+04  3.07862E+03 -5.95311E+04 -4.43662E+04
 -1.20904E+04 -6.66827E+04  4.13891E+04 -4.72441E+04  6.20333E+04 -1.78262E+03  3.70931E+04  3.42014E+04
 -5.71141E+03  4.03791E+04 -3.14007E+04  1.87856E+04 -3.31180E+04 -3.78125E+03 -1.99721E+04 -1.18086E+04
 -9.15597E+03 -1.58349E+04 -4.21326E+02 -2.00717E+04  7.87782E+03 -2.29554E+04  1.65050E+04 -1.26240E+04
  9.80774E+03  6.69389E+03 -1.15935E+04  1.33023E+04 -2.38957E+04 -6.92424E+03 -8.30802E+03 -3.83595E+04
  2.49957E+04 -4.71329E+04  5.21682E+04 -2.10868E+04  4.90219E+04  2.15891E+04  1.72666E+04  4.66300E+04
 -1.69993E+04  3.65414E+04 -2.72721E+04  2.84082E+03 -1.19606E+04 -2.95552E+04  2.12991E+04 -3.72061E+04
  4.52886E+04 -1.13294E+04  4.11674E+04  2.51229E+04  2.15984E+04  5.16146E+04 -8.93027E+03  5.65374E+04
 -3.60029E+04  3.90091E+04 -4.84441E+04  1.10710E+04 -4.79103E+04 -1.90881E+04 -2.60608E+04 -4.24653E+04
  8.07381E+03 -4.25834E+04  3.40115E+04 -1.71167E+04  3.26551E+04  1.17395E+04  5.19891E+03  2.11012E+04
 -1.36647E+04  9.89932E+03 -1.19397E+04 -6.97736E+03  5.27108E+03 -1.13689E+04  1.94643E+04  5.90654E+03
  1.42934E+04  2.27742E+04 -4.94661E+03  2.76089E+04 -2.32766E+04  1.43923E+04 -3.18742E+04 -2.83053E+03
 -2.66661E+04 -1.84513E+04 -1.18782E+04 -2.51870E+04  4.30988E+03 -2.58775E+04  2.00205E+04 -2.33092E+04
  3.21316E+04 -1.44984E+04  3.88907E+04  5.45919E+03  2.77383E+04  2.50373E+04  4.00935E+03  4.16481E+04
 -1.98252E+04  3.36341E+04 -3.01787E+04  1.19070E+04 -2.31627E+04 -1.01220E+04 -5.50505E+03 -1.18409E+04
  2.66877E+02 -7.62103E+02 -7.40503E+03  8.36261E+03 -2.12072E+04  4.98013E+03 -2.08616E+04 -9.97323E+03
 -1.22320E+04 -2.39534E+04  5.53093E+03 -2.90576E+04  1.96154E+04 -2.00464E+04  2.31733E+04 -1.43623E+03
  1.51928E+04  1.68082E+04 -1.86169E+03  2.37057E+04 -1.69013E+04  1.38506E+04 -2.40825E+04 -4.49659E+03
 -1.73094E+04 -2.15332E+04 -1.75704E+03 -2.82272E+04  1.34511E+04 -2.38055E+04  2.42071E+04 -1.26849E+04
  2.16531E+04 -9.03974E+02  1.58088E+04  5.15869E+03  8.57798E+03  1.45027E+03  1.20520E+04 -2.13478E+03
  2.25520E+04  2.56568E+03  2.57746E+04  1.89451E+04  1.73565E+04  3.80342E+04 -2.48803E+03  4.49592E+04
 -2.59928E+04  3.86736E+04 -4.28089E+04  1.98599E+04 -4.57583E+04 -3.92911E+03 -3.59141E+04 -2.74745E+04
 -1.50630E+04 -3.79345E+04  1.33687E+04 -3.39961E+04  2.91360E+04 -1.56369E+04  2.43563E+04  7.87113E+03
  8.42336E+03  1.92329E+04 -1.06409E+04  1.60399E+04 -2.11154E+04  2.31405E+03 -1.64692E+04 -1.34988E+04
 -3.22105E+02 -1.98552E+04  9.96534E+03 -1.41598E+04  1.30586E+04 -1.92857E+03  4.61152E+03  9.15216E+03
 -8.75396E+03  4.68307E+03 -9.64779E+03 -7.01592E+03 -2.58963E+03 -1.92125E+04  1.19880E+04 -1.97937E+04
  2.36119E+04 -1.18994E+04  2.71821E+04  3.26510E+03  2.41066E+04  1.87193E+04  1.11768E+04  3.04974E+04
 -4.74899E+03  3.18493E+04 -2.02729E+04  1.96482E+04 -2.32557E+04  3.74745E+03 -1.56499E+04 -6.90957E+03
 -7.47578E+03 -7.21489E+03 -4.83237E+02  3.64638E+02 -2.91892E+03  3.55819E+03 -7.85981E+03  4.79372E+03
 -1.49027E+04 -1.01753E+03 -1.52547E+04 -1.19017E+04 -6.84680E+03 -1.97556E+04  6.32374E+03 -1.59721E+04
  1.30423E+04 -6.83652E+03  9.62501E+03  4.70097E+03 -3.21380E+02  6.27332E+03 -9.04715E+03 -8.05719E+01
 -8.30025E+03 -1.06491E+04 -1.49543E+03 -1.62548E+04  9.46037E+03 -1.74802E+04  2.10750E+04 -9.16518E+03
  2.49761E+04  2.30330E+03  1.76687E+04  1.52466E+04  2.49419E+03  1.98378E+04 -9.70323E+03  1.67034E+04
 -1.23641E+04  3.05794E+03 -6.35650E+03 -2.90930E+03  2.72404E+03 -5.37854E+03  9.22923E+03 -9.94887E+02
  6.94577E+03  7.20241E+03  7.14998E+02  1.26669E+04 -9.30170E+03  1.26353E+04 -1.62844E+04  2.82372E+03
 -1.09526E+04 -8.94557E+03  2.17707E+02 -1.40519E+04  9.43235E+03 -6.90735E+03  9.48873E+03  3.08227E+03
  2.66074E+03  1.09576E+04 -8.42397E+03  1.13996E+04 -1.43206E+04  4.78594E+03 -1.53426E+04 -6.26431E+03
 -6.93421E+03 -1.56750E+04  4.51799E+03 -1.86334E+04  1.60605E+04 -1.08555E+04  1.77645E+04  2.99886E+03
  1.02355E+04  1.43167E+04 -1.73014E+03  1.67825E+04 -1.15939E+04  9.36500E+03 -1.31810E+04 -1.30844E+03
 -1.10010E+04 -1.11803E+04 -1.53650E+03 -1.29367E+04  7.12209E+03 -1.02615E+04  8.20953E+03 -3.17307E+03
  4.85906E+03  1.81977E+03 -1.15803E+03  1.78080E+03 -2.05469E+02 -3.24408E+03  2.51027E+03 -7.83935E+03
  1.27419E+04 -4.76841E+03  1.68518E+04  1.21246E+03  1.60168E+04  1.13564E+04  9.49434E+03  2.25395E+04
 -4.54430E+03  2.55144E+04 -2.03456E+04  1.89180E+04 -2.70608E+04  2.07158E+03 -2.19807E+04 -9.42612E+03
 -1.04427E+04 -1.81244E+04 -7.36136E+02 -1.48622E+04  5.13674E+03 -8.47130E+03  5.52621E+03 -5.16889E+03
  4.10340E+03 -3.06250E+03  4.08729E+03 -4.07449E+03  6.15343E+03 -3.75374E+03  8.91732E+03 -6.93007E+02
  1.09919E+04  2.53298E+03  6.98620E+03  9.67907E+03 -2.60632E+03  1.18314E+04 -1.21660E+04  9.01612E+03
 -1.57177E+04 -1.33032E+03 -9.64864E+03 -1.13068E+04 -9.34672E+02 -1.63052E+04  8.88245E+03 -1.59215E+04
  1.69770E+04 -9.12648E+03  2.00432E+04  1.65743E+03  1.43558E+04  1.44604E+04  2.07967E+03  1.87415E+04
 -7.96564E+03  1.43838E+04 -1.13067E+04  6.00674E+03 -6.62801E+03 -1.31869E+03 -2.81409E+03 -2.11767E+03
 -9.12664E+02 -4.96987E+02 -2.10804E+03  3.00307E+03 -6.85317E+03  2.14289E+03 -9.22802E+03 -1.80431E+03
 -7.98024E+03 -1.07508E+04 -9.20091E+01 -1.55650E+04  8.93974E+03 -1.40885E+04  1.56612E+04 -4.58840E+03
  1.55178E+04  6.62084E+03  6.56511E+03  1.38569E+04 -3.21671E+03  1.46685E+04 -1.12941E+04  9.54474E+03
 -1.44592E+04  2.90363E+02 -1.05493E+04 -9.79657E+03 -8.59263E+02 -1.26339E+04  7.04841E+03 -9.14680E+03
  9.76432E+03 -3.08864E+03  6.63608E+03  2.25228E+03  2.58821E+03  4.66150E+03  1.47798E+03  2.40686E+03
  2.26304E+03  8.60859E+02  3.91674E+03  1.78421E+03  4.95827E+03  5.23561E+03  3.95156E+03  7.95590E+03
 -3.45138E+03  1.26085E+04 -1.10854E+04  1.23688E+04 -1.56992E+04  2.53043E+03 -1.74011E+04 -6.85689E+03
 -8.49109E+03 -1.49057E+04  2.18334E+03 -1.67912E+04  9.93946E+03 -9.46633E+03  1.32623E+04 -2.41428E+03
  9.44485E+03  5.92659E+03  1.98613E+03  8.72698E+03 -5.11802E+03  6.03011E+03 -6.56225E+03 -9.32878E+02
 -3.36105E+03 -6.48011E+03  3.33177E+03 -8.07487E+03  6.03870E+03 -2.64705E+03  6.42947E+03  9.28165E+02
  4.34539E+03  3.33071E+03  6.75313E+02  2.32179E+03 -1.06100E+03  3.02155E+03  1.63972E+03  2.35992E+01
  2.80819E+03 -4.20132E+02  7.27345E+03  2.57266E+03  3.41578E+03  7.98232E+03 -1.52967E+03  1.09567E+04
 -6.84559E+03  6.76574E+03 -1.05061E+04  1.75038E+03 -9.11170E+03 -3.09702E+03 -3.31024E+03 -6.39697E+03
  1.63413E+03 -5.94087E+03  3.97688E+03 -2.86443E+03  3.25571E+03  3.10380E+03 -1.64305E+03  5.47762E+03
 -6.55174E+03  2.23768E+03 -7.65739E+03 -3.62250E+03 -3.97071E+03 -8.54013E+03  9.50060E+02 -8.07967E+03
  5.50724E+03 -5.25727E+03  6.35115E+03 -4.16438E+02  5.31388E+03  2.04959E+03  8.53687E+02  4.47551E+03
 -3.20152E+03  2.42972E+03 -3.92512E+03 -4.05476E+03  1.11150E+03 -6.11485E+03  8.06139E+03 -5.17977E+03
  1.04521E+04  1.29381E+03  9.75150E+03  6.40969E+03  2.78036E+03  1.10323E+04 -3.85139E+03  1.00050E+04
 -9.12299E+03  4.05964E+03 -8.62210E+03 -1.85827E+03 -4.75443E+03 -7.04787E+03  9.29834E+02 -7.05743E+03
  5.44503E+03 -3.49881E+03  5.42508E+03  2.54044E+03  1.70467E+03  6.00039E+03 -6.40624E+02  5.68242E+03
 -2.38087E+03  3.13096E+03 -2.13549E+03  1.18000E+03 -8.56263E+02  1.04267E+03 -2.16890E+03  2.07248E+03
 -1.79471E+03  4.04400E+03 -7.02993E+03  3.84461E+03 -1.09683E+04  9.92282E+02 -1.17122E+04 -6.45206E+03
 -6.02595E+03 -1.37525E+04  2.97840E+03 -1.63508E+04  9.84878E+03 -1.20085E+04  1.56801E+04 -4.93146E+03
  1.36991E+04  3.43482E+03  7.70465E+03  1.02239E+04  1.33801E+03  1.10260E+04 -2.91459E+03  7.60417E+03
 -5.92738E+03  2.36172E+03 -4.02007E+03 -1.86941E+03 -6.49435E+02 -9.94344E+02 -6.00818E+02 -3.85653E+02
 -2.65985E+03  4.31412E+01 -1.77234E+03 -5.45083E+02 -9.97091E+02 -2.44771E+03  3.16764E+02 -4.10849E+03
  4.81357E+03 -3.79397E+03  6.98533E+03 -1.05696E+02  7.21810E+03  6.42225E+03  1.43914E+03  1.06707E+04
 -4.86405E+03  1.21067E+04 -1.16041E+04  7.19843E+03 -1.32394E+04 -9.02760E+02 -1.02792E+04 -7.60346E+03
 -4.52890E+03 -1.14920E+04  2.76767E+03 -1.00357E+04  6.50017E+03 -5.98776E+03  6.85172E+03  4.22620E+01
  3.73673E+03  4.26839E+03 -3.06866E+01  3.54964E+03 -1.71153E+03  7.12009E+01 -3.59940E+02 -2.53639E+03
  3.74126E+03 -1.08657E+03  4.12505E+03  1.21345E+03  3.25770E+03  4.27135E+03  3.49235E+02  5.65903E+03
 -4.48010E+03  5.18087E+03 -7.65897E+03  7.35314E+02 -7.32478E+03 -4.74862E+03 -2.32802E+03 -9.31859E+03
  5.68191E+03 -7.56322E+03  8.51245E+03 -2.10546E+03  8.00457E+03  2.31775E+03  4.74688E+03  7.26066E+03
  2.01198E+03  6.29111E+03 -3.58109E+03  7.06053E+03 -5.00865E+03  3.28265E+03 -2.97249E+03  3.96654E+02
 -2.38578E+03 -8.10936E+02 -2.04990E+03  1.14366E+03 -4.27305E+03  1.68463E+03 -5.92579E+03 -1.17600E+03
 -5.49187E+03 -3.69660E+03 -1.47615E+03 -8.10245E+03  3.10795E+03 -8.03713E+03  6.39265E+03 -4.51299E+03
  7.09580E+03  1.18020E+03  3.58013E+03  4.85124E+03 -5.39213E+02  7.03785E+03 -6.09265E+03  4.63678E+03
