 $NMID ID='MM_0lb_SNR400_7hz_g55_22.RAW', FMTDAT='(8E13.5)'
 TRAMP=1., VOLUME=1. $END
  3.10043E+05 -2.28506E+02  3.39039E+05  2.51348E+05  8.52817E+04  3.38552E+05 -1.31645E+05  2.52197E+05
 -1.91308E+05  8.39483E+04 -1.13026E+05 -3.20901E+04  3.53320E+02 -5.12571E+04  5.31240E+04 -5.37600E+02
  3.64560E+04  5.28552E+04 -1.71447E+04  7.59034E+04 -6.16229E+04  6.50479E+04 -8.56967E+04  3.20373E+04
 -8.40254E+04 -1.17926E+04 -5.86250E+04 -5.30246E+04 -1.44064E+04 -7.21886E+04  2.85245E+04 -4.72735E+04
  4.24239E+04  3.23913E+03  1.67047E+04  5.00104E+04 -3.49857E+04  4.86987E+04 -6.87398E+04  2.61151E+02
 -5.65726E+04 -5.88183E+04 -7.72565E+03 -7.97911E+04  3.54459E+04 -5.72904E+04  5.06611E+04 -1.96217E+04
  4.61844E+04  1.10541E+04  3.24545E+04  2.77422E+04  1.56983E+04  3.16289E+04 -5.79989E+03  2.75941E+04
 -2.24990E+04  1.18575E+04 -1.77873E+04 -6.48510E+03  7.98441E+03 -7.18385E+03  2.37243E+04  1.47358E+04
  7.00233E+03  3.89225E+04 -3.56772E+04  3.70959E+04 -6.69579E+04  1.24096E+03 -5.97204E+04 -4.49662E+04
 -1.24985E+04 -6.76017E+04  4.26734E+04 -4.74820E+04  6.31882E+04 -2.78760E+03  3.76288E+04  3.56280E+04
 -5.81734E+03  4.07918E+04 -3.20518E+04  2.02511E+04 -3.48019E+04 -3.82835E+03 -2.10836E+04 -1.19419E+04
 -1.06523E+04 -1.70607E+04 -8.01464E+01 -2.00735E+04  7.81729E+03 -2.33265E+04  1.59074E+04 -1.16974E+04
  1.00059E+04  7.33470E+03 -1.22580E+04  1.36228E+04 -2.44809E+04 -6.89315E+03 -8.77858E+03 -3.94623E+04
  2.65155E+04 -4.93841E+04  5.41191E+04 -2.19903E+04  5.03037E+04  2.19030E+04  1.78120E+04  4.81301E+04
 -1.81056E+04  3.76017E+04 -2.78935E+04  2.77481E+03 -1.23659E+04 -3.01719E+04  2.21395E+04 -3.86449E+04
  4.66289E+04 -1.26971E+04  4.34972E+04  2.54717E+04  2.28319E+04  5.35430E+04 -8.27462E+03  5.93784E+04
 -3.76611E+04  4.05635E+04 -5.05102E+04  1.24373E+04 -4.97852E+04 -1.95013E+04 -2.75115E+04 -4.42352E+04
  8.01820E+03 -4.41617E+04  3.56102E+04 -1.83060E+04  3.33080E+04  9.94929E+03  6.03335E+03  2.14699E+04
 -1.46445E+04  1.06688E+04 -1.19021E+04 -7.09017E+03  6.11244E+03 -1.15443E+04  1.86346E+04  5.41509E+03
  1.51846E+04  2.27186E+04 -5.34706E+03  2.82079E+04 -2.30722E+04  1.60380E+04 -3.41049E+04 -2.62979E+03
 -2.75725E+04 -1.89680E+04 -1.34341E+04 -2.73577E+04  4.51156E+03 -2.83650E+04  2.13936E+04 -2.58960E+04
  3.57386E+04 -1.38994E+04  4.07581E+04  5.74422E+03  2.79940E+04  2.72736E+04  4.68288E+03  4.43537E+04
 -2.06448E+04  3.47434E+04 -3.22897E+04  1.33111E+04 -2.36586E+04 -1.03025E+04 -5.88300E+03 -1.13528E+04
 -2.30522E+02 -3.77954E+02 -9.23272E+03  9.01868E+03 -2.26589E+04  4.92884E+03 -2.17849E+04 -1.06720E+04
 -1.34189E+04 -2.60344E+04  6.58520E+03 -2.98710E+04  2.02448E+04 -2.11465E+04  2.49473E+04 -1.73148E+03
  1.58891E+04  1.73415E+04 -1.78975E+03  2.59480E+04 -1.97267E+04  1.55993E+04 -2.49349E+04 -5.35975E+03
 -1.87262E+04 -2.32721E+04 -2.61749E+03 -3.01947E+04  1.33094E+04 -2.53897E+04  2.49879E+04 -1.33345E+04
  2.46877E+04 -9.77442E+02  1.74751E+04  5.92028E+03  9.70491E+03  1.74477E+03  1.41073E+04 -2.23401E+03
  2.53444E+04  4.08822E+03  2.96674E+04  1.96477E+04  2.00257E+04  4.23790E+04 -2.43003E+03  4.94245E+04
 -2.88427E+04  4.14919E+04 -4.70342E+04  2.26542E+04 -5.10675E+04 -3.97387E+03 -4.09556E+04 -2.94437E+04
 -1.61564E+04 -4.25514E+04  1.58465E+04 -3.62926E+04  3.12728E+04 -1.66296E+04  2.73772E+04  9.51509E+03
  8.93912E+03  2.14610E+04 -1.29374E+04  1.76166E+04 -2.28831E+04  1.51636E+03 -1.53408E+04 -1.44893E+04
 -1.15788E+02 -2.11662E+04  1.08150E+04 -1.64281E+04  1.50221E+04 -1.68718E+03  4.72692E+03  1.00884E+04
 -9.60110E+03  5.35404E+03 -1.07910E+04 -8.48783E+03 -2.19044E+03 -2.15037E+04  1.36896E+04 -2.27499E+04
  2.65761E+04 -1.32379E+04  3.07813E+04  3.50735E+03  2.69315E+04  2.01778E+04  1.18425E+04  3.35835E+04
 -7.27600E+03  3.65922E+04 -2.39398E+04  2.24024E+04 -2.64590E+04  4.55442E+03 -1.80548E+04 -6.27804E+03
 -6.83703E+03 -8.57938E+03 -3.02597E+02  8.05011E+02 -3.04849E+03  4.63915E+03 -9.63108E+03  6.39370E+03
 -1.61048E+04 -1.97357E+03 -1.69614E+04 -1.34155E+04 -6.56005E+03 -2.23368E+04  7.53669E+03 -1.87949E+04
  1.48367E+04 -8.01445E+03  1.03510E+04  4.67439E+03 -3.76465E+01  7.75676E+03 -9.51809E+03 -8.25145E+02
 -9.62550E+03 -1.19647E+04 -5.56450E+02 -1.87433E+04  1.06135E+04 -1.83761E+04  2.40006E+04 -1.07626E+04
  2.75585E+04  3.43708E+03  2.03392E+04  1.72233E+04  3.10240E+03  2.38774E+04 -1.04476E+04  1.83133E+04
 -1.41512E+04  5.92589E+03 -7.39498E+03 -5.66651E+03  2.87446E+03 -5.70416E+03  9.30089E+03 -1.49005E+03
  8.93143E+03  8.80735E+03  1.06160E+02  1.40511E+04 -1.08939E+04  1.46417E+04 -1.84920E+04  3.60715E+03
 -1.28909E+04 -1.00861E+04 -1.30216E+02 -1.49453E+04  1.03902E+04 -7.50772E+03  1.22092E+04  4.00724E+03
  3.01483E+03  1.28302E+04 -9.98420E+03  1.36041E+04 -1.61327E+04  6.11955E+03 -1.68861E+04 -6.61486E+03
 -9.85602E+03 -1.89117E+04  4.20563E+03 -2.26816E+04  1.87414E+04 -1.35674E+04  2.05581E+04  4.16058E+03
  1.27682E+04  1.62065E+04 -1.28633E+03  1.96026E+04 -1.48681E+04  1.06655E+04 -1.49254E+04 -2.63640E+03
 -1.16167E+04 -1.27327E+04 -2.84715E+03 -1.43713E+04  8.30505E+03 -1.12745E+04  9.85167E+03 -4.27716E+03
  5.69896E+03  2.75565E+03 -1.85590E+03  2.82809E+03 -4.49827E+02 -4.13866E+03  3.96018E+03 -9.10519E+03
  1.45449E+04 -6.70419E+03  2.05734E+04  2.74218E+03  1.89119E+04  1.44448E+04  1.15561E+04  2.58682E+04
 -6.56375E+03  3.03256E+04 -2.53444E+04  2.18687E+04 -3.25644E+04  4.89216E+03 -2.55218E+04 -1.17650E+04
 -1.28594E+04 -2.09368E+04  1.69083E+02 -1.84379E+04  6.04877E+03 -1.06002E+04  6.67402E+03 -5.16960E+03
  4.49629E+03 -3.93500E+03  4.26879E+03 -4.65406E+03  6.73538E+03 -4.14834E+03  9.66847E+03 -1.78287E+03
  1.24715E+04  3.17740E+03  7.54738E+03  1.15078E+04 -2.44612E+03  1.48719E+04 -1.41256E+04  1.13251E+04
 -1.87664E+04 -2.14665E+03 -1.35394E+04 -1.33819E+04 -2.34120E+03 -2.03720E+04  9.71667E+03 -1.97519E+04
  2.11806E+04 -1.12828E+04  2.47305E+04  3.21482E+03  1.63607E+04  1.76279E+04  1.68363E+03  2.35383E+04
 -9.39322E+03  1.73896E+04 -1.29150E+04  5.51695E+03 -8.90060E+03 -1.85178E+03 -4.93841E+03 -2.86843E+03
 -2.15529E+03 -7.79543E+01 -2.38296E+03  3.46495E+03 -6.71723E+03  2.93930E+03 -1.19286E+04 -1.94780E+03
 -9.60821E+03 -1.29259E+04 -3.45778E+02 -1.95753E+04  1.11478E+04 -1.73200E+04  2.01268E+04 -5.36992E+03
  1.92031E+04  9.52511E+03  8.78688E+03  1.78837E+04 -3.92526E+03  1.95351E+04 -1.44192E+04  1.19617E+04
 -1.84186E+04  1.02586E+03 -1.40379E+04 -1.25213E+04 -7.96335E+02 -1.68649E+04  9.06821E+03 -1.16852E+04
  1.15017E+04 -3.25046E+03  7.52229E+03  3.56331E+03  3.41529E+03  6.15991E+03  1.90894E+03  3.13481E+03
  3.57206E+03  1.16238E+03  4.73156E+03  2.09562E+03  5.76069E+03  6.54374E+03  5.59263E+03  1.02831E+04
 -3.54949E+03  1.53715E+04 -1.33590E+04  1.53705E+04 -2.10228E+04  4.11820E+03 -2.14195E+04 -9.31562E+03
 -1.00927E+04 -1.96808E+04  3.15008E+03 -2.25240E+04  1.28314E+04 -1.44189E+04  1.67831E+04 -3.61643E+03
  1.29645E+04  7.99949E+03  3.59064E+03  1.14462E+04 -5.42850E+03  7.64603E+03 -9.31047E+03 -1.05193E+03
 -4.65348E+03 -9.48396E+03  3.94569E+03 -9.12774E+03  8.93319E+03 -4.16047E+03  8.45010E+03  1.78164E+03
  5.56236E+03  4.53910E+03  1.90253E+03  4.71479E+03 -7.92941E+02  2.56897E+03  3.09562E+03 -5.85635E+02
  3.56990E+03 -1.08043E+03  7.46768E+03  2.99444E+03  5.47291E+03  1.10287E+04 -1.84225E+03  1.45109E+04
 -9.80003E+03  1.07005E+04 -1.41317E+04  2.54464E+03 -1.16427E+04 -4.24361E+03 -5.03490E+03 -7.97844E+03
  8.12014E+02 -7.99089E+03  5.17338E+03 -2.97181E+03  4.35965E+03  3.56981E+03 -1.88571E+03  7.10452E+03
 -8.19524E+03  3.93473E+03 -1.02483E+04 -4.33406E+03 -5.83595E+03 -1.19385E+04  1.70243E+03 -1.23351E+04
  7.37014E+03 -7.12213E+03  8.61831E+03 -5.67546E+02  6.42951E+03  3.94745E+03  1.57298E+03  6.90528E+03
 -4.22218E+03  1.37995E+03 -5.21442E+03 -4.64441E+03  2.08735E+03 -8.66396E+03  1.08778E+04 -7.99868E+03
  1.44087E+04  7.63204E+02  1.28682E+04  8.57843E+03  3.66181E+03  1.46435E+04 -4.74851E+03  1.26907E+04
 -1.12823E+04  7.24142E+03 -1.16004E+04 -1.16175E+03 -5.81962E+03 -7.98852E+03  1.98028E+03 -8.31151E+03
  8.10924E+03 -3.70130E+03  8.17488E+03  3.36248E+03  2.33896E+03  7.90436E+03 -1.81828E+03  6.77035E+03
 -3.81245E+03  4.09792E+03 -3.45738E+03  1.68453E+03 -1.09135E+03  1.34163E+03 -1.80788E+03  2.28578E+03
 -3.49342E+03  5.02646E+03 -8.78221E+03  5.27875E+03 -1.44578E+04 -1.00689E+02 -1.54760E+04 -9.27569E+03
 -7.95707E+03 -1.90157E+04  3.74764E+03 -2.16855E+04  1.52314E+04 -1.65834E+04  2.06750E+04 -6.80524E+03
  1.93061E+04  3.77365E+03  1.22513E+04  1.24146E+04  1.56145E+03  1.60275E+04 -5.88124E+03  1.09547E+04
 -7.51590E+03  3.96906E+03 -5.97117E+03 -1.22060E+03 -1.79297E+03 -1.27466E+03 -4.92070E+02 -1.50125E+02
 -1.96887E+03  1.29896E+03 -3.42387E+03 -3.25268E+02 -1.33582E+03 -4.42091E+03  2.87418E+02 -5.47694E+03
  6.81215E+03 -4.80334E+03  9.17997E+03 -1.54046E+03  1.06972E+04  8.28496E+03  4.11575E+03  1.47394E+04
 -7.41920E+03  1.67084E+04 -1.74096E+04  9.58714E+03 -1.86113E+04 -1.31198E+03 -1.39972E+04 -1.20912E+04
 -5.67325E+03 -1.59927E+04  3.73970E+03 -1.48532E+04  1.00429E+04 -8.19344E+03  1.11194E+04 -1.89043E+01
  6.09456E+03  4.89764E+03 -7.22505E+02  4.24745E+03 -2.37356E+03 -5.76472E+02 -4.68780E+02 -4.08228E+03
  5.40277E+03 -3.16298E+03  6.72653E+03  2.47748E+03  4.44207E+03  6.02937E+03  1.02776E+03  8.78868E+03
 -8.22545E+03  7.13170E+03 -1.01167E+04  1.15989E+03 -9.44480E+03 -7.34841E+03 -1.16094E+03 -1.28993E+04
  7.64459E+03 -1.14689E+04  1.25320E+04 -3.04263E+03  1.22807E+04  3.62792E+03  6.83792E+03  9.32612E+03
  9.40150E+02  1.11193E+04 -3.53585E+03  8.95575E+03 -7.23086E+03  4.45556E+03 -4.91429E+03 -2.71370E+02
 -2.91481E+03 -3.69726E+02 -3.05300E+03  1.16505E+03 -6.52658E+03  1.57326E+03 -8.60487E+03 -1.73359E+03
 -6.94389E+03 -5.50400E+03 -2.83767E+03 -1.09062E+04  4.51734E+03 -1.14242E+04  9.80679E+03 -5.65542E+03
  9.42421E+03  1.95961E+03  5.56847E+03  7.70452E+03 -9.57667E+02  1.12940E+04 -8.45124E+03  6.82897E+03
