 $NMID ID='MM_0lb_SNR400_15hz_g45_43.RAW', FMTDAT='(8E13.5)'
 TRAMP=1., VOLUME=1. $END
  3.09857E+05  6.66752E+01  3.37417E+05  2.50489E+05  8.44178E+04  3.37650E+05 -1.32805E+05  2.50478E+05
 -1.90149E+05  8.24230E+04 -1.11012E+05 -3.28301E+04  1.01730E+03 -5.06537E+04  5.31485E+04 -5.02592E+01
  3.57419E+04  5.27931E+04 -1.69192E+04  7.52469E+04 -6.07409E+04  6.36405E+04 -8.43085E+04  3.23151E+04
 -8.06041E+04 -1.10774E+04 -5.61882E+04 -5.08439E+04 -1.54307E+04 -6.88488E+04  2.68129E+04 -4.55510E+04
  4.00619E+04  4.35739E+03  1.55633E+04  4.69986E+04 -3.39738E+04  4.72730E+04 -6.65941E+04 -6.63758E+01
 -5.29479E+04 -5.70607E+04 -6.63826E+03 -7.68329E+04  3.40733E+04 -5.48786E+04  4.75086E+04 -1.73015E+04
  4.24310E+04  1.08763E+04  3.14432E+04  2.49443E+04  1.55484E+04  2.88678E+04 -4.90255E+03  2.72255E+04
 -2.18634E+04  1.25183E+04 -1.89798E+04 -4.65119E+03  5.00974E+03 -7.67138E+03  2.19424E+04  1.19524E+04
  7.61054E+03  3.47380E+04 -3.21775E+04  3.48481E+04 -6.19565E+04  2.30174E+03 -5.64963E+04 -4.21234E+04
 -1.15359E+04 -6.28478E+04  4.00652E+04 -4.38788E+04  5.75958E+04 -1.98211E+03  3.29692E+04  3.09999E+04
 -6.41173E+03  3.54152E+04 -2.96476E+04  1.47565E+04 -2.91924E+04 -4.84263E+03 -1.57257E+04 -1.05524E+04
 -7.79451E+03 -1.34992E+04 -9.89558E+02 -1.77469E+04  7.46133E+03 -2.27956E+04  1.51607E+04 -1.39656E+04
  1.17095E+04  4.81915E+03 -7.61407E+03  1.31492E+04 -2.09140E+04 -4.04094E+03 -8.82790E+03 -3.27505E+04
  2.19540E+04 -4.26260E+04  4.69959E+04 -1.93448E+04  4.39207E+04  1.92721E+04  1.50798E+04  4.35259E+04
 -1.56065E+04  3.25522E+04 -2.41265E+04  1.03368E+03 -9.16075E+03 -2.77242E+04  2.08863E+04 -3.26146E+04
  4.00638E+04 -8.40468E+03  3.43649E+04  2.34659E+04  1.71653E+04  4.51147E+04 -7.96812E+03  4.88692E+04
 -3.03353E+04  3.20413E+04 -4.06020E+04  9.24610E+03 -4.07149E+04 -1.58762E+04 -2.24703E+04 -3.65647E+04
  7.27509E+03 -3.69653E+04  3.12160E+04 -1.39970E+04  2.86715E+04  1.12126E+04  4.08263E+03  1.90134E+04
 -1.27414E+04  8.37419E+03 -1.02951E+04 -8.02019E+03  6.07678E+03 -1.04491E+04  1.73950E+04  6.33274E+03
  1.35476E+04  2.13969E+04 -6.10323E+03  2.41781E+04 -2.20558E+04  1.06357E+04 -2.75419E+04 -5.22034E+03
 -1.96159E+04 -1.69983E+04 -7.56552E+03 -1.95047E+04  4.00819E+03 -1.76365E+04  1.44405E+04 -1.67476E+04
  2.47616E+04 -1.27359E+04  3.14004E+04  1.85569E+03  2.28304E+04  1.87846E+04  4.17748E+03  3.49447E+04
 -1.74620E+04  2.93017E+04 -2.73815E+04  1.03994E+04 -2.00525E+04 -9.64818E+03 -3.74876E+03 -1.34979E+04
  1.74135E+03 -3.49584E+03 -4.00995E+03  6.10519E+03 -1.53751E+04  5.12058E+03 -1.53966E+04 -5.66200E+03
 -9.73676E+03 -1.78689E+04  5.27906E+03 -2.16525E+04  1.45466E+04 -1.47707E+04  1.64508E+04 -1.54607E+03
  1.06672E+04  1.21522E+04 -1.27544E+03  1.78119E+04 -1.23847E+04  1.02141E+04 -1.80198E+04 -3.69523E+03
 -1.34143E+04 -1.62115E+04 -1.41232E+03 -2.15582E+04  9.54891E+03 -1.76940E+04  1.81984E+04 -8.89495E+03
  1.66082E+04  1.03386E+01  1.12821E+04  3.49146E+03  6.01769E+03  9.53777E+02  9.08834E+03 -1.43473E+03
  1.63728E+04  2.98412E+03  1.83264E+04  1.45380E+04  1.13279E+04  2.85064E+04 -2.12038E+03  3.21238E+04
 -1.89032E+04  2.50297E+04 -2.90265E+04  1.23123E+04 -3.06742E+04 -2.19714E+03 -2.57297E+04 -1.79170E+04
 -1.12656E+04 -2.52308E+04  8.06327E+03 -2.28175E+04  2.00701E+04 -1.21390E+04  1.80481E+04  5.15227E+03
  6.50658E+03  1.31205E+04 -8.62586E+03  1.18487E+04 -1.51318E+04  2.29796E+03 -1.12207E+04 -9.49708E+03
  8.74908E+01 -1.46227E+04  7.74566E+03 -1.09082E+04  9.35362E+03 -1.09237E+03  2.30589E+03  5.30174E+03
 -7.01741E+03  2.26016E+03 -5.22167E+03 -5.13216E+03 -6.95427E+02 -1.26973E+04  8.94120E+03 -1.27909E+04
  1.50086E+04 -6.70833E+03  1.62055E+04  2.90031E+03  1.39716E+04  1.20343E+04  5.98454E+03  1.79296E+04
 -2.89172E+03  2.05919E+04 -1.23644E+04  1.31239E+04 -1.43267E+04  3.52825E+03 -1.04065E+04 -2.89685E+03
 -5.46280E+03 -4.74396E+03 -7.74703E+02  9.83398E+02 -2.43511E+03  2.44714E+03 -5.73292E+03  4.43274E+03
 -1.02623E+04 -5.04235E+02 -1.06300E+04 -8.34920E+03 -4.11057E+03 -1.33902E+04  4.44302E+03 -1.02524E+04
  8.78346E+03 -4.54788E+03  6.16908E+03  2.25107E+03  1.06317E+02  4.33946E+03 -5.04348E+03 -2.31040E+02
 -4.63630E+03 -6.70266E+03 -1.26088E+03 -9.02485E+03  5.18042E+03 -9.69554E+03  1.26030E+04 -5.16650E+03
  1.47550E+04  1.04378E+03  1.08157E+04  8.74773E+03  2.39429E+03  1.10572E+04 -5.59675E+03  1.05713E+04
 -8.57736E+03  3.38169E+03 -4.02429E+03 -2.21858E+03  1.58576E+03 -2.76145E+03  6.03020E+03 -1.21397E+03
  5.43987E+03  3.71323E+03  1.42427E+03  8.47147E+03 -6.12849E+03  8.02804E+03 -1.03627E+04  1.37922E+03
 -6.36166E+03 -4.41894E+03 -2.81848E+02 -8.96124E+03  4.75206E+03 -4.31344E+03  4.78013E+03  1.70046E+03
  1.22446E+03  5.22183E+03 -4.91200E+03  6.30263E+03 -6.93170E+03  2.97976E+03 -7.06044E+03 -2.76211E+03
 -3.86525E+03 -8.86119E+03  2.11001E+03 -9.89228E+03  8.89057E+03 -6.24507E+03  9.07772E+03  1.54541E+03
  5.40163E+03  7.61264E+03 -4.82395E+02  9.92697E+03 -6.85523E+03  4.87813E+03 -6.64891E+03 -7.26107E+02
 -6.87979E+03 -6.17185E+03 -1.33014E+03 -7.30072E+03  4.16328E+03 -5.55791E+03  3.88172E+03 -3.05760E+03
  3.71548E+03  5.62008E+02 -2.14353E+02  1.25613E+03  6.68781E+02 -1.59408E+03  1.42264E+03 -3.03869E+03
  5.62605E+03 -2.01449E+03  7.39010E+03  5.32089E+02  8.41575E+03  4.91269E+03  6.75643E+03  1.04802E+04
 -2.04528E+03  1.23409E+04 -1.03602E+04  8.81623E+03 -1.34825E+04  2.24303E+03 -1.09432E+04 -4.84506E+03
 -6.10168E+03 -9.17090E+03 -5.01569E+02 -7.49379E+03  3.44728E+03 -3.26006E+03  2.47513E+03 -2.72882E+03
  2.22146E+03 -2.22672E+03  2.48891E+03 -2.74689E+03  4.04886E+03 -1.56020E+03  5.39412E+03 -3.31189E+02
  6.04253E+03  1.72253E+03  2.08854E+03  4.38266E+03 -1.55389E+03  4.61756E+03 -6.31887E+03  4.78930E+03
 -6.90246E+03 -1.32788E+03 -3.06468E+03 -5.26364E+03  2.31412E+02 -7.22903E+03  4.48804E+03 -8.40976E+03
  7.94256E+03 -4.30946E+03  9.66318E+03  5.23980E+02  7.11170E+03  6.66951E+03  1.24382E+03  8.44739E+03
 -3.14736E+03  8.11378E+03 -4.68578E+03  2.82626E+03 -3.39089E+03 -2.35954E+03 -7.38121E+02 -7.65171E+02
 -9.20348E+02  1.46779E+02 -8.19325E+02  1.90598E+03 -4.11037E+03  1.62886E+03 -5.60559E+03 -5.69067E+02
 -3.19305E+03 -5.17339E+03  5.92705E+02 -6.84215E+03  4.51788E+03 -5.89572E+03  6.30375E+03 -1.44321E+03
  6.64420E+03  3.45958E+03  3.05258E+03  5.52158E+03 -1.13853E+03  6.90911E+03 -4.02307E+03  4.78822E+03
 -6.40589E+03  3.51782E+02 -5.25343E+03 -4.17961E+03 -1.13125E+02 -5.30679E+03  3.06436E+03 -4.15461E+03
  3.79143E+03 -1.59135E+03  2.90631E+03  9.88877E+02  7.87699E+02  2.38744E+03  6.82003E+02  9.06062E+02
  2.07028E+03  8.95617E+02  2.11404E+03  8.72771E+02  1.65744E+03  2.36911E+03  1.70196E+03  2.91448E+03
 -1.68338E+03  5.28755E+03 -4.28532E+03  6.33601E+03 -5.96599E+03  1.78351E+03 -6.08860E+03 -1.17830E+03
 -3.23488E+03 -6.13485E+03  2.96492E+02 -7.78959E+03  3.80051E+03 -4.23971E+03  5.18816E+03 -1.37798E+03
  4.30443E+03  2.58677E+03  9.57566E+02  3.48509E+03 -1.49660E+03  1.72105E+03 -2.38413E+03 -2.02365E+02
 -1.44854E+03 -2.49580E+03  1.21338E+03 -2.87573E+03  2.89900E+03 -1.28699E+03  2.36161E+03  4.75022E+02
  1.21679E+03  5.05000E+02  1.12673E+03  4.06995E+02 -6.43924E+02  1.40847E+03  1.43432E+03 -8.41718E+02
  7.77037E+02 -4.55941E+02  3.52148E+03  6.25295E+02  1.27419E+03  3.38714E+03 -8.27874E+02  4.64315E+03
 -3.19037E+03  2.78357E+03 -3.11287E+03  3.03235E+02 -3.11235E+03 -1.16551E+03 -1.01842E+03 -2.20039E+03
  7.01721E+02 -1.93229E+03  1.60504E+03 -9.97274E+02  1.05000E+03  1.57230E+03 -1.20329E+03  1.80656E+03
 -2.15346E+03  9.59084E+02 -2.90907E+03 -1.59086E+03 -7.68572E+02 -3.60791E+03  6.01044E+02 -3.43170E+03
  1.13644E+03 -1.28486E+03  1.79944E+03 -3.82418E+02  2.22623E+03  1.52120E+02  1.21914E+02  1.54003E+03
 -9.47354E+02  2.20004E+01 -1.58918E+03 -7.52230E+02  4.68698E+02 -2.28813E+03  2.89531E+03 -1.68559E+03
  2.70876E+03  8.53766E+02  4.19790E+03  1.78589E+03  2.05710E+03  3.28471E+03 -1.41441E+03  3.71823E+03
 -2.59237E+03  8.60291E+02 -3.25931E+03 -8.44099E+02 -1.71271E+03 -2.00942E+03  7.58777E+02 -1.71325E+03
  2.56521E+03 -7.16768E+02  2.03354E+03  6.78875E+02  6.12706E+02  1.79992E+03 -1.29243E+02  2.09884E+03
 -9.20127E+02  1.50805E+03 -9.49367E+02  1.03196E+03 -5.54952E+02  4.11064E+02 -1.15374E+03  9.01741E+02
 -2.33757E+02  1.60851E+03 -1.87324E+03  8.94853E+02 -3.90152E+03  1.85187E+02 -4.42893E+03 -1.96008E+03
 -1.16457E+03 -4.41605E+03  7.17207E+02 -5.43884E+03  2.14923E+03 -3.88097E+03  4.73526E+03 -1.58970E+03
  4.39034E+03  1.32486E+02  2.78902E+03  3.42617E+03 -6.83661E+02  3.59748E+03 -1.34831E+03  2.57626E+03
 -2.17413E+03  1.22066E+03 -9.68320E+02 -9.36374E+02 -4.16053E+01  2.39286E+02 -6.23400E+02 -2.01103E+01
 -1.19479E+03  3.88712E+02 -9.61083E+02  9.78676E+01  5.10687E+01 -6.57793E+02 -3.83982E+02 -1.52924E+03
  2.56243E+03 -1.15878E+03  1.17993E+03 -1.85824E+02  1.94725E+03  2.06445E+03 -2.35243E+01  3.09685E+03
 -1.63735E+03  4.42498E+03 -3.42099E+03  2.03607E+03 -3.48663E+03  1.54089E+02 -2.95977E+03 -2.31388E+03
 -1.37506E+03 -2.97577E+03  7.63810E+02 -3.21993E+03  1.82986E+03 -1.98346E+03  1.83976E+03  4.38126E+01
  1.16154E+03  9.85027E+02  3.73517E+02  5.29766E+02 -1.28650E+03  4.62678E+02  2.70818E+02 -5.24911E+02
  9.62569E+02  1.15139E+02  7.72097E+02  1.79372E+02  1.32270E+03  9.89997E+02 -3.80604E+02  1.40374E+03
 -7.54396E+02  1.04553E+03 -1.85394E+03  1.68966E+02 -1.98398E+03 -1.78090E+03  5.25374E+02 -2.63203E+03
  8.63961E+02 -1.88066E+03  1.52809E+03  4.82605E+02  2.20656E+03 -4.37753E+02  1.45636E+03  2.32903E+03
  4.87992E+02  1.16814E+03 -8.84610E+02  1.21928E+03 -1.12800E+03  1.01020E+03 -8.80784E+02 -1.34865E+02
 -6.28766E+02  1.25540E+02 -3.41478E+02  3.45935E+02 -1.07268E+03 -1.77415E+02 -1.75298E+03 -5.70616E+02
 -1.59728E+03 -3.72337E+02 -7.31428E+02 -1.98966E+03  1.19940E+03 -2.48505E+03  1.40250E+03 -9.69061E+02
  2.20408E+03  7.13102E+02  4.30449E+02  9.89966E+02 -1.15340E+02  1.85482E+03 -1.14326E+03  1.40052E+03
