 $NMID ID='MM_0lb_SNR400_14hz_g40_33.RAW', FMTDAT='(8E13.5)'
 TRAMP=1., VOLUME=1. $END
  3.09963E+05  7.40910E+02  3.37793E+05  2.50626E+05  8.44028E+04  3.37279E+05 -1.32435E+05  2.50430E+05
 -1.89670E+05  8.29583E+04 -1.11093E+05 -3.30245E+04  8.07884E+02 -5.04290E+04  5.40704E+04 -5.72034E+02
  3.56442E+04  5.31673E+04 -1.65100E+04  7.53204E+04 -6.03668E+04  6.32264E+04 -8.47463E+04  3.17348E+04
 -8.06812E+04 -1.17303E+04 -5.75844E+04 -5.10182E+04 -1.41563E+04 -6.96636E+04  2.68199E+04 -4.51278E+04
  3.99441E+04  3.68091E+03  1.56296E+04  4.80296E+04 -3.42776E+04  4.66250E+04 -6.67181E+04 -7.16812E+02
 -5.31988E+04 -5.67143E+04 -6.87564E+03 -7.61149E+04  3.41047E+04 -5.43970E+04  4.73855E+04 -1.68826E+04
  4.30207E+04  1.20147E+04  3.19032E+04  2.52901E+04  1.55074E+04  2.88561E+04 -5.07464E+03  2.74184E+04
 -2.20601E+04  1.27113E+04 -1.91017E+04 -4.86541E+03  5.06174E+03 -7.47998E+03  2.19985E+04  1.17731E+04
  6.86990E+03  3.44289E+04 -3.18794E+04  3.47680E+04 -6.20314E+04  2.08919E+03 -5.67336E+04 -4.22849E+04
 -1.26341E+04 -6.22017E+04  3.96419E+04 -4.47834E+04  5.73663E+04 -2.47368E+03  3.36635E+04  3.23440E+04
 -6.42010E+03  3.56596E+04 -2.92610E+04  1.56507E+04 -2.94150E+04 -4.15398E+03 -1.56268E+04 -1.02866E+04
 -8.36471E+03 -1.29032E+04 -7.24747E+02 -1.76901E+04  7.26135E+03 -2.21530E+04  1.54430E+04 -1.38737E+04
  1.13455E+04  4.85208E+03 -7.50352E+03  1.28258E+04 -2.10216E+04 -4.21860E+03 -8.14184E+03 -3.26145E+04
  2.24592E+04 -4.22934E+04  4.67493E+04 -1.96158E+04  4.46716E+04  1.90936E+04  1.54137E+04  4.30050E+04
 -1.56314E+04  3.28379E+04 -2.46148E+04  1.97154E+03 -9.94064E+03 -2.70495E+04  2.07304E+04 -3.32482E+04
  4.03809E+04 -7.98351E+03  3.40536E+04  2.29433E+04  1.78046E+04  4.56830E+04 -8.04093E+03  4.92005E+04
 -3.04457E+04  3.20728E+04 -4.05004E+04  9.62243E+03 -4.16304E+04 -1.62645E+04 -2.24432E+04 -3.71337E+04
  7.27556E+03 -3.68633E+04  3.10860E+04 -1.39492E+04  2.91822E+04  1.10218E+04  3.91414E+03  1.95630E+04
 -1.33698E+04  8.15646E+03 -1.05764E+04 -7.87078E+03  5.76942E+03 -1.02553E+04  1.75358E+04  6.39113E+03
  1.35500E+04  2.20913E+04 -6.74295E+03  2.52419E+04 -2.25268E+04  1.18197E+04 -2.71502E+04 -4.81381E+03
 -2.02197E+04 -1.65514E+04 -7.57018E+03 -1.98256E+04  3.79122E+03 -1.86122E+04  1.54014E+04 -1.76211E+04
  2.50698E+04 -1.26319E+04  3.17857E+04  2.68528E+03  2.27730E+04  1.88281E+04  4.21688E+03  3.60290E+04
 -1.71675E+04  2.95793E+04 -2.73135E+04  9.49316E+03 -2.04334E+04 -1.00475E+04 -4.80710E+03 -1.39356E+04
  1.88905E+03 -3.03348E+03 -4.24486E+03  6.60051E+03 -1.47395E+04  5.22670E+03 -1.55990E+04 -6.71572E+03
 -9.22536E+03 -1.85182E+04  5.33736E+03 -2.19039E+04  1.53027E+04 -1.57800E+04  1.76762E+04 -1.25164E+03
  1.05564E+04  1.27426E+04 -1.01596E+03  1.78458E+04 -1.29856E+04  9.97793E+03 -1.88499E+04 -3.91098E+03
 -1.27842E+04 -1.61373E+04 -1.14446E+03 -2.21213E+04  9.19548E+03 -1.85785E+04  1.85554E+04 -8.23513E+03
  1.71149E+04  7.52123E+01  1.26323E+04  3.66865E+03  6.78603E+03  1.07893E+03  8.71494E+03 -1.22782E+03
  1.71983E+04  3.07006E+03  1.87655E+04  1.46967E+04  1.18512E+04  2.90156E+04 -3.46718E+03  3.31438E+04
 -1.86844E+04  2.65868E+04 -3.01107E+04  1.35666E+04 -3.14777E+04 -2.18797E+03 -2.58928E+04 -1.82925E+04
 -1.15241E+04 -2.58920E+04  8.57039E+03 -2.39484E+04  2.07234E+04 -1.27264E+04  1.86306E+04  5.06208E+03
  6.70555E+03  1.37800E+04 -9.38459E+03  1.16926E+04 -1.57567E+04  2.38449E+03 -1.20473E+04 -9.24268E+03
 -3.93506E+02 -1.47170E+04  7.83198E+03 -1.07649E+04  9.88981E+03 -1.73888E+03  2.42968E+03  6.56990E+03
 -6.69082E+03  2.34753E+03 -5.77208E+03 -5.35267E+03  1.13195E+02 -1.30232E+04  9.37293E+03 -1.40153E+04
  1.57555E+04 -6.73264E+03  1.68834E+04  2.44574E+03  1.42397E+04  1.24588E+04  6.35397E+03  1.96438E+04
 -3.18731E+03  2.08632E+04 -1.29419E+04  1.31408E+04 -1.43055E+04  2.93543E+03 -1.04937E+04 -3.47597E+03
 -5.72334E+03 -4.74439E+03 -1.11392E+03  8.87261E+02 -1.67793E+03  2.45041E+03 -5.12994E+03  3.85237E+03
 -1.00588E+04 -8.11564E+02 -1.08291E+04 -8.59913E+03 -4.69745E+03 -1.45248E+04  3.87228E+03 -1.04000E+04
  8.71726E+03 -4.48904E+03  6.49266E+03  2.98632E+03  7.82873E+02  3.97810E+03 -4.87695E+03 -7.23763E+02
 -4.90334E+03 -6.63066E+03 -4.87350E+02 -1.02492E+04  5.62794E+03 -1.03101E+04  1.31397E+04 -5.26558E+03
  1.57341E+04  1.18957E+03  1.10925E+04  8.84035E+03  2.65427E+03  1.27005E+04 -7.05611E+03  1.06010E+04
 -8.67725E+03  3.46885E+03 -4.06697E+03 -2.61007E+03  1.44316E+03 -1.96833E+03  5.85122E+03 -9.65194E+02
  5.22736E+03  4.71687E+03  1.35749E+03  8.48312E+03 -6.17542E+03  8.87150E+03 -1.06243E+04  2.12006E+03
 -7.08616E+03 -4.72592E+03  3.55748E+02 -9.28322E+03  5.64795E+03 -4.33193E+03  5.73820E+03  1.32010E+03
  1.31806E+03  5.49236E+03 -5.18226E+03  6.75324E+03 -7.98393E+03  3.62229E+03 -7.27321E+03 -2.37278E+03
 -4.66797E+03 -9.06606E+03  1.88405E+03 -1.06923E+04  8.35611E+03 -6.69014E+03  9.55214E+03  1.47213E+03
  6.10490E+03  7.84216E+03 -7.05506E+02  1.04188E+04 -7.16279E+03  5.79035E+03 -7.79624E+03 -3.04726E+02
 -6.88568E+03 -6.82231E+03 -1.38228E+03 -7.50834E+03  3.92714E+03 -6.52240E+03  4.22547E+03 -3.17116E+03
  3.14027E+03  1.33899E+03 -1.94960E+01  1.36289E+03 -1.38311E+02 -1.23396E+03  1.37401E+03 -3.45526E+03
  6.17454E+03 -1.82556E+03  8.37112E+03  1.31557E+03  8.72802E+03  5.64423E+03  7.05748E+03  1.17043E+04
 -1.97234E+03  1.31601E+04 -1.15307E+04  1.02096E+04 -1.48494E+04  1.37179E+03 -1.24116E+04 -4.50252E+03
 -6.38756E+03 -9.63906E+03 -5.18362E+02 -8.41363E+03  3.14312E+03 -3.76773E+03  2.92312E+03 -3.34308E+03
  2.14135E+03 -2.56378E+03  2.17873E+03 -3.05344E+03  3.74945E+03 -2.06005E+03  4.78865E+03  4.80386E+02
  6.79046E+03  1.35335E+03  2.49730E+03  5.31878E+03 -1.68394E+03  5.43895E+03 -6.63540E+03  4.18735E+03
 -8.08792E+03 -1.20721E+03 -4.08905E+03 -5.32200E+03  3.16948E+02 -8.10450E+03  4.77432E+03 -8.61730E+03
  8.34790E+03 -4.67675E+03  1.08871E+04  9.49794E+02  7.65765E+03  7.23210E+03  9.07715E+02  9.97173E+03
 -3.44030E+03  8.74406E+03 -5.97121E+03  2.67474E+03 -3.43531E+03 -1.83401E+03 -1.10163E+03 -1.24507E+03
 -5.36277E+02  3.37017E+01 -2.11425E+03  1.88543E+03 -3.43120E+03  1.30251E+03 -6.04822E+03 -7.52576E+02
 -3.40148E+03 -6.07243E+03 -3.60389E+02 -7.67701E+03  4.78093E+03 -7.06467E+03  7.46988E+03 -1.84954E+03
  7.08453E+03  3.72359E+03  3.53931E+03  6.00213E+03 -1.09972E+03  7.49440E+03 -5.31469E+03  5.12654E+03
 -6.79045E+03  4.33190E+02 -5.39564E+03 -4.52735E+03 -1.11111E+03 -5.50146E+03  3.21001E+03 -4.56338E+03
  4.65407E+03 -2.22997E+03  2.90877E+03  8.53837E+02  1.33893E+03  2.70251E+03  9.29758E+02  4.00800E+02
  2.50925E+03  4.95084E+02  1.39854E+03  1.14634E+03  2.32802E+03  2.75770E+03  2.64167E+03  3.43763E+03
 -1.98134E+03  5.14184E+03 -4.36830E+03  5.75949E+03 -6.31923E+03  1.58812E+03 -7.83955E+03 -2.50381E+03
 -3.71324E+03 -7.07785E+03  1.40720E+03 -8.17746E+03  4.24504E+03 -5.48117E+03  5.61395E+03 -1.36431E+03
  4.39424E+03  2.92690E+03  6.33506E+02  4.73177E+03 -1.50365E+03  2.60915E+03 -2.12705E+03 -2.38257E+02
 -1.27330E+03 -3.63155E+03  1.84607E+03 -3.60529E+03  2.49206E+03 -1.80789E+03  2.92184E+03  1.23261E+03
  1.92762E+03  1.43362E+03  5.49757E+02  5.31819E+02 -1.71019E+02  1.68528E+03  2.42351E+03  2.42729E+01
  8.42419E+02 -6.75003E+02  2.71595E+03  1.47809E+03  1.52291E+03  3.80226E+03 -1.21262E+03  5.71715E+03
 -3.29864E+03  2.67049E+03 -3.99440E+03  6.52364E+02 -4.09114E+03 -1.84119E+03 -6.89557E+02 -2.34559E+03
  1.29591E+03 -2.83267E+03  2.06411E+03 -1.45228E+03  1.37253E+03  1.58922E+03  1.39245E+01  2.22166E+03
 -2.44912E+03  1.09236E+03 -3.35145E+03 -1.90862E+03 -1.92097E+03 -3.54736E+03  6.27438E+02 -3.73780E+03
  2.11288E+03 -1.89510E+03  2.06443E+03 -2.90578E+02  2.71284E+03  2.31537E+02  6.05791E+02  2.16651E+03
 -1.66551E+03  2.50012E+02 -1.60028E+03 -1.30489E+03  1.17425E+03 -2.62942E+03  3.57917E+03 -1.51287E+03
  3.97715E+03  5.18573E+02  4.72339E+03  2.26743E+03  1.27141E+03  3.35287E+03 -1.44739E+03  3.81500E+03
 -3.95646E+03  6.04428E+02 -3.76392E+03 -7.07924E+02 -1.43347E+03 -3.04966E+03  9.24753E+02 -2.13411E+03
  2.38086E+03 -1.54940E+03  2.24961E+03  1.60477E+03  8.09282E+02  2.54406E+03 -3.24145E+02  1.67680E+03
 -5.62255E+02  1.27550E+03 -9.35202E+02  2.03901E+02 -6.69770E+01  7.49253E+02 -7.93026E+02  9.70629E+02
 -9.60215E+02  1.86789E+03 -2.97599E+03  1.18104E+03 -4.09445E+03 -4.88941E+01 -4.85790E+03 -2.44441E+03
 -2.47816E+03 -4.69329E+03  6.05714E+02 -6.10540E+03  3.35344E+03 -4.84704E+03  6.24390E+03 -2.43834E+03
  5.33365E+03  9.53976E+02  3.78594E+03  3.96277E+03  2.36717E+02  4.43184E+03 -1.83691E+03  2.04899E+03
 -2.70111E+03  1.59544E+03 -1.46198E+03 -7.39069E+02 -8.49344E+02 -2.35149E+01 -9.03666E+02  8.61723E+01
 -1.07253E+03 -1.70209E+02 -7.75536E+02 -2.53971E+02 -4.12953E+02 -1.18109E+03 -8.72979E+02 -1.57217E+03
  3.14061E+03 -1.91111E+03  1.79062E+03  8.57081E+02  2.48136E+03  2.16201E+03  7.62893E+02  3.60124E+03
 -1.49526E+03  4.83453E+03 -4.57232E+03  2.19681E+03 -4.32578E+03 -5.23162E+02 -3.10960E+03 -2.98018E+03
 -1.34110E+03 -3.92508E+03  1.32110E+03 -3.41258E+03  2.09483E+03 -1.86565E+03  2.95507E+03  5.72559E+02
  1.20986E+03  1.47663E+03  1.80102E+02  1.58885E+03 -9.03260E+02  3.02442E+02 -1.27408E+02 -9.17874E+02
  6.10639E+02  8.94778E+01  1.21049E+03  8.46992E+02  5.63332E+02  1.70404E+03  1.75662E+02  1.84294E+03
 -1.28645E+03  1.24884E+03 -2.07205E+03 -2.25587E+02 -1.94898E+03 -1.59172E+03 -1.28410E+02 -2.99736E+03
  1.53776E+03 -2.61867E+03  2.43193E+03 -1.21436E+03  2.92163E+03 -8.70920E+02  1.64756E+03  2.47770E+03
  5.21346E+02  2.91484E+03 -9.85287E+02  2.25376E+03 -1.14274E+03  1.66188E+03 -8.78035E+02 -3.73969E+01
 -7.07562E+02 -6.04151E+02 -6.22711E+02  4.29966E+02 -1.42126E+03  8.05606E+02 -1.97821E+03 -7.22440E+02
 -2.21083E+03 -5.54984E+02 -1.25565E+03 -2.57137E+03  9.02883E+02 -3.11034E+03  1.85657E+03 -5.78342E+02
  2.46246E+03  1.02942E+02  1.15543E+03  1.88829E+03 -5.93230E+02  1.82465E+03 -1.70588E+03  1.53658E+03
