 $NMID ID='MM_0lb_SNR400_18hz_g40_52.RAW', FMTDAT='(8E13.5)'
 TRAMP=1., VOLUME=1. $END
  3.10018E+05  5.01670E+02  3.37038E+05  2.50092E+05  8.45893E+04  3.37191E+05 -1.32135E+05  2.50546E+05
 -1.89304E+05  8.26964E+04 -1.10793E+05 -3.28451E+04  1.26004E+03 -5.04172E+04  5.40839E+04 -4.17273E+01
  3.51694E+04  5.28013E+04 -1.67649E+04  7.44719E+04 -6.00280E+04  6.20494E+04 -8.30819E+04  3.14097E+04
 -7.92098E+04 -1.10148E+04 -5.60267E+04 -4.98798E+04 -1.51639E+04 -6.76365E+04  2.67158E+04 -4.46851E+04
  3.92476E+04  4.41607E+03  1.59481E+04  4.68158E+04 -3.40745E+04  4.64521E+04 -6.47599E+04 -8.55242E+02
 -5.23938E+04 -5.55878E+04 -6.84288E+03 -7.49334E+04  3.28696E+04 -5.30290E+04  4.61333E+04 -1.62404E+04
  4.14828E+04  1.04488E+04  3.11696E+04  2.42095E+04  1.54383E+04  2.79760E+04 -4.70322E+03  2.61571E+04
 -2.15133E+04  1.28606E+04 -1.90320E+04 -4.46526E+03  4.04313E+03 -7.83683E+03  2.09362E+04  1.11010E+04
  7.56604E+03  3.29666E+04 -3.02981E+04  3.36240E+04 -6.10543E+04  2.40105E+03 -5.48320E+04 -4.13456E+04
 -1.20969E+04 -6.05705E+04  3.73399E+04 -4.27751E+04  5.52226E+04 -2.49520E+03  3.14400E+04  3.04159E+04
 -6.70785E+03  3.27101E+04 -2.84369E+04  1.34614E+04 -2.74727E+04 -5.11308E+03 -1.43532E+04 -1.02376E+04
 -7.75012E+03 -1.13940E+04 -1.12279E+03 -1.61551E+04  6.07578E+03 -2.26535E+04  1.51379E+04 -1.36484E+04
  1.21761E+04  3.77356E+03 -6.48052E+03  1.33020E+04 -1.89463E+04 -2.00981E+03 -7.89324E+03 -3.01411E+04
  2.09515E+04 -4.02667E+04  4.37960E+04 -1.83722E+04  4.05881E+04  1.76557E+04  1.39384E+04  4.17066E+04
 -1.51531E+04  3.03786E+04 -2.30403E+04  8.06933E+02 -8.17520E+03 -2.61465E+04  2.09484E+04 -3.08284E+04
  3.79172E+04 -6.92197E+03  3.15441E+04  2.26182E+04  1.50384E+04  4.20983E+04 -8.29169E+03  4.48651E+04
 -2.81566E+04  2.97340E+04 -3.73954E+04  8.23821E+03 -3.77018E+04 -1.50651E+04 -2.14154E+04 -3.37094E+04
  6.44582E+03 -3.36969E+04  2.88007E+04 -1.28091E+04  2.67635E+04  1.08776E+04  2.82479E+03  1.73052E+04
 -1.32118E+04  6.94952E+03 -9.42965E+03 -7.81629E+03  5.70265E+03 -9.85135E+03  1.72870E+04  6.61547E+03
  1.22844E+04  2.13392E+04 -6.89529E+03  2.33143E+04 -2.09723E+04  8.13594E+03 -2.50280E+04 -6.63758E+03
 -1.64071E+04 -1.64356E+04 -5.76047E+03 -1.59680E+04  3.62558E+03 -1.46106E+04  1.23555E+04 -1.45153E+04
  2.11420E+04 -1.16243E+04  2.79535E+04  9.85597E+02  2.11985E+04  1.60906E+04  4.08033E+03  3.24450E+04
 -1.58335E+04  2.73613E+04 -2.57917E+04  9.62005E+03 -1.94913E+04 -1.08687E+04 -4.22814E+03 -1.44318E+04
  2.93011E+03 -4.16888E+03 -2.90139E+03  5.71571E+03 -1.23143E+04  5.69923E+03 -1.33900E+04 -4.84215E+03
 -9.30118E+03 -1.56082E+04  4.37904E+03 -1.94552E+04  1.25482E+04 -1.43635E+04  1.51014E+04 -1.51926E+03
  9.06186E+03  1.09559E+04 -6.98764E+02  1.59721E+04 -1.02232E+04  8.35054E+03 -1.57987E+04 -3.38713E+03
 -1.12949E+04 -1.39694E+04 -1.13213E+03 -1.88404E+04  8.45420E+03 -1.51664E+04  1.58458E+04 -7.33517E+03
  1.44057E+04  3.11327E+02  1.00218E+04  3.61981E+03  5.10372E+03  4.81287E+02  7.57741E+03 -1.51785E+03
  1.39086E+04  2.50807E+03  1.40809E+04  1.27528E+04  9.41108E+03  2.47234E+04 -3.34611E+03  2.62500E+04
 -1.58133E+04  2.02156E+04 -2.41598E+04  9.39288E+03 -2.45179E+04 -2.15128E+03 -2.11734E+04 -1.40503E+04
 -1.00517E+04 -2.01158E+04  6.65106E+03 -1.83009E+04  1.60738E+04 -1.04095E+04  1.55424E+04  4.01644E+03
  6.87041E+03  1.15304E+04 -6.76361E+03  1.07191E+04 -1.34702E+04  2.45893E+03 -1.05790E+04 -7.59428E+03
 -2.57867E+02 -1.24597E+04  5.73409E+03 -9.34004E+03  8.30631E+03 -1.60924E+03  2.03796E+03  4.61600E+03
 -5.43347E+03  1.26427E+03 -3.77916E+03 -4.78166E+03  1.02055E+03 -9.88369E+03  7.63156E+03 -9.55727E+03
  1.20013E+04 -5.01255E+03  1.18007E+04  2.26430E+03  1.05797E+04  9.25705E+03  4.43223E+03  1.37247E+04
 -1.68105E+03  1.57012E+04 -9.69537E+03  1.02856E+04 -1.09240E+04  3.04071E+03 -8.87550E+03 -2.15080E+03
 -4.01146E+03 -3.31265E+03 -9.91566E+02  1.61248E+03 -2.06037E+03  1.77052E+03 -3.62066E+03  3.69602E+03
 -7.84197E+03 -5.37104E+02 -8.56665E+03 -7.16831E+03 -3.49010E+03 -1.10191E+04  3.51525E+03 -8.68579E+03
  7.17129E+03 -3.99731E+03  5.13347E+03  2.56091E+03  8.58314E+02  3.31391E+03 -3.49601E+03 -2.64781E+02
 -3.69504E+03 -5.25330E+03 -6.59837E+02 -6.63714E+03  3.89804E+03 -7.69064E+03  9.93287E+03 -3.83363E+03
  1.18017E+04  2.00312E+02  8.74395E+03  6.16658E+03  1.33591E+03  8.29671E+03 -5.52810E+03  8.07052E+03
 -6.63686E+03  2.76588E+03 -3.60335E+03 -1.29708E+03  1.37804E+03 -1.80693E+03  4.37984E+03 -1.00456E+03
  4.10538E+03  3.49670E+03  1.27098E+03  6.16058E+03 -4.23140E+03  6.40003E+03 -7.59666E+03  2.30351E+03
 -4.21877E+03 -3.67616E+03  6.57225E+02 -6.81091E+03  3.32122E+03 -3.44584E+03  3.27400E+03  5.30385E+02
  3.57367E+02  3.71952E+03 -4.07230E+03  4.43223E+03 -4.92082E+03  2.64383E+03 -4.88116E+03 -1.00385E+03
 -2.51184E+03 -5.83379E+03  1.18091E+03 -7.30225E+03  5.75827E+03 -5.17099E+03  6.52730E+03  9.45120E+02
  4.65519E+03  4.77457E+03  2.45181E+00  7.78361E+03 -5.66689E+03  4.42462E+03 -5.51711E+03 -9.24881E+02
 -5.48582E+03 -5.47024E+03 -1.17448E+03 -4.87442E+03  1.85469E+03 -4.49359E+03  3.42456E+03 -2.33430E+03
  2.94563E+03  6.64610E+02  2.80592E+02  1.48521E+03  4.78833E+02 -2.08919E+02  2.39237E+02 -1.99409E+03
  3.62774E+03 -3.14123E+02  5.53867E+03  1.19549E+03  5.45735E+03  2.61684E+03  5.35331E+03  7.08052E+03
 -1.23167E+03  8.61419E+03 -7.76436E+03  6.91322E+03 -1.00702E+04  9.86645E+02 -8.33427E+03 -2.64663E+03
 -3.80342E+03 -6.33706E+03 -1.08162E+03 -5.40703E+03  2.17377E+03 -1.97438E+03  1.59375E+03 -1.59994E+03
  1.51638E+03 -1.40934E+03  2.21728E+03 -2.31128E+03  2.97331E+03 -1.35513E+03  3.62784E+03  5.46829E+02
  4.52378E+03  1.18877E+03  1.29912E+03  3.18085E+03 -1.67205E+03  3.13727E+03 -4.12331E+03  2.67107E+03
 -5.04246E+03 -8.15111E+02 -1.84089E+03 -3.13336E+03  8.14922E+02 -5.06090E+03  2.91472E+03 -5.27445E+03
  4.78987E+03 -2.98436E+03  7.14320E+03  3.36839E+02  5.38495E+03  4.42602E+03  1.37627E+03  5.75957E+03
 -2.07750E+03  5.34028E+03 -3.69181E+03  1.97611E+03 -1.83378E+03 -1.34767E+03  1.82571E+01 -6.60910E+02
 -2.99909E+02  5.47488E+02 -4.81728E+02  1.91087E+03 -2.48746E+03  1.12505E+03 -3.74409E+03 -8.63750E+02
 -1.77495E+03 -4.55965E+03  1.41748E+03 -4.88905E+03  2.45961E+03 -4.81248E+03  3.99430E+03 -9.26581E+02
  3.66872E+03  2.60202E+03  2.13993E+03  3.34678E+03 -4.46833E+02  4.46670E+03 -2.58472E+03  2.98343E+03
 -4.05890E+03  8.48294E+02 -3.36912E+03 -2.44415E+03 -2.74704E+02 -3.54118E+03  1.70525E+03 -2.63106E+03
  2.73922E+03 -1.62880E+03  1.75853E+03  3.23289E+02  6.04798E+02  1.46678E+03  6.56560E+02  5.04095E+02
  1.24874E+03  4.96443E+02  3.28559E+02  7.37020E+02  1.75468E+03  2.47220E+03  9.39088E+02  1.94916E+03
 -1.11874E+03  3.01633E+03 -2.63968E+03  3.88583E+03 -2.97329E+03  8.90841E+02 -4.77042E+03 -4.96582E+02
 -1.70580E+03 -3.94724E+03  6.86494E+02 -4.80880E+03  2.13330E+03 -2.57141E+03  3.23447E+03 -1.49314E+03
  2.39791E+03  1.63125E+03  4.18990E+02  1.74629E+03 -8.82602E+02  1.21100E+03 -9.51877E+02 -4.50455E+02
 -1.02423E+03 -1.50678E+03  1.54725E+03 -1.46902E+03  1.65401E+03 -1.19489E+03  1.14367E+03  3.24328E+02
  8.87781E+02 -2.17709E+02  9.52307E+02  4.48469E+01 -2.78604E+02 -8.09294E+01  1.72237E+03 -6.65764E+02
  5.06467E+02 -9.15454E+02  1.84190E+03  9.49556E+02  2.09664E+02  2.01558E+03 -7.23573E+02  2.94093E+03
 -1.21392E+03  1.78314E+03 -2.10362E+03  1.36239E+02 -2.78733E+03 -7.84876E+02 -6.87481E+02 -1.19835E+03
 -3.57393E+02 -1.13427E+03  1.12298E+03 -1.00386E+03  1.09783E+03  1.38471E+03 -5.70829E+02  1.30055E+03
 -1.94339E+03  1.48139E+03 -1.92428E+03 -1.14821E+03  1.18702E+02 -1.70778E+03  2.12835E+02 -1.37376E+03
  5.18302E+02 -7.55676E+02  1.07153E+03 -2.25580E+01  6.35414E+02 -4.69416E+02 -1.84972E+02  1.22649E+03
 -3.71023E+01 -2.61316E+02 -8.18869E+02 -5.09288E+02  9.96760E+02 -7.76119E+02  2.46862E+03 -9.21372E+02
  1.25470E+03  2.93877E+02  2.83882E+03  8.70868E+02  9.07980E+02  1.98658E+03  1.57229E+02  2.08185E+03
 -1.61785E+03  6.23650E+02 -1.49939E+03 -6.73103E+01 -1.15565E+03 -1.73042E+03  2.46895E+02 -4.28644E+02
  1.87647E+03 -5.80300E+02  3.55058E+02  4.81030E+02  3.76935E+02  1.26692E+03  7.48960E+02  1.21632E+03
 -6.28865E+01  7.46751E+02 -8.34184E+02  1.83264E+02  1.96732E+02  4.61387E+02 -3.98301E+02  7.96438E+02
  6.25061E+01  1.52347E+03 -1.80329E+03  5.00598E+02 -2.60152E+03 -2.99541E+02 -2.13650E+03 -1.48272E+03
 -8.90758E+02 -2.00893E+03  5.49421E+02 -3.34332E+03  1.27159E+03 -3.15553E+03  2.95471E+03 -9.10439E+02
  2.61769E+03  1.75565E+02  1.74470E+03  1.80770E+03 -3.92587E+02  2.06568E+03 -1.07597E+03  1.61952E+03
 -1.07202E+03  8.00706E+02 -1.03112E+03 -5.25347E+02 -5.00641E+02 -2.24505E+02 -3.11146E+02  1.92622E+02
 -1.13466E+03 -4.12413E+02 -1.24688E+03 -3.17726E+02  2.99781E+02 -7.49880E+02 -7.27720E+02 -3.54684E+02
  9.22478E+02 -6.55350E+02  2.72582E+02  2.77649E+02  1.68930E+03  1.58821E+03  3.75146E+02  1.45458E+03
 -1.23096E+03  2.43182E+03 -1.87698E+03  1.24307E+03 -1.92784E+03 -3.64530E+02 -1.20960E+03 -8.47210E+02
 -1.35942E+03 -1.67782E+03  7.21824E+02 -1.27771E+03  3.26565E+02 -6.75199E+02  1.19149E+03  7.19622E+02
  7.41400E+02  9.50376E+02  3.39591E+02  6.39469E+02 -1.40699E+02  2.13846E+02  6.37003E+02 -5.71320E+01
  9.64041E+02  3.94177E+02  5.15413E+02  1.76376E+02  6.26028E+02  6.49010E+02  3.63928E+02  1.07374E+03
 -4.73106E+02  1.03277E+03 -5.13043E+02  4.67095E+02 -1.10113E+03 -2.70876E+02  2.38842E+02 -1.15039E+03
  6.38095E+02 -1.50292E+03  2.22839E+02  1.54130E+02  1.05458E+03 -1.02843E+03  2.85811E+02  1.46513E+03
  2.35655E+02  2.72327E+02 -6.69698E+01  7.30295E+02 -3.21189E+02  8.59298E+02 -7.37794E+02  1.15494E+02
 -9.06151E+01  4.60734E+02 -6.45505E+02  7.59196E+01 -8.43550E+02  3.26483E+01 -8.39818E+02 -2.09340E+02
 -1.06345E+03  6.92301E+02 -3.89808E+02 -1.06065E+03  8.99309E+02 -1.86820E+03  9.75938E+02 -1.03720E+02
  5.85013E+02  5.69561E+01  2.93093E+02 -3.54918E+01  2.27034E+02  1.27478E+03 -1.30478E+02  3.58860E+02
