 $NMID ID='MM_0lb_SNR400_9hz_g50_8.RAW', FMTDAT='(8E13.5)'
 TRAMP=1., VOLUME=1. $END
  3.09358E+05  1.63141E+02  3.37874E+05  2.50975E+05  8.47883E+04  3.38545E+05 -1.32154E+05  2.52351E+05
 -1.91490E+05  8.42828E+04 -1.12199E+05 -3.24960E+04  1.75159E+02 -5.05919E+04  5.40168E+04 -3.99494E+02
  3.60046E+04  5.33276E+04 -1.67307E+04  7.52947E+04 -6.11113E+04  6.46973E+04 -8.50696E+04  3.36837E+04
 -8.24541E+04 -1.17683E+04 -5.81177E+04 -5.22109E+04 -1.50934E+04 -7.10971E+04  2.78695E+04 -4.68909E+04
  4.03268E+04  3.36793E+03  1.59312E+04  4.86547E+04 -3.50948E+04  4.82578E+04 -6.76820E+04 -2.86862E+01
 -5.49152E+04 -5.78319E+04 -6.80818E+03 -7.86063E+04  3.43758E+04 -5.73652E+04  5.00374E+04 -1.80013E+04
  4.50080E+04  1.17409E+04  3.33404E+04  2.57974E+04  1.52457E+04  3.07652E+04 -5.31692E+03  2.77746E+04
 -2.19886E+04  1.20703E+04 -1.83829E+04 -6.89717E+03  6.98813E+03 -7.65738E+03  2.34360E+04  1.45525E+04
  7.61193E+03  3.72772E+04 -3.45344E+04  3.74223E+04 -6.60496E+04  3.02426E+03 -5.96161E+04 -4.44505E+04
 -1.24656E+04 -6.58000E+04  4.16679E+04 -4.73631E+04  6.12560E+04 -2.74741E+03  3.67783E+04  3.36744E+04
 -5.35404E+03  3.90720E+04 -3.16010E+04  1.88298E+04 -3.36418E+04 -3.12248E+03 -1.91622E+04 -1.24999E+04
 -8.86704E+03 -1.53382E+04 -1.48289E+02 -1.89470E+04  8.45339E+03 -2.34465E+04  1.65196E+04 -1.23266E+04
  1.07373E+04  6.52551E+03 -1.04341E+04  1.27345E+04 -2.39888E+04 -6.16130E+03 -8.87041E+03 -3.75444E+04
  2.47367E+04 -4.69589E+04  5.17295E+04 -2.12312E+04  4.85978E+04  2.10506E+04  1.72534E+04  4.63143E+04
 -1.68257E+04  3.57064E+04 -2.80179E+04  2.79296E+03 -1.09355E+04 -2.92338E+04  2.11029E+04 -3.70372E+04
  4.49083E+04 -1.13292E+04  4.00912E+04  2.48291E+04  2.10882E+04  5.07953E+04 -8.92447E+03  5.56221E+04
 -3.52688E+04  3.79762E+04 -4.78553E+04  1.06828E+04 -4.70516E+04 -1.91572E+04 -2.63897E+04 -4.29194E+04
  7.53656E+03 -4.20725E+04  3.43136E+04 -1.67237E+04  3.16735E+04  1.16658E+04  5.30320E+03  2.18354E+04
 -1.42626E+04  9.75626E+03 -1.13959E+04 -7.79009E+03  4.67020E+03 -1.11083E+04  1.93537E+04  5.64436E+03
  1.48364E+04  2.30530E+04 -4.84683E+03  2.67752E+04 -2.37495E+04  1.48773E+04 -3.13352E+04 -3.96649E+03
 -2.53924E+04 -1.86238E+04 -1.19389E+04 -2.46830E+04  4.33909E+03 -2.60146E+04  2.01302E+04 -2.29625E+04
  3.17850E+04 -1.34732E+04  3.76811E+04  5.69059E+03  2.69770E+04  2.45460E+04  4.61710E+03  4.16108E+04
 -1.92570E+04  3.41723E+04 -2.96401E+04  1.17182E+04 -2.23908E+04 -9.75060E+03 -4.99502E+03 -1.28782E+04
  1.19652E+03 -1.10093E+03 -7.30916E+03  8.62912E+03 -2.02857E+04  4.94835E+03 -1.99229E+04 -9.19141E+03
 -1.23522E+04 -2.32929E+04  5.75051E+03 -2.82916E+04  1.89179E+04 -1.91876E+04  2.23331E+04 -2.32113E+03
  1.37701E+04  1.62144E+04 -9.14353E+02  2.33812E+04 -1.67708E+04  1.34030E+04 -2.39716E+04 -4.28283E+03
 -1.77134E+04 -2.07029E+04 -1.38164E+03 -2.80968E+04  1.25317E+04 -2.36465E+04  2.29361E+04 -1.24484E+04
  2.13925E+04 -6.36905E+02  1.55511E+04  5.80558E+03  8.56689E+03  1.32876E+03  1.17334E+04 -2.05163E+03
  2.18820E+04  2.55934E+03  2.55093E+04  1.83335E+04  1.82383E+04  3.72442E+04 -2.94341E+03  4.43324E+04
 -2.57709E+04  3.71457E+04 -4.21708E+04  1.89058E+04 -4.46728E+04 -3.56319E+03 -3.57370E+04 -2.65257E+04
 -1.46509E+04 -3.62739E+04  1.29277E+04 -3.19905E+04  2.75654E+04 -1.52661E+04  2.37581E+04  8.49571E+03
  8.80337E+03  1.95777E+04 -1.17039E+04  1.64857E+04 -2.07226E+04  3.00460E+03 -1.50924E+04 -1.30849E+04
 -3.21333E+02 -1.94890E+04  9.85546E+03 -1.37893E+04  1.37155E+04 -9.21739E+02  3.75459E+03  8.73930E+03
 -8.62862E+03  4.31361E+03 -9.51392E+03 -6.90607E+03 -1.70759E+03 -1.85012E+04  1.19419E+04 -2.06187E+04
  2.37861E+04 -1.17461E+04  2.64576E+04  2.66494E+03  2.38510E+04  1.92174E+04  1.12924E+04  2.93340E+04
 -5.84225E+03  3.07161E+04 -2.04886E+04  1.94290E+04 -2.35335E+04  4.11383E+03 -1.56575E+04 -5.92140E+03
 -6.59326E+03 -7.61164E+03 -6.76036E+02 -1.15890E+02 -2.69284E+03  4.09776E+03 -6.74816E+03  4.46137E+03
 -1.40959E+04 -1.00378E+03 -1.42942E+04 -1.20148E+04 -6.48394E+03 -1.94451E+04  6.45940E+03 -1.54505E+04
  1.23815E+04 -6.57972E+03  1.01032E+04  3.61057E+03 -2.65995E+02  5.70853E+03 -7.72637E+03  5.31957E+02
 -7.50468E+03 -1.02212E+04 -9.75914E+02 -1.50838E+04  8.87339E+03 -1.67381E+04  2.02410E+04 -8.69761E+03
  2.35596E+04  2.36081E+03  1.68353E+04  1.36721E+04  3.70935E+03  1.89902E+04 -9.10064E+03  1.55203E+04
 -1.28313E+04  4.74648E+03 -6.19215E+03 -3.38652E+03  2.29292E+03 -4.10499E+03  8.83125E+03 -1.05482E+03
  7.67721E+03  7.48031E+03  1.10235E+03  1.26654E+04 -9.13322E+03  1.25289E+04 -1.55715E+04  2.80808E+03
 -1.11688E+04 -8.21542E+03 -5.17456E+01 -1.31247E+04  9.13164E+03 -7.12190E+03  9.70191E+03  3.20999E+03
  2.40192E+03  1.01168E+04 -7.81999E+03  1.15654E+04 -1.34505E+04  4.74960E+03 -1.35703E+04 -5.00218E+03
 -8.25032E+03 -1.61428E+04  3.75957E+03 -1.87015E+04  1.60495E+04 -1.04385E+04  1.63972E+04  3.88216E+03
  1.01218E+04  1.36321E+04 -2.43547E+03  1.62372E+04 -1.27862E+04  9.29416E+03 -1.32632E+04 -1.39078E+03
 -1.04139E+04 -1.02081E+04 -1.54050E+03 -1.22331E+04  5.24538E+03 -9.60333E+03  7.85804E+03 -2.94368E+03
  4.71857E+03  1.72212E+03 -1.45566E+03  2.59124E+03 -6.55682E+02 -3.13746E+03  2.72505E+03 -7.95967E+03
  1.09953E+04 -5.05785E+03  1.60601E+04  2.01387E+03  1.62349E+04  1.14524E+04  1.03212E+04  2.12119E+04
 -5.23806E+03  2.38493E+04 -2.00481E+04  1.76540E+04 -2.57009E+04  2.76586E+03 -2.07996E+04 -8.85338E+03
 -1.06152E+04 -1.69295E+04 -8.60153E+00 -1.49164E+04  5.65465E+03 -8.55700E+03  5.24436E+03 -5.28712E+03
  2.44442E+03 -2.89785E+03  3.79204E+03 -4.08312E+03  5.20349E+03 -4.37409E+03  8.08456E+03 -1.42430E+03
  1.03342E+04  2.57533E+03  5.65889E+03  9.44378E+03 -2.07494E+03  1.20831E+04 -1.17623E+04  9.95979E+03
 -1.46127E+04 -9.54315E+02 -9.37376E+03 -1.01445E+04 -1.31490E+03 -1.49177E+04  8.26426E+03 -1.61242E+04
  1.58417E+04 -9.70997E+03  1.97575E+04  2.31408E+03  1.32108E+04  1.40086E+04  1.93031E+03  1.76213E+04
 -7.60493E+03  1.48006E+04 -1.16397E+04  5.11223E+03 -7.79926E+03 -1.69052E+03 -2.09917E+03 -1.64196E+03
 -1.54165E+03 -5.43734E+02 -1.67079E+03  3.22305E+03 -5.79209E+03  2.53197E+03 -1.01048E+04 -1.95415E+03
 -6.71121E+03 -9.29570E+03  1.69238E+02 -1.43986E+04  9.12619E+03 -1.37784E+04  1.46687E+04 -4.04242E+03
  1.42837E+04  7.01345E+03  6.53891E+03  1.25610E+04 -3.10630E+03  1.45286E+04 -1.04708E+04  8.88748E+03
 -1.40543E+04  1.20142E+02 -1.01298E+04 -8.74069E+03 -1.70510E+03 -1.19875E+04  5.85881E+03 -9.29057E+03
  9.89573E+03 -3.03147E+03  6.72807E+03  2.00051E+03  1.20426E+03  4.43000E+03  1.05992E+03  2.17762E+03
  3.20697E+03  2.26502E+02  3.16690E+03  1.66143E+03  4.59999E+03  4.86876E+03  3.30566E+03  8.23855E+03
 -2.18470E+03  1.16162E+04 -1.07337E+04  1.14553E+04 -1.49311E+04  3.10045E+03 -1.57650E+04 -6.21559E+03
 -7.13782E+03 -1.59510E+04  2.15398E+03 -1.64589E+04  9.04092E+03 -1.01122E+04  1.27012E+04 -2.88392E+03
  9.59143E+03  5.52795E+03  2.33507E+03  9.13438E+03 -4.27142E+03  6.13242E+03 -6.16662E+03 -1.03774E+03
 -3.03782E+03 -6.12218E+03  3.36644E+03 -6.80188E+03  6.23413E+03 -3.53496E+03  5.60988E+03  1.66708E+03
  4.08984E+03  3.62291E+03  1.53917E+03  2.15673E+03 -3.60510E+02  1.37037E+03  1.36600E+03 -7.90098E+02
  2.20480E+03 -8.19598E+02  6.41210E+03  2.41175E+03  3.14822E+03  8.66477E+03 -1.77191E+03  1.14317E+04
 -7.28761E+03  7.01554E+03 -9.10479E+03  1.76974E+03 -8.49035E+03 -3.19460E+03 -3.00922E+03 -6.02568E+03
  8.19587E+02 -5.14408E+03  3.92803E+03 -3.53655E+03  3.66050E+03  3.33117E+03 -1.92241E+03  5.00741E+03
 -5.97203E+03  2.33638E+03 -6.95117E+03 -3.84603E+03 -3.80808E+03 -8.22239E+03  1.23666E+03 -8.09502E+03
  5.60277E+03 -4.61738E+03  5.89648E+03 -7.73043E+02  5.00739E+03  2.51884E+03  1.03306E+03  4.75918E+03
 -3.28499E+03  1.65936E+03 -4.03871E+03 -3.09998E+03  8.76741E+02 -5.97399E+03  7.73364E+03 -5.50775E+03
  9.89926E+03  4.08451E+02  9.63741E+03  6.43851E+03  2.18123E+03  1.04022E+04 -3.90159E+03  9.67900E+03
 -7.55076E+03  3.63006E+03 -8.60267E+03 -5.29170E+02 -4.58367E+03 -5.60283E+03  1.46782E+03 -6.67933E+03
  5.56120E+03 -2.83908E+03  5.03423E+03  2.76117E+03  2.51571E+03  5.94339E+03 -2.18787E+03  4.92369E+03
 -2.33225E+03  3.25726E+03 -2.01288E+03  1.05979E+03 -1.14924E+03  1.43274E+03 -2.24812E+03  1.47312E+03
 -2.61712E+03  4.11003E+03 -7.05484E+03  4.52636E+03 -1.05549E+04 -4.81549E+00 -1.14944E+04 -6.87953E+03
 -5.45767E+03 -1.28097E+04  2.89240E+03 -1.56626E+04  9.73904E+03 -1.19380E+04  1.41457E+04 -4.04984E+03
  1.41704E+04  3.04001E+03  8.40673E+03  8.27087E+03  3.86604E+02  1.06913E+04 -4.32673E+03  7.13190E+03
 -5.83869E+03  2.78522E+03 -3.29028E+03 -1.08811E+03 -9.40436E+02 -2.12256E+03 -6.23395E+02  5.01972E+02
 -1.59646E+03  4.08495E+02 -3.07504E+03 -7.48101E+02 -1.39221E+03 -2.16677E+03  2.88243E+02 -3.82647E+03
  4.65279E+03 -3.52777E+03  6.54839E+03 -1.94149E+01  7.33164E+03  5.58480E+03  1.83234E+03  1.02817E+04
 -4.56524E+03  1.17028E+04 -1.10508E+04  6.65931E+03 -1.22928E+04 -5.88640E+02 -1.03990E+04 -7.68481E+03
 -4.11647E+03 -1.03634E+04  3.36097E+03 -1.00884E+04  6.30881E+03 -5.64750E+03  6.31496E+03  5.81457E+02
  3.41732E+03  3.41490E+03 -4.66053E+00  3.66593E+03 -2.68415E+03  3.65566E+02  2.63840E+02 -2.17873E+03
  3.51627E+03 -1.04375E+03  4.15590E+03  1.79472E+03  2.32302E+03  4.16765E+03 -4.49164E+02  5.71672E+03
 -5.34252E+03  4.70809E+03 -8.40687E+03  5.96398E+02 -5.99644E+03 -5.32407E+03 -7.19982E+02 -9.16665E+03
  4.53632E+03 -7.04949E+03  8.05263E+03 -2.43819E+03  8.28589E+03  2.53397E+03  4.99656E+03  6.40273E+03
  1.71527E+03  6.88520E+03 -2.15428E+03  5.53970E+03 -4.67112E+03  3.37291E+03 -3.07825E+03  5.94517E+02
 -1.99808E+03 -7.01585E+02 -1.62819E+03  9.76866E+02 -3.90741E+03  1.05951E+03 -4.72600E+03 -2.02832E+03
 -4.46085E+03 -3.94666E+03 -2.03614E+03 -7.31783E+03  4.41796E+03 -7.62462E+03  5.59747E+03 -3.47685E+03
  7.08212E+03  1.08021E+03  4.15250E+03  4.54074E+03 -8.92968E+02  7.71481E+03 -5.41617E+03  4.66572E+03
