 $NMID ID='MM_0lb_SNR400_18hz_g60_85.RAW', FMTDAT='(8E13.5)'
 TRAMP=1., VOLUME=1. $END
  3.10145E+05  5.71872E+02  3.37773E+05  2.50761E+05  8.42996E+04  3.38093E+05 -1.32491E+05  2.50695E+05
 -1.89933E+05  8.31211E+04 -1.10999E+05 -3.32774E+04  8.85867E+02 -5.02775E+04  5.35890E+04 -2.19313E+02
  3.56312E+04  5.29149E+04 -1.68032E+04  7.50704E+04 -6.04499E+04  6.31036E+04 -8.37166E+04  3.14475E+04
 -8.07500E+04 -1.13816E+04 -5.73381E+04 -5.12591E+04 -1.45621E+04 -6.91153E+04  2.69085E+04 -4.54872E+04
  3.97705E+04  3.60062E+03  1.55634E+04  4.72303E+04 -3.48550E+04  4.64756E+04 -6.65707E+04 -3.42678E+02
 -5.32065E+04 -5.61934E+04 -6.95836E+03 -7.66021E+04  3.37820E+04 -5.42321E+04  4.70807E+04 -1.64829E+04
  4.24779E+04  1.15662E+04  3.18823E+04  2.47687E+04  1.60944E+04  2.87621E+04 -5.35629E+03  2.71830E+04
 -2.19180E+04  1.23090E+04 -1.85716E+04 -4.79469E+03  4.92403E+03 -7.23092E+03  2.14113E+04  1.19110E+04
  7.26978E+03  3.43935E+04 -3.19048E+04  3.50105E+04 -6.27700E+04  2.27974E+03 -5.62629E+04 -4.28068E+04
 -1.25272E+04 -6.26598E+04  3.94870E+04 -4.51719E+04  5.71858E+04 -2.36137E+03  3.33129E+04  3.17001E+04
 -6.25678E+03  3.46156E+04 -2.99266E+04  1.49542E+04 -2.87506E+04 -5.12850E+03 -1.59245E+04 -1.01853E+04
 -8.05413E+03 -1.25945E+04 -1.15363E+03 -1.75809E+04  7.49886E+03 -2.26327E+04  1.51465E+04 -1.31020E+04
  1.14773E+04  5.15469E+03 -7.55394E+03  1.28705E+04 -2.03222E+04 -3.65987E+03 -7.97747E+03 -3.25310E+04
  2.24025E+04 -4.28351E+04  4.68628E+04 -1.94266E+04  4.39871E+04  1.88826E+04  1.48631E+04  4.29280E+04
 -1.57308E+04  3.25958E+04 -2.41994E+04  1.46723E+03 -9.48019E+03 -2.74311E+04  2.03796E+04 -3.27243E+04
  4.02524E+04 -8.53943E+03  3.41502E+04  2.36805E+04  1.73890E+04  4.49961E+04 -8.11815E+03  4.78678E+04
 -3.07386E+04  3.20157E+04 -4.04292E+04  8.98293E+03 -4.08736E+04 -1.58196E+04 -2.27927E+04 -3.62947E+04
  7.89666E+03 -3.65840E+04  3.10638E+04 -1.36359E+04  2.87436E+04  1.04080E+04  3.38343E+03  1.87032E+04
 -1.36428E+04  8.15884E+03 -9.97871E+03 -7.20321E+03  6.18332E+03 -1.04183E+04  1.80615E+04  5.90166E+03
  1.29699E+04  2.17283E+04 -6.48966E+03  2.44059E+04 -2.22231E+04  1.03799E+04 -2.69906E+04 -5.60386E+03
 -1.92376E+04 -1.67608E+04 -7.70275E+03 -1.85846E+04  3.83989E+03 -1.73586E+04  1.45709E+04 -1.63637E+04
  2.38162E+04 -1.24316E+04  2.99816E+04  2.10052E+03  2.24379E+04  1.81760E+04  4.70000E+03  3.42121E+04
 -1.74480E+04  2.85567E+04 -2.65843E+04  1.01746E+04 -2.03099E+04 -1.12210E+04 -3.76830E+03 -1.36336E+04
  1.89605E+03 -3.61660E+03 -3.76890E+03  6.24621E+03 -1.46734E+04  5.30579E+03 -1.49956E+04 -6.48673E+03
 -9.51979E+03 -1.72833E+04  4.73588E+03 -2.14564E+04  1.41993E+04 -1.57363E+04  1.63816E+04 -1.76836E+03
  9.93447E+03  1.19410E+04 -6.40373E+02  1.71400E+04 -1.19100E+04  1.00322E+04 -1.69638E+04 -3.40083E+03
 -1.27624E+04 -1.55661E+04 -1.33696E+03 -2.04636E+04  9.53412E+03 -1.70693E+04  1.73812E+04 -8.54733E+03
  1.60441E+04  5.17977E+02  1.09724E+04  4.09677E+03  5.71828E+03  7.02138E+02  9.05952E+03 -2.01625E+03
  1.52364E+04  2.15458E+03  1.61613E+04  1.38328E+04  1.01739E+04  2.75566E+04 -2.89105E+03  2.96503E+04
 -1.80714E+04  2.33209E+04 -2.77713E+04  1.22425E+04 -2.93678E+04 -1.68571E+03 -2.43818E+04 -1.55488E+04
 -1.14993E+04 -2.31125E+04  7.33858E+03 -2.12547E+04  1.85341E+04 -1.13020E+04  1.72828E+04  4.78832E+03
  6.62100E+03  1.29438E+04 -8.11637E+03  1.12079E+04 -1.50157E+04  2.78580E+03 -1.14922E+04 -9.00560E+03
 -4.50937E+02 -1.37231E+04  6.74750E+03 -1.02832E+04  9.36272E+03 -2.03611E+03  2.29634E+03  5.62718E+03
 -5.59544E+03  1.41877E+03 -4.77430E+03 -4.91116E+03  1.82929E+02 -1.15395E+04  8.13956E+03 -1.22742E+04
  1.43961E+04 -5.26916E+03  1.38796E+04  3.12099E+03  1.22881E+04  1.16479E+04  5.59650E+03  1.61461E+04
 -2.51623E+03  1.82957E+04 -1.11931E+04  1.21927E+04 -1.33280E+04  2.82497E+03 -9.44088E+03 -2.43544E+03
 -4.50601E+03 -3.94498E+03 -8.73883E+02  1.22372E+03 -3.01136E+03  2.13928E+03 -4.22983E+03  3.93903E+03
 -8.52550E+03 -4.57688E+02 -9.72384E+03 -7.54906E+03 -3.89928E+03 -1.30400E+04  4.45391E+03 -9.14486E+03
  7.83464E+03 -4.17735E+03  6.03384E+03  2.70717E+03  8.83677E+02  3.58999E+03 -4.52786E+03 -2.21485E+02
 -3.19991E+03 -6.19344E+03 -7.88991E+02 -7.95387E+03  4.35398E+03 -8.92851E+03  1.06102E+04 -4.38429E+03
  1.28638E+04  7.19389E+02  9.72338E+03  8.04391E+03  2.04070E+03  9.98182E+03 -6.30385E+03  9.13706E+03
 -6.68764E+03  3.10953E+03 -4.27950E+03 -1.62723E+03  1.74287E+03 -1.59002E+03  5.60760E+03 -7.38375E+02
  3.99338E+03  3.53106E+03  1.19329E+03  7.41412E+03 -5.09949E+03  6.67859E+03 -8.96146E+03  2.14709E+03
 -5.42980E+03 -4.29188E+03  7.20466E+01 -7.69854E+03  4.10261E+03 -3.50663E+03  3.66679E+03  9.92848E+02
  6.09041E+02  4.00438E+03 -4.14569E+03  5.16309E+03 -6.22317E+03  2.67564E+03 -5.71537E+03 -6.62729E+02
 -3.72589E+03 -6.48968E+03  1.06560E+03 -8.45351E+03  6.99097E+03 -5.56912E+03  7.66407E+03  1.42839E+03
  4.98102E+03  5.44085E+03 -2.09317E+01  8.58941E+03 -5.43535E+03  4.29290E+03 -5.98271E+03 -1.70303E+02
 -5.80451E+03 -6.34951E+03 -1.73629E+03 -5.82382E+03  3.13241E+03 -4.90054E+03  3.59004E+03 -2.81748E+03
  3.11459E+03 -1.55828E+02  1.10226E+01  1.63503E+03  1.02783E+03 -4.54099E+02  4.54055E+02 -2.82012E+03
  4.74503E+03 -1.32381E+03  6.63821E+03  9.76500E+02  6.45481E+03  3.41556E+03  5.86610E+03  8.61195E+03
 -1.16954E+03  9.78486E+03 -8.46472E+03  7.07616E+03 -1.09306E+04  1.74460E+03 -9.15760E+03 -3.21284E+03
 -4.65552E+03 -7.40789E+03 -5.64384E+02 -6.14117E+03  2.63958E+03 -2.83990E+03  1.84478E+03 -2.45086E+03
  1.82309E+03 -1.71958E+03  2.72041E+03 -2.16441E+03  3.65884E+03 -1.54947E+03  4.28360E+03  6.22363E+02
  5.26080E+03  9.48429E+02  2.12458E+03  3.94123E+03 -1.49708E+03  3.81732E+03 -4.38177E+03  2.97029E+03
 -5.57761E+03 -1.04129E+03 -2.62831E+03 -3.30185E+03  5.82277E+02 -5.80393E+03  3.19032E+03 -6.11678E+03
  6.16305E+03 -3.26956E+03  7.59980E+03  3.71733E+02  5.47739E+03  5.27290E+03  7.95473E+02  7.35188E+03
 -2.72788E+03  6.14845E+03 -3.58881E+03  2.15825E+03 -2.44947E+03 -9.36500E+02 -5.77760E+02 -8.57831E+02
 -4.91050E+02 -5.59431E+01 -1.29499E+03  2.17247E+03 -2.49665E+03  4.41067E+02 -5.02642E+03 -2.07574E+02
 -2.06271E+03 -4.89673E+03  8.87335E+02 -5.25596E+03  3.78733E+03 -5.14211E+03  3.84322E+03 -1.09021E+03
  3.98480E+03  3.76728E+03  1.51902E+03  3.57262E+03 -1.26244E+03  5.12807E+03 -2.40486E+03  3.39377E+03
 -4.13173E+03  9.33882E+02 -3.85023E+03 -2.69704E+03 -3.53874E+02 -4.13623E+03  1.89935E+03 -3.16601E+03
  3.07761E+03 -1.74566E+03  2.01334E+03  5.37732E+02  4.40413E+02  1.94041E+03  5.64751E+02  8.60267E+02
  1.47692E+03  5.52121E+02  9.32589E+02  1.39100E+03  1.33407E+03  2.48637E+03  1.66527E+03  2.23372E+03
 -9.87903E+02  3.34393E+03 -2.71265E+03  4.47964E+03 -3.63189E+03  1.37811E+03 -4.47484E+03 -7.26692E+02
 -2.15991E+03 -4.33967E+03  1.10025E+03 -5.67931E+03  1.84792E+03 -2.39051E+03  3.22803E+03 -9.04082E+02
  2.97107E+03  1.98117E+03  6.72806E+02  2.31675E+03 -8.18279E+02  1.45853E+03 -1.01500E+03 -1.58585E+02
 -7.61026E+02 -1.38018E+03  1.36564E+03 -1.90490E+03  1.05679E+03 -8.64305E+02  1.36531E+03  6.03885E+02
  1.24603E+03  3.84487E+02  8.48109E+02 -1.61421E+02 -3.45293E+02  9.48330E+02  1.60390E+03 -2.00830E+02
  6.98539E+01 -4.12484E+02  1.55634E+03  8.52133E+02  7.19970E+02  2.70218E+03 -5.92910E+02  3.30797E+03
 -2.02175E+03  9.06119E+02 -2.57344E+03  4.14541E+02 -2.53084E+03 -3.21119E+02 -1.54910E+01 -1.45756E+03
  4.57998E+02 -1.86978E+03  6.87685E+02 -2.60866E+02  7.52376E+02  1.12152E+03 -6.34812E+02  1.35143E+03
 -1.42369E+03  9.32558E+02 -1.75748E+03 -1.61963E+03 -7.44344E+02 -2.33034E+03  5.37831E+02 -1.91326E+03
  3.76044E+01 -1.04023E+03  1.34974E+03 -2.35298E+02  1.46801E+03 -2.96594E+02  5.64273E+02  1.40761E+03
 -4.31037E+02 -4.15253E+02 -7.86324E+02  1.37423E+02  9.75892E+02 -1.37955E+03  1.84351E+03 -1.10565E+03
  9.96088E+02  1.47655E+02  2.41089E+03  6.38164E+02  7.90339E+02  1.36504E+03  3.25514E+02  1.76952E+03
 -1.45516E+03  1.69528E+02 -1.99243E+03 -3.51885E+02 -9.68508E+02 -1.31278E+03  7.76332E+02 -1.25498E+02
  1.75875E+03 -5.57585E+02  3.85530E+02  7.02432E+02 -7.09818E+02  1.49127E+03  4.77274E+02  1.52470E+03
 -1.61538E+02  1.19952E+03 -6.99711E+01  1.38877E+02  9.61871E+01  4.51586E+01 -6.35615E+02  2.36171E+02
 -8.37039E+02  1.49976E+03 -2.34666E+03  6.85963E+02 -2.62463E+03  4.62041E+02 -2.50361E+03 -1.12324E+03
 -1.48583E+03 -2.18323E+03  1.83205E+02 -2.85094E+03  9.93880E+02 -2.56750E+03  2.30984E+03 -7.24681E+02
  2.79467E+03 -3.13436E+02  9.94376E+02  1.23769E+03 -8.29235E+02  1.37087E+03 -4.49111E+02  1.19555E+03
 -9.36883E+02  8.96697E+02 -6.26161E+02 -8.14099E+02 -7.28722E+02  3.33587E+01 -6.22343E+02  3.26978E+02
 -1.10174E+03  3.81524E+02 -5.24142E+02  4.61547E+02  3.02090E+02 -9.43774E+02 -3.47039E+02 -6.70690E+02
  7.73399E+02 -9.43815E+02  1.73382E+02 -6.25212E+01  1.63681E+03  1.21032E+03 -6.32153E+02  1.31244E+03
 -5.52122E+02  2.70793E+03 -1.34485E+03  5.85235E+02 -1.60145E+03  3.34024E+01 -1.25757E+03 -1.66488E+03
 -8.74075E+02 -1.53259E+03 -1.14729E+02 -1.38671E+03  4.98122E+02 -2.73388E+02  9.75306E+02 -1.94594E+02
  5.94182E+02  6.41369E+02 -2.63166E+02  3.18422E+02 -4.33335E+02 -2.79930E+02  3.00426E+02 -3.23077E+02
  9.34229E+02  9.06871E+02  5.95022E+02  4.77122E+02  2.88736E+02  1.79075E+02  8.95987E+02  4.58435E+02
 -1.34044E+03  3.31412E+02 -6.75315E+02  5.26703E+02 -5.76229E+02 -3.65502E+02 -5.15159E+01 -9.25995E+02
  6.37222E+02 -1.23800E+03  4.83612E+02 -1.57826E+02  1.17246E+03 -8.62061E+02  5.20771E+02  7.76480E+02
  3.67169E+02  8.50838E+02 -3.83788E+00  2.47352E+02 -7.53219E+02  1.20797E+02 -9.45704E+02  4.62331E+02
 -2.68197E+02 -2.59046E+02  4.08993E+02  1.38942E+02 -6.37344E+02 -1.08054E+02 -5.06162E+02 -6.10522E+02
 -7.72248E+02  3.68054E+02 -3.41502E+02 -1.41553E+03  1.32040E+03 -8.83994E+02  5.41920E+02 -2.57571E+02
  5.55750E+02 -4.08612E+02  1.22701E+02 -8.35069E+01  1.35101E+01  8.53761E+02 -7.48162E+02  6.60300E+02
