 $NMID ID='MM_0lb_SNR400_19hz_g50_45.RAW', FMTDAT='(8E13.5)'
 TRAMP=1., VOLUME=1. $END
  3.10184E+05 -5.06111E+01  3.37663E+05  2.50906E+05  8.42732E+04  3.37041E+05 -1.32351E+05  2.50333E+05
 -1.89491E+05  8.28891E+04 -1.11241E+05 -3.25165E+04  8.36597E+02 -5.01783E+04  5.37885E+04  3.37710E+02
  3.52708E+04  5.27588E+04 -1.73931E+04  7.47532E+04 -5.98533E+04  6.27796E+04 -8.31761E+04  3.17883E+04
 -8.01242E+04 -1.12695E+04 -5.63044E+04 -5.00927E+04 -1.52140E+04 -6.81813E+04  2.68878E+04 -4.46472E+04
  3.94856E+04  3.49626E+03  1.47753E+04  4.75648E+04 -3.39588E+04  4.70087E+04 -6.55541E+04 -7.43672E+02
 -5.17848E+04 -5.64011E+04 -6.75931E+03 -7.49405E+04  3.30661E+04 -5.31931E+04  4.61712E+04 -1.61547E+04
  4.18795E+04  1.11553E+04  3.09271E+04  2.45025E+04  1.55842E+04  2.89452E+04 -4.90099E+03  2.71623E+04
 -2.20439E+04  1.31550E+04 -1.90632E+04 -3.99931E+03  4.07912E+03 -7.53359E+03  2.11919E+04  1.10306E+04
  7.62093E+03  3.34167E+04 -3.03631E+04  3.44786E+04 -6.08933E+04  2.08707E+03 -5.51834E+04 -4.14457E+04
 -1.25081E+04 -6.13501E+04  3.83018E+04 -4.35060E+04  5.51372E+04 -2.31987E+03  3.19922E+04  3.08328E+04
 -5.93747E+03  3.29894E+04 -2.86968E+04  1.33540E+04 -2.74668E+04 -5.24361E+03 -1.45476E+04 -1.00679E+04
 -7.49441E+03 -1.15805E+04 -8.42597E+02 -1.64426E+04  6.90421E+03 -2.25578E+04  1.47686E+04 -1.41239E+04
  1.25938E+04  4.45551E+03 -6.40166E+03  1.29655E+04 -1.94688E+04 -2.54846E+03 -8.07277E+03 -3.02660E+04
  2.07515E+04 -4.05345E+04  4.47185E+04 -1.84685E+04  4.22419E+04  1.84243E+04  1.46312E+04  4.15217E+04
 -1.53304E+04  3.14524E+04 -2.32669E+04  8.18983E+02 -8.59505E+03 -2.65065E+04  2.05836E+04 -3.10607E+04
  3.86421E+04 -7.32509E+03  3.19829E+04  2.27005E+04  1.53945E+04  4.23870E+04 -8.51695E+03  4.53230E+04
 -2.78845E+04  2.99038E+04 -3.73536E+04  8.66014E+03 -3.85083E+04 -1.51346E+04 -2.16089E+04 -3.48955E+04
  6.36365E+03 -3.42357E+04  2.93427E+04 -1.31096E+04  2.68127E+04  1.06389E+04  3.19000E+03  1.78354E+04
 -1.28676E+04  7.18797E+03 -9.29688E+03 -8.12231E+03  5.74823E+03 -9.50125E+03  1.74934E+04  6.39949E+03
  1.20693E+04  2.07253E+04 -6.78918E+03  2.32287E+04 -2.15929E+04  9.09455E+03 -2.52196E+04 -6.51302E+03
 -1.69186E+04 -1.60805E+04 -5.59810E+03 -1.68131E+04  3.97933E+03 -1.50103E+04  1.25050E+04 -1.42856E+04
  2.06237E+04 -1.16153E+04  2.76843E+04  1.12455E+03  2.11213E+04  1.69942E+04  4.15496E+03  3.20834E+04
 -1.57723E+04  2.71674E+04 -2.59587E+04  9.77509E+03 -2.03437E+04 -1.07289E+04 -4.05909E+03 -1.40068E+04
  2.80765E+03 -3.64746E+03 -2.74646E+03  5.75469E+03 -1.34182E+04  4.74507E+03 -1.31920E+04 -5.14267E+03
 -8.62328E+03 -1.57065E+04  4.56665E+03 -1.92732E+04  1.25075E+04 -1.35553E+04  1.44225E+04 -9.89390E+02
  8.82996E+03  1.07633E+04 -2.24783E+02  1.58103E+04 -1.09505E+04  8.98490E+03 -1.53123E+04 -3.44653E+03
 -1.12717E+04 -1.38458E+04 -1.24405E+03 -1.94243E+04  8.27187E+03 -1.47883E+04  1.62486E+04 -7.08880E+03
  1.45869E+04  7.90038E+02  1.01701E+04  3.96105E+03  5.20707E+03  2.30102E+02  7.31465E+03 -1.27915E+03
  1.46163E+04  2.83477E+03  1.47123E+04  1.27884E+04  9.12269E+03  2.46011E+04 -3.85725E+03  2.60722E+04
 -1.55467E+04  2.02113E+04 -2.40627E+04  9.75508E+03 -2.48473E+04 -1.46764E+03 -2.06954E+04 -1.37161E+04
 -1.02863E+04 -2.03863E+04  6.60785E+03 -1.88547E+04  1.64329E+04 -1.03052E+04  1.49416E+04  3.91515E+03
  6.24437E+03  1.16017E+04 -7.42176E+03  1.05462E+04 -1.32833E+04  2.23544E+03 -1.00884E+04 -7.79129E+03
 -5.19978E+02 -1.24153E+04  6.10833E+03 -9.35806E+03  8.44020E+03 -1.07080E+03  1.43108E+03  4.87288E+03
 -5.64882E+03  1.28448E+03 -3.36942E+03 -3.93268E+03  3.55610E+02 -1.00903E+04  7.37538E+03 -1.00748E+04
  1.22151E+04 -4.39411E+03  1.19716E+04  3.06679E+03  1.02531E+04  8.87953E+03  4.53631E+03  1.41040E+04
 -9.29681E+02  1.55493E+04 -8.97849E+03  1.02638E+04 -1.10636E+04  3.65786E+03 -8.40693E+03 -1.67132E+03
 -4.92098E+03 -3.15928E+03 -1.25485E+03  2.06908E+03 -1.93680E+03  2.75484E+03 -3.92358E+03  3.81181E+03
 -8.18960E+03 -5.59245E+02 -8.74603E+03 -7.47262E+03 -3.15915E+03 -1.13476E+04  3.63648E+03 -8.27525E+03
  6.80389E+03 -3.65711E+03  5.32754E+03  2.09867E+03  8.51624E+02  2.96125E+03 -3.25224E+03  5.33652E+02
 -3.22292E+03 -5.01304E+03 -5.84649E+02 -6.86814E+03  3.71647E+03 -7.46151E+03  9.57147E+03 -4.11531E+03
  1.12941E+04  7.81382E+02  8.06447E+03  5.81686E+03  1.67821E+03  8.38205E+03 -5.45970E+03  7.83921E+03
 -6.23964E+03  2.83641E+03 -3.64502E+03 -8.92766E+02  1.43726E+03 -2.08359E+03  4.78737E+03 -8.72959E+02
  3.62691E+03  3.76561E+03  1.09468E+03  6.56198E+03 -4.35210E+03  6.22992E+03 -7.89010E+03  1.42103E+03
 -4.89808E+03 -3.32549E+03  4.83828E+00 -6.02261E+03  3.65015E+03 -3.36236E+03  3.90663E+03  9.51771E+02
  4.59643E+02  3.32307E+03 -4.20546E+03  4.59048E+03 -4.36881E+03  2.11909E+03 -3.77951E+03 -8.80914E+02
 -2.54181E+03 -5.73509E+03  1.08288E+03 -6.32701E+03  5.63917E+03 -4.63663E+03  6.27664E+03  5.78027E+02
  4.27395E+03  4.90050E+03  4.87839E+02  6.95337E+03 -5.03450E+03  3.79178E+03 -5.59534E+03 -6.91978E+02
 -5.60240E+03 -4.99136E+03 -1.31770E+03 -4.65296E+03  2.42201E+03 -4.30079E+03  2.70964E+03 -2.97720E+03
  2.94314E+03  2.00483E+02 -6.60515E+00  1.75636E+03  8.34367E+02 -1.72247E+02  1.18320E+02 -2.08538E+03
  4.03668E+03 -5.08358E+02  4.93662E+03  4.56591E+02  4.68162E+03  2.65669E+03  5.52382E+03  6.70172E+03
 -1.11476E+03  7.39546E+03 -7.55828E+03  5.95353E+03 -9.53374E+03  1.40435E+03 -7.32115E+03 -2.15060E+03
 -4.49300E+03 -5.99569E+03 -4.51018E+01 -5.11964E+03  2.04915E+03 -1.67285E+03  1.59855E+03 -1.71901E+03
  8.47473E+02 -1.74177E+03  2.21059E+03 -2.47858E+03  3.70227E+03 -1.37952E+03  3.43715E+03  6.49419E+02
  4.51219E+03  1.22439E+03  8.11826E+02  3.45186E+03 -2.04696E+03  2.41593E+03 -3.81290E+03  2.10474E+03
 -4.65242E+03 -1.13832E+03 -1.99352E+03 -2.83221E+03  2.75190E+02 -4.86965E+03  3.01434E+03 -5.19876E+03
  4.41622E+03 -2.32821E+03  6.58915E+03 -1.21433E+01  4.41355E+03  4.19964E+03  9.79497E+02  5.89974E+03
 -2.08271E+03  5.92400E+03 -3.11782E+03  1.75906E+03 -1.78919E+03 -6.57465E+02 -1.53860E+02 -7.32023E+02
 -3.51319E+02  2.85878E+02 -8.74226E+02  1.65553E+03 -2.89345E+03  1.14808E+03 -4.12480E+03 -1.54459E+02
 -8.79924E+02 -3.82445E+03  1.04393E+03 -4.36874E+03  2.79377E+03 -4.45341E+03  2.91257E+03 -8.81131E+02
  3.41464E+03  2.21939E+03  1.59477E+03  2.99505E+03 -7.03008E+02  3.46327E+03 -2.60521E+03  2.81072E+03
 -3.48402E+03 -4.79362E+01 -3.25396E+03 -2.31715E+03  2.50421E+02 -3.07713E+03  1.29980E+03 -2.15380E+03
  2.40338E+03 -1.34507E+03  1.77946E+03  7.96784E+02  9.95494E+01  2.13400E+03  1.13501E+03  6.65201E+01
  1.27931E+03  3.91662E+02  7.74398E+02  8.09501E+02  8.66410E+02  1.96553E+03  1.28961E+03  1.22471E+03
 -1.44519E+03  3.51713E+03 -2.58576E+03  3.62409E+03 -2.46797E+03  1.65985E+03 -3.28291E+03 -7.20149E+01
 -1.05399E+03 -3.57813E+03  8.09324E+02 -4.25305E+03  1.44993E+03 -1.91137E+03  2.90126E+03 -5.08412E+02
  2.57181E+03  1.88713E+03  2.91605E+02  2.21257E+03 -7.47000E+02  1.24095E+03 -5.38043E+02 -7.91142E+01
 -4.87271E+02 -1.80636E+03  1.24570E+03 -1.34976E+03  1.35785E+03 -1.05998E+03  9.16401E+02  8.47248E+02
  6.55276E+02  3.73043E+02  3.16275E+02 -3.45682E+02  1.41289E+02  5.20075E+02  1.71199E+03 -1.27393E+02
  5.29250E+02 -7.10523E+01  1.35850E+03  5.52910E+02  5.28677E+02  2.57588E+03 -5.22074E+01  2.43615E+03
 -1.47368E+03  2.86720E+02 -1.29311E+03  3.87426E+02 -1.50934E+03 -5.88716E+02  2.18615E+02 -1.06215E+03
  8.28684E+01 -1.45838E+03  1.22261E+03 -8.02689E+02  3.35919E+02  7.60103E+02 -6.82613E+02  1.20876E+03
 -1.50881E+03  1.10109E+03 -6.60910E+02 -1.03918E+03 -5.73631E+02 -1.74973E+03  6.31259E+02 -1.16027E+03
  1.23549E+02  1.58444E+02  3.73185E+02  2.49057E+02  1.56891E+03  4.69030E+01  5.45630E+01  6.54121E+02
 -3.90597E+01 -2.84066E+02 -1.39738E+03 -5.17931E+02  8.41162E+02 -5.36007E+02  1.91599E+03 -8.44731E+02
  1.48229E+03  1.34064E+02  2.55900E+03  1.20760E+03  1.27024E+03  1.50553E+03  3.38793E+02  1.45551E+03
 -1.14890E+03 -2.17789E+02 -1.34101E+03  9.92136E+01 -8.91729E+02 -1.32677E+03  4.53352E+02 -7.55104E+02
  1.61362E+03 -4.20638E+02  3.50563E+02  7.48606E+02  7.88478E+01  1.08300E+03  4.60226E+02  1.09882E+03
 -4.27665E+02  1.28240E+03 -4.59273E+02  3.17295E+01 -6.15214E+00  3.98845E+02 -3.31879E+02  4.53560E+02
 -8.83453E+02  7.69509E+02 -1.45133E+03  5.53050E+02 -1.63842E+03  1.28880E+02 -2.38173E+03 -3.72837E+02
 -1.37771E+03 -1.61173E+03  2.40849E+02 -2.39169E+03  4.70133E+02 -2.12882E+03  2.83072E+03 -4.40806E+02
  1.90941E+03 -4.93163E+02  7.19744E+02  1.57506E+03 -1.04618E+03  1.00046E+03 -5.33383E+02  1.19857E+03
 -6.45768E+02  2.90141E+02 -1.18281E+03 -2.21636E+02 -3.97121E+02  2.67118E+02 -6.63162E+02  3.99199E+02
 -7.85589E+02 -4.06830E+02 -6.25472E+02 -1.84140E+01  4.39704E+02 -5.11454E+02  1.26640E+02 -1.06377E+03
  1.13665E+03 -4.31478E+02  1.24042E+02  5.64473E+02  8.06104E+02  7.50370E+02 -4.77757E+02  1.32444E+03
 -9.74669E+02  1.91453E+03 -1.83460E+03  1.46487E+03 -1.57590E+03 -3.58041E+02 -9.85145E+02 -1.16942E+03
 -8.67905E+02 -8.43994E+02  1.80032E+02 -1.15331E+03  3.20206E+02 -6.81458E+02  8.74666E+02 -1.84352E+02
  1.51689E+02  7.67548E+02  4.89217E+02  3.24331E+02 -5.20902E+02  1.73381E+02 -1.82237E+02 -6.32061E+02
  6.88114E+01  6.80105E+00  1.85078E+02  6.78775E+02 -3.32217E+02  5.03695E+02  5.72786E+02 -1.28688E+02
 -5.89849E+02 -2.20948E+02 -2.94148E+02 -1.31099E+02 -2.67744E+02  4.57090E+02 -5.17540E+02 -1.24363E+03
  2.41850E+02 -4.95121E+02  5.36274E+02 -1.07412E+02  6.84853E+02 -4.38709E+02  1.12967E+02  1.03197E+03
  6.54789E+02  6.48210E+02  3.65023E+01  6.07206E+02 -6.02484E+02  7.67401E+02 -7.17227E+02  6.53900E+02
 -1.31790E+02 -3.62974E+02 -5.27259E+02  4.85854E+02 -2.46317E+02 -1.57298E+02 -5.73610E+02  2.26188E+02
 -1.09560E+03  1.27339E+02 -3.84125E+02 -3.35080E+02  5.64360E+02 -1.58073E+03  1.02844E+03 -4.95457E+02
  7.62753E+02  9.45281E+00 -1.67243E+02  3.54066E+02  3.00012E+02  7.92452E+02  1.72508E+02  7.01407E+02
