 $NMID ID='MM_0lb_SNR400_12hz_g55_20.RAW', FMTDAT='(8E13.5)'
 TRAMP=1., VOLUME=1. $END
  3.09544E+05 -1.58478E+02  3.37964E+05  2.50532E+05  8.52920E+04  3.37998E+05 -1.32572E+05  2.51580E+05
 -1.90949E+05  8.33927E+04 -1.12241E+05 -3.20500E+04  2.96532E+02 -4.97760E+04  5.34300E+04 -8.43521E+01
  3.54996E+04  5.27231E+04 -1.65667E+04  7.52036E+04 -6.09519E+04  6.43017E+04 -8.42965E+04  3.23287E+04
 -8.24820E+04 -1.15073E+04 -5.76591E+04 -5.17993E+04 -1.48394E+04 -7.02139E+04  2.79563E+04 -4.70498E+04
  4.02986E+04  3.69407E+03  1.64872E+04  4.82771E+04 -3.42364E+04  4.80248E+04 -6.80922E+04  5.79193E+02
 -5.27936E+04 -5.75418E+04 -7.37991E+03 -7.79321E+04  3.47567E+04 -5.59353E+04  4.89456E+04 -1.88446E+04
  4.36756E+04  1.05656E+04  3.25116E+04  2.67351E+04  1.59420E+04  2.97851E+04 -6.21080E+03  2.78532E+04
 -2.19685E+04  1.20684E+04 -1.89523E+04 -5.41955E+03  6.48942E+03 -7.21272E+03  2.31199E+04  1.27297E+04
  6.78915E+03  3.58675E+04 -3.31399E+04  3.60192E+04 -6.49714E+04  2.03309E+03 -5.79832E+04 -4.37842E+04
 -1.23156E+04 -6.46724E+04  4.01346E+04 -4.58700E+04  6.01160E+04 -2.54909E+03  3.55449E+04  3.40540E+04
 -5.99716E+03  3.81980E+04 -3.07006E+04  1.74857E+04 -3.21064E+04 -3.70291E+03 -1.82425E+04 -1.09863E+04
 -8.38670E+03 -1.43363E+04 -7.07617E+02 -1.88107E+04  7.98159E+03 -2.37412E+04  1.57361E+04 -1.22415E+04
  1.08095E+04  6.15065E+03 -9.44823E+03  1.27572E+04 -2.19552E+04 -5.39799E+03 -9.24135E+03 -3.53784E+04
  2.36694E+04 -4.46653E+04  4.93115E+04 -2.05553E+04  4.64869E+04  2.02699E+04  1.65010E+04  4.58350E+04
 -1.63025E+04  3.51366E+04 -2.68048E+04  2.26950E+03 -1.06328E+04 -2.96964E+04  2.17711E+04 -3.55607E+04
  4.33760E+04 -1.06106E+04  3.81738E+04  2.47786E+04  2.04617E+04  4.89751E+04 -8.21649E+03  5.33022E+04
 -3.32560E+04  3.60041E+04 -4.51688E+04  1.01091E+04 -4.59627E+04 -1.78016E+04 -2.49897E+04 -4.00127E+04
  7.63987E+03 -3.98595E+04  3.31218E+04 -1.63422E+04  3.06486E+04  1.06558E+04  4.98736E+03  2.01976E+04
 -1.41016E+04  9.33807E+03 -1.08475E+04 -7.72252E+03  5.82447E+03 -1.12422E+04  1.86013E+04  6.02459E+03
  1.36450E+04  2.25061E+04 -5.38298E+03  2.64275E+04 -2.28429E+04  1.33913E+04 -3.00061E+04 -4.05951E+03
 -2.30507E+04 -1.82654E+04 -9.30405E+03 -2.24615E+04  3.88845E+03 -2.28326E+04  1.79692E+04 -2.14895E+04
  2.89899E+04 -1.37997E+04  3.63574E+04  3.36267E+03  2.50348E+04  2.27432E+04  4.80320E+03  3.81701E+04
 -1.87548E+04  3.27988E+04 -2.97296E+04  1.10012E+04 -2.15347E+04 -9.55712E+03 -4.23153E+03 -1.38877E+04
  1.02183E+03 -1.76971E+03 -6.70298E+03  7.43161E+03 -1.87753E+04  5.41444E+03 -1.85432E+04 -8.07473E+03
 -1.16971E+04 -2.10448E+04  5.60320E+03 -2.52771E+04  1.68444E+04 -1.84671E+04  2.03456E+04 -1.59801E+03
  1.28306E+04  1.52253E+04 -1.94322E+03  2.17365E+04 -1.47763E+04  1.21093E+04 -2.16364E+04 -4.43036E+03
 -1.58727E+04 -1.88274E+04 -2.07491E+03 -2.56227E+04  1.14680E+04 -2.21269E+04  2.08240E+04 -1.06873E+04
  1.99095E+04 -4.88481E+02  1.37504E+04  4.54057E+03  7.27117E+03  6.48666E+02  1.01241E+04 -1.69492E+03
  1.96090E+04  3.06364E+03  2.25980E+04  1.69483E+04  1.51250E+04  3.38468E+04 -2.73877E+03  3.91603E+04
 -2.28485E+04  3.21063E+04 -3.66674E+04  1.60845E+04 -3.93187E+04 -3.19257E+03 -3.21960E+04 -2.27406E+04
 -1.32019E+04 -3.20462E+04  1.09341E+04 -2.87540E+04  2.52075E+04 -1.41478E+04  2.14124E+04  6.97325E+03
  7.82460E+03  1.64047E+04 -1.04661E+04  1.41751E+04 -1.81324E+04  2.57285E+03 -1.37748E+04 -1.09869E+04
 -6.93158E+02 -1.71667E+04  8.67934E+03 -1.33368E+04  1.22762E+04 -1.84016E+03  3.37031E+03  7.54915E+03
 -7.86523E+03  3.66875E+03 -7.10060E+03 -5.94406E+03 -1.45500E+03 -1.60633E+04  1.06667E+04 -1.65144E+04
  1.94217E+04 -9.46347E+03  2.19834E+04  2.84053E+03  1.88115E+04  1.52449E+04  8.85542E+03  2.50929E+04
 -3.75457E+03  2.64301E+04 -1.67880E+04  1.69570E+04 -1.89210E+04  3.39534E+03 -1.29953E+04 -4.96666E+03
 -6.22520E+03 -5.90172E+03 -5.35240E+02  7.97031E+02 -2.87334E+03  3.30263E+03 -6.63106E+03  4.27632E+03
 -1.23328E+04 -1.25892E+03 -1.23835E+04 -9.80648E+03 -5.01545E+03 -1.67277E+04  5.50544E+03 -1.34299E+04
  1.06510E+04 -5.92549E+03  7.93669E+03  3.41175E+03  1.28559E+02  5.59924E+03 -6.54990E+03 -2.72899E+02
 -5.92191E+03 -8.87797E+03 -8.99255E+02 -1.34890E+04  7.56900E+03 -1.35708E+04  1.70554E+04 -7.63050E+03
  1.88625E+04  2.05417E+03  1.54999E+04  1.13553E+04  2.71402E+03  1.55866E+04 -7.38286E+03  1.30413E+04
 -1.11110E+04  3.72077E+03 -5.53137E+03 -2.80877E+03  1.92136E+03 -3.21255E+03  7.46225E+03 -4.65841E+02
  6.52505E+03  5.52457E+03  1.99615E+03  1.04905E+04 -7.55246E+03  9.86779E+03 -1.32916E+04  3.17165E+03
 -9.31364E+03 -6.47450E+03 -1.53847E+02 -1.12673E+04  6.79139E+03 -5.14495E+03  7.93246E+03  2.74793E+03
  1.94897E+03  7.58689E+03 -6.36964E+03  8.86073E+03 -1.10995E+04  3.74512E+03 -1.02904E+04 -3.82762E+03
 -5.97502E+03 -1.32423E+04  3.36789E+03 -1.46586E+04  1.20086E+04 -7.81374E+03  1.40557E+04  3.03814E+03
  7.84673E+03  1.10430E+04 -9.34639E+02  1.24369E+04 -8.42122E+03  7.51339E+03 -1.09182E+04 -5.94108E+02
 -8.82611E+03 -8.29063E+03 -1.72839E+03 -9.94109E+03  4.96329E+03 -7.57935E+03  5.60288E+03 -3.28222E+03
  3.50954E+03  1.41397E+03 -9.15870E+02  2.36144E+03 -3.26482E+02 -2.72930E+03  1.45244E+03 -5.36153E+03
  8.80589E+03 -3.15841E+03  1.31886E+04  1.29959E+03  1.24268E+04  8.13872E+03  8.55913E+03  1.59793E+04
 -3.74470E+03  1.87021E+04 -1.54756E+04  1.39117E+04 -2.07643E+04  2.55791E+03 -1.68679E+04 -6.96776E+03
 -7.68788E+03 -1.31180E+04 -2.95978E+02 -1.12746E+04  5.23778E+03 -6.24763E+03  3.92453E+03 -3.10985E+03
  2.48996E+03 -2.48153E+03  3.10141E+03 -3.10795E+03  4.70182E+03 -2.78683E+03  6.63191E+03 -1.43914E+02
  8.77002E+03  2.12262E+03  4.21847E+03  7.58143E+03 -2.01381E+03  8.65912E+03 -8.76518E+03  6.80258E+03
 -1.12894E+04 -1.57385E+03 -6.25390E+03 -7.95192E+03 -1.02114E+03 -1.13662E+04  6.89577E+03 -1.24198E+04
  1.15410E+04 -6.66963E+03  1.47740E+04  1.87942E+03  1.07270E+04  1.05255E+04  1.57086E+03  1.38742E+04
 -5.62838E+03  1.05471E+04 -7.70075E+03  4.42203E+03 -5.41171E+03 -2.05316E+03 -2.61866E+03 -9.77710E+02
 -2.96768E+02  1.76836E+02 -2.09777E+03  3.27641E+03 -4.55890E+03  1.74616E+03 -7.84530E+03 -1.31319E+03
 -5.54744E+03 -8.51019E+03 -1.43115E+02 -1.07567E+04  6.81311E+03 -9.53374E+03  9.66658E+03 -2.84030E+03
  1.04650E+04  5.44051E+03  4.46854E+03  9.12344E+03 -2.30288E+03  1.00131E+04 -7.72522E+03  6.15130E+03
 -1.04862E+04  8.93514E+02 -7.92325E+03 -6.83515E+03 -5.71103E+02 -8.16003E+03  4.01660E+03 -7.03450E+03
  6.75720E+03 -2.16698E+03  4.78615E+03  1.66522E+03  1.47487E+03  3.37850E+03  8.84902E+02  1.87437E+03
  2.45048E+03  6.07102E+02  3.16409E+03  1.36439E+03  2.94243E+03  4.48944E+03  2.40318E+03  5.24349E+03
 -2.12193E+03  8.20590E+03 -7.83559E+03  8.71738E+03 -1.05752E+04  2.73576E+03 -1.03892E+04 -3.22254E+03
 -4.73168E+03 -1.00838E+04  1.56166E+03 -1.25996E+04  6.23646E+03 -7.46620E+03  8.52931E+03 -2.37208E+03
  6.81045E+03  4.15569E+03  1.34113E+03  6.06552E+03 -2.42948E+03  3.92051E+03 -4.32413E+03 -2.03265E+01
 -2.09688E+03 -4.53901E+03  2.34262E+03 -4.40338E+03  4.21891E+03 -1.96338E+03  3.97825E+03  1.43171E+03
  2.39691E+03  1.95843E+03  1.05682E+03  1.19357E+03 -7.39331E+02  1.61820E+03  1.69506E+03 -5.24996E+02
  1.34800E+03 -1.07049E+03  4.19338E+03  1.41742E+03  2.32900E+03  5.37323E+03 -2.43349E+02  7.45013E+03
 -5.19998E+03  4.47806E+03 -6.50782E+03  2.14167E+03 -5.66739E+03 -2.45966E+03 -2.19633E+03 -3.83096E+03
  9.58251E+02 -4.28008E+03  2.38326E+03 -2.40873E+03  2.66766E+03  2.01848E+03 -5.43975E+02  3.36781E+03
 -4.24773E+03  1.76922E+03 -4.84214E+03 -2.54958E+03 -2.58828E+03 -5.94908E+03  1.16348E+03 -5.14993E+03
  3.06568E+03 -2.82176E+03  4.10580E+03  6.49390E+01  3.99637E+03  1.41205E+03 -1.79616E+02  2.23334E+03
 -1.44948E+03  1.93411E+03 -2.94014E+03 -1.85838E+03  1.47078E+03 -3.78709E+03  4.69884E+03 -3.67886E+03
  5.91274E+03  5.18031E+02  6.47313E+03  4.18578E+03  1.76174E+03  6.69588E+03 -1.74870E+03  6.39969E+03
 -6.08171E+03  1.68581E+03 -5.18770E+03 -1.16776E+03 -2.85601E+03 -4.29164E+03  1.95201E+03 -3.45125E+03
  4.38033E+03 -1.90374E+03  2.79012E+03  2.15308E+03  6.43287E+02  3.39528E+03 -4.95067E+02  2.52889E+03
 -2.53278E+03  1.78357E+03 -1.60330E+03  3.93910E+02 -7.39695E+02  9.83101E+02 -9.41241E+02  1.75981E+03
 -1.71271E+03  2.63200E+03 -5.07219E+03  2.42387E+03 -6.00090E+03 -2.31691E+02 -8.03665E+03 -4.29937E+03
 -4.35347E+03 -8.51153E+03  1.34157E+03 -9.53838E+03  6.18066E+03 -7.08028E+03  8.27942E+03 -3.26413E+03
  8.43266E+03  1.08702E+03  5.01136E+03  5.97144E+03  2.97979E+02  6.00569E+03 -2.67024E+03  4.60984E+03
 -3.54000E+03  2.24526E+03 -1.79758E+03 -1.04227E+03 -2.56441E+02 -2.71601E+02 -8.49751E+02 -2.60914E+02
 -2.01006E+03  1.55362E+02 -1.55084E+03 -1.31323E+02 -5.62291E+02 -1.60738E+03 -6.75706E+02 -2.15936E+03
  3.34500E+03 -2.21908E+03  3.21095E+03  7.01481E+01  5.16998E+03  3.19060E+03  7.93558E+02  6.03368E+03
 -3.29752E+03  7.63926E+03 -5.96052E+03  4.95337E+03 -6.83233E+03 -1.19558E+03 -5.53830E+03 -4.57739E+03
 -2.34255E+03 -5.79578E+03  1.12159E+03 -5.67820E+03  3.61787E+03 -2.69915E+03  3.33897E+03 -6.45919E+01
  2.41130E+03  1.93923E+03 -2.90015E+02  1.67595E+03 -7.70025E+02 -7.64776E+02 -5.86892E+02 -1.26093E+03
  1.53100E+03 -4.32471E+02  2.23094E+03  4.73596E+02  1.93693E+03  2.48287E+03  3.84670E+02  3.17714E+03
 -2.60299E+03  2.66974E+03 -4.38619E+03 -1.44241E+02 -3.70698E+03 -2.17535E+03 -2.09323E+02 -4.57931E+03
  3.34378E+03 -3.81237E+03  4.08634E+03 -1.16795E+03  4.12837E+03  1.24456E+03  2.53632E+03  3.36999E+03
  7.76028E+02  3.27889E+03 -2.20538E+03  3.38971E+03 -2.38279E+03  2.02540E+03 -2.21653E+03  8.59458E+01
 -5.49930E+02 -2.39502E+02 -1.25166E+03  1.42499E+03 -2.55249E+03  2.97964E+02 -2.84921E+03 -1.01690E+03
 -3.57486E+03 -1.09706E+03 -1.18579E+02 -3.55788E+03  1.93580E+03 -4.03033E+03  3.29286E+03 -1.67389E+03
  3.51896E+03  3.90612E+02  1.77671E+03  2.77464E+03  1.04201E+02  4.03075E+03 -3.05036E+03  2.24965E+03
