 $NMID ID='MM_0lb_SNR400_9hz_g40_75.RAW', FMTDAT='(8E13.5)'
 TRAMP=1., VOLUME=1. $END
  3.10486E+05  7.46258E+02  3.37769E+05  2.50784E+05  8.52518E+04  3.37625E+05 -1.32747E+05  2.51134E+05
 -1.91263E+05  8.40156E+04 -1.12351E+05 -3.21958E+04  1.20020E+03 -5.05324E+04  5.36228E+04 -8.89896E+02
  3.60394E+04  5.29489E+04 -1.65900E+04  7.64887E+04 -6.13464E+04  6.47792E+04 -8.43826E+04  3.23426E+04
 -8.23339E+04 -1.09701E+04 -5.77022E+04 -5.22485E+04 -1.53421E+04 -7.01858E+04  2.83671E+04 -4.68023E+04
  4.07888E+04  3.93536E+03  1.67023E+04  4.75998E+04 -3.41240E+04  4.78510E+04 -6.74329E+04 -2.93557E+02
 -5.47622E+04 -5.72903E+04 -7.31366E+03 -7.87065E+04  3.47006E+04 -5.67372E+04  4.98555E+04 -1.84624E+04
  4.50785E+04  1.14783E+04  3.29720E+04  2.59531E+04  1.57839E+04  3.03740E+04 -6.35972E+03  2.80888E+04
 -2.26459E+04  1.20224E+04 -1.78871E+04 -4.96866E+03  6.75597E+03 -8.29828E+03  2.36316E+04  1.36359E+04
  7.98866E+03  3.65929E+04 -3.29028E+04  3.70041E+04 -6.48943E+04  2.45466E+03 -5.87178E+04 -4.38656E+04
 -1.27052E+04 -6.53739E+04  4.12478E+04 -4.71475E+04  5.99419E+04 -2.03338E+03  3.62353E+04  3.47979E+04
 -5.14344E+03  3.93501E+04 -3.10295E+04  1.74323E+04 -3.30875E+04 -3.90140E+03 -1.91756E+04 -1.14275E+04
 -9.55348E+03 -1.49866E+04 -6.53515E+02 -1.92250E+04  7.86456E+03 -2.39083E+04  1.48283E+04 -1.28608E+04
  1.10311E+04  6.28750E+03 -9.92892E+03  1.27084E+04 -2.28681E+04 -6.03206E+03 -7.96035E+03 -3.67971E+04
  2.46380E+04 -4.64868E+04  5.18328E+04 -2.05450E+04  4.80319E+04  2.11886E+04  1.68142E+04  4.62431E+04
 -1.64975E+04  3.53605E+04 -2.71660E+04  3.11422E+03 -1.09521E+04 -2.87011E+04  2.15262E+04 -3.60581E+04
  4.41568E+04 -1.00561E+04  4.00963E+04  2.45100E+04  2.06720E+04  5.07720E+04 -8.07437E+03  5.50173E+04
 -3.46547E+04  3.68867E+04 -4.69737E+04  9.98894E+03 -4.58584E+04 -1.87348E+04 -2.48483E+04 -4.07757E+04
  7.45042E+03 -4.12489E+04  3.37776E+04 -1.66658E+04  3.04606E+04  1.04117E+04  5.12172E+03  2.08993E+04
 -1.40320E+04  9.08574E+03 -1.13028E+04 -7.64649E+03  6.32846E+03 -1.14931E+04  1.85799E+04  6.09133E+03
  1.46122E+04  2.20673E+04 -5.40461E+03  2.66894E+04 -2.34002E+04  1.40129E+04 -3.12261E+04 -2.96593E+03
 -2.55269E+04 -1.82624E+04 -1.12434E+04 -2.44187E+04  3.98521E+03 -2.57472E+04  1.91676E+04 -2.21090E+04
  3.05105E+04 -1.43634E+04  3.71931E+04  4.38923E+03  2.73711E+04  2.31017E+04  4.12079E+03  4.03140E+04
 -2.01691E+04  3.30843E+04 -3.00585E+04  1.19077E+04 -2.22980E+04 -9.95389E+03 -4.83987E+03 -1.28664E+04
  1.04385E+03 -1.30726E+03 -6.99698E+03  7.87828E+03 -1.89246E+04  4.72079E+03 -1.90520E+04 -9.53574E+03
 -1.16756E+04 -2.22978E+04  5.83198E+03 -2.69729E+04  1.67918E+04 -2.00383E+04  2.19131E+04 -2.33805E+03
  1.40111E+04  1.50562E+04 -1.68765E+03  2.25318E+04 -1.66553E+04  1.31450E+04 -2.26148E+04 -4.73162E+03
 -1.67986E+04 -2.02318E+04 -2.36797E+03 -2.72146E+04  1.18574E+04 -2.21639E+04  2.29409E+04 -1.19391E+04
  2.12724E+04  4.58045E+01  1.60512E+04  6.05318E+03  8.20655E+03  2.05515E+03  1.21645E+04 -1.73353E+03
  2.08425E+04  3.43389E+03  2.42924E+04  1.68909E+04  1.60933E+04  3.70057E+04 -2.73924E+03  4.23599E+04
 -2.48791E+04  3.53114E+04 -4.00345E+04  1.83629E+04 -4.29028E+04 -3.53727E+03 -3.54442E+04 -2.57861E+04
 -1.36199E+04 -3.60202E+04  1.23100E+04 -3.19306E+04  2.69960E+04 -1.53577E+04  2.28331E+04  7.70811E+03
  7.60815E+03  1.80453E+04 -1.11393E+04  1.47383E+04 -1.88999E+04  2.75225E+03 -1.39975E+04 -1.21256E+04
  1.11816E+02 -1.85156E+04  1.02125E+04 -1.37131E+04  1.27024E+04 -1.21904E+03  2.91977E+03  8.82401E+03
 -7.88184E+03  4.40916E+03 -7.79652E+03 -7.33350E+03 -2.82933E+03 -1.80548E+04  1.14918E+04 -1.88659E+04
  2.19439E+04 -1.02897E+04  2.55335E+04  3.99506E+03  2.18902E+04  1.77761E+04  1.00266E+04  2.72452E+04
 -5.57328E+03  2.95439E+04 -1.93210E+04  1.86645E+04 -2.12515E+04  3.75104E+03 -1.50204E+04 -4.85451E+03
 -6.33121E+03 -7.24345E+03 -6.54898E+02  7.78908E+02 -2.87497E+03  2.66918E+03 -7.36637E+03  4.79750E+03
 -1.31187E+04 -1.00200E+03 -1.46350E+04 -1.15373E+04 -5.40275E+03 -1.79932E+04  5.49584E+03 -1.48884E+04
  1.25137E+04 -7.13198E+03  8.61028E+03  3.53461E+03 -4.16067E+02  5.91806E+03 -7.92381E+03 -3.02845E+02
 -7.57944E+03 -9.76494E+03 -1.30553E+03 -1.48269E+04  8.78342E+03 -1.55316E+04  1.86424E+04 -8.97553E+03
  2.27666E+04  2.68224E+03  1.65448E+04  1.25740E+04  3.87853E+03  1.83420E+04 -9.82797E+03  1.45313E+04
 -1.19076E+04  4.27086E+03 -6.75731E+03 -3.71838E+03  2.16479E+03 -4.88488E+03  8.17314E+03 -5.39460E+02
  7.50924E+03  6.23060E+03  1.20940E+03  1.22308E+04 -8.65704E+03  1.20331E+04 -1.51056E+04  2.48652E+03
 -9.94658E+03 -7.30830E+03 -7.03571E+02 -1.29142E+04  8.06974E+03 -6.27298E+03  9.05187E+03  2.85135E+03
  2.24992E+03  9.85696E+03 -7.25807E+03  1.17891E+04 -1.24154E+04  5.29537E+03 -1.32737E+04 -5.09305E+03
 -7.47061E+03 -1.44086E+04  3.73275E+03 -1.70034E+04  1.44216E+04 -1.04112E+04  1.54066E+04  3.35058E+03
  9.61519E+03  1.30504E+04 -1.57009E+03  1.47230E+04 -1.10943E+04  8.83927E+03 -1.27293E+04 -1.30843E+03
 -9.79500E+03 -9.99706E+03 -1.48424E+03 -1.08398E+04  6.18692E+03 -9.09958E+03  7.60631E+03 -2.57463E+03
  4.51832E+03  1.94893E+03 -8.99111E+02  2.52211E+03 -6.03299E+02 -3.78434E+03  1.98666E+03 -8.01874E+03
  1.05759E+04 -4.20910E+03  1.52710E+04  1.66548E+03  1.47134E+04  1.08660E+04  1.03373E+04  1.98159E+04
 -4.41803E+03  2.35258E+04 -1.86923E+04  1.64689E+04 -2.48294E+04  3.23998E+03 -1.98863E+04 -8.38536E+03
 -9.46726E+03 -1.54895E+04 -1.18662E+03 -1.41092E+04  5.22257E+03 -7.28219E+03  4.71936E+03 -4.81857E+03
  3.93112E+03 -3.32733E+03  3.83413E+03 -3.44056E+03  6.06200E+03 -3.59568E+03  7.41711E+03 -1.59104E+03
  9.77537E+03  2.57347E+03  5.60765E+03  9.14765E+03 -2.33182E+03  1.01917E+04 -1.07286E+04  8.70316E+03
 -1.42393E+04 -1.42294E+03 -8.56137E+03 -1.01588E+04 -9.42149E+02 -1.50311E+04  8.75401E+03 -1.47435E+04
  1.55711E+04 -8.14475E+03  1.89542E+04  2.11546E+03  1.28706E+04  1.29116E+04  1.85663E+03  1.74241E+04
 -6.99346E+03  1.38181E+04 -9.93203E+03  5.00127E+03 -6.80533E+03 -2.19171E+03 -2.83591E+03 -2.15625E+03
 -2.12410E+03  1.45093E+02 -1.80031E+03  2.30032E+03 -5.52531E+03  1.60324E+03 -9.43132E+03 -8.11634E+02
 -6.61297E+03 -9.33877E+03 -2.81601E+02 -1.34872E+04  8.60216E+03 -1.22327E+04  1.34835E+04 -3.37629E+03
  1.35415E+04  6.63102E+03  6.95366E+03  1.22770E+04 -2.90918E+03  1.43032E+04 -9.87286E+03  8.22169E+03
 -1.42177E+04  8.88970E+02 -1.01900E+04 -8.24178E+03 -6.37996E+02 -1.10569E+04  6.11738E+03 -8.45352E+03
  8.62338E+03 -3.11251E+03  6.04692E+03  2.61701E+03  2.62659E+03  4.32023E+03  1.41360E+03  1.59805E+03
  2.67871E+03  9.79897E+02  3.06155E+03  2.47387E+03  4.33064E+03  4.85237E+03  3.71244E+03  7.34772E+03
 -2.91864E+03  1.14100E+04 -9.57243E+03  1.12176E+04 -1.44848E+04  2.58429E+03 -1.41363E+04 -5.21842E+03
 -6.61602E+03 -1.43363E+04  2.53860E+03 -1.65452E+04  9.25737E+03 -9.73403E+03  1.06870E+04 -2.24023E+03
  8.51924E+03  5.14206E+03  1.44851E+03  8.27989E+03 -3.22222E+03  4.47417E+03 -6.45209E+03 -1.18780E+03
 -2.49273E+03 -5.70065E+03  3.69763E+03 -5.93594E+03  5.49563E+03 -3.20262E+03  5.60753E+03  3.49985E+02
  2.58150E+03  3.66818E+03  1.04275E+03  2.45242E+03 -1.09051E+03  1.93492E+03  1.33962E+03  5.20721E+01
  2.58293E+03 -4.92645E+02  6.00121E+03  1.94051E+03  3.77097E+03  7.68489E+03 -1.11862E+03  9.63041E+03
 -6.88667E+03  6.77142E+03 -9.82047E+03  1.58461E+03 -8.04967E+03 -3.64930E+03 -3.04824E+03 -5.61874E+03
  1.28157E+03 -5.38294E+03  3.02127E+03 -1.90551E+03  3.03240E+03  2.91109E+03 -8.37084E+02  5.04774E+03
 -6.01262E+03  2.82189E+03 -7.42403E+03 -3.58470E+03 -4.17219E+03 -7.47168E+03  9.57876E+02 -7.27853E+03
  4.98821E+03 -4.02738E+03  5.23552E+03 -3.46087E+02  4.66932E+03  2.13335E+03 -8.94217E+02  3.77268E+03
 -2.64742E+03  1.32895E+03 -3.19598E+03 -2.56552E+03  1.43857E+03 -5.93101E+03  6.59920E+03 -5.08034E+03
  8.72884E+03  4.85055E+02  9.56847E+03  5.84869E+03  2.88938E+03  9.64106E+03 -3.10219E+03  8.54289E+03
 -7.48314E+03  4.33767E+03 -8.08595E+03 -1.36519E+03 -4.07097E+03 -5.77312E+03  1.62101E+03 -6.19618E+03
  6.22488E+03 -2.66405E+03  4.76952E+03  3.11150E+03  1.49366E+03  4.89871E+03 -3.12854E+02  3.96619E+03
 -2.66901E+03  3.75763E+03 -2.92186E+03  1.15803E+03 -1.92343E+03  6.97009E+02 -1.28520E+03  2.09211E+03
 -2.43476E+03  3.91584E+03 -6.14019E+03  3.40766E+03 -9.61409E+03  1.96518E+02 -1.10311E+04 -6.32087E+03
 -5.55122E+03 -1.25497E+04  2.54944E+03 -1.49314E+04  8.53596E+03 -1.08169E+04  1.37835E+04 -4.19455E+03
  1.24568E+04  2.85517E+03  8.36726E+03  9.04245E+03  1.24305E+03  9.96962E+03 -3.81011E+03  7.97693E+03
 -5.71465E+03  2.92107E+03 -4.24527E+03 -1.47937E+03 -5.56678E+02 -9.05099E+01 -8.41868E+02 -8.84946E+01
 -1.19711E+03 -6.85990E+02 -2.53126E+03  2.91981E+01 -2.58903E+02 -2.61296E+03 -4.69463E+01 -3.65257E+03
  4.79788E+03 -2.99262E+03  5.64274E+03 -2.19265E+02  6.59281E+03  4.99071E+03  1.56224E+03  9.27410E+03
 -4.89722E+03  1.11440E+04 -9.97852E+03  6.61005E+03 -1.21066E+04 -1.20858E+03 -9.66725E+03 -7.20884E+03
 -3.71797E+03 -1.00423E+04  2.69957E+03 -8.43289E+03  6.36220E+03 -5.33837E+03  5.77347E+03  6.74369E+01
  3.84635E+03  3.99951E+03 -6.31868E+02  3.60909E+03 -1.28499E+03  1.54901E+02  9.11265E+01 -2.18219E+03
  2.68191E+03 -1.11020E+03  3.46862E+03  6.32840E+02  2.24234E+03  3.97194E+03  1.58505E+02  6.05693E+03
 -4.21264E+03  4.10690E+03 -6.96710E+03  6.57829E+02 -5.27960E+03 -4.49616E+03 -1.15414E+03 -9.29755E+03
  4.97316E+03 -6.89469E+03  7.86723E+03 -1.63878E+03  7.38169E+03  1.90343E+03  4.09618E+03  6.41578E+03
  5.21999E+02  7.31161E+03 -2.88052E+03  4.85635E+03 -4.09552E+03  2.94758E+03 -2.94691E+03  3.01409E+02
 -1.99654E+03 -5.86890E+02 -1.21574E+03  9.53818E+02 -3.55581E+03  1.21276E+03 -6.38353E+03 -1.49612E+03
 -5.63979E+03 -4.59107E+03 -1.57722E+03 -6.57815E+03  2.50192E+03 -7.66913E+03  6.16382E+03 -3.51181E+03
  5.77485E+03  1.00168E+03  3.95709E+03  4.82545E+03 -8.65721E+02  7.28306E+03 -4.69656E+03  4.75419E+03
