 $NMID ID='MM_0lb_SNR400_10hz_g55_54.RAW', FMTDAT='(8E13.5)'
 TRAMP=1., VOLUME=1. $END
  3.10115E+05  4.92762E+02  3.38169E+05  2.50670E+05  8.48911E+04  3.38672E+05 -1.32153E+05  2.52011E+05
 -1.90946E+05  8.37143E+04 -1.12934E+05 -3.19391E+04  5.98987E+01 -5.02478E+04  5.38484E+04 -9.83211E+01
  3.49349E+04  5.25833E+04 -1.70642E+04  7.56499E+04 -6.05158E+04  6.43719E+04 -8.54834E+04  3.24150E+04
 -8.30526E+04 -1.11263E+04 -5.83136E+04 -5.28775E+04 -1.52182E+04 -7.10442E+04  2.81313E+04 -4.64085E+04
  4.15229E+04  3.95725E+03  1.70094E+04  4.90473E+04 -3.50942E+04  4.78443E+04 -6.83994E+04  7.07957E+02
 -5.54219E+04 -5.76281E+04 -7.23845E+03 -7.92158E+04  3.53702E+04 -5.77140E+04  4.91945E+04 -1.89284E+04
  4.51191E+04  1.17299E+04  3.29283E+04  2.59096E+04  1.57682E+04  3.03835E+04 -5.66924E+03  2.65840E+04
 -2.22688E+04  1.20065E+04 -1.80358E+04 -5.26272E+03  6.37271E+03 -8.40975E+03  2.34893E+04  1.37525E+04
  7.87538E+03  3.75783E+04 -3.46693E+04  3.70002E+04 -6.59394E+04  1.38083E+03 -5.82724E+04 -4.45883E+04
 -1.22619E+04 -6.57178E+04  4.14101E+04 -4.81598E+04  6.13306E+04 -2.32049E+03  3.61098E+04  3.42230E+04
 -6.02650E+03  3.95530E+04 -3.12055E+04  1.78554E+04 -3.27904E+04 -2.95020E+03 -1.82458E+04 -1.24512E+04
 -9.72258E+03 -1.54530E+04 -6.64097E+02 -2.00151E+04  7.73098E+03 -2.40341E+04  1.56194E+04 -1.29613E+04
  1.08971E+04  6.03388E+03 -1.08258E+04  1.23141E+04 -2.32294E+04 -6.70996E+03 -9.03192E+03 -3.70006E+04
  2.54054E+04 -4.57967E+04  5.16628E+04 -2.05156E+04  4.79525E+04  2.13331E+04  1.70478E+04  4.69573E+04
 -1.64544E+04  3.64331E+04 -2.78224E+04  2.18073E+03 -1.09070E+04 -2.91576E+04  2.18281E+04 -3.67029E+04
  4.45561E+04 -1.06007E+04  3.97595E+04  2.47795E+04  2.09432E+04  5.12795E+04 -8.50761E+03  5.67711E+04
 -3.46816E+04  3.77683E+04 -4.70784E+04  1.10826E+04 -4.72979E+04 -1.84869E+04 -2.64161E+04 -4.22296E+04
  7.91202E+03 -4.15336E+04  3.48111E+04 -1.69627E+04  3.17854E+04  1.12280E+04  4.95013E+03  2.00960E+04
 -1.34582E+04  1.00210E+04 -1.15629E+04 -6.57928E+03  6.03830E+03 -1.08106E+04  1.83085E+04  6.51167E+03
  1.42736E+04  2.26986E+04 -5.44476E+03  2.66488E+04 -2.26052E+04  1.43358E+04 -3.17443E+04 -2.93733E+03
 -2.52965E+04 -1.78424E+04 -1.14804E+04 -2.45904E+04  4.08663E+03 -2.53235E+04  1.93242E+04 -2.19262E+04
  3.12962E+04 -1.32486E+04  3.76647E+04  4.24076E+03  2.67119E+04  2.44210E+04  4.46722E+03  4.04135E+04
 -1.94757E+04  3.35627E+04 -3.07480E+04  1.16677E+04 -2.27678E+04 -9.32995E+03 -4.66415E+03 -1.26112E+04
  1.77533E+03 -1.26647E+03 -6.90581E+03  7.56277E+03 -2.03884E+04  4.28321E+03 -1.90182E+04 -8.95574E+03
 -1.15897E+04 -2.22324E+04  6.55296E+03 -2.69226E+04  1.73158E+04 -1.95762E+04  2.18280E+04 -2.18797E+03
  1.45734E+04  1.62027E+04 -1.70058E+03  2.27956E+04 -1.67254E+04  1.31104E+04 -2.29052E+04 -5.01983E+03
 -1.64664E+04 -2.06783E+04 -1.39377E+03 -2.73915E+04  1.30414E+04 -2.33791E+04  2.37449E+04 -1.13485E+04
  2.17936E+04  4.07931E+01  1.55921E+04  5.13271E+03  8.79699E+03  1.41188E+03  1.13303E+04 -1.60561E+03
  2.13209E+04  3.34629E+03  2.53144E+04  1.70256E+04  1.72542E+04  3.72860E+04 -2.25159E+03  4.38498E+04
 -2.40021E+04  3.60446E+04 -4.10010E+04  1.82351E+04 -4.32201E+04 -3.31243E+03 -3.59386E+04 -2.52655E+04
 -1.36884E+04 -3.57090E+04  1.29268E+04 -3.15749E+04  2.66709E+04 -1.42873E+04  2.36844E+04  8.21867E+03
  8.24733E+03  1.79831E+04 -1.19037E+04  1.54636E+04 -1.95752E+04  2.01848E+03 -1.45055E+04 -1.19727E+04
  1.75225E+02 -1.89850E+04  1.01468E+04 -1.43630E+04  1.35022E+04 -1.01536E+03  3.65750E+03  8.19149E+03
 -8.89301E+03  3.57468E+03 -8.39643E+03 -7.03928E+03 -1.47151E+03 -1.74229E+04  1.15574E+04 -1.89916E+04
  2.24624E+04 -1.02823E+04  2.59066E+04  3.05918E+03  2.17137E+04  1.77249E+04  1.05054E+04  2.86547E+04
 -5.42595E+03  3.01322E+04 -1.94066E+04  1.89067E+04 -2.19258E+04  4.45051E+03 -1.55553E+04 -5.93461E+03
 -6.41428E+03 -7.56701E+03 -1.96782E+02  3.29051E+02 -2.52965E+03  3.04175E+03 -6.67081E+03  5.08970E+03
 -1.46910E+04 -1.05772E+03 -1.43813E+04 -1.16660E+04 -5.93729E+03 -1.86487E+04  7.11934E+03 -1.52136E+04
  1.26181E+04 -5.66571E+03  9.05874E+03  3.67239E+03 -2.76244E+02  6.33982E+03 -7.56708E+03 -2.05826E+01
 -7.07237E+03 -9.49342E+03 -6.40000E+01 -1.52071E+04  7.63206E+03 -1.64819E+04  1.89876E+04 -8.88810E+03
  2.26656E+04  2.06009E+03  1.67430E+04  1.31656E+04  3.82095E+03  1.81709E+04 -9.96310E+03  1.47858E+04
 -1.20835E+04  5.10937E+03 -6.64968E+03 -2.95478E+03  2.19416E+03 -4.38862E+03  8.38178E+03 -1.34169E+03
  7.31375E+03  6.91030E+03  9.15969E+02  1.16901E+04 -9.36581E+03  1.11541E+04 -1.44772E+04  2.63932E+03
 -1.02519E+04 -7.67635E+03  2.42637E+02 -1.31673E+04  8.53433E+03 -6.69510E+03  8.54068E+03  3.69366E+03
  2.27334E+03  9.19578E+03 -8.19559E+03  1.11549E+04 -1.29534E+04  4.95389E+03 -1.33359E+04 -5.07867E+03
 -7.52642E+03 -1.47528E+04  3.38343E+03 -1.71051E+04  1.38912E+04 -1.09878E+04  1.70280E+04  3.43498E+03
  9.59359E+03  1.24614E+04 -1.03058E+03  1.58212E+04 -1.12009E+04  7.90393E+03 -1.13293E+04 -1.17307E+03
 -1.08852E+04 -9.94570E+03 -2.18789E+03 -1.08569E+04  6.38642E+03 -9.53411E+03  7.34090E+03 -3.99256E+03
  4.36690E+03  1.94733E+03 -1.32115E+03  2.10282E+03 -1.01748E+03 -2.64054E+03  3.03796E+03 -7.09538E+03
  1.09444E+04 -4.37196E+03  1.56168E+04  1.97132E+03  1.46945E+04  1.08108E+04  1.01025E+04  1.99766E+04
 -4.97581E+03  2.30192E+04 -1.86124E+04  1.74446E+04 -2.45645E+04  4.00831E+03 -1.93902E+04 -7.94777E+03
 -9.82709E+03 -1.59119E+04 -4.45916E+02 -1.33192E+04  5.02845E+03 -7.86625E+03  5.14036E+03 -4.99052E+03
  3.58687E+03 -3.44198E+03  3.71126E+03 -3.19298E+03  5.33602E+03 -3.83902E+03  6.89137E+03 -1.36734E+03
  1.01419E+04  2.15470E+03  4.96508E+03  8.98176E+03 -1.97976E+03  1.05701E+04 -1.06950E+04  7.93252E+03
 -1.43131E+04 -1.26517E+03 -8.82556E+03 -1.00436E+04 -1.03318E+03 -1.45712E+04  8.38620E+03 -1.52150E+04
  1.55895E+04 -8.16315E+03  1.82325E+04  2.35165E+03  1.25944E+04  1.26416E+04  1.31956E+03  1.61898E+04
 -6.74584E+03  1.34586E+04 -9.33706E+03  4.96885E+03 -6.40777E+03 -2.24795E+03 -3.33590E+03 -1.55121E+03
 -2.09387E+03  2.41946E+02 -2.64135E+03  2.48167E+03 -5.90065E+03  1.91535E+03 -9.94429E+03 -1.90323E+03
 -6.11628E+03 -9.66291E+03 -4.00658E+02 -1.36723E+04  8.71050E+03 -1.21213E+04  1.31936E+04 -3.45224E+03
  1.29997E+04  6.81020E+03  5.70413E+03  1.17970E+04 -2.52944E+03  1.41358E+04 -9.91248E+03  8.47326E+03
 -1.26086E+04  6.99590E+02 -9.72107E+03 -8.20773E+03 -4.25507E+02 -1.15272E+04  6.73478E+03 -8.37190E+03
  8.73677E+03 -2.40233E+03  5.70733E+03  1.93969E+03  2.38590E+03  3.46866E+03  1.24986E+03  2.17987E+03
  3.16617E+03  4.51979E+02  3.90977E+03  2.12341E+03  4.51953E+03  4.48012E+03  3.24337E+03  7.63802E+03
 -2.46332E+03  1.05318E+04 -9.67781E+03  1.05563E+04 -1.43705E+04  2.50822E+03 -1.39573E+04 -5.89692E+03
 -7.32810E+03 -1.38094E+04  2.86876E+03 -1.48019E+04  7.81867E+03 -8.94592E+03  1.14927E+04 -2.63027E+03
  8.98432E+03  5.47380E+03  1.80333E+03  7.88028E+03 -3.68991E+03  4.93076E+03 -5.53770E+03 -1.84933E+03
 -2.60527E+03 -5.12993E+03  2.78946E+03 -6.57367E+03  5.73728E+03 -2.08134E+03  4.95850E+03  1.75387E+03
  3.54895E+03  2.68015E+03  1.69748E+03  9.46348E+02 -1.61168E+03  1.99158E+03  1.66891E+03 -9.34259E+02
  2.48101E+03 -1.17112E+03  5.57152E+03  1.62768E+03  3.21950E+03  6.78954E+03 -1.24889E+03  9.36335E+03
 -5.94416E+03  6.26540E+03 -8.17648E+03  1.89245E+03 -8.00529E+03 -2.76284E+03 -2.82262E+03 -4.82413E+03
  9.15717E+02 -5.46848E+03  3.20238E+03 -2.25333E+03  1.95700E+03  2.92306E+03 -2.36412E+03  4.59072E+03
 -5.48100E+03  3.13294E+03 -6.17928E+03 -3.04486E+03 -3.25461E+03 -7.50518E+03  1.08444E+03 -7.05648E+03
  4.14515E+03 -4.72814E+03  4.91292E+03 -4.37776E+02  4.64784E+03  1.61042E+03  1.51595E+02  3.69042E+03
 -2.35254E+03  1.68308E+03 -3.08102E+03 -1.90874E+03  1.39688E+03 -5.31465E+03  6.89957E+03 -4.21836E+03
  7.84763E+03  1.02498E+03  7.99192E+03  5.96808E+03  2.88653E+03  9.28290E+03 -2.51357E+03  8.52277E+03
 -7.33674E+03  2.76017E+03 -7.80181E+03 -2.08959E+03 -3.64812E+03 -5.79709E+03  1.96849E+03 -5.28616E+03
  5.32011E+03 -3.49727E+03  5.30618E+03  2.53210E+03  1.53090E+03  5.01833E+03 -1.13547E+03  4.74453E+03
 -2.02881E+03  2.65517E+03 -1.91628E+03  1.49823E+03 -1.55244E+03  3.68940E+02 -1.10024E+03  2.75870E+03
 -2.15995E+03  3.41357E+03 -6.29491E+03  2.63645E+03 -9.30575E+03  7.38783E+02 -1.03709E+04 -6.36058E+03
 -4.88161E+03 -1.19268E+04  1.87706E+03 -1.37253E+04  8.02192E+03 -1.00915E+04  1.36846E+04 -3.50302E+03
  1.14754E+04  2.97478E+03  8.57234E+03  8.18117E+03  1.14352E+03  9.11016E+03 -3.58606E+03  6.51594E+03
 -4.99595E+03  3.30990E+03 -3.11890E+03 -3.89551E+02 -1.01040E+03 -8.56701E+02 -3.11851E+02 -2.25416E+02
 -1.78218E+03  3.75477E+02 -1.69539E+03 -3.60441E+02 -1.04721E+03 -2.34204E+03  1.54141E+02 -3.66958E+03
  4.06025E+03 -3.74464E+03  4.73822E+03 -5.24231E+01  6.49695E+03  5.09630E+03  1.77025E+03  8.38687E+03
 -4.21936E+03  1.08084E+04 -9.74878E+03  6.16917E+03 -1.08403E+04 -1.49811E+03 -7.75855E+03 -6.73941E+03
 -3.15923E+03 -9.05836E+03  2.30682E+03 -8.44630E+03  5.79490E+03 -4.58617E+03  5.48627E+03  1.57892E+02
  3.58507E+03  3.24055E+03 -4.99413E+02  2.88558E+03 -1.89462E+03 -2.73127E+02 -2.46889E+02 -2.63673E+03
  2.65008E+03 -1.04705E+03  3.50709E+03  1.47203E+03  2.44979E+03  4.06206E+03 -5.30658E+01  4.74264E+03
 -3.96401E+03  4.47792E+03 -6.32660E+03  8.07204E+02 -4.58297E+03 -4.42046E+03 -7.97121E+02 -6.65100E+03
  4.04556E+03 -5.26930E+03  6.56765E+03 -2.41204E+03  6.97682E+03  2.10253E+03  3.93899E+03  5.42254E+03
  7.46453E+02  6.48713E+03 -3.18761E+03  4.68724E+03 -3.95725E+03  2.72968E+03 -3.13602E+03  5.56504E+02
 -1.35599E+03 -3.54524E+02 -2.12673E+03 -1.53981E+01 -2.86170E+03  4.45829E+02 -4.15746E+03 -1.39131E+03
 -3.42575E+03 -2.63470E+03 -1.68933E+03 -5.09221E+03  3.02706E+03 -7.13569E+03  5.96511E+03 -2.76070E+03
  5.52110E+03  6.03586E+02  3.05066E+03  3.78285E+03 -9.12784E+02  5.81996E+03 -3.36089E+03  4.75918E+03
