 $NMID ID='MM_0lb_SNR400_15hz_g55_38.RAW', FMTDAT='(8E13.5)'
 TRAMP=1., VOLUME=1. $END
  3.09458E+05  3.78196E+02  3.37184E+05  2.50284E+05  8.46004E+04  3.37780E+05 -1.32606E+05  2.50863E+05
 -1.90102E+05  8.30789E+04 -1.11782E+05 -3.26909E+04  6.76300E+02 -5.00269E+04  5.37996E+04  1.28971E+02
  3.56398E+04  5.28550E+04 -1.67307E+04  7.51018E+04 -6.06483E+04  6.34115E+04 -8.49206E+04  3.21247E+04
 -8.12243E+04 -1.16562E+04 -5.68184E+04 -5.10225E+04 -1.56277E+04 -6.96366E+04  2.72244E+04 -4.56656E+04
  4.00309E+04  3.53516E+03  1.60030E+04  4.80865E+04 -3.42852E+04  4.72898E+04 -6.68372E+04 -5.10663E+02
 -5.42613E+04 -5.66345E+04 -6.28041E+03 -7.70590E+04  3.43293E+04 -5.52955E+04  4.73094E+04 -1.70074E+04
  4.35761E+04  1.14786E+04  3.19822E+04  2.52356E+04  1.56143E+04  2.89149E+04 -5.26982E+03  2.73634E+04
 -2.23460E+04  1.22962E+04 -1.85803E+04 -5.56284E+03  5.57895E+03 -7.40076E+03  2.21715E+04  1.18987E+04
  6.93795E+03  3.56279E+04 -3.22891E+04  3.54027E+04 -6.33473E+04  1.99637E+03 -5.71165E+04 -4.25335E+04
 -1.30145E+04 -6.41117E+04  4.00388E+04 -4.55238E+04  5.84168E+04 -2.04190E+03  3.40941E+04  3.23149E+04
 -6.12754E+03  3.63072E+04 -2.97925E+04  1.62719E+04 -3.00798E+04 -3.87658E+03 -1.70070E+04 -1.06454E+04
 -9.05826E+03 -1.31163E+04 -5.67275E+02 -1.83265E+04  7.16779E+03 -2.31700E+04  1.53516E+04 -1.32998E+04
  1.12637E+04  5.47965E+03 -8.12664E+03  1.34762E+04 -2.11914E+04 -4.35889E+03 -8.67635E+03 -3.38690E+04
  2.24841E+04 -4.30017E+04  4.79702E+04 -2.00470E+04  4.56781E+04  1.91418E+04  1.56094E+04  4.39499E+04
 -1.58331E+04  3.33776E+04 -2.56296E+04  1.29066E+03 -1.02629E+04 -2.82834E+04  2.11025E+04 -3.31057E+04
  4.06834E+04 -9.05269E+03  3.54409E+04  2.35379E+04  1.80335E+04  4.65133E+04 -8.82887E+03  5.05739E+04
 -3.11958E+04  3.36465E+04 -4.21613E+04  9.59674E+03 -4.24471E+04 -1.64086E+04 -2.35165E+04 -3.74152E+04
  7.26584E+03 -3.71848E+04  3.21629E+04 -1.45603E+04  2.90572E+04  1.09883E+04  4.25157E+03  1.94364E+04
 -1.36341E+04  8.54694E+03 -1.00563E+04 -7.65403E+03  5.05990E+03 -1.06971E+04  1.74022E+04  6.43562E+03
  1.34268E+04  2.19710E+04 -6.01928E+03  2.50965E+04 -2.15821E+04  1.13598E+04 -2.77214E+04 -4.98642E+03
 -2.08826E+04 -1.75378E+04 -9.28489E+03 -1.95215E+04  4.30222E+03 -1.94672E+04  1.51074E+04 -1.80504E+04
  2.63774E+04 -1.30774E+04  3.30338E+04  3.22324E+03  2.40917E+04  2.01276E+04  4.36409E+03  3.58527E+04
 -1.73847E+04  3.04413E+04 -2.76799E+04  1.00849E+04 -2.04257E+04 -1.05648E+04 -3.88939E+03 -1.38156E+04
  1.79088E+03 -2.68818E+03 -4.45827E+03  6.33518E+03 -1.70121E+04  5.68449E+03 -1.63426E+04 -6.66368E+03
 -9.95196E+03 -1.92544E+04  4.79887E+03 -2.34993E+04  1.52523E+04 -1.64559E+04  1.81979E+04 -1.05634E+03
  1.10772E+04  1.22250E+04 -1.27898E+03  1.88518E+04 -1.34586E+04  1.01094E+04 -1.92232E+04 -4.32628E+03
 -1.37091E+04 -1.73067E+04 -1.59149E+03 -2.29666E+04  9.68059E+03 -1.88888E+04  1.92574E+04 -8.57185E+03
  1.79289E+04  5.03070E+02  1.24105E+04  4.45546E+03  6.69398E+03  9.40875E+02  9.92082E+03 -1.95477E+03
  1.67175E+04  2.57388E+03  1.89176E+04  1.43809E+04  1.24415E+04  2.96031E+04 -2.36290E+03  3.39777E+04
 -1.98333E+04  2.69895E+04 -3.15201E+04  1.34771E+04 -3.31341E+04 -2.12166E+03 -2.78573E+04 -1.95172E+04
 -1.16904E+04 -2.66765E+04  8.77731E+03 -2.44263E+04  2.10137E+04 -1.29213E+04  1.84464E+04  5.03538E+03
  6.68818E+03  1.44584E+04 -9.16066E+03  1.19490E+04 -1.62270E+04  2.36230E+03 -1.21545E+04 -1.03817E+04
 -3.13531E+02 -1.52449E+04  8.18510E+03 -1.10792E+04  9.88140E+03 -2.00185E+03  2.00058E+03  6.85000E+03
 -6.52732E+03  2.91465E+03 -6.10953E+03 -5.26332E+03 -9.60181E+02 -1.32803E+04  9.68768E+03 -1.35877E+04
  1.69371E+04 -7.07385E+03  1.78561E+04  2.75474E+03  1.55363E+04  1.30986E+04  6.75644E+03  2.01574E+04
 -3.14684E+03  2.14353E+04 -1.36946E+04  1.37243E+04 -1.57113E+04  3.00197E+03 -1.12646E+04 -4.01249E+03
 -5.46931E+03 -4.83432E+03 -6.91229E+02  1.31060E+03 -2.44679E+03  2.38024E+03 -5.18377E+03  4.73230E+03
 -1.05564E+04 -7.75914E+02 -1.08531E+04 -9.40530E+03 -4.04134E+03 -1.45647E+04  3.85729E+03 -1.12647E+04
  8.73303E+03 -5.30779E+03  6.88795E+03  2.65848E+03 -5.12475E+01  4.37720E+03 -5.49175E+03 -1.38583E+02
 -5.14828E+03 -6.99606E+03 -3.21998E+02 -9.83132E+03  5.33777E+03 -1.07111E+04  1.36056E+04 -5.61127E+03
  1.60566E+04  1.12178E+03  1.17353E+04  9.51329E+03  2.67207E+03  1.19806E+04 -6.70369E+03  1.10559E+04
 -9.26586E+03  3.31845E+03 -4.60908E+03 -2.38686E+03  2.18614E+03 -2.58267E+03  5.99733E+03 -1.59568E+03
  5.60016E+03  4.44408E+03  1.01615E+03  8.62167E+03 -6.34298E+03  7.93648E+03 -1.04257E+04  2.29404E+03
 -7.07825E+03 -5.37617E+03  3.06200E+02 -8.27662E+03  5.29179E+03 -4.59498E+03  5.36186E+03  1.60182E+03
  1.64057E+03  5.28109E+03 -5.58586E+03  7.19865E+03 -7.88028E+03  3.28522E+03 -7.22323E+03 -3.09641E+03
 -4.42845E+03 -9.15969E+03  2.05299E+03 -1.07654E+04  8.44164E+03 -7.44465E+03  9.48230E+03  1.65294E+03
  6.48476E+03  7.39535E+03  9.15647E+01  1.02628E+04 -6.90130E+03  5.94129E+03 -7.87499E+03 -7.47186E+02
 -7.28688E+03 -6.70076E+03 -1.41740E+03 -7.64871E+03  3.81148E+03 -6.68347E+03  4.66888E+03 -2.89121E+03
  3.29298E+03  3.23093E+02 -1.41898E+02  1.63946E+03  2.45763E+02 -1.03201E+03  1.13208E+03 -3.63018E+03
  5.46322E+03 -2.41862E+03  8.31571E+03  8.00535E+02  9.07350E+03  5.17291E+03  7.05744E+03  1.04927E+04
 -2.41451E+03  1.32827E+04 -1.12280E+04  9.98063E+03 -1.56665E+04  2.09338E+03 -1.21833E+04 -4.62152E+03
 -6.27533E+03 -9.72807E+03 -4.93087E+02 -7.74021E+03  3.30769E+03 -3.67388E+03  3.01968E+03 -2.87165E+03
  1.64974E+03 -2.18973E+03  2.35802E+03 -2.93239E+03  4.76804E+03 -1.71615E+03  4.31131E+03 -1.09970E+02
  6.74545E+03  1.51836E+03  2.81064E+03  4.93015E+03 -1.94837E+03  5.15080E+03 -6.27541E+03  4.15020E+03
 -7.62973E+03 -8.99081E+02 -4.25066E+03 -5.72404E+03 -1.50355E+02 -8.88303E+03  4.96693E+03 -8.79479E+03
  9.01239E+03 -5.54115E+03  1.05886E+04  9.69281E+02  7.62626E+03  7.33648E+03  1.24959E+03  9.44027E+03
 -3.36129E+03  8.23619E+03 -6.08524E+03  2.82632E+03 -3.34962E+03 -1.62204E+03 -7.97952E+02 -6.02329E+02
 -4.81400E+02  6.94124E+01 -1.91109E+03  1.80013E+03 -3.64505E+03  1.52713E+03 -5.66685E+03 -5.51618E+02
 -2.71036E+03 -6.21939E+03  2.10809E+02 -7.41430E+03  4.36931E+03 -7.62664E+03  6.47564E+03 -1.90592E+03
  7.14384E+03  3.78306E+03  3.37280E+03  6.60910E+03 -1.45245E+03  7.28610E+03 -4.65507E+03  4.26769E+03
 -7.26346E+03  1.08886E+03 -5.26827E+03 -4.78481E+03 -5.11708E+02 -5.92151E+03  2.54122E+03 -4.29360E+03
  5.34664E+03 -1.03782E+03  2.99383E+03  1.58005E+03  1.18980E+03  1.96595E+03  1.72205E+03  1.16071E+03
  1.39205E+03  9.80618E+02  1.43327E+03  7.09286E+02  2.18872E+03  2.58453E+03  1.61170E+03  4.09555E+03
 -1.32853E+03  4.59776E+03 -4.64673E+03  5.90309E+03 -6.33616E+03  1.39836E+03 -7.12664E+03 -2.13761E+03
 -2.65858E+03 -7.03692E+03  1.22796E+03 -7.28344E+03  3.48483E+03 -4.39410E+03  5.87597E+03 -1.40396E+03
  4.06670E+03  3.52768E+03  7.14043E+02  4.24964E+03 -1.64702E+03  2.38482E+03 -1.57032E+03 -6.48500E+02
 -1.44366E+03 -3.06192E+03  2.11264E+03 -2.64520E+03  2.47051E+03 -1.17463E+03  2.68863E+03  9.68818E+02
  1.91228E+03  1.11590E+03  9.03126E+02  5.63735E+02 -6.73228E+02  1.18814E+03  1.57040E+03 -1.12072E+02
  4.86775E+02 -3.34414E+02  3.40659E+03  2.05568E+03  8.88131E+02  3.52015E+03 -8.88375E+02  5.13217E+03
 -3.22792E+03  2.74522E+03 -4.25589E+03  1.21011E+03 -3.29650E+03 -1.91970E+03 -7.49234E+02 -2.30484E+03
  7.44602E+02 -2.28396E+03  1.59241E+03 -9.41965E+02  1.16052E+03  1.76434E+03 -8.19047E+02  1.83668E+03
 -2.57628E+03  1.14445E+03 -2.27920E+03 -2.07517E+03 -2.45132E+03 -3.74863E+03  6.89709E+02 -2.16239E+03
  1.26666E+03 -1.99062E+03  1.70040E+03  4.20873E+01  2.16604E+03  3.22220E+02  3.56943E+02  1.96371E+03
 -7.68667E+02  1.94056E+02 -9.29924E+02 -9.01534E+02  5.94817E+02 -2.33593E+03  3.04038E+03 -1.80371E+03
  2.54341E+03 -7.57282E+00  4.07500E+03  2.23889E+03  1.59529E+03  4.11799E+03 -1.05928E+03  3.39325E+03
 -2.61816E+03  1.37333E+03 -2.72328E+03 -5.76806E+02 -2.13815E+03 -2.12190E+03  5.22490E+02 -1.90345E+03
  2.50018E+03 -8.96415E+02  1.82980E+03  1.72791E+03  4.19412E+02  2.30875E+03 -9.21570E+02  2.31313E+03
 -5.94308E+02  1.97646E+03 -1.27893E+03  8.02065E+02 -5.62538E+02  3.85402E+02 -1.30820E+03  7.95738E+02
 -9.77113E+02  1.38357E+03 -2.86119E+03  8.19502E+02 -3.47729E+03  9.42426E+02 -4.26119E+03 -2.75540E+03
 -2.79203E+03 -4.85412E+03  7.92021E+02 -5.87018E+03  3.21263E+03 -4.22626E+03  5.24074E+03 -1.55194E+03
  4.69387E+03  5.14496E+02  2.58112E+03  3.18638E+03 -1.88237E+02  3.04629E+03 -2.01910E+03  3.15178E+03
 -2.34734E+03  9.48408E+02 -8.87521E+02 -5.64239E+02 -1.07443E+03  9.22898E+01 -3.71998E+02 -3.37590E+02
 -2.77870E+02 -2.84759E+02 -2.14012E+02 -7.23847E+00  2.76330E+02 -1.28713E+03 -5.86918E+02 -1.61467E+03
  1.56291E+03 -1.18333E+03  2.06848E+03  1.12944E+01  2.34920E+03  1.68253E+03  7.86318E+01  3.45619E+03
 -1.83351E+03  4.31514E+03 -3.81333E+03  2.63010E+03 -3.23944E+03  6.11776E+01 -3.09996E+03 -2.37546E+03
 -2.41643E+03 -2.98774E+03  2.11643E+02 -3.30321E+03  2.31768E+03 -1.57183E+03  2.31320E+03  4.01741E+02
  9.99696E+02  1.44903E+03 -1.77523E+02  8.49069E+02 -5.40712E+02 -4.86983E+02 -1.39273E+02 -1.12536E+03
  1.10760E+03  8.95586E+01  9.40087E+02  1.29621E+03  3.08447E+02  1.18217E+03  1.16928E+02  1.63432E+03
 -1.40209E+03  1.31189E+03 -1.78463E+03  7.75430E+01 -1.57328E+03 -1.48810E+03 -1.51599E+02 -2.61741E+03
  1.01898E+03 -1.87891E+03  1.76965E+03 -5.33231E+02  2.06140E+03  4.51626E+02  9.43150E+02  1.77184E+03
  1.38743E+01  1.78129E+03 -5.15658E+02  1.32738E+03 -1.24099E+03  1.29379E+03 -1.36370E+03  3.87121E+02
 -7.35988E+02 -4.93256E+02 -5.48999E+02 -3.01981E+02 -6.49393E+02  1.05411E+03 -1.53899E+03 -1.70345E+02
 -1.49884E+03 -8.10157E+02 -4.62590E+02 -1.63432E+03  1.20229E+03 -2.38533E+03  1.83913E+03 -6.25893E+02
  1.91662E+03 -6.72724E+01  8.31181E+02  1.12792E+03 -4.60063E+02  1.67167E+03 -9.58212E+02  1.44915E+03
