 $NMID ID='MM_0lb_SNR400_18hz_g45_82.RAW', FMTDAT='(8E13.5)'
 TRAMP=1., VOLUME=1. $END
  3.10468E+05  5.69186E+02  3.37689E+05  2.50363E+05  8.46412E+04  3.37263E+05 -1.32535E+05  2.50385E+05
 -1.90034E+05  8.27357E+04 -1.11232E+05 -3.26445E+04  1.71192E+03 -5.03428E+04  5.42496E+04  5.59487E+02
  3.52971E+04  5.28633E+04 -1.69106E+04  7.50123E+04 -6.03107E+04  6.26461E+04 -8.30487E+04  3.13708E+04
 -7.94496E+04 -1.13268E+04 -5.57589E+04 -5.04603E+04 -1.50512E+04 -6.80890E+04  2.63839E+04 -4.47053E+04
  3.93264E+04  3.24152E+03  1.52283E+04  4.65797E+04 -3.32850E+04  4.67115E+04 -6.54305E+04 -8.03995E+02
 -5.20025E+04 -5.60512E+04 -6.71770E+03 -7.50139E+04  3.30216E+04 -5.32668E+04  4.68246E+04 -1.64752E+04
  4.17388E+04  1.12214E+04  3.07411E+04  2.44130E+04  1.54118E+04  2.74361E+04 -4.23653E+03  2.68743E+04
 -2.19832E+04  1.32261E+04 -1.94460E+04 -4.18424E+03  4.55268E+03 -7.70402E+03  2.13339E+04  1.09483E+04
  7.13374E+03  3.35087E+04 -3.07089E+04  3.44861E+04 -6.09052E+04  2.16188E+03 -5.57960E+04 -4.16575E+04
 -1.21660E+04 -6.06160E+04  3.78280E+04 -4.36774E+04  5.62215E+04 -2.03202E+03  3.22094E+04  3.06859E+04
 -6.67209E+03  3.35811E+04 -2.84653E+04  1.34943E+04 -2.78776E+04 -5.35906E+03 -1.45288E+04 -1.03113E+04
 -7.17547E+03 -1.16724E+04 -1.20457E+03 -1.64445E+04  6.40076E+03 -2.22213E+04  1.38891E+04 -1.38679E+04
  1.24592E+04  4.40449E+03 -6.44796E+03  1.31810E+04 -1.85753E+04 -2.99716E+03 -8.20605E+03 -3.05693E+04
  2.06356E+04 -4.05754E+04  4.46972E+04 -1.88661E+04  4.25458E+04  1.85985E+04  1.48856E+04  4.21270E+04
 -1.54017E+04  3.09582E+04 -2.33190E+04  1.03473E+03 -8.04248E+03 -2.71051E+04  2.02905E+04 -3.13190E+04
  3.82880E+04 -7.22171E+03  3.20156E+04  2.26365E+04  1.58664E+04  4.26174E+04 -7.83778E+03  4.58572E+04
 -2.81788E+04  2.97689E+04 -3.79983E+04  8.58679E+03 -3.85014E+04 -1.52253E+04 -2.11342E+04 -3.46596E+04
  7.14752E+03 -3.41609E+04  3.01003E+04 -1.27478E+04  2.74390E+04  1.02446E+04  2.35303E+03  1.78388E+04
 -1.34166E+04  7.91988E+03 -9.73866E+03 -7.53375E+03  5.90451E+03 -9.86724E+03  1.71345E+04  6.91745E+03
  1.21617E+04  2.16735E+04 -6.24370E+03  2.35343E+04 -2.19242E+04  9.59905E+03 -2.52377E+04 -6.39461E+03
 -1.65812E+04 -1.64337E+04 -5.41805E+03 -1.68974E+04  4.24242E+03 -1.54076E+04  1.20421E+04 -1.43202E+04
  2.22668E+04 -1.15321E+04  2.85014E+04  1.25749E+03  2.16235E+04  1.67058E+04  4.90022E+03  3.20714E+04
 -1.64122E+04  2.78947E+04 -2.56886E+04  9.68926E+03 -1.96255E+04 -9.84772E+03 -3.57499E+03 -1.40680E+04
  2.05944E+03 -4.29502E+03 -3.16512E+03  5.09919E+03 -1.34945E+04  5.65364E+03 -1.33456E+04 -5.22668E+03
 -8.77212E+03 -1.53399E+04  4.36637E+03 -1.96610E+04  1.27462E+04 -1.41835E+04  1.47848E+04 -1.89413E+03
  9.11801E+03  1.12326E+04 -1.20298E+03  1.59180E+04 -1.01410E+04  8.92337E+03 -1.56369E+04 -3.56349E+03
 -1.20567E+04 -1.51598E+04 -1.46995E+03 -1.89686E+04  8.51106E+03 -1.58166E+04  1.63981E+04 -7.23261E+03
  1.47850E+04  9.05575E+02  1.03495E+04  4.09028E+03  5.59992E+03  8.71309E+02  7.36142E+03 -1.47894E+03
  1.38164E+04  2.43124E+03  1.52385E+04  1.23934E+04  9.60773E+03  2.54692E+04 -2.79192E+03  2.70773E+04
 -1.56850E+04  2.06667E+04 -2.48819E+04  9.91093E+03 -2.51787E+04 -2.23049E+03 -2.20152E+04 -1.40066E+04
 -1.04763E+04 -2.09126E+04  6.51765E+03 -1.94069E+04  1.69009E+04 -1.11160E+04  1.54539E+04  4.00769E+03
  6.36218E+03  1.15249E+04 -7.54353E+03  1.03975E+04 -1.33111E+04  2.13775E+03 -1.03855E+04 -8.13238E+03
 -8.89408E+01 -1.27283E+04  5.99766E+03 -9.44746E+03  7.94482E+03 -1.56379E+03  1.36263E+03  4.63570E+03
 -5.47666E+03  1.63089E+03 -3.48201E+03 -4.98478E+03  4.02979E+02 -1.00280E+04  7.79555E+03 -1.04309E+04
  1.24217E+04 -4.92044E+03  1.24993E+04  2.67725E+03  1.06209E+04  9.81067E+03  5.22921E+03  1.41780E+04
 -2.29867E+03  1.60911E+04 -1.00988E+04  1.00090E+04 -1.17560E+04  2.90201E+03 -8.93017E+03 -1.98226E+03
 -4.08308E+03 -3.55760E+03  4.21485E+00  1.78877E+03 -1.77888E+03  2.33205E+03 -4.05552E+03  3.98464E+03
 -8.04725E+03 -1.06205E+02 -8.81335E+03 -7.32038E+03 -3.49770E+03 -1.20100E+04  3.70512E+03 -8.93843E+03
  7.37432E+03 -3.93110E+03  4.78489E+03  1.83532E+03  6.31613E+02  3.00325E+03 -3.49768E+03  1.08947E+02
 -3.29238E+03 -5.05132E+03 -1.29036E+03 -7.39230E+03  3.91709E+03 -7.85557E+03  9.80179E+03 -4.25655E+03
  1.18984E+04  7.61795E+02  8.49176E+03  6.10377E+03  1.42324E+03  8.43319E+03 -5.67986E+03  8.25348E+03
 -6.86488E+03  3.33578E+03 -3.75689E+03 -1.31378E+03  1.45273E+03 -2.14867E+03  5.08399E+03 -1.18609E+03
  3.50293E+03  3.25266E+03  9.04678E+02  6.03880E+03 -4.47211E+03  6.82802E+03 -8.11992E+03  1.81781E+03
 -5.22473E+03 -3.86326E+03  1.90848E+02 -6.79400E+03  4.06358E+03 -3.84015E+03  3.71990E+03  7.10022E+02
  7.83069E+02  3.77956E+03 -4.35207E+03  4.78125E+03 -4.95501E+03  2.33091E+03 -4.75614E+03 -1.23490E+03
 -2.88594E+03 -6.55864E+03  1.38831E+03 -7.15984E+03  6.38611E+03 -4.48666E+03  6.41906E+03  1.18251E+03
  5.05798E+03  5.56884E+03  5.45226E+02  7.82294E+03 -5.12317E+03  3.79370E+03 -5.22264E+03 -1.89535E+02
 -5.58174E+03 -5.02425E+03 -1.30963E+03 -5.37262E+03  2.89180E+03 -4.59284E+03  2.61360E+03 -3.11540E+03
  2.42123E+03 -1.25371E+02 -4.34872E+02  1.40828E+03  1.02810E+03 -4.64785E+02 -2.01907E+02 -1.85491E+03
  4.13823E+03 -8.53306E+02  5.09519E+03  8.88142E+02  5.78098E+03  3.43879E+03  5.21665E+03  7.47481E+03
 -1.38556E+03  8.20118E+03 -8.16982E+03  7.21284E+03 -1.04312E+04  1.06248E+03 -8.19398E+03 -2.75662E+03
 -4.45415E+03 -6.93380E+03 -5.37818E+02 -5.44853E+03  1.92475E+03 -2.39030E+03  2.05161E+03 -1.91424E+03
  1.40465E+03 -1.98360E+03  2.27194E+03 -2.20650E+03  3.37303E+03 -1.60240E+03  3.74460E+03  2.60537E+02
  4.76314E+03  1.10521E+03  1.37513E+03  3.38250E+03 -1.69630E+03  2.75567E+03 -4.39683E+03  2.67694E+03
 -4.97229E+03 -5.94041E+02 -1.46172E+03 -2.85407E+03  4.05846E+02 -5.52309E+03  3.02660E+03 -5.50228E+03
  5.78165E+03 -3.35598E+03  7.16585E+03 -2.75182E+02  4.68247E+03  4.29935E+03  8.12323E+02  6.33106E+03
 -2.03581E+03  5.92982E+03 -4.11317E+03  1.70325E+03 -1.83709E+03 -8.99947E+02 -8.64193E+01 -6.89249E+02
 -6.41662E+02  1.06306E+02 -9.75972E+02  2.60217E+03 -2.97592E+03  1.17609E+03 -4.34580E+03 -4.76746E+02
 -1.59282E+03 -4.38944E+03  6.00239E+02 -5.03496E+03  2.70261E+03 -4.68908E+03  3.66501E+03 -9.98781E+02
  4.41226E+03  2.93036E+03  1.63879E+03  3.30086E+03 -1.20219E+03  4.77696E+03 -2.01482E+03  2.70500E+03
 -3.79869E+03  6.69093E+02 -2.94768E+03 -2.70996E+03  1.77167E+01 -4.00961E+03  2.07377E+03 -2.90747E+03
  2.81197E+03 -1.42010E+03  1.60643E+03  8.20826E+02 -1.49215E+02  1.86399E+03  1.17296E+03  3.59249E+02
  1.72611E+03  1.28232E+03  1.44282E+03  1.57371E+03  1.50236E+03  2.57504E+03  1.85503E+03  1.99383E+03
 -1.70869E+03  3.76474E+03 -2.38866E+03  3.93994E+03 -2.97366E+03  1.33024E+03 -4.49852E+03 -2.53282E+02
 -1.17757E+03 -3.89820E+03  1.34581E+03 -4.80588E+03  1.90175E+03 -3.14247E+03  2.89307E+03 -1.48616E+03
  2.09057E+03  1.60622E+03  1.80738E+02  2.30581E+03 -5.57582E+02  1.08606E+03 -1.43785E+03 -1.87878E+02
 -7.72293E+02 -1.27013E+03  2.17365E+03 -1.72859E+03  1.34510E+03 -9.46669E+02  1.16088E+03  9.95671E+02
  1.09574E+03  1.05385E+03  8.07735E+02  1.32001E+01 -1.28948E+02  6.28136E+02  1.78017E+03  1.28496E+02
  2.45976E+02  1.35587E+00  2.25791E+03  7.59360E+02  3.50601E+02  2.34410E+03 -5.06182E+02  2.62581E+03
 -1.52300E+03  8.27836E+02 -2.13839E+03  5.80965E+02 -2.01316E+03 -1.30372E+03 -5.04202E+02 -8.07897E+02
  1.48802E+02 -9.36536E+02  8.56387E+02 -7.17518E+02  1.32753E+03  8.10911E+02 -9.92318E+02  1.28759E+03
 -1.60924E+03  9.23509E+02 -1.15316E+03 -1.31056E+03 -1.17063E+03 -2.05786E+03 -1.43805E+01 -1.90015E+03
  8.44941E+02 -3.67518E+02  9.28997E+02  1.55200E+02  1.51116E+03  9.99496E+00 -1.56988E+01  1.40535E+03
 -2.32414E+02  1.92080E+02 -8.07864E+02 -2.75738E+02  9.46731E+02 -1.06341E+03  1.96405E+03 -6.53271E+02
  1.88095E+03  5.25594E+02  2.71465E+03  1.06347E+03  1.23057E+03  1.40319E+03 -5.30540E+02  1.92764E+03
 -1.32571E+03  3.33380E+02 -2.28552E+03 -8.08584E+02 -9.77008E+02 -9.09421E+02  5.35045E+02 -4.82192E+02
  1.16541E+03 -1.00838E+03  6.16956E+02  8.29032E+02  3.22856E+02  1.22251E+03  1.93140E+02  1.40889E+03
 -3.55755E+02  9.60654E+02 -1.11545E+03  2.78764E+02  6.02825E+01  5.15452E+01 -3.07638E+02  9.43580E+02
 -4.45589E+02  1.03524E+03 -2.10009E+03  6.72405E+02 -1.21064E+03 -9.97932E+01 -2.53471E+03 -1.26777E+03
 -1.61578E+03 -2.25420E+03  1.96021E+02 -2.30253E+03  1.01660E+03 -2.56696E+03  3.15673E+03 -1.10968E+03
  2.25903E+03  2.02262E+02  1.31858E+03  2.03354E+03 -6.50140E+02  1.61255E+03 -4.65251E+02  8.04917E+02
 -1.63757E+03  4.54887E+02 -2.12502E+02 -6.69714E+01 -2.77462E+02  5.73373E+02 -1.77453E+02  4.16566E+01
 -1.10286E+03 -1.66529E+02 -8.68075E+02 -1.99677E+02 -3.52239E+02 -1.00617E+03 -6.03178E+02 -7.76452E+02
  1.73525E+03 -5.94620E+02  6.46969E+02 -1.20578E+02  1.15467E+03  4.99251E+02  2.28791E+02  1.95716E+03
 -9.20033E+02  2.41472E+03 -1.79876E+03  8.38155E+02 -1.94262E+03  6.06179E+01 -1.38095E+03 -1.01766E+03
 -3.42507E+02 -1.55203E+03  1.17093E+02 -1.46318E+03  8.24149E+02 -5.60646E+02  1.19528E+03 -2.45915E+02
  1.00046E+03  7.58479E+02 -4.62336E+02  3.80643E+02 -8.41247E+02 -2.57254E+02 -6.70605E+02 -5.82845E+02
  6.17905E+02 -2.68886E+02 -2.21710E+02  3.29493E+02 -1.15300E+02 -1.76401E+02  1.30852E+02  5.98613E+02
 -1.21244E+03  6.36035E+02 -5.78218E+02 -1.21727E+01 -6.70672E+02  2.46118E+01  2.89433E+02 -1.43666E+03
  8.64259E+02 -1.13848E+03  1.29671E+03  8.32835E+01  1.00838E+03 -5.95263E+02  5.75126E+02  5.77846E+02
  9.61937E+02  1.20442E+03 -4.35696E+01  1.16802E+03 -4.83604E+02  7.54907E+02  3.18163E+02  3.08849E+02
 -7.12410E+02  3.30728E+01 -5.37986E+02  4.42723E+02 -3.98828E+02  2.92162E+02 -9.69030E+02 -9.48612E+02
 -9.56782E+02  2.77026E+02 -3.24074E+02 -1.05838E+03  1.07260E+03 -1.65547E+03  1.09055E+03 -1.11015E+02
  9.19283E+02 -1.98300E+02 -2.25758E+02 -1.55844E+02 -7.75619E+02  9.23893E+02 -9.83288E+01  1.47459E+03
