 $NMID ID='MM_0lb_SNR400_20hz_g60_87.RAW', FMTDAT='(8E13.5)'
 TRAMP=1., VOLUME=1. $END
  3.10203E+05  4.77354E+02  3.37514E+05  2.50832E+05  8.43723E+04  3.37533E+05 -1.32615E+05  2.50469E+05
 -1.89596E+05  8.27909E+04 -1.10759E+05 -3.26805E+04  1.32092E+03 -5.04239E+04  5.35971E+04 -4.23441E+01
  3.52209E+04  5.25885E+04 -1.64517E+04  7.49735E+04 -6.03787E+04  6.29217E+04 -8.32017E+04  3.16439E+04
 -7.99258E+04 -1.10894E+04 -5.65927E+04 -5.09684E+04 -1.48056E+04 -6.91424E+04  2.68271E+04 -4.47903E+04
  3.90569E+04  3.39464E+03  1.59177E+04  4.67498E+04 -3.44471E+04  4.63517E+04 -6.59753E+04 -5.01466E+02
 -5.29724E+04 -5.59998E+04 -6.75913E+03 -7.55492E+04  3.36051E+04 -5.37938E+04  4.69310E+04 -1.62357E+04
  4.28605E+04  1.08114E+04  3.10973E+04  2.45527E+04  1.56885E+04  2.87953E+04 -4.17694E+03  2.70518E+04
 -2.17591E+04  1.26191E+04 -1.85596E+04 -4.32645E+03  4.04772E+03 -7.89229E+03  2.17552E+04  1.13095E+04
  7.33355E+03  3.42354E+04 -3.16900E+04  3.45323E+04 -6.14967E+04  2.09887E+03 -5.56776E+04 -4.16966E+04
 -1.29750E+04 -6.12353E+04  3.88885E+04 -4.40608E+04  5.67923E+04 -2.10889E+03  3.29200E+04  3.14107E+04
 -5.89941E+03  3.39286E+04 -2.95299E+04  1.41526E+04 -2.88328E+04 -5.36540E+03 -1.53660E+04 -1.00937E+04
 -7.54606E+03 -1.20942E+04 -1.27367E+03 -1.61024E+04  7.06046E+03 -2.26373E+04  1.53825E+04 -1.41605E+04
  1.22716E+04  4.35222E+03 -6.31312E+03  1.25944E+04 -2.02388E+04 -3.08777E+03 -8.45419E+03 -3.13849E+04
  2.14541E+04 -4.16384E+04  4.58014E+04 -1.88297E+04  4.36415E+04  1.81731E+04  1.49291E+04  4.27213E+04
 -1.56462E+04  3.21233E+04 -2.38661E+04  1.63077E+03 -8.04170E+03 -2.61292E+04  2.05059E+04 -3.16791E+04
  3.90360E+04 -8.09374E+03  3.27941E+04  2.31039E+04  1.58214E+04  4.34072E+04 -7.80139E+03  4.63095E+04
 -2.86261E+04  3.08088E+04 -3.85826E+04  8.52568E+03 -3.95535E+04 -1.55640E+04 -2.15485E+04 -3.49952E+04
  7.23550E+03 -3.48764E+04  2.99364E+04 -1.33029E+04  2.76112E+04  1.07518E+04  3.59450E+03  1.78342E+04
 -1.33987E+04  7.49849E+03 -9.82160E+03 -7.87376E+03  6.25104E+03 -1.04015E+04  1.74202E+04  6.17602E+03
  1.24308E+04  2.16119E+04 -6.51999E+03  2.37754E+04 -2.17994E+04  9.20155E+03 -2.55773E+04 -6.41028E+03
 -1.68689E+04 -1.68137E+04 -6.01823E+03 -1.70689E+04  4.04267E+03 -1.51966E+04  1.33644E+04 -1.48031E+04
  2.15116E+04 -1.26950E+04  2.83236E+04  1.13440E+03  2.17278E+04  1.68196E+04  4.17127E+03  3.34967E+04
 -1.60731E+04  2.76543E+04 -2.60428E+04  9.43090E+03 -1.93909E+04 -1.02231E+04 -3.82124E+03 -1.37385E+04
  2.80857E+03 -3.94974E+03 -3.15165E+03  5.49327E+03 -1.28689E+04  5.77173E+03 -1.38975E+04 -5.23991E+03
 -8.58712E+03 -1.65142E+04  4.24516E+03 -1.90971E+04  1.24496E+04 -1.43525E+04  1.50670E+04 -1.94739E+03
  9.17764E+03  1.09001E+04 -1.05998E+03  1.63628E+04 -1.07462E+04  9.11680E+03 -1.57933E+04 -2.86364E+03
 -1.18525E+04 -1.45356E+04 -1.30801E+03 -1.94702E+04  8.84560E+03 -1.55294E+04  1.62098E+04 -7.22345E+03
  1.48128E+04  6.22257E+02  1.06089E+04  4.04761E+03  5.51026E+03  7.82610E+02  8.00345E+03 -1.48113E+03
  1.45892E+04  2.18695E+03  1.48656E+04  1.28503E+04  9.45151E+03  2.53914E+04 -2.82594E+03  2.69928E+04
 -1.57985E+04  2.04815E+04 -2.48052E+04  9.13962E+03 -2.55791E+04 -1.98299E+03 -2.11795E+04 -1.47706E+04
 -1.05159E+04 -2.01120E+04  6.95459E+03 -1.90725E+04  1.71247E+04 -1.12879E+04  1.54223E+04  3.44992E+03
  6.68189E+03  1.10518E+04 -6.44946E+03  1.02668E+04 -1.34838E+04  2.52983E+03 -1.03950E+04 -7.84671E+03
  8.91826E+00 -1.24539E+04  6.27749E+03 -9.65353E+03  8.19725E+03 -1.46946E+03  1.46884E+03  5.50480E+03
 -5.77574E+03  1.15998E+03 -3.80984E+03 -4.26161E+03  7.90438E+02 -1.03143E+04  7.36795E+03 -1.04899E+04
  1.23642E+04 -4.01276E+03  1.21349E+04  2.51491E+03  1.05554E+04  9.29365E+03  4.95524E+03  1.37412E+04
 -1.51128E+03  1.57859E+04 -8.92289E+03  9.65021E+03 -1.05848E+04  2.80071E+03 -8.42060E+03 -1.75496E+03
 -4.16631E+03 -3.55227E+03 -8.49124E+02  1.47527E+03 -2.12066E+03  2.03524E+03 -3.17553E+03  3.97861E+03
 -7.72879E+03 -1.44968E+01 -8.41323E+03 -7.22278E+03 -3.82075E+03 -1.13552E+04  3.23455E+03 -8.01642E+03
  7.10845E+03 -3.79266E+03  4.89086E+03  1.63622E+03  4.08456E+02  2.98812E+03 -3.55777E+03 -6.09285E-01
 -3.24935E+03 -5.47506E+03 -8.23221E+02 -6.59964E+03  3.83062E+03 -7.89343E+03  9.74255E+03 -3.94905E+03
  1.16817E+04  6.77445E+02  8.82925E+03  5.90307E+03  1.93776E+03  8.67021E+03 -4.98524E+03  8.65412E+03
 -6.56551E+03  2.48820E+03 -3.41249E+03 -1.15456E+03  8.12994E+02 -1.69586E+03  4.78003E+03 -1.32266E+03
  3.62071E+03  3.27839E+03  1.60987E+03  6.16620E+03 -4.34982E+03  6.14058E+03 -7.86153E+03  1.60772E+03
 -4.62965E+03 -3.48007E+03  1.44319E+02 -6.79633E+03  3.40951E+03 -3.12002E+03  3.17763E+03  5.07539E+02
 -1.45514E+02  3.23467E+03 -4.03863E+03  4.36552E+03 -4.18111E+03  2.88444E+03 -3.66069E+03 -1.35495E+03
 -2.87572E+03 -5.67769E+03  6.35239E+02 -6.43191E+03  5.71665E+03 -4.39832E+03  6.08730E+03  1.01624E+03
  4.31978E+03  5.18166E+03  2.48523E+02  6.37877E+03 -4.80948E+03  4.00038E+03 -5.51142E+03 -5.68896E+02
 -5.96758E+03 -5.18921E+03 -1.46051E+03 -4.57643E+03  2.15751E+03 -4.62666E+03  2.46271E+03 -2.21052E+03
  2.78406E+03 -3.78405E+02  3.25851E+02  7.76765E+02  1.09158E+03 -1.72209E+02  1.81515E+02 -9.57295E+02
  3.13622E+03 -4.03473E+02  5.50089E+03  7.60542E+02  4.82271E+03  2.70023E+03  4.02715E+03  6.64622E+03
 -1.10810E+03  7.68254E+03 -6.85863E+03  5.73587E+03 -9.17586E+03  7.56786E+02 -6.61259E+03 -1.85841E+03
 -4.25493E+03 -5.89423E+03 -4.16068E+02 -4.37241E+03  1.77249E+03 -1.69808E+03  2.17637E+03 -1.98594E+03
  8.61591E+02 -1.47185E+03  2.25217E+03 -1.79433E+03  3.10158E+03 -1.36147E+03  3.71069E+03  7.71857E+02
  4.35644E+03  1.58218E+03  1.12813E+03  3.47309E+03 -7.96344E+02  2.29351E+03 -4.03045E+03  2.46222E+03
 -4.61708E+03 -1.06486E+03 -1.43981E+03 -2.62291E+03  7.89542E+02 -4.15869E+03  2.97441E+03 -4.34372E+03
  4.50240E+03 -2.99254E+03  5.75766E+03 -9.71462E+01  4.51017E+03  3.16071E+03  1.16730E+03  5.42931E+03
 -1.36019E+03  5.14288E+03 -3.18160E+03  1.65480E+03 -1.31989E+03 -1.08914E+03 -3.43508E+02 -3.31796E+02
 -2.76835E+02 -1.25208E+02 -9.90100E+02  1.40379E+03 -2.16641E+03  1.11658E+03 -4.19681E+03 -1.46412E+02
 -7.93260E+02 -3.97965E+03  9.53583E+02 -4.53480E+03  2.42200E+03 -3.80663E+03  2.87886E+03 -5.94530E+02
  3.55552E+03  1.53270E+03  1.36099E+03  3.28922E+03 -9.09356E+02  3.88910E+03 -2.15202E+03  2.14806E+03
 -3.13931E+03  7.52219E+02 -3.19800E+03 -1.77942E+03  1.03235E+02 -2.70989E+03  1.30465E+03 -1.84304E+03
  2.47458E+03 -1.30804E+03  1.68600E+03  6.27167E+02  5.10509E+02  1.11428E+03  6.72452E+02  6.76330E+02
  1.09927E+03  5.39131E+02  8.99447E+02  6.33627E+02  6.90782E+02  2.13066E+03  1.12114E+03  1.25708E+03
 -1.09689E+03  2.73240E+03 -2.17504E+03  3.67781E+03 -1.61568E+03  8.06599E+02 -3.30551E+03 -3.28085E+02
 -1.43977E+03 -3.22887E+03  9.87990E+02 -3.96926E+03  1.28540E+03 -1.86878E+03  2.61008E+03 -1.08637E+03
  1.69808E+03  1.30447E+03  3.38029E+02  2.12459E+03 -5.19922E+02  1.10310E+03 -5.92856E+02 -1.27577E+02
 -2.56055E+02 -1.00541E+03  1.41029E+03 -5.61089E+02  8.52947E+02 -4.94041E+02  1.01256E+03  1.32137E+02
  7.83477E+02  1.37567E+02  1.03866E+03 -6.56306E+02 -6.25307E+02  1.50054E+03  1.54430E+03 -8.25924E+01
  1.37363E+01 -4.11188E+02  1.28216E+03  2.38484E+02 -5.86182E+02  1.80917E+03 -8.21571E+02  2.10154E+03
 -1.25996E+03  3.92056E+02 -1.69740E+03 -5.46966E+01 -1.76428E+03 -2.48389E+02  2.03332E+02 -3.55545E+02
  6.00813E+02 -7.84698E+02  3.75615E+02 -1.01684E+03  2.69380E+02  1.47491E+03 -2.55489E+02  1.08558E+03
 -1.36315E+03  9.41681E+02 -1.17250E+03 -1.17384E+03 -7.19575E+02 -1.67174E+03  2.13712E+02 -8.28186E+02
 -2.19812E+02 -5.81111E+02  2.20903E+02  5.08333E+02  8.09907E+02 -3.57616E+02  4.58686E+02  1.00499E+03
 -2.59442E+02  2.18880E+02 -8.49656E+02 -4.76765E+02  6.09546E+02 -7.18310E+02  1.28613E+03 -9.60011E+02
  3.99769E+02  2.50284E+02  2.28308E+03  6.62679E+02  1.21414E+03  1.27328E+03 -3.74035E+02  1.34998E+03
 -1.40163E+03  2.34487E+01 -1.24173E+03  1.16237E+02 -7.66959E+02 -1.12568E+03  4.93166E+02 -3.02642E+02
  1.32199E+03 -5.97526E+02  9.18527E+02  9.04617E+02 -1.43601E+02  7.99717E+02  1.73094E+02  1.05806E+03
 -1.75730E+02  1.45031E+03 -1.36754E+02  5.04483E+01 -1.90822E+02  9.87648E+01 -7.06937E+02  7.65001E+02
 -4.47738E+02  8.72816E+02 -1.76041E+03  2.45969E+02 -1.12678E+03  5.63269E+02 -2.27047E+03 -4.16427E+02
 -9.53579E+02 -1.43054E+03  2.54149E+02 -2.03284E+03  9.25674E+02 -2.71130E+03  2.16058E+03 -9.48460E+02
  1.50991E+03 -2.42007E+02  7.27933E+02  1.01830E+03 -8.63907E+02  2.67739E+02 -6.57427E+02  7.56499E+02
 -2.11905E+02  2.56674E+02 -7.22972E+01 -7.76052E+02 -4.20809E+02  2.89822E+02 -4.99145E+02  1.15197E+02
 -9.39378E+02 -3.85809E+02 -8.05723E+02  3.27536E+02  4.58695E+02 -5.47409E+02 -9.50413E+02 -5.67588E+02
  1.21609E+03 -2.88914E+02 -3.14769E+01  3.87875E+02  4.13673E+02  8.99292E+02 -5.46292E+02  6.84706E+02
 -3.98534E+02  1.80323E+03 -1.11415E+03  9.58229E+02 -4.53772E+02  1.12338E+02 -6.07531E+02 -1.33594E+03
 -5.94403E+02 -1.03635E+03 -1.61419E+02 -5.33699E+02  4.30076E+02 -7.89075E+02  4.75922E+02  9.96030E+01
  2.14301E+01  1.45125E+02 -2.86530E+01  3.50929E+02  6.73914E+02  6.87255E+01  2.47280E+01  3.34634E+02
  4.46781E+02  4.25995E+02  2.75224E+02  1.22274E+02  1.49645E+02  2.80940E+01  7.33808E+02 -1.94168E+02
 -3.88704E+02  3.51543E+02  1.18759E+02  6.66588E+01 -4.82953E+02  4.45411E+02 -6.97907E+01 -5.48410E+02
 -5.38871E+01 -1.02863E+02 -5.00419E+01  3.64159E+02  4.98573E+02 -3.47266E+02  7.02417E+01  4.26077E+02
  3.99184E+02  3.86451E+02 -3.63042E+00  4.48587E+02 -1.26353E+02  5.99277E+02  8.64216E+01 -4.26962E+02
 -3.76601E+02  3.07818E+02 -4.93600E+02 -1.18238E+02 -1.31244E+02  8.54576E+01 -3.60674E+02 -3.44547E+02
 -1.04871E+03  6.51929E+02 -8.56898E+02 -9.61060E+02  4.80151E+02 -1.44559E+03  7.27467E+02  1.23427E+02
  6.26658E+02 -1.91642E+02 -9.14101E+02 -2.35373E+02 -1.84681E+02  3.79679E+02 -2.71022E+02  6.15817E+02
