 $NMID ID='MM_0lb_SNR400_20hz_g50_68.RAW', FMTDAT='(8E13.5)'
 TRAMP=1., VOLUME=1. $END
  3.09242E+05  2.73654E+02  3.36961E+05  2.50441E+05  8.39300E+04  3.37536E+05 -1.32686E+05  2.50546E+05
 -1.89398E+05  8.26514E+04 -1.10959E+05 -3.31780E+04  1.52747E+03 -5.02197E+04  5.40147E+04  1.97440E+02
  3.49146E+04  5.29516E+04 -1.66528E+04  7.44164E+04 -5.98158E+04  6.26385E+04 -8.28755E+04  3.19243E+04
 -7.92068E+04 -1.05970E+04 -5.69382E+04 -5.01041E+04 -1.47776E+04 -6.83863E+04  2.67432E+04 -4.48893E+04
  3.91218E+04  4.00459E+03  1.56456E+04  4.70938E+04 -3.37629E+04  4.60893E+04 -6.52131E+04 -6.64927E+02
 -5.15558E+04 -5.62417E+04 -6.10814E+03 -7.47164E+04  3.29372E+04 -5.38039E+04  4.57857E+04 -1.64931E+04
  4.11603E+04  1.04738E+04  3.05058E+04  2.48023E+04  1.64403E+04  2.80816E+04 -4.58936E+03  2.70438E+04
 -2.18507E+04  1.27570E+04 -1.89947E+04 -4.07702E+03  4.09859E+03 -7.81756E+03  2.13134E+04  1.11866E+04
  7.64672E+03  3.29464E+04 -2.99952E+04  3.39966E+04 -6.07301E+04  2.49918E+03 -5.48567E+04 -4.13143E+04
 -1.21498E+04 -6.07005E+04  3.79151E+04 -4.28181E+04  5.51979E+04 -2.10934E+03  3.17093E+04  3.00284E+04
 -6.73364E+03  3.28173E+04 -2.81856E+04  1.32164E+04 -2.75119E+04 -6.01438E+03 -1.42135E+04 -9.96216E+03
 -7.38857E+03 -1.11925E+04 -1.09574E+03 -1.64325E+04  6.68870E+03 -2.24289E+04  1.52475E+04 -1.43844E+04
  1.21490E+04  4.11523E+03 -5.85647E+03  1.29255E+04 -1.94835E+04 -1.81382E+03 -8.22422E+03 -3.01402E+04
  2.06072E+04 -3.98419E+04  4.37240E+04 -1.84278E+04  4.16161E+04  1.80463E+04  1.36633E+04  4.09285E+04
 -1.55590E+04  3.01805E+04 -2.30908E+04  1.24974E+03 -7.83423E+03 -2.61227E+04  2.02894E+04 -3.11361E+04
  3.74019E+04 -7.12932E+03  3.06614E+04  2.23094E+04  1.51370E+04  4.22728E+04 -7.82392E+03  4.43440E+04
 -2.80695E+04  2.91193E+04 -3.64914E+04  7.81288E+03 -3.73933E+04 -1.45085E+04 -2.08348E+04 -3.37784E+04
  6.52369E+03 -3.33094E+04  2.92656E+04 -1.24031E+04  2.63958E+04  1.04447E+04  2.55346E+03  1.74055E+04
 -1.28274E+04  6.83094E+03 -9.51366E+03 -7.92335E+03  6.53646E+03 -9.95416E+03  1.71914E+04  6.35691E+03
  1.22119E+04  2.14354E+04 -6.68088E+03  2.31467E+04 -2.13740E+04  8.73438E+03 -2.47583E+04 -6.60604E+03
 -1.62537E+04 -1.61697E+04 -5.29506E+03 -1.56339E+04  3.37143E+03 -1.34013E+04  1.16613E+04 -1.34443E+04
  2.03018E+04 -1.15361E+04  2.76856E+04  8.78929E+02  2.05474E+04  1.59520E+04  3.75022E+03  3.16753E+04
 -1.58120E+04  2.69244E+04 -2.60126E+04  9.34901E+03 -1.93310E+04 -9.78174E+03 -3.56809E+03 -1.43059E+04
  3.03265E+03 -4.27736E+03 -2.47885E+03  5.57307E+03 -1.25526E+04  5.04969E+03 -1.29553E+04 -4.83377E+03
 -8.56532E+03 -1.46822E+04  4.65377E+03 -1.81712E+04  1.22431E+04 -1.39276E+04  1.36309E+04 -1.51374E+03
  8.56679E+03  1.10000E+04 -7.38206E+02  1.48067E+04 -9.61896E+03  8.82063E+03 -1.44441E+04 -2.91657E+03
 -1.10623E+04 -1.37118E+04 -1.45036E+03 -1.78655E+04  7.35010E+03 -1.42003E+04  1.60573E+04 -6.83530E+03
  1.33679E+04  7.25143E+02  1.00300E+04  3.75889E+03  4.47814E+03  5.07675E+02  7.72118E+03 -1.14253E+03
  1.29950E+04  3.02042E+03  1.38216E+04  1.19362E+04  8.13273E+03  2.34053E+04 -2.80937E+03  2.50363E+04
 -1.49059E+04  1.87088E+04 -2.27003E+04  8.54969E+03 -2.31596E+04 -1.65444E+03 -2.02058E+04 -1.36111E+04
 -9.08327E+03 -1.91420E+04  6.44748E+03 -1.75763E+04  1.54783E+04 -1.03563E+04  1.42957E+04  2.67494E+03
  6.48115E+03  1.10240E+04 -6.63758E+03  9.51997E+03 -1.28435E+04  2.29274E+03 -9.84764E+03 -7.32375E+03
 -2.39476E+02 -1.17258E+04  5.78258E+03 -8.88764E+03  7.46266E+03 -1.47062E+03  1.35983E+03  4.95480E+03
 -5.34088E+03  7.22653E+02 -2.98840E+03 -4.16617E+03  7.45489E+02 -9.74436E+03  7.92546E+03 -9.20470E+03
  1.14737E+04 -4.44795E+03  1.05214E+04  2.83676E+03  9.07020E+03  8.67868E+03  4.30115E+03  1.31427E+04
 -1.08239E+03  1.46420E+04 -8.58158E+03  9.39573E+03 -1.02136E+04  2.82940E+03 -7.70917E+03 -1.54300E+03
 -4.54122E+03 -2.39621E+03 -1.56750E+03  1.54979E+03 -1.70310E+03  1.79712E+03 -3.22027E+03  3.17986E+03
 -7.55496E+03 -6.90296E+02 -7.87773E+03 -7.02551E+03 -3.31760E+03 -1.06778E+04  3.02389E+03 -7.82794E+03
  6.88397E+03 -3.31977E+03  4.46743E+03  1.55728E+03  9.60858E+02  2.83130E+03 -2.85452E+03 -3.51397E+02
 -3.24201E+03 -4.73935E+03 -9.06409E+02 -6.86247E+03  3.65641E+03 -7.04374E+03  9.18284E+03 -3.75525E+03
  1.01553E+04  6.35004E+02  7.78529E+03  5.53286E+03  1.30911E+03  7.94860E+03 -5.20849E+03  7.56306E+03
 -6.56163E+03  2.66739E+03 -3.47304E+03 -9.26089E+02  1.72530E+03 -1.52261E+03  3.88828E+03 -8.25560E+02
  3.93048E+03  2.81067E+03  9.97485E+02  5.84583E+03 -4.20070E+03  6.00003E+03 -7.55146E+03  2.12784E+03
 -4.20802E+03 -2.77458E+03 -1.05613E+02 -6.65927E+03  3.59917E+03 -2.89150E+03  2.73870E+03  7.54348E+02
  6.77198E+02  2.59678E+03 -4.34555E+03  4.24090E+03 -3.97261E+03  2.05325E+03 -3.33549E+03 -8.90657E+02
 -2.62936E+03 -4.79751E+03  8.88607E+02 -6.37343E+03  5.44224E+03 -3.96079E+03  5.54772E+03  6.95157E+02
  3.53791E+03  4.37139E+03  6.75834E+02  6.25076E+03 -4.25343E+03  3.74608E+03 -4.19435E+03 -2.33401E+02
 -5.06884E+03 -4.31231E+03 -1.84727E+03 -4.46434E+03  2.16869E+03 -4.67560E+03  2.60236E+03 -3.00014E+03
  2.79549E+03  3.62108E+02  1.79910E+01  1.41270E+03  7.03882E+02  2.21420E+02  3.64400E+02 -9.65335E+02
  3.39645E+03 -7.12978E+02  4.20526E+03  1.78151E+02  4.30938E+03  2.44611E+03  4.66985E+03  6.05252E+03
 -8.60080E+02  7.63849E+03 -6.74692E+03  5.43922E+03 -8.67696E+03  9.85256E+02 -6.80110E+03 -1.72148E+03
 -3.66963E+03 -5.73837E+03 -6.45974E+02 -4.26332E+03  1.61786E+03 -1.57377E+03  1.84592E+03 -1.97335E+03
  1.09534E+03 -9.27744E+02  2.03608E+03 -2.33656E+03  3.33669E+03 -1.23831E+03  3.33234E+03  6.81187E+02
  3.96884E+03  1.15670E+03  1.17471E+03  2.54829E+03 -1.35563E+03  2.13681E+03 -3.82145E+03  2.10278E+03
 -4.03837E+03 -7.67102E+02 -1.26043E+03 -2.58922E+03  6.20206E+02 -4.04493E+03  2.80590E+03 -4.74266E+03
  4.17059E+03 -2.83849E+03  5.85767E+03 -1.60867E+02  4.41539E+03  3.51041E+03  8.49348E+02  4.62415E+03
 -1.53633E+03  5.73679E+03 -2.81475E+03  1.81923E+03 -1.62404E+03 -4.79114E+02  4.49929E+01 -5.18770E+02
 -4.25671E+02 -4.16085E+02 -5.12602E+02  1.66038E+03 -2.35846E+03  8.49809E+02 -3.69260E+03  3.21818E+02
 -5.30914E+02 -3.23550E+03  6.94474E+02 -3.70825E+03  2.93797E+03 -3.21162E+03  2.93182E+03 -6.03233E+02
  3.04526E+03  1.83755E+03  1.34155E+03  1.94535E+03 -3.36566E+02  3.75841E+03 -2.51617E+03  2.16751E+03
 -3.01194E+03  6.50443E+02 -2.52857E+03 -1.56217E+03 -1.92720E+02 -2.67118E+03  1.08210E+03 -2.02251E+03
  1.96557E+03 -1.18065E+03  7.75614E+02  2.97339E+02  2.88245E+02  1.63634E+03  9.85888E+02  7.34625E+02
  1.75581E+03  6.68576E+02  7.68259E+02  1.04297E+03  1.02949E+03  2.27518E+03  1.26278E+03  1.68700E+03
 -1.15239E+03  2.50042E+03 -1.66374E+03  3.58462E+03 -2.08316E+03  8.81528E+02 -3.08100E+03 -4.39530E+02
 -9.02732E+02 -2.78114E+03  6.36797E+02 -3.74727E+03  1.02054E+03 -1.78055E+03  2.66741E+03 -7.18355E+02
  1.72451E+03  1.51855E+03  8.90128E+02  1.47212E+03  5.68936E+01  8.99336E+02 -3.86092E+02 -2.63751E+02
 -1.00433E+03 -9.00733E+02  9.92256E+02 -5.63462E+02  1.25145E+03 -7.42378E+02  4.49151E+02  3.80671E+02
  7.62120E+01 -4.00518E+02  5.66224E+02 -3.33683E+02 -2.42248E+02  6.66236E+02  1.49088E+03 -1.23490E+02
  5.92516E+01 -6.30675E+02  2.13940E+03  6.05495E+02  2.30079E+01  2.15051E+03 -1.64238E+02  2.07077E+03
 -1.21509E+03  4.16052E+02 -1.55167E+03  7.15521E+01 -1.79694E+03 -8.53428E+02 -2.91476E+02 -4.95065E+02
  1.92918E+02 -9.94122E+02  4.04302E+02 -9.24086E+02  4.37308E+02  1.45621E+03 -4.93875E+02  6.14140E+02
 -1.52451E+03  7.56701E+02 -9.74960E+02 -1.26212E+03 -5.18560E+02 -1.75508E+03  4.09475E+02 -9.13237E+02
 -4.80941E+01 -8.17044E+02  4.10539E+02  1.09591E+02  1.17003E+03 -6.14707E+02  5.04031E+02  7.37481E+02
 -2.93399E+02 -7.86031E+01 -9.15315E+02 -8.19578E+01  2.51795E+02  1.50782E+01  1.59953E+03 -3.76528E+02
  7.67723E+02  3.00105E+02  2.70186E+03  1.48300E+02  1.02068E+03  9.24210E+02 -3.57045E+02  1.04958E+03
 -1.45491E+03 -2.47220E+02 -1.61221E+03 -1.40445E+02 -4.91939E+02 -1.42470E+03  4.24730E+02 -8.74083E+01
  1.54090E+03 -4.56528E+02 -2.67319E+02  2.66942E+02  1.34275E+00  9.02702E+02  5.13449E+02  1.17131E+03
 -6.27449E+02  1.74827E+02  2.06996E+02 -3.18717E+02  1.00319E+02 -9.74003E+01 -9.54297E+02  6.34645E+02
 -4.96762E+02  1.21692E+03 -1.91565E+03  3.69652E+02 -1.49210E+03  2.12419E+02 -2.12559E+03 -3.61851E+02
 -7.86139E+02 -1.63174E+03  5.75563E+02 -2.46188E+03  3.64827E+02 -2.00578E+03  1.75755E+03 -2.71755E+02
  2.10484E+03 -1.18304E+02  5.80032E+02  1.41206E+03 -3.37403E+02  8.45046E+02 -5.92960E+02  3.07328E+02
 -2.23815E+02 -3.59553E+00 -3.55848E+02 -6.26393E+02 -5.14128E+02  8.29753E+02 -1.03744E+03  2.35984E+01
 -1.39036E+03 -3.24904E+02 -5.22039E+02 -2.90849E+02  3.35174E+02 -7.23123E+02  2.37381E+01 -5.49523E+02
  7.22964E+02 -3.34101E+02 -1.58300E+01  2.09324E+02  1.48248E+03  8.13649E+02 -6.18644E+02  1.08491E+03
 -4.08914E+02  1.58559E+03 -1.48036E+03  1.21041E+03 -8.36959E+02  2.16188E+02 -4.86309E+02 -1.05968E+03
 -6.63107E+02 -5.02525E+02  3.88230E+02 -6.75765E+02 -2.01880E+01 -5.74383E+02  4.66695E+02  4.88510E+02
  3.87036E+02 -1.92907E+02 -3.87453E+02  5.05368E+02 -7.78234E+02  3.14208E+02 -2.05222E+02 -2.56358E+02
  5.68841E+02 -3.20257E+00  1.13297E+02  6.86105E+02 -8.77417E+01  4.50101E+02 -1.03137E+02  4.67838E+02
 -2.29349E+02  1.97511E+02  3.46314E+00 -8.98597E+01 -6.50435E+02  4.15288E+01  3.56328E+01 -5.59133E+02
 -7.81479E+01 -3.88791E+02 -2.83157E+02  2.13390E+02  7.11120E+02 -9.99010E+02  3.92602E+00  8.55546E+02
  7.91494E+02  1.21423E+02 -1.51396E+02  3.21223E+02 -4.55226E+02  5.80718E+02  2.22698E+02 -1.30443E+02
 -3.78527E+02  1.10658E+02 -3.45404E+02 -2.73024E+02 -2.37432E+02 -8.73384E+01 -5.82006E+02 -4.58737E+02
 -7.64080E+02  4.03061E+02 -7.60965E+02 -1.01062E+03  5.93911E+02 -1.36387E+03  2.08185E+02  2.00981E+02
  5.22481E+01 -5.76546E+02 -1.07710E+03  2.64064E+02  6.45560E+02  6.10940E+02 -9.89193E+01  3.69617E+02
