 $NMID ID='MM_0lb_SNR400_7hz_g45_85.RAW', FMTDAT='(8E13.5)'
 TRAMP=1., VOLUME=1. $END
  3.09851E+05  1.16636E+03  3.38922E+05  2.50301E+05  8.48932E+04  3.38142E+05 -1.33582E+05  2.52456E+05
 -1.91243E+05  8.39080E+04 -1.13268E+05 -3.18777E+04  2.14297E+02 -5.08892E+04  5.35943E+04 -1.01901E+03
  3.55457E+04  5.19985E+04 -1.63330E+04  7.62563E+04 -6.17578E+04  6.47762E+04 -8.45482E+04  3.28829E+04
 -8.33115E+04 -1.17235E+04 -5.95619E+04 -5.30180E+04 -1.50076E+04 -7.17119E+04  2.84543E+04 -4.76091E+04
  4.12043E+04  3.78660E+03  1.71350E+04  4.85862E+04 -3.53316E+04  4.85855E+04 -6.89030E+04  1.08702E+03
 -5.47082E+04 -5.80744E+04 -6.36533E+03 -7.93624E+04  3.52704E+04 -5.81731E+04  5.05086E+04 -1.83528E+04
  4.55726E+04  1.22547E+04  3.38343E+04  2.65086E+04  1.58011E+04  3.02690E+04 -6.12557E+03  2.77162E+04
 -2.33448E+04  1.06048E+04 -1.79951E+04 -5.49638E+03  8.75496E+03 -7.50261E+03  2.37465E+04  1.41314E+04
  7.16528E+03  3.83508E+04 -3.46305E+04  3.78748E+04 -6.70207E+04  1.80501E+03 -5.95924E+04 -4.44471E+04
 -1.33155E+04 -6.69631E+04  4.22102E+04 -4.77267E+04  6.22662E+04 -2.42182E+03  3.74424E+04  3.49687E+04
 -4.83751E+03  4.04917E+04 -3.19431E+04  1.87887E+04 -3.34355E+04 -4.06155E+03 -2.03292E+04 -1.20070E+04
 -9.62936E+03 -1.48903E+04 -2.90211E+02 -1.98826E+04  8.33100E+03 -2.42456E+04  1.55318E+04 -1.27348E+04
  9.89121E+03  6.75800E+03 -9.56051E+03  1.30460E+04 -2.50868E+04 -6.73981E+03 -8.27803E+03 -3.92660E+04
  2.62924E+04 -4.82964E+04  5.32028E+04 -2.09178E+04  4.96576E+04  2.15565E+04  1.80062E+04  4.77263E+04
 -1.69874E+04  3.74209E+04 -2.82808E+04  3.59952E+03 -1.30092E+04 -3.00655E+04  2.14039E+04 -3.80988E+04
  4.49508E+04 -1.15764E+04  4.18759E+04  2.59566E+04  2.32137E+04  5.22676E+04 -8.43223E+03  5.85275E+04
 -3.66960E+04  4.03298E+04 -4.90150E+04  1.19508E+04 -4.89805E+04 -1.91730E+04 -2.64336E+04 -4.44848E+04
  7.79919E+03 -4.38416E+04  3.45230E+04 -1.88003E+04  3.29195E+04  1.17356E+04  5.89355E+03  2.29696E+04
 -1.43096E+04  1.05396E+04 -1.11469E+04 -7.64169E+03  4.98221E+03 -1.16706E+04  1.92079E+04  4.93103E+03
  1.62474E+04  2.26575E+04 -4.54738E+03  2.80225E+04 -2.35154E+04  1.49297E+04 -3.16533E+04 -2.58691E+03
 -2.67594E+04 -1.89646E+04 -1.31424E+04 -2.71642E+04  4.54875E+03 -2.78100E+04  2.15997E+04 -2.45413E+04
  3.35877E+04 -1.45593E+04  3.97350E+04  5.36299E+03  2.82311E+04  2.53836E+04  4.48302E+03  4.31316E+04
 -2.08184E+04  3.49932E+04 -3.16701E+04  1.16895E+04 -2.29788E+04 -1.00387E+04 -5.58428E+03 -1.21008E+04
  1.07011E+03 -3.95926E+02 -8.56750E+03  8.83821E+03 -2.15575E+04  4.35655E+03 -2.19266E+04 -1.08225E+04
 -1.30011E+04 -2.52306E+04  6.11972E+03 -2.87998E+04  2.06559E+04 -2.11131E+04  2.39190E+04 -2.33411E+03
  1.48739E+04  1.74325E+04 -1.13658E+03  2.48382E+04 -1.79769E+04  1.43971E+04 -2.52930E+04 -5.07010E+03
 -1.87980E+04 -2.23300E+04 -2.54259E+03 -2.95068E+04  1.41271E+04 -2.51653E+04  2.39735E+04 -1.28958E+04
  2.42684E+04 -4.10732E+02  1.75984E+04  5.53484E+03  9.16444E+03  1.03868E+03  1.34923E+04 -2.51767E+03
  2.37486E+04  2.73115E+03  2.83536E+04  2.00355E+04  1.93023E+04  3.98386E+04 -2.06490E+03  4.84379E+04
 -2.58752E+04  4.09991E+04 -4.52140E+04  2.05933E+04 -5.02423E+04 -3.73810E+03 -3.95793E+04 -2.82145E+04
 -1.54118E+04 -4.07341E+04  1.49611E+04 -3.51620E+04  3.00865E+04 -1.63647E+04  2.57696E+04  9.68686E+03
  8.79724E+03  2.02490E+04 -1.25214E+04  1.68078E+04 -2.15496E+04  2.13687E+03 -1.64079E+04 -1.44292E+04
 -2.43101E+02 -2.06147E+04  1.06541E+04 -1.48755E+04  1.38181E+04 -6.35781E+02  4.21449E+03  9.08376E+03
 -1.00232E+04  4.28090E+03 -1.00646E+04 -7.74408E+03 -2.18486E+03 -2.07254E+04  1.23117E+04 -2.08040E+04
  2.62744E+04 -1.30021E+04  3.03139E+04  3.66610E+03  2.55397E+04  2.03090E+04  1.25640E+04  3.22693E+04
 -5.76210E+03  3.38528E+04 -2.30120E+04  2.12314E+04 -2.46022E+04  4.89982E+03 -1.71098E+04 -7.55178E+03
 -6.32915E+03 -8.07746E+03 -1.12260E+03 -3.71517E+02 -3.17100E+03  4.27050E+03 -7.44802E+03  6.11534E+03
 -1.57293E+04 -1.19470E+03 -1.65145E+04 -1.28183E+04 -6.53252E+03 -2.21767E+04  6.27448E+03 -1.71460E+04
  1.37653E+04 -7.49793E+03  9.80229E+03  4.34811E+03 -3.92762E+02  7.01233E+03 -9.07219E+03 -1.88686E+02
 -8.92342E+03 -1.17102E+04 -7.53414E+02 -1.73028E+04  1.12807E+04 -1.84674E+04  2.20315E+04 -9.88118E+03
  2.60489E+04  3.18864E+03  1.90049E+04  1.65964E+04  3.58473E+03  2.27111E+04 -1.07708E+04  1.76757E+04
 -1.47174E+04  5.17687E+03 -7.44466E+03 -3.26812E+03  3.04918E+03 -5.56056E+03  8.21989E+03 -1.97096E+03
  8.11902E+03  8.00454E+03  1.28613E+03  1.33695E+04 -1.02325E+04  1.32104E+04 -1.80741E+04  2.02143E+03
 -1.23910E+04 -9.30835E+03  9.27799E+02 -1.54152E+04  1.01616E+04 -7.12372E+03  1.08223E+04  4.04119E+03
  2.88781E+03  1.17597E+04 -9.15230E+03  1.29006E+04 -1.55225E+04  6.39463E+03 -1.67132E+04 -5.92256E+03
 -9.62997E+03 -1.88537E+04  4.61944E+03 -2.09081E+04  1.81349E+04 -1.33293E+04  2.05051E+04  2.36989E+03
  1.20681E+04  1.59444E+04 -1.22765E+03  1.78691E+04 -1.36014E+04  9.26153E+03 -1.46907E+04 -1.51186E+03
 -1.23750E+04 -1.19670E+04 -8.98889E+02 -1.48968E+04  7.93407E+03 -1.09747E+04  9.07281E+03 -3.11013E+03
  5.69437E+03  2.60930E+03 -1.60198E+03  1.81945E+03 -1.53816E+03 -4.38966E+03  3.73269E+03 -9.49037E+03
  1.40741E+04 -4.74417E+03  1.87283E+04  1.72439E+03  1.81900E+04  1.36122E+04  1.14067E+04  2.47515E+04
 -6.13758E+03  2.83247E+04 -2.35910E+04  2.15842E+04 -2.93664E+04  4.67706E+03 -2.44830E+04 -1.07228E+04
 -1.24262E+04 -2.03919E+04 -2.39397E+02 -1.78497E+04  5.37200E+03 -1.06804E+04  6.53168E+03 -5.86274E+03
  5.00549E+03 -3.37966E+03  4.53988E+03 -4.50811E+03  6.70764E+03 -4.74635E+03  9.74545E+03 -1.93240E+03
  1.28691E+04  4.13286E+03  7.63873E+03  1.09668E+04 -2.43496E+03  1.37191E+04 -1.35646E+04  1.04124E+04
 -1.75635E+04 -1.51457E+03 -1.12400E+04 -1.26264E+04 -9.37370E+02 -1.91215E+04  1.05210E+04 -1.79272E+04
  1.98007E+04 -1.02795E+04  2.35138E+04  3.84504E+03  1.52982E+04  1.62832E+04  2.32058E+03  2.03555E+04
 -8.77197E+03  1.64265E+04 -1.26071E+04  6.49284E+03 -7.65690E+03 -2.44964E+03 -3.08093E+03 -2.82099E+03
 -7.30069E+02  6.34004E+02 -1.68636E+03  3.91093E+03 -7.63969E+03  2.14014E+03 -1.24960E+04 -2.49237E+03
 -9.41609E+03 -1.18484E+04 -9.22607E+02 -1.82082E+04  1.03899E+04 -1.64802E+04  1.78266E+04 -5.62071E+03
  1.75598E+04  8.27266E+03  8.07719E+03  1.62740E+04 -3.65227E+03  1.83862E+04 -1.45518E+04  1.13756E+04
 -1.70125E+04  5.41836E+02 -1.33706E+04 -1.10296E+04 -1.70846E+03 -1.57910E+04  8.27523E+03 -1.11510E+04
  1.13980E+04 -3.39759E+03  7.90162E+03  3.10164E+03  2.21813E+03  5.50577E+03  1.10298E+03  3.35446E+03
  2.65557E+03  1.73548E+03  4.75442E+03  2.40425E+03  5.43291E+03  6.49482E+03  4.58273E+03  1.08364E+04
 -4.28748E+03  1.43485E+04 -1.33373E+04  1.39131E+04 -2.00368E+04  3.20267E+03 -1.93457E+04 -8.64461E+03
 -9.32578E+03 -1.92327E+04  3.42736E+03 -1.99178E+04  1.11801E+04 -1.33782E+04  1.61334E+04 -3.91622E+03
  1.18515E+04  6.65482E+03  2.39970E+03  1.03743E+04 -5.58652E+03  7.47979E+03 -7.01166E+03 -1.33046E+03
 -2.88585E+03 -8.23708E+03  4.21957E+03 -8.89199E+03  7.81124E+03 -4.31439E+03  7.30579E+03  1.64940E+03
  5.08038E+03  4.10647E+03  1.71600E+03  4.04466E+03 -8.86224E+02  2.73608E+03  2.15712E+03 -4.57277E+02
  2.67197E+03 -1.76174E+03  7.36967E+03  2.80448E+03  4.31745E+03  1.04319E+04 -1.43753E+03  1.30044E+04
 -1.02510E+04  9.61970E+03 -1.26909E+04  3.14298E+03 -1.03451E+04 -4.88555E+03 -4.36272E+03 -8.14880E+03
  1.84772E+02 -7.78760E+03  5.27242E+03 -3.75484E+03  4.66734E+03  4.05016E+03 -1.21946E+03  5.81816E+03
 -7.76754E+03  3.64564E+03 -1.04531E+04 -4.78315E+03 -4.73864E+03 -9.93767E+03  2.13832E+03 -1.11081E+04
  7.07870E+03 -6.89546E+03  8.40473E+03 -1.01066E+03  7.45449E+03  3.21792E+03  1.02301E+03  5.57087E+03
 -4.75036E+03  9.69575E+02 -5.46768E+03 -4.25253E+03  2.16862E+03 -8.56012E+03  9.13924E+03 -7.30936E+03
  1.29072E+04  1.06957E+03  1.18456E+04  7.88870E+03  4.49306E+03  1.31296E+04 -4.73472E+03  1.24049E+04
 -1.17059E+04  5.40635E+03 -1.05741E+04 -2.27146E+03 -6.71358E+03 -7.29736E+03  2.29003E+03 -8.67913E+03
  8.85735E+03 -4.64139E+03  6.61668E+03  3.97685E+03  2.37027E+03  6.83405E+03 -1.44979E+03  7.12434E+03
 -3.94330E+03  3.65679E+03 -3.25813E+03  1.33309E+03 -9.47278E+02  1.46508E+03 -2.40362E+03  4.02497E+03
 -3.51362E+03  5.69878E+03 -8.68278E+03  4.83261E+03 -1.26694E+04  8.54609E+02 -1.49763E+04 -9.77764E+03
 -7.47375E+03 -1.76257E+04  3.75620E+03 -2.08955E+04  1.32334E+04 -1.59507E+04  1.90916E+04 -5.90137E+03
  1.89494E+04  4.20110E+03  1.16958E+04  1.36123E+04  1.38632E+03  1.41055E+04 -5.27586E+03  1.09426E+04
 -8.89465E+03  3.11374E+03 -5.01397E+03 -2.20138E+03 -2.45399E+03 -1.83888E+03 -1.56687E+03  9.83116E+01
 -1.67094E+03  1.30719E+02 -2.50339E+03 -1.20412E+03 -2.26432E+03 -3.43402E+03 -1.60023E+02 -5.06738E+03
  5.96039E+03 -4.68288E+03  8.64982E+03  2.64560E+02  9.49711E+03  7.45511E+03  2.49043E+03  1.46421E+04
 -6.03189E+03  1.57969E+04 -1.57898E+04  9.22966E+03 -1.77978E+04 -1.51085E+03 -1.29577E+04 -1.06919E+04
 -5.34892E+03 -1.48048E+04  3.01631E+03 -1.36835E+04  8.29095E+03 -7.04490E+03  9.89901E+03  2.09060E+02
  5.88075E+03  3.64360E+03 -9.10322E+02  4.21616E+03 -2.89759E+03 -2.91940E+02  3.30762E+02 -3.51313E+03
  3.75111E+03 -1.49283E+03  6.47676E+03  1.53519E+03  4.53085E+03  5.80195E+03  1.00408E+00  8.37750E+03
 -7.22651E+03  6.79231E+03 -9.49638E+03  6.04885E+02 -9.01658E+03 -6.79236E+03 -1.26557E+03 -1.25645E+04
  7.32178E+03 -1.03300E+04  1.13730E+04 -3.34495E+03  1.16891E+04  3.37293E+03  5.90995E+03  1.06405E+04
  1.61627E+03  1.04750E+04 -3.74972E+03  7.38064E+03 -6.79569E+03  4.13656E+03 -5.51873E+03  5.16729E+02
 -2.30662E+03 -9.78790E+02 -2.11407E+03  7.46578E+02 -5.22976E+03  1.35691E+03 -7.36208E+03 -2.48047E+03
 -6.33860E+03 -5.92738E+03 -2.16723E+03 -1.00800E+04  4.39116E+03 -1.05644E+04  9.74109E+03 -4.55190E+03
  1.01388E+04  1.01681E+03  6.50837E+03  7.19186E+03 -1.50849E+03  1.08606E+04 -8.57005E+03  6.63440E+03
