 $NMID ID='MM_0lb_SNR400_17hz_g55_90.RAW', FMTDAT='(8E13.5)'
 TRAMP=1., VOLUME=1. $END
  3.09962E+05  1.88081E+02  3.37282E+05  2.51196E+05  8.48408E+04  3.37746E+05 -1.32828E+05  2.50556E+05
 -1.89708E+05  8.31468E+04 -1.11377E+05 -3.23883E+04  8.75395E+02 -5.09527E+04  5.43857E+04 -1.70101E+02
  3.51284E+04  5.32254E+04 -1.70636E+04  7.53673E+04 -6.03612E+04  6.33241E+04 -8.42681E+04  3.24911E+04
 -8.09023E+04 -1.10421E+04 -5.65732E+04 -5.13662E+04 -1.51787E+04 -6.96542E+04  2.72909E+04 -4.49847E+04
  3.94594E+04  3.77982E+03  1.60257E+04  4.75070E+04 -3.46800E+04  4.66930E+04 -6.61589E+04 -7.14698E+02
 -5.27820E+04 -5.63576E+04 -6.98356E+03 -7.61255E+04  3.37309E+04 -5.46104E+04  4.70640E+04 -1.64558E+04
  4.28307E+04  1.17191E+04  3.11841E+04  2.58674E+04  1.60933E+04  2.95356E+04 -4.19631E+03  2.72551E+04
 -2.21779E+04  1.21923E+04 -1.88778E+04 -4.42237E+03  5.23357E+03 -6.89484E+03  2.17022E+04  1.17660E+04
  7.49273E+03  3.50524E+04 -3.10557E+04  3.47949E+04 -6.23755E+04  1.72764E+03 -5.72713E+04 -4.17813E+04
 -1.23402E+04 -6.24116E+04  3.89402E+04 -4.45719E+04  5.72535E+04 -2.35428E+03  3.32413E+04  3.14901E+04
 -6.43932E+03  3.52409E+04 -2.96132E+04  1.46230E+04 -2.94883E+04 -4.44031E+03 -1.59320E+04 -1.08265E+04
 -8.14282E+03 -1.29172E+04 -1.36433E+03 -1.75177E+04  7.24156E+03 -2.26686E+04  1.49895E+04 -1.34502E+04
  1.22324E+04  5.07925E+03 -7.66388E+03  1.28733E+04 -2.02632E+04 -3.46372E+03 -8.77255E+03 -3.30601E+04
  2.20943E+04 -4.18211E+04  4.67740E+04 -1.96033E+04  4.38282E+04  1.86741E+04  1.49784E+04  4.35357E+04
 -1.61989E+04  3.26944E+04 -2.46445E+04  1.43081E+03 -9.47718E+03 -2.72157E+04  2.02528E+04 -3.33101E+04
  4.01244E+04 -8.48488E+03  3.35762E+04  2.35243E+04  1.73688E+04  4.50320E+04 -7.80108E+03  4.79496E+04
 -3.01444E+04  3.25739E+04 -3.99025E+04  9.31587E+03 -4.08609E+04 -1.55918E+04 -2.31842E+04 -3.59279E+04
  7.37203E+03 -3.65305E+04  2.99226E+04 -1.38268E+04  2.90257E+04  1.13721E+04  3.10534E+03  1.87604E+04
 -1.33639E+04  7.66399E+03 -1.01431E+04 -7.72639E+03  5.66655E+03 -1.01386E+04  1.71866E+04  6.25820E+03
  1.28267E+04  2.21326E+04 -5.81833E+03  2.41225E+04 -2.16912E+04  1.01292E+04 -2.63526E+04 -5.40805E+03
 -1.89873E+04 -1.71639E+04 -7.02865E+03 -1.92630E+04  3.72722E+03 -1.72296E+04  1.42476E+04 -1.66090E+04
  2.42096E+04 -1.24232E+04  3.04467E+04  2.28197E+03  2.31002E+04  1.78047E+04  3.84691E+03  3.47188E+04
 -1.69440E+04  2.92726E+04 -2.70676E+04  9.86376E+03 -2.03476E+04 -1.01249E+04 -3.88690E+03 -1.38377E+04
  1.98258E+03 -3.77095E+03 -4.28019E+03  5.86843E+03 -1.51483E+04  4.45511E+03 -1.51662E+04 -5.35282E+03
 -9.60590E+03 -1.69099E+04  5.02277E+03 -2.13566E+04  1.41526E+04 -1.59336E+04  1.66511E+04 -1.48914E+03
  1.00101E+04  1.19238E+04 -1.03035E+03  1.75626E+04 -1.21992E+04  9.52409E+03 -1.70413E+04 -3.93746E+03
 -1.29018E+04 -1.55555E+04 -1.37813E+03 -2.10930E+04  9.68861E+03 -1.67034E+04  1.73003E+04 -8.30480E+03
  1.58551E+04  6.74847E+02  1.14635E+04  3.12173E+03  5.69984E+03  1.29929E+03  8.41549E+03 -1.38063E+03
  1.53360E+04  3.22969E+03  1.73819E+04  1.39604E+04  1.11941E+04  2.76355E+04 -3.06280E+03  3.09086E+04
 -1.78751E+04  2.37070E+04 -2.75363E+04  1.10209E+04 -2.91637E+04 -1.71278E+03 -2.39667E+04 -1.66921E+04
 -1.11198E+04 -2.39884E+04  8.36332E+03 -2.25000E+04  1.88774E+04 -1.19414E+04  1.68679E+04  4.17615E+03
  7.24615E+03  1.29343E+04 -7.93194E+03  1.13643E+04 -1.43296E+04  2.52732E+03 -1.16947E+04 -8.69974E+03
 -5.65504E+02 -1.39014E+04  6.99478E+03 -1.07932E+04  8.28222E+03 -1.51443E+03  2.08328E+03  6.43239E+03
 -6.10297E+03  2.31082E+03 -4.41190E+03 -5.11325E+03  2.35994E+02 -1.16531E+04  9.17072E+03 -1.17875E+04
  1.47323E+04 -5.58518E+03  1.49287E+04  2.53078E+03  1.27781E+04  1.15912E+04  6.33431E+03  1.73800E+04
 -2.10738E+03  1.90063E+04 -1.14450E+04  1.21201E+04 -1.40965E+04  3.09745E+03 -9.98634E+03 -2.15065E+03
 -4.84298E+03 -3.78411E+03 -4.55847E+02  1.52636E+03 -2.60217E+03  2.34177E+03 -4.30484E+03  3.54065E+03
 -9.08800E+03 -7.31867E+02 -9.81879E+03 -8.15938E+03 -4.05633E+03 -1.30457E+04  4.15197E+03 -9.78957E+03
  7.95676E+03 -4.48541E+03  6.01442E+03  2.55281E+03  3.98706E+02  3.96569E+03 -3.96482E+03 -4.49565E+02
 -3.46723E+03 -6.27796E+03 -6.42027E+02 -8.91174E+03  5.03920E+03 -9.79525E+03  1.16276E+04 -5.12509E+03
  1.37820E+04  1.01642E+03  1.00188E+04  8.00360E+03  1.56662E+03  9.82844E+03 -6.46517E+03  9.51709E+03
 -7.84132E+03  3.28501E+03 -3.70853E+03 -1.65097E+03  1.24147E+03 -2.66433E+03  5.22795E+03 -1.20946E+03
  4.76722E+03  4.11769E+03  7.48753E+02  7.61290E+03 -6.04532E+03  7.75486E+03 -8.64715E+03  1.92988E+03
 -5.22191E+03 -5.43960E+03  5.07609E+02 -8.03723E+03  3.94348E+03 -3.87624E+03  4.90394E+03  1.51557E+03
  9.85415E+02  4.28524E+03 -5.04942E+03  6.03660E+03 -6.41652E+03  2.72374E+03 -5.64597E+03 -1.45992E+03
 -3.92814E+03 -7.45086E+03  1.37297E+03 -8.19066E+03  7.05016E+03 -5.57189E+03  7.77203E+03  1.11603E+03
  5.17616E+03  6.34813E+03 -4.25762E+02  8.46757E+03 -6.02035E+03  4.57358E+03 -5.87024E+03 -5.97232E+02
 -6.55574E+03 -6.18883E+03 -1.40330E+03 -6.18125E+03  2.98319E+03 -6.06235E+03  3.61431E+03 -2.72505E+03
  3.04906E+03  6.18697E+02 -8.49268E+02  1.51247E+03  8.96536E+02 -2.06583E+02  8.68066E+02 -2.34492E+03
  5.11120E+03 -1.42645E+03  7.37820E+03  8.33630E+02  7.32957E+03  4.12852E+03  6.08189E+03  8.76000E+03
 -2.27442E+03  1.07783E+04 -9.24289E+03  8.53742E+03 -1.17510E+04  1.59123E+03 -9.72194E+03 -3.66512E+03
 -5.11931E+03 -8.35465E+03 -5.35532E+02 -6.33120E+03  2.60344E+03 -2.74379E+03  2.22660E+03 -2.43395E+03
  1.59596E+03 -1.47768E+03  3.03401E+03 -2.26970E+03  3.62666E+03 -1.68497E+03  4.04299E+03 -2.84595E+02
  5.62274E+03  1.01480E+03  1.81614E+03  3.93476E+03 -1.93961E+03  4.21813E+03 -5.31687E+03  3.54695E+03
 -6.12790E+03 -7.68281E+02 -2.98329E+03 -4.08965E+03  2.76165E+02 -6.42008E+03  3.33734E+03 -5.83956E+03
  6.48275E+03 -3.98378E+03  8.19253E+03  2.61685E+02  5.83291E+03  5.17906E+03  1.17886E+03  7.33441E+03
 -2.53756E+03  6.65945E+03 -4.51668E+03  2.87412E+03 -2.12433E+03 -1.31418E+03 -8.93508E+02 -6.40373E+02
 -8.19404E+02  9.35488E+02 -1.21757E+03  1.86720E+03 -2.60745E+03  1.03705E+03 -4.73192E+03 -2.84420E+02
 -2.29487E+03 -4.81421E+03  8.67637E+02 -5.73561E+03  3.80376E+03 -5.99586E+03  4.82800E+03 -8.15112E+02
  5.24995E+03  2.79422E+03  2.15110E+03  4.56248E+03 -9.59919E+02  5.70693E+03 -3.59227E+03  3.90800E+03
 -4.62498E+03  5.34940E+02 -4.40620E+03 -3.17181E+03  4.39822E+01 -4.35860E+03  2.13846E+03 -2.98580E+03
  3.53503E+03 -1.72373E+03  2.61630E+03  5.68908E+02  1.12358E+02  1.40505E+03  9.36370E+02  8.69282E+02
  1.89104E+03  1.12902E+03  8.60759E+02  1.49705E+03  5.89547E+02  2.90152E+03  9.64226E+02  2.63094E+03
 -1.75037E+03  4.42422E+03 -3.45833E+03  4.93228E+03 -3.58880E+03  1.27868E+03 -5.42634E+03 -9.48111E+02
 -2.60105E+03 -4.39099E+03  1.04525E+03 -6.33575E+03  2.59309E+03 -3.15547E+03  4.06060E+03 -7.66089E+02
  2.80904E+03  2.36810E+03  4.87523E+02  3.39527E+03 -8.00750E+02  1.97430E+03 -1.07118E+03 -5.57770E+02
 -1.15959E+03 -1.27277E+03  1.38868E+03 -2.16096E+03  1.71733E+03 -1.00882E+03  2.12558E+03  1.38145E+02
  1.34411E+03  8.42162E+02  7.41950E+02 -1.09028E+01 -7.54053E+02  9.22716E+02  1.90730E+03 -2.20577E+02
  9.49981E+02 -5.01120E+02  2.24365E+03  5.08568E+02  4.01774E+02  2.76305E+03  2.37412E+02  3.76367E+03
 -2.02875E+03  1.28534E+03 -3.10334E+03  1.37571E+03 -3.46408E+03 -1.62350E+02 -2.35970E+02 -1.61348E+03
  8.57067E+02 -1.12184E+03  1.16778E+03 -1.43632E+03  8.73373E+02  1.16858E+03 -1.09198E+03  1.84964E+03
 -2.05956E+03  1.30220E+03 -1.69189E+03 -2.05007E+03 -9.39385E+02 -2.45633E+03  2.78052E+02 -2.22826E+03
  2.21246E+02 -9.57937E+02  1.06404E+03 -4.71677E+02  1.38773E+03  2.49536E+02  1.95636E+02  1.74763E+03
 -7.64515E+02  1.97615E+02 -8.03915E+02  4.97060E+01  1.07024E+03 -1.58327E+03  2.13164E+03 -1.15882E+03
  1.89456E+03  2.67258E+02  3.15665E+03  1.03560E+03  1.72400E+03  2.28571E+03 -3.09158E+02  1.87194E+03
 -2.46607E+03  3.49244E+02 -2.03115E+03  5.89267E+01 -9.78144E+02 -1.67659E+03  2.01035E+02 -1.36813E+03
  1.96502E+03 -9.24720E+02  9.28964E+02  9.94650E+02  1.49379E+02  1.40775E+03  2.13275E+02  8.92735E+02
 -6.02513E+02  1.46918E+03 -1.18984E+03 -2.08150E+02 -3.44906E+02  2.64387E+02 -8.15583E+02  4.30225E+02
 -1.46826E+03  1.26246E+03 -2.04760E+03  6.44010E+02 -1.99295E+03  4.20649E+02 -2.90350E+03 -1.48651E+03
 -1.46354E+03 -3.26785E+03  2.92774E+02 -4.01224E+03  1.72285E+03 -3.31048E+03  3.27620E+03 -1.48184E+03
  3.13340E+03  1.84698E+02  1.79986E+03  1.93486E+03 -9.04977E+02  1.93384E+03 -6.86967E+02  1.67629E+03
 -1.07047E+03  1.22271E+03 -2.47569E+02  4.45031E+01 -9.40980E+02  6.63988E+02 -5.27368E+02 -1.28186E+02
 -1.59486E+03  1.73103E+02 -1.34621E+03  4.24782E+02  1.64208E+02 -8.10064E+02  1.34755E+01 -1.36760E+03
  1.32004E+03 -1.05765E+03  5.72250E+02  5.98478E+02  2.32991E+03  1.36623E+03 -2.80178E+02  1.67284E+03
 -1.20610E+03  3.20793E+03 -1.83470E+03  1.93405E+03 -2.40184E+03 -5.23637E+02 -1.60353E+03 -1.93159E+03
 -7.59474E+02 -2.03777E+03  1.94721E+02 -1.59642E+03  1.82891E+02 -1.67554E+03  1.53761E+03 -1.68106E+02
  8.81804E+02  5.11886E+02 -7.18377E+01  3.26468E+02 -6.12838E+02  5.69189E+01 -1.63402E+02 -6.83557E+02
  3.63619E+02 -2.45756E+01  3.32483E+02  7.54546E+02  2.88987E+02  1.18445E+03  2.30950E+02  7.02731E+02
 -5.79841E+02  6.25003E+02 -2.98132E+02 -1.63196E+02 -1.22633E+03 -4.85542E+02 -1.83437E+02 -1.39782E+03
  5.75881E+02 -1.09818E+03  1.20581E+03  5.49721E+02  9.58037E+02 -6.80054E+02  8.21562E+02  1.45824E+03
  7.26760E+02  2.72011E+02 -2.06045E+02  5.60002E+02 -1.15907E+03  5.64726E+02 -9.20904E+02 -3.26681E+02
 -3.54850E+02 -5.59782E+00 -5.84339E+02  4.10266E+02 -5.45448E+02  2.22906E+02 -1.03167E+03  8.86313E+01
 -1.23499E+03  2.79884E+02 -7.32420E+02 -1.06793E+03  1.11423E+03 -1.57606E+03  9.14381E+02 -8.37838E+02
  1.40805E+03  3.99519E+02 -5.41249E+02  9.75993E+02 -7.19090E+01  1.38875E+03 -6.80350E+02  1.05247E+03
