 $NMID ID='MM_0lb_SNR400_14hz_g60_83.RAW', FMTDAT='(8E13.5)'
 TRAMP=1., VOLUME=1. $END
  3.09770E+05 -4.39858E+01  3.37342E+05  2.50363E+05  8.38582E+04  3.38357E+05 -1.32978E+05  2.51495E+05
 -1.90440E+05  8.35206E+04 -1.12137E+05 -3.25901E+04  9.83248E+02 -5.05498E+04  5.36101E+04 -9.74848E+02
  3.50957E+04  5.29287E+04 -1.68889E+04  7.56846E+04 -6.13110E+04  6.38283E+04 -8.51717E+04  3.19727E+04
 -8.17932E+04 -1.14087E+04 -5.78753E+04 -5.21910E+04 -1.51675E+04 -7.05010E+04  2.82881E+04 -4.61790E+04
  4.07893E+04  3.61726E+03  1.64063E+04  4.79314E+04 -3.41749E+04  4.76288E+04 -6.74370E+04 -7.41567E+02
 -5.37104E+04 -5.75239E+04 -6.55771E+03 -7.81567E+04  3.49123E+04 -5.59402E+04  4.84413E+04 -1.78999E+04
  4.42919E+04  1.13818E+04  3.20111E+04  2.59341E+04  1.60371E+04  2.98272E+04 -4.85776E+03  2.77531E+04
 -2.17920E+04  1.21359E+04 -1.88119E+04 -5.38857E+03  6.07724E+03 -7.49246E+03  2.28207E+04  1.39892E+04
  7.76345E+03  3.59962E+04 -3.32303E+04  3.59288E+04 -6.37992E+04  1.83368E+03 -5.78583E+04 -4.30790E+04
 -1.26511E+04 -6.45884E+04  4.00837E+04 -4.58580E+04  5.96505E+04 -2.64816E+03  3.52218E+04  3.34317E+04
 -5.92761E+03  3.74279E+04 -3.05960E+04  1.70927E+04 -3.13816E+04 -4.97919E+03 -1.77895E+04 -1.19913E+04
 -9.15328E+03 -1.38436E+04 -7.49485E+02 -1.86201E+04  7.70698E+03 -2.35337E+04  1.55690E+04 -1.30792E+04
  1.11411E+04  5.41507E+03 -9.44118E+03  1.32192E+04 -2.17779E+04 -4.93326E+03 -8.65671E+03 -3.55722E+04
  2.37345E+04 -4.52979E+04  4.93663E+04 -1.98554E+04  4.61105E+04  1.96991E+04  1.63284E+04  4.56386E+04
 -1.62515E+04  3.46112E+04 -2.59213E+04  1.73399E+03 -9.52873E+03 -2.90674E+04  2.10863E+04 -3.54302E+04
  4.23780E+04 -9.22332E+03  3.74716E+04  2.46645E+04  1.97388E+04  4.87484E+04 -8.21994E+03  5.20810E+04
 -3.27000E+04  3.51742E+04 -4.39388E+04  1.03994E+04 -4.38449E+04 -1.74153E+04 -2.45039E+04 -3.91960E+04
  7.58797E+03 -3.94288E+04  3.25057E+04 -1.55420E+04  3.03272E+04  1.10183E+04  4.56311E+03  1.94825E+04
 -1.35746E+04  8.24823E+03 -1.01482E+04 -7.51651E+03  5.86629E+03 -1.06503E+04  1.80333E+04  6.52802E+03
  1.37471E+04  2.25748E+04 -5.72993E+03  2.54308E+04 -2.23860E+04  1.21892E+04 -2.85036E+04 -4.74412E+03
 -2.14097E+04 -1.77234E+04 -9.14518E+03 -2.21982E+04  3.99840E+03 -2.16556E+04  1.71206E+04 -1.95617E+04
  2.79600E+04 -1.36915E+04  3.42633E+04  3.87732E+03  2.44284E+04  2.13093E+04  4.25965E+03  3.72631E+04
 -1.81880E+04  3.13416E+04 -2.92544E+04  1.12778E+04 -2.14048E+04 -1.03829E+04 -3.99889E+03 -1.32763E+04
  1.12780E+03 -2.66504E+03 -5.49928E+03  7.02448E+03 -1.75513E+04  5.37915E+03 -1.81268E+04 -7.58987E+03
 -1.03591E+04 -1.98251E+04  4.67749E+03 -2.52217E+04  1.64605E+04 -1.76799E+04  1.97155E+04 -1.55835E+03
  1.19424E+04  1.38294E+04 -1.03350E+03  2.02045E+04 -1.44930E+04  1.14659E+04 -1.99626E+04 -4.52221E+03
 -1.45588E+04 -1.81283E+04 -1.93440E+03 -2.39338E+04  1.12524E+04 -1.95503E+04  1.98639E+04 -9.99437E+03
  1.88690E+04  4.87237E+02  1.34321E+04  4.94061E+03  7.38580E+03  1.35595E+03  1.06083E+04 -1.68749E+03
  1.86867E+04  2.47018E+03  2.06372E+04  1.53598E+04  1.40855E+04  3.27583E+04 -3.57024E+03  3.66342E+04
 -2.14932E+04  2.93263E+04 -3.47296E+04  1.46027E+04 -3.61845E+04 -3.37918E+03 -2.94449E+04 -2.05146E+04
 -1.29618E+04 -3.02648E+04  1.04368E+04 -2.70535E+04  2.37758E+04 -1.21442E+04  2.04839E+04  6.15245E+03
  7.45825E+03  1.54907E+04 -9.64533E+03  1.33182E+04 -1.68968E+04  2.75200E+03 -1.32222E+04 -1.04023E+04
  3.17426E+02 -1.61933E+04  8.28548E+03 -1.23787E+04  1.06729E+04 -8.08044E+02  2.88950E+03  7.14765E+03
 -7.61940E+03  2.97870E+03 -6.78614E+03 -6.17790E+03 -5.39691E+02 -1.45661E+04  1.02369E+04 -1.52710E+04
  1.78685E+04 -8.10255E+03  1.94153E+04  2.48780E+03  1.68210E+04  1.40678E+04  7.60771E+03  2.21656E+04
 -3.25795E+03  2.35374E+04 -1.60700E+04  1.50820E+04 -1.72135E+04  3.48643E+03 -1.25530E+04 -3.49385E+03
 -5.32361E+03 -5.62204E+03 -7.75190E+02  4.47318E+02 -2.48721E+03  2.90868E+03 -5.89480E+03  4.56124E+03
 -1.06503E+04 -9.35192E+02 -1.20448E+04 -9.90973E+03 -4.76495E+03 -1.61464E+04  4.64515E+03 -1.24509E+04
  1.03112E+04 -5.47038E+03  6.97724E+03  3.69931E+03 -2.51881E+02  4.08266E+03 -5.52634E+03  2.06590E+02
 -5.20103E+03 -8.10914E+03 -1.32133E+03 -1.15847E+04  7.21657E+03 -1.22490E+04  1.51844E+04 -7.17131E+03
  1.79152E+04  1.96570E+03  1.33502E+04  1.03997E+04  2.46791E+03  1.37158E+04 -7.55229E+03  1.24023E+04
 -9.64199E+03  3.30152E+03 -5.14506E+03 -2.38818E+03  1.87752E+03 -2.75557E+03  6.63033E+03 -1.29320E+03
  5.70426E+03  4.72325E+03  1.54521E+03  9.90236E+03 -6.31701E+03  9.09554E+03 -1.18666E+04  2.52571E+03
 -7.65668E+03 -5.67015E+03 -1.11391E+02 -9.73768E+03  6.16120E+03 -4.78779E+03  6.63326E+03  2.17812E+03
  1.05694E+03  6.23243E+03 -6.11669E+03  7.76595E+03 -9.58709E+03  4.12730E+03 -8.93748E+03 -2.70582E+03
 -5.46209E+03 -1.09060E+04  2.64571E+03 -1.27297E+04  1.07431E+04 -7.39374E+03  1.14056E+04  1.68875E+03
  7.58035E+03  9.05625E+03 -4.55485E+02  1.12585E+04 -8.37733E+03  6.24299E+03 -8.61051E+03 -8.88178E+02
 -8.24750E+03 -7.69331E+03 -1.00198E+03 -8.60991E+03  4.29617E+03 -7.35870E+03  5.59690E+03 -3.25818E+03
  3.55130E+03  1.10254E+03 -7.58077E+02  1.40701E+03  2.01699E+02 -1.84080E+03  1.30514E+03 -4.61731E+03
  6.76185E+03 -2.75978E+03  1.02251E+04  7.59167E+02  1.05322E+04  6.94049E+03  7.96179E+03  1.36173E+04
 -3.37840E+03  1.57920E+04 -1.36777E+04  1.12861E+04 -1.73860E+04  3.19039E+03 -1.39599E+04 -4.83731E+03
 -7.07309E+03 -1.09139E+04 -6.19519E+01 -8.67202E+03  3.24546E+03 -4.99489E+03  3.18761E+03 -4.00314E+03
  1.89766E+03 -2.19598E+03  2.72740E+03 -2.48021E+03  5.19994E+03 -2.04194E+03  5.80807E+03 -6.47917E+02
  7.49723E+03  1.70680E+03  3.03473E+03  5.93931E+03 -1.83381E+03  6.14133E+03 -7.88717E+03  5.57589E+03
 -1.00953E+04 -1.79428E+03 -4.52402E+03 -6.44543E+03 -3.11634E+02 -9.49449E+03  5.76542E+03 -1.05140E+04
  9.62931E+03 -6.40205E+03  1.19642E+04  1.90688E+03  8.51408E+03  8.70591E+03  1.64767E+03  1.10636E+04
 -4.17560E+03  9.16306E+03 -6.96527E+03  3.25016E+03 -3.68583E+03 -7.82038E+02 -1.35554E+03 -1.24734E+03
 -4.02596E+02  6.91175E+02 -1.95201E+03  1.92684E+03 -3.81643E+03  1.94358E+03 -7.28839E+03 -1.32793E+03
 -3.79691E+03 -6.71033E+03  1.41620E+02 -9.40921E+03  5.19492E+03 -8.70093E+03  7.97038E+03 -2.58974E+03
  8.50497E+03  3.98389E+03  3.65712E+03  7.51635E+03 -1.18211E+03  8.98162E+03 -5.41864E+03  5.25474E+03
 -8.06619E+03  4.54364E+02 -6.56634E+03 -5.68379E+03 -1.00753E+03 -6.86738E+03  3.35649E+03 -5.05039E+03
  5.50668E+03 -1.98127E+03  3.27170E+03  1.10581E+03  1.40116E+03  2.44383E+03  9.48113E+02  1.10398E+03
  2.01339E+03  1.18779E+03  2.24202E+03  1.24124E+03  2.71104E+03  2.96323E+03  1.82942E+03  3.90044E+03
 -2.77373E+03  6.18050E+03 -5.56602E+03  7.65181E+03 -8.24682E+03  2.31043E+03 -8.27471E+03 -3.42628E+03
 -4.11224E+03 -8.06001E+03  1.23738E+03 -8.74988E+03  5.21680E+03 -5.65425E+03  6.51543E+03 -1.11637E+03
  5.20625E+03  3.77729E+03  1.42301E+03  5.10166E+03 -1.73091E+03  2.16123E+03 -2.10422E+03 -9.92552E+02
 -1.32980E+03 -3.74577E+03  2.18649E+03 -2.80057E+03  3.26308E+03 -2.51489E+03  2.96343E+03 -3.47726E+02
  1.87545E+03  1.45124E+03  1.23893E+03  1.14549E+03 -7.17901E+02  1.42848E+03  1.52251E+03  3.52171E+02
  1.09721E+03 -7.30844E+02  3.22443E+03  1.52397E+03  1.74531E+03  4.63700E+03 -8.06904E+02  5.13903E+03
 -3.72439E+03  3.18281E+03 -4.84765E+03  1.25893E+03 -4.30900E+03 -1.51356E+03 -1.12737E+03 -2.47413E+03
 -5.34447E+01 -2.53616E+03  2.56563E+03 -1.05247E+03  2.37270E+03  2.01287E+03 -1.39530E+03  2.42715E+03
 -3.49961E+03  1.21213E+03 -3.85066E+03 -1.38748E+03 -2.51076E+03 -4.98962E+03  3.31194E+02 -3.86653E+03
  2.50729E+03 -1.32529E+03  2.18835E+03  8.77302E+01  2.66829E+03  1.41709E+02  5.40786E+02  2.54409E+03
 -1.24650E+03  8.92320E+02 -2.06783E+03 -1.65241E+03  1.64062E+03 -2.44926E+03  4.24893E+03 -1.96241E+03
  4.30669E+03  4.73615E+02  5.01046E+03  2.74955E+03  1.92557E+03  4.43503E+03 -1.54072E+03  4.18139E+03
 -3.95925E+03  1.18093E+03 -3.72752E+03 -6.47759E+02 -1.21273E+03 -2.83911E+03  1.65932E+02 -2.09349E+03
  3.19457E+03 -9.40124E+02  2.18746E+03  1.24278E+03  1.03444E+03  3.15706E+03 -7.93419E+02  2.71166E+03
 -1.90761E+03  1.99654E+03 -8.89644E+02  7.96248E+02 -6.09855E+02  4.70539E+02 -1.56337E+03  1.29665E+03
 -9.74540E+02  1.86248E+03 -4.04594E+03  6.37703E+02 -4.25725E+03  1.48923E+01 -5.57825E+03 -3.11154E+03
 -2.38586E+03 -6.02108E+03  1.84667E+03 -7.31561E+03  4.27638E+03 -5.40450E+03  6.38655E+03 -2.05709E+03
  5.86747E+03  6.34763E+02  2.96027E+03  3.70720E+03 -3.76279E+02  3.95368E+03 -1.38135E+03  3.27660E+03
 -3.42569E+03  2.01860E+03 -1.82227E+03 -1.14045E+02 -3.88293E+02  2.22976E+02 -5.36114E+02 -1.43054E+02
 -1.31870E+03  1.19336E+01 -1.94005E+03 -2.87145E+02  3.40246E+02 -1.48737E+03 -3.86241E+02 -1.53995E+03
  2.67782E+03 -1.53931E+03  1.73821E+03 -2.78305E+02  3.15043E+03  3.02354E+03  4.96326E+02  4.44395E+03
 -3.26771E+03  4.98843E+03 -4.76464E+03  2.73120E+03 -5.33265E+03 -6.01814E+02 -3.33163E+03 -3.05240E+03
 -1.73228E+03 -3.95965E+03  9.09441E+02 -3.64280E+03  2.17515E+03 -2.10811E+03  3.01817E+03 -1.96391E+02
  9.74819E+02  1.51784E+03  6.79516E+01  3.26530E+02 -7.83902E+02 -4.33723E+02 -5.48758E+02 -1.23224E+03
  1.14460E+03 -1.12397E+02  6.26776E+02  1.27957E+03  5.99263E+02  1.76526E+03  3.75265E+02  1.50947E+03
 -1.74682E+03  1.62528E+03 -1.46989E+03 -2.86204E+01 -2.64747E+03 -1.62968E+03  2.97628E+02 -3.55239E+03
  1.86144E+03 -2.50446E+03  2.35533E+03 -5.65636E+02  2.89685E+03  3.15910E+02  1.79971E+03  2.20892E+03
  6.35637E+02  2.48023E+03 -7.70688E+02  1.67549E+03 -2.09653E+03  1.40504E+03 -4.97636E+02  6.50628E+02
 -4.46871E+02  2.88269E+01 -1.11189E+03  2.31142E+02 -1.19121E+03  9.48734E+02 -1.71184E+03 -9.59940E+02
 -2.17319E+03 -9.42667E+02 -5.17571E+02 -2.19942E+03  1.07390E+03 -3.43119E+03  2.20320E+03 -1.01955E+03
  2.70717E+03  6.35838E+02  1.08692E+03  1.14287E+03 -8.69590E+02  2.54033E+03 -1.05096E+03  1.90608E+03
