 $NMID ID='MM_0lb_SNR400_13hz_g60_12.RAW', FMTDAT='(8E13.5)'
 TRAMP=1., VOLUME=1. $END
  3.09749E+05  9.18233E+02  3.38530E+05  2.51362E+05  8.44734E+04  3.37950E+05 -1.32365E+05  2.51575E+05
 -1.90178E+05  8.31119E+04 -1.12256E+05 -3.26890E+04  4.02508E+02 -5.01638E+04  5.32427E+04 -4.95268E+02
  3.51620E+04  5.31599E+04 -1.67747E+04  7.70919E+04 -6.08824E+04  6.36536E+04 -8.57325E+04  3.26071E+04
 -8.23769E+04 -1.12594E+04 -5.78663E+04 -5.18046E+04 -1.54511E+04 -7.01205E+04  2.73896E+04 -4.70664E+04
  4.12016E+04  3.18404E+03  1.65586E+04  4.88819E+04 -3.45591E+04  4.86580E+04 -6.68638E+04 -1.05506E+03
 -5.36030E+04 -5.79350E+04 -7.66610E+03 -7.78772E+04  3.40838E+04 -5.66910E+04  4.89783E+04 -1.80337E+04
  4.47201E+04  1.11608E+04  3.26451E+04  2.63290E+04  1.59285E+04  2.94851E+04 -5.23630E+03  2.75107E+04
 -2.17019E+04  1.22914E+04 -1.83608E+04 -5.31904E+03  6.60747E+03 -8.06283E+03  2.29638E+04  1.21658E+04
  7.42159E+03  3.67976E+04 -3.27020E+04  3.62795E+04 -6.49686E+04  2.43035E+03 -5.74144E+04 -4.38236E+04
 -1.22399E+04 -6.50913E+04  4.03200E+04 -4.73801E+04  6.01783E+04 -2.32712E+03  3.52268E+04  3.34778E+04
 -5.50095E+03  3.78577E+04 -3.11463E+04  1.71118E+04 -3.18983E+04 -4.42076E+03 -1.84914E+04 -1.14791E+04
 -9.02408E+03 -1.45984E+04 -8.31914E+02 -1.89163E+04  8.16059E+03 -2.23764E+04  1.56674E+04 -1.27647E+04
  1.03925E+04  6.34038E+03 -9.55990E+03  1.28077E+04 -2.23656E+04 -4.87130E+03 -8.33827E+03 -3.57554E+04
  2.41255E+04 -4.56001E+04  5.04722E+04 -2.00409E+04  4.70566E+04  1.99337E+04  1.68829E+04  4.58523E+04
 -1.61767E+04  3.45790E+04 -2.70060E+04  2.14182E+03 -9.97779E+03 -2.82030E+04  2.09839E+04 -3.53687E+04
  4.32971E+04 -9.79802E+03  3.80242E+04  2.42756E+04  1.93373E+04  4.83525E+04 -8.53924E+03  5.37712E+04
 -3.27714E+04  3.61361E+04 -4.49088E+04  1.02083E+04 -4.52392E+04 -1.78713E+04 -2.49849E+04 -4.00977E+04
  7.40046E+03 -3.97944E+04  3.28854E+04 -1.58205E+04  3.09742E+04  1.12377E+04  4.04635E+03  2.00203E+04
 -1.34363E+04  9.07390E+03 -1.06012E+04 -8.46811E+03  5.79868E+03 -1.10691E+04  1.86391E+04  5.87671E+03
  1.43389E+04  2.24394E+04 -5.81098E+03  2.62314E+04 -2.26951E+04  1.29330E+04 -2.97248E+04 -3.95579E+03
 -2.32438E+04 -1.81192E+04 -9.88286E+03 -2.29907E+04  4.28895E+03 -2.29221E+04  1.77040E+04 -2.05668E+04
  2.93581E+04 -1.38209E+04  3.50723E+04  3.88550E+03  2.60606E+04  2.16641E+04  4.08337E+03  3.86637E+04
 -1.91787E+04  3.14093E+04 -2.94106E+04  1.14861E+04 -2.18957E+04 -1.01331E+04 -4.63423E+03 -1.33557E+04
  1.19760E+03 -2.35937E+03 -6.81237E+03  7.38235E+03 -1.73692E+04  5.02121E+03 -1.84489E+04 -8.08862E+03
 -1.06942E+04 -2.16836E+04  6.09521E+03 -2.48808E+04  1.60220E+04 -1.71160E+04  1.95892E+04 -1.90835E+03
  1.32286E+04  1.48056E+04 -1.13110E+03  2.10025E+04 -1.51095E+04  1.28017E+04 -2.15321E+04 -4.62532E+03
 -1.55710E+04 -1.87774E+04 -2.25178E+03 -2.54998E+04  1.12067E+04 -2.03235E+04  2.06366E+04 -9.53485E+03
  1.92655E+04  5.79202E+02  1.41669E+04  4.88165E+03  7.97586E+03  7.84272E+02  1.05231E+04 -2.00942E+03
  1.95293E+04  2.76413E+03  2.21910E+04  1.64260E+04  1.44995E+04  3.35918E+04 -2.39483E+03  3.75902E+04
 -2.19389E+04  3.11417E+04 -3.62615E+04  1.63518E+04 -3.87206E+04 -2.68993E+03 -3.15859E+04 -2.19433E+04
 -1.32791E+04 -3.17778E+04  1.10262E+04 -2.85916E+04  2.43536E+04 -1.39924E+04  2.12291E+04  5.63418E+03
  7.89874E+03  1.62598E+04 -1.04685E+04  1.40768E+04 -1.79255E+04  2.65970E+03 -1.46890E+04 -1.11674E+04
 -6.45504E+02 -1.73049E+04  8.74414E+03 -1.27196E+04  1.22556E+04 -1.32690E+03  2.87420E+03  7.45444E+03
 -8.16813E+03  3.54622E+03 -7.21569E+03 -6.26828E+03 -6.69292E+02 -1.56841E+04  1.07019E+04 -1.63563E+04
  2.03091E+04 -8.62935E+03  2.22760E+04  3.46491E+03  1.92266E+04  1.55617E+04  8.62084E+03  2.41372E+04
 -4.06617E+03  2.63361E+04 -1.70571E+04  1.67183E+04 -1.90405E+04  3.29786E+03 -1.19040E+04 -4.46034E+03
 -5.57901E+03 -5.27233E+03 -1.05873E+03  1.77682E+02 -1.87172E+03  3.56561E+03 -5.34975E+03  4.64669E+03
 -1.16202E+04 -5.22531E+02 -1.27156E+04 -9.86336E+03 -4.85369E+03 -1.65568E+04  4.98267E+03 -1.34554E+04
  1.13673E+04 -5.32571E+03  7.67974E+03  3.77103E+03  3.06775E+01  5.50407E+03 -6.11838E+03 -8.52174E+02
 -6.08464E+03 -7.99176E+03 -7.18478E+02 -1.22152E+04  7.15954E+03 -1.31323E+04  1.59391E+04 -7.25987E+03
  1.89546E+04  1.44565E+03  1.34816E+04  1.10737E+04  3.13007E+03  1.50891E+04 -8.13695E+03  1.30213E+04
 -1.06697E+04  4.53599E+03 -4.81295E+03 -2.77476E+03  2.29018E+03 -3.41704E+03  6.68235E+03 -1.05689E+03
  6.30367E+03  6.05484E+03  1.01613E+03  9.33877E+03 -7.45785E+03  9.84813E+03 -1.24470E+04  2.45277E+03
 -7.15304E+03 -6.46389E+03  1.20886E+02 -1.14378E+04  7.21993E+03 -4.99726E+03  6.94936E+03  3.00907E+03
  1.68035E+03  7.30697E+03 -5.95641E+03  9.12910E+03 -9.99616E+03  4.41728E+03 -9.96864E+03 -3.19109E+03
 -6.22492E+03 -1.20159E+04  2.69062E+03 -1.35244E+04  1.18478E+04 -7.70101E+03  1.30565E+04  2.50246E+03
  7.81070E+03  1.02189E+04 -6.19913E+02  1.22944E+04 -8.95398E+03  6.81046E+03 -9.62577E+03 -1.50657E+03
 -8.44673E+03 -8.38046E+03 -1.70526E+03 -9.58542E+03  4.95918E+03 -7.32999E+03  5.43021E+03 -2.80593E+03
  4.04241E+03  1.58861E+03 -8.02852E+02  1.46179E+03 -5.35005E+01 -2.87504E+03  1.09189E+03 -4.60185E+03
  8.73187E+03 -2.76540E+03  1.13645E+04  1.03595E+03  1.14299E+04  7.50131E+03  8.99634E+03  1.50800E+04
 -3.71258E+03  1.74358E+04 -1.46851E+04  1.29571E+04 -1.93638E+04  1.96723E+03 -1.50293E+04 -5.79010E+03
 -7.30941E+03 -1.27473E+04 -4.99206E+02 -9.84464E+03  3.79578E+03 -5.43563E+03  4.17905E+03 -3.40074E+03
  2.96783E+03 -2.87005E+03  3.60787E+03 -2.70206E+03  4.30513E+03 -2.73758E+03  5.58677E+03 -4.71465E+02
  8.12768E+03  1.83962E+03  3.17882E+03  6.50973E+03 -1.88273E+03  7.13047E+03 -8.41598E+03  6.21182E+03
 -1.00774E+04 -1.65610E+03 -5.85363E+03 -6.98062E+03 -7.50668E+02 -1.09277E+04  6.60560E+03 -1.07790E+04
  1.09228E+04 -7.14266E+03  1.41757E+04  1.72237E+03  9.14251E+03  9.72579E+03  1.76559E+03  1.32635E+04
 -5.65690E+03  1.02062E+04 -6.88170E+03  3.48925E+03 -5.11408E+03 -1.09491E+03 -1.63768E+03 -1.49489E+03
 -5.88076E+02  9.14989E+02 -1.23262E+03  2.40214E+03 -4.34619E+03  2.07348E+03 -7.44887E+03 -8.56530E+02
 -4.54182E+03 -7.38253E+03  8.40600E+02 -9.63964E+03  6.60936E+03 -9.80642E+03  8.82766E+03 -2.46586E+03
  9.80962E+03  5.03837E+03  4.95599E+03  8.48688E+03 -1.81962E+03  1.04614E+04 -6.66500E+03  6.16830E+03
 -8.48635E+03  5.46532E+01 -7.05002E+03 -6.79889E+03 -9.15454E+02 -7.81196E+03  3.66347E+03 -5.52512E+03
  6.15206E+03 -2.13326E+03  4.33929E+03  9.88397E+02  1.05405E+03  2.86486E+03  1.14153E+03  1.43332E+03
  2.00183E+03  3.39363E+02  2.15511E+03  1.34745E+03  2.74452E+03  3.51000E+03  2.56758E+03  4.28324E+03
 -2.19395E+03  7.36597E+03 -7.05636E+03  8.22560E+03 -9.05466E+03  2.51231E+03 -1.03398E+04 -3.35252E+03
 -4.65500E+03 -9.43788E+03  1.30028E+03 -1.05664E+04  5.55026E+03 -7.02644E+03  7.49355E+03 -1.57875E+03
  6.01558E+03  3.38024E+03  1.30676E+03  4.93300E+03 -2.49234E+03  2.84739E+03 -3.19437E+03 -6.48776E+02
 -1.52933E+03 -3.42875E+03  2.49397E+03 -4.64939E+03  3.72694E+03 -1.87980E+03  3.45235E+03  1.06284E+03
  2.48472E+03  1.89431E+03  1.48233E+03  1.69442E+03  1.24849E+01  4.96799E+02  1.95101E+03 -5.96688E+02
  1.84038E+03 -7.22406E+02  4.11337E+03  1.41249E+03  1.61684E+03  5.03183E+03 -6.00076E+02  6.60713E+03
 -4.18368E+03  3.88230E+03 -5.96543E+03  1.08158E+03 -5.00997E+03 -2.35381E+03 -2.32870E+03 -2.97583E+03
  2.33579E+01 -2.94636E+03  1.75215E+03 -1.58581E+03  1.20503E+03  1.81667E+03 -1.08778E+03  2.54092E+03
 -3.50341E+03  1.39736E+03 -4.02957E+03 -3.13644E+03 -2.03471E+03 -4.96046E+03  1.01961E+03 -4.65806E+03
  3.11764E+03 -2.29081E+03  2.81027E+03 -1.24388E+02  3.07027E+03  6.85961E+02  2.29429E+02  2.79755E+03
 -1.22526E+03  2.70042E+02 -2.48272E+03 -1.57110E+03  1.20547E+03 -3.30072E+03  4.44967E+03 -3.47917E+03
  4.23569E+03  3.64872E+02  6.18771E+03  2.91062E+03  1.89765E+03  5.12606E+03 -1.90422E+03  5.46324E+03
 -4.67611E+03  2.13614E+03 -4.54552E+03 -8.03875E+02 -2.87152E+03 -3.77081E+03  1.41559E+03 -3.58108E+03
  3.96381E+03 -1.42579E+03  2.92152E+03  2.09055E+03  1.78259E+03  3.18593E+03  2.20982E+02  2.75629E+03
 -1.84909E+03  2.07794E+03 -1.75917E+03  9.26743E+02 -2.98710E+02  7.70246E+02 -1.15316E+03  6.93274E+02
 -1.09162E+03  1.82891E+03 -3.81171E+03  1.41633E+03 -5.72799E+03 -5.66691E+01 -6.99929E+03 -3.40363E+03
 -3.54208E+03 -7.09255E+03  1.29801E+03 -8.31116E+03  4.47621E+03 -5.89453E+03  7.31861E+03 -2.05317E+03
  7.72239E+03  1.12411E+03  4.43835E+03  4.78895E+03  3.70013E+01  5.03224E+03 -2.12868E+03  3.77824E+03
 -3.40734E+03  1.81946E+03 -2.23268E+03 -3.24668E+02 -1.06154E+03 -4.34060E+02 -6.87371E+02 -3.35460E+02
 -8.99567E+02 -2.51114E+02 -1.41836E+03 -4.12752E+02  6.38751E+01 -1.13441E+03 -5.10456E+02 -2.43965E+03
  2.52829E+03 -1.64882E+03  2.35100E+03 -2.85141E+02  2.90173E+03  2.76537E+03  5.22496E+02  5.32311E+03
 -2.30580E+03  5.73019E+03 -5.79057E+03  3.79730E+03 -6.30941E+03 -7.08357E+00 -4.85515E+03 -3.71342E+03
 -1.93674E+03 -5.65625E+03  1.09547E+03 -4.70205E+03  2.94473E+03 -3.22666E+03  3.59046E+03 -5.67492E+02
  2.14927E+03  1.85593E+03 -5.13508E+02  1.57683E+03 -1.17036E+03 -3.00959E+02  5.96004E+01 -1.83458E+03
  1.41935E+03 -5.04323E+02  1.93612E+03  5.43442E+02  9.04773E+02  2.10485E+03  8.01065E+02  2.86247E+03
 -2.03461E+03  1.67437E+03 -3.74678E+03  1.14651E+02 -2.38728E+03 -2.41849E+03 -4.56760E+02 -3.75330E+03
  2.80836E+03 -3.05612E+03  3.50132E+03 -9.81600E+02  3.38670E+03  6.21443E+02  1.67845E+03  2.83056E+03
  9.04634E+02  2.75220E+03 -1.35294E+03  2.44981E+03 -2.19153E+03  9.37514E+02 -1.33588E+03  2.88645E+02
 -4.95259E+02 -4.23498E+02 -1.14535E+03  4.17038E+02 -1.18795E+03  1.12530E+03 -2.71294E+03  1.85085E+00
 -2.37419E+03 -7.25944E+02 -9.33160E+02 -2.63070E+03  1.36327E+03 -2.94145E+03  2.77010E+03 -1.86835E+03
  2.63571E+03  6.06691E+02  1.59255E+03  2.29932E+03  6.86056E+01  3.20892E+03 -2.21527E+03  2.00675E+03
