 $NMID ID='MM_0lb_SNR400_13hz_g55_13.RAW', FMTDAT='(8E13.5)'
 TRAMP=1., VOLUME=1. $END
  3.10276E+05  2.25669E+02  3.37481E+05  2.49843E+05  8.43096E+04  3.38226E+05 -1.32614E+05  2.50879E+05
 -1.90084E+05  8.39403E+04 -1.11506E+05 -3.28029E+04  1.80791E+02 -5.04218E+04  5.36979E+04 -3.10071E+02
  3.47896E+04  5.32519E+04 -1.71055E+04  7.64437E+04 -6.09845E+04  6.36669E+04 -8.43105E+04  3.26406E+04
 -8.18369E+04 -1.17063E+04 -5.74085E+04 -5.22222E+04 -1.50579E+04 -7.01002E+04  2.81834E+04 -4.67124E+04
  4.05463E+04  3.96477E+03  1.64452E+04  4.81744E+04 -3.46639E+04  4.79120E+04 -6.73110E+04  1.66453E+02
 -5.35790E+04 -5.69098E+04 -6.97858E+03 -7.78316E+04  3.45650E+04 -5.64289E+04  4.91681E+04 -1.72792E+04
  4.39833E+04  1.16521E+04  3.20526E+04  2.54107E+04  1.58457E+04  2.93735E+04 -5.19101E+03  2.71830E+04
 -2.16844E+04  1.22059E+04 -1.81833E+04 -5.19081E+03  6.57951E+03 -6.96071E+03  2.31501E+04  1.26609E+04
  7.34608E+03  3.59322E+04 -3.25907E+04  3.57040E+04 -6.39375E+04  2.23936E+03 -5.82361E+04 -4.36287E+04
 -1.26953E+04 -6.44314E+04  4.03460E+04 -4.53085E+04  5.93002E+04 -2.36260E+03  3.51422E+04  3.31855E+04
 -6.35234E+03  3.73198E+04 -3.09993E+04  1.69655E+04 -3.18431E+04 -3.71054E+03 -1.80175E+04 -1.11737E+04
 -9.03092E+03 -1.41831E+04 -1.08022E+03 -1.87063E+04  7.80231E+03 -2.25425E+04  1.56931E+04 -1.26996E+04
  1.05010E+04  5.78746E+03 -9.21130E+03  1.29491E+04 -2.21204E+04 -5.69601E+03 -7.53518E+03 -3.45497E+04
  2.30736E+04 -4.46356E+04  4.94180E+04 -1.98463E+04  4.64782E+04  2.05376E+04  1.65172E+04  4.56337E+04
 -1.70424E+04  3.52203E+04 -2.56872E+04  2.43425E+03 -1.02867E+04 -2.83899E+04  2.11626E+04 -3.45619E+04
  4.22966E+04 -9.55466E+03  3.68972E+04  2.39831E+04  1.92788E+04  4.79391E+04 -7.68666E+03  5.29218E+04
 -3.28981E+04  3.53528E+04 -4.41820E+04  1.03208E+04 -4.47588E+04 -1.71037E+04 -2.46980E+04 -3.94597E+04
  6.75470E+03 -3.91473E+04  3.24297E+04 -1.57178E+04  3.06954E+04  1.09111E+04  4.76203E+03  2.01822E+04
 -1.35436E+04  8.49126E+03 -1.13585E+04 -7.66450E+03  5.71196E+03 -1.10924E+04  1.82322E+04  5.51939E+03
  1.41374E+04  2.22430E+04 -5.57322E+03  2.54434E+04 -2.32055E+04  1.24318E+04 -2.97301E+04 -4.15579E+03
 -2.18889E+04 -1.80744E+04 -9.12641E+03 -2.16377E+04  4.10743E+03 -2.17093E+04  1.80640E+04 -1.97589E+04
  2.78547E+04 -1.30128E+04  3.36589E+04  3.40234E+03  2.56746E+04  2.12402E+04  4.04916E+03  3.80815E+04
 -1.87551E+04  3.17641E+04 -2.90931E+04  1.00556E+04 -2.10109E+04 -1.05332E+04 -4.16696E+03 -1.31352E+04
  1.79806E+03 -2.06060E+03 -5.50166E+03  7.15268E+03 -1.77806E+04  5.29451E+03 -1.73521E+04 -7.73563E+03
 -1.05841E+04 -2.02234E+04  6.07281E+03 -2.46379E+04  1.68801E+04 -1.74258E+04  2.01205E+04 -1.88359E+03
  1.19214E+04  1.40755E+04 -1.14701E+03  2.01367E+04 -1.43779E+04  1.21187E+04 -2.05797E+04 -4.07802E+03
 -1.51652E+04 -1.78130E+04 -1.86317E+03 -2.43044E+04  1.11524E+04 -2.00961E+04  2.03605E+04 -1.03015E+04
  1.95029E+04  3.13488E+02  1.37719E+04  4.44770E+03  7.94499E+03  1.11688E+03  1.05081E+04 -2.21524E+03
  1.88285E+04  2.84279E+03  2.13276E+04  1.57748E+04  1.40610E+04  3.22631E+04 -2.77612E+03  3.75192E+04
 -2.19107E+04  3.03637E+04 -3.51714E+04  1.47245E+04 -3.70951E+04 -2.86720E+03 -2.99033E+04 -2.14794E+04
 -1.23168E+04 -3.07937E+04  1.02470E+04 -2.68991E+04  2.35078E+04 -1.34767E+04  2.02312E+04  6.04375E+03
  7.18944E+03  1.50794E+04 -9.33852E+03  1.43419E+04 -1.70955E+04  2.68122E+03 -1.32616E+04 -1.09416E+04
 -6.54076E+02 -1.68522E+04  8.94807E+03 -1.20277E+04  1.05082E+04 -1.11640E+03  2.34708E+03  6.81584E+03
 -7.92758E+03  2.71978E+03 -6.87788E+03 -6.30994E+03 -4.83445E+02 -1.44940E+04  1.06787E+04 -1.55059E+04
  1.87066E+04 -8.64698E+03  1.96879E+04  3.68267E+03  1.79378E+04  1.45641E+04  7.74375E+03  2.37626E+04
 -4.12827E+03  2.49276E+04 -1.56736E+04  1.60326E+04 -1.76268E+04  3.21813E+03 -1.28274E+04 -4.49073E+03
 -6.01979E+03 -5.11712E+03 -1.07707E+03  9.42008E+02 -2.33172E+03  2.87579E+03 -6.42107E+03  4.81926E+03
 -1.16416E+04 -5.31528E+02 -1.19051E+04 -9.52809E+03 -5.14624E+03 -1.56900E+04  5.59602E+03 -1.31225E+04
  1.00918E+04 -4.81599E+03  7.22923E+03  3.03822E+03  2.74079E+02  4.91240E+03 -6.40998E+03  8.95950E+01
 -5.80761E+03 -8.08800E+03 -2.48160E+02 -1.24109E+04  6.63197E+03 -1.27737E+04  1.56487E+04 -7.12275E+03
  1.84547E+04  1.43640E+03  1.44077E+04  1.06509E+04  2.72285E+03  1.39592E+04 -7.81249E+03  1.26724E+04
 -1.00536E+04  3.84691E+03 -5.28527E+03 -2.31366E+03  2.33139E+03 -3.55426E+03  6.81880E+03 -8.81433E+02
  5.77884E+03  5.42216E+03  1.61662E+03  1.00672E+04 -7.06605E+03  9.71807E+03 -1.20230E+04  3.03245E+03
 -7.66590E+03 -5.82053E+03 -3.78773E+02 -1.05878E+04  6.42381E+03 -5.76220E+03  6.44846E+03  1.73951E+03
  1.31553E+03  6.97842E+03 -6.20945E+03  8.70840E+03 -9.76879E+03  4.05624E+03 -9.66953E+03 -3.07293E+03
 -6.25011E+03 -1.15291E+04  3.08551E+03 -1.31013E+04  1.08252E+04 -7.84183E+03  1.22143E+04  1.77100E+03
  7.76720E+03  9.26270E+03 -5.05537E+02  1.16254E+04 -8.68999E+03  7.08307E+03 -9.12050E+03 -8.55805E+02
 -8.61696E+03 -7.68039E+03 -1.84666E+03 -8.83458E+03  3.94795E+03 -7.18585E+03  5.64871E+03 -3.95045E+03
  4.15101E+03  1.03458E+03 -1.15056E+03  1.65919E+03  3.00972E+02 -2.06165E+03  1.61845E+03 -4.91665E+03
  7.36490E+03 -2.54607E+03  1.09788E+04  8.44295E+02  1.04239E+04  7.51540E+03  8.26184E+03  1.41767E+04
 -2.89968E+03  1.71196E+04 -1.37188E+04  1.22457E+04 -1.77138E+04  2.39935E+03 -1.48415E+04 -6.27143E+03
 -7.28129E+03 -1.19805E+04 -1.10180E+02 -1.06108E+04  4.09234E+03 -3.66340E+03  3.18015E+03 -3.60505E+03
  2.88199E+03 -3.12723E+03  3.47978E+03 -3.00292E+03  4.47546E+03 -2.91595E+03  6.37364E+03 -2.51896E+02
  7.54861E+03  1.68839E+03  3.79782E+03  6.64949E+03 -1.78803E+03  7.50218E+03 -7.85762E+03  5.39972E+03
 -1.02671E+04 -9.39149E+02 -6.63597E+03 -7.15783E+03  9.98735E+01 -1.03913E+04  6.24317E+03 -1.04273E+04
  1.14514E+04 -6.32056E+03  1.33380E+04  1.46574E+03  9.01169E+03  8.99320E+03  1.24384E+03  1.19148E+04
 -4.91940E+03  9.84067E+03 -7.13402E+03  3.23240E+03 -4.47146E+03 -7.56176E+02 -2.04965E+03 -2.03645E+03
 -4.60114E+02 -6.34229E+01 -1.97205E+03  2.62864E+03 -4.39878E+03  1.86783E+03 -6.98101E+03 -1.14656E+03
 -4.14878E+03 -7.81098E+03  2.80654E+02 -9.66665E+03  5.28288E+03 -8.79543E+03  9.10828E+03 -2.70268E+03
  9.58037E+03  4.73167E+03  3.97284E+03  8.09243E+03 -1.75334E+03  9.02307E+03 -6.79702E+03  5.74326E+03
 -8.77944E+03  6.36958E+02 -6.89876E+03 -5.22531E+03 -1.16852E+03 -7.46851E+03  4.13320E+03 -5.72378E+03
  6.52964E+03 -1.27727E+03  4.85583E+03  1.22534E+03  5.59608E+02  3.49424E+03  8.77778E+02  1.23566E+03
  2.34606E+03  1.54775E+03  1.95726E+03  1.31314E+03  2.14936E+03  3.80685E+03  2.81863E+03  4.72615E+03
 -1.92916E+03  7.55071E+03 -6.20054E+03  7.28709E+03 -9.10612E+03  2.31403E+03 -9.88641E+03 -2.73577E+03
 -3.85608E+03 -9.17003E+03  1.05739E+03 -9.51031E+03  5.17919E+03 -6.34060E+03  7.25516E+03 -2.10453E+03
  5.90629E+03  3.81715E+03  7.14167E+02  5.11126E+03 -2.33485E+03  3.23207E+03 -2.78467E+03 -6.06147E+02
 -2.41032E+03 -3.66798E+03  2.56052E+03 -3.57231E+03  3.96383E+03 -2.30132E+03  4.16014E+03  2.59800E+02
  2.02029E+03  9.41136E+02  8.26276E+02  1.29059E+03 -4.88954E+02  1.57097E+03  1.94479E+03 -3.62507E+01
  1.61579E+03 -3.15040E+02  3.50975E+03  1.79074E+03  1.48405E+03  5.45115E+03 -5.91986E+02  6.56533E+03
 -4.35656E+03  4.12446E+03 -5.46941E+03  4.50485E+02 -5.42649E+03 -2.30117E+03 -1.47058E+03 -3.58218E+03
  2.96724E+02 -3.41722E+03  1.95638E+03 -1.83530E+03  2.19333E+03  1.83418E+03 -8.65835E+02  2.82420E+03
 -3.98809E+03  1.92271E+03 -3.97288E+03 -2.80166E+03 -2.57173E+03 -5.24541E+03  6.05552E+02 -4.91776E+03
  2.44328E+03 -3.16243E+03  2.92948E+03  4.06507E+01  2.61990E+03  8.34966E+02  5.45724E+02  3.71021E+03
 -1.06450E+03  1.56673E+02 -2.03883E+03 -1.44599E+03  6.27810E+02 -3.50327E+03  4.22619E+03 -2.86361E+03
  5.47678E+03  5.29114E+02  5.61234E+03  3.05715E+03  2.77586E+03  4.50901E+03 -1.60660E+03  4.99299E+03
 -4.17731E+03  1.66114E+03 -5.14933E+03 -1.34310E+03 -2.08976E+03 -3.49078E+03  9.30453E+02 -2.63961E+03
  3.42414E+03 -1.82896E+03  2.64927E+03  1.12253E+03  1.36339E+03  2.91449E+03 -8.79614E+02  3.04475E+03
 -9.05240E+02  1.29037E+03 -1.04523E+03 -1.89712E+02 -4.18573E+02  8.95792E+02 -1.16900E+03  8.24785E+02
 -1.06988E+03  1.86495E+03 -3.74380E+03  1.24753E+03 -5.27083E+03  1.16026E+02 -6.42657E+03 -3.76406E+03
 -3.03182E+03 -7.37998E+03  1.99539E+03 -8.03188E+03  4.30187E+03 -6.45473E+03  7.85162E+03 -3.00548E+03
  6.39081E+03  1.40897E+03  3.36635E+03  4.76478E+03  1.40338E+02  5.42377E+03 -1.94123E+03  4.30706E+03
 -3.33527E+03  1.31897E+03 -1.93205E+03 -9.34991E+02 -1.05328E+03  2.07791E+02 -5.92271E+02 -1.56782E+02
 -1.43141E+03  4.96121E+02 -6.60407E+02 -4.93336E+02  2.64354E+02 -6.66814E+02 -3.75996E+02 -1.99601E+03
  2.37799E+03 -1.59152E+03  3.39735E+03 -2.35569E+02  3.35768E+03  2.77707E+03  1.16673E+02  5.21291E+03
 -2.65400E+03  5.64015E+03 -5.37576E+03  3.33203E+03 -6.35521E+03  5.03473E+01 -3.77948E+03 -4.29204E+03
 -2.20244E+03 -5.05628E+03  1.10401E+03 -4.79480E+03  3.51927E+03 -2.38402E+03  2.60778E+03 -7.11625E+00
  1.85703E+03  1.76277E+03 -3.11968E+02  1.58477E+03 -7.51970E+02 -5.82062E+02  2.89729E+02 -6.59348E+02
  2.05970E+03 -8.48460E+02  2.33722E+03  6.72880E+02  6.30196E+02  1.72445E+03  2.83501E+02  2.16318E+03
 -1.62934E+03  2.12735E+03 -3.20965E+03  1.56937E+02 -3.34994E+03 -2.28062E+03 -6.43812E+02 -3.81401E+03
  1.86188E+03 -2.97574E+03  3.51364E+03 -5.93199E+02  3.42961E+03  2.72173E+02  2.05572E+03  3.24359E+03
  1.01996E+03  3.24157E+03 -1.21354E+03  2.50796E+03 -1.80554E+03  1.66208E+03 -1.28388E+03  1.82091E+01
 -8.33011E+02 -3.07517E+02 -9.65125E+02  5.93761E+02 -2.15446E+03  1.00141E+03 -2.36978E+03 -1.16439E+03
 -2.14388E+03 -5.54479E+02 -1.86253E+02 -3.07431E+03  1.10285E+03 -3.81927E+03  3.48330E+03 -1.68546E+03
  3.44685E+03  1.47222E+02  1.17033E+03  1.72118E+03  6.03878E+01  3.46181E+03 -2.23366E+03  2.05789E+03
