 $NMID ID='MM_0lb_SNR400_8hz_g55_52.RAW', FMTDAT='(8E13.5)'
 TRAMP=1., VOLUME=1. $END
  3.09736E+05  4.55826E+02  3.37839E+05  2.50130E+05  8.45648E+04  3.38324E+05 -1.31248E+05  2.51716E+05
 -1.91205E+05  8.35501E+04 -1.12639E+05 -3.27681E+04 -1.78996E+02 -5.06727E+04  5.34728E+04 -1.06077E+03
  3.50001E+04  5.28431E+04 -1.57191E+04  7.65899E+04 -6.14048E+04  6.49197E+04 -8.58326E+04  3.34717E+04
 -8.31029E+04 -1.22439E+04 -5.82869E+04 -5.26083E+04 -1.51099E+04 -7.17035E+04  2.90139E+04 -4.75275E+04
  4.14611E+04  3.84868E+03  1.71038E+04  4.95511E+04 -3.43064E+04  4.81884E+04 -6.91361E+04  2.53804E+02
 -5.55045E+04 -5.88190E+04 -7.39512E+03 -8.01223E+04  3.55657E+04 -5.76293E+04  5.06375E+04 -1.81895E+04
  4.58647E+04  1.17825E+04  3.36333E+04  2.71266E+04  1.56745E+04  3.15648E+04 -6.19509E+03  2.78721E+04
 -2.31937E+04  1.09392E+04 -1.78041E+04 -6.40670E+03  7.36281E+03 -7.05256E+03  2.43230E+04  1.35132E+04
  6.76355E+03  3.78911E+04 -3.46184E+04  3.74506E+04 -6.70076E+04  1.72663E+03 -6.00473E+04 -4.50277E+04
 -1.32574E+04 -6.62345E+04  4.25451E+04 -4.75180E+04  6.18662E+04 -2.59010E+03  3.67828E+04  3.43466E+04
 -5.47402E+03  4.00812E+04 -3.21572E+04  2.00547E+04 -3.44620E+04 -3.73494E+03 -1.99430E+04 -1.26661E+04
 -9.59696E+03 -1.53080E+04 -6.19941E+02 -1.98887E+04  9.14470E+03 -2.33684E+04  1.57252E+04 -1.23095E+04
  9.82522E+03  6.89458E+03 -1.16420E+04  1.19953E+04 -2.36664E+04 -6.69850E+03 -8.46470E+03 -3.91261E+04
  2.58824E+04 -4.73089E+04  5.35525E+04 -2.14109E+04  4.85240E+04  2.13119E+04  1.73379E+04  4.82584E+04
 -1.74596E+04  3.65390E+04 -2.83655E+04  2.51089E+03 -1.15464E+04 -2.99044E+04  2.17481E+04 -3.84656E+04
  4.61355E+04 -1.17589E+04  4.09933E+04  2.60177E+04  2.28108E+04  5.27550E+04 -8.63661E+03  5.78763E+04
 -3.61751E+04  3.99848E+04 -4.90581E+04  1.09666E+04 -4.96780E+04 -1.92118E+04 -2.69851E+04 -4.24461E+04
  7.62740E+03 -4.36849E+04  3.44972E+04 -1.81304E+04  3.29887E+04  1.15737E+04  5.83478E+03  2.19843E+04
 -1.39189E+04  1.01384E+04 -1.19332E+04 -7.92018E+03  5.67442E+03 -1.16151E+04  1.86653E+04  5.79844E+03
  1.57800E+04  2.23637E+04 -4.06406E+03  2.73515E+04 -2.35674E+04  1.57682E+04 -3.25396E+04 -2.55154E+03
 -2.68552E+04 -1.84480E+04 -1.22620E+04 -2.63802E+04  5.51153E+03 -2.81509E+04  2.01434E+04 -2.45924E+04
  3.44573E+04 -1.49492E+04  3.98710E+04  5.05522E+03  2.84385E+04  2.56389E+04  4.34473E+03  4.30430E+04
 -2.04873E+04  3.52276E+04 -3.04386E+04  1.26458E+04 -2.33175E+04 -9.48436E+03 -4.96745E+03 -1.23444E+04
  8.06981E+02 -8.56868E+02 -7.73378E+03  8.60295E+03 -2.11223E+04  5.45542E+03 -2.12493E+04 -1.05673E+04
 -1.27483E+04 -2.46925E+04  6.08033E+03 -2.87909E+04  2.12410E+04 -2.11800E+04  2.43585E+04 -2.44850E+03
  1.51642E+04  1.70190E+04 -2.52264E+03  2.48732E+04 -1.69225E+04  1.39646E+04 -2.53347E+04 -4.58806E+03
 -1.82233E+04 -2.20130E+04 -2.35380E+03 -3.07598E+04  1.39445E+04 -2.49609E+04  2.40526E+04 -1.32985E+04
  2.27291E+04 -9.07722E+02  1.65292E+04  5.46519E+03  9.52760E+03  9.55070E+02  1.35110E+04 -1.00455E+03
  2.40343E+04  3.36913E+03  2.68901E+04  1.90028E+04  1.93628E+04  3.90950E+04 -3.05466E+03  4.68155E+04
 -2.70443E+04  4.00106E+04 -4.48464E+04  2.13811E+04 -4.84363E+04 -3.77898E+03 -3.87116E+04 -2.81639E+04
 -1.56404E+04 -4.00727E+04  1.51813E+04 -3.52020E+04  3.04081E+04 -1.62121E+04  2.62233E+04  8.25022E+03
  8.10318E+03  1.97503E+04 -1.30049E+04  1.72156E+04 -2.18534E+04  3.05624E+03 -1.67720E+04 -1.45719E+04
 -1.17082E+03 -2.05413E+04  1.04801E+04 -1.58811E+04  1.45350E+04 -1.48123E+03  3.69330E+03  9.23565E+03
 -9.39884E+03  4.59624E+03 -1.02541E+04 -7.23558E+03 -2.90637E+03 -1.94978E+04  1.19953E+04 -2.21588E+04
  2.55692E+04 -1.22880E+04  2.92417E+04  3.75012E+03  2.53189E+04  2.08256E+04  1.16178E+04  3.22075E+04
 -5.06563E+03  3.35783E+04 -2.20388E+04  2.07859E+04 -2.42355E+04  4.23122E+03 -1.70334E+04 -6.49520E+03
 -6.47706E+03 -8.16767E+03 -6.53132E+02 -3.75647E+02 -3.44457E+03  3.70984E+03 -7.63277E+03  5.45504E+03
 -1.64192E+04 -1.39640E+03 -1.64303E+04 -1.33598E+04 -6.04196E+03 -2.03165E+04  6.11469E+03 -1.65769E+04
  1.41723E+04 -6.04227E+03  9.62102E+03  5.14226E+03 -6.86589E+02  6.63501E+03 -8.49433E+03 -3.36805E+02
 -8.38808E+03 -1.09353E+04 -1.80464E+03 -1.71760E+04  1.03920E+04 -1.90050E+04  2.26569E+04 -9.36870E+03
  2.62156E+04  1.77628E+03  1.82546E+04  1.55175E+04  2.65840E+03  2.05505E+04 -1.08653E+04  1.69001E+04
 -1.37205E+04  4.65490E+03 -7.47342E+03 -3.79476E+03  2.94928E+03 -4.16467E+03  8.53913E+03 -1.09507E+03
  7.93164E+03  7.56681E+03  8.43446E+02  1.44629E+04 -1.03989E+04  1.25569E+04 -1.73095E+04  2.27847E+03
 -1.20373E+04 -9.20756E+03  1.13853E+02 -1.44769E+04  9.35008E+03 -7.32756E+03  1.10514E+04  4.50387E+03
  2.76796E+03  1.17816E+04 -9.38257E+03  1.25876E+04 -1.64825E+04  5.23786E+03 -1.60121E+04 -5.64093E+03
 -9.06873E+03 -1.72450E+04  4.88046E+03 -2.01471E+04  1.69497E+04 -1.32050E+04  1.92883E+04  4.17866E+03
  1.13384E+04  1.49352E+04 -1.16664E+03  1.75644E+04 -1.32916E+04  1.01013E+04 -1.41815E+04 -2.48196E+03
 -1.22455E+04 -1.13354E+04 -2.46940E+03 -1.30601E+04  6.89397E+03 -1.00348E+04  8.22093E+03 -4.24820E+03
  5.85356E+03  2.16176E+03 -7.26811E+02  1.92370E+03 -9.69331E+02 -4.48560E+03  3.79595E+03 -9.42007E+03
  1.36589E+04 -5.29120E+03  1.76895E+04  2.34480E+03  1.77645E+04  1.22731E+04  1.13303E+04  2.35151E+04
 -5.94343E+03  2.74780E+04 -2.29085E+04  2.01251E+04 -3.01961E+04  5.27755E+03 -2.37248E+04 -1.09701E+04
 -1.21562E+04 -1.90577E+04 -4.82806E+02 -1.77613E+04  5.70105E+03 -9.50052E+03  5.87501E+03 -6.56191E+03
  4.95251E+03 -3.61429E+03  4.32535E+03 -4.90801E+03  6.33110E+03 -3.36439E+03  9.92999E+03 -1.29169E+03
  1.23502E+04  2.07372E+03  7.02240E+03  1.07172E+04 -2.66398E+03  1.36661E+04 -1.29835E+04  9.58649E+03
 -1.64769E+04 -6.00823E+02 -1.12516E+04 -1.18664E+04 -1.43266E+03 -1.86779E+04  9.88635E+03 -1.84893E+04
  1.82659E+04 -1.04888E+04  2.18117E+04  3.17493E+03  1.47880E+04  1.60747E+04  2.78085E+03  2.03291E+04
 -9.13384E+03  1.66109E+04 -1.24344E+04  6.18946E+03 -8.14538E+03 -2.76479E+03 -2.81717E+03 -2.34676E+03
 -1.54721E+03  1.82547E+02 -2.11907E+03  3.44068E+03 -7.37070E+03  3.19198E+03 -1.17934E+04 -1.22901E+03
 -8.81494E+03 -1.18442E+04 -1.40295E+02 -1.73653E+04  1.07052E+04 -1.54659E+04  1.71289E+04 -4.69267E+03
  1.68309E+04  8.96345E+03  8.27573E+03  1.57474E+04 -3.33431E+03  1.69304E+04 -1.30266E+04  1.18339E+04
 -1.62688E+04  3.77503E+01 -1.21231E+04 -1.07035E+04 -2.02783E+03 -1.39858E+04  8.03415E+03 -1.12947E+04
  1.12078E+04 -3.37107E+03  7.93022E+03  2.45042E+03  3.71392E+03  4.59410E+03  2.08599E+03  2.33049E+03
  3.46642E+03  1.23895E+03  3.79779E+03  1.13532E+03  5.69245E+03  6.00384E+03  3.98462E+03  1.00210E+04
 -2.97676E+03  1.41939E+04 -1.25333E+04  1.33926E+04 -1.76386E+04  3.33191E+03 -1.83108E+04 -8.90263E+03
 -8.68237E+03 -1.78693E+04  3.14375E+03 -1.90353E+04  1.16890E+04 -1.14757E+04  1.52120E+04 -3.05427E+03
  1.11681E+04  6.05574E+03  2.38063E+03  1.02058E+04 -5.89449E+03  7.09166E+03 -7.35435E+03 -1.11117E+03
 -3.02057E+03 -7.83559E+03  3.74160E+03 -8.97107E+03  7.73700E+03 -4.34346E+03  6.18527E+03  1.45461E+03
  5.15104E+03  3.38745E+03  6.42548E+02  3.76590E+03 -1.21664E+03  2.14814E+03  2.20215E+03 -3.79288E+02
  2.70153E+03 -1.04815E+03  7.59523E+03  3.73554E+03  4.24789E+03  8.58505E+03 -1.55935E+03  1.27497E+04
 -9.39146E+03  9.27852E+03 -1.17945E+04  1.96377E+03 -9.74389E+03 -4.09942E+03 -4.59985E+03 -7.33521E+03
  1.22372E+03 -6.81521E+03  5.10192E+03 -2.92965E+03  4.40303E+03  3.51659E+03 -1.17820E+03  5.73541E+03
 -6.63634E+03  4.10256E+03 -9.98516E+03 -4.13800E+03 -4.62180E+03 -9.72123E+03  3.59183E+02 -1.03128E+04
  5.62382E+03 -6.29650E+03  7.93381E+03 -8.82536E+02  6.39989E+03  3.39651E+03  2.10465E+03  5.72695E+03
 -3.70035E+03  2.18258E+03 -4.70314E+03 -3.95230E+03  1.68447E+03 -7.40147E+03  9.17933E+03 -6.07737E+03
  1.15699E+04  1.47705E+03  1.12884E+04  8.58353E+03  3.15648E+03  1.30083E+04 -4.86458E+03  1.12755E+04
 -9.82104E+03  5.10557E+03 -1.12794E+04 -2.27542E+03 -5.97530E+03 -7.93922E+03  1.56391E+03 -7.65358E+03
  7.26212E+03 -3.45354E+03  5.53732E+03  2.60121E+03  2.34166E+03  6.09136E+03 -2.08957E+03  5.91776E+03
 -3.01450E+03  4.14099E+03 -3.51165E+03  2.24188E+03 -1.61481E+03  8.96646E+02 -1.46294E+03  2.17232E+03
 -2.98335E+03  4.47976E+03 -8.07047E+03  4.26188E+03 -1.22137E+04 -9.61271E+01 -1.42360E+04 -8.18457E+03
 -7.28260E+03 -1.59484E+04  3.15428E+03 -1.93360E+04  1.30095E+04 -1.38939E+04  1.68013E+04 -6.16155E+03
  1.75007E+04  3.88788E+03  1.00657E+04  1.20212E+04  1.33631E+03  1.43799E+04 -5.81352E+03  9.65558E+03
 -7.95935E+03  3.91181E+03 -3.83996E+03 -1.54182E+03 -1.18907E+03 -4.20451E+02 -1.68242E+03  1.27045E+01
 -2.56898E+03  9.16272E+01 -2.37666E+03 -9.74408E+02 -1.42390E+03 -4.38204E+03  9.11200E+02 -4.67585E+03
  6.01397E+03 -4.23558E+03  7.76585E+03  8.71924E+00  8.86113E+03  7.06040E+03  2.55481E+03  1.25878E+04
 -6.00193E+03  1.45928E+04 -1.38094E+04  8.76364E+03 -1.61744E+04 -1.74157E+02 -1.17091E+04 -1.02638E+04
 -4.22304E+03 -1.27696E+04  3.05263E+03 -1.28100E+04  8.59523E+03 -5.81239E+03  8.53446E+03  3.44743E+02
  4.18440E+03  4.29463E+03 -9.36132E+02  3.33366E+03 -1.98815E+03 -1.29270E+03 -1.88873E+02 -3.82689E+03
  2.92204E+03 -2.20650E+02  5.54104E+03  1.79772E+03  3.96210E+03  5.46078E+03  4.31406E+02  6.24539E+03
 -5.61922E+03  5.48428E+03 -8.78212E+03  7.70291E+02 -8.06331E+03 -5.91379E+03 -9.87825E+02 -1.18299E+04
  6.34673E+03 -9.60634E+03  1.01476E+04 -2.74594E+03  9.33533E+03  2.38846E+03  5.53578E+03  8.52546E+03
  1.03223E+03  8.03930E+03 -3.88704E+03  8.50663E+03 -5.60861E+03  4.27510E+03 -4.68282E+03  4.18558E+02
 -1.73384E+03 -3.72305E+02 -1.08955E+03  4.44679E+02 -3.59345E+03  2.76360E+03 -7.09607E+03 -1.32273E+03
 -6.17023E+03 -4.36889E+03 -2.83073E+03 -8.12568E+03  3.92622E+03 -8.85757E+03  8.06887E+03 -4.80675E+03
  8.98832E+03  1.29601E+03  4.92828E+03  6.81809E+03 -6.55604E+02  9.20951E+03 -8.03950E+03  4.94476E+03
