 $NMID ID='MM_0lb_SNR400_13hz_g50_12.RAW', FMTDAT='(8E13.5)'
 TRAMP=1., VOLUME=1. $END
  3.09608E+05  7.92178E+02  3.37402E+05  2.51008E+05  8.47230E+04  3.37783E+05 -1.32312E+05  2.51197E+05
 -1.90462E+05  8.28543E+04 -1.12115E+05 -3.27145E+04  8.87852E+02 -5.07266E+04  5.37059E+04 -3.45858E+02
  3.55400E+04  5.26069E+04 -1.67450E+04  7.49827E+04 -6.10264E+04  6.37260E+04 -8.44910E+04  3.20952E+04
 -8.14765E+04 -1.14250E+04 -5.75307E+04 -5.18902E+04 -1.55518E+04 -6.96601E+04  2.76562E+04 -4.62592E+04
  4.02874E+04  3.63379E+03  1.61436E+04  4.78818E+04 -3.49274E+04  4.67327E+04 -6.74136E+04 -4.49687E+02
 -5.39489E+04 -5.74377E+04 -6.52139E+03 -7.81939E+04  3.41318E+04 -5.54081E+04  4.81488E+04 -1.74137E+04
  4.37500E+04  1.13708E+04  3.22137E+04  2.61644E+04  1.56867E+04  2.96241E+04 -6.04861E+03  2.74874E+04
 -2.21253E+04  1.14348E+04 -1.81794E+04 -4.47643E+03  6.15116E+03 -7.91602E+03  2.31235E+04  1.26296E+04
  7.86420E+03  3.58289E+04 -3.29343E+04  3.55651E+04 -6.37022E+04  1.98951E+03 -5.77005E+04 -4.33706E+04
 -1.30050E+04 -6.35589E+04  4.02960E+04 -4.66536E+04  5.91448E+04 -2.61899E+03  3.51900E+04  3.29545E+04
 -5.33975E+03  3.72652E+04 -3.07494E+04  1.67465E+04 -3.11565E+04 -4.01242E+03 -1.77334E+04 -1.06573E+04
 -8.37477E+03 -1.39165E+04 -1.21518E+03 -1.87156E+04  7.59080E+03 -2.28182E+04  1.53090E+04 -1.29896E+04
  1.13409E+04  4.78502E+03 -9.37979E+03  1.30236E+04 -2.14424E+04 -5.20368E+03 -8.50727E+03 -3.49274E+04
  2.33645E+04 -4.40276E+04  4.93473E+04 -1.96797E+04  4.62165E+04  1.95055E+04  1.60910E+04  4.55656E+04
 -1.61841E+04  3.45389E+04 -2.63083E+04  1.73978E+03 -1.08149E+04 -2.81048E+04  2.09125E+04 -3.46231E+04
  4.15118E+04 -9.25312E+03  3.62357E+04  2.33172E+04  1.92401E+04  4.75147E+04 -7.92462E+03  5.23109E+04
 -3.21679E+04  3.42092E+04 -4.35721E+04  9.72645E+03 -4.36785E+04 -1.63093E+04 -2.44646E+04 -3.84274E+04
  7.80716E+03 -3.83673E+04  3.20281E+04 -1.59602E+04  3.01756E+04  1.09719E+04  4.63582E+03  1.90792E+04
 -1.35238E+04  8.95621E+03 -1.00394E+04 -7.78206E+03  5.69824E+03 -1.07840E+04  1.84217E+04  5.81349E+03
  1.37986E+04  2.21842E+04 -5.51797E+03  2.58002E+04 -2.24793E+04  1.20819E+04 -2.83325E+04 -4.02043E+03
 -2.15785E+04 -1.74416E+04 -9.61451E+03 -2.14172E+04  4.04140E+03 -2.13328E+04  1.68619E+04 -1.90933E+04
  2.70514E+04 -1.34654E+04  3.39398E+04  3.57496E+03  2.34165E+04  2.08514E+04  4.45017E+03  3.72485E+04
 -1.79772E+04  3.09911E+04 -2.77197E+04  1.07296E+04 -2.15604E+04 -1.02349E+04 -4.74594E+03 -1.35950E+04
  1.40295E+03 -2.32865E+03 -5.68564E+03  6.84536E+03 -1.66300E+04  5.08145E+03 -1.72842E+04 -7.37577E+03
 -1.02890E+04 -2.03546E+04  4.97081E+03 -2.41046E+04  1.64981E+04 -1.72128E+04  1.88337E+04 -1.66908E+03
  1.21807E+04  1.35598E+04 -1.10923E+03  1.93171E+04 -1.31702E+04  1.14684E+04 -2.01935E+04 -4.08497E+03
 -1.52975E+04 -1.73032E+04 -2.14646E+03 -2.44858E+04  1.08261E+04 -1.92695E+04  2.02224E+04 -9.74898E+03
  1.85008E+04  3.78709E+02  1.34830E+04  4.41889E+03  7.38901E+03  1.04899E+03  1.00185E+04 -1.20698E+03
  1.86338E+04  2.76191E+03  2.07428E+04  1.56644E+04  1.43444E+04  3.15690E+04 -2.84608E+03  3.66443E+04
 -2.10667E+04  2.92318E+04 -3.38827E+04  1.48931E+04 -3.55009E+04 -2.78459E+03 -2.91141E+04 -2.04247E+04
 -1.30068E+04 -2.97306E+04  1.03831E+04 -2.63737E+04  2.32184E+04 -1.31809E+04  2.04571E+04  6.49058E+03
  7.73163E+03  1.59095E+04 -9.49840E+03  1.28138E+04 -1.64614E+04  2.43541E+03 -1.29359E+04 -1.04537E+04
 -7.56064E+00 -1.61270E+04  9.11822E+03 -1.17639E+04  1.07315E+04 -1.19824E+03  2.36842E+03  7.12819E+03
 -7.52770E+03  2.51191E+03 -6.67212E+03 -6.31655E+03 -6.86174E+02 -1.40500E+04  1.02548E+04 -1.56614E+04
  1.76701E+04 -8.31537E+03  1.98428E+04  3.15644E+03  1.72348E+04  1.48574E+04  8.40811E+03  2.20021E+04
 -4.06494E+03  2.45437E+04 -1.53213E+04  1.47077E+04 -1.71273E+04  2.81118E+03 -1.20213E+04 -4.30543E+03
 -6.37311E+03 -5.37759E+03 -7.05020E+02  1.15184E+03 -2.55376E+03  2.88327E+03 -5.29931E+03  4.28512E+03
 -1.11939E+04 -7.36207E+02 -1.21686E+04 -1.01621E+04 -4.01880E+03 -1.50979E+04  5.31201E+03 -1.20967E+04
  1.12368E+04 -5.80927E+03  7.52575E+03  3.52749E+03 -1.87862E+02  4.30139E+03 -6.08359E+03 -4.48890E+02
 -5.24845E+03 -7.75368E+03 -1.10815E+03 -1.16679E+04  6.36166E+03 -1.23261E+04  1.55862E+04 -7.02438E+03
  1.76948E+04  2.14498E+03  1.27147E+04  1.06448E+04  2.84599E+03  1.39736E+04 -7.14140E+03  1.21975E+04
 -9.49520E+03  3.68004E+03 -5.03492E+03 -2.81962E+03  1.77986E+03 -3.40660E+03  6.60768E+03 -9.81727E+02
  5.91764E+03  5.60510E+03  9.38784E+02  1.00160E+04 -6.80985E+03  9.81086E+03 -1.22369E+04  1.83034E+03
 -7.64041E+03 -6.25539E+03  2.98456E+02 -9.64439E+03  6.57013E+03 -5.36022E+03  6.42722E+03  1.96885E+03
  9.65358E+02  6.54318E+03 -6.79892E+03  7.62997E+03 -8.96211E+03  4.51147E+03 -8.94334E+03 -3.03777E+03
 -5.51937E+03 -1.06795E+04  2.69172E+03 -1.32396E+04  1.09293E+04 -7.19665E+03  1.12867E+04  1.82360E+03
  7.44765E+03  9.86836E+03 -4.65343E+02  1.18238E+04 -8.10307E+03  6.03775E+03 -8.69764E+03 -7.59387E+02
 -8.16187E+03 -7.81944E+03 -2.19083E+03 -8.68376E+03  5.22420E+03 -6.46567E+03  5.56590E+03 -3.00274E+03
  4.23192E+03  1.13450E+03 -3.47673E+02  1.93978E+03  4.25989E+02 -1.60766E+03  1.47752E+03 -5.37077E+03
  7.34988E+03 -2.27962E+03  1.07005E+04  1.28514E+03  1.01955E+04  6.22835E+03  7.51367E+03  1.38520E+04
 -3.93074E+03  1.67494E+04 -1.33820E+04  1.16493E+04 -1.73562E+04  2.25887E+03 -1.37353E+04 -5.86737E+03
 -7.59175E+03 -1.21392E+04  4.87228E+01 -9.57041E+03  3.76207E+03 -4.77090E+03  3.48696E+03 -4.05343E+03
  2.29247E+03 -1.73105E+03  2.63667E+03 -2.62731E+03  4.16079E+03 -2.23038E+03  5.56850E+03 -9.45335E+02
  7.40878E+03  1.80536E+03  3.57966E+03  6.11501E+03 -2.09887E+03  7.24394E+03 -7.54206E+03  5.68162E+03
 -8.89267E+03 -1.17703E+03 -5.32667E+03 -6.25496E+03 -7.13706E+01 -1.10076E+04  5.79144E+03 -1.06574E+04
  9.88752E+03 -5.77560E+03  1.28552E+04  1.39484E+03  9.39466E+03  8.49641E+03  1.71012E+03  1.13462E+04
 -4.52432E+03  1.03022E+04 -6.19982E+03  2.79112E+03 -4.64169E+03 -1.31324E+03 -1.84015E+03 -2.56902E+03
 -3.92651E+02 -3.78788E+02 -1.85065E+03  2.50166E+03 -3.86552E+03  1.96324E+03 -6.30855E+03 -1.38627E+03
 -4.68120E+03 -5.97568E+03 -2.07532E+02 -9.66072E+03  6.16444E+03 -8.04721E+03  8.66033E+03 -2.34083E+03
  8.47350E+03  4.50767E+03  4.45892E+03  8.07762E+03 -1.44439E+03  8.74644E+03 -5.67077E+03  5.36324E+03
 -8.75259E+03  9.26112E+02 -6.05958E+03 -5.01261E+03 -1.11971E+03 -8.00493E+03  3.80693E+03 -5.10561E+03
  5.50848E+03 -1.54621E+03  4.04264E+03  8.41795E+02  1.60828E+03  3.58022E+03  1.15376E+03  1.53397E+03
  1.88267E+03  8.64468E+02  2.30806E+03  1.20947E+03  2.16483E+03  3.57844E+03  1.89319E+03  4.64555E+03
 -1.68033E+03  6.56813E+03 -6.39621E+03  7.76896E+03 -8.59162E+03  2.21519E+03 -9.57307E+03 -3.82663E+03
 -4.60994E+03 -8.84799E+03  1.22509E+03 -1.00213E+04  4.87595E+03 -6.58982E+03  8.04068E+03 -1.23350E+03
  5.16974E+03  3.14647E+03  1.05489E+03  5.17854E+03 -2.79760E+03  2.64185E+03 -2.90150E+03 -5.21647E+02
 -1.61234E+03 -3.47966E+03  2.13693E+03 -3.68804E+03  3.60570E+03 -1.89141E+03  3.23792E+03  9.69878E+02
  1.84335E+03  1.74018E+03  1.44665E+03  8.54521E+02 -6.68799E+02  1.57173E+03  1.83546E+03 -5.09482E+02
  1.25962E+03 -9.36188E+01  3.53149E+03  1.92066E+03  2.03296E+03  4.85415E+03 -1.08790E+02  6.31192E+03
 -4.03187E+03  3.78154E+03 -4.86414E+03  1.01844E+03 -4.97138E+03 -2.32753E+03 -1.49539E+03 -3.55643E+03
  8.19941E+02 -3.08255E+03  1.95499E+03 -2.16275E+03  1.78664E+03  1.94952E+03 -1.31845E+03  2.62719E+03
 -3.28458E+03  1.66183E+03 -3.43047E+03 -2.00346E+03 -2.12796E+03 -4.64774E+03  6.90411E+02 -4.25256E+03
  2.37852E+03 -2.28258E+03  3.14960E+03 -6.38548E+02  3.25640E+03  1.19726E+03  6.31704E+02  2.43438E+03
 -1.67575E+03  1.44365E+02 -1.38301E+03 -1.44519E+03  1.01329E+03 -2.86227E+03  4.37455E+03 -2.36540E+03
  4.58895E+03  8.26738E+02  5.49531E+03  3.10048E+03  1.42737E+03  5.46992E+03 -9.82088E+02  5.29184E+03
 -4.04061E+03  2.32598E+03 -4.58493E+03 -9.93017E+02 -3.29803E+03 -2.86154E+03  9.46753E+02 -2.73233E+03
  3.19357E+03 -2.06407E+03  3.51541E+03  1.28643E+03  8.47564E+02  2.61929E+03  1.91664E+02  2.86824E+03
 -7.90869E+02  1.79226E+03 -9.93238E+02  2.92851E+02 -5.28147E+02  6.33590E+02 -9.47234E+02  1.07522E+03
 -9.49522E+02  2.30290E+03 -3.63788E+03  1.83760E+03 -5.69385E+03  2.38263E+02 -6.05438E+03 -3.05175E+03
 -2.85056E+03 -6.25950E+03  1.67031E+03 -8.68498E+03  4.04917E+03 -6.31889E+03  7.45854E+03 -2.49886E+03
  6.22577E+03  1.40044E+03  4.07610E+03  4.90128E+03 -3.30345E+02  4.72397E+03 -2.31101E+03  3.33092E+03
 -2.73010E+03  1.54251E+03 -1.35559E+03 -4.08476E+02 -9.23014E+02  9.46633E+01 -3.59093E+02  2.52241E+02
 -1.75322E+03  4.31075E+02 -1.18048E+03 -3.99659E+02 -3.43766E+02 -1.46561E+03 -1.62504E+02 -2.47450E+03
  2.16860E+03 -1.73254E+03  2.31285E+03  4.18680E+02  3.90060E+03  2.81861E+03  4.15473E+02  4.76973E+03
 -2.39387E+03  5.92430E+03 -4.68755E+03  3.29183E+03 -6.58036E+03 -9.22587E+02 -4.33278E+03 -3.73384E+03
 -2.07149E+03 -4.53129E+03  1.56807E+03 -4.29822E+03  3.18405E+03 -2.33504E+03  2.51248E+03  1.78163E+02
  1.82099E+03  1.39613E+03  1.93099E+02  1.84147E+03 -7.81719E+02  4.46378E+02  1.50692E+02 -7.12225E+02
  1.66800E+03 -2.87465E+02  1.40475E+03  1.37117E+03  1.25616E+03  1.67848E+03  6.64799E+02  2.09614E+03
 -1.51258E+03  2.37488E+03 -2.80682E+03  4.15066E+02 -3.10550E+03 -2.15086E+03 -2.67243E+02 -3.32574E+03
  2.65281E+03 -3.19001E+03  3.13447E+03 -1.26339E+03  3.74912E+03 -2.55543E+02  2.68512E+03  2.69294E+03
  8.95427E+02  2.41510E+03 -3.84390E+02  3.17495E+03 -2.15122E+03  1.59563E+03 -1.28808E+03  3.76599E+02
 -1.35624E+03 -7.63803E+02 -8.09284E+02  5.78361E+02 -1.13114E+03  4.76955E+02 -2.83251E+03 -1.02923E+03
 -2.75111E+03 -8.07250E+02 -1.42383E+03 -3.30799E+03  9.22204E+02 -4.13658E+03  2.78143E+03 -8.30290E+02
  3.05517E+03  6.16174E+02  1.54018E+03  1.64382E+03 -5.19533E+02  2.92670E+03 -1.93047E+03  1.92080E+03
