 $NMID ID='MM_0lb_SNR400_19hz_g45_35.RAW', FMTDAT='(8E13.5)'
 TRAMP=1., VOLUME=1. $END
  3.09885E+05  5.90532E+02  3.37243E+05  2.50278E+05  8.48203E+04  3.37155E+05 -1.32828E+05  2.50002E+05
 -1.89294E+05  8.25486E+04 -1.11438E+05 -3.33888E+04  1.32850E+03 -5.04259E+04  5.36278E+04  6.50372E+02
  3.53705E+04  5.31424E+04 -1.69835E+04  7.48467E+04 -6.01746E+04  6.21221E+04 -8.28447E+04  3.15425E+04
 -7.98120E+04 -1.11038E+04 -5.60629E+04 -4.96884E+04 -1.50659E+04 -6.84429E+04  2.68627E+04 -4.48896E+04
  3.87950E+04  4.04282E+03  1.63423E+04  4.66561E+04 -3.37155E+04  4.58979E+04 -6.58772E+04 -3.31134E+02
 -5.15795E+04 -5.63312E+04 -6.12687E+03 -7.47253E+04  3.30317E+04 -5.33022E+04  4.58659E+04 -1.64281E+04
  4.19960E+04  1.10372E+04  3.05982E+04  2.39058E+04  1.62168E+04  2.79407E+04 -5.08719E+03  2.66281E+04
 -2.19121E+04  1.26737E+04 -1.91974E+04 -4.14529E+03  3.84007E+03 -7.81212E+03  2.07905E+04  1.09662E+04
  7.51961E+03  3.32327E+04 -3.00562E+04  3.39493E+04 -6.10316E+04  2.15579E+03 -5.58978E+04 -4.07676E+04
 -1.19194E+04 -6.04985E+04  3.75512E+04 -4.29010E+04  5.58306E+04 -2.16115E+03  3.18389E+04  3.02440E+04
 -6.50434E+03  3.23952E+04 -2.83194E+04  1.26761E+04 -2.68972E+04 -4.85256E+03 -1.41042E+04 -1.01799E+04
 -6.88897E+03 -1.15526E+04 -1.43947E+03 -1.66928E+04  6.44409E+03 -2.29244E+04  1.47360E+04 -1.42388E+04
  1.22214E+04  3.67326E+03 -5.51914E+03  1.30063E+04 -1.90108E+04 -2.13606E+03 -8.22589E+03 -2.99487E+04
  2.07046E+04 -4.04849E+04  4.40293E+04 -1.83188E+04  4.20517E+04  1.79961E+04  1.43803E+04  4.09873E+04
 -1.53037E+04  3.06522E+04 -2.29318E+04  1.33276E+03 -7.31962E+03 -2.62968E+04  2.07179E+04 -3.04126E+04
  3.78207E+04 -7.18895E+03  3.02743E+04  2.24502E+04  1.49942E+04  4.19991E+04 -7.63338E+03  4.47558E+04
 -2.80300E+04  2.95736E+04 -3.65478E+04  7.63350E+03 -3.77115E+04 -1.49121E+04 -2.09367E+04 -3.43409E+04
  6.29554E+03 -3.35843E+04  2.91289E+04 -1.27138E+04  2.66754E+04  1.11334E+04  3.05577E+03  1.72237E+04
 -1.23518E+04  6.90365E+03 -9.52193E+03 -7.64439E+03  6.08572E+03 -1.01116E+04  1.73052E+04  6.65622E+03
  1.21840E+04  2.19475E+04 -6.72490E+03  2.33021E+04 -2.12828E+04  9.12164E+03 -2.50642E+04 -6.57625E+03
 -1.60874E+04 -1.61846E+04 -5.03332E+03 -1.56789E+04  3.23695E+03 -1.38900E+04  1.18945E+04 -1.40370E+04
  2.06238E+04 -1.15337E+04  2.75705E+04  1.02846E+03  2.06809E+04  1.58267E+04  3.76646E+03  3.16243E+04
 -1.60942E+04  2.68986E+04 -2.54463E+04  8.56702E+03 -1.99708E+04 -1.01204E+04 -3.10202E+03 -1.43487E+04
  3.26731E+03 -4.17022E+03 -2.26583E+03  4.95880E+03 -1.26605E+04  5.43593E+03 -1.33982E+04 -4.79865E+03
 -8.45205E+03 -1.52816E+04  4.34064E+03 -1.88930E+04  1.19565E+04 -1.37896E+04  1.46221E+04 -2.00209E+03
  8.51884E+03  1.10139E+04 -1.37394E+03  1.54474E+04 -9.11091E+03  8.29420E+03 -1.47288E+04 -3.35135E+03
 -1.11927E+04 -1.35578E+04 -7.50082E+02 -1.88307E+04  8.38993E+03 -1.46249E+04  1.56567E+04 -7.14450E+03
  1.42160E+04  4.89372E+02  1.01418E+04  3.51304E+03  5.44543E+03  4.91437E+02  7.37299E+03 -1.23153E+03
  1.34085E+04  2.46545E+03  1.39607E+04  1.27230E+04  8.36577E+03  2.39924E+04 -3.46552E+03  2.57521E+04
 -1.55612E+04  1.89746E+04 -2.35280E+04  9.57347E+03 -2.42445E+04 -1.20238E+03 -2.08837E+04 -1.41300E+04
 -9.50538E+03 -1.91010E+04  6.26875E+03 -1.81755E+04  1.70082E+04 -1.08050E+04  1.50671E+04  3.42430E+03
  6.78876E+03  1.03274E+04 -6.68281E+03  1.02960E+04 -1.30839E+04  2.79428E+03 -1.01728E+04 -7.73940E+03
 -5.27727E+01 -1.21196E+04  6.24434E+03 -9.44861E+03  7.89480E+03 -1.02109E+03  7.94672E+02  5.08876E+03
 -4.86372E+03  1.22011E+03 -3.32003E+03 -4.49107E+03  1.13806E+03 -9.91827E+03  7.50965E+03 -9.62634E+03
  1.19484E+04 -4.36672E+03  1.07974E+04  2.63254E+03  9.29551E+03  8.83175E+03  5.20189E+03  1.36405E+04
 -1.95228E+03  1.43690E+04 -9.04806E+03  9.69929E+03 -1.08679E+04  2.99592E+03 -8.31737E+03 -1.64218E+03
 -4.57986E+03 -2.73920E+03 -1.12606E+03  1.53200E+03 -2.57702E+03  2.39341E+03 -3.53505E+03  3.28152E+03
 -7.16291E+03 -5.90638E+02 -7.70186E+03 -6.42550E+03 -2.81621E+03 -1.17348E+04  3.12923E+03 -7.89474E+03
  6.60251E+03 -3.73624E+03  5.00723E+03  2.09508E+03  6.27527E+02  3.17284E+03 -2.58027E+03  7.30347E+00
 -3.41122E+03 -4.92242E+03 -8.31239E+02 -7.10311E+03  3.53097E+03 -7.70367E+03  9.34409E+03 -3.85379E+03
  1.07772E+04  2.64077E+02  8.52666E+03  5.81044E+03  1.52921E+03  8.17428E+03 -5.24319E+03  8.37472E+03
 -6.12948E+03  2.76017E+03 -3.37453E+03 -1.39127E+03  1.14938E+03 -1.74107E+03  3.82664E+03 -6.73968E+02
  3.88148E+03  3.36198E+03  7.40307E+02  5.84372E+03 -3.76140E+03  6.05610E+03 -7.75571E+03  1.80316E+03
 -4.65175E+03 -2.92966E+03  2.70232E+02 -5.96505E+03  3.25394E+03 -3.62231E+03  3.32450E+03  4.36954E+02
  4.60009E+02  2.64032E+03 -4.00381E+03  4.32688E+03 -4.56960E+03  2.35620E+03 -4.18772E+03 -8.23677E+02
 -2.97430E+03 -5.55823E+03  1.19483E+03 -6.42519E+03  5.59071E+03 -4.50137E+03  5.38323E+03  8.53104E+02
  4.76882E+03  4.95065E+03 -6.56317E+02  6.96183E+03 -4.68731E+03  4.32862E+03 -5.04013E+03 -9.61944E+00
 -5.60202E+03 -4.62583E+03 -2.01605E+03 -4.74188E+03  2.57538E+03 -4.27957E+03  2.65640E+03 -2.83644E+03
  2.79875E+03  1.64157E+02 -1.32629E+02  1.12881E+03  7.85712E+02  5.72261E+01 -2.77448E+02 -1.59641E+03
  3.40260E+03 -9.10151E+02  5.20232E+03  3.49592E+02  5.49174E+03  2.98668E+03  4.97721E+03  6.81680E+03
 -9.83316E+02  7.76889E+03 -7.29735E+03  6.15436E+03 -9.53354E+03  4.29527E+02 -7.47772E+03 -1.90804E+03
 -4.45336E+03 -5.69018E+03  7.97007E+01 -4.87894E+03  2.37301E+03 -1.77149E+03  1.10820E+03 -1.99106E+03
  6.05962E+02 -1.45539E+03  1.61969E+03 -3.13133E+03  3.27989E+03 -1.77106E+03  3.18966E+03  4.77793E+02
  4.00075E+03  1.14344E+03  1.14180E+03  3.61388E+03 -1.69131E+03  2.32732E+03 -3.95858E+03  1.81830E+03
 -4.71015E+03 -9.67975E+02 -1.98485E+03 -2.72736E+03  5.25360E+02 -4.65004E+03  2.73643E+03 -5.19900E+03
  4.89965E+03 -3.22293E+03  6.32978E+03 -1.81402E+02  4.70667E+03  3.90063E+03  8.32079E+02  5.05790E+03
 -1.58720E+03  5.60657E+03 -3.08648E+03  1.81107E+03 -2.09814E+03 -1.04316E+03 -8.86605E+01 -7.42689E+02
 -6.11880E+02  5.86736E+02 -8.27641E+02  1.74676E+03 -2.52578E+03  1.12111E+03 -4.09035E+03 -8.32606E+02
 -1.04554E+03 -3.95297E+03  1.01439E+03 -4.41302E+03  2.55966E+03 -4.22711E+03  2.85298E+03 -1.06447E+03
  3.59353E+03  2.38044E+03  1.69935E+03  3.16220E+03 -5.45361E+02  3.94673E+03 -2.41634E+03  2.68033E+03
 -3.19714E+03  1.22282E+02 -3.08820E+03 -1.97571E+03  1.00868E+02 -2.81099E+03  1.12987E+03 -2.51918E+03
  2.53714E+03 -1.19479E+03  1.69453E+03  4.78857E+02  4.33171E+02  1.71468E+03  1.13793E+03  7.27203E+02
  2.38837E+03  6.65247E+02  1.82314E+03  1.09774E+03  6.17404E+02  2.16088E+03  1.69402E+03  1.19327E+03
 -1.01104E+03  2.81472E+03 -2.15834E+03  3.80271E+03 -2.40956E+03  1.22194E+03 -3.99696E+03 -6.08177E+02
 -1.54787E+03 -2.99756E+03  2.29652E+02 -4.54876E+03  1.85105E+03 -2.54417E+03  2.67740E+03 -5.07033E+02
  2.47114E+03  1.82984E+03  5.79364E+02  1.93751E+03 -9.77380E+02  1.26866E+03 -7.75150E+02  1.11084E+02
 -4.04843E+02 -2.04755E+03  1.01976E+03 -1.20104E+03  1.46538E+03 -4.13453E+02  1.29952E+03  3.80992E+02
  7.00210E+02  2.35148E+02  6.19573E+02 -3.07987E+02 -3.42556E+02  5.82610E+02  2.11025E+03 -8.78815E+02
  1.41239E+02 -3.17046E+02  1.95881E+03  6.87335E+02 -1.79250E+02  2.45886E+03 -1.55641E+02  3.35238E+03
 -1.72256E+03  8.23217E+02 -1.67964E+03 -1.43338E+02 -2.03562E+03 -6.59723E+02 -7.03127E+02 -5.25522E+02
  4.93329E+02 -8.45676E+02  7.34239E+02 -1.08872E+03  2.99322E+02  1.05137E+03 -9.42264E+02  1.57289E+03
 -1.06981E+03  9.23951E+02 -1.39230E+03 -1.04040E+03 -3.12156E+02 -2.36618E+03  5.34641E+02 -1.87751E+03
  9.16802E+02 -4.55512E+02  1.19677E+02 -8.31908E+01  6.89658E+02 -5.66935E+02  9.31909E+01  6.95770E+02
  1.36504E+02  6.15953E+02 -8.79540E+02 -7.55757E+01  8.01143E+02 -5.38547E+02  1.74911E+03 -6.44439E+02
  1.35610E+03  2.31236E+02  2.39629E+03  8.90964E+02  1.28783E+03  1.39839E+03  2.85793E+02  1.21018E+03
 -1.02178E+03  2.53005E+02 -1.37528E+03 -3.84325E+02 -5.59755E+02 -1.30471E+03  3.29508E+02 -4.58636E+02
  1.11152E+03 -4.06243E+02  9.04643E+02  6.50765E+02  4.24528E+02  1.38271E+03  6.50817E+02  1.14281E+03
 -3.74147E+02  1.26172E+03 -1.76761E+02  4.10744E+02  3.89808E+02  3.39196E+02 -6.65593E+02  4.68005E+02
 -2.37349E+02  6.64208E+02 -2.07133E+03  4.54979E+02 -9.68788E+02  2.72090E+02 -2.11699E+03 -8.31235E+02
 -7.50549E+02 -2.14797E+03  3.90046E+01 -2.33155E+03  7.90516E+02 -2.15237E+03  2.53184E+03 -1.41268E+03
  2.00081E+03 -6.52472E+01  8.58893E+02  1.66319E+03 -9.50177E+02  1.31150E+03 -4.67791E+02  1.21451E+03
 -1.33997E+03  7.68068E+02 -6.17605E+02 -1.76764E+02  2.01404E+02  5.70956E+02 -1.30983E+03 -2.05513E+02
 -1.57247E+03 -5.23430E+02 -1.09069E+03  3.54847E+02 -1.63901E+02 -7.74928E+02 -3.37333E+02 -1.00028E+03
  1.00157E+03 -1.55766E+02  1.00604E+03  1.53450E+02  7.07777E+02  6.23762E+02 -5.12589E+02  8.09205E+02
 -6.25831E+02  2.02619E+03 -1.70716E+03  7.00025E+02 -1.27409E+03 -2.81857E+01 -1.11994E+03 -1.10584E+03
 -6.72480E+02 -1.55571E+03  3.91872E+02 -1.28409E+03  6.17475E+02 -3.68321E+02  3.03071E+02  1.98883E+02
  2.94084E+02  2.78540E+01  2.73498E+02  2.14215E+02 -1.55941E+02 -1.48951E+01  1.42129E+02 -2.80165E+02
  4.19405E+02  2.31117E+02  2.36427E+02  3.34390E+02  1.16641E+02  3.77327E+01  4.75931E+02  5.45253E+02
 -3.76783E+02  2.42515E+02 -3.90565E+02  2.88107E+02 -9.88494E+02 -9.01933E+02 -6.11036E+02 -1.43463E+03
  4.46440E+02 -7.21979E+02  2.91742E+02  2.89436E+02  7.24845E+02 -6.80767E+02  6.09553E+02  1.01379E+03
  3.87636E+02  6.54604E+02  6.97362E+01  6.00891E+02 -1.07833E+03  5.30931E+02 -5.59776E+02  2.45496E+01
  4.09088E+01  3.17696E+02 -4.70247E+02  4.30650E+02 -2.63773E+02  6.21229E+02 -4.36319E+02 -1.32870E+02
 -1.35119E+03  3.52596E+01 -3.38223E+02 -1.37166E+03  4.74604E+02 -1.61147E+03  9.45496E+02 -4.73685E+01
  7.88562E+02 -2.65075E+02 -3.77555E+02  4.91151E+01  2.23340E+02  6.88965E+02  1.28639E+02  5.63318E+02
