 $NMID ID='MM_0lb_SNR400_16hz_g50_47.RAW', FMTDAT='(8E13.5)'
 TRAMP=1., VOLUME=1. $END
  3.10255E+05  5.28838E+02  3.37363E+05  2.50570E+05  8.49205E+04  3.37519E+05 -1.32281E+05  2.50861E+05
 -1.90072E+05  8.31627E+04 -1.11965E+05 -3.27869E+04  1.16365E+03 -5.05150E+04  5.38414E+04 -7.09164E+02
  3.51613E+04  5.27592E+04 -1.74899E+04  7.55441E+04 -6.02484E+04  6.35868E+04 -8.33310E+04  3.20277E+04
 -8.01690E+04 -1.18084E+04 -5.66479E+04 -5.11173E+04 -1.49801E+04 -6.89431E+04  2.66173E+04 -4.51545E+04
  3.95873E+04  3.50244E+03  1.59581E+04  4.77883E+04 -3.40814E+04  4.70405E+04 -6.64941E+04 -4.88401E+02
 -5.27647E+04 -5.67738E+04 -6.15543E+03 -7.63901E+04  3.37411E+04 -5.47404E+04  4.75075E+04 -1.71006E+04
  4.22942E+04  1.08375E+04  3.20006E+04  2.53527E+04  1.58223E+04  2.85927E+04 -4.97190E+03  2.70082E+04
 -2.14239E+04  1.20076E+04 -1.82088E+04 -4.60877E+03  4.99376E+03 -7.49643E+03  2.21735E+04  1.18825E+04
  6.56660E+03  3.48643E+04 -3.12279E+04  3.45442E+04 -6.28296E+04  2.67519E+03 -5.66538E+04 -4.22008E+04
 -1.20288E+04 -6.26315E+04  3.92813E+04 -4.45195E+04  5.68695E+04 -2.33591E+03  3.39035E+04  3.16396E+04
 -6.20644E+03  3.53507E+04 -2.88395E+04  1.50138E+04 -2.93648E+04 -4.14362E+03 -1.58722E+04 -1.07102E+04
 -7.68562E+03 -1.24303E+04 -1.43494E+03 -1.72860E+04  7.73502E+03 -2.31775E+04  1.54550E+04 -1.37280E+04
  1.17789E+04  5.21222E+03 -7.61448E+03  1.36039E+04 -2.05471E+04 -4.00971E+03 -8.50317E+03 -3.27694E+04
  2.20838E+04 -4.23432E+04  4.63788E+04 -1.89317E+04  4.37086E+04  1.90731E+04  1.51236E+04  4.32851E+04
 -1.56973E+04  3.27953E+04 -2.42076E+04  1.34447E+03 -9.79927E+03 -2.72193E+04  2.12252E+04 -3.30459E+04
  4.06153E+04 -8.27484E+03  3.45101E+04  2.39913E+04  1.63408E+04  4.45966E+04 -7.28015E+03  4.84429E+04
 -2.99413E+04  3.18471E+04 -4.00654E+04  9.36688E+03 -4.02724E+04 -1.55847E+04 -2.24581E+04 -3.64977E+04
  7.26491E+03 -3.59009E+04  3.11117E+04 -1.43513E+04  2.89602E+04  1.13007E+04  3.49318E+03  1.84297E+04
 -1.32997E+04  8.23476E+03 -9.87833E+03 -7.68084E+03  4.99150E+03 -1.05101E+04  1.76241E+04  6.04619E+03
  1.24352E+04  2.20219E+04 -6.36562E+03  2.44608E+04 -2.19723E+04  1.09948E+04 -2.69113E+04 -5.19429E+03
 -1.91647E+04 -1.66552E+04 -7.54150E+03 -1.89472E+04  3.46367E+03 -1.75555E+04  1.44556E+04 -1.72293E+04
  2.39569E+04 -1.18849E+04  3.06699E+04  2.01900E+03  2.27614E+04  1.87872E+04  3.71350E+03  3.43685E+04
 -1.66709E+04  2.90587E+04 -2.71906E+04  1.04160E+04 -2.02947E+04 -1.00952E+04 -3.73863E+03 -1.38180E+04
  1.99582E+03 -3.11129E+03 -4.09500E+03  5.89976E+03 -1.48309E+04  5.53545E+03 -1.48765E+04 -6.20654E+03
 -9.45613E+03 -1.75908E+04  5.08031E+03 -2.13289E+04  1.40208E+04 -1.55038E+04  1.59059E+04 -1.83293E+03
  1.04342E+04  1.28385E+04 -1.17722E+03  1.75429E+04 -1.17981E+04  1.00793E+04 -1.75926E+04 -4.16692E+03
 -1.41672E+04 -1.59049E+04 -1.78609E+03 -2.15277E+04  9.30047E+03 -1.69309E+04  1.75311E+04 -8.54488E+03
  1.60947E+04  1.38309E+02  1.14222E+04  4.47166E+03  6.57421E+03  1.09358E+03  9.07919E+03 -1.96032E+03
  1.54135E+04  2.93959E+03  1.75187E+04  1.42859E+04  1.14035E+04  2.77356E+04 -3.50392E+03  3.14641E+04
 -1.83693E+04  2.45224E+04 -2.85423E+04  1.19136E+04 -2.99759E+04 -2.25804E+03 -2.48037E+04 -1.69687E+04
 -1.06629E+04 -2.47266E+04  7.91463E+03 -2.27381E+04  1.89823E+04 -1.20154E+04  1.75515E+04  4.55587E+03
  7.17471E+03  1.27330E+04 -7.91368E+03  1.19993E+04 -1.57958E+04  2.76260E+03 -1.20231E+04 -8.84926E+03
 -9.67766E+01 -1.43510E+04  7.02243E+03 -1.02982E+04  9.40714E+03 -1.31257E+03  2.23122E+03  5.32668E+03
 -6.51317E+03  2.32203E+03 -4.86173E+03 -4.90934E+03  2.21056E+02 -1.21187E+04  8.83671E+03 -1.21605E+04
  1.53439E+04 -6.27428E+03  1.56324E+04  3.14461E+03  1.38147E+04  1.16436E+04  5.89159E+03  1.75398E+04
 -2.71083E+03  1.97823E+04 -1.22841E+04  1.14965E+04 -1.34200E+04  2.90101E+03 -1.00734E+04 -2.62445E+03
 -5.23025E+03 -3.97408E+03 -8.62077E+02  1.47800E+03 -2.55092E+03  2.00553E+03 -5.27980E+03  4.23309E+03
 -9.48057E+03 -8.46051E+02 -1.02636E+04 -8.91256E+03 -4.23707E+03 -1.29549E+04  4.03433E+03 -9.88416E+03
  9.36096E+03 -4.34255E+03  6.44085E+03  2.19587E+03  4.31742E+02  3.93839E+03 -4.57419E+03 -4.26861E+02
 -4.61271E+03 -6.06297E+03 -5.22311E+02 -9.20569E+03  5.07387E+03 -9.40397E+03  1.21463E+04 -5.21312E+03
  1.36924E+04  1.09953E+03  1.08777E+04  8.25418E+03  2.09443E+03  1.14310E+04 -5.81296E+03  9.51322E+03
 -8.68753E+03  3.07589E+03 -3.88042E+03 -1.94021E+03  2.07532E+03 -2.39943E+03  5.55148E+03 -8.43275E+02
  4.82009E+03  4.11075E+03  1.08162E+03  8.00693E+03 -5.75940E+03  7.42388E+03 -1.00985E+04  1.93984E+03
 -6.00744E+03 -4.25808E+03 -1.44148E+01 -8.83301E+03  4.70095E+03 -3.90420E+03  4.92785E+03  1.42926E+03
  1.19061E+03  4.78222E+03 -5.04611E+03  6.60571E+03 -5.97363E+03  3.33114E+03 -6.15416E+03 -1.81531E+03
 -3.64902E+03 -7.97445E+03  2.04098E+03 -9.51187E+03  8.18335E+03 -5.94604E+03  8.71017E+03  9.96215E+02
  5.99899E+03  6.67027E+03 -1.41638E+02  8.71850E+03 -6.71354E+03  5.03292E+03 -7.14490E+03 -1.13426E+03
 -7.07111E+03 -6.36712E+03 -2.04965E+03 -6.34479E+03  3.08090E+03 -6.06147E+03  3.56981E+03 -3.07620E+03
  3.35714E+03  3.88959E+02  1.49224E+02  1.20855E+03  5.38640E+02 -9.83689E+02  1.80137E+02 -2.31019E+03
  5.30745E+03 -1.35491E+03  7.65785E+03  1.13142E+03  7.40468E+03  4.51840E+03  6.60036E+03  9.79586E+03
 -1.92648E+03  1.14150E+04 -1.00678E+04  8.56755E+03 -1.29596E+04  1.88129E+03 -1.04638E+04 -4.03934E+03
 -5.43269E+03 -8.60628E+03 -6.12200E+02 -6.51284E+03  2.88750E+03 -3.54228E+03  2.77461E+03 -3.03432E+03
  1.34992E+03 -1.79326E+03  2.34790E+03 -3.04463E+03  4.13051E+03 -1.85133E+03  4.29532E+03 -2.06072E+02
  5.85173E+03  1.02049E+03  2.40120E+03  4.42070E+03 -1.64415E+03  4.16434E+03 -6.13520E+03  3.88740E+03
 -6.69226E+03 -1.14718E+03 -3.59697E+03 -4.42898E+03  1.60107E+02 -6.90078E+03  4.65647E+03 -7.01592E+03
  7.66077E+03 -4.20552E+03  9.13592E+03  1.09747E+03  6.84361E+03  6.10758E+03  1.13038E+03  7.79508E+03
 -3.37539E+03  6.81783E+03 -4.56193E+03  2.56464E+03 -3.05306E+03 -1.38402E+03 -9.33964E+02 -7.83492E+02
 -5.52894E+02  3.32797E+02 -1.30072E+03  2.17174E+03 -3.46136E+03  1.97906E+03 -5.44035E+03 -9.39758E+02
 -2.52852E+03 -4.71399E+03  6.84613E+02 -6.41262E+03  3.95794E+03 -6.12536E+03  5.42318E+03 -1.86863E+03
  5.80251E+03  3.44655E+03  2.73778E+03  5.30120E+03 -8.64884E+02  5.87213E+03 -4.14345E+03  3.66696E+03
 -4.91050E+03  9.01478E+02 -4.50504E+03 -4.02390E+03 -4.03484E+02 -5.10372E+03  2.54758E+03 -3.96774E+03
  4.26016E+03 -1.93515E+03  2.81602E+03  1.41183E+03  8.76904E+02  2.08279E+03  9.60602E+02  1.06566E+03
  1.46220E+03  5.30752E+02  1.53578E+03  1.09392E+03  2.09396E+03  2.21979E+03  1.88659E+03  3.10756E+03
 -1.35821E+03  4.53081E+03 -3.60946E+03  5.64380E+03 -5.18492E+03  1.79976E+03 -6.38675E+03 -1.43481E+03
 -2.51083E+03 -4.97553E+03  9.91964E+02 -6.38601E+03  3.00277E+03 -3.97119E+03  4.67547E+03 -1.48860E+03
  3.88944E+03  2.24010E+03  9.16087E+02  3.30285E+03 -1.53607E+03  2.21918E+03 -1.79436E+03 -1.23060E+02
 -6.23763E+02 -2.75992E+03  2.01051E+03 -2.91249E+03  2.49213E+03 -1.46854E+03  1.94999E+03  9.45978E+02
  7.51900E+02  2.43151E+02  1.08222E+03  8.09525E+02 -4.61919E+02  9.02379E+02  1.75147E+03 -3.13273E+02
  5.29903E+02 -3.44639E+02  2.23120E+03  6.99825E+02  4.86648E+02  3.60557E+03 -4.51351E+02  4.43707E+03
 -2.41075E+03  2.39130E+03 -3.04667E+03  4.68174E+02 -3.44783E+03 -1.74213E+03 -6.78399E+02 -9.78478E+02
  6.61949E+02 -1.64848E+03  1.46030E+03 -8.83363E+02  1.45799E+03  1.40587E+03 -6.81847E+02  2.25406E+03
 -1.63746E+03  1.24504E+03 -1.81682E+03 -1.27964E+03 -1.29978E+03 -3.59593E+03  3.93455E+02 -2.58441E+03
  1.08989E+03 -1.53111E+03  1.65122E+03  3.61474E+02  1.37601E+03 -4.50511E+02  2.40345E+02  1.44576E+03
 -7.85103E+02  2.04252E+02 -1.20834E+03 -1.11929E+03  7.27614E+02 -1.63690E+03  2.25232E+03 -1.81204E+03
  2.84576E+03  7.99956E+02  3.65760E+03  1.29760E+03  1.77078E+03  2.78992E+03 -8.85381E+02  3.17620E+03
 -2.36367E+03  1.08073E+03 -2.36223E+03  4.73895E+01 -1.10743E+03 -2.50652E+03  3.20460E+02 -1.36098E+03
  2.00910E+03 -5.76697E+02  1.65398E+03  1.18251E+03  1.47805E+02  2.09928E+03 -1.40554E+02  1.68475E+03
 -4.81656E+02  1.12023E+03 -6.68578E+02  1.47179E+02  2.21924E+02  2.03896E+02 -3.93905E+02  5.99428E+02
 -6.67298E+02  1.22155E+03 -2.52647E+03  2.04213E+02 -2.95740E+03  1.97807E+02 -3.64999E+03 -1.76549E+03
 -1.23426E+03 -3.83645E+03  2.66410E+02 -4.78560E+03  1.86259E+03 -3.79450E+03  4.14051E+03 -1.25898E+03
  4.18460E+03  8.15698E+01  1.42199E+03  2.43101E+03 -9.48246E+01  3.12495E+03 -3.77180E+02  2.09428E+03
 -1.77152E+03  1.00269E+03 -1.01183E+03 -1.38077E+02 -4.77694E+02 -5.97136E+01 -6.93537E+02 -4.64422E+01
 -1.18697E+03 -6.32142E+02 -4.50208E+02  4.49395E+01  8.98998E+01 -1.06792E+03 -3.65481E+02 -1.93952E+03
  1.11046E+03 -8.58623E+02  9.41364E+02  4.88116E+02  1.95440E+03  1.67754E+03  4.20604E+02  3.09621E+03
 -1.72089E+03  3.33702E+03 -2.92475E+03  1.81901E+03 -3.22987E+03 -4.78658E+01 -2.29230E+03 -2.05718E+03
 -1.13175E+03 -2.65359E+03  1.01347E+03 -2.71210E+03  1.36251E+03 -9.65299E+02  1.64569E+03  2.16831E+02
  7.78034E+02  7.78292E+02  2.42722E+02  3.57967E+02 -7.39170E+01 -2.70888E+02  3.92189E+02 -3.30308E+02
  5.91325E+02  1.77278E+02  3.56748E+02  7.96703E+02  3.89003E+02  1.55470E+03  5.19292E+02  1.10716E+03
 -1.36718E+03  7.03533E+02 -1.26041E+03  5.24151E+02 -1.02571E+03 -1.32823E+03  3.05218E+02 -1.50740E+03
  1.52372E+03 -1.67239E+03  1.50421E+03  2.12858E+02  2.11508E+03  1.35107E+02  7.76405E+02  1.00609E+03
  8.37345E+02  1.23717E+03 -1.66381E+02  1.19180E+03 -7.27617E+02  1.11946E+03 -7.99145E+02 -2.57609E+02
 -4.30152E+02 -2.85667E+01 -2.70090E+01  1.19288E+02 -7.83903E+02  1.06914E+03 -1.13081E+03 -2.07303E+02
 -1.42756E+03  2.21846E+02 -4.45892E+02 -1.85696E+03  1.18818E+03 -2.11033E+03  1.38038E+03  2.74590E+01
  1.53178E+03 -4.52228E+01 -1.46279E+02  1.14777E+03 -5.50609E+02  1.41591E+03 -3.94325E+02  5.69550E+02
