 $NMID ID='MM_0lb_SNR400_15hz_g45_50.RAW', FMTDAT='(8E13.5)'
 TRAMP=1., VOLUME=1. $END
  3.09745E+05  3.65520E+02  3.37454E+05  2.50642E+05  8.48018E+04  3.37491E+05 -1.32376E+05  2.51058E+05
 -1.89267E+05  8.25541E+04 -1.11394E+05 -3.33556E+04  8.19656E+02 -5.06188E+04  5.38821E+04  8.95822E+01
  3.53841E+04  5.25458E+04 -1.70571E+04  7.55395E+04 -6.13102E+04  6.34110E+04 -8.37482E+04  3.11584E+04
 -8.02121E+04 -1.15763E+04 -5.69097E+04 -5.06254E+04 -1.47978E+04 -6.94000E+04  2.70463E+04 -4.51835E+04
  3.98701E+04  4.31740E+03  1.56394E+04  4.73405E+04 -3.41246E+04  4.68829E+04 -6.63689E+04  3.56766E+01
 -5.31068E+04 -5.62741E+04 -6.40411E+03 -7.60262E+04  3.32706E+04 -5.46182E+04  4.70138E+04 -1.66781E+04
  4.24206E+04  1.10290E+04  3.18509E+04  2.49516E+04  1.57216E+04  2.92048E+04 -5.34464E+03  2.69925E+04
 -2.13914E+04  1.14224E+04 -1.87559E+04 -4.69178E+03  4.83846E+03 -7.45669E+03  2.17875E+04  1.20070E+04
  7.12318E+03  3.43869E+04 -3.24592E+04  3.52410E+04 -6.25494E+04  2.23989E+03 -5.59283E+04 -4.16402E+04
 -1.24923E+04 -6.19739E+04  3.90797E+04 -4.47841E+04  5.76484E+04 -1.58087E+03  3.26335E+04  3.24024E+04
 -6.15663E+03  3.46177E+04 -2.99052E+04  1.45549E+04 -2.92902E+04 -4.39588E+03 -1.59471E+04 -1.13601E+04
 -7.87374E+03 -1.25673E+04 -4.42622E+02 -1.72920E+04  6.73657E+03 -2.34063E+04  1.51630E+04 -1.30043E+04
  1.15351E+04  4.62236E+03 -7.90218E+03  1.36675E+04 -2.05541E+04 -4.02310E+03 -8.08089E+03 -3.28870E+04
  2.21940E+04 -4.21185E+04  4.74908E+04 -1.91144E+04  4.42704E+04  1.93014E+04  1.56072E+04  4.37203E+04
 -1.60373E+04  3.27199E+04 -2.47289E+04  1.49099E+03 -9.48973E+03 -2.75285E+04  2.11051E+04 -3.32330E+04
  4.00501E+04 -8.27030E+03  3.38497E+04  2.38290E+04  1.73741E+04  4.53201E+04 -7.43717E+03  4.83213E+04
 -3.03970E+04  3.30639E+04 -4.00551E+04  8.69574E+03 -4.12434E+04 -1.62344E+04 -2.28380E+04 -3.74243E+04
  6.92498E+03 -3.62334E+04  3.12893E+04 -1.42135E+04  2.83325E+04  1.06204E+04  3.86952E+03  1.82482E+04
 -1.33778E+04  8.05100E+03 -9.89365E+03 -7.31423E+03  5.73837E+03 -1.02502E+04  1.78278E+04  6.38223E+03
  1.30407E+04  2.16444E+04 -6.15743E+03  2.49606E+04 -2.21598E+04  1.07634E+04 -2.74154E+04 -5.13301E+03
 -1.86798E+04 -1.70296E+04 -7.41879E+03 -1.92487E+04  3.76978E+03 -1.76540E+04  1.44587E+04 -1.66547E+04
  2.43492E+04 -1.19219E+04  3.06798E+04  2.59649E+03  2.29203E+04  1.82590E+04  3.72091E+03  3.55419E+04
 -1.67812E+04  2.93577E+04 -2.70817E+04  1.00354E+04 -2.02891E+04 -9.84089E+03 -3.93401E+03 -1.35085E+04
  1.62846E+03 -3.91015E+03 -3.83044E+03  6.40053E+03 -1.49110E+04  5.38587E+03 -1.58744E+04 -6.53024E+03
 -9.74511E+03 -1.76173E+04  5.02853E+03 -2.18552E+04  1.39230E+04 -1.54653E+04  1.67233E+04 -1.61908E+03
  1.03127E+04  1.26435E+04 -9.11583E+02  1.79158E+04 -1.21081E+04  9.72596E+03 -1.76720E+04 -3.79227E+03
 -1.34108E+04 -1.56418E+04 -1.49638E+03 -2.13200E+04  9.58344E+03 -1.71365E+04  1.78376E+04 -8.52335E+03
  1.65969E+04  1.36496E+02  1.17345E+04  3.82773E+03  5.87635E+03  5.12615E+02  8.38028E+03 -1.41935E+03
  1.66651E+04  3.15831E+03  1.81402E+04  1.41381E+04  1.13112E+04  2.86339E+04 -2.88725E+03  3.08364E+04
 -1.86043E+04  2.49541E+04 -2.94874E+04  1.29217E+04 -3.05002E+04 -2.51986E+03 -2.55773E+04 -1.78881E+04
 -1.17269E+04 -2.55405E+04  8.29771E+03 -2.29403E+04  1.97759E+04 -1.18956E+04  1.84733E+04  4.77853E+03
  7.53266E+03  1.33022E+04 -8.69334E+03  1.16430E+04 -1.51076E+04  2.61722E+03 -1.16329E+04 -9.39078E+03
 -4.38856E+02 -1.42910E+04  7.66598E+03 -1.15410E+04  9.34818E+03 -1.97085E+03  2.13616E+03  5.62789E+03
 -6.78366E+03  2.00805E+03 -5.45895E+03 -5.35944E+03  1.10018E+02 -1.22453E+04  9.25304E+03 -1.27917E+04
  1.56655E+04 -6.90156E+03  1.62640E+04  2.41843E+03  1.36740E+04  1.23596E+04  6.83815E+03  1.83781E+04
 -2.44461E+03  1.99669E+04 -1.24691E+04  1.29763E+04 -1.46898E+04  3.72139E+03 -1.05743E+04 -2.65219E+03
 -5.35421E+03 -4.64295E+03 -8.66795E+02  1.21229E+03 -2.49078E+03  2.74776E+03 -4.76697E+03  3.76147E+03
 -9.62576E+03 -4.93488E+02 -1.02215E+04 -8.42077E+03 -4.32279E+03 -1.36409E+04  4.23574E+03 -9.97961E+03
  8.57309E+03 -4.73239E+03  6.39515E+03  2.76381E+03  5.19361E+02  4.05041E+03 -4.86964E+03 -1.96478E+02
 -4.67238E+03 -6.12763E+03 -2.56261E+02 -8.82745E+03  5.33015E+03 -1.02498E+04  1.29135E+04 -5.67492E+03
  1.51125E+04  1.35706E+03  1.13532E+04  8.38252E+03  2.78314E+03  1.16975E+04 -6.40456E+03  1.02177E+04
 -8.59381E+03  3.34984E+03 -4.77926E+03 -2.43360E+03  1.25359E+03 -2.62930E+03  5.64478E+03 -5.97287E+02
  4.63552E+03  4.82777E+03  1.50892E+03  7.92846E+03 -5.64246E+03  8.02529E+03 -9.77149E+03  2.01580E+03
 -6.21365E+03 -5.00976E+03  4.29494E+02 -8.16321E+03  5.28212E+03 -4.23983E+03  4.54361E+03  1.30780E+03
  5.68615E+02  5.13338E+03 -5.58482E+03  6.69556E+03 -7.39168E+03  3.20025E+03 -6.94976E+03 -2.10944E+03
 -4.52030E+03 -8.39446E+03  1.79511E+03 -1.06731E+04  8.39585E+03 -6.63070E+03  9.13049E+03  1.34288E+03
  6.29299E+03  7.69740E+03 -2.09985E+02  9.57263E+03 -6.12968E+03  4.88806E+03 -7.51661E+03 -1.35412E+03
 -7.07390E+03 -6.53239E+03 -7.15514E+02 -6.86335E+03  3.58390E+03 -5.88863E+03  4.01280E+03 -3.43389E+03
  3.14073E+03  4.89464E+02 -2.26420E+02  1.31839E+03  4.58070E+02 -9.97457E+02  8.43485E+02 -3.03327E+03
  5.97393E+03 -1.79467E+03  8.21844E+03  9.95447E+02  7.89220E+03  5.15236E+03  7.00092E+03  1.02702E+04
 -2.49776E+03  1.24798E+04 -1.02817E+04  9.57705E+03 -1.39573E+04  2.18968E+03 -1.06936E+04 -4.23441E+03
 -6.45116E+03 -8.94997E+03 -5.70287E+02 -7.39590E+03  2.94918E+03 -4.06546E+03  2.28131E+03 -2.53067E+03
  1.84801E+03 -1.87833E+03  2.07931E+03 -2.62683E+03  3.93765E+03 -2.17946E+03  4.66803E+03 -1.35139E+02
  6.65947E+03  1.40793E+03  2.19826E+03  4.93868E+03 -1.54457E+03  4.41088E+03 -5.78320E+03  4.68527E+03
 -7.19493E+03 -7.22225E+02 -3.87973E+03 -4.98456E+03 -6.66131E+01 -7.62630E+03  4.73989E+03 -7.99387E+03
  7.96535E+03 -4.92883E+03  9.73702E+03  1.16141E+03  6.79945E+03  6.63406E+03  1.64531E+03  8.57211E+03
 -3.82855E+03  7.67647E+03 -5.33034E+03  2.26990E+03 -3.53044E+03 -7.74928E+02 -1.49021E+03 -9.78022E+02
 -5.05246E+02  3.94884E+02 -9.31692E+02  2.63382E+03 -3.61213E+03  1.21807E+03 -6.08037E+03 -7.02004E+02
 -3.03971E+03 -5.26641E+03  6.70099E+02 -6.30118E+03  4.84119E+03 -6.76485E+03  5.32994E+03 -1.87807E+03
  6.10023E+03  3.76447E+03  2.46538E+03  5.48849E+03 -1.13391E+03  6.93633E+03 -4.21207E+03  4.14376E+03
 -6.33019E+03  1.02689E+03 -5.07607E+03 -4.21046E+03 -8.34741E+02 -5.66833E+03  2.57726E+03 -3.89710E+03
  4.46998E+03 -1.48005E+03  2.89972E+03  1.14041E+03  1.12561E+03  2.18824E+03  1.04544E+03  4.84793E+02
  2.58807E+03  6.22586E+02  1.82007E+03  1.08089E+03  2.18575E+03  2.61144E+03  2.18362E+03  3.03639E+03
 -1.71579E+03  5.56967E+03 -4.22459E+03  6.23394E+03 -6.12230E+03  1.81935E+03 -7.36714E+03 -1.81729E+03
 -3.49016E+03 -6.71813E+03  1.10117E+03 -8.15513E+03  3.43316E+03 -3.91290E+03  5.68395E+03 -1.11074E+03
  4.36512E+03  2.37045E+03  7.00359E+02  3.84690E+03 -1.41986E+03  2.55903E+03 -2.23219E+03 -2.47968E+02
 -6.28082E+02 -2.42864E+03  1.75123E+03 -2.62607E+03  2.72323E+03 -1.68088E+03  2.84056E+03  7.32976E+02
  1.30787E+03  6.49955E+02  5.38919E+02  1.29998E+01 -6.93574E+02  7.62571E+02  1.10020E+03 -4.07870E+02
  7.54888E+02 -4.39742E+02  2.89589E+03  9.93399E+02  7.53973E+02  3.61490E+03 -4.07180E+02  4.76214E+03
 -2.51428E+03  2.43723E+03 -3.81650E+03  6.87887E+02 -3.51625E+03 -1.23173E+03 -1.16401E+03 -2.06267E+03
  9.82716E+02 -2.82098E+03  1.23725E+03 -1.44130E+03  1.13946E+03  1.74834E+03 -4.80916E+02  1.61198E+03
 -2.94964E+03  1.23688E+03 -2.59554E+03 -1.77460E+03 -8.87740E+02 -3.32606E+03  7.18565E+02 -3.31795E+03
  6.85817E+02 -1.05271E+03  1.81377E+03 -7.84373E+00  1.89515E+03  6.15374E+02  7.37683E+02  1.83315E+03
 -7.80165E+02  3.79970E+02 -1.32401E+03 -8.56384E+02  3.45208E+02 -1.64678E+03  2.47002E+03 -1.86184E+03
  2.79810E+03  7.14960E+02  4.28159E+03  2.39202E+03  1.79524E+03  3.73419E+03 -6.23534E+02  3.70382E+03
 -2.59773E+03  9.13387E+02 -3.57547E+03 -4.06020E+02 -1.13409E+03 -2.70917E+03  8.23807E+02 -1.71503E+03
  2.22815E+03 -1.48421E+03  1.94580E+03  1.34048E+03  4.61461E+02  2.50536E+03 -1.82918E+02  1.50437E+03
 -6.78596E+02  1.41139E+03 -5.69652E+02  7.29120E+02 -3.49579E+02  4.12676E+02 -7.59537E+02  1.07297E+03
 -1.49735E+03  1.96504E+03 -2.15454E+03  2.01312E+03 -3.08155E+03  1.18772E+02 -3.55118E+03 -2.73643E+03
 -1.66122E+03 -4.71346E+03  3.44814E+02 -5.60282E+03  2.82936E+03 -4.81290E+03  5.18800E+03 -1.77134E+03
  4.47601E+03  3.00482E+02  2.54926E+03  3.00738E+03 -3.27017E+02  3.48662E+03 -1.16414E+03  2.65894E+03
 -2.03124E+03  6.50957E+02 -7.21888E+02 -8.12189E+02 -2.28920E+02 -3.26753E+02 -7.28450E+02  3.22505E+02
 -1.34307E+03 -6.77075E+01 -1.02961E+03  3.32468E+02 -1.78998E+02 -7.67147E+02 -1.91003E+02 -1.27738E+03
  1.76277E+03 -1.04912E+03  2.06791E+03  4.65833E+02  2.48516E+03  1.63430E+03 -1.49900E+02  2.80479E+03
 -2.00763E+03  4.82014E+03 -3.35645E+03  2.27004E+03 -3.94516E+03 -3.90198E+02 -3.12563E+03 -2.29865E+03
 -1.50110E+03 -3.60789E+03  6.52638E+02 -2.37959E+03  1.56708E+03 -1.79827E+03  1.53596E+03  9.65815E+02
  1.24536E+03  2.66505E+02  1.74084E+02  7.68276E+02 -5.49427E+02 -5.14019E+01 -3.43068E+01 -7.73322E+01
  1.88181E+03 -6.03711E+02  8.72028E+02  1.49851E+02  4.90048E+02  1.71583E+03 -7.91561E+01  1.34767E+03
 -9.39395E+02  9.41165E+02 -2.30849E+03 -1.74776E+01 -2.38011E+03 -1.32639E+03  3.34676E+02 -2.96963E+03
  1.22924E+03 -1.86436E+03  1.88751E+03 -5.65631E+02  2.44920E+03  5.05699E+01  1.36510E+03  1.77089E+03
  3.93393E+01  1.43213E+03 -1.03662E+03  1.26070E+03 -1.19724E+03  1.84997E+03 -1.27039E+03  5.45052E+02
 -8.05742E+01 -8.74382E+00 -8.79774E+02  3.84512E+02 -1.45282E+03  3.03317E+02 -1.10369E+03  5.25891E+01
 -1.36231E+03  3.13531E+02 -2.82452E+02 -1.86707E+03  1.12653E+03 -2.94935E+03  9.76544E+02 -8.67634E+02
  1.81604E+03  6.75107E+02  3.28155E+01  1.01418E+03 -1.47633E+02  1.66131E+03 -1.44869E+03  1.33402E+03
