 $NMID ID='MM_0lb_SNR400_19hz_g45_75.RAW', FMTDAT='(8E13.5)'
 TRAMP=1., VOLUME=1. $END
  3.10393E+05  1.30397E+02  3.37621E+05  2.50298E+05  8.42113E+04  3.37050E+05 -1.32352E+05  2.50387E+05
 -1.89907E+05  8.21738E+04 -1.10525E+05 -3.28512E+04  1.62757E+03 -5.07557E+04  5.37035E+04  3.68809E-01
  3.43264E+04  5.25951E+04 -1.69648E+04  7.51244E+04 -6.01076E+04  6.23938E+04 -8.30457E+04  3.13775E+04
 -7.95638E+04 -1.10123E+04 -5.59116E+04 -5.01426E+04 -1.48943E+04 -6.78556E+04  2.65799E+04 -4.46981E+04
  3.90590E+04  3.88766E+03  1.51000E+04  4.66359E+04 -3.37226E+04  4.61460E+04 -6.53714E+04 -3.92057E+02
 -5.14782E+04 -5.60139E+04 -6.24866E+03 -7.48402E+04  3.29706E+04 -5.27012E+04  4.62129E+04 -1.65066E+04
  4.10359E+04  1.07700E+04  3.06880E+04  2.41582E+04  1.58806E+04  2.84126E+04 -4.83214E+03  2.67290E+04
 -2.15677E+04  1.31910E+04 -1.93473E+04 -4.23809E+03  3.61233E+03 -7.96648E+03  2.08007E+04  1.02193E+04
  7.73335E+03  3.25770E+04 -3.01411E+04  3.41357E+04 -6.07179E+04  2.06769E+03 -5.51875E+04 -4.12013E+04
 -1.23467E+04 -6.02128E+04  3.77857E+04 -4.26995E+04  5.53027E+04 -2.19245E+03  3.18771E+04  3.05103E+04
 -6.89414E+03  3.30375E+04 -2.84308E+04  1.31851E+04 -2.68851E+04 -4.97460E+03 -1.39497E+04 -9.81769E+03
 -6.94889E+03 -1.12500E+04 -1.32576E+03 -1.63020E+04  6.69303E+03 -2.23426E+04  1.46092E+04 -1.40563E+04
  1.28547E+04  4.20490E+03 -6.14281E+03  1.26559E+04 -1.96384E+04 -2.19956E+03 -8.28922E+03 -2.99019E+04
  2.04941E+04 -3.98294E+04  4.45938E+04 -1.82394E+04  4.10168E+04  1.81084E+04  1.38580E+04  4.08799E+04
 -1.49881E+04  3.06543E+04 -2.33739E+04  9.04069E+02 -8.10758E+03 -2.61590E+04  2.05286E+04 -3.08695E+04
  3.77273E+04 -6.63517E+03  3.15658E+04  2.23927E+04  1.50312E+04  4.19741E+04 -8.21062E+03  4.46977E+04
 -2.74750E+04  2.93557E+04 -3.68088E+04  8.09298E+03 -3.78003E+04 -1.47882E+04 -2.08403E+04 -3.42627E+04
  6.99534E+03 -3.32225E+04  2.88505E+04 -1.22830E+04  2.61123E+04  1.12521E+04  2.61387E+03  1.77525E+04
 -1.30992E+04  6.97325E+03 -9.53429E+03 -7.70639E+03  5.69200E+03 -1.01438E+04  1.73250E+04  6.60689E+03
  1.20589E+04  2.10352E+04 -7.27216E+03  2.29685E+04 -2.12494E+04  8.45524E+03 -2.43763E+04 -7.02986E+03
 -1.63780E+04 -1.62926E+04 -5.64681E+03 -1.63435E+04  3.59755E+03 -1.41622E+04  1.19900E+04 -1.41149E+04
  2.05794E+04 -1.15495E+04  2.71640E+04  7.69640E+02  2.08773E+04  1.52187E+04  4.68254E+03  3.15954E+04
 -1.55717E+04  2.75652E+04 -2.53812E+04  9.35359E+03 -1.92847E+04 -1.10715E+04 -3.90317E+03 -1.39058E+04
  2.43535E+03 -3.91948E+03 -2.87255E+03  5.00306E+03 -1.21942E+04  5.35593E+03 -1.29508E+04 -5.00628E+03
 -8.60974E+03 -1.48114E+04  4.66781E+03 -1.89542E+04  1.25015E+04 -1.35806E+04  1.39366E+04 -1.66053E+03
  8.51256E+03  1.13505E+04 -1.04365E+03  1.57758E+04 -9.68495E+03  8.42498E+03 -1.49213E+04 -3.00608E+03
 -1.12002E+04 -1.36752E+04 -1.27466E+03 -1.81739E+04  8.24504E+03 -1.46244E+04  1.65724E+04 -7.01727E+03
  1.40328E+04  8.48480E+02  1.05453E+04  3.61212E+03  5.23566E+03  2.34204E+02  7.30886E+03 -1.07025E+03
  1.36610E+04  2.84348E+03  1.39184E+04  1.29740E+04  8.55047E+03  2.39135E+04 -3.23270E+03  2.55285E+04
 -1.54650E+04  1.92959E+04 -2.31767E+04  8.64816E+03 -2.40723E+04 -1.81241E+03 -2.03004E+04 -1.38864E+04
 -1.00532E+04 -1.92117E+04  6.40276E+03 -1.78274E+04  1.60575E+04 -1.04151E+04  1.50627E+04  3.48344E+03
  6.15213E+03  1.11902E+04 -6.75894E+03  1.00270E+04 -1.33911E+04  2.68291E+03 -1.05003E+04 -7.83829E+03
 -8.95092E+01 -1.18210E+04  6.07460E+03 -9.43820E+03  7.50279E+03 -1.25243E+03  1.62147E+03  4.60010E+03
 -5.60305E+03  1.55536E+03 -2.99889E+03 -4.84857E+03  2.03554E+02 -9.80948E+03  7.51521E+03 -9.62524E+03
  1.24019E+04 -4.27715E+03  1.13987E+04  2.34547E+03  1.00161E+04  9.20094E+03  4.34248E+03  1.34758E+04
 -1.35737E+03  1.50427E+04 -8.96951E+03  9.67800E+03 -1.01768E+04  2.62223E+03 -7.57529E+03 -1.45229E+03
 -4.15697E+03 -2.77074E+03 -4.88661E+02  1.19977E+03 -2.35273E+03  1.81589E+03 -2.99702E+03  3.50142E+03
 -7.50931E+03 -4.58469E+02 -8.20645E+03 -7.21274E+03 -3.18275E+03 -1.04893E+04  3.74742E+03 -8.06990E+03
  6.77963E+03 -3.48070E+03  4.80817E+03  2.35043E+03  3.70165E+02  2.97865E+03 -3.04652E+03  2.17415E+02
 -3.57812E+03 -4.75149E+03 -5.83184E+02 -6.59590E+03  3.55333E+03 -7.27894E+03  9.83221E+03 -3.75405E+03
  1.08893E+04  7.22844E+01  8.27850E+03  5.47693E+03  1.89264E+03  8.47634E+03 -5.07152E+03  7.84353E+03
 -6.80160E+03  2.68454E+03 -3.71992E+03 -8.68346E+02  1.31126E+03 -1.42919E+03  4.71698E+03 -1.08208E+03
  3.96977E+03  3.27667E+03  1.12386E+03  6.06944E+03 -3.51325E+03  6.18714E+03 -7.67282E+03  1.98264E+03
 -4.45370E+03 -3.81775E+03  6.14271E+01 -6.11994E+03  4.10897E+03 -3.18666E+03  3.61813E+03  1.05662E+03
  3.46945E+02  3.33439E+03 -4.02439E+03  4.13273E+03 -4.29172E+03  2.38393E+03 -4.23867E+03 -8.43406E+02
 -3.23792E+03 -5.27295E+03  1.05386E+03 -6.84325E+03  5.92161E+03 -4.29193E+03  5.80001E+03  6.59295E+02
  4.82100E+03  5.21680E+03  1.66257E+02  7.12260E+03 -5.07740E+03  4.23538E+03 -4.51516E+03 -6.09622E+02
 -5.12290E+03 -4.73524E+03 -1.53867E+03 -5.09202E+03  2.35271E+03 -4.24263E+03  2.88540E+03 -3.30066E+03
  2.47573E+03 -5.60768E+02  2.85019E+02  1.35416E+03  7.36512E+02 -7.52074E+02  9.55347E+01 -1.39318E+03
  3.75717E+03 -6.20168E+02  4.52987E+03  9.12408E+02  5.79920E+03  2.62218E+03  4.52986E+03  6.58201E+03
 -8.25730E+02  7.38544E+03 -7.22370E+03  5.90308E+03 -8.75722E+03  8.92406E+02 -7.36621E+03 -2.30581E+03
 -3.79277E+03 -5.89532E+03 -5.46660E+02 -4.49901E+03  1.30666E+03 -1.84599E+03  1.71274E+03 -1.66501E+03
  1.36279E+03 -1.54124E+03  2.30620E+03 -2.46090E+03  3.44292E+03 -1.56059E+03  3.28054E+03  3.97071E+02
  4.00718E+03  1.08302E+03  8.12376E+02  3.69046E+03 -1.31535E+03  2.59036E+03 -3.95328E+03  1.72868E+03
 -4.49720E+03 -1.16769E+03 -1.85921E+03 -3.05182E+03 -1.01747E+02 -4.41159E+03  3.13806E+03 -4.69193E+03
  4.72003E+03 -3.51923E+03  6.25320E+03 -3.67213E+02  5.03196E+03  4.10260E+03  7.42580E+02  5.72805E+03
 -1.82200E+03  5.19091E+03 -2.96133E+03  1.98189E+03 -1.79585E+03 -8.97650E+02 -3.57685E+02 -3.39363E+02
 -1.40312E+02 -1.23364E+02 -4.97075E+02  2.08711E+03 -3.21682E+03  5.29604E+02 -3.38715E+03 -3.09689E+02
 -1.51438E+03 -4.11305E+03  6.23827E+02 -3.34399E+03  2.81231E+03 -4.27551E+03  2.74523E+03 -7.72020E+02
  3.74214E+03  2.01165E+03  1.56835E+03  3.26190E+03 -6.95251E+02  3.68202E+03 -2.29717E+03  2.22833E+03
 -3.34656E+03  6.82924E+02 -3.43280E+03 -2.28073E+03 -1.78809E+02 -3.08750E+03  1.37484E+03 -2.26150E+03
  3.06385E+03 -9.97910E+02  2.02758E+03  2.74235E+02  3.42927E+02  1.80148E+03  9.82838E+02  6.59999E+02
  1.08802E+03  1.20267E+03  7.22777E+02  1.22453E+03  1.30303E+03  2.01137E+03  1.43920E+03  1.67678E+03
 -9.95479E+02  2.55540E+03 -1.97438E+03  3.74586E+03 -2.66267E+03  1.28181E+03 -3.86213E+03 -9.03558E+01
 -1.21306E+03 -3.36573E+03  7.80924E+02 -4.53599E+03  1.62323E+03 -2.95639E+03  2.90127E+03 -1.00388E+03
  2.27942E+03  1.84384E+03  2.33836E+02  2.15217E+03 -8.95438E+02  1.07874E+03 -7.55207E+02 -6.29074E+02
 -3.99400E+02 -1.74775E+03  9.67572E+02 -1.80824E+03  1.25665E+03 -6.31211E+02  1.15978E+03  3.07379E+02
  7.69365E+02  3.96500E+01  8.41211E+02 -3.08029E+01 -7.65792E+02  6.01083E+02  1.67470E+03 -6.14697E+02
 -2.56551E+02  3.46947E+02  1.50988E+03  3.42481E+02  4.11525E+02  2.23740E+03 -5.30904E+02  2.57131E+03
 -1.30861E+03  6.20006E+02 -1.89151E+03  4.13574E+02 -1.52172E+03 -3.93501E+02  1.96867E+02 -5.54114E+02
 -5.86263E+02 -1.05842E+03  5.70589E+02 -7.03761E+02  2.05931E+02  1.50199E+03 -2.14060E+02  1.38320E+03
 -1.68056E+03  8.16194E+02 -9.00508E+02 -1.35535E+03 -9.03756E+02 -2.03853E+03  3.44379E+02 -1.46430E+03
  4.06285E+02 -1.63364E+02  3.04745E+02  1.12643E+02  1.01912E+03 -5.39943E+02  9.67660E+01  1.04730E+03
 -2.85047E+02 -2.28281E+02 -7.21708E+02  2.40770E+02  1.00196E+03 -6.37662E+02  1.57269E+03 -8.83970E+02
  9.83174E+02  1.66712E+02  2.34190E+03  1.16091E+03  1.12785E+03  1.22223E+03  4.38112E+02  2.04073E+03
 -1.08314E+03  5.12117E+02 -1.17566E+03 -5.10400E+02 -2.25285E+02 -6.89784E+02  2.67420E+02 -4.16668E+02
  1.15046E+03 -5.99968E+02  5.82614E+02  3.09607E+02  4.56192E+00  1.26225E+03  3.18734E+02  1.08058E+03
 -6.04052E+02  1.50993E+03 -4.93132E+02  5.45117E+02  6.93855E+01  8.07955E+02 -2.60951E+02  1.44570E+02
 -6.28059E+02  1.16750E+03 -1.38512E+03  4.48913E+02 -1.40134E+03 -2.37235E+02 -2.17626E+03 -7.96784E+02
 -1.24097E+03 -2.00411E+03  4.16779E+02 -2.54975E+03  7.56101E+02 -2.51214E+03  2.53858E+03 -7.52635E+02
  1.76388E+03  1.64596E+02  1.09071E+03  1.19309E+03  1.42716E+02  1.04767E+03 -8.18169E+02  1.38690E+03
 -9.44283E+02  8.55924E+02 -6.44574E+02 -1.33020E+02 -1.52442E+02  5.47563E+02 -5.11794E+02 -2.26804E+02
 -1.06897E+03  9.90663E+01 -1.61506E+03  2.28008E+02  5.75916E+02 -8.11228E+02 -4.19355E+02 -3.50984E+02
  1.05013E+03 -8.35281E+02  3.37008E+02  1.88061E+02  8.61456E+02  1.06991E+03 -1.26954E+02  1.68088E+03
 -5.60315E+02  2.25530E+03 -1.78148E+03  1.22159E+03 -9.85172E+02 -5.84042E+01 -7.40259E+02 -1.17208E+03
 -7.72094E+02 -1.08126E+03 -1.89975E+02 -5.67517E+02  3.76752E+02 -5.13794E+02  5.76724E+02  1.84193E+01
  1.34828E+03  3.49811E+02 -2.09276E+02  9.99512E+02 -7.83315E+01  6.04222E+01 -2.21900E+02 -4.94349E+02
  1.09611E+03  4.04259E+02  3.57305E+02  1.37455E+02 -4.00201E+02  7.30406E+02  3.25432E+02  3.72877E+01
 -5.54270E+02  3.86003E+02  3.16444E+01  5.99761E+01 -7.01731E+02 -1.42823E+02 -3.06198E+02 -6.40036E+02
  6.54984E+02 -3.29274E+02  1.90985E+02 -1.91759E+02  1.12904E+03 -4.06617E+02  9.06631E+02  3.42220E+02
  4.95436E+02  6.01597E+02 -2.84433E+00  5.74126E+02 -8.21232E+02  2.27292E+02 -3.31453E+02  2.59203E+02
  1.52403E+02  5.07626E+01 -3.75385E+02 -1.41026E+02 -7.69063E+02  4.60552E+02 -7.39286E+02 -6.15342E+02
 -9.00731E+02 -2.35214E+02 -1.01339E+03 -3.51292E+02  3.40017E+02 -2.01667E+03  7.86481E+02  1.67248E+02
  7.07070E+02  3.53025E+02 -3.12991E+02 -2.19823E+02  2.44610E+02  1.04963E+03 -5.09584E+02  1.09996E+03
