 $NMID ID='MM_0lb_SNR400_17hz_g50_48.RAW', FMTDAT='(8E13.5)'
 TRAMP=1., VOLUME=1. $END
  3.09810E+05  3.85771E+02  3.37168E+05  2.50597E+05  8.54024E+04  3.37720E+05 -1.32084E+05  2.50040E+05
 -1.89769E+05  8.22588E+04 -1.11739E+05 -3.29116E+04  1.09976E+03 -5.00531E+04  5.37917E+04  1.20868E+02
  3.57216E+04  5.30567E+04 -1.66477E+04  7.51022E+04 -6.07462E+04  6.31727E+04 -8.44178E+04  3.26154E+04
 -8.04977E+04 -1.13221E+04 -5.64680E+04 -5.04879E+04 -1.51576E+04 -6.91364E+04  2.74829E+04 -4.53016E+04
  3.95145E+04  3.81021E+03  1.62823E+04  4.74127E+04 -3.43684E+04  4.65141E+04 -6.56303E+04 -2.61753E+02
 -5.26375E+04 -5.62474E+04 -6.25958E+03 -7.60427E+04  3.35325E+04 -5.35947E+04  4.64824E+04 -1.68544E+04
  4.21369E+04  1.09997E+04  3.12434E+04  2.42214E+04  1.56002E+04  2.85664E+04 -4.87942E+03  2.70691E+04
 -2.21015E+04  1.27073E+04 -1.89187E+04 -4.62078E+03  4.88608E+03 -7.81188E+03  2.16913E+04  1.15016E+04
  7.36243E+03  3.41435E+04 -3.06134E+04  3.43853E+04 -6.18009E+04  2.50813E+03 -5.55526E+04 -4.19485E+04
 -1.24650E+04 -6.17497E+04  3.87071E+04 -4.41218E+04  5.62206E+04 -2.52789E+03  3.19020E+04  3.11950E+04
 -6.28728E+03  3.44105E+04 -2.89010E+04  1.46701E+04 -2.84950E+04 -4.91949E+03 -1.54554E+04 -1.05570E+04
 -8.08044E+03 -1.23590E+04 -1.12271E+03 -1.72877E+04  6.43823E+03 -2.27485E+04  1.57719E+04 -1.35071E+04
  1.19878E+04  4.65481E+03 -6.68936E+03  1.32564E+04 -2.02741E+04 -3.62396E+03 -7.81524E+03 -3.23314E+04
  2.17632E+04 -4.15981E+04  4.61965E+04 -1.90002E+04  4.34606E+04  1.90338E+04  1.47553E+04  4.29973E+04
 -1.53582E+04  3.21091E+04 -2.44104E+04  1.77316E+03 -8.47567E+03 -2.71064E+04  2.03121E+04 -3.31344E+04
  3.93810E+04 -7.64306E+03  3.30740E+04  2.30336E+04  1.67504E+04  4.41830E+04 -7.75223E+03  4.78823E+04
 -2.98321E+04  3.23459E+04 -3.95511E+04  8.49304E+03 -4.05591E+04 -1.58645E+04 -2.18718E+04 -3.59815E+04
  7.00671E+03 -3.59470E+04  3.01093E+04 -1.31580E+04  2.76919E+04  1.05244E+04  3.67638E+03  1.85386E+04
 -1.30685E+04  8.10168E+03 -1.01007E+04 -7.80440E+03  6.10888E+03 -1.00263E+04  1.81470E+04  6.51877E+03
  1.30250E+04  2.22805E+04 -6.79238E+03  2.39964E+04 -2.15996E+04  1.04205E+04 -2.63115E+04 -5.91180E+03
 -1.83534E+04 -1.75470E+04 -6.48691E+03 -1.83390E+04  4.02588E+03 -1.66046E+04  1.37214E+04 -1.51460E+04
  2.35233E+04 -1.20553E+04  2.93792E+04  1.87381E+03  2.22097E+04  1.74508E+04  4.17825E+03  3.38676E+04
 -1.68066E+04  2.82340E+04 -2.62345E+04  1.02835E+04 -1.98754E+04 -1.02937E+04 -3.70356E+03 -1.36308E+04
  2.05352E+03 -3.43377E+03 -3.57295E+03  6.19940E+03 -1.36773E+04  4.84753E+03 -1.47268E+04 -5.48827E+03
 -9.31836E+03 -1.64982E+04  5.16394E+03 -2.08727E+04  1.33130E+04 -1.49968E+04  1.61909E+04 -1.54303E+03
  9.67947E+03  1.15589E+04 -9.45511E+02  1.76486E+04 -1.15923E+04  9.88032E+03 -1.68019E+04 -3.54031E+03
 -1.27130E+04 -1.52412E+04 -5.16187E+02 -2.07399E+04  9.71383E+03 -1.67441E+04  1.69496E+04 -8.21784E+03
  1.55784E+04  6.02658E+02  1.13500E+04  4.18863E+03  5.91152E+03  5.58195E+02  8.15382E+03 -1.36267E+03
  1.53906E+04  2.66312E+03  1.65555E+04  1.32458E+04  1.02769E+04  2.69581E+04 -2.66215E+03  2.91242E+04
 -1.63094E+04  2.26701E+04 -2.75797E+04  1.12960E+04 -2.84374E+04 -1.65042E+03 -2.36581E+04 -1.62784E+04
 -1.07784E+04 -2.28570E+04  7.92014E+03 -2.11140E+04  1.83803E+04 -1.13837E+04  1.63085E+04  4.78991E+03
  6.99641E+03  1.23719E+04 -7.92845E+03  1.14795E+04 -1.46914E+04  2.68229E+03 -1.11933E+04 -8.33250E+03
 -4.54271E+02 -1.38553E+04  6.46460E+03 -1.05190E+04  8.75537E+03 -1.59062E+03  1.72502E+03  5.07040E+03
 -6.55990E+03  1.32139E+03 -4.82492E+03 -4.91245E+03  4.97388E+02 -1.12881E+04  8.49897E+03 -1.17925E+04
  1.33972E+04 -6.20311E+03  1.40113E+04  3.54988E+03  1.21916E+04  1.05613E+04  5.32281E+03  1.65631E+04
 -2.00114E+03  1.88618E+04 -1.06853E+04  1.14129E+04 -1.25316E+04  3.26570E+03 -9.80936E+03 -2.74979E+03
 -4.68990E+03 -4.18638E+03 -6.10096E+02  1.15488E+03 -2.23142E+03  2.51576E+03 -4.53017E+03  4.02267E+03
 -8.15327E+03 -8.89318E+02 -9.50262E+03 -8.15389E+03 -3.95817E+03 -1.24554E+04  4.17589E+03 -9.54762E+03
  7.86095E+03 -4.06003E+03  5.80406E+03  1.96644E+03  4.82229E+02  3.72946E+03 -4.12354E+03 -1.70743E+02
 -4.13998E+03 -5.60861E+03 -1.04151E+02 -8.21913E+03  4.81783E+03 -8.41207E+03  1.12368E+04 -4.61899E+03
  1.33723E+04  1.08107E+03  9.36858E+03  7.24509E+03  2.19210E+03  1.02861E+04 -5.85222E+03  9.26260E+03
 -7.57534E+03  2.82745E+03 -4.22678E+03 -1.29751E+03  1.04364E+03 -2.61891E+03  5.79371E+03 -1.25530E+03
  4.41981E+03  4.28073E+03  1.74580E+03  7.22114E+03 -4.35240E+03  7.23417E+03 -8.81462E+03  1.71907E+03
 -5.83741E+03 -4.24417E+03  4.85476E+02 -7.64685E+03  4.20829E+03 -3.42861E+03  4.05378E+03  7.45265E+02
  8.43767E+02  4.12006E+03 -5.02702E+03  5.65177E+03 -6.23486E+03  2.57451E+03 -5.84117E+03 -1.47658E+03
 -3.44555E+03 -7.05977E+03  1.53014E+03 -8.54306E+03  7.09200E+03 -5.71129E+03  7.48534E+03  1.55852E+03
  4.74184E+03  5.41287E+03 -2.20197E+02  8.25911E+03 -5.86802E+03  4.95724E+03 -6.26234E+03 -3.41744E+02
 -6.42654E+03 -5.96359E+03 -1.32298E+03 -5.65332E+03  3.48950E+03 -5.15244E+03  3.04539E+03 -3.24993E+03
  3.06174E+03  1.79173E+02 -4.77679E+02  1.61201E+03  2.33154E+02 -8.35441E+02 -2.81568E+01 -2.47677E+03
  5.23894E+03 -1.46718E+03  6.41077E+03  5.04928E+02  6.45757E+03  3.62552E+03  5.84018E+03  9.02366E+03
 -1.68877E+03  1.02592E+04 -8.64335E+03  7.86864E+03 -1.16774E+04  1.28890E+03 -9.22789E+03 -3.27214E+03
 -4.83534E+03 -7.72832E+03  4.98986E+01 -6.16264E+03  2.40490E+03 -2.50128E+03  1.76911E+03 -2.24540E+03
  1.69382E+03 -1.59933E+03  2.23740E+03 -2.63419E+03  3.91368E+03 -1.48548E+03  4.25038E+03  5.46801E+02
  5.16950E+03  9.65669E+02  7.31871E+02  4.52888E+03 -1.43623E+03  3.16137E+03 -5.11343E+03  3.30009E+03
 -6.26784E+03 -1.41955E+03 -2.96935E+03 -4.19288E+03  4.78754E+02 -5.78209E+03  3.66125E+03 -6.15734E+03
  6.76533E+03 -4.02331E+03  8.27650E+03  1.14687E+02  5.99165E+03  5.08154E+03  1.55306E+03  7.30225E+03
 -2.66136E+03  7.08810E+03 -4.13537E+03  2.37663E+03 -2.36173E+03 -1.13948E+03 -1.16989E+03 -4.73437E+02
 -7.30137E+02  3.13254E+02 -1.09229E+03  2.17795E+03 -3.19185E+03  1.23685E+03 -4.15888E+03 -7.06704E+02
 -2.09638E+03 -4.82812E+03  9.14858E+02 -5.28643E+03  3.53318E+03 -4.95031E+03  4.54653E+03 -2.10137E+03
  5.30579E+03  3.10254E+03  2.47209E+03  4.02886E+03 -1.45978E+03  5.97432E+03 -3.59383E+03  2.94292E+03
 -5.18477E+03  8.16324E+02 -4.09469E+03 -3.06912E+03 -2.44394E+02 -3.44794E+03  2.52561E+03 -2.97344E+03
  3.51724E+03 -1.88164E+03  2.52163E+03  1.68585E+02 -1.55054E+02  2.19749E+03  8.50799E+02  1.86683E+02
  1.40863E+03  9.94856E+02  1.87288E+03  1.09066E+03  1.24641E+03  2.65871E+03  1.17568E+03  2.37161E+03
 -1.23970E+03  4.06406E+03 -3.26607E+03  4.87068E+03 -4.40957E+03  1.03474E+03 -5.51390E+03 -3.07156E+02
 -2.22420E+03 -4.71191E+03  9.24054E+02 -6.26399E+03  2.70529E+03 -3.22155E+03  4.00566E+03 -9.24620E+02
  3.47750E+03  2.30503E+03  5.06398E+02  2.84272E+03 -6.01375E+02  1.40886E+03 -1.54553E+03 -2.16868E+02
 -8.13786E+01 -1.65706E+03  1.19406E+03 -2.58146E+03  1.52009E+03 -1.02719E+03  1.91011E+03 -1.66570E+02
  1.04085E+03  4.29879E+02  1.19522E+03 -2.50487E+02 -7.72579E+01  7.74174E+02  1.18185E+03  2.36823E+02
  5.16246E+02 -1.04589E+02  2.29251E+03  9.61640E+02 -9.71421E+01  2.61176E+03 -6.30751E+02  2.71294E+03
 -2.70272E+03  2.07997E+03 -2.23101E+03  1.86074E+02 -2.92969E+03 -6.07963E+02 -6.00886E+02 -1.54693E+03
  1.30343E+02 -2.03972E+03  1.01343E+03 -1.19490E+03  1.19798E+03  1.06925E+03 -4.06489E+02  1.25021E+03
 -1.60741E+03  1.03895E+03 -8.88430E+02 -1.60369E+03 -1.47559E+03 -3.14265E+03  5.54418E+02 -1.94648E+03
  9.17014E+02 -1.47885E+03  1.42052E+03  5.66654E+02  9.16144E+02 -1.46468E+02 -1.55498E+01  9.29172E+02
 -5.46999E+02  4.70195E+02 -1.29594E+03 -9.01657E+02  5.75685E+02 -8.64884E+02  2.27836E+03 -1.47719E+03
  2.21186E+03  4.72692E+02  3.61405E+03  1.16929E+03  1.43479E+03  2.38460E+03 -5.23591E+02  2.20341E+03
 -1.98659E+03  5.53770E+02 -1.85775E+03  3.03152E+02 -1.34787E+03 -1.92367E+03  7.28675E+02 -9.08403E+02
  1.99061E+03 -7.56880E+02  1.44318E+03  7.12097E+02  7.04490E+01  1.41707E+03  1.16223E+02  1.56218E+03
 -2.68648E+02  1.42762E+03 -1.03759E+03  7.72625E+02  1.45218E+02  4.49414E+02 -3.92072E+02  1.43816E+03
 -8.00265E+02  1.06573E+03 -1.74328E+03  6.28573E+02 -2.58480E+03  1.79570E+02 -3.31903E+03 -2.03679E+03
 -1.41411E+03 -2.88198E+03  4.16348E+02 -3.77939E+03  1.73306E+03 -2.94451E+03  3.76481E+03 -1.39050E+03
  2.91255E+03 -4.00378E+02  1.60957E+03  2.20562E+03 -3.19654E+02  1.84077E+03 -1.03596E+03  2.17301E+03
 -1.01587E+03  5.34243E+02 -8.87557E+02 -1.43197E+02 -7.55625E+02 -1.79715E+02 -8.60901E+02 -1.00808E+02
 -1.36139E+03  4.43244E+02 -1.21240E+03  4.33355E+02  2.77456E+02 -9.46539E+02 -4.28453E+02 -1.33383E+03
  1.17969E+03 -9.79989E+02  8.90984E+02  2.65803E+02  2.05505E+03  1.29774E+03 -4.40063E+02  1.98604E+03
 -1.06649E+03  2.73101E+03 -1.73905E+03  1.83779E+03 -2.02467E+03 -2.88542E+02 -1.86436E+03 -1.70022E+03
 -1.22355E+03 -1.94117E+03  6.90836E+02 -2.20410E+03  1.15672E+03 -6.00605E+02  1.01959E+03  1.02363E+01
  1.33702E+03  6.71906E+02 -1.14453E+02  3.64369E+02 -3.25612E+02  2.55896E+02 -1.08601E+02 -4.21031E+02
  9.06448E+02  1.31564E+02  6.34307E+02  6.23079E+02 -3.59564E+02  8.11809E+02  7.78733E+02  8.11333E+02
 -6.81141E+02  8.86087E+02 -9.72674E+02  5.96200E+02 -1.06292E+03 -1.00694E+03 -2.41001E+02 -1.19847E+03
  7.03902E+02 -1.19959E+03  6.21978E+02  1.44492E+02  1.26785E+03 -3.13070E+02  7.36222E+02  7.95754E+02
  5.11945E+02  1.06236E+03  1.51355E+00  8.68034E+02 -5.43303E+02  2.48862E+02 -1.39634E+02  4.12753E+02
 -8.68840E+02 -6.33968E+02 -3.64826E+02  5.44522E+02 -7.92907E+02 -4.15868E+02 -1.26930E+03  2.97519E+02
 -9.07327E+02 -5.08008E+02 -5.52243E+02 -1.23996E+03  6.19329E+02 -1.77434E+03  1.33485E+03 -6.86305E+02
  4.88198E+02  2.50796E+01 -5.63504E+01 -3.27031E+02 -3.35827E+02  1.14316E+03 -4.00450E+02  1.14442E+03
