 $NMID ID='MM_0lb_SNR400_9hz_g55_97.RAW', FMTDAT='(8E13.5)'
 TRAMP=1., VOLUME=1. $END
  3.10100E+05  9.90629E+02  3.38329E+05  2.51923E+05  8.51965E+04  3.38206E+05 -1.33020E+05  2.52168E+05
 -1.91189E+05  8.39051E+04 -1.12355E+05 -3.24774E+04  1.07922E+03 -5.05629E+04  5.46650E+04  1.86706E+02
  3.62505E+04  5.32717E+04 -1.64834E+04  7.57576E+04 -6.02122E+04  6.50303E+04 -8.56869E+04  3.19969E+04
 -8.31967E+04 -1.16130E+04 -5.88006E+04 -5.25098E+04 -1.55603E+04 -7.13172E+04  2.88338E+04 -4.79050E+04
  4.15835E+04  3.88611E+03  1.65483E+04  4.85046E+04 -3.48600E+04  4.81361E+04 -6.77587E+04  3.37177E+02
 -5.44038E+04 -5.83745E+04 -7.39239E+03 -7.86453E+04  3.49747E+04 -5.77639E+04  4.94402E+04 -1.72511E+04
  4.53048E+04  1.12931E+04  3.36418E+04  2.75146E+04  1.62362E+04  3.16057E+04 -6.45782E+03  2.69162E+04
 -2.22263E+04  1.20289E+04 -1.76544E+04 -6.13495E+03  6.96016E+03 -7.60084E+03  2.32998E+04  1.41078E+04
  6.74227E+03  3.73786E+04 -3.44312E+04  3.68692E+04 -6.60981E+04  1.62890E+03 -5.81134E+04 -4.39650E+04
 -1.21699E+04 -6.62392E+04  4.11276E+04 -4.83003E+04  6.19020E+04 -1.62424E+03  3.65918E+04  3.42319E+04
 -5.80539E+03  3.98863E+04 -3.17917E+04  1.90206E+04 -3.38265E+04 -3.06878E+03 -1.92541E+04 -1.22821E+04
 -9.23487E+03 -1.52738E+04  1.60926E+02 -1.92669E+04  8.56262E+03 -2.30289E+04  1.63134E+04 -1.21808E+04
  1.05898E+04  5.64425E+03 -9.89741E+03  1.31355E+04 -2.33786E+04 -7.20531E+03 -9.03126E+03 -3.74522E+04
  2.54751E+04 -4.69930E+04  5.26502E+04 -2.10566E+04  4.87589E+04  2.12119E+04  1.73752E+04  4.76744E+04
 -1.67535E+04  3.63455E+04 -2.71940E+04  2.96770E+03 -1.25411E+04 -3.03900E+04  2.10578E+04 -3.73844E+04
  4.50521E+04 -1.14989E+04  4.10302E+04  2.55265E+04  2.14738E+04  5.18798E+04 -8.66991E+03  5.61491E+04
 -3.59394E+04  3.90679E+04 -4.89231E+04  1.03552E+04 -4.78868E+04 -1.86888E+04 -2.71705E+04 -4.31853E+04
  7.35315E+03 -4.21698E+04  3.48462E+04 -1.77440E+04  3.18417E+04  1.07953E+04  4.94155E+03  2.09911E+04
 -1.35070E+04  1.02044E+04 -1.20311E+04 -7.51096E+03  5.06761E+03 -1.24823E+04  1.93682E+04  5.30931E+03
  1.50090E+04  2.18129E+04 -5.42101E+03  2.70602E+04 -2.33158E+04  1.49779E+04 -3.22947E+04 -2.39841E+03
 -2.58070E+04 -1.92944E+04 -1.23619E+04 -2.56658E+04  3.28663E+03 -2.69921E+04  2.04596E+04 -2.37629E+04
  3.24886E+04 -1.50423E+04  3.83579E+04  4.76616E+03  2.71892E+04  2.44211E+04  4.36377E+03  4.14239E+04
 -1.99032E+04  3.42831E+04 -3.06825E+04  1.22985E+04 -2.19241E+04 -9.83478E+03 -4.58644E+03 -1.28977E+04
 -1.90273E+01 -1.05703E+03 -6.84476E+03  9.49404E+03 -2.12251E+04  4.51682E+03 -2.02658E+04 -9.26948E+03
 -1.15833E+04 -2.39275E+04  6.02911E+03 -2.82908E+04  1.91622E+04 -1.93964E+04  2.28248E+04 -2.30882E+03
  1.49343E+04  1.61067E+04 -1.76483E+03  2.36851E+04 -1.68596E+04  1.40357E+04 -2.36741E+04 -5.37439E+03
 -1.71675E+04 -2.07783E+04 -2.47593E+03 -2.92001E+04  1.26811E+04 -2.37475E+04  2.42805E+04 -1.18400E+04
  2.32142E+04  3.56658E+02  1.55612E+04  5.51909E+03  8.79260E+03  1.99696E+03  1.21210E+04 -2.14106E+03
  2.25715E+04  3.20749E+03  2.66592E+04  1.90325E+04  1.79194E+04  3.96807E+04 -1.92184E+03  4.50009E+04
 -2.56331E+04  3.71090E+04 -4.27783E+04  1.93920E+04 -4.58904E+04 -4.07702E+03 -3.72844E+04 -2.75500E+04
 -1.42429E+04 -3.75032E+04  1.38141E+04 -3.36837E+04  2.86208E+04 -1.53720E+04  2.48191E+04  8.52657E+03
  7.06364E+03  1.88630E+04 -1.17508E+04  1.57832E+04 -2.13779E+04  2.16212E+03 -1.58042E+04 -1.39661E+04
 -2.20472E+02 -2.04006E+04  1.12420E+04 -1.47680E+04  1.41102E+04 -8.49349E+02  3.88084E+03  9.29469E+03
 -9.12838E+03  3.79194E+03 -9.65283E+03 -7.59521E+03 -2.39005E+03 -1.79032E+04  1.18460E+04 -2.10552E+04
  2.35972E+04 -1.16432E+04  2.71630E+04  3.78031E+03  2.31248E+04  1.85952E+04  1.07262E+04  3.04464E+04
 -5.87121E+03  3.22392E+04 -2.03728E+04  1.81891E+04 -2.28891E+04  4.21858E+03 -1.61206E+04 -6.77751E+03
 -5.81460E+03 -7.51450E+03 -2.28808E+02 -4.32745E+01 -3.01263E+03  3.44505E+03 -7.32805E+03  5.71580E+03
 -1.46751E+04 -8.23734E+02 -1.51091E+04 -1.29981E+04 -6.48443E+03 -1.99966E+04  6.79875E+03 -1.60148E+04
  1.34868E+04 -6.25961E+03  9.93833E+03  3.70537E+03 -1.35311E+02  6.66313E+03 -7.75739E+03 -2.80642E+02
 -8.24725E+03 -1.04845E+04 -1.13201E+03 -1.65868E+04  9.31954E+03 -1.69227E+04  2.16879E+04 -8.91440E+03
  2.42959E+04  2.37464E+03  1.77427E+04  1.53155E+04  3.03832E+03  1.94395E+04 -9.88570E+03  1.59253E+04
 -1.29471E+04  4.90270E+03 -7.25868E+03 -3.69482E+03  1.89012E+03 -4.25280E+03  8.01530E+03 -1.59009E+03
  7.59724E+03  7.35550E+03  1.49924E+03  1.27017E+04 -9.34537E+03  1.17506E+04 -1.59897E+04  2.55224E+03
 -1.09669E+04 -8.30733E+03  5.86742E+02 -1.46521E+04  9.18868E+03 -7.54111E+03  9.95132E+03  3.62946E+03
  2.26947E+03  1.00420E+04 -7.67360E+03  1.18612E+04 -1.40612E+04  5.62524E+03 -1.44609E+04 -5.73546E+03
 -8.64474E+03 -1.62711E+04  4.27510E+03 -1.90921E+04  1.65201E+04 -1.10443E+04  1.70629E+04  3.11117E+03
  1.16128E+04  1.33080E+04 -1.04754E+03  1.67556E+04 -1.15327E+04  9.03283E+03 -1.36218E+04 -1.05483E+03
 -1.11044E+04 -1.06050E+04 -2.58263E+03 -1.22218E+04  6.38765E+03 -9.76157E+03  8.66151E+03 -3.08956E+03
  5.96119E+03  1.93708E+03 -1.16041E+03  1.37646E+03 -6.71057E+02 -4.33020E+03  2.77912E+03 -8.05996E+03
  1.13833E+04 -5.39964E+03  1.69207E+04  1.70466E+03  1.59374E+04  1.15358E+04  1.08033E+04  2.14518E+04
 -5.91448E+03  2.47295E+04 -2.09872E+04  1.78950E+04 -2.60991E+04  3.87760E+03 -2.15659E+04 -8.86022E+03
 -1.02267E+04 -1.72755E+04  1.45525E+02 -1.51160E+04  5.32474E+03 -9.02780E+03  5.25581E+03 -4.66640E+03
  4.45272E+03 -2.98002E+03  3.93806E+03 -4.59872E+03  5.37355E+03 -4.09462E+03  8.77432E+03 -9.18472E+02
  1.08162E+04  2.91020E+03  6.19268E+03  1.01597E+04 -2.23972E+03  1.15997E+04 -1.19905E+04  8.76818E+03
 -1.57126E+04 -1.06036E+03 -9.67905E+03 -1.02805E+04 -1.62755E+03 -1.68958E+04  9.00810E+03 -1.62491E+04
  1.72526E+04 -9.41623E+03  2.09211E+04  3.03210E+03  1.44402E+04  1.41879E+04  2.33354E+03  1.95065E+04
 -8.01829E+03  1.47034E+04 -1.11193E+04  5.71848E+03 -6.85198E+03 -1.13368E+03 -3.41605E+03 -2.43189E+03
 -1.47713E+03 -5.77044E+02 -2.63599E+03  2.56175E+03 -6.81708E+03  2.96584E+03 -1.03448E+04 -1.39895E+03
 -7.98972E+03 -1.09020E+04 -4.44056E+02 -1.48161E+04  9.15769E+03 -1.43050E+04  1.52380E+04 -4.15261E+03
  1.49105E+04  6.64011E+03  8.07072E+03  1.36169E+04 -3.89215E+03  1.52436E+04 -1.13892E+04  8.82347E+03
 -1.38270E+04  3.82446E+02 -1.11615E+04 -8.72302E+03 -1.50056E+03 -1.20906E+04  7.14102E+03 -9.70640E+03
  1.02463E+04 -2.49367E+03  6.73200E+03  2.23914E+03  1.62446E+03  3.73808E+03  1.46613E+03  1.96943E+03
  3.17264E+03  1.27890E+03  4.56363E+03  1.76602E+03  4.33606E+03  4.71570E+03  3.64090E+03  8.07468E+03
 -4.17426E+03  1.19306E+04 -1.01813E+04  1.19896E+04 -1.58299E+04  3.59445E+03 -1.59369E+04 -6.95502E+03
 -7.92282E+03 -1.53264E+04  3.27761E+03 -1.74225E+04  9.00920E+03 -1.06991E+04  1.30642E+04 -2.27804E+03
  9.45135E+03  6.38746E+03  3.17790E+03  8.43269E+03 -4.56555E+03  5.75891E+03 -6.47977E+03 -1.11063E+03
 -3.17769E+03 -6.42302E+03  4.21975E+03 -6.30712E+03  6.49998E+03 -3.73733E+03  5.83569E+03  1.36232E+03
  4.25173E+03  3.20789E+03  6.62039E+02  3.51019E+03 -9.54037E+02  2.35420E+03  2.25723E+03 -1.48803E+03
  3.02502E+03 -9.11876E+02  6.23329E+03  2.49921E+03  3.99199E+03  8.32315E+03 -1.27236E+03  1.12006E+04
 -7.28961E+03  6.89163E+03 -1.02551E+04  2.75293E+03 -9.03603E+03 -3.63454E+03 -4.39195E+03 -6.60101E+03
  8.83930E+02 -6.77786E+03  4.31020E+03 -2.98295E+03  3.04952E+03  2.41760E+03 -2.02273E+03  5.56078E+03
 -6.34603E+03  2.81599E+03 -7.02462E+03 -3.99085E+03 -4.04540E+03 -8.49713E+03  1.29165E+03 -9.45847E+03
  5.48861E+03 -4.61300E+03  6.57037E+03 -9.66425E+02  4.90287E+03  2.68668E+03  1.27239E+03  4.59117E+03
 -2.79246E+03  2.22810E+03 -4.43446E+03 -3.14811E+03  1.08380E+03 -5.86191E+03  8.11749E+03 -5.98403E+03
  1.04540E+04  1.16838E+02  9.61360E+03  6.60001E+03  2.47421E+03  1.05550E+04 -3.97688E+03  9.57398E+03
 -8.47906E+03  5.19645E+03 -8.53442E+03 -1.49060E+03 -4.36497E+03 -6.77719E+03  2.20222E+03 -6.78957E+03
  6.19922E+03 -3.04540E+03  6.04596E+03  3.52232E+03  1.98714E+03  6.18880E+03 -1.01335E+03  5.03350E+03
 -3.37889E+03  3.42469E+03 -2.54048E+03  6.11175E-01 -1.77932E+03  1.49670E+03 -1.37888E+03  2.49701E+03
 -2.53398E+03  4.08927E+03 -7.25260E+03  3.34074E+03 -1.03113E+04  7.20305E+02 -1.07498E+04 -7.67074E+03
 -6.48168E+03 -1.43899E+04  2.40997E+03 -1.61637E+04  1.00879E+04 -1.22637E+04  1.54245E+04 -4.80062E+03
  1.31812E+04  2.78993E+03  8.50106E+03  9.19578E+03  9.32250E+02  1.08071E+04 -4.89380E+03  7.88226E+03
 -6.27519E+03  2.80671E+03 -4.15292E+03 -1.02245E+03 -4.61685E+02 -9.21002E+02 -3.54794E+02 -9.60148E+01
 -1.75482E+03 -1.10297E+02 -2.86221E+03 -5.79388E+02 -1.34385E+03 -2.58892E+03  6.36114E+01 -4.96617E+03
  4.45314E+03 -3.41987E+03  6.11028E+03  2.18219E+02  7.45465E+03  6.15509E+03  1.89418E+03  1.07382E+04
 -5.55619E+03  1.21816E+04 -1.28235E+04  7.08615E+03 -1.35855E+04 -1.67977E+03 -1.03689E+04 -8.68267E+03
 -4.30576E+03 -1.07880E+04  2.74893E+03 -1.07667E+04  7.27972E+03 -5.10649E+03  7.15097E+03  1.29242E+02
  3.49975E+03  3.82155E+03  4.20559E+02  2.87678E+03 -2.01952E+03 -4.48919E+02  3.13273E+02 -2.30664E+03
  3.50336E+03 -1.74440E+03  4.10064E+03  1.58662E+03  2.33913E+03  3.98962E+03  3.08428E+02  5.94571E+03
 -4.67135E+03  5.10110E+03 -7.71654E+03  1.71144E+02 -6.44753E+03 -5.52975E+03 -7.69382E+02 -8.79024E+03
  5.11919E+03 -8.17724E+03  8.26332E+03 -2.90905E+03  7.51550E+03  2.16516E+03  4.21696E+03  6.91752E+03
  1.30244E+03  7.09942E+03 -2.49351E+03  6.24075E+03 -4.88804E+03  3.71771E+03 -4.95930E+03  1.88066E+01
 -1.80728E+03  4.57086E+02 -2.09504E+03  7.49490E+02 -3.99136E+03  1.17178E+03 -6.09802E+03 -9.35193E+02
 -4.49902E+03 -4.45043E+03 -1.33091E+03 -7.42798E+03  3.17878E+03 -7.09095E+03  6.43533E+03 -3.83577E+03
  6.76662E+03  1.23708E+03  4.16806E+03  5.38282E+03 -3.37796E+02  7.17323E+03 -5.58275E+03  4.87086E+03
