 $NMID ID='MM_0lb_SNR400_11hz_g60_81.RAW', FMTDAT='(8E13.5)'
 TRAMP=1., VOLUME=1. $END
  3.09745E+05 -8.91881E+02  3.37948E+05  2.50618E+05  8.46861E+04  3.38619E+05 -1.32774E+05  2.51745E+05
 -1.90969E+05  8.31944E+04 -1.12692E+05 -3.20761E+04  7.14167E+02 -5.04565E+04  5.35443E+04 -5.29647E+02
  3.56753E+04  5.20502E+04 -1.61277E+04  7.59894E+04 -6.14471E+04  6.37860E+04 -8.53038E+04  3.16632E+04
 -8.25968E+04 -1.20337E+04 -5.85696E+04 -5.22759E+04 -1.49752E+04 -7.00998E+04  2.85857E+04 -4.71120E+04
  4.03750E+04  3.25389E+03  1.61558E+04  4.87246E+04 -3.56042E+04  4.75843E+04 -6.83906E+04  5.18404E+02
 -5.40692E+04 -5.72501E+04 -7.52296E+03 -7.93830E+04  3.39715E+04 -5.72342E+04  5.04368E+04 -1.75721E+04
  4.54099E+04  1.16135E+04  3.28399E+04  2.60647E+04  1.51155E+04  3.07845E+04 -5.79944E+03  2.74164E+04
 -2.30650E+04  1.23740E+04 -1.74904E+04 -6.09960E+03  7.09768E+03 -8.25552E+03  2.36220E+04  1.43876E+04
  6.93101E+03  3.72326E+04 -3.36053E+04  3.77718E+04 -6.55480E+04  2.60049E+03 -5.81609E+04 -4.42675E+04
 -1.26978E+04 -6.52687E+04  4.10989E+04 -4.68811E+04  6.07006E+04 -2.47681E+03  3.65347E+04  3.38820E+04
 -5.66002E+03  3.85570E+04 -3.14828E+04  1.83253E+04 -3.29638E+04 -3.72006E+03 -1.88474E+04 -1.22463E+04
 -9.41669E+03 -1.46031E+04 -3.01437E+02 -1.91810E+04  8.27755E+03 -2.32977E+04  1.56347E+04 -1.17816E+04
  1.04503E+04  6.19954E+03 -1.00878E+04  1.30139E+04 -2.22715E+04 -6.64434E+03 -8.29488E+03 -3.78180E+04
  2.50674E+04 -4.62877E+04  5.17400E+04 -2.12260E+04  4.81500E+04  2.10878E+04  1.66944E+04  4.73387E+04
 -1.71013E+04  3.47924E+04 -2.72357E+04  3.03031E+03 -1.14085E+04 -2.86180E+04  2.11481E+04 -3.70149E+04
  4.36618E+04 -1.12613E+04  3.94817E+04  2.47964E+04  2.02579E+04  5.11350E+04 -8.28742E+03  5.61204E+04
 -3.48932E+04  3.78875E+04 -4.64389E+04  1.03806E+04 -4.70193E+04 -1.82963E+04 -2.56401E+04 -4.13015E+04
  8.07075E+03 -4.14212E+04  3.38428E+04 -1.62942E+04  3.22425E+04  1.11268E+04  5.02166E+03  2.06030E+04
 -1.40725E+04  1.04921E+04 -1.13637E+04 -7.48517E+03  5.67765E+03 -1.10980E+04  1.90233E+04  5.35912E+03
  1.43188E+04  2.21436E+04 -5.79974E+03  2.69763E+04 -2.35053E+04  1.34735E+04 -3.02239E+04 -2.17177E+03
 -2.51027E+04 -1.78198E+04 -1.13991E+04 -2.52419E+04  4.06860E+03 -2.46502E+04  1.92039E+04 -2.22762E+04
  3.16218E+04 -1.38606E+04  3.74356E+04  4.60515E+03  2.62067E+04  2.41984E+04  4.25217E+03  4.02225E+04
 -1.94583E+04  3.42187E+04 -2.99650E+04  1.15535E+04 -2.23839E+04 -9.71789E+03 -5.82131E+03 -1.26289E+04
  1.11115E+03 -1.40375E+03 -6.88071E+03  7.48017E+03 -1.96090E+04  5.39547E+03 -1.84228E+04 -8.88188E+03
 -1.18471E+04 -2.21491E+04  5.34714E+03 -2.70823E+04  1.83256E+04 -1.90293E+04  2.20103E+04 -1.67242E+03
  1.40789E+04  1.61413E+04 -1.31216E+03  2.27833E+04 -1.61173E+04  1.32749E+04 -2.20859E+04 -4.09545E+03
 -1.66590E+04 -2.01494E+04 -1.63584E+03 -2.73463E+04  1.20162E+04 -2.25606E+04  2.16189E+04 -1.15167E+04
  2.10730E+04 -6.01754E+02  1.46095E+04  5.22813E+03  7.91127E+03  7.79105E+02  1.17080E+04 -1.85903E+03
  2.07877E+04  3.08545E+03  2.47082E+04  1.74379E+04  1.60116E+04  3.65061E+04 -2.59030E+03  4.21050E+04
 -2.44923E+04  3.54393E+04 -3.97094E+04  1.83814E+04 -4.25112E+04 -2.80589E+03 -3.46084E+04 -2.48418E+04
 -1.39350E+04 -3.53744E+04  1.25304E+04 -3.14331E+04  2.68163E+04 -1.48274E+04  2.25433E+04  7.14060E+03
  7.72771E+03  1.75867E+04 -1.07845E+04  1.53828E+04 -1.87851E+04  2.52784E+03 -1.45264E+04 -1.26311E+04
  4.38343E+02 -1.88555E+04  9.94777E+03 -1.31801E+04  1.28147E+04 -1.62823E+03  3.93844E+03  8.85713E+03
 -8.28842E+03  4.06255E+03 -8.49201E+03 -6.35222E+03 -1.63660E+03 -1.71588E+04  1.09583E+04 -1.87753E+04
  2.15386E+04 -1.03725E+04  2.46938E+04  3.61497E+03  2.14354E+04  1.80433E+04  1.00999E+04  2.72212E+04
 -4.70112E+03  2.94986E+04 -1.89071E+04  1.77359E+04 -2.16446E+04  3.19977E+03 -1.42188E+04 -5.74493E+03
 -5.41995E+03 -6.08475E+03 -2.88722E+00  4.74004E+02 -2.72101E+03  2.84810E+03 -7.28335E+03  5.32122E+03
 -1.31998E+04 -1.12074E+03 -1.45406E+04 -1.11964E+04 -5.48170E+03 -1.84748E+04  6.45974E+03 -1.44570E+04
  1.19724E+04 -6.06123E+03  8.36013E+03  3.81147E+03 -7.80436E+02  5.48880E+03 -7.34019E+03  2.84514E+02
 -6.60868E+03 -9.24640E+03 -1.18157E+03 -1.47905E+04  8.38086E+03 -1.49889E+04  1.85293E+04 -8.26920E+03
  2.15599E+04  1.93307E+03  1.59557E+04  1.24376E+04  2.85360E+03  1.76942E+04 -8.73035E+03  1.40168E+04
 -1.17058E+04  4.23246E+03 -5.80372E+03 -3.73831E+03  2.26307E+03 -4.12609E+03  7.57734E+03 -1.02760E+03
  6.88674E+03  6.27877E+03  2.08908E+03  1.16011E+04 -9.19283E+03  1.16823E+04 -1.40237E+04  2.44388E+03
 -1.05928E+04 -7.18069E+03  2.57687E+02 -1.21611E+04  8.03165E+03 -6.59678E+03  8.58592E+03  2.97889E+03
  1.74862E+03  9.54724E+03 -7.27081E+03  1.04007E+04 -1.26852E+04  4.49530E+03 -1.24969E+04 -4.09056E+03
 -6.98468E+03 -1.42941E+04  3.71391E+03 -1.61973E+04  1.43254E+04 -1.02633E+04  1.42998E+04  3.00444E+03
  8.90066E+03  1.18531E+04 -1.06624E+03  1.38504E+04 -1.07916E+04  8.59758E+03 -1.12836E+04 -1.51382E+03
 -1.00321E+04 -9.60426E+03 -1.87130E+03 -1.12258E+04  5.92782E+03 -9.23611E+03  6.95274E+03 -2.57496E+03
  4.30374E+03  1.31990E+03 -5.97866E+02  1.46468E+03 -3.11948E+02 -2.48829E+03  2.65315E+03 -6.70954E+03
  9.87713E+03 -3.90012E+03  1.42495E+04  1.53499E+03  1.40649E+04  9.26190E+03  1.00038E+04  1.95809E+04
 -3.99722E+03  2.12200E+04 -1.78607E+04  1.60475E+04 -2.32676E+04  2.55556E+03 -1.90177E+04 -8.19246E+03
 -9.14094E+03 -1.50601E+04 -3.21923E+02 -1.29978E+04  5.11900E+03 -5.89687E+03  3.87856E+03 -4.77660E+03
  3.84710E+03 -3.04235E+03  3.89655E+03 -3.92683E+03  5.06737E+03 -3.01199E+03  7.79046E+03 -1.10263E+03
  1.01143E+04  2.37029E+03  5.02826E+03  8.68258E+03 -2.48435E+03  9.80535E+03 -1.02775E+04  7.17098E+03
 -1.25291E+04  2.61960E+02 -8.35801E+03 -8.39235E+03 -1.18908E+03 -1.39132E+04  7.86202E+03 -1.33863E+04
  1.42582E+04 -7.71048E+03  1.73582E+04  2.53675E+03  1.15759E+04  1.23267E+04  1.84271E+03  1.59490E+04
 -7.23953E+03  1.24686E+04 -8.67112E+03  4.03250E+03 -5.92601E+03 -1.58306E+03 -2.33134E+03 -1.54198E+03
 -9.85598E+02 -3.28601E+02 -1.91929E+03  3.12003E+03 -6.05862E+03  2.08280E+03 -9.53469E+03 -8.55020E+02
 -5.52011E+03 -8.53366E+03 -2.77175E+02 -1.27807E+04  7.20681E+03 -1.09251E+04  1.19320E+04 -3.79784E+03
  1.23669E+04  6.08373E+03  5.84446E+03  1.08326E+04 -2.82112E+03  1.26691E+04 -9.40096E+03  7.80362E+03
 -1.14415E+04  4.19016E+02 -9.04168E+03 -7.52040E+03 -1.06604E+03 -1.00628E+04  4.93572E+03 -7.96703E+03
  7.44567E+03 -2.51028E+03  5.40134E+03  1.99231E+03  2.27863E+03  4.37076E+03  1.30764E+03  1.95071E+03
  2.60808E+03  9.04745E+02  3.97936E+03  2.10498E+03  4.05443E+03  4.52810E+03  3.25103E+03  6.32526E+03
 -2.34163E+03  1.04682E+04 -8.64074E+03  9.57508E+03 -1.23191E+04  2.32743E+03 -1.25837E+04 -5.79527E+03
 -6.03052E+03 -1.23432E+04  2.26800E+03 -1.39550E+04  8.20662E+03 -8.36980E+03  1.05838E+04 -1.83032E+03
  7.92943E+03  5.03763E+03  2.28937E+03  7.56535E+03 -3.70766E+03  4.34618E+03 -5.13389E+03 -8.20708E+02
 -2.20307E+03 -5.04905E+03  2.97209E+03 -5.81718E+03  4.76090E+03 -2.96290E+03  5.21644E+03  6.63792E+02
  2.03387E+03  2.40375E+03  7.52755E+02  2.03094E+03 -1.14718E+03  1.69589E+03  1.49351E+03 -3.24915E+02
  1.98046E+03 -6.54806E+02  4.93007E+03  1.98777E+03  2.77667E+03  5.95415E+03 -1.37035E+03  9.27589E+03
 -6.27412E+03  5.85777E+03 -7.46890E+03  1.68864E+03 -6.55710E+03 -1.95794E+03 -2.89343E+03 -5.26304E+03
  1.16374E+03 -4.57082E+03  2.77466E+03 -1.99519E+03  2.48916E+03  2.86417E+03 -1.29702E+03  3.55297E+03
 -5.00457E+03  3.08461E+03 -6.05360E+03 -2.85957E+03 -3.68357E+03 -7.03103E+03  4.51210E+02 -7.15755E+03
  3.67418E+03 -4.31811E+03  5.29130E+03 -5.34914E+01  4.56930E+03  1.37882E+03  7.84571E+02  3.02780E+03
 -2.48151E+03  1.08085E+03 -3.17625E+03 -1.29725E+03  1.65994E+03 -5.19728E+03  6.94231E+03 -3.88971E+03
  7.16826E+03  4.14497E+02  7.28506E+03  4.86804E+03  2.60453E+03  8.43673E+03 -2.09969E+03  7.10374E+03
 -6.62455E+03  3.32310E+03 -6.72760E+03 -8.16807E+02 -3.46134E+03 -4.93998E+03  1.35894E+03 -4.66882E+03
  4.51323E+03 -2.02452E+03  4.41580E+03  1.58735E+03  1.33065E+03  4.55736E+03 -1.02677E+03  4.00747E+03
 -2.45198E+03  2.14939E+03 -2.27826E+03  6.24101E+02 -9.04376E+02  8.69919E+02 -1.59796E+03  1.60680E+03
 -2.05692E+03  3.66125E+03 -5.58508E+03  2.82054E+03 -8.06114E+03  8.99881E+01 -8.63463E+03 -5.38888E+03
 -4.42495E+03 -1.02928E+04  1.50805E+03 -1.20686E+04  7.24957E+03 -9.07145E+03  1.09304E+04 -3.69406E+03
  1.06338E+04  1.33823E+03  6.30861E+03  6.54526E+03 -7.07967E+01  6.84671E+03 -3.57045E+03  5.60934E+03
 -3.59037E+03  1.94922E+03 -2.39055E+03 -1.29164E+03 -1.55107E+03 -5.24918E+02 -9.40019E+02 -7.90537E+02
 -2.11170E+03 -1.57303E+02 -1.48920E+03 -2.91501E+01 -7.90522E+02 -1.10440E+03 -1.54199E+02 -2.96488E+03
  3.51682E+03 -2.39170E+03  4.72341E+03 -3.27078E+02  5.68031E+03  3.44574E+03  1.19283E+03  8.01232E+03
 -3.85836E+03  8.48426E+03 -8.69420E+03  5.01852E+03 -1.01235E+04 -7.31049E+02 -7.14945E+03 -5.78247E+03
 -3.14236E+03 -8.12842E+03  7.65869E+02 -6.99123E+03  4.65405E+03 -3.35438E+03  5.04511E+03 -4.66408E+02
  2.65986E+03  3.27183E+03 -4.50165E+02  2.47582E+03 -1.55564E+03 -8.68729E+01  5.52556E+01 -1.87826E+03
  1.89480E+03 -1.51843E+03  2.74420E+03  1.19546E+03  2.46442E+03  2.77585E+03  7.26452E+01  4.40580E+03
 -2.71092E+03  3.15318E+03 -4.81939E+03  6.41460E+02 -4.47797E+03 -3.55620E+03 -6.84738E+02 -6.77679E+03
  4.47215E+03 -4.62324E+03  6.37337E+03 -1.66142E+03  5.53697E+03  1.07489E+03  2.97705E+03  4.53714E+03
  4.92544E+02  4.32550E+03 -1.91984E+03  4.25821E+03 -2.91299E+03  2.49637E+03 -2.31894E+03  1.22069E+03
 -1.42841E+03  1.58422E+01 -1.90283E+03  2.97461E+02 -2.64805E+03  1.02890E+03 -3.19559E+03 -3.06450E+02
 -4.47486E+03 -2.71790E+03 -1.86417E+03 -4.69254E+03  2.04361E+03 -4.30726E+03  4.15126E+03 -2.75500E+03
  4.62144E+03  4.59306E+02  2.59351E+03  3.45971E+03 -3.33364E+02  4.58011E+03 -3.10155E+03  3.27122E+03
