 $NMID ID='MM_0lb_SNR400_16hz_g60_43.RAW', FMTDAT='(8E13.5)'
 TRAMP=1., VOLUME=1. $END
  3.10404E+05  1.21116E+02  3.37357E+05  2.50624E+05  8.42881E+04  3.38547E+05 -1.32655E+05  2.51340E+05
 -1.90199E+05  8.29306E+04 -1.11965E+05 -3.24640E+04  8.97706E+02 -5.09190E+04  5.39221E+04  2.81800E+01
  3.50504E+04  5.33760E+04 -1.67989E+04  7.57613E+04 -6.04263E+04  6.38068E+04 -8.43241E+04  3.22209E+04
 -8.14114E+04 -1.17350E+04 -5.71371E+04 -5.12968E+04 -1.48150E+04 -6.96830E+04  2.76085E+04 -4.55818E+04
  4.02329E+04  3.42709E+03  1.64123E+04  4.79688E+04 -3.41432E+04  4.70427E+04 -6.72270E+04 -5.13195E+02
 -5.29286E+04 -5.71065E+04 -6.52338E+03 -7.64861E+04  3.37930E+04 -5.49899E+04  4.82053E+04 -1.67149E+04
  4.31729E+04  1.10916E+04  3.18977E+04  2.55242E+04  1.58397E+04  2.88426E+04 -5.36499E+03  2.72639E+04
 -2.19279E+04  1.26743E+04 -1.86420E+04 -5.05563E+03  5.53166E+03 -7.67415E+03  2.28274E+04  1.26327E+04
  7.68182E+03  3.44167E+04 -3.22403E+04  3.65849E+04 -6.38152E+04  2.11910E+03 -5.68630E+04 -4.38568E+04
 -1.24036E+04 -6.36220E+04  4.00811E+04 -4.54937E+04  5.82182E+04 -2.54976E+03  3.44336E+04  3.30274E+04
 -6.24564E+03  3.59467E+04 -3.00829E+04  1.60597E+04 -3.04573E+04 -4.31917E+03 -1.65109E+04 -1.08727E+04
 -8.62895E+03 -1.36287E+04 -7.07677E+02 -1.82660E+04  7.86044E+03 -2.30517E+04  1.45766E+04 -1.31843E+04
  1.13154E+04  5.45362E+03 -8.71134E+03  1.32299E+04 -2.17144E+04 -4.93446E+03 -8.19079E+03 -3.30906E+04
  2.28247E+04 -4.36792E+04  4.85535E+04 -1.93855E+04  4.56705E+04  1.95221E+04  1.58714E+04  4.41008E+04
 -1.61932E+04  3.40029E+04 -2.51735E+04  2.05000E+03 -9.50826E+03 -2.76505E+04  2.10274E+04 -3.40023E+04
  4.09075E+04 -9.07612E+03  3.57453E+04  2.43268E+04  1.77620E+04  4.63752E+04 -8.09713E+03  5.03414E+04
 -3.20749E+04  3.38979E+04 -4.17043E+04  9.54743E+03 -4.26159E+04 -1.64420E+04 -2.36650E+04 -3.81522E+04
  7.02783E+03 -3.76975E+04  3.13050E+04 -1.51628E+04  2.93459E+04  1.10177E+04  3.75098E+03  1.88553E+04
 -1.37870E+04  8.12836E+03 -1.07683E+04 -7.79876E+03  5.29062E+03 -1.09308E+04  1.80912E+04  6.16521E+03
  1.37202E+04  2.20192E+04 -5.27587E+03  2.48931E+04 -2.28743E+04  1.10067E+04 -2.79497E+04 -4.81029E+03
 -2.11640E+04 -1.70822E+04 -8.00366E+03 -2.05694E+04  4.73935E+03 -1.93237E+04  1.61724E+04 -1.85151E+04
  2.60901E+04 -1.28052E+04  3.24669E+04  2.42008E+03  2.39894E+04  2.02958E+04  4.69162E+03  3.53177E+04
 -1.74973E+04  3.04519E+04 -2.79289E+04  1.04219E+04 -2.07762E+04 -9.63365E+03 -4.38225E+03 -1.37854E+04
  1.60633E+03 -3.06001E+03 -4.89131E+03  6.06372E+03 -1.65434E+04  5.49500E+03 -1.65133E+04 -6.84867E+03
 -9.94624E+03 -1.84245E+04  5.98493E+03 -2.27604E+04  1.45123E+04 -1.64392E+04  1.82240E+04 -2.07659E+03
  1.09528E+04  1.30880E+04 -9.66700E+02  1.92090E+04 -1.19866E+04  1.12005E+04 -1.88325E+04 -4.39359E+03
 -1.36802E+04 -1.69811E+04 -1.56947E+03 -2.21907E+04  1.11522E+04 -1.81934E+04  1.87465E+04 -9.69060E+03
  1.73425E+04 -4.67110E+02  1.29712E+04  4.58716E+03  7.10001E+03  1.20736E+03  9.29529E+03 -8.64243E+02
  1.72233E+04  2.68754E+03  1.87459E+04  1.48659E+04  1.19303E+04  3.02260E+04 -2.82603E+03  3.26795E+04
 -1.96796E+04  2.66067E+04 -3.16931E+04  1.30404E+04 -3.19510E+04 -2.11918E+03 -2.61223E+04 -1.89184E+04
 -1.19119E+04 -2.68416E+04  9.37246E+03 -2.38120E+04  2.06981E+04 -1.24306E+04  1.94216E+04  5.39029E+03
  7.31915E+03  1.39789E+04 -8.76047E+03  1.23881E+04 -1.51407E+04  2.32924E+03 -1.16965E+04 -9.88881E+03
 -4.26816E+02 -1.49272E+04  7.87790E+03 -1.11757E+04  9.62183E+03 -1.28475E+03  2.32106E+03  5.75297E+03
 -6.95946E+03  2.59325E+03 -5.15301E+03 -5.95778E+03 -1.90565E+01 -1.31434E+04  9.77665E+03 -1.32653E+04
  1.58756E+04 -6.58393E+03  1.64542E+04  2.88137E+03  1.48675E+04  1.25142E+04  7.13030E+03  1.95341E+04
 -3.11733E+03  2.12601E+04 -1.30558E+04  1.30725E+04 -1.48182E+04  4.01462E+03 -1.04394E+04 -3.16325E+03
 -5.24807E+03 -4.55471E+03 -1.14955E+03  9.34987E+02 -1.90071E+03  2.06845E+03 -4.81805E+03  3.72186E+03
 -1.00554E+04 -6.71189E+02 -1.08906E+04 -8.47843E+03 -4.50559E+03 -1.40211E+04  4.01584E+03 -1.10076E+04
  8.67954E+03 -4.65335E+03  6.57513E+03  3.40159E+03  4.18649E+02  3.68893E+03 -5.06189E+03  9.11859E+01
 -4.72285E+03 -6.69794E+03 -1.08360E+03 -9.97674E+03  5.46965E+03 -1.04772E+04  1.33424E+04 -5.51884E+03
  1.54587E+04  1.28388E+03  1.14795E+04  8.74166E+03  2.99016E+03  1.22342E+04 -7.18391E+03  9.97643E+03
 -9.33825E+03  2.95874E+03 -4.59224E+03 -1.69337E+03  1.86460E+03 -2.50027E+03  5.61111E+03 -1.17993E+03
  4.80712E+03  4.39242E+03  8.30163E+02  8.25300E+03 -5.45154E+03  8.20581E+03 -1.01787E+04  1.95155E+03
 -7.06732E+03 -5.45631E+03 -1.36405E+02 -8.72521E+03  4.89366E+03 -4.54147E+03  5.49700E+03  1.55629E+03
  7.48149E+02  5.61175E+03 -4.73506E+03  6.26406E+03 -6.78449E+03  3.57422E+03 -6.92340E+03 -2.43963E+03
 -4.76910E+03 -8.48726E+03  2.24557E+03 -1.01912E+04  8.67606E+03 -5.63959E+03  9.73249E+03  1.98502E+03
  6.51381E+03  7.42734E+03 -3.69550E+02  9.58559E+03 -6.88610E+03  5.27179E+03 -7.03734E+03 -5.78298E+02
 -7.32681E+03 -6.83840E+03 -1.21790E+03 -7.02211E+03  3.69687E+03 -6.10931E+03  4.08514E+03 -3.59980E+03
  3.02675E+03  7.88277E+02  1.74464E+02  1.05622E+03  1.04930E+02 -1.36669E+03  4.77974E+02 -3.22381E+03
  5.61637E+03 -1.88986E+03  8.63325E+03  8.81585E+02  8.18420E+03  5.44623E+03  6.39991E+03  1.15212E+04
 -2.57267E+03  1.24645E+04 -1.05433E+04  9.65957E+03 -1.33928E+04  1.44444E+03 -1.10025E+04 -4.20730E+03
 -5.69372E+03 -8.96361E+03  7.18025E+00 -7.93091E+03  2.43322E+03 -3.50302E+03  1.74431E+03 -2.85742E+03
  2.05713E+03 -2.01895E+03  2.36190E+03 -2.70591E+03  4.14650E+03 -2.23546E+03  4.05901E+03 -4.20858E+02
  5.76749E+03  1.75521E+03  2.40759E+03  4.66303E+03 -2.12481E+03  5.33575E+03 -6.24739E+03  4.15983E+03
 -7.10559E+03 -9.07416E+02 -3.35794E+03 -4.41199E+03  2.51522E+02 -7.03576E+03  4.53120E+03 -7.99945E+03
  7.75539E+03 -4.56354E+03  9.64170E+03  6.18756E+02  6.90484E+03  6.33126E+03  1.42817E+03  8.16094E+03
 -3.75433E+03  7.39216E+03 -4.76680E+03  2.45514E+03 -3.60597E+03 -1.22747E+03 -1.38274E+03 -1.03221E+03
 -9.01972E+02  2.05608E+02 -9.11166E+02  2.14075E+03 -3.67060E+03  1.14309E+03 -5.48779E+03 -2.11290E+02
 -2.78007E+03 -5.13709E+03  6.54308E+02 -7.10500E+03  4.11983E+03 -6.44139E+03  5.58298E+03 -1.72652E+03
  6.89974E+03  2.93030E+03  2.62117E+03  5.77926E+03 -1.08672E+03  6.88515E+03 -4.29755E+03  3.90782E+03
 -5.81083E+03  4.66353E+02 -4.70237E+03 -3.81605E+03  2.20666E+01 -4.86470E+03  2.69227E+03 -3.83066E+03
  3.31170E+03 -1.55728E+03  2.23776E+03  1.01852E+03  6.36492E+02  1.81131E+03  9.34885E+02  7.86804E+02
  1.85958E+03 -5.74414E+01  1.10031E+03  1.11607E+03  1.97763E+03  2.38701E+03  2.13280E+03  3.28385E+03
 -1.66397E+03  5.55995E+03 -4.36202E+03  6.16557E+03 -5.64698E+03  1.49080E+03 -6.89671E+03 -1.99696E+03
 -3.38076E+03 -5.82057E+03  1.18706E+03 -6.98998E+03  4.03017E+03 -3.65230E+03  4.79113E+03 -1.01205E+03
  3.64314E+03  2.63876E+03  1.11036E+03  3.62149E+03 -1.86077E+03  2.29112E+03 -1.06832E+03 -7.51794E+02
 -9.74338E+02 -3.34466E+03  9.89027E+02 -1.94294E+03  2.08786E+03 -1.97321E+03  1.95768E+03  9.58974E+02
  1.17819E+03  1.07765E+02  9.68021E+02 -2.29495E+01  7.01778E+01  1.20235E+03  1.62994E+03 -3.65784E+02
  7.25623E+02 -4.68804E+02  2.70776E+03  9.49220E+02  8.15245E+02  3.73191E+03 -3.84213E+02  3.81222E+03
 -2.60738E+03  2.14478E+03 -3.46154E+03  6.05640E+02 -4.03475E+03 -1.51814E+03 -6.54777E+02 -2.00588E+03
  4.44710E+02 -2.32049E+03  1.31720E+03 -1.22886E+03  1.49261E+03  1.23702E+03 -4.43429E+02  1.88701E+03
 -1.41790E+03  9.60271E+02 -2.68062E+03 -1.55855E+03 -1.19123E+03 -2.81358E+03  2.40046E+01 -2.40614E+03
  1.22466E+03 -8.87311E+02  1.32422E+03 -3.64944E+02  1.77109E+03 -7.00958E+01  2.95565E+02  1.19344E+03
 -9.24981E+02  1.36997E+02 -1.11163E+03 -5.11121E+02  5.58288E+02 -1.75005E+03  2.16685E+03 -1.83954E+03
  1.97459E+03 -6.19243E+01  3.98026E+03  1.45316E+03  1.23809E+03  2.98694E+03 -8.39731E+02  3.01346E+03
 -2.38639E+03  6.32392E+02 -2.42218E+03 -4.11058E+02 -1.59161E+03 -2.15039E+03  5.68408E+02 -1.02336E+03
  2.57908E+03 -9.78019E+02  1.19203E+03  1.15699E+03  3.50971E+02  1.76511E+03  1.96563E+02  1.89866E+03
 -4.55982E+02  1.68176E+03 -7.32240E+02  5.90560E+02 -4.40345E+02  4.64581E+02 -1.35510E+03  7.57537E+02
 -4.67137E+02  2.30859E+03 -2.04486E+03  5.98559E+02 -3.20445E+03  1.70323E+01 -3.84220E+03 -2.02890E+03
 -1.20775E+03 -4.17062E+03  1.00566E+02 -4.74357E+03  2.42163E+03 -3.60052E+03  4.43578E+03 -1.59891E+03
  3.65154E+03  1.96029E+02  1.81857E+03  2.84528E+03 -2.75029E+02  2.36795E+03 -1.34130E+03  1.95646E+03
 -1.60043E+03  9.45021E+02 -1.06331E+03 -2.48131E+02 -2.71585E+02  3.92479E+02 -5.58452E+02  1.36093E+02
 -1.17476E+03 -9.54485E+01 -8.98012E+02  3.17736E+02 -2.32453E+02 -1.10262E+03 -7.17816E+01 -7.80300E+02
  2.27744E+03 -4.82717E+02  1.03908E+03 -1.72613E+01  1.84878E+03  1.02536E+03  4.64135E+01  2.79032E+03
 -1.22960E+03  3.46511E+03 -2.77671E+03  2.10023E+03 -2.79657E+03 -4.42845E+02 -2.12183E+03 -2.09610E+03
 -1.54586E+03 -2.41525E+03  7.50400E+02 -2.31940E+03  9.34183E+02 -1.22288E+03  1.04338E+03  2.31453E+02
  1.28172E+03  6.93907E+02 -1.09759E+02  5.32558E+02 -6.86667E+02 -3.30386E+02 -2.35529E+02 -1.55077E+02
  4.93091E+02 -9.92706E+01  4.84735E+02  2.14906E+02  3.95330E+02  1.32975E+03  4.30961E+02  9.53639E+02
 -1.11576E+03  1.21350E+03 -1.55491E+03  3.87742E+00 -1.60937E+03 -1.11063E+03  1.89899E+02 -1.63622E+03
  9.47285E+02 -1.93236E+03  1.94011E+03 -8.00402E+02  1.60931E+03 -5.81462E+01  1.00039E+03  1.96676E+03
  7.72441E+02  1.19579E+03 -8.91665E+02  1.00310E+03 -6.55801E+02  8.14366E+02 -7.17126E+02 -1.30224E+01
 -5.08527E+02 -4.00168E+02 -2.61893E+01 -4.64272E+01 -1.06376E+03 -6.98282E+01 -1.46256E+03 -3.76641E+02
 -1.62186E+03  3.59772E+02 -3.93066E+02 -1.83556E+03  8.94969E+02 -1.70623E+03  8.03854E+02 -6.92827E+02
  1.63431E+03 -1.28618E+02 -6.68254E+01  1.36778E+02 -1.22000E+02  1.48812E+03 -5.86023E+02  7.97524E+02
