 $NMID ID='MM_0lb_SNR400_12hz_g50_45.RAW', FMTDAT='(8E13.5)'
 TRAMP=1., VOLUME=1. $END
  3.09428E+05  5.93546E+02  3.37257E+05  2.50442E+05  8.48964E+04  3.37759E+05 -1.33183E+05  2.52089E+05
 -1.90301E+05  8.38541E+04 -1.11723E+05 -3.24951E+04  1.01185E+03 -5.05493E+04  5.36972E+04 -7.97725E+02
  3.53372E+04  5.25052E+04 -1.70935E+04  7.55820E+04 -6.09787E+04  6.43269E+04 -8.50872E+04  3.24044E+04
 -8.17408E+04 -1.12363E+04 -5.81010E+04 -5.22012E+04 -1.44331E+04 -7.04140E+04  2.83965E+04 -4.59778E+04
  4.01659E+04  3.49524E+03  1.56867E+04  4.83898E+04 -3.42927E+04  4.77881E+04 -6.72672E+04 -5.14846E+02
 -5.36701E+04 -5.71438E+04 -7.03669E+03 -7.79979E+04  3.42012E+04 -5.56255E+04  4.84232E+04 -1.71873E+04
  4.42824E+04  1.09555E+04  3.19182E+04  2.59271E+04  1.58769E+04  2.99535E+04 -4.85723E+03  2.80793E+04
 -2.15485E+04  1.20298E+04 -1.82939E+04 -4.93144E+03  6.79873E+03 -7.18812E+03  2.24705E+04  1.29300E+04
  7.02782E+03  3.60590E+04 -3.23519E+04  3.61250E+04 -6.48423E+04  2.41557E+03 -5.83338E+04 -4.38589E+04
 -1.30963E+04 -6.40367E+04  4.06580E+04 -4.63000E+04  5.90040E+04 -1.71461E+03  3.49832E+04  3.27362E+04
 -5.95678E+03  3.74425E+04 -3.09220E+04  1.76397E+04 -3.17049E+04 -4.67698E+03 -1.81233E+04 -1.13123E+04
 -8.93238E+03 -1.34862E+04  4.01268E+01 -1.90359E+04  7.89778E+03 -2.28992E+04  1.45927E+04 -1.29968E+04
  1.11931E+04  5.82916E+03 -9.25580E+03  1.31820E+04 -2.22202E+04 -5.99394E+03 -8.22394E+03 -3.50948E+04
  2.39412E+04 -4.45679E+04  5.00681E+04 -1.98228E+04  4.67348E+04  1.97280E+04  1.64546E+04  4.55536E+04
 -1.60509E+04  3.50621E+04 -2.58873E+04  2.17236E+03 -1.14071E+04 -2.89045E+04  2.13199E+04 -3.49588E+04
  4.28174E+04 -9.86755E+03  3.79819E+04  2.41582E+04  1.93490E+04  4.84879E+04 -7.61405E+03  5.23058E+04
 -3.35201E+04  3.57160E+04 -4.39872E+04  1.05201E+04 -4.48397E+04 -1.76228E+04 -2.43665E+04 -3.94763E+04
  8.14768E+03 -3.92200E+04  3.30240E+04 -1.50412E+04  2.97276E+04  1.06199E+04  4.21017E+03  1.94594E+04
 -1.38460E+04  9.30886E+03 -1.08235E+04 -7.75735E+03  5.96593E+03 -1.11799E+04  1.82976E+04  5.73070E+03
  1.36326E+04  2.24253E+04 -5.15335E+03  2.62243E+04 -2.25516E+04  1.27839E+04 -2.91946E+04 -3.94862E+03
 -2.23072E+04 -1.75529E+04 -9.45473E+03 -2.19940E+04  4.07258E+03 -2.19710E+04  1.73297E+04 -2.04805E+04
  2.90230E+04 -1.31759E+04  3.49420E+04  3.16325E+03  2.49867E+04  2.17086E+04  4.25723E+03  3.88949E+04
 -1.88633E+04  3.17280E+04 -2.86156E+04  1.10140E+04 -2.09053E+04 -1.01191E+04 -4.11909E+03 -1.32149E+04
  1.27436E+03 -2.59436E+03 -5.73268E+03  7.93520E+03 -1.77946E+04  4.72259E+03 -1.75967E+04 -7.45766E+03
 -1.01355E+04 -2.06615E+04  5.16782E+03 -2.49299E+04  1.55873E+04 -1.77178E+04  1.93688E+04 -1.57766E+03
  1.22711E+04  1.37898E+04 -1.29495E+03  2.09338E+04 -1.41998E+04  1.18631E+04 -2.11864E+04 -4.39684E+03
 -1.60163E+04 -1.86948E+04 -2.10050E+03 -2.48506E+04  1.14888E+04 -2.06713E+04  2.08519E+04 -1.01852E+04
  1.93080E+04  5.80509E+02  1.39712E+04  4.24980E+03  7.83563E+03  1.77275E+03  1.06182E+04 -1.94671E+03
  1.91405E+04  2.69424E+03  2.18771E+04  1.62242E+04  1.42498E+04  3.25419E+04 -2.58723E+03  3.77833E+04
 -2.20540E+04  3.14946E+04 -3.54949E+04  1.60384E+04 -3.72619E+04 -2.51617E+03 -3.04650E+04 -2.18184E+04
 -1.32952E+04 -3.11064E+04  1.08787E+04 -2.79731E+04  2.40969E+04 -1.46583E+04  2.21315E+04  6.85982E+03
  8.94274E+03  1.62057E+04 -1.06646E+04  1.33798E+04 -1.83549E+04  2.36951E+03 -1.37283E+04 -1.14959E+04
 -5.79092E+02 -1.68704E+04  8.87984E+03 -1.26184E+04  1.14393E+04 -1.21170E+03  2.77531E+03  7.44130E+03
 -7.22284E+03  2.57607E+03 -6.93131E+03 -6.27214E+03 -1.31442E+03 -1.56632E+04  9.68099E+03 -1.63077E+04
  1.89510E+04 -9.54734E+03  2.14324E+04  3.50662E+03  1.86646E+04  1.61718E+04  8.27124E+03  2.35296E+04
 -3.88281E+03  2.53655E+04 -1.63999E+04  1.62447E+04 -1.78207E+04  3.26822E+03 -1.30680E+04 -4.27142E+03
 -6.09896E+03 -5.75887E+03 -4.62226E+02  1.02269E+03 -3.21836E+03  2.99508E+03 -6.16096E+03  4.80424E+03
 -1.20022E+04 -1.51149E+03 -1.19943E+04 -1.04017E+04 -5.72233E+03 -1.63467E+04  5.68564E+03 -1.36651E+04
  1.05157E+04 -5.35590E+03  7.87202E+03  3.03734E+03 -5.00118E+01  4.72893E+03 -6.07574E+03  1.66627E+02
 -5.79958E+03 -8.38463E+03 -1.28580E+03 -1.25259E+04  7.12048E+03 -1.33435E+04  1.66128E+04 -7.32674E+03
  1.87430E+04  2.10553E+03  1.39304E+04  1.19507E+04  2.92678E+03  1.51260E+04 -8.57890E+03  1.25760E+04
 -1.01775E+04  3.95528E+03 -5.33090E+03 -2.20893E+03  1.84408E+03 -3.55636E+03  7.03433E+03 -1.02647E+03
  6.31001E+03  5.40591E+03  1.40994E+03  9.63076E+03 -7.67110E+03  9.27497E+03 -1.22541E+04  1.93416E+03
 -8.20353E+03 -6.68181E+03  3.57039E+02 -1.11655E+04  7.15838E+03 -6.01642E+03  6.88894E+03  2.82684E+03
  1.12678E+03  7.33722E+03 -6.94626E+03  9.18880E+03 -1.04769E+04  4.05123E+03 -1.06383E+04 -3.49340E+03
 -5.90817E+03 -1.16689E+04  2.82752E+03 -1.33688E+04  1.15773E+04 -8.69574E+03  1.26883E+04  2.51791E+03
  7.43264E+03  1.04287E+04 -1.21258E+03  1.19773E+04 -8.75056E+03  6.77271E+03 -9.91624E+03 -1.28308E+03
 -7.90217E+03 -7.85567E+03 -1.20844E+03 -9.38411E+03  4.97232E+03 -7.99716E+03  5.78130E+03 -3.48348E+03
  4.09758E+03  1.01943E+03 -6.92313E+02  1.44487E+03 -3.51629E+02 -2.54706E+03  1.86575E+03 -5.93491E+03
  8.34071E+03 -3.07845E+03  1.19167E+04  1.75835E+03  1.25012E+04  7.71045E+03  8.31740E+03  1.58056E+04
 -3.08170E+03  1.78817E+04 -1.55685E+04  1.27855E+04 -1.92425E+04  2.63502E+03 -1.54136E+04 -6.84923E+03
 -7.67907E+03 -1.27435E+04 -1.49376E+02 -1.13189E+04  4.22375E+03 -6.68285E+03  3.49541E+03 -4.48176E+03
  2.13402E+03 -2.53990E+03  2.41993E+03 -2.81487E+03  4.86921E+03 -2.97562E+03  6.05679E+03 -9.78160E+02
  8.76595E+03  2.05348E+03  4.21761E+03  6.97062E+03 -2.06307E+03  8.01829E+03 -8.64324E+03  5.55149E+03
 -1.01198E+04 -1.09808E+03 -5.71446E+03 -8.10436E+03 -6.45877E+02 -1.21861E+04  6.38528E+03 -1.15918E+04
  1.14280E+04 -7.07324E+03  1.40152E+04  1.40007E+03  1.00636E+04  1.01962E+04  1.86936E+03  1.26314E+04
 -5.10419E+03  1.11025E+04 -7.67915E+03  3.16856E+03 -4.84060E+03 -1.50124E+03 -2.14677E+03 -1.09757E+03
 -1.00805E+03 -2.64232E+02 -1.93986E+03  2.61635E+03 -4.81350E+03  1.12482E+03 -7.34593E+03 -8.22834E+02
 -4.63096E+03 -7.41320E+03  5.08033E+02 -9.76089E+03  6.98925E+03 -9.31745E+03  9.97540E+03 -3.27267E+03
  9.74010E+03  4.92476E+03  4.62664E+03  8.93638E+03 -1.85123E+03  9.54068E+03 -7.03287E+03  6.67702E+03
 -9.81111E+03  2.04168E+02 -7.25245E+03 -6.35815E+03 -4.83235E+02 -8.00481E+03  4.65201E+03 -6.44499E+03
  6.60270E+03 -2.49555E+03  3.77914E+03  1.42897E+03  2.08522E+03  4.03083E+03  1.01919E+03  1.86916E+03
  2.44291E+03  8.75562E+02  2.88078E+03  1.18341E+03  3.02711E+03  3.74283E+03  2.72058E+03  5.12305E+03
 -2.54589E+03  7.36036E+03 -6.76635E+03  7.93950E+03 -9.61183E+03  1.62565E+03 -1.05955E+04 -3.65878E+03
 -4.86813E+03 -9.67456E+03  1.34768E+03 -1.12643E+04  6.77150E+03 -6.68712E+03  8.17100E+03 -2.66472E+03
  6.57825E+03  3.79962E+03  1.71932E+03  5.88723E+03 -2.47336E+03  3.60031E+03 -4.20249E+03 -1.28843E+03
 -1.42111E+03 -4.24953E+03  2.21896E+03 -3.56403E+03  3.44405E+03 -2.09140E+03  3.91127E+03  1.29754E+03
  2.40057E+03  1.94646E+03  7.77967E+02  1.05097E+03 -5.84060E+02  9.92209E+02  2.05328E+03 -3.28611E+02
  5.79195E+02 -2.62289E+02  3.93004E+03  1.28621E+03  2.22652E+03  5.65948E+03 -1.08685E+03  7.30918E+03
 -4.39295E+03  3.92013E+03 -5.49327E+03  7.54158E+02 -5.46927E+03 -1.60824E+03 -1.94801E+03 -3.30981E+03
  8.06340E+02 -3.84548E+03  3.27438E+03 -1.72058E+03  2.36100E+03  1.94481E+03 -7.43117E+02  3.96668E+03
 -4.14019E+03  2.20125E+03 -5.14848E+03 -2.07520E+03 -2.40079E+03 -5.24806E+03  7.46078E+02 -5.32927E+03
  2.84324E+03 -4.02632E+03  4.02488E+03 -4.25866E+02  2.91033E+03  7.83391E+02  2.54532E+02  2.66888E+03
 -1.88890E+03  6.99234E+02 -2.57065E+03 -1.79563E+03  7.57206E+02 -3.99570E+03  4.34303E+03 -3.60066E+03
  5.81574E+03  1.28687E+03  6.45063E+03  3.39111E+03  2.18169E+03  6.18042E+03 -1.47068E+03  5.50141E+03
 -4.83240E+03  3.07112E+03 -4.74151E+03 -1.49974E+03 -3.17280E+03 -4.39149E+03  7.15751E+02 -3.03975E+03
  3.83252E+03 -2.08960E+03  3.18053E+03  1.89500E+03  1.16895E+03  3.58188E+03 -4.12770E+02  2.76785E+03
 -1.71225E+03  1.46703E+03 -1.40345E+03  1.09559E+03 -4.83449E+02  1.23048E+03 -1.14955E+03  1.15428E+03
 -1.44489E+03  2.74964E+03 -4.67359E+03  1.94399E+03 -5.86252E+03  1.89124E+02 -6.97042E+03 -3.32873E+03
 -3.10762E+03 -7.33938E+03  2.10882E+03 -9.56938E+03  5.21792E+03 -6.74689E+03  9.18443E+03 -2.77411E+03
  8.04998E+03  1.11861E+03  5.65171E+03  5.58958E+03 -1.95084E+02  6.14273E+03 -2.59927E+03  4.15273E+03
 -3.75060E+03  1.80474E+03 -1.76494E+03 -6.27564E+02 -5.38723E+02  4.37839E+02 -1.13274E+03 -2.33343E+02
 -1.31109E+03  7.07771E+02 -1.73172E+03 -4.78550E+02  5.56512E+02 -1.34152E+03 -3.27621E+02 -2.06577E+03
  2.57588E+03 -2.20398E+03  3.04918E+03  5.71838E+02  4.24737E+03  3.22293E+03  6.84117E+02  5.54518E+03
 -2.90582E+03  7.11221E+03 -6.15947E+03  4.44442E+03 -6.70346E+03 -5.87391E+02 -5.72620E+03 -4.28265E+03
 -1.87775E+03 -6.16852E+03  6.40504E+02 -5.54515E+03  3.90905E+03 -2.51010E+03  3.59927E+03  4.04623E+02
  1.62707E+03  1.48067E+03 -3.76270E+02  1.97517E+03 -8.76587E+02 -4.96778E+02 -2.85261E+02 -1.38985E+03
  1.90504E+03 -1.50845E+03  2.75741E+03  3.37716E+02  1.62688E+03  2.16514E+03  3.91673E+02  2.64016E+03
 -2.37023E+03  2.11022E+03 -3.93689E+03  2.35654E+02 -3.88794E+03 -2.55335E+03 -6.71584E+02 -4.69902E+03
  2.51701E+03 -3.88422E+03  4.52230E+03 -1.27061E+03  4.26601E+03  6.92508E+02  3.02776E+03  3.76703E+03
  6.86887E+02  3.80189E+03 -1.47457E+03  2.90934E+03 -1.93811E+03  1.06884E+03 -1.81151E+03  4.92055E+02
 -8.26789E+02  4.78510E+02 -1.81634E+03  1.33149E+02 -2.20892E+03  2.98626E+02 -3.05695E+03 -5.37351E+02
 -2.68029E+03 -1.11705E+03 -6.63199E+02 -3.75978E+03  2.10515E+03 -4.43890E+03  2.95496E+03 -1.55333E+03
  3.64403E+03 -8.74690E+01  2.21642E+03  1.99504E+03  2.68398E+02  3.63734E+03 -2.49835E+03  2.03334E+03
