 $NMID ID='MM_0lb_SNR400_20hz_g60_88.RAW', FMTDAT='(8E13.5)'
 TRAMP=1., VOLUME=1. $END
  3.10586E+05  5.83986E+02  3.36996E+05  2.50505E+05  8.43294E+04  3.37695E+05 -1.32700E+05  2.50645E+05
 -1.89646E+05  8.22166E+04 -1.11152E+05 -3.33978E+04  1.37348E+03 -5.07235E+04  5.37130E+04 -2.75841E+02
  3.52545E+04  5.25988E+04 -1.71125E+04  7.57065E+04 -6.08461E+04  6.35756E+04 -8.34841E+04  3.09022E+04
 -7.96358E+04 -1.09709E+04 -5.67892E+04 -5.05916E+04 -1.48092E+04 -6.86745E+04  2.71409E+04 -4.48676E+04
  3.90180E+04  3.93872E+03  1.57562E+04  4.75987E+04 -3.40716E+04  4.66025E+04 -6.58333E+04 -3.11062E+02
 -5.25951E+04 -5.62251E+04 -6.32756E+03 -7.63419E+04  3.35694E+04 -5.36609E+04  4.68302E+04 -1.65715E+04
  4.27328E+04  1.15050E+04  3.16033E+04  2.51231E+04  1.55432E+04  2.83799E+04 -4.60639E+03  2.70968E+04
 -2.17048E+04  1.23665E+04 -1.88695E+04 -4.54847E+03  5.07525E+03 -7.43832E+03  2.19136E+04  1.15499E+04
  7.60114E+03  3.40156E+04 -3.09138E+04  3.46647E+04 -6.18874E+04  1.94996E+03 -5.59684E+04 -4.16930E+04
 -1.25800E+04 -6.18394E+04  3.83088E+04 -4.43665E+04  5.69586E+04 -1.87082E+03  3.30192E+04  3.10236E+04
 -6.62188E+03  3.39131E+04 -2.83219E+04  1.47166E+04 -2.82218E+04 -5.36921E+03 -1.51274E+04 -1.03380E+04
 -7.25941E+03 -1.16757E+04 -1.24370E+03 -1.70457E+04  7.01487E+03 -2.29245E+04  1.51501E+04 -1.32493E+04
  1.19768E+04  4.78220E+03 -6.30475E+03  1.32829E+04 -1.96845E+04 -3.16692E+03 -8.16564E+03 -3.12505E+04
  2.16706E+04 -4.11583E+04  4.55985E+04 -1.90434E+04  4.23723E+04  1.85095E+04  1.44059E+04  4.28142E+04
 -1.52128E+04  3.18729E+04 -2.38244E+04  1.08943E+03 -8.65594E+03 -2.66537E+04  2.14297E+04 -3.15787E+04
  3.87873E+04 -7.75764E+03  3.23632E+04  2.36581E+04  1.62233E+04  4.32791E+04 -7.77318E+03  4.63720E+04
 -2.89590E+04  3.05662E+04 -3.85239E+04  8.16756E+03 -3.91943E+04 -1.49954E+04 -2.18680E+04 -3.56081E+04
  6.75253E+03 -3.51017E+04  2.93847E+04 -1.30644E+04  2.70114E+04  1.06801E+04  3.73525E+03  1.81313E+04
 -1.31009E+04  7.59724E+03 -9.60899E+03 -7.95391E+03  5.72160E+03 -1.05000E+04  1.80445E+04  6.58537E+03
  1.19755E+04  2.17358E+04 -6.23262E+03  2.39830E+04 -2.12057E+04  9.67615E+03 -2.56080E+04 -5.74009E+03
 -1.77249E+04 -1.71663E+04 -6.32883E+03 -1.72342E+04  3.75265E+03 -1.50507E+04  1.30341E+04 -1.52124E+04
  2.16145E+04 -1.10676E+04  2.88106E+04  1.64484E+03  2.15950E+04  1.71881E+04  3.80938E+03  3.26957E+04
 -1.59748E+04  2.78722E+04 -2.62699E+04  9.69454E+03 -2.00421E+04 -1.04611E+04 -3.71865E+03 -1.44796E+04
  2.39707E+03 -3.89937E+03 -3.15955E+03  6.06879E+03 -1.31430E+04  4.83996E+03 -1.37009E+04 -4.91541E+03
 -8.71978E+03 -1.59248E+04  4.57596E+03 -1.96228E+04  1.24788E+04 -1.50245E+04  1.48301E+04 -9.22713E+02
  9.18902E+03  1.09553E+04 -1.50538E+03  1.62158E+04 -1.10435E+04  8.68877E+03 -1.55109E+04 -3.27631E+03
 -1.18188E+04 -1.48400E+04 -1.28409E+03 -1.93756E+04  9.31305E+03 -1.56860E+04  1.61624E+04 -7.25404E+03
  1.48316E+04  6.46491E+02  1.06556E+04  4.19960E+03  5.25503E+03  3.62783E+02  7.67738E+03 -1.44089E+03
  1.46004E+04  2.95770E+03  1.53942E+04  1.21678E+04  9.23426E+03  2.49106E+04 -3.20394E+03  2.72654E+04
 -1.61543E+04  2.03149E+04 -2.47225E+04  9.84936E+03 -2.50294E+04 -1.38402E+03 -2.13254E+04 -1.45358E+04
 -1.05365E+04 -2.05986E+04  6.26938E+03 -1.96064E+04  1.66326E+04 -1.08710E+04  1.60326E+04  3.79639E+03
  6.58130E+03  1.11357E+04 -6.57446E+03  1.05187E+04 -1.36560E+04  2.72966E+03 -1.00107E+04 -7.82467E+03
 -1.83346E+02 -1.19297E+04  5.88033E+03 -9.85016E+03  7.79130E+03 -1.36363E+03  8.66436E+02  4.72567E+03
 -5.73369E+03  1.17761E+03 -3.52805E+03 -4.57636E+03  5.24870E+02 -1.02637E+04  8.11783E+03 -1.00324E+04
  1.23696E+04 -4.55893E+03  1.18869E+04  2.54477E+03  1.02885E+04  9.16553E+03  5.42678E+03  1.40499E+04
 -1.95739E+03  1.52402E+04 -9.24911E+03  1.04011E+04 -1.10082E+04  3.08076E+03 -7.94063E+03 -2.37939E+03
 -4.69849E+03 -3.26305E+03 -8.28900E+02  1.41694E+03 -1.43909E+03  1.83798E+03 -3.68909E+03  3.68974E+03
 -8.42718E+03 -2.03974E+01 -9.07462E+03 -7.06459E+03 -3.51287E+03 -1.14114E+04  3.09318E+03 -8.37030E+03
  6.78633E+03 -3.88999E+03  4.74169E+03  1.54941E+03  1.00771E+02  2.90362E+03 -3.13601E+03 -1.40910E+02
 -3.31298E+03 -5.58267E+03 -8.89033E+02 -7.20000E+03  3.72749E+03 -7.33806E+03  9.00597E+03 -4.07965E+03
  1.10578E+04  6.89330E+02  8.25476E+03  6.39191E+03  2.17703E+03  8.78098E+03 -4.94669E+03  8.33190E+03
 -6.63345E+03  3.12229E+03 -3.60359E+03 -1.20365E+03  8.30925E+02 -1.90368E+03  4.60564E+03 -5.84487E+02
  3.23639E+03  3.50833E+03  1.07451E+03  6.33544E+03 -4.44123E+03  6.26222E+03 -7.08804E+03  2.14355E+03
 -4.54827E+03 -3.51223E+03  7.04180E+02 -6.83720E+03  3.67810E+03 -3.64219E+03  3.54095E+03  1.23094E+03
 -2.06144E+02  2.23117E+03 -3.85852E+03  4.91138E+03 -4.62083E+03  1.94254E+03 -3.92794E+03 -3.03077E+02
 -2.74360E+03 -5.76457E+03  1.46777E+03 -6.93956E+03  5.40022E+03 -4.60065E+03  6.31798E+03  7.10314E+02
  4.27766E+03  5.00581E+03  7.57872E+02  6.72401E+03 -5.03634E+03  3.72805E+03 -4.91322E+03  5.48084E+01
 -5.53000E+03 -5.09536E+03 -1.11201E+03 -4.39454E+03  2.18713E+03 -4.57110E+03  2.84494E+03 -2.59337E+03
  3.04944E+03  2.99253E+02  1.19302E+02  6.84640E+02  1.48723E+02 -7.41899E+01 -5.50237E+02 -1.60191E+03
  2.99619E+03 -7.74046E+01  5.04120E+03  3.30598E+02  5.46136E+03  2.63995E+03  5.11482E+03  6.18826E+03
 -8.10568E+02  7.53943E+03 -6.77812E+03  6.06557E+03 -9.57979E+03  7.08528E+02 -7.00594E+03 -2.86746E+03
 -3.74790E+03 -5.89833E+03 -4.71110E+02 -4.59741E+03  1.74039E+03 -2.10100E+03  1.58374E+03 -1.41623E+03
  1.29055E+03 -1.50484E+03  2.18112E+03 -3.08713E+03  3.99428E+03 -1.22025E+03  3.44839E+03  3.96079E+02
  4.35154E+03  1.18461E+03  1.18965E+03  3.43531E+03 -1.39035E+03  2.55923E+03 -3.99121E+03  2.61938E+03
 -4.21962E+03 -9.16683E+02 -1.41022E+03 -2.89420E+03  8.71022E+02 -3.87428E+03  2.89172E+03 -4.92386E+03
  4.47700E+03 -2.59132E+03  5.69170E+03  6.80841E+02  4.54790E+03  3.59000E+03  1.30747E+03  5.45874E+03
 -1.63957E+03  5.65362E+03 -2.83340E+03  1.68158E+03 -1.48929E+03 -9.31143E+02 -1.37071E+02 -7.50017E+02
 -5.21877E+02  3.25665E+02 -6.66232E+02  1.30914E+03 -1.86715E+03  8.01622E+02 -3.32676E+03 -8.77700E+01
 -1.06688E+03 -3.64370E+03  1.02567E+03 -4.25544E+03  2.53095E+03 -3.71085E+03  2.27669E+03 -1.14421E+03
  3.04058E+03  2.18150E+03  1.34765E+03  2.10289E+03 -1.05719E+03  3.85228E+03 -1.60880E+03  2.27835E+03
 -2.71789E+03  9.93026E+02 -3.10685E+03 -2.41264E+03 -2.82351E+02 -2.13969E+03  1.12588E+03 -2.29008E+03
  1.65528E+03 -1.37068E+03  1.31494E+03 -7.83259E+01  8.51202E+02  1.02291E+03  1.22186E+03  5.87808E+02
  1.42685E+03  4.80294E+02  4.93223E+02  6.38482E+02  1.78620E+03  2.10513E+03  1.37302E+03  1.66841E+03
 -1.63056E+03  2.45826E+03 -1.61174E+03  3.61035E+03 -1.95308E+03  1.06578E+03 -3.65973E+03 -1.42309E+02
 -1.09653E+03 -2.63269E+03  6.53768E+02 -4.24840E+03  1.29239E+03 -2.35356E+03  2.21749E+03 -1.09344E+03
  1.94902E+03  1.38271E+03  8.98128E+02  1.84468E+03 -1.35943E+02  6.29794E+02 -6.40843E+02 -5.16473E+02
 -1.57462E+02 -1.76006E+03  1.44120E+03 -1.25172E+03  1.14415E+03 -5.28903E+02  1.08022E+03 -2.25257E+01
  7.10266E+02  5.14258E+02 -4.32766E+01  3.47495E+02  2.83570E+01  5.11713E+02  1.29516E+03  1.17282E+02
 -3.26799E+02 -8.57840E+02  1.28083E+03  1.17504E+03 -2.70139E+02  1.95185E+03  1.37910E+01  2.62126E+03
 -1.63462E+03  5.59639E+02 -1.40883E+03  3.93160E+02 -1.98069E+03 -7.96261E+02  5.73807E+02 -6.08719E+02
  3.65904E+02 -4.79380E+02  1.60253E+02 -7.52755E+02  8.21863E+02  1.30430E+03 -1.28553E+03  9.41436E+02
 -1.05024E+03  4.56173E+02 -6.19922E+02 -8.41226E+02 -6.29943E+02 -1.26491E+03  4.95586E+02 -9.64453E+02
  2.86184E+02  8.23546E+01  4.43547E+02  3.18138E+02  1.08277E+03 -5.21221E+01  3.80787E+02  1.00514E+03
  6.85964E+00 -4.33912E+01 -9.83192E+02  3.55034E+02  8.90207E+02 -3.67331E+02  1.07484E+03 -5.41901E+02
  9.91906E+02  7.32779E+01  2.44569E+03  6.08945E+02  5.82373E+02  1.09701E+03 -2.76799E+02  1.30341E+03
 -1.13461E+03  9.97260E+01 -1.30645E+03  2.44941E+02 -5.00124E+02 -1.01083E+03  5.49114E+02 -2.77933E+02
  1.57856E+03 -6.40562E+02  9.73682E+02  5.88136E+02  1.98170E+02  2.52918E+02  1.25445E+02  9.59010E+02
  2.21391E+02  1.04985E+03 -2.40233E+02 -2.84492E+02  4.65420E+02 -8.59672E+01 -9.61412E+02  8.18652E+02
 -4.95052E+02  9.97151E+02 -1.18273E+03  4.85764E+02 -9.42323E+02  1.61916E+02 -1.62961E+03 -4.73441E+02
  1.55000E+02 -1.56045E+03  7.64273E+02 -2.03135E+03  2.48335E+02 -1.89444E+03  1.67686E+03 -9.14892E+02
  1.54160E+03 -4.61046E+02  7.56613E+02  9.42268E+02 -5.52632E+02  1.22808E+03 -6.88400E+02  9.84007E+02
 -4.35247E+02  6.00354E+02 -3.59735E+02 -1.23246E+02 -1.23236E+03  1.07159E+02 -7.49964E+02  1.07618E+02
 -1.40027E+03 -9.40338E+01 -1.15924E+03 -3.14488E+02  6.26599E+02 -6.06581E+02 -3.07996E+02 -1.14986E+03
  6.71448E+02 -2.31502E+02 -2.15848E+02  3.02692E+02  7.62635E+02  8.55608E+02 -1.75669E+02  1.43973E+03
 -2.21129E+02  1.81596E+03 -1.15899E+03  1.03912E+03 -1.28679E+03 -1.67834E+02 -5.37252E+02 -1.19911E+03
 -7.55616E+02 -3.19103E+02  9.98270E+01 -4.18958E+02  5.32163E+02  6.83246E+01  7.01150E+02  2.39319E+02
  5.91088E+02  2.27068E+02  5.03610E+01  1.13798E+02 -9.37118E+02  1.10544E+01 -2.78832E+02  1.44430E+02
  6.39275E+02  6.64416E+02  9.65045E-01  3.52022E+02  9.36858E+00  2.56244E+02  1.11376E+02 -3.74228E+01
 -3.73192E+02  1.96972E+02 -2.10716E+02 -2.98973E+01 -5.52065E+02  1.78703E+02  4.85670E+02 -8.38334E+02
  7.89192E+02 -5.71480E+02  5.82746E+02  2.40262E+02  5.95028E+02 -1.24432E+03 -1.17698E+02  6.45261E+01
  1.11575E+03 -3.75427E+02  1.98688E+02  1.36837E+02 -7.39332E+02  8.43621E+02 -2.29890E+02 -2.61711E+02
 -7.36813E+01 -4.94131E+02 -4.95994E+02 -2.14862E+01 -4.34303E+01 -1.82609E+02 -3.90893E+02 -3.29457E+02
 -7.14524E+02  9.67534E+02 -6.49022E+02 -7.11483E+02  8.97297E+02 -7.11649E+02  5.22438E+02 -2.22116E+02
  6.94466E+02 -6.66535E+01 -3.07961E+02 -1.47917E+02  2.50524E+02  2.56636E+02 -7.01270E+01 -1.03977E+02
