 $NMID ID='MM_0lb_SNR400_7hz_g55_54.RAW', FMTDAT='(8E13.5)'
 TRAMP=1., VOLUME=1. $END
  3.10631E+05  1.15998E+03  3.37756E+05  2.51152E+05  8.52048E+04  3.38717E+05 -1.32608E+05  2.52389E+05
 -1.90883E+05  8.48554E+04 -1.12516E+05 -3.24499E+04  4.26732E+02 -5.06346E+04  5.39145E+04 -5.44664E+02
  3.52995E+04  5.25996E+04 -1.68945E+04  7.65351E+04 -6.12852E+04  6.51784E+04 -8.63815E+04  3.33125E+04
 -8.30933E+04 -1.16106E+04 -5.85643E+04 -5.34878E+04 -1.54228E+04 -7.09361E+04  2.93079E+04 -4.69638E+04
  4.17279E+04  2.97201E+03  1.68798E+04  4.85898E+04 -3.42294E+04  4.91058E+04 -6.87094E+04  5.62933E+02
 -5.56910E+04 -5.90542E+04 -6.47338E+03 -7.95851E+04  3.56593E+04 -5.71378E+04  5.08050E+04 -1.94817E+04
  4.56880E+04  1.20649E+04  3.40172E+04  2.73104E+04  1.61022E+04  3.19757E+04 -5.99353E+03  2.74459E+04
 -2.27407E+04  1.15190E+04 -1.77161E+04 -6.39636E+03  9.12686E+03 -8.80488E+03  2.35244E+04  1.38025E+04
  6.91431E+03  3.81842E+04 -3.46976E+04  3.84310E+04 -6.59657E+04  1.87119E+03 -6.05690E+04 -4.53458E+04
 -1.28815E+04 -6.56232E+04  4.22688E+04 -4.94467E+04  6.28519E+04 -3.49649E+03  3.77086E+04  3.52873E+04
 -5.57226E+03  4.12768E+04 -3.20047E+04  1.96015E+04 -3.46384E+04 -2.57380E+03 -2.11567E+04 -1.32375E+04
 -1.01042E+04 -1.62966E+04 -6.40867E+02 -2.00076E+04  7.88785E+03 -2.40818E+04  1.63700E+04 -1.27099E+04
  9.05860E+03  7.42840E+03 -1.14904E+04  1.28203E+04 -2.49824E+04 -7.76542E+03 -8.65147E+03 -3.87845E+04
  2.65121E+04 -4.82425E+04  5.35886E+04 -2.17640E+04  5.07982E+04  2.14136E+04  1.79085E+04  4.91454E+04
 -1.80250E+04  3.81223E+04 -2.84899E+04  2.33517E+03 -1.26522E+04 -3.02128E+04  2.14504E+04 -3.78121E+04
  4.64665E+04 -1.21347E+04  4.17882E+04  2.61193E+04  2.32873E+04  5.31089E+04 -8.84779E+03  5.93207E+04
 -3.73029E+04  4.03184E+04 -4.92600E+04  1.22012E+04 -5.01461E+04 -1.95400E+04 -2.81157E+04 -4.44362E+04
  8.14695E+03 -4.43570E+04  3.47382E+04 -1.82054E+04  3.37460E+04  1.09523E+04  5.47499E+03  2.13553E+04
 -1.36924E+04  1.08244E+04 -1.17649E+04 -7.90577E+03  4.87885E+03 -1.15838E+04  2.04213E+04  4.38314E+03
  1.55675E+04  2.19886E+04 -5.14692E+03  2.83851E+04 -2.48574E+04  1.48938E+04 -3.33125E+04 -2.67197E+03
 -2.77447E+04 -1.89782E+04 -1.33836E+04 -2.65737E+04  4.43718E+03 -2.88515E+04  2.20719E+04 -2.55724E+04
  3.50031E+04 -1.56350E+04  4.02782E+04  6.31847E+03  2.91900E+04  2.67917E+04  4.45556E+03  4.37512E+04
 -2.12248E+04  3.59687E+04 -3.19974E+04  1.19766E+04 -2.37951E+04 -9.25791E+03 -6.00827E+03 -1.20242E+04
 -1.14424E+03 -8.36990E+02 -8.78732E+03  1.00634E+04 -2.20385E+04  4.13614E+03 -2.16830E+04 -1.12689E+04
 -1.40110E+04 -2.57641E+04  6.13951E+03 -3.00591E+04  2.05708E+04 -2.18611E+04  2.40849E+04 -2.71032E+03
  1.64462E+04  1.80536E+04 -2.16964E+03  2.57697E+04 -1.83370E+04  1.44683E+04 -2.62751E+04 -6.15928E+03
 -1.92127E+04 -2.23791E+04 -1.12838E+03 -3.08564E+04  1.41522E+04 -2.59981E+04  2.51806E+04 -1.36677E+04
  2.40516E+04 -7.32874E+02  1.79108E+04  6.53320E+03  1.07339E+04  1.98140E+03  1.36564E+04 -1.78216E+03
  2.50259E+04  3.14705E+03  2.88137E+04  2.02200E+04  1.97587E+04  4.15173E+04 -1.73770E+03  4.94846E+04
 -2.86874E+04  4.15609E+04 -4.68041E+04  2.23660E+04 -5.06958E+04 -3.61277E+03 -4.03155E+04 -2.98804E+04
 -1.58530E+04 -4.19881E+04  1.52929E+04 -3.77383E+04  3.14054E+04 -1.71004E+04  2.79515E+04  8.88303E+03
  8.89999E+03  2.01101E+04 -1.38181E+04  1.74923E+04 -2.24591E+04  2.22109E+03 -1.73421E+04 -1.40242E+04
  5.03652E+02 -2.23167E+04  1.28776E+04 -1.57828E+04  1.49414E+04 -1.61418E+03  3.39328E+03  9.99914E+03
 -9.48418E+03  4.72353E+03 -1.10655E+04 -7.26132E+03 -2.82880E+03 -1.97395E+04  1.35013E+04 -2.31888E+04
  2.71926E+04 -1.35647E+04  3.00797E+04  3.01890E+03  2.73811E+04  2.25984E+04  1.21560E+04  3.45905E+04
 -6.13247E+03  3.66229E+04 -2.45746E+04  2.22640E+04 -2.66172E+04  4.24245E+03 -1.75922E+04 -7.53749E+03
 -7.31660E+03 -8.98550E+03 -1.25069E+03  3.87501E+02 -3.30219E+03  4.56746E+03 -8.08161E+03  5.83071E+03
 -1.67097E+04 -1.71206E+03 -1.61488E+04 -1.31542E+04 -6.03243E+03 -2.17124E+04  6.56659E+03 -1.75562E+04
  1.41522E+04 -7.68897E+03  1.04121E+04  4.83902E+03 -1.46310E+03  7.34678E+03 -9.12961E+03  3.06349E+02
 -8.78829E+03 -1.18944E+04 -1.54811E+03 -1.76610E+04  1.11285E+04 -1.93325E+04  2.28437E+04 -1.01329E+04
  2.66764E+04  3.71715E+03  1.95023E+04  1.71561E+04  3.50071E+03  2.31011E+04 -1.13384E+04  1.75312E+04
 -1.50516E+04  5.05197E+03 -7.04331E+03 -3.88299E+03  2.20421E+03 -5.47073E+03  9.72560E+03 -1.15988E+03
  8.21502E+03  7.74138E+03  8.68399E+02  1.50891E+04 -1.01659E+04  1.43140E+04 -1.81211E+04  2.81714E+03
 -1.32989E+04 -1.04940E+04 -5.32130E+02 -1.54847E+04  1.12089E+04 -8.06248E+03  1.13418E+04  4.01403E+03
  2.67937E+03  1.14266E+04 -9.37126E+03  1.25787E+04 -1.78949E+04  5.58450E+03 -1.83726E+04 -5.76118E+03
 -9.90971E+03 -1.95618E+04  5.37101E+03 -2.21516E+04  1.88588E+04 -1.33237E+04  2.06607E+04  4.99464E+03
  1.21559E+04  1.62198E+04 -3.37919E+03  1.95694E+04 -1.39290E+04  1.08221E+04 -1.61006E+04 -1.28927E+03
 -1.24326E+04 -1.20268E+04 -1.53454E+03 -1.54863E+04  6.98491E+03 -1.20648E+04  9.82230E+03 -3.04874E+03
  5.86170E+03  2.30713E+03 -1.44746E+03  1.48429E+03 -1.17896E+03 -4.18867E+03  4.03256E+03 -1.04795E+04
  1.38063E+04 -5.75952E+03  1.95382E+04  1.77532E+03  1.92220E+04  1.52924E+04  1.12305E+04  2.59571E+04
 -6.04142E+03  3.08158E+04 -2.54099E+04  2.22282E+04 -3.11814E+04  3.92461E+03 -2.51831E+04 -1.13312E+04
 -1.26606E+04 -2.08730E+04 -3.39596E+02 -1.83318E+04  7.45861E+03 -1.01872E+04  6.13079E+03 -7.35577E+03
  4.64987E+03 -4.04384E+03  5.25267E+03 -4.08448E+03  6.79766E+03 -4.47688E+03  8.56727E+03 -1.90473E+03
  1.29150E+04  2.66626E+03  7.24661E+03  1.12474E+04 -2.79083E+03  1.49095E+04 -1.40113E+04  1.07771E+04
 -1.84263E+04 -1.78444E+03 -1.15607E+04 -1.36574E+04 -1.94142E+03 -2.09025E+04  1.12980E+04 -2.02502E+04
  2.06657E+04 -1.02676E+04  2.49944E+04  4.00007E+03  1.74629E+04  1.78040E+04  2.63813E+03  2.27525E+04
 -9.58347E+03  1.75807E+04 -1.41290E+04  5.48221E+03 -9.09489E+03 -2.27712E+03 -3.37414E+03 -3.25977E+03
 -2.31360E+03 -9.05492E+01 -2.54693E+03  4.48644E+03 -7.39176E+03  2.25967E+03 -1.25462E+04 -1.07725E+03
 -1.03038E+04 -1.20762E+04 -8.11561E+02 -1.87977E+04  1.16446E+04 -1.70062E+04  1.93967E+04 -6.00824E+03
  1.91322E+04  8.44846E+03  9.20612E+03  1.78276E+04 -4.70504E+03  1.89000E+04 -1.54606E+04  1.21384E+04
 -1.84915E+04  2.36789E+02 -1.35529E+04 -1.09913E+04 -1.32459E+03 -1.65698E+04  8.44338E+03 -1.26283E+04
  1.15496E+04 -3.92453E+03  8.45530E+03  3.24522E+03  3.38818E+03  5.52776E+03  1.98136E+03  3.42569E+03
  2.99772E+03  1.86915E+03  4.80786E+03  2.56667E+03  6.25382E+03  7.03409E+03  4.73249E+03  1.04650E+04
 -3.64537E+03  1.51323E+04 -1.44432E+04  1.43558E+04 -2.13983E+04  4.23238E+03 -2.06714E+04 -9.48578E+03
 -1.04987E+04 -1.95620E+04  2.65043E+03 -2.16978E+04  1.21053E+04 -1.40519E+04  1.57237E+04 -3.66522E+03
  1.18409E+04  8.12104E+03  3.98274E+03  1.14001E+04 -5.85525E+03  7.35208E+03 -8.84340E+03 -1.09555E+03
 -4.72471E+03 -8.32112E+03  5.02400E+03 -9.09575E+03  8.49066E+03 -3.68386E+03  9.03222E+03  1.08046E+03
  5.18024E+03  4.98838E+03  2.15836E+03  3.76211E+03 -1.23143E+03  3.39933E+03  1.69117E+03 -4.82010E+02
  3.36451E+03 -3.99631E+02  8.20212E+03  3.50247E+03  5.11672E+03  1.06947E+04 -3.05587E+03  1.43014E+04
 -1.03954E+04  9.50334E+03 -1.21603E+04  2.64029E+03 -1.22082E+04 -4.92576E+03 -4.38874E+03 -7.61576E+03
  8.82899E+02 -8.04718E+03  5.61086E+03 -4.56277E+03  5.09750E+03  3.48367E+03 -2.31945E+03  6.59589E+03
 -9.05800E+03  4.01299E+03 -1.04212E+04 -4.78620E+03 -5.70742E+03 -1.06466E+04  1.75764E+03 -1.14223E+04
  7.57248E+03 -6.46908E+03  9.65539E+03 -1.61794E+03  6.79021E+03  4.16516E+03  9.15446E+02  7.04250E+03
 -4.58787E+03  2.06952E+03 -5.69254E+03 -4.31352E+03  1.77058E+03 -8.05926E+03  1.03327E+04 -7.21559E+03
  1.38164E+04  1.54989E+03  1.28228E+04  9.46631E+03  4.08076E+03  1.52772E+04 -3.96267E+03  1.33122E+04
 -1.07173E+04  7.55737E+03 -1.18929E+04 -2.84270E+03 -5.78663E+03 -9.59038E+03  3.03223E+03 -8.34691E+03
  8.66466E+03 -3.52692E+03  7.93556E+03  3.57671E+03  2.64435E+03  7.45728E+03 -9.49340E+02  7.18598E+03
 -3.25543E+03  3.69467E+03 -3.36659E+03  1.96420E+03 -2.16436E+03  2.39886E+03 -1.29722E+03  2.47638E+03
 -4.04126E+03  6.07523E+03 -8.73984E+03  5.28776E+03 -1.44091E+04 -2.01015E+02 -1.60294E+04 -8.32548E+03
 -8.50283E+03 -1.91624E+04  4.16492E+03 -2.24530E+04  1.29790E+04 -1.74826E+04  2.11430E+04 -6.55547E+03
  1.98363E+04  4.81705E+03  1.26690E+04  1.35901E+04  1.82574E+03  1.54366E+04 -6.48875E+03  1.16108E+04
 -8.47580E+03  3.28466E+03 -5.00178E+03 -1.70412E+03 -1.58830E+03 -1.34310E+03 -7.69029E+02 -1.54011E+02
 -2.28710E+03  1.28230E+03 -3.83076E+03 -6.99415E+00 -1.40814E+03 -4.52920E+03  1.27944E+03 -5.11066E+03
  6.63034E+03 -4.33366E+03  9.56466E+03 -5.02796E+02  1.15900E+04  7.05277E+03  2.84801E+03  1.51672E+04
 -6.86600E+03  1.63896E+04 -1.64948E+04  1.13102E+04 -1.81287E+04 -8.62543E+02 -1.44517E+04 -1.16462E+04
 -4.91350E+03 -1.65352E+04  3.96100E+03 -1.42674E+04  1.10782E+04 -8.28373E+03  1.07890E+04  8.61714E+02
  5.51237E+03  5.61164E+03 -6.44190E+02  4.03764E+03 -2.28467E+03 -1.06906E+03  3.15326E+02 -4.02528E+03
  4.82688E+03 -2.16823E+03  6.66172E+03  2.26585E+03  4.49635E+03  6.08258E+03  2.70191E+02  9.23832E+03
 -7.20056E+03  7.57611E+03 -1.14413E+04  9.41892E+02 -9.32246E+03 -8.42857E+03 -2.42073E+03 -1.33377E+04
  7.17006E+03 -1.10531E+04  1.25039E+04 -4.22620E+03  1.24142E+04  3.87035E+03  7.00611E+03  9.99039E+03
  7.34335E+02  1.09129E+04 -5.15173E+03  8.63382E+03 -7.19131E+03  4.89188E+03 -5.48472E+03  1.17785E+02
 -3.63590E+03 -2.92644E+02 -2.18588E+03  1.83186E+03 -5.83017E+03  2.43055E+03 -9.51865E+03 -1.20003E+03
 -7.99067E+03 -6.05426E+03 -2.01842E+03 -1.09297E+04  4.11399E+03 -1.17462E+04  9.49687E+03 -5.82881E+03
  1.14765E+04  1.87900E+03  6.39839E+03  8.12832E+03 -7.77190E+02  1.08371E+04 -7.89798E+03  5.97419E+03
