 $NMID ID='MM_0lb_SNR400_13hz_g55_23.RAW', FMTDAT='(8E13.5)'
 TRAMP=1., VOLUME=1. $END
  3.10071E+05  3.11300E+02  3.37957E+05  2.50792E+05  8.40963E+04  3.38601E+05 -1.32909E+05  2.51604E+05
 -1.90840E+05  8.34463E+04 -1.11727E+05 -3.35772E+04  3.43960E+02 -4.99624E+04  5.40832E+04  5.99083E+02
  3.47099E+04  5.36341E+04 -1.71951E+04  7.57403E+04 -6.12218E+04  6.33628E+04 -8.52798E+04  3.23406E+04
 -8.17949E+04 -1.18420E+04 -5.81182E+04 -5.20015E+04 -1.56565E+04 -7.06242E+04  2.74101E+04 -4.64737E+04
  4.03168E+04  3.64704E+03  1.69960E+04  4.79005E+04 -3.49713E+04  4.68722E+04 -6.70536E+04 -2.59565E+02
 -5.39451E+04 -5.68278E+04 -6.65012E+03 -7.80622E+04  3.40274E+04 -5.61319E+04  4.87510E+04 -1.83382E+04
  4.43956E+04  1.12161E+04  3.28347E+04  2.62076E+04  1.58702E+04  3.00818E+04 -6.00929E+03  2.72610E+04
 -2.22119E+04  1.18671E+04 -1.77872E+04 -5.64724E+03  6.26819E+03 -7.82325E+03  2.20876E+04  1.21859E+04
  7.18071E+03  3.62957E+04 -3.29385E+04  3.57807E+04 -6.47790E+04  2.44381E+03 -5.82293E+04 -4.34539E+04
 -1.20969E+04 -6.47741E+04  4.01625E+04 -4.62718E+04  5.93602E+04 -2.22031E+03  3.49333E+04  3.32648E+04
 -6.07820E+03  3.70953E+04 -3.10814E+04  1.73735E+04 -3.09733E+04 -4.01726E+03 -1.78668E+04 -1.15049E+04
 -9.29646E+03 -1.39498E+04 -6.98072E+02 -1.92108E+04  8.13480E+03 -2.34930E+04  1.51077E+04 -1.31799E+04
  1.08405E+04  5.71009E+03 -9.56651E+03  1.36210E+04 -2.20763E+04 -5.25621E+03 -8.84584E+03 -3.49260E+04
  2.35849E+04 -4.45615E+04  4.99176E+04 -1.98452E+04  4.65528E+04  1.98686E+04  1.65833E+04  4.58598E+04
 -1.70078E+04  3.39354E+04 -2.65782E+04  1.82748E+03 -1.08041E+04 -2.87083E+04  2.09444E+04 -3.51188E+04
  4.28878E+04 -9.93262E+03  3.73712E+04  2.38331E+04  1.88033E+04  4.75557E+04 -7.85038E+03  5.18988E+04
 -3.28031E+04  3.55382E+04 -4.37528E+04  9.92485E+03 -4.47406E+04 -1.76779E+04 -2.46365E+04 -3.98071E+04
  7.38230E+03 -3.86889E+04  3.16879E+04 -1.55805E+04  2.98992E+04  1.13315E+04  4.71972E+03  2.01511E+04
 -1.39526E+04  9.12313E+03 -1.05514E+04 -7.58417E+03  5.21848E+03 -1.12758E+04  1.80659E+04  5.46285E+03
  1.35598E+04  2.27580E+04 -5.10766E+03  2.55424E+04 -2.30671E+04  1.21855E+04 -2.96211E+04 -4.46323E+03
 -2.20490E+04 -1.71284E+04 -1.01511E+04 -2.24591E+04  3.98775E+03 -2.11491E+04  1.74924E+04 -1.98571E+04
  2.86928E+04 -1.29780E+04  3.44286E+04  3.76645E+03  2.54130E+04  2.10355E+04  5.11505E+03  3.82320E+04
 -1.84852E+04  3.22809E+04 -2.89794E+04  1.10732E+04 -2.12052E+04 -9.80422E+03 -4.86701E+03 -1.27497E+04
  1.57567E+03 -2.10433E+03 -5.52503E+03  7.38187E+03 -1.75546E+04  5.07507E+03 -1.72899E+04 -8.51466E+03
 -1.09949E+04 -2.01987E+04  5.94856E+03 -2.50400E+04  1.61590E+04 -1.79556E+04  1.95540E+04 -1.13682E+03
  1.27187E+04  1.47983E+04 -1.67086E+03  1.99287E+04 -1.44980E+04  1.14402E+04 -2.09829E+04 -4.59027E+03
 -1.50981E+04 -1.79695E+04 -2.07125E+03 -2.49538E+04  1.08002E+04 -2.04865E+04  2.03197E+04 -1.04371E+04
  1.98482E+04  4.06293E+02  1.34182E+04  3.93623E+03  7.02536E+03  1.23686E+03  1.08987E+04 -1.87606E+03
  1.83862E+04  2.59497E+03  2.07738E+04  1.64998E+04  1.40882E+04  3.20198E+04 -2.54732E+03  3.70593E+04
 -2.18423E+04  3.08728E+04 -3.54804E+04  1.53797E+04 -3.68553E+04 -2.97579E+03 -2.96130E+04 -2.19032E+04
 -1.18362E+04 -3.03771E+04  1.07704E+04 -2.70377E+04  2.29667E+04 -1.37239E+04  2.12173E+04  6.67074E+03
  7.22250E+03  1.56323E+04 -9.07007E+03  1.29189E+04 -1.71865E+04  2.52302E+03 -1.32081E+04 -1.04461E+04
  1.69210E+02 -1.61652E+04  8.52533E+03 -1.21485E+04  1.09400E+04 -7.01845E+02  2.96380E+03  7.50519E+03
 -8.26179E+03  3.12116E+03 -6.73398E+03 -5.62793E+03 -7.95174E+02 -1.49630E+04  1.00342E+04 -1.61378E+04
  1.87852E+04 -7.96855E+03  1.93544E+04  3.00998E+03  1.78015E+04  1.51760E+04  8.22683E+03  2.25949E+04
 -3.97430E+03  2.43531E+04 -1.62094E+04  1.62704E+04 -1.75364E+04  3.48027E+03 -1.23152E+04 -3.94153E+03
 -5.84852E+03 -5.60084E+03 -2.06439E+01  6.23241E+02 -2.46239E+03  2.54156E+03 -5.09533E+03  5.15572E+03
 -1.12873E+04 -1.54930E+03 -1.23631E+04 -9.55809E+03 -4.85260E+03 -1.57469E+04  4.80856E+03 -1.23963E+04
  1.01093E+04 -5.31526E+03  7.45175E+03  3.43501E+03 -3.41870E+01  4.65287E+03 -5.21060E+03  1.57650E+01
 -5.70511E+03 -7.78967E+03 -1.00726E+03 -1.20376E+04  6.80011E+03 -1.24629E+04  1.53206E+04 -7.04508E+03
  1.80172E+04  7.61975E+02  1.30022E+04  1.04821E+04  2.43771E+03  1.48376E+04 -8.29427E+03  1.24272E+04
 -1.01263E+04  3.73347E+03 -4.67327E+03 -2.20259E+03  1.32408E+03 -3.57897E+03  6.66253E+03 -1.16931E+03
  6.43575E+03  5.41738E+03  1.51122E+03  9.68390E+03 -6.93023E+03  9.28477E+03 -1.24663E+04  2.71357E+03
 -8.00904E+03 -5.98274E+03  2.85064E+02 -1.04042E+04  6.51235E+03 -5.33169E+03  6.59164E+03  1.65994E+03
  1.39135E+03  6.82468E+03 -6.23255E+03  9.26566E+03 -9.54262E+03  3.73932E+03 -8.97318E+03 -3.39102E+03
 -5.83305E+03 -1.10125E+04  2.45607E+03 -1.28665E+04  1.06008E+04 -8.00245E+03  1.20554E+04  2.37021E+03
  8.18599E+03  1.03751E+04 -1.14062E+03  1.20747E+04 -8.85700E+03  6.47285E+03 -9.70936E+03 -1.23518E+03
 -8.27338E+03 -7.43868E+03 -1.64344E+03 -8.66680E+03  3.87940E+03 -7.36254E+03  5.60709E+03 -3.63674E+03
  3.74614E+03  1.19134E+03 -9.11978E+02  1.76886E+03 -5.61872E+02 -2.38999E+03  1.81731E+03 -5.32180E+03
  7.90809E+03 -2.95216E+03  1.08127E+04  9.64489E+02  1.05777E+04  7.43671E+03  7.86608E+03  1.48192E+04
 -3.26631E+03  1.59700E+04 -1.45235E+04  1.25712E+04 -1.87706E+04  2.07992E+03 -1.43549E+04 -6.28399E+03
 -7.77393E+03 -1.18343E+04 -1.07113E+03 -9.72461E+03  3.17717E+03 -5.55755E+03  3.18968E+03 -3.61251E+03
  2.65520E+03 -2.35911E+03  3.31593E+03 -3.06066E+03  4.60018E+03 -2.34916E+03  5.85857E+03 -2.05308E+02
  8.18730E+03  1.94622E+03  3.66170E+03  6.68133E+03 -2.00755E+03  7.36666E+03 -8.45503E+03  5.49783E+03
 -9.78198E+03 -9.18047E+02 -5.66340E+03 -6.94857E+03  1.29519E+02 -1.06404E+04  6.48302E+03 -1.06097E+04
  1.03996E+04 -5.69937E+03  1.22912E+04  1.14137E+03  9.08586E+03  9.27567E+03  1.64868E+03  1.13059E+04
 -5.00494E+03  9.85567E+03 -7.74352E+03  3.77109E+03 -4.38560E+03 -1.35776E+03 -1.12068E+03 -1.72460E+03
 -1.24763E+03  5.21230E+02 -1.83827E+03  2.65368E+03 -4.09309E+03  2.42073E+03 -6.86629E+03 -8.60828E+02
 -4.35683E+03 -7.03298E+03  7.32786E+02 -9.23526E+03  6.61098E+03 -8.80630E+03  9.50774E+03 -2.81896E+03
  9.80843E+03  5.01013E+03  3.48987E+03  7.27568E+03 -1.79643E+03  9.20556E+03 -6.41722E+03  5.11082E+03
 -8.88772E+03  8.97010E+02 -6.49472E+03 -6.30189E+03 -6.07707E+02 -7.91044E+03  4.03148E+03 -4.96666E+03
  5.67527E+03 -1.59258E+03  4.48502E+03  1.11067E+03  1.77839E+03  2.92721E+03  1.53797E+03  9.27922E+02
  1.97759E+03  3.62800E+02  2.70385E+03  1.34776E+03  2.39857E+03  3.08382E+03  2.32588E+03  5.06921E+03
 -1.94568E+03  6.64682E+03 -6.28036E+03  7.40292E+03 -8.64049E+03  2.52547E+03 -9.67866E+03 -3.64911E+03
 -4.17125E+03 -9.22620E+03  1.68711E+03 -1.09313E+04  5.48278E+03 -6.50242E+03  6.91851E+03 -1.51866E+03
  5.98053E+03  3.54040E+03  7.86239E+02  4.94027E+03 -2.19171E+03  2.72585E+03 -3.90304E+03 -7.74106E+02
 -1.98614E+03 -4.24018E+03  2.18788E+03 -3.86413E+03  3.41071E+03 -2.08903E+03  3.74656E+03  8.10760E+02
  1.52110E+03  1.90527E+03  7.89416E+02  5.77092E+02 -2.76443E+02  1.69388E+03  1.17059E+03 -5.57058E+01
  7.86453E+02 -4.61707E+02  4.46050E+03  1.93808E+03  1.81197E+03  5.10670E+03 -7.65045E+02  6.53964E+03
 -3.92772E+03  3.95491E+03 -6.09626E+03  6.59238E+02 -5.24559E+03 -1.74222E+03 -1.38105E+03 -3.34158E+03
  6.67129E+02 -3.77031E+03  2.24949E+03 -1.66034E+03  1.90615E+03  1.63754E+03 -1.70150E+03  2.71947E+03
 -3.41360E+03  1.26817E+03 -3.81733E+03 -2.47284E+03 -2.31241E+03 -4.24950E+03  1.17496E+03 -5.37101E+03
  2.24439E+03 -2.35461E+03  3.56795E+03 -4.90099E+02  2.98617E+03  7.72235E+02  1.38533E+02  2.53989E+03
 -1.14180E+03  2.63127E+02 -2.56337E+03 -9.05406E+02  1.25284E+03 -3.25623E+03  3.96143E+03 -2.34928E+03
  4.56860E+03  9.48969E+02  5.80923E+03  3.37982E+03  1.72421E+03  5.33438E+03 -1.57549E+03  4.15461E+03
 -4.31334E+03  2.00399E+03 -4.15871E+03 -6.63074E+02 -2.50443E+03 -2.92727E+03  8.49750E+02 -2.52849E+03
  3.25096E+03 -1.98929E+03  2.91660E+03  1.21631E+03  5.38592E+02  2.66447E+03 -3.19947E+02  3.37467E+03
 -1.01000E+03  2.31052E+03 -1.45039E+03  1.96004E+02 -4.67625E+02  5.70312E+02 -1.00445E+03  1.05465E+03
 -1.63027E+03  2.05731E+03 -3.48581E+03  2.11174E+03 -4.58859E+03 -2.06729E+02 -6.56734E+03 -3.16493E+03
 -3.59734E+03 -7.04557E+03  1.45281E+03 -8.30532E+03  4.30488E+03 -6.28748E+03  7.76540E+03 -2.88445E+03
  6.45594E+03  1.38782E+03  3.86170E+03  4.34307E+03  3.04345E+02  5.55754E+03 -2.02459E+03  3.89067E+03
 -3.36711E+03  2.16923E+03 -1.48786E+03 -4.41989E+02 -8.29415E+02  1.05612E+02 -9.20939E+02 -1.01627E+02
 -1.16360E+03 -1.88446E+00 -1.57173E+03 -4.83320E+02 -2.16807E+02 -1.41447E+03 -3.05650E+02 -1.95249E+03
  2.75081E+03 -1.69021E+03  2.71992E+03  6.93429E+02  3.09440E+03  2.49450E+03  7.58952E+02  5.25274E+03
 -2.31218E+03  6.13972E+03 -5.34766E+03  3.22556E+03 -6.11985E+03 -1.72271E+02 -4.50481E+03 -3.58057E+03
 -1.80845E+03 -5.30154E+03  1.24901E+03 -3.95519E+03  3.05940E+03 -2.61116E+03  3.44888E+03  1.71244E+02
  1.61708E+03  1.42019E+03 -1.24977E+02  1.38558E+03 -1.24398E+03 -5.16100E+02  1.90414E+02 -1.21088E+03
  1.49636E+03  1.39879E+02  1.57746E+03  9.51703E+02  8.78464E+02  2.04861E+03  4.49274E+02  1.84734E+03
 -1.29111E+03  3.02341E+03 -2.46228E+03  4.17765E+02 -2.20390E+03 -2.04902E+03 -8.00733E+02 -3.74490E+03
  2.11454E+03 -2.98371E+03  3.54284E+03 -7.22320E+02  3.63146E+03  8.87179E+02  2.20665E+03  3.08925E+03
  7.91284E+02  3.02318E+03 -3.88896E+02  2.19707E+03 -2.27093E+03  1.74518E+03 -1.56955E+03 -3.04021E+02
 -9.32889E+02 -3.91965E+02 -8.64642E+02  3.79965E+02 -2.06936E+03  3.90769E+02 -2.03212E+03 -7.58387E+02
 -2.33067E+03 -1.36261E+03 -7.86579E+02 -2.76915E+03  1.31120E+03 -3.80209E+03  2.83275E+03 -1.75411E+03
  3.26548E+03  8.17765E+02  1.26721E+03  2.13717E+03 -5.74007E+02  2.92985E+03 -1.79043E+03  2.69080E+03
