 $NMID ID='MM_0lb_SNR400_7hz_g60_4.RAW', FMTDAT='(8E13.5)'
 TRAMP=1., VOLUME=1. $END
  3.10071E+05  5.48913E+02  3.37878E+05  2.49839E+05  8.54197E+04  3.38183E+05 -1.33050E+05  2.52671E+05
 -1.91722E+05  8.41396E+04 -1.13643E+05 -3.22821E+04 -6.68922E+02 -5.15618E+04  5.42345E+04 -1.13081E+03
  3.62868E+04  5.33691E+04 -1.72270E+04  7.57379E+04 -6.17328E+04  6.40782E+04 -8.60177E+04  3.30655E+04
 -8.36935E+04 -1.19037E+04 -5.91076E+04 -5.29038E+04 -1.45008E+04 -7.26288E+04  2.95595E+04 -4.65143E+04
  4.16987E+04  3.23817E+03  1.69355E+04  4.86651E+04 -3.56143E+04  4.92443E+04 -6.91868E+04  2.62742E+02
 -5.53032E+04 -5.82529E+04 -7.61971E+03 -7.99495E+04  3.49125E+04 -5.76799E+04  5.12832E+04 -1.94706E+04
  4.62488E+04  1.07634E+04  3.29257E+04  2.73404E+04  1.58513E+04  3.12224E+04 -5.82494E+03  2.78515E+04
 -2.27146E+04  1.16632E+04 -1.78337E+04 -5.42085E+03  9.01148E+03 -8.42675E+03  2.38711E+04  1.47749E+04
  7.42440E+03  4.02237E+04 -3.50666E+04  3.79711E+04 -6.74195E+04  2.49798E+03 -5.99913E+04 -4.53728E+04
 -1.30100E+04 -6.77045E+04  4.29967E+04 -4.85863E+04  6.31611E+04 -2.51873E+03  3.83444E+04  3.68092E+04
 -5.27309E+03  4.16638E+04 -3.29003E+04  1.98515E+04 -3.58251E+04 -2.95552E+03 -1.98718E+04 -1.25182E+04
 -9.71574E+03 -1.57466E+04 -5.26065E+02 -2.04805E+04  8.92478E+03 -2.35158E+04  1.63473E+04 -1.21271E+04
  9.09796E+03  7.18810E+03 -1.23011E+04  1.31866E+04 -2.52944E+04 -9.20225E+03 -9.10999E+03 -3.95448E+04
  2.61433E+04 -4.85547E+04  5.44775E+04 -2.14644E+04  5.10616E+04  2.16815E+04  1.85776E+04  4.87868E+04
 -1.65321E+04  3.75595E+04 -2.90024E+04  3.59234E+03 -1.35121E+04 -2.99021E+04  2.08102E+04 -3.92344E+04
  4.66870E+04 -1.34317E+04  4.36437E+04  2.56714E+04  2.37000E+04  5.27877E+04 -8.54911E+03  6.00127E+04
 -3.69722E+04  4.15562E+04 -5.09251E+04  1.17169E+04 -5.10223E+04 -1.99753E+04 -2.73138E+04 -4.39840E+04
  8.10431E+03 -4.46670E+04  3.60094E+04 -1.82624E+04  3.35964E+04  1.18819E+04  6.07990E+03  2.12576E+04
 -1.46006E+04  1.04460E+04 -1.07618E+04 -7.03774E+03  5.67026E+03 -1.26411E+04  1.89960E+04  5.64262E+03
  1.49055E+04  2.22577E+04 -4.95525E+03  2.73487E+04 -2.48076E+04  1.57955E+04 -3.33331E+04 -1.55658E+03
 -2.79502E+04 -1.93166E+04 -1.33069E+04 -2.78984E+04  5.37486E+03 -2.96471E+04  2.29493E+04 -2.58741E+04
  3.53923E+04 -1.53348E+04  4.24637E+04  5.99652E+03  2.91965E+04  2.80694E+04  4.65839E+03  4.46090E+04
 -2.21426E+04  3.52758E+04 -3.26166E+04  1.28007E+04 -2.43085E+04 -1.04881E+04 -5.95181E+03 -1.30891E+04
  2.12751E+01  2.49508E+02 -1.01613E+04  1.02693E+04 -2.29599E+04  4.58884E+03 -2.25253E+04 -1.16948E+04
 -1.23527E+04 -2.62617E+04  6.87783E+03 -3.00603E+04  2.11811E+04 -2.17656E+04  2.66929E+04 -1.89639E+03
  1.65355E+04  1.84964E+04 -1.58131E+03  2.56151E+04 -1.83767E+04  1.58010E+04 -2.74911E+04 -4.96578E+03
 -1.97395E+04 -2.36620E+04 -2.48396E+03 -3.15146E+04  1.39751E+04 -2.64668E+04  2.63494E+04 -1.42200E+04
  2.50877E+04 -3.54579E+01  1.84175E+04  6.47275E+03  9.75137E+03  1.08902E+03  1.36205E+04 -2.27365E+03
  2.53587E+04  3.10902E+03  2.82279E+04  2.01783E+04  1.99327E+04  4.32960E+04 -1.95714E+03  5.08204E+04
 -2.98326E+04  4.27105E+04 -4.78623E+04  2.28191E+04 -5.13624E+04 -3.87503E+03 -4.15648E+04 -3.10802E+04
 -1.72143E+04 -4.27214E+04  1.57012E+04 -3.71994E+04  3.29896E+04 -1.65810E+04  2.75875E+04  1.03993E+04
  9.40462E+03  2.11525E+04 -1.32659E+04  1.86285E+04 -2.23324E+04  2.41407E+03 -1.70265E+04 -1.48571E+04
 -4.16087E+02 -2.14956E+04  1.11876E+04 -1.63133E+04  1.53892E+04 -4.94599E+02  4.23650E+03  9.13744E+03
 -9.79770E+03  4.75902E+03 -1.10281E+04 -7.79518E+03 -3.09869E+03 -2.10051E+04  1.33505E+04 -2.29356E+04
  2.55547E+04 -1.45716E+04  3.18699E+04  3.82568E+03  2.87384E+04  2.23760E+04  1.25250E+04  3.50896E+04
 -7.15694E+03  3.72977E+04 -2.50730E+04  2.21075E+04 -2.71733E+04  4.62258E+03 -1.79476E+04 -7.60015E+03
 -7.45417E+03 -9.05829E+03 -6.97157E+02 -5.35311E+01 -3.31377E+03  3.74716E+03 -8.09379E+03  6.33087E+03
 -1.60177E+04 -1.87215E+03 -1.73458E+04 -1.33064E+04 -7.23038E+03 -2.28041E+04  8.70992E+03 -1.86161E+04
  1.56227E+04 -7.31332E+03  1.14517E+04  4.64257E+03 -4.94466E+02  7.12697E+03 -1.02104E+04  3.18222E+02
 -9.56885E+03 -1.17465E+04 -3.96296E+02 -1.93610E+04  1.06535E+04 -1.96585E+04  2.38009E+04 -1.07509E+04
  2.77491E+04  2.82824E+03  2.02122E+04  1.79630E+04  3.29855E+03  2.28445E+04 -1.11223E+04  1.88146E+04
 -1.55898E+04  4.60936E+03 -7.25554E+03 -4.00554E+03  2.45722E+03 -5.17470E+03  8.80974E+03 -6.41988E+02
  8.42720E+03  8.44383E+03  1.16171E+03  1.51511E+04 -1.08900E+04  1.31740E+04 -1.86721E+04  3.85369E+03
 -1.30695E+04 -1.01828E+04  3.76267E+02 -1.79293E+04  1.06471E+04 -8.52191E+03  1.21923E+04  5.34597E+03
  2.18717E+03  1.21885E+04 -9.86540E+03  1.36429E+04 -1.79056E+04  6.57486E+03 -1.79054E+04 -5.68599E+03
 -1.04901E+04 -2.00996E+04  5.05661E+03 -2.35539E+04  2.02288E+04 -1.37798E+04  2.17054E+04  3.28716E+03
  1.22455E+04  1.58787E+04 -2.17914E+03  1.93765E+04 -1.46582E+04  1.13390E+04 -1.62601E+04 -2.09939E+03
 -1.27832E+04 -1.27594E+04 -2.12412E+03 -1.57662E+04  8.44733E+03 -1.13239E+04  1.03357E+04 -4.19847E+03
  6.79633E+03  3.08339E+03 -2.17134E+03  2.51263E+03 -2.32480E+03 -5.44933E+03  4.65604E+03 -9.69554E+03
  1.46444E+04 -7.23352E+03  2.05642E+04  2.45392E+03  2.08340E+04  1.46347E+04  1.22800E+04  2.76811E+04
 -5.77817E+03  3.08951E+04 -2.59023E+04  2.26440E+04 -3.25842E+04  4.28876E+03 -2.63245E+04 -1.19110E+04
 -1.37879E+04 -2.21925E+04 -7.15961E+02 -1.87004E+04  5.83156E+03 -1.06446E+04  6.73883E+03 -6.23764E+03
  5.43492E+03 -4.02559E+03  4.00698E+03 -5.19700E+03  7.69028E+03 -4.95994E+03  1.00636E+04 -2.73688E+03
  1.37947E+04  4.06592E+03  9.25217E+03  1.25610E+04 -1.70619E+03  1.51114E+04 -1.53925E+04  1.13375E+04
 -1.88601E+04 -1.26529E+03 -1.35297E+04 -1.35794E+04 -1.46448E+03 -2.06944E+04  1.14398E+04 -2.08329E+04
  2.15630E+04 -1.11519E+04  2.54429E+04  4.23215E+03  1.77346E+04  1.81217E+04  2.72604E+03  2.30376E+04
 -9.45868E+03  1.87520E+04 -1.32389E+04  6.36869E+03 -9.40763E+03 -1.83867E+03 -3.64952E+03 -2.65475E+03
 -1.74416E+03 -7.43066E+02 -3.92614E+03  2.84041E+03 -8.32797E+03  3.43271E+03 -1.21154E+04 -2.24735E+03
 -1.06769E+04 -1.19916E+04 -4.94564E+02 -2.06941E+04  1.24568E+04 -1.84966E+04  2.07128E+04 -6.27110E+03
  1.90675E+04  9.71139E+03  9.16158E+03  1.80411E+04 -4.74038E+03  1.96912E+04 -1.46084E+04  1.34895E+04
 -1.85102E+04  2.75652E+02 -1.49145E+04 -1.16324E+04 -2.79367E+03 -1.71597E+04  8.26071E+03 -1.24927E+04
  1.29600E+04 -3.63405E+03  8.85480E+03  3.51721E+03  4.24792E+03  5.01428E+03  1.46388E+03  3.80995E+03
  3.74178E+03  2.06452E+03  4.60215E+03  2.50791E+03  6.02543E+03  5.94960E+03  4.82548E+03  1.11586E+04
 -4.55023E+03  1.51537E+04 -1.48150E+04  1.57130E+04 -2.16479E+04  5.03448E+03 -2.12113E+04 -8.90646E+03
 -1.08949E+04 -1.92701E+04  3.51562E+03 -2.25862E+04  1.22599E+04 -1.46805E+04  1.72240E+04 -4.99233E+03
  1.36599E+04  7.71242E+03  3.04635E+03  1.18075E+04 -5.79035E+03  8.07532E+03 -8.61515E+03 -2.25276E+03
 -3.08414E+03 -9.91781E+03  5.25519E+03 -9.43481E+03  8.89856E+03 -5.25829E+03  9.30359E+03  1.91168E+03
  5.17106E+03  5.20527E+03  1.42275E+03  3.75995E+03 -9.71953E+02  3.30483E+03  1.71340E+03 -1.87818E+03
  3.94044E+03 -1.35122E+03  8.19473E+03  3.67143E+03  5.18663E+03  1.21553E+04 -2.40598E+03  1.50330E+04
 -1.09101E+04  9.80927E+03 -1.40759E+04  3.60570E+03 -1.29328E+04 -5.18236E+03 -5.26600E+03 -8.38290E+03
  6.40020E+02 -9.83164E+03  6.45576E+03 -3.72708E+03  5.12600E+03  3.73204E+03 -1.35314E+03  7.41848E+03
 -8.32625E+03  3.51875E+03 -1.04626E+04 -4.79731E+03 -5.25217E+03 -1.13735E+04  1.46960E+03 -1.21519E+04
  7.24898E+03 -8.55715E+03  8.98627E+03 -1.89420E+03  6.09383E+03  2.40523E+03  1.02148E+03  6.08192E+03
 -4.24351E+03  2.66199E+03 -5.43083E+03 -4.27804E+03  1.16670E+03 -9.65807E+03  1.07874E+04 -8.95497E+03
  1.38337E+04  7.54185E+02  1.33042E+04  9.93932E+03  4.31649E+03  1.51382E+04 -6.12635E+03  1.33928E+04
 -1.25547E+04  6.00843E+03 -1.22480E+04 -1.13243E+03 -7.60880E+03 -1.01674E+04  2.28139E+03 -9.70651E+03
  8.85940E+03 -4.45578E+03  8.44836E+03  3.48570E+03  3.41005E+03  8.08429E+03 -9.45738E+02  6.33977E+03
 -4.09073E+03  3.56061E+03 -3.29567E+03  1.17452E+03 -2.66907E+03  1.79671E+03 -2.37695E+03  2.36105E+03
 -4.19009E+03  4.64820E+03 -1.06101E+04  4.56662E+03 -1.49549E+04  5.38980E+02 -1.71293E+04 -1.03294E+04
 -8.99360E+03 -1.91998E+04  2.99746E+03 -2.33371E+04  1.50634E+04 -1.72360E+04  2.20738E+04 -6.73355E+03
  1.97591E+04  5.42200E+03  1.22980E+04  1.37085E+04  1.16761E+03  1.66209E+04 -6.37481E+03  1.20847E+04
 -8.54686E+03  4.70234E+03 -5.87255E+03 -1.64225E+03 -6.91006E+02 -2.50380E+03  1.87041E+02 -6.91135E+02
 -2.56447E+03  1.43206E+02 -3.16471E+03 -1.18842E+03 -9.65528E+02 -3.16109E+03  1.00883E+03 -5.69522E+03
  6.68825E+03 -4.51009E+03  1.07063E+04  4.13195E+02  1.13588E+04  7.76730E+03  2.94197E+03  1.62102E+04
 -8.76594E+03  1.87226E+04 -1.72951E+04  9.94506E+03 -1.92014E+04 -2.89683E+03 -1.52791E+04 -1.21195E+04
 -6.60444E+03 -1.63252E+04  4.44087E+03 -1.52126E+04  1.08915E+04 -8.03030E+03  1.04615E+04 -5.46436E+02
  6.09742E+03  5.70654E+03 -1.45024E+03  3.62405E+03 -3.74099E+03  2.71447E+02  5.53298E+02 -3.51165E+03
  4.79319E+03 -2.73627E+03  7.14826E+03  2.67519E+03  4.29871E+03  6.72647E+03 -2.25950E+02  9.44378E+03
 -7.13934E+03  7.71752E+03 -1.10831E+04  2.11904E+02 -1.03087E+04 -7.73146E+03 -8.48395E+02 -1.44574E+04
  8.22666E+03 -1.20344E+04  1.23382E+04 -3.18297E+03  1.34499E+04  3.51812E+03  8.47465E+03  1.05455E+04
  4.60379E+02  1.14376E+04 -4.30126E+03  8.58059E+03 -7.75250E+03  5.34844E+03 -5.90428E+03  1.43731E+03
 -3.42308E+03 -3.87195E+02 -3.37699E+03  2.03962E+03 -6.24423E+03  2.31623E+03 -7.74929E+03 -1.70556E+03
 -7.47856E+03 -5.93306E+03 -2.44341E+03 -1.16647E+04  4.48157E+03 -1.23378E+04  9.87005E+03 -6.35175E+03
  1.08848E+04  1.36747E+03  6.98930E+03  8.61247E+03 -7.50660E+02  1.19765E+04 -8.68780E+03  7.25937E+03
