 $NMID ID='MM_0lb_SNR400_12hz_g50_52.RAW', FMTDAT='(8E13.5)'
 TRAMP=1., VOLUME=1. $END
  3.09735E+05  4.48033E+02  3.37675E+05  2.50534E+05  8.52202E+04  3.37841E+05 -1.32904E+05  2.51653E+05
 -1.90596E+05  8.33476E+04 -1.12457E+05 -3.25791E+04  5.92071E+02 -5.07551E+04  5.32142E+04 -2.00459E+02
  3.54465E+04  5.25281E+04 -1.71211E+04  7.55259E+04 -6.10248E+04  6.32170E+04 -8.46360E+04  3.23546E+04
 -8.14498E+04 -1.12246E+04 -5.80525E+04 -5.19181E+04 -1.54183E+04 -7.02981E+04  2.75207E+04 -4.69997E+04
  4.09387E+04  3.46391E+03  1.65564E+04  4.80730E+04 -3.43269E+04  4.72527E+04 -6.71534E+04 -3.47490E+02
 -5.41961E+04 -5.73182E+04 -7.05351E+03 -7.80123E+04  3.37482E+04 -5.56663E+04  4.87334E+04 -1.79154E+04
  4.49816E+04  1.13718E+04  3.22807E+04  2.58821E+04  1.54604E+04  2.94750E+04 -5.41758E+03  2.70729E+04
 -2.32678E+04  1.15295E+04 -1.86610E+04 -4.65402E+03  6.00824E+03 -7.34196E+03  2.28060E+04  1.24412E+04
  7.00668E+03  3.58075E+04 -3.35219E+04  3.56915E+04 -6.46109E+04  1.89471E+03 -5.78075E+04 -4.43280E+04
 -1.21260E+04 -6.43358E+04  4.06558E+04 -4.63195E+04  5.91373E+04 -2.11217E+03  3.58242E+04  3.31529E+04
 -6.04285E+03  3.71581E+04 -3.04566E+04  1.78074E+04 -3.18095E+04 -3.59217E+03 -1.76427E+04 -1.08802E+04
 -8.01410E+03 -1.42685E+04 -1.10409E+03 -1.90089E+04  6.95574E+03 -2.37019E+04  1.56750E+04 -1.27941E+04
  1.10615E+04  6.19381E+03 -8.71317E+03  1.23843E+04 -2.25017E+04 -4.91631E+03 -8.58593E+03 -3.49961E+04
  2.37131E+04 -4.51890E+04  4.96488E+04 -2.02560E+04  4.68197E+04  2.05768E+04  1.63064E+04  4.50918E+04
 -1.60278E+04  3.48390E+04 -2.63196E+04  2.50389E+03 -1.06174E+04 -2.82096E+04  2.15856E+04 -3.52410E+04
  4.23793E+04 -1.00388E+04  3.73491E+04  2.39181E+04  1.98397E+04  4.81361E+04 -7.90893E+03  5.28776E+04
 -3.30625E+04  3.59896E+04 -4.39215E+04  1.07186E+04 -4.41772E+04 -1.79531E+04 -2.49601E+04 -3.95009E+04
  6.90838E+03 -3.90740E+04  3.26238E+04 -1.60608E+04  2.99585E+04  1.10918E+04  4.69775E+03  1.98736E+04
 -1.31825E+04  9.27528E+03 -1.16303E+04 -7.43689E+03  6.05843E+03 -1.09203E+04  1.89033E+04  6.11018E+03
  1.40121E+04  2.22359E+04 -6.03094E+03  2.59253E+04 -2.30362E+04  1.27759E+04 -2.96398E+04 -4.10626E+03
 -2.24604E+04 -1.83311E+04 -9.31417E+03 -2.22684E+04  4.43241E+03 -2.16549E+04  1.71878E+04 -2.02933E+04
  2.84043E+04 -1.27519E+04  3.53020E+04  2.99525E+03  2.52759E+04  2.17908E+04  4.60129E+03  3.86340E+04
 -1.84942E+04  3.17093E+04 -2.91135E+04  1.10771E+04 -2.17908E+04 -1.05262E+04 -4.27383E+03 -1.37543E+04
  1.56335E+03 -2.05715E+03 -6.54331E+03  6.76380E+03 -1.70990E+04  5.09196E+03 -1.76602E+04 -8.10969E+03
 -1.11185E+04 -2.09671E+04  5.60212E+03 -2.47500E+04  1.64640E+04 -1.75609E+04  2.02468E+04 -1.81745E+03
  1.32097E+04  1.42075E+04 -1.26165E+03  2.05236E+04 -1.43123E+04  1.16077E+04 -2.11465E+04 -4.28082E+03
 -1.55601E+04 -1.88710E+04 -2.06041E+03 -2.48215E+04  1.18474E+04 -2.10653E+04  2.10913E+04 -1.01818E+04
  1.92302E+04  1.68293E+02  1.43571E+04  4.35257E+03  8.17635E+03  1.16199E+03  1.09910E+04 -2.16025E+03
  1.95671E+04  3.36416E+03  2.17040E+04  1.57490E+04  1.45475E+04  3.40945E+04 -3.19538E+03  3.83239E+04
 -2.14023E+04  3.17226E+04 -3.53389E+04  1.58252E+04 -3.81781E+04 -3.42966E+03 -3.06573E+04 -2.17932E+04
 -1.33158E+04 -3.12185E+04  1.10555E+04 -2.78619E+04  2.38768E+04 -1.37140E+04  2.12420E+04  5.60986E+03
  7.64171E+03  1.63808E+04 -9.67817E+03  1.44221E+04 -1.79883E+04  2.18804E+03 -1.29374E+04 -1.14406E+04
 -7.71853E+02 -1.70333E+04  9.14010E+03 -1.23836E+04  1.16576E+04 -1.17473E+03  2.65795E+03  7.56165E+03
 -7.44344E+03  3.40284E+03 -7.63388E+03 -6.11755E+03 -9.11517E+02 -1.57753E+04  1.00856E+04 -1.60472E+04
  1.91230E+04 -8.76781E+03  2.13630E+04  2.57077E+03  1.86658E+04  1.51143E+04  9.20253E+03  2.33613E+04
 -3.87624E+03  2.57776E+04 -1.62491E+04  1.58127E+04 -1.82285E+04  3.04483E+03 -1.29221E+04 -4.37001E+03
 -5.57169E+03 -6.10205E+03 -7.98934E+02  9.67493E+02 -2.76384E+03  2.89801E+03 -6.30376E+03  5.10399E+03
 -1.18910E+04 -9.46839E+02 -1.21419E+04 -1.03288E+04 -5.14451E+03 -1.65477E+04  4.77812E+03 -1.25098E+04
  1.07923E+04 -5.08332E+03  7.62461E+03  3.28643E+03 -3.41111E+02  5.00765E+03 -6.38727E+03 -4.32419E+02
 -5.50617E+03 -7.58823E+03 -2.87329E+02 -1.23248E+04  6.68168E+03 -1.29848E+04  1.68233E+04 -6.84202E+03
  1.89891E+04  1.72023E+03  1.33958E+04  1.16088E+04  2.16386E+03  1.52129E+04 -7.60875E+03  1.22462E+04
 -1.07426E+04  3.53518E+03 -4.96471E+03 -2.98417E+03  2.13818E+03 -3.14924E+03  6.77704E+03 -8.61406E+02
  6.03032E+03  6.08123E+03  1.82629E+03  1.00277E+04 -7.49263E+03  9.57787E+03 -1.26933E+04  2.64960E+03
 -8.49283E+03 -7.24251E+03  6.53036E+02 -1.14608E+04  6.50265E+03 -5.82093E+03  7.26995E+03  2.07701E+03
  1.81249E+03  7.37373E+03 -6.10360E+03  8.93481E+03 -1.05693E+04  4.18996E+03 -9.77681E+03 -3.63098E+03
 -6.28339E+03 -1.19062E+04  3.02966E+03 -1.40236E+04  1.15937E+04 -8.77736E+03  1.23119E+04  2.12666E+03
  7.93203E+03  1.00916E+04 -1.15069E+03  1.28639E+04 -9.19061E+03  6.54833E+03 -9.29238E+03 -1.53527E+03
 -8.98109E+03 -8.49556E+03 -1.54799E+03 -8.94007E+03  5.64342E+03 -8.18828E+03  5.64157E+03 -2.79117E+03
  3.78330E+03  1.59564E+03 -1.26052E+03  1.67155E+03 -3.10300E+02 -2.21887E+03  1.61078E+03 -5.07212E+03
  9.12547E+03 -2.92215E+03  1.22261E+04  1.75975E+03  1.16967E+04  7.99687E+03  7.78006E+03  1.55120E+04
 -3.40568E+03  1.82067E+04 -1.50062E+04  1.32250E+04 -1.90913E+04  2.44425E+03 -1.55150E+04 -6.50409E+03
 -7.66960E+03 -1.28062E+04 -1.42136E+02 -1.12154E+04  4.00119E+03 -5.29861E+03  3.22383E+03 -3.74649E+03
  2.78644E+03 -2.50506E+03  3.18142E+03 -3.11300E+03  4.49770E+03 -2.22618E+03  6.48314E+03 -3.01406E+02
  7.96128E+03  2.14058E+03  3.94054E+03  7.14078E+03 -2.15817E+03  7.70781E+03 -8.61136E+03  6.12739E+03
 -1.06596E+04 -1.52624E+03 -5.87910E+03 -7.29831E+03 -5.69299E+02 -1.10110E+04  6.61644E+03 -1.16809E+04
  1.17587E+04 -6.35342E+03  1.47662E+04  1.05963E+03  1.01929E+04  1.02787E+04  1.85315E+03  1.23419E+04
 -5.22184E+03  1.14410E+04 -7.88632E+03  3.62712E+03 -4.74049E+03 -9.04196E+02 -1.84835E+03 -1.45441E+03
 -1.55766E+03 -2.69539E+02 -2.93172E+03  2.95864E+03 -4.90238E+03  1.89591E+03 -7.78736E+03 -1.32072E+03
 -5.43651E+03 -7.12705E+03  3.07197E+02 -1.07386E+04  5.73250E+03 -9.43744E+03  1.02399E+04 -2.98583E+03
  9.40650E+03  5.46906E+03  4.91369E+03  8.80109E+03 -1.80191E+03  1.08062E+04 -7.29643E+03  5.93973E+03
 -9.08977E+03  8.82651E+02 -8.02064E+03 -6.16475E+03 -4.67475E+02 -8.20275E+03  4.39325E+03 -6.76017E+03
  6.64442E+03 -2.56071E+03  4.80295E+03  2.00687E+03  1.44214E+03  2.95148E+03  8.52841E+02  1.53068E+03
  2.62666E+03  1.58350E+03  2.44455E+03  1.83895E+03  3.07003E+03  4.86838E+03  3.74433E+03  4.10811E+03
 -2.13797E+03  7.81368E+03 -7.37887E+03  7.86391E+03 -1.03627E+04  1.91390E+03 -1.13543E+04 -3.56617E+03
 -5.72500E+03 -9.71888E+03  1.20698E+03 -1.10839E+04  6.35117E+03 -7.42626E+03  9.00938E+03 -1.67109E+03
  6.67928E+03  3.43322E+03  1.14862E+03  5.30566E+03 -2.20809E+03  3.19201E+03 -3.74575E+03 -2.12192E+02
 -1.36549E+03 -4.31613E+03  2.83129E+03 -3.85288E+03  4.59012E+03 -2.39732E+03  4.17218E+03  8.20463E+02
  2.10417E+03  1.20384E+03  1.86050E+03  1.36706E+03 -7.01797E+02  1.45659E+03  1.88495E+03 -6.77109E+02
  1.87362E+03 -9.50344E+02  4.10479E+03  1.25797E+03  2.52493E+03  5.12323E+03 -6.92167E+02  6.65084E+03
 -4.88306E+03  3.84110E+03 -6.64815E+03  1.29464E+03 -5.34275E+03 -2.53251E+03 -2.36028E+03 -3.60881E+03
  5.41605E+02 -4.25085E+03  3.44430E+03 -1.57397E+03  1.95954E+03  1.70512E+03 -7.89075E+02  2.64344E+03
 -3.87738E+03  2.60337E+03 -4.22900E+03 -2.01469E+03 -2.05017E+03 -5.71968E+03  7.90449E+02 -5.68573E+03
  2.58478E+03 -3.15152E+03  3.58731E+03  4.70932E+02  2.95345E+03  1.56243E+03  1.39425E+03  2.77455E+03
 -1.68624E+03  5.96051E+02 -2.40553E+03 -1.58970E+03  2.16990E+03 -3.78645E+03  4.50200E+03 -3.11281E+03
  6.04651E+03  8.66379E+01  6.52283E+03  4.65839E+03  2.06605E+03  6.49299E+03 -2.50097E+03  6.16922E+03
 -4.61296E+03  2.37438E+03 -6.20000E+03 -6.92674E+02 -2.91573E+03 -3.70226E+03  7.56576E+02 -3.84875E+03
  4.01650E+03 -1.99001E+03  3.59656E+03  2.12390E+03  1.22831E+03  3.43241E+03  9.91693E+01  2.96402E+03
 -1.79983E+03  2.69453E+03 -2.19332E+03  1.12977E+03 -3.95985E+02  4.82372E+02 -9.05702E+02  1.30391E+03
 -1.72321E+03  1.87014E+03 -4.15428E+03  1.62872E+03 -6.33614E+03  8.05786E+01 -6.55645E+03 -3.37677E+03
 -3.57952E+03 -8.00832E+03  1.90660E+03 -8.99915E+03  5.61017E+03 -7.68850E+03  8.20962E+03 -3.03845E+03
  8.17813E+03  2.11771E+03  4.76150E+03  5.49898E+03 -3.75501E+02  6.10688E+03 -2.82513E+03  4.91345E+03
 -3.63775E+03  2.35309E+03 -2.19219E+03 -1.04828E+03 -3.81132E+02 -5.99723E+02 -8.00400E+02 -7.28224E+01
 -1.52210E+03  9.26609E+01 -1.05269E+03  4.70115E+02 -5.76642E+02 -1.12429E+03  2.24924E+02 -1.77388E+03
  2.54938E+03 -1.93454E+03  3.10486E+03 -1.98287E+02  4.13204E+03  3.65202E+03  8.69996E+02  5.43521E+03
 -2.71915E+03  7.02139E+03 -6.34383E+03  4.26757E+03 -7.52130E+03 -3.49544E+02 -5.18443E+03 -4.47306E+03
 -2.35202E+03 -5.86954E+03  1.22285E+03 -5.64526E+03  4.06620E+03 -3.72793E+03  4.19663E+03 -3.99546E+01
  2.52446E+03  1.81303E+03 -5.53941E+02  2.35161E+03 -1.29780E+03 -4.32697E+01 -7.01286E+02 -7.44534E+02
  1.64489E+03 -1.85147E+02  1.83615E+03  7.09876E+02  1.91666E+03  3.28873E+03  1.08330E+02  3.16053E+03
 -2.92826E+03  2.91306E+03 -3.81503E+03  1.02665E+02 -3.37315E+03 -2.05721E+03 -3.75493E+02 -5.07557E+03
  3.00421E+03 -3.45475E+03  3.84959E+03 -1.00150E+03  4.20828E+03  6.88351E+02  2.72154E+03  3.56566E+03
 -1.50690E+02  3.87238E+03 -8.09788E+02  2.46714E+03 -2.39253E+03  1.97046E+03 -2.40339E+03 -4.93735E+02
 -9.99176E+02 -3.51448E+02 -1.31624E+03  7.10188E+02 -1.71036E+03  3.62641E+02 -2.83835E+03 -1.07280E+03
 -2.78915E+03 -1.87973E+03 -1.13449E+03 -3.59997E+03  1.86729E+03 -4.41485E+03  3.36808E+03 -1.20472E+03
  2.81186E+03  4.49201E+02  1.57019E+03  2.51526E+03 -7.99568E+02  3.89088E+03 -1.90524E+03  2.73975E+03
