 $NMID ID='MM_0lb_SNR400_16hz_g60_2.RAW', FMTDAT='(8E13.5)'
 TRAMP=1., VOLUME=1. $END
  3.09688E+05  8.65688E+02  3.37762E+05  2.50254E+05  8.46338E+04  3.37916E+05 -1.33079E+05  2.50782E+05
 -1.90287E+05  8.35900E+04 -1.11875E+05 -3.24174E+04  3.29480E+02 -5.05579E+04  5.37007E+04  3.30229E+02
  3.51170E+04  5.26731E+04 -1.73534E+04  7.50425E+04 -6.14491E+04  6.35833E+04 -8.47665E+04  3.18273E+04
 -8.05617E+04 -1.18471E+04 -5.75320E+04 -5.13924E+04 -1.45029E+04 -6.95576E+04  2.76896E+04 -4.54174E+04
  4.03865E+04  3.67875E+03  1.59056E+04  4.79626E+04 -3.39470E+04  4.79857E+04 -6.72124E+04 -1.44911E+02
 -5.35779E+04 -5.72393E+04 -6.92118E+03 -7.68641E+04  3.41601E+04 -5.52298E+04  4.81510E+04 -1.69943E+04
  4.33863E+04  1.13684E+04  3.14013E+04  2.54970E+04  1.60304E+04  2.95765E+04 -4.87760E+03  2.70595E+04
 -2.21682E+04  1.24155E+04 -1.88659E+04 -5.21063E+03  6.21630E+03 -7.87199E+03  2.27623E+04  1.19289E+04
  7.56082E+03  3.56890E+04 -3.21878E+04  3.55962E+04 -6.39453E+04  2.20135E+03 -5.72529E+04 -4.29545E+04
 -1.22465E+04 -6.35930E+04  3.95740E+04 -4.48789E+04  5.78759E+04 -1.85113E+03  3.42796E+04  3.26743E+04
 -5.58452E+03  3.61648E+04 -3.02069E+04  1.54242E+04 -3.01790E+04 -4.62073E+03 -1.67028E+04 -1.14093E+04
 -9.48589E+03 -1.28465E+04 -5.96948E+02 -1.78548E+04  7.61350E+03 -2.28457E+04  1.59563E+04 -1.30889E+04
  1.13623E+04  5.09894E+03 -8.02192E+03  1.32461E+04 -2.10289E+04 -4.34147E+03 -8.59505E+03 -3.38833E+04
  2.31630E+04 -4.33485E+04  4.78709E+04 -1.94754E+04  4.49152E+04  2.05297E+04  1.55065E+04  4.41936E+04
 -1.63943E+04  3.33019E+04 -2.50386E+04  2.30469E+03 -1.01443E+04 -2.78276E+04  2.10150E+04 -3.37331E+04
  4.15664E+04 -9.31740E+03  3.50380E+04  2.35100E+04  1.80207E+04  4.66645E+04 -7.65010E+03  5.05571E+04
 -3.15001E+04  3.33127E+04 -4.22663E+04  9.92653E+03 -4.29906E+04 -1.68731E+04 -2.31560E+04 -3.77461E+04
  6.55019E+03 -3.77139E+04  3.18383E+04 -1.47392E+04  2.83360E+04  1.13872E+04  3.77209E+03  1.90061E+04
 -1.30950E+04  8.51019E+03 -1.07149E+04 -7.55138E+03  6.14195E+03 -1.09216E+04  1.81965E+04  5.59847E+03
  1.31344E+04  2.19432E+04 -6.02897E+03  2.53320E+04 -2.22166E+04  1.14444E+04 -2.77848E+04 -5.08520E+03
 -2.02514E+04 -1.76002E+04 -8.13592E+03 -2.02261E+04  3.50038E+03 -1.92311E+04  1.55832E+04 -1.81632E+04
  2.59990E+04 -1.33236E+04  3.26409E+04  3.10565E+03  2.34469E+04  1.96045E+04  4.39865E+03  3.63822E+04
 -1.74624E+04  3.02181E+04 -2.72890E+04  9.72391E+03 -2.04737E+04 -1.07113E+04 -4.77591E+03 -1.34444E+04
  2.17322E+03 -2.91131E+03 -5.19566E+03  6.55822E+03 -1.55452E+04  4.93109E+03 -1.65444E+04 -6.50509E+03
 -1.00558E+04 -1.83766E+04  5.04422E+03 -2.31133E+04  1.52283E+04 -1.67359E+04  1.74959E+04 -9.30998E+02
  1.16669E+04  1.31026E+04 -7.57174E+02  1.89041E+04 -1.23982E+04  1.05009E+04 -1.82977E+04 -4.09154E+03
 -1.45467E+04 -1.67114E+04 -2.10250E+03 -2.25073E+04  1.03077E+04 -1.83584E+04  1.87778E+04 -9.37330E+03
  1.69036E+04  5.59070E+01  1.22437E+04  4.43489E+03  6.41917E+03  3.74517E+02  9.83509E+03 -1.64233E+03
  1.68076E+04  3.20127E+03  1.87325E+04  1.48378E+04  1.26312E+04  2.94609E+04 -2.97256E+03  3.35016E+04
 -1.94381E+04  2.63246E+04 -3.10724E+04  1.32558E+04 -3.22733E+04 -2.29446E+03 -2.73281E+04 -1.88302E+04
 -1.14952E+04 -2.67912E+04  9.55115E+03 -2.42930E+04  2.02565E+04 -1.28018E+04  1.86700E+04  5.04623E+03
  7.73639E+03  1.36463E+04 -8.28459E+03  1.27310E+04 -1.59179E+04  2.49053E+03 -1.18936E+04 -9.84942E+03
 -6.34953E+02 -1.47664E+04  7.32719E+03 -1.08389E+04  9.46890E+03 -1.77939E+03  2.26556E+03  6.12718E+03
 -6.79791E+03  2.22370E+03 -5.77638E+03 -5.19743E+03 -5.07322E+01 -1.29358E+04  9.26532E+03 -1.31628E+04
  1.59473E+04 -7.00736E+03  1.68268E+04  2.84712E+03  1.44663E+04  1.28094E+04  6.63404E+03  1.88260E+04
 -2.88815E+03  2.15103E+04 -1.33060E+04  1.38694E+04 -1.52450E+04  3.30049E+03 -1.08462E+04 -3.58591E+03
 -4.77425E+03 -4.74125E+03 -6.15197E+02  3.55144E+02 -2.12762E+03  2.05566E+03 -5.08424E+03  4.27655E+03
 -9.63973E+03 -4.61918E+02 -1.06725E+04 -8.43534E+03 -4.71786E+03 -1.41017E+04  4.14230E+03 -1.11559E+04
  8.95661E+03 -3.92732E+03  6.39635E+03  3.08173E+03  3.81749E+02  3.88620E+03 -4.04449E+03 -2.53339E+02
 -5.03164E+03 -6.32203E+03 -1.24055E+03 -9.57618E+03  5.20617E+03 -1.01670E+04  1.29633E+04 -5.34486E+03
  1.55722E+04  9.95744E+02  1.17543E+04  8.35895E+03  1.93234E+03  1.18546E+04 -6.27783E+03  1.04228E+04
 -8.09210E+03  3.68686E+03 -4.63232E+03 -1.95784E+03  1.60237E+03 -2.82408E+03  5.75937E+03 -1.11411E+03
  5.03088E+03  4.44043E+03  8.57835E+02  8.08743E+03 -6.20478E+03  8.32302E+03 -9.86693E+03  2.01780E+03
 -6.29662E+03 -5.14237E+03  2.10843E+02 -9.14599E+03  5.39193E+03 -4.12742E+03  5.56715E+03  2.06806E+03
  9.77893E+02  5.99822E+03 -5.23711E+03  6.93595E+03 -7.04023E+03  2.72071E+03 -7.11299E+03 -2.12815E+03
 -4.31349E+03 -8.90819E+03  1.76624E+03 -1.07599E+04  8.48078E+03 -6.65456E+03  9.20553E+03  2.18213E+03
  6.45512E+03  7.34021E+03 -7.26627E+02  9.38561E+03 -6.63070E+03  5.94027E+03 -7.29642E+03 -1.36547E+02
 -7.23454E+03 -6.76973E+03 -1.34240E+03 -7.16044E+03  3.51466E+03 -5.72872E+03  4.07742E+03 -2.97120E+03
  3.81205E+03  5.31025E+02 -2.37123E+02  1.22781E+03 -1.87935E+02 -7.69667E+02  1.13908E+03 -3.34043E+03
  5.64861E+03 -1.64848E+03  8.50600E+03  5.96001E+02  8.11732E+03  5.42895E+03  6.53174E+03  1.09007E+04
 -1.68017E+03  1.28931E+04 -1.09431E+04  9.60867E+03 -1.36408E+04  1.35295E+03 -1.12462E+04 -3.93457E+03
 -6.32917E+03 -9.04296E+03 -1.92735E+02 -7.79605E+03  2.83094E+03 -3.58300E+03  2.94332E+03 -2.66854E+03
  2.12566E+03 -1.49821E+03  2.16350E+03 -2.34835E+03  4.28601E+03 -2.21196E+03  4.50250E+03  2.27089E+02
  6.27962E+03  1.46184E+03  2.37164E+03  4.96407E+03 -1.53509E+03  5.52425E+03 -5.63430E+03  3.88960E+03
 -7.22478E+03 -6.48451E+02 -3.63247E+03 -5.22768E+03 -3.18404E+02 -8.04240E+03  4.83107E+03 -8.39562E+03
  7.38989E+03 -5.03585E+03  1.00176E+04  1.15186E+03  6.96145E+03  6.43127E+03  7.50578E+02  8.08012E+03
 -3.06958E+03  7.83041E+03 -4.75438E+03  2.72584E+03 -2.66759E+03 -1.12690E+03 -9.21621E+02 -6.62072E+02
 -7.65865E+02  7.23966E+02 -1.26251E+03  2.72997E+03 -3.69504E+03  1.28956E+03 -5.67601E+03 -1.09943E+03
 -2.92045E+03 -5.88534E+03  8.24811E+02 -6.59334E+03  4.30683E+03 -5.95247E+03  5.78801E+03 -2.04450E+03
  7.01170E+03  2.98917E+03  3.11987E+03  5.00135E+03 -1.64477E+03  6.43286E+03 -4.62386E+03  3.94817E+03
 -5.53260E+03  4.97256E+02 -4.97196E+03 -3.24304E+03 -6.30355E+02 -4.99648E+03  2.84081E+03 -3.69685E+03
  4.15067E+03 -1.42069E+03  2.94257E+03  1.14119E+03  6.74495E+02  2.08548E+03  7.86682E+02  1.19410E+03
  1.98877E+03  1.08285E+03  1.30600E+03  1.00213E+03  1.28499E+03  2.45705E+03  1.70525E+03  3.12528E+03
 -1.06786E+03  4.39446E+03 -4.17016E+03  5.62035E+03 -5.83771E+03  1.71586E+03 -6.68726E+03 -1.87959E+03
 -2.81673E+03 -5.88693E+03  9.06856E+02 -7.00635E+03  3.63616E+03 -4.31554E+03  4.68029E+03 -7.25632E+02
  3.97367E+03  2.14163E+03  9.39655E+02  3.65633E+03 -1.41862E+03  2.24089E+03 -1.90716E+03 -2.57267E+02
 -1.20180E+03 -2.29891E+03  2.48073E+03 -2.98779E+03  1.86498E+03 -1.03591E+03  1.97568E+03  7.44056E+02
  1.49623E+03  8.10243E+02  7.05537E+02 -7.43923E+00  2.03183E+02  1.04001E+03  7.53248E+02 -2.79631E+02
  5.33698E+02 -2.90304E+02  2.68166E+03  5.30503E+02  7.88078E+02  3.55697E+03 -8.75260E+02  4.54923E+03
 -3.11045E+03  2.03621E+03 -3.38463E+03  8.05115E+02 -2.66825E+03 -8.18321E+02 -4.69725E+02 -2.39502E+03
  1.12700E+03 -2.09270E+03  1.76014E+03 -1.47047E+03  5.40838E+02  1.26930E+03 -1.06195E+03  1.72597E+03
 -1.63934E+03  9.69251E+02 -2.13293E+03 -1.96014E+03 -1.87614E+03 -2.57724E+03  8.82627E+02 -3.36520E+03
  1.60315E+03 -9.06745E+02  1.43798E+03 -8.72492E+02  1.05621E+03  2.26753E+02 -5.97064E+01  2.00621E+03
 -8.42277E+02 -1.16308E+02 -1.15615E+03 -9.04734E+02  3.17601E+02 -1.68205E+03  2.40944E+03 -1.98611E+03
  2.93472E+03  4.66975E+02  3.88027E+03  1.21878E+03  1.12448E+03  2.57788E+03 -4.51459E+02  2.89191E+03
 -2.91881E+03  1.15843E+03 -2.34632E+03 -5.41809E+02 -1.39556E+03 -1.58617E+03  3.13087E+02 -1.28517E+03
  1.76814E+03 -1.00778E+03  1.37963E+03  7.18115E+02 -7.16059E+01  1.89012E+03 -4.19199E+02  1.84654E+03
 -9.08439E+02  1.41719E+03 -5.69374E+02  2.57684E+02  5.56502E+02  3.69178E+02 -1.02707E+03  4.45696E+02
 -1.04378E+03  1.11611E+03 -2.48567E+03  1.37409E+03 -2.64462E+03  6.87337E+01 -3.35727E+03 -1.23983E+03
 -2.14601E+03 -4.17071E+03  8.34547E+02 -4.93510E+03  2.29950E+03 -4.10795E+03  4.02032E+03 -1.12323E+03
  4.22575E+03  5.31675E+02  1.81255E+03  3.14553E+03 -7.39510E+02  1.96996E+03 -5.86173E+02  2.49873E+03
 -1.55378E+03  9.26555E+02 -1.05105E+03 -5.02942E+02 -9.38408E+02 -2.47764E+02 -5.89470E+02  1.41606E+02
 -6.59621E+02  1.11068E+02 -8.31392E+02  2.59424E+02 -1.92818E+02 -7.60835E+02 -3.91823E+02 -9.37410E+02
  1.49198E+03 -1.33197E+03  1.31272E+03 -1.13220E+02  1.93533E+03  1.83723E+03  1.70925E+02  2.84669E+03
 -1.51908E+03  3.66225E+03 -3.06106E+03  2.09207E+03 -2.93168E+03 -8.46471E+00 -1.90925E+03 -1.89422E+03
 -1.19730E+03 -2.21329E+03  1.09966E+03 -2.03237E+03  1.06617E+03 -8.20714E+02  1.19604E+03  7.97666E+02
  8.72310E+02  8.21403E+02 -2.26301E+01  7.32468E+02 -9.24687E+02  2.19364E+02  5.23890E+01 -3.83412E+02
  7.40660E+02  3.88585E+02  5.13148E+02  1.11372E+02  7.91185E+01  1.02626E+03  1.90351E+02  1.06467E+03
 -1.54551E+03  9.81402E+02 -1.27114E+03  2.02204E+02 -1.67972E+03 -1.13072E+03  5.34059E+02 -2.33633E+03
  1.66920E+03 -1.40389E+03  7.69322E+02  6.06419E+01  1.59973E+03 -3.80245E+02  1.21537E+03  1.60922E+03
  6.69473E+02  6.70377E+02 -5.95774E+02  1.04510E+03 -4.72478E+02  3.62793E+02 -7.83187E+02 -7.58164E+02
 -9.81181E+01 -1.06484E+02 -9.43697E+02  4.92008E+02 -3.64170E+02 -1.66476E+02 -1.43291E+03 -6.52113E+01
 -1.47356E+03 -5.23052E+02 -2.61598E+02 -2.26738E+03  9.05324E+02 -1.84506E+03  1.73248E+03 -7.60682E+02
  1.19641E+03  1.95442E+02  3.26620E+02  1.14005E+03 -3.95781E+02  1.65316E+03 -4.99771E+02  1.07733E+03
