 $NMID ID='MM_0lb_SNR400_7hz_g55_1.RAW', FMTDAT='(8E13.5)'
 TRAMP=1., VOLUME=1. $END
  3.09734E+05  3.66611E+02  3.37203E+05  2.50418E+05  8.56308E+04  3.38382E+05 -1.33279E+05  2.51973E+05
 -1.91632E+05  8.35646E+04 -1.12531E+05 -3.23769E+04  3.77948E+02 -5.09172E+04  5.38650E+04 -1.53361E+02
  3.61207E+04  5.25100E+04 -1.64805E+04  7.67998E+04 -6.11362E+04  6.44199E+04 -8.65728E+04  3.25329E+04
 -8.19229E+04 -1.12312E+04 -5.83362E+04 -5.18863E+04 -1.53289E+04 -7.19798E+04  2.89724E+04 -4.66231E+04
  4.09301E+04  3.18024E+03  1.73318E+04  4.82223E+04 -3.48804E+04  4.88434E+04 -6.78559E+04  2.63489E+02
 -5.63765E+04 -5.73690E+04 -7.17531E+03 -8.02230E+04  3.53557E+04 -5.76426E+04  5.05575E+04 -1.87142E+04
  4.63145E+04  1.20052E+04  3.30887E+04  2.66264E+04  1.52835E+04  2.98947E+04 -6.17146E+03  2.81837E+04
 -2.28962E+04  1.18972E+04 -1.84739E+04 -6.12224E+03  7.26075E+03 -6.85460E+03  2.34989E+04  1.34986E+04
  6.46370E+03  3.86562E+04 -3.55462E+04  3.79558E+04 -6.67116E+04  1.52344E+03 -5.92585E+04 -4.54779E+04
 -1.29392E+04 -6.66887E+04  4.27809E+04 -4.97925E+04  6.23310E+04 -3.32641E+03  3.88149E+04  3.44878E+04
 -5.55567E+03  4.10797E+04 -3.29608E+04  2.03000E+04 -3.51128E+04 -3.28597E+03 -2.06700E+04 -1.30336E+04
 -1.06671E+04 -1.54896E+04 -7.58991E+02 -2.07158E+04  8.44643E+03 -2.41692E+04  1.67346E+04 -1.22057E+04
  1.02291E+04  6.63377E+03 -1.20070E+04  1.26554E+04 -2.47970E+04 -7.75836E+03 -8.31994E+03 -3.89670E+04
  2.63288E+04 -4.83564E+04  5.26414E+04 -1.99923E+04  5.06580E+04  2.22545E+04  1.80644E+04  4.89346E+04
 -1.72129E+04  3.67992E+04 -2.80820E+04  3.02306E+03 -1.23615E+04 -2.91579E+04  2.20464E+04 -3.87936E+04
  4.69159E+04 -1.21868E+04  4.30908E+04  2.51356E+04  2.28718E+04  5.40897E+04 -7.85059E+03  5.91278E+04
 -3.71612E+04  4.01017E+04 -5.04283E+04  1.26114E+04 -5.05884E+04 -1.95424E+04 -2.67744E+04 -4.28052E+04
  8.07273E+03 -4.34387E+04  3.61639E+04 -1.81476E+04  3.39882E+04  1.16620E+04  5.15990E+03  2.15393E+04
 -1.41792E+04  1.03459E+04 -1.24621E+04 -7.95976E+03  5.37209E+03 -1.16197E+04  1.90657E+04  4.83167E+03
  1.62199E+04  2.24528E+04 -4.90799E+03  2.78872E+04 -2.35501E+04  1.55507E+04 -3.23938E+04 -1.94079E+03
 -2.77018E+04 -1.87520E+04 -1.28207E+04 -2.77145E+04  3.56944E+03 -2.91041E+04  2.18982E+04 -2.55705E+04
  3.52777E+04 -1.52586E+04  4.05708E+04  5.67300E+03  2.93158E+04  2.79237E+04  4.74604E+03  4.41593E+04
 -2.07682E+04  3.52048E+04 -3.19980E+04  1.28159E+04 -2.40848E+04 -1.03396E+04 -5.53859E+03 -1.25208E+04
  4.72389E+02 -8.62476E+02 -9.09080E+03  8.90897E+03 -2.35737E+04  6.38602E+03 -2.22169E+04 -1.01588E+04
 -1.19704E+04 -2.59366E+04  5.57085E+03 -3.02865E+04  2.06410E+04 -2.16458E+04  2.48015E+04 -2.01514E+03
  1.64413E+04  1.72628E+04 -8.39738E+02  2.59314E+04 -1.83670E+04  1.45792E+04 -2.62454E+04 -5.43950E+03
 -1.75034E+04 -2.24386E+04 -2.81858E+03 -3.04707E+04  1.36612E+04 -2.64036E+04  2.61847E+04 -1.25009E+04
  2.40775E+04 -2.58146E+02  1.90684E+04  5.59596E+03  1.02196E+04  1.59050E+03  1.40171E+04 -2.36736E+03
  2.47364E+04  2.93614E+03  2.87133E+04  2.03029E+04  1.96836E+04  4.18485E+04 -3.36876E+03  4.98268E+04
 -2.79504E+04  4.16541E+04 -4.67570E+04  2.19229E+04 -5.06554E+04 -3.21403E+03 -3.99689E+04 -2.94870E+04
 -1.58865E+04 -4.28328E+04  1.53686E+04 -3.71987E+04  3.12846E+04 -1.62392E+04  2.58403E+04  9.65712E+03
  9.42827E+03  2.11450E+04 -1.37945E+04  1.73817E+04 -2.27137E+04  2.96076E+03 -1.64767E+04 -1.51126E+04
 -8.00802E+02 -2.23634E+04  1.21955E+04 -1.59465E+04  1.55832E+04 -1.37772E+03  5.28843E+03  9.98182E+03
 -8.98482E+03  5.09272E+03 -1.14843E+04 -7.27446E+03 -2.18976E+03 -2.12723E+04  1.25794E+04 -2.29285E+04
  2.63918E+04 -1.40289E+04  3.07175E+04  3.30842E+03  2.71935E+04  2.11630E+04  1.27889E+04  3.32854E+04
 -6.20263E+03  3.61243E+04 -2.37893E+04  2.31210E+04 -2.59745E+04  3.79410E+03 -1.68811E+04 -7.30509E+03
 -6.50069E+03 -8.53784E+03 -1.12475E+03 -1.29188E+02 -2.94308E+03  3.49866E+03 -9.10381E+03  5.89332E+03
 -1.55609E+04 -1.61401E+03 -1.62893E+04 -1.27630E+04 -6.70084E+03 -2.25379E+04  7.84072E+03 -1.76272E+04
  1.55729E+04 -7.69391E+03  1.07006E+04  5.38297E+03  1.09965E+02  7.05169E+03 -9.54429E+03  4.50345E+02
 -8.33057E+03 -1.05484E+04 -6.07816E+02 -1.84972E+04  1.22730E+04 -1.90722E+04  2.35623E+04 -1.03672E+04
  2.69272E+04  2.90794E+03  1.97631E+04  1.81100E+04  4.74559E+03  2.29414E+04 -1.07781E+04  1.76413E+04
 -1.42574E+04  4.40215E+03 -7.36358E+03 -3.96907E+03  2.10246E+03 -5.48911E+03  9.10525E+03 -1.27090E+03
  8.21053E+03  8.12248E+03  1.15418E+03  1.50811E+04 -1.19548E+04  1.43928E+04 -1.81804E+04  3.24542E+03
 -1.29019E+04 -1.00862E+04 -5.58249E+02 -1.71980E+04  9.55166E+03 -7.62649E+03  1.12654E+04  5.32602E+03
  3.56068E+03  1.23115E+04 -1.00405E+04  1.47168E+04 -1.69395E+04  5.28748E+03 -1.83319E+04 -6.36426E+03
 -1.00871E+04 -2.02152E+04  4.51572E+03 -2.13786E+04  1.83566E+04 -1.37503E+04  2.03938E+04  3.91076E+03
  1.19398E+04  1.68204E+04 -1.76637E+03  1.91813E+04 -1.35979E+04  1.11572E+04 -1.54876E+04 -1.75707E+03
 -1.31417E+04 -1.19660E+04 -1.72644E+03 -1.42487E+04  7.09664E+03 -1.20495E+04  8.87946E+03 -3.51988E+03
  6.06114E+03  3.06785E+03 -8.41005E+02  2.20145E+03 -5.15499E+02 -4.69965E+03  4.25667E+03 -9.50120E+03
  1.54001E+04 -6.80127E+03  2.06296E+04  2.43086E+03  2.03656E+04  1.45928E+04  1.18935E+04  2.71086E+04
 -6.42750E+03  3.10344E+04 -2.45396E+04  2.23360E+04 -3.22882E+04  4.14527E+03 -2.61547E+04 -1.17390E+04
 -1.25557E+04 -2.13649E+04  3.67402E+01 -1.90846E+04  6.80696E+03 -1.10028E+04  5.56678E+03 -6.58057E+03
  4.74000E+03 -3.35732E+03  4.25995E+03 -3.85808E+03  6.36961E+03 -4.75702E+03  1.07009E+04 -2.03626E+03
  1.32079E+04  2.54963E+03  6.99119E+03  1.21470E+04 -3.11798E+03  1.50801E+04 -1.38962E+04  1.07770E+04
 -1.85366E+04 -2.06450E+03 -1.24594E+04 -1.29987E+04 -1.35694E+03 -2.01238E+04  1.05018E+04 -2.02529E+04
  2.17608E+04 -1.09296E+04  2.35618E+04  3.27400E+03  1.80816E+04  1.78700E+04  2.24279E+03  2.22040E+04
 -9.86842E+03  1.74204E+04 -1.31062E+04  6.28702E+03 -8.79449E+03 -2.12955E+03 -3.30260E+03 -3.06985E+03
 -2.68356E+03  3.79755E+02 -3.98146E+03  3.15885E+03 -7.33824E+03  2.87142E+03 -1.20835E+04 -2.25927E+03
 -9.40262E+03 -1.28172E+04 -9.24551E+02 -1.86781E+04  1.16838E+04 -1.77419E+04  1.87463E+04 -6.00386E+03
  1.93199E+04  9.89260E+03  9.01837E+03  1.71890E+04 -4.27236E+03  1.95420E+04 -1.49707E+04  1.19960E+04
 -1.85805E+04  1.46356E+03 -1.49555E+04 -1.17813E+04 -2.86287E+03 -1.59459E+04  8.28097E+03 -1.19313E+04
  1.21795E+04 -4.48638E+03  8.91103E+03  4.32309E+03  3.90320E+03  5.69196E+03  2.69025E+03  3.72239E+03
  3.18810E+03  1.37812E+03  4.48937E+03  2.74145E+03  5.12631E+03  5.99634E+03  4.60169E+03  1.13773E+04
 -3.66206E+03  1.57238E+04 -1.44679E+04  1.55407E+04 -2.12346E+04  4.31270E+03 -2.00321E+04 -9.87358E+03
 -9.91871E+03 -1.95456E+04  3.04754E+03 -2.18230E+04  1.37066E+04 -1.38636E+04  1.68569E+04 -3.90461E+03
  1.25247E+04  6.94173E+03  3.51048E+03  1.15750E+04 -5.80869E+03  7.29832E+03 -9.01129E+03 -1.53415E+03
 -3.45282E+03 -9.47978E+03  5.16926E+03 -9.80660E+03  8.72469E+03 -3.74341E+03  8.63646E+03  2.06101E+03
  4.28851E+03  3.26239E+03  2.46217E+03  4.28317E+03 -1.25242E+03  2.04278E+03  1.54375E+03 -8.72130E+02
  3.57783E+03 -2.08890E+03  9.21493E+03  2.75577E+03  4.27294E+03  1.13532E+04 -1.61688E+03  1.36206E+04
 -9.84670E+03  9.80030E+03 -1.35347E+04  2.76180E+03 -1.10571E+04 -3.51804E+03 -4.13695E+03 -8.14212E+03
  1.45863E+03 -8.22653E+03  5.22902E+03 -3.58254E+03  4.33866E+03  4.02704E+03 -1.89797E+03  6.98143E+03
 -8.42543E+03  3.37003E+03 -1.01316E+04 -3.90155E+03 -6.38536E+03 -1.14756E+04  1.70193E+03 -1.20835E+04
  6.77281E+03 -7.52190E+03  9.41413E+03 -5.71469E+02  6.98167E+03  3.55637E+03  3.82559E+02  6.41403E+03
 -3.99336E+03  1.78470E+03 -5.89535E+03 -5.28908E+03  1.53753E+03 -9.20451E+03  9.83140E+03 -6.63388E+03
  1.44253E+04  3.95682E+02  1.34384E+04  8.81016E+03  3.00684E+03  1.37702E+04 -5.00529E+03  1.41255E+04
 -1.13453E+04  5.25512E+03 -1.26135E+04 -2.07714E+03 -6.31160E+03 -9.16895E+03  2.54405E+03 -8.72630E+03
  7.91981E+03 -3.45854E+03  7.57885E+03  3.92879E+03  2.01433E+03  7.66362E+03 -1.35067E+03  7.31522E+03
 -3.24849E+03  4.54646E+03 -3.10180E+03  3.36020E+02 -1.56792E+03  1.73530E+03 -3.33506E+03  3.10441E+03
 -2.86288E+03  5.80503E+03 -8.72651E+03  5.19621E+03 -1.37932E+04  8.85707E+00 -1.57745E+04 -9.45521E+03
 -8.38317E+03 -1.88089E+04  3.36203E+03 -2.13578E+04  1.33370E+04 -1.72946E+04  2.08603E+04 -7.42187E+03
  1.99367E+04  4.73646E+03  1.13782E+04  1.33800E+04  1.98351E+03  1.50907E+04 -7.05671E+03  1.08989E+04
 -9.07820E+03  4.01928E+03 -5.64860E+03 -1.43459E+03 -1.94564E+03 -1.50715E+03  6.24271E+01 -2.26736E+02
 -1.51404E+03  4.35960E+02 -2.75570E+03 -1.13206E+03 -1.78467E+03 -3.55180E+03  4.81701E+02 -5.77121E+03
  6.80996E+03 -5.69348E+03  1.07648E+04 -2.93444E+02  1.14797E+04  8.29530E+03  3.42635E+03  1.51264E+04
 -7.27981E+03  1.72314E+04 -1.65725E+04  1.05499E+04 -1.81690E+04 -1.67809E+03 -1.46371E+04 -1.08075E+04
 -4.69332E+03 -1.63640E+04  3.55790E+03 -1.41206E+04  1.03272E+04 -7.83212E+03  1.02813E+04  8.40376E+02
  6.48506E+03  5.49631E+03 -4.09537E+02  4.92113E+03 -4.50045E+03 -1.70743E+02  1.56678E+02 -3.45508E+03
  4.57891E+03 -2.53213E+03  5.98500E+03  3.11112E+03  5.45062E+03  5.94873E+03 -2.33914E+02  8.79003E+03
 -7.53259E+03  7.47572E+03 -1.02485E+04  1.87598E+03 -8.98070E+03 -7.69403E+03 -1.65771E+03 -1.28723E+04
  8.01126E+03 -1.12980E+04  1.29676E+04 -3.52535E+03  1.30848E+04  3.76522E+03  7.21968E+03  1.05060E+04
  8.68978E+02  1.05849E+04 -4.76665E+03  8.92899E+03 -6.47523E+03  4.68984E+03 -5.38679E+03  1.07282E+03
 -1.88889E+03 -2.47332E+02 -2.68447E+03  7.79986E+02 -5.74403E+03  1.52021E+03 -7.43897E+03 -2.00465E+03
 -7.47541E+03 -6.58111E+03 -2.80535E+03 -1.08762E+04  3.61851E+03 -1.03100E+04  8.64325E+03 -5.11172E+03
  1.01836E+04  1.51780E+03  7.02588E+03  7.26554E+03 -1.40928E+03  1.08645E+04 -8.61913E+03  7.18781E+03
