 $NMID ID='MM_0lb_SNR400_20hz_g55_46.RAW', FMTDAT='(8E13.5)'
 TRAMP=1., VOLUME=1. $END
  3.09583E+05  5.43228E+02  3.37919E+05  2.50494E+05  8.46485E+04  3.36963E+05 -1.32153E+05  2.51092E+05
 -1.89812E+05  8.24710E+04 -1.10854E+05 -3.23474E+04  1.57825E+03 -5.04612E+04  5.37419E+04  4.18895E+01
  3.49284E+04  5.26184E+04 -1.71233E+04  7.52163E+04 -6.02535E+04  6.31502E+04 -8.30790E+04  3.14438E+04
 -7.99281E+04 -1.12207E+04 -5.63719E+04 -5.04505E+04 -1.52131E+04 -6.84745E+04  2.69069E+04 -4.44808E+04
  3.95270E+04  3.54299E+03  1.60802E+04  4.70060E+04 -3.34125E+04  4.59954E+04 -6.53415E+04 -7.84416E+02
 -5.18793E+04 -5.57785E+04 -6.48637E+03 -7.53983E+04  3.31820E+04 -5.33063E+04  4.67486E+04 -1.67865E+04
  4.20795E+04  1.13718E+04  3.05951E+04  2.42560E+04  1.59880E+04  2.81925E+04 -4.82699E+03  2.67478E+04
 -2.21739E+04  1.27909E+04 -1.92148E+04 -4.51088E+03  4.22549E+03 -7.78227E+03  2.12729E+04  1.09924E+04
  7.70418E+03  3.31665E+04 -3.03577E+04  3.38580E+04 -6.11612E+04  2.35397E+03 -5.57279E+04 -4.14812E+04
 -1.24849E+04 -6.08497E+04  3.79908E+04 -4.38651E+04  5.60298E+04 -2.09175E+03  3.11479E+04  3.07202E+04
 -5.95483E+03  3.34631E+04 -2.80394E+04  1.39977E+04 -2.80338E+04 -5.32197E+03 -1.46969E+04 -9.79515E+03
 -7.45944E+03 -1.15585E+04 -8.58711E+02 -1.63873E+04  6.54078E+03 -2.30241E+04  1.52370E+04 -1.36000E+04
  1.23349E+04  4.51558E+03 -6.13162E+03  1.32771E+04 -1.95597E+04 -2.99719E+03 -8.16183E+03 -3.09071E+04
  2.10936E+04 -4.10656E+04  4.48590E+04 -1.87241E+04  4.17631E+04  1.84662E+04  1.45300E+04  4.14811E+04
 -1.52529E+04  3.14887E+04 -2.36521E+04  9.08359E+02 -7.94759E+03 -2.62883E+04  2.00722E+04 -3.12369E+04
  3.79998E+04 -7.30099E+03  3.17324E+04  2.24699E+04  1.49066E+04  4.25836E+04 -7.70511E+03  4.50292E+04
 -2.84977E+04  2.98725E+04 -3.75671E+04  8.37823E+03 -3.81760E+04 -1.49628E+04 -2.13075E+04 -3.46024E+04
  7.09785E+03 -3.38339E+04  2.90947E+04 -1.21627E+04  2.67842E+04  1.08519E+04  2.84289E+03  1.82884E+04
 -1.31300E+04  6.73369E+03 -9.04967E+03 -7.85577E+03  6.24430E+03 -1.02286E+04  1.72205E+04  6.25253E+03
  1.20055E+04  2.12613E+04 -6.84069E+03  2.33789E+04 -2.14433E+04  9.65416E+03 -2.48024E+04 -6.43418E+03
 -1.68606E+04 -1.63992E+04 -4.86660E+03 -1.64458E+04  3.62067E+03 -1.40524E+04  1.22175E+04 -1.39932E+04
  2.11390E+04 -1.17037E+04  2.78228E+04  1.11668E+03  2.11192E+04  1.62637E+04  3.85009E+03  3.25043E+04
 -1.56020E+04  2.76065E+04 -2.54888E+04  8.85303E+03 -1.97957E+04 -1.06734E+04 -3.62059E+03 -1.42555E+04
  3.01029E+03 -4.22413E+03 -2.69441E+03  5.38789E+03 -1.24409E+04  5.03510E+03 -1.30268E+04 -4.27227E+03
 -8.73442E+03 -1.53430E+04  4.35785E+03 -1.93857E+04  1.22712E+04 -1.36748E+04  1.47619E+04 -1.28303E+03
  9.08202E+03  1.11891E+04 -7.73587E+02  1.50437E+04 -1.00942E+04  8.56867E+03 -1.52225E+04 -3.76797E+03
 -1.13457E+04 -1.42546E+04 -1.60838E+03 -1.87974E+04  8.47112E+03 -1.50224E+04  1.61471E+04 -6.74712E+03
  1.40478E+04  5.51400E+02  1.02573E+04  3.98325E+03  5.08081E+03  6.07326E+02  7.51869E+03 -1.47231E+03
  1.33320E+04  2.54931E+03  1.42978E+04  1.26474E+04  8.99180E+03  2.39551E+04 -3.37986E+03  2.61361E+04
 -1.53791E+04  1.98529E+04 -2.41934E+04  9.25603E+03 -2.42703E+04 -1.92721E+03 -2.09627E+04 -1.41822E+04
 -1.04985E+04 -2.01363E+04  6.31001E+03 -1.82064E+04  1.60967E+04 -1.07382E+04  1.51422E+04  3.47988E+03
  6.63072E+03  1.09992E+04 -7.42792E+03  1.04873E+04 -1.32673E+04  3.04861E+03 -1.01524E+04 -8.17055E+03
 -3.91208E+02 -1.19769E+04  6.47565E+03 -8.91961E+03  7.87463E+03 -1.30641E+03  1.15253E+03  4.47817E+03
 -5.59981E+03  7.70313E+02 -3.54718E+03 -4.57009E+03  1.04259E+03 -9.73296E+03  7.02261E+03 -9.33003E+03
  1.20790E+04 -4.51473E+03  1.10113E+04  2.73372E+03  9.39073E+03  8.66867E+03  4.40788E+03  1.31347E+04
 -1.27242E+03  1.53366E+04 -9.30696E+03  8.88289E+03 -1.09052E+04  2.48735E+03 -8.68076E+03 -1.78959E+03
 -4.76493E+03 -2.96877E+03 -2.26077E+02  1.74102E+03 -2.13891E+03  1.71751E+03 -3.35184E+03  3.27989E+03
 -8.05922E+03 -3.82196E+02 -8.26598E+03 -6.65011E+03 -3.25706E+03 -1.13011E+04  3.28279E+03 -8.27999E+03
  6.95370E+03 -3.15041E+03  5.10183E+03  1.68117E+03  4.93483E+02  2.98307E+03 -2.72102E+03 -2.62064E+02
 -3.79795E+03 -5.22500E+03 -8.89280E+02 -6.94135E+03  3.51915E+03 -8.03635E+03  9.46572E+03 -4.24718E+03
  1.05816E+04  3.67291E+02  7.86732E+03  5.42298E+03  1.37256E+03  8.01155E+03 -4.69646E+03  7.31793E+03
 -6.58376E+03  2.57956E+03 -3.77964E+03 -1.19356E+03  8.62033E+02 -1.97125E+03  4.48546E+03 -1.42475E+03
  3.95345E+03  3.60032E+03  1.31974E+03  6.12862E+03 -4.35223E+03  6.18514E+03 -7.16887E+03  1.65137E+03
 -4.36997E+03 -3.33388E+03  2.16527E+02 -6.21446E+03  3.41163E+03 -3.42562E+03  2.89336E+03  4.10360E+02
  1.39357E+02  2.71457E+03 -3.78650E+03  4.36682E+03 -4.54074E+03  2.04039E+03 -2.95621E+03 -5.97572E+02
 -2.62189E+03 -5.27926E+03  7.65800E+02 -6.41827E+03  5.39466E+03 -3.81008E+03  5.52352E+03  2.29623E+02
  4.09129E+03  4.93531E+03  5.81628E+02  6.91083E+03 -4.56560E+03  3.51881E+03 -4.51312E+03 -4.11322E+02
 -5.44522E+03 -5.51431E+03 -1.74564E+03 -4.31505E+03  2.05898E+03 -4.16940E+03  2.74163E+03 -2.94475E+03
  2.77164E+03 -1.69948E+02  1.52171E+02  1.11257E+03  6.87337E+02  1.31669E+02 -5.08225E+02 -1.41553E+03
  3.28195E+03 -1.01345E+03  4.48038E+03  9.40812E+02  4.76546E+03  2.12771E+03  4.81582E+03  5.97305E+03
 -1.33415E+03  7.62160E+03 -7.24841E+03  5.74178E+03 -8.83306E+03  1.13146E+03 -6.54704E+03 -1.60207E+03
 -4.17877E+03 -6.12115E+03 -1.02520E+02 -3.91062E+03  2.37110E+03 -1.48475E+03  1.53234E+03 -1.41573E+03
  1.04949E+03 -1.45008E+03  2.23103E+03 -1.75808E+03  2.87829E+03 -1.14972E+03  3.34558E+03  6.07008E+02
  4.69545E+03  7.96447E+02  5.68119E+02  2.58974E+03 -8.69549E+02  2.41569E+03 -4.22331E+03  1.84649E+03
 -4.31930E+03 -1.01936E+03 -1.12334E+03 -2.79249E+03  5.55799E+02 -4.02852E+03  2.59672E+03 -4.12976E+03
  3.72188E+03 -2.55124E+03  5.57974E+03 -1.95409E+02  4.27767E+03  3.48303E+03  1.13082E+03  5.28688E+03
 -1.69016E+03  5.15351E+03 -2.64087E+03  1.94534E+03 -1.49124E+03 -9.87925E+02 -1.51159E+02 -5.22026E+02
 -4.10965E+02  3.39756E+02 -1.14269E+03  1.98358E+03 -2.01624E+03  9.06208E+02 -3.91623E+03 -1.97533E+01
 -1.05581E+03 -3.88996E+03  9.64789E+02 -3.49201E+03  2.19577E+03 -3.36302E+03  3.04007E+03 -6.37063E+02
  3.50368E+03  2.19694E+03  1.27590E+03  1.94241E+03 -6.89727E+02  3.86673E+03 -1.80547E+03  1.75776E+03
 -3.13471E+03  5.99633E+02 -2.01110E+03 -1.78855E+03  1.54062E+02 -2.55662E+03  1.40795E+03 -1.48171E+03
  2.18025E+03 -6.85974E+02  1.50526E+03  4.88383E+02  3.80276E+02  1.24112E+03  7.29932E+02  2.55168E+02
  1.79555E+03  6.23845E+02  4.39463E+02  1.18716E+03  1.02406E+03  1.98361E+03  1.46780E+03  1.50959E+03
 -8.86768E+02  2.67729E+03 -1.45791E+03  3.97297E+03 -1.54826E+03  1.21071E+03 -3.21218E+03 -8.56718E+01
 -8.90987E+02 -3.15674E+03  6.92192E+02 -4.01837E+03  1.62779E+03 -1.97682E+03  2.50039E+03 -5.12534E+02
  2.11790E+03  1.54038E+03  2.02644E+02  1.98061E+03 -7.87836E+02  1.26536E+03 -5.28614E+02  7.31635E+01
 -6.97634E+02 -1.36153E+03  9.46408E+02 -1.02562E+03  1.47345E+03 -1.29374E+03  6.81486E+02 -1.00592E+02
  4.74231E+02  2.19156E+02  6.91099E+02 -1.31470E+02  1.66779E+02  9.22734E+02  1.57624E+03  1.25537E+02
 -5.26260E+02 -4.81967E+02  1.74659E+03  3.86201E+02 -2.13908E+02  1.61389E+03 -3.41538E+02  1.93472E+03
 -9.81409E+02  4.73576E+02 -1.49422E+03  2.04809E+02 -1.41109E+03 -6.96831E+02 -2.88363E+01 -7.67290E+02
  3.27114E+02 -1.16562E+03  9.12582E+02 -3.53048E+02  6.22962E+02  1.62170E+03 -6.28247E+02  1.00073E+03
 -1.48144E+03  4.27077E+02 -5.79918E+02 -1.24565E+03 -3.60598E+02 -8.91230E+02 -3.25077E+02 -1.04022E+03
  6.18509E+01 -1.22224E+02  2.70627E+02 -2.70609E+01  1.44426E+03  3.18879E+02 -3.42872E+02  1.33583E+03
 -1.62474E+02 -2.75245E+02 -7.41237E+02 -2.76690E+02  1.02408E+03 -7.91860E+02  1.45040E+03 -1.20201E+03
  9.20176E+02  4.65127E+02  2.26990E+03  3.55947E+02  7.73640E+02  7.79397E+02  3.38771E+02  8.70282E+02
 -5.35893E+02  3.78302E+02 -1.18761E+03  1.68624E+02 -2.58243E+02 -6.04573E+02  3.68011E+02 -2.04663E+02
  1.21755E+03 -4.59459E+02  7.26583E+02  5.16034E+02 -4.87294E+01  1.40790E+03  4.60347E+02  8.82656E+02
  1.13431E+02  9.75273E+02 -3.60384E+02  5.89113E+01  2.21891E+02  5.46536E+02 -2.23965E+01  7.91919E+01
 -1.08664E+03  9.16151E+02 -1.83877E+03  1.01103E+01 -1.27771E+03  2.75991E+02 -1.76961E+03 -1.10005E+03
 -6.84680E+02 -1.15105E+03  2.50924E+02 -1.69868E+03  1.37458E+02 -1.75216E+03  2.23616E+03 -5.08560E+02
  1.65185E+03 -2.24657E+02  6.55274E+02  1.12924E+03 -4.25272E+02  7.12026E+02 -9.35061E+02  6.99650E+02
 -1.36745E+03  2.02014E+02  1.60788E+01 -6.41710E+02 -5.20266E+02  7.73630E+02 -7.70800E+02 -2.62444E+02
 -1.04589E+03 -2.57947E+02 -5.59362E+02  6.40416E+02  4.87868E+02 -3.17527E+02 -1.28669E+02 -8.69378E+02
  1.40301E+03 -1.27747E+02  2.26989E+02 -1.12773E+02  7.50209E+02  2.61953E+02 -5.75248E+02  1.03033E+03
 -7.94699E+02  1.57252E+03 -1.30062E+03  8.16650E+02 -9.53178E+02 -7.07400E+01 -8.88701E+02 -7.12520E+02
 -7.00608E+02 -3.97683E+02  3.89437E+01 -7.98409E+02  7.09466E+02 -3.04399E+02  4.23567E+02  2.13702E+01
  6.30121E+02  3.10926E+02  2.11844E+02  1.24667E+02 -2.39701E+02 -2.62606E+02 -3.64856E+02 -8.51632E+02
  4.85296E+02  7.21568E+02 -7.80381E+01  2.78588E+02 -3.60156E+02  4.35002E+02  4.28457E+02 -1.22065E+01
 -3.93132E+02  3.66715E+02 -5.48676E+02 -3.47466E+02 -3.26356E+02 -1.64072E+02  1.30548E+02 -9.68362E+02
  3.44079E+02 -5.74396E+02  2.29712E+02  1.84601E+02  6.63275E+02 -1.19500E+03 -1.60678E+01  6.86034E+02
  3.45846E+02  2.74943E+02 -1.88168E+02  5.47227E+02 -2.84765E+02  4.32885E+02  3.62900E+01  5.88027E+02
  1.49833E+01 -1.22283E+02 -1.17958E+01  4.43106E+02 -2.94089E+02 -2.07698E+02 -1.94470E+01 -1.41091E+02
 -1.11651E+03  8.86406E+02 -5.82490E+01 -6.64828E+02  8.77078E+02 -1.17344E+03  6.62523E+02 -3.33083E+02
  6.58981E+02  5.56503E+00 -7.54494E+02 -1.07734E+02 -5.45852E+01  1.22640E+03  7.62630E+01  6.11702E+02
