 $NMID ID='MM_0lb_SNR400_7hz_g60_96.RAW', FMTDAT='(8E13.5)'
 TRAMP=1., VOLUME=1. $END
  3.09406E+05  8.50498E+02  3.37863E+05  2.49935E+05  8.51313E+04  3.38755E+05 -1.33789E+05  2.52774E+05
 -1.90771E+05  8.36293E+04 -1.12876E+05 -3.26452E+04 -2.90028E+02 -5.06460E+04  5.41110E+04 -4.26552E+00
  3.48516E+04  5.18963E+04 -1.63513E+04  7.55224E+04 -6.15786E+04  6.51296E+04 -8.62114E+04  3.26364E+04
 -8.32731E+04 -1.13311E+04 -5.79206E+04 -5.35048E+04 -1.50857E+04 -7.15392E+04  2.92205E+04 -4.76754E+04
  4.24162E+04  3.51526E+03  1.66281E+04  4.87578E+04 -3.38074E+04  4.89086E+04 -6.87035E+04  4.63266E+02
 -5.53716E+04 -5.78581E+04 -8.03809E+03 -8.04188E+04  3.49210E+04 -5.86103E+04  5.08087E+04 -1.85519E+04
  4.61856E+04  1.20385E+04  3.34857E+04  2.69526E+04  1.63733E+04  3.10932E+04 -5.92264E+03  2.79662E+04
 -2.31760E+04  1.24686E+04 -1.75860E+04 -5.58961E+03  8.04049E+03 -7.76311E+03  2.45122E+04  1.42532E+04
  7.73346E+03  3.87424E+04 -3.49256E+04  3.71657E+04 -6.74906E+04  1.03520E+03 -5.84717E+04 -4.60429E+04
 -1.26468E+04 -6.76530E+04  4.34267E+04 -4.82269E+04  6.28511E+04 -2.71094E+03  3.83391E+04  3.65249E+04
 -4.83836E+03  4.07530E+04 -3.31174E+04  2.10049E+04 -3.45531E+04 -2.67901E+03 -1.99005E+04 -1.28895E+04
 -1.01336E+04 -1.72438E+04  4.63685E+02 -2.14248E+04  8.68179E+03 -2.38415E+04  1.63344E+04 -1.22824E+04
  9.72574E+03  6.21437E+03 -1.14835E+04  1.20750E+04 -2.44343E+04 -8.75521E+03 -8.56948E+03 -3.81741E+04
  2.69436E+04 -4.86149E+04  5.38764E+04 -2.22408E+04  5.11320E+04  2.12290E+04  1.90878E+04  4.94667E+04
 -1.74432E+04  3.60605E+04 -2.95417E+04  2.46243E+03 -1.27268E+04 -3.05660E+04  2.28654E+04 -3.88009E+04
  4.72218E+04 -1.22470E+04  4.34967E+04  2.60081E+04  2.37803E+04  5.26789E+04 -8.33333E+03  5.99564E+04
 -3.77139E+04  4.05166E+04 -5.10227E+04  1.28267E+04 -5.09141E+04 -1.96092E+04 -2.75423E+04 -4.50594E+04
  8.16473E+03 -4.46366E+04  3.59946E+04 -1.73866E+04  3.44257E+04  1.06173E+04  6.06003E+03  2.25808E+04
 -1.56834E+04  1.04307E+04 -1.12009E+04 -7.69743E+03  4.79896E+03 -1.23203E+04  1.90749E+04  4.55033E+03
  1.54159E+04  2.30727E+04 -5.15466E+03  2.81146E+04 -2.42023E+04  1.59934E+04 -3.35133E+04 -1.80154E+03
 -2.90829E+04 -1.94892E+04 -1.39474E+04 -2.79630E+04  4.17053E+03 -2.94120E+04  2.23212E+04 -2.57749E+04
  3.55290E+04 -1.49671E+04  4.17539E+04  6.39264E+03  2.90278E+04  2.68216E+04  4.92020E+03  4.43266E+04
 -2.08759E+04  3.63033E+04 -3.12293E+04  1.29814E+04 -2.38282E+04 -1.04048E+04 -4.91014E+03 -1.27077E+04
  1.23916E+01 -1.16458E+03 -9.42836E+03  9.53842E+03 -2.17997E+04  5.29638E+03 -2.19339E+04 -1.09709E+04
 -1.23881E+04 -2.68392E+04  6.16350E+03 -3.18625E+04  2.09361E+04 -2.14103E+04  2.55853E+04 -1.18833E+03
  1.65510E+04  1.83576E+04 -1.18943E+03  2.59601E+04 -1.85344E+04  1.50180E+04 -2.68575E+04 -5.14686E+03
 -1.94949E+04 -2.40174E+04 -1.88670E+03 -3.16570E+04  1.36022E+04 -2.60344E+04  2.58613E+04 -1.39835E+04
  2.49658E+04 -1.63690E+03  1.85810E+04  5.11290E+03  9.83717E+03  1.47919E+03  1.30931E+04 -3.26773E+03
  2.51843E+04  2.75177E+03  2.96515E+04  1.98913E+04  2.03421E+04  4.29968E+04 -1.52302E+03  4.98479E+04
 -2.94691E+04  4.38131E+04 -4.87501E+04  2.28609E+04 -5.23198E+04 -3.18387E+03 -4.24052E+04 -3.01673E+04
 -1.60838E+04 -4.37413E+04  1.53629E+04 -3.71753E+04  3.27027E+04 -1.68742E+04  2.79525E+04  9.28410E+03
  8.69367E+03  2.17822E+04 -1.38852E+04  1.78396E+04 -2.29220E+04  3.10871E+03 -1.80145E+04 -1.43700E+04
 -1.08401E+03 -2.18441E+04  1.13454E+04 -1.59502E+04  1.53441E+04 -9.41396E+02  4.87207E+03  9.73790E+03
 -9.86164E+03  5.63247E+03 -1.08392E+04 -7.87974E+03 -3.10833E+03 -2.14493E+04  1.31714E+04 -2.35462E+04
  2.70915E+04 -1.33646E+04  3.14959E+04  2.90663E+03  2.79490E+04  2.17983E+04  1.26303E+04  3.52290E+04
 -7.11978E+03  3.62919E+04 -2.50102E+04  2.23733E+04 -2.71414E+04  3.44885E+03 -1.74901E+04 -7.76103E+03
 -6.68209E+03 -8.74055E+03 -5.34087E+02 -9.08289E+01 -3.39212E+03  3.71359E+03 -9.06535E+03  6.90661E+03
 -1.63470E+04 -8.71525E+02 -1.78759E+04 -1.40270E+04 -7.80125E+03 -2.27166E+04  8.26269E+03 -1.89852E+04
  1.55642E+04 -6.49085E+03  1.08926E+04  5.45238E+03 -8.61145E+02  8.26106E+03 -1.00649E+04 -6.99065E+02
 -1.05441E+04 -1.23739E+04 -1.15356E+03 -1.80138E+04  1.07832E+04 -2.01323E+04  2.44548E+04 -1.06826E+04
  2.84342E+04  2.54029E+03  2.05456E+04  1.79659E+04  3.64433E+03  2.28662E+04 -1.04642E+04  1.88139E+04
 -1.52881E+04  4.92348E+03 -8.23273E+03 -4.76048E+03  2.75735E+03 -5.15676E+03  1.07715E+04 -7.14818E+01
  9.22155E+03  8.32932E+03  7.02062E+02  1.55406E+04 -1.06289E+04  1.41234E+04 -1.91143E+04  2.18440E+03
 -1.32186E+04 -9.53333E+03  1.42829E+03 -1.61828E+04  1.11598E+04 -9.24282E+03  1.24595E+04  4.03260E+03
  2.57626E+03  1.26558E+04 -9.86152E+03  1.43438E+04 -1.76169E+04  6.01452E+03 -1.83749E+04 -6.42893E+03
 -9.98922E+03 -1.98987E+04  5.26155E+03 -2.17316E+04  2.00754E+04 -1.27708E+04  2.17381E+04  4.93770E+03
  1.11624E+04  1.63467E+04 -2.54253E+03  2.02455E+04 -1.38587E+04  1.05107E+04 -1.65534E+04 -2.08158E+03
 -1.28917E+04 -1.31145E+04 -2.38871E+03 -1.46556E+04  7.44828E+03 -1.15835E+04  9.13332E+03 -3.62440E+03
  5.88031E+03  2.65371E+03 -2.07860E+03  3.18523E+03 -1.19524E+03 -4.15559E+03  4.75523E+03 -9.32931E+03
  1.52505E+04 -7.25192E+03  2.04528E+04  1.17100E+03  2.15775E+04  1.56013E+04  1.35053E+04  2.70019E+04
 -6.07153E+03  3.12415E+04 -2.59920E+04  2.24282E+04 -3.33148E+04  4.23363E+03 -2.60719E+04 -1.18718E+04
 -1.32617E+04 -2.10712E+04 -8.53448E+02 -1.85775E+04  6.71592E+03 -1.15767E+04  7.07556E+03 -6.94784E+03
  5.01884E+03 -3.89836E+03  4.88950E+03 -4.82113E+03  7.26837E+03 -4.97368E+03  1.01649E+04 -2.54412E+03
  1.30592E+04  3.54969E+03  7.44660E+03  1.23457E+04 -2.24098E+03  1.53310E+04 -1.36366E+04  1.16202E+04
 -1.89641E+04 -1.07594E+03 -1.22803E+04 -1.39451E+04 -2.33306E+03 -2.09871E+04  1.11255E+04 -2.11276E+04
  2.23295E+04 -1.02567E+04  2.55497E+04  3.16946E+03  1.79213E+04  1.78009E+04  1.62077E+03  2.22438E+04
 -9.58722E+03  1.83144E+04 -1.36419E+04  6.71532E+03 -9.99607E+03 -1.72149E+03 -3.83574E+03 -3.20304E+03
 -1.57355E+03  9.51185E+01 -2.77200E+03  2.78536E+03 -7.54300E+03  3.63866E+03 -1.27234E+04 -1.81985E+03
 -9.60237E+03 -1.30327E+04 -7.58837E+02 -1.91677E+04  1.23088E+04 -1.81967E+04  2.05635E+04 -6.14547E+03
  2.01390E+04  1.02696E+04  9.79950E+03  1.81765E+04 -3.62985E+03  1.97089E+04 -1.37990E+04  1.20932E+04
 -1.84125E+04  6.92162E+02 -1.42582E+04 -1.28748E+04 -2.16213E+03 -1.62312E+04  9.81770E+03 -1.26965E+04
  1.30060E+04 -5.18680E+03  9.04643E+03  4.47397E+03  4.14011E+03  5.75728E+03  2.08121E+03  3.09391E+03
  2.80793E+03  2.13958E+03  5.08385E+03  2.06024E+03  6.00779E+03  5.71444E+03  4.92934E+03  1.18015E+04
 -2.99660E+03  1.59317E+04 -1.49438E+04  1.56992E+04 -2.15250E+04  3.68792E+03 -2.13183E+04 -9.77726E+03
 -1.04198E+04 -2.13009E+04  2.77284E+03 -2.21897E+04  1.32135E+04 -1.41086E+04  1.76325E+04 -4.10406E+03
  1.32884E+04  8.70821E+03  2.34797E+03  1.20605E+04 -6.74038E+03  8.08410E+03 -7.97410E+03 -2.51923E+02
 -4.95966E+03 -8.73129E+03  4.59637E+03 -9.41332E+03  8.39054E+03 -4.46108E+03  7.93911E+03  2.00558E+03
  5.47567E+03  5.36721E+03  1.81194E+03  4.46135E+03 -7.39530E+02  2.62054E+03  1.29225E+03 -3.60239E+01
  3.69577E+03 -9.81333E+02  9.18310E+03  3.43663E+03  5.16422E+03  1.10535E+04 -1.88608E+03  1.49788E+04
 -1.07256E+04  9.83143E+03 -1.38417E+04  2.57721E+03 -1.20508E+04 -5.01095E+03 -5.06860E+03 -9.32616E+03
 -1.27594E+02 -8.90926E+03  5.59979E+03 -3.86397E+03  4.36616E+03  4.09290E+03 -2.41669E+03  6.91218E+03
 -7.96387E+03  3.47634E+03 -1.12355E+04 -5.45726E+03 -6.11230E+03 -1.20268E+04  1.69514E+03 -1.23622E+04
  7.31166E+03 -7.81396E+03  8.22449E+03 -1.38986E+03  7.57112E+03  2.72158E+03  7.83436E+02  6.83110E+03
 -5.32185E+03  3.03774E+03 -5.29787E+03 -4.02953E+03  1.96720E+03 -9.09711E+03  1.06721E+04 -8.19448E+03
  1.57923E+04  1.19425E+03  1.38339E+04  1.05418E+04  3.94479E+03  1.53514E+04 -5.92665E+03  1.41506E+04
 -1.27690E+04  7.29372E+03 -1.28691E+04 -2.72238E+03 -6.26664E+03 -9.08300E+03  2.49249E+03 -9.30939E+03
  8.28294E+03 -4.90852E+03  7.16612E+03  4.09265E+03  2.48439E+03  8.65986E+03 -1.98642E+03  7.37851E+03
 -3.69407E+03  3.74781E+03 -2.35309E+03  1.90954E+03 -2.33067E+03  9.95364E+02 -1.62769E+03  2.56298E+03
 -4.70458E+03  6.00240E+03 -9.95268E+03  5.13423E+03 -1.40832E+04  5.52961E+02 -1.61438E+04 -1.05515E+04
 -9.46865E+03 -2.02367E+04  3.96286E+03 -2.14011E+04  1.38339E+04 -1.69666E+04  2.16680E+04 -6.34438E+03
  2.03018E+04  4.48403E+03  1.20678E+04  1.48080E+04  1.72888E+03  1.48658E+04 -6.12807E+03  1.28931E+04
 -9.54862E+03  4.19278E+03 -6.09708E+03 -2.19322E+03 -1.14030E+03 -2.54899E+03 -1.08272E+03 -2.83413E+02
 -3.03141E+03 -2.29229E+02 -2.74623E+03  4.90023E+02 -1.14101E+03 -3.34898E+03  9.18820E+01 -6.87170E+03
  6.01911E+03 -5.10566E+03  9.96870E+03  1.43371E+02  1.17300E+04  8.83561E+03  3.58067E+03  1.60438E+04
 -7.42708E+03  1.80442E+04 -1.69315E+04  1.09488E+04 -1.99703E+04 -7.69150E+02 -1.51703E+04 -1.20505E+04
 -5.62164E+03 -1.72304E+04  4.88109E+03 -1.54515E+04  1.15896E+04 -7.84058E+03  1.04155E+04  1.18543E+02
  6.34412E+03  6.16620E+03 -1.62397E+03  5.21730E+03 -3.48319E+03 -7.03190E+02 -3.34543E+01 -2.89058E+03
  5.55077E+03 -2.40475E+03  6.18255E+03  2.06323E+03  4.95266E+03  6.69002E+03 -3.47272E+01  8.65292E+03
 -7.54589E+03  7.34321E+03 -1.19220E+04  1.76303E+03 -8.81491E+03 -8.16194E+03 -8.17925E+02 -1.45942E+04
  8.51840E+03 -1.13390E+04  1.36571E+04 -3.39490E+03  1.25471E+04  3.62511E+03  7.32041E+03  9.81095E+03
  1.67610E+03  1.13223E+04 -3.67780E+03  9.37880E+03 -6.47155E+03  5.00719E+03 -5.48734E+03  8.89900E+02
 -3.06759E+03 -1.68466E+02 -3.35909E+03  1.57197E+03 -5.55366E+03  3.18325E+03 -9.13650E+03 -1.85190E+03
 -9.13617E+03 -5.73532E+03 -2.98091E+03 -1.15064E+04  5.47670E+03 -1.06971E+04  1.04072E+04 -5.30710E+03
  1.11338E+04  1.26774E+03  5.94552E+03  8.94059E+03 -2.54072E+02  1.31066E+04 -8.98010E+03  8.29950E+03
