 $NMID ID='MM_0lb_SNR400_16hz_g55_12.RAW', FMTDAT='(8E13.5)'
 TRAMP=1., VOLUME=1. $END
  3.09532E+05  1.02603E+02  3.37506E+05  2.51303E+05  8.43988E+04  3.37465E+05 -1.32667E+05  2.50853E+05
 -1.90074E+05  8.34214E+04 -1.11901E+05 -3.26671E+04  1.03891E+03 -5.04164E+04  5.37762E+04  4.19753E+02
  3.49939E+04  5.27539E+04 -1.67876E+04  7.54080E+04 -6.11233E+04  6.29734E+04 -8.35922E+04  3.13720E+04
 -8.06266E+04 -1.15382E+04 -5.73774E+04 -5.11557E+04 -1.55217E+04 -6.99844E+04  2.77383E+04 -4.55343E+04
  4.03333E+04  4.28320E+03  1.62240E+04  4.74644E+04 -3.40555E+04  4.69710E+04 -6.67237E+04  1.98046E+02
 -5.31967E+04 -5.64997E+04 -6.56280E+03 -7.66307E+04  3.39420E+04 -5.47198E+04  4.80972E+04 -1.71656E+04
  4.33031E+04  1.11820E+04  3.18103E+04  2.53442E+04  1.58296E+04  2.93950E+04 -5.25558E+03  2.69030E+04
 -2.23035E+04  1.26736E+04 -1.90501E+04 -4.53962E+03  5.37386E+03 -7.61485E+03  2.19163E+04  1.23674E+04
  7.34789E+03  3.50062E+04 -3.24617E+04  3.50243E+04 -6.33468E+04  2.43578E+03 -5.68131E+04 -4.34487E+04
 -1.25059E+04 -6.28741E+04  3.94727E+04 -4.46451E+04  5.71199E+04 -2.36566E+03  3.38867E+04  3.24903E+04
 -5.84012E+03  3.54936E+04 -2.96926E+04  1.55748E+04 -2.96859E+04 -4.28434E+03 -1.68219E+04 -1.10501E+04
 -9.34120E+03 -1.30044E+04 -8.41017E+02 -1.76391E+04  7.00089E+03 -2.27064E+04  1.50136E+04 -1.34522E+04
  1.18505E+04  5.32073E+03 -7.89144E+03  1.28419E+04 -2.08615E+04 -4.37222E+03 -8.23894E+03 -3.30235E+04
  2.24177E+04 -4.30993E+04  4.72566E+04 -1.95015E+04  4.42830E+04  1.92437E+04  1.56521E+04  4.34872E+04
 -1.58971E+04  3.25737E+04 -2.49273E+04  1.62967E+03 -9.56998E+03 -2.71722E+04  2.09150E+04 -3.34129E+04
  4.06774E+04 -8.09452E+03  3.49196E+04  2.35614E+04  1.74590E+04  4.55648E+04 -7.77380E+03  4.92667E+04
 -3.09924E+04  3.26958E+04 -4.15460E+04  9.02422E+03 -4.12332E+04 -1.65326E+04 -2.31454E+04 -3.69481E+04
  7.50181E+03 -3.65304E+04  3.10894E+04 -1.37788E+04  2.86598E+04  1.11120E+04  3.47828E+03  1.90073E+04
 -1.30665E+04  8.46708E+03 -9.24683E+03 -7.31909E+03  6.18030E+03 -1.09871E+04  1.76005E+04  5.83765E+03
  1.36732E+04  2.23075E+04 -6.64723E+03  2.45405E+04 -2.20841E+04  1.06881E+04 -2.74963E+04 -5.66408E+03
 -1.99280E+04 -1.68943E+04 -7.61368E+03 -1.98702E+04  3.96628E+03 -1.77100E+04  1.56420E+04 -1.69967E+04
  2.48070E+04 -1.22954E+04  3.13753E+04  2.58899E+03  2.28445E+04  1.84294E+04  4.33694E+03  3.52899E+04
 -1.73006E+04  2.95697E+04 -2.74779E+04  1.06923E+04 -2.05875E+04 -1.04373E+04 -4.79398E+03 -1.37923E+04
  1.85258E+03 -2.97517E+03 -4.25025E+03  5.94156E+03 -1.56575E+04  5.24596E+03 -1.49921E+04 -6.30934E+03
 -9.43325E+03 -1.76782E+04  4.65018E+03 -2.19742E+04  1.45604E+04 -1.64554E+04  1.72043E+04 -1.57999E+03
  1.03722E+04  1.21985E+04 -6.68257E+02  1.82860E+04 -1.25242E+04  1.03815E+04 -1.86101E+04 -3.84007E+03
 -1.32553E+04 -1.65525E+04 -2.30725E+03 -2.22649E+04  9.53969E+03 -1.75963E+04  1.83106E+04 -8.90133E+03
  1.69368E+04  7.23040E+02  1.22326E+04  4.59082E+03  6.72424E+03  1.24659E+03  8.86663E+03 -1.74484E+03
  1.63162E+04  2.80530E+03  1.80190E+04  1.43993E+04  1.23277E+04  2.85604E+04 -3.39866E+03  3.29219E+04
 -1.92129E+04  2.54980E+04 -3.00117E+04  1.23807E+04 -3.09905E+04 -1.94085E+03 -2.58497E+04 -1.77340E+04
 -1.19594E+04 -2.54328E+04  8.71248E+03 -2.40616E+04  2.00287E+04 -1.22040E+04  1.78103E+04  5.29103E+03
  7.42465E+03  1.35074E+04 -7.68468E+03  1.22625E+04 -1.50570E+04  2.61943E+03 -1.19279E+04 -9.35149E+03
 -8.55598E+01 -1.44366E+04  7.33443E+03 -1.08345E+04  9.70972E+03 -1.46972E+03  1.54237E+03  5.79417E+03
 -6.95594E+03  2.66241E+03 -5.18127E+03 -5.27110E+03  2.53670E+02 -1.24107E+04  8.98057E+03 -1.21743E+04
  1.51501E+04 -6.47181E+03  1.65280E+04  2.54243E+03  1.41261E+04  1.21197E+04  6.66146E+03  1.78316E+04
 -2.64723E+03  2.05430E+04 -1.26710E+04  1.24938E+04 -1.45839E+04  3.26454E+03 -1.05194E+04 -2.94344E+03
 -5.36652E+03 -4.22046E+03 -6.62152E+02  1.39413E+03 -2.27010E+03  2.77807E+03 -4.47528E+03  4.47232E+03
 -9.89566E+03 -3.66394E+02 -1.03864E+04 -8.53210E+03 -4.56842E+03 -1.37822E+04  4.53189E+03 -1.09601E+04
  8.64920E+03 -3.82428E+03  5.99525E+03  2.28065E+03  1.45910E+02  3.74050E+03 -4.30491E+03  1.54718E+02
 -4.82441E+03 -7.18966E+03 -6.13744E+02 -9.02847E+03  5.76386E+03 -1.01260E+04  1.27714E+04 -4.63517E+03
  1.45264E+04  1.00361E+03  1.08386E+04  8.77556E+03  2.46223E+03  1.12756E+04 -6.34406E+03  1.00304E+04
 -8.22455E+03  3.35621E+03 -4.05614E+03 -1.85759E+03  9.49183E+02 -2.90255E+03  5.55844E+03 -1.47266E+03
  5.00075E+03  4.67963E+03  1.62582E+03  8.04964E+03 -5.97816E+03  7.66419E+03 -9.50261E+03  2.15509E+03
 -6.59801E+03 -4.45816E+03  4.08205E+02 -8.57737E+03  5.30278E+03 -4.24953E+03  5.44793E+03  1.44016E+03
  1.31482E+03  4.97555E+03 -5.35893E+03  6.55714E+03 -6.98376E+03  2.71383E+03 -6.55453E+03 -1.69746E+03
 -4.46890E+03 -8.65182E+03  1.97692E+03 -9.46066E+03  8.23835E+03 -6.25258E+03  8.30206E+03  1.41652E+03
  5.85967E+03  7.40208E+03 -4.41256E+02  8.87685E+03 -6.81462E+03  5.11634E+03 -6.82312E+03 -7.68099E+02
 -6.92052E+03 -6.70432E+03 -1.27477E+03 -6.70031E+03  3.44121E+03 -5.78476E+03  4.54889E+03 -3.30092E+03
  3.12676E+03  7.89450E+01 -2.81929E+02  1.41151E+03  2.07953E+02 -7.24574E+02  6.09266E+02 -3.35526E+03
  5.40542E+03 -1.92062E+03  7.19067E+03  1.42842E+03  8.12249E+03  4.34597E+03  6.34713E+03  1.01533E+04
 -2.00650E+03  1.18680E+04 -1.07399E+04  8.89961E+03 -1.26693E+04  1.38780E+03 -1.08422E+04 -4.26277E+03
 -5.51880E+03 -8.87288E+03 -2.17160E+02 -6.90531E+03  2.42934E+03 -3.29757E+03  2.17574E+03 -2.77635E+03
  2.19327E+03 -1.93494E+03  2.34299E+03 -2.51687E+03  4.01178E+03 -1.51209E+03  4.98782E+03  2.85155E+01
  5.63620E+03  1.18543E+03  1.94159E+03  5.17663E+03 -1.41920E+03  4.43462E+03 -6.12301E+03  4.17891E+03
 -6.68321E+03 -9.00041E+02 -3.33714E+03 -4.20555E+03  4.78084E+01 -7.55797E+03  4.41874E+03 -7.38063E+03
  7.05941E+03 -4.55035E+03  9.51406E+03  6.59648E+02  6.59186E+03  6.36364E+03  1.34705E+03  8.08182E+03
 -2.96348E+03  7.33622E+03 -4.52872E+03  2.10038E+03 -2.99558E+03 -1.86950E+03 -7.93955E+02 -5.47036E+02
 -9.89821E+02 -1.88637E+02 -1.26540E+03  2.12310E+03 -3.84846E+03  1.04890E+03 -4.74688E+03 -3.06595E+02
 -2.79638E+03 -5.12696E+03  1.78434E+02 -6.97908E+03  3.89257E+03 -6.29916E+03  5.46454E+03 -1.04178E+03
  5.53648E+03  3.61404E+03  2.75639E+03  5.27362E+03 -1.15795E+03  5.99711E+03 -4.29697E+03  3.87420E+03
 -5.69898E+03  9.46189E+02 -4.81139E+03 -4.05751E+03 -7.45849E+02 -4.75780E+03  1.86989E+03 -3.65149E+03
  3.84379E+03 -1.49181E+03  2.88898E+03  4.05270E+02  1.00069E+03  2.76393E+03  1.13006E+03  9.13955E+02
  2.36590E+03  3.29288E+02  1.42266E+03  9.97478E+02  2.30733E+03  2.72816E+03  1.77442E+03  3.31441E+03
 -2.10272E+03  4.44744E+03 -4.24086E+03  5.65261E+03 -5.42649E+03  1.06948E+03 -5.88897E+03 -1.51694E+03
 -2.73700E+03 -6.32027E+03  1.26000E+03 -6.78467E+03  3.37046E+03 -4.51018E+03  4.81231E+03 -1.29666E+03
  3.52196E+03  2.82669E+03  9.49928E+02  2.95945E+03 -5.29695E+02  1.87914E+03 -2.08678E+03 -6.81977E+02
 -1.18522E+03 -3.11808E+03  1.54161E+03 -2.71428E+03  2.20103E+03 -1.18631E+03  1.92573E+03  5.68700E+02
  1.28437E+03  5.72083E+02  9.94190E+02  2.75545E+02 -2.67282E+02  6.18780E+02  1.27138E+03 -7.97237E+02
 -2.36352E+02 -5.54209E+02  2.18234E+03  1.20042E+03  1.27301E+03  3.47751E+03 -4.14283E+02  4.42064E+03
 -2.78693E+03  1.59168E+03 -3.27888E+03  3.10066E+02 -3.22961E+03 -1.06969E+03 -3.77077E+02 -2.04767E+03
  8.18207E+02 -1.64569E+03  1.66621E+03 -1.40590E+03  8.06888E+02  1.21912E+03 -8.02300E+02  1.89616E+03
 -2.11236E+03  1.45037E+03 -1.85512E+03 -1.89877E+03 -1.59522E+03 -3.67266E+03  2.27797E+02 -2.63496E+03
  1.04371E+03 -1.28551E+03  1.43186E+03 -2.71457E+02  1.66348E+03  2.32255E+02  4.74657E+01  2.20735E+03
 -5.14426E+02  4.85324E+02 -1.41573E+03 -6.41778E+02  6.11588E+02 -1.73938E+03  2.21248E+03 -1.09045E+03
  2.56544E+03  4.60783E+02  3.82437E+03  1.56026E+03  1.80822E+03  2.42653E+03 -7.66439E+02  2.75924E+03
 -2.67761E+03  7.21296E+02 -2.40445E+03 -6.86904E+01 -8.30758E+02 -2.14008E+03  1.22190E+02 -1.16561E+03
  2.15823E+03 -6.22530E+02  1.38435E+03  1.58715E+03 -2.56032E+02  1.83809E+03  6.16272E+02  1.40651E+03
 -5.72204E+02  7.26358E+02 -6.11096E+02 -1.48152E+02 -2.86187E+02  7.64921E+02 -9.57666E+02  6.29155E+01
 -9.33395E+02  1.65402E+03 -2.90154E+03  7.01317E+02 -2.76172E+03  1.60568E+02 -3.84323E+03 -1.65391E+03
 -1.14056E+03 -3.83734E+03  9.12861E+02 -4.23016E+03  1.79311E+03 -3.91547E+03  4.38887E+03 -1.74269E+03
  3.61549E+03 -9.80120E+01  2.27162E+03  2.49314E+03 -1.04032E+02  2.86572E+03 -1.30768E+03  1.62053E+03
 -2.23541E+03  9.00824E+02 -7.62640E+02 -9.14261E+01 -4.17497E+02 -1.01974E+02 -5.45733E+02 -6.93334E+02
 -1.17002E+03 -1.48721E+01 -8.44996E+02  7.04895E+02 -6.17097E+01 -8.06545E+02 -2.12194E+02 -6.15080E+02
  1.83282E+03 -1.36773E+03  1.68643E+03  3.63146E+02  1.43247E+03  1.64227E+03  5.60557E+01  2.85993E+03
 -2.14238E+03  3.97813E+03 -3.19884E+03  2.32656E+03 -3.30082E+03 -2.07839E+02 -1.71029E+03 -1.75745E+03
 -1.62954E+03 -2.34840E+03  5.82366E+02 -2.09850E+03  8.92330E+02 -6.94550E+02  1.35296E+03  3.94313E+02
  1.09833E+03  8.97889E+02 -1.14954E+02  3.84615E+01 -4.18445E+02  4.12762E+02  2.79871E+02 -8.02946E+02
  9.28529E+02  5.03586E+02  4.95670E+02  8.88065E+01  3.20496E+02  8.96555E+02  1.99920E+02  9.25970E+02
 -7.57288E+02  1.30379E+03 -7.52096E+02  1.76342E+02 -1.72924E+03 -1.05722E+03 -8.25679E+01 -2.20271E+03
  8.60434E+02 -1.44353E+03  1.09447E+03 -9.42154E+02  1.54755E+03 -7.89225E+02  8.97709E+02  1.82782E+03
  3.95510E+02  1.09870E+03 -3.66109E+02  7.16322E+02 -1.16172E+03  1.62147E+03 -7.51884E+02  7.31228E+01
 -7.71421E+02 -2.40844E+02 -8.86838E+02 -2.35626E+02 -1.58817E+03  1.28033E+02 -1.13284E+03  1.73173E+02
 -1.71335E+03 -5.58226E+02 -4.88407E+02 -2.09598E+03  1.11532E+03 -1.91756E+03  1.21527E+03 -8.04330E+02
  8.47390E+02  2.18702E+01 -2.00762E+00  2.42058E+02 -9.18918E+01  1.91081E+03 -9.72792E+02  1.15228E+03
