 $NMID ID='MM_0lb_SNR400_14hz_g50_94.RAW', FMTDAT='(8E13.5)'
 TRAMP=1., VOLUME=1. $END
  3.10264E+05  6.20513E+02  3.37601E+05  2.50669E+05  8.43539E+04  3.37940E+05 -1.32449E+05  2.50573E+05
 -1.90327E+05  8.35601E+04 -1.12275E+05 -3.23238E+04  1.08544E+03 -5.05881E+04  5.44224E+04 -5.60851E+02
  3.49340E+04  5.29112E+04 -1.73262E+04  7.52655E+04 -6.11910E+04  6.37377E+04 -8.43642E+04  3.21302E+04
 -8.15503E+04 -1.17497E+04 -5.73451E+04 -5.11404E+04 -1.48950E+04 -6.94359E+04  2.79849E+04 -4.54227E+04
  3.97487E+04  4.24925E+03  1.63659E+04  4.80393E+04 -3.48997E+04  4.68393E+04 -6.75329E+04  4.72630E+02
 -5.37267E+04 -5.67324E+04 -6.60052E+03 -7.65508E+04  3.45420E+04 -5.54109E+04  4.79135E+04 -1.71445E+04
  4.37888E+04  1.14308E+04  3.17398E+04  2.62042E+04  1.57506E+04  2.95140E+04 -5.25612E+03  2.73387E+04
 -2.14113E+04  1.25456E+04 -1.91645E+04 -5.10656E+03  5.66083E+03 -7.48547E+03  2.25126E+04  1.17741E+04
  7.41823E+03  3.58197E+04 -3.27057E+04  3.53697E+04 -6.29469E+04  2.67645E+03 -5.65581E+04 -4.28899E+04
 -1.16790E+04 -6.32729E+04  3.98196E+04 -4.53024E+04  5.79477E+04 -1.97915E+03  3.40918E+04  3.22470E+04
 -6.09624E+03  3.58218E+04 -3.01699E+04  1.57044E+04 -3.02080E+04 -3.30030E+03 -1.66312E+04 -1.09115E+04
 -8.05832E+03 -1.27832E+04 -7.83117E+02 -1.78114E+04  7.34618E+03 -2.33073E+04  1.54449E+04 -1.31819E+04
  1.10415E+04  5.11355E+03 -8.77243E+03  1.25813E+04 -2.11563E+04 -4.74244E+03 -8.15451E+03 -3.41441E+04
  2.29561E+04 -4.38518E+04  4.82620E+04 -1.98607E+04  4.51286E+04  1.94284E+04  1.57525E+04  4.45594E+04
 -1.51759E+04  3.42003E+04 -2.56802E+04  1.60427E+03 -1.01157E+04 -2.77718E+04  2.15249E+04 -3.36861E+04
  4.11168E+04 -9.35774E+03  3.53107E+04  2.39036E+04  1.82064E+04  4.73813E+04 -7.99946E+03  5.02195E+04
 -3.13699E+04  3.37880E+04 -4.17569E+04  9.35335E+03 -4.26873E+04 -1.65075E+04 -2.34078E+04 -3.82076E+04
  7.54061E+03 -3.85755E+04  3.10244E+04 -1.54032E+04  2.96908E+04  1.06594E+04  3.84410E+03  1.88475E+04
 -1.36587E+04  8.45933E+03 -1.02138E+04 -7.46514E+03  6.44381E+03 -1.06040E+04  1.81322E+04  6.20224E+03
  1.30161E+04  2.23931E+04 -5.17059E+03  2.44691E+04 -2.26462E+04  1.17039E+04 -2.76051E+04 -4.82954E+03
 -2.07213E+04 -1.67289E+04 -8.06215E+03 -1.98298E+04  4.28602E+03 -1.98891E+04  1.55082E+04 -1.79414E+04
  2.62189E+04 -1.23942E+04  3.27883E+04  3.02930E+03  2.33224E+04  2.05207E+04  4.88611E+03  3.66041E+04
 -1.81181E+04  3.04696E+04 -2.78535E+04  1.03751E+04 -2.08099E+04 -1.01690E+04 -4.42082E+03 -1.33630E+04
  1.55380E+03 -2.52695E+03 -4.72676E+03  7.05332E+03 -1.67137E+04  5.48760E+03 -1.66054E+04 -6.73483E+03
 -1.03458E+04 -1.96899E+04  4.90212E+03 -2.37373E+04  1.53574E+04 -1.68154E+04  1.83306E+04 -1.58734E+03
  1.17461E+04  1.36547E+04 -9.25757E+02  1.90197E+04 -1.31327E+04  1.01138E+04 -1.89765E+04 -3.95754E+03
 -1.38206E+04 -1.73707E+04 -2.04477E+03 -2.32313E+04  1.01458E+04 -1.86182E+04  1.99117E+04 -9.22615E+03
  1.78519E+04  2.02828E+02  1.26731E+04  4.46523E+03  6.67123E+03  5.03038E+02  1.00579E+04 -1.42108E+03
  1.77014E+04  3.29421E+03  1.98667E+04  1.51896E+04  1.33512E+04  3.08067E+04 -3.59439E+03  3.45431E+04
 -2.00718E+04  2.73337E+04 -3.18409E+04  1.37042E+04 -3.37599E+04 -2.51915E+03 -2.80041E+04 -1.91543E+04
 -1.19852E+04 -2.74409E+04  9.19745E+03 -2.50709E+04  2.17367E+04 -1.30724E+04  1.92460E+04  5.64529E+03
  7.47935E+03  1.43830E+04 -8.73511E+03  1.27145E+04 -1.62926E+04  2.56583E+03 -1.24458E+04 -9.80216E+03
 -3.04215E+02 -1.57343E+04  7.90740E+03 -1.19729E+04  1.04266E+04 -1.04347E+03  1.62648E+03  6.81348E+03
 -6.96229E+03  3.27614E+03 -5.84719E+03 -5.04451E+03 -8.79298E+02 -1.37347E+04  9.16260E+03 -1.43852E+04
  1.66069E+04 -7.84468E+03  1.82554E+04  2.89985E+03  1.51676E+04  1.42890E+04  6.96334E+03  1.98078E+04
 -3.09960E+03  2.15060E+04 -1.46139E+04  1.41056E+04 -1.59557E+04  3.24030E+03 -1.14624E+04 -3.50614E+03
 -5.76111E+03 -5.25903E+03 -8.15733E+02  7.23958E+02 -2.85577E+03  2.58080E+03 -5.16126E+03  4.43208E+03
 -1.06950E+04 -1.51155E+02 -1.16896E+04 -9.71059E+03 -5.22294E+03 -1.48866E+04  4.51935E+03 -1.17031E+04
  1.01056E+04 -4.65855E+03  6.32096E+03  2.39486E+03  4.99850E+00  4.79896E+03 -5.50706E+03 -4.33122E+02
 -5.01775E+03 -7.17929E+03 -5.50163E+02 -1.05251E+04  6.16217E+03 -1.16349E+04  1.39268E+04 -5.97101E+03
  1.63344E+04  1.48676E+03  1.23349E+04  9.59242E+03  2.28348E+03  1.21327E+04 -7.10719E+03  1.06977E+04
 -9.41649E+03  3.54364E+03 -5.18318E+03 -2.25447E+03  2.12353E+03 -3.21652E+03  6.10720E+03 -6.47888E+02
  5.25261E+03  4.82597E+03  1.46027E+03  9.15228E+03 -5.65127E+03  8.27226E+03 -1.03701E+04  1.87433E+03
 -7.48736E+03 -5.61560E+03  6.85940E+02 -9.22400E+03  6.05101E+03 -4.14734E+03  5.79183E+03  1.92621E+03
  1.16053E+03  5.84867E+03 -5.69132E+03  7.57608E+03 -8.55654E+03  3.56768E+03 -8.29362E+03 -2.56587E+03
 -5.58416E+03 -1.04295E+04  2.74143E+03 -1.12660E+04  9.69469E+03 -7.43345E+03  1.06345E+04  2.02026E+03
  7.03780E+03  9.01087E+03  4.90838E+02  1.03797E+04 -7.44455E+03  5.58249E+03 -7.75601E+03 -4.71303E+02
 -7.56483E+03 -7.09757E+03 -1.78006E+03 -7.43274E+03  3.60866E+03 -6.78699E+03  4.58058E+03 -3.36206E+03
  3.72201E+03  1.24407E+03  1.37756E+02  1.50806E+03  1.02766E+02 -9.96132E+02  1.07295E+03 -4.22134E+03
  6.81670E+03 -2.19535E+03  8.94132E+03  1.17927E+03  9.72530E+03  6.75570E+03  7.09743E+03  1.27177E+04
 -2.35801E+03  1.45144E+04 -1.19341E+04  1.11036E+04 -1.56724E+04  1.92030E+03 -1.26309E+04 -5.02209E+03
 -6.57802E+03 -1.03302E+04 -1.95565E+02 -8.98658E+03  2.58231E+03 -4.28899E+03  2.95663E+03 -3.90466E+03
  2.19853E+03 -2.77671E+03  3.14441E+03 -2.89540E+03  3.57319E+03 -2.18322E+03  5.01663E+03 -3.48506E+02
  6.17285E+03  1.61501E+03  3.26441E+03  6.09338E+03 -2.07766E+03  6.48454E+03 -7.35172E+03  4.53603E+03
 -8.87497E+03 -1.15763E+03 -4.45104E+03 -5.63026E+03 -2.59967E+02 -8.25115E+03  5.78590E+03 -8.65917E+03
  9.32755E+03 -5.27740E+03  1.19973E+04  1.00212E+03  7.60356E+03  7.42426E+03  1.32438E+03  1.05117E+04
 -3.70052E+03  9.07124E+03 -5.74786E+03  3.02117E+03 -3.33398E+03 -8.07774E+02 -1.49372E+03 -5.14401E+02
 -7.17199E+02 -3.55231E+02 -1.62737E+03  2.36580E+03 -4.28309E+03  1.14360E+03 -6.37409E+03 -5.43806E+02
 -3.18050E+03 -5.66890E+03 -1.76421E+02 -8.24016E+03  4.51254E+03 -7.04197E+03  7.97338E+03 -2.59262E+03
  7.59363E+03  4.41158E+03  3.73447E+03  6.64726E+03 -1.02913E+03  8.35329E+03 -5.80283E+03  4.83832E+03
 -7.00078E+03  6.10300E+02 -5.61046E+03 -4.84346E+03 -9.19858E+02 -6.25802E+03  3.22906E+03 -5.08763E+03
  4.84440E+03 -1.80231E+03  3.72413E+03  1.64911E+03  1.09415E+03  2.81547E+03  6.40294E+02  7.10997E+02
  2.03992E+03  4.07962E+02  1.36609E+03  1.06038E+03  2.25242E+03  3.06960E+03  2.76565E+03  3.97977E+03
 -1.94540E+03  6.10797E+03 -5.13145E+03  6.68236E+03 -7.29465E+03  2.36025E+03 -7.98990E+03 -2.22881E+03
 -4.10079E+03 -7.68075E+03  8.57165E+02 -8.62602E+03  4.50359E+03 -5.33526E+03  6.27823E+03 -5.41279E+02
  5.00680E+03  2.88629E+03  5.50996E+02  4.72519E+03 -1.53487E+03  2.79777E+03 -2.79703E+03 -3.66205E+01
 -7.45283E+02 -3.64685E+03  1.94808E+03 -3.02648E+03  3.36797E+03 -1.95536E+03  3.16100E+03  5.81937E+02
  1.76093E+03  1.58275E+03  6.44938E+02  2.12257E+02  3.44526E+02  1.13498E+03  1.38839E+03 -7.75540E+01
  8.44706E+02 -6.20854E+02  3.23019E+03  1.28806E+03  1.60752E+03  3.93291E+03 -9.60283E+02  5.13433E+03
 -3.03208E+03  2.66804E+03 -4.35671E+03  7.08694E+02 -4.03737E+03 -1.28635E+03 -1.23241E+03 -2.03719E+03
  5.08937E+02 -2.27555E+03  1.87887E+03 -7.49350E+02  1.69771E+03  1.90575E+03 -1.00034E+03  2.17199E+03
 -3.16354E+03  1.73931E+03 -3.41917E+03 -2.14522E+03 -1.83842E+03 -3.97591E+03  4.84757E+02 -3.97397E+03
  1.87464E+03 -2.08688E+03  2.65248E+03  4.56385E+02  2.27237E+03  1.03425E+03  2.96693E+02  1.70159E+03
 -1.50079E+03  4.39631E+02 -2.34973E+03 -1.52802E+03  1.25199E+03 -2.50729E+03  3.09636E+03 -1.62562E+03
  3.61349E+03  5.49748E+02  4.67832E+03  2.83515E+03  1.05612E+03  4.05946E+03 -1.45589E+03  4.11288E+03
 -3.52558E+03  1.66756E+03 -4.38468E+03 -2.13086E+02 -2.08045E+03 -2.63297E+03  5.12328E+02 -2.34281E+03
  3.21184E+03 -9.41830E+02  1.93513E+03  1.77812E+03  7.21596E+02  2.37930E+03  1.63578E+02  1.78354E+03
 -6.68851E+02  1.68377E+03 -7.45765E+02  1.01109E+03  1.40394E+00  2.14406E+02 -9.07600E+02  9.21545E+02
 -1.08166E+03  1.69105E+03 -2.80292E+03  1.18835E+03 -3.33090E+03  5.76250E+02 -5.47123E+03 -2.81513E+03
 -2.27333E+03 -5.36518E+03  9.19829E+02 -6.70493E+03  2.49720E+03 -5.60606E+03  5.97164E+03 -2.23366E+03
  5.53632E+03  1.67079E+03  4.18715E+03  4.03250E+03 -3.47835E+02  4.21022E+03 -1.52431E+03  2.85699E+03
 -2.35828E+03  1.07921E+03 -1.37274E+03 -3.90115E+02 -9.76826E+02  1.09514E+02 -1.00211E+03 -5.71649E+01
 -9.88926E+02 -4.38660E+02 -7.45631E+02 -1.85862E+02  4.21152E+00 -1.61660E+03 -4.01701E+02 -1.35904E+03
  2.93081E+03 -1.21917E+03  1.89408E+03 -4.50003E+02  3.45185E+03  2.46011E+03  2.03149E+02  4.02852E+03
 -2.52220E+03  5.01043E+03 -4.10997E+03  2.30324E+03 -5.11887E+03 -5.57865E+02 -3.43029E+03 -2.98591E+03
 -1.77652E+03 -3.92844E+03  6.89619E+02 -3.85690E+03  2.40780E+03 -1.28529E+03  1.92369E+03  3.56584E+02
  2.04516E+03  1.50143E+03 -8.67552E+02  1.10416E+03 -6.19614E+02 -1.61266E+02 -2.84048E+01 -4.98119E+02
  1.08074E+03 -3.43654E+02  1.06116E+03  1.22046E+03  9.68130E+02  1.48994E+03  6.38296E+02  1.95327E+03
 -1.76300E+03  1.85097E+03 -2.22128E+03  8.07775E+02 -2.26308E+03 -1.73748E+03  6.70621E+01 -2.89148E+03
  1.73682E+03 -2.50132E+03  3.16266E+03 -1.89710E+02  3.24845E+03  1.58179E+01  1.63222E+03  1.89216E+03
  6.47612E+02  2.69389E+03 -7.28863E+02  2.03247E+03 -1.26680E+03  1.15161E+03 -1.31703E+03  7.43853E+02
 -5.52589E+02  2.01888E+02 -9.36346E+02  5.07198E+01 -2.07777E+03  6.70027E+02 -2.25391E+03 -8.66594E+02
 -1.83172E+03 -8.68739E+02 -7.58571E+02 -2.52578E+03  1.05512E+03 -3.30017E+03  2.52572E+03 -7.68563E+02
  1.72133E+03  1.60553E+02  1.29057E+03  1.33108E+03 -1.72125E+02  2.63798E+03 -1.48046E+03  1.18500E+03
