 $NMID ID='MM_0lb_SNR400_12hz_g50_27.RAW', FMTDAT='(8E13.5)'
 TRAMP=1., VOLUME=1. $END
  3.09519E+05  6.87862E+02  3.38395E+05  2.50803E+05  8.52748E+04  3.38187E+05 -1.32855E+05  2.51091E+05
 -1.90462E+05  8.35061E+04 -1.12208E+05 -3.26602E+04  3.63789E+02 -5.10457E+04  5.36122E+04 -4.42490E+02
  3.55762E+04  5.29082E+04 -1.59713E+04  7.64231E+04 -6.10688E+04  6.35708E+04 -8.47891E+04  3.14526E+04
 -8.15832E+04 -1.14793E+04 -5.76903E+04 -5.15128E+04 -1.51054E+04 -7.01974E+04  2.76699E+04 -4.60670E+04
  4.04344E+04  3.48707E+03  1.67268E+04  4.81882E+04 -3.43026E+04  4.79229E+04 -6.76412E+04 -4.75105E+02
 -5.38817E+04 -5.72022E+04 -7.82420E+03 -7.74997E+04  3.45580E+04 -5.52624E+04  4.85738E+04 -1.75758E+04
  4.45295E+04  1.16229E+04  3.27481E+04  2.63256E+04  1.56751E+04  2.96036E+04 -5.64612E+03  2.77839E+04
 -2.27651E+04  1.21835E+04 -1.84210E+04 -5.51567E+03  6.51867E+03 -7.77612E+03  2.29001E+04  1.29736E+04
  6.84685E+03  3.61022E+04 -3.32046E+04  3.65623E+04 -6.37830E+04  2.21550E+03 -5.74464E+04 -4.37651E+04
 -1.27998E+04 -6.40957E+04  4.11788E+04 -4.60018E+04  6.01492E+04 -2.03123E+03  3.55778E+04  3.36805E+04
 -5.95491E+03  3.83479E+04 -3.06742E+04  1.72499E+04 -3.10172E+04 -3.25925E+03 -1.78576E+04 -1.16994E+04
 -8.92097E+03 -1.43998E+04 -6.94432E+02 -1.85255E+04  6.99201E+03 -2.30549E+04  1.58059E+04 -1.31238E+04
  1.07561E+04  5.71891E+03 -9.20264E+03  1.21389E+04 -2.16255E+04 -5.44981E+03 -7.86066E+03 -3.61386E+04
  2.34850E+04 -4.49448E+04  4.96100E+04 -2.02706E+04  4.60914E+04  2.02926E+04  1.63791E+04  4.53548E+04
 -1.64406E+04  3.47621E+04 -2.61771E+04  2.28960E+03 -1.08561E+04 -2.80997E+04  2.05786E+04 -3.44990E+04
  4.21431E+04 -9.38295E+03  3.74123E+04  2.41121E+04  1.94791E+04  4.88199E+04 -8.16182E+03  5.24463E+04
 -3.24343E+04  3.56976E+04 -4.42351E+04  9.87087E+03 -4.46345E+04 -1.78379E+04 -2.43275E+04 -4.00815E+04
  7.35412E+03 -3.89772E+04  3.22033E+04 -1.55546E+04  3.03700E+04  1.06039E+04  4.50797E+03  2.03093E+04
 -1.37096E+04  9.24609E+03 -1.06750E+04 -7.75229E+03  5.82315E+03 -1.08268E+04  1.87533E+04  6.22535E+03
  1.37150E+04  2.23400E+04 -5.54775E+03  2.61414E+04 -2.21851E+04  1.26802E+04 -2.94881E+04 -4.15942E+03
 -2.22506E+04 -1.77262E+04 -9.42989E+03 -2.24266E+04  4.68345E+03 -2.17897E+04  1.79214E+04 -2.04231E+04
  2.84204E+04 -1.28998E+04  3.52664E+04  2.93930E+03  2.45666E+04  2.21381E+04  4.07347E+03  3.84219E+04
 -1.85305E+04  3.13537E+04 -2.89234E+04  1.08898E+04 -2.15892E+04 -1.03957E+04 -4.69242E+03 -1.32289E+04
  1.17816E+03 -2.47644E+03 -5.64386E+03  7.57394E+03 -1.77649E+04  5.10029E+03 -1.80542E+04 -8.12109E+03
 -1.02981E+04 -2.08195E+04  5.34975E+03 -2.48820E+04  1.71328E+04 -1.79983E+04  2.02293E+04 -1.99747E+03
  1.28129E+04  1.45904E+04 -1.12674E+03  2.09935E+04 -1.48087E+04  1.22299E+04 -2.07561E+04 -3.62139E+03
 -1.48857E+04 -1.85534E+04 -1.69035E+03 -2.52026E+04  1.12551E+04 -2.08941E+04  2.06079E+04 -1.13057E+04
  1.95385E+04 -3.27432E+02  1.43056E+04  4.34678E+03  7.58830E+03  8.11097E+02  1.03665E+04 -2.32953E+03
  1.96285E+04  2.56948E+03  2.20112E+04  1.67449E+04  1.50984E+04  3.29542E+04 -2.58341E+03  3.71942E+04
 -2.20366E+04  3.13100E+04 -3.60874E+04  1.59878E+04 -3.79432E+04 -2.21989E+03 -3.12428E+04 -2.19422E+04
 -1.30392E+04 -3.09711E+04  1.02398E+04 -2.81320E+04  2.38920E+04 -1.33650E+04  2.11112E+04  6.73812E+03
  8.06353E+03  1.59581E+04 -9.78165E+03  1.34035E+04 -1.70491E+04  1.88925E+03 -1.40312E+04 -1.13489E+04
  8.43399E+00 -1.72110E+04  9.41198E+03 -1.27144E+04  1.17880E+04 -1.80575E+03  2.42085E+03  7.22380E+03
 -7.81844E+03  3.36971E+03 -7.55698E+03 -5.90575E+03 -1.01508E+03 -1.48556E+04  1.05248E+04 -1.62784E+04
  1.95963E+04 -8.99105E+03  2.07541E+04  2.56466E+03  1.83513E+04  1.52931E+04  8.94625E+03  2.33099E+04
 -4.19748E+03  2.54591E+04 -1.58274E+04  1.56075E+04 -1.84406E+04  3.11968E+03 -1.27473E+04 -4.20487E+03
 -5.65849E+03 -5.79236E+03 -5.54034E+02  2.12614E+02 -2.79763E+03  2.80478E+03 -5.95501E+03  4.36433E+03
 -1.15504E+04 -4.36089E+02 -1.22492E+04 -9.73125E+03 -5.59332E+03 -1.59980E+04  5.68959E+03 -1.32024E+04
  1.09987E+04 -5.63404E+03  7.82641E+03  3.86279E+03 -5.85470E+01  4.64562E+03 -6.33842E+03 -2.94749E+02
 -6.20936E+03 -8.30536E+03 -1.08432E+03 -1.23443E+04  7.08544E+03 -1.28329E+04  1.60990E+04 -6.64837E+03
  1.92537E+04  1.27931E+03  1.36880E+04  1.12327E+04  2.18205E+03  1.48418E+04 -8.40703E+03  1.24220E+04
 -1.05915E+04  4.19053E+03 -5.69295E+03 -2.32674E+03  2.33876E+03 -3.29885E+03  7.00154E+03 -4.75141E+02
  6.06469E+03  5.73555E+03  1.54558E+03  1.02415E+04 -7.27752E+03  1.01443E+04 -1.24902E+04  2.36155E+03
 -8.68015E+03 -6.08121E+03  1.12879E+03 -1.06294E+04  6.82162E+03 -5.06986E+03  7.60194E+03  3.08434E+03
  1.77427E+03  7.73794E+03 -6.90115E+03  9.09171E+03 -1.01224E+04  4.10748E+03 -1.02323E+04 -3.51486E+03
 -6.24357E+03 -1.20733E+04  2.64903E+03 -1.36772E+04  1.15542E+04 -7.98163E+03  1.24390E+04  1.37536E+03
  8.60999E+03  9.72287E+03 -1.12257E+03  1.23863E+04 -9.12274E+03  7.04782E+03 -9.39644E+03 -1.16369E+03
 -9.55468E+03 -8.60487E+03 -2.08973E+03 -9.16813E+03  5.32763E+03 -7.92173E+03  5.35212E+03 -3.41051E+03
  3.86019E+03  1.07399E+03 -2.70338E+02  9.39221E+02  4.17910E+01 -2.11265E+03  1.94345E+03 -4.36895E+03
  8.15795E+03 -3.52616E+03  1.13236E+04  8.34914E+02  1.12094E+04  7.82295E+03  8.45198E+03  1.59443E+04
 -3.85045E+03  1.76887E+04 -1.51097E+04  1.33572E+04 -1.91666E+04  2.13098E+03 -1.58860E+04 -5.71567E+03
 -7.94491E+03 -1.23398E+04 -9.27030E+02 -1.02149E+04  3.78518E+03 -6.51469E+03  3.79268E+03 -4.37827E+03
  2.82636E+03 -2.41236E+03  3.25112E+03 -3.06355E+03  4.70897E+03 -3.57311E+03  5.41138E+03 -1.16560E+03
  7.91988E+03  2.46736E+03  3.71222E+03  7.42371E+03 -2.15041E+03  8.40668E+03 -8.51256E+03  6.62405E+03
 -1.00675E+04 -1.88955E+03 -6.65181E+03 -7.32186E+03 -4.56158E+02 -1.10044E+04  6.16882E+03 -1.19607E+04
  1.17046E+04 -6.55677E+03  1.35621E+04  1.61400E+03  1.01528E+04  9.65771E+03  2.19396E+03  1.19965E+04
 -5.05123E+03  1.08314E+04 -7.90974E+03  3.93201E+03 -5.12481E+03 -1.15337E+03 -1.36417E+03 -1.96127E+03
 -1.41433E+03  1.99592E+02 -1.71970E+03  2.41589E+03 -4.99189E+03  1.56414E+03 -8.15805E+03 -1.03933E+03
 -4.56772E+03 -7.49540E+03 -6.27281E+01 -1.03265E+04  6.87788E+03 -9.21778E+03  9.76586E+03 -2.62402E+03
  1.07677E+04  5.35331E+03  4.76426E+03  9.76966E+03 -1.85875E+03  9.43493E+03 -7.35064E+03  7.05155E+03
 -9.85454E+03  1.28466E+03 -7.38747E+03 -5.82415E+03 -2.33381E+02 -9.10492E+03  3.92671E+03 -5.86661E+03
  6.57134E+03 -2.30866E+03  4.37691E+03  1.37401E+03  1.23761E+03  3.51259E+03  2.25347E+03  1.67668E+03
  1.80991E+03  1.13711E+03  2.85886E+03  1.37331E+03  3.66712E+03  3.95388E+03  2.93160E+03  5.58414E+03
 -2.07668E+03  8.31271E+03 -7.03481E+03  8.30401E+03 -9.86712E+03  2.59338E+03 -1.05906E+04 -4.00698E+03
 -4.90031E+03 -1.02786E+04  1.98403E+03 -1.12982E+04  5.57155E+03 -6.97123E+03  8.37070E+03 -1.56979E+03
  6.10383E+03  4.12425E+03  4.37119E+02  6.22439E+03 -2.18360E+03  3.31880E+03 -4.36429E+03 -4.80864E+02
 -2.08183E+03 -4.33931E+03  2.45172E+03 -4.80921E+03  4.31680E+03 -2.25496E+03  3.96897E+03  1.23300E+03
  2.34796E+03  1.94943E+03  1.27638E+03  1.26140E+03 -2.96056E+02  2.03532E+03  1.59847E+03 -2.61049E+02
  1.21265E+03  3.73233E+01  4.29498E+03  1.19475E+03  2.41232E+03  5.65871E+03 -1.18163E+03  7.42735E+03
 -4.81294E+03  4.41431E+03 -5.89846E+03  8.80413E+02 -5.56314E+03 -1.76369E+03 -1.59166E+03 -3.99510E+03
  7.21671E+02 -3.95025E+03  2.84899E+03 -1.44730E+03  2.22155E+03  2.23476E+03 -1.25598E+03  3.42219E+03
 -3.66862E+03  1.95899E+03 -4.14821E+03 -2.63926E+03 -2.24719E+03 -5.65230E+03  7.71961E+02 -5.10974E+03
  2.56163E+03 -2.76483E+03  4.19109E+03  1.63799E+02  3.72895E+03  1.10055E+03  7.08089E+02  2.47327E+03
 -1.81741E+03  7.38423E+02 -2.42913E+03 -1.42295E+03  1.26966E+03 -4.25831E+03  4.90645E+03 -3.47556E+03
  5.61237E+03  8.14281E+01  5.76884E+03  4.15535E+03  2.19294E+03  5.51650E+03 -1.69560E+03  6.04631E+03
 -4.82707E+03  1.84844E+03 -5.30174E+03 -1.06258E+03 -2.96655E+03 -3.43621E+03  4.96148E+01 -3.67665E+03
  4.36782E+03 -1.97697E+03  3.61480E+03  1.96126E+03  9.18701E+02  2.79595E+03 -5.63805E+02  2.92485E+03
 -1.90296E+03  1.92284E+03 -1.67271E+03  7.60807E+02 -3.47755E+02  1.77925E+02 -6.16261E+02  1.63500E+03
 -1.86284E+03  1.89201E+03 -4.17661E+03  2.45718E+03 -6.34849E+03  4.06640E+02 -7.31009E+03 -3.45792E+03
 -3.38854E+03 -8.18606E+03  1.19550E+03 -9.89787E+03  5.25306E+03 -8.03561E+03  9.10445E+03 -2.73586E+03
  8.53541E+03  1.37236E+03  5.35754E+03  6.19754E+03  5.98842E+02  5.36167E+03 -2.70851E+03  4.34496E+03
 -3.24613E+03  1.19118E+03 -2.58240E+03 -1.06733E+03 -6.19863E+02 -1.98864E+02 -1.44153E+03  7.83681E+01
 -1.56340E+03 -1.20472E+02 -1.99934E+03 -9.41286E+01 -3.38741E+02 -1.77029E+03 -2.46178E+02 -1.94257E+03
  3.44661E+03 -1.69857E+03  3.53850E+03  1.26042E+02  4.44490E+03  3.33211E+03  8.25515E+02  5.30803E+03
 -3.39181E+03  6.54924E+03 -6.99427E+03  3.85566E+03 -7.23685E+03 -1.18107E+03 -5.85143E+03 -4.69139E+03
 -2.02113E+03 -6.72694E+03  1.72983E+03 -5.17266E+03  4.04123E+03 -2.99289E+03  3.57459E+03  2.54591E+02
  2.37269E+03  2.28203E+03  4.88235E+02  1.86043E+03 -1.05228E+03  2.44152E+02 -4.84592E+02 -8.79480E+02
  1.46947E+03 -1.05464E+03  2.64298E+03  9.53482E+02  1.65429E+03  1.92750E+03  1.22394E+03  2.70886E+03
 -2.45306E+03  2.49827E+03 -3.85344E+03  3.49195E+02 -3.71476E+03 -2.86702E+03 -1.21952E+03 -4.18567E+03
  2.41706E+03 -3.64235E+03  3.86462E+03 -1.38833E+03  4.65119E+03  1.03572E+03  2.58340E+03  3.27448E+03
  8.57232E+02  4.09347E+03 -1.05318E+03  2.32559E+03 -2.54542E+03  2.28176E+03 -2.33813E+03  6.91538E+02
 -7.32796E+02 -4.40597E+02 -1.21304E+03  1.05900E+03 -1.98971E+03  3.64589E+02 -2.19932E+03 -8.01601E+02
 -3.41965E+03 -1.78167E+03 -1.00840E+03 -4.52566E+03  1.72784E+03 -4.01786E+03  3.48985E+03 -1.63289E+03
  3.62328E+03  9.78155E+02  1.13543E+03  2.75666E+03 -5.62721E+02  3.46636E+03 -2.28749E+03  2.42940E+03
