 $NMID ID='MM_0lb_SNR400_12hz_g55_44.RAW', FMTDAT='(8E13.5)'
 TRAMP=1., VOLUME=1. $END
  3.09972E+05  1.13041E+03  3.38392E+05  2.50827E+05  8.47848E+04  3.38833E+05 -1.32271E+05  2.51622E+05
 -1.90490E+05  8.39609E+04 -1.11998E+05 -3.29053E+04  8.12416E+02 -5.06050E+04  5.35705E+04 -3.15893E+02
  3.60687E+04  5.26362E+04 -1.70158E+04  7.55861E+04 -6.12427E+04  6.39801E+04 -8.50232E+04  3.22443E+04
 -8.21715E+04 -1.15942E+04 -5.80009E+04 -5.21149E+04 -1.52735E+04 -7.03715E+04  2.79118E+04 -4.63843E+04
  4.07952E+04  4.22320E+03  1.62790E+04  4.87070E+04 -3.45460E+04  4.72214E+04 -6.71501E+04 -1.24000E+02
 -5.40752E+04 -5.77168E+04 -7.01440E+03 -7.82762E+04  3.42109E+04 -5.52908E+04  4.92732E+04 -1.80069E+04
  4.44433E+04  1.05259E+04  3.27060E+04  2.62632E+04  1.60205E+04  2.99739E+04 -5.37180E+03  2.82619E+04
 -2.24369E+04  1.19788E+04 -1.78878E+04 -5.03770E+03  6.57200E+03 -7.29181E+03  2.31208E+04  1.29271E+04
  7.17625E+03  3.68891E+04 -3.28130E+04  3.70064E+04 -6.46435E+04  2.26109E+03 -5.80625E+04 -4.41328E+04
 -1.26920E+04 -6.49129E+04  4.01161E+04 -4.61048E+04  5.97043E+04 -2.63988E+03  3.55773E+04  3.35522E+04
 -5.89525E+03  3.76157E+04 -3.11681E+04  1.74058E+04 -3.14011E+04 -4.30744E+03 -1.86395E+04 -1.14655E+04
 -8.76876E+03 -1.36453E+04  8.52739E+00 -1.86421E+04  8.59198E+03 -2.35931E+04  1.63944E+04 -1.33719E+04
  1.10448E+04  5.72801E+03 -9.60686E+03  1.27954E+04 -2.26660E+04 -5.32653E+03 -8.80166E+03 -3.61037E+04
  2.33565E+04 -4.51737E+04  5.03753E+04 -1.99023E+04  4.60593E+04  1.98085E+04  1.69819E+04  4.60213E+04
 -1.66283E+04  3.56187E+04 -2.67712E+04  1.71733E+03 -1.03636E+04 -2.81773E+04  2.08281E+04 -3.53864E+04
  4.31710E+04 -1.02374E+04  3.76863E+04  2.43830E+04  1.98134E+04  4.92709E+04 -7.71811E+03  5.37492E+04
 -3.37377E+04  3.59864E+04 -4.49512E+04  1.05177E+04 -4.50555E+04 -1.72128E+04 -2.43117E+04 -4.05559E+04
  7.22417E+03 -3.96871E+04  3.22964E+04 -1.60812E+04  3.13498E+04  1.09396E+04  4.93757E+03  1.92784E+04
 -1.40955E+04  9.23689E+03 -1.11396E+04 -7.65700E+03  5.80754E+03 -1.10497E+04  1.84506E+04  6.27406E+03
  1.45194E+04  2.25970E+04 -5.14178E+03  2.64166E+04 -2.36928E+04  1.39479E+04 -2.94595E+04 -3.56078E+03
 -2.31137E+04 -1.77638E+04 -1.05622E+04 -2.28529E+04  4.14554E+03 -2.26549E+04  1.82483E+04 -2.09596E+04
  2.99988E+04 -1.34038E+04  3.58360E+04  4.19772E+03  2.56845E+04  2.22576E+04  4.49111E+03  3.86069E+04
 -1.91140E+04  3.23607E+04 -2.93995E+04  1.10896E+04 -2.11742E+04 -1.02114E+04 -4.67871E+03 -1.31714E+04
  1.50404E+03 -1.61249E+03 -6.06827E+03  7.97468E+03 -1.76899E+04  5.39551E+03 -1.78542E+04 -8.19212E+03
 -1.10267E+04 -2.12332E+04  5.50592E+03 -2.54699E+04  1.66816E+04 -1.77366E+04  2.10129E+04 -1.76289E+03
  1.32376E+04  1.45724E+04 -6.47561E+02  2.11179E+04 -1.44217E+04  1.19899E+04 -2.16981E+04 -3.96869E+03
 -1.52280E+04 -1.90470E+04 -1.99820E+03 -2.55843E+04  1.17214E+04 -2.12093E+04  2.19052E+04 -1.11194E+04
  2.00084E+04 -3.56486E+02  1.47465E+04  4.58922E+03  7.02481E+03  1.44810E+03  1.11894E+04 -1.98089E+03
  1.96407E+04  2.91983E+03  2.20584E+04  1.64670E+04  1.49480E+04  3.39665E+04 -2.82130E+03  4.01163E+04
 -2.25842E+04  3.20375E+04 -3.69687E+04  1.66293E+04 -3.89679E+04 -2.99843E+03 -3.20768E+04 -2.21145E+04
 -1.29059E+04 -3.19206E+04  1.11185E+04 -2.89409E+04  2.46535E+04 -1.39512E+04  2.16980E+04  6.40422E+03
  8.13169E+03  1.64599E+04 -1.02903E+04  1.47235E+04 -1.82263E+04  3.04954E+03 -1.37195E+04 -1.16706E+04
 -9.50196E+01 -1.71266E+04  9.21348E+03 -1.29830E+04  1.21817E+04 -1.22761E+03  2.77389E+03  7.80072E+03
 -8.05495E+03  3.54727E+03 -7.60928E+03 -6.54573E+03 -8.22288E+02 -1.61243E+04  1.04937E+04 -1.77771E+04
  1.95359E+04 -8.74697E+03  2.19397E+04  3.29105E+03  1.87185E+04  1.55650E+04  8.97624E+03  2.42225E+04
 -4.65620E+03  2.68920E+04 -1.68224E+04  1.67244E+04 -1.94728E+04  3.59565E+03 -1.30966E+04 -4.81427E+03
 -6.04754E+03 -5.72197E+03 -6.08205E+02  1.16958E+03 -2.47972E+03  3.39845E+03 -6.10804E+03  5.20362E+03
 -1.18287E+04 -1.28938E+03 -1.35623E+04 -1.05668E+04 -5.59305E+03 -1.68884E+04  5.30287E+03 -1.28798E+04
  1.07788E+04 -6.33943E+03  7.33473E+03  2.88924E+03 -1.38759E+02  5.07588E+03 -6.03405E+03  2.51756E+01
 -5.85526E+03 -8.42011E+03 -1.02987E+03 -1.33790E+04  7.40709E+03 -1.36501E+04  1.64122E+04 -7.44275E+03
  2.02541E+04  1.72943E+03  1.43906E+04  1.18502E+04  3.23955E+03  1.58954E+04 -8.60745E+03  1.33202E+04
 -1.05362E+04  4.14594E+03 -5.51810E+03 -2.47387E+03  1.57309E+03 -4.22495E+03  6.60938E+03 -1.35098E+03
  6.16376E+03  5.52700E+03  1.62160E+03  1.07871E+04 -7.64519E+03  1.05042E+04 -1.32423E+04  2.63370E+03
 -7.68187E+03 -6.42965E+03  3.57336E+02 -1.11280E+04  7.20538E+03 -4.98315E+03  7.48923E+03  2.86961E+03
  2.42893E+03  8.27367E+03 -7.09721E+03  8.98767E+03 -1.06526E+04  3.77367E+03 -1.07141E+04 -3.42924E+03
 -5.92069E+03 -1.28914E+04  3.60668E+03 -1.48586E+04  1.23859E+04 -8.54290E+03  1.34430E+04  2.05979E+03
  8.47675E+03  1.06268E+04 -8.53335E+02  1.27919E+04 -9.90200E+03  7.65021E+03 -1.01320E+04 -8.38537E+02
 -9.32065E+03 -8.10356E+03 -1.43757E+03 -9.70915E+03  5.09352E+03 -8.25030E+03  6.12294E+03 -3.33097E+03
  4.10015E+03  8.03647E+02 -3.18937E+02  1.94829E+03 -6.49425E+02 -2.84548E+03  1.45643E+03 -5.59236E+03
  7.99846E+03 -3.03294E+03  1.19061E+04  6.04892E+02  1.25538E+04  7.86176E+03  7.53070E+03  1.60857E+04
 -3.47425E+03  1.94849E+04 -1.59314E+04  1.29020E+04 -2.00549E+04  2.25909E+03 -1.68318E+04 -6.64998E+03
 -7.68295E+03 -1.26318E+04 -5.42925E+01 -1.14389E+04  3.76242E+03 -6.24357E+03  3.76180E+03 -4.39354E+03
  2.47055E+03 -2.77120E+03  3.29646E+03 -3.54385E+03  4.75493E+03 -3.15519E+03  6.19608E+03 -9.11310E+02
  8.08412E+03  2.01547E+03  4.46270E+03  7.13856E+03 -1.73308E+03  7.91114E+03 -8.55331E+03  5.75075E+03
 -1.04952E+04 -1.29364E+03 -7.61735E+03 -7.56094E+03 -2.27870E+02 -1.19449E+04  7.01329E+03 -1.27791E+04
  1.22037E+04 -6.27236E+03  1.53333E+04  1.77530E+03  1.04410E+04  1.01892E+04  1.48129E+03  1.32019E+04
 -4.99348E+03  1.08693E+04 -7.54718E+03  3.91473E+03 -4.37161E+03 -1.47524E+03 -1.35781E+03 -1.23687E+03
 -3.94524E+02 -2.07754E+02 -1.08459E+03  2.98816E+03 -4.23318E+03  2.23998E+03 -7.76344E+03 -1.82826E+03
 -4.48229E+03 -7.19552E+03  1.01603E+03 -1.11408E+04  6.84696E+03 -1.05861E+04  1.08432E+04 -2.59223E+03
  1.10149E+04  5.45209E+03  4.81984E+03  9.07588E+03 -1.99905E+03  1.05941E+04 -7.61564E+03  6.09121E+03
 -9.78017E+03  9.05168E+02 -7.79063E+03 -6.79327E+03 -9.42279E+02 -9.17345E+03  4.46620E+03 -6.54868E+03
  6.91995E+03 -2.31624E+03  4.76056E+03  2.40194E+03  1.46364E+03  3.56512E+03  1.56528E+03  1.33726E+03
  2.28965E+03  1.41903E+02  3.02315E+03  1.83417E+03  2.55879E+03  3.82216E+03  2.92049E+03  5.94008E+03
 -2.04249E+03  8.21422E+03 -6.88203E+03  8.68286E+03 -1.09553E+04  2.08753E+03 -1.10841E+04 -4.11972E+03
 -5.09979E+03 -1.02703E+04  1.66771E+03 -1.23143E+04  5.99006E+03 -7.83709E+03  8.74886E+03 -2.21809E+03
  7.03290E+03  4.39350E+03  1.82191E+03  5.70830E+03 -2.56770E+03  3.24577E+03 -4.01030E+03 -5.70385E+02
 -1.93638E+03 -4.33220E+03  2.59121E+03 -4.80789E+03  4.63425E+03 -1.90877E+03  4.16804E+03  1.74824E+03
  2.83495E+03  1.39931E+03  1.41462E+03  1.01170E+03  1.24380E+01  1.71592E+03  2.23693E+03 -5.49195E+02
  1.20214E+03 -4.39284E+02  4.11477E+03  1.79111E+03  1.85479E+03  6.44071E+03 -1.12915E+03  7.47664E+03
 -5.05674E+03  4.12066E+03 -6.06514E+03  1.32014E+03 -5.55118E+03 -2.80956E+03 -2.45625E+03 -2.58872E+03
  9.16203E+02 -3.55595E+03  2.04925E+03 -1.83128E+03  2.11394E+03  2.64275E+03 -7.88212E+02  3.36618E+03
 -4.00018E+03  1.64070E+03 -4.31659E+03 -3.62206E+03 -2.23680E+03 -6.08217E+03  2.23596E+02 -5.85945E+03
  2.90387E+03 -2.58152E+03  3.95548E+03 -2.91717E+02  3.17893E+03  1.31235E+03  9.29268E+02  2.76533E+03
 -2.38776E+03  1.32019E+03 -2.89054E+03 -1.47350E+03  1.02380E+03 -4.30261E+03  5.38757E+03 -3.71075E+03
  5.58566E+03  1.36251E+02  6.73391E+03  3.55227E+03  1.64813E+03  6.53700E+03 -1.78771E+03  6.42659E+03
 -4.56835E+03  2.44661E+03 -5.39731E+03 -1.06375E+03 -3.46175E+03 -4.06497E+03  1.02069E+03 -3.29257E+03
  3.81877E+03 -2.04305E+03  3.13084E+03  2.08378E+03  1.33026E+03  3.80158E+03 -8.03094E+02  2.89467E+03
 -1.88000E+03  2.42717E+03 -1.42551E+03  9.49337E+02 -5.15118E+02  7.65916E+02 -1.47027E+03  2.29487E+03
 -2.06681E+03  2.60995E+03 -4.66069E+03  1.71209E+03 -5.93569E+03 -3.66001E+01 -6.65898E+03 -3.82920E+03
 -4.04018E+03 -8.30816E+03  2.47236E+03 -9.55295E+03  5.17133E+03 -7.74895E+03  8.76923E+03 -2.58917E+03
  7.71800E+03  9.25351E+02  5.52903E+03  5.62992E+03 -3.74100E+02  5.84699E+03 -2.25957E+03  4.64879E+03
 -3.81113E+03  9.14030E+02 -2.48034E+03 -6.83567E+02 -1.45941E+03 -6.92733E+01 -7.73395E+02 -1.03180E+02
 -1.77666E+03 -6.64512E+02 -1.64251E+03  4.98990E+01 -7.74200E+02 -1.15693E+03  1.75149E+02 -3.09131E+03
  3.42419E+03 -2.23545E+03  2.99052E+03  3.32230E+02  4.01280E+03  3.10560E+03  1.39709E+03  5.78794E+03
 -3.59197E+03  7.34183E+03 -6.11196E+03  4.75837E+03 -7.63801E+03 -2.30580E+02 -5.46643E+03 -4.45951E+03
 -2.35263E+03 -6.48324E+03  1.30685E+03 -5.24276E+03  4.23503E+03 -2.57675E+03  4.16846E+03  6.44346E+02
  2.36037E+03  2.66338E+03 -2.12895E+02  1.75786E+03 -8.49902E+02 -6.62597E+02 -1.42484E+02 -1.22694E+03
  1.07638E+03  2.91999E+02  2.52159E+03  5.22123E+02  1.06383E+03  2.01164E+03 -3.43354E+01  2.51530E+03
 -2.66187E+03  2.38180E+03 -4.21907E+03  5.15380E+02 -3.57903E+03 -2.73170E+03 -1.70754E+02 -5.35393E+03
  2.53550E+03 -4.03790E+03  4.32426E+03 -9.77642E+02  4.27282E+03  1.26976E+03  2.31329E+03  3.89372E+03
  1.37852E+03  3.41035E+03 -1.31609E+03  2.65897E+03 -2.74416E+03  1.78360E+03 -1.49450E+03  1.18299E+03
 -1.16328E+03 -3.97021E+02 -1.48104E+03  2.67843E+02 -1.79613E+03  7.04688E+02 -3.27403E+03 -3.26887E+02
 -3.00642E+03 -1.31532E+03 -6.96133E+02 -4.10926E+03  1.37854E+03 -4.41569E+03  2.52223E+03 -1.65386E+03
  3.68438E+03  3.72397E+02  2.04560E+03  2.07413E+03 -5.04958E+01  3.67346E+03 -2.75456E+03  2.15315E+03
