 $NMID ID='MM_0lb_SNR400_7hz_g60_22.RAW', FMTDAT='(8E13.5)'
 TRAMP=1., VOLUME=1. $END
  3.09831E+05  8.57469E+02  3.37700E+05  2.51469E+05  8.42697E+04  3.37873E+05 -1.32553E+05  2.52886E+05
 -1.90341E+05  8.43803E+04 -1.13386E+05 -3.29073E+04  1.43419E+02 -5.11890E+04  5.35607E+04 -8.59238E+02
  3.57049E+04  5.30130E+04 -1.67580E+04  7.65383E+04 -6.21844E+04  6.51765E+04 -8.66355E+04  3.21599E+04
 -8.28927E+04 -1.19710E+04 -5.87315E+04 -5.31715E+04 -1.54565E+04 -7.28036E+04  2.88480E+04 -4.67698E+04
  4.20442E+04  3.07864E+03  1.72546E+04  4.91223E+04 -3.45588E+04  4.79475E+04 -6.91679E+04  6.66336E+01
 -5.57475E+04 -5.83635E+04 -7.73372E+03 -8.07233E+04  3.53547E+04 -5.87893E+04  5.08658E+04 -1.92035E+04
  4.63096E+04  1.26024E+04  3.41169E+04  2.80472E+04  1.58059E+04  3.09698E+04 -6.23345E+03  2.87900E+04
 -2.29161E+04  1.15209E+04 -1.73614E+04 -7.32806E+03  8.14043E+03 -7.07255E+03  2.38688E+04  1.45854E+04
  6.60866E+03  3.95069E+04 -3.39802E+04  3.73631E+04 -6.74221E+04  2.28970E+03 -5.95673E+04 -4.43265E+04
 -1.20373E+04 -6.75364E+04  4.28749E+04 -4.88526E+04  6.31200E+04 -2.38849E+03  3.72212E+04  3.62720E+04
 -5.37153E+03  4.25629E+04 -3.33241E+04  2.01726E+04 -3.55648E+04 -2.80508E+03 -2.11652E+04 -1.25937E+04
 -9.60189E+03 -1.64192E+04  7.64052E+02 -2.03427E+04  9.06703E+03 -2.37930E+04  1.63529E+04 -1.23099E+04
  1.05081E+04  7.01304E+03 -1.21535E+04  1.27676E+04 -2.51778E+04 -7.89478E+03 -8.72922E+03 -4.06731E+04
  2.61614E+04 -4.84656E+04  5.39339E+04 -2.15471E+04  5.04875E+04  2.16799E+04  1.85569E+04  4.97322E+04
 -1.63442E+04  3.78993E+04 -2.92991E+04  2.61985E+03 -1.28572E+04 -3.04013E+04  2.13252E+04 -3.88299E+04
  4.69577E+04 -1.21938E+04  4.26862E+04  2.63488E+04  2.32656E+04  5.33541E+04 -8.34223E+03  5.86756E+04
 -3.80071E+04  4.06216E+04 -5.07092E+04  1.19697E+04 -5.13658E+04 -2.05275E+04 -2.76161E+04 -4.51323E+04
  8.88946E+03 -4.38113E+04  3.59690E+04 -1.72902E+04  3.42102E+04  1.00307E+04  6.82154E+03  2.16312E+04
 -1.53129E+04  1.07068E+04 -1.13440E+04 -6.38357E+03  5.93329E+03 -1.17544E+04  1.96499E+04  5.56092E+03
  1.48798E+04  2.30257E+04 -4.58730E+03  2.84024E+04 -2.37346E+04  1.69261E+04 -3.33066E+04 -1.32026E+03
 -2.85831E+04 -1.89376E+04 -1.41242E+04 -2.79854E+04  5.08943E+03 -2.97456E+04  2.24384E+04 -2.58874E+04
  3.49907E+04 -1.45687E+04  4.24577E+04  6.42135E+03  2.92667E+04  2.79496E+04  4.43336E+03  4.37864E+04
 -2.21425E+04  3.57872E+04 -3.27111E+04  1.25747E+04 -2.32842E+04 -1.02924E+04 -5.46755E+03 -1.21337E+04
  7.28491E+02 -3.72865E+02 -9.86084E+03  1.07647E+04 -2.25316E+04  4.94301E+03 -2.29196E+04 -1.14795E+04
 -1.32312E+04 -2.62872E+04  6.91809E+03 -3.04873E+04  2.06330E+04 -2.16186E+04  2.50836E+04 -1.85623E+03
  1.69992E+04  1.77594E+04 -1.02315E+03  2.63789E+04 -1.94062E+04  1.49509E+04 -2.75870E+04 -5.13229E+03
 -1.91773E+04 -2.39730E+04 -1.83528E+03 -3.12930E+04  1.37440E+04 -2.65202E+04  2.46356E+04 -1.37146E+04
  2.48914E+04 -1.68371E+03  1.84294E+04  5.43536E+03  1.00695E+04  1.16286E+03  1.28985E+04 -2.58355E+03
  2.60999E+04  3.45626E+03  2.98611E+04  1.93901E+04  2.10576E+04  4.26262E+04 -3.41620E+03  5.15990E+04
 -2.85412E+04  4.30169E+04 -4.75687E+04  2.33894E+04 -5.14093E+04 -3.44259E+03 -4.10697E+04 -3.05423E+04
 -1.60941E+04 -4.25493E+04  1.58369E+04 -3.81201E+04  3.17168E+04 -1.63290E+04  2.73600E+04  1.01255E+04
  8.26169E+03  2.06429E+04 -1.25873E+04  1.81696E+04 -2.26389E+04  3.86635E+03 -1.70142E+04 -1.54797E+04
 -1.32346E+03 -2.18167E+04  1.14876E+04 -1.62727E+04  1.52543E+04 -1.37688E+03  3.50339E+03  1.08287E+04
 -9.35914E+03  4.16398E+03 -1.13700E+04 -8.02853E+03 -3.36924E+03 -2.11877E+04  1.26916E+04 -2.36244E+04
  2.67351E+04 -1.38208E+04  3.17205E+04  3.74277E+03  2.78910E+04  2.18015E+04  1.25260E+04  3.42564E+04
 -7.05799E+03  3.76549E+04 -2.47344E+04  2.27826E+04 -2.75762E+04  4.16797E+03 -1.81016E+04 -7.03625E+03
 -6.92389E+03 -8.73174E+03 -1.31917E+03 -4.27020E+01 -3.88806E+03  3.66732E+03 -8.47287E+03  5.84229E+03
 -1.60562E+04 -1.10909E+03 -1.72504E+04 -1.37809E+04 -7.23376E+03 -2.22077E+04  7.18083E+03 -1.94104E+04
  1.52255E+04 -7.15933E+03  1.11910E+04  4.63447E+03 -4.39507E+02  7.15243E+03 -9.18083E+03  7.83774E+01
 -8.77301E+03 -1.13995E+04 -1.25454E+03 -1.95038E+04  1.25285E+04 -2.01455E+04  2.35103E+04 -1.03284E+04
  2.72945E+04  4.28355E+03  2.11563E+04  1.79113E+04  3.67865E+03  2.37225E+04 -1.08953E+04  1.99255E+04
 -1.51167E+04  5.78046E+03 -8.46347E+03 -4.36568E+03  3.00531E+03 -5.85206E+03  1.00393E+04 -1.17450E+03
  7.62359E+03  7.85256E+03  1.77920E+03  1.59281E+04 -1.03950E+04  1.55191E+04 -1.84947E+04  3.10435E+03
 -1.31009E+04 -1.13659E+04  1.09313E+02 -1.65899E+04  1.12822E+04 -7.73236E+03  1.08936E+04  4.36913E+03
  3.13499E+03  1.31564E+04 -1.00307E+04  1.42426E+04 -1.73326E+04  6.36431E+03 -1.78339E+04 -7.69786E+03
 -9.67933E+03 -1.98203E+04  5.63199E+03 -2.16093E+04  2.04079E+04 -1.21785E+04  2.10790E+04  2.81042E+03
  1.22038E+04  1.71059E+04 -2.81321E+03  1.93430E+04 -1.42659E+04  1.13016E+04 -1.56020E+04 -2.49947E+03
 -1.25523E+04 -1.30351E+04 -1.21743E+03 -1.57716E+04  8.12943E+03 -1.13157E+04  8.57305E+03 -3.97419E+03
  5.61578E+03  3.44620E+03 -2.02340E+03  2.29001E+03 -1.07810E+03 -5.23665E+03  4.27062E+03 -1.02386E+04
  1.49898E+04 -6.37774E+03  2.16708E+04  2.64564E+03  2.02552E+04  1.38135E+04  1.20115E+04  2.76569E+04
 -6.72066E+03  3.09218E+04 -2.55048E+04  2.25309E+04 -3.25272E+04  4.40119E+03 -2.66844E+04 -1.17152E+04
 -1.33057E+04 -2.17701E+04 -2.10896E+02 -1.77352E+04  6.30061E+03 -1.09065E+04  6.57896E+03 -6.50495E+03
  4.57896E+03 -3.07917E+03  6.00265E+03 -4.65881E+03  6.23712E+03 -4.91442E+03  9.22115E+03 -1.00631E+03
  1.30220E+04  3.21619E+03  8.67844E+03  1.16333E+04 -2.53862E+03  1.52135E+04 -1.47116E+04  1.07201E+04
 -1.88063E+04 -1.81697E+03 -1.30740E+04 -1.39228E+04 -1.53918E+03 -2.04317E+04  1.10804E+04 -2.01894E+04
  2.17395E+04 -1.04281E+04  2.57730E+04  4.21765E+03  1.76010E+04  1.88472E+04  3.38743E+03  2.35085E+04
 -1.00387E+04  1.91582E+04 -1.37513E+04  6.62624E+03 -1.04661E+04 -1.67547E+03 -3.59525E+03 -2.49357E+03
 -1.57394E+03  5.14108E+02 -1.75176E+03  3.72679E+03 -6.89912E+03  3.42215E+03 -1.31169E+04 -2.67691E+03
 -9.78132E+03 -1.29571E+04 -6.78308E+02 -1.96504E+04  1.29729E+04 -1.78130E+04  2.05702E+04 -5.82125E+03
  1.93070E+04  8.86417E+03  1.01735E+04  1.73790E+04 -4.75579E+03  1.94184E+04 -1.42398E+04  1.16662E+04
 -1.87800E+04  9.83258E+02 -1.36728E+04 -1.17254E+04 -1.64252E+03 -1.74792E+04  7.72483E+03 -1.28446E+04
  1.30381E+04 -4.58007E+03  9.03517E+03  3.01845E+03  3.13074E+03  5.14117E+03  1.81583E+03  2.41816E+03
  2.64711E+03  2.86635E+03  4.55712E+03  2.08459E+03  5.70777E+03  5.70521E+03  5.20146E+03  1.05171E+04
 -3.39940E+03  1.55829E+04 -1.47826E+04  1.50804E+04 -2.13264E+04  5.00788E+03 -2.21943E+04 -9.99680E+03
 -1.00822E+04 -2.04616E+04  3.81117E+03 -2.27793E+04  1.33116E+04 -1.50836E+04  1.71206E+04 -2.94462E+03
  1.42620E+04  8.00332E+03  2.75069E+03  1.21256E+04 -5.26833E+03  7.90484E+03 -9.89923E+03 -2.15018E+03
 -3.97170E+03 -9.17447E+03  3.92528E+03 -9.62270E+03  8.60896E+03 -5.07023E+03  8.49585E+03  2.96364E+03
  5.48014E+03  4.62600E+03  7.97042E+02  3.73765E+03 -5.21226E+02  2.00215E+03  1.54499E+03 -1.11526E+03
  3.60879E+03 -1.03278E+03  8.64193E+03  3.34098E+03  4.18877E+03  1.10190E+04 -2.12003E+03  1.42946E+04
 -1.02815E+04  1.07070E+04 -1.40704E+04  1.88689E+03 -1.34519E+04 -4.83911E+03 -5.20273E+03 -8.39045E+03
  3.08170E+02 -7.94672E+03  6.18710E+03 -3.34260E+03  5.01554E+03  3.67648E+03 -2.02954E+03  6.95434E+03
 -1.01120E+04  4.67457E+03 -1.07883E+04 -4.26169E+03 -5.57459E+03 -1.22263E+04  2.42260E+03 -1.24259E+04
  8.15649E+03 -8.20238E+03  9.00673E+03 -1.19825E+03  7.79984E+03  4.02241E+03  1.50936E+03  6.08761E+03
 -5.15055E+03  2.84682E+03 -5.74346E+03 -4.50483E+03  1.05232E+03 -9.36087E+03  1.06646E+04 -7.29439E+03
  1.42414E+04  1.56516E+03  1.27211E+04  9.11995E+03  4.85591E+03  1.48663E+04 -5.67256E+03  1.36603E+04
 -1.22834E+04  7.15932E+03 -1.21798E+04 -2.02580E+03 -6.42733E+03 -9.54554E+03  2.49577E+03 -8.31147E+03
  9.12250E+03 -4.62201E+03  8.16620E+03  4.59589E+03  2.51179E+03  8.44076E+03 -2.65273E+02  7.48884E+03
 -3.57151E+03  3.36883E+03 -3.65591E+03  1.83789E+03 -1.84885E+03  1.92740E+03 -1.86939E+03  2.59612E+03
 -4.08532E+03  5.61315E+03 -1.04271E+04  4.72058E+03 -1.47244E+04 -2.02041E+02 -1.72667E+04 -1.00019E+04
 -8.11647E+03 -2.07185E+04  4.56932E+03 -2.30464E+04  1.54133E+04 -1.72565E+04  2.22332E+04 -6.61525E+03
  2.02083E+04  4.32682E+03  1.34792E+04  1.29944E+04  1.96614E+03  1.53475E+04 -6.17639E+03  1.17877E+04
 -8.83797E+03  3.57252E+03 -5.35125E+03 -2.41028E+03 -2.22974E+03 -1.61005E+03 -7.19981E+02  2.44445E+01
 -1.74725E+03  1.10069E+03 -3.64217E+03 -1.13880E+03 -1.39669E+03 -4.27598E+03  1.48983E+02 -5.99417E+03
  7.31136E+03 -4.31934E+03  1.07952E+04  8.68444E+01  1.08127E+04  7.98830E+03  3.40060E+03  1.62298E+04
 -7.39513E+03  1.82142E+04 -1.74916E+04  1.03812E+04 -1.92206E+04 -2.09515E+03 -1.63226E+04 -1.10682E+04
 -5.53551E+03 -1.61801E+04  3.19594E+03 -1.48850E+04  1.08152E+04 -8.31816E+03  1.04647E+04  6.58446E+02
  6.07104E+03  6.34063E+03 -2.02516E+02  4.70546E+03 -2.05611E+03 -7.82626E+02 -1.12685E+03 -3.82712E+03
  4.42732E+03 -2.36332E+03  7.24955E+03  3.00978E+03  4.63281E+03  5.30006E+03 -4.76899E+02  9.06094E+03
 -6.87865E+03  8.23629E+03 -1.16416E+04  5.83022E+02 -1.06392E+04 -8.04488E+03 -2.08233E+03 -1.43860E+04
  8.36522E+03 -1.12929E+04  1.25486E+04 -4.55932E+03  1.29220E+04  3.55763E+03  6.77980E+03  9.44869E+03
 -5.17875E+02  1.15217E+04 -3.95121E+03  8.22161E+03 -7.08990E+03  5.78767E+03 -5.05860E+03  1.42049E+03
 -2.52000E+03 -8.31730E+01 -3.62834E+03  1.08444E+03 -5.41178E+03  2.31180E+03 -7.67532E+03 -1.76427E+03
 -7.82910E+03 -6.10957E+03 -2.24129E+03 -1.10615E+04  4.48806E+03 -1.22528E+04  9.85942E+03 -5.61317E+03
  1.11095E+04  1.42589E+03  6.76188E+03  7.60433E+03 -9.88738E+02  1.16656E+04 -8.81467E+03  7.44755E+03
