 $NMID ID='MM_0lb_SNR400_15hz_g40_31.RAW', FMTDAT='(8E13.5)'
 TRAMP=1., VOLUME=1. $END
  3.09460E+05  3.43290E+02  3.37477E+05  2.50465E+05  8.46437E+04  3.37562E+05 -1.32485E+05  2.50702E+05
 -1.89622E+05  8.27362E+04 -1.11657E+05 -3.27407E+04  1.71193E+03 -5.06366E+04  5.37429E+04 -1.97032E+02
  3.48714E+04  5.28391E+04 -1.62540E+04  7.52655E+04 -6.00090E+04  6.33788E+04 -8.35420E+04  3.17648E+04
 -8.05246E+04 -1.19732E+04 -5.73660E+04 -5.07703E+04 -1.46976E+04 -6.93478E+04  2.69369E+04 -4.55117E+04
  3.93108E+04  4.20361E+03  1.59933E+04  4.77560E+04 -3.41057E+04  4.73345E+04 -6.57937E+04 -5.55627E+02
 -5.32275E+04 -5.64510E+04 -5.83256E+03 -7.62128E+04  3.30978E+04 -5.43678E+04  4.75689E+04 -1.64850E+04
  4.28604E+04  1.15732E+04  3.15202E+04  2.52066E+04  1.57507E+04  2.90519E+04 -5.55931E+03  2.69781E+04
 -2.15923E+04  1.26273E+04 -1.85123E+04 -4.32615E+03  4.70482E+03 -7.22166E+03  2.17885E+04  1.13622E+04
  7.50603E+03  3.49173E+04 -3.11874E+04  3.50148E+04 -6.18270E+04  2.78034E+03 -5.65107E+04 -4.20547E+04
 -1.23662E+04 -6.17326E+04  3.88710E+04 -4.43696E+04  5.62398E+04 -2.04972E+03  3.30691E+04  3.18014E+04
 -6.45628E+03  3.48871E+04 -2.93797E+04  1.48001E+04 -2.91202E+04 -5.01647E+03 -1.52464E+04 -1.04805E+04
 -8.16798E+03 -1.22021E+04 -1.05025E+03 -1.73914E+04  6.98164E+03 -2.31799E+04  1.51828E+04 -1.39656E+04
  1.20914E+04  4.30507E+03 -7.89570E+03  1.27720E+04 -2.00515E+04 -3.77273E+03 -8.00389E+03 -3.24775E+04
  2.19106E+04 -4.27958E+04  4.65056E+04 -1.90346E+04  4.25893E+04  1.92230E+04  1.43683E+04  4.32045E+04
 -1.58474E+04  3.28947E+04 -2.39407E+04  1.73377E+03 -9.51990E+03 -2.70235E+04  2.11181E+04 -3.24616E+04
  3.93872E+04 -8.36691E+03  3.39460E+04  2.27970E+04  1.70927E+04  4.43728E+04 -8.09965E+03  4.79603E+04
 -3.02612E+04  3.19590E+04 -4.00493E+04  8.88060E+03 -4.05128E+04 -1.53457E+04 -2.21380E+04 -3.62756E+04
  6.72891E+03 -3.65419E+04  3.09657E+04 -1.34317E+04  2.82096E+04  1.08523E+04  3.39506E+03  1.84990E+04
 -1.26877E+04  7.78404E+03 -9.85644E+03 -7.61565E+03  5.51916E+03 -1.09603E+04  1.71788E+04  6.00393E+03
  1.26167E+04  2.18412E+04 -5.81898E+03  2.47543E+04 -2.20279E+04  9.95953E+03 -2.65046E+04 -5.68752E+03
 -1.91142E+04 -1.60930E+04 -7.54696E+03 -1.91970E+04  4.05788E+03 -1.76797E+04  1.40208E+04 -1.64941E+04
  2.43888E+04 -1.28341E+04  3.01688E+04  2.76489E+03  2.26120E+04  1.85392E+04  3.75776E+03  3.51999E+04
 -1.65826E+04  2.89667E+04 -2.71526E+04  9.67768E+03 -2.07924E+04 -1.01768E+04 -4.30867E+03 -1.44844E+04
  2.84149E+03 -3.23655E+03 -4.65708E+03  5.94595E+03 -1.47129E+04  4.76200E+03 -1.49279E+04 -5.74055E+03
 -1.03319E+04 -1.74890E+04  4.38981E+03 -2.18637E+04  1.46390E+04 -1.53387E+04  1.65262E+04 -1.31977E+03
  1.06193E+04  1.26831E+04 -1.13291E+03  1.76879E+04 -1.19755E+04  9.60849E+03 -1.73670E+04 -3.70100E+03
 -1.32437E+04 -1.65119E+04 -2.52367E+03 -2.15882E+04  9.96976E+03 -1.72988E+04  1.73640E+04 -7.92351E+03
  1.63767E+04  1.77038E+02  1.25419E+04  4.62248E+03  5.69923E+03  5.82677E+02  8.55377E+03 -1.46559E+03
  1.57316E+04  2.71320E+03  1.78842E+04  1.42149E+04  1.08632E+04  2.78080E+04 -2.71279E+03  3.09871E+04
 -1.80868E+04  2.46433E+04 -2.84730E+04  1.20244E+04 -3.01660E+04 -1.99792E+03 -2.49297E+04 -1.72468E+04
 -1.15944E+04 -2.46805E+04  8.94829E+03 -2.26056E+04  1.90420E+04 -1.16129E+04  1.81663E+04  4.43266E+03
  6.38571E+03  1.28722E+04 -7.92974E+03  1.18898E+04 -1.51588E+04  2.14180E+03 -1.13609E+04 -9.33523E+03
 -3.64995E+02 -1.43668E+04  6.78758E+03 -1.05736E+04  9.00700E+03 -1.47994E+03  1.86275E+03  6.04524E+03
 -6.59224E+03  1.02584E+03 -5.52946E+03 -5.43150E+03  2.64226E+02 -1.24103E+04  8.90087E+03 -1.23965E+04
  1.44873E+04 -6.13703E+03  1.49839E+04  3.03605E+03  1.35702E+04  1.15503E+04  6.69639E+03  1.79618E+04
 -2.55481E+03  1.90964E+04 -1.17539E+04  1.20648E+04 -1.37467E+04  3.69746E+03 -1.03175E+04 -3.23500E+03
 -5.37880E+03 -4.72634E+03 -1.28100E+03  1.06674E+03 -2.06417E+03  2.34049E+03 -4.62291E+03  3.47901E+03
 -9.20157E+03 -3.60295E+02 -1.00271E+04 -8.20305E+03 -3.92069E+03 -1.33984E+04  4.24636E+03 -1.02356E+04
  8.10275E+03 -4.39869E+03  6.32626E+03  2.19369E+03  4.89690E+02  3.39861E+03 -4.51358E+03 -7.38298E+01
 -4.70912E+03 -6.62022E+03 -1.43128E+03 -8.54802E+03  5.17818E+03 -9.90102E+03  1.20932E+04 -4.73442E+03
  1.44491E+04  1.24427E+03  1.04107E+04  8.32380E+03  1.72006E+03  1.13957E+04 -5.95099E+03  1.01398E+04
 -7.97964E+03  3.24870E+03 -4.11359E+03 -1.87989E+03  1.87958E+03 -2.62736E+03  5.64051E+03 -1.01171E+03
  5.15417E+03  4.46700E+03  5.88680E+02  8.05400E+03 -5.44863E+03  7.39557E+03 -9.57692E+03  2.08478E+03
 -6.60373E+03 -4.57045E+03  1.22137E+02 -8.75709E+03  4.65158E+03 -3.71583E+03  4.45310E+03  1.83888E+03
  1.94635E+02  4.93804E+03 -5.13999E+03  5.54252E+03 -7.51305E+03  3.04180E+03 -5.86135E+03 -2.39298E+03
 -4.21670E+03 -8.04917E+03  1.80294E+03 -9.65919E+03  8.31301E+03 -6.14029E+03  8.87624E+03  1.36753E+03
  6.37533E+03  7.22577E+03 -6.10880E+02  9.58867E+03 -7.11559E+03  5.10531E+03 -7.09979E+03 -4.35645E+02
 -6.67906E+03 -6.28690E+03 -1.31438E+03 -6.29002E+03  3.88683E+03 -5.88206E+03  4.27628E+03 -2.98861E+03
  3.22618E+03  4.52457E+01 -1.65382E+02  1.10810E+03  2.99193E+01 -1.06734E+03  5.19925E+02 -3.08315E+03
  5.79529E+03 -1.89310E+03  8.08730E+03  1.03084E+03  8.42858E+03  4.28512E+03  6.63971E+03  9.88897E+03
 -1.93892E+03  1.23317E+04 -9.98493E+03  8.81974E+03 -1.34315E+04  2.14651E+03 -1.07121E+04 -4.08517E+03
 -5.72024E+03 -8.54074E+03 -7.04908E+02 -7.21813E+03  2.38535E+03 -3.33195E+03  2.32155E+03 -2.69486E+03
  2.09184E+03 -2.20354E+03  2.54519E+03 -2.71956E+03  3.68946E+03 -1.94312E+03  4.80468E+03 -2.46722E+02
  5.60999E+03  2.06475E+03  2.18836E+03  5.03000E+03 -1.38237E+03  4.24643E+03 -6.38993E+03  3.97139E+03
 -7.42389E+03 -5.67748E+02 -2.87357E+03 -4.39102E+03 -1.10399E+02 -7.27777E+03  4.40513E+03 -7.80363E+03
  8.22811E+03 -4.42569E+03  9.44228E+03  8.93000E+02  6.76485E+03  6.56714E+03  1.43602E+03  9.18371E+03
 -3.18344E+03  7.60528E+03 -4.47809E+03  2.48675E+03 -3.14735E+03 -1.22236E+03 -1.06940E+03 -1.35979E+03
 -9.87097E+02  4.19527E+01 -1.38507E+03  2.37834E+03 -2.82347E+03  1.09206E+03 -5.19735E+03 -4.20545E+02
 -3.00159E+03 -4.75509E+03  5.63129E+02 -7.29799E+03  3.92694E+03 -5.84070E+03  6.12295E+03 -2.14596E+03
  6.45912E+03  3.79825E+03  3.27793E+03  6.25820E+03 -1.53200E+03  6.29994E+03 -4.85979E+03  3.98362E+03
 -6.42200E+03  6.40777E+02 -4.78548E+03 -3.80519E+03 -6.85862E+02 -5.08977E+03  2.56269E+03 -3.63541E+03
  4.24896E+03 -1.70171E+03  2.58060E+03  1.02107E+03  7.49577E+02  2.53960E+03  9.36779E+02  5.56924E+02
  1.63440E+03  7.36663E+02  1.77092E+03  1.25934E+03  1.65961E+03  2.73883E+03  1.47935E+03  2.94360E+03
 -1.59963E+03  5.27973E+03 -3.57254E+03  5.47349E+03 -5.79862E+03  2.27542E+03 -6.51048E+03 -1.20164E+03
 -2.52104E+03 -6.00871E+03  1.01187E+03 -7.02513E+03  3.20040E+03 -4.01175E+03  5.41726E+03 -1.07834E+03
  3.52628E+03  2.57931E+03  1.48703E+03  3.47098E+03 -1.22386E+03  2.40978E+03 -2.33585E+03 -5.84928E+02
 -9.02389E+02 -2.28426E+03  1.50307E+03 -2.94750E+03  2.52957E+03 -1.58549E+03  2.69144E+03  6.30741E+02
  1.87176E+03  1.06737E+03  2.41270E+02 -8.39919E+01 -8.08451E+02  1.06746E+03  1.80613E+03  1.81562E+02
  6.91599E+02 -5.50310E+02  2.55121E+03  4.68507E+02  1.01767E+03  2.89407E+03 -5.68869E+02  3.80936E+03
 -3.07360E+03  2.37243E+03 -3.28059E+03  5.63944E+02 -3.23901E+03 -1.12994E+03 -6.52514E+02 -2.01120E+03
  9.08593E+01 -1.91950E+03  1.11864E+03 -1.72441E+03  1.34265E+03  1.82593E+03 -1.21424E+03  1.77148E+03
 -2.43614E+03  1.45231E+03 -2.34248E+03 -1.74147E+03 -7.18747E+02 -3.18032E+03  3.78929E+02 -2.44358E+03
  6.98088E+02 -1.66862E+03  2.80285E+03 -2.85075E+02  2.07955E+03  5.52285E+02  1.18013E+03  1.51858E+03
 -4.99168E+02  1.75171E+02 -2.02939E+03 -7.55239E+02  1.66110E+02 -1.99100E+03  3.15162E+03 -2.07832E+03
  2.95870E+03  1.00385E+02  4.07122E+03  1.36764E+03  1.29683E+03  3.53728E+03 -1.01848E+03  3.38191E+03
 -2.76119E+03  1.15060E+02 -3.45379E+03 -1.67665E+02 -1.53192E+03 -2.05774E+03  1.20392E+02 -1.12669E+03
  2.50574E+03 -1.41276E+03  1.40234E+03  7.54268E+02  6.02316E+02  1.81726E+03 -2.56009E+02  1.48495E+03
 -1.38561E+02  1.13366E+03 -7.84609E+02  6.27738E+02 -9.33779E+02  8.31393E+02 -4.39983E+02  7.41370E+02
 -1.04168E+03  1.32747E+03 -2.90153E+03  8.22577E+02 -2.81909E+03  4.59990E+02 -4.21186E+03 -2.10871E+03
 -2.12841E+03 -4.61217E+03  1.16257E+03 -4.53386E+03  2.74980E+03 -4.39871E+03  4.90950E+03 -1.85296E+03
  4.64326E+03  5.64048E+02  2.11963E+03  2.94697E+03  5.15194E+01  3.04397E+03 -1.44209E+03  1.82079E+03
 -2.16409E+03  1.55245E+03 -9.39509E+02 -2.16463E+02 -9.58453E+02 -3.99468E+02 -5.27829E+02 -3.08428E+02
 -1.08292E+03  3.99717E+02 -5.99903E+02 -2.10066E+02 -4.23454E+02 -1.37747E+03  6.66425E+01 -1.60317E+03
  1.54306E+03 -8.86027E+02  1.47819E+03 -1.55273E+02  2.42722E+03  1.18078E+03 -1.04804E+02  3.44259E+03
 -1.96784E+03  3.78787E+03 -3.02614E+03  2.53015E+03 -3.66668E+03 -1.15100E+03 -3.43765E+03 -2.34827E+03
 -1.17634E+03 -3.22376E+03  9.15881E+02 -3.11491E+03  1.34846E+03 -1.30959E+03  1.98046E+03  4.97082E+02
  1.82366E+03  8.31415E+02 -4.61163E+02  7.80177E+02 -1.13375E+02 -2.06550E+02 -1.21606E+02 -1.10075E+03
  7.75436E+02 -5.00602E+01  1.09679E+03  2.81806E+02  8.85702E+02  1.37380E+03  3.32920E+02  9.55285E+02
 -2.07547E+03  2.06799E+03 -1.37405E+03 -5.62796E+02 -2.39595E+03 -1.55142E+03 -3.49212E+02 -2.54410E+03
  2.32923E+03 -2.23210E+03  2.02651E+03  2.38417E+01  2.80432E+03 -8.24335E+02  9.73189E+02  1.62621E+03
  9.87628E+02  1.74170E+03 -4.09681E+02  1.40990E+03 -1.37253E+03  2.83365E+02 -5.39666E+02  3.96022E+02
 -1.23930E+02  2.53575E+01 -4.38894E+02  6.32605E+02 -1.31813E+03  1.96726E+02 -1.33524E+03 -1.55076E+02
 -1.44540E+03 -6.90553E+02 -9.19686E+02 -1.99043E+03  8.19057E+02 -2.68474E+03  1.14738E+03 -7.08815E+02
  2.13284E+03  5.90368E+02  1.20113E+02  1.10036E+03 -6.34111E+02  1.56140E+03 -8.16512E+02  1.08196E+03
