 $NMID ID='MM_0lb_SNR400_11hz_g60_62.RAW', FMTDAT='(8E13.5)'
 TRAMP=1., VOLUME=1. $END
  3.09693E+05  9.98376E+01  3.38022E+05  2.50456E+05  8.50421E+04  3.38728E+05 -1.32570E+05  2.51323E+05
 -1.90885E+05  8.38065E+04 -1.13253E+05 -3.24524E+04  5.68296E+02 -5.09680E+04  5.37331E+04 -7.41077E+02
  3.51911E+04  5.25617E+04 -1.69504E+04  7.60555E+04 -6.02741E+04  6.46294E+04 -8.56685E+04  3.27440E+04
 -8.20333E+04 -1.13216E+04 -5.82480E+04 -5.18924E+04 -1.52560E+04 -7.00299E+04  2.80227E+04 -4.66400E+04
  4.10389E+04  3.30945E+03  1.69423E+04  4.89980E+04 -3.49096E+04  4.83359E+04 -6.81165E+04  5.37588E+02
 -5.37454E+04 -5.82465E+04 -7.45326E+03 -7.84780E+04  3.49377E+04 -5.74000E+04  4.95313E+04 -1.87027E+04
  4.51282E+04  1.13281E+04  3.31187E+04  2.65444E+04  1.65765E+04  3.10380E+04 -5.28185E+03  2.73852E+04
 -2.25697E+04  1.10024E+04 -1.79534E+04 -5.18232E+03  7.25534E+03 -7.88705E+03  2.34395E+04  1.34767E+04
  7.05761E+03  3.73646E+04 -3.39163E+04  3.72065E+04 -6.46593E+04  2.58742E+03 -5.84464E+04 -4.44690E+04
 -1.25518E+04 -6.58825E+04  4.16061E+04 -4.63519E+04  6.05853E+04 -2.44380E+03  3.72550E+04  3.40090E+04
 -5.37964E+03  3.93330E+04 -3.20748E+04  1.81701E+04 -3.36468E+04 -3.69457E+03 -1.93773E+04 -1.16464E+04
 -8.97507E+03 -1.49983E+04 -1.55024E+02 -1.96685E+04  8.75904E+03 -2.33088E+04  1.55437E+04 -1.30279E+04
  1.13623E+04  6.29691E+03 -9.73563E+03  1.36842E+04 -2.28416E+04 -6.31455E+03 -8.17651E+03 -3.65273E+04
  2.51725E+04 -4.64861E+04  5.18043E+04 -2.06183E+04  4.89894E+04  2.04041E+04  1.65927E+04  4.69223E+04
 -1.68786E+04  3.53281E+04 -2.70255E+04  2.63264E+03 -1.19436E+04 -2.98028E+04  2.19115E+04 -3.57125E+04
  4.44965E+04 -1.04233E+04  4.06017E+04  2.48737E+04  2.02691E+04  5.03777E+04 -8.27932E+03  5.49426E+04
 -3.51275E+04  3.77885E+04 -4.65086E+04  1.12032E+04 -4.69989E+04 -1.83264E+04 -2.57441E+04 -4.13978E+04
  7.29986E+03 -4.13654E+04  3.35709E+04 -1.70701E+04  3.19068E+04  1.10011E+04  4.96909E+03  2.01264E+04
 -1.40196E+04  9.55300E+03 -1.10893E+04 -7.36305E+03  5.34681E+03 -1.11375E+04  1.87134E+04  5.60664E+03
  1.51180E+04  2.40111E+04 -4.35766E+03  2.62420E+04 -2.29077E+04  1.39234E+04 -3.17529E+04 -3.16660E+03
 -2.50300E+04 -1.83955E+04 -1.15254E+04 -2.35255E+04  4.67414E+03 -2.44970E+04  1.89705E+04 -2.13538E+04
  3.13825E+04 -1.33478E+04  3.82567E+04  4.25745E+03  2.60455E+04  2.36305E+04  5.06269E+03  4.05981E+04
 -1.90624E+04  3.35550E+04 -3.01489E+04  1.15502E+04 -2.23119E+04 -1.03615E+04 -5.56202E+03 -1.26904E+04
  8.71572E+02 -1.00968E+03 -7.23445E+03  7.55165E+03 -1.89635E+04  6.28892E+03 -1.98811E+04 -9.67004E+03
 -1.21805E+04 -2.24840E+04  5.53288E+03 -2.68385E+04  1.83740E+04 -1.94900E+04  2.25890E+04 -2.24191E+03
  1.35353E+04  1.54812E+04 -1.12367E+03  2.21817E+04 -1.56805E+04  1.33686E+04 -2.26834E+04 -5.11489E+03
 -1.69532E+04 -2.02637E+04 -2.59546E+03 -2.70099E+04  1.25766E+04 -2.17928E+04  2.29074E+04 -1.16931E+04
  2.19137E+04 -7.46900E+01  1.56787E+04  5.30898E+03  8.20050E+03  1.51261E+03  1.19868E+04 -2.34480E+03
  2.16908E+04  3.51208E+03  2.47735E+04  1.83938E+04  1.75638E+04  3.61015E+04 -2.63875E+03  4.28060E+04
 -2.40322E+04  3.50736E+04 -3.97821E+04  1.83552E+04 -4.27535E+04 -3.03525E+03 -3.41535E+04 -2.51148E+04
 -1.42376E+04 -3.53368E+04  1.25775E+04 -3.16149E+04  2.71444E+04 -1.44597E+04  2.27383E+04  7.49549E+03
  7.90741E+03  1.80520E+04 -1.15077E+04  1.53850E+04 -1.91125E+04  3.00068E+03 -1.46769E+04 -1.20651E+04
 -2.66393E+02 -1.81702E+04  1.04852E+04 -1.36894E+04  1.31529E+04 -1.79473E+03  2.64563E+03  8.44765E+03
 -8.16331E+03  4.35701E+03 -9.00440E+03 -6.65005E+03 -1.32004E+03 -1.72790E+04  1.12257E+04 -1.80878E+04
  2.13760E+04 -1.11052E+04  2.50007E+04  2.72937E+03  2.13192E+04  1.71352E+04  9.09350E+03  2.64905E+04
 -5.90983E+03  2.82297E+04 -1.93155E+04  1.81185E+04 -2.16470E+04  3.62366E+03 -1.42940E+04 -5.26711E+03
 -6.16205E+03 -7.04088E+03 -4.21143E+02  8.06706E+01 -2.27420E+03  2.95160E+03 -7.16694E+03  5.40229E+03
 -1.31838E+04 -7.00832E+02 -1.43863E+04 -1.12973E+04 -5.81079E+03 -1.79764E+04  5.98609E+03 -1.53008E+04
  1.15768E+04 -5.93802E+03  8.45788E+03  4.90278E+03 -5.70257E+02  6.17846E+03 -7.33709E+03  2.23516E+02
 -6.82518E+03 -9.28356E+03 -1.25105E+03 -1.42030E+04  8.51448E+03 -1.54328E+04  1.87307E+04 -8.04611E+03
  2.19266E+04  2.05543E+03  1.59490E+04  1.35709E+04  2.90210E+03  1.78299E+04 -9.02953E+03  1.48129E+04
 -1.22250E+04  4.18650E+03 -5.93563E+03 -3.28114E+03  2.49431E+03 -4.34039E+03  7.06996E+03 -6.46415E+02
  6.77122E+03  6.41536E+03  1.41566E+03  1.18914E+04 -8.07154E+03  1.12604E+04 -1.49272E+04  2.93081E+03
 -1.04115E+04 -7.24671E+03  2.41432E+02 -1.17648E+04  8.16036E+03 -6.49500E+03  8.09747E+03  2.90836E+03
  2.29392E+03  8.53286E+03 -7.69221E+03  9.63956E+03 -1.22043E+04  3.96575E+03 -1.21044E+04 -4.58176E+03
 -7.59899E+03 -1.45888E+04  3.58702E+03 -1.66430E+04  1.40473E+04 -1.02410E+04  1.46818E+04  2.88743E+03
  9.38351E+03  1.21540E+04 -8.89688E+02  1.48018E+04 -1.10229E+04  8.02108E+03 -1.14724E+04 -1.14986E+03
 -9.56320E+03 -9.46568E+03 -1.46513E+03 -1.14879E+04  5.27526E+03 -9.05263E+03  7.48646E+03 -3.56186E+03
  4.67402E+03  1.66989E+03 -8.81295E+02  9.91289E+02 -2.07485E+02 -2.95449E+03  2.25332E+03 -7.05947E+03
  1.02283E+04 -3.74552E+03  1.47337E+04  1.05144E+03  1.40263E+04  1.01394E+04  9.27392E+03  1.82793E+04
 -4.10400E+03  2.12751E+04 -1.77530E+04  1.58414E+04 -2.37169E+04  2.84543E+03 -1.94969E+04 -7.96004E+03
 -9.66723E+03 -1.54154E+04 -1.15338E+02 -1.31267E+04  4.85258E+03 -7.68554E+03  4.31877E+03 -4.10148E+03
  2.96477E+03 -2.53272E+03  4.20639E+03 -3.83114E+03  5.47632E+03 -2.79275E+03  7.59618E+03 -8.98995E+02
  9.55158E+03  2.24928E+03  5.04977E+03  8.29824E+03 -2.15190E+03  9.60756E+03 -1.02331E+04  7.69689E+03
 -1.25878E+04 -1.01176E+03 -8.22312E+03 -9.14474E+03 -9.26901E+02 -1.39163E+04  7.13545E+03 -1.43356E+04
  1.42919E+04 -7.98122E+03  1.70170E+04  2.29682E+03  1.21828E+04  1.17711E+04  2.16310E+03  1.55112E+04
 -5.33630E+03  1.26127E+04 -8.87237E+03  3.68072E+03 -6.42119E+03 -1.01299E+03 -3.13297E+03 -2.28515E+03
 -1.81414E+03 -7.44149E+02 -2.45284E+03  2.91096E+03 -5.52544E+03  1.80109E+03 -9.28545E+03 -8.46241E+02
 -5.92830E+03 -9.31015E+03 -4.78445E+01 -1.30668E+04  7.74047E+03 -1.19405E+04  1.23006E+04 -3.52126E+03
  1.19706E+04  6.07367E+03  5.65445E+03  1.14259E+04 -2.31851E+03  1.26195E+04 -9.86030E+03  8.55433E+03
 -1.22332E+04  5.74111E+02 -9.68720E+03 -8.16869E+03 -2.13713E+03 -1.09230E+04  5.50362E+03 -7.56818E+03
  7.58642E+03 -2.66025E+03  5.90382E+03  2.18933E+03  1.86197E+03  3.55271E+03  7.54476E+02  1.62069E+03
  2.64198E+03  9.84796E+02  3.35668E+03  1.45627E+03  2.75980E+03  4.66256E+03  3.69429E+03  6.77568E+03
 -3.37275E+03  9.88593E+03 -8.91326E+03  9.84164E+03 -1.23039E+04  2.28240E+03 -1.34487E+04 -4.12881E+03
 -6.18850E+03 -1.25416E+04  2.05822E+03 -1.41162E+04  8.34997E+03 -9.00865E+03  1.05838E+04 -2.25532E+03
  8.31290E+03  4.59242E+03  2.06680E+03  6.66040E+03 -3.47338E+03  4.54004E+03 -5.16673E+03 -8.53610E+02
 -2.32710E+03 -5.06847E+03  3.94432E+03 -5.32108E+03  5.20617E+03 -2.82696E+03  4.71287E+03  1.25941E+03
  2.79985E+03  2.55088E+03  1.56117E+03  1.89094E+03 -5.24031E+02  1.96306E+03  2.00663E+03  5.33611E+01
  2.97314E+03 -1.49969E+03  5.04130E+03  1.34814E+03  3.13517E+03  6.99908E+03 -1.53801E+03  8.86097E+03
 -5.58171E+03  6.08114E+03 -7.60919E+03  1.97471E+03 -7.03078E+03 -2.79556E+03 -2.01126E+03 -4.43471E+03
  9.40906E+02 -4.42999E+03  3.47353E+03 -1.64032E+03  2.04283E+03  2.40458E+03 -1.08075E+03  4.27769E+03
 -4.73758E+03  1.92132E+03 -5.20203E+03 -3.23921E+03 -3.24732E+03 -6.24722E+03  9.81188E+02 -6.34948E+03
  3.76568E+03 -3.79030E+03  4.64497E+03 -4.97691E+02  3.27964E+03  1.99320E+03  7.69535E+02  3.59552E+03
 -2.06888E+03  8.41302E+02 -2.92367E+03 -2.55289E+03  1.61809E+03 -5.94043E+03  5.87861E+03 -4.87877E+03
  6.76917E+03  6.35936E+02  6.99121E+03  5.41966E+03  2.02472E+03  8.48278E+03 -2.65975E+03  7.24488E+03
 -6.48048E+03  2.35778E+03 -6.61183E+03 -1.63287E+03 -3.51861E+03 -4.77457E+03  1.57188E+03 -4.68490E+03
  5.27121E+03 -2.16819E+03  3.85978E+03  2.46745E+03  1.73282E+03  4.57579E+03 -1.55095E+03  3.81291E+03
 -9.86112E+02  2.93584E+03 -2.19324E+03  3.09014E+02 -1.08302E+03  1.13401E+03 -2.34612E+03  1.70830E+03
 -1.98346E+03  3.12419E+03 -5.42775E+03  1.96082E+03 -7.64246E+03  4.84000E+02 -8.79794E+03 -4.83008E+03
 -4.12218E+03 -9.94534E+03  2.79299E+03 -1.20229E+04  7.79869E+03 -9.69029E+03  1.16577E+04 -3.85801E+03
  1.00613E+04  2.43071E+03  6.45868E+03  7.32162E+03  5.52332E+02  7.04797E+03 -3.95094E+03  5.96689E+03
 -4.49108E+03  1.29800E+03 -2.82716E+03 -9.49889E+01 -6.32687E+02 -6.09456E+02 -4.93318E+02 -5.00604E+02
 -1.66355E+03  5.47427E+02 -1.46157E+03 -1.60617E+02 -2.93835E+02 -1.72727E+03  3.91737E+02 -3.06322E+03
  3.88390E+03 -2.91698E+03  4.64514E+03  1.09272E+02  5.16149E+03  4.46608E+03  1.17838E+03  7.04792E+03
 -4.31409E+03  9.69351E+03 -6.73746E+03  5.20406E+03 -9.33382E+03 -7.77886E+02 -6.25496E+03 -5.26389E+03
 -3.03289E+03 -7.74472E+03  1.52397E+03 -7.12065E+03  5.48549E+03 -4.20019E+03  4.85053E+03 -6.34274E+02
  3.20248E+03  2.16858E+03 -5.01264E+02  2.05327E+03 -1.58418E+03 -4.15491E+02  3.21868E+02 -1.26803E+03
  1.98034E+03 -1.16882E+03  3.15795E+03  1.38316E+03  2.29970E+03  2.98403E+03  4.81327E+02  3.57029E+03
 -3.07826E+03  3.22067E+03 -5.03056E+03 -2.92842E+02 -4.92428E+03 -3.32939E+03 -5.12523E+02 -6.34565E+03
  3.10675E+03 -4.59963E+03  5.37200E+03 -1.06020E+03  5.83554E+03  9.20766E+02  3.20097E+03  4.76702E+03
  4.06764E+02  4.34063E+03 -1.45690E+03  3.87055E+03 -3.45487E+03  2.74682E+03 -2.09539E+03  3.53404E+02
 -1.14178E+03  8.21271E+01 -2.10007E+03  7.62186E+02 -2.54245E+03  1.02047E+03 -4.07304E+03 -7.86842E+02
 -4.07492E+03 -2.87810E+03 -1.37907E+03 -5.32327E+03  2.39646E+03 -5.67444E+03  4.23940E+03 -2.50562E+03
  5.06020E+03  1.05386E+03  2.62991E+03  3.14128E+03 -2.58026E+02  4.72223E+03 -3.66079E+03  3.33236E+03
