 $NMID ID='MM_0lb_SNR400_10hz_g55_14.RAW', FMTDAT='(8E13.5)'
 TRAMP=1., VOLUME=1. $END
  3.10164E+05  2.59047E+02  3.38046E+05  2.50319E+05  8.44476E+04  3.38455E+05 -1.32911E+05  2.51947E+05
 -1.89853E+05  8.33680E+04 -1.12860E+05 -3.15579E+04 -4.36514E+01 -5.15823E+04  5.39179E+04 -2.79627E+02
  3.55267E+04  5.35875E+04 -1.63442E+04  7.52206E+04 -6.05820E+04  6.46464E+04 -8.49682E+04  3.23892E+04
 -8.17769E+04 -1.15588E+04 -5.80947E+04 -5.28967E+04 -1.53079E+04 -7.11936E+04  2.80049E+04 -4.70150E+04
  4.07890E+04  3.58340E+03  1.66383E+04  4.88156E+04 -3.52640E+04  4.86572E+04 -6.80192E+04  6.21819E+02
 -5.49920E+04 -5.78566E+04 -7.06663E+03 -7.83239E+04  3.44566E+04 -5.72933E+04  4.94870E+04 -1.84062E+04
  4.49590E+04  1.16892E+04  3.37965E+04  2.59895E+04  1.58895E+04  2.99179E+04 -6.10104E+03  2.68644E+04
 -2.32595E+04  1.16506E+04 -1.88323E+04 -5.80138E+03  7.05780E+03 -6.70406E+03  2.35868E+04  1.35117E+04
  7.17487E+03  3.76460E+04 -3.34903E+04  3.72322E+04 -6.61576E+04  2.45000E+03 -5.82361E+04 -4.43514E+04
 -1.28636E+04 -6.53133E+04  4.20348E+04 -4.68523E+04  6.10309E+04 -2.53161E+03  3.64624E+04  3.43770E+04
 -6.40220E+03  3.89555E+04 -3.06423E+04  1.80778E+04 -3.24200E+04 -4.22752E+03 -1.90926E+04 -1.20770E+04
 -9.87084E+03 -1.56569E+04 -8.67322E+02 -1.92542E+04  8.09973E+03 -2.35260E+04  1.61906E+04 -1.29579E+04
  1.00235E+04  4.67658E+03 -1.02442E+04  1.30425E+04 -2.36657E+04 -6.30808E+03 -8.69972E+03 -3.67624E+04
  2.44541E+04 -4.67858E+04  5.12695E+04 -1.98836E+04  4.89393E+04  2.13882E+04  1.75286E+04  4.70763E+04
 -1.67773E+04  3.59998E+04 -2.82341E+04  2.55296E+03 -1.21278E+04 -2.93886E+04  2.19519E+04 -3.60597E+04
  4.44015E+04 -1.07284E+04  4.01033E+04  2.52068E+04  2.13690E+04  5.12022E+04 -7.98310E+03  5.53725E+04
 -3.50923E+04  3.79296E+04 -4.71419E+04  1.05515E+04 -4.75118E+04 -1.81630E+04 -2.50755E+04 -4.21778E+04
  7.62943E+03 -4.11881E+04  3.36706E+04 -1.67314E+04  3.21292E+04  1.12035E+04  5.11657E+03  2.02182E+04
 -1.40436E+04  9.83799E+03 -1.11036E+04 -7.93185E+03  5.40123E+03 -1.13092E+04  1.89743E+04  5.14175E+03
  1.54308E+04  2.26867E+04 -5.32650E+03  2.78383E+04 -2.31461E+04  1.49471E+04 -3.13317E+04 -3.29652E+03
 -2.51372E+04 -1.77082E+04 -1.17234E+04 -2.41079E+04  4.34218E+03 -2.51962E+04  1.92957E+04 -2.20751E+04
  3.14926E+04 -1.39223E+04  3.72897E+04  4.73220E+03  2.70028E+04  2.42045E+04  4.76569E+03  4.04888E+04
 -2.01230E+04  3.32260E+04 -3.02030E+04  1.17953E+04 -2.21134E+04 -9.68300E+03 -4.71190E+03 -1.34207E+04
  9.35003E+02 -1.20888E+03 -7.15621E+03  8.27992E+03 -2.03003E+04  5.10489E+03 -1.94850E+04 -9.33976E+03
 -1.22067E+04 -2.25837E+04  5.70502E+03 -2.79835E+04  1.86463E+04 -1.97349E+04  2.26948E+04 -1.35799E+03
  1.39673E+04  1.62398E+04 -1.43846E+03  2.22311E+04 -1.59785E+04  1.34437E+04 -2.32694E+04 -5.03531E+03
 -1.74219E+04 -2.05061E+04 -2.75781E+03 -2.73904E+04  1.31142E+04 -2.32958E+04  2.26656E+04 -1.18624E+04
  2.11744E+04  2.49874E+02  1.56161E+04  5.24067E+03  8.83688E+03  2.33878E+03  1.21516E+04 -2.06100E+03
  2.12698E+04  3.17915E+03  2.44099E+04  1.86691E+04  1.67786E+04  3.69476E+04 -3.02021E+03  4.27127E+04
 -2.55939E+04  3.56504E+04 -4.03487E+04  1.78981E+04 -4.35285E+04 -3.45673E+03 -3.50021E+04 -2.51755E+04
 -1.47068E+04 -3.55700E+04  1.26024E+04 -3.18929E+04  2.68556E+04 -1.48186E+04  2.29193E+04  7.25371E+03
  8.68059E+03  1.84540E+04 -1.12612E+04  1.57986E+04 -1.93771E+04  2.40106E+03 -1.54065E+04 -1.26885E+04
 -1.30908E+01 -1.90871E+04  9.69673E+03 -1.37126E+04  1.31972E+04 -1.00000E+03  3.65386E+03  8.86569E+03
 -9.01540E+03  3.65072E+03 -8.95234E+03 -6.39772E+03 -1.68744E+03 -1.68941E+04  1.15582E+04 -1.96200E+04
  2.24632E+04 -1.09491E+04  2.55434E+04  3.02288E+03  2.20357E+04  1.74207E+04  1.09406E+04  2.81737E+04
 -5.17748E+03  3.00002E+04 -1.96535E+04  1.86491E+04 -2.16873E+04  3.65164E+03 -1.44855E+04 -5.71003E+03
 -6.12676E+03 -7.09472E+03 -8.42917E+02 -1.90191E+01 -1.97936E+03  3.45979E+03 -7.48847E+03  5.51423E+03
 -1.31236E+04 -6.00353E+02 -1.40646E+04 -1.13821E+04 -5.90627E+03 -1.92141E+04  6.16331E+03 -1.52870E+04
  1.19682E+04 -6.52699E+03  8.45186E+03  4.75632E+03 -4.08357E+02  5.24610E+03 -7.51952E+03  2.26200E+02
 -7.46633E+03 -1.00776E+04 -8.25779E+02 -1.48718E+04  8.53988E+03 -1.54813E+04  2.02257E+04 -8.71406E+03
  2.24332E+04  2.11556E+03  1.62124E+04  1.32755E+04  3.15311E+03  1.85962E+04 -1.02939E+04  1.54638E+04
 -1.13270E+04  3.95100E+03 -6.65451E+03 -2.78934E+03  2.51370E+03 -4.59311E+03  8.48319E+03 -4.21157E+02
  6.86911E+03  6.97741E+03  1.63216E+03  1.25566E+04 -9.48843E+03  1.15822E+04 -1.57694E+04  3.37653E+03
 -1.10246E+04 -7.14205E+03  7.19341E+02 -1.35865E+04  8.69783E+03 -6.17458E+03  8.64495E+03  2.76018E+03
  2.01873E+03  9.85839E+03 -7.67272E+03  1.09462E+04 -1.32470E+04  4.26546E+03 -1.30200E+04 -5.18320E+03
 -7.30847E+03 -1.48962E+04  3.44979E+03 -1.76922E+04  1.48979E+04 -1.00182E+04  1.57816E+04  3.58449E+03
  8.88308E+03  1.28017E+04 -1.78295E+03  1.51928E+04 -1.07747E+04  8.83474E+03 -1.20685E+04 -1.39746E+03
 -1.04729E+04 -1.01509E+04 -1.47484E+03 -1.19754E+04  6.01997E+03 -8.79459E+03  7.71810E+03 -3.51149E+03
  4.87646E+03  2.29835E+03 -4.76459E+02  1.87675E+03 -1.21281E+03 -3.29547E+03  2.37175E+03 -7.75416E+03
  9.91898E+03 -5.00773E+03  1.59226E+04  1.58649E+03  1.37722E+04  1.05089E+04  9.67189E+03  1.94173E+04
 -4.33452E+03  2.23252E+04 -1.89653E+04  1.71430E+04 -2.36381E+04  3.07290E+03 -1.90141E+04 -9.05660E+03
 -1.03598E+04 -1.58535E+04 -1.53247E+02 -1.34625E+04  5.02498E+03 -7.28164E+03  6.06399E+03 -4.93251E+03
  3.27350E+03 -3.40176E+03  3.67580E+03 -2.94206E+03  6.08161E+03 -3.40854E+03  7.86758E+03 -2.05664E+03
  1.04985E+04  2.36822E+03  5.12313E+03  8.62404E+03 -2.19310E+03  1.00336E+04 -1.01086E+04  7.94040E+03
 -1.39338E+04 -2.05959E+03 -8.41011E+03 -9.41990E+03 -1.45808E+03 -1.51595E+04  7.67172E+03 -1.42058E+04
  1.49138E+04 -7.77166E+03  1.86896E+04  2.25834E+03  1.30311E+04  1.29711E+04  1.77996E+03  1.62231E+04
 -6.90549E+03  1.37216E+04 -9.55648E+03  5.19466E+03 -6.90992E+03 -2.13007E+03 -2.66384E+03 -2.11179E+03
 -1.13782E+03 -2.81698E+02 -2.90866E+03  2.80059E+03 -6.27732E+03  2.18403E+03 -1.03813E+04 -1.50349E+03
 -7.32537E+03 -9.71455E+03  1.21502E+03 -1.34398E+04  8.50957E+03 -1.32397E+04  1.42877E+04 -4.53846E+03
  1.34637E+04  6.80072E+03  6.53866E+03  1.19294E+04 -1.97971E+03  1.30969E+04 -1.03386E+04  8.92423E+03
 -1.28932E+04  4.15586E+02 -9.89092E+03 -9.02898E+03 -1.22451E+03 -1.06133E+04  6.14595E+03 -7.45356E+03
  9.63231E+03 -2.75183E+03  6.42106E+03  2.53034E+03  1.73645E+03  4.47907E+03  2.07407E+03  2.24688E+03
  3.50197E+03  1.33527E+03  3.96770E+03  1.52941E+03  4.05675E+03  5.33456E+03  3.66252E+03  7.58899E+03
 -3.00824E+03  1.10016E+04 -9.42060E+03  1.06839E+04 -1.31712E+04  3.00178E+03 -1.46013E+04 -6.71458E+03
 -6.70482E+03 -1.45183E+04  1.97895E+03 -1.57770E+04  8.15985E+03 -1.00350E+04  1.15548E+04 -2.56633E+03
  8.80400E+03  5.03447E+03  1.60961E+03  7.62708E+03 -3.96733E+03  5.24125E+03 -5.55327E+03 -6.92626E+02
 -2.56714E+03 -5.80195E+03  2.42367E+03 -5.59872E+03  5.04153E+03 -2.47096E+03  5.50586E+03  3.50562E+02
  3.83641E+03  2.56637E+03  1.98067E+03  2.23691E+03 -9.85786E+02  1.41937E+03  2.11595E+03 -7.10891E+02
  2.36861E+03 -2.11755E+02  5.79966E+03  2.07414E+03  2.91518E+03  7.53115E+03 -8.72754E+02  9.77353E+03
 -5.97395E+03  5.93288E+03 -8.39300E+03  1.66305E+03 -8.08017E+03 -2.97357E+03 -2.66182E+03 -5.31584E+03
  4.70294E+02 -5.17725E+03  4.13480E+03 -3.02777E+03  2.91608E+03  3.03735E+03 -1.92678E+03  5.08269E+03
 -5.42289E+03  2.50727E+03 -6.89141E+03 -3.02444E+03 -3.02417E+03 -8.13166E+03  1.63149E+03 -8.17275E+03
  4.74664E+03 -4.60175E+03  5.12397E+03 -7.77236E+02  4.95949E+03  2.70155E+03  1.13259E+03  4.72400E+03
 -3.14803E+03  1.24268E+03 -3.47609E+03 -2.70786E+03  2.12477E+03 -6.53159E+03  7.33344E+03 -5.09705E+03
  8.36921E+03  1.28567E+03  8.75260E+03  5.83183E+03  3.12713E+03  9.83722E+03 -2.93207E+03  8.38860E+03
 -7.80018E+03  3.49204E+03 -6.98658E+03 -1.75137E+03 -3.72624E+03 -5.59287E+03  1.38623E+03 -5.59819E+03
  5.99479E+03 -2.78467E+03  4.76728E+03  2.34740E+03  1.50768E+03  4.54506E+03 -1.09293E+03  4.65726E+03
 -3.41421E+03  3.21697E+03 -2.19093E+03  1.25503E+03 -1.18060E+03  7.34684E+02 -3.91756E+02  1.95617E+03
 -2.82611E+03  3.55665E+03 -6.26178E+03  3.14751E+03 -9.12306E+03  3.76185E+02 -1.01834E+04 -5.88735E+03
 -4.73353E+03 -1.14644E+04  2.90414E+03 -1.26345E+04  9.00878E+03 -1.03548E+04  1.29286E+04 -4.26304E+03
  1.15680E+04  2.06009E+03  7.82377E+03  7.96153E+03 -7.64763E+01  9.83299E+03 -3.21217E+03  6.66477E+03
 -4.89505E+03  2.91868E+03 -3.38678E+03 -1.14980E+03 -8.49255E+02 -7.54240E+02 -8.94072E+02 -7.63018E+02
 -1.53353E+03  3.53652E+02 -1.60884E+03 -3.46611E+02 -7.10952E+02 -2.31876E+03  5.11842E+02 -3.47714E+03
  4.13286E+03 -2.59040E+03  5.17032E+03  3.44168E+02  6.79806E+03  5.04958E+03  1.84413E+03  9.26737E+03
 -4.24385E+03  1.02323E+04 -1.06247E+04  6.15177E+03 -1.03308E+04 -6.56631E+02 -8.56413E+03 -6.81068E+03
 -4.10093E+03 -9.14948E+03  1.93972E+03 -8.07776E+03  5.61819E+03 -4.36926E+03  5.73569E+03 -1.58680E+02
  3.89022E+03  2.72474E+03 -1.26610E+02  2.30810E+03 -1.99183E+03  6.70032E+01 -5.84779E+02 -2.56511E+03
  3.99133E+03 -8.84093E+02  3.59140E+03  1.34794E+03  2.59733E+03  2.92581E+03  2.81204E+01  4.97446E+03
 -4.07705E+03  3.98104E+03 -6.27838E+03  6.11486E+02 -5.46340E+03 -4.16915E+03 -1.03451E+03 -7.34985E+03
  4.55927E+03 -5.69543E+03  7.19182E+03 -1.97253E+03  6.41523E+03  2.09495E+03  4.23433E+03  5.34016E+03
 -1.02188E+02  5.67801E+03 -1.43610E+03  4.51300E+03 -3.31547E+03  2.74359E+03 -3.15863E+03  4.36526E+02
 -1.79900E+03  4.26761E+02 -2.24228E+03  5.64875E+02 -3.33448E+03  1.64609E+03 -4.72038E+03 -3.94673E+02
 -4.11277E+03 -2.44224E+03 -1.73870E+03 -6.21392E+03  2.80006E+03 -6.27050E+03  5.17012E+03 -2.87535E+03
  6.14277E+03  1.68394E+03  3.17726E+03  3.52278E+03 -6.62310E+02  5.23379E+03 -3.65677E+03  3.74455E+03
