 $NMID ID='MM_0lb_SNR400_13hz_g50_96.RAW', FMTDAT='(8E13.5)'
 TRAMP=1., VOLUME=1. $END
  3.10248E+05  3.14903E+01  3.37542E+05  2.50667E+05  8.52254E+04  3.37648E+05 -1.32774E+05  2.50497E+05
 -1.91020E+05  8.35700E+04 -1.12596E+05 -3.22431E+04  9.33238E+02 -5.01014E+04  5.39047E+04 -2.22185E+02
  3.50656E+04  5.30208E+04 -1.71980E+04  7.49785E+04 -6.08766E+04  6.40672E+04 -8.47835E+04  3.17036E+04
 -8.15315E+04 -1.05588E+04 -5.78291E+04 -5.18234E+04 -1.51424E+04 -6.91045E+04  2.78967E+04 -4.59541E+04
  4.04773E+04  4.19041E+03  1.58236E+04  4.79990E+04 -3.40184E+04  4.74579E+04 -6.68136E+04 -8.04237E+02
 -5.34044E+04 -5.74454E+04 -7.35035E+03 -7.69636E+04  3.42662E+04 -5.55387E+04  4.91676E+04 -1.76166E+04
  4.41102E+04  1.09444E+04  3.16358E+04  2.59417E+04  1.61261E+04  2.90842E+04 -5.54447E+03  2.81578E+04
 -2.18945E+04  1.22871E+04 -1.82583E+04 -5.53094E+03  5.91293E+03 -7.58188E+03  2.24609E+04  1.25057E+04
  7.50940E+03  3.61235E+04 -3.26231E+04  3.60832E+04 -6.32847E+04  2.51376E+03 -5.68196E+04 -4.30105E+04
 -1.26956E+04 -6.35820E+04  4.01056E+04 -4.52861E+04  5.83174E+04 -2.10619E+03  3.45035E+04  3.22978E+04
 -5.75122E+03  3.63208E+04 -2.98917E+04  1.61229E+04 -3.11272E+04 -4.32409E+03 -1.73539E+04 -1.08524E+04
 -8.87679E+03 -1.34129E+04 -1.36185E+02 -1.86495E+04  7.34947E+03 -2.33193E+04  1.52835E+04 -1.32860E+04
  1.19024E+04  5.43884E+03 -8.61352E+03  1.30117E+04 -2.12504E+04 -4.45045E+03 -8.69254E+03 -3.42672E+04
  2.32443E+04 -4.45729E+04  4.89276E+04 -1.96454E+04  4.59123E+04  2.00427E+04  1.59417E+04  4.42697E+04
 -1.53095E+04  3.37523E+04 -2.63203E+04  1.79246E+03 -1.03831E+04 -2.83662E+04  2.08570E+04 -3.36569E+04
  4.19302E+04 -9.27897E+03  3.62269E+04  2.35164E+04  1.92297E+04  4.71509E+04 -7.93910E+03  5.20996E+04
 -3.24483E+04  3.49857E+04 -4.31829E+04  1.02092E+04 -4.41467E+04 -1.78642E+04 -2.37324E+04 -3.89781E+04
  7.76332E+03 -3.90475E+04  3.22653E+04 -1.49180E+04  2.99656E+04  1.12426E+04  4.28586E+03  1.97272E+04
 -1.32988E+04  8.58445E+03 -1.04344E+04 -7.08996E+03  5.56599E+03 -1.18079E+04  1.81955E+04  6.10882E+03
  1.34360E+04  2.19663E+04 -5.92335E+03  2.58467E+04 -2.26146E+04  1.19102E+04 -2.89431E+04 -4.11896E+03
 -2.16736E+04 -1.74288E+04 -8.85242E+03 -2.12181E+04  4.01850E+03 -2.11519E+04  1.66430E+04 -1.86415E+04
  2.68991E+04 -1.34634E+04  3.33492E+04  3.09662E+03  2.53297E+04  2.11583E+04  3.97067E+03  3.78528E+04
 -1.85800E+04  3.14552E+04 -2.85980E+04  1.09189E+04 -2.12522E+04 -1.02681E+04 -4.66651E+03 -1.35786E+04
  2.15653E+03 -2.93766E+03 -5.69795E+03  6.76019E+03 -1.66763E+04  5.59664E+03 -1.76421E+04 -7.33924E+03
 -1.02860E+04 -1.99578E+04  5.73381E+03 -2.39226E+04  1.59462E+04 -1.75673E+04  1.87154E+04 -1.16902E+03
  1.18528E+04  1.35659E+04 -1.58668E+03  1.95765E+04 -1.41505E+04  1.13270E+04 -2.03112E+04 -4.61222E+03
 -1.51776E+04 -1.74250E+04 -1.49732E+03 -2.37404E+04  1.02862E+04 -2.01790E+04  2.00924E+04 -1.01159E+04
  1.90301E+04 -6.43521E+01  1.37209E+04  5.20337E+03  7.74643E+03  1.59525E+03  9.90628E+03 -1.58627E+03
  1.83338E+04  2.88559E+03  2.06115E+04  1.51715E+04  1.37639E+04  3.20945E+04 -2.87020E+03  3.59663E+04
 -2.10660E+04  2.91975E+04 -3.42872E+04  1.45079E+04 -3.59328E+04 -2.04801E+03 -2.90544E+04 -2.04803E+04
 -1.19886E+04 -2.97876E+04  1.03622E+04 -2.59959E+04  2.29874E+04 -1.32416E+04  2.00118E+04  6.43458E+03
  7.25543E+03  1.54187E+04 -9.44784E+03  1.30635E+04 -1.69008E+04  2.80427E+03 -1.24123E+04 -1.01510E+04
  4.16495E+01 -1.64400E+04  8.30749E+03 -1.16563E+04  1.08343E+04 -6.41193E+02  2.76020E+03  6.88424E+03
 -7.44250E+03  2.91768E+03 -6.88566E+03 -5.96524E+03 -9.30041E+02 -1.43218E+04  1.01848E+04 -1.51737E+04
  1.79483E+04 -7.62497E+03  1.91064E+04  2.46603E+03  1.73857E+04  1.46424E+04  7.46991E+03  2.19584E+04
 -3.43637E+03  2.38504E+04 -1.47984E+04  1.45188E+04 -1.68252E+04  3.33647E+03 -1.21898E+04 -4.14084E+03
 -5.78084E+03 -5.87537E+03 -1.02501E+03  4.06528E+02 -2.68952E+03  2.20868E+03 -5.12525E+03  4.91816E+03
 -1.06719E+04 -1.20084E+03 -1.17923E+04 -9.81938E+03 -4.97565E+03 -1.56559E+04  5.36129E+03 -1.30018E+04
  1.03294E+04 -5.45328E+03  6.73984E+03  2.82404E+03  1.65658E+02  4.92734E+03 -6.94940E+03  2.57030E+02
 -5.88486E+03 -7.72103E+03 -2.91021E+02 -1.14549E+04  6.77696E+03 -1.24021E+04  1.51993E+04 -6.13257E+03
  1.71321E+04  2.04218E+03  1.35805E+04  1.01577E+04  2.68669E+03  1.39568E+04 -7.57990E+03  1.20224E+04
 -1.02126E+04  3.60706E+03 -5.01956E+03 -2.06549E+03  1.56451E+03 -3.04881E+03  6.57214E+03 -1.16654E+03
  6.14779E+03  5.63547E+03  1.21085E+03  9.02285E+03 -6.78516E+03  9.49790E+03 -1.12647E+04  2.00122E+03
 -8.23592E+03 -6.31369E+03  4.04905E+02 -1.02661E+04  6.65574E+03 -5.07461E+03  6.09881E+03  1.89816E+03
  1.22470E+03  6.67965E+03 -6.38523E+03  8.86189E+03 -9.61308E+03  4.24194E+03 -9.24541E+03 -3.28085E+03
 -5.61925E+03 -1.13418E+04  2.78176E+03 -1.26478E+04  1.01296E+04 -7.73577E+03  1.16386E+04  1.92177E+03
  7.47915E+03  9.72554E+03 -1.28244E+03  1.08670E+04 -8.22376E+03  6.19832E+03 -8.77524E+03 -1.17039E+03
 -8.30701E+03 -7.98949E+03 -1.17352E+03 -8.43277E+03  4.47123E+03 -7.44736E+03  5.50086E+03 -2.96073E+03
  3.91939E+03  9.66608E+02 -8.95897E+02  1.23336E+03 -4.48851E+02 -1.98036E+03  1.42055E+03 -4.04600E+03
  7.72848E+03 -2.35401E+03  1.06597E+04  1.10524E+03  1.08937E+04  7.64304E+03  7.20278E+03  1.39146E+04
 -3.12196E+03  1.53830E+04 -1.36793E+04  1.17979E+04 -1.79026E+04  2.35079E+03 -1.34889E+04 -5.10989E+03
 -7.33574E+03 -1.17769E+04 -4.78140E+02 -9.38612E+03  4.59229E+03 -5.87278E+03  3.51492E+03 -3.65891E+03
  2.66478E+03 -2.76149E+03  2.57891E+03 -3.35025E+03  4.41019E+03 -3.00131E+03  5.08650E+03 -3.12480E+02
  7.76693E+03  1.36078E+03  3.98094E+03  6.11329E+03 -1.82971E+03  6.92094E+03 -7.81219E+03  5.48690E+03
 -9.91171E+03 -8.83986E+02 -5.39694E+03 -6.70381E+03  6.58056E+01 -9.20185E+03  5.29688E+03 -1.04417E+04
  9.90292E+03 -5.98477E+03  1.29933E+04  1.45792E+03  9.15301E+03  8.94834E+03  1.13767E+03  1.18809E+04
 -4.60562E+03  9.76966E+03 -6.33188E+03  4.19256E+03 -4.41120E+03 -1.16936E+03 -1.43807E+03 -1.24018E+03
 -1.59520E+02  3.48410E+02 -1.78446E+03  2.33829E+03 -4.13477E+03  1.41135E+03 -7.13475E+03 -1.05038E+03
 -3.56870E+03 -6.66972E+03 -3.42315E+02 -9.20026E+03  6.32290E+03 -9.00706E+03  8.50196E+03 -2.89664E+03
  8.69965E+03  4.59334E+03  3.99284E+03  9.09143E+03 -1.78278E+03  8.74307E+03 -5.81122E+03  5.46777E+03
 -8.15278E+03  8.96053E+02 -6.65973E+03 -5.44828E+03 -8.30962E+02 -7.13675E+03  3.49187E+03 -5.43400E+03
  5.67617E+03 -2.30051E+03  4.08680E+03  1.25223E+03  1.62500E+03  3.23060E+03  6.14903E+02  1.67180E+03
  2.61455E+03  7.58633E+02  2.67891E+03  1.22092E+03  2.82355E+03  3.86744E+03  2.27689E+03  4.37509E+03
 -2.49520E+03  6.61747E+03 -5.87879E+03  7.53695E+03 -8.88772E+03  2.23905E+03 -8.94995E+03 -2.93079E+03
 -4.35444E+03 -9.35005E+03  1.50414E+03 -1.01825E+04  5.07983E+03 -6.00913E+03  7.25728E+03 -1.70423E+03
  5.30702E+03  4.21000E+03  1.07332E+03  5.58015E+03 -2.60701E+03  3.54597E+03 -2.96065E+03 -7.09661E+02
 -1.01405E+03 -3.09077E+03  2.41513E+03 -3.42505E+03  3.55607E+03 -1.99636E+03  4.24277E+03  5.16074E+02
  1.69392E+03  1.39738E+03  6.46017E+02  6.62441E+02 -1.14488E+03  2.23027E+03  2.06457E+03 -3.32170E+02
  5.71451E+02 -3.63560E+02  3.31383E+03  1.59400E+03  1.37815E+03  4.23752E+03 -9.61847E+02  6.18302E+03
 -4.44334E+03  3.66042E+03 -5.44371E+03  6.68730E+02 -5.35666E+03 -1.31935E+03 -1.11107E+03 -3.06480E+03
  1.27100E+03 -2.84622E+03  1.55715E+03 -1.04781E+03  1.61403E+03  2.01461E+03 -1.21741E+03  3.33453E+03
 -3.19843E+03  1.09687E+03 -4.02372E+03 -2.14510E+03 -1.68862E+03 -4.86536E+03  5.96219E+02 -4.90862E+03
  2.32676E+03 -2.02077E+03  3.49129E+03 -9.70055E+02  3.45239E+03  1.03193E+03  8.08372E+02  2.29925E+03
 -1.94675E+03  8.56883E+02 -1.93328E+03 -1.24054E+03  7.12552E+02 -3.17122E+03  3.63207E+03 -3.24223E+03
  4.85985E+03  4.28080E+02  5.42091E+03  2.90232E+03  1.86914E+03  5.13543E+03 -1.68747E+03  5.12522E+03
 -4.18415E+03  1.86676E+03 -4.23980E+03 -7.04691E+02 -2.26603E+03 -3.66945E+03  1.41256E+03 -2.60574E+03
  2.87068E+03 -8.50552E+02  2.37061E+03  1.52655E+03  8.59581E+02  2.96526E+03 -6.59812E+02  2.78894E+03
 -9.60058E+02  1.38253E+03 -9.22504E+02  3.57420E+02 -6.81411E+02  2.19673E+02 -1.67639E+03  1.54678E+03
 -1.69593E+03  2.15145E+03 -3.53335E+03  1.79296E+03 -5.12634E+03  3.25305E+02 -6.03558E+03 -2.79595E+03
 -2.68126E+03 -6.83249E+03  9.87191E+02 -8.37106E+03  4.12890E+03 -5.98526E+03  7.45800E+03 -2.56130E+03
  7.23476E+03  1.14533E+03  4.38973E+03  4.67031E+03  4.97288E+02  5.56763E+03 -1.47383E+03  3.81860E+03
 -3.31927E+03  1.49500E+03 -2.00034E+03 -3.95097E+02 -1.01617E+03 -2.18358E+02 -1.07578E+03 -5.34315E+02
 -1.09017E+03  6.98226E+02 -1.40797E+03 -2.78705E+02  3.79342E+02 -1.32425E+03 -7.19091E+02 -2.37182E+03
  2.74356E+03 -8.32177E+02  3.05162E+03 -5.89402E+02  4.06643E+03  2.53702E+03  3.10072E+02  4.88700E+03
 -2.61964E+03  5.64810E+03 -4.83477E+03  3.35569E+03 -6.14100E+03 -1.00190E+03 -4.64752E+03 -3.86690E+03
 -2.00424E+03 -4.71960E+03  8.24032E+02 -4.51163E+03  3.30124E+03 -2.26039E+03  2.20265E+03 -2.02623E+02
  1.73133E+03  1.08718E+03 -6.06053E+01  1.24268E+03 -9.93688E+02 -2.45500E+02  2.45630E+01 -1.49670E+03
  1.05361E+03  1.95617E+02  1.43040E+03  7.26218E+02  1.49895E+03  2.19150E+03  5.55419E+02  1.56034E+03
 -1.91571E+03  2.30221E+03 -3.20901E+03  6.95597E+02 -2.85891E+03 -2.32233E+03 -5.44643E+02 -4.00845E+03
  2.32448E+03 -3.49426E+03  3.01333E+03 -6.25184E+02  3.44328E+03  1.71299E+02  2.38306E+03  2.02805E+03
  5.38590E+02  2.15671E+03 -1.10130E+03  2.65750E+03 -2.35264E+03  1.55674E+03 -1.54736E+03  1.09142E+03
 -1.34437E+03 -4.90858E+02 -1.54597E+03  1.38869E+02 -9.37568E+02  3.67069E+02 -2.08341E+03 -5.23966E+02
 -2.04134E+03 -3.80314E+02 -1.40376E+03 -3.09119E+03  1.89008E+03 -4.00102E+03  2.47136E+03 -9.21653E+02
  2.84857E+03  1.46698E+02  8.03877E+02  2.35705E+03  2.89636E+02  2.94758E+03 -2.59848E+03  1.98212E+03
