 $NMID ID='MM_0lb_SNR400_14hz_g45_37.RAW', FMTDAT='(8E13.5)'
 TRAMP=1., VOLUME=1. $END
  3.09468E+05  5.98767E+02  3.37156E+05  2.50433E+05  8.44068E+04  3.37980E+05 -1.32266E+05  2.50833E+05
 -1.89997E+05  8.30959E+04 -1.11565E+05 -3.31273E+04  9.69843E+02 -5.03549E+04  5.39234E+04  9.26959E+02
  3.50089E+04  5.30725E+04 -1.71755E+04  7.50143E+04 -6.01095E+04  6.35980E+04 -8.42996E+04  3.20623E+04
 -8.11296E+04 -1.12438E+04 -5.73214E+04 -5.17365E+04 -1.46991E+04 -6.85935E+04  2.70350E+04 -4.53595E+04
  3.98304E+04  4.20756E+03  1.60387E+04  4.76803E+04 -3.40863E+04  4.71793E+04 -6.61749E+04 -1.08777E+03
 -5.31874E+04 -5.63800E+04 -6.42329E+03 -7.68877E+04  3.40874E+04 -5.49014E+04  4.77589E+04 -1.69651E+04
  4.33535E+04  1.15203E+04  3.15915E+04  2.57672E+04  1.57380E+04  2.90212E+04 -5.09477E+03  2.72761E+04
 -2.22932E+04  1.25251E+04 -1.90263E+04 -4.99134E+03  5.55744E+03 -7.79235E+03  2.21925E+04  1.19395E+04
  7.26757E+03  3.46037E+04 -3.22295E+04  3.51766E+04 -6.32947E+04  2.05757E+03 -5.76822E+04 -4.25783E+04
 -1.23254E+04 -6.28329E+04  3.94384E+04 -4.49995E+04  5.76557E+04 -2.29252E+03  3.35908E+04  3.20486E+04
 -5.94589E+03  3.62321E+04 -3.04065E+04  1.52010E+04 -2.97773E+04 -4.17614E+03 -1.67131E+04 -1.08348E+04
 -8.12834E+03 -1.31094E+04 -8.16961E+01 -1.80569E+04  7.67534E+03 -2.33513E+04  1.59232E+04 -1.31277E+04
  1.12926E+04  5.00045E+03 -8.10620E+03  1.30021E+04 -2.11670E+04 -3.99896E+03 -8.40757E+03 -3.34131E+04
  2.23739E+04 -4.37239E+04  4.75569E+04 -1.94913E+04  4.43086E+04  1.90786E+04  1.58283E+04  4.34326E+04
 -1.58861E+04  3.26633E+04 -2.51357E+04  1.53069E+03 -9.66648E+03 -2.73826E+04  2.11303E+04 -3.41298E+04
  4.01656E+04 -8.88745E+03  3.50674E+04  2.38905E+04  1.81623E+04  4.61073E+04 -7.67467E+03  4.94527E+04
 -3.03301E+04  3.35507E+04 -4.14856E+04  9.63075E+03 -4.22952E+04 -1.67818E+04 -2.31017E+04 -3.71519E+04
  7.27725E+03 -3.71865E+04  3.12349E+04 -1.43054E+04  2.90841E+04  1.13872E+04  3.95763E+03  1.86779E+04
 -1.31112E+04  8.71413E+03 -1.03196E+04 -7.73622E+03  5.98967E+03 -1.05305E+04  1.77911E+04  6.56150E+03
  1.33816E+04  2.22465E+04 -6.27835E+03  2.51908E+04 -2.25907E+04  1.14972E+04 -2.74991E+04 -4.41790E+03
 -2.00948E+04 -1.71318E+04 -8.38821E+03 -1.95181E+04  4.44245E+03 -1.96430E+04  1.54860E+04 -1.81372E+04
  2.57212E+04 -1.26454E+04  3.17965E+04  2.07730E+03  2.36528E+04  1.93202E+04  3.88277E+03  3.61166E+04
 -1.73170E+04  2.97669E+04 -2.79908E+04  1.01695E+04 -2.09184E+04 -1.06286E+04 -4.68249E+03 -1.32514E+04
  1.53249E+03 -2.78860E+03 -4.43856E+03  6.80578E+03 -1.61878E+04  4.14106E+03 -1.59489E+04 -7.29699E+03
 -1.09091E+04 -1.79987E+04  4.56823E+03 -2.29434E+04  1.48276E+04 -1.63429E+04  1.82439E+04 -1.18356E+03
  1.13407E+04  1.22601E+04 -3.74145E+02  1.86999E+04 -1.32610E+04  1.06588E+04 -1.81860E+04 -3.90285E+03
 -1.36636E+04 -1.69453E+04 -1.43068E+03 -2.25435E+04  9.74819E+03 -1.85950E+04  1.88958E+04 -9.05665E+03
  1.77270E+04  9.24052E+01  1.23185E+04  4.21230E+03  7.34916E+03  1.23309E+03  9.79747E+03 -1.44964E+03
  1.67780E+04  2.66131E+03  1.88021E+04  1.49317E+04  1.24864E+04  2.99933E+04 -2.81044E+03  3.32926E+04
 -1.94992E+04  2.66996E+04 -3.04306E+04  1.33685E+04 -3.20951E+04 -2.54797E+03 -2.68615E+04 -1.89783E+04
 -1.16266E+04 -2.71975E+04  9.42335E+03 -2.45132E+04  2.09592E+04 -1.22099E+04  1.84353E+04  5.36796E+03
  7.23683E+03  1.42425E+04 -9.49694E+03  1.29277E+04 -1.64590E+04  1.95206E+03 -1.23885E+04 -1.03216E+04
 -1.82679E+01 -1.49492E+04  7.53959E+03 -1.15968E+04  1.06394E+04 -1.60150E+03  2.56814E+03  6.30652E+03
 -6.79539E+03  2.04990E+03 -6.04696E+03 -4.93442E+03 -2.43376E+02 -1.32085E+04  9.37794E+03 -1.37432E+04
  1.58127E+04 -7.20823E+03  1.69882E+04  2.41804E+03  1.52429E+04  1.34794E+04  6.81630E+03  1.92318E+04
 -3.72757E+03  2.15047E+04 -1.37866E+04  1.34565E+04 -1.51658E+04  3.12527E+03 -1.04812E+04 -3.45623E+03
 -5.95101E+03 -5.21275E+03 -8.41098E+02  1.09003E+03 -2.46442E+03  2.80915E+03 -5.67767E+03  4.50503E+03
 -1.08800E+04 -6.68964E+02 -1.09640E+04 -8.76076E+03 -4.27216E+03 -1.41134E+04  4.54303E+03 -1.17901E+04
  9.42652E+03 -4.61296E+03  6.97955E+03  2.67623E+03  3.79329E+01  4.36689E+03 -5.56052E+03 -5.50316E+02
 -4.83225E+03 -6.97168E+03 -7.32718E+02 -1.02094E+04  5.17741E+03 -1.04010E+04  1.40138E+04 -5.44921E+03
  1.61488E+04  1.80012E+03  1.12316E+04  9.34923E+03  2.12466E+03  1.33144E+04 -6.49620E+03  1.08034E+04
 -8.86970E+03  3.72348E+03 -4.58991E+03 -1.93952E+03  1.46257E+03 -3.09683E+03  6.19415E+03 -1.39508E+03
  5.25682E+03  5.75395E+03  9.54091E+02  8.72079E+03 -6.26701E+03  7.95646E+03 -1.06464E+04  2.22852E+03
 -6.45573E+03 -6.11366E+03  8.31586E+02 -8.93100E+03  5.15755E+03 -5.06310E+03  5.36418E+03  1.58711E+03
  1.33059E+03  5.78641E+03 -5.39793E+03  7.48670E+03 -8.17208E+03  3.29059E+03 -7.21632E+03 -2.20012E+03
 -4.61928E+03 -9.44001E+03  1.69042E+03 -1.04370E+04  9.71637E+03 -6.86596E+03  1.00546E+04  1.58852E+03
  6.31987E+03  7.61795E+03 -7.58948E+02  1.05953E+04 -7.59772E+03  5.48557E+03 -8.14713E+03 -6.57543E+02
 -7.27261E+03 -7.35198E+03 -1.89381E+03 -7.48832E+03  4.14330E+03 -6.46741E+03  4.99932E+03 -3.97507E+03
  3.80990E+03  1.26876E+03 -1.56603E+02  2.10203E+03 -2.57935E+02 -1.41704E+03  1.11084E+03 -3.58833E+03
  6.58397E+03 -1.77481E+03  8.78088E+03  1.13161E+03  9.72273E+03  5.40364E+03  6.98942E+03  1.22577E+04
 -2.87066E+03  1.34455E+04 -1.18150E+04  1.06353E+04 -1.57017E+04  1.55163E+03 -1.25488E+04 -4.06100E+03
 -6.17879E+03 -9.92980E+03 -7.71072E+02 -8.18749E+03  3.10504E+03 -4.32751E+03  3.35021E+03 -2.87370E+03
  2.06203E+03 -2.05922E+03  2.94227E+03 -2.83938E+03  4.10229E+03 -2.64865E+03  5.22346E+03 -9.19984E+01
  6.73936E+03  2.00342E+03  3.14309E+03  5.48413E+03 -1.46518E+03  5.67821E+03 -7.08466E+03  4.96455E+03
 -8.20462E+03 -9.57203E+02 -4.53818E+03 -5.33555E+03  1.10080E+02 -8.84236E+03  5.39806E+03 -8.94653E+03
  8.35386E+03 -5.37354E+03  1.11171E+04  1.62528E+03  8.18630E+03  7.78995E+03  1.78615E+03  9.48710E+03
 -3.67757E+03  8.99657E+03 -6.16702E+03  3.43251E+03 -3.25683E+03 -1.24783E+03 -1.15199E+03 -1.06880E+03
 -4.81966E+02  1.33737E+02 -1.25711E+03  2.23939E+03 -3.17405E+03  1.57892E+03 -6.65411E+03 -1.00506E+03
 -3.23470E+03 -6.05713E+03  4.50275E+02 -7.97533E+03  4.66437E+03 -7.55327E+03  7.11756E+03 -2.06393E+03
  7.10967E+03  3.67233E+03  3.25080E+03  6.67504E+03 -1.89129E+03  7.70399E+03 -4.90475E+03  5.21864E+03
 -7.01556E+03  1.32806E+03 -5.80878E+03 -4.62258E+03 -8.47160E+02 -5.82819E+03  3.04583E+03 -4.65428E+03
  4.23332E+03 -1.77422E+03  3.15313E+03  9.31000E+02  1.59035E+03  2.72323E+03  6.32822E+02  1.00837E+03
  1.62202E+03  8.43974E+01  1.85299E+03  1.42498E+03  2.10712E+03  3.05587E+03  2.33400E+03  3.75273E+03
 -2.33510E+03  6.03672E+03 -5.33227E+03  6.09698E+03 -6.80375E+03  1.70657E+03 -7.84395E+03 -2.43820E+03
 -4.06072E+03 -6.90356E+03  1.43347E+03 -7.98050E+03  3.80667E+03 -5.25468E+03  5.85767E+03 -1.47748E+03
  5.57581E+03  2.84361E+03  1.37245E+03  4.78037E+03 -2.02624E+03  1.93042E+03 -2.73627E+03 -9.22623E+02
 -1.41698E+03 -2.99482E+03  1.92896E+03 -2.97466E+03  2.77189E+03 -1.57288E+03  2.76558E+03  7.87132E+02
  1.95393E+03  1.70025E+03  8.95322E+02  6.50862E+02 -7.58231E+02  1.03157E+03  2.24379E+03  2.82113E+02
  6.74669E+02 -7.34343E+02  3.20272E+03  9.26091E+02  8.41972E+02  4.02720E+03 -6.38914E+02  5.04861E+03
 -2.99484E+03  2.76099E+03 -3.87400E+03  1.39126E+02 -4.01561E+03 -1.54683E+03 -8.96056E+02 -2.13497E+03
  4.77905E+02 -3.04020E+03  1.98363E+03 -1.19860E+03  1.10577E+03  1.51692E+03 -1.52975E+03  2.31330E+03
 -3.45640E+03  1.78685E+03 -3.23485E+03 -1.59118E+03 -1.79003E+03 -4.73770E+03  1.02976E+03 -3.48307E+03
  1.08325E+03 -2.33019E+03  2.62809E+03  2.67472E+02  2.18008E+03  1.15354E+03  3.59388E+02  2.26143E+03
 -1.74514E+03  6.74846E+02 -1.86839E+03 -1.01987E+03  5.17417E+02 -2.87750E+03  3.55594E+03 -1.80882E+03
  3.59892E+03  1.48197E+02  4.05477E+03  2.32595E+03  1.88782E+03  4.13833E+03 -9.57256E+02  4.19562E+03
 -3.50729E+03  2.14149E+03 -3.52310E+03  2.61837E+02 -1.50857E+03 -2.67104E+03  6.81053E+00 -2.06892E+03
  3.12578E+03 -1.28382E+03  2.16159E+03  1.13641E+03  5.39845E+02  2.88096E+03  5.87974E+01  2.29127E+03
 -7.91011E+02  1.21683E+03 -8.51587E+02  1.40775E+02 -3.89402E+02  1.60701E+03 -8.37145E+02  9.95127E+02
 -1.10183E+03  1.65879E+03 -3.24629E+03  1.29145E+03 -4.39932E+03 -2.08007E+02 -5.10107E+03 -2.37810E+03
 -2.70770E+03 -5.80658E+03  9.31452E+02 -6.43994E+03  3.73541E+03 -5.43337E+03  5.67730E+03 -1.99930E+03
  5.95438E+03  5.31175E+02  3.00872E+03  3.63024E+03  1.28201E+02  4.00221E+03 -1.77043E+03  2.94973E+03
 -2.35351E+03  1.16394E+03 -1.35758E+03 -4.38806E+02 -1.06726E+03 -3.49321E+02 -6.50113E+02 -3.84435E+01
 -8.25492E+02 -4.81183E+01 -1.36788E+03 -3.80208E+02 -1.42970E+01 -1.18063E+03 -8.52246E+02 -1.67096E+03
  2.87089E+03 -1.93457E+03  1.78959E+03 -3.58459E+02  2.80128E+03  1.95647E+03  2.68761E+02  4.52127E+03
 -2.24966E+03  5.07537E+03 -4.65760E+03  2.42175E+03 -4.85004E+03 -2.35539E+02 -4.12523E+03 -3.22120E+03
 -1.91426E+03 -3.65004E+03  8.32649E+02 -3.60768E+03  2.67330E+03 -2.22729E+03  1.72448E+03  4.14341E+01
  1.62159E+03  1.45486E+03 -3.86825E+02  9.34336E+02 -1.01074E+03 -2.33033E+02 -1.33428E+02 -5.95595E+02
  1.21416E+03  2.57503E+02  8.97544E+02  8.50992E+02  7.49628E+02  1.70970E+03  5.62388E+02  2.19916E+03
 -1.71757E+03  1.84647E+03 -2.50425E+03  8.81370E+02 -2.38913E+03 -1.35933E+03 -4.25973E+02 -2.50015E+03
  1.48731E+03 -1.77594E+03  2.84112E+03 -5.58976E+02  2.94070E+03  7.81370E+02  2.14596E+03  2.05792E+03
  7.89300E+02  2.35002E+03 -3.98598E+02  1.61628E+03 -1.89842E+03  1.87210E+03 -1.58158E+03  3.56447E+02
 -8.71890E+02 -2.07708E+02 -8.61609E+02  2.38675E+02 -1.63894E+03  5.61287E+02 -1.70931E+03 -5.59573E+02
 -1.90377E+03 -4.44562E+02 -6.38926E+02 -2.54501E+03  8.92645E+02 -2.84888E+03  2.77861E+03 -8.84657E+02
  2.44000E+03  1.59638E+02  1.08896E+03  1.19800E+03 -5.08571E+02  3.05758E+03 -1.03773E+03  1.38667E+03
