 $NMID ID='MM_0lb_SNR400_11hz_g50_60.RAW', FMTDAT='(8E13.5)'
 TRAMP=1., VOLUME=1. $END
  3.09691E+05  8.27308E+02  3.37804E+05  2.50841E+05  8.48138E+04  3.37542E+05 -1.32667E+05  2.52141E+05
 -1.91438E+05  8.28512E+04 -1.12080E+05 -3.27374E+04  1.67839E+01 -5.08880E+04  5.39053E+04 -3.70344E+02
  3.53634E+04  5.25800E+04 -1.64741E+04  7.63508E+04 -6.16264E+04  6.41581E+04 -8.44474E+04  3.21847E+04
 -8.17893E+04 -1.10820E+04 -5.75238E+04 -5.26087E+04 -1.49696E+04 -7.06213E+04  2.80344E+04 -4.64153E+04
  4.06102E+04  3.93551E+03  1.69460E+04  4.80821E+04 -3.50691E+04  4.82825E+04 -6.80838E+04 -2.03905E+02
 -5.43085E+04 -5.67685E+04 -6.60322E+03 -7.83650E+04  3.42953E+04 -5.57122E+04  4.97637E+04 -1.75505E+04
  4.46189E+04  1.18420E+04  3.24068E+04  2.59246E+04  1.62350E+04  3.03931E+04 -5.18221E+03  2.80062E+04
 -2.20742E+04  1.20707E+04 -1.82473E+04 -5.22765E+03  6.41771E+03 -7.28674E+03  2.38425E+04  1.37862E+04
  7.53028E+03  3.66470E+04 -3.30689E+04  3.64276E+04 -6.51074E+04  2.17754E+03 -5.81667E+04 -4.42458E+04
 -1.19513E+04 -6.49643E+04  4.08040E+04 -4.73096E+04  5.98857E+04 -2.00470E+03  3.54566E+04  3.32065E+04
 -5.45749E+03  3.83110E+04 -3.10622E+04  1.83082E+04 -3.22776E+04 -4.05220E+03 -1.81679E+04 -1.14793E+04
 -9.08648E+03 -1.42025E+04 -6.38079E+02 -1.84742E+04  7.50584E+03 -2.27924E+04  1.58954E+04 -1.30819E+04
  1.05900E+04  5.54166E+03 -9.30344E+03  1.31429E+04 -2.18315E+04 -5.35005E+03 -7.85552E+03 -3.63762E+04
  2.37130E+04 -4.57676E+04  5.10395E+04 -2.08611E+04  4.76514E+04  2.04513E+04  1.69801E+04  4.59127E+04
 -1.61262E+04  3.56904E+04 -2.71151E+04  1.95824E+03 -1.05705E+04 -2.88923E+04  2.11779E+04 -3.58657E+04
  4.33713E+04 -1.00640E+04  3.79188E+04  2.37978E+04  2.02289E+04  4.92375E+04 -9.37990E+03  5.38012E+04
 -3.47362E+04  3.67713E+04 -4.51536E+04  1.08104E+04 -4.51866E+04 -1.81699E+04 -2.52646E+04 -4.07031E+04
  6.89614E+03 -4.08380E+04  3.31717E+04 -1.63698E+04  3.15363E+04  1.10897E+04  4.84229E+03  2.06765E+04
 -1.38651E+04  9.03432E+03 -1.07824E+04 -7.07689E+03  5.91692E+03 -1.11780E+04  1.83211E+04  6.23817E+03
  1.43615E+04  2.24318E+04 -6.13842E+03  2.66080E+04 -2.23476E+04  1.23716E+04 -3.06258E+04 -3.51600E+03
 -2.32817E+04 -1.81401E+04 -1.02119E+04 -2.32224E+04  3.75516E+03 -2.35007E+04  1.88095E+04 -2.13702E+04
  2.95073E+04 -1.34133E+04  3.56869E+04  4.03505E+03  2.59094E+04  2.19892E+04  4.57132E+03  3.94745E+04
 -1.91567E+04  3.25916E+04 -2.89405E+04  1.13526E+04 -2.20421E+04 -9.98429E+03 -4.92385E+03 -1.31415E+04
  4.72196E+02 -1.98233E+03 -5.91053E+03  7.51910E+03 -1.84989E+04  4.93618E+03 -1.93124E+04 -8.38865E+03
 -1.10129E+04 -2.15408E+04  5.41756E+03 -2.53988E+04  1.75584E+04 -1.88054E+04  2.05461E+04 -1.81045E+03
  1.33872E+04  1.51087E+04 -1.19560E+03  2.17726E+04 -1.48949E+04  1.23942E+04 -2.18615E+04 -4.28038E+03
 -1.62291E+04 -1.94716E+04 -2.01603E+03 -2.59318E+04  1.14881E+04 -2.17266E+04  2.16276E+04 -1.15562E+04
  2.05074E+04  1.82135E+02  1.45793E+04  5.52269E+03  8.24274E+03  1.07856E+03  1.12830E+04 -2.34151E+03
  2.03228E+04  2.99963E+03  2.27722E+04  1.67248E+04  1.53392E+04  3.41877E+04 -2.20163E+03  4.00157E+04
 -2.29495E+04  3.33775E+04 -3.78657E+04  1.64758E+04 -3.97967E+04 -3.33083E+03 -3.30077E+04 -2.31874E+04
 -1.30763E+04 -3.23227E+04  1.23654E+04 -2.88927E+04  2.50950E+04 -1.45863E+04  2.12914E+04  7.00218E+03
  7.15282E+03  1.72607E+04 -9.77721E+03  1.45523E+04 -1.85826E+04  2.23512E+03 -1.38186E+04 -1.10370E+04
  2.94893E+02 -1.73234E+04  1.03492E+04 -1.38846E+04  1.20650E+04 -1.11449E+03  3.07123E+03  7.90952E+03
 -8.37645E+03  3.22885E+03 -7.90774E+03 -6.16703E+03 -1.01992E+03 -1.55331E+04  1.13897E+04 -1.73586E+04
  2.00359E+04 -9.60459E+03  2.30334E+04  2.96063E+03  1.99005E+04  1.65488E+04  8.99261E+03  2.47202E+04
 -4.19678E+03  2.74804E+04 -1.73954E+04  1.71070E+04 -2.02688E+04  3.77609E+03 -1.37533E+04 -4.97772E+03
 -6.93086E+03 -6.24086E+03 -3.48069E+02  1.28441E+03 -2.82660E+03  3.06870E+03 -6.91512E+03  4.80160E+03
 -1.17746E+04 -2.52925E+02 -1.28405E+04 -1.05224E+04 -4.76448E+03 -1.77173E+04  5.38631E+03 -1.38684E+04
  1.14621E+04 -6.11814E+03  7.84366E+03  3.37887E+03 -4.58765E+02  5.09125E+03 -6.83710E+03 -1.43782E+02
 -7.06684E+03 -8.99992E+03 -1.45605E+03 -1.31579E+04  7.90783E+03 -1.43680E+04  1.73032E+04 -7.34439E+03
  1.97240E+04  1.87647E+03  1.56094E+04  1.27018E+04  3.49615E+03  1.55921E+04 -8.21698E+03  1.41592E+04
 -1.15056E+04  4.83703E+03 -5.22884E+03 -3.08053E+03  1.91110E+03 -3.92915E+03  7.40975E+03 -1.01299E+03
  6.65103E+03  6.20830E+03  1.23306E+03  1.15700E+04 -7.86526E+03  1.07071E+04 -1.40514E+04  2.60126E+03
 -9.30616E+03 -7.11401E+03  3.03552E+02 -1.17549E+04  7.91604E+03 -5.42893E+03  8.06020E+03  2.67524E+03
  1.91093E+03  7.31302E+03 -7.27412E+03  9.11813E+03 -1.11653E+04  4.04609E+03 -1.18554E+04 -4.06261E+03
 -6.88046E+03 -1.32044E+04  3.05587E+03 -1.47422E+04  1.29512E+04 -9.59389E+03  1.41198E+04  2.87015E+03
  8.60125E+03  1.10671E+04 -1.39071E+03  1.32630E+04 -1.00083E+04  7.39990E+03 -1.08281E+04 -2.05382E+03
 -8.66423E+03 -9.12741E+03 -1.26041E+03 -1.08066E+04  4.87200E+03 -7.99275E+03  6.67721E+03 -3.62606E+03
  4.71309E+03  1.94303E+03 -7.98690E+02  1.48993E+03 -2.28076E+02 -2.23838E+03  1.35891E+03 -5.87806E+03
  9.57454E+03 -3.72816E+03  1.34409E+04  1.61285E+03  1.24236E+04  8.99918E+03  9.14753E+03  1.69738E+04
 -3.96178E+03  1.87768E+04 -1.59696E+04  1.47921E+04 -2.11653E+04  2.46753E+03 -1.65353E+04 -7.35106E+03
 -9.01896E+03 -1.44116E+04 -4.24997E+02 -1.19329E+04  4.49218E+03 -6.29751E+03  3.97781E+03 -4.72881E+03
  3.10821E+03 -2.29090E+03  3.71965E+03 -3.56567E+03  5.46941E+03 -2.84198E+03  6.52330E+03 -1.02853E+03
  8.73765E+03  1.64300E+03  4.75589E+03  7.93484E+03 -1.88703E+03  9.30661E+03 -9.80000E+03  7.00168E+03
 -1.18541E+04 -1.31716E+03 -6.75254E+03 -8.43586E+03 -1.34740E+03 -1.20336E+04  6.60133E+03 -1.25480E+04
  1.34495E+04 -6.45992E+03  1.60578E+04  1.86056E+03  1.03703E+04  1.11279E+04  1.66368E+03  1.46636E+04
 -6.16443E+03  1.19105E+04 -8.53874E+03  4.14864E+03 -5.43924E+03 -1.41773E+03 -2.66256E+03 -1.09282E+03
 -5.60364E+02  1.46635E+02 -2.41699E+03  1.98739E+03 -5.58846E+03  1.46510E+03 -8.64258E+03 -8.19254E+02
 -5.63872E+03 -8.02042E+03  8.15968E+02 -1.13046E+04  7.15140E+03 -1.07245E+04  1.18455E+04 -3.34684E+03
  1.14249E+04  5.89799E+03  4.93694E+03  9.85740E+03 -1.93078E+03  1.20797E+04 -7.92506E+03  7.09993E+03
 -1.09005E+04  9.92280E+02 -8.27056E+03 -7.59168E+03 -1.28216E+03 -9.51558E+03  4.65640E+03 -7.50114E+03
  6.91335E+03 -2.10530E+03  5.60623E+03  1.81717E+03  1.48242E+03  4.41268E+03  1.36510E+03  2.04769E+03
  1.94512E+03  4.68300E+02  3.45545E+03  1.08175E+03  3.21032E+03  4.47937E+03  2.83210E+03  6.67814E+03
 -1.76557E+03  9.02935E+03 -8.26132E+03  1.02323E+04 -1.20419E+04  2.29698E+03 -1.21157E+04 -4.17808E+03
 -5.58236E+03 -1.20542E+04  1.50638E+03 -1.27755E+04  7.13129E+03 -9.03824E+03  9.54889E+03 -2.33938E+03
  7.45046E+03  4.81880E+03  7.95329E+02  6.15945E+03 -3.42569E+03  4.07264E+03 -5.17360E+03 -3.35518E+02
 -2.26080E+03 -5.28972E+03  3.15592E+03 -4.67355E+03  4.37796E+03 -1.76347E+03  4.83239E+03  6.28589E+02
  2.13826E+03  2.35000E+03  1.03821E+03  1.91497E+03 -4.88266E+02  1.70493E+03  1.85785E+03 -2.22610E+02
  2.11079E+03 -7.72507E+02  4.87574E+03  1.98679E+03  2.57029E+03  6.46527E+03 -8.82406E+02  7.76809E+03
 -5.07948E+03  5.61536E+03 -7.47576E+03  1.71263E+03 -6.81468E+03 -3.20452E+03 -2.65552E+03 -4.30536E+03
  5.80358E+02 -3.91716E+03  2.99978E+03 -2.03683E+03  2.44289E+03  1.65263E+03 -1.39624E+03  3.69702E+03
 -4.68641E+03  2.29468E+03 -5.03366E+03 -2.53489E+03 -3.39853E+03 -6.28408E+03  5.49572E+02 -6.50692E+03
  3.17212E+03 -3.86083E+03  4.06894E+03 -2.25855E+02  3.77390E+03  1.00344E+03  6.06168E+02  3.51936E+03
 -1.89798E+03  1.74567E+03 -2.81502E+03 -2.05388E+03  1.80482E+03 -4.43882E+03  5.18475E+03 -3.53420E+03
  6.63143E+03  1.63761E+03  7.09775E+03  4.59006E+03  1.60259E+03  7.77552E+03 -3.57235E+03  7.20081E+03
 -5.65763E+03  2.71237E+03 -5.81168E+03 -1.32496E+03 -3.95755E+03 -4.71701E+03  8.25082E+02 -3.91573E+03
  5.19458E+03 -2.64630E+03  3.71155E+03  2.03328E+03  1.50768E+03  4.28982E+03 -8.24665E+02  4.09970E+03
 -2.15628E+03  2.62850E+03 -1.95393E+03  4.90795E+02 -7.08524E+02  7.73983E+02 -1.22270E+03  1.80882E+03
 -2.24360E+03  2.36703E+03 -5.32586E+03  2.67147E+03 -7.26137E+03  1.01554E+02 -8.10235E+03 -4.93112E+03
 -3.95020E+03 -9.85267E+03  2.37695E+03 -1.07466E+04  6.71217E+03 -8.36300E+03  1.06107E+04 -3.30105E+03
  9.55191E+03  1.99338E+03  6.26072E+03  6.54476E+03 -3.75128E+02  7.13261E+03 -3.25368E+03  4.94877E+03
 -4.53400E+03  1.75893E+03 -2.89412E+03 -3.63264E+02 -1.18609E+03 -1.29848E+03 -6.07856E+02  1.32577E+02
 -9.94381E+02 -6.54754E+01 -1.99737E+03 -4.62733E+02 -4.33857E+02 -1.34073E+03  4.30603E+02 -2.60738E+03
  3.34064E+03 -2.14003E+03  4.58680E+03  2.66297E+02  4.66494E+03  4.72924E+03  1.08422E+03  6.69073E+03
 -3.56309E+03  8.18774E+03 -7.83932E+03  5.09020E+03 -9.07088E+03 -7.66369E+02 -5.82755E+03 -4.79526E+03
 -3.09719E+03 -7.27256E+03  2.09047E+03 -6.53080E+03  4.92732E+03 -3.72976E+03  4.00935E+03  8.32793E+02
  2.75650E+03  2.49000E+03 -3.50663E+02  2.12034E+03 -2.29716E+03 -1.90906E+01  7.16276E+01 -1.74102E+03
  2.52610E+03 -1.34339E+03  2.93438E+03  3.30781E+02  1.42948E+03  3.13140E+03  1.86158E+02  3.43956E+03
 -3.68448E+03  3.51969E+03 -4.07568E+03  6.39860E+02 -4.45005E+03 -3.07167E+03 -4.21963E+02 -6.17902E+03
  2.88898E+03 -4.31692E+03  4.99226E+03 -1.33445E+03  6.54785E+03  1.08030E+03  3.14223E+03  4.69721E+03
  1.59308E+03  4.61619E+03 -1.00155E+03  3.84977E+03 -2.97958E+03  2.52785E+03 -2.09952E+03  4.91046E+01
 -1.03660E+03  3.79049E+02 -1.55597E+03  4.00279E+02 -2.79455E+03  2.54471E+02 -3.50287E+03 -4.92838E+02
 -3.72239E+03 -1.61231E+03 -1.34605E+03 -4.55908E+03  1.65601E+03 -4.23718E+03  4.25289E+03 -2.15510E+03
  4.81111E+03  4.57528E+02  1.57399E+03  3.05353E+03 -3.59569E+02  4.70795E+03 -2.72322E+03  2.64052E+03
