 $NMID ID='MM_0lb_SNR400_8hz_g45_87.RAW', FMTDAT='(8E13.5)'
 TRAMP=1., VOLUME=1. $END
  3.10293E+05  7.28062E+02  3.37702E+05  2.50093E+05  8.55101E+04  3.38931E+05 -1.32695E+05  2.51829E+05
 -1.90695E+05  8.44443E+04 -1.13175E+05 -3.28608E+04 -3.70030E+02 -5.04465E+04  5.34053E+04 -8.72790E+02
  3.64279E+04  5.25705E+04 -1.61068E+04  7.61875E+04 -6.13799E+04  6.38819E+04 -8.56962E+04  3.27732E+04
 -8.24472E+04 -1.15881E+04 -5.76548E+04 -5.24640E+04 -1.54290E+04 -7.00996E+04  2.82359E+04 -4.73359E+04
  4.19037E+04  3.88093E+03  1.74312E+04  4.85366E+04 -3.42618E+04  4.79384E+04 -6.81206E+04  1.48825E+02
 -5.51007E+04 -5.90322E+04 -7.81649E+03 -7.89085E+04  3.49054E+04 -5.64291E+04  4.97794E+04 -1.89673E+04
  4.44334E+04  1.14788E+04  3.37692E+04  2.69222E+04  1.58384E+04  3.06646E+04 -5.72151E+03  2.88316E+04
 -2.23144E+04  1.19866E+04 -1.81612E+04 -5.61200E+03  8.40768E+03 -7.73555E+03  2.39266E+04  1.46484E+04
  6.91424E+03  3.81485E+04 -3.42303E+04  3.75822E+04 -6.57560E+04  1.93386E+03 -5.96504E+04 -4.52454E+04
 -1.26281E+04 -6.57529E+04  4.26906E+04 -4.81685E+04  6.16626E+04 -2.52066E+03  3.68570E+04  3.40796E+04
 -5.28044E+03  3.96380E+04 -3.19917E+04  1.95811E+04 -3.37930E+04 -3.67335E+03 -1.89089E+04 -1.18968E+04
 -9.67717E+03 -1.61181E+04 -6.00463E+02 -1.89143E+04  9.19807E+03 -2.39408E+04  1.61138E+04 -1.25375E+04
  1.00700E+04  5.80502E+03 -1.14087E+04  1.22971E+04 -2.31698E+04 -6.49603E+03 -8.44800E+03 -3.80024E+04
  2.54012E+04 -4.76552E+04  5.22982E+04 -2.09011E+04  4.93886E+04  2.06709E+04  1.79035E+04  4.75151E+04
 -1.63911E+04  3.64424E+04 -2.71782E+04  1.98020E+03 -1.23352E+04 -2.94687E+04  2.17734E+04 -3.72025E+04
  4.42894E+04 -1.10647E+04  4.04417E+04  2.41856E+04  2.15766E+04  5.10491E+04 -7.94722E+03  5.70279E+04
 -3.59664E+04  3.83232E+04 -4.78063E+04  1.16551E+04 -4.78613E+04 -1.92488E+04 -2.56392E+04 -4.22668E+04
  8.46906E+03 -4.24596E+04  3.46266E+04 -1.71762E+04  3.19974E+04  1.12512E+04  4.91946E+03  2.15225E+04
 -1.47553E+04  9.70880E+03 -1.05598E+04 -8.24885E+03  5.48033E+03 -1.14352E+04  1.83806E+04  5.67073E+03
  1.38763E+04  2.24897E+04 -5.17682E+03  2.72934E+04 -2.35765E+04  1.46377E+04 -3.18415E+04 -2.50983E+03
 -2.70784E+04 -1.91989E+04 -1.19476E+04 -2.56760E+04  4.22499E+03 -2.66694E+04  2.01460E+04 -2.31921E+04
  3.22376E+04 -1.40478E+04  3.88244E+04  4.71971E+03  2.78304E+04  2.42629E+04  3.93843E+03  4.14202E+04
 -2.05670E+04  3.45124E+04 -3.06155E+04  1.22114E+04 -2.20791E+04 -9.34747E+03 -4.70262E+03 -1.29282E+04
  1.30361E+03 -1.18890E+03 -8.26088E+03  8.78142E+03 -2.10270E+04  5.67720E+03 -1.97097E+04 -1.00357E+04
 -1.24792E+04 -2.36846E+04  5.95580E+03 -2.82782E+04  1.81329E+04 -2.04013E+04  2.31790E+04 -2.50809E+03
  1.46422E+04  1.69766E+04 -4.37485E+02  2.32364E+04 -1.66523E+04  1.32650E+04 -2.46499E+04 -4.88294E+03
 -1.77945E+04 -2.13134E+04 -2.25828E+03 -2.91643E+04  1.31616E+04 -2.46229E+04  2.30070E+04 -1.20394E+04
  2.21965E+04 -8.40356E+02  1.57182E+04  5.61454E+03  9.19957E+03  1.25252E+03  1.24527E+04 -1.52960E+03
  2.24610E+04  2.89341E+03  2.61382E+04  1.84236E+04  1.86917E+04  3.83365E+04 -1.85200E+03  4.62947E+04
 -2.57692E+04  3.81770E+04 -4.22266E+04  1.94285E+04 -4.62266E+04 -3.65284E+03 -3.72941E+04 -2.65518E+04
 -1.49184E+04 -3.96695E+04  1.34360E+04 -3.35809E+04  2.92025E+04 -1.45384E+04  2.44323E+04  8.57855E+03
  8.70625E+03  2.01746E+04 -1.27470E+04  1.61119E+04 -2.04652E+04  2.99388E+03 -1.55113E+04 -1.34115E+04
 -5.99508E+02 -2.03529E+04  1.09675E+04 -1.46990E+04  1.43903E+04 -1.66259E+03  3.73346E+03  8.78943E+03
 -8.23975E+03  3.48483E+03 -9.65385E+03 -7.25051E+03 -2.42535E+03 -1.91320E+04  1.20780E+04 -2.05738E+04
  2.34270E+04 -1.20690E+04  2.79319E+04  4.23267E+03  2.36515E+04  1.95568E+04  1.12046E+04  3.10465E+04
 -6.05467E+03  3.25771E+04 -2.13507E+04  1.98986E+04 -2.44766E+04  3.91256E+03 -1.59842E+04 -6.09129E+03
 -6.99702E+03 -7.70451E+03 -3.45803E+02 -8.34998E+02 -2.79521E+03  4.37608E+03 -7.57662E+03  5.48505E+03
 -1.51746E+04 -1.20209E+03 -1.53748E+04 -1.18259E+04 -6.16190E+03 -2.02497E+04  6.74960E+03 -1.63939E+04
  1.44013E+04 -6.37066E+03  9.87287E+03  5.04189E+03 -8.10632E+02  5.99347E+03 -8.23736E+03 -8.00098E+01
 -8.56605E+03 -1.06466E+04 -1.89710E+03 -1.51087E+04  9.25634E+03 -1.76189E+04  2.12864E+04 -8.67664E+03
  2.38153E+04  2.69587E+03  1.84462E+04  1.50079E+04  2.77910E+03  1.97437E+04 -1.02695E+04  1.68054E+04
 -1.31249E+04  4.82474E+03 -6.22013E+03 -4.54769E+03  2.23453E+03 -4.90521E+03  8.08967E+03 -1.55704E+03
  7.34912E+03  7.90131E+03  9.10340E+02  1.38807E+04 -9.45053E+03  1.25669E+04 -1.62271E+04  3.64910E+03
 -1.15246E+04 -8.74450E+03  4.09671E+01 -1.44362E+04  8.72889E+03 -8.15751E+03  1.02740E+04  3.15183E+03
  2.37832E+03  9.88014E+03 -8.54802E+03  1.18331E+04 -1.48618E+04  5.06690E+03 -1.57918E+04 -5.53484E+03
 -8.18443E+03 -1.57716E+04  3.64996E+03 -1.87036E+04  1.68678E+04 -1.20470E+04  1.71823E+04  3.27085E+03
  1.07737E+04  1.36612E+04 -1.37606E+03  1.66757E+04 -1.25877E+04  9.85030E+03 -1.35902E+04 -1.38646E+03
 -1.14361E+04 -1.14386E+04 -1.40431E+03 -1.37442E+04  7.39041E+03 -1.00288E+04  8.39162E+03 -3.69931E+03
  5.27354E+03  2.93823E+03 -1.56400E+03  2.45079E+03 -1.13590E+03 -4.54004E+03  2.73921E+03 -7.88953E+03
  1.31421E+04 -5.30112E+03  1.74827E+04  2.85615E+03  1.61933E+04  1.29327E+04  1.08593E+04  2.23680E+04
 -5.38951E+03  2.58137E+04 -2.08433E+04  1.88867E+04 -2.77390E+04  3.86851E+03 -2.18978E+04 -9.85814E+03
 -1.02844E+04 -1.82885E+04 -6.60128E+02 -1.51705E+04  5.61995E+03 -8.92180E+03  4.87990E+03 -5.77942E+03
  4.53337E+03 -3.03882E+03  4.61334E+03 -3.79767E+03  6.23736E+03 -4.40237E+03  8.52968E+03 -1.30838E+03
  1.13617E+04  1.69275E+03  5.92130E+03  1.00910E+04 -2.18509E+03  1.24581E+04 -1.26565E+04  9.52583E+03
 -1.62641E+04 -1.77854E+03 -9.13053E+03 -1.05394E+04 -1.58099E+03 -1.64932E+04  9.67151E+03 -1.69141E+04
  1.85024E+04 -9.06909E+03  2.11350E+04  2.49340E+03  1.48622E+04  1.53661E+04  1.50523E+03  1.91707E+04
 -7.71788E+03  1.48189E+04 -1.24678E+04  4.54435E+03 -8.07873E+03 -1.61203E+03 -3.28028E+03 -1.19207E+03
 -1.83568E+03  1.80538E+01 -1.85979E+03  3.38774E+03 -6.88303E+03  2.71086E+03 -1.05235E+04 -1.90736E+03
 -8.77226E+03 -1.14147E+04 -4.63437E+01 -1.52323E+04  9.26378E+03 -1.48315E+04  1.53081E+04 -4.72045E+03
  1.59352E+04  7.89480E+03  7.32238E+03  1.52156E+04 -2.30373E+03  1.64039E+04 -1.25889E+04  1.08735E+04
 -1.55541E+04 -5.61837E+02 -1.13084E+04 -1.01143E+04 -1.73810E+03 -1.41613E+04  6.75598E+03 -1.01257E+04
  1.06281E+04 -2.76893E+03  7.80201E+03  2.59425E+03  1.65110E+03  5.61143E+03  1.00766E+03  2.77527E+03
  3.43437E+03  7.62891E+02  4.22884E+03  1.61074E+03  4.77341E+03  5.15839E+03  3.58050E+03  7.64459E+03
 -3.05097E+03  1.28459E+04 -1.22830E+04  1.19828E+04 -1.70183E+04  2.99848E+03 -1.78011E+04 -7.44063E+03
 -8.14037E+03 -1.72918E+04  2.17795E+03 -1.77977E+04  1.00147E+04 -1.13261E+04  1.31452E+04 -4.13759E+03
  1.00333E+04  6.54026E+03  2.08312E+03  9.06041E+03 -5.62829E+03  5.63655E+03 -5.67720E+03 -2.06817E+03
 -3.07506E+03 -7.45957E+03  3.19571E+03 -6.97521E+03  6.48580E+03 -4.22013E+03  7.11268E+03  1.53486E+03
  4.81978E+03  2.88011E+03  1.45460E+03  3.40173E+03 -1.16390E+03  1.49822E+03  1.70787E+03 -1.44160E+02
  2.44053E+03 -6.41752E+02  5.70433E+03  2.69006E+03  4.41580E+03  8.00237E+03 -1.40446E+03  1.22851E+04
 -7.99228E+03  8.13213E+03 -1.05248E+04  1.97920E+03 -9.40972E+03 -4.32674E+03 -3.66123E+03 -6.71762E+03
  6.47583E+02 -6.51140E+03  4.18117E+03 -3.06538E+03  4.88948E+03  3.45106E+03 -1.53256E+03  5.40181E+03
 -7.53190E+03  2.96875E+03 -8.08774E+03 -4.07437E+03 -4.01240E+03 -8.64245E+03  1.27417E+03 -1.01770E+04
  5.91741E+03 -5.83067E+03  6.28398E+03 -1.15546E+03  4.67807E+03  2.39338E+03  6.83615E+02  5.50075E+03
 -2.49136E+03  1.32271E+03 -4.73932E+03 -3.47521E+03  2.54865E+03 -6.92939E+03  8.77042E+03 -5.82906E+03
  1.15838E+04  6.64214E+02  1.02056E+04  7.64903E+03  2.44876E+03  1.11287E+04 -4.12082E+03  1.16599E+04
 -8.97742E+03  5.21153E+03 -9.13735E+03 -1.76216E+03 -4.62798E+03 -8.68959E+03  1.67955E+03 -8.76337E+03
  6.57712E+03 -3.13828E+03  5.82974E+03  2.34057E+03  2.48916E+03  5.98038E+03 -1.77805E+03  5.21679E+03
 -2.65884E+03  4.13407E+03 -2.87691E+03  9.92582E+02 -1.77051E+03  1.78395E+03 -2.74089E+03  2.38542E+03
 -3.59674E+03  3.70726E+03 -8.41107E+03  4.47058E+03 -1.16960E+04 -1.47230E+01 -1.25589E+04 -7.63607E+03
 -7.36783E+03 -1.54699E+04  2.74061E+03 -1.82153E+04  1.12635E+04 -1.33623E+04  1.63231E+04 -4.92952E+03
  1.58552E+04  3.55426E+03  9.50445E+03  1.11533E+04  7.76073E+02  1.30441E+04 -4.73326E+03  9.41100E+03
 -6.19295E+03  3.69449E+03 -4.70869E+03 -1.72951E+03 -8.24193E+02 -1.04562E+03 -6.88704E+02 -6.67135E+02
 -1.72569E+03  9.89877E+02 -2.27181E+03 -8.03716E+02 -1.36476E+02 -3.52709E+03  3.19061E+02 -5.06060E+03
  4.61866E+03 -3.45354E+03  6.76713E+03  5.75149E+02  8.21514E+03  6.13193E+03  2.01940E+03  1.26222E+04
 -6.25344E+03  1.39853E+04 -1.25344E+04  7.81169E+03 -1.43256E+04 -1.84093E+03 -1.04275E+04 -9.23683E+03
 -4.05854E+03 -1.17812E+04  2.59348E+03 -1.16761E+04  7.59794E+03 -6.82481E+03  7.77652E+03  1.91361E+02
  4.11058E+03  2.95468E+03 -1.05045E+03  3.45891E+03 -2.51249E+03  7.58792E+01  3.61429E+02 -3.05612E+03
  3.60184E+03 -1.92685E+03  4.90074E+03  1.15511E+03  2.98658E+03  4.02276E+03 -2.45357E+02  6.67096E+03
 -4.89073E+03  4.62651E+03 -8.43894E+03 -1.15168E+02 -7.24720E+03 -6.20159E+03 -1.18162E+03 -9.94383E+03
  6.32373E+03 -7.69948E+03  9.59842E+03 -2.33511E+03  9.85985E+03  2.83007E+03  4.96751E+03  7.72618E+03
  6.35727E+02  8.26172E+03 -2.58029E+03  6.76079E+03 -5.88356E+03  3.00479E+03 -3.44988E+03  5.66093E+01
 -2.58098E+03 -1.65736E+02 -2.48664E+03  1.21255E+03 -4.12158E+03  1.76368E+03 -6.32319E+03 -1.77258E+03
 -5.88601E+03 -4.67474E+03 -1.71300E+03 -8.51986E+03  4.00073E+03 -8.72782E+03  8.38457E+03 -4.33346E+03
  8.09570E+03  1.42770E+03  4.55195E+03  6.10557E+03 -5.50028E+02  8.37059E+03 -6.46759E+03  4.88120E+03
