 $NMID ID='MM_0lb_SNR400_11hz_g50_40.RAW', FMTDAT='(8E13.5)'
 TRAMP=1., VOLUME=1. $END
  3.09212E+05  4.00262E+01  3.37568E+05  2.50484E+05  8.60362E+04  3.38855E+05 -1.32975E+05  2.52351E+05
 -1.90836E+05  8.43264E+04 -1.12272E+05 -3.30937E+04  9.46345E+02 -5.02752E+04  5.39248E+04 -9.71738E+02
  3.43812E+04  5.22709E+04 -1.68210E+04  7.58563E+04 -6.07435E+04  6.41710E+04 -8.47802E+04  3.25618E+04
 -8.19846E+04 -1.13022E+04 -5.75695E+04 -5.20922E+04 -1.53832E+04 -6.99719E+04  2.74865E+04 -4.67846E+04
  4.11217E+04  3.60787E+03  1.64581E+04  4.85144E+04 -3.52282E+04  4.75391E+04 -6.74845E+04 -3.70475E+02
 -5.40971E+04 -5.76703E+04 -7.22027E+03 -7.84477E+04  3.43768E+04 -5.55905E+04  4.92267E+04 -1.90106E+04
  4.39147E+04  1.18054E+04  3.22550E+04  2.66767E+04  1.49115E+04  3.04640E+04 -5.32889E+03  2.76691E+04
 -2.14862E+04  1.27584E+04 -1.86782E+04 -5.82973E+03  6.84411E+03 -7.80499E+03  2.37966E+04  1.32156E+04
  6.94122E+03  3.64967E+04 -3.29071E+04  3.57484E+04 -6.45725E+04  2.25434E+03 -5.81539E+04 -4.35221E+04
 -1.27721E+04 -6.50756E+04  4.08730E+04 -4.67712E+04  6.00288E+04 -3.06183E+03  3.59398E+04  3.39054E+04
 -6.40916E+03  3.85304E+04 -3.08906E+04  1.78780E+04 -3.25418E+04 -4.29647E+03 -1.83967E+04 -1.21644E+04
 -8.75446E+03 -1.48987E+04 -4.97528E+02 -1.85078E+04  8.36199E+03 -2.39253E+04  1.48814E+04 -1.35680E+04
  1.12030E+04  6.33374E+03 -9.53638E+03  1.24341E+04 -2.27938E+04 -5.74638E+03 -8.22863E+03 -3.54962E+04
  2.39655E+04 -4.60702E+04  5.01205E+04 -2.08385E+04  4.74505E+04  2.02972E+04  1.72755E+04  4.52812E+04
 -1.61593E+04  3.45555E+04 -2.66027E+04  2.38908E+03 -1.10114E+04 -2.87733E+04  2.21509E+04 -3.58126E+04
  4.34698E+04 -1.04728E+04  3.87835E+04  2.46983E+04  2.05009E+04  4.96765E+04 -7.95360E+03  5.39122E+04
 -3.42111E+04  3.65420E+04 -4.52710E+04  1.07071E+04 -4.49271E+04 -1.73947E+04 -2.49552E+04 -4.12360E+04
  7.57335E+03 -4.03608E+04  3.31990E+04 -1.64244E+04  3.10136E+04  1.05268E+04  4.84004E+03  2.06927E+04
 -1.37045E+04  9.24299E+03 -1.03296E+04 -7.45724E+03  5.06754E+03 -1.17547E+04  1.85317E+04  5.22319E+03
  1.39680E+04  2.27301E+04 -5.46500E+03  2.59540E+04 -2.40119E+04  1.35138E+04 -2.95673E+04 -3.61755E+03
 -2.37525E+04 -1.81097E+04 -1.07736E+04 -2.35869E+04  4.07470E+03 -2.30456E+04  1.78882E+04 -2.10931E+04
  3.01036E+04 -1.33699E+04  3.57179E+04  4.04147E+03  2.64324E+04  2.26085E+04  4.19172E+03  3.92054E+04
 -1.96641E+04  3.26671E+04 -2.98191E+04  1.13036E+04 -2.23730E+04 -1.04043E+04 -4.75991E+03 -1.29211E+04
  1.16552E+03 -1.98951E+03 -7.42918E+03  8.07057E+03 -1.84456E+04  4.34940E+03 -1.81606E+04 -8.59831E+03
 -1.15255E+04 -2.13499E+04  6.41647E+03 -2.51552E+04  1.76357E+04 -1.84074E+04  2.06772E+04 -1.91351E+03
  1.34735E+04  1.52281E+04 -1.50386E+03  2.13962E+04 -1.49137E+04  1.24245E+04 -2.13745E+04 -4.31693E+03
 -1.61972E+04 -1.91175E+04 -2.03821E+03 -2.62679E+04  1.21897E+04 -2.14731E+04  2.12519E+04 -1.02532E+04
  1.96625E+04 -1.13099E+02  1.45238E+04  5.07133E+03  8.08784E+03  5.44023E+02  1.06309E+04 -1.84940E+03
  2.06323E+04  2.44533E+03  2.32954E+04  1.62374E+04  1.44333E+04  3.43395E+04 -2.54386E+03  4.00168E+04
 -2.33365E+04  3.32230E+04 -3.87392E+04  1.70784E+04 -3.93351E+04 -2.53055E+03 -3.33935E+04 -2.30600E+04
 -1.33803E+04 -3.31018E+04  1.17976E+04 -2.92890E+04  2.66156E+04 -1.38266E+04  2.21674E+04  6.81243E+03
  7.50127E+03  1.73861E+04 -1.05268E+04  1.43066E+04 -1.75381E+04  2.19973E+03 -1.47060E+04 -1.12486E+04
 -1.81878E+02 -1.73903E+04  9.16762E+03 -1.36780E+04  1.22136E+04 -1.11603E+03  3.23676E+03  8.41168E+03
 -7.72831E+03  2.84570E+03 -7.77434E+03 -6.79176E+03 -1.46743E+03 -1.57661E+04  1.02946E+04 -1.78879E+04
  2.06631E+04 -8.78612E+03  2.30545E+04  3.34386E+03  1.94009E+04  1.61765E+04  8.92356E+03  2.60170E+04
 -5.03451E+03  2.70641E+04 -1.75094E+04  1.79613E+04 -1.94866E+04  4.03149E+03 -1.41528E+04 -5.10256E+03
 -5.70062E+03 -6.03768E+03 -1.22029E+03  7.50355E+02 -3.05557E+03  2.61959E+03 -6.57443E+03  3.98433E+03
 -1.31538E+04 -5.00554E+02 -1.33679E+04 -1.04509E+04 -4.87402E+03 -1.71755E+04  5.34414E+03 -1.37080E+04
  1.19206E+04 -5.78044E+03  7.97556E+03  3.62801E+03  1.57507E+02  5.25690E+03 -6.77495E+03 -7.47768E+02
 -6.48434E+03 -8.37379E+03 -7.23981E+02 -1.34176E+04  7.93358E+03 -1.42110E+04  1.78384E+04 -8.01814E+03
  2.06378E+04  2.00109E+03  1.46147E+04  1.25461E+04  2.60106E+03  1.62288E+04 -8.30399E+03  1.33073E+04
 -1.10886E+04  4.08454E+03 -6.00303E+03 -2.96721E+03  1.94044E+03 -3.50306E+03  6.86102E+03 -1.10044E+03
  6.66185E+03  6.85218E+03  1.29142E+03  1.10962E+04 -7.64555E+03  1.07545E+04 -1.41691E+04  2.46524E+03
 -9.30912E+03 -7.05590E+03  2.51836E+02 -1.14731E+04  6.72452E+03 -5.98379E+03  8.00489E+03  2.61994E+03
  1.63883E+03  7.50090E+03 -6.94399E+03  9.44762E+03 -1.15424E+04  4.73586E+03 -1.11861E+04 -3.24302E+03
 -6.42070E+03 -1.29700E+04  3.16290E+03 -1.51341E+04  1.34251E+04 -8.92105E+03  1.37927E+04  1.63912E+03
  9.07393E+03  1.07290E+04 -1.09146E+03  1.35370E+04 -9.54928E+03  7.81817E+03 -1.01307E+04 -8.73069E+02
 -9.57874E+03 -9.07243E+03 -2.25236E+03 -9.94617E+03  4.64840E+03 -8.58011E+03  6.67777E+03 -3.08217E+03
  4.12815E+03  1.24120E+03 -7.95288E+02  2.05967E+03 -4.60183E+01 -1.77989E+03  1.53768E+03 -5.95128E+03
  9.47535E+03 -3.78653E+03  1.32460E+04  1.27542E+03  1.27092E+04  9.00880E+03  8.82862E+03  1.73179E+04
 -4.02663E+03  1.95072E+04 -1.63014E+04  1.47893E+04 -2.20601E+04  2.17133E+03 -1.68560E+04 -7.20897E+03
 -8.06405E+03 -1.38312E+04 -2.17026E+02 -1.16980E+04  4.88963E+03 -6.50310E+03  4.61278E+03 -4.53206E+03
  2.87015E+03 -2.53922E+03  3.73765E+03 -3.68303E+03  4.92958E+03 -3.08796E+03  7.05502E+03 -1.22387E+03
  9.57283E+03  1.45695E+03  4.60097E+03  7.84072E+03 -2.81160E+03  8.29732E+03 -9.84171E+03  6.45587E+03
 -1.22065E+04 -1.21120E+03 -7.42349E+03 -8.34417E+03 -1.20892E+03 -1.28574E+04  7.04778E+03 -1.29150E+04
  1.32732E+04 -7.32152E+03  1.58822E+04  2.01680E+03  1.11119E+04  1.15066E+04  1.78971E+03  1.45689E+04
 -6.01961E+03  1.29045E+04 -8.59105E+03  3.38946E+03 -6.13684E+03 -1.19227E+03 -2.42311E+03 -2.36256E+03
 -7.96113E+02  6.58180E+02 -2.37154E+03  2.91410E+03 -5.68583E+03  2.17065E+03 -9.33879E+03 -5.69842E+02
 -5.88371E+03 -8.41984E+03  1.48003E+02 -1.23376E+04  7.57340E+03 -1.04141E+04  1.12605E+04 -3.00101E+03
  1.16743E+04  5.59487E+03  5.05748E+03  1.03166E+04 -2.68038E+03  1.18469E+04 -8.20985E+03  7.11376E+03
 -1.05224E+04  6.26502E+02 -8.80047E+03 -7.26961E+03 -6.58962E+02 -8.87641E+03  5.64720E+03 -7.55050E+03
  8.42822E+03 -2.24313E+03  4.63865E+03  1.14448E+03  1.69475E+03  3.70094E+03  2.26135E+03  1.35767E+03
  2.28491E+03  6.20795E+02  2.30245E+03  1.71132E+03  3.70602E+03  4.59928E+03  2.73465E+03  6.05201E+03
 -2.48411E+03  9.40100E+03 -8.00566E+03  9.73119E+03 -1.22449E+04  2.72389E+03 -1.18532E+04 -4.86183E+03
 -5.70378E+03 -1.16409E+04  1.43994E+03 -1.27533E+04  6.80544E+03 -8.07880E+03  8.34557E+03 -1.99453E+03
  7.55090E+03  5.03565E+03  1.35516E+03  6.35918E+03 -3.28794E+03  4.35523E+03 -4.81167E+03 -1.14033E+02
 -2.74358E+03 -5.16700E+03  2.72008E+03 -5.33796E+03  4.94370E+03 -2.37730E+03  4.77167E+03  1.05578E+03
  2.91394E+03  2.22699E+03  1.36999E+03  2.14514E+03 -1.28426E+03  1.66533E+03  1.85878E+03 -1.58258E+01
  1.22746E+03 -1.03253E+03  4.57024E+03  1.75861E+03  1.62700E+03  5.74796E+03 -8.65520E+02  7.57339E+03
 -5.68174E+03  4.36169E+03 -7.87693E+03  1.51954E+03 -6.35357E+03 -2.20341E+03 -2.51440E+03 -4.16930E+03
  8.23355E+02 -4.80831E+03  3.41088E+03 -2.38441E+03  2.04193E+03  2.53624E+03 -8.98439E+02  4.38586E+03
 -4.99357E+03  2.96899E+03 -4.84798E+03 -2.61942E+03 -1.95411E+03 -6.97678E+03  9.07313E+02 -5.64042E+03
  3.60229E+03 -3.63006E+03  4.64556E+03  1.67105E+02  3.78578E+03  8.36152E+02  5.61140E+02  3.88588E+03
 -1.77972E+03  1.23087E+03 -3.32847E+03 -1.87063E+03  7.25196E+02 -4.29744E+03  4.66681E+03 -3.02255E+03
  7.24289E+03  4.83193E+02  7.39244E+03  5.00241E+03  2.21030E+03  6.90476E+03 -3.24486E+03  7.15857E+03
 -6.12547E+03  2.86990E+03 -6.45268E+03 -9.73202E+02 -3.44720E+03 -4.23122E+03 -2.29701E+01 -4.26702E+03
  5.05293E+03 -2.47177E+03  3.82292E+03  1.52410E+03  1.15833E+03  3.95438E+03 -1.11449E+03  3.29081E+03
 -2.44384E+03  2.82530E+03 -1.73563E+03  4.25212E+02 -9.48637E+02  4.79497E+01 -1.27292E+03  1.37526E+03
 -2.11145E+03  3.60879E+03 -5.22518E+03  2.21259E+03 -6.53206E+03  5.87212E+02 -8.35120E+03 -4.52844E+03
 -3.68283E+03 -9.58253E+03  2.01177E+03 -1.09027E+04  6.42381E+03 -9.14812E+03  1.06169E+04 -3.54913E+03
  9.48232E+03  1.84472E+03  5.54447E+03  6.88951E+03  3.21968E+02  6.74446E+03 -3.34777E+03  5.51393E+03
 -4.01563E+03  2.56765E+03 -2.74304E+03 -8.01964E+02 -1.16336E+03 -4.07597E+02 -5.43552E+02 -4.60757E+02
 -1.63615E+03 -7.12353E+02 -1.93993E+03  3.05291E+02 -5.12466E+02 -2.62469E+03 -1.07629E+02 -2.68597E+03
  3.04277E+03 -2.32113E+03  4.27652E+03  1.81573E+02  5.07235E+03  3.78434E+03  1.58981E+03  7.21173E+03
 -3.03427E+03  7.95774E+03 -7.01626E+03  4.66767E+03 -8.91408E+03 -1.34744E+03 -6.28847E+03 -5.74082E+03
 -2.74089E+03 -7.82203E+03  2.35171E+03 -7.45905E+03  4.67548E+03 -3.10080E+03  4.57260E+03 -4.95932E+01
  2.13216E+03  2.57642E+03 -1.63106E+01  1.77505E+03 -1.07078E+03 -3.13750E+02  2.27598E+02 -2.14615E+03
  2.02322E+03 -4.81432E+02  2.78676E+03  1.23991E+03  1.63273E+03  2.72797E+03  2.54550E+02  3.44396E+03
 -3.68296E+03  2.74665E+03 -5.02565E+03  4.21636E+02 -4.87847E+03 -3.96700E+03 -2.84862E+02 -5.89637E+03
  2.96606E+03 -5.28248E+03  5.65442E+03 -1.19941E+03  5.80460E+03  1.37495E+03  2.95860E+03  4.31062E+03
  6.92133E+02  4.65091E+03 -1.94066E+03  3.93130E+03 -3.06320E+03  2.12108E+03 -2.01017E+03  7.12784E+02
 -8.71324E+02  1.19937E+02 -2.01007E+03  5.82514E+02 -2.93788E+03  1.19250E+03 -3.70405E+03 -6.03694E+02
 -3.79154E+03 -2.59479E+03 -2.02311E+03 -4.67689E+03  1.89848E+03 -4.59292E+03  3.60247E+03 -2.11827E+03
  4.66266E+03 -3.90386E+02  2.67634E+03  3.09609E+03 -3.03981E+02  3.96728E+03 -2.86412E+03  3.30712E+03
