 $NMID ID='MM_0lb_SNR400_15hz_g50_25.RAW', FMTDAT='(8E13.5)'
 TRAMP=1., VOLUME=1. $END
  3.09959E+05  3.19471E+02  3.37542E+05  2.50775E+05  8.43740E+04  3.37620E+05 -1.32483E+05  2.51271E+05
 -1.90164E+05  8.26692E+04 -1.11823E+05 -3.29150E+04  3.98482E+02 -5.06421E+04  5.43539E+04 -5.27117E+02
  3.55355E+04  5.29122E+04 -1.69780E+04  7.52809E+04 -6.07155E+04  6.38292E+04 -8.40498E+04  3.14171E+04
 -8.13136E+04 -1.10063E+04 -5.71825E+04 -5.05871E+04 -1.52374E+04 -6.94829E+04  2.72809E+04 -4.57771E+04
  3.96846E+04  4.52000E+03  1.60685E+04  4.74548E+04 -3.35449E+04  4.72399E+04 -6.68724E+04 -5.93873E+02
 -5.32424E+04 -5.68857E+04 -6.57618E+03 -7.71782E+04  3.33935E+04 -5.45048E+04  4.74080E+04 -1.67597E+04
  4.32639E+04  1.18137E+04  3.22843E+04  2.53479E+04  1.56946E+04  2.95064E+04 -4.18301E+03  2.73907E+04
 -2.18541E+04  1.22553E+04 -1.87257E+04 -5.06224E+03  5.01933E+03 -7.03629E+03  2.19327E+04  1.16422E+04
  8.02084E+03  3.51641E+04 -3.14122E+04  3.43679E+04 -6.32707E+04  2.31168E+03 -5.72003E+04 -4.22437E+04
 -1.27783E+04 -6.26966E+04  3.92452E+04 -4.46797E+04  5.75868E+04 -1.92140E+03  3.42565E+04  3.21618E+04
 -6.30915E+03  3.59694E+04 -2.92510E+04  1.56931E+04 -2.96125E+04 -4.34533E+03 -1.62412E+04 -1.08831E+04
 -8.39746E+03 -1.25959E+04 -1.06023E+03 -1.81198E+04  7.11442E+03 -2.27905E+04  1.54627E+04 -1.38353E+04
  1.16267E+04  5.17048E+03 -7.99306E+03  1.34434E+04 -2.10655E+04 -4.63060E+03 -8.25389E+03 -3.32562E+04
  2.25664E+04 -4.25144E+04  4.79211E+04 -1.97348E+04  4.48331E+04  1.92722E+04  1.50795E+04  4.41747E+04
 -1.55948E+04  3.28237E+04 -2.48744E+04  1.83867E+03 -9.39851E+03 -2.72835E+04  2.04598E+04 -3.32110E+04
  4.01832E+04 -8.92170E+03  3.51922E+04  2.29434E+04  1.74561E+04  4.57713E+04 -8.40091E+03  4.97638E+04
 -3.17293E+04  3.28424E+04 -4.09823E+04  9.20339E+03 -4.16723E+04 -1.63863E+04 -2.35548E+04 -3.72689E+04
  6.65230E+03 -3.79068E+04  3.09840E+04 -1.47393E+04  2.80410E+04  1.09542E+04  3.79746E+03  1.89027E+04
 -1.38436E+04  8.37029E+03 -1.03842E+04 -7.57382E+03  5.62476E+03 -1.04105E+04  1.73924E+04  6.49981E+03
  1.29334E+04  2.21931E+04 -5.70570E+03  2.46400E+04 -2.18506E+04  1.15964E+04 -2.68587E+04 -4.62633E+03
 -1.96858E+04 -1.72406E+04 -8.55378E+03 -1.98747E+04  4.18475E+03 -1.86392E+04  1.53494E+04 -1.77388E+04
  2.54446E+04 -1.24907E+04  3.17119E+04  2.32151E+03  2.41237E+04  1.99450E+04  3.72934E+03  3.55402E+04
 -1.78451E+04  3.01820E+04 -2.76620E+04  1.02779E+04 -2.08823E+04 -1.07273E+04 -4.90240E+03 -1.34280E+04
  2.22523E+03 -2.97174E+03 -4.97203E+03  6.22424E+03 -1.62965E+04  5.27272E+03 -1.56980E+04 -6.49534E+03
 -9.76522E+03 -1.89869E+04  4.75661E+03 -2.26237E+04  1.50511E+04 -1.58706E+04  1.70594E+04 -1.72945E+03
  1.08078E+04  1.26167E+04 -1.19785E+03  1.84425E+04 -1.24178E+04  1.04466E+04 -1.79986E+04 -3.91408E+03
 -1.46213E+04 -1.60768E+04 -2.07619E+03 -2.21456E+04  1.05994E+04 -1.80214E+04  1.86352E+04 -8.99553E+03
  1.72212E+04  5.69992E+02  1.24548E+04  4.24450E+03  6.45961E+03  5.64388E+02  9.41345E+03 -1.58561E+03
  1.62015E+04  3.07180E+03  1.85386E+04  1.45813E+04  1.18281E+04  2.95637E+04 -2.76844E+03  3.29260E+04
 -1.89807E+04  2.61756E+04 -3.03847E+04  1.28398E+04 -3.21020E+04 -2.34691E+03 -2.55358E+04 -1.81093E+04
 -1.11485E+04 -2.60284E+04  8.91009E+03 -2.40652E+04  2.07944E+04 -1.24942E+04  1.80752E+04  5.19416E+03
  7.25772E+03  1.44239E+04 -8.71905E+03  1.26404E+04 -1.55579E+04  2.47886E+03 -1.21376E+04 -1.00042E+04
 -1.82245E+02 -1.51775E+04  7.57193E+03 -1.16228E+04  9.57080E+03 -1.41286E+03  2.07024E+03  6.00994E+03
 -6.42941E+03  2.30564E+03 -5.79196E+03 -4.80514E+03 -1.55729E+02 -1.30602E+04  9.52490E+03 -1.34654E+04
  1.58627E+04 -7.03562E+03  1.67245E+04  2.57462E+03  1.45511E+04  1.27794E+04  6.42013E+03  1.87704E+04
 -3.27618E+03  2.07796E+04 -1.29948E+04  1.37715E+04 -1.52113E+04  3.27966E+03 -1.06988E+04 -3.16416E+03
 -4.89163E+03 -3.84252E+03 -5.73752E+02  1.40249E+03 -2.64208E+03  2.34944E+03 -4.26574E+03  4.23559E+03
 -1.03419E+04 -1.00984E+03 -1.09609E+04 -8.17921E+03 -4.43096E+03 -1.43235E+04  4.21985E+03 -1.03127E+04
  8.75642E+03 -5.05965E+03  6.41227E+03  3.16021E+03 -1.16569E+02  3.94971E+03 -5.13826E+03  1.94450E+02
 -4.91776E+03 -6.66597E+03 -6.59474E+02 -9.70110E+03  5.79836E+03 -1.08568E+04  1.27524E+04 -5.31735E+03
  1.57864E+04  1.38736E+03  1.16848E+04  8.64175E+03  2.12818E+03  1.16684E+04 -6.55637E+03  1.01142E+04
 -8.33806E+03  3.13871E+03 -4.55156E+03 -1.49010E+03  1.54094E+03 -2.21303E+03  5.78899E+03 -6.91434E+02
  5.76648E+03  4.64305E+03  1.13414E+03  8.23727E+03 -5.84101E+03  7.83933E+03 -1.02279E+04  2.61717E+03
 -6.99490E+03 -5.41324E+03  1.55767E+02 -8.99196E+03  5.18885E+03 -4.59435E+03  4.66669E+03  1.44761E+03
  5.48090E+02  5.29697E+03 -5.09754E+03  6.41914E+03 -7.38346E+03  3.41195E+03 -7.49106E+03 -1.98501E+03
 -4.18581E+03 -9.02224E+03  2.41859E+03 -1.10085E+04  8.81978E+03 -6.25747E+03  9.84369E+03  1.35609E+03
  5.66175E+03  7.97684E+03 -1.48649E+02  9.43645E+03 -7.48012E+03  5.99879E+03 -7.07244E+03 -1.72719E+02
 -7.15759E+03 -6.68334E+03 -9.51376E+02 -7.41459E+03  4.28567E+03 -6.09322E+03  3.92200E+03 -3.44038E+03
  3.45992E+03  4.02876E+02  8.08245E+02  1.60008E+03  4.11153E+02 -9.75136E+02  7.65026E+02 -3.26589E+03
  6.19843E+03 -1.81320E+03  8.98942E+03  1.32637E+03  8.08658E+03  5.11176E+03  6.41268E+03  1.09408E+04
 -2.64343E+03  1.32214E+04 -1.15025E+04  9.40621E+03 -1.45714E+04  1.81050E+03 -1.12926E+04 -4.06973E+03
 -5.65574E+03 -9.75363E+03  1.55013E+02 -7.35855E+03  3.26375E+03 -3.77652E+03  2.58681E+03 -3.11441E+03
  1.75092E+03 -2.32646E+03  2.71275E+03 -3.18454E+03  4.28627E+03 -1.63439E+03  4.66108E+03 -4.13025E+02
  6.83167E+03  1.06508E+03  2.76062E+03  4.53889E+03 -1.28095E+03  5.16793E+03 -6.24224E+03  3.68301E+03
 -8.10984E+03 -7.02822E+02 -4.19509E+03 -4.88895E+03 -5.52235E+02 -7.29986E+03  4.78441E+03 -7.88141E+03
  8.22263E+03 -4.81496E+03  1.01595E+04  5.92786E+02  7.07906E+03  7.15289E+03  1.28305E+03  9.20553E+03
 -3.07959E+03  8.28069E+03 -5.62647E+03  2.82635E+03 -3.38075E+03 -1.06427E+03 -1.30643E+03 -1.48558E+03
 -1.02147E+03  9.26896E+02 -6.82226E+02  2.53316E+03 -3.43581E+03  1.87648E+03 -5.90559E+03 -1.06343E+03
 -2.76966E+03 -4.98301E+03  7.04954E+01 -7.40863E+03  4.14188E+03 -7.01320E+03  6.09679E+03 -1.71685E+03
  6.81626E+03  3.88340E+03  3.11480E+03  5.70846E+03 -1.36796E+03  6.80051E+03 -4.42570E+03  4.75159E+03
 -6.65983E+03  1.20305E+03 -5.56921E+03 -3.99403E+03 -5.24246E+02 -5.43285E+03  3.15431E+03 -4.24294E+03
  3.76299E+03 -1.60940E+03  3.10129E+03  1.47534E+03  1.27633E+03  2.42481E+03  1.25877E+03  8.13091E+02
  1.50868E+03  8.70391E+02  2.03892E+03  1.73484E+03  1.60402E+03  2.48968E+03  1.98796E+03  3.77171E+03
 -1.98787E+03  5.67240E+03 -4.57038E+03  6.14424E+03 -6.77292E+03  1.47168E+03 -7.42989E+03 -2.02051E+03
 -3.52654E+03 -6.87043E+03  1.27382E+03 -6.94760E+03  3.65147E+03 -4.45843E+03  4.97768E+03 -8.40108E+02
  4.36064E+03  2.61343E+03  1.55997E+03  3.46715E+03 -1.22630E+03  2.65196E+03 -2.74109E+03 -9.05273E+02
 -1.75050E+03 -2.21211E+03  1.81361E+03 -2.84717E+03  2.53259E+03 -1.65806E+03  2.13693E+03  1.10891E+03
  1.20852E+03  8.27443E+02  1.12223E+03  3.27574E+02 -7.82544E+02  5.18009E+02  1.40821E+03 -2.87309E+02
  8.74922E+02 -8.73515E+02  2.78031E+03  9.68260E+02  7.13721E+02  3.31430E+03 -9.30030E+02  4.80709E+03
 -2.94151E+03  2.51402E+03 -3.42455E+03  1.06938E+03 -3.85601E+03 -1.72258E+03 -1.25204E+03 -1.80485E+03
  9.43947E+02 -2.29984E+03  1.00856E+03 -1.44887E+03  1.76254E+03  1.21671E+03 -7.84935E+02  2.66499E+03
 -2.60736E+03  1.72400E+03 -2.75937E+03 -1.57322E+03 -1.38834E+03 -3.86918E+03  1.98146E+01 -3.56133E+03
  1.41497E+03 -1.55751E+03  2.04564E+03 -5.49621E+02  2.11048E+03  1.55055E+02  4.29048E+02  2.20339E+03
 -7.53376E+02  5.37386E+02 -1.72490E+03 -1.47061E+03  4.48996E+02 -1.83893E+03  3.04629E+03 -2.07835E+03
  3.13559E+03 -1.95423E+02  4.35428E+03  2.01973E+03  1.68634E+03  3.80958E+03 -1.01793E+03  3.74035E+03
 -2.38409E+03  1.06174E+03 -2.82112E+03 -3.65539E+02 -1.34414E+03 -1.79619E+03  6.02854E+02 -1.59377E+03
  2.32165E+03 -1.57606E+03  1.71540E+03  8.13113E+02 -1.54522E+02  2.10998E+03  5.73324E+02  1.42766E+03
 -8.19979E+02  1.14919E+03 -6.53786E+02  3.08489E+02 -3.61951E+02  6.35325E+02 -8.91368E+02  6.99320E+02
 -1.30256E+03  2.05754E+03 -3.17871E+03  9.48274E+02 -3.59078E+03  7.64365E+02 -4.31347E+03 -2.16248E+03
 -1.75211E+03 -4.87470E+03  9.97466E+02 -5.54298E+03  2.40313E+03 -4.25667E+03  5.20037E+03 -2.27050E+03
  4.86670E+03  4.77646E+02  2.70686E+03  3.04862E+03 -3.71849E+02  2.90986E+03 -1.80212E+03  2.30200E+03
 -1.40531E+03  1.57292E+03 -1.31770E+03 -4.26979E+02 -6.52981E+02 -7.52956E+02 -3.21854E+02 -1.50116E+02
 -1.30983E+03  4.40063E+02 -1.44529E+03  8.63433E+01 -5.23945E+02 -7.48040E+02 -2.09720E+02 -8.49991E+02
  1.51566E+03 -1.13354E+03  9.94484E+02  3.60445E+02  1.52372E+03  2.05520E+03 -2.03444E+02  3.17737E+03
 -8.77016E+02  4.03864E+03 -3.50247E+03  1.89675E+03 -4.35222E+03 -3.55701E+02 -2.49120E+03 -2.46534E+03
 -1.56352E+03 -3.19924E+03  9.83471E+02 -3.07132E+03  1.49316E+03 -1.92827E+03  2.37301E+03  3.44692E+01
  1.69932E+03  1.24103E+03 -4.00338E+02  3.57241E+02 -4.43815E+02 -2.62008E+01  1.62255E+02 -2.22508E+02
  7.90799E+02  2.60909E+01  9.86957E+02  7.87407E+01  6.38308E+02  1.15433E+03  3.07979E+02  1.54999E+03
 -1.65015E+03  8.59709E+02 -1.72818E+03 -3.67637E+02 -1.33465E+03 -7.51607E+02 -2.02119E+02 -2.40256E+03
  1.46569E+03 -1.80265E+03  1.53783E+03 -1.75074E+02  2.38205E+03 -1.72143E+02  1.03231E+03  1.68387E+03
  3.94828E+02  1.43873E+03 -1.07036E+03  1.66480E+03 -6.62053E+02  1.33760E+03 -7.59587E+02  3.68169E+02
  1.28444E+02 -3.25281E+02 -3.15448E+02  3.90627E+02 -1.23874E+03  6.71599E+02 -1.65172E+03 -8.91883E+02
 -2.15213E+03  4.40907E+01 -2.53799E+02 -2.37469E+03  5.79638E+02 -2.37775E+03  1.42226E+03 -8.50976E+02
  2.21460E+03 -2.66004E+02  1.51411E+02  4.58402E+02 -5.42751E+02  2.14510E+03 -1.88796E+03  1.66484E+03
