 $NMID ID='MM_0lb_SNR400_16hz_g55_24.RAW', FMTDAT='(8E13.5)'
 TRAMP=1., VOLUME=1. $END
  3.09973E+05 -1.12902E+02  3.37214E+05  2.50512E+05  8.52765E+04  3.37583E+05 -1.32490E+05  2.50903E+05
 -1.90116E+05  8.29948E+04 -1.11363E+05 -3.29394E+04  6.71188E+02 -5.03783E+04  5.38888E+04  2.81768E+01
  3.52838E+04  5.27343E+04 -1.65801E+04  7.60548E+04 -6.08443E+04  6.31123E+04 -8.42515E+04  3.22419E+04
 -8.00159E+04 -1.12845E+04 -5.69937E+04 -5.13271E+04 -1.51651E+04 -6.94916E+04  2.72786E+04 -4.58621E+04
  4.05414E+04  3.67002E+03  1.57138E+04  4.77464E+04 -3.40736E+04  4.69815E+04 -6.66738E+04 -5.15701E+02
 -5.24387E+04 -5.64890E+04 -6.69472E+03 -7.61240E+04  3.39645E+04 -5.54214E+04  4.75685E+04 -1.76447E+04
  4.27799E+04  1.16074E+04  3.16959E+04  2.60488E+04  1.63296E+04  2.93627E+04 -5.61686E+03  2.70135E+04
 -2.18504E+04  1.22375E+04 -1.93570E+04 -5.57008E+03  5.17860E+03 -6.96923E+03  2.18866E+04  1.23742E+04
  7.26519E+03  3.48811E+04 -3.23536E+04  3.48537E+04 -6.31082E+04  2.52683E+03 -5.68033E+04 -4.26508E+04
 -1.24505E+04 -6.25828E+04  3.93509E+04 -4.47835E+04  5.78003E+04 -2.25481E+03  3.37040E+04  3.24608E+04
 -6.85806E+03  3.59051E+04 -3.00036E+04  1.52153E+04 -3.04007E+04 -4.33257E+03 -1.63995E+04 -1.10256E+04
 -8.21800E+03 -1.29289E+04 -4.92449E+02 -1.83652E+04  7.42856E+03 -2.30538E+04  1.55040E+04 -1.34785E+04
  1.14962E+04  5.09868E+03 -8.32915E+03  1.31179E+04 -2.06160E+04 -4.44958E+03 -8.45951E+03 -3.30761E+04
  2.22134E+04 -4.28388E+04  4.74512E+04 -1.90425E+04  4.40986E+04  1.90232E+04  1.53400E+04  4.33840E+04
 -1.58958E+04  3.35247E+04 -2.53890E+04  1.32159E+03 -9.63692E+03 -2.72455E+04  2.07320E+04 -3.34873E+04
  4.06286E+04 -9.07516E+03  3.49415E+04  2.34210E+04  1.73166E+04  4.54607E+04 -8.05017E+03  4.91937E+04
 -3.10371E+04  3.32024E+04 -4.06299E+04  9.55128E+03 -4.21754E+04 -1.61259E+04 -2.33249E+04 -3.73590E+04
  7.69267E+03 -3.68233E+04  3.08656E+04 -1.43349E+04  2.83264E+04  1.07348E+04  3.87974E+03  1.92227E+04
 -1.32989E+04  8.33772E+03 -1.03990E+04 -7.44165E+03  5.72606E+03 -1.06751E+04  1.76147E+04  6.57222E+03
  1.35035E+04  2.13922E+04 -6.54899E+03  2.42830E+04 -2.15885E+04  1.14481E+04 -2.69158E+04 -4.98698E+03
 -1.99555E+04 -1.68778E+04 -7.65913E+03 -1.92790E+04  3.76703E+03 -1.78893E+04  1.48045E+04 -1.71062E+04
  2.48269E+04 -1.23873E+04  3.13052E+04  2.32036E+03  2.34222E+04  1.86865E+04  4.28115E+03  3.58384E+04
 -1.76389E+04  2.93439E+04 -2.76565E+04  1.00610E+04 -2.07127E+04 -1.08096E+04 -4.08814E+03 -1.33793E+04
  1.44305E+03 -3.43025E+03 -4.37835E+03  6.18856E+03 -1.53682E+04  5.10082E+03 -1.53726E+04 -6.44999E+03
 -9.63426E+03 -1.80349E+04  5.12386E+03 -2.22653E+04  1.47729E+04 -1.65804E+04  1.64218E+04 -1.67392E+03
  1.07241E+04  1.30705E+04 -6.22620E+02  1.81175E+04 -1.22103E+04  1.02876E+04 -1.77713E+04 -3.61045E+03
 -1.32391E+04 -1.62942E+04 -1.31188E+03 -2.20348E+04  1.02391E+04 -1.78728E+04  1.89442E+04 -8.74866E+03
  1.64732E+04  3.78383E+02  1.21306E+04  3.58468E+03  6.27419E+03  1.03998E+03  9.20644E+03 -1.17374E+03
  1.59079E+04  2.78064E+03  1.76522E+04  1.45251E+04  1.22610E+04  2.86021E+04 -2.69758E+03  3.21662E+04
 -1.89402E+04  2.58379E+04 -3.00420E+04  1.26642E+04 -3.06510E+04 -2.15758E+03 -2.52886E+04 -1.77592E+04
 -1.13484E+04 -2.49655E+04  8.56536E+03 -2.32639E+04  2.00262E+04 -1.21359E+04  1.85809E+04  4.85525E+03
  7.08308E+03  1.32794E+04 -8.55743E+03  1.19457E+04 -1.43428E+04  2.90040E+03 -1.16363E+04 -9.48060E+03
 -1.64008E+02 -1.41204E+04  7.56567E+03 -1.04875E+04  9.22406E+03 -1.26140E+03  2.68759E+03  5.59531E+03
 -6.54648E+03  2.09114E+03 -5.33940E+03 -5.30967E+03 -2.80194E+02 -1.23475E+04  9.02817E+03 -1.33232E+04
  1.57069E+04 -6.48200E+03  1.60665E+04  3.15728E+03  1.40546E+04  1.23573E+04  6.77500E+03  1.81145E+04
 -2.98978E+03  2.03150E+04 -1.22315E+04  1.23351E+04 -1.47282E+04  3.06320E+03 -1.06744E+04 -2.76725E+03
 -5.15733E+03 -4.51190E+03 -1.01982E+03  6.12021E+02 -2.15409E+03  2.29273E+03 -4.58108E+03  4.15263E+03
 -9.77140E+03 -8.09580E+02 -1.08267E+04 -8.59451E+03 -4.30758E+03 -1.39486E+04  4.45194E+03 -1.02621E+04
  8.41094E+03 -4.59470E+03  6.07030E+03  2.80783E+03  7.29837E+01  3.38970E+03 -4.66100E+03 -3.52926E+02
 -4.15582E+03 -6.34957E+03 -5.18441E+02 -9.11882E+03  4.88627E+03 -9.62240E+03  1.25745E+04 -5.46829E+03
  1.44888E+04  1.16665E+03  1.06258E+04  8.46988E+03  2.27858E+03  1.17474E+04 -6.45967E+03  1.05697E+04
 -8.09077E+03  3.19894E+03 -4.60313E+03 -2.18658E+03  1.33125E+03 -2.56083E+03  5.74706E+03 -6.70497E+02
  5.37381E+03  4.39507E+03  9.16090E+02  7.49450E+03 -5.88336E+03  7.57198E+03 -1.01268E+04  2.05794E+03
 -6.52840E+03 -4.65998E+03  3.27556E+02 -9.27695E+03  4.90722E+03 -4.04778E+03  5.35689E+03  1.44027E+03
  1.56001E+03  4.73712E+03 -4.94683E+03  6.90803E+03 -7.06595E+03  3.30300E+03 -6.90683E+03 -1.78770E+03
 -4.02438E+03 -8.62525E+03  2.11690E+03 -9.94480E+03  8.61550E+03 -5.57442E+03  8.73622E+03  1.42276E+03
  5.89512E+03  6.85917E+03 -4.40870E+02  9.45180E+03 -6.89898E+03  5.11046E+03 -7.61478E+03 -6.97810E+02
 -6.48600E+03 -6.19533E+03 -9.87371E+02 -6.97116E+03  3.06786E+03 -6.37926E+03  3.87165E+03 -2.98079E+03
  3.20693E+03  3.28215E+02 -6.55360E+02  1.63366E+03  1.86707E+02 -8.96100E+02  1.02675E+03 -3.07280E+03
  5.19947E+03 -8.72170E+02  8.47686E+03  6.44223E+02  7.80498E+03  4.52971E+03  6.08746E+03  1.04396E+04
 -1.93129E+03  1.19726E+04 -1.05985E+04  9.00034E+03 -1.33718E+04  1.55284E+03 -1.10441E+04 -3.74487E+03
 -5.29737E+03 -8.92021E+03 -7.26929E+02 -7.86895E+03  3.03126E+03 -4.21915E+03  2.43358E+03 -2.72814E+03
  1.90464E+03 -1.91252E+03  2.39777E+03 -2.74341E+03  3.77185E+03 -2.12783E+03  4.17795E+03  8.30995E+01
  5.22999E+03  1.11692E+03  2.35706E+03  4.38344E+03 -1.66234E+03  4.36729E+03 -6.36467E+03  3.95531E+03
 -7.50370E+03 -1.79640E+03 -3.69152E+03 -5.01051E+03 -1.72244E+02 -7.19676E+03  4.20364E+03 -7.41857E+03
  7.29213E+03 -5.19276E+03  8.85885E+03  4.74400E+02  6.59580E+03  5.80729E+03  1.32241E+03  8.09751E+03
 -3.42580E+03  7.02681E+03 -4.87426E+03  2.40219E+03 -2.90028E+03 -1.23963E+03 -9.72589E+02 -8.35174E+02
 -8.93288E+02 -3.57212E+02 -1.25528E+03  2.81181E+03 -2.80038E+03  1.76653E+03 -4.91975E+03 -8.92016E+02
 -2.90733E+03 -5.63138E+03  1.04177E+03 -6.77561E+03  4.39428E+03 -6.22125E+03  5.55937E+03 -1.53349E+03
  5.94963E+03  3.49866E+03  3.04877E+03  5.92634E+03 -1.32615E+03  6.78710E+03 -4.02064E+03  3.81139E+03
 -5.99881E+03  6.41760E+02 -4.59193E+03 -3.28205E+03 -1.64497E+02 -5.32265E+03  3.00612E+03 -3.71144E+03
  4.47998E+03 -1.84917E+03  3.07759E+03  9.21152E+02  8.68748E+02  1.58685E+03  1.04078E+03  9.94002E+02
  1.68301E+03  1.17108E+03  1.58403E+03  6.59545E+02  1.85833E+03  3.20953E+03  1.53636E+03  3.06915E+03
 -1.46722E+03  4.29515E+03 -4.29310E+03  5.78026E+03 -4.99169E+03  1.11541E+03 -5.82481E+03 -1.51143E+03
 -2.61255E+03 -5.06781E+03  1.21546E+03 -6.77456E+03  2.99341E+03 -4.05378E+03  4.13448E+03 -1.16636E+03
  3.78169E+03  1.95286E+03  2.69593E+02  4.00786E+03 -1.13834E+03  2.09240E+03 -1.98278E+03 -6.01569E+02
 -1.34697E+03 -2.43553E+03  1.73078E+03 -2.43855E+03  2.34238E+03 -6.78607E+02  2.05925E+03  6.23961E+01
  1.50338E+03  7.41065E+02  1.18356E+03  2.30260E+02 -9.54534E+02  6.45141E+02  1.74120E+03 -6.41594E+02
  7.09038E+02  1.15242E+01  2.53477E+03  1.06637E+03  6.09448E+02  2.49673E+03 -5.81999E+02  4.15440E+03
 -2.96416E+03  1.92363E+03 -2.93317E+03  4.61627E+02 -3.59579E+03 -9.74192E+02 -6.21836E+02 -1.20029E+03
  7.50073E+02 -2.18878E+03  1.51958E+03 -1.15064E+03  1.07655E+03  1.67531E+03 -7.48797E+02  2.43396E+03
 -2.00847E+03  1.04921E+03 -1.96222E+03 -1.89342E+03 -1.20506E+03 -2.88958E+03  4.42933E+02 -2.58009E+03
  1.12907E+03 -1.17746E+03  1.58835E+03  2.59486E+02  9.31685E+02  2.78254E+02 -5.39986E+02  1.80931E+03
 -4.46797E+02  9.65181E+01 -1.57445E+03 -6.30359E+02  8.83879E+02 -1.70262E+03  2.75759E+03 -2.14455E+03
  2.73834E+03 -5.93664E+02  3.33993E+03  1.47321E+03  1.16143E+03  3.16372E+03 -3.43853E+02  3.27174E+03
 -2.81437E+03  9.86424E+02 -2.71784E+03 -3.54228E+02 -1.54066E+03 -1.84042E+03  7.00005E+02 -1.50682E+03
  1.55908E+03 -1.44037E+03  1.39706E+03  8.16307E+02  3.02621E+02  1.85247E+03  5.61195E+02  1.89713E+03
 -5.79183E+02  1.19170E+03 -1.01041E+03  2.41717E+02 -8.24344E+02  7.88833E+02 -5.45214E+02  1.11035E+03
 -8.80031E+02  1.58322E+03 -2.31007E+03  4.16148E+02 -2.07491E+03  2.13708E+02 -4.11597E+03 -1.76138E+03
 -1.52062E+03 -3.91670E+03  3.58639E+02 -4.76798E+03  1.01028E+03 -3.78550E+03  4.26475E+03 -1.12492E+03
  3.91528E+03  4.11563E+02  1.99773E+03  2.28629E+03 -3.44647E+02  2.69568E+03 -4.89043E+02  1.99021E+03
 -1.54764E+03  1.25398E+03 -1.05728E+03  2.65217E+01  3.37700E+02  5.94813E+02 -7.88149E+02 -4.53772E+01
 -1.33197E+03 -4.59512E+01 -9.63315E+02 -4.07433E+01  5.32655E+02 -8.11171E+02 -3.55834E+02 -1.49889E+03
  1.57029E+03 -3.01097E+02  1.00676E+03  5.65359E+02  1.92425E+03  1.58136E+03 -2.60612E+02  2.68346E+03
 -1.95115E+03  3.76532E+03 -2.80337E+03  2.22736E+03 -2.82945E+03 -2.48422E+02 -2.55661E+03 -2.38795E+03
 -1.23446E+03 -2.21484E+03  8.74353E+02 -2.27734E+03  1.08488E+03 -7.81028E+02  1.45848E+03  4.62874E+01
  9.45918E+02  7.08334E+02  6.01277E+02  4.36816E+02 -2.82240E+02 -5.73521E+02 -1.90462E+02 -1.02082E+02
  2.18515E+02 -4.80565E+02  5.13740E+02  5.35806E+01  1.03568E+02  6.64901E+02  1.03128E+03  1.12871E+03
 -1.28028E+03  1.23708E+03 -1.28182E+03  5.30819E+01 -1.50416E+03 -1.06246E+03 -5.03980E+02 -1.45688E+03
  1.01955E+03 -1.43829E+03  1.61341E+03 -9.72609E+01  1.08683E+03  9.80151E+01  1.03301E+03  1.32246E+03
  1.86007E+02  1.77283E+03 -6.62256E+02  1.55635E+03 -9.86861E+02  9.01038E+02 -6.05010E+02  2.07944E+02
 -2.53692E+02  1.95686E+02 -5.23943E+02  2.76819E+02 -1.29091E+03  4.40917E+02 -1.40548E+03  1.26330E+02
 -1.86575E+03 -2.11442E+02 -3.82530E+02 -1.45955E+03  1.59648E+03 -2.05398E+03  8.57498E+02 -1.03382E+03
  1.88244E+03 -2.56708E+02 -1.37314E+02  5.48279E+02  3.28071E+01  1.75593E+03 -9.86076E+02  1.73406E+03
