 $NMID ID='MM_0lb_SNR400_11hz_g55_20.RAW', FMTDAT='(8E13.5)'
 TRAMP=1., VOLUME=1. $END
  3.10041E+05  3.91384E+02  3.37694E+05  2.51154E+05  8.52688E+04  3.38051E+05 -1.32383E+05  2.51810E+05
 -1.90750E+05  8.33750E+04 -1.13272E+05 -3.28169E+04  4.49306E+02 -5.08219E+04  5.36431E+04 -1.23338E+03
  3.57507E+04  5.29227E+04 -1.65033E+04  7.57766E+04 -6.13617E+04  6.38190E+04 -8.56843E+04  3.23497E+04
 -8.22092E+04 -1.15660E+04 -5.73204E+04 -5.26091E+04 -1.46839E+04 -7.09151E+04  2.75113E+04 -4.67384E+04
  4.13490E+04  4.73977E+03  1.75913E+04  4.84710E+04 -3.49751E+04  4.82014E+04 -6.80758E+04  5.36393E+02
 -5.45015E+04 -5.79106E+04 -7.65791E+03 -7.82492E+04  3.47873E+04 -5.63679E+04  4.93137E+04 -1.88020E+04
  4.47750E+04  1.16797E+04  3.29386E+04  2.62325E+04  1.65938E+04  2.96983E+04 -5.55272E+03  2.77919E+04
 -2.20925E+04  1.18867E+04 -1.83608E+04 -5.10968E+03  6.38942E+03 -7.32801E+03  2.27587E+04  1.31774E+04
  7.59900E+03  3.68412E+04 -3.28744E+04  3.65282E+04 -6.52103E+04  1.70958E+03 -5.91654E+04 -4.45581E+04
 -1.24722E+04 -6.52117E+04  4.14434E+04 -4.76639E+04  6.04946E+04 -3.06904E+03  3.61962E+04  3.26734E+04
 -6.06040E+03  3.80484E+04 -3.10465E+04  1.84293E+04 -3.24154E+04 -3.81570E+03 -1.83207E+04 -1.16959E+04
 -8.84010E+03 -1.42369E+04 -1.95566E+01 -1.96132E+04  8.66831E+03 -2.40209E+04  1.53703E+04 -1.23943E+04
  1.00526E+04  6.21833E+03 -9.87182E+03  1.26470E+04 -2.27153E+04 -5.66575E+03 -7.35586E+03 -3.61638E+04
  2.41824E+04 -4.58154E+04  5.09719E+04 -2.07497E+04  4.74360E+04  2.05973E+04  1.74442E+04  4.62254E+04
 -1.63337E+04  3.45215E+04 -2.65311E+04  2.58308E+03 -1.11633E+04 -2.89141E+04  2.14419E+04 -3.62598E+04
  4.31178E+04 -1.00826E+04  3.90971E+04  2.48414E+04  2.02520E+04  4.96368E+04 -7.76517E+03  5.43228E+04
 -3.40098E+04  3.76553E+04 -4.61491E+04  1.09682E+04 -4.61242E+04 -1.73112E+04 -2.58277E+04 -4.09939E+04
  7.23714E+03 -4.11233E+04  3.29794E+04 -1.64227E+04  3.12611E+04  1.04857E+04  4.96973E+03  1.99725E+04
 -1.36410E+04  8.91111E+03 -1.05149E+04 -7.12658E+03  5.74770E+03 -1.18061E+04  1.91170E+04  6.05603E+03
  1.46135E+04  2.23044E+04 -4.89499E+03  2.68226E+04 -2.29176E+04  1.38657E+04 -3.04167E+04 -3.14999E+03
 -2.35550E+04 -1.81032E+04 -1.01982E+04 -2.41834E+04  4.08780E+03 -2.35824E+04  1.85328E+04 -2.14070E+04
  3.04014E+04 -1.45098E+04  3.61364E+04  3.63033E+03  2.55332E+04  2.36430E+04  4.56391E+03  3.96488E+04
 -1.91433E+04  3.30826E+04 -2.99841E+04  1.18234E+04 -2.17071E+04 -1.01244E+04 -4.16956E+03 -1.28631E+04
  1.57379E+03 -1.70386E+03 -8.15213E+03  7.57896E+03 -1.93277E+04  5.07709E+03 -1.87575E+04 -9.02734E+03
 -1.12654E+04 -2.20897E+04  6.44642E+03 -2.59741E+04  1.76997E+04 -1.81474E+04  2.10144E+04 -1.54942E+03
  1.37848E+04  1.49944E+04 -1.35882E+03  2.21968E+04 -1.52474E+04  1.25250E+04 -2.20053E+04 -5.16673E+03
 -1.63006E+04 -1.96572E+04 -2.60887E+03 -2.69333E+04  1.26462E+04 -2.19513E+04  2.19077E+04 -1.14070E+04
  2.06954E+04  2.64316E+01  1.49918E+04  4.14038E+03  8.16272E+03  1.43701E+03  1.14046E+04 -2.18022E+03
  2.00842E+04  2.82256E+03  2.35922E+04  1.72720E+04  1.55597E+04  3.53120E+04 -2.36216E+03  4.09398E+04
 -2.31440E+04  3.42350E+04 -3.88176E+04  1.70243E+04 -4.18000E+04 -2.27251E+03 -3.39091E+04 -2.45171E+04
 -1.32247E+04 -3.40760E+04  1.25069E+04 -3.02453E+04  2.55544E+04 -1.49705E+04  2.25866E+04  7.25715E+03
  7.10310E+03  1.79004E+04 -1.03835E+04  1.44064E+04 -1.92888E+04  2.67442E+03 -1.41483E+04 -1.28622E+04
 -3.17157E+02 -1.85800E+04  9.17166E+03 -1.33043E+04  1.15701E+04 -1.39305E+03  3.40397E+03  8.12480E+03
 -7.44971E+03  4.06195E+03 -8.50361E+03 -6.27143E+03 -1.69712E+03 -1.65964E+04  1.17575E+04 -1.78906E+04
  2.12962E+04 -1.08312E+04  2.31092E+04  3.81962E+03  2.02876E+04  1.67608E+04  8.60380E+03  2.64774E+04
 -5.36201E+03  2.83082E+04 -1.89063E+04  1.75298E+04 -2.09034E+04  3.45512E+03 -1.36030E+04 -5.14738E+03
 -5.94661E+03 -6.81184E+03 -1.15043E+03 -4.27142E+02 -3.37724E+03  3.28135E+03 -6.79856E+03  4.89677E+03
 -1.26996E+04 -3.39085E+02 -1.40671E+04 -1.11442E+04 -5.74314E+03 -1.78606E+04  5.69617E+03 -1.46068E+04
  1.21300E+04 -6.28112E+03  9.16665E+03  3.75761E+03 -5.59733E+02  5.43068E+03 -6.66135E+03 -3.44824E+02
 -6.78307E+03 -8.91820E+03 -1.33913E+03 -1.39170E+04  8.85962E+03 -1.37796E+04  1.73649E+04 -7.89617E+03
  2.09038E+04  2.34921E+03  1.50818E+04  1.26677E+04  3.34093E+03  1.65203E+04 -8.52315E+03  1.35534E+04
 -1.20882E+04  4.06571E+03 -5.87593E+03 -3.00075E+03  1.89447E+03 -4.40019E+03  7.20453E+03 -4.96343E+02
  6.50516E+03  6.04536E+03  4.19683E+02  1.11673E+04 -8.38612E+03  1.10340E+04 -1.38601E+04  2.58948E+03
 -9.35162E+03 -6.79089E+03  5.23185E+01 -1.14942E+04  7.47715E+03 -6.78155E+03  7.36776E+03  2.54077E+03
  1.57343E+03  8.63683E+03 -7.67657E+03  1.07773E+04 -1.20051E+04  4.32229E+03 -1.19500E+04 -4.63387E+03
 -7.38820E+03 -1.32157E+04  3.91851E+03 -1.55333E+04  1.29673E+04 -9.24596E+03  1.45375E+04  2.40117E+03
  8.47419E+03  1.13863E+04 -1.18219E+03  1.36174E+04 -1.05308E+04  8.24870E+03 -1.03671E+04 -1.43900E+03
 -9.99674E+03 -9.68203E+03 -1.56358E+03 -1.06813E+04  6.23101E+03 -8.80103E+03  6.08521E+03 -3.01003E+03
  4.43559E+03  1.85678E+03 -2.05430E+02  2.39185E+03 -3.02331E+02 -2.76187E+03  2.12706E+03 -7.35553E+03
  1.04977E+04 -4.38558E+03  1.35433E+04  1.64351E+03  1.30911E+04  8.87855E+03  9.04516E+03  1.76141E+04
 -4.19064E+03  2.09025E+04 -1.73828E+04  1.51506E+04 -2.22564E+04  2.97324E+03 -1.75079E+04 -7.91887E+03
 -9.03844E+03 -1.46534E+04 -2.21814E+02 -1.21861E+04  4.85718E+03 -6.45912E+03  5.05785E+03 -4.23016E+03
  3.18513E+03 -2.68887E+03  3.63693E+03 -3.89109E+03  5.40387E+03 -2.54590E+03  6.82796E+03 -1.00256E+03
  9.18471E+03  2.73527E+03  4.64607E+03  7.44307E+03 -2.56435E+03  9.45392E+03 -1.00615E+04  7.22075E+03
 -1.21364E+04 -1.68106E+03 -7.62512E+03 -8.87006E+03 -3.06143E+02 -1.30729E+04  6.96477E+03 -1.35795E+04
  1.37321E+04 -7.39702E+03  1.62168E+04  2.15247E+03  1.08495E+04  1.20719E+04  2.17107E+03  1.45228E+04
 -6.80194E+03  1.19232E+04 -8.91523E+03  4.04168E+03 -5.82816E+03 -2.04051E+03 -2.86214E+03 -2.11179E+03
 -7.10137E+02 -9.89772E+01 -2.14808E+03  2.60853E+03 -5.57168E+03  1.80334E+03 -8.89859E+03 -1.16845E+03
 -6.05674E+03 -8.52757E+03 -3.09477E+02 -1.25625E+04  7.02959E+03 -1.11740E+04  1.13048E+04 -3.55719E+03
  1.23363E+04  6.16233E+03  5.78429E+03  1.06963E+04 -2.31337E+03  1.20440E+04 -8.57071E+03  8.13001E+03
 -1.14752E+04  1.71876E+02 -8.81384E+03 -5.83179E+03 -1.55235E+03 -1.01454E+04  5.11602E+03 -7.33332E+03
  7.99356E+03 -2.37722E+03  5.02884E+03  2.06593E+03  1.35390E+03  3.66007E+03  1.50783E+02  2.14902E+03
  2.49288E+03  1.03024E+03  2.00095E+03  5.09332E+02  3.92612E+03  5.34048E+03  2.98259E+03  6.21515E+03
 -2.74059E+03  1.01731E+04 -7.71449E+03  9.31571E+03 -1.22651E+04  2.40802E+03 -1.26165E+04 -5.05619E+03
 -6.53935E+03 -1.11813E+04  1.87631E+03 -1.36234E+04  7.99833E+03 -8.23619E+03  9.87269E+03 -1.49082E+03
  7.65089E+03  4.83945E+03  2.03642E+03  6.72101E+03 -3.48169E+03  4.80130E+03 -4.33591E+03 -8.95446E+01
 -2.69711E+03 -5.30579E+03  3.32437E+03 -5.48393E+03  4.63011E+03 -2.76575E+03  4.91007E+03  1.43624E+03
  2.79798E+03  2.45488E+03  1.14264E+03  1.88952E+03 -2.62116E+02  1.55841E+03  1.60263E+03 -9.54322E+02
  2.74359E+03 -6.93351E+02  4.99438E+03  2.00260E+03  2.78508E+03  6.48130E+03 -1.30284E+03  8.13019E+03
 -5.51458E+03  5.58532E+03 -7.29866E+03  1.48620E+03 -6.68342E+03 -2.59926E+03 -2.30484E+03 -4.20876E+03
  1.27786E+03 -4.69469E+03  3.21930E+03 -2.83917E+03  2.94759E+03  2.04601E+03 -1.30749E+03  4.12509E+03
 -4.39179E+03  2.54296E+03 -5.25947E+03 -2.62281E+03 -2.72772E+03 -6.68972E+03  8.89448E+02 -7.05935E+03
  3.41581E+03 -3.98752E+03  4.67002E+03 -3.23692E+02  4.03816E+03  1.77167E+03  1.21989E+03  3.62778E+03
 -1.86451E+03  1.49386E+03 -2.93760E+03 -2.14122E+03  5.16828E+02 -5.06681E+03  5.97862E+03 -3.96775E+03
  7.40114E+03 -2.54457E+01  6.46372E+03  4.56126E+03  1.71182E+03  7.59306E+03 -1.69390E+03  6.73773E+03
 -6.14525E+03  2.75632E+03 -6.36602E+03 -1.06548E+03 -2.90699E+03 -4.76771E+03  1.62160E+03 -3.71274E+03
  3.99044E+03 -1.75830E+03  4.82240E+03  1.70731E+03  1.51022E+03  3.73370E+03 -2.36801E+02  4.02257E+03
 -1.65892E+03  1.94587E+03 -1.76594E+03  8.66214E+02 -1.13358E+03  8.95126E+02 -1.13617E+03  1.21089E+03
 -2.41688E+03  2.76726E+03 -5.03645E+03  1.86370E+03 -7.61221E+03 -1.13724E+02 -7.94754E+03 -4.66668E+03
 -4.39219E+03 -9.31256E+03  1.87619E+03 -1.17131E+04  7.62910E+03 -8.49094E+03  1.07071E+04 -2.95568E+03
  1.01039E+04  2.25574E+03  6.46495E+03  6.54494E+03  5.04549E+02  7.61234E+03 -2.78776E+03  5.41801E+03
 -4.40244E+03  2.65869E+03 -2.58647E+03 -8.58410E+02 -6.88494E+02 -7.05360E+02 -1.15565E+03 -2.05473E+02
 -1.57874E+03  6.17855E+02 -1.65445E+03  4.13904E+02 -1.49829E+01 -1.49343E+03  1.20665E+02 -2.93357E+03
  3.62066E+03 -3.08254E+03  5.24906E+03  7.21740E+02  5.13167E+03  4.54625E+03  7.99437E+02  7.08794E+03
 -3.63380E+03  8.80264E+03 -8.56126E+03  5.42626E+03 -9.64873E+03 -1.13907E+03 -7.12093E+03 -6.03306E+03
 -2.73198E+03 -7.38177E+03  1.73354E+03 -7.27667E+03  4.49057E+03 -3.57000E+03  4.83614E+03  6.05909E+02
  2.99569E+03  2.57049E+03  2.68611E+01  2.03795E+03 -1.25540E+03 -7.34813E+01  6.84545E+02 -2.08503E+03
  2.53633E+03 -4.52402E+02  2.52656E+03  6.55173E+02  1.83145E+03  2.96364E+03  1.54744E+02  4.20057E+03
 -3.83829E+03  3.73937E+03 -4.87452E+03 -2.92372E+01 -4.25484E+03 -3.36203E+03 -5.94079E+02 -5.47428E+03
  3.12771E+03 -5.09515E+03  4.91191E+03 -2.02777E+03  5.91996E+03  1.27652E+03  3.51509E+03  4.38964E+03
  1.10376E+03  4.74781E+03 -1.73597E+03  3.72067E+03 -3.53268E+03  2.68185E+03 -3.05113E+03 -2.35970E+02
 -1.85250E+03 -1.92368E+02 -1.85101E+03  1.07044E+03 -2.97598E+03  1.31454E+03 -4.09487E+03 -4.77980E+02
 -4.11007E+03 -2.83485E+03 -1.43630E+03 -4.61059E+03  2.28316E+03 -5.76875E+03  4.00668E+03 -1.75128E+03
  5.47669E+03  6.84739E+02  2.13340E+03  3.71521E+03 -3.47339E+02  4.62473E+03 -3.42895E+03  3.52139E+03
