 $NMID ID='MM_0lb_SNR400_18hz_g40_28.RAW', FMTDAT='(8E13.5)'
 TRAMP=1., VOLUME=1. $END
  3.09924E+05  3.17174E+02  3.37432E+05  2.50561E+05  8.41923E+04  3.37159E+05 -1.32768E+05  2.50085E+05
 -1.89687E+05  8.24378E+04 -1.10906E+05 -3.31709E+04  1.72182E+03 -4.99734E+04  5.38514E+04  2.99567E+02
  3.45949E+04  5.26068E+04 -1.72901E+04  7.48512E+04 -5.98695E+04  6.20693E+04 -8.32863E+04  3.16651E+04
 -7.95874E+04 -1.12892E+04 -5.61724E+04 -5.04440E+04 -1.49775E+04 -6.79661E+04  2.72403E+04 -4.50221E+04
  3.93802E+04  3.77312E+03  1.56359E+04  4.73297E+04 -3.40870E+04  4.62264E+04 -6.50810E+04 -1.02718E+03
 -5.25544E+04 -5.65900E+04 -6.22771E+03 -7.52912E+04  3.30453E+04 -5.34990E+04  4.58084E+04 -1.60560E+04
  4.17241E+04  1.12173E+04  3.07060E+04  2.44281E+04  1.52755E+04  2.79387E+04 -4.82544E+03  2.67552E+04
 -2.15027E+04  1.26014E+04 -1.91286E+04 -4.61287E+03  4.51919E+03 -7.77914E+03  2.12826E+04  1.10973E+04
  7.31595E+03  3.34310E+04 -3.01165E+04  3.35327E+04 -6.03040E+04  1.76280E+03 -5.47737E+04 -4.07810E+04
 -1.22872E+04 -6.02488E+04  3.82100E+04 -4.27942E+04  5.50727E+04 -1.92889E+03  3.12998E+04  3.06600E+04
 -6.32973E+03  3.25477E+04 -2.82955E+04  1.31860E+04 -2.72852E+04 -5.55790E+03 -1.41710E+04 -9.71844E+03
 -7.37685E+03 -1.09508E+04 -1.00393E+03 -1.62855E+04  6.94072E+03 -2.21000E+04  1.50333E+04 -1.37364E+04
  1.26651E+04  3.87508E+03 -5.83210E+03  1.26927E+04 -1.87288E+04 -2.26448E+03 -7.47567E+03 -3.02087E+04
  2.11020E+04 -4.02045E+04  4.44691E+04 -1.89084E+04  4.13010E+04  1.80142E+04  1.42777E+04  4.10156E+04
 -1.52633E+04  3.07795E+04 -2.34816E+04  1.05824E+02 -8.07821E+03 -2.65896E+04  2.05888E+04 -3.08074E+04
  3.72860E+04 -7.49551E+03  3.09947E+04  2.19204E+04  1.54199E+04  4.20761E+04 -7.42048E+03  4.44032E+04
 -2.83267E+04  3.02393E+04 -3.68350E+04  8.04196E+03 -3.81162E+04 -1.52862E+04 -2.13734E+04 -3.43603E+04
  7.12803E+03 -3.46960E+04  2.89545E+04 -1.24529E+04  2.69377E+04  1.11931E+04  2.80470E+03  1.76701E+04
 -1.28832E+04  7.36401E+03 -9.73816E+03 -7.56684E+03  6.50742E+03 -1.01397E+04  1.74193E+04  6.61500E+03
  1.24883E+04  2.20268E+04 -7.30857E+03  2.30469E+04 -2.15030E+04  8.75035E+03 -2.49481E+04 -6.32619E+03
 -1.65419E+04 -1.62129E+04 -5.06467E+03 -1.64553E+04  3.20845E+03 -1.40794E+04  1.21969E+04 -1.42375E+04
  2.07078E+04 -1.15740E+04  2.79448E+04  9.38817E+02  2.10342E+04  1.64123E+04  4.25245E+03  3.23249E+04
 -1.60256E+04  2.79038E+04 -2.55075E+04  9.06888E+03 -1.91909E+04 -1.01550E+04 -4.14703E+03 -1.38731E+04
  2.73298E+03 -4.08771E+03 -3.07145E+03  5.42028E+03 -1.25873E+04  5.11876E+03 -1.34365E+04 -4.91672E+03
 -8.49467E+03 -1.55127E+04  4.36073E+03 -1.86155E+04  1.27862E+04 -1.39523E+04  1.42992E+04 -8.76768E+02
  8.66513E+03  1.09003E+04 -6.59235E+02  1.53508E+04 -1.03188E+04  8.84994E+03 -1.56177E+04 -3.28809E+03
 -1.20517E+04 -1.41105E+04 -1.44416E+03 -1.83002E+04  8.07385E+03 -1.52318E+04  1.60197E+04 -7.10011E+03
  1.42353E+04  7.93117E+02  1.04887E+04  3.55067E+03  5.39679E+03  4.46590E+02  7.54125E+03 -1.05578E+03
  1.37095E+04  2.99720E+03  1.49251E+04  1.27337E+04  9.06205E+03  2.44240E+04 -4.10437E+03  2.63605E+04
 -1.54757E+04  1.97445E+04 -2.40902E+04  9.74058E+03 -2.48523E+04 -1.30427E+03 -2.09726E+04 -1.41910E+04
 -9.71397E+03 -1.98354E+04  7.52206E+03 -1.91052E+04  1.64290E+04 -1.11164E+04  1.52072E+04  3.68602E+03
  7.22025E+03  1.11973E+04 -6.71366E+03  1.04010E+04 -1.34600E+04  3.27894E+03 -1.04359E+04 -7.73221E+03
  1.47533E+02 -1.19584E+04  6.40406E+03 -9.23382E+03  7.49039E+03 -1.00601E+03  1.00766E+03  5.18054E+03
 -5.05511E+03  9.18396E+02 -3.40903E+03 -4.48986E+03  6.80054E+02 -9.92123E+03  7.80837E+03 -9.85587E+03
  1.19422E+04 -4.40671E+03  1.20687E+04  2.71504E+03  9.96932E+03  9.05280E+03  5.37088E+03  1.40695E+04
 -1.38666E+03  1.60242E+04 -9.70003E+03  9.74853E+03 -1.09751E+04  2.86429E+03 -8.37463E+03 -1.90538E+03
 -4.40246E+03 -3.70617E+03 -2.70568E+02  1.73792E+03 -2.07253E+03  1.97589E+03 -3.73504E+03  2.89634E+03
 -8.08106E+03 -1.27011E+03 -8.98042E+03 -6.87951E+03 -3.67697E+03 -1.11253E+04  3.42795E+03 -8.51181E+03
  7.16701E+03 -3.74178E+03  5.21978E+03  1.79580E+03  4.89732E+02  3.31929E+03 -2.99093E+03 -3.47369E+02
 -3.25075E+03 -4.76035E+03 -7.21744E+02 -7.29830E+03  3.38862E+03 -8.37477E+03  1.01969E+04 -4.04490E+03
  1.15535E+04  3.56961E+02  8.79793E+03  6.34703E+03  1.53476E+03  8.27699E+03 -5.33678E+03  8.31781E+03
 -6.50357E+03  2.71089E+03 -3.48952E+03 -1.56869E+03  1.30744E+03 -2.04813E+03  5.06226E+03 -8.18769E+02
  4.55900E+03  3.40116E+03  1.43361E+03  6.47946E+03 -4.53389E+03  6.74708E+03 -8.25894E+03  1.96902E+03
 -4.95138E+03 -3.88074E+03  1.76862E+01 -6.28263E+03  3.66445E+03 -2.99887E+03  3.24084E+03  7.50544E+02
  7.15118E+02  3.27985E+03 -3.66873E+03  4.90506E+03 -4.65646E+03  2.39017E+03 -4.29457E+03 -6.71023E+02
 -2.97799E+03 -5.61367E+03  1.28352E+03 -6.72296E+03  6.03746E+03 -4.77467E+03  6.69361E+03  7.43314E+02
  4.65221E+03  4.81416E+03  5.80131E+02  7.02091E+03 -4.96558E+03  4.28927E+03 -5.56729E+03 -2.36039E+02
 -5.79153E+03 -4.62780E+03 -1.65876E+03 -5.22553E+03  2.40611E+03 -4.24552E+03  3.56489E+03 -2.64514E+03
  2.90286E+03 -2.23948E+01  1.07975E+02  8.45893E+02  8.94440E+02  2.00917E+02 -4.21089E+00 -1.56530E+03
  3.85591E+03 -1.29502E+03  5.39409E+03  1.18683E+03  5.61028E+03  2.96266E+03  5.38015E+03  7.83921E+03
 -1.04437E+03  8.55121E+03 -7.39367E+03  6.00417E+03 -1.02663E+04  1.48892E+03 -8.21253E+03 -2.62007E+03
 -4.20255E+03 -6.67139E+03 -8.50302E+01 -4.81169E+03  2.35242E+03 -2.01257E+03  1.69407E+03 -2.04672E+03
  1.34274E+03 -1.62468E+03  1.83365E+03 -2.39453E+03  3.26583E+03 -1.06826E+03  3.83506E+03  9.24845E+01
  4.23656E+03  9.14141E+02  1.04477E+03  3.83071E+03 -1.54966E+03  2.63227E+03 -3.99748E+03  3.07284E+03
 -4.98101E+03 -6.71753E+02 -2.16924E+03 -3.01570E+03  8.49860E+02 -5.22468E+03  3.93624E+03 -4.72644E+03
  5.11567E+03 -3.16904E+03  6.78117E+03  1.76171E+02  5.29944E+03  3.84463E+03  9.90628E+02  6.61231E+03
 -1.99757E+03  5.88044E+03 -3.28872E+03  1.29638E+03 -1.42961E+03 -1.13406E+03 -6.80869E+02 -5.05731E+02
 -5.21471E+02  5.63952E+02 -1.02383E+03  1.76602E+03 -2.52909E+03  1.31176E+03 -4.53261E+03 -9.20675E+02
 -1.33048E+03 -4.09181E+03  1.40779E+03 -4.08619E+03  2.80792E+03 -4.36965E+03  3.67179E+03 -1.83369E+03
  4.75607E+03  2.41991E+03  1.85500E+03  4.29527E+03 -5.96356E+02  4.38993E+03 -3.52071E+03  3.31435E+03
 -3.64244E+03  8.72530E+02 -3.73333E+03 -2.81319E+03 -1.29493E+02 -2.98642E+03  2.31802E+03 -2.62522E+03
  2.48532E+03 -1.30182E+03  2.30121E+03  6.05081E+02  4.68758E+02  1.73392E+03  4.18268E+02  7.38463E+02
  1.50534E+03  6.92640E+02  1.62797E+03  5.39649E+02  1.82802E+03  2.23102E+03  1.33774E+03  1.93922E+03
 -1.45810E+03  3.15166E+03 -2.79440E+03  3.99218E+03 -3.06423E+03  1.57908E+03 -4.85020E+03 -2.53542E+02
 -1.95926E+03 -3.55481E+03  6.54028E+02 -5.25153E+03  2.06748E+03 -2.20939E+03  2.85673E+03 -1.24113E+03
  2.65061E+03  1.29971E+03  1.15461E+03  2.09502E+03 -6.10238E+02  1.34138E+03 -1.04756E+03 -3.44757E+01
 -4.77256E+02 -1.72366E+03  1.40009E+03 -1.00872E+03  1.33956E+03 -5.83309E+02  1.75003E+03  5.44964E+02
  7.41668E+02  3.32626E+02  1.94989E+02 -5.69708E+02 -4.08841E+02  1.04777E+03  2.12113E+03  3.37299E+00
  3.31991E+02  2.48106E+02  1.54299E+03  5.14818E+02 -3.23948E+01  2.55156E+03  1.56913E+02  3.04118E+03
 -1.55807E+03  1.41196E+03 -2.06289E+03  3.48235E+02 -2.09873E+03 -7.60334E+02  1.08286E+02 -1.17551E+03
  4.12420E+02 -9.62014E+02  9.70224E+02 -7.32567E+02  9.59193E+02  1.22348E+03 -2.64607E+02  1.32654E+03
 -1.36265E+03  2.93250E+02 -1.20995E+03 -1.18401E+03 -6.75591E+02 -2.24203E+03  3.99548E+02 -1.76572E+03
  9.93552E+02 -8.03759E+02  1.06086E+03  2.13018E+02  1.57830E+03  2.36808E+02 -3.76320E+02  1.74669E+03
 -3.29026E+02  8.57027E+01 -8.83381E+02 -5.13043E+01  9.62911E+02 -8.51472E+02  1.79588E+03 -7.76358E+02
  1.21909E+03  6.96711E+02  2.81642E+03  1.14814E+03  1.72428E+03  2.09571E+03 -2.83639E+01  2.36001E+03
 -1.35800E+03  8.93069E+02 -1.88955E+03  2.93669E+02 -7.50321E+02 -1.18123E+03  5.95540E+02 -1.04666E+03
  1.61895E+03 -9.09143E+02  6.19739E+02 -2.10290E+02  9.48879E+02  1.12493E+03  6.72536E+01  1.48840E+03
 -1.56757E+02  9.06159E+02 -9.02403E+02  1.60912E+02 -2.08364E+02 -1.21448E+02 -9.80179E+02  3.54868E+02
 -5.28161E+02  9.71837E+02 -1.97048E+03  8.26057E+02 -1.48105E+03  1.09819E+02 -2.72790E+03 -1.07856E+03
 -9.92506E+02 -2.14704E+03  6.43005E+02 -2.98047E+03  1.23722E+03 -2.91816E+03  3.24266E+03 -1.20721E+03
  2.73305E+03  3.21449E+02  1.11701E+03  1.83905E+03 -5.59949E+02  1.65962E+03 -4.90596E+02  8.68796E+02
 -1.33852E+03  8.76455E+02 -4.02089E+02 -2.33597E+02  2.98645E+02 -1.15522E+02 -7.42502E+02  7.13742E+00
 -4.87495E+02 -2.78117E+02 -6.72926E+02  1.83751E+02  5.25369E+02 -7.32628E+02 -9.08511E+01 -8.85287E+02
  1.63217E+03 -1.45802E+02  8.31311E+02  4.14429E+01  8.37532E+02  1.00389E+03 -3.01582E+02  2.03998E+03
 -1.23905E+03  2.65774E+03 -1.92103E+03  1.37953E+03 -1.64175E+03  2.27126E+02 -1.75693E+03 -1.17350E+03
 -5.81338E+02 -1.43233E+03 -1.03336E+02 -1.31487E+03  7.21373E+02 -1.05322E+03  1.24695E+03  1.71800E+02
  4.40204E+02  9.69833E+01  3.08370E+02  3.22371E+02 -2.16779E+02  4.76990E+02 -6.27260E+02 -3.58007E+02
  5.56962E+02  2.93649E+02  6.34108E+02  6.13158E+02  1.97740E+02  2.29513E+02  5.29733E+02 -2.06724E+00
 -8.23985E+02  1.17664E+02 -7.62090E+02 -6.55026E+01 -1.07904E+03 -4.50145E+02  4.75554E+02 -1.50010E+03
  5.91732E+02 -6.22622E+02  6.42722E+02 -2.71938E+02  5.39928E+02 -9.61667E+02  1.64167E+02  1.00883E+03
  3.15625E+02  7.21868E+02  1.24459E+02  5.82742E+02  8.56651E+01  3.39691E+02 -8.35708E+02  1.86811E+02
 -5.33446E+02 -2.04858E+02 -6.48926E+02  1.20758E+02 -1.05835E+03 -6.69990E+01 -9.64380E+02 -5.53091E+02
 -9.55108E+02 -6.22109E+01 -7.25152E+02 -6.56075E+02  1.73518E+02 -2.05973E+03  9.61709E+02 -8.28931E+01
  1.07130E+03 -6.32003E+01 -4.98962E+02  1.99961E+02 -2.14813E+02  8.66543E+02 -8.72923E+02  5.93251E+02
