 $NMID ID='MM_0lb_SNR400_16hz_g50_39.RAW', FMTDAT='(8E13.5)'
 TRAMP=1., VOLUME=1. $END
  3.09912E+05 -6.10607E+01  3.37055E+05  2.50701E+05  8.46676E+04  3.37953E+05 -1.32900E+05  2.50908E+05
 -1.89562E+05  8.34750E+04 -1.11458E+05 -3.28531E+04  8.94947E+02 -5.03728E+04  5.43071E+04  2.93655E+02
  3.50524E+04  5.29475E+04 -1.71185E+04  7.55184E+04 -6.09407E+04  6.28777E+04 -8.34427E+04  3.18289E+04
 -8.06877E+04 -1.10157E+04 -5.70336E+04 -5.08597E+04 -1.50505E+04 -6.93610E+04  2.72854E+04 -4.53196E+04
  3.92827E+04  4.03440E+03  1.59556E+04  4.74228E+04 -3.43793E+04  4.69685E+04 -6.67951E+04 -4.09856E+02
 -5.32552E+04 -5.64322E+04 -6.50595E+03 -7.59220E+04  3.34896E+04 -5.46626E+04  4.67853E+04 -1.69442E+04
  4.27598E+04  1.03095E+04  3.14878E+04  2.55122E+04  1.53211E+04  2.95324E+04 -4.65729E+03  2.66598E+04
 -2.15999E+04  1.24096E+04 -1.86528E+04 -4.41491E+03  4.89046E+03 -7.63527E+03  2.20081E+04  1.18238E+04
  7.27592E+03  3.35039E+04 -3.19432E+04  3.58124E+04 -6.29253E+04  2.38034E+03 -5.62373E+04 -4.21480E+04
 -1.26692E+04 -6.20182E+04  3.93658E+04 -4.49925E+04  5.76348E+04 -1.68724E+03  3.38671E+04  3.17823E+04
 -6.45440E+03  3.47968E+04 -2.87359E+04  1.47327E+04 -2.94639E+04 -4.54312E+03 -1.58594E+04 -1.04382E+04
 -8.12414E+03 -1.26602E+04 -4.65660E+02 -1.71456E+04  7.25686E+03 -2.27754E+04  1.46262E+04 -1.34991E+04
  1.17665E+04  4.76112E+03 -7.21824E+03  1.29507E+04 -2.04355E+04 -3.12040E+03 -8.41081E+03 -3.23713E+04
  2.25029E+04 -4.18351E+04  4.70101E+04 -1.89979E+04  4.39505E+04  1.86192E+04  1.48670E+04  4.35301E+04
 -1.56264E+04  3.29694E+04 -2.39621E+04  2.02402E+03 -9.35134E+03 -2.71168E+04  2.12432E+04 -3.32416E+04
  4.00728E+04 -8.80608E+03  3.45165E+04  2.41233E+04  1.68352E+04  4.48444E+04 -8.06251E+03  4.86793E+04
 -3.03584E+04  3.21191E+04 -4.04371E+04  9.05586E+03 -4.13310E+04 -1.54431E+04 -2.30492E+04 -3.65161E+04
  7.34167E+03 -3.62407E+04  3.04112E+04 -1.40856E+04  2.85064E+04  1.06761E+04  3.74505E+03  1.86153E+04
 -1.30696E+04  7.56584E+03 -1.02322E+04 -7.66609E+03  6.06343E+03 -1.08561E+04  1.83767E+04  6.25834E+03
  1.28708E+04  2.17329E+04 -6.70160E+03  2.43896E+04 -2.21431E+04  1.01738E+04 -2.70558E+04 -5.23232E+03
 -1.86497E+04 -1.75101E+04 -7.28884E+03 -1.89105E+04  3.98326E+03 -1.75990E+04  1.42929E+04 -1.67863E+04
  2.50393E+04 -1.27201E+04  3.08225E+04  2.51365E+03  2.25674E+04  1.77804E+04  5.06498E+03  3.52221E+04
 -1.70137E+04  2.93356E+04 -2.68028E+04  1.00911E+04 -1.98696E+04 -1.00371E+04 -4.31588E+03 -1.39805E+04
  2.05879E+03 -3.33841E+03 -4.44562E+03  5.65501E+03 -1.48775E+04  5.27232E+03 -1.55849E+04 -6.09360E+03
 -1.01546E+04 -1.75308E+04  4.70769E+03 -2.13196E+04  1.40477E+04 -1.57272E+04  1.65260E+04 -1.47187E+03
  1.03590E+04  1.24359E+04 -9.83465E+02  1.79733E+04 -1.13620E+04  1.01310E+04 -1.72517E+04 -3.85325E+03
 -1.25055E+04 -1.58660E+04 -1.45607E+03 -2.12319E+04  9.84996E+03 -1.74608E+04  1.78662E+04 -8.51775E+03
  1.66069E+04  7.77345E+01  1.21998E+04  3.50479E+03  6.03813E+03  1.32813E+03  8.19341E+03 -1.37704E+03
  1.57600E+04  2.62526E+03  1.80872E+04  1.41327E+04  1.13036E+04  2.75251E+04 -3.27767E+03  3.06313E+04
 -1.79792E+04  2.44749E+04 -2.91504E+04  1.17831E+04 -2.97700E+04 -2.60120E+03 -2.54109E+04 -1.68422E+04
 -1.14239E+04 -2.53638E+04  8.28976E+03 -2.26130E+04  1.92265E+04 -1.21027E+04  1.74880E+04  4.73235E+03
  7.03534E+03  1.32594E+04 -7.85007E+03  1.19277E+04 -1.55574E+04  2.37051E+03 -1.17895E+04 -9.02908E+03
 -2.89178E+02 -1.42435E+04  7.31743E+03 -1.07260E+04  9.06499E+03 -1.04286E+03  2.04000E+03  5.73377E+03
 -6.57302E+03  1.82058E+03 -4.95183E+03 -4.99811E+03  6.10660E+01 -1.17429E+04  8.84162E+03 -1.23993E+04
  1.47214E+04 -5.92137E+03  1.56815E+04  2.90644E+03  1.34522E+04  1.12106E+04  6.37208E+03  1.77699E+04
 -2.49591E+03  1.98582E+04 -1.23394E+04  1.30913E+04 -1.39367E+04  3.38376E+03 -1.01886E+04 -2.97908E+03
 -4.61116E+03 -4.02045E+03 -3.51657E+02  1.54298E+03 -1.90474E+03  1.94755E+03 -4.66575E+03  4.02980E+03
 -1.00754E+04 -2.03163E+02 -1.07830E+04 -7.53998E+03 -3.89889E+03 -1.25861E+04  3.85979E+03 -9.89628E+03
  9.09859E+03 -4.38915E+03  6.50595E+03  2.11678E+03  4.79326E+02  3.77280E+03 -4.79228E+03  7.77647E+01
 -4.25397E+03 -6.27951E+03 -9.71342E+02 -9.10131E+03  4.75136E+03 -9.73590E+03  1.17615E+04 -5.29394E+03
  1.42616E+04  1.25236E+03  1.05683E+04  8.24238E+03  1.77262E+03  1.05968E+04 -6.00105E+03  1.00621E+04
 -8.39087E+03  3.39983E+03 -4.04277E+03 -1.61990E+03  1.92648E+03 -2.89715E+03  5.68518E+03 -1.46884E+03
  4.58813E+03  4.08056E+03  1.58263E+03  7.48137E+03 -5.16813E+03  7.82118E+03 -9.60202E+03  2.15522E+03
 -5.97513E+03 -4.37829E+03  1.63146E+02 -7.57627E+03  5.11120E+03 -4.00277E+03  4.39391E+03  1.48273E+03
  7.72528E+02  4.76016E+03 -4.70031E+03  6.25916E+03 -6.40061E+03  3.22638E+03 -6.61538E+03 -1.99650E+03
 -3.88741E+03 -8.17490E+03  1.86622E+03 -9.15104E+03  8.33466E+03 -5.41678E+03  8.89990E+03  1.83303E+03
  6.47856E+03  6.97141E+03  1.01597E+01  8.73051E+03 -6.42071E+03  5.35362E+03 -6.76039E+03 -2.15024E+02
 -6.78954E+03 -6.07853E+03 -2.17531E+03 -7.03273E+03  3.33128E+03 -5.79462E+03  4.11169E+03 -2.91113E+03
  3.52220E+03  2.96493E+02 -8.67925E+02  1.19795E+03  9.09295E+02 -1.36669E+03  4.42384E+02 -3.47199E+03
  4.99312E+03 -1.60783E+03  7.00935E+03  1.26333E+03  7.16120E+03  4.78254E+03  6.16090E+03  9.67344E+03
 -1.66796E+03  1.13951E+04 -9.90939E+03  8.69694E+03 -1.29054E+04  1.19016E+03 -9.41547E+03 -3.69502E+03
 -5.37892E+03 -9.11325E+03 -9.82341E+02 -7.45988E+03  3.00581E+03 -2.82650E+03  2.58372E+03 -2.85287E+03
  1.51944E+03 -1.90694E+03  2.97558E+03 -2.41436E+03  4.68134E+03 -1.84632E+03  4.41943E+03 -3.10671E+02
  5.70015E+03  1.22098E+03  1.62532E+03  4.76889E+03 -1.91051E+03  4.50188E+03 -6.11596E+03  3.94934E+03
 -6.19492E+03 -7.10708E+02 -3.04841E+03 -4.72965E+03 -3.72273E+02 -7.46214E+03  4.01805E+03 -7.43437E+03
  6.21966E+03 -4.39184E+03  8.92170E+03  9.01111E+02  6.40174E+03  6.54514E+03  1.44465E+03  8.00987E+03
 -2.89413E+03  7.34779E+03 -4.63616E+03  2.73529E+03 -2.89226E+03 -1.01920E+03 -5.71648E+02 -7.80075E+02
 -4.41613E+02  4.31118E+02 -1.34311E+03  2.77315E+03 -3.60389E+03  1.25462E+03 -5.67981E+03 -5.91406E+01
 -2.56149E+03 -4.77107E+03  6.82042E+02 -7.14977E+03  3.66476E+03 -5.80342E+03  5.28426E+03 -1.73355E+03
  5.93035E+03  3.55847E+03  2.52699E+03  4.79762E+03 -1.22209E+03  5.91341E+03 -4.39116E+03  3.84983E+03
 -5.56358E+03  8.61284E+02 -4.27908E+03 -4.07787E+03 -4.34093E+02 -4.75849E+03  3.13654E+03 -3.54191E+03
  3.27404E+03 -1.36509E+03  3.18086E+03  4.76745E+02  7.17149E+02  1.86621E+03  1.11885E+03  7.42695E+02
  1.98555E+03  9.56682E+02  1.69600E+03  1.38373E+03  1.47835E+03  2.71981E+03  2.02654E+03  2.77737E+03
 -1.64130E+03  4.80534E+03 -4.11229E+03  5.14262E+03 -5.25686E+03  1.28824E+03 -5.59445E+03 -1.30676E+03
 -3.05717E+03 -5.50017E+03  1.27889E+03 -6.50721E+03  2.47789E+03 -3.38961E+03  4.07942E+03 -1.33113E+03
  3.30616E+03  2.30129E+03  9.71780E+02  3.15726E+03 -1.37897E+03  1.95405E+03 -1.25013E+03 -6.80301E+01
 -8.92069E+02 -2.32981E+03  1.05961E+03 -2.47471E+03  2.13607E+03 -2.50734E+03  2.46453E+03 -4.37693E+01
  7.85144E+02  6.27268E+02  1.06939E+03  4.32711E+01 -6.45437E+02  3.40239E+02  1.13383E+03 -9.06193E+01
  5.13472E+02 -4.77967E+02  2.62076E+03  1.25524E+03  3.56708E+02  3.47946E+03 -3.28297E+02  4.10269E+03
 -2.25469E+03  1.91363E+03 -3.00209E+03  5.84098E+02 -3.39941E+03 -9.10300E+02 -1.07488E+03 -1.69043E+03
  4.65442E+02 -2.13825E+03  1.66779E+03 -8.77155E+02  7.55325E+02  1.32753E+03 -5.93829E+02  1.65103E+03
 -2.02721E+03  1.31300E+03 -1.84837E+03 -1.58479E+03 -1.23220E+03 -2.97427E+03  1.52530E+02 -2.59684E+03
  1.16221E+03 -1.08090E+03  1.04573E+03  2.96987E+02  2.10855E+03  4.19052E+02  4.42664E+02  1.33199E+03
 -5.62056E+02  6.32385E+02 -1.37282E+03 -5.31204E+02  5.53337E+02 -1.71937E+03  2.52533E+03 -1.57784E+03
  2.28940E+03  1.14950E+03  3.87284E+03  1.62209E+03  1.04563E+03  2.63658E+03 -4.76124E+02  2.68056E+03
 -2.64212E+03  6.75728E+02 -2.22895E+03 -1.04256E+03 -1.32214E+03 -1.64591E+03  2.33419E+02 -1.07768E+03
  2.42487E+03 -8.62080E+02  1.72525E+03  1.45782E+03 -2.58352E+02  1.86234E+03  9.16189E+02  2.03238E+03
 -6.67322E+02  1.36625E+03 -7.16522E+02  2.93858E+02 -6.61875E+02  5.54891E+02 -1.73422E+03  8.15812E+02
 -8.27439E+02  1.13450E+03 -2.29879E+03  4.61788E+02 -2.71325E+03 -8.37516E+02 -2.97232E+03 -1.50958E+03
 -1.96414E+03 -3.55036E+03  1.44117E+03 -4.46002E+03  1.99566E+03 -3.22461E+03  4.75787E+03 -1.59788E+03
  4.08392E+03 -2.70918E+02  2.15424E+03  2.18011E+03 -1.82798E+02  2.66406E+03 -1.00493E+03  1.81332E+03
 -1.39206E+03  4.92420E+02 -2.70924E+01  2.31469E+01 -9.32077E+02 -1.00835E+02 -7.45178E+02  1.38468E+02
 -1.38879E+03 -5.57356E+01 -1.29033E+03  2.56311E+02  1.09837E+02 -1.34906E+03 -5.57121E+02 -5.90784E+02
  1.97232E+03 -4.89910E+02  5.81946E+02 -2.13117E+02  1.84541E+03  1.48129E+03 -1.34659E+02  1.82319E+03
 -1.60618E+03  3.62428E+03 -2.66240E+03  1.91851E+03 -3.18612E+03 -9.94354E+02 -2.33165E+03 -2.09780E+03
 -1.08435E+03 -2.80204E+03  7.68506E+02 -2.55559E+03  1.77082E+03 -1.08000E+03  1.76939E+03  5.26081E+01
  1.09627E+03  8.60248E+02 -3.47302E+02  4.53242E+02 -2.11433E+01 -1.66734E+02 -2.40747E+02 -7.63723E+02
  8.11954E+02 -8.17124E+01 -1.88611E+01  7.14483E+02  6.41935E+02  8.44556E+02  1.82193E+02  8.20431E+02
 -1.59220E+03  1.36202E+03 -1.15937E+03  5.14532E+02 -1.26235E+03 -1.06187E+03 -8.98681E+01 -1.97854E+03
  9.73924E+02 -9.85668E+02  1.62149E+03 -3.96113E+02  1.86895E+03 -9.51918E+02  1.06173E+03  1.22749E+03
  7.01691E+02  1.09577E+03 -4.26891E+02  1.22118E+03 -1.30956E+03  1.15019E+03 -9.63706E+02 -3.42478E+02
 -2.92110E+02 -2.39127E+02 -4.86542E+02 -4.79330E+01 -1.13942E+03  3.26542E+02 -1.87499E+03 -4.08684E+02
 -1.51598E+03  3.80196E+02 -8.54555E+02 -1.32140E+03  5.97856E+02 -1.85156E+03  1.08523E+03 -4.14641E+02
  1.16962E+03 -2.03413E+02 -1.06261E+02  4.90725E+02  3.75148E+02  1.42363E+03 -1.08158E+03  8.75963E+02
