 $NMID ID='MM_0lb_SNR400_15hz_g40_67.RAW', FMTDAT='(8E13.5)'
 TRAMP=1., VOLUME=1. $END
  3.09958E+05 -2.32804E+02  3.37179E+05  2.50320E+05  8.41943E+04  3.37692E+05 -1.32788E+05  2.51354E+05
 -1.90106E+05  8.29170E+04 -1.11534E+05 -3.23933E+04  9.42533E+02 -5.07617E+04  5.44616E+04  3.19688E+02
  3.50201E+04  5.36496E+04 -1.67551E+04  7.55509E+04 -6.11084E+04  6.34769E+04 -8.31884E+04  3.22841E+04
 -8.05339E+04 -1.08822E+04 -5.64571E+04 -5.06526E+04 -1.48691E+04 -6.89085E+04  2.77127E+04 -4.53709E+04
  3.95236E+04  3.90975E+03  1.62888E+04  4.75642E+04 -3.39649E+04  4.70508E+04 -6.62125E+04 -1.06859E+03
 -5.26722E+04 -5.60902E+04 -6.43418E+03 -7.60776E+04  3.31567E+04 -5.38522E+04  4.72778E+04 -1.73157E+04
  4.25683E+04  1.07012E+04  3.15283E+04  2.47294E+04  1.58880E+04  2.92460E+04 -4.85696E+03  2.62565E+04
 -2.17557E+04  1.27146E+04 -1.87108E+04 -4.10998E+03  5.47215E+03 -7.25945E+03  2.19678E+04  1.18155E+04
  7.51564E+03  3.42264E+04 -3.18882E+04  3.49044E+04 -6.22781E+04  2.03919E+03 -5.58793E+04 -4.22451E+04
 -1.27637E+04 -6.18423E+04  3.97746E+04 -4.36613E+04  5.70701E+04 -2.10629E+03  3.32576E+04  3.08765E+04
 -6.11899E+03  3.47444E+04 -2.96650E+04  1.43487E+04 -2.93895E+04 -4.66388E+03 -1.54071E+04 -1.11530E+04
 -8.20375E+03 -1.22146E+04 -4.07859E+02 -1.72992E+04  7.38504E+03 -2.29004E+04  1.55599E+04 -1.37784E+04
  1.22686E+04  4.31338E+03 -7.03181E+03  1.25037E+04 -2.05318E+04 -3.65947E+03 -7.86073E+03 -3.23756E+04
  2.17709E+04 -4.23959E+04  4.68544E+04 -1.95769E+04  4.39891E+04  1.87136E+04  1.53675E+04  4.26159E+04
 -1.59866E+04  3.23690E+04 -2.38660E+04  1.86611E+03 -9.25876E+03 -2.75601E+04  2.07997E+04 -3.27642E+04
  4.01449E+04 -8.97176E+03  3.35160E+04  2.31940E+04  1.73948E+04  4.48899E+04 -7.90860E+03  4.78464E+04
 -2.99659E+04  3.15687E+04 -3.99184E+04  8.90149E+03 -4.06906E+04 -1.61535E+04 -2.24415E+04 -3.64390E+04
  7.32758E+03 -3.62495E+04  3.02938E+04 -1.34087E+04  2.79052E+04  1.12680E+04  3.67025E+03  1.79910E+04
 -1.32119E+04  7.85594E+03 -9.99827E+03 -7.87260E+03  6.28229E+03 -1.05620E+04  1.68616E+04  6.30177E+03
  1.31877E+04  2.16050E+04 -6.49553E+03  2.44720E+04 -2.21401E+04  1.02363E+04 -2.61188E+04 -5.39488E+03
 -1.87534E+04 -1.70613E+04 -7.11869E+03 -1.88652E+04  3.47186E+03 -1.72988E+04  1.44319E+04 -1.61733E+04
  2.38251E+04 -1.20403E+04  3.04779E+04  1.84706E+03  2.30341E+04  1.84264E+04  4.08766E+03  3.45550E+04
 -1.65347E+04  2.89063E+04 -2.72832E+04  9.89008E+03 -2.00928E+04 -1.00977E+04 -4.40579E+03 -1.35218E+04
  2.00253E+03 -3.06630E+03 -3.37511E+03  6.50134E+03 -1.46012E+04  4.50037E+03 -1.54115E+04 -5.69855E+03
 -9.40971E+03 -1.73079E+04  4.59715E+03 -2.14590E+04  1.37303E+04 -1.57476E+04  1.62473E+04 -1.17567E+03
  1.04268E+04  1.20266E+04 -5.35833E+02  1.72554E+04 -1.19306E+04  1.02035E+04 -1.72039E+04 -3.73049E+03
 -1.28345E+04 -1.55987E+04 -1.75685E+03 -2.13593E+04  9.89993E+03 -1.74549E+04  1.74989E+04 -8.13161E+03
  1.64141E+04  1.23936E+03  1.14622E+04  4.67904E+03  5.83683E+03  5.30698E+02  8.88343E+03 -1.36296E+03
  1.62272E+04  3.06093E+03  1.68762E+04  1.38319E+04  1.08776E+04  2.75900E+04 -3.21864E+03  3.06864E+04
 -1.82663E+04  2.42695E+04 -2.93520E+04  1.18800E+04 -2.95137E+04 -2.04869E+03 -2.48465E+04 -1.69728E+04
 -1.13516E+04 -2.46412E+04  8.23512E+03 -2.21002E+04  1.89428E+04 -1.15914E+04  1.77462E+04  4.04913E+03
  7.11976E+03  1.30629E+04 -7.34074E+03  1.16286E+04 -1.45647E+04  2.85809E+03 -1.08105E+04 -9.05779E+03
 -5.02394E+02 -1.42170E+04  7.31362E+03 -1.04867E+04  8.58933E+03 -1.80283E+03  1.73690E+03  6.15083E+03
 -6.41983E+03  1.94849E+03 -4.83080E+03 -5.14612E+03  3.93925E+02 -1.20667E+04  8.85730E+03 -1.24493E+04
  1.45315E+04 -6.30833E+03  1.58869E+04  3.02073E+03  1.27978E+04  1.15460E+04  6.12225E+03  1.76218E+04
 -3.01870E+03  1.93447E+04 -1.26063E+04  1.28916E+04 -1.35607E+04  3.59582E+03 -1.00903E+04 -3.01703E+03
 -5.50741E+03 -4.30225E+03 -7.11295E+02  6.00176E+02 -2.08659E+03  2.47216E+03 -4.48947E+03  3.30674E+03
 -9.43691E+03 -4.93214E+02 -9.74263E+03 -8.03756E+03 -3.89155E+03 -1.33659E+04  3.82874E+03 -1.04685E+04
  8.51586E+03 -4.21044E+03  5.90324E+03  1.87221E+03  3.38672E+02  3.45397E+03 -4.47363E+03  4.59347E+02
 -4.39440E+03 -6.40671E+03 -2.75179E+02 -9.44251E+03  5.12927E+03 -1.04626E+04  1.31196E+04 -5.00834E+03
  1.42291E+04  9.24871E+02  1.05889E+04  7.60762E+03  2.00239E+03  1.10561E+04 -5.94254E+03  9.84058E+03
 -8.19195E+03  3.51689E+03 -5.02203E+03 -1.85897E+03  1.69109E+03 -2.59263E+03  5.10186E+03 -1.18893E+03
  4.79257E+03  3.98242E+03  1.23253E+03  7.53913E+03 -5.21872E+03  8.35888E+03 -1.03207E+04  1.70175E+03
 -5.82226E+03 -4.20356E+03 -1.44998E-01 -8.04532E+03  5.06170E+03 -3.82345E+03  5.27354E+03  1.36244E+03
  7.18076E+02  5.92013E+03 -4.61625E+03  6.43876E+03 -6.96087E+03  3.67938E+03 -6.93103E+03 -2.52454E+03
 -4.09737E+03 -8.03405E+03  1.45919E+03 -9.09973E+03  8.07205E+03 -6.24851E+03  8.59172E+03  1.66057E+03
  5.53741E+03  7.06692E+03 -1.16881E+02  9.15924E+03 -6.78486E+03  4.77575E+03 -6.82944E+03 -6.84125E+02
 -7.22541E+03 -6.77502E+03 -1.55856E+03 -6.86324E+03  3.91475E+03 -5.46749E+03  3.21256E+03 -2.85070E+03
  3.20664E+03  4.78236E+02 -2.28038E+01  1.26425E+03 -3.88819E+02 -9.97823E+02  8.40123E+02 -3.03733E+03
  5.41450E+03 -1.96018E+03  8.13442E+03  1.21646E+03  7.72897E+03  4.60120E+03  6.20836E+03  1.05545E+04
 -2.23029E+03  1.19852E+04 -1.05179E+04  9.72111E+03 -1.34913E+04  1.17485E+03 -1.04143E+04 -4.19459E+03
 -5.92935E+03 -8.83845E+03 -1.88434E+02 -7.53204E+03  2.73574E+03 -3.63032E+03  2.42096E+03 -3.08113E+03
  2.25858E+03 -1.88492E+03  2.67656E+03 -2.32062E+03  3.86956E+03 -2.18224E+03  5.06929E+03  1.61520E+02
  5.56862E+03  1.54367E+03  2.79173E+03  4.23857E+03 -1.52458E+03  5.38469E+03 -6.62140E+03  4.26211E+03
 -7.07641E+03 -6.87047E+02 -3.23772E+03 -5.89179E+03  2.87899E+02 -6.89001E+03  4.45297E+03 -6.89716E+03
  7.71913E+03 -5.15597E+03  9.66123E+03  1.19064E+03  6.50833E+03  6.33465E+03  1.70765E+03  8.63203E+03
 -3.01262E+03  8.64153E+03 -5.10228E+03  2.76797E+03 -3.18783E+03 -1.36838E+03 -1.36611E+03 -8.82760E+02
 -6.12716E+02  1.50775E+01 -1.64862E+03  2.13317E+03 -2.57070E+03  1.83032E+03 -5.30990E+03 -3.95753E+02
 -2.86617E+03 -5.24225E+03  9.82750E+02 -5.98068E+03  4.13471E+03 -6.16265E+03  6.79207E+03 -1.96320E+03
  6.98372E+03  4.38565E+03  2.96105E+03  5.05259E+03 -1.26034E+03  6.93482E+03 -4.55936E+03  4.06716E+03
 -5.88226E+03  1.02994E+03 -5.40511E+03 -3.79678E+03 -6.16781E+02 -5.44867E+03  2.71222E+03 -3.66483E+03
  3.89490E+03 -1.55782E+03  2.70880E+03  1.13031E+03  1.58996E+03  2.84652E+03  1.26151E+03  7.10357E+02
  2.08043E+03  1.24006E+03  1.41820E+03  1.45232E+03  1.57548E+03  2.87968E+03  2.02393E+03  3.47262E+03
 -1.59545E+03  5.40027E+03 -4.17610E+03  5.72172E+03 -5.38889E+03  2.01209E+03 -6.83700E+03 -2.28135E+03
 -2.70845E+03 -5.84988E+03  3.07305E+02 -6.86838E+03  3.87370E+03 -4.51594E+03  5.53051E+03 -9.59828E+02
  4.02388E+03  2.92855E+03  9.80045E+02  3.91589E+03 -1.19345E+03  2.46324E+03 -2.13470E+03 -5.15738E+02
 -1.21076E+03 -2.84417E+03  1.51062E+03 -2.19662E+03  1.95103E+03 -1.67148E+03  2.65165E+03  2.31166E+02
  1.12941E+03  8.62650E+02  9.81115E+02  5.82062E+02 -6.66491E+02  1.02536E+03  1.37756E+03 -4.88360E+02
  5.87148E+02 -2.58055E+02  2.93216E+03  1.16194E+03  6.81566E+02  3.26955E+03 -3.59534E+02  4.29028E+03
 -2.93022E+03  2.82214E+03 -3.57211E+03  4.36104E+02 -3.70748E+03 -1.56008E+03 -1.47398E+03 -2.07931E+03
  1.23711E+02 -2.12539E+03  1.46621E+03 -1.17517E+03  1.19804E+03  1.54867E+03 -1.07943E+03  1.57348E+03
 -2.47985E+03  1.47307E+03 -2.60114E+03 -1.98109E+03 -1.58222E+03 -3.24740E+03  5.83686E+02 -2.29647E+03
  1.32163E+03 -1.21065E+03  1.68684E+03 -5.96190E+02  2.10238E+03  6.22983E+02  5.14152E+02  1.30582E+03
 -6.02916E+02  2.08758E+01 -1.66407E+03 -7.65877E+02  6.15748E+02 -1.91548E+03  2.50510E+03 -2.09116E+03
  2.47798E+03  5.64981E+02  4.60754E+03  1.84021E+03  1.56918E+03  3.27419E+03 -8.60592E+02  3.60375E+03
 -2.84620E+03  1.08450E+03 -2.92003E+03 -7.78177E+02 -1.61781E+03 -2.67222E+03  8.41159E+02 -1.52715E+03
  3.02915E+03 -1.06076E+03  2.07152E+03  1.34828E+03 -1.85813E+02  1.95098E+03  3.05001E+02  1.49572E+03
 -8.11442E+02  1.84264E+03 -4.90222E+02  2.50469E+02  2.95498E+02  3.10930E+02 -7.94841E+02  1.05944E+03
 -1.57323E+03  1.73052E+03 -2.74010E+03  1.19563E+03 -3.57202E+03  3.63281E+01 -4.41980E+03 -1.98997E+03
 -2.17147E+03 -3.67723E+03  1.19186E+03 -5.25830E+03  2.64887E+03 -4.11669E+03  5.24166E+03 -1.55833E+03
  4.84321E+03  4.97351E+02  2.17891E+03  2.93015E+03 -4.17151E+02  3.62588E+03 -7.56170E+02  2.40331E+03
 -1.99933E+03  1.89191E+03 -9.16832E+02 -3.04026E+02 -7.54500E+02  3.49671E+02 -7.89582E+01 -1.78348E+02
 -1.09713E+03  6.47605E+02 -1.34342E+03 -3.19015E+02 -3.89416E+02 -1.27719E+03 -2.47939E+02 -1.17064E+03
  1.55576E+03 -8.93564E+02  1.59164E+03 -3.93876E+02  1.77490E+03  2.08331E+03  9.57575E+01  2.98371E+03
 -1.74556E+03  4.26657E+03 -3.54802E+03  1.81142E+03 -3.54513E+03 -6.72696E+02 -2.41118E+03 -2.34261E+03
 -1.94642E+03 -2.42169E+03  6.53086E+02 -2.70701E+03  2.23811E+03 -2.10171E+03  2.16087E+03  3.25069E+02
  6.05760E+02  1.07354E+03  1.51951E+02  7.06131E+02 -8.39601E+02 -3.04768E+02  7.56941E+02 -7.16980E+02
  4.94597E+02  3.91981E+00  6.09382E+02  3.90476E+02  9.24793E+02  1.29137E+03  1.68519E+02  1.44580E+03
 -8.66508E+02  1.22088E+03 -1.25594E+03 -8.23366E+01 -2.29459E+03 -1.46074E+03 -2.46875E+01 -3.06406E+03
  1.49900E+03 -2.52537E+03  1.54033E+03 -2.55128E+02  1.79964E+03 -2.65783E+02  8.35047E+02  1.59897E+03
 -1.19588E+02  2.26760E+03 -1.04667E+03  1.92505E+03 -9.37108E+02  1.01920E+03 -6.32619E+02  9.26025E+01
 -1.44689E+02 -4.56918E+01 -1.32260E+03  7.01525E+02 -6.14111E+02  5.07878E+02 -1.59047E+03 -3.78994E+02
 -1.74891E+03 -5.98259E+02 -4.43004E+02 -1.78393E+03  1.40149E+03 -2.24082E+03  1.71616E+03 -8.24331E+02
  2.25855E+03  2.44635E+02  2.78996E+02  1.52461E+03 -7.68062E+01  1.91337E+03 -1.74568E+03  1.47280E+03
