 $NMID ID='MM_0lb_SNR400_8hz_g55_33.RAW', FMTDAT='(8E13.5)'
 TRAMP=1., VOLUME=1. $END
  3.09903E+05  6.24387E+02  3.37726E+05  2.51134E+05  8.46734E+04  3.38974E+05 -1.32434E+05  2.52062E+05
 -1.90969E+05  8.43668E+04 -1.13384E+05 -3.24138E+04  5.83750E+02 -5.13868E+04  5.32977E+04 -6.17483E+02
  3.52632E+04  5.23487E+04 -1.69798E+04  7.60825E+04 -6.17106E+04  6.44481E+04 -8.57065E+04  3.33895E+04
 -8.38050E+04 -1.27817E+04 -5.78689E+04 -5.29746E+04 -1.53200E+04 -7.13202E+04  2.87836E+04 -4.72436E+04
  4.20955E+04  4.21836E+03  1.61555E+04  4.88372E+04 -3.50672E+04  4.85628E+04 -6.83178E+04  6.89293E+02
 -5.64164E+04 -5.78841E+04 -8.13368E+03 -7.92602E+04  3.45404E+04 -5.83831E+04  4.95450E+04 -1.84654E+04
  4.57808E+04  1.07253E+04  3.30951E+04  2.69303E+04  1.61187E+04  3.18449E+04 -6.06010E+03  2.82181E+04
 -2.23422E+04  1.19318E+04 -1.80396E+04 -6.11956E+03  7.10925E+03 -7.39850E+03  2.33133E+04  1.37957E+04
  7.29044E+03  3.80686E+04 -3.40870E+04  3.72496E+04 -6.63247E+04  1.37108E+03 -5.95471E+04 -4.51070E+04
 -1.28640E+04 -6.66954E+04  4.15620E+04 -4.83457E+04  6.12990E+04 -2.76063E+03  3.74232E+04  3.54474E+04
 -5.47741E+03  4.15074E+04 -3.29999E+04  1.85775E+04 -3.29506E+04 -3.72880E+03 -2.08653E+04 -1.13650E+04
 -1.00858E+04 -1.55947E+04  9.16731E+01 -2.05017E+04  8.94382E+03 -2.46276E+04  1.60794E+04 -1.25517E+04
  9.94943E+03  6.23975E+03 -1.09361E+04  1.37388E+04 -2.39669E+04 -6.54402E+03 -8.44933E+03 -3.86945E+04
  2.53611E+04 -4.77354E+04  5.28784E+04 -2.17878E+04  5.00060E+04  2.08326E+04  1.81947E+04  4.79159E+04
 -1.73816E+04  3.66556E+04 -2.83001E+04  3.07670E+03 -1.24427E+04 -2.99044E+04  2.10766E+04 -3.81100E+04
  4.61553E+04 -1.18833E+04  4.18994E+04  2.40615E+04  2.31989E+04  5.33961E+04 -7.74561E+03  5.75524E+04
 -3.68760E+04  3.98352E+04 -4.86710E+04  1.18025E+04 -4.93864E+04 -2.03794E+04 -2.75744E+04 -4.35547E+04
  8.02804E+03 -4.31175E+04  3.42609E+04 -1.79234E+04  3.32800E+04  1.03104E+04  5.08958E+03  2.23925E+04
 -1.38981E+04  1.02690E+04 -1.09683E+04 -8.24427E+03  5.30700E+03 -1.18837E+04  1.94664E+04  5.54221E+03
  1.50205E+04  2.36205E+04 -4.03388E+03  2.78705E+04 -2.42365E+04  1.58607E+04 -3.25619E+04 -2.78430E+03
 -2.84346E+04 -1.94089E+04 -1.28349E+04 -2.63418E+04  4.38374E+03 -2.78030E+04  2.03587E+04 -2.41537E+04
  3.41011E+04 -1.53605E+04  3.97268E+04  5.38161E+03  2.80223E+04  2.50948E+04  4.29148E+03  4.35172E+04
 -2.04954E+04  3.44191E+04 -3.12829E+04  1.20957E+04 -2.31787E+04 -1.06163E+04 -4.64569E+03 -1.26017E+04
 -2.39974E+02 -8.99729E+02 -8.57273E+03  8.43518E+03 -2.17184E+04  5.40372E+03 -2.28327E+04 -9.81807E+03
 -1.28310E+04 -2.53974E+04  6.41338E+03 -2.95615E+04  1.99313E+04 -2.14476E+04  2.38565E+04 -1.89267E+03
  1.40974E+04  1.74489E+04 -1.14958E+03  2.47043E+04 -1.68441E+04  1.42737E+04 -2.53362E+04 -4.40970E+03
 -1.80897E+04 -2.17071E+04 -2.38129E+03 -3.03435E+04  1.35017E+04 -2.47152E+04  2.42023E+04 -1.34490E+04
  2.39042E+04  7.80593E+01  1.67391E+04  5.18020E+03  9.71889E+03  1.54885E+03  1.29937E+04 -2.22930E+03
  2.27677E+04  3.48576E+03  2.73257E+04  1.87149E+04  1.94045E+04  3.95905E+04 -2.46023E+03  4.73387E+04
 -2.71543E+04  3.96069E+04 -4.43104E+04  2.12381E+04 -4.87980E+04 -3.99684E+03 -3.99721E+04 -2.85529E+04
 -1.54229E+04 -3.88836E+04  1.45859E+04 -3.48906E+04  2.95480E+04 -1.67189E+04  2.55732E+04  8.72306E+03
  7.97568E+03  2.02498E+04 -1.21543E+04  1.67657E+04 -2.09434E+04  2.37348E+03 -1.63655E+04 -1.44827E+04
 -4.54542E+02 -2.06342E+04  1.19498E+04 -1.55101E+04  1.35672E+04 -6.48295E+02  4.48148E+03  8.99511E+03
 -9.22421E+03  5.21036E+03 -1.05883E+04 -7.48223E+03 -1.94427E+03 -2.04408E+04  1.28623E+04 -2.14977E+04
  2.58132E+04 -1.23143E+04  2.86945E+04  3.32646E+03  2.60746E+04  2.10482E+04  1.19070E+04  3.16866E+04
 -6.33961E+03  3.42863E+04 -2.26926E+04  2.16244E+04 -2.56014E+04  3.46861E+03 -1.60155E+04 -5.80144E+03
 -6.45757E+03 -8.68739E+03 -7.86989E+02  5.58167E+02 -3.79890E+03  3.62976E+03 -7.57087E+03  5.03778E+03
 -1.57703E+04 -1.07851E+03 -1.53702E+04 -1.20613E+04 -6.36551E+03 -2.04686E+04  6.43722E+03 -1.76113E+04
  1.37881E+04 -7.37971E+03  9.65710E+03  5.35331E+03 -1.16536E+03  6.08796E+03 -8.84348E+03 -1.23245E+03
 -8.79995E+03 -1.13954E+04 -7.25224E+02 -1.69809E+04  9.85981E+03 -1.84112E+04  2.30174E+04 -9.09993E+03
  2.47284E+04  2.50452E+03  1.89547E+04  1.61556E+04  2.90973E+03  2.15869E+04 -1.06126E+04  1.67318E+04
 -1.46386E+04  4.86088E+03 -7.21028E+03 -4.25157E+03  2.09139E+03 -5.94363E+03  8.83552E+03 -1.44886E+03
  7.50170E+03  8.41055E+03  8.86962E+02  1.43658E+04 -9.61438E+03  1.26008E+04 -1.73849E+04  2.29975E+03
 -1.26282E+04 -8.91667E+03  8.11740E+01 -1.52905E+04  1.02838E+04 -7.83473E+03  1.00221E+04  3.34309E+03
  2.41047E+03  1.11868E+04 -9.23337E+03  1.34246E+04 -1.51829E+04  6.10594E+03 -1.59631E+04 -5.53053E+03
 -9.20441E+03 -1.73197E+04  4.16680E+03 -2.05808E+04  1.76299E+04 -1.21374E+04  1.92686E+04  3.86178E+03
  1.14031E+04  1.50996E+04 -2.02127E+03  1.77961E+04 -1.26234E+04  9.32946E+03 -1.38192E+04 -1.76904E+03
 -1.22776E+04 -1.22311E+04 -1.70988E+03 -1.41521E+04  7.04067E+03 -1.09165E+04  9.14441E+03 -3.65158E+03
  4.84169E+03  2.13559E+03 -4.80842E+02  2.10636E+03 -7.89114E+02 -4.00030E+03  3.00395E+03 -8.19811E+03
  1.32592E+04 -6.34903E+03  1.79403E+04  1.44075E+03  1.82751E+04  1.34026E+04  1.19652E+04  2.38703E+04
 -6.10687E+03  2.76752E+04 -2.30786E+04  1.96586E+04 -2.93121E+04  3.70985E+03 -2.44457E+04 -1.14934E+04
 -1.11813E+04 -1.88443E+04  2.63607E+02 -1.62132E+04  7.02523E+03 -9.37243E+03  5.71752E+03 -6.35563E+03
  4.88760E+03 -3.70581E+03  4.72330E+03 -3.85181E+03  6.61875E+03 -3.69076E+03  8.98783E+03 -1.88822E+03
  1.18956E+04  2.20755E+03  7.22941E+03  1.07901E+04 -3.18223E+03  1.35231E+04 -1.31958E+04  1.02629E+04
 -1.67887E+04 -2.25441E+03 -1.10536E+04 -1.13295E+04 -2.35097E+03 -1.76694E+04  1.05104E+04 -1.83172E+04
  1.95847E+04 -9.53035E+03  2.25184E+04  3.21349E+03  1.49998E+04  1.59545E+04  2.60133E+03  1.99990E+04
 -8.64077E+03  1.59855E+04 -1.25486E+04  5.48386E+03 -8.20256E+03 -2.16607E+03 -3.68238E+03 -1.72686E+03
 -2.11297E+03 -1.03685E+02 -2.67413E+03  3.88441E+03 -6.05856E+03  3.01642E+03 -1.13942E+04 -2.09046E+03
 -8.93267E+03 -1.18592E+04 -1.86031E+02 -1.66466E+04  1.07369E+04 -1.69675E+04  1.68818E+04 -4.53162E+03
  1.77274E+04  8.05098E+03  8.26819E+03  1.49891E+04 -2.57222E+03  1.79825E+04 -1.22689E+04  1.03850E+04
 -1.62785E+04  1.11108E+03 -1.28988E+04 -1.02302E+04 -1.16305E+03 -1.38428E+04  7.52530E+03 -1.08692E+04
  1.09757E+04 -2.34240E+03  7.23391E+03  2.87475E+03  2.49605E+03  5.11114E+03  1.45317E+03  2.24040E+03
  3.33029E+03  1.12365E+03  4.08374E+03  1.77231E+03  5.80855E+03  5.37124E+03  4.68745E+03  9.89230E+03
 -4.00227E+03  1.37203E+04 -1.26000E+04  1.33019E+04 -1.93465E+04  3.39348E+03 -1.79179E+04 -7.51153E+03
 -9.23244E+03 -1.86838E+04  3.45833E+03 -1.96997E+04  1.02596E+04 -1.30923E+04  1.43519E+04 -3.12949E+03
  1.08441E+04  7.43908E+03  3.38650E+03  1.05894E+04 -4.06268E+03  6.30973E+03 -8.03658E+03 -6.95168E+02
 -4.65602E+03 -7.98959E+03  4.52855E+03 -8.07637E+03  7.94265E+03 -4.66035E+03  7.52654E+03  1.02275E+03
  3.52207E+03  3.61302E+03  2.46807E+03  3.81999E+03 -1.21347E+03  3.11322E+03  1.36982E+03 -1.02599E+03
  3.45711E+03 -7.98317E+02  7.01748E+03  2.42470E+03  4.96165E+03  9.78698E+03 -8.99990E+02  1.28061E+04
 -8.83956E+03  8.07379E+03 -1.14341E+04  2.54138E+03 -1.01945E+04 -3.94943E+03 -3.52020E+03 -6.82889E+03
  6.05807E+02 -6.86583E+03  5.03644E+03 -3.46012E+03  3.82716E+03  3.00158E+03 -2.35007E+03  6.63182E+03
 -7.50044E+03  3.12706E+03 -8.06706E+03 -4.41116E+03 -5.09505E+03 -9.86366E+03  9.58842E+02 -1.02294E+04
  6.03151E+03 -6.16882E+03  7.98048E+03 -6.00123E+02  5.64946E+03  2.83470E+03  1.21310E+03  5.59871E+03
 -2.52970E+03  1.26970E+03 -4.25115E+03 -3.92090E+03  1.09280E+03 -8.07951E+03  8.05121E+03 -6.94690E+03
  1.19619E+04  1.43203E+03  1.10868E+04  7.79220E+03  3.64239E+03  1.18970E+04 -4.46273E+03  1.12328E+04
 -9.51166E+03  4.97990E+03 -1.04167E+04 -2.77637E+03 -5.25461E+03 -7.01523E+03  1.67303E+03 -7.79348E+03
  7.14245E+03 -3.51534E+03  6.27272E+03  3.13999E+03  3.13858E+03  7.60491E+03 -2.21988E+03  6.08548E+03
 -2.95318E+03  4.64874E+03 -2.93515E+03  8.35944E+02 -1.07669E+03  1.42377E+03 -1.57449E+03  1.54831E+03
 -3.65821E+03  4.69570E+03 -8.25307E+03  3.94434E+03 -1.20093E+04 -6.39748E+02 -1.36883E+04 -8.56889E+03
 -6.69007E+03 -1.69112E+04  2.88063E+03 -1.90007E+04  1.20812E+04 -1.52416E+04  1.78426E+04 -5.41108E+03
  1.68145E+04  3.41922E+03  1.08445E+04  1.12013E+04  1.05654E+03  1.22695E+04 -4.88161E+03  9.87414E+03
 -6.54594E+03  3.59178E+03 -3.98519E+03 -1.44451E+03 -1.48548E+03 -2.38135E+03 -5.55865E+02 -3.49146E+02
 -1.13244E+03  3.29694E+01 -2.47684E+03  8.89411E+00 -1.00866E+03 -2.80076E+03  2.35653E+02 -4.69920E+03
  5.80998E+03 -4.32990E+03  8.05849E+03  3.39783E+01  9.16474E+03  7.12586E+03  1.88049E+03  1.26096E+04
 -5.79105E+03  1.52162E+04 -1.39319E+04  8.70609E+03 -1.52854E+04 -7.27337E+01 -1.13755E+04 -1.08956E+04
 -4.50935E+03 -1.37301E+04  3.59299E+03 -1.16539E+04  8.53061E+03 -6.55943E+03  9.52487E+03  4.11645E+02
  4.60263E+03  4.10818E+03  3.74343E+02  3.79296E+03 -2.39262E+03 -6.86010E+02 -5.14992E+02 -3.14115E+03
  4.90308E+03 -1.63631E+03  5.92211E+03  1.41735E+03  3.37132E+03  5.42577E+03 -5.04690E+01  8.04476E+03
 -5.43418E+03  6.22701E+03 -8.39753E+03 -1.92745E+02 -8.15717E+03 -6.13854E+03 -1.95820E+03 -1.15432E+04
  6.18340E+03 -9.42538E+03  9.78256E+03 -3.12867E+03  1.05179E+04  2.92831E+03  5.26192E+03  7.85149E+03
  1.45822E+02  9.05310E+03 -3.94496E+03  6.75955E+03 -4.81993E+03  3.62326E+03 -4.93288E+03  3.22235E+02
 -2.87091E+03  3.28447E+02 -2.08658E+03  1.87832E+03 -4.40329E+03  1.41437E+03 -7.10351E+03 -1.04215E+03
 -6.14443E+03 -4.40514E+03 -2.52975E+03 -1.00729E+04  4.07259E+03 -9.81176E+03  8.39404E+03 -3.76765E+03
  9.04766E+03  4.92982E+02  4.67255E+03  7.07093E+03 -6.10262E+02  9.34762E+03 -6.45389E+03  6.43338E+03
