 $NMID ID='MM_0lb_SNR400_16hz_g55_1.RAW', FMTDAT='(8E13.5)'
 TRAMP=1., VOLUME=1. $END
  3.09626E+05  5.15661E+02  3.37735E+05  2.50124E+05  8.51472E+04  3.38131E+05 -1.32973E+05  2.50974E+05
 -1.90300E+05  8.32282E+04 -1.11936E+05 -3.28646E+04  1.22954E+03 -5.06091E+04  5.40400E+04 -2.38923E+02
  3.50749E+04  5.29994E+04 -1.68006E+04  7.49270E+04 -6.07478E+04  6.34811E+04 -8.39370E+04  3.19515E+04
 -8.05515E+04 -1.13154E+04 -5.70040E+04 -5.15294E+04 -1.44327E+04 -6.93310E+04  2.77930E+04 -4.55157E+04
  3.99876E+04  3.62642E+03  1.56582E+04  4.73548E+04 -3.44912E+04  4.72874E+04 -6.61687E+04  1.51928E+02
 -5.31658E+04 -5.65966E+04 -6.96536E+03 -7.69302E+04  3.36851E+04 -5.44451E+04  4.73988E+04 -1.72810E+04
  4.32440E+04  1.14942E+04  3.16040E+04  2.52969E+04  1.53840E+04  2.95094E+04 -5.05540E+03  2.74243E+04
 -2.17885E+04  1.24353E+04 -1.87765E+04 -5.10653E+03  5.54350E+03 -7.98914E+03  2.30264E+04  1.16994E+04
  8.02823E+03  3.47242E+04 -3.22055E+04  3.59643E+04 -6.32789E+04  2.63959E+03 -5.66917E+04 -4.17159E+04
 -1.26430E+04 -6.25929E+04  3.92600E+04 -4.49270E+04  5.74613E+04 -1.87419E+03  3.39783E+04  3.20211E+04
 -5.94705E+03  3.56753E+04 -2.95705E+04  1.50781E+04 -2.97347E+04 -4.31390E+03 -1.63256E+04 -1.06846E+04
 -8.17107E+03 -1.29883E+04 -8.87709E+02 -1.78646E+04  7.23390E+03 -2.24267E+04  1.54796E+04 -1.35595E+04
  1.13178E+04  4.66956E+03 -7.70889E+03  1.26409E+04 -2.13216E+04 -4.28067E+03 -8.59104E+03 -3.29075E+04
  2.19249E+04 -4.26443E+04  4.69119E+04 -1.95679E+04  4.48817E+04  1.92110E+04  1.54724E+04  4.39503E+04
 -1.60800E+04  3.31640E+04 -2.52687E+04  1.95554E+03 -9.14411E+03 -2.77993E+04  2.14488E+04 -3.32155E+04
  4.05043E+04 -8.45334E+03  3.48505E+04  2.37630E+04  1.75156E+04  4.51523E+04 -7.33005E+03  4.93929E+04
 -3.12739E+04  3.30276E+04 -4.09096E+04  9.54949E+03 -4.17260E+04 -1.63718E+04 -2.30933E+04 -3.74706E+04
  7.32393E+03 -3.70343E+04  3.08001E+04 -1.46348E+04  2.91834E+04  1.09144E+04  3.53681E+03  1.86137E+04
 -1.41798E+04  7.35271E+03 -1.07436E+04 -8.16567E+03  5.91318E+03 -1.03969E+04  1.75636E+04  5.75718E+03
  1.27632E+04  2.21089E+04 -5.88668E+03  2.54229E+04 -2.23673E+04  1.11509E+04 -2.71830E+04 -5.47873E+03
 -1.93152E+04 -1.74106E+04 -7.63482E+03 -2.00117E+04  4.64699E+03 -1.87651E+04  1.51626E+04 -1.71086E+04
  2.44517E+04 -1.23418E+04  3.23209E+04  2.20151E+03  2.33120E+04  1.90537E+04  4.74779E+03  3.48976E+04
 -1.64555E+04  2.98231E+04 -2.78524E+04  1.00900E+04 -2.07727E+04 -1.06099E+04 -3.82068E+03 -1.33343E+04
  2.05746E+03 -3.31583E+03 -3.96639E+03  6.82270E+03 -1.54880E+04  5.04652E+03 -1.58635E+04 -6.07591E+03
 -1.00622E+04 -1.75545E+04  5.15469E+03 -2.23303E+04  1.46725E+04 -1.62342E+04  1.69544E+04 -2.05366E+03
  1.08674E+04  1.26472E+04 -1.10109E+03  1.81130E+04 -1.18435E+04  1.01124E+04 -1.79113E+04 -4.23664E+03
 -1.39945E+04 -1.64575E+04 -2.07089E+03 -2.16114E+04  1.00061E+04 -1.79725E+04  1.86809E+04 -8.86248E+03
  1.70271E+04  7.24027E+02  1.23125E+04  4.21926E+03  6.76234E+03  9.63189E+02  9.46087E+03 -1.59301E+03
  1.64675E+04  2.34067E+03  1.75173E+04  1.41204E+04  1.17086E+04  2.83740E+04 -2.93773E+03  3.23835E+04
 -1.87471E+04  2.48177E+04 -3.03119E+04  1.27671E+04 -3.12142E+04 -1.87073E+03 -2.62537E+04 -1.87449E+04
 -1.14412E+04 -2.52099E+04  8.84146E+03 -2.30757E+04  1.94028E+04 -1.23772E+04  1.85915E+04  5.24642E+03
  7.56487E+03  1.33244E+04 -8.05515E+03  1.16881E+04 -1.55934E+04  2.61713E+03 -1.18352E+04 -9.59010E+03
 -1.82484E+02 -1.41418E+04  7.26732E+03 -1.04620E+04  1.03043E+04 -1.31820E+03  1.86107E+03  5.79291E+03
 -6.25623E+03  2.49997E+03 -4.97131E+03 -5.44981E+03 -4.40390E+02 -1.27910E+04  8.40816E+03 -1.17824E+04
  1.58093E+04 -6.75291E+03  1.63246E+04  2.81944E+03  1.39099E+04  1.23602E+04  6.58038E+03  1.82452E+04
 -2.65465E+03  1.99649E+04 -1.29102E+04  1.27329E+04 -1.39252E+04  3.12130E+03 -1.05680E+04 -2.95895E+03
 -5.29655E+03 -4.48658E+03 -4.06805E+02  1.03848E+03 -2.33318E+03  2.71173E+03 -4.67566E+03  4.36993E+03
 -9.99240E+03 -4.93728E+02 -1.09490E+04 -8.40834E+03 -4.50858E+03 -1.29951E+04  4.45161E+03 -1.04812E+04
  7.96838E+03 -4.70238E+03  6.23318E+03  2.76544E+03  1.80210E+01  3.42304E+03 -4.39605E+03 -2.16401E+02
 -4.07097E+03 -6.34109E+03 -1.37122E+03 -9.35085E+03  5.44614E+03 -1.01099E+04  1.26562E+04 -4.88919E+03
  1.49926E+04  6.96671E+02  1.06925E+04  8.53592E+03  1.69596E+03  1.09060E+04 -6.03914E+03  9.57661E+03
 -8.42856E+03  2.59606E+03 -4.70175E+03 -1.95692E+03  1.53082E+03 -2.08135E+03  5.65875E+03 -9.87108E+02
  4.36790E+03  4.19154E+03  1.22915E+03  7.83213E+03 -5.82425E+03  8.07786E+03 -9.95485E+03  1.33863E+03
 -6.27738E+03 -5.39384E+03  1.59376E+02 -7.88352E+03  5.09592E+03 -4.15322E+03  4.82544E+03  2.02151E+03
  5.89824E+02  5.00517E+03 -4.81942E+03  6.70064E+03 -7.29590E+03  2.82879E+03 -6.64274E+03 -2.40846E+03
 -3.89105E+03 -8.80886E+03  1.75336E+03 -9.82765E+03  8.22953E+03 -5.77105E+03  9.48942E+03  1.57634E+03
  5.60770E+03  7.35088E+03 -6.71844E+02  9.74657E+03 -6.74690E+03  5.23377E+03 -6.98568E+03 -9.00944E+02
 -7.01485E+03 -6.61246E+03 -1.84008E+03 -6.81874E+03  3.41363E+03 -5.93881E+03  4.19746E+03 -3.48318E+03
  2.91086E+03  1.03155E+03 -1.22071E+02  1.75230E+03  2.12867E+02 -1.13945E+03  8.42192E+02 -3.57075E+03
  5.33901E+03 -1.53843E+03  8.06873E+03  6.01389E+02  8.05315E+03  5.08015E+03  6.55816E+03  1.02373E+04
 -2.23181E+03  1.21012E+04 -9.85262E+03  9.45076E+03 -1.41795E+04  1.89301E+03 -1.04199E+04 -4.08009E+03
 -5.55220E+03 -8.26919E+03 -2.49368E+02 -7.06077E+03  2.47213E+03 -3.49247E+03  2.37293E+03 -2.55396E+03
  2.08077E+03 -1.90904E+03  2.37206E+03 -2.88267E+03  3.61351E+03 -1.60196E+03  4.78644E+03 -8.92786E+01
  5.22573E+03  7.48016E+02  2.31342E+03  4.95342E+03 -1.97456E+03  4.84197E+03 -5.79402E+03  3.48711E+03
 -6.99870E+03 -5.84183E+02 -3.18067E+03 -5.28721E+03 -2.74781E+02 -6.94417E+03  4.43691E+03 -7.77875E+03
  7.29848E+03 -4.96790E+03  9.43200E+03  7.35339E+02  6.74810E+03  5.83471E+03  1.76201E+03  7.93057E+03
 -3.64939E+03  7.32337E+03 -4.33710E+03  2.27105E+03 -2.44035E+03 -1.36629E+03 -7.99372E+02 -1.08739E+03
 -8.17972E+02  1.80141E+02 -1.29777E+03  2.45117E+03 -3.26561E+03  1.62563E+03 -5.51654E+03 -6.45079E+02
 -2.32762E+03 -4.97776E+03  5.48944E+02 -6.27204E+03  4.39138E+03 -6.35755E+03  5.75421E+03 -2.01263E+03
  5.74301E+03  3.36630E+03  2.86152E+03  5.38396E+03 -1.28267E+03  6.33592E+03 -3.59809E+03  4.13737E+03
 -5.31985E+03  5.32597E+02 -3.48483E+03 -3.64157E+03 -1.93481E+02 -4.37420E+03  2.42013E+03 -4.02835E+03
  3.65422E+03 -1.36304E+03  2.74043E+03  7.77434E+02  1.28452E+03  1.49250E+03  7.24752E+02  1.40875E+03
  2.10591E+03  1.63160E+02  1.32117E+03  1.06972E+03  1.31897E+03  2.89237E+03  1.53296E+03  2.86721E+03
 -2.35516E+03  4.02116E+03 -4.12840E+03  5.22298E+03 -4.89783E+03  1.59178E+03 -6.02742E+03 -9.63816E+02
 -2.13919E+03 -6.18650E+03  1.45186E+03 -6.58604E+03  3.25326E+03 -3.93381E+03  5.10975E+03 -1.11761E+03
  3.36672E+03  2.14530E+03  7.52791E+02  2.78396E+03 -8.95132E+02  2.03490E+03 -1.61332E+03 -7.57377E+02
 -1.35601E+03 -2.67823E+03  1.22673E+03 -3.01680E+03  2.30544E+03 -1.24445E+03  1.93730E+03  1.17990E+03
  6.48521E+02  5.25614E+02  6.23924E+02 -1.62115E+01 -3.65577E+02  8.26326E+02  1.43342E+03 -3.84200E+02
  2.42737E+02 -2.34817E+02  2.39905E+03  6.88612E+02  7.48600E+02  2.83353E+03 -5.28806E+02  4.67191E+03
 -2.55559E+03  1.65610E+03 -3.20746E+03  5.68046E+02 -2.72799E+03 -1.05698E+03 -6.70973E+02 -1.52073E+03
  5.87055E+02 -2.03355E+03  1.71243E+03 -7.14238E+02  1.78037E+03  1.33331E+03 -6.18277E+02  1.63046E+03
 -1.99748E+03  9.25674E+02 -2.19655E+03 -2.04614E+03 -1.18230E+03 -2.82495E+03  1.16164E+03 -3.25117E+03
  7.16682E+02 -1.32525E+03  1.92172E+03  4.64752E+02  2.72185E+03  1.38467E+02  6.64592E+02  1.69973E+03
 -1.16818E+03  1.23845E+03 -1.97287E+03 -6.93670E+02  8.46243E+02 -1.93026E+03  2.63846E+03 -1.63783E+03
  2.59017E+03  1.22394E+02  3.45964E+03  1.64994E+03  1.35992E+03  3.56420E+03  7.25623E+00  2.75807E+03
 -2.45136E+03  1.06219E+03 -2.33390E+03  2.48789E+02 -1.64537E+03 -1.99640E+03  6.76444E+02 -1.22459E+03
  2.29530E+03 -1.21161E+03  1.32903E+03  1.14052E+03  1.17463E+03  2.05212E+03  3.53061E+02  1.82349E+03
 -5.96699E+02  1.48371E+03 -6.66168E+02  3.23202E+02 -5.84800E+02  8.02603E+02 -1.25211E+03  6.84281E+02
 -9.23173E+02  1.15959E+03 -2.34516E+03  5.98773E+02 -2.54779E+03  5.98777E+02 -4.03171E+03 -2.06126E+03
 -2.22491E+03 -4.24779E+03  6.51626E+02 -4.32857E+03  1.84295E+03 -4.06969E+03  3.92982E+03 -1.48567E+03
  4.13942E+03 -2.05933E+02  2.35690E+03  3.15151E+03 -2.76077E+02  3.06195E+03 -8.18343E+02  1.81945E+03
 -1.19196E+03  1.31382E+03 -1.56055E+03 -4.46185E+02 -8.34966E+02  2.26598E+02 -2.91840E+02  2.14545E+02
 -7.60359E+02  2.53545E+02 -1.01772E+03 -5.98629E+01 -2.10227E+02 -1.23027E+03 -3.79945E+02 -3.61365E+02
  1.54945E+03 -7.29810E+02  1.13512E+03 -3.99025E+02  2.33074E+03  9.49498E+02 -9.90274E+01  2.36698E+03
 -1.73939E+03  3.57568E+03 -2.51999E+03  1.92315E+03 -3.36710E+03 -5.14282E+02 -2.65726E+03 -1.51721E+03
 -9.34621E+02 -2.33719E+03  2.92815E+02 -2.78506E+03  3.95143E+02 -1.15538E+03  1.63830E+03  6.96270E+02
  1.69411E+03  4.46846E+02 -3.42879E+02  6.35108E+02 -1.01706E+03  6.16838E+01 -7.29595E+01 -4.80661E+02
  3.80940E+02  4.27067E+01  1.91398E+02  8.47643E+02  5.00994E+02  1.23201E+03  4.98225E+02  5.88112E+02
 -1.07183E+03  1.26321E+03 -1.61630E+03 -1.80807E+02 -1.50880E+03 -7.20262E+02 -1.05364E+02 -2.38291E+03
  1.41740E+03 -1.37950E+03  9.37642E+02 -5.08452E+02  1.88069E+03 -8.53750E+02  7.20085E+02  1.58713E+03
  5.00000E+02  1.08034E+03 -1.96208E+02  9.81936E+02 -1.25396E+03  1.11098E+03 -5.45767E+02  7.08912E+02
  2.02228E+02 -2.76845E+01 -2.67192E+02  1.50957E+02 -6.18139E+02  5.74224E+02 -1.76913E+03  1.74481E+02
 -1.03044E+03  9.06924E+01 -4.83634E+02 -1.61222E+03  8.25499E+02 -1.95234E+03  1.15915E+03 -1.03555E+03
  1.19746E+03 -5.15841E+01  7.16561E+02  8.22527E+02 -4.06554E+02  1.61613E+03 -3.60155E+02  1.08746E+03
