 $NMID ID='MM_0lb_SNR400_8hz_g55_19.RAW', FMTDAT='(8E13.5)'
 TRAMP=1., VOLUME=1. $END
  3.10246E+05  2.98745E+02  3.38450E+05  2.50617E+05  8.50367E+04  3.38805E+05 -1.33084E+05  2.52304E+05
 -1.91238E+05  8.40736E+04 -1.12461E+05 -3.18514E+04 -4.73862E+01 -5.16661E+04  5.35917E+04 -7.67973E+02
  3.58519E+04  5.24545E+04 -1.58379E+04  7.56477E+04 -6.22341E+04  6.50719E+04 -8.60214E+04  3.26630E+04
 -8.24346E+04 -1.06674E+04 -5.84150E+04 -5.28299E+04 -1.45833E+04 -7.05900E+04  2.88664E+04 -4.69835E+04
  4.12887E+04  3.99296E+03  1.71731E+04  4.92245E+04 -3.54795E+04  4.88901E+04 -6.99547E+04 -2.40648E+02
 -5.54735E+04 -5.76487E+04 -7.29343E+03 -8.01094E+04  3.50529E+04 -5.76431E+04  4.98499E+04 -1.81929E+04
  4.54378E+04  1.23534E+04  3.37912E+04  2.69663E+04  1.65316E+04  3.09256E+04 -6.43141E+03  2.87715E+04
 -2.29328E+04  1.14478E+04 -1.71226E+04 -6.84830E+03  6.99202E+03 -8.19583E+03  2.44707E+04  1.46481E+04
  7.25153E+03  3.75330E+04 -3.39299E+04  3.77609E+04 -6.59590E+04  1.78127E+03 -5.84534E+04 -4.45675E+04
 -1.26480E+04 -6.66671E+04  4.28422E+04 -4.78730E+04  6.18166E+04 -1.84380E+03  3.69889E+04  3.40775E+04
 -4.29254E+03  4.00523E+04 -3.11468E+04  1.93847E+04 -3.36312E+04 -3.06084E+03 -1.93662E+04 -1.22244E+04
 -9.86733E+03 -1.59777E+04 -8.94455E+01 -2.03920E+04  8.45150E+03 -2.47199E+04  1.58636E+04 -1.30268E+04
  1.03796E+04  6.71336E+03 -1.14627E+04  1.30588E+04 -2.47889E+04 -7.52394E+03 -8.61597E+03 -3.86337E+04
  2.66550E+04 -4.73687E+04  5.31055E+04 -2.09647E+04  5.00139E+04  2.16478E+04  1.73081E+04  4.81220E+04
 -1.70878E+04  3.67569E+04 -2.83990E+04  3.27033E+03 -1.13711E+04 -2.97271E+04  2.11804E+04 -3.80053E+04
  4.54730E+04 -1.10945E+04  4.22529E+04  2.59977E+04  2.31623E+04  5.18942E+04 -7.70090E+03  5.82665E+04
 -3.59033E+04  3.91894E+04 -4.93529E+04  1.16941E+04 -4.91077E+04 -1.86527E+04 -2.72662E+04 -4.24710E+04
  7.86055E+03 -4.39523E+04  3.56685E+04 -1.82525E+04  3.35724E+04  1.07059E+04  6.48105E+03  2.16566E+04
 -1.44180E+04  9.46933E+03 -1.15562E+04 -7.91968E+03  6.10443E+03 -1.19077E+04  1.85538E+04  6.19673E+03
  1.50912E+04  2.23937E+04 -5.33369E+03  2.67743E+04 -2.29104E+04  1.52462E+04 -3.22208E+04 -2.69703E+03
 -2.65491E+04 -1.84679E+04 -1.26120E+04 -2.67308E+04  5.51210E+03 -2.72542E+04  2.05473E+04 -2.45671E+04
  3.41548E+04 -1.47768E+04  3.90227E+04  6.06432E+03  2.96631E+04  2.58496E+04  4.20866E+03  4.18363E+04
 -2.05501E+04  3.44774E+04 -3.13995E+04  1.20027E+04 -2.26800E+04 -1.02062E+04 -4.80126E+03 -1.37809E+04
  1.06475E+03 -1.02791E+03 -8.34656E+03  8.98270E+03 -2.18477E+04  4.88860E+03 -2.19159E+04 -9.85432E+03
 -1.30543E+04 -2.42372E+04  6.44907E+03 -2.78911E+04  1.95916E+04 -2.09089E+04  2.40004E+04 -1.15361E+03
  1.57939E+04  1.75378E+04 -2.77959E+03  2.42955E+04 -1.73353E+04  1.44965E+04 -2.46132E+04 -5.09764E+03
 -1.88896E+04 -2.18511E+04 -2.17092E+03 -2.96185E+04  1.36543E+04 -2.55362E+04  2.59070E+04 -1.34097E+04
  2.29729E+04  7.89154E+01  1.61090E+04  5.34149E+03  1.00338E+04  1.71554E+03  1.34387E+04 -2.36281E+03
  2.38381E+04  3.30245E+03  2.80328E+04  1.85116E+04  1.94146E+04  4.10310E+04 -2.68579E+03  4.84761E+04
 -2.64738E+04  3.98888E+04 -4.51519E+04  2.15761E+04 -4.84897E+04 -4.22366E+03 -3.88568E+04 -2.78940E+04
 -1.53114E+04 -3.94566E+04  1.41711E+04 -3.57187E+04  2.95815E+04 -1.59384E+04  2.57294E+04  8.80703E+03
  7.89439E+03  1.95238E+04 -1.29919E+04  1.66306E+04 -2.19050E+04  1.67323E+03 -1.58215E+04 -1.29386E+04
 -9.16508E+01 -2.03390E+04  1.06437E+04 -1.55089E+04  1.48746E+04 -1.31181E+03  3.40416E+03  9.66219E+03
 -9.66810E+03  4.67111E+03 -1.06274E+04 -7.54737E+03 -2.13464E+03 -1.99118E+04  1.38247E+04 -2.11204E+04
  2.37196E+04 -1.23580E+04  2.87930E+04  3.68853E+03  2.51750E+04  2.02450E+04  1.14233E+04  3.16397E+04
 -6.62492E+03  3.35633E+04 -2.29138E+04  2.02690E+04 -2.48037E+04  3.79887E+03 -1.65494E+04 -6.82380E+03
 -7.81373E+03 -8.36197E+03  5.29151E+02  3.63638E+02 -4.46534E+03  3.65537E+03 -8.56774E+03  5.09263E+03
 -1.48611E+04 -1.51052E+03 -1.58819E+04 -1.25062E+04 -7.28372E+03 -2.05879E+04  6.11762E+03 -1.76173E+04
  1.38583E+04 -5.91844E+03  9.89941E+03  4.71507E+03 -2.70037E+02  6.54639E+03 -8.71017E+03 -7.80331E+00
 -8.63917E+03 -1.03543E+04 -1.36194E+03 -1.67278E+04  1.02304E+04 -1.84674E+04  2.21509E+04 -1.03006E+04
  2.66968E+04  2.08687E+03  1.89859E+04  1.62283E+04  3.27151E+03  2.20384E+04 -1.07885E+04  1.69632E+04
 -1.36723E+04  4.72895E+03 -6.39840E+03 -3.79548E+03  2.37350E+03 -4.91198E+03  8.89646E+03 -1.00671E+03
  7.66288E+03  7.74209E+03  1.20529E+03  1.37409E+04 -9.85554E+03  1.24949E+04 -1.77419E+04  2.37563E+03
 -1.18926E+04 -9.77400E+03  4.29798E+01 -1.52816E+04  9.39941E+03 -7.40608E+03  9.77342E+03  3.66217E+03
  2.59401E+03  1.16889E+04 -8.93848E+03  1.36818E+04 -1.52700E+04  5.26849E+03 -1.53008E+04 -5.76122E+03
 -9.09508E+03 -1.76497E+04  5.00283E+03 -2.02036E+04  1.80840E+04 -1.23224E+04  1.98089E+04  3.03327E+03
  1.09275E+04  1.39701E+04 -2.06862E+03  1.77156E+04 -1.32548E+04  9.71372E+03 -1.41988E+04 -2.21238E+03
 -1.28666E+04 -1.17141E+04 -2.97750E+03 -1.38476E+04  7.92883E+03 -1.08396E+04  8.81470E+03 -3.90343E+03
  6.47011E+03  2.18093E+03 -7.79468E+02  1.76223E+03 -5.22065E+02 -3.39090E+03  2.64731E+03 -8.70586E+03
  1.22593E+04 -5.86360E+03  1.84062E+04  1.52614E+03  1.73173E+04  1.32494E+04  1.15325E+04  2.35094E+04
 -4.90489E+03  2.72007E+04 -2.25022E+04  1.89922E+04 -2.92875E+04  4.89084E+03 -2.36204E+04 -1.02453E+04
 -1.16835E+04 -1.81884E+04  3.67346E+02 -1.66830E+04  6.32223E+03 -9.60496E+03  5.79441E+03 -6.16393E+03
  5.30188E+03 -3.46693E+03  4.44293E+03 -3.97140E+03  6.51810E+03 -3.61905E+03  8.86621E+03 -1.58586E+03
  1.27388E+04  1.77773E+03  8.26335E+03  1.00240E+04 -2.36912E+03  1.24377E+04 -1.31162E+04  1.06358E+04
 -1.67114E+04 -8.20457E+02 -1.10566E+04 -1.18929E+04 -1.42825E+03 -1.84106E+04  1.01866E+04 -1.80070E+04
  1.88434E+04 -1.01415E+04  2.27437E+04  3.69932E+03  1.47183E+04  1.63105E+04  1.96636E+03  2.07735E+04
 -8.51257E+03  1.58478E+04 -1.26784E+04  5.12663E+03 -8.42634E+03 -6.62236E+02 -3.93330E+03 -3.20295E+03
 -2.41056E+03 -1.45854E+02 -3.09228E+03  3.27312E+03 -6.24683E+03  3.13841E+03 -1.17894E+04 -2.42785E+03
 -9.14820E+03 -1.16476E+04 -1.18818E+03 -1.68433E+04  1.05822E+04 -1.47995E+04  1.70522E+04 -5.12680E+03
  1.65200E+04  7.45795E+03  8.05012E+03  1.49551E+04 -2.42960E+03  1.78814E+04 -1.29810E+04  1.06152E+04
 -1.60495E+04  1.35345E+03 -1.29409E+04 -1.06824E+04 -1.72978E+03 -1.43560E+04  7.93185E+03 -1.02950E+04
  1.11918E+04 -2.91702E+03  7.73246E+03  2.08848E+03  3.44444E+03  5.31359E+03  2.45682E+03  2.85481E+03
  3.31257E+03  1.22603E+03  4.46025E+03  1.45762E+03  5.00156E+03  5.45695E+03  4.99752E+03  8.54308E+03
 -4.01401E+03  1.42834E+04 -1.34615E+04  1.41101E+04 -1.94254E+04  3.80562E+03 -1.80186E+04 -8.57251E+03
 -9.11507E+03 -1.77579E+04  2.93563E+03 -1.99870E+04  1.11660E+04 -1.21164E+04  1.41381E+04 -3.12390E+03
  1.10413E+04  6.54829E+03  2.70994E+03  1.07980E+04 -4.98424E+03  6.31729E+03 -7.62708E+03 -1.08143E+03
 -3.00449E+03 -8.09783E+03  3.05364E+03 -7.65622E+03  7.97380E+03 -4.09524E+03  7.23541E+03  1.90908E+03
  5.08864E+03  3.64049E+03  2.03124E+03  3.28260E+03 -1.62779E+03  1.60895E+03  1.55655E+03 -1.15475E+03
  2.99016E+03 -5.02435E+02  7.24797E+03  1.95846E+03  3.80387E+03  8.94899E+03 -2.20209E+03  1.35074E+04
 -7.14589E+03  8.00566E+03 -1.15265E+04  2.80743E+03 -1.05911E+04 -4.09453E+03 -4.38571E+03 -7.23315E+03
  1.44949E+03 -7.99849E+03  5.04237E+03 -3.52957E+03  3.90689E+03  3.21865E+03 -1.75893E+03  5.69140E+03
 -7.54877E+03  3.10064E+03 -8.80279E+03 -3.29573E+03 -4.85827E+03 -9.68663E+03  1.40798E+03 -1.05321E+04
  6.02179E+03 -5.64091E+03  8.09024E+03 -9.32080E+02  5.71391E+03  3.76545E+03  1.23034E+03  5.86605E+03
 -4.04626E+03  2.04243E+03 -4.84954E+03 -4.03497E+03  2.11754E+03 -8.32683E+03  8.77244E+03 -5.28601E+03
  1.20953E+04  1.52185E+03  1.13710E+04  8.78363E+03  3.20972E+03  1.12298E+04 -4.09248E+03  1.21771E+04
 -9.21786E+03  4.00956E+03 -1.08823E+04 -8.15240E+02 -5.90004E+03 -8.17745E+03  1.80556E+03 -8.13787E+03
  7.23775E+03 -3.64136E+03  5.96057E+03  2.40171E+03  2.86834E+03  6.26530E+03 -1.74278E+03  5.59355E+03
 -3.12352E+03  3.55808E+03 -3.66008E+03  2.89447E+02 -1.44812E+03  6.68939E+02 -1.34482E+03  3.03916E+03
 -2.31609E+03  5.21007E+03 -7.72523E+03  3.98521E+03 -1.27475E+04  4.61393E+02 -1.28953E+04 -7.80532E+03
 -6.21645E+03 -1.50835E+04  3.19120E+03 -1.82588E+04  1.24168E+04 -1.47138E+04  1.83265E+04 -6.25390E+03
  1.61255E+04  4.15533E+03  1.02275E+04  1.14924E+04  1.31323E+03  1.23735E+04 -5.63075E+03  9.00647E+03
 -7.08370E+03  3.45520E+03 -4.56314E+03 -6.28428E+02 -1.48917E+03 -1.62838E+03 -6.30710E+02 -5.89485E+02
 -2.79090E+03  2.21203E+02 -2.65499E+03 -3.13536E+02 -1.47537E+03 -3.45002E+03  2.20697E+01 -4.86043E+03
  5.37523E+03 -4.61378E+03  7.95492E+03 -4.63666E+02  8.79276E+03  6.15148E+03  2.54042E+03  1.36026E+04
 -6.44866E+03  1.46140E+04 -1.38820E+04  9.01070E+03 -1.55019E+04 -1.31408E+03 -1.23921E+04 -9.68921E+03
 -4.70658E+03 -1.39171E+04  3.56186E+03 -1.28791E+04  8.58655E+03 -6.64451E+03  9.71502E+03 -3.98183E+02
  4.82419E+03  3.55000E+03  1.10909E+02  3.50654E+03 -2.42872E+03 -5.60675E+02  7.62876E+01 -3.37295E+03
  4.50738E+03 -3.28713E+03  4.85249E+03  1.55207E+03  2.71556E+03  6.01556E+03  3.21481E+02  6.33213E+03
 -5.03695E+03  6.49063E+03 -8.53371E+03  4.17924E+02 -8.05941E+03 -6.33412E+03 -1.34863E+03 -1.09497E+04
  6.49380E+03 -8.80807E+03  1.05712E+04 -3.52610E+03  9.95821E+03  2.89451E+03  6.79184E+03  8.00170E+03
  1.12894E+03  8.92861E+03 -3.17432E+03  7.52542E+03 -5.84825E+03  4.68493E+03 -4.43176E+03  5.31514E+02
 -1.44252E+03  6.00499E+02 -2.60845E+03  1.61978E+03 -4.13991E+03  1.40822E+03 -7.01648E+03 -2.18719E+03
 -6.22396E+03 -4.65148E+03 -1.98071E+03 -9.60957E+03  3.03863E+03 -8.87049E+03  8.12255E+03 -4.86557E+03
  8.18453E+03  8.10774E+02  5.59365E+03  6.25817E+03 -5.80353E+02  8.16048E+03 -7.25410E+03  6.19671E+03
