 $NMID ID='MM_0lb_SNR400_14hz_g50_93.RAW', FMTDAT='(8E13.5)'
 TRAMP=1., VOLUME=1. $END
  3.09946E+05  3.96332E+02  3.37383E+05  2.50673E+05  8.44027E+04  3.38658E+05 -1.32207E+05  2.51130E+05
 -1.90584E+05  8.29491E+04 -1.11934E+05 -3.26387E+04  4.95387E+02 -5.11930E+04  5.42249E+04  2.93193E+02
  3.57157E+04  5.30243E+04 -1.57874E+04  7.54200E+04 -6.12022E+04  6.40961E+04 -8.42646E+04  3.18534E+04
 -8.14148E+04 -1.21830E+04 -5.72574E+04 -5.14567E+04 -1.52575E+04 -6.96974E+04  2.75189E+04 -4.58219E+04
  3.93337E+04  4.35063E+03  1.62519E+04  4.75969E+04 -3.41079E+04  4.68986E+04 -6.64074E+04  9.18645E+01
 -5.32337E+04 -5.70444E+04 -6.99058E+03 -7.66937E+04  3.36601E+04 -5.45717E+04  4.79861E+04 -1.75257E+04
  4.41351E+04  1.16511E+04  3.13683E+04  2.53997E+04  1.59623E+04  2.93457E+04 -5.90652E+03  2.75283E+04
 -2.19353E+04  1.28566E+04 -1.82957E+04 -4.69843E+03  5.48902E+03 -7.78697E+03  2.23637E+04  1.28418E+04
  6.92378E+03  3.58592E+04 -3.23087E+04  3.54927E+04 -6.35337E+04  2.54102E+03 -5.73946E+04 -4.27478E+04
 -1.28669E+04 -6.34276E+04  3.98788E+04 -4.52444E+04  5.80411E+04 -2.10818E+03  3.37785E+04  3.24782E+04
 -6.15889E+03  3.56624E+04 -3.00909E+04  1.62564E+04 -3.00348E+04 -4.45015E+03 -1.65938E+04 -1.16974E+04
 -8.40170E+03 -1.30453E+04 -8.26593E+02 -1.80552E+04  7.30438E+03 -2.31556E+04  1.55621E+04 -1.30995E+04
  1.16201E+04  5.55275E+03 -8.12736E+03  1.24207E+04 -2.18151E+04 -4.18995E+03 -8.63319E+03 -3.38941E+04
  2.25633E+04 -4.37080E+04  4.78938E+04 -1.89314E+04  4.47744E+04  1.95768E+04  1.57187E+04  4.41420E+04
 -1.54274E+04  3.33501E+04 -2.52710E+04  2.05648E+03 -1.00636E+04 -2.79489E+04  2.10949E+04 -3.41600E+04
  4.10749E+04 -9.65263E+03  3.59527E+04  2.34487E+04  1.81694E+04  4.63740E+04 -7.93092E+03  5.00369E+04
 -3.12895E+04  3.33542E+04 -4.22821E+04  9.91474E+03 -4.29948E+04 -1.70075E+04 -2.41349E+04 -3.80697E+04
  7.31264E+03 -3.83598E+04  3.18994E+04 -1.53847E+04  2.94338E+04  1.09592E+04  4.00886E+03  1.91216E+04
 -1.31777E+04  8.77422E+03 -1.06088E+04 -6.93538E+03  5.66699E+03 -1.07317E+04  1.79851E+04  5.79155E+03
  1.34999E+04  2.17460E+04 -5.95625E+03  2.49486E+04 -2.24523E+04  1.16490E+04 -2.81975E+04 -4.78811E+03
 -2.11655E+04 -1.78211E+04 -8.25512E+03 -2.07925E+04  4.06437E+03 -1.97192E+04  1.60627E+04 -1.82588E+04
  2.62278E+04 -1.24279E+04  3.24161E+04  2.40351E+03  2.41360E+04  1.99031E+04  3.90305E+03  3.63401E+04
 -1.73789E+04  3.01997E+04 -2.75729E+04  9.89481E+03 -2.09016E+04 -1.05171E+04 -4.26521E+03 -1.40376E+04
  1.66438E+03 -2.97311E+03 -4.96079E+03  7.35811E+03 -1.58696E+04  4.77625E+03 -1.60680E+04 -7.47261E+03
 -1.06369E+04 -1.91524E+04  4.98479E+03 -2.33102E+04  1.55794E+04 -1.67218E+04  1.82462E+04 -1.68534E+03
  1.11775E+04  1.28954E+04 -1.22394E+03  1.91842E+04 -1.32619E+04  1.09028E+04 -1.97232E+04 -3.87389E+03
 -1.43933E+04 -1.71842E+04 -1.38868E+03 -2.28406E+04  1.11017E+04 -1.94780E+04  1.97118E+04 -9.84813E+03
  1.75760E+04  3.97398E+02  1.30982E+04  4.10423E+03  6.87230E+03  1.34561E+03  1.01636E+04 -1.81828E+03
  1.80072E+04  2.56465E+03  1.93352E+04  1.46110E+04  1.25041E+04  3.08062E+04 -2.37937E+03  3.47457E+04
 -1.99723E+04  2.78088E+04 -3.21867E+04  1.38288E+04 -3.35558E+04 -2.69677E+03 -2.78406E+04 -1.98276E+04
 -1.18580E+04 -2.74368E+04  1.01116E+04 -2.50953E+04  2.14339E+04 -1.30967E+04  1.92126E+04  5.47725E+03
  6.68013E+03  1.43120E+04 -9.27708E+03  1.24751E+04 -1.66895E+04  2.13804E+03 -1.24585E+04 -9.41867E+03
 -4.44182E+02 -1.47960E+04  8.02585E+03 -1.21557E+04  9.54712E+03 -1.03239E+03  2.00659E+03  6.21817E+03
 -7.17107E+03  2.47302E+03 -5.76030E+03 -6.24618E+03 -5.36039E+02 -1.38608E+04  8.93765E+03 -1.39969E+04
  1.74977E+04 -7.40630E+03  1.81614E+04  3.03623E+03  1.52120E+04  1.32980E+04  7.46033E+03  2.04718E+04
 -2.72916E+03  2.24013E+04 -1.46852E+04  1.33354E+04 -1.62197E+04  3.65199E+03 -1.14330E+04 -2.75753E+03
 -5.53978E+03 -5.56873E+03 -5.73183E+02  7.28608E+02 -2.41812E+03  2.59589E+03 -5.15500E+03  4.77250E+03
 -1.09990E+04 -4.70630E+02 -1.12609E+04 -8.71871E+03 -4.58245E+03 -1.47281E+04  3.86501E+03 -1.13564E+04
  9.52790E+03 -4.87903E+03  7.06105E+03  3.30686E+03  4.76518E+02  3.93170E+03 -5.05896E+03 -6.47331E+02
 -5.34823E+03 -6.56398E+03 -5.90299E+02 -1.10598E+04  5.57292E+03 -1.20265E+04  1.39625E+04 -6.14419E+03
  1.65246E+04  8.14932E+02  1.19008E+04  8.96155E+03  2.17684E+03  1.26775E+04 -7.07014E+03  1.16623E+04
 -9.09654E+03  3.24719E+03 -4.52503E+03 -1.98508E+03  1.68123E+03 -3.39966E+03  6.04709E+03 -3.33712E+02
  5.53414E+03  4.17123E+03  9.73523E+02  9.30861E+03 -6.30298E+03  9.15579E+03 -1.09585E+04  2.49707E+03
 -7.06158E+03 -4.61221E+03  3.07409E+02 -8.79933E+03  4.83436E+03 -4.95001E+03  5.71697E+03  1.76139E+03
  1.84148E+03  6.51612E+03 -5.50764E+03  7.82355E+03 -8.15188E+03  3.05060E+03 -7.73471E+03 -3.00532E+03
 -5.32165E+03 -9.92511E+03  2.83216E+03 -1.08723E+04  9.68513E+03 -7.94413E+03  1.06773E+04  1.21824E+03
  6.46831E+03  8.65737E+03 -1.01600E+02  1.05881E+04 -7.44181E+03  5.57634E+03 -8.36529E+03 -1.11156E+03
 -7.55470E+03 -7.72462E+03 -1.24888E+03 -7.57822E+03  4.16379E+03 -6.32633E+03  4.39141E+03 -3.73700E+03
  3.36027E+03  1.06599E+03 -1.68264E+02  2.04016E+03  5.19245E+02 -1.36292E+03  1.09508E+03 -4.15316E+03
  6.36532E+03 -2.41230E+03  9.63202E+03  1.13945E+03  9.50080E+03  6.46059E+03  6.87192E+03  1.22886E+04
 -2.65827E+03  1.44772E+04 -1.26992E+04  1.05902E+04 -1.59248E+04  1.54655E+03 -1.23987E+04 -5.08513E+03
 -6.44080E+03 -1.00499E+04 -4.53095E+02 -8.40820E+03  3.52081E+03 -4.18567E+03  2.78973E+03 -3.24249E+03
  1.83469E+03 -2.39323E+03  2.94639E+03 -3.17057E+03  3.89225E+03 -2.30536E+03  4.95301E+03  3.42864E+02
  6.73840E+03  2.24334E+03  2.45243E+03  5.80978E+03 -1.78183E+03  6.15310E+03 -6.78798E+03  4.83488E+03
 -9.02823E+03 -1.23572E+03 -4.58571E+03 -5.23948E+03 -8.72736E+01 -9.12488E+03  5.10451E+03 -8.81737E+03
  9.09110E+03 -4.80873E+03  1.13084E+04  1.22107E+03  7.81226E+03  8.08182E+03  1.19798E+03  9.69782E+03
 -3.57563E+03  8.61314E+03 -5.29719E+03  3.13977E+03 -3.55844E+03 -1.79308E+03 -1.21549E+03 -1.17950E+03
 -1.35613E+03  6.07710E+01 -1.82986E+03  2.81343E+03 -4.35659E+03  1.18848E+03 -6.26584E+03 -8.08122E+02
 -3.86701E+03 -6.27154E+03  5.99774E+02 -8.10524E+03  4.96370E+03 -7.77797E+03  7.53008E+03 -2.48541E+03
  7.24830E+03  4.19394E+03  3.88969E+03  6.83270E+03 -1.97756E+03  8.00927E+03 -5.18416E+03  4.96274E+03
 -7.38955E+03  5.43510E+02 -5.86051E+03 -4.78672E+03 -5.09196E+02 -6.55138E+03  3.70171E+03 -4.85863E+03
  4.46603E+03 -2.05104E+03  3.28479E+03  6.66106E+02  1.05228E+03  2.80286E+03  9.21341E+02  9.41918E+02
  2.23309E+03  1.02674E+03  2.26326E+03  1.83878E+03  2.16379E+03  3.23053E+03  2.59034E+03  4.42031E+03
 -1.81528E+03  5.34398E+03 -5.10179E+03  6.67348E+03 -6.86441E+03  1.85007E+03 -7.72670E+03 -2.12635E+03
 -4.20879E+03 -7.07985E+03  8.03072E+02 -9.31201E+03  3.99197E+03 -5.53598E+03  6.75107E+03 -1.50957E+03
  4.71408E+03  2.99025E+03  8.02698E+02  4.54987E+03 -1.88475E+03  2.11811E+03 -2.97730E+03 -8.91328E+02
 -1.43023E+03 -2.87872E+03  2.01586E+03 -3.12484E+03  2.42260E+03 -1.63842E+03  2.86770E+03  4.12677E+02
  2.14100E+03  9.79543E+02  1.02909E+03  4.93034E+02 -5.95960E+02  2.03033E+03  1.56510E+03 -7.02684E+02
  8.41620E+02  3.33849E+02  3.04563E+03  1.21125E+03  1.32229E+03  4.89048E+03 -1.39991E+03  5.55259E+03
 -3.23436E+03  2.73313E+03 -4.53992E+03  5.95202E+02 -3.89674E+03 -1.81645E+03 -1.55358E+03 -3.01542E+03
  3.10235E+02 -2.43974E+03  1.67267E+03 -1.57671E+03  1.73031E+03  1.73498E+03 -1.09960E+03  2.64259E+03
 -2.89208E+03  1.46321E+03 -3.12292E+03 -2.01366E+03 -1.17655E+03 -3.96090E+03  5.73342E+02 -3.77031E+03
  1.43858E+03 -2.06900E+03  2.22768E+03  6.27805E+02  3.01809E+03  8.51552E+02  1.04783E+03  2.78484E+03
 -1.31084E+03  8.75301E+02 -2.26349E+03 -1.22139E+03  9.18485E+02 -2.14219E+03  3.56098E+03 -2.43180E+03
  3.90909E+03  4.21846E+02  4.54964E+03  3.12881E+03  1.36171E+03  3.86678E+03 -9.42694E+02  4.57102E+03
 -3.95552E+03  1.36654E+03 -3.72765E+03 -1.17296E+02 -1.74650E+03 -3.13778E+03  7.37909E+02 -2.02065E+03
  3.13056E+03 -1.13848E+03  2.07986E+03  1.50226E+03  3.12216E+02  2.70805E+03  1.05741E+02  2.11612E+03
 -8.69582E+02  1.71929E+03 -1.20550E+03  7.42383E+02 -4.95390E+02  6.56219E+02 -1.36653E+03  8.72008E+02
 -1.14331E+03  1.93325E+03 -3.34761E+03  1.19546E+03 -4.63700E+03 -6.69694E+02 -5.15231E+03 -2.65378E+03
 -3.15614E+03 -5.76852E+03  9.35168E+02 -6.43228E+03  4.17824E+03 -4.89432E+03  5.79243E+03 -1.58618E+03
  5.53758E+03  6.71128E+02  3.07569E+03  3.73057E+03 -1.03644E+03  3.64790E+03 -1.91261E+03  3.15241E+03
 -2.47280E+03  1.11048E+03 -1.13649E+03 -8.00201E+02 -9.04469E+02 -1.01227E+02  2.25103E+02  3.90151E+01
 -9.75485E+02 -6.53776E+02 -1.27488E+03  4.78559E+02  1.21459E+02 -1.75933E+03  3.72522E+02 -1.25266E+03
  1.11948E+03 -9.26776E+02  2.21623E+03 -1.53784E+02  2.51111E+03  2.20270E+03  2.76621E+02  3.47026E+03
 -2.11370E+03  4.88609E+03 -3.86971E+03  2.88916E+03 -4.52622E+03  1.08232E+02 -2.90899E+03 -3.50926E+03
 -1.40705E+03 -4.34601E+03  8.80239E+02 -3.38441E+03  1.74944E+03 -2.19162E+03  2.43117E+03  2.00348E+01
  1.74738E+03  1.06140E+03  9.39866E+01  8.54235E+02 -6.19169E+02  2.12498E+02  3.56880E+01 -8.03200E+02
  1.35030E+03 -1.33836E+02  1.36420E+03  5.15391E+02  6.76833E+02  1.34764E+03  8.21437E+02  1.43200E+03
 -1.12491E+03  1.22374E+03 -2.82963E+03  2.90056E+02 -2.00823E+03 -1.57209E+03 -6.05083E+01 -3.54143E+03
  1.26496E+03 -2.29859E+03  2.54984E+03 -4.61630E+02  2.93702E+03 -1.95975E+02  1.63568E+03  1.94042E+03
  6.67748E+02  2.67561E+03 -1.19929E+03  1.96567E+03 -1.06070E+03  7.59119E+02 -1.49562E+03  3.51037E+02
 -1.10742E+03 -3.15105E+02 -1.40056E+03  4.15593E+02 -1.16572E+03  7.68131E+02 -2.36219E+03 -4.78485E+02
 -2.45162E+03 -9.87417E+02  1.19840E+01 -2.72136E+03  1.71676E+03 -3.35621E+03  2.28795E+03 -9.35783E+02
  2.48457E+03  6.29635E+01  1.17292E+03  6.43176E+02  2.86878E+02  2.20788E+03 -1.35306E+03  1.79086E+03
