 $NMID ID='MM_0lb_SNR400_18hz_g45_37.RAW', FMTDAT='(8E13.5)'
 TRAMP=1., VOLUME=1. $END
  3.10195E+05  2.28973E+02  3.36689E+05  2.50623E+05  8.49405E+04  3.37176E+05 -1.32476E+05  2.50512E+05
 -1.89823E+05  8.33291E+04 -1.10682E+05 -3.32296E+04  1.19966E+03 -5.02807E+04  5.37425E+04  7.82968E+02
  3.49074E+04  5.24960E+04 -1.66960E+04  7.50993E+04 -6.04161E+04  6.29533E+04 -8.33909E+04  3.15998E+04
 -7.93241E+04 -1.15852E+04 -5.62661E+04 -5.02644E+04 -1.51921E+04 -6.85042E+04  2.67938E+04 -4.50037E+04
  3.90793E+04  4.14225E+03  1.53409E+04  4.70835E+04 -3.42643E+04  4.56067E+04 -6.53351E+04 -1.91431E+02
 -5.19004E+04 -5.61686E+04 -6.24326E+03 -7.51283E+04  3.32214E+04 -5.32042E+04  4.63628E+04 -1.67156E+04
  4.22859E+04  1.12913E+04  3.05228E+04  2.45978E+04  1.55536E+04  2.85659E+04 -4.66503E+03  2.68695E+04
 -2.17120E+04  1.29156E+04 -1.89317E+04 -4.54610E+03  3.76768E+03 -7.13824E+03  2.14168E+04  1.05241E+04
  7.77087E+03  3.35262E+04 -3.01862E+04  3.35913E+04 -6.14043E+04  2.39195E+03 -5.55938E+04 -4.14094E+04
 -1.22034E+04 -6.09200E+04  3.82448E+04 -4.37611E+04  5.57743E+04 -2.04089E+03  3.16789E+04  3.00319E+04
 -6.04935E+03  3.31126E+04 -2.81473E+04  1.35657E+04 -2.75097E+04 -6.04231E+03 -1.41980E+04 -1.06043E+04
 -7.51835E+03 -1.19268E+04 -1.78303E+02 -1.64469E+04  6.01270E+03 -2.27128E+04  1.48792E+04 -1.42369E+04
  1.21546E+04  4.36556E+03 -6.10567E+03  1.30253E+04 -1.95546E+04 -3.18841E+03 -7.66231E+03 -3.04504E+04
  2.10633E+04 -4.07872E+04  4.47875E+04 -1.84231E+04  4.18240E+04  1.81162E+04  1.44558E+04  4.21616E+04
 -1.56584E+04  3.13994E+04 -2.39185E+04  1.80791E+03 -8.36845E+03 -2.65291E+04  2.02827E+04 -3.15353E+04
  3.80667E+04 -7.64186E+03  3.16880E+04  2.25853E+04  1.55771E+04  4.25684E+04 -8.06044E+03  4.52236E+04
 -2.87188E+04  2.97791E+04 -3.78248E+04  8.34692E+03 -3.88695E+04 -1.48686E+04 -2.12601E+04 -3.45302E+04
  6.88321E+03 -3.42354E+04  2.93797E+04 -1.26932E+04  2.71238E+04  1.08867E+04  2.61073E+03  1.79832E+04
 -1.32854E+04  7.42627E+03 -9.71383E+03 -7.89940E+03  5.62395E+03 -1.04408E+04  1.72052E+04  6.18602E+03
  1.24352E+04  2.14064E+04 -6.94239E+03  2.37532E+04 -2.16934E+04  9.18469E+03 -2.52085E+04 -5.90067E+03
 -1.71536E+04 -1.61406E+04 -5.85983E+03 -1.70531E+04  3.44311E+03 -1.47472E+04  1.24482E+04 -1.43804E+04
  2.12874E+04 -1.10954E+04  2.87647E+04  1.06661E+03  2.09150E+04  1.66103E+04  4.30647E+03  3.25455E+04
 -1.64555E+04  2.75270E+04 -2.65081E+04  9.27147E+03 -1.96506E+04 -1.01563E+04 -3.95112E+03 -1.43395E+04
  2.47494E+03 -3.94019E+03 -2.52585E+03  5.24009E+03 -1.28514E+04  5.51702E+03 -1.35115E+04 -5.12747E+03
 -8.67569E+03 -1.60387E+04  4.74636E+03 -1.96978E+04  1.26114E+04 -1.45786E+04  1.47882E+04 -1.96728E+03
  9.07092E+03  1.12259E+04 -1.58396E+03  1.51806E+04 -1.05022E+04  9.10765E+03 -1.50449E+04 -3.71000E+03
 -1.19795E+04 -1.41954E+04 -1.67833E+03 -1.90150E+04  8.76746E+03 -1.57316E+04  1.60545E+04 -7.37943E+03
  1.42372E+04  7.50816E+02  1.03849E+04  3.96554E+03  5.94598E+03  6.19438E+02  7.40471E+03 -1.72749E+03
  1.46699E+04  2.93116E+03  1.50890E+04  1.28109E+04  9.41518E+03  2.51591E+04 -3.41335E+03  2.70592E+04
 -1.59151E+04  2.09724E+04 -2.50801E+04  9.81956E+03 -2.54818E+04 -2.41200E+03 -2.15671E+04 -1.47421E+04
 -1.02072E+04 -2.09468E+04  6.71028E+03 -1.95647E+04  1.66113E+04 -1.12829E+04  1.60676E+04  3.67225E+03
  6.60889E+03  1.15054E+04 -7.21951E+03  1.03550E+04 -1.35812E+04  2.21451E+03 -1.08959E+04 -7.87882E+03
 -4.90579E+02 -1.27699E+04  6.65415E+03 -1.00773E+04  8.05489E+03 -1.32919E+03  1.65328E+03  4.87427E+03
 -5.87556E+03  8.35253E+02 -3.67983E+03 -4.84935E+03  4.62610E+02 -1.03103E+04  7.63224E+03 -1.01754E+04
  1.21040E+04 -4.86757E+03  1.30477E+04  2.95958E+03  1.04696E+04  9.55712E+03  4.70894E+03  1.39677E+04
 -2.01588E+03  1.59953E+04 -9.79287E+03  1.05006E+04 -1.11799E+04  2.81598E+03 -8.56856E+03 -1.60225E+03
 -4.39579E+03 -3.36460E+03 -9.64100E+02  1.64817E+03 -1.25908E+03  1.91341E+03 -4.08820E+03  3.75040E+03
 -8.53143E+03 -3.90147E+02 -8.38594E+03 -7.21503E+03 -3.92669E+03 -1.17949E+04  3.91797E+03 -8.54218E+03
  7.43194E+03 -4.05597E+03  5.34802E+03  2.65657E+03  3.68996E+02  3.14628E+03 -3.77414E+03  4.05663E+01
 -3.50844E+03 -5.19876E+03 -5.61625E+02 -7.13331E+03  4.35147E+03 -8.34361E+03  1.02533E+04 -3.97502E+03
  1.24406E+04  9.45229E+02  9.15272E+03  6.37558E+03  2.29596E+03  8.99329E+03 -5.23052E+03  8.43425E+03
 -6.83617E+03  2.66747E+03 -4.05375E+03 -1.57674E+03  1.14510E+03 -1.91652E+03  5.02422E+03 -1.01461E+03
  4.58851E+03  3.72120E+03  1.07472E+03  6.47368E+03 -4.69342E+03  6.25892E+03 -7.68251E+03  1.81068E+03
 -4.87867E+03 -3.67432E+03  1.82915E+02 -7.12828E+03  4.34610E+03 -3.32771E+03  3.31396E+03  1.28448E+03
  1.32194E+02  3.17487E+03 -4.09443E+03  4.93219E+03 -5.51004E+03  2.10371E+03 -4.46079E+03 -1.42365E+03
 -2.32602E+03 -6.09760E+03  8.28401E+02 -7.04688E+03  6.18312E+03 -4.77454E+03  6.55775E+03  6.27227E+02
  4.40652E+03  5.50670E+03  3.21378E+02  8.11222E+03 -5.18727E+03  4.17273E+03 -5.19036E+03  2.91508E+02
 -6.01269E+03 -5.31558E+03 -1.24264E+03 -5.24576E+03  2.81297E+03 -4.88478E+03  3.41713E+03 -3.07056E+03
  2.49338E+03 -1.63775E+02 -1.52425E+02  1.44898E+03  4.57296E+02 -2.48129E+02  1.17724E+02 -2.14407E+03
  4.02228E+03 -8.54318E+02  5.36529E+03  9.07047E+02  6.17730E+03  3.20640E+03  5.03425E+03  7.32683E+03
 -1.20314E+03  9.32472E+03 -8.49195E+03  6.90077E+03 -9.91069E+03  1.37260E+03 -7.64972E+03 -2.71366E+03
 -4.18869E+03 -7.00375E+03 -2.65714E+02 -5.01160E+03  1.97816E+03 -2.28140E+03  1.63568E+03 -2.07361E+03
  1.14774E+03 -1.56620E+03  2.19235E+03 -2.06218E+03  3.58639E+03 -1.61548E+03  3.90500E+03 -1.53864E+02
  4.74619E+03  1.67446E+03  1.03461E+03  3.50859E+03 -1.69800E+03  3.07937E+03 -4.67479E+03  2.00434E+03
 -4.49897E+03 -1.19736E+03 -1.86185E+03 -3.47712E+03 -4.14408E+02 -5.08383E+03  3.11496E+03 -5.57626E+03
  5.52934E+03 -3.26759E+03  7.22945E+03  4.13975E+02  5.26530E+03  4.51955E+03  1.12294E+03  6.59653E+03
 -2.60787E+03  5.68582E+03 -3.59067E+03  1.73755E+03 -2.03887E+03 -6.54735E+02 -7.71105E+02 -7.84190E+02
 -6.72303E+02  7.59246E+02 -1.08030E+03  1.29353E+03 -2.80120E+03  1.04754E+03 -4.08309E+03 -5.91742E+02
 -1.47671E+03 -4.11745E+03  6.96910E+02 -4.69683E+03  2.69565E+03 -4.06498E+03  3.44477E+03 -7.28766E+02
  4.35716E+03  2.07483E+03  2.39556E+03  3.55898E+03 -1.09679E+03  4.58179E+03 -3.52968E+03  2.78003E+03
 -3.81375E+03  7.42521E+02 -4.03776E+03 -2.88935E+03 -1.46903E+02 -3.60634E+03  2.35534E+03 -2.82987E+03
  3.10823E+03 -1.32831E+03  2.12989E+03  2.29835E+02  3.36644E+02  2.63824E+03  1.07068E+03  8.46763E+02
  1.54516E+03  4.32947E+02  1.24075E+03  1.04586E+03  1.12671E+03  2.40890E+03  1.25680E+03  1.70698E+03
 -1.38158E+03  3.13386E+03 -3.28390E+03  4.45356E+03 -3.14965E+03  1.12757E+03 -4.61830E+03 -6.09746E+02
 -1.70185E+03 -4.25946E+03  3.47993E+02 -5.00096E+03  2.03407E+03 -2.41807E+03  3.66509E+03 -1.16012E+03
  3.00584E+03  2.27076E+03  3.52349E+02  2.20601E+03 -1.30244E+03  1.10914E+03 -1.08190E+03 -1.73222E+02
 -2.33819E+02 -1.32264E+03  1.29538E+03 -1.79779E+03  1.15642E+03 -1.35821E+03  1.06654E+03  6.22513E+02
  1.33075E+03  5.02622E+02  3.75152E+02  1.48829E+02 -2.09393E+02  7.80532E+02  1.42309E+03 -3.97885E+02
 -9.53567E+01 -4.87704E+02  2.21066E+03  3.88571E+02 -1.87934E+02  2.61017E+03 -6.55096E+01  2.81172E+03
 -1.50984E+03  1.03258E+03 -2.49380E+03  4.64141E+02 -2.25536E+03 -1.17692E+03 -8.63230E+02 -1.20322E+03
  9.35106E+02 -1.92191E+03  1.03941E+03 -1.00809E+03  4.44316E+02  1.17813E+03 -8.01058E+02  7.65844E+02
 -1.85536E+03  1.23574E+03 -7.00311E+02 -1.21217E+03 -6.70243E+02 -2.66972E+03  5.69432E+02 -1.70107E+03
  1.13503E+03 -8.20242E+02  1.06002E+03  2.15139E+02  1.04270E+03 -3.51860E+02  1.28358E+02  1.24019E+03
 -2.52668E+01 -6.36508E+01 -8.79785E+02 -1.38042E+02  7.96576E+02 -5.57880E+02  1.65590E+03 -8.80216E+02
  1.63738E+03  2.67432E+02  2.70751E+03  8.36750E+02  9.73292E+02  1.84954E+03 -4.94771E+02  2.27027E+03
 -1.36468E+03  4.12167E+02 -1.79311E+03 -5.83378E+02 -4.01554E+02 -1.80128E+03 -3.47884E+01 -6.70920E+02
  1.74733E+03 -3.78714E+02  7.54535E+02  6.73923E+02  4.15848E+02  1.62323E+03  5.93431E+02  9.03548E+02
 -6.86115E+02  1.27986E+03 -1.81022E+02  1.35609E+02  7.81224E+01  4.31333E+02 -7.66285E+02  1.20835E+03
 -3.31625E+02  6.87203E+02 -1.71119E+03  4.06014E+02 -1.80545E+03  3.23520E+02 -2.59373E+03 -7.62059E+02
 -1.40618E+03 -2.17457E+03  8.36248E+02 -3.70882E+03  6.57433E+02 -2.83679E+03  2.94087E+03 -1.42248E+03
  2.66975E+03  4.50393E+02  1.30959E+03  1.41715E+03 -7.80638E+02  1.32921E+03 -8.94261E+02  1.97194E+03
 -1.21012E+03  1.05767E+03 -2.87485E+02 -3.44497E+02 -1.59859E+01  9.86569E+02 -1.02947E+03 -5.85979E+02
 -1.65410E+03  1.47760E+02 -9.54788E+02  1.36828E+02 -4.67654E+02 -4.93756E+02 -3.95678E+02 -6.77199E+02
  9.33689E+02 -7.63594E+02  6.90249E+02  2.23851E+02  1.30348E+03  1.43658E+03 -8.58808E+01  1.73393E+03
 -1.04397E+03  2.55349E+03 -1.73967E+03  1.79451E+03 -1.77819E+03 -5.07066E+02 -1.36275E+03 -1.65717E+03
 -1.31312E+03 -1.25795E+03  2.78244E+02 -1.28569E+03  4.47040E+02 -5.06526E+01  1.20765E+03  5.94889E+02
  1.27383E+03  4.88213E+02 -4.57162E+01  5.13961E+02 -7.21877E+02  1.71203E+02 -1.13831E+02 -7.50447E+01
  3.96173E+02  2.12092E+02  3.33984E+02  4.59337E+02 -2.78018E+02  2.13425E+02  5.29627E+02  5.29093E+01
 -3.12588E+02  4.99362E+02 -4.40165E+02 -1.69639E+00 -4.62949E+02 -8.64480E+02 -5.61179E+02 -1.71617E+03
  6.75608E+02 -9.02720E+02  5.81271E+02 -3.50571E+02  8.42363E+02 -6.96210E+01  6.86987E+02  6.72962E+02
  1.05294E+03  1.16367E+03 -4.34759E+02  8.46637E+02 -8.84866E+02  2.91031E+02 -5.59635E+02  4.44024E+02
 -6.06134E+02 -4.10466E+02 -5.13578E+02  1.11931E+02 -8.55814E+02  5.76233E+02 -8.41215E+02 -4.07011E+02
 -1.30216E+03 -8.62482E+01  2.54644E+01 -7.94796E+02  9.05441E+02 -1.93261E+03  9.93433E+02 -3.41334E+02
  1.02340E+03 -1.58532E+02  4.99581E+01  3.85402E+01 -7.69544E+01  1.14501E+03 -3.21298E+02  5.14699E+02
