 $NMID ID='MM_0lb_SNR400_7hz_g55_77.RAW', FMTDAT='(8E13.5)'
 TRAMP=1., VOLUME=1. $END
  3.09630E+05  3.44609E+02  3.38310E+05  2.51115E+05  8.55739E+04  3.39195E+05 -1.32559E+05  2.52000E+05
 -1.90605E+05  8.42406E+04 -1.12792E+05 -3.20134E+04 -4.10571E+02 -5.05086E+04  5.31601E+04 -1.53513E+03
  3.55198E+04  5.30067E+04 -1.82126E+04  7.66049E+04 -6.15847E+04  6.44587E+04 -8.64711E+04  3.23790E+04
 -8.33802E+04 -1.19938E+04 -5.87998E+04 -5.33566E+04 -1.52975E+04 -7.19339E+04  2.86542E+04 -4.73471E+04
  4.25762E+04  2.82396E+03  1.61713E+04  4.84028E+04 -3.50803E+04  4.96433E+04 -6.89285E+04  6.80877E+02
 -5.45656E+04 -5.86559E+04 -7.83713E+03 -7.93568E+04  3.58293E+04 -5.83491E+04  5.07405E+04 -1.84031E+04
  4.57122E+04  1.19654E+04  3.38231E+04  2.72535E+04  1.52143E+04  3.08196E+04 -5.19186E+03  2.80735E+04
 -2.29493E+04  1.13199E+04 -1.78246E+04 -6.18043E+03  7.15758E+03 -7.48178E+03  2.41955E+04  1.45574E+04
  8.13747E+03  3.80200E+04 -3.44487E+04  3.86314E+04 -6.64953E+04  2.20344E+03 -5.96454E+04 -4.46496E+04
 -1.26215E+04 -6.73838E+04  4.27879E+04 -4.88930E+04  6.24638E+04 -3.45445E+03  3.82940E+04  3.57016E+04
 -5.36540E+03  4.13731E+04 -3.35010E+04  2.07045E+04 -3.46397E+04 -3.50369E+03 -2.09413E+04 -1.25861E+04
 -1.00205E+04 -1.55784E+04  3.59118E+02 -2.11146E+04  9.05584E+03 -2.46641E+04  1.63731E+04 -1.30527E+04
  9.80145E+03  6.09707E+03 -1.16588E+04  1.23281E+04 -2.52381E+04 -7.67200E+03 -8.59917E+03 -4.04662E+04
  2.59978E+04 -4.82431E+04  5.41580E+04 -2.09602E+04  5.12522E+04  2.15594E+04  1.90600E+04  4.79872E+04
 -1.65716E+04  3.77222E+04 -2.86733E+04  3.47196E+03 -1.26269E+04 -2.92895E+04  2.19041E+04 -3.89699E+04
  4.68132E+04 -1.26110E+04  4.30193E+04  2.66551E+04  2.27214E+04  5.26319E+04 -8.58550E+03  5.87504E+04
 -3.70906E+04  4.12702E+04 -5.08132E+04  1.04734E+04 -5.02805E+04 -1.91745E+04 -2.71953E+04 -4.43805E+04
  8.49415E+03 -4.37729E+04  3.57735E+04 -1.84582E+04  3.36360E+04  1.18043E+04  6.28269E+03  2.09575E+04
 -1.40537E+04  1.07938E+04 -1.05496E+04 -7.58855E+03  5.44727E+03 -1.19491E+04  2.00396E+04  6.10864E+03
  1.49124E+04  2.32155E+04 -5.79720E+03  2.79782E+04 -2.38921E+04  1.58079E+04 -3.33413E+04 -1.23420E+03
 -2.81356E+04 -1.88264E+04 -1.25923E+04 -2.74214E+04  4.31509E+03 -2.92169E+04  2.26367E+04 -2.53729E+04
  3.55997E+04 -1.44579E+04  4.03756E+04  5.79761E+03  2.81609E+04  2.64213E+04  4.55313E+03  4.37945E+04
 -2.04920E+04  3.54609E+04 -3.24980E+04  1.19491E+04 -2.30033E+04 -1.04052E+04 -4.46543E+03 -1.27073E+04
 -2.16441E+02  7.77293E+02 -9.32000E+03  9.36479E+03 -2.34566E+04  4.62978E+03 -2.17736E+04 -1.13539E+04
 -1.32971E+04 -2.48331E+04  6.86197E+03 -2.99778E+04  2.06584E+04 -2.12659E+04  2.50569E+04 -1.14756E+03
  1.62230E+04  1.75790E+04 -1.24982E+03  2.55185E+04 -1.84528E+04  1.47836E+04 -2.60536E+04 -5.12172E+03
 -1.94901E+04 -2.30828E+04 -3.06981E+03 -3.02009E+04  1.39044E+04 -2.52301E+04  2.52998E+04 -1.33760E+04
  2.42373E+04 -1.31086E+03  1.74909E+04  6.51305E+03  1.05211E+04  2.06725E+03  1.34947E+04 -1.11343E+03
  2.39101E+04  2.06396E+03  2.83832E+04  2.02380E+04  2.06631E+04  4.12180E+04 -1.29255E+03  4.95003E+04
 -2.81214E+04  4.23087E+04 -4.75617E+04  2.15426E+04 -5.10479E+04 -4.47798E+03 -4.02314E+04 -2.93863E+04
 -1.55811E+04 -4.33641E+04  1.49004E+04 -3.65075E+04  3.02196E+04 -1.69580E+04  2.60778E+04  9.69462E+03
  8.31578E+03  2.14018E+04 -1.34145E+04  1.75872E+04 -2.29804E+04  2.71205E+03 -1.74973E+04 -1.39771E+04
 -4.57849E+02 -2.15509E+04  1.16885E+04 -1.59111E+04  1.52616E+04 -1.70366E+03  4.00645E+03  1.01486E+04
 -1.02783E+04  4.66049E+03 -1.03505E+04 -7.66288E+03 -2.01197E+03 -1.95478E+04  1.25298E+04 -2.32784E+04
  2.57354E+04 -1.32804E+04  3.10621E+04  3.32405E+03  2.74737E+04  2.16526E+04  1.30767E+04  3.42572E+04
 -6.99266E+03  3.65197E+04 -2.41408E+04  2.21175E+04 -2.52161E+04  4.45382E+03 -1.77908E+04 -7.60136E+03
 -6.97796E+03 -8.95087E+03  2.54304E+02  1.16332E+03 -3.23460E+03  3.01002E+03 -7.92250E+03  6.39206E+03
 -1.62212E+04 -1.73824E+03 -1.65907E+04 -1.29165E+04 -8.08340E+03 -2.25749E+04  7.41620E+03 -1.83065E+04
  1.42948E+04 -7.90404E+03  1.10458E+04  4.51112E+03 -2.51698E+02  7.21167E+03 -1.02357E+04 -8.66029E+02
 -8.69209E+03 -1.28184E+04 -1.39300E+03 -1.78595E+04  1.15917E+04 -1.95351E+04  2.32678E+04 -1.02372E+04
  2.73932E+04  2.27645E+03  1.93585E+04  1.77474E+04  3.92480E+03  2.24501E+04 -1.15090E+04  1.83773E+04
 -1.50498E+04  4.11771E+03 -7.49801E+03 -4.40867E+03  2.55195E+03 -5.45179E+03  9.66150E+03 -1.14295E+03
  8.28588E+03  8.33628E+03  1.36375E+03  1.50102E+04 -1.05158E+04  1.36932E+04 -1.88914E+04  2.89280E+03
 -1.32421E+04 -1.00812E+04  1.20187E+01 -1.62889E+04  1.07586E+04 -7.73187E+03  1.18425E+04  4.24209E+03
  2.78841E+03  1.17327E+04 -9.89685E+03  1.39264E+04 -1.68545E+04  5.08641E+03 -1.79811E+04 -5.30628E+03
 -1.00928E+04 -1.90376E+04  5.40636E+03 -2.24787E+04  1.75777E+04 -1.31631E+04  2.07789E+04  4.82517E+03
  1.29340E+04  1.63928E+04 -2.28857E+03  1.92200E+04 -1.36525E+04  1.11173E+04 -1.54369E+04 -1.89086E+03
 -1.23818E+04 -1.20340E+04 -1.66419E+03 -1.53412E+04  8.08291E+03 -1.19326E+04  1.04714E+04 -3.94301E+03
  5.33587E+03  1.97086E+03 -2.22646E+03  2.79913E+03 -1.65236E+03 -4.79577E+03  2.82572E+03 -9.64472E+03
  1.40024E+04 -6.86506E+03  1.94315E+04  3.03502E+03  1.93388E+04  1.30824E+04  1.20314E+04  2.66847E+04
 -5.95699E+03  3.00283E+04 -2.43642E+04  2.25575E+04 -3.23665E+04  4.35320E+03 -2.54464E+04 -1.12830E+04
 -1.33372E+04 -2.07172E+04  6.42239E+02 -1.91839E+04  7.13972E+03 -1.08225E+04  6.17729E+03 -6.97097E+03
  4.45818E+03 -3.31312E+03  4.58492E+03 -4.50811E+03  6.69595E+03 -3.70577E+03  1.02798E+04 -2.66097E+03
  1.31402E+04  3.32607E+03  7.47409E+03  1.24404E+04 -2.27629E+03  1.55280E+04 -1.39769E+04  1.06204E+04
 -1.91899E+04 -1.03744E+03 -1.24373E+04 -1.31565E+04 -1.63108E+03 -2.07654E+04  1.08213E+04 -2.03296E+04
  2.17775E+04 -1.12445E+04  2.51140E+04  3.34576E+03  1.69207E+04  1.82237E+04  3.02574E+03  2.30895E+04
 -9.74577E+03  1.84419E+04 -1.36462E+04  6.64401E+03 -1.02414E+04 -1.26250E+03 -4.28219E+03 -3.31124E+03
 -2.05624E+03 -1.21144E+03 -2.59367E+03  3.57556E+03 -6.93289E+03  3.04656E+03 -1.25996E+04 -1.95258E+03
 -9.73141E+03 -1.28803E+04 -1.03010E+02 -1.90641E+04  1.28110E+04 -1.67865E+04  1.98508E+04 -6.73317E+03
  1.81601E+04  8.53763E+03  9.82472E+03  1.79334E+04 -4.08639E+03  1.82397E+04 -1.43796E+04  1.19592E+04
 -1.75362E+04  2.65750E+02 -1.34084E+04 -1.15513E+04 -2.09199E+03 -1.60587E+04  8.79451E+03 -1.22110E+04
  1.26152E+04 -3.19565E+03  7.89997E+03  3.38331E+03  1.74823E+03  6.48585E+03  1.39611E+03  2.94306E+03
  2.69100E+03  2.15998E+03  4.43167E+03  1.86625E+03  6.32500E+03  7.06186E+03  5.34794E+03  1.07378E+04
 -3.58417E+03  1.59807E+04 -1.38045E+04  1.48473E+04 -2.05419E+04  3.73276E+03 -2.02882E+04 -8.67388E+03
 -1.06925E+04 -2.01953E+04  2.88663E+03 -2.23861E+04  1.14309E+04 -1.39035E+04  1.59852E+04 -3.10478E+03
  1.29101E+04  6.97041E+03  2.54189E+03  1.18703E+04 -5.79767E+03  6.85355E+03 -7.68919E+03 -8.19178E+02
 -4.42502E+03 -9.54093E+03  4.15775E+03 -8.99543E+03  8.41681E+03 -4.81722E+03  9.40169E+03  2.05790E+03
  5.20186E+03  3.55798E+03  1.23965E+03  4.11329E+03 -1.07750E+03  3.09450E+03  1.14051E+03 -1.38996E+03
  2.99224E+03 -1.52188E+03  8.48374E+03  3.02639E+03  4.75758E+03  1.10466E+04 -1.07137E+03  1.40369E+04
 -1.00155E+04  9.76271E+03 -1.32637E+04  2.44998E+03 -1.14581E+04 -4.35175E+03 -4.89911E+03 -9.50674E+03
  2.18890E+03 -8.88732E+03  5.45917E+03 -4.07099E+03  4.36859E+03  3.54171E+03 -1.93227E+03  6.47964E+03
 -8.74173E+03  4.29773E+03 -1.08694E+04 -5.17668E+03 -6.18246E+03 -1.12774E+04  2.56348E+03 -1.23490E+04
  7.29353E+03 -7.63527E+03  8.57211E+03 -1.00918E+03  7.18046E+03  2.76346E+03  1.07922E+03  6.44392E+03
 -4.81875E+03  7.08523E+02 -6.06050E+03 -4.50088E+03  2.15444E+03 -9.41078E+03  1.04459E+04 -7.69938E+03
  1.43662E+04  4.87944E+02  1.25071E+04  9.52932E+03  4.20931E+03  1.44062E+04 -5.58935E+03  1.38204E+04
 -1.22638E+04  5.86286E+03 -1.26250E+04 -1.73824E+03 -6.18724E+03 -9.75397E+03  2.51750E+03 -1.04241E+04
  8.99690E+03 -4.53907E+03  7.91574E+03  5.15464E+03  2.35446E+03  7.84707E+03 -1.90421E+03  6.39644E+03
 -3.51776E+03  4.04820E+03 -2.22155E+03  2.53696E+03 -1.83755E+03  1.30222E+03 -2.33652E+03  2.06042E+03
 -3.45499E+03  4.44618E+03 -9.40594E+03  5.08745E+03 -1.48823E+04 -5.88027E+01 -1.60839E+04 -9.15746E+03
 -8.01903E+03 -1.95990E+04  3.42477E+03 -2.30507E+04  1.40622E+04 -1.66010E+04  2.18032E+04 -6.89212E+03
  1.96111E+04  4.32569E+03  1.24975E+04  1.23200E+04  1.15865E+03  1.56367E+04 -5.72324E+03  1.18833E+04
 -8.38885E+03  3.47314E+03 -4.38979E+03 -2.06873E+03 -1.98206E+03 -2.41304E+03 -1.05760E+03 -1.02921E+03
 -2.30527E+03  8.90987E+02 -2.99446E+03 -5.19787E+02 -9.51956E+02 -2.67223E+03  6.37860E+02 -5.96866E+03
  6.08442E+03 -5.02742E+03  1.01882E+04 -3.10498E+02  1.04309E+04  7.95454E+03  2.49154E+03  1.62760E+04
 -6.89004E+03  1.63444E+04 -1.56268E+04  9.53017E+03 -1.82476E+04 -1.52457E+03 -1.39836E+04 -1.21615E+04
 -5.89531E+03 -1.62595E+04  4.38779E+03 -1.43393E+04  1.05685E+04 -9.02729E+03  1.00086E+04  5.47568E+02
  4.75040E+03  4.72445E+03 -8.68761E+02  4.06371E+03 -2.68441E+03  1.22777E+02 -2.39442E+02 -3.74464E+03
  4.41442E+03 -3.00475E+03  7.49828E+03  2.31980E+03  4.05716E+03  5.98555E+03 -1.36416E+02  7.82082E+03
 -6.37924E+03  7.85374E+03 -1.05027E+04  5.95297E+02 -9.69478E+03 -7.28464E+03 -2.24350E+03 -1.37654E+04
  7.93243E+03 -1.12899E+04  1.16520E+04 -4.41063E+03  1.23195E+04  3.17800E+03  6.70987E+03  1.00080E+04
  1.15175E+03  1.11504E+04 -4.85986E+03  8.31346E+03 -6.66145E+03  4.32040E+03 -4.53772E+03  1.48434E+02
 -3.22617E+03 -4.07891E+02 -2.95985E+03  1.51449E+03 -6.04369E+03  1.77463E+03 -8.01975E+03 -1.39204E+03
 -7.35174E+03 -5.97997E+03 -3.69248E+03 -1.08544E+04  4.91460E+03 -1.11470E+04  8.97615E+03 -5.65806E+03
  1.18724E+04  6.54275E+02  6.43178E+03  8.29555E+03 -2.12705E+03  1.08114E+04 -8.26199E+03  7.01508E+03
