 $NMID ID='MM_0lb_SNR400_18hz_g55_69.RAW', FMTDAT='(8E13.5)'
 TRAMP=1., VOLUME=1. $END
  3.09492E+05  5.92438E+02  3.37138E+05  2.50338E+05  8.45179E+04  3.37474E+05 -1.32533E+05  2.50518E+05
 -1.89769E+05  8.27008E+04 -1.11267E+05 -3.25004E+04  6.58947E+02 -5.05882E+04  5.43884E+04 -1.16256E+01
  3.54441E+04  5.26316E+04 -1.72078E+04  7.56702E+04 -6.05930E+04  6.31583E+04 -8.40065E+04  3.12350E+04
 -8.08683E+04 -1.16031E+04 -5.65575E+04 -5.08049E+04 -1.46690E+04 -6.87648E+04  2.68888E+04 -4.51526E+04
  3.93428E+04  4.24663E+03  1.58931E+04  4.77716E+04 -3.39470E+04  4.63041E+04 -6.58705E+04 -4.08263E+02
 -5.23947E+04 -5.58571E+04 -6.73402E+03 -7.59818E+04  3.35259E+04 -5.43825E+04  4.72506E+04 -1.75047E+04
  4.26101E+04  1.13518E+04  3.12536E+04  2.52532E+04  1.55560E+04  2.85883E+04 -5.46120E+03  2.69446E+04
 -2.13266E+04  1.24212E+04 -1.86322E+04 -4.21687E+03  5.20798E+03 -7.46391E+03  2.18150E+04  1.17134E+04
  7.55520E+03  3.37068E+04 -3.12750E+04  3.47162E+04 -6.20304E+04  1.67619E+03 -5.56750E+04 -4.17429E+04
 -1.21306E+04 -6.20136E+04  3.83939E+04 -4.40054E+04  5.63346E+04 -1.96224E+03  3.31429E+04  3.11568E+04
 -5.66794E+03  3.48780E+04 -2.88924E+04  1.41865E+04 -2.90454E+04 -5.03757E+03 -1.52624E+04 -1.03251E+04
 -7.89617E+03 -1.21347E+04 -7.01496E+02 -1.70061E+04  6.95988E+03 -2.24931E+04  1.57306E+04 -1.39552E+04
  1.20955E+04  4.34442E+03 -6.37255E+03  1.30822E+04 -1.98637E+04 -3.47318E+03 -8.52542E+03 -3.18005E+04
  2.13093E+04 -4.17259E+04  4.64107E+04 -1.92263E+04  4.36289E+04  1.90786E+04  1.49018E+04  4.29611E+04
 -1.59129E+04  3.22570E+04 -2.37784E+04  1.41314E+03 -9.47556E+03 -2.68455E+04  2.09225E+04 -3.15534E+04
  3.92453E+04 -7.43525E+03  3.30400E+04  2.31724E+04  1.64677E+04  4.44472E+04 -8.12876E+03  4.72891E+04
 -2.96606E+04  3.15618E+04 -3.92904E+04  9.00676E+03 -3.93186E+04 -1.58586E+04 -2.15834E+04 -3.53715E+04
  7.30850E+03 -3.53968E+04  3.03008E+04 -1.31565E+04  2.79297E+04  1.12233E+04  3.12730E+03  1.83006E+04
 -1.30448E+04  7.13074E+03 -1.01171E+04 -7.74850E+03  5.37261E+03 -1.00519E+04  1.77506E+04  6.94187E+03
  1.28359E+04  2.16467E+04 -6.23051E+03  2.30628E+04 -2.16393E+04  1.01482E+04 -2.62221E+04 -5.87901E+03
 -1.81565E+04 -1.67401E+04 -6.47076E+03 -1.83766E+04  4.75860E+03 -1.61342E+04  1.38229E+04 -1.53441E+04
  2.28567E+04 -1.17058E+04  2.99526E+04  1.94538E+03  2.23081E+04  1.78076E+04  4.42807E+03  3.36034E+04
 -1.66895E+04  2.84053E+04 -2.66095E+04  9.89950E+03 -2.03001E+04 -9.97306E+03 -4.05105E+03 -1.36983E+04
  2.42990E+03 -3.90415E+03 -2.85458E+03  6.19834E+03 -1.42999E+04  4.84493E+03 -1.42612E+04 -5.68565E+03
 -9.17099E+03 -1.60941E+04  5.01239E+03 -2.02870E+04  1.32240E+04 -1.48306E+04  1.59095E+04 -1.10102E+03
  9.92391E+03  1.14742E+04 -6.43658E+02  1.69002E+04 -1.14866E+04  9.82302E+03 -1.63093E+04 -4.04305E+03
 -1.23446E+04 -1.52774E+04 -1.41810E+03 -1.99227E+04  8.90493E+03 -1.60452E+04  1.67287E+04 -7.78598E+03
  1.55939E+04  9.10917E+02  1.13933E+04  4.32569E+03  6.32853E+03  1.01643E+03  8.15704E+03 -1.00180E+03
  1.51157E+04  2.90796E+03  1.59963E+04  1.38550E+04  9.94440E+03  2.69557E+04 -3.10795E+03  2.91394E+04
 -1.71008E+04  2.24562E+04 -2.68036E+04  1.04522E+04 -2.75822E+04 -1.97601E+03 -2.31833E+04 -1.57633E+04
 -1.02678E+04 -2.22880E+04  7.78348E+03 -2.05339E+04  1.81037E+04 -1.13709E+04  1.68571E+04  4.47397E+03
  7.41212E+03  1.20511E+04 -8.07660E+03  1.12953E+04 -1.41237E+04  2.40532E+03 -1.13148E+04 -8.67191E+03
 -7.01022E+01 -1.31234E+04  6.41074E+03 -1.02471E+04  8.61693E+03 -1.13837E+03  1.52844E+03  5.56134E+03
 -5.13550E+03  1.85730E+03 -4.04140E+03 -4.55993E+03  5.14332E+02 -1.08454E+04  8.65354E+03 -1.12146E+04
  1.36099E+04 -5.58664E+03  1.36781E+04  2.49645E+03  1.18573E+04  1.07518E+04  5.81265E+03  1.57994E+04
 -2.31901E+03  1.73040E+04 -1.09822E+04  1.08127E+04 -1.23098E+04  2.87401E+03 -9.08138E+03 -2.10808E+03
 -4.84791E+03 -4.28354E+03 -6.49480E+02  1.62173E+03 -1.67426E+03  2.83979E+03 -4.49130E+03  3.72207E+03
 -8.38729E+03 -1.94602E+02 -9.18986E+03 -7.32322E+03 -3.35823E+03 -1.25196E+04  4.05430E+03 -8.81873E+03
  7.49253E+03 -4.07816E+03  5.79142E+03  2.45204E+03  6.66693E+02  2.87227E+03 -3.89617E+03 -4.43418E+02
 -3.85174E+03 -5.52911E+03 -9.12687E+02 -8.39778E+03  4.30768E+03 -9.02995E+03  1.16403E+04 -4.94033E+03
  1.27986E+04  7.92231E+02  9.44727E+03  6.61711E+03  2.00077E+03  8.97837E+03 -5.32195E+03  8.98968E+03
 -7.09681E+03  2.84449E+03 -3.46542E+03 -1.44432E+03  1.34147E+03 -2.30638E+03  5.03115E+03 -5.16078E+02
  4.48227E+03  3.27508E+03  1.44671E+03  7.99723E+03 -4.68228E+03  6.95310E+03 -8.64995E+03  2.21049E+03
 -6.01801E+03 -3.83813E+03  2.80298E+01 -6.72894E+03  3.84037E+03 -3.59895E+03  4.15200E+03  1.14389E+03
  7.70943E+02  3.70467E+03 -4.49899E+03  4.87828E+03 -5.84561E+03  2.28872E+03 -4.70606E+03 -1.66888E+03
 -2.62131E+03 -6.55497E+03  1.62978E+03 -7.54441E+03  6.68349E+03 -5.43074E+03  7.53210E+03  1.24333E+03
  5.41522E+03  6.04907E+03  4.78800E+02  7.99359E+03 -5.31269E+03  4.42735E+03 -5.96553E+03 -2.15919E+02
 -6.60812E+03 -5.12450E+03 -1.10905E+03 -5.43593E+03  2.97397E+03 -4.87613E+03  3.65767E+03 -2.85119E+03
  2.40614E+03  5.98923E+02  2.10858E+02  1.50755E+03  3.14408E+02 -4.51630E+02  4.41966E+02 -1.90859E+03
  4.72068E+03 -6.87568E+02  6.21776E+03  2.76521E+02  6.52593E+03  2.83733E+03  5.27660E+03  7.77404E+03
 -1.13973E+03  9.21219E+03 -8.12658E+03  6.90131E+03 -1.05485E+04  1.38762E+03 -8.40852E+03 -3.00299E+03
 -4.24095E+03 -7.49638E+03 -2.65827E+02 -6.06005E+03  2.39359E+03 -2.17828E+03  1.40137E+03 -2.13426E+03
  1.50132E+03 -1.37860E+03  2.06317E+03 -2.36528E+03  3.83258E+03 -2.00999E+03  3.99767E+03 -8.16030E+01
  4.75561E+03  1.02474E+03  1.31833E+03  3.55804E+03 -1.49795E+03  3.87723E+03 -5.07489E+03  3.33220E+03
 -5.54457E+03 -7.66239E+02 -2.33515E+03 -4.34292E+03 -3.27152E+02 -5.64002E+03  3.47624E+03 -5.96667E+03
  5.87115E+03 -3.57255E+03  7.23961E+03  2.70410E+02  5.36405E+03  4.69326E+03  6.74094E+02  6.94641E+03
 -2.57431E+03  5.68189E+03 -4.02134E+03  1.74520E+03 -1.72290E+03 -1.29824E+03 -4.40205E+02 -9.06170E+02
 -3.54194E+02  5.30645E+02 -1.28814E+03  2.32016E+03 -2.70583E+03  1.14128E+03 -4.03812E+03 -6.67050E+02
 -1.51102E+03 -4.19577E+03  3.46419E+02 -5.35665E+03  2.75074E+03 -4.62864E+03  3.99110E+03 -1.51130E+03
  4.96023E+03  2.47814E+03  2.31924E+03  3.31350E+03 -9.00089E+02  4.96548E+03 -3.14480E+03  3.40825E+03
 -4.50668E+03  4.34403E+02 -3.77948E+03 -2.65379E+03 -9.36090E-01 -3.61379E+03  2.29694E+03 -2.73583E+03
  3.36215E+03 -1.04170E+03  1.80310E+03  3.24076E+02  1.10361E+03  2.35466E+03  2.85533E+02  1.03910E+03
  2.25785E+03  6.83762E+02  1.51153E+03  6.35545E+02  7.21482E+02  2.78045E+03  1.68523E+03  2.08579E+03
 -1.00905E+03  3.23969E+03 -2.40887E+03  4.36087E+03 -3.59035E+03  1.94633E+03 -5.07484E+03 -1.45975E+03
 -2.00985E+03 -4.15088E+03  4.40199E+02 -5.02146E+03  2.13058E+03 -2.87334E+03  3.15699E+03 -9.28070E+02
  2.77275E+03  1.67134E+03  2.57267E+02  2.33881E+03 -9.07017E+02  1.47484E+03 -1.72471E+03 -1.66529E+02
 -6.14785E+02 -1.68845E+03  1.42600E+03 -1.31367E+03  9.26576E+02 -1.04570E+03  1.51373E+03  5.70109E+02
  9.37286E+02  4.37165E+02  1.29891E+03 -6.42618E+01 -2.60176E+02  9.82422E+02  1.92771E+03 -2.19284E+02
 -2.62248E+02 -2.54757E+02  1.96616E+03  4.59453E+02  1.14272E+03  2.71311E+03 -1.33675E+02  2.90697E+03
 -1.49913E+03  8.18162E+02 -1.73537E+03  4.11287E+02 -2.34988E+03 -8.93966E+02 -5.30532E+02 -1.20342E+03
  1.18902E+03 -1.68245E+03  1.16048E+03 -1.72182E+02  4.48354E+02  6.12625E+02 -4.72764E+02  1.28493E+03
 -1.43717E+03  1.29313E+03 -1.23044E+03 -1.43493E+03 -6.98180E+02 -2.14155E+03  2.66123E+02 -1.45691E+03
  6.03785E+02 -7.41644E+02  7.34839E+02 -3.84616E+01  1.22871E+03 -3.48398E+01  4.23222E+02  9.85133E+02
 -7.39214E+02  2.61011E+02 -1.25429E+03  2.85471E+01  2.91780E+02 -8.02134E+02  2.06326E+03 -1.03295E+03
  1.60810E+03  5.48038E+01  3.58680E+03  6.42839E+02  1.17395E+03  2.06204E+03  1.72170E+01  2.01066E+03
 -1.80292E+03  1.38122E+02 -2.16650E+03 -8.98257E+01 -1.30199E+03 -1.83369E+03  6.99334E+01 -8.02294E+02
  1.58441E+03 -1.08163E+03  1.00088E+03  8.01303E+02  2.31295E+02  1.38549E+03  4.98939E+01  9.85649E+02
 -4.26130E+02  7.86229E+02 -7.37518E+02  2.74473E+02 -6.04618E+02  1.73677E+02 -1.55714E+02  4.68694E+02
 -4.86468E+02  1.05055E+03 -2.33484E+03  6.40127E+02 -1.59070E+03  3.37238E+02 -2.87312E+03 -6.69095E+02
 -1.35804E+03 -2.90159E+03  3.32273E+02 -2.78766E+03  1.34328E+03 -2.34701E+03  2.80896E+03 -6.53059E+02
  2.45082E+03  3.41337E+02  1.96406E+03  1.99392E+03 -5.00259E+02  1.80065E+03 -6.59650E+02  1.88908E+03
 -5.63750E+02  7.21470E+02 -9.76472E+02  1.90783E+02 -5.84509E+02  5.84477E+02 -7.98895E+02  6.97416E+01
 -1.11187E+03  5.51012E+00 -2.07658E+02 -6.59063E+01  7.76735E+02 -5.82937E+02 -2.09599E+02 -9.31772E+02
  9.93107E+02 -5.87991E+02  4.21223E+02  1.96437E+02  9.82867E+02  8.88332E+02 -6.27415E+02  1.32046E+03
 -1.21120E+03  1.79125E+03 -1.72506E+03  1.55590E+03 -2.21750E+03  3.71773E+02 -1.08326E+03 -8.27059E+02
 -6.52855E+02 -1.14104E+03  2.94127E+02 -1.31936E+03  9.43130E+02 -5.00984E+02  9.47118E+02 -4.16423E+01
  9.63049E+02  9.45934E+02  5.45664E+02  1.57888E+02 -4.86929E+02  2.95760E+02  9.67580E+01 -2.55850E+02
  2.29484E+02 -4.19945E+01  4.04857E+02  9.30454E+02 -1.76925E+02  3.05564E+02  9.59462E+02  7.86675E+02
 -1.07535E+03  8.54647E+02 -9.09340E+02  8.38772E+02 -3.38231E+02 -3.46645E+02  1.69018E+02 -1.15832E+03
  1.97924E+02 -1.05549E+03  4.32113E+02  7.26228E+02  6.14089E+02 -4.94211E+02  6.57552E+02  1.39311E+03
  2.60192E+01  2.54611E+02 -1.17754E+02  1.04360E+03 -7.00505E+02  1.40537E+03  5.49474E+01  3.88559E+02
 -1.90062E+02 -2.34769E+02 -4.51271E+02  5.91609E+02 -5.98277E+02 -2.71690E+02 -6.67225E+02 -5.76211E+02
 -9.38738E+02 -4.35026E+02 -5.04451E+02 -8.31185E+02  9.05825E+02 -1.47587E+03  8.69576E+02 -2.53269E+02
  1.01843E+03  4.76434E+02 -6.53303E+02  1.79752E+02  3.97052E+01  1.32699E+03 -3.94178E+02  7.87204E+02
