 $NMID ID='MM_0lb_SNR400_8hz_g50_60.RAW', FMTDAT='(8E13.5)'
 TRAMP=1., VOLUME=1. $END
  3.09686E+05  7.95755E+02  3.38222E+05  2.50643E+05  8.40163E+04  3.38402E+05 -1.33037E+05  2.51835E+05
 -1.91229E+05  8.32489E+04 -1.12947E+05 -3.23763E+04 -8.02852E+02 -5.13037E+04  5.30466E+04 -3.08789E+02
  3.60327E+04  5.31448E+04 -1.72278E+04  7.55959E+04 -6.14065E+04  6.45235E+04 -8.53011E+04  3.28035E+04
 -8.17505E+04 -1.26124E+04 -5.92482E+04 -5.20217E+04 -1.46866E+04 -7.17866E+04  2.78282E+04 -4.75075E+04
  4.10327E+04  3.17048E+03  1.71619E+04  4.82184E+04 -3.57418E+04  4.81872E+04 -6.81640E+04  2.82413E+02
 -5.44059E+04 -5.82836E+04 -7.11977E+03 -7.95495E+04  3.45007E+04 -5.65741E+04  5.04109E+04 -1.81137E+04
  4.58333E+04  1.13566E+04  3.37782E+04  2.66007E+04  1.60332E+04  3.03311E+04 -6.24807E+03  2.69719E+04
 -2.27131E+04  1.25152E+04 -1.81267E+04 -5.74267E+03  7.63147E+03 -8.34806E+03  2.30359E+04  1.36077E+04
  7.74320E+03  3.80486E+04 -3.41002E+04  3.76109E+04 -6.70332E+04  1.92903E+03 -5.91774E+04 -4.45167E+04
 -1.21258E+04 -6.68313E+04  4.29706E+04 -4.80674E+04  6.27298E+04 -2.63998E+03  3.73277E+04  3.51108E+04
 -5.99117E+03  4.01648E+04 -3.15333E+04  1.90221E+04 -3.44303E+04 -3.19292E+03 -1.94834E+04 -1.21638E+04
 -9.16311E+03 -1.45306E+04  2.11548E+02 -1.90288E+04  8.33030E+03 -2.32231E+04  1.56494E+04 -1.17536E+04
  9.93153E+03  6.83615E+03 -1.08064E+04  1.24904E+04 -2.43167E+04 -7.34830E+03 -8.44263E+03 -3.75195E+04
  2.55102E+04 -4.83130E+04  5.36226E+04 -2.15048E+04  4.88477E+04  2.04645E+04  1.67506E+04  4.87646E+04
 -1.73471E+04  3.62078E+04 -2.85949E+04  2.38142E+03 -1.19028E+04 -2.98456E+04  2.15948E+04 -3.72559E+04
  4.50895E+04 -1.17190E+04  4.17224E+04  2.48090E+04  2.18057E+04  5.21083E+04 -7.51908E+03  5.70393E+04
 -3.62076E+04  3.93170E+04 -4.87794E+04  1.10900E+04 -4.88347E+04 -1.84306E+04 -2.71931E+04 -4.27432E+04
  8.34902E+03 -4.25984E+04  3.45458E+04 -1.70771E+04  3.23724E+04  1.06631E+04  5.78863E+03  2.11853E+04
 -1.42802E+04  9.46403E+03 -1.21292E+04 -7.49539E+03  4.80781E+03 -1.12359E+04  1.86573E+04  6.04889E+03
  1.48084E+04  2.26944E+04 -5.96039E+03  2.72637E+04 -2.43592E+04  1.53495E+04 -3.23895E+04 -3.35164E+03
 -2.64727E+04 -1.94493E+04 -1.29411E+04 -2.58952E+04  5.08408E+03 -2.65628E+04  2.06289E+04 -2.38252E+04
  3.31299E+04 -1.44860E+04  3.88061E+04  5.29818E+03  2.73481E+04  2.45891E+04  3.29169E+03  4.22067E+04
 -2.02124E+04  3.44061E+04 -3.15904E+04  1.20467E+04 -2.31074E+04 -1.00147E+04 -5.72150E+03 -1.33647E+04
  1.63030E+02 -8.31691E+02 -7.96744E+03  8.95708E+03 -2.00841E+04  4.50828E+03 -2.02833E+04 -1.03942E+04
 -1.23994E+04 -2.43626E+04  6.45788E+03 -2.87228E+04  1.96779E+04 -1.98160E+04  2.28774E+04 -1.55335E+03
  1.48088E+04  1.75382E+04 -1.31131E+03  2.37586E+04 -1.74460E+04  1.44062E+04 -2.55789E+04 -4.58362E+03
 -1.79943E+04 -2.25700E+04 -2.58245E+03 -2.94033E+04  1.26293E+04 -2.48487E+04  2.36644E+04 -1.31620E+04
  2.35738E+04 -2.81975E+02  1.58262E+04  5.91161E+03  9.51039E+03  1.98975E+03  1.31307E+04 -2.04508E+03
  2.32354E+04  2.85477E+03  2.78335E+04  1.94447E+04  1.83922E+04  3.93298E+04 -2.38084E+03  4.64474E+04
 -2.62854E+04  3.89184E+04 -4.41261E+04  1.99525E+04 -4.72507E+04 -3.71804E+03 -3.81536E+04 -2.71988E+04
 -1.44685E+04 -3.87800E+04  1.33428E+04 -3.41159E+04  2.86656E+04 -1.63935E+04  2.51865E+04  9.00709E+03
  7.17320E+03  1.88182E+04 -1.15928E+04  1.61174E+04 -2.11745E+04  2.32860E+03 -1.59336E+04 -1.38800E+04
  6.67250E+01 -2.05854E+04  1.11151E+04 -1.52379E+04  1.41988E+04 -1.53319E+03  3.73625E+03  9.25848E+03
 -9.03013E+03  5.23678E+03 -9.07864E+03 -6.67501E+03 -1.81203E+03 -1.94089E+04  1.30745E+04 -2.16317E+04
  2.48849E+04 -1.14110E+04  2.93205E+04  3.93738E+03  2.52043E+04  1.99786E+04  1.14835E+04  3.13554E+04
 -6.87534E+03  3.35120E+04 -2.18660E+04  2.04335E+04 -2.39438E+04  4.26973E+03 -1.60828E+04 -6.42493E+03
 -7.05253E+03 -7.68909E+03 -1.86330E+03  1.63213E+02 -3.30559E+03  4.05034E+03 -8.05755E+03  6.09607E+03
 -1.47836E+04 -1.38156E+03 -1.49349E+04 -1.27585E+04 -5.83672E+03 -2.06154E+04  7.03288E+03 -1.74954E+04
  1.41602E+04 -7.22490E+03  9.90691E+03  4.47935E+03 -2.83123E+02  7.24525E+03 -8.99490E+03 -5.02223E+02
 -7.99787E+03 -1.09970E+04 -1.24960E+03 -1.69154E+04  9.99755E+03 -1.86336E+04  2.14401E+04 -9.53856E+03
  2.48823E+04  2.89870E+03  1.87226E+04  1.54623E+04  3.98185E+03  2.06174E+04 -1.03129E+04  1.73510E+04
 -1.30103E+04  5.03957E+03 -6.88381E+03 -4.08628E+03  3.12912E+03 -4.20410E+03  9.61339E+03 -7.29567E+02
  7.83071E+03  6.89917E+03  1.46079E+03  1.31576E+04 -1.02415E+04  1.36901E+04 -1.60213E+04  2.98444E+03
 -1.13343E+04 -8.91801E+03 -1.44065E+02 -1.43933E+04  9.82938E+03 -7.10126E+03  1.02224E+04  4.72206E+03
  2.71587E+03  1.18167E+04 -8.12162E+03  1.30970E+04 -1.45975E+04  6.17699E+03 -1.51834E+04 -5.92346E+03
 -8.05742E+03 -1.75478E+04  4.25554E+03 -1.96242E+04  1.76173E+04 -1.03926E+04  1.85555E+04  2.86751E+03
  1.07536E+04  1.45187E+04 -2.15925E+03  1.57711E+04 -1.26465E+04  9.12899E+03 -1.32800E+04 -1.20252E+03
 -1.16794E+04 -1.08502E+04 -1.20257E+03 -1.27221E+04  6.58964E+03 -1.09291E+04  8.33925E+03 -3.40931E+03
  6.21943E+03  3.04189E+03 -1.44412E+03  1.75574E+03 -1.78218E+03 -3.99844E+03  3.91613E+03 -8.35580E+03
  1.21159E+04 -5.75951E+03  1.80652E+04  1.85326E+03  1.71623E+04  1.22835E+04  1.10650E+04  2.32961E+04
 -6.09620E+03  2.67167E+04 -2.24156E+04  1.97437E+04 -2.87543E+04  3.94508E+03 -2.36343E+04 -1.02479E+04
 -1.11864E+04 -1.89498E+04 -1.06556E+02 -1.55141E+04  5.18135E+03 -9.41294E+03  5.78547E+03 -5.96238E+03
  5.04496E+03 -3.63036E+03  5.40591E+03 -3.30044E+03  6.79031E+03 -4.55547E+03  8.31080E+03 -1.14758E+03
  1.15235E+04  2.96327E+03  7.39122E+03  1.07764E+04 -2.67000E+03  1.29727E+04 -1.22351E+04  1.08445E+04
 -1.61334E+04 -1.03908E+03 -1.04528E+04 -1.08353E+04 -1.55488E+03 -1.84570E+04  9.30546E+03 -1.79171E+04
  1.80856E+04 -9.56032E+03  2.17455E+04  3.57492E+03  1.49156E+04  1.57574E+04  1.66798E+03  1.96165E+04
 -8.04932E+03  1.63708E+04 -1.17410E+04  5.68060E+03 -8.79326E+03 -3.06544E+03 -4.25526E+03 -2.48935E+03
 -1.78345E+03 -6.00617E+02 -2.63954E+03  2.04973E+03 -7.54098E+03  2.63618E+03 -1.07297E+04 -1.93123E+03
 -7.50081E+03 -1.13122E+04 -1.14697E+03 -1.66997E+04  9.97016E+03 -1.54896E+04  1.60550E+04 -4.11287E+03
  1.61053E+04  7.39099E+03  6.91935E+03  1.43221E+04 -3.56206E+03  1.72512E+04 -1.19174E+04  1.02851E+04
 -1.58912E+04  5.86317E+02 -1.22572E+04 -1.03150E+04 -1.47990E+03 -1.42954E+04  7.52191E+03 -9.64176E+03
  1.10886E+04 -3.48718E+03  7.07600E+03  3.63437E+03  2.38287E+03  5.91717E+03  7.65997E+02  3.21089E+03
  2.73485E+03  1.67099E+03  4.06964E+03  2.57080E+03  4.17449E+03  5.65582E+03  4.55498E+03  9.22844E+03
 -3.07373E+03  1.35894E+04 -1.13325E+04  1.29793E+04 -1.81227E+04  3.30660E+03 -1.68793E+04 -7.06199E+03
 -7.79043E+03 -1.77208E+04  2.85027E+03 -1.88345E+04  1.12948E+04 -1.16786E+04  1.40799E+04 -3.80733E+03
  1.08265E+04  6.19104E+03  3.21065E+03  9.83270E+03 -4.82947E+03  6.38286E+03 -6.98597E+03 -1.69700E+03
 -3.65045E+03 -7.26969E+03  3.83632E+03 -7.17457E+03  7.39847E+03 -4.06512E+03  6.94394E+03  1.37210E+03
  4.63534E+03  4.38904E+03  1.33312E+03  2.32210E+03 -1.10460E+03  2.40338E+03  2.07538E+03 -1.08444E+03
  3.00132E+03 -1.31971E+03  6.66021E+03  2.45939E+03  4.53132E+03  9.41905E+03 -9.54839E+02  1.16858E+04
 -7.77926E+03  8.69429E+03 -1.05308E+04  3.16249E+03 -1.00732E+04 -3.52727E+03 -4.65390E+03 -6.39900E+03
  2.52103E+02 -8.19434E+03  4.51727E+03 -2.98858E+03  3.71449E+03  4.11733E+03 -1.47129E+03  5.18522E+03
 -7.69321E+03  3.79747E+03 -8.76295E+03 -4.60787E+03 -4.80501E+03 -9.68811E+03  9.51334E+02 -9.91614E+03
  6.35292E+03 -5.44557E+03  7.83876E+03 -4.96085E+02  6.56073E+03  2.48615E+03  5.49239E+02  5.24688E+03
 -3.33158E+03  9.13857E+02 -4.02161E+03 -3.18500E+03  1.87010E+03 -7.92870E+03  8.20854E+03 -6.76309E+03
  1.18256E+04  3.73933E+02  9.75185E+03  8.10805E+03  4.24421E+03  1.15170E+04 -4.14285E+03  1.10522E+04
 -9.59593E+03  5.92667E+03 -9.77785E+03 -1.59898E+03 -6.40531E+03 -7.68760E+03  1.93671E+03 -7.48543E+03
  7.09130E+03 -3.24746E+03  5.46860E+03  2.92497E+03  2.36081E+03  6.00274E+03 -6.88654E+02  5.84964E+03
 -3.53496E+03  4.02390E+03 -2.07506E+03  1.11215E+03 -1.05209E+03  9.45391E+02 -2.16488E+03  2.20985E+03
 -2.41043E+03  5.02685E+03 -8.25117E+03  3.66126E+03 -1.16847E+04  3.07102E+02 -1.25176E+04 -8.42512E+03
 -7.19026E+03 -1.61262E+04  3.12639E+03 -1.82023E+04  1.13925E+04 -1.45192E+04  1.74301E+04 -5.43223E+03
  1.57823E+04  3.69149E+03  9.96399E+03  1.09189E+04  6.66804E+02  1.22550E+04 -4.20715E+03  9.03771E+03
 -7.24303E+03  3.13781E+03 -5.00434E+03 -1.02122E+03 -1.58984E+03 -1.62374E+03 -9.43747E+02 -6.62913E+01
 -1.71378E+03  6.18894E+02 -1.62799E+03  1.26587E+02 -9.51312E+02 -3.78433E+03  9.66800E+02 -4.77187E+03
  5.33897E+03 -4.08385E+03  7.37787E+03  4.15271E+02  8.13744E+03  6.85640E+03  2.15163E+03  1.21152E+04
 -6.29824E+03  1.49092E+04 -1.42731E+04  9.08153E+03 -1.50798E+04 -7.37550E+02 -1.16310E+04 -9.78091E+03
 -5.10693E+03 -1.30628E+04  2.80370E+03 -1.17752E+04  8.63949E+03 -6.87987E+03  8.53894E+03  1.10954E+03
  4.58296E+03  3.84582E+03  5.93149E+02  3.49503E+03 -2.73770E+03 -4.30623E+02 -8.98518E+01 -3.52556E+03
  4.28615E+03 -1.33376E+03  4.22837E+03  6.09295E+02  4.48126E+03  4.39795E+03  6.87611E+02  6.71614E+03
 -6.37734E+03  5.18002E+03 -7.89498E+03  6.06201E+02 -8.03855E+03 -6.26869E+03 -1.08558E+03 -1.11017E+04
  7.23049E+03 -8.86218E+03  1.01961E+04 -2.60578E+03  9.68821E+03  3.05617E+03  5.20186E+03  7.85518E+03
  1.91565E+03  8.42594E+03 -2.88868E+03  6.52656E+03 -5.19303E+03  3.68527E+03 -4.39481E+03  1.00056E+03
 -2.63446E+03 -6.90208E+01 -2.88865E+03  7.41960E+02 -4.41762E+03  1.70480E+03 -6.37255E+03 -1.66768E+03
 -6.11038E+03 -5.09505E+03 -2.11400E+03 -8.81276E+03  4.00458E+03 -8.95326E+03  7.14103E+03 -4.64742E+03
  8.76668E+03  1.30935E+03  4.72159E+03  5.81071E+03 -1.03636E+03  8.76075E+03 -6.15902E+03  5.46052E+03
