 $NMID ID='MM_0lb_SNR400_17hz_g55_59.RAW', FMTDAT='(8E13.5)'
 TRAMP=1., VOLUME=1. $END
  3.09281E+05  5.77583E+01  3.37879E+05  2.50717E+05  8.46686E+04  3.38148E+05 -1.32243E+05  2.50642E+05
 -1.89741E+05  8.32083E+04 -1.11671E+05 -3.29769E+04  1.05148E+03 -5.02619E+04  5.42612E+04  3.87866E+02
  3.55374E+04  5.33920E+04 -1.71295E+04  7.49774E+04 -6.08086E+04  6.31513E+04 -8.37593E+04  3.20200E+04
 -8.06233E+04 -1.15271E+04 -5.66936E+04 -5.09283E+04 -1.53092E+04 -6.90337E+04  2.69104E+04 -4.53836E+04
  3.95678E+04  3.63676E+03  1.62063E+04  4.77688E+04 -3.38133E+04  4.63555E+04 -6.64134E+04 -5.68028E+02
 -5.29270E+04 -5.66277E+04 -6.60729E+03 -7.63027E+04  3.41144E+04 -5.44903E+04  4.70185E+04 -1.68006E+04
  4.26668E+04  1.11095E+04  3.13417E+04  2.50065E+04  1.50881E+04  2.90270E+04 -4.79391E+03  2.71142E+04
 -2.17044E+04  1.30592E+04 -1.83968E+04 -5.31886E+03  4.60319E+03 -7.05269E+03  2.26606E+04  1.22988E+04
  7.46004E+03  3.46504E+04 -3.10427E+04  3.46803E+04 -6.25777E+04  1.94068E+03 -5.67091E+04 -4.24035E+04
 -1.23581E+04 -6.15044E+04  3.91668E+04 -4.47211E+04  5.67229E+04 -2.22558E+03  3.33453E+04  3.19323E+04
 -5.98300E+03  3.51876E+04 -3.00310E+04  1.47663E+04 -2.92366E+04 -4.97670E+03 -1.56799E+04 -1.12207E+04
 -7.85862E+03 -1.20864E+04 -2.25649E+02 -1.69949E+04  6.29359E+03 -2.30034E+04  1.57148E+04 -1.33117E+04
  1.18647E+04  4.79172E+03 -8.25037E+03  1.32420E+04 -2.09356E+04 -3.83101E+03 -8.41754E+03 -3.24928E+04
  2.13333E+04 -4.17154E+04  4.67862E+04 -1.87341E+04  4.38927E+04  1.81247E+04  1.55370E+04  4.27192E+04
 -1.60747E+04  3.24674E+04 -2.41386E+04  8.02552E+02 -9.02987E+03 -2.69208E+04  2.06692E+04 -3.29518E+04
  3.98804E+04 -8.07925E+03  3.41785E+04  2.30056E+04  1.68329E+04  4.49805E+04 -8.23606E+03  4.80832E+04
 -2.99657E+04  3.21611E+04 -4.05872E+04  9.46025E+03 -4.10821E+04 -1.58499E+04 -2.25677E+04 -3.67818E+04
  6.97980E+03 -3.63346E+04  3.02684E+04 -1.40860E+04  2.89000E+04  1.09817E+04  3.07067E+03  1.85475E+04
 -1.27592E+04  7.47871E+03 -9.96198E+03 -7.94510E+03  5.86631E+03 -1.07628E+04  1.72687E+04  6.48397E+03
  1.26710E+04  2.16122E+04 -6.08302E+03  2.42330E+04 -2.13619E+04  1.00099E+04 -2.64772E+04 -5.10085E+03
 -1.84020E+04 -1.68169E+04 -7.66375E+03 -1.89371E+04  4.27863E+03 -1.74455E+04  1.43885E+04 -1.61029E+04
  2.37906E+04 -1.19575E+04  3.11574E+04  1.93004E+03  2.22413E+04  1.86595E+04  4.35797E+03  3.43751E+04
 -1.67143E+04  2.89158E+04 -2.68166E+04  1.00763E+04 -2.01356E+04 -1.03456E+04 -4.47254E+03 -1.37113E+04
  1.55971E+03 -3.13199E+03 -3.49998E+03  5.92472E+03 -1.48150E+04  5.05787E+03 -1.43713E+04 -6.18156E+03
 -9.40578E+03 -1.79499E+04  4.79130E+03 -2.12017E+04  1.40044E+04 -1.57014E+04  1.65419E+04 -1.51751E+03
  1.02978E+04  1.20610E+04 -8.29296E+02  1.73417E+04 -1.16391E+04  1.01895E+04 -1.71344E+04 -3.67461E+03
 -1.28936E+04 -1.60584E+04 -2.00787E+03 -2.11526E+04  1.01380E+04 -1.69366E+04  1.78779E+04 -8.74093E+03
  1.58563E+04  4.60473E+02  1.19039E+04  3.66612E+03  6.17860E+03  1.91265E+02  8.47861E+03 -2.23294E+03
  1.63014E+04  2.52322E+03  1.71458E+04  1.41363E+04  1.12328E+04  2.75376E+04 -2.77647E+03  3.08223E+04
 -1.79609E+04  2.40809E+04 -2.78558E+04  1.22181E+04 -2.93785E+04 -1.96308E+03 -2.45663E+04 -1.63594E+04
 -1.08894E+04 -2.39565E+04  7.49058E+03 -2.23651E+04  1.81905E+04 -1.20930E+04  1.74632E+04  4.41081E+03
  7.05568E+03  1.25277E+04 -7.95248E+03  1.16544E+04 -1.48426E+04  2.49953E+03 -1.12030E+04 -9.10750E+03
 -2.13815E+02 -1.32634E+04  7.16730E+03 -1.07241E+04  8.55703E+03 -1.70930E+03  2.01508E+03  5.93845E+03
 -5.65839E+03  2.17053E+03 -4.69682E+03 -5.34263E+03  1.07644E+02 -1.26020E+04  9.02804E+03 -1.19786E+04
  1.34785E+04 -6.14729E+03  1.53609E+04  3.27471E+03  1.27770E+04  1.15013E+04  5.77536E+03  1.76882E+04
 -2.12844E+03  1.79829E+04 -1.19679E+04  1.19084E+04 -1.31819E+04  3.04213E+03 -1.00748E+04 -2.73057E+03
 -4.57843E+03 -3.66070E+03 -3.76488E+01  1.37533E+03 -2.43853E+03  2.37164E+03 -4.93726E+03  4.29098E+03
 -8.66830E+03 -9.04075E+01 -9.93281E+03 -7.88780E+03 -4.39129E+03 -1.27097E+04  3.97075E+03 -9.63750E+03
  8.09475E+03 -4.36206E+03  5.88331E+03  2.69245E+03  2.64554E+02  4.17640E+03 -4.29691E+03  1.50859E+01
 -3.70138E+03 -6.13713E+03 -8.38736E+02 -8.71933E+03  5.63335E+03 -9.25308E+03  1.17615E+04 -5.14057E+03
  1.38907E+04  5.84663E+02  9.87340E+03  7.05593E+03  1.48585E+03  1.05355E+04 -5.43272E+03  1.01871E+04
 -8.19424E+03  2.78399E+03 -4.46174E+03 -1.95109E+03  1.10190E+03 -1.85380E+03  5.62627E+03 -1.00493E+03
  5.27458E+03  3.86167E+03  1.24033E+03  7.33546E+03 -5.36663E+03  6.76370E+03 -9.31345E+03  1.42277E+03
 -5.61909E+03 -4.54319E+03  6.87816E+02 -7.83605E+03  3.70974E+03 -3.83897E+03  4.85715E+03  1.23917E+03
  2.45897E+02  4.30589E+03 -5.15534E+03  5.88620E+03 -6.51343E+03  2.69436E+03 -5.91442E+03 -1.80534E+03
 -3.83064E+03 -7.40677E+03  1.32747E+03 -8.68299E+03  6.90608E+03 -5.61647E+03  8.36583E+03  1.40786E+03
  5.25629E+03  6.51617E+03 -1.53898E+02  8.64988E+03 -6.46701E+03  4.82487E+03 -6.29377E+03 -4.93439E+02
 -6.45149E+03 -5.49574E+03 -6.61915E+02 -6.12565E+03  3.12970E+03 -4.48851E+03  3.70136E+03 -2.56301E+03
  3.02479E+03  9.31116E+02 -5.33085E+01  8.93967E+02  4.25545E+02 -8.81846E+01  3.50070E+02 -2.42311E+03
  4.57896E+03 -1.27192E+03  6.95842E+03  6.12592E+02  7.09617E+03  4.69968E+03  6.04945E+03  8.74571E+03
 -2.04920E+03  1.07659E+04 -9.75354E+03  8.73844E+03 -1.23122E+04  1.05593E+03 -9.08594E+03 -3.49284E+03
 -5.34221E+03 -8.25099E+03 -3.74600E+02 -6.37843E+03  2.27423E+03 -3.20881E+03  2.26894E+03 -2.82810E+03
  1.52687E+03 -1.77833E+03  2.33895E+03 -2.12188E+03  3.59802E+03 -1.46905E+03  4.62798E+03  3.88822E+02
  4.88877E+03  1.48835E+03  1.84647E+03  4.50264E+03 -1.53089E+03  4.03899E+03 -5.17359E+03  3.59856E+03
 -6.77188E+03 -9.49629E+02 -2.78291E+03 -4.04260E+03  5.87074E+02 -6.16220E+03  3.60441E+03 -6.70669E+03
  6.91746E+03 -4.13274E+03  8.33325E+03  5.81916E+02  6.46520E+03  5.54296E+03  8.32814E+02  7.30632E+03
 -2.92918E+03  6.86682E+03 -3.76477E+03  2.11039E+03 -2.74373E+03 -9.90271E+02 -3.17256E+02 -9.72450E+01
 -9.80301E+02  5.72196E+02 -9.78981E+02  2.42309E+03 -3.44175E+03  1.25801E+03 -4.92718E+03 -6.78732E+02
 -2.64492E+03 -4.97303E+03  5.62516E+01 -6.04274E+03  3.62255E+03 -5.84570E+03  4.41537E+03 -8.75612E+02
  5.31890E+03  2.68519E+03  2.24710E+03  4.69041E+03 -1.06074E+03  5.89053E+03 -3.97432E+03  3.54973E+03
 -5.48188E+03  7.02958E+02 -3.81306E+03 -2.96560E+03 -4.06262E+02 -4.09110E+03  2.29785E+03 -3.36852E+03
  2.98467E+03 -1.59966E+03  2.61009E+03  5.18023E+02  5.09991E+02  2.25668E+03  9.76102E+02  8.96531E+02
  1.70246E+03  8.57255E+02  1.56829E+03  1.36015E+03  1.66583E+03  2.33535E+03  2.08754E+03  2.18353E+03
 -1.48860E+03  3.79924E+03 -3.69471E+03  5.32300E+03 -4.82100E+03  1.00834E+03 -5.52993E+03 -5.25706E+02
 -2.15131E+03 -4.89479E+03  8.64693E+02 -5.58879E+03  2.28022E+03 -3.63226E+03  4.02081E+03 -6.02453E+02
  3.70998E+03  1.95132E+03  5.61691E+02  2.69938E+03 -1.19349E+03  1.35207E+03 -1.75937E+03 -2.70855E+02
 -7.58399E+02 -1.46769E+03  1.25798E+03 -2.22565E+03  1.92034E+03 -1.48087E+03  2.56256E+03  8.37820E+02
  1.11910E+03 -1.27731E+02  1.17051E+03 -2.86814E+02 -1.81776E+02  5.02193E+02  1.66982E+03  8.24518E+01
  3.97118E+00 -2.68956E+02  1.85673E+03  4.97521E+02 -1.36620E+01  3.02740E+03 -9.91149E+02  3.45218E+03
 -2.16179E+03  1.46547E+03 -2.52865E+03  1.37005E+02 -2.33055E+03 -1.00913E+03 -8.16336E+02 -1.45629E+03
  6.33632E+02 -1.34561E+03  1.81039E+03 -5.19384E+02  1.15589E+03  1.53972E+03 -9.28805E+02  1.63218E+03
 -1.47156E+03  1.25523E+03 -1.81493E+03 -1.27127E+03 -9.45790E+02 -2.47900E+03  2.05474E+02 -2.38094E+03
  9.67347E+02 -1.13157E+03  1.44765E+03 -3.79256E+01  1.52093E+03  4.86126E+01  3.04050E+02  1.95048E+03
 -3.10502E+02 -2.41478E+02 -1.02545E+03 -3.45726E+02  6.72543E+01 -1.15924E+03  1.76440E+03 -1.32427E+03
  1.74948E+03  6.86116E+02  3.42983E+03  1.36269E+03  1.17817E+03  2.72178E+03 -2.64812E+02  2.42469E+03
 -1.99485E+03  5.69437E+02 -1.62544E+03 -6.03639E+02 -9.09539E+02 -1.18347E+03  6.19201E+01 -4.19030E+02
  2.01029E+03 -7.41214E+02  9.81856E+02  5.70836E+02  3.27009E+02  1.89672E+03  1.64200E+02  1.54500E+03
 -4.10714E+02  1.39549E+03 -6.04442E+02  1.63041E+02 -1.08786E+01  8.51046E+02 -1.00491E+03  6.23332E+02
 -1.02745E+03  1.54047E+03 -2.48317E+03  2.42654E+02 -2.38984E+03  3.15203E+02 -2.79598E+03 -1.49554E+03
 -1.71496E+03 -3.29010E+03  9.16237E+02 -3.33808E+03  1.46753E+03 -2.92888E+03  3.40021E+03 -1.60235E+03
  3.17587E+03  5.47409E+01  1.24297E+03  2.08217E+03 -4.52726E+02  2.03816E+03 -3.05840E+02  1.34789E+03
 -1.35190E+03  1.26515E+03 -1.36417E+03 -1.78956E+02 -4.71531E+02 -1.39593E+02 -2.56749E+02  4.09404E+02
 -2.05561E+03 -4.19938E+02 -1.01406E+03  1.83877E+02 -1.15985E+02 -6.23820E+02  7.75317E-01 -6.69292E+02
  1.57486E+03 -4.61736E+02  8.70921E+02  2.81568E+02  1.18895E+03  1.40330E+03 -4.71922E+02  1.71372E+03
 -1.18490E+03  3.03485E+03 -2.42338E+03  1.84194E+03 -1.89285E+03 -5.68829E+01 -1.82299E+03 -1.31224E+03
 -1.34222E+03 -1.71026E+03  9.39622E+01 -1.93022E+03  8.96047E+02 -8.02328E+02  1.26350E+03  1.18073E+02
  1.24514E+02  4.16611E+02  8.33975E+02  6.00491E+02 -3.01253E+02  2.92627E+01 -2.56715E+02 -3.81700E+02
  8.64756E+02  7.59126E+02  8.39442E+01  1.80237E+02  4.04791E+02  2.08863E+02  7.55081E+02  7.50713E+02
 -5.67552E+02  8.79651E+02 -6.93514E+02  1.72615E+02 -8.54163E+02 -9.12285E+02 -6.29014E+00 -1.54301E+03
  9.90557E+02 -5.39586E+02  8.38380E+02 -2.65817E+02  8.14775E+02 -2.46498E+02  9.22900E+02  1.28832E+03
  6.97993E+02  8.38878E+02  2.36192E+02  6.31399E+02 -4.72283E+02  4.53453E+02 -4.19960E+01  2.63709E+02
 -1.46735E+02  9.16015E+01 -5.39873E+02  2.80873E+02 -7.03474E+02 -4.13567E+01 -1.12042E+03 -5.76609E+02
 -1.03938E+03  3.02959E+02 -3.59285E+02 -1.37734E+03  7.27055E+02 -1.27885E+03  7.13016E+02 -8.88101E+02
  1.16700E+03  4.92539E+02 -1.73372E+02  8.28730E+02  4.99415E+01  1.11358E+03  2.34696E+02  6.34660E+02
