 $NMID ID='MM_0lb_SNR400_13hz_g50_18.RAW', FMTDAT='(8E13.5)'
 TRAMP=1., VOLUME=1. $END
  3.10031E+05  2.97473E+01  3.37144E+05  2.50448E+05  8.51074E+04  3.38606E+05 -1.32888E+05  2.51247E+05
 -1.90417E+05  8.29724E+04 -1.11781E+05 -3.25454E+04  3.88504E+02 -4.99530E+04  5.36945E+04 -2.03554E+02
  3.50363E+04  5.32564E+04 -1.67815E+04  7.54004E+04 -6.10019E+04  6.39424E+04 -8.43548E+04  3.22271E+04
 -8.14294E+04 -1.14037E+04 -5.77640E+04 -5.06735E+04 -1.46219E+04 -6.94788E+04  2.80885E+04 -4.57427E+04
  4.00819E+04  3.82049E+03  1.60897E+04  4.80734E+04 -3.45498E+04  4.75544E+04 -6.76473E+04 -4.18923E+02
 -5.37230E+04 -5.68237E+04 -6.97210E+03 -7.69870E+04  3.38042E+04 -5.56053E+04  4.77244E+04 -1.75248E+04
  4.36722E+04  1.10444E+04  3.15694E+04  2.54424E+04  1.60797E+04  2.96671E+04 -5.64662E+03  2.74190E+04
 -2.25250E+04  1.22071E+04 -1.90480E+04 -4.92882E+03  5.75253E+03 -7.14681E+03  2.24069E+04  1.25397E+04
  6.96793E+03  3.60031E+04 -3.19460E+04  3.67040E+04 -6.35479E+04  1.71473E+03 -5.72232E+04 -4.36667E+04
 -1.23439E+04 -6.38781E+04  3.99561E+04 -4.54843E+04  5.88947E+04 -2.00893E+03  3.42209E+04  3.32165E+04
 -5.36888E+03  3.71586E+04 -3.01589E+04  1.68526E+04 -3.13647E+04 -4.22527E+03 -1.74350E+04 -1.12272E+04
 -8.44857E+03 -1.35207E+04 -3.18941E+02 -1.86839E+04  7.50073E+03 -2.30505E+04  1.54676E+04 -1.31322E+04
  1.11180E+04  5.43100E+03 -8.26198E+03  1.32548E+04 -2.17918E+04 -4.36348E+03 -7.87270E+03 -3.45517E+04
  2.37080E+04 -4.39486E+04  4.88414E+04 -2.02707E+04  4.51725E+04  2.02136E+04  1.59682E+04  4.44761E+04
 -1.60816E+04  3.34800E+04 -2.52658E+04  2.27759E+03 -1.08267E+04 -2.80861E+04  2.04204E+04 -3.43837E+04
  4.16518E+04 -8.70732E+03  3.65011E+04  2.39214E+04  1.95985E+04  4.73561E+04 -8.10730E+03  5.12244E+04
 -3.28646E+04  3.42554E+04 -4.36926E+04  9.41358E+03 -4.38329E+04 -1.71061E+04 -2.40674E+04 -3.86625E+04
  7.15183E+03 -3.88328E+04  3.18026E+04 -1.56511E+04  3.00805E+04  1.08643E+04  3.93965E+03  1.96687E+04
 -1.38126E+04  8.19913E+03 -1.04230E+04 -7.11197E+03  5.79953E+03 -1.13599E+04  1.83880E+04  6.84070E+03
  1.38046E+04  2.20869E+04 -5.88195E+03  2.56153E+04 -2.28074E+04  1.17711E+04 -2.88694E+04 -4.52486E+03
 -2.16308E+04 -1.73049E+04 -9.66345E+03 -2.14334E+04  4.01307E+03 -2.11126E+04  1.66397E+04 -1.95890E+04
  2.80293E+04 -1.32015E+04  3.40124E+04  3.21010E+03  2.47791E+04  2.14585E+04  4.12976E+03  3.73168E+04
 -1.75623E+04  3.13992E+04 -2.90469E+04  1.09360E+04 -2.09262E+04 -9.68032E+03 -3.79498E+03 -1.33687E+04
  1.26306E+03 -1.99408E+03 -5.53952E+03  7.50711E+03 -1.68665E+04  5.10579E+03 -1.68199E+04 -7.96236E+03
 -1.01426E+04 -1.98906E+04  5.39033E+03 -2.42538E+04  1.60697E+04 -1.77620E+04  1.86991E+04 -1.16466E+03
  1.17584E+04  1.37588E+04 -1.51783E+03  1.99074E+04 -1.32550E+04  1.09222E+04 -2.04052E+04 -3.88530E+03
 -1.44419E+04 -1.83157E+04 -1.89118E+03 -2.38509E+04  1.09497E+04 -1.95484E+04  2.00201E+04 -9.46240E+03
  1.91867E+04  4.85952E+02  1.34570E+04  4.51291E+03  6.81028E+03  8.06245E+02  9.78543E+03 -1.26821E+03
  1.84254E+04  3.14022E+03  2.04271E+04  1.62089E+04  1.30454E+04  3.09752E+04 -3.29188E+03  3.61386E+04
 -2.05722E+04  2.95985E+04 -3.37404E+04  1.44980E+04 -3.60574E+04 -2.79366E+03 -2.96183E+04 -2.06924E+04
 -1.27575E+04 -2.91025E+04  1.02180E+04 -2.62059E+04  2.27632E+04 -1.33998E+04  2.00052E+04  5.98739E+03
  7.59254E+03  1.58642E+04 -9.56213E+03  1.26768E+04 -1.70218E+04  2.59981E+03 -1.22977E+04 -1.07878E+04
 -5.07716E+02 -1.65601E+04  8.10602E+03 -1.17165E+04  1.01591E+04 -1.78371E+03  2.47726E+03  6.90919E+03
 -7.62390E+03  2.80246E+03 -6.24528E+03 -5.77169E+03 -1.07236E+03 -1.39496E+04  9.84792E+03 -1.54793E+04
  1.74444E+04 -7.90813E+03  1.94378E+04  2.71814E+03  1.66043E+04  1.41667E+04  7.17690E+03  2.20722E+04
 -3.91085E+03  2.34542E+04 -1.52549E+04  1.48910E+04 -1.76467E+04  3.47223E+03 -1.17962E+04 -3.40064E+03
 -5.70100E+03 -5.38093E+03 -6.27371E+02  1.12241E+03 -2.65475E+03  2.35470E+03 -5.63541E+03  5.42745E+03
 -1.18398E+04 -9.18586E+02 -1.18105E+04 -9.58673E+03 -4.34828E+03 -1.54719E+04  4.72789E+03 -1.22108E+04
  1.06179E+04 -4.97172E+03  7.09493E+03  2.94445E+03 -4.57514E+01  4.39209E+03 -5.84285E+03  1.19224E+02
 -4.70905E+03 -8.38276E+03 -1.33876E+03 -1.14579E+04  6.27483E+03 -1.19348E+04  1.49609E+04 -6.72119E+03
  1.75449E+04  1.43849E+03  1.31514E+04  1.03256E+04  2.79131E+03  1.47016E+04 -7.98079E+03  1.21815E+04
 -1.00995E+04  3.94934E+03 -4.90761E+03 -2.36061E+03  1.66333E+03 -3.92879E+03  6.33692E+03 -9.84517E+02
  6.06587E+03  5.23306E+03  1.72726E+03  9.64507E+03 -7.06644E+03  9.81035E+03 -1.12115E+04  2.62027E+03
 -7.91184E+03 -6.79765E+03  1.56308E+02 -1.00502E+04  6.29697E+03 -6.01202E+03  6.82856E+03  1.95240E+03
  1.18204E+03  6.25473E+03 -6.34504E+03  8.54649E+03 -9.31462E+03  3.89337E+03 -9.73365E+03 -2.95553E+03
 -5.61285E+03 -1.01663E+04  2.70784E+03 -1.26867E+04  1.08036E+04 -7.56709E+03  1.15287E+04  2.64641E+03
  7.19277E+03  9.52036E+03 -3.17106E+02  1.12045E+04 -8.34803E+03  7.16002E+03 -9.06940E+03 -1.21585E+03
 -7.99433E+03 -8.30035E+03 -1.62024E+03 -8.73773E+03  4.57136E+03 -6.58026E+03  5.13379E+03 -3.38336E+03
  4.29600E+03  9.77634E+02 -6.34356E+02  1.27290E+03 -6.76466E+02 -1.62117E+03  1.71081E+03 -3.86426E+03
  7.61121E+03 -2.83296E+03  1.03070E+04  4.83538E+02  1.00503E+04  6.99216E+03  7.48398E+03  1.34377E+04
 -3.16770E+03  1.65603E+04 -1.36326E+04  1.22499E+04 -1.77881E+04  2.53360E+03 -1.46106E+04 -6.56522E+03
 -7.49748E+03 -1.16289E+04 -6.09897E+02 -9.99170E+03  3.83910E+03 -5.51525E+03  3.25238E+03 -3.93468E+03
  2.71091E+03 -1.95057E+03  2.65123E+03 -2.66643E+03  5.06391E+03 -2.39119E+03  5.80047E+03 -1.58089E+02
  7.34738E+03  2.30905E+03  3.82113E+03  6.53877E+03 -2.89066E+03  6.62659E+03 -8.45437E+03  4.67958E+03
 -1.03157E+04 -6.83868E+02 -5.28599E+03 -7.67025E+03  1.72353E+01 -1.03639E+04  5.84861E+03 -1.02278E+04
  1.01142E+04 -5.83513E+03  1.25903E+04  1.89409E+03  8.92466E+03  8.02980E+03  1.46984E+03  1.15208E+04
 -4.24409E+03  9.89744E+03 -6.88519E+03  3.60374E+03 -4.21956E+03 -1.15252E+03 -1.82248E+03 -1.35008E+03
 -1.03052E+03  3.95870E+02 -2.33903E+03  1.91486E+03 -4.14716E+03  1.74130E+03 -7.03211E+03 -8.44550E+02
 -3.83446E+03 -6.83511E+03  8.11934E+02 -8.82709E+03  6.04398E+03 -8.93221E+03  8.83903E+03 -2.49226E+03
  9.22084E+03  4.24776E+03  4.02105E+03  7.45374E+03 -1.67667E+03  9.58077E+03 -7.02142E+03  5.83408E+03
 -8.23912E+03  5.46408E+02 -6.67632E+03 -4.52696E+03 -5.86066E+02 -7.48868E+03  4.38828E+03 -5.73729E+03
  5.72219E+03 -2.54442E+03  3.59428E+03  1.22799E+03  1.79866E+03  2.94306E+03  1.37731E+03  1.68114E+03
  1.43073E+03  7.47076E+02  1.77817E+03  1.24543E+03  2.36134E+03  3.03803E+03  2.90627E+03  4.44125E+03
 -1.88319E+03  7.46172E+03 -6.08711E+03  7.76632E+03 -8.44814E+03  2.93906E+03 -9.20120E+03 -3.49743E+03
 -4.27808E+03 -8.96321E+03  1.21113E+03 -9.82962E+03  5.22244E+03 -6.20333E+03  7.27570E+03 -1.57814E+03
  6.06281E+03  3.75623E+03  8.04268E+02  4.77379E+03 -1.73536E+03  3.02528E+03 -3.80299E+03 -1.11066E+03
 -1.97370E+03 -3.82047E+03  2.18723E+03 -3.73191E+03  3.66776E+03 -1.85598E+03  3.28665E+03  1.15826E+03
  2.09594E+03  1.34352E+03  1.02994E+03  3.73947E+02 -4.90340E+02  1.84991E+03  1.47318E+03 -1.25827E+02
  1.13917E+03 -5.30005E+02  3.57716E+03  1.49064E+03  1.38650E+03  4.92282E+03 -8.78433E+02  5.66374E+03
 -4.41920E+03  3.52440E+03 -5.40318E+03  1.00896E+03 -4.87583E+03 -1.59250E+03 -1.68141E+03 -2.36188E+03
  3.60659E+02 -4.11770E+03  2.19234E+03 -1.46413E+03  2.08532E+03  2.44233E+03 -4.63414E+02  3.06985E+03
 -4.22728E+03  1.62945E+03 -4.08049E+03 -2.99184E+03 -2.36274E+03 -4.96292E+03 -1.54510E+02 -4.15252E+03
  2.61878E+03 -2.40368E+03  2.80419E+03 -4.45915E+01  2.49101E+03  6.87490E+02  9.96285E+01  3.12179E+03
 -1.84006E+03  5.40190E+02 -2.92820E+03 -7.23673E+02  6.28957E+02 -2.76997E+03  3.87953E+03 -2.06922E+03
  4.81608E+03  6.00406E+02  5.30402E+03  3.39628E+03  1.70357E+03  5.22061E+03 -1.80461E+03  5.17012E+03
 -4.71764E+03  1.64715E+03 -4.16611E+03 -5.33802E+02 -2.91724E+03 -3.77962E+03  1.07189E+03 -3.06414E+03
  3.44057E+03 -1.59507E+03  2.32213E+03  1.62489E+03  6.45277E+02  3.21057E+03 -5.36443E+02  2.39629E+03
 -7.74161E+02  1.59870E+03 -1.78715E+03  9.78749E+01 -3.96235E+02  5.48755E+02 -1.07953E+03  1.39397E+03
 -1.07971E+03  2.48057E+03 -3.86727E+03  1.02457E+03 -5.41813E+03  1.09262E+02 -5.86700E+03 -3.33954E+03
 -2.43207E+03 -6.82288E+03  9.19632E+02 -7.90726E+03  4.29241E+03 -6.37774E+03  7.20247E+03 -2.55066E+03
  6.92379E+03  1.04469E+03  4.36955E+03  4.77604E+03 -7.42544E+01  5.01220E+03 -2.43156E+03  3.81512E+03
 -2.64406E+03  1.06141E+03 -1.63212E+03 -2.75080E+02 -1.42032E+03 -4.84243E+02 -7.50144E+02  6.80370E+02
 -1.83951E+03  1.06379E+02 -1.14702E+03 -5.43525E+02 -2.38888E+02 -1.49878E+03 -2.04164E+02 -1.54906E+03
  2.78056E+03 -2.05615E+03  2.58186E+03  1.97245E+02  3.42659E+03  2.12425E+03  1.11594E+02  5.50902E+03
 -2.13820E+03  5.52022E+03 -5.45353E+03  3.25110E+03 -6.25022E+03 -1.01975E+03 -4.83482E+03 -3.44752E+03
 -3.07739E+03 -4.57548E+03  8.31233E+02 -4.92936E+03  2.91090E+03 -3.46288E+03  2.89175E+03  7.00810E+02
  1.83927E+03  1.92147E+03 -5.15252E+01  7.00584E+02 -1.52538E+03 -3.57547E+02  7.12824E+01 -7.96489E+02
  1.41788E+03  1.53991E+02  1.41124E+03  9.23081E+02  1.64812E+03  1.43355E+03  2.19094E+01  2.03732E+03
 -2.21259E+03  2.29911E+03 -2.68617E+03  5.56656E+02 -2.87029E+03 -2.10777E+03  2.27358E+02 -4.03657E+03
  2.16713E+03 -3.73443E+03  3.39744E+03 -4.31706E+02  3.57847E+03  3.36509E+02  1.65223E+03  1.82972E+03
  7.93754E+02  2.74288E+03 -1.09764E+03  2.72868E+03 -1.50430E+03  1.43919E+03 -1.51694E+03 -6.14203E+00
 -1.47986E+03 -4.83809E+02 -7.73859E+02  6.77914E+02 -2.29041E+03  4.35060E+02 -2.47130E+03 -6.60150E+02
 -2.81493E+03 -1.19030E+03 -1.09828E+03 -3.61952E+03  1.73152E+03 -3.72116E+03  2.15037E+03 -1.62981E+03
  3.02025E+03  5.08031E+02  1.39003E+03  1.43881E+03 -6.12081E+02  2.47716E+03 -2.11214E+03  1.72147E+03
