 $NMID ID='MM_0lb_SNR400_12hz_g40_34.RAW', FMTDAT='(8E13.5)'
 TRAMP=1., VOLUME=1. $END
  3.10043E+05  1.09956E+03  3.37132E+05  2.50207E+05  8.50138E+04  3.37612E+05 -1.32114E+05  2.50947E+05
 -1.90662E+05  8.39515E+04 -1.12097E+05 -3.22081E+04  9.19544E+02 -5.09351E+04  5.33155E+04 -1.56255E+02
  3.57462E+04  5.32965E+04 -1.67017E+04  7.53286E+04 -6.13679E+04  6.33925E+04 -8.41275E+04  3.17169E+04
 -8.10050E+04 -1.15427E+04 -5.68290E+04 -5.10100E+04 -1.47091E+04 -6.92366E+04  2.78076E+04 -4.55705E+04
  4.03032E+04  3.54158E+03  1.59257E+04  4.74779E+04 -3.45293E+04  4.71048E+04 -6.73428E+04 -2.64383E+02
 -5.38187E+04 -5.70112E+04 -7.16795E+03 -7.72861E+04  3.35175E+04 -5.56448E+04  4.80351E+04 -1.73974E+04
  4.31675E+04  1.13758E+04  3.20153E+04  2.54997E+04  1.49665E+04  2.97611E+04 -5.22822E+03  2.73731E+04
 -2.18094E+04  1.22824E+04 -1.84332E+04 -5.43435E+03  5.98496E+03 -7.77731E+03  2.22075E+04  1.28135E+04
  7.45697E+03  3.58170E+04 -3.27400E+04  3.57702E+04 -6.32890E+04  1.64280E+03 -5.76993E+04 -4.22277E+04
 -1.22515E+04 -6.31435E+04  3.95362E+04 -4.54146E+04  5.88674E+04 -2.09021E+03  3.45384E+04  3.25183E+04
 -6.08491E+03  3.61789E+04 -3.05628E+04  1.60761E+04 -3.01247E+04 -4.28727E+03 -1.73933E+04 -1.11357E+04
 -8.91667E+03 -1.33925E+04 -1.39017E+03 -1.84483E+04  7.78132E+03 -2.35472E+04  1.60863E+04 -1.28931E+04
  1.11650E+04  5.35231E+03 -8.81866E+03  1.27252E+04 -2.20803E+04 -5.19293E+03 -7.93428E+03 -3.41123E+04
  2.38567E+04 -4.38739E+04  4.88183E+04 -2.04610E+04  4.58789E+04  1.97275E+04  1.60087E+04  4.57153E+04
 -1.65076E+04  3.39263E+04 -2.55594E+04  2.25332E+03 -1.02954E+04 -2.81799E+04  2.06516E+04 -3.40446E+04
  4.13723E+04 -9.85217E+03  3.60017E+04  2.38293E+04  1.87846E+04  4.71445E+04 -7.58142E+03  5.10680E+04
 -3.22572E+04  3.47348E+04 -4.28358E+04  9.73806E+03 -4.33700E+04 -1.69258E+04 -2.40827E+04 -3.86258E+04
  6.80648E+03 -3.88529E+04  3.17654E+04 -1.49939E+04  2.97068E+04  1.08568E+04  3.90398E+03  1.96990E+04
 -1.29097E+04  8.44036E+03 -1.01018E+04 -7.42205E+03  5.81524E+03 -1.05004E+04  1.80023E+04  5.68009E+03
  1.40427E+04  2.20110E+04 -5.70835E+03  2.56611E+04 -2.24294E+04  1.22987E+04 -2.85366E+04 -4.60056E+03
 -2.23268E+04 -1.71860E+04 -9.23145E+03 -2.15549E+04  4.11468E+03 -2.14735E+04  1.67479E+04 -1.94018E+04
  2.71662E+04 -1.30457E+04  3.41320E+04  3.07314E+03  2.48096E+04  2.01893E+04  4.27623E+03  3.77082E+04
 -1.86351E+04  3.11894E+04 -2.78061E+04  1.04023E+04 -2.07600E+04 -1.00133E+04 -4.58260E+03 -1.29713E+04
  1.55345E+03 -1.94843E+03 -5.08828E+03  7.58293E+03 -1.69309E+04  5.06006E+03 -1.68558E+04 -7.57770E+03
 -1.06675E+04 -1.97898E+04  5.21371E+03 -2.37918E+04  1.63050E+04 -1.67903E+04  1.96134E+04 -2.14352E+03
  1.23889E+04  1.33106E+04 -1.23412E+03  1.95624E+04 -1.36034E+04  1.10923E+04 -2.01111E+04 -3.94433E+03
 -1.46844E+04 -1.79045E+04 -1.68125E+03 -2.41017E+04  1.14392E+04 -1.95893E+04  2.05097E+04 -9.12865E+03
  1.79727E+04  3.58740E+01  1.32305E+04  4.10015E+03  6.52568E+03  5.40966E+02  1.07402E+04 -1.24914E+03
  1.82919E+04  2.19776E+03  2.10184E+04  1.57873E+04  1.31747E+04  3.14924E+04 -2.94403E+03  3.63796E+04
 -2.04143E+04  2.93168E+04 -3.37329E+04  1.52970E+04 -3.57107E+04 -2.77700E+03 -2.94430E+04 -2.09087E+04
 -1.24503E+04 -3.00508E+04  1.00325E+04 -2.64317E+04  2.25799E+04 -1.39385E+04  2.04979E+04  6.23539E+03
  7.11987E+03  1.55101E+04 -1.02586E+04  1.38402E+04 -1.73731E+04  1.92634E+03 -1.32851E+04 -1.06227E+04
 -1.06624E+02 -1.63200E+04  8.62606E+03 -1.23724E+04  1.04419E+04 -1.06629E+03  2.37657E+03  6.92615E+03
 -7.21906E+03  2.83020E+03 -6.18741E+03 -5.38490E+03 -6.25743E+02 -1.43687E+04  1.04199E+04 -1.51977E+04
  1.84509E+04 -7.62515E+03  1.98989E+04  3.22054E+03  1.75116E+04  1.44914E+04  7.59954E+03  2.27407E+04
 -3.60292E+03  2.37457E+04 -1.55007E+04  1.51598E+04 -1.75989E+04  3.15382E+03 -1.25784E+04 -3.89236E+03
 -5.37437E+03 -5.86044E+03 -1.89892E+02  7.02657E+02 -2.37520E+03  2.84857E+03 -5.64292E+03  4.36944E+03
 -1.19440E+04 -9.14165E+02 -1.27080E+04 -9.63722E+03 -5.27843E+03 -1.64125E+04  5.45652E+03 -1.31421E+04
  1.01013E+04 -5.20889E+03  6.99846E+03  3.80830E+03 -1.65231E+02  5.06994E+03 -5.92440E+03 -4.51559E+01
 -5.47840E+03 -7.61817E+03 -6.60913E+02 -1.23801E+04  6.22368E+03 -1.20886E+04  1.53186E+04 -6.90284E+03
  1.84009E+04  2.12924E+03  1.28454E+04  9.88949E+03  2.57535E+03  1.39227E+04 -7.63273E+03  1.22013E+04
 -1.00005E+04  3.76194E+03 -4.76394E+03 -2.45579E+03  1.19587E+03 -3.04898E+03  6.72790E+03 -4.42484E+02
  5.60700E+03  5.39540E+03  1.73371E+03  1.00274E+04 -7.44401E+03  9.52646E+03 -1.20886E+04  2.19727E+03
 -8.66961E+03 -5.97270E+03  4.34823E+02 -1.06475E+04  5.67976E+03 -5.36945E+03  7.70373E+03  2.24157E+03
  2.99497E+02  7.06256E+03 -6.64284E+03  8.73954E+03 -9.13502E+03  3.81112E+03 -9.13490E+03 -2.82819E+03
 -5.84370E+03 -1.07099E+04  2.43129E+03 -1.32462E+04  1.13045E+04 -7.84202E+03  1.16657E+04  2.32196E+03
  8.26049E+03  9.86188E+03 -5.87886E+02  1.17890E+04 -8.14843E+03  6.33365E+03 -8.92578E+03 -6.33800E+02
 -7.53592E+03 -8.01457E+03 -1.34041E+03 -8.99875E+03  4.82526E+03 -7.35039E+03  5.74650E+03 -2.84859E+03
  3.85607E+03  1.78620E+02 -1.01892E+03  1.98670E+03 -4.75563E+02 -1.77628E+03  1.00643E+03 -4.25682E+03
  7.57095E+03 -2.79390E+03  1.10079E+04  1.15396E+03  1.08192E+04  7.32035E+03  8.56364E+03  1.44877E+04
 -3.24113E+03  1.63449E+04 -1.42544E+04  1.27389E+04 -1.80916E+04  2.33658E+03 -1.44383E+04 -6.09809E+03
 -7.20246E+03 -1.21247E+04 -5.06495E+02 -9.77325E+03  3.45033E+03 -5.46863E+03  3.27039E+03 -3.98033E+03
  2.43248E+03 -2.20658E+03  2.80370E+03 -3.09366E+03  4.99820E+03 -2.77055E+03  5.98514E+03 -6.10564E+02
  8.12548E+03  1.70572E+03  3.60041E+03  6.90354E+03 -2.58269E+03  7.51016E+03 -8.18582E+03  5.12801E+03
 -9.31719E+03 -1.06588E+03 -5.80872E+03 -7.21778E+03 -3.01576E+02 -1.06757E+04  6.20932E+03 -1.10970E+04
  1.07273E+04 -6.28268E+03  1.36172E+04  1.60469E+03  8.98210E+03  8.43557E+03  1.92088E+03  1.22064E+04
 -5.07608E+03  1.01042E+04 -6.79678E+03  3.95512E+03 -5.12765E+03 -1.16227E+03 -2.20152E+03 -1.84166E+03
 -1.05576E+03  5.11106E+02 -1.30881E+03  2.68457E+03 -4.34207E+03  1.57581E+03 -7.04441E+03 -9.76332E+02
 -4.24631E+03 -6.98721E+03  3.48892E+01 -1.00300E+04  5.81804E+03 -8.72890E+03  8.84349E+03 -2.72614E+03
  8.71783E+03  4.10447E+03  4.68944E+03  8.28099E+03 -1.92395E+03  9.82019E+03 -6.93156E+03  6.28663E+03
 -9.25817E+03  7.47696E+02 -6.85102E+03 -5.91299E+03 -6.66645E+02 -7.83915E+03  3.40537E+03 -5.55906E+03
  6.60661E+03 -2.43592E+03  3.94494E+03  1.38727E+03  1.37548E+03  3.59794E+03  1.32339E+03  7.95760E+02
  2.82740E+03  1.72701E+02  2.51576E+03  1.17879E+03  2.94621E+03  4.07449E+03  2.99666E+03  4.25288E+03
 -1.60730E+03  7.35278E+03 -6.56874E+03  7.93290E+03 -9.33439E+03  1.23739E+03 -1.02410E+04 -3.88905E+03
 -4.80216E+03 -9.59046E+03  1.18060E+03 -1.05521E+04  5.43175E+03 -6.72979E+03  8.08311E+03 -2.31907E+03
  6.41317E+03  3.78455E+03  1.26345E+03  5.19851E+03 -3.15738E+03  3.41137E+03 -3.57113E+03 -4.75182E+02
 -1.36410E+03 -2.69665E+03  2.24981E+03 -4.64872E+03  3.86926E+03 -2.42704E+03  3.91143E+03  1.05298E+03
  1.33605E+03  2.20037E+03  9.04674E+02  2.06909E+03 -5.85961E+02  1.81622E+03  2.20031E+03 -5.58316E+02
  1.32898E+03 -4.52651E+02  4.20012E+03  1.80997E+03  1.15638E+03  5.95406E+03 -5.45664E+02  6.02997E+03
 -4.37988E+03  3.23571E+03 -5.40543E+03  1.10931E+03 -5.29509E+03 -1.99773E+03 -1.92196E+03 -3.74683E+03
  3.47933E+02 -3.89703E+03  1.23568E+03 -2.01764E+03  1.65129E+03  2.02534E+03 -1.00768E+03  2.83546E+03
 -3.79990E+03  1.71745E+03 -3.82187E+03 -2.66347E+03 -2.54120E+03 -5.39216E+03  8.22250E+02 -5.16420E+03
  2.16231E+03 -3.17217E+03  2.95608E+03 -6.61986E+02  3.54833E+03  9.07168E+02  1.28770E+03  2.29815E+03
 -2.32765E+03  8.01282E+02 -3.23191E+03 -1.21702E+03  1.31269E+03 -4.37292E+03  4.26635E+03 -2.85386E+03
  5.81607E+03  7.25780E+02  6.02979E+03  3.50589E+03  1.91110E+03  5.93937E+03 -1.61691E+03  5.59881E+03
 -4.07553E+03  2.40258E+03 -4.75004E+03 -4.11131E+02 -3.31148E+03 -4.05498E+03  9.84158E+02 -3.78597E+03
  3.25934E+03 -2.07988E+03  2.90620E+03  2.02310E+03  8.82756E+02  3.68209E+03  7.02583E+01  2.88475E+03
 -1.15620E+03  2.00260E+03 -2.11157E+03  3.07085E+02 -4.07339E+01  7.55712E+02 -8.16908E+02  1.23533E+03
 -1.51759E+03  2.12303E+03 -4.07980E+03  2.34573E+03 -5.48742E+03  3.55429E+02 -6.15583E+03 -3.18598E+03
 -3.08763E+03 -7.35422E+03  1.63744E+03 -9.33249E+03  5.38773E+03 -6.97089E+03  7.46292E+03 -2.77728E+03
  7.85703E+03  1.25520E+03  4.77042E+03  4.40245E+03 -6.27739E+01  5.68889E+03 -1.59237E+03  4.60229E+03
 -2.85724E+03  1.22947E+03 -2.74807E+03  8.93527E+01 -7.13766E+02 -9.40240E+01 -1.00906E+03  5.61515E+01
 -1.24968E+03  2.13068E+02 -1.38583E+03 -5.03207E+02 -1.43241E+00 -1.06641E+03  5.16270E+01 -2.38732E+03
  3.18926E+03 -2.46882E+03  3.46941E+03  7.61524E+02  4.09239E+03  3.77080E+03  5.69676E+02  6.36751E+03
 -3.48004E+03  6.97922E+03 -6.02003E+03  4.62795E+03 -6.82920E+03 -2.88425E+02 -4.73685E+03 -4.22296E+03
 -2.42469E+03 -5.66925E+03  1.37661E+03 -5.03969E+03  3.61943E+03 -2.48284E+03  3.78332E+03  2.36284E+01
  1.96157E+03  2.10378E+03 -2.84845E+02  1.88471E+03 -8.57549E+02  2.83150E+02  1.72782E+02 -9.62511E+02
  1.64392E+03 -2.18990E+02  1.91516E+03  1.63702E+03  1.42621E+03  2.08120E+03  8.68697E+02  2.39842E+03
 -2.02945E+03  3.36232E+03 -2.91595E+03  1.23777E+02 -3.25546E+03 -2.61927E+03 -1.21406E+02 -4.53064E+03
  2.63374E+03 -3.65584E+03  4.02885E+03 -1.22605E+03  4.71561E+03  7.91498E+02  2.25364E+03  3.72713E+03
  1.00945E+03  3.64855E+03 -1.17113E+03  3.11184E+03 -2.65454E+03  2.23160E+03 -1.10217E+03  5.42572E+02
 -6.88479E+02  1.82642E+02 -7.00852E+02  7.53243E+02 -2.14628E+03  1.32132E+03 -2.88813E+03 -7.32613E+02
 -3.04355E+03 -1.58535E+03 -1.39027E+03 -3.58070E+03  1.91816E+03 -3.84221E+03  3.62548E+03 -2.11315E+03
  4.16231E+03 -4.16880E+02  1.55960E+03  1.89301E+03 -2.01365E+02  3.27407E+03 -2.81607E+03  2.32961E+03
