 $NMID ID='MM_0lb_SNR400_12hz_g60_65.RAW', FMTDAT='(8E13.5)'
 TRAMP=1., VOLUME=1. $END
  3.09683E+05  5.57969E+02  3.37904E+05  2.50752E+05  8.46618E+04  3.37869E+05 -1.31863E+05  2.51572E+05
 -1.90386E+05  8.40999E+04 -1.12082E+05 -3.22776E+04  2.79232E+02 -5.08803E+04  5.37339E+04 -2.37949E+02
  3.53599E+04  5.28023E+04 -1.64000E+04  7.57514E+04 -6.12499E+04  6.43350E+04 -8.50688E+04  3.26236E+04
 -8.22069E+04 -1.17229E+04 -5.79503E+04 -5.24120E+04 -1.58202E+04 -7.09395E+04  2.82931E+04 -4.65724E+04
  4.06073E+04  2.98878E+03  1.68689E+04  4.78362E+04 -3.43849E+04  4.85347E+04 -6.71981E+04  2.42076E+02
 -5.44842E+04 -5.74820E+04 -7.46540E+03 -7.89226E+04  3.44532E+04 -5.68095E+04  4.89006E+04 -1.73294E+04
  4.52617E+04  1.14620E+04  3.25528E+04  2.67924E+04  1.60067E+04  3.01359E+04 -5.40581E+03  2.72113E+04
 -2.15608E+04  1.20334E+04 -1.82074E+04 -5.29645E+03  6.89580E+03 -7.63180E+03  2.32299E+04  1.34230E+04
  6.91818E+03  3.66097E+04 -3.37712E+04  3.66412E+04 -6.54032E+04  2.43060E+03 -5.78902E+04 -4.44588E+04
 -1.30169E+04 -6.59111E+04  4.09929E+04 -4.60463E+04  6.03122E+04 -2.56683E+03  3.54923E+04  3.37043E+04
 -5.93788E+03  3.85015E+04 -3.15313E+04  1.78934E+04 -3.30211E+04 -3.72943E+03 -1.84331E+04 -1.16963E+04
 -9.22731E+03 -1.47319E+04 -8.21410E+02 -2.00516E+04  8.18933E+03 -2.35758E+04  1.61459E+04 -1.25739E+04
  1.09658E+04  5.82671E+03 -9.73965E+03  1.29702E+04 -2.30860E+04 -5.81038E+03 -8.30558E+03 -3.60506E+04
  2.44448E+04 -4.57363E+04  5.09278E+04 -2.08385E+04  4.71946E+04  2.08873E+04  1.70871E+04  4.65332E+04
 -1.65297E+04  3.48986E+04 -2.68582E+04  1.93032E+03 -1.05109E+04 -2.94768E+04  2.17537E+04 -3.57540E+04
  4.35316E+04 -1.08611E+04  3.96271E+04  2.45302E+04  2.02258E+04  4.96619E+04 -7.62988E+03  5.37875E+04
 -3.31952E+04  3.61981E+04 -4.56931E+04  1.01343E+04 -4.60702E+04 -1.83137E+04 -2.50141E+04 -4.03456E+04
  7.63683E+03 -4.11175E+04  3.28949E+04 -1.62403E+04  3.11069E+04  1.18735E+04  4.63675E+03  2.04975E+04
 -1.43200E+04  9.52636E+03 -1.05358E+04 -7.93585E+03  6.03154E+03 -1.11563E+04  1.87914E+04  5.85784E+03
  1.42464E+04  2.24298E+04 -5.57320E+03  2.63101E+04 -2.26937E+04  1.34245E+04 -3.17828E+04 -3.27351E+03
 -2.29551E+04 -1.78628E+04 -1.03291E+04 -2.39951E+04  4.43818E+03 -2.33565E+04  1.79707E+04 -2.15238E+04
  2.93232E+04 -1.46588E+04  3.67706E+04  3.91692E+03  2.70187E+04  2.26977E+04  4.99028E+03  3.90271E+04
 -1.93974E+04  3.24037E+04 -2.97076E+04  1.13603E+04 -2.19407E+04 -1.08589E+04 -4.32674E+03 -1.26449E+04
  1.56437E+03 -1.79417E+03 -6.64767E+03  7.98649E+03 -1.92298E+04  5.46556E+03 -1.90144E+04 -8.54564E+03
 -1.02918E+04 -2.16008E+04  5.37576E+03 -2.63901E+04  1.69656E+04 -1.87116E+04  2.11454E+04 -1.63993E+03
  1.29817E+04  1.48659E+04 -1.01670E+03  2.18372E+04 -1.57288E+04  1.20473E+04 -2.17196E+04 -4.85649E+03
 -1.54924E+04 -1.94730E+04 -1.90957E+03 -2.66555E+04  1.11729E+04 -2.22007E+04  2.12813E+04 -1.11968E+04
  2.05245E+04 -3.33449E+02  1.47624E+04  4.76418E+03  8.02106E+03  8.01093E+02  1.15391E+04 -2.03771E+03
  2.00566E+04  2.61628E+03  2.28428E+04  1.69680E+04  1.56930E+04  3.54053E+04 -2.80954E+03  4.05875E+04
 -2.23980E+04  3.31210E+04 -3.84393E+04  1.65716E+04 -4.06105E+04 -2.21395E+03 -3.23899E+04 -2.27799E+04
 -1.39672E+04 -3.31900E+04  1.13230E+04 -2.97595E+04  2.49833E+04 -1.37210E+04  2.24153E+04  6.95191E+03
  7.07703E+03  1.69553E+04 -1.05937E+04  1.44743E+04 -1.91907E+04  3.05587E+03 -1.39527E+04 -1.24356E+04
 -6.58236E+02 -1.76994E+04  9.29675E+03 -1.30237E+04  1.17541E+04 -2.04685E+03  2.98406E+03  7.76344E+03
 -8.16178E+03  3.22119E+03 -7.88377E+03 -6.22912E+03 -1.54026E+03 -1.63226E+04  1.14331E+04 -1.74163E+04
  2.05348E+04 -1.03706E+04  2.31848E+04  3.24958E+03  2.02010E+04  1.64162E+04  9.16686E+03  2.54117E+04
 -4.41883E+03  2.74124E+04 -1.77939E+04  1.70625E+04 -1.97078E+04  3.64566E+03 -1.31197E+04 -4.82432E+03
 -6.67503E+03 -7.22497E+03 -5.94694E+02  9.70038E+02 -2.87345E+03  2.96549E+03 -6.42207E+03  5.22383E+03
 -1.30572E+04 -1.05628E+03 -1.32636E+04 -1.07216E+04 -5.94365E+03 -1.68364E+04  6.39017E+03 -1.41717E+04
  1.10616E+04 -5.54940E+03  8.72577E+03  3.54506E+03 -1.26652E+02  5.57437E+03 -6.70165E+03 -5.98838E+02
 -6.42224E+03 -8.94750E+03 -7.36024E+02 -1.28962E+04  8.04045E+03 -1.49267E+04  1.74018E+04 -7.87321E+03
  2.03892E+04  2.85727E+03  1.49810E+04  1.16116E+04  2.57272E+03  1.61655E+04 -8.05404E+03  1.40170E+04
 -1.10938E+04  3.83029E+03 -5.63191E+03 -2.60593E+03  2.16904E+03 -4.15402E+03  6.46243E+03 -1.13424E+03
  7.24638E+03  6.92651E+03  1.45476E+03  1.06539E+04 -7.86070E+03  1.05440E+04 -1.45203E+04  2.22363E+03
 -9.13988E+03 -6.91451E+03 -2.30951E+01 -1.10766E+04  7.01582E+03 -6.74538E+03  8.00394E+03  2.99230E+03
  1.96655E+03  8.95775E+03 -6.98278E+03  9.88972E+03 -1.15099E+04  4.72312E+03 -1.15685E+04 -3.34916E+03
 -6.32313E+03 -1.30935E+04  3.37280E+03 -1.52104E+04  1.31494E+04 -9.78045E+03  1.37118E+04  2.63487E+03
  8.04703E+03  1.09046E+04 -1.45430E+03  1.30204E+04 -9.73067E+03  6.98118E+03 -1.07021E+04 -4.94032E+02
 -9.64569E+03 -8.93417E+03 -1.75463E+03 -9.57233E+03  5.50200E+03 -8.36977E+03  6.25931E+03 -3.68594E+03
  4.50502E+03  1.98191E+03 -7.12494E+01  1.34308E+03 -6.91859E+02 -2.65953E+03  2.30257E+03 -6.00730E+03
  9.19978E+03 -4.12860E+03  1.33415E+04  2.05499E+03  1.31680E+04  9.53052E+03  8.99426E+03  1.70888E+04
 -4.05311E+03  1.92006E+04 -1.63590E+04  1.46665E+04 -2.10421E+04  2.92046E+03 -1.69663E+04 -6.87383E+03
 -8.34048E+03 -1.35713E+04  2.73162E+02 -1.19033E+04  4.16565E+03 -6.31377E+03  3.95110E+03 -4.47424E+03
  2.99204E+03 -2.40906E+03  3.66270E+03 -3.15549E+03  5.42300E+03 -2.89910E+03  6.56228E+03 -8.66611E+02
  9.23650E+03  2.21942E+03  4.22272E+03  7.77885E+03 -2.01023E+03  9.10259E+03 -8.75005E+03  6.62011E+03
 -1.12059E+04 -9.71873E+02 -6.86492E+03 -8.06068E+03 -1.02610E+03 -1.25667E+04  6.69721E+03 -1.18903E+04
  1.21431E+04 -6.81838E+03  1.52364E+04  1.78450E+03  1.08059E+04  1.09575E+04  1.79024E+03  1.33924E+04
 -5.64332E+03  1.18803E+04 -8.17559E+03  4.05316E+03 -5.56145E+03 -1.31142E+03 -1.84063E+03 -1.85449E+03
 -1.60470E+03  1.09856E+02 -1.50418E+03  2.47525E+03 -5.31834E+03  1.44324E+03 -8.24692E+03 -8.37563E+02
 -5.62352E+03 -7.43125E+03  2.85192E+02 -1.04550E+04  7.25821E+03 -9.65787E+03  1.07442E+04 -3.72967E+03
  1.09254E+04  5.47429E+03  4.93184E+03  9.76160E+03 -2.52842E+03  1.21853E+04 -8.36484E+03  7.43314E+03
 -1.05336E+04  1.39472E+02 -8.30359E+03 -6.71490E+03 -2.13055E+03 -9.06829E+03  4.57948E+03 -7.17205E+03
  7.19219E+03 -2.74509E+03  4.68861E+03  1.59585E+03  1.52785E+03  3.25015E+03 -2.04505E+02  1.41422E+03
  2.54928E+03  1.12524E+03  2.91162E+03  1.36431E+03  3.18088E+03  4.92156E+03  2.88776E+03  5.38807E+03
 -1.72533E+03  8.76574E+03 -7.30705E+03  9.43337E+03 -1.14321E+04  2.33195E+03 -1.18208E+04 -4.76180E+03
 -5.06430E+03 -1.04197E+04  2.09301E+03 -1.18974E+04  5.92392E+03 -7.56729E+03  9.07315E+03 -2.34201E+03
  6.72721E+03  4.18784E+03  1.72140E+03  6.32641E+03 -2.86783E+03  4.59750E+03 -4.08426E+03 -7.93488E+02
 -1.35156E+03 -4.33389E+03  2.61205E+03 -4.65057E+03  4.67829E+03 -2.40496E+03  4.27442E+03  1.00076E+03
  2.98195E+03  2.18479E+03  1.52734E+03  1.61250E+03 -1.30029E+01  1.22806E+03  1.82208E+03 -7.33619E+02
  1.47019E+03 -6.62430E+02  4.63674E+03  2.35542E+03  2.42891E+03  6.14070E+03 -2.77808E+02  7.69150E+03
 -5.43415E+03  5.10718E+03 -6.83828E+03  1.41754E+03 -6.57623E+03 -2.78929E+03 -3.16857E+03 -3.98627E+03
 -2.18246E+01 -3.86280E+03  2.64386E+03 -2.01575E+03  1.72173E+03  2.28831E+03 -1.23104E+03  3.95415E+03
 -4.87478E+03  1.58631E+03 -5.02173E+03 -2.01924E+03 -2.58400E+03 -5.98261E+03  1.27296E+03 -5.87799E+03
  3.34677E+03 -3.10695E+03  4.12131E+03  1.79828E+02  3.23183E+03  1.46057E+03  6.50085E+02  3.10361E+03
 -2.24936E+03  4.75769E+02 -2.66067E+03 -1.68054E+03  1.06550E+03 -4.22584E+03  5.69064E+03 -3.57542E+03
  6.21454E+03  8.07949E+02  7.28320E+03  4.69889E+03  2.12523E+03  6.77251E+03 -2.23743E+03  6.24039E+03
 -5.00204E+03  2.82011E+03 -5.78520E+03 -7.51910E+02 -3.09087E+03 -4.53026E+03  4.53255E+02 -3.41681E+03
  4.21906E+03 -2.16885E+03  3.93255E+03  8.72087E+02  1.06260E+03  3.53605E+03 -3.70279E+02  3.37011E+03
 -1.52864E+03  2.47431E+03 -1.30470E+03  7.68978E+02 -8.24093E+02  2.95975E+02 -8.26651E+02  1.62994E+03
 -2.17051E+03  2.67120E+03 -3.92860E+03  2.03812E+03 -6.43265E+03  2.75470E+02 -7.79586E+03 -4.05013E+03
 -3.28331E+03 -8.62015E+03  1.10246E+03 -9.80160E+03  5.62055E+03 -7.65416E+03  8.80432E+03 -2.72160E+03
  8.10917E+03  1.24087E+03  5.26521E+03  6.39314E+03 -4.35068E+01  6.32772E+03 -2.83596E+03  4.47598E+03
 -3.48179E+03  1.27416E+03 -2.43341E+03 -9.84346E+02 -1.32228E+03  6.64176E+01 -6.46785E+02  3.51881E+02
 -1.60364E+03 -7.16499E+02 -2.03330E+03 -5.37740E+02 -4.70385E+01 -1.67649E+03 -3.35791E+02 -2.38182E+03
  3.47658E+03 -1.66655E+03  4.33082E+03  4.35214E+02  5.06664E+03  3.41715E+03  1.00337E+03  6.84924E+03
 -2.75027E+03  6.99721E+03 -6.67501E+03  4.65475E+03 -7.67251E+03 -3.58908E+02 -5.83467E+03 -4.79803E+03
 -2.77333E+03 -6.69058E+03  1.52182E+03 -5.48115E+03  4.39530E+03 -3.22537E+03  4.14857E+03  4.04950E+02
  2.93675E+03  1.61951E+03 -8.13822E+01  1.30284E+03 -1.16847E+03  3.67136E+02 -3.33277E+02 -1.60978E+03
  2.52139E+03 -2.09853E+02  2.30889E+03  1.32624E+03  1.09420E+03  2.62928E+03  7.72665E+02  3.09422E+03
 -3.10427E+03  3.01824E+03 -3.58431E+03 -1.02258E+02 -3.73978E+03 -2.63302E+03  3.04961E+01 -5.74741E+03
  3.12799E+03 -4.35477E+03  4.41316E+03 -1.16633E+03  4.10043E+03  8.70712E+02  3.06881E+03  3.69504E+03
  9.60495E+02  4.13961E+03 -1.37629E+03  2.47814E+03 -3.01116E+03  2.59622E+03 -1.86370E+03  7.73523E+02
 -5.87042E+02  5.26404E+02 -1.82307E+03  1.73912E+02 -2.27366E+03  3.33180E+02 -3.22460E+03 -4.33547E+02
 -2.92830E+03 -1.88431E+03 -4.85313E+02 -4.01432E+03  1.86672E+03 -4.95737E+03  3.62164E+03 -2.24371E+03
  3.99258E+03  4.37703E+02  1.53961E+03  2.86287E+03 -1.39702E+02  4.01578E+03 -3.59940E+03  2.61398E+03
