 $NMID ID='MM_0lb_SNR400_10hz_g45_68.RAW', FMTDAT='(8E13.5)'
 TRAMP=1., VOLUME=1. $END
  3.09636E+05  9.74478E+01  3.37808E+05  2.51162E+05  8.55882E+04  3.38345E+05 -1.32243E+05  2.52128E+05
 -1.90755E+05  8.34721E+04 -1.12710E+05 -3.27305E+04 -8.97196E+00 -5.09107E+04  5.42333E+04 -2.56838E+02
  3.55304E+04  5.30363E+04 -1.63942E+04  7.51222E+04 -6.11814E+04  6.43878E+04 -8.49724E+04  3.20085E+04
 -8.21795E+04 -1.12738E+04 -5.74222E+04 -5.21816E+04 -1.46275E+04 -7.15042E+04  2.87867E+04 -4.64390E+04
  4.08273E+04  2.95531E+03  1.64607E+04  4.84268E+04 -3.40473E+04  4.74957E+04 -6.73082E+04 -1.92424E+02
 -5.37895E+04 -5.76166E+04 -6.99597E+03 -7.82169E+04  3.43063E+04 -5.63108E+04  4.93140E+04 -1.79895E+04
  4.51127E+04  1.07139E+04  3.22108E+04  2.60818E+04  1.56995E+04  3.02265E+04 -5.95035E+03  2.74774E+04
 -2.24989E+04  1.18419E+04 -1.76526E+04 -5.30436E+03  6.72365E+03 -7.14062E+03  2.29091E+04  1.19898E+04
  7.01718E+03  3.66620E+04 -3.29864E+04  3.67302E+04 -6.52617E+04  1.35628E+03 -5.83945E+04 -4.34780E+04
 -1.30327E+04 -6.54175E+04  4.16753E+04 -4.70238E+04  5.96989E+04 -2.36539E+03  3.63932E+04  3.31128E+04
 -5.23026E+03  3.87276E+04 -3.13183E+04  1.76210E+04 -3.22134E+04 -3.99433E+03 -1.80540E+04 -1.15724E+04
 -8.75786E+03 -1.37545E+04 -8.01009E+02 -1.89902E+04  8.37965E+03 -2.27286E+04  1.59683E+04 -1.32524E+04
  1.04464E+04  5.78534E+03 -9.19200E+03  1.26215E+04 -2.26261E+04 -5.98367E+03 -9.09870E+03 -3.62061E+04
  2.39910E+04 -4.54104E+04  5.08460E+04 -2.08592E+04  4.76381E+04  2.04232E+04  1.65353E+04  4.59466E+04
 -1.61392E+04  3.52305E+04 -2.68276E+04  2.10708E+03 -1.12414E+04 -2.89739E+04  2.16436E+04 -3.70060E+04
  4.34784E+04 -1.00287E+04  3.87662E+04  2.44319E+04  2.06955E+04  5.06377E+04 -7.66843E+03  5.41589E+04
 -3.46197E+04  3.74259E+04 -4.59472E+04  1.03952E+04 -4.53172E+04 -1.78607E+04 -2.51089E+04 -4.10868E+04
  7.62197E+03 -4.08026E+04  3.36998E+04 -1.64952E+04  3.14844E+04  1.10558E+04  4.67695E+03  2.08349E+04
 -1.39087E+04  9.01861E+03 -1.07335E+04 -8.37737E+03  5.14379E+03 -1.14602E+04  1.81335E+04  4.97887E+03
  1.39673E+04  2.19645E+04 -6.00947E+03  2.68819E+04 -2.37148E+04  1.35127E+04 -3.10312E+04 -4.08069E+03
 -2.34135E+04 -1.89246E+04 -1.10503E+04 -2.34003E+04  3.89794E+03 -2.37365E+04  1.82177E+04 -2.15042E+04
  3.01793E+04 -1.38545E+04  3.63374E+04  4.19907E+03  2.58923E+04  2.32651E+04  4.22741E+03  3.98100E+04
 -1.93450E+04  3.25906E+04 -3.02511E+04  1.14993E+04 -2.14747E+04 -9.88788E+03 -4.03062E+03 -1.33801E+04
  1.11573E+03 -7.71023E+02 -6.49709E+03  7.87225E+03 -1.93614E+04  5.34190E+03 -1.91340E+04 -8.46572E+03
 -1.14940E+04 -2.26167E+04  5.72184E+03 -2.67840E+04  1.76781E+04 -1.83499E+04  2.14818E+04 -2.21150E+03
  1.39803E+04  1.50454E+04 -1.17153E+03  2.20268E+04 -1.49943E+04  1.16885E+04 -2.18310E+04 -4.54515E+03
 -1.60239E+04 -2.01422E+04 -1.92050E+03 -2.62477E+04  1.20799E+04 -2.23854E+04  2.23835E+04 -1.14053E+04
  2.06711E+04 -6.43134E+02  1.48274E+04  5.11671E+03  8.24908E+03  1.57898E+03  1.19962E+04 -2.04486E+03
  2.07601E+04  3.35952E+03  2.35783E+04  1.73305E+04  1.66261E+04  3.58315E+04 -3.41181E+03  4.19173E+04
 -2.29354E+04  3.48301E+04 -3.83111E+04  1.74624E+04 -4.13515E+04 -3.05025E+03 -3.32618E+04 -2.40625E+04
 -1.32549E+04 -3.35609E+04  1.18866E+04 -3.01219E+04  2.59570E+04 -1.33304E+04  2.30413E+04  7.66789E+03
  7.71348E+03  1.72475E+04 -1.08416E+04  1.44353E+04 -1.80191E+04  2.31054E+03 -1.42116E+04 -1.15286E+04
  7.46197E+02 -1.86164E+04  9.38346E+03 -1.24911E+04  1.29353E+04 -6.49646E+02  3.31348E+03  8.08394E+03
 -8.35341E+03  3.13445E+03 -7.30384E+03 -6.68896E+03 -1.60655E+03 -1.70095E+04  1.16559E+04 -1.80312E+04
  2.06909E+04 -9.92111E+03  2.39353E+04  3.24361E+03  2.07694E+04  1.63683E+04  9.25751E+03  2.66446E+04
 -4.61692E+03  2.88659E+04 -1.87433E+04  1.74444E+04 -2.05151E+04  4.14190E+03 -1.40369E+04 -4.34233E+03
 -5.60433E+03 -6.76636E+03 -5.64390E+02  9.95505E+02 -2.56668E+03  2.53512E+03 -6.60354E+03  4.99990E+03
 -1.22937E+04 -1.06551E+03 -1.35432E+04 -1.10333E+04 -5.55537E+03 -1.78561E+04  6.14166E+03 -1.42977E+04
  1.18630E+04 -5.89016E+03  9.66021E+03  3.95273E+03 -7.87000E+02  5.78526E+03 -7.12567E+03  3.00859E+02
 -6.69038E+03 -8.89267E+03 -1.30342E+03 -1.39755E+04  9.17399E+03 -1.50441E+04  1.81613E+04 -8.01507E+03
  2.15831E+04  1.10444E+03  1.55767E+04  1.28149E+04  3.49094E+03  1.75351E+04 -8.17653E+03  1.46142E+04
 -1.21124E+04  4.42559E+03 -5.47730E+03 -2.56094E+03  1.94356E+03 -3.95007E+03  7.19855E+03 -1.05300E+03
  6.41832E+03  6.60562E+03  8.74294E+02  1.18918E+04 -7.98631E+03  1.07944E+04 -1.47178E+04  3.05462E+03
 -1.02453E+04 -7.15322E+03 -1.45600E+02 -1.26469E+04  8.30545E+03 -5.79442E+03  7.91565E+03  3.59260E+03
  2.00004E+03  9.03690E+03 -7.33526E+03  1.09332E+04 -1.17639E+04  5.07570E+03 -1.18597E+04 -4.09653E+03
 -7.45932E+03 -1.41410E+04  2.51697E+03 -1.62747E+04  1.44935E+04 -9.36957E+03  1.53990E+04  1.87355E+03
  8.41438E+03  1.16402E+04 -1.79551E+03  1.40819E+04 -1.10181E+04  7.62490E+03 -1.11007E+04 -1.28876E+03
 -1.00634E+04 -9.70559E+03 -1.73863E+03 -1.13462E+04  5.96083E+03 -9.21017E+03  6.27564E+03 -2.80707E+03
  4.71147E+03  5.81810E+02 -5.76977E+02  2.19101E+03 -9.30377E+02 -2.71990E+03  2.43220E+03 -6.61714E+03
  9.68179E+03 -4.59439E+03  1.42501E+04  1.93702E+03  1.38389E+04  9.96100E+03  9.35656E+03  1.78625E+04
 -4.36534E+03  2.11907E+04 -1.71399E+04  1.57351E+04 -2.30821E+04  3.55053E+03 -1.82402E+04 -7.24126E+03
 -9.15227E+03 -1.57002E+04 -7.56435E+02 -1.31138E+04  4.36281E+03 -6.90931E+03  4.75260E+03 -4.57392E+03
  2.35666E+03 -2.38087E+03  3.85125E+03 -4.01973E+03  5.91145E+03 -2.88390E+03  7.98384E+03 -1.21985E+03
  9.28937E+03  2.52792E+03  4.28342E+03  7.99852E+03 -2.52809E+03  9.81576E+03 -1.01842E+04  7.21201E+03
 -1.24607E+04 -1.02320E+03 -8.08616E+03 -9.05154E+03 -9.14643E+02 -1.38481E+04  7.89870E+03 -1.35605E+04
  1.42925E+04 -7.74844E+03  1.73171E+04  2.30409E+03  1.21473E+04  1.19410E+04  1.12880E+03  1.55722E+04
 -6.38456E+03  1.23356E+04 -8.98946E+03  4.22977E+03 -6.25513E+03 -8.69022E+02 -2.52112E+03 -1.65806E+03
 -1.12086E+03  1.03577E+02 -2.30297E+03  2.43907E+03 -5.20630E+03  1.58364E+03 -9.33913E+03 -1.44739E+03
 -7.18562E+03 -8.87339E+03  1.71464E+02 -1.32193E+04  8.40995E+03 -1.27972E+04  1.28651E+04 -3.60584E+03
  1.22625E+04  5.96291E+03  5.48387E+03  1.13676E+04 -2.94986E+03  1.25496E+04 -9.20854E+03  7.36699E+03
 -1.18721E+04  5.81396E+02 -9.22502E+03 -7.45381E+03 -6.37447E+02 -1.01991E+04  5.61356E+03 -7.39987E+03
  7.78991E+03 -2.53351E+03  6.25839E+03  2.37423E+03  1.98389E+03  4.31398E+03  1.99021E+03  2.17145E+03
  2.41471E+03  1.18640E+03  2.96991E+03  2.41230E+03  4.56122E+03  4.65673E+03  3.43007E+03  6.88573E+03
 -2.66918E+03  9.70809E+03 -8.45580E+03  1.03725E+04 -1.27277E+04  3.60311E+03 -1.31308E+04 -5.59259E+03
 -5.79317E+03 -1.19729E+04  1.08262E+03 -1.39064E+04  7.15940E+03 -8.53603E+03  1.01136E+04 -2.14366E+03
  8.51673E+03  5.05924E+03  2.30767E+03  7.69224E+03 -3.95915E+03  3.99659E+03 -5.69518E+03 -8.96032E+02
 -2.61663E+03 -5.80100E+03  3.17785E+03 -5.30108E+03  5.40437E+03 -3.11831E+03  5.30692E+03  8.58119E+02
  2.65211E+03  3.01182E+03  1.35751E+03  1.51526E+03 -8.55591E+02  1.88049E+03  7.61440E+02 -4.52701E+02
  1.77235E+03 -1.17212E+03  5.03666E+03  2.27690E+03  3.29190E+03  6.36652E+03 -1.90683E+03  9.78833E+03
 -5.91821E+03  5.77314E+03 -7.53550E+03  1.08345E+03 -7.35341E+03 -3.17087E+03 -2.90760E+03 -4.36922E+03
  9.39663E+02 -4.47731E+03  3.26184E+03 -2.77928E+03  2.51259E+03  2.54265E+03 -1.00962E+03  4.22701E+03
 -5.75305E+03  2.71838E+03 -6.05158E+03 -4.22343E+03 -3.35154E+03 -6.51915E+03  1.22208E+03 -7.68209E+03
  4.57990E+03 -4.99872E+03  4.82613E+03  2.63328E+01  5.49602E+03  1.18474E+03  8.80051E+02  4.00807E+03
 -1.94827E+03  1.36116E+03 -3.19206E+03 -2.23312E+03  7.15835E+02 -5.25199E+03  6.12024E+03 -3.74748E+03
  7.93383E+03  6.90040E+02  7.88108E+03  5.61819E+03  3.39171E+03  8.68846E+03 -2.54479E+03  7.09556E+03
 -6.64622E+03  3.59290E+03 -6.70797E+03 -1.20895E+03 -3.03932E+03 -5.78285E+03  1.09447E+03 -4.76617E+03
  5.58056E+03 -3.25375E+03  4.25426E+03  2.23086E+03  1.06681E+03  5.41700E+03 -9.82039E+02  4.57987E+03
 -2.52252E+03  2.25271E+03 -1.93717E+03  9.38744E+02 -4.51157E+02  7.30997E+02 -1.34037E+03  2.32771E+03
 -2.63850E+03  3.60792E+03 -6.02890E+03  3.36206E+03 -8.31244E+03 -2.42175E+02 -8.69843E+03 -4.98283E+03
 -5.78150E+03 -1.11877E+04  2.10361E+03 -1.24823E+04  8.01295E+03 -1.00313E+04  1.24484E+04 -3.63997E+03
  1.08370E+04  1.52387E+03  6.66632E+03  7.16614E+03  7.54304E+02  8.58419E+03 -3.19335E+03  6.62058E+03
 -5.25129E+03  3.31269E+03 -3.18929E+03 -3.55338E+02 -8.64517E+02 -8.74310E+02 -3.99110E+02  1.59102E+02
 -2.19338E+03  5.19700E+02 -1.25021E+03 -6.99322E+01 -9.08877E+01 -2.02672E+03 -3.34154E+02 -2.63076E+03
  3.66771E+03 -2.73719E+03  5.32233E+03 -1.45421E+02  6.52220E+03  4.31749E+03  1.35099E+03  8.67587E+03
 -3.98004E+03  9.34783E+03 -8.81112E+03  5.54764E+03 -1.06675E+04 -7.14453E+02 -7.27404E+03 -6.92775E+03
 -3.41871E+03 -8.97636E+03  2.24758E+03 -7.58092E+03  5.21737E+03 -5.55069E+03  5.58667E+03 -8.84346E+01
  3.52339E+03  2.75660E+03 -8.23882E+02  2.37472E+03 -1.59891E+03  2.58477E+02 -5.19283E+02 -2.48722E+03
  2.40059E+03 -1.47988E+03  3.44501E+03  1.06361E+03  2.46244E+03  2.75414E+03  2.35099E+02  4.64179E+03
 -3.85263E+03  3.21123E+03 -5.36828E+03  6.75534E+02 -5.06559E+03 -4.37248E+03 -1.01118E+03 -7.36665E+03
  4.66803E+03 -5.78854E+03  6.76882E+03 -1.68989E+03  6.28666E+03  1.59728E+03  3.47045E+03  5.33968E+03
  6.34044E+02  5.69723E+03 -1.82693E+03  4.22796E+03 -3.43654E+03  1.93435E+03 -2.56516E+03  1.06963E+02
 -1.78939E+03 -2.02136E+02 -1.90842E+03  1.10668E+03 -2.54461E+03  1.13827E+03 -3.72820E+03 -4.63999E+02
 -4.22533E+03 -3.40174E+03 -1.51023E+03 -4.73054E+03  2.72741E+03 -6.36846E+03  5.19018E+03 -2.69545E+03
  6.07842E+03  5.07910E+02  2.91840E+03  3.80705E+03 -9.05712E+02  5.40044E+03 -4.75076E+03  3.66797E+03
