 $NMID ID='MM_0lb_SNR400_8hz_g60_69.RAW', FMTDAT='(8E13.5)'
 TRAMP=1., VOLUME=1. $END
  3.09348E+05  3.93815E+01  3.37490E+05  2.50843E+05  8.56718E+04  3.38860E+05 -1.33178E+05  2.51361E+05
 -1.91542E+05  8.37629E+04 -1.12383E+05 -3.31268E+04  1.41865E+02 -5.01794E+04  5.34931E+04 -6.55303E+02
  3.57221E+04  5.35517E+04 -1.69047E+04  7.64417E+04 -6.08063E+04  6.50180E+04 -8.58925E+04  3.29692E+04
 -8.28090E+04 -1.19374E+04 -5.86960E+04 -5.23112E+04 -1.56147E+04 -7.11791E+04  2.88068E+04 -4.67287E+04
  4.20654E+04  3.43881E+03  1.74267E+04  4.76919E+04 -3.48009E+04  4.85364E+04 -6.82494E+04  2.79044E+02
 -5.45288E+04 -5.86828E+04 -8.52211E+03 -8.04438E+04  3.48720E+04 -5.80628E+04  5.08480E+04 -1.90786E+04
  4.60978E+04  1.05036E+04  3.35615E+04  2.68945E+04  1.58339E+04  3.07706E+04 -5.17377E+03  2.83820E+04
 -2.24877E+04  1.19266E+04 -1.77061E+04 -6.18949E+03  6.95363E+03 -7.14622E+03  2.49473E+04  1.46922E+04
  6.60599E+03  3.83864E+04 -3.50775E+04  3.73578E+04 -6.64539E+04  2.16872E+03 -5.96121E+04 -4.47402E+04
 -1.24490E+04 -6.73807E+04  4.25325E+04 -4.86563E+04  6.27844E+04 -3.06439E+03  3.72492E+04  3.51979E+04
 -4.99942E+03  4.02428E+04 -3.29721E+04  2.05014E+04 -3.47957E+04 -2.87870E+03 -2.04459E+04 -1.20727E+04
 -9.81987E+03 -1.67064E+04 -1.11529E+02 -2.09724E+04  8.54343E+03 -2.41607E+04  1.62580E+04 -1.20253E+04
  1.06132E+04  7.29189E+03 -1.19281E+04  1.29510E+04 -2.41138E+04 -7.15348E+03 -8.47576E+03 -3.91055E+04
  2.63177E+04 -4.83524E+04  5.36448E+04 -2.09225E+04  4.96186E+04  2.13654E+04  1.70162E+04  4.81937E+04
 -1.64559E+04  3.70063E+04 -2.89603E+04  2.86167E+03 -1.23069E+04 -2.93009E+04  2.29817E+04 -3.75743E+04
  4.61021E+04 -1.15793E+04  4.24772E+04  2.53017E+04  2.24868E+04  5.33868E+04 -8.04001E+03  5.88366E+04
 -3.72451E+04  4.03179E+04 -4.91280E+04  1.17080E+04 -4.95230E+04 -1.97789E+04 -2.78373E+04 -4.39556E+04
  7.50313E+03 -4.34490E+04  3.55335E+04 -1.75308E+04  3.27730E+04  1.07786E+04  6.16734E+03  2.20654E+04
 -1.41361E+04  1.04702E+04 -1.18006E+04 -7.35385E+03  5.10338E+03 -1.18300E+04  1.91209E+04  5.34567E+03
  1.49227E+04  2.29330E+04 -5.32801E+03  2.82220E+04 -2.50381E+04  1.51501E+04 -3.29319E+04 -1.90772E+03
 -2.77984E+04 -1.94736E+04 -1.36902E+04 -2.74455E+04  4.90125E+03 -2.78907E+04  2.13679E+04 -2.46064E+04
  3.47529E+04 -1.44496E+04  4.12277E+04  5.33630E+03  2.81607E+04  2.69862E+04  5.43027E+03  4.32438E+04
 -2.09446E+04  3.58923E+04 -3.12368E+04  1.26225E+04 -2.38908E+04 -9.73032E+03 -4.84851E+03 -1.18682E+04
 -2.64563E+01 -7.88482E+02 -9.50079E+03  9.78602E+03 -2.21797E+04  4.99024E+03 -2.16792E+04 -1.02127E+04
 -1.26115E+04 -2.53899E+04  6.82931E+03 -2.98994E+04  2.11010E+04 -2.06032E+04  2.55884E+04 -2.92177E+03
  1.58210E+04  1.73832E+04 -1.85422E+03  2.57329E+04 -1.82082E+04  1.49783E+04 -2.58946E+04 -5.62054E+03
 -1.86459E+04 -2.21781E+04 -2.88895E+03 -3.00656E+04  1.35918E+04 -2.50594E+04  2.53779E+04 -1.33453E+04
  2.39084E+04 -5.98730E+02  1.73698E+04  5.02765E+03  1.01126E+04  2.03426E+03  1.31554E+04 -2.65548E+03
  2.37028E+04  2.55327E+03  2.72408E+04  2.05470E+04  1.91315E+04  4.05231E+04 -1.69529E+03  4.91474E+04
 -2.70386E+04  4.12985E+04 -4.52755E+04  2.10440E+04 -4.97437E+04 -3.74107E+03 -3.93202E+04 -2.91040E+04
 -1.61721E+04 -4.12763E+04  1.53017E+04 -3.55571E+04  3.00586E+04 -1.62430E+04  2.57121E+04  9.18513E+03
  8.59883E+03  2.06730E+04 -1.25712E+04  1.68241E+04 -2.19017E+04  2.79389E+03 -1.66023E+04 -1.40682E+04
 -2.48072E+02 -2.04985E+04  1.10878E+04 -1.52252E+04  1.42938E+04 -5.93184E+02  3.78964E+03  9.47742E+03
 -1.01049E+04  4.72751E+03 -1.07945E+04 -7.01125E+03 -1.77038E+03 -2.01822E+04  1.25672E+04 -2.28198E+04
  2.65868E+04 -1.26756E+04  2.92501E+04  2.68665E+03  2.63853E+04  2.10431E+04  1.20184E+04  3.22566E+04
 -7.32760E+03  3.51331E+04 -2.29187E+04  2.29997E+04 -2.50487E+04  3.26853E+03 -1.62772E+04 -6.39218E+03
 -7.76902E+03 -8.46606E+03 -6.91674E+02 -6.27035E+00 -2.52461E+03  3.56489E+03 -9.07592E+03  5.25633E+03
 -1.56552E+04 -7.92641E+02 -1.63678E+04 -1.29143E+04 -6.47762E+03 -2.13545E+04  7.19030E+03 -1.70654E+04
  1.44570E+04 -7.41373E+03  1.02117E+04  4.77860E+03 -8.40952E+02  7.54693E+03 -9.41067E+03  3.02829E+02
 -8.48504E+03 -1.15519E+04 -2.11843E+03 -1.74578E+04  1.11050E+04 -1.88556E+04  2.28049E+04 -1.05503E+04
  2.63603E+04  3.59692E+03  1.91119E+04  1.48867E+04  4.11043E+03  2.11686E+04 -1.02734E+04  1.75293E+04
 -1.42172E+04  4.30083E+03 -6.98864E+03 -3.91988E+03  1.74137E+03 -5.35964E+03  9.03012E+03 -1.19802E+03
  7.95017E+03  7.91120E+03  2.75401E+03  1.41804E+04 -9.38638E+03  1.34621E+04 -1.74420E+04  3.40937E+03
 -1.32285E+04 -9.17779E+03  8.16968E+02 -1.49915E+04  1.00471E+04 -7.36349E+03  1.12245E+04  3.57370E+03
  2.60426E+03  1.16468E+04 -9.90942E+03  1.34278E+04 -1.53936E+04  5.96658E+03 -1.69409E+04 -6.36114E+03
 -9.39764E+03 -1.86782E+04  4.17739E+03 -2.14936E+04  1.79508E+04 -1.23787E+04  1.97680E+04  2.99329E+03
  1.15453E+04  1.59874E+04 -2.01006E+03  1.77782E+04 -1.38706E+04  9.91539E+03 -1.49494E+04 -1.05270E+03
 -1.26603E+04 -1.15734E+04 -2.47691E+03 -1.46641E+04  6.87353E+03 -1.10198E+04  9.40466E+03 -4.01506E+03
  5.95663E+03  2.57635E+03 -1.26586E+03  2.16394E+03 -1.79822E+03 -4.29640E+03  2.91554E+03 -9.12100E+03
  1.38689E+04 -5.29705E+03  1.92582E+04  2.41666E+03  2.00161E+04  1.31824E+04  1.23566E+04  2.47514E+04
 -5.86034E+03  2.81315E+04 -2.31493E+04  2.15993E+04 -3.00834E+04  4.81527E+03 -2.48614E+04 -9.82402E+03
 -1.19156E+04 -2.03506E+04  8.49531E+01 -1.76283E+04  5.63527E+03 -1.00701E+04  6.34793E+03 -5.82248E+03
  4.71568E+03 -3.34891E+03  4.78821E+03 -4.66422E+03  5.71931E+03 -4.49309E+03  9.12017E+03 -2.34047E+03
  1.28014E+04  2.17349E+03  7.18591E+03  1.12598E+04 -2.41150E+03  1.33938E+04 -1.32360E+04  1.08889E+04
 -1.74542E+04 -8.92530E+02 -1.13387E+04 -1.25152E+04 -1.73064E+03 -1.89992E+04  1.08757E+04 -1.84770E+04
  1.91383E+04 -1.01747E+04  2.35528E+04  3.40200E+03  1.61578E+04  1.73959E+04  1.78402E+03  1.97845E+04
 -9.72653E+03  1.76070E+04 -1.29514E+04  6.01414E+03 -8.29139E+03 -1.17881E+03 -3.73125E+03 -2.67309E+03
 -2.15458E+03  1.15031E+02 -2.62980E+03  3.62277E+03 -7.02257E+03  2.25348E+03 -1.18941E+04 -1.70743E+03
 -9.11430E+03 -1.20626E+04 -7.65026E+02 -1.75469E+04  1.16252E+04 -1.61400E+04  1.88173E+04 -5.17288E+03
  1.74751E+04  7.61504E+03  7.72347E+03  1.56820E+04 -3.55208E+03  1.86561E+04 -1.24796E+04  1.16547E+04
 -1.63535E+04  1.60598E+02 -1.32618E+04 -1.23412E+04 -9.75903E+02 -1.43056E+04  7.66283E+03 -1.19612E+04
  1.18536E+04 -3.23403E+03  7.19631E+03  2.13307E+03  2.43882E+03  4.88751E+03  1.52744E+03  2.68888E+03
  2.19323E+03  8.62711E+02  4.04908E+03  1.93753E+03  5.40097E+03  5.59263E+03  4.44305E+03  1.01371E+04
 -3.05359E+03  1.42885E+04 -1.32544E+04  1.40193E+04 -1.80726E+04  3.72730E+03 -1.91406E+04 -7.23841E+03
 -8.92032E+03 -1.84198E+04  2.80077E+03 -1.99049E+04  1.16453E+04 -1.28665E+04  1.49230E+04 -4.17524E+03
  1.13691E+04  7.06064E+03  3.33778E+03  1.08180E+04 -4.88678E+03  6.95376E+03 -6.84657E+03 -1.05663E+03
 -3.53272E+03 -7.93196E+03  4.29268E+03 -9.11793E+03  7.94166E+03 -3.45674E+03  7.18411E+03  1.11921E+03
  4.93726E+03  4.14267E+03  8.70708E+02  3.33316E+03 -6.65644E+02  1.71853E+03  1.64973E+03 -1.40122E+03
  2.74174E+03 -1.55054E+03  7.07635E+03  2.87250E+03  4.50782E+03  9.20116E+03 -1.29954E+03  1.23871E+04
 -8.58413E+03  8.68144E+03 -1.22735E+04  2.81231E+03 -1.11677E+04 -5.10063E+03 -4.71638E+03 -8.32589E+03
  8.77019E+02 -7.78771E+03  5.21994E+03 -4.01321E+03  3.91649E+03  3.35375E+03 -1.72700E+03  6.39749E+03
 -7.94170E+03  3.69974E+03 -9.36586E+03 -5.12813E+03 -4.56314E+03 -1.02977E+04  1.24620E+03 -1.06658E+04
  7.15674E+03 -6.15573E+03  8.39955E+03 -8.74086E+02  7.04964E+03  3.18768E+03  6.36666E+02  4.98264E+03
 -3.28397E+03  1.88725E+03 -4.83826E+03 -3.65377E+03  1.52010E+03 -8.41952E+03  1.02710E+04 -6.74400E+03
  1.23026E+04  1.41813E+03  1.18742E+04  8.61944E+03  3.73489E+03  1.25846E+04 -4.07313E+03  1.17953E+04
 -1.04996E+04  4.41462E+03 -1.05462E+04 -1.48538E+03 -5.78874E+03 -7.99083E+03  2.77861E+03 -7.80391E+03
  7.32936E+03 -3.59222E+03  7.59351E+03  3.83891E+03  2.78536E+03  7.25188E+03 -1.08028E+03  5.55110E+03
 -2.82447E+03  3.86309E+03 -2.66877E+03  1.41306E+03 -1.01139E+03  1.96422E+03 -2.40949E+03  2.74906E+03
 -2.93224E+03  4.94415E+03 -8.26471E+03  4.57430E+03 -1.23230E+04 -1.40830E+02 -1.43147E+04 -8.50696E+03
 -7.22628E+03 -1.76550E+04  3.41512E+03 -1.88721E+04  1.25758E+04 -1.54732E+04  1.84977E+04 -5.53399E+03
  1.74109E+04  3.90582E+03  1.02711E+04  1.17731E+04  1.17060E+03  1.36939E+04 -4.86362E+03  9.84211E+03
 -6.97609E+03  3.15608E+03 -5.19558E+03 -1.48995E+03 -2.03683E+03 -1.32268E+03 -1.16733E+03 -1.37158E+02
 -2.51051E+03  1.05530E+03 -2.92239E+03  1.11243E+02 -1.84055E+03 -3.39852E+03  1.35298E+03 -5.34756E+03
  5.82193E+03 -4.51229E+03  9.73525E+03  7.11377E+01  9.53324E+03  6.83894E+03  2.86825E+03  1.39762E+04
 -6.13767E+03  1.56533E+04 -1.40068E+04  9.15531E+03 -1.69371E+04 -1.09330E+03 -1.29381E+04 -9.81935E+03
 -5.52432E+03 -1.42407E+04  3.60441E+03 -1.27194E+04  9.07611E+03 -6.48989E+03  8.95982E+03  6.59837E+02
  5.52231E+03  4.09702E+03 -1.27960E+03  3.38425E+03 -1.73184E+03  1.02322E+03  1.09089E+03 -3.70025E+03
  4.03937E+03 -1.32347E+03  5.51583E+03  1.98327E+03  3.41902E+03  5.54644E+03 -7.19499E+02  6.37554E+03
 -6.25442E+03  6.48109E+03 -9.24047E+03  8.74449E+02 -8.87798E+03 -6.45070E+03 -1.06328E+03 -1.10524E+04
  5.73514E+03 -1.07453E+04  1.09871E+04 -3.44326E+03  1.07907E+04  3.39586E+03  6.16442E+03  8.65492E+03
  8.81323E+02  9.87651E+03 -3.38166E+03  7.25465E+03 -6.75286E+03  3.60067E+03 -5.28238E+03  6.98528E+02
 -3.29556E+03 -5.20888E+02 -2.89890E+03  5.81745E+02 -3.60971E+03  1.70037E+03 -7.47004E+03 -9.81277E+02
 -6.49749E+03 -5.05996E+03 -2.27750E+03 -9.13822E+03  4.35497E+03 -9.61235E+03  8.31186E+03 -5.52195E+03
  8.25971E+03  1.24282E+03  4.27677E+03  6.73610E+03 -6.22440E+02  9.38407E+03 -6.97512E+03  6.25508E+03
