 $NMID ID='MM_0lb_SNR400_12hz_g55_7.RAW', FMTDAT='(8E13.5)'
 TRAMP=1., VOLUME=1. $END
  3.10468E+05 -2.59111E+01  3.37577E+05  2.50846E+05  8.54836E+04  3.38943E+05 -1.33103E+05  2.51814E+05
 -1.90839E+05  8.34721E+04 -1.12422E+05 -3.24506E+04  5.46230E+02 -5.06057E+04  5.39392E+04  1.51923E+01
  3.53683E+04  5.32374E+04 -1.64803E+04  7.64640E+04 -6.11156E+04  6.40622E+04 -8.41751E+04  3.19908E+04
 -8.14986E+04 -1.14496E+04 -5.77848E+04 -5.21361E+04 -1.51914E+04 -7.01193E+04  2.75369E+04 -4.60742E+04
  4.07226E+04  3.70780E+03  1.63945E+04  4.80812E+04 -3.43294E+04  4.74630E+04 -6.71922E+04  2.68434E+02
 -5.41181E+04 -5.71490E+04 -7.24239E+03 -7.83261E+04  3.43569E+04 -5.61410E+04  4.83553E+04 -1.77640E+04
  4.48450E+04  1.09638E+04  3.23998E+04  2.62469E+04  1.57534E+04  2.98441E+04 -5.30686E+03  2.73612E+04
 -2.15407E+04  1.22646E+04 -1.78618E+04 -5.10769E+03  6.62766E+03 -7.40690E+03  2.23934E+04  1.31705E+04
  7.52088E+03  3.67349E+04 -3.44474E+04  3.68959E+04 -6.47996E+04  2.65224E+03 -5.77294E+04 -4.33684E+04
 -1.18409E+04 -6.52867E+04  4.02097E+04 -4.64662E+04  5.99790E+04 -1.91200E+03  3.57391E+04  3.43859E+04
 -5.12876E+03  3.73826E+04 -3.11083E+04  1.70187E+04 -3.17362E+04 -3.70039E+03 -1.80486E+04 -1.14256E+04
 -9.28776E+03 -1.43239E+04 -6.21312E+02 -1.91117E+04  8.50042E+03 -2.38356E+04  1.54336E+04 -1.34523E+04
  1.12465E+04  4.85355E+03 -9.75202E+03  1.30001E+04 -2.22929E+04 -5.88768E+03 -8.16986E+03 -3.57618E+04
  2.37730E+04 -4.53624E+04  5.03607E+04 -2.09890E+04  4.66732E+04  2.07517E+04  1.68556E+04  4.56334E+04
 -1.70275E+04  3.49537E+04 -2.72816E+04  1.75279E+03 -1.16044E+04 -2.92040E+04  2.18457E+04 -3.53689E+04
  4.33236E+04 -1.05979E+04  3.77916E+04  2.48339E+04  1.93079E+04  4.84770E+04 -8.05175E+03  5.39863E+04
 -3.30453E+04  3.65349E+04 -4.53387E+04  1.02403E+04 -4.51756E+04 -1.80210E+04 -2.40681E+04 -4.00688E+04
  8.37266E+03 -4.00194E+04  3.38586E+04 -1.68954E+04  3.09619E+04  1.08926E+04  4.33848E+03  2.00867E+04
 -1.42008E+04  8.58813E+03 -1.08090E+04 -7.64874E+03  5.70561E+03 -1.06545E+04  1.86633E+04  5.60802E+03
  1.46572E+04  2.25247E+04 -4.97622E+03  2.61792E+04 -2.27566E+04  1.31690E+04 -2.97396E+04 -3.74179E+03
 -2.30991E+04 -1.79544E+04 -9.41519E+03 -2.32009E+04  4.50439E+03 -2.29270E+04  1.81688E+04 -2.03128E+04
  2.90853E+04 -1.36572E+04  3.48027E+04  4.66174E+03  2.52743E+04  2.22127E+04  4.04323E+03  3.86807E+04
 -1.87802E+04  3.22820E+04 -2.96045E+04  1.06258E+04 -2.17777E+04 -1.04355E+04 -4.63715E+03 -1.33277E+04
  9.63387E+02 -1.83028E+03 -5.96674E+03  7.54924E+03 -1.82960E+04  5.17487E+03 -1.83858E+04 -8.03317E+03
 -1.07148E+04 -2.07726E+04  5.49526E+03 -2.49901E+04  1.69571E+04 -1.88073E+04  2.00331E+04 -1.83696E+03
  1.25490E+04  1.41734E+04 -1.52715E+03  2.11643E+04 -1.45422E+04  1.20191E+04 -2.09865E+04 -5.37731E+03
 -1.55046E+04 -1.83330E+04 -1.49690E+03 -2.60490E+04  1.13857E+04 -2.09369E+04  2.11459E+04 -1.11499E+04
  2.05132E+04  2.41883E+02  1.47034E+04  4.48276E+03  7.63208E+03  1.85990E+03  1.06219E+04 -1.97406E+03
  1.95889E+04  2.85722E+03  2.24588E+04  1.70022E+04  1.52345E+04  3.40868E+04 -2.63607E+03  3.85145E+04
 -2.24236E+04  3.23522E+04 -3.64694E+04  1.58324E+04 -3.90094E+04 -2.48225E+03 -3.22893E+04 -2.28239E+04
 -1.29210E+04 -3.19486E+04  1.12064E+04 -2.89168E+04  2.49497E+04 -1.40227E+04  2.22246E+04  7.00140E+03
  8.58179E+03  1.64447E+04 -1.04399E+04  1.43376E+04 -1.82718E+04  2.46238E+03 -1.33969E+04 -1.10855E+04
 -4.35709E+02 -1.67639E+04  8.94599E+03 -1.27660E+04  1.14862E+04 -6.61355E+02  3.59990E+03  7.89261E+03
 -7.88088E+03  3.15437E+03 -7.22159E+03 -6.58266E+03 -1.13194E+03 -1.62264E+04  1.07103E+04 -1.70740E+04
  1.99681E+04 -9.60545E+03  2.25055E+04  3.49148E+03  1.88314E+04  1.57179E+04  8.76770E+03  2.42079E+04
 -3.99478E+03  2.67688E+04 -1.67884E+04  1.58490E+04 -1.94502E+04  4.05414E+03 -1.36260E+04 -4.66910E+03
 -5.66156E+03 -7.69349E+03 -1.13153E+03  5.70516E+02 -2.64534E+03  2.55670E+03 -5.68324E+03  5.09588E+03
 -1.23518E+04 -7.64070E+02 -1.24842E+04 -1.06314E+04 -5.25794E+03 -1.69347E+04  6.05547E+03 -1.29365E+04
  1.17236E+04 -5.59497E+03  7.98864E+03  3.60837E+03  3.33553E+01  4.93112E+03 -6.38332E+03  4.44259E+02
 -6.16529E+03 -9.03552E+03 -7.20818E+02 -1.24614E+04  7.61029E+03 -1.39328E+04  1.67271E+04 -7.36129E+03
  2.02081E+04  2.56452E+03  1.40870E+04  1.23098E+04  2.87399E+03  1.61953E+04 -7.88416E+03  1.28485E+04
 -9.86018E+03  3.45294E+03 -5.26956E+03 -3.56020E+03  1.79451E+03 -3.14322E+03  6.97176E+03 -6.68371E+02
  6.65101E+03  6.13203E+03  1.34142E+03  9.86959E+03 -7.66419E+03  9.69138E+03 -1.33372E+04  2.97519E+03
 -8.99230E+03 -7.18267E+03  2.68114E+02 -1.12432E+04  7.01278E+03 -5.22280E+03  7.20594E+03  2.55955E+03
  1.55530E+03  8.18958E+03 -7.06740E+03  9.31201E+03 -1.02357E+04  4.31374E+03 -1.12301E+04 -4.20946E+03
 -6.69479E+03 -1.26607E+04  3.40023E+03 -1.41402E+04  1.14028E+04 -8.83350E+03  1.39062E+04  2.28808E+03
  8.21261E+03  1.06256E+04 -9.59069E+02  1.35962E+04 -9.83126E+03  7.26025E+03 -1.03080E+04 -6.89261E+02
 -8.57814E+03 -8.90363E+03 -2.29520E+03 -9.87894E+03  4.75501E+03 -8.25927E+03  5.07290E+03 -3.62224E+03
  3.81432E+03  1.83143E+03 -5.96764E+02  1.71844E+03 -1.09233E+03 -1.68138E+03  1.33458E+03 -5.57690E+03
  9.06169E+03 -3.42189E+03  1.32250E+04  1.05072E+03  1.18191E+04  8.12790E+03  8.58123E+03  1.62340E+04
 -4.17103E+03  1.79816E+04 -1.52242E+04  1.35273E+04 -2.03923E+04  2.53427E+03 -1.63088E+04 -7.03843E+03
 -8.40819E+03 -1.30059E+04 -9.78250E+02 -1.12602E+04  4.60951E+03 -6.17664E+03  4.34152E+03 -4.22458E+03
  2.96248E+03 -2.97667E+03  3.73470E+03 -2.84809E+03  4.96147E+03 -3.12042E+03  6.59689E+03 -9.75547E+02
  7.89138E+03  2.00191E+03  4.19995E+03  6.73076E+03 -2.00356E+03  8.29847E+03 -9.21041E+03  6.48225E+03
 -1.09052E+04 -1.35597E+03 -6.59993E+03 -8.28070E+03 -6.40376E+02 -1.17432E+04  6.45595E+03 -1.19851E+04
  1.25192E+04 -6.83872E+03  1.50895E+04  1.78748E+03  1.03417E+04  9.78046E+03  1.87375E+03  1.33944E+04
 -5.27554E+03  1.14883E+04 -8.10285E+03  3.80390E+03 -4.99189E+03 -1.89794E+03 -1.63014E+03 -1.99226E+03
 -9.12980E+02 -2.93496E+02 -1.62858E+03  2.16058E+03 -5.06538E+03  2.27983E+03 -8.58404E+03 -1.16187E+03
 -5.00569E+03 -7.69149E+03 -1.53919E+02 -1.05773E+04  6.62548E+03 -1.08080E+04  1.03012E+04 -3.07121E+03
  1.00823E+04  5.00021E+03  4.89302E+03  9.17815E+03 -2.01987E+03  1.16842E+04 -7.93956E+03  6.19303E+03
 -9.58443E+03  4.76786E+01 -7.96262E+03 -6.30540E+03 -6.19232E+02 -8.80082E+03  4.84450E+03 -6.60584E+03
  6.43802E+03 -2.15588E+03  4.89031E+03  2.37864E+03  1.36142E+03  3.62458E+03  1.36467E+03  1.91510E+03
  1.78982E+03  1.47691E+02  2.85616E+03  1.33314E+03  3.12650E+03  3.60421E+03  2.73424E+03  6.38003E+03
 -2.15342E+03  8.87335E+03 -7.04983E+03  8.79042E+03 -1.01598E+04  1.74554E+03 -1.07256E+04 -4.43355E+03
 -4.80655E+03 -1.11320E+04  1.05155E+03 -1.18789E+04  6.59569E+03 -6.40764E+03  8.73518E+03 -2.26435E+03
  6.76866E+03  3.71771E+03  1.11067E+03  6.39260E+03 -1.92841E+03  4.18677E+03 -4.00600E+03 -1.03995E+03
 -2.13900E+03 -4.41374E+03  2.46225E+03 -4.60157E+03  3.70579E+03 -2.20496E+03  4.50089E+03  1.09599E+03
  2.83863E+03  2.12212E+03  1.65198E+03  1.65053E+03 -5.31041E+02  1.51680E+03  2.11522E+03 -3.22689E+02
  1.72800E+03 -9.23546E+02  3.32047E+03  1.88994E+03  1.63688E+03  5.75992E+03 -6.23657E+02  7.32081E+03
 -4.56016E+03  5.01207E+03 -6.65150E+03  6.35206E+02 -6.20811E+03 -2.65295E+03 -2.04706E+03 -4.03789E+03
  8.61669E+02 -3.80366E+03  3.09281E+03 -1.30192E+03  2.71738E+03  2.49167E+03 -7.49059E+02  3.37516E+03
 -4.11064E+03  2.15119E+03 -4.39548E+03 -2.52079E+03 -2.94753E+03 -5.79581E+03  1.25895E+03 -5.12603E+03
  2.88308E+03 -2.48859E+03  4.55977E+03  1.46416E+02  3.41495E+03  1.26800E+03  1.20520E+02  3.52771E+03
 -1.63349E+03  9.65095E+02 -2.71919E+03 -1.83857E+03  1.02994E+03 -4.27006E+03  5.02070E+03 -3.23798E+03
  6.10034E+03  5.19204E+02  6.77467E+03  3.97818E+03  2.08903E+03  6.26916E+03 -1.78250E+03  6.74204E+03
 -5.26590E+03  2.34123E+03 -5.64765E+03 -9.66168E+02 -2.61329E+03 -4.45558E+03  9.45163E+02 -3.73722E+03
  4.00152E+03 -1.51830E+03  3.23636E+03  2.55567E+03  1.25310E+03  3.63894E+03 -1.43516E+02  3.24297E+03
 -1.90533E+03  2.75004E+03 -1.13247E+03  5.05635E+02 -5.14846E+02  7.09975E+02 -1.95945E+03  1.37296E+03
 -1.50545E+03  2.20833E+03 -4.63903E+03  1.93150E+03 -5.73988E+03  7.80858E+02 -6.83795E+03 -4.33196E+03
 -3.43588E+03 -8.43928E+03  2.14254E+03 -9.40041E+03  5.31591E+03 -7.25418E+03  9.56362E+03 -2.92452E+03
  8.82803E+03  7.57313E+02  5.00105E+03  5.62222E+03 -1.98863E+02  6.33048E+03 -1.66858E+03  4.84333E+03
 -4.10707E+03  1.47929E+03 -2.00922E+03 -1.05547E+03 -1.16888E+03 -4.57850E+02 -3.24330E+01 -1.67946E+02
 -1.47179E+03  1.49865E+02 -8.56858E+02  9.98980E+01 -8.71195E+01 -1.74942E+03 -3.03896E+02 -2.68954E+03
  2.49226E+03 -1.98132E+03  3.94162E+03  4.52709E+02  4.42907E+03  2.79587E+03  8.96820E+02  5.69938E+03
 -3.79753E+03  7.03761E+03 -6.47081E+03  4.55526E+03 -7.66047E+03 -3.52015E+02 -5.74223E+03 -4.92112E+03
 -1.75838E+03 -6.25951E+03  1.50399E+03 -5.70063E+03  4.09399E+03 -3.24821E+03  3.97766E+03  1.96965E+02
  2.66916E+03  2.01567E+03 -4.32867E+02  1.94183E+03 -1.73152E+03  4.85865E+01 -1.76934E+02 -1.55225E+03
  2.14718E+03 -8.13709E+02  2.32107E+03  8.05457E+02  1.39169E+03  2.08011E+03  1.29458E+02  2.48583E+03
 -2.75656E+03  1.91918E+03 -3.43758E+03  8.05868E+02 -3.89473E+03 -2.16621E+03 -4.96760E+02 -4.10659E+03
  1.96744E+03 -3.49763E+03  4.08462E+03 -1.43127E+03  3.63893E+03  5.37690E+02  2.59187E+03  3.46966E+03
  9.76602E+02  3.26744E+03 -1.14996E+03  2.66914E+03 -2.06895E+03  2.50023E+03 -1.51876E+03  4.07462E+02
 -6.12283E+02 -1.81705E+02 -1.64831E+03  5.75607E+02 -1.71146E+03  2.62920E+02 -2.00702E+03 -6.79910E+02
 -2.31045E+03 -2.32464E+03 -1.14749E+03 -3.79162E+03  1.64573E+03 -4.19503E+03  3.54116E+03 -1.75737E+03
  4.17787E+03  3.68783E+02  1.17094E+03  2.74913E+03 -3.22440E+01  3.50178E+03 -3.24945E+03  2.71137E+03
