 $NMID ID='MM_0lb_SNR400_17hz_g40_5.RAW', FMTDAT='(8E13.5)'
 TRAMP=1., VOLUME=1. $END
  3.10162E+05  1.99324E+02  3.37665E+05  2.50199E+05  8.43265E+04  3.37468E+05 -1.32639E+05  2.50526E+05
 -1.89374E+05  8.30233E+04 -1.11037E+05 -3.31017E+04  1.49136E+03 -5.03439E+04  5.37199E+04  8.19236E+01
  3.52495E+04  5.30543E+04 -1.71939E+04  7.53490E+04 -6.06734E+04  6.29844E+04 -8.29516E+04  3.17556E+04
 -7.98864E+04 -1.09925E+04 -5.61285E+04 -5.03972E+04 -1.42633E+04 -6.81756E+04  2.66914E+04 -4.55510E+04
  3.92989E+04  4.08936E+03  1.54297E+04  4.73074E+04 -3.32972E+04  4.60075E+04 -6.56744E+04 -7.31842E+02
 -5.24343E+04 -5.61313E+04 -5.69573E+03 -7.49077E+04  3.33043E+04 -5.32778E+04  4.62648E+04 -1.64462E+04
  4.11843E+04  1.09130E+04  3.06643E+04  2.44250E+04  1.57707E+04  2.82625E+04 -5.05185E+03  2.75191E+04
 -2.15131E+04  1.25904E+04 -1.93816E+04 -4.09084E+03  4.37030E+03 -7.36481E+03  2.17956E+04  1.08162E+04
  7.49660E+03  3.38049E+04 -3.08418E+04  3.40984E+04 -6.09276E+04  1.76582E+03 -5.49858E+04 -4.18011E+04
 -1.20607E+04 -6.10009E+04  3.84865E+04 -4.33091E+04  5.54038E+04 -1.95239E+03  3.21610E+04  3.05357E+04
 -6.40749E+03  3.30629E+04 -2.80243E+04  1.33808E+04 -2.79210E+04 -5.22451E+03 -1.47122E+04 -1.01901E+04
 -7.27324E+03 -1.09474E+04 -7.58243E+02 -1.66366E+04  6.61989E+03 -2.28761E+04  1.51720E+04 -1.41614E+04
  1.26133E+04  4.54593E+03 -6.66713E+03  1.27417E+04 -1.90002E+04 -2.89667E+03 -8.23524E+03 -3.08311E+04
  2.10806E+04 -4.12121E+04  4.54637E+04 -1.83508E+04  4.19199E+04  1.90074E+04  1.45258E+04  4.20207E+04
 -1.52447E+04  3.12871E+04 -2.35839E+04  7.17284E+02 -8.45932E+03 -2.64051E+04  2.06315E+04 -3.15851E+04
  3.93201E+04 -7.62881E+03  3.22704E+04  2.29033E+04  1.57159E+04  4.27949E+04 -7.48680E+03  4.58130E+04
 -2.92273E+04  2.99090E+04 -3.80907E+04  8.76511E+03 -3.85725E+04 -1.52674E+04 -2.13003E+04 -3.40799E+04
  6.93066E+03 -3.46800E+04  2.93633E+04 -1.32385E+04  2.72209E+04  1.07777E+04  2.93710E+03  1.85341E+04
 -1.32471E+04  7.17875E+03 -9.96884E+03 -7.28091E+03  5.76131E+03 -1.06798E+04  1.69451E+04  6.17875E+03
  1.27800E+04  2.17588E+04 -6.07807E+03  2.35923E+04 -2.16660E+04  9.89253E+03 -2.54615E+04 -6.22036E+03
 -1.74122E+04 -1.66553E+04 -6.23040E+03 -1.74436E+04  4.13342E+03 -1.52341E+04  1.29837E+04 -1.53095E+04
  2.12104E+04 -1.16117E+04  2.80634E+04  1.30449E+03  2.11759E+04  1.71364E+04  4.11110E+03  3.27513E+04
 -1.57687E+04  2.74759E+04 -2.56359E+04  9.00844E+03 -1.99796E+04 -1.09139E+04 -3.68469E+03 -1.41429E+04
  2.40913E+03 -4.04856E+03 -3.09401E+03  6.00293E+03 -1.35049E+04  5.47216E+03 -1.33232E+04 -5.43327E+03
 -8.69725E+03 -1.62280E+04  4.78980E+03 -2.00462E+04  1.32045E+04 -1.44025E+04  1.55880E+04 -1.18731E+03
  9.29162E+03  1.11361E+04 -1.26546E+03  1.57706E+04 -1.02495E+04  8.47228E+03 -1.57288E+04 -3.62617E+03
 -1.16255E+04 -1.47411E+04 -1.75702E+03 -2.00176E+04  9.02462E+03 -1.55882E+04  1.67735E+04 -8.03644E+03
  1.50590E+04  7.32656E+02  1.07025E+04  3.99427E+03  5.82643E+03  5.03443E+02  7.94650E+03 -1.32559E+03
  1.44136E+04  2.78863E+03  1.50839E+04  1.24858E+04  9.89140E+03  2.56082E+04 -3.35173E+03  2.76584E+04
 -1.63599E+04  2.11309E+04 -2.54146E+04  1.00935E+04 -2.66678E+04 -1.76930E+03 -2.23440E+04 -1.54066E+04
 -1.02025E+04 -2.20081E+04  7.40187E+03 -2.01644E+04  1.71052E+04 -1.14110E+04  1.55575E+04  3.63166E+03
  6.64471E+03  1.16156E+04 -7.28755E+03  1.05869E+04 -1.34794E+04  2.26552E+03 -1.06427E+04 -7.55876E+03
  4.92143E+02 -1.28738E+04  6.18449E+03 -9.79183E+03  7.82158E+03 -2.07000E+03  2.09196E+03  5.46446E+03
 -5.98614E+03  8.77378E+02 -4.25070E+03 -4.53850E+03  1.92871E+02 -1.05877E+04  8.45422E+03 -1.03205E+04
  1.29446E+04 -5.26096E+03  1.32830E+04  2.51999E+03  1.09625E+04  1.01427E+04  5.07125E+03  1.47994E+04
 -1.59227E+03  1.72089E+04 -9.67313E+03  1.12553E+04 -1.22277E+04  2.93402E+03 -9.35879E+03 -2.25981E+03
 -4.96004E+03 -3.44021E+03 -1.04919E+03  8.39737E+02 -1.76957E+03  2.13723E+03 -3.84610E+03  3.54386E+03
 -8.09176E+03 -3.29459E+02 -8.77687E+03 -7.06437E+03 -4.06843E+03 -1.15318E+04  3.99805E+03 -9.19652E+03
  7.36622E+03 -3.79613E+03  5.80131E+03  2.13039E+03  6.36813E+02  3.13227E+03 -3.50166E+03 -2.15894E+02
 -3.84832E+03 -5.15035E+03 -9.30209E+02 -7.65000E+03  4.24211E+03 -8.37026E+03  1.05618E+04 -4.73317E+03
  1.25487E+04  6.46872E+02  8.93349E+03  6.72478E+03  1.83862E+03  9.74522E+03 -5.68282E+03  8.70590E+03
 -7.20097E+03  2.72134E+03 -3.93120E+03 -2.24963E+03  1.62731E+03 -1.99058E+03  4.92025E+03 -8.15777E+02
  4.37149E+03  3.80171E+03  1.12042E+03  6.67504E+03 -4.81562E+03  7.12943E+03 -8.74521E+03  2.15399E+03
 -5.13689E+03 -4.28639E+03  3.20527E+02 -6.98111E+03  4.07401E+03 -4.20011E+03  4.19391E+03  8.87041E+02
  1.28634E+03  3.55333E+03 -4.27375E+03  4.87079E+03 -5.24920E+03  2.46961E+03 -4.73170E+03 -1.37968E+03
 -2.71120E+03 -6.42269E+03  1.56907E+03 -7.28997E+03  6.49868E+03 -5.32887E+03  7.43361E+03  1.24245E+03
  4.82808E+03  5.92203E+03  2.62904E+02  7.81048E+03 -5.62252E+03  4.51643E+03 -5.74715E+03 -3.03423E+02
 -6.20682E+03 -5.69114E+03 -1.35011E+03 -5.14634E+03  3.12345E+03 -5.38348E+03  2.76451E+03 -2.37350E+03
  3.34024E+03  6.34011E+02 -7.98666E+01  9.91475E+02  4.53054E+02 -3.15366E+02 -1.97362E+02 -1.95942E+03
  4.14703E+03 -1.22204E+03  5.29300E+03  9.80188E+02  6.72005E+03  3.82714E+03  5.17769E+03  8.33000E+03
 -1.89167E+03  9.47345E+03 -8.49134E+03  7.62140E+03 -1.10679E+04  1.27452E+03 -8.67873E+03 -3.08822E+03
 -5.44725E+03 -7.41977E+03 -6.72079E+02 -5.82990E+03  2.10493E+03 -2.48470E+03  2.08085E+03 -2.28431E+03
  1.17399E+03 -1.59366E+03  2.42139E+03 -2.62121E+03  3.82746E+03 -1.43883E+03  4.36029E+03  7.77780E+02
  4.85147E+03  1.46342E+03  1.31754E+03  3.94143E+03 -1.87609E+03  3.25710E+03 -5.03473E+03  3.11188E+03
 -5.77523E+03 -1.47011E+03 -2.44470E+03 -3.60174E+03  6.44534E+02 -5.49560E+03  3.88030E+03 -5.95802E+03
  6.18799E+03 -3.82066E+03  7.46346E+03  4.94719E+02  5.62773E+03  5.36805E+03  8.82713E+02  6.79080E+03
 -2.46175E+03  6.63792E+03 -3.87284E+03  1.51144E+03 -2.08779E+03 -7.43445E+02 -6.68477E+02 -6.75561E+02
 -5.46112E+02  5.98650E+00 -7.66741E+02  1.70814E+03 -2.80206E+03  1.26215E+03 -4.85899E+03 -2.16060E+02
 -2.60168E+03 -4.63672E+03  7.67325E+02 -4.90602E+03  3.05288E+03 -4.80965E+03  4.58978E+03 -1.59943E+03
  4.64833E+03  2.82561E+03  2.26871E+03  4.11964E+03 -1.55335E+03  4.70653E+03 -2.46621E+03  2.50989E+03
 -5.12297E+03  7.49687E+02 -4.16982E+03 -3.12869E+03 -4.19100E+02 -3.73711E+03  1.69587E+03 -2.72748E+03
  3.08216E+03 -1.80573E+03  2.54904E+03  3.62288E+02  2.76063E+02  1.72590E+03  1.09282E+03  6.96993E+02
  1.88569E+03  6.00218E+02  1.36664E+03  1.22883E+03  1.18103E+03  2.28218E+03  1.55349E+03  2.11200E+03
 -1.18226E+03  3.66961E+03 -3.40193E+03  4.83831E+03 -3.61346E+03  1.54324E+03 -4.99206E+03 -9.20411E+02
 -1.70289E+03 -4.61091E+03  6.85272E+02 -4.69247E+03  2.22365E+03 -3.55763E+03  3.63439E+03 -6.98722E+02
  2.86107E+03  2.20618E+03  9.80466E+02  2.95580E+03 -1.18277E+03  1.57495E+03 -1.75392E+03  2.50242E+02
 -7.16172E+01 -1.43229E+03  9.94506E+02 -1.33622E+03  1.77536E+03 -1.24949E+03  1.47496E+03  9.95912E+02
  1.23919E+03  6.21818E+02  1.79535E+03 -3.62284E+02 -6.86711E+02  5.43007E+02  9.82525E+02 -5.46129E+02
 -1.03350E+02 -5.87468E+02  2.27736E+03  9.26779E+02  1.14206E+03  2.59959E+03 -1.08797E+02  3.19553E+03
 -1.80067E+03  1.17874E+03 -2.56893E+03 -4.20885E+02 -2.47098E+03 -9.81403E+02 -7.51953E+02 -1.74201E+03
  7.90465E+02 -1.64279E+03  1.15826E+03 -1.06584E+03  1.21245E+03  1.81955E+03 -4.56258E+02  1.36477E+03
 -1.82062E+03  1.38980E+03 -1.71256E+03 -1.44076E+03 -9.85724E+02 -2.72967E+03  3.31698E+02 -1.88292E+03
  8.61486E+02 -6.37372E+02  1.27857E+03 -1.35830E+01  1.63971E+03  5.11987E+02  9.25746E+02  1.46891E+03
 -4.97326E+02 -7.88627E+01 -1.35554E+03 -5.12421E+02  6.32872E+02 -1.41749E+03  1.67320E+03 -1.54336E+03
  2.13888E+03  6.06451E+02  2.57355E+03  9.00199E+02  1.15542E+03  2.53256E+03 -7.71300E+02  2.44257E+03
 -1.91682E+03 -1.79730E+02 -2.03018E+03  4.38448E+02 -1.01010E+03 -2.04810E+03 -5.99215E+01 -1.43432E+03
  1.73699E+03 -8.81905E+02  1.17931E+03  6.53321E+02  2.98110E+02  1.70905E+03  5.47547E+02  1.23997E+03
 -5.34995E+02  1.15607E+03 -5.08431E+02 -1.19148E+02  3.02918E+02  1.02035E+03 -4.24100E+02  4.38426E+02
 -5.77046E+02  1.49821E+03 -2.24685E+03  1.09206E+03 -2.03592E+03  2.86195E+02 -3.03076E+03 -1.53074E+03
 -1.69564E+03 -3.65616E+03  6.84954E+02 -3.66704E+03  1.53547E+03 -3.01322E+03  3.60293E+03 -1.15085E+03
  2.77939E+03  3.55583E+02  2.11105E+03  2.00752E+03  2.72197E+01  1.78443E+03 -1.32079E+03  1.26673E+03
 -1.21029E+03  1.24865E+03 -7.55954E+02 -1.58373E+02 -3.26767E+02  1.14182E+03 -1.23010E+03  2.61396E+02
 -1.20993E+03  1.55815E+01 -8.15625E+02 -3.94140E+01  2.04693E+02 -9.58762E+02  6.64819E+00 -1.36919E+03
  1.10948E+03 -8.78373E+02  7.74307E+02 -2.85171E+02  1.81840E+03  1.34958E+03 -1.31035E+02  2.05718E+03
 -1.23470E+03  2.66899E+03 -2.29504E+03  1.86503E+03 -2.21194E+03 -6.71201E+02 -1.74903E+03 -1.28322E+03
 -6.22179E+02 -2.10878E+03  3.57601E+02 -1.66394E+03  1.03532E+03 -7.53118E+02  1.70714E+03  3.13772E+02
  3.77580E+02 -2.66158E+02 -1.77525E+02  4.52333E+02 -6.13538E+02 -6.67705E+01 -2.06179E+02  2.39764E+01
  1.00006E+03  3.20923E+02  6.60455E+02  6.59018E+02 -4.47493E+01  5.58687E+02  6.65421E+02  2.96915E+02
 -8.96202E+02  6.88350E+02 -9.67196E+02  7.81304E+01 -1.25928E+03 -8.32926E+02  2.21240E+01 -1.63815E+03
  4.96109E+02 -8.89641E+02  1.07370E+03 -2.82906E+02  1.10184E+03 -4.98291E+02  1.15636E+03  1.40446E+03
  4.70237E+02  6.20364E+02 -2.24561E+02  5.57242E+02 -9.90494E+02  8.02300E+02 -4.44595E+02  2.13299E+02
 -1.47561E+02 -2.78762E+02 -1.06711E+03 -3.39272E+02 -1.08711E+03 -2.99915E+02 -1.16691E+03 -7.92606E+02
 -1.22714E+03 -2.43131E+02 -7.26461E+01 -1.58281E+03  9.01492E+02 -1.77290E+03  1.21016E+03 -7.64148E+02
  1.17721E+03 -3.35893E+02  5.46494E+02  8.10961E+02 -4.67569E+01  1.07243E+03 -6.72286E+02  1.07507E+03
