 $NMID ID='MM_0lb_SNR400_19hz_g55_3.RAW', FMTDAT='(8E13.5)'
 TRAMP=1., VOLUME=1. $END
  3.09213E+05  1.67035E+02  3.37305E+05  2.50225E+05  8.45243E+04  3.37838E+05 -1.33008E+05  2.49931E+05
 -1.90107E+05  8.27851E+04 -1.10769E+05 -3.34648E+04  1.23378E+03 -5.01908E+04  5.37212E+04 -8.47712E+01
  3.50245E+04  5.28445E+04 -1.69186E+04  7.50290E+04 -6.03968E+04  6.30832E+04 -8.38148E+04  3.18097E+04
 -8.07592E+04 -1.04062E+04 -5.68990E+04 -5.09186E+04 -1.51490E+04 -6.91935E+04  2.68769E+04 -4.49252E+04
  3.92955E+04  3.96949E+03  1.55982E+04  4.71324E+04 -3.38950E+04  4.64569E+04 -6.57085E+04 -6.35383E+02
 -5.22060E+04 -5.60140E+04 -6.75848E+03 -7.60890E+04  3.32419E+04 -5.35139E+04  4.65342E+04 -1.66713E+04
  4.24627E+04  1.06170E+04  3.13121E+04  2.46931E+04  1.58569E+04  2.84965E+04 -4.66537E+03  2.71319E+04
 -2.19575E+04  1.27485E+04 -1.89846E+04 -4.15892E+03  5.02714E+03 -7.02127E+03  2.17560E+04  1.12227E+04
  7.30085E+03  3.34695E+04 -3.09458E+04  3.38427E+04 -6.11407E+04  2.05969E+03 -5.58513E+04 -4.13281E+04
 -1.21174E+04 -6.12739E+04  3.83661E+04 -4.40108E+04  5.61638E+04 -1.88584E+03  3.21382E+04  3.09615E+04
 -6.50232E+03  3.38660E+04 -2.86024E+04  1.40235E+04 -2.87173E+04 -4.88468E+03 -1.49513E+04 -1.06521E+04
 -7.52315E+03 -1.17295E+04 -1.16320E+03 -1.74172E+04  6.87536E+03 -2.23063E+04  1.54435E+04 -1.33876E+04
  1.23148E+04  4.67247E+03 -6.12280E+03  1.28911E+04 -2.01906E+04 -2.50149E+03 -8.47455E+03 -3.06574E+04
  2.15668E+04 -4.17484E+04  4.51431E+04 -1.92140E+04  4.29062E+04  1.83010E+04  1.43798E+04  4.17735E+04
 -1.57193E+04  3.15365E+04 -2.43526E+04  1.24364E+03 -8.57374E+03 -2.66224E+04  2.05515E+04 -3.18152E+04
  3.87910E+04 -7.57011E+03  3.24800E+04  2.25723E+04  1.58888E+04  4.38632E+04 -8.17723E+03  4.65708E+04
 -2.94059E+04  3.03046E+04 -3.82109E+04  8.94152E+03 -3.92998E+04 -1.52753E+04 -2.17026E+04 -3.55146E+04
  7.16052E+03 -3.43809E+04  2.93454E+04 -1.27867E+04  2.69693E+04  1.10175E+04  3.21276E+03  1.82745E+04
 -1.40166E+04  7.31276E+03 -9.85602E+03 -7.29776E+03  6.07567E+03 -9.81584E+03  1.73554E+04  6.04817E+03
  1.22656E+04  2.14691E+04 -6.86100E+03  2.37901E+04 -2.13965E+04  9.46665E+03 -2.58785E+04 -5.64273E+03
 -1.74919E+04 -1.69417E+04 -5.95928E+03 -1.76676E+04  4.12327E+03 -1.61326E+04  1.24142E+04 -1.49016E+04
  2.23265E+04 -1.17199E+04  2.88663E+04  1.59106E+03  2.17373E+04  1.69055E+04  4.21507E+03  3.34367E+04
 -1.69397E+04  2.88299E+04 -2.56034E+04  9.03158E+03 -1.96715E+04 -1.03122E+04 -3.82042E+03 -1.39783E+04
  2.22615E+03 -3.88698E+03 -3.11267E+03  5.49285E+03 -1.30543E+04  5.58046E+03 -1.37586E+04 -5.25448E+03
 -8.61803E+03 -1.65032E+04  5.00105E+03 -1.96248E+04  1.30058E+04 -1.47028E+04  1.49996E+04 -1.69989E+03
  9.75937E+03  1.13728E+04 -1.13151E+03  1.62179E+04 -1.02743E+04  8.88265E+03 -1.54283E+04 -3.51792E+03
 -1.18797E+04 -1.45404E+04 -1.50814E+03 -1.97074E+04  9.20460E+03 -1.53582E+04  1.66127E+04 -7.26457E+03
  1.48689E+04  5.15802E+02  1.02853E+04  4.25783E+03  5.46151E+03  2.53602E+02  7.82011E+03 -1.30383E+03
  1.39647E+04  2.55432E+03  1.53147E+04  1.30316E+04  9.46790E+03  2.51171E+04 -3.18004E+03  2.73669E+04
 -1.60627E+04  2.12909E+04 -2.47758E+04  1.00918E+04 -2.54996E+04 -1.26725E+03 -2.23197E+04 -1.42615E+04
 -1.03550E+04 -2.06345E+04  6.78050E+03 -1.98080E+04  1.69008E+04 -1.10280E+04  1.58562E+04  3.31259E+03
  6.60067E+03  1.13073E+04 -6.87199E+03  1.06155E+04 -1.41002E+04  2.22774E+03 -1.09073E+04 -8.08669E+03
 -2.26341E+02 -1.25316E+04  5.57577E+03 -9.80404E+03  8.21132E+03 -1.79956E+03  1.51760E+03  5.53153E+03
 -5.63098E+03  1.55350E+03 -3.93727E+03 -3.84727E+03  6.55411E+02 -9.96325E+03  7.69174E+03 -1.03742E+04
  1.29383E+04 -4.28049E+03  1.25228E+04  2.85856E+03  1.09181E+04  9.85278E+03  5.32567E+03  1.43748E+04
 -1.68894E+03  1.63817E+04 -1.03199E+04  1.01344E+04 -1.16919E+04  3.06975E+03 -8.75507E+03 -2.31181E+03
 -4.56497E+03 -2.89545E+03 -9.89415E+02  1.50438E+03 -2.08534E+03  2.15741E+03 -4.05659E+03  4.19566E+03
 -8.05912E+03 -6.74821E+02 -8.92368E+03 -7.13884E+03 -3.24099E+03 -1.21803E+04  3.67737E+03 -8.74727E+03
  7.41850E+03 -3.74558E+03  5.27757E+03  2.21542E+03  4.81338E+02  2.88194E+03 -3.57815E+03  1.39975E+02
 -3.49605E+03 -5.07199E+03 -4.93118E+02 -7.52331E+03  4.05353E+03 -8.16405E+03  9.90610E+03 -3.83978E+03
  1.18716E+04  1.12454E+03  8.56425E+03  6.29636E+03  1.68353E+03  9.00486E+03 -5.52534E+03  8.30532E+03
 -6.93236E+03  3.26024E+03 -3.56106E+03 -1.35793E+03  1.66352E+03 -2.02559E+03  4.33002E+03 -1.29102E+03
  4.23320E+03  3.41389E+03  1.09115E+03  5.75146E+03 -4.35177E+03  6.36790E+03 -7.80825E+03  2.17741E+03
 -5.04214E+03 -3.79699E+03  3.31021E+02 -6.59335E+03  3.61646E+03 -3.35592E+03  3.44269E+03  9.00680E+02
  5.69226E+02  3.05073E+03 -3.46415E+03  5.10863E+03 -5.25273E+03  2.34917E+03 -4.26358E+03 -1.34889E+03
 -2.48590E+03 -5.65711E+03  1.51557E+03 -6.88897E+03  6.19341E+03 -5.00994E+03  6.44137E+03  1.12245E+03
  4.77732E+03  5.25633E+03 -3.13737E+02  7.15594E+03 -5.14438E+03  3.93695E+03 -4.95412E+03  9.08864E+01
 -5.82358E+03 -5.35605E+03 -9.64078E+02 -5.54014E+03  2.25010E+03 -4.47637E+03  2.73661E+03 -2.74463E+03
  2.65421E+03  1.85880E+02 -1.05723E+02  9.77227E+02  5.71232E+02 -5.54334E+02 -4.73102E+01 -2.23613E+03
  3.27140E+03 -1.91354E+02  5.57476E+03  9.46639E+02  5.81089E+03  3.02189E+03  5.26756E+03  6.76223E+03
 -1.08473E+03  8.09471E+03 -7.81468E+03  6.65571E+03 -9.95398E+03  1.12438E+03 -7.90168E+03 -2.64170E+03
 -4.00662E+03 -6.57637E+03 -8.17251E+02 -5.13600E+03  2.39204E+03 -2.03185E+03  1.70738E+03 -1.86307E+03
  1.25283E+03 -1.59635E+03  2.44324E+03 -2.28717E+03  3.36777E+03 -1.12958E+03  3.73247E+03  3.54617E+02
  4.04129E+03  1.64343E+03  7.17898E+02  3.34618E+03 -1.39104E+03  2.65959E+03 -4.26489E+03  2.90267E+03
 -4.33637E+03 -9.43391E+02 -2.13670E+03 -3.20151E+03  6.07300E+02 -4.49505E+03  3.11351E+03 -4.66169E+03
  5.43874E+03 -3.04533E+03  6.18940E+03  5.87540E+02  4.72013E+03  3.65337E+03  1.32043E+03  5.45035E+03
 -1.51198E+03  5.51113E+03 -2.94482E+03  2.05910E+03 -1.87078E+03 -1.08160E+03 -3.81167E+02 -8.94587E+02
 -2.35610E+02 -7.32165E+01 -5.32215E+02  1.76646E+03 -2.58784E+03  1.27278E+03 -3.97844E+03 -1.92576E+02
 -1.55170E+03 -3.79556E+03  9.39193E+02 -4.76888E+03  2.61491E+03 -4.05221E+03  3.51263E+03 -1.10053E+03
  3.60273E+03  2.19722E+03  1.54605E+03  3.03756E+03 -1.18293E+03  4.48929E+03 -2.32144E+03  2.86922E+03
 -3.24436E+03  1.03347E+03 -3.26996E+03 -2.55976E+03  1.26005E+02 -3.39071E+03  2.14767E+03 -2.65710E+03
  2.66553E+03 -1.09997E+03  1.57873E+03  4.32245E+02  5.41645E+02  1.19070E+03  8.30180E+02  7.75048E+02
  1.53101E+03  6.21757E+02  1.31840E+03  9.12602E+02  3.25673E+02  1.71269E+03  1.48258E+03  2.02869E+03
 -1.49286E+03  2.54060E+03 -1.73113E+03  4.45274E+03 -2.68781E+03  1.33182E+03 -4.01430E+03 -3.39516E+02
 -1.62265E+03 -3.76595E+03  4.85016E+02 -4.58220E+03  1.61679E+03 -2.01267E+03  2.27735E+03 -1.02111E+03
  2.02089E+03  1.76266E+03 -7.36945E+01  2.07902E+03 -1.15393E+03  1.57005E+03 -1.41942E+03 -3.28338E+02
 -3.55834E+02 -1.42485E+03  8.77674E+02 -1.94840E+03  1.37506E+03 -1.21874E+03  1.16202E+03  1.01140E+02
  6.01966E+02  1.45778E+02  4.67563E+02 -5.52602E+02 -7.69831E+02  9.48517E+02  1.87182E+03 -2.71252E+02
 -3.07357E+02 -4.75964E+02  1.81442E+03  3.19454E+02  2.49767E+01  2.03026E+03 -4.36671E+02  2.81608E+03
 -1.20705E+03  9.21052E+02 -1.88189E+03  7.04850E+02 -1.21262E+03 -7.79226E+02 -3.08493E+02 -7.02371E+02
 -1.86600E+01 -1.08329E+03  9.36744E+02 -6.78350E+02  6.15217E+02  8.40884E+02 -4.16940E+02  6.62837E+02
 -1.85064E+03  9.71785E+02 -1.09967E+03 -5.92363E+02 -8.30363E+02 -2.27694E+03  6.04148E+01 -1.57193E+03
 -5.15764E+02 -5.06325E+02  1.45730E+02 -1.19706E+02  8.76636E+02 -2.24245E+02  1.95729E+02  9.77134E+02
  1.48301E+01 -8.13316E+01 -1.03830E+03 -2.52776E+02  6.86646E+02 -8.03099E+02  1.37848E+03 -4.97453E+02
  3.88739E+02 -2.62193E+02  2.67041E+03  3.75198E+02  9.13126E+02  1.29191E+03 -2.31882E+02  1.63711E+03
 -1.62544E+03 -5.03682E+01 -1.08143E+03  5.49510E+02 -5.68901E+02 -8.79698E+02  1.98512E+02 -2.32349E+02
  1.35340E+03 -3.96733E+02  1.87054E+02  4.26961E+02  9.45961E+01  1.01015E+03  4.35366E+02  7.90577E+02
 -2.06964E+02  1.25343E+03 -3.10731E+02  7.50468E+02  4.33672E+02  3.19748E+02 -1.14339E+03  4.53851E+02
 -9.33263E+02  1.16689E+03 -1.93112E+03  8.34031E+02 -1.38537E+03  3.71135E+02 -2.03807E+03 -1.24015E+03
 -9.13793E+02 -1.74482E+03  3.58457E+02 -2.31940E+03  5.09887E+02 -2.54691E+03  2.48724E+03 -6.08157E+02
  2.52869E+03 -6.43911E+02  8.42051E+02  1.66888E+03 -6.46647E+02  1.22012E+03 -5.01488E+02  1.07457E+03
 -1.15552E+03  4.30345E+02 -3.66319E+02 -1.31472E+02 -1.15815E+03  1.97725E+02 -6.00259E+02  2.77635E+02
 -8.66404E+02 -4.27897E+02 -7.75188E+02  2.18833E+02  5.62980E+01 -6.04888E+02 -5.81059E+02 -8.86836E+02
  4.92975E+02 -8.48343E+02  2.18017E+02  3.21616E+02  9.36218E+02  8.80146E+02 -7.13385E+02  1.35843E+03
 -9.07139E+02  1.88297E+03 -1.33357E+03  1.60555E+03 -1.34222E+03  5.00759E+02 -8.24076E+02 -1.24311E+03
 -5.78684E+02 -1.12018E+03  1.25979E+02 -9.69480E+02 -6.32641E+01 -1.24521E+03  2.80837E+02  3.96760E+02
  5.21863E+02  2.86891E+02 -4.60835E+02  4.93957E+02 -2.99849E+02 -1.09940E+02  1.59455E+02 -6.23805E+02
  4.22482E+02  2.83404E+02 -1.98379E+02  4.09255E+02  5.72128E+02  5.19643E+02  6.50596E+02 -1.34671E+01
 -3.48585E+02  1.96209E+02 -3.25359E+02 -2.47224E+02 -6.45303E+02 -4.98103E+02 -2.25703E+02 -9.76564E+02
  4.43085E+02 -5.31271E+02 -3.54799E+02  1.57044E+02  9.16457E+02 -5.52349E+02  7.12527E+02  6.43920E+02
  6.08784E+02  2.92053E+02 -4.42640E+01  8.71124E+02 -8.70595E+01  5.27526E+02 -3.76872E+02 -5.57974E+01
 -3.50741E+02 -5.41548E+02 -7.83182E+01  8.03197E+01 -8.47992E+02  8.28475E+01 -2.98186E+02 -4.20657E+02
 -5.40011E+02  2.10309E+02 -3.42721E+01 -5.23465E+02  9.98919E+02 -1.53646E+03  4.30649E+02 -5.82513E+01
  7.26912E+02  1.43658E+02 -4.60978E+02  9.01488E+01 -5.23485E+02  7.35626E+02 -1.30025E+02  3.49894E+02
