 $NMID ID='MM_0lb_SNR400_17hz_g40_70.RAW', FMTDAT='(8E13.5)'
 TRAMP=1., VOLUME=1. $END
  3.10010E+05  1.46934E+02  3.36937E+05  2.50579E+05  8.42353E+04  3.36953E+05 -1.32478E+05  2.50053E+05
 -1.89500E+05  8.26018E+04 -1.11082E+05 -3.35419E+04  1.94487E+03 -5.06990E+04  5.41688E+04  3.76350E+01
  3.47316E+04  5.25884E+04 -1.67943E+04  7.49761E+04 -5.99443E+04  6.23713E+04 -8.31069E+04  3.15684E+04
 -7.99452E+04 -1.14748E+04 -5.71077E+04 -5.01427E+04 -1.45034E+04 -6.84638E+04  2.70531E+04 -4.47506E+04
  3.89854E+04  4.25449E+03  1.58921E+04  4.70599E+04 -3.38766E+04  4.58940E+04 -6.58195E+04 -4.51557E+02
 -5.23093E+04 -5.58521E+04 -6.40764E+03 -7.50298E+04  3.27851E+04 -5.30941E+04  4.60925E+04 -1.63409E+04
  4.15927E+04  1.11518E+04  3.04674E+04  2.42528E+04  1.53201E+04  2.90308E+04 -5.07927E+03  2.68456E+04
 -2.19650E+04  1.22716E+04 -1.94954E+04 -4.33842E+03  4.40346E+03 -7.69744E+03  2.13036E+04  1.12289E+04
  7.82485E+03  3.36211E+04 -3.02476E+04  3.43571E+04 -6.07076E+04  1.88646E+03 -5.55911E+04 -4.05826E+04
 -1.27369E+04 -6.12254E+04  3.78511E+04 -4.36140E+04  5.58540E+04 -1.89380E+03  3.16665E+04  3.12373E+04
 -6.44046E+03  3.34337E+04 -2.87632E+04  1.39551E+04 -2.78347E+04 -5.78209E+03 -1.45665E+04 -1.02261E+04
 -7.56382E+03 -1.14688E+04 -1.21870E+03 -1.67210E+04  6.31846E+03 -2.26486E+04  1.46142E+04 -1.37526E+04
  1.24147E+04  4.19704E+03 -6.78812E+03  1.29653E+04 -1.95270E+04 -2.94798E+03 -8.21956E+03 -3.09773E+04
  2.08331E+04 -4.08885E+04  4.49881E+04 -1.93203E+04  4.27058E+04  1.83835E+04  1.44741E+04  4.19751E+04
 -1.56171E+04  3.12179E+04 -2.33139E+04  1.32963E+03 -8.93894E+03 -2.67457E+04  2.04238E+04 -3.13996E+04
  3.88789E+04 -7.83935E+03  3.22434E+04  2.25547E+04  1.59948E+04  4.29152E+04 -7.92718E+03  4.62747E+04
 -2.83663E+04  3.00060E+04 -3.79114E+04  8.56700E+03 -3.87426E+04 -1.54003E+04 -2.21121E+04 -3.45975E+04
  6.57808E+03 -3.44548E+04  2.95469E+04 -1.25109E+04  2.71579E+04  1.05148E+04  3.07675E+03  1.78057E+04
 -1.31640E+04  7.88145E+03 -1.00187E+04 -7.79269E+03  6.11667E+03 -1.05511E+04  1.74714E+04  6.16147E+03
  1.27869E+04  2.13775E+04 -6.75076E+03  2.32995E+04 -2.15385E+04  9.55167E+03 -2.52933E+04 -5.97188E+03
 -1.76592E+04 -1.70815E+04 -6.47036E+03 -1.71662E+04  3.44336E+03 -1.51649E+04  1.30096E+04 -1.50851E+04
  2.22788E+04 -1.17474E+04  2.87565E+04  8.60623E+02  2.17090E+04  1.70231E+04  4.09891E+03  3.38125E+04
 -1.64917E+04  2.80057E+04 -2.60476E+04  9.52493E+03 -1.99286E+04 -1.04433E+04 -3.74091E+03 -1.46660E+04
  2.32789E+03 -4.32690E+03 -2.83205E+03  5.75174E+03 -1.36283E+04  4.88528E+03 -1.38514E+04 -5.11876E+03
 -8.56435E+03 -1.55501E+04  4.80502E+03 -1.99220E+04  1.38323E+04 -1.42080E+04  1.49456E+04 -1.63282E+03
  1.02374E+04  1.15295E+04 -1.18237E+03  1.59105E+04 -1.07139E+04  9.02819E+03 -1.60072E+04 -3.50789E+03
 -1.14871E+04 -1.47003E+04 -2.18783E+03 -1.93410E+04  8.53285E+03 -1.59337E+04  1.68091E+04 -7.67022E+03
  1.51044E+04  5.62815E+02  1.05421E+04  4.02008E+03  5.50636E+03  4.70577E+02  8.14351E+03 -1.62824E+03
  1.47426E+04  2.66152E+03  1.55093E+04  1.33423E+04  9.63852E+03  2.56245E+04 -3.31940E+03  2.77302E+04
 -1.63208E+04  2.14745E+04 -2.60538E+04  1.01161E+04 -2.59201E+04 -1.41395E+03 -2.29623E+04 -1.53200E+04
 -1.03673E+04 -2.07841E+04  7.37959E+03 -1.94498E+04  1.76500E+04 -1.00762E+04  1.65488E+04  4.40110E+03
  6.84424E+03  1.21560E+04 -7.19287E+03  1.07693E+04 -1.32105E+04  3.07130E+03 -1.03285E+04 -8.27255E+03
 -7.20666E+01 -1.31920E+04  6.41226E+03 -9.79070E+03  8.16209E+03 -1.40245E+03  9.47936E+02  5.33531E+03
 -6.57321E+03  1.57944E+03 -3.77582E+03 -4.72271E+03  6.93680E+02 -1.07418E+04  7.90147E+03 -1.09378E+04
  1.31894E+04 -5.06313E+03  1.35270E+04  2.06681E+03  1.06563E+04  1.00749E+04  5.01107E+03  1.47760E+04
 -1.76263E+03  1.68889E+04 -9.85769E+03  1.06708E+04 -1.20977E+04  3.46394E+03 -8.67422E+03 -2.35129E+03
 -4.60403E+03 -4.46421E+03 -5.46846E+02  1.22317E+03 -1.97599E+03  2.42701E+03 -3.89020E+03  3.60222E+03
 -8.57919E+03 -6.55570E+02 -9.23677E+03 -7.24558E+03 -4.18816E+03 -1.17504E+04  3.70056E+03 -9.20270E+03
  7.93510E+03 -3.63088E+03  5.70098E+03  2.65047E+03  5.01095E+02  2.59213E+03 -3.74365E+03 -1.86348E+02
 -3.88818E+03 -5.67694E+03 -9.95590E+02 -8.08137E+03  4.23880E+03 -8.61667E+03  1.06485E+04 -4.48488E+03
  1.22796E+04  2.98812E+02  9.22104E+03  6.34716E+03  1.38347E+03  9.37027E+03 -5.74362E+03  8.88452E+03
 -7.02542E+03  3.08763E+03 -3.16971E+03 -1.25004E+03  8.14216E+02 -2.33485E+03  5.23732E+03 -1.33246E+03
  4.41446E+03  3.61254E+03  1.43460E+03  6.62418E+03 -4.76734E+03  7.29522E+03 -8.79983E+03  2.03548E+03
 -4.75721E+03 -3.54046E+03  6.33387E+02 -7.15228E+03  4.53301E+03 -3.87894E+03  4.28898E+03  1.56044E+03
  6.26412E+02  3.34393E+03 -4.70810E+03  4.72940E+03 -5.48791E+03  2.36178E+03 -5.01861E+03 -1.33027E+03
 -3.50668E+03 -6.85157E+03  1.69092E+03 -8.07853E+03  6.82952E+03 -5.31833E+03  7.14181E+03  9.67238E+02
  5.21842E+03  5.88879E+03 -1.56081E+01  8.41637E+03 -5.44444E+03  4.07191E+03 -6.37037E+03 -4.17977E+02
 -5.89863E+03 -5.51575E+03 -1.55620E+03 -5.57426E+03  2.92623E+03 -5.10940E+03  3.40823E+03 -3.15628E+03
  3.15809E+03 -6.81686E+01  5.46468E+02  9.99030E+02  6.08285E+02 -5.87966E+02  3.06253E+02 -1.84220E+03
  4.23745E+03 -1.29126E+03  6.18051E+03  8.23454E+02  6.08692E+03  3.69485E+03  5.34164E+03  7.81129E+03
 -1.50805E+03  9.92738E+03 -9.06749E+03  7.40883E+03 -1.02350E+04  1.19408E+03 -8.86651E+03 -3.17844E+03
 -4.60198E+03 -7.18668E+03 -4.04038E+02 -6.08380E+03  2.66886E+03 -2.72492E+03  1.99786E+03 -2.11300E+03
  1.24552E+03 -1.58249E+03  2.30547E+03 -2.17637E+03  3.60836E+03 -1.64603E+03  3.95928E+03  2.40708E+02
  5.08210E+03  1.11904E+03  1.19753E+03  3.74125E+03 -1.85368E+03  3.14102E+03 -4.79552E+03  3.00990E+03
 -5.61741E+03 -1.02399E+03 -1.78999E+03 -3.43287E+03  1.13519E+03 -5.26171E+03  3.55390E+03 -6.20875E+03
  6.00244E+03 -3.93082E+03  7.72601E+03 -3.43391E+02  5.65355E+03  5.32782E+03  5.55765E+02  6.94434E+03
 -2.78416E+03  6.32638E+03 -4.03312E+03  2.46770E+03 -2.08763E+03 -1.38340E+03 -5.50008E+02 -6.70899E+02
  1.04747E+02  2.56615E+02 -8.59761E+02  1.87336E+03 -3.01013E+03  1.15296E+03 -4.44275E+03 -7.20475E+02
 -1.89913E+03 -3.93796E+03  7.40090E+02 -5.20186E+03  3.34135E+03 -4.19056E+03  4.28707E+03 -1.20114E+03
  5.03251E+03  2.82136E+03  2.13378E+03  3.48223E+03 -1.55615E+03  5.11432E+03 -2.92860E+03  3.26611E+03
 -4.52229E+03  3.66311E+02 -4.44529E+03 -2.66167E+03 -2.37507E+02 -3.94248E+03  2.15142E+03 -2.89883E+03
  3.20822E+03 -1.48342E+03  2.38095E+03  7.09431E+02  9.96243E+02  1.92028E+03  9.19688E+02  4.33044E+02
  1.53541E+03  1.25292E+03  1.49856E+03  5.38829E+02  8.81191E+02  2.43694E+03  1.06618E+03  2.01280E+03
 -2.19833E+03  3.60036E+03 -3.19708E+03  5.00861E+03 -4.00418E+03  1.24621E+03 -4.64733E+03 -4.30771E+02
 -2.54644E+03 -4.37054E+03  9.63998E+02 -5.97246E+03  2.72696E+03 -3.43873E+03  3.71660E+03 -1.34665E+03
  2.88706E+03  2.31054E+03  9.38893E+00  2.62465E+03 -9.68227E+02  1.78216E+03 -1.35350E+03 -8.05921E+01
 -9.34746E+02 -1.78068E+03  1.68252E+03 -1.72140E+03  1.26964E+03 -1.38187E+03  1.83729E+03 -1.19502E+02
  7.39333E+02  5.58554E+02  5.43878E+02 -3.95796E+02 -4.64274E+02  1.19208E+03  2.01195E+03 -2.43612E+02
  2.97060E+02 -1.48033E+02  1.78619E+03  2.50155E+02  8.23122E+02  3.04436E+03 -3.76283E+02  3.33147E+03
 -2.08170E+03  1.03004E+03 -2.57527E+03  2.52351E+02 -2.59502E+03 -7.62658E+02 -3.65485E+02 -1.48282E+03
  2.09606E+02 -1.26029E+03  1.14301E+03 -7.01602E+02  2.54393E+02  1.13002E+03 -6.83379E+02  1.43404E+03
 -1.64204E+03  8.71308E+02 -1.19024E+03 -1.17376E+03 -1.44136E+02 -2.38241E+03  3.95003E+02 -2.03897E+03
  2.79424E+02 -1.07350E+03  1.25973E+03  4.54168E+02  1.60416E+03  8.47389E+01  3.79320E+01  1.42745E+03
 -5.12510E+02 -4.30438E+02 -1.09179E+03 -4.99121E+02  1.02046E+03 -1.15073E+03  2.70883E+03 -1.30697E+03
  1.97889E+03  5.11294E+01  3.31253E+03  1.16945E+03  8.98890E+02  2.28038E+03 -3.20006E+02  1.99713E+03
 -2.20678E+03  4.83465E+02 -1.89992E+03 -2.28907E+02 -1.06539E+03 -1.00453E+03  2.15472E+02 -4.17207E+02
  1.51289E+03 -5.17040E+02  1.18668E+03  6.73606E+02  3.47752E+02  1.47406E+03  2.81589E+02  1.28783E+03
  1.60042E+02  1.12201E+03 -2.22250E+02  9.66911E-01 -1.61020E+02  6.22899E+02 -6.83468E+02  4.33636E+02
 -1.00206E+03  1.30699E+03 -2.49452E+03  1.33390E+03 -2.65613E+03 -2.89945E+01 -2.92614E+03 -1.17724E+03
 -2.07481E+03 -2.94637E+03  4.95412E+02 -3.20677E+03  1.39112E+03 -2.86390E+03  3.17342E+03 -1.29168E+03
  3.02021E+03  2.92334E+02  1.41894E+03  2.33768E+03 -1.33519E+02  1.84510E+03 -7.86732E+02  1.53138E+03
 -8.29296E+02  1.10323E+03 -9.34891E+02 -4.86750E+02 -7.69744E+02  4.35811E+01 -9.58391E+02 -3.48655E+01
 -8.25912E+02  9.68388E+01 -1.07074E+03 -2.09634E+01  5.35127E+02 -4.67942E+02 -1.47392E+02 -1.39730E+03
  1.73873E+03 -9.29648E+02  7.79542E+02  1.19602E+03  1.86785E+03  9.53901E+02 -4.83941E+02  2.04589E+03
 -1.01667E+03  3.21781E+03 -2.24748E+03  2.12018E+03 -2.48603E+03 -3.67456E+02 -1.18804E+03 -1.27426E+03
 -1.65094E+03 -2.23605E+03  5.61970E+02 -1.68205E+03  1.22453E+03 -8.36230E+01  1.21400E+03  4.59595E+02
  6.09608E+02  3.88913E+02 -5.32397E+02  5.77906E+02 -8.39824E+02  4.46856E+02  1.70505E+02  4.82341E+01
  1.03867E+03  2.36893E+02  5.21308E+02  7.09182E+02  4.28798E+02  4.99933E+02  4.76701E+02  6.35255E+02
 -1.05764E+03  3.97099E+02 -1.21263E+03 -2.71915E+02 -7.84522E+02 -1.47224E+03 -2.82831E+02 -1.74892E+03
  7.30922E+02 -1.06866E+03  6.99365E+02 -7.48234E+02  1.20662E+03 -4.21972E+02  1.01972E+03  1.19696E+03
  4.52725E+01  7.74574E+02 -4.66326E+02  1.07703E+03 -7.92219E+02  1.02195E+03 -1.02021E+03  2.18985E+02
  1.12915E+02 -7.74161E+01 -3.88555E+02  2.06590E+01 -1.12414E+03  3.58955E+01 -1.08226E+03  1.72131E+02
 -1.25126E+03  1.36948E+02 -3.73699E+02 -1.41120E+03  8.84938E+02 -2.26388E+03  1.23006E+03 -4.89702E+02
  1.45287E+03 -2.16060E+02  1.24176E+02  5.26443E+02 -2.21293E+02  9.80396E+02 -4.18494E+02  1.21419E+03
