 $NMID ID='MM_0lb_SNR400_7hz_g50_85.RAW', FMTDAT='(8E13.5)'
 TRAMP=1., VOLUME=1. $END
  3.10032E+05  7.24070E+02  3.37319E+05  2.51217E+05  8.51592E+04  3.39290E+05 -1.33021E+05  2.51635E+05
 -1.90752E+05  8.49610E+04 -1.13155E+05 -3.28565E+04 -6.67547E+01 -4.99532E+04  5.31469E+04 -5.70702E+02
  3.56716E+04  5.23413E+04 -1.63780E+04  7.63284E+04 -6.18109E+04  6.44366E+04 -8.63947E+04  3.24187E+04
 -8.27627E+04 -1.15007E+04 -5.84047E+04 -5.32418E+04 -1.48603E+04 -7.19267E+04  2.95064E+04 -4.65886E+04
  4.13194E+04  3.61469E+03  1.69333E+04  4.97261E+04 -3.49561E+04  4.82911E+04 -6.85597E+04  4.33649E+02
 -5.52460E+04 -5.76473E+04 -7.99887E+03 -7.99718E+04  3.47606E+04 -5.79366E+04  5.13972E+04 -1.88129E+04
  4.57535E+04  1.06672E+04  3.36565E+04  2.68187E+04  1.54121E+04  3.11537E+04 -6.04058E+03  2.84540E+04
 -2.21064E+04  1.19814E+04 -1.80121E+04 -6.21936E+03  7.59595E+03 -6.75866E+03  2.43433E+04  1.45503E+04
  6.64945E+03  3.81525E+04 -3.40057E+04  3.68221E+04 -6.63961E+04  1.30794E+03 -5.93929E+04 -4.61641E+04
 -1.32435E+04 -6.65862E+04  4.22786E+04 -4.82940E+04  6.22199E+04 -3.11396E+03  3.82659E+04  3.49042E+04
 -5.23831E+03  4.15955E+04 -3.18885E+04  1.92457E+04 -3.41598E+04 -2.22465E+03 -2.11324E+04 -1.25574E+04
 -9.92088E+03 -1.65098E+04  8.95542E+01 -2.06131E+04  9.30535E+03 -2.32797E+04  1.64238E+04 -1.29353E+04
  9.41111E+03  6.88164E+03 -1.07085E+04  1.25398E+04 -2.43712E+04 -7.50757E+03 -8.18629E+03 -4.02770E+04
  2.61559E+04 -4.84429E+04  5.28215E+04 -2.08529E+04  5.05737E+04  2.01293E+04  1.84764E+04  4.79082E+04
 -1.69533E+04  3.80817E+04 -2.80602E+04  3.46511E+03 -1.30161E+04 -2.95835E+04  2.15432E+04 -3.84542E+04
  4.63972E+04 -1.10752E+04  4.20598E+04  2.60691E+04  2.29881E+04  5.25827E+04 -8.64886E+03  5.93257E+04
 -3.72041E+04  4.00724E+04 -4.97696E+04  1.20958E+04 -4.93656E+04 -1.86982E+04 -2.62227E+04 -4.26354E+04
  8.17260E+03 -4.45010E+04  3.52733E+04 -1.82557E+04  3.35706E+04  1.14193E+04  6.16496E+03  2.17670E+04
 -1.42018E+04  1.03762E+04 -1.28880E+04 -6.78737E+03  5.81702E+03 -1.25635E+04  1.90937E+04  5.39197E+03
  1.53747E+04  2.26573E+04 -5.01384E+03  2.75761E+04 -2.34207E+04  1.60221E+04 -3.30392E+04 -1.91537E+03
 -2.80141E+04 -1.85111E+04 -1.42041E+04 -2.71357E+04  5.02166E+03 -2.76580E+04  2.05832E+04 -2.38967E+04
  3.43409E+04 -1.54029E+04  4.01751E+04  5.05292E+03  2.79708E+04  2.60768E+04  4.48252E+03  4.26377E+04
 -2.15616E+04  3.53761E+04 -3.22425E+04  1.18072E+04 -2.35747E+04 -1.08612E+04 -4.93984E+03 -1.26037E+04
 -2.60217E+02  2.29768E+02 -8.44169E+03  9.74833E+03 -2.22529E+04  5.41581E+03 -2.14780E+04 -1.07067E+04
 -1.20773E+04 -2.48752E+04  6.08685E+03 -3.10904E+04  2.04425E+04 -2.08134E+04  2.45468E+04 -1.32251E+03
  1.55403E+04  1.72735E+04 -1.56910E+03  2.54662E+04 -1.83719E+04  1.47084E+04 -2.60768E+04 -5.43511E+03
 -1.82383E+04 -2.19072E+04 -2.70593E+03 -2.99598E+04  1.39641E+04 -2.56380E+04  2.44705E+04 -1.31991E+04
  2.29460E+04 -6.93066E+02  1.75076E+04  6.35743E+03  1.01824E+04  1.29063E+03  1.39785E+04 -2.26113E+03
  2.43150E+04  2.77062E+03  2.80875E+04  1.99377E+04  2.06278E+04  4.07435E+04 -1.84340E+03  4.86689E+04
 -2.73030E+04  4.07736E+04 -4.66456E+04  2.14067E+04 -4.86856E+04 -3.30566E+03 -3.99503E+04 -2.92555E+04
 -1.60504E+04 -4.08063E+04  1.45328E+04 -3.65743E+04  3.05757E+04 -1.62065E+04  2.60466E+04  9.15159E+03
  8.29048E+03  2.00604E+04 -1.23941E+04  1.60946E+04 -2.20063E+04  1.93980E+03 -1.65521E+04 -1.41592E+04
 -4.31290E+02 -2.12060E+04  1.08726E+04 -1.56293E+04  1.57058E+04 -1.68658E+03  4.10401E+03  1.03622E+04
 -8.93273E+03  4.45262E+03 -1.05296E+04 -6.79392E+03 -3.09769E+03 -2.04883E+04  1.20154E+04 -2.36977E+04
  2.59099E+04 -1.28597E+04  3.02518E+04  3.68396E+03  2.68095E+04  2.06621E+04  1.22919E+04  3.39834E+04
 -6.62254E+03  3.60983E+04 -2.28077E+04  2.11809E+04 -2.52023E+04  3.47383E+03 -1.73121E+04 -6.04155E+03
 -6.93957E+03 -8.74232E+03 -1.25155E+03  4.69653E+01 -3.07368E+03  4.12998E+03 -9.69591E+03  5.92722E+03
 -1.54128E+04 -1.72089E+03 -1.56276E+04 -1.27829E+04 -7.06484E+03 -2.15849E+04  7.24992E+03 -1.74876E+04
  1.40084E+04 -6.70797E+03  1.06195E+04  5.40201E+03 -9.85764E+02  7.67805E+03 -8.77955E+03 -1.26227E+03
 -8.33334E+03 -1.11489E+04 -1.01678E+03 -1.84046E+04  9.58754E+03 -1.97070E+04  2.31159E+04 -1.01340E+04
  2.69908E+04  2.79025E+03  1.87431E+04  1.71316E+04  3.65626E+03  2.13305E+04 -1.02734E+04  1.79799E+04
 -1.45624E+04  4.05743E+03 -8.06758E+03 -3.81180E+03  1.62674E+03 -5.87765E+03  9.42787E+03 -6.79844E+02
  8.87426E+03  8.28799E+03  1.10326E+03  1.34318E+04 -1.09461E+04  1.28396E+04 -1.76500E+04  3.13257E+03
 -1.32925E+04 -9.14960E+03  3.90072E+02 -1.57113E+04  1.01977E+04 -7.93446E+03  1.16578E+04  4.46951E+03
  2.53654E+03  1.14025E+04 -9.80657E+03  1.33446E+04 -1.69927E+04  6.00171E+03 -1.65579E+04 -5.13736E+03
 -1.00984E+04 -1.96124E+04  4.34938E+03 -2.11070E+04  1.81352E+04 -1.30994E+04  2.02596E+04  4.28897E+03
  1.15192E+04  1.52484E+04 -2.17828E+03  1.86441E+04 -1.37748E+04  9.85534E+03 -1.59736E+04 -1.38998E+03
 -1.27185E+04 -1.16140E+04 -2.24472E+03 -1.39091E+04  6.73551E+03 -1.09333E+04  1.04378E+04 -3.16701E+03
  6.01078E+03  1.93227E+03 -1.89086E+03  2.77169E+03 -1.89457E+03 -5.10269E+03  2.80070E+03 -9.28482E+03
  1.45061E+04 -6.09337E+03  1.97121E+04  2.18401E+03  1.84735E+04  1.34163E+04  1.20098E+04  2.59655E+04
 -5.65318E+03  2.88107E+04 -2.31851E+04  2.10329E+04 -3.13311E+04  4.36292E+03 -2.40838E+04 -1.17651E+04
 -1.22401E+04 -2.11136E+04 -3.70432E+02 -1.78652E+04  5.93959E+03 -1.01918E+04  6.26502E+03 -6.17720E+03
  4.87034E+03 -2.61620E+03  5.18793E+03 -4.13842E+03  7.16522E+03 -5.37514E+03  9.59287E+03 -1.68332E+03
  1.27552E+04  2.72144E+03  7.93228E+03  1.17372E+04 -3.29323E+03  1.45466E+04 -1.32992E+04  1.06210E+04
 -1.85274E+04 -1.35964E+03 -1.22619E+04 -1.29009E+04 -2.05795E+03 -1.96233E+04  1.14731E+04 -1.93641E+04
  2.08809E+04 -1.00496E+04  2.29247E+04  3.98968E+03  1.66710E+04  1.68974E+04  2.41048E+03  2.20790E+04
 -9.02943E+03  1.70611E+04 -1.28207E+04  6.18587E+03 -9.00439E+03 -2.74911E+03 -4.38022E+03 -2.67008E+03
 -1.58914E+03  2.97863E+02 -3.04641E+03  3.63393E+03 -7.17776E+03  2.79007E+03 -1.32833E+04 -2.24634E+03
 -9.70976E+03 -1.25426E+04 -6.92615E+02 -1.82378E+04  1.17714E+04 -1.65446E+04  1.80128E+04 -5.64087E+03
  1.68912E+04  8.91391E+03  9.23969E+03  1.80082E+04 -3.94140E+03  1.87644E+04 -1.26562E+04  1.22708E+04
 -1.73951E+04  1.22441E+03 -1.36667E+04 -1.19954E+04 -2.13629E+03 -1.55627E+04  8.22518E+03 -1.21598E+04
  1.18867E+04 -3.80277E+03  8.77298E+03  4.37461E+03  2.59826E+03  5.69713E+03  1.93994E+03  3.44786E+03
  3.69155E+03  1.23336E+03  4.29570E+03  1.65860E+03  6.11762E+03  5.89504E+03  4.53655E+03  1.05652E+04
 -4.36588E+03  1.44742E+04 -1.31785E+04  1.54991E+04 -1.93160E+04  3.85320E+03 -2.03744E+04 -8.54032E+03
 -1.06123E+04 -1.92403E+04  2.72573E+03 -2.18915E+04  1.24647E+04 -1.35665E+04  1.55979E+04 -3.42228E+03
  1.24322E+04  7.37531E+03  2.65422E+03  1.11376E+04 -5.81883E+03  7.11625E+03 -8.75390E+03 -3.82599E+02
 -2.86969E+03 -7.76338E+03  4.94190E+03 -8.72399E+03  8.20698E+03 -3.99499E+03  7.64850E+03  1.61294E+03
  4.48894E+03  5.29877E+03  2.77948E+03  3.03023E+03 -1.77033E+03  2.26427E+03  1.00957E+03 -9.00024E+02
  4.10190E+03 -8.32738E+02  7.77372E+03  2.92240E+03  4.80532E+03  1.04063E+04 -1.68546E+03  1.37190E+04
 -8.90038E+03  8.78386E+03 -1.32842E+04  2.17807E+03 -1.12174E+04 -5.62427E+03 -5.32030E+03 -8.40083E+03
  1.22253E+03 -8.80243E+03  5.48253E+03 -3.48763E+03  4.15091E+03  3.54842E+03 -2.98376E+03  7.06956E+03
 -8.07359E+03  3.93857E+03 -9.98746E+03 -3.53990E+03 -5.08502E+03 -1.21932E+04  1.17734E+03 -1.12683E+04
  6.96461E+03 -7.35707E+03  9.73487E+03 -1.02853E+03  6.61245E+03  2.87745E+03  9.95375E+02  6.23785E+03
 -4.61017E+03  2.31321E+03 -5.83647E+03 -4.12365E+03  2.09556E+03 -9.00584E+03  1.06900E+04 -7.78759E+03
  1.33742E+04  4.05549E+02  1.15577E+04  9.21220E+03  4.16586E+03  1.42204E+04 -5.07947E+03  1.25617E+04
 -1.16146E+04  6.00627E+03 -1.10167E+04 -6.19626E+02 -6.81449E+03 -9.10038E+03  2.52718E+03 -8.15439E+03
  8.74411E+03 -4.04169E+03  7.88906E+03  2.74661E+03  3.00416E+03  7.47717E+03 -1.35870E+03  7.05269E+03
 -4.16241E+03  3.12284E+03 -3.10964E+03  1.46203E+03 -2.46855E+03  1.92892E+03 -1.97049E+03  3.12150E+03
 -3.54765E+03  4.66992E+03 -8.94106E+03  4.89140E+03 -1.40210E+04  1.02655E+03 -1.50228E+04 -1.01653E+04
 -7.60925E+03 -1.84185E+04  3.43143E+03 -2.15472E+04  1.36308E+04 -1.52722E+04  2.00866E+04 -6.33376E+03
  1.85984E+04  4.22081E+03  1.24801E+04  1.29744E+04  1.67562E+03  1.45364E+04 -5.45100E+03  1.05218E+04
 -8.27390E+03  4.46064E+03 -5.18975E+03 -2.04591E+03 -2.58751E+03 -3.08461E+03 -8.80035E+02  6.81540E+01
 -2.21100E+03  9.02442E+02 -2.71748E+03 -4.58131E+02 -1.24913E+03 -3.13203E+03  5.85499E+02 -5.74804E+03
  7.07346E+03 -4.32267E+03  9.60968E+03 -4.45443E+02  1.04115E+04  7.34441E+03  2.54405E+03  1.49670E+04
 -7.45412E+03  1.67557E+04 -1.57898E+04  9.67867E+03 -1.69212E+04 -1.11151E+03 -1.37099E+04 -1.15944E+04
 -5.15905E+03 -1.51060E+04  4.21767E+03 -1.43789E+04  1.02472E+04 -7.98751E+03  9.62627E+03 -3.43626E+02
  5.61374E+03  4.75234E+03  1.05696E+02  4.39137E+03 -2.77425E+03 -5.48623E+02  1.51294E+03 -4.08067E+03
  4.29991E+03 -2.25867E+03  5.88515E+03  1.95795E+03  3.37768E+03  6.39056E+03  7.95427E+02  7.97006E+03
 -6.28442E+03  7.93739E+03 -1.05225E+04  7.46725E+02 -8.34007E+03 -7.18356E+03 -1.22282E+03 -1.18669E+04
  7.76997E+03 -1.07009E+04  1.21151E+04 -3.21689E+03  1.15994E+04  4.05936E+03  7.51738E+03  9.67010E+03
  7.91001E+02  1.05169E+04 -3.37634E+03  8.07876E+03 -6.86996E+03  4.51588E+03 -6.24143E+03  8.32135E+02
 -2.28254E+03 -9.22176E+02 -2.17186E+03  1.18689E+03 -5.94603E+03  2.09735E+03 -8.09488E+03 -6.53779E+02
 -7.58439E+03 -6.43953E+03 -1.54939E+03 -1.10897E+04  4.77813E+03 -1.02068E+04  8.94332E+03 -5.09138E+03
  1.09635E+04  7.68114E+02  7.58373E+03  7.08023E+03 -1.04284E+03  1.03410E+04 -8.08337E+03  7.25610E+03
