 $NMID ID='MM_0lb_SNR400_14hz_g55_15.RAW', FMTDAT='(8E13.5)'
 TRAMP=1., VOLUME=1. $END
  3.09489E+05 -2.67903E+02  3.37971E+05  2.50479E+05  8.47418E+04  3.37500E+05 -1.32975E+05  2.51531E+05
 -1.90549E+05  8.30885E+04 -1.12136E+05 -3.21698E+04  9.23818E+02 -5.06368E+04  5.35235E+04 -8.72630E+02
  3.50780E+04  5.31965E+04 -1.62112E+04  7.54672E+04 -6.12755E+04  6.38780E+04 -8.47560E+04  3.18396E+04
 -8.10860E+04 -1.13609E+04 -5.70702E+04 -5.19570E+04 -1.53237E+04 -6.99956E+04  2.77600E+04 -4.62639E+04
  4.08495E+04  3.80587E+03  1.60798E+04  4.81728E+04 -3.45682E+04  4.74664E+04 -6.67241E+04 -1.46599E+02
 -5.34353E+04 -5.66330E+04 -6.71839E+03 -7.76490E+04  3.38428E+04 -5.53168E+04  4.81094E+04 -1.77989E+04
  4.34891E+04  1.13413E+04  3.26079E+04  2.57012E+04  1.58812E+04  2.98032E+04 -5.67140E+03  2.71263E+04
 -2.23166E+04  1.16012E+04 -1.90762E+04 -4.99623E+03  5.25870E+03 -7.99075E+03  2.18955E+04  1.24153E+04
  6.90125E+03  3.54365E+04 -3.24512E+04  3.55323E+04 -6.44576E+04  1.76270E+03 -5.75626E+04 -4.28622E+04
 -1.19559E+04 -6.42602E+04  3.99978E+04 -4.58897E+04  5.96907E+04 -2.29804E+03  3.51404E+04  3.25923E+04
 -6.25880E+03  3.69892E+04 -3.00177E+04  1.70896E+04 -3.10366E+04 -3.79668E+03 -1.71059E+04 -1.05819E+04
 -8.57891E+03 -1.32604E+04 -8.46548E+02 -1.87705E+04  7.75554E+03 -2.34162E+04  1.55805E+04 -1.31219E+04
  1.13255E+04  5.46172E+03 -8.53899E+03  1.30480E+04 -2.12601E+04 -5.61160E+03 -8.71873E+03 -3.39021E+04
  2.33352E+04 -4.41638E+04  4.86067E+04 -1.94522E+04  4.58308E+04  2.00906E+04  1.58690E+04  4.50963E+04
 -1.62160E+04  3.43431E+04 -2.57129E+04  1.49854E+03 -1.04496E+04 -2.83567E+04  2.07152E+04 -3.48246E+04
  4.14619E+04 -9.58121E+03  3.62364E+04  2.43316E+04  1.84525E+04  4.69673E+04 -8.02063E+03  5.11162E+04
 -3.21671E+04  3.42728E+04 -4.27982E+04  1.02430E+04 -4.26466E+04 -1.74018E+04 -2.41444E+04 -3.84842E+04
  7.45882E+03 -3.89629E+04  3.22501E+04 -1.45297E+04  2.92228E+04  1.10199E+04  4.64669E+03  1.91515E+04
 -1.38141E+04  8.35554E+03 -1.06728E+04 -8.06338E+03  5.45422E+03 -1.06972E+04  1.77474E+04  5.74217E+03
  1.42668E+04  2.28525E+04 -6.20413E+03  2.49973E+04 -2.25163E+04  1.26466E+04 -2.83660E+04 -4.38863E+03
 -2.07995E+04 -1.70493E+04 -8.46442E+03 -2.20002E+04  4.44644E+03 -2.04499E+04  1.59374E+04 -1.85831E+04
  2.72815E+04 -1.31534E+04  3.36521E+04  3.31507E+03  2.37398E+04  2.06166E+04  5.28984E+03  3.69496E+04
 -1.83917E+04  3.05343E+04 -2.85985E+04  1.06271E+04 -2.11527E+04 -9.87693E+03 -4.28851E+03 -1.40897E+04
  1.83696E+03 -2.28166E+03 -5.94390E+03  6.71257E+03 -1.68457E+04  5.08899E+03 -1.67020E+04 -7.56194E+03
 -9.58069E+03 -1.94407E+04  5.87230E+03 -2.39679E+04  1.61171E+04 -1.70730E+04  1.84821E+04 -1.21595E+03
  1.18780E+04  1.36807E+04 -1.21791E+03  1.96323E+04 -1.38082E+04  1.07090E+04 -1.97573E+04 -4.39369E+03
 -1.42828E+04 -1.73887E+04 -1.73593E+03 -2.37257E+04  1.07722E+04 -1.93052E+04  1.90774E+04 -1.01398E+04
  1.82935E+04 -4.11032E+01  1.30659E+04  4.63412E+03  6.72814E+03  6.19036E+02  9.38565E+03 -1.97310E+03
  1.76620E+04  2.97774E+03  2.03382E+04  1.52272E+04  1.26083E+04  3.16050E+04 -2.85648E+03  3.54353E+04
 -2.09929E+04  2.83730E+04 -3.31525E+04  1.41713E+04 -3.53434E+04 -2.59143E+03 -2.86423E+04 -2.03134E+04
 -1.26541E+04 -2.92371E+04  1.00163E+04 -2.62273E+04  2.20981E+04 -1.29516E+04  1.99223E+04  5.70870E+03
  7.33083E+03  1.50616E+04 -9.77203E+03  1.20141E+04 -1.62019E+04  2.87673E+03 -1.29585E+04 -1.06108E+04
 -3.18010E+02 -1.64032E+04  8.35163E+03 -1.18435E+04  1.01508E+04 -1.15808E+03  2.73958E+03  6.70598E+03
 -7.11579E+03  1.96809E+03 -6.09337E+03 -5.15535E+03 -3.39488E+02 -1.41832E+04  9.83487E+03 -1.41205E+04
  1.71118E+04 -8.11352E+03  1.86900E+04  2.94133E+03  1.65667E+04  1.40105E+04  7.62353E+03  2.14359E+04
 -3.60971E+03  2.34972E+04 -1.48298E+04  1.46647E+04 -1.75443E+04  3.34093E+03 -1.16205E+04 -3.50401E+03
 -5.57836E+03 -5.15226E+03 -1.21817E+03  1.10689E+03 -2.40527E+03  2.77217E+03 -5.56878E+03  4.60680E+03
 -1.08136E+04 -8.00848E+02 -1.19079E+04 -9.59006E+03 -4.15799E+03 -1.53394E+04  5.42699E+03 -1.15118E+04
  9.91303E+03 -5.27718E+03  6.76963E+03  3.01344E+03 -2.79541E+02  4.24580E+03 -5.64169E+03 -1.20846E+02
 -5.21693E+03 -7.57380E+03 -1.02530E+03 -1.11208E+04  6.20932E+03 -1.17034E+04  1.44470E+04 -5.82671E+03
  1.73776E+04  2.09721E+03  1.22120E+04  9.81455E+03  2.37589E+03  1.34903E+04 -7.17349E+03  1.20448E+04
 -9.27134E+03  3.39240E+03 -5.04631E+03 -2.20545E+03  1.58421E+03 -2.88163E+03  6.11655E+03 -1.06593E+03
  5.46827E+03  4.73659E+03  1.75281E+03  9.06286E+03 -6.75027E+03  9.18381E+03 -1.12223E+04  2.62246E+03
 -7.39150E+03 -5.39279E+03  3.63813E+02 -9.95582E+03  5.93180E+03 -4.10409E+03  6.32682E+03  2.26951E+03
  2.18676E+03  5.77420E+03 -6.04170E+03  8.25583E+03 -8.80977E+03  3.25098E+03 -8.31804E+03 -2.73476E+03
 -5.38991E+03 -1.06512E+04  2.92783E+03 -1.19801E+04  1.07464E+04 -7.35219E+03  1.11666E+04  1.66544E+03
  6.61563E+03  9.09747E+03 -9.41093E+02  1.04817E+04 -7.68353E+03  6.10529E+03 -8.57984E+03 -6.55925E+02
 -8.00974E+03 -7.26389E+03 -1.81625E+03 -8.26263E+03  4.10677E+03 -6.49393E+03  4.60734E+03 -3.38278E+03
  3.71452E+03  9.95857E+02 -7.34969E+02  1.61134E+03  2.59787E+02 -1.46810E+03  7.84449E+02 -4.43197E+03
  6.29071E+03 -2.38397E+03  9.21719E+03  1.17412E+03  1.05926E+04  6.84599E+03  6.83438E+03  1.26864E+04
 -3.19436E+03  1.44492E+04 -1.26533E+04  1.12062E+04 -1.67622E+04  2.93969E+03 -1.32596E+04 -5.09352E+03
 -5.80688E+03 -1.06689E+04 -1.33189E+02 -9.06210E+03  3.75853E+03 -4.33950E+03  3.15495E+03 -3.11144E+03
  2.09290E+03 -2.02990E+03  3.17139E+03 -3.54411E+03  4.73993E+03 -2.04201E+03  4.89617E+03 -7.55583E+02
  7.17695E+03  1.60990E+03  2.84907E+03  6.34858E+03 -2.31561E+03  6.77653E+03 -6.67725E+03  4.62766E+03
 -9.21852E+03 -9.48183E+02 -5.13654E+03 -6.05475E+03 -2.16540E+02 -8.82320E+03  5.09022E+03 -9.89175E+03
  9.59615E+03 -5.43476E+03  1.16523E+04  1.60733E+03  8.35672E+03  7.85092E+03  1.60961E+03  1.10801E+04
 -4.15787E+03  9.00990E+03 -6.62489E+03  3.00711E+03 -3.96319E+03 -1.48201E+03 -1.53286E+03 -1.17704E+03
 -7.61384E+02  2.23803E+02 -9.35551E+02  2.60722E+03 -3.82145E+03  1.59820E+03 -6.30484E+03 -8.55597E+02
 -3.62122E+03 -6.48185E+03  4.12370E+01 -8.51005E+03  5.20480E+03 -7.89462E+03  8.33898E+03 -1.80195E+03
  8.06564E+03  4.57045E+03  3.08289E+03  7.27251E+03 -1.32650E+03  8.53082E+03 -4.70605E+03  5.22915E+03
 -7.77290E+03  5.57028E+02 -5.75133E+03 -4.93343E+03 -8.69754E+02 -6.59697E+03  3.56775E+03 -5.22202E+03
  6.04838E+03 -2.21677E+03  3.80864E+03  8.71990E+02  9.36220E+02  2.87043E+03  1.03901E+03  1.18186E+03
  1.96102E+03  1.32532E+03  2.30543E+03  1.41375E+03  2.80261E+03  4.31257E+03  2.17499E+03  4.26804E+03
 -1.76076E+03  6.76326E+03 -5.24954E+03  7.05374E+03 -7.78958E+03  1.37821E+03 -8.49485E+03 -2.58615E+03
 -4.51567E+03 -7.93151E+03  8.62020E+02 -8.29556E+03  4.28205E+03 -5.70913E+03  5.91213E+03 -2.04648E+03
  5.33332E+03  2.92037E+03  1.24886E+03  4.02247E+03 -1.53519E+03  2.73965E+03 -3.19719E+03 -4.22990E+01
 -1.73328E+03 -3.65055E+03  1.49721E+03 -2.97651E+03  2.89851E+03 -2.38693E+03  2.75419E+03  8.94011E+02
  1.37365E+03  7.81104E+02  1.03400E+03  4.69190E+02 -3.82490E+02  1.33404E+03  1.49426E+03 -4.90956E+02
  1.27039E+03 -2.54241E+01  3.43453E+03  1.61924E+03  1.82357E+03  3.76827E+03 -7.92548E+02  5.56893E+03
 -4.03136E+03  3.17370E+03 -4.85034E+03  1.11303E+03 -4.51162E+03 -2.32968E+03 -1.17265E+03 -2.89347E+03
  7.16685E+02 -2.81453E+03  1.36376E+03 -1.54202E+03  1.44046E+03  1.38144E+03 -1.36312E+03  2.64663E+03
 -2.90639E+03  1.01775E+03 -2.79513E+03 -1.89197E+03 -1.68062E+03 -4.19894E+03  1.14793E+03 -4.23427E+03
  3.20903E+03 -2.45531E+03  2.83182E+03 -1.34542E+02  3.28049E+03  6.23033E+02  7.40266E+02  2.04322E+03
 -6.66174E+02  5.40605E+02 -1.37317E+03 -8.84346E+02  9.95059E+02 -3.34665E+03  4.46864E+03 -2.47067E+03
  4.39367E+03  4.72131E+02  4.49712E+03  2.77933E+03  1.44035E+03  4.51049E+03 -1.20880E+03  4.09420E+03
 -3.96640E+03  1.20580E+03 -3.84137E+03 -7.24384E+02 -1.94538E+03 -3.03958E+03  4.25969E+02 -2.66933E+03
  2.65197E+03 -1.61343E+03  2.38037E+03  1.95742E+03  2.42167E+02  2.73753E+03 -1.05898E+03  2.49520E+03
 -1.31178E+03  1.99477E+03 -3.00168E+02  5.52679E+02 -2.26469E+02  6.81630E+02 -9.77100E+02  8.37135E+02
 -7.47436E+02  2.39148E+03 -4.06827E+03  1.82401E+03 -4.30309E+03  4.32282E+02 -5.02851E+03 -3.12374E+03
 -2.60178E+03 -5.29450E+03  1.43959E+03 -6.88098E+03  3.90224E+03 -4.96717E+03  5.51771E+03 -1.96410E+03
  6.32754E+03  2.09457E+02  3.34909E+03  3.60743E+03 -3.47408E+02  4.19911E+03 -2.30267E+03  3.25800E+03
 -2.11185E+03  1.31819E+03 -7.98421E+02 -9.70327E+02 -1.04404E+03  3.28990E+02 -1.10219E+03 -3.08694E+02
 -1.13359E+03 -3.35881E+02 -1.07229E+03 -7.55975E+02  4.35977E+02 -1.52426E+03 -2.66262E+02 -1.65309E+03
  1.86813E+03 -1.43713E+03  2.16793E+03  1.64155E+02  3.32702E+03  2.10040E+03  2.15841E+02  4.20459E+03
 -2.36806E+03  4.60428E+03 -4.21087E+03  2.68166E+03 -5.29597E+03 -1.00618E+02 -3.46049E+03 -2.95097E+03
 -1.87291E+03 -3.78779E+03  1.43467E+03 -3.40519E+03  2.05715E+03 -1.89168E+03  2.71119E+03 -1.66651E+02
  1.94757E+03  6.98117E+02 -4.56030E+02  4.96786E+02 -8.73442E+02 -4.90929E+02  7.72599E+02 -1.83162E+02
  7.74499E+02 -6.96994E+02  1.57511E+03  3.71429E+02  1.37781E+03  1.95024E+03  5.58804E+01  1.60547E+03
 -1.18079E+03  1.90899E+03 -1.99867E+03  3.38117E+02 -2.62421E+03 -1.82716E+03 -4.47715E+02 -3.44449E+03
  1.87398E+03 -1.93954E+03  2.78847E+03 -3.05291E+02  3.31416E+03 -2.71128E+01  1.70737E+03  2.53900E+03
  4.37622E+02  2.36119E+03 -7.34499E+02  1.80606E+03 -2.00342E+03  1.59396E+03 -1.60613E+03  8.35840E+01
 -9.14280E+02  1.82575E+02 -1.23546E+03  5.84712E+02 -1.28311E+03  4.10046E+01 -2.18148E+03 -8.41834E+02
 -2.38751E+03 -7.48088E+02 -1.60290E+02 -2.20131E+03  1.72678E+03 -2.89369E+03  2.03914E+03 -1.62648E+03
  2.42970E+03 -4.07244E+02  1.11970E+03  9.85822E+02 -1.15376E+02  2.65009E+03 -2.01425E+03  1.31901E+03
