 $NMID ID='MM_0lb_SNR400_18hz_g50_24.RAW', FMTDAT='(8E13.5)'
 TRAMP=1., VOLUME=1. $END
  3.09630E+05 -2.84264E+02  3.37290E+05  2.50315E+05  8.47404E+04  3.37275E+05 -1.32375E+05  2.50986E+05
 -1.89927E+05  8.22399E+04 -1.11239E+05 -3.24248E+04  1.16029E+03 -5.05177E+04  5.37969E+04 -1.02380E+02
  3.50321E+04  5.30135E+04 -1.63656E+04  7.48868E+04 -6.07956E+04  6.32142E+04 -8.25994E+04  3.15431E+04
 -8.06816E+04 -1.16148E+04 -5.65662E+04 -5.04061E+04 -1.47700E+04 -6.82360E+04  2.70049E+04 -4.49077E+04
  3.93373E+04  3.68520E+03  1.58375E+04  4.75090E+04 -3.43101E+04  4.54763E+04 -6.58174E+04  8.32657E+01
 -5.20787E+04 -5.56204E+04 -6.06113E+03 -7.58683E+04  3.30555E+04 -5.36086E+04  4.65623E+04 -1.65434E+04
  4.20410E+04  1.12916E+04  3.12671E+04  2.42523E+04  1.58665E+04  2.84322E+04 -5.07278E+03  2.65600E+04
 -2.17894E+04  1.26339E+04 -1.90607E+04 -4.12435E+03  4.50239E+03 -7.75697E+03  2.12397E+04  1.12242E+04
  7.09232E+03  3.46361E+04 -3.08163E+04  3.39310E+04 -6.17915E+04  2.14741E+03 -5.57944E+04 -4.09135E+04
 -1.24710E+04 -6.12557E+04  3.86130E+04 -4.42195E+04  5.56635E+04 -2.04328E+03  3.30128E+04  3.10094E+04
 -6.40498E+03  3.36568E+04 -2.88844E+04  1.32506E+04 -2.82822E+04 -5.27347E+03 -1.48910E+04 -9.82957E+03
 -7.47994E+03 -1.11703E+04 -1.12149E+03 -1.70439E+04  6.57678E+03 -2.25099E+04  1.51186E+04 -1.38281E+04
  1.22292E+04  4.45503E+03 -6.45713E+03  1.28176E+04 -1.94021E+04 -3.04552E+03 -8.00363E+03 -3.08133E+04
  2.14965E+04 -4.16418E+04  4.54220E+04 -1.87523E+04  4.27002E+04  1.82712E+04  1.46407E+04  4.24381E+04
 -1.59330E+04  3.15731E+04 -2.34992E+04  1.40562E+03 -8.62244E+03 -2.67654E+04  2.00529E+04 -3.21449E+04
  3.90702E+04 -7.96339E+03  3.20681E+04  2.29892E+04  1.56920E+04  4.36974E+04 -8.00384E+03  4.59246E+04
 -2.95480E+04  3.01813E+04 -3.78848E+04  8.60108E+03 -3.94728E+04 -1.53433E+04 -2.20794E+04 -3.53158E+04
  7.32217E+03 -3.45277E+04  2.99401E+04 -1.30784E+04  2.70655E+04  1.07728E+04  3.05478E+03  1.79907E+04
 -1.31523E+04  6.87758E+03 -9.57888E+03 -7.48139E+03  6.02641E+03 -9.46499E+03  1.77107E+04  6.26279E+03
  1.32260E+04  2.15494E+04 -6.57552E+03  2.38699E+04 -2.18802E+04  9.98721E+03 -2.56865E+04 -5.44279E+03
 -1.72907E+04 -1.68842E+04 -5.79711E+03 -1.79364E+04  4.21902E+03 -1.51403E+04  1.33149E+04 -1.56521E+04
  2.24718E+04 -1.20449E+04  2.88961E+04  1.27509E+03  2.15670E+04  1.71201E+04  4.06487E+03  3.28376E+04
 -1.58522E+04  2.83088E+04 -2.60912E+04  9.92503E+03 -1.99645E+04 -1.05818E+04 -4.13581E+03 -1.35751E+04
  2.57356E+03 -4.40303E+03 -2.84460E+03  5.48794E+03 -1.32816E+04  5.12301E+03 -1.37746E+04 -5.65416E+03
 -8.89084E+03 -1.59875E+04  4.20378E+03 -2.02276E+04  1.34256E+04 -1.44815E+04  1.59469E+04 -1.64327E+03
  9.54859E+03  1.10922E+04 -2.17431E+02  1.68705E+04 -1.11282E+04  9.55811E+03 -1.62484E+04 -3.70665E+03
 -1.18915E+04 -1.54664E+04 -1.45549E+03 -1.96862E+04  9.07938E+03 -1.58695E+04  1.62647E+04 -8.02546E+03
  1.51704E+04  5.95870E+02  1.10916E+04  4.47534E+03  5.34176E+03  9.19629E+01  7.89703E+03 -7.65873E+02
  1.49250E+04  2.60309E+03  1.58718E+04  1.34776E+04  1.01817E+04  2.54529E+04 -3.35014E+03  2.73635E+04
 -1.61478E+04  2.15821E+04 -2.52639E+04  1.01904E+04 -2.66349E+04 -1.59983E+03 -2.24928E+04 -1.52561E+04
 -9.93955E+03 -2.15379E+04  7.48519E+03 -2.01292E+04  1.73168E+04 -1.12643E+04  1.61499E+04  4.15077E+03
  6.43855E+03  1.20290E+04 -7.80608E+03  1.03345E+04 -1.36382E+04  2.48417E+03 -1.12459E+04 -7.81332E+03
 -4.18205E+02 -1.32036E+04  6.41477E+03 -1.02707E+04  8.75642E+03 -8.90204E+02  1.69753E+03  5.96063E+03
 -5.13963E+03  1.28403E+03 -3.80399E+03 -4.75149E+03  1.89093E+01 -1.03818E+04  8.77448E+03 -1.10108E+04
  1.28948E+04 -4.99343E+03  1.27304E+04  2.32739E+03  1.11430E+04  9.85406E+03  5.41063E+03  1.50227E+04
 -1.82212E+03  1.70939E+04 -1.11931E+04  1.11854E+04 -1.21595E+04  3.23512E+03 -8.69720E+03 -2.06896E+03
 -4.65732E+03 -3.54771E+03 -1.05587E+03  1.39299E+03 -2.42337E+03  2.35572E+03 -4.20549E+03  3.29648E+03
 -7.76840E+03 -9.37225E+02 -9.10615E+03 -7.59649E+03 -3.82111E+03 -1.15976E+04  3.94528E+03 -8.50858E+03
  7.27581E+03 -3.80184E+03  5.29323E+03  2.25050E+03  1.01311E+03  3.29135E+03 -3.51468E+03 -3.64487E+01
 -3.72003E+03 -4.92783E+03 -1.16073E+03 -8.00765E+03  4.71203E+03 -7.95190E+03  1.01841E+04 -4.25153E+03
  1.23776E+04  7.98815E+02  9.07578E+03  6.45325E+03  1.84555E+03  1.00969E+04 -5.51516E+03  9.17408E+03
 -7.27237E+03  3.23664E+03 -3.58053E+03 -1.02723E+03  1.41776E+03 -2.12848E+03  5.45975E+03 -1.16796E+03
  4.15928E+03  3.89196E+03  1.00448E+03  6.86193E+03 -4.76224E+03  7.09024E+03 -8.16134E+03  2.04853E+03
 -5.53898E+03 -3.93006E+03  2.18394E+02 -7.35728E+03  4.34372E+03 -3.81829E+03  3.72254E+03  1.38235E+03
  9.32798E+02  3.81679E+03 -4.49105E+03  5.05785E+03 -5.16565E+03  2.34779E+03 -4.79824E+03 -1.32478E+03
 -2.76377E+03 -6.11736E+03  1.58594E+03 -7.59868E+03  6.49870E+03 -4.82930E+03  6.47751E+03  7.13470E+02
  4.39651E+03  5.93537E+03  3.24471E+02  7.40876E+03 -5.19895E+03  4.35701E+03 -5.57680E+03  5.98172E+01
 -6.66370E+03 -5.12987E+03 -1.16852E+03 -5.41848E+03  3.61288E+03 -4.69532E+03  2.89476E+03 -3.29524E+03
  3.23699E+03  2.59209E+02  1.62025E+01  8.61031E+02  4.99964E+02 -1.25135E+02  4.79692E+02 -2.01082E+03
  4.33204E+03 -9.79561E+02  5.57972E+03  8.14210E+02  5.75470E+03  3.58876E+03  5.24985E+03  7.71393E+03
 -1.75275E+03  9.56690E+03 -8.11898E+03  6.34067E+03 -1.03240E+04  9.46076E+02 -8.26992E+03 -2.51447E+03
 -4.57477E+03 -7.34794E+03 -6.03807E+02 -5.46027E+03  2.00455E+03 -2.70365E+03  1.55581E+03 -2.33213E+03
  1.33927E+03 -1.51847E+03  2.11319E+03 -2.05477E+03  3.10121E+03 -1.61899E+03  4.08070E+03  4.01179E+02
  4.71653E+03  2.19463E+03  1.39067E+03  3.18214E+03 -1.49816E+03  3.35483E+03 -4.49597E+03  3.00127E+03
 -5.42916E+03 -7.65400E+02 -2.76008E+03 -3.72873E+03  1.66752E+02 -5.66484E+03  3.42964E+03 -5.52030E+03
  5.83496E+03 -2.95124E+03  7.02522E+03  8.18204E+02  5.17479E+03  4.47225E+03  5.83677E+02  6.38391E+03
 -1.70910E+03  6.43410E+03 -3.54635E+03  2.03100E+03 -1.98421E+03 -9.46980E+02 -7.79984E+02 -2.72173E+02
 -5.20128E+02  5.62293E+02 -7.34383E+02  2.53262E+03 -2.43990E+03  1.13581E+03 -4.46761E+03 -4.79628E+02
 -2.15798E+03 -3.95623E+03  4.01718E+02 -4.88321E+03  3.11246E+03 -4.41073E+03  4.14362E+03 -9.63803E+02
  4.80693E+03  2.54833E+03  1.69357E+03  3.42737E+03 -1.48795E+03  4.22278E+03 -2.72302E+03  2.75961E+03
 -3.85560E+03  3.39881E+01 -2.92193E+03 -3.15387E+03 -2.00379E+02 -3.38962E+03  1.82358E+03 -2.50338E+03
  3.31862E+03 -1.49632E+03  1.86958E+03  6.13778E+02  5.39825E+02  1.75490E+03  1.67646E+03  1.37356E+01
  1.82406E+03  5.04711E+02  1.49995E+03  1.19890E+03  1.21163E+03  1.37835E+03  1.51037E+03  1.92072E+03
 -1.07637E+03  2.83631E+03 -3.09211E+03  4.09209E+03 -3.38151E+03  1.34232E+03 -4.28656E+03 -4.88120E+02
 -1.77980E+03 -3.87636E+03  5.31558E+02 -5.12428E+03  2.15340E+03 -2.84363E+03  3.33236E+03 -9.52419E+02
  2.48768E+03  2.00013E+03  4.52138E+02  2.28604E+03 -8.50443E+02  1.02330E+03 -1.14690E+03 -2.77128E+02
 -7.91131E+02 -1.60005E+03  1.45322E+03 -1.43536E+03  1.29528E+03 -7.69179E+02  1.56690E+03 -3.11421E+01
  8.31947E+02  2.13208E+02  9.99545E+02 -1.52755E+01 -4.48018E+01  8.02131E+02  2.09695E+03 -3.90110E+02
  3.92899E+00 -1.53883E+02  2.03679E+03  9.00407E+02  3.69027E+02  2.92284E+03  4.69560E+01  3.22147E+03
 -2.23819E+03  1.80427E+03 -2.55057E+03  6.85640E+02 -2.30492E+03 -5.81114E+02 -3.32999E+01 -1.37038E+03
 -5.50357E+02 -1.80191E+03  8.71326E+02 -1.06070E+03  4.46573E+02  1.45035E+03 -8.85771E+02  1.52703E+03
 -1.25425E+03  1.19640E+03 -1.62110E+03 -1.67998E+03 -1.02759E+03 -2.97582E+03  1.56941E+02 -1.91733E+03
  2.92151E+02 -3.99806E+02  1.26625E+03  8.02445E+01  1.36326E+03 -1.66870E+02  7.99680E-01  9.79974E+02
 -3.68739E+02  7.10572E+02 -1.21447E+03 -8.86376E+02  4.37127E+02 -1.07605E+03  1.98724E+03 -9.76361E+02
  1.22977E+03  6.69730E+02  2.44178E+03  7.15056E+02  1.09033E+03  1.34384E+03 -8.16799E+02  1.61896E+03
 -1.53217E+03  2.44732E+02 -1.57254E+03  1.03022E+02 -1.09655E+03 -1.95602E+03  8.81905E+02 -6.80928E+02
  1.69047E+03 -9.20582E+02  9.79012E+02  3.76665E+02  8.56244E+02  1.88404E+03 -7.96967E+01  1.14652E+03
 -3.83411E+02  1.34873E+03 -1.10324E+03  1.30031E+02 -2.40644E+02  3.58245E+02 -8.53418E+02  1.01560E+03
 -8.39237E+02  1.26625E+03 -1.73978E+03  4.49647E+02 -2.05251E+03  1.03532E+02 -2.38370E+03 -1.01868E+03
 -6.73633E+02 -1.95538E+03  4.67336E+02 -3.24724E+03  1.81869E+03 -2.32100E+03  2.56118E+03 -7.25772E+02
  2.72803E+03 -5.78442E+01  1.40338E+03  1.05351E+03 -5.73264E+02  1.02581E+03 -5.06893E+02  1.06965E+03
 -1.46842E+03  5.51458E+02 -3.20923E+02 -3.45469E+02 -3.27550E+02  6.05742E+02 -4.66312E+02  3.66733E+02
 -8.68238E+02  1.81057E+02 -1.02181E+03  6.40964E+02  3.42058E+02 -7.48594E+02 -5.07430E+02 -8.99827E+02
  1.53448E+03 -7.05504E+02  2.52699E+02 -2.38821E+02  1.26923E+03  1.08330E+03 -3.97476E+02  1.62370E+03
 -1.03387E+03  2.47154E+03 -1.97011E+03  1.21421E+03 -2.01653E+03 -2.81156E+02 -1.46907E+03 -1.11102E+03
 -3.78806E+02 -1.26518E+03  3.47196E+02 -1.32422E+03  6.63294E+02 -6.07147E+02  9.31364E+02 -1.30062E+02
  7.04789E+02  5.12370E+02  3.10716E+02  5.11023E+02 -1.58999E+02  8.57230E+02  1.04942E+02 -3.73152E+02
  6.47600E+02  1.29796E+02  6.35666E+02 -2.24963E+02 -5.08234E+02  1.64532E+01  2.89129E+02  3.94815E+02
 -3.91856E+02  3.23822E+02 -4.73259E+02 -3.93743E+01 -4.28901E+02 -4.46834E+02  3.93353E+01 -5.86649E+02
  5.99581E+02 -5.30234E+02  8.82598E+02  2.16096E+02  8.92709E+02 -6.45655E+02  4.94130E+02  1.08384E+03
  1.29196E+02  6.01505E+02 -8.30837E+02  5.77934E+02 -6.84347E+02  9.10944E+02 -4.86608E+02  5.02095E+02
 -2.45815E+02  6.00911E+01 -2.98062E+02  1.49191E+02 -8.47795E+02 -2.11892E+01 -6.17910E+02 -4.36621E+02
 -1.45043E+03  3.70465E+02 -6.12185E+01 -1.02158E+03  3.46523E+02 -1.30462E+03  6.20219E+02 -5.01836E+02
  4.35528E+02 -2.73760E+01  1.10534E+02  1.30105E+02 -1.50306E+02  1.13490E+03 -6.12757E+02  5.65537E+02
