 $NMID ID='MM_0lb_SNR400_18hz_g55_46.RAW', FMTDAT='(8E13.5)'
 TRAMP=1., VOLUME=1. $END
  3.09419E+05  3.53437E+02  3.37286E+05  2.50440E+05  8.41674E+04  3.37238E+05 -1.32403E+05  2.50293E+05
 -1.89329E+05  8.29337E+04 -1.11017E+05 -3.27544E+04  8.86311E+02 -5.04775E+04  5.36528E+04  9.51594E+01
  3.53471E+04  5.26870E+04 -1.65922E+04  7.54169E+04 -6.06038E+04  6.31215E+04 -8.37400E+04  3.19106E+04
 -8.03104E+04 -1.11636E+04 -5.68295E+04 -5.02929E+04 -1.51263E+04 -6.90627E+04  2.66552E+04 -4.53742E+04
  3.89833E+04  3.59014E+03  1.57949E+04  4.78926E+04 -3.41714E+04  4.71029E+04 -6.65953E+04 -8.66063E+02
 -5.28357E+04 -5.62798E+04 -6.19425E+03 -7.62114E+04  3.33658E+04 -5.38154E+04  4.71538E+04 -1.68461E+04
  4.28983E+04  1.08874E+04  3.16554E+04  2.48926E+04  1.55540E+04  2.89326E+04 -5.03067E+03  2.70103E+04
 -2.22070E+04  1.22748E+04 -1.91307E+04 -4.35826E+03  5.36884E+03 -8.22647E+03  2.15159E+04  1.13305E+04
  7.11913E+03  3.39730E+04 -3.12902E+04  3.45616E+04 -6.21563E+04  2.01607E+03 -5.61630E+04 -4.19161E+04
 -1.24528E+04 -6.16149E+04  3.87038E+04 -4.42098E+04  5.64006E+04 -2.37010E+03  3.26388E+04  3.11206E+04
 -6.58389E+03  3.43584E+04 -2.90738E+04  1.41568E+04 -2.91408E+04 -4.48669E+03 -1.50897E+04 -1.04266E+04
 -7.78150E+03 -1.26900E+04 -8.75389E+02 -1.71617E+04  7.05407E+03 -2.28334E+04  1.47778E+04 -1.41173E+04
  1.12519E+04  4.67060E+03 -7.22906E+03  1.29978E+04 -2.00826E+04 -3.14142E+03 -8.04451E+03 -3.22714E+04
  2.14231E+04 -4.14049E+04  4.60277E+04 -1.88575E+04  4.35350E+04  1.90698E+04  1.42788E+04  4.25980E+04
 -1.54603E+04  3.28357E+04 -2.42083E+04  1.05767E+03 -8.74860E+03 -2.66025E+04  2.04549E+04 -3.21631E+04
  3.90940E+04 -7.63822E+03  3.33873E+04  2.35511E+04  1.66898E+04  4.41849E+04 -7.98475E+03  4.76239E+04
 -2.97769E+04  3.16766E+04 -3.87253E+04  9.17851E+03 -3.99843E+04 -1.50118E+04 -2.20756E+04 -3.59435E+04
  7.57144E+03 -3.57908E+04  2.94692E+04 -1.35315E+04  2.75701E+04  1.11974E+04  3.27338E+03  1.83467E+04
 -1.26145E+04  7.64023E+03 -9.75899E+03 -7.24894E+03  5.47139E+03 -1.02273E+04  1.76238E+04  6.37785E+03
  1.27990E+04  2.21961E+04 -6.44608E+03  2.36178E+04 -2.15798E+04  1.02077E+04 -2.66698E+04 -5.46491E+03
 -1.78716E+04 -1.67923E+04 -6.31279E+03 -1.77438E+04  4.00990E+03 -1.65881E+04  1.37430E+04 -1.60690E+04
  2.32775E+04 -1.20537E+04  2.94872E+04  1.27746E+03  2.18515E+04  1.74000E+04  4.13736E+03  3.43127E+04
 -1.63517E+04  2.85889E+04 -2.67421E+04  9.66268E+03 -1.97464E+04 -1.01577E+04 -4.06272E+03 -1.40666E+04
  2.33212E+03 -3.58333E+03 -3.44607E+03  6.40715E+03 -1.45623E+04  4.85781E+03 -1.47209E+04 -5.73486E+03
 -8.86100E+03 -1.66397E+04  4.76446E+03 -2.09502E+04  1.34496E+04 -1.48066E+04  1.61744E+04 -1.94841E+03
  9.85657E+03  1.16375E+04 -1.24577E+03  1.67943E+04 -1.10039E+04  8.55186E+03 -1.61424E+04 -3.41794E+03
 -1.23613E+04 -1.50573E+04 -1.26959E+03 -2.00388E+04  9.04759E+03 -1.59553E+04  1.78062E+04 -7.91084E+03
  1.47995E+04  5.62991E+02  1.06198E+04  4.33891E+03  6.10119E+03  9.33553E+02  8.29958E+03 -1.53115E+03
  1.45566E+04  2.71425E+03  1.65534E+04  1.30266E+04  1.00994E+04  2.61794E+04 -3.01381E+03  2.87346E+04
 -1.73353E+04  2.23208E+04 -2.63013E+04  1.05034E+04 -2.74887E+04 -1.84848E+03 -2.38350E+04 -1.56514E+04
 -1.06381E+04 -2.24454E+04  6.82262E+03 -2.07252E+04  1.84714E+04 -1.11720E+04  1.66416E+04  3.75971E+03
  6.92293E+03  1.21620E+04 -7.48572E+03  1.07125E+04 -1.45284E+04  2.98680E+03 -1.10391E+04 -8.86595E+03
 -3.86409E+02 -1.31403E+04  6.77300E+03 -1.01540E+04  8.34705E+03 -1.70018E+03  1.56270E+03  5.28723E+03
 -5.93828E+03  2.07928E+03 -4.34403E+03 -5.33259E+03  4.91626E+01 -1.16195E+04  8.00363E+03 -1.16247E+04
  1.38393E+04 -4.64972E+03  1.37019E+04  2.16215E+03  1.20244E+04  1.01369E+04  5.64819E+03  1.56123E+04
 -2.63196E+03  1.73453E+04 -1.11979E+04  1.13831E+04 -1.27718E+04  2.85007E+03 -8.74845E+03 -2.57266E+03
 -4.65761E+03 -4.02660E+03 -4.43652E+02  1.63106E+03 -1.76736E+03  2.17600E+03 -3.79596E+03  3.87388E+03
 -8.44850E+03 -5.96748E+02 -9.79107E+03 -7.53780E+03 -4.26701E+03 -1.23939E+04  3.49629E+03 -9.22494E+03
  7.48728E+03 -3.94122E+03  5.65038E+03  2.19509E+03  8.33134E+02  3.40530E+03 -3.97080E+03 -8.85841E+01
 -3.87515E+03 -6.04383E+03 -3.63944E+02 -8.07507E+03  4.27312E+03 -8.96111E+03  1.10069E+04 -4.72105E+03
  1.26404E+04  5.77591E+02  9.06976E+03  6.31389E+03  1.69443E+03  9.16313E+03 -5.66499E+03  9.02250E+03
 -7.33958E+03  3.23903E+03 -3.42082E+03 -1.77697E+03  1.40917E+03 -2.72356E+03  5.37629E+03 -1.06430E+03
  4.83541E+03  3.23849E+03  1.36767E+03  7.12793E+03 -4.73694E+03  7.37055E+03 -7.85871E+03  2.07965E+03
 -6.00252E+03 -3.52153E+03  5.15830E+02 -6.49059E+03  3.76757E+03 -3.62232E+03  3.92879E+03  1.02849E+03
  6.09926E+02  3.96654E+03 -4.35299E+03  5.21915E+03 -5.72272E+03  2.46062E+03 -5.80253E+03 -2.04836E+03
 -3.16879E+03 -6.46919E+03  1.05519E+03 -8.30609E+03  6.96122E+03 -5.07867E+03  7.00427E+03  1.56228E+03
  4.74590E+03  5.58878E+03 -7.34613E+01  7.66268E+03 -5.13875E+03  4.56046E+03 -6.19955E+03 -7.23047E+02
 -6.22485E+03 -5.60344E+03 -1.67270E+03 -5.18021E+03  3.26198E+03 -5.13308E+03  3.09457E+03 -2.47056E+03
  3.78330E+03 -1.45079E+02  8.92459E+01  1.32139E+03  2.47929E+02 -1.50843E+02  2.87046E+02 -2.35714E+03
  4.55987E+03 -7.46470E+02  5.87455E+03  2.93518E+02  6.28200E+03  3.68022E+03  5.65876E+03  7.80771E+03
 -1.22292E+03  9.52525E+03 -8.75003E+03  6.34627E+03 -1.10474E+04  7.98768E+02 -8.28152E+03 -2.92753E+03
 -4.55147E+03 -7.26604E+03 -9.30975E+02 -5.33707E+03  2.28728E+03 -2.39883E+03  1.76663E+03 -2.49018E+03
  1.00721E+03 -1.59692E+03  2.05044E+03 -3.10074E+03  3.83370E+03 -1.95806E+03  3.94170E+03  6.46575E+02
  4.63169E+03  1.31297E+03  1.53826E+03  3.71187E+03 -1.46072E+03  3.59186E+03 -4.87074E+03  3.20038E+03
 -5.58133E+03 -1.31641E+03 -2.49446E+03 -3.76158E+03  6.06259E+02 -5.88842E+03  3.40634E+03 -6.39879E+03
  5.55938E+03 -3.42759E+03  7.31519E+03  3.38126E+02  5.62633E+03  4.90760E+03  1.53238E+03  6.17311E+03
 -3.25459E+03  6.40296E+03 -3.54959E+03  2.01474E+03 -2.41733E+03 -1.26056E+03 -6.29795E+02 -8.00874E+02
 -3.75786E+02  5.21173E+02 -1.41892E+03  2.08786E+03 -3.16577E+03  1.69366E+03 -4.52130E+03 -3.01321E+02
 -1.72489E+03 -4.77402E+03  5.90308E+02 -5.10503E+03  3.07064E+03 -4.72745E+03  3.53626E+03 -1.28014E+03
  4.22931E+03  2.75945E+03  1.82065E+03  4.21499E+03 -1.36921E+03  5.24522E+03 -3.27614E+03  2.86856E+03
 -4.70384E+03  5.38206E+00 -3.73513E+03 -2.90783E+03 -7.64700E+02 -3.66853E+03  2.11887E+03 -2.98289E+03
  2.56590E+03 -5.36231E+02  1.85257E+03  3.13216E+02  5.97798E+02  1.59739E+03  7.92161E+02  3.14144E+02
  1.99918E+03  2.85199E+02  1.65732E+03  8.28028E+02  8.70540E+02  2.29831E+03  1.44203E+03  2.60600E+03
 -1.41225E+03  3.66514E+03 -3.33477E+03  4.73121E+03 -3.54388E+03  1.03821E+03 -5.45999E+03 -4.29210E+02
 -1.70753E+03 -4.41674E+03  9.62052E+02 -5.40780E+03  2.21829E+03 -2.44015E+03  3.34737E+03 -6.64771E+02
  2.76886E+03  2.30372E+03  3.57438E+02  2.40653E+03 -6.86747E+02  1.58637E+03 -1.33535E+03 -1.52453E+02
 -6.37927E+02 -1.41745E+03  1.25932E+03 -2.23674E+03  1.68719E+03 -1.40739E+03  1.23145E+03  9.64257E+02
  1.20116E+03  1.85454E+02  2.23555E+02  2.71094E+02 -4.98646E+02  4.35325E+02  1.34011E+03 -4.95283E+02
  4.11691E+02 -1.96255E+02  1.52449E+03  3.38810E+02  1.82777E+02  2.74492E+03  2.41402E+02  3.31087E+03
 -1.83490E+03  1.46284E+03 -2.41988E+03  5.79704E+02 -2.77947E+03 -1.39559E+03 -4.89977E+02 -7.93289E+02
  4.40208E+02 -8.24079E+02  1.40730E+03 -6.74648E+02  2.22974E+02  9.37639E+02 -5.19594E+02  1.10749E+03
 -1.43761E+03  7.21231E+02 -1.21967E+03 -7.90589E+02 -5.37428E+02 -2.76430E+03  4.70712E+02 -1.63525E+03
  5.33766E+02 -1.10721E+03  8.94205E+02 -1.67482E+02  1.58472E+03  2.95273E+02  9.38835E+01  1.29640E+03
 -6.08373E+02  6.18603E+01 -6.30722E+02  2.00173E+02  6.56971E+02 -1.01043E+03  2.29442E+03 -1.35613E+03
  1.33597E+03  1.93938E+02  2.82859E+03  1.24128E+03  1.55707E+03  1.89914E+03 -6.29484E+02  1.71129E+03
 -1.54462E+03  5.89638E+02 -2.06353E+03 -7.67729E+02 -7.06750E+02 -1.37653E+03  5.18937E+02 -7.12802E+02
  1.49987E+03 -6.56088E+02  8.87950E+02  6.88966E+02  3.68656E+02  1.09080E+03  1.24146E+01  1.38609E+03
 -3.64172E+02  9.63282E+02 -1.51074E+02  1.37745E+02 -5.75782E+01 -2.84355E+01 -4.57072E+02  3.76470E+02
 -6.52439E+02  1.70565E+03 -1.73840E+03  6.54696E+02 -1.85849E+03 -1.75107E+02 -2.02520E+03 -8.28569E+02
 -7.04232E+02 -1.97336E+03  7.99232E+02 -2.41511E+03  1.55131E+03 -2.46056E+03  2.78388E+03 -1.32830E+03
  2.27141E+03 -4.95865E+02  1.40846E+03  1.99354E+03 -5.57886E+02  1.19307E+03 -5.39965E+02  1.57680E+03
 -8.06838E+02  4.44525E+02 -1.12098E+03  1.21303E+02 -4.58444E+02  2.18940E+02 -7.54683E+02  4.72104E+02
 -1.56362E+03  1.27090E+02 -1.12492E+03  5.71469E+01  1.70250E+01 -6.32071E+02 -3.96271E+02 -6.25151E+02
  1.14476E+03 -8.73615E+02  4.65056E+02  3.89398E+02  1.49937E+03  6.08314E+02 -2.63258E+02  1.14029E+03
 -1.06863E+03  3.08688E+03 -1.16874E+03  1.39509E+03 -2.18751E+03 -4.96107E+02 -1.33389E+03 -1.22566E+03
 -1.34414E+03 -1.97119E+03  5.06504E+02 -1.26408E+03  1.01462E+03 -3.69950E+02  8.90885E+02 -2.15766E+02
  7.45519E+02 -1.75104E+02  2.49062E+02  4.05137E+02 -4.71314E+02 -4.50013E+02  1.92772E+02  7.74371E-01
  3.17811E+02 -1.73760E+01  7.36937E+02  3.51022E+02  6.03363E+02  2.57728E+02  2.39465E+02  1.18808E+02
 -9.45158E+02  1.44064E+02 -3.13369E+02  1.69247E+01 -1.47220E+03 -5.61098E+02  2.07692E+02 -1.20588E+03
  3.23767E+02 -3.40005E+02  3.41432E+02  1.20141E+02  1.04767E+03 -4.85351E+02  3.92242E+02  9.25006E+02
  5.71819E+02  3.91388E+02 -3.15101E+02  8.07243E+02 -5.98938E+02  1.10932E+03 -6.98202E+02  3.58540E+02
 -2.23454E+02  3.61342E+02 -3.52091E+02 -2.36176E+01 -5.34469E+02 -2.00951E+02 -6.29585E+02 -2.80630E+02
 -1.05967E+03 -3.23757E+02 -6.48238E+01 -1.63782E+03  3.78399E+02 -1.78212E+03  8.57833E+02 -6.80325E+02
  1.10017E+03  1.74494E+02 -3.86504E+02  4.25271E+02 -5.25590E+02  4.63407E+02 -5.15808E+02  1.08408E+03
