 $NMID ID='MM_0lb_SNR400_19hz_g40_54.RAW', FMTDAT='(8E13.5)'
 TRAMP=1., VOLUME=1. $END
  3.10222E+05 -1.90585E+02  3.37086E+05  2.50335E+05  8.42462E+04  3.37208E+05 -1.32110E+05  2.49180E+05
 -1.89742E+05  8.23371E+04 -1.10571E+05 -3.29737E+04  1.89542E+03 -5.02309E+04  5.41572E+04  4.71403E+02
  3.51733E+04  5.30387E+04 -1.72432E+04  7.45311E+04 -6.01473E+04  6.19933E+04 -8.25133E+04  3.18124E+04
 -7.92924E+04 -1.10203E+04 -5.56342E+04 -4.99745E+04 -1.47688E+04 -6.76889E+04  2.61867E+04 -4.45002E+04
  3.91260E+04  4.24879E+03  1.52355E+04  4.67282E+04 -3.32998E+04  4.57165E+04 -6.46863E+04 -4.96320E+02
 -5.14668E+04 -5.56484E+04 -5.92438E+03 -7.47299E+04  3.28361E+04 -5.26647E+04  4.56064E+04 -1.58893E+04
  4.05488E+04  1.18909E+04  3.01361E+04  2.40727E+04  1.60055E+04  2.81592E+04 -3.97987E+03  2.64948E+04
 -2.08472E+04  1.27883E+04 -1.92595E+04 -4.16064E+03  3.99445E+03 -7.64375E+03  2.09136E+04  1.06166E+04
  7.24528E+03  3.22709E+04 -3.01008E+04  3.35570E+04 -6.03726E+04  2.42576E+03 -5.50429E+04 -4.04837E+04
 -1.23606E+04 -5.98641E+04  3.74569E+04 -4.24079E+04  5.43223E+04 -2.16761E+03  3.11635E+04  2.96360E+04
 -6.77682E+03  3.17010E+04 -2.83553E+04  1.23591E+04 -2.69187E+04 -6.16624E+03 -1.38839E+04 -1.00926E+04
 -7.38302E+03 -1.10239E+04 -8.89476E+02 -1.59966E+04  6.08029E+03 -2.24795E+04  1.47871E+04 -1.38624E+04
  1.27187E+04  4.01694E+03 -5.27131E+03  1.31992E+04 -1.89038E+04 -1.74274E+03 -8.25474E+03 -2.97973E+04
  2.04236E+04 -3.95628E+04  4.45035E+04 -1.83998E+04  4.07224E+04  1.77733E+04  1.39383E+04  4.11815E+04
 -1.48844E+04  3.06829E+04 -2.29404E+04  5.33983E+02 -7.60396E+03 -2.59496E+04  2.01644E+04 -3.04029E+04
  3.72852E+04 -6.46324E+03  3.00845E+04  2.21088E+04  1.46492E+04  4.11183E+04 -7.58097E+03  4.38666E+04
 -2.71635E+04  2.85599E+04 -3.62992E+04  7.75475E+03 -3.72117E+04 -1.46464E+04 -2.06061E+04 -3.30424E+04
  7.08983E+03 -3.32702E+04  2.80158E+04 -1.19742E+04  2.57312E+04  1.06933E+04  3.11867E+03  1.75067E+04
 -1.30303E+04  7.49074E+03 -9.56043E+03 -7.81027E+03  5.93047E+03 -9.24574E+03  1.71302E+04  7.54535E+03
  1.24512E+04  2.13243E+04 -7.18561E+03  2.25628E+04 -2.11024E+04  8.35351E+03 -2.47585E+04 -6.57365E+03
 -1.62500E+04 -1.63891E+04 -5.01925E+03 -1.56749E+04  4.32976E+03 -1.41241E+04  1.17018E+04 -1.34052E+04
  2.03538E+04 -1.14082E+04  2.73635E+04  2.62009E+02  2.03278E+04  1.53367E+04  3.69325E+03  3.13563E+04
 -1.55318E+04  2.70559E+04 -2.60481E+04  9.31780E+03 -1.85226E+04 -1.02676E+04 -3.60865E+03 -1.44742E+04
  2.65138E+03 -4.47675E+03 -2.30520E+03  5.28691E+03 -1.21841E+04  5.28864E+03 -1.28133E+04 -3.95063E+03
 -8.31468E+03 -1.50247E+04  4.27346E+03 -1.81784E+04  1.19164E+04 -1.31925E+04  1.36234E+04 -1.33440E+03
  8.49430E+03  1.01606E+04 -1.06125E+03  1.51132E+04 -9.19618E+03  8.18727E+03 -1.48319E+04 -3.16106E+03
 -1.07568E+04 -1.32789E+04 -1.56623E+03 -1.80998E+04  8.46307E+03 -1.47565E+04  1.53852E+04 -6.70853E+03
  1.34226E+04  5.27600E+02  9.83301E+03  3.65398E+03  4.79837E+03  4.22663E+02  6.74800E+03 -1.13049E+03
  1.30150E+04  2.25343E+03  1.31448E+04  1.17734E+04  8.15162E+03  2.34017E+04 -3.24935E+03  2.47087E+04
 -1.52693E+04  1.86364E+04 -2.24956E+04  8.84930E+03 -2.32393E+04 -1.70338E+03 -2.00022E+04 -1.30999E+04
 -9.92195E+03 -1.85646E+04  5.89026E+03 -1.75120E+04  1.58650E+04 -1.02148E+04  1.55376E+04  3.16907E+03
  6.48379E+03  1.02310E+04 -6.77704E+03  9.60434E+03 -1.23404E+04  2.72484E+03 -9.43527E+03 -7.33885E+03
  8.39550E+01 -1.14356E+04  5.55413E+03 -8.79788E+03  7.47327E+03 -1.28763E+03  1.36039E+03  4.82968E+03
 -5.25388E+03  9.02114E+02 -3.41409E+03 -4.26861E+03  1.15758E+03 -9.05918E+03  7.23971E+03 -9.08167E+03
  1.14167E+04 -4.15488E+03  1.07475E+04  3.04901E+03  9.20494E+03  8.74826E+03  4.68663E+03  1.25061E+04
 -1.08202E+03  1.47200E+04 -8.55821E+03  9.84384E+03 -1.05811E+04  2.51749E+03 -7.87643E+03 -1.94005E+03
 -4.48346E+03 -2.77691E+03 -7.70910E+02  1.83706E+03 -2.34755E+03  1.86908E+03 -3.23655E+03  3.14425E+03
 -7.49510E+03 -8.93236E+01 -8.30610E+03 -6.62682E+03 -3.52349E+03 -1.08040E+04  3.60004E+03 -7.91580E+03
  7.10831E+03 -3.79036E+03  5.11875E+03  1.66551E+03  8.36932E+02  3.06324E+03 -2.81183E+03 -3.74918E+01
 -2.79092E+03 -4.55429E+03 -6.90362E+02 -6.39142E+03  3.85618E+03 -7.16451E+03  9.01687E+03 -3.63564E+03
  1.05712E+04  1.06020E+03  8.39581E+03  5.55849E+03  1.50828E+03  7.78325E+03 -4.50941E+03  7.82626E+03
 -6.73777E+03  2.49726E+03 -3.11235E+03 -7.08429E+02  1.77286E+03 -1.64525E+03  4.51859E+03 -1.18278E+03
  3.60493E+03  2.91970E+03  8.92376E+02  6.23023E+03 -3.48470E+03  5.54054E+03 -7.73428E+03  1.76279E+03
 -4.07368E+03 -3.06834E+03 -5.40427E+01 -6.03164E+03  3.17813E+03 -3.50120E+03  3.14053E+03  7.45615E+02
 -1.79973E+02  2.67465E+03 -3.71965E+03  4.50502E+03 -4.56242E+03  2.01095E+03 -4.38220E+03 -9.69529E+02
 -2.45748E+03 -5.41815E+03  1.11960E+03 -6.50112E+03  5.38134E+03 -3.98297E+03  5.95542E+03  1.19486E+03
  4.03839E+03  4.96023E+03  4.89395E+02  6.56338E+03 -4.52339E+03  3.95448E+03 -4.91404E+03 -2.18446E+02
 -5.55598E+03 -4.79491E+03 -1.61590E+03 -4.56388E+03  2.31831E+03 -4.63993E+03  2.67640E+03 -3.04328E+03
  2.68465E+03  1.55098E+02  9.72157E+01  1.26744E+03  1.12036E+03  2.56676E+02 -5.40706E+02 -1.58366E+03
  3.17718E+03 -3.08023E+02  4.59210E+03  7.33302E+02  4.59931E+03  1.95702E+03  5.02462E+03  5.87739E+03
 -1.10986E+03  8.05522E+03 -6.99054E+03  5.62356E+03 -9.03650E+03  1.18106E+03 -7.23273E+03 -2.47675E+03
 -4.23953E+03 -6.17327E+03 -2.75459E+02 -4.81136E+03  1.53129E+03 -2.06103E+03  1.30228E+03 -2.05322E+03
  1.41059E+03 -1.40233E+03  2.13379E+03 -2.49099E+03  3.14604E+03 -1.18864E+03  3.37571E+03  6.88423E+02
  4.34211E+03  1.26825E+03  5.32523E+02  3.00864E+03 -1.85701E+03  2.22967E+03 -3.98005E+03  2.61695E+03
 -4.47288E+03 -9.34192E+02 -9.36704E+02 -2.93243E+03  2.69008E+02 -4.42529E+03  2.82596E+03 -4.76861E+03
  4.55779E+03 -2.68824E+03  6.52303E+03  4.55706E+02  5.34354E+03  3.86386E+03  1.06281E+03  5.78863E+03
 -1.67228E+03  5.22767E+03 -2.85679E+03  1.60107E+03 -1.90041E+03 -7.94075E+02 -2.79604E+02 -3.80391E+02
 -3.15416E+02  5.48932E+02 -1.12489E+03  1.89160E+03 -2.62272E+03  1.17384E+03 -4.11916E+03 -6.52505E+02
 -1.11435E+03 -3.61345E+03  7.39537E+02 -4.24077E+03  2.43438E+03 -3.62440E+03  3.13676E+03 -8.68983E+02
  3.60076E+03  1.44027E+03  1.77340E+03  2.79952E+03 -6.03216E+02  4.21106E+03 -2.05308E+03  2.00954E+03
 -3.22311E+03  4.12590E+02 -2.69868E+03 -2.53359E+03  4.07551E+02 -3.06236E+03  1.77726E+03 -2.62209E+03
  2.64905E+03 -1.35897E+03  1.61325E+03  2.13806E+02  2.27316E+02  1.58423E+03  1.01486E+03  1.94242E+02
  2.01034E+03  3.29056E+02  1.05711E+03  8.53776E+02  7.02241E+02  1.80196E+03  9.61139E+02  1.21576E+03
 -8.33083E+02  2.67240E+03 -2.35782E+03  3.74412E+03 -2.49891E+03  1.29999E+03 -3.53824E+03 -3.24329E+02
 -1.54922E+03 -3.03831E+03  1.02593E+03 -4.79992E+03  2.13133E+03 -2.09650E+03  2.52597E+03 -5.94861E+02
  1.87937E+03  1.81236E+03  1.17162E+02  2.58275E+03 -9.67873E+02  6.72346E+02 -8.82538E+02 -1.55752E+02
 -4.86575E+02 -1.23207E+03  9.37907E+02 -1.40469E+03  1.47626E+03 -1.03961E+03  1.01022E+03  2.87522E+02
 -7.23007E+01 -1.16531E+02  3.37889E+02 -3.77628E+02 -6.39574E+02  1.02623E+03  1.58963E+03 -3.62318E+02
 -1.40480E+02 -4.73724E+02  1.80708E+03  6.39242E+02  8.83737E+01  1.59060E+03 -5.31528E+01  2.70998E+03
 -1.96022E+03  1.13262E+03 -1.90100E+03  3.47336E+02 -2.01269E+03 -6.47464E+02  4.60075E+02 -1.24728E+03
  4.70415E+02 -1.22504E+03  8.15749E+02 -7.24854E+02  7.62571E+02  1.20554E+03 -4.53457E+02  1.10046E+03
 -8.64016E+02  3.87044E+02 -6.46797E+02 -9.43459E+02 -8.49832E+02 -2.53401E+03  1.79060E+02 -1.02117E+03
  6.95338E+02 -7.45622E+02  1.01315E+03  3.94652E+02  1.06731E+03  4.04060E+02  2.25455E+02  1.37799E+03
 -1.65223E+01 -5.52573E+02 -4.25162E+02  4.72983E+02  3.98466E+02 -7.90656E+02  7.45153E+02 -9.36231E+02
  8.42829E+02  5.79018E+02  2.58450E+03  4.19689E+02  1.56871E+03  1.71698E+03 -4.73649E+02  2.35613E+03
 -8.15578E+02  2.96126E+02 -9.32407E+02  5.58185E+02 -6.31627E+02 -9.22244E+02 -2.52782E+01 -9.96551E+02
  1.88811E+03 -8.09835E+02  4.39664E+02  7.28520E+02  1.18976E+02  1.26276E+03  1.93286E+02  1.28897E+03
 -4.81335E+02  1.30627E+03 -5.65522E+02 -4.01040E+02 -7.94409E+01  5.84564E+02 -4.75674E+02  2.37254E+02
 -7.10149E+02  8.96285E+02 -1.52650E+03  1.72543E+02 -1.45312E+03 -5.70227E+01 -2.15487E+03 -5.43112E+02
 -6.42669E+02 -1.96140E+03  5.39377E+02 -3.37624E+03  1.05613E+03 -2.14942E+03  2.38099E+03 -8.75857E+02
  2.35247E+03  5.88982E+01  1.14930E+03  1.18745E+03 -8.28496E+02  9.38448E+02 -1.08883E+03  1.15164E+03
 -1.26944E+03  7.03724E+02 -7.52755E+02  5.22014E+02 -7.40438E+02 -1.28843E+02 -6.36005E+02 -1.65049E+02
 -1.18182E+03 -3.51917E+01 -7.03926E+02  1.25499E+02  7.42493E+02 -3.87455E+02 -1.28424E+02 -1.52366E+03
  1.02356E+03 -4.44218E+02  3.64033E+02  1.07378E+02  1.38711E+03  3.08543E+02 -7.65956E+02  1.35001E+03
 -6.40234E+02  2.14909E+03 -1.26432E+03  4.30170E+02 -1.62058E+03 -1.07540E+02 -1.16318E+03 -1.08213E+03
 -5.88807E+02 -1.59293E+03  2.49706E+01 -1.79141E+03  5.96596E+02 -2.49150E+02  5.39948E+02  8.21043E+01
  6.73227E+02 -5.07128E+02  1.49611E+02 -1.59567E+02 -4.81642E+02 -1.62777E+02 -9.81674E+01 -1.06029E+02
  6.82505E+02  2.64110E+02  1.09587E+02  5.48883E+02 -2.81213E+02  6.40900E+02  4.00169E+01  6.85329E+01
 -8.60238E+02  1.05406E+03 -5.16669E+02  5.30997E+02 -6.35773E+02 -5.01254E+02  4.06825E+02 -7.39132E+02
  4.10906E+02 -4.67204E+02  2.94980E+02  1.44065E+02  1.08829E+03 -1.21090E+03  5.59956E+02  2.51989E+01
  2.30335E+01  4.83402E+02 -2.67361E+02  3.58632E+02 -1.25429E+03 -1.59779E+00 -5.73292E+02  6.82739E+01
 -3.75812E+02  4.31968E+02 -8.99162E+02  1.84587E+02 -8.33344E+02 -2.85166E+02 -4.28680E+02 -2.99876E+02
 -6.65085E+02  4.10588E+02 -4.65520E+02 -2.99897E+02  1.27046E+02 -1.77248E+03  7.97598E+02  3.61690E+02
  9.47014E+02 -1.67978E+02 -9.51056E+02 -2.24321E+02 -4.19315E+01  6.96809E+02 -8.25993E+01  2.82355E+02
