 $NMID ID='MM_0lb_SNR400_18hz_g40_72.RAW', FMTDAT='(8E13.5)'
 TRAMP=1., VOLUME=1. $END
  3.09623E+05  7.68562E+02  3.37388E+05  2.49832E+05  8.47430E+04  3.36920E+05 -1.32153E+05  2.49920E+05
 -1.89275E+05  8.24475E+04 -1.11207E+05 -3.30945E+04  1.23464E+03 -5.00751E+04  5.38765E+04 -2.53670E+02
  3.46433E+04  5.29259E+04 -1.70100E+04  7.48175E+04 -6.05927E+04  6.22280E+04 -8.24886E+04  3.15075E+04
 -7.92159E+04 -1.12383E+04 -5.58866E+04 -4.98746E+04 -1.46839E+04 -6.78288E+04  2.64296E+04 -4.45637E+04
  3.93245E+04  4.59938E+03  1.60378E+04  4.69117E+04 -3.36147E+04  4.56801E+04 -6.54758E+04 -9.03767E+02
 -5.17606E+04 -5.55576E+04 -6.27701E+03 -7.46588E+04  3.29573E+04 -5.25651E+04  4.56016E+04 -1.60692E+04
  4.14106E+04  1.09526E+04  3.07553E+04  2.42689E+04  1.54787E+04  2.77698E+04 -4.92495E+03  2.67201E+04
 -2.17024E+04  1.27609E+04 -1.90702E+04 -4.07503E+03  4.30605E+03 -7.23568E+03  2.05226E+04  1.05983E+04
  8.02362E+03  3.29041E+04 -3.00811E+04  3.41693E+04 -6.11078E+04  1.83771E+03 -5.51483E+04 -4.06832E+04
 -1.24015E+04 -6.05518E+04  3.77082E+04 -4.29010E+04  5.52253E+04 -1.77419E+03  3.14138E+04  3.03371E+04
 -6.48227E+03  3.26055E+04 -2.87576E+04  1.28642E+04 -2.72446E+04 -5.72041E+03 -1.36611E+04 -9.85845E+03
 -7.28624E+03 -1.10481E+04 -7.24294E+02 -1.62771E+04  6.89016E+03 -2.27182E+04  1.54831E+04 -1.42010E+04
  1.24236E+04  3.63347E+03 -5.60845E+03  1.29990E+04 -1.91833E+04 -2.19673E+03 -7.76949E+03 -2.98549E+04
  2.09300E+04 -4.06583E+04  4.44157E+04 -1.82757E+04  4.16002E+04  1.82620E+04  1.47423E+04  4.11383E+04
 -1.57251E+04  3.09482E+04 -2.32248E+04  1.02982E+03 -8.25869E+03 -2.66317E+04  2.04447E+04 -3.11501E+04
  3.73156E+04 -6.99450E+03  3.11934E+04  2.29630E+04  1.52200E+04  4.24379E+04 -7.55514E+03  4.43953E+04
 -2.84164E+04  2.97353E+04 -3.71170E+04  8.05333E+03 -3.82205E+04 -1.51973E+04 -2.14876E+04 -3.35272E+04
  6.56883E+03 -3.41156E+04  2.86812E+04 -1.32030E+04  2.69110E+04  1.09031E+04  2.84537E+03  1.77071E+04
 -1.28038E+04  7.63543E+03 -1.01915E+04 -7.36091E+03  6.32546E+03 -1.00436E+04  1.73697E+04  6.39615E+03
  1.25234E+04  2.18025E+04 -6.29918E+03  2.31162E+04 -2.10247E+04  8.97198E+03 -2.50304E+04 -6.63855E+03
 -1.64575E+04 -1.61677E+04 -5.89830E+03 -1.65599E+04  3.64673E+03 -1.43786E+04  1.21302E+04 -1.37772E+04
  2.07513E+04 -1.18938E+04  2.79368E+04  1.24444E+03  2.11330E+04  1.60720E+04  4.28122E+03  3.23477E+04
 -1.57350E+04  2.73279E+04 -2.61702E+04  9.77423E+03 -1.92126E+04 -1.10460E+04 -3.16176E+03 -1.35616E+04
  3.17852E+03 -4.04026E+03 -2.77577E+03  5.50439E+03 -1.29537E+04  5.64623E+03 -1.27838E+04 -4.57539E+03
 -8.18380E+03 -1.50079E+04  4.68770E+03 -1.92367E+04  1.21633E+04 -1.37811E+04  1.48361E+04 -1.28132E+03
  8.53754E+03  1.08701E+04 -7.87889E+02  1.53877E+04 -1.00576E+04  9.03669E+03 -1.44856E+04 -3.94179E+03
 -1.13477E+04 -1.39703E+04 -1.77578E+03 -1.88132E+04  8.64402E+03 -1.49690E+04  1.62987E+04 -6.66292E+03
  1.45126E+04  5.22826E+02  1.03865E+04  3.73824E+03  5.27765E+03  3.95008E+02  7.32074E+03 -1.45621E+03
  1.41082E+04  2.66403E+03  1.43669E+04  1.24729E+04  8.50512E+03  2.39526E+04 -2.72237E+03  2.63808E+04
 -1.56681E+04  2.01440E+04 -2.42597E+04  9.43298E+03 -2.47415E+04 -1.36437E+03 -2.15015E+04 -1.39959E+04
 -1.01383E+04 -2.00562E+04  6.67213E+03 -1.96368E+04  1.65243E+04 -1.09166E+04  1.58127E+04  3.61657E+03
  6.55167E+03  1.08007E+04 -6.75371E+03  1.03887E+04 -1.29582E+04  2.39151E+03 -1.02836E+04 -7.76367E+03
 -3.24399E+02 -1.18792E+04  6.16524E+03 -9.32191E+03  7.63050E+03 -1.33284E+03  1.01521E+03  5.36447E+03
 -5.52236E+03  1.60853E+03 -4.22904E+03 -3.96914E+03  5.47133E+02 -1.02176E+04  7.18747E+03 -9.97052E+03
  1.20823E+04 -4.25709E+03  1.22192E+04  2.71004E+03  1.05296E+04  9.30238E+03  5.22751E+03  1.41504E+04
 -1.39630E+03  1.58686E+04 -9.70626E+03  1.01220E+04 -1.11162E+04  2.21262E+03 -8.16085E+03 -2.14230E+03
 -4.34227E+03 -3.03533E+03 -8.34831E+02  1.30880E+03 -1.66065E+03  1.98719E+03 -3.88032E+03  3.28312E+03
 -8.03975E+03 -5.01588E+02 -8.45912E+03 -7.39168E+03 -3.55790E+03 -1.13428E+04  2.93004E+03 -8.92449E+03
  7.35492E+03 -2.96338E+03  5.35531E+03  2.07658E+03  6.39550E+02  3.28817E+03 -3.52444E+03  1.61858E+02
 -3.62873E+03 -5.20113E+03 -7.59120E+02 -7.48255E+03  3.92887E+03 -7.84592E+03  9.73891E+03 -4.15602E+03
  1.13268E+04  2.41495E+02  9.24505E+03  6.03058E+03  1.75880E+03  8.24219E+03 -5.28720E+03  8.40342E+03
 -7.21148E+03  2.47295E+03 -3.31998E+03 -1.32419E+03  1.80635E+03 -2.22803E+03  5.15524E+03 -1.32919E+03
  4.25659E+03  3.55432E+03  1.08004E+03  5.99056E+03 -4.26274E+03  6.68707E+03 -8.08926E+03  1.25714E+03
 -4.93755E+03 -3.89377E+03  4.10122E+02 -6.50876E+03  3.99241E+03 -3.37338E+03  3.57768E+03  9.08129E+02
  3.08784E+02  3.39922E+03 -3.90559E+03  4.54939E+03 -4.87658E+03  2.51448E+03 -4.51949E+03 -7.41160E+02
 -2.97861E+03 -5.85935E+03  9.70443E+02 -6.96613E+03  6.01016E+03 -4.61920E+03  6.76033E+03  6.32653E+02
  4.99772E+03  5.80485E+03  6.89818E+02  6.98283E+03 -5.62932E+03  4.23967E+03 -5.13616E+03 -3.84210E+02
 -5.09893E+03 -4.95128E+03 -1.49293E+03 -4.82260E+03  2.82113E+03 -4.56952E+03  3.40425E+03 -2.74880E+03
  2.98312E+03  6.16806E+02 -3.70922E+01  7.66312E+02  5.34488E+02 -4.45104E+00  1.62757E+02 -1.71881E+03
  4.27807E+03 -7.72185E+02  5.60407E+03  5.61325E+02  5.50105E+03  3.36072E+03  5.92673E+03  6.82584E+03
 -1.07022E+03  8.03257E+03 -7.68122E+03  6.22705E+03 -1.02953E+04  9.55823E+02 -7.52345E+03 -2.91410E+03
 -4.29067E+03 -7.05270E+03 -6.03941E+02 -5.41597E+03  2.46736E+03 -2.10933E+03  2.00600E+03 -2.41541E+03
  1.35603E+03 -1.64923E+03  2.37433E+03 -2.37171E+03  3.56031E+03 -1.82494E+03  3.55632E+03  5.18224E+01
  4.52792E+03  7.75428E+02  1.33985E+03  3.17306E+03 -1.61433E+03  2.75172E+03 -4.46151E+03  2.86963E+03
 -5.66241E+03 -5.68334E+02 -2.10662E+03 -3.25796E+03  3.55905E+02 -4.85770E+03  2.73596E+03 -5.37243E+03
  5.27137E+03 -3.46561E+03  7.24278E+03  4.40528E+02  5.48915E+03  4.31843E+03  1.59323E+03  6.25405E+03
 -1.85697E+03  5.90323E+03 -3.41353E+03  2.11724E+03 -1.59351E+03 -1.60686E+03 -3.31638E+02 -7.21096E+02
 -2.18814E+02  3.71841E+02 -8.80591E+02  1.65191E+03 -2.60914E+03  1.31558E+03 -3.81364E+03 -6.62820E+02
 -1.47585E+03 -4.09280E+03  1.13853E+03 -5.14779E+03  2.40546E+03 -4.78811E+03  3.65542E+03 -1.25830E+03
  4.08997E+03  2.81650E+03  1.91556E+03  3.27329E+03 -9.20968E+02  4.70734E+03 -3.03019E+03  2.53194E+03
 -4.17651E+03  7.87735E+01 -3.80722E+03 -2.36863E+03 -3.28015E+02 -3.39584E+03  1.42117E+03 -2.81410E+03
  2.61986E+03 -1.23584E+03  2.02211E+03  1.13298E+03  2.50326E+02  1.90266E+03  1.51733E+03  3.44244E+02
  1.77779E+03  3.49302E+02  5.42801E+02  1.29090E+03  1.14053E+03  2.06112E+03  1.53162E+03  2.13810E+03
 -1.69932E+03  2.73880E+03 -2.55414E+03  4.14283E+03 -2.94397E+03  1.16869E+03 -4.33946E+03 -7.65892E+02
 -1.64038E+03 -3.84470E+03  8.80528E+02 -5.24691E+03  2.52738E+03 -2.48021E+03  3.37589E+03 -9.38732E+02
  2.49153E+03  1.97139E+03  7.21153E+02  2.13732E+03 -4.05915E+02  1.86901E+03 -9.00992E+02  2.06878E+02
 -6.51517E+01 -1.71514E+03  1.30296E+03 -1.56747E+03  2.06455E+03 -1.06163E+03  2.01446E+03  2.52745E+02
  5.01646E+02  4.70839E+02  9.32020E+02  7.52637E+01  7.21322E+01  5.69714E+02  1.82338E+03 -4.21793E+00
 -4.89258E+02  3.82321E+02  1.95380E+03  5.05448E+02  3.53555E+02  2.71739E+03 -2.71861E+01  2.86482E+03
 -1.87011E+03  7.53863E+02 -2.42008E+03  5.72289E+02 -2.05298E+03 -1.84847E+02  2.44266E+02 -6.69078E+02
  5.63317E+02 -1.26957E+03  1.29139E+03 -4.78572E+02  6.47850E+02  1.76906E+03 -4.43388E+02  1.67306E+03
 -1.59443E+03  2.05048E+02 -1.33668E+03 -1.45600E+03 -8.40253E+02 -2.52296E+03  4.89875E+02 -1.92327E+03
  7.80063E+02 -8.63939E+02  7.43513E+02  2.43876E+02  1.06721E+03 -1.49529E+02  1.18161E+02  1.53434E+03
 -2.15652E+02  2.77388E+02 -1.22978E+03 -4.37456E+02  5.77601E+02 -7.95823E+02  1.51805E+03 -1.08646E+03
  9.18536E+02  1.54500E+01  2.90548E+03  1.27684E+03  5.45891E+02  1.61759E+03 -2.35150E+02  1.92930E+03
 -1.38053E+03  8.10768E+02 -2.00302E+03 -4.37272E+02 -7.02621E+02 -1.65818E+03  4.61848E+02 -5.45739E+02
  1.91127E+03 -1.29748E+03  1.01734E+03  1.06753E+03 -5.64221E+02  1.80592E+03  3.31570E+02  1.59918E+03
 -3.20778E+02  9.30974E+02 -8.44316E+02  6.51604E+02 -1.30015E+02  6.09597E+02 -8.68485E+02  2.36668E+02
 -6.23589E+02  1.08368E+03 -2.35192E+03  4.99026E+02 -1.75710E+03 -1.11201E+02 -2.89077E+03 -5.95056E+02
 -5.13296E+02 -2.37209E+03  6.64515E+02 -2.82919E+03  1.61207E+03 -2.54229E+03  3.14054E+03 -8.80358E+02
  2.23745E+03 -2.71645E+01  1.78202E+03  1.66700E+03 -2.53156E+02  1.80091E+03 -5.15483E+02  1.91960E+03
 -5.39741E+02  7.73845E+02 -5.24457E+02 -1.36483E+02 -5.89943E+02  8.50190E+02 -8.21735E+02  6.40307E+02
 -9.39589E+02  9.44457E+00 -5.87200E+02 -8.09106E+01  1.60995E+02 -7.83725E+02 -6.26708E+02 -8.08228E+02
  1.18617E+03 -9.77911E+02  1.02675E+03  9.51289E+01  1.47743E+03  1.06214E+03  2.81149E+01  1.72594E+03
 -1.06320E+03  2.00363E+03 -1.92746E+03  1.27165E+03 -2.94754E+03 -2.05227E+02 -1.51690E+03 -1.81612E+03
 -7.51652E+02 -1.75769E+03  7.48244E+02 -1.19699E+03  3.73200E+02 -9.48567E+02  5.42562E+02 -1.38061E+02
  1.22530E+03  1.38701E+02  2.49386E+02  2.09396E+02 -5.35529E+02 -1.60677E+02  7.54882E+01  1.34063E+01
  3.52638E+02  1.57516E+02  3.99994E+02  7.75377E+02  5.29316E+00  1.21929E+03  3.65392E+02 -1.12438E+02
 -1.79557E+02  8.95502E+02 -6.09722E+02 -1.99855E+02 -9.93584E+02 -6.33123E+02 -2.26984E+02 -1.23686E+03
  8.28761E+01 -6.18872E+02  1.18896E+03  2.16338E+02  1.33080E+03 -1.10496E+00  5.39277E+02  7.03255E+02
  1.91296E+02  2.10581E+01 -2.09339E+02  5.16512E+02 -9.12216E+02 -1.56021E+02 -4.76445E+02 -4.25304E+02
 -2.48754E+02  2.33410E+02 -8.65202E+02  2.10607E+02 -6.83728E+02  2.89083E+02 -1.05647E+03 -6.26109E+02
 -9.90782E+02 -3.98764E+02 -2.47050E+02 -1.00220E+03  1.18192E+03 -1.79834E+03  8.67093E+02 -3.10857E+02
  1.15325E+03 -2.26924E+02 -5.69706E+02  4.67617E+02  4.80888E+02  1.03004E+03 -4.37014E+02  5.64315E+02
