 $NMID ID='MM_0lb_SNR400_7hz_g45_76.RAW', FMTDAT='(8E13.5)'
 TRAMP=1., VOLUME=1. $END
  3.09901E+05  1.73002E+02  3.37825E+05  2.50492E+05  8.49690E+04  3.38656E+05 -1.33266E+05  2.51606E+05
 -1.90857E+05  8.37955E+04 -1.12736E+05 -3.24417E+04 -7.14662E+02 -5.07142E+04  5.40972E+04 -5.26018E+02
  3.50665E+04  5.28699E+04 -1.61873E+04  7.58732E+04 -6.08162E+04  6.41760E+04 -8.54604E+04  3.25616E+04
 -8.20702E+04 -1.17882E+04 -5.85334E+04 -5.29404E+04 -1.53317E+04 -7.10394E+04  2.81263E+04 -4.71154E+04
  4.16004E+04  4.64355E+03  1.62723E+04  4.93645E+04 -3.44589E+04  4.83033E+04 -6.93307E+04 -5.00618E+02
 -5.53266E+04 -5.83807E+04 -8.08098E+03 -7.89253E+04  3.45317E+04 -5.66796E+04  4.99868E+04 -1.84334E+04
  4.65217E+04  1.09925E+04  3.39507E+04  2.65400E+04  1.59016E+04  3.06348E+04 -6.03083E+03  2.79366E+04
 -2.24786E+04  1.12444E+04 -1.89626E+04 -5.79013E+03  7.63632E+03 -7.09308E+03  2.39468E+04  1.45327E+04
  7.54373E+03  3.79487E+04 -3.44819E+04  3.67369E+04 -6.71969E+04  2.25658E+03 -5.92386E+04 -4.54589E+04
 -1.27825E+04 -6.64482E+04  4.17472E+04 -4.81171E+04  6.22565E+04 -3.56528E+03  3.68769E+04  3.55435E+04
 -5.44132E+03  4.05910E+04 -3.20036E+04  1.97314E+04 -3.40293E+04 -2.97666E+03 -1.99786E+04 -1.23357E+04
 -9.34859E+03 -1.58311E+04 -3.97853E+02 -2.01149E+04  9.38781E+03 -2.38523E+04  1.53024E+04 -1.23184E+04
  1.06123E+04  6.09537E+03 -1.14908E+04  1.27913E+04 -2.47492E+04 -7.06359E+03 -9.30788E+03 -3.82422E+04
  2.48741E+04 -4.81928E+04  5.37816E+04 -2.15141E+04  5.03016E+04  2.14433E+04  1.81072E+04  4.81414E+04
 -1.64612E+04  3.71823E+04 -2.73792E+04  3.41528E+03 -1.24578E+04 -3.00395E+04  2.25174E+04 -3.76793E+04
  4.52849E+04 -1.10686E+04  4.18722E+04  2.56132E+04  2.20037E+04  5.32573E+04 -8.66275E+03  5.82091E+04
 -3.64411E+04  3.98306E+04 -4.98161E+04  1.17723E+04 -4.87747E+04 -1.92133E+04 -2.74006E+04 -4.41114E+04
  8.42495E+03 -4.25817E+04  3.49283E+04 -1.82086E+04  3.36306E+04  1.23139E+04  4.63188E+03  2.06451E+04
 -1.34013E+04  9.83848E+03 -1.12441E+04 -8.39087E+03  6.03740E+03 -1.16767E+04  1.87130E+04  5.03060E+03
  1.52237E+04  2.30865E+04 -4.89761E+03  2.74878E+04 -2.39514E+04  1.53948E+04 -3.24426E+04 -1.67239E+03
 -2.67462E+04 -1.84981E+04 -1.31153E+04 -2.56202E+04  4.31731E+03 -2.84575E+04  2.14644E+04 -2.38077E+04
  3.39203E+04 -1.42812E+04  3.91821E+04  5.87653E+03  2.77703E+04  2.54795E+04  3.78931E+03  4.42882E+04
 -2.05901E+04  3.53368E+04 -3.20922E+04  1.07296E+04 -2.31074E+04 -1.02990E+04 -4.26010E+03 -1.17969E+04
  5.80615E+02 -1.17095E+03 -8.79170E+03  8.64022E+03 -2.14276E+04  4.17444E+03 -2.11543E+04 -1.07132E+04
 -1.28462E+04 -2.49378E+04  6.40906E+03 -3.01966E+04  2.07655E+04 -2.07823E+04  2.43411E+04 -2.85880E+03
  1.53134E+04  1.72310E+04 -1.92854E+03  2.42241E+04 -1.77130E+04  1.42596E+04 -2.47785E+04 -5.09364E+03
 -1.84709E+04 -2.26888E+04 -2.17585E+03 -2.96921E+04  1.34306E+04 -2.49010E+04  2.45171E+04 -1.37305E+04
  2.34432E+04 -1.52046E+02  1.64115E+04  5.08164E+03  9.44133E+03  1.48482E+03  1.36399E+04 -2.16171E+03
  2.40590E+04  3.28219E+03  2.80025E+04  1.88831E+04  2.04875E+04  3.93496E+04 -3.01138E+03  4.77270E+04
 -2.69891E+04  4.01428E+04 -4.53515E+04  2.17582E+04 -4.95988E+04 -3.61551E+03 -3.96792E+04 -2.99549E+04
 -1.43794E+04 -4.02799E+04  1.40533E+04 -3.54755E+04  3.06649E+04 -1.60784E+04  2.49032E+04  8.54460E+03
  9.14686E+03  2.06881E+04 -1.31865E+04  1.68329E+04 -2.26496E+04  2.62484E+03 -1.57458E+04 -1.33170E+04
 -4.66838E+01 -2.10628E+04  1.16623E+04 -1.61425E+04  1.44648E+04 -9.91439E+02  3.55481E+03  1.01301E+04
 -1.00142E+04  5.00738E+03 -1.03496E+04 -7.87059E+03 -2.32418E+03 -1.93813E+04  1.24934E+04 -2.23309E+04
  2.61973E+04 -1.31724E+04  2.98577E+04  3.31472E+03  2.59653E+04  2.11088E+04  1.26564E+04  3.24760E+04
 -7.27486E+03  3.43821E+04 -2.32100E+04  2.04670E+04 -2.55742E+04  4.29869E+03 -1.70855E+04 -7.22034E+03
 -7.20152E+03 -7.66843E+03 -1.13686E+03 -3.88645E+02 -4.63827E+03  3.74846E+03 -8.33008E+03  7.01649E+03
 -1.38566E+04 -1.17313E+03 -1.64223E+04 -1.26844E+04 -5.99387E+03 -2.09379E+04  7.63522E+03 -1.75409E+04
  1.40272E+04 -6.88490E+03  9.13952E+03  4.35429E+03 -1.63879E+02  6.22251E+03 -8.75750E+03 -9.05388E+02
 -8.22670E+03 -1.15336E+04 -1.29260E+03 -1.73196E+04  9.97478E+03 -1.86089E+04  2.28041E+04 -9.87200E+03
  2.68235E+04  3.70152E+03  1.88829E+04  1.54981E+04  3.21241E+03  2.07176E+04 -1.06905E+04  1.73036E+04
 -1.35573E+04  4.95646E+03 -7.09293E+03 -4.49527E+03  2.22628E+03 -4.75559E+03  9.08140E+03 -1.57062E+03
  8.93424E+03  7.66380E+03  9.34998E+02  1.42379E+04 -9.65637E+03  1.32264E+04 -1.74590E+04  3.76055E+03
 -1.18493E+04 -9.80543E+03  1.25442E+03 -1.60145E+04  9.86072E+03 -7.34452E+03  1.08871E+04  4.08074E+03
  3.92084E+03  1.11104E+04 -1.03272E+04  1.40136E+04 -1.62173E+04  5.50727E+03 -1.57474E+04 -5.97217E+03
 -9.70185E+03 -1.76832E+04  4.48274E+03 -2.11435E+04  1.77088E+04 -1.23131E+04  1.96245E+04  3.18891E+03
  1.11469E+04  1.62851E+04 -2.69408E+03  1.74315E+04 -1.29156E+04  9.82612E+03 -1.52424E+04 -1.60534E+03
 -1.21727E+04 -1.17968E+04 -2.17936E+03 -1.39663E+04  6.88419E+03 -1.20866E+04  8.03753E+03 -3.95131E+03
  5.51231E+03  3.04198E+03 -1.49649E+03  1.99406E+03 -1.52714E+03 -4.34216E+03  3.22824E+03 -9.48148E+03
  1.37891E+04 -6.21938E+03  1.90847E+04  2.63639E+03  1.86854E+04  1.35439E+04  1.11209E+04  2.39945E+04
 -5.80859E+03  2.77899E+04 -2.39311E+04  2.12412E+04 -3.05856E+04  4.34976E+03 -2.41996E+04 -1.11293E+04
 -1.12819E+04 -2.02427E+04  4.26889E+02 -1.76112E+04  6.51179E+03 -1.07301E+04  6.43450E+03 -7.06523E+03
  4.30003E+03 -2.83367E+03  5.01433E+03 -4.51467E+03  6.43012E+03 -3.73007E+03  9.99285E+03 -2.09925E+03
  1.25545E+04  3.25028E+03  7.80621E+03  1.10970E+04 -1.72599E+03  1.34664E+04 -1.27767E+04  1.07578E+04
 -1.73619E+04 -2.18251E+03 -1.11728E+04 -1.19706E+04 -1.19160E+03 -1.87977E+04  1.07271E+04 -1.92804E+04
  1.96824E+04 -1.03844E+04  2.30651E+04  3.89043E+03  1.64734E+04  1.65913E+04  2.15630E+03  2.07483E+04
 -9.15974E+03  1.69476E+04 -1.27450E+04  5.85120E+03 -9.02191E+03 -2.31107E+03 -3.53210E+03 -2.29404E+03
 -1.17036E+03  9.02016E+02 -2.06016E+03  3.23443E+03 -7.48693E+03  2.76083E+03 -1.20813E+04 -1.89203E+03
 -8.92083E+03 -1.21098E+04 -1.70968E+03 -1.88134E+04  1.10134E+04 -1.62816E+04  1.84406E+04 -4.73470E+03
  1.85791E+04  9.15961E+03  7.21244E+03  1.64540E+04 -3.69165E+03  1.80503E+04 -1.26145E+04  1.09783E+04
 -1.72653E+04  7.06892E+02 -1.29301E+04 -1.13311E+04 -1.47139E+03 -1.51793E+04  7.56452E+03 -1.08262E+04
  1.08006E+04 -3.57869E+03  7.64577E+03  3.26516E+03  2.86290E+03  4.99459E+03  1.16080E+03  1.70903E+03
  3.14186E+03  8.00251E+02  4.35142E+03  1.65482E+03  5.70831E+03  5.59551E+03  5.18716E+03  1.05757E+04
 -3.26061E+03  1.47104E+04 -1.38220E+04  1.31620E+04 -1.93624E+04  3.86175E+03 -1.98573E+04 -9.26351E+03
 -1.00198E+04 -1.87556E+04  2.95737E+03 -1.99385E+04  1.19590E+04 -1.26464E+04  1.64483E+04 -3.20843E+03
  1.15914E+04  6.72714E+03  2.58030E+03  1.05477E+04 -5.69383E+03  7.15690E+03 -8.13582E+03 -1.06097E+03
 -3.48948E+03 -8.10062E+03  4.17230E+03 -7.86792E+03  7.59274E+03 -3.57271E+03  7.66000E+03  1.38932E+03
  4.78256E+03  5.00892E+03  1.01748E+03  3.91317E+03 -1.49022E+03  2.63111E+03  1.89412E+03 -5.47618E+02
  3.45858E+03 -8.40498E+02  8.63280E+03  2.98895E+03  5.20796E+03  9.80198E+03 -2.34560E+03  1.42023E+04
 -8.81222E+03  8.91102E+03 -1.25641E+04  2.09508E+03 -1.08418E+04 -4.61921E+03 -4.60412E+03 -7.36447E+03
  6.61366E+02 -8.01490E+03  5.11090E+03 -3.58665E+03  4.30171E+03  3.40588E+03 -3.04572E+03  5.99310E+03
 -8.56083E+03  3.98104E+03 -9.70286E+03 -4.55271E+03 -5.34703E+03 -1.03309E+04  2.09150E+03 -1.05238E+04
  6.66520E+03 -7.23957E+03  8.05410E+03 -1.67254E+03  6.99362E+03  2.44978E+03  9.89160E+02  5.52063E+03
 -3.49760E+03  1.90836E+03 -5.38717E+03 -3.97569E+03  1.17531E+03 -7.98442E+03  9.72540E+03 -7.52127E+03
  1.32936E+04  5.96889E+02  1.18840E+04  9.02236E+03  3.73468E+03  1.24173E+04 -5.71126E+03  1.27378E+04
 -1.06726E+04  5.84960E+03 -1.12080E+04 -1.74358E+03 -6.59573E+03 -7.73846E+03  1.26027E+03 -8.31014E+03
  8.34307E+03 -4.02588E+03  7.51141E+03  2.96117E+03  2.08012E+03  6.75153E+03 -1.92803E+03  6.11570E+03
 -3.74669E+03  3.34164E+03 -2.90763E+03  1.61953E+03 -1.49831E+03  1.37180E+03 -1.52416E+03  3.24425E+03
 -4.29013E+03  4.62820E+03 -9.27109E+03  4.43968E+03 -1.32857E+04 -2.19839E+02 -1.44186E+04 -8.77603E+03
 -7.50377E+03 -1.75205E+04  3.51897E+03 -2.09881E+04  1.29236E+04 -1.60110E+04  1.99360E+04 -5.47204E+03
  1.93404E+04  2.92472E+03  1.06862E+04  1.35596E+04  7.77707E+02  1.48115E+04 -5.37594E+03  1.05298E+04
 -8.07763E+03  3.93031E+03 -4.42484E+03 -1.90648E+03 -1.47002E+03 -1.31851E+03 -3.98017E+02 -7.18350E+02
 -2.20668E+03  2.43177E+02 -3.06455E+03 -1.36943E+03 -8.00984E+02 -2.70810E+03 -3.52941E+02 -5.38345E+03
  5.40784E+03 -4.86272E+03  8.82653E+03 -1.39986E+02  1.01225E+04  8.66051E+03  2.33805E+03  1.43186E+04
 -7.11991E+03  1.65516E+04 -1.57371E+04  9.13160E+03 -1.81328E+04 -1.61091E+03 -1.33441E+04 -1.01284E+04
 -5.99915E+03 -1.46820E+04  3.13384E+03 -1.40343E+04  9.89556E+03 -7.78800E+03  9.92838E+03  5.03556E+02
  5.23501E+03  4.63764E+03 -1.07743E+03  4.37823E+03 -3.02578E+03 -6.83164E+02 -8.38180E+02 -3.56778E+03
  5.36067E+03 -2.54351E+03  4.91912E+03  1.24710E+03  4.00418E+03  5.66676E+03 -3.20791E+01  7.85534E+03
 -6.26339E+03  7.36897E+03 -1.05630E+04  6.56016E+02 -9.26903E+03 -7.86915E+03 -9.73721E+02 -1.30147E+04
  6.74281E+03 -9.76206E+03  1.23046E+04 -3.19732E+03  1.13363E+04  2.92375E+03  7.76918E+03  1.02396E+04
  2.19992E+03  1.01842E+04 -4.81279E+03  8.10245E+03 -6.76562E+03  4.28347E+03 -4.98460E+03  1.09171E+03
 -3.33782E+03 -3.20755E+02 -1.94971E+03  1.71114E+03 -5.85750E+03  1.51982E+03 -7.83016E+03 -1.10546E+03
 -7.28590E+03 -5.91755E+03 -2.15986E+03 -9.97787E+03  4.35249E+03 -1.04341E+04  8.97615E+03 -4.47573E+03
  1.03084E+04  5.93653E+02  6.64822E+03  8.12485E+03 -6.34014E+02  1.01103E+04 -7.33090E+03  6.62859E+03
