 $NMID ID='MM_0lb_SNR400_15hz_g45_38.RAW', FMTDAT='(8E13.5)'
 TRAMP=1., VOLUME=1. $END
  3.10073E+05  3.26985E+02  3.36929E+05  2.51090E+05  8.49083E+04  3.37879E+05 -1.32371E+05  2.51020E+05
 -1.90057E+05  8.27832E+04 -1.11655E+05 -3.27183E+04  1.65426E+03 -5.06756E+04  5.42429E+04 -4.41354E+02
  3.50850E+04  5.33017E+04 -1.71905E+04  7.53518E+04 -5.98599E+04  6.36794E+04 -8.39296E+04  3.16133E+04
 -8.04611E+04 -1.14779E+04 -5.71881E+04 -5.12381E+04 -1.52438E+04 -6.91581E+04  2.72927E+04 -4.60548E+04
  3.95859E+04  3.66834E+03  1.62590E+04  4.75733E+04 -3.38808E+04  4.70890E+04 -6.64581E+04 -2.58184E+02
 -5.27858E+04 -5.66022E+04 -6.86154E+03 -7.66076E+04  3.33326E+04 -5.43618E+04  4.73507E+04 -1.70418E+04
  4.28800E+04  1.11157E+04  3.22289E+04  2.55364E+04  1.62104E+04  2.86738E+04 -5.18245E+03  2.71419E+04
 -2.19771E+04  1.28236E+04 -1.82445E+04 -4.62192E+03  5.38527E+03 -7.48072E+03  2.15254E+04  1.21092E+04
  7.21430E+03  3.49789E+04 -3.17139E+04  3.49473E+04 -6.23369E+04  2.16563E+03 -5.62346E+04 -4.25192E+04
 -1.24342E+04 -6.18662E+04  3.92011E+04 -4.48850E+04  5.75796E+04 -2.64857E+03  3.34722E+04  3.15098E+04
 -6.18323E+03  3.53780E+04 -2.96088E+04  1.53591E+04 -2.95012E+04 -4.80544E+03 -1.64646E+04 -1.07601E+04
 -7.74852E+03 -1.27794E+04 -6.13672E+02 -1.69114E+04  6.81360E+03 -2.29690E+04  1.47008E+04 -1.27792E+04
  1.13473E+04  4.80294E+03 -7.54704E+03  1.29086E+04 -2.06227E+04 -4.19467E+03 -8.07810E+03 -3.28057E+04
  2.22899E+04 -4.28706E+04  4.73180E+04 -1.87156E+04  4.33113E+04  1.93510E+04  1.45198E+04  4.33570E+04
 -1.60404E+04  3.26850E+04 -2.48541E+04  1.05200E+03 -9.21845E+03 -2.70491E+04  2.08815E+04 -3.27161E+04
  3.98802E+04 -8.61990E+03  3.41945E+04  2.38672E+04  1.70160E+04  4.59302E+04 -7.51520E+03  4.88065E+04
 -3.06034E+04  3.28957E+04 -4.04156E+04  9.56269E+03 -4.11919E+04 -1.61487E+04 -2.29174E+04 -3.60554E+04
  6.94178E+03 -3.60731E+04  3.04899E+04 -1.43517E+04  2.82550E+04  1.05510E+04  4.10321E+03  1.87742E+04
 -1.30538E+04  7.84180E+03 -9.50391E+03 -7.71444E+03  5.95994E+03 -1.04239E+04  1.79191E+04  6.85244E+03
  1.34914E+04  2.17920E+04 -5.93141E+03  2.43730E+04 -2.15857E+04  1.12600E+04 -2.75887E+04 -5.19609E+03
 -1.94249E+04 -1.77529E+04 -7.53311E+03 -1.93878E+04  3.90063E+03 -1.77808E+04  1.49643E+04 -1.74775E+04
  2.42594E+04 -1.22157E+04  3.09569E+04  2.71648E+03  2.34466E+04  1.86638E+04  4.38373E+03  3.51205E+04
 -1.73938E+04  2.99250E+04 -2.80864E+04  9.81937E+03 -1.98929E+04 -9.97437E+03 -4.48400E+03 -1.36144E+04
  2.08598E+03 -3.51266E+03 -4.19130E+03  6.33452E+03 -1.55723E+04  5.43429E+03 -1.56293E+04 -6.24620E+03
 -9.88676E+03 -1.82794E+04  5.24180E+03 -2.15123E+04  1.44343E+04 -1.66207E+04  1.62096E+04 -1.17433E+03
  1.04577E+04  1.32915E+04 -2.18910E+02  1.81625E+04 -1.22617E+04  1.03417E+04 -1.81545E+04 -4.04916E+03
 -1.27308E+04 -1.59201E+04 -1.70777E+03 -2.16863E+04  9.95425E+03 -1.81114E+04  1.84600E+04 -8.79325E+03
  1.63848E+04  4.28160E+02  1.23940E+04  3.79302E+03  6.04913E+03  1.05003E+03  8.55330E+03 -1.46770E+03
  1.64069E+04  3.05955E+03  1.70905E+04  1.43612E+04  1.15437E+04  2.80304E+04 -2.89910E+03  3.20239E+04
 -1.79442E+04  2.52710E+04 -2.91663E+04  1.23356E+04 -3.05055E+04 -2.20200E+03 -2.54477E+04 -1.71122E+04
 -1.11882E+04 -2.55854E+04  8.35200E+03 -2.29349E+04  1.97497E+04 -1.22072E+04  1.77572E+04  4.69453E+03
  7.35798E+03  1.29137E+04 -8.40830E+03  1.21703E+04 -1.57426E+04  2.01441E+03 -1.18200E+04 -9.23592E+03
  3.42801E+02 -1.45345E+04  7.35222E+03 -1.11617E+04  9.12329E+03 -1.33223E+03  2.38825E+03  5.49925E+03
 -6.75867E+03  3.05168E+03 -5.21415E+03 -5.28781E+03 -1.64624E+02 -1.23456E+04  9.07670E+03 -1.28284E+04
  1.54885E+04 -6.40681E+03  1.60487E+04  3.02168E+03  1.34710E+04  1.23082E+04  6.70506E+03  1.83738E+04
 -3.10848E+03  1.99897E+04 -1.22544E+04  1.22963E+04 -1.44926E+04  3.58248E+03 -1.02534E+04 -2.97922E+03
 -5.49375E+03 -4.61842E+03 -1.17230E+03  1.31839E+03 -2.22424E+03  2.45126E+03 -4.50752E+03  4.01275E+03
 -9.53456E+03 -7.17329E+02 -1.07002E+04 -8.55954E+03 -4.20982E+03 -1.32797E+04  4.82417E+03 -1.09210E+04
  8.07496E+03 -4.31273E+03  6.12926E+03  3.05855E+03 -5.70630E+01  3.85045E+03 -4.43373E+03 -1.94096E+02
 -4.80316E+03 -6.13161E+03 -1.13035E+03 -9.40221E+03  5.49009E+03 -1.05751E+04  1.22814E+04 -4.96560E+03
  1.51680E+04  9.64186E+02  1.11135E+04  8.21822E+03  1.77545E+03  1.17858E+04 -5.69765E+03  1.01106E+04
 -7.97352E+03  2.97636E+03 -4.48681E+03 -1.92303E+03  1.72271E+03 -2.80156E+03  6.11838E+03 -6.54890E+02
  4.68302E+03  4.34071E+03  1.10665E+03  7.76941E+03 -5.50351E+03  7.42134E+03 -1.04749E+04  2.05236E+03
 -6.49237E+03 -5.49959E+03  1.35276E+02 -8.13702E+03  4.77646E+03 -4.41378E+03  5.34737E+03  1.60539E+03
  1.02423E+03  5.60204E+03 -5.38047E+03  6.52907E+03 -7.17645E+03  3.34935E+03 -6.77023E+03 -2.64352E+03
 -4.21038E+03 -8.73108E+03  2.06689E+03 -1.02555E+04  9.12227E+03 -6.22037E+03  9.53222E+03  1.56153E+03
  5.66650E+03  7.19038E+03 -8.32609E+02  9.38010E+03 -7.15719E+03  5.23443E+03 -6.99000E+03 -7.39513E+02
 -6.98064E+03 -6.42436E+03 -1.70317E+03 -6.33635E+03  2.65302E+03 -5.85571E+03  4.73131E+03 -3.33620E+03
  3.34504E+03  9.05944E+02 -9.42305E+02  1.79668E+03  2.80471E+02 -8.47591E+02  1.28771E+03 -3.08902E+03
  5.56957E+03 -1.79714E+03  8.70103E+03  1.25710E+03  7.74080E+03  4.99155E+03  6.05449E+03  1.02329E+04
 -2.38908E+03  1.25741E+04 -1.11652E+04  9.03277E+03 -1.36017E+04  1.75801E+03 -1.16347E+04 -4.49094E+03
 -5.89582E+03 -8.72493E+03 -3.23122E+02 -7.33703E+03  3.01266E+03 -3.26576E+03  2.83718E+03 -2.89255E+03
  2.00107E+03 -1.50822E+03  3.19670E+03 -2.45294E+03  4.99398E+03 -1.14977E+03  4.15931E+03 -1.70377E+02
  5.97325E+03  1.37712E+03  2.35181E+03  4.63412E+03 -1.80896E+03  4.49569E+03 -6.43489E+03  3.94999E+03
 -7.42849E+03 -9.34409E+02 -3.42071E+03 -4.90859E+03 -1.63455E+01 -7.41599E+03  4.81388E+03 -7.81280E+03
  7.71709E+03 -4.18246E+03  9.87960E+03  5.68106E+02  7.14497E+03  6.68966E+03  1.82368E+03  8.24569E+03
 -3.65880E+03  8.29463E+03 -5.13342E+03  2.85384E+03 -3.33117E+03 -9.25327E+02 -6.67894E+02 -1.28077E+03
 -6.39727E+02  5.18076E+02 -9.42587E+02  2.17977E+03 -3.37856E+03  2.10837E+03 -5.76129E+03 -5.86802E+02
 -2.73639E+03 -5.43619E+03 -2.25824E+02 -6.86196E+03  4.70563E+03 -6.54508E+03  6.25642E+03 -1.93127E+03
  6.36451E+03  3.99284E+03  2.64591E+03  6.31307E+03 -1.37517E+03  7.15511E+03 -4.79540E+03  4.31125E+03
 -5.75757E+03  2.72779E+02 -5.66649E+03 -3.58695E+03 -2.29137E+02 -5.62504E+03  3.02597E+03 -4.44058E+03
  3.70422E+03 -1.33931E+03  3.02557E+03  6.54102E+02  6.25675E+02  2.71138E+03  7.15837E+02  8.93850E+02
  1.64796E+03  3.35424E+02  2.15752E+03  6.92647E+02  1.73939E+03  2.43591E+03  1.90199E+03  2.79210E+03
 -2.27849E+03  4.20144E+03 -3.71985E+03  5.18631E+03 -5.79048E+03  1.86967E+03 -6.98596E+03 -1.85295E+03
 -3.01094E+03 -6.36439E+03  1.23603E+03 -7.66073E+03  4.06982E+03 -4.45742E+03  5.26075E+03 -1.82807E+03
  4.23214E+03  3.39938E+03  1.09284E+03  4.59488E+03 -1.52358E+03  1.81691E+03 -1.96979E+03 -1.06088E+03
 -1.52199E+03 -2.88851E+03  2.12085E+03 -2.68655E+03  2.52540E+03 -1.69145E+03  2.57353E+03  9.29289E+02
  1.38058E+03  8.14805E+02  7.32582E+02  5.97690E+02 -2.12761E+02  1.42166E+03  1.15598E+03 -2.85536E+02
  3.28802E+02 -4.71172E+02  3.39504E+03  8.74985E+02  8.48390E+02  4.08108E+03 -8.89903E+02  4.53899E+03
 -2.68450E+03  1.84001E+03 -3.92019E+03  6.76201E+02 -3.43679E+03 -8.10481E+02 -1.48829E+03 -2.08058E+03
  5.59244E+01 -2.19354E+03  1.84060E+03 -1.29959E+03  1.41516E+03  1.77685E+03 -5.36867E+02  1.89682E+03
 -2.74018E+03  9.72216E+02 -2.55465E+03 -1.83836E+03 -1.29013E+03 -3.87355E+03  3.68744E+02 -3.03171E+03
  1.26054E+03 -1.52831E+03  1.97907E+03 -3.27675E+02  1.85904E+03  5.42326E+02  5.20311E+02  9.90954E+02
 -1.67100E+02  3.87812E+02 -2.08147E+03 -8.90357E+02  1.01221E+03 -1.99533E+03  2.86844E+03 -1.50690E+03
  2.65850E+03  3.63955E+02  3.63337E+03  2.41364E+03  2.17023E+03  3.13530E+03 -1.68653E+03  3.62888E+03
 -2.79632E+03  3.66596E+02 -3.17090E+03 -2.78204E+02 -1.48768E+03 -2.43329E+03  8.01191E+02 -1.80612E+03
  2.81444E+03 -1.77071E+03  1.22883E+03  1.26845E+03  7.18205E+02  2.44935E+03 -8.02266E+02  2.20020E+03
 -1.26168E+03  1.47094E+03 -6.36269E+02 -3.44905E+02 -8.90597E+01  3.13508E+02 -1.16077E+03  1.10370E+03
 -1.21003E+03  9.63575E+02 -2.86076E+03  1.02339E+03 -3.23533E+03  1.28589E+02 -4.31748E+03 -1.62087E+03
 -1.83203E+03 -4.69494E+03  6.02337E+02 -5.52582E+03  2.30777E+03 -3.85046E+03  4.95816E+03 -1.88534E+03
  4.86125E+03  5.14377E+02  2.93697E+03  3.02324E+03 -2.53165E+01  3.33097E+03 -1.50898E+03  2.52925E+03
 -1.95075E+03  1.12367E+03 -1.23168E+03 -5.13442E+02 -7.58158E+02  4.11323E+02 -6.04370E+02 -1.60300E+02
 -1.53071E+03 -4.04094E+02 -8.29583E+02  3.35939E+02  1.50974E+02 -7.42814E+02  3.91443E+02 -5.62937E+02
  1.66014E+03 -8.69715E+02  1.01856E+03  1.39540E+02  2.46022E+03  1.27549E+03 -4.75341E+02  2.87704E+03
 -1.53502E+03  4.04840E+03 -3.48206E+03  2.50677E+03 -3.34584E+03 -2.43357E+02 -3.22082E+03 -2.22030E+03
 -1.83399E+03 -3.63637E+03  8.26026E+02 -3.05188E+03  1.71279E+03 -8.32063E+02  1.94410E+03 -1.73129E+02
  1.08048E+03  9.02262E+02 -1.16595E+02  9.17034E+02 -2.77632E+02  5.57098E+02 -1.95361E+02 -1.08811E+03
  9.48722E+02 -7.79727E+02  3.79273E+02  5.00542E+02  5.21826E+02  9.55448E+02  8.43686E+02  1.12914E+03
 -9.09064E+02  1.41713E+03 -2.07248E+03 -1.94417E+02 -1.93477E+03 -1.26509E+03 -1.93470E+02 -2.29289E+03
  9.30384E+02 -2.18720E+03  1.79710E+03 -5.45559E+02  2.06957E+03 -7.61974E+02  6.37558E+02  2.16950E+03
  1.21082E+03  1.76987E+03 -5.00313E+02  1.10739E+03 -1.36447E+03  7.82971E+02 -1.22540E+03  1.17295E+03
  1.37460E+02 -2.31296E+02 -5.97858E+02  4.57921E+02 -1.04580E+03  7.81340E+02 -1.22400E+03 -2.97614E+02
 -1.82937E+03 -9.39495E+02 -5.40756E+02 -2.07063E+03  1.32161E+03 -1.61585E+03  1.42843E+03 -9.81307E+02
  1.77027E+03  6.67427E+02 -5.42773E+01  8.86430E+02  4.24384E+02  1.66812E+03 -1.10276E+03  2.31040E+03
