 $NMID ID='MM_0lb_SNR400_12hz_g55_85.RAW', FMTDAT='(8E13.5)'
 TRAMP=1., VOLUME=1. $END
  3.09857E+05  4.81739E+02  3.37863E+05  2.50963E+05  8.50367E+04  3.38310E+05 -1.32078E+05  2.52067E+05
 -1.91024E+05  8.29835E+04 -1.12037E+05 -3.21555E+04  4.92836E+02 -5.09372E+04  5.35391E+04 -3.38046E+02
  3.57142E+04  5.26361E+04 -1.68945E+04  7.53601E+04 -6.14230E+04  6.43753E+04 -8.40976E+04  3.31206E+04
 -8.19798E+04 -1.20856E+04 -5.76263E+04 -5.15061E+04 -1.48394E+04 -7.11183E+04  2.79420E+04 -4.60015E+04
  4.03796E+04  3.42762E+03  1.63026E+04  4.82919E+04 -3.53546E+04  4.74015E+04 -6.77914E+04 -6.02349E+02
 -5.44966E+04 -5.74785E+04 -7.25549E+03 -7.88339E+04  3.41550E+04 -5.59135E+04  4.88907E+04 -1.81607E+04
  4.46737E+04  1.08614E+04  3.23949E+04  2.61158E+04  1.58042E+04  2.97245E+04 -5.38053E+03  2.81903E+04
 -2.23201E+04  1.27450E+04 -1.82482E+04 -4.84261E+03  6.66256E+03 -7.91405E+03  2.27471E+04  1.31605E+04
  7.44891E+03  3.66522E+04 -3.32941E+04  3.65637E+04 -6.54641E+04  2.50373E+03 -5.77380E+04 -4.36080E+04
 -1.26949E+04 -6.44684E+04  4.11850E+04 -4.73450E+04  6.02385E+04 -2.26168E+03  3.56612E+04  3.35103E+04
 -5.01545E+03  3.79332E+04 -3.02150E+04  1.79127E+04 -3.22856E+04 -4.01112E+03 -1.85493E+04 -1.14375E+04
 -8.64635E+03 -1.46361E+04 -5.42522E+02 -1.90463E+04  7.40557E+03 -2.32248E+04  1.55084E+04 -1.25892E+04
  1.10142E+04  4.80530E+03 -9.96217E+03  1.31611E+04 -2.21830E+04 -5.52258E+03 -8.79394E+03 -3.58884E+04
  2.32200E+04 -4.50263E+04  4.99615E+04 -2.00953E+04  4.77272E+04  2.01302E+04  1.64875E+04  4.59877E+04
 -1.64925E+04  3.50187E+04 -2.69813E+04  2.89462E+03 -1.12277E+04 -2.92780E+04  2.14567E+04 -3.51520E+04
  4.23943E+04 -1.03872E+04  3.83176E+04  2.41044E+04  2.00729E+04  4.82199E+04 -8.41149E+03  5.35427E+04
 -3.35810E+04  3.57698E+04 -4.52066E+04  1.06031E+04 -4.55225E+04 -1.77754E+04 -2.52928E+04 -4.01163E+04
  7.01810E+03 -4.06953E+04  3.28881E+04 -1.62513E+04  3.09689E+04  1.19241E+04  4.18978E+03  2.03913E+04
 -1.38585E+04  8.38922E+03 -1.12165E+04 -8.31938E+03  5.68817E+03 -1.13563E+04  1.82447E+04  6.18826E+03
  1.44488E+04  2.25109E+04 -5.99187E+03  2.65215E+04 -2.26437E+04  1.31791E+04 -3.03084E+04 -3.99559E+03
 -2.28399E+04 -1.76925E+04 -9.68234E+03 -2.29913E+04  4.51351E+03 -2.28196E+04  1.81245E+04 -2.06330E+04
  2.89504E+04 -1.34140E+04  3.55639E+04  3.47746E+03  2.54652E+04  2.25504E+04  4.31942E+03  3.94089E+04
 -1.90616E+04  3.20055E+04 -2.97399E+04  1.14828E+04 -2.18842E+04 -1.04549E+04 -4.63762E+03 -1.33685E+04
  1.53769E+03 -1.43618E+03 -6.33115E+03  7.70936E+03 -1.84825E+04  5.36934E+03 -1.82283E+04 -8.20157E+03
 -1.04093E+04 -2.13452E+04  5.69744E+03 -2.58428E+04  1.69445E+04 -1.85874E+04  2.02840E+04 -1.96601E+03
  1.31207E+04  1.45390E+04 -2.07932E+02  2.13908E+04 -1.48994E+04  1.21160E+04 -2.11644E+04 -4.59472E+03
 -1.49285E+04 -1.98555E+04 -1.73088E+03 -2.54981E+04  1.11333E+04 -2.10035E+04  2.09265E+04 -1.09494E+04
  1.99943E+04 -3.07795E+02  1.42852E+04  4.77882E+03  7.46807E+03  9.25316E+02  1.04745E+04 -1.85371E+03
  1.96765E+04  2.91813E+03  2.28879E+04  1.66839E+04  1.47068E+04  3.37594E+04 -2.83865E+03  3.98863E+04
 -2.23858E+04  3.23332E+04 -3.66319E+04  1.65190E+04 -3.89406E+04 -2.42409E+03 -3.16038E+04 -2.29103E+04
 -1.29210E+04 -3.22911E+04  1.16612E+04 -2.84631E+04  2.44569E+04 -1.36656E+04  2.13964E+04  6.71896E+03
  8.00487E+03  1.70901E+04 -1.02608E+04  1.39928E+04 -1.78386E+04  2.37438E+03 -1.44501E+04 -1.07661E+04
 -2.19324E+02 -1.71156E+04  9.40486E+03 -1.22078E+04  1.20099E+04 -1.09215E+03  2.34592E+03  8.25133E+03
 -6.94675E+03  2.87479E+03 -7.74896E+03 -6.92214E+03 -1.52686E+03 -1.56398E+04  1.07978E+04 -1.74471E+04
  2.01632E+04 -9.68730E+03  2.15788E+04  3.12704E+03  1.86967E+04  1.55516E+04  8.43814E+03  2.45174E+04
 -5.06519E+03  2.64619E+04 -1.79542E+04  1.66153E+04 -1.90148E+04  4.10437E+03 -1.30825E+04 -4.86885E+03
 -6.44298E+03 -7.01829E+03 -7.35353E+02  3.93246E+01 -2.57476E+03  3.29173E+03 -6.23644E+03  4.51799E+03
 -1.21476E+04 -1.41267E+03 -1.24167E+04 -1.02418E+04 -5.01000E+03 -1.73671E+04  5.33093E+03 -1.33867E+04
  1.15379E+04 -5.11652E+03  7.68536E+03  3.66063E+03 -2.23741E+02  5.42617E+03 -6.26543E+03 -2.52269E+02
 -6.43230E+03 -8.46969E+03 -5.14730E+02 -1.29642E+04  7.50345E+03 -1.31798E+04  1.63656E+04 -7.29174E+03
  2.01734E+04  2.38408E+03  1.45747E+04  1.16491E+04  2.65390E+03  1.55587E+04 -8.24965E+03  1.35883E+04
 -1.11218E+04  4.59782E+03 -6.20390E+03 -2.86114E+03  2.62058E+03 -3.50526E+03  7.37897E+03 -8.72743E+02
  6.71666E+03  6.02550E+03  8.26580E+02  1.07911E+04 -7.88185E+03  1.03962E+04 -1.34420E+04  2.47375E+03
 -8.59182E+03 -6.51196E+03  5.02259E+02 -1.11280E+04  6.88411E+03 -5.85131E+03  7.46883E+03  2.01364E+03
  1.64325E+03  7.29191E+03 -6.49491E+03  9.38093E+03 -1.07913E+04  4.12928E+03 -1.08973E+04 -3.58388E+03
 -6.78643E+03 -1.24252E+04  3.14633E+03 -1.44811E+04  1.23009E+04 -8.03128E+03  1.25416E+04  2.26136E+03
  7.63440E+03  1.06270E+04 -1.42998E+03  1.24110E+04 -9.49706E+03  7.15839E+03 -1.02350E+04 -5.53912E+02
 -9.26670E+03 -8.60088E+03 -1.68240E+03 -9.99067E+03  5.13547E+03 -7.91704E+03  5.78098E+03 -3.21792E+03
  4.39102E+03  1.52212E+03 -9.51774E+02  9.24772E+02  4.16060E+01 -2.36848E+03  1.85550E+03 -4.87545E+03
  8.26103E+03 -2.93155E+03  1.15402E+04  7.44504E+02  1.21588E+04  8.20524E+03  8.55588E+03  1.63014E+04
 -3.99151E+03  1.85334E+04 -1.48057E+04  1.38028E+04 -2.06773E+04  1.88933E+03 -1.64549E+04 -7.59948E+03
 -7.49185E+03 -1.38465E+04  6.91279E+00 -1.19279E+04  4.42803E+03 -6.04570E+03  3.21208E+03 -4.36705E+03
  2.79269E+03 -3.33270E+03  2.48535E+03 -3.45865E+03  4.35241E+03 -2.46149E+03  6.54419E+03 -9.44170E+02
  8.03365E+03  1.69751E+03  3.60881E+03  7.39380E+03 -2.12228E+03  7.95123E+03 -9.00358E+03  6.25106E+03
 -1.14180E+04 -1.60673E+03 -6.78850E+03 -8.13837E+03 -1.46055E+03 -1.16310E+04  6.29592E+03 -1.14616E+04
  1.16960E+04 -6.69347E+03  1.49095E+04  1.61466E+03  1.00844E+04  9.76030E+03  1.14668E+03  1.34412E+04
 -5.70442E+03  1.20681E+04 -7.68633E+03  3.75050E+03 -5.56286E+03 -1.45933E+03 -1.89850E+03 -1.61897E+03
 -1.19404E+03  3.83880E+02 -1.18799E+03  3.13271E+03 -4.83412E+03  2.25801E+03 -8.04429E+03 -1.38447E+03
 -5.18272E+03 -7.72501E+03  2.24590E+02 -1.15897E+04  6.36342E+03 -9.67432E+03  1.02252E+04 -2.83926E+03
  1.03606E+04  5.35101E+03  4.57405E+03  9.75492E+03 -1.75548E+03  1.11142E+04 -7.47506E+03  6.29765E+03
 -9.99403E+03  1.23743E+03 -7.64116E+03 -6.46988E+03 -2.45223E+02 -8.98623E+03  4.96424E+03 -6.55135E+03
  7.19837E+03 -2.02350E+03  4.72693E+03  1.42192E+03  1.26242E+03  3.67019E+03  1.13986E+03  1.74940E+03
  2.69076E+03  9.67292E+02  2.54124E+03  1.87280E+03  3.63622E+03  4.23125E+03  2.73698E+03  4.70999E+03
 -2.82193E+03  7.21787E+03 -7.43430E+03  8.95528E+03 -1.07015E+04  2.07675E+03 -1.18740E+04 -4.36851E+03
 -4.68429E+03 -1.01990E+04  1.18200E+03 -1.16231E+04  6.71742E+03 -7.31754E+03  8.37107E+03 -2.16514E+03
  6.89874E+03  4.03059E+03  1.81053E+03  5.82036E+03 -2.70464E+03  3.51824E+03 -3.92836E+03 -6.37218E+02
 -1.86937E+03 -3.98121E+03  2.54355E+03 -4.12951E+03  4.37597E+03 -2.40487E+03  4.59669E+03  1.28561E+03
  2.77507E+03  1.47536E+03  1.27345E+03  1.75848E+03 -3.75858E+02  1.43225E+03  1.01417E+03 -9.61164E+02
  2.18948E+03 -9.44245E+02  4.11785E+03  1.84707E+03  2.16310E+03  6.29313E+03 -4.56118E+02  7.83369E+03
 -5.37333E+03  4.57377E+03 -6.76253E+03  1.52825E+03 -5.25645E+03 -2.57640E+03 -2.15771E+03 -3.64299E+03
  1.16843E+03 -4.17772E+03  2.42642E+03 -2.16584E+03  2.72299E+03  1.84741E+03 -7.38159E+02  3.52195E+03
 -4.02769E+03  1.64368E+03 -4.50646E+03 -2.47268E+03 -2.47031E+03 -5.95244E+03  7.96944E+02 -5.00565E+03
  3.11325E+03 -2.04134E+03  3.36698E+03  1.86527E+02  2.93412E+03  1.10060E+03  9.29293E+02  2.62744E+03
 -2.20015E+03  9.53610E+02 -2.47283E+03 -2.12510E+03  1.73440E+03 -3.01009E+03  4.99622E+03 -2.92948E+03
  6.79062E+03  3.23371E+02  5.76568E+03  4.22460E+03  2.22035E+03  6.26675E+03 -1.96751E+03  5.86404E+03
 -5.35347E+03  2.69976E+03 -5.26296E+03 -9.86532E+02 -4.11872E+03 -4.35165E+03  1.18784E+03 -3.59131E+03
  4.54397E+03 -2.43122E+03  3.14510E+03  1.17421E+03  1.06558E+03  2.90397E+03 -4.78844E+01  2.92043E+03
 -2.27836E+03  2.69718E+03 -1.20081E+03  8.57470E+02 -8.21253E+02  2.26361E+02 -8.74521E+02  8.44386E+02
 -1.86319E+03  3.19005E+03 -4.11492E+03  1.75617E+03 -6.13690E+03 -1.96610E+02 -7.39602E+03 -4.40252E+03
 -4.01600E+03 -8.55902E+03  1.09360E+03 -9.13635E+03  5.53385E+03 -7.84050E+03  9.31212E+03 -3.08768E+03
  8.49903E+03  1.28046E+03  4.60981E+03  5.59228E+03 -2.29785E+02  6.19243E+03 -2.04234E+03  4.43514E+03
 -3.59416E+03  1.24499E+03 -2.05008E+03 -8.63662E+02 -1.17102E+03 -6.67470E+02 -1.44617E+03  2.79646E+02
 -1.19701E+03  9.55022E+01 -9.95989E+02 -2.45359E+01  3.34246E+01 -1.46250E+03 -4.16440E+02 -1.74401E+03
  3.01214E+03 -1.50982E+03  3.59149E+03 -5.01009E+01  3.97771E+03  3.53593E+03  1.33695E+03  6.07956E+03
 -2.84639E+03  6.50756E+03 -6.03438E+03  3.76648E+03 -7.55761E+03  1.68318E+02 -5.31878E+03 -4.76408E+03
 -2.74700E+03 -6.06839E+03  1.45012E+03 -5.45223E+03  4.14316E+03 -2.91161E+03  3.58781E+03  2.56532E+02
  1.76140E+03  2.18064E+03  1.83810E+02  2.16382E+03 -1.30405E+03  3.73044E+02 -1.29449E+02 -1.71643E+03
  1.43328E+03 -1.00974E+03  2.66152E+03  3.89872E+02  2.32037E+03  2.30305E+03  3.30511E+02  2.95359E+03
 -2.81196E+03  2.51787E+03 -4.35001E+03  8.18876E+02 -3.36294E+03 -2.76622E+03 -1.01088E+03 -5.54662E+03
  3.04773E+03 -4.34775E+03  3.25264E+03 -4.66969E+02  5.45163E+03  7.26273E+02  2.12819E+03  3.72152E+03
  5.16918E+02  3.79793E+03 -1.79944E+03  3.29921E+03 -2.77784E+03  1.70820E+03 -2.55433E+03 -2.21630E+02
 -8.64598E+02 -4.14378E+02 -1.51311E+03  1.96035E+02 -1.52419E+03  1.63093E+03 -3.36271E+03 -9.33115E+02
 -3.02962E+03 -1.95302E+03 -1.13268E+03 -4.02532E+03  2.04935E+03 -4.97347E+03  3.42607E+03 -1.95314E+03
  3.59558E+03  5.80460E+02  1.55476E+03  2.27009E+03  2.71853E+02  4.50668E+03 -2.25861E+03  2.50418E+03
