 $NMID ID='MM_0lb_SNR400_16hz_g55_52.RAW', FMTDAT='(8E13.5)'
 TRAMP=1., VOLUME=1. $END
  3.10170E+05  5.96236E+02  3.37960E+05  2.50817E+05  8.47845E+04  3.37137E+05 -1.32436E+05  2.50950E+05
 -1.90469E+05  8.36376E+04 -1.11949E+05 -3.27152E+04  1.29846E+03 -4.98774E+04  5.36019E+04 -3.91495E+02
  3.54266E+04  5.30093E+04 -1.65421E+04  7.58085E+04 -6.05695E+04  6.33648E+04 -8.37386E+04  3.12827E+04
 -8.11306E+04 -1.14261E+04 -5.65218E+04 -5.10523E+04 -1.47685E+04 -6.97242E+04  2.75774E+04 -4.54817E+04
  4.04162E+04  4.03778E+03  1.62662E+04  4.76385E+04 -3.40798E+04  4.74806E+04 -6.65056E+04 -2.89813E+02
 -5.31660E+04 -5.71756E+04 -6.75673E+03 -7.72257E+04  3.37777E+04 -5.50832E+04  4.74031E+04 -1.64332E+04
  4.29865E+04  1.18453E+04  3.10460E+04  2.50547E+04  1.57212E+04  2.93245E+04 -4.61667E+03  2.70967E+04
 -2.19235E+04  1.21881E+04 -1.85382E+04 -4.47411E+03  5.75636E+03 -7.09077E+03  2.23951E+04  1.24593E+04
  7.20438E+03  3.50479E+04 -3.20325E+04  3.50202E+04 -6.29726E+04  2.14875E+03 -5.67780E+04 -4.28333E+04
 -1.25574E+04 -6.28903E+04  3.94069E+04 -4.46369E+04  5.83894E+04 -1.90476E+03  3.38351E+04  3.27685E+04
 -6.45065E+03  3.57622E+04 -2.97936E+04  1.53296E+04 -2.97424E+04 -4.58599E+03 -1.63779E+04 -1.03752E+04
 -8.41951E+03 -1.23938E+04 -1.39884E+02 -1.79926E+04  7.29099E+03 -2.34059E+04  1.56087E+04 -1.32212E+04
  1.16671E+04  4.68041E+03 -7.92542E+03  1.29615E+04 -2.07132E+04 -4.02937E+03 -8.16339E+03 -3.30634E+04
  2.25749E+04 -4.23175E+04  4.75855E+04 -1.94374E+04  4.44829E+04  1.96472E+04  1.50648E+04  4.38214E+04
 -1.51741E+04  3.27376E+04 -2.52457E+04  1.80671E+03 -9.37288E+03 -2.73455E+04  2.03629E+04 -3.33143E+04
  4.04030E+04 -8.87119E+03  3.47835E+04  2.33328E+04  1.76051E+04  4.48854E+04 -8.13676E+03  4.94350E+04
 -3.05330E+04  3.26762E+04 -4.16768E+04  8.90503E+03 -4.14529E+04 -1.59566E+04 -2.29106E+04 -3.74052E+04
  6.82743E+03 -3.65618E+04  3.08203E+04 -1.41707E+04  2.87039E+04  1.08273E+04  3.68214E+03  1.90131E+04
 -1.39030E+04  8.09919E+03 -1.03894E+04 -7.30291E+03  5.57092E+03 -1.04305E+04  1.74264E+04  5.78799E+03
  1.28108E+04  2.17482E+04 -5.53141E+03  2.44529E+04 -2.21978E+04  1.08206E+04 -2.74866E+04 -5.61199E+03
 -1.99824E+04 -1.71691E+04 -8.20161E+03 -1.95896E+04  4.29919E+03 -1.85753E+04  1.51151E+04 -1.68860E+04
  2.47417E+04 -1.23484E+04  3.15398E+04  2.10094E+03  2.32761E+04  1.91330E+04  4.73835E+03  3.55057E+04
 -1.70359E+04  2.95080E+04 -2.82280E+04  1.02554E+04 -2.07222E+04 -1.07473E+04 -4.05823E+03 -1.38398E+04
  2.06865E+03 -3.28886E+03 -4.61281E+03  5.93325E+03 -1.54754E+04  5.37042E+03 -1.50795E+04 -6.27562E+03
 -9.84943E+03 -1.84136E+04  5.12013E+03 -2.25995E+04  1.41128E+04 -1.57142E+04  1.66926E+04 -1.15603E+03
  1.05321E+04  1.29025E+04 -6.86529E+02  1.79046E+04 -1.23246E+04  9.97113E+03 -1.82375E+04 -3.63490E+03
 -1.32251E+04 -1.62909E+04 -2.11721E+03 -2.23323E+04  9.99723E+03 -1.82281E+04  1.86565E+04 -8.04392E+03
  1.71363E+04  7.95566E+02  1.24742E+04  4.46947E+03  6.51449E+03  5.05261E+02  9.30839E+03 -1.72132E+03
  1.64774E+04  2.39076E+03  1.86672E+04  1.45024E+04  1.14680E+04  2.93011E+04 -2.81329E+03  3.21741E+04
 -1.86253E+04  2.55640E+04 -2.98961E+04  1.24035E+04 -3.02054E+04 -2.23928E+03 -2.59465E+04 -1.77851E+04
 -1.08818E+04 -2.51106E+04  8.86451E+03 -2.32152E+04  1.98021E+04 -1.12751E+04  1.78692E+04  4.78634E+03
  7.00992E+03  1.35854E+04 -8.07829E+03  1.21904E+04 -1.50458E+04  2.51117E+03 -1.20987E+04 -8.48983E+03
 -5.45873E+02 -1.43542E+04  7.42987E+03 -1.12852E+04  1.02395E+04 -1.17971E+03  2.19231E+03  5.84000E+03
 -5.89656E+03  2.10305E+03 -5.32086E+03 -5.60115E+03 -4.76900E+02 -1.22439E+04  9.71449E+03 -1.32217E+04
  1.49728E+04 -6.97025E+03  1.61317E+04  2.73501E+03  1.43410E+04  1.14577E+04  6.92960E+03  1.84532E+04
 -2.63478E+03  2.07188E+04 -1.31674E+04  1.24527E+04 -1.50437E+04  3.29495E+03 -1.06094E+04 -2.73745E+03
 -5.07972E+03 -4.75637E+03 -2.89708E+02  1.24565E+03 -2.59274E+03  2.27954E+03 -4.96440E+03  3.91977E+03
 -9.87495E+03 -8.73290E+02 -1.06631E+04 -8.54732E+03 -4.37586E+03 -1.43385E+04  4.82473E+03 -1.03394E+04
  8.55287E+03 -4.51104E+03  6.36951E+03  2.95060E+03  2.98387E+01  3.98914E+03 -4.86500E+03 -7.22478E+02
 -4.52854E+03 -6.72561E+03 -7.67755E+02 -8.95514E+03  5.30647E+03 -1.02097E+04  1.23223E+04 -4.77293E+03
  1.48740E+04  1.40924E+03  1.07006E+04  7.93296E+03  2.01208E+03  1.07502E+04 -6.09206E+03  9.95823E+03
 -8.32513E+03  3.70213E+03 -4.75958E+03 -2.08876E+03  2.10365E+03 -2.59126E+03  5.35330E+03 -1.14280E+03
  4.95953E+03  4.27869E+03  1.31163E+03  8.00766E+03 -5.69124E+03  8.16370E+03 -1.00996E+04  2.13922E+03
 -6.25904E+03 -4.89170E+03  5.84521E+02 -8.47654E+03  5.27333E+03 -3.97452E+03  4.81875E+03  1.69165E+03
  1.41189E+03  4.65923E+03 -5.41683E+03  6.81064E+03 -7.15736E+03  3.10955E+03 -6.81490E+03 -1.91789E+03
 -4.35914E+03 -8.55096E+03  1.88724E+03 -1.03757E+04  8.18205E+03 -6.16626E+03  9.31995E+03  1.00762E+03
  5.60115E+03  7.00028E+03 -6.52109E+02  9.55499E+03 -6.19116E+03  5.18919E+03 -7.55052E+03 -8.01652E+02
 -7.45220E+03 -6.05017E+03 -1.14831E+03 -5.98836E+03  3.28122E+03 -6.48304E+03  4.08178E+03 -2.65475E+03
  2.35939E+03  5.90400E+02 -9.89588E+01  1.66143E+03  3.36791E+02 -1.28318E+03  4.59120E+02 -2.78278E+03
  5.08157E+03 -1.88510E+03  7.73694E+03  8.67514E+02  7.43105E+03  4.95609E+03  6.47565E+03  1.07121E+04
 -2.45748E+03  1.21292E+04 -1.02180E+04  8.44762E+03 -1.36851E+04  1.77911E+03 -1.04341E+04 -3.73630E+03
 -5.76563E+03 -8.74849E+03 -3.23394E+02 -7.56124E+03  2.75021E+03 -3.56115E+03  2.60780E+03 -2.64569E+03
  1.90305E+03 -1.98860E+03  2.36195E+03 -2.32363E+03  4.46845E+03 -2.20398E+03  4.88062E+03  1.46155E+02
  5.56857E+03  1.47087E+03  1.75913E+03  4.78244E+03 -9.68810E+02  4.81754E+03 -6.03458E+03  4.77529E+03
 -7.23771E+03 -9.72866E+02 -3.69505E+03 -5.07515E+03  1.56786E-01 -7.31206E+03  3.75985E+03 -7.69157E+03
  8.25057E+03 -4.19819E+03  8.99742E+03  3.47091E+02  6.73533E+03  5.91462E+03  1.50173E+03  8.61035E+03
 -3.50500E+03  7.49760E+03 -5.14027E+03  2.83669E+03 -3.01117E+03 -1.38493E+03 -6.87522E+02 -1.52856E+03
 -4.13213E+02  6.12490E+02 -1.41251E+03  2.61657E+03 -3.08061E+03  1.40455E+03 -4.56755E+03 -5.80971E+02
 -2.73377E+03 -5.16525E+03  1.02574E+03 -6.52775E+03  4.87090E+03 -6.23321E+03  5.65098E+03 -1.89022E+03
  5.65027E+03  3.00197E+03  2.40156E+03  5.19275E+03 -1.77151E+03  6.26337E+03 -4.42780E+03  3.77264E+03
 -5.28136E+03  1.36703E+03 -4.32738E+03 -3.62899E+03 -1.10936E+03 -4.88452E+03  2.84174E+03 -3.33579E+03
  4.16384E+03 -1.55258E+03  2.39390E+03  7.39285E+02  9.31778E+02  2.40600E+03  6.95667E+02  5.45052E+02
  1.88053E+03  3.36070E+02  1.42893E+03  5.80543E+02  2.60214E+03  2.68190E+03  1.32264E+03  3.05925E+03
 -1.01324E+03  4.95523E+03 -4.09778E+03  5.65471E+03 -5.15470E+03  1.27799E+03 -6.26123E+03 -1.76896E+03
 -2.67783E+03 -5.57042E+03  7.50449E+02 -6.75643E+03  2.84106E+03 -3.76553E+03  5.09254E+03 -1.31703E+03
  3.86007E+03  2.33448E+03  5.44986E+02  3.25577E+03 -1.67997E+03  2.06867E+03 -2.30511E+03 -6.51847E+02
 -6.00604E+02 -2.58916E+03  1.13138E+03 -2.12077E+03  2.41963E+03 -9.86950E+02  1.66339E+03  4.12674E+02
  1.25956E+03  8.03065E+02  1.08637E+03 -6.94461E+01 -3.77536E+02  1.03195E+03  1.43541E+03 -4.04933E+02
  9.17346E+01 -2.87562E+02  2.00735E+03  9.82475E+02  1.21902E+03  3.00632E+03 -1.03939E+02  4.10266E+03
 -2.72328E+03  1.80430E+03 -3.83310E+03  8.36318E+02 -3.66095E+03 -1.04787E+03 -1.13513E+03 -2.20035E+03
  5.40079E+02 -2.26792E+03  1.00257E+03 -5.65064E+02  9.73408E+02  1.19743E+03 -1.32767E+03  1.55793E+03
 -2.06171E+03  1.07169E+03 -1.31075E+03 -1.70195E+03 -1.06937E+03 -2.58502E+03 -1.68321E+01 -2.14978E+03
  9.30843E+02 -1.64210E+03  1.45093E+03  2.95029E+02  1.82291E+03 -7.07735E+02  3.29906E+02  1.51693E+03
 -7.85589E+02  2.19197E+02 -1.54708E+03 -1.33047E+02  9.17889E+02 -1.65367E+03  2.25343E+03 -1.60957E+03
  2.38529E+03  1.70630E+02  3.35073E+03  1.59099E+03  1.88872E+03  2.69734E+03 -7.60030E+02  2.53260E+03
 -2.31298E+03  8.18068E+02 -2.39708E+03 -1.52187E+01 -1.51453E+03 -2.78568E+03  5.82162E+02 -2.23178E+03
  2.55903E+03 -8.99798E+02  1.40281E+03  1.21058E+03  4.72636E+02  1.73315E+03  2.26573E+02  2.21736E+03
 -2.02602E+02  1.17030E+03 -9.67515E+02  6.59926E+02 -3.54098E+02  4.65947E+02 -1.27370E+03  1.16726E+03
 -8.25159E+02  1.52330E+03 -2.90302E+03  9.38559E+02 -3.23689E+03 -4.68690E+02 -3.54894E+03 -1.21000E+03
 -1.46509E+03 -3.76154E+03  7.78106E+02 -3.80637E+03  1.94849E+03 -3.54353E+03  4.33374E+03 -1.55289E+03
  3.69531E+03 -4.17501E+01  2.63835E+03  2.97895E+03 -5.14139E+02  2.73670E+03 -8.87812E+02  2.01518E+03
 -1.39925E+03  7.32114E+02 -9.41200E+02  2.16046E+02 -5.95454E+02  6.40249E+01 -9.52698E+02  1.42069E+02
 -1.16195E+03 -3.56405E+02 -1.10799E+03 -1.53838E+02  1.49637E+02 -1.04009E+03 -5.22374E+02 -1.21152E+03
  2.29123E+03 -1.23731E+03  1.07252E+03  8.53851E+01  1.91650E+03  1.53611E+03  4.23544E+02  2.27763E+03
 -1.41109E+03  2.83547E+03 -2.21865E+03  1.90434E+03 -3.47600E+03 -3.75584E+02 -1.99871E+03 -1.42568E+03
 -1.70101E+03 -2.80451E+03  6.14833E+02 -1.81181E+03  1.20371E+03 -1.22422E+03  1.72555E+03 -3.33062E+01
  1.63807E+03  3.66679E+02  3.09318E+02  5.94770E+02 -1.19037E+03  3.19834E+02 -1.78619E+02 -5.07074E+02
  1.36693E+03  7.09788E+02  7.47133E+02  7.63704E+02  6.13951E+02  4.93143E+02  1.47858E+02  8.20405E+02
 -6.32845E+02  1.03287E+03 -6.02034E+02  4.45712E+02 -1.64656E+03 -7.27519E+02 -5.02462E+02 -2.06018E+03
  1.39574E+03 -1.64902E+03  1.53173E+03 -4.59906E+02  1.48553E+03 -1.20934E+02  8.12791E+02  2.05575E+03
  1.17359E+03  1.57974E+03 -4.26254E+02  1.33072E+03 -5.40517E+02  1.32672E+03 -1.14211E+03  5.39255E+02
  3.05750E+02 -2.20162E+02 -5.24530E+02 -2.54013E+02 -1.35295E+03  4.39010E+02 -1.10192E+03 -1.23549E+02
 -1.24424E+03  5.21774E+01 -5.55781E+02 -1.71515E+03  1.79772E+03 -2.09242E+03  1.56145E+03  1.58197E+02
  1.54625E+03  2.25077E+02  9.30207E+01  1.15836E+03 -3.36942E+02  1.07039E+03 -1.00306E+03  1.47137E+03
