 $NMID ID='MM_0lb_SNR400_8hz_g55_78.RAW', FMTDAT='(8E13.5)'
 TRAMP=1., VOLUME=1. $END
  3.10245E+05 -4.62252E+02  3.37399E+05  2.50916E+05  8.59710E+04  3.38439E+05 -1.32309E+05  2.52367E+05
 -1.91040E+05  8.37992E+04 -1.12984E+05 -3.27847E+04  4.78975E+02 -5.07624E+04  5.36708E+04  3.20158E+02
  3.52209E+04  5.25469E+04 -1.60390E+04  7.63186E+04 -6.15193E+04  6.45720E+04 -8.61107E+04  3.27066E+04
 -8.28117E+04 -1.21012E+04 -5.78304E+04 -5.27585E+04 -1.53876E+04 -7.15114E+04  2.90882E+04 -4.67076E+04
  4.01937E+04  3.99054E+03  1.68492E+04  4.91447E+04 -3.54050E+04  4.93834E+04 -6.84876E+04  5.31923E+02
 -5.56683E+04 -5.85849E+04 -6.75206E+03 -8.04635E+04  3.43580E+04 -5.75708E+04  5.10577E+04 -1.77859E+04
  4.47827E+04  1.11886E+04  3.36629E+04  2.65189E+04  1.58140E+04  3.05570E+04 -5.77267E+03  2.74510E+04
 -2.23880E+04  1.15637E+04 -1.79035E+04 -6.17571E+03  7.19466E+03 -7.62024E+03  2.45954E+04  1.37327E+04
  6.87722E+03  3.84726E+04 -3.44552E+04  3.66983E+04 -6.67509E+04  1.58350E+03 -5.93773E+04 -4.43011E+04
 -1.17566E+04 -6.71717E+04  4.17419E+04 -4.77847E+04  6.22437E+04 -3.19104E+03  3.76979E+04  3.60524E+04
 -6.23164E+03  4.03400E+04 -3.22581E+04  1.89569E+04 -3.36871E+04 -3.28178E+03 -2.01355E+04 -1.14669E+04
 -9.92198E+03 -1.49142E+04  3.25828E+01 -2.00283E+04  8.67643E+03 -2.35905E+04  1.59837E+04 -1.24310E+04
  9.49142E+03  6.47443E+03 -1.11923E+04  1.29971E+04 -2.35712E+04 -7.04437E+03 -8.82315E+03 -3.84593E+04
  2.53081E+04 -4.80504E+04  5.35486E+04 -2.06445E+04  4.99153E+04  2.14164E+04  1.71102E+04  4.86363E+04
 -1.69732E+04  3.75749E+04 -2.90130E+04  2.40981E+03 -1.16486E+04 -2.96694E+04  2.12214E+04 -3.78455E+04
  4.63008E+04 -1.22623E+04  4.16557E+04  2.49045E+04  2.23327E+04  5.30551E+04 -7.58623E+03  5.75243E+04
 -3.64737E+04  3.99316E+04 -4.96383E+04  1.10662E+04 -4.96975E+04 -1.93664E+04 -2.68435E+04 -4.32670E+04
  8.08465E+03 -4.37936E+04  3.49259E+04 -1.67841E+04  3.35234E+04  1.11286E+04  6.50628E+03  2.13116E+04
 -1.40413E+04  1.02139E+04 -1.14811E+04 -7.57232E+03  6.51595E+03 -1.17086E+04  1.83877E+04  5.63041E+03
  1.56712E+04  2.25252E+04 -5.82540E+03  2.73291E+04 -2.32456E+04  1.50461E+04 -3.29690E+04 -1.95688E+03
 -2.70297E+04 -1.88526E+04 -1.31760E+04 -2.63110E+04  4.57135E+03 -2.80006E+04  2.17229E+04 -2.50522E+04
  3.43831E+04 -1.42097E+04  3.96609E+04  5.44313E+03  2.84736E+04  2.50464E+04  4.26096E+03  4.22130E+04
 -2.08522E+04  3.55167E+04 -3.15945E+04  1.20867E+04 -2.32121E+04 -9.68743E+03 -5.09079E+03 -1.19517E+04
  3.74173E+02 -9.17674E+02 -8.58389E+03  9.81697E+03 -2.12539E+04  4.00980E+03 -2.14747E+04 -1.13492E+04
 -1.20844E+04 -2.45320E+04  6.18078E+03 -2.93016E+04  2.07748E+04 -2.00428E+04  2.43382E+04 -1.80487E+03
  1.59908E+04  1.65577E+04 -2.62716E+03  2.47592E+04 -1.69268E+04  1.45607E+04 -2.55383E+04 -6.07813E+03
 -1.79560E+04 -2.20852E+04 -3.02135E+03 -3.00165E+04  1.30074E+04 -2.45944E+04  2.45869E+04 -1.28805E+04
  2.40582E+04 -4.29615E+02  1.66323E+04  5.18823E+03  9.56898E+03  1.63412E+03  1.34172E+04 -2.57453E+03
  2.32217E+04  3.35167E+03  2.77197E+04  1.82750E+04  1.92912E+04  3.97740E+04 -2.38895E+03  4.82191E+04
 -2.75009E+04  4.02141E+04 -4.51520E+04  1.97122E+04 -4.78251E+04 -3.56702E+03 -3.91983E+04 -2.73533E+04
 -1.57340E+04 -4.01622E+04  1.38439E+04 -3.50570E+04  3.01098E+04 -1.67605E+04  2.66629E+04  8.96522E+03
  9.52106E+03  2.01084E+04 -1.32049E+04  1.66926E+04 -2.25037E+04  2.96285E+03 -1.68569E+04 -1.45966E+04
  1.58971E+02 -2.08664E+04  1.09967E+04 -1.47684E+04  1.46692E+04 -1.28878E+03  2.65081E+03  8.93767E+03
 -9.28569E+03  5.03759E+03 -1.00725E+04 -7.77091E+03 -2.59397E+03 -1.84720E+04  1.28027E+04 -2.19972E+04
  2.51697E+04 -1.24392E+04  2.88108E+04  3.77928E+03  2.57357E+04  2.07609E+04  1.16545E+04  3.16482E+04
 -6.13897E+03  3.39374E+04 -2.25618E+04  2.07371E+04 -2.43540E+04  5.10557E+03 -1.69849E+04 -5.74584E+03
 -6.05067E+03 -7.97235E+03  1.22906E+02 -3.02654E+02 -3.01476E+03  3.08623E+03 -8.17224E+03  5.93615E+03
 -1.55725E+04 -1.36960E+03 -1.61088E+04 -1.36000E+04 -6.99953E+03 -2.04758E+04  7.35690E+03 -1.63654E+04
  1.38318E+04 -6.39204E+03  9.34576E+03  4.18809E+03 -8.52687E+02  5.99012E+03 -8.42224E+03  5.55329E+02
 -7.69712E+03 -1.12353E+04 -1.79572E+03 -1.66422E+04  1.02217E+04 -1.79872E+04  2.19652E+04 -9.61535E+03
  2.54761E+04  1.97244E+03  1.83706E+04  1.67553E+04  3.83576E+03  2.20948E+04 -1.12846E+04  1.78440E+04
 -1.48344E+04  5.98449E+03 -7.89896E+03 -4.38402E+03  1.48058E+03 -4.86389E+03  9.34760E+03 -1.02150E+03
  8.28893E+03  8.22242E+03  3.29957E+02  1.41873E+04 -1.06048E+04  1.26256E+04 -1.66021E+04  3.21218E+03
 -1.23320E+04 -9.51650E+03 -1.16028E+02 -1.46171E+04  1.01435E+04 -7.03183E+03  1.06763E+04  2.65403E+03
  2.39272E+03  1.14498E+04 -8.82303E+03  1.21494E+04 -1.54132E+04  5.71816E+03 -1.58820E+04 -5.75963E+03
 -9.34335E+03 -1.74205E+04  4.47668E+03 -2.06844E+04  1.77772E+04 -1.22307E+04  1.90298E+04  3.38289E+03
  1.14828E+04  1.64447E+04 -2.72211E+03  1.65313E+04 -1.22612E+04  1.00079E+04 -1.53071E+04 -6.24120E+02
 -1.20904E+04 -1.20793E+04 -1.82492E+03 -1.43353E+04  6.74956E+03 -1.05443E+04  8.55269E+03 -3.60595E+03
  5.75518E+03  2.96057E+03 -1.36955E+03  2.05747E+03 -1.22298E+03 -3.98870E+03  3.19007E+03 -9.25896E+03
  1.25844E+04 -4.60864E+03  1.82223E+04  1.56592E+03  1.76380E+04  1.29804E+04  1.11554E+04  2.37748E+04
 -5.30817E+03  2.77576E+04 -2.17317E+04  2.01967E+04 -2.90536E+04  4.80832E+03 -2.37576E+04 -1.05077E+04
 -1.29033E+04 -1.92616E+04  7.99284E+01 -1.67687E+04  6.13222E+03 -9.56533E+03  6.23493E+03 -5.61417E+03
  3.95093E+03 -4.66630E+03  4.42974E+03 -4.32239E+03  6.11277E+03 -4.01840E+03  9.47888E+03 -2.45157E+03
  1.15420E+04  2.87869E+03  7.15740E+03  1.09179E+04 -3.29057E+03  1.33316E+04 -1.24063E+04  9.79151E+03
 -1.71946E+04 -1.37684E+03 -1.07314E+04 -1.17843E+04 -1.78636E+03 -1.83864E+04  1.00385E+04 -1.85175E+04
  1.86548E+04 -1.03644E+04  2.27429E+04  3.82495E+03  1.58073E+04  1.58999E+04  2.99873E+03  2.00918E+04
 -9.64349E+03  1.66954E+04 -1.22552E+04  5.57695E+03 -8.00292E+03 -2.07742E+03 -3.69737E+03 -1.25539E+03
 -1.99404E+03 -5.67126E+02 -3.06264E+03  2.32189E+03 -6.92879E+03  3.37314E+03 -1.14148E+04 -8.74090E+02
 -8.58346E+03 -1.13956E+04 -1.09838E+03 -1.64142E+04  1.02942E+04 -1.54674E+04  1.68213E+04 -4.70082E+03
  1.78245E+04  8.68825E+03  8.15617E+03  1.55675E+04 -4.16981E+03  1.69487E+04 -1.25806E+04  9.81374E+03
 -1.66794E+04  9.03997E+02 -1.29635E+04 -1.06602E+04 -1.38392E+03 -1.39593E+04  7.05708E+03 -1.12028E+04
  1.07685E+04 -3.27937E+03  7.66353E+03  2.93480E+03  1.70583E+03  4.95203E+03  1.16559E+03  2.46167E+03
  3.35228E+03  1.03662E+03  4.39315E+03  2.09903E+03  5.06201E+03  6.35102E+03  4.97139E+03  1.00149E+04
 -2.71568E+03  1.46117E+04 -1.17977E+04  1.37572E+04 -1.81681E+04  3.08184E+03 -1.82455E+04 -7.79088E+03
 -9.07051E+03 -1.80186E+04  3.12542E+03 -1.91886E+04  1.09531E+04 -1.13624E+04  1.42351E+04 -2.90268E+03
  1.15605E+04  6.71003E+03  2.28961E+03  1.00487E+04 -5.16071E+03  7.59782E+03 -7.84050E+03 -1.66188E+03
 -3.74824E+03 -8.38427E+03  3.39576E+03 -7.58440E+03  7.56444E+03 -3.76553E+03  6.49331E+03  1.41179E+03
  4.62899E+03  4.34335E+03  2.40505E+03  2.99655E+03 -5.50429E+02  2.16657E+03  9.68332E+02 -1.03946E+03
  2.87496E+03  1.50331E+02  7.62805E+03  3.03415E+03  3.68415E+03  1.02154E+04 -8.95068E+02  1.27992E+04
 -8.69244E+03  9.16745E+03 -1.17702E+04  2.36899E+03 -1.02665E+04 -3.87432E+03 -4.66978E+03 -6.20450E+03
  1.29757E+03 -7.26750E+03  5.04038E+03 -3.37459E+03  4.33197E+03  2.94481E+03 -1.95903E+03  6.27090E+03
 -8.06587E+03  4.01904E+03 -8.97544E+03 -4.21128E+03 -4.96563E+03 -9.41127E+03  1.56557E+03 -1.05952E+04
  5.82850E+03 -6.69220E+03  7.60954E+03 -7.14982E+02  6.60610E+03  3.41097E+03  5.30446E+02  5.35995E+03
 -3.81361E+03  2.22225E+03 -4.37294E+03 -3.51861E+03  2.16975E+03 -7.47748E+03  9.14315E+03 -5.69202E+03
  1.14985E+04  6.81511E+02  1.18826E+04  7.64835E+03  2.88969E+03  1.18402E+04 -4.56848E+03  1.20426E+04
 -9.14305E+03  5.80510E+03 -9.80000E+03 -1.01584E+03 -6.37347E+03 -7.35920E+03  1.59120E+03 -7.77587E+03
  7.47079E+03 -3.49694E+03  6.46227E+03  2.68910E+03  1.84325E+03  6.57437E+03 -2.33666E+03  6.13953E+03
 -3.14642E+03  3.21941E+03 -3.30735E+03  1.58793E+03 -1.36290E+03  1.00598E+03 -1.62889E+03  2.23179E+03
 -3.46442E+03  3.97708E+03 -8.40788E+03  4.41738E+03 -1.26695E+04 -5.46636E+02 -1.44135E+04 -8.52731E+03
 -7.07379E+03 -1.57728E+04  2.77021E+03 -1.84678E+04  1.16548E+04 -1.49207E+04  1.80278E+04 -6.26394E+03
  1.69400E+04  4.07472E+03  1.02361E+04  1.04499E+04  7.03367E+02  1.32779E+04 -5.04609E+03  9.84854E+03
 -6.50986E+03  3.31768E+03 -4.69514E+03 -1.11482E+03 -1.00220E+03 -1.20056E+03 -3.51785E+02 -4.89958E+02
 -2.16734E+03 -9.58985E+00 -2.27277E+03 -6.54857E+02 -7.22614E+02 -3.39690E+03  7.11562E+02 -4.27432E+03
  6.01848E+03 -4.17469E+03  7.60450E+03 -2.43173E+02  9.31889E+03  6.75436E+03  2.65963E+03  1.30105E+04
 -5.79041E+03  1.43105E+04 -1.41224E+04  8.77536E+03 -1.57367E+04 -1.92759E+03 -1.18260E+04 -9.41177E+03
 -4.50450E+03 -1.37738E+04  3.13425E+03 -1.20018E+04  9.01153E+03 -6.64467E+03  8.00073E+03  1.29350E+03
  5.12399E+03  4.37562E+03 -1.44027E+03  4.36004E+03 -2.54401E+03 -1.47831E+02  4.76001E+02 -2.99152E+03
  3.08966E+03 -1.55428E+03  5.54500E+03  1.53164E+03  3.44007E+03  5.95311E+03 -3.35412E+02  6.97072E+03
 -6.35390E+03  6.22280E+03 -9.13081E+03  6.66092E+02 -7.61442E+03 -5.89512E+03 -9.65072E+02 -1.07439E+04
  6.21016E+03 -9.94205E+03  1.04010E+04 -3.40162E+03  1.03998E+04  2.37905E+03  5.98468E+03  8.90360E+03
  7.05821E+02  8.95888E+03 -3.16610E+03  7.10420E+03 -5.83844E+03  3.87747E+03 -4.95415E+03  2.02508E+02
 -1.36391E+03 -2.64015E+02 -1.74698E+03  1.26914E+03 -4.59165E+03  1.52851E+03 -6.98910E+03 -9.44825E+02
 -5.65913E+03 -5.02912E+03 -3.19027E+03 -8.96138E+03  5.16904E+03 -9.87538E+03  8.01173E+03 -4.11795E+03
  9.19602E+03  5.65494E+02  5.73940E+03  6.34713E+03  2.13099E+02  8.10809E+03 -7.20061E+03  6.36643E+03
