 $NMID ID='MM_0lb_SNR400_13hz_g40_100.RAW', FMTDAT='(8E13.5)'
 TRAMP=1., VOLUME=1. $END
  3.09104E+05  4.05544E+02  3.37799E+05  2.50531E+05  8.38126E+04  3.38000E+05 -1.33133E+05  2.50832E+05
 -1.89989E+05  8.28596E+04 -1.11373E+05 -3.25149E+04  5.57653E+02 -5.04847E+04  5.36466E+04 -1.65180E+02
  3.56479E+04  5.27680E+04 -1.74797E+04  7.54190E+04 -6.08025E+04  6.37875E+04 -8.36870E+04  3.25660E+04
 -8.08036E+04 -1.17617E+04 -5.74226E+04 -5.09782E+04 -1.47109E+04 -6.90810E+04  2.76629E+04 -4.60732E+04
  3.94862E+04  3.59240E+03  1.70514E+04  4.75022E+04 -3.44122E+04  4.67118E+04 -6.63460E+04 -8.74106E+02
 -5.34600E+04 -5.68028E+04 -6.03310E+03 -7.65035E+04  3.38780E+04 -5.40717E+04  4.84396E+04 -1.71351E+04
  4.29628E+04  1.08232E+04  3.21236E+04  2.55788E+04  1.57910E+04  2.93473E+04 -5.26887E+03  2.71912E+04
 -2.23182E+04  1.16634E+04 -1.82254E+04 -5.45415E+03  5.85640E+03 -7.45530E+03  2.21252E+04  1.19573E+04
  6.70909E+03  3.55572E+04 -3.23133E+04  3.51398E+04 -6.28543E+04  2.96648E+03 -5.75621E+04 -4.26420E+04
 -1.28052E+04 -6.28578E+04  3.96333E+04 -4.51556E+04  5.89073E+04 -2.58699E+03  3.36907E+04  3.28940E+04
 -6.34377E+03  3.57262E+04 -2.99482E+04  1.54766E+04 -2.94403E+04 -4.52798E+03 -1.61597E+04 -1.15765E+04
 -8.67277E+03 -1.34332E+04 -6.58765E+02 -1.86328E+04  7.65793E+03 -2.28715E+04  1.49694E+04 -1.32611E+04
  1.14814E+04  5.40957E+03 -8.53219E+03  1.28209E+04 -2.13227E+04 -3.89985E+03 -8.02635E+03 -3.37418E+04
  2.21512E+04 -4.30184E+04  4.81813E+04 -1.96009E+04  4.45707E+04  1.96032E+04  1.56796E+04  4.34311E+04
 -1.58153E+04  3.22692E+04 -2.57448E+04  2.45821E+03 -9.72361E+03 -2.76786E+04  2.13020E+04 -3.42456E+04
  4.08945E+04 -9.14551E+03  3.48165E+04  2.30748E+04  1.80390E+04  4.70530E+04 -7.85257E+03  5.02351E+04
 -3.15633E+04  3.36676E+04 -4.25016E+04  9.77244E+03 -4.29787E+04 -1.65103E+04 -2.38001E+04 -3.82872E+04
  7.33847E+03 -3.82095E+04  3.20654E+04 -1.45291E+04  2.91743E+04  1.11443E+04  3.72656E+03  1.97399E+04
 -1.29467E+04  8.07896E+03 -1.02247E+04 -7.75561E+03  6.10411E+03 -1.00841E+04  1.78175E+04  6.20233E+03
  1.30392E+04  2.23329E+04 -5.77082E+03  2.48932E+04 -2.25132E+04  1.09960E+04 -2.79307E+04 -4.63489E+03
 -2.06755E+04 -1.76151E+04 -8.36452E+03 -2.07560E+04  4.43446E+03 -1.95842E+04  1.54983E+04 -1.81494E+04
  2.58647E+04 -1.33495E+04  3.24264E+04  2.91672E+03  2.39933E+04  1.98544E+04  4.54393E+03  3.68909E+04
 -1.76634E+04  3.06281E+04 -2.86730E+04  1.07716E+04 -2.05026E+04 -1.04931E+04 -4.25274E+03 -1.36488E+04
  1.26660E+03 -2.33034E+03 -4.86824E+03  6.28463E+03 -1.57653E+04  4.84213E+03 -1.59275E+04 -6.74336E+03
 -9.78961E+03 -1.88411E+04  5.67728E+03 -2.35033E+04  1.56867E+04 -1.60842E+04  1.84246E+04 -2.69147E+03
  1.19831E+04  1.38555E+04 -1.02915E+03  1.86289E+04 -1.29898E+04  1.09537E+04 -1.90804E+04 -3.62812E+03
 -1.39569E+04 -1.69241E+04 -1.66971E+03 -2.31381E+04  1.05028E+04 -1.85319E+04  1.91950E+04 -9.38845E+03
  1.76332E+04  7.34958E+02  1.29048E+04  4.56631E+03  6.91220E+03  9.06060E+02  9.61684E+03 -1.93966E+03
  1.83658E+04  3.20338E+03  1.93498E+04  1.49797E+04  1.24257E+04  3.03010E+04 -2.47237E+03  3.48406E+04
 -2.04439E+04  2.74678E+04 -3.22353E+04  1.30864E+04 -3.33549E+04 -1.66321E+03 -2.74624E+04 -1.97746E+04
 -1.17999E+04 -2.76897E+04  9.53372E+03 -2.50326E+04  2.16216E+04 -1.27733E+04  1.93279E+04  5.69390E+03
  7.43049E+03  1.45767E+04 -9.05094E+03  1.26433E+04 -1.64723E+04  2.30123E+03 -1.27101E+04 -1.04064E+04
 -3.55619E+02 -1.57924E+04  8.05376E+03 -1.15875E+04  1.01062E+04 -1.76778E+03  2.40239E+03  7.18765E+03
 -6.88501E+03  2.35306E+03 -6.07938E+03 -6.23434E+03 -5.93904E+02 -1.37866E+04  1.04975E+04 -1.41434E+04
  1.68909E+04 -8.19473E+03  1.84453E+04  3.27434E+03  1.57949E+04  1.29470E+04  7.51670E+03  2.07285E+04
 -2.91150E+03  2.29292E+04 -1.52550E+04  1.39780E+04 -1.63068E+04  3.84173E+03 -1.16381E+04 -4.00878E+03
 -5.18548E+03 -4.87358E+03 -5.46574E+02  1.23279E+03 -2.19980E+03  3.29328E+03 -5.35478E+03  4.24365E+03
 -1.11143E+04 -5.73453E+02 -1.10799E+04 -8.97889E+03 -4.44549E+03 -1.49762E+04  4.57604E+03 -1.17517E+04
  9.26482E+03 -5.28685E+03  7.36274E+03  2.94910E+03 -5.80342E+02  4.01427E+03 -5.81436E+03 -6.88333E+02
 -5.50385E+03 -7.26770E+03 -7.76433E+02 -1.05372E+04  6.52970E+03 -1.19790E+04  1.43051E+04 -6.16605E+03
  1.65059E+04  1.02015E+03  1.29177E+04  9.73723E+03  1.37923E+03  1.30946E+04 -6.99759E+03  1.15804E+04
 -9.24175E+03  4.08130E+03 -4.65072E+03 -2.71015E+03  2.41836E+03 -3.61096E+03  6.17367E+03 -1.76970E+03
  5.80171E+03  5.00447E+03  1.30047E+03  8.81805E+03 -5.61100E+03  9.23588E+03 -1.17762E+04  2.59333E+03
 -7.43297E+03 -4.91925E+03  6.34280E+02 -9.46463E+03  5.64894E+03 -4.72171E+03  6.23417E+03  1.66660E+03
  1.35157E+03  6.27309E+03 -5.24102E+03  7.64348E+03 -8.65705E+03  3.73014E+03 -8.86354E+03 -2.36675E+03
 -4.86417E+03 -1.01949E+04  2.71201E+03 -1.14831E+04  9.46483E+03 -7.25993E+03  1.05006E+04  1.94376E+03
  6.69884E+03  7.84056E+03 -3.84768E+02  1.06627E+04 -7.32875E+03  6.06718E+03 -8.53727E+03 -8.35139E+02
 -8.28976E+03 -7.98054E+03 -1.44537E+03 -8.17711E+03  4.51374E+03 -6.85569E+03  4.97360E+03 -2.85512E+03
  3.53767E+03  7.46517E+02  1.43262E+02  1.57155E+03  3.87676E+02 -2.21592E+03  1.19749E+03 -4.21904E+03
  7.73262E+03 -2.79769E+03  9.47423E+03  6.01633E+02  1.02581E+04  6.03511E+03  6.94376E+03  1.31072E+04
 -2.45256E+03  1.51641E+04 -1.31449E+04  1.07107E+04 -1.60673E+04  1.69890E+03 -1.29731E+04 -5.29112E+03
 -6.44730E+03 -1.11852E+04  2.07999E+02 -9.80920E+03  3.29548E+03 -4.37318E+03  3.06990E+03 -3.84212E+03
  2.64050E+03 -2.00262E+03  2.61714E+03 -3.77176E+03  4.60984E+03 -2.24996E+03  6.18870E+03 -9.00540E+02
  6.44794E+03  1.17803E+03  3.64518E+03  6.07558E+03 -2.14971E+03  6.03074E+03 -7.45046E+03  4.67270E+03
 -8.94052E+03 -7.62628E+02 -4.94097E+03 -6.51061E+03 -3.65939E+02 -9.29425E+03  5.01257E+03 -1.02304E+04
  9.84008E+03 -5.88191E+03  1.13047E+04  1.57565E+03  8.35781E+03  8.19105E+03  1.46690E+03  1.08128E+04
 -4.14209E+03  9.35898E+03 -6.06790E+03  3.05591E+03 -4.24570E+03 -5.94682E+02 -1.78231E+03 -1.35191E+03
 -6.29410E+02 -9.54619E+01 -1.27582E+03  2.01581E+03 -3.75536E+03  2.13926E+03 -6.50752E+03 -8.89247E+02
 -4.12229E+03 -6.54019E+03  2.35308E+02 -8.94087E+03  5.16619E+03 -7.97930E+03  8.06691E+03 -2.02315E+03
  8.00700E+03  3.88534E+03  3.64728E+03  7.28195E+03 -1.28556E+03  9.37268E+03 -6.15006E+03  6.06536E+03
 -7.87981E+03  2.88476E+02 -6.90696E+03 -4.88251E+03 -1.02049E+03 -6.90144E+03  3.31306E+03 -5.78558E+03
  5.53546E+03 -2.04206E+03  3.86717E+03  1.62135E+03  6.65637E+02  2.91547E+03  9.81476E+02  7.11960E+02
  1.98030E+03  5.88947E+02  2.60867E+03  1.62103E+03  2.13059E+03  3.78715E+03  1.92959E+03  4.06376E+03
 -2.37535E+03  6.35005E+03 -5.35622E+03  7.42813E+03 -8.34321E+03  1.77475E+03 -8.49062E+03 -2.66351E+03
 -4.60159E+03 -8.33200E+03  2.05116E+03 -9.57566E+03  5.06346E+03 -6.09168E+03  6.04096E+03 -1.57083E+03
  5.68464E+03  3.15792E+03  1.12917E+03  5.19651E+03 -2.02006E+03  3.05195E+03 -3.26958E+03  1.05546E+02
 -1.28138E+03 -3.37151E+03  1.84908E+03 -3.63507E+03  2.85115E+03 -1.59958E+03  2.86427E+03  4.88982E+02
  1.77341E+03  1.59865E+03  1.08149E+03  1.19516E+03 -6.68294E+02  1.07158E+03  1.96040E+03 -1.22261E+03
  9.64104E+02 -9.59068E+01  3.48543E+03  1.45943E+03  1.33417E+03  5.14563E+03 -1.48736E+03  5.80794E+03
 -4.04642E+03  2.89632E+03 -5.14748E+03  1.46061E+03 -4.71129E+03 -1.95857E+03 -1.40129E+03 -2.83023E+03
  8.07057E+02 -3.40095E+03  2.27508E+03 -1.54773E+03  2.12614E+03  1.49831E+03 -7.98098E+02  3.21371E+03
 -2.96460E+03  1.63175E+03 -3.68447E+03 -1.63695E+03 -2.77352E+03 -4.46654E+03  4.86051E+02 -4.07708E+03
  2.26646E+03 -2.02398E+03  2.59910E+03 -1.76225E+02  2.45961E+03  1.00202E+03  7.75023E+01  2.10698E+03
 -1.70670E+03  5.89413E+02 -1.75095E+03 -1.07049E+03  8.50936E+02 -3.03272E+03  3.68007E+03 -2.69335E+03
  4.01549E+03  1.71883E+02  4.51981E+03  2.92241E+03  1.91350E+03  4.30699E+03 -7.45378E+02  4.80413E+03
 -3.95423E+03  1.11832E+03 -4.08338E+03 -8.96539E+01 -2.88578E+03 -3.66274E+03  1.13071E+03 -3.18730E+03
  3.94766E+03 -1.54691E+03  2.54431E+03  1.63448E+03  4.31667E+02  2.35724E+03 -1.34105E+02  2.76611E+03
 -1.56005E+03  1.57578E+03 -1.65404E+03  2.60344E+02 -2.02142E+02  2.26470E+02 -1.18377E+03  1.43201E+03
 -1.50302E+03  2.10367E+03 -3.80901E+03  1.24702E+03 -4.38048E+03  1.49893E+02 -5.99451E+03 -3.27804E+03
 -3.16541E+03 -6.25990E+03  1.56231E+03 -7.77897E+03  4.01534E+03 -6.17959E+03  7.09212E+03 -1.71082E+03
  6.23868E+03  7.36091E+02  3.80883E+03  3.59735E+03  6.19205E+02  4.35226E+03 -2.66860E+03  3.30839E+03
 -2.18712E+03  1.77178E+03 -1.74277E+03 -3.23673E+02 -3.93370E+02 -5.84185E+02 -9.32801E+02  9.01796E+01
 -1.59666E+03  3.85892E+02 -1.46860E+03  6.51552E+01 -9.07735E+01 -7.93484E+02  8.62631E+00 -1.21347E+03
  2.28806E+03 -2.15655E+03  2.20700E+03 -5.02571E+02  3.42779E+03  2.88467E+03  4.81239E+02  4.28092E+03
 -1.99644E+03  5.07330E+03 -5.27782E+03  2.89151E+03 -5.91712E+03 -5.02765E+02 -3.95414E+03 -3.18820E+03
 -2.28799E+03 -5.11185E+03  9.90192E+02 -4.65316E+03  3.15355E+03 -2.12904E+03  2.35081E+03 -1.44196E+02
  2.14651E+03  1.44464E+03 -6.67271E+02  1.24858E+03 -1.12461E+03  1.32795E+02  1.22567E+02 -5.70601E+02
  1.65535E+03 -3.23681E+02  2.00705E+03  1.53830E+03  1.02960E+03  1.44036E+03  4.04923E+02  1.61379E+03
 -2.20707E+03  1.74401E+03 -3.22714E+03  2.41369E+02 -2.99124E+03 -1.88368E+03 -4.93043E+02 -3.69911E+03
  2.10658E+03 -2.53612E+03  2.65866E+03 -7.93670E+02  3.18818E+03  2.63208E+00  1.96358E+03  3.03145E+03
  6.93239E+02  2.04552E+03 -7.19400E+02  1.99185E+03 -1.91992E+03  1.62338E+03 -1.63605E+03 -1.19959E+01
 -7.00010E+02 -1.19460E+01 -8.79605E+02  2.06497E+02 -1.66852E+03  4.05853E+02 -2.24584E+03 -3.64189E+02
 -2.30637E+03 -1.13937E+03 -5.29871E+02 -3.51821E+03  2.12036E+03 -3.83936E+03  2.40547E+03 -1.22217E+03
  2.94912E+03  3.13361E+02  9.37236E+02  1.66463E+03 -7.48415E+01  3.22696E+03 -1.53697E+03  1.95640E+03
