 $NMID ID='MM_0lb_SNR400_7hz_g60_5.RAW', FMTDAT='(8E13.5)'
 TRAMP=1., VOLUME=1. $END
  3.10555E+05 -6.23810E+02  3.38578E+05  2.50921E+05  8.51882E+04  3.38352E+05 -1.32883E+05  2.52618E+05
 -1.90419E+05  8.38789E+04 -1.12775E+05 -3.13976E+04 -2.69189E+02 -5.03004E+04  5.39849E+04 -2.08775E+02
  3.54545E+04  5.37426E+04 -1.68270E+04  7.59076E+04 -6.17414E+04  6.53120E+04 -8.61209E+04  3.26299E+04
 -8.26006E+04 -1.13741E+04 -5.94756E+04 -5.29403E+04 -1.40969E+04 -7.21270E+04  2.89296E+04 -4.64166E+04
  4.18534E+04  3.25537E+03  1.69126E+04  4.88871E+04 -3.46711E+04  4.81845E+04 -6.93758E+04 -2.42777E+02
 -5.62280E+04 -5.78216E+04 -7.60492E+03 -8.00681E+04  3.57587E+04 -5.84959E+04  5.11427E+04 -1.82175E+04
  4.61402E+04  1.16087E+04  3.41482E+04  2.67707E+04  1.60618E+04  3.10564E+04 -6.59285E+03  2.89006E+04
 -2.18479E+04  1.05361E+04 -1.77305E+04 -6.48477E+03  7.59201E+03 -7.23559E+03  2.45192E+04  1.47685E+04
  6.85138E+03  3.93503E+04 -3.49047E+04  3.79499E+04 -6.75258E+04  1.74025E+03 -5.99936E+04 -4.53624E+04
 -1.29049E+04 -6.74662E+04  4.39788E+04 -4.89761E+04  6.29267E+04 -2.55736E+03  3.80653E+04  3.54977E+04
 -6.45479E+03  4.07663E+04 -3.37304E+04  2.06830E+04 -3.52265E+04 -2.94867E+03 -2.07474E+04 -1.30205E+04
 -1.02019E+04 -1.64365E+04 -6.26529E+02 -2.04714E+04  8.58670E+03 -2.48753E+04  1.69184E+04 -1.18120E+04
  9.74892E+03  6.70407E+03 -1.16672E+04  1.27387E+04 -2.57110E+04 -7.91718E+03 -8.58400E+03 -4.03749E+04
  2.73155E+04 -4.90155E+04  5.39978E+04 -2.17782E+04  5.07860E+04  2.10036E+04  1.82560E+04  4.95700E+04
 -1.69693E+04  3.79513E+04 -2.86532E+04  3.28375E+03 -1.20122E+04 -3.07428E+04  2.15154E+04 -3.86456E+04
  4.77008E+04 -1.21295E+04  4.37086E+04  2.63239E+04  2.44298E+04  5.40085E+04 -8.62021E+03  5.89891E+04
 -3.79435E+04  4.06829E+04 -5.07274E+04  1.22826E+04 -5.15253E+04 -2.04964E+04 -2.82437E+04 -4.49562E+04
  7.32318E+03 -4.44592E+04  3.55231E+04 -1.88946E+04  3.38871E+04  1.12895E+04  4.98651E+03  2.21872E+04
 -1.44726E+04  9.63056E+03 -1.11010E+04 -8.08211E+03  5.74120E+03 -1.21011E+04  1.87402E+04  5.34700E+03
  1.62223E+04  2.36008E+04 -5.09456E+03  2.80032E+04 -2.38062E+04  1.65204E+04 -3.38526E+04 -1.69523E+03
 -2.85222E+04 -1.95927E+04 -1.39850E+04 -2.72249E+04  4.11903E+03 -2.90896E+04  2.20096E+04 -2.57665E+04
  3.63880E+04 -1.47373E+04  4.17530E+04  6.80784E+03  2.88062E+04  2.66928E+04  4.42370E+03  4.43415E+04
 -2.12846E+04  3.61260E+04 -3.20385E+04  1.35921E+04 -2.33621E+04 -1.00052E+04 -6.06897E+03 -1.25271E+04
 -5.53685E+01 -7.94738E+02 -9.64467E+03  8.74405E+03 -2.28569E+04  5.60809E+03 -2.26209E+04 -1.18085E+04
 -1.35155E+04 -2.66075E+04  7.26885E+03 -3.13202E+04  2.11396E+04 -2.08541E+04  2.54282E+04 -1.90029E+03
  1.62581E+04  1.84826E+04 -2.27266E+03  2.65288E+04 -1.87343E+04  1.40913E+04 -2.68747E+04 -4.85189E+03
 -1.98429E+04 -2.42364E+04 -3.39969E+03 -3.12416E+04  1.36117E+04 -2.59145E+04  2.60171E+04 -1.34057E+04
  2.47190E+04  2.37155E+02  1.76736E+04  4.79951E+03  9.94975E+03  2.34735E+03  1.36471E+04 -2.79603E+03
  2.52170E+04  2.93355E+03  2.99542E+04  2.06591E+04  1.92747E+04  4.26121E+04 -2.63065E+03  5.11587E+04
 -2.85419E+04  4.33648E+04 -4.78348E+04  2.28720E+04 -5.22171E+04 -3.23749E+03 -4.15790E+04 -3.08388E+04
 -1.56390E+04 -4.33201E+04  1.50280E+04 -3.80051E+04  3.20583E+04 -1.72996E+04  2.77238E+04  8.78327E+03
  7.40498E+03  2.15301E+04 -1.39556E+04  1.68466E+04 -2.36903E+04  2.92765E+03 -1.76203E+04 -1.38947E+04
  1.41375E+02 -2.15537E+04  1.25564E+04 -1.65663E+04  1.53828E+04 -2.24144E+02  3.15384E+03  1.06962E+04
 -1.05797E+04  4.57101E+03 -1.10845E+04 -8.10273E+03 -2.57329E+03 -2.13075E+04  1.29008E+04 -2.38957E+04
  2.77976E+04 -1.33423E+04  3.08070E+04  3.85996E+03  2.70457E+04  2.13039E+04  1.27541E+04  3.45048E+04
 -6.84156E+03  3.78140E+04 -2.54669E+04  2.25182E+04 -2.67678E+04  3.69518E+03 -1.81917E+04 -7.14416E+03
 -6.98201E+03 -8.64689E+03 -1.14445E+02  6.02448E+02 -3.01342E+03  3.58287E+03 -9.87073E+03  6.12905E+03
 -1.63597E+04 -8.58099E+02 -1.64837E+04 -1.39122E+04 -7.08641E+03 -2.24694E+04  7.72862E+03 -1.92423E+04
  1.56116E+04 -7.65605E+03  1.12220E+04  5.66379E+03 -5.67019E+02  6.82716E+03 -9.68804E+03 -1.93302E+02
 -9.31292E+03 -1.18522E+04 -1.97867E+03 -1.94420E+04  1.18504E+04 -2.04479E+04  2.32040E+04 -1.07061E+04
  2.84532E+04  2.42713E+03  2.14443E+04  1.80041E+04  3.41579E+03  2.38844E+04 -1.13666E+04  1.77417E+04
 -1.50286E+04  4.42602E+03 -8.32946E+03 -4.62294E+03  2.94854E+03 -4.91328E+03  9.54649E+03 -1.06158E+03
  8.70674E+03  8.79868E+03  1.18024E+03  1.53417E+04 -1.09236E+04  1.49374E+04 -1.82359E+04  3.10603E+03
 -1.40728E+04 -9.91806E+03 -5.50245E+02 -1.66972E+04  1.10824E+04 -8.92455E+03  1.21113E+04  4.05927E+03
  2.90930E+03  1.20432E+04 -9.30597E+03  1.44359E+04 -1.67620E+04  7.24357E+03 -1.85409E+04 -5.60005E+03
 -1.00734E+04 -1.95849E+04  5.24158E+03 -2.32649E+04  1.97013E+04 -1.29488E+04  2.17172E+04  3.30301E+03
  1.21885E+04  1.76500E+04 -1.25056E+03  1.82470E+04 -1.40444E+04  1.17450E+04 -1.56107E+04 -2.04743E+03
 -1.33895E+04 -1.23530E+04 -2.08092E+03 -1.47349E+04  7.98833E+03 -1.11091E+04  9.63051E+03 -3.72978E+03
  5.19832E+03  2.17610E+03 -1.80726E+03  2.19048E+03 -9.79797E+02 -4.57061E+03  4.21101E+03 -1.02257E+04
  1.46340E+04 -7.14613E+03  2.01719E+04  2.02358E+03  2.04249E+04  1.49957E+04  1.16523E+04  2.69772E+04
 -5.69891E+03  3.13817E+04 -2.46630E+04  2.23591E+04 -3.28438E+04  4.28929E+03 -2.55068E+04 -1.30006E+04
 -1.30661E+04 -2.15364E+04 -2.22027E+02 -1.93055E+04  7.08838E+03 -1.09389E+04  7.34231E+03 -7.15428E+03
  5.02978E+03 -3.78658E+03  4.86448E+03 -3.58200E+03  6.55197E+03 -4.25341E+03  1.10108E+04 -1.80514E+03
  1.35004E+04  3.17847E+03  7.08182E+03  1.23708E+04 -2.43263E+03  1.54280E+04 -1.42145E+04  1.18794E+04
 -1.96712E+04 -1.93404E+03 -1.28174E+04 -1.33604E+04 -2.76423E+03 -2.09289E+04  1.03850E+04 -1.99203E+04
  2.16097E+04 -1.14267E+04  2.61193E+04  3.75887E+03  1.80589E+04  1.83038E+04  2.55751E+03  2.33362E+04
 -9.75128E+03  1.89552E+04 -1.39923E+04  6.49270E+03 -9.31928E+03 -1.77671E+03 -4.78431E+03 -3.07458E+03
 -1.56591E+03 -8.83618E+02 -3.32008E+03  4.77904E+03 -6.83401E+03  2.49793E+03 -1.33248E+04 -1.76599E+03
 -9.35617E+03 -1.29490E+04 -8.43750E+02 -1.97056E+04  1.21083E+04 -1.76006E+04  1.98076E+04 -6.03872E+03
  1.90098E+04  8.41253E+03  8.86320E+03  1.86939E+04 -4.06724E+03  2.04366E+04 -1.52517E+04  1.27391E+04
 -1.77284E+04  8.51840E+02 -1.41272E+04 -1.17362E+04 -1.00162E+03 -1.73262E+04  8.60014E+03 -1.14012E+04
  1.25340E+04 -2.93252E+03  9.45448E+03  3.90833E+03  3.28123E+03  5.31463E+03  1.11755E+03  2.88650E+03
  2.51490E+03  9.25633E+02  5.72444E+03  2.17786E+03  6.28074E+03  7.31722E+03  5.05285E+03  1.11162E+04
 -4.08757E+03  1.63033E+04 -1.49118E+04  1.68558E+04 -2.19813E+04  2.98309E+03 -2.15338E+04 -1.02527E+04
 -9.64765E+03 -2.07974E+04  3.64746E+03 -2.27464E+04  1.15002E+04 -1.46495E+04  1.66152E+04 -2.85940E+03
  1.36427E+04  7.63469E+03  2.68460E+03  1.22357E+04 -6.99698E+03  8.50581E+03 -9.43999E+03 -1.25779E+03
 -4.22705E+03 -8.27648E+03  4.38845E+03 -9.30941E+03  8.64645E+03 -3.83619E+03  8.75333E+03  2.18146E+03
  5.46281E+03  3.35477E+03  1.19116E+03  3.71304E+03 -1.70096E+03  2.23417E+03  2.60992E+03 -3.62140E+02
  4.20538E+03 -1.96794E+03  8.75249E+03  3.34486E+03  4.79290E+03  1.15947E+04 -9.75002E+02  1.37253E+04
 -8.77079E+03  9.48549E+03 -1.35066E+04  2.29347E+03 -1.22936E+04 -5.02968E+03 -4.74922E+03 -8.60688E+03
  1.37224E+03 -8.19447E+03  6.37597E+03 -4.40332E+03  5.26102E+03  4.28876E+03 -2.25421E+03  7.89148E+03
 -8.85678E+03  3.74464E+03 -1.03460E+04 -4.28057E+03 -6.45507E+03 -1.16388E+04  2.57240E+03 -1.14595E+04
  7.31384E+03 -7.87560E+03  9.10266E+03 -4.49973E+02  7.08451E+03  4.71625E+03  1.31254E+03  5.90478E+03
 -5.63980E+03  1.12338E+03 -5.60669E+03 -5.26978E+03  2.44380E+03 -9.79610E+03  1.04811E+04 -7.96128E+03
  1.40416E+04  1.98519E+03  1.37202E+04  1.02542E+04  4.12841E+03  1.50320E+04 -6.45054E+03  1.36160E+04
 -1.25003E+04  7.36562E+03 -1.34794E+04 -2.99787E+03 -6.61486E+03 -1.05870E+04  2.11721E+03 -9.37704E+03
  8.87429E+03 -4.69858E+03  8.46707E+03  3.54126E+03  2.61950E+03  7.66424E+03 -4.61189E+02  7.41626E+03
 -3.34037E+03  4.78098E+03 -4.21768E+03  1.85308E+03 -2.06398E+03  5.84909E+02 -2.83487E+03  2.56888E+03
 -3.52914E+03  5.38975E+03 -9.99097E+03  4.27642E+03 -1.56157E+04  4.74331E+01 -1.63083E+04 -9.68367E+03
 -9.15539E+03 -1.90669E+04  4.15189E+03 -2.32637E+04  1.50916E+04 -1.80709E+04  2.20119E+04 -6.07471E+03
  2.10001E+04  5.21886E+03  1.32173E+04  1.44558E+04  1.11202E+03  1.63587E+04 -5.67751E+03  1.26817E+04
 -8.04008E+03  3.75799E+03 -5.83220E+03 -2.27994E+03 -1.30970E+03 -1.98384E+03 -1.07224E+03  2.35351E+02
 -2.27000E+03  9.48436E+01 -2.82098E+03 -9.03746E+02 -1.67423E+03 -3.98465E+03  5.90406E+02 -6.22780E+03
  7.04937E+03 -4.91017E+03  1.04361E+04 -4.35710E+02  1.16588E+04  8.06623E+03  4.11291E+03  1.65860E+04
 -7.44104E+03  1.84396E+04 -1.73361E+04  1.10049E+04 -1.91068E+04 -1.20962E+03 -1.50384E+04 -1.18096E+04
 -6.11301E+03 -1.61322E+04  3.66840E+03 -1.52752E+04  1.09944E+04 -8.46225E+03  1.07488E+04  8.31879E+02
  5.45412E+03  5.24378E+03 -5.48633E+02  4.28148E+03 -3.62970E+03 -1.34987E+02  4.53831E+02 -3.78595E+03
  4.30941E+03 -2.10332E+03  8.00058E+03  2.58627E+03  4.94423E+03  6.83135E+03  1.56127E+02  9.55391E+03
 -6.98915E+03  7.47590E+03 -1.13976E+04  1.71676E+03 -9.64109E+03 -8.12693E+03 -1.43991E+03 -1.51508E+04
  7.84729E+03 -1.15880E+04  1.30431E+04 -4.08394E+03  1.29207E+04  2.97712E+03  6.88243E+03  1.05949E+04
 -1.20110E+02  1.13643E+04 -3.39194E+03  8.47607E+03 -7.44032E+03  3.89414E+03 -6.35756E+03  8.34393E+02
 -2.95380E+03  4.96242E+01 -3.05888E+03  1.63961E+03 -5.57463E+03  2.26966E+03 -8.90004E+03 -1.95644E+03
 -7.78897E+03 -6.12416E+03 -2.98409E+03 -1.05351E+04  4.70115E+03 -1.20699E+04  1.07576E+04 -6.01584E+03
  1.06892E+04  2.48882E+03  6.99218E+03  8.33823E+03 -6.65697E+02  1.09197E+04 -9.20637E+03  8.06955E+03
