 $NMID ID='MM_0lb_SNR400_7hz_g50_5.RAW', FMTDAT='(8E13.5)'
 TRAMP=1., VOLUME=1. $END
  3.10878E+05  4.56858E+02  3.37961E+05  2.50376E+05  8.46588E+04  3.38680E+05 -1.33331E+05  2.51824E+05
 -1.91867E+05  8.43458E+04 -1.12682E+05 -3.24464E+04 -6.12088E+02 -5.12766E+04  5.43835E+04  7.27353E+02
  3.53708E+04  5.32571E+04 -1.70253E+04  7.59659E+04 -6.07089E+04  6.44181E+04 -8.65894E+04  3.31051E+04
 -8.35203E+04 -1.27993E+04 -5.77688E+04 -5.29482E+04 -1.56070E+04 -7.08250E+04  2.84369E+04 -4.64958E+04
  4.24547E+04  3.15934E+03  1.74495E+04  4.77022E+04 -3.52365E+04  4.86808E+04 -6.91085E+04  2.69535E+02
 -5.58057E+04 -5.80352E+04 -7.30298E+03 -8.04380E+04  3.53554E+04 -5.69484E+04  5.04533E+04 -1.94354E+04
  4.53837E+04  1.14052E+04  3.36060E+04  2.73981E+04  1.62450E+04  3.13537E+04 -5.01086E+03  2.76410E+04
 -2.30508E+04  1.19208E+04 -1.77304E+04 -5.56447E+03  7.53667E+03 -7.62167E+03  2.44228E+04  1.45025E+04
  7.40277E+03  3.83388E+04 -3.40083E+04  3.87176E+04 -6.63967E+04  2.70576E+03 -5.93284E+04 -4.47592E+04
 -1.30872E+04 -6.73070E+04  4.17042E+04 -4.82949E+04  6.19313E+04 -2.61281E+03  3.88183E+04  3.57531E+04
 -5.24894E+03  4.02455E+04 -3.24557E+04  2.03663E+04 -3.47069E+04 -4.08143E+03 -2.09611E+04 -1.18842E+04
 -1.06284E+04 -1.63610E+04  3.86811E+02 -2.10242E+04  8.49055E+03 -2.37628E+04  1.49195E+04 -1.18113E+04
  1.05067E+04  6.18962E+03 -1.19244E+04  1.31029E+04 -2.43902E+04 -7.51170E+03 -7.16517E+03 -3.86075E+04
  2.57560E+04 -4.89371E+04  5.32638E+04 -2.14324E+04  5.08385E+04  2.04622E+04  1.82639E+04  4.91940E+04
 -1.66892E+04  3.68538E+04 -2.84981E+04  3.01124E+03 -1.23630E+04 -2.90769E+04  2.19592E+04 -3.86045E+04
  4.57869E+04 -1.17175E+04  4.27530E+04  2.53172E+04  2.25350E+04  5.38129E+04 -8.39241E+03  5.82656E+04
 -3.71890E+04  4.04885E+04 -4.96675E+04  1.04603E+04 -4.92891E+04 -1.90314E+04 -2.64234E+04 -4.31890E+04
  8.01490E+03 -4.30298E+04  3.57720E+04 -1.84609E+04  3.22696E+04  1.06336E+04  6.56412E+03  2.15206E+04
 -1.37295E+04  1.02741E+04 -1.12583E+04 -6.81269E+03  5.06578E+03 -1.08692E+04  2.00280E+04  5.21425E+03
  1.46304E+04  2.17892E+04 -5.22550E+03  2.76570E+04 -2.30970E+04  1.54793E+04 -3.35796E+04 -2.67869E+03
 -2.73444E+04 -1.90312E+04 -1.27660E+04 -2.70085E+04  4.59530E+03 -2.71715E+04  2.24406E+04 -2.50081E+04
  3.50118E+04 -1.51017E+04  4.13604E+04  5.04462E+03  2.83383E+04  2.67505E+04  4.69468E+03  4.27907E+04
 -2.11898E+04  3.51668E+04 -3.09504E+04  1.10661E+04 -2.32629E+04 -9.90927E+03 -5.26582E+03 -1.26812E+04
  4.23202E+02 -4.51974E+02 -8.83574E+03  9.36528E+03 -2.13643E+04  5.30195E+03 -2.18948E+04 -1.12410E+04
 -1.27741E+04 -2.42132E+04  6.93009E+03 -2.98047E+04  2.05221E+04 -2.16474E+04  2.42890E+04 -2.24271E+03
  1.58780E+04  1.72752E+04 -2.47229E+03  2.49510E+04 -1.76628E+04  1.40027E+04 -2.58485E+04 -4.86395E+03
 -1.76188E+04 -2.25587E+04 -2.38312E+03 -3.05135E+04  1.37782E+04 -2.50998E+04  2.49531E+04 -1.31196E+04
  2.36493E+04 -7.92275E+02  1.86800E+04  5.31998E+03  9.01194E+03  3.11190E+03  1.36951E+04 -2.21077E+03
  2.41578E+04  2.60732E+03  2.72284E+04  1.96881E+04  1.85179E+04  4.11753E+04 -2.92481E+03  4.92125E+04
 -2.83622E+04  4.13025E+04 -4.67147E+04  2.14304E+04 -5.00237E+04 -3.58301E+03 -4.02468E+04 -2.90991E+04
 -1.55073E+04 -4.19757E+04  1.57132E+04 -3.57714E+04  3.08131E+04 -1.64969E+04  2.64867E+04  1.02922E+04
  8.37579E+03  1.94645E+04 -1.17874E+04  1.62574E+04 -2.11477E+04  1.72534E+03 -1.64663E+04 -1.45812E+04
 -7.22735E+02 -2.19045E+04  1.17321E+04 -1.47868E+04  1.53585E+04 -1.40336E+03  3.82750E+03  9.52868E+03
 -9.94949E+03  3.82647E+03 -1.04913E+04 -8.49787E+03 -2.37785E+03 -2.00801E+04  1.30514E+04 -2.26989E+04
  2.60585E+04 -1.34441E+04  2.94791E+04  2.74637E+03  2.59605E+04  2.03920E+04  1.24992E+04  3.34518E+04
 -7.30093E+03  3.47025E+04 -2.31439E+04  2.13089E+04 -2.55622E+04  3.75892E+03 -1.79300E+04 -6.76499E+03
 -6.40408E+03 -9.49022E+03 -2.46765E+02 -5.85196E+02 -3.84076E+03  4.02572E+03 -8.42070E+03  5.94125E+03
 -1.59051E+04 -1.54302E+03 -1.69140E+04 -1.26099E+04 -6.57603E+03 -2.22039E+04  7.96173E+03 -1.72164E+04
  1.48714E+04 -7.86214E+03  1.03519E+04  4.96758E+03  2.55284E+02  7.58133E+03 -9.61510E+03 -3.05746E+02
 -9.05870E+03 -1.15394E+04 -1.75083E+03 -1.82508E+04  1.00351E+04 -1.93179E+04  2.30690E+04 -1.00511E+04
  2.76723E+04  2.01606E+03  1.97190E+04  1.68177E+04  3.98074E+03  2.27532E+04 -1.12123E+04  1.75501E+04
 -1.41811E+04  5.04227E+03 -6.86995E+03 -2.92109E+03  2.36325E+03 -5.44943E+03  9.08804E+03 -1.67794E+03
  8.43508E+03  7.64036E+03  1.23979E+03  1.49419E+04 -1.00995E+04  1.43512E+04 -1.85431E+04  3.53413E+03
 -1.33478E+04 -9.47081E+03  1.66263E+02 -1.46793E+04  9.74192E+03 -7.97199E+03  1.13534E+04  3.44803E+03
  2.63067E+03  1.20056E+04 -1.00486E+04  1.35581E+04 -1.57782E+04  6.07094E+03 -1.72072E+04 -6.97976E+03
 -9.45757E+03 -1.86500E+04  4.73017E+03 -2.11833E+04  1.85366E+04 -1.29995E+04  1.98415E+04  3.98269E+03
  1.15884E+04  1.55162E+04 -1.96602E+03  1.83230E+04 -1.35073E+04  1.01112E+04 -1.47160E+04 -1.37295E+03
 -1.15510E+04 -1.21268E+04 -1.64552E+03 -1.39383E+04  7.63170E+03 -1.14698E+04  8.92913E+03 -3.14686E+03
  5.38731E+03  1.98597E+03 -2.23035E+03  3.10838E+03 -7.31358E+02 -4.98018E+03  3.50469E+03 -8.43933E+03
  1.36419E+04 -6.59408E+03  2.07255E+04  1.78850E+03  1.88660E+04  1.34959E+04  1.19547E+04  2.51423E+04
 -5.34904E+03  2.86513E+04 -2.50335E+04  2.07196E+04 -3.13401E+04  3.02635E+03 -2.40843E+04 -1.05606E+04
 -1.29019E+04 -2.08639E+04 -4.84165E+02 -1.79685E+04  6.78070E+03 -1.04052E+04  5.38244E+03 -5.72661E+03
  5.16822E+03 -3.29836E+03  4.10091E+03 -4.68983E+03  6.60981E+03 -5.09967E+03  9.89647E+03 -2.56961E+03
  1.27300E+04  2.37176E+03  7.36252E+03  1.22122E+04 -1.56597E+03  1.38199E+04 -1.32387E+04  9.87136E+03
 -1.80650E+04 -1.30473E+03 -1.25722E+04 -1.16361E+04 -1.62058E+03 -1.95242E+04  1.04517E+04 -1.92724E+04
  2.06890E+04 -1.04594E+04  2.42354E+04  3.10215E+03  1.60282E+04  1.70085E+04  3.18318E+03  2.20502E+04
 -8.19732E+03  1.73500E+04 -1.20667E+04  5.65777E+03 -9.49972E+03 -2.30297E+03 -4.16105E+03 -2.83970E+03
 -1.21050E+03 -2.64588E+02 -2.26425E+03  3.04871E+03 -7.57899E+03  2.46642E+03 -1.17855E+04 -1.95888E+03
 -9.51677E+03 -1.24282E+04 -4.51575E+02 -1.87917E+04  1.21313E+04 -1.68175E+04  1.81241E+04 -5.48607E+03
  1.81898E+04  9.03362E+03  8.98490E+03  1.70052E+04 -3.41972E+03  2.00503E+04 -1.42893E+04  1.17199E+04
 -1.79356E+04  1.76521E+02 -1.32467E+04 -1.09170E+04 -2.01525E+03 -1.55110E+04  8.68369E+03 -1.22023E+04
  1.14392E+04 -3.81004E+03  7.09268E+03  3.89217E+03  2.97845E+03  5.57804E+03  1.92079E+03  2.44940E+03
  3.65756E+03  1.34464E+03  4.75474E+03  1.25013E+03  5.57109E+03  6.46767E+03  5.05109E+03  1.14511E+04
 -2.48491E+03  1.46196E+04 -1.33573E+04  1.43217E+04 -1.99882E+04  3.20235E+03 -2.11496E+04 -9.17805E+03
 -9.51670E+03 -1.99022E+04  3.30408E+03 -2.07259E+04  1.11644E+04 -1.38316E+04  1.65353E+04 -3.20645E+03
  1.15566E+04  7.41150E+03  2.87553E+03  1.07289E+04 -5.37542E+03  7.29711E+03 -8.28393E+03 -1.74349E+03
 -3.11766E+03 -7.90023E+03  4.75772E+03 -8.00959E+03  8.25660E+03 -4.12979E+03  7.95857E+03  9.82585E+02
  4.53140E+03  4.00971E+03  2.40037E+03  3.52990E+03 -1.48426E+03  2.96510E+03  2.08558E+03 -8.03474E+02
  3.45227E+03 -1.13269E+03  6.61354E+03  3.53888E+03  5.24567E+03  1.10599E+04 -2.13785E+03  1.45115E+04
 -9.80131E+03  8.82728E+03 -1.27652E+04  2.27072E+03 -1.15454E+04 -4.46363E+03 -4.28355E+03 -7.71178E+03
  9.00969E+02 -7.09922E+03  5.45370E+03 -4.55051E+03  4.67821E+03  3.76103E+03 -2.48453E+03  6.92856E+03
 -7.67114E+03  3.22414E+03 -9.57847E+03 -4.41253E+03 -5.45379E+03 -1.08696E+04  9.19063E+02 -1.07344E+04
  7.11244E+03 -7.00300E+03  7.76532E+03 -2.20330E+03  6.48083E+03  3.40315E+03  1.36110E+03  6.18300E+03
 -4.39521E+03  1.84133E+03 -4.91796E+03 -4.22120E+03  1.60937E+03 -9.11117E+03  9.53164E+03 -8.18387E+03
  1.26012E+04  9.73286E+02  1.20278E+04  8.61351E+03  4.16664E+03  1.30465E+04 -5.02147E+03  1.23176E+04
 -1.13934E+04  6.22601E+03 -1.22641E+04 -2.64867E+03 -7.18823E+03 -8.76662E+03  3.12892E+03 -9.18634E+03
  9.16077E+03 -4.55492E+03  7.05035E+03  3.02786E+03  2.34265E+03  6.69466E+03 -1.31374E+03  6.93755E+03
 -3.81779E+03  4.94571E+03 -3.69992E+03  1.66482E+03 -1.88274E+03  5.96298E+02 -2.74984E+03  3.55936E+03
 -2.56109E+03  5.21831E+03 -8.45910E+03  4.20670E+03 -1.39768E+04  6.27054E+02 -1.47845E+04 -8.87585E+03
 -8.30044E+03 -1.92303E+04  2.58708E+03 -2.05665E+04  1.37708E+04 -1.64423E+04  2.07423E+04 -5.46513E+03
  1.84810E+04  5.33075E+03  1.11878E+04  1.25821E+04  1.94496E+03  1.51081E+04 -5.97293E+03  1.08144E+04
 -8.68511E+03  3.39576E+03 -5.54597E+03 -2.19840E+03 -1.65478E+03 -1.97634E+03 -4.70347E+02 -1.77821E+01
 -2.57947E+03 -4.40449E+01 -2.32134E+03 -3.23869E+02 -1.49226E+03 -2.84020E+03  3.96881E+02 -4.86068E+03
  6.22969E+03 -4.92792E+03  8.47898E+03  2.76963E+02  1.05804E+04  8.77063E+03  3.26545E+03  1.46117E+04
 -6.88023E+03  1.66495E+04 -1.47863E+04  9.70738E+03 -1.80302E+04 -1.31969E+03 -1.36795E+04 -1.09774E+04
 -5.85175E+03 -1.47580E+04  4.54933E+03 -1.40499E+04  1.02154E+04 -7.46804E+03  1.00403E+04 -7.44322E+02
  5.25794E+03  4.75883E+03  1.33695E+02  4.09386E+03 -3.45431E+03 -4.25097E+02 -1.41261E+02 -3.14579E+03
  5.40744E+03 -1.62962E+03  6.93423E+03  2.08752E+03  3.54200E+03  6.43494E+03  1.75054E+02  7.99348E+03
 -7.17151E+03  6.65066E+03 -1.04792E+04  5.34950E+02 -8.27312E+03 -7.72895E+03 -1.20622E+03 -1.38737E+04
  7.35618E+03 -1.11275E+04  1.26101E+04 -2.76905E+03  1.19663E+04  3.49179E+03  6.68823E+03  9.37727E+03
  1.77700E+03  9.76486E+03 -3.74259E+03  7.20241E+03 -6.53894E+03  4.25506E+03 -5.45377E+03  6.80311E+02
 -3.12003E+03  5.26249E+02 -2.92227E+03  1.65102E+03 -4.22168E+03  2.20046E+03 -7.96652E+03 -2.11202E+03
 -8.52591E+03 -6.42845E+03 -1.79843E+03 -9.52234E+03  4.85399E+03 -1.09712E+04  9.16358E+03 -5.02259E+03
  1.05080E+04  8.78572E+02  6.19712E+03  8.17531E+03 -1.26486E+03  1.04277E+04 -8.57608E+03  6.13652E+03
