 $NMID ID='MM_0lb_SNR400_7hz_g45_14.RAW', FMTDAT='(8E13.5)'
 TRAMP=1., VOLUME=1. $END
  3.09781E+05  1.51190E+03  3.38763E+05  2.50628E+05  8.49558E+04  3.37931E+05 -1.31980E+05  2.52040E+05
 -1.90517E+05  8.38622E+04 -1.12787E+05 -3.24889E+04  6.46445E+02 -5.04267E+04  5.36431E+04 -9.36593E+02
  3.62989E+04  5.20394E+04 -1.73854E+04  7.62070E+04 -6.10214E+04  6.53895E+04 -8.55177E+04  3.28448E+04
 -8.25976E+04 -1.25441E+04 -5.89253E+04 -5.26938E+04 -1.40425E+04 -7.10758E+04  2.81112E+04 -4.70206E+04
  4.16047E+04  3.25350E+03  1.74820E+04  4.81559E+04 -3.53277E+04  4.84289E+04 -6.89421E+04 -1.18292E+02
 -5.43239E+04 -5.86936E+04 -7.66147E+03 -8.00358E+04  3.50911E+04 -5.78370E+04  5.03721E+04 -1.94475E+04
  4.61150E+04  1.21948E+04  3.38946E+04  2.61859E+04  1.60121E+04  3.08654E+04 -5.57900E+03  2.73481E+04
 -2.18298E+04  1.19631E+04 -1.82908E+04 -5.50407E+03  7.38079E+03 -8.18978E+03  2.39089E+04  1.40502E+04
  7.11467E+03  3.88146E+04 -3.44720E+04  3.71189E+04 -6.67666E+04  1.86202E+03 -5.90196E+04 -4.49995E+04
 -1.23213E+04 -6.73098E+04  4.21635E+04 -4.74554E+04  6.26309E+04 -1.76613E+03  3.76921E+04  3.54467E+04
 -5.04310E+03  4.08740E+04 -3.27873E+04  1.97105E+04 -3.40014E+04 -3.20673E+03 -2.02395E+04 -1.18606E+04
 -1.00440E+04 -1.53028E+04 -6.97857E+02 -2.01914E+04  8.59893E+03 -2.37315E+04  1.65205E+04 -1.25416E+04
  1.02270E+04  6.48876E+03 -1.09077E+04  1.28946E+04 -2.44036E+04 -7.39785E+03 -8.27915E+03 -3.91063E+04
  2.62964E+04 -4.79129E+04  5.38959E+04 -2.10888E+04  4.93071E+04  2.16950E+04  1.78184E+04  4.74051E+04
 -1.73755E+04  3.69109E+04 -2.80404E+04  2.22947E+03 -1.23022E+04 -2.98158E+04  2.15131E+04 -3.66942E+04
  4.60290E+04 -1.28642E+04  4.18638E+04  2.49364E+04  2.18732E+04  5.29404E+04 -8.67979E+03  5.85299E+04
 -3.63302E+04  3.95191E+04 -4.91127E+04  1.13745E+04 -4.87185E+04 -1.89197E+04 -2.68825E+04 -4.38173E+04
  8.42349E+03 -4.29545E+04  3.52403E+04 -1.89396E+04  3.31302E+04  1.11631E+04  6.09280E+03  2.09095E+04
 -1.43686E+04  1.02523E+04 -1.13085E+04 -7.37340E+03  5.12104E+03 -1.20083E+04  1.82936E+04  6.50751E+03
  1.50177E+04  2.25698E+04 -4.99186E+03  2.71894E+04 -2.41446E+04  1.60982E+04 -3.21463E+04 -2.27362E+03
 -2.66463E+04 -1.89494E+04 -1.18490E+04 -2.64202E+04  4.97150E+03 -2.87829E+04  2.18838E+04 -2.40086E+04
  3.39069E+04 -1.47127E+04  4.07142E+04  5.62923E+03  2.83525E+04  2.67523E+04  3.72687E+03  4.37054E+04
 -2.07270E+04  3.52332E+04 -3.18989E+04  1.23907E+04 -2.18873E+04 -1.02941E+04 -5.02705E+03 -1.27354E+04
  1.03461E+02 -3.03819E+02 -8.39569E+03  8.79475E+03 -2.08905E+04  5.67487E+03 -2.10804E+04 -1.06790E+04
 -1.31352E+04 -2.53483E+04  6.25903E+03 -2.97314E+04  1.93968E+04 -2.15304E+04  2.36104E+04 -8.20647E+02
  1.56072E+04  1.77129E+04 -1.43722E+03  2.41505E+04 -1.82876E+04  1.41514E+04 -2.41728E+04 -4.16785E+03
 -1.84717E+04 -2.21144E+04 -1.85037E+03 -2.88859E+04  1.29534E+04 -2.50422E+04  2.49833E+04 -1.29636E+04
  2.32747E+04 -3.89941E+02  1.72183E+04  5.73723E+03  8.54928E+03  2.93136E+03  1.27310E+04 -1.57768E+03
  2.42600E+04  3.16662E+03  2.82543E+04  1.91525E+04  1.88952E+04  4.02065E+04 -2.42266E+03  4.79138E+04
 -2.69932E+04  4.06464E+04 -4.52132E+04  2.15748E+04 -4.90278E+04 -2.90629E+03 -3.86940E+04 -2.78985E+04
 -1.45820E+04 -4.10583E+04  1.50651E+04 -3.48641E+04  2.87155E+04 -1.60205E+04  2.52703E+04  8.60199E+03
  8.00184E+03  2.02808E+04 -1.33196E+04  1.65183E+04 -2.20696E+04  2.62845E+03 -1.66925E+04 -1.42894E+04
 -4.30856E+02 -2.05229E+04  1.26868E+04 -1.52564E+04  1.41470E+04 -1.62485E+03  4.04003E+03  9.17976E+03
 -9.05577E+03  4.85108E+03 -9.65730E+03 -6.48690E+03 -3.16690E+03 -1.91618E+04  1.25485E+04 -2.18147E+04
  2.47350E+04 -1.21798E+04  2.98396E+04  3.00638E+03  2.55584E+04  2.06794E+04  1.13958E+04  3.23613E+04
 -6.36641E+03  3.49421E+04 -2.28904E+04  2.14199E+04 -2.48009E+04  4.17109E+03 -1.71482E+04 -7.10444E+03
 -7.65321E+03 -7.31119E+03 -6.81134E+02  4.33214E+02 -3.14233E+03  4.21176E+03 -9.01626E+03  5.27718E+03
 -1.63994E+04 -1.49682E+03 -1.53674E+04 -1.13244E+04 -6.49822E+03 -2.17288E+04  6.74761E+03 -1.77647E+04
  1.39278E+04 -7.24107E+03  1.05102E+04  3.79247E+03 -7.44043E+02  6.83032E+03 -8.16754E+03  8.29783E+02
 -8.77320E+03 -1.13561E+04 -1.95914E+03 -1.91487E+04  1.12439E+04 -1.85786E+04  2.25647E+04 -9.65404E+03
  2.57021E+04  2.96971E+03  1.89677E+04  1.68726E+04  3.16571E+03  2.13046E+04 -1.12749E+04  1.73384E+04
 -1.41008E+04  5.05028E+03 -6.84377E+03 -3.89671E+03  1.95649E+03 -4.83977E+03  9.71492E+03 -9.12515E+02
  8.13682E+03  7.63371E+03  9.69987E+02  1.41525E+04 -1.07322E+04  1.41651E+04 -1.69730E+04  3.25986E+03
 -1.20143E+04 -9.33617E+03  6.92362E+02 -1.49520E+04  9.45496E+03 -7.88233E+03  1.06410E+04  3.75881E+03
  2.19367E+03  1.20116E+04 -9.72369E+03  1.31512E+04 -1.53391E+04  5.45800E+03 -1.70810E+04 -6.61685E+03
 -1.01684E+04 -1.83609E+04  4.96785E+03 -2.17309E+04  1.73959E+04 -1.27602E+04  1.84028E+04  2.98214E+03
  1.10627E+04  1.54882E+04 -2.73470E+03  1.77501E+04 -1.35611E+04  1.00497E+04 -1.43585E+04 -1.59374E+03
 -1.22611E+04 -1.26421E+04 -1.97161E+03 -1.40340E+04  8.71165E+03 -1.14369E+04  9.41216E+03 -3.51879E+03
  6.40112E+03  3.07597E+03 -8.63107E+02  2.12301E+03 -8.41176E+02 -5.11525E+03  2.22650E+03 -8.72973E+03
  1.31027E+04 -5.69637E+03  1.86518E+04  2.14397E+03  1.74103E+04  1.36606E+04  1.09208E+04  2.54749E+04
 -6.21783E+03  2.80398E+04 -2.30517E+04  2.04265E+04 -3.02341E+04  3.43046E+03 -2.47473E+04 -1.00294E+04
 -1.21952E+04 -2.09054E+04  4.17303E+02 -1.70480E+04  5.14976E+03 -1.01245E+04  6.91137E+03 -7.10396E+03
  4.70052E+03 -3.97906E+03  3.94107E+03 -4.37143E+03  6.76810E+03 -3.44799E+03  9.48548E+03 -1.31340E+03
  1.21863E+04  2.89620E+03  7.56784E+03  1.12966E+04 -2.05029E+03  1.44548E+04 -1.45895E+04  1.09363E+04
 -1.67124E+04 -5.15596E+02 -1.15927E+04 -1.22366E+04 -1.61083E+03 -1.95460E+04  1.06235E+04 -1.90827E+04
  1.95300E+04 -1.07700E+04  2.32035E+04  3.13168E+03  1.61491E+04  1.69676E+04  1.87044E+03  2.09223E+04
 -8.27830E+03  1.69139E+04 -1.21817E+04  6.35564E+03 -8.79714E+03 -2.95023E+03 -2.85649E+03 -1.90708E+03
 -1.70365E+03 -4.55610E+02 -1.93357E+03  2.91489E+03 -6.75541E+03  2.75738E+03 -1.14913E+04 -1.69260E+03
 -8.80533E+03 -1.18912E+04  5.10093E+02 -1.77173E+04  1.06691E+04 -1.56911E+04  1.84104E+04 -5.43165E+03
  1.82700E+04  8.38672E+03  8.36874E+03  1.63179E+04 -3.37457E+03  1.83346E+04 -1.44530E+04  1.08747E+04
 -1.75928E+04  6.87431E+02 -1.31011E+04 -1.12748E+04 -1.98768E+03 -1.50062E+04  8.40912E+03 -1.14176E+04
  1.18553E+04 -3.89453E+03  8.59790E+03  3.17420E+03  2.12555E+03  5.62985E+03  2.07988E+03  2.84471E+03
  2.79455E+03  1.24666E+03  4.38614E+03  2.59553E+03  5.76775E+03  6.09480E+03  3.52058E+03  1.03430E+04
 -4.28360E+03  1.57511E+04 -1.31567E+04  1.47423E+04 -1.87104E+04  3.29516E+03 -1.97320E+04 -8.46442E+03
 -9.97045E+03 -1.95488E+04  3.01154E+03 -2.07367E+04  1.07044E+04 -1.19434E+04  1.44579E+04 -4.00964E+03
  1.10367E+04  6.49633E+03  3.24818E+03  9.58915E+03 -5.11316E+03  7.34331E+03 -7.86677E+03 -1.26332E+03
 -3.52779E+03 -7.88630E+03  4.26568E+03 -8.95739E+03  8.73893E+03 -4.78096E+03  7.43923E+03  1.78967E+03
  5.05449E+03  4.40385E+03  2.38765E+03  3.38955E+03 -1.02968E+03  2.17607E+03  1.75038E+03  1.90570E+02
  3.23911E+03 -1.83686E+03  7.19319E+03  2.92390E+03  4.56335E+03  1.10468E+04 -1.84445E+03  1.33322E+04
 -9.63054E+03  9.28053E+03 -1.17806E+04  2.57250E+03 -1.10570E+04 -4.72582E+03 -4.70861E+03 -7.79822E+03
  5.09287E+02 -7.80489E+03  5.21379E+03 -3.96889E+03  4.21341E+03  2.55830E+03 -1.46500E+03  6.24336E+03
 -8.11977E+03  4.29853E+03 -9.89373E+03 -4.16948E+03 -5.71736E+03 -1.16278E+04  1.37102E+03 -1.03883E+04
  6.73443E+03 -6.36325E+03  9.13170E+03 -6.86310E+02  6.09383E+03  3.89519E+03  8.78855E+02  5.69252E+03
 -2.76728E+03  1.83735E+03 -4.74805E+03 -4.21917E+03  1.85684E+03 -8.77121E+03  1.00817E+04 -6.64176E+03
  1.31369E+04  7.21516E+02  1.17351E+04  7.61128E+03  3.81395E+03  1.37866E+04 -4.93741E+03  1.23518E+04
 -1.02488E+04  5.51154E+03 -1.19414E+04 -2.69678E+03 -6.07110E+03 -8.35944E+03  2.04899E+03 -7.86805E+03
  8.01751E+03 -4.47474E+03  6.08272E+03  3.42436E+03  1.65107E+03  7.31920E+03 -1.13166E+03  6.10244E+03
 -3.31151E+03  2.87304E+03 -2.73990E+03  1.66153E+03 -2.27077E+03  1.69776E+03 -1.30351E+03  3.18344E+03
 -3.00156E+03  3.93599E+03 -8.75980E+03  5.02735E+03 -1.34520E+04 -3.52464E+02 -1.52860E+04 -8.62851E+03
 -8.38218E+03 -1.75525E+04  3.10042E+03 -2.03614E+04  1.27715E+04 -1.55262E+04  1.94623E+04 -5.96703E+03
  1.72260E+04  4.63854E+03  1.00176E+04  1.21690E+04  1.78845E+03  1.36658E+04 -6.28800E+03  1.03586E+04
 -8.07779E+03  4.16479E+03 -5.62826E+03 -1.27433E+03 -1.67911E+03 -1.31057E+03 -9.45783E+02 -7.41895E+02
 -2.07636E+03  3.07933E+02 -2.64140E+03 -8.08402E+02 -1.11524E+03 -3.14143E+03  7.59549E+02 -5.05255E+03
  6.70957E+03 -4.22099E+03  8.87286E+03 -2.33434E+02  9.15640E+03  7.41066E+03  2.70525E+03  1.49289E+04
 -6.68676E+03  1.66477E+04 -1.49102E+04  8.63737E+03 -1.60922E+04 -1.91460E+03 -1.29696E+04 -1.01102E+04
 -5.50201E+03 -1.58504E+04  3.47578E+03 -1.32306E+04  9.59036E+03 -7.21782E+03  1.02534E+04  4.72410E+02
  5.08644E+03  5.32964E+03 -7.68716E+02  4.69970E+03 -2.47730E+03 -1.32027E+02  1.07895E+02 -3.41146E+03
  4.76717E+03 -2.43238E+03  6.00802E+03  1.51909E+03  3.10188E+03  5.25462E+03 -3.51101E+02  8.18838E+03
 -6.08531E+03  6.99155E+03 -8.76378E+03  1.01029E+03 -8.72691E+03 -7.84395E+03 -2.49789E+03 -1.26016E+04
  7.37607E+03 -1.09855E+04  1.16425E+04 -3.70823E+03  1.21322E+04  3.79086E+03  6.37697E+03  9.14916E+03
  1.53286E+03  9.78238E+03 -4.01679E+03  8.09090E+03 -6.10398E+03  5.56978E+03 -4.77273E+03  7.68713E+02
 -3.20781E+03 -6.16252E+02 -2.13802E+03  1.85449E+03 -4.97393E+03  1.43715E+03 -7.54460E+03 -1.57128E+03
 -7.65871E+03 -6.01191E+03 -2.97160E+03 -1.02091E+04  4.48989E+03 -1.04067E+04  9.04895E+03 -5.03640E+03
  1.02913E+04  4.82321E+02  6.18464E+03  7.60484E+03 -7.74143E+02  1.01132E+04 -7.35982E+03  6.72049E+03
