 $NMID ID='MM_0lb_SNR400_9hz_g40_20.RAW', FMTDAT='(8E13.5)'
 TRAMP=1., VOLUME=1. $END
  3.09910E+05  4.67580E+02  3.37817E+05  2.50415E+05  8.43077E+04  3.37862E+05 -1.33062E+05  2.50798E+05
 -1.89491E+05  8.31691E+04 -1.12043E+05 -3.25126E+04 -1.73738E+02 -5.07424E+04  5.43713E+04  9.91777E+01
  3.50010E+04  5.30094E+04 -1.67190E+04  7.57017E+04 -6.11472E+04  6.37820E+04 -8.47689E+04  3.27328E+04
 -8.16382E+04 -1.18295E+04 -5.74478E+04 -5.22430E+04 -1.52052E+04 -6.98035E+04  2.77441E+04 -4.69716E+04
  4.16399E+04  4.02133E+03  1.68446E+04  4.85347E+04 -3.43701E+04  4.76478E+04 -6.76258E+04 -8.59706E+01
 -5.51453E+04 -5.79221E+04 -7.30171E+03 -7.83864E+04  3.38453E+04 -5.62044E+04  4.89562E+04 -1.78583E+04
  4.48607E+04  1.21111E+04  3.33577E+04  2.58169E+04  1.75182E+04  3.02668E+04 -5.56194E+03  2.80076E+04
 -2.19045E+04  1.20149E+04 -1.82790E+04 -5.98642E+03  6.86148E+03 -7.09204E+03  2.32102E+04  1.26131E+04
  7.27414E+03  3.68296E+04 -3.29301E+04  3.58242E+04 -6.48176E+04  1.57362E+03 -5.87820E+04 -4.41404E+04
 -1.25628E+04 -6.54484E+04  4.14998E+04 -4.72301E+04  6.01764E+04 -2.55388E+03  3.61628E+04  3.36305E+04
 -6.15904E+03  3.82670E+04 -3.15262E+04  1.85991E+04 -3.25341E+04 -4.75500E+03 -1.88748E+04 -1.27149E+04
 -9.27960E+03 -1.50608E+04 -6.17957E+02 -1.88655E+04  8.47240E+03 -2.36910E+04  1.58254E+04 -1.36011E+04
  1.15883E+04  5.75992E+03 -9.61673E+03  1.30164E+04 -2.33732E+04 -6.23654E+03 -8.28959E+03 -3.63625E+04
  2.49205E+04 -4.63038E+04  5.12201E+04 -2.08013E+04  4.86920E+04  2.02981E+04  1.71106E+04  4.72085E+04
 -1.68301E+04  3.58396E+04 -2.72608E+04  1.93308E+03 -1.06885E+04 -2.81536E+04  2.13577E+04 -3.65897E+04
  4.45826E+04 -9.92620E+03  3.91141E+04  2.50201E+04  2.06364E+04  5.03259E+04 -8.28612E+03  5.48833E+04
 -3.38215E+04  3.70675E+04 -4.63290E+04  1.05867E+04 -4.66390E+04 -1.86391E+04 -2.54944E+04 -4.15259E+04
  7.54714E+03 -4.12323E+04  3.35093E+04 -1.69034E+04  3.12213E+04  1.06110E+04  5.12402E+03  2.10726E+04
 -1.33701E+04  9.74267E+03 -1.00356E+04 -7.49534E+03  5.91692E+03 -1.14411E+04  1.93371E+04  5.79019E+03
  1.42460E+04  2.25473E+04 -6.23952E+03  2.67978E+04 -2.41842E+04  1.39035E+04 -3.13768E+04 -3.12842E+03
 -2.45762E+04 -1.87917E+04 -1.07161E+04 -2.40853E+04  4.88876E+03 -2.44841E+04  1.96573E+04 -2.19846E+04
  3.12485E+04 -1.41831E+04  3.68972E+04  4.33466E+03  2.65521E+04  2.28638E+04  4.83284E+03  3.98115E+04
 -1.96729E+04  3.33814E+04 -2.95668E+04  1.16696E+04 -2.26016E+04 -1.00685E+04 -6.40570E+03 -1.28430E+04
  1.85165E+02 -1.81689E+03 -6.61239E+03  8.61635E+03 -2.00592E+04  5.78425E+03 -2.00814E+04 -9.47683E+03
 -1.11999E+04 -2.25695E+04  5.75693E+03 -2.69871E+04  1.82593E+04 -1.91373E+04  2.29427E+04 -1.35886E+03
  1.45088E+04  1.53698E+04 -1.15265E+03  2.25421E+04 -1.63182E+04  1.27676E+04 -2.23553E+04 -4.34995E+03
 -1.68182E+04 -2.00266E+04 -2.92194E+03 -2.68390E+04  1.19700E+04 -2.28513E+04  2.17578E+04 -1.12346E+04
  2.07869E+04 -9.34153E+02  1.52511E+04  5.56799E+03  8.78314E+03  1.55209E+03  1.16958E+04 -1.54452E+03
  2.07225E+04  2.01200E+03  2.46650E+04  1.71674E+04  1.63077E+04  3.61168E+04 -3.15978E+03  4.21003E+04
 -2.44950E+04  3.52069E+04 -4.06587E+04  1.78897E+04 -4.33172E+04 -3.58859E+03 -3.44465E+04 -2.50931E+04
 -1.36324E+04 -3.59100E+04  1.23113E+04 -3.03663E+04  2.69548E+04 -1.49994E+04  2.37222E+04  7.81774E+03
  7.56924E+03  1.80475E+04 -1.09477E+04  1.56303E+04 -2.01085E+04  1.97549E+03 -1.44185E+04 -1.20275E+04
  2.61575E+02 -1.88497E+04  1.08080E+04 -1.44492E+04  1.28965E+04 -1.10232E+03  3.33779E+03  8.22538E+03
 -8.26823E+03  4.11437E+03 -9.32154E+03 -7.49568E+03 -1.02308E+03 -1.71971E+04  1.16623E+04 -1.81180E+04
  2.22144E+04 -1.02870E+04  2.42454E+04  3.39611E+03  2.11760E+04  1.75823E+04  1.03383E+04  2.83208E+04
 -4.77752E+03  2.98514E+04 -1.98383E+04  1.83496E+04 -2.16738E+04  3.90237E+03 -1.44420E+04 -5.80140E+03
 -7.21508E+03 -7.03737E+03 -1.32148E+02  7.41681E+02 -3.05506E+03  3.54361E+03 -6.77086E+03  4.90179E+03
 -1.28309E+04 -1.18347E+03 -1.45388E+04 -1.16910E+04 -6.16453E+03 -1.91666E+04  6.77084E+03 -1.48308E+04
  1.24399E+04 -6.17694E+03  8.76886E+03  3.75543E+03 -4.72457E+02  5.82939E+03 -7.84916E+03  2.66890E+02
 -6.60506E+03 -8.84716E+03 -1.18753E+03 -1.44966E+04  9.13702E+03 -1.57803E+04  1.85401E+04 -8.45637E+03
  2.29458E+04  2.13384E+03  1.66837E+04  1.33394E+04  2.80663E+03  1.78824E+04 -9.99167E+03  1.50925E+04
 -1.30053E+04  4.51807E+03 -6.55338E+03 -2.34444E+03  2.12620E+03 -4.60406E+03  7.38633E+03 -1.30752E+03
  6.46913E+03  6.48364E+03  1.12864E+03  1.21349E+04 -9.48295E+03  1.13049E+04 -1.48375E+04  2.81950E+03
 -1.05606E+04 -7.73198E+03  6.34809E+02 -1.28807E+04  8.63962E+03 -6.98945E+03  8.72165E+03  2.41593E+03
  2.20491E+03  9.21134E+03 -7.34434E+03  1.06696E+04 -1.38691E+04  4.26399E+03 -1.32073E+04 -4.64133E+03
 -7.18019E+03 -1.46033E+04  3.09474E+03 -1.79740E+04  1.55307E+04 -1.05949E+04  1.59476E+04  3.88297E+03
  1.01289E+04  1.23286E+04 -5.26647E+02  1.46608E+04 -1.12372E+04  8.27919E+03 -1.14047E+04 -1.54068E+03
 -1.11735E+04 -9.31452E+03 -1.44868E+03 -1.14531E+04  6.89954E+03 -9.10598E+03  6.73536E+03 -3.82174E+03
  5.27894E+03  2.23594E+03 -6.29423E+02  1.90726E+03 -4.71801E+02 -3.41167E+03  2.21922E+03 -7.21314E+03
  1.04291E+04 -4.08105E+03  1.55937E+04  1.69286E+03  1.44369E+04  1.06753E+04  9.70216E+03  1.88704E+04
 -5.01317E+03  2.17810E+04 -1.78337E+04  1.67325E+04 -2.39520E+04  3.55721E+03 -1.88314E+04 -8.57408E+03
 -9.50913E+03 -1.67048E+04  6.65065E+01 -1.43100E+04  5.94169E+03 -8.02616E+03  4.99261E+03 -4.84353E+03
  3.74697E+03 -2.33291E+03  4.65298E+03 -3.50830E+03  5.46022E+03 -3.39149E+03  8.37148E+03 -1.72135E+03
  9.81134E+03  2.20679E+03  5.09903E+03  8.75767E+03 -1.80453E+03  9.91204E+03 -1.07074E+04  7.77087E+03
 -1.44244E+04 -9.46306E+02 -8.70320E+03 -9.76826E+03 -1.19516E+03 -1.50048E+04  8.60143E+03 -1.48798E+04
  1.52947E+04 -8.64094E+03  1.76843E+04  2.35256E+03  1.27270E+04  1.36194E+04  2.27026E+03  1.70809E+04
 -6.73468E+03  1.38546E+04 -1.05288E+04  4.44614E+03 -6.94790E+03 -1.80616E+03 -2.93972E+03 -2.03265E+03
 -7.01593E+02  1.05722E+03 -2.37694E+03  3.46674E+03 -6.39554E+03  3.23115E+03 -1.00385E+04 -2.06344E+03
 -6.92742E+03 -9.69096E+03  3.52268E+02 -1.34736E+04  8.43981E+03 -1.22234E+04  1.37194E+04 -3.66028E+03
  1.28168E+04  6.08900E+03  6.29972E+03  1.22749E+04 -2.30124E+03  1.43387E+04 -1.00426E+04  8.46755E+03
 -1.37248E+04  7.85911E+02 -9.99537E+03 -8.27396E+03 -4.17857E+02 -1.15287E+04  6.12317E+03 -9.00873E+03
  8.60525E+03 -2.98025E+03  5.32538E+03  2.46048E+03  1.79285E+03  3.95348E+03  1.10075E+03  1.85771E+03
  3.03153E+03  1.72803E+03  2.98123E+03  2.36800E+03  4.59326E+03  5.54315E+03  2.83444E+03  8.06499E+03
 -3.13463E+03  1.06369E+04 -9.29646E+03  1.17026E+04 -1.51754E+04  3.02377E+03 -1.45014E+04 -6.60529E+03
 -7.69444E+03 -1.42980E+04  2.15298E+03 -1.57271E+04  7.87512E+03 -9.85213E+03  1.15635E+04 -2.94391E+03
  9.15804E+03  5.49727E+03  1.96227E+03  7.36823E+03 -4.35982E+03  4.44166E+03 -5.87978E+03 -8.20396E+02
 -2.48640E+03 -5.81126E+03  3.60320E+03 -6.66023E+03  5.36423E+03 -2.78062E+03  6.43060E+03  1.02357E+03
  3.46528E+03  3.26562E+03  1.58123E+03  1.96529E+03 -8.81165E+02  1.73501E+03  1.70993E+03  2.78145E+01
  1.93232E+03 -5.90340E+02  5.54974E+03  2.16726E+03  3.41825E+03  7.16769E+03 -1.19230E+03  1.03816E+04
 -6.97494E+03  6.58678E+03 -9.58068E+03  1.95382E+03 -7.68495E+03 -3.80661E+03 -2.74219E+03 -4.93632E+03
  1.11996E+03 -5.74816E+03  3.19188E+03 -2.35684E+03  3.68958E+03  3.30989E+03 -1.09110E+03  4.58731E+03
 -6.13250E+03  2.83909E+03 -6.20049E+03 -3.83357E+03 -3.98880E+03 -8.29405E+03  1.89759E+03 -8.26625E+03
  4.34850E+03 -3.90712E+03  5.32372E+03 -6.93498E+02  4.76425E+03  1.55907E+03  9.75334E+02  4.76899E+03
 -2.53201E+03  1.19044E+03 -3.88740E+03 -2.84120E+03  1.77325E+03 -5.90367E+03  7.12259E+03 -5.23488E+03
  9.37587E+03  1.09431E+03  8.66905E+03  5.53216E+03  1.98233E+03  8.86122E+03 -3.40953E+03  9.04947E+03
 -8.22219E+03  3.91751E+03 -7.81886E+03 -1.35266E+03 -4.50378E+03 -6.88152E+03  1.38293E+03 -5.66360E+03
  5.94873E+03 -2.91978E+03  4.98407E+03  3.03578E+03  1.44495E+03  5.28175E+03 -1.90858E+02  5.24268E+03
 -2.31406E+03  3.04574E+03 -2.15006E+03  1.44559E+03 -1.33258E+03  1.88743E+03 -2.38096E+03  2.29680E+03
 -2.22268E+03  4.57143E+03 -5.83606E+03  3.58137E+03 -9.45549E+03 -4.54828E+01 -1.06991E+04 -5.99872E+03
 -5.87898E+03 -1.16799E+04  2.52508E+03 -1.42947E+04  8.90463E+03 -1.16059E+04  1.36096E+04 -3.87361E+03
  1.28365E+04  2.58787E+03  7.79143E+03  8.00176E+03  6.07550E+02  1.02276E+04 -4.35997E+03  7.24135E+03
 -5.53975E+03  2.23340E+03 -3.09523E+03 -2.20827E+03 -1.04493E+03 -8.37430E+02 -1.15822E+03  9.79796E+02
 -1.28244E+03 -3.34408E+02 -1.01208E+03 -8.25551E+02 -1.00305E+03 -1.93368E+03  1.08676E+03 -2.78848E+03
  4.80085E+03 -2.73715E+03  5.55173E+03  7.32833E+02  7.78459E+03  4.77416E+03  1.44603E+03  1.01035E+04
 -5.14602E+03  1.17433E+04 -1.04486E+04  6.39467E+03 -1.22346E+04 -1.28365E+03 -7.98843E+03 -7.46540E+03
 -3.69753E+03 -1.05366E+04  2.51564E+03 -8.74005E+03  6.14835E+03 -4.27731E+03  6.10810E+03 -1.24981E+02
  3.57207E+03  3.01879E+03 -2.28712E+02  2.87743E+03 -1.57195E+03 -9.27483E+02  3.29711E+02 -2.65870E+03
  2.25934E+03 -1.26870E+03  3.52303E+03  1.70106E+03  1.85019E+03  3.51272E+03  5.87926E+02  5.72140E+03
 -3.99464E+03  3.88809E+03 -6.98535E+03  4.87021E+01 -5.43961E+03 -4.76464E+03 -3.12814E+02 -8.62051E+03
  3.77727E+03 -6.86631E+03  7.51515E+03 -2.33969E+03  7.79364E+03  2.37298E+03  3.71699E+03  6.06942E+03
  7.03466E+02  6.13229E+03 -2.70191E+03  5.39869E+03 -3.59994E+03  2.92783E+03 -3.45689E+03  2.94650E+01
 -2.96321E+03 -2.00394E+02 -2.17836E+03  2.46905E+02 -4.06761E+03  1.56881E+03 -4.80776E+03 -7.86797E+02
 -5.27679E+03 -3.72431E+03 -1.12304E+03 -6.36036E+03  3.18782E+03 -6.99598E+03  6.01549E+03 -2.93591E+03
  6.31940E+03  1.52072E+02  3.46807E+03  4.99162E+03 -1.02434E+03  6.62993E+03 -5.11055E+03  5.33180E+03
