 $NMID ID='MM_0lb_SNR400_18hz_g45_20.RAW', FMTDAT='(8E13.5)'
 TRAMP=1., VOLUME=1. $END
  3.09627E+05  1.40390E+01  3.37791E+05  2.50425E+05  8.42326E+04  3.36875E+05 -1.32352E+05  2.50076E+05
 -1.89602E+05  8.29017E+04 -1.10961E+05 -3.26350E+04  1.53727E+03 -5.05722E+04  5.33201E+04  2.29513E+02
  3.53750E+04  5.30663E+04 -1.74284E+04  7.49071E+04 -6.07723E+04  6.23571E+04 -8.31002E+04  3.14317E+04
 -7.95903E+04 -1.11384E+04 -5.64654E+04 -5.01186E+04 -1.52405E+04 -6.83054E+04  2.72456E+04 -4.50095E+04
  3.92109E+04  3.49549E+03  1.55559E+04  4.65528E+04 -3.35243E+04  4.70320E+04 -6.56773E+04 -2.13210E+02
 -5.15949E+04 -5.58498E+04 -6.80856E+03 -7.56985E+04  3.29346E+04 -5.31045E+04  4.63849E+04 -1.65078E+04
  4.16546E+04  1.10223E+04  3.07428E+04  2.38671E+04  1.53665E+04  2.83816E+04 -3.91207E+03  2.67598E+04
 -2.19470E+04  1.27034E+04 -1.92510E+04 -4.73084E+03  3.81893E+03 -7.77630E+03  2.14032E+04  1.06115E+04
  7.30727E+03  3.32869E+04 -3.05000E+04  3.38443E+04 -6.11846E+04  2.05188E+03 -5.52395E+04 -4.13561E+04
 -1.21936E+04 -6.09845E+04  3.84238E+04 -4.34951E+04  5.61929E+04 -2.09931E+03  3.23792E+04  3.08746E+04
 -6.33425E+03  3.31955E+04 -2.82707E+04  1.33337E+04 -2.72426E+04 -5.23844E+03 -1.42067E+04 -9.92493E+03
 -7.26952E+03 -1.13715E+04 -6.65654E+02 -1.65503E+04  6.02954E+03 -2.23894E+04  1.51033E+04 -1.37762E+04
  1.22499E+04  4.68639E+03 -5.79898E+03  1.29543E+04 -1.92832E+04 -2.40320E+03 -7.83803E+03 -3.04938E+04
  2.14606E+04 -4.03526E+04  4.47469E+04 -1.88411E+04  4.19394E+04  1.82944E+04  1.44997E+04  4.15370E+04
 -1.51843E+04  3.14813E+04 -2.34406E+04  1.16615E+03 -8.26824E+03 -2.62283E+04  2.03164E+04 -3.15850E+04
  3.85123E+04 -7.28277E+03  3.21179E+04  2.30864E+04  1.51507E+04  4.32087E+04 -7.45069E+03  4.55552E+04
 -2.88469E+04  2.95703E+04 -3.72149E+04  8.39398E+03 -3.86416E+04 -1.58383E+04 -2.15649E+04 -3.45402E+04
  6.80202E+03 -3.41342E+04  2.85319E+04 -1.26143E+04  2.70450E+04  1.07493E+04  3.13608E+03  1.78235E+04
 -1.36062E+04  7.62873E+03 -9.51659E+03 -7.66878E+03  5.76622E+03 -1.02817E+04  1.75431E+04  6.26345E+03
  1.19040E+04  2.13286E+04 -6.44399E+03  2.32407E+04 -2.14521E+04  8.60603E+03 -2.55017E+04 -6.38338E+03
 -1.68576E+04 -1.68230E+04 -6.33032E+03 -1.71212E+04  4.23915E+03 -1.51406E+04  1.25459E+04 -1.43213E+04
  2.10611E+04 -1.15494E+04  2.81392E+04  1.58824E+03  2.15574E+04  1.61887E+04  3.97763E+03  3.28564E+04
 -1.62370E+04  2.74458E+04 -2.63581E+04  9.20040E+03 -1.98269E+04 -9.83415E+03 -4.14492E+03 -1.35569E+04
  2.50935E+03 -4.32856E+03 -3.09678E+03  5.06676E+03 -1.33648E+04  5.24014E+03 -1.33778E+04 -4.83219E+03
 -9.00697E+03 -1.58661E+04  4.70503E+03 -1.94493E+04  1.25624E+04 -1.41768E+04  1.44095E+04 -2.14095E+03
  9.39051E+03  1.10072E+04 -4.93190E+02  1.63034E+04 -1.04028E+04  8.81914E+03 -1.56535E+04 -3.42985E+03
 -1.18881E+04 -1.42197E+04 -1.84048E+03 -1.93317E+04  8.53012E+03 -1.56225E+04  1.60089E+04 -7.79817E+03
  1.47243E+04  6.57320E+02  1.04230E+04  4.20477E+03  5.46502E+03  4.74726E+02  7.57348E+03 -1.19316E+03
  1.45980E+04  2.38792E+03  1.52731E+04  1.26782E+04  9.30133E+03  2.52074E+04 -2.81856E+03  2.68618E+04
 -1.57059E+04  2.04993E+04 -2.47731E+04  1.00621E+04 -2.55090E+04 -1.78085E+03 -2.15656E+04 -1.42599E+04
 -1.01240E+04 -2.05550E+04  7.23853E+03 -1.92996E+04  1.67686E+04 -1.13487E+04  1.54854E+04  3.29257E+03
  6.53767E+03  1.05572E+04 -7.14094E+03  1.07588E+04 -1.28593E+04  2.76269E+03 -1.04885E+04 -7.96613E+03
  2.83529E+02 -1.26885E+04  5.78405E+03 -9.96842E+03  8.05556E+03 -5.21754E+02  1.56030E+03  5.55354E+03
 -5.18940E+03  1.37576E+03 -3.50514E+03 -4.33712E+03  8.45280E+02 -1.02879E+04  7.41689E+03 -9.90863E+03
  1.25448E+04 -5.01875E+03  1.22763E+04  2.95553E+03  1.08439E+04  1.00128E+04  5.08728E+03  1.43253E+04
 -1.77826E+03  1.64489E+04 -1.04998E+04  1.07361E+04 -1.15339E+04  2.11469E+03 -9.16022E+03 -2.57613E+03
 -4.20758E+03 -3.41502E+03 -4.32006E+02  1.82888E+03 -2.13967E+03  2.12369E+03 -3.09044E+03  3.33436E+03
 -8.09962E+03 -6.84141E+02 -8.77908E+03 -7.13772E+03 -3.80273E+03 -1.16548E+04  3.24995E+03 -8.25934E+03
  7.28168E+03 -3.83819E+03  5.83350E+03  2.17961E+03  1.83646E+02  3.11148E+03 -3.40055E+03 -2.18308E+02
 -2.98088E+03 -4.90000E+03 -9.91730E+02 -7.46904E+03  4.08046E+03 -7.80584E+03  1.05774E+04 -3.45626E+03
  1.14633E+04  1.25914E+03  8.57436E+03  6.27240E+03  1.74151E+03  8.93963E+03 -5.02550E+03  8.46656E+03
 -7.40921E+03  2.76437E+03 -3.62447E+03 -1.47762E+03  1.31188E+03 -1.60958E+03  5.08317E+03 -7.62469E+02
  4.50198E+03  3.61823E+03  8.68940E+02  6.25720E+03 -4.73099E+03  6.67625E+03 -8.14139E+03  2.22283E+03
 -4.96988E+03 -3.82891E+03  2.85776E+02 -6.97972E+03  4.10890E+03 -3.37895E+03  4.08520E+03  1.31922E+03
  7.61875E+02  3.59117E+03 -4.22560E+03  4.84022E+03 -5.01452E+03  2.46049E+03 -4.72920E+03 -1.84587E+03
 -2.84824E+03 -6.95633E+03  1.52865E+03 -7.28434E+03  5.81058E+03 -3.99615E+03  6.21794E+03  1.13399E+03
  5.23997E+03  5.54216E+03  3.45538E+02  7.47581E+03 -5.42464E+03  4.32307E+03 -5.03281E+03 -4.04443E+02
 -6.09404E+03 -5.24770E+03 -1.36936E+03 -5.20237E+03  2.84001E+03 -4.52970E+03  3.11459E+03 -2.78537E+03
  2.80337E+03  9.94870E+02  7.69566E+01  1.84625E+03  8.06296E+02  1.60371E+02  5.20334E+02 -2.01141E+03
  4.01359E+03 -5.41531E+02  5.71225E+03  6.75536E+02  5.78954E+03  3.56672E+03  5.82554E+03  7.66714E+03
 -1.53881E+03  8.48345E+03 -7.87496E+03  6.73387E+03 -9.29654E+03  1.41823E+03 -8.34832E+03 -3.15654E+03
 -4.32681E+03 -6.85015E+03 -5.55631E+02 -5.42212E+03  1.95010E+03 -2.45900E+03  1.88521E+03 -2.06580E+03
  1.55849E+03 -1.93978E+03  2.12017E+03 -2.53524E+03  3.48889E+03 -1.33728E+03  3.66923E+03  5.22747E+02
  4.98477E+03  1.15126E+03  8.69566E+02  2.98560E+03 -1.94567E+03  2.74406E+03 -4.97634E+03  3.21913E+03
 -5.34143E+03 -1.41696E+03 -2.00716E+03 -3.34424E+03  3.84794E+02 -5.34157E+03  3.09003E+03 -5.78457E+03
  5.60356E+03 -3.17558E+03  6.79047E+03  6.20800E+02  5.76205E+03  4.05310E+03  1.41591E+03  6.19091E+03
 -1.94012E+03  5.66727E+03 -3.66225E+03  1.64319E+03 -2.20669E+03 -1.12176E+03 -8.41613E+02 -6.64601E+02
 -5.82932E+02  3.50731E+02 -1.40603E+03  2.04235E+03 -2.66745E+03  7.36165E+02 -4.10022E+03 -2.06539E+02
 -1.73073E+03 -4.36669E+03  5.83751E+02 -4.59195E+03  3.05686E+03 -4.90350E+03  4.00285E+03 -1.23176E+03
  4.25418E+03  2.68995E+03  2.39852E+03  2.90659E+03 -7.05709E+02  4.65665E+03 -3.22741E+03  2.50867E+03
 -3.60812E+03  8.94184E+02 -3.30852E+03 -3.21888E+03 -3.89839E+02 -3.14607E+03  1.55779E+03 -2.57210E+03
  3.33028E+03 -1.54430E+03  2.23266E+03  8.25405E+02  3.44920E+02  2.15301E+03  4.59690E+02  7.71232E+02
  1.84338E+03  6.24548E+02  1.46637E+03  1.06825E+03  8.28217E+02  2.37144E+03  1.51073E+03  1.95085E+03
 -1.79962E+03  3.45170E+03 -2.90495E+03  4.32035E+03 -3.51368E+03  1.92308E+03 -4.76432E+03 -4.35347E+02
 -1.48521E+03 -4.35088E+03  7.51666E+02 -4.57606E+03  2.17978E+03 -2.35844E+03  3.17318E+03 -1.26181E+03
  3.15391E+03  1.96976E+03  1.55206E+02  2.43733E+03 -5.63253E+02  1.32245E+03 -1.24247E+03 -2.82678E+02
 -3.91378E+02 -1.34628E+03  1.43222E+03 -1.57566E+03  1.64738E+03 -7.62587E+02  1.29683E+03  2.23095E+02
  6.96931E+02  7.66185E+02  1.02825E+03  2.79834E+02 -3.26542E+02  8.16737E+02  1.86486E+03 -1.88171E+02
  1.03563E+02 -7.87273E+02  1.85708E+03  2.50421E+01  4.76088E+02  1.75945E+03 -3.58131E+02  2.84371E+03
 -1.51428E+03  1.49679E+03 -1.84644E+03  6.74850E+02 -2.34824E+03 -9.46946E+02 -1.10883E+02 -1.36547E+03
  5.19560E+02 -1.51772E+03  6.01961E+02 -7.55457E+02  1.37458E+03  1.30669E+03 -9.36435E+02  1.63787E+03
 -9.84962E+02  1.11354E+03 -1.15231E+03 -1.48744E+03 -1.15999E+03 -2.10319E+03  6.75823E+01 -1.81393E+03
  6.56928E+02  3.45876E+02  1.30551E+03  5.32115E+02  1.91047E+03 -1.44399E+02  6.37032E+02  8.42385E+02
 -1.77859E+02  2.46577E+01 -7.93921E+02 -9.01781E+02  6.61550E+02 -1.03546E+03  1.75957E+03 -9.90144E+02
  1.16066E+03 -1.84402E+02  2.25630E+03  4.70691E+02  1.91575E+03  2.04382E+03 -6.44823E+02  1.03677E+03
 -1.02773E+03  2.50066E+02 -1.93855E+03 -3.27499E+02 -5.80825E+02 -1.60759E+03  6.32404E+02 -6.81908E+02
  1.44031E+03 -8.76361E+02  1.06804E+03  8.01634E+02  2.77078E+02  8.55715E+02 -3.92868E+02  7.38054E+02
 -1.65975E+02  1.27012E+03 -4.58743E+02  5.07632E+02  2.74906E+02  1.04804E+02 -6.20737E+02  5.47115E+02
 -9.45858E+02  1.31243E+03 -2.36446E+03  8.74496E+02 -1.63539E+03  3.75476E+01 -2.13589E+03 -1.22053E+03
 -1.46341E+03 -3.05356E+03  1.78560E+02 -3.32230E+03  1.41998E+03 -2.77293E+03  2.96711E+03 -3.51566E+02
  2.77555E+03  1.64548E+01  1.20835E+03  1.72644E+03 -7.29069E+02  1.91805E+03 -9.22424E+02  1.24837E+03
 -7.36295E+02  2.83683E+02 -5.07869E+02 -2.80610E+02 -3.18244E+02  8.20692E+01 -1.12487E+02  1.18966E+00
 -1.12741E+03  7.50144E+01 -6.20105E+02 -6.04793E+01  1.96716E+02 -6.78575E+02 -5.15534E+02 -9.27309E+02
  1.51664E+03 -4.07833E+02  3.96698E+02  1.53194E+02  1.21324E+03  8.66693E+02  1.23349E+00  1.84317E+03
 -8.97747E+02  2.64736E+03 -1.88584E+03  1.66702E+03 -1.35394E+03  3.45006E+02 -1.53420E+03 -1.67303E+03
 -7.77487E+02 -1.68702E+03  5.96953E+02 -1.27466E+03  2.17754E+02 -6.88298E+02  6.34363E+02  7.06498E+02
  8.20424E+02  2.99801E+02 -7.56157E+01  3.35209E+02 -3.08301E+02  1.83870E+02  3.37670E+02 -6.26209E+02
  6.03535E+02  2.65310E+02  2.83074E+01  3.66742E+02 -2.65295E+02  5.29707E+02  1.87571E+02  1.84716E+02
 -8.90294E+02  2.76614E+02 -1.00502E+03 -1.19250E+02 -6.27685E+02 -7.15017E+02  2.75230E+02 -1.25240E+03
  4.19994E+02 -8.43480E+02  1.16763E+03  5.69819E+02  1.84620E+03 -6.83081E+02  5.41008E+02  4.79366E+02
  7.14189E+02  9.09504E+02 -4.90385E+02  7.93589E+02 -7.86400E+02  8.15989E+02 -1.97463E+02 -3.23274E+02
  6.73068E+01 -1.86949E+02 -5.32048E+02 -6.98680E+01 -3.17092E+02  1.28763E+02 -7.98336E+02 -1.84809E+02
 -1.22773E+03  3.72745E+02  2.18696E+01 -9.70236E+02  8.56946E+02 -2.22988E+03  1.08183E+03 -5.03101E+02
  1.18745E+03  1.68138E+02 -4.82099E+02  4.74053E+02 -2.84046E+01  7.73107E+02 -5.21702E+02  7.07512E+02
