 $NMID ID='MM_0lb_SNR400_7hz_g50_21.RAW', FMTDAT='(8E13.5)'
 TRAMP=1., VOLUME=1. $END
  3.09311E+05  1.93404E+02  3.37690E+05  2.51231E+05  8.46552E+04  3.39007E+05 -1.32841E+05  2.51938E+05
 -1.91511E+05  8.42639E+04 -1.12583E+05 -3.19127E+04 -1.85692E+02 -5.09729E+04  5.42225E+04 -1.02766E+03
  3.56149E+04  5.35135E+04 -1.67230E+04  7.61724E+04 -6.14288E+04  6.43908E+04 -8.50171E+04  3.35658E+04
 -8.28163E+04 -1.22258E+04 -5.85130E+04 -5.31002E+04 -1.55334E+04 -7.12711E+04  2.80800E+04 -4.72681E+04
  4.14937E+04  3.76979E+03  1.64967E+04  4.93289E+04 -3.59010E+04  4.92064E+04 -6.86295E+04  3.60040E+02
 -5.49006E+04 -5.74291E+04 -7.65982E+03 -8.03493E+04  3.50545E+04 -5.77078E+04  4.91813E+04 -1.89317E+04
  4.68596E+04  1.13275E+04  3.37543E+04  2.72063E+04  1.54891E+04  3.06776E+04 -5.66646E+03  2.86329E+04
 -2.31151E+04  1.27548E+04 -1.80340E+04 -6.43683E+03  7.04378E+03 -8.12739E+03  2.46998E+04  1.31121E+04
  7.13658E+03  3.90713E+04 -3.48604E+04  3.67711E+04 -6.71291E+04  2.48872E+03 -5.96456E+04 -4.54764E+04
 -1.23188E+04 -6.66087E+04  4.24349E+04 -4.84140E+04  6.18991E+04 -2.68475E+03  3.77945E+04  3.57666E+04
 -5.67731E+03  4.08751E+04 -3.22122E+04  1.94914E+04 -3.44642E+04 -3.01047E+03 -2.03670E+04 -1.22210E+04
 -1.04508E+04 -1.54297E+04 -1.36940E+02 -2.03012E+04  8.87066E+03 -2.36445E+04  1.59949E+04 -1.21947E+04
  1.03688E+04  6.23429E+03 -1.21244E+04  1.30822E+04 -2.51342E+04 -8.13858E+03 -8.66138E+03 -3.96048E+04
  2.63504E+04 -4.85136E+04  5.33966E+04 -2.08972E+04  5.05100E+04  2.14556E+04  1.81327E+04  4.85877E+04
 -1.70150E+04  3.77244E+04 -2.88246E+04  3.31976E+03 -1.15890E+04 -2.97400E+04  2.21125E+04 -3.78186E+04
  4.53889E+04 -1.14978E+04  4.24437E+04  2.49664E+04  2.20512E+04  5.35132E+04 -8.86520E+03  5.90990E+04
 -3.64413E+04  4.00677E+04 -4.98727E+04  1.24017E+04 -4.95792E+04 -1.89731E+04 -2.78271E+04 -4.39880E+04
  7.95655E+03 -4.38857E+04  3.56553E+04 -1.74840E+04  3.33711E+04  1.14435E+04  6.88588E+03  2.14893E+04
 -1.47286E+04  1.04345E+04 -1.09528E+04 -6.90663E+03  6.18852E+03 -1.20809E+04  1.95462E+04  5.07740E+03
  1.51567E+04  2.30463E+04 -5.23129E+03  2.81685E+04 -2.33757E+04  1.65886E+04 -3.27994E+04 -1.66004E+03
 -2.75740E+04 -1.84199E+04 -1.34122E+04 -2.60654E+04  3.30456E+03 -2.81585E+04  2.14860E+04 -2.53632E+04
  3.34660E+04 -1.41368E+04  3.99862E+04  5.46034E+03  2.83540E+04  2.58865E+04  4.60085E+03  4.33651E+04
 -2.10062E+04  3.57001E+04 -3.16643E+04  1.18920E+04 -2.29112E+04 -9.89966E+03 -5.18056E+03 -1.25622E+04
  1.01949E+03 -2.63761E+02 -7.95460E+03  8.77696E+03 -2.15414E+04  4.65142E+03 -2.24370E+04 -1.10587E+04
 -1.27401E+04 -2.46356E+04  6.68568E+03 -2.94206E+04  1.97313E+04 -2.18748E+04  2.47113E+04 -1.34078E+03
  1.61199E+04  1.72480E+04 -1.33304E+03  2.50075E+04 -1.82609E+04  1.38435E+04 -2.58060E+04 -6.25735E+03
 -1.86385E+04 -2.28302E+04 -3.19161E+03 -3.01000E+04  1.28184E+04 -2.52336E+04  2.51411E+04 -1.34365E+04
  2.38964E+04 -3.23268E+02  1.78035E+04  6.02507E+03  9.85676E+03  1.88717E+03  1.35531E+04 -1.97123E+03
  2.42929E+04  3.13947E+03  2.74502E+04  2.03367E+04  1.97682E+04  4.15293E+04 -3.18124E+03  4.81247E+04
 -2.82253E+04  4.10335E+04 -4.63978E+04  2.14138E+04 -5.05804E+04 -4.01881E+03 -3.94968E+04 -2.92883E+04
 -1.64388E+04 -4.20175E+04  1.44523E+04 -3.60252E+04  3.07940E+04 -1.62830E+04  2.62831E+04  8.29523E+03
  8.94282E+03  2.12715E+04 -1.28033E+04  1.73202E+04 -2.17978E+04  2.30429E+03 -1.54900E+04 -1.46960E+04
 -1.06033E+03 -2.19482E+04  1.06657E+04 -1.59323E+04  1.43406E+04 -9.15764E+02  3.99085E+03  1.02402E+04
 -9.53849E+03  5.13583E+03 -9.97471E+03 -8.63222E+03 -2.13580E+03 -1.99612E+04  1.28173E+04 -2.21092E+04
  2.65081E+04 -1.23914E+04  3.00494E+04  3.65010E+03  2.76921E+04  1.91581E+04  1.23460E+04  3.29277E+04
 -6.60587E+03  3.49813E+04 -2.32936E+04  2.18218E+04 -2.59620E+04  4.28364E+03 -1.74620E+04 -6.45173E+03
 -6.58212E+03 -8.31698E+03 -1.12987E+03 -2.78207E+02 -2.97566E+03  3.56481E+03 -8.71438E+03  5.33194E+03
 -1.62694E+04 -1.18920E+03 -1.71343E+04 -1.35223E+04 -7.55514E+03 -2.19815E+04  7.11896E+03 -1.81856E+04
  1.44126E+04 -7.07173E+03  9.69585E+03  5.31347E+03 -1.23153E+03  7.68144E+03 -9.75955E+03 -7.70829E+02
 -9.26909E+03 -1.11306E+04 -1.99973E+03 -1.83883E+04  1.09385E+04 -1.90162E+04  2.32948E+04 -1.07738E+04
  2.71635E+04  3.18011E+03  2.05062E+04  1.66334E+04  3.90993E+03  2.13603E+04 -1.06777E+04  1.75574E+04
 -1.38101E+04  5.48570E+03 -6.75928E+03 -3.78602E+03  3.06026E+03 -5.10167E+03  9.49742E+03 -1.38604E+03
  8.54182E+03  8.08300E+03  1.26118E+03  1.48059E+04 -1.01209E+04  1.28677E+04 -1.81655E+04  3.51489E+03
 -1.29110E+04 -9.13244E+03 -2.87961E+02 -1.54134E+04  1.12919E+04 -6.73386E+03  1.01319E+04  3.84230E+03
  2.06395E+03  1.32710E+04 -9.59736E+03  1.43397E+04 -1.69601E+04  6.49556E+03 -1.78952E+04 -6.07820E+03
 -8.71535E+03 -1.91908E+04  3.89295E+03 -2.13042E+04  1.72544E+04 -1.28725E+04  2.00397E+04  4.39305E+03
  1.09576E+04  1.61984E+04 -3.09449E+03  1.76039E+04 -1.27882E+04  1.03478E+04 -1.48236E+04 -2.70834E+03
 -1.20713E+04 -1.22123E+04 -1.66836E+03 -1.43569E+04  7.71507E+03 -1.17271E+04  8.06687E+03 -3.83370E+03
  5.20563E+03  2.65358E+03 -1.90256E+03  1.40385E+03 -1.20672E+03 -4.46203E+03  3.83126E+03 -9.04918E+03
  1.33997E+04 -5.90006E+03  1.98080E+04  1.67338E+03  1.89069E+04  1.31856E+04  1.20329E+04  2.53991E+04
 -6.52455E+03  2.93182E+04 -2.35153E+04  2.14520E+04 -3.15880E+04  3.33721E+03 -2.52541E+04 -1.11155E+04
 -1.29268E+04 -2.03087E+04 -7.97651E+02 -1.80564E+04  6.96175E+03 -1.05752E+04  6.15526E+03 -7.00819E+03
  5.06677E+03 -3.25732E+03  3.62311E+03 -4.10941E+03  6.27028E+03 -4.40596E+03  9.60146E+03 -2.12950E+03
  1.17477E+04  2.93929E+03  7.32259E+03  1.11552E+04 -2.57476E+03  1.37778E+04 -1.34483E+04  1.06404E+04
 -1.86522E+04 -1.83483E+03 -1.21220E+04 -1.23777E+04 -1.80925E+03 -1.95486E+04  1.08524E+04 -1.94765E+04
  1.91210E+04 -1.03573E+04  2.43476E+04  2.98814E+03  1.58246E+04  1.75659E+04  2.37391E+03  2.21081E+04
 -8.77738E+03  1.74732E+04 -1.36714E+04  6.11751E+03 -9.34318E+03 -2.07031E+03 -3.73334E+03 -2.49132E+03
 -9.89054E+02 -1.37412E+03 -2.34484E+03  3.27877E+03 -7.41291E+03  2.67092E+03 -1.23087E+04 -2.06006E+03
 -9.30724E+03 -1.26327E+04  8.24726E+02 -1.82204E+04  1.13361E+04 -1.72094E+04  1.90341E+04 -5.66524E+03
  1.85447E+04  8.71917E+03  8.60045E+03  1.63682E+04 -3.66362E+03  1.78779E+04 -1.42656E+04  1.22748E+04
 -1.71896E+04 -2.34426E+02 -1.38569E+04 -1.18793E+04 -1.06668E+03 -1.53259E+04  7.80902E+03 -1.10880E+04
  1.13797E+04 -2.92750E+03  8.07449E+03  2.17900E+03  2.98339E+03  6.03559E+03  2.11541E+03  3.16713E+03
  3.70909E+03  1.13606E+03  4.42021E+03  2.52894E+03  5.28309E+03  5.54611E+03  3.86753E+03  1.04074E+04
 -3.79907E+03  1.54728E+04 -1.30308E+04  1.42831E+04 -2.05435E+04  3.76311E+03 -1.89990E+04 -8.82972E+03
 -1.10468E+04 -1.96005E+04  3.39817E+03 -2.08643E+04  1.20729E+04 -1.34036E+04  1.57995E+04 -3.70296E+03
  1.25108E+04  7.55035E+03  3.57093E+03  1.04930E+04 -5.76082E+03  7.49645E+03 -8.14323E+03 -1.58760E+03
 -3.66892E+03 -8.37933E+03  4.31963E+03 -8.94780E+03  8.29599E+03 -3.55692E+03  8.36512E+03  1.06097E+03
  4.68203E+03  3.72678E+03  1.43728E+03  3.91289E+03 -9.33107E+02  3.19530E+03  2.21331E+03 -5.32364E+01
  2.95039E+03 -8.05592E+02  8.19736E+03  2.60140E+03  4.76840E+03  9.83819E+03 -2.58166E+03  1.31090E+04
 -9.31136E+03  9.56966E+03 -1.39233E+04  2.86916E+03 -1.12521E+04 -5.21410E+03 -4.82658E+03 -7.32963E+03
  1.92232E+03 -7.73605E+03  4.77042E+03 -3.95806E+03  4.86295E+03  3.62436E+03 -2.11729E+03  7.34253E+03
 -8.78116E+03  3.51440E+03 -9.82546E+03 -4.91712E+03 -6.11386E+03 -1.10577E+04  1.85463E+03 -1.21026E+04
  6.98925E+03 -6.70492E+03  9.20489E+03 -3.79531E+02  6.61857E+03  3.37796E+03  5.13783E+02  5.02593E+03
 -5.10080E+03  1.03839E+03 -4.60307E+03 -5.00718E+03  1.98885E+03 -9.38648E+03  1.00818E+04 -7.40826E+03
  1.32812E+04  1.02522E+03  1.28417E+04  9.51862E+03  4.26824E+03  1.41690E+04 -5.42492E+03  1.22465E+04
 -1.10354E+04  6.41162E+03 -1.13571E+04 -1.98009E+03 -6.42273E+03 -9.08246E+03  2.09541E+03 -9.16614E+03
  7.48382E+03 -3.61918E+03  6.96432E+03  4.26865E+03  2.37767E+03  7.95346E+03 -2.30609E+03  6.58800E+03
 -3.18707E+03  3.90529E+03 -2.47145E+03  1.02454E+03 -1.85516E+03  1.34283E+03 -1.98145E+03  3.63783E+03
 -4.07264E+03  5.84019E+03 -9.27662E+03  4.54662E+03 -1.45178E+04  3.60471E+02 -1.44941E+04 -9.04150E+03
 -7.81188E+03 -1.81028E+04  3.41499E+03 -2.22800E+04  1.33766E+04 -1.70665E+04  2.05434E+04 -6.50695E+03
  1.97134E+04  3.73768E+03  1.18478E+04  1.33507E+04  1.89371E+03  1.55644E+04 -6.54048E+03  1.09612E+04
 -8.42657E+03  4.30154E+03 -4.57859E+03 -2.03708E+03 -7.66979E+02 -1.89936E+03 -6.63837E+02 -7.93284E+02
 -2.01885E+03  4.68498E+01 -3.04458E+03  5.33977E+02 -1.12366E+03 -3.98889E+03  5.58597E+02 -5.61441E+03
  6.01814E+03 -5.11905E+03  9.54894E+03 -1.75402E+02  1.12659E+04  8.79677E+03  3.54562E+03  1.40364E+04
 -6.20963E+03  1.66271E+04 -1.59488E+04  9.81473E+03 -1.80694E+04 -5.63165E+02 -1.40865E+04 -1.20539E+04
 -6.67037E+03 -1.52384E+04  4.14605E+03 -1.46220E+04  9.85990E+03 -8.06856E+03  1.04571E+04  8.23386E+01
  4.30481E+03  4.95908E+03  2.80035E+02  4.27330E+03 -2.75377E+03 -6.10012E+02 -4.34025E+02 -3.38960E+03
  4.02796E+03 -2.58730E+03  5.99897E+03  2.23196E+03  3.64185E+03  5.57902E+03 -1.57099E+02  8.16412E+03
 -7.67265E+03  6.87953E+03 -1.06901E+04  1.97738E+02 -9.21916E+03 -7.00977E+03 -1.36228E+03 -1.33445E+04
  7.20494E+03 -9.78993E+03  1.17137E+04 -3.65454E+03  1.23310E+04  3.15250E+03  6.14511E+03  1.01925E+04
  1.25778E+03  1.14708E+04 -3.08807E+03  8.24704E+03 -5.96422E+03  4.15178E+03 -5.10763E+03  1.12950E+03
 -2.91520E+03  1.29026E+02 -3.06135E+03  1.32564E+03 -5.78684E+03  2.01700E+03 -7.28576E+03 -1.98748E+02
 -7.70988E+03 -5.23411E+03 -2.95568E+03 -1.06185E+04  4.95532E+03 -1.12645E+04  9.40818E+03 -5.05789E+03
  1.11161E+04  1.71030E+03  6.27160E+03  7.70675E+03 -8.65301E+02  1.02952E+04 -8.34581E+03  5.52356E+03
