 $NMID ID='MM_0lb_SNR400_7hz_g40_65.RAW', FMTDAT='(8E13.5)'
 TRAMP=1., VOLUME=1. $END
  3.09227E+05 -7.56145E+02  3.37392E+05  2.50894E+05  8.53403E+04  3.38518E+05 -1.32139E+05  2.52302E+05
 -1.90876E+05  8.37531E+04 -1.12972E+05 -3.15981E+04 -1.43296E+02 -5.09785E+04  5.39456E+04 -7.32829E+02
  3.49600E+04  5.19629E+04 -1.72477E+04  7.63947E+04 -6.05370E+04  6.43699E+04 -8.54137E+04  3.33624E+04
 -8.35746E+04 -1.26393E+04 -5.86773E+04 -5.27984E+04 -1.49521E+04 -7.22072E+04  2.75029E+04 -4.69752E+04
  4.04921E+04  2.98544E+03  1.75753E+04  4.86264E+04 -3.48099E+04  4.78782E+04 -6.89605E+04 -5.91431E+01
 -5.58437E+04 -5.72111E+04 -7.40755E+03 -7.94195E+04  3.45549E+04 -5.73853E+04  5.09858E+04 -1.86576E+04
  4.67270E+04  1.16992E+04  3.37761E+04  2.66004E+04  1.55423E+04  3.06202E+04 -5.43818E+03  2.86250E+04
 -2.26901E+04  1.18931E+04 -1.83024E+04 -5.96376E+03  6.80490E+03 -6.87604E+03  2.35458E+04  1.44401E+04
  7.74281E+03  3.81635E+04 -3.45960E+04  3.68089E+04 -6.68005E+04  2.52703E+03 -5.90512E+04 -4.55036E+04
 -1.33235E+04 -6.63670E+04  4.20834E+04 -4.75744E+04  6.26321E+04 -2.42796E+03  3.78621E+04  3.45820E+04
 -7.04671E+03  4.04514E+04 -3.29736E+04  1.98726E+04 -3.39714E+04 -3.57166E+03 -1.99114E+04 -1.19872E+04
 -1.00991E+04 -1.48729E+04 -4.43714E+02 -1.96627E+04  7.83661E+03 -2.35581E+04  1.53377E+04 -1.18067E+04
  1.05107E+04  7.01429E+03 -1.05512E+04  1.22053E+04 -2.40087E+04 -6.84615E+03 -9.34551E+03 -3.83338E+04
  2.51573E+04 -4.78180E+04  5.26911E+04 -2.11260E+04  4.97417E+04  2.06607E+04  1.79727E+04  4.75083E+04
 -1.59289E+04  3.60525E+04 -2.82218E+04  2.41103E+03 -1.22283E+04 -3.04188E+04  2.18789E+04 -3.72188E+04
  4.49634E+04 -1.16664E+04  4.11172E+04  2.48338E+04  2.24397E+04  5.20039E+04 -7.95563E+03  5.76365E+04
 -3.66988E+04  3.95521E+04 -4.84733E+04  1.11653E+04 -4.85439E+04 -1.87599E+04 -2.65554E+04 -4.35134E+04
  7.88516E+03 -4.27983E+04  3.47922E+04 -1.78133E+04  3.30074E+04  1.16670E+04  6.10098E+03  2.16842E+04
 -1.36353E+04  9.53814E+03 -1.23881E+04 -7.69272E+03  6.40976E+03 -1.24875E+04  1.80465E+04  5.56379E+03
  1.57082E+04  2.25198E+04 -5.19862E+03  2.69456E+04 -2.40866E+04  1.56853E+04 -3.22269E+04 -2.27138E+03
 -2.67726E+04 -1.84559E+04 -1.21385E+04 -2.64741E+04  3.63688E+03 -2.70062E+04  2.15452E+04 -2.50489E+04
  3.29481E+04 -1.41139E+04  3.96657E+04  5.25331E+03  2.80475E+04  2.47955E+04  3.85017E+03  4.24584E+04
 -2.07179E+04  3.47951E+04 -3.11452E+04  1.23729E+04 -2.28761E+04 -1.05750E+04 -5.13108E+03 -1.38332E+04
  8.34907E+02 -8.01900E+02 -8.12141E+03  8.90704E+03 -2.07380E+04  4.32090E+03 -2.21397E+04 -9.96479E+03
 -1.17662E+04 -2.48577E+04  5.79126E+03 -2.77580E+04  2.01759E+04 -2.05623E+04  2.37082E+04 -1.52377E+03
  1.53380E+04  1.66195E+04 -1.89457E+03  2.35042E+04 -1.84152E+04  1.38821E+04 -2.50840E+04 -4.23603E+03
 -1.77396E+04 -2.17559E+04 -2.29274E+03 -2.93672E+04  1.33153E+04 -2.44931E+04  2.48619E+04 -1.32941E+04
  2.32090E+04 -3.44768E+02  1.71392E+04  4.66716E+03  8.71576E+03  2.03272E+03  1.28589E+04 -1.90938E+03
  2.42442E+04  2.91837E+03  2.77164E+04  1.90555E+04  1.84466E+04  4.02786E+04 -3.08318E+03  4.79666E+04
 -2.70184E+04  3.95361E+04 -4.44349E+04  2.14362E+04 -4.76547E+04 -3.79201E+03 -3.72380E+04 -2.84910E+04
 -1.53958E+04 -3.98480E+04  1.46375E+04 -3.46484E+04  2.98350E+04 -1.67486E+04  2.61586E+04  8.21321E+03
  8.04375E+03  1.99085E+04 -1.29084E+04  1.73078E+04 -2.20621E+04  2.56132E+03 -1.65342E+04 -1.38943E+04
 -5.35023E+01 -2.08562E+04  1.07032E+04 -1.53378E+04  1.50017E+04 -2.32919E+03  3.37575E+03  9.81847E+03
 -9.98372E+03  4.33705E+03 -1.01731E+04 -7.31367E+03 -3.02926E+03 -1.98299E+04  1.24471E+04 -2.16155E+04
  2.49339E+04 -1.27027E+04  2.90016E+04  2.95152E+03  2.55388E+04  2.04898E+04  1.17452E+04  3.19559E+04
 -5.96927E+03  3.41676E+04 -2.22930E+04  2.04197E+04 -2.52637E+04  4.37779E+03 -1.70826E+04 -6.26551E+03
 -7.44646E+03 -7.61626E+03 -1.55165E+03  1.08262E+02 -3.65810E+03  2.84402E+03 -7.95993E+03  6.24537E+03
 -1.53600E+04 -7.74329E+02 -1.60178E+04 -1.39481E+04 -7.26012E+03 -2.06042E+04  7.02198E+03 -1.75425E+04
  1.50068E+04 -8.08791E+03  9.64046E+03  4.15528E+03 -4.61735E+02  7.30953E+03 -9.06794E+03  9.20938E+01
 -8.53025E+03 -1.16174E+04 -1.21249E+03 -1.70596E+04  1.03856E+04 -1.82365E+04  2.16008E+04 -9.58915E+03
  2.63931E+04  3.33923E+03  1.92513E+04  1.62089E+04  3.47314E+03  2.08654E+04 -1.09872E+04  1.69622E+04
 -1.38159E+04  4.51117E+03 -7.93326E+03 -3.88916E+03  1.78481E+03 -4.35948E+03  9.81118E+03 -5.87567E+02
  8.60997E+03  7.86447E+03  1.10764E+03  1.32857E+04 -1.04183E+04  1.33012E+04 -1.74035E+04  3.32499E+03
 -1.17797E+04 -8.69404E+03  6.69716E+02 -1.52088E+04  1.02501E+04 -8.05352E+03  1.01610E+04  2.98250E+03
  2.72011E+03  1.19345E+04 -9.18683E+03  1.16720E+04 -1.58181E+04  5.89071E+03 -1.62226E+04 -6.60913E+03
 -8.91707E+03 -1.85428E+04  4.82277E+03 -2.15536E+04  1.78357E+04 -1.15225E+04  1.79724E+04  4.01896E+03
  1.10262E+04  1.57067E+04 -1.97136E+03  1.80326E+04 -1.37067E+04  8.29392E+03 -1.53861E+04 -1.91536E+03
 -1.13238E+04 -1.22051E+04 -1.76898E+03 -1.43518E+04  6.91967E+03 -1.03036E+04  8.60904E+03 -3.56140E+03
  6.09257E+03  2.35672E+03 -8.26431E+02  1.60630E+03 -7.85001E+02 -3.63838E+03  3.33272E+03 -9.18423E+03
  1.37560E+04 -6.54251E+03  1.76980E+04  1.94287E+03  1.79472E+04  1.24343E+04  1.10560E+04  2.41738E+04
 -5.80548E+03  2.75475E+04 -2.27318E+04  2.04913E+04 -2.95568E+04  3.51877E+03 -2.39072E+04 -1.05684E+04
 -1.18743E+04 -2.00133E+04 -9.41972E+01 -1.66573E+04  5.89664E+03 -9.67616E+03  6.48201E+03 -6.35012E+03
  4.31549E+03 -3.00952E+03  4.89931E+03 -3.36320E+03  5.87896E+03 -4.45697E+03  9.46098E+03 -2.84691E+03
  1.17029E+04  2.97416E+03  7.38736E+03  1.10915E+04 -2.11437E+03  1.30062E+04 -1.23876E+04  1.09027E+04
 -1.69138E+04 -1.58259E+03 -1.15217E+04 -1.16769E+04 -2.01761E+03 -1.89729E+04  9.24703E+03 -1.84329E+04
  1.97748E+04 -1.00450E+04  2.27623E+04  3.79423E+03  1.53487E+04  1.55903E+04  2.28318E+03  2.05940E+04
 -8.53134E+03  1.69017E+04 -1.21068E+04  6.22352E+03 -8.66672E+03 -2.42836E+03 -3.55395E+03 -2.61190E+03
 -2.16338E+03 -8.38426E+02 -2.71343E+03  2.70209E+03 -6.28187E+03  3.14542E+03 -1.27325E+04 -1.47182E+03
 -8.37850E+03 -1.20844E+04 -6.56336E+02 -1.68194E+04  1.09520E+04 -1.58566E+04  1.76434E+04 -4.77014E+03
  1.76496E+04  8.87048E+03  7.99768E+03  1.66893E+04 -4.47848E+03  1.78222E+04 -1.28873E+04  1.04520E+04
 -1.72314E+04 -1.80997E+02 -1.28604E+04 -1.05786E+04 -1.30184E+03 -1.57678E+04  7.20651E+03 -1.07877E+04
  1.10678E+04 -3.31540E+03  8.17284E+03  3.18409E+03  2.84528E+03  5.24296E+03  2.37985E+03  2.33565E+03
  3.05226E+03  5.36715E+02  4.54847E+03  2.27010E+03  5.26598E+03  6.01698E+03  4.64623E+03  9.51634E+03
 -3.34925E+03  1.47998E+04 -1.19378E+04  1.40994E+04 -1.85474E+04  2.89474E+03 -1.88706E+04 -8.29190E+03
 -8.98262E+03 -1.82213E+04  2.80452E+03 -1.95495E+04  1.06463E+04 -1.22017E+04  1.47101E+04 -3.58371E+03
  1.11763E+04  6.56521E+03  2.72438E+03  9.39627E+03 -5.54172E+03  7.00891E+03 -7.83320E+03 -1.67557E+03
 -3.45289E+03 -8.20069E+03  3.93331E+03 -8.35322E+03  7.78152E+03 -3.36647E+03  7.36434E+03  1.71934E+03
  4.33750E+03  4.44444E+03  2.16162E+03  3.33176E+03 -8.55958E+02  3.58448E+03  2.04621E+03 -3.41154E+02
  3.10335E+03 -1.09375E+03  7.54580E+03  3.32149E+03  5.15665E+03  9.95014E+03 -1.27580E+03  1.27124E+04
 -8.85027E+03  8.63196E+03 -1.22129E+04  2.33905E+03 -1.01250E+04 -3.82809E+03 -4.31650E+03 -7.75372E+03
  1.06722E+03 -6.89160E+03  4.75587E+03 -3.40899E+03  3.50716E+03  3.67182E+03 -1.99927E+03  5.97794E+03
 -7.07535E+03  3.38273E+03 -8.39238E+03 -5.32067E+03 -5.56742E+03 -1.02371E+04  1.96731E+03 -1.08365E+04
  6.53134E+03 -7.07291E+03  7.75234E+03 -1.12335E+03  5.64197E+03  3.42964E+03  9.43408E+02  4.41975E+03
 -3.77683E+03  1.88822E+03 -4.66884E+03 -4.23378E+03  1.71737E+03 -7.87349E+03  8.91353E+03 -6.89412E+03
  1.27629E+04  1.38235E+03  1.03710E+04  8.37205E+03  3.52433E+03  1.29254E+04 -5.01968E+03  1.22601E+04
 -9.43252E+03  5.42534E+03 -1.14552E+04 -8.54023E+02 -6.82236E+03 -8.67280E+03  2.64496E+03 -8.17217E+03
  7.54647E+03 -4.63529E+03  7.87502E+03  2.99679E+03  2.20281E+03  7.30847E+03 -2.61859E+03  6.27451E+03
 -3.52830E+03  3.74931E+03 -3.33051E+03  6.81472E+02 -2.53131E+03  1.58897E+03 -1.88382E+03  2.17015E+03
 -3.69953E+03  4.91741E+03 -8.91809E+03  4.68128E+03 -1.28734E+04  7.97958E+02 -1.42080E+04 -9.11358E+03
 -7.13666E+03 -1.70695E+04  4.22235E+03 -2.04812E+04  1.28878E+04 -1.60981E+04  1.82893E+04 -6.21989E+03
  1.76934E+04  3.43319E+03  1.19317E+04  1.24118E+04  5.84263E+02  1.34227E+04 -6.25328E+03  1.01270E+04
 -7.92393E+03  4.13000E+03 -4.78975E+03 -2.13417E+03 -1.74689E+03 -1.79860E+03 -8.78580E+02  2.33883E+02
 -2.40621E+03  7.18024E+02 -3.30783E+03 -1.30371E+03 -1.66579E+03 -4.31542E+03  1.40717E+03 -4.82754E+03
  5.71964E+03 -4.12953E+03  8.28808E+03  8.09063E+01  9.82945E+03  8.26204E+03  2.70418E+03  1.44897E+04
 -7.57672E+03  1.49779E+04 -1.55313E+04  8.98098E+03 -1.72042E+04 -5.37902E+02 -1.26353E+04 -1.00728E+04
 -5.82053E+03 -1.48392E+04  3.34787E+03 -1.41287E+04  9.73316E+03 -7.18514E+03  9.69394E+03 -1.44700E+02
  5.95830E+03  5.20656E+03 -1.60935E+03  4.06772E+03 -1.61575E+03 -3.17846E+02  6.18989E+02 -3.63575E+03
  3.55515E+03 -1.41491E+03  6.03667E+03  1.28160E+03  4.35246E+03  5.12671E+03  8.80108E+02  8.20937E+03
 -5.81877E+03  6.32308E+03 -9.18138E+03  7.92815E+02 -7.85901E+03 -6.37004E+03 -7.57194E+02 -1.18435E+04
  7.00819E+03 -1.07748E+04  1.06757E+04 -3.31900E+03  1.06794E+04  3.01648E+03  6.44216E+03  8.22200E+03
  7.51463E+02  1.01616E+04 -4.41081E+03  7.39409E+03 -5.34300E+03  4.11856E+03 -5.22703E+03  1.90548E+02
 -4.28098E+03 -2.71980E+02 -2.73745E+03  1.09875E+03 -5.67736E+03  1.54236E+03 -7.93036E+03 -2.00596E+03
 -7.02752E+03 -6.06656E+03 -2.23706E+03 -9.38965E+03  4.61620E+03 -9.92474E+03  8.67302E+03 -4.39571E+03
  1.02294E+04  5.82919E+02  6.14520E+03  6.61541E+03 -1.08572E+03  1.00656E+04 -7.50744E+03  5.81949E+03
