 $NMID ID='MM_0lb_SNR400_14hz_g40_90.RAW', FMTDAT='(8E13.5)'
 TRAMP=1., VOLUME=1. $END
  3.09408E+05  2.02688E+02  3.36907E+05  2.50429E+05  8.37917E+04  3.37619E+05 -1.32377E+05  2.50749E+05
 -1.89931E+05  8.33002E+04 -1.11436E+05 -3.29498E+04  1.44421E+03 -5.04684E+04  5.35023E+04 -3.70648E+02
  3.52177E+04  5.31235E+04 -1.69022E+04  7.53410E+04 -6.09375E+04  6.26835E+04 -8.37450E+04  3.20371E+04
 -8.07236E+04 -1.12363E+04 -5.66269E+04 -5.11569E+04 -1.51374E+04 -6.90932E+04  2.69933E+04 -4.54939E+04
  4.02045E+04  3.80486E+03  1.69842E+04  4.80319E+04 -3.39118E+04  4.73443E+04 -6.63008E+04  2.31051E+02
 -5.23959E+04 -5.66102E+04 -7.09661E+03 -7.57864E+04  3.31982E+04 -5.42943E+04  4.72653E+04 -1.68552E+04
  4.31440E+04  1.12145E+04  3.14489E+04  2.53417E+04  1.62805E+04  2.88547E+04 -5.35988E+03  2.68468E+04
 -2.18584E+04  1.24125E+04 -1.88321E+04 -5.36532E+03  5.71937E+03 -7.87909E+03  2.19837E+04  1.19618E+04
  7.14906E+03  3.52475E+04 -3.21563E+04  3.49339E+04 -6.28304E+04  2.13169E+03 -5.65007E+04 -4.24828E+04
 -1.24163E+04 -6.26320E+04  3.93424E+04 -4.44030E+04  5.72777E+04 -1.38858E+03  3.36776E+04  3.11594E+04
 -6.51562E+03  3.55450E+04 -2.93767E+04  1.54717E+04 -2.94193E+04 -4.58541E+03 -1.59260E+04 -1.05954E+04
 -8.79620E+03 -1.24684E+04 -8.19200E+02 -1.75628E+04  7.26967E+03 -2.30752E+04  1.53897E+04 -1.33585E+04
  1.19884E+04  5.18641E+03 -7.96212E+03  1.36189E+04 -2.05214E+04 -4.18090E+03 -8.49537E+03 -3.28438E+04
  2.25855E+04 -4.19079E+04  4.76734E+04 -1.90731E+04  4.49211E+04  1.87009E+04  1.48555E+04  4.39155E+04
 -1.56646E+04  3.32109E+04 -2.47318E+04  1.53709E+03 -9.15820E+03 -2.80633E+04  2.09963E+04 -3.26183E+04
  3.98799E+04 -8.10026E+03  3.48507E+04  2.36566E+04  1.71922E+04  4.52285E+04 -7.58051E+03  4.88351E+04
 -3.13708E+04  3.29681E+04 -4.01212E+04  9.54692E+03 -4.16313E+04 -1.66993E+04 -2.33501E+04 -3.67638E+04
  6.79942E+03 -3.70344E+04  3.09269E+04 -1.44760E+04  2.82952E+04  1.09960E+04  3.90632E+03  1.87506E+04
 -1.35757E+04  8.65268E+03 -1.05360E+04 -7.97841E+03  5.79567E+03 -1.04597E+04  1.76412E+04  6.30216E+03
  1.28198E+04  2.17428E+04 -5.56548E+03  2.42184E+04 -2.22364E+04  1.10240E+04 -2.75385E+04 -5.05279E+03
 -1.97232E+04 -1.70488E+04 -8.08838E+03 -1.96482E+04  3.72476E+03 -1.86229E+04  1.51105E+04 -1.67519E+04
  2.47765E+04 -1.24125E+04  3.11548E+04  2.42039E+03  2.35190E+04  1.91237E+04  4.35591E+03  3.50950E+04
 -1.74842E+04  3.02656E+04 -2.72765E+04  1.00981E+04 -2.08226E+04 -1.02926E+04 -4.77469E+03 -1.34203E+04
  2.15761E+03 -3.24685E+03 -4.52834E+03  6.18385E+03 -1.56012E+04  4.41200E+03 -1.51696E+04 -6.37607E+03
 -9.04846E+03 -1.83329E+04  4.99496E+03 -2.17102E+04  1.49161E+04 -1.66067E+04  1.79984E+04 -1.92241E+03
  1.10604E+04  1.25761E+04 -1.57529E+03  1.81598E+04 -1.29000E+04  1.05366E+04 -1.84602E+04 -3.93397E+03
 -1.34863E+04 -1.59123E+04 -1.85884E+03 -2.19040E+04  9.51933E+03 -1.85755E+04  1.86980E+04 -8.91883E+03
  1.69072E+04  1.69062E+02  1.23134E+04  5.00385E+03  6.30819E+03  4.87122E+02  9.80428E+03 -1.68524E+03
  1.62416E+04  2.20002E+03  1.82332E+04  1.49903E+04  1.14418E+04  2.99775E+04 -2.49866E+03  3.22359E+04
 -1.93261E+04  2.65065E+04 -3.05791E+04  1.28926E+04 -3.14546E+04 -2.50758E+03 -2.63146E+04 -1.85912E+04
 -1.15232E+04 -2.61039E+04  9.14826E+03 -2.38119E+04  2.03165E+04 -1.22516E+04  1.83704E+04  5.17967E+03
  7.46402E+03  1.37248E+04 -8.55471E+03  1.30928E+04 -1.53708E+04  2.42564E+03 -1.17879E+04 -9.97780E+03
 -2.48714E+02 -1.53399E+04  7.77383E+03 -1.15450E+04  9.89729E+03 -1.48214E+03  2.07808E+03  6.66395E+03
 -7.34408E+03  2.57676E+03 -6.07054E+03 -5.11162E+03 -1.06025E+03 -1.25037E+04  9.47606E+03 -1.31276E+04
  1.57337E+04 -6.22463E+03  1.67504E+04  2.90680E+03  1.48653E+04  1.22298E+04  6.76017E+03  1.89586E+04
 -3.12087E+03  2.11347E+04 -1.36515E+04  1.32597E+04 -1.52406E+04  3.36329E+03 -1.08713E+04 -3.24094E+03
 -5.12929E+03 -4.46504E+03 -8.84174E+02  8.91191E+02 -2.36570E+03  2.73124E+03 -4.83342E+03  4.24462E+03
 -9.75090E+03 -1.02701E+03 -1.02596E+04 -9.08953E+03 -4.41754E+03 -1.41378E+04  4.20772E+03 -1.03699E+04
  8.50558E+03 -4.82462E+03  6.87653E+03  3.18066E+03  1.46502E+01  3.50455E+03 -4.75801E+03 -1.53616E+02
 -4.70181E+03 -6.22426E+03 -8.70059E+02 -9.31436E+03  6.00410E+03 -1.13737E+04  1.35941E+04 -5.99944E+03
  1.53590E+04  1.38451E+03  1.24093E+04  9.50030E+03  2.30854E+03  1.20617E+04 -6.26006E+03  1.06025E+04
 -9.09976E+03  3.71192E+03 -4.27695E+03 -1.80540E+03  1.64763E+03 -2.71007E+03  6.29768E+03 -6.79552E+02
  5.29327E+03  4.66317E+03  9.22977E+02  9.20281E+03 -6.15973E+03  7.88887E+03 -1.06754E+04  2.93414E+03
 -7.20731E+03 -4.92975E+03  7.70797E+02 -9.06401E+03  5.49952E+03 -4.43835E+03  5.66010E+03  2.18222E+03
  1.39021E+03  5.52379E+03 -4.97642E+03  7.44795E+03 -7.78043E+03  2.97040E+03 -7.70394E+03 -1.97801E+03
 -4.53961E+03 -9.07631E+03  2.25064E+03 -1.02967E+04  9.37212E+03 -7.22255E+03  9.95109E+03  1.91454E+03
  6.21317E+03  7.50315E+03 -6.47302E+02  1.02519E+04 -7.46930E+03  5.33583E+03 -7.32435E+03 -8.41180E+02
 -7.57575E+03 -6.55914E+03 -9.24345E+02 -7.49442E+03  3.43574E+03 -6.27952E+03  4.43984E+03 -3.11426E+03
  3.45334E+03  9.22887E+02 -6.01199E+02  1.68834E+03  1.70539E+02 -1.18846E+03  1.36464E+03 -3.49260E+03
  6.29552E+03 -1.63796E+03  8.51967E+03  1.06528E+03  9.03043E+03  5.04601E+03  6.64148E+03  1.16352E+04
 -2.23921E+03  1.36307E+04 -1.09951E+04  1.02001E+04 -1.49035E+04  1.77731E+03 -1.14014E+04 -4.03986E+03
 -6.12151E+03 -9.63010E+03  3.72731E+02 -7.68997E+03  2.81831E+03 -3.56171E+03  2.62314E+03 -3.01947E+03
  1.98526E+03 -1.43050E+03  2.29153E+03 -2.52533E+03  4.68524E+03 -2.40731E+03  5.59720E+03  5.41992E+01
  5.84441E+03  1.53651E+03  2.43488E+03  5.54377E+03 -1.79714E+03  5.09042E+03 -6.40591E+03  4.20806E+03
 -8.04892E+03 -1.07148E+03 -4.19043E+03 -5.81517E+03 -1.81253E+02 -8.16292E+03  4.78514E+03 -8.24655E+03
  9.35482E+03 -5.09778E+03  1.06390E+04  5.74142E+02  7.30484E+03  6.65582E+03  8.85370E+02  1.02221E+04
 -3.57792E+03  8.63660E+03 -5.61927E+03  3.47479E+03 -3.29069E+03 -1.24060E+03 -1.23494E+03 -9.15746E+02
 -1.33428E+02 -1.20194E+02 -1.40789E+03  2.28404E+03 -3.67115E+03  1.18451E+03 -6.08734E+03 -8.45442E+02
 -2.91361E+03 -6.29967E+03  3.41060E+02 -8.05875E+03  4.92306E+03 -7.09692E+03  6.56018E+03 -2.42597E+03
  7.56425E+03  3.28504E+03  3.25879E+03  6.44835E+03 -1.44913E+03  7.40050E+03 -5.50268E+03  5.55108E+03
 -6.96030E+03  7.79215E+02 -6.04016E+03 -3.86976E+03 -8.15086E+02 -6.02444E+03  2.55090E+03 -4.58890E+03
  4.88300E+03 -1.28264E+03  2.91320E+03  1.35106E+03  3.69124E+02  2.33355E+03  1.05826E+03  5.72168E+02
  2.41391E+03  1.28417E+03  1.77205E+03  1.06542E+03  1.94917E+03  3.06810E+03  2.06005E+03  3.54017E+03
 -1.99632E+03  5.65280E+03 -4.41278E+03  6.47000E+03 -6.67822E+03  2.06294E+03 -7.81301E+03 -1.90844E+03
 -4.31790E+03 -7.20442E+03  1.01099E+03 -7.85942E+03  4.32739E+03 -4.64670E+03  5.95407E+03 -2.28922E+03
  4.83638E+03  2.35677E+03  7.96808E+02  3.73456E+03 -1.99207E+03  2.84652E+03 -2.37898E+03 -4.06751E+02
 -7.18575E+02 -2.76730E+03  1.62582E+03 -2.80141E+03  3.47405E+03 -1.53532E+03  2.78297E+03  7.83711E+02
  1.71721E+03  8.73320E+02  9.25969E+02  6.17870E+01 -3.33907E+02  1.54870E+03  1.29510E+03 -1.29811E+02
  1.11231E+03 -4.60836E+02  3.11898E+03  1.71309E+03  1.37434E+03  4.16755E+03 -6.22528E+02  5.12883E+03
 -3.63728E+03  3.04495E+03 -4.30598E+03  8.05515E+02 -3.81356E+03 -1.44708E+03 -1.43431E+03 -2.50892E+03
  8.10726E+02 -2.37765E+03  1.63544E+03 -1.08479E+03  1.00752E+03  1.52599E+03 -1.13598E+03  2.43993E+03
 -3.09757E+03  1.54518E+03 -3.08460E+03 -1.77033E+03 -9.08204E+02 -3.61931E+03  1.24732E+03 -2.98806E+03
  2.00768E+03 -1.93124E+03  2.79813E+03 -2.61317E+02  2.29730E+03  7.69771E+02  4.73116E+02  2.16021E+03
 -9.78865E+02  6.16090E+02 -1.34192E+03 -6.49674E+02  6.90934E+02 -2.18436E+03  3.39432E+03 -1.76955E+03
  3.54885E+03  3.33518E+02  4.64180E+03  2.15985E+03  1.11229E+03  3.61964E+03 -9.81039E+02  3.68118E+03
 -3.69927E+03  1.00628E+03 -3.60187E+03 -1.99805E+02 -2.30380E+03 -3.43256E+03  5.92763E+02 -2.58414E+03
  2.92683E+03 -1.01662E+03  1.88556E+03  4.59030E+02  7.64875E+02  3.08918E+03  5.96829E+02  2.55704E+03
 -1.20048E+03  2.03649E+03 -8.76848E+02  1.12247E+03 -8.28983E+02  1.03551E+02 -1.58636E+03  9.55009E+02
 -8.68091E+02  1.54989E+03 -3.32081E+03  1.18069E+03 -4.07075E+03 -1.23940E+02 -4.43464E+03 -2.67924E+03
 -2.49291E+03 -5.39533E+03  1.05244E+03 -5.63801E+03  3.98258E+03 -5.39168E+03  6.30836E+03 -2.18957E+03
  5.47709E+03  1.52265E+02  2.96795E+03  3.56431E+03 -2.38586E+02  3.94440E+03 -1.23509E+03  2.56774E+03
 -2.03707E+03  1.32339E+03 -1.93370E+03 -8.17239E+02 -7.26348E+02 -1.31038E+02 -9.04114E+02 -2.50641E+02
 -1.22479E+03  1.20410E+02 -9.53911E+02 -2.51014E+02  1.28656E+02 -1.18444E+03 -3.19295E+02 -1.68041E+03
  2.40436E+03 -1.49915E+03  1.09752E+03  9.74673E+02  2.96713E+03  2.47498E+03  6.79751E+02  3.48266E+03
 -2.08527E+03  4.49832E+03 -4.06479E+03  2.51107E+03 -4.38962E+03 -5.70602E+02 -3.28442E+03 -2.85975E+03
 -1.81085E+03 -3.43542E+03  4.23096E+02 -3.85002E+03  2.29171E+03 -2.22086E+03  2.29900E+03  3.21092E+02
  1.33579E+03  1.03143E+03 -5.86441E+02  7.06664E+02 -7.03942E+02  8.84085E+02  2.50004E+01 -3.94795E+02
  1.59802E+03 -5.21293E+02  1.80081E+03  5.30389E+02  1.22610E+03  1.54648E+03  1.78882E+02  1.65915E+03
 -1.47505E+03  1.74776E+03 -1.95677E+03  4.67595E+02 -2.03426E+03 -2.00168E+03 -5.77703E+02 -3.45115E+03
  1.81049E+03 -1.74473E+03  2.47156E+03 -5.29210E+02  2.31095E+03  5.94613E+02  2.09915E+03  1.80107E+03
  7.26064E+02  2.04353E+03 -1.46604E+03  2.19523E+03 -1.22871E+03  1.39180E+03 -1.11817E+03 -4.20891E+02
 -4.25839E+02 -3.11412E+02 -1.08361E+03  1.26661E+02 -1.34316E+03  6.06885E+02 -1.63916E+03 -4.83076E+02
 -1.77216E+03 -9.91562E+02 -8.64863E+02 -2.80669E+03  1.83325E+03 -2.92769E+03  2.33517E+03 -7.27225E+02
  2.42917E+03  3.80941E+02  1.41923E+03  1.65479E+03 -7.77437E+02  3.28662E+03 -1.94444E+03  8.43514E+02
