 $NMID ID='MM_0lb_SNR400_10hz_g50_52.RAW', FMTDAT='(8E13.5)'
 TRAMP=1., VOLUME=1. $END
  3.09143E+05  4.01714E+02  3.37774E+05  2.50677E+05  8.58167E+04  3.38877E+05 -1.32475E+05  2.51864E+05
 -1.90976E+05  8.39276E+04 -1.13004E+05 -3.20393E+04  2.14817E+02 -5.08810E+04  5.41890E+04  9.36427E+01
  3.56418E+04  5.34121E+04 -1.60618E+04  7.65987E+04 -6.22942E+04  6.50875E+04 -8.51483E+04  3.20057E+04
 -8.26527E+04 -1.20351E+04 -5.85577E+04 -5.13440E+04 -1.49654E+04 -7.11458E+04  2.84368E+04 -4.63802E+04
  4.07094E+04  3.27024E+03  1.67510E+04  4.81013E+04 -3.51664E+04  4.70630E+04 -6.80133E+04 -2.65192E+02
 -5.49961E+04 -5.77720E+04 -7.43594E+03 -7.87619E+04  3.43766E+04 -5.69160E+04  4.94918E+04 -1.87378E+04
  4.41825E+04  1.14451E+04  3.22911E+04  2.64454E+04  1.58997E+04  3.04816E+04 -6.22064E+03  2.74388E+04
 -2.17991E+04  1.25638E+04 -1.79982E+04 -5.21262E+03  7.49083E+03 -7.91511E+03  2.38781E+04  1.35369E+04
  7.47376E+03  3.66459E+04 -3.39979E+04  3.68302E+04 -6.55278E+04  3.05663E+03 -5.77855E+04 -4.40987E+04
 -1.31167E+04 -6.52076E+04  4.24830E+04 -4.68168E+04  6.04092E+04 -1.63776E+03  3.60118E+04  3.37539E+04
 -5.77323E+03  3.86934E+04 -3.12284E+04  1.83195E+04 -3.26139E+04 -4.05315E+03 -1.91416E+04 -1.14338E+04
 -9.30303E+03 -1.49339E+04 -4.46358E+02 -1.90977E+04  7.87531E+03 -2.31966E+04  1.65032E+04 -1.31973E+04
  1.05322E+04  6.15261E+03 -1.01483E+04  1.30126E+04 -2.34004E+04 -6.15585E+03 -9.01533E+03 -3.62166E+04
  2.45994E+04 -4.66450E+04  5.08622E+04 -2.09522E+04  4.78748E+04  2.03032E+04  1.69073E+04  4.62300E+04
 -1.72534E+04  3.56971E+04 -2.70515E+04  2.17777E+03 -1.10612E+04 -2.89763E+04  2.18266E+04 -3.62156E+04
  4.40377E+04 -1.07760E+04  3.96102E+04  2.59003E+04  2.03236E+04  5.10481E+04 -8.02373E+03  5.48087E+04
 -3.51046E+04  3.73001E+04 -4.66515E+04  1.09251E+04 -4.66508E+04 -1.84635E+04 -2.58684E+04 -4.05971E+04
  8.61180E+03 -4.24572E+04  3.33939E+04 -1.71009E+04  3.16563E+04  1.11797E+04  4.88501E+03  2.08840E+04
 -1.40711E+04  9.85032E+03 -1.08258E+04 -7.52258E+03  5.32416E+03 -1.08588E+04  1.88919E+04  5.33954E+03
  1.48302E+04  2.17672E+04 -5.96538E+03  2.68583E+04 -2.30545E+04  1.38595E+04 -3.06689E+04 -3.75103E+03
 -2.41254E+04 -1.82338E+04 -1.09694E+04 -2.44529E+04  4.92306E+03 -2.36929E+04  1.87867E+04 -2.22810E+04
  2.99740E+04 -1.33173E+04  3.72701E+04  4.71779E+03  2.64654E+04  2.37718E+04  4.55290E+03  4.00757E+04
 -2.00926E+04  3.28150E+04 -3.09845E+04  1.10272E+04 -2.21832E+04 -1.07907E+04 -5.11456E+03 -1.38776E+04
  1.38854E+03 -1.66517E+03 -6.23332E+03  7.94273E+03 -1.94047E+04  5.14815E+03 -1.92582E+04 -8.51045E+03
 -1.25679E+04 -2.25841E+04  6.47439E+03 -2.79370E+04  1.75924E+04 -1.90742E+04  2.13065E+04 -1.76492E+03
  1.40822E+04  1.56804E+04 -1.41925E+03  2.16497E+04 -1.57719E+04  1.28122E+04 -2.23562E+04 -5.05002E+03
 -1.71081E+04 -1.97147E+04 -1.35909E+03 -2.60633E+04  1.22172E+04 -2.22862E+04  2.23165E+04 -1.17962E+04
  2.13743E+04 -4.70249E+02  1.48904E+04  4.82744E+03  8.25000E+03  1.09047E+03  1.15173E+04 -1.15843E+03
  2.10568E+04  2.15464E+03  2.50981E+04  1.82635E+04  1.63447E+04  3.56535E+04 -2.60816E+03  4.29757E+04
 -2.39754E+04  3.49321E+04 -3.96019E+04  1.83228E+04 -4.21992E+04 -2.48170E+03 -3.44549E+04 -2.44122E+04
 -1.40731E+04 -3.59375E+04  1.26442E+04 -3.07360E+04  2.57779E+04 -1.44286E+04  2.33634E+04  6.99356E+03
  8.23457E+03  1.80985E+04 -1.07717E+04  1.55940E+04 -1.92134E+04  2.89260E+03 -1.51099E+04 -1.22450E+04
 -5.54260E+01 -1.83228E+04  1.02191E+04 -1.36359E+04  1.26771E+04 -1.26917E+03  3.71157E+03  7.42882E+03
 -8.86828E+03  4.39804E+03 -8.73853E+03 -6.22214E+03 -2.51216E+03 -1.61064E+04  1.11472E+04 -1.86015E+04
  2.15732E+04 -1.05802E+04  2.45815E+04  3.52987E+03  2.22405E+04  1.81928E+04  9.95692E+03  2.77788E+04
 -4.90877E+03  2.97976E+04 -1.87674E+04  1.84563E+04 -2.13659E+04  3.49648E+03 -1.46980E+04 -4.96735E+03
 -6.88924E+03 -6.61640E+03 -1.01324E+03  4.17355E+02 -2.86967E+03  2.75774E+03 -7.12855E+03  4.70896E+03
 -1.32118E+04 -1.30192E+03 -1.36657E+04 -1.19440E+04 -6.32405E+03 -1.86512E+04  6.00791E+03 -1.48866E+04
  1.20386E+04 -6.28974E+03  8.56858E+03  4.03222E+03 -3.70501E+02  5.69421E+03 -7.08950E+03 -9.15976E+01
 -7.19187E+03 -9.42060E+03 -6.56129E+02 -1.47536E+04  8.19662E+03 -1.50158E+04  1.94776E+04 -8.50209E+03
  2.25310E+04  2.96570E+03  1.59493E+04  1.31202E+04  3.54045E+03  1.83172E+04 -8.67090E+03  1.42376E+04
 -1.17174E+04  4.42772E+03 -6.41660E+03 -3.07047E+03  1.72976E+03 -3.73278E+03  8.83501E+03 -9.17648E+02
  6.54632E+03  6.09408E+03  9.44657E+02  1.17352E+04 -9.16904E+03  1.11141E+04 -1.38585E+04  2.22716E+03
 -9.24574E+03 -7.49007E+03 -3.23554E+02 -1.32173E+04  8.61445E+03 -6.30371E+03  8.27984E+03  3.68422E+03
  1.18481E+03  9.12256E+03 -7.95548E+03  9.99246E+03 -1.23699E+04  4.53105E+03 -1.31278E+04 -4.97035E+03
 -7.79986E+03 -1.58586E+04  3.48427E+03 -1.59593E+04  1.34985E+04 -1.07361E+04  1.49307E+04  3.94838E+03
  9.53372E+03  1.19558E+04 -1.31377E+03  1.39109E+04 -1.08833E+04  8.15831E+03 -1.13459E+04 -1.44829E+03
 -1.02842E+04 -1.01328E+04 -1.69839E+03 -1.08874E+04  6.19527E+03 -8.67161E+03  6.78735E+03 -3.94094E+03
  3.82643E+03  2.37897E+03 -6.61650E+02  1.88513E+03 -7.57201E+02 -2.67126E+03  1.99851E+03 -6.66643E+03
  1.02113E+04 -4.71930E+03  1.44525E+04  2.30591E+03  1.41435E+04  1.04738E+04  9.73381E+03  1.81863E+04
 -4.36863E+03  2.15965E+04 -1.72947E+04  1.62842E+04 -2.35616E+04  3.01706E+03 -1.83949E+04 -9.03563E+03
 -8.60530E+03 -1.53665E+04 -2.49485E+02 -1.24929E+04  4.95686E+03 -6.81587E+03  4.30784E+03 -5.72518E+03
  3.95399E+03 -4.36250E+03  4.08146E+03 -3.84641E+03  4.98958E+03 -3.24695E+03  7.17567E+03 -2.05875E+03
  1.04503E+04  2.12962E+03  4.86313E+03  9.06008E+03 -1.86920E+03  9.62927E+03 -1.01092E+04  8.72329E+03
 -1.29601E+04 -1.12640E+03 -8.46663E+03 -9.17907E+03 -6.10207E+02 -1.48531E+04  7.20103E+03 -1.36960E+04
  1.51322E+04 -8.40629E+03  1.75451E+04  2.48114E+03  1.17995E+04  1.22447E+04  1.15029E+03  1.59536E+04
 -7.02443E+03  1.36957E+04 -1.00489E+04  4.63143E+03 -6.72063E+03 -2.27138E+03 -2.50432E+03 -2.26575E+03
 -1.44106E+03  7.10054E+02 -1.66165E+03  3.05306E+03 -5.37801E+03  2.57452E+03 -7.84066E+03 -1.35133E+03
 -6.12741E+03 -9.50017E+03 -3.27509E+02 -1.22680E+04  8.11653E+03 -1.27943E+04  1.26999E+04 -3.86863E+03
  1.30167E+04  6.67081E+03  6.58882E+03  1.15140E+04 -3.06898E+03  1.35372E+04 -9.22634E+03  8.73538E+03
 -1.22340E+04  4.76576E+02 -1.08435E+04 -8.26327E+03 -1.36013E+03 -1.11197E+04  6.16760E+03 -8.59826E+03
  8.53491E+03 -2.39357E+03  5.81689E+03  1.41839E+03  2.35729E+03  4.64551E+03  1.69865E+03  1.99007E+03
  2.71735E+03  6.77202E+02  2.88215E+03  1.71460E+03  3.86386E+03  4.53064E+03  4.45389E+03  5.95082E+03
 -2.65440E+03  1.10634E+04 -9.50988E+03  1.15100E+04 -1.29220E+04  2.87183E+03 -1.35792E+04 -5.56468E+03
 -6.94458E+03 -1.30743E+04  2.19020E+03 -1.42904E+04  8.24245E+03 -9.95092E+03  1.05619E+04 -2.65672E+03
  8.67946E+03  4.62110E+03  1.39319E+03  7.14828E+03 -3.97928E+03  4.22931E+03 -5.45300E+03 -3.50331E+02
 -3.01998E+03 -6.34683E+03  3.34136E+03 -5.81462E+03  5.87457E+03 -2.08649E+03  5.53258E+03  1.11339E+03
  2.91466E+03  2.47457E+03  6.47529E+02  1.55999E+03 -9.15104E+02  2.60709E+03  2.06113E+03 -9.01865E+01
  2.01824E+03 -4.41207E+02  5.36695E+03  2.05778E+03  3.32969E+03  7.61076E+03 -3.45500E+02  9.78098E+03
 -5.07500E+03  5.61513E+03 -7.75616E+03  1.28571E+03 -7.04609E+03 -3.36813E+03 -2.84956E+03 -4.85355E+03
  5.64432E+02 -5.70873E+03  3.35149E+03 -2.13075E+03  2.13650E+03  3.21943E+03 -1.79402E+03  4.58346E+03
 -4.85052E+03  2.36839E+03 -6.00793E+03 -2.70077E+03 -3.54411E+03 -7.44667E+03  9.28865E+02 -6.87925E+03
  4.22874E+03 -3.87961E+03  5.36415E+03 -7.51071E+01  4.93174E+03  2.04192E+03  8.45189E+02  3.57600E+03
 -3.55961E+03  7.85605E+02 -3.69320E+03 -2.60324E+03  3.16051E+02 -5.83156E+03  6.30207E+03 -4.86018E+03
  8.34922E+03  9.29436E+02  7.58577E+03  5.38884E+03  2.19910E+03  9.27687E+03 -3.14964E+03  8.17353E+03
 -7.34952E+03  3.45492E+03 -7.40380E+03 -1.13178E+03 -3.80003E+03 -5.40039E+03  9.56045E+02 -5.10740E+03
  4.53363E+03 -2.33697E+03  4.39841E+03  2.44311E+03  1.79331E+03  4.74995E+03 -1.48030E+03  4.83966E+03
 -1.81265E+03  3.63458E+03 -2.23387E+03  5.87740E+02 -1.51025E+03  1.24169E+03 -5.38078E+02  1.47611E+03
 -2.69615E+03  3.09773E+03 -5.24743E+03  2.40885E+03 -7.86549E+03  2.74552E+02 -8.98974E+03 -5.98212E+03
 -4.89848E+03 -1.10028E+04  2.18425E+03 -1.29743E+04  8.65945E+03 -1.00621E+04  1.19739E+04 -3.82696E+03
  1.12868E+04  2.16115E+03  7.00259E+03  8.01230E+03  7.79996E+02  8.79326E+03 -3.80906E+03  6.22784E+03
 -5.64062E+03  2.72309E+03 -2.82184E+03 -1.38327E+03 -1.19020E+03 -8.19634E+02 -1.16807E+03 -3.66277E+00
 -1.04944E+03  3.33370E+02 -2.11167E+03 -3.60633E+02 -6.07849E+02 -2.67070E+03  1.76515E+02 -3.94979E+03
  4.12213E+03 -2.61538E+03  4.82156E+03  3.93467E+02  6.75248E+03  4.93374E+03  6.26678E+02  8.89232E+03
 -4.08471E+03  1.03159E+04 -9.30671E+03  5.38013E+03 -1.06776E+04 -5.16083E+02 -7.55597E+03 -5.83533E+03
 -3.73287E+03 -9.62664E+03  2.62351E+03 -7.36081E+03  6.29259E+03 -4.37598E+03  5.65384E+03  6.59090E+02
  2.70222E+03  3.52940E+03 -4.34787E+02  2.39924E+03 -1.40119E+03 -8.91940E+02 -7.41447E+02 -1.88887E+03
  2.82498E+03 -1.80027E+03  3.53174E+03  3.70489E+02  2.32990E+03  3.26365E+03  5.05081E+02  4.45289E+03
 -3.55668E+03  4.36164E+03 -6.28052E+03  1.87620E+02 -6.38272E+03 -3.43312E+03 -1.03187E+03 -7.37700E+03
  4.28988E+03 -6.47433E+03  6.91247E+03 -2.03108E+03  6.74404E+03  1.30788E+03  3.94724E+03  5.43225E+03
 -7.04251E+01  5.82265E+03 -2.46137E+03  4.85752E+03 -3.69377E+03  2.15236E+03 -3.30317E+03  9.31061E+02
 -1.86915E+03 -4.30473E+02 -9.48553E+02  7.58544E+02 -3.31924E+03  9.07488E+02 -3.60782E+03 -1.07649E+03
 -4.59200E+03 -2.58176E+03 -1.12296E+03 -5.37829E+03  3.50772E+03 -5.54842E+03  5.24596E+03 -2.71083E+03
  5.34151E+03  8.54335E+02  2.95551E+03  4.44512E+03 -3.90788E+02  5.96036E+03 -4.62188E+03  3.60311E+03
