 $NMID ID='MM_0lb_SNR400_7hz_g50_72.RAW', FMTDAT='(8E13.5)'
 TRAMP=1., VOLUME=1. $END
  3.10873E+05  1.15651E+03  3.37976E+05  2.50678E+05  8.48331E+04  3.37790E+05 -1.32121E+05  2.52201E+05
 -1.91272E+05  8.42195E+04 -1.13166E+05 -3.28743E+04  3.08567E+02 -5.04656E+04  5.31597E+04 -8.03147E+02
  3.58293E+04  5.32574E+04 -1.54701E+04  7.62745E+04 -6.16090E+04  6.46399E+04 -8.64939E+04  3.23832E+04
 -8.24212E+04 -1.23317E+04 -5.83183E+04 -5.30164E+04 -1.53602E+04 -7.20063E+04  2.75429E+04 -4.63655E+04
  4.15331E+04  4.02680E+03  1.73681E+04  4.82915E+04 -3.53615E+04  4.82490E+04 -6.91388E+04  5.66286E+02
 -5.55654E+04 -5.73936E+04 -7.77357E+03 -7.97242E+04  3.52489E+04 -5.80108E+04  4.99445E+04 -1.90347E+04
  4.57343E+04  1.20718E+04  3.34946E+04  2.66154E+04  1.63044E+04  3.08543E+04 -5.32790E+03  2.77367E+04
 -2.26882E+04  1.19328E+04 -1.76663E+04 -5.44146E+03  7.58997E+03 -7.36180E+03  2.43872E+04  1.40889E+04
  6.95339E+03  3.89485E+04 -3.53715E+04  3.73452E+04 -6.61325E+04  1.76493E+03 -5.88216E+04 -4.57255E+04
 -1.36455E+04 -6.63507E+04  4.24101E+04 -4.83211E+04  6.30377E+04 -3.43756E+03  3.78115E+04  3.49700E+04
 -4.83527E+03  4.20845E+04 -3.24557E+04  1.95071E+04 -3.45734E+04 -3.43671E+03 -1.97999E+04 -1.24771E+04
 -9.95321E+03 -1.56374E+04 -1.99666E+02 -2.01699E+04  9.24255E+03 -2.37948E+04  1.60188E+04 -1.26846E+04
  9.69023E+03  5.90630E+03 -1.13060E+04  1.26910E+04 -2.37586E+04 -7.22627E+03 -8.43193E+03 -3.88846E+04
  2.55750E+04 -4.74839E+04  5.38357E+04 -2.08586E+04  5.01244E+04  2.15338E+04  1.81976E+04  4.73557E+04
 -1.70018E+04  3.67378E+04 -2.89071E+04  2.62122E+03 -1.20054E+04 -3.12840E+04  2.18345E+04 -3.78682E+04
  4.61949E+04 -1.27213E+04  4.28754E+04  2.66012E+04  2.36788E+04  5.31421E+04 -8.51166E+03  5.88576E+04
 -3.74984E+04  4.02849E+04 -5.00189E+04  1.19953E+04 -4.87486E+04 -1.88173E+04 -2.66228E+04 -4.41831E+04
  8.34193E+03 -4.47931E+04  3.48720E+04 -1.74306E+04  3.26628E+04  1.08707E+04  5.14641E+03  2.15369E+04
 -1.33471E+04  1.05336E+04 -1.22548E+04 -7.56918E+03  5.08368E+03 -1.23084E+04  1.97245E+04  4.04264E+03
  1.56427E+04  2.22753E+04 -4.86008E+03  2.83473E+04 -2.34606E+04  1.59318E+04 -3.30021E+04 -2.05513E+03
 -2.74283E+04 -1.96098E+04 -1.31816E+04 -2.67221E+04  4.88750E+03 -2.76103E+04  2.14546E+04 -2.47972E+04
  3.46664E+04 -1.49188E+04  4.09088E+04  5.49329E+03  2.77841E+04  2.61462E+04  4.92320E+03  4.41086E+04
 -2.11684E+04  3.51835E+04 -3.22917E+04  1.23844E+04 -2.22666E+04 -1.00115E+04 -6.54716E+03 -1.18212E+04
  2.84849E+02  3.16501E+02 -1.00126E+04  8.50249E+03 -2.22070E+04  4.65681E+03 -2.18593E+04 -1.06193E+04
 -1.39681E+04 -2.40197E+04  6.40924E+03 -3.07939E+04  2.09704E+04 -1.98490E+04  2.43153E+04 -2.26914E+03
  1.53542E+04  1.73748E+04 -1.30649E+03  2.50730E+04 -1.81772E+04  1.51972E+04 -2.62667E+04 -6.14325E+03
 -1.86908E+04 -2.21677E+04 -1.75569E+03 -3.01894E+04  1.43624E+04 -2.53697E+04  2.50765E+04 -1.30315E+04
  2.29213E+04 -1.11526E+03  1.62884E+04  5.64762E+03  9.15025E+03  1.02545E+03  1.41186E+04 -2.46702E+03
  2.40045E+04  3.18925E+03  2.81499E+04  1.89872E+04  1.94565E+04  4.19261E+04 -3.26164E+03  4.92629E+04
 -2.70674E+04  4.04120E+04 -4.57368E+04  2.26778E+04 -4.95595E+04 -3.03637E+03 -4.02562E+04 -2.87519E+04
 -1.46744E+04 -4.11390E+04  1.50245E+04 -3.59125E+04  3.10067E+04 -1.64827E+04  2.62224E+04  9.24263E+03
  8.67195E+03  2.05230E+04 -1.33187E+04  1.64986E+04 -2.20332E+04  2.43116E+03 -1.66785E+04 -1.47605E+04
 -5.59095E+02 -2.14095E+04  1.15124E+04 -1.53928E+04  1.51930E+04 -2.24976E+03  4.12982E+03  9.77810E+03
 -9.31295E+03  5.06666E+03 -1.05964E+04 -7.02639E+03 -3.09361E+03 -2.01890E+04  1.23863E+04 -2.25440E+04
  2.54827E+04 -1.29284E+04  2.97482E+04  3.70646E+03  2.66178E+04  2.15251E+04  1.24758E+04  3.35279E+04
 -7.08892E+03  3.52370E+04 -2.37647E+04  2.21954E+04 -2.52084E+04  4.50670E+03 -1.71002E+04 -5.57998E+03
 -6.83771E+03 -8.19274E+03 -6.44757E+02  2.22551E+02 -3.68296E+03  3.51202E+03 -8.33330E+03  6.83604E+03
 -1.51728E+04 -1.49414E+03 -1.69311E+04 -1.31869E+04 -6.64629E+03 -2.28425E+04  7.65582E+03 -1.75281E+04
  1.49623E+04 -7.19113E+03  1.14260E+04  4.51181E+03 -9.23527E+02  7.00921E+03 -9.49828E+03 -6.58490E+02
 -8.96629E+03 -1.18317E+04 -1.07420E+03 -1.83487E+04  9.39345E+03 -1.85992E+04  2.28846E+04 -1.00583E+04
  2.78152E+04  2.56239E+03  2.05313E+04  1.63367E+04  3.28386E+03  2.25357E+04 -1.03568E+04  1.76800E+04
 -1.41971E+04  4.71332E+03 -7.82383E+03 -3.57750E+03  2.80005E+03 -4.68937E+03  8.96733E+03 -6.88768E+02
  8.85084E+03  8.79873E+03  1.56591E+03  1.44663E+04 -1.06971E+04  1.36907E+04 -1.85711E+04  2.90177E+03
 -1.29402E+04 -8.64441E+03  8.46804E+02 -1.52463E+04  1.09162E+04 -8.10612E+03  1.12860E+04  4.32640E+03
  2.78143E+03  1.20485E+04 -9.84578E+03  1.38964E+04 -1.59384E+04  6.98850E+03 -1.63423E+04 -7.00165E+03
 -9.78443E+03 -1.83348E+04  4.39120E+03 -2.18503E+04  1.84835E+04 -1.29553E+04  1.97648E+04  2.99378E+03
  1.17678E+04  1.52469E+04 -2.44287E+03  1.84089E+04 -1.36836E+04  1.05532E+04 -1.50730E+04 -1.72810E+03
 -1.27820E+04 -1.21307E+04 -2.17268E+03 -1.34646E+04  7.47687E+03 -1.17756E+04  9.58787E+03 -4.77086E+03
  5.73788E+03  2.09687E+03 -9.56506E+02  1.61576E+03 -1.63611E+03 -4.32934E+03  3.68543E+03 -9.62505E+03
  1.43949E+04 -6.97812E+03  1.95041E+04  2.40506E+03  1.88185E+04  1.31045E+04  1.16934E+04  2.60076E+04
 -6.50002E+03  2.90285E+04 -2.55429E+04  2.08330E+04 -3.11539E+04  4.71377E+03 -2.49038E+04 -1.16392E+04
 -1.23618E+04 -1.99319E+04 -7.55182E+02 -1.76758E+04  5.82751E+03 -9.53240E+03  6.71592E+03 -5.63848E+03
  4.73817E+03 -3.63711E+03  5.78481E+03 -4.27406E+03  6.82752E+03 -5.31334E+03  9.68947E+03 -2.13166E+03
  1.31017E+04  2.69639E+03  7.86268E+03  1.15602E+04 -1.87531E+03  1.45992E+04 -1.41468E+04  1.09281E+04
 -1.78429E+04 -3.75252E+02 -1.14178E+04 -1.19627E+04 -2.44106E+03 -1.99954E+04  9.45519E+03 -1.76935E+04
  2.01822E+04 -1.01001E+04  2.38244E+04  3.33071E+03  1.66266E+04  1.57470E+04  1.60126E+03  2.20398E+04
 -9.04000E+03  1.74004E+04 -1.26091E+04  6.24518E+03 -8.84357E+03 -1.50015E+03 -4.33946E+03 -2.95339E+03
 -2.40277E+03 -1.16487E+01 -2.48084E+03  2.83443E+03 -6.77138E+03  1.53275E+03 -1.23467E+04 -2.18345E+03
 -9.52729E+03 -1.19682E+04 -6.63348E+01 -1.84109E+04  1.12667E+04 -1.69452E+04  1.81934E+04 -5.67035E+03
  1.85691E+04  8.01402E+03  8.19715E+03  1.62912E+04 -4.00152E+03  1.91720E+04 -1.41775E+04  1.12231E+04
 -1.73694E+04  8.31956E+02 -1.35594E+04 -1.10179E+04 -1.81802E+03 -1.51386E+04  8.44801E+03 -1.25326E+04
  1.22799E+04 -4.64720E+03  7.72908E+03  3.75397E+03  3.28509E+03  5.05743E+03  1.92121E+03  2.81590E+03
  3.49076E+03  1.76167E+02  4.31499E+03  1.54448E+03  5.66299E+03  6.24050E+03  5.00350E+03  1.04851E+04
 -3.25913E+03  1.50240E+04 -1.28084E+04  1.51645E+04 -1.99953E+04  4.46342E+03 -1.94896E+04 -9.08460E+03
 -9.97660E+03 -1.85883E+04  2.14265E+03 -2.04642E+04  1.15469E+04 -1.41016E+04  1.51390E+04 -3.61537E+03
  1.17330E+04  6.61084E+03  2.87404E+03  1.12994E+04 -5.34159E+03  6.53469E+03 -8.07060E+03 -1.17998E+03
 -3.82169E+03 -8.38656E+03  3.66865E+03 -8.65962E+03  7.86147E+03 -4.34069E+03  7.31686E+03  2.11040E+03
  4.34670E+03  3.96763E+03  2.02193E+03  3.65248E+03 -5.17842E+02  3.40493E+03  2.58455E+03 -1.12546E+03
  3.27120E+03 -1.21072E+03  7.68225E+03  3.57722E+03  5.14217E+03  9.99791E+03 -1.68650E+03  1.32646E+04
 -9.49096E+03  9.80376E+03 -1.33779E+04  2.63313E+03 -1.23246E+04 -5.49228E+03 -4.09612E+03 -8.46811E+03
  8.41457E+02 -8.54774E+03  5.26333E+03 -3.69642E+03  4.33571E+03  3.64030E+03 -2.39735E+03  7.19756E+03
 -8.18388E+03  3.53337E+03 -9.78005E+03 -4.77728E+03 -5.60590E+03 -1.05519E+04  1.77349E+03 -1.17448E+04
  6.40960E+03 -7.61905E+03  8.78774E+03 -1.27870E+03  6.43504E+03  3.11587E+03  9.70343E+02  5.19841E+03
 -4.22024E+03  1.88544E+03 -5.29801E+03 -4.14723E+03  1.60601E+03 -9.08317E+03  1.03430E+04 -6.60505E+03
  1.34279E+04  1.61329E+03  1.21316E+04  8.56638E+03  2.85013E+03  1.39530E+04 -5.00794E+03  1.27358E+04
 -1.11070E+04  6.09831E+03 -1.11354E+04 -2.83795E+03 -6.09987E+03 -9.85524E+03  1.51937E+03 -8.30915E+03
  8.46836E+03 -4.60688E+03  7.05338E+03  4.74010E+03  3.32065E+03  6.51390E+03 -1.69745E+03  5.96310E+03
 -4.11584E+03  3.72030E+03 -3.07292E+03  1.79611E+03 -1.75868E+03  1.13458E+03 -7.03841E+02  3.28726E+03
 -3.82181E+03  5.88232E+03 -9.92942E+03  4.46596E+03 -1.35321E+04  7.40489E+01 -1.49160E+04 -8.74047E+03
 -8.60924E+03 -1.86735E+04  3.91756E+03 -2.18078E+04  1.34719E+04 -1.65632E+04  2.00509E+04 -6.20422E+03
  1.88254E+04  4.85955E+03  1.23004E+04  1.27249E+04  5.23818E+02  1.49298E+04 -5.95966E+03  1.08343E+04
 -8.65974E+03  3.61982E+03 -4.36472E+03 -1.84738E+03 -1.40051E+03 -1.06498E+03 -3.46098E+02 -9.57402E+01
 -1.42299E+03 -1.02637E+02 -1.37473E+03 -8.11820E+02 -1.68149E+03 -3.62921E+03  1.11242E+03 -5.17830E+03
  6.45220E+03 -4.98207E+03  8.69360E+03 -1.57866E+03  9.52552E+03  7.76421E+03  3.41852E+03  1.39925E+04
 -6.58509E+03  1.65504E+04 -1.56069E+04  1.02577E+04 -1.78317E+04 -1.62240E+03 -1.38238E+04 -1.13831E+04
 -5.26303E+03 -1.56519E+04  3.63613E+03 -1.47832E+04  1.00791E+04 -7.57548E+03  9.98561E+03  2.78272E+02
  5.12677E+03  4.57635E+03 -1.61490E+02  4.80817E+03 -3.66016E+03  7.40454E+02  5.45182E+02 -3.89508E+03
  4.51824E+03 -2.11207E+03  6.63051E+03  1.26557E+03  4.89580E+03  6.70941E+03 -2.13304E+02  8.11054E+03
 -7.23456E+03  6.02080E+03 -9.03089E+03  1.70170E+03 -1.00448E+04 -8.16487E+03 -9.28280E+02 -1.23357E+04
  7.61423E+03 -1.08600E+04  1.17028E+04 -2.46980E+03  1.23490E+04  2.74305E+03  7.91634E+03  9.32800E+03
  1.05788E+03  1.03734E+04 -4.12076E+03  7.95292E+03 -6.49861E+03  3.96667E+03 -5.20327E+03  5.00662E+02
 -3.30062E+03 -6.08766E+02 -3.59495E+03  1.02516E+03 -5.33680E+03  1.16341E+03 -6.90326E+03 -9.40244E+02
 -7.86933E+03 -5.67454E+03 -2.44711E+03 -9.29209E+03  3.57485E+03 -1.04428E+04  1.04608E+04 -5.17370E+03
  1.12015E+04  2.02694E+03  5.77514E+03  8.01440E+03 -3.11528E+02  1.00047E+04 -7.33787E+03  6.31533E+03
