 $NMID ID='MM_0lb_SNR400_11hz_g50_32.RAW', FMTDAT='(8E13.5)'
 TRAMP=1., VOLUME=1. $END
  3.10379E+05  5.63247E+02  3.37419E+05  2.50537E+05  8.55444E+04  3.37869E+05 -1.31950E+05  2.51726E+05
 -1.90582E+05  8.32961E+04 -1.11361E+05 -3.18370E+04  4.85938E+01 -5.06148E+04  5.34260E+04 -1.07644E+03
  3.52140E+04  5.27402E+04 -1.68753E+04  7.56636E+04 -6.06182E+04  6.44815E+04 -8.51739E+04  3.28540E+04
 -8.20455E+04 -1.08471E+04 -5.76506E+04 -5.18325E+04 -1.51005E+04 -6.99925E+04  2.78070E+04 -4.60707E+04
  4.02505E+04  4.89819E+03  1.61199E+04  4.89363E+04 -3.48255E+04  4.75161E+04 -6.76921E+04 -4.01727E+02
 -5.40888E+04 -5.78522E+04 -6.95057E+03 -7.82648E+04  3.43747E+04 -5.55619E+04  4.97246E+04 -1.82723E+04
  4.43392E+04  1.17549E+04  3.30478E+04  2.65782E+04  1.61325E+04  2.94715E+04 -5.47168E+03  2.76672E+04
 -2.27364E+04  1.15058E+04 -1.85075E+04 -5.01339E+03  6.57067E+03 -7.30564E+03  2.25269E+04  1.28148E+04
  6.51775E+03  3.66922E+04 -3.32110E+04  3.60767E+04 -6.49484E+04  2.58433E+03 -5.84100E+04 -4.40047E+04
 -1.27981E+04 -6.47357E+04  4.04666E+04 -4.69670E+04  6.00570E+04 -2.55350E+03  3.59849E+04  3.33058E+04
 -5.05643E+03  3.77602E+04 -3.11087E+04  1.75980E+04 -3.24133E+04 -3.73469E+03 -1.74564E+04 -1.22114E+04
 -8.64775E+03 -1.46730E+04 -1.21986E+02 -1.84618E+04  8.32108E+03 -2.32348E+04  1.57117E+04 -1.25843E+04
  1.10052E+04  5.85017E+03 -9.06914E+03  1.30757E+04 -2.35110E+04 -5.47981E+03 -8.03518E+03 -3.56009E+04
  2.43270E+04 -4.56191E+04  5.05488E+04 -1.96636E+04  4.67519E+04  2.09614E+04  1.66611E+04  4.63104E+04
 -1.67316E+04  3.49079E+04 -2.77650E+04  2.84341E+03 -1.12376E+04 -2.87854E+04  2.19896E+04 -3.56952E+04
  4.29209E+04 -1.02206E+04  3.85965E+04  2.43623E+04  2.01173E+04  4.87744E+04 -9.06873E+03  5.35280E+04
 -3.38820E+04  3.64849E+04 -4.57352E+04  1.05161E+04 -4.59427E+04 -1.77875E+04 -2.51392E+04 -4.03903E+04
  7.49127E+03 -4.09274E+04  3.33404E+04 -1.59683E+04  3.08378E+04  1.17932E+04  4.50504E+03  1.95276E+04
 -1.35229E+04  9.34877E+03 -1.05119E+04 -7.70644E+03  6.13677E+03 -1.10800E+04  1.75442E+04  5.23373E+03
  1.32716E+04  2.21365E+04 -5.40275E+03  2.56051E+04 -2.29505E+04  1.28543E+04 -3.06540E+04 -3.91943E+03
 -2.36781E+04 -1.78744E+04 -1.03412E+04 -2.29412E+04  4.17667E+03 -2.30985E+04  1.84615E+04 -2.06037E+04
  3.04836E+04 -1.38302E+04  3.55982E+04  3.94014E+03  2.65416E+04  2.23998E+04  4.37481E+03  3.94702E+04
 -1.88678E+04  3.25479E+04 -2.96403E+04  1.04607E+04 -2.25675E+04 -1.01777E+04 -5.00149E+03 -1.30186E+04
  1.51204E+03 -2.35784E+03 -6.43880E+03  7.80013E+03 -1.81921E+04  4.16169E+03 -1.87232E+04 -8.77072E+03
 -1.08636E+04 -2.10137E+04  5.73756E+03 -2.56601E+04  1.75757E+04 -1.87712E+04  2.08148E+04 -1.44322E+03
  1.30278E+04  1.44000E+04 -1.39246E+03  2.17693E+04 -1.50911E+04  1.24959E+04 -2.18498E+04 -4.78254E+03
 -1.64356E+04 -1.93394E+04 -1.88540E+03 -2.63619E+04  1.18933E+04 -2.14669E+04  2.13718E+04 -1.08718E+04
  2.02271E+04 -3.15747E+01  1.44962E+04  4.96117E+03  8.30541E+03  6.07022E+02  1.11977E+04 -1.89632E+03
  2.04398E+04  2.98873E+03  2.24478E+04  1.69201E+04  1.57657E+04  3.42825E+04 -3.23399E+03  4.05938E+04
 -2.30809E+04  3.34338E+04 -3.75687E+04  1.68655E+04 -3.94828E+04 -2.32186E+03 -3.33782E+04 -2.33457E+04
 -1.30222E+04 -3.32702E+04  1.14205E+04 -2.92369E+04  2.48385E+04 -1.46903E+04  2.22275E+04  6.69365E+03
  7.45832E+03  1.70181E+04 -1.04743E+04  1.45964E+04 -1.93594E+04  3.55828E+03 -1.35821E+04 -1.14178E+04
 -4.48201E+02 -1.78172E+04  9.21423E+03 -1.25888E+04  1.13498E+04 -2.02116E+03  2.58269E+03  7.86528E+03
 -8.24847E+03  3.42258E+03 -7.31808E+03 -6.60152E+03 -1.13238E+03 -1.65522E+04  1.07470E+04 -1.78322E+04
  1.99367E+04 -9.15260E+03  2.23830E+04  2.72724E+03  2.00572E+04  1.61067E+04  9.03072E+03  2.51435E+04
 -4.86579E+03  2.75870E+04 -1.78727E+04  1.72584E+04 -1.96752E+04  3.46354E+03 -1.41414E+04 -5.08956E+03
 -5.85079E+03 -5.54062E+03 -1.00286E+03  3.84319E+02 -1.78408E+03  2.46484E+03 -6.31583E+03  4.84510E+03
 -1.32748E+04 -8.63849E+02 -1.35766E+04 -1.14493E+04 -5.45877E+03 -1.80359E+04  6.00037E+03 -1.35512E+04
  1.19461E+04 -6.00873E+03  7.45119E+03  3.82037E+03 -2.78353E+02  5.24589E+03 -6.15693E+03 -7.51571E+02
 -6.37162E+03 -9.10132E+03 -1.05428E+03 -1.37935E+04  7.91055E+03 -1.47982E+04  1.73438E+04 -7.57683E+03
  2.05106E+04  2.36816E+03  1.47772E+04  1.24849E+04  2.85594E+03  1.58029E+04 -8.21251E+03  1.37897E+04
 -1.12389E+04  4.37458E+03 -5.71142E+03 -2.55871E+03  1.30287E+03 -3.61849E+03  7.72121E+03 -1.40306E+03
  7.17123E+03  5.84916E+03  1.41319E+03  1.08500E+04 -8.05760E+03  1.04047E+04 -1.32862E+04  2.68657E+03
 -8.51019E+03 -7.52881E+03  5.04219E+02 -1.17251E+04  7.51485E+03 -5.75243E+03  8.20766E+03  2.38383E+03
  1.45494E+03  8.32501E+03 -6.50152E+03  9.92682E+03 -1.14547E+04  4.35552E+03 -1.17870E+04 -3.84485E+03
 -6.58634E+03 -1.30961E+04  2.86519E+03 -1.61957E+04  1.36854E+04 -8.83055E+03  1.38272E+04  2.58133E+03
  8.07794E+03  1.15041E+04 -1.70839E+03  1.33614E+04 -1.03482E+04  7.04933E+03 -1.09762E+04 -8.92596E+02
 -9.35732E+03 -9.58314E+03 -2.14743E+03 -1.00677E+04  5.87054E+03 -8.29831E+03  6.23291E+03 -3.70427E+03
  4.56435E+03  1.45137E+03 -1.52534E+02  1.50419E+03 -2.56779E+02 -2.26429E+03  1.94715E+03 -5.79023E+03
  9.37738E+03 -4.47511E+03  1.30172E+04  1.69796E+03  1.33418E+04  8.50492E+03  8.87147E+03  1.68039E+04
 -3.94184E+03  1.93384E+04 -1.60195E+04  1.43313E+04 -2.14280E+04  2.06602E+03 -1.77668E+04 -7.32201E+03
 -9.03988E+03 -1.44343E+04 -5.57967E+01 -1.18665E+04  3.78570E+03 -6.87375E+03  4.10190E+03 -5.15300E+03
  3.95178E+03 -2.57214E+03  3.99089E+03 -3.84876E+03  4.65409E+03 -3.28655E+03  6.88201E+03 -7.50194E+02
  8.65982E+03  1.90114E+03  5.28326E+03  8.66555E+03 -1.82999E+03  9.15330E+03 -8.98459E+03  6.79519E+03
 -1.16360E+04 -1.69002E+03 -6.89311E+03 -7.86371E+03  4.79160E+01 -1.26675E+04  6.62441E+03 -1.28206E+04
  1.34094E+04 -7.22645E+03  1.58496E+04  1.54604E+03  1.13204E+04  1.11543E+04  1.38316E+03  1.43611E+04
 -6.47317E+03  1.17907E+04 -8.98366E+03  4.68488E+03 -5.76311E+03 -1.10660E+03 -2.85227E+03 -1.10166E+03
 -1.20108E+03 -7.42954E+02 -2.26400E+03  2.91222E+03 -4.98318E+03  2.40477E+03 -8.32156E+03 -1.45753E+03
 -6.08608E+03 -8.53731E+03  1.52778E+02 -1.15442E+04  7.63412E+03 -1.05640E+04  1.13574E+04 -2.80753E+03
  1.20107E+04  6.47836E+03  5.81530E+03  1.00410E+04 -2.26673E+03  1.19802E+04 -7.84392E+03  7.84212E+03
 -1.13963E+04  5.50110E+02 -8.03863E+03 -7.89430E+03 -2.20013E+02 -1.03342E+04  4.62589E+03 -6.69066E+03
  7.70431E+03 -2.69833E+03  4.86013E+03  1.59287E+03  1.74149E+03  4.33847E+03  6.31725E+02  1.55365E+03
  2.57132E+03  1.63064E+03  3.06475E+03  1.87804E+03  3.09560E+03  3.28248E+03  1.76107E+03  5.95902E+03
 -1.97331E+03  8.79611E+03 -8.11813E+03  9.82772E+03 -1.12180E+04  3.00144E+03 -1.28927E+04 -4.72408E+03
 -5.56621E+03 -1.11202E+04  1.54460E+03 -1.32455E+04  7.41964E+03 -7.48218E+03  9.02397E+03 -1.85093E+03
  7.40897E+03  4.53133E+03  1.23932E+03  7.24603E+03 -2.24949E+03  4.66543E+03 -4.27685E+03 -6.43216E+02
 -2.00786E+03 -4.33789E+03  2.95504E+03 -5.37444E+03  4.86639E+03 -1.98338E+03  4.16342E+03  7.49722E+02
  3.10652E+03  2.32647E+03  1.29493E+03  8.39640E+02 -1.60150E+03  2.07340E+03  1.64310E+03 -5.19374E+02
  2.23434E+03 -9.96443E+02  4.09831E+03  1.72883E+03  2.53788E+03  6.38150E+03 -8.06068E+02  8.29855E+03
 -5.64799E+03  4.76639E+03 -7.22769E+03  1.02478E+03 -6.59882E+03 -2.49052E+03 -2.06423E+03 -4.33872E+03
  8.08756E+02 -3.99926E+03  2.85293E+03 -2.08174E+03  2.31774E+03  2.79592E+03 -9.20371E+02  3.72710E+03
 -4.36453E+03  2.55563E+03 -5.29148E+03 -2.32484E+03 -3.31133E+03 -6.76728E+03  6.39070E+02 -6.44073E+03
  3.42217E+03 -3.54171E+03  4.37080E+03 -6.78392E+02  3.62774E+03  1.56127E+03  6.67405E+02  3.11534E+03
 -2.55748E+03  5.55856E+02 -3.33265E+03 -1.68146E+03  9.58906E+02 -4.45821E+03  5.69683E+03 -3.69583E+03
  6.87756E+03 -3.98205E+01  6.70855E+03  5.08293E+03  1.70979E+03  7.38772E+03 -3.14510E+03  6.89522E+03
 -6.21506E+03  3.19077E+03 -6.43836E+03 -1.13477E+03 -3.22113E+03 -5.54959E+03  1.38636E+02 -4.03495E+03
  5.53508E+03 -2.29886E+03  3.54208E+03  2.66646E+03  1.65224E+03  3.96021E+03 -7.02919E+02  3.21672E+03
 -1.84807E+03  2.59956E+03 -2.02426E+03  5.35912E+02 -1.70997E+03  1.18937E+03 -1.89571E+03  1.03568E+03
 -2.39235E+03  2.70436E+03 -5.56256E+03  2.08380E+03 -7.27279E+03  5.60407E+02 -8.23840E+03 -4.51338E+03
 -4.21211E+03 -9.64113E+03  2.05548E+03 -1.08345E+04  6.98808E+03 -8.83409E+03  1.08713E+04 -3.04139E+03
  9.92443E+03  1.81294E+03  6.10093E+03  6.67061E+03 -8.98752E+00  6.83539E+03 -2.91116E+03  5.51028E+03
 -4.74510E+03  2.00174E+03 -2.35763E+03 -5.91063E+02 -4.88466E+02  1.23826E+02 -7.92517E+02 -1.69943E+02
 -9.86600E+02  2.13124E+02 -1.72004E+03  1.40721E+02 -3.90879E+02 -1.68705E+03  7.23757E+02 -2.89429E+03
  3.81851E+03 -1.58480E+03  3.73341E+03  1.52082E+02  5.86105E+03  4.04506E+03  1.77782E+03  6.84139E+03
 -3.23732E+03  8.32105E+03 -8.22422E+03  5.29046E+03 -8.19953E+03 -1.14600E+03 -6.36310E+03 -5.97135E+03
 -2.45527E+03 -7.40381E+03  1.74827E+03 -6.48234E+03  4.13116E+03 -3.30045E+03  4.41660E+03  2.14494E+02
  3.19306E+03  2.47253E+03 -1.06114E+02  1.96299E+03 -1.45428E+03  2.60392E+02 -5.49683E+02 -1.67613E+03
  1.88760E+03 -1.34484E+03  2.76533E+03  5.19580E+02  2.04566E+03  2.40613E+03 -1.71711E+01  3.95126E+03
 -2.70465E+03  3.21862E+03 -4.77492E+03  8.14718E+02 -4.79572E+03 -3.66224E+03 -3.47709E+02 -5.96831E+03
  4.09916E+03 -5.01623E+03  5.48363E+03 -1.33653E+03  5.88325E+03  1.15628E+03  2.94993E+03  4.54282E+03
  6.03784E+02  4.03060E+03 -1.21138E+03  3.69382E+03 -3.81627E+03  1.71768E+03 -2.39404E+03  8.55029E+02
 -9.82046E+02  8.21746E+02 -1.61410E+03  9.98816E+02 -3.15973E+03  1.51303E+03 -3.33031E+03 -1.12005E+03
 -3.43648E+03 -1.95698E+03 -9.37514E+02 -4.27086E+03  1.89799E+03 -4.70771E+03  3.59294E+03 -2.39876E+03
  4.70941E+03  1.77770E+02  2.45302E+03  3.43390E+03 -5.92263E+02  5.47228E+03 -2.84145E+03  4.07459E+03
