 $NMID ID='MM_0lb_SNR400_19hz_g45_32.RAW', FMTDAT='(8E13.5)'
 TRAMP=1., VOLUME=1. $END
  3.09879E+05  8.13159E+02  3.37270E+05  2.50446E+05  8.44388E+04  3.37196E+05 -1.32294E+05  2.49607E+05
 -1.89403E+05  8.23654E+04 -1.10642E+05 -3.31498E+04  1.76231E+03 -5.02563E+04  5.39242E+04  2.24164E+02
  3.54119E+04  5.34553E+04 -1.72683E+04  7.44572E+04 -6.04572E+04  6.22464E+04 -8.25254E+04  3.10323E+04
 -7.96085E+04 -1.10833E+04 -5.58484E+04 -5.02706E+04 -1.47047E+04 -6.82398E+04  2.64465E+04 -4.49167E+04
  3.89207E+04  3.46646E+03  1.50835E+04  4.68560E+04 -3.39071E+04  4.64376E+04 -6.54491E+04  1.91453E+02
 -5.16927E+04 -5.57079E+04 -6.10961E+03 -7.47707E+04  3.28612E+04 -5.28454E+04  4.57920E+04 -1.60393E+04
  4.16710E+04  1.14058E+04  3.02390E+04  2.41804E+04  1.58567E+04  2.79807E+04 -4.72259E+03  2.65273E+04
 -2.16366E+04  1.25340E+04 -1.95755E+04 -4.28813E+03  4.18645E+03 -7.80798E+03  2.13107E+04  1.08305E+04
  7.51437E+03  3.27913E+04 -3.04776E+04  3.34844E+04 -6.04474E+04  2.08284E+03 -5.55456E+04 -4.09746E+04
 -1.18843E+04 -6.04959E+04  3.81165E+04 -4.32544E+04  5.56311E+04 -2.00829E+03  3.15060E+04  3.01997E+04
 -7.01054E+03  3.28822E+04 -2.84629E+04  1.30828E+04 -2.75530E+04 -5.74454E+03 -1.41228E+04 -1.05594E+04
 -7.31780E+03 -1.09278E+04 -1.15723E+03 -1.69279E+04  6.29010E+03 -2.25860E+04  1.52332E+04 -1.40403E+04
  1.25137E+04  4.27618E+03 -5.45784E+03  1.27463E+04 -1.86311E+04 -2.23092E+03 -8.14281E+03 -2.96836E+04
  2.08861E+04 -3.99806E+04  4.40957E+04 -1.84430E+04  4.17469E+04  1.77525E+04  1.42316E+04  4.12951E+04
 -1.46344E+04  3.05780E+04 -2.30698E+04  1.35797E+03 -7.61439E+03 -2.62758E+04  2.04955E+04 -3.12332E+04
  3.75074E+04 -7.16502E+03  3.05868E+04  2.25966E+04  1.45461E+04  4.13841E+04 -8.36189E+03  4.47046E+04
 -2.78176E+04  2.94256E+04 -3.65299E+04  8.10941E+03 -3.78689E+04 -1.46675E+04 -2.09317E+04 -3.40408E+04
  6.82475E+03 -3.39055E+04  2.87689E+04 -1.20508E+04  2.59715E+04  1.05056E+04  3.06843E+03  1.77797E+04
 -1.31714E+04  7.01296E+03 -9.54719E+03 -7.90442E+03  5.79341E+03 -1.00241E+04  1.68158E+04  6.65343E+03
  1.21175E+04  2.16303E+04 -7.37837E+03  2.31364E+04 -2.07661E+04  8.86233E+03 -2.51271E+04 -7.01928E+03
 -1.61042E+04 -1.65351E+04 -5.15408E+03 -1.65022E+04  2.96582E+03 -1.38904E+04  1.19837E+04 -1.40896E+04
  2.09025E+04 -1.17518E+04  2.73907E+04  1.03137E+03  2.06621E+04  1.54773E+04  3.80315E+03  3.15720E+04
 -1.58083E+04  2.72991E+04 -2.55975E+04  8.61630E+03 -1.93677E+04 -1.03198E+04 -3.38036E+03 -1.41805E+04
  2.91674E+03 -4.31519E+03 -2.21605E+03  5.33816E+03 -1.27299E+04  5.08651E+03 -1.34678E+04 -4.53739E+03
 -8.21454E+03 -1.43054E+04  4.59960E+03 -1.90610E+04  1.21069E+04 -1.38980E+04  1.46470E+04 -1.39218E+03
  9.02977E+03  1.06256E+04 -3.82829E+02  1.51062E+04 -1.02789E+04  8.67337E+03 -1.46907E+04 -3.29318E+03
 -1.12406E+04 -1.38807E+04 -1.45136E+03 -1.87744E+04  8.59103E+03 -1.49827E+04  1.56702E+04 -6.86372E+03
  1.47189E+04  7.30321E+02  1.02417E+04  3.14618E+03  4.83938E+03  2.69378E+02  7.68609E+03 -1.50441E+03
  1.37281E+04  2.43502E+03  1.45343E+04  1.22401E+04  8.62123E+03  2.44803E+04 -3.22561E+03  2.56362E+04
 -1.47899E+04  1.96005E+04 -2.32674E+04  9.12772E+03 -2.35258E+04 -1.43578E+03 -2.03902E+04 -1.32197E+04
 -9.61793E+03 -1.92722E+04  6.23273E+03 -1.86953E+04  1.61185E+04 -1.05525E+04  1.48958E+04  3.62117E+03
  6.46406E+03  1.05544E+04 -6.75759E+03  9.73680E+03 -1.30367E+04  2.96476E+03 -9.86440E+03 -7.66563E+03
 -2.03795E+01 -1.21207E+04  6.00901E+03 -9.00357E+03  7.39448E+03 -1.26235E+03  1.28979E+03  4.80083E+03
 -4.85604E+03  9.42114E+02 -3.46691E+03 -4.68926E+03  4.13428E+02 -9.84134E+03  8.22361E+03 -9.39113E+03
  1.12652E+04 -4.65740E+03  1.11433E+04  2.50766E+03  9.37969E+03  8.90922E+03  4.39325E+03  1.27185E+04
 -1.52727E+03  1.51888E+04 -9.02270E+03  9.11278E+03 -1.10577E+04  3.16660E+03 -8.18416E+03 -1.28463E+03
 -4.61861E+03 -2.41558E+03 -5.62104E+02  1.84983E+03 -1.76946E+03  1.59472E+03 -3.54444E+03  3.18086E+03
 -7.88085E+03 -6.85620E+02 -8.40352E+03 -7.17974E+03 -3.24180E+03 -1.13907E+04  3.28296E+03 -7.69866E+03
  6.95089E+03 -3.62934E+03  5.38920E+03  1.86549E+03  2.60044E+02  2.62064E+03 -2.89801E+03 -5.66006E+02
 -3.36671E+03 -5.03398E+03 -1.15680E+03 -6.75167E+03  3.51569E+03 -7.30105E+03  9.34541E+03 -3.35750E+03
  1.07273E+04  1.24789E+03  8.21682E+03  5.72859E+03  1.66690E+03  8.05904E+03 -4.90422E+03  8.34886E+03
 -6.81624E+03  3.07154E+03 -3.15721E+03 -1.59186E+03  1.14338E+03 -1.86824E+03  4.56938E+03 -1.02422E+03
  3.31225E+03  3.27450E+03  1.56038E+03  6.11121E+03 -4.60707E+03  5.97105E+03 -7.21103E+03  2.11117E+03
 -4.77712E+03 -2.91300E+03  2.92630E+02 -6.44282E+03  3.69458E+03 -3.15722E+03  3.12104E+03  9.50008E+02
  5.41054E+02  2.68841E+03 -4.51425E+03  3.66195E+03 -4.49597E+03  2.13624E+03 -4.51107E+03 -1.11773E+03
 -2.77287E+03 -5.39017E+03  1.39551E+03 -6.52753E+03  5.56225E+03 -3.89348E+03  6.24864E+03  7.37887E+02
  4.27140E+03  5.38763E+03 -2.56628E+02  7.34024E+03 -4.58497E+03  4.26907E+03 -4.94049E+03 -3.07101E+02
 -4.82268E+03 -4.95675E+03 -1.25211E+03 -4.27154E+03  1.87463E+03 -4.43855E+03  2.54796E+03 -2.02816E+03
  2.38801E+03  2.65590E+02  4.99546E+02  1.26142E+03  2.10984E+02  2.95608E+02  5.01795E+02 -1.29354E+03
  3.58120E+03 -3.35832E+02  5.24724E+03  2.86088E+02  4.96807E+03  2.80332E+03  5.62891E+03  6.69458E+03
 -8.87585E+02  8.00708E+03 -7.59912E+03  6.15768E+03 -8.97308E+03  1.15259E+03 -6.82789E+03 -2.16035E+03
 -3.62856E+03 -6.67222E+03 -2.18729E+02 -4.91009E+03  2.24743E+03 -1.85591E+03  1.57629E+03 -1.48540E+03
  9.79772E+02 -1.33810E+03  2.36819E+03 -2.50293E+03  2.99558E+03 -9.53306E+02  3.30546E+03  1.69500E+02
  3.92101E+03  1.19564E+03  1.03230E+03  3.35990E+03 -2.16438E+03  2.44260E+03 -4.36811E+03  2.57245E+03
 -4.25683E+03 -1.32364E+03 -1.82578E+03 -3.59105E+03  4.26492E+02 -4.33930E+03  2.52916E+03 -4.97029E+03
  5.09275E+03 -2.80756E+03  6.09797E+03 -6.88157E+00  4.40821E+03  4.24457E+03  1.14519E+03  5.08350E+03
 -1.94179E+03  5.56269E+03 -2.57849E+03  1.61369E+03 -1.81181E+03 -1.16793E+03 -2.72705E+02 -5.77439E+02
 -8.28140E+02  3.65068E+02 -7.21090E+02  1.44304E+03 -2.71788E+03  9.61259E+02 -3.45436E+03 -5.47037E+02
 -1.11651E+03 -3.39860E+03  6.71168E+02 -4.72212E+03  2.81546E+03 -4.05800E+03  3.46734E+03 -6.91227E+02
  3.67543E+03  2.39944E+03  1.40333E+03  3.17014E+03 -4.46072E+02  4.02952E+03 -2.22880E+03  1.83273E+03
 -3.19480E+03  2.46907E+02 -2.56749E+03 -2.19562E+03 -2.95116E+02 -2.94852E+03  1.85244E+03 -2.16788E+03
  2.58032E+03 -1.06107E+03  1.69536E+03  3.53446E+02  6.52721E+02  1.75223E+03  8.24827E+02  4.46036E+02
  2.33812E+03  5.15409E+02  6.59672E+02  9.11123E+02  1.45042E+03  2.19079E+03  9.94116E+02  1.49811E+03
 -1.31527E+03  2.71679E+03 -2.48669E+03  3.47235E+03 -2.99389E+03  1.05988E+03 -3.06933E+03 -1.93880E+02
 -1.58661E+03 -3.78057E+03  6.33981E+02 -4.39299E+03  9.80910E+02 -2.47306E+03  2.57116E+03 -5.11307E+02
  2.51805E+03  1.48857E+03  3.18342E+02  2.32992E+03 -3.93775E+02  6.51121E+02 -6.57529E+02 -3.01096E+00
 -5.99848E+02 -1.61288E+03  1.26430E+03 -1.53089E+03  8.74692E+02 -8.35746E+02  4.09168E+02  6.26596E+02
  5.99225E+02  1.74885E+02  1.45943E+03 -4.91087E+02 -4.33607E+02  5.49013E+02  1.73357E+03 -5.61277E+02
  4.27637E+01 -1.70861E+02  1.22106E+03  3.76933E+02 -2.80580E+02  1.89983E+03  5.59965E+01  2.88285E+03
 -1.12848E+03  1.29493E+03 -1.61660E+03  1.38603E+02 -1.91211E+03 -8.12038E+02 -7.71427E+02 -1.00524E+03
 -1.84942E+01 -1.03211E+03  3.57769E+02 -6.10447E+02  3.77607E+02  1.60524E+03 -1.08504E+03  7.89188E+02
 -1.63868E+03  1.01655E+03 -9.61585E+02 -1.78882E+03 -5.32482E+02 -1.83864E+03  3.31281E+02 -9.19607E+02
  7.61797E+02 -4.57541E+02  1.62730E+02  4.81675E+02  1.33418E+03  1.90514E+02  7.69550E+02  9.62350E+02
 -3.12571E+02  2.25848E+01 -1.22630E+03 -1.34370E+02  2.71408E+02 -3.85219E+02  1.51097E+03 -9.09980E+02
  1.13069E+03  1.17750E+02  2.43666E+03  5.60988E+02  1.22868E+03  1.74511E+03 -3.63186E+02  1.51588E+03
 -1.48177E+03 -3.57171E+02 -1.75178E+03 -3.85347E+02 -8.30313E+02 -1.14845E+03  2.38831E+02 -4.84248E+02
  1.53173E+03 -3.16911E+02  9.80638E+02  5.20292E+02  2.17412E+02  1.40275E+03  3.27982E+02  1.08152E+03
 -7.43808E+02  1.56161E+03 -8.23752E+02  5.22362E+02  1.00756E+02  1.03616E+03 -7.42246E+02  4.46817E+02
 -8.58468E+02  1.42720E+03 -1.64869E+03  9.15115E+02 -2.28508E+03  3.25764E+02 -3.07906E+03 -7.81721E+02
 -8.87117E+02 -1.65998E+03  5.42384E+02 -2.08667E+03  1.22648E+03 -2.14517E+03  2.63058E+03 -1.28024E+03
  2.26083E+03 -6.86773E+02  7.26444E+02  2.03041E+03 -3.65204E+02  2.17315E+03 -6.56861E+02  1.05723E+03
 -9.85728E+02  6.49080E+02 -6.03855E+02 -3.27373E+02 -3.00981E+02 -2.17807E+02 -6.77122E+02 -2.98707E+01
 -6.88943E+02 -2.05277E+02 -7.59368E+02  5.01346E+02  6.24661E+02 -4.36862E+02 -2.48044E+02 -9.10722E+02
  1.51389E+03 -2.07934E+02  2.26899E+02 -6.37543E+01  1.16054E+03  1.17503E+03 -2.69801E+02  1.83601E+03
 -9.05073E+02  2.60775E+03 -1.36605E+03  7.17743E+02 -1.24426E+03  7.24212E+01 -1.50226E+03 -9.79079E+02
 -8.41678E+02 -1.19487E+03  8.68904E+01 -4.15330E+02  3.61633E+02 -9.63728E+02  4.99988E+02 -4.01780E+01
  5.37770E+02  1.29390E+02  2.02220E+02  3.38652E+02 -5.85571E+02 -1.83574E+02  1.29599E+01  2.11493E+01
  3.16350E+02  2.83164E+02  6.63590E+02  6.70882E+02  5.11763E+02  6.13838E+02  5.52991E+02 -5.58402E+01
 -4.60531E+02  9.50684E+02 -7.07781E+02 -2.06233E+02 -1.11434E+03 -3.35250E+02 -6.33686E+01 -7.93818E+02
  3.08218E+02 -7.68711E+02  1.13898E+03  7.26257E+01  1.53636E+03 -7.35447E+02  3.28917E+01  5.92936E+02
  6.35024E+02  8.89457E+02 -4.82008E+01  2.42382E+02 -6.02046E+02  8.95212E+02 -5.27848E+02 -2.42015E+02
 -5.77441E+02 -2.63414E+02 -8.85981E+02  5.46013E+02 -8.71173E+02  1.41024E+02 -6.59953E+02 -3.42351E+02
 -1.31150E+03  3.25522E+02 -4.49390E+02 -7.85794E+02  6.33223E+02 -1.86406E+03  1.14453E+03 -3.55897E+02
  6.13313E+02  3.32747E+02  1.23086E+02  6.53904E+02 -1.19982E+02  1.94290E+02  1.39045E+00  1.55872E+02
