 $NMID ID='MM_0lb_SNR400_17hz_g45_52.RAW', FMTDAT='(8E13.5)'
 TRAMP=1., VOLUME=1. $END
  3.09682E+05  4.05802E+02  3.37084E+05  2.50493E+05  8.40064E+04  3.37723E+05 -1.32653E+05  2.50500E+05
 -1.90139E+05  8.22977E+04 -1.10950E+05 -3.32013E+04  1.07630E+03 -5.06864E+04  5.34521E+04 -3.05978E+02
  3.57025E+04  5.33174E+04 -1.74148E+04  7.52496E+04 -6.06657E+04  6.31343E+04 -8.26901E+04  3.14698E+04
 -7.97940E+04 -1.13686E+04 -5.67645E+04 -5.06227E+04 -1.45960E+04 -6.85278E+04  2.67540E+04 -4.52775E+04
  3.91516E+04  3.61940E+03  1.58369E+04  4.69190E+04 -3.43551E+04  4.65782E+04 -6.57411E+04 -5.21087E+02
 -5.27398E+04 -5.61262E+04 -6.28263E+03 -7.56903E+04  3.33433E+04 -5.38701E+04  4.68029E+04 -1.56362E+04
  4.21302E+04  1.14376E+04  3.05363E+04  2.45944E+04  1.62749E+04  2.87053E+04 -4.93479E+03  2.75493E+04
 -2.18507E+04  1.25114E+04 -1.87583E+04 -4.32054E+03  4.24645E+03 -7.73646E+03  2.13040E+04  1.11428E+04
  6.55439E+03  3.38469E+04 -3.04768E+04  3.41560E+04 -6.20312E+04  2.37524E+03 -5.58959E+04 -4.18043E+04
 -1.24901E+04 -6.18380E+04  3.85217E+04 -4.33718E+04  5.61512E+04 -1.95877E+03  3.24306E+04  3.13694E+04
 -6.40982E+03  3.38113E+04 -2.90998E+04  1.44431E+04 -2.86932E+04 -5.25205E+03 -1.51207E+04 -1.02434E+04
 -7.59946E+03 -1.22951E+04 -6.72987E+02 -1.66250E+04  7.17794E+03 -2.26946E+04  1.49096E+04 -1.40994E+04
  1.22716E+04  4.13093E+03 -6.33968E+03  1.31535E+04 -2.01389E+04 -2.86315E+03 -8.41976E+03 -3.09744E+04
  2.19992E+04 -4.13472E+04  4.57551E+04 -1.84370E+04  4.29484E+04  1.87402E+04  1.50303E+04  4.25617E+04
 -1.56641E+04  3.14713E+04 -2.39347E+04  1.69964E+03 -8.71789E+03 -2.66512E+04  2.10266E+04 -3.22819E+04
  3.90994E+04 -7.63931E+03  3.22438E+04  2.31176E+04  1.57780E+04  4.38980E+04 -7.72818E+03  4.58935E+04
 -2.93811E+04  3.10747E+04 -3.87812E+04  8.74620E+03 -3.98480E+04 -1.59019E+04 -2.21487E+04 -3.52888E+04
  6.97000E+03 -3.56219E+04  2.96535E+04 -1.33268E+04  2.74811E+04  1.11241E+04  3.37780E+03  1.84644E+04
 -1.31883E+04  7.32948E+03 -9.40829E+03 -7.73929E+03  5.76230E+03 -1.04967E+04  1.71823E+04  6.06455E+03
  1.18639E+04  2.17944E+04 -6.74735E+03  2.38280E+04 -2.20139E+04  9.76069E+03 -2.54272E+04 -5.75800E+03
 -1.76714E+04 -1.65727E+04 -6.31290E+03 -1.74550E+04  3.49439E+03 -1.58857E+04  1.36178E+04 -1.51299E+04
  2.30346E+04 -1.21074E+04  2.91434E+04  1.82443E+03  2.20127E+04  1.73999E+04  4.42772E+03  3.37978E+04
 -1.66838E+04  2.80421E+04 -2.61248E+04  9.98363E+03 -1.97735E+04 -1.01568E+04 -3.69737E+03 -1.37562E+04
  2.39941E+03 -4.22624E+03 -3.24899E+03  5.87711E+03 -1.39983E+04  5.26017E+03 -1.37148E+04 -5.66290E+03
 -8.77770E+03 -1.66156E+04  5.01025E+03 -1.95282E+04  1.36672E+04 -1.47404E+04  1.52241E+04 -1.39006E+03
  9.60359E+03  1.16866E+04 -4.74261E+02  1.61376E+04 -1.12242E+04  9.33696E+03 -1.66203E+04 -3.49520E+03
 -1.23638E+04 -1.41664E+04 -2.00545E+03 -1.97619E+04  8.96669E+03 -1.62617E+04  1.69892E+04 -7.82290E+03
  1.52996E+04  6.75714E+02  1.03738E+04  3.56128E+03  6.38078E+03  1.04641E+03  7.79479E+03 -1.39796E+03
  1.52583E+04  2.55897E+03  1.61979E+04  1.32343E+04  1.04197E+04  2.64746E+04 -3.46229E+03  2.83367E+04
 -1.68375E+04  2.24885E+04 -2.58967E+04  1.09815E+04 -2.75879E+04 -1.62772E+03 -2.26149E+04 -1.56486E+04
 -1.06042E+04 -2.20776E+04  7.59536E+03 -2.07059E+04  1.79516E+04 -1.08483E+04  1.70619E+04  4.02567E+03
  6.70629E+03  1.13787E+04 -7.19202E+03  1.11582E+04 -1.37465E+04  2.80640E+03 -1.16565E+04 -8.27289E+03
 -2.75883E+01 -1.35780E+04  6.37907E+03 -9.36283E+03  8.02522E+03 -1.36645E+03  1.15445E+03  5.13056E+03
 -5.98361E+03  1.77343E+03 -4.48927E+03 -5.13783E+03  1.03220E+01 -1.07942E+04  8.38053E+03 -1.12586E+04
  1.36119E+04 -5.46813E+03  1.39457E+04  2.67253E+03  1.11790E+04  1.04046E+04  4.94871E+03  1.53239E+04
 -2.00640E+03  1.75812E+04 -1.11858E+04  1.11125E+04 -1.23485E+04  3.85831E+03 -8.82498E+03 -2.18545E+03
 -3.99714E+03 -3.51846E+03 -8.90793E+02  1.47689E+03 -1.91078E+03  1.96450E+03 -4.00581E+03  3.71997E+03
 -8.81920E+03 -8.27597E+02 -9.08304E+03 -7.39303E+03 -3.47772E+03 -1.22190E+04  3.66542E+03 -9.30870E+03
  7.44503E+03 -4.23683E+03  5.72858E+03  2.08730E+03  7.35096E+02  3.03472E+03 -4.30210E+03 -1.08865E+02
 -4.53652E+03 -5.72174E+03 -1.08202E+02 -7.80993E+03  4.62819E+03 -8.69911E+03  1.11528E+04 -4.48201E+03
  1.31772E+04  1.02386E+03  9.23853E+03  7.06873E+03  1.79510E+03  9.20358E+03 -5.62572E+03  9.11446E+03
 -7.52189E+03  3.12490E+03 -3.36130E+03 -2.01599E+03  1.56818E+03 -2.21236E+03  5.33789E+03 -1.42189E+03
  4.51739E+03  3.09354E+03  1.30313E+03  7.13586E+03 -4.34845E+03  7.41708E+03 -8.92931E+03  1.78804E+03
 -5.56885E+03 -4.54343E+03  6.76710E+02 -7.39904E+03  4.28560E+03 -4.02481E+03  3.81117E+03  1.58303E+03
  4.27770E+02  3.55234E+03 -4.74890E+03  4.94703E+03 -5.42409E+03  2.55113E+03 -5.46143E+03 -1.41789E+03
 -3.18139E+03 -6.94158E+03  1.19598E+03 -7.96524E+03  7.07244E+03 -5.01186E+03  7.72501E+03  9.20927E+02
  5.44349E+03  6.28931E+03 -1.34040E+02  7.93487E+03 -6.08985E+03  5.13258E+03 -5.74401E+03 -7.83357E+02
 -5.75553E+03 -5.75765E+03 -1.26192E+03 -5.51839E+03  3.03038E+03 -5.02343E+03  3.40473E+03 -2.76266E+03
  3.14652E+03  6.48539E+02 -4.19008E+02  1.22737E+03  4.11117E+02 -2.14001E+02  7.76838E+02 -2.44566E+03
  4.64538E+03 -1.38060E+03  6.59237E+03  5.44997E+02  6.81734E+03  3.29115E+03  5.30373E+03  8.48488E+03
 -1.56335E+03  9.51108E+03 -9.09557E+03  7.45285E+03 -1.16853E+04  1.41210E+03 -8.64384E+03 -3.47940E+03
 -5.01384E+03 -7.03284E+03 -4.73215E+02 -6.52425E+03  1.70052E+03 -2.24581E+03  2.21322E+03 -2.66218E+03
  1.82953E+03 -1.66079E+03  2.28285E+03 -2.19425E+03  3.61392E+03 -1.68927E+03  3.96082E+03  1.86166E+02
  4.69004E+03  1.17795E+03  1.35301E+03  4.18556E+03 -1.80655E+03  3.14211E+03 -5.06661E+03  3.90698E+03
 -5.92330E+03 -8.58589E+02 -2.53877E+03 -4.31668E+03  1.24865E+02 -6.46392E+03  3.32126E+03 -6.04612E+03
  6.00082E+03 -3.94131E+03  8.07740E+03 -8.16376E+01  5.22090E+03  4.65386E+03  1.41987E+03  7.10295E+03
 -2.97008E+03  6.90083E+03 -3.91682E+03  2.33610E+03 -2.45232E+03 -1.15457E+03 -3.44704E+02 -4.63858E+02
 -9.63867E+02  9.44807E+01 -7.45311E+02  2.26054E+03 -2.86478E+03  1.11279E+03 -4.62260E+03 -3.65109E+02
 -2.28226E+03 -4.61013E+03  7.34867E+02 -5.97069E+03  3.46201E+03 -5.40745E+03  4.47960E+03 -8.69117E+02
  4.89459E+03  3.33207E+03  2.02698E+03  4.37610E+03 -8.74643E+02  5.57652E+03 -3.37137E+03  2.80578E+03
 -4.44168E+03  5.08235E+02 -3.94631E+03 -2.55974E+03  1.91182E+02 -3.43988E+03  1.33634E+03 -1.93493E+03
  3.46882E+03 -9.91895E+02  2.28666E+03  1.05452E+03  7.94723E+02  1.98449E+03  6.56697E+02  4.45903E+02
  1.48279E+03  7.12427E+02  1.13454E+03  6.14648E+02  7.14759E+02  2.42399E+03  1.33014E+03  2.45350E+03
 -1.55681E+03  4.25440E+03 -3.32687E+03  4.98593E+03 -3.65634E+03  1.06896E+03 -4.80897E+03 -4.47357E+02
 -1.82014E+03 -4.52075E+03  7.55786E+02 -6.13860E+03  2.45898E+03 -3.45660E+03  3.86144E+03 -7.77518E+02
  2.52861E+03  1.86910E+03  8.70387E+02  2.79545E+03 -7.50046E+02  1.87515E+03 -1.68139E+03 -3.64282E+01
 -3.16889E+02 -1.80344E+03  1.69366E+03 -2.31980E+03  1.67871E+03 -1.48490E+03  1.66519E+03 -6.52816E+01
  1.22322E+03  5.84077E+02  1.15236E+03 -5.51864E+01 -8.88124E+02  9.14282E+02  1.71947E+03 -2.58429E+02
  2.44663E+02 -5.78575E+02  2.64986E+03  7.32346E+02  6.03462E+02  3.01850E+03  2.65378E+02  3.82601E+03
 -1.79803E+03  1.27137E+03 -2.88785E+03  2.98731E+02 -2.72171E+03 -7.91200E+02 -6.54646E+02 -1.35844E+03
  3.19289E+02 -2.03240E+03  9.27023E+02 -9.32371E+02  7.37854E+02  1.38087E+03 -1.16763E+03  1.52427E+03
 -2.00183E+03  1.19838E+03 -2.07353E+03 -1.73247E+03 -6.59224E+02 -2.81156E+03  6.45535E+02 -2.28743E+03
  6.46763E+02 -5.74571E+02  7.47223E+02  1.65774E+02  1.32180E+03  7.80667E+01  4.85431E+02  1.10852E+03
 -7.25689E+02  3.73385E+01 -8.54134E+02 -9.86178E+02  6.96231E+02 -1.69314E+03  2.01098E+03 -1.62479E+03
  1.81025E+03  3.32189E+02  3.40104E+03  1.07848E+03  7.28199E+02  2.14867E+03 -3.47882E+02  2.46461E+03
 -1.33161E+03  3.96164E+02 -2.66708E+03  4.76099E+01 -8.79918E+02 -1.38682E+03  2.35811E+02 -1.05053E+03
  1.64546E+03 -9.75487E+02  1.76620E+03  5.08260E+02  3.30556E+02  1.83821E+03 -2.39320E+02  1.51188E+03
 -6.00858E+02  1.52854E+03 -2.92964E+02  7.81106E+02  5.84567E+01  7.85708E+02 -1.14247E+03  7.14683E+02
 -1.19624E+03  1.62734E+03 -2.13897E+03  4.53630E+02 -2.13755E+03  8.02699E+01 -3.32131E+03 -1.58592E+03
 -1.23565E+03 -3.06647E+03  3.93908E+02 -3.62730E+03  9.23973E+02 -3.46103E+03  3.59552E+03 -1.38644E+03
  2.72730E+03 -4.72396E+02  1.47193E+03  1.69367E+03 -5.50999E+02  1.97860E+03 -7.82288E+02  1.71905E+03
 -1.36988E+03  1.62918E+03 -1.14291E+03 -2.11447E+02 -4.48015E+02 -5.62628E+02 -2.87849E+02 -4.67445E+02
 -5.69198E+02  9.98117E+01 -7.29612E+02 -1.59869E+02  1.37683E+02 -7.37552E+02 -3.68862E+02 -1.10803E+03
  1.66897E+03 -1.29733E+03  8.20668E+02  5.09263E+02  1.33074E+03  1.40566E+03 -8.43272E+02  1.95129E+03
 -7.96075E+02  2.99787E+03 -2.24428E+03  1.81607E+03 -2.02275E+03 -4.10523E+02 -1.80365E+03 -1.64633E+03
 -4.87681E+02 -2.48201E+03  8.14223E+02 -1.22101E+03  6.50995E+02 -1.05782E+03  4.96631E+02  3.79828E+02
  5.19951E+02  6.58103E+02  1.49158E+02  7.94310E+01  2.78875E+01 -8.95945E+01 -3.47163E+02 -5.06957E+02
  5.45493E+02 -1.66392E+02  8.43011E+02  7.65109E+02 -2.82597E+02  1.08831E+03  3.09234E+02  5.45330E+02
 -9.77805E+02  7.22568E+02 -5.78490E+02  7.48473E+02 -9.10920E+02 -7.45063E+02  3.45580E+02 -1.07963E+03
  9.29406E+02 -8.39757E+02  3.99937E+02 -1.07679E+02  1.66898E+03 -8.68275E+02  6.46545E+02  1.71437E+03
  6.13444E+01  5.57126E+02  8.74232E+00  6.81215E+02 -1.22401E+03  4.40502E+02  1.17787E+02 -7.67098E+01
 -4.94044E+02  1.53489E+02 -3.49561E+02 -7.99923E+01 -7.37679E+02  3.71436E+02 -1.35839E+03 -7.73944E+02
 -1.60653E+03  1.28427E+02 -5.57811E+02 -1.64618E+03  8.53354E+02 -2.13588E+03  9.48863E+02 -1.27902E+02
  9.46880E+02  3.69783E+02 -4.22653E+02  3.66517E+02  1.30191E+02  1.66714E+03 -9.77768E+02  1.02601E+03
