 $NMID ID='MM_0lb_SNR400_14hz_g55_65.RAW', FMTDAT='(8E13.5)'
 TRAMP=1., VOLUME=1. $END
  3.09120E+05  2.54489E+02  3.37343E+05  2.49998E+05  8.45715E+04  3.38260E+05 -1.32744E+05  2.51113E+05
 -1.89958E+05  8.38291E+04 -1.12452E+05 -3.22230E+04  6.21660E+02 -5.09172E+04  5.28717E+04 -3.48384E+02
  3.57101E+04  5.26000E+04 -1.73599E+04  7.60322E+04 -6.07093E+04  6.36512E+04 -8.41623E+04  3.27150E+04
 -8.06731E+04 -1.16395E+04 -5.79462E+04 -5.13913E+04 -1.52689E+04 -6.99083E+04  2.71346E+04 -4.58086E+04
  4.02455E+04  4.04751E+03  1.55665E+04  4.78409E+04 -3.43332E+04  4.72858E+04 -6.73477E+04 -8.77732E+02
 -5.41573E+04 -5.67174E+04 -7.16935E+03 -7.78850E+04  3.45437E+04 -5.55055E+04  4.79340E+04 -1.73013E+04
  4.43032E+04  1.20692E+04  3.22997E+04  2.60934E+04  1.60753E+04  2.94877E+04 -5.61102E+03  2.67976E+04
 -2.17374E+04  1.24893E+04 -1.89922E+04 -4.99898E+03  5.67238E+03 -7.90731E+03  2.26688E+04  1.21425E+04
  7.46919E+03  3.55156E+04 -3.24569E+04  3.56683E+04 -6.37662E+04  1.38716E+03 -5.70464E+04 -4.32779E+04
 -1.27577E+04 -6.36187E+04  4.00429E+04 -4.54970E+04  5.88624E+04 -1.67828E+03  3.47070E+04  3.23103E+04
 -6.00910E+03  3.60354E+04 -3.05958E+04  1.66198E+04 -3.07883E+04 -4.33920E+03 -1.66975E+04 -1.13811E+04
 -8.53482E+03 -1.31068E+04 -1.13296E+03 -1.78981E+04  7.37797E+03 -2.31295E+04  1.56159E+04 -1.24832E+04
  1.08169E+04  5.46480E+03 -8.62789E+03  1.27639E+04 -2.17829E+04 -4.94974E+03 -7.84930E+03 -3.47999E+04
  2.36368E+04 -4.36974E+04  4.88096E+04 -1.97286E+04  4.56608E+04  2.04336E+04  1.58647E+04  4.42311E+04
 -1.63829E+04  3.34635E+04 -2.61428E+04  1.50050E+03 -1.00599E+04 -2.83729E+04  2.11358E+04 -3.45871E+04
  4.15620E+04 -9.53112E+03  3.63776E+04  2.36777E+04  1.86315E+04  4.70423E+04 -7.82363E+03  5.14132E+04
 -3.16674E+04  3.41421E+04 -4.33314E+04  9.64246E+03 -4.30655E+04 -1.62046E+04 -2.43967E+04 -3.86840E+04
  7.18449E+03 -3.87266E+04  3.23612E+04 -1.55348E+04  2.96130E+04  1.07265E+04  4.35582E+03  1.88316E+04
 -1.37321E+04  8.69292E+03 -1.14593E+04 -7.81362E+03  6.22754E+03 -1.11438E+04  1.83495E+04  5.35824E+03
  1.42025E+04  2.30501E+04 -6.09805E+03  2.54841E+04 -2.27961E+04  1.23971E+04 -2.88338E+04 -4.61655E+03
 -2.17772E+04 -1.76985E+04 -9.07666E+03 -2.12006E+04  4.12027E+03 -2.07777E+04  1.58787E+04 -1.81918E+04
  2.72075E+04 -1.34508E+04  3.37736E+04  2.97886E+03  2.51464E+04  2.07709E+04  4.37405E+03  3.75138E+04
 -1.78852E+04  3.05308E+04 -2.85468E+04  1.04713E+04 -2.10259E+04 -9.94564E+03 -4.58364E+03 -1.32291E+04
  1.74482E+03 -2.94587E+03 -5.75907E+03  7.48136E+03 -1.64907E+04  5.15722E+03 -1.67820E+04 -7.55977E+03
 -1.08845E+04 -1.91272E+04  5.72599E+03 -2.41080E+04  1.62858E+04 -1.68354E+04  1.88562E+04 -2.08738E+03
  1.18159E+04  1.35161E+04 -8.26197E+02  1.95765E+04 -1.31196E+04  1.08242E+04 -1.96763E+04 -4.35134E+03
 -1.49443E+04 -1.80365E+04 -2.27795E+03 -2.35802E+04  1.09369E+04 -1.96239E+04  1.94669E+04 -1.00582E+04
  1.87806E+04 -1.78138E+02  1.39634E+04  4.51440E+03  6.95770E+03  7.49923E+02  1.01833E+04 -1.78065E+03
  1.78019E+04  3.25339E+03  2.04176E+04  1.52746E+04  1.37707E+04  3.16416E+04 -3.17600E+03  3.49726E+04
 -2.11840E+04  2.90609E+04 -3.30852E+04  1.36910E+04 -3.48643E+04 -2.64474E+03 -2.93806E+04 -2.04924E+04
 -1.19897E+04 -2.80997E+04  1.03609E+04 -2.58826E+04  2.27392E+04 -1.29369E+04  2.00738E+04  6.05344E+03
  7.12475E+03  1.47788E+04 -8.97366E+03  1.28914E+04 -1.65615E+04  2.56961E+03 -1.31353E+04 -1.05093E+04
  6.61895E+02 -1.58167E+04  8.58376E+03 -1.13289E+04  1.09362E+04 -1.21270E+03  2.39902E+03  6.87474E+03
 -7.35143E+03  2.85166E+03 -6.96078E+03 -5.93133E+03 -6.49883E+02 -1.49000E+04  1.02908E+04 -1.52794E+04
  1.68593E+04 -7.64029E+03  1.83572E+04  2.86383E+03  1.59166E+04  1.38987E+04  7.43278E+03  2.11153E+04
 -3.53611E+03  2.25704E+04 -1.51883E+04  1.36477E+04 -1.72969E+04  3.34688E+03 -1.14767E+04 -3.62154E+03
 -5.74966E+03 -5.02378E+03 -1.22314E+03  6.85712E+02 -2.47393E+03  3.10066E+03 -5.26768E+03  4.86301E+03
 -1.03767E+04 -4.16130E+02 -1.17948E+04 -9.51806E+03 -4.53788E+03 -1.54549E+04  4.46296E+03 -1.17473E+04
  9.77882E+03 -4.54879E+03  6.41564E+03  2.70325E+03  5.15738E+02  3.93617E+03 -5.94227E+03 -4.69937E+02
 -5.30318E+03 -6.87110E+03 -7.07118E+02 -1.07596E+04  6.24862E+03 -1.21589E+04  1.50217E+04 -5.14959E+03
  1.66014E+04  1.37003E+03  1.26105E+04  9.74424E+03  2.74739E+03  1.36125E+04 -7.02652E+03  1.19915E+04
 -9.07162E+03  3.48708E+03 -4.79773E+03 -2.08792E+03  2.46433E+03 -3.19281E+03  6.18461E+03 -8.45496E+02
  5.65332E+03  4.46663E+03  8.50920E+02  9.07042E+03 -6.79301E+03  8.67444E+03 -1.13207E+04  2.55845E+03
 -7.63439E+03 -5.57185E+03  4.74977E+02 -9.48344E+03  5.87055E+03 -5.42936E+03  6.30725E+03  1.98810E+03
  1.42733E+03  6.26350E+03 -5.96594E+03  8.06467E+03 -8.98111E+03  4.03620E+03 -9.13525E+03 -2.56451E+03
 -5.30445E+03 -1.01982E+04  2.74416E+03 -1.22767E+04  1.00522E+04 -7.23910E+03  1.06041E+04  1.50129E+03
  7.06827E+03  9.11566E+03 -3.53830E+02  1.16108E+04 -8.39136E+03  6.21512E+03 -8.59075E+03 -1.17198E+03
 -7.50904E+03 -7.60452E+03 -1.20192E+03 -8.46788E+03  4.42804E+03 -6.47330E+03  5.18411E+03 -3.16729E+03
  3.77159E+03  1.15228E+03 -7.42072E+02  2.07545E+03 -5.69560E+01 -1.96160E+03  9.52654E+02 -4.03744E+03
  6.43097E+03 -2.20189E+03  9.84951E+03  1.14746E+03  9.77504E+03  6.43991E+03  7.50506E+03  1.32033E+04
 -2.62233E+03  1.47659E+04 -1.31925E+04  1.12152E+04 -1.69001E+04  1.82077E+03 -1.40909E+04 -5.29917E+03
 -7.26206E+03 -1.07989E+04  1.35440E+02 -9.40298E+03  3.22309E+03 -4.67365E+03  2.96749E+03 -3.11194E+03
  1.82950E+03 -2.55958E+03  2.74961E+03 -3.35790E+03  4.92392E+03 -1.72377E+03  5.80295E+03 -9.16213E+01
  7.35543E+03  1.99336E+03  3.31362E+03  6.47402E+03 -1.98804E+03  6.23507E+03 -7.46070E+03  5.08618E+03
 -8.68393E+03 -9.85234E+02 -4.84821E+03 -5.76630E+03  2.79473E+02 -8.81758E+03  5.70862E+03 -9.65547E+03
  1.00046E+04 -5.66365E+03  1.14766E+04  8.53337E+02  8.20433E+03  8.30985E+03  1.33598E+03  1.04189E+04
 -4.03823E+03  9.79707E+03 -6.26422E+03  3.23435E+03 -4.17729E+03 -1.26916E+03 -7.28620E+02 -1.14013E+03
 -8.76841E+02  2.88215E+02 -8.71877E+02  2.98497E+03 -3.87587E+03  2.11097E+03 -6.32442E+03 -5.51605E+02
 -3.73848E+03 -6.01797E+03  4.72872E+02 -8.98774E+03  5.18129E+03 -7.76737E+03  7.96761E+03 -2.34744E+03
  8.23810E+03  3.80510E+03  3.65731E+03  6.59328E+03 -1.58884E+03  8.74627E+03 -5.59588E+03  5.84270E+03
 -7.08652E+03  4.73194E+02 -6.18301E+03 -4.86714E+03 -5.53095E+02 -7.29766E+03  3.39548E+03 -4.37365E+03
  4.95848E+03 -1.53350E+03  3.23857E+03  1.57259E+03  1.02431E+03  2.54778E+03  6.17295E+02  1.10848E+03
  1.81005E+03  3.54813E+02  2.05421E+03  1.18434E+03  2.09622E+03  3.17767E+03  1.48526E+03  3.45938E+03
 -1.76867E+03  6.62609E+03 -5.06684E+03  7.33905E+03 -7.78476E+03  1.71600E+03 -8.25987E+03 -2.61132E+03
 -3.95421E+03 -7.76880E+03  1.25386E+03 -9.00622E+03  4.49436E+03 -5.42044E+03  6.11574E+03 -1.73885E+03
  5.52311E+03  3.07364E+03  1.21211E+03  5.12702E+03 -2.56662E+03  2.99661E+03 -3.09107E+03 -3.30911E+02
 -1.57025E+03 -2.64041E+03  2.64837E+03 -3.59642E+03  3.20024E+03 -2.03040E+03  3.38434E+03  6.15858E+02
  1.76479E+03  8.51541E+02  1.71096E+03  3.76919E+02 -3.22253E+02  1.35611E+03  1.18870E+03 -5.01692E+02
  4.26160E+02 -4.87529E+02  2.73575E+03  1.38737E+03  1.24995E+03  4.62529E+03 -1.27864E+03  4.96156E+03
 -3.56724E+03  3.07088E+03 -4.81361E+03  1.06593E+03 -4.24614E+03 -1.87638E+03 -1.46752E+03 -2.93717E+03
  7.23743E+02 -2.63240E+03  1.40891E+03 -1.34448E+03  1.50194E+03  1.81795E+03 -4.08245E+02  3.15942E+03
 -3.26312E+03  1.88970E+03 -3.55517E+03 -1.20906E+03 -2.05773E+03 -3.92911E+03  5.05942E+02 -3.86867E+03
  1.86585E+03 -2.28873E+03  2.52287E+03  3.00332E+02  2.73347E+03  1.78156E+01  1.48414E+02  2.42258E+03
 -8.33437E+02  7.96234E+02 -2.25942E+03 -9.49024E+02  1.48499E+03 -2.58325E+03  3.24188E+03 -2.26729E+03
  3.99845E+03  2.58037E+02  4.53857E+03  2.70098E+03  2.15000E+03  4.36196E+03 -8.62658E+02  4.35465E+03
 -3.03851E+03  1.11623E+03 -3.99940E+03 -1.13532E+03 -1.40672E+03 -2.99933E+03  3.33944E+02 -2.37765E+03
  3.24634E+03 -1.37082E+03  1.79098E+03  1.19163E+03  3.91304E+02  2.89739E+03  4.90536E+01  1.86028E+03
 -1.28539E+03  1.56725E+03 -7.72532E+02  3.54680E+02 -2.13743E+02  8.87250E+02 -4.39145E+02  1.25678E+03
 -9.25067E+02  1.91061E+03 -3.48808E+03  1.15689E+03 -4.37579E+03  3.09466E+01 -5.22893E+03 -2.39932E+03
 -2.41109E+03 -5.39352E+03  2.02172E+03 -6.79191E+03  3.40992E+03 -5.02162E+03  5.99891E+03 -1.70851E+03
  5.48419E+03  7.60328E+02  3.30034E+03  3.76775E+03 -5.87479E+02  3.81862E+03 -2.38860E+03  3.66078E+03
 -2.23583E+03  8.97774E+02 -1.57764E+03 -4.51034E+02 -8.35555E+02 -1.72004E+02 -8.90070E+02  3.60196E+02
 -1.27850E+03 -1.33765E+02 -1.10260E+03  3.69432E+02 -3.46789E+02 -1.77593E+03  4.37826E+01 -1.59790E+03
  2.22102E+03 -1.66442E+03  1.86583E+03  1.30516E+02  3.05629E+03  2.22667E+03  5.32826E+02  4.20727E+03
 -1.38044E+03  4.49142E+03 -4.52161E+03  3.28422E+03 -5.37872E+03 -5.26306E+02 -3.53765E+03 -2.95298E+03
 -1.95002E+03 -4.34203E+03  1.32017E+03 -3.50322E+03  2.50040E+03 -1.59853E+03  2.13945E+03  1.31470E+02
  1.71484E+03  1.51687E+03 -1.53649E+02  1.76407E+03 -9.60981E+02  2.65458E+02 -3.19773E+01 -6.40266E+02
  1.67151E+03 -3.66422E+02  8.79550E+02  5.21725E+02  7.11706E+00  2.06858E+03  3.92195E+02  1.78654E+03
 -1.80399E+03  1.77166E+03 -1.84881E+03  3.31787E+02 -3.13713E+03 -1.52148E+03 -9.72257E+02 -3.19165E+03
  2.10303E+03 -2.47071E+03  2.31453E+03 -4.37774E+02  2.97608E+03  7.26690E+02  8.15859E+02  1.94748E+03
  6.84121E+02  2.65418E+03 -7.41468E+01  1.96791E+03 -2.01187E+03  1.14722E+03 -7.87053E+02  3.72974E+02
 -8.78954E+02  3.19012E+01 -7.29473E+02  2.96268E+02 -7.45261E+02  8.34022E+02 -2.02268E+03 -2.30937E+02
 -1.77301E+03 -7.21222E+02 -6.71486E+02 -2.26438E+03  1.31646E+03 -3.17002E+03  2.46566E+03 -1.27001E+03
  2.35915E+03 -4.86054E+02  8.56884E+02  1.77191E+03  9.34821E+01  2.64824E+03 -1.71558E+03  1.75782E+03
