 $NMID ID='MM_0lb_SNR400_9hz_g50_10.RAW', FMTDAT='(8E13.5)'
 TRAMP=1., VOLUME=1. $END
  3.09671E+05  9.25675E+02  3.38247E+05  2.50468E+05  8.46943E+04  3.38658E+05 -1.32577E+05  2.52541E+05
 -1.91452E+05  8.40852E+04 -1.13456E+05 -3.20632E+04  4.98309E+02 -5.08749E+04  5.31047E+04 -5.99902E+02
  3.57221E+04  5.29851E+04 -1.70448E+04  7.60340E+04 -6.20980E+04  6.44634E+04 -8.55622E+04  3.25418E+04
 -8.24375E+04 -1.14947E+04 -5.80554E+04 -5.26839E+04 -1.48195E+04 -7.06585E+04  2.84922E+04 -4.61992E+04
  4.16523E+04  3.70878E+03  1.66838E+04  4.88058E+04 -3.48070E+04  4.91983E+04 -6.81128E+04  4.15101E+02
 -5.42568E+04 -5.80298E+04 -7.65715E+03 -7.87342E+04  3.45773E+04 -5.71594E+04  4.93741E+04 -1.81563E+04
  4.49236E+04  1.14285E+04  3.34371E+04  2.68128E+04  1.60406E+04  3.06730E+04 -5.76299E+03  2.78570E+04
 -2.23053E+04  1.26740E+04 -1.75823E+04 -4.94652E+03  7.04289E+03 -7.84515E+03  2.35952E+04  1.45452E+04
  6.71673E+03  3.70472E+04 -3.38088E+04  3.63373E+04 -6.58338E+04  2.64893E+03 -5.82012E+04 -4.49391E+04
 -1.25091E+04 -6.61522E+04  4.15186E+04 -4.77808E+04  6.15096E+04 -2.41028E+03  3.69005E+04  3.43350E+04
 -5.56112E+03  3.98986E+04 -3.16710E+04  1.91910E+04 -3.28505E+04 -3.67405E+03 -1.92056E+04 -1.23636E+04
 -9.21164E+03 -1.45696E+04  4.14810E+02 -1.98929E+04  8.50099E+03 -2.26151E+04  1.57744E+04 -1.27947E+04
  1.01478E+04  6.48201E+03 -1.00929E+04  1.18961E+04 -2.31816E+04 -6.48176E+03 -8.40945E+03 -3.73669E+04
  2.49836E+04 -4.70276E+04  5.23366E+04 -2.01807E+04  4.80001E+04  2.01225E+04  1.68925E+04  4.76675E+04
 -1.65267E+04  3.62720E+04 -2.81488E+04  2.37508E+03 -1.18109E+04 -2.86136E+04  2.19242E+04 -3.65827E+04
  4.53378E+04 -1.09589E+04  4.04491E+04  2.48599E+04  2.17141E+04  5.12743E+04 -8.53595E+03  5.64875E+04
 -3.46464E+04  3.84375E+04 -4.76745E+04  1.13319E+04 -4.74552E+04 -1.91574E+04 -2.59080E+04 -4.19267E+04
  7.66854E+03 -4.18665E+04  3.43711E+04 -1.73047E+04  3.17312E+04  1.09635E+04  5.65866E+03  2.05184E+04
 -1.37187E+04  9.86717E+03 -1.13912E+04 -7.49349E+03  6.40466E+03 -1.17337E+04  1.87190E+04  5.42042E+03
  1.48715E+04  2.21966E+04 -5.20166E+03  2.70375E+04 -2.35977E+04  1.49929E+04 -3.18781E+04 -3.54297E+03
 -2.53930E+04 -1.77837E+04 -1.20136E+04 -2.51744E+04  4.96039E+03 -2.56279E+04  1.93109E+04 -2.24500E+04
  3.19990E+04 -1.33077E+04  3.72033E+04  5.47198E+03  2.71848E+04  2.35538E+04  3.95249E+03  4.10370E+04
 -2.00175E+04  3.38149E+04 -3.09359E+04  1.20690E+04 -2.24601E+04 -1.10013E+04 -5.22000E+03 -1.30994E+04
  8.03785E+02 -7.80993E+02 -7.59337E+03  8.30827E+03 -2.03393E+04  5.32667E+03 -2.03618E+04 -9.59148E+03
 -1.22466E+04 -2.32578E+04  6.16056E+03 -2.70848E+04  1.81137E+04 -1.90247E+04  2.19324E+04 -9.20806E+02
  1.44917E+04  1.59637E+04 -8.04220E+02  2.31342E+04 -1.64882E+04  1.35596E+04 -2.33369E+04 -5.19210E+03
 -1.76835E+04 -2.02217E+04 -2.23644E+03 -2.82460E+04  1.32772E+04 -2.30585E+04  2.26522E+04 -1.21896E+04
  2.22453E+04 -9.92612E+00  1.60480E+04  5.41913E+03  8.73006E+03  1.10712E+03  1.19832E+04 -2.09292E+03
  2.23800E+04  3.34042E+03  2.55672E+04  1.84142E+04  1.78507E+04  3.73983E+04 -3.00522E+03  4.43229E+04
 -2.52855E+04  3.69017E+04 -4.08456E+04  1.91118E+04 -4.41407E+04 -3.74488E+03 -3.57635E+04 -2.59338E+04
 -1.40570E+04 -3.74057E+04  1.34303E+04 -3.27059E+04  2.76683E+04 -1.53620E+04  2.39237E+04  7.90388E+03
  7.30774E+03  1.84127E+04 -1.13197E+04  1.52508E+04 -2.00067E+04  2.57260E+03 -1.52613E+04 -1.32597E+04
  2.43559E+02 -2.00329E+04  9.33760E+03 -1.39367E+04  1.29070E+04 -1.68280E+03  3.78266E+03  8.45505E+03
 -8.75871E+03  4.16520E+03 -8.77884E+03 -7.60871E+03 -2.08562E+03 -1.87953E+04  1.19606E+04 -2.00861E+04
  2.27953E+04 -1.12647E+04  2.63855E+04  3.14792E+03  2.31642E+04  1.77822E+04  1.01732E+04  2.92388E+04
 -5.79647E+03  3.10327E+04 -2.00932E+04  1.87568E+04 -2.25219E+04  4.12315E+03 -1.53716E+04 -6.25541E+03
 -6.79533E+03 -7.01023E+03  1.15245E+02  5.14057E+02 -2.80689E+03  3.06909E+03 -7.52123E+03  4.64126E+03
 -1.39416E+04 -1.16114E+03 -1.34898E+04 -1.24858E+04 -6.19076E+03 -1.99579E+04  6.72470E+03 -1.53170E+04
  1.24273E+04 -7.42640E+03  9.63001E+03  3.96927E+03 -1.78490E+02  5.80161E+03 -7.86656E+03  1.47010E+02
 -7.74604E+03 -1.05872E+04 -3.75059E+02 -1.48845E+04  9.58227E+03 -1.66292E+04  2.02563E+04 -8.92819E+03
  2.28537E+04  3.01155E+03  1.66279E+04  1.46360E+04  4.30579E+03  1.96689E+04 -1.04777E+04  1.60810E+04
 -1.33684E+04  3.82938E+03 -6.85550E+03 -3.28879E+03  1.70422E+03 -4.54121E+03  8.20708E+03 -4.40078E+02
  7.45575E+03  7.20391E+03  6.99880E+02  1.25260E+04 -9.11525E+03  1.26203E+04 -1.56297E+04  2.86657E+03
 -1.06336E+04 -8.53083E+03  5.97457E+02 -1.40522E+04  9.30411E+03 -6.70436E+03  9.53541E+03  3.17881E+03
  2.06808E+03  9.95564E+03 -8.47671E+03  1.06508E+04 -1.32150E+04  6.11784E+03 -1.40255E+04 -5.83324E+03
 -9.05881E+03 -1.60459E+04  4.02257E+03 -1.81885E+04  1.53578E+04 -1.16281E+04  1.56931E+04  2.51944E+03
  1.01318E+04  1.38044E+04 -2.06662E+03  1.52192E+04 -1.17228E+04  7.87833E+03 -1.34884E+04 -1.40211E+03
 -1.04733E+04 -1.05684E+04 -2.30839E+03 -1.19902E+04  6.81043E+03 -9.42323E+03  7.78887E+03 -3.43661E+03
  4.74278E+03  2.30436E+03 -1.34406E+03  2.19874E+03 -2.71886E+02 -3.36317E+03  2.85125E+03 -7.05224E+03
  1.25124E+04 -4.86178E+03  1.56856E+04  1.92138E+03  1.57484E+04  1.09985E+04  1.01306E+04  1.94292E+04
 -5.68989E+03  2.40701E+04 -1.99178E+04  1.76718E+04 -2.58146E+04  3.53660E+03 -2.09341E+04 -8.86764E+03
 -1.02977E+04 -1.70802E+04 -9.37572E+02 -1.49721E+04  5.02639E+03 -8.77770E+03  5.47512E+03 -5.02598E+03
  3.93522E+03 -2.60142E+03  3.83864E+03 -4.00837E+03  6.11786E+03 -2.92611E+03  8.27874E+03 -1.47187E+03
  1.06915E+04  3.70876E+03  5.63477E+03  9.49385E+03 -2.84044E+03  1.08775E+04 -1.20220E+04  8.49194E+03
 -1.50045E+04 -1.89301E+03 -1.03174E+04 -1.13109E+04 -1.13731E+03 -1.64358E+04  7.78581E+03 -1.56829E+04
  1.63357E+04 -9.08982E+03  1.94283E+04  2.96278E+03  1.39681E+04  1.38387E+04  1.99923E+03  1.79792E+04
 -6.80278E+03  1.41940E+04 -1.02333E+04  5.14629E+03 -7.44958E+03 -1.59713E+03 -2.68303E+03 -2.21631E+03
 -7.75488E+02  5.64216E+02 -1.54882E+03  2.41591E+03 -5.93289E+03  2.40113E+03 -9.83225E+03 -2.05620E+03
 -7.15934E+03 -1.06178E+04 -5.65650E+02 -1.53863E+04  9.31583E+03 -1.41125E+04  1.51681E+04 -4.90123E+03
  1.49398E+04  6.66977E+03  7.22901E+03  1.32219E+04 -2.77239E+03  1.54399E+04 -1.00936E+04  9.66679E+03
 -1.39793E+04 -3.04451E+02 -1.01832E+04 -9.28486E+03 -8.39166E+02 -1.21661E+04  6.43391E+03 -9.97843E+03
  9.53848E+03 -3.14816E+03  6.57161E+03  2.91262E+03  1.40258E+03  4.05725E+03  1.34938E+03  1.51557E+03
  1.49157E+03  2.10936E+03  3.75061E+03  1.92190E+03  4.16732E+03  4.73694E+03  3.94630E+03  8.77333E+03
 -2.34723E+03  1.24682E+04 -9.74943E+03  1.19064E+04 -1.44220E+04  3.04717E+03 -1.61672E+04 -6.06848E+03
 -7.09005E+03 -1.49459E+04  2.77504E+03 -1.79344E+04  9.10456E+03 -1.05374E+04  1.22110E+04 -2.10300E+03
  9.46966E+03  5.74767E+03  1.75895E+03  8.17135E+03 -4.09659E+03  5.17987E+03 -5.62100E+03 -1.55179E+03
 -3.97088E+03 -5.57886E+03  3.74960E+03 -7.11103E+03  6.17598E+03 -3.49221E+03  5.16557E+03  6.59422E+02
  3.04980E+03  3.60361E+03  1.42452E+03  3.21101E+03 -1.07289E+03  2.60812E+03  1.57975E+03 -4.74136E+02
  2.95726E+03  5.83327E+01  6.13065E+03  2.79255E+03  4.09771E+03  7.86313E+03 -1.28248E+03  1.11880E+04
 -6.96726E+03  6.98483E+03 -9.86939E+03  1.78785E+03 -8.24156E+03 -2.93452E+03 -4.22840E+03 -5.47061E+03
  1.28141E+03 -5.87745E+03  3.93446E+03 -3.40921E+03  3.60268E+03  3.56665E+03 -8.87350E+02  5.80006E+03
 -5.56426E+03  2.95375E+03 -7.17495E+03 -3.76715E+03 -4.03901E+03 -8.67419E+03  1.23520E+03 -7.92909E+03
  4.95119E+03 -4.88789E+03  5.77289E+03 -8.83392E+02  4.67584E+03  2.04392E+03  8.20335E+02  4.31532E+03
 -3.09857E+03  1.26637E+03 -3.58602E+03 -4.08104E+03  1.36953E+03 -6.06306E+03  7.83813E+03 -5.37462E+03
  9.75752E+03  6.90615E+02  1.02885E+04  6.21776E+03  3.57416E+03  9.71111E+03 -4.27470E+03  9.56847E+03
 -9.57583E+03  4.31018E+03 -8.44192E+03 -1.84939E+03 -5.14929E+03 -6.41375E+03  2.39421E+03 -5.89641E+03
  6.21974E+03 -3.23311E+03  5.68704E+03  3.03215E+03  1.98370E+03  5.48551E+03 -1.16338E+03  5.07390E+03
 -2.99385E+03  3.40459E+03 -2.68812E+03  9.99402E+02 -1.27661E+03  9.23163E+02 -1.30300E+03  2.02452E+03
 -2.99365E+03  4.03028E+03 -6.45015E+03  2.86809E+03 -9.42107E+03  2.15958E+02 -1.05627E+04 -6.90484E+03
 -5.86362E+03 -1.29428E+04  2.03956E+03 -1.47314E+04  9.30449E+03 -1.23857E+04  1.46666E+04 -5.03418E+03
  1.37131E+04  3.19309E+03  8.44653E+03  9.38204E+03  5.98661E+02  1.13285E+04 -3.96601E+03  7.41729E+03
 -6.21924E+03  3.36823E+03 -3.92959E+03 -1.12154E+03 -2.23580E+03 -9.06423E+02 -5.51816E+02 -6.05071E+01
 -2.10325E+03  1.07042E+03 -2.26947E+03 -7.08904E+02 -1.26777E+03 -2.28207E+03  2.21516E+02 -3.65375E+03
  5.11968E+03 -3.41961E+03  5.81433E+03  7.38884E+02  7.68618E+03  5.82483E+03  2.26030E+03  1.02812E+04
 -4.60370E+03  1.17223E+04 -1.06163E+04  7.44079E+03 -1.31948E+04 -1.43658E+03 -9.58963E+03 -7.24846E+03
 -4.15858E+03 -1.07449E+04  2.50017E+03 -9.83002E+03  7.42450E+03 -5.77671E+03  7.28365E+03 -3.66673E+02
  3.83156E+03  3.38389E+03 -1.28141E+03  2.83719E+03 -1.44333E+03 -9.93341E+02  4.63177E+02 -2.42818E+03
  2.60002E+03 -1.35202E+03  4.47688E+03  7.69510E+02  3.48437E+03  4.94638E+03  3.11198E+02  5.85729E+03
 -3.71992E+03  4.95665E+03 -6.56542E+03  5.52640E+02 -6.54391E+03 -5.18668E+03 -1.17366E+03 -7.95196E+03
  5.25560E+03 -7.27342E+03  8.84946E+03 -2.01483E+03  8.10972E+03  1.60696E+03  4.39642E+03  6.07552E+03
  8.70110E+02  6.64131E+03 -3.24518E+03  6.00890E+03 -4.62297E+03  2.70454E+03 -4.08202E+03  2.05590E+02
 -1.97480E+03  2.59109E+02 -1.35662E+03  4.53948E+02 -4.07353E+03  5.31935E+02 -5.54441E+03 -1.54995E+03
 -5.59650E+03 -3.93976E+03 -2.01751E+03 -7.08627E+03  3.42324E+03 -7.92206E+03  6.55858E+03 -3.40948E+03
  7.80842E+03 -1.66762E+02  3.79804E+03  5.02890E+03 -1.22467E+03  6.89658E+03 -5.79093E+03  5.07906E+03
