 $NMID ID='MM_0lb_SNR400_7hz_g55_72.RAW', FMTDAT='(8E13.5)'
 TRAMP=1., VOLUME=1. $END
  3.10245E+05  4.88138E+02  3.38318E+05  2.49835E+05  8.54833E+04  3.39039E+05 -1.32578E+05  2.52610E+05
 -1.91253E+05  8.36419E+04 -1.12707E+05 -3.32667E+04 -8.75333E+02 -5.10606E+04  5.37005E+04 -4.29650E+02
  3.50081E+04  5.29092E+04 -1.68582E+04  7.63426E+04 -6.06827E+04  6.45314E+04 -8.51200E+04  3.19813E+04
 -8.32466E+04 -1.12442E+04 -5.85853E+04 -5.27700E+04 -1.52061E+04 -7.17737E+04  2.81484E+04 -4.65499E+04
  4.32537E+04  4.08390E+03  1.79216E+04  4.78251E+04 -3.48655E+04  4.71792E+04 -6.95451E+04  5.81024E+02
 -5.59637E+04 -5.76882E+04 -7.60812E+03 -7.97565E+04  3.56931E+04 -5.80715E+04  5.04051E+04 -1.83081E+04
  4.69135E+04  1.10334E+04  3.39707E+04  2.76290E+04  1.57559E+04  3.13561E+04 -5.44836E+03  2.85010E+04
 -2.35268E+04  1.15683E+04 -1.74282E+04 -5.92749E+03  7.67345E+03 -6.69853E+03  2.35598E+04  1.33569E+04
  7.23973E+03  3.82259E+04 -3.36580E+04  3.71113E+04 -6.74209E+04  2.23165E+03 -6.04919E+04 -4.59980E+04
 -1.32028E+04 -6.62345E+04  4.18417E+04 -4.96024E+04  6.32343E+04 -2.71545E+03  3.69136E+04  3.60863E+04
 -5.51725E+03  4.10235E+04 -3.18752E+04  2.11722E+04 -3.47491E+04 -3.24269E+03 -2.04270E+04 -1.09313E+04
 -9.65458E+03 -1.56044E+04 -2.43105E+02 -2.11024E+04  9.02817E+03 -2.34202E+04  1.55815E+04 -1.24183E+04
  9.95013E+03  6.47582E+03 -1.11934E+04  1.33961E+04 -2.39135E+04 -7.97636E+03 -8.74471E+03 -3.93212E+04
  2.62383E+04 -4.85534E+04  5.36318E+04 -2.20793E+04  5.03546E+04  2.23393E+04  1.87654E+04  4.83706E+04
 -1.74783E+04  3.74316E+04 -2.91482E+04  3.01839E+03 -1.29317E+04 -3.08674E+04  2.16807E+04 -3.79051E+04
  4.62411E+04 -1.21718E+04  4.32971E+04  2.54045E+04  2.30413E+04  5.30804E+04 -8.93435E+03  5.78219E+04
 -3.65711E+04  4.05001E+04 -4.97005E+04  1.09799E+04 -5.00567E+04 -1.97539E+04 -2.73382E+04 -4.46332E+04
  7.45253E+03 -4.36586E+04  3.57280E+04 -1.82263E+04  3.37794E+04  1.14689E+04  5.76714E+03  2.13917E+04
 -1.40868E+04  1.12599E+04 -1.24498E+04 -8.12651E+03  6.16916E+03 -1.17740E+04  1.87755E+04  4.69126E+03
  1.55395E+04  2.21721E+04 -4.81693E+03  2.80608E+04 -2.37091E+04  1.71580E+04 -3.31640E+04 -1.83823E+03
 -2.71104E+04 -1.93551E+04 -1.30502E+04 -2.69855E+04  4.79632E+03 -2.88989E+04  2.15153E+04 -2.58024E+04
  3.47668E+04 -1.47850E+04  4.10590E+04  5.40675E+03  2.90219E+04  2.55933E+04  4.77316E+03  4.36756E+04
 -2.14264E+04  3.52724E+04 -3.24142E+04  1.34783E+04 -2.28530E+04 -1.02149E+04 -5.30848E+03 -1.24250E+04
  6.56022E+02  2.04852E+02 -8.26403E+03  7.99729E+03 -2.25434E+04  5.44239E+03 -2.13567E+04 -1.14160E+04
 -1.22875E+04 -2.54616E+04  7.04769E+03 -2.98317E+04  2.03897E+04 -2.10855E+04  2.43350E+04 -2.19399E+03
  1.63470E+04  1.73514E+04 -1.29715E+03  2.58536E+04 -1.87432E+04  1.53709E+04 -2.61292E+04 -4.07263E+03
 -1.86429E+04 -2.34270E+04 -2.93284E+03 -3.03821E+04  1.37108E+04 -2.67822E+04  2.59990E+04 -1.37412E+04
  2.37612E+04 -8.79084E+02  1.80804E+04  6.55864E+03  9.78427E+03  6.43198E+02  1.33430E+04 -2.23487E+03
  2.41812E+04  2.46282E+03  2.90984E+04  1.99029E+04  1.99625E+04  4.07471E+04 -2.23639E+03  4.95825E+04
 -2.86698E+04  4.26575E+04 -4.75084E+04  2.25383E+04 -5.01481E+04 -4.58531E+03 -4.10057E+04 -2.96046E+04
 -1.61587E+04 -4.25905E+04  1.60753E+04 -3.70324E+04  3.15661E+04 -1.63164E+04  2.73080E+04  1.02985E+04
  8.66077E+03  2.10871E+04 -1.28820E+04  1.65894E+04 -2.22609E+04  3.06800E+03 -1.69690E+04 -1.46723E+04
 -9.71950E+02 -2.16137E+04  1.21316E+04 -1.61469E+04  1.43819E+04 -2.54044E+03  4.44943E+03  9.23361E+03
 -9.49835E+03  5.10510E+03 -1.06316E+04 -8.25803E+03 -2.94641E+03 -2.07132E+04  1.30648E+04 -2.25729E+04
  2.60279E+04 -1.33933E+04  3.12075E+04  3.92670E+03  2.70860E+04  2.21001E+04  1.18412E+04  3.45000E+04
 -7.20668E+03  3.72509E+04 -2.35242E+04  2.23274E+04 -2.62760E+04  4.52924E+03 -1.82676E+04 -8.26452E+03
 -7.16007E+03 -8.61727E+03 -6.68232E+02  6.09059E+01 -2.97408E+03  3.88028E+03 -8.58169E+03  6.36359E+03
 -1.69047E+04 -8.50622E+02 -1.76513E+04 -1.28502E+04 -7.34407E+03 -2.22461E+04  7.48104E+03 -1.76218E+04
  1.47692E+04 -7.51385E+03  1.06212E+04  4.09351E+03  9.07932E+01  7.83241E+03 -9.31321E+03 -3.02403E+02
 -8.52666E+03 -1.28838E+04 -2.21081E+03 -1.70912E+04  1.07386E+04 -2.01929E+04  2.37896E+04 -1.01799E+04
  2.77421E+04  2.80992E+03  1.97170E+04  1.69251E+04  3.80631E+03  2.22382E+04 -1.18452E+04  1.80532E+04
 -1.35935E+04  5.80166E+03 -7.53538E+03 -4.26619E+03  2.34792E+03 -5.84168E+03  8.98205E+03 -4.69676E+02
  1.02073E+04  8.36986E+03  1.91080E+03  1.49079E+04 -1.08822E+04  1.33087E+04 -1.65950E+04  2.07518E+03
 -1.20420E+04 -1.07087E+04 -4.95242E+00 -1.58110E+04  1.10627E+04 -7.87093E+03  1.19917E+04  4.02483E+03
  2.71292E+03  1.24099E+04 -9.45164E+03  1.37334E+04 -1.67090E+04  5.72389E+03 -1.73226E+04 -6.22770E+03
 -1.02080E+04 -1.92880E+04  4.77553E+03 -2.31409E+04  1.87142E+04 -1.30135E+04  2.08059E+04  4.00049E+03
  1.22552E+04  1.65050E+04 -1.23141E+03  1.84811E+04 -1.37633E+04  1.11794E+04 -1.49994E+04 -1.38698E+03
 -1.13835E+04 -1.21916E+04 -7.98806E+02 -1.45580E+04  6.78873E+03 -1.14495E+04  1.01607E+04 -4.45331E+03
  6.35364E+03  2.20365E+03 -1.65982E+03  1.05663E+03 -1.37843E+03 -4.72905E+03  3.68511E+03 -9.15943E+03
  1.44608E+04 -4.82083E+03  2.03298E+04  2.20702E+03  1.96210E+04  1.41733E+04  1.12853E+04  2.55930E+04
 -6.70431E+03  2.94045E+04 -2.37370E+04  2.28596E+04 -3.23961E+04  4.27972E+03 -2.56677E+04 -1.18923E+04
 -1.28558E+04 -2.07855E+04 -4.99722E+02 -1.95525E+04  5.66343E+03 -1.10658E+04  6.84314E+03 -6.65895E+03
  5.17120E+03 -2.85178E+03  5.28456E+03 -4.42843E+03  6.50751E+03 -4.63080E+03  1.03096E+04 -1.95646E+03
  1.28717E+04  2.93763E+03  7.94084E+03  1.12857E+04 -2.49303E+03  1.48376E+04 -1.52925E+04  1.11703E+04
 -1.81855E+04 -1.25310E+03 -1.20814E+04 -1.30849E+04 -1.21678E+03 -2.02373E+04  1.04348E+04 -2.12904E+04
  2.14760E+04 -1.13934E+04  2.43245E+04  4.12237E+03  1.69230E+04  1.73574E+04  1.77683E+03  2.26580E+04
 -9.90929E+03  1.74144E+04 -1.29607E+04  6.53500E+03 -9.73968E+03 -1.35575E+03 -3.76220E+03 -2.39433E+03
 -1.97764E+03  3.69477E+01 -2.05043E+03  4.24314E+03 -8.20461E+03  3.19576E+03 -1.28560E+04 -2.42436E+03
 -8.66870E+03 -1.22345E+04 -4.49568E+02 -1.92513E+04  1.18936E+04 -1.76919E+04  1.89979E+04 -5.89427E+03
  1.90055E+04  8.68465E+03  9.53623E+03  1.74263E+04 -3.30284E+03  1.94000E+04 -1.30808E+04  1.18896E+04
 -1.94163E+04  5.73694E+02 -1.38169E+04 -1.16506E+04 -1.60671E+03 -1.63389E+04  9.38334E+03 -1.20676E+04
  1.32421E+04 -3.73067E+03  9.13595E+03  3.64712E+03  3.14154E+03  6.37873E+03  1.67216E+03  3.39755E+03
  3.34148E+03  1.37025E+03  5.38487E+03  2.48118E+03  5.94228E+03  7.46324E+03  4.27473E+03  1.13235E+04
 -4.27926E+03  1.52428E+04 -1.39761E+04  1.54657E+04 -2.09781E+04  4.14206E+03 -2.06129E+04 -8.96221E+03
 -9.91722E+03 -2.01438E+04  2.79549E+03 -2.19093E+04  1.27726E+04 -1.43159E+04  1.61316E+04 -2.79293E+03
  1.23891E+04  7.62785E+03  3.60908E+03  1.12101E+04 -4.80188E+03  7.98420E+03 -7.92337E+03 -2.20927E+03
 -4.16513E+03 -9.10680E+03  4.39882E+03 -9.34784E+03  8.46874E+03 -3.98019E+03  8.53088E+03  1.47862E+03
  4.62805E+03  4.62144E+03  2.45182E+03  3.18233E+03 -8.94681E+02  3.66075E+03  1.87809E+03 -7.14512E+02
  3.31650E+03 -1.29450E+03  8.26252E+03  3.03229E+03  4.14103E+03  1.09570E+04 -1.46143E+03  1.59444E+04
 -1.04696E+04  1.06328E+04 -1.32993E+04  3.61295E+03 -1.17752E+04 -4.87811E+03 -5.34238E+03 -8.39329E+03
  1.46712E+03 -7.79806E+03  5.42913E+03 -4.02553E+03  3.73538E+03  3.73365E+03 -2.92213E+03  6.83159E+03
 -8.80046E+03  4.23566E+03 -1.02138E+04 -5.38195E+03 -5.56768E+03 -1.18373E+04  1.68893E+03 -1.20761E+04
  7.48866E+03 -7.42263E+03  8.82527E+03 -8.49832E+02  7.92205E+03  3.55244E+03  6.02742E+02  5.70133E+03
 -3.58192E+03  2.12298E+03 -4.97107E+03 -4.21299E+03  1.76358E+03 -8.97758E+03  1.06497E+04 -7.02403E+03
  1.37104E+04  1.38756E+03  1.29547E+04  9.20552E+03  4.42716E+03  1.38289E+04 -5.55471E+03  1.28785E+04
 -1.04172E+04  5.60069E+03 -1.25817E+04 -1.20789E+03 -6.46271E+03 -9.21329E+03  1.87312E+03 -8.06544E+03
  8.39712E+03 -4.05803E+03  7.79440E+03  3.93580E+03  3.09725E+03  8.37535E+03 -2.92974E+02  7.54434E+03
 -2.83317E+03  4.63431E+03 -3.31472E+03  1.45087E+03 -2.26292E+03  1.82384E+03 -2.45408E+03  2.24453E+03
 -4.07778E+03  5.68467E+03 -8.81006E+03  4.55628E+03 -1.40146E+04  7.54972E+02 -1.61200E+04 -1.00010E+04
 -7.72272E+03 -2.04121E+04  3.61594E+03 -2.19819E+04  1.45719E+04 -1.69409E+04  2.07664E+04 -6.58709E+03
  2.01729E+04  4.45370E+03  1.25218E+04  1.35011E+04  1.07288E+03  1.51341E+04 -5.01341E+03  1.13600E+04
 -8.03423E+03  3.33461E+03 -6.02504E+03 -1.75259E+03 -1.67891E+03 -8.54680E+02 -4.90782E+02  3.54799E+02
 -2.41296E+03  4.06428E+02 -2.84079E+03 -8.22987E+02 -1.38670E+03 -3.74295E+03  6.30621E+01 -4.95889E+03
  6.25749E+03 -5.94948E+03  9.55866E+03  5.03891E+01  1.08461E+04  8.40628E+03  3.04561E+03  1.50036E+04
 -7.68583E+03  1.72462E+04 -1.58407E+04  1.04777E+04 -1.90304E+04 -8.32308E+02 -1.40353E+04 -1.18087E+04
 -5.93750E+03 -1.60652E+04  4.96457E+03 -1.47909E+04  1.07527E+04 -7.35278E+03  1.10214E+04  1.04043E+03
  5.84323E+03  5.52089E+03 -1.16726E+03  3.05530E+03 -3.40924E+03  8.74537E+02 -7.76387E+02 -3.30355E+03
  4.96936E+03 -1.68187E+03  6.25097E+03  1.17195E+03  3.56066E+03  6.16535E+03 -1.57890E+02  8.95260E+03
 -7.00257E+03  7.14346E+03 -1.04840E+04  1.30084E+03 -9.34418E+03 -8.40353E+03 -1.71001E+03 -1.27015E+04
  7.19439E+03 -1.07474E+04  1.30879E+04 -3.27970E+03  1.28287E+04  3.28997E+03  7.70370E+03  9.93022E+03
  1.55806E+03  1.07344E+04 -4.97636E+03  8.78996E+03 -7.62093E+03  4.97635E+03 -5.21031E+03  9.93197E+02
 -3.45619E+03  8.17902E+01 -2.62069E+03  1.72952E+03 -6.07699E+03  1.94841E+03 -9.04808E+03 -1.92076E+03
 -8.60131E+03 -6.29677E+03 -2.33042E+03 -9.76557E+03  5.09460E+03 -1.10109E+04  1.02522E+04 -5.83199E+03
  1.09968E+04  2.22369E+03  6.15723E+03  7.76053E+03 -1.31470E+03  1.09480E+04 -8.61755E+03  7.38479E+03
