 $NMID ID='MM_0lb_SNR400_8hz_g50_21.RAW', FMTDAT='(8E13.5)'
 TRAMP=1., VOLUME=1. $END
  3.09644E+05  4.67512E+02  3.38021E+05  2.50685E+05  8.46868E+04  3.38269E+05 -1.32053E+05  2.53331E+05
 -1.91414E+05  8.47625E+04 -1.12350E+05 -3.26934E+04  3.73017E+01 -5.18871E+04  5.32395E+04 -1.31322E+03
  3.51550E+04  5.32403E+04 -1.58478E+04  7.60407E+04 -6.10055E+04  6.47890E+04 -8.52060E+04  3.18487E+04
 -8.23388E+04 -1.21010E+04 -5.92514E+04 -5.33058E+04 -1.57990E+04 -7.11971E+04  2.82700E+04 -4.74999E+04
  4.12840E+04  3.19674E+03  1.62644E+04  4.93851E+04 -3.46699E+04  4.77135E+04 -6.80459E+04  8.30717E+02
 -5.49659E+04 -5.82382E+04 -7.32250E+03 -7.90182E+04  3.42022E+04 -5.70883E+04  5.01465E+04 -1.81796E+04
  4.58426E+04  1.13879E+04  3.29109E+04  2.71321E+04  1.54043E+04  3.04930E+04 -6.13313E+03  2.86038E+04
 -2.29106E+04  1.16694E+04 -1.82825E+04 -6.21247E+03  7.52985E+03 -8.02383E+03  2.37044E+04  1.39680E+04
  8.02429E+03  3.81881E+04 -3.43882E+04  3.79409E+04 -6.67802E+04  2.00198E+03 -6.01034E+04 -4.48394E+04
 -1.20978E+04 -6.57861E+04  4.19113E+04 -4.77547E+04  6.12928E+04 -2.90678E+03  3.65075E+04  3.44915E+04
 -5.42709E+03  4.03684E+04 -3.18794E+04  1.99518E+04 -3.40402E+04 -3.70944E+03 -1.96236E+04 -1.16058E+04
 -9.70823E+03 -1.47602E+04 -3.71590E+02 -2.03911E+04  8.75802E+03 -2.28734E+04  1.59748E+04 -1.21070E+04
  9.80774E+03  6.52035E+03 -1.02649E+04  1.21862E+04 -2.28695E+04 -5.73042E+03 -8.28910E+03 -3.79891E+04
  2.60452E+04 -4.80941E+04  5.27530E+04 -2.09238E+04  4.94504E+04  2.07663E+04  1.74962E+04  4.81201E+04
 -1.65447E+04  3.56035E+04 -2.69785E+04  2.72306E+03 -1.16481E+04 -2.93072E+04  2.29434E+04 -3.68514E+04
  4.53146E+04 -1.16568E+04  4.19545E+04  2.56198E+04  2.17426E+04  5.21605E+04 -8.09497E+03  5.66490E+04
 -3.68721E+04  3.93219E+04 -4.87522E+04  1.10448E+04 -4.83709E+04 -1.86379E+04 -2.67623E+04 -4.42849E+04
  7.82657E+03 -4.23269E+04  3.56214E+04 -1.81259E+04  3.28353E+04  1.13739E+04  5.47825E+03  2.12137E+04
 -1.39602E+04  1.03358E+04 -1.19643E+04 -7.91909E+03  5.33647E+03 -1.21825E+04  1.91582E+04  5.41802E+03
  1.50493E+04  2.26274E+04 -4.85376E+03  2.73015E+04 -2.34235E+04  1.53173E+04 -3.34270E+04 -2.93256E+03
 -2.61655E+04 -1.86444E+04 -1.19684E+04 -2.61478E+04  4.11372E+03 -2.76048E+04  2.13611E+04 -2.42431E+04
  3.31701E+04 -1.45734E+04  3.85737E+04  5.38056E+03  2.76662E+04  2.52977E+04  4.48371E+03  4.25150E+04
 -2.07563E+04  3.45659E+04 -3.09239E+04  1.23908E+04 -2.27852E+04 -1.09975E+04 -4.82523E+03 -1.27045E+04
 -3.30537E+02 -1.17129E+03 -8.35402E+03  8.84032E+03 -2.22555E+04  5.42481E+03 -2.07468E+04 -1.00336E+04
 -1.19633E+04 -2.43715E+04  6.32623E+03 -2.73292E+04  1.89477E+04 -2.01270E+04  2.32101E+04 -1.17721E+03
  1.47145E+04  1.69458E+04 -1.41193E+03  2.49306E+04 -1.78354E+04  1.36432E+04 -2.52483E+04 -5.17888E+03
 -1.84724E+04 -2.16886E+04 -2.15164E+03 -2.92184E+04  1.24159E+04 -2.42988E+04  2.34265E+04 -1.26844E+04
  2.32891E+04 -2.36319E+02  1.68911E+04  5.20338E+03  9.63310E+03  8.80915E+02  1.34168E+04 -1.83261E+03
  2.29793E+04  2.57866E+03  2.58749E+04  1.93582E+04  1.96145E+04  3.90055E+04 -1.88857E+03  4.69626E+04
 -2.64319E+04  3.91267E+04 -4.42666E+04  2.03822E+04 -4.78854E+04 -3.36565E+03 -3.71030E+04 -2.71633E+04
 -1.43513E+04 -3.83316E+04  1.38730E+04 -3.48639E+04  2.91188E+04 -1.61118E+04  2.54649E+04  8.84432E+03
  8.17264E+03  1.99535E+04 -1.17067E+04  1.65217E+04 -2.03061E+04  2.42623E+03 -1.47954E+04 -1.31834E+04
 -4.20405E+02 -2.04842E+04  1.15507E+04 -1.52556E+04  1.42041E+04 -1.48687E+03  4.24780E+03  8.16749E+03
 -8.84740E+03  3.60211E+03 -1.00137E+04 -6.72483E+03 -1.30862E+03 -1.82847E+04  1.22123E+04 -2.17312E+04
  2.40558E+04 -1.20706E+04  2.76090E+04  2.90236E+03  2.45921E+04  1.91319E+04  1.14867E+04  3.12261E+04
 -6.75739E+03  3.35938E+04 -2.13512E+04  2.08981E+04 -2.42096E+04  3.71104E+03 -1.67703E+04 -6.07962E+03
 -6.32147E+03 -7.62287E+03 -1.89406E+02  1.93543E+02 -3.42062E+03  3.51184E+03 -8.04647E+03  5.30719E+03
 -1.54683E+04 -2.26241E+03 -1.53455E+04 -1.30785E+04 -6.02205E+03 -2.03782E+04  6.81415E+03 -1.67757E+04
  1.35454E+04 -6.36203E+03  9.32982E+03  4.26340E+03 -1.79102E+02  6.46969E+03 -7.40683E+03 -8.96779E+00
 -8.04020E+03 -1.03459E+04 -1.13503E+03 -1.65352E+04  9.92135E+03 -1.79315E+04  2.15871E+04 -7.98921E+03
  2.52671E+04  2.28241E+03  1.82386E+04  1.48369E+04  2.82858E+03  2.02743E+04 -1.01754E+04  1.63053E+04
 -1.41693E+04  5.39187E+03 -6.57105E+03 -4.69534E+03  1.37341E+03 -5.05180E+03  8.62178E+03 -1.43928E+03
  8.33417E+03  7.07543E+03  1.71258E+03  1.33559E+04 -1.00992E+04  1.27695E+04 -1.66406E+04  2.62506E+03
 -1.15386E+04 -8.55814E+03  3.40978E+02 -1.40600E+04  1.05291E+04 -7.36656E+03  1.02520E+04  3.74546E+03
  2.35618E+03  1.03503E+04 -9.26069E+03  1.31954E+04 -1.47970E+04  5.01097E+03 -1.57619E+04 -6.04591E+03
 -9.76887E+03 -1.73258E+04  5.20081E+03 -2.07126E+04  1.70238E+04 -1.14846E+04  1.76784E+04  3.74894E+03
  1.11605E+04  1.33084E+04 -1.77305E+03  1.72397E+04 -1.33914E+04  1.00634E+04 -1.42625E+04 -1.71214E+03
 -1.11939E+04 -1.16506E+04 -2.01123E+03 -1.30782E+04  6.73821E+03 -1.05115E+04  8.66340E+03 -4.14946E+03
  5.12343E+03  2.42626E+03 -4.12850E+02  1.90069E+03 -5.00634E+02 -3.90996E+03  2.12026E+03 -8.48888E+03
  1.27374E+04 -5.62974E+03  1.89957E+04  1.89665E+03  1.71428E+04  1.24709E+04  1.08867E+04  2.38022E+04
 -6.33306E+03  2.56947E+04 -2.14590E+04  1.86401E+04 -2.81257E+04  3.66428E+03 -2.27024E+04 -1.11118E+04
 -1.15589E+04 -1.90237E+04 -1.00316E+02 -1.60306E+04  5.41871E+03 -8.81496E+03  5.57364E+03 -5.90536E+03
  4.38774E+03 -3.00781E+03  4.51393E+03 -4.36373E+03  6.57481E+03 -3.76740E+03  8.95267E+03 -2.17824E+03
  1.11072E+04  3.00581E+03  6.82203E+03  1.02526E+04 -2.59905E+03  1.31293E+04 -1.26145E+04  9.28918E+03
 -1.58671E+04 -1.80059E+03 -1.14852E+04 -1.17279E+04 -1.37121E+03 -1.80909E+04  9.83009E+03 -1.80201E+04
  1.80126E+04 -9.46758E+03  2.09986E+04  3.10566E+03  1.54550E+04  1.54966E+04  1.91234E+03  1.91922E+04
 -9.07654E+03  1.61457E+04 -1.06694E+04  5.76224E+03 -8.30040E+03 -2.23907E+03 -2.81219E+03 -2.29013E+03
 -1.32740E+03 -6.61838E+02 -2.67324E+03  3.65308E+03 -7.71351E+03  2.35597E+03 -1.11244E+04 -1.68333E+03
 -8.43267E+03 -1.08752E+04  3.98361E+02 -1.69258E+04  1.02695E+04 -1.48576E+04  1.73044E+04 -5.54580E+03
  1.64238E+04  7.75233E+03  7.80584E+03  1.50651E+04 -3.32363E+03  1.64877E+04 -1.16087E+04  1.07863E+04
 -1.63384E+04  1.58349E+02 -1.22396E+04 -9.88741E+03 -1.82569E+03 -1.45585E+04  6.62252E+03 -9.82431E+03
  1.09872E+04 -3.12119E+03  8.06236E+03  3.33716E+03  2.76798E+03  5.12538E+03  1.38111E+03  2.93326E+03
  3.67455E+03  5.34447E+02  3.66985E+03  2.05533E+03  5.30916E+03  6.51373E+03  4.84550E+03  8.74363E+03
 -2.95128E+03  1.35249E+04 -1.12567E+04  1.24293E+04 -1.85308E+04  2.64108E+03 -1.77249E+04 -7.63677E+03
 -8.44316E+03 -1.68086E+04  2.18189E+03 -1.85763E+04  1.08069E+04 -1.13533E+04  1.39046E+04 -3.11865E+03
  9.86202E+03  5.41531E+03  2.31186E+03  9.80610E+03 -5.59017E+03  5.58085E+03 -6.81883E+03 -6.28834E+02
 -3.44824E+03 -7.55794E+03  3.90658E+03 -8.65106E+03  7.16256E+03 -3.61786E+03  7.53102E+03  1.67643E+03
  4.43944E+03  3.10301E+03  2.41367E+03  2.98460E+03 -3.10519E+02  2.49912E+03  1.70592E+03 -4.97670E+02
  4.56002E+03 -5.33158E+02  7.32228E+03  2.60490E+03  3.95803E+03  9.19893E+03 -2.01716E+03  1.27810E+04
 -9.41081E+03  8.31258E+03 -1.09688E+04  2.53179E+03 -8.84391E+03 -3.50912E+03 -3.75762E+03 -6.97725E+03
  1.09704E+03 -6.59834E+03  4.55288E+03 -2.72462E+03  3.27564E+03  3.05791E+03 -9.15012E+02  5.25045E+03
 -7.08172E+03  3.33578E+03 -8.35780E+03 -3.56681E+03 -4.42058E+03 -9.46068E+03  2.27608E+03 -9.42503E+03
  5.49394E+03 -5.69964E+03  6.32440E+03 -5.60410E+02  6.25037E+03  2.91102E+03  5.91724E+02  3.92552E+03
 -3.67271E+03  1.62628E+03 -4.78680E+03 -4.07963E+03  2.96035E+03 -7.87224E+03  8.78283E+03 -7.31707E+03
  1.18600E+04  2.93699E+02  1.06982E+04  7.14070E+03  3.28677E+03  1.19879E+04 -4.30900E+03  1.12732E+04
 -9.86870E+03  5.43007E+03 -1.01347E+04 -2.65673E+03 -5.64543E+03 -7.57568E+03  1.95803E+03 -7.24291E+03
  7.36691E+03 -3.40839E+03  5.98081E+03  3.40026E+03  1.55450E+03  6.73772E+03 -9.46134E+02  5.25481E+03
 -2.90735E+03  3.86016E+03 -2.71133E+03  1.13554E+03 -1.25540E+03  8.81867E+02 -1.23533E+03  2.49467E+03
 -2.52894E+03  5.02820E+03 -7.49100E+03  4.28413E+03 -1.11579E+04  1.10158E+02 -1.37933E+04 -7.67669E+03
 -7.09356E+03 -1.58819E+04  3.39940E+03 -1.79417E+04  1.16152E+04 -1.45422E+04  1.66794E+04 -5.39859E+03
  1.60008E+04  3.74888E+03  9.55380E+03  1.10716E+04  9.48524E+02  1.20085E+04 -4.18445E+03  9.49864E+03
 -7.66589E+03  2.98981E+03 -4.67665E+03 -4.19846E-01 -2.01575E+03 -1.11341E+03 -3.10620E+02 -7.48980E+02
 -1.78027E+03  6.79953E+02 -2.27484E+03 -2.18021E+02 -8.23559E+02 -2.78489E+03  6.91555E+01 -4.58721E+03
  5.43179E+03 -4.49381E+03  7.60478E+03 -6.71244E+02  8.71964E+03  6.43421E+03  2.13455E+03  1.27321E+04
 -5.79664E+03  1.33262E+04 -1.33315E+04  8.73770E+03 -1.48725E+04 -1.72268E+03 -1.06521E+04 -9.22278E+03
 -4.67879E+03 -1.36840E+04  3.12988E+03 -1.14335E+04  7.98819E+03 -6.40813E+03  8.60737E+03 -3.99841E+02
  5.02696E+03  4.57941E+03 -3.72219E+02  4.49474E+03 -2.76468E+03 -6.27635E+02  3.42257E+02 -3.49361E+03
  4.66709E+03 -2.38934E+03  5.70237E+03  1.60013E+03  3.41267E+03  4.65897E+03  3.15955E+02  7.13358E+03
 -5.51381E+03  5.80278E+03 -9.09548E+03  3.56238E+02 -6.62380E+03 -5.94240E+03 -1.56406E+03 -1.13606E+04
  6.29753E+03 -9.03053E+03  1.06793E+04 -3.31599E+03  9.63111E+03  2.83425E+03  5.42594E+03  8.58459E+03
  1.45516E+03  7.80473E+03 -3.51543E+03  6.06552E+03 -4.96597E+03  2.97841E+03 -4.75396E+03  3.42800E+02
 -1.71225E+03 -4.62611E+01 -2.41855E+03  6.87939E+02 -4.83058E+03  1.38927E+03 -6.90307E+03 -1.26590E+03
 -7.17479E+03 -5.31068E+03 -1.75656E+03 -8.55358E+03  4.44685E+03 -8.07253E+03  7.89828E+03 -4.77562E+03
  8.58816E+03  3.88603E+02  5.38047E+03  5.91549E+03 -1.46517E+03  8.47372E+03 -6.83712E+03  6.31642E+03
