 $NMID ID='MM_0lb_SNR400_13hz_g40_7.RAW', FMTDAT='(8E13.5)'
 TRAMP=1., VOLUME=1. $END
  3.10288E+05  4.22233E+02  3.37350E+05  2.51127E+05  8.53333E+04  3.37799E+05 -1.31654E+05  2.51120E+05
 -1.90132E+05  8.28301E+04 -1.11703E+05 -3.28212E+04  1.19943E+03 -5.03295E+04  5.37976E+04 -2.53222E+02
  3.55193E+04  5.24901E+04 -1.67792E+04  7.52143E+04 -6.04160E+04  6.30167E+04 -8.39506E+04  3.20971E+04
 -8.11579E+04 -1.12739E+04 -5.70694E+04 -5.13096E+04 -1.46867E+04 -6.98932E+04  2.74986E+04 -4.57229E+04
  3.99905E+04  4.10413E+03  1.55976E+04  4.80744E+04 -3.39808E+04  4.71703E+04 -6.63529E+04 -6.34563E+02
 -5.29281E+04 -5.68855E+04 -6.45608E+03 -7.71575E+04  3.36617E+04 -5.50087E+04  4.81181E+04 -1.68673E+04
  4.30298E+04  1.11238E+04  3.19545E+04  2.57453E+04  1.53736E+04  2.99275E+04 -4.85544E+03  2.74994E+04
 -2.17134E+04  1.19958E+04 -1.83132E+04 -4.73512E+03  5.42269E+03 -7.39072E+03  2.27339E+04  1.22197E+04
  7.48534E+03  3.56166E+04 -3.20898E+04  3.55714E+04 -6.30153E+04  2.43547E+03 -5.68361E+04 -4.30587E+04
 -1.23315E+04 -6.30643E+04  3.95334E+04 -4.59241E+04  5.81784E+04 -2.53227E+03  3.38090E+04  3.27888E+04
 -6.20809E+03  3.62410E+04 -2.94492E+04  1.58631E+04 -3.00340E+04 -4.72832E+03 -1.67508E+04 -1.08682E+04
 -8.13178E+03 -1.29232E+04 -1.09611E+03 -1.86526E+04  7.53314E+03 -2.28333E+04  1.53901E+04 -1.29669E+04
  1.09916E+04  4.80755E+03 -7.67061E+03  1.26109E+04 -2.09814E+04 -4.75784E+03 -8.35620E+03 -3.38782E+04
  2.34589E+04 -4.36028E+04  4.77896E+04 -1.96201E+04  4.52138E+04  1.93954E+04  1.59463E+04  4.39686E+04
 -1.57971E+04  3.34552E+04 -2.51785E+04  2.31866E+03 -9.52858E+03 -2.77318E+04  2.10586E+04 -3.41243E+04
  4.11515E+04 -9.07263E+03  3.48840E+04  2.34766E+04  1.89601E+04  4.67416E+04 -8.84030E+03  5.05201E+04
 -3.25279E+04  3.38925E+04 -4.23500E+04  1.01959E+04 -4.25687E+04 -1.67103E+04 -2.32274E+04 -3.80931E+04
  7.13875E+03 -3.75245E+04  3.17620E+04 -1.48574E+04  2.92854E+04  1.09029E+04  3.72221E+03  1.84934E+04
 -1.30958E+04  8.22824E+03 -1.00079E+04 -7.63471E+03  5.43559E+03 -1.07805E+04  1.77137E+04  5.68863E+03
  1.36133E+04  2.19181E+04 -6.59564E+03  2.55824E+04 -2.22060E+04  1.11288E+04 -2.77914E+04 -4.64382E+03
 -2.09628E+04 -1.76937E+04 -7.87325E+03 -2.07229E+04  3.82365E+03 -1.95226E+04  1.54639E+04 -1.81887E+04
  2.64035E+04 -1.27749E+04  3.29097E+04  2.10072E+03  2.45922E+04  1.93282E+04  4.04657E+03  3.63612E+04
 -1.78179E+04  3.00051E+04 -2.78671E+04  1.04665E+04 -2.12816E+04 -9.57924E+03 -4.75609E+03 -1.37570E+04
  1.61369E+03 -2.90390E+03 -4.60366E+03  6.59302E+03 -1.59770E+04  5.38296E+03 -1.67837E+04 -6.67991E+03
 -1.01103E+04 -1.89883E+04  4.99979E+03 -2.33356E+04  1.58054E+04 -1.67187E+04  1.83313E+04 -1.73754E+03
  1.18518E+04  1.31663E+04 -5.65528E+02  1.93409E+04 -1.22495E+04  1.09202E+04 -1.89624E+04 -3.65742E+03
 -1.38838E+04 -1.66126E+04 -1.53449E+03 -2.23379E+04  1.04949E+04 -1.91719E+04  1.96566E+04 -9.70862E+03
  1.82377E+04  5.14940E+00  1.29859E+04  4.40082E+03  6.79383E+03  7.94596E+02  9.48774E+03 -1.53121E+03
  1.76017E+04  2.62445E+03  1.99190E+04  1.52235E+04  1.29623E+04  3.03546E+04 -3.05460E+03  3.43021E+04
 -1.98903E+04  2.79964E+04 -3.21269E+04  1.32353E+04 -3.36181E+04 -2.00336E+03 -2.79385E+04 -1.90953E+04
 -1.25681E+04 -2.83235E+04  8.90219E+03 -2.51373E+04  2.14263E+04 -1.23867E+04  1.90398E+04  5.59548E+03
  7.27720E+03  1.45948E+04 -9.70870E+03  1.28524E+04 -1.63346E+04  2.28881E+03 -1.27644E+04 -9.54896E+03
  7.46318E+01 -1.48603E+04  7.53959E+03 -1.12455E+04  1.00729E+04 -9.47441E+02  2.26085E+03  6.65632E+03
 -6.63703E+03  2.20374E+03 -6.49992E+03 -5.30981E+03 -3.05298E+02 -1.35931E+04  9.46560E+03 -1.46577E+04
  1.64761E+04 -7.54193E+03  1.83222E+04  3.12453E+03  1.55956E+04  1.35777E+04  7.20843E+03  2.01976E+04
 -3.47503E+03  2.23332E+04 -1.31644E+04  1.42632E+04 -1.61527E+04  3.15946E+03 -1.12542E+04 -3.80705E+03
 -5.01897E+03 -4.95109E+03 -6.25968E+02  9.09858E+02 -3.12796E+03  2.65107E+03 -5.45500E+03  3.53088E+03
 -1.02474E+04 -3.49077E+02 -1.09407E+04 -9.89894E+03 -4.63400E+03 -1.51438E+04  4.61933E+03 -1.22913E+04
  9.87439E+03 -4.62902E+03  6.35770E+03  2.97071E+03 -4.43687E+00  4.67564E+03 -5.41005E+03 -4.03151E+01
 -5.59952E+03 -7.13822E+03 -1.01067E+03 -1.07111E+04  6.46919E+03 -1.17662E+04  1.39491E+04 -5.31134E+03
  1.64764E+04  1.46571E+03  1.25011E+04  9.63331E+03  2.20607E+03  1.28070E+04 -6.76584E+03  1.12103E+04
 -9.48010E+03  3.48772E+03 -4.38639E+03 -2.32659E+03  1.17610E+03 -3.32363E+03  6.15945E+03 -8.66914E+02
  5.30604E+03  5.20161E+03  1.46854E+03  9.00408E+03 -5.97640E+03  8.77998E+03 -1.19139E+04  2.05487E+03
 -7.91205E+03 -5.21865E+03  6.72033E+02 -9.34730E+03  5.46511E+03 -5.03399E+03  5.71595E+03  1.98547E+03
  2.17438E+03  6.45926E+03 -5.74643E+03  7.59672E+03 -7.65426E+03  4.11505E+03 -8.13813E+03 -2.58267E+03
 -4.95785E+03 -9.94216E+03  2.92002E+03 -1.16543E+04  1.00950E+04 -7.32002E+03  1.11798E+04  1.76435E+03
  6.87416E+03  9.21467E+03 -7.77130E+02  1.06982E+04 -7.78494E+03  6.00052E+03 -8.52358E+03 -5.37300E+02
 -7.58582E+03 -7.23552E+03 -8.05740E+02 -8.11711E+03  4.34405E+03 -6.33940E+03  4.80972E+03 -2.92522E+03
  3.94901E+03  1.44148E+03 -7.72911E+02  1.34474E+03  1.47024E+02 -1.23550E+03  1.14759E+03 -4.28305E+03
  7.01751E+03 -2.60752E+03  9.92186E+03  1.01287E+03  1.00889E+04  6.35413E+03  7.13532E+03  1.27932E+04
 -3.03449E+03  1.41057E+04 -1.24470E+04  1.12774E+04 -1.65585E+04  2.03049E+03 -1.30256E+04 -5.25044E+03
 -6.60171E+03 -1.07382E+04  2.22699E+00 -9.05291E+03  3.20376E+03 -4.78162E+03  3.35458E+03 -3.12666E+03
  1.83655E+03 -2.26813E+03  3.50281E+03 -3.14711E+03  4.49750E+03 -1.73350E+03  5.64842E+03 -4.11376E+02
  7.06175E+03  1.31390E+03  2.67710E+03  6.00570E+03 -1.89140E+03  6.49609E+03 -7.36291E+03  4.82187E+03
 -8.53706E+03 -1.48800E+03 -4.51657E+03 -6.24101E+03 -2.10460E+02 -9.19956E+03  5.73112E+03 -9.75965E+03
  9.93158E+03 -5.25120E+03  1.22335E+04  1.00499E+03  8.80902E+03  7.76421E+03  8.24921E+02  1.12017E+04
 -4.21630E+03  9.16835E+03 -5.99360E+03  3.75087E+03 -4.17548E+03 -1.37016E+03 -8.62309E+02 -1.70366E+03
 -8.21882E+02  3.56415E+02 -1.39280E+03  1.90097E+03 -3.35883E+03  1.48435E+03 -6.95500E+03 -5.25581E+02
 -3.59359E+03 -5.97615E+03  4.51790E+02 -8.26482E+03  5.27998E+03 -8.24572E+03  8.16715E+03 -2.22665E+03
  7.90707E+03  4.56978E+03  4.26529E+03  7.24213E+03 -1.28824E+03  8.72230E+03 -5.64678E+03  5.45248E+03
 -7.91764E+03  7.34750E+02 -6.19906E+03 -4.77883E+03 -6.94901E+02 -7.18807E+03  3.64441E+03 -5.22657E+03
  5.02634E+03 -2.07151E+03  3.06842E+03  1.26982E+03  1.43290E+03  3.11650E+03  3.60887E+02  1.40483E+03
  2.45639E+03  1.24830E+03  1.43850E+03  1.55001E+03  2.09784E+03  3.23598E+03  2.16088E+03  3.96290E+03
 -1.54175E+03  6.98177E+03 -5.63360E+03  7.30541E+03 -8.34915E+03  1.99055E+03 -8.75039E+03 -2.82254E+03
 -3.74737E+03 -7.53383E+03  1.44084E+03 -8.97393E+03  4.76887E+03 -5.25132E+03  6.14799E+03 -2.06604E+03
  5.31715E+03  3.10040E+03  1.43175E+03  4.94955E+03 -1.74451E+03  2.70079E+03 -3.04715E+03 -3.10227E+02
 -1.81874E+03 -3.33901E+03  2.08848E+03 -3.41529E+03  2.95097E+03 -1.69886E+03  2.88436E+03  6.83144E+02
  1.72653E+03  1.86931E+03  1.21205E+03  5.26877E+02 -9.60675E+02  7.37846E+02  1.51846E+03 -6.23827E+02
  1.12270E+03 -1.28936E+03  3.56438E+03  1.95110E+03  1.88010E+03  3.99986E+03 -1.23409E+03  5.97554E+03
 -3.60233E+03  3.33913E+03 -4.79295E+03  3.54111E+02 -4.46070E+03 -2.01553E+03 -1.62275E+03 -3.13994E+03
  3.19405E+01 -3.12211E+03  2.32846E+03 -1.81697E+03  2.08329E+03  1.70321E+03 -7.59178E+02  1.82211E+03
 -2.72160E+03  1.76982E+03 -3.40623E+03 -3.13183E+03 -1.44944E+03 -4.18539E+03  7.38097E+02 -4.58126E+03
  2.45447E+03 -2.40786E+03  2.89175E+03 -4.36282E+02  2.69041E+03  5.20826E+02  6.20001E+02  2.21130E+03
 -2.01169E+03  1.37057E+03 -2.28041E+03 -1.23712E+03  1.16979E+03 -3.37977E+03  3.70602E+03 -1.99610E+03
  4.39709E+03  8.66014E+02  5.62011E+03  2.75769E+03  1.81987E+03  4.38404E+03 -1.59824E+03  4.48476E+03
 -3.49829E+03  1.70320E+03 -4.42893E+03 -1.31693E+03 -2.47213E+03 -2.62423E+03  1.38146E+03 -2.24576E+03
  2.74851E+03 -1.29758E+03  2.79589E+03  1.69033E+03  9.97116E+02  3.72639E+03  3.52516E+02  2.24009E+03
 -7.98047E+02  2.02506E+03 -1.06313E+03  5.19975E+02  1.07615E+02  5.21212E+02 -4.74181E+02  4.52027E+02
 -9.58642E+02  2.08735E+03 -3.75272E+03  2.00655E+03 -4.69131E+03  7.38170E+02 -5.57119E+03 -2.77720E+03
 -2.87967E+03 -5.88519E+03  1.45740E+03 -7.57236E+03  4.42551E+03 -5.61933E+03  6.90774E+03 -2.33129E+03
  5.60172E+03  9.29271E+02  3.64699E+03  4.66739E+03 -4.55050E+02  4.82919E+03 -2.62235E+03  3.33446E+03
 -2.63869E+03  1.76715E+03 -1.65592E+03 -1.02927E+03 -4.12325E+02  4.96094E+02 -5.91095E+02  1.75656E+00
 -7.45872E+02  3.92645E+02 -1.18900E+03 -4.34374E+02  2.32833E+02 -8.84792E+02 -4.45558E+01 -2.24162E+03
  1.76136E+03 -2.31460E+03  2.82774E+03 -4.95683E+02  3.19115E+03  2.54724E+03  2.01199E+02  4.08801E+03
 -2.40173E+03  5.47441E+03 -4.50667E+03  3.74011E+03 -5.76281E+03 -3.85360E+02 -4.07572E+03 -2.93992E+03
 -2.51282E+03 -5.01350E+03  9.66011E+02 -3.82689E+03  2.54801E+03 -2.64695E+03  2.29447E+03  6.04052E+02
  2.20941E+03  1.61837E+03  6.64518E+02  7.89394E+02 -6.19758E+02 -1.46712E+02  4.16519E+02 -1.13475E+03
  1.16480E+03 -5.26871E+02  2.23564E+03  8.87736E+02  1.17577E+03  2.04799E+03  1.17325E+02  1.67569E+03
 -1.25069E+03  2.11210E+03 -2.37207E+03  2.88487E+02 -3.10539E+03 -2.10562E+03 -2.80794E+02 -3.54907E+03
  1.28717E+03 -2.87742E+03  3.20918E+03 -9.79677E+02  4.16814E+03  1.54064E+02  1.57736E+03  3.18250E+03
  1.23038E+02  2.94307E+03 -1.09089E+03  2.25103E+03 -1.93192E+03  1.01164E+03 -8.40070E+02  7.32737E+02
 -7.11578E+02  6.31782E+01 -7.24202E+02  1.73478E+02 -1.62679E+03  1.29350E+03 -2.99393E+03 -5.79687E+02
 -2.18711E+03 -1.82129E+03 -5.06130E+02 -2.96803E+03  2.05229E+03 -3.52760E+03  2.54606E+03 -1.40388E+03
  3.06334E+03 -1.88496E+02  1.03330E+03  1.71169E+03 -4.60636E+02  3.00443E+03 -1.81726E+03  2.44494E+03
