 $NMID ID='MM_0lb_SNR400_13hz_g45_1.RAW', FMTDAT='(8E13.5)'
 TRAMP=1., VOLUME=1. $END
  3.10203E+05  3.60129E+02  3.37833E+05  2.50349E+05  8.42761E+04  3.37851E+05 -1.32988E+05  2.51228E+05
 -1.90810E+05  8.31627E+04 -1.11328E+05 -3.27496E+04  1.00268E+03 -5.02675E+04  5.39810E+04 -2.15222E+02
  3.56385E+04  5.28571E+04 -1.67600E+04  7.61501E+04 -6.13286E+04  6.38752E+04 -8.44879E+04  3.21257E+04
 -8.10887E+04 -1.13610E+04 -5.82384E+04 -5.14292E+04 -1.46313E+04 -7.00287E+04  2.76926E+04 -4.55707E+04
  3.98404E+04  3.94299E+03  1.70518E+04  4.80639E+04 -3.45075E+04  4.76221E+04 -6.73315E+04 -2.87372E+02
 -5.32515E+04 -5.66222E+04 -6.30470E+03 -7.72305E+04  3.42571E+04 -5.45096E+04  4.87722E+04 -1.76400E+04
  4.30509E+04  1.06319E+04  3.24716E+04  2.53783E+04  1.60786E+04  2.90379E+04 -5.26490E+03  2.68714E+04
 -2.19322E+04  1.25409E+04 -1.83384E+04 -5.41676E+03  6.32152E+03 -7.95586E+03  2.23343E+04  1.25976E+04
  6.57126E+03  3.52736E+04 -3.27748E+04  3.46740E+04 -6.36433E+04  2.23019E+03 -5.76778E+04 -4.29174E+04
 -1.21725E+04 -6.30395E+04  3.98103E+04 -4.52884E+04  5.78998E+04 -3.24457E+03  3.47631E+04  3.26822E+04
 -5.79790E+03  3.63557E+04 -2.97163E+04  1.59689E+04 -3.03617E+04 -4.50897E+03 -1.71803E+04 -1.12010E+04
 -8.35516E+03 -1.34698E+04 -8.78434E+02 -1.81314E+04  7.98672E+03 -2.33429E+04  1.52906E+04 -1.29473E+04
  1.14796E+04  5.65459E+03 -8.60677E+03  1.18126E+04 -2.10895E+04 -5.03907E+03 -8.60217E+03 -3.42381E+04
  2.31463E+04 -4.37853E+04  4.84949E+04 -1.94742E+04  4.46642E+04  1.92544E+04  1.65391E+04  4.42557E+04
 -1.62094E+04  3.42957E+04 -2.58429E+04  2.24064E+03 -1.02576E+04 -2.75499E+04  2.06142E+04 -3.40420E+04
  4.14494E+04 -9.37761E+03  3.61538E+04  2.42491E+04  1.84839E+04  4.69478E+04 -7.75699E+03  5.12153E+04
 -3.17861E+04  3.45923E+04 -4.22867E+04  9.42658E+03 -4.31251E+04 -1.73452E+04 -2.36549E+04 -3.82919E+04
  6.65410E+03 -3.83321E+04  3.12032E+04 -1.49441E+04  2.94208E+04  1.02289E+04  4.19146E+03  1.93822E+04
 -1.30735E+04  8.72181E+03 -1.00385E+04 -7.75480E+03  5.52412E+03 -1.12046E+04  1.77279E+04  5.76371E+03
  1.28025E+04  2.21803E+04 -5.49543E+03  2.48939E+04 -2.22398E+04  1.10463E+04 -2.80326E+04 -4.35137E+03
 -2.08320E+04 -1.74777E+04 -8.15937E+03 -2.07359E+04  3.98854E+03 -1.99473E+04  1.65065E+04 -1.84853E+04
  2.69293E+04 -1.34653E+04  3.28066E+04  3.09343E+03  2.41830E+04  2.02375E+04  4.45179E+03  3.69996E+04
 -1.76550E+04  3.05988E+04 -2.82424E+04  1.06061E+04 -2.06943E+04 -1.00884E+04 -3.78956E+03 -1.35917E+04
  1.40796E+03 -2.99001E+03 -5.53746E+03  6.71622E+03 -1.64316E+04  4.81114E+03 -1.69609E+04 -7.15217E+03
 -9.93397E+03 -1.90966E+04  5.18593E+03 -2.31922E+04  1.58986E+04 -1.73463E+04  1.82163E+04 -1.59097E+03
  1.16208E+04  1.34816E+04 -1.03795E+03  1.92911E+04 -1.34892E+04  1.12147E+04 -1.94281E+04 -4.28667E+03
 -1.44107E+04 -1.78019E+04 -2.16812E+03 -2.36747E+04  1.01825E+04 -1.84858E+04  1.95171E+04 -9.96553E+03
  1.81451E+04  3.35645E+02  1.29675E+04  4.86876E+03  7.56939E+03  8.26973E+02  9.51937E+03 -1.50928E+03
  1.82574E+04  3.31187E+03  2.00492E+04  1.57267E+04  1.39061E+04  3.10463E+04 -2.63247E+03  3.54595E+04
 -2.11757E+04  2.80855E+04 -3.28025E+04  1.43319E+04 -3.48506E+04 -2.68913E+03 -2.80527E+04 -2.03110E+04
 -1.13018E+04 -2.87582E+04  9.76237E+03 -2.57201E+04  2.25696E+04 -1.25429E+04  1.96286E+04  6.83443E+03
  6.82784E+03  1.50248E+04 -1.01998E+04  1.31508E+04 -1.69714E+04  2.57033E+03 -1.24645E+04 -1.06322E+04
  1.22731E+02 -1.54333E+04  8.08224E+03 -1.21308E+04  1.04013E+04 -1.55081E+03  2.34316E+03  6.54086E+03
 -6.96433E+03  3.19723E+03 -6.44359E+03 -5.71098E+03  2.87829E+02 -1.42154E+04  1.00457E+04 -1.50070E+04
  1.68519E+04 -8.03530E+03  1.84529E+04  2.76389E+03  1.64889E+04  1.38427E+04  8.17478E+03  2.16831E+04
 -3.50816E+03  2.35481E+04 -1.48065E+04  1.47828E+04 -1.60118E+04  3.88894E+03 -1.17223E+04 -3.81223E+03
 -5.95574E+03 -4.81806E+03 -4.89592E+02  2.50559E+02 -2.37690E+03  2.54856E+03 -5.63538E+03  4.16054E+03
 -1.08916E+04 -8.80699E+02 -1.06734E+04 -9.71210E+03 -4.88820E+03 -1.55853E+04  4.16202E+03 -1.16390E+04
  9.47409E+03 -4.75270E+03  6.68337E+03  2.77368E+03  2.32003E+02  4.23465E+03 -5.32759E+03 -6.64645E+02
 -5.64439E+03 -7.25010E+03 -1.27686E+03 -1.09373E+04  6.28997E+03 -1.23205E+04  1.47556E+04 -6.55655E+03
  1.73276E+04  1.49634E+03  1.29633E+04  1.03636E+04  3.04445E+03  1.33193E+04 -6.85907E+03  1.20901E+04
 -1.05387E+04  3.53613E+03 -4.67619E+03 -2.44605E+03  1.77049E+03 -3.16929E+03  6.00418E+03 -1.64685E+02
  5.63908E+03  5.71286E+03  1.24429E+03  9.51274E+03 -6.69445E+03  8.93848E+03 -1.12673E+04  2.16591E+03
 -7.19533E+03 -5.99891E+03  1.03927E+03 -9.82321E+03  6.23810E+03 -4.30851E+03  6.77122E+03  2.23281E+03
  1.38923E+03  6.14550E+03 -5.92755E+03  7.53580E+03 -8.67025E+03  4.17418E+03 -9.19715E+03 -3.17725E+03
 -5.76384E+03 -1.01396E+04  2.18300E+03 -1.18442E+04  1.03871E+04 -7.97016E+03  1.12526E+04  2.47415E+03
  6.86332E+03  9.44352E+03 -4.09988E+02  1.18282E+04 -8.59045E+03  5.49721E+03 -7.84612E+03 -6.63552E+02
 -8.09334E+03 -7.83636E+03 -2.07623E+03 -8.91721E+03  4.31575E+03 -6.59895E+03  5.26118E+03 -3.39126E+03
  3.80673E+03  8.38718E+02 -3.48027E+02  1.23621E+03  7.83978E+01 -1.42752E+03  1.32553E+03 -4.54005E+03
  7.97437E+03 -2.39361E+03  1.01735E+04  1.13395E+03  1.00819E+04  6.38734E+03  7.38602E+03  1.39114E+04
 -3.59548E+03  1.57347E+04 -1.33672E+04  1.15270E+04 -1.66507E+04  2.75092E+03 -1.38582E+04 -5.24855E+03
 -6.59685E+03 -1.16546E+04 -6.58380E+02 -9.59846E+03  3.42219E+03 -5.04489E+03  3.56145E+03 -2.93518E+03
  2.49229E+03 -2.39497E+03  2.69257E+03 -2.61546E+03  4.23990E+03 -1.85308E+03  5.78681E+03 -5.20244E+02
  7.56997E+03  2.20205E+03  3.22967E+03  5.80101E+03 -1.34028E+03  6.57590E+03 -6.85353E+03  5.32960E+03
 -8.76265E+03 -1.41627E+03 -5.28572E+03 -5.89750E+03 -1.04522E+03 -9.82560E+03  5.55867E+03 -1.03582E+04
  1.08908E+04 -5.74281E+03  1.17468E+04  1.11659E+03  9.35416E+03  8.08104E+03  2.19116E+03  1.14982E+04
 -3.63497E+03  9.95004E+03 -5.61799E+03  3.31362E+03 -4.63218E+03 -1.65614E+03 -1.23895E+03 -1.54765E+03
 -4.60704E+02 -1.09893E+02 -1.75010E+03  2.11540E+03 -4.27052E+03  1.31362E+03 -6.49976E+03  2.59784E+01
 -4.49914E+03 -6.97018E+03  8.81017E+02 -8.79773E+03  5.72889E+03 -7.90834E+03  8.06076E+03 -3.13633E+03
  8.66720E+03  4.26322E+03  3.70522E+03  7.59016E+03 -1.75982E+03  8.52354E+03 -6.10688E+03  5.07639E+03
 -8.07628E+03  5.85876E+02 -6.35452E+03 -5.16677E+03 -3.28573E+02 -7.05451E+03  3.66290E+03 -5.43941E+03
  5.63278E+03 -1.57702E+03  3.33700E+03  1.17987E+03  1.44849E+03  2.80737E+03  8.90048E+02  1.17156E+03
  1.87799E+03  3.94063E+02  2.62239E+03  1.48285E+03  2.16411E+03  4.05715E+03  1.55221E+03  3.97836E+03
 -1.76539E+03  7.08854E+03 -5.21248E+03  7.68458E+03 -8.35693E+03  2.03246E+03 -8.93091E+03 -3.51451E+03
 -4.04130E+03 -8.17114E+03  1.93355E+03 -9.68476E+03  4.88058E+03 -6.21084E+03  6.63725E+03 -1.55484E+03
  5.65852E+03  3.42115E+03  1.07944E+03  4.78918E+03 -1.99777E+03  3.23916E+03 -2.87465E+03 -8.06761E+02
 -1.44619E+03 -3.35972E+03  1.95854E+03 -3.19359E+03  3.41084E+03 -1.35257E+03  3.09630E+03  8.17497E+02
  2.41030E+03  5.61741E+02  8.43612E+02  1.09258E+03 -5.60998E+02  1.13179E+03  1.71289E+03 -1.72342E+01
  8.65514E+02  7.51641E+01  3.28322E+03  9.46547E+02  1.97993E+03  5.01809E+03 -9.21110E+01  6.18669E+03
 -4.17605E+03  3.77502E+03 -4.79559E+03  7.49924E+02 -4.26649E+03 -1.53048E+03 -2.35304E+03 -2.51393E+03
  1.14735E+02 -2.92957E+03  2.54858E+03 -1.19460E+03  2.20218E+03  1.78337E+03 -9.79504E+02  2.39279E+03
 -3.51990E+03  1.51708E+03 -3.49258E+03 -1.67921E+03 -2.09602E+03 -4.40747E+03  1.71305E+02 -3.76372E+03
  2.66175E+03 -2.10308E+03  3.28669E+03  4.37493E+01  2.93611E+03  1.03033E+03  9.49571E+02  3.26169E+03
 -2.04122E+03  3.77432E+02 -1.62426E+03 -1.34311E+03  1.13532E+03 -2.53477E+03  4.18907E+03 -2.50705E+03
  4.25693E+03  5.26947E+02  5.45103E+03  2.67225E+03  1.90646E+03  5.34390E+03 -1.70888E+03  5.02263E+03
 -3.93278E+03  1.83379E+03 -4.03079E+03 -5.51392E+02 -2.08173E+03 -2.68987E+03  1.38630E+03 -2.72037E+03
  3.52217E+03 -1.30874E+03  1.88088E+03  2.17327E+03  1.32621E+03  3.24740E+03 -4.11588E+02  2.41686E+03
 -1.08466E+03  1.94627E+03 -2.12846E+03  4.21201E+02 -2.04370E+02  4.77214E+02 -1.40007E+03  1.10504E+03
 -1.49594E+03  2.13064E+03 -3.87478E+03  1.19905E+03 -4.94147E+03 -5.69676E+01 -5.91146E+03 -3.01068E+03
 -3.58740E+03 -6.45019E+03  1.05075E+03 -7.11691E+03  4.74826E+03 -5.76987E+03  7.08021E+03 -2.58328E+03
  6.23392E+03  5.46101E+02  4.15995E+03  4.42949E+03 -4.21380E+02  4.32209E+03 -1.35592E+03  3.42483E+03
 -3.04225E+03  9.21330E+02 -1.34812E+03 -7.09099E+02 -6.40271E+02  3.04673E+01  2.89851E+01 -6.00711E+02
 -1.61470E+03 -5.57111E+01 -1.41455E+03  1.55731E+02 -3.96937E+02 -1.23290E+03 -8.53390E+02 -2.08738E+03
  2.90235E+03 -1.90253E+03  2.22754E+03 -1.50154E+02  3.32453E+03  2.25389E+03  8.20139E+02  4.24665E+03
 -2.47708E+03  5.33710E+03 -4.88516E+03  3.75890E+03 -5.97418E+03  2.45546E+02 -3.94519E+03 -3.25353E+03
 -1.40537E+03 -4.49863E+03  1.36265E+03 -4.30488E+03  2.51301E+03 -2.28733E+03  2.70512E+03 -2.02821E+02
  2.21495E+03  1.68548E+03 -2.98624E+02  1.22898E+03 -1.20192E+03 -1.81183E+02 -1.73624E+02 -9.31614E+02
  1.04933E+03 -4.20842E+02  1.05026E+03  5.96423E+02  1.15845E+03  1.47076E+03  9.17373E+00  2.36582E+03
 -2.31334E+03  2.33065E+03 -3.20209E+03  7.63371E+02 -2.63309E+03 -1.93767E+03 -6.76637E+02 -3.78437E+03
  2.56639E+03 -2.57613E+03  2.81610E+03 -8.52933E+02  3.40577E+03  3.09506E+02  1.81924E+03  2.39006E+03
  9.69412E+01  2.64453E+03 -9.26154E+02  1.91387E+03 -1.93127E+03  1.74542E+03 -1.28420E+03  3.13502E+02
 -1.11799E+03 -5.94272E+01 -1.11480E+03  8.09270E+02 -1.91089E+03 -1.85801E+02 -2.30880E+03  4.60801E+01
 -2.89034E+03 -1.20625E+03 -6.54180E+02 -2.17317E+03  1.38303E+03 -4.05593E+03  3.00477E+03 -1.45606E+03
  3.75940E+03  2.57707E+02  1.17981E+03  1.79522E+03 -6.54535E+01  3.17291E+03 -2.40436E+03  2.29160E+03
