 $NMID ID='MM_0lb_SNR400_18hz_g55_2.RAW', FMTDAT='(8E13.5)'
 TRAMP=1., VOLUME=1. $END
  3.10027E+05  1.56456E+02  3.37958E+05  2.50509E+05  8.46836E+04  3.37773E+05 -1.32390E+05  2.51083E+05
 -1.89961E+05  8.32900E+04 -1.11680E+05 -3.26444E+04  1.03351E+03 -5.04323E+04  5.40897E+04  1.38925E+02
  3.54285E+04  5.23125E+04 -1.68228E+04  7.52751E+04 -6.08389E+04  6.29168E+04 -8.38389E+04  3.18966E+04
 -8.01231E+04 -1.15800E+04 -5.68902E+04 -5.06420E+04 -1.49214E+04 -6.84401E+04  2.67501E+04 -4.51227E+04
  3.96806E+04  3.42916E+03  1.61912E+04  4.76403E+04 -3.38046E+04  4.69503E+04 -6.58474E+04 -5.17667E+02
 -5.26622E+04 -5.63307E+04 -6.83706E+03 -7.62109E+04  3.33109E+04 -5.33400E+04  4.64017E+04 -1.63731E+04
  4.27147E+04  1.11367E+04  3.06456E+04  2.43303E+04  1.55852E+04  2.86030E+04 -5.15233E+03  2.68162E+04
 -2.20001E+04  1.25571E+04 -1.90880E+04 -5.02246E+03  4.89703E+03 -7.42132E+03  2.17391E+04  1.20130E+04
  6.99000E+03  3.38892E+04 -3.11115E+04  3.40169E+04 -6.21478E+04  1.81429E+03 -5.63643E+04 -4.22918E+04
 -1.22997E+04 -6.16300E+04  3.86960E+04 -4.46261E+04  5.68094E+04 -1.49037E+03  3.27641E+04  3.14446E+04
 -6.52524E+03  3.41451E+04 -2.91649E+04  1.41731E+04 -2.87777E+04 -5.16667E+03 -1.56880E+04 -1.06403E+04
 -7.05393E+03 -1.25700E+04 -6.23814E+02 -1.75822E+04  7.01408E+03 -2.28422E+04  1.52060E+04 -1.38973E+04
  1.20919E+04  4.49795E+03 -6.92601E+03  1.31246E+04 -2.03643E+04 -3.20823E+03 -8.10828E+03 -3.21349E+04
  2.18490E+04 -4.20037E+04  4.60337E+04 -1.88846E+04  4.30318E+04  1.86658E+04  1.50240E+04  4.28069E+04
 -1.56514E+04  3.20370E+04 -2.42687E+04  1.18496E+03 -9.29791E+03 -2.71260E+04  2.04667E+04 -3.20973E+04
  3.93776E+04 -8.32201E+03  3.24104E+04  2.29170E+04  1.65763E+04  4.37288E+04 -7.34366E+03  4.74117E+04
 -2.97945E+04  3.13926E+04 -3.90309E+04  8.90966E+03 -4.02806E+04 -1.60986E+04 -2.19481E+04 -3.54711E+04
  6.96385E+03 -3.59527E+04  2.98514E+04 -1.33165E+04  2.83657E+04  1.01455E+04  3.56023E+03  1.87919E+04
 -1.31248E+04  8.31917E+03 -1.04336E+04 -7.12162E+03  5.84392E+03 -9.89804E+03  1.73290E+04  5.64797E+03
  1.34653E+04  2.12873E+04 -6.52243E+03  2.37560E+04 -2.15264E+04  9.95846E+03 -2.63430E+04 -5.45864E+03
 -1.81347E+04 -1.65753E+04 -6.54180E+03 -1.79711E+04  3.96485E+03 -1.62205E+04  1.35635E+04 -1.61039E+04
  2.31156E+04 -1.26608E+04  2.95114E+04  1.14035E+03  2.17010E+04  1.77301E+04  4.40993E+03  3.40616E+04
 -1.63968E+04  2.88261E+04 -2.60908E+04  1.04386E+04 -1.96416E+04 -1.03901E+04 -4.20101E+03 -1.36276E+04
  2.49907E+03 -3.52475E+03 -2.80053E+03  5.63867E+03 -1.39581E+04  5.55101E+03 -1.46308E+04 -5.62596E+03
 -8.54912E+03 -1.69862E+04  4.54792E+03 -2.10957E+04  1.34718E+04 -1.49790E+04  1.59414E+04 -2.08948E+03
  9.31657E+03  1.13495E+04 -1.17662E+03  1.65217E+04 -1.13969E+04  9.70942E+03 -1.65932E+04 -3.81902E+03
 -1.22097E+04 -1.49587E+04 -1.43361E+03 -2.09485E+04  9.27146E+03 -1.69412E+04  1.68641E+04 -8.24329E+03
  1.49123E+04  5.24670E+01  1.12264E+04  4.28106E+03  6.14829E+03  6.94371E+02  8.34060E+03 -1.28690E+03
  1.50371E+04  2.23745E+03  1.62197E+04  1.33695E+04  1.05316E+04  2.60293E+04 -3.05936E+03  2.87766E+04
 -1.65135E+04  2.21497E+04 -2.65781E+04  1.05065E+04 -2.78632E+04 -2.03103E+03 -2.32033E+04 -1.57870E+04
 -1.09649E+04 -2.24047E+04  7.36072E+03 -2.10589E+04  1.82293E+04 -1.13586E+04  1.67444E+04  4.51895E+03
  7.08273E+03  1.20874E+04 -6.97017E+03  1.11344E+04 -1.40358E+04  2.63642E+03 -1.14797E+04 -7.92825E+03
 -2.57669E+02 -1.27900E+04  6.87326E+03 -9.79591E+03  8.01186E+03 -1.70006E+03  2.25044E+03  5.55841E+03
 -5.54029E+03  1.51697E+03 -4.42503E+03 -4.71794E+03  2.91996E+02 -1.11303E+04  8.40655E+03 -1.08676E+04
  1.27351E+04 -5.38493E+03  1.34702E+04  3.01784E+03  1.15680E+04  1.03185E+04  5.82681E+03  1.60830E+04
 -2.30003E+03  1.77282E+04 -1.09647E+04  1.11493E+04 -1.22964E+04  3.36919E+03 -9.54902E+03 -2.32516E+03
 -4.72426E+03 -3.76664E+03 -9.28457E+02  1.43460E+03 -1.91094E+03  2.17082E+03 -4.35834E+03  3.50506E+03
 -9.07684E+03 -9.95863E+01 -9.61714E+03 -7.60992E+03 -4.28780E+03 -1.22385E+04  3.84276E+03 -9.44859E+03
  7.83781E+03 -3.85385E+03  5.61132E+03  1.88558E+03  8.34463E+02  3.86385E+03 -3.94024E+03 -4.90407E+01
 -3.74330E+03 -5.68900E+03 -1.32346E+03 -8.17970E+03  4.47283E+03 -8.79382E+03  1.15672E+04 -4.53169E+03
  1.27288E+04  6.16549E+02  9.27766E+03  6.37147E+03  2.14978E+03  9.42457E+03 -5.37793E+03  8.96308E+03
 -7.57675E+03  2.82865E+03 -3.42899E+03 -1.04189E+03  1.66217E+03 -2.54012E+03  5.08514E+03 -1.57664E+03
  4.80376E+03  3.88113E+03  9.00056E+02  7.32612E+03 -5.06926E+03  6.55229E+03 -8.45339E+03  2.12086E+03
 -5.23246E+03 -4.63704E+03  1.75177E+02 -7.27907E+03  3.62924E+03 -3.65684E+03  4.35757E+03  1.51376E+03
  3.80988E+02  3.91029E+03 -4.24504E+03  4.93061E+03 -5.39023E+03  2.95164E+03 -4.80167E+03 -1.40092E+03
 -2.93529E+03 -6.68521E+03  1.54405E+03 -7.45468E+03  6.66979E+03 -5.27008E+03  7.45120E+03  1.18298E+03
  5.31051E+03  6.10760E+03  2.85249E+02  8.07366E+03 -5.52415E+03  4.56384E+03 -6.02226E+03 -7.47479E+02
 -6.11603E+03 -5.61807E+03 -1.19316E+03 -5.03246E+03  2.61771E+03 -4.91982E+03  3.11915E+03 -3.14295E+03
  3.60925E+03  5.80367E+02  2.88738E+02  1.01872E+03  3.28884E+02 -5.10741E+02  1.99257E+02 -1.87332E+03
  4.01676E+03 -1.21494E+03  6.29400E+03  6.61946E+02  6.34509E+03  3.73717E+03  4.88579E+03  8.59705E+03
 -1.56464E+03  9.32983E+03 -8.46968E+03  7.31479E+03 -1.09102E+04  1.27890E+03 -8.68148E+03 -3.26989E+03
 -4.83175E+03 -6.83584E+03 -7.11071E+02 -5.87044E+03  2.26819E+03 -2.61609E+03  2.35686E+03 -2.40565E+03
  1.74223E+03 -1.52178E+03  2.72569E+03 -2.63742E+03  3.53781E+03 -1.14835E+03  4.26500E+03  6.15928E+02
  5.04435E+03  1.23069E+03  6.34694E+02  3.31114E+03 -1.77784E+03  3.79699E+03 -5.09025E+03  3.46993E+03
 -5.74807E+03 -9.64545E+02 -1.74592E+03 -3.52555E+03  4.52348E+02 -5.63928E+03  3.51538E+03 -5.94625E+03
  5.69779E+03 -4.20067E+03  7.73446E+03  7.60986E+02  5.13714E+03  4.78344E+03  1.79856E+03  6.58629E+03
 -2.84675E+03  6.50029E+03 -3.70907E+03  2.28555E+03 -1.71427E+03 -9.44661E+02 -2.54696E+02 -8.47025E+02
 -5.32850E+02  6.61379E+02 -1.16961E+03  1.61270E+03 -2.32046E+03  1.23004E+03 -4.72137E+03 -1.86491E+02
 -1.57369E+03 -4.07873E+03  4.72526E+02 -5.11180E+03  2.67910E+03 -5.07862E+03  4.24453E+03 -1.20494E+03
  3.97026E+03  3.06244E+03  2.31465E+03  3.58127E+03 -5.33694E+02  4.87912E+03 -2.55191E+03  3.29382E+03
 -4.15036E+03  1.15862E+03 -3.71206E+03 -2.67569E+03 -5.53385E+02 -3.83036E+03  1.93645E+03 -2.88374E+03
  3.06233E+03 -1.45243E+03  1.46110E+03  5.56641E+02  5.91058E+02  1.30324E+03  1.11726E+03  9.20325E+02
  2.27338E+03  3.80726E+02  1.65502E+03  4.61097E+02  7.93596E+02  2.46334E+03  1.64643E+03  1.85320E+03
 -6.91725E+02  3.45996E+03 -2.92778E+03  4.28666E+03 -2.66028E+03  1.28630E+03 -4.35228E+03 -5.88845E+02
 -1.92065E+03 -4.12207E+03  9.49709E+02 -5.05285E+03  2.07637E+03 -2.69013E+03  3.53270E+03 -1.08533E+03
  3.15721E+03  2.10589E+03 -3.07181E+01  2.60045E+03 -6.94962E+02  1.43689E+03 -1.71769E+03 -1.69087E+02
 -4.03834E+02 -1.14020E+03  1.56443E+03 -1.62146E+03  1.32988E+03 -7.14708E+02  1.49806E+03  6.86835E+02
  1.01476E+03  1.97736E+02  8.65560E+02 -1.62087E+02 -9.99673E+01  1.18369E+03  1.75679E+03 -7.04979E+02
 -6.05539E+02 -1.75768E+02  2.10279E+03  7.96857E+02  1.56033E+02  2.73833E+03 -5.46813E+02  3.25449E+03
 -2.11513E+03  1.08799E+03 -1.87732E+03  3.50104E+01 -1.96562E+03 -2.17454E+02 -1.76018E+02 -1.04931E+03
  1.96228E+02 -1.27538E+03  1.39284E+03 -9.07646E+02  8.17297E+02  1.33414E+03 -4.15743E+02  1.19451E+03
 -1.31081E+03  1.72211E+02 -1.13806E+03 -1.04477E+03 -7.30787E+02 -2.17617E+03 -1.48829E+02 -1.95140E+03
  5.22349E+02 -6.49658E+02  8.68923E+02  3.60873E+02  1.57456E+03  2.62073E+02  5.86661E+02  6.88228E+02
 -9.17459E+01  2.09947E+02 -9.62107E+02 -2.21780E+02  2.33816E+02 -1.24717E+03  1.74327E+03 -1.09833E+03
  1.65478E+03  4.65512E+02  3.03805E+03  6.69150E+02  1.17348E+03  1.62010E+03 -4.88068E+02  2.18305E+03
 -1.53701E+03  4.45886E+02 -1.60600E+03 -2.36092E+02 -4.45124E+02 -1.74594E+03  6.58167E+02 -8.15772E+02
  1.04325E+03 -3.32540E+02  5.42486E+02  7.43535E+02  3.12808E+02  2.01303E+03  1.04148E+03  1.25098E+03
 -4.94168E+02  8.95255E+02 -5.45960E+02 -2.42990E+02 -5.98970E+02  4.63420E+02 -8.08271E+02  1.00093E+03
 -3.77815E+02  9.60515E+02 -2.01398E+03  4.49404E+02 -2.38081E+03 -4.37357E+02 -2.30761E+03 -9.74850E+02
 -1.22365E+03 -2.56464E+03  4.32131E+02 -3.15626E+03  1.01959E+03 -2.50222E+03  2.67378E+03 -1.39716E+03
  2.64656E+03  1.93274E+02  1.52132E+03  1.75909E+03 -3.13322E+02  2.02014E+03 -8.18283E+02  1.33160E+03
 -8.07963E+02  1.29397E+03 -9.10000E+02  3.38461E+01 -3.18994E+02 -1.62032E+01 -6.72192E+02  4.03105E+02
 -1.19203E+03 -4.39485E+01 -7.11383E+02 -3.45040E+02 -7.96926E+01 -5.89176E+02 -8.53378E+02 -9.14601E+02
  1.06376E+03 -3.02378E+02  3.51601E+02 -7.60298E+02  1.32194E+03  1.00577E+03 -5.97552E+02  1.96113E+03
 -1.26494E+03  2.24137E+03 -1.07955E+03  1.38440E+03 -1.77566E+03 -2.97995E+02 -1.36748E+03 -8.16446E+02
 -7.98075E+02 -1.23921E+03  4.71158E+02 -1.44834E+03  5.30303E+02 -6.35402E+02  3.61156E+02  9.15141E+01
  4.62936E+02  8.98333E+01  1.95156E+02  6.10433E+02 -2.64900E+02 -1.98661E+02 -2.10468E+02 -3.78994E+02
  3.45275E+02  5.07006E+01  3.71519E+02  5.60456E+02  5.84278E+02  4.42157E+02  5.40054E+02  2.65424E+02
 -7.05240E+02  5.40236E+02 -7.87185E+02  5.41905E+02 -4.19140E+02 -9.02949E+02  2.72040E+01 -1.54367E+03
  7.42310E+02 -4.53609E+02  7.66642E+02  4.34183E+02  1.20517E+03 -4.65285E+02  3.01722E+02  9.02277E+02
  5.20370E+01  1.06350E+03  1.72707E+02  8.32991E+02 -1.06727E+03  7.29599E+02 -7.19477E+02 -2.84522E+02
 -5.04782E+01 -1.24088E+02 -6.28143E+02 -3.42272E+02 -8.80732E+02  1.82494E+02 -8.75263E+02 -7.79533E+01
 -1.38107E+03  2.87896E+02 -8.82281E+02 -9.60612E+02  6.02570E+01 -1.79659E+03  5.34368E+02 -4.47443E+02
  9.81251E+02 -4.94698E+01 -3.25336E+02  2.14345E+02 -2.82518E+02  3.60347E+02 -6.60010E+02  5.45292E+02
