 $NMID ID='MM_0lb_SNR400_8hz_g55_5.RAW', FMTDAT='(8E13.5)'
 TRAMP=1., VOLUME=1. $END
  3.10002E+05  6.33565E+02  3.37862E+05  2.49762E+05  8.48587E+04  3.38284E+05 -1.32961E+05  2.51948E+05
 -1.90965E+05  8.44453E+04 -1.12837E+05 -3.28925E+04  4.59660E+02 -5.10551E+04  5.35313E+04 -7.19622E+02
  3.51159E+04  5.27030E+04 -1.61015E+04  7.63598E+04 -6.18950E+04  6.50256E+04 -8.55714E+04  3.26574E+04
 -8.27533E+04 -1.23303E+04 -5.94516E+04 -5.22437E+04 -1.55309E+04 -7.10667E+04  2.87696E+04 -4.64088E+04
  4.12365E+04  3.73249E+03  1.66861E+04  4.94965E+04 -3.47785E+04  4.84311E+04 -6.91011E+04 -4.60879E+02
 -5.61792E+04 -5.82936E+04 -7.78502E+03 -7.84057E+04  3.62990E+04 -5.73761E+04  4.97736E+04 -1.85987E+04
  4.63810E+04  1.17460E+04  3.34341E+04  2.63623E+04  1.61876E+04  3.13899E+04 -6.10996E+03  2.81649E+04
 -2.41996E+04  1.16767E+04 -1.76219E+04 -5.26560E+03  7.52271E+03 -7.66160E+03  2.41031E+04  1.45024E+04
  7.23874E+03  3.76370E+04 -3.39057E+04  3.76750E+04 -6.74572E+04  1.87934E+03 -5.92115E+04 -4.54387E+04
 -1.31876E+04 -6.74145E+04  4.19584E+04 -4.71850E+04  6.24100E+04 -1.62542E+03  3.66812E+04  3.50860E+04
 -4.67041E+03  4.04054E+04 -3.21060E+04  1.96410E+04 -3.49670E+04 -3.57918E+03 -1.96246E+04 -1.17163E+04
 -9.74680E+03 -1.58815E+04 -7.48639E+02 -2.06243E+04  9.98241E+03 -2.40164E+04  1.56971E+04 -1.32331E+04
  9.94928E+03  6.09563E+03 -1.10226E+04  1.33697E+04 -2.46694E+04 -7.01974E+03 -8.13566E+03 -3.87471E+04
  2.62306E+04 -4.75366E+04  5.37500E+04 -2.20654E+04  4.98550E+04  2.05696E+04  1.72783E+04  4.77985E+04
 -1.82861E+04  3.75907E+04 -2.82198E+04  2.13257E+03 -1.23560E+04 -3.02344E+04  2.16160E+04 -3.76202E+04
  4.55891E+04 -1.14170E+04  4.21316E+04  2.56232E+04  2.32550E+04  5.32804E+04 -8.32702E+03  5.78057E+04
 -3.61640E+04  3.99956E+04 -4.93897E+04  1.16730E+04 -4.96508E+04 -1.91737E+04 -2.72432E+04 -4.33183E+04
  8.31814E+03 -4.37533E+04  3.53457E+04 -1.84164E+04  3.38907E+04  1.08714E+04  6.01998E+03  2.14882E+04
 -1.42164E+04  1.02937E+04 -1.22202E+04 -7.22724E+03  5.85788E+03 -1.22855E+04  1.98045E+04  6.19144E+03
  1.52387E+04  2.34199E+04 -4.84803E+03  2.70394E+04 -2.35115E+04  1.58991E+04 -3.24437E+04 -2.86090E+03
 -2.68833E+04 -1.89534E+04 -1.23124E+04 -2.64741E+04  4.23725E+03 -2.77317E+04  2.15780E+04 -2.41844E+04
  3.39417E+04 -1.48603E+04  4.06527E+04  5.87608E+03  2.79424E+04  2.49397E+04  5.21844E+03  4.27016E+04
 -2.01887E+04  3.50870E+04 -3.09911E+04  1.31637E+04 -2.23519E+04 -9.51635E+03 -4.77042E+03 -1.30214E+04
  8.40114E+02 -3.35357E+02 -9.03464E+03  9.31855E+03 -2.21979E+04  5.26834E+03 -2.10023E+04 -1.10325E+04
 -1.25168E+04 -2.41948E+04  6.74147E+03 -2.93740E+04  1.86972E+04 -2.13702E+04  2.34902E+04 -1.61311E+03
  1.60875E+04  1.81897E+04 -1.06176E+03  2.52333E+04 -1.75400E+04  1.36964E+04 -2.49003E+04 -4.91847E+03
 -1.83982E+04 -2.18269E+04 -2.48619E+03 -3.01178E+04  1.31412E+04 -2.50464E+04  2.42216E+04 -1.29882E+04
  2.38552E+04 -9.56544E+02  1.70190E+04  5.91923E+03  9.82406E+03  1.67014E+03  1.35025E+04 -2.56386E+03
  2.24655E+04  2.72817E+03  2.77051E+04  1.94674E+04  1.86722E+04  3.98700E+04 -3.18402E+03  4.75820E+04
 -2.65776E+04  4.02737E+04 -4.48075E+04  2.06260E+04 -4.79584E+04 -3.06324E+03 -3.83435E+04 -2.71055E+04
 -1.52437E+04 -4.00548E+04  1.42930E+04 -3.49303E+04  2.95850E+04 -1.68692E+04  2.55339E+04  8.82625E+03
  8.33717E+03  2.02248E+04 -1.24087E+04  1.67571E+04 -2.08768E+04  2.41226E+03 -1.63923E+04 -1.43061E+04
 -6.25321E+01 -2.10094E+04  1.26844E+04 -1.52743E+04  1.40528E+04 -1.83963E+03  3.98864E+03  9.92848E+03
 -9.81201E+03  4.04439E+03 -1.01159E+04 -7.77210E+03 -1.71659E+03 -1.91690E+04  1.27182E+04 -2.15155E+04
  2.44231E+04 -1.17904E+04  2.77051E+04  3.97157E+03  2.47893E+04  2.02800E+04  1.23182E+04  3.19248E+04
 -5.49858E+03  3.31248E+04 -2.18211E+04  2.07514E+04 -2.44088E+04  4.81095E+03 -1.60676E+04 -6.38149E+03
 -7.17630E+03 -7.55081E+03 -6.14594E+02  2.63939E+02 -3.39923E+03  3.37951E+03 -7.73138E+03  5.55618E+03
 -1.54517E+04 -1.31184E+03 -1.55027E+04 -1.25516E+04 -6.53116E+03 -2.02400E+04  6.87835E+03 -1.69206E+04
  1.40582E+04 -6.06399E+03  1.01625E+04  4.42073E+03 -5.96449E+02  6.14446E+03 -8.89649E+03 -9.63190E+01
 -7.63694E+03 -1.08403E+04 -8.58292E+02 -1.68821E+04  9.85859E+03 -1.72097E+04  2.27332E+04 -9.40009E+03
  2.66410E+04  3.06782E+03  1.86544E+04  1.63296E+04  3.12565E+03  2.00738E+04 -1.01826E+04  1.59618E+04
 -1.37408E+04  4.39035E+03 -6.55308E+03 -4.29976E+03  2.40767E+03 -5.65367E+03  8.24072E+03 -9.06035E+02
  7.89346E+03  7.39327E+03  1.67074E+03  1.31401E+04 -1.01736E+04  1.33259E+04 -1.78892E+04  2.74258E+03
 -1.10942E+04 -9.67058E+03  7.89928E+01 -1.56570E+04  9.65424E+03 -6.60262E+03  1.02610E+04  3.64674E+03
  2.92724E+03  1.11610E+04 -1.00090E+04  1.39971E+04 -1.57636E+04  5.09667E+03 -1.56478E+04 -5.39299E+03
 -9.65338E+03 -1.80406E+04  3.96911E+03 -2.04408E+04  1.72476E+04 -1.22652E+04  1.84114E+04  3.93857E+03
  1.11798E+04  1.55903E+04 -1.78958E+03  1.86996E+04 -1.29184E+04  9.59780E+03 -1.47354E+04 -2.47763E+03
 -1.19680E+04 -1.16918E+04 -8.73778E+02 -1.45758E+04  7.04160E+03 -1.10762E+04  9.19535E+03 -3.99584E+03
  4.84276E+03  2.24970E+03 -1.74741E+03  2.68660E+03 -1.03141E+03 -3.70516E+03  3.38085E+03 -9.10746E+03
  1.38111E+04 -5.09428E+03  1.82468E+04  2.56108E+03  1.70920E+04  1.28419E+04  1.11177E+04  2.46245E+04
 -5.28933E+03  2.79593E+04 -2.19006E+04  1.99157E+04 -2.82507E+04  3.66699E+03 -2.40787E+04 -1.03121E+04
 -1.23623E+04 -2.01681E+04 -2.15963E+01 -1.73953E+04  6.39583E+03 -9.77398E+03  6.18334E+03 -6.07370E+03
  3.76628E+03 -3.59862E+03  4.43454E+03 -3.82316E+03  5.95492E+03 -4.04821E+03  9.64020E+03 -1.93368E+03
  1.18853E+04  2.24815E+03  6.75680E+03  1.09887E+04 -2.12623E+03  1.29099E+04 -1.26026E+04  1.01546E+04
 -1.68197E+04 -1.98213E+03 -1.09612E+04 -1.15958E+04 -1.39992E+03 -1.84019E+04  9.62786E+03 -1.80285E+04
  1.94721E+04 -9.99150E+03  2.31698E+04  2.68625E+03  1.60742E+04  1.55466E+04  3.02860E+03  2.02870E+04
 -8.62870E+03  1.69537E+04 -1.23116E+04  5.02661E+03 -7.80772E+03 -5.12689E+02 -3.10792E+03 -2.30012E+03
 -1.89375E+03 -1.27030E+03 -2.89393E+03  3.60502E+03 -7.54950E+03  1.50542E+03 -1.12491E+04 -1.30325E+03
 -8.88062E+03 -1.15219E+04 -7.23351E+02 -1.71588E+04  1.08404E+04 -1.59213E+04  1.65972E+04 -4.38109E+03
  1.70091E+04  8.61359E+03  7.94438E+03  1.50045E+04 -3.17685E+03  1.83458E+04 -1.36338E+04  1.11814E+04
 -1.66719E+04  9.36184E+01 -1.27200E+04 -1.00072E+04 -8.75503E+02 -1.44834E+04  7.75043E+03 -1.09212E+04
  1.15693E+04 -4.05524E+03  6.12269E+03  3.36448E+03  3.71870E+03  5.45765E+03  1.24405E+03  1.66747E+03
  2.31765E+03  2.52664E+03  3.68543E+03  2.68308E+03  5.81036E+03  5.33687E+03  4.66033E+03  8.94940E+03
 -3.48308E+03  1.36223E+04 -1.25551E+04  1.33026E+04 -1.76671E+04  2.91815E+03 -1.82560E+04 -8.01825E+03
 -9.06726E+03 -1.77601E+04  2.51853E+03 -1.97610E+04  1.05871E+04 -1.29546E+04  1.46058E+04 -2.68194E+03
  1.25103E+04  5.94707E+03  2.42313E+03  1.03724E+04 -4.57568E+03  6.63913E+03 -7.98506E+03 -2.32901E+03
 -4.16474E+03 -7.56739E+03  4.28414E+03 -8.21118E+03  7.15240E+03 -4.15601E+03  7.85907E+03  1.73155E+03
  4.27032E+03  3.45929E+03  1.49781E+03  3.69021E+03 -5.91241E+02  2.54584E+03  1.89859E+03 -7.39811E+02
  2.70225E+03 -1.10719E+03  6.76065E+03  3.06787E+03  4.79795E+03  9.43797E+03 -1.57826E+03  1.22351E+04
 -8.52772E+03  8.39135E+03 -1.25077E+04  2.24354E+03 -1.02601E+04 -3.72294E+03 -4.47736E+03 -7.26249E+03
  1.40140E+03 -7.75717E+03  5.40601E+03 -3.64081E+03  3.98244E+03  3.04584E+03 -1.63201E+03  5.57961E+03
 -6.99757E+03  3.68490E+03 -8.90026E+03 -3.90877E+03 -4.54112E+03 -9.80563E+03  1.90270E+03 -9.88240E+03
  6.11697E+03 -6.01233E+03  6.85803E+03 -7.52156E+02  6.25689E+03  2.59232E+03  1.44748E+03  5.74545E+03
 -2.92736E+03  2.59174E+03 -4.91621E+03 -3.28102E+03  2.24331E+03 -7.60832E+03  7.61910E+03 -5.94116E+03
  1.27265E+04  1.51740E+03  1.07794E+04  7.27156E+03  3.43358E+03  1.26896E+04 -4.51160E+03  1.18355E+04
 -1.00483E+04  4.57766E+03 -1.04849E+04 -8.49660E+02 -5.99455E+03 -7.35625E+03  1.99537E+03 -7.78762E+03
  7.57375E+03 -4.03179E+03  6.58536E+03  3.38938E+03  1.28421E+03  6.07273E+03 -9.68568E+02  5.70259E+03
 -3.79172E+03  3.71235E+03 -2.62114E+03  6.21397E+02 -7.39170E+02  1.44690E+03 -1.49257E+03  2.52285E+03
 -2.72856E+03  5.29115E+03 -8.60799E+03  3.77736E+03 -1.23001E+04  9.71436E+02 -1.40604E+04 -7.60432E+03
 -6.82696E+03 -1.63678E+04  2.92688E+03 -1.88329E+04  1.11851E+04 -1.46657E+04  1.77387E+04 -5.15386E+03
  1.65723E+04  3.76201E+03  1.04737E+04  1.17497E+04  9.27888E+02  1.35499E+04 -5.69911E+03  9.61327E+03
 -7.36562E+03  3.15327E+03 -4.94430E+03 -1.82058E+03 -2.57415E+03 -2.17642E+03 -1.29749E+03 -1.90637E+02
 -2.22217E+03  3.49398E+02 -3.23295E+03 -5.40780E+02 -1.32783E+03 -3.31278E+03  2.27162E+02 -4.43090E+03
  4.96125E+03 -3.98860E+03  8.04409E+03 -7.31753E+01  9.23481E+03  6.66248E+03  2.03566E+03  1.30098E+04
 -6.05172E+03  1.39214E+04 -1.33654E+04  9.30781E+03 -1.63216E+04 -1.55245E+03 -1.18632E+04 -1.00706E+04
 -4.88707E+03 -1.40901E+04  4.11517E+03 -1.32349E+04  9.14850E+03 -7.03314E+03  1.01831E+04 -4.62379E+02
  4.42778E+03  5.11746E+03 -6.06411E+02  3.85369E+03 -2.24608E+03  2.06614E+02  7.24798E+02 -2.36314E+03
  3.60941E+03 -1.76603E+03  5.42384E+03  1.34846E+03  3.37764E+03  4.44495E+03  2.41636E+01  6.88102E+03
 -6.75159E+03  5.69362E+03 -9.03236E+03  7.07467E+02 -8.77121E+03 -5.51093E+03 -3.26977E+02 -1.02659E+04
  6.17945E+03 -8.48734E+03  9.75456E+03 -3.36671E+03  9.88882E+03  3.67355E+03  5.51801E+03  7.97326E+03
 -1.53752E+02  8.36724E+03 -4.22526E+03  7.46765E+03 -5.07302E+03  4.31795E+03 -4.68789E+03  6.73590E+02
 -2.63084E+03  6.22717E-01 -2.45382E+03  6.31941E+02 -4.92458E+03  1.79042E+03 -6.61267E+03 -1.46899E+03
 -6.49476E+03 -4.56172E+03 -2.31987E+03 -9.14561E+03  4.39259E+03 -9.52505E+03  8.17296E+03 -5.37994E+03
  9.06981E+03  3.41919E+02  5.28124E+03  6.22194E+03 -1.78159E+03  8.45539E+03 -7.05799E+03  5.07743E+03
