 $NMID ID='MM_0lb_SNR400_13hz_g50_56.RAW', FMTDAT='(8E13.5)'
 TRAMP=1., VOLUME=1. $END
  3.09675E+05  8.02421E+02  3.37577E+05  2.51579E+05  8.42352E+04  3.37944E+05 -1.32824E+05  2.51641E+05
 -1.90186E+05  8.36808E+04 -1.12501E+05 -3.25720E+04  9.23249E+02 -5.03303E+04  5.38636E+04 -5.17978E+02
  3.54062E+04  5.30224E+04 -1.72850E+04  7.62659E+04 -6.08303E+04  6.31178E+04 -8.43346E+04  3.25496E+04
 -8.13868E+04 -1.16956E+04 -5.74147E+04 -5.10701E+04 -1.45952E+04 -7.03133E+04  2.75635E+04 -4.64989E+04
  4.03042E+04  3.26970E+03  1.62792E+04  4.74633E+04 -3.41215E+04  4.81048E+04 -6.69691E+04 -2.20094E+02
 -5.38191E+04 -5.73246E+04 -6.54961E+03 -7.80461E+04  3.43139E+04 -5.55072E+04  4.80900E+04 -1.78204E+04
  4.47455E+04  1.15834E+04  3.24176E+04  2.56036E+04  1.62821E+04  2.94099E+04 -5.02620E+03  2.77358E+04
 -2.20924E+04  1.22408E+04 -1.82816E+04 -5.66111E+03  5.42807E+03 -7.97240E+03  2.24176E+04  1.22511E+04
  7.39077E+03  3.54030E+04 -3.18018E+04  3.60288E+04 -6.39912E+04  2.32720E+03 -5.74788E+04 -4.34486E+04
 -1.21944E+04 -6.35257E+04  3.98839E+04 -4.57781E+04  5.88730E+04 -2.40668E+03  3.52086E+04  3.33472E+04
 -5.85336E+03  3.71858E+04 -3.03418E+04  1.68538E+04 -3.07295E+04 -4.07359E+03 -1.74637E+04 -1.10973E+04
 -8.66530E+03 -1.35733E+04 -8.01843E+02 -1.80146E+04  7.85881E+03 -2.35070E+04  1.51024E+04 -1.27309E+04
  1.13163E+04  6.08087E+03 -8.33935E+03  1.32618E+04 -2.15466E+04 -5.01664E+03 -8.18415E+03 -3.47857E+04
  2.32247E+04 -4.41688E+04  4.87833E+04 -2.01544E+04  4.61561E+04  1.96551E+04  1.55741E+04  4.46225E+04
 -1.58581E+04  3.36578E+04 -2.64009E+04  1.18773E+03 -1.06691E+04 -2.78870E+04  2.07148E+04 -3.48084E+04
  4.23933E+04 -9.49422E+03  3.66655E+04  2.39225E+04  1.93592E+04  4.74045E+04 -7.16689E+03  5.18657E+04
 -3.21900E+04  3.44064E+04 -4.31767E+04  9.98631E+03 -4.40395E+04 -1.67090E+04 -2.39080E+04 -3.83640E+04
  8.01418E+03 -3.86820E+04  3.21658E+04 -1.52081E+04  2.96357E+04  1.10464E+04  4.24087E+03  1.92473E+04
 -1.33060E+04  8.12847E+03 -1.09639E+04 -7.49764E+03  5.89949E+03 -1.10640E+04  1.79573E+04  6.08603E+03
  1.33314E+04  2.18078E+04 -6.53566E+03  2.53196E+04 -2.23297E+04  1.25292E+04 -2.86041E+04 -3.92190E+03
 -2.18184E+04 -1.82848E+04 -8.62643E+03 -2.07804E+04  4.17829E+03 -2.07347E+04  1.64531E+04 -1.92193E+04
  2.71881E+04 -1.35414E+04  3.38692E+04  2.93014E+03  2.48450E+04  2.08913E+04  4.93491E+03  3.78222E+04
 -1.87603E+04  3.16889E+04 -2.87006E+04  1.04797E+04 -2.13894E+04 -9.76378E+03 -4.48133E+03 -1.28432E+04
  2.33043E+03 -2.41613E+03 -6.54968E+03  7.24881E+03 -1.69353E+04  4.88767E+03 -1.72401E+04 -7.42003E+03
 -1.06707E+04 -1.97793E+04  5.37623E+03 -2.37229E+04  1.64949E+04 -1.71746E+04  1.85406E+04 -2.12966E+03
  1.20165E+04  1.39236E+04 -1.56848E+03  1.99730E+04 -1.34025E+04  1.19978E+04 -2.05386E+04 -4.48921E+03
 -1.47623E+04 -1.81791E+04 -2.64030E+03 -2.36724E+04  1.07916E+04 -1.92069E+04  1.99065E+04 -1.04786E+04
  1.86133E+04  1.55558E+02  1.37105E+04  5.05217E+03  7.34010E+03  9.89620E+02  9.87600E+03 -1.72216E+03
  1.83857E+04  2.54982E+03  2.07565E+04  1.61605E+04  1.34156E+04  3.13500E+04 -3.22811E+03  3.67359E+04
 -2.11336E+04  2.96721E+04 -3.33064E+04  1.51154E+04 -3.65394E+04 -2.21756E+03 -2.90650E+04 -2.03725E+04
 -1.26860E+04 -2.92472E+04  9.55489E+03 -2.68452E+04  2.28522E+04 -1.36600E+04  2.01476E+04  5.20167E+03
  7.66999E+03  1.54247E+04 -9.48389E+03  1.34455E+04 -1.70362E+04  2.11029E+03 -1.26733E+04 -1.03610E+04
 -1.89071E+02 -1.66433E+04  7.78480E+03 -1.21074E+04  1.12485E+04 -5.03005E+02  1.85794E+03  7.45308E+03
 -7.69107E+03  1.92385E+03 -6.52248E+03 -5.61873E+03 -6.23211E+02 -1.39093E+04  1.02713E+04 -1.53573E+04
  1.77148E+04 -8.52814E+03  1.94026E+04  2.99315E+03  1.62130E+04  1.44666E+04  8.23792E+03  2.27153E+04
 -3.53543E+03  2.33078E+04 -1.52298E+04  1.53168E+04 -1.73137E+04  3.78781E+03 -1.18753E+04 -4.13645E+03
 -5.44145E+03 -6.20654E+03  2.98423E+02  9.65847E+02 -3.04727E+03  2.38485E+03 -5.46477E+03  4.61092E+03
 -1.11790E+04 -6.89927E+02 -1.18276E+04 -1.00410E+04 -4.75556E+03 -1.54954E+04  4.50507E+03 -1.20686E+04
  9.83992E+03 -5.43706E+03  7.07586E+03  3.84970E+03  2.01595E+02  4.92393E+03 -6.16469E+03  3.80387E+02
 -5.38944E+03 -7.94054E+03 -6.46550E+02 -1.11767E+04  6.89790E+03 -1.25991E+04  1.50033E+04 -6.72431E+03
  1.73958E+04  1.54863E+03  1.28295E+04  1.00599E+04  2.29277E+03  1.42463E+04 -6.77557E+03  1.16248E+04
 -9.11627E+03  2.97043E+03 -4.57836E+03 -1.93559E+03  2.27077E+03 -2.85918E+03  6.41175E+03 -7.70380E+02
  5.86029E+03  5.30591E+03  1.72851E+03  9.77666E+03 -6.90421E+03  9.96246E+03 -1.16307E+04  2.14885E+03
 -8.46253E+03 -6.24692E+03  1.61111E+02 -1.02229E+04  5.86722E+03 -5.07781E+03  6.21781E+03  1.92715E+03
  1.00502E+03  7.06259E+03 -6.22201E+03  8.13118E+03 -8.63523E+03  4.65764E+03 -9.87044E+03 -3.20563E+03
 -5.31958E+03 -1.09654E+04  2.75843E+03 -1.27439E+04  1.08935E+04 -7.78360E+03  1.15043E+04  1.73527E+03
  6.53825E+03  9.40517E+03 -1.14279E+03  1.17833E+04 -8.55407E+03  7.00302E+03 -8.43372E+03 -5.73002E+02
 -8.69186E+03 -8.01768E+03 -1.22523E+03 -8.26839E+03  4.43309E+03 -7.09280E+03  4.96379E+03 -3.37522E+03
  4.36044E+03  1.08814E+03 -3.81154E+02  1.39864E+03 -8.29566E+02 -1.84717E+03  1.11109E+03 -4.76838E+03
  7.47093E+03 -3.57839E+03  1.04068E+04  1.63788E+03  1.06320E+04  6.64823E+03  7.50142E+03  1.43486E+04
 -2.83837E+03  1.57623E+04 -1.36730E+04  1.19217E+04 -1.79798E+04  2.40833E+03 -1.42071E+04 -5.73922E+03
 -6.80490E+03 -1.16120E+04 -2.21872E+02 -1.01338E+04  3.62801E+03 -5.36265E+03  3.31740E+03 -4.07608E+03
  2.54210E+03 -1.48360E+03  2.83033E+03 -2.47630E+03  4.60527E+03 -2.66981E+03  5.47382E+03 -4.28359E+02
  7.32132E+03  1.79922E+03  2.71679E+03  6.84234E+03 -1.29269E+03  6.69573E+03 -7.49120E+03  6.06249E+03
 -1.02749E+04 -1.66764E+03 -4.94216E+03 -6.59001E+03 -5.98060E+02 -1.03184E+04  6.04518E+03 -1.03702E+04
  1.01746E+04 -5.55900E+03  1.29796E+04  1.76571E+03  9.16943E+03  9.06615E+03  1.23251E+03  1.09745E+04
 -4.40420E+03  9.46572E+03 -6.58986E+03  3.52712E+03 -4.97049E+03 -1.21718E+03 -1.74888E+03 -1.61546E+03
 -1.03077E+03  5.75705E+02 -1.63355E+03  2.89189E+03 -4.70746E+03  2.15862E+03 -6.73635E+03 -9.15618E+02
 -4.14926E+03 -6.53281E+03  3.95895E+02 -9.01308E+03  6.35749E+03 -8.62656E+03  8.85269E+03 -2.45601E+03
  9.13964E+03  4.67173E+03  4.16274E+03  7.99465E+03 -2.18042E+03  9.03410E+03 -5.86973E+03  5.77213E+03
 -8.55145E+03  8.09761E+02 -6.98687E+03 -5.82290E+03 -9.47025E+02 -7.22844E+03  3.99712E+03 -5.50526E+03
  5.61002E+03 -1.84961E+03  3.66746E+03  1.15535E+03  1.65668E+03  3.35284E+03  4.92751E+02  1.10063E+03
  2.34933E+03  9.28612E+02  2.51242E+03  1.36734E+03  2.88598E+03  3.51989E+03  2.09895E+03  4.56064E+03
 -2.20650E+03  6.51768E+03 -6.06081E+03  7.57825E+03 -8.66269E+03  1.94739E+03 -9.43617E+03 -3.02568E+03
 -3.54442E+03 -8.49359E+03  1.29508E+03 -9.88554E+03  4.95088E+03 -6.33020E+03  6.91544E+03 -1.22740E+03
  5.43103E+03  3.54670E+03  1.43142E+03  4.97367E+03 -2.18879E+03  3.45731E+03 -2.88884E+03 -1.27752E+02
 -1.54294E+03 -3.98251E+03  2.09105E+03 -3.10665E+03  3.98155E+03 -1.53635E+03  3.36221E+03  7.95930E+02
  2.84922E+03  1.44644E+03  4.96910E+02  9.44846E+02 -9.26787E+02  1.44290E+03  1.37288E+03 -9.51804E+02
  1.39081E+03 -7.26789E+02  3.63450E+03  1.11462E+03  1.71659E+03  5.43158E+03 -1.22127E+03  6.18946E+03
 -3.49931E+03  3.50729E+03 -4.58047E+03  1.47461E+03 -4.93304E+03 -1.75276E+03 -1.02268E+03 -3.08200E+03
  7.68524E+02 -3.10130E+03  1.91676E+03 -2.05872E+03  1.71693E+03  1.99676E+03 -1.10789E+03  2.68439E+03
 -3.02404E+03  1.96608E+03 -3.00329E+03 -2.89064E+03 -2.86358E+03 -5.35884E+03  3.90800E+02 -4.35454E+03
  2.36945E+03 -2.76717E+03  3.06706E+03 -5.21164E+02  3.41117E+03  4.11085E+02  5.34301E+02  2.99027E+03
 -1.80059E+03  3.33541E+02 -1.19589E+03 -1.30959E+03  5.19711E+02 -2.53937E+03  4.39227E+03 -2.35565E+03
  4.33032E+03  6.51366E+02  5.25070E+03  3.95382E+03  1.78623E+03  5.28583E+03 -1.57912E+03  5.23721E+03
 -4.23971E+03  2.23285E+03 -4.30751E+03 -1.24001E+03 -2.58025E+03 -3.35858E+03  7.30540E+01 -2.71922E+03
  3.47477E+03 -1.11883E+03  2.83627E+03  1.64396E+03  8.19317E+02  3.45317E+03  4.76125E+02  2.26605E+03
 -9.25948E+02  1.69994E+03 -1.34054E+03  8.76755E+02 -3.82490E+02 -1.95992E+02 -1.09035E+03  1.59202E+03
 -8.30044E+02  2.68070E+03 -3.90461E+03  1.85719E+03 -4.35889E+03  1.34317E+02 -6.04904E+03 -3.44730E+03
 -2.77879E+03 -6.36438E+03  1.58901E+03 -7.51621E+03  4.49181E+03 -6.28673E+03  7.01733E+03 -2.59415E+03
  6.14234E+03  7.19831E+02  3.80495E+03  4.80672E+03 -4.70085E+02  5.33630E+03 -1.58145E+03  3.14881E+03
 -2.93122E+03  1.00228E+03 -1.14745E+03 -2.42137E+02 -9.52063E+02  2.28653E+02 -7.31226E+02  2.52249E+02
 -1.41342E+03  5.52692E+02 -1.03978E+03 -3.01658E+02  4.40732E+02 -9.03550E+02  7.81839E+01 -2.29719E+03
  2.76507E+03 -1.67862E+03  2.13279E+03 -1.48446E+02  4.40016E+03  3.31758E+03  3.65031E+02  4.82914E+03
 -2.35964E+03  6.09796E+03 -5.40650E+03  3.83677E+03 -6.04569E+03 -4.64531E+02 -4.19796E+03 -3.08949E+03
 -2.69107E+03 -5.15474E+03  4.64090E+02 -3.95580E+03  2.90259E+03 -2.49574E+03  2.38330E+03 -4.33621E+02
  1.56836E+03  1.36652E+03 -1.59912E+02  2.25265E+03 -5.03405E+02  2.05147E+02  4.57362E+02 -1.67712E+03
  1.13650E+03 -4.40241E+02  1.61213E+03  2.95910E+01  1.41032E+03  1.54745E+03  1.53595E+02  2.68426E+03
 -2.00239E+03  2.71134E+03 -2.41343E+03 -1.20305E+02 -1.99265E+03 -2.27420E+03 -4.77352E+02 -3.94783E+03
  2.11403E+03 -3.78890E+03  3.01176E+03 -1.40839E+03  3.48386E+03  4.63738E+02  1.05243E+03  2.76007E+03
  7.15225E+02  2.98699E+03 -1.26992E+03  2.13701E+03 -1.64049E+03  1.50388E+03 -1.90256E+03  3.15412E+02
 -1.01116E+03  5.92371E+02 -1.36160E+03 -2.58174E+01 -2.21672E+03  9.69099E+02 -2.95953E+03 -3.00412E+02
 -2.42922E+03 -1.26728E+03 -1.31019E+03 -2.91620E+03  2.05757E+03 -3.54829E+03  2.54334E+03 -8.97151E+02
  2.87681E+03  1.87968E+02  4.64079E+02  1.87067E+03 -2.74116E+02  2.90314E+03 -1.69883E+03  2.11811E+03
