 $NMID ID='MM_0lb_SNR400_18hz_g55_88.RAW', FMTDAT='(8E13.5)'
 TRAMP=1., VOLUME=1. $END
  3.09954E+05  1.80315E+02  3.37434E+05  2.50999E+05  8.42568E+04  3.37478E+05 -1.32440E+05  2.50702E+05
 -1.90081E+05  8.25129E+04 -1.11609E+05 -3.27112E+04  1.48819E+03 -5.01635E+04  5.41754E+04  8.78706E+01
  3.46846E+04  5.28048E+04 -1.71071E+04  7.48531E+04 -6.01556E+04  6.24165E+04 -8.35481E+04  3.15289E+04
 -7.99462E+04 -1.11378E+04 -5.71457E+04 -5.05756E+04 -1.53284E+04 -6.88451E+04  2.65336E+04 -4.56408E+04
  3.92620E+04  3.58909E+03  1.56522E+04  4.75861E+04 -3.42883E+04  4.67903E+04 -6.62658E+04 -1.04148E+02
 -5.29527E+04 -5.62159E+04 -6.67146E+03 -7.62731E+04  3.35945E+04 -5.38377E+04  4.66932E+04 -1.64712E+04
  4.25592E+04  1.18535E+04  3.11515E+04  2.51233E+04  1.57871E+04  2.83772E+04 -4.86089E+03  2.63378E+04
 -2.22686E+04  1.26682E+04 -1.86777E+04 -4.47115E+03  4.14870E+03 -7.32473E+03  2.16512E+04  1.18645E+04
  7.27609E+03  3.42824E+04 -3.09864E+04  3.43735E+04 -6.19735E+04  2.01446E+03 -5.58601E+04 -4.17218E+04
 -1.25858E+04 -6.21076E+04  3.90393E+04 -4.43536E+04  5.66601E+04 -2.38256E+03  3.30888E+04  3.12392E+04
 -6.42884E+03  3.45376E+04 -2.89401E+04  1.45699E+04 -2.88742E+04 -4.94107E+03 -1.53088E+04 -1.04735E+04
 -7.76345E+03 -1.24559E+04 -8.00578E+02 -1.71249E+04  7.53135E+03 -2.26703E+04  1.51671E+04 -1.33368E+04
  1.21850E+04  4.48939E+03 -7.38393E+03  1.30766E+04 -2.02726E+04 -3.89288E+03 -8.79908E+03 -3.17590E+04
  2.11172E+04 -4.19186E+04  4.60695E+04 -1.89739E+04  4.33952E+04  1.94577E+04  1.49605E+04  4.21315E+04
 -1.61644E+04  3.23631E+04 -2.43603E+04  1.30479E+03 -9.23226E+03 -2.70987E+04  2.04175E+04 -3.27210E+04
  3.92122E+04 -7.76671E+03  3.29103E+04  2.35041E+04  1.68545E+04  4.37030E+04 -7.95157E+03  4.74557E+04
 -2.99156E+04  3.15753E+04 -3.88885E+04  8.37344E+03 -4.05471E+04 -1.52530E+04 -2.19244E+04 -3.56383E+04
  7.41483E+03 -3.50319E+04  3.01920E+04 -1.30661E+04  2.79728E+04  1.08913E+04  3.53540E+03  1.81389E+04
 -1.32758E+04  7.85640E+03 -9.80391E+03 -7.61204E+03  6.26980E+03 -1.00502E+04  1.74530E+04  6.94575E+03
  1.27111E+04  2.17277E+04 -6.26014E+03  2.40618E+04 -2.18577E+04  9.98700E+03 -2.61047E+04 -6.01954E+03
 -1.80743E+04 -1.66828E+04 -6.69088E+03 -1.76533E+04  4.06203E+03 -1.61663E+04  1.36614E+04 -1.52013E+04
  2.30038E+04 -1.15758E+04  2.96427E+04  1.64037E+03  2.24037E+04  1.79114E+04  4.47859E+03  3.36924E+04
 -1.67986E+04  2.88192E+04 -2.65602E+04  9.40108E+03 -2.00264E+04 -1.03632E+04 -4.26790E+03 -1.37963E+04
  1.48624E+03 -3.61839E+03 -3.81974E+03  5.46382E+03 -1.44040E+04  4.98559E+03 -1.45524E+04 -5.35518E+03
 -9.22490E+03 -1.66216E+04  4.78618E+03 -2.04082E+04  1.34349E+04 -1.51417E+04  1.60245E+04 -1.79921E+03
  9.64493E+03  1.13698E+04 -8.82761E+02  1.66090E+04 -1.07659E+04  9.69637E+03 -1.68134E+04 -3.57370E+03
 -1.22512E+04 -1.58831E+04 -1.76147E+03 -2.03432E+04  1.02834E+04 -1.67252E+04  1.73949E+04 -8.23268E+03
  1.51191E+04 -5.19605E+01  1.12375E+04  4.20844E+03  5.48857E+03  5.32551E+02  8.46449E+03 -1.41412E+03
  1.52189E+04  3.28247E+03  1.53337E+04  1.31175E+04  1.04561E+04  2.63934E+04 -2.78746E+03  2.88326E+04
 -1.76135E+04  2.20693E+04 -2.70443E+04  1.13713E+04 -2.80373E+04 -2.12706E+03 -2.30246E+04 -1.60263E+04
 -1.04102E+04 -2.25755E+04  7.07858E+03 -2.08727E+04  1.76324E+04 -1.16667E+04  1.64220E+04  4.10153E+03
  6.46888E+03  1.19441E+04 -7.95951E+03  1.13153E+04 -1.40047E+04  2.67365E+03 -1.09001E+04 -8.65782E+03
 -6.66985E+01 -1.30999E+04  6.64626E+03 -9.93073E+03  8.37591E+03 -9.64779E+02  1.45900E+03  5.11268E+03
 -5.43902E+03  1.87081E+03 -4.03210E+03 -5.18185E+03  2.74982E+02 -1.10751E+04  8.51413E+03 -1.11525E+04
  1.34333E+04 -5.32229E+03  1.28946E+04  3.19820E+03  1.16028E+04  1.04697E+04  5.51993E+03  1.56686E+04
 -2.28867E+03  1.73725E+04 -1.10134E+04  1.11565E+04 -1.27197E+04  3.15795E+03 -9.10488E+03 -2.27105E+03
 -4.49034E+03 -3.18261E+03 -1.46685E+03  1.14983E+03 -2.09138E+03  1.97808E+03 -3.93386E+03  3.30105E+03
 -8.67847E+03 -7.01815E+02 -8.84943E+03 -7.66932E+03 -3.49917E+03 -1.19811E+04  3.81386E+03 -9.29635E+03
  7.98006E+03 -3.75639E+03  5.98900E+03  2.07190E+03  6.91382E+02  2.77253E+03 -3.93731E+03 -6.58799E+02
 -4.46370E+03 -6.23825E+03 -6.99181E+02 -7.87266E+03  4.36890E+03 -8.90182E+03  1.07762E+04 -4.59825E+03
  1.28972E+04  5.57414E+02  9.71664E+03  6.52272E+03  2.09702E+03  1.00011E+04 -5.77161E+03  9.46621E+03
 -7.47316E+03  3.18387E+03 -3.43585E+03 -1.32569E+03  1.00292E+03 -2.63019E+03  4.99211E+03 -9.39077E+02
  4.61667E+03  3.94028E+03  9.09793E+02  6.82364E+03 -4.60783E+03  6.96232E+03 -8.35344E+03  2.41739E+03
 -6.15935E+03 -3.58074E+03  3.28572E+02 -7.73735E+03  4.14189E+03 -3.49422E+03  3.46542E+03  1.33889E+03
  8.22903E+02  3.72376E+03 -4.73005E+03  5.54084E+03 -5.28252E+03  2.84379E+03 -5.08223E+03 -1.44757E+03
 -3.65235E+03 -7.14617E+03  1.97148E+03 -7.79650E+03  6.46005E+03 -4.90728E+03  6.96529E+03  1.04491E+03
  5.17925E+03  6.15781E+03  6.76651E+01  7.98490E+03 -5.47762E+03  4.35980E+03 -5.98783E+03 -9.33885E+02
 -6.44387E+03 -5.34808E+03 -1.57753E+03 -5.86531E+03  2.89246E+03 -5.19891E+03  3.37435E+03 -2.40812E+03
  3.11687E+03  1.56819E+02  2.39557E+02  7.84614E+02  7.42366E+02 -8.61595E+02  4.05578E+02 -1.92544E+03
  4.49396E+03 -7.42196E+02  6.30982E+03  5.82996E+02  6.22641E+03  3.62544E+03  5.84918E+03  8.46681E+03
 -1.62305E+03  9.09260E+03 -7.77158E+03  7.19236E+03 -1.07863E+04  1.52663E+03 -8.53535E+03 -3.41330E+03
 -4.25855E+03 -7.59968E+03 -4.99733E+02 -5.50927E+03  3.01933E+03 -2.72761E+03  2.07331E+03 -2.02210E+03
  1.81313E+03 -1.82324E+03  2.75231E+03 -2.45755E+03  3.40150E+03 -1.27594E+03  3.37785E+03  9.91237E+01
  4.97621E+03  9.40827E+02  1.60200E+03  3.77568E+03 -1.69698E+03  3.25617E+03 -4.65479E+03  2.69287E+03
 -5.62058E+03 -8.33951E+02 -2.64260E+03 -3.93911E+03 -4.31236E+02 -5.40263E+03  3.37474E+03 -5.76737E+03
  5.60274E+03 -3.42345E+03  7.03096E+03  1.18233E+02  5.06152E+03  4.89952E+03  7.68457E+02  6.20153E+03
 -2.97463E+03  6.46237E+03 -4.20795E+03  1.51077E+03 -2.17830E+03 -1.04733E+03 -1.11828E+02 -3.70242E+02
 -8.26960E+02  6.68562E+02 -7.49900E+02  2.35198E+03 -2.77255E+03  9.24321E+02 -4.81061E+03 -6.98003E+02
 -2.10991E+03 -4.43648E+03  1.22605E+03 -4.72126E+03  3.13199E+03 -4.77868E+03  4.01346E+03 -1.22970E+03
  4.27035E+03  2.39743E+03  1.43491E+03  3.55046E+03 -5.50107E+02  5.51812E+03 -3.52525E+03  2.55282E+03
 -4.28663E+03  2.00150E+02 -2.94931E+03 -2.90754E+03 -4.74596E+02 -3.42540E+03  2.08356E+03 -2.82285E+03
  3.63931E+03 -1.53094E+03  2.25716E+03  1.11283E+02  2.81480E+02  1.29463E+03  8.70899E+02  9.11721E+02
  1.67294E+03  4.61960E+02  1.26356E+03  1.11272E+03  1.38399E+03  2.78517E+03  1.63314E+03  1.90852E+03
 -1.37197E+03  3.40663E+03 -2.84062E+03  4.38928E+03 -3.75611E+03  1.21439E+03 -4.93278E+03 -9.04654E+02
 -2.18215E+03 -4.17258E+03  8.48770E+02 -5.11279E+03  2.52391E+03 -3.39696E+03  3.07462E+03 -1.18282E+03
  2.93746E+03  1.69082E+03  6.08753E+02  2.34440E+03 -3.56433E+02  1.23888E+03 -1.10561E+03 -5.20582E+02
 -9.50530E+02 -1.24724E+03  1.39616E+03 -2.06737E+03  1.71414E+03 -9.83938E+02  1.72411E+03  2.92333E+02
  5.60829E+02  2.13199E+02  9.41644E+02 -1.95263E+02 -5.68241E+02  3.24484E+02  1.40041E+03 -3.67363E+02
  7.16223E+02 -5.80519E+02  1.83501E+03  4.79646E+02  2.41950E+01  2.40722E+03 -8.42587E+02  3.55520E+03
 -2.00937E+03  1.41868E+03 -2.49125E+03  5.95657E+02 -2.31299E+03 -8.36213E+01 -4.81809E+02 -1.06995E+03
  3.67024E+02 -1.58391E+03  9.16345E+02 -5.54511E+02  7.35469E+02  1.11479E+03 -6.97251E+02  1.52034E+03
 -1.66068E+03  2.46498E+02 -1.14724E+03 -9.72032E+02 -6.84148E+02 -2.40445E+03  2.94043E+02 -1.34949E+03
  3.84417E+02 -5.01747E+02  9.70738E+02 -5.23497E+00  1.73598E+03  2.25703E+02  6.34766E+01  1.60909E+03
 -4.26653E+02  9.70567E+01 -1.16427E+03 -3.69196E+02  5.31676E+02 -1.50355E+03  1.47632E+03 -1.44072E+03
  1.68412E+03  4.62587E+02  2.26618E+03  7.64869E+02  1.00955E+03  1.66682E+03 -7.31557E+02  1.85574E+03
 -1.70552E+03  1.42623E+02 -1.86065E+03  9.53045E+01 -8.48285E+02 -1.38681E+03  2.71571E+02 -6.51392E+02
  1.27267E+03 -1.38611E+03  9.26300E+02  1.09054E+03  8.41725E+02  1.53494E+03  7.20540E+02  9.12820E+02
 -4.67133E+02  1.37419E+03 -3.60752E+02 -4.26387E+02 -1.64976E+02  5.02923E+02 -8.24372E+02  7.31308E+02
 -4.99486E+02  9.88215E+02 -1.88782E+03  3.19156E+02 -1.75880E+03  4.85321E+02 -2.25711E+03 -1.23544E+03
 -1.25050E+03 -2.33852E+03  7.10701E+02 -3.30387E+03  7.70172E+02 -2.73981E+03  2.49846E+03 -1.18988E+03
  2.55033E+03  8.62607E+01  6.89664E+02  1.16139E+03 -3.20117E+02  1.99389E+03 -2.93491E+02  1.31809E+03
 -1.28757E+03  1.44481E+03 -3.22312E+02  4.05649E+01  1.16853E+02  3.60533E+02 -6.85488E+02  1.77988E+01
 -1.28215E+03  7.09780E+01 -3.77579E+02 -1.16855E+02  4.78305E+02 -3.61631E+02 -3.99450E+01 -7.80802E+02
  1.03673E+03 -8.95620E+02 -3.46764E+02  7.19090E+02  1.38361E+03  1.03483E+03 -7.60442E+02  1.36883E+03
 -9.79257E+02  2.13029E+03 -1.64574E+03  1.40851E+03 -2.11651E+03 -4.95583E+02 -1.37956E+03 -1.60153E+03
 -6.77667E+02 -1.38071E+03  2.03906E+01 -1.70422E+03  2.43810E+02  1.29063E+02  1.15823E+03 -1.30008E+02
  6.39042E+02  6.50390E+02 -2.00200E+02  7.09577E+02 -3.92776E+02  2.45030E+02  5.20995E+01  4.55097E+00
  6.17719E+02  2.10768E+02  1.37687E+02  1.66860E+02  4.68976E+02  8.49672E+02  8.31989E+02  7.85418E+02
 -4.74819E+02  2.93048E+02 -3.23866E+02  3.78161E+01 -7.37656E+02 -7.28094E+02  3.30975E+01 -1.53816E+03
  2.36735E+02 -1.22267E+03  3.35080E+02 -1.44217E+02  1.17781E+03 -6.90679E+02  5.07884E+02  6.79967E+02
  7.43230E+02  5.62316E+02 -8.08240E+02  8.02686E+02 -5.46533E+02  9.23053E+02 -7.76607E+02  2.36168E+02
 -2.29003E+02  2.11176E+02 -5.30712E+02 -2.04682E+02 -2.42602E+02 -9.97019E+01 -9.97203E+02 -7.78568E+02
 -1.58142E+03  3.32420E+02 -2.41524E+02 -9.24937E+02  6.52138E+02 -1.70371E+03  8.09254E+02 -1.76965E+02
  7.64764E+02  1.88682E+02 -4.14817E+02  4.22336E+01  2.57567E+02  7.11284E+02 -1.48447E+02  4.76350E+02
