 $NMID ID='MM_0lb_SNR400_19hz_g45_12.RAW', FMTDAT='(8E13.5)'
 TRAMP=1., VOLUME=1. $END
  3.09438E+05  1.10469E+03  3.37807E+05  2.50350E+05  8.42762E+04  3.37180E+05 -1.33185E+05  2.49547E+05
 -1.89892E+05  8.26647E+04 -1.11118E+05 -3.26953E+04  1.44095E+03 -5.03818E+04  5.39235E+04  7.31610E+01
  3.52881E+04  5.25546E+04 -1.64334E+04  7.44608E+04 -6.04485E+04  6.23322E+04 -8.27971E+04  3.12298E+04
 -7.89824E+04 -1.11077E+04 -5.59314E+04 -5.00229E+04 -1.54285E+04 -6.81424E+04  2.65442E+04 -4.47814E+04
  3.90890E+04  4.48803E+03  1.53185E+04  4.65787E+04 -3.40327E+04  4.62360E+04 -6.48688E+04 -4.12885E+02
 -5.15524E+04 -5.54767E+04 -5.70491E+03 -7.50092E+04  3.33161E+04 -5.30330E+04  4.57794E+04 -1.60403E+04
  4.15795E+04  1.13607E+04  3.01557E+04  2.41663E+04  1.53984E+04  2.81653E+04 -4.19808E+03  2.68645E+04
 -2.13927E+04  1.32035E+04 -1.94627E+04 -4.11378E+03  4.42293E+03 -7.93748E+03  2.09680E+04  1.12783E+04
  7.32211E+03  3.31791E+04 -2.99868E+04  3.37922E+04 -6.09414E+04  1.98845E+03 -5.53389E+04 -4.11697E+04
 -1.23858E+04 -6.02455E+04  3.76920E+04 -4.26834E+04  5.52243E+04 -1.67942E+03  3.18093E+04  2.95604E+04
 -6.15148E+03  3.27570E+04 -2.83746E+04  1.27531E+04 -2.73579E+04 -5.69152E+03 -1.43313E+04 -9.83331E+03
 -7.56856E+03 -1.12517E+04 -1.47335E+03 -1.67234E+04  6.83448E+03 -2.25649E+04  1.57901E+04 -1.39872E+04
  1.26569E+04  3.90614E+03 -6.34372E+03  1.33062E+04 -1.89847E+04 -2.37722E+03 -8.20344E+03 -2.98742E+04
  2.03315E+04 -4.02712E+04  4.39069E+04 -1.87545E+04  4.16926E+04  1.83194E+04  1.38736E+04  4.15275E+04
 -1.56511E+04  3.07041E+04 -2.36637E+04  1.33010E+03 -8.48482E+03 -2.64558E+04  2.08378E+04 -3.03210E+04
  3.78532E+04 -7.00713E+03  3.11987E+04  2.26184E+04  1.47063E+04  4.18319E+04 -7.82236E+03  4.44365E+04
 -2.79514E+04  2.96848E+04 -3.69125E+04  8.41896E+03 -3.77135E+04 -1.45575E+04 -2.05852E+04 -3.37332E+04
  6.64982E+03 -3.38004E+04  2.85259E+04 -1.26325E+04  2.68495E+04  1.09590E+04  3.04716E+03  1.75762E+04
 -1.30462E+04  7.17476E+03 -9.05169E+03 -7.78593E+03  6.17972E+03 -9.63048E+03  1.63876E+04  6.86902E+03
  1.19953E+04  2.10390E+04 -6.37075E+03  2.32456E+04 -2.12193E+04  9.12152E+03 -2.47212E+04 -6.54533E+03
 -1.55159E+04 -1.59293E+04 -5.01729E+03 -1.56982E+04  3.42069E+03 -1.39140E+04  1.22969E+04 -1.40267E+04
  2.04034E+04 -1.15251E+04  2.76500E+04  1.04306E+03  2.08820E+04  1.48899E+04  3.98506E+03  3.18453E+04
 -1.56725E+04  2.74031E+04 -2.53069E+04  9.45191E+03 -1.88130E+04 -9.94598E+03 -4.01988E+03 -1.45536E+04
  3.03383E+03 -4.65673E+03 -2.53868E+03  5.55756E+03 -1.28143E+04  5.60333E+03 -1.26759E+04 -4.87218E+03
 -7.80923E+03 -1.47840E+04  4.28273E+03 -1.90966E+04  1.21877E+04 -1.39843E+04  1.38106E+04 -1.38817E+03
  8.79991E+03  1.02731E+04 -1.05927E+03  1.50829E+04 -1.00331E+04  8.34406E+03 -1.49708E+04 -3.82624E+03
 -1.16040E+04 -1.34509E+04 -1.33430E+03 -1.85866E+04  8.45939E+03 -1.48812E+04  1.61090E+04 -6.97253E+03
  1.41366E+04  7.52684E+02  1.00910E+04  3.93548E+03  5.37055E+03  1.38084E+02  6.81637E+03 -1.32552E+03
  1.27880E+04  2.57068E+03  1.43998E+04  1.21023E+04  8.07693E+03  2.36294E+04 -3.10176E+03  2.56317E+04
 -1.48144E+04  1.98838E+04 -2.29338E+04  8.67981E+03 -2.37197E+04 -1.72293E+03 -2.05538E+04 -1.34051E+04
 -9.76464E+03 -1.90127E+04  6.57658E+03 -1.79264E+04  1.60449E+04 -1.01898E+04  1.51925E+04  3.68475E+03
  6.58707E+03  1.07265E+04 -7.12240E+03  1.03120E+04 -1.22284E+04  2.82407E+03 -9.97822E+03 -7.83779E+03
 -8.20770E+01 -1.17007E+04  5.94758E+03 -9.19028E+03  7.33075E+03 -1.38756E+03  1.15963E+03  4.51494E+03
 -5.03154E+03  1.64994E+03 -3.56957E+03 -4.63810E+03  6.54200E+02 -9.60933E+03  7.34214E+03 -9.23202E+03
  1.16827E+04 -4.61475E+03  1.07431E+04  3.27658E+03  9.43808E+03  8.78961E+03  4.72650E+03  1.28424E+04
 -2.02447E+03  1.50026E+04 -9.17580E+03  9.34816E+03 -1.05042E+04  2.92637E+03 -8.26321E+03 -1.69146E+03
 -4.28647E+03 -2.97978E+03 -2.37628E+02  1.43041E+03 -2.07134E+03  1.82587E+03 -3.57448E+03  3.01787E+03
 -8.00624E+03 -8.48857E+02 -8.41805E+03 -7.30003E+03 -3.54524E+03 -1.13261E+04  3.95716E+03 -7.85200E+03
  7.04440E+03 -3.75692E+03  5.11909E+03  2.12239E+03  4.59116E+02  2.83216E+03 -3.30196E+03 -2.49472E+02
 -3.16759E+03 -5.00883E+03 -7.81251E+02 -6.45692E+03  3.79431E+03 -7.63844E+03  9.62171E+03 -3.65852E+03
  1.09387E+04  8.17660E+02  8.63554E+03  5.55284E+03  1.50819E+03  7.56959E+03 -4.57346E+03  7.28826E+03
 -6.68080E+03  2.86756E+03 -3.09328E+03 -1.48814E+03  1.30457E+03 -1.74436E+03  4.24940E+03 -8.59070E+02
  3.81926E+03  3.48217E+03  9.44965E+02  6.15088E+03 -4.60467E+03  6.37493E+03 -7.75524E+03  1.93225E+03
 -4.55996E+03 -3.45478E+03  8.16103E+02 -6.05863E+03  3.79104E+03 -3.25083E+03  3.62360E+03  1.10309E+03
  4.13432E+02  2.91767E+03 -3.51926E+03  4.30173E+03 -4.28149E+03  2.33223E+03 -3.85953E+03 -7.61704E+02
 -2.79739E+03 -5.63656E+03  1.60653E+03 -7.02370E+03  5.94702E+03 -4.34985E+03  6.40647E+03  8.98798E+02
  4.51940E+03  4.77824E+03  5.79504E+02  6.80638E+03 -4.56231E+03  3.72532E+03 -4.89786E+03 -4.29537E+02
 -5.80232E+03 -4.69477E+03 -9.73047E+02 -4.63899E+03  2.80552E+03 -4.87244E+03  2.86014E+03 -2.65277E+03
  2.53898E+03  3.11770E+02  9.69858E+02  1.24376E+03  6.56924E+02  9.69286E+01 -2.16770E+02 -1.77856E+03
  4.18654E+03 -6.64271E+02  4.73526E+03  4.48728E+02  5.32025E+03  3.31921E+03  4.59139E+03  6.46591E+03
 -9.42453E+02  8.14442E+03 -7.41862E+03  6.22678E+03 -9.70229E+03  1.30262E+03 -7.24094E+03 -2.09272E+03
 -4.27207E+03 -6.20661E+03 -3.63725E+02 -4.66096E+03  1.96674E+03 -1.45405E+03  1.48978E+03 -2.24188E+03
  1.00385E+03 -2.12756E+03  2.22750E+03 -1.96950E+03  3.44724E+03 -1.50957E+03  3.49955E+03  6.96862E+02
  4.11376E+03  1.24396E+03  1.30278E+03  3.04176E+03 -1.64097E+03  2.63839E+03 -4.29680E+03  2.19749E+03
 -4.65915E+03 -1.33995E+03 -1.42027E+03 -3.09562E+03  2.15303E+02 -4.15244E+03  3.15847E+03 -4.58627E+03
  5.20330E+03 -2.71954E+03  5.94323E+03  8.37688E+02  4.57749E+03  4.09476E+03  6.18628E+02  5.73070E+03
 -1.64024E+03  5.49430E+03 -3.31248E+03  1.81222E+03 -1.85742E+03 -1.10952E+03 -4.84287E+02 -5.56770E+02
  6.29438E+00  2.26092E+02 -1.02788E+03  2.04147E+03 -2.70117E+03  1.26902E+03 -3.65618E+03 -5.19735E+02
 -1.62115E+03 -2.95946E+03  7.86597E+02 -4.00713E+03  2.31948E+03 -3.99910E+03  3.45867E+03 -9.73745E+02
  3.22012E+03  2.41980E+03  1.84469E+03  3.09632E+03 -5.75355E+02  3.58884E+03 -2.32585E+03  2.29465E+03
 -3.14878E+03  6.17357E+02 -3.04363E+03 -2.81041E+03  2.28171E+02 -2.85852E+03  1.31003E+03 -2.24279E+03
  2.26201E+03 -1.11704E+03  1.27261E+03  4.50822E+02  5.15751E+02  1.88011E+03  8.21657E+02  7.39769E+02
  1.63006E+03  5.98728E+02  1.04713E+03  1.14266E+03  8.54920E+02  2.31722E+03  1.54072E+03  1.85887E+03
 -1.57719E+03  2.51622E+03 -2.19267E+03  3.91618E+03 -2.47816E+03  1.70668E+03 -3.20684E+03 -4.88063E+02
 -9.05566E+02 -3.37032E+03  9.56506E+02 -4.77349E+03  1.78396E+03 -2.14354E+03  2.78100E+03 -7.31351E+02
  1.90196E+03  1.35651E+03  8.47006E+01  2.22701E+03 -5.18237E+02  1.06793E+03 -6.50442E+02  6.09127E+01
 -8.10293E+02 -1.16240E+03  6.65875E+02 -1.84975E+03  1.22746E+03 -7.32006E+02  1.22639E+03  2.56539E+02
  6.37507E+02  7.03083E+02  9.91889E+02  1.71505E+02 -5.49648E+02  2.34339E+02  1.89318E+03 -2.60375E+02
 -2.53905E+01 -2.50741E+02  2.16362E+03  4.07256E+02  1.57512E+01  1.95060E+03 -6.20187E+02  2.60536E+03
 -8.91238E+02  1.04991E+03 -2.12379E+03  1.11135E+02 -1.87040E+03 -5.66098E+02 -3.22704E+02 -7.66528E+02
  3.60412E+02 -1.29563E+03  1.22724E+03 -1.20251E+03  2.96867E+02  1.23675E+03 -7.94701E+02  8.74619E+02
 -1.65502E+03  9.33506E+02 -1.08040E+03 -8.95932E+02 -1.25204E+03 -1.84272E+03  4.06665E+02 -1.02885E+03
 -1.85553E+02 -9.08176E+02  1.17517E+03  9.63995E+01  1.06635E+03 -2.01448E+02  2.83838E+02  9.38627E+02
 -4.56133E+02  1.10356E+01 -1.07496E+03 -1.49366E+02  5.07400E+02 -7.53534E+02  8.98752E+02 -1.50072E+03
  1.20753E+03  3.48092E+02  2.60057E+03  3.35881E+02  6.69554E+02  1.18961E+03 -3.07363E+02  1.13118E+03
 -1.73397E+03  4.92018E+02 -1.61878E+03 -4.36570E+02 -7.30666E+02 -1.46441E+03  5.18810E+02 -4.23667E+02
  1.51727E+03 -8.29510E+02  7.43026E+02  5.95856E+02  2.07378E+02  1.19314E+03  1.12182E+02  1.20878E+03
 -1.83424E+02  1.29783E+03 -2.32617E+02  4.27974E+02 -3.27279E+02  9.18893E-01 -1.92688E+02 -8.51771E+01
 -8.57916E+02  9.88369E+02 -1.80912E+03  5.96230E+02 -1.28213E+03  3.21544E+02 -2.01713E+03 -7.79258E+02
 -5.75699E+02 -2.46952E+03 -1.31119E+02 -2.70950E+03  3.58617E+02 -2.67650E+03  2.47382E+03 -8.81550E+02
  2.32402E+03 -6.35413E+01  1.51377E+03  1.65021E+03 -4.08301E+02  1.45758E+03 -2.56166E+02  1.57471E+03
 -1.05851E+03  9.66828E+02 -1.44068E+02  2.87669E+01 -2.82264E+02  7.98171E+01 -5.81297E+02 -4.78886E+02
 -7.68146E+02 -1.65633E+02 -5.64756E+02 -1.04702E+02  2.17344E+02 -3.25435E+02 -1.02416E+02 -1.31953E+03
  8.79353E+02 -6.53568E+02  5.30796E+02 -5.15175E+02  1.45967E+03  1.33572E+03 -5.71832E+02  7.98866E+02
 -1.21703E+03  1.97570E+03 -1.72406E+03  1.41810E+03 -1.92476E+03 -4.86142E+02 -9.46558E+02 -7.43029E+02
 -7.40136E+02 -1.57547E+03  3.99232E+02 -1.63735E+03  3.90794E+02 -3.68760E+02  6.31320E+02  1.62776E+02
  3.84316E+02  4.59531E+02  2.70795E+02  7.12635E+02 -8.58156E+02  1.56803E+02 -2.03536E+01  6.78238E+01
  8.53128E+02  2.79767E+01  2.27557E+02  2.48173E+02  2.52218E+02  3.99405E+02  6.74848E+02  4.03159E+02
 -9.29018E+02  7.21775E+02  2.97622E+01  2.01766E+02 -7.57100E+02 -3.74979E+02  1.42386E+02 -6.71482E+02
  8.23394E+02 -4.25503E+02  6.79995E+02 -2.87546E+02  3.19861E+02 -3.71523E+02  9.56536E+02  9.42606E+02
  3.35387E+02  5.80407E+01 -7.99106E+01  3.32081E+02 -5.01631E+02 -3.68557E+01 -2.49459E+02 -8.88825E+02
 -3.51931E+01  1.40050E+01 -8.13695E+02  7.21674E+02 -8.62393E+02 -9.95597E+00 -7.08716E+02 -2.00191E+02
 -8.25985E+02  1.10252E+02  8.30463E+01 -9.09311E+02  7.97838E+02 -1.45022E+03  9.77971E+02  5.29287E+01
  8.97601E+02  5.82773E+02 -3.95895E+02  2.41342E+02 -6.35158E+02  2.96712E+02 -5.72778E+02  2.34960E+02
