 $NMID ID='MM_0lb_SNR400_17hz_g40_75.RAW', FMTDAT='(8E13.5)'
 TRAMP=1., VOLUME=1. $END
  3.10096E+05  2.50804E+02  3.37253E+05  2.50358E+05  8.39384E+04  3.37454E+05 -1.32527E+05  2.50038E+05
 -1.89494E+05  8.24380E+04 -1.10364E+05 -3.28217E+04  1.58581E+03 -4.99022E+04  5.35446E+04  1.64402E+02
  3.54090E+04  5.28445E+04 -1.65704E+04  7.54622E+04 -6.04608E+04  6.30255E+04 -8.31390E+04  3.12809E+04
 -7.92170E+04 -1.12745E+04 -5.66047E+04 -4.98859E+04 -1.44027E+04 -6.79536E+04  2.68874E+04 -4.45009E+04
  3.91229E+04  3.83039E+03  1.58268E+04  4.64536E+04 -3.37501E+04  4.58059E+04 -6.58572E+04 -2.84002E+02
 -5.22924E+04 -5.59360E+04 -5.99927E+03 -7.54228E+04  3.32189E+04 -5.33056E+04  4.64047E+04 -1.62195E+04
  4.21929E+04  1.11206E+04  3.13238E+04  2.51190E+04  1.57651E+04  2.83676E+04 -4.45550E+03  2.68456E+04
 -2.19485E+04  1.24478E+04 -1.89108E+04 -4.29145E+03  4.53097E+03 -7.42132E+03  2.10901E+04  1.10280E+04
  7.44291E+03  3.39314E+04 -3.05159E+04  3.44753E+04 -6.12016E+04  2.35224E+03 -5.54806E+04 -4.10336E+04
 -1.18657E+04 -6.14603E+04  3.83667E+04 -4.33382E+04  5.56872E+04 -1.84949E+03  3.19808E+04  3.08065E+04
 -6.39053E+03  3.31529E+04 -2.89234E+04  1.38801E+04 -2.76461E+04 -5.21438E+03 -1.44620E+04 -1.04020E+04
 -7.15219E+03 -1.14067E+04 -6.91134E+02 -1.64908E+04  6.74887E+03 -2.30193E+04  1.54995E+04 -1.33413E+04
  1.22480E+04  4.22655E+03 -6.98350E+03  1.32444E+04 -1.98295E+04 -2.72013E+03 -7.65719E+03 -3.08682E+04
  2.09506E+04 -4.08498E+04  4.52064E+04 -1.85434E+04  4.21460E+04  1.83004E+04  1.45624E+04  4.18237E+04
 -1.54182E+04  3.13897E+04 -2.35476E+04  1.09488E+03 -8.95304E+03 -2.65257E+04  2.06561E+04 -3.17447E+04
  3.87993E+04 -7.79702E+03  3.22282E+04  2.28378E+04  1.55497E+04  4.23718E+04 -7.78328E+03  4.55212E+04
 -2.92227E+04  3.00770E+04 -3.80158E+04  8.87973E+03 -3.90036E+04 -1.52020E+04 -2.15542E+04 -3.43451E+04
  6.63743E+03 -3.49637E+04  2.94148E+04 -1.31735E+04  2.68172E+04  1.07924E+04  3.01550E+03  1.78382E+04
 -1.26682E+04  6.55645E+03 -9.29594E+03 -8.05075E+03  6.01191E+03 -1.03150E+04  1.70694E+04  6.12982E+03
  1.26618E+04  2.16587E+04 -6.24938E+03  2.40320E+04 -2.17533E+04  9.69271E+03 -2.55826E+04 -5.92140E+03
 -1.66576E+04 -1.60835E+04 -5.36486E+03 -1.76341E+04  3.91120E+03 -1.50625E+04  1.27094E+04 -1.51424E+04
  2.23267E+04 -1.19143E+04  2.88310E+04  1.17166E+03  2.17774E+04  1.75610E+04  4.16186E+03  3.35547E+04
 -1.65866E+04  2.81504E+04 -2.65731E+04  9.31436E+03 -1.92303E+04 -1.05206E+04 -3.47810E+03 -1.34078E+04
  2.46360E+03 -3.64838E+03 -2.86968E+03  5.91983E+03 -1.34273E+04  5.48345E+03 -1.41369E+04 -4.99523E+03
 -9.12808E+03 -1.64001E+04  4.51850E+03 -1.93543E+04  1.29289E+04 -1.44811E+04  1.50575E+04 -7.85313E+02
  9.49196E+03  1.17378E+04 -6.21517E+02  1.61293E+04 -1.04258E+04  9.29746E+03 -1.54460E+04 -3.01910E+03
 -1.17391E+04 -1.43621E+04 -1.30974E+03 -1.90911E+04  9.21634E+03 -1.56141E+04  1.67246E+04 -7.34250E+03
  1.48416E+04  4.97720E+02  1.08214E+04  4.15253E+03  5.34541E+03  9.31802E+02  8.37854E+03 -1.09783E+03
  1.39055E+04  2.58599E+03  1.47400E+04  1.33487E+04  1.01120E+04  2.54167E+04 -2.89305E+03  2.81848E+04
 -1.63910E+04  2.12593E+04 -2.56886E+04  1.03672E+04 -2.60977E+04 -2.05881E+03 -2.23555E+04 -1.53667E+04
 -1.00130E+04 -2.14646E+04  7.01775E+03 -1.97205E+04  1.67026E+04 -1.13588E+04  1.57524E+04  3.99805E+03
  6.63507E+03  1.14756E+04 -8.00228E+03  1.06818E+04 -1.42876E+04  2.80813E+03 -1.07319E+04 -8.61709E+03
  1.84029E+02 -1.24642E+04  6.10105E+03 -9.65646E+03  7.87766E+03 -1.87955E+03  1.30664E+03  5.61702E+03
 -6.01182E+03  1.23574E+03 -3.80520E+03 -4.77981E+03  8.29581E+02 -1.03690E+04  8.00595E+03 -1.05527E+04
  1.28182E+04 -4.72787E+03  1.28176E+04  2.66592E+03  1.09467E+04  1.06497E+04  5.71846E+03  1.48642E+04
 -1.94290E+03  1.69087E+04 -1.07414E+04  1.07246E+04 -1.23129E+04  3.18495E+03 -8.44504E+03 -1.63469E+03
 -4.37738E+03 -4.07402E+03 -9.36706E+02  1.78147E+03 -1.91864E+03  1.90097E+03 -4.28653E+03  3.99457E+03
 -8.88193E+03 -5.26435E+02 -9.15279E+03 -7.33538E+03 -3.40429E+03 -1.17733E+04  3.66218E+03 -9.04210E+03
  7.65519E+03 -3.76004E+03  5.59715E+03  2.50101E+03  1.63698E+02  3.06354E+03 -4.20492E+03 -4.48041E+02
 -3.97475E+03 -5.87012E+03 -8.61166E+02 -7.89890E+03  4.44198E+03 -8.63598E+03  1.02855E+04 -4.86237E+03
  1.27219E+04  2.64122E+02  9.69482E+03  7.06223E+03  1.58462E+03  9.34584E+03 -5.11493E+03  9.16285E+03
 -7.37960E+03  2.95579E+03 -3.62190E+03 -8.30517E+02  1.25548E+03 -1.85007E+03  4.96425E+03 -5.99456E+02
  4.13921E+03  3.59593E+03  8.96679E+02  6.38656E+03 -4.76401E+03  6.77185E+03 -8.51777E+03  1.90855E+03
 -5.19769E+03 -4.20585E+03  3.41201E+02 -7.14067E+03  3.63672E+03 -3.68319E+03  3.62302E+03  9.84494E+02
  8.10836E+02  4.11278E+03 -4.95651E+03  4.96444E+03 -5.08790E+03  1.99040E+03 -5.68309E+03 -1.35929E+03
 -3.49366E+03 -6.27674E+03  1.39113E+03 -8.34839E+03  6.98152E+03 -5.34049E+03  7.48124E+03  1.48314E+03
  4.85862E+03  5.93462E+03 -8.28650E+01  7.54177E+03 -5.35459E+03  4.69666E+03 -5.50901E+03 -3.19374E+02
 -6.01945E+03 -5.80565E+03 -1.19700E+03 -5.48723E+03  2.77509E+03 -5.14657E+03  2.97976E+03 -2.71115E+03
  2.66528E+03  1.05273E+02 -3.24589E+02  1.95888E+03  5.57165E+02 -1.18424E+02  5.77522E+02 -2.64584E+03
  4.67686E+03 -1.44708E+03  5.92268E+03  7.11221E+02  6.18086E+03  3.67899E+03  5.30190E+03  7.80549E+03
 -9.19980E+02  9.56711E+03 -8.38884E+03  7.21094E+03 -1.10964E+04  1.34755E+03 -8.94242E+03 -3.10470E+03
 -4.52389E+03 -7.47123E+03 -2.51380E+02 -6.48641E+03  2.83601E+03 -2.72089E+03  1.97017E+03 -2.16482E+03
  1.34012E+03 -1.28498E+03  1.97519E+03 -1.88238E+03  3.56015E+03 -1.72848E+03  3.90856E+03  2.45272E+02
  5.45296E+03  1.48170E+03  1.38080E+03  3.52211E+03 -1.48900E+03  3.28973E+03 -5.26683E+03  3.26275E+03
 -5.72145E+03 -1.24825E+03 -2.75406E+03 -4.09661E+03 -2.82155E+01 -5.70861E+03  3.62355E+03 -6.06703E+03
  5.23797E+03 -3.90023E+03  7.92989E+03  4.40531E+02  4.90895E+03  4.75338E+03  1.19269E+03  7.02764E+03
 -2.08899E+03  6.44184E+03 -3.40846E+03  2.34553E+03 -2.27505E+03 -1.00805E+03 -7.15228E+02 -9.04866E+02
 -7.62995E+02  4.21201E+02 -1.33782E+03  2.41690E+03 -2.60069E+03  1.28763E+03 -4.54666E+03 -1.00361E+03
 -1.71661E+03 -4.31102E+03  6.69873E+02 -5.06204E+03  3.51380E+03 -5.33261E+03  4.36540E+03 -1.26357E+03
  4.87785E+03  2.80124E+03  2.48393E+03  4.16177E+03 -1.18222E+03  5.13957E+03 -2.51932E+03  2.45445E+03
 -4.74153E+03  2.84349E+02 -3.68791E+03 -2.65888E+03 -7.67962E+01 -3.98494E+03  1.84895E+03 -3.32753E+03
  2.75607E+03 -1.73249E+03  2.61968E+03  4.75554E+02  4.43117E+02  1.85473E+03  9.69736E+02  1.08692E+01
  1.94074E+03  8.85785E+02  1.19685E+03  6.33554E+02  1.54646E+03  2.54613E+03  1.74051E+03  2.02993E+03
 -1.47029E+03  3.67236E+03 -3.06995E+03  4.65396E+03 -3.60931E+03  1.33795E+03 -5.29838E+03 -1.05476E+03
 -2.58994E+03 -4.77625E+03  5.25511E+02 -5.51528E+03  2.09251E+03 -3.45984E+03  3.68445E+03 -1.56779E+03
  3.55155E+03  2.15251E+03  4.92972E+02  2.74758E+03 -1.32336E+03  1.88486E+03 -1.25175E+03  4.38547E+02
 -5.14362E+02 -1.68273E+03  1.42104E+03 -2.06591E+03  1.92826E+03 -1.32536E+03  1.43998E+03 -5.24802E+01
  1.31729E+03  5.48784E+02  6.80843E+02  3.28199E+01 -2.61817E+02  4.55784E+02  1.16682E+03 -1.02131E+02
 -3.27629E+02 -1.93597E+02  2.42174E+03  6.59945E+02  6.78106E+02  2.86165E+03 -8.06067E+02  3.58515E+03
 -2.49876E+03  1.56909E+03 -2.54946E+03  9.70683E+02 -2.57626E+03 -8.44148E+02 -1.32659E+02 -1.65460E+03
  7.32603E+02 -1.72605E+03  1.26655E+03 -1.00853E+03  1.02720E+03  1.64995E+03 -5.34353E+02  1.46314E+03
 -1.51302E+03  6.22644E+02 -1.30785E+03 -1.37702E+03 -1.02448E+03 -3.16412E+03  5.98756E+02 -2.30643E+03
  9.44447E+02 -9.97976E+02  1.28108E+03  4.75299E+02  1.21243E+03 -3.59584E+02  5.87712E+02  9.37336E+02
 -4.01688E+02  1.55914E+02 -8.97541E+02 -1.02868E+02  9.43580E+02 -9.51966E+02  2.18102E+03 -5.57309E+02
  2.24675E+03  1.50408E+02  2.75732E+03  1.48823E+03  1.59152E+03  1.70167E+03 -3.38283E+02  2.31381E+03
 -1.66407E+03  7.59597E+02 -2.02756E+03 -2.13248E+01 -1.66464E+03 -2.00217E+03  4.96616E+02 -6.38903E+02
  2.16649E+03 -7.24131E+02  1.36496E+03  4.43997E+02  6.75351E+02  1.74953E+03  1.78584E+02  1.14464E+03
 -8.60359E+02  1.46099E+03 -5.57980E+02  2.44198E+02 -1.40021E+02  4.24961E+02 -8.46448E+02  3.21940E+02
 -1.28958E+03  6.77381E+02 -2.17337E+03  6.24572E+02 -2.78456E+03 -2.71302E+02 -2.38440E+03 -1.39581E+03
 -1.65216E+03 -2.43429E+03  5.67661E+02 -3.20558E+03  1.55985E+03 -3.02771E+03  3.78652E+03 -1.18963E+03
  3.41908E+03  3.47272E+02  1.57721E+03  2.12924E+03 -3.44048E+02  2.26696E+03 -7.00959E+02  1.66422E+03
 -1.50813E+03  4.58324E+02 -8.26749E+02 -2.10985E+02 -1.05999E+03  8.63751E+01 -1.03174E+03 -2.22484E+02
 -1.24268E+03 -1.21989E+02 -1.31916E+03  1.84334E+02  5.30951E+02 -1.33837E+02 -1.74693E+02 -9.66957E+02
  1.59244E+03 -7.25191E+02  5.68617E+02  6.16712E+02  1.79977E+03  1.11255E+03 -4.28834E+02  2.22662E+03
 -1.25185E+03  2.57833E+03 -2.15449E+03  1.79218E+03 -2.63587E+03  1.17596E+02 -1.50449E+03 -1.49028E+03
 -1.20947E+03 -2.27085E+03  3.03315E+02 -2.23832E+03  8.69681E+02 -1.03939E+03  1.45027E+03 -2.03783E+02
  7.93905E+02  1.18795E+03  2.29840E+02  6.07604E+02 -5.66371E+02 -1.63226E+01 -1.56699E+02 -5.91568E+02
  7.73383E+02  3.03744E+02  2.04499E+02  3.54394E+02  5.30694E+02  3.47537E+02  4.20382E+02  4.28420E+02
 -1.01162E+03  6.29231E+02 -1.44811E+03  2.13272E+02 -9.07809E+02 -1.80679E+03 -1.35672E+02 -1.55078E+03
  1.25764E+03 -7.99558E+02  1.03751E+03 -4.48173E+02  1.67775E+03 -1.02085E+03  4.99129E+02  9.95431E+02
  2.44080E+02  1.11410E+03  2.61087E+02  8.97001E+02 -7.86963E+02  7.01904E+02  7.18079E+01  2.55349E+02
 -2.89315E+02  2.33801E+02 -8.07805E+02  2.63551E+02 -5.20903E+02  1.95659E+02 -9.07880E+02 -4.41590E+02
 -1.24354E+03  5.01243E+02 -3.73629E+02 -1.02435E+03  3.18574E+02 -1.75147E+03  1.26823E+03 -7.06310E+02
  1.19005E+03  3.99159E+01 -8.20372E+02  5.98781E+02 -8.63090E+01  1.56317E+03 -1.11681E+03  1.31573E+03
