 $NMID ID='MM_0lb_SNR400_14hz_g50_14.RAW', FMTDAT='(8E13.5)'
 TRAMP=1., VOLUME=1. $END
  3.10173E+05  2.88024E+02  3.37817E+05  2.51248E+05  8.47872E+04  3.37704E+05 -1.32224E+05  2.50894E+05
 -1.90575E+05  8.37115E+04 -1.12236E+05 -3.21067E+04  6.08379E+02 -5.11024E+04  5.38623E+04  4.10902E+02
  3.48889E+04  5.30677E+04 -1.68407E+04  7.52546E+04 -6.03246E+04  6.34998E+04 -8.37578E+04  3.17115E+04
 -8.09500E+04 -1.09965E+04 -5.73506E+04 -5.11316E+04 -1.45253E+04 -6.99878E+04  2.74722E+04 -4.51795E+04
  4.04192E+04  3.83781E+03  1.58841E+04  4.80939E+04 -3.36921E+04  4.67823E+04 -6.67098E+04 -3.69001E+02
 -5.27943E+04 -5.67245E+04 -6.81246E+03 -7.69463E+04  3.37416E+04 -5.59638E+04  4.78552E+04 -1.72729E+04
  4.35239E+04  1.08448E+04  3.19539E+04  2.56376E+04  1.57411E+04  2.99256E+04 -4.55311E+03  2.77009E+04
 -2.26717E+04  1.25257E+04 -1.88881E+04 -4.92494E+03  5.18170E+03 -7.33849E+03  2.20920E+04  1.24390E+04
  7.80293E+03  3.56547E+04 -3.22414E+04  3.53577E+04 -6.35093E+04  2.10345E+03 -5.76726E+04 -4.34910E+04
 -1.22684E+04 -6.29924E+04  4.05100E+04 -4.58507E+04  5.81736E+04 -2.02624E+03  3.38906E+04  3.25680E+04
 -5.93579E+03  3.66041E+04 -2.94534E+04  1.65298E+04 -3.04125E+04 -4.63666E+03 -1.59992E+04 -1.08953E+04
 -8.40763E+03 -1.31762E+04 -4.98233E+02 -1.85002E+04  7.51930E+03 -2.30901E+04  1.48976E+04 -1.40589E+04
  1.13669E+04  5.52895E+03 -8.24653E+03  1.35775E+04 -2.08443E+04 -5.16833E+03 -8.13409E+03 -3.38343E+04
  2.32248E+04 -4.34804E+04  4.83133E+04 -2.00669E+04  4.47679E+04  1.95280E+04  1.60185E+04  4.39457E+04
 -1.57431E+04  3.33797E+04 -2.54642E+04  2.32832E+03 -9.55570E+03 -2.77942E+04  2.06415E+04 -3.39643E+04
  4.13655E+04 -9.23057E+03  3.53437E+04  2.44897E+04  1.83050E+04  4.65452E+04 -8.05128E+03  5.13015E+04
 -3.21062E+04  3.44552E+04 -4.19116E+04  9.07819E+03 -4.27431E+04 -1.62988E+04 -2.32066E+04 -3.81264E+04
  7.14014E+03 -3.72360E+04  3.14838E+04 -1.53659E+04  2.88311E+04  1.11619E+04  3.31756E+03  1.90353E+04
 -1.39901E+04  8.43985E+03 -1.03374E+04 -7.68252E+03  5.99084E+03 -1.09679E+04  1.82772E+04  5.65243E+03
  1.27152E+04  2.16841E+04 -6.49692E+03  2.53494E+04 -2.24750E+04  1.12975E+04 -2.86867E+04 -4.80123E+03
 -2.04435E+04 -1.72987E+04 -8.13384E+03 -2.09259E+04  3.60686E+03 -1.98298E+04  1.59048E+04 -1.85325E+04
  2.64914E+04 -1.31924E+04  3.28689E+04  2.57492E+03  2.35748E+04  2.01842E+04  3.95287E+03  3.65842E+04
 -1.78382E+04  3.02080E+04 -2.83962E+04  1.10870E+04 -2.11198E+04 -1.04353E+04 -4.06659E+03 -1.37085E+04
  2.39604E+03 -2.32087E+03 -5.19187E+03  6.68643E+03 -1.65365E+04  4.68809E+03 -1.63891E+04 -6.62703E+03
 -1.04370E+04 -1.90945E+04  5.74545E+03 -2.28718E+04  1.57136E+04 -1.62554E+04  1.80251E+04 -1.58786E+03
  1.13955E+04  1.36388E+04 -6.62812E+02  1.93859E+04 -1.37489E+04  1.10645E+04 -1.83608E+04 -4.40646E+03
 -1.40377E+04 -1.72219E+04 -1.53046E+03 -2.36931E+04  1.07988E+04 -1.94772E+04  1.96757E+04 -9.29562E+03
  1.79177E+04  6.43160E+02  1.23937E+04  4.74725E+03  6.66048E+03  1.52235E+03  1.04109E+04 -1.71850E+03
  1.72018E+04  2.47505E+03  1.90579E+04  1.47474E+04  1.26008E+04  3.02891E+04 -2.40416E+03  3.49615E+04
 -2.01764E+04  2.78155E+04 -3.24760E+04  1.39562E+04 -3.36861E+04 -2.29112E+03 -2.80101E+04 -1.96565E+04
 -1.20739E+04 -2.78450E+04  9.60788E+03 -2.52515E+04  2.12576E+04 -1.28760E+04  1.93954E+04  6.29264E+03
  7.64650E+03  1.39013E+04 -9.14965E+03  1.29294E+04 -1.64152E+04  2.58448E+03 -1.32642E+04 -9.85956E+03
 -1.96121E+01 -1.54532E+04  8.21005E+03 -1.17914E+04  1.03784E+04 -1.58224E+03  2.44154E+03  6.54956E+03
 -6.87758E+03  2.06337E+03 -6.35162E+03 -5.23951E+03 -3.85109E+02 -1.38866E+04  9.58790E+03 -1.40716E+04
  1.73227E+04 -7.74369E+03  1.74158E+04  3.65393E+03  1.61430E+04  1.38818E+04  7.27226E+03  2.10057E+04
 -3.93395E+03  2.26472E+04 -1.37137E+04  1.46349E+04 -1.55652E+04  3.51577E+03 -1.19696E+04 -3.17204E+03
 -5.77585E+03 -4.94830E+03 -1.23504E+03  1.18495E+03 -1.89633E+03  2.20970E+03 -5.08478E+03  4.55171E+03
 -1.04213E+04 -6.99752E+02 -1.09600E+04 -9.04339E+03 -4.40892E+03 -1.49504E+04  4.57587E+03 -1.17330E+04
  9.75620E+03 -5.06752E+03  6.70884E+03  3.06658E+03  2.73712E+02  4.25590E+03 -5.67337E+03 -4.78987E+02
 -4.75697E+03 -7.17450E+03 -1.09089E+03 -1.04914E+04  6.31160E+03 -1.19616E+04  1.41118E+04 -6.71785E+03
  1.63507E+04  1.44780E+03  1.18691E+04  9.30432E+03  2.68701E+03  1.30471E+04 -6.75979E+03  1.12352E+04
 -9.23806E+03  3.99849E+03 -4.76936E+03 -1.87602E+03  2.00781E+03 -2.49159E+03  5.88018E+03 -9.80291E+02
  5.19176E+03  4.45781E+03  1.08122E+03  9.04383E+03 -6.63333E+03  8.77234E+03 -1.02954E+04  1.81344E+03
 -7.13240E+03 -5.62369E+03  1.50449E+02 -9.18940E+03  5.30204E+03 -4.26921E+03  5.89072E+03  1.61952E+03
  1.57707E+03  5.87414E+03 -5.69342E+03  7.57617E+03 -8.84716E+03  2.87245E+03 -8.52859E+03 -2.79813E+03
 -4.87651E+03 -1.00138E+04  2.39485E+03 -1.14880E+04  1.00394E+04 -6.86848E+03  1.00564E+04  1.77921E+03
  6.88972E+03  8.72053E+03 -3.49531E+02  1.09577E+04 -7.53254E+03  5.99222E+03 -8.16305E+03 -1.04647E+03
 -7.84501E+03 -7.90059E+03 -1.30380E+03 -7.59920E+03  4.23538E+03 -6.37685E+03  4.98078E+03 -3.29407E+03
  3.78974E+03  1.00696E+03 -3.82078E+02  1.45197E+03  1.04779E+02 -2.34753E+03  1.70994E+03 -4.50831E+03
  6.55535E+03 -2.63134E+03  9.28577E+03  9.30621E+02  8.97534E+03  6.60060E+03  7.02579E+03  1.21659E+04
 -2.63409E+03  1.39725E+04 -1.22895E+04  1.06617E+04 -1.60757E+04  2.53100E+03 -1.21036E+04 -4.56009E+03
 -6.30116E+03 -1.09662E+04 -5.84218E+02 -8.98218E+03  3.10216E+03 -4.71817E+03  3.45737E+03 -3.19915E+03
  2.52520E+03 -1.55015E+03  2.41819E+03 -3.36760E+03  4.52264E+03 -2.29041E+03  4.79181E+03 -6.68155E+02
  6.76417E+03  2.21838E+03  2.51551E+03  5.27762E+03 -1.35951E+03  5.81123E+03 -6.47219E+03  4.84708E+03
 -8.41519E+03 -9.47001E+02 -4.58143E+03 -5.95194E+03 -2.54988E+02 -8.69869E+03  5.36979E+03 -8.54265E+03
  8.90586E+03 -5.81809E+03  1.12107E+04  8.37688E+02  7.17435E+03  7.75002E+03  1.71242E+03  9.46077E+03
 -4.26092E+03  8.84901E+03 -5.42738E+03  2.82190E+03 -4.29854E+03 -1.19863E+03 -9.28752E+02 -3.47729E+02
 -4.32184E+02  2.57380E+02 -1.37054E+03  2.41660E+03 -3.97772E+03  8.94136E+02 -5.69936E+03 -6.30971E+02
 -3.46553E+03 -6.03554E+03  5.78111E+02 -9.06598E+03  4.82694E+03 -7.52822E+03  6.90889E+03 -2.22973E+03
  7.69872E+03  3.75227E+03  3.80193E+03  7.02665E+03 -1.35493E+03  8.50550E+03 -5.65002E+03  4.79327E+03
 -7.20955E+03  3.85793E+02 -6.05024E+03 -4.78671E+03 -4.72827E+02 -6.04581E+03  3.37107E+03 -4.59072E+03
  4.92338E+03 -1.82105E+03  3.35146E+03  1.87297E+03  9.97594E+02  2.00214E+03  1.12839E+03  1.17011E+03
  2.18589E+03  8.22720E+02  2.36304E+03  1.46060E+03  2.22877E+03  2.74988E+03  1.48664E+03  3.63401E+03
 -1.70246E+03  6.31884E+03 -5.46042E+03  6.41394E+03 -7.11099E+03  1.86205E+03 -8.29042E+03 -2.59655E+03
 -3.49089E+03 -7.33792E+03  1.14961E+03 -8.46170E+03  4.48102E+03 -5.03497E+03  7.36985E+03 -1.53276E+03
  4.63059E+03  3.04687E+03  1.34415E+03  3.38786E+03 -1.58726E+03  3.61539E+03 -2.55933E+03 -2.24074E+02
 -1.40023E+03 -2.96420E+03  1.05943E+03 -2.97979E+03  3.03421E+03 -1.25266E+03  3.37583E+03  1.25105E+03
  1.54900E+03  1.20887E+03  9.85960E+02  7.68684E+02 -4.00718E+02  7.10621E+02  1.19200E+03 -8.71238E+02
  4.44496E+02 -9.32371E+02  3.68124E+03  1.24097E+03  1.77324E+03  4.43787E+03 -4.70867E+02  5.16000E+03
 -3.21149E+03  2.72071E+03 -4.95932E+03  1.42279E+03 -4.01610E+03 -1.36649E+03 -1.69976E+03 -2.67148E+03
  5.88219E+02 -2.58015E+03  2.30455E+03 -1.46308E+03  1.56314E+03  1.87247E+03 -7.18833E+02  1.46262E+03
 -3.10174E+03  1.04800E+03 -2.83410E+03 -2.62576E+03 -1.77602E+03 -3.99996E+03  4.16706E+02 -3.73076E+03
  1.93249E+03 -1.81929E+03  3.06996E+03 -6.88212E+02  2.31145E+03  1.04103E+03  1.72612E+02  1.86730E+03
 -9.85868E+02  5.23425E+02 -1.24253E+03 -1.21180E+03  1.32381E+03 -2.42892E+03  3.60246E+03 -2.16990E+03
  3.88698E+03  9.54988E+02  4.39074E+03  3.25112E+03  1.96802E+03  4.01655E+03 -1.61243E+03  4.27118E+03
 -3.58378E+03  1.93090E+03 -3.65509E+03 -1.00311E+02 -2.12837E+03 -2.37590E+03  4.54311E+02 -2.72250E+03
  2.82671E+03 -1.43378E+03  1.96736E+03  1.09707E+03  8.41618E+02  2.79197E+03 -6.75727E+02  2.03678E+03
 -1.20783E+03  1.92823E+03 -1.74766E+03 -3.23929E+02  1.73080E+02  8.95034E+02 -9.04813E+02  1.11578E+03
 -1.58188E+03  1.59416E+03 -3.37215E+03  1.13551E+03 -3.98024E+03 -6.44618E+01 -5.83193E+03 -2.53639E+03
 -2.57103E+03 -4.98921E+03  1.36522E+03 -5.89815E+03  3.31770E+03 -5.39562E+03  5.39585E+03 -1.77462E+03
  5.70700E+03  8.57644E+02  2.87598E+03  3.83831E+03 -3.02591E+02  4.10929E+03 -2.20149E+03  3.54682E+03
 -2.45527E+03  9.74442E+02 -7.63332E+02 -2.63648E+02 -4.98265E+02  1.39431E+01 -7.46901E+02 -5.37352E+01
 -1.39555E+03  1.55917E+02 -9.82251E+02 -3.64781E+02  8.30833E+01 -9.45161E+02  9.46079E+01 -1.90502E+03
  2.05808E+03 -1.45410E+03  2.26384E+03 -2.53332E-01  2.95218E+03  2.29926E+03  7.34082E+02  3.76087E+03
 -1.77216E+03  4.73035E+03 -4.45367E+03  3.87942E+03 -4.75722E+03 -7.89490E+01 -3.54286E+03 -2.91658E+03
 -1.58911E+03 -4.07070E+03  6.61129E+02 -2.96005E+03  2.46620E+03 -1.71587E+03  1.77610E+03 -8.41469E+00
  2.43261E+03  8.95353E+02  2.77712E+02  1.09017E+03 -4.00189E+02 -4.96612E+02  5.86182E+02 -6.41822E+02
  1.10909E+03 -4.93918E+02  1.76840E+03  9.42390E+02  6.93156E+00  1.34404E+03 -9.33624E+01  2.22727E+03
 -1.42653E+03  2.31578E+03 -2.03793E+03  1.91165E+02 -2.27991E+03 -1.87706E+03 -2.75579E+02 -3.74940E+03
  1.48078E+03 -2.05104E+03  2.24015E+03 -2.23915E+02  1.79366E+03 -4.47293E+02  1.55562E+03  2.03777E+03
  8.45503E+02  2.18516E+03 -1.36420E+03  2.20823E+03 -2.21284E+03  1.25388E+03 -1.67566E+03  4.20834E+02
 -1.63536E+02 -5.85084E+02 -1.33178E+03  2.04015E+02 -1.73507E+03  8.56967E+02 -1.88649E+03 -1.36245E+03
 -1.92750E+03 -1.20997E+03  1.65558E+02 -2.46896E+03  1.42507E+03 -2.64417E+03  1.94059E+03 -1.47356E+03
  2.41987E+03  6.54423E+01  9.44644E+02  1.63535E+03  4.86679E+02  2.21458E+03 -1.40335E+03  2.32076E+03
