 $NMID ID='MM_0lb_SNR400_10hz_g40_32.RAW', FMTDAT='(8E13.5)'
 TRAMP=1., VOLUME=1. $END
  3.09887E+05  7.18498E+02  3.38007E+05  2.50508E+05  8.44603E+04  3.38556E+05 -1.32509E+05  2.52240E+05
 -1.90936E+05  8.37008E+04 -1.11823E+05 -3.26091E+04  1.92833E+02 -5.03529E+04  5.43961E+04 -2.06179E+02
  3.55167E+04  5.31649E+04 -1.63399E+04  7.57098E+04 -6.11954E+04  6.37201E+04 -8.49881E+04  3.25506E+04
 -8.16002E+04 -1.20256E+04 -5.80513E+04 -5.19733E+04 -1.49006E+04 -7.04011E+04  2.76644E+04 -4.61999E+04
  4.09735E+04  3.71545E+03  1.66009E+04  4.83187E+04 -3.46239E+04  4.76727E+04 -6.76027E+04  1.87302E+02
 -5.42544E+04 -5.77536E+04 -6.73417E+03 -7.85971E+04  3.34338E+04 -5.60038E+04  4.87083E+04 -1.78854E+04
  4.44270E+04  1.15912E+04  3.25162E+04  2.55797E+04  1.57975E+04  2.99401E+04 -6.12533E+03  2.74239E+04
 -2.29892E+04  1.21533E+04 -1.78066E+04 -5.69507E+03  6.18630E+03 -7.49683E+03  2.29267E+04  1.33905E+04
  7.34794E+03  3.68609E+04 -3.38618E+04  3.58967E+04 -6.52163E+04  1.89075E+03 -5.78871E+04 -4.38723E+04
 -1.26628E+04 -6.43078E+04  4.12575E+04 -4.65617E+04  6.00047E+04 -2.62885E+03  3.58871E+04  3.31903E+04
 -6.03661E+03  3.75351E+04 -3.03191E+04  1.84671E+04 -3.27463E+04 -3.92305E+03 -1.88211E+04 -1.11326E+04
 -8.73710E+03 -1.42136E+04 -6.92600E+02 -1.87598E+04  7.95735E+03 -2.26453E+04  1.46974E+04 -1.29739E+04
  1.07931E+04  5.99268E+03 -9.67327E+03  1.26252E+04 -2.21522E+04 -5.50115E+03 -8.22305E+03 -3.64852E+04
  2.34206E+04 -4.49765E+04  4.95600E+04 -2.13422E+04  4.70835E+04  2.07990E+04  1.65922E+04  4.62167E+04
 -1.66495E+04  3.51665E+04 -2.68167E+04  2.40001E+03 -1.16217E+04 -2.85259E+04  2.09772E+04 -3.56707E+04
  4.30774E+04 -1.04651E+04  3.83975E+04  2.36927E+04  2.07634E+04  4.85851E+04 -8.91977E+03  5.37055E+04
 -3.41839E+04  3.64038E+04 -4.56745E+04  1.04218E+04 -4.60359E+04 -1.75292E+04 -2.49239E+04 -3.98349E+04
  8.03318E+03 -4.05563E+04  3.26046E+04 -1.59936E+04  3.12314E+04  1.04929E+04  4.99997E+03  1.98485E+04
 -1.39141E+04  9.01119E+03 -1.10738E+04 -7.93349E+03  5.70101E+03 -1.14749E+04  1.81941E+04  5.56102E+03
  1.36769E+04  2.28724E+04 -5.35688E+03  2.59633E+04 -2.34257E+04  1.30504E+04 -3.04292E+04 -3.67432E+03
 -2.29517E+04 -1.78410E+04 -1.05276E+04 -2.34263E+04  4.70694E+03 -2.25447E+04  1.87792E+04 -2.07893E+04
  3.02808E+04 -1.41971E+04  3.62903E+04  4.27677E+03  2.59250E+04  2.21226E+04  4.28635E+03  3.96814E+04
 -1.92032E+04  3.25778E+04 -3.00112E+04  1.14535E+04 -2.16276E+04 -1.07005E+04 -4.71275E+03 -1.29220E+04
  7.32625E+02 -1.31147E+03 -6.20231E+03  8.36157E+03 -1.88196E+04  5.35872E+03 -1.79075E+04 -8.84305E+03
 -1.10702E+04 -2.13159E+04  5.42579E+03 -2.57793E+04  1.77185E+04 -1.79578E+04  2.00702E+04 -9.50065E+02
  1.38627E+04  1.57954E+04 -7.61892E+02  2.11095E+04 -1.54859E+04  1.25227E+04 -2.17975E+04 -4.80795E+03
 -1.60724E+04 -1.91048E+04 -1.71330E+03 -2.64179E+04  1.18440E+04 -2.23173E+04  2.14337E+04 -1.06506E+04
  2.07495E+04  1.24359E+02  1.47566E+04  4.63069E+03  7.55357E+03  8.64939E+02  1.06787E+04 -2.74154E+03
  2.06484E+04  2.57251E+03  2.29052E+04  1.68478E+04  1.62456E+04  3.46783E+04 -2.43642E+03  4.04766E+04
 -2.34479E+04  3.32919E+04 -3.76114E+04  1.72262E+04 -4.02270E+04 -2.93166E+03 -3.31380E+04 -2.32528E+04
 -1.37871E+04 -3.29578E+04  1.21112E+04 -2.98496E+04  2.53686E+04 -1.47772E+04  2.17065E+04  6.36992E+03
  7.35328E+03  1.75757E+04 -9.74161E+03  1.46612E+04 -1.85794E+04  2.50070E+03 -1.35867E+04 -1.23561E+04
 -2.93107E+02 -1.78809E+04  8.95398E+03 -1.36240E+04  1.14441E+04 -1.26198E+03  2.62171E+03  8.02845E+03
 -7.83340E+03  4.08302E+03 -7.93000E+03 -6.61828E+03 -1.35853E+03 -1.60382E+04  1.04676E+04 -1.79981E+04
  2.03829E+04 -9.99280E+03  2.30092E+04  3.27489E+03  2.01282E+04  1.68757E+04  9.91174E+03  2.60611E+04
 -4.56862E+03  2.74524E+04 -1.81285E+04  1.67814E+04 -2.05594E+04  3.80198E+03 -1.39177E+04 -5.20479E+03
 -5.65593E+03 -6.52954E+03 -1.46829E+03  3.98639E+02 -1.65348E+03  3.86781E+03 -6.35714E+03  5.21916E+03
 -1.26214E+04 -1.04438E+03 -1.40623E+04 -1.06967E+04 -5.18373E+03 -1.82166E+04  6.05031E+03 -1.40122E+04
  1.13277E+04 -6.30744E+03  8.19477E+03  3.36330E+03  1.11718E+01  5.64989E+03 -7.49576E+03 -8.29743E+02
 -6.77907E+03 -8.91969E+03 -7.47851E+02 -1.31508E+04  8.08725E+03 -1.44689E+04  1.79850E+04 -7.01370E+03
  2.05190E+04  2.44448E+03  1.50343E+04  1.27244E+04  3.02631E+03  1.64118E+04 -8.79029E+03  1.42235E+04
 -1.08108E+04  5.03983E+03 -6.28860E+03 -3.45821E+03  2.43453E+03 -3.54574E+03  7.62055E+03 -1.01017E+03
  6.63376E+03  5.45585E+03  1.25923E+03  1.11538E+04 -8.58722E+03  1.10601E+04 -1.39865E+04  2.58213E+03
 -9.78733E+03 -7.26381E+03  1.81652E+02 -1.15345E+04  7.31912E+03 -6.07665E+03  7.60451E+03  2.88242E+03
  1.76568E+03  8.77756E+03 -7.33937E+03  9.86968E+03 -1.12381E+04  4.41043E+03 -1.23456E+04 -4.15509E+03
 -6.84173E+03 -1.37926E+04  3.40066E+03 -1.51960E+04  1.31472E+04 -8.75697E+03  1.42135E+04  2.30810E+03
  8.37672E+03  1.15350E+04 -8.51582E+02  1.38145E+04 -9.80031E+03  7.92322E+03 -1.15495E+04 -1.36984E+03
 -9.53056E+03 -8.92486E+03 -1.18075E+03 -1.13945E+04  5.78239E+03 -8.89922E+03  6.71301E+03 -3.67607E+03
  3.69312E+03  1.01993E+03 -9.80503E+01  2.12924E+03 -7.11824E+02 -3.17328E+03  2.52922E+03 -6.93193E+03
  1.00649E+04 -4.12340E+03  1.35599E+04  1.55694E+03  1.38324E+04  9.66885E+03  9.31215E+03  1.77634E+04
 -3.89643E+03  2.02253E+04 -1.67883E+04  1.54084E+04 -2.17529E+04  2.70454E+03 -1.78675E+04 -7.44192E+03
 -8.07576E+03 -1.47075E+04  1.43708E+01 -1.20032E+04  4.81499E+03 -6.25768E+03  4.64786E+03 -4.00431E+03
  3.14552E+03 -3.17176E+03  3.39510E+03 -3.82290E+03  5.54518E+03 -3.08860E+03  6.70896E+03 -8.10222E+02
  9.55107E+03  2.97423E+03  4.61465E+03  8.02951E+03 -2.06803E+03  9.69911E+03 -9.83694E+03  7.24381E+03
 -1.18183E+04 -1.16495E+03 -7.68580E+03 -8.56660E+03 -6.16401E+02 -1.33375E+04  7.61938E+03 -1.33512E+04
  1.41275E+04 -7.37778E+03  1.64371E+04  1.84639E+03  1.12834E+04  1.17004E+04  2.07882E+03  1.50404E+04
 -6.52611E+03  1.26271E+04 -8.71295E+03  4.28541E+03 -5.94332E+03 -1.39393E+03 -2.68755E+03 -1.66526E+03
 -1.70627E+03  3.80289E+02 -1.95584E+03  2.42267E+03 -6.12692E+03  2.17170E+03 -8.88395E+03 -1.66939E+03
 -5.10436E+03 -7.94595E+03  3.23660E+02 -1.21397E+04  7.59579E+03 -1.14698E+04  1.21438E+04 -3.58199E+03
  1.17229E+04  6.24817E+03  6.02299E+03  1.07499E+04 -1.63644E+03  1.22245E+04 -8.46527E+03  7.49811E+03
 -1.09917E+04  3.26180E+02 -8.65880E+03 -7.79889E+03 -1.13925E+03 -1.03127E+04  5.53342E+03 -7.45711E+03
  7.64909E+03 -2.85971E+03  4.47775E+03  1.88187E+03  2.04390E+03  3.66806E+03  1.43526E+03  1.22173E+03
  2.17849E+03  7.25650E+02  2.67754E+03  1.99051E+03  3.91054E+03  4.55994E+03  2.95353E+03  6.56697E+03
 -2.99126E+03  9.74236E+03 -8.69874E+03  9.85537E+03 -1.24658E+04  2.92531E+03 -1.29253E+04 -4.52675E+03
 -5.69968E+03 -1.30379E+04  1.54891E+03 -1.37800E+04  7.31737E+03 -8.66490E+03  9.72463E+03 -1.98376E+03
  8.02327E+03  4.41497E+03  1.85426E+03  6.84761E+03 -3.45479E+03  4.77108E+03 -4.89914E+03 -9.43187E+02
 -2.25217E+03 -5.36153E+03  2.90209E+03 -4.99278E+03  5.00262E+03 -2.27705E+03  5.00858E+03  1.51271E+03
  2.84387E+03  2.78334E+03  1.67449E+03  1.41203E+03 -9.54284E+02  2.14910E+03  1.93774E+03 -3.54654E+02
  9.49919E+02 -7.96004E+02  5.65563E+03  2.99286E+03  3.12590E+03  6.85714E+03 -4.00235E+02  9.20980E+03
 -6.03891E+03  5.19583E+03 -7.42904E+03  1.80628E+03 -6.91617E+03 -2.65595E+03 -2.50537E+03 -4.42023E+03
  1.08842E+03 -5.24016E+03  3.32409E+03 -1.72476E+03  2.88909E+03  2.71371E+03 -1.54606E+03  4.21281E+03
 -4.69899E+03  2.37546E+03 -5.54223E+03 -3.52661E+03 -3.37236E+03 -7.08941E+03  1.59712E+03 -7.05930E+03
  4.03336E+03 -3.86614E+03  5.00560E+03 -1.53033E+02  4.24007E+03  1.32845E+03  8.75500E+02  3.28910E+03
 -1.71703E+03  1.28661E+03 -2.87301E+03 -1.86324E+03  9.17007E+02 -5.40654E+03  6.08239E+03 -4.12950E+03
  7.10956E+03  8.42726E+02  7.94699E+03  5.86857E+03  3.18201E+03  7.96658E+03 -2.69716E+03  6.90045E+03
 -7.22768E+03  3.08135E+03 -7.01907E+03 -7.39481E+02 -3.74838E+03 -5.53047E+03  1.08784E+03 -4.53519E+03
  5.25061E+03 -2.07556E+03  4.45726E+03  1.97224E+03  1.06153E+03  4.62724E+03 -5.11770E+02  3.66443E+03
 -1.38661E+03  2.61311E+03 -1.13480E+03  1.01689E+03 -1.13722E+03  1.35538E+03 -1.63964E+03  1.81064E+03
 -2.42604E+03  2.87500E+03 -5.90759E+03  2.74884E+03 -8.31623E+03  2.66212E+02 -9.14706E+03 -5.29636E+03
 -4.81652E+03 -1.03202E+04  1.79962E+03 -1.23327E+04  7.68295E+03 -1.06401E+04  1.22313E+04 -4.10571E+03
  1.03828E+04  2.81569E+03  6.51797E+03  7.66538E+03  2.66263E+02  8.17133E+03 -2.93350E+03  5.82689E+03
 -3.96593E+03  2.11553E+03 -3.20417E+03 -5.73329E+02 -5.07208E+02 -1.62595E+03  4.44703E+01 -8.15097E+01
 -1.45812E+03  6.13971E+02 -2.42142E+03 -6.11573E+02 -4.74645E+02 -1.90447E+03 -3.40763E+02 -3.08806E+03
  3.60107E+03 -2.62737E+03  4.60972E+03  3.54446E+02  5.89047E+03  3.83356E+03  1.23331E+03  8.29369E+03
 -4.02395E+03  9.34388E+03 -8.42004E+03  6.06764E+03 -9.73634E+03 -4.82974E+02 -6.54059E+03 -6.39599E+03
 -3.31809E+03 -8.74873E+03  2.02430E+03 -7.51218E+03  5.23434E+03 -4.24913E+03  5.39741E+03 -2.72766E+02
  2.84880E+03  2.56454E+03 -1.85634E+02  3.23401E+03 -1.31243E+03  1.85181E+02 -6.82887E+01 -2.10220E+03
  2.24360E+03 -4.74895E+02  3.28307E+03  6.78161E+02  2.80272E+03  3.62884E+03  1.03930E+02  4.09576E+03
 -3.32386E+03  3.95238E+03 -5.34666E+03  7.76343E+02 -4.96904E+03 -3.91140E+03 -3.88262E+02 -7.04051E+03
  3.13951E+03 -5.87556E+03  6.43412E+03 -2.17674E+03  5.97805E+03  2.30335E+03  4.07606E+03  4.99823E+03
  1.56971E+03  5.97449E+03 -1.67950E+03  4.55362E+03 -2.62441E+03  2.20628E+03 -2.47315E+03  8.33300E+02
 -9.59738E+02  6.05743E+02 -1.56846E+03  1.23253E+03 -2.18086E+03  1.08150E+03 -4.16937E+03 -9.10604E+02
 -3.73648E+03 -2.73611E+03 -3.36509E+02 -6.18300E+03  2.34129E+03 -5.85735E+03  5.65155E+03 -3.08940E+03
  6.04225E+03  9.75991E+02  2.41832E+03  4.09085E+03 -1.37297E+03  5.51442E+03 -3.90461E+03  2.87681E+03
