 $NMID ID='MM_0lb_SNR400_12hz_g45_23.RAW', FMTDAT='(8E13.5)'
 TRAMP=1., VOLUME=1. $END
  3.09762E+05  1.59145E+02  3.37594E+05  2.50476E+05  8.49568E+04  3.37956E+05 -1.33214E+05  2.50885E+05
 -1.90477E+05  8.34846E+04 -1.12357E+05 -3.22417E+04  8.36008E+02 -5.01310E+04  5.35001E+04  2.80396E+00
  3.63309E+04  5.30966E+04 -1.72459E+04  7.59507E+04 -6.16566E+04  6.43101E+04 -8.42909E+04  3.21983E+04
 -8.13902E+04 -1.09980E+04 -5.70893E+04 -5.17484E+04 -1.52709E+04 -7.01572E+04  2.75918E+04 -4.69932E+04
  4.03184E+04  3.79958E+03  1.65331E+04  4.78441E+04 -3.39883E+04  4.74066E+04 -6.74846E+04 -3.21998E+02
 -5.42102E+04 -5.74188E+04 -6.98811E+03 -7.75123E+04  3.39893E+04 -5.61345E+04  4.84916E+04 -1.77318E+04
  4.39282E+04  1.10646E+04  3.21630E+04  2.57880E+04  1.57553E+04  2.98978E+04 -6.02091E+03  2.74264E+04
 -2.21112E+04  1.21829E+04 -1.81610E+04 -4.99953E+03  7.09191E+03 -7.43378E+03  2.25480E+04  1.28526E+04
  7.43612E+03  3.58915E+04 -3.24825E+04  3.58012E+04 -6.41496E+04  2.18349E+03 -5.80960E+04 -4.29717E+04
 -1.30255E+04 -6.37729E+04  4.03840E+04 -4.55432E+04  5.94841E+04 -1.75009E+03  3.47395E+04  3.36533E+04
 -5.92313E+03  3.70572E+04 -3.08479E+04  1.70574E+04 -3.09767E+04 -3.84531E+03 -1.74752E+04 -1.17040E+04
 -8.57024E+03 -1.39497E+04 -1.55738E+03 -1.82676E+04  7.73592E+03 -2.33153E+04  1.55492E+04 -1.38181E+04
  1.15559E+04  4.89554E+03 -8.99742E+03  1.22384E+04 -2.13945E+04 -5.48538E+03 -8.70862E+03 -3.52276E+04
  2.34446E+04 -4.46852E+04  4.92239E+04 -1.99561E+04  4.62317E+04  1.94776E+04  1.60116E+04  4.45516E+04
 -1.60676E+04  3.41871E+04 -2.57746E+04  1.36784E+03 -1.06141E+04 -2.82230E+04  2.11277E+04 -3.50651E+04
  4.21248E+04 -9.35034E+03  3.66433E+04  2.46071E+04  1.94942E+04  4.77855E+04 -7.81988E+03  5.19672E+04
 -3.27102E+04  3.46049E+04 -4.37797E+04  1.03526E+04 -4.33854E+04 -1.71108E+04 -2.43883E+04 -3.95343E+04
  7.70353E+03 -3.91098E+04  3.22632E+04 -1.46396E+04  2.93446E+04  1.07355E+04  3.90079E+03  1.94570E+04
 -1.33471E+04  9.38985E+03 -1.00873E+04 -7.41819E+03  5.81121E+03 -1.07242E+04  1.82306E+04  5.71689E+03
  1.32722E+04  2.24057E+04 -6.34555E+03  2.53298E+04 -2.22297E+04  1.21069E+04 -2.86616E+04 -4.14659E+03
 -2.14056E+04 -1.76079E+04 -1.03303E+04 -2.19317E+04  4.34134E+03 -2.17539E+04  1.66586E+04 -1.96893E+04
  2.77254E+04 -1.32881E+04  3.36528E+04  3.10387E+03  2.49539E+04  2.05910E+04  3.83766E+03  3.81497E+04
 -1.81324E+04  3.14615E+04 -2.84824E+04  1.12934E+04 -2.12234E+04 -1.08493E+04 -4.69262E+03 -1.29758E+04
  1.70268E+03 -2.18932E+03 -5.54687E+03  7.56142E+03 -1.73205E+04  5.55040E+03 -1.76569E+04 -7.81316E+03
 -1.11282E+04 -2.07111E+04  5.37578E+03 -2.48899E+04  1.61545E+04 -1.80276E+04  1.93469E+04 -1.41449E+03
  1.19683E+04  1.40064E+04 -1.31634E+03  2.04152E+04 -1.35885E+04  1.14514E+04 -2.10077E+04 -4.14982E+03
 -1.53347E+04 -1.77871E+04 -1.75936E+03 -2.38421E+04  1.14007E+04 -2.00738E+04  2.04265E+04 -1.03835E+04
  1.95738E+04  6.91396E+02  1.42052E+04  4.62336E+03  7.50531E+03  1.45858E+03  1.02489E+04 -1.75977E+03
  1.88758E+04  2.21806E+03  2.08153E+04  1.56964E+04  1.39749E+04  3.28718E+04 -2.82032E+03  3.74906E+04
 -2.11920E+04  3.00411E+04 -3.43482E+04  1.55945E+04 -3.68494E+04 -2.97778E+03 -2.98804E+04 -2.17094E+04
 -1.32501E+04 -3.04993E+04  9.89134E+03 -2.76007E+04  2.33832E+04 -1.33958E+04  2.06357E+04  6.33828E+03
  7.60504E+03  1.55902E+04 -9.83859E+03  1.36895E+04 -1.69932E+04  2.15458E+03 -1.39212E+04 -1.13119E+04
 -2.58590E+02 -1.56502E+04  8.50074E+03 -1.22324E+04  1.10159E+04 -5.83523E+02  2.52294E+03  7.54511E+03
 -7.87144E+03  3.35983E+03 -6.88076E+03 -5.18782E+03 -7.77357E+02 -1.50373E+04  1.04734E+04 -1.54395E+04
  1.87812E+04 -8.96555E+03  2.01183E+04  4.41032E+03  1.67950E+04  1.41851E+04  8.24413E+03  2.32588E+04
 -3.48249E+03  2.44669E+04 -1.56138E+04  1.53885E+04 -1.77934E+04  3.65186E+03 -1.25670E+04 -4.90319E+03
 -5.91808E+03 -5.49466E+03 -6.87310E+02  9.80943E+02 -1.84077E+03  2.78628E+03 -6.14855E+03  5.01249E+03
 -1.16954E+04 -6.97377E+02 -1.29841E+04 -9.96950E+03 -5.34860E+03 -1.58509E+04  5.30921E+03 -1.26869E+04
  1.08864E+04 -5.78472E+03  7.47466E+03  3.08595E+03  1.88020E+02  5.12643E+03 -5.81828E+03 -4.02268E+02
 -6.41740E+03 -8.20636E+03 -1.22801E+02 -1.22269E+04  6.69863E+03 -1.28071E+04  1.61922E+04 -6.41391E+03
  1.84149E+04  1.25731E+03  1.40101E+04  1.02499E+04  2.12456E+03  1.56423E+04 -7.83076E+03  1.19973E+04
 -1.02065E+04  3.53211E+03 -5.57838E+03 -2.35528E+03  1.92669E+03 -3.68840E+03  6.83100E+03 -1.16616E+03
  6.18125E+03  5.77204E+03  9.72278E+02  9.83655E+03 -7.26056E+03  9.53200E+03 -1.27309E+04  2.38565E+03
 -8.05306E+03 -6.20308E+03 -2.68966E+02 -1.08579E+04  6.61432E+03 -5.04161E+03  7.02605E+03  2.16151E+03
  1.01589E+03  7.85659E+03 -6.56513E+03  8.57717E+03 -9.32036E+03  3.86383E+03 -9.94245E+03 -3.54581E+03
 -6.22663E+03 -1.20963E+04  2.61562E+03 -1.31321E+04  1.09758E+04 -8.50437E+03  1.20237E+04  2.48596E+03
  7.51837E+03  1.01035E+04 -6.89408E+02  1.20404E+04 -9.12994E+03  6.85852E+03 -1.02938E+04 -1.16641E+03
 -8.15809E+03 -8.14533E+03 -2.31535E+03 -9.62379E+03  4.79260E+03 -7.02573E+03  5.10406E+03 -3.09151E+03
  4.30875E+03  1.72536E+03 -9.68781E+02  2.10463E+03 -7.79813E+02 -1.69624E+03  1.54097E+03 -4.84606E+03
  8.47972E+03 -3.84448E+03  1.10698E+04  1.79418E+03  1.09484E+04  7.18482E+03  8.36169E+03  1.44311E+04
 -3.85765E+03  1.73785E+04 -1.43130E+04  1.25339E+04 -1.91034E+04  2.17048E+03 -1.49379E+04 -5.99873E+03
 -7.56223E+03 -1.25362E+04 -1.94715E+02 -1.05237E+04  3.75239E+03 -5.28652E+03  4.42892E+03 -4.03493E+03
  2.62535E+03 -2.70271E+03  3.13847E+03 -4.00400E+03  4.92641E+03 -2.43285E+03  6.34565E+03  2.48478E+02
  7.53957E+03  1.98862E+03  3.90736E+03  6.38562E+03 -1.88033E+03  7.75164E+03 -8.74793E+03  6.19740E+03
 -1.04450E+04 -1.11392E+03 -6.32797E+03 -7.87393E+03 -3.58549E+02 -1.09030E+04  5.91099E+03 -1.04878E+04
  1.08449E+04 -6.64715E+03  1.36986E+04  1.43434E+03  9.41002E+03  9.34431E+03  1.84648E+03  1.26655E+04
 -4.41204E+03  1.02717E+04 -7.37059E+03  4.21458E+03 -4.80710E+03 -1.64787E+03 -1.33850E+03 -1.83141E+03
 -8.33729E+02  8.75696E+02 -1.97359E+03  2.80267E+03 -4.93344E+03  2.62222E+03 -7.60020E+03 -1.07934E+03
 -4.16957E+03 -7.58546E+03  4.75240E+01 -1.05169E+04  6.57279E+03 -9.38525E+03  1.00562E+04 -3.10799E+03
  1.00921E+04  4.83998E+03  4.78777E+03  8.42841E+03 -2.43982E+03  1.02328E+04 -6.74009E+03  6.17230E+03
 -9.07221E+03  9.48761E+02 -7.14755E+03 -6.16050E+03 -8.89993E+02 -8.23298E+03  4.90511E+03 -6.06946E+03
  6.68715E+03 -1.93885E+03  5.08194E+03  1.57443E+03  1.88420E+03  2.97168E+03  7.17750E+02  1.49414E+03
  3.01370E+03  7.73247E+02  1.89158E+03  8.96146E+02  4.14332E+03  4.03685E+03  2.56463E+03  5.62290E+03
 -2.08319E+03  8.09569E+03 -6.69864E+03  8.08609E+03 -9.76805E+03  2.89926E+03 -1.05530E+04 -3.83814E+03
 -4.64888E+03 -9.15813E+03  1.29776E+03 -1.16058E+04  5.66194E+03 -6.90854E+03  8.44320E+03 -2.37314E+03
  5.93574E+03  3.87505E+03  1.58574E+03  5.31193E+03 -2.22727E+03  3.17890E+03 -4.38415E+03 -4.90327E+02
 -2.07344E+03 -3.38183E+03  2.59172E+03 -4.10351E+03  4.28860E+03 -1.96328E+03  3.79500E+03  9.42053E+02
  2.20778E+03  2.06166E+03  1.17233E+03  9.50157E+02 -3.04681E+02  8.12867E+02  1.38496E+03 -5.26103E+02
  1.11942E+03  3.25231E+02  4.03984E+03  1.37378E+03  1.37753E+03  5.43971E+03 -9.21764E+02  6.28027E+03
 -4.13365E+03  3.70648E+03 -6.08517E+03  1.07010E+03 -5.64211E+03 -3.06128E+03 -1.41254E+03 -3.46046E+03
  2.16279E+02 -3.43066E+03  2.40819E+03 -1.82936E+03  2.32661E+03  2.18818E+03 -3.34198E+02  3.02017E+03
 -3.62183E+03  1.55164E+03 -4.36844E+03 -2.46753E+03 -2.13443E+03 -5.77895E+03  6.73792E+02 -4.77518E+03
  1.78081E+03 -2.61103E+03  4.08619E+03 -5.88493E+02  3.64232E+03  5.12215E+02  4.95837E+02  2.91641E+03
 -1.53325E+03  6.21496E+02 -3.34693E+03 -1.28089E+03  1.42418E+03 -3.90639E+03  4.21351E+03 -2.46628E+03
  5.98050E+03 -6.29786E+01  6.19074E+03  3.85436E+03  2.59450E+03  5.60890E+03 -1.79547E+03  5.22500E+03
 -4.85865E+03  2.31099E+03 -4.98765E+03 -1.61876E+03 -3.01261E+03 -3.85593E+03  1.44872E+03 -3.30594E+03
  4.28990E+03 -1.89020E+03  2.74997E+03  1.75587E+03  3.11832E+02  2.85250E+03 -6.16000E+02  2.94070E+03
 -1.08439E+03  2.14238E+03 -8.10084E+02  3.44623E+02  2.05399E+02  7.80103E+02 -1.09550E+03  1.59269E+03
 -1.59488E+03  2.89418E+03 -3.79209E+03  1.93891E+03 -5.25103E+03  7.57833E+02 -7.40005E+03 -3.70596E+03
 -3.37947E+03 -8.36371E+03  1.55552E+03 -8.83072E+03  5.47404E+03 -7.28283E+03  8.68966E+03 -3.40666E+03
  8.05180E+03  1.74320E+03  4.44304E+03  5.13999E+03  2.48874E+02  6.14250E+03 -2.75648E+03  3.86197E+03
 -3.98978E+03  2.08461E+03 -1.77656E+03 -8.97365E+02 -1.19454E+03 -1.15542E+03 -3.54551E+02 -2.64519E+02
 -1.95291E+03  2.41755E+02 -1.29173E+03  2.25916E+02 -5.58342E+02 -1.23921E+03 -7.82418E+02 -2.28062E+03
  3.04527E+03 -2.32376E+03  3.49326E+03 -3.94154E+02  4.10047E+03  2.70202E+03  3.84348E+02  5.93440E+03
 -2.65201E+03  6.80073E+03 -6.24917E+03  3.18414E+03 -7.34511E+03 -6.24905E+02 -5.81441E+03 -4.70780E+03
 -2.71790E+03 -5.88928E+03  1.92487E+03 -5.13200E+03  3.92538E+03 -2.97620E+03  3.53271E+03  5.13639E+02
  2.76025E+03  1.69788E+03 -2.62733E+02  1.87598E+03 -1.33104E+03 -1.04946E+02  2.96719E+02 -1.70436E+03
  2.16657E+03 -1.46414E+03  1.93207E+03  7.15583E+02  1.32114E+03  2.16420E+03  5.78936E+02  2.84796E+03
 -2.67434E+03  1.71121E+03 -2.90533E+03  1.30702E+01 -3.49224E+03 -2.81798E+03 -8.68265E+02 -4.62638E+03
  3.07441E+03 -4.08891E+03  3.76195E+03 -7.21108E+02  4.41344E+03  3.18882E+02  2.58755E+03  2.94774E+03
  7.66857E+02  3.50602E+03 -1.67307E+03  2.63159E+03 -1.49650E+03  1.67723E+03 -2.10421E+03  4.78709E+02
 -1.55451E+03 -1.01405E+03 -1.74911E+03  5.57839E+02 -1.61934E+03  1.10028E+03 -3.24791E+03 -6.56383E+02
 -3.64277E+03 -1.33956E+03 -3.92706E+02 -4.61046E+03  1.41630E+03 -3.75662E+03  2.95879E+03 -2.30518E+03
  3.60077E+03  1.05684E+03  1.60941E+03  1.64757E+03 -4.32928E+02  3.38236E+03 -2.70236E+03  1.91122E+03
