 $NMID ID='MM_0lb_SNR400_20hz_g60_64.RAW', FMTDAT='(8E13.5)'
 TRAMP=1., VOLUME=1. $END
  3.09198E+05  5.73967E+02  3.37021E+05  2.50936E+05  8.45385E+04  3.37427E+05 -1.32172E+05  2.50109E+05
 -1.90326E+05  8.30149E+04 -1.11885E+05 -3.30378E+04  1.24493E+03 -5.02734E+04  5.42106E+04 -5.35190E+01
  3.53193E+04  5.33364E+04 -1.68711E+04  7.52804E+04 -6.00377E+04  6.26756E+04 -8.32898E+04  3.17711E+04
 -8.00388E+04 -1.08790E+04 -5.65820E+04 -5.08823E+04 -1.50119E+04 -6.89482E+04  2.69485E+04 -4.57818E+04
  3.95055E+04  3.54983E+03  1.55283E+04  4.78563E+04 -3.39150E+04  4.67267E+04 -6.56618E+04 -5.64339E+02
 -5.23835E+04 -5.58901E+04 -6.36411E+03 -7.59449E+04  3.29191E+04 -5.38830E+04  4.69228E+04 -1.65824E+04
  4.19139E+04  1.08709E+04  3.10497E+04  2.44135E+04  1.58642E+04  2.87716E+04 -4.88709E+03  2.72561E+04
 -2.18456E+04  1.24257E+04 -1.88931E+04 -4.47607E+03  5.15378E+03 -7.33681E+03  2.14446E+04  1.13048E+04
  6.83439E+03  3.36881E+04 -3.08846E+04  3.49427E+04 -6.18320E+04  2.10121E+03 -5.59059E+04 -4.17260E+04
 -1.22245E+04 -6.16164E+04  3.89220E+04 -4.41735E+04  5.63389E+04 -1.86586E+03  3.24637E+04  3.15776E+04
 -6.28896E+03  3.40332E+04 -2.88482E+04  1.40420E+04 -2.88849E+04 -5.44147E+03 -1.48511E+04 -1.04096E+04
 -7.58522E+03 -1.19987E+04 -9.19612E+02 -1.80062E+04  7.63197E+03 -2.23685E+04  1.48221E+04 -1.31790E+04
  1.18911E+04  4.45714E+03 -6.78476E+03  1.33259E+04 -2.00777E+04 -3.14075E+03 -8.18023E+03 -3.15086E+04
  2.10026E+04 -4.15611E+04  4.61352E+04 -1.94234E+04  4.23609E+04  1.82565E+04  1.43950E+04  4.22207E+04
 -1.56787E+04  3.16427E+04 -2.34089E+04  1.63598E+03 -8.81563E+03 -2.67507E+04  2.03712E+04 -3.20877E+04
  3.85243E+04 -7.87506E+03  3.26611E+04  2.29922E+04  1.63343E+04  4.40386E+04 -7.59319E+03  4.59608E+04
 -2.87726E+04  3.05634E+04 -3.86531E+04  8.61996E+03 -3.92334E+04 -1.51795E+04 -2.21973E+04 -3.51995E+04
  6.68794E+03 -3.42956E+04  2.95377E+04 -1.36065E+04  2.72812E+04  1.10564E+04  3.58294E+03  1.81428E+04
 -1.29930E+04  6.95358E+03 -9.87909E+03 -8.24593E+03  5.91403E+03 -1.06652E+04  1.73049E+04  5.95917E+03
  1.22890E+04  2.13787E+04 -6.97601E+03  2.33426E+04 -2.16703E+04  9.60607E+03 -2.55586E+04 -5.80883E+03
 -1.74591E+04 -1.67812E+04 -6.32090E+03 -1.76262E+04  3.64996E+03 -1.55973E+04  1.30272E+04 -1.48016E+04
  2.23174E+04 -1.20129E+04  2.87336E+04  1.62284E+03  2.19469E+04  1.71596E+04  3.80520E+03  3.33427E+04
 -1.55136E+04  2.81327E+04 -2.64611E+04  9.47766E+03 -1.95921E+04 -1.06615E+04 -3.48465E+03 -1.40158E+04
  3.37489E+03 -4.63234E+03 -2.86649E+03  5.43147E+03 -1.30093E+04  5.31088E+03 -1.36611E+04 -5.05938E+03
 -9.48537E+03 -1.61194E+04  4.70465E+03 -1.92263E+04  1.27186E+04 -1.43964E+04  1.47686E+04 -1.37143E+03
  9.39753E+03  1.12503E+04 -5.94835E+02  1.62624E+04 -1.03621E+04  8.89808E+03 -1.52793E+04 -3.13614E+03
 -1.14835E+04 -1.42973E+04 -1.76480E+03 -1.93402E+04  8.44187E+03 -1.49663E+04  1.64964E+04 -6.97124E+03
  1.53007E+04  9.88932E+02  1.08963E+04  3.39129E+03  5.00071E+03  4.53669E+02  7.69606E+03 -1.80399E+03
  1.48419E+04  2.59283E+03  1.51774E+04  1.30243E+04  9.39000E+03  2.44936E+04 -3.18458E+03  2.70907E+04
 -1.61266E+04  2.08060E+04 -2.45627E+04  9.79197E+03 -2.52478E+04 -1.31912E+03 -2.16515E+04 -1.41267E+04
 -9.95258E+03 -2.00427E+04  7.19578E+03 -1.96430E+04  1.67451E+04 -1.09197E+04  1.58168E+04  3.72685E+03
  6.18315E+03  1.12078E+04 -7.09775E+03  1.04910E+04 -1.25143E+04  2.45874E+03 -9.94523E+03 -8.17446E+03
 -1.99811E+02 -1.21684E+04  6.57611E+03 -9.37523E+03  7.75287E+03 -7.80323E+02  7.29078E+02  4.59530E+03
 -6.43583E+03  1.52683E+03 -3.55644E+03 -4.39927E+03  6.00278E+02 -9.54355E+03  7.36945E+03 -1.01503E+04
  1.21207E+04 -4.94465E+03  1.25637E+04  2.52887E+03  9.90703E+03  9.39273E+03  5.00978E+03  1.40260E+04
 -1.44016E+03  1.58399E+04 -9.73979E+03  9.78833E+03 -1.15220E+04  2.98917E+03 -7.87086E+03 -2.11025E+03
 -3.92568E+03 -3.30001E+03 -7.97141E+02  1.06920E+03 -1.89143E+03  2.29060E+03 -3.39777E+03  3.58535E+03
 -7.89769E+03 -3.58425E+02 -8.68921E+03 -7.25022E+03 -3.66357E+03 -1.14351E+04  3.31899E+03 -8.21471E+03
  7.31689E+03 -4.27611E+03  4.62200E+03  2.04627E+03  6.16704E+02  3.04878E+03 -3.34375E+03 -2.95661E+02
 -2.96879E+03 -5.19781E+03 -1.01269E+03 -7.24870E+03  3.60152E+03 -7.77444E+03  1.01738E+04 -3.59208E+03
  1.13414E+04  2.44315E+01  8.60165E+03  5.91452E+03  1.85388E+03  8.55980E+03 -5.19275E+03  8.36256E+03
 -6.56876E+03  2.75481E+03 -2.99701E+03 -9.44134E+02  1.03223E+03 -1.55882E+03  4.58042E+03 -1.01748E+03
  4.20084E+03  3.19643E+03  1.05185E+03  6.48934E+03 -4.51682E+03  6.46586E+03 -7.29302E+03  1.83637E+03
 -4.85679E+03 -3.65540E+03  3.65882E+02 -6.45631E+03  3.70225E+03 -3.73458E+03  3.15867E+03  8.99085E+02
  2.52031E+02  2.89490E+03 -3.51729E+03  3.76081E+03 -4.13255E+03  2.58042E+03 -3.59799E+03 -6.69542E+02
 -3.09038E+03 -5.70264E+03  1.11300E+03 -6.63921E+03  5.52650E+03 -4.53345E+03  6.06854E+03  9.17035E+02
  3.93365E+03  4.86902E+03  5.07531E+02  6.66742E+03 -4.36828E+03  3.90207E+03 -5.50786E+03 -3.38831E+02
 -5.78031E+03 -5.12022E+03 -1.24181E+03 -4.80364E+03  1.75806E+03 -4.55804E+03  2.75496E+03 -2.96705E+03
  2.76753E+03  3.18513E+02  1.08750E+03  1.13436E+03  3.96012E+02  3.52908E+02 -2.41081E+02 -1.55338E+03
  3.49315E+03 -2.52011E+02  4.67827E+03  1.66402E+02  4.63910E+03  2.58390E+03  5.28659E+03  6.21464E+03
 -1.21877E+03  7.60236E+03 -7.03706E+03  6.00761E+03 -9.08594E+03  1.08694E+03 -7.26584E+03 -2.14140E+03
 -4.09029E+03 -6.07178E+03 -6.66701E+02 -4.12141E+03  1.94699E+03 -2.37697E+03  1.69860E+03 -1.99997E+03
  1.27673E+03 -1.30786E+03  2.27723E+03 -2.16573E+03  3.40118E+03 -8.43850E+02  2.85911E+03  4.73800E+02
  4.45329E+03  7.18850E+02  7.50839E+02  3.18453E+03 -1.71121E+03  2.06394E+03 -3.83433E+03  2.21198E+03
 -4.49561E+03 -8.13947E+02 -1.67352E+03 -3.39288E+03  4.31492E+02 -4.46049E+03  2.64004E+03 -4.56729E+03
  4.01842E+03 -3.16310E+03  5.86263E+03 -5.69193E+02  4.38850E+03  3.44138E+03  7.93719E+02  5.18158E+03
 -1.54791E+03  5.26833E+03 -3.57789E+03  1.81215E+03 -1.73502E+03 -7.11865E+02 -3.61035E+02 -1.06021E+03
 -5.52109E+01  1.87066E+02 -9.28527E+02  2.18897E+03 -3.07580E+03  7.70242E+02 -3.58579E+03  5.23120E+01
 -1.39572E+03 -4.63597E+03  6.70036E+02 -4.50109E+03  2.24544E+03 -4.21026E+03  2.49108E+03 -1.01706E+03
  3.36313E+03  1.93586E+03  2.02714E+03  2.89002E+03 -4.83766E+02  3.81586E+03 -1.76587E+03  2.13832E+03
 -3.43178E+03  9.14257E+02 -3.15130E+03 -2.00304E+03  6.92323E+01 -2.27410E+03  1.36366E+03 -1.30971E+03
  2.40818E+03 -1.32174E+03  1.69664E+03  1.30412E+02  2.12371E+02  1.32155E+03  7.08266E+02  2.52118E+02
  1.67222E+03  8.17185E+02  6.72146E+02  1.23195E+03  7.66397E+02  1.66226E+03  1.59430E+03  1.35851E+03
 -1.02265E+03  2.12419E+03 -2.12443E+03  3.24697E+03 -2.86704E+03  7.43792E+02 -2.68234E+03 -3.09741E+02
 -1.17142E+03 -2.66808E+03  5.55835E+02 -3.30657E+03  1.19110E+03 -1.45659E+03  2.35746E+03 -1.10195E+03
  2.03137E+03  1.23581E+03  3.54262E+01  2.11232E+03 -5.75768E+02  1.35463E+03 -1.08566E+03  4.74290E+02
 -2.73494E+02 -1.18985E+03  1.34809E+03 -1.09717E+03  1.10143E+03 -4.04560E+02  8.14770E+02  2.81891E+02
  6.35301E+02  2.90014E+02  7.82945E+02 -3.39711E+02 -2.66221E+02  1.21858E+03  1.81085E+03 -4.27584E+02
  2.33199E+02 -8.85245E+01  1.14309E+03  4.83089E+02  4.41885E+02  1.82837E+03 -3.73751E+02  2.05157E+03
 -1.59214E+03  1.12522E+03 -1.64840E+03  5.98930E+01 -1.20470E+03 -5.56548E+02  1.18367E+02 -7.39432E+02
  5.21978E+02 -1.32324E+03  4.60156E+02 -5.62631E+02  3.36011E+02  1.08187E+03 -5.73310E+02  7.89414E+02
 -9.69572E+02 -6.53050E+01 -7.82678E+02 -1.55221E+03  8.93758E+01 -1.70185E+03  8.23719E+01 -1.53750E+03
  6.31918E+02 -1.91659E+01 -9.10069E+00 -1.08446E+02  9.15207E+02 -8.68556E+02  7.02505E+02  1.17474E+03
 -3.02388E+02  3.78721E+02 -3.80058E+02  2.24173E+01  2.33634E+02 -9.93952E+02  9.89816E+02 -4.45502E+02
  5.93457E+02 -2.48214E+02  2.26172E+03  7.29839E+02  8.37956E+02  1.38473E+03 -1.54501E+02  1.14698E+03
 -7.67790E+02  6.01755E+00 -8.20756E+02 -3.75609E+02 -9.32707E+02 -8.08445E+02 -2.89141E+01 -1.36260E+02
  1.56967E+03 -3.96651E+02  4.48470E+02  6.86692E+02 -3.18040E+02  1.00501E+03  5.75556E+02  1.05088E+03
 -2.17226E+02  1.05538E+03 -5.44852E+02  2.84041E+02  6.21778E+02 -1.13454E+02 -9.45387E+02  3.95912E+02
 -2.37386E+02  1.26883E+03 -1.90228E+03  7.00539E+02 -1.02426E+03  1.71760E+02 -2.22633E+03 -3.20856E+02
 -4.45210E+02 -1.75441E+03  8.10629E+02 -1.35037E+03  7.73574E+02 -1.60402E+03  2.32701E+03 -9.68303E+02
  1.69643E+03 -4.46391E+02  9.26186E+02  1.12250E+03 -9.74535E+02  1.13597E+03 -7.82542E+01  6.40339E+02
 -6.94421E+02  5.60999E+02 -5.32029E+02  5.30954E+01 -1.63077E+02  6.79196E+02 -6.36122E+02  1.50591E+02
 -1.22026E+03 -2.03730E+02 -1.09985E+03  1.54360E+02  2.92105E+02 -7.14443E+01  6.50216E+01 -3.87409E+02
  1.37393E+03 -5.03409E+02 -6.17419E+02  5.62209E+02  6.01692E+02  1.02809E+03 -2.81284E+02  6.05213E+02
 -6.26735E+02  8.48567E+02 -1.64618E+03  9.58565E+02 -8.77902E+02 -1.21464E+02 -3.17487E+02 -1.10985E+03
 -1.15338E+03 -6.19947E+02  1.00431E+02 -1.01309E+03  7.17824E+02 -1.13102E+02  5.46553E+02 -1.83691E+02
  7.12215E+02  2.41331E+02  2.14048E+02 -5.48479E+01  8.51001E+01  2.49623E+02  7.59469E+02  2.82757E+02
  3.20213E+02 -1.29328E+02 -8.38655E+01 -4.66642E+01 -1.29837E+02  3.08785E+02  3.24461E+02 -1.10538E+02
 -8.80770E+02  5.23965E+02  2.48867E+02 -1.39622E+02 -3.61332E+02 -1.76614E+02  2.88788E+02 -5.23535E+02
  4.66273E+02 -3.62657E+02  3.20313E+02  1.53158E+02  4.04027E+02 -4.60347E+02  9.13453E+01  3.75543E+02
  5.62777E+02 -1.12285E+02  1.83939E+02  8.35498E+02 -9.54768E+01  4.45802E+02 -1.08666E+02  1.52262E+02
  4.93174E+02 -8.71635E+01 -2.16773E+02 -1.59886E+02 -5.08166E+02  4.48134E+02 -2.63089E+02 -1.47500E+02
 -1.29761E+03  1.14815E+02 -3.89010E+02 -4.19398E+02  3.74067E+02 -1.17145E+03  1.90328E+02  2.54269E+02
  6.34681E+02 -1.41979E+02 -4.27553E+02 -2.62823E+02 -1.32301E+02  4.47087E+02  1.41507E+02  4.49760E+02
