 $NMID ID='MM_0lb_SNR400_11hz_g55_56.RAW', FMTDAT='(8E13.5)'
 TRAMP=1., VOLUME=1. $END
  3.10564E+05  2.51770E+02  3.37894E+05  2.52220E+05  8.50242E+04  3.38448E+05 -1.32890E+05  2.51268E+05
 -1.91211E+05  8.45981E+04 -1.11960E+05 -3.22658E+04  5.27880E+02 -5.08770E+04  5.37075E+04 -5.00355E+02
  3.56793E+04  5.26720E+04 -1.64341E+04  7.58179E+04 -6.13660E+04  6.43437E+04 -8.45896E+04  3.29159E+04
 -8.27139E+04 -1.13920E+04 -5.78048E+04 -5.23749E+04 -1.51363E+04 -7.07688E+04  2.76662E+04 -4.68322E+04
  4.14628E+04  3.83285E+03  1.65689E+04  4.85607E+04 -3.49052E+04  4.70910E+04 -6.81932E+04  2.11541E+02
 -5.46922E+04 -5.73955E+04 -8.08726E+03 -7.85547E+04  3.39295E+04 -5.71970E+04  4.91503E+04 -1.77197E+04
  4.48594E+04  1.15526E+04  3.28907E+04  2.57932E+04  1.57368E+04  3.05434E+04 -5.11119E+03  2.83673E+04
 -2.25741E+04  1.23982E+04 -1.86911E+04 -6.10837E+03  7.42588E+03 -7.28257E+03  2.30042E+04  1.37714E+04
  7.64689E+03  3.68229E+04 -3.31696E+04  3.65385E+04 -6.54794E+04  1.54024E+03 -5.85080E+04 -4.32694E+04
 -1.27987E+04 -6.50711E+04  4.13859E+04 -4.60171E+04  6.03002E+04 -2.95990E+03  3.56366E+04  3.35607E+04
 -5.80849E+03  3.83397E+04 -3.07997E+04  1.78330E+04 -3.22968E+04 -3.42936E+03 -1.90659E+04 -1.19148E+04
 -9.66137E+03 -1.47448E+04 -5.85345E+02 -1.94539E+04  7.61249E+03 -2.33413E+04  1.60633E+04 -1.24913E+04
  1.09628E+04  5.71170E+03 -9.87467E+03  1.29487E+04 -2.29140E+04 -5.59379E+03 -8.82296E+03 -3.64197E+04
  2.54139E+04 -4.64977E+04  5.13102E+04 -2.00471E+04  4.75245E+04  2.06187E+04  1.65625E+04  4.61691E+04
 -1.63891E+04  3.61206E+04 -2.65783E+04  2.31930E+03 -1.10302E+04 -2.88306E+04  2.16473E+04 -3.62831E+04
  4.40401E+04 -1.06697E+04  3.96641E+04  2.41940E+04  2.00878E+04  4.96712E+04 -8.01635E+03  5.52085E+04
 -3.42778E+04  3.72815E+04 -4.58337E+04  1.09957E+04 -4.61156E+04 -1.75835E+04 -2.57936E+04 -4.09982E+04
  8.14068E+03 -4.13040E+04  3.38167E+04 -1.61208E+04  3.10839E+04  1.03857E+04  5.41903E+03  2.08830E+04
 -1.39187E+04  9.39590E+03 -1.13401E+04 -7.79708E+03  6.38450E+03 -1.16543E+04  1.79239E+04  5.81385E+03
  1.43784E+04  2.27405E+04 -5.22286E+03  2.62679E+04 -2.31810E+04  1.37640E+04 -3.03405E+04 -2.87613E+03
 -2.36500E+04 -1.78583E+04 -1.07848E+04 -2.38944E+04  4.17849E+03 -2.33739E+04  1.82557E+04 -2.15595E+04
  3.02790E+04 -1.34331E+04  3.69136E+04  3.67085E+03  2.62107E+04  2.27447E+04  3.77291E+03  4.01082E+04
 -1.92672E+04  3.29102E+04 -3.01810E+04  1.14860E+04 -2.23742E+04 -1.07805E+04 -4.63831E+03 -1.33622E+04
  1.77379E+03 -2.08580E+03 -6.53092E+03  7.46353E+03 -1.94366E+04  4.58783E+03 -1.92196E+04 -8.73068E+03
 -1.15145E+04 -2.19633E+04  5.61224E+03 -2.72089E+04  1.82849E+04 -1.90083E+04  2.11534E+04 -1.69221E+03
  1.29307E+04  1.43483E+04 -1.20727E+03  2.22043E+04 -1.55215E+04  1.25757E+04 -2.22234E+04 -4.35842E+03
 -1.61731E+04 -2.03206E+04 -2.18791E+03 -2.64244E+04  1.22932E+04 -2.14311E+04  2.27651E+04 -1.06023E+04
  2.08800E+04  3.72305E+01  1.43678E+04  5.25772E+03  8.69069E+03  1.24547E+03  1.11229E+04 -1.55909E+03
  2.01728E+04  2.41013E+03  2.38606E+04  1.61143E+04  1.51038E+04  3.54722E+04 -2.48662E+03  4.04267E+04
 -2.40652E+04  3.43488E+04 -3.93543E+04  1.75511E+04 -4.08877E+04 -3.90332E+03 -3.36488E+04 -2.43701E+04
 -1.36460E+04 -3.38315E+04  1.16047E+04 -3.01059E+04  2.60026E+04 -1.48141E+04  2.27983E+04  7.53200E+03
  7.83947E+03  1.76771E+04 -1.07191E+04  1.46644E+04 -1.93289E+04  2.88995E+03 -1.53273E+04 -1.21931E+04
 -2.40501E+02 -1.75312E+04  9.40029E+03 -1.35366E+04  1.24889E+04 -9.14446E+02  3.15717E+03  7.79704E+03
 -8.20581E+03  2.86723E+03 -8.09332E+03 -6.90094E+03 -1.66513E+03 -1.76393E+04  1.10213E+04 -1.77132E+04
  2.08240E+04 -1.01104E+04  2.33430E+04  3.44891E+03  2.03798E+04  1.67064E+04  1.04904E+04  2.68580E+04
 -4.86644E+03  2.84396E+04 -1.86281E+04  1.75980E+04 -2.01351E+04  3.04253E+03 -1.35256E+04 -5.42164E+03
 -5.94981E+03 -6.60050E+03 -7.21068E+01  6.64165E+02 -2.55306E+03  2.74722E+03 -6.55798E+03  5.12396E+03
 -1.28799E+04 -1.16459E+03 -1.36309E+04 -9.68534E+03 -6.11384E+03 -1.68366E+04  6.23889E+03 -1.41422E+04
  1.21842E+04 -6.69526E+03  7.85701E+03  3.94594E+03  2.22959E+02  5.64258E+03 -7.80477E+03 -2.29529E+02
 -6.69083E+03 -9.36994E+03 -6.26700E+02 -1.38444E+04  7.47143E+03 -1.50596E+04  1.79667E+04 -7.35863E+03
  2.11064E+04  2.79312E+03  1.48184E+04  1.23973E+04  2.83370E+03  1.72588E+04 -8.86600E+03  1.39613E+04
 -1.09115E+04  3.78215E+03 -4.88515E+03 -3.38172E+03  1.84361E+03 -4.01362E+03  7.83374E+03 -1.41923E+03
  5.72278E+03  6.22540E+03  3.63435E+02  1.10713E+04 -9.08428E+03  1.06896E+04 -1.46128E+04  2.83405E+03
 -8.64090E+03 -7.11813E+03  5.59765E+02 -1.17239E+04  7.74206E+03 -6.13703E+03  7.90895E+03  2.94417E+03
  2.23511E+03  9.01458E+03 -7.92684E+03  1.00858E+04 -1.24526E+04  4.88194E+03 -1.23469E+04 -4.39677E+03
 -5.74232E+03 -1.39925E+04  2.90937E+03 -1.54671E+04  1.33658E+04 -9.04752E+03  1.43420E+04  3.04691E+03
  9.17936E+03  1.18448E+04 -8.83585E+02  1.38875E+04 -9.49465E+03  8.37049E+03 -1.08761E+04 -1.71279E+03
 -9.21371E+03 -9.64742E+03 -1.85728E+03 -1.02565E+04  5.80848E+03 -9.07288E+03  6.09891E+03 -2.96341E+03
  4.73723E+03  2.14188E+03 -5.23722E+02  1.91473E+03 -7.05167E+02 -2.96903E+03  2.32822E+03 -6.09167E+03
  9.36738E+03 -4.06679E+03  1.36366E+04  1.27693E+03  1.32718E+04  9.09714E+03  9.54842E+03  1.75605E+04
 -4.09618E+03  2.05647E+04 -1.73431E+04  1.54994E+04 -2.22734E+04  2.80987E+03 -1.75229E+04 -7.45873E+03
 -9.41305E+03 -1.51263E+04 -8.20813E+01 -1.28091E+04  4.33557E+03 -6.74904E+03  4.55426E+03 -4.42822E+03
  2.97798E+03 -2.46983E+03  3.35130E+03 -3.91295E+03  5.30395E+03 -3.60212E+03  7.73729E+03 -1.50158E+03
  8.77970E+03  3.06006E+03  5.19151E+03  8.59273E+03 -1.47145E+03  8.98046E+03 -1.03722E+04  7.19734E+03
 -1.21684E+04 -6.12011E+02 -7.38320E+03 -8.50635E+03 -4.64369E+02 -1.28315E+04  7.54686E+03 -1.29822E+04
  1.36017E+04 -7.88071E+03  1.64131E+04  2.53558E+03  1.15574E+04  1.10791E+04  1.83142E+03  1.52477E+04
 -6.97310E+03  1.22318E+04 -8.58922E+03  4.16871E+03 -5.08762E+03 -1.98351E+03 -2.27278E+03 -1.34788E+03
 -7.46451E+02 -3.61424E+02 -2.24277E+03  2.37899E+03 -4.85293E+03  2.79129E+03 -8.54404E+03 -6.77011E+02
 -5.49640E+03 -9.28429E+03  2.42928E+02 -1.23079E+04  7.02861E+03 -1.10618E+04  1.22899E+04 -4.11804E+03
  1.15813E+04  6.24671E+03  5.41954E+03  1.12897E+04 -2.45420E+03  1.20801E+04 -8.48169E+03  7.16299E+03
 -1.15502E+04  2.05179E+02 -9.06823E+03 -7.66708E+03 -5.01994E+02 -9.87455E+03  4.18592E+03 -7.49303E+03
  7.53047E+03 -3.05365E+03  5.45284E+03  2.80657E+03  1.41744E+03  3.74168E+03  4.80052E+02  2.29845E+03
  2.01844E+03  1.17961E+03  3.04084E+03  1.82953E+03  3.60964E+03  4.07174E+03  2.98506E+03  6.05015E+03
 -2.65502E+03  9.49980E+03 -8.02989E+03  1.02082E+04 -1.20124E+04  1.99550E+03 -1.27172E+04 -4.94025E+03
 -6.46444E+03 -1.19593E+04  1.59137E+03 -1.36586E+04  6.86033E+03 -8.82645E+03  9.33848E+03 -2.96928E+03
  8.06640E+03  4.75764E+03  1.81052E+03  7.36988E+03 -3.49428E+03  3.81384E+03 -5.25037E+03 -3.86115E+02
 -1.70420E+03 -5.44663E+03  3.79160E+03 -5.26035E+03  4.22335E+03 -3.03344E+03  4.98197E+03  1.27818E+03
  3.25006E+03  2.50780E+03  1.13358E+03  2.11671E+03 -7.33501E+02  1.38437E+03  1.96071E+03 -7.33288E+02
  1.75585E+03 -4.51885E+02  5.60197E+03  2.44939E+03  2.81669E+03  5.66727E+03 -1.47516E+03  8.14037E+03
 -5.09970E+03  6.05756E+03 -7.84793E+03  1.19363E+03 -6.83671E+03 -2.31136E+03 -2.68990E+03 -4.01024E+03
  4.05145E+02 -4.71227E+03  3.24825E+03 -1.42945E+03  1.88615E+03  3.62859E+03 -1.46850E+03  4.54059E+03
 -5.14363E+03  2.86167E+03 -4.85343E+03 -2.81181E+03 -2.90457E+03 -6.37347E+03  1.26635E+03 -6.45606E+03
  4.28675E+03 -3.52523E+03  4.49458E+03 -1.48724E+02  4.36657E+03  1.64636E+03  8.76904E+02  3.82210E+03
 -2.15153E+03  1.72480E+03 -3.01689E+03 -1.63100E+03  1.09449E+03 -4.45447E+03  6.10385E+03 -3.55417E+03
  6.13456E+03  3.18710E+02  7.22159E+03  4.64398E+03  2.50093E+03  7.41040E+03 -2.43691E+03  6.76976E+03
 -6.41673E+03  3.09188E+03 -6.57823E+03 -1.29436E+03 -3.26976E+03 -5.43361E+03  9.08062E+02 -4.28655E+03
  4.70664E+03 -1.89420E+03  3.59912E+03  1.73004E+03  5.01563E+02  5.02959E+03 -8.56215E+02  3.80145E+03
 -2.36523E+03  2.64346E+03 -1.51418E+03  6.92411E+02 -9.86971E+02  1.12395E+03 -1.52925E+03  2.11408E+03
 -2.01097E+03  2.93402E+03 -5.71694E+03  2.41132E+03 -7.40065E+03  6.41986E+02 -9.26329E+03 -4.38343E+03
 -4.63831E+03 -1.01342E+04  1.88027E+03 -1.16500E+04  6.73233E+03 -9.13208E+03  9.74986E+03 -3.24760E+03
  9.15128E+03  1.70882E+03  6.06117E+03  6.20562E+03  5.21181E+02  7.93466E+03 -2.96121E+03  5.46782E+03
 -4.25661E+03  1.85864E+03 -2.53414E+03 -4.14126E+02 -1.00497E+03 -2.79155E+02 -1.37716E+03  1.50186E+02
 -1.38835E+03  7.65528E+01 -1.43832E+03 -4.36419E+02 -5.22240E+02 -2.23736E+03 -4.23335E+02 -2.20177E+03
  3.20337E+03 -2.08934E+03  4.71226E+03  5.03142E+02  6.05888E+03  3.92427E+03  1.42453E+03  6.94268E+03
 -4.39114E+03  9.61034E+03 -7.73821E+03  5.39269E+03 -9.09559E+03 -1.17278E+03 -6.56519E+03 -5.68184E+03
 -2.32884E+03 -7.27743E+03  1.91688E+03 -6.88895E+03  4.74329E+03 -3.91972E+03  4.40635E+03  1.61487E+02
  2.86274E+03  1.87904E+03 -1.28406E+02  1.87179E+03 -1.45265E+03 -5.82584E+02 -7.63544E+01 -1.50385E+03
  2.12958E+03 -9.09989E+02  2.69583E+03  8.73378E+02  1.89797E+03  3.69681E+03 -1.64492E+02  3.76299E+03
 -3.53315E+03  3.05077E+03 -4.83010E+03  1.42167E+02 -4.12909E+03 -3.72417E+03 -5.04916E+02 -5.92606E+03
  3.38111E+03 -4.92195E+03  5.59696E+03 -1.27249E+03  5.51821E+03  1.56239E+03  3.80646E+03  5.29021E+03
  7.74876E+02  4.75955E+03 -2.05743E+03  4.11384E+03 -2.93634E+03  1.28788E+03 -2.75769E+03  4.35321E+02
 -7.67888E+02 -5.83318E+02 -1.77022E+03  5.07779E+02 -2.81291E+03  7.09685E+02 -4.16753E+03 -1.59592E+02
 -3.28705E+03 -2.22777E+03 -1.09007E+03 -4.80625E+03  1.91772E+03 -5.65027E+03  4.29120E+03 -2.96398E+03
  5.05639E+03  8.58458E+02  2.18947E+03  3.05862E+03  1.20796E+01  5.04215E+03 -3.66523E+03  2.69814E+03
