 $NMID ID='MM_0lb_SNR400_8hz_g50_58.RAW', FMTDAT='(8E13.5)'
 TRAMP=1., VOLUME=1. $END
  3.09493E+05  2.54447E+02  3.37976E+05  2.50414E+05  8.40372E+04  3.38255E+05 -1.32618E+05  2.52352E+05
 -1.90441E+05  8.44921E+04 -1.12607E+05 -3.24646E+04  1.68161E+02 -5.08719E+04  5.32886E+04 -1.73397E+02
  3.61920E+04  5.28364E+04 -1.60970E+04  7.64834E+04 -6.11612E+04  6.42964E+04 -8.58400E+04  3.23907E+04
 -8.24732E+04 -1.18299E+04 -5.87905E+04 -5.24194E+04 -1.52192E+04 -7.03098E+04  2.90510E+04 -4.72677E+04
  4.07959E+04  2.90177E+03  1.62360E+04  4.89115E+04 -3.51624E+04  4.88041E+04 -6.87027E+04  4.39914E+02
 -5.57643E+04 -5.87550E+04 -6.63650E+03 -7.94396E+04  3.45904E+04 -5.74180E+04  5.00229E+04 -1.88878E+04
  4.56673E+04  1.17857E+04  3.35411E+04  2.68249E+04  1.56544E+04  3.06375E+04 -5.87423E+03  2.79509E+04
 -2.26240E+04  1.15324E+04 -1.71737E+04 -6.44267E+03  7.25906E+03 -7.35514E+03  2.33923E+04  1.34434E+04
  6.81753E+03  3.83591E+04 -3.37411E+04  3.70499E+04 -6.55363E+04  2.08014E+03 -5.92003E+04 -4.44766E+04
 -1.30176E+04 -6.64097E+04  4.15051E+04 -4.89132E+04  6.19091E+04 -2.81138E+03  3.66620E+04  3.55055E+04
 -4.76381E+03  4.05921E+04 -3.23580E+04  1.98831E+04 -3.40735E+04 -3.53442E+03 -2.03573E+04 -1.24055E+04
 -9.95120E+03 -1.58527E+04 -5.01194E+02 -2.07154E+04  8.72279E+03 -2.37090E+04  1.55119E+04 -1.24875E+04
  1.09758E+04  5.79281E+03 -1.08581E+04  1.24068E+04 -2.37153E+04 -7.61655E+03 -8.71602E+03 -3.84043E+04
  2.53650E+04 -4.74543E+04  5.34054E+04 -2.15657E+04  4.88080E+04  2.06248E+04  1.69224E+04  4.78110E+04
 -1.64793E+04  3.59804E+04 -2.77213E+04  2.86431E+03 -1.03107E+04 -2.91431E+04  2.14618E+04 -3.73723E+04
  4.54228E+04 -1.07919E+04  4.15762E+04  2.51033E+04  2.16187E+04  5.17714E+04 -9.23676E+03  5.67410E+04
 -3.56263E+04  3.84772E+04 -4.88733E+04  1.14051E+04 -4.92833E+04 -1.92438E+04 -2.66314E+04 -4.28782E+04
  8.13326E+03 -4.16452E+04  3.51815E+04 -1.71463E+04  3.26416E+04  1.07587E+04  4.84464E+03  2.17786E+04
 -1.36486E+04  1.01217E+04 -1.12787E+04 -7.92530E+03  5.12782E+03 -1.14040E+04  1.96768E+04  5.55656E+03
  1.51784E+04  2.25872E+04 -5.16476E+03  2.74699E+04 -2.36095E+04  1.53170E+04 -3.22305E+04 -3.14264E+03
 -2.59385E+04 -1.88832E+04 -1.20738E+04 -2.61945E+04  4.30207E+03 -2.81230E+04  2.04639E+04 -2.40288E+04
  3.25564E+04 -1.40133E+04  3.83107E+04  4.56265E+03  2.73916E+04  2.52085E+04  3.78533E+03  4.29918E+04
 -2.00512E+04  3.51106E+04 -3.13849E+04  1.18409E+04 -2.30270E+04 -9.76488E+03 -4.87640E+03 -1.25713E+04
  1.30565E+03 -8.91171E+02 -8.15951E+03  8.38971E+03 -1.99507E+04  4.78829E+03 -2.09841E+04 -1.02854E+04
 -1.20151E+04 -2.42822E+04  4.94011E+03 -2.89199E+04  1.91843E+04 -2.00373E+04  2.36301E+04 -1.69384E+03
  1.49882E+04  1.64880E+04 -1.58003E+03  2.48805E+04 -1.76608E+04  1.42369E+04 -2.46740E+04 -4.83196E+03
 -1.77083E+04 -2.17213E+04 -1.53003E+03 -2.81832E+04  1.29935E+04 -2.37796E+04  2.39638E+04 -1.24704E+04
  2.22137E+04 -9.50250E+02  1.63661E+04  5.90544E+03  9.47878E+03  9.37598E+02  1.33152E+04 -2.87998E+03
  2.25888E+04  2.79646E+03  2.68522E+04  1.92773E+04  1.78648E+04  3.95267E+04 -2.78676E+03  4.70963E+04
 -2.53599E+04  3.99043E+04 -4.34943E+04  2.02485E+04 -4.67647E+04 -4.05321E+03 -3.79014E+04 -2.84138E+04
 -1.47489E+04 -3.89811E+04  1.32771E+04 -3.44603E+04  2.96905E+04 -1.56393E+04  2.46407E+04  8.20991E+03
  7.87161E+03  1.95532E+04 -1.25036E+04  1.69468E+04 -2.01911E+04  3.07297E+03 -1.55951E+04 -1.30984E+04
 -6.10442E+02 -2.01471E+04  1.12157E+04 -1.45225E+04  1.37431E+04 -1.82726E+03  3.57308E+03  9.13461E+03
 -9.30114E+03  4.46739E+03 -9.66183E+03 -7.65169E+03 -2.86318E+03 -1.93312E+04  1.26759E+04 -2.04774E+04
  2.46062E+04 -1.19377E+04  2.81766E+04  3.46611E+03  2.53483E+04  1.96557E+04  1.17894E+04  3.15280E+04
 -6.28866E+03  3.39475E+04 -2.23003E+04  2.01811E+04 -2.42071E+04  3.04124E+03 -1.62946E+04 -5.79205E+03
 -6.46667E+03 -7.12342E+03 -8.41647E+02  5.25117E+02 -2.41761E+03  3.51153E+03 -8.22892E+03  6.02614E+03
 -1.53847E+04 -7.11791E+02 -1.51900E+04 -1.32327E+04 -5.89005E+03 -2.08349E+04  7.12946E+03 -1.58034E+04
  1.39930E+04 -7.05718E+03  9.48975E+03  4.71093E+03 -6.94610E+02  6.16222E+03 -8.87651E+03  5.23997E+02
 -7.93985E+03 -1.17741E+04  1.42209E+02 -1.68626E+04  1.01103E+04 -1.80544E+04  2.18067E+04 -9.55416E+03
  2.64593E+04  3.38255E+03  1.84221E+04  1.54724E+04  3.61732E+03  2.11365E+04 -9.32145E+03  1.67520E+04
 -1.36059E+04  5.39210E+03 -6.96683E+03 -3.34088E+03  3.00644E+03 -4.35742E+03  8.45598E+03 -4.91483E+02
  7.65037E+03  7.98527E+03  9.38849E+02  1.34043E+04 -1.01539E+04  1.34486E+04 -1.66593E+04  2.96354E+03
 -1.18528E+04 -9.35679E+03 -2.88974E+01 -1.40213E+04  9.28864E+03 -8.25076E+03  1.04493E+04  3.40754E+03
  2.97084E+03  1.10251E+04 -8.53849E+03  1.23319E+04 -1.42692E+04  5.29145E+03 -1.58941E+04 -5.02246E+03
 -8.77254E+03 -1.77607E+04  3.88779E+03 -2.00521E+04  1.68825E+04 -1.19432E+04  1.81262E+04  3.13606E+03
  1.09975E+04  1.48949E+04 -2.04578E+03  1.71396E+04 -1.29849E+04  9.83251E+03 -1.35913E+04 -1.47063E+03
 -1.22766E+04 -1.17985E+04 -1.30144E+03 -1.27360E+04  7.48378E+03 -1.06624E+04  9.16753E+03 -4.15716E+03
  3.88622E+03  2.11943E+03 -2.42909E+03  1.71011E+03 -2.07609E+03 -3.62608E+03  3.28015E+03 -8.24762E+03
  1.33596E+04 -5.86838E+03  1.82087E+04  2.22707E+03  1.74119E+04  1.22119E+04  1.15636E+04  2.27042E+04
 -4.70524E+03  2.59328E+04 -2.18929E+04  1.99161E+04 -2.79678E+04  3.36586E+03 -2.35812E+04 -1.03822E+04
 -1.05991E+04 -1.87636E+04 -1.10666E+03 -1.64137E+04  5.90265E+03 -9.18367E+03  4.67100E+03 -6.22545E+03
  4.16931E+03 -3.39904E+03  4.39178E+03 -4.27544E+03  6.32626E+03 -4.88185E+03  9.27816E+03 -1.36431E+03
  1.11740E+04  2.74427E+03  6.98715E+03  1.06053E+04 -2.37966E+03  1.31745E+04 -1.25753E+04  9.66886E+03
 -1.61121E+04 -1.32029E+03 -1.07112E+04 -1.19727E+04 -2.25205E+03 -1.81950E+04  9.58294E+03 -1.70782E+04
  1.75411E+04 -1.01334E+04  2.13994E+04  2.96275E+03  1.49580E+04  1.51660E+04  2.72605E+03  1.92680E+04
 -8.34296E+03  1.56769E+04 -1.21171E+04  4.72028E+03 -8.35294E+03 -1.91598E+03 -2.65243E+03 -2.78969E+03
 -1.89201E+03  1.24128E+02 -3.60166E+03  3.08123E+03 -6.67134E+03  2.58759E+03 -1.11222E+04 -1.89527E+03
 -8.10608E+03 -1.17994E+04  1.24416E+03 -1.65965E+04  1.03674E+04 -1.43532E+04  1.72522E+04 -5.39737E+03
  1.65074E+04  7.98523E+03  7.38487E+03  1.46556E+04 -1.99133E+03  1.72495E+04 -1.14786E+04  1.02839E+04
 -1.54528E+04  1.10211E+03 -1.19984E+04 -1.00172E+04 -1.10250E+03 -1.36127E+04  7.43695E+03 -1.03478E+04
  1.11711E+04 -3.83749E+03  7.05728E+03  3.32897E+03  2.95748E+03  5.26434E+03  1.65537E+03  2.15525E+03
  2.97650E+03  6.93043E+02  3.87755E+03  2.22502E+03  4.68099E+03  5.32743E+03  4.59393E+03  8.99680E+03
 -3.82816E+03  1.34051E+04 -1.16260E+04  1.29340E+04 -1.76918E+04  3.27684E+03 -1.82637E+04 -7.66203E+03
 -9.25745E+03 -1.71896E+04  2.31013E+03 -1.80910E+04  1.11048E+04 -1.19951E+04  1.47956E+04 -3.66874E+03
  1.09226E+04  6.99127E+03  2.76862E+03  9.71459E+03 -4.69953E+03  6.58547E+03 -7.32072E+03 -1.13907E+03
 -3.38827E+03 -7.44059E+03  3.72288E+03 -7.67328E+03  7.12657E+03 -3.62516E+03  7.21609E+03  1.20859E+03
  4.25844E+03  3.56562E+03  2.15234E+03  3.34178E+03 -8.90730E+02  3.10242E+03  1.76931E+03 -1.23167E+03
  1.94245E+03 -1.14063E+03  7.21482E+03  2.83552E+03  4.11331E+03  8.57179E+03 -1.88277E+03  1.20796E+04
 -8.39321E+03  8.44766E+03 -1.03146E+04  1.99799E+03 -1.05362E+04 -4.44488E+03 -3.47207E+03 -7.37331E+03
  1.23813E+03 -7.68284E+03  5.76244E+03 -3.60833E+03  4.01157E+03  3.87043E+03 -1.28217E+03  5.95256E+03
 -6.57418E+03  3.75028E+03 -8.53638E+03 -4.03056E+03 -4.42516E+03 -9.83941E+03  2.61645E+03 -9.62192E+03
  6.82543E+03 -5.92817E+03  6.95630E+03 -3.84305E+02  5.92873E+03  2.95988E+03  6.31450E+02  4.74148E+03
 -3.31876E+03  1.19496E+03 -5.32469E+03 -2.70856E+03  2.59384E+03 -7.70782E+03  9.12742E+03 -5.97523E+03
  1.06578E+04  6.20807E+02  1.06866E+04  7.81297E+03  3.83766E+03  1.20663E+04 -4.66347E+03  1.15887E+04
 -9.34814E+03  4.74817E+03 -1.02900E+04 -1.99868E+03 -4.82186E+03 -7.46251E+03  1.82014E+03 -7.01819E+03
  7.32051E+03 -2.46044E+03  5.90405E+03  3.78111E+03  2.76600E+03  5.89467E+03 -1.34713E+03  6.24565E+03
 -2.54525E+03  3.35716E+03 -2.13113E+03  8.57054E+02 -1.37327E+03  8.99672E+02 -2.49016E+03  2.02803E+03
 -3.14013E+03  4.36882E+03 -8.02862E+03  3.84380E+03 -1.22968E+04  1.43682E+02 -1.26273E+04 -8.38647E+03
 -7.79631E+03 -1.63279E+04  2.99781E+03 -1.82561E+04  1.05643E+04 -1.43076E+04  1.74345E+04 -4.80250E+03
  1.73865E+04  3.49473E+03  1.02068E+04  1.09637E+04  6.16514E+02  1.29040E+04 -5.52244E+03  9.58424E+03
 -6.50267E+03  2.33712E+03 -3.93520E+03 -1.63619E+03 -1.70779E+03 -8.81036E+02 -9.84352E+02  9.51273E+01
 -7.40786E+02  2.49435E+02 -2.24711E+03  4.96718E+02 -7.25662E+02 -2.28631E+03 -5.70545E+01 -3.43911E+03
  5.40861E+03 -3.44571E+03  8.02827E+03  2.78013E+02  8.27602E+03  7.09435E+03  3.47086E+03  1.27775E+04
 -5.64479E+03  1.42646E+04 -1.28212E+04  8.44363E+03 -1.58823E+04 -8.88225E+02 -1.11443E+04 -9.64700E+03
 -4.12066E+03 -1.25845E+04  3.22154E+03 -1.17814E+04  8.82842E+03 -6.54851E+03  8.91769E+03  4.88637E+02
  5.46506E+03  4.06228E+03 -1.05254E+02  3.47960E+03 -1.41616E+03  2.62318E+02  5.69718E+01 -3.55806E+03
  4.03868E+03 -1.86440E+03  5.86684E+03  1.11757E+03  3.56392E+03  5.73998E+03  4.02196E+02  6.69872E+03
 -5.79763E+03  6.48309E+03 -8.89938E+03  9.16831E+02 -7.40615E+03 -6.21492E+03 -9.43044E+02 -9.85442E+03
  5.47218E+03 -8.36095E+03  1.00447E+04 -3.08653E+03  9.70466E+03  2.48859E+03  5.55251E+03  7.56576E+03
  8.77040E+02  8.79309E+03 -3.51723E+03  7.38545E+03 -5.49492E+03  3.20612E+03 -3.94928E+03  7.43704E+02
 -2.74625E+03  7.22300E+01 -2.70221E+03  5.00576E+02 -4.27877E+03  1.83601E+03 -6.51005E+03 -1.54051E+03
 -5.55948E+03 -5.51461E+03 -2.00030E+03 -7.79881E+03  4.60531E+03 -9.26532E+03  7.56829E+03 -4.62453E+03
  8.25257E+03  1.74697E+03  5.64782E+03  5.87319E+03 -9.01774E+02  8.07210E+03 -5.96360E+03  5.17326E+03
