 $NMID ID='MM_0lb_SNR400_13hz_g50_49.RAW', FMTDAT='(8E13.5)'
 TRAMP=1., VOLUME=1. $END
  3.09946E+05  4.13855E+02  3.37677E+05  2.50838E+05  8.45159E+04  3.37982E+05 -1.32692E+05  2.51002E+05
 -1.90296E+05  8.28500E+04 -1.12166E+05 -3.27482E+04  8.98915E+02 -5.09239E+04  5.40616E+04 -9.17693E+00
  3.53714E+04  5.26497E+04 -1.68431E+04  7.52977E+04 -6.05376E+04  6.37981E+04 -8.54119E+04  3.22793E+04
 -8.11315E+04 -1.20389E+04 -5.69023E+04 -5.11355E+04 -1.51298E+04 -6.94366E+04  2.79434E+04 -4.60493E+04
  4.03963E+04  4.14841E+03  1.70766E+04  4.81525E+04 -3.45146E+04  4.72268E+04 -6.76178E+04  3.44995E+01
 -5.40209E+04 -5.68803E+04 -6.81424E+03 -7.67147E+04  3.41562E+04 -5.52750E+04  4.83835E+04 -1.77463E+04
  4.34155E+04  1.14247E+04  3.22224E+04  2.56479E+04  1.63178E+04  2.93515E+04 -5.41655E+03  2.65896E+04
 -2.21042E+04  1.15166E+04 -1.88557E+04 -5.21731E+03  6.21601E+03 -7.66203E+03  2.31173E+04  1.24644E+04
  7.32713E+03  3.54912E+04 -3.25430E+04  3.54846E+04 -6.35836E+04  2.54471E+03 -5.77261E+04 -4.34351E+04
 -1.26273E+04 -6.44922E+04  4.00711E+04 -4.59531E+04  5.81864E+04 -2.17961E+03  3.45198E+04  3.27576E+04
 -5.80454E+03  3.72909E+04 -3.09314E+04  1.59927E+04 -3.05701E+04 -3.80334E+03 -1.75026E+04 -1.17462E+04
 -8.77162E+03 -1.37909E+04 -9.52349E+02 -1.86885E+04  7.96081E+03 -2.27361E+04  1.51808E+04 -1.31728E+04
  1.11862E+04  5.22281E+03 -7.91273E+03  1.33079E+04 -2.17832E+04 -4.78143E+03 -8.52228E+03 -3.43991E+04
  2.34621E+04 -4.39443E+04  4.90154E+04 -1.99195E+04  4.61912E+04  1.92064E+04  1.59162E+04  4.45878E+04
 -1.62226E+04  3.37258E+04 -2.61564E+04  1.41007E+03 -1.00484E+04 -2.80549E+04  2.11968E+04 -3.47484E+04
  4.19047E+04 -9.17910E+03  3.62005E+04  2.34955E+04  1.88147E+04  4.74889E+04 -8.48123E+03  5.19161E+04
 -3.23342E+04  3.49591E+04 -4.35635E+04  9.71928E+03 -4.31370E+04 -1.65471E+04 -2.42757E+04 -3.92452E+04
  7.22667E+03 -3.88248E+04  3.19188E+04 -1.49563E+04  2.97246E+04  1.11017E+04  3.95421E+03  1.96332E+04
 -1.35120E+04  8.38803E+03 -1.05135E+04 -8.31930E+03  5.71872E+03 -1.10192E+04  1.80455E+04  5.95695E+03
  1.36383E+04  2.26065E+04 -5.85588E+03  2.49435E+04 -2.24575E+04  1.21435E+04 -2.89975E+04 -4.52169E+03
 -2.13722E+04 -1.70961E+04 -9.00424E+03 -2.18096E+04  3.65113E+03 -2.08897E+04  1.66628E+04 -1.89621E+04
  2.74911E+04 -1.31987E+04  3.39685E+04  2.83415E+03  2.44398E+04  2.05989E+04  4.30642E+03  3.69646E+04
 -1.84546E+04  3.13329E+04 -2.79091E+04  1.11205E+04 -2.09270E+04 -1.04933E+04 -4.70280E+03 -1.28534E+04
  9.88013E+02 -2.00078E+03 -5.31848E+03  6.61833E+03 -1.70466E+04  4.73072E+03 -1.70187E+04 -7.66788E+03
 -1.03923E+04 -1.94706E+04  5.81546E+03 -2.42843E+04  1.64527E+04 -1.73270E+04  1.92872E+04 -1.48320E+03
  1.20608E+04  1.42302E+04 -8.91201E+02  2.00996E+04 -1.43909E+04  1.18371E+04 -1.94449E+04 -4.40342E+03
 -1.45421E+04 -1.79203E+04 -1.17491E+03 -2.37564E+04  1.20999E+04 -1.92210E+04  2.03309E+04 -1.00437E+04
  1.85077E+04 -9.53978E+01  1.39445E+04  4.01077E+03  6.67144E+03  1.12091E+03  1.04153E+04 -1.46944E+03
  1.86486E+04  2.70640E+03  2.03422E+04  1.59589E+04  1.34843E+04  3.15771E+04 -3.26853E+03  3.60992E+04
 -2.09546E+04  2.96820E+04 -3.32628E+04  1.46519E+04 -3.56471E+04 -2.48163E+03 -2.93999E+04 -2.11025E+04
 -1.20755E+04 -2.92819E+04  1.02774E+04 -2.63408E+04  2.28729E+04 -1.34259E+04  2.10650E+04  5.64817E+03
  7.18386E+03  1.49422E+04 -9.44256E+03  1.33284E+04 -1.72971E+04  3.29722E+03 -1.31716E+04 -1.09688E+04
 -3.06565E+01 -1.65494E+04  8.12385E+03 -1.22235E+04  1.09650E+04 -1.54634E+03  2.07137E+03  6.51553E+03
 -7.14962E+03  2.26250E+03 -6.70437E+03 -6.20607E+03 -1.02989E+03 -1.44019E+04  1.04398E+04 -1.54794E+04
  1.81190E+04 -7.74086E+03  1.94609E+04  3.12389E+03  1.70101E+04  1.48208E+04  8.15134E+03  2.20518E+04
 -3.92245E+03  2.37183E+04 -1.51251E+04  1.44200E+04 -1.70777E+04  3.23906E+03 -1.18359E+04 -4.27721E+03
 -5.96389E+03 -5.73219E+03 -1.05666E+03  1.67436E+03 -2.53878E+03  2.95770E+03 -5.64204E+03  4.93393E+03
 -1.13796E+04 -7.94513E+02 -1.20496E+04 -9.15453E+03 -4.62103E+03 -1.51598E+04  5.28995E+03 -1.20086E+04
  1.02566E+04 -5.16025E+03  7.12078E+03  3.33808E+03  2.07437E+02  4.25953E+03 -5.03672E+03 -1.60216E+02
 -5.67270E+03 -7.60088E+03 -7.25116E+02 -1.19872E+04  6.65750E+03 -1.28552E+04  1.50345E+04 -6.69171E+03
  1.77062E+04  1.51436E+03  1.31344E+04  1.03917E+04  2.14831E+03  1.36984E+04 -7.32416E+03  1.17470E+04
 -9.87828E+03  3.48830E+03 -4.95658E+03 -2.07053E+03  1.63020E+03 -2.93469E+03  7.22807E+03 -1.11332E+03
  6.12786E+03  5.66608E+03  1.05947E+03  9.60374E+03 -7.19344E+03  9.33802E+03 -1.14674E+04  2.87954E+03
 -7.54949E+03 -6.08662E+03  2.27907E+02 -1.04425E+04  6.24017E+03 -5.40468E+03  6.39116E+03  1.78884E+03
  1.34540E+03  7.08045E+03 -6.88608E+03  7.66584E+03 -9.33491E+03  3.70354E+03 -9.56293E+03 -2.76686E+03
 -5.98097E+03 -1.13755E+04  2.22978E+03 -1.29431E+04  1.03174E+04 -7.57987E+03  1.12341E+04  2.05862E+03
  7.30546E+03  8.84251E+03 -5.09788E+02  1.17189E+04 -8.40982E+03  5.87865E+03 -8.96057E+03 -7.70234E+02
 -8.26174E+03 -7.57030E+03 -1.21496E+03 -7.77657E+03  3.99304E+03 -7.29724E+03  5.20205E+03 -3.66179E+03
  3.73095E+03  1.42688E+03 -8.26285E+02  1.92308E+03 -1.15874E+02 -2.61725E+03  1.43789E+03 -4.88253E+03
  7.45312E+03 -2.85496E+03  1.04613E+04  1.12370E+03  1.05374E+04  6.82379E+03  7.87746E+03  1.41168E+04
 -2.70290E+03  1.62874E+04 -1.34762E+04  1.19900E+04 -1.73256E+04  1.76107E+03 -1.41050E+04 -6.23008E+03
 -7.61915E+03 -1.16379E+04 -6.98833E+02 -1.08796E+04  3.76780E+03 -5.23849E+03  3.20296E+03 -4.11505E+03
  2.36457E+03 -2.27556E+03  3.04815E+03 -2.70974E+03  4.76879E+03 -1.92577E+03  5.88453E+03 -7.75724E+02
  6.98323E+03  2.00094E+03  2.95269E+03  6.47601E+03 -2.08150E+03  7.03558E+03 -8.38061E+03  6.28883E+03
 -9.52101E+03 -6.21841E+02 -5.46723E+03 -6.42159E+03 -9.16391E+01 -1.05115E+04  6.17219E+03 -1.06377E+04
  1.01856E+04 -6.14832E+03  1.23627E+04  3.98897E+02  8.43169E+03  9.23194E+03  1.95965E+03  1.20171E+04
 -4.84854E+03  9.85114E+03 -6.50030E+03  2.52375E+03 -4.58494E+03 -1.65558E+03 -1.39492E+03 -1.39683E+03
 -6.44127E+02 -8.89165E+01 -1.55733E+03  2.50136E+03 -4.29998E+03  2.14676E+03 -6.99713E+03 -6.71447E+02
 -4.54931E+03 -7.11646E+03  5.53737E+02 -8.89461E+03  5.47676E+03 -8.87919E+03  8.93052E+03 -2.14606E+03
  8.81785E+03  4.77216E+03  3.45612E+03  8.07570E+03 -1.66700E+03  1.01698E+04 -6.45040E+03  5.77528E+03
 -9.41420E+03  9.40128E+02 -6.77600E+03 -5.01014E+03 -2.52187E+01 -6.81191E+03  3.58026E+03 -5.51257E+03
  5.88914E+03 -1.95650E+03  3.97038E+03  1.11761E+03  1.21858E+03  3.16317E+03  7.32787E+02  1.16292E+03
  1.93455E+03  9.07281E+02  1.87489E+03  9.64900E+02  2.71068E+03  3.96787E+03  2.37981E+03  4.78888E+03
 -2.68913E+03  6.44787E+03 -6.05168E+03  7.38702E+03 -7.75196E+03  2.23945E+03 -9.51934E+03 -2.93744E+03
 -4.87858E+03 -9.21658E+03  1.62959E+03 -1.03192E+04  5.58498E+03 -5.82131E+03  7.55862E+03 -1.43575E+03
  5.92336E+03  3.31821E+03  1.04127E+03  5.37806E+03 -2.81004E+03  3.45630E+03 -3.46333E+03  2.25927E+01
 -2.47517E+03 -3.43813E+03  2.21993E+03 -3.17377E+03  4.30225E+03 -1.86998E+03  3.42050E+03  1.20819E+03
  1.28873E+03  1.55250E+03  1.95907E+03  1.23958E+03 -7.09184E+02  1.49487E+03  2.20187E+03 -5.74840E+02
  8.95231E+02 -3.42956E+02  3.23686E+03  1.37946E+03  1.98553E+03  5.15723E+03 -1.12772E+03  5.74458E+03
 -3.81894E+03  3.28943E+03 -5.58367E+03  1.10171E+03 -4.62104E+03 -2.41298E+03 -1.70975E+03 -3.24788E+03
  1.00804E+03 -3.10987E+03  1.90236E+03 -1.99063E+03  1.24511E+03  2.64113E+03 -1.32156E+03  2.53596E+03
 -3.80685E+03  1.57026E+03 -3.63565E+03 -2.04985E+03 -2.31099E+03 -4.36845E+03  4.61575E+02 -3.87353E+03
  2.44444E+03 -2.72107E+03  3.63434E+03 -1.51923E+02  2.82501E+03  7.52351E+02 -2.89929E+01  2.44477E+03
 -1.84340E+03  6.30533E+02 -2.48173E+03 -1.58381E+03  1.36499E+03 -3.20056E+03  4.37390E+03 -2.75209E+03
  4.59899E+03  3.31525E+02  5.04598E+03  3.28486E+03  1.51084E+03  4.95040E+03 -1.50802E+03  4.77926E+03
 -4.44838E+03  1.62653E+03 -3.85266E+03 -7.62803E+02 -2.44995E+03 -3.60532E+03 -2.35135E+02 -2.69032E+03
  3.05659E+03 -1.34267E+03  2.80253E+03  1.18628E+03  6.82240E+02  2.38883E+03 -5.89390E+01  3.32428E+03
 -1.48552E+03  1.74153E+03 -1.37798E+03  3.11911E+02 -2.44128E+02  4.03009E+02 -1.26773E+03  1.10184E+03
 -1.69468E+03  1.33818E+03 -3.81647E+03  1.93827E+03 -5.10249E+03  2.37368E+02 -6.11774E+03 -3.06157E+03
 -3.06577E+03 -6.57870E+03  9.70194E+02 -7.51959E+03  4.34029E+03 -6.09108E+03  7.09759E+03 -2.17701E+03
  7.09279E+03  1.79304E+03  3.73118E+03  4.52018E+03 -3.06227E+02  4.62295E+03 -2.00845E+03  3.20578E+03
 -2.79303E+03  1.38400E+03 -1.98282E+03 -4.93171E+02 -6.54522E+02 -4.70809E+02 -8.10583E+02  3.15376E+02
 -1.10402E+03  1.34118E+02 -1.39441E+03 -1.71705E+02  7.40175E+01 -1.18624E+03  6.00264E+02 -1.73599E+03
  3.10669E+03 -1.52788E+03  2.81752E+03 -2.17508E+01  3.26995E+03  3.00682E+03  1.57511E+02  4.10146E+03
 -2.79318E+03  6.20667E+03 -5.52640E+03  3.51193E+03 -6.59868E+03 -7.28004E+02 -3.92914E+03 -3.77117E+03
 -2.06097E+03 -5.10031E+03  1.43951E+03 -5.14489E+03  2.62450E+03 -2.47604E+03  3.19886E+03  3.36087E+01
  1.57543E+03  1.70349E+03  6.15556E+02  1.24625E+03 -9.91812E+02  4.85725E+02 -3.16889E+02 -7.29941E+02
  8.30029E+02  1.23805E+02  1.42449E+03  1.27786E+03  1.53684E+03  1.86926E+03  4.79408E+02  1.63974E+03
 -2.43412E+03  1.60345E+03 -2.69045E+03  3.30444E+02 -2.53263E+03 -2.07009E+03 -1.72652E+02 -3.89899E+03
  2.44917E+03 -3.43332E+03  3.17344E+03 -8.49544E+02  4.03855E+03  2.80955E+02  2.44275E+03  3.19503E+03
  3.34469E+02  3.24701E+03 -6.17915E+02  1.74345E+03 -1.95683E+03  1.43544E+03 -1.62476E+03  3.41621E+02
 -9.78851E+02 -1.49000E+02 -6.59328E+02  4.35514E+02 -1.36117E+03  4.73072E+02 -1.85572E+03 -1.19443E+03
 -2.46658E+03 -1.42889E+03 -1.25469E+03 -2.91254E+03  1.30381E+03 -3.38472E+03  2.37774E+03 -1.16994E+03
  2.75570E+03  6.47099E+02  1.21213E+03  2.11743E+03 -1.01626E+02  2.88999E+03 -1.78039E+03  1.16947E+03
