 $NMID ID='MM_0lb_SNR400_8hz_g55_20.RAW', FMTDAT='(8E13.5)'
 TRAMP=1., VOLUME=1. $END
  3.09023E+05  5.04656E+02  3.38058E+05  2.51612E+05  8.50274E+04  3.37920E+05 -1.33210E+05  2.51278E+05
 -1.89885E+05  8.40613E+04 -1.13772E+05 -3.18394E+04  9.48322E+02 -5.08012E+04  5.42346E+04 -2.93118E+02
  3.49799E+04  5.18337E+04 -1.56391E+04  7.55233E+04 -6.18650E+04  6.41692E+04 -8.59029E+04  3.28362E+04
 -8.23271E+04 -1.16886E+04 -5.84489E+04 -5.26019E+04 -1.54375E+04 -7.13912E+04  2.89656E+04 -4.73795E+04
  4.17352E+04  3.20769E+03  1.62445E+04  4.87009E+04 -3.53149E+04  4.75273E+04 -6.78112E+04  8.34930E+01
 -5.57330E+04 -5.82046E+04 -8.12418E+03 -8.06370E+04  3.50301E+04 -5.80359E+04  5.12307E+04 -1.77273E+04
  4.53917E+04  1.15825E+04  3.26357E+04  2.67144E+04  1.57124E+04  3.16339E+04 -5.58254E+03  2.82054E+04
 -2.30441E+04  1.18874E+04 -1.78899E+04 -5.38295E+03  7.71868E+03 -7.52433E+03  2.37372E+04  1.37671E+04
  7.60178E+03  3.72852E+04 -3.39924E+04  3.76327E+04 -6.66997E+04  2.82105E+03 -6.02434E+04 -4.51523E+04
 -1.32091E+04 -6.65774E+04  4.32061E+04 -4.85548E+04  6.26009E+04 -2.19050E+03  3.78363E+04  3.50904E+04
 -5.15481E+03  4.10974E+04 -3.14911E+04  1.98525E+04 -3.44142E+04 -2.93653E+03 -2.02837E+04 -1.23105E+04
 -9.88721E+03 -1.56553E+04 -1.18458E+03 -2.04656E+04  9.47705E+03 -2.38395E+04  1.67292E+04 -1.22363E+04
  1.00222E+04  7.44568E+03 -1.13110E+04  1.27084E+04 -2.44265E+04 -7.23881E+03 -8.23735E+03 -3.81604E+04
  2.61963E+04 -4.71151E+04  5.38847E+04 -2.11594E+04  5.02156E+04  2.12520E+04  1.73237E+04  4.75023E+04
 -1.72731E+04  3.81046E+04 -2.84099E+04  2.91172E+03 -1.29826E+04 -2.95063E+04  2.20443E+04 -3.78225E+04
  4.62972E+04 -1.15672E+04  4.23585E+04  2.63082E+04  2.19262E+04  5.14871E+04 -8.34544E+03  5.80490E+04
 -3.59062E+04  3.98633E+04 -4.88542E+04  1.19095E+04 -4.97475E+04 -1.95588E+04 -2.59123E+04 -4.33563E+04
  7.25035E+03 -4.34709E+04  3.57452E+04 -1.80795E+04  3.33033E+04  1.15681E+04  5.49190E+03  2.10569E+04
 -1.35072E+04  9.26761E+03 -1.14592E+04 -7.06738E+03  5.85691E+03 -1.12635E+04  1.93910E+04  5.47295E+03
  1.49681E+04  2.20032E+04 -5.34739E+03  2.74944E+04 -2.41920E+04  1.57776E+04 -3.33233E+04 -1.90422E+03
 -2.66013E+04 -1.80720E+04 -1.21223E+04 -2.68658E+04  2.81937E+03 -2.79665E+04  2.18447E+04 -2.42399E+04
  3.44229E+04 -1.48949E+04  4.00393E+04  5.50220E+03  2.81850E+04  2.64198E+04  4.69424E+03  4.28615E+04
 -2.02577E+04  3.49634E+04 -3.11345E+04  1.22550E+04 -2.29906E+04 -1.05107E+04 -5.14037E+03 -1.19174E+04
  1.13461E+03 -6.65429E+02 -8.32633E+03  8.61612E+03 -2.16454E+04  4.58932E+03 -2.21469E+04 -9.80249E+03
 -1.17532E+04 -2.45258E+04  5.71221E+03 -2.96084E+04  2.05318E+04 -2.11843E+04  2.36590E+04 -1.56049E+03
  1.56623E+04  1.61001E+04 -1.13752E+03  2.49071E+04 -1.77053E+04  1.42609E+04 -2.47303E+04 -5.05450E+03
 -1.86855E+04 -2.20066E+04 -2.04285E+03 -2.98960E+04  1.30837E+04 -2.44581E+04  2.40668E+04 -1.22359E+04
  2.29138E+04 -1.02962E+03  1.72161E+04  5.83752E+03  8.71874E+03  1.64462E+03  1.33007E+04 -2.52823E+03
  2.31596E+04  3.15748E+03  2.76729E+04  1.90541E+04  1.83843E+04  3.97751E+04 -2.39496E+03  4.70400E+04
 -2.68500E+04  3.98397E+04 -4.46192E+04  2.09125E+04 -4.74603E+04 -2.59034E+03 -3.86474E+04 -2.90345E+04
 -1.53778E+04 -4.02754E+04  1.51563E+04 -3.44370E+04  2.96444E+04 -1.60356E+04  2.61225E+04  8.54688E+03
  8.18460E+03  2.02237E+04 -1.20475E+04  1.65400E+04 -2.12760E+04  2.58889E+03 -1.56085E+04 -1.41147E+04
  5.49582E+02 -2.10851E+04  1.06190E+04 -1.46643E+04  1.56857E+04 -1.93003E+03  3.46236E+03  9.97105E+03
 -9.09139E+03  4.92937E+03 -1.05337E+04 -7.92605E+03 -2.51000E+03 -1.88349E+04  1.25713E+04 -2.16104E+04
  2.55975E+04 -1.12727E+04  2.83775E+04  3.25854E+03  2.58062E+04  2.08195E+04  1.12932E+04  3.19993E+04
 -6.85817E+03  3.41400E+04 -2.27571E+04  2.07917E+04 -2.53526E+04  4.23758E+03 -1.71694E+04 -7.35754E+03
 -7.65511E+03 -7.32359E+03 -6.58209E+01  6.43015E+02 -3.00460E+03  3.68983E+03 -7.73718E+03  5.96831E+03
 -1.47966E+04 -1.37155E+03 -1.57008E+04 -1.27574E+04 -7.03428E+03 -2.03839E+04  6.66088E+03 -1.68776E+04
  1.39647E+04 -8.14264E+03  9.55088E+03  4.28090E+03 -5.59079E+02  6.45765E+03 -8.60202E+03 -5.97468E+02
 -8.07862E+03 -1.06566E+04 -1.45383E+02 -1.73598E+04  9.69043E+03 -1.71561E+04  2.16850E+04 -9.91156E+03
  2.62290E+04  2.53353E+03  1.90709E+04  1.59196E+04  3.18539E+03  2.21449E+04 -1.03865E+04  1.65326E+04
 -1.40444E+04  4.62290E+03 -7.52224E+03 -4.49363E+03  2.32561E+03 -4.43523E+03  8.89928E+03 -6.21188E+02
  7.94107E+03  8.38955E+03  1.73528E+03  1.45327E+04 -9.30583E+03  1.28199E+04 -1.72476E+04  3.20701E+03
 -1.17119E+04 -8.99565E+03  4.68608E+02 -1.50117E+04  1.04611E+04 -6.90578E+03  1.07991E+04  3.81871E+03
  2.87307E+03  1.18063E+04 -9.75391E+03  1.36537E+04 -1.63562E+04  5.13095E+03 -1.60361E+04 -6.20827E+03
 -7.93379E+03 -1.78890E+04  4.69866E+03 -2.06903E+04  1.74869E+04 -1.26749E+04  1.86932E+04  3.04786E+03
  1.08959E+04  1.50256E+04 -2.50194E+03  1.78694E+04 -1.16573E+04  1.02373E+04 -1.52480E+04 -5.34793E+02
 -1.13226E+04 -1.23166E+04 -1.83419E+03 -1.26912E+04  8.02604E+03 -1.10751E+04  8.92324E+03 -3.07656E+03
  5.87446E+03  2.26137E+03 -1.50685E+03  1.73614E+03 -6.65890E+02 -3.34886E+03  3.46935E+03 -8.93716E+03
  1.42663E+04 -5.69116E+03  1.85025E+04  1.54863E+03  1.78309E+04  1.27788E+04  1.13122E+04  2.34768E+04
 -5.63832E+03  2.76962E+04 -2.21336E+04  2.05671E+04 -2.84449E+04  3.36113E+03 -2.43774E+04 -1.02407E+04
 -1.10159E+04 -1.96895E+04 -4.57552E+02 -1.70990E+04  6.05096E+03 -9.69593E+03  5.50607E+03 -6.48090E+03
  4.77715E+03 -3.25677E+03  4.32560E+03 -4.26155E+03  6.34121E+03 -3.59867E+03  9.53673E+03 -1.56279E+03
  1.25384E+04  2.81508E+03  7.23593E+03  1.05955E+04 -2.48223E+03  1.39960E+04 -1.24560E+04  1.05163E+04
 -1.62439E+04 -1.19320E+03 -1.10807E+04 -1.21061E+04 -2.15394E+03 -1.81991E+04  1.05388E+04 -1.85750E+04
  1.89213E+04 -9.57880E+03  2.26829E+04  3.87588E+03  1.50850E+04  1.60283E+04  2.53892E+03  2.07740E+04
 -8.28551E+03  1.59954E+04 -1.22621E+04  5.74815E+03 -7.52671E+03 -1.40615E+03 -3.57899E+03 -3.05725E+03
 -1.68420E+03  9.86800E+02 -2.48747E+03  3.28660E+03 -6.63069E+03  2.03362E+03 -1.13724E+04 -9.31400E+02
 -8.72974E+03 -1.19598E+04 -4.64635E+01 -1.66731E+04  1.09289E+04 -1.56312E+04  1.83306E+04 -4.98776E+03
  1.64630E+04  8.50947E+03  8.10466E+03  1.63273E+04 -3.63972E+03  1.75564E+04 -1.30164E+04  1.07760E+04
 -1.69112E+04  7.86893E+01 -1.15975E+04 -1.00124E+04 -7.21160E+02 -1.46611E+04  7.93393E+03 -1.12930E+04
  1.02624E+04 -3.77926E+03  7.65992E+03  3.60566E+03  2.19352E+03  4.89150E+03  1.86694E+03  3.35822E+03
  3.33684E+03  1.50041E+03  5.64621E+03  1.51605E+03  5.96393E+03  5.80830E+03  4.74451E+03  1.03804E+04
 -3.58063E+03  1.39904E+04 -1.21772E+04  1.38450E+04 -1.78801E+04  3.45442E+03 -1.76501E+04 -8.71275E+03
 -9.34401E+03 -1.83857E+04  2.57005E+03 -1.96847E+04  1.00130E+04 -1.23784E+04  1.45199E+04 -4.73691E+03
  1.14390E+04  7.16089E+03  3.33220E+03  1.05015E+04 -4.88919E+03  7.11646E+03 -7.62407E+03 -1.17615E+03
 -4.25067E+03 -7.94065E+03  4.12351E+03 -7.87538E+03  7.28065E+03 -3.88200E+03  6.92496E+03  2.03732E+03
  4.24860E+03  2.66375E+03  4.00333E+02  3.18928E+03 -1.21842E+03  2.14040E+03  2.19865E+03  1.24110E+02
  2.85959E+03 -1.03031E+03  8.10233E+03  2.99787E+03  4.82046E+03  9.51536E+03 -1.70756E+03  1.29012E+04
 -8.76164E+03  8.73238E+03 -1.08219E+04  2.08867E+03 -1.01085E+04 -4.61775E+03 -5.15077E+03 -6.70968E+03
  1.68756E+03 -6.93371E+03  5.09285E+03 -2.72750E+03  4.05108E+03  2.77566E+03 -2.20058E+03  5.97564E+03
 -8.12619E+03  3.43810E+03 -8.55643E+03 -4.69407E+03 -5.15343E+03 -9.46392E+03  2.48666E+03 -1.05094E+04
  6.45527E+03 -5.92093E+03  7.85324E+03 -5.65119E+02  7.08344E+03  3.10004E+03  8.07473E+02  5.44143E+03
 -3.29084E+03  1.87365E+03 -3.57097E+03 -3.58036E+03  1.46182E+03 -7.65269E+03  9.43184E+03 -6.74583E+03
  1.25877E+04  8.47299E+02  1.10572E+04  8.13423E+03  3.02536E+03  1.24126E+04 -4.29356E+03  1.07606E+04
 -9.81284E+03  5.04515E+03 -9.75356E+03 -1.09132E+03 -5.56749E+03 -7.89407E+03  1.80198E+03 -7.61759E+03
  7.02543E+03 -3.17336E+03  7.03619E+03  2.81897E+03  1.62657E+03  6.79782E+03 -6.69842E+02  6.24653E+03
 -2.98735E+03  3.90170E+03 -2.69554E+03  2.03692E+03 -1.64411E+03  1.26093E+03 -2.28667E+03  3.02943E+03
 -3.96858E+03  4.51412E+03 -8.21746E+03  5.57341E+03 -1.24216E+04  2.70740E+02 -1.40550E+04 -8.84664E+03
 -6.96255E+03 -1.70735E+04  2.18967E+03 -1.87918E+04  1.14929E+04 -1.52717E+04  1.79127E+04 -5.26721E+03
  1.63855E+04  3.74730E+03  9.89725E+03  1.19802E+04  1.66787E+03  1.29742E+04 -5.50096E+03  1.03531E+04
 -7.75232E+03  3.72149E+03 -4.46322E+03 -1.07371E+03 -1.44614E+03 -7.10284E+02 -6.27286E+02  3.73543E+01
 -2.11945E+03  4.29743E+01 -3.48336E+03 -1.21971E+02 -1.15888E+03 -2.39810E+03  7.14786E+02 -4.73846E+03
  5.71100E+03 -3.93490E+03  9.04813E+03  5.43433E+02  9.27095E+03  7.22091E+03  2.97899E+03  1.26399E+04
 -6.65754E+03  1.49916E+04 -1.37411E+04  9.18343E+03 -1.61008E+04 -4.11845E+02 -1.14829E+04 -9.81895E+03
 -4.82698E+03 -1.34012E+04  3.06433E+03 -1.29413E+04  8.08623E+03 -7.00375E+03  7.92023E+03  7.63304E+02
  3.97056E+03  3.54174E+03 -1.32940E+03  3.22317E+03 -2.49689E+03 -3.60574E+02 -1.57822E+02 -3.87154E+03
  3.85601E+03 -1.53278E+03  6.01205E+03  1.71687E+03  4.45963E+03  4.80340E+03  6.76944E+02  6.62015E+03
 -5.21470E+03  5.69787E+03 -8.82456E+03  1.35495E+03 -7.75412E+03 -6.64408E+03 -1.63206E+03 -1.10886E+04
  6.65378E+03 -9.33026E+03  1.00586E+04 -2.69708E+03  1.06057E+04  2.78551E+03  5.88177E+03  8.56255E+03
  1.74616E+03  9.13088E+03 -3.53737E+03  6.68317E+03 -6.07780E+03  2.97233E+03 -5.39023E+03  7.68451E+02
 -3.03395E+03 -1.82152E+01 -2.40041E+03  1.77966E+03 -4.16164E+03  2.72250E+03 -7.08520E+03 -1.82580E+03
 -6.17336E+03 -5.44920E+03 -1.67319E+03 -1.00652E+04  4.31227E+03 -9.19018E+03  8.80189E+03 -4.97116E+03
  8.60145E+03  1.33606E+03  5.58879E+03  6.77673E+03 -5.58152E+02  8.33233E+03 -7.06643E+03  5.52687E+03
