 $NMID ID='MM_0lb_SNR400_12hz_g50_97.RAW', FMTDAT='(8E13.5)'
 TRAMP=1., VOLUME=1. $END
  3.10337E+05  9.88332E+02  3.37463E+05  2.50415E+05  8.49917E+04  3.38142E+05 -1.32824E+05  2.51064E+05
 -1.90640E+05  8.30269E+04 -1.12360E+05 -3.26325E+04  5.07909E+02 -5.07060E+04  5.33738E+04 -6.06770E+02
  3.54793E+04  5.27380E+04 -1.64245E+04  7.55599E+04 -6.11740E+04  6.38515E+04 -8.50622E+04  3.19923E+04
 -8.13675E+04 -1.17738E+04 -5.74371E+04 -5.15559E+04 -1.45965E+04 -6.99507E+04  2.80619E+04 -4.61949E+04
  4.07300E+04  4.35982E+03  1.61216E+04  4.85098E+04 -3.46958E+04  4.70564E+04 -6.77685E+04 -4.28934E+02
 -5.37507E+04 -5.72669E+04 -7.17863E+03 -7.80770E+04  3.42134E+04 -5.64265E+04  4.81232E+04 -1.70286E+04
  4.39956E+04  1.07233E+04  3.25208E+04  2.57531E+04  1.59579E+04  2.97780E+04 -5.24583E+03  2.72907E+04
 -2.29467E+04  1.28355E+04 -1.82965E+04 -4.79154E+03  5.88382E+03 -7.45005E+03  2.31370E+04  1.26865E+04
  7.52010E+03  3.60345E+04 -3.26556E+04  3.58318E+04 -6.41973E+04  1.81884E+03 -5.74911E+04 -4.32357E+04
 -1.25916E+04 -6.43733E+04  4.10553E+04 -4.62107E+04  5.94440E+04 -2.66523E+03  3.49576E+04  3.31137E+04
 -6.05273E+03  3.77115E+04 -3.04479E+04  1.74889E+04 -3.23776E+04 -3.71985E+03 -1.79903E+04 -1.15782E+04
 -8.85008E+03 -1.43031E+04 -6.98031E+02 -1.83270E+04  7.98236E+03 -2.29515E+04  1.51013E+04 -1.30388E+04
  1.02585E+04  5.51207E+03 -9.53023E+03  1.32999E+04 -2.23706E+04 -5.88480E+03 -8.77223E+03 -3.53692E+04
  2.35636E+04 -4.46973E+04  4.99830E+04 -2.09433E+04  4.60271E+04  2.04408E+04  1.67421E+04  4.49179E+04
 -1.62255E+04  3.43328E+04 -2.64915E+04  2.17433E+03 -1.10422E+04 -2.90382E+04  2.13011E+04 -3.48832E+04
  4.23087E+04 -9.72188E+03  3.80659E+04  2.44241E+04  1.99485E+04  4.89665E+04 -7.80254E+03  5.34599E+04
 -3.33672E+04  3.51857E+04 -4.38442E+04  1.01740E+04 -4.46626E+04 -1.76209E+04 -2.47573E+04 -3.97300E+04
  7.17475E+03 -3.96566E+04  3.25030E+04 -1.55406E+04  3.03491E+04  1.08677E+04  4.53997E+03  2.03222E+04
 -1.26675E+04  8.53389E+03 -1.05855E+04 -7.64737E+03  5.73851E+03 -1.13686E+04  1.85722E+04  6.00251E+03
  1.37719E+04  2.21910E+04 -5.48954E+03  2.63117E+04 -2.30538E+04  1.23872E+04 -2.87359E+04 -4.03048E+03
 -2.25460E+04 -1.75231E+04 -1.04426E+04 -2.20819E+04  4.40213E+03 -2.17614E+04  1.66317E+04 -2.03686E+04
  2.83957E+04 -1.32710E+04  3.52906E+04  3.23855E+03  2.50745E+04  2.15946E+04  4.27260E+03  3.79829E+04
 -1.89480E+04  3.24071E+04 -2.89971E+04  1.10370E+04 -2.19580E+04 -1.00759E+04 -4.88349E+03 -1.31864E+04
  1.54765E+03 -2.24969E+03 -5.95500E+03  7.57283E+03 -1.81361E+04  4.62712E+03 -1.84422E+04 -7.82740E+03
 -1.14654E+04 -2.09310E+04  5.70338E+03 -2.47784E+04  1.69221E+04 -1.81810E+04  2.02525E+04 -1.88144E+03
  1.23555E+04  1.37136E+04 -1.35995E+03  2.09903E+04 -1.44621E+04  1.14351E+04 -2.15492E+04 -4.12132E+03
 -1.52334E+04 -1.84176E+04 -1.60973E+03 -2.50683E+04  1.16807E+04 -2.03233E+04  2.02666E+04 -1.11240E+04
  1.98041E+04  3.30418E+02  1.45401E+04  4.55465E+03  7.86051E+03  1.07558E+02  1.13496E+04 -1.41631E+03
  1.91388E+04  2.57085E+03  2.15903E+04  1.67912E+04  1.44829E+04  3.31710E+04 -2.76121E+03  3.81654E+04
 -2.11629E+04  3.08842E+04 -3.50330E+04  1.58463E+04 -3.81739E+04 -2.58674E+03 -3.13871E+04 -2.26731E+04
 -1.29053E+04 -3.11491E+04  1.09423E+04 -2.82836E+04  2.40798E+04 -1.39487E+04  2.11825E+04  6.51544E+03
  6.95966E+03  1.59332E+04 -1.02513E+04  1.41208E+04 -1.74609E+04  2.60225E+03 -1.36947E+04 -1.09567E+04
 -4.88370E+01 -1.63172E+04  9.23304E+03 -1.25115E+04  1.08514E+04 -1.07774E+03  3.22741E+03  7.53304E+03
 -7.82611E+03  2.45645E+03 -7.45558E+03 -5.39916E+03 -1.42543E+03 -1.53136E+04  1.04035E+04 -1.59330E+04
  1.91349E+04 -8.70730E+03  2.08045E+04  2.71215E+03  1.81812E+04  1.53469E+04  8.92215E+03  2.36219E+04
 -4.17449E+03  2.53157E+04 -1.72762E+04  1.66338E+04 -1.84993E+04  3.50168E+03 -1.26527E+04 -4.33683E+03
 -6.00318E+03 -5.78510E+03 -5.97634E+02  1.03230E+03 -2.38714E+03  3.01136E+03 -5.89549E+03  4.67782E+03
 -1.19066E+04 -9.53980E+02 -1.33072E+04 -9.40663E+03 -4.79314E+03 -1.73372E+04  5.23750E+03 -1.23150E+04
  1.08477E+04 -4.85782E+03  7.51202E+03  3.19788E+03  6.01870E+02  5.22320E+03 -6.34135E+03 -3.09530E+02
 -5.90896E+03 -8.21026E+03 -1.36245E+03 -1.21940E+04  7.88970E+03 -1.37543E+04  1.65125E+04 -7.25683E+03
  1.88407E+04  2.33793E+03  1.41073E+04  1.12667E+04  2.79252E+03  1.44551E+04 -8.53920E+03  1.28765E+04
 -1.01711E+04  3.96484E+03 -5.82828E+03 -2.17549E+03  2.29331E+03 -3.00982E+03  7.48794E+03 -7.83396E+02
  6.42248E+03  5.07487E+03  1.25515E+03  1.01585E+04 -7.70702E+03  9.32316E+03 -1.26900E+04  3.23138E+03
 -8.27005E+03 -6.60014E+03 -4.40418E+01 -1.10148E+04  6.83179E+03 -5.29101E+03  7.10750E+03  2.46328E+03
  1.47420E+03  7.86567E+03 -6.38057E+03  8.91978E+03 -1.02086E+04  4.00010E+03 -1.02023E+04 -3.68920E+03
 -6.19581E+03 -1.19256E+04  2.38634E+03 -1.40670E+04  1.15105E+04 -9.08989E+03  1.26072E+04  2.51989E+03
  7.56461E+03  9.73463E+03 -6.88775E+02  1.21337E+04 -9.63036E+03  6.98572E+03 -9.44747E+03 -9.80524E+02
 -9.25123E+03 -8.39167E+03 -1.47386E+03 -9.64559E+03  4.34732E+03 -7.69590E+03  5.35568E+03 -3.26379E+03
  4.70534E+03  1.40534E+03 -1.03310E+03  1.27450E+03  6.37884E+01 -1.77999E+03  1.83084E+03 -5.49739E+03
  8.55044E+03 -3.47457E+03  1.16629E+04  1.57304E+03  1.13160E+04  7.86017E+03  8.38299E+03  1.52767E+04
 -3.41745E+03  1.75739E+04 -1.49052E+04  1.22828E+04 -1.93278E+04  2.56224E+03 -1.58611E+04 -6.46185E+03
 -8.74476E+03 -1.28527E+04 -5.34145E+02 -1.10343E+04  4.73983E+03 -5.35998E+03  3.61500E+03 -3.92876E+03
  3.01515E+03 -2.29538E+03  2.84199E+03 -3.48172E+03  5.23595E+03 -2.03037E+03  5.87763E+03 -4.28403E+02
  8.26319E+03  2.13529E+03  4.40266E+03  7.36217E+03 -1.59243E+03  7.59742E+03 -8.70767E+03  6.07503E+03
 -1.04140E+04 -1.15946E+03 -6.32060E+03 -7.17234E+03 -6.00844E+02 -1.19255E+04  6.53739E+03 -1.17042E+04
  1.17361E+04 -6.82179E+03  1.33266E+04  1.32646E+03  1.01316E+04  1.00745E+04  1.81634E+03  1.28322E+04
 -4.95641E+03  1.02640E+04 -8.07508E+03  4.20125E+03 -5.11247E+03 -9.36032E+02 -1.87245E+03 -1.32260E+03
 -1.16883E+03  1.64833E+02 -1.45462E+03  2.61398E+03 -4.93097E+03  2.13690E+03 -7.01390E+03 -1.27296E+03
 -4.83921E+03 -7.36413E+03 -6.42953E+01 -1.00028E+04  6.33560E+03 -9.38177E+03  1.03265E+04 -3.12780E+03
  1.04251E+04  4.91748E+03  3.96802E+03  9.01459E+03 -2.44519E+03  1.00925E+04 -7.14726E+03  6.59944E+03
 -9.39755E+03  5.54980E+02 -7.50058E+03 -6.85552E+03 -4.13935E+02 -7.65470E+03  4.15743E+03 -6.34678E+03
  6.70589E+03 -2.66834E+03  4.23346E+03  1.51104E+03  1.47280E+03  2.78068E+03  1.23592E+03  1.08714E+03
  2.62281E+03  5.84715E+02  2.77891E+03  1.59584E+03  3.10918E+03  3.95645E+03  2.91436E+03  5.32574E+03
 -2.76269E+03  7.68466E+03 -7.19656E+03  8.53115E+03 -1.02206E+04  2.30550E+03 -1.06290E+04 -4.78468E+03
 -5.10366E+03 -1.03934E+04  1.85306E+03 -1.11820E+04  6.51238E+03 -6.61648E+03  8.36894E+03 -2.24327E+03
  6.90375E+03  4.15990E+03  1.14543E+03  5.53244E+03 -2.32094E+03  3.24158E+03 -3.83692E+03 -7.84919E+02
 -2.11495E+03 -3.86767E+03  2.83807E+03 -4.67578E+03  4.20092E+03 -2.10370E+03  4.17093E+03 -6.08146E+01
  2.84525E+03  1.84875E+03  1.24325E+03  1.24125E+03 -6.42956E+02  1.84312E+03  1.80185E+03 -3.59248E+02
  1.39723E+03 -7.46950E+02  3.55971E+03  1.99157E+03  2.29112E+03  5.18662E+03 -6.78351E+02  7.09852E+03
 -4.90942E+03  3.72412E+03 -6.69239E+03  1.60110E+03 -6.21220E+03 -2.00483E+03 -2.49013E+03 -3.40003E+03
 -7.40804E+01 -3.90742E+03  2.40748E+03 -2.27945E+03  1.79468E+03  2.05307E+03 -1.11413E+03  3.30582E+03
 -3.52248E+03  2.40076E+03 -4.31899E+03 -2.64519E+03 -2.81681E+03 -5.67558E+03  8.06812E+01 -4.85800E+03
  2.30131E+03 -3.25030E+03  3.70000E+03 -5.60950E+02  3.24816E+03  1.46805E+03 -1.02557E+02  3.10083E+03
 -1.84694E+03  5.19298E+02 -1.89836E+03 -1.95530E+03  1.24094E+03 -3.74039E+03  4.41253E+03 -3.24701E+03
  5.05918E+03  5.86623E+02  5.59489E+03  3.43761E+03  1.49197E+03  6.53699E+03 -1.87678E+03  5.89029E+03
 -5.00232E+03  2.31998E+03 -5.68243E+03 -6.67297E+02 -2.63523E+03 -3.87463E+03  7.77226E+02 -3.60428E+03
  4.18461E+03 -1.95070E+03  2.77946E+03  2.03813E+03  9.70883E+02  3.13820E+03 -3.17704E+02  3.55573E+03
 -1.62799E+03  2.24019E+03 -1.12033E+03  5.65476E+02 -5.60337E+02  9.48934E+02 -9.46006E+02  1.13670E+03
 -1.95997E+03  2.31047E+03 -4.42697E+03  2.23239E+03 -5.21431E+03 -1.34755E+02 -7.20615E+03 -3.99207E+03
 -3.67883E+03 -7.97333E+03  2.10760E+03 -8.58793E+03  5.88131E+03 -6.77121E+03  8.93903E+03 -2.69278E+03
  7.94476E+03  1.70899E+03  4.08195E+03  5.45386E+03 -2.28336E+02  5.73051E+03 -2.69589E+03  5.30576E+03
 -3.53311E+03  1.72429E+03 -1.63425E+03  2.63732E+02 -7.60449E+02 -3.26738E+02 -5.14072E+02  2.61644E+02
 -1.10602E+03  1.44339E+02 -2.03208E+03  6.53670E+02 -1.75642E+02 -1.82281E+03 -1.34354E+02 -2.09455E+03
  2.39322E+03 -2.35348E+03  3.35676E+03  2.18769E+02  4.16493E+03  3.13446E+03  8.58493E+02  6.13223E+03
 -2.84876E+03  6.54306E+03 -6.06724E+03  3.97234E+03 -7.56610E+03 -1.17039E+03 -5.13402E+03 -4.37752E+03
 -2.87623E+03 -5.96292E+03  1.56009E+03 -5.67191E+03  4.34013E+03 -2.45147E+03  4.10044E+03  4.26891E+02
  2.62059E+03  2.13933E+03  2.36928E+02  1.53264E+03 -1.06783E+03 -5.35240E+02  1.34097E+02 -5.52099E+02
  2.07229E+03 -7.42972E+02  2.16801E+03  1.10084E+03  1.30477E+03  1.55055E+03  7.62190E+02  2.93984E+03
 -2.81035E+03  2.68614E+03 -3.95358E+03  1.04952E+03 -3.09481E+03 -3.09569E+03  1.74522E+01 -5.25387E+03
  1.79823E+03 -3.41587E+03  4.26479E+03 -1.42143E+03  3.88203E+03  4.37127E+02  2.76141E+03  3.91028E+03
  3.27664E+02  3.86109E+03 -1.01098E+03  2.88236E+03 -2.31757E+03  2.30750E+03 -2.32602E+03  1.93385E+02
 -7.98364E+02  1.43393E+02 -2.00801E+03  4.76741E+02 -2.43216E+03  1.22704E+03 -3.07863E+03 -9.98343E+02
 -2.80057E+03 -8.43510E+02 -1.00355E+03 -4.20253E+03  1.54739E+03 -4.19705E+03  4.04156E+03 -1.65330E+03
  3.28870E+03  5.16291E+02  1.78966E+03  2.57959E+03 -1.75628E+02  4.00738E+03 -2.57826E+03  2.39415E+03
