 $NMID ID='MM_0lb_SNR400_20hz_g50_78.RAW', FMTDAT='(8E13.5)'
 TRAMP=1., VOLUME=1. $END
  3.09971E+05  6.34766E+01  3.36832E+05  2.50249E+05  8.47653E+04  3.37308E+05 -1.32462E+05  2.50051E+05
 -1.89462E+05  8.18334E+04 -1.10565E+05 -3.27031E+04  1.20633E+03 -5.03237E+04  5.39223E+04  7.04186E+01
  3.46324E+04  5.24694E+04 -1.73524E+04  7.46423E+04 -6.04442E+04  6.30217E+04 -8.28092E+04  3.14492E+04
 -7.94267E+04 -1.10938E+04 -5.60662E+04 -4.99478E+04 -1.45445E+04 -6.86049E+04  2.65942E+04 -4.49667E+04
  3.87796E+04  3.87308E+03  1.55272E+04  4.68872E+04 -3.41679E+04  4.61921E+04 -6.52303E+04 -5.13609E+02
 -5.18515E+04 -5.61706E+04 -6.11789E+03 -7.38855E+04  3.30129E+04 -5.30016E+04  4.58496E+04 -1.59634E+04
  4.11919E+04  1.12261E+04  3.06743E+04  2.38999E+04  1.60786E+04  2.82627E+04 -4.64881E+03  2.67497E+04
 -2.12853E+04  1.27280E+04 -1.98513E+04 -4.35110E+03  4.24869E+03 -7.57884E+03  2.11190E+04  1.06786E+04
  7.81868E+03  3.29045E+04 -3.03037E+04  3.37317E+04 -6.13318E+04  1.89472E+03 -5.49530E+04 -4.10572E+04
 -1.21418E+04 -6.06205E+04  3.78386E+04 -4.31700E+04  5.50274E+04 -2.15422E+03  3.13881E+04  3.04047E+04
 -6.59356E+03  3.26950E+04 -2.81578E+04  1.31673E+04 -2.70825E+04 -5.76547E+03 -1.39260E+04 -9.56599E+03
 -7.25970E+03 -1.11936E+04 -1.55809E+03 -1.62893E+04  6.84380E+03 -2.24465E+04  1.46109E+04 -1.37693E+04
  1.25107E+04  4.51706E+03 -6.26511E+03  1.27173E+04 -1.85249E+04 -1.70757E+03 -7.93215E+03 -3.07509E+04
  2.04990E+04 -3.97885E+04  4.44375E+04 -1.83495E+04  4.13026E+04  1.81121E+04  1.39193E+04  4.09063E+04
 -1.56577E+04  3.07643E+04 -2.26151E+04  8.73145E+02 -7.35902E+03 -2.60553E+04  2.08574E+04 -3.05345E+04
  3.75344E+04 -7.35120E+03  3.08646E+04  2.26407E+04  1.47369E+04  4.17174E+04 -7.78619E+03  4.44585E+04
 -2.73643E+04  2.90838E+04 -3.63867E+04  8.22680E+03 -3.78206E+04 -1.48781E+04 -2.06825E+04 -3.36764E+04
  7.15943E+03 -3.37701E+04  2.89162E+04 -1.24324E+04  2.61750E+04  1.06724E+04  2.76315E+03  1.76478E+04
 -1.33348E+04  7.00592E+03 -9.76321E+03 -8.02407E+03  6.16626E+03 -9.44617E+03  1.68297E+04  6.83175E+03
  1.21039E+04  2.18522E+04 -7.00692E+03  2.28654E+04 -2.13383E+04  8.73210E+03 -2.44581E+04 -6.97789E+03
 -1.62188E+04 -1.65038E+04 -5.09124E+03 -1.57230E+04  3.70885E+03 -1.40737E+04  1.16675E+04 -1.35443E+04
  2.02677E+04 -1.19673E+04  2.78990E+04  9.62506E+02  2.04985E+04  1.52592E+04  4.03191E+03  3.17436E+04
 -1.53619E+04  2.69780E+04 -2.53005E+04  9.22359E+03 -1.98184E+04 -9.78682E+03 -3.91266E+03 -1.44478E+04
  2.67254E+03 -4.56029E+03 -2.21831E+03  4.89383E+03 -1.24189E+04  4.87054E+03 -1.22415E+04 -4.47988E+03
 -8.31866E+03 -1.41211E+04  4.49743E+03 -1.92177E+04  1.17557E+04 -1.36076E+04  1.37745E+04 -1.55348E+03
  8.73886E+03  1.06254E+04 -6.65045E+02  1.51126E+04 -9.88745E+03  8.25504E+03 -1.41097E+04 -3.20797E+03
 -1.14265E+04 -1.34353E+04 -1.73792E+03 -1.83072E+04  7.69907E+03 -1.46486E+04  1.57919E+04 -7.08163E+03
  1.37302E+04  9.19017E+02  9.88503E+03  3.06210E+03  4.73950E+03  2.22850E+02  7.69878E+03 -9.51867E+02
  1.34900E+04  3.06492E+03  1.40457E+04  1.24157E+04  8.57623E+03  2.37472E+04 -3.30007E+03  2.52457E+04
 -1.41820E+04  1.90334E+04 -2.28725E+04  8.99518E+03 -2.28939E+04 -1.33902E+03 -1.99085E+04 -1.33051E+04
 -9.77267E+03 -1.93006E+04  6.22608E+03 -1.81456E+04  1.52013E+04 -1.00925E+04  1.47471E+04  3.19446E+03
  6.04873E+03  1.06589E+04 -6.93702E+03  9.30706E+03 -1.28624E+04  2.74766E+03 -9.84754E+03 -7.35978E+03
  3.15801E+02 -1.17667E+04  5.74697E+03 -8.58283E+03  6.92230E+03 -1.64093E+03  1.05048E+03  4.72580E+03
 -5.36479E+03  8.84754E+02 -3.12924E+03 -3.96862E+03  3.21215E+02 -9.84998E+03  7.46547E+03 -9.22329E+03
  1.11431E+04 -4.43580E+03  1.13631E+04  2.65672E+03  9.22640E+03  8.45454E+03  4.55928E+03  1.26076E+04
 -6.80127E+02  1.46276E+04 -8.59610E+03  8.98489E+03 -1.01530E+04  2.68494E+03 -8.16831E+03 -1.55555E+03
 -3.89995E+03 -2.50812E+03 -6.92067E+02  1.97565E+03 -1.72172E+03  1.83388E+03 -3.17949E+03  3.60100E+03
 -7.16035E+03 -4.39008E+02 -8.62849E+03 -6.64381E+03 -3.23257E+03 -1.07873E+04  3.28085E+03 -7.56448E+03
  7.02395E+03 -3.54259E+03  4.84865E+03  1.89721E+03  1.20035E+03  2.35163E+03 -3.50689E+03 -1.92985E+01
 -2.80855E+03 -4.26687E+03 -1.05455E+03 -6.78009E+03  3.60728E+03 -6.92315E+03  8.65892E+03 -3.09227E+03
  1.05911E+04  6.25258E+02  8.24333E+03  5.72853E+03  2.08155E+03  8.25253E+03 -4.88090E+03  8.01343E+03
 -6.21513E+03  2.77938E+03 -3.47592E+03 -7.93040E+02  1.11037E+03 -1.55835E+03  4.06066E+03 -1.04219E+03
  3.89664E+03  3.09718E+03  8.76259E+02  5.61722E+03 -4.36653E+03  6.19272E+03 -7.09122E+03  1.36185E+03
 -4.34781E+03 -3.29326E+03  4.12826E+02 -5.97177E+03  3.56825E+03 -2.75201E+03  2.80288E+03 -6.73271E+01
  3.71746E+02  3.14635E+03 -4.06707E+03  3.33063E+03 -3.94058E+03  1.94369E+03 -3.68539E+03 -5.71351E+02
 -2.31633E+03 -5.26403E+03  9.59403E+02 -6.32606E+03  5.33756E+03 -4.23927E+03  5.79831E+03  7.39944E+02
  4.07918E+03  4.74836E+03  1.59331E+02  6.70715E+03 -4.28839E+03  3.97777E+03 -4.44701E+03 -6.92637E+02
 -5.76643E+03 -4.35355E+03 -1.41907E+03 -4.13232E+03  1.58966E+03 -4.73183E+03  2.31973E+03 -2.85716E+03
  2.71681E+03  5.30437E+02 -2.54031E+02  1.02761E+03  7.11812E+02 -5.38295E+01  3.56978E+02 -1.35297E+03
  3.10809E+03 -7.91578E+02  4.46731E+03  9.33335E+02  4.63589E+03  2.92522E+03  4.83930E+03  6.51505E+03
 -8.12916E+02  6.88200E+03 -6.33896E+03  5.26058E+03 -8.77351E+03  1.08759E+03 -7.05280E+03 -2.21961E+03
 -3.74180E+03 -5.43193E+03  1.12536E+02 -4.43647E+03  1.94273E+03 -1.82633E+03  1.75281E+03 -1.69321E+03
  1.53375E+03 -1.14596E+03  1.88181E+03 -2.53717E+03  2.88032E+03 -1.26583E+03  2.97143E+03  4.68411E+02
  4.09053E+03  9.83807E+02  5.29374E+02  2.66509E+03 -1.70746E+03  2.29783E+03 -3.36198E+03  2.47510E+03
 -3.59567E+03 -1.07911E+03 -9.21095E+02 -2.77694E+03  9.47502E+02 -3.81637E+03  2.89352E+03 -4.04005E+03
  4.52293E+03 -2.75622E+03  5.52664E+03 -2.29033E+02  4.09497E+03  3.03139E+03  1.21353E+03  4.75290E+03
 -1.31573E+03  5.08776E+03 -2.15152E+03  1.09917E+03 -1.53203E+03 -1.02032E+03  7.78451E+01 -9.67629E+02
 -4.79415E+02  2.31484E+02 -1.52096E+03  2.34185E+03 -2.28554E+03  8.77951E+02 -3.37701E+03 -5.55468E+02
 -1.15028E+03 -3.47107E+03  1.15293E+03 -4.18602E+03  2.53976E+03 -3.75495E+03  3.24282E+03 -9.94865E+02
  3.01492E+03  1.93262E+03  1.38368E+03  2.80568E+03  9.19201E+00  3.47545E+03 -2.48609E+03  2.06721E+03
 -2.69746E+03  6.47161E+02 -2.67929E+03 -1.50850E+03 -3.21267E+02 -2.20012E+03  1.22810E+03 -2.29106E+03
  1.89800E+03 -1.26158E+03  1.39172E+03  4.18063E+01  8.55881E+02  1.07257E+03  1.05039E+03 -3.39210E+02
  1.28257E+03 -4.55212E+01  6.45236E+02  6.73850E+02  1.03081E+03  2.36959E+03  9.63400E+02  1.47633E+03
 -6.05265E+02  2.33106E+03 -2.12338E+03  3.41286E+03 -1.61305E+03  1.47811E+03 -3.80424E+03  2.24818E+02
 -1.24723E+03 -3.20956E+03  5.19261E+02 -3.79179E+03  1.65770E+03 -2.03168E+03  2.58414E+03 -3.26558E+02
  1.76565E+03  1.31163E+03  3.67040E+02  2.11940E+03 -1.28913E+02  1.09788E+03 -6.55741E+02 -2.64426E+02
 -7.09064E+02 -8.30689E+02  8.73112E+02 -1.31642E+03  6.61930E+02 -9.59488E+02  1.27520E+03  1.77056E+02
  4.36742E+02 -3.53265E+02  9.35381E+02 -5.79173E+02 -5.67670E+02  1.29759E+02  1.55673E+03 -3.17653E+02
 -5.04546E+02 -5.26986E+01  1.67294E+03  4.89211E+02  1.56597E+02  1.30953E+03  4.20592E+01  2.17422E+03
 -1.27966E+03  3.52100E+02 -1.34203E+03  5.58233E+02 -1.57883E+03 -6.62261E+02 -6.65961E+02 -5.04510E+02
  7.17391E+01 -5.60428E+02  6.54755E+02 -7.65805E+02  4.37942E+02  1.23824E+03 -5.81355E+02  6.57344E+02
 -1.52036E+03  4.85886E+02 -3.26271E+02 -8.33271E+02 -8.72103E+02 -1.57415E+03  1.41311E+02 -5.99447E+02
 -1.33053E+02 -3.11707E+01  4.24385E+02  2.36446E+02  9.05777E+02 -7.16989E+01  5.12413E+02  1.03594E+03
  3.91500E+02  2.43462E+02 -5.87606E+02  7.58910E+01  6.17917E+02 -3.75057E+02  1.70756E+03 -7.23670E+02
  1.16810E+03  6.74470E+02  2.29801E+03  1.00787E+02  1.13773E+03  9.95350E+02 -1.46180E+02  1.57684E+03
 -4.70696E+02  2.76763E+01 -9.09125E+02  2.44663E+02 -8.36280E+02 -8.02515E+02  4.56139E+02 -5.29378E+02
  8.24640E+02 -4.54798E+02  3.41324E+02  7.29787E+02  1.06406E+02  1.13993E+03  5.11553E+02  4.74661E+02
 -5.95974E+01  1.02082E+03 -7.97909E+02  9.76705E+01 -3.58163E+01  1.69280E+02 -3.70594E+02  5.77873E+02
 -7.00587E+00  8.21486E+02 -1.72165E+03  1.38075E+02 -1.25290E+03  4.46808E+02 -1.69905E+03 -5.23574E+02
 -7.22190E+02 -1.81785E+03  6.77052E+02 -2.08447E+03  5.72306E+02 -2.05300E+03  2.50219E+03 -6.91698E+02
  1.62589E+03  1.89263E+02  1.10790E+03  1.03226E+03 -4.65316E+02  5.80343E+02 -2.53586E+02  1.01783E+03
 -1.22215E+03  6.39091E+02 -1.59805E+02  1.52309E+02 -4.40591E+02  5.94247E+02 -4.54707E+02  2.33163E+02
 -1.16061E+03 -3.61415E+01 -1.60090E+02 -4.86109E+01  3.49158E+02 -6.61886E+02 -4.15014E+02 -1.01587E+03
  1.12587E+03 -8.67165E+02  1.54163E+02  2.38565E+01  6.40452E+02  7.76093E+02 -6.18579E+02  1.39895E+03
 -1.31251E+02  1.97719E+03 -1.09362E+03  8.87498E+02 -1.37916E+03 -1.96498E+01 -1.01701E+03 -1.02439E+03
 -6.95144E+02 -2.56017E+02  7.17172E+01 -5.51642E+02  2.64717E+02 -1.63154E+02  5.54606E+02  4.11049E+02
  9.61069E+01 -4.22366E+02 -2.20225E+02  8.56764E+01 -1.39608E+01 -2.77498E+02 -3.15703E+02  9.04577E+01
  1.17789E+02  2.70540E+02  3.30619E+02  8.20799E+02  2.91993E+01  3.11028E+02  3.04487E+02  8.04750E+01
 -5.68287E+02  6.60792E+02 -8.88395E+01 -1.51157E+02 -2.51539E+02  2.19946E+02  1.27783E+02 -5.80388E+02
  1.09316E+02 -5.85369E+02 -2.19753E+02  2.54814E+02  8.52946E+01 -7.33437E+02  2.72737E+02  6.57121E+02
  4.72198E+02  4.89916E+02 -2.47813E+02 -3.40533E+01 -2.98811E+02  7.95041E+02 -4.41079E+02  4.28840E+02
  2.43592E+01 -1.73634E+02 -7.20444E+02  2.63263E+01 -5.85190E+02  4.62258E+02 -5.39202E+02 -3.54326E+02
 -6.08094E+02  7.20020E+02  9.42991E+01 -6.39478E+02  5.82971E+02 -1.33220E+03  7.27652E+02  8.16476E+00
  7.66296E+02 -7.69387E+01 -3.61376E+02  2.84921E+02 -2.15938E+01  5.44793E+02 -2.72596E+02  8.69887E+02
