 $NMID ID='MM_0lb_SNR400_13hz_g60_36.RAW', FMTDAT='(8E13.5)'
 TRAMP=1., VOLUME=1. $END
  3.09874E+05  4.30677E+02  3.37496E+05  2.51469E+05  8.48664E+04  3.38762E+05 -1.32902E+05  2.51132E+05
 -1.90198E+05  8.35658E+04 -1.11659E+05 -3.18222E+04  4.25384E+02 -5.04844E+04  5.37985E+04 -1.22998E+03
  3.52109E+04  5.27287E+04 -1.71056E+04  7.56217E+04 -6.10295E+04  6.42162E+04 -8.49542E+04  3.17791E+04
 -8.23075E+04 -1.10664E+04 -5.82223E+04 -5.16982E+04 -1.51827E+04 -7.05388E+04  2.79184E+04 -4.69009E+04
  4.05439E+04  3.86162E+03  1.63841E+04  4.85076E+04 -3.46652E+04  4.79506E+04 -6.74586E+04  1.82774E+02
 -5.47463E+04 -5.79917E+04 -7.25420E+03 -7.78379E+04  3.49208E+04 -5.59765E+04  4.88209E+04 -1.80175E+04
  4.40904E+04  1.17796E+04  3.25251E+04  2.65348E+04  1.58852E+04  3.01972E+04 -5.82735E+03  2.82528E+04
 -2.22711E+04  1.19071E+04 -1.80368E+04 -4.99338E+03  6.77157E+03 -8.06617E+03  2.30242E+04  1.24628E+04
  7.07164E+03  3.59565E+04 -3.31597E+04  3.61600E+04 -6.36087E+04  1.23820E+03 -5.75006E+04 -4.35171E+04
 -1.28572E+04 -6.46174E+04  4.06098E+04 -4.59148E+04  6.02743E+04 -2.18499E+03  3.58881E+04  3.37355E+04
 -6.13217E+03  3.75965E+04 -3.10539E+04  1.76352E+04 -3.18606E+04 -4.08332E+03 -1.80764E+04 -1.14436E+04
 -9.18642E+03 -1.44307E+04 -1.56789E+02 -1.84451E+04  7.54168E+03 -2.29981E+04  1.50937E+04 -1.29910E+04
  1.09974E+04  5.38172E+03 -9.29487E+03  1.28604E+04 -2.22575E+04 -5.16320E+03 -8.25449E+03 -3.56922E+04
  2.40930E+04 -4.56540E+04  4.95890E+04 -2.03940E+04  4.73669E+04  2.06442E+04  1.64580E+04  4.56701E+04
 -1.63747E+04  3.51470E+04 -2.68934E+04  2.39364E+03 -1.06865E+04 -2.90271E+04  2.13007E+04 -3.48522E+04
  4.29786E+04 -9.54023E+03  3.78927E+04  2.42985E+04  1.97621E+04  4.94291E+04 -8.84640E+03  5.30995E+04
 -3.29814E+04  3.64041E+04 -4.46799E+04  1.02194E+04 -4.54665E+04 -1.72634E+04 -2.46344E+04 -4.06717E+04
  7.44566E+03 -3.97679E+04  3.31234E+04 -1.59479E+04  3.06378E+04  1.09090E+04  4.50583E+03  1.97410E+04
 -1.36876E+04  8.64540E+03 -1.06431E+04 -7.98670E+03  5.63277E+03 -1.08677E+04  1.78976E+04  5.54561E+03
  1.43815E+04  2.24252E+04 -5.42073E+03  2.53775E+04 -2.32662E+04  1.32183E+04 -2.99065E+04 -4.26777E+03
 -2.29032E+04 -1.72607E+04 -9.39499E+03 -2.25698E+04  3.78263E+03 -2.23785E+04  1.72522E+04 -2.06341E+04
  2.87169E+04 -1.33960E+04  3.47967E+04  3.74833E+03  2.59283E+04  2.18365E+04  3.91043E+03  3.89355E+04
 -1.87667E+04  3.20727E+04 -2.88428E+04  1.07624E+04 -2.19334E+04 -1.03268E+04 -5.45937E+03 -1.32907E+04
  1.42000E+03 -1.42201E+03 -6.30769E+03  7.58567E+03 -1.85739E+04  5.20669E+03 -1.76667E+04 -7.65524E+03
 -1.03585E+04 -2.07742E+04  5.09551E+03 -2.52741E+04  1.68932E+04 -1.82115E+04  2.04096E+04 -1.88096E+03
  1.29939E+04  1.45909E+04 -1.48531E+03  2.09594E+04 -1.40739E+04  1.19557E+04 -2.10029E+04 -3.95093E+03
 -1.49449E+04 -1.85680E+04 -1.84885E+03 -2.53454E+04  1.10262E+04 -2.12536E+04  2.05146E+04 -1.08956E+04
  1.92813E+04  8.30321E+02  1.41121E+04  5.01390E+03  7.83261E+03  9.48717E+02  1.04606E+04 -1.53906E+03
  1.86231E+04  2.73697E+03  2.23078E+04  1.65183E+04  1.47866E+04  3.33927E+04 -2.64048E+03  3.82392E+04
 -2.23412E+04  3.09081E+04 -3.61362E+04  1.65884E+04 -3.77400E+04 -2.86783E+03 -3.14020E+04 -2.20451E+04
 -1.36308E+04 -3.14634E+04  1.07359E+04 -2.79252E+04  2.42054E+04 -1.42258E+04  2.16162E+04  6.34931E+03
  7.49272E+03  1.62802E+04 -1.04113E+04  1.42332E+04 -1.75953E+04  2.36314E+03 -1.36512E+04 -1.09457E+04
  9.13337E+00 -1.63770E+04  9.10021E+03 -1.34243E+04  1.20009E+04 -2.00988E+03  2.25413E+03  7.41058E+03
 -7.94813E+03  3.46971E+03 -7.37326E+03 -5.66463E+03 -9.25622E+02 -1.56455E+04  9.93870E+03 -1.67654E+04
  1.89513E+04 -8.94749E+03  2.13625E+04  3.21984E+03  1.82213E+04  1.54105E+04  8.86018E+03  2.38241E+04
 -4.08323E+03  2.58629E+04 -1.66017E+04  1.57470E+04 -1.87389E+04  3.39339E+03 -1.24866E+04 -5.06485E+03
 -5.58515E+03 -6.34483E+03 -1.58452E+03  1.12012E+03 -2.37637E+03  3.25932E+03 -6.04032E+03  4.66245E+03
 -1.22883E+04 -9.47414E+02 -1.32318E+04 -1.03034E+04 -5.31125E+03 -1.71456E+04  4.92662E+03 -1.28493E+04
  1.06841E+04 -4.97648E+03  7.38887E+03  3.24169E+03  1.51598E+02  5.21213E+03 -5.97815E+03  3.45037E+02
 -6.15494E+03 -7.84355E+03 -5.52249E+02 -1.26136E+04  7.24081E+03 -1.33794E+04  1.61842E+04 -6.98599E+03
  1.96389E+04  1.73312E+03  1.45513E+04  1.03615E+04  3.21132E+03  1.52966E+04 -8.03424E+03  1.24215E+04
 -1.04103E+04  4.08849E+03 -5.67304E+03 -2.49573E+03  1.64068E+03 -3.37720E+03  6.54505E+03 -7.31405E+02
  6.07908E+03  5.07169E+03  1.16908E+03  1.04192E+04 -6.98575E+03  9.70846E+03 -1.22511E+04  3.02566E+03
 -7.80952E+03 -6.34899E+03  3.65769E+02 -1.08794E+04  7.06657E+03 -5.85616E+03  7.46374E+03  1.71408E+03
  9.25625E+02  7.77986E+03 -6.20083E+03  9.43039E+03 -9.64388E+03  4.48044E+03 -1.04720E+04 -3.59253E+03
 -6.09047E+03 -1.24382E+04  3.20940E+03 -1.35938E+04  1.15238E+04 -8.72422E+03  1.25225E+04  1.78720E+03
  7.41760E+03  9.86085E+03 -8.56009E+02  1.17332E+04 -9.02027E+03  7.24031E+03 -1.00090E+04 -1.31098E+03
 -7.98306E+03 -8.61486E+03 -1.70527E+03 -8.49286E+03  5.56148E+03 -7.68621E+03  5.95731E+03 -3.32384E+03
  3.92903E+03  1.70445E+03 -4.86551E+02  2.18870E+03 -5.28145E+02 -2.12174E+03  1.81559E+03 -4.78295E+03
  8.02705E+03 -2.70977E+03  1.12065E+04  1.60630E+03  1.14087E+04  7.48810E+03  8.30715E+03  1.47698E+04
 -2.60579E+03  1.81182E+04 -1.43276E+04  1.19076E+04 -1.86308E+04  2.89225E+03 -1.56168E+04 -6.55419E+03
 -7.59584E+03 -1.21880E+04  2.30194E+01 -1.04707E+04  3.30180E+03 -5.98967E+03  3.81518E+03 -4.04383E+03
  2.60817E+03 -1.55091E+03  3.03696E+03 -2.92843E+03  5.09198E+03 -2.09351E+03  6.03252E+03 -4.20535E+02
  8.17177E+03  2.21788E+03  4.02636E+03  7.08942E+03 -1.63611E+03  7.66590E+03 -8.75661E+03  6.56872E+03
 -9.98850E+03 -1.49202E+03 -6.08273E+03 -7.30064E+03 -5.00383E+02 -1.09841E+04  6.07803E+03 -1.07197E+04
  1.11298E+04 -5.91228E+03  1.36570E+04  1.19770E+03  9.52994E+03  9.25963E+03  2.16971E+03  1.18430E+04
 -5.72920E+03  1.00900E+04 -7.59762E+03  3.62747E+03 -4.44702E+03 -1.37488E+03 -1.24870E+03 -1.81482E+03
 -1.21815E+03 -2.40939E+02 -1.22437E+03  3.03848E+03 -4.67331E+03  2.23419E+03 -7.43593E+03 -4.88955E+02
 -4.80523E+03 -6.82058E+03  1.90622E+02 -1.00878E+04  6.93003E+03 -9.38086E+03  9.53883E+03 -2.82265E+03
  9.46072E+03  5.08875E+03  4.35164E+03  8.34709E+03 -1.45679E+03  9.21726E+03 -6.46998E+03  6.22650E+03
 -9.22513E+03  4.36202E+02 -7.30363E+03 -5.80975E+03 -3.92943E+01 -7.83025E+03  4.43418E+03 -5.20050E+03
  6.22450E+03 -1.89134E+03  4.16888E+03  1.52256E+03  1.27465E+03  3.14158E+03  1.25116E+03  1.71837E+03
  2.40948E+03  1.14278E+03  2.70298E+03  1.80620E+03  2.73391E+03  3.55802E+03  2.81737E+03  4.70977E+03
 -2.74874E+03  7.38194E+03 -6.34231E+03  8.05739E+03 -8.75117E+03  1.62212E+03 -1.05634E+04 -3.27801E+03
 -4.78485E+03 -9.10479E+03  1.30407E+03 -1.10386E+04  5.33235E+03 -7.15304E+03  7.07271E+03 -2.06975E+03
  6.36856E+03  3.40838E+03  1.05469E+03  4.99756E+03 -2.86395E+03  2.71946E+03 -4.03900E+03 -7.77109E+02
 -1.65209E+03 -4.23079E+03  2.84569E+03 -4.31160E+03  3.57035E+03 -1.98185E+03  3.80803E+03  1.04141E+03
  1.52263E+03  1.33786E+03  1.10258E+03  1.37633E+03 -1.08199E+03  1.47544E+03  1.38022E+03 -4.22559E+02
  5.37000E+02 -8.14943E+00  3.72328E+03  1.57223E+03  1.65605E+03  5.13884E+03 -6.80567E+02  5.87783E+03
 -4.33843E+03  3.44191E+03 -5.40029E+03  8.37710E+01 -5.82369E+03 -1.82507E+03 -1.61661E+03 -3.15787E+03
  1.06396E+02 -3.15429E+03  2.00284E+03 -1.76663E+03  2.17134E+03  1.95854E+03 -1.32432E+03  2.94090E+03
 -3.56153E+03  1.53855E+03 -3.67508E+03 -2.80232E+03 -2.26880E+03 -4.77501E+03  1.50582E+03 -5.19059E+03
  3.21281E+03 -2.48379E+03  2.98203E+03 -7.53868E+02  3.29510E+03  1.02410E+03  6.12162E+02  3.02970E+03
 -1.44302E+03  7.61681E+02 -2.19794E+03 -1.37260E+03  1.14434E+03 -3.67437E+03  4.15389E+03 -3.35907E+03
  5.05218E+03  4.13167E+01  4.95531E+03  3.08545E+03  2.03079E+03  5.67222E+03 -1.85406E+03  5.67860E+03
 -5.09390E+03  2.13203E+03 -4.61015E+03 -7.15343E+02 -2.56572E+03 -3.62617E+03  1.11730E+03 -2.89906E+03
  3.77948E+03 -1.65697E+03  2.38213E+03  1.30698E+03  8.32374E+02  3.15551E+03  2.37776E+01  1.54738E+03
 -1.81864E+03  2.06254E+03 -8.14234E+02  1.86028E+02 -5.39278E+02 -9.67750E+00 -1.45096E+03  1.98079E+03
 -1.32916E+03  1.49286E+03 -3.94696E+03  2.27591E+03 -4.62065E+03 -2.83236E+02 -6.32778E+03 -3.68056E+03
 -3.23206E+03 -6.94563E+03  1.02975E+03 -8.44819E+03  4.31998E+03 -6.89601E+03  7.68901E+03 -2.31365E+03
  6.48245E+03  1.63259E+03  4.15556E+03  4.42374E+03 -9.65568E+01  5.35978E+03 -1.79542E+03  3.98616E+03
 -3.04707E+03  1.54635E+03 -1.32319E+03  1.38647E+00 -8.37842E+02  1.89111E+02 -4.98894E+02 -4.52413E+02
 -1.60176E+03  1.08061E+02 -1.46756E+03  3.40033E+01 -1.19836E+02 -1.45932E+03 -4.97801E+02 -2.17192E+03
  2.85822E+03 -1.88741E+03  2.59931E+03  2.97644E+02  3.42793E+03  3.06160E+03  8.45021E+02  5.25270E+03
 -1.91082E+03  6.14795E+03 -4.87111E+03  3.19230E+03 -6.73099E+03 -5.69184E+02 -4.70264E+03 -4.46149E+03
 -2.35600E+03 -5.31849E+03  1.13787E+03 -5.39229E+03  3.49407E+03 -3.41368E+03  3.21280E+03 -5.58982E+02
  1.90656E+03  1.50155E+03  8.06532E+02  1.42834E+03 -8.25200E+02 -7.67908E+02  6.22648E+02 -1.41089E+03
  1.74531E+03 -5.08675E+02  1.69964E+03  5.55512E+02  8.26755E+02  1.81707E+03  5.17143E+02  2.56993E+03
 -2.55761E+03  2.31238E+03 -3.77242E+03  7.62710E+02 -3.50427E+03 -2.68495E+03 -6.80684E+02 -3.85752E+03
  2.33075E+03 -3.51575E+03  3.41927E+03 -1.08781E+03  3.49893E+03  2.86962E+02  2.24867E+03  3.19338E+03
  5.01979E+02  3.30121E+03 -1.67586E+03  2.41055E+03 -2.51528E+03  2.22986E+03 -1.73095E+03  7.68276E+02
  4.71038E+01 -1.57576E+02 -2.32662E+02  7.21405E+02 -2.06306E+03  1.94101E+02 -2.36097E+03 -6.11397E+02
 -2.15397E+03 -5.94066E+02 -1.45234E+03 -3.83525E+03  1.56368E+03 -3.79161E+03  2.84029E+03 -1.70189E+03
  3.05671E+03  3.44784E+01  1.00681E+03  1.85069E+03 -7.43532E+02  2.72891E+03 -1.56910E+03  1.35641E+03
