 $NMID ID='MM_0lb_SNR400_11hz_g55_89.RAW', FMTDAT='(8E13.5)'
 TRAMP=1., VOLUME=1. $END
  3.09627E+05  1.12795E+02  3.37721E+05  2.51074E+05  8.39964E+04  3.38379E+05 -1.32510E+05  2.51611E+05
 -1.90385E+05  8.32824E+04 -1.12209E+05 -3.21934E+04  5.56239E+02 -5.08657E+04  5.39346E+04 -5.65933E+02
  3.55554E+04  5.32724E+04 -1.75994E+04  7.68047E+04 -6.14538E+04  6.39127E+04 -8.55778E+04  3.23768E+04
 -8.23700E+04 -1.10112E+04 -5.75398E+04 -5.25202E+04 -1.46849E+04 -7.07281E+04  2.76477E+04 -4.63215E+04
  4.13077E+04  4.59157E+03  1.70458E+04  4.85179E+04 -3.46304E+04  4.77390E+04 -6.78255E+04  4.63243E+02
 -5.47292E+04 -5.74821E+04 -7.32692E+03 -7.90236E+04  3.43621E+04 -5.69751E+04  4.94546E+04 -1.79332E+04
  4.47398E+04  1.17461E+04  3.22478E+04  2.66433E+04  1.65124E+04  2.98291E+04 -5.29777E+03  2.76445E+04
 -2.24605E+04  1.28038E+04 -1.81094E+04 -5.04383E+03  6.80521E+03 -7.95292E+03  2.24665E+04  1.31038E+04
  7.61591E+03  3.71340E+04 -3.26311E+04  3.68047E+04 -6.51850E+04  2.29533E+03 -5.85858E+04 -4.38318E+04
 -1.30523E+04 -6.49309E+04  4.09799E+04 -4.72403E+04  6.02825E+04 -1.86143E+03  3.65511E+04  3.38987E+04
 -4.71485E+03  3.82329E+04 -3.14685E+04  1.77829E+04 -3.21902E+04 -3.81387E+03 -1.86327E+04 -1.13821E+04
 -8.90678E+03 -1.47936E+04 -5.85909E+02 -1.95247E+04  7.40153E+03 -2.25807E+04  1.60452E+04 -1.28810E+04
  1.11147E+04  5.85299E+03 -1.02284E+04  1.30579E+04 -2.29301E+04 -6.11604E+03 -8.13900E+03 -3.61914E+04
  2.49997E+04 -4.60003E+04  5.07717E+04 -2.05728E+04  4.79291E+04  2.10722E+04  1.72191E+04  4.61004E+04
 -1.69966E+04  3.48802E+04 -2.72882E+04  2.95191E+03 -1.15348E+04 -2.85384E+04  2.16991E+04 -3.66143E+04
  4.37553E+04 -1.01354E+04  3.90611E+04  2.34980E+04  2.06449E+04  4.96757E+04 -8.59880E+03  5.44480E+04
 -3.39302E+04  3.72522E+04 -4.66729E+04  1.10007E+04 -4.58352E+04 -1.83070E+04 -2.53263E+04 -4.11715E+04
  7.32008E+03 -4.14534E+04  3.29775E+04 -1.63309E+04  3.14987E+04  1.14510E+04  4.75372E+03  2.03551E+04
 -1.32458E+04  8.94479E+03 -1.08166E+04 -7.34827E+03  5.58679E+03 -1.14060E+04  1.88361E+04  6.16611E+03
  1.45085E+04  2.28339E+04 -5.67516E+03  2.63465E+04 -2.29589E+04  1.35781E+04 -3.08591E+04 -3.71311E+03
 -2.45285E+04 -1.80032E+04 -9.80561E+03 -2.25090E+04  4.63143E+03 -2.39582E+04  1.81964E+04 -2.21944E+04
  3.11103E+04 -1.38762E+04  3.68853E+04  3.55424E+03  2.64466E+04  2.35386E+04  4.22975E+03  3.99571E+04
 -1.88188E+04  3.35151E+04 -2.94641E+04  1.12509E+04 -2.22849E+04 -1.05575E+04 -5.11664E+03 -1.32984E+04
  1.49315E+03 -1.57925E+03 -6.84379E+03  8.41918E+03 -1.85844E+04  5.63160E+03 -1.97815E+04 -8.37140E+03
 -1.16382E+04 -2.16413E+04  5.76449E+03 -2.68896E+04  1.74930E+04 -1.91936E+04  2.10539E+04 -1.82001E+03
  1.38717E+04  1.54667E+04 -2.01038E+03  2.09406E+04 -1.52944E+04  1.24495E+04 -2.21346E+04 -4.46825E+03
 -1.56020E+04 -2.00651E+04 -2.07058E+03 -2.60064E+04  1.21382E+04 -2.20364E+04  2.12788E+04 -1.14986E+04
  2.10788E+04 -6.29839E+02  1.42497E+04  5.36464E+03  8.90835E+03  6.66360E+02  1.13634E+04 -2.61147E+03
  2.05685E+04  2.54832E+03  2.32534E+04  1.75347E+04  1.58241E+04  3.55593E+04 -2.80554E+03  4.12017E+04
 -2.33578E+04  3.38036E+04 -3.88750E+04  1.71969E+04 -4.16097E+04 -3.21088E+03 -3.42177E+04 -2.37221E+04
 -1.35577E+04 -3.50270E+04  1.23290E+04 -3.01501E+04  2.51434E+04 -1.38982E+04  2.24928E+04  6.81188E+03
  8.26532E+03  1.80466E+04 -1.14377E+04  1.46538E+04 -1.88428E+04  3.55365E+03 -1.40042E+04 -1.20964E+04
 -6.66444E+01 -1.75938E+04  9.59705E+03 -1.34094E+04  1.24247E+04 -2.42578E+03  2.81374E+03  8.16476E+03
 -8.90487E+03  3.02707E+03 -7.92816E+03 -7.03087E+03 -1.68604E+03 -1.65775E+04  1.09594E+04 -1.82331E+04
  2.09291E+04 -9.49520E+03  2.34292E+04  3.10509E+03  2.06734E+04  1.66872E+04  8.70217E+03  2.62083E+04
 -5.09326E+03  2.79860E+04 -1.77867E+04  1.76867E+04 -2.02726E+04  3.94867E+03 -1.43391E+04 -4.65356E+03
 -5.89947E+03 -5.99682E+03 -5.34551E+02  8.92221E+02 -3.09550E+03  3.24283E+03 -6.29939E+03  5.30911E+03
 -1.27835E+04 -9.15935E+02 -1.36039E+04 -1.09443E+04 -6.05180E+03 -1.73122E+04  6.13409E+03 -1.38280E+04
  1.20074E+04 -5.58409E+03  8.40807E+03  3.53547E+03 -7.44131E+01  5.84260E+03 -6.92901E+03 -9.63176E+02
 -6.62050E+03 -9.12251E+03 -1.64413E+03 -1.41267E+04  7.51473E+03 -1.44174E+04  1.78526E+04 -7.98657E+03
  2.11963E+04  2.45205E+03  1.48391E+04  1.32065E+04  3.12900E+03  1.62680E+04 -8.40394E+03  1.34133E+04
 -1.21488E+04  3.83168E+03 -5.43192E+03 -2.67991E+03  1.73164E+03 -3.72436E+03  7.73937E+03 -7.60857E+02
  7.11582E+03  6.28118E+03  1.00645E+03  1.16263E+04 -9.23492E+03  1.04392E+04 -1.27624E+04  1.97259E+03
 -9.84141E+03 -7.58298E+03  3.93872E+02 -1.28613E+04  7.76616E+03 -6.85434E+03  8.08710E+03  2.20418E+03
  1.89460E+03  8.51300E+03 -7.64830E+03  9.92964E+03 -1.19358E+04  4.13823E+03 -1.19762E+04 -4.60174E+03
 -7.07657E+03 -1.40799E+04  3.14247E+03 -1.60321E+04  1.36834E+04 -9.38977E+03  1.49139E+04  2.76438E+03
  8.80799E+03  1.15322E+04 -1.39663E+03  1.41019E+04 -9.68225E+03  8.00240E+03 -1.15804E+04 -1.71167E+03
 -8.75298E+03 -9.28004E+03 -1.67616E+03 -1.05294E+04  5.51175E+03 -8.83828E+03  6.68818E+03 -3.38427E+03
  3.87422E+03  1.90573E+03 -7.12035E+02  2.27573E+03 -6.32642E+02 -2.19761E+03  1.63585E+03 -6.15522E+03
  9.65301E+03 -3.98545E+03  1.38064E+04  1.56989E+03  1.34587E+04  8.91888E+03  8.81551E+03  1.83763E+04
 -4.04521E+03  2.11390E+04 -1.71086E+04  1.49351E+04 -2.23407E+04  3.26554E+03 -1.79209E+04 -7.47478E+03
 -8.60813E+03 -1.47844E+04 -6.12236E+02 -1.26110E+04  4.77766E+03 -6.78244E+03  4.77197E+03 -4.22839E+03
  3.90506E+03 -2.65499E+03  3.43011E+03 -3.70974E+03  5.43896E+03 -3.13003E+03  7.03161E+03 -1.08912E+03
  8.99024E+03  1.72396E+03  4.93457E+03  8.42324E+03 -2.32812E+03  9.42707E+03 -9.46364E+03  6.87552E+03
 -1.27936E+04 -1.20153E+03 -7.91935E+03 -8.77416E+03 -9.76513E+02 -1.33820E+04  7.29220E+03 -1.36364E+04
  1.33687E+04 -7.03848E+03  1.63233E+04  1.85456E+03  1.16845E+04  1.13414E+04  1.87701E+03  1.46481E+04
 -6.59377E+03  1.25274E+04 -8.46367E+03  4.73602E+03 -5.65315E+03 -1.21023E+03 -2.70549E+03 -2.80600E+03
 -6.28919E+02  6.44294E+02 -2.30292E+03  2.96343E+03 -5.43435E+03  1.55192E+03 -8.96583E+03 -1.48373E+03
 -5.18366E+03 -8.40058E+03  3.07010E+02 -1.16521E+04  7.26267E+03 -1.13473E+04  1.19294E+04 -3.43932E+03
  1.18429E+04  6.05979E+03  5.66445E+03  1.14982E+04 -2.64138E+03  1.28283E+04 -8.83147E+03  7.04537E+03
 -1.15937E+04  1.08792E+02 -8.24247E+03 -7.62868E+03 -1.33665E+03 -9.14005E+03  5.35032E+03 -7.32084E+03
  7.60682E+03 -2.20432E+03  5.38207E+03  1.35643E+03  2.17989E+03  4.03268E+03  1.38362E+03  1.88370E+03
  2.52758E+03  5.14587E+02  3.14129E+03  1.35759E+03  3.56961E+03  4.58376E+03  3.23338E+03  6.22084E+03
 -2.67520E+03  9.76772E+03 -8.10186E+03  8.98196E+03 -1.21715E+04  2.51803E+03 -1.35888E+04 -4.91214E+03
 -5.41369E+03 -1.18923E+04  2.48730E+03 -1.38092E+04  7.17986E+03 -8.36879E+03  9.64324E+03 -2.41873E+03
  7.50451E+03  4.69898E+03  1.35484E+03  6.77010E+03 -3.59144E+03  4.66274E+03 -5.20045E+03 -1.24763E+03
 -2.10836E+03 -5.93888E+03  3.01670E+03 -5.51554E+03  3.98817E+03 -2.56264E+03  4.54123E+03  1.44078E+03
  2.88930E+03  2.65454E+03  1.51890E+03  1.61046E+03 -9.45336E+02  2.05649E+03  1.46678E+03 -5.28390E+02
  1.22897E+03 -7.25440E+02  5.83612E+03  2.29718E+03  3.14883E+03  6.33985E+03 -1.44639E+03  8.66548E+03
 -5.86714E+03  5.15882E+03 -6.97445E+03  1.52738E+03 -7.00348E+03 -2.28385E+03 -2.53005E+03 -4.79521E+03
  1.29208E+03 -4.55850E+03  2.68866E+03 -2.64485E+03  2.59620E+03  2.43895E+03 -9.64432E+02  4.26189E+03
 -5.04984E+03  2.95176E+03 -5.48423E+03 -1.92388E+03 -2.72662E+03 -6.25844E+03  2.03524E+03 -6.05622E+03
  3.87077E+03 -3.60129E+03  4.71285E+03 -1.89381E+02  3.65868E+03  1.78604E+03  1.18104E+03  2.89455E+03
 -3.14171E+03  1.20646E+03 -3.26634E+03 -2.11365E+03  6.16865E+02 -5.31195E+03  5.45962E+03 -3.82460E+03
  8.01337E+03 -1.57069E+01  6.93938E+03  4.85128E+03  1.72673E+03  8.08134E+03 -3.16764E+03  6.65890E+03
 -6.89642E+03  3.09957E+03 -5.45257E+03 -3.22522E+02 -3.59471E+03 -4.96325E+03  8.23436E+02 -5.06696E+03
  5.29127E+03 -1.80777E+03  4.27390E+03  1.68877E+03  1.82528E+03  4.71195E+03 -2.47323E+02  3.67239E+03
 -2.49035E+03  2.67508E+03 -2.17554E+03  6.19873E+02 -6.37769E+02  1.07397E+03 -1.85464E+03  2.14462E+03
 -2.17354E+03  2.41075E+03 -5.32833E+03  2.99721E+03 -7.45655E+03  3.45999E+02 -8.87232E+03 -4.33701E+03
 -3.56670E+03 -1.01159E+04  1.89066E+03 -1.23678E+04  6.83754E+03 -8.47992E+03  1.08838E+04 -3.28049E+03
  1.02961E+04  2.86270E+03  5.95770E+03  5.85947E+03  2.01364E+02  7.83321E+03 -3.56628E+03  5.81729E+03
 -4.59948E+03  1.47132E+03 -2.25913E+03 -7.44826E+02 -1.52955E+03 -1.05306E+03 -2.91888E+02  2.73955E+02
 -6.16906E+02  6.87295E+02 -1.74633E+03 -8.81694E+02 -9.78450E+02 -1.93903E+03  3.92609E+02 -2.26527E+03
  3.99381E+03 -3.36047E+03  4.47967E+03 -3.57521E+01  6.28132E+03  3.60972E+03  7.14259E+02  6.80004E+03
 -3.95447E+03  9.31907E+03 -7.46321E+03  4.53721E+03 -9.39017E+03 -1.89233E+02 -7.75898E+03 -5.81109E+03
 -2.50345E+03 -7.73299E+03  2.72663E+03 -7.13306E+03  4.66321E+03 -3.47462E+03  4.13072E+03  5.81987E+02
  3.11806E+03  2.34392E+03  8.46483E+01  2.05486E+03 -7.28033E+02 -6.78099E+02  3.66716E+02 -1.90985E+03
  2.91432E+03 -4.95340E+02  2.43929E+03  8.75325E+02  1.24298E+03  3.52243E+03  2.92268E+02  4.37600E+03
 -2.58129E+03  2.92623E+03 -4.56286E+03  3.16159E+02 -4.73081E+03 -3.31514E+03 -1.50698E+02 -6.64838E+03
  3.42207E+03 -5.00076E+03  4.72954E+03 -1.55870E+03  4.62541E+03  1.53285E+03  3.76869E+03  4.40709E+03
  3.43695E+02  4.71066E+03 -1.69757E+03  3.90300E+03 -3.03718E+03  1.92603E+03 -2.06885E+03  4.95525E+02
 -1.65719E+03 -1.02317E+03 -1.05746E+03  7.98690E+02 -2.40765E+03  5.81627E+02 -3.12249E+03 -8.66606E+02
 -3.24321E+03 -2.41150E+03 -1.49288E+03 -5.03220E+03  2.68577E+03 -5.59055E+03  4.63412E+03 -2.75247E+03
  4.91687E+03  1.24217E+03  2.35111E+03  2.84136E+03 -7.58215E+02  4.61286E+03 -3.63141E+03  3.15101E+03
