 $NMID ID='MM_0lb_SNR400_19hz_g55_35.RAW', FMTDAT='(8E13.5)'
 TRAMP=1., VOLUME=1. $END
  3.09350E+05  4.27927E+02  3.37332E+05  2.50489E+05  8.45571E+04  3.37699E+05 -1.32330E+05  2.49967E+05
 -1.89450E+05  8.18189E+04 -1.11243E+05 -3.24311E+04  4.05337E+02 -4.99751E+04  5.38676E+04  1.07960E+02
  3.54323E+04  5.29627E+04 -1.74225E+04  7.49801E+04 -6.07500E+04  6.32743E+04 -8.35070E+04  3.13813E+04
 -8.03531E+04 -1.14363E+04 -5.67982E+04 -5.04675E+04 -1.47429E+04 -6.84341E+04  2.70264E+04 -4.46635E+04
  3.94017E+04  3.91157E+03  1.59143E+04  4.77232E+04 -3.39145E+04  4.67295E+04 -6.55598E+04 -4.86945E+01
 -5.20519E+04 -5.56625E+04 -6.06537E+03 -7.53158E+04  3.32181E+04 -5.31948E+04  4.73138E+04 -1.65910E+04
  4.15859E+04  1.07973E+04  3.11452E+04  2.44814E+04  1.55391E+04  2.84488E+04 -5.07389E+03  2.65271E+04
 -2.19774E+04  1.25314E+04 -1.93623E+04 -4.79928E+03  4.50006E+03 -8.15280E+03  2.15937E+04  1.16046E+04
  7.19640E+03  3.41616E+04 -3.16231E+04  3.45193E+04 -6.13165E+04  1.91272E+03 -5.56583E+04 -4.18196E+04
 -1.28743E+04 -6.08379E+04  3.81228E+04 -4.35930E+04  5.62770E+04 -2.29484E+03  3.25204E+04  3.09009E+04
 -6.39221E+03  3.39170E+04 -2.81967E+04  1.39665E+04 -2.90665E+04 -5.41150E+03 -1.55092E+04 -9.88045E+03
 -7.18897E+03 -1.17762E+04 -8.39337E+02 -1.72160E+04  6.93623E+03 -2.22060E+04  1.49147E+04 -1.37011E+04
  1.20759E+04  4.43251E+03 -6.45386E+03  1.29252E+04 -1.97603E+04 -3.12731E+03 -7.83447E+03 -3.10360E+04
  2.15029E+04 -4.15356E+04  4.58418E+04 -1.84816E+04  4.27903E+04  1.88370E+04  1.42742E+04  4.24279E+04
 -1.56159E+04  3.16264E+04 -2.45287E+04  1.16835E+03 -9.07273E+03 -2.65285E+04  2.06792E+04 -3.17132E+04
  3.89394E+04 -7.79473E+03  3.22069E+04  2.30443E+04  1.59364E+04  4.36089E+04 -8.02671E+03  4.61318E+04
 -2.93005E+04  3.02685E+04 -3.82924E+04  8.48325E+03 -3.90735E+04 -1.48165E+04 -2.19452E+04 -3.51556E+04
  6.78504E+03 -3.42610E+04  2.94560E+04 -1.33992E+04  2.74028E+04  1.07207E+04  2.73306E+03  1.78955E+04
 -1.34592E+04  7.60496E+03 -9.84492E+03 -7.66396E+03  6.04647E+03 -1.01972E+04  1.74127E+04  6.28278E+03
  1.34509E+04  2.16441E+04 -6.34724E+03  2.40661E+04 -2.18692E+04  9.64607E+03 -2.54732E+04 -5.87028E+03
 -1.72469E+04 -1.71443E+04 -5.86338E+03 -1.73695E+04  4.10311E+03 -1.58738E+04  1.29112E+04 -1.46983E+04
  2.20695E+04 -1.21008E+04  2.86075E+04  1.52259E+03  2.19555E+04  1.71129E+04  3.85787E+03  3.26596E+04
 -1.63945E+04  2.78120E+04 -2.66405E+04  8.97132E+03 -1.93627E+04 -1.01733E+04 -3.93165E+03 -1.43181E+04
  2.57593E+03 -4.09501E+03 -3.03936E+03  5.64062E+03 -1.33476E+04  5.38197E+03 -1.38953E+04 -4.96114E+03
 -9.06659E+03 -1.60844E+04  4.25759E+03 -1.98760E+04  1.29662E+04 -1.45980E+04  1.54053E+04 -1.26402E+03
  9.25910E+03  1.08761E+04 -2.87444E+02  1.59346E+04 -1.09617E+04  8.96693E+03 -1.60179E+04 -3.36870E+03
 -1.16880E+04 -1.43558E+04 -1.48426E+03 -1.92536E+04  8.72633E+03 -1.60254E+04  1.60738E+04 -7.17771E+03
  1.50834E+04  3.46584E+02  1.07985E+04  4.35637E+03  5.65491E+03  2.38032E+02  7.99262E+03 -1.34343E+03
  1.45770E+04  2.58687E+03  1.51808E+04  1.30713E+04  9.41067E+03  2.49851E+04 -3.26082E+03  2.67026E+04
 -1.58944E+04  2.12817E+04 -2.49325E+04  1.01808E+04 -2.55578E+04 -1.78725E+03 -2.16149E+04 -1.45603E+04
 -1.06289E+04 -2.12383E+04  6.76693E+03 -1.96713E+04  1.71761E+04 -1.07730E+04  1.62544E+04  3.43880E+03
  6.87389E+03  1.16343E+04 -7.34596E+03  1.07767E+04 -1.31222E+04  2.60044E+03 -1.05715E+04 -7.41838E+03
 -3.72052E+01 -1.25855E+04  6.31523E+03 -9.75158E+03  8.25198E+03 -1.12934E+03  1.47641E+03  5.02226E+03
 -5.84073E+03  1.24533E+03 -3.51295E+03 -4.43781E+03  2.99090E+02 -1.08061E+04  7.97593E+03 -1.03702E+04
  1.28359E+04 -4.92458E+03  1.20331E+04  2.71658E+03  1.10220E+04  9.48599E+03  4.99409E+03  1.39882E+04
 -2.24798E+03  1.62437E+04 -9.85896E+03  1.02574E+04 -1.18599E+04  2.79119E+03 -8.26456E+03 -1.87978E+03
 -4.74155E+03 -3.42369E+03 -1.40790E+03  1.19788E+03 -2.80965E+03  2.44639E+03 -3.88516E+03  3.70500E+03
 -7.98523E+03 -3.36030E+02 -8.93108E+03 -7.05710E+03 -3.95769E+03 -1.21501E+04  3.73889E+03 -8.55598E+03
  6.80734E+03 -3.30095E+03  5.23527E+03  2.46307E+03  6.55726E+02  3.21457E+03 -3.25651E+03  7.17194E+01
 -3.75795E+03 -5.78404E+03 -3.85308E+02 -7.47615E+03  3.57659E+03 -7.55962E+03  1.01423E+04 -3.55447E+03
  1.17378E+04  4.90770E+02  8.47991E+03  6.49950E+03  1.92070E+03  8.88185E+03 -5.63079E+03  8.16794E+03
 -6.86437E+03  2.62816E+03 -3.42899E+03 -7.68356E+02  1.27619E+03 -1.98374E+03  4.43484E+03 -8.85037E+02
  4.33591E+03  3.17717E+03  1.30741E+03  6.08274E+03 -4.68332E+03  6.95854E+03 -8.09412E+03  1.66590E+03
 -4.96405E+03 -3.36546E+03 -2.91223E+01 -6.79070E+03  4.02241E+03 -3.06153E+03  3.17091E+03  1.14328E+03
  2.68401E+02  2.91856E+03 -4.15264E+03  4.19421E+03 -4.63169E+03  2.71002E+03 -4.97313E+03 -1.21909E+03
 -3.52394E+03 -6.09670E+03  1.54050E+03 -7.49997E+03  5.98304E+03 -4.87630E+03  6.05302E+03  6.68417E+02
  4.73245E+03  5.43265E+03  1.47904E+02  6.97530E+03 -5.20041E+03  3.98019E+03 -5.51279E+03 -7.86601E+02
 -5.59949E+03 -4.95274E+03 -1.07491E+03 -4.88584E+03  2.30342E+03 -4.39902E+03  2.78495E+03 -2.88124E+03
  2.64384E+03  1.14742E+02 -1.97111E+02  1.87013E+03  7.66322E+02 -1.86762E+02 -1.31324E+02 -1.74385E+03
  4.27801E+03 -1.00612E+03  5.20453E+03  9.89887E+02  5.31066E+03  3.03174E+03  5.25520E+03  7.22639E+03
 -1.19261E+03  8.58647E+03 -7.34252E+03  6.77664E+03 -9.89230E+03  1.78399E+03 -7.46266E+03 -2.24632E+03
 -4.11183E+03 -6.22093E+03 -3.65091E+02 -4.95021E+03  1.81962E+03 -2.67803E+03  1.91075E+03 -1.92456E+03
  1.56406E+03 -1.41212E+03  2.48901E+03 -2.58888E+03  3.61398E+03 -1.57056E+03  3.74035E+03 -9.36014E+01
  4.95726E+03  1.10579E+03  9.05382E+02  3.78015E+03 -1.30235E+03  3.13247E+03 -3.80847E+03  2.21406E+03
 -4.90775E+03 -1.07260E+03 -2.00414E+03 -3.04583E+03  5.28018E+02 -5.23574E+03  3.31711E+03 -4.81775E+03
  4.87103E+03 -3.48375E+03  6.88577E+03  2.63424E+02  4.64747E+03  4.64010E+03  1.28266E+03  5.76683E+03
 -2.27954E+03  5.53895E+03 -3.16217E+03  1.90392E+03 -1.98629E+03 -1.19523E+03 -4.81815E+02 -8.07719E+02
 -6.38135E+02 -1.17415E+02 -9.10715E+02  2.45181E+03 -2.53551E+03  1.17423E+03 -4.30740E+03  1.18756E+02
 -1.70079E+03 -4.18261E+03  6.03714E+02 -4.61855E+03  2.51443E+03 -4.45100E+03  3.77673E+03 -8.55865E+02
  3.30736E+03  2.55404E+03  1.53556E+03  2.91850E+03 -5.08959E+02  4.46622E+03 -2.75464E+03  2.93877E+03
 -3.76871E+03  9.37129E+02 -3.43415E+03 -1.73271E+03  4.10393E+01 -3.30840E+03  1.33536E+03 -2.63910E+03
  2.65204E+03 -1.42692E+03  2.06401E+03  3.23405E+02  7.09774E+02  1.59343E+03  7.00637E+02  7.50639E+02
  1.24637E+03  2.71856E+02  1.50977E+03  1.05328E+03  8.61442E+02  1.58805E+03  1.05703E+03  1.05003E+03
 -1.72223E+03  3.41561E+03 -1.60334E+03  3.80634E+03 -3.14558E+03  8.69888E+02 -4.01579E+03 -3.50630E+02
 -1.75960E+03 -3.33267E+03  6.80370E+02 -4.46181E+03  1.67287E+03 -2.18047E+03  3.16933E+03 -8.39390E+02
  2.37251E+03  2.03807E+03  4.73551E+02  1.95650E+03 -6.44460E+02  1.01136E+03 -4.80241E+02  6.01638E+01
 -4.76364E+02 -1.73737E+03  1.23290E+03 -1.52213E+03  1.39640E+03 -1.13957E+03  1.55088E+03  6.04933E+02
  1.19217E+03  2.49047E+02  5.36760E+02 -2.75186E+02 -1.84357E+02  6.12571E+02  2.05690E+03 -3.48305E+02
  2.08511E+02 -3.54409E+02  1.67763E+03  4.59683E+02 -1.75776E+02  2.21451E+03 -3.90251E+02  1.85056E+03
 -7.38402E+02  8.02472E+02 -1.56151E+03  5.79570E+02 -1.98002E+03 -2.50423E+02  8.15156E+01 -3.73111E+02
  2.99445E+02 -1.29306E+03  9.82440E+02 -7.49538E+02  4.84205E+02  1.19133E+03 -5.99717E+02  8.47252E+02
 -1.90021E+03  2.40006E+02 -1.46067E+03 -2.01094E+03 -7.59417E+02 -2.10075E+03  1.38729E+01 -1.33516E+03
  3.06018E+01 -3.89179E+02  7.25824E+02 -3.78820E+02  1.48869E+03 -5.23275E+02  3.07880E+02  1.68681E+03
 -3.64674E+02 -1.64828E+02 -5.97652E+02 -5.35332E+02  1.29963E+02 -1.08925E+03  1.52844E+03 -1.48418E+02
  1.25606E+03  2.47470E+02  2.48915E+03 -1.94894E+02  1.00851E+03  1.65642E+03  6.74024E+01  1.70068E+03
 -8.94159E+02  6.41876E+02 -1.68282E+03 -5.63740E+01 -9.41095E+02 -1.20742E+03  2.35206E+02 -3.79860E+02
  1.71962E+03 -5.89679E+02  9.12158E+02  9.10532E+02 -1.20676E+02  9.91661E+02  7.48665E+02  1.44795E+03
 -3.38698E+02  1.12388E+03 -2.16614E+02  4.17217E+02  2.27879E+02  6.48922E+02 -3.21416E+02  5.44762E+02
 -5.14751E+02  3.33815E+02 -1.81407E+03  6.57403E+02 -1.96670E+03 -1.98350E+02 -2.07187E+03 -7.79952E+02
 -1.18213E+03 -2.47729E+03 -1.72731E+02 -2.36078E+03  1.36771E+03 -2.27665E+03  2.80661E+03 -6.80372E+02
  2.12932E+03 -1.43751E+02  1.08307E+03  1.09355E+03 -3.93235E+00  1.79589E+03 -7.82759E+02  1.48931E+03
 -1.33741E+03  7.22490E+02 -1.28951E+02 -8.58668E+00 -1.11895E+03  4.14664E+02 -6.52482E+02 -1.17765E+02
 -1.43992E+03 -6.06242E+02 -6.12338E+02  4.70834E+02  4.58913E+02 -5.46644E+02 -9.92709E+02 -1.29565E+03
  1.24750E+03 -6.11904E+02 -8.89016E+00  5.53005E+02  9.14020E+02  1.96802E+02 -1.38495E+02  1.14908E+03
 -7.67867E+02  1.49151E+03 -1.26589E+03  8.56040E+02 -1.13964E+03 -2.50191E+02 -8.68877E+02 -9.68510E+02
 -7.99525E+02 -1.37750E+03  1.98922E+02 -1.10925E+03 -8.52632E+01 -1.25872E+01  5.04581E+02  3.29173E+02
  6.97386E+02 -2.25681E+02  2.08082E+01  8.69414E+02 -2.50582E+01 -6.32168E+01 -3.15645E+01 -4.27294E+02
  4.49611E+02 -9.39634E+01 -3.93031E+01  3.95242E+02 -5.79754E+00  9.56626E+01  3.15002E+02  3.93417E+02
 -2.07492E+02  1.60738E+02 -8.56444E+02  3.56774E+02 -7.87711E+02 -4.21795E+02  3.32071E+02 -1.19837E+03
  1.31930E+02 -2.97821E+02  2.41638E+02  2.10811E+02  1.22432E+03 -1.41994E+03  5.11657E+02  3.09037E+02
  3.11170E+02 -1.25582E+02 -2.28299E+02  7.17755E+02 -4.99409E+02  5.45521E+02 -2.19839E+02  6.77227E+01
 -4.39758E+02 -2.31365E+02 -4.69800E+02  3.84593E+02 -4.53376E+02  5.00933E+02 -1.07357E+03  1.61110E+02
 -4.42204E+02  1.00667E+02 -5.20676E+01 -4.34079E+02  6.62917E+02 -1.72003E+03  2.56620E+02 -2.56776E+02
  8.43859E+02 -3.76184E+02 -3.65181E+02 -1.77969E+02 -5.82093E+01  8.76450E+02 -3.56281E+02  1.77769E+02
