 $NMID ID='MM_0lb_SNR400_7hz_g45_60.RAW', FMTDAT='(8E13.5)'
 TRAMP=1., VOLUME=1. $END
  3.10234E+05  3.39706E+02  3.38980E+05  2.51438E+05  8.57779E+04  3.37990E+05 -1.33103E+05  2.52831E+05
 -1.90854E+05  8.43228E+04 -1.12978E+05 -3.19392E+04  2.33068E+02 -5.01957E+04  5.41049E+04  4.84851E+00
  3.60937E+04  5.17199E+04 -1.63356E+04  7.61218E+04 -6.15747E+04  6.45589E+04 -8.63258E+04  3.19535E+04
 -8.25909E+04 -1.11483E+04 -5.81106E+04 -5.22878E+04 -1.50582E+04 -7.21493E+04  2.81461E+04 -4.69130E+04
  4.11979E+04  4.00016E+03  1.66728E+04  4.86268E+04 -3.43297E+04  4.92044E+04 -6.88878E+04 -5.29636E+02
 -5.45919E+04 -5.83179E+04 -7.89749E+03 -7.92367E+04  3.51891E+04 -5.82149E+04  4.96604E+04 -1.77664E+04
  4.48311E+04  1.22782E+04  3.34262E+04  2.66884E+04  1.62735E+04  3.12931E+04 -6.44971E+03  2.81623E+04
 -2.32171E+04  1.26549E+04 -1.83691E+04 -6.33746E+03  7.05818E+03 -8.66544E+03  2.33152E+04  1.44105E+04
  6.87071E+03  3.81140E+04 -3.41572E+04  3.74728E+04 -6.65003E+04  1.52323E+03 -5.98654E+04 -4.45345E+04
 -1.22509E+04 -6.72948E+04  4.17067E+04 -4.72556E+04  6.28396E+04 -2.42119E+03  3.71997E+04  3.51316E+04
 -5.20471E+03  4.10350E+04 -3.15498E+04  1.92912E+04 -3.43425E+04 -4.04334E+03 -2.04034E+04 -1.28731E+04
 -1.01750E+04 -1.59401E+04 -1.07569E+03 -2.06738E+04  8.44470E+03 -2.38305E+04  1.73440E+04 -1.27435E+04
  1.03505E+04  7.42596E+03 -1.12692E+04  1.21433E+04 -2.36277E+04 -8.02641E+03 -9.54590E+03 -3.85065E+04
  2.64618E+04 -4.81163E+04  5.27915E+04 -2.23721E+04  5.01925E+04  2.15210E+04  1.71891E+04  4.73497E+04
 -1.64530E+04  3.70866E+04 -2.83230E+04  2.81645E+03 -1.23690E+04 -2.97894E+04  2.19607E+04 -3.74570E+04
  4.60165E+04 -1.23766E+04  4.12647E+04  2.56437E+04  2.29011E+04  5.22873E+04 -8.40717E+03  5.82271E+04
 -3.58834E+04  3.85585E+04 -4.91207E+04  1.18234E+04 -4.91544E+04 -1.87587E+04 -2.71471E+04 -4.35506E+04
  8.18588E+03 -4.39300E+04  3.53941E+04 -1.84983E+04  3.25705E+04  1.14403E+04  5.48425E+03  2.02871E+04
 -1.47994E+04  1.00218E+04 -1.27525E+04 -7.98163E+03  5.86247E+03 -1.28513E+04  1.90045E+04  5.62858E+03
  1.56946E+04  2.35131E+04 -5.41276E+03  2.76127E+04 -2.35460E+04  1.50645E+04 -3.26821E+04 -2.00094E+03
 -2.77231E+04 -1.84171E+04 -1.29355E+04 -2.63436E+04  4.16927E+03 -2.77157E+04  2.11723E+04 -2.44046E+04
  3.44487E+04 -1.49688E+04  3.98561E+04  5.40255E+03  2.79269E+04  2.64812E+04  4.70826E+03  4.35149E+04
 -2.10919E+04  3.45017E+04 -3.21613E+04  1.18619E+04 -2.34537E+04 -1.04040E+04 -4.59531E+03 -1.21240E+04
  3.66879E+02 -8.86983E+02 -8.78893E+03  7.86949E+03 -2.13733E+04  5.00553E+03 -2.10450E+04 -1.05577E+04
 -1.26432E+04 -2.46694E+04  6.05743E+03 -2.93985E+04  1.89715E+04 -2.08558E+04  2.42594E+04 -1.23692E+03
  1.53392E+04  1.79572E+04 -1.51693E+03  2.55132E+04 -1.86280E+04  1.45742E+04 -2.57121E+04 -4.96200E+03
 -1.80744E+04 -2.24507E+04 -1.74897E+03 -2.97352E+04  1.34220E+04 -2.55253E+04  2.50309E+04 -1.28125E+04
  2.29011E+04 -1.51468E+03  1.72923E+04  4.66206E+03  8.78392E+03  9.05074E+02  1.34064E+04 -2.02623E+03
  2.31121E+04  2.66085E+03  2.86247E+04  1.99385E+04  1.83661E+04  4.00587E+04 -2.47745E+03  4.84817E+04
 -2.74637E+04  4.08936E+04 -4.54858E+04  2.07669E+04 -4.88363E+04 -3.63172E+03 -3.89904E+04 -2.86356E+04
 -1.51564E+04 -4.14151E+04  1.49694E+04 -3.49103E+04  3.08846E+04 -1.69517E+04  2.44114E+04  8.86614E+03
  9.15158E+03  2.05844E+04 -1.24679E+04  1.64418E+04 -2.14342E+04  3.07424E+03 -1.71427E+04 -1.41591E+04
 -7.76650E+02 -2.18193E+04  1.14413E+04 -1.52963E+04  1.46885E+04 -1.81347E+03  4.49790E+03  9.63671E+03
 -8.82089E+03  4.68500E+03 -9.96219E+03 -7.57388E+03 -2.41320E+03 -2.05291E+04  1.18805E+04 -2.31486E+04
  2.56223E+04 -1.22952E+04  2.90452E+04  2.83483E+03  2.52742E+04  2.06573E+04  1.22129E+04  3.32440E+04
 -6.55412E+03  3.53037E+04 -2.25557E+04  2.24120E+04 -2.60232E+04  4.49485E+03 -1.70920E+04 -6.89573E+03
 -6.59616E+03 -8.66288E+03 -8.24419E+02  2.97192E+02 -2.24580E+03  4.06413E+03 -8.25266E+03  5.08184E+03
 -1.57958E+04 -1.09675E+03 -1.54693E+04 -1.21095E+04 -6.10541E+03 -2.11582E+04  6.44942E+03 -1.74115E+04
  1.38117E+04 -7.47674E+03  9.88003E+03  4.89772E+03 -8.98295E+02  7.10997E+03 -8.26570E+03  9.95781E+01
 -8.23756E+03 -1.22711E+04 -1.56676E+03 -1.70432E+04  1.01119E+04 -1.84960E+04  2.21722E+04 -1.02098E+04
  2.62303E+04  2.89956E+03  1.96082E+04  1.65305E+04  3.57648E+03  2.17544E+04 -1.07381E+04  1.78493E+04
 -1.28459E+04  4.56198E+03 -8.03376E+03 -3.81142E+03  2.25390E+03 -5.15223E+03  9.20573E+03 -1.52753E+03
  8.45697E+03  8.40362E+03  1.34352E+03  1.38706E+04 -1.06049E+04  1.35133E+04 -1.81883E+04  3.07188E+03
 -1.16679E+04 -9.29987E+03  3.02704E+02 -1.55515E+04  9.74016E+03 -7.23581E+03  1.12088E+04  3.79707E+03
  2.63545E+03  1.16556E+04 -9.38782E+03  1.30160E+04 -1.55854E+04  5.72424E+03 -1.54988E+04 -5.99847E+03
 -9.75487E+03 -1.82382E+04  3.96077E+03 -2.10793E+04  1.76639E+04 -1.20288E+04  1.90117E+04  3.03829E+03
  1.11710E+04  1.50104E+04 -1.95461E+03  1.81099E+04 -1.39496E+04  9.84416E+03 -1.47384E+04 -2.46606E+03
 -1.14813E+04 -1.22994E+04 -2.04173E+03 -1.41530E+04  7.04672E+03 -1.00717E+04  8.84605E+03 -4.30271E+03
  5.53637E+03  3.46162E+03 -9.84428E+02  2.13640E+03 -8.66148E+02 -3.74210E+03  3.00748E+03 -9.27460E+03
  1.46120E+04 -5.68337E+03  1.98956E+04  2.02595E+03  1.79936E+04  1.22752E+04  1.11394E+04  2.44607E+04
 -6.06258E+03  2.86781E+04 -2.39501E+04  2.10093E+04 -3.08414E+04  4.41192E+03 -2.39336E+04 -1.13961E+04
 -1.17772E+04 -2.04708E+04 -9.00926E+02 -1.72746E+04  5.59026E+03 -1.02171E+04  5.98409E+03 -5.82585E+03
  4.17297E+03 -4.19621E+03  4.58071E+03 -4.51981E+03  6.37635E+03 -4.24119E+03  9.63566E+03 -1.24622E+03
  1.34361E+04  2.88230E+03  7.73965E+03  1.09727E+04 -3.47525E+03  1.40291E+04 -1.32415E+04  1.00370E+04
 -1.78519E+04 -1.18044E+03 -1.16682E+04 -1.22734E+04 -1.88093E+03 -1.90941E+04  1.04919E+04 -1.79217E+04
  1.94850E+04 -1.06613E+04  2.36575E+04  3.47010E+03  1.59119E+04  1.71667E+04  2.10962E+03  2.09639E+04
 -8.38196E+03  1.71442E+04 -1.22719E+04  5.92339E+03 -8.23693E+03 -1.45227E+03 -2.95141E+03 -3.11560E+03
 -1.53815E+03 -1.01123E+02 -1.77599E+03  4.34314E+03 -6.29015E+03  3.81205E+03 -1.13065E+04 -2.08854E+03
 -9.77383E+03 -1.22994E+04 -1.33079E+03 -1.74949E+04  1.13740E+04 -1.55352E+04  1.77568E+04 -4.43620E+03
  1.81943E+04  7.99099E+03  8.87509E+03  1.64800E+04 -3.67225E+03  1.78507E+04 -1.25840E+04  1.06203E+04
 -1.68830E+04  3.72652E+02 -1.23304E+04 -1.14178E+04 -1.83785E+03 -1.51919E+04  8.43050E+03 -1.18705E+04
  1.13698E+04 -4.00672E+03  8.43383E+03  3.79761E+03  2.50719E+03  5.34539E+03  1.52279E+03  2.95518E+03
  2.56444E+03  9.88516E+02  4.37755E+03  1.73509E+03  5.73823E+03  5.91789E+03  4.08479E+03  1.02790E+04
 -3.47102E+03  1.35248E+04 -1.32279E+04  1.39882E+04 -1.99914E+04  2.94289E+03 -2.04351E+04 -7.92912E+03
 -9.21202E+03 -1.93088E+04  3.45325E+03 -1.97368E+04  1.20210E+04 -1.29187E+04  1.60371E+04 -3.25530E+03
  1.20215E+04  6.52460E+03  3.28225E+03  1.16570E+04 -6.06771E+03  5.66584E+03 -8.19893E+03 -1.13226E+03
 -4.06954E+03 -8.00493E+03  4.02058E+03 -8.44850E+03  7.97767E+03 -3.62526E+03  8.59495E+03  1.34951E+03
  3.92050E+03  4.96255E+03  1.31624E+03  4.13933E+03 -1.28018E+03  2.86307E+03  2.01728E+03 -1.66874E+03
  3.40797E+03 -5.24557E+02  7.43579E+03  3.03105E+03  5.45433E+03  1.06034E+04 -2.35513E+03  1.43064E+04
 -8.48484E+03  8.53219E+03 -1.29758E+04  2.26513E+03 -1.03282E+04 -4.28641E+03 -4.79828E+03 -8.20241E+03
  1.32853E+03 -8.19158E+03  4.75084E+03 -3.18539E+03  5.25977E+03  4.01336E+03 -1.67174E+03  6.16875E+03
 -8.58687E+03  4.06014E+03 -9.53112E+03 -4.51538E+03 -4.35837E+03 -1.03931E+04  1.28338E+03 -1.12084E+04
  6.38920E+03 -6.77457E+03  8.49993E+03 -4.84435E+01  5.82768E+03  2.31239E+03 -1.91008E+01  5.53429E+03
 -4.30336E+03  2.14550E+03 -5.16380E+03 -3.73507E+03  2.22409E+03 -9.02454E+03  8.75944E+03 -7.04778E+03
  1.31330E+04  3.68695E+02  1.28562E+04  9.16528E+03  3.59160E+03  1.30211E+04 -4.05848E+03  1.23641E+04
 -1.05306E+04  5.90356E+03 -1.08449E+04 -2.48322E+03 -7.24404E+03 -8.31624E+03  2.77372E+03 -8.92673E+03
  8.35966E+03 -3.87783E+03  6.58674E+03  3.31382E+03  2.58239E+03  6.91635E+03 -1.74091E+03  5.63704E+03
 -4.39075E+03  4.33428E+03 -2.33992E+03  5.87090E+02 -2.31379E+03  1.29304E+03 -1.83605E+03  2.81375E+03
 -3.28275E+03  5.29553E+03 -8.95640E+03  4.43040E+03 -1.45549E+04  1.65601E+02 -1.51110E+04 -8.06670E+03
 -8.43792E+03 -1.83568E+04  3.30298E+03 -2.02137E+04  1.35703E+04 -1.62604E+04  1.88878E+04 -6.14496E+03
  1.73767E+04  3.83886E+03  1.12909E+04  1.26736E+04  9.29456E+02  1.49971E+04 -5.86039E+03  9.94882E+03
 -8.54162E+03  3.56368E+03 -5.56749E+03 -1.02157E+02 -2.02805E+03 -1.17728E+03 -1.82336E+03 -5.27999E+02
 -1.82159E+03  9.20406E+02 -3.31559E+03 -1.30537E+03 -8.39556E+02 -3.41579E+03  1.03802E+03 -5.81043E+03
  7.28405E+03 -5.20102E+03  9.66056E+03  4.25498E+02  1.06142E+04  7.10921E+03  3.95865E+03  1.34996E+04
 -5.84067E+03  1.64147E+04 -1.51343E+04  9.92437E+03 -1.71697E+04 -1.83884E+03 -1.24300E+04 -1.02142E+04
 -5.44904E+03 -1.52586E+04  4.82218E+03 -1.43985E+04  9.40832E+03 -7.48055E+03  1.08843E+04  3.16225E+02
  5.85215E+03  4.71350E+03 -3.04116E+02  5.15981E+03 -3.28763E+03 -1.72570E+01 -9.09701E+02 -3.39752E+03
  3.60810E+03 -2.21042E+03  5.93274E+03  1.93956E+03  4.18134E+03  5.08750E+03  2.59237E+02  7.15069E+03
 -6.08748E+03  6.31110E+03 -9.45385E+03  9.54751E+00 -9.02367E+03 -7.91371E+03 -1.97546E+03 -1.31539E+04
  6.98406E+03 -1.02786E+04  1.14005E+04 -3.83689E+03  1.12516E+04  3.68000E+03  6.63006E+03  9.70670E+03
  1.91265E+03  9.94354E+03 -3.70601E+03  8.21958E+03 -6.49951E+03  3.81756E+03 -4.94821E+03  2.37043E+02
 -2.22676E+03 -5.97475E+02 -3.13969E+03  9.12776E+02 -4.43257E+03  2.16818E+03 -7.96646E+03 -2.26366E+03
 -8.23195E+03 -5.60439E+03 -2.38608E+03 -1.03012E+04  4.69061E+03 -9.79548E+03  9.20434E+03 -5.51497E+03
  9.61743E+03  6.69820E+02  5.20015E+03  6.93759E+03 -1.61675E+03  1.04276E+04 -7.56338E+03  6.29834E+03
