 $NMID ID='MM_0lb_SNR400_10hz_g60_26.RAW', FMTDAT='(8E13.5)'
 TRAMP=1., VOLUME=1. $END
  3.08956E+05  7.01493E+02  3.37979E+05  2.50801E+05  8.54538E+04  3.38260E+05 -1.32201E+05  2.51697E+05
 -1.90695E+05  8.47639E+04 -1.12382E+05 -3.24842E+04  5.71116E+02 -5.04691E+04  5.35342E+04 -4.59997E+02
  3.52511E+04  5.30175E+04 -1.65924E+04  7.62991E+04 -6.09154E+04  6.51291E+04 -8.57314E+04  3.31449E+04
 -8.15742E+04 -1.17207E+04 -5.87789E+04 -5.26572E+04 -1.42617E+04 -7.06429E+04  2.84993E+04 -4.70444E+04
  4.11370E+04  3.40863E+03  1.69537E+04  4.89618E+04 -3.47306E+04  4.68903E+04 -6.78312E+04  6.13201E+02
 -5.52975E+04 -5.81962E+04 -7.26708E+03 -7.98058E+04  3.51092E+04 -5.67845E+04  4.97652E+04 -1.84063E+04
  4.52520E+04  1.14708E+04  3.29283E+04  2.68186E+04  1.63551E+04  3.04350E+04 -6.23180E+03  2.82432E+04
 -2.28115E+04  1.20463E+04 -1.79421E+04 -5.68804E+03  6.77962E+03 -7.00699E+03  2.35614E+04  1.47311E+04
  7.14778E+03  3.77865E+04 -3.39535E+04  3.67723E+04 -6.60762E+04  1.65123E+03 -5.82697E+04 -4.53235E+04
 -1.24352E+04 -6.64985E+04  4.16434E+04 -4.81977E+04  6.13213E+04 -2.74837E+03  3.72695E+04  3.48927E+04
 -5.30476E+03  3.98952E+04 -3.28226E+04  1.94419E+04 -3.34676E+04 -2.68592E+03 -2.00635E+04 -1.20541E+04
 -9.11077E+03 -1.50870E+04 -2.83660E+02 -1.96001E+04  8.55458E+03 -2.33215E+04  1.58355E+04 -1.24191E+04
  1.05816E+04  5.83891E+03 -1.15407E+04  1.27313E+04 -2.23564E+04 -7.45187E+03 -8.38230E+03 -3.85158E+04
  2.55314E+04 -4.67322E+04  5.22174E+04 -2.10888E+04  4.90207E+04  2.11965E+04  1.75031E+04  4.69808E+04
 -1.71246E+04  3.63784E+04 -2.87770E+04  2.81157E+03 -1.19246E+04 -2.99106E+04  2.20574E+04 -3.66964E+04
  4.47635E+04 -1.07237E+04  4.16093E+04  2.52477E+04  2.09356E+04  5.10622E+04 -8.04222E+03  5.66908E+04
 -3.55744E+04  3.85643E+04 -4.82270E+04  1.09942E+04 -4.74584E+04 -1.90928E+04 -2.65901E+04 -4.21719E+04
  7.88518E+03 -4.26421E+04  3.49369E+04 -1.78089E+04  3.25662E+04  1.12138E+04  5.11969E+03  2.09054E+04
 -1.29444E+04  9.74666E+03 -1.06752E+04 -7.40590E+03  5.56677E+03 -1.11352E+04  1.89625E+04  4.42937E+03
  1.51166E+04  2.22145E+04 -5.30535E+03  2.68178E+04 -2.36169E+04  1.43552E+04 -3.14738E+04 -3.20605E+03
 -2.48876E+04 -1.78963E+04 -1.13751E+04 -2.38069E+04  4.15841E+03 -2.54978E+04  1.97698E+04 -2.29569E+04
  3.15958E+04 -1.49464E+04  3.79629E+04  5.14471E+03  2.67787E+04  2.47212E+04  4.50484E+03  4.14521E+04
 -2.04536E+04  3.41111E+04 -3.00070E+04  1.23442E+04 -2.25927E+04 -1.01440E+04 -5.56473E+03 -1.31270E+04
  1.40113E+03 -1.89431E+03 -6.99442E+03  8.12113E+03 -2.01771E+04  4.72495E+03 -2.04367E+04 -9.91972E+03
 -1.19536E+04 -2.34659E+04  7.32774E+03 -2.78956E+04  1.82373E+04 -1.94050E+04  2.32303E+04 -1.97144E+03
  1.45310E+04  1.64803E+04 -1.49565E+03  2.45686E+04 -1.70694E+04  1.32751E+04 -2.34580E+04 -4.58307E+03
 -1.71832E+04 -2.04866E+04 -2.31342E+03 -2.73889E+04  1.26093E+04 -2.33260E+04  2.35309E+04 -1.23353E+04
  2.26508E+04  1.47133E+02  1.61634E+04  5.16323E+03  8.94525E+03  1.37929E+03  1.21637E+04 -1.35601E+03
  2.18459E+04  3.17117E+03  2.62854E+04  1.84826E+04  1.74548E+04  3.76872E+04 -1.88085E+03  4.48848E+04
 -2.50046E+04  3.68419E+04 -4.18030E+04  1.95663E+04 -4.47003E+04 -3.29847E+03 -3.58144E+04 -2.65159E+04
 -1.43337E+04 -3.72898E+04  1.37856E+04 -3.21913E+04  2.84771E+04 -1.51928E+04  2.46800E+04  7.92194E+03
  8.42458E+03  1.92533E+04 -1.13818E+04  1.57740E+04 -1.99463E+04  2.53216E+03 -1.55748E+04 -1.30267E+04
  2.32308E+02 -1.90240E+04  9.70814E+03 -1.46339E+04  1.35918E+04 -1.52815E+03  3.32182E+03  9.02671E+03
 -8.40467E+03  4.27791E+03 -9.37577E+03 -7.03320E+03 -1.99488E+03 -1.80154E+04  1.18920E+04 -1.93827E+04
  2.32359E+04 -1.16046E+04  2.57634E+04  3.36625E+03  2.26792E+04  1.86386E+04  1.04206E+04  2.96003E+04
 -5.36221E+03  3.13230E+04 -2.02692E+04  1.93813E+04 -2.36974E+04  3.66086E+03 -1.46869E+04 -5.46676E+03
 -6.41835E+03 -7.04943E+03 -5.11769E+02  6.93974E+02 -2.61043E+03  3.71473E+03 -7.82919E+03  5.49852E+03
 -1.37502E+04 -1.42874E+03 -1.44598E+04 -1.19394E+04 -5.68976E+03 -1.93304E+04  6.29135E+03 -1.55571E+04
  1.25445E+04 -6.66418E+03  9.41098E+03  4.20698E+03 -2.14557E+02  6.44592E+03 -8.66382E+03  2.74182E+02
 -7.73435E+03 -1.01639E+04 -1.05680E+03 -1.51513E+04  9.10777E+03 -1.65503E+04  1.92650E+04 -8.46056E+03
  2.39857E+04  2.52768E+03  1.67624E+04  1.45547E+04  3.37874E+03  1.89432E+04 -9.55590E+03  1.52065E+04
 -1.24197E+04  4.73504E+03 -6.01129E+03 -3.54865E+03  1.78608E+03 -4.43435E+03  7.19318E+03 -1.00758E+03
  7.29416E+03  6.64211E+03  1.46914E+03  1.17497E+04 -9.23259E+03  1.12248E+04 -1.53353E+04  3.34090E+03
 -1.06229E+04 -7.81015E+03  4.73773E+02 -1.28246E+04  8.44136E+03 -7.59348E+03  9.67576E+03  3.56001E+03
  2.69308E+03  1.03787E+04 -8.31869E+03  1.19487E+04 -1.33470E+04  4.81837E+03 -1.36617E+04 -4.70406E+03
 -7.36917E+03 -1.59295E+04  4.08478E+03 -1.75288E+04  1.51362E+04 -1.07413E+04  1.60731E+04  2.74177E+03
  1.07133E+04  1.30792E+04 -1.46020E+03  1.55457E+04 -1.20710E+04  8.83736E+03 -1.28500E+04 -1.32035E+03
 -1.07502E+04 -9.45551E+03 -1.87594E+03 -1.26072E+04  5.89238E+03 -8.52681E+03  8.20160E+03 -3.59705E+03
  5.02327E+03  2.21227E+03 -7.02162E+02  2.31083E+03 -8.96519E+02 -3.69030E+03  2.85934E+03 -6.84676E+03
  1.21031E+04 -4.99740E+03  1.59218E+04  1.13523E+03  1.58258E+04  1.09445E+04  1.04960E+04  2.06663E+04
 -4.93468E+03  2.39027E+04 -1.92919E+04  1.76784E+04 -2.54681E+04  3.00887E+03 -1.96433E+04 -8.84514E+03
 -1.14926E+04 -1.60587E+04 -6.57379E+02 -1.34890E+04  5.31793E+03 -7.33409E+03  4.57145E+03 -4.73373E+03
  4.09896E+03 -2.56823E+03  4.19705E+03 -3.89657E+03  5.43517E+03 -3.52536E+03  7.50928E+03 -1.28726E+03
  1.00695E+04  2.23317E+03  5.33503E+03  9.34390E+03 -2.15168E+03  1.02182E+04 -1.11948E+04  8.94919E+03
 -1.39127E+04 -2.07694E+03 -9.22682E+03 -8.93147E+03 -1.18040E+03 -1.52658E+04  9.01764E+03 -1.53514E+04
  1.62584E+04 -8.78763E+03  1.90746E+04  2.12693E+03  1.37923E+04  1.33560E+04  1.66743E+03  1.65268E+04
 -6.36325E+03  1.44974E+04 -1.01790E+04  4.46964E+03 -7.21343E+03 -1.53977E+03 -2.87739E+03 -2.14244E+03
 -1.75318E+03  9.62476E+01 -1.86346E+03  3.04204E+03 -6.64004E+03  2.33546E+03 -1.06238E+04 -1.25332E+03
 -6.91525E+03 -9.37016E+03  4.32338E+02 -1.38143E+04  8.42532E+03 -1.29187E+04  1.37827E+04 -3.86788E+03
  1.38864E+04  6.69822E+03  6.92193E+03  1.18396E+04 -3.19795E+03  1.38068E+04 -1.06283E+04  8.97464E+03
 -1.36520E+04  9.10443E+02 -1.07337E+04 -8.22926E+03 -1.05727E+03 -1.18571E+04  6.26138E+03 -8.55217E+03
  9.44114E+03 -2.77872E+03  5.74043E+03  2.23838E+03  2.04343E+03  4.05739E+03  1.14396E+03  1.94344E+03
  3.29880E+03  1.21794E+03  3.24991E+03  2.13996E+03  4.56628E+03  4.55692E+03  3.15959E+03  7.44898E+03
 -2.21374E+03  1.15902E+04 -9.54977E+03  1.03517E+04 -1.44908E+04  2.88155E+03 -1.43213E+04 -6.61601E+03
 -6.98069E+03 -1.38811E+04  1.33512E+03 -1.60347E+04  9.39750E+03 -1.01138E+04  1.19168E+04 -2.71674E+03
  9.22087E+03  5.72251E+03  2.07645E+03  8.91869E+03 -3.58976E+03  5.52682E+03 -5.40823E+03 -1.27867E+03
 -2.65298E+03 -6.28040E+03  3.35675E+03 -6.72258E+03  6.54586E+03 -3.76933E+03  5.43238E+03  1.31732E+03
  2.62982E+03  3.13142E+03  8.91690E+02  2.21224E+03  2.41055E+02  2.74489E+03  2.13878E+03 -4.24093E+01
  2.80464E+03 -4.86179E+02  6.23201E+03  2.63895E+03  3.72595E+03  7.57946E+03 -2.30189E+03  1.00139E+04
 -7.30330E+03  6.72034E+03 -9.54195E+03  1.92047E+03 -8.58146E+03 -2.62756E+03 -3.22699E+03 -5.01935E+03
  1.16625E+03 -5.69606E+03  3.49794E+03 -2.45043E+03  3.58319E+03  2.73907E+03 -1.44624E+03  4.08514E+03
 -5.86205E+03  3.34089E+03 -6.85552E+03 -3.12416E+03 -4.12330E+03 -7.71106E+03  1.93401E+03 -7.57903E+03
  4.71021E+03 -4.81376E+03  6.23845E+03  7.82239E+02  5.31237E+03  3.38554E+03  5.24025E+02  4.26638E+03
 -3.11239E+03  5.83895E+02 -2.88981E+03 -2.59086E+03  2.36669E+03 -6.44583E+03  6.61768E+03 -5.29702E+03
  9.56094E+03  6.24212E+02  9.61185E+03  6.08687E+03  2.33089E+03  9.34489E+03 -3.49684E+03  8.72557E+03
 -7.80004E+03  3.41784E+03 -8.59278E+03 -1.53192E+03 -3.43847E+03 -5.68383E+03  1.33474E+03 -5.34817E+03
  5.15165E+03 -2.31602E+03  4.67809E+03  2.70689E+03  2.24448E+03  4.86849E+03 -7.39909E+02  4.36847E+03
 -2.26546E+03  2.88813E+03 -1.88849E+03  1.03513E+03 -1.11467E+03  2.72735E+02 -1.33203E+03  2.41482E+03
 -2.16509E+03  4.37318E+03 -6.26817E+03  2.81789E+03 -9.57528E+03 -1.80228E+02 -1.05332E+04 -6.37270E+03
 -5.85830E+03 -1.23194E+04  2.83868E+03 -1.45165E+04  8.30980E+03 -1.08396E+04  1.36195E+04 -4.02693E+03
  1.30544E+04  2.75192E+03  8.10638E+03  9.25163E+03  6.93295E+02  9.90549E+03 -3.95128E+03  7.11089E+03
 -4.79068E+03  2.46487E+03 -2.64550E+03 -1.41569E+03 -1.22051E+03 -1.50091E+03 -1.30877E+03 -1.34138E+02
 -1.56297E+03  4.47078E+02 -2.14534E+03 -1.46013E+03 -6.93183E+02 -3.08092E+03 -8.38287E+02 -3.58206E+03
  4.72852E+03 -3.35429E+03  5.39923E+03 -5.26031E+01  5.85097E+03  5.01387E+03  1.23595E+03  9.04131E+03
 -4.56512E+03  1.06884E+04 -1.02537E+04  5.82113E+03 -1.18939E+04 -4.02931E+02 -8.93998E+03 -6.42077E+03
 -3.78982E+03 -9.89227E+03  2.66163E+03 -8.66871E+03  6.60866E+03 -4.98053E+03  6.18112E+03 -1.54407E+02
  3.69434E+03  2.96165E+03  1.09154E+02  2.98288E+03 -2.30352E+03 -2.79202E+02  2.22293E+02 -2.19184E+03
  2.99910E+03 -1.07430E+03  4.76307E+03  1.13403E+03  2.34197E+03  3.42112E+03  6.74963E+02  4.42410E+03
 -3.66195E+03  4.43187E+03 -5.62628E+03 -1.02849E+01 -6.54216E+03 -4.52553E+03 -1.55253E+02 -8.11157E+03
  4.04873E+03 -6.75067E+03  7.63694E+03 -9.97033E+02  6.67762E+03  9.93429E+02  3.78741E+03  6.18171E+03
  1.60820E+03  5.45017E+03 -1.65031E+03  5.26533E+03 -3.83803E+03  2.43637E+03 -3.05344E+03  8.56357E+02
 -1.07939E+03 -4.09247E+02 -2.19987E+03  1.06127E+03 -3.30527E+03  1.23143E+03 -4.64149E+03 -6.01056E+02
 -4.84665E+03 -2.37151E+03 -1.31909E+03 -6.55820E+03  3.95576E+03 -5.79829E+03  5.72834E+03 -3.56731E+03
  6.65095E+03  8.77928E+01  2.36460E+03  4.89790E+03  3.49109E+01  5.56836E+03 -5.13518E+03  3.73575E+03
