 $NMID ID='MM_0lb_SNR400_15hz_g60_24.RAW', FMTDAT='(8E13.5)'
 TRAMP=1., VOLUME=1. $END
  3.09877E+05 -1.89176E+02  3.37454E+05  2.51013E+05  8.47559E+04  3.38778E+05 -1.32611E+05  2.51001E+05
 -1.90584E+05  8.29564E+04 -1.11635E+05 -3.13763E+04  1.10384E+03 -5.04166E+04  5.36330E+04 -3.87301E+02
  3.54994E+04  5.28858E+04 -1.66481E+04  7.55009E+04 -6.06384E+04  6.40311E+04 -8.31643E+04  3.17692E+04
 -8.15005E+04 -1.15231E+04 -5.76796E+04 -5.15770E+04 -1.48484E+04 -6.98325E+04  2.80120E+04 -4.58045E+04
  4.03790E+04  3.65568E+03  1.66235E+04  4.73912E+04 -3.52715E+04  4.76147E+04 -6.70702E+04 -3.67113E+02
 -5.38715E+04 -5.71523E+04 -7.01545E+03 -7.69227E+04  3.41565E+04 -5.58739E+04  4.91906E+04 -1.75003E+04
  4.42238E+04  1.15833E+04  3.22301E+04  2.55829E+04  1.59192E+04  2.95657E+04 -5.70031E+03  2.73310E+04
 -2.20392E+04  1.24273E+04 -1.81731E+04 -5.25780E+03  5.88325E+03 -7.60665E+03  2.27874E+04  1.23982E+04
  6.80601E+03  3.56552E+04 -3.29372E+04  3.55354E+04 -6.38639E+04  1.80482E+03 -5.75958E+04 -4.35734E+04
 -1.21213E+04 -6.37574E+04  4.02821E+04 -4.59375E+04  5.90323E+04 -2.67557E+03  3.45640E+04  3.28088E+04
 -6.30002E+03  3.66740E+04 -3.03571E+04  1.67676E+04 -3.05824E+04 -3.84808E+03 -1.73362E+04 -1.14357E+04
 -8.40244E+03 -1.28946E+04 -1.02506E+02 -1.83569E+04  7.55991E+03 -2.27038E+04  1.55338E+04 -1.25417E+04
  1.15846E+04  5.54673E+03 -8.39940E+03  1.31490E+04 -2.16092E+04 -4.15343E+03 -8.12572E+03 -3.39703E+04
  2.32201E+04 -4.42591E+04  4.88425E+04 -1.98600E+04  4.58392E+04  1.99567E+04  1.60164E+04  4.48677E+04
 -1.53717E+04  3.39249E+04 -2.58826E+04  2.33984E+03 -1.01574E+04 -2.80135E+04  2.09890E+04 -3.43415E+04
  4.17105E+04 -9.39787E+03  3.58283E+04  2.44093E+04  1.81494E+04  4.72936E+04 -7.79841E+03  5.09091E+04
 -3.20732E+04  3.44186E+04 -4.28201E+04  9.91714E+03 -4.33312E+04 -1.71647E+04 -2.38521E+04 -3.79153E+04
  7.74612E+03 -3.82899E+04  3.20830E+04 -1.48512E+04  2.92644E+04  1.12328E+04  4.32202E+03  1.98260E+04
 -1.33298E+04  9.38483E+03 -1.01407E+04 -7.36551E+03  6.08525E+03 -1.05349E+04  1.78132E+04  5.43231E+03
  1.30659E+04  2.21543E+04 -6.15898E+03  2.52731E+04 -2.25961E+04  1.18964E+04 -2.83516E+04 -4.62438E+03
 -2.12430E+04 -1.71760E+04 -8.51419E+03 -2.15032E+04  3.80376E+03 -2.07852E+04  1.60784E+04 -1.90231E+04
  2.69290E+04 -1.30530E+04  3.24252E+04  3.33867E+03  2.36883E+04  2.04775E+04  4.05497E+03  3.71297E+04
 -1.76801E+04  3.14497E+04 -2.80246E+04  1.03223E+04 -2.05630E+04 -9.90247E+03 -4.61221E+03 -1.37436E+04
  2.02393E+03 -2.93003E+03 -5.34331E+03  6.55557E+03 -1.66010E+04  5.21280E+03 -1.70423E+04 -7.34886E+03
 -1.10561E+04 -1.96458E+04  5.21565E+03 -2.35688E+04  1.54942E+04 -1.76667E+04  1.79341E+04 -1.63159E+03
  1.12425E+04  1.30868E+04 -9.71600E+02  1.96428E+04 -1.35430E+04  1.09918E+04 -1.92440E+04 -4.41666E+03
 -1.46253E+04 -1.73155E+04 -2.41143E+03 -2.35846E+04  1.04352E+04 -1.92067E+04  1.93354E+04 -9.96671E+03
  1.83532E+04  5.59605E+02  1.31030E+04  4.45858E+03  7.00130E+03  1.15604E+03  9.36701E+03 -1.51357E+03
  1.77966E+04  3.42976E+03  1.95685E+04  1.56826E+04  1.26972E+04  3.05732E+04 -2.79329E+03  3.52480E+04
 -2.03194E+04  2.81503E+04 -3.29377E+04  1.39429E+04 -3.44051E+04 -2.96415E+03 -2.86118E+04 -1.98725E+04
 -1.19382E+04 -2.79414E+04  9.75844E+03 -2.57454E+04  2.20325E+04 -1.29974E+04  1.99613E+04  5.17647E+03
  7.31300E+03  1.51173E+04 -8.75835E+03  1.29245E+04 -1.63626E+04  3.23976E+03 -1.21799E+04 -1.02432E+04
  8.08533E+02 -1.53099E+04  7.83697E+03 -1.10757E+04  1.04053E+04 -1.39029E+03  2.32635E+03  6.42024E+03
 -7.75664E+03  2.30537E+03 -6.02320E+03 -6.17695E+03 -4.26050E+02 -1.35247E+04  9.39118E+03 -1.34006E+04
  1.71721E+04 -8.26949E+03  1.73212E+04  3.14362E+03  1.60877E+04  1.35792E+04  7.96070E+03  2.04494E+04
 -3.70590E+03  2.22288E+04 -1.41364E+04  1.38859E+04 -1.63944E+04  3.95556E+03 -1.15184E+04 -3.43436E+03
 -5.10772E+03 -5.16528E+03 -6.62032E+02  1.10917E+03 -2.00977E+03  2.86240E+03 -5.82844E+03  4.13782E+03
 -1.08723E+04 -9.65887E+02 -1.11205E+04 -9.18258E+03 -4.47611E+03 -1.52169E+04  4.33468E+03 -1.17708E+04
  9.63609E+03 -5.22531E+03  6.68746E+03  3.03779E+03  1.50609E+02  4.34465E+03 -5.39721E+03 -2.20292E+02
 -4.87385E+03 -7.12909E+03 -8.98414E+02 -1.08382E+04  6.30237E+03 -1.19978E+04  1.42090E+04 -6.10040E+03
  1.69725E+04  1.04426E+03  1.20467E+04  9.49643E+03  2.25688E+03  1.27008E+04 -7.46792E+03  1.11525E+04
 -8.78594E+03  3.59687E+03 -4.81663E+03 -2.09780E+03  1.08719E+03 -2.85836E+03  6.04144E+03 -7.49843E+02
  5.47376E+03  5.16400E+03  1.35854E+03  8.81026E+03 -6.37263E+03  8.65745E+03 -1.07476E+04  2.61155E+03
 -7.02255E+03 -5.86404E+03  1.92348E+02 -8.89992E+03  5.74310E+03 -4.32020E+03  6.10393E+03  1.32093E+03
  1.39114E+03  6.08401E+03 -5.48655E+03  7.46964E+03 -8.17254E+03  4.00082E+03 -7.62936E+03 -2.64426E+03
 -4.96113E+03 -9.69833E+03  2.63888E+03 -1.08551E+04  9.88249E+03 -7.10101E+03  1.05222E+04  1.70124E+03
  7.60899E+03  8.37569E+03 -8.16824E+02  1.02446E+04 -7.78860E+03  6.28377E+03 -8.85229E+03 -6.38149E+02
 -7.95740E+03 -7.54413E+03 -1.63031E+03 -7.07169E+03  3.73755E+03 -6.25518E+03  5.07048E+03 -3.55494E+03
  3.41786E+03  1.13860E+03 -7.89604E+02  1.04133E+03  3.05090E+02 -1.12631E+03  1.45618E+03 -4.16259E+03
  6.20609E+03 -2.22381E+03  9.04031E+03  1.14229E+03  9.30478E+03  6.11329E+03  7.14469E+03  1.24898E+04
 -2.81655E+03  1.38130E+04 -1.21228E+04  1.03254E+04 -1.58771E+04  1.48177E+03 -1.23573E+04 -5.27143E+03
 -6.40248E+03 -1.04775E+04 -2.83333E+02 -8.48165E+03  2.82222E+03 -4.25949E+03  3.27171E+03 -3.15839E+03
  2.79082E+03 -1.88760E+03  2.94040E+03 -3.04459E+03  4.22537E+03 -2.46777E+03  5.16234E+03 -4.59404E+02
  7.02440E+03  1.60221E+03  2.04115E+03  5.08993E+03 -2.15014E+03  5.53269E+03 -6.58690E+03  4.33495E+03
 -8.10346E+03 -1.51103E+03 -4.48439E+03 -5.79593E+03 -5.99294E+02 -8.40123E+03  4.77431E+03 -9.20753E+03
  8.62686E+03 -5.02054E+03  1.11736E+04  9.97154E+02  7.62305E+03  7.54532E+03  1.34256E+03  1.02181E+04
 -3.49696E+03  8.74823E+03 -6.00893E+03  2.61428E+03 -2.99150E+03 -9.59980E+02 -9.97023E+02 -1.44527E+03
 -2.69214E+02 -3.24425E+02 -1.34472E+03  2.62347E+03 -3.79651E+03  2.19789E+03 -6.05293E+03 -6.45903E+02
 -3.22805E+03 -5.67706E+03  9.24088E+02 -7.89905E+03  4.36618E+03 -6.96869E+03  6.98756E+03 -2.07877E+03
  7.25217E+03  4.12992E+03  3.22934E+03  6.79881E+03 -1.55452E+03  7.26967E+03 -5.13022E+03  4.75962E+03
 -6.01634E+03  5.86350E+02 -5.79689E+03 -3.93495E+03 -6.72955E+02 -6.06870E+03  3.37109E+03 -4.37411E+03
  5.37840E+03 -1.51789E+03  3.34309E+03  1.17003E+03  1.06667E+03  2.93976E+03  1.31489E+03  1.06340E+03
  2.34545E+03  5.44624E+02  1.86840E+03  1.48181E+03  1.92034E+03  2.65784E+03  1.83058E+03  3.76547E+03
 -2.40311E+03  5.45498E+03 -4.53060E+03  6.72571E+03 -7.26576E+03  1.73139E+03 -7.92476E+03 -1.82610E+03
 -3.24842E+03 -6.73798E+03  7.59798E+02 -8.12365E+03  4.07216E+03 -4.14560E+03  5.78673E+03 -2.08064E+03
  4.76099E+03  2.54827E+03  9.18303E+02  3.79972E+03 -1.51394E+03  2.24917E+03 -2.62528E+03  6.35497E+01
 -1.22027E+03 -3.07429E+03  1.61024E+03 -3.20907E+03  3.06629E+03 -1.51297E+03  2.24445E+03  4.83910E+02
  2.06658E+03  1.37992E+03  7.17152E+02  6.44790E+02 -8.01958E+01  8.15032E+02  1.94974E+03 -5.99822E+02
  1.23855E+03  2.67124E+02  3.57450E+03  5.24491E+02  1.18222E+03  3.57212E+03 -4.25618E+02  5.42009E+03
 -3.62560E+03  2.64272E+03 -3.58565E+03  7.92362E+02 -3.76284E+03 -1.75001E+03 -1.04342E+03 -2.88830E+03
  5.04512E+02 -2.82386E+03  1.38471E+03 -1.46496E+03  1.12169E+03  1.62915E+03 -1.02781E+03  3.06852E+03
 -2.89522E+03  1.58909E+03 -2.44184E+03 -1.81178E+03 -1.39471E+03 -4.67284E+03  6.70362E+02 -3.02892E+03
  1.89064E+03 -8.66788E+02  2.19813E+03 -1.78557E+02  1.74609E+03  5.07808E+02  8.63182E+02  2.32888E+03
 -1.19071E+03 -1.85236E+02 -1.63765E+03 -8.82936E+02  1.38536E+03 -2.14229E+03  2.87014E+03 -1.47298E+03
  3.60935E+03  7.81309E+02  4.20294E+03  1.81131E+03  1.57624E+03  3.83616E+03 -1.01117E+03  3.57354E+03
 -2.63477E+03  1.69744E+03 -2.77768E+03 -6.77157E+02 -1.78023E+03 -2.02607E+03  6.24638E+02 -1.54210E+03
  2.76851E+03 -1.52307E+03  1.56351E+03  9.34589E+02  4.55329E+02  2.45442E+03 -1.46029E+02  2.36880E+03
 -6.04030E+02  1.06195E+03 -7.24574E+02  1.32861E+02  9.79129E+01  1.52265E+03 -6.06444E+02  1.17436E+03
 -1.09450E+03  2.00348E+03 -2.85747E+03  1.27844E+03 -3.58869E+03  6.96685E+02 -4.28042E+03 -1.96588E+03
 -1.86011E+03 -4.95989E+03  8.95544E+02 -5.66513E+03  2.64588E+03 -4.02905E+03  5.32550E+03 -1.69991E+03
  5.12224E+03  6.37855E+02  2.77738E+03  3.09313E+03 -2.29905E+02  2.90457E+03 -1.21521E+03  2.36191E+03
 -2.33344E+03  1.62528E+03 -1.09529E+03 -6.69915E+02 -7.92655E+02  5.31327E+02 -1.00407E+03 -3.33804E+02
 -1.40132E+03  3.43930E+01 -1.74307E+03 -1.97365E+02  4.66129E+02 -9.06740E+02 -1.44935E+02 -8.59609E+02
  2.88196E+03 -1.08136E+03  1.93217E+03  5.05790E+02  2.66238E+03  2.35586E+03 -1.32507E+02  3.03184E+03
 -1.12833E+03  4.22786E+03 -3.77383E+03  2.55171E+03 -4.15931E+03 -6.82760E+02 -3.09938E+03 -3.14634E+03
 -1.24893E+03 -3.61114E+03  5.32294E+02 -3.17135E+03  2.60619E+03 -1.50095E+03  2.37473E+03 -1.22376E+02
  1.24422E+03  1.02066E+03 -1.85558E+02  8.77188E+02 -4.09479E+02 -2.48134E+01 -4.88471E+02 -8.09079E+02
  1.59887E+03 -2.09207E+02  3.98975E+02  1.16024E+03  1.24833E+03  1.10338E+03  5.49057E+02  1.18513E+03
 -1.59420E+03  1.49257E+03 -1.71100E+03  1.59132E+01 -1.45156E+03 -1.06992E+03 -1.17693E+02 -2.42852E+03
  1.33314E+03 -1.77337E+03  1.31889E+03 -2.19030E+00  2.84480E+03 -5.62276E+02  9.68657E+02  1.86115E+03
  8.25356E+02  1.56949E+03 -4.90943E+02  1.73966E+03 -1.53779E+03  1.19655E+03 -6.40240E+02 -3.37980E+02
 -4.76507E+02 -2.42653E+02 -7.12056E+02  7.89012E+02 -9.33326E+02  3.35284E+02 -2.34479E+03  1.87616E-01
 -2.14726E+03 -2.63531E+02 -8.76016E+02 -2.06866E+03  9.17825E+02 -2.14348E+03  1.53602E+03 -1.16556E+03
  1.04713E+03  9.35106E+02  6.62399E+02  1.61719E+03 -1.60952E+02  1.78318E+03 -1.28180E+03  9.61185E+02
