 $NMID ID='MM_0lb_SNR400_19hz_g40_3.RAW', FMTDAT='(8E13.5)'
 TRAMP=1., VOLUME=1. $END
  3.09265E+05  5.18636E+02  3.37068E+05  2.50186E+05  8.44060E+04  3.37321E+05 -1.32431E+05  2.50357E+05
 -1.89108E+05  8.17945E+04 -1.10563E+05 -3.29234E+04  1.61410E+03 -4.99878E+04  5.37825E+04  6.37843E+02
  3.46611E+04  5.27325E+04 -1.70353E+04  7.42190E+04 -6.00978E+04  6.23367E+04 -8.26297E+04  3.14336E+04
 -7.96826E+04 -1.11816E+04 -5.56224E+04 -4.97489E+04 -1.52343E+04 -6.75049E+04  2.64365E+04 -4.43997E+04
  3.86255E+04  3.90880E+03  1.54661E+04  4.68963E+04 -3.40007E+04  4.55683E+04 -6.51366E+04 -4.97873E+02
 -5.15899E+04 -5.57988E+04 -5.92623E+03 -7.47861E+04  3.29387E+04 -5.26143E+04  4.56209E+04 -1.63530E+04
  4.13528E+04  1.07598E+04  2.98204E+04  2.37368E+04  1.60128E+04  2.83341E+04 -4.26975E+03  2.65909E+04
 -2.16102E+04  1.27960E+04 -1.89383E+04 -4.02957E+03  4.07981E+03 -7.77347E+03  2.19948E+04  1.07920E+04
  7.22858E+03  3.32162E+04 -2.97531E+04  3.36275E+04 -6.03669E+04  2.14208E+03 -5.43390E+04 -4.05516E+04
 -1.20345E+04 -6.04968E+04  3.72548E+04 -4.27594E+04  5.44316E+04 -2.45768E+03  3.10052E+04  2.98953E+04
 -7.41322E+03  3.24494E+04 -2.79685E+04  1.26660E+04 -2.67683E+04 -5.70355E+03 -1.39599E+04 -9.73893E+03
 -7.14012E+03 -1.09872E+04 -1.44069E+03 -1.63374E+04  6.50031E+03 -2.27359E+04  1.53338E+04 -1.43195E+04
  1.25342E+04  4.19991E+03 -5.58724E+03  1.36445E+04 -1.87646E+04 -2.24018E+03 -7.97845E+03 -2.92456E+04
  2.02693E+04 -3.97468E+04  4.39921E+04 -1.86407E+04  4.08074E+04  1.76847E+04  1.36988E+04  4.08930E+04
 -1.48803E+04  3.05423E+04 -2.29840E+04  6.96208E+02 -7.62830E+03 -2.59516E+04  2.10290E+04 -3.08639E+04
  3.74609E+04 -6.34463E+03  3.02137E+04  2.25839E+04  1.42266E+04  4.17357E+04 -7.72627E+03  4.38504E+04
 -2.76496E+04  2.92363E+04 -3.58175E+04  7.92839E+03 -3.72445E+04 -1.44269E+04 -2.06410E+04 -3.30620E+04
  6.69165E+03 -3.27158E+04  2.86632E+04 -1.25286E+04  2.63554E+04  1.08209E+04  3.10342E+03  1.75473E+04
 -1.31793E+04  6.67878E+03 -9.10880E+03 -7.67653E+03  5.50149E+03 -9.60872E+03  1.69562E+04  6.87498E+03
  1.18781E+04  2.18374E+04 -6.81908E+03  2.25345E+04 -2.14851E+04  8.69641E+03 -2.41701E+04 -7.09904E+03
 -1.53875E+04 -1.55592E+04 -4.43282E+03 -1.63472E+04  3.80031E+03 -1.37533E+04  1.12851E+04 -1.31553E+04
  1.96953E+04 -1.16564E+04  2.66082E+04  7.77418E+02  2.04141E+04  1.54173E+04  4.45219E+03  3.16424E+04
 -1.54615E+04  2.69500E+04 -2.51139E+04  9.00647E+03 -1.97980E+04 -1.06230E+04 -3.44005E+03 -1.40075E+04
  2.84842E+03 -4.12252E+03 -2.42500E+03  5.20717E+03 -1.18038E+04  5.45499E+03 -1.21576E+04 -4.78597E+03
 -7.96440E+03 -1.47580E+04  4.06858E+03 -1.81350E+04  1.19059E+04 -1.33173E+04  1.41824E+04 -1.28554E+03
  8.34910E+03  1.08925E+04 -9.03678E+02  1.47978E+04 -1.00454E+04  8.22598E+03 -1.43790E+04 -3.20175E+03
 -1.07662E+04 -1.36616E+04 -1.84820E+03 -1.80941E+04  8.47111E+03 -1.42224E+04  1.55951E+04 -7.22689E+03
  1.42763E+04  7.46455E+02  9.64148E+03  3.64446E+03  4.89986E+03  5.58911E+02  7.00328E+03 -1.52673E+03
  1.28269E+04  2.51033E+03  1.41952E+04  1.22286E+04  8.67880E+03  2.32359E+04 -2.37842E+03  2.44554E+04
 -1.50807E+04  1.86274E+04 -2.28592E+04  8.26032E+03 -2.28414E+04 -1.85589E+03 -1.98480E+04 -1.31999E+04
 -9.70293E+03 -1.92184E+04  6.26270E+03 -1.75142E+04  1.58912E+04 -1.04394E+04  1.47125E+04  3.58736E+03
  6.53647E+03  1.03228E+04 -6.41661E+03  9.67365E+03 -1.27296E+04  2.71455E+03 -1.03485E+04 -7.43112E+03
 -3.49006E+02 -1.15962E+04  6.04419E+03 -8.95224E+03  7.31343E+03 -1.25306E+03  9.97893E+02  5.01391E+03
 -5.05936E+03  1.24795E+03 -3.39498E+03 -4.68018E+03  8.48328E+02 -8.98091E+03  7.36639E+03 -9.31755E+03
  1.12156E+04 -4.05435E+03  1.06204E+04  2.42733E+03  9.66035E+03  8.60914E+03  4.57219E+03  1.24837E+04
 -1.27814E+03  1.43528E+04 -8.30894E+03  9.08210E+03 -1.04953E+04  3.03873E+03 -7.67420E+03 -1.41018E+03
 -4.55644E+03 -2.94103E+03 -9.27163E+02  1.07316E+03 -2.12618E+03  1.71540E+03 -2.90817E+03  3.83523E+03
 -7.70385E+03 -6.90534E+02 -8.15207E+03 -6.61278E+03 -3.63347E+03 -1.08747E+04  2.84100E+03 -7.55264E+03
  6.48855E+03 -3.25293E+03  5.42880E+03  2.33583E+03  6.71889E+02  2.71362E+03 -2.73410E+03  3.95937E+02
 -3.50507E+03 -5.28087E+03 -7.62486E+02 -6.60989E+03  3.35191E+03 -6.91340E+03  9.59286E+03 -4.34533E+03
  1.09470E+04 -1.83206E+02  7.40665E+03  5.66642E+03  1.90705E+03  7.69908E+03 -4.67780E+03  7.70812E+03
 -6.68974E+03  2.54491E+03 -3.19441E+03 -1.28915E+03  1.23374E+03 -1.44281E+03  4.97116E+03 -7.46090E+02
  4.22584E+03  3.56809E+03  1.40852E+03  5.64681E+03 -4.18739E+03  5.80139E+03 -7.12838E+03  1.95069E+03
 -4.39161E+03 -3.29533E+03  1.80441E+02 -6.31301E+03  3.43493E+03 -2.90937E+03  2.98912E+03  8.60348E+02
  1.01174E+03  2.85599E+03 -3.17156E+03  3.96046E+03 -4.34537E+03  2.01347E+03 -3.93035E+03 -1.09094E+03
 -2.04737E+03 -5.52288E+03  1.05993E+03 -6.52198E+03  5.36924E+03 -3.97660E+03  5.96549E+03  1.05054E+03
  4.10337E+03  4.82447E+03 -1.42559E+02  6.98714E+03 -5.13179E+03  3.99900E+03 -4.66922E+03 -8.72586E+02
 -5.35631E+03 -4.82057E+03 -1.18108E+03 -4.60881E+03  1.83758E+03 -4.58142E+03  2.60669E+03 -3.00185E+03
  2.80635E+03 -3.41019E+02  1.37541E+02  1.14938E+03  7.45625E+02  1.17610E+02  3.49110E+02 -1.58311E+03
  3.03712E+03 -3.39648E+02  4.89168E+03  8.71735E+02  4.47070E+03  2.76445E+03  5.68334E+03  6.67977E+03
 -7.29164E+02  7.17545E+03 -7.10753E+03  6.03671E+03 -8.98392E+03  6.99089E+02 -7.15075E+03 -2.32616E+03
 -3.73315E+03 -6.22637E+03 -3.58187E+02 -4.76900E+03  2.03296E+03 -1.86946E+03  1.80309E+03 -1.52342E+03
  1.24789E+03 -1.54428E+03  1.74040E+03 -2.17714E+03  3.69615E+03 -9.41146E+02  3.46725E+03  2.02564E+02
  4.58639E+03  1.09092E+03  4.13365E+02  3.01385E+03 -1.21557E+03  2.87788E+03 -4.28282E+03  2.26714E+03
 -4.55030E+03 -1.13241E+03 -1.73613E+03 -2.98926E+03  1.13488E+03 -4.62135E+03  2.96401E+03 -4.86851E+03
  4.70397E+03 -2.98678E+03  5.85234E+03  6.13048E+00  4.76694E+03  3.46530E+03  1.39149E+03  5.51259E+03
 -2.48323E+03  5.42230E+03 -3.29546E+03  1.74314E+03 -1.34657E+03 -8.08359E+02 -4.01826E+02  1.35856E+01
 -8.39211E+02  7.93681E+01 -2.85200E+02  2.06892E+03 -2.53430E+03  7.83537E+02 -3.62808E+03 -2.92373E+02
 -1.06849E+03 -3.65529E+03  9.70843E+02 -4.66241E+03  2.35911E+03 -4.25443E+03  3.39474E+03 -1.34820E+03
  3.87583E+03  2.45809E+03  1.53554E+03  3.12943E+03 -4.26184E+02  3.98946E+03 -2.11209E+03  2.29668E+03
 -3.45715E+03  6.44317E+02 -2.98864E+03 -1.98326E+03 -1.87421E+02 -2.53635E+03  1.27370E+03 -2.41779E+03
  2.49910E+03 -1.43642E+03  1.62077E+03 -1.54241E+02  8.61520E+01  1.46709E+03  8.18042E+02  6.35145E+02
  1.83009E+03  5.45149E+02  1.18632E+03  1.11626E+03  1.27028E+03  1.40692E+03  1.26143E+03  1.08918E+03
 -7.68119E+02  2.55478E+03 -2.13852E+03  4.51846E+03 -2.58105E+03  1.05344E+03 -3.81720E+03 -4.86158E+02
 -1.37587E+03 -2.90825E+03  2.83925E+02 -4.07593E+03  2.08785E+03 -2.54257E+03  2.80371E+03 -8.05749E+02
  2.13798E+03  1.64080E+03  4.96699E+02  1.91691E+03 -5.27523E+02  9.57860E+02 -6.72226E+02 -4.50687E+02
 -5.20350E+02 -1.49659E+03  1.34659E+03 -1.48700E+03  1.20851E+03 -1.04243E+03  1.04055E+03  2.82775E+02
  6.24468E+02  4.33368E+02  4.32418E+02 -6.97742E+02 -5.65525E+02  1.21070E+03  1.60010E+03 -8.24271E+02
 -2.41059E+02 -7.42060E+01  1.75919E+03  7.95292E+02  5.51145E+02  2.36965E+03 -4.79680E+01  2.88849E+03
 -1.56064E+03  7.67685E+02 -1.90329E+03 -3.18870E+02 -2.15624E+03 -9.36102E+02 -2.63033E+02 -1.13967E+03
  7.67321E+02 -8.91504E+02  1.05050E+03 -8.02305E+02  1.04722E+03  8.18931E+02 -1.20477E+03  7.66154E+02
 -1.06259E+03  1.23350E+03 -7.04752E+02 -9.78322E+02 -7.61077E+02 -1.93226E+03 -4.66755E+01 -1.51100E+03
  6.93954E+02 -4.34506E+02  1.01140E+03  6.42690E+01  1.21221E+03 -2.39382E+02 -7.79261E+01  7.52286E+02
 -5.78390E+02  6.02115E+02 -9.03183E+02  2.72310E+02  8.59721E+02 -9.52751E+02  2.07155E+03 -1.03134E+03
  6.09322E+02  1.29550E+02  2.18156E+03  8.36227E+02  8.95232E+02  1.56362E+03 -2.83009E+02  2.00805E+03
 -1.54808E+03  4.53947E+02 -1.04237E+03 -6.50647E+02 -9.25146E+02 -1.55344E+03  2.46741E+02 -5.16762E+02
  1.44726E+03 -4.05750E+02  6.32575E+02  7.51236E+02  2.92733E+02  1.06967E+03  6.93587E+02  1.10593E+03
 -3.31526E+02  1.20174E+03 -3.94441E+02  1.77996E+02  1.33223E+01  7.23184E+00 -1.05804E+03  2.49295E+02
  1.26687E+02  6.99220E+02 -1.34297E+03  4.75626E+02 -1.40451E+03 -2.10100E+02 -2.10495E+03 -7.59518E+02
 -1.19306E+03 -2.63766E+03 -4.96723E+01 -2.51347E+03  6.31831E+02 -2.12879E+03  2.63120E+03 -6.82360E+02
  2.45283E+03 -7.60845E+01  1.01418E+03  1.60719E+03 -4.96518E+02  1.53679E+03 -8.79805E+02  1.17390E+03
 -3.43595E+02  1.51926E+03 -2.80589E+02 -1.40497E+02 -2.98973E+02  6.95130E+02 -8.15496E+02  3.34926E+02
 -7.03951E+02 -3.88956E+02 -6.91491E+02 -3.93829E+02  8.25946E+02 -4.82715E+02 -1.92897E+02 -7.28788E+02
  9.75060E+02 -5.37308E+02  2.49191E+02  6.07575E+01  6.70660E+02  9.81295E+02 -8.08618E+02  1.26825E+03
 -8.93814E+02  2.62103E+03 -9.84623E+02  8.20703E+02 -1.82128E+03  2.85093E+02 -9.82571E+02 -1.30142E+03
 -1.07781E+03 -1.17638E+03 -7.06471E+01 -7.98487E+02  8.70513E+02 -7.67686E+02  7.10342E+01 -2.24156E+02
  7.73025E+02  2.55749E+02  1.81014E+02  4.05253E+02 -5.57561E+02 -5.46095E+01 -3.46341E+02 -1.95555E+02
  1.41430E+03 -3.75873E+01  4.74633E+02  4.32537E+02  3.22352E+01 -8.57858E+01  7.65596E+02  5.50410E+02
 -5.50106E+02  2.69322E+02 -4.73564E+02  1.81990E+02 -3.49939E+02 -3.68948E+02  1.95919E+02 -2.57768E+02
 -7.89022E+01 -6.67604E+02  7.00426E+02  1.86463E+02  1.03288E+03 -9.24274E+02  1.39742E+02  1.01211E+03
  5.14728E+02  5.98300E+02  2.55372E+02  4.87451E+02 -4.32419E+02  5.20841E+02 -4.78248E+02  3.17995E+02
  3.21121E+01 -1.58352E+01  5.83838E+00  2.60961E+02 -6.91723E+02  1.48783E+02 -1.79435E+02 -1.31529E+02
 -1.31102E+03  7.49981E+02 -4.60457E+02 -7.37735E+02  5.49219E+02 -1.49702E+03  1.79048E+02  2.63816E+02
  6.71724E+02 -1.85914E+02 -3.16754E+01  5.44405E+02  3.35717E+02  5.21666E+02 -5.72627E+02  9.39603E+02
