 $NMID ID='MM_0lb_SNR400_14hz_g45_68.RAW', FMTDAT='(8E13.5)'
 TRAMP=1., VOLUME=1. $END
  3.09662E+05  5.39151E+02  3.37276E+05  2.49608E+05  8.41091E+04  3.37934E+05 -1.32779E+05  2.51131E+05
 -1.90466E+05  8.27924E+04 -1.11524E+05 -3.26535E+04  6.91236E+02 -5.04378E+04  5.40521E+04  5.88954E+02
  3.57269E+04  5.34404E+04 -1.66070E+04  7.52688E+04 -6.04887E+04  6.33290E+04 -8.36264E+04  3.22686E+04
 -8.06567E+04 -1.18534E+04 -5.69727E+04 -5.10354E+04 -1.45901E+04 -6.90327E+04  2.80512E+04 -4.50568E+04
  4.02099E+04  3.86300E+03  1.64843E+04  4.78846E+04 -3.42489E+04  4.68559E+04 -6.62586E+04  1.23067E+02
 -5.29812E+04 -5.60334E+04 -6.78015E+03 -7.66335E+04  3.37889E+04 -5.48630E+04  4.78115E+04 -1.77665E+04
  4.36398E+04  1.12618E+04  3.15974E+04  2.54204E+04  1.57233E+04  2.96241E+04 -4.92102E+03  2.73137E+04
 -2.16923E+04  1.22873E+04 -1.85793E+04 -5.53936E+03  5.69411E+03 -7.80780E+03  2.16491E+04  1.28802E+04
  7.37381E+03  3.43894E+04 -3.13265E+04  3.49061E+04 -6.34471E+04  2.16736E+03 -5.70337E+04 -4.25194E+04
 -1.24037E+04 -6.24930E+04  4.01860E+04 -4.51356E+04  5.81635E+04 -2.43867E+03  3.36833E+04  3.27992E+04
 -6.00533E+03  3.58517E+04 -2.98499E+04  1.62992E+04 -3.00455E+04 -4.62640E+03 -1.73753E+04 -1.10942E+04
 -8.29308E+03 -1.27397E+04 -9.34862E+02 -1.79826E+04  7.16471E+03 -2.32208E+04  1.47611E+04 -1.36572E+04
  1.13802E+04  4.81278E+03 -8.17091E+03  1.28623E+04 -2.10161E+04 -4.31128E+03 -8.04319E+03 -3.31181E+04
  2.33263E+04 -4.32813E+04  4.77739E+04 -1.85676E+04  4.43763E+04  1.90883E+04  1.53375E+04  4.39448E+04
 -1.63577E+04  3.31512E+04 -2.53217E+04  1.65904E+03 -9.88695E+03 -2.76013E+04  2.09177E+04 -3.35003E+04
  4.09679E+04 -9.48459E+03  3.51599E+04  2.35102E+04  1.83189E+04  4.65978E+04 -8.22807E+03  4.98703E+04
 -3.11312E+04  3.40323E+04 -4.10680E+04  9.80719E+03 -4.18243E+04 -1.63569E+04 -2.33697E+04 -3.81084E+04
  7.39696E+03 -3.70489E+04  3.13895E+04 -1.37106E+04  2.88112E+04  1.10381E+04  3.45694E+03  1.92098E+04
 -1.34044E+04  8.52444E+03 -1.04059E+04 -7.67959E+03  5.85714E+03 -1.07259E+04  1.79855E+04  6.14323E+03
  1.36450E+04  2.21352E+04 -5.68793E+03  2.47130E+04 -2.23899E+04  1.12061E+04 -2.75495E+04 -5.01062E+03
 -1.98688E+04 -1.73780E+04 -7.64885E+03 -1.98675E+04  3.74518E+03 -1.91519E+04  1.54351E+04 -1.79075E+04
  2.60305E+04 -1.27888E+04  3.20253E+04  2.82859E+03  2.43305E+04  1.93748E+04  3.83125E+03  3.59793E+04
 -1.73936E+04  2.93283E+04 -2.79355E+04  1.08616E+04 -2.10726E+04 -9.80092E+03 -4.31812E+03 -1.35821E+04
  2.13680E+03 -3.32664E+03 -4.92010E+03  6.42360E+03 -1.56523E+04  4.43321E+03 -1.61853E+04 -6.34204E+03
 -9.90823E+03 -1.89995E+04  4.98934E+03 -2.19523E+04  1.54072E+04 -1.63748E+04  1.78923E+04 -1.62504E+03
  1.07636E+04  1.30397E+04 -6.69305E+02  1.89242E+04 -1.21216E+04  1.03713E+04 -1.85431E+04 -4.04991E+03
 -1.32410E+04 -1.66685E+04 -1.94618E+03 -2.25557E+04  1.07989E+04 -1.82041E+04  1.85421E+04 -9.46882E+03
  1.78701E+04 -4.23597E+00  1.20423E+04  4.12324E+03  6.18095E+03  1.30310E+03  9.94588E+03 -1.62585E+03
  1.67670E+04  2.81353E+03  1.85055E+04  1.54445E+04  1.27845E+04  3.01061E+04 -2.72650E+03  3.33958E+04
 -1.97202E+04  2.70946E+04 -3.10524E+04  1.35502E+04 -3.22941E+04 -2.62215E+03 -2.72090E+04 -1.86958E+04
 -1.13289E+04 -2.70298E+04  9.01103E+03 -2.47160E+04  2.09260E+04 -1.24925E+04  1.91807E+04  5.78252E+03
  7.04930E+03  1.38044E+04 -8.65444E+03  1.15910E+04 -1.59875E+04  2.60601E+03 -1.22881E+04 -1.00291E+04
 -1.10008E+02 -1.47566E+04  7.62665E+03 -1.08756E+04  1.01556E+04 -1.53417E+03  2.32090E+03  6.41356E+03
 -6.90887E+03  2.69166E+03 -6.14901E+03 -5.02170E+03 -4.78272E+02 -1.31949E+04  9.27912E+03 -1.37540E+04
  1.62101E+04 -6.73491E+03  1.77965E+04  2.74060E+03  1.47427E+04  1.35579E+04  7.28754E+03  2.03162E+04
 -3.80114E+03  2.16286E+04 -1.36155E+04  1.33781E+04 -1.56689E+04  3.36194E+03 -1.09933E+04 -3.07924E+03
 -5.25011E+03 -4.86690E+03 -1.12424E+03  1.29370E+03 -1.64382E+03  2.39027E+03 -4.61415E+03  4.44608E+03
 -1.02505E+04 -3.07552E+02 -1.07736E+04 -9.18559E+03 -4.12060E+03 -1.41580E+04  5.24600E+03 -1.08802E+04
  9.47722E+03 -4.34221E+03  6.26966E+03  3.13039E+03 -1.78021E+02  3.99164E+03 -5.01856E+03  3.91959E+02
 -4.86070E+03 -7.17856E+03  4.75431E+01 -9.93202E+03  6.20576E+03 -1.10969E+04  1.39579E+04 -5.40942E+03
  1.57824E+04  1.08313E+03  1.16574E+04  8.80039E+03  2.01366E+03  1.27658E+04 -6.64530E+03  1.05060E+04
 -9.87500E+03  3.37623E+03 -5.17692E+03 -1.89113E+03  1.48800E+03 -2.62926E+03  6.50606E+03 -8.68519E+02
  4.99168E+03  5.02484E+03  1.04982E+03  8.97898E+03 -6.10605E+03  9.58427E+03 -1.09591E+04  1.92671E+03
 -7.09562E+03 -5.70505E+03  2.46917E+02 -8.93464E+03  5.54519E+03 -4.31394E+03  5.76919E+03  1.80826E+03
  1.66404E+03  6.33580E+03 -5.19082E+03  7.07261E+03 -7.73657E+03  3.25740E+03 -7.75299E+03 -2.33727E+03
 -5.11800E+03 -9.75686E+03  2.43457E+03 -1.08473E+04  9.22493E+03 -6.58757E+03  1.03242E+04  2.14469E+03
  6.01227E+03  8.22786E+03 -7.73252E+01  1.01706E+04 -7.11294E+03  5.69013E+03 -8.36597E+03 -1.13071E+03
 -7.36348E+03 -6.52431E+03 -1.51428E+03 -7.58589E+03  4.01651E+03 -6.50410E+03  5.47810E+03 -3.16517E+03
  3.52649E+03  9.61918E+02 -4.56891E+02  1.22189E+03  5.51409E+01 -2.18364E+03  1.02347E+03 -3.24258E+03
  6.55226E+03 -2.18068E+03  8.32088E+03  1.42158E+03  9.82880E+03  5.60541E+03  7.42693E+03  1.21101E+04
 -2.94826E+03  1.37267E+04 -1.22901E+04  1.12787E+04 -1.52050E+04  1.36278E+03 -1.18503E+04 -4.81457E+03
 -6.88136E+03 -1.07102E+04 -2.08153E+02 -8.74418E+03  3.05439E+03 -3.72377E+03  2.73720E+03 -3.31328E+03
  2.07302E+03 -1.50428E+03  3.10353E+03 -2.17637E+03  4.11674E+03 -2.08539E+03  5.14293E+03  1.67511E+02
  6.27117E+03  1.94775E+03  2.22340E+03  5.80300E+03 -1.65828E+03  6.01301E+03 -6.80856E+03  4.87679E+03
 -8.40328E+03 -8.75644E+02 -4.25128E+03 -5.65755E+03 -7.76410E+01 -8.61585E+03  5.38477E+03 -9.33464E+03
  9.54900E+03 -5.91233E+03  1.10155E+04  5.50497E+02  7.60370E+03  6.55909E+03  1.47902E+03  9.88208E+03
 -2.97548E+03  8.13169E+03 -5.82544E+03  2.82849E+03 -3.20310E+03 -1.31598E+03 -1.47750E+03 -1.00006E+03
 -8.59162E+02  5.20204E+01 -7.85195E+02  1.51703E+03 -4.22659E+03  1.31003E+03 -6.24039E+03 -8.67919E+02
 -3.21898E+03 -6.03065E+03  6.06662E+02 -8.02121E+03  5.43865E+03 -7.72163E+03  7.15983E+03 -2.40531E+03
  7.41646E+03  3.91850E+03  3.79061E+03  6.54927E+03 -1.84007E+03  7.87716E+03 -5.41056E+03  4.86056E+03
 -7.14847E+03  4.59430E+02 -4.70307E+03 -4.19061E+03 -7.73910E+02 -6.35496E+03  3.25926E+03 -4.46635E+03
  5.30816E+03 -1.96370E+03  3.21133E+03  9.91262E+02  1.58288E+03  2.27214E+03  1.07016E+03  1.37785E+03
  2.37579E+03  1.07655E+02  1.98705E+03  8.02843E+02  2.80987E+03  3.83129E+03  2.02829E+03  4.01476E+03
 -1.56610E+03  5.43617E+03 -5.23029E+03  5.96441E+03 -7.11515E+03  2.26021E+03 -7.84495E+03 -2.32516E+03
 -4.12526E+03 -7.27916E+03  1.27083E+03 -8.36913E+03  3.97367E+03 -5.25403E+03  6.47212E+03 -1.52092E+03
  4.62594E+03  2.29672E+03  1.34735E+03  4.21902E+03 -1.97528E+03  2.21755E+03 -2.87153E+03 -4.32477E+02
 -1.41513E+03 -3.44312E+03  2.30637E+03 -2.70352E+03  3.27028E+03 -1.31684E+03  3.64792E+03  1.17392E+03
  1.90120E+03  1.41366E+03  1.39324E+03  5.38581E+01 -5.84428E+02  1.36362E+03  8.51107E+02 -2.69224E+02
  5.64377E+02 -6.84963E+02  3.05376E+03  1.36207E+03  9.79962E+02  3.89090E+03 -9.10098E+02  5.60828E+03
 -3.64735E+03  2.76552E+03 -3.92303E+03  1.03411E+03 -3.63148E+03 -1.50443E+03 -1.23580E+03 -1.93833E+03
  7.41314E+02 -3.12304E+03  1.97570E+03 -1.47973E+03  1.64129E+03  2.09500E+03 -6.59723E+02  2.11965E+03
 -2.74656E+03  1.73175E+03 -2.69928E+03 -1.54189E+03 -2.24506E+03 -3.89873E+03  4.91272E+02 -2.92231E+03
  1.51129E+03 -1.87146E+03  2.53652E+03  4.02989E+02  2.19252E+03  9.44928E+02  5.44087E+02  1.65531E+03
 -1.46679E+03  5.09653E+02 -1.99525E+03 -9.98305E+02  1.38401E+03 -2.51602E+03  3.54803E+03 -2.11312E+03
  4.04641E+03  3.12616E+02  4.63330E+03  2.13356E+03  1.64839E+03  5.14220E+03 -1.26310E+03  3.98251E+03
 -3.60390E+03  1.36573E+03 -3.61617E+03 -4.86366E+02 -2.06728E+03 -3.13448E+03  8.95060E+02 -2.33966E+03
  2.56385E+03 -9.25431E+02  2.01833E+03  1.26808E+03  4.65243E+02  2.57342E+03  7.04907E+02  1.59377E+03
 -6.43354E+02  2.12187E+03 -9.17009E+02  1.03223E+03 -8.49343E+01  3.12001E+02 -6.24742E+02  1.06673E+03
 -9.78924E+02  1.38019E+03 -3.64721E+03  1.22703E+03 -3.62728E+03  1.21720E+02 -4.94678E+03 -2.94544E+03
 -2.48224E+03 -5.41998E+03  1.04913E+03 -6.33462E+03  3.46974E+03 -5.00122E+03  5.57622E+03 -2.57371E+03
  5.21966E+03  1.26474E+03  2.74622E+03  4.16988E+03 -4.16656E+01  3.92406E+03 -2.00410E+03  3.37329E+03
 -2.04662E+03  1.41038E+03 -1.42677E+03 -6.36528E+02 -3.74569E+02  2.33582E+02 -7.79854E+02  1.50411E+02
 -1.28402E+03 -1.34795E+02 -1.17218E+03 -8.92094E+02  3.00294E+02 -5.10246E+02 -9.12867E+02 -1.62655E+03
  2.23229E+03 -1.33577E+03  1.88859E+03 -4.02431E+01  2.74223E+03  1.95091E+03 -2.50671E+02  3.79134E+03
 -2.22333E+03  5.22355E+03 -4.54628E+03  2.98601E+03 -4.84634E+03 -8.34478E+02 -3.09603E+03 -2.96076E+03
 -1.35229E+03 -3.35659E+03  1.23329E+03 -3.58137E+03  2.25515E+03 -1.68946E+03  1.72188E+03 -1.03608E+02
  1.59043E+03  1.15574E+03 -4.06483E+02  8.62047E+02 -1.09361E+03  8.00212E+01  2.42963E+02 -1.61251E+03
  1.64420E+03 -7.72625E+02  1.21540E+03  5.48228E+02  6.78622E+02  1.91729E+03  1.58403E+02  1.57327E+03
 -1.28971E+03  1.28065E+03 -2.14925E+03  4.85956E+02 -2.90841E+03 -1.76077E+03 -5.75368E+01 -3.22240E+03
  2.16406E+03 -2.25312E+03  2.69091E+03 -6.32767E+02  3.38545E+03 -7.59052E+02  1.16446E+03  2.53014E+03
  9.50880E+02  2.71449E+03 -5.54835E+02  1.89812E+03 -2.29773E+03  8.72456E+02 -1.27967E+03  8.64512E+02
 -6.47678E+01  3.56414E+01 -4.34035E+02  2.01119E+02 -1.50634E+03  3.01088E+02 -1.78441E+03 -4.73170E+02
 -2.32202E+03 -8.54436E+02 -1.70007E+02 -2.78372E+03  9.45094E+02 -2.82847E+03  1.50721E+03 -5.39552E+02
  1.93927E+03  1.71744E+02  5.83965E+02  1.04608E+03 -1.28379E+01  2.46909E+03 -1.51481E+03  1.54099E+03
