 $NMID ID='MM_0lb_SNR400_12hz_g55_94.RAW', FMTDAT='(8E13.5)'
 TRAMP=1., VOLUME=1. $END
  3.09043E+05  7.93127E+02  3.37975E+05  2.50646E+05  8.46065E+04  3.38306E+05 -1.32195E+05  2.51737E+05
 -1.90795E+05  8.35460E+04 -1.11739E+05 -3.20618E+04  6.85098E+02 -5.00896E+04  5.37994E+04 -1.00895E+03
  3.57443E+04  5.23339E+04 -1.64799E+04  7.59463E+04 -6.16360E+04  6.42498E+04 -8.45658E+04  3.21905E+04
 -8.14302E+04 -1.14661E+04 -5.76376E+04 -5.17442E+04 -1.45267E+04 -7.07528E+04  2.78497E+04 -4.67107E+04
  4.07758E+04  3.47280E+03  1.65029E+04  4.79697E+04 -3.53155E+04  4.75274E+04 -6.80690E+04 -7.06687E+02
 -5.46688E+04 -5.76058E+04 -6.66625E+03 -7.86065E+04  3.46128E+04 -5.62737E+04  4.88588E+04 -1.77902E+04
  4.44594E+04  1.15443E+04  3.21517E+04  2.57767E+04  1.61887E+04  3.00431E+04 -5.46526E+03  2.77440E+04
 -2.27011E+04  1.18500E+04 -1.83794E+04 -5.62828E+03  5.49234E+03 -7.13152E+03  2.27498E+04  1.25593E+04
  7.25172E+03  3.69562E+04 -3.33383E+04  3.57957E+04 -6.47637E+04  2.30883E+03 -5.80578E+04 -4.46611E+04
 -1.29338E+04 -6.44413E+04  4.01534E+04 -4.64057E+04  6.03019E+04 -2.13909E+03  3.57208E+04  3.38188E+04
 -5.59490E+03  3.74983E+04 -3.07202E+04  1.69681E+04 -3.17217E+04 -4.48049E+03 -1.74729E+04 -1.18877E+04
 -8.77371E+03 -1.46604E+04 -3.53741E+02 -1.97058E+04  7.92123E+03 -2.27985E+04  1.59733E+04 -1.26950E+04
  1.09625E+04  4.94650E+03 -9.13077E+03  1.26695E+04 -2.26378E+04 -5.72932E+03 -8.80280E+03 -3.57303E+04
  2.41662E+04 -4.52253E+04  5.03046E+04 -2.04210E+04  4.66573E+04  2.04664E+04  1.63063E+04  4.58023E+04
 -1.66530E+04  3.47118E+04 -2.70197E+04  2.10505E+03 -1.15130E+04 -2.87725E+04  2.15199E+04 -3.50114E+04
  4.24012E+04 -9.84703E+03  3.78779E+04  2.49389E+04  1.95754E+04  4.81790E+04 -8.47528E+03  5.28569E+04
 -3.39726E+04  3.67710E+04 -4.46120E+04  1.03642E+04 -4.50232E+04 -1.73871E+04 -2.54181E+04 -4.02423E+04
  7.35996E+03 -4.16145E+04  3.26868E+04 -1.56092E+04  3.09444E+04  1.10617E+04  5.02318E+03  2.00887E+04
 -1.34346E+04  8.65504E+03 -1.04140E+04 -7.40618E+03  6.18140E+03 -1.11397E+04  1.82795E+04  5.47076E+03
  1.44861E+04  2.25469E+04 -5.33416E+03  2.63300E+04 -2.30163E+04  1.33443E+04 -3.02064E+04 -3.71856E+03
 -2.30215E+04 -1.81039E+04 -1.06289E+04 -2.30990E+04  3.89529E+03 -2.21718E+04  1.86194E+04 -2.07364E+04
  2.94308E+04 -1.37392E+04  3.52942E+04  4.35955E+03  2.51611E+04  2.24936E+04  4.84199E+03  3.89538E+04
 -1.83581E+04  3.20937E+04 -2.94190E+04  1.08078E+04 -2.14972E+04 -1.02673E+04 -4.48219E+03 -1.26733E+04
  1.22280E+03 -2.73169E+03 -6.79563E+03  7.37540E+03 -1.89114E+04  5.81687E+03 -1.89523E+04 -7.64073E+03
 -1.12793E+04 -2.10591E+04  4.79289E+03 -2.58109E+04  1.66776E+04 -1.76635E+04  1.99706E+04 -1.64741E+03
  1.32589E+04  1.49893E+04 -1.33470E+03  2.07737E+04 -1.52303E+04  1.18744E+04 -2.15436E+04 -4.12031E+03
 -1.56250E+04 -1.82645E+04 -2.49967E+03 -2.54853E+04  1.15072E+04 -2.19605E+04  2.14428E+04 -1.08396E+04
  2.01015E+04  1.93772E+02  1.42153E+04  5.26035E+03  7.76480E+03  9.84041E+02  1.06816E+04 -1.86010E+03
  1.97476E+04  2.90635E+03  2.22399E+04  1.68132E+04  1.45978E+04  3.42748E+04 -3.13420E+03  3.90129E+04
 -2.22895E+04  3.21007E+04 -3.70692E+04  1.64725E+04 -3.89248E+04 -3.10031E+03 -3.22609E+04 -2.21553E+04
 -1.32923E+04 -3.25791E+04  1.09162E+04 -2.83929E+04  2.42119E+04 -1.37332E+04  2.20486E+04  6.80162E+03
  8.22757E+03  1.59502E+04 -1.04405E+04  1.43998E+04 -1.81329E+04  2.53678E+03 -1.44505E+04 -1.14083E+04
 -8.16172E+02 -1.66405E+04  8.93563E+03 -1.32230E+04  1.12152E+04 -1.08144E+03  2.41722E+03  8.02615E+03
 -8.38548E+03  3.96450E+03 -7.42050E+03 -6.28032E+03 -6.10501E+02 -1.60492E+04  1.03432E+04 -1.75281E+04
  1.94444E+04 -8.71475E+03  2.22235E+04  2.60860E+03  1.90482E+04  1.61256E+04  9.67643E+03  2.45274E+04
 -3.55582E+03  2.62168E+04 -1.73106E+04  1.68627E+04 -1.88859E+04  3.12936E+03 -1.28354E+04 -4.73374E+03
 -5.39776E+03 -5.69873E+03 -8.63320E+02  9.83444E+02 -2.94186E+03  3.30182E+03 -6.55065E+03  4.76137E+03
 -1.26566E+04 -6.07916E+02 -1.23156E+04 -1.01233E+04 -4.81802E+03 -1.68185E+04  5.48963E+03 -1.34286E+04
  1.09559E+04 -4.89593E+03  7.94293E+03  3.45839E+03  5.74733E+02  5.66690E+03 -6.71830E+03  1.30484E+02
 -5.93653E+03 -8.26544E+03 -1.09483E+03 -1.22120E+04  7.52370E+03 -1.34354E+04  1.67813E+04 -7.59363E+03
  1.93861E+04  1.62863E+03  1.43044E+04  1.18631E+04  2.85403E+03  1.60120E+04 -7.85204E+03  1.35678E+04
 -1.08900E+04  3.97790E+03 -5.82742E+03 -3.60616E+03  1.62380E+03 -3.39608E+03  7.67039E+03 -6.80581E+02
  5.77238E+03  6.40506E+03  9.47786E+02  1.05311E+04 -6.74425E+03  1.01694E+04 -1.26455E+04  2.43052E+03
 -8.93960E+03 -7.08056E+03  5.38530E+02 -1.16245E+04  7.42821E+03 -5.92590E+03  7.10217E+03  2.52851E+03
  2.75865E+03  7.66681E+03 -6.50137E+03  9.29671E+03 -1.07215E+04  3.31496E+03 -1.08126E+04 -3.68673E+03
 -6.56508E+03 -1.30079E+04  3.35380E+03 -1.43345E+04  1.25136E+04 -8.47579E+03  1.28840E+04  1.72845E+03
  8.22331E+03  1.06588E+04 -1.33261E+03  1.35768E+04 -9.30235E+03  7.09941E+03 -9.80796E+03 -1.13976E+03
 -8.92884E+03 -8.53860E+03 -1.84025E+03 -9.77129E+03  5.40581E+03 -7.62105E+03  5.76843E+03 -2.96054E+03
  4.14636E+03  1.12627E+03 -5.00825E+02  1.58408E+03 -4.16147E+02 -2.54694E+03  1.44505E+03 -5.74811E+03
  8.04879E+03 -3.38750E+03  1.20658E+04  1.60499E+03  1.19237E+04  7.95112E+03  8.88127E+03  1.52711E+04
 -3.76756E+03  1.90207E+04 -1.56233E+04  1.41409E+04 -2.09223E+04  2.61769E+03 -1.58819E+04 -6.70466E+03
 -8.18850E+03 -1.28536E+04 -5.08184E+00 -1.08539E+04  4.06501E+03 -6.46093E+03  4.11690E+03 -4.51390E+03
  2.57605E+03 -1.97376E+03  3.37090E+03 -2.92426E+03  4.98260E+03 -2.98109E+03  6.28397E+03 -4.24747E+02
  8.61531E+03  2.02302E+03  3.84345E+03  6.54141E+03 -1.58229E+03  8.02545E+03 -8.64723E+03  5.91085E+03
 -1.17280E+04 -1.15771E+03 -6.32904E+03 -7.29126E+03 -1.81959E+02 -1.22114E+04  7.04097E+03 -1.22060E+04
  1.24760E+04 -6.37595E+03  1.46699E+04  1.84052E+03  1.01555E+04  1.00280E+04  1.71881E+03  1.34781E+04
 -5.54947E+03  1.09614E+04 -7.89686E+03  4.15495E+03 -5.17637E+03 -1.42560E+03 -2.47450E+03 -1.74428E+03
 -1.73798E+03  6.18169E+02 -2.42926E+03  2.90251E+03 -5.19493E+03  2.06006E+03 -7.79972E+03 -1.28363E+03
 -4.94754E+03 -7.77159E+03  5.48850E+01 -1.05171E+04  6.38193E+03 -9.49134E+03  1.07417E+04 -2.62882E+03
  1.07584E+04  5.37172E+03  5.06767E+03  9.52749E+03 -1.90073E+03  1.10355E+04 -7.75209E+03  7.28659E+03
 -1.02372E+04  3.12030E+02 -7.20168E+03 -6.80983E+03 -8.84454E+02 -8.63752E+03  4.37725E+03 -6.40796E+03
  6.73819E+03 -2.40786E+03  5.03999E+03  1.41099E+03  1.68891E+03  3.44883E+03  7.72132E+02  2.28083E+03
  2.29301E+03  9.17430E+02  2.48276E+03  1.55637E+03  3.61593E+03  3.49767E+03  2.64597E+03  6.34366E+03
 -2.59680E+03  8.73237E+03 -6.91852E+03  8.96343E+03 -9.39582E+03  1.85824E+03 -1.11129E+04 -4.09804E+03
 -5.82261E+03 -1.00041E+04  2.02539E+03 -1.24575E+04  6.31828E+03 -6.80713E+03  8.39109E+03 -2.16078E+03
  6.87619E+03  4.41808E+03  1.29554E+03  6.05950E+03 -2.78285E+03  3.92965E+03 -4.15538E+03 -3.23080E+02
 -2.32685E+03 -4.06037E+03  2.17549E+03 -4.17167E+03  4.36640E+03 -2.11069E+03  4.20172E+03  1.28170E+03
  1.39959E+03  1.97043E+03  7.71151E+02  1.51794E+03 -1.02785E+02  1.21700E+03  1.89947E+03 -7.59256E+02
  1.27726E+03 -1.26463E+01  4.31343E+03  1.87529E+03  2.29084E+03  5.43791E+03 -1.11917E+03  7.40412E+03
 -5.66955E+03  4.31268E+03 -6.48358E+03  1.24925E+03 -5.95561E+03 -2.42561E+03 -1.72334E+03 -3.92460E+03
  1.34954E+03 -3.68873E+03  2.56928E+03 -2.89793E+03  2.34129E+03  1.92659E+03 -4.35617E+02  3.76830E+03
 -4.11521E+03  1.21828E+03 -4.10118E+03 -2.10740E+03 -2.54894E+03 -5.23535E+03  1.14832E+03 -5.47118E+03
  2.43657E+03 -2.58291E+03  4.20469E+03  2.18153E+02  3.53718E+03  1.17836E+03  9.39173E+02  3.17926E+03
 -2.27079E+03  1.01430E+03 -2.60064E+03 -2.02682E+03  1.15966E+03 -4.00661E+03  4.68058E+03 -3.70105E+03
  6.02790E+03  6.51733E+02  6.30965E+03  3.36664E+03  1.91818E+03  6.95073E+03 -2.44410E+03  5.75644E+03
 -5.22869E+03  2.43464E+03 -5.42513E+03  9.23262E+01 -2.86194E+03 -3.51016E+03  1.53499E+03 -3.85555E+03
  4.20956E+03 -1.30674E+03  3.34788E+03  1.55283E+03  7.20152E+02  3.40412E+03  9.55631E+01  2.84672E+03
 -2.48926E+03  2.43550E+03 -1.43893E+03 -1.36132E+02 -3.59806E+02  3.71159E+01 -1.13588E+03  1.87456E+03
 -1.94775E+03  2.28946E+03 -4.28910E+03  1.55344E+03 -6.12161E+03  2.77065E+02 -7.19136E+03 -3.92594E+03
 -3.55706E+03 -9.03465E+03  1.24463E+03 -9.44001E+03  5.93948E+03 -7.83175E+03  9.45542E+03 -2.92282E+03
  8.45838E+03  1.18768E+03  4.70375E+03  5.68017E+03  2.85027E+02  5.51725E+03 -2.08733E+03  3.79567E+03
 -3.59690E+03  1.76172E+03 -1.75698E+03 -8.43394E+02 -8.20685E+02 -1.06343E+03 -1.01751E+03 -2.73231E+02
 -1.74002E+03 -5.71086E+01 -2.03814E+03 -4.05731E+02  3.60580E+02 -1.77595E+03  3.08558E+02 -2.62941E+03
  3.22449E+03 -1.96178E+03  3.14146E+03  9.30494E+02  4.79181E+03  3.73127E+03  7.47469E+02  5.85089E+03
 -3.71941E+03  7.67463E+03 -6.58710E+03  3.79493E+03 -7.26692E+03 -1.13985E+03 -5.17094E+03 -5.15457E+03
 -1.91077E+03 -6.95295E+03  1.67995E+03 -5.01875E+03  4.50071E+03 -3.35353E+03  3.62339E+03  6.42119E+02
  2.13654E+03  2.37276E+03 -3.99075E+02  1.30586E+03 -1.30383E+03 -3.58964E+02 -7.21678E+01 -1.02706E+03
  2.62852E+03  9.60979E+01  1.02012E+03  1.22729E+03  1.12894E+03  2.56773E+03  4.77963E+02  3.12152E+03
 -2.85701E+03  2.83922E+03 -4.10014E+03  6.00974E+02 -3.20747E+03 -2.87149E+03 -9.81332E+02 -5.38757E+03
  2.12344E+03 -3.69109E+03  3.95456E+03 -1.09685E+03  4.47331E+03  1.14946E+03  2.08083E+03  3.72513E+03
  2.47218E+02  3.45896E+03 -1.30100E+03  3.49498E+03 -1.97922E+03  1.52113E+03 -2.44331E+03  1.05212E+03
 -1.07578E+03 -3.66773E+02 -1.31364E+03  3.60286E+02 -2.31406E+03  3.67481E+02 -2.43770E+03 -8.43752E+02
 -2.87490E+03 -2.25099E+03 -1.16597E+03 -3.94820E+03  1.60294E+03 -4.42039E+03  3.63287E+03 -1.65399E+03
  4.49681E+03  3.96798E+02  2.12333E+03  2.61939E+03 -9.47838E+02  3.97547E+03 -2.73326E+03  2.11636E+03
