 $NMID ID='MM_0lb_SNR400_19hz_g40_76.RAW', FMTDAT='(8E13.5)'
 TRAMP=1., VOLUME=1. $END
  3.09737E+05 -1.14267E+01  3.37105E+05  2.49720E+05  8.38171E+04  3.37069E+05 -1.32193E+05  2.49631E+05
 -1.89319E+05  8.23164E+04 -1.10686E+05 -3.28534E+04  1.91806E+03 -5.00556E+04  5.35652E+04  9.35575E+02
  3.49551E+04  5.29739E+04 -1.67475E+04  7.46101E+04 -5.97899E+04  6.25560E+04 -8.29734E+04  3.16335E+04
 -7.94400E+04 -1.11173E+04 -5.59851E+04 -4.99576E+04 -1.42917E+04 -6.79780E+04  2.62298E+04 -4.45312E+04
  3.86881E+04  3.71991E+03  1.52208E+04  4.68450E+04 -3.40154E+04  4.56731E+04 -6.47007E+04 -2.50958E+02
 -5.14940E+04 -5.57685E+04 -6.51451E+03 -7.45519E+04  3.30821E+04 -5.25258E+04  4.59310E+04 -1.57690E+04
  4.12600E+04  1.09257E+04  3.03172E+04  2.39829E+04  1.57714E+04  2.79756E+04 -5.14841E+03  2.66567E+04
 -2.15721E+04  1.26501E+04 -1.90223E+04 -4.31236E+03  3.84071E+03 -7.44510E+03  2.13604E+04  1.08661E+04
  7.38675E+03  3.27373E+04 -3.03562E+04  3.37502E+04 -6.01672E+04  1.63452E+03 -5.49834E+04 -4.02682E+04
 -1.23298E+04 -6.01931E+04  3.74774E+04 -4.29081E+04  5.47342E+04 -2.15760E+03  3.08696E+04  3.03712E+04
 -6.19640E+03  3.20833E+04 -2.78199E+04  1.23023E+04 -2.72350E+04 -5.75408E+03 -1.39350E+04 -1.02551E+04
 -7.23232E+03 -1.08950E+04 -6.57630E+02 -1.66218E+04  6.11035E+03 -2.26982E+04  1.50148E+04 -1.42227E+04
  1.28374E+04  3.64664E+03 -5.16151E+03  1.33389E+04 -1.83885E+04 -1.82567E+03 -8.34804E+03 -2.89949E+04
  1.99979E+04 -3.99018E+04  4.34551E+04 -1.77792E+04  4.07985E+04  1.76860E+04  1.36126E+04  4.09402E+04
 -1.48985E+04  3.06446E+04 -2.21960E+04  9.23324E+02 -7.96890E+03 -2.60552E+04  2.05810E+04 -3.03496E+04
  3.71118E+04 -7.03341E+03  3.00691E+04  2.21782E+04  1.43596E+04  4.17936E+04 -7.80857E+03  4.33653E+04
 -2.74689E+04  2.86218E+04 -3.58384E+04  8.11488E+03 -3.69879E+04 -1.43569E+04 -2.04176E+04 -3.32108E+04
  6.96683E+03 -3.34580E+04  2.83489E+04 -1.19272E+04  2.66350E+04  1.05556E+04  2.87127E+03  1.73489E+04
 -1.28108E+04  7.27928E+03 -9.81224E+03 -7.65690E+03  5.63338E+03 -1.00386E+04  1.75593E+04  6.65639E+03
  1.21636E+04  2.11123E+04 -6.71466E+03  2.25387E+04 -2.11526E+04  9.22253E+03 -2.44761E+04 -6.94095E+03
 -1.55020E+04 -1.62710E+04 -4.83249E+03 -1.58573E+04  3.45991E+03 -1.34572E+04  1.17362E+04 -1.29731E+04
  2.02086E+04 -1.16862E+04  2.65420E+04  9.76236E+02  2.05441E+04  1.56515E+04  4.19547E+03  3.17276E+04
 -1.55644E+04  2.70442E+04 -2.53709E+04  9.11305E+03 -1.91699E+04 -1.06133E+04 -4.34599E+03 -1.44737E+04
  2.70510E+03 -4.68560E+03 -2.12835E+03  4.89400E+03 -1.22463E+04  4.76891E+03 -1.22205E+04 -4.77684E+03
 -8.55406E+03 -1.47403E+04  4.39291E+03 -1.83673E+04  1.17188E+04 -1.37539E+04  1.43027E+04 -1.43372E+03
  8.36145E+03  1.00096E+04 -1.08189E+03  1.50018E+04 -9.78980E+03  8.01253E+03 -1.44965E+04 -3.70086E+03
 -1.12582E+04 -1.40758E+04 -1.57789E+03 -1.80215E+04  7.86967E+03 -1.39621E+04  1.53136E+04 -6.59999E+03
  1.40728E+04  9.77918E+02  9.38226E+03  3.61493E+03  4.50332E+03  6.75666E+02  7.64495E+03 -1.38583E+03
  1.29279E+04  2.27689E+03  1.36938E+04  1.23304E+04  8.63032E+03  2.38288E+04 -3.10845E+03  2.47654E+04
 -1.46553E+04  1.86650E+04 -2.29562E+04  8.77352E+03 -2.31481E+04 -2.07514E+03 -1.99241E+04 -1.32349E+04
 -9.83214E+03 -1.86154E+04  6.66661E+03 -1.77129E+04  1.47179E+04 -1.01446E+04  1.46600E+04  3.08508E+03
  6.01432E+03  9.80012E+03 -6.67009E+03  9.60499E+03 -1.29554E+04  2.55678E+03 -9.99523E+03 -7.43063E+03
 -5.19163E+01 -1.17774E+04  5.57546E+03 -9.41695E+03  7.26963E+03 -1.62566E+03  1.25667E+03  4.42185E+03
 -5.28577E+03  1.43777E+03 -3.10184E+03 -4.26680E+03  1.37104E+03 -9.46319E+03  8.03223E+03 -9.40134E+03
  1.08245E+04 -3.95005E+03  1.10264E+04  2.69033E+03  9.73487E+03  8.56568E+03  5.00864E+03  1.29582E+04
 -1.49099E+03  1.45990E+04 -8.80689E+03  8.77199E+03 -1.01394E+04  2.49929E+03 -7.92440E+03 -1.95000E+03
 -4.67161E+03 -3.23324E+03 -1.01669E+03  1.17601E+03 -1.86710E+03  2.05456E+03 -2.75532E+03  3.45218E+03
 -7.58954E+03 -4.67234E+02 -7.86912E+03 -6.42497E+03 -3.18842E+03 -1.08295E+04  3.44307E+03 -8.07059E+03
  6.47400E+03 -3.96724E+03  5.05701E+03  1.70521E+03  7.71055E+02  3.10399E+03 -3.32898E+03 -3.10421E+02
 -3.10122E+03 -4.90490E+03 -1.02088E+03 -6.39382E+03  3.29986E+03 -7.05879E+03  9.33113E+03 -3.38508E+03
  1.05715E+04  3.25198E+02  8.16180E+03  5.34820E+03  1.70361E+03  7.90049E+03 -5.09113E+03  7.61236E+03
 -6.22891E+03  2.73259E+03 -2.81613E+03 -1.20234E+03  1.65844E+03 -1.97161E+03  4.44768E+03 -1.11978E+03
  3.72736E+03  2.93964E+03  9.30779E+02  6.62025E+03 -3.80758E+03  6.11054E+03 -7.24186E+03  1.86272E+03
 -4.40649E+03 -3.23589E+03  1.20010E+02 -5.87868E+03  3.47919E+03 -2.80669E+03  3.65797E+03  1.12075E+03
  2.90448E+02  3.46107E+03 -3.72704E+03  4.13261E+03 -4.46115E+03  2.36231E+03 -3.53437E+03 -7.97211E+02
 -2.68909E+03 -5.69180E+03  1.06317E+03 -6.22493E+03  5.49806E+03 -3.98184E+03  6.13096E+03  9.04139E+02
  4.84818E+03  4.86522E+03  2.82582E+02  6.88089E+03 -5.15987E+03  3.67862E+03 -5.01346E+03 -7.63859E+02
 -5.38212E+03 -4.65434E+03 -1.28250E+03 -4.58113E+03  2.06632E+03 -4.37544E+03  2.62374E+03 -3.21901E+03
  2.73749E+03  1.42583E+02 -3.63604E+02  1.03060E+03  1.16693E+03  3.09647E+02 -4.01236E+01 -1.96463E+03
  3.09996E+03 -1.53792E+02  5.16492E+03  7.75234E+02  4.68870E+03  2.92882E+03  4.88978E+03  6.09794E+03
 -1.22344E+03  7.73323E+03 -6.69988E+03  5.51034E+03 -8.88159E+03  1.25109E+03 -7.55487E+03 -2.37331E+03
 -3.56818E+03 -5.86953E+03 -4.40179E+02 -4.75406E+03  2.19703E+03 -1.42724E+03  1.58052E+03 -2.69886E+03
  1.28207E+03 -1.37412E+03  1.68286E+03 -2.71540E+03  3.43244E+03 -1.71654E+03  3.25209E+03  1.43987E+03
  3.84288E+03  1.34740E+03  8.54068E+02  3.52034E+03 -1.48161E+03  2.56084E+03 -4.09439E+03  2.58825E+03
 -4.31418E+03 -9.81990E+02 -1.46678E+03 -3.35748E+03  6.40565E+02 -4.80995E+03  3.16417E+03 -4.91063E+03
  4.28992E+03 -3.23113E+03  5.90726E+03  3.76753E+02  4.41694E+03  4.23384E+03  8.34459E+02  5.68713E+03
 -1.70420E+03  5.47428E+03 -3.05829E+03  1.70719E+03 -1.90214E+03 -1.02603E+03 -1.33353E+02 -7.56563E+02
 -5.77366E+02  6.37299E+02 -1.17141E+03  2.17289E+03 -2.09890E+03  1.49109E+03 -3.63912E+03  2.09898E+01
 -4.06508E+02 -3.59957E+03  6.64178E+02 -4.63612E+03  2.75571E+03 -3.85049E+03  3.21468E+03 -8.56788E+02
  3.32371E+03  2.26358E+03  1.35647E+03  2.73235E+03 -2.22888E+02  3.84341E+03 -2.04128E+03  2.22634E+03
 -2.88576E+03  3.45874E+02 -3.30836E+03 -2.01792E+03 -4.13102E+02 -2.80984E+03  2.18580E+03 -2.20431E+03
  2.23355E+03 -1.22766E+03  1.65340E+03 -1.48853E+02  2.71263E+02  1.65432E+03  6.23120E+02  5.12375E+02
  1.56666E+03  6.94924E+01  1.15349E+03  3.76950E+02  3.88314E+02  2.28473E+03  1.19663E+03  1.42725E+03
 -1.22435E+03  2.60032E+03 -2.21859E+03  4.15462E+03 -2.54348E+03  1.00247E+03 -3.86154E+03  7.16230E+02
 -1.12398E+03 -3.17744E+03  5.53387E+02 -4.63310E+03  1.77595E+03 -2.59774E+03  2.39176E+03 -6.12653E+02
  2.21444E+03  1.50521E+03  6.10235E+02  2.48914E+03 -1.31487E+02  1.29042E+03 -5.65146E+02 -8.19389E+01
 -6.06857E+02 -1.15139E+03  1.43094E+03 -1.61708E+03  1.47095E+03 -9.20493E+02  9.99684E+02 -1.14175E+01
  7.61709E+02  1.30884E+02  8.44307E+02 -5.81518E+02 -5.45515E+02  4.85099E+02  1.71463E+03 -4.50516E+02
  1.51370E+02  1.81271E+02  1.83873E+03  9.54220E+02 -4.01127E+01  2.41835E+03 -5.04926E+02  2.40603E+03
 -1.26368E+03  9.44553E+02 -1.25314E+03  7.65234E+01 -1.58355E+03 -8.68363E+02 -1.23004E+02 -6.94256E+02
  5.60646E+02 -9.23507E+02  7.31596E+02 -6.93029E+02  8.66929E+02  8.66028E+02 -7.38932E+02  7.74556E+02
 -1.67357E+03  6.60318E+02 -1.20116E+03 -1.16820E+03 -8.05978E+02 -1.79127E+03  1.17438E+02 -1.71876E+03
  1.52157E+02 -1.78891E+02  9.91020E+02  3.69528E+02  1.70193E+03  2.27157E+02  1.88578E+02  1.10600E+03
 -9.65235E+01  3.85829E+02 -7.37631E+02 -5.29220E+02  8.80462E+02 -1.13236E+03  1.31352E+03 -8.48048E+02
  7.29489E+02  1.10073E+02  2.47787E+03  6.78282E+02  1.03290E+03  1.59113E+03 -3.77679E+02  1.75577E+03
 -6.42628E+02 -2.97823E+02 -1.39158E+03 -2.47984E+02 -5.66513E+02 -1.05499E+03  6.80494E+01 -7.72618E+01
  1.08190E+03 -2.33718E+02  7.69695E+02  5.00653E+02 -7.30782E+01  8.58564E+02 -2.82545E+01  1.05244E+03
 -4.15689E+02  4.25624E+02 -5.60774E+02  2.77041E+02  4.21494E+02  2.44481E+02 -8.05721E+02  9.75159E+02
 -5.32422E+02  9.30480E+02 -1.48174E+03 -2.58666E+01 -1.73426E+03  5.40721E+02 -2.48391E+03 -9.24133E+02
 -1.40399E+03 -1.77438E+03  6.52437E+01 -2.25658E+03  8.56758E+02 -1.78381E+03  2.38967E+03 -8.97771E+02
  2.18799E+03 -2.75279E+02  1.41919E+03  1.17769E+03 -4.69540E+02  1.09193E+03 -6.90511E+02  7.23171E+02
 -9.08175E+02  9.62123E+02 -5.43897E+02 -3.25797E+02 -8.58365E+02  3.73973E+02 -2.68125E+02 -3.89307E+01
 -9.89367E+02  1.73659E+02 -1.05200E+03  1.80249E+02 -3.00940E+02 -8.16464E+02 -3.85720E+02 -6.65530E+02
  1.19677E+03 -6.87146E+02 -1.78828E+02  3.38162E+02  1.44520E+03  1.11302E+03 -5.10330E+02  1.23743E+03
 -1.14400E+03  2.25322E+03 -1.50203E+03  1.00617E+03 -1.24509E+03 -4.98297E+02 -9.41931E+02 -1.05777E+03
 -7.87345E+02 -6.16933E+02 -1.45094E+02 -8.10246E+02  7.89128E+02 -1.04306E+03  3.24455E+02  5.05545E+02
  7.25787E+02  1.85430E+02  1.28743E+02  5.70107E+02 -5.55374E+02 -2.52582E+02 -4.35283E+01  7.41292E+02
  1.60794E+02  2.19340E+02  6.98444E+02  5.15170E+02  6.97980E+01  3.92685E+02  4.95885E+02  3.88065E+02
 -7.27616E+02  3.45670E+02 -2.72923E+02  3.09514E+01 -5.14151E+02 -4.05538E+02  1.10941E+01 -1.05815E+03
  8.10865E+02 -5.26136E+02  7.68435E+01  5.42637E+02  9.57680E+02 -7.27774E+02  3.40662E+02  3.23987E+02
  6.76259E+02  3.87525E+02  3.20819E+02  6.08725E+02 -1.02715E+03  8.26992E+02 -5.56083E+02  5.43542E+02
 -2.53302E+02 -2.16832E+02  9.70092E+01  1.34056E+02 -3.30154E+02  5.36221E+02 -4.18952E+02 -4.73208E+02
 -1.23710E+03  1.92019E+02 -5.16830E+02 -1.09497E+03  7.54841E+02 -1.27301E+03  8.00060E+02 -1.44686E+02
  4.84629E+02  1.92236E+02 -1.20765E+03 -1.88323E+02  3.27065E+02  7.59491E+02 -8.32825E+02  7.59798E+02
