 $NMID ID='MM_0lb_SNR400_13hz_g45_42.RAW', FMTDAT='(8E13.5)'
 TRAMP=1., VOLUME=1. $END
  3.09331E+05  2.74149E+02  3.38311E+05  2.50330E+05  8.51104E+04  3.38342E+05 -1.32674E+05  2.51137E+05
 -1.89582E+05  8.32126E+04 -1.12081E+05 -3.21744E+04  3.55471E+02 -5.07891E+04  5.39287E+04 -6.31964E+02
  3.61922E+04  5.22318E+04 -1.66636E+04  7.54221E+04 -6.10802E+04  6.31411E+04 -8.45256E+04  3.19776E+04
 -8.11125E+04 -1.16052E+04 -5.70195E+04 -5.13599E+04 -1.46804E+04 -6.99323E+04  2.81639E+04 -4.56481E+04
  3.99620E+04  4.25717E+03  1.56752E+04  4.74078E+04 -3.37499E+04  4.75013E+04 -6.69141E+04 -3.89436E+01
 -5.30586E+04 -5.69135E+04 -5.86687E+03 -7.71696E+04  3.42302E+04 -5.56265E+04  4.83029E+04 -1.74318E+04
  4.32917E+04  1.10739E+04  3.14337E+04  2.63438E+04  1.61881E+04  2.95312E+04 -5.72678E+03  2.72798E+04
 -2.20423E+04  1.29120E+04 -1.84325E+04 -5.12410E+03  5.89029E+03 -7.65797E+03  2.22904E+04  1.17910E+04
  6.96023E+03  3.54174E+04 -3.13866E+04  3.57849E+04 -6.45364E+04  2.34146E+03 -5.71967E+04 -4.30448E+04
 -1.22379E+04 -6.33040E+04  3.96457E+04 -4.58845E+04  5.80074E+04 -2.69934E+03  3.44271E+04  3.27933E+04
 -6.44219E+03  3.66941E+04 -3.05091E+04  1.58725E+04 -3.05032E+04 -4.59399E+03 -1.70996E+04 -1.13011E+04
 -8.92995E+03 -1.32816E+04 -5.68808E+02 -1.79095E+04  7.15440E+03 -2.20752E+04  1.56140E+04 -1.30264E+04
  1.10701E+04  5.24286E+03 -8.87102E+03  1.28458E+04 -2.12763E+04 -4.86275E+03 -7.57059E+03 -3.48399E+04
  2.35346E+04 -4.36932E+04  4.78799E+04 -1.92646E+04  4.57339E+04  1.95909E+04  1.55267E+04  4.37518E+04
 -1.57859E+04  3.38043E+04 -2.52026E+04  1.82500E+03 -9.91729E+03 -2.81805E+04  2.13882E+04 -3.39982E+04
  4.14762E+04 -9.18904E+03  3.52592E+04  2.34115E+04  1.85555E+04  4.71917E+04 -7.94705E+03  5.12762E+04
 -3.21404E+04  3.37686E+04 -4.32535E+04  9.90155E+03 -4.33832E+04 -1.60794E+04 -2.38042E+04 -3.80600E+04
  6.72376E+03 -3.82269E+04  3.21573E+04 -1.50474E+04  3.02548E+04  1.11933E+04  4.53048E+03  1.92450E+04
 -1.31459E+04  8.94686E+03 -9.92608E+03 -7.42456E+03  5.55371E+03 -1.07788E+04  1.79324E+04  6.01532E+03
  1.32278E+04  2.19976E+04 -5.73904E+03  2.58158E+04 -2.23997E+04  1.20543E+04 -2.82015E+04 -5.13039E+03
 -2.12597E+04 -1.77510E+04 -8.61493E+03 -2.07241E+04  3.65181E+03 -2.04333E+04  1.58643E+04 -1.81007E+04
  2.65388E+04 -1.28600E+04  3.30829E+04  3.28627E+03  2.44094E+04  2.04135E+04  4.39870E+03  3.65092E+04
 -1.82256E+04  3.02330E+04 -2.86068E+04  1.08331E+04 -2.11732E+04 -1.01612E+04 -4.36976E+03 -1.34501E+04
  1.68995E+03 -2.17879E+03 -5.03035E+03  6.63528E+03 -1.66888E+04  4.82595E+03 -1.67384E+04 -7.19302E+03
 -1.04224E+04 -1.90486E+04  5.48936E+03 -2.36837E+04  1.57237E+04 -1.70680E+04  1.88035E+04 -1.30504E+03
  1.13946E+04  1.31051E+04 -8.81508E+02  1.91717E+04 -1.31755E+04  1.08808E+04 -2.00251E+04 -4.01625E+03
 -1.46389E+04 -1.77264E+04 -2.13966E+03 -2.38442E+04  1.06928E+04 -1.98360E+04  1.88233E+04 -9.42467E+03
  1.82697E+04 -1.10276E+02  1.28523E+04  4.73500E+03  7.19902E+03  1.14489E+03  9.29102E+03 -1.95119E+03
  1.78199E+04  3.10275E+03  2.02610E+04  1.54967E+04  1.31277E+04  3.14440E+04 -2.60915E+03  3.54514E+04
 -2.10868E+04  2.79577E+04 -3.33913E+04  1.45328E+04 -3.45932E+04 -1.96238E+03 -2.89970E+04 -2.00218E+04
 -1.20243E+04 -2.84032E+04  9.89420E+03 -2.55850E+04  2.19246E+04 -1.30133E+04  1.97376E+04  5.21330E+03
  7.59708E+03  1.49606E+04 -9.04050E+03  1.33147E+04 -1.73435E+04  2.93719E+03 -1.26231E+04 -1.01198E+04
 -3.90121E+02 -1.51525E+04  7.87865E+03 -1.12670E+04  1.00037E+04 -1.24478E+03  2.80231E+03  6.69898E+03
 -7.45095E+03  2.44474E+03 -6.19285E+03 -5.46744E+03  5.37674E+01 -1.38145E+04  9.93333E+03 -1.49300E+04
  1.74228E+04 -8.11858E+03  1.87037E+04  2.88765E+03  1.69707E+04  1.36970E+04  7.44575E+03  2.17955E+04
 -3.13786E+03  2.32903E+04 -1.47618E+04  1.44733E+04 -1.64065E+04  3.29834E+03 -1.20753E+04 -3.69170E+03
 -5.12628E+03 -5.32361E+03 -6.91330E+02  1.11251E+03 -1.85890E+03  2.73249E+03 -5.00650E+03  4.73760E+03
 -1.09303E+04  7.69436E+01 -1.14769E+04 -9.55164E+03 -5.56846E+03 -1.54027E+04  5.38442E+03 -1.17659E+04
  1.05384E+04 -4.97310E+03  6.86708E+03  2.94857E+03  3.54254E+02  4.40163E+03 -4.90454E+03 -1.22718E+02
 -5.74538E+03 -7.12926E+03 -5.88503E+02 -1.12178E+04  6.14723E+03 -1.16124E+04  1.53558E+04 -5.76358E+03
  1.74205E+04  1.86246E+03  1.26730E+04  1.04195E+04  2.50185E+03  1.27184E+04 -7.84207E+03  1.14725E+04
 -9.91450E+03  3.94546E+03 -4.64809E+03 -2.05257E+03  1.64522E+03 -3.02525E+03  6.08161E+03 -9.43261E+02
  6.13372E+03  4.69566E+03  1.21710E+03  9.74905E+03 -6.59788E+03  8.37883E+03 -1.10735E+04  2.64038E+03
 -7.68195E+03 -5.73044E+03 -5.40050E+01 -9.60795E+03  5.95109E+03 -4.31111E+03  6.57846E+03  2.23629E+03
  1.78639E+03  5.91038E+03 -5.11917E+03  8.19495E+03 -9.04384E+03  3.62207E+03 -8.79309E+03 -2.86769E+03
 -4.79885E+03 -1.06001E+04  2.61089E+03 -1.23231E+04  1.04139E+04 -7.19840E+03  1.12006E+04  1.92439E+03
  7.39803E+03  8.61653E+03 -1.10249E+03  1.05737E+04 -8.33141E+03  6.61543E+03 -9.14512E+03 -7.10835E+02
 -7.74256E+03 -8.46677E+03 -1.29213E+03 -8.39746E+03  4.49206E+03 -6.77093E+03  4.80995E+03 -3.00452E+03
  3.59814E+03  1.45587E+03 -1.24671E+02  1.67901E+03  7.26291E+02 -1.49917E+03  1.06754E+03 -4.82906E+03
  7.56887E+03 -2.53021E+03  9.97900E+03  1.02091E+03  1.01412E+04  6.55085E+03  7.27863E+03  1.33877E+04
 -3.54073E+03  1.52157E+04 -1.30413E+04  1.15423E+04 -1.73219E+04  2.22467E+03 -1.39043E+04 -5.59457E+03
 -6.62397E+03 -1.07690E+04 -5.63323E+02 -9.39590E+03  3.70260E+03 -4.97253E+03  3.39344E+03 -3.37495E+03
  2.89364E+03 -2.91210E+03  2.69697E+03 -3.08940E+03  4.23108E+03 -2.83397E+03  5.22724E+03 -1.54876E+02
  7.23309E+03  1.50100E+03  2.99818E+03  6.52843E+03 -1.37890E+03  6.72631E+03 -7.23601E+03  5.72246E+03
 -9.60763E+03 -7.80203E+02 -4.64838E+03 -5.90054E+03 -5.83261E+02 -9.78706E+03  5.87932E+03 -1.01587E+04
  1.05639E+04 -6.13722E+03  1.19133E+04  7.35063E+02  8.20563E+03  8.95233E+03  1.09865E+03  1.13165E+04
 -4.82890E+03  9.30672E+03 -5.68996E+03  3.01258E+03 -3.71165E+03 -7.59877E+02 -2.10580E+03 -6.83046E+02
 -6.72345E+02  6.73442E+02 -1.12132E+03  2.46397E+03 -3.76381E+03  1.81485E+03 -6.71219E+03 -1.01830E+03
 -4.79974E+03 -6.74902E+03  2.88283E+02 -9.03722E+03  5.09175E+03 -7.97809E+03  8.32450E+03 -1.95093E+03
  8.43133E+03  4.25288E+03  3.58205E+03  7.74282E+03 -1.55325E+03  9.33232E+03 -6.25512E+03  5.59873E+03
 -8.32143E+03  6.56339E+02 -6.81736E+03 -5.22188E+03 -3.99195E+02 -7.53934E+03  3.38691E+03 -5.48161E+03
  5.75618E+03 -1.87316E+03  3.88578E+03  1.92100E+03  1.55472E+03  3.31180E+03  1.01913E+03  1.25144E+03
  2.14370E+03  1.11324E+03  2.18181E+03  1.36852E+03  2.83104E+03  3.85926E+03  2.06363E+03  4.58211E+03
 -1.99573E+03  6.88401E+03 -5.87128E+03  7.48395E+03 -8.37231E+03  2.15010E+03 -8.79790E+03 -3.41796E+03
 -3.94965E+03 -8.80706E+03  1.53067E+03 -9.23064E+03  4.69855E+03 -5.87984E+03  7.28999E+03 -1.87328E+03
  5.65591E+03  3.32995E+03  1.03258E+03  4.33337E+03 -2.35562E+03  2.82676E+03 -3.70337E+03 -3.45803E+02
 -1.61742E+03 -3.81463E+03  1.88042E+03 -4.22248E+03  3.22192E+03 -2.03288E+03  3.10226E+03  3.29749E+02
  2.54003E+03  1.70277E+03  9.30986E+02  9.22927E+02 -1.07006E+03  1.11343E+03  8.54449E+02 -3.37362E+02
  1.14710E+03 -1.33798E+03  3.94057E+03  2.21615E+03  1.16196E+03  4.83476E+03 -9.22538E+02  5.92943E+03
 -3.77735E+03  4.03364E+03 -5.84475E+03  1.04274E+03 -5.14058E+03 -2.16618E+03 -1.84275E+03 -2.95987E+03
  5.74101E+02 -2.87577E+03  2.99533E+03 -2.04780E+03  1.56839E+03  1.85560E+03 -9.77274E+01  3.58943E+03
 -2.75731E+03  1.10554E+03 -3.83095E+03 -2.45586E+03 -1.82559E+03 -4.66513E+03  3.07709E+02 -4.58493E+03
  2.11173E+03 -2.18891E+03  3.03081E+03  3.94782E+02  3.23718E+03  1.10824E+03  6.10759E+02  2.06884E+03
 -1.24623E+03  6.06982E+02 -2.13707E+03 -1.58258E+03  1.05022E+02 -2.87232E+03  3.71166E+03 -2.82875E+03
  5.25059E+03  3.01840E+02  5.26741E+03  2.94786E+03  1.32804E+03  5.22207E+03 -1.73323E+03  4.51120E+03
 -4.22948E+03  2.26466E+03 -4.23545E+03 -3.59049E+02 -2.18331E+03 -2.95508E+03  9.71459E+02 -2.54231E+03
  3.42043E+03 -1.85529E+03  2.80455E+03  1.28349E+03  1.03490E+03  2.81632E+03 -2.75735E+02  2.73430E+03
 -1.36520E+03  2.00089E+03 -1.16937E+03  1.97724E+02  1.54036E+02  2.29163E+02 -9.88390E+02  1.16210E+03
 -1.17910E+03  2.16922E+03 -4.49817E+03  2.03054E+03 -4.86406E+03  8.35369E+02 -5.71619E+03 -3.28640E+03
 -2.47907E+03 -6.21438E+03  6.35859E+02 -6.88633E+03  4.54320E+03 -6.49110E+03  6.84420E+03 -2.23233E+03
  6.11717E+03  1.30594E+03  4.51183E+03  3.91609E+03 -1.39240E+02  4.66536E+03 -1.80829E+03  4.14489E+03
 -3.02743E+03  1.45361E+03 -2.14112E+03 -4.99470E+02 -1.19888E+03 -3.68434E+02 -6.63981E+02  3.21988E+02
 -1.36220E+03  3.36504E+01 -9.90298E+02  4.44474E+02 -3.57732E+02 -1.43911E+03  4.63869E+02 -1.90294E+03
  2.79569E+03 -1.78485E+03  2.60909E+03  2.68125E+02  3.81467E+03  2.28367E+03  6.22500E+02  4.23773E+03
 -1.85499E+03  4.68875E+03 -5.24425E+03  4.17969E+03 -5.74050E+03 -2.64389E+02 -4.06242E+03 -3.82428E+03
 -2.20726E+03 -4.45751E+03  9.59466E+02 -4.23830E+03  2.46682E+03 -2.57203E+03  2.67839E+03  6.37569E+02
  2.09930E+03  1.77653E+03  3.89755E+02  1.02389E+03 -1.27756E+03 -1.39172E+02 -7.83922E+01 -1.42729E+03
  1.57092E+03 -8.99511E+01  2.16598E+03  5.23675E+02  1.00985E+03  1.06635E+03  8.82352E+00  2.21093E+03
 -2.16468E+03  2.26297E+03 -2.52161E+03  4.88218E+00 -3.52996E+03 -1.37943E+03 -1.09603E+02 -3.83956E+03
  2.50113E+03 -3.18423E+03  2.52948E+03 -1.11473E+03  2.59398E+03  4.10304E+02  1.75829E+03  2.57812E+03
  7.91353E+02  2.76711E+03 -1.34471E+03  2.33948E+03 -1.70881E+03  2.05959E+03 -6.39686E+02  3.30517E+02
 -6.11531E+02 -4.65055E+01 -1.37216E+03  2.63294E+02 -1.94575E+03  4.22218E+02 -2.27120E+03 -5.65516E+02
 -2.44137E+03 -1.27151E+03 -7.35620E+02 -2.99965E+03  1.44649E+03 -3.36235E+03  2.04360E+03 -1.17766E+03
  3.28282E+03  3.56653E+02  1.63567E+03  1.48094E+03 -1.63404E+02  2.91308E+03 -2.19871E+03  1.69829E+03
