 $NMID ID='MM_0lb_SNR400_19hz_g45_24.RAW', FMTDAT='(8E13.5)'
 TRAMP=1., VOLUME=1. $END
  3.09133E+05  8.32978E+02  3.37340E+05  2.50501E+05  8.41654E+04  3.37635E+05 -1.32697E+05  2.49668E+05
 -1.88961E+05  8.26621E+04 -1.10613E+05 -3.30936E+04  1.05618E+03 -5.00103E+04  5.37205E+04 -2.13772E+01
  3.48247E+04  5.27562E+04 -1.77365E+04  7.45907E+04 -6.05130E+04  6.26445E+04 -8.23672E+04  3.15410E+04
 -7.94581E+04 -1.04625E+04 -5.56927E+04 -4.98815E+04 -1.54970E+04 -6.77763E+04  2.65481E+04 -4.47553E+04
  3.86460E+04  4.08472E+03  1.50753E+04  4.69860E+04 -3.43032E+04  4.61585E+04 -6.55275E+04 -4.02085E+02
 -5.11551E+04 -5.59267E+04 -6.48885E+03 -7.48938E+04  3.30967E+04 -5.35277E+04  4.54795E+04 -1.60228E+04
  4.15601E+04  1.08870E+04  3.04776E+04  2.43120E+04  1.56456E+04  2.82103E+04 -4.70425E+03  2.59448E+04
 -2.12502E+04  1.29541E+04 -1.89628E+04 -4.27513E+03  4.50141E+03 -7.98157E+03  2.14376E+04  1.05969E+04
  7.35642E+03  3.26962E+04 -3.00982E+04  3.44016E+04 -6.05140E+04  1.94704E+03 -5.47941E+04 -4.13279E+04
 -1.24208E+04 -6.07995E+04  3.79519E+04 -4.30287E+04  5.51069E+04 -1.89282E+03  3.18911E+04  2.97290E+04
 -6.81966E+03  3.24057E+04 -2.78425E+04  1.26692E+04 -2.73710E+04 -5.32447E+03 -1.47616E+04 -1.03274E+04
 -7.12147E+03 -1.11921E+04 -1.17694E+03 -1.62657E+04  6.51618E+03 -2.23266E+04  1.48374E+04 -1.41225E+04
  1.21213E+04  4.19837E+03 -5.80056E+03  1.34487E+04 -1.87342E+04 -2.10115E+03 -8.14024E+03 -2.96994E+04
  2.08131E+04 -4.01559E+04  4.38378E+04 -1.83281E+04  4.15189E+04  1.78733E+04  1.42498E+04  4.09221E+04
 -1.52216E+04  3.01993E+04 -2.27820E+04  1.17946E+03 -8.15796E+03 -2.65265E+04  2.05329E+04 -3.08807E+04
  3.82373E+04 -7.05763E+03  3.04383E+04  2.23871E+04  1.51431E+04  4.12460E+04 -7.68808E+03  4.42850E+04
 -2.79621E+04  2.88276E+04 -3.65462E+04  7.96807E+03 -3.76448E+04 -1.47481E+04 -2.07874E+04 -3.40410E+04
  6.81093E+03 -3.36449E+04  2.92932E+04 -1.26562E+04  2.59229E+04  1.03378E+04  2.61954E+03  1.71628E+04
 -1.32151E+04  7.29593E+03 -9.47236E+03 -7.79058E+03  5.73565E+03 -9.71835E+03  1.69715E+04  6.80133E+03
  1.17531E+04  2.11802E+04 -6.68167E+03  2.31602E+04 -2.13866E+04  8.84504E+03 -2.40363E+04 -6.60010E+03
 -1.54610E+04 -1.56863E+04 -5.87943E+03 -1.62731E+04  3.89327E+03 -1.32474E+04  1.18213E+04 -1.38377E+04
  2.05510E+04 -1.11339E+04  2.73296E+04  8.93428E+02  2.14317E+04  1.61949E+04  4.26685E+03  3.18750E+04
 -1.61688E+04  2.75307E+04 -2.54534E+04  9.42889E+03 -1.99647E+04 -1.04336E+04 -4.23827E+03 -1.41413E+04
  2.95129E+03 -3.96157E+03 -2.02895E+03  5.50665E+03 -1.23519E+04  5.15990E+03 -1.33079E+04 -4.73614E+03
 -8.72267E+03 -1.52557E+04  4.12496E+03 -1.87425E+04  1.23734E+04 -1.34831E+04  1.39559E+04 -1.24571E+03
  7.60220E+03  1.03897E+04 -7.06890E+02  1.51174E+04 -9.70202E+03  8.74686E+03 -1.44111E+04 -2.90494E+03
 -1.08236E+04 -1.37385E+04 -1.42183E+03 -1.86896E+04  8.62881E+03 -1.45191E+04  1.60341E+04 -7.17357E+03
  1.43927E+04  7.32228E+02  1.02144E+04  3.81333E+03  5.28821E+03  4.45790E+02  7.88909E+03 -1.50539E+03
  1.36485E+04  2.82397E+03  1.45042E+04  1.24754E+04  8.73952E+03  2.39855E+04 -3.29139E+03  2.52341E+04
 -1.49777E+04  1.97294E+04 -2.34634E+04  9.55137E+03 -2.38782E+04 -1.74174E+03 -2.08664E+04 -1.35480E+04
 -9.69440E+03 -1.94173E+04  6.88387E+03 -1.82746E+04  1.64931E+04 -1.04718E+04  1.52934E+04  3.44977E+03
  6.06743E+03  1.12449E+04 -6.25749E+03  1.04128E+04 -1.33988E+04  2.65384E+03 -1.00444E+04 -7.66172E+03
 -4.45734E+01 -1.24956E+04  5.81013E+03 -8.80323E+03  7.59116E+03 -1.23071E+03  1.53411E+03  4.95200E+03
 -5.28698E+03  7.92853E+02 -3.13771E+03 -4.56926E+03  7.61718E+02 -9.27185E+03  8.05348E+03 -9.78950E+03
  1.15323E+04 -4.39424E+03  1.11943E+04  2.42316E+03  9.57371E+03  8.67411E+03  4.47792E+03  1.29028E+04
 -1.66650E+03  1.50980E+04 -9.02750E+03  9.98982E+03 -1.03726E+04  2.92224E+03 -7.82370E+03 -1.66483E+03
 -4.46742E+03 -3.29974E+03 -7.09615E+02  1.51775E+03 -1.92597E+03  1.99080E+03 -3.48428E+03  3.57272E+03
 -7.76286E+03 -5.31188E+02 -8.88002E+03 -6.85572E+03 -3.15870E+03 -1.11853E+04  2.96112E+03 -8.82358E+03
  6.87836E+03 -3.67031E+03  5.67183E+03  2.38757E+03  2.29515E+02  2.53338E+03 -3.03022E+03  1.73027E+02
 -2.85420E+03 -4.82173E+03 -9.58000E+02 -7.16930E+03  3.70232E+03 -7.49979E+03  9.49665E+03 -3.80024E+03
  1.11756E+04  6.71029E+02  8.40370E+03  5.75542E+03  1.47426E+03  8.10310E+03 -4.66615E+03  7.95005E+03
 -7.32935E+03  2.83442E+03 -3.02083E+03 -1.15959E+03  1.17112E+03 -2.09759E+03  4.75324E+03 -7.52618E+02
  3.77631E+03  3.11363E+03  1.68942E+03  5.63640E+03 -4.41806E+03  5.99826E+03 -7.48061E+03  1.74850E+03
 -4.14401E+03 -2.97427E+03  1.25275E+03 -6.88560E+03  3.24257E+03 -2.97571E+03  3.39392E+03  6.86178E+02
  4.74241E+02  2.81054E+03 -4.47668E+03  4.59138E+03 -4.96374E+03  2.81220E+03 -4.01759E+03 -8.64479E+02
 -2.31907E+03 -5.42366E+03  9.23063E+02 -6.76932E+03  5.30091E+03 -4.67168E+03  5.60637E+03  1.67720E+03
  4.82283E+03  4.52275E+03  8.14569E+01  7.09891E+03 -4.56885E+03  3.85244E+03 -4.40930E+03 -7.97630E+02
 -5.18196E+03 -4.93321E+03 -1.45547E+03 -4.73765E+03  2.12341E+03 -4.00570E+03  2.67287E+03 -2.59514E+03
  2.96115E+03 -1.33819E+02  9.53595E+00  1.37910E+03  1.05958E+03  6.55043E+02  1.32664E+02 -1.65945E+03
  3.97557E+03 -5.26818E+02  4.53595E+03  4.97511E+02  5.02010E+03  2.24219E+03  4.69461E+03  6.93893E+03
 -9.36927E+02  7.78263E+03 -7.31572E+03  6.07695E+03 -9.50493E+03  8.52876E+02 -7.22665E+03 -2.06240E+03
 -3.31697E+03 -6.45225E+03 -7.75153E+02 -5.08845E+03  1.71726E+03 -1.48183E+03  1.44973E+03 -2.25722E+03
  1.97759E+03 -1.67297E+03  1.97221E+03 -1.69422E+03  3.81228E+03 -1.39463E+03  3.20982E+03  2.68968E+02
  3.91452E+03  1.04360E+03  1.06725E+03  3.30157E+03 -1.55346E+03  2.27789E+03 -4.52323E+03  2.17031E+03
 -5.07876E+03 -8.62127E+02 -1.62883E+03 -2.52938E+03  4.00586E+02 -4.80652E+03  3.19695E+03 -4.62927E+03
  4.96236E+03 -3.00497E+03  5.94068E+03  6.06576E+00  4.25271E+03  3.93677E+03  6.37338E+02  5.29575E+03
 -1.60512E+03  5.38588E+03 -3.49834E+03  1.69358E+03 -1.64568E+03 -6.30621E+02 -7.01999E+02 -7.17738E+02
 -7.88097E+02  1.01399E+03 -5.22596E+02  1.88604E+03 -2.27476E+03  8.82921E+02 -4.02058E+03 -2.35179E+02
 -1.01489E+03 -4.31106E+03  6.84360E+02 -4.68359E+03  2.32628E+03 -4.31116E+03  3.69810E+03 -1.26007E+03
  3.73472E+03  2.43377E+03  1.43317E+03  2.62751E+03 -4.47588E+02  4.36215E+03 -2.53471E+03  2.07821E+03
 -3.22284E+03  4.48738E+02 -3.59424E+03 -2.28011E+03 -8.32129E+01 -3.03788E+03  1.55062E+03 -2.23921E+03
  2.24667E+03 -7.98910E+02  1.97275E+03  1.62429E+02  6.12099E+02  1.91978E+03  1.37021E+03  4.02449E+01
  1.51007E+03  1.12664E+02  5.53073E+02  9.63074E+02  6.52173E+02  2.02178E+03  1.46936E+03  1.85858E+03
 -1.23287E+03  2.35996E+03 -2.45282E+03  4.12540E+03 -2.69987E+03  7.52200E+02 -3.57579E+03 -3.52948E+02
 -1.91068E+03 -3.14013E+03  6.24070E+02 -4.66902E+03  1.73550E+03 -2.03518E+03  2.92923E+03 -5.43534E+02
  2.74606E+03  2.15497E+03  1.77927E+02  2.24900E+03 -7.30905E+02  1.23272E+03 -1.17744E+03 -3.61817E+02
 -2.59942E+02 -2.11234E+03  1.02860E+03 -1.60805E+03  1.24284E+03 -1.03353E+03  1.04431E+03  3.80417E+02
  5.05407E+02  1.49296E+02  5.82270E+02  1.63980E+02 -4.86891E+02  1.49791E+03  1.13844E+03  2.51592E+02
  2.83562E+02 -2.97117E+01  1.67900E+03 -2.65229E+01  5.21959E+02  1.92165E+03 -5.47740E+02  2.65140E+03
 -1.54729E+03  6.98191E+02 -1.84160E+03  5.60041E+02 -2.76211E+03 -2.98820E+02  2.46379E+01 -4.68175E+02
  8.06221E+02 -1.27727E+03  6.37467E+02 -7.50756E+02  6.86415E+02  1.61289E+03 -2.73358E+02  7.19445E+02
 -1.51786E+03  6.37477E+02 -1.07180E+03 -9.10942E+02 -7.26443E+02 -1.83529E+03  3.29755E+02 -1.34720E+03
  2.87259E+01 -1.46636E+02  9.48780E+02  2.40169E+02  1.02810E+03  8.72381E+01  3.07646E+02  1.28961E+03
 -6.95814E+02 -6.65179E+01 -1.15143E+03  3.60939E+02  3.52257E+02  7.70493E+01  7.65949E+02 -8.37763E+02
  9.55808E+02  3.75495E+02  3.07721E+03  1.41476E+02  1.24494E+03  1.80331E+03 -1.35392E+02  2.04405E+03
 -5.77840E+02  2.86817E+02 -1.44989E+03  6.25344E+01 -4.56326E+01 -6.83487E+02  6.36225E+02 -6.38380E+02
  1.44408E+03 -5.21646E+02  7.04269E+02  1.10963E+03  1.00502E+02  1.09492E+03  2.97697E+02  1.19632E+03
 -3.25936E+02  1.28491E+03 -4.54926E+02  6.32737E+02  2.17579E+02  8.30502E+02 -8.32206E+02  1.27123E+02
 -5.68048E+02  8.96079E+02 -1.79300E+03  4.75059E+02 -1.42398E+03  1.19833E+02 -2.26361E+03 -1.07892E+03
 -8.27873E+02 -1.82446E+03  5.14801E+02 -2.29998E+03  1.27361E+03 -2.57070E+03  2.05345E+03 -1.13245E+03
  2.38033E+03  1.56908E+02  1.15457E+03  1.86326E+03 -3.93740E+02  3.31945E+02 -6.36387E+02  7.89226E+02
 -7.69626E+02  6.31612E+02 -4.59988E+02  2.66459E+01 -5.49600E+02  1.31540E+02 -5.76123E+02 -3.64525E+02
 -9.69317E+02 -1.18889E+02 -4.81921E+02  1.99222E+02  2.56657E+02 -4.97529E+02 -2.37420E+01 -8.19161E+02
  1.71947E+03 -1.00978E+03  1.23924E+02  5.43057E+01  1.20647E+03  3.76544E+02 -3.57962E+02  1.19772E+03
 -5.52017E+02  2.65415E+03 -9.09011E+02  1.48028E+03 -1.72874E+03  1.29457E+02 -1.02648E+03 -1.28696E+03
 -3.05932E+02 -1.43068E+03  3.20574E+02 -9.54015E+02  6.72675E+01 -1.79912E+02  2.59391E+02  2.06078E+02
  1.97306E+02  1.50072E+02  3.16406E+01  2.09220E+02  2.36111E+01 -1.21153E+02 -3.28009E+02  1.03476E+02
  3.92105E+02 -1.90573E+02  1.02512E+02  5.44904E+02 -1.65394E+02  7.58721E+02  7.22812E+02  2.00568E+02
 -7.79846E+02  3.53903E+02 -7.39529E+02  5.44062E+02 -1.01044E+03 -3.15027E+02 -2.90468E+01 -1.07827E+03
  3.15916E+02 -7.48391E+01  7.30347E+02 -4.75382E+02  9.62825E+02 -4.83645E+02  6.24565E+02  7.62541E+02
  4.23414E+02  1.88983E+02  2.66185E+01  7.55862E+02 -1.20493E+02  2.31979E+02 -4.55856E+02  3.83268E+02
 -1.59791E+02 -1.09892E+02 -6.86035E+02 -1.04662E+02 -1.09850E+03  2.50108E+02 -1.04277E+03 -1.07867E+01
 -7.47311E+02  1.52993E+02 -6.16751E+02 -1.23254E+03  4.88613E+02 -9.86880E+02  7.66997E+02 -1.08482E+02
  6.67994E+02  5.51365E+01 -2.19832E+02  2.23083E+02 -2.41727E+02  7.12823E+02  8.93785E+01  1.28240E+03
