 $NMID ID='MM_0lb_SNR400_14hz_g60_55.RAW', FMTDAT='(8E13.5)'
 TRAMP=1., VOLUME=1. $END
  3.10055E+05  1.68707E+02  3.37978E+05  2.50938E+05  8.39801E+04  3.37781E+05 -1.32812E+05  2.50988E+05
 -1.90513E+05  8.37162E+04 -1.12495E+05 -3.30491E+04  3.97268E+02 -5.04918E+04  5.37121E+04 -1.09746E+02
  3.59056E+04  5.23623E+04 -1.65792E+04  7.56171E+04 -6.13448E+04  6.41930E+04 -8.46644E+04  3.24763E+04
 -8.13182E+04 -1.13510E+04 -5.78121E+04 -5.18343E+04 -1.50040E+04 -6.99880E+04  2.77291E+04 -4.65551E+04
  4.03325E+04  4.08855E+03  1.60680E+04  4.76505E+04 -3.42937E+04  4.79222E+04 -6.69153E+04 -5.01057E+02
 -5.38544E+04 -5.72930E+04 -7.30735E+03 -7.75358E+04  3.46813E+04 -5.60255E+04  4.85532E+04 -1.69324E+04
  4.39765E+04  1.17722E+04  3.26114E+04  2.65098E+04  1.63977E+04  2.99102E+04 -5.48440E+03  2.74088E+04
 -2.23128E+04  1.16934E+04 -1.86414E+04 -5.12430E+03  6.32831E+03 -7.29608E+03  2.27406E+04  1.27186E+04
  6.81067E+03  3.64718E+04 -3.23779E+04  3.60303E+04 -6.42251E+04  2.22010E+03 -5.73427E+04 -4.31366E+04
 -1.23339E+04 -6.37878E+04  4.02723E+04 -4.58757E+04  5.85063E+04 -2.55081E+03  3.50149E+04  3.36813E+04
 -5.80061E+03  3.75511E+04 -3.08076E+04  1.69594E+04 -3.09657E+04 -3.96683E+03 -1.80057E+04 -1.13377E+04
 -9.03880E+03 -1.35335E+04 -1.02411E+03 -1.88975E+04  7.42886E+03 -2.26671E+04  1.60930E+04 -1.30592E+04
  1.16565E+04  5.19661E+03 -9.22224E+03  1.29661E+04 -2.19112E+04 -4.74694E+03 -8.52570E+03 -3.50784E+04
  2.36173E+04 -4.44936E+04  4.91709E+04 -2.05893E+04  4.60085E+04  2.02847E+04  1.60293E+04  4.57245E+04
 -1.58711E+04  3.43109E+04 -2.59575E+04  1.89928E+03 -1.04319E+04 -2.85242E+04  2.12011E+04 -3.50562E+04
  4.20471E+04 -9.77299E+03  3.68766E+04  2.50835E+04  1.96270E+04  4.77306E+04 -8.02728E+03  5.25572E+04
 -3.24706E+04  3.51729E+04 -4.44766E+04  1.01736E+04 -4.40283E+04 -1.69834E+04 -2.44669E+04 -3.92495E+04
  7.69969E+03 -3.94078E+04  3.24772E+04 -1.60442E+04  3.00590E+04  1.09719E+04  4.87366E+03  1.95178E+04
 -1.39389E+04  9.03731E+03 -1.03004E+04 -7.35422E+03  5.40444E+03 -1.07875E+04  1.87213E+04  6.15739E+03
  1.40844E+04  2.21924E+04 -6.07689E+03  2.55436E+04 -2.25871E+04  1.21248E+04 -2.85376E+04 -4.24096E+03
 -2.22546E+04 -1.82668E+04 -9.03145E+03 -2.20202E+04  4.61902E+03 -2.05002E+04  1.66562E+04 -1.95849E+04
  2.74093E+04 -1.35428E+04  3.43167E+04  3.28230E+03  2.46321E+04  2.19396E+04  4.16295E+03  3.70084E+04
 -1.85323E+04  3.12988E+04 -2.83820E+04  1.03101E+04 -2.19759E+04 -1.02437E+04 -5.07848E+03 -1.35281E+04
  1.36579E+03 -2.68450E+03 -5.14688E+03  7.70096E+03 -1.74117E+04  5.49565E+03 -1.78453E+04 -7.45921E+03
 -1.10730E+04 -2.05063E+04  5.90646E+03 -2.48839E+04  1.62521E+04 -1.66523E+04  1.93979E+04 -1.70357E+03
  1.20086E+04  1.41292E+04 -1.13491E+03  1.98353E+04 -1.46682E+04  1.13303E+04 -2.00986E+04 -4.43703E+03
 -1.57468E+04 -1.83502E+04 -2.01119E+03 -2.42355E+04  1.12761E+04 -2.01679E+04  1.97918E+04 -1.01008E+04
  1.89370E+04  5.22040E+02  1.35264E+04  4.59467E+03  7.70845E+03  7.98168E+02  1.03697E+04 -1.79715E+03
  1.88820E+04  2.96396E+03  2.13158E+04  1.57570E+04  1.40388E+04  3.25085E+04 -3.17047E+03  3.68577E+04
 -2.07241E+04  2.97476E+04 -3.45758E+04  1.50956E+04 -3.61894E+04 -3.34998E+03 -3.01608E+04 -2.09761E+04
 -1.26065E+04 -3.03230E+04  1.06946E+04 -2.62362E+04  2.29842E+04 -1.34471E+04  2.03849E+04  5.72278E+03
  7.35411E+03  1.58107E+04 -9.33612E+03  1.32644E+04 -1.74926E+04  2.36648E+03 -1.36129E+04 -1.03781E+04
  5.10260E+01 -1.63863E+04  9.20175E+03 -1.17720E+04  1.08254E+04 -1.25905E+03  2.56375E+03  7.22767E+03
 -6.85419E+03  2.43633E+03 -6.63985E+03 -5.76544E+03 -8.11866E+02 -1.45402E+04  9.60178E+03 -1.54774E+04
  1.78081E+04 -8.45944E+03  1.97528E+04  2.55881E+03  1.72738E+04  1.38031E+04  8.42352E+03  2.21841E+04
 -3.99427E+03  2.41013E+04 -1.53943E+04  1.53706E+04 -1.77852E+04  3.04981E+03 -1.14065E+04 -4.00467E+03
 -5.59074E+03 -5.23874E+03 -4.84406E+02  6.06497E+02 -2.57500E+03  2.83369E+03 -5.46175E+03  4.88318E+03
 -1.11301E+04 -1.63871E+03 -1.21210E+04 -9.93910E+03 -4.98623E+03 -1.54460E+04  4.55317E+03 -1.20587E+04
  1.00124E+04 -5.11288E+03  7.49077E+03  2.80158E+03  2.85077E+02  5.06022E+03 -6.47574E+03  1.72649E+01
 -5.23395E+03 -7.44818E+03 -1.23092E+03 -1.07047E+04  6.35268E+03 -1.22189E+04  1.52753E+04 -6.42108E+03
  1.82542E+04  1.67554E+03  1.37695E+04  1.08605E+04  3.13503E+03  1.39730E+04 -7.72425E+03  1.21380E+04
 -1.00044E+04  4.32503E+03 -4.82558E+03 -2.40076E+03  1.94748E+03 -3.86408E+03  6.80755E+03 -1.19797E+03
  5.85494E+03  4.90842E+03  1.16304E+03  9.44375E+03 -7.20410E+03  9.15798E+03 -1.14588E+04  2.29362E+03
 -8.08582E+03 -6.31518E+03  3.81163E+02 -1.01398E+04  6.45769E+03 -5.89290E+03  6.83133E+03  1.86380E+03
  1.29035E+03  6.74063E+03 -6.42445E+03  8.46739E+03 -9.41302E+03  3.16687E+03 -8.92112E+03 -2.48456E+03
 -5.36632E+03 -1.09756E+04  2.86170E+03 -1.25248E+04  9.81053E+03 -7.93987E+03  1.10529E+04  2.39518E+03
  6.91259E+03  8.92350E+03 -7.66577E+02  1.08074E+04 -8.71295E+03  6.35368E+03 -8.81520E+03 -4.96831E+02
 -8.12390E+03 -7.49311E+03 -1.20677E+03 -7.91204E+03  4.01083E+03 -7.69384E+03  5.69190E+03 -3.27160E+03
  4.20760E+03  6.56118E+02 -2.78367E+02  2.13118E+03  4.63536E+02 -2.29237E+03  1.42176E+03 -4.91367E+03
  7.12349E+03 -2.17628E+03  1.07206E+04  8.61398E+02  1.04411E+04  6.67898E+03  7.60060E+03  1.32880E+04
 -2.74468E+03  1.55331E+04 -1.33040E+04  1.15522E+04 -1.70401E+04  2.58112E+03 -1.37774E+04 -5.17813E+03
 -7.31705E+03 -1.12881E+04 -6.56270E+02 -1.01765E+04  2.84529E+03 -4.53304E+03  3.42569E+03 -3.95854E+03
  2.64787E+03 -2.07614E+03  3.09601E+03 -2.90247E+03  3.96497E+03 -2.73265E+03  5.73597E+03  1.98944E+02
  7.38815E+03  1.82945E+03  2.95043E+03  6.40075E+03 -1.70524E+03  6.70951E+03 -7.90458E+03  5.73142E+03
 -9.09815E+03 -1.53937E+03 -5.42192E+03 -6.43024E+03 -4.48451E+02 -9.70155E+03  5.77106E+03 -1.06334E+04
  1.02288E+04 -5.50872E+03  1.29230E+04  1.17378E+03  7.68524E+03  8.57356E+03  1.21637E+03  1.13095E+04
 -4.82023E+03  9.03216E+03 -6.45294E+03  2.91899E+03 -4.23068E+03 -1.64348E+03 -1.38375E+03 -7.42861E+02
 -7.32710E+02  5.43273E+01 -1.64489E+03  1.68654E+03 -4.00177E+03  1.46873E+03 -6.78780E+03 -1.31620E+03
 -3.65254E+03 -6.89290E+03  1.20570E+03 -8.75203E+03  5.83503E+03 -7.56495E+03  8.96249E+03 -2.56430E+03
  8.31004E+03  4.53839E+03  4.24533E+03  7.01749E+03 -2.14693E+03  8.45296E+03 -5.50247E+03  5.05146E+03
 -7.93623E+03  1.04340E+03 -6.80016E+03 -5.34479E+03 -8.17826E+02 -7.51156E+03  3.42995E+03 -5.17535E+03
  5.83277E+03 -1.71716E+03  4.17341E+03  1.25865E+03  1.16855E+03  2.71543E+03  1.23616E+03  8.94881E+02
  2.40396E+03  5.15061E+02  2.27315E+03  1.86602E+03  2.69830E+03  3.05120E+03  1.99624E+03  4.14925E+03
 -1.83213E+03  5.91197E+03 -5.14327E+03  6.52319E+03 -7.96510E+03  2.15357E+03 -8.57726E+03 -2.81626E+03
 -3.29350E+03 -7.78824E+03  1.52108E+03 -8.96585E+03  4.69560E+03 -6.25261E+03  6.16007E+03 -1.17798E+03
  4.93272E+03  3.81393E+03  6.75892E+02  4.85732E+03 -2.62811E+03  2.44510E+03 -3.28560E+03  1.47234E+02
 -1.56604E+03 -3.57601E+03  2.38085E+03 -3.56323E+03  3.73601E+03 -2.46517E+03  2.86360E+03  4.16127E+02
  1.28040E+03  1.52567E+03  1.17017E+03  1.28804E+03 -4.42553E+02  1.24784E+03  1.37484E+03  7.08315E+02
  1.25883E+03 -9.44513E+02  3.38978E+03  1.89348E+03  2.09584E+03  4.48025E+03 -8.53564E+02  5.53068E+03
 -3.77576E+03  3.28538E+03 -5.38458E+03  1.10909E+03 -4.61903E+03 -1.63962E+03 -1.46579E+03 -2.90890E+03
  3.64452E+02 -3.06024E+03  2.36793E+03 -2.24309E+03  1.40651E+03  1.93250E+03 -6.57726E+02  2.45834E+03
 -2.94259E+03  1.01898E+03 -3.67839E+03 -2.81110E+03 -1.43503E+03 -4.03524E+03 -2.27351E+01 -3.38082E+03
  2.63181E+03 -2.19889E+03  2.61950E+03  1.88803E+02  2.46044E+03  7.57261E+02  7.97566E+01  2.62753E+03
 -1.42351E+03  2.27237E+02 -1.70799E+03 -2.54937E+02  8.52952E+02 -2.29940E+03  4.13204E+03 -1.83493E+03
  4.11416E+03  5.17898E+02  4.96136E+03  2.82027E+03  1.90663E+03  4.70229E+03 -9.99006E+02  4.44169E+03
 -3.72233E+03  1.58698E+03 -3.96458E+03  1.29219E+02 -2.43590E+03 -2.76249E+03  7.62798E+02 -3.12031E+03
  3.28759E+03 -1.27998E+03  2.16381E+03  1.21458E+03  3.80386E+02  2.68055E+03 -3.87241E+02  2.49397E+03
 -1.10277E+03  1.84374E+03 -1.36407E+03  2.61023E+02 -9.23700E+02  2.78595E+02 -1.07680E+03  6.34661E+02
 -1.55777E+03  1.55789E+03 -2.89530E+03  1.40227E+03 -4.62787E+03 -1.27398E+02 -5.43424E+03 -3.39157E+03
 -2.87370E+03 -6.12057E+03  1.17777E+03 -6.82287E+03  3.72985E+03 -5.38410E+03  7.31522E+03 -2.08211E+03
  6.08554E+03  7.02087E+02  2.99851E+03  3.99219E+03  1.85718E+02  4.80554E+03 -1.87433E+03  2.70582E+03
 -3.14377E+03  1.08710E+03 -1.81391E+03 -7.52741E+02 -5.84057E+02 -4.12757E+02 -3.80041E+02 -1.54015E+02
 -1.69693E+03 -3.19794E+02 -5.51081E+02  3.94816E+02 -8.98587E+00 -1.40829E+03 -3.32301E+02 -2.50687E+03
  2.12485E+03 -1.24859E+03  2.12931E+03  2.63584E+02  2.21274E+03  1.82139E+03  7.26388E+02  4.08008E+03
 -2.39082E+03  5.43557E+03 -4.55440E+03  3.11009E+03 -4.79630E+03  1.31004E+02 -3.72661E+03 -2.86465E+03
 -1.64507E+03 -4.25805E+03  6.29972E+02 -4.06865E+03  2.12144E+03 -1.96223E+03  2.89185E+03  5.81697E+02
  2.06407E+03  1.22949E+03  2.74607E+02  9.38852E+02 -9.61363E+02 -3.40047E+02  3.61584E+02 -1.08812E+03
  1.15239E+03 -5.67154E+02  1.51374E+03  9.98872E+02  2.65998E+02  1.33131E+03  5.69356E+02  1.92833E+03
 -2.24888E+03  1.48297E+03 -2.78155E+03  4.20882E+02 -2.44701E+03 -1.15981E+03 -5.43327E+02 -3.09650E+03
  1.45143E+03 -3.07120E+03  2.26931E+03 -1.09086E+02  2.62440E+03 -3.31917E+02  1.39318E+03  2.21481E+03
  4.49207E+02  2.05591E+03 -4.14151E+02  1.81234E+03 -1.91436E+03  1.38680E+03 -9.19921E+02  3.27156E+01
 -8.82260E+02 -2.04282E+02 -6.34733E+02  7.78914E+01 -1.85025E+03  7.14116E+01 -1.86849E+03 -4.90398E+02
 -2.12045E+03 -1.06950E+03 -7.82803E+02 -2.32923E+03  1.47720E+03 -3.27888E+03  1.94671E+03 -5.47000E+02
  2.60425E+03  1.28824E+01  5.34289E+02  1.03531E+03  2.96396E+02  2.13641E+03 -1.49296E+03  1.33252E+03
