 $NMID ID='MM_0lb_SNR400_14hz_g55_96.RAW', FMTDAT='(8E13.5)'
 TRAMP=1., VOLUME=1. $END
  3.09258E+05  9.28325E+02  3.37701E+05  2.50305E+05  8.48235E+04  3.37523E+05 -1.32882E+05  2.50277E+05
 -1.90376E+05  8.30116E+04 -1.11856E+05 -3.22250E+04  8.17636E+02 -5.02613E+04  5.44489E+04  8.31178E+01
  3.52091E+04  5.29211E+04 -1.65089E+04  7.60451E+04 -6.08354E+04  6.38374E+04 -8.40505E+04  3.22161E+04
 -8.14869E+04 -1.10094E+04 -5.72496E+04 -5.17963E+04 -1.51654E+04 -6.95795E+04  2.77181E+04 -4.59352E+04
  3.94367E+04  3.22581E+03  1.63041E+04  4.73800E+04 -3.44269E+04  4.69192E+04 -6.64122E+04  9.95696E+01
 -5.39619E+04 -5.68925E+04 -7.03528E+03 -7.74675E+04  3.42131E+04 -5.63237E+04  4.81110E+04 -1.70050E+04
  4.33696E+04  1.09514E+04  3.20259E+04  2.56085E+04  1.63551E+04  2.93196E+04 -5.81760E+03  2.74859E+04
 -2.20402E+04  1.22188E+04 -1.84872E+04 -5.65954E+03  5.60962E+03 -7.92160E+03  2.22048E+04  1.24810E+04
  7.48953E+03  3.58070E+04 -3.29955E+04  3.60599E+04 -6.44473E+04  2.23851E+03 -5.70772E+04 -4.37138E+04
 -1.25006E+04 -6.34589E+04  3.97789E+04 -4.56998E+04  5.89032E+04 -1.73074E+03  3.45688E+04  3.29331E+04
 -5.31892E+03  3.65385E+04 -3.08419E+04  1.70204E+04 -3.07530E+04 -4.04180E+03 -1.72258E+04 -1.15097E+04
 -8.91398E+03 -1.29377E+04 -7.62584E+02 -1.82250E+04  7.81183E+03 -2.31310E+04  1.55344E+04 -1.34211E+04
  1.12252E+04  5.72823E+03 -8.13796E+03  1.27285E+04 -2.17284E+04 -4.56189E+03 -7.92085E+03 -3.41179E+04
  2.37316E+04 -4.40362E+04  4.89036E+04 -2.00300E+04  4.59141E+04  1.95590E+04  1.57544E+04  4.41884E+04
 -1.57430E+04  3.36707E+04 -2.56336E+04  2.33272E+03 -1.03677E+04 -2.83917E+04  2.05658E+04 -3.41546E+04
  4.19624E+04 -9.83973E+03  3.60239E+04  2.43548E+04  1.88723E+04  4.74735E+04 -8.19280E+03  5.19176E+04
 -3.22336E+04  3.53646E+04 -4.32051E+04  9.24672E+03 -4.35894E+04 -1.70293E+04 -2.40083E+04 -3.86191E+04
  8.13696E+03 -3.85392E+04  3.16134E+04 -1.47698E+04  2.91454E+04  1.08723E+04  4.20956E+03  1.88627E+04
 -1.30133E+04  8.46402E+03 -1.03016E+04 -7.90858E+03  5.83311E+03 -1.07813E+04  1.81021E+04  6.58418E+03
  1.36396E+04  2.21297E+04 -5.85424E+03  2.53626E+04 -2.22058E+04  1.14397E+04 -2.88269E+04 -4.49605E+03
 -2.14327E+04 -1.79562E+04 -8.52279E+03 -2.12870E+04  4.28632E+03 -2.02890E+04  1.65525E+04 -1.88760E+04
  2.69365E+04 -1.33080E+04  3.33724E+04  2.94409E+03  2.38704E+04  2.12576E+04  4.06535E+03  3.75693E+04
 -1.79943E+04  3.06391E+04 -2.81241E+04  1.06949E+04 -2.14973E+04 -1.09123E+04 -4.87435E+03 -1.31347E+04
  1.37652E+03 -2.90778E+03 -4.87118E+03  6.27297E+03 -1.66998E+04  5.69651E+03 -1.68153E+04 -6.84730E+03
 -1.09083E+04 -1.96824E+04  5.01416E+03 -2.32656E+04  1.63742E+04 -1.65015E+04  1.88610E+04 -1.63627E+03
  1.23568E+04  1.34688E+04 -1.01981E+03  1.99077E+04 -1.33759E+04  1.14677E+04 -1.99137E+04 -3.71419E+03
 -1.41943E+04 -1.76244E+04 -1.72826E+03 -2.30560E+04  1.07080E+04 -1.95385E+04  1.96898E+04 -9.99244E+03
  1.90198E+04 -2.38384E+02  1.31706E+04  4.55599E+03  6.97994E+03  1.00909E+03  9.70084E+03 -1.31039E+03
  1.81607E+04  2.62436E+03  2.07209E+04  1.59660E+04  1.34876E+04  3.09659E+04 -2.53197E+03  3.54099E+04
 -2.04546E+04  2.82960E+04 -3.33837E+04  1.39598E+04 -3.38362E+04 -2.95197E+03 -2.84292E+04 -2.02571E+04
 -1.27946E+04 -2.86640E+04  9.58831E+03 -2.53221E+04  2.23714E+04 -1.32285E+04  1.94549E+04  6.25199E+03
  7.31080E+03  1.50617E+04 -8.97430E+03  1.31909E+04 -1.65342E+04  2.48823E+03 -1.27959E+04 -1.03760E+04
  3.64450E+02 -1.60520E+04  8.40800E+03 -1.18771E+04  1.05258E+04 -1.02291E+03  2.86914E+03  6.50349E+03
 -6.79728E+03  2.55852E+03 -6.09062E+03 -5.72271E+03 -9.40523E+01 -1.38960E+04  9.98135E+03 -1.47227E+04
  1.72140E+04 -7.67343E+03  1.90742E+04  2.81306E+03  1.65634E+04  1.42128E+04  7.88735E+03  2.10291E+04
 -3.50196E+03  2.31341E+04 -1.49343E+04  1.42680E+04 -1.55800E+04  3.74429E+03 -1.17894E+04 -4.34990E+03
 -5.40736E+03 -5.13804E+03 -5.38006E+02  1.69936E+03 -2.86267E+03  2.68156E+03 -4.86453E+03  4.06874E+03
 -1.09010E+04 -5.89000E+02 -1.19601E+04 -9.30831E+03 -5.00582E+03 -1.52734E+04  5.55900E+03 -1.20820E+04
  9.88983E+03 -5.20997E+03  6.67331E+03  3.03285E+03  2.57993E+02  4.48924E+03 -5.64710E+03 -3.15003E+02
 -5.29801E+03 -8.52901E+03 -1.26797E+03 -1.08701E+04  6.31485E+03 -1.15462E+04  1.46812E+04 -6.77184E+03
  1.71666E+04  1.23185E+03  1.33155E+04  1.01037E+04  2.89487E+03  1.36972E+04 -7.10173E+03  1.21562E+04
 -9.71129E+03  3.72600E+03 -5.24450E+03 -1.98170E+03  1.61196E+03 -2.82791E+03  6.32501E+03 -1.31448E+03
  5.44394E+03  5.12743E+03  1.07872E+03  9.48215E+03 -6.76533E+03  8.91545E+03 -1.14601E+04  2.78799E+03
 -7.56351E+03 -5.69845E+03  7.69286E+02 -1.00654E+04  6.01224E+03 -4.57947E+03  6.35282E+03  2.26894E+03
  1.67846E+03  6.76391E+03 -5.93096E+03  8.18599E+03 -9.09769E+03  3.36124E+03 -8.56231E+03 -2.48764E+03
 -5.01605E+03 -1.00610E+04  3.07432E+03 -1.23714E+04  1.01803E+04 -6.94315E+03  1.08560E+04  2.08469E+03
  7.25967E+03  8.92869E+03 -3.23311E+01  1.09223E+04 -7.77910E+03  6.31254E+03 -8.72381E+03 -1.01022E+03
 -8.00096E+03 -7.86043E+03 -1.56079E+03 -8.18873E+03  4.90954E+03 -6.95922E+03  5.42877E+03 -3.58290E+03
  3.65716E+03  5.41887E+02 -2.12238E+01  8.96825E+02  1.20620E+02 -1.07146E+03  7.22521E+02 -4.40729E+03
  6.97170E+03 -2.13207E+03  9.98512E+03  1.32130E+03  9.91096E+03  6.66745E+03  7.15883E+03  1.31102E+04
 -3.62261E+03  1.52383E+04 -1.31015E+04  1.17206E+04 -1.67642E+04  1.70878E+03 -1.31741E+04 -5.69184E+03
 -6.61613E+03 -1.12203E+04 -1.17201E+03 -9.40245E+03  3.27323E+03 -4.77328E+03  3.54180E+03 -2.77740E+03
  2.26416E+03 -1.72193E+03  2.81600E+03 -3.04766E+03  4.49556E+03 -2.52710E+03  5.31816E+03 -4.60290E+02
  7.53634E+03  1.59089E+03  3.20068E+03  6.42121E+03 -2.08780E+03  6.44976E+03 -7.74539E+03  5.72939E+03
 -8.32841E+03 -1.01656E+03 -5.10635E+03 -6.88046E+03 -3.24901E+01 -9.92555E+03  5.52767E+03 -9.11268E+03
  9.71341E+03 -5.72839E+03  1.14809E+04  9.96160E+02  8.36756E+03  8.37105E+03  1.98177E+03  1.00838E+04
 -4.43508E+03  9.42654E+03 -6.41396E+03  3.24157E+03 -3.82769E+03 -1.11262E+03 -1.36211E+03 -9.63435E+02
 -7.88356E+02  3.82314E+02 -1.36066E+03  2.73056E+03 -4.35508E+03  2.03634E+03 -6.60820E+03 -8.31251E+02
 -3.05699E+03 -5.92744E+03  4.01188E+02 -7.91801E+03  5.73638E+03 -8.04824E+03  7.59021E+03 -2.07710E+03
  8.88711E+03  4.31402E+03  3.44096E+03  7.09942E+03 -1.46866E+03  8.69320E+03 -5.61884E+03  5.02474E+03
 -7.24778E+03  7.05406E+02 -6.06804E+03 -4.77856E+03 -4.91767E+01 -6.89714E+03  3.61068E+03 -5.77316E+03
  4.99304E+03 -1.66125E+03  3.05867E+03  1.26744E+03  1.39466E+03  1.79161E+03  1.30771E+03  1.84255E+03
  2.32655E+03  5.77167E+02  1.99881E+03  1.38990E+03  2.33634E+03  3.51855E+03  1.75218E+03  4.47028E+03
 -1.33529E+03  6.34167E+03 -5.07311E+03  6.76198E+03 -7.56490E+03  2.21253E+03 -9.18127E+03 -2.71955E+03
 -3.92044E+03 -7.74210E+03  1.70436E+03 -9.13593E+03  4.48205E+03 -5.04987E+03  6.11413E+03 -2.09649E+03
  5.44044E+03  3.08850E+03  8.21868E+02  4.59392E+03 -1.84621E+03  2.90740E+03 -2.57287E+03 -8.01613E+02
 -6.78964E+02 -3.40227E+03  2.29817E+03 -3.20450E+03  2.51353E+03 -1.37290E+03  2.91189E+03  5.02096E+02
  1.25291E+03  1.45624E+03  7.89410E+02  1.32413E+02  1.28213E+02  1.21182E+03  2.11841E+03 -6.05301E+02
  1.04634E+03 -4.07983E+02  3.16016E+03  1.55079E+03  1.53225E+03  4.56980E+03 -3.76263E+02  5.08282E+03
 -4.49133E+03  2.80422E+03 -4.67742E+03  1.12994E+03 -4.33197E+03 -2.00168E+03 -1.25528E+03 -2.48008E+03
  1.17647E+03 -2.45199E+03  1.78703E+03 -1.42913E+03  1.34506E+03  1.86169E+03 -1.82768E+03  2.57783E+03
 -2.79697E+03  1.32021E+03 -3.96585E+03 -2.19589E+03 -2.05339E+03 -4.63982E+03  2.84228E+02 -3.16495E+03
  2.56345E+03 -2.08082E+03  2.53278E+03  1.11873E+02  2.37605E+03  4.67024E+02  2.41191E+02  2.88641E+03
 -7.90297E+02  9.23899E+02 -1.44974E+03 -8.47728E+02  9.37947E+02 -2.19776E+03  3.63932E+03 -2.91918E+03
  3.70452E+03  5.01241E+02  4.91920E+03  3.01399E+03  1.71166E+03  4.38792E+03 -1.64032E+03  3.49768E+03
 -3.32891E+03  1.57502E+03 -4.06178E+03 -4.61930E+02 -2.07239E+03 -3.08152E+03  5.34680E+02 -2.43939E+03
  2.89909E+03 -1.41960E+03  2.40234E+03  1.27879E+03  1.42218E+03  2.08670E+03  1.97349E+02  2.35462E+03
 -7.61094E+02  1.83585E+03 -9.36561E+02  6.02499E+02 -7.37018E+02  9.05207E+02 -8.25988E+02  1.37549E+03
 -1.04526E+03  1.91671E+03 -3.65376E+03  9.99010E+02 -4.38196E+03  4.46955E+02 -5.08051E+03 -2.66359E+03
 -2.40154E+03 -5.52043E+03  1.24185E+03 -6.40617E+03  3.34007E+03 -4.82340E+03  5.97563E+03 -1.92028E+03
  5.06649E+03  9.51955E+02  2.77774E+03  3.95480E+03 -2.29890E+02  3.62496E+03 -1.40518E+03  3.16630E+03
 -2.44209E+03  1.32383E+03 -1.42728E+03 -4.55040E+02 -9.20244E+02 -2.34058E+02 -8.36396E+02  5.43931E+01
 -1.07850E+03  2.58891E+02 -1.03015E+03  2.18662E+01  3.34523E+02 -1.16065E+03 -5.29533E+02 -1.47068E+03
  2.53431E+03 -1.26495E+03  2.39508E+03  1.90286E+02  3.56087E+03  2.37532E+03 -3.92298E+02  4.36703E+03
 -2.36131E+03  4.94838E+03 -4.10055E+03  2.71850E+03 -4.75843E+03 -4.66309E+02 -3.54397E+03 -2.94946E+03
 -1.60191E+03 -3.72675E+03  7.98889E+02 -3.83480E+03  2.01856E+03 -1.30477E+03  1.93860E+03 -1.64523E+02
  1.87800E+03  1.36735E+03 -2.01006E+02  9.82025E+02 -9.30300E+02 -1.70784E+02  2.27906E+02 -5.91248E+02
  1.29208E+03 -2.44881E+02  1.26760E+03  8.03784E+02  4.12357E+01  1.42485E+03  5.38156E+02  1.88453E+03
 -1.95451E+03  1.61390E+03 -1.79564E+03  2.75699E+02 -1.98588E+03 -1.80656E+03 -2.35586E+02 -3.10538E+03
  1.71106E+03 -2.92617E+03  2.89057E+03 -1.00974E+03  2.96367E+03  7.72304E+02  1.11067E+03  1.97910E+03
  6.46620E+02  2.53420E+03 -6.57469E+02  1.61788E+03 -9.65239E+02  8.87079E+02 -9.10323E+02  3.04126E+02
 -3.76268E+02  2.79431E+02 -1.24253E+03  8.07314E+02 -1.99779E+03  3.43665E+02 -2.28523E+03 -1.03198E+03
 -2.36592E+03 -8.17500E+02 -6.10926E+02 -2.75266E+03  1.57411E+03 -2.49385E+03  2.20477E+03 -9.52792E+02
  3.01069E+03 -5.28335E+02  7.15947E+02  1.71683E+03 -2.88174E+02  2.41400E+03 -1.62836E+03  1.58365E+03
