 $NMID ID='MM_0lb_SNR400_16hz_g40_8.RAW', FMTDAT='(8E13.5)'
 TRAMP=1., VOLUME=1. $END
  3.10232E+05  4.16897E+02  3.37547E+05  2.51075E+05  8.46842E+04  3.37307E+05 -1.32733E+05  2.50289E+05
 -1.90216E+05  8.24246E+04 -1.11015E+05 -3.26544E+04  7.47825E+02 -5.00718E+04  5.40697E+04 -1.67221E+02
  3.54070E+04  5.35267E+04 -1.68212E+04  7.49563E+04 -6.00667E+04  6.29085E+04 -8.31336E+04  3.12973E+04
 -8.02340E+04 -1.11445E+04 -5.63781E+04 -5.07355E+04 -1.44110E+04 -6.89111E+04  2.69065E+04 -4.51401E+04
  3.93330E+04  4.46870E+03  1.57712E+04  4.79075E+04 -3.42564E+04  4.60524E+04 -6.55193E+04 -2.86357E+02
 -5.26704E+04 -5.60942E+04 -6.32095E+03 -7.54539E+04  3.40160E+04 -5.36377E+04  4.66145E+04 -1.69406E+04
  4.25814E+04  1.12647E+04  3.11431E+04  2.51908E+04  1.55925E+04  2.84590E+04 -4.82857E+03  2.67568E+04
 -2.22239E+04  1.26322E+04 -1.92177E+04 -4.40309E+03  4.31618E+03 -7.57735E+03  2.12205E+04  1.13436E+04
  7.30382E+03  3.41230E+04 -3.12489E+04  3.50633E+04 -6.09961E+04  1.93516E+03 -5.56171E+04 -4.16707E+04
 -1.29619E+04 -6.15618E+04  3.87862E+04 -4.37637E+04  5.67877E+04 -1.88019E+03  3.26024E+04  3.06669E+04
 -6.49272E+03  3.39963E+04 -2.92740E+04  1.42431E+04 -2.82186E+04 -5.18591E+03 -1.51596E+04 -1.07153E+04
 -7.59304E+03 -1.24075E+04 -5.44163E+02 -1.71109E+04  6.79702E+03 -2.25706E+04  1.51281E+04 -1.45864E+04
  1.20526E+04  4.50814E+03 -6.58239E+03  1.34742E+04 -2.01068E+04 -3.43223E+03 -7.61629E+03 -3.12343E+04
  2.15588E+04 -4.13549E+04  4.57300E+04 -1.89242E+04  4.28010E+04  1.82855E+04  1.49222E+04  4.28368E+04
 -1.55207E+04  3.18890E+04 -2.39473E+04  8.30824E+02 -8.77507E+03 -2.64638E+04  2.00461E+04 -3.20370E+04
  3.90711E+04 -7.65293E+03  3.24560E+04  2.32162E+04  1.63361E+04  4.38908E+04 -7.82160E+03  4.65110E+04
 -2.92170E+04  3.10070E+04 -3.89441E+04  8.72404E+03 -3.96955E+04 -1.55370E+04 -2.19176E+04 -3.56009E+04
  6.97218E+03 -3.58678E+04  3.02518E+04 -1.31934E+04  2.77356E+04  1.12309E+04  3.09063E+03  1.87026E+04
 -1.32840E+04  7.16745E+03 -9.92461E+03 -8.30132E+03  6.20516E+03 -1.07523E+04  1.77146E+04  6.99476E+03
  1.24335E+04  2.13463E+04 -6.45029E+03  2.41366E+04 -2.15179E+04  9.87717E+03 -2.63762E+04 -5.81684E+03
 -1.80392E+04 -1.64336E+04 -6.30191E+03 -1.83205E+04  3.89291E+03 -1.65367E+04  1.36792E+04 -1.57306E+04
  2.29870E+04 -1.17019E+04  2.89815E+04  9.19463E+02  2.25786E+04  1.76419E+04  4.06274E+03  3.34138E+04
 -1.72780E+04  2.89121E+04 -2.66605E+04  1.03627E+04 -1.98624E+04 -1.02716E+04 -3.99549E+03 -1.34938E+04
  1.84773E+03 -3.38972E+03 -3.61879E+03  5.65465E+03 -1.40547E+04  5.15260E+03 -1.42182E+04 -5.19337E+03
 -9.14196E+03 -1.64338E+04  4.85997E+03 -2.06960E+04  1.40869E+04 -1.45843E+04  1.66343E+04 -1.89581E+03
  1.01953E+04  1.14700E+04 -1.72244E+03  1.64878E+04 -1.10879E+04  9.28282E+03 -1.67904E+04 -2.97001E+03
 -1.25656E+04 -1.53214E+04 -1.50775E+03 -2.02129E+04  8.86440E+03 -1.63236E+04  1.73564E+04 -8.41038E+03
  1.50569E+04  7.22068E+02  1.17729E+04  4.40593E+03  5.15058E+03  5.26926E+02  8.65960E+03 -1.42218E+03
  1.46413E+04  2.21335E+03  1.67820E+04  1.32190E+04  1.04200E+04  2.67255E+04 -2.42125E+03  2.90861E+04
 -1.76294E+04  2.29926E+04 -2.70998E+04  1.13779E+04 -2.76056E+04 -2.61909E+03 -2.37235E+04 -1.60693E+04
 -1.05169E+04 -2.28059E+04  8.28777E+03 -2.06447E+04  1.78857E+04 -1.15180E+04  1.71484E+04  4.16373E+03
  7.00674E+03  1.21060E+04 -7.30122E+03  1.11813E+04 -1.43827E+04  2.86521E+03 -1.10058E+04 -9.08788E+03
  3.41275E+02 -1.36160E+04  7.01443E+03 -1.05224E+04  8.30095E+03 -1.04231E+03  1.42964E+03  5.01702E+03
 -6.48391E+03  1.76029E+03 -4.30143E+03 -5.05169E+03  1.59627E+02 -1.18195E+04  7.84648E+03 -1.14759E+04
  1.36817E+04 -5.43318E+03  1.45086E+04  3.05536E+03  1.25774E+04  1.09911E+04  5.41322E+03  1.64660E+04
 -2.28823E+03  1.83136E+04 -1.18555E+04  1.12297E+04 -1.27206E+04  3.11218E+03 -9.56677E+03 -2.23256E+03
 -4.75249E+03 -3.63010E+03 -7.33963E+02  1.42579E+03 -2.51645E+03  2.14388E+03 -4.44731E+03  3.93549E+03
 -8.85909E+03 -5.78857E+02 -9.95455E+03 -7.73238E+03 -4.08647E+03 -1.31901E+04  4.55578E+03 -9.28646E+03
  7.64137E+03 -4.47830E+03  5.77373E+03  2.34042E+03  1.46323E+02  3.53124E+03 -3.78709E+03  9.63240E+01
 -3.72192E+03 -5.65730E+03 -7.94655E+02 -8.48643E+03  4.44223E+03 -9.20150E+03  1.21358E+04 -5.09159E+03
  1.38037E+04  6.74358E+02  1.01133E+04  7.36344E+03  2.09175E+03  1.04190E+04 -5.99215E+03  9.14335E+03
 -7.55816E+03  3.16449E+03 -4.09313E+03 -1.61281E+03  1.40946E+03 -2.33306E+03  5.42250E+03 -7.27511E+02
  4.76397E+03  3.95911E+03  1.75726E+03  6.97281E+03 -5.82933E+03  7.97023E+03 -8.93617E+03  2.49135E+03
 -5.68258E+03 -4.64759E+03  6.40928E+02 -7.23384E+03  4.69690E+03 -3.90793E+03  4.77844E+03  1.55871E+03
  1.40101E+03  3.99203E+03 -5.07739E+03  5.66645E+03 -6.50915E+03  2.44392E+03 -5.84484E+03 -1.46584E+03
 -3.52344E+03 -7.35257E+03  1.86039E+03 -9.19710E+03  6.87371E+03 -5.67601E+03  7.95372E+03  1.11233E+03
  5.88740E+03  6.47318E+03 -1.24597E+02  8.20355E+03 -6.37272E+03  4.75049E+03 -5.90044E+03 -2.50918E+02
 -6.18651E+03 -5.92133E+03 -1.06575E+03 -5.74764E+03  2.95117E+03 -4.80369E+03  3.82149E+03 -2.59084E+03
  3.25285E+03  3.33924E+02 -1.07071E+02  1.31118E+03  5.88280E+02 -4.89167E+02  1.00886E+03 -3.20067E+03
  4.88302E+03 -1.01358E+03  7.10669E+03  1.23631E+03  6.85498E+03  4.53948E+03  5.80054E+03  9.23646E+03
 -1.85813E+03  1.07294E+04 -9.81560E+03  8.41742E+03 -1.25136E+04  1.71341E+03 -9.69776E+03 -3.71792E+03
 -5.21030E+03 -7.94822E+03 -4.00512E+02 -6.36286E+03  3.07489E+03 -2.65824E+03  2.39087E+03 -2.42570E+03
  1.08893E+03 -1.77987E+03  2.46640E+03 -2.67284E+03  4.32749E+03 -1.39338E+03  3.61892E+03  2.46443E+02
  5.05340E+03  1.13126E+03  1.88860E+03  4.72589E+03 -1.43377E+03  4.80314E+03 -5.47992E+03  3.29133E+03
 -6.18249E+03 -1.32605E+03 -2.34453E+03 -3.73240E+03  6.28914E+02 -6.67477E+03  4.31506E+03 -6.89142E+03
  6.57450E+03 -4.07427E+03  8.48250E+03  3.05128E+02  6.38824E+03  5.53915E+03  1.34679E+03  7.31875E+03
 -3.13820E+03  6.97214E+03 -3.52321E+03  2.67760E+03 -2.76595E+03 -9.11105E+02 -6.97912E+02 -1.00268E+03
 -1.09288E+03 -6.59817E+01 -1.22742E+03  2.06167E+03 -2.69602E+03  1.79217E+03 -4.62178E+03  1.07134E+02
 -3.03292E+03 -4.82817E+03  8.76218E+02 -6.05468E+03  3.42942E+03 -6.01060E+03  5.11728E+03 -1.65353E+03
  5.51781E+03  2.99810E+03  2.41050E+03  4.53074E+03 -6.24219E+02  5.84668E+03 -3.64021E+03  3.25351E+03
 -5.05748E+03  6.09119E+02 -4.69581E+03 -3.46798E+03  1.66206E+02 -4.81872E+03  2.39357E+03 -3.38398E+03
  3.95007E+03 -1.43341E+03  2.33870E+03  1.09754E+03  1.11268E+03  1.94713E+03  5.08074E+02  6.90077E+02
  1.76406E+03  7.01302E+02  1.70972E+03  8.09910E+02  1.53231E+03  2.92083E+03  2.11203E+03  2.66092E+03
 -1.30259E+03  4.05740E+03 -3.90005E+03  5.27129E+03 -4.64843E+03  1.21636E+03 -5.48998E+03 -1.44827E+03
 -2.91232E+03 -5.57376E+03  3.39183E+02 -6.09127E+03  2.94789E+03 -3.69041E+03  4.71911E+03 -1.22908E+03
  3.28243E+03  2.55207E+03  8.44239E+02  3.50916E+03 -9.80386E+02  2.23430E+03 -1.10339E+03  8.91624E+01
 -7.39359E+02 -1.70743E+03  1.17380E+03 -2.29359E+03  1.68522E+03 -1.45845E+03  1.80586E+03  3.18217E+02
  1.54918E+03  7.03414E+02  1.20044E+03 -2.81744E+02 -9.62976E+01  1.28782E+03  1.24365E+03 -4.95225E+02
  4.50208E+02 -1.24728E+02  2.38579E+03  3.10199E+02  6.01237E+02  3.73929E+03 -6.63856E+02  4.26207E+03
 -2.36507E+03  1.72271E+03 -2.79675E+03  1.03657E+03 -3.20816E+03 -1.03917E+03 -2.94911E+02 -1.57994E+03
  5.84963E+02 -1.99448E+03  1.39847E+03 -9.95614E+02  1.12558E+03  1.49580E+03 -1.57759E+03  1.38015E+03
 -1.53401E+03  1.32870E+03 -1.87560E+03 -1.54588E+03 -1.32172E+03 -2.97571E+03 -1.03610E+01 -2.54573E+03
  1.28585E+03 -1.39167E+03  9.50956E+02  3.77756E+02  1.69481E+03  4.91964E+02  4.18676E+02  1.74605E+03
 -1.10937E+03  9.67086E+02 -1.46992E+03 -7.32496E+02  4.33302E+02 -1.40016E+03  2.35683E+03 -1.23430E+03
  2.59545E+03  2.62726E+02  4.27613E+03  1.06885E+03  7.37893E+02  2.14804E+03 -7.35863E+02  2.42722E+03
 -2.11309E+03  2.49790E+02 -2.44876E+03 -3.39168E+02 -8.75017E+02 -2.10246E+03  7.16911E+02 -9.36693E+02
  1.88027E+03 -1.07382E+03  1.21920E+03  9.70484E+02  5.51974E+02  1.94134E+03  5.36292E+01  1.61510E+03
 -6.25774E+02  9.34911E+02 -1.00447E+03  4.26189E+02 -2.71123E+02  3.75809E+01 -2.80991E+02  3.70634E+02
 -1.12151E+03  1.03788E+03 -2.32011E+03  1.15735E+03 -2.69255E+03 -4.23889E+02 -3.60784E+03 -1.03202E+03
 -1.69164E+03 -3.84264E+03  4.48516E+02 -4.42175E+03  1.36501E+03 -3.59095E+03  3.70137E+03 -1.40901E+03
  3.90364E+03  2.77323E+01  2.54063E+03  2.37685E+03 -1.93536E+02  2.66893E+03 -1.36709E+03  2.40616E+03
 -1.64756E+03  9.98558E+02 -9.82444E+02 -5.37004E+01 -9.94052E+02  2.43443E+02 -6.24118E+02 -1.77727E+02
 -1.49496E+03 -5.10289E+02 -5.68892E+02  1.61156E+02  4.48323E+02 -7.48414E+02 -7.02481E+01 -8.67726E+02
  1.69238E+03 -1.21811E+03  1.53575E+03 -1.39121E+02  1.85119E+03  1.59281E+03  2.49672E+02  2.09605E+03
 -9.83388E+02  3.13718E+03 -2.58127E+03  1.85494E+03 -3.29741E+03 -2.79189E+02 -2.31664E+03 -2.27516E+03
 -1.31780E+03 -2.19875E+03  8.13706E+02 -1.78423E+03  1.51386E+03 -1.26210E+03  1.66593E+03 -3.22141E+02
  1.02117E+03  7.71805E+02  3.94576E+02 -2.40186E+01 -7.85036E+02  4.08290E+02  1.56605E+02 -9.73216E+02
  4.61093E+02  7.22441E+02  7.87399E+02  4.82044E+02  2.98593E+02  9.36172E+02  9.45941E+02  5.11678E+02
 -8.30656E+02  1.35278E+03 -1.05070E+03 -2.50719E+02 -1.41480E+03 -1.31205E+03 -2.58764E+01 -2.24270E+03
  6.31367E+02 -1.40366E+03  1.77540E+03 -3.49502E+02  1.91797E+03 -3.94292E+02  6.19701E+02  1.40645E+03
  4.37653E+02  1.10044E+03 -8.41500E+02  1.65623E+03 -1.02288E+03  2.00375E+03 -1.16696E+03  4.56262E+02
  1.17728E+02  2.54035E+01 -1.10216E+03 -1.45674E+02 -1.01148E+03  3.22886E+02 -1.15530E+03 -2.63436E+02
 -1.54791E+03 -2.59575E+01 -6.76550E+02 -2.25093E+03  1.07329E+03 -2.01228E+03  9.21738E+02 -5.43209E+01
  1.40417E+03  2.52221E+02 -2.84092E+02  3.86003E+02  1.49171E+02  1.71294E+03 -7.84009E+02  1.33895E+03
