 $NMID ID='MM_0lb_SNR400_12hz_g40_45.RAW', FMTDAT='(8E13.5)'
 TRAMP=1., VOLUME=1. $END
  3.10007E+05  2.19610E+02  3.37274E+05  2.50929E+05  8.50866E+04  3.37288E+05 -1.32458E+05  2.51022E+05
 -1.90243E+05  8.35344E+04 -1.11875E+05 -3.24394E+04  8.48249E+02 -5.04335E+04  5.41789E+04  3.13910E+02
  3.51471E+04  5.30634E+04 -1.71628E+04  7.55391E+04 -6.10884E+04  6.33079E+04 -8.39865E+04  3.25917E+04
 -8.10489E+04 -1.14399E+04 -5.73028E+04 -5.08393E+04 -1.52044E+04 -7.01547E+04  2.79802E+04 -4.58358E+04
  4.02309E+04  4.40003E+03  1.57020E+04  4.74981E+04 -3.52668E+04  4.74057E+04 -6.71495E+04  8.03800E+01
 -5.34454E+04 -5.66867E+04 -6.72358E+03 -7.79987E+04  3.42934E+04 -5.56496E+04  4.81769E+04 -1.71441E+04
  4.39377E+04  1.15961E+04  3.19329E+04  2.54132E+04  1.60316E+04  3.05550E+04 -4.86553E+03  2.71019E+04
 -2.17716E+04  1.26776E+04 -1.81284E+04 -4.84634E+03  5.77232E+03 -7.33619E+03  2.22152E+04  1.23241E+04
  7.66966E+03  3.58782E+04 -3.22809E+04  3.52957E+04 -6.37523E+04  2.04690E+03 -5.70122E+04 -4.35442E+04
 -1.25422E+04 -6.36268E+04  4.01321E+04 -4.54003E+04  5.82978E+04 -2.30233E+03  3.46384E+04  3.27803E+04
 -6.03100E+03  3.64465E+04 -3.03920E+04  1.69515E+04 -3.04428E+04 -4.26470E+03 -1.64924E+04 -1.10008E+04
 -9.02982E+03 -1.35324E+04 -6.66864E+02 -1.87667E+04  7.45994E+03 -2.36174E+04  1.52535E+04 -1.37397E+04
  1.08037E+04  5.45351E+03 -8.94872E+03  1.35979E+04 -2.08125E+04 -4.74414E+03 -9.25513E+03 -3.46946E+04
  2.34936E+04 -4.44132E+04  4.86562E+04 -1.98030E+04  4.59157E+04  1.93932E+04  1.60962E+04  4.47198E+04
 -1.62370E+04  3.42404E+04 -2.58711E+04  2.01849E+03 -1.01579E+04 -2.78871E+04  2.07173E+04 -3.44854E+04
  4.16075E+04 -9.42212E+03  3.65717E+04  2.41693E+04  1.86041E+04  4.74822E+04 -7.90715E+03  5.17277E+04
 -3.26025E+04  3.44737E+04 -4.28400E+04  1.03586E+04 -4.33121E+04 -1.68405E+04 -2.46746E+04 -3.87329E+04
  7.31879E+03 -3.92070E+04  3.20213E+04 -1.52461E+04  2.95362E+04  1.12538E+04  3.86838E+03  1.97172E+04
 -1.34364E+04  9.33398E+03 -1.05271E+04 -7.47920E+03  5.55625E+03 -1.12439E+04  1.80878E+04  6.10442E+03
  1.36380E+04  2.20582E+04 -5.37243E+03  2.53469E+04 -2.29711E+04  1.21103E+04 -2.82312E+04 -4.39278E+03
 -2.19044E+04 -1.78829E+04 -9.04197E+03 -2.16182E+04  4.33056E+03 -2.07722E+04  1.70821E+04 -1.92845E+04
  2.74116E+04 -1.30538E+04  3.36689E+04  2.88279E+03  2.41916E+04  2.09001E+04  4.27313E+03  3.75427E+04
 -1.88302E+04  3.11958E+04 -2.84461E+04  1.10047E+04 -2.10632E+04 -1.08560E+04 -4.24499E+03 -1.30254E+04
  1.97208E+03 -2.12934E+03 -5.15482E+03  6.78275E+03 -1.65807E+04  4.64342E+03 -1.68425E+04 -7.16812E+03
 -1.01194E+04 -1.96679E+04  4.62863E+03 -2.37965E+04  1.59058E+04 -1.74060E+04  1.82728E+04 -1.41414E+03
  1.13066E+04  1.34530E+04 -9.37780E+02  1.99919E+04 -1.40831E+04  1.16909E+04 -1.91963E+04 -3.63596E+03
 -1.43553E+04 -1.83375E+04 -2.19891E+03 -2.44486E+04  1.08680E+04 -2.01406E+04  1.96496E+04 -1.00767E+04
  1.86132E+04 -3.06623E+02  1.33997E+04  4.97553E+03  6.95938E+03  1.12571E+03  1.01438E+04 -1.23894E+03
  1.81535E+04  3.35781E+03  2.04520E+04  1.53987E+04  1.41923E+04  3.18155E+04 -2.64693E+03  3.62786E+04
 -2.14119E+04  3.01766E+04 -3.39330E+04  1.49898E+04 -3.56175E+04 -2.18991E+03 -2.94990E+04 -2.09126E+04
 -1.29282E+04 -2.98834E+04  1.02924E+04 -2.65459E+04  2.25161E+04 -1.29664E+04  2.08807E+04  6.59380E+03
  7.58832E+03  1.54770E+04 -1.00200E+04  1.37754E+04 -1.79811E+04  2.15430E+03 -1.34119E+04 -1.07583E+04
 -4.55940E+02 -1.61389E+04  8.16750E+03 -1.20762E+04  1.07127E+04 -9.94215E+02  1.93371E+03  6.51005E+03
 -6.59677E+03  2.61864E+03 -6.09748E+03 -5.73053E+03 -2.65398E+02 -1.43177E+04  1.01180E+04 -1.47359E+04
  1.79450E+04 -7.80970E+03  1.97089E+04  3.49791E+03  1.72883E+04  1.46119E+04  7.85809E+03  2.26326E+04
 -3.56715E+03  2.45225E+04 -1.58049E+04  1.47406E+04 -1.78297E+04  3.87257E+03 -1.21258E+04 -3.60059E+03
 -5.22206E+03 -5.50932E+03 -3.11183E+02  6.13311E+02 -3.07725E+03  3.31007E+03 -5.31781E+03  4.24287E+03
 -1.15234E+04 -1.08771E+03 -1.23237E+04 -8.91091E+03 -5.02323E+03 -1.57819E+04  5.65895E+03 -1.24953E+04
  1.01208E+04 -5.60105E+03  7.21247E+03  2.90192E+03  6.02683E+02  4.31456E+03 -5.57379E+03  8.00085E+01
 -5.45892E+03 -7.70777E+03 -6.11731E+02 -1.15433E+04  7.21570E+03 -1.29041E+04  1.57891E+04 -6.97504E+03
  1.79970E+04  1.38842E+03  1.33299E+04  1.04107E+04  2.77366E+03  1.47230E+04 -7.68226E+03  1.22713E+04
 -9.87659E+03  3.67930E+03 -4.64573E+03 -1.91974E+03  1.46949E+03 -4.43403E+03  6.92392E+03 -8.01887E+02
  5.75682E+03  5.41232E+03  1.18375E+03  9.39286E+03 -7.23309E+03  9.52115E+03 -1.12865E+04  2.43658E+03
 -8.05200E+03 -6.49208E+03 -3.39300E+02 -9.89385E+03  6.14274E+03 -4.81039E+03  6.64115E+03  1.87569E+03
  1.37285E+03  7.25571E+03 -6.23053E+03  8.78940E+03 -9.40903E+03  4.04739E+03 -9.01030E+03 -2.91132E+03
 -5.49210E+03 -1.14539E+04  2.15855E+03 -1.26164E+04  1.09936E+04 -8.41027E+03  1.15250E+04  2.32884E+03
  7.27265E+03  9.27012E+03 -8.06793E+02  1.12884E+04 -7.99833E+03  6.91990E+03 -9.75639E+03 -5.13138E+02
 -8.08372E+03 -8.29739E+03 -1.77180E+03 -8.31073E+03  4.09116E+03 -6.91624E+03  5.16193E+03 -3.54937E+03
  4.32862E+03  1.49423E+03 -7.68254E+02  2.33297E+03  2.94403E+02 -1.94876E+03  1.55502E+03 -4.44646E+03
  7.96477E+03 -3.26533E+03  1.07466E+04  1.11666E+03  1.05593E+04  6.67150E+03  7.72315E+03  1.46404E+04
 -2.91331E+03  1.69034E+04 -1.36598E+04  1.18183E+04 -1.78713E+04  1.73336E+03 -1.45324E+04 -5.91630E+03
 -7.77748E+03 -1.24927E+04 -6.20445E+02 -1.01326E+04  4.12302E+03 -4.91268E+03  3.56759E+03 -3.36707E+03
  2.51649E+03 -2.64091E+03  2.97055E+03 -2.46776E+03  4.33335E+03 -1.92499E+03  5.83863E+03 -1.08611E+03
  7.45070E+03  2.21793E+03  3.32986E+03  6.67625E+03 -2.18893E+03  7.41127E+03 -8.07244E+03  5.82803E+03
 -9.51548E+03 -2.21016E+03 -6.18312E+03 -7.51427E+03 -2.25563E+02 -1.04342E+04  5.76195E+03 -1.09724E+04
  1.12749E+04 -6.21709E+03  1.33363E+04  8.93784E+02  8.53967E+03  8.97115E+03  1.91550E+03  1.19861E+04
 -5.26130E+03  9.83839E+03 -6.58638E+03  2.89100E+03 -4.63598E+03 -1.16456E+03 -1.99376E+03 -1.47493E+03
 -1.38062E+03 -2.25822E+02 -1.98339E+03  2.12182E+03 -4.20477E+03  2.39019E+03 -6.33293E+03 -1.16239E+03
 -4.52733E+03 -8.10446E+03  1.19178E+03 -9.66941E+03  6.61383E+03 -9.10391E+03  8.92092E+03 -3.45947E+03
  9.24147E+03  4.02339E+03  4.48845E+03  8.33451E+03 -1.71265E+03  1.01450E+04 -6.59259E+03  6.25183E+03
 -9.12405E+03  4.42932E+02 -7.38167E+03 -6.05360E+03 -6.79862E+02 -7.92777E+03  3.84143E+03 -6.41938E+03
  5.57980E+03 -2.23862E+03  4.54204E+03  2.08679E+03  1.58834E+03  3.01792E+03  1.23742E+03  5.05008E+02
  2.61557E+03  6.08565E+02  2.56080E+03  1.39616E+03  3.01579E+03  2.65764E+03  2.59997E+03  5.27173E+03
 -2.03060E+03  7.28915E+03 -6.34861E+03  8.38295E+03 -9.20920E+03  1.92250E+03 -9.86842E+03 -3.44826E+03
 -5.41140E+03 -9.46261E+03  1.10935E+03 -1.04139E+04  4.89731E+03 -6.18704E+03  7.88356E+03 -2.17322E+03
  5.53893E+03  4.08648E+03  1.90212E+03  5.72193E+03 -2.31404E+03  3.53425E+03 -3.19882E+03 -1.26470E+02
 -2.29230E+03 -4.38486E+03  1.88885E+03 -4.11913E+03  4.23355E+03 -2.09588E+03  4.05943E+03  6.49465E+02
  1.43633E+03  1.87707E+03  6.66219E+02  1.31730E+03 -5.44438E+02  1.42434E+03  1.79307E+03 -5.17766E+01
  1.21824E+03 -5.00841E+02  4.29183E+03  9.43291E+02  2.16584E+03  5.65567E+03 -9.41375E+02  6.86139E+03
 -4.28103E+03  4.01509E+03 -5.91954E+03  9.55804E+02 -5.25136E+03 -2.57577E+03 -1.36549E+03 -3.36407E+03
  8.22198E+02 -3.73406E+03  2.15210E+03 -1.35071E+03  1.64672E+03  2.28288E+03 -7.42736E+02  2.86525E+03
 -3.87078E+03  1.67919E+03 -3.72373E+03 -2.77971E+03 -2.51732E+03 -4.87207E+03  6.94175E+02 -5.21537E+03
  2.47181E+03 -3.18067E+03  2.84491E+03 -1.70560E+02  3.54003E+03  1.22672E+03  8.52053E+02  3.16792E+03
 -1.80182E+03  1.26228E+03 -2.37550E+03 -1.78015E+03  1.04419E+03 -3.80040E+03  4.23327E+03 -3.06677E+03
  5.43422E+03  4.33407E+01  6.06304E+03  3.43224E+03  2.20966E+03  5.98858E+03 -1.42917E+03  5.19811E+03
 -4.12996E+03  2.18518E+03 -4.92464E+03 -7.85087E+02 -2.75755E+03 -3.61463E+03  7.47323E+02 -3.24359E+03
  3.96412E+03 -2.19669E+03  3.12270E+03  8.02991E+02  8.24921E+02  4.00246E+03 -3.58241E+02  2.48980E+03
 -1.32946E+03  2.47390E+03 -9.17450E+02  9.38275E+02 -5.96403E+02  7.04187E+02 -1.31057E+03  1.76447E+03
 -1.94411E+03  1.85020E+03 -4.17744E+03  1.27800E+03 -5.28974E+03  3.27449E+01 -6.16382E+03 -4.01280E+03
 -3.16752E+03 -7.58344E+03  1.84934E+03 -8.61159E+03  5.36473E+03 -6.51732E+03  8.98976E+03 -2.05103E+03
  7.86697E+03  9.10804E+02  4.51018E+03  5.60826E+03 -8.36631E+02  4.90139E+03 -2.15326E+03  4.48170E+03
 -2.92863E+03  1.14212E+03 -1.95109E+03 -6.32530E+01 -9.95833E+02  1.67543E+02 -1.75446E+02 -2.15895E+02
 -1.67208E+03  4.17248E+02 -1.63575E+03 -3.87025E+02 -6.07759E+02 -1.00725E+03 -3.51548E+02 -1.93567E+03
  2.89110E+03 -1.89703E+03  3.37362E+03  5.74352E+02  3.69307E+03  3.03905E+03  7.38595E+02  5.27364E+03
 -2.59789E+03  6.24187E+03 -5.94811E+03  4.14151E+03 -6.71741E+03 -8.28861E+02 -4.66777E+03 -4.04508E+03
 -2.33024E+03 -6.40825E+03  1.99037E+03 -5.04870E+03  3.43858E+03 -2.75791E+03  3.51927E+03  3.98064E+02
  2.19684E+03  2.18548E+03 -4.59077E+02  1.47612E+03 -1.74836E+03 -2.37472E+01  6.72407E+01 -7.47226E+02
  1.92351E+03 -7.85640E+01  1.72397E+03  7.78170E+02  1.12980E+03  1.99005E+03 -2.03941E+02  2.52335E+03
 -2.55803E+03  2.77818E+03 -3.07574E+03  6.64120E+02 -3.42200E+03 -2.87945E+03 -2.68150E+02 -4.63148E+03
  2.41363E+03 -3.75724E+03  4.49239E+03 -9.09286E+02  3.35286E+03  1.13961E+03  2.47756E+03  3.13228E+03
  4.75334E+02  3.07506E+03 -1.26655E+03  2.52674E+03 -2.68554E+03  1.78381E+03 -2.37422E+03  8.41391E+01
 -6.96707E+02  1.70156E+02 -1.26478E+03  8.63693E+02 -1.52746E+03  1.92867E+02 -2.16089E+03 -3.97120E+02
 -2.57244E+03 -1.49459E+03 -5.56735E+02 -3.22008E+03  1.75918E+03 -3.95282E+03  2.90047E+03 -1.78153E+03
  3.74862E+03  3.83838E+02  1.30891E+03  2.41184E+03 -3.75697E+02  3.44071E+03 -2.26289E+03  1.99828E+03
