 $NMID ID='MM_0lb_SNR400_18hz_g60_49.RAW', FMTDAT='(8E13.5)'
 TRAMP=1., VOLUME=1. $END
  3.09962E+05  3.91757E+02  3.37247E+05  2.50447E+05  8.47353E+04  3.37571E+05 -1.32553E+05  2.51130E+05
 -1.89873E+05  8.27489E+04 -1.11979E+05 -3.26542E+04  9.54075E+02 -5.10112E+04  5.36564E+04 -3.27446E+02
  3.49196E+04  5.27126E+04 -1.67854E+04  7.56482E+04 -6.02681E+04  6.28107E+04 -8.34324E+04  3.21437E+04
 -8.12009E+04 -1.08335E+04 -5.66530E+04 -5.10427E+04 -1.49345E+04 -6.91066E+04  2.75610E+04 -4.61412E+04
  3.94801E+04  4.11233E+03  1.56588E+04  4.79238E+04 -3.42111E+04  4.76408E+04 -6.60823E+04 -5.60408E+02
 -5.30412E+04 -5.69413E+04 -6.60197E+03 -7.65574E+04  3.36827E+04 -5.45157E+04  4.77414E+04 -1.70369E+04
  4.31403E+04  1.15357E+04  3.15664E+04  2.46016E+04  1.57326E+04  2.88097E+04 -4.96740E+03  2.68668E+04
 -2.21702E+04  1.22004E+04 -1.84273E+04 -5.43029E+03  4.76984E+03 -7.81166E+03  2.26688E+04  1.14541E+04
  7.35196E+03  3.48364E+04 -3.16811E+04  3.48706E+04 -6.27055E+04  2.15638E+03 -5.67082E+04 -4.24923E+04
 -1.24344E+04 -6.23029E+04  3.91609E+04 -4.45106E+04  5.72996E+04 -2.74565E+03  3.32120E+04  3.16826E+04
 -6.30107E+03  3.51005E+04 -2.92302E+04  1.53899E+04 -2.90399E+04 -4.83787E+03 -1.60597E+04 -1.04308E+04
 -8.28829E+03 -1.27588E+04 -1.00948E+03 -1.70484E+04  7.26026E+03 -2.23629E+04  1.54201E+04 -1.37625E+04
  1.15087E+04  4.74312E+03 -7.68341E+03  1.32021E+04 -2.04802E+04 -4.11894E+03 -7.90482E+03 -3.19720E+04
  2.20506E+04 -4.23601E+04  4.68926E+04 -1.89565E+04  4.36878E+04  1.88308E+04  1.52808E+04  4.31446E+04
 -1.56978E+04  3.24753E+04 -2.41128E+04  1.46602E+03 -9.15903E+03 -2.77914E+04  2.10572E+04 -3.33112E+04
  4.00026E+04 -8.47137E+03  3.39936E+04  2.35418E+04  1.69908E+04  4.51397E+04 -8.09750E+03  4.78203E+04
 -3.08665E+04  3.25786E+04 -4.02160E+04  9.27880E+03 -4.12643E+04 -1.55707E+04 -2.21423E+04 -3.59493E+04
  7.17545E+03 -3.60726E+04  3.05426E+04 -1.38483E+04  2.79334E+04  1.09084E+04  2.95334E+03  1.86040E+04
 -1.37828E+04  8.19659E+03 -1.04674E+04 -7.81076E+03  6.29656E+03 -1.05046E+04  1.76286E+04  6.06804E+03
  1.30142E+04  2.19086E+04 -6.28783E+03  2.45749E+04 -2.20997E+04  1.02539E+04 -2.68656E+04 -5.18497E+03
 -1.95165E+04 -1.69849E+04 -7.90130E+03 -1.92914E+04  4.08155E+03 -1.71062E+04  1.45291E+04 -1.67313E+04
  2.38294E+04 -1.24547E+04  3.04552E+04  1.81011E+03  2.31081E+04  1.81197E+04  4.10408E+03  3.45878E+04
 -1.65656E+04  2.93117E+04 -2.66259E+04  9.66303E+03 -2.02602E+04 -9.73840E+03 -4.04626E+03 -1.33544E+04
  2.03609E+03 -3.39003E+03 -3.66091E+03  6.13013E+03 -1.46256E+04  5.33560E+03 -1.44772E+04 -6.48501E+03
 -9.57600E+03 -1.73535E+04  5.17710E+03 -2.09455E+04  1.39866E+04 -1.57106E+04  1.65815E+04 -1.06761E+03
  1.03231E+04  1.16934E+04 -1.08767E+03  1.78636E+04 -1.17362E+04  9.61376E+03 -1.71102E+04 -3.77537E+03
 -1.26309E+04 -1.54802E+04 -1.10057E+03 -2.03414E+04  1.00981E+04 -1.73860E+04  1.71978E+04 -8.34818E+03
  1.62712E+04  5.03673E+02  1.13982E+04  4.18371E+03  6.02420E+03  5.83632E+02  8.58016E+03 -1.37447E+03
  1.52332E+04  2.71615E+03  1.68280E+04  1.30318E+04  1.08289E+04  2.80170E+04 -2.65843E+03  3.04305E+04
 -1.78072E+04  2.40934E+04 -2.74033E+04  1.14854E+04 -2.85680E+04 -1.95081E+03 -2.40155E+04 -1.64300E+04
 -1.13894E+04 -2.35515E+04  8.06337E+03 -2.16782E+04  1.85203E+04 -1.18775E+04  1.69687E+04  4.43512E+03
  7.00435E+03  1.25321E+04 -8.48979E+03  1.17363E+04 -1.49713E+04  2.21987E+03 -1.12015E+04 -8.51510E+03
  4.78543E+01 -1.39456E+04  6.79872E+03 -1.06135E+04  8.51337E+03 -1.21295E+03  1.73300E+03  5.77671E+03
 -6.37156E+03  1.79868E+03 -4.48288E+03 -4.91806E+03 -4.59394E+02 -1.15511E+04  8.64136E+03 -1.16944E+04
  1.33030E+04 -5.60049E+03  1.43011E+04  3.10475E+03  1.28765E+04  1.11232E+04  5.48889E+03  1.69100E+04
 -1.74379E+03  1.76842E+04 -1.10936E+04  1.12652E+04 -1.28189E+04  2.55797E+03 -9.29592E+03 -2.25691E+03
 -4.82582E+03 -4.25249E+03 -3.84594E+02  1.40075E+03 -2.47208E+03  2.03621E+03 -4.50210E+03  4.18785E+03
 -9.19077E+03 -2.57183E+02 -9.65523E+03 -7.72973E+03 -4.33765E+03 -1.27416E+04  3.87303E+03 -9.77195E+03
  7.89876E+03 -4.00782E+03  5.77753E+03  2.45097E+03  5.05230E+02  3.52436E+03 -4.23981E+03  2.35775E+02
 -4.09704E+03 -6.15486E+03 -1.21512E+03 -7.63398E+03  4.61717E+03 -8.99724E+03  1.15292E+04 -4.87142E+03
  1.36010E+04  6.84196E+02  9.71354E+03  6.84502E+03  1.79125E+03  9.85935E+03 -5.44181E+03  9.38880E+03
 -7.43170E+03  3.11322E+03 -4.22054E+03 -1.89576E+03  1.36921E+03 -2.30036E+03  5.13130E+03 -1.46037E+03
  4.89344E+03  3.95199E+03  1.09288E+03  7.44643E+03 -4.36745E+03  6.71894E+03 -8.97240E+03  1.95014E+03
 -6.01311E+03 -4.05917E+03 -1.80302E+02 -7.43500E+03  4.50150E+03 -3.50019E+03  4.64522E+03  1.09331E+03
  4.20932E+02  4.06450E+03 -4.08887E+03  5.47753E+03 -5.98965E+03  2.93461E+03 -5.17333E+03 -1.58791E+03
 -3.57335E+03 -6.89058E+03  1.84204E+03 -8.04466E+03  6.69086E+03 -5.83621E+03  7.44795E+03  9.34109E+02
  5.49572E+03  6.65451E+03 -7.55235E+01  8.49216E+03 -5.62697E+03  4.23193E+03 -5.79350E+03 -6.76320E+02
 -5.96120E+03 -5.73237E+03 -1.59706E+03 -5.26382E+03  3.05330E+03 -5.36386E+03  3.52847E+03 -2.96448E+03
  3.33355E+03  6.05053E+02  6.98462E+01  5.81744E+02  6.73556E+02 -4.09604E+02  1.91782E+02 -3.13934E+03
  3.96392E+03 -1.21330E+03  5.96307E+03  2.03941E+02  6.79366E+03  3.86414E+03  5.43730E+03  8.61178E+03
 -1.85872E+03  1.03709E+04 -9.00508E+03  7.66479E+03 -1.14021E+04  1.11415E+03 -8.94658E+03 -3.38822E+03
 -4.87315E+03 -7.53748E+03 -1.61006E+02 -6.00575E+03  2.15882E+03 -2.52361E+03  1.89126E+03 -2.45662E+03
  1.87095E+03 -1.65687E+03  2.29872E+03 -2.62783E+03  3.64911E+03 -1.13325E+03  3.99579E+03  1.30861E+02
  4.91312E+03  1.42697E+03  1.13745E+03  3.70165E+03 -1.38532E+03  3.88988E+03 -5.18264E+03  3.37376E+03
 -5.81307E+03 -6.79392E+02 -2.57212E+03 -4.15246E+03  8.24988E+02 -5.88300E+03  3.78265E+03 -6.09964E+03
  5.84921E+03 -4.15620E+03  7.78551E+03  6.66245E+02  5.77972E+03  4.78742E+03  1.17953E+03  7.09293E+03
 -2.26552E+03  6.20815E+03 -4.07783E+03  1.77781E+03 -2.49242E+03 -1.31096E+03 -9.03501E+02 -8.24461E+02
 -1.11985E+03  1.04763E+03 -6.79418E+02  1.94464E+03 -2.71278E+03  1.38534E+03 -4.78680E+03 -2.66144E+02
 -1.93077E+03 -4.41220E+03  5.74572E+02 -5.11770E+03  3.10532E+03 -5.06981E+03  4.02468E+03 -4.32887E+02
  4.59103E+03  2.38134E+03  1.68389E+03  3.61230E+03 -1.13508E+03  5.18498E+03 -2.95761E+03  3.25255E+03
 -4.51468E+03  9.99990E+02 -3.12024E+03 -2.37330E+03 -4.17624E+02 -4.13678E+03  1.92647E+03 -3.09362E+03
  3.06831E+03 -2.09213E+03  1.93539E+03  2.26687E+02  8.33464E+01  1.80566E+03  4.71556E+02  3.14528E+02
  1.82001E+03  5.61946E+02  1.35686E+03  4.77568E+02  1.47272E+03  2.40054E+03  1.18902E+03  1.91501E+03
 -1.53613E+03  3.66222E+03 -2.61544E+03  4.10897E+03 -3.73712E+03  1.66611E+03 -4.53032E+03 -7.52496E+02
 -1.91479E+03 -3.72472E+03  2.08130E+02 -5.34365E+03  2.34462E+03 -2.75188E+03  3.73206E+03 -9.29111E+02
  2.10899E+03  2.31675E+03  4.85007E+02  2.27944E+03 -4.57897E+02  1.74323E+03 -1.19368E+03 -3.48527E+02
 -9.23108E+02 -1.72700E+03  6.91794E+02 -2.03394E+03  1.81147E+03 -1.40058E+03  2.21179E+03  5.88465E+01
  8.82966E+02 -9.78341E+00  7.85505E+02 -2.29418E+02 -1.64471E+02  5.34282E+02  2.00465E+03 -1.38258E+02
 -7.12237E+01 -5.34917E+01  1.74286E+03  1.61344E+02  3.43294E+02  2.21682E+03 -2.79781E+02  3.41260E+03
 -1.77998E+03  1.21081E+03 -2.08109E+03  6.18186E+02 -2.54746E+03 -4.23571E+02  1.68906E+02 -1.82857E+03
  7.72653E+02 -1.72773E+03  3.94484E+02 -1.09903E+03  6.06312E+02  1.89520E+03 -6.81549E+02  1.15608E+03
 -1.74266E+03  9.57277E+02 -1.46904E+03 -1.41801E+03 -6.36577E+02 -2.51440E+03  1.59305E+02 -1.62096E+03
  1.09929E+03 -7.18628E+02  7.20431E+02  1.79576E+02  1.51706E+03  3.46367E+01  7.63659E+02  1.28151E+03
 -6.05446E+02 -2.31114E+02 -6.90334E+02 -4.47091E+02  5.34629E+02 -1.36761E+03  1.85435E+03 -9.72055E+02
  1.37481E+03  3.36910E+02  2.42454E+03  1.13883E+03  1.37825E+03  2.00126E+03 -3.17273E+02  1.53444E+03
 -1.65705E+03  3.81119E+02 -1.08505E+03 -2.92274E+01 -6.13182E+02 -1.60273E+03  4.56999E+02 -5.20402E+02
  1.09319E+03 -8.72251E+02  1.00761E+03  7.84225E+02 -2.90504E+02  1.02796E+03  1.87591E+02  1.20803E+03
 -5.55384E+02  7.17788E+02 -4.78515E+02  2.11484E+02  2.11507E+02 -5.38486E+01 -2.21915E+02  6.07525E+02
 -2.69837E+02  1.62293E+03 -2.07518E+03  3.86138E+02 -1.44742E+03  1.20245E+02 -2.55225E+03 -1.42305E+03
 -5.76240E+02 -2.67711E+03  7.94960E+02 -2.94659E+03  9.43645E+02 -2.92351E+03  2.37778E+03 -1.16872E+03
  2.34985E+03  5.57034E+02  1.17921E+03  1.75929E+03 -8.34014E+02  1.49102E+03 -4.59787E+02  1.49486E+03
 -1.15121E+03  6.69362E+02 -2.12207E+02 -6.75445E+02 -5.82734E+02 -4.90539E+02 -3.96759E+02 -6.33638E+01
 -7.32410E+02 -1.44774E+02 -8.22525E+02 -1.13343E+02  3.48641E+02 -8.20106E+02 -5.71606E+02 -8.23770E+02
  1.47833E+03 -4.80001E+02  4.75764E+02 -5.02288E+02  1.55999E+03  8.79528E+02 -2.82905E+02  1.42467E+03
 -1.17414E+03  2.18343E+03 -1.82400E+03  1.80250E+03 -2.00245E+03 -2.65003E+01 -1.27334E+03 -1.07591E+03
 -7.62290E+02 -1.45146E+03  6.95769E+02 -1.22940E+03  5.39867E+02 -4.87532E+02  4.21320E+02 -1.99217E+01
  4.82786E+02  5.11112E+02  2.33743E+02  3.77019E+02 -4.16305E+02 -7.23265E+01  1.21535E+02 -3.10028E+02
  1.05273E+03  1.76669E+02  4.90937E+02  6.86818E+02 -6.67986E+01  8.73084E+02  6.37307E+02  4.11237E+02
 -6.51098E+02  7.53043E+02 -8.72001E+01 -2.74868E+02 -1.04329E+03 -6.63308E+02 -1.84479E+02 -1.37267E+03
  4.23344E+02 -3.76763E+02  3.75151E+02 -3.88457E+02  9.32439E+02 -4.41386E+02  9.49825E+02  8.58892E+02
  3.80412E+02  3.84426E+02 -3.84475E+02  5.38690E+02 -7.41072E+02  6.85662E+02 -8.91139E+02  7.30881E+01
 -3.06328E+02  1.22161E+02 -8.42440E+02  2.59857E+01 -5.48009E+02  2.07151E+02 -7.93264E+02 -2.24984E+02
 -3.04831E+02 -4.92582E+01 -1.01083E+03 -1.12955E+03  8.49298E+02 -1.71237E+03  8.48228E+02 -3.54631E+02
 -3.77603E+01  1.57723E+01  5.21333E+01  8.06231E+02 -4.42645E+02  7.01492E+02  3.53696E+01  6.26372E+02
