 $NMID ID='MM_0lb_SNR400_18hz_g45_42.RAW', FMTDAT='(8E13.5)'
 TRAMP=1., VOLUME=1. $END
  3.10026E+05  4.14451E+02  3.37435E+05  2.50027E+05  8.44476E+04  3.37648E+05 -1.32836E+05  2.50529E+05
 -1.89453E+05  8.23722E+04 -1.10973E+05 -3.27614E+04  1.50866E+03 -5.03219E+04  5.36367E+04  1.62587E+02
  3.55412E+04  5.29220E+04 -1.72854E+04  7.50054E+04 -6.01710E+04  6.22288E+04 -8.29742E+04  3.13053E+04
 -7.93160E+04 -1.11661E+04 -5.67763E+04 -5.10007E+04 -1.46341E+04 -6.85502E+04  2.68963E+04 -4.45117E+04
  3.89029E+04  4.40456E+03  1.59619E+04  4.72029E+04 -3.35898E+04  4.65360E+04 -6.51953E+04 -1.01490E+03
 -5.21142E+04 -5.61887E+04 -6.63971E+03 -7.49017E+04  3.29471E+04 -5.26126E+04  4.62953E+04 -1.61798E+04
  4.19056E+04  1.11856E+04  3.02381E+04  2.42676E+04  1.61466E+04  2.83768E+04 -4.69880E+03  2.63594E+04
 -2.14964E+04  1.26706E+04 -1.97093E+04 -4.06077E+03  4.31986E+03 -7.57812E+03  2.10422E+04  1.10592E+04
  7.15897E+03  3.36796E+04 -3.00933E+04  3.41758E+04 -6.10029E+04  1.98539E+03 -5.56140E+04 -4.11437E+04
 -1.25668E+04 -6.09016E+04  3.81253E+04 -4.33984E+04  5.58953E+04 -2.21444E+03  3.22944E+04  3.03289E+04
 -6.93132E+03  3.34448E+04 -2.85685E+04  1.30017E+04 -2.79330E+04 -4.93521E+03 -1.52911E+04 -1.06118E+04
 -7.55923E+03 -1.12551E+04 -1.01779E+03 -1.66832E+04  6.50755E+03 -2.26513E+04  1.47371E+04 -1.41421E+04
  1.24925E+04  4.69991E+03 -6.46633E+03  1.36658E+04 -1.94478E+04 -2.77488E+03 -8.09950E+03 -3.04803E+04
  2.11223E+04 -4.07846E+04  4.49201E+04 -1.87804E+04  4.15904E+04  1.86488E+04  1.43236E+04  4.19905E+04
 -1.55226E+04  3.11163E+04 -2.34754E+04  5.10932E+02 -8.20168E+03 -2.58558E+04  2.06898E+04 -3.10905E+04
  3.81607E+04 -6.88506E+03  3.13340E+04  2.32507E+04  1.50650E+04  4.30157E+04 -7.53915E+03  4.55773E+04
 -2.81879E+04  2.99568E+04 -3.68326E+04  8.28968E+03 -3.88701E+04 -1.59259E+04 -2.12674E+04 -3.45410E+04
  6.79025E+03 -3.49842E+04  2.94447E+04 -1.31633E+04  2.63975E+04  1.09503E+04  2.66231E+03  1.80515E+04
 -1.32808E+04  7.55175E+03 -9.93882E+03 -7.54483E+03  6.18377E+03 -9.68824E+03  1.69638E+04  6.24789E+03
  1.27275E+04  2.17979E+04 -6.68257E+03  2.33169E+04 -2.13706E+04  9.82481E+03 -2.50644E+04 -6.40191E+03
 -1.71825E+04 -1.64351E+04 -5.40113E+03 -1.72095E+04  3.86873E+03 -1.52833E+04  1.30393E+04 -1.44123E+04
  2.14618E+04 -1.16781E+04  2.88337E+04  9.50372E+02  2.10886E+04  1.65971E+04  4.15714E+03  3.24297E+04
 -1.62025E+04  2.79220E+04 -2.59399E+04  9.06645E+03 -1.94253E+04 -1.03433E+04 -3.99433E+03 -1.39680E+04
  2.31019E+03 -4.31455E+03 -2.74200E+03  5.33788E+03 -1.31510E+04  5.49384E+03 -1.36282E+04 -5.49021E+03
 -8.61566E+03 -1.60192E+04  4.79088E+03 -1.97467E+04  1.28555E+04 -1.37077E+04  1.50149E+04 -1.09981E+03
  9.63169E+03  1.09665E+04 -4.95151E+02  1.58020E+04 -1.03185E+04  9.02249E+03 -1.56144E+04 -2.96756E+03
 -1.15291E+04 -1.45162E+04 -1.26930E+03 -1.92741E+04  8.98978E+03 -1.53622E+04  1.58193E+04 -7.21075E+03
  1.49542E+04  8.23770E+02  1.05047E+04  4.00257E+03  5.65146E+03  6.53777E+01  8.18504E+03 -1.12875E+03
  1.39689E+04  2.32489E+03  1.46535E+04  1.24710E+04  9.42971E+03  2.51814E+04 -3.30199E+03  2.69906E+04
 -1.56965E+04  2.01509E+04 -2.52202E+04  9.69147E+03 -2.49962E+04 -2.03363E+03 -2.16596E+04 -1.45028E+04
 -1.03178E+04 -2.06920E+04  7.19867E+03 -1.93222E+04  1.64592E+04 -1.09346E+04  1.60323E+04  3.84851E+03
  6.35373E+03  1.11534E+04 -7.22861E+03  1.06633E+04 -1.30772E+04  3.00631E+03 -1.09679E+04 -7.89940E+03
 -2.19614E+02 -1.22599E+04  5.95368E+03 -8.97519E+03  8.26644E+03 -1.36736E+03  1.23902E+03  4.79744E+03
 -6.19884E+03  1.87628E+03 -3.41820E+03 -4.14289E+03  2.02562E+02 -1.08185E+04  7.88629E+03 -1.02600E+04
  1.25321E+04 -4.30393E+03  1.23608E+04  2.32747E+03  1.03858E+04  1.00690E+04  5.05372E+03  1.42077E+04
 -1.81283E+03  1.64919E+04 -9.80411E+03  1.02946E+04 -1.15647E+04  3.45630E+03 -8.66314E+03 -1.54661E+03
 -4.49802E+03 -3.31523E+03 -1.41286E+03  1.64910E+03 -1.84920E+03  1.74463E+03 -3.81878E+03  3.72476E+03
 -8.12724E+03 -5.27516E+02 -8.62004E+03 -6.73672E+03 -3.78521E+03 -1.16506E+04  3.64222E+03 -8.74466E+03
  7.18513E+03 -3.63983E+03  5.42007E+03  2.34716E+03  1.04551E+03  3.18176E+03 -3.67665E+03  3.42284E+02
 -3.64219E+03 -5.46707E+03 -7.61808E+02 -7.19121E+03  3.84569E+03 -7.86296E+03  1.00879E+04 -4.32206E+03
  1.19715E+04  4.98958E+02  8.53280E+03  6.19887E+03  1.66773E+03  9.39089E+03 -5.39311E+03  8.51597E+03
 -7.10978E+03  3.38624E+03 -3.17859E+03 -1.54959E+03  1.30623E+03 -1.86362E+03  4.40726E+03 -9.39060E+02
  3.82913E+03  3.13585E+03  1.30241E+03  6.37556E+03 -4.62259E+03  6.80085E+03 -7.60439E+03  1.73205E+03
 -5.27822E+03 -4.01260E+03  1.88926E+02 -6.82219E+03  3.88264E+03 -3.19922E+03  4.46601E+03  5.10797E+02
  5.44927E+02  3.82532E+03 -3.48530E+03  4.87116E+03 -4.92774E+03  2.69646E+03 -4.76376E+03 -1.55137E+03
 -3.31894E+03 -6.12310E+03  1.15387E+03 -7.38391E+03  5.75258E+03 -4.85958E+03  6.81447E+03  5.96413E+02
  4.19066E+03  5.04346E+03  2.62761E+02  7.46907E+03 -5.03156E+03  3.71327E+03 -5.21579E+03 -1.13868E+02
 -5.35520E+03 -5.18740E+03 -1.21894E+03 -5.27502E+03  2.51558E+03 -4.99842E+03  3.33117E+03 -2.52875E+03
  3.08982E+03  1.90590E+02  6.34424E+01  1.14460E+03  2.06568E+02 -3.14426E+02  1.49828E+02 -1.68535E+03
  3.83356E+03 -9.57041E+02  4.96415E+03  4.81626E+02  5.61647E+03  3.64022E+03  5.46356E+03  6.86230E+03
 -1.76027E+03  9.44928E+03 -7.75366E+03  6.82848E+03 -1.00326E+04  1.41130E+03 -8.09123E+03 -2.27419E+03
 -4.17026E+03 -7.01993E+03 -2.97433E+01 -5.25405E+03  1.46858E+03 -2.06446E+03  2.37470E+03 -2.17305E+03
  1.11491E+03 -1.66004E+03  2.37713E+03 -2.46625E+03  3.82460E+03 -1.10960E+03  3.74836E+03  2.96216E+01
  4.64194E+03  9.47504E+02  1.64625E+03  3.58574E+03 -1.89883E+03  3.12511E+03 -4.50688E+03  2.99862E+03
 -5.52375E+03 -1.09595E+03 -1.69779E+03 -3.65844E+03  4.15652E+02 -5.45099E+03  3.54271E+03 -5.51218E+03
  5.53277E+03 -3.40256E+03  6.57541E+03  6.58027E+02  5.23441E+03  3.89966E+03  1.22556E+03  6.37659E+03
 -2.37571E+03  5.99804E+03 -3.88347E+03  2.00709E+03 -2.28338E+03 -1.03056E+03 -7.58511E+02 -4.27616E+01
 -5.61052E+02 -1.07273E+02 -1.45670E+03  2.03305E+03 -2.42396E+03  1.39020E+03 -4.31675E+03 -4.14128E+02
 -2.01740E+03 -4.06656E+03  9.17250E+02 -4.84218E+03  2.59245E+03 -4.54401E+03  4.12397E+03 -1.37229E+03
  4.21460E+03  1.99180E+03  1.66451E+03  3.45927E+03 -5.17857E+02  4.81280E+03 -2.39350E+03  2.97783E+03
 -4.57319E+03  6.34218E+02 -3.69043E+03 -2.60022E+03 -5.83850E+01 -3.33466E+03  1.36474E+03 -2.53892E+03
  2.74960E+03 -1.05719E+03  1.64693E+03  3.75009E+02  3.19310E+02  1.84591E+03  7.91956E+02  3.87496E+02
  2.09828E+03  4.12064E+02  1.03389E+03  9.61442E+02  1.00106E+03  1.94334E+03  1.41745E+03  1.71655E+03
 -1.05105E+03  2.91134E+03 -2.85189E+03  3.99299E+03 -3.43556E+03  1.03355E+03 -4.44049E+03 -4.26348E+02
 -1.74189E+03 -3.46611E+03  9.54857E+02 -5.20490E+03  2.11124E+03 -2.60833E+03  3.36006E+03 -1.19048E+03
  2.80577E+03  1.71131E+03 -1.95819E+02  2.27131E+03 -5.78205E+02  1.44134E+03 -9.27886E+02  3.82674E+02
 -5.08304E+02 -1.68944E+03  1.19663E+03 -1.47143E+03  1.83891E+03 -1.16420E+03  1.76766E+03  7.91628E+01
  7.60384E+02  1.06493E+02  1.44569E+03 -5.63202E+02 -9.21169E+01  8.97237E+02  1.36963E+03  1.23128E+02
 -2.38945E+02 -3.02103E+02  2.01684E+03  1.01280E+03  2.12097E+02  2.08277E+03 -8.36210E+02  3.23109E+03
 -1.85909E+03  6.49835E+02 -2.58655E+03  4.29019E+02 -2.24127E+03 -6.36280E+02 -2.20237E+02 -1.30235E+03
  7.00185E+02 -1.40659E+03  4.27390E+02 -4.92525E+02  8.30581E+02  1.13662E+03 -4.43804E+02  1.16372E+03
 -1.73049E+03  7.43234E+02 -1.71938E+03 -1.64672E+03 -1.06971E+03 -2.53531E+03 -8.64070E+01 -1.44818E+03
  7.76847E+02 -5.45029E+02  6.04097E+02 -3.97234E+01  1.66450E+03  4.30235E+02  7.40497E+02  1.41655E+03
 -3.28826E+02  5.50295E+01 -9.61973E+02 -5.23701E+02  6.45411E+02 -1.53104E+03  1.82064E+03 -9.87276E+02
  1.26457E+03  4.01760E+01  2.64204E+03  8.64727E+02  9.01026E+02  1.29648E+03 -2.70239E+02  1.68815E+03
 -1.81096E+03  1.28091E+02 -1.76190E+03 -2.63283E+02 -6.83903E+02 -1.96736E+03  3.62895E+02 -4.42573E+02
  1.78042E+03 -3.80725E+02  6.77908E+02  6.52227E+02  2.38838E+02  1.07439E+03  1.51751E+02  1.47468E+03
 -9.44540E+01  8.58380E+02 -3.35161E+02 -4.88946E+00 -1.05989E+02  4.35877E+02 -6.94120E+02  7.89685E+02
 -9.30454E+02  1.41304E+03 -1.87171E+03  6.95473E+02 -2.09947E+03  5.06366E+02 -2.50290E+03 -7.23684E+02
 -1.41740E+03 -2.14453E+03  2.35324E+02 -2.91606E+03  3.63035E+02 -2.32656E+03  2.83906E+03 -1.56488E+03
  2.41877E+03 -5.37105E+01  1.34988E+03  2.24863E+03 -6.22888E+02  1.09810E+03 -4.67667E+02  1.40537E+03
 -5.96208E+02  2.43532E+02 -6.09709E+02 -4.44362E+01 -2.99834E+02  2.24609E+02 -1.74051E+02 -1.55845E+02
 -9.85451E+02 -6.29302E+02 -9.52027E+02 -5.39625E+01  3.00850E+02 -2.39710E+02  3.37249E+02 -1.05542E+03
  1.17838E+03 -1.10794E+03  2.56196E+02  2.77742E+02  1.10319E+03  2.68602E+02 -8.31944E+01  1.57677E+03
 -5.16175E+02  2.35068E+03 -1.87753E+03  1.76761E+03 -2.33137E+03 -2.24809E+01 -1.99235E+03 -1.28222E+03
 -1.06981E+03 -1.62509E+03  4.57631E+02 -1.36214E+03  5.34540E+02 -9.65083E+02  7.07898E+02 -1.23696E+02
  6.81301E+02  2.11836E+02  1.31201E+02  5.51518E+02 -4.16953E+02 -4.02835E+02  8.51129E+01 -3.99639E+02
  9.26891E+02  4.92321E+02  3.02881E+02  1.60802E+02  1.26319E+02  8.09739E+02  1.39507E+02  9.38598E+02
 -8.09321E+02  4.13111E+02 -5.51920E+02  4.53590E+02 -1.01049E+03 -2.60924E+02  4.03424E+02 -1.28857E+03
  7.41788E+02 -8.12350E+02  7.50779E+02  2.48488E+02  7.68576E+02 -4.86259E+02  6.81112E+02  1.00151E+03
  1.03479E+03  5.77035E+02 -1.06188E+02  1.01893E+03 -1.16451E+03  6.63106E+02 -3.51865E+02  1.86946E+02
 -3.32251E+02 -1.18768E+02 -7.44532E+02  3.74582E+02 -6.48586E+02  5.80351E+02 -4.92715E+02 -4.44574E+02
 -9.28441E+02  5.10688E+02 -4.42006E+02 -1.15490E+03  3.84113E+02 -1.74366E+03  7.76406E+01 -4.20675E+02
  4.13866E+02  1.56387E+02 -4.19135E+02  1.57401E+02 -2.37772E+01  8.48868E+02 -6.22272E+02  1.03165E+03
