 $NMID ID='MM_0lb_SNR400_12hz_g40_57.RAW', FMTDAT='(8E13.5)'
 TRAMP=1., VOLUME=1. $END
  3.10349E+05  5.58954E+02  3.37693E+05  2.50101E+05  8.40319E+04  3.37359E+05 -1.32632E+05  2.51235E+05
 -1.89987E+05  8.34607E+04 -1.11726E+05 -3.27987E+04  1.24565E+03 -5.09030E+04  5.37495E+04 -3.68495E+02
  3.53466E+04  5.33550E+04 -1.68405E+04  7.63697E+04 -6.10646E+04  6.33377E+04 -8.47722E+04  3.20470E+04
 -8.06567E+04 -1.11087E+04 -5.77813E+04 -5.17453E+04 -1.52155E+04 -7.02714E+04  2.73189E+04 -4.59981E+04
  4.05517E+04  4.10627E+03  1.58303E+04  4.80125E+04 -3.41115E+04  4.78801E+04 -6.75114E+04 -3.68057E+02
 -5.33100E+04 -5.69220E+04 -7.21038E+03 -7.75668E+04  3.39358E+04 -5.47649E+04  4.86030E+04 -1.75907E+04
  4.34936E+04  1.16107E+04  3.20377E+04  2.58712E+04  1.64085E+04  2.99630E+04 -4.77971E+03  2.73069E+04
 -2.24785E+04  1.17558E+04 -1.83855E+04 -5.00944E+03  6.32380E+03 -7.35915E+03  2.24162E+04  1.22545E+04
  7.36277E+03  3.58332E+04 -3.20587E+04  3.55011E+04 -6.32543E+04  2.29484E+03 -5.79948E+04 -4.33149E+04
 -1.25195E+04 -6.38895E+04  4.02803E+04 -4.54995E+04  5.85059E+04 -2.19520E+03  3.43704E+04  3.22951E+04
 -4.77370E+03  3.68583E+04 -3.01479E+04  1.60051E+04 -3.06338E+04 -4.39063E+03 -1.66722E+04 -1.12459E+04
 -7.32147E+03 -1.33259E+04 -6.17218E+02 -1.78452E+04  7.31986E+03 -2.29148E+04  1.47658E+04 -1.38063E+04
  1.11083E+04  5.47543E+03 -8.65825E+03  1.32459E+04 -2.15900E+04 -4.87361E+03 -8.77045E+03 -3.40608E+04
  2.30161E+04 -4.42786E+04  4.85863E+04 -1.98332E+04  4.55325E+04  1.99815E+04  1.62082E+04  4.42416E+04
 -1.62633E+04  3.42010E+04 -2.58451E+04  1.38237E+03 -1.05778E+04 -2.79688E+04  2.07290E+04 -3.43347E+04
  4.18250E+04 -9.53795E+03  3.60763E+04  2.44833E+04  1.84568E+04  4.79404E+04 -7.99997E+03  5.11256E+04
 -3.26350E+04  3.46106E+04 -4.27085E+04  1.00722E+04 -4.32979E+04 -1.76835E+04 -2.43124E+04 -3.85472E+04
  7.36571E+03 -3.83230E+04  3.19522E+04 -1.45979E+04  3.00727E+04  1.13409E+04  4.19540E+03  1.89313E+04
 -1.32352E+04  8.30822E+03 -1.07666E+04 -7.73138E+03  5.13738E+03 -1.07161E+04  1.91594E+04  6.79371E+03
  1.36635E+04  2.21832E+04 -5.15372E+03  2.56899E+04 -2.21526E+04  1.12882E+04 -2.81771E+04 -4.51216E+03
 -2.11444E+04 -1.74310E+04 -8.84997E+03 -2.15389E+04  4.74299E+03 -2.06250E+04  1.67481E+04 -1.86696E+04
  2.71698E+04 -1.35385E+04  3.30480E+04  2.96053E+03  2.39278E+04  2.07518E+04  4.18594E+03  3.78954E+04
 -1.90329E+04  3.06968E+04 -2.78175E+04  1.12740E+04 -2.09991E+04 -1.02606E+04 -4.32717E+03 -1.38368E+04
  1.59040E+03 -2.53171E+03 -5.37153E+03  6.89625E+03 -1.67450E+04  5.48410E+03 -1.71136E+04 -7.80565E+03
 -1.07238E+04 -2.00242E+04  4.69409E+03 -2.45428E+04  1.59985E+04 -1.68256E+04  1.86694E+04 -1.41369E+03
  1.14691E+04  1.44429E+04 -9.24471E+02  1.97313E+04 -1.35320E+04  1.08516E+04 -1.97680E+04 -3.83193E+03
 -1.50563E+04 -1.85731E+04 -1.60900E+03 -2.37819E+04  1.08454E+04 -1.92855E+04  1.98376E+04 -9.60037E+03
  1.91079E+04 -5.55350E+01  1.26440E+04  4.10511E+03  6.86471E+03  8.07750E+02  1.06275E+04 -2.15854E+03
  1.80738E+04  2.34779E+03  2.09616E+04  1.54949E+04  1.42883E+04  3.22000E+04 -2.32888E+03  3.66305E+04
 -2.08501E+04  2.91741E+04 -3.38246E+04  1.48894E+04 -3.64718E+04 -3.02259E+03 -2.94879E+04 -2.05603E+04
 -1.27987E+04 -2.98850E+04  9.99398E+03 -2.64879E+04  2.33185E+04 -1.32530E+04  2.05437E+04  5.99227E+03
  7.47909E+03  1.47071E+04 -9.10482E+03  1.31409E+04 -1.70838E+04  2.49838E+03 -1.30706E+04 -1.03441E+04
 -8.94386E+01 -1.62603E+04  8.76156E+03 -1.25030E+04  1.07983E+04 -1.51355E+03  3.23254E+03  6.94144E+03
 -7.02482E+03  3.14510E+03 -6.26422E+03 -6.01889E+03 -6.32055E+02 -1.46241E+04  9.44501E+03 -1.56550E+04
  1.75651E+04 -9.47908E+03  1.97295E+04  3.18982E+03  1.71172E+04  1.43645E+04  8.02230E+03  2.23644E+04
 -3.86975E+03  2.40535E+04 -1.52027E+04  1.44936E+04 -1.72020E+04  3.30025E+03 -1.27817E+04 -3.70376E+03
 -5.18657E+03 -5.06482E+03 -1.06447E+03  5.69009E+02 -2.41137E+03  2.62769E+03 -5.64090E+03  4.54271E+03
 -1.19446E+04 -1.10992E+03 -1.26285E+04 -1.01257E+04 -5.22076E+03 -1.61993E+04  4.99565E+03 -1.23065E+04
  9.68182E+03 -5.96778E+03  7.72817E+03  2.68575E+03  6.61519E+02  4.40584E+03 -6.10250E+03 -1.59610E+02
 -5.67076E+03 -7.93116E+03 -1.39749E+03 -1.18800E+04  6.62519E+03 -1.21302E+04  1.50079E+04 -6.62867E+03
  1.76442E+04  1.34292E+03  1.35145E+04  1.06364E+04  3.00349E+03  1.43686E+04 -7.64956E+03  1.26452E+04
 -1.02149E+04  3.17640E+03 -5.21225E+03 -1.82917E+03  2.49125E+03 -3.82675E+03  6.85543E+03 -4.96556E+02
  5.48648E+03  5.62523E+03  1.13831E+03  9.08204E+03 -6.88792E+03  9.78720E+03 -1.19191E+04  2.64831E+03
 -8.54759E+03 -6.20508E+03  3.29492E+00 -9.85235E+03  6.78041E+03 -4.83831E+03  6.74036E+03  2.38039E+03
  1.17442E+03  6.86040E+03 -6.62978E+03  8.71948E+03 -9.78746E+03  3.61972E+03 -9.97111E+03 -2.83467E+03
 -5.38184E+03 -1.14686E+04  2.02228E+03 -1.24712E+04  1.12518E+04 -8.38582E+03  1.21732E+04  2.04295E+03
  7.25091E+03  9.81659E+03 -1.01814E+03  1.18128E+04 -8.13987E+03  6.64901E+03 -9.22636E+03 -7.61297E+02
 -8.40175E+03 -8.08528E+03 -1.25264E+03 -8.46978E+03  4.45204E+03 -7.52518E+03  4.83414E+03 -3.56431E+03
  3.26032E+03  1.49464E+03 -5.59128E+02  1.63022E+03 -2.11475E+02 -1.96860E+03  2.16162E+03 -4.77808E+03
  7.19569E+03 -3.53196E+03  1.09209E+04  8.05891E+02  1.11457E+04  7.95323E+03  7.86078E+03  1.45271E+04
 -3.48643E+03  1.68110E+04 -1.36308E+04  1.19923E+04 -1.81135E+04  2.45633E+03 -1.47266E+04 -6.03842E+03
 -7.18427E+03 -1.22908E+04 -6.62842E+02 -1.01225E+04  3.95811E+03 -5.22263E+03  3.14741E+03 -3.30237E+03
  2.36517E+03 -2.57662E+03  3.55166E+03 -2.89689E+03  4.63728E+03 -1.77881E+03  5.86215E+03 -6.15097E+02
  8.21791E+03  2.18495E+03  3.94440E+03  6.35813E+03 -2.24073E+03  6.97740E+03 -7.96568E+03  5.39816E+03
 -9.65720E+03 -5.45493E+02 -5.60711E+03 -7.42102E+03 -3.76184E+02 -1.08568E+04  5.67308E+03 -1.09320E+04
  1.09351E+04 -6.52415E+03  1.35414E+04  1.53497E+03  9.48091E+03  9.01218E+03  1.12787E+03  1.22223E+04
 -4.67618E+03  1.13097E+04 -6.85324E+03  3.27431E+03 -4.38699E+03 -1.54102E+03 -1.82600E+03 -9.92871E+02
 -1.46028E+03  6.86324E+02 -1.27553E+03  2.11566E+03 -4.39865E+03  1.49512E+03 -6.93979E+03 -2.28896E+03
 -4.03110E+03 -7.19328E+03  1.27790E+02 -9.86256E+03  6.82931E+03 -9.59648E+03  9.22010E+03 -2.70780E+03
  8.94645E+03  4.95311E+03  4.66210E+03  9.00255E+03 -1.44292E+03  9.85564E+03 -6.73366E+03  6.32819E+03
 -9.51481E+03  1.29613E+03 -6.92078E+03 -6.05032E+03 -9.88308E+02 -7.61809E+03  4.32700E+03 -5.89983E+03
  6.06962E+03 -2.04472E+03  3.84687E+03  1.73538E+03  1.94655E+03  2.84992E+03  7.66912E+02  1.58860E+03
  2.00081E+03  1.06855E+03  1.59980E+03  1.95649E+03  2.38564E+03  3.15390E+03  2.93324E+03  4.95271E+03
 -2.26669E+03  7.11020E+03 -6.59723E+03  7.46288E+03 -9.91205E+03  2.14763E+03 -9.91127E+03 -3.12662E+03
 -4.82945E+03 -9.44018E+03  1.29613E+03 -1.05232E+04  5.57904E+03 -6.74387E+03  8.09073E+03 -2.56468E+03
  6.25346E+03  3.16506E+03  9.16744E+02  5.93334E+03 -2.40306E+03  3.93274E+03 -4.06127E+03 -1.15289E+02
 -2.19365E+03 -3.33755E+03  2.57012E+03 -4.14318E+03  3.27719E+03 -1.98256E+03  3.83066E+03  3.04981E+02
  2.16061E+03  1.93222E+03  7.54866E+02  8.46192E+02 -6.49303E+02  1.68432E+03  1.59995E+03 -4.37061E+01
  1.70577E+03 -4.96095E+02  3.76201E+03  1.49807E+03  2.30778E+03  5.86314E+03 -1.17268E+03  7.38782E+03
 -4.61862E+03  3.55047E+03 -5.50166E+03  1.25946E+03 -5.93860E+03 -1.72181E+03 -2.09378E+03 -3.37811E+03
  7.32874E+02 -4.28501E+03  2.22107E+03 -1.83264E+03  2.16922E+03  1.57453E+03 -8.53969E+02  3.15809E+03
 -4.25122E+03  1.29876E+03 -3.73132E+03 -2.67625E+03 -1.81662E+03 -5.21089E+03  7.99367E+02 -5.01104E+03
  2.94808E+03 -2.88198E+03  3.43576E+03 -1.61789E+02  2.75257E+03  1.37849E+03  5.94503E+02  2.19624E+03
 -1.81964E+03  9.53699E+02 -2.30634E+03 -1.64631E+03  7.48361E+02 -4.13551E+03  3.76590E+03 -3.26759E+03
  4.81252E+03  1.17051E+03  6.99249E+03  3.47134E+03  1.55237E+03  5.83061E+03 -1.46970E+03  5.68572E+03
 -4.93329E+03  2.50007E+03 -4.27915E+03 -4.00948E+02 -3.14707E+03 -4.28179E+03  9.71624E+02 -2.85908E+03
  4.32004E+03 -1.48336E+03  2.67167E+03  1.22998E+03  7.60099E+02  3.58223E+03 -4.23849E+02  3.31143E+03
 -1.35091E+03  2.25446E+03 -1.47819E+03  5.63236E+02 -6.83483E+02  9.06496E+02 -1.28524E+03  6.60889E+02
 -1.73028E+03  2.54601E+03 -4.66555E+03  1.86162E+03 -5.89238E+03  6.28635E+02 -6.27999E+03 -4.01811E+03
 -3.16567E+03 -7.24759E+03  1.70082E+03 -8.69673E+03  4.81830E+03 -7.48143E+03  9.18832E+03 -2.49488E+03
  8.34020E+03  1.05933E+03  4.34609E+03  5.94968E+03 -3.99824E+02  5.64654E+03 -2.77733E+03  4.31611E+03
 -3.04935E+03  1.82427E+03 -2.13483E+03 -1.27934E+03 -4.96275E+02 -1.01372E+03 -7.22513E+02 -3.43114E+02
 -1.24543E+03 -1.47399E+02 -1.30476E+03  2.30471E+02 -7.96792E+02 -1.86803E+03 -8.22933E+02 -2.22059E+03
  2.67566E+03 -1.30266E+03  3.50353E+03  5.40501E+02  3.72216E+03  3.15944E+03  6.51409E+02  5.54462E+03
 -2.69373E+03  6.77942E+03 -6.10391E+03  3.71418E+03 -5.71664E+03 -6.93819E+02 -4.76068E+03 -4.42565E+03
 -2.26623E+03 -5.76293E+03  1.82447E+03 -5.06483E+03  3.81038E+03 -2.57129E+03  2.85944E+03  3.16934E+02
  2.02325E+03  1.98471E+03 -7.24466E+01  1.28304E+03 -1.18982E+03  2.96421E+02 -2.16821E+02 -1.29827E+03
  1.64279E+03 -4.69870E+01  1.85817E+03  9.72086E+02  1.38477E+03  2.06299E+03  5.59497E+02  3.06283E+03
 -2.99198E+03  2.83982E+03 -4.17352E+03  3.94273E+02 -2.65568E+03 -2.12448E+03 -1.06087E+03 -4.41468E+03
  2.59942E+03 -3.34467E+03  3.64498E+03 -9.06978E+02  3.95749E+03  6.72727E+02  2.65410E+03  3.34421E+03
  6.62076E+02  3.55290E+03 -1.36459E+03  3.55968E+03 -2.66131E+03  2.27953E+03 -1.01928E+03  1.49972E+02
 -7.30096E+02  4.51422E+02 -1.02443E+03  2.67520E+02 -1.78387E+03  4.43813E+02 -2.97231E+03 -7.04617E+02
 -2.77137E+03 -1.58783E+03 -7.92668E+02 -3.48020E+03  1.89090E+03 -3.78006E+03  3.23239E+03 -1.72416E+03
  3.51833E+03  2.24895E+02  1.26321E+03  1.93384E+03 -2.37878E+01  3.94163E+03 -3.23136E+03  2.50539E+03
