 $NMID ID='MM_0lb_SNR400_9hz_g55_55.RAW', FMTDAT='(8E13.5)'
 TRAMP=1., VOLUME=1. $END
  3.09202E+05 -9.69577E+01  3.37807E+05  2.50665E+05  8.53540E+04  3.38852E+05 -1.33460E+05  2.52741E+05
 -1.90994E+05  8.43981E+04 -1.12203E+05 -3.21133E+04  4.22101E+02 -5.09356E+04  5.29948E+04 -4.88311E+02
  3.58593E+04  5.26622E+04 -1.68655E+04  7.61509E+04 -6.17824E+04  6.44210E+04 -8.59689E+04  3.31177E+04
 -8.23152E+04 -1.12873E+04 -5.83859E+04 -5.31505E+04 -1.48140E+04 -7.19629E+04  2.76961E+04 -4.71325E+04
  4.16378E+04  3.70872E+03  1.76664E+04  4.82171E+04 -3.49140E+04  4.94916E+04 -6.93591E+04 -1.05186E+02
 -5.49096E+04 -5.80365E+04 -6.68718E+03 -7.89496E+04  3.55058E+04 -5.72678E+04  5.00352E+04 -1.86870E+04
  4.57761E+04  1.11642E+04  3.21646E+04  2.60638E+04  1.60057E+04  3.04264E+04 -5.57380E+03  2.82285E+04
 -2.26021E+04  1.15206E+04 -1.74052E+04 -6.29937E+03  7.11482E+03 -6.45945E+03  2.39146E+04  1.43657E+04
  7.06182E+03  3.73118E+04 -3.42823E+04  3.77937E+04 -6.63040E+04  2.06161E+03 -5.84604E+04 -4.51183E+04
 -1.22809E+04 -6.57600E+04  4.16448E+04 -4.83041E+04  6.12569E+04 -2.29557E+03  3.72225E+04  3.48697E+04
 -5.39910E+03  4.01475E+04 -3.20068E+04  1.84929E+04 -3.33176E+04 -3.92564E+03 -1.95357E+04 -1.16458E+04
 -1.03777E+04 -1.47621E+04 -5.92021E+02 -2.01699E+04  8.91789E+03 -2.34005E+04  1.59790E+04 -1.22301E+04
  9.94753E+03  7.64870E+03 -1.02206E+04  1.31315E+04 -2.46313E+04 -6.73755E+03 -9.54514E+03 -3.83840E+04
  2.49569E+04 -4.66553E+04  5.16572E+04 -2.20117E+04  4.84344E+04  2.08538E+04  1.79336E+04  4.73781E+04
 -1.60768E+04  3.69721E+04 -2.77829E+04  1.34577E+03 -1.25040E+04 -2.95120E+04  2.16487E+04 -3.74411E+04
  4.50340E+04 -1.18909E+04  4.02951E+04  2.47898E+04  2.12511E+04  5.19300E+04 -7.64171E+03  5.67940E+04
 -3.57579E+04  3.87944E+04 -4.81987E+04  1.08574E+04 -4.75746E+04 -1.92733E+04 -2.68168E+04 -4.25902E+04
  8.21810E+03 -4.24483E+04  3.43455E+04 -1.72689E+04  3.31847E+04  1.08583E+04  4.64257E+03  2.18434E+04
 -1.31926E+04  9.51737E+03 -1.11250E+04 -7.41089E+03  6.06130E+03 -1.15048E+04  1.95636E+04  6.20295E+03
  1.47705E+04  2.33234E+04 -4.98321E+03  2.68548E+04 -2.46117E+04  1.42359E+04 -3.16575E+04 -2.48639E+03
 -2.60771E+04 -1.80818E+04 -1.17979E+04 -2.59188E+04  4.09788E+03 -2.65213E+04  1.99420E+04 -2.49250E+04
  3.29703E+04 -1.38466E+04  3.91002E+04  4.96065E+03  2.76227E+04  2.52929E+04  4.01406E+03  4.21343E+04
 -2.06034E+04  3.35129E+04 -3.07708E+04  1.16203E+04 -2.19668E+04 -1.05327E+04 -4.72084E+03 -1.23498E+04
  1.39962E+03 -1.49066E+03 -7.83371E+03  8.75696E+03 -2.06358E+04  4.88797E+03 -2.04970E+04 -9.50115E+03
 -1.17260E+04 -2.40327E+04  6.76693E+03 -2.82239E+04  1.87750E+04 -1.97576E+04  2.29267E+04 -2.09767E+03
  1.46021E+04  1.57920E+04 -9.09135E+02  2.37146E+04 -1.76583E+04  1.37771E+04 -2.35681E+04 -4.50775E+03
 -1.72469E+04 -2.11863E+04 -1.78109E+03 -2.77124E+04  1.26073E+04 -2.43150E+04  2.32483E+04 -1.19548E+04
  2.27608E+04 -7.51686E+02  1.62858E+04  5.50221E+03  9.08417E+03  1.33518E+03  1.20017E+04 -2.34713E+03
  2.24950E+04  2.14832E+03  2.62576E+04  1.82617E+04  1.79060E+04  3.89421E+04 -2.84368E+03  4.58634E+04
 -2.58535E+04  3.79127E+04 -4.23621E+04  1.91444E+04 -4.63678E+04 -3.34220E+03 -3.67564E+04 -2.70144E+04
 -1.37622E+04 -3.73155E+04  1.41332E+04 -3.37283E+04  2.80981E+04 -1.61659E+04  2.48237E+04  7.63714E+03
  8.85091E+03  1.93502E+04 -1.14143E+04  1.54640E+04 -2.13943E+04  3.23584E+03 -1.57669E+04 -1.24516E+04
 -6.72837E+02 -1.93791E+04  1.04094E+04 -1.38767E+04  1.34392E+04 -1.44727E+03  3.85738E+03  9.85933E+03
 -9.89944E+03  4.62417E+03 -9.30683E+03 -6.93092E+03 -1.59289E+03 -1.86031E+04  1.24864E+04 -2.01616E+04
  2.42093E+04 -1.10221E+04  2.69281E+04  2.89295E+03  2.38437E+04  1.88950E+04  1.16634E+04  3.01378E+04
 -5.46678E+03  3.19328E+04 -2.14751E+04  1.98984E+04 -2.37733E+04  3.68242E+03 -1.58584E+04 -6.10813E+03
 -6.74341E+03 -7.03528E+03 -2.88691E+02  1.43721E+03 -3.50653E+03  3.66073E+03 -7.84589E+03  5.80001E+03
 -1.47084E+04 -1.56305E+03 -1.58641E+04 -1.21129E+04 -6.26299E+03 -2.02332E+04  6.07369E+03 -1.54632E+04
  1.29852E+04 -6.46825E+03  9.95529E+03  4.67869E+03  3.31472E+02  6.06700E+03 -7.43458E+03 -7.11483E+02
 -7.91116E+03 -1.00566E+04 -1.29052E+03 -1.56085E+04  9.32492E+03 -1.67897E+04  2.05012E+04 -9.44144E+03
  2.42518E+04  2.40506E+03  1.82562E+04  1.45345E+04  3.46237E+03  1.92337E+04 -9.98349E+03  1.62080E+04
 -1.34017E+04  4.22251E+03 -6.76000E+03 -3.58789E+03  2.67086E+03 -5.05841E+03  8.23280E+03 -7.76280E+02
  7.55831E+03  7.00152E+03  6.86631E+02  1.33209E+04 -9.31871E+03  1.30977E+04 -1.65104E+04  3.19479E+03
 -1.15388E+04 -9.00151E+03  5.36779E+02 -1.36705E+04  9.61989E+03 -6.65178E+03  1.00050E+04  2.92110E+03
  3.08919E+03  9.87110E+03 -9.09269E+03  1.19374E+04 -1.43112E+04  5.56677E+03 -1.43153E+04 -5.18526E+03
 -8.73712E+03 -1.64430E+04  4.66825E+03 -1.89289E+04  1.53639E+04 -1.10215E+04  1.76371E+04  3.04612E+03
  1.05057E+04  1.31933E+04 -1.97201E+03  1.64218E+04 -1.20160E+04  8.92723E+03 -1.36881E+04 -2.08674E+03
 -1.14280E+04 -1.14875E+04 -1.38581E+03 -1.23378E+04  6.12799E+03 -1.02525E+04  7.66239E+03 -3.87331E+03
  5.57185E+03  2.26089E+03 -1.23008E+03  2.42446E+03 -1.19387E+03 -3.95954E+03  2.62778E+03 -8.33543E+03
  1.18333E+04 -5.28741E+03  1.74084E+04  1.82065E+03  1.60666E+04  1.13585E+04  1.06687E+04  2.23310E+04
 -5.40121E+03  2.51560E+04 -2.05492E+04  1.91052E+04 -2.70354E+04  3.39646E+03 -2.14188E+04 -9.32973E+03
 -1.08479E+04 -1.81824E+04 -3.29832E+02 -1.52886E+04  5.33673E+03 -8.32264E+03  5.66861E+03 -5.23556E+03
  3.56720E+03 -3.12867E+03  4.19984E+03 -3.60688E+03  5.34657E+03 -3.65988E+03  9.07869E+03 -9.63114E+02
  1.05540E+04  2.26454E+03  5.78392E+03  8.69062E+03 -1.94432E+03  1.21056E+04 -1.18256E+04  8.94258E+03
 -1.55217E+04 -1.18362E+03 -1.02067E+04 -1.03405E+04 -1.04473E+03 -1.66708E+04  9.00880E+03 -1.63772E+04
  1.72732E+04 -8.22470E+03  2.05246E+04  2.80363E+03  1.44754E+04  1.48325E+04  2.79986E+03  1.92088E+04
 -7.86237E+03  1.50667E+04 -1.00225E+04  5.01944E+03 -7.27478E+03 -1.01083E+03 -2.61864E+03 -2.69654E+03
 -2.01924E+03 -9.66134E+01 -2.76061E+03  3.10648E+03 -7.70382E+03  2.07663E+03 -1.07073E+04 -1.43015E+03
 -7.17601E+03 -9.84025E+03  5.67244E+02 -1.54043E+04  9.17592E+03 -1.37384E+04  1.57158E+04 -4.67888E+03
  1.47437E+04  7.41992E+03  7.30067E+03  1.38599E+04 -4.09346E+03  1.50168E+04 -1.08620E+04  1.03392E+04
 -1.48748E+04  4.55186E+02 -1.08320E+04 -9.06549E+03 -1.09873E+03 -1.27547E+04  6.48016E+03 -9.37680E+03
  1.01180E+04 -3.80338E+03  7.06622E+03  2.18195E+03  2.22351E+03  4.19333E+03  1.44545E+03  2.22813E+03
  3.11525E+03  7.77455E+02  4.15368E+03  1.46238E+03  5.17969E+03  5.87620E+03  2.89033E+03  7.99430E+03
 -3.57880E+03  1.21905E+04 -1.09834E+04  1.24704E+04 -1.58394E+04  2.92355E+03 -1.68816E+04 -6.92461E+03
 -8.02035E+03 -1.50565E+04  2.35340E+03 -1.78220E+04  9.83901E+03 -1.00947E+04  1.26854E+04 -3.24593E+03
  1.02630E+04  6.09573E+03  2.10959E+03  8.62373E+03 -4.68920E+03  5.88237E+03 -6.13328E+03 -1.02831E+03
 -2.79560E+03 -7.27971E+03  3.22375E+03 -6.28085E+03  6.25793E+03 -2.99421E+03  5.98109E+03  1.36048E+03
  3.27808E+03  2.99035E+03  8.37677E+02  2.21586E+03 -5.56145E+02  1.53329E+03  1.04779E+03 -1.45117E+02
  2.22241E+03 -1.24391E+03  6.85267E+03  2.58111E+03  3.92927E+03  8.20231E+03 -1.15176E+03  1.10040E+04
 -7.39909E+03  6.98263E+03 -9.95414E+03  1.86814E+03 -8.51490E+03 -3.52119E+03 -4.33688E+03 -5.53623E+03
  1.25493E+03 -6.25063E+03  3.80214E+03 -2.92817E+03  3.32571E+03  3.21243E+03 -1.11787E+03  4.84882E+03
 -6.71919E+03  2.86550E+03 -7.54076E+03 -3.70465E+03 -4.58135E+03 -8.62954E+03  1.66671E+03 -8.95640E+03
  5.38666E+03 -5.63584E+03  6.53175E+03 -1.17517E+03  4.98928E+03  1.97052E+03  7.57716E+02  4.60276E+03
 -2.96312E+03  2.26155E+03 -2.91927E+03 -2.95752E+03  1.50284E+03 -7.64535E+03  7.46679E+03 -6.09431E+03
  1.09978E+04  7.56938E+02  9.48204E+03  6.69870E+03  3.14099E+03  1.11035E+04 -3.41011E+03  9.29854E+03
 -8.73587E+03  4.21352E+03 -8.25370E+03 -1.53045E+03 -4.16537E+03 -7.07453E+03  1.78411E+03 -6.24856E+03
  6.70598E+03 -2.79162E+03  4.97037E+03  3.33140E+03  5.96824E+02  5.89298E+03 -6.86613E+02  5.05588E+03
 -3.57245E+03  3.46653E+03 -2.11337E+03  1.05170E+03 -1.49760E+03  1.53331E+03 -2.24501E+03  2.08678E+03
 -2.23767E+03  3.90722E+03 -7.68952E+03  3.62196E+03 -1.08721E+04  3.13491E+02 -1.19558E+04 -6.74872E+03
 -6.66189E+03 -1.45377E+04  2.64462E+03 -1.61349E+04  9.13703E+03 -1.24032E+04  1.43749E+04 -4.80594E+03
  1.46027E+04  2.68512E+03  8.46924E+03  9.62195E+03  6.20519E+02  1.06163E+04 -4.32502E+03  8.45268E+03
 -6.73707E+03  3.06141E+03 -4.36151E+03 -1.29308E+03 -9.31486E+02 -4.99502E+02 -1.59916E+03  3.04111E+02
 -2.53575E+03 -9.10685E+01 -2.77033E+03 -2.25644E+02 -8.93029E+02 -3.24012E+03  1.31340E+03 -3.50775E+03
  5.04692E+03 -3.14921E+03  6.05258E+03 -4.73691E+02  6.87680E+03  5.32439E+03  1.95098E+03  1.16393E+04
 -5.40822E+03  1.22844E+04 -1.10725E+04  6.24805E+03 -1.32582E+04 -1.27994E+03 -1.07884E+04 -8.08202E+03
 -3.98340E+03 -1.19029E+04  2.66293E+03 -1.00362E+04  6.92005E+03 -5.03450E+03  7.42765E+03  9.65089E+01
  4.58690E+03  3.78478E+03 -6.48492E+02  2.83384E+03 -1.89652E+03 -5.46679E+02 -3.70786E+02 -2.19938E+03
  4.49940E+03 -1.17347E+03  4.01905E+03  9.06655E+02  3.35804E+03  3.27359E+03  8.60068E+02  6.01418E+03
 -4.87292E+03  4.81500E+03 -7.03020E+03  2.43666E+02 -5.70968E+03 -4.90750E+03 -1.42951E+03 -8.99127E+03
  5.73621E+03 -7.11661E+03  8.85213E+03 -2.86571E+03  8.86073E+03  2.28218E+03  4.86321E+03  7.37558E+03
  1.39224E+03  6.97734E+03 -2.51265E+03  6.40251E+03 -4.68061E+03  2.81192E+03 -3.13502E+03  1.08910E+03
 -2.04134E+03 -1.49430E+03 -2.35888E+03  9.61615E+02 -4.42372E+03  1.01886E+03 -5.80929E+03 -1.43812E+03
 -5.66718E+03 -3.86096E+03 -9.15915E+02 -7.04105E+03  2.90273E+03 -7.07987E+03  6.08013E+03 -3.16035E+03
  6.68750E+03  1.03577E+03  3.99083E+03  5.12906E+03 -2.28624E+02  7.34486E+03 -5.63386E+03  5.21376E+03
