 $NMID ID='MM_0lb_SNR400_16hz_g40_77.RAW', FMTDAT='(8E13.5)'
 TRAMP=1., VOLUME=1. $END
  3.09939E+05  3.90739E+02  3.37559E+05  2.50053E+05  8.46955E+04  3.37288E+05 -1.32238E+05  2.50310E+05
 -1.89864E+05  8.29235E+04 -1.11460E+05 -3.29351E+04  1.10896E+03 -5.03973E+04  5.36239E+04  3.70819E+02
  3.52140E+04  5.32277E+04 -1.73856E+04  7.50834E+04 -6.08060E+04  6.33858E+04 -8.30936E+04  3.15108E+04
 -7.94621E+04 -1.11565E+04 -5.66307E+04 -4.98695E+04 -1.48547E+04 -6.87704E+04  2.64866E+04 -4.45811E+04
  3.91386E+04  3.86512E+03  1.51161E+04  4.72995E+04 -3.38122E+04  4.67935E+04 -6.55710E+04 -2.60467E+02
 -5.21665E+04 -5.58930E+04 -6.90837E+03 -7.60303E+04  3.39526E+04 -5.33691E+04  4.70943E+04 -1.69591E+04
  4.27486E+04  1.09173E+04  3.12391E+04  2.53129E+04  1.59579E+04  2.89305E+04 -5.37815E+03  2.65803E+04
 -2.19613E+04  1.29178E+04 -1.93481E+04 -4.57312E+03  4.75966E+03 -7.74688E+03  2.13760E+04  1.17854E+04
  7.51841E+03  3.40342E+04 -3.06801E+04  3.46453E+04 -6.23921E+04  2.23813E+03 -5.55334E+04 -4.16559E+04
 -1.22552E+04 -6.15094E+04  3.85650E+04 -4.37236E+04  5.62767E+04 -2.25274E+03  3.25025E+04  3.10820E+04
 -6.29408E+03  3.41875E+04 -2.84706E+04  1.38347E+04 -2.83975E+04 -4.80924E+03 -1.48121E+04 -1.01183E+04
 -7.50502E+03 -1.18497E+04 -6.81846E+02 -1.70921E+04  7.15457E+03 -2.22994E+04  1.48351E+04 -1.31002E+04
  1.16597E+04  5.32217E+03 -6.58270E+03  1.29402E+04 -1.99070E+04 -3.68767E+03 -7.75438E+03 -3.11136E+04
  2.13710E+04 -4.13265E+04  4.56927E+04 -1.90436E+04  4.29484E+04  1.86882E+04  1.44563E+04  4.21901E+04
 -1.49867E+04  3.20607E+04 -2.40163E+04  1.50023E+03 -8.07556E+03 -2.70736E+04  2.02907E+04 -3.14247E+04
  3.88879E+04 -8.02702E+03  3.32368E+04  2.34268E+04  1.60601E+04  4.36688E+04 -8.06100E+03  4.68187E+04
 -2.95742E+04  3.11087E+04 -3.91385E+04  9.36329E+03 -3.89887E+04 -1.54096E+04 -2.15596E+04 -3.53324E+04
  7.00495E+03 -3.52191E+04  3.04438E+04 -1.37256E+04  2.75605E+04  1.06320E+04  3.32283E+03  1.84969E+04
 -1.33930E+04  7.60478E+03 -9.61123E+03 -7.26543E+03  5.72287E+03 -9.99772E+03  1.75266E+04  6.07922E+03
  1.31376E+04  2.17198E+04 -5.79984E+03  2.39427E+04 -2.17236E+04  9.89546E+03 -2.61546E+04 -5.33329E+03
 -1.82429E+04 -1.64624E+04 -7.04948E+03 -1.78991E+04  3.75792E+03 -1.61764E+04  1.32711E+04 -1.60227E+04
  2.30585E+04 -1.21472E+04  2.97232E+04  1.71696E+03  2.17097E+04  1.74802E+04  4.28390E+03  3.39345E+04
 -1.60487E+04  2.87412E+04 -2.66687E+04  9.73810E+03 -1.96327E+04 -1.03566E+04 -4.39698E+03 -1.38472E+04
  2.16818E+03 -3.68492E+03 -3.39821E+03  6.24115E+03 -1.43646E+04  5.49798E+03 -1.47194E+04 -5.94762E+03
 -9.63501E+03 -1.74477E+04  4.32950E+03 -2.05838E+04  1.32393E+04 -1.51748E+04  1.57440E+04 -1.62436E+03
  9.71596E+03  1.17619E+04 -5.57847E+02  1.73226E+04 -1.16142E+04  9.58461E+03 -1.66210E+04 -3.33618E+03
 -1.24004E+04 -1.46749E+04 -1.85298E+03 -2.04083E+04  9.76856E+03 -1.66568E+04  1.68169E+04 -7.92813E+03
  1.55205E+04  5.79840E+02  1.10113E+04  3.75755E+03  5.56684E+03  1.13849E+03  8.14722E+03 -1.40302E+03
  1.49949E+04  3.07093E+03  1.62757E+04  1.37151E+04  1.03298E+04  2.65213E+04 -3.05671E+03  2.92718E+04
 -1.69602E+04  2.31021E+04 -2.66165E+04  1.15537E+04 -2.84254E+04 -2.16707E+03 -2.32079E+04 -1.58967E+04
 -1.10299E+04 -2.24993E+04  7.35599E+03 -2.09621E+04  1.83122E+04 -1.15316E+04  1.68648E+04  3.57492E+03
  6.73557E+03  1.30261E+04 -8.49196E+03  1.12462E+04 -1.40250E+04  2.31488E+03 -1.11425E+04 -9.33483E+03
 -3.63229E+02 -1.35181E+04  7.24617E+03 -1.07133E+04  9.34002E+03 -1.52690E+03  1.86431E+03  5.68791E+03
 -6.03834E+03  1.32000E+03 -4.20062E+03 -4.89144E+03  3.79862E+02 -1.13813E+04  7.99443E+03 -1.10597E+04
  1.35950E+04 -5.98425E+03  1.44519E+04  2.93678E+03  1.18449E+04  1.06296E+04  6.24264E+03  1.61657E+04
 -2.46272E+03  1.83476E+04 -1.16228E+04  1.13820E+04 -1.35514E+04  3.58055E+03 -9.61496E+03 -2.10089E+03
 -4.98525E+03 -3.64367E+03 -6.64456E+02  1.04367E+03 -2.23004E+03  2.38666E+03 -4.84450E+03  4.03681E+03
 -9.23966E+03 -8.29185E+02 -9.56903E+03 -7.47362E+03 -4.09318E+03 -1.21139E+04  4.49288E+03 -9.52118E+03
  8.40996E+03 -3.75636E+03  5.86045E+03  2.29692E+03  2.99178E+02  3.91374E+03 -4.43739E+03  1.89817E+02
 -3.88231E+03 -5.70685E+03 -1.04924E+03 -8.47536E+03  4.42963E+03 -8.95289E+03  1.08225E+04 -4.99098E+03
  1.34781E+04  1.08963E+03  9.76538E+03  7.38932E+03  2.26685E+03  9.75856E+03 -6.27412E+03  9.07441E+03
 -8.28485E+03  3.48839E+03 -3.68953E+03 -1.30415E+03  1.23613E+03 -2.78286E+03  5.17533E+03 -1.19836E+03
  4.43003E+03  4.51431E+03  1.14036E+03  7.28668E+03 -5.90019E+03  6.91218E+03 -9.00053E+03  1.60988E+03
 -5.26976E+03 -4.38442E+03  1.97946E+00 -7.83840E+03  4.48352E+03 -3.92727E+03  4.08905E+03  1.46671E+03
  6.40521E+02  4.42645E+03 -4.56775E+03  5.92230E+03 -6.35348E+03  2.62652E+03 -5.93259E+03 -1.81490E+03
 -3.69459E+03 -7.21776E+03  1.50659E+03 -8.49166E+03  7.46129E+03 -5.84673E+03  8.75575E+03  1.61868E+03
  5.64705E+03  5.76352E+03 -1.35180E+02  8.43620E+03 -5.61432E+03  4.94691E+03 -6.21636E+03 -1.46627E+03
 -6.60828E+03 -5.82741E+03 -1.60059E+03 -5.70157E+03  2.99327E+03 -5.09676E+03  3.35217E+03 -3.32967E+03
  3.39690E+03  6.61251E+02  5.87400E+01  1.18877E+03  4.46446E+02 -6.45073E+02  4.44270E+02 -2.88543E+03
  5.71662E+03 -1.58352E+03  6.78385E+03  6.18071E+02  6.85376E+03  4.13903E+03  6.18007E+03  9.67713E+03
 -1.39174E+03  1.13506E+04 -9.23776E+03  8.54956E+03 -1.16343E+04  1.21451E+03 -1.02220E+04 -3.12511E+03
 -4.78331E+03 -7.64754E+03 -6.93431E+01 -6.29088E+03  2.19705E+03 -3.11845E+03  2.40814E+03 -2.42337E+03
  1.28914E+03 -1.94149E+03  2.22322E+03 -2.57539E+03  3.79544E+03 -2.16042E+03  4.27878E+03  2.33811E+02
  5.68787E+03  1.46668E+03  1.76144E+03  4.34230E+03 -1.63950E+03  3.93329E+03 -5.46789E+03  3.47469E+03
 -6.27324E+03 -1.14572E+03 -3.19997E+03 -4.16986E+03 -4.11138E+02 -6.80377E+03  3.72831E+03 -6.93728E+03
  6.90737E+03 -3.94228E+03  8.58479E+03  4.40951E+02  6.27419E+03  5.94585E+03  1.27508E+03  7.57046E+03
 -2.90238E+03  6.84364E+03 -4.47848E+03  2.18281E+03 -2.41173E+03 -1.39664E+03 -4.13141E+02 -6.13134E+02
 -1.96288E+02  4.85133E+02 -7.41847E+02  1.51338E+03 -2.94706E+03  1.36983E+03 -4.94931E+03 -1.04098E+03
 -1.85811E+03 -4.43065E+03  8.46927E+02 -6.01360E+03  3.47355E+03 -5.60512E+03  5.07533E+03 -1.07368E+03
  5.99739E+03  2.74960E+03  2.14626E+03  4.81351E+03 -8.06826E+02  6.11047E+03 -3.75997E+03  3.44703E+03
 -4.48057E+03  6.50348E+02 -4.38570E+03 -3.68724E+03 -6.24413E+02 -5.18538E+03  2.23658E+03 -3.35283E+03
  3.38526E+03 -1.80948E+03  2.74974E+03  1.21345E+03  6.94411E+02  2.17092E+03  4.59294E+02  2.02638E+02
  1.65978E+03  5.96724E+01  1.20883E+03  1.10982E+03  1.19171E+03  2.60470E+03  1.76549E+03  2.46958E+03
 -1.68730E+03  3.78570E+03 -3.46848E+03  5.65702E+03 -4.62446E+03  1.50522E+03 -5.87732E+03 -1.25511E+03
 -2.12151E+03 -5.26879E+03  1.02936E+03 -6.44542E+03  2.24299E+03 -3.41557E+03  4.03775E+03 -1.45943E+03
  3.47420E+03  2.49375E+03  4.18929E+02  3.36770E+03 -1.05365E+03  1.55131E+03 -1.99675E+03 -1.46414E+02
 -1.13100E+03 -2.53458E+03  1.61434E+03 -2.14930E+03  1.93481E+03 -1.23903E+03  1.88799E+03  4.45938E+02
  1.49112E+03  8.07975E+02  1.20366E+03  4.64562E+02 -4.37603E+02  1.10031E+03  1.40042E+03 -3.67383E+02
  7.30293E+02 -4.48439E+02  2.70302E+03  9.23606E+02  8.89148E+02  3.17841E+03 -5.52058E+02  3.98165E+03
 -2.10038E+03  1.78868E+03 -3.15747E+03  3.13292E+02 -3.04044E+03 -1.02091E+03 -7.19611E+02 -1.34495E+03
  1.56915E+02 -1.62122E+03  1.72479E+03 -9.37782E+02  6.67062E+02  1.51451E+03 -1.18024E+03  1.26523E+03
 -2.04533E+03  1.26359E+03 -1.37225E+03 -1.96508E+03 -1.18156E+03 -3.44691E+03  7.54892E+02 -1.98199E+03
  1.23172E+03 -9.34140E+02  1.50010E+03  1.58806E+02  1.85909E+03 -2.62931E+02  6.97321E+02  1.59070E+03
 -8.86536E+02  1.04371E+03 -1.14803E+03 -5.19765E+02  2.10720E+02 -1.84428E+03  2.41058E+03 -1.02588E+03
  2.75118E+03  6.32921E+02  2.73435E+03  1.97031E+03  1.61177E+03  2.37679E+03 -1.14021E+03  2.76925E+03
 -2.41601E+03  4.51670E+02 -2.26175E+03 -1.48883E+02 -1.13352E+03 -1.91041E+03  3.48155E+02 -1.53915E+03
  1.62078E+03 -9.61516E+02  1.27029E+03  4.63411E+02  5.89475E+02  2.23810E+03  2.78213E+02  1.57103E+03
 -1.21564E+03  1.76059E+03 -7.10766E+02 -5.45847E+01  2.69340E+01  1.76103E+02 -1.18511E+03  1.30125E+03
 -1.06320E+03  1.11721E+03 -2.17937E+03  1.00142E+03 -2.73474E+03  2.66124E+01 -3.37937E+03 -1.51131E+03
 -2.01090E+03 -3.41526E+03  6.37046E+02 -3.66079E+03  1.34520E+03 -3.44835E+03  4.11694E+03 -9.47482E+02
  3.47420E+03  2.71709E+02  2.32431E+03  2.31076E+03 -4.49974E+00  2.71864E+03 -8.62235E+02  2.57393E+03
 -1.80682E+03  8.62631E+02 -7.16793E+02 -4.94870E+02 -9.05255E+02 -1.17252E+02 -1.15157E+03 -2.01678E+02
 -7.32809E+02  1.82476E+02 -1.05483E+03  3.25534E+02  5.53789E+01 -7.15351E+02  1.38722E+01 -1.06456E+03
  1.75754E+03 -8.55101E+02  1.04554E+03 -7.94803E+01  1.90234E+03  2.01266E+03 -5.03912E+00  2.51425E+03
 -1.44600E+03  3.19642E+03 -2.51493E+03  2.21069E+03 -3.22062E+03 -2.77970E+02 -2.39729E+03 -2.02249E+03
 -6.71155E+02 -2.62960E+03  2.40225E+02 -2.34437E+03  1.32305E+03 -8.82190E+02  1.39932E+03  2.35256E+02
  7.77246E+02  5.24684E+02  3.99937E+02  2.38833E+02 -3.62639E+02 -2.05616E+02  2.98672E+02 -3.63494E+02
  7.92730E+02  2.42396E+02  8.44602E+02  5.46059E+02  3.78184E+02 -3.30323E+01  7.73879E+02  8.57182E+02
 -1.03020E+03  1.08068E+03 -1.45735E+03  8.27961E+02 -1.82227E+03 -9.56832E+02 -5.74875E+02 -2.06904E+03
  1.17724E+03 -1.43004E+03  1.70787E+03 -4.14682E+02  2.01619E+03  5.49723E+01  1.51324E+03  1.95017E+03
  4.62460E+02  1.27840E+03 -1.89463E+02  1.13454E+03 -5.22759E+02  1.18148E+03 -1.31915E+03 -3.33076E+01
  2.51198E+02  4.23585E+02 -1.23364E+03  1.00853E+02 -8.26959E+02  2.21470E+02 -1.12246E+03 -5.55478E+02
 -1.77828E+03  9.71719E-01 -1.13557E+03 -2.25273E+03  6.43724E+02 -2.02614E+03  9.11893E+02 -6.81384E+02
  1.27631E+03  3.82071E+01  5.01262E+02  1.77638E+02 -2.68766E+00  1.19251E+03 -1.08239E+03  1.62715E+03
