 $NMID ID='MM_0lb_SNR400_14hz_g50_6.RAW', FMTDAT='(8E13.5)'
 TRAMP=1., VOLUME=1. $END
  3.09582E+05  9.29298E+02  3.37902E+05  2.50624E+05  8.45875E+04  3.38062E+05 -1.32689E+05  2.51093E+05
 -1.89590E+05  8.24739E+04 -1.12452E+05 -3.20534E+04  4.22994E+02 -5.04279E+04  5.37403E+04 -1.24742E+02
  3.55999E+04  5.24456E+04 -1.63799E+04  7.53495E+04 -6.07054E+04  6.32862E+04 -8.39207E+04  3.24732E+04
 -8.15081E+04 -1.08253E+04 -5.70969E+04 -5.13958E+04 -1.56079E+04 -6.94502E+04  2.75323E+04 -4.58182E+04
  4.01099E+04  4.06548E+03  1.59100E+04  4.79168E+04 -3.48956E+04  4.73923E+04 -6.72746E+04 -6.19818E+02
 -5.30280E+04 -5.74313E+04 -6.78902E+03 -7.75719E+04  3.39937E+04 -5.52546E+04  4.82254E+04 -1.72397E+04
  4.26985E+04  1.14102E+04  3.14164E+04  2.53818E+04  1.61501E+04  2.93555E+04 -5.47730E+03  2.76394E+04
 -2.20995E+04  1.26903E+04 -1.86275E+04 -5.43536E+03  5.23422E+03 -7.13130E+03  2.19559E+04  1.25775E+04
  7.47933E+03  3.53539E+04 -3.20285E+04  3.51695E+04 -6.31323E+04  2.19094E+03 -5.75165E+04 -4.27738E+04
 -1.27264E+04 -6.33222E+04  3.94225E+04 -4.59054E+04  5.81294E+04 -1.95265E+03  3.38615E+04  3.25039E+04
 -6.24274E+03  3.63322E+04 -2.96412E+04  1.55895E+04 -3.02460E+04 -4.48128E+03 -1.69296E+04 -1.07833E+04
 -8.74313E+03 -1.33148E+04 -8.98942E+02 -1.87244E+04  7.90964E+03 -2.25160E+04  1.55042E+04 -1.26803E+04
  1.18143E+04  5.19547E+03 -8.25925E+03  1.31580E+04 -2.13717E+04 -4.62321E+03 -8.65107E+03 -3.37877E+04
  2.28792E+04 -4.34070E+04  4.82535E+04 -1.95985E+04  4.49966E+04  1.93858E+04  1.58255E+04  4.49934E+04
 -1.61364E+04  3.36475E+04 -2.50825E+04  1.78756E+03 -9.69634E+03 -2.78713E+04  2.12457E+04 -3.43310E+04
  4.02939E+04 -8.52488E+03  3.53877E+04  2.38336E+04  1.84976E+04  4.68391E+04 -7.85840E+03  5.02664E+04
 -3.21125E+04  3.36737E+04 -4.21689E+04  8.86512E+03 -4.28694E+04 -1.60216E+04 -2.39221E+04 -3.79120E+04
  7.17154E+03 -3.79445E+04  3.18876E+04 -1.53191E+04  2.93234E+04  1.08544E+04  3.91831E+03  1.91101E+04
 -1.34670E+04  7.97824E+03 -1.08564E+04 -7.87094E+03  5.91288E+03 -1.08736E+04  1.78592E+04  6.45969E+03
  1.34556E+04  2.15823E+04 -6.01806E+03  2.51577E+04 -2.25218E+04  1.18035E+04 -2.82642E+04 -4.50111E+03
 -2.10983E+04 -1.76068E+04 -9.03330E+03 -2.01407E+04  4.04106E+03 -2.00184E+04  1.65059E+04 -1.82679E+04
  2.58469E+04 -1.31423E+04  3.25582E+04  2.92977E+03  2.34121E+04  2.00412E+04  4.31460E+03  3.66425E+04
 -1.80347E+04  3.07976E+04 -2.78557E+04  1.04973E+04 -2.11520E+04 -9.64235E+03 -4.55654E+03 -1.38155E+04
  1.87813E+03 -3.10475E+03 -5.37582E+03  6.61884E+03 -1.66838E+04  4.78852E+03 -1.63423E+04 -7.49680E+03
 -1.03572E+04 -1.91972E+04  5.00829E+03 -2.30228E+04  1.52268E+04 -1.64583E+04  1.90088E+04 -1.88943E+03
  1.15850E+04  1.37448E+04 -1.35833E+03  1.88307E+04 -1.33501E+04  1.11288E+04 -1.96461E+04 -4.00663E+03
 -1.43264E+04 -1.74981E+04 -1.52540E+03 -2.34407E+04  1.03254E+04 -1.87139E+04  1.90061E+04 -9.65081E+03
  1.80231E+04  3.41111E+02  1.22177E+04  4.85726E+03  7.26406E+03  1.07852E+03  9.51819E+03 -1.44971E+03
  1.72732E+04  2.87569E+03  1.96170E+04  1.51725E+04  1.29663E+04  3.08316E+04 -3.34846E+03  3.38287E+04
 -1.94946E+04  2.79607E+04 -3.19478E+04  1.39091E+04 -3.37341E+04 -2.23867E+03 -2.80465E+04 -1.99735E+04
 -1.16402E+04 -2.82169E+04  9.63481E+03 -2.51496E+04  2.15938E+04 -1.29849E+04  1.95160E+04  5.19500E+03
  7.13826E+03  1.42708E+04 -9.33943E+03  1.23431E+04 -1.61897E+04  3.07072E+03 -1.27569E+04 -1.02613E+04
  2.14189E+02 -1.57315E+04  7.65207E+03 -1.10081E+04  1.04066E+04 -1.32368E+03  2.16118E+03  6.63296E+03
 -6.93321E+03  3.15368E+03 -6.29120E+03 -5.32444E+03 -3.77167E+02 -1.28770E+04  9.43982E+03 -1.42721E+04
  1.68899E+04 -8.02400E+03  1.84249E+04  3.85194E+03  1.60456E+04  1.34401E+04  7.49273E+03  1.99978E+04
 -3.09522E+03  2.19626E+04 -1.42328E+04  1.40222E+04 -1.62633E+04  3.58510E+03 -1.17664E+04 -3.25588E+03
 -5.49543E+03 -4.41099E+03 -1.46828E+03  1.00496E+03 -2.65177E+03  2.59219E+03 -5.15840E+03  4.33166E+03
 -1.00743E+04 -1.48779E+02 -1.17065E+04 -9.30017E+03 -4.35361E+03 -1.50783E+04  5.15309E+03 -1.13103E+04
  9.41303E+03 -5.09502E+03  6.52583E+03  2.97606E+03  3.68497E+02  3.94686E+03 -5.16903E+03 -3.14392E+02
 -4.96304E+03 -6.64618E+03 -8.46471E+02 -1.07330E+04  5.81370E+03 -1.11572E+04  1.40172E+04 -5.66934E+03
  1.69243E+04  1.21366E+03  1.21562E+04  9.27217E+03  2.13714E+03  1.27502E+04 -6.92004E+03  1.07181E+04
 -8.99886E+03  3.65063E+03 -5.21281E+03 -2.42704E+03  2.04683E+03 -2.87660E+03  6.11709E+03 -1.14883E+03
  5.62637E+03  5.00768E+03  1.35858E+03  9.42680E+03 -5.76839E+03  9.33703E+03 -1.11619E+04  2.20910E+03
 -7.04756E+03 -5.82501E+03  9.29767E+01 -9.54321E+03  5.68006E+03 -4.81737E+03  6.10662E+03  1.94431E+03
  1.35201E+03  6.65512E+03 -5.92964E+03  7.46240E+03 -8.13862E+03  3.78079E+03 -8.00973E+03 -1.85897E+03
 -5.41570E+03 -9.78245E+03  2.33174E+03 -1.10684E+04  9.46441E+03 -6.43490E+03  1.02215E+04  1.11419E+03
  6.71820E+03  8.46028E+03 -4.02811E+02  1.07428E+04 -7.97447E+03  5.94327E+03 -8.53323E+03 -6.80022E+02
 -7.87358E+03 -7.25673E+03 -9.14508E+02 -7.73797E+03  4.30602E+03 -6.72018E+03  5.33420E+03 -3.27831E+03
  3.66989E+03  1.47064E+03  8.05825E+01  2.01438E+03 -1.11319E+02 -1.70479E+03  1.56784E+03 -3.61366E+03
  6.91722E+03 -2.29394E+03  9.27838E+03  6.52742E+02  9.89565E+03  6.09006E+03  7.52550E+03  1.22473E+04
 -2.63808E+03  1.45972E+04 -1.24450E+04  1.10074E+04 -1.59609E+04  1.98597E+03 -1.23222E+04 -5.40777E+03
 -6.89952E+03 -1.12472E+04 -3.16934E+02 -8.42510E+03  3.04533E+03 -4.32059E+03  2.95440E+03 -3.08468E+03
  2.28552E+03 -1.49483E+03  2.88890E+03 -3.20238E+03  4.02752E+03 -2.46418E+03  4.83440E+03 -2.48597E+02
  6.69505E+03  1.37089E+03  2.78066E+03  6.08803E+03 -1.65125E+03  5.89180E+03 -6.88594E+03  4.90848E+03
 -8.35813E+03 -7.92690E+02 -4.94967E+03 -6.17632E+03 -1.70354E+02 -9.07440E+03  4.98293E+03 -9.48854E+03
  8.73808E+03 -4.98682E+03  1.14701E+04  1.28310E+03  8.06139E+03  6.94626E+03  1.05543E+03  1.00256E+04
 -4.21119E+03  8.91026E+03 -6.17084E+03  2.82008E+03 -3.88240E+03 -1.30609E+03 -1.57697E+03 -1.30578E+03
 -8.65792E+02  8.09547E+02 -1.82468E+03  2.11625E+03 -3.75403E+03  6.53159E+02 -6.57941E+03 -3.51755E+02
 -3.76642E+03 -6.63949E+03  1.01985E+03 -7.78515E+03  5.73021E+03 -7.92511E+03  7.08150E+03 -2.05642E+03
  8.57171E+03  3.74195E+03  3.54974E+03  6.51344E+03 -1.32222E+03  7.87402E+03 -5.43815E+03  4.92955E+03
 -6.87893E+03  9.68253E+02 -6.21697E+03 -4.95231E+03 -5.36922E+02 -6.12618E+03  3.16891E+03 -4.92729E+03
  5.22745E+03 -2.36995E+03  3.53791E+03  1.24786E+03  8.09513E+02  3.19181E+03  1.66482E+03  1.07138E+03
  2.29909E+03  6.54553E+02  1.65378E+03  2.04875E+03  2.42810E+03  2.74371E+03  2.53613E+03  3.16771E+03
 -2.12814E+03  5.98074E+03 -5.36464E+03  6.75164E+03 -7.26417E+03  2.22509E+03 -8.60440E+03 -2.39067E+03
 -3.66948E+03 -7.34027E+03  8.77579E+02 -8.26013E+03  3.96745E+03 -4.87458E+03  5.93574E+03 -1.74739E+03
  4.31975E+03  3.04772E+03  1.88059E+03  4.63473E+03 -1.94261E+03  2.03720E+03 -3.03589E+03 -1.11355E+02
 -1.30964E+03 -3.28727E+03  2.31384E+03 -3.18709E+03  3.22928E+03 -1.60613E+03  3.20428E+03  7.95275E+02
  1.17366E+03  1.04854E+03  6.41953E+02  8.32116E+02 -1.11987E+03  8.19677E+02  1.03297E+03 -4.58669E+02
  5.36072E+02 -8.36835E+02  3.97629E+03  1.36202E+03  8.26314E+02  4.38320E+03 -1.11272E+03  5.18390E+03
 -2.68623E+03  3.43236E+03 -4.42223E+03  1.44833E+03 -4.42770E+03 -1.35042E+03 -8.98574E+02 -2.80775E+03
  3.79882E+02 -2.63794E+03  1.72811E+03 -1.26370E+03  1.71241E+03  2.07138E+03 -1.13354E+03  2.41399E+03
 -2.69995E+03  1.79604E+03 -2.95923E+03 -2.42582E+03 -2.10286E+03 -3.77180E+03  6.54384E+02 -3.51998E+03
  2.18905E+03 -1.71260E+03  2.08745E+03 -2.97854E+02  2.26694E+03  1.12111E+03  9.75098E+00  1.54588E+03
 -1.40691E+03  8.98445E+02 -1.30879E+03 -1.29285E+03  1.20469E+03 -2.45220E+03  3.78994E+03 -2.41455E+03
  4.42967E+03  4.19230E+02  4.32859E+03  2.46706E+03  1.08224E+03  4.53478E+03 -1.06902E+03  3.87414E+03
 -3.91406E+03  1.07866E+03 -3.29871E+03 -1.94640E+02 -2.34691E+03 -2.55986E+03  5.11765E+02 -2.29738E+03
  2.61720E+03 -1.50782E+03  1.84209E+03  1.24870E+03  8.56810E+02  2.11300E+03  6.40781E+02  1.50077E+03
 -2.96991E+02  1.77314E+03 -1.00341E+03  5.35278E+02  4.28823E+01  6.11183E+02 -8.13689E+02  1.06481E+03
 -1.43799E+03  2.22856E+03 -3.52387E+03  1.76137E+03 -4.46166E+03  1.27530E+02 -4.56509E+03 -2.73003E+03
 -2.13909E+03 -5.55364E+03  1.01347E+03 -6.36102E+03  4.11239E+03 -5.60565E+03  6.10260E+03 -2.84504E+03
  5.95055E+03  1.18495E+03  3.36719E+03  3.46559E+03 -1.84166E+02  3.88563E+03 -1.48263E+03  3.08717E+03
 -2.71176E+03  1.34384E+03 -1.38216E+03 -2.54969E+02 -4.32592E+02 -2.76109E+01 -1.34833E+03 -2.92136E+02
 -1.47248E+03 -2.48709E+02 -1.38493E+03 -4.15492E+02 -9.64415E+01 -1.35713E+03 -4.16805E+02 -2.38225E+03
  2.61728E+03 -1.51634E+03  2.42215E+03  2.02127E+02  3.00307E+03  2.81507E+03 -7.52831E+02  4.02258E+03
 -2.30513E+03  4.63892E+03 -4.19628E+03  2.86043E+03 -4.82127E+03 -7.70302E+02 -3.25808E+03 -3.68700E+03
 -2.05217E+03 -3.71748E+03  6.74637E+02 -4.45065E+03  2.19893E+03 -2.00602E+03  2.37394E+03  1.98219E+01
  1.41197E+03  1.11459E+03 -7.10854E+02  1.07135E+03  2.75994E+02 -4.14605E+02 -5.69411E+02 -1.18093E+03
  1.23638E+03 -4.32766E+02  1.25161E+03  5.85446E+02  6.54178E+02  1.26340E+03 -2.90242E+02  1.72773E+03
 -2.42424E+03  1.50783E+03 -2.74870E+03  3.94074E+02 -1.85873E+03 -1.94464E+03 -5.43983E+02 -2.83789E+03
  2.26085E+03 -2.64384E+03  3.28343E+03 -7.00582E+02  2.99935E+03 -8.61545E+01  1.33970E+03  2.00665E+03
  1.08568E+03  2.49736E+03 -5.60559E+02  1.51727E+03 -1.57335E+03  8.00001E+02 -1.15141E+03  4.05857E+02
 -1.05554E+03 -5.15855E+02 -1.07911E+03  4.26933E+02 -1.11942E+03  1.15412E+02 -2.47735E+03 -6.26923E+02
 -2.34633E+03 -1.25283E+03 -7.02238E+02 -2.22996E+03  1.60292E+03 -2.98977E+03  1.92050E+03 -9.24068E+02
  2.51743E+03  2.71887E+02  1.41070E+03  1.70670E+03  6.01949E+01  2.32228E+03 -1.29420E+03  1.35563E+03
