 $NMID ID='MM_0lb_SNR400_7hz_g60_3.RAW', FMTDAT='(8E13.5)'
 TRAMP=1., VOLUME=1. $END
  3.09384E+05  6.47045E+02  3.38782E+05  2.51661E+05  8.52755E+04  3.38676E+05 -1.33182E+05  2.52476E+05
 -1.92171E+05  8.43462E+04 -1.11874E+05 -3.23269E+04 -1.09020E+03 -5.03503E+04  5.34873E+04 -3.49926E+02
  3.70485E+04  5.34370E+04 -1.66124E+04  7.66696E+04 -6.18312E+04  6.46384E+04 -8.62785E+04  3.29469E+04
 -8.35894E+04 -1.16155E+04 -5.90197E+04 -5.29120E+04 -1.43599E+04 -7.13673E+04  2.82897E+04 -4.77841E+04
  4.15920E+04  3.75736E+03  1.75562E+04  4.89199E+04 -3.51124E+04  4.85725E+04 -6.94520E+04 -1.54235E+02
 -5.55221E+04 -5.89246E+04 -8.01531E+03 -8.02526E+04  3.62668E+04 -5.72077E+04  5.04659E+04 -1.88824E+04
  4.67514E+04  1.08011E+04  3.40135E+04  2.69986E+04  1.64694E+04  3.16611E+04 -5.86882E+03  2.84882E+04
 -2.23954E+04  1.18811E+04 -1.75308E+04 -6.39128E+03  8.02775E+03 -7.73488E+03  2.45014E+04  1.56767E+04
  7.74532E+03  3.86338E+04 -3.41996E+04  3.73676E+04 -6.73092E+04  2.98375E+03 -5.94648E+04 -4.50906E+04
 -1.27470E+04 -6.73565E+04  4.19958E+04 -4.74998E+04  6.24285E+04 -3.19053E+03  3.95431E+04  3.56354E+04
 -4.79613E+03  4.10290E+04 -3.26047E+04  2.07412E+04 -3.44587E+04 -3.67931E+03 -2.09866E+04 -1.26580E+04
 -9.43507E+03 -1.60799E+04 -4.00408E+02 -2.11659E+04  8.48687E+03 -2.34091E+04  1.61829E+04 -1.14842E+04
  9.94747E+03  6.59463E+03 -1.21863E+04  1.31874E+04 -2.48928E+04 -8.28118E+03 -8.32262E+03 -3.93999E+04
  2.50366E+04 -4.88168E+04  5.43415E+04 -2.19667E+04  5.11772E+04  2.14734E+04  1.75292E+04  4.89332E+04
 -1.73190E+04  3.72648E+04 -2.91547E+04  3.49757E+03 -1.15812E+04 -2.93170E+04  2.21551E+04 -3.84466E+04
  4.67362E+04 -1.29723E+04  4.39185E+04  2.49156E+04  2.23970E+04  5.36766E+04 -8.54093E+03  5.93540E+04
 -3.70816E+04  4.08056E+04 -5.06455E+04  1.21277E+04 -5.07622E+04 -1.92076E+04 -2.80336E+04 -4.42206E+04
  8.66706E+03 -4.46173E+04  3.52722E+04 -1.82775E+04  3.32989E+04  1.09516E+04  5.43032E+03  2.24002E+04
 -1.44864E+04  9.57193E+03 -1.20192E+04 -7.21869E+03  6.07353E+03 -1.20587E+04  1.93945E+04  5.33988E+03
  1.59644E+04  2.26005E+04 -4.09866E+03  2.77214E+04 -2.35764E+04  1.63022E+04 -3.37878E+04 -2.15694E+03
 -2.83252E+04 -1.82801E+04 -1.30670E+04 -2.62825E+04  3.23001E+03 -2.95857E+04  2.31813E+04 -2.52521E+04
  3.53460E+04 -1.47841E+04  4.11325E+04  6.28441E+03  2.88553E+04  2.77105E+04  4.64778E+03  4.37933E+04
 -2.17306E+04  3.68199E+04 -3.28858E+04  1.23388E+04 -2.32687E+04 -1.01804E+04 -4.65730E+03 -1.31201E+04
  1.29641E+02 -1.08048E+01 -9.41593E+03  9.96887E+03 -2.32028E+04  4.43844E+03 -2.14165E+04 -1.25753E+04
 -1.27491E+04 -2.61031E+04  6.46681E+03 -3.16114E+04  2.02555E+04 -2.24696E+04  2.50610E+04 -2.52429E+03
  1.67911E+04  1.79174E+04 -1.85691E+03  2.57176E+04 -1.95254E+04  1.54006E+04 -2.67866E+04 -5.24228E+03
 -1.91202E+04 -2.27907E+04 -2.62629E+03 -3.12528E+04  1.46801E+04 -2.54021E+04  2.70669E+04 -1.45694E+04
  2.36229E+04  3.70786E+02  1.63729E+04  5.67561E+03  8.96722E+03  2.71496E+03  1.30392E+04 -2.36081E+03
  2.50560E+04  3.90595E+03  3.01438E+04  2.08091E+04  2.08873E+04  4.21238E+04 -2.93660E+03  5.02408E+04
 -2.83280E+04  4.29843E+04 -4.83103E+04  2.21216E+04 -5.17475E+04 -3.43724E+03 -4.23138E+04 -3.03537E+04
 -1.62173E+04 -4.33628E+04  1.50280E+04 -3.73855E+04  3.12837E+04 -1.74657E+04  2.70066E+04  9.90109E+03
  8.90932E+03  2.09748E+04 -1.28501E+04  1.83826E+04 -2.26528E+04  1.86170E+03 -1.73760E+04 -1.53658E+04
 -2.99466E+02 -2.22074E+04  1.25853E+04 -1.55202E+04  1.56729E+04 -1.72481E+03  4.75140E+03  1.07375E+04
 -9.40377E+03  5.73312E+03 -1.11607E+04 -8.13655E+03 -3.79875E+03 -2.09157E+04  1.41899E+04 -2.47512E+04
  2.66030E+04 -1.44014E+04  3.21995E+04  3.86759E+03  2.79206E+04  2.19512E+04  1.27785E+04  3.51104E+04
 -7.70604E+03  3.79086E+04 -2.40914E+04  2.31651E+04 -2.69685E+04  4.81295E+03 -1.85942E+04 -7.93147E+03
 -7.30497E+03 -8.30284E+03 -1.51599E+03  1.27869E+02 -2.11230E+03  3.95994E+03 -9.19177E+03  6.73255E+03
 -1.75343E+04 -1.69605E+03 -1.69085E+04 -1.40325E+04 -6.79907E+03 -2.22318E+04  7.25988E+03 -1.90119E+04
  1.59452E+04 -7.24131E+03  1.03739E+04  5.27414E+03  6.57077E+02  6.95468E+03 -1.01742E+04  9.99401E+01
 -9.83421E+03 -1.14549E+04 -1.07049E+03 -1.94574E+04  1.16626E+04 -1.97550E+04  2.41019E+04 -1.19011E+04
  2.85611E+04  2.00021E+03  2.21208E+04  1.80078E+04  4.50214E+03  2.34090E+04 -1.13062E+04  1.81830E+04
 -1.54171E+04  3.75803E+03 -7.42540E+03 -4.46929E+03  2.40863E+03 -5.80936E+03  1.03549E+04 -1.16409E+03
  8.66438E+03  8.78699E+03  1.98918E+03  1.57395E+04 -1.06579E+04  1.46454E+04 -1.88013E+04  2.46759E+03
 -1.27677E+04 -1.05922E+04  1.09232E+03 -1.63571E+04  1.01298E+04 -8.44192E+03  1.14718E+04  4.44629E+03
  2.37365E+03  1.27810E+04 -8.69424E+03  1.43160E+04 -1.81730E+04  6.43682E+03 -1.74591E+04 -7.54787E+03
 -9.85012E+03 -2.05300E+04  5.07385E+03 -2.27544E+04  1.92511E+04 -1.34344E+04  2.16629E+04  4.61262E+03
  1.14068E+04  1.62960E+04 -2.03022E+03  1.95112E+04 -1.47925E+04  1.06654E+04 -1.54300E+04 -1.58243E+03
 -1.32528E+04 -1.36588E+04 -1.51152E+03 -1.48021E+04  7.31101E+03 -1.23713E+04  9.12600E+03 -2.72686E+03
  5.16103E+03  2.45767E+03 -1.80834E+03  2.04730E+03 -2.34648E+03 -5.38843E+03  3.19997E+03 -9.24216E+03
  1.47420E+04 -6.04414E+03  2.12503E+04  1.92020E+03  1.95159E+04  1.42538E+04  1.22939E+04  2.74825E+04
 -7.13969E+03  3.06403E+04 -2.61865E+04  2.22817E+04 -3.31661E+04  3.71636E+03 -2.73678E+04 -1.16753E+04
 -1.29554E+04 -2.17156E+04 -8.73984E+02 -1.80177E+04  6.01631E+03 -1.07832E+04  7.03131E+03 -7.02364E+03
  5.42750E+03 -3.93984E+03  4.56587E+03 -5.33449E+03  6.48616E+03 -3.81006E+03  1.02356E+04 -2.06959E+03
  1.32571E+04  3.34318E+03  7.59808E+03  1.24712E+04 -3.70883E+03  1.54163E+04 -1.43475E+04  1.17228E+04
 -1.97170E+04 -1.01562E+03 -1.32424E+04 -1.36311E+04 -1.20415E+03 -2.17878E+04  1.20441E+04 -2.08478E+04
  2.13456E+04 -1.13477E+04  2.47274E+04  2.45677E+03  1.79364E+04  1.83687E+04  2.58073E+03  2.32572E+04
 -9.46569E+03  1.83221E+04 -1.42145E+04  6.27440E+03 -1.00896E+04 -6.90714E+02 -4.02390E+03 -3.71965E+03
 -2.53189E+03 -1.73398E+02 -3.76776E+03  3.06885E+03 -7.26037E+03  3.03376E+03 -1.29758E+04 -2.36243E+03
 -1.05360E+04 -1.30344E+04 -2.41927E+02 -1.93899E+04  1.27670E+04 -1.79424E+04  2.01082E+04 -5.92299E+03
  1.88035E+04  9.14508E+03  9.48404E+03  1.70115E+04 -3.62201E+03  2.05871E+04 -1.45299E+04  1.28515E+04
 -1.86699E+04  2.25523E+02 -1.38454E+04 -1.21809E+04 -1.95575E+03 -1.77838E+04  8.74991E+03 -1.27266E+04
  1.32037E+04 -3.00288E+03  8.36766E+03  3.55246E+03  3.89426E+03  5.29796E+03  2.82468E+03  2.55312E+03
  3.82288E+03  1.27784E+03  4.29217E+03  2.11528E+03  5.74502E+03  7.89845E+03  4.62973E+03  1.10731E+04
 -3.52392E+03  1.58201E+04 -1.39656E+04  1.55689E+04 -2.13630E+04  5.36675E+03 -2.17898E+04 -1.01415E+04
 -1.00643E+04 -2.14662E+04  3.02915E+03 -2.21150E+04  1.26711E+04 -1.51259E+04  1.73677E+04 -3.21591E+03
  1.22256E+04  8.05064E+03  2.69412E+03  1.14983E+04 -5.82751E+03  8.45283E+03 -8.48995E+03 -1.58833E+03
 -4.22330E+03 -8.95560E+03  3.32475E+03 -9.72578E+03  8.42717E+03 -4.14203E+03  7.79139E+03  1.36914E+03
  5.91280E+03  5.26960E+03  1.76347E+03  3.58722E+03 -7.27580E+02  2.03524E+03  2.41995E+03 -9.35363E+02
  3.92381E+03 -4.51971E+02  8.65077E+03  3.82746E+03  6.17991E+03  1.15473E+04 -7.03825E+02  1.47462E+04
 -9.86425E+03  1.01085E+04 -1.47884E+04  3.38184E+03 -1.20554E+04 -3.80085E+03 -4.45864E+03 -8.53561E+03
  1.66625E+03 -1.01267E+04  5.99853E+03 -4.05480E+03  5.46364E+03  2.80248E+03 -2.37537E+03  8.27538E+03
 -9.01281E+03  4.67804E+03 -1.14988E+04 -5.24133E+03 -6.50860E+03 -1.17077E+04  2.61089E+03 -1.31780E+04
  6.06510E+03 -6.75186E+03  9.81186E+03 -2.54624E+02  7.61327E+03  3.68602E+03  5.90626E+02  6.19209E+03
 -4.59804E+03  1.77967E+03 -6.11145E+03 -4.86545E+03  1.28362E+03 -9.93017E+03  1.15700E+04 -8.34452E+03
  1.39612E+04  7.65306E+02  1.31590E+04  1.01004E+04  4.48819E+03  1.44987E+04 -5.49068E+03  1.41279E+04
 -1.21895E+04  6.78957E+03 -1.35418E+04 -1.86409E+03 -7.29740E+03 -8.84936E+03  2.43591E+03 -9.98070E+03
  9.51656E+03 -4.56235E+03  8.16319E+03  3.92525E+03  1.57984E+03  7.95476E+03 -1.61160E+03  6.88851E+03
 -2.60584E+03  4.03669E+03 -3.00695E+03  5.91954E+02 -2.41398E+03  1.62301E+03 -1.89178E+03  3.58084E+03
 -2.89072E+03  5.28717E+03 -9.80601E+03  6.09039E+03 -1.52374E+04  7.63952E+02 -1.62274E+04 -9.85129E+03
 -9.02291E+03 -2.00338E+04  4.45590E+03 -2.21004E+04  1.45060E+04 -1.76526E+04  2.19235E+04 -7.04980E+03
  2.03693E+04  5.51096E+03  1.23910E+04  1.28353E+04  1.84378E+03  1.61107E+04 -6.15601E+03  1.25857E+04
 -8.87876E+03  3.80711E+03 -5.37818E+03 -1.69554E+03 -1.57548E+03 -2.73687E+03 -9.68829E+02 -8.01204E+02
 -2.08440E+03 -4.54828E+02 -3.87605E+03  1.97436E+02 -9.98026E+02 -3.62784E+03  1.36922E+03 -6.11996E+03
  6.60756E+03 -5.57840E+03  1.00510E+04 -5.00084E+02  1.17154E+04  8.55700E+03  3.36622E+03  1.60858E+04
 -6.84806E+03  1.70836E+04 -1.77142E+04  9.26242E+03 -1.93392E+04 -1.80054E+03 -1.50739E+04 -1.23015E+04
 -5.42708E+03 -1.72316E+04  4.17635E+03 -1.56704E+04  1.16359E+04 -8.10409E+03  1.04210E+04  7.17672E+02
  4.92193E+03  5.62724E+03 -1.74237E+03  4.70327E+03 -2.39705E+03  1.35145E+02  4.45091E+02 -3.96548E+03
  5.21288E+03 -1.89209E+03  7.45556E+03  2.09204E+03  5.24245E+03  6.44142E+03 -3.63132E+02  8.29666E+03
 -7.01027E+03  7.63528E+03 -1.09898E+04  7.90564E+02 -9.74621E+03 -7.32691E+03 -2.68648E+03 -1.48314E+04
  8.69515E+03 -1.18131E+04  1.35081E+04 -3.33273E+03  1.28441E+04  3.59528E+03  8.09078E+03  1.06681E+04
  1.40225E+03  1.10553E+04 -4.53313E+03  9.67703E+03 -7.01499E+03  4.75744E+03 -5.49110E+03  4.77857E+02
 -2.60299E+03 -1.29313E+03 -3.33543E+03  2.33634E+03 -4.80502E+03  2.63114E+03 -8.22149E+03 -1.74173E+03
 -8.47348E+03 -6.63671E+03 -2.02491E+03 -1.23520E+04  4.55348E+03 -1.18223E+04  1.06842E+04 -6.51835E+03
  1.14979E+04  2.06575E+03  7.53482E+03  9.19591E+03 -1.01978E+03  1.24019E+04 -9.25330E+03  6.66602E+03
