 $NMID ID='MM_0lb_SNR400_9hz_g60_92.RAW', FMTDAT='(8E13.5)'
 TRAMP=1., VOLUME=1. $END
  3.09576E+05 -5.97317E+01  3.37669E+05  2.51511E+05  8.57141E+04  3.39377E+05 -1.33144E+05  2.52034E+05
 -1.91038E+05  8.44607E+04 -1.12104E+05 -3.21338E+04  1.09299E+03 -5.04456E+04  5.31673E+04 -1.52024E+02
  3.55615E+04  5.27269E+04 -1.58084E+04  7.58048E+04 -6.14584E+04  6.43142E+04 -8.47134E+04  3.21786E+04
 -8.37487E+04 -1.12416E+04 -5.78339E+04 -5.22076E+04 -1.54180E+04 -7.20516E+04  2.77120E+04 -4.74547E+04
  4.21665E+04  4.15452E+03  1.65396E+04  4.94533E+04 -3.48577E+04  4.90305E+04 -6.92045E+04  4.50389E+02
 -5.49617E+04 -5.89237E+04 -7.79000E+03 -7.96959E+04  3.52700E+04 -5.83183E+04  5.07477E+04 -1.93527E+04
  4.55099E+04  1.10876E+04  3.27087E+04  2.71733E+04  1.53186E+04  3.03651E+04 -5.87462E+03  2.79479E+04
 -2.24598E+04  1.18896E+04 -1.75888E+04 -5.96615E+03  6.89507E+03 -7.01643E+03  2.34181E+04  1.39230E+04
  6.44265E+03  3.87797E+04 -3.37562E+04  3.71341E+04 -6.62996E+04  1.57919E+03 -5.93795E+04 -4.50418E+04
 -1.28801E+04 -6.65727E+04  4.22156E+04 -4.72505E+04  6.16733E+04 -2.90974E+03  3.77607E+04  3.44392E+04
 -6.05710E+03  4.04666E+04 -3.31819E+04  1.96848E+04 -3.40791E+04 -2.37053E+03 -1.97524E+04 -1.26181E+04
 -9.72834E+03 -1.55901E+04 -7.35888E+02 -1.95557E+04  8.95127E+03 -2.36113E+04  1.62493E+04 -1.27448E+04
  1.01744E+04  6.09559E+03 -1.05119E+04  1.23944E+04 -2.32888E+04 -6.76630E+03 -8.50559E+03 -3.83850E+04
  2.52855E+04 -4.77178E+04  5.19344E+04 -2.10717E+04  4.93976E+04  2.15305E+04  1.81133E+04  4.89119E+04
 -1.69564E+04  3.67049E+04 -2.82235E+04  1.39894E+03 -1.18337E+04 -2.96917E+04  2.22381E+04 -3.70412E+04
  4.56286E+04 -1.15542E+04  4.17803E+04  2.57451E+04  2.30838E+04  5.19565E+04 -8.82415E+03  5.72865E+04
 -3.56504E+04  3.97636E+04 -4.81089E+04  1.07674E+04 -4.84775E+04 -1.92952E+04 -2.68666E+04 -4.27146E+04
  8.00596E+03 -4.31221E+04  3.49671E+04 -1.68649E+04  3.28959E+04  1.07065E+04  5.10302E+03  2.20577E+04
 -1.54257E+04  9.83142E+03 -1.23073E+04 -8.08144E+03  5.91672E+03 -1.20367E+04  1.90061E+04  5.75594E+03
  1.46689E+04  2.37604E+04 -4.65551E+03  2.75525E+04 -2.35377E+04  1.52462E+04 -3.26152E+04 -2.51004E+03
 -2.61439E+04 -1.83393E+04 -1.22557E+04 -2.63941E+04  5.09341E+03 -2.70098E+04  2.15530E+04 -2.35158E+04
  3.27819E+04 -1.42872E+04  3.89712E+04  5.31134E+03  2.71882E+04  2.51355E+04  4.76363E+03  4.24709E+04
 -2.04374E+04  3.46225E+04 -3.10586E+04  1.23696E+04 -2.37302E+04 -1.03734E+04 -5.13691E+03 -1.29614E+04
  5.97917E+02 -8.88503E+02 -7.57855E+03  8.43290E+03 -2.11799E+04  5.13082E+03 -2.13638E+04 -1.06076E+04
 -1.31209E+04 -2.40233E+04  6.04704E+03 -2.82884E+04  1.86973E+04 -2.09319E+04  2.36943E+04 -2.07239E+03
  1.45424E+04  1.67110E+04 -1.89720E+03  2.41642E+04 -1.66715E+04  1.40514E+04 -2.47493E+04 -4.35504E+03
 -1.74337E+04 -2.10784E+04 -3.39113E+03 -2.85572E+04  1.36207E+04 -2.41735E+04  2.44751E+04 -1.15753E+04
  2.25370E+04 -6.40945E+02  1.69423E+04  5.45998E+03  9.77786E+03  1.10670E+03  1.17923E+04 -1.73356E+03
  2.25042E+04  2.70784E+03  2.66211E+04  1.90278E+04  1.81890E+04  3.96017E+04 -2.32121E+03  4.58820E+04
 -2.65021E+04  3.81662E+04 -4.36781E+04  1.98275E+04 -4.70884E+04 -3.68520E+03 -3.81686E+04 -2.68915E+04
 -1.42704E+04 -3.89373E+04  1.36645E+04 -3.51378E+04  2.93607E+04 -1.58251E+04  2.42160E+04  8.14709E+03
  8.28465E+03  1.94756E+04 -1.21844E+04  1.74504E+04 -2.12963E+04  2.30271E+03 -1.61734E+04 -1.26616E+04
 -4.77487E+02 -2.06510E+04  1.11411E+04 -1.42647E+04  1.41243E+04 -1.56255E+03  4.33569E+03  9.16715E+03
 -8.75162E+03  4.31432E+03 -1.00639E+04 -6.78223E+03 -2.23037E+03 -1.92948E+04  1.24928E+04 -2.08724E+04
  2.35188E+04 -1.17472E+04  2.84055E+04  3.38470E+03  2.52215E+04  1.93410E+04  1.17438E+04  3.14214E+04
 -5.97379E+03  3.36846E+04 -2.13225E+04  2.11272E+04 -2.38887E+04  4.42757E+03 -1.65192E+04 -5.50670E+03
 -6.36441E+03 -7.28392E+03 -3.92934E+01 -6.72445E+01 -3.30323E+03  3.74928E+03 -7.60205E+03  5.13705E+03
 -1.50145E+04 -6.04699E+02 -1.57629E+04 -1.25681E+04 -5.96280E+03 -2.04020E+04  6.67964E+03 -1.66843E+04
  1.38467E+04 -7.19420E+03  1.01639E+04  4.58626E+03 -1.04777E+03  5.58598E+03 -7.73771E+03  3.66659E+02
 -7.39672E+03 -1.13048E+04 -1.42161E+03 -1.55166E+04  1.02746E+04 -1.71485E+04  2.09756E+04 -8.95270E+03
  2.54071E+04  3.24052E+03  1.83952E+04  1.54568E+04  2.85340E+03  2.06905E+04 -1.09684E+04  1.66619E+04
 -1.32169E+04  4.62118E+03 -6.63187E+03 -3.87371E+03  2.38357E+03 -4.69164E+03  7.91560E+03 -1.20769E+03
  8.26907E+03  8.19134E+03  5.80749E+02  1.43393E+04 -9.64611E+03  1.31316E+04 -1.67788E+04  2.89642E+03
 -1.08275E+04 -8.53841E+03  2.38081E+02 -1.42470E+04  8.80913E+03 -7.78066E+03  1.04571E+04  3.68141E+03
  1.76164E+03  1.12309E+04 -8.61058E+03  1.26059E+04 -1.51047E+04  5.69867E+03 -1.47102E+04 -6.53433E+03
 -8.59934E+03 -1.67477E+04  4.70243E+03 -1.98567E+04  1.61406E+04 -1.14698E+04  1.80013E+04  4.22694E+03
  1.11763E+04  1.40177E+04 -1.76726E+03  1.70140E+04 -1.25435E+04  9.94830E+03 -1.41860E+04 -1.31881E+03
 -1.04766E+04 -1.05450E+04 -1.91676E+03 -1.19082E+04  7.07239E+03 -9.97530E+03  8.51993E+03 -3.84709E+03
  5.00511E+03  2.34631E+03 -1.74806E+03  2.34131E+03 -8.58559E+02 -4.21169E+03  3.08690E+03 -8.28958E+03
  1.22338E+04 -6.21026E+03  1.76749E+04  1.49301E+03  1.67578E+04  1.23360E+04  1.04043E+04  2.26489E+04
 -5.65373E+03  2.60105E+04 -2.17368E+04  1.87204E+04 -2.78559E+04  3.66392E+03 -2.24528E+04 -9.57241E+03
 -1.07137E+04 -1.87769E+04 -6.61946E+02 -1.56639E+04  5.62402E+03 -9.51231E+03  6.05014E+03 -5.55997E+03
  4.27287E+03 -3.24226E+03  4.37931E+03 -4.66914E+03  6.28505E+03 -3.94478E+03  9.17857E+03 -9.68410E+02
  1.13095E+04  2.45992E+03  6.14389E+03  9.46927E+03 -1.91534E+03  1.17768E+04 -1.28760E+04  9.99044E+03
 -1.56664E+04 -1.73416E+03 -1.03723E+04 -1.16008E+04 -1.52958E+03 -1.66437E+04  8.99033E+03 -1.69112E+04
  1.81023E+04 -8.88373E+03  2.09890E+04  2.97822E+03  1.46622E+04  1.55371E+04  1.81272E+03  1.84606E+04
 -7.92000E+03  1.43964E+04 -1.12203E+04  5.26726E+03 -7.89143E+03 -1.41732E+03 -3.40084E+03 -2.03729E+03
 -1.90226E+03 -9.30768E+01 -2.37615E+03  3.67948E+03 -6.43893E+03  2.86105E+03 -1.15844E+04 -1.39428E+03
 -7.97868E+03 -1.06081E+04  2.25961E+02 -1.60505E+04  9.86437E+03 -1.39915E+04  1.65616E+04 -4.98387E+03
  1.60737E+04  7.15398E+03  8.21697E+03  1.37207E+04 -2.91067E+03  1.61566E+04 -1.17519E+04  1.02965E+04
 -1.61057E+04 -6.56684E+01 -1.11457E+04 -1.07441E+04 -3.48987E+02 -1.33508E+04  7.40420E+03 -8.79385E+03
  9.97863E+03 -3.25823E+03  6.87183E+03  3.55196E+03  2.43167E+03  4.55695E+03  1.62732E+03  2.45699E+03
  2.45908E+03  1.40566E+03  4.72308E+03  1.64185E+03  4.62433E+03  4.84317E+03  4.45949E+03  8.75354E+03
 -3.69985E+03  1.28920E+04 -1.12150E+04  1.25562E+04 -1.70447E+04  3.74301E+03 -1.69544E+04 -6.94177E+03
 -8.20898E+03 -1.64453E+04  2.11149E+03 -1.78052E+04  1.09483E+04 -1.16899E+04  1.40594E+04 -2.19251E+03
  1.06885E+04  5.61308E+03  2.48514E+03  1.00553E+04 -4.01263E+03  6.40542E+03 -6.48360E+03 -9.48411E+02
 -3.35167E+03 -7.11999E+03  3.97553E+03 -7.18397E+03  6.66435E+03 -3.53405E+03  7.23655E+03  2.40107E+03
  4.42105E+03  3.32314E+03  1.32840E+03  3.09358E+03 -4.55825E+02  2.58650E+03  1.35159E+03 -5.97926E+02
  2.54752E+03 -3.91957E+02  6.39532E+03  2.16188E+03  4.78882E+03  9.38964E+03 -1.50434E+03  1.17938E+04
 -8.39619E+03  7.85672E+03 -1.07157E+04  2.49634E+03 -9.25134E+03 -4.26247E+03 -3.52740E+03 -6.54067E+03
  9.23856E+02 -6.38562E+03  4.28204E+03 -2.85127E+03  3.43195E+03  3.55228E+03 -1.67672E+03  5.66030E+03
 -7.01241E+03  3.84545E+03 -8.56594E+03 -3.54105E+03 -4.86576E+03 -8.05004E+03  1.42372E+03 -8.76522E+03
  5.67141E+03 -4.90757E+03  6.63561E+03 -1.22120E+03  5.24618E+03  3.09160E+03  4.48556E+02  4.36917E+03
 -3.68727E+03  1.54258E+03 -3.67119E+03 -3.51379E+03  1.73421E+03 -7.20182E+03  8.90309E+03 -6.25211E+03
  9.90442E+03  8.55100E+02  1.01014E+04  7.51840E+03  3.23426E+03  1.12090E+04 -4.45990E+03  1.09349E+04
 -9.34774E+03  4.69710E+03 -8.78538E+03 -2.24093E+03 -5.16950E+03 -6.12323E+03  1.14084E+03 -6.94596E+03
  6.60398E+03 -3.40133E+03  5.68595E+03  2.96101E+03  1.78610E+03  6.08126E+03 -1.67504E+03  4.59747E+03
 -3.60070E+03  3.24362E+03 -3.09167E+03  6.62527E+02 -8.16169E+02  1.54417E+03 -2.17851E+03  2.65107E+03
 -2.36697E+03  4.25736E+03 -6.80171E+03  3.47548E+03 -1.14475E+04  5.38681E+02 -1.18030E+04 -6.64053E+03
 -6.00905E+03 -1.42262E+04  2.75880E+03 -1.76067E+04  1.04731E+04 -1.29143E+04  1.62981E+04 -4.93166E+03
  1.46726E+04  2.74273E+03  8.69441E+03  9.88328E+03  1.00633E+03  1.11421E+04 -3.48050E+03  8.51595E+03
 -6.19765E+03  3.25296E+03 -3.82475E+03 -2.25624E+03 -8.13935E+02 -1.99647E+02 -7.44348E+02 -3.34492E+02
 -2.30721E+03  2.36653E+02 -1.46396E+03 -2.33963E+02 -1.44241E+03 -3.75104E+03 -2.56547E+02 -3.84416E+03
  5.20455E+03 -3.03837E+03  6.25289E+03  3.58084E+01  8.41128E+03  5.83048E+03  1.94296E+03  1.21020E+04
 -4.62206E+03  1.25917E+04 -1.21286E+04  7.32663E+03 -1.31297E+04 -1.31959E+03 -1.00638E+04 -8.32173E+03
 -3.58448E+03 -1.14331E+04  2.96442E+03 -1.02471E+04  7.33969E+03 -6.17181E+03  6.88721E+03  3.24791E+02
  4.00790E+03  3.40014E+03  4.26141E+01  3.30874E+03 -2.86701E+03  1.96148E+02 -5.40169E+02 -2.56532E+03
  3.73665E+03 -1.87891E+03  4.11617E+03  4.41116E+02  2.95736E+03  5.32191E+03  2.90799E+02  6.02706E+03
 -5.58867E+03  5.17247E+03 -7.90050E+03  7.82128E+02 -6.60686E+03 -5.64051E+03 -1.33438E+03 -9.06276E+03
  6.12730E+03 -7.99960E+03  9.30466E+03 -2.58849E+03  9.16351E+03  1.21007E+03  5.07873E+03  6.99164E+03
  1.71713E+03  8.28331E+03 -3.90672E+03  6.77625E+03 -4.79853E+03  3.65983E+03 -3.82013E+03  6.64772E+02
 -2.52052E+03 -1.39355E+02 -2.80727E+03  9.89127E+02 -3.66829E+03  2.17458E+03 -5.65058E+03 -8.07670E+02
 -5.95032E+03 -3.60894E+03 -2.00833E+03 -7.68129E+03  3.13672E+03 -8.25779E+03  6.43690E+03 -3.47356E+03
  8.15431E+03  5.19507E+02  4.20038E+03  4.72394E+03 -5.58760E+02  8.25596E+03 -6.12627E+03  5.06022E+03
