 $NMID ID='MM_0lb_SNR400_19hz_g50_68.RAW', FMTDAT='(8E13.5)'
 TRAMP=1., VOLUME=1. $END
  3.09332E+05  2.97506E+02  3.37673E+05  2.50609E+05  8.41754E+04  3.37084E+05 -1.32085E+05  2.50398E+05
 -1.89498E+05  8.30512E+04 -1.10303E+05 -3.34110E+04  1.43432E+03 -4.97617E+04  5.35292E+04  8.31638E+01
  3.46344E+04  5.23881E+04 -1.65710E+04  7.49556E+04 -6.08925E+04  6.28129E+04 -8.35383E+04  3.15886E+04
 -7.92690E+04 -1.09879E+04 -5.65945E+04 -5.02529E+04 -1.46886E+04 -6.84117E+04  2.64666E+04 -4.47772E+04
  3.93686E+04  4.11606E+03  1.56011E+04  4.70491E+04 -3.38065E+04  4.58982E+04 -6.59901E+04 -4.56158E+02
 -5.22063E+04 -5.61712E+04 -6.30173E+03 -7.52736E+04  3.29150E+04 -5.37673E+04  4.66716E+04 -1.60203E+04
  4.18216E+04  1.13435E+04  3.03890E+04  2.41110E+04  1.57294E+04  2.79829E+04 -4.71655E+03  2.66771E+04
 -2.14746E+04  1.23426E+04 -1.91094E+04 -5.00201E+03  4.59606E+03 -7.90650E+03  2.09279E+04  1.09345E+04
  7.56044E+03  3.32449E+04 -3.07860E+04  3.41344E+04 -6.14750E+04  2.03717E+03 -5.46021E+04 -4.09798E+04
 -1.24013E+04 -6.10429E+04  3.87653E+04 -4.37059E+04  5.58336E+04 -1.66924E+03  3.22212E+04  3.04970E+04
 -6.53781E+03  3.27585E+04 -2.85591E+04  1.35275E+04 -2.76685E+04 -5.28137E+03 -1.49678E+04 -1.03131E+04
 -7.41779E+03 -1.14110E+04 -1.10796E+03 -1.65850E+04  6.75206E+03 -2.20239E+04  1.51937E+04 -1.40025E+04
  1.14856E+04  4.17095E+03 -6.38462E+03  1.27172E+04 -1.96561E+04 -2.92751E+03 -8.18016E+03 -3.08098E+04
  2.04695E+04 -4.08384E+04  4.44471E+04 -1.79962E+04  4.19773E+04  1.83171E+04  1.40232E+04  4.18155E+04
 -1.53088E+04  3.08488E+04 -2.35278E+04  7.20983E+02 -8.36424E+03 -2.70085E+04  2.06827E+04 -3.11500E+04
  3.82420E+04 -7.54167E+03  3.11715E+04  2.27085E+04  1.54337E+04  4.27618E+04 -7.76165E+03  4.53274E+04
 -2.82110E+04  3.01727E+04 -3.71668E+04  8.25848E+03 -3.82155E+04 -1.52699E+04 -2.12150E+04 -3.43219E+04
  6.77000E+03 -3.41898E+04  2.97355E+04 -1.26161E+04  2.65206E+04  1.10127E+04  2.79916E+03  1.80814E+04
 -1.32609E+04  7.08298E+03 -9.82583E+03 -7.33049E+03  6.14136E+03 -1.02897E+04  1.72641E+04  6.92078E+03
  1.21635E+04  2.08645E+04 -6.55122E+03  2.39069E+04 -2.10401E+04  9.05438E+03 -2.49738E+04 -5.81365E+03
 -1.74923E+04 -1.62286E+04 -5.87307E+03 -1.71419E+04  3.02340E+03 -1.49543E+04  1.30130E+04 -1.43848E+04
  2.13429E+04 -1.19559E+04  2.78355E+04  1.15606E+03  2.09312E+04  1.61805E+04  4.19545E+03  3.23778E+04
 -1.61425E+04  2.77106E+04 -2.60533E+04  9.71038E+03 -1.98928E+04 -1.03059E+04 -4.05248E+03 -1.35747E+04
  2.84473E+03 -4.46776E+03 -2.48896E+03  5.64432E+03 -1.29513E+04  4.86360E+03 -1.33234E+04 -4.66696E+03
 -8.89094E+03 -1.53227E+04  4.09808E+03 -1.87668E+04  1.29114E+04 -1.42822E+04  1.44291E+04 -1.68824E+03
  9.15204E+03  1.09894E+04 -1.32110E+03  1.59510E+04 -9.97323E+03  8.50664E+03 -1.53443E+04 -3.36484E+03
 -1.15401E+04 -1.37855E+04 -1.79139E+03 -1.92700E+04  8.67545E+03 -1.53173E+04  1.62376E+04 -7.12899E+03
  1.43127E+04 -5.77386E+01  1.07330E+04  3.52165E+03  4.96226E+03  8.11353E+02  6.96914E+03 -1.97106E+03
  1.35622E+04  2.59146E+03  1.40293E+04  1.24254E+04  8.88361E+03  2.39466E+04 -3.22489E+03  2.67065E+04
 -1.55172E+04  2.01896E+04 -2.42468E+04  9.64383E+03 -2.47845E+04 -1.51257E+03 -2.13525E+04 -1.39930E+04
 -1.00902E+04 -2.03927E+04  6.90759E+03 -1.89123E+04  1.66860E+04 -1.12017E+04  1.57883E+04  3.47074E+03
  6.38315E+03  1.08814E+04 -7.31420E+03  1.04838E+04 -1.37063E+04  2.50960E+03 -1.00701E+04 -7.76903E+03
 -3.75100E+02 -1.18116E+04  5.81784E+03 -9.05141E+03  7.21122E+03 -1.18506E+03  1.27842E+03  4.62045E+03
 -5.30371E+03  1.26069E+03 -4.03554E+03 -4.21101E+03  6.10461E+02 -9.43172E+03  7.93165E+03 -9.54890E+03
  1.19751E+04 -4.56462E+03  1.16251E+04  2.98070E+03  9.96475E+03  9.54103E+03  4.52885E+03  1.39320E+04
 -1.32409E+03  1.57458E+04 -9.42536E+03  1.01939E+04 -1.09843E+04  2.92326E+03 -8.37541E+03 -1.96488E+03
 -4.15202E+03 -3.11075E+03 -8.33615E+02  1.67265E+03 -2.56084E+03  1.60827E+03 -3.34389E+03  3.18795E+03
 -7.59009E+03 -9.39045E+02 -8.10491E+03 -7.59681E+03 -3.36215E+03 -1.16555E+04  3.70880E+03 -8.39303E+03
  7.02850E+03 -3.62679E+03  4.93579E+03  2.19958E+03  7.86286E+02  3.01974E+03 -3.84954E+03 -5.35623E+02
 -3.24545E+03 -4.82825E+03 -6.95949E+02 -6.93801E+03  3.53398E+03 -7.59469E+03  9.98816E+03 -3.81728E+03
  1.14518E+04  7.26809E+02  8.42620E+03  5.92558E+03  1.56694E+03  8.18356E+03 -5.53083E+03  8.07995E+03
 -7.68939E+03  2.79945E+03 -3.46269E+03 -1.18223E+03  1.04545E+03 -2.10552E+03  4.73152E+03 -1.15616E+03
  3.68775E+03  3.89654E+03  8.83169E+02  6.09018E+03 -4.31947E+03  6.15439E+03 -7.24715E+03  1.47853E+03
 -5.03279E+03 -3.63060E+03 -2.77026E+02 -6.01321E+03  3.15490E+03 -3.46281E+03  3.06822E+03  6.30819E+02
  2.00677E+02  2.81389E+03 -4.42617E+03  4.51929E+03 -4.40724E+03  2.25149E+03 -4.09213E+03 -4.14327E+02
 -3.23176E+03 -5.17798E+03  1.58795E+03 -6.69775E+03  6.07459E+03 -4.88546E+03  6.07798E+03  1.27640E+03
  4.32211E+03  4.95806E+03  6.20536E+01  7.14029E+03 -4.82331E+03  4.46991E+03 -5.13612E+03 -1.41703E+02
 -5.50138E+03 -5.17290E+03 -1.82209E+03 -4.86489E+03  2.47304E+03 -3.90970E+03  2.35070E+03 -2.95375E+03
  2.76449E+03  3.26761E+02  3.64584E+02  1.22576E+03  9.32812E+02 -2.91648E+01  1.53110E+02 -1.35718E+03
  3.80549E+03 -5.08074E+02  5.07562E+03  4.65437E+02  5.72741E+03  2.49623E+03  5.06475E+03  7.03739E+03
 -1.33698E+03  8.18837E+03 -7.22054E+03  6.43135E+03 -9.38605E+03  7.81067E+02 -7.56098E+03 -2.92848E+03
 -3.79052E+03 -5.69193E+03 -4.25808E+02 -4.76265E+03  2.17323E+03 -1.91998E+03  1.66042E+03 -2.42630E+03
  1.62474E+03 -1.54045E+03  2.21148E+03 -1.75470E+03  3.82835E+03 -8.50790E+02  3.60660E+03  2.88093E+02
  3.97267E+03  1.52905E+03  1.29263E+03  3.33482E+03 -1.93511E+03  2.57189E+03 -4.52048E+03  2.40163E+03
 -4.59236E+03 -1.21066E+03 -1.58291E+03 -3.02220E+03  8.30792E+02 -5.11183E+03  2.78846E+03 -5.27422E+03
  5.18924E+03 -2.89360E+03  6.32000E+03 -6.84141E+01  4.28464E+03  4.28002E+03  1.22742E+03  5.47766E+03
 -1.99305E+03  5.69269E+03 -3.16041E+03  2.06204E+03 -1.51289E+03 -1.27349E+03 -2.22214E+02 -6.59547E+02
 -2.71063E+02  6.63403E+02 -1.13874E+03  2.07922E+03 -2.68645E+03  1.00827E+03 -4.29369E+03 -4.96669E+02
 -1.69793E+03 -3.91930E+03  4.79055E+02 -4.72526E+03  2.45424E+03 -4.05528E+03  3.11522E+03 -1.40465E+03
  3.19711E+03  1.84162E+03  1.66514E+03  3.09386E+03 -3.34851E+02  4.37117E+03 -2.89731E+03  2.33138E+03
 -3.63055E+03  6.29517E+01 -3.70110E+03 -2.51475E+03 -4.84349E+02 -2.77544E+03  1.47883E+03 -2.29707E+03
  2.30284E+03 -1.11434E+03  1.54438E+03  3.87673E+02 -7.40214E+01  1.59003E+03  8.89525E+02  7.21478E+02
  1.86562E+03  3.83546E+02  1.02549E+03  9.84240E+02  8.02779E+02  2.66865E+03  1.17853E+03  1.49794E+03
 -1.40213E+03  2.70124E+03 -2.32157E+03  3.98258E+03 -2.69261E+03  1.36615E+03 -4.17774E+03 -2.85417E+02
 -1.82604E+03 -3.14776E+03  2.30241E+02 -4.43752E+03  2.08465E+03 -2.39235E+03  2.81433E+03 -1.29050E+03
  2.23393E+03  1.13540E+03  4.98893E+02  2.07797E+03 -6.00304E+02  1.69282E+03 -8.91618E+02 -1.79365E+02
 -5.10015E+02 -1.18095E+03  1.61458E+03 -1.55524E+03  1.11497E+03 -6.64649E+02  1.20924E+03  2.66324E+02
  1.04609E+03  4.03425E+02  1.10332E+03 -2.61623E+02 -7.30090E+02  8.48400E+02  1.15826E+03 -1.31310E+02
 -2.36592E+02 -6.66850E+01  1.52504E+03  5.87599E+02 -5.22710E+02  2.33130E+03 -3.51322E+02  2.67073E+03
 -1.57666E+03  7.46469E+02 -1.89214E+03  1.49974E+02 -2.47745E+03 -9.63101E+02  4.63289E+02 -9.54473E+02
  4.46502E+02 -1.17126E+03  6.97577E+02 -8.75587E+02  6.08923E+02  7.52701E+02 -6.58304E+02  1.50548E+03
 -6.65888E+02  1.38259E+02 -1.10238E+03 -1.44867E+03 -5.73734E+02 -2.51351E+03  2.52435E+02 -1.56069E+03
 -1.63346E+02 -2.59634E+02 -7.10624E+01  1.39563E+02  1.47033E+03 -3.54147E+01  2.67617E+02  6.46765E+02
 -4.57556E+01 -1.49893E+02 -7.39227E+02 -3.49391E+02  1.07930E+03 -7.54409E+02  1.16206E+03 -1.03823E+03
  1.36341E+03 -2.09430E+02  2.19416E+03  3.96077E+02  1.16901E+03  1.27251E+03 -2.48740E+01  1.97962E+03
 -1.62031E+03  5.01141E+02 -1.22113E+03 -7.28705E+02 -5.42150E+02 -1.52514E+03 -8.31459E+01  3.56775E+02
  1.44285E+03 -7.20670E+02  6.22534E+02 -3.25013E+01  2.94034E+02  1.38813E+03  4.73039E+02  1.08180E+03
 -3.79778E+02  7.93324E+02 -7.02932E+02  6.06247E+01  1.01327E+02  4.86773E+02 -6.10877E+02  5.49791E+02
 -1.03627E+03  1.38620E+03 -2.05623E+03  6.29996E+02 -1.53172E+03 -2.81933E+02 -2.19909E+03 -7.77477E+02
 -6.19425E+02 -2.05767E+03  7.48968E+02 -2.39318E+03  1.25615E+03 -2.10183E+03  2.62334E+03 -1.10846E+03
  2.68880E+03 -5.25842E+02  5.41906E+02  8.74944E+02 -3.98302E+02  1.22588E+03 -8.61051E+02  5.75485E+02
 -1.27495E+03  7.14590E+02 -7.54612E+02  3.15180E+02 -9.12500E+02  5.60319E+02 -6.29222E+02  5.89992E+02
 -9.51800E+02  2.65396E+02 -1.10457E+03 -6.76968E+01  8.68825E+02 -1.39289E+03 -6.53798E+02 -7.08773E+02
  1.37503E+03 -6.98768E+02  1.37612E+02  1.85042E+02  3.32156E+02  5.82187E+02 -9.00390E+02  9.88320E+02
 -4.50234E+02  2.01175E+03 -1.05121E+03  1.04776E+03 -1.58245E+03 -1.18601E+02 -1.31514E+03 -1.27485E+03
 -5.34972E+02 -9.79492E+02  1.96778E+02 -1.17609E+03  3.81363E+02 -6.45271E+02  5.45780E+02  4.01962E+02
  6.69992E+02  4.40569E+02  2.24289E+02  5.58055E+02 -6.99332E+02 -4.85537E+02 -3.56596E+02 -3.75568E+02
  1.00550E+03  9.57453E+01  5.42906E+02  4.64604E+02  1.32070E+01  7.31943E+01  8.03829E+02  1.11876E+02
 -5.73368E+02  3.96417E+02 -3.75015E+02 -1.10764E+02 -8.42310E+02 -7.21335E+02  3.44127E+02 -8.29084E+02
  1.29291E+02 -2.35161E+01  5.47964E+02 -6.98537E+01  1.24149E+03 -8.71607E+02  6.39361E+02  9.83231E+02
 -1.74895E+02  3.99343E+02  1.80025E+02  1.12901E+03 -8.37812E+01  7.47355E+02 -4.87731E+02 -5.09112E+01
  1.86473E+02  1.74354E+02 -3.38782E+02 -4.80013E+02 -9.67351E+02  2.35791E+02 -3.25740E+02 -1.89423E+02
 -1.11983E+03  5.49160E+02 -1.63220E+02 -1.02173E+03  4.24400E+02 -1.83636E+03  4.70727E+02 -4.73055E+02
  2.48606E+02  4.02015E+02  3.12123E+02  5.80539E+01  1.14459E+02  2.12142E+01 -1.71522E+02  6.93594E+02
