 $NMID ID='MM_0lb_SNR400_9hz_g55_70.RAW', FMTDAT='(8E13.5)'
 TRAMP=1., VOLUME=1. $END
  3.10032E+05 -4.61286E+02  3.37976E+05  2.51217E+05  8.50501E+04  3.38282E+05 -1.33093E+05  2.51476E+05
 -1.91374E+05  8.35107E+04 -1.12673E+05 -3.23797E+04  4.32127E+01 -5.03087E+04  5.41960E+04 -9.81351E+02
  3.57153E+04  5.22541E+04 -1.66027E+04  7.59111E+04 -6.10854E+04  6.43590E+04 -8.52313E+04  3.27128E+04
 -8.30725E+04 -1.20380E+04 -5.77129E+04 -5.19032E+04 -1.46562E+04 -7.10962E+04  2.84739E+04 -4.72289E+04
  4.15010E+04  3.96238E+03  1.67279E+04  4.87582E+04 -3.47314E+04  4.84518E+04 -6.81565E+04  4.87864E+02
 -5.56392E+04 -5.74824E+04 -7.45969E+03 -7.97039E+04  3.53808E+04 -5.74922E+04  4.93591E+04 -1.87029E+04
  4.52576E+04  1.17963E+04  3.28640E+04  2.65338E+04  1.61726E+04  3.08897E+04 -5.47781E+03  2.78917E+04
 -2.24405E+04  1.17477E+04 -1.79275E+04 -5.45710E+03  7.51072E+03 -6.84303E+03  2.35195E+04  1.34759E+04
  6.80648E+03  3.76569E+04 -3.47109E+04  3.63343E+04 -6.57460E+04  1.73378E+03 -5.80632E+04 -4.53855E+04
 -1.25910E+04 -6.58974E+04  4.17227E+04 -4.79911E+04  6.25373E+04 -2.00379E+03  3.70041E+04  3.48505E+04
 -4.53400E+03  3.95433E+04 -3.23081E+04  1.93766E+04 -3.38582E+04 -3.38309E+03 -1.98895E+04 -1.22881E+04
 -9.47414E+03 -1.55443E+04 -5.87499E+02 -2.01471E+04  8.17533E+03 -2.34531E+04  1.59310E+04 -1.12669E+04
  1.05050E+04  6.70825E+03 -1.09006E+04  1.26363E+04 -2.39595E+04 -7.13093E+03 -8.86378E+03 -3.85401E+04
  2.51843E+04 -4.71061E+04  5.19999E+04 -2.05938E+04  4.90984E+04  2.12714E+04  1.83331E+04  4.68087E+04
 -1.69947E+04  3.63379E+04 -2.75356E+04  3.08395E+03 -1.21102E+04 -2.94779E+04  2.18713E+04 -3.72221E+04
  4.47654E+04 -1.09598E+04  4.07691E+04  2.48561E+04  2.23079E+04  5.12541E+04 -8.55701E+03  5.62342E+04
 -3.53056E+04  3.85370E+04 -4.83218E+04  1.21115E+04 -4.83256E+04 -1.90343E+04 -2.68257E+04 -4.22252E+04
  6.96440E+03 -4.17272E+04  3.38434E+04 -1.71518E+04  3.21472E+04  1.12083E+04  4.46159E+03  2.10341E+04
 -1.48511E+04  1.01782E+04 -1.17359E+04 -7.06387E+03  6.25154E+03 -1.10803E+04  1.85868E+04  5.64203E+03
  1.48406E+04  2.21140E+04 -5.12952E+03  2.73910E+04 -2.33287E+04  1.38263E+04 -3.16406E+04 -2.08026E+03
 -2.59212E+04 -1.87838E+04 -1.24012E+04 -2.52868E+04  4.03085E+03 -2.62855E+04  2.05208E+04 -2.27419E+04
  3.24450E+04 -1.41348E+04  3.83398E+04  5.05392E+03  2.73766E+04  2.50706E+04  4.69617E+03  4.17050E+04
 -2.06861E+04  3.41786E+04 -3.13277E+04  1.25081E+04 -2.31891E+04 -1.01638E+04 -5.27510E+03 -1.34550E+04
  4.63749E+02 -1.82509E+03 -7.53045E+03  8.01527E+03 -2.08468E+04  4.17450E+03 -2.14527E+04 -1.00559E+04
 -1.19591E+04 -2.37909E+04  6.57925E+03 -2.79910E+04  1.84059E+04 -2.05007E+04  2.29183E+04 -1.41948E+03
  1.45673E+04  1.61295E+04 -1.75714E+03  2.38190E+04 -1.72091E+04  1.32009E+04 -2.35920E+04 -4.57276E+03
 -1.76401E+04 -2.03373E+04 -2.93830E+03 -2.79764E+04  1.27029E+04 -2.37020E+04  2.30855E+04 -1.22668E+04
  2.23202E+04 -2.00519E+02  1.58780E+04  5.14418E+03  9.58819E+03  1.04955E+03  1.22200E+04 -1.89106E+03
  2.26045E+04  3.22956E+03  2.55669E+04  1.88573E+04  1.80621E+04  3.81913E+04 -2.90482E+03  4.55242E+04
 -2.56591E+04  3.76789E+04 -4.31829E+04  1.99125E+04 -4.63458E+04 -3.68720E+03 -3.70579E+04 -2.64440E+04
 -1.45767E+04 -3.82799E+04  1.32523E+04 -3.35433E+04  2.86608E+04 -1.50779E+04  2.50396E+04  8.18149E+03
  8.31920E+03  1.88178E+04 -1.10593E+04  1.58524E+04 -2.09160E+04  2.64704E+03 -1.57812E+04 -1.27796E+04
 -2.83017E+02 -2.06911E+04  1.10485E+04 -1.54521E+04  1.37217E+04 -9.69294E+02  3.42462E+03  8.56345E+03
 -9.30481E+03  4.09197E+03 -9.43268E+03 -7.30508E+03 -2.50695E+03 -1.88298E+04  1.08715E+04 -2.07406E+04
  2.41701E+04 -1.18552E+04  2.61796E+04  3.93078E+03  2.30854E+04  1.98167E+04  1.08626E+04  2.95048E+04
 -5.37055E+03  3.24484E+04 -2.10888E+04  1.97288E+04 -2.30241E+04  4.74370E+03 -1.62039E+04 -7.24410E+03
 -6.28362E+03 -8.04823E+03 -5.04483E+02 -1.67038E+02 -3.12454E+03  3.57668E+03 -7.59651E+03  5.31894E+03
 -1.45666E+04 -1.54594E+03 -1.49453E+04 -1.13012E+04 -6.25913E+03 -1.98691E+04  5.99455E+03 -1.65498E+04
  1.30273E+04 -6.74250E+03  9.93987E+03  4.59848E+03 -7.32446E+02  7.08052E+03 -8.47744E+03  8.48100E+01
 -8.23185E+03 -9.80360E+03 -1.55594E+03 -1.67370E+04  9.43121E+03 -1.69463E+04  2.13769E+04 -1.00668E+04
  2.38187E+04  2.13602E+03  1.74131E+04  1.51211E+04  2.92718E+03  1.96496E+04 -1.01539E+04  1.57181E+04
 -1.32435E+04  4.42288E+03 -6.75460E+03 -3.98564E+03  2.08832E+03 -5.18717E+03  7.97239E+03 -9.05885E+02
  6.95027E+03  6.49722E+03  7.48387E+02  1.31873E+04 -9.19127E+03  1.20539E+04 -1.58184E+04  2.80087E+03
 -1.13665E+04 -9.28423E+03  2.00261E+02 -1.44494E+04  8.47385E+03 -6.70224E+03  9.60772E+03  3.08865E+03
  9.98949E+02  1.00295E+04 -8.88888E+03  1.17809E+04 -1.42698E+04  5.25023E+03 -1.46556E+04 -4.88207E+03
 -9.34517E+03 -1.57868E+04  4.10805E+03 -1.92728E+04  1.52863E+04 -1.15724E+04  1.73456E+04  2.32428E+03
  9.98005E+03  1.37795E+04 -1.45730E+03  1.58859E+04 -1.16129E+04  8.80359E+03 -1.22677E+04 -1.28899E+03
 -1.11466E+04 -1.13283E+04 -1.66388E+03 -1.31796E+04  7.03818E+03 -9.28707E+03  8.10593E+03 -4.31295E+03
  4.86333E+03  2.34858E+03 -9.70827E+02  1.26273E+03 -7.10263E+02 -4.16250E+03  2.69433E+03 -7.97173E+03
  1.18674E+04 -5.19750E+03  1.67708E+04  1.60984E+03  1.60801E+04  1.10483E+04  1.06465E+04  2.20656E+04
 -5.37108E+03  2.56000E+04 -2.03913E+04  1.87371E+04 -2.70728E+04  2.87523E+03 -2.14281E+04 -9.97898E+03
 -1.07062E+04 -1.78008E+04  1.22375E+02 -1.54145E+04  5.29192E+03 -9.22162E+03  5.65407E+03 -5.64312E+03
  3.06501E+03 -3.11228E+03  4.46023E+03 -4.06063E+03  6.05740E+03 -4.02531E+03  7.98116E+03 -1.91882E+03
  1.08952E+04  1.92460E+03  5.83073E+03  9.69254E+03 -2.72013E+03  1.18350E+04 -1.12710E+04  9.22130E+03
 -1.48711E+04 -1.80254E+03 -1.06271E+04 -1.10411E+04 -1.05462E+03 -1.64378E+04  9.36305E+03 -1.66866E+04
  1.74327E+04 -8.70390E+03  2.05943E+04  2.62373E+03  1.37657E+04  1.41444E+04  2.19145E+03  1.82995E+04
 -7.42291E+03  1.45219E+04 -1.12165E+04  5.32778E+03 -7.15116E+03 -2.21290E+03 -2.92059E+03 -2.61612E+03
 -1.58058E+03  3.18010E+02 -1.50239E+03  3.35657E+03 -6.12014E+03  2.88779E+03 -1.00659E+04 -6.92781E+02
 -8.17751E+03 -1.03849E+04  7.06119E+02 -1.47281E+04  8.85714E+03 -1.44052E+04  1.46867E+04 -4.14950E+03
  1.45824E+04  7.63444E+03  7.00890E+03  1.37688E+04 -3.18909E+03  1.52337E+04 -1.07267E+04  9.05523E+03
 -1.47610E+04  4.74524E+02 -1.10950E+04 -9.54245E+03 -1.22696E+03 -1.27707E+04  6.73996E+03 -9.80792E+03
  9.77724E+03 -3.23219E+03  6.78906E+03  2.35973E+03  2.55253E+03  4.02652E+03  1.73005E+03  1.59985E+03
  2.97704E+03  9.59289E+02  3.08692E+03  2.06298E+03  4.78503E+03  5.14953E+03  4.38627E+03  8.19231E+03
 -1.96702E+03  1.28475E+04 -1.06315E+04  1.22991E+04 -1.55648E+04  2.91472E+03 -1.66034E+04 -7.28310E+03
 -7.92593E+03 -1.61859E+04  2.17238E+03 -1.73555E+04  9.59393E+03 -1.11042E+04  1.29139E+04 -2.87882E+03
  1.03267E+04  6.04435E+03  2.14764E+03  8.23187E+03 -4.57192E+03  5.46798E+03 -6.18392E+03 -7.46319E+02
 -2.63132E+03 -6.76683E+03  3.91982E+03 -6.59916E+03  5.92292E+03 -4.06717E+03  6.41186E+03  1.20040E+03
  3.94878E+03  3.33625E+03  1.16273E+03  1.54757E+03 -8.46212E+02  1.35596E+03  1.25826E+03  4.13344E+02
  2.93828E+03 -1.12858E+03  6.64394E+03  2.48028E+03  3.38119E+03  8.23193E+03 -1.53507E+03  1.08817E+04
 -6.78043E+03  7.42908E+03 -1.00310E+04  2.38685E+03 -8.97561E+03 -2.97441E+03 -4.44463E+03 -6.87805E+03
  6.69532E+01 -6.42180E+03  4.71068E+03 -2.08221E+03  3.35970E+03  2.92691E+03 -1.90320E+03  5.26126E+03
 -6.48734E+03  2.38940E+03 -6.83882E+03 -3.97457E+03 -4.32198E+03 -8.93774E+03  1.42003E+03 -8.26322E+03
  5.14583E+03 -6.09714E+03  6.10460E+03 -1.55184E+03  4.32176E+03  1.44336E+03  5.31850E+02  5.08679E+03
 -2.56014E+03  7.43525E+02 -4.36418E+03 -2.23030E+03  1.73415E+03 -7.91375E+03  8.44146E+03 -5.17059E+03
  9.96715E+03  7.65105E+02  1.03716E+04  7.26035E+03  2.81099E+03  1.08959E+04 -4.80097E+03  9.99870E+03
 -7.99953E+03  4.27584E+03 -9.11049E+03 -1.59655E+03 -3.89517E+03 -5.86042E+03  1.41038E+03 -6.05703E+03
  6.51137E+03 -3.84306E+03  5.10180E+03  2.89052E+03  2.33317E+03  5.02673E+03 -7.32961E+02  5.02586E+03
 -1.93323E+03  3.23420E+03 -2.41171E+03  1.22394E+03 -1.11759E+03  1.14015E+03 -1.11556E+03  1.77211E+03
 -2.61999E+03  4.70403E+03 -6.79720E+03  2.80605E+03 -1.09894E+04 -1.10246E+02 -1.13237E+04 -6.66286E+03
 -6.16935E+03 -1.37991E+04  3.02592E+03 -1.62628E+04  9.47554E+03 -1.27856E+04  1.55946E+04 -4.58354E+03
  1.46347E+04  2.42335E+03  8.29406E+03  9.83071E+03  1.22357E+03  1.05522E+04 -4.58372E+03  8.97367E+03
 -5.85783E+03  3.23303E+03 -3.59760E+03 -2.09115E+03 -4.65412E+02 -6.38004E+02 -7.63896E+02 -2.00982E+02
 -2.25128E+03  3.21209E+02 -2.27280E+03 -6.12664E+02 -4.10056E+02 -2.34034E+03  3.84427E+02 -4.12574E+03
  4.55030E+03 -4.14629E+03  6.21376E+03  3.54619E+01  7.88340E+03  5.50465E+03  2.38379E+03  1.06044E+04
 -4.05280E+03  1.27963E+04 -1.21286E+04  7.48076E+03 -1.35590E+04 -2.59757E+02 -9.41898E+03 -7.39175E+03
 -4.02443E+03 -1.14902E+04  2.93871E+03 -1.07685E+04  7.82366E+03 -5.86756E+03  7.08067E+03  3.61262E+02
  3.35185E+03  3.09069E+03 -2.71452E+02  3.78441E+03 -2.09109E+03 -9.77937E+02 -5.20327E+02 -2.34793E+03
  3.43250E+03 -2.35267E+03  4.56305E+03  1.08410E+03  2.56973E+03  3.83985E+03  2.69685E+02  6.23742E+03
 -5.01364E+03  5.41807E+03 -7.20386E+03 -3.45144E+02 -6.15861E+03 -6.13256E+03 -6.29771E+02 -8.19167E+03
  5.81150E+03 -7.70267E+03  8.31393E+03 -2.56134E+03  8.59665E+03  2.93839E+03  4.83001E+03  6.36984E+03
  8.08865E+02  6.64631E+03 -3.15423E+03  6.42389E+03 -4.73743E+03  2.92890E+03 -4.02702E+03  8.35249E+01
 -1.91363E+03 -1.36153E+03 -1.96629E+03  1.31982E+03 -4.05177E+03  7.36404E+02 -5.29084E+03 -8.34413E+02
 -5.95924E+03 -4.17212E+03 -2.29229E+03 -7.24701E+03  3.58932E+03 -7.61381E+03  6.84168E+03 -4.00396E+03
  7.95153E+03  8.92525E+02  3.61892E+03  5.20918E+03 -2.03864E+02  7.10053E+03 -5.01543E+03  4.88616E+03
