 $NMID ID='MM_0lb_SNR400_20hz_g50_5.RAW', FMTDAT='(8E13.5)'
 TRAMP=1., VOLUME=1. $END
  3.09653E+05  4.96149E+02  3.37568E+05  2.50340E+05  8.48793E+04  3.37123E+05 -1.32298E+05  2.50422E+05
 -1.89639E+05  8.24347E+04 -1.11688E+05 -3.31734E+04  1.16360E+03 -5.02815E+04  5.34934E+04  2.29535E+02
  3.47147E+04  5.28333E+04 -1.68416E+04  7.42497E+04 -6.04779E+04  6.27874E+04 -8.31055E+04  3.13991E+04
 -7.97136E+04 -1.09172E+04 -5.62875E+04 -5.00215E+04 -1.49521E+04 -6.83775E+04  2.66338E+04 -4.50458E+04
  3.87078E+04  4.16061E+03  1.48946E+04  4.67676E+04 -3.44216E+04  4.53436E+04 -6.52368E+04 -9.80390E+02
 -5.22105E+04 -5.58636E+04 -6.03006E+03 -7.46435E+04  3.29443E+04 -5.29463E+04  4.59774E+04 -1.60740E+04
  4.17126E+04  1.14802E+04  3.05411E+04  2.43639E+04  1.59841E+04  2.78726E+04 -4.51421E+03  2.66060E+04
 -2.15812E+04  1.28649E+04 -1.92283E+04 -3.57618E+03  3.92142E+03 -7.00115E+03  2.11213E+04  1.10039E+04
  7.70138E+03  3.26807E+04 -3.02511E+04  3.38859E+04 -6.06028E+04  2.10608E+03 -5.54193E+04 -4.16313E+04
 -1.20711E+04 -6.00866E+04  3.76939E+04 -4.32802E+04  5.53863E+04 -2.17550E+03  3.15730E+04  3.01406E+04
 -7.06036E+03  3.27368E+04 -2.79183E+04  1.24843E+04 -2.75861E+04 -5.73280E+03 -1.41361E+04 -9.98444E+03
 -7.17122E+03 -1.12151E+04 -1.52859E+03 -1.64038E+04  7.17400E+03 -2.27092E+04  1.46616E+04 -1.37697E+04
  1.25602E+04  4.18299E+03 -5.43995E+03  1.30728E+04 -1.92628E+04 -2.04674E+03 -7.98258E+03 -2.98900E+04
  2.01272E+04 -3.97543E+04  4.41473E+04 -1.84278E+04  4.18544E+04  1.82661E+04  1.40262E+04  4.13462E+04
 -1.54278E+04  3.05425E+04 -2.27954E+04  9.54988E+02 -8.26591E+03 -2.60880E+04  2.08388E+04 -3.04795E+04
  3.76434E+04 -6.90306E+03  3.05370E+04  2.24200E+04  1.44787E+04  4.22149E+04 -7.74073E+03  4.43786E+04
 -2.80817E+04  2.93234E+04 -3.63025E+04  8.04578E+03 -3.78538E+04 -1.46889E+04 -2.11939E+04 -3.39835E+04
  6.67457E+03 -3.33329E+04  2.88560E+04 -1.24456E+04  2.64861E+04  1.05524E+04  3.21448E+03  1.81830E+04
 -1.29191E+04  7.20403E+03 -9.61130E+03 -7.92566E+03  6.19251E+03 -9.58024E+03  1.78545E+04  6.69576E+03
  1.21652E+04  2.16669E+04 -7.16114E+03  2.27829E+04 -2.09712E+04  8.85691E+03 -2.44306E+04 -6.63038E+03
 -1.60619E+04 -1.65579E+04 -5.10016E+03 -1.62332E+04  3.63152E+03 -1.37786E+04  1.20309E+04 -1.34935E+04
  2.09252E+04 -1.08377E+04  2.73000E+04  4.96653E+02  2.04891E+04  1.55749E+04  3.53422E+03  3.16814E+04
 -1.60207E+04  2.68739E+04 -2.56974E+04  9.10551E+03 -1.96890E+04 -1.01157E+04 -3.86590E+03 -1.38759E+04
  2.74734E+03 -4.60767E+03 -2.11473E+03  5.65301E+03 -1.24676E+04  5.20702E+03 -1.24106E+04 -4.55242E+03
 -8.50173E+03 -1.49221E+04  3.90029E+03 -1.85333E+04  1.22689E+04 -1.34174E+04  1.39214E+04 -1.27313E+03
  8.65523E+03  9.93538E+03 -9.20825E+02  1.52955E+04 -1.01241E+04  7.79031E+03 -1.48566E+04 -3.52010E+03
 -1.11618E+04 -1.31463E+04 -1.22461E+03 -1.83618E+04  8.41822E+03 -1.46111E+04  1.55555E+04 -6.90606E+03
  1.37196E+04  4.05040E+02  1.00724E+04  3.78928E+03  5.51883E+03  9.10586E+02  7.07737E+03 -9.88295E+02
  1.31248E+04  2.52257E+03  1.38022E+04  1.24970E+04  8.21389E+03  2.35327E+04 -2.76127E+03  2.49569E+04
 -1.49056E+04  1.86362E+04 -2.30393E+04  8.44499E+03 -2.32525E+04 -1.93000E+03 -2.02181E+04 -1.29817E+04
 -9.29842E+03 -1.90016E+04  5.95206E+03 -1.78827E+04  1.56157E+04 -1.03437E+04  1.47644E+04  3.09396E+03
  6.37550E+03  1.04158E+04 -6.36532E+03  9.67831E+03 -1.26244E+04  2.51140E+03 -1.00318E+04 -7.40083E+03
  3.31404E+02 -1.19602E+04  5.63977E+03 -9.22225E+03  7.20792E+03 -1.08465E+03  1.44214E+03  4.73257E+03
 -4.58386E+03  1.38224E+03 -3.08690E+03 -4.62507E+03  7.15708E+02 -9.36039E+03  7.41253E+03 -9.10813E+03
  1.14583E+04 -4.29996E+03  1.06588E+04  2.87656E+03  9.25203E+03  8.71566E+03  4.85002E+03  1.30603E+04
 -1.61514E+03  1.38999E+04 -8.78341E+03  8.95564E+03 -1.03626E+04  2.76759E+03 -7.96675E+03 -1.40507E+03
 -4.24580E+03 -2.87853E+03 -9.56470E+02  1.72607E+03 -1.96669E+03  1.79224E+03 -3.09145E+03  3.88696E+03
 -7.58301E+03 -6.42715E+02 -8.60051E+03 -6.94840E+03 -3.22849E+03 -1.12303E+04  3.34470E+03 -7.72938E+03
  5.48375E+03 -3.41786E+03  4.41638E+03  2.34965E+03  6.08559E+02  2.55111E+03 -3.23723E+03 -5.59841E+01
 -3.21925E+03 -4.63580E+03 -8.78636E+02 -6.24079E+03  3.32466E+03 -7.61660E+03  9.42295E+03 -3.55920E+03
  1.12329E+04  4.61490E+02  7.95117E+03  6.08527E+03  1.39912E+03  7.82721E+03 -4.43293E+03  7.98435E+03
 -6.27342E+03  2.20047E+03 -3.07632E+03 -8.63478E+02  1.34201E+03 -1.66463E+03  4.70771E+03 -9.41838E+02
  4.10164E+03  3.00697E+03  1.14308E+03  5.88062E+03 -4.27627E+03  5.49770E+03 -7.52868E+03  1.18739E+03
 -4.82762E+03 -3.29489E+03  7.68261E+02 -5.96429E+03  3.32505E+03 -3.06883E+03  2.97343E+03  1.11194E+03
  2.69478E+02  3.08446E+03 -3.65517E+03  4.00090E+03 -4.26975E+03  1.87521E+03 -3.48381E+03 -1.02091E+03
 -2.47988E+03 -4.91821E+03  6.58966E+02 -6.24621E+03  5.46954E+03 -4.26698E+03  6.14614E+03  1.07238E+03
  4.56809E+03  5.16682E+03  3.60761E+02  6.88584E+03 -4.54745E+03  3.96198E+03 -4.18858E+03 -4.46010E+02
 -5.41984E+03 -4.62761E+03 -1.48196E+03 -4.08023E+03  2.26089E+03 -4.07250E+03  2.19200E+03 -2.94198E+03
  2.96646E+03 -3.82592E+02  3.77244E+02  1.17194E+03  2.95639E+02 -8.02633E+01 -1.17773E+02 -8.43752E+02
  3.30005E+03 -3.89781E+02  4.27122E+03  2.97909E+02  4.67211E+03  2.16225E+03  4.83396E+03  6.19410E+03
 -7.96052E+02  6.77701E+03 -6.47266E+03  5.84782E+03 -8.24676E+03  1.32635E+03 -6.83665E+03 -2.08725E+03
 -4.15460E+03 -5.86858E+03 -2.05796E+02 -4.34369E+03  1.74907E+03 -1.74399E+03  9.71143E+02 -2.53468E+03
  1.15706E+03 -1.61473E+03  1.96765E+03 -1.85891E+03  3.00949E+03 -9.87727E+02  3.38403E+03  1.86502E+02
  4.09212E+03  9.84224E+02  8.89364E+02  3.36682E+03 -1.82069E+03  2.03298E+03 -3.36169E+03  2.52136E+03
 -4.14481E+03 -8.34973E+02 -1.21127E+03 -2.80603E+03  6.79564E+02 -3.96564E+03  2.80429E+03 -4.08024E+03
  4.36520E+03 -3.11281E+03  5.54018E+03 -5.63065E+02  4.44203E+03  3.36527E+03  1.46453E+03  4.85493E+03
 -1.27696E+03  5.40090E+03 -2.14399E+03  1.59316E+03 -8.88591E+02 -1.05848E+03 -3.45634E+02  5.49621E+01
 -2.93071E+02  3.66969E+02 -8.36919E+02  1.52640E+03 -2.78363E+03  6.20621E+02 -3.43410E+03 -4.22310E+02
 -9.41081E+02 -3.18544E+03  3.64518E+02 -3.49757E+03  2.39030E+03 -3.90744E+03  1.96825E+03 -5.77673E+02
  3.12378E+03  2.06438E+03  1.50702E+03  2.86979E+03 -7.49746E+02  3.79055E+03 -1.56781E+03  1.80507E+03
 -3.24896E+03  4.41980E+02 -3.07344E+03 -2.60934E+03 -1.38392E+02 -2.59498E+03  1.29988E+03 -2.08314E+03
  2.24677E+03 -1.36191E+03  9.33490E+02 -1.14240E+02 -3.95167E+01  1.69248E+03  1.07165E+03  3.69984E+02
  1.78721E+03  4.58886E+02  1.27396E+03  1.34625E+03  1.40218E+03  1.85479E+03  1.24213E+03  1.28532E+03
 -9.38892E+02  2.00814E+03 -1.64520E+03  3.21749E+03 -1.81330E+03  1.27159E+03 -3.17218E+03  1.07863E+01
 -1.84125E+03 -2.93047E+03  6.57402E+02 -3.39443E+03  9.03109E+02 -1.96244E+03  2.61713E+03 -1.48140E+03
  1.21995E+03  1.49006E+03 -4.08117E+02  1.85981E+03 -7.39380E+02  8.49364E+02 -1.03129E+03  1.65860E+01
 -3.83981E+02 -1.16805E+03  1.24047E+03 -1.00415E+03  9.61681E+02 -8.01423E+02  1.08786E+03 -1.85019E+02
  1.13694E+03 -6.57008E+01 -2.12204E+02 -4.03017E+02 -5.72164E+02  4.01071E+02  1.93984E+03 -3.86184E+02
  4.48678E+00  1.42891E+02  1.27821E+03  3.96454E+02  1.74633E+01  1.84276E+03 -1.50633E+02  2.27355E+03
 -1.12951E+03  1.02277E+03 -1.07043E+03  1.44451E+02 -1.40928E+03 -4.33864E+02  1.02855E+02 -7.03851E+02
  5.95229E+02 -8.98095E+02  1.05616E+03 -7.41605E+02  5.77090E+02  1.04979E+03 -7.78765E+02  1.15351E+03
 -1.05634E+03  5.07623E+02 -8.62817E+02 -1.51235E+03 -5.21375E+00 -1.48625E+03 -2.93748E+02 -1.38196E+03
  3.60454E+02 -5.53196E+02  4.88567E+02  1.80476E+02  1.19130E+03 -2.49219E+02 -5.50653E+01  7.43489E+02
 -7.81434E+01 -4.74266E+01 -1.19562E+03 -1.46218E+01  4.96041E+02 -5.98105E+02  1.10239E+03 -1.46088E+02
  9.06092E+02  2.63972E+02  2.41507E+03  3.43893E+02  6.33872E+02  8.34725E+02  2.87878E+02  8.34162E+02
 -1.24158E+03 -3.84416E+02 -9.75451E+02 -2.95892E+02 -7.01730E+02 -8.78010E+02  2.20033E+02  5.95621E+00
  1.26512E+03 -5.90141E+02  8.75422E+01  9.23974E+02  3.54338E+01  4.99322E+02  9.81919E+02  9.26011E+02
 -2.85719E+02  1.05493E+03 -3.36977E+02  1.22259E+02 -7.75906E+01  6.71365E+02 -4.07137E+02  6.93748E+02
 -4.07373E+02  8.34419E+02 -1.28992E+03  5.48845E+02 -1.38640E+03 -2.00131E+02 -1.80270E+03 -4.37711E+02
 -5.91294E+02 -1.34149E+03  7.29824E+00 -2.54156E+03  6.93205E+02 -2.20170E+03  2.24755E+03 -1.13116E+03
  1.26504E+03  5.28715E+01  3.82302E+02  1.17277E+03 -8.53895E+02  9.48261E+02 -7.06867E+02  5.64495E+02
 -9.02129E+02  8.37828E+02 -7.50813E+02  5.72172E+01 -7.13397E+02  1.55249E+02 -2.14860E+02 -4.86429E+01
 -1.84060E+03 -2.44186E+01 -1.04569E+03  5.92612E+02 -2.77796E+02 -5.84339E+01 -8.27716E+02 -8.62017E+02
  7.47952E+02 -5.32397E+02 -3.81938E+01  1.07830E+02  6.89083E+02  8.38556E+02 -5.38347E+02  1.40253E+03
 -2.03555E+02  1.63242E+03 -5.83501E+02  1.10912E+03 -7.29849E+02 -4.59098E+01 -9.44455E+02 -8.70840E+02
 -5.73290E+02 -1.11778E+03 -3.97033E+02 -7.63755E+02  2.37165E+02 -5.10149E+02  1.02715E+02  1.82273E+02
  7.58562E+02  3.88954E+02 -6.78799E+00  2.09414E+02 -5.07163E+02  9.66032E+01  1.62373E+02 -5.99404E+02
  2.91349E+02 -4.82643E+01  1.77750E+02  5.98440E+02 -3.62194E+02  4.62146E+02  4.80030E+02  1.14616E+02
 -7.01878E+02  5.05437E+02 -1.07921E+01  4.50306E+02 -5.72331E+02 -1.11514E+02  3.98159E+02 -1.13589E+03
  1.76780E+02 -4.24141E+02  3.31608E+02 -6.68329E+01  8.41702E+02 -7.38676E+02  5.51626E+02  4.15063E+02
  3.18378E+02  1.81252E+02  2.16253E+01  5.99740E+00 -2.99333E+02  5.14436E+02 -1.05248E+01 -8.93215E+01
  6.85570E+01  1.61650E+02 -5.77994E+02  1.06440E+02 -9.48662E+02  2.71922E+02 -1.11577E+03 -3.68110E+02
 -7.34135E+02  6.74044E+02 -2.04586E+02 -3.58322E+02 -7.67003E-01 -1.36329E+03  2.96793E+02 -5.21050E+02
  4.03685E+02  3.37576E+02 -2.64836E+02 -4.85310E+01 -1.45854E+02  7.24358E+02  3.18743E+02  4.92315E+02
