 $NMID ID='MM_0lb_SNR400_19hz_g45_62.RAW', FMTDAT='(8E13.5)'
 TRAMP=1., VOLUME=1. $END
  3.09818E+05  5.91179E+02  3.37281E+05  2.50616E+05  8.44629E+04  3.36829E+05 -1.32192E+05  2.50365E+05
 -1.89047E+05  8.24927E+04 -1.11121E+05 -3.28530E+04  1.32724E+03 -4.96397E+04  5.35086E+04  4.03228E+02
  3.53453E+04  5.35373E+04 -1.73638E+04  7.48785E+04 -6.00910E+04  6.23071E+04 -8.31959E+04  3.15690E+04
 -7.90394E+04 -1.11064E+04 -5.57593E+04 -5.00168E+04 -1.51240E+04 -6.86890E+04  2.67359E+04 -4.47257E+04
  3.90909E+04  3.73379E+03  1.56772E+04  4.67096E+04 -3.40943E+04  4.62863E+04 -6.54653E+04 -7.52351E+02
 -5.20322E+04 -5.54151E+04 -6.46859E+03 -7.48635E+04  3.27742E+04 -5.30312E+04  4.61563E+04 -1.61486E+04
  4.08603E+04  1.11371E+04  3.07569E+04  2.44667E+04  1.57866E+04  2.85093E+04 -4.48560E+03  2.70701E+04
 -2.15334E+04  1.30310E+04 -1.93139E+04 -4.70526E+03  4.08641E+03 -7.69561E+03  2.11877E+04  1.08681E+04
  7.33761E+03  3.31323E+04 -3.03990E+04  3.37366E+04 -6.07611E+04  2.14500E+03 -5.45639E+04 -4.12495E+04
 -1.20761E+04 -6.03062E+04  3.72706E+04 -4.32480E+04  5.55279E+04 -2.70932E+03  3.16550E+04  2.96831E+04
 -6.67933E+03  3.28348E+04 -2.83476E+04  1.30893E+04 -2.70252E+04 -5.90175E+03 -1.40878E+04 -9.77614E+03
 -7.41865E+03 -1.16555E+04 -1.52949E+03 -1.63167E+04  6.38437E+03 -2.25448E+04  1.49420E+04 -1.45465E+04
  1.20278E+04  3.99014E+03 -5.62797E+03  1.29543E+04 -1.85916E+04 -2.51869E+03 -8.32432E+03 -2.98476E+04
  2.05171E+04 -3.99733E+04  4.43224E+04 -1.84610E+04  4.17480E+04  1.79145E+04  1.37872E+04  4.11828E+04
 -1.55794E+04  3.10238E+04 -2.33252E+04  7.16384E+02 -7.89103E+03 -2.67594E+04  2.08393E+04 -3.03750E+04
  3.73423E+04 -7.11042E+03  3.04247E+04  2.24229E+04  1.48103E+04  4.18725E+04 -7.05361E+03  4.48942E+04
 -2.78404E+04  2.93477E+04 -3.62836E+04  8.44166E+03 -3.79273E+04 -1.50396E+04 -2.07251E+04 -3.39175E+04
  7.04231E+03 -3.35787E+04  2.85484E+04 -1.23399E+04  2.66954E+04  1.07985E+04  2.92477E+03  1.73062E+04
 -1.31055E+04  6.74194E+03 -9.48478E+03 -7.94292E+03  5.49551E+03 -1.01178E+04  1.70892E+04  6.74188E+03
  1.24908E+04  2.16101E+04 -6.75364E+03  2.28229E+04 -2.12467E+04  8.68807E+03 -2.47832E+04 -6.80747E+03
 -1.64694E+04 -1.59063E+04 -5.54501E+03 -1.64531E+04  4.30570E+03 -1.38838E+04  1.24040E+04 -1.38546E+04
  2.03793E+04 -1.12246E+04  2.74746E+04  8.35752E+02  2.12911E+04  1.63032E+04  4.66403E+03  3.16932E+04
 -1.61104E+04  2.73120E+04 -2.63612E+04  9.41926E+03 -1.95561E+04 -1.05252E+04 -3.83868E+03 -1.39752E+04
  3.05135E+03 -3.88421E+03 -2.35227E+03  5.13286E+03 -1.28151E+04  5.04974E+03 -1.31856E+04 -4.45378E+03
 -8.44150E+03 -1.51354E+04  4.58831E+03 -1.83658E+04  1.21056E+04 -1.37988E+04  1.44639E+04 -1.42179E+03
  8.97713E+03  1.02214E+04 -8.27950E+02  1.52330E+04 -9.94822E+03  8.63608E+03 -1.52247E+04 -2.81108E+03
 -1.07351E+04 -1.42021E+04 -1.21316E+03 -1.82937E+04  8.30562E+03 -1.46958E+04  1.57573E+04 -6.81101E+03
  1.40788E+04  6.89929E+02  1.03513E+04  3.50680E+03  5.23355E+03  4.87751E+02  7.99553E+03 -1.44852E+03
  1.31578E+04  2.42663E+03  1.42432E+04  1.23488E+04  8.90921E+03  2.37085E+04 -3.20794E+03  2.58565E+04
 -1.49789E+04  1.98416E+04 -2.33420E+04  8.95915E+03 -2.40130E+04 -1.41099E+03 -2.05003E+04 -1.34213E+04
 -9.88019E+03 -1.97261E+04  6.41145E+03 -1.83996E+04  1.60131E+04 -1.03929E+04  1.51278E+04  3.26336E+03
  6.22523E+03  1.09733E+04 -6.76591E+03  1.03444E+04 -1.26368E+04  2.73575E+03 -9.93884E+03 -7.59414E+03
  1.61848E+02 -1.18254E+04  6.16242E+03 -9.32624E+03  7.57143E+03 -1.32699E+03  1.44498E+03  4.52654E+03
 -5.60705E+03  9.42821E+02 -3.71531E+03 -4.69255E+03  8.00223E+02 -9.46871E+03  7.72893E+03 -9.48003E+03
  1.22186E+04 -4.66822E+03  1.10276E+04  2.55219E+03  9.87167E+03  9.09229E+03  4.55568E+03  1.26492E+04
 -1.51457E+03  1.53663E+04 -8.91632E+03  9.57292E+03 -1.05865E+04  3.01786E+03 -8.31209E+03 -1.74009E+03
 -3.92961E+03 -3.01207E+03 -4.90613E+02  1.20375E+03 -1.61977E+03  2.11400E+03 -3.27980E+03  3.65009E+03
 -8.07713E+03 -1.31679E+02 -8.36549E+03 -6.92496E+03 -3.96422E+03 -1.14114E+04  3.23787E+03 -8.16020E+03
  6.21104E+03 -3.78807E+03  5.10326E+03  1.92005E+03  7.60841E+02  2.72277E+03 -3.99135E+03 -4.91296E+02
 -3.01620E+03 -4.89724E+03 -7.71644E+02 -6.98579E+03  3.85365E+03 -7.82501E+03  9.31886E+03 -3.60157E+03
  1.15857E+04  3.24307E+02  8.31716E+03  5.95028E+03  1.64948E+03  8.23456E+03 -4.54098E+03  8.40956E+03
 -7.00615E+03  2.74957E+03 -3.63134E+03 -1.18128E+03  1.29992E+03 -2.03249E+03  4.72380E+03 -6.08432E+02
  4.25611E+03  2.98419E+03  8.03907E+02  6.06808E+03 -4.01865E+03  6.32777E+03 -8.04959E+03  1.61865E+03
 -4.27201E+03 -3.38140E+03  2.36049E+02 -6.12412E+03  3.50916E+03 -2.80982E+03  3.53243E+03  1.48296E+03
  3.61753E+02  3.41057E+03 -4.20185E+03  4.31680E+03 -4.05327E+03  2.17110E+03 -4.01293E+03 -6.05742E+02
 -2.68572E+03 -5.92024E+03  6.86578E+02 -6.80153E+03  5.59112E+03 -4.54028E+03  6.44143E+03  9.75821E+02
  4.35653E+03  5.01347E+03  4.04052E+02  6.58731E+03 -5.37390E+03  3.58979E+03 -5.11880E+03 -2.92657E+01
 -5.57109E+03 -4.85665E+03 -1.43588E+03 -4.49819E+03  2.79147E+03 -4.17715E+03  2.21827E+03 -2.76562E+03
  2.28944E+03  5.86141E+02 -2.46044E+02  1.53411E+03  4.04358E+02  5.35997E+02  5.50862E+02 -1.61742E+03
  3.07524E+03 -7.37646E+02  5.05942E+03  4.58533E+02  4.77500E+03  2.81634E+03  5.48351E+03  6.77873E+03
 -9.33771E+02  8.43324E+03 -7.06888E+03  5.69780E+03 -9.04658E+03  1.20234E+03 -6.81754E+03 -2.52771E+03
 -3.55678E+03 -5.97185E+03 -5.26145E+02 -4.87878E+03  1.98349E+03 -1.67556E+03  1.25704E+03 -1.72621E+03
  1.52338E+03 -9.62186E+02  1.80139E+03 -1.75614E+03  3.69178E+03 -1.06897E+03  3.48258E+03  5.44378E+02
  3.94328E+03  1.71298E+03  1.05806E+03  3.35407E+03 -1.54014E+03  2.84292E+03 -4.07405E+03  2.45544E+03
 -4.84778E+03 -1.16352E+03 -1.10396E+03 -3.44404E+03  4.84185E+02 -4.16054E+03  2.87282E+03 -5.08721E+03
  4.82138E+03 -3.11980E+03  6.24549E+03  2.38916E+02  4.83714E+03  4.10381E+03  1.05952E+03  6.11009E+03
 -1.43412E+03  5.53782E+03 -3.19570E+03  1.57367E+03 -1.56883E+03 -1.16136E+03 -1.36880E+02 -7.16978E+02
 -8.78431E+02  1.34447E+02 -1.42623E+03  2.01425E+03 -2.21257E+03  1.08438E+03 -3.60263E+03 -2.51335E+01
 -1.20404E+03 -3.94256E+03  5.29860E+02 -4.13190E+03  2.97834E+03 -3.96984E+03  3.55516E+03 -8.39495E+02
  3.24623E+03  1.94386E+03  1.43310E+03  2.97672E+03 -4.25499E+02  3.93047E+03 -2.39272E+03  2.03674E+03
 -3.27107E+03  3.63209E+02 -3.29341E+03 -2.19046E+03 -2.85918E+02 -2.71564E+03  1.03861E+03 -2.22175E+03
  2.11400E+03 -1.38355E+03  1.81366E+03  1.19299E+03  1.33648E+02  1.72481E+03  6.60376E+02  3.30463E+02
  1.77994E+03  5.09736E+02  8.47932E+02  9.77503E+02  7.62607E+02  1.60529E+03  1.70309E+03  1.73441E+03
 -1.08213E+03  2.70647E+03 -2.19942E+03  3.79045E+03 -2.11232E+03  8.85549E+02 -4.14605E+03 -7.97972E+01
 -1.73204E+03 -3.33143E+03  9.62908E+02 -4.72537E+03  1.43325E+03 -2.02353E+03  2.75931E+03 -1.15617E+03
  2.35242E+03  1.39756E+03  6.33855E+02  2.32387E+03 -7.70313E+02  1.09587E+03 -9.06328E+02 -4.48759E+01
 -2.57688E+02 -1.33611E+03  1.35853E+03 -1.25051E+03  9.64300E+02 -5.00908E+02  1.11037E+03  5.74384E+00
  6.09966E+02  7.93329E+02  3.79545E+02 -3.65794E+02 -5.59239E+02  6.00103E+02  1.57881E+03 -3.77465E+02
 -3.83217E+02 -1.84455E+02  1.23712E+03  2.50422E+02  1.88461E+02  2.21365E+03 -5.37782E+02  2.81371E+03
 -1.82594E+03  1.32685E+03 -1.17382E+03  3.59999E+02 -2.07278E+03 -6.87988E+02  5.08377E+02 -7.92448E+02
  6.09605E+02 -1.36174E+03  9.59591E+02 -4.44323E+02  8.18027E+02  1.12927E+03 -5.21834E+02  7.89570E+02
 -1.12183E+03  7.72166E+02 -5.14743E+02 -1.29863E+03 -4.58868E+02 -1.98476E+03  4.47022E+02 -1.45914E+03
  1.68850E+02 -5.08866E+02  4.66721E+02  3.15018E+02  1.46313E+03 -2.99249E+01  3.17277E+02  1.28144E+03
 -9.25201E+01  2.46051E+02 -1.03057E+03  4.14970E+02  7.78528E+02 -5.28630E+02  1.90183E+03 -7.70987E+01
  8.49358E+02 -1.41236E+02  2.45572E+03  5.92535E+02  1.50906E+03  1.16739E+03 -2.63662E+02  1.31978E+03
 -1.82930E+03  3.38895E+02 -1.39649E+03 -1.06018E+02 -3.79363E+02 -5.17719E+02 -9.50807E+01 -4.55146E+02
  1.37813E+03 -4.87146E+02  4.01930E+02  1.77910E+02  5.56573E+02  1.02682E+03  4.74995E+02  1.30436E+03
 -1.91641E+02  9.04394E+02 -2.64949E+02  5.10146E+02  6.17822E+01  5.73169E+02 -8.88444E+02  5.94554E+02
 -2.40950E+02  4.05362E+02 -1.73194E+03  1.90664E+02 -1.53233E+03  3.48356E+02 -2.25514E+03 -9.70877E+02
 -1.09504E+03 -2.59901E+03  4.22891E+02 -2.28175E+03  6.71236E+02 -2.25551E+03  2.37075E+03 -1.09772E+03
  2.48226E+03 -5.16907E+01  1.17207E+03  2.07152E+03 -3.24819E+02  8.11226E+02 -1.01538E+03  1.22039E+03
 -9.53749E+02  5.31001E+02 -1.38446E+02  1.95157E+01 -7.67871E+02  2.43867E+02 -8.72920E+02 -4.18737E+02
 -8.44550E+02 -3.35590E+02 -1.25681E+03  1.17417E+01 -4.37418E+02 -5.25897E+02 -1.26965E+02 -1.09059E+03
  1.73814E+03 -5.79535E+02  1.31422E+02  5.68776E+02  8.72942E+02  9.63337E+02 -7.05181E+02  1.55246E+03
 -1.54606E+03  1.88240E+03 -5.03725E+02  8.28655E+02 -1.28352E+03 -4.92020E+02 -1.64143E+03 -1.24801E+03
 -1.10792E+03 -1.14714E+03 -2.17446E+02 -8.11617E+02  2.05667E+02 -3.95737E+02  2.23242E+02  1.26370E+02
  7.23176E+02  3.10465E+02  3.34247E+02  6.34013E+01 -5.72016E+02 -2.33848E+02 -2.78097E+02 -4.19773E+02
  1.25073E+02  1.39632E+02 -1.25924E+02  1.76130E+02 -1.88914E+02  6.08165E+02  4.69471E+02  4.36423E+02
 -7.10297E+02  7.20563E+01 -7.06307E+02  3.06722E+02 -1.23855E+02 -3.40761E+02  1.13634E+02 -9.70652E+02
  4.20980E+02 -4.27054E+02  5.92244E+02 -5.39411E+01  3.81611E+02 -4.08971E+02  4.57424E+02  1.26163E+03
  3.43784E+01  7.76937E+02 -2.10121E+02  1.11820E+03 -7.17265E+02  5.69366E+02 -2.93881E+02 -2.48102E+02
 -2.20774E+01  1.71486E+02 -6.14314E+02 -3.43983E+02 -3.08281E+02  2.68377E+02 -7.18600E+02 -4.44814E+02
 -8.43773E+02  1.62873E+02 -1.32760E+02 -6.31293E+02  6.58653E+02 -1.45281E+03  5.20026E+02 -3.33050E+01
  6.60787E+02  5.30572E+02 -7.05961E+02  2.88998E+02 -8.54363E+01  6.40511E+02 -9.05662E+02  1.01865E+03
