 $NMID ID='MM_0lb_SNR400_7hz_g60_26.RAW', FMTDAT='(8E13.5)'
 TRAMP=1., VOLUME=1. $END
  3.09900E+05  3.43873E+01  3.38854E+05  2.50941E+05  8.51714E+04  3.39669E+05 -1.32342E+05  2.51670E+05
 -1.91167E+05  8.40217E+04 -1.12853E+05 -3.23168E+04 -1.06384E+03 -5.03279E+04  5.31289E+04 -1.13968E+03
  3.69005E+04  5.31855E+04 -1.59568E+04  7.70539E+04 -6.18532E+04  6.48665E+04 -8.60826E+04  3.26537E+04
 -8.26057E+04 -1.10819E+04 -5.95197E+04 -5.32519E+04 -1.49005E+04 -7.20791E+04  2.81988E+04 -4.77106E+04
  4.17292E+04  4.07672E+03  1.71462E+04  4.89665E+04 -3.55329E+04  5.04244E+04 -6.91503E+04 -5.18994E+02
 -5.64219E+04 -5.77090E+04 -7.22996E+03 -8.09025E+04  3.55588E+04 -5.90092E+04  5.08512E+04 -1.96987E+04
  4.59874E+04  1.23971E+04  3.41707E+04  2.71213E+04  1.55049E+04  3.14826E+04 -5.92309E+03  2.79781E+04
 -2.30063E+04  1.20229E+04 -1.84324E+04 -5.39812E+03  8.69386E+03 -7.39941E+03  2.52504E+04  1.49821E+04
  7.28703E+03  3.85000E+04 -3.35468E+04  3.79471E+04 -6.73239E+04  2.07273E+03 -6.02073E+04 -4.56498E+04
 -1.28920E+04 -6.81885E+04  4.16560E+04 -4.80592E+04  6.27262E+04 -3.08765E+03  3.70543E+04  3.42785E+04
 -6.12983E+03  4.07889E+04 -3.23660E+04  2.08861E+04 -3.48568E+04 -2.64908E+03 -2.12920E+04 -1.31535E+04
 -9.56157E+03 -1.60167E+04 -4.39841E+02 -2.10200E+04  8.44996E+03 -2.40095E+04  1.55175E+04 -1.11562E+04
  9.53430E+03  6.81009E+03 -1.14426E+04  1.30440E+04 -2.43706E+04 -8.20918E+03 -8.32200E+03 -3.98822E+04
  2.63161E+04 -4.86940E+04  5.46747E+04 -2.19404E+04  5.09537E+04  2.23385E+04  1.77571E+04  4.93098E+04
 -1.64523E+04  3.72677E+04 -2.81077E+04  2.89761E+03 -1.29952E+04 -3.07536E+04  2.10347E+04 -3.88713E+04
  4.73199E+04 -1.26997E+04  4.25993E+04  2.56538E+04  2.27920E+04  5.40148E+04 -8.23420E+03  6.00481E+04
 -3.85369E+04  4.12387E+04 -5.21181E+04  1.13081E+04 -5.12741E+04 -1.93022E+04 -2.76764E+04 -4.53125E+04
  8.22144E+03 -4.44168E+04  3.58381E+04 -1.81902E+04  3.36791E+04  1.17489E+04  6.07521E+03  2.24642E+04
 -1.43381E+04  1.10548E+04 -1.16270E+04 -7.34146E+03  5.63056E+03 -1.19149E+04  1.94538E+04  5.43555E+03
  1.49030E+04  2.24683E+04 -4.97541E+03  2.88786E+04 -2.42681E+04  1.56893E+04 -3.31382E+04 -3.27414E+02
 -2.86721E+04 -1.90261E+04 -1.43613E+04 -2.76569E+04  4.55157E+03 -2.87826E+04  2.14653E+04 -2.60048E+04
  3.59173E+04 -1.52910E+04  4.17464E+04  5.59883E+03  2.85377E+04  2.78029E+04  3.95296E+03  4.39283E+04
 -2.15636E+04  3.65029E+04 -3.15587E+04  1.24356E+04 -2.38806E+04 -1.00649E+04 -3.71017E+03 -1.27034E+04
  7.67179E+02 -2.40334E+02 -9.14551E+03  8.02716E+03 -2.27616E+04  4.99046E+03 -2.19422E+04 -1.19751E+04
 -1.26747E+04 -2.56201E+04  6.02536E+03 -3.02963E+04  2.18271E+04 -2.14046E+04  2.51331E+04 -1.81590E+03
  1.64892E+04  1.84281E+04 -1.41251E+03  2.69063E+04 -1.89127E+04  1.50025E+04 -2.66778E+04 -5.43786E+03
 -1.87888E+04 -2.32888E+04 -1.83155E+03 -3.19015E+04  1.45539E+04 -2.59509E+04  2.54724E+04 -1.37608E+04
  2.43071E+04 -1.05011E+03  1.76164E+04  5.41582E+03  9.95889E+03  1.85908E+03  1.31212E+04 -1.78790E+03
  2.44960E+04  2.92800E+03  2.97220E+04  2.03054E+04  2.07637E+04  4.27237E+04 -2.86681E+03  5.04015E+04
 -2.92088E+04  4.23768E+04 -4.73498E+04  2.11012E+04 -5.19277E+04 -4.07387E+03 -4.21559E+04 -3.02526E+04
 -1.56748E+04 -4.35773E+04  1.64385E+04 -3.76711E+04  3.31561E+04 -1.78076E+04  2.68536E+04  8.92683E+03
  7.91426E+03  2.10690E+04 -1.37335E+04  1.57673E+04 -2.15707E+04  3.47365E+03 -1.69242E+04 -1.45738E+04
  3.55577E+02 -2.09952E+04  1.11231E+04 -1.51330E+04  1.46176E+04 -8.15193E+02  3.99342E+03  1.07845E+04
 -9.86819E+03  4.14436E+03 -1.17426E+04 -8.70570E+03 -3.16759E+03 -2.06646E+04  1.37314E+04 -2.36652E+04
  2.70806E+04 -1.38382E+04  3.15363E+04  3.74750E+03  2.70891E+04  2.24139E+04  1.27354E+04  3.42767E+04
 -7.39808E+03  3.75033E+04 -2.34978E+04  2.30800E+04 -2.60345E+04  4.08285E+03 -1.82190E+04 -7.73761E+03
 -6.93346E+03 -8.57810E+03 -8.55440E+02 -5.02909E+01 -3.76515E+03  3.45667E+03 -9.43348E+03  6.22366E+03
 -1.65557E+04 -1.32115E+03 -1.66220E+04 -1.41954E+04 -7.59834E+03 -2.25730E+04  7.70337E+03 -1.89458E+04
  1.46627E+04 -7.61871E+03  1.18564E+04  5.17146E+03  4.18222E+02  7.53285E+03 -1.03047E+04 -1.15177E+03
 -9.56007E+03 -1.24037E+04 -2.04021E+03 -1.83935E+04  1.13742E+04 -2.06373E+04  2.47549E+04 -1.12728E+04
  2.82075E+04  3.01432E+03  2.03812E+04  1.73822E+04  3.73972E+03  2.23949E+04 -1.13992E+04  1.88555E+04
 -1.42668E+04  5.66892E+03 -8.65301E+03 -4.75263E+03  3.04876E+03 -5.18698E+03  8.64001E+03 -9.66813E+02
  8.62713E+03  9.22058E+03  8.13847E+02  1.50385E+04 -1.12692E+04  1.44705E+04 -1.86303E+04  4.06154E+03
 -1.26187E+04 -1.01628E+04 -1.70936E+02 -1.63133E+04  1.17484E+04 -9.35852E+03  1.14318E+04  4.65072E+03
  3.32862E+03  1.42296E+04 -9.31602E+03  1.41420E+04 -1.68165E+04  5.52443E+03 -1.83468E+04 -6.94001E+03
 -1.06995E+04 -1.93779E+04  5.44116E+03 -2.27816E+04  1.97339E+04 -1.41336E+04  2.18320E+04  4.11579E+03
  1.22072E+04  1.67421E+04 -2.45501E+03  1.88601E+04 -1.45724E+04  1.16228E+04 -1.49171E+04 -1.96110E+03
 -1.31671E+04 -1.33621E+04 -1.83997E+03 -1.56783E+04  7.13798E+03 -1.19418E+04  1.00176E+04 -4.61275E+03
  5.40227E+03  2.09382E+03 -2.43739E+03  2.49643E+03  7.51269E+01 -4.69304E+03  3.57336E+03 -9.57583E+03
  1.46735E+04 -5.83443E+03  2.18583E+04  2.66681E+03  1.95456E+04  1.49657E+04  1.20239E+04  2.74237E+04
 -6.69986E+03  3.13850E+04 -2.56041E+04  2.31358E+04 -3.36718E+04  3.38017E+03 -2.67824E+04 -1.19344E+04
 -1.33760E+04 -2.24162E+04 -5.04597E+02 -1.88526E+04  6.30183E+03 -1.09133E+04  5.78564E+03 -6.83984E+03
  5.51032E+03 -4.46268E+03  4.45543E+03 -5.20273E+03  6.24883E+03 -4.20622E+03  9.72755E+03 -2.59101E+03
  1.26134E+04  2.56875E+03  7.72325E+03  1.24468E+04 -2.15994E+03  1.52643E+04 -1.44131E+04  1.12566E+04
 -1.94170E+04 -1.21632E+03 -1.33955E+04 -1.33989E+04 -1.35616E+03 -2.13945E+04  1.14340E+04 -2.04989E+04
  2.16748E+04 -1.15614E+04  2.61562E+04  3.49410E+03  1.80320E+04  1.88025E+04  2.18796E+03  2.41942E+04
 -9.66691E+03  1.84275E+04 -1.40208E+04  5.74167E+03 -9.35073E+03 -2.89525E+03 -4.60242E+03 -3.62806E+03
 -1.23070E+03 -4.53170E+02 -2.70961E+03  4.03166E+03 -8.35903E+03  3.60844E+03 -1.34801E+04 -2.55844E+03
 -1.00609E+04 -1.30807E+04 -7.49208E+02 -1.98511E+04  1.27979E+04 -1.80661E+04  2.03541E+04 -5.61773E+03
  1.99664E+04  1.04657E+04  9.79738E+03  1.82450E+04 -4.62902E+03  1.99069E+04 -1.48554E+04  1.27665E+04
 -1.94487E+04 -6.84370E+02 -1.47832E+04 -1.24353E+04 -1.26028E+03 -1.65419E+04  9.40702E+03 -1.25630E+04
  1.35809E+04 -3.51794E+03  9.03909E+03  4.15667E+03  3.78414E+03  6.20001E+03  1.50987E+03  2.21291E+03
  2.92126E+03  1.65324E+03  5.05587E+03  3.28366E+03  6.37721E+03  6.72595E+03  6.05913E+03  1.03209E+04
 -2.72227E+03  1.63298E+04 -1.46946E+04  1.60024E+04 -2.00969E+04  4.89986E+03 -2.23747E+04 -1.00750E+04
 -1.08147E+04 -2.15758E+04  3.21631E+03 -2.24966E+04  1.14959E+04 -1.43185E+04  1.73935E+04 -4.07669E+03
  1.26959E+04  8.58018E+03  4.21138E+03  1.19932E+04 -6.47423E+03  7.46720E+03 -9.28863E+03 -7.69992E+02
 -3.83359E+03 -9.19836E+03  4.47629E+03 -9.01604E+03  8.06158E+03 -3.49936E+03  8.52855E+03  1.51733E+03
  4.72050E+03  4.54641E+03  2.68487E+03  3.55346E+03 -1.04698E+03  3.16572E+03  1.44109E+03 -9.09231E+02
  3.04134E+03 -8.35667E+02  9.11045E+03  3.42291E+03  5.84558E+03  1.10006E+04 -1.28749E+03  1.51778E+04
 -1.05019E+04  1.04438E+04 -1.46009E+04  3.40066E+03 -1.23902E+04 -4.59398E+03 -5.44472E+03 -7.94834E+03
  8.82607E+02 -8.03981E+03  5.45861E+03 -3.96090E+03  4.00184E+03  3.90554E+03 -2.99466E+03  8.02093E+03
 -9.44042E+03  4.74798E+03 -1.06882E+04 -6.35061E+03 -6.02139E+03 -1.14366E+04  2.23910E+03 -1.22572E+04
  7.38535E+03 -7.14164E+03  8.82078E+03 -8.68853E+02  7.40500E+03  4.47339E+03  1.34376E+03  5.98440E+03
 -3.78970E+03  1.96561E+03 -5.31582E+03 -4.85237E+03  1.14901E+03 -1.06650E+04  1.03773E+04 -7.90398E+03
  1.40704E+04  1.02901E+03  1.32605E+04  1.05702E+04  2.85105E+03  1.51111E+04 -5.87110E+03  1.33778E+04
 -1.20446E+04  7.01088E+03 -1.21261E+04 -1.81734E+03 -6.09191E+03 -8.68628E+03  2.38616E+03 -8.94481E+03
  8.73783E+03 -3.74916E+03  7.29131E+03  3.65275E+03  2.00886E+03  7.76854E+03 -1.41922E+03  7.03963E+03
 -4.42625E+03  4.72662E+03 -3.86506E+03  1.76053E+03 -1.48109E+03  8.76503E+02 -1.40708E+03  3.63861E+03
 -5.61754E+03  5.78580E+03 -9.92815E+03  6.52975E+03 -1.56845E+04 -7.44850E+01 -1.62966E+04 -1.05619E+04
 -8.56441E+03 -2.02628E+04  4.47334E+03 -2.38347E+04  1.45231E+04 -1.71955E+04  2.11661E+04 -6.72024E+03
  2.06811E+04  4.57000E+03  1.24397E+04  1.35985E+04  1.58944E+03  1.59443E+04 -5.79819E+03  1.10885E+04
 -8.32393E+03  5.48857E+03 -6.13535E+03 -2.57277E+03 -1.44941E+03 -1.61293E+03 -9.01981E+02 -4.01481E+02
 -2.87909E+03  1.24978E+03 -2.28368E+03 -1.02088E+03 -1.99907E+03 -3.15249E+03  5.86133E+02 -5.33723E+03
  6.42393E+03 -5.63322E+03  1.04152E+04 -1.09315E+03  1.13519E+04  9.47607E+03  2.48123E+03  1.56754E+04
 -7.78903E+03  1.83969E+04 -1.72354E+04  1.10845E+04 -2.05880E+04 -1.15350E+03 -1.54780E+04 -1.30221E+04
 -6.14037E+03 -1.62087E+04  5.16718E+03 -1.48835E+04  9.85367E+03 -8.49037E+03  1.12658E+04  1.24316E+03
  5.32503E+03  4.90023E+03 -1.52986E+03  4.90938E+03 -4.01186E+03  4.59498E+00 -2.45379E+02 -3.92029E+03
  4.79098E+03 -3.24008E+03  7.02583E+03  1.88075E+03  3.93550E+03  6.02551E+03  9.92549E+01  9.47227E+03
 -6.77131E+03  7.18282E+03 -1.01209E+04  1.39533E+03 -1.01077E+04 -7.58307E+03 -1.58600E+03 -1.39761E+04
  8.92889E+03 -1.17103E+04  1.41091E+04 -3.44079E+03  1.32116E+04  3.39838E+03  7.56146E+03  1.06992E+04
  7.71946E+02  1.13704E+04 -4.51002E+03  9.52894E+03 -6.86179E+03  5.12066E+03 -5.70988E+03 -6.89324E+02
 -3.65740E+03 -7.64725E+02 -3.19804E+03  2.30400E+03 -6.32751E+03  1.64317E+03 -8.36404E+03 -1.96159E+03
 -8.11940E+03 -5.81915E+03 -2.98002E+03 -1.04164E+04  5.73898E+03 -1.17466E+04  9.52716E+03 -6.11523E+03
  1.16488E+04  1.01805E+03  6.24437E+03  8.16481E+03  1.22628E+01  1.06205E+04 -8.54491E+03  7.80726E+03
