 $NMID ID='MM_0lb_SNR400_13hz_g40_4.RAW', FMTDAT='(8E13.5)'
 TRAMP=1., VOLUME=1. $END
  3.09333E+05  7.60740E+02  3.37490E+05  2.50722E+05  8.43574E+04  3.37637E+05 -1.32387E+05  2.51293E+05
 -1.90379E+05  8.28771E+04 -1.11833E+05 -3.29657E+04  9.36941E+02 -5.04872E+04  5.37764E+04 -2.25560E+01
  3.54083E+04  5.23902E+04 -1.68289E+04  7.54094E+04 -6.05309E+04  6.30674E+04 -8.40718E+04  3.14565E+04
 -8.11352E+04 -1.11847E+04 -5.69508E+04 -5.08252E+04 -1.49959E+04 -6.90034E+04  2.70125E+04 -4.49708E+04
  4.03456E+04  3.43834E+03  1.62184E+04  4.71617E+04 -3.44770E+04  4.69241E+04 -6.67754E+04 -5.94474E+01
 -5.36460E+04 -5.70738E+04 -6.26099E+03 -7.68599E+04  3.35559E+04 -5.47895E+04  4.80889E+04 -1.76921E+04
  4.29903E+04  1.12009E+04  3.22782E+04  2.53646E+04  1.60525E+04  2.92437E+04 -5.45054E+03  2.76847E+04
 -2.15685E+04  1.22889E+04 -1.89563E+04 -4.42999E+03  5.59570E+03 -7.73662E+03  2.25771E+04  1.21813E+04
  7.72195E+03  3.54857E+04 -3.21601E+04  3.54876E+04 -6.34480E+04  1.95553E+03 -5.66551E+04 -4.26201E+04
 -1.24349E+04 -6.34572E+04  3.94498E+04 -4.53458E+04  5.80577E+04 -2.46615E+03  3.41339E+04  3.16612E+04
 -6.34931E+03  3.61128E+04 -2.99048E+04  1.53629E+04 -3.04885E+04 -5.14967E+03 -1.65408E+04 -1.11847E+04
 -8.84403E+03 -1.31947E+04 -4.65793E+02 -1.83450E+04  7.62133E+03 -2.34348E+04  1.52934E+04 -1.40084E+04
  1.09433E+04  4.99430E+03 -8.31343E+03  1.27225E+04 -2.04813E+04 -4.01045E+03 -8.40573E+03 -3.33328E+04
  2.22031E+04 -4.37728E+04  4.87928E+04 -1.99401E+04  4.48694E+04  1.94001E+04  1.57260E+04  4.45479E+04
 -1.60400E+04  3.32937E+04 -2.52345E+04  2.19858E+03 -1.06436E+04 -2.74144E+04  2.10658E+04 -3.33906E+04
  4.11529E+04 -8.92347E+03  3.56280E+04  2.37308E+04  1.77353E+04  4.67579E+04 -7.41970E+03  5.00450E+04
 -3.11582E+04  3.37064E+04 -4.18322E+04  9.45481E+03 -4.27503E+04 -1.65167E+04 -2.35789E+04 -3.78947E+04
  7.27972E+03 -3.78020E+04  3.08111E+04 -1.50663E+04  2.91502E+04  1.12228E+04  3.56042E+03  1.94511E+04
 -1.33554E+04  8.69725E+03 -1.02367E+04 -7.68800E+03  5.65301E+03 -1.03622E+04  1.85619E+04  6.36874E+03
  1.25680E+04  2.24842E+04 -5.53809E+03  2.44223E+04 -2.24078E+04  1.08843E+04 -2.80691E+04 -5.11094E+03
 -2.10876E+04 -1.76473E+04 -8.38055E+03 -2.04628E+04  4.18365E+03 -1.99522E+04  1.54476E+04 -1.91825E+04
  2.65841E+04 -1.31627E+04  3.30725E+04  2.92935E+03  2.44766E+04  2.04939E+04  3.97433E+03  3.64257E+04
 -1.80416E+04  2.99814E+04 -2.76714E+04  1.04805E+04 -2.13393E+04 -1.05820E+04 -4.53028E+03 -1.32557E+04
  1.49813E+03 -2.95936E+03 -5.03794E+03  6.24660E+03 -1.62898E+04  4.48272E+03 -1.69550E+04 -7.35859E+03
 -1.00937E+04 -1.88503E+04  5.99058E+03 -2.34767E+04  1.54717E+04 -1.65792E+04  1.79950E+04 -1.45119E+03
  1.10832E+04  1.29087E+04 -1.42128E+03  1.91999E+04 -1.28718E+04  1.12869E+04 -1.84515E+04 -4.15557E+03
 -1.42305E+04 -1.66407E+04 -1.51678E+03 -2.25883E+04  1.10860E+04 -1.87719E+04  1.88450E+04 -9.12684E+03
  1.85177E+04  9.11677E+01  1.28367E+04  5.20187E+03  6.67831E+03  1.13453E+03  9.20484E+03 -2.15729E+03
  1.71026E+04  2.47687E+03  1.97304E+04  1.48174E+04  1.28280E+04  3.04136E+04 -2.62173E+03  3.43178E+04
 -2.00404E+04  2.76185E+04 -3.22714E+04  1.40491E+04 -3.31315E+04 -2.33920E+03 -2.85295E+04 -2.04042E+04
 -1.17352E+04 -2.76555E+04  9.98345E+03 -2.49995E+04  2.12991E+04 -1.25198E+04  1.88458E+04  5.32082E+03
  7.05736E+03  1.42528E+04 -9.29599E+03  1.25904E+04 -1.63172E+04  1.91016E+03 -1.24327E+04 -9.73230E+03
  4.09612E+02 -1.58050E+04  8.47509E+03 -1.21453E+04  1.10171E+04 -1.22541E+03  2.36605E+03  7.24357E+03
 -7.34502E+03  2.95807E+03 -6.60238E+03 -5.87115E+03 -6.19457E+02 -1.44081E+04  9.28633E+03 -1.39304E+04
  1.68649E+04 -7.65472E+03  1.83111E+04  2.61251E+03  1.54399E+04  1.31567E+04  7.72731E+03  2.11667E+04
 -3.94280E+03  2.27462E+04 -1.45008E+04  1.39250E+04 -1.60161E+04  3.49592E+03 -1.13766E+04 -3.25985E+03
 -4.55876E+03 -5.20118E+03 -5.42159E+02  1.45149E+03 -2.58453E+03  2.71806E+03 -5.23016E+03  4.59888E+03
 -1.05799E+04 -6.24892E+02 -1.15119E+04 -9.63863E+03 -4.84903E+03 -1.51830E+04  4.54548E+03 -1.19321E+04
  9.72121E+03 -4.95849E+03  6.97203E+03  3.69687E+03 -1.47844E+02  4.13188E+03 -5.55334E+03  2.62111E+02
 -5.17078E+03 -7.18555E+03 -1.21365E+03 -1.03715E+04  5.72112E+03 -1.13570E+04  1.43440E+04 -5.86547E+03
  1.65438E+04  1.68827E+03  1.17296E+04  1.02722E+04  1.72846E+03  1.28702E+04 -6.89961E+03  1.16260E+04
 -9.86087E+03  3.82379E+03 -4.98427E+03 -1.84167E+03  1.80294E+03 -2.90531E+03  6.53211E+03 -8.43371E+02
  5.15914E+03  4.92663E+03  1.40547E+03  8.88490E+03 -6.66393E+03  8.64431E+03 -1.07780E+04  2.15004E+03
 -7.45351E+03 -5.48607E+03  7.44932E+02 -9.64457E+03  6.05371E+03 -4.60092E+03  5.54103E+03  1.21435E+03
  8.68730E+02  6.49708E+03 -5.85430E+03  7.58391E+03 -7.99004E+03  3.65714E+03 -8.39033E+03 -3.11921E+03
 -6.08018E+03 -9.95579E+03  2.24934E+03 -1.14641E+04  9.58679E+03 -7.32494E+03  1.01990E+04  1.66205E+03
  6.85697E+03  8.61347E+03 -1.00484E+03  1.10796E+04 -7.64552E+03  6.12870E+03 -8.78871E+03 -3.64740E+02
 -7.87008E+03 -7.77468E+03 -1.42351E+03 -7.16109E+03  4.20917E+03 -6.15715E+03  5.20061E+03 -3.08877E+03
  4.25735E+03  9.19403E+02 -5.77911E+01  1.98097E+03 -1.95392E+01 -1.56460E+03  1.69870E+03 -4.55923E+03
  7.04696E+03 -2.76258E+03  9.65050E+03  7.81005E+02  9.51320E+03  6.45176E+03  8.08268E+03  1.28752E+04
 -2.74309E+03  1.47489E+04 -1.32507E+04  1.08807E+04 -1.65361E+04  1.88073E+03 -1.26407E+04 -5.21843E+03
 -6.55689E+03 -1.05995E+04 -8.04307E+02 -8.83729E+03  3.03377E+03 -4.74794E+03  3.40699E+03 -3.54070E+03
  1.83102E+03 -2.15622E+03  3.68490E+03 -3.23537E+03  4.44064E+03 -2.25779E+03  4.98983E+03 -1.15204E+03
  7.22340E+03  1.14264E+03  2.95935E+03  6.13172E+03 -1.78317E+03  6.29756E+03 -7.65160E+03  5.39751E+03
 -8.13344E+03 -1.48442E+03 -4.91067E+03 -6.57636E+03 -1.17105E+03 -9.46726E+03  5.41262E+03 -9.21845E+03
  9.41681E+03 -5.38362E+03  1.19768E+04  1.30623E+03  8.27519E+03  8.04027E+03  1.35265E+03  1.09790E+04
 -4.69330E+03  8.80988E+03 -6.16151E+03  2.85627E+03 -4.24216E+03 -1.68998E+03 -1.65964E+03 -1.05937E+03
 -9.38503E+02 -5.89416E+01 -1.81955E+03  2.37167E+03 -4.11239E+03  1.62782E+03 -6.50000E+03 -8.54264E+02
 -4.13865E+03 -6.40580E+03  4.95934E+02 -8.91509E+03  5.63445E+03 -7.53313E+03  9.11011E+03 -2.22435E+03
  8.37198E+03  4.23468E+03  3.85221E+03  6.90366E+03 -1.84189E+03  8.42256E+03 -5.79118E+03  5.67043E+03
 -8.33430E+03  5.92005E+02 -5.87283E+03 -5.12638E+03 -6.31767E+02 -7.00244E+03  3.74678E+03 -4.76725E+03
  5.55005E+03 -1.96246E+03  3.12905E+03  1.34876E+03  1.18707E+03  2.78035E+03  1.32231E+03  1.30473E+03
  1.97537E+03  1.08651E+03  2.50301E+03  1.59383E+03  2.21086E+03  3.72764E+03  2.43880E+03  4.59838E+03
 -1.73951E+03  7.06805E+03 -5.65209E+03  7.00184E+03 -8.38697E+03  1.61774E+03 -8.71189E+03 -2.59935E+03
 -4.69169E+03 -8.44769E+03  1.10931E+03 -9.72101E+03  5.02240E+03 -5.54692E+03  6.66436E+03 -1.91953E+03
  5.64620E+03  3.22873E+03  2.07113E+03  5.09721E+03 -1.84729E+03  2.34686E+03 -3.36220E+03 -5.40147E+02
 -1.76021E+03 -3.34470E+03  2.05155E+03 -3.39696E+03  2.70694E+03 -1.54661E+03  3.28118E+03  1.27907E+03
  1.79168E+03  1.16258E+03  1.45851E+03  9.01841E+02 -3.70068E+01  1.19639E+03  2.10538E+03  2.71186E+02
  1.11223E+03 -9.16483E+01  3.74271E+03  6.89089E+02  1.32416E+03  4.52971E+03 -1.05961E+03  6.13641E+03
 -3.53117E+03  2.98167E+03 -4.29966E+03  7.19803E+02 -4.92519E+03 -2.31035E+03 -1.35611E+03 -2.67348E+03
  3.74408E+02 -3.57533E+03  1.70467E+03 -1.30827E+03  1.09178E+03  1.65577E+03 -9.14104E+02  2.76623E+03
 -2.74938E+03  1.55825E+03 -3.09635E+03 -2.39321E+03 -2.31766E+03 -4.46918E+03  8.10647E+02 -4.15504E+03
  1.97382E+03 -1.99095E+03  2.00229E+03  4.26345E+02  2.22432E+03  1.33122E+03  7.62504E+02  2.95887E+03
 -9.78009E+02  3.65516E+02 -2.08809E+03 -1.15113E+03  5.06320E+02 -3.22887E+03  3.62283E+03 -2.20025E+03
  4.63250E+03 -1.77662E+02  5.27598E+03  2.91341E+03  1.07107E+03  4.85523E+03 -1.81581E+03  4.49708E+03
 -4.12989E+03  1.55486E+03 -4.16320E+03 -7.13885E+02 -1.79223E+03 -3.40219E+03  9.52418E+02 -2.37697E+03
  3.17630E+03 -1.24418E+03  2.61570E+03  1.06634E+03  1.25518E+03  3.02885E+03 -6.07657E+02  2.04721E+03
 -8.91522E+02  1.61274E+03 -1.19978E+03  1.25630E+03 -3.52944E+02  2.30945E+02 -6.47146E+02  1.46050E+03
 -1.49794E+03  2.14646E+03 -3.80388E+03  1.44621E+03 -4.51361E+03  2.43660E+02 -5.48624E+03 -2.84680E+03
 -2.20093E+03 -6.19857E+03  1.57243E+03 -7.14650E+03  4.15430E+03 -5.77039E+03  6.97162E+03 -2.29499E+03
  5.77718E+03  9.04993E+02  3.90226E+03  4.47384E+03 -5.54529E+02  5.09396E+03 -2.36047E+03  3.63684E+03
 -3.01702E+03  1.63692E+03 -1.63950E+03 -4.75363E+02 -1.17724E+03 -1.30167E+02 -1.12110E+03  1.93389E+02
 -1.66798E+03 -4.95631E+02 -1.21423E+03 -2.15629E+02  1.36769E+02 -9.49785E+02 -3.19506E+02 -2.42692E+03
  2.66388E+03 -2.06859E+03  2.94822E+03  2.01999E+01  4.04256E+03  2.73892E+03  5.23326E+02  4.25909E+03
 -2.04583E+03  5.43314E+03 -4.77310E+03  3.41031E+03 -5.18042E+03 -6.85546E+02 -4.66799E+03 -3.72953E+03
 -2.29280E+03 -4.45404E+03  1.58398E+03 -3.79502E+03  2.75342E+03 -2.26757E+03  3.10631E+03 -6.92491E+01
  1.60450E+03  1.81068E+03  4.59769E+02  7.34101E+02 -1.11116E+03  1.33585E+02 -1.94788E+02 -5.96635E+02
  8.23246E+02  6.08729E+01  2.30020E+03 -2.47597E+02  8.64785E+02  1.77017E+03  7.37764E+02  1.76902E+03
 -2.27844E+03  2.20229E+03 -2.54817E+03 -5.79374E+01 -2.67443E+03 -1.93510E+03 -9.54852E+01 -4.07571E+03
  2.08820E+03 -3.31314E+03  3.42299E+03 -9.27821E+02  2.96994E+03  4.70628E+02  1.55177E+03  2.98371E+03
  3.45249E+02  3.10437E+03 -1.66471E+03  2.50642E+03 -1.95472E+03  1.15907E+03 -1.64303E+03 -7.89399E+01
 -5.27249E+02 -2.73504E+02 -9.36652E+02 -4.93429E+02 -1.88370E+03  9.12510E+02 -2.16715E+03 -8.47223E+02
 -2.96759E+03 -8.61668E+02 -7.33762E+02 -3.57228E+03  1.86160E+03 -3.62558E+03  1.96527E+03 -9.96074E+02
  2.62635E+03  3.25111E+02  1.15893E+03  1.87474E+03  3.14698E+02  2.66574E+03 -1.75387E+03  2.69088E+03
