 $NMID ID='MM_0lb_SNR400_14hz_g40_5.RAW', FMTDAT='(8E13.5)'
 TRAMP=1., VOLUME=1. $END
  3.10228E+05  1.24124E+02  3.37410E+05  2.50376E+05  8.44607E+04  3.37515E+05 -1.32423E+05  2.50051E+05
 -1.90314E+05  8.36035E+04 -1.11836E+05 -3.25655E+04  1.68318E+03 -5.06689E+04  5.38957E+04  9.07975E+01
  3.54270E+04  5.31118E+04 -1.64806E+04  7.52441E+04 -6.02662E+04  6.32637E+04 -8.31739E+04  3.18546E+04
 -8.06138E+04 -1.12661E+04 -5.62093E+04 -5.11580E+04 -1.48023E+04 -6.98258E+04  2.76672E+04 -4.52326E+04
  3.92040E+04  4.49601E+03  1.56881E+04  4.76755E+04 -3.45133E+04  4.66881E+04 -6.65183E+04 -7.92585E+00
 -5.31763E+04 -5.67664E+04 -6.75637E+03 -7.70128E+04  3.39073E+04 -5.48082E+04  4.73883E+04 -1.75354E+04
  4.29572E+04  1.14516E+04  3.20970E+04  2.56471E+04  1.60585E+04  2.89014E+04 -5.25913E+03  2.67169E+04
 -2.20282E+04  1.22432E+04 -1.85921E+04 -4.43593E+03  5.31676E+03 -6.85240E+03  2.15489E+04  1.20940E+04
  7.43652E+03  3.46416E+04 -3.12825E+04  3.55758E+04 -6.28582E+04  2.13724E+03 -5.71123E+04 -4.24087E+04
 -1.25976E+04 -6.24355E+04  3.90450E+04 -4.48334E+04  5.69965E+04 -2.60999E+03  3.34111E+04  3.15361E+04
 -5.85978E+03  3.57096E+04 -3.04675E+04  1.58506E+04 -2.94601E+04 -4.53406E+03 -1.59490E+04 -1.04811E+04
 -8.01942E+03 -1.30334E+04 -3.54127E+02 -1.74158E+04  7.70933E+03 -2.33308E+04  1.54626E+04 -1.26945E+04
  1.17620E+04  4.84805E+03 -7.32752E+03  1.25882E+04 -2.04551E+04 -3.93293E+03 -8.45487E+03 -3.22850E+04
  2.15944E+04 -4.23715E+04  4.71765E+04 -1.92888E+04  4.38927E+04  1.90592E+04  1.55049E+04  4.31886E+04
 -1.58884E+04  3.29082E+04 -2.49089E+04  1.28101E+03 -9.01453E+03 -2.75635E+04  2.11629E+04 -3.34593E+04
  4.05698E+04 -8.15069E+03  3.44571E+04  2.36154E+04  1.75524E+04  4.57419E+04 -8.39656E+03  4.95115E+04
 -3.12476E+04  3.28382E+04 -4.04323E+04  9.32579E+03 -4.15490E+04 -1.65917E+04 -2.29070E+04 -3.73666E+04
  6.92231E+03 -3.66440E+04  3.07790E+04 -1.42329E+04  2.86507E+04  1.03117E+04  2.85183E+03  1.87787E+04
 -1.28707E+04  8.15146E+03 -1.02952E+04 -7.43405E+03  5.14240E+03 -1.05242E+04  1.75302E+04  6.24239E+03
  1.30299E+04  2.20538E+04 -6.59711E+03  2.44671E+04 -2.22492E+04  1.07111E+04 -2.77562E+04 -5.41498E+03
 -1.94436E+04 -1.73877E+04 -7.75996E+03 -1.97132E+04  3.50278E+03 -1.83206E+04  1.43264E+04 -1.76440E+04
  2.52078E+04 -1.23784E+04  3.25453E+04  2.25468E+03  2.30832E+04  1.96005E+04  4.16093E+03  3.62380E+04
 -1.69642E+04  2.94391E+04 -2.76094E+04  9.82137E+03 -2.05736E+04 -1.02256E+04 -4.06299E+03 -1.33361E+04
  1.77131E+03 -2.97734E+03 -4.06047E+03  5.75915E+03 -1.50462E+04  5.48727E+03 -1.58690E+04 -7.33573E+03
 -9.69781E+03 -1.82412E+04  4.75255E+03 -2.21734E+04  1.46143E+04 -1.63063E+04  1.73345E+04 -1.61151E+03
  1.08036E+04  1.28688E+04 -1.04803E+03  1.86553E+04 -1.17532E+04  1.04117E+04 -1.84734E+04 -4.05246E+03
 -1.37750E+04 -1.66819E+04 -2.49211E+03 -2.16604E+04  1.04617E+04 -1.75636E+04  1.85251E+04 -8.36198E+03
  1.74937E+04  6.45499E+02  1.19569E+04  4.09226E+03  6.71818E+03  7.27199E+02  9.27924E+03 -2.02254E+03
  1.68583E+04  2.61051E+03  1.78540E+04  1.38028E+04  1.23458E+04  2.91415E+04 -2.38410E+03  3.26482E+04
 -1.87302E+04  2.65076E+04 -3.03219E+04  1.32212E+04 -3.18372E+04 -1.67738E+03 -2.66725E+04 -1.81300E+04
 -1.16810E+04 -2.60862E+04  9.32452E+03 -2.36309E+04  2.05360E+04 -1.21002E+04  1.85969E+04  4.81900E+03
  7.35009E+03  1.36904E+04 -8.53721E+03  1.17406E+04 -1.51513E+04  2.24714E+03 -1.17384E+04 -9.31023E+03
 -3.47292E+02 -1.43677E+04  7.58054E+03 -1.17289E+04  9.69263E+03 -1.07415E+03  1.88585E+03  6.12012E+03
 -6.49269E+03  1.66218E+03 -5.08993E+03 -5.82894E+03 -2.10730E+01 -1.29794E+04  9.49651E+03 -1.33704E+04
  1.59055E+04 -7.12548E+03  1.68276E+04  3.29672E+03  1.46588E+04  1.24626E+04  7.12468E+03  1.93774E+04
 -2.85157E+03  2.08758E+04 -1.33202E+04  1.30991E+04 -1.50229E+04  3.50282E+03 -1.14691E+04 -2.97058E+03
 -5.40482E+03 -4.39065E+03 -9.39847E+02  1.10319E+02 -1.82354E+03  2.17327E+03 -4.55320E+03  4.26116E+03
 -1.04786E+04 -4.27100E+02 -1.03446E+04 -8.34381E+03 -4.12829E+03 -1.41565E+04  4.90550E+03 -1.08187E+04
  9.11556E+03 -3.85081E+03  6.31684E+03  2.69746E+03  1.88599E+02  4.31437E+03 -4.36962E+03 -2.43742E+01
 -4.68492E+03 -6.46980E+03 -5.42554E+02 -1.00102E+04  5.74754E+03 -1.06321E+04  1.33191E+04 -5.72319E+03
  1.57042E+04  1.29371E+03  1.12663E+04  8.83618E+03  2.48581E+03  1.18985E+04 -6.88860E+03  1.08265E+04
 -9.65666E+03  3.31118E+03 -4.99988E+03 -2.54270E+03  1.52509E+03 -2.09426E+03  6.13262E+03 -1.00309E+03
  5.74541E+03  4.56692E+03  1.29130E+03  8.47035E+03 -6.16810E+03  8.08716E+03 -1.02982E+04  2.02827E+03
 -7.48501E+03 -5.19208E+03  5.34495E+01 -8.95924E+03  5.44643E+03 -4.00930E+03  5.54242E+03  1.44220E+03
  1.33736E+03  5.33790E+03 -5.83682E+03  6.96116E+03 -7.87288E+03  3.29100E+03 -8.41984E+03 -2.30036E+03
 -3.78747E+03 -8.78417E+03  2.01998E+03 -1.02840E+04  9.02556E+03 -6.57057E+03  1.06190E+04  1.71841E+03
  6.17050E+03  7.63648E+03 -1.79784E+02  9.56323E+03 -7.78371E+03  5.16915E+03 -7.47157E+03 -6.66832E+02
 -7.71878E+03 -7.41139E+03 -1.08420E+03 -7.13889E+03  3.88526E+03 -6.38713E+03  4.51847E+03 -3.78622E+03
  3.33340E+03  2.93172E+02 -3.33469E+02  1.18493E+03 -1.61882E+02 -5.01158E+02  1.13827E+03 -4.12447E+03
  6.35114E+03 -2.39507E+03  8.51979E+03  5.95888E+02  8.33117E+03  5.65170E+03  6.92476E+03  1.13732E+04
 -2.26358E+03  1.33042E+04 -1.15832E+04  1.01244E+04 -1.50651E+04  2.40815E+03 -1.19676E+04 -4.95784E+03
 -6.01970E+03 -9.68127E+03 -3.83372E+02 -7.70979E+03  3.20846E+03 -4.86719E+03  3.29478E+03 -3.05047E+03
  2.14267E+03 -2.22575E+03  2.16736E+03 -2.83514E+03  4.00012E+03 -2.11858E+03  5.14826E+03 -7.19001E+01
  6.70185E+03  1.05344E+03  2.93138E+03  4.84934E+03 -1.76266E+03  5.43331E+03 -7.43778E+03  4.44946E+03
 -7.89987E+03 -9.18410E+02 -4.47727E+03 -5.45649E+03 -1.44465E+02 -8.41757E+03  4.12431E+03 -8.75809E+03
  9.04702E+03 -5.10947E+03  1.05126E+04  1.05627E+03  7.51426E+03  7.02090E+03  1.31989E+03  9.03816E+03
 -4.06100E+03  8.31683E+03 -5.13523E+03  2.76533E+03 -2.98766E+03 -1.07885E+03 -1.58443E+03 -7.36069E+02
 -1.03248E+03  2.20418E+02 -1.21200E+03  1.90021E+03 -2.78280E+03  1.41913E+03 -5.66977E+03 -1.15282E+03
 -3.58955E+03 -6.33982E+03  6.80906E+02 -9.11077E+03  4.81774E+03 -7.14497E+03  7.47009E+03 -1.94196E+03
  6.86888E+03  4.07028E+03  3.22509E+03  6.71768E+03 -1.38021E+03  7.65226E+03 -6.07000E+03  4.35939E+03
 -6.77639E+03  8.90375E+02 -5.90204E+03 -4.93438E+03 -2.87963E+00 -6.20175E+03  3.62172E+03 -4.20796E+03
  4.58315E+03 -1.13079E+03  2.98814E+03  1.40379E+03  6.69340E+02  2.12056E+03  1.23728E+03  1.06120E+03
  2.67577E+03  8.60262E+02  2.27367E+03  1.60467E+03  1.98080E+03  3.33693E+03  2.31496E+03  3.58489E+03
 -1.66340E+03  5.44507E+03 -5.01411E+03  6.40706E+03 -6.75543E+03  2.27812E+03 -7.97172E+03 -1.68009E+03
 -3.18772E+03 -6.39869E+03  1.34749E+03 -8.33241E+03  3.73066E+03 -4.86889E+03  5.50017E+03 -1.34056E+03
  5.51973E+03  3.18001E+03  6.70457E+02  4.22200E+03 -2.06994E+03  2.57502E+03 -2.55662E+03 -5.11312E+02
 -1.10731E+03 -2.95585E+03  1.83920E+03 -3.64022E+03  2.84654E+03 -1.85364E+03  3.17456E+03  3.03371E+02
  1.84271E+03  1.04700E+03  1.32646E+03  1.21265E+02 -4.90525E+01  7.21736E+02  1.81079E+03  2.18910E+01
  1.03270E+03  2.61342E+02  3.42093E+03  6.89113E+02  9.84532E+02  4.39748E+03 -4.35645E+02  4.81979E+03
 -3.31156E+03  3.46596E+03 -4.47054E+03  5.23661E+02 -4.41857E+03 -1.20276E+03 -1.67923E+03 -2.88849E+03
  3.44517E+02 -3.04620E+03  1.87357E+03 -1.40242E+03  1.69839E+03  1.83078E+03 -2.93473E+02  2.60350E+03
 -2.89697E+03  1.74657E+03 -2.66289E+03 -1.91288E+03 -2.37772E+03 -3.70840E+03  4.02712E+02 -4.21965E+03
  1.68632E+03 -1.61395E+03  2.14810E+03 -1.29272E+02  2.48855E+03  4.85947E+02  5.59199E+02  2.23805E+03
 -1.13163E+03  3.57649E+02 -1.94772E+03 -1.47879E+03  5.14524E+02 -1.63799E+03  3.80296E+03 -1.82590E+03
  3.74126E+03  1.48269E+02  4.95125E+03  2.54215E+03  1.55683E+03  3.78637E+03 -1.03115E+03  3.68126E+03
 -3.06733E+03  1.29052E+03 -3.73297E+03 -4.38291E+02 -2.23187E+03 -2.89655E+03  2.73919E+02 -2.09275E+03
  3.05232E+03 -1.94746E+03  1.70877E+03  6.48634E+02  2.55350E+02  1.89314E+03  1.87564E+02  2.07346E+03
 -9.65986E+01  1.01863E+03 -1.51686E+03  5.92934E+02  1.79847E+02  9.31954E+02 -7.19587E+02  7.67939E+02
 -1.24493E+03  1.74516E+03 -3.70417E+03  1.68078E+03 -3.84596E+03  2.32688E+01 -5.39607E+03 -2.12285E+03
 -2.59801E+03 -5.30841E+03  1.10827E+03 -6.17585E+03  4.06973E+03 -5.08618E+03  5.76379E+03 -1.62597E+03
  5.47415E+03  3.29131E+02  3.52082E+03  4.14577E+03  2.53906E+02  3.65532E+03 -2.20642E+03  3.25505E+03
 -2.14525E+03  9.23040E+02 -1.61085E+03 -7.25683E+02 -7.87691E+02  4.00422E+02 -7.04877E+02  2.15874E+02
 -9.70485E+02  1.35144E+02 -1.18530E+03  1.54349E+02  3.25848E+02 -1.04759E+03 -2.31443E+02 -1.04744E+03
  1.69439E+03 -1.11160E+03  1.54546E+03  3.65247E+02  2.90923E+03  2.48389E+03  7.57103E+02  3.37844E+03
 -2.40986E+03  4.66899E+03 -4.27700E+03  2.80913E+03 -4.56192E+03 -5.32203E+02 -2.86270E+03 -2.88639E+03
 -2.10455E+03 -3.68703E+03  4.63829E+02 -3.16301E+03  1.93730E+03 -1.79011E+03  1.88180E+03 -3.10556E+02
  1.58783E+03  9.19957E+02 -2.10551E+02  1.03301E+03 -1.36399E+03 -3.37070E+02  2.35491E+02 -1.66111E+02
  1.24391E+03 -2.52673E+02  1.61272E+03  4.89112E+02  9.59129E+02  1.42445E+03  2.34095E+02  1.44367E+03
 -1.40134E+03  1.23587E+03 -2.09006E+03  4.69435E+02 -2.45789E+03 -1.97109E+03 -4.49079E+02 -3.33845E+03
  1.38281E+03 -2.59907E+03  2.53510E+03 -6.44448E+02  2.96713E+03  1.72907E+02  1.82269E+03  1.64474E+03
  1.24939E+02  1.82119E+03 -6.96025E+02  1.89101E+03 -1.65381E+03  9.09604E+02 -1.75990E+03  4.39292E+02
 -5.24430E+02 -7.43529E+01 -1.30434E+03  7.88881E+02 -1.02671E+03  3.15988E+02 -9.55811E+02  6.28101E+01
 -2.16932E+03 -2.93726E+02 -8.04249E+02 -2.73069E+03  8.72016E+02 -3.01216E+03  2.70580E+03 -1.84241E+03
  2.36098E+03  1.07315E+02  3.41619E+02  1.23563E+03  2.37684E+02  2.08743E+03 -1.76694E+03  2.21389E+03
