 $NMID ID='MM_0lb_SNR400_9hz_g45_45.RAW', FMTDAT='(8E13.5)'
 TRAMP=1., VOLUME=1. $END
  3.10218E+05 -1.57052E+02  3.36881E+05  2.50297E+05  8.46562E+04  3.37405E+05 -1.31555E+05  2.51750E+05
 -1.90854E+05  8.36531E+04 -1.12967E+05 -3.26113E+04 -2.36394E+02 -5.13152E+04  5.34630E+04 -2.18025E+02
  3.56898E+04  5.30396E+04 -1.65456E+04  7.54173E+04 -5.99564E+04  6.45392E+04 -8.52140E+04  3.15717E+04
 -8.24635E+04 -1.18074E+04 -5.76103E+04 -5.27471E+04 -1.49804E+04 -7.14373E+04  2.76306E+04 -4.71912E+04
  4.10674E+04  3.08299E+03  1.68617E+04  4.85107E+04 -3.47457E+04  4.86646E+04 -6.79461E+04 -2.34252E+02
 -5.51396E+04 -5.75605E+04 -6.87130E+03 -7.91629E+04  3.46390E+04 -5.72755E+04  4.97658E+04 -1.88407E+04
  4.47848E+04  1.22750E+04  3.26298E+04  2.65159E+04  1.55982E+04  3.07870E+04 -5.92483E+03  2.81376E+04
 -2.23844E+04  1.12911E+04 -1.80538E+04 -5.13058E+03  6.60645E+03 -7.39594E+03  2.31637E+04  1.25753E+04
  7.78891E+03  3.79336E+04 -3.35289E+04  3.71099E+04 -6.52797E+04  1.42293E+03 -5.90792E+04 -4.47446E+04
 -1.31013E+04 -6.50230E+04  4.14319E+04 -4.74596E+04  6.13573E+04 -2.11907E+03  3.65780E+04  3.37303E+04
 -5.83844E+03  4.01117E+04 -3.11598E+04  1.83533E+04 -3.28795E+04 -4.36535E+03 -1.88032E+04 -1.15894E+04
 -9.40400E+03 -1.50797E+04 -2.72266E+02 -1.91389E+04  8.78290E+03 -2.32098E+04  1.54997E+04 -1.19607E+04
  1.03857E+04  5.53839E+03 -9.91722E+03  1.31243E+04 -2.26985E+04 -6.48535E+03 -9.14594E+03 -3.71463E+04
  2.50592E+04 -4.63875E+04  5.13954E+04 -2.20033E+04  4.77895E+04  2.12653E+04  1.71240E+04  4.66782E+04
 -1.67487E+04  3.55353E+04 -2.72222E+04  2.87326E+03 -1.15515E+04 -2.89777E+04  2.14433E+04 -3.62412E+04
  4.45640E+04 -1.03318E+04  4.05428E+04  2.50103E+04  2.15662E+04  5.09344E+04 -7.46387E+03  5.59326E+04
 -3.49187E+04  3.81696E+04 -4.82787E+04  1.10404E+04 -4.70110E+04 -1.84030E+04 -2.58104E+04 -4.08449E+04
  8.51458E+03 -4.16842E+04  3.40002E+04 -1.69796E+04  3.20409E+04  1.11158E+04  4.30615E+03  2.11480E+04
 -1.29759E+04  9.61829E+03 -1.08973E+04 -7.75691E+03  6.26918E+03 -1.14778E+04  1.86756E+04  5.93882E+03
  1.40906E+04  2.23002E+04 -4.82661E+03  2.66869E+04 -2.39669E+04  1.41555E+04 -3.12772E+04 -3.47589E+03
 -2.51767E+04 -1.81923E+04 -1.15377E+04 -2.47115E+04  4.44483E+03 -2.54048E+04  2.01156E+04 -2.28817E+04
  3.16447E+04 -1.35764E+04  3.67981E+04  5.30284E+03  2.66253E+04  2.39760E+04  4.27377E+03  4.04365E+04
 -2.00126E+04  3.40455E+04 -3.07582E+04  1.22974E+04 -2.22746E+04 -1.01644E+04 -5.44291E+03 -1.24222E+04
  8.49518E+02 -8.98927E+02 -7.21868E+03  8.99751E+03 -1.93457E+04  4.65863E+03 -1.97207E+04 -9.14525E+03
 -1.15842E+04 -2.28340E+04  5.96904E+03 -2.70782E+04  1.88857E+04 -1.93464E+04  2.25356E+04 -2.06619E+03
  1.34933E+04  1.66678E+04 -1.40293E+03  2.28076E+04 -1.64927E+04  1.34624E+04 -2.30747E+04 -5.51603E+03
 -1.70484E+04 -2.03067E+04 -1.86544E+03 -2.73990E+04  1.20361E+04 -2.31392E+04  2.24153E+04 -1.16967E+04
  2.14917E+04  4.38935E+02  1.54673E+04  4.84809E+03  8.96844E+03  1.59193E+03  1.14971E+04 -2.28830E+03
  2.15390E+04  2.60787E+03  2.51193E+04  1.84847E+04  1.73128E+04  3.74586E+04 -2.89864E+03  4.31974E+04
 -2.45083E+04  3.62991E+04 -4.18879E+04  1.94468E+04 -4.35199E+04 -3.66261E+03 -3.56587E+04 -2.58189E+04
 -1.38829E+04 -3.62409E+04  1.26607E+04 -3.15589E+04  2.70122E+04 -1.42374E+04  2.41712E+04  7.57411E+03
  8.24199E+03  1.83877E+04 -1.09833E+04  1.56992E+04 -2.07509E+04  2.35977E+03 -1.47318E+04 -1.32025E+04
 -7.17006E+02 -1.91339E+04  1.06842E+04 -1.41350E+04  1.24778E+04 -7.17691E+02  3.35498E+03  8.17561E+03
 -9.14378E+03  4.09180E+03 -8.93550E+03 -6.61547E+03 -9.34159E+02 -1.74631E+04  1.11297E+04 -1.91000E+04
  2.24787E+04 -9.97590E+03  2.57299E+04  3.39403E+03  2.18854E+04  1.82197E+04  1.02842E+04  2.85157E+04
 -5.55538E+03  3.02170E+04 -2.02271E+04  1.85925E+04 -2.16947E+04  3.33624E+03 -1.47017E+04 -5.47760E+03
 -6.99342E+03 -6.77721E+03 -7.03888E+02  4.16159E+02 -3.04859E+03  3.18486E+03 -7.57780E+03  5.55344E+03
 -1.37940E+04 -6.96346E+02 -1.45654E+04 -1.17012E+04 -5.98930E+03 -1.89244E+04  6.00913E+03 -1.51426E+04
  1.24556E+04 -5.99344E+03  8.98390E+03  3.47812E+03  4.65883E+02  5.44693E+03 -7.31528E+03 -2.86832E+02
 -8.11079E+03 -9.24314E+03 -1.78567E+03 -1.53917E+04  9.09077E+03 -1.67500E+04  1.95406E+04 -8.77099E+03
  2.25542E+04  2.39246E+03  1.72601E+04  1.38241E+04  3.23367E+03  1.92432E+04 -9.36430E+03  1.61883E+04
 -1.28967E+04  4.48192E+03 -6.34932E+03 -2.35669E+03  1.85824E+03 -4.82836E+03  8.24588E+03 -1.14867E+03
  7.98199E+03  7.25720E+03  1.58056E+03  1.24082E+04 -8.66768E+03  1.15858E+04 -1.53125E+04  2.28852E+03
 -1.02721E+04 -7.93820E+03  1.77259E+02 -1.36029E+04  8.86073E+03 -6.35268E+03  8.70349E+03  2.92619E+03
  1.89432E+03  9.56745E+03 -7.71136E+03  1.08495E+04 -1.34806E+04  5.27093E+03 -1.38463E+04 -5.01768E+03
 -7.94941E+03 -1.52309E+04  3.07348E+03 -1.72914E+04  1.53358E+04 -1.04663E+04  1.60612E+04  2.29394E+03
  9.10065E+03  1.36841E+04 -1.52210E+03  1.50463E+04 -1.16152E+04  8.64883E+03 -1.29380E+04 -7.64504E+02
 -9.99408E+03 -9.92563E+03 -1.34802E+03 -1.15985E+04  6.18749E+03 -9.52848E+03  7.41334E+03 -3.40113E+03
  4.66937E+03  2.13308E+03 -1.44117E+03  1.57776E+03 -8.07796E+02 -3.25555E+03  2.23989E+03 -7.12001E+03
  1.12194E+04 -4.27460E+03  1.54378E+04  1.66715E+03  1.53272E+04  1.07827E+04  1.00244E+04  1.95469E+04
 -5.14419E+03  2.32213E+04 -1.93388E+04  1.71715E+04 -2.50180E+04  3.08923E+03 -2.02577E+04 -8.62564E+03
 -9.81793E+03 -1.71705E+04 -6.73190E+02 -1.40243E+04  5.29759E+03 -8.38417E+03  4.66591E+03 -5.97933E+03
  3.43138E+03 -3.61597E+03  3.79079E+03 -3.26359E+03  5.71399E+03 -3.04258E+03  7.93518E+03 -1.25724E+03
  1.06667E+04  2.69730E+03  5.61767E+03  8.82603E+03 -2.77778E+03  1.09464E+04 -1.05710E+04  8.15879E+03
 -1.43382E+04 -1.46301E+03 -8.93133E+03 -9.76944E+03 -1.14516E+03 -1.50069E+04  8.30746E+03 -1.52224E+04
  1.51818E+04 -8.29296E+03  1.89221E+04  2.13908E+03  1.34980E+04  1.34306E+04  2.11768E+03  1.75186E+04
 -7.45792E+03  1.41995E+04 -9.70061E+03  4.69796E+03 -7.17467E+03 -2.46587E+03 -2.93282E+03 -2.08058E+03
 -1.49162E+03 -9.60573E+02 -2.39823E+03  3.08558E+03 -5.44998E+03  2.24139E+03 -9.96161E+03 -7.94708E+02
 -6.60315E+03 -1.04158E+04  1.43135E+02 -1.43598E+04  8.89843E+03 -1.30156E+04  1.43136E+04 -4.30806E+03
  1.44869E+04  7.50772E+03  6.90781E+03  1.27458E+04 -2.98468E+03  1.46773E+04 -1.02283E+04  9.23884E+03
 -1.34828E+04  2.94889E+02 -1.02037E+04 -9.12435E+03 -1.87706E+03 -1.26089E+04  6.18409E+03 -9.07211E+03
  1.02249E+04 -2.29109E+03  6.19323E+03  2.41115E+03  2.46434E+03  4.91925E+03  1.71171E+03  2.17195E+03
  3.56264E+03  9.13003E+02  4.02841E+03  2.75373E+03  3.51877E+03  4.65753E+03  3.31888E+03  7.72523E+03
 -2.64271E+03  1.19490E+04 -1.02038E+04  1.14995E+04 -1.44735E+04  2.92512E+03 -1.49591E+04 -6.12297E+03
 -7.25372E+03 -1.45091E+04  2.00976E+03 -1.55761E+04  9.37630E+03 -9.99914E+03  1.20177E+04 -3.33193E+03
  9.55798E+03  4.60337E+03  1.74818E+03  8.15318E+03 -4.72130E+03  5.94281E+03 -6.29192E+03 -2.21091E+02
 -3.29122E+03 -6.77112E+03  3.59611E+03 -6.66012E+03  6.26158E+03 -3.84243E+03  5.58701E+03  1.08326E+03
  3.24488E+03  2.85271E+03  8.09625E+02  2.51153E+03 -8.56297E+02  2.05347E+03  1.70958E+03 -5.15810E+02
  1.85889E+03 -2.17176E+02  5.83697E+03  2.00442E+03  3.79680E+03  6.73045E+03 -1.74140E+03  9.97864E+03
 -7.10872E+03  6.07991E+03 -9.75596E+03  2.25865E+03 -8.51625E+03 -3.64619E+03 -2.69440E+03 -5.84379E+03
  9.18151E+02 -5.81009E+03  4.02643E+03 -2.32538E+03  3.60178E+03  3.18061E+03 -1.65933E+03  5.00041E+03
 -5.98742E+03  2.37676E+03 -6.90882E+03 -2.71859E+03 -3.70514E+03 -7.51790E+03  1.28337E+03 -7.78795E+03
  5.10244E+03 -3.99824E+03  6.06010E+03 -7.95381E+02  4.66380E+03  2.49009E+03  1.39593E+03  4.31345E+03
 -3.15222E+03  1.40242E+03 -3.91061E+03 -3.30614E+03  1.82826E+03 -5.87255E+03  7.94433E+03 -5.35860E+03
  9.31954E+03  6.52297E+02  1.05436E+04  7.31998E+03  2.50737E+03  9.94758E+03 -3.62938E+03  8.50552E+03
 -8.27183E+03  3.58973E+03 -8.60925E+03 -2.48923E+03 -4.95376E+03 -6.46014E+03  2.09911E+03 -5.42213E+03
  6.67874E+03 -3.03560E+03  3.83715E+03  1.56933E+03  1.83651E+03  5.67751E+03 -1.16894E+03  4.23045E+03
 -2.34406E+03  2.49725E+03 -2.19912E+03  6.59019E+02 -7.30313E+02  1.27249E+03 -1.45321E+03  1.98210E+03
 -2.59587E+03  4.05018E+03 -6.64665E+03  3.47362E+03 -9.74759E+03 -1.87419E+01 -1.09214E+04 -6.34241E+03
 -6.21936E+03 -1.30489E+04  2.19954E+03 -1.54343E+04  9.68622E+03 -1.22849E+04  1.46164E+04 -4.14186E+03
  1.36510E+04  2.49511E+03  8.92688E+03  8.85612E+03  8.86115E+02  1.03085E+04 -3.91671E+03  7.48515E+03
 -5.17703E+03  2.79614E+03 -3.21863E+03 -1.08082E+03 -8.19463E+02 -5.58310E+02 -9.58738E+01 -2.98006E+02
 -7.13389E+02  8.64100E+02 -1.58515E+03 -2.89616E+02 -9.14154E+02 -2.20404E+03  1.67643E+02 -3.88531E+03
  4.73867E+03 -2.74272E+03  5.86353E+03 -3.76157E+02  8.00003E+03  6.10832E+03  2.01329E+03  9.34276E+03
 -5.23260E+03  1.14260E+04 -1.08413E+04  6.50484E+03 -1.30317E+04 -1.36558E+03 -9.14544E+03 -7.58157E+03
 -3.99666E+03 -1.10751E+04  2.47917E+03 -8.92092E+03  6.12873E+03 -5.58601E+03  6.53351E+03  1.79708E+02
  3.42870E+03  3.09159E+03 -6.04895E+01  2.09890E+03 -2.04264E+03 -1.13180E+02  4.97941E+02 -2.68890E+03
  4.16850E+03 -1.81635E+03  4.27502E+03  1.60471E+03  2.85963E+03  3.81231E+03 -4.45027E+02  5.49166E+03
 -3.68263E+03  4.57431E+03 -5.82845E+03  3.29193E+02 -5.91685E+03 -5.12439E+03 -8.10730E+02 -8.13884E+03
  5.07537E+03 -7.70153E+03  8.01658E+03 -2.61865E+03  7.02260E+03  1.04447E+03  3.48970E+03  6.74765E+03
  9.82453E+02  6.94923E+03 -2.68592E+03  5.67615E+03 -5.25360E+03  2.95882E+03 -3.84327E+03 -1.01511E+02
 -1.88408E+03 -9.57344E+02 -1.72197E+03  9.21931E+02 -4.05980E+03  6.89820E+02 -5.76300E+03 -1.20147E+03
 -4.64821E+03 -4.02269E+03 -1.47301E+03 -6.25385E+03  2.92946E+03 -7.67660E+03  6.82707E+03 -3.01331E+03
  6.59932E+03  3.69531E+02  3.75482E+03  5.46964E+03 -5.96982E+02  6.65713E+03 -5.55701E+03  3.45725E+03
