 $NMID ID='MM_0lb_SNR400_14hz_g55_11.RAW', FMTDAT='(8E13.5)'
 TRAMP=1., VOLUME=1. $END
  3.09767E+05  4.94615E+02  3.37193E+05  2.50682E+05  8.53099E+04  3.38391E+05 -1.32164E+05  2.51507E+05
 -1.90207E+05  8.35560E+04 -1.12124E+05 -3.26191E+04  2.67611E+01 -4.97962E+04  5.37866E+04  6.89024E+01
  3.60708E+04  5.28529E+04 -1.65882E+04  7.52135E+04 -6.07999E+04  6.39072E+04 -8.40346E+04  3.23138E+04
 -8.14803E+04 -1.13071E+04 -5.66626E+04 -5.17557E+04 -1.51005E+04 -6.96808E+04  2.78239E+04 -4.57991E+04
  4.00637E+04  3.90602E+03  1.65418E+04  4.82702E+04 -3.38058E+04  4.73563E+04 -6.69409E+04  1.36559E+02
 -5.37242E+04 -5.69846E+04 -6.88641E+03 -7.73345E+04  3.44554E+04 -5.57423E+04  4.85276E+04 -1.72902E+04
  4.35878E+04  1.17310E+04  3.23012E+04  2.61697E+04  1.59099E+04  2.94729E+04 -5.91614E+03  2.73240E+04
 -2.19404E+04  1.21055E+04 -1.87902E+04 -5.20367E+03  6.12387E+03 -8.29073E+03  2.28228E+04  1.27916E+04
  7.16067E+03  3.55283E+04 -3.25647E+04  3.59293E+04 -6.41383E+04  2.09179E+03 -5.75372E+04 -4.27994E+04
 -1.19314E+04 -6.31925E+04  4.04385E+04 -4.61860E+04  5.88143E+04 -2.46938E+03  3.47178E+04  3.31014E+04
 -6.00340E+03  3.68772E+04 -3.07253E+04  1.62555E+04 -3.12979E+04 -3.84370E+03 -1.70878E+04 -1.12270E+04
 -8.62656E+03 -1.38073E+04 -8.41995E+02 -1.85735E+04  7.83436E+03 -2.27421E+04  1.53590E+04 -1.30508E+04
  1.10672E+04  5.15484E+03 -8.52313E+03  1.25571E+04 -2.15702E+04 -4.89880E+03 -8.67134E+03 -3.49452E+04
  2.29873E+04 -4.43746E+04  4.89039E+04 -1.98459E+04  4.52175E+04  2.02418E+04  1.53891E+04  4.52435E+04
 -1.62049E+04  3.36068E+04 -2.52681E+04  2.06759E+03 -9.72818E+03 -2.80641E+04  2.12630E+04 -3.41778E+04
  4.19686E+04 -9.24753E+03  3.61510E+04  2.44352E+04  1.83710E+04  4.67791E+04 -8.16915E+03  5.09975E+04
 -3.16365E+04  3.44517E+04 -4.29623E+04  9.97552E+03 -4.37859E+04 -1.69906E+04 -2.45315E+04 -3.88322E+04
  7.81346E+03 -3.88539E+04  3.23697E+04 -1.49804E+04  2.98801E+04  1.07325E+04  4.25023E+03  1.92063E+04
 -1.35800E+04  8.57700E+03 -1.04592E+04 -8.08099E+03  5.97436E+03 -1.09252E+04  1.79382E+04  5.92653E+03
  1.33123E+04  2.25298E+04 -6.01700E+03  2.56857E+04 -2.24354E+04  1.14368E+04 -2.94910E+04 -4.23935E+03
 -2.15890E+04 -1.82740E+04 -8.86114E+03 -2.10856E+04  3.65515E+03 -2.05142E+04  1.57107E+04 -1.89009E+04
  2.67291E+04 -1.29228E+04  3.36791E+04  2.80918E+03  2.40439E+04  2.05382E+04  4.09935E+03  3.74681E+04
 -1.73211E+04  3.06074E+04 -2.84981E+04  1.13490E+04 -2.14265E+04 -1.03294E+04 -3.68016E+03 -1.28092E+04
  1.39439E+03 -2.44197E+03 -4.77706E+03  7.31910E+03 -1.66433E+04  4.87239E+03 -1.67729E+04 -7.37937E+03
 -1.02647E+04 -1.95953E+04  4.82711E+03 -2.34329E+04  1.54379E+04 -1.75217E+04  1.91415E+04 -1.78576E+03
  1.21430E+04  1.34780E+04 -1.19240E+03  1.96499E+04 -1.40785E+04  1.20182E+04 -1.92014E+04 -4.39923E+03
 -1.41984E+04 -1.76289E+04 -1.89416E+03 -2.37093E+04  1.10496E+04 -1.97601E+04  1.99254E+04 -1.01225E+04
  1.78226E+04 -8.05204E+01  1.28491E+04  4.67052E+03  6.87135E+03  1.37844E+03  1.04067E+04 -1.62894E+03
  1.82908E+04  2.86911E+03  2.03490E+04  1.59062E+04  1.32019E+04  3.10942E+04 -3.27999E+03  3.61287E+04
 -2.07440E+04  2.75079E+04 -3.36321E+04  1.42399E+04 -3.50432E+04 -2.53739E+03 -2.89654E+04 -2.01675E+04
 -1.27281E+04 -2.86179E+04  9.94459E+03 -2.56513E+04  2.20095E+04 -1.31695E+04  1.98914E+04  5.27927E+03
  6.97166E+03  1.48026E+04 -9.54531E+03  1.25140E+04 -1.64536E+04  2.98033E+03 -1.28549E+04 -1.00342E+04
 -2.98228E+02 -1.58902E+04  8.72023E+03 -1.15637E+04  1.03569E+04 -2.45234E+03  2.54517E+03  6.94894E+03
 -7.57405E+03  2.66311E+03 -6.57990E+03 -5.76687E+03 -9.88983E+02 -1.41443E+04  9.92310E+03 -1.43589E+04
  1.81712E+04 -7.47299E+03  1.87929E+04  3.75325E+03  1.63858E+04  1.34286E+04  7.23612E+03  2.14566E+04
 -3.31277E+03  2.31715E+04 -1.45904E+04  1.38426E+04 -1.73775E+04  3.20844E+03 -1.15556E+04 -3.96543E+03
 -5.56404E+03 -4.70954E+03 -1.07611E+03  8.54297E+02 -2.66049E+03  2.86006E+03 -5.34826E+03  4.66569E+03
 -1.09909E+04 -6.77686E+02 -1.15466E+04 -8.95842E+03 -4.83095E+03 -1.52728E+04  5.52887E+03 -1.15639E+04
  9.57150E+03 -5.52785E+03  7.12834E+03  3.51194E+03  1.20551E+02  3.46918E+03 -5.92453E+03  2.46794E+02
 -5.56179E+03 -8.11471E+03 -8.03691E+02 -1.11775E+04  5.86938E+03 -1.16800E+04  1.46675E+04 -6.53961E+03
  1.73388E+04  1.56699E+03  1.28238E+04  9.94203E+03  2.64693E+03  1.32878E+04 -7.17620E+03  1.17926E+04
 -9.09130E+03  3.83804E+03 -5.22786E+03 -2.25216E+03  1.90664E+03 -2.81348E+03  6.25335E+03 -1.44843E+03
  5.48057E+03  4.39440E+03  1.13893E+03  8.90001E+03 -7.14507E+03  9.02150E+03 -1.10843E+04  2.21400E+03
 -7.74888E+03 -5.49291E+03  3.16731E+02 -1.00234E+04  5.78151E+03 -4.82180E+03  6.47265E+03  1.52436E+03
  7.76362E+02  6.09670E+03 -5.92725E+03  7.33894E+03 -9.65057E+03  4.03162E+03 -8.90344E+03 -2.33058E+03
 -5.41411E+03 -1.02931E+04  2.32459E+03 -1.15067E+04  1.06091E+04 -7.98382E+03  1.02903E+04  1.62655E+03
  6.63751E+03  8.25404E+03 -6.97158E+02  1.08482E+04 -7.12058E+03  6.44269E+03 -8.38115E+03 -4.90468E+02
 -7.86434E+03 -7.66299E+03 -1.54896E+03 -8.84916E+03  4.05003E+03 -6.75819E+03  5.11494E+03 -3.23437E+03
  3.33064E+03  1.28657E+03 -5.59307E+02  1.32162E+03  8.79837E+01 -2.03867E+03  1.35400E+03 -3.86230E+03
  6.56262E+03 -2.22110E+03  1.02525E+04  1.03173E+03  9.93798E+03  6.06018E+03  7.19365E+03  1.29921E+04
 -3.41080E+03  1.47164E+04 -1.27796E+04  1.07085E+04 -1.61074E+04  2.57096E+03 -1.30964E+04 -4.97160E+03
 -6.95249E+03 -1.09647E+04 -1.54005E+02 -8.91634E+03  3.72347E+03 -5.34714E+03  3.54256E+03 -3.14939E+03
  2.88126E+03 -1.99822E+03  2.82410E+03 -2.80792E+03  4.82065E+03 -2.41199E+03  5.11151E+03 -4.50277E+02
  6.90720E+03  2.00725E+03  3.27520E+03  5.97312E+03 -1.86609E+03  6.11323E+03 -7.40848E+03  4.89834E+03
 -9.07708E+03 -1.03279E+03 -5.35987E+03 -6.04145E+03 -2.38905E-01 -9.48809E+03  5.97846E+03 -9.34303E+03
  1.01268E+04 -4.67481E+03  1.18073E+04  1.60168E+03  8.56882E+03  8.00855E+03  1.30258E+03  1.11268E+04
 -4.73006E+03  8.92920E+03 -6.45137E+03  3.40853E+03 -3.54528E+03 -1.12847E+03 -1.57606E+03 -1.22269E+03
 -1.04726E+03 -9.57773E+01 -1.30985E+03  1.86246E+03 -3.81795E+03  1.95484E+03 -6.43456E+03 -9.79499E+02
 -3.40022E+03 -5.98478E+03  6.44044E+02 -8.92978E+03  5.32886E+03 -8.29689E+03  8.01892E+03 -1.81704E+03
  8.81239E+03  4.51285E+03  2.52805E+03  6.72106E+03 -1.93096E+03  9.09371E+03 -5.47133E+03  4.97996E+03
 -7.41684E+03  5.53692E+02 -6.11485E+03 -4.57340E+03 -6.49332E+02 -6.77620E+03  3.22589E+03 -4.31631E+03
  5.43660E+03 -1.92347E+03  3.80045E+03  8.12098E+02  1.94027E+03  2.55735E+03  1.21929E+03  1.30617E+03
  1.99815E+03  7.71945E+02  1.67738E+03  1.59407E+03  2.04341E+03  4.05925E+03  2.46521E+03  4.07835E+03
 -2.28241E+03  6.27052E+03 -5.49791E+03  6.59599E+03 -7.19064E+03  1.29439E+03 -8.12057E+03 -2.47212E+03
 -3.55183E+03 -7.70237E+03  1.25187E+03 -8.71423E+03  4.74939E+03 -5.01119E+03  6.56136E+03 -1.87623E+03
  4.58958E+03  2.50915E+03  8.72124E+02  4.53997E+03 -1.60416E+03  2.39477E+03 -2.94250E+03 -1.52725E+02
 -9.21574E+02 -3.20507E+03  1.90411E+03 -3.43657E+03  3.40442E+03 -1.74546E+03  3.19238E+03  1.17947E+03
  1.62353E+03  8.06393E+02  7.39310E+02  8.69154E+02 -2.04831E+02  8.06508E+02  2.22718E+03 -4.56501E+01
  5.54906E+02 -3.25219E+02  3.54032E+03  1.00890E+03  8.65443E+02  4.46816E+03 -4.82445E+02  5.73866E+03
 -4.33051E+03  3.14154E+03 -4.70464E+03  1.09789E+03 -4.01462E+03 -1.87500E+03 -7.17940E+02 -2.46880E+03
  7.27255E+02 -3.00134E+03  1.61790E+03 -1.30561E+03  1.89863E+03  1.49858E+03 -1.43399E+03  2.50365E+03
 -3.08199E+03  6.81980E+02 -3.41974E+03 -2.03285E+03 -2.24403E+03 -4.66007E+03 -9.22932E+01 -4.20593E+03
  2.34628E+03 -2.40869E+03  2.48201E+03  5.07673E+01  2.10967E+03  8.89812E+02  7.75677E+02  1.93259E+03
 -8.85145E+02  2.66360E+02 -2.09023E+03 -1.57963E+03  7.15277E+02 -2.70403E+03  3.16364E+03 -2.01197E+03
  2.89811E+03  2.53287E+02  4.58485E+03  2.66216E+03  1.46194E+03  4.67557E+03 -1.80272E+03  3.62488E+03
 -3.55749E+03  2.15768E+03 -3.62951E+03  4.35729E+01 -2.39229E+03 -2.97671E+03  1.34777E+03 -2.19162E+03
  2.86081E+03 -1.54792E+03  2.12736E+03  1.46734E+03  8.27145E+02  2.94520E+03  4.14661E+01  2.10539E+03
 -8.92943E+02  2.18306E+03 -6.96114E+02  2.80658E+02 -3.21017E+02  6.30996E+02 -9.77509E+02  3.50876E+02
 -7.26808E+02  1.43187E+03 -3.15317E+03  1.72025E+03 -4.15961E+03  2.54885E+02 -5.37645E+03 -2.69000E+03
 -1.98355E+03 -5.74834E+03  9.70314E+02 -6.19966E+03  3.74582E+03 -5.04228E+03  5.97529E+03 -2.26108E+03
  5.47260E+03  7.51293E+02  3.15062E+03  3.59746E+03  2.53249E+00  3.95536E+03 -1.90843E+03  3.55831E+03
 -2.73617E+03  1.90101E+03 -1.74693E+03 -2.33503E+02 -5.83696E+02  5.89059E+01 -5.10371E+02 -5.75798E+01
 -1.32013E+03  1.87150E+01 -1.99802E+03 -4.11916E+02  1.73024E+02 -1.11953E+03  1.49846E+02 -1.95459E+03
  2.23188E+03 -1.46934E+03  2.14495E+03  2.20700E+02  3.31887E+03  2.18658E+03  4.80664E+02  4.48239E+03
 -2.06988E+03  4.58448E+03 -4.14958E+03  3.34089E+03 -4.80529E+03 -3.05766E+02 -3.85722E+03 -2.44607E+03
 -2.15895E+03 -4.20732E+03  1.41799E+03 -4.07514E+03  1.70380E+03 -1.98166E+03  1.91878E+03 -3.57254E+02
  1.83078E+03  1.19311E+03  4.74568E+02  1.05094E+03 -9.02891E+02  6.07305E+01 -2.14123E+02 -5.09078E+02
  1.57525E+03 -4.27368E+02  7.16018E+02  8.01026E+02  5.63111E+02  1.55444E+03 -1.36837E+02  1.85747E+03
 -1.69927E+03  1.66319E+03 -2.57541E+03 -2.30271E+01 -1.63909E+03 -1.43439E+03 -3.63783E+02 -3.23515E+03
  1.53528E+03 -2.50742E+03  2.20480E+03 -4.26872E+02  3.33171E+03  3.89326E+02  1.76765E+03  2.36989E+03
  8.39659E+01  2.56055E+03 -1.49555E+03  2.63451E+03 -1.66336E+03  1.28184E+03 -1.08290E+03  3.44362E+02
  1.48077E+02 -4.38852E+02 -7.19970E+02  4.25437E+02 -1.14120E+03  4.93283E+02 -2.61620E+03 -3.90989E+02
 -2.24735E+03 -1.15437E+03 -6.57385E+02 -1.59663E+03  1.12694E+03 -3.07988E+03  2.82692E+03 -1.85329E+03
  2.46298E+03  7.17809E+02  7.69861E+02  1.73819E+03 -1.98221E+02  2.50053E+03 -1.46891E+03  2.25123E+03
