 $NMID ID='MM_0lb_SNR400_15hz_g50_45.RAW', FMTDAT='(8E13.5)'
 TRAMP=1., VOLUME=1. $END
  3.09845E+05 -5.21766E+01  3.37600E+05  2.50663E+05  8.49221E+04  3.38617E+05 -1.32921E+05  2.51379E+05
 -1.90123E+05  8.34578E+04 -1.11571E+05 -3.24879E+04  1.81226E+03 -5.04365E+04  5.39993E+04 -2.69546E+02
  3.48242E+04  5.27571E+04 -1.67491E+04  7.52354E+04 -6.06143E+04  6.31724E+04 -8.32310E+04  3.22131E+04
 -8.06387E+04 -1.09921E+04 -5.73277E+04 -5.10105E+04 -1.51219E+04 -6.95035E+04  2.70584E+04 -4.54689E+04
  3.98068E+04  3.44596E+03  1.55120E+04  4.76285E+04 -3.48854E+04  4.70614E+04 -6.66709E+04 -2.39806E+02
 -5.29301E+04 -5.68117E+04 -6.82838E+03 -7.62754E+04  3.38368E+04 -5.45584E+04  4.81485E+04 -1.71508E+04
  4.29173E+04  1.15887E+04  3.19330E+04  2.54633E+04  1.56049E+04  2.88769E+04 -4.81896E+03  2.70487E+04
 -2.19667E+04  1.23997E+04 -1.89128E+04 -5.31528E+03  4.62717E+03 -7.35486E+03  2.24220E+04  1.21480E+04
  6.72666E+03  3.53305E+04 -3.13731E+04  3.54868E+04 -6.25165E+04  2.41982E+03 -5.66969E+04 -4.29445E+04
 -1.19765E+04 -6.27522E+04  3.87496E+04 -4.45965E+04  5.81238E+04 -2.00189E+03  3.42918E+04  3.23964E+04
 -6.02858E+03  3.55745E+04 -3.05239E+04  1.60071E+04 -2.94688E+04 -4.70471E+03 -1.60708E+04 -1.09321E+04
 -7.72076E+03 -1.31281E+04 -1.12451E+03 -1.81960E+04  6.78233E+03 -2.26371E+04  1.55787E+04 -1.32805E+04
  1.16728E+04  5.04822E+03 -8.04447E+03  1.27558E+04 -2.10080E+04 -3.71030E+03 -8.21272E+03 -3.31670E+04
  2.30539E+04 -4.31025E+04  4.69107E+04 -2.06127E+04  4.37527E+04  1.90529E+04  1.59804E+04  4.40091E+04
 -1.56039E+04  3.37607E+04 -2.44765E+04  1.89081E+03 -9.43571E+03 -2.76927E+04  2.05669E+04 -3.38808E+04
  4.12050E+04 -8.61822E+03  3.50734E+04  2.42290E+04  1.82519E+04  4.60780E+04 -7.70092E+03  4.95913E+04
 -3.07233E+04  3.33569E+04 -4.14166E+04  8.60622E+03 -4.27587E+04 -1.62273E+04 -2.31530E+04 -3.73739E+04
  6.99482E+03 -3.78913E+04  3.09038E+04 -1.49177E+04  2.85424E+04  1.14208E+04  3.81892E+03  1.88573E+04
 -1.29990E+04  8.24810E+03 -1.01780E+04 -7.76113E+03  5.78795E+03 -1.06070E+04  1.78726E+04  6.58723E+03
  1.34831E+04  2.19338E+04 -6.40448E+03  2.48524E+04 -2.20504E+04  1.07189E+04 -2.76098E+04 -4.90558E+03
 -2.01179E+04 -1.75440E+04 -8.41441E+03 -1.96324E+04  4.33143E+03 -1.89256E+04  1.57305E+04 -1.73863E+04
  2.58447E+04 -1.26178E+04  3.13777E+04  2.29914E+03  2.34510E+04  1.91760E+04  4.04544E+03  3.53895E+04
 -1.78568E+04  3.03438E+04 -2.74593E+04  1.04225E+04 -2.04562E+04 -1.06409E+04 -4.55855E+03 -1.36710E+04
  1.48113E+03 -2.88859E+03 -4.86058E+03  6.35009E+03 -1.56616E+04  5.35206E+03 -1.62464E+04 -6.46376E+03
 -1.00377E+04 -1.81301E+04  5.12074E+03 -2.24494E+04  1.50076E+04 -1.63275E+04  1.71464E+04 -1.81144E+03
  1.12348E+04  1.27860E+04 -9.64921E+02  1.87978E+04 -1.27945E+04  9.84892E+03 -1.79071E+04 -4.11124E+03
 -1.31409E+04 -1.64806E+04 -2.03251E+03 -2.19726E+04  1.02910E+04 -1.83486E+04  1.84870E+04 -8.98256E+03
  1.67494E+04  3.23707E+00  1.24031E+04  4.83627E+03  6.25835E+03  4.46066E+02  9.20143E+03 -1.50390E+03
  1.60732E+04  2.73017E+03  1.84690E+04  1.55473E+04  1.15617E+04  2.95319E+04 -3.13192E+03  3.23661E+04
 -1.90182E+04  2.69119E+04 -3.05195E+04  1.27003E+04 -3.19777E+04 -2.26874E+03 -2.63264E+04 -1.78067E+04
 -1.15647E+04 -2.64817E+04  8.94759E+03 -2.34396E+04  2.07030E+04 -1.29485E+04  1.81962E+04  5.26991E+03
  7.23810E+03  1.41265E+04 -8.74637E+03  1.26337E+04 -1.54605E+04  2.58383E+03 -1.21351E+04 -9.32504E+03
 -9.04056E+02 -1.48244E+04  7.44939E+03 -1.06993E+04  9.55281E+03 -1.05504E+03  2.15703E+03  6.27518E+03
 -7.30453E+03  2.83275E+03 -5.66233E+03 -5.29326E+03 -3.03561E+02 -1.27724E+04  9.40458E+03 -1.31892E+04
  1.49417E+04 -7.30169E+03  1.65228E+04  3.01590E+03  1.39703E+04  1.26909E+04  6.79631E+03  1.86656E+04
 -2.57652E+03  2.13299E+04 -1.27760E+04  1.29521E+04 -1.47270E+04  3.50941E+03 -1.04944E+04 -3.29464E+03
 -4.81211E+03 -4.60551E+03 -1.41728E+03  9.38553E+02 -2.38984E+03  2.57797E+03 -5.09510E+03  3.80566E+03
 -9.99051E+03 -1.04993E+03 -1.09765E+04 -8.56815E+03 -4.51873E+03 -1.38158E+04  4.26621E+03 -1.06076E+04
  9.02140E+03 -4.41956E+03  6.32582E+03  2.72778E+03  2.09477E+02  4.52849E+03 -4.79854E+03  1.86195E+02
 -4.62553E+03 -6.74251E+03 -7.94949E+02 -1.01988E+04  5.79886E+03 -1.02032E+04  1.31718E+04 -5.58870E+03
  1.60596E+04  1.17273E+03  1.14632E+04  8.65433E+03  2.09632E+03  1.24657E+04 -6.48124E+03  1.01241E+04
 -8.30387E+03  2.96824E+03 -4.54271E+03 -1.38336E+03  1.67999E+03 -2.70621E+03  5.82605E+03 -1.47538E+03
  5.58792E+03  4.46245E+03  6.95972E+02  8.50811E+03 -6.05495E+03  8.30894E+03 -9.79625E+03  2.55285E+03
 -6.73224E+03 -5.40048E+03  3.14418E+02 -8.44998E+03  4.76593E+03 -3.56440E+03  5.29438E+03  1.40783E+03
  5.05162E+02  5.09296E+03 -5.35080E+03  6.87831E+03 -7.86638E+03  3.70348E+03 -7.14036E+03 -1.97513E+03
 -4.22825E+03 -7.90847E+03  2.17737E+03 -1.06848E+04  8.38658E+03 -6.01843E+03  9.11724E+03  1.33524E+03
  6.62327E+03  7.38444E+03 -3.48283E+02  9.65825E+03 -7.05965E+03  5.37691E+03 -7.56016E+03 -9.07701E+02
 -7.13204E+03 -6.54993E+03 -1.16732E+03 -6.19010E+03  3.50213E+03 -6.39922E+03  4.64328E+03 -3.09784E+03
  3.44321E+03  1.39563E+03  2.85863E+02  1.53445E+03  2.79886E+02 -1.19865E+03  6.72719E+02 -3.34475E+03
  6.82020E+03 -1.93777E+03  8.12453E+03  1.86583E+03  8.27513E+03  5.66457E+03  6.68176E+03  1.16498E+04
 -2.38326E+03  1.27502E+04 -1.11082E+04  9.60165E+03 -1.47346E+04  1.73855E+03 -1.14667E+04 -4.07355E+03
 -5.93239E+03 -9.55804E+03 -7.52285E+02 -8.23584E+03  2.82494E+03 -3.90919E+03  3.16564E+03 -2.75177E+03
  2.01250E+03 -2.40720E+03  2.54190E+03 -3.08157E+03  4.13539E+03 -1.94714E+03  4.86051E+03 -9.25080E+02
  6.23660E+03  1.33051E+03  3.06132E+03  5.04046E+03 -2.02532E+03  5.57739E+03 -6.16248E+03  4.34679E+03
 -8.09851E+03 -1.03645E+03 -3.75230E+03 -4.99037E+03  6.36923E+00 -7.75790E+03  4.67457E+03 -8.61583E+03
  7.84070E+03 -4.58576E+03  9.92261E+03  6.31901E+02  6.98423E+03  6.47148E+03  1.12734E+03  8.68443E+03
 -4.13511E+03  8.52210E+03 -5.28507E+03  2.94251E+03 -3.41628E+03 -1.01398E+03 -1.20092E+03 -6.82022E+02
 -3.26121E+02  5.89608E+02 -1.48747E+03  2.87267E+03 -3.79977E+03  1.60570E+03 -5.60079E+03 -4.86668E+02
 -2.69988E+03 -5.53191E+03  9.27093E+02 -7.48939E+03  4.24182E+03 -7.09860E+03  6.34122E+03 -1.45311E+03
  6.86564E+03  3.86594E+03  3.18599E+03  5.94016E+03 -1.20612E+03  7.19365E+03 -4.74801E+03  4.21289E+03
 -6.25789E+03  1.07319E+03 -5.37365E+03 -3.76334E+03 -3.43272E+02 -5.49215E+03  2.63365E+03 -3.76231E+03
  4.23659E+03 -1.75896E+03  3.08508E+03  1.08483E+03  9.71722E+02  2.53917E+03  1.03757E+03  9.37033E+02
  1.73609E+03  2.11293E+02  1.72970E+03  9.35031E+02  2.57481E+03  3.18767E+03  2.25720E+03  3.41947E+03
 -2.10807E+03  5.44097E+03 -4.69513E+03  6.00895E+03 -5.64297E+03  1.37482E+03 -7.03062E+03 -1.61805E+03
 -2.51692E+03 -6.75089E+03  1.48151E+03 -7.57129E+03  3.80488E+03 -4.87739E+03  5.76044E+03 -9.89635E+02
  4.55955E+03  2.20600E+03  8.48464E+02  3.81242E+03 -1.63943E+03  2.42150E+03 -2.43895E+03 -1.16104E+02
 -9.38589E+02 -2.90034E+03  2.01077E+03 -2.63317E+03  3.15087E+03 -1.67154E+03  2.08019E+03  8.11946E+02
  8.86052E+02  9.82809E+02  6.90044E+02  2.40977E+02 -1.98883E+02  1.44567E+03  1.43979E+03 -2.48504E+02
  5.97395E+02 -9.31675E+02  2.70045E+03  9.54821E+02  1.00109E+03  3.61544E+03 -7.95371E+02  4.64265E+03
 -3.12002E+03  2.72692E+03 -3.08820E+03  7.37624E+02 -3.22382E+03 -1.64595E+03 -5.35722E+02 -2.14413E+03
  4.13608E+02 -1.88097E+03  1.68235E+03 -1.00164E+03  1.24510E+03  1.57785E+03 -3.44298E+01  2.16774E+03
 -2.67802E+03  1.05712E+03 -2.28690E+03 -1.89022E+03 -9.76799E+02 -3.81303E+03  6.69596E+02 -2.76064E+03
  1.22539E+03 -2.09585E+03  2.03712E+03 -3.13254E+01  2.22754E+03  4.46294E+01  2.06342E+02  1.36907E+03
 -6.20943E+02  1.81073E+02 -1.80273E+03 -5.11116E+02  7.21327E+02 -2.09101E+03  2.80448E+03 -1.75620E+03
  3.02379E+03  1.98415E+02  4.51562E+03  2.20820E+03  2.29435E+03  3.63627E+03 -1.21267E+03  3.16379E+03
 -2.49779E+03  6.66394E+02 -2.79452E+03 -3.16822E+02 -1.65985E+03 -2.93895E+03  8.17240E+02 -1.71305E+03
  2.47326E+03 -1.14922E+03  1.61100E+03  1.11293E+03  7.74202E+01  2.02323E+03  5.54078E+02  2.58029E+03
 -1.91150E+02  1.39746E+03 -7.47013E+02  5.54198E+02  1.94570E+02  3.13744E+02 -3.79075E+02  6.12364E+02
 -7.74075E+02  1.67949E+03 -2.29856E+03  1.29715E+03 -3.28162E+03  2.53384E+02 -4.37823E+03 -2.23759E+03
 -1.74533E+03 -3.94784E+03  9.67206E+02 -5.73096E+03  2.91720E+03 -4.60013E+03  5.40886E+03 -1.75350E+03
  4.38767E+03  6.50218E+02  2.50652E+03  2.99028E+03 -5.50795E+02  3.67528E+03 -1.12104E+03  2.48759E+03
 -2.35815E+03  1.45345E+03 -1.02281E+03 -5.52849E+02 -1.14495E+03 -9.29369E+00 -5.07150E+02  6.84973E+01
 -1.56738E+03 -2.01769E+02 -7.67744E+02 -1.36425E+02  1.32749E+02 -4.67995E+02 -4.96912E+02 -1.75091E+03
  1.90969E+03 -1.49821E+03  1.92172E+03 -9.33142E+01  1.93028E+03  1.91819E+03 -3.13688E+02  3.13009E+03
 -2.05789E+03  4.20777E+03 -2.92093E+03  2.18338E+03 -3.89888E+03 -5.85145E+02 -2.40182E+03 -1.95241E+03
 -1.97322E+03 -2.85788E+03  6.16195E+02 -2.85218E+03  1.79640E+03 -1.16355E+03  1.86146E+03 -3.36005E+02
  1.60891E+03  1.37830E+03 -3.36860E+02  7.94602E+02 -4.88991E+02 -1.53702E+02  1.82160E+02 -5.55925E+02
  1.13847E+03 -6.68259E+02  7.13629E+02  1.29158E+01  9.32315E+02  7.98445E+02  2.61708E+02  1.91767E+03
 -1.67621E+03  1.13106E+03 -1.91399E+03  1.54716E+02 -2.22257E+03 -1.16537E+03  2.25973E+02 -2.45459E+03
  1.13768E+03 -1.92936E+03  1.94078E+03 -3.25820E+02  1.60772E+03 -1.66433E+02  1.26040E+03  1.47447E+03
 -2.79131E+02  1.19816E+03 -8.80754E+02  1.47341E+03 -1.28910E+03  1.20165E+03 -9.31823E+02  4.73822E+02
 -6.96560E+02 -1.30260E+02 -1.15747E+03  1.34805E+02 -1.17706E+03 -1.08929E+02 -1.25187E+03 -2.03191E+01
 -2.47831E+03 -2.46006E+02 -6.69741E+02 -1.25126E+03  1.31583E+03 -2.57606E+03  1.78469E+03 -1.81033E+03
  1.66661E+03  5.31103E+02  2.61707E+02  1.09720E+03 -7.41331E+00  2.08755E+03 -8.68229E+02  1.30786E+03
