 $NMID ID='MM_0lb_SNR400_20hz_g50_82.RAW', FMTDAT='(8E13.5)'
 TRAMP=1., VOLUME=1. $END
  3.09828E+05  5.42464E+02  3.37336E+05  2.49756E+05  8.43486E+04  3.37201E+05 -1.32323E+05  2.49916E+05
 -1.89644E+05  8.25261E+04 -1.11020E+05 -3.32613E+04  1.75410E+03 -4.99725E+04  5.40036E+04  2.14232E+02
  3.47365E+04  5.30324E+04 -1.70161E+04  7.48374E+04 -6.00640E+04  6.32727E+04 -8.31041E+04  3.12559E+04
 -7.91794E+04 -1.09315E+04 -5.57763E+04 -5.02242E+04 -1.47665E+04 -6.77432E+04  2.68527E+04 -4.44999E+04
  3.88521E+04  3.95327E+03  1.59554E+04  4.68151E+04 -3.45556E+04  4.57499E+04 -6.48874E+04 -6.30371E+02
 -5.20363E+04 -5.58684E+04 -6.37475E+03 -7.45116E+04  3.29612E+04 -5.25696E+04  4.58674E+04 -1.62101E+04
  4.04339E+04  1.06988E+04  3.05834E+04  2.44602E+04  1.59053E+04  2.78657E+04 -4.80495E+03  2.66751E+04
 -2.16821E+04  1.30397E+04 -1.94515E+04 -4.12425E+03  4.05430E+03 -7.48576E+03  2.14309E+04  1.07387E+04
  7.43203E+03  3.29415E+04 -3.01762E+04  3.40334E+04 -6.08070E+04  2.60375E+03 -5.49492E+04 -4.11405E+04
 -1.27889E+04 -6.05267E+04  3.78188E+04 -4.31007E+04  5.51620E+04 -1.71390E+03  3.10999E+04  2.98305E+04
 -6.70513E+03  3.24011E+04 -2.77002E+04  1.34952E+04 -2.77807E+04 -5.62008E+03 -1.39704E+04 -9.87154E+03
 -6.90094E+03 -1.16576E+04 -8.81419E+02 -1.64603E+04  6.29801E+03 -2.26134E+04  1.48744E+04 -1.32125E+04
  1.19641E+04  3.96798E+03 -5.52365E+03  1.27448E+04 -1.86715E+04 -2.24147E+03 -8.13228E+03 -2.98139E+04
  2.02553E+04 -3.98053E+04  4.42156E+04 -1.83947E+04  4.11206E+04  1.80419E+04  1.41449E+04  4.07287E+04
 -1.54348E+04  3.05150E+04 -2.28515E+04  9.21035E+02 -7.83860E+03 -2.62474E+04  2.02466E+04 -3.03902E+04
  3.74396E+04 -7.41442E+03  3.05384E+04  2.19281E+04  1.45424E+04  4.21234E+04 -7.52415E+03  4.43336E+04
 -2.79998E+04  2.92196E+04 -3.69213E+04  8.18561E+03 -3.72034E+04 -1.47252E+04 -2.06618E+04 -3.37233E+04
  6.77906E+03 -3.39376E+04  2.85313E+04 -1.20494E+04  2.65888E+04  1.04061E+04  2.30239E+03  1.71120E+04
 -1.33046E+04  6.79399E+03 -9.39078E+03 -7.46227E+03  6.47867E+03 -9.91745E+03  1.72269E+04  6.58250E+03
  1.20475E+04  2.13674E+04 -6.42639E+03  2.26341E+04 -2.14672E+04  8.80082E+03 -2.45093E+04 -6.50980E+03
 -1.63065E+04 -1.60720E+04 -4.60112E+03 -1.63087E+04  4.17469E+03 -1.39113E+04  1.19246E+04 -1.35784E+04
  2.10958E+04 -1.11862E+04  2.67212E+04  8.29143E+02  2.10454E+04  1.54665E+04  4.26557E+03  3.21185E+04
 -1.55856E+04  2.71012E+04 -2.52937E+04  9.28771E+03 -1.96382E+04 -1.02589E+04 -3.76451E+03 -1.40447E+04
  2.62097E+03 -4.27594E+03 -2.36541E+03  4.85198E+03 -1.25830E+04  5.21211E+03 -1.24131E+04 -4.96815E+03
 -8.20117E+03 -1.44037E+04  4.69737E+03 -1.87746E+04  1.22051E+04 -1.37851E+04  1.40383E+04 -1.39774E+03
  8.31101E+03  9.99229E+03 -1.16153E+03  1.53033E+04 -9.83035E+03  8.50248E+03 -1.45950E+04 -3.65083E+03
 -1.07390E+04 -1.33097E+04 -1.41115E+03 -1.83297E+04  8.34430E+03 -1.49437E+04  1.57169E+04 -6.26830E+03
  1.39483E+04  8.61994E+02  1.01746E+04  3.97767E+03  5.24371E+03  3.65720E+02  7.06609E+03 -4.81077E+02
  1.30481E+04  2.50750E+03  1.36578E+04  1.22770E+04  8.80989E+03  2.29012E+04 -3.09602E+03  2.49627E+04
 -1.53789E+04  1.87814E+04 -2.23003E+04  9.07923E+03 -2.34300E+04 -1.29819E+03 -2.02337E+04 -1.35410E+04
 -9.74542E+03 -1.91206E+04  6.80117E+03 -1.79949E+04  1.53344E+04 -1.05888E+04  1.46999E+04  3.64635E+03
  6.52097E+03  1.05460E+04 -6.78822E+03  9.59184E+03 -1.27344E+04  2.73719E+03 -1.02168E+04 -7.25586E+03
  3.18160E+02 -1.13881E+04  5.91557E+03 -8.74575E+03  7.65996E+03 -1.41451E+03  8.62120E+02  3.99845E+03
 -5.21971E+03  1.18056E+03 -3.17460E+03 -4.03787E+03  1.60755E+03 -9.33895E+03  7.68847E+03 -9.38599E+03
  1.12820E+04 -3.98822E+03  1.09692E+04  2.64821E+03  9.02103E+03  8.94294E+03  4.57865E+03  1.24430E+04
 -1.21411E+03  1.43510E+04 -8.74149E+03  8.93031E+03 -1.06938E+04  3.02320E+03 -7.79303E+03 -1.91412E+03
 -4.36841E+03 -2.68637E+03 -4.19455E+02  1.58651E+03 -2.03736E+03  2.19285E+03 -4.01993E+03  3.24537E+03
 -7.18551E+03 -4.21167E+02 -8.78964E+03 -7.12000E+03 -3.42886E+03 -1.09342E+04  3.16736E+03 -7.69856E+03
  6.93794E+03 -3.47992E+03  4.66763E+03  1.80485E+03  5.21934E+02  2.81396E+03 -2.78073E+03 -4.06171E+01
 -3.45007E+03 -4.97896E+03 -2.51436E+02 -6.24581E+03  3.27147E+03 -7.35322E+03  9.51914E+03 -3.55215E+03
  1.07577E+04  2.17297E+02  7.67439E+03  6.14775E+03  1.53775E+03  7.57186E+03 -5.04178E+03  7.14451E+03
 -6.86877E+03  2.51603E+03 -3.09724E+03 -9.79275E+02  1.30473E+03 -1.49552E+03  4.75879E+03 -1.59997E+03
  3.69331E+03  3.13138E+03  5.70722E+02  5.25334E+03 -4.05628E+03  5.54679E+03 -7.80396E+03  1.31729E+03
 -4.92198E+03 -3.53190E+03  3.00892E+02 -5.98212E+03  3.76644E+03 -3.29501E+03  3.38765E+03  1.14782E+03
  3.58544E+02  1.96292E+03 -3.23068E+03  4.00865E+03 -4.08262E+03  1.99628E+03 -3.91413E+03 -1.25910E+03
 -2.31295E+03 -5.27683E+03  8.49299E+02 -6.32028E+03  5.12020E+03 -4.11139E+03  5.71270E+03  8.55123E+02
  4.00353E+03  4.37667E+03  1.98205E+02  6.66570E+03 -4.66348E+03  3.77554E+03 -4.58751E+03 -2.01113E+02
 -5.11356E+03 -4.52101E+03 -9.77498E+02 -4.75093E+03  2.42078E+03 -4.42116E+03  2.44062E+03 -2.47768E+03
  2.39439E+03  3.62252E+02 -1.52602E+02  1.46020E+03  9.98209E+02  2.74463E+02 -4.86470E+02 -1.16059E+03
  3.14404E+03 -4.02271E+02  4.15974E+03  5.82845E+02  4.94675E+03  2.65484E+03  4.79247E+03  5.82207E+03
 -7.41598E+02  8.01381E+03 -6.56628E+03  5.35657E+03 -8.31460E+03  8.85145E+02 -6.69829E+03 -2.06763E+03
 -3.57257E+03 -5.91584E+03 -6.27445E+02 -4.04225E+03  1.90358E+03 -1.75757E+03  1.34664E+03 -2.09416E+03
  8.20752E+02 -1.88258E+03  2.24093E+03 -2.36845E+03  3.16421E+03 -7.85959E+02  3.13858E+03  4.51551E+02
  4.01932E+03  9.94699E+02  1.39579E+03  2.81571E+03 -1.66895E+03  1.60336E+03 -4.03327E+03  1.84025E+03
 -4.36897E+03 -9.95678E+02 -1.50415E+03 -2.84192E+03  8.68928E+02 -4.18377E+03  2.45163E+03 -4.47553E+03
  4.16819E+03 -2.41494E+03  5.91685E+03  7.25405E+02  4.26545E+03  3.76228E+03  1.15875E+03  4.93771E+03
 -1.66345E+03  4.92698E+03 -2.76519E+03  1.52983E+03 -1.00112E+03 -1.15941E+03  1.07502E+02 -2.59904E+02
 -8.16771E+02  1.13581E+03 -5.96005E+02  2.10681E+03 -2.79140E+03  1.16816E+03 -3.60951E+03 -5.80414E+02
 -1.85850E+03 -3.05514E+03  7.17077E+02 -3.63061E+03  2.12857E+03 -3.70640E+03  2.64455E+03 -8.30660E+02
  3.44263E+03  2.54746E+03  1.87726E+03  2.94449E+03 -3.79791E+02  3.55299E+03 -2.01882E+03  1.77369E+03
 -3.01497E+03  5.06465E+02 -2.79172E+03 -2.02807E+03 -2.66811E+02 -3.04458E+03  1.00747E+03 -2.24556E+03
  2.48278E+03 -1.29138E+03  1.64459E+03  9.09178E+01  1.89374E+02  1.34311E+03  1.01270E+03  4.91138E+02
  1.57062E+03  6.41422E+02  5.53903E+02  7.83675E+02  7.94124E+02  1.25412E+03  7.55315E+02  1.20951E+03
 -1.38062E+03  2.34802E+03 -1.66225E+03  3.82285E+03 -1.80017E+03  7.87511E+02 -3.41721E+03 -2.98955E+02
 -1.60878E+03 -2.97235E+03  4.60008E+02 -3.71608E+03  1.00307E+03 -1.83696E+03  2.05864E+03 -6.90485E+02
  1.39397E+03  1.27816E+03  3.75806E+02  2.06899E+03 -1.80198E+02  9.97098E+02 -1.01895E+03 -4.49298E+01
 -5.43247E+02 -8.24286E+02  1.37723E+03 -1.07420E+03  5.68737E+02 -8.95214E+02  8.70204E+02 -7.19563E+01
  2.11107E+02  6.62830E+01  5.38707E+02  2.01158E+01 -5.85650E+02  6.86877E+02  1.21559E+03 -1.81823E+02
 -2.42428E+02 -2.80087E+02  1.79959E+03  5.47710E+02 -9.00566E+01  1.87787E+03 -5.29488E+02  2.09627E+03
 -1.17448E+03  7.06766E+02 -1.34641E+03 -3.75168E+01 -1.64132E+03 -3.66269E+02  4.76293E+02 -8.37690E+02
  6.80246E+01 -8.78620E+02  1.15668E+03 -4.35685E+02  7.97123E+02  1.04211E+03 -1.82287E+02  9.85356E+02
 -1.59768E+03  8.09483E+02 -4.68404E+02 -1.02216E+03 -7.94096E+02 -1.58050E+03  3.04075E+00 -1.55523E+03
  3.67442E+02 -3.29033E+02  5.92603E+02  3.52596E+02  9.51873E+02 -2.19877E+02  2.58039E+02  1.55463E+03
 -5.08746E+02 -1.45706E+02 -5.05544E+02 -5.29341E+02  1.11489E+03 -6.87431E+02  1.30713E+03 -7.72518E+02
  7.42117E+02  9.42257E+01  1.90832E+03  2.54645E+02  1.03790E+03  1.01286E+03 -2.42549E+02  1.14219E+03
 -8.23995E+02 -5.01787E+02 -8.84405E+02  1.74928E+02  4.43822E+01 -9.28069E+02  6.22518E+02 -9.78743E+02
  1.31931E+03 -5.65452E+02  3.03950E+02  1.22575E+03 -2.14237E+02  8.47608E+02  8.74419E+02  1.12260E+03
 -1.94284E+00  6.81953E+02 -4.89336E+02  3.76775E+01  4.65989E+02  2.36478E+02 -1.04280E+03  2.53546E+02
 -8.35429E+02  3.17843E+02 -1.69747E+03  1.08509E+02 -9.11210E+02 -5.00887E+02 -2.23221E+03 -8.15987E+02
 -5.81610E+02 -1.91603E+03  4.04896E+02 -1.88386E+03  8.88696E+02 -2.03308E+03  1.92485E+03 -2.05628E+02
  1.67431E+03 -4.73489E+02  4.85973E+02  4.80848E+02 -3.51448E+02  1.32901E+03 -1.91111E+02  1.01559E+03
 -7.52787E+02  4.63463E+02 -2.34539E+02 -3.86707E+02 -4.10252E+02  1.68468E+02 -3.38919E+02 -2.38194E+01
 -1.30251E+03  3.02891E+02 -4.46106E+02  4.03330E+02  8.84240E+01 -2.57374E+02 -5.52449E+02 -7.06788E+02
  4.77806E+02 -4.54618E+02 -1.76158E+02 -3.02004E+02  3.28015E+02  5.15644E+02 -7.65221E+02  4.74799E+02
 -2.64352E+02  1.13370E+03 -6.78027E+02  1.31825E+03 -1.27369E+03 -2.30889E+02 -1.23103E+03 -5.50907E+02
 -9.32833E+02 -1.16835E+03  4.22574E+02 -8.45168E+02  3.86814E+02 -7.43551E+02  3.28477E+02 -1.59519E+02
  6.61868E+02 -8.54444E+00  4.79907E+02 -1.86909E+02 -7.02965E+02 -1.09851E+02  3.06489E+02 -2.18114E+02
  1.38116E+02  6.04590E+02 -1.27446E+02  2.76719E+00 -1.81685E+02 -5.42735E+01  9.45859E+02 -3.14132E+02
 -1.64440E+02  3.10616E+02 -3.22607E+02  1.81367E+02 -4.61720E+02 -1.18729E+02  1.48847E+02 -1.22372E+03
  4.35639E+02 -4.10104E+02  6.33549E+01  2.89624E+02  2.96166E+02 -6.14275E+02  8.46442E+02  1.36615E+02
  2.86031E+02  6.70614E+02 -2.09217E+02  4.06808E+02 -3.50989E+02  1.58022E+02 -4.37609E+01  2.20410E+02
 -3.10315E+02 -6.64703E+01 -2.98813E+02 -4.16126E+02 -1.20032E+02  4.49772E+02 -3.95849E+02 -2.12518E+02
 -9.31352E+02  5.91378E+02 -7.78516E+02 -6.42503E+02  5.83929E+02 -9.87503E+02  2.54247E+02 -7.11520E+02
  5.73989E+02 -1.87496E+02 -5.47044E+02  1.71939E+02 -2.21455E+02  3.18893E+02 -4.40026E+02  3.42979E+02
