 $NMID ID='MM_0lb_SNR400_18hz_g40_83.RAW', FMTDAT='(8E13.5)'
 TRAMP=1., VOLUME=1. $END
  3.10033E+05  1.44973E+03  3.36877E+05  2.50621E+05  8.40319E+04  3.37084E+05 -1.32769E+05  2.50029E+05
 -1.89483E+05  8.20949E+04 -1.10843E+05 -3.32254E+04  1.32562E+03 -4.96427E+04  5.39642E+04  3.43609E+02
  3.51802E+04  5.27413E+04 -1.67469E+04  7.46277E+04 -6.02246E+04  6.22949E+04 -8.25526E+04  3.20780E+04
 -7.94487E+04 -1.13381E+04 -5.66758E+04 -5.02048E+04 -1.50361E+04 -6.83097E+04  2.65720E+04 -4.43471E+04
  3.96176E+04  4.08887E+03  1.54577E+04  4.67472E+04 -3.39855E+04  4.60322E+04 -6.54809E+04 -5.83761E+02
 -5.17814E+04 -5.57480E+04 -6.47088E+03 -7.45238E+04  3.31448E+04 -5.30251E+04  4.57912E+04 -1.67601E+04
  4.18251E+04  1.05915E+04  3.07799E+04  2.40657E+04  1.58627E+04  2.78964E+04 -4.32651E+03  2.62578E+04
 -2.15878E+04  1.31198E+04 -1.91229E+04 -4.08544E+03  4.52949E+03 -7.84446E+03  2.04327E+04  1.06437E+04
  7.08356E+03  3.31445E+04 -3.00695E+04  3.36281E+04 -6.08539E+04  2.34937E+03 -5.59066E+04 -4.15855E+04
 -1.19533E+04 -6.06480E+04  3.73321E+04 -4.24882E+04  5.53994E+04 -2.38202E+03  3.14868E+04  3.04313E+04
 -7.16758E+03  3.30833E+04 -2.82476E+04  1.31155E+04 -2.67745E+04 -5.46796E+03 -1.40517E+04 -9.94367E+03
 -7.19803E+03 -1.12124E+04 -1.20210E+03 -1.60840E+04  6.61714E+03 -2.22751E+04  1.44985E+04 -1.38233E+04
  1.23058E+04  4.49363E+03 -5.85036E+03  1.27589E+04 -1.93886E+04 -2.53497E+03 -7.86654E+03 -3.04334E+04
  2.07407E+04 -4.02972E+04  4.49022E+04 -1.85441E+04  4.16029E+04  1.84537E+04  1.40110E+04  4.13883E+04
 -1.54444E+04  3.09768E+04 -2.29021E+04  1.18156E+03 -8.28553E+03 -2.63293E+04  2.06222E+04 -3.13600E+04
  3.70979E+04 -6.98450E+03  3.10009E+04  2.27970E+04  1.53288E+04  4.24270E+04 -7.92710E+03  4.46561E+04
 -2.79948E+04  2.95825E+04 -3.68486E+04  8.37677E+03 -3.80567E+04 -1.49144E+04 -2.15191E+04 -3.42608E+04
  7.29660E+03 -3.38072E+04  2.87932E+04 -1.25150E+04  2.65222E+04  1.10500E+04  2.68308E+03  1.80159E+04
 -1.26823E+04  7.17313E+03 -9.50802E+03 -7.19031E+03  5.35283E+03 -9.45396E+03  1.70350E+04  6.64754E+03
  1.21155E+04  2.13120E+04 -6.66605E+03  2.31305E+04 -2.12030E+04  8.96118E+03 -2.51076E+04 -6.30509E+03
 -1.67881E+04 -1.61406E+04 -5.79705E+03 -1.62885E+04  3.96446E+03 -1.41356E+04  1.21877E+04 -1.48408E+04
  2.11022E+04 -1.18797E+04  2.75939E+04  8.58338E+02  2.08941E+04  1.59331E+04  4.36947E+03  3.19287E+04
 -1.58683E+04  2.76924E+04 -2.54198E+04  9.56649E+03 -2.00283E+04 -1.08588E+04 -3.69286E+03 -1.39345E+04
  2.53772E+03 -4.06124E+03 -2.00503E+03  4.98822E+03 -1.19497E+04  4.93723E+03 -1.29678E+04 -4.60447E+03
 -8.18117E+03 -1.48736E+04  4.25231E+03 -1.94777E+04  1.22611E+04 -1.35472E+04  1.46815E+04 -2.14083E+03
  9.48699E+03  1.03557E+04 -5.77348E+02  1.53446E+04 -1.08174E+04  8.42215E+03 -1.55391E+04 -3.62419E+03
 -1.12081E+04 -1.42192E+04 -1.17393E+03 -1.87991E+04  9.09152E+03 -1.53504E+04  1.58937E+04 -7.54925E+03
  1.40555E+04  4.82043E+02  1.11704E+04  4.06635E+03  5.34554E+03  4.41253E+02  7.28682E+03 -9.34748E+02
  1.37608E+04  2.98429E+03  1.45863E+04  1.23875E+04  8.84662E+03  2.44143E+04 -2.49169E+03  2.63378E+04
 -1.56426E+04  2.01665E+04 -2.37022E+04  9.99842E+03 -2.48447E+04 -1.53897E+03 -2.11212E+04 -1.40141E+04
 -1.03243E+04 -2.03679E+04  6.17627E+03 -1.93249E+04  1.62473E+04 -1.06464E+04  1.51284E+04  3.68983E+03
  6.58910E+03  1.10676E+04 -6.76299E+03  1.04141E+04 -1.34566E+04  2.37436E+03 -1.06098E+04 -8.20475E+03
 -7.23812E+01 -1.22064E+04  6.11551E+03 -8.76273E+03  7.78131E+03 -1.11157E+03  1.23007E+03  4.98173E+03
 -5.57931E+03  1.15379E+03 -3.88094E+03 -4.79906E+03  8.38401E+02 -1.02175E+04  7.84135E+03 -9.78938E+03
  1.21080E+04 -4.59713E+03  1.22694E+04  2.21286E+03  1.01537E+04  9.73944E+03  5.74418E+03  1.35019E+04
 -1.64842E+03  1.55701E+04 -9.86468E+03  9.71531E+03 -1.02449E+04  3.07930E+03 -8.00451E+03 -1.94400E+03
 -4.62651E+03 -3.04134E+03 -9.52585E+02  1.26146E+03 -1.91218E+03  1.84969E+03 -3.43522E+03  3.67945E+03
 -8.06017E+03 -4.63037E+02 -8.31444E+03 -6.74431E+03 -3.81143E+03 -1.19867E+04  3.57598E+03 -8.30773E+03
  7.17252E+03 -3.74411E+03  4.78151E+03  1.83183E+03  1.19941E+03  3.32193E+03 -2.69433E+03 -9.33614E+01
 -3.13836E+03 -4.75792E+03 -1.07743E+03 -7.49828E+03  3.57993E+03 -7.98827E+03  9.45609E+03 -4.21162E+03
  1.14701E+04  6.12333E+02  9.54719E+03  5.67623E+03  1.29231E+03  8.40096E+03 -5.83861E+03  8.60145E+03
 -6.30025E+03  3.11175E+03 -3.39564E+03 -1.22919E+03  1.38184E+03 -2.39713E+03  4.60079E+03 -9.00907E+02
  4.23652E+03  3.75117E+03  1.16515E+03  6.64781E+03 -4.08370E+03  6.54915E+03 -8.24228E+03  1.40174E+03
 -5.38142E+03 -3.60801E+03 -3.04737E+02 -6.77157E+03  3.67497E+03 -3.48276E+03  3.67801E+03  7.74639E+02
  3.98971E+02  3.39192E+03 -4.57977E+03  4.69425E+03 -4.69019E+03  2.30960E+03 -4.48323E+03 -1.19956E+03
 -2.27229E+03 -6.42126E+03  1.18663E+03 -7.09560E+03  5.91611E+03 -4.50494E+03  6.00674E+03  8.85924E+02
  4.67873E+03  5.58332E+03  1.90894E+02  7.02745E+03 -5.37735E+03  4.16624E+03 -5.23872E+03 -4.01077E+02
 -5.87307E+03 -5.10170E+03 -1.36754E+03 -4.97319E+03  2.58292E+03 -4.81724E+03  3.61137E+03 -2.65522E+03
  2.35497E+03  3.36925E+02  2.27938E+02  9.25639E+02  4.29011E+02  1.90622E+02  3.22057E+02 -1.78722E+03
  4.62058E+03 -1.15598E+03  5.49947E+03  2.70255E+02  5.92037E+03  3.26001E+03  5.86652E+03  6.99891E+03
 -1.43794E+03  8.45873E+03 -7.50406E+03  6.56892E+03 -1.01640E+04  1.05393E+03 -7.61488E+03 -3.00981E+03
 -3.88687E+03 -6.54741E+03 -3.41055E+01 -5.23889E+03  1.96842E+03 -2.41376E+03  1.88910E+03 -1.99642E+03
  5.54769E+02 -1.74195E+03  2.14109E+03 -2.08369E+03  3.79782E+03 -1.47299E+03  3.66086E+03  1.69482E+02
  4.25389E+03  8.43190E+02  1.22144E+03  3.35669E+03 -1.60692E+03  2.71850E+03 -4.30937E+03  2.83765E+03
 -4.73571E+03 -1.65914E+03 -2.19103E+03 -3.90682E+03  9.76698E+02 -4.92588E+03  3.37135E+03 -5.34995E+03
  5.21240E+03 -3.44468E+03  6.99604E+03  7.44130E+01  5.05131E+03  4.67627E+03  3.08793E+02  6.14005E+03
 -2.35783E+03  5.98565E+03 -3.33693E+03  2.24876E+03 -1.75876E+03 -1.00450E+03 -3.96317E+02 -1.06420E+02
 -5.08508E+02  2.94200E+02 -1.11937E+03  2.23745E+03 -2.80169E+03  9.08164E+02 -4.46683E+03 -6.19615E+02
 -1.07306E+03 -3.98777E+03  4.28238E+02 -4.67407E+03  2.91136E+03 -3.89034E+03  3.83069E+03 -7.21513E+02
  3.68932E+03  2.57711E+03  1.85965E+03  3.37988E+03 -9.75186E+02  4.61219E+03 -2.86662E+03  3.05040E+03
 -3.56305E+03  7.88164E+02 -3.52625E+03 -2.51390E+03  3.02030E-01 -3.09828E+03  1.64971E+03 -2.91250E+03
  2.69860E+03 -1.43035E+03  1.70420E+03  7.25004E+02 -5.70022E+00  2.25169E+03  1.01566E+03  1.00435E+03
  1.41563E+03  7.86030E+02  1.20984E+03  8.57731E+02  1.40553E+03  2.32955E+03  1.79862E+03  1.65118E+03
 -1.16957E+03  3.22804E+03 -3.06212E+03  3.95050E+03 -3.10288E+03  1.37863E+03 -4.58364E+03 -3.72304E+02
 -1.47339E+03 -3.98387E+03  8.08730E+02 -5.07204E+03  2.30103E+03 -2.51315E+03  2.93227E+03 -7.93873E+02
  3.17630E+03  2.49778E+03 -3.23285E+01  2.36378E+03 -5.98912E+02  1.15715E+03 -1.36611E+03 -4.53653E+02
 -9.06877E+02 -1.88436E+03  3.37587E+02 -1.81872E+03  1.13197E+03 -8.23048E+02  1.49951E+03 -6.40895E+01
  1.02052E+03  4.16833E+02  7.75561E+02  1.18259E+02 -4.66333E+02  7.08683E+02  1.64993E+03  7.40794E+01
 -1.09727E+02  4.50632E+02  1.91783E+03  1.27687E+03  9.10900E+02  2.17830E+03  1.48177E+02  2.78367E+03
 -2.03005E+03  9.96119E+02 -2.01941E+03  1.44775E+02 -2.00030E+03 -7.19583E+02 -5.44733E+02 -1.01391E+03
  2.94950E+02 -1.55291E+03  4.43348E+02 -8.21091E+02  5.09219E+02  1.22513E+03 -7.76604E+02  1.11765E+03
 -1.20961E+03  3.42347E+02 -9.13197E+02 -1.17962E+03 -9.64379E+02 -2.34540E+03  3.74869E+02 -1.73204E+03
  4.82227E+02 -6.20342E+02  9.19275E+02  6.34156E+02  1.49777E+03  2.52451E+01  5.10603E+02  1.77042E+03
 -2.90050E+02  1.09150E+02 -7.99266E+02 -4.24038E+02  1.16442E+03 -6.90268E+02  2.52311E+03 -1.37508E+03
  1.60234E+03  6.85348E+01  3.23661E+03  6.09891E+02  1.22470E+03  1.61336E+03 -1.77244E+02  1.95713E+03
 -1.60754E+03 -3.61180E+01 -2.09570E+03 -2.03586E+02 -1.41340E+03 -8.44356E+02  1.98360E+02 -9.52340E+02
  1.50323E+03 -3.79669E+02  1.04390E+03  3.69669E+02  2.96833E+02  1.59063E+03  1.38832E+02  1.43965E+03
 -4.33252E+02  7.83879E+02 -3.39774E+02 -2.30557E+02  3.82164E+02  5.67657E+02 -2.79116E+02  8.57552E+02
 -7.58498E+02  1.17104E+03 -2.02806E+03  4.35176E+02 -1.70421E+03  9.00187E+02 -2.77049E+03 -1.08417E+03
 -8.86716E+02 -2.32438E+03  7.85477E+02 -3.33097E+03  1.67241E+03 -2.56883E+03  3.04826E+03 -9.77323E+02
  2.74997E+03 -1.68078E+02  1.71032E+03  1.84712E+03 -1.15788E+01  1.61921E+03 -6.06443E+02  1.64190E+03
 -5.44174E+02  4.42766E+02 -4.75636E+02  6.87931E+01 -1.23049E+02 -9.66682E+01 -6.97235E+02 -2.32531E+02
 -1.57655E+03 -5.72782E+01 -6.68706E+02 -4.68284E+02  4.89253E+02 -2.52065E+02 -6.41892E+02 -1.06238E+03
  1.35915E+03 -2.53359E+02  1.20894E+02 -4.78071E+02  1.78528E+03  1.05346E+03 -3.91766E+01  1.65478E+03
 -3.95859E+02  2.53232E+03 -1.87658E+03  1.90031E+03 -1.84896E+03 -1.64468E+01 -1.82882E+03 -1.16154E+03
 -9.67810E+02 -1.56113E+03 -1.20846E+02 -1.16638E+03  9.70383E+02 -1.03473E+03  5.81818E+02  7.37911E+02
  7.50416E+02  5.53189E+02 -1.09883E+02  1.99354E+02 -4.32614E+02 -1.88233E+02  8.84552E+02 -2.33904E+02
  3.97224E+02  4.26969E+02  2.26246E+02  2.16431E+02  4.65291E+02  9.79438E+02  3.49011E+02  2.25995E+02
 -9.10745E+02  9.45081E+02 -7.61035E+02  2.71268E+02 -8.76813E+02 -1.25220E+02 -1.52536E+02 -1.10321E+03
  3.52240E+02 -1.15907E+03  1.04658E+02  3.37093E+02  1.17689E+03 -5.23796E+02  1.87001E+02  1.12963E+03
  2.15131E+02  5.14395E+02 -8.72847E+02  5.34499E+02 -7.30340E+02  9.41122E+02 -9.15945E+02  4.65196E+02
 -3.11498E+02 -4.20258E+02 -9.63797E+02  2.16988E+02 -7.26668E+02 -3.47977E+02 -8.85000E+02 -4.99339E+02
 -4.00498E+02  1.31646E+02 -6.82594E+02 -1.28436E+03  1.17322E+03 -1.67520E+03  6.50218E+02 -4.16924E+02
  7.63355E+02  4.21690E+02 -3.86230E+02  3.13309E+02 -1.38717E+02  9.80968E+02 -2.59907E+02  9.25510E+02
