 $NMID ID='MM_0lb_SNR400_14hz_g45_32.RAW', FMTDAT='(8E13.5)'
 TRAMP=1., VOLUME=1. $END
  3.09018E+05  1.23659E+03  3.37308E+05  2.50768E+05  8.48621E+04  3.38705E+05 -1.32626E+05  2.51148E+05
 -1.89917E+05  8.28190E+04 -1.11431E+05 -3.26417E+04  9.50919E+02 -5.06555E+04  5.40411E+04 -9.21275E+01
  3.52942E+04  5.29750E+04 -1.68200E+04  7.52772E+04 -6.09306E+04  6.36667E+04 -8.37612E+04  3.26159E+04
 -8.06484E+04 -1.14448E+04 -5.66871E+04 -5.12259E+04 -1.53355E+04 -6.94880E+04  2.71746E+04 -4.62509E+04
  3.99942E+04  3.63945E+03  1.64972E+04  4.72953E+04 -3.41786E+04  4.73858E+04 -6.68716E+04 -2.18709E+02
 -5.33516E+04 -5.67751E+04 -7.09100E+03 -7.70564E+04  3.46200E+04 -5.48610E+04  4.74738E+04 -1.74258E+04
  4.25801E+04  1.17482E+04  3.13961E+04  2.53067E+04  1.54146E+04  2.94863E+04 -5.36978E+03  2.73970E+04
 -2.23294E+04  1.15918E+04 -1.86563E+04 -5.06663E+03  4.78750E+03 -7.87094E+03  2.21355E+04  1.22160E+04
  7.26465E+03  3.47041E+04 -3.28033E+04  3.53516E+04 -6.30104E+04  2.00247E+03 -5.73353E+04 -4.21219E+04
 -1.32373E+04 -6.30254E+04  3.94473E+04 -4.46827E+04  5.81647E+04 -1.77181E+03  3.34888E+04  3.22109E+04
 -5.79088E+03  3.57163E+04 -2.93189E+04  1.51906E+04 -3.03061E+04 -4.19482E+03 -1.68227E+04 -1.06570E+04
 -8.54038E+03 -1.29830E+04 -6.56246E+02 -1.77958E+04  7.32657E+03 -2.26985E+04  1.58060E+04 -1.37575E+04
  1.11392E+04  5.18654E+03 -8.25443E+03  1.23589E+04 -2.07367E+04 -3.94498E+03 -8.71240E+03 -3.40757E+04
  2.24239E+04 -4.29221E+04  4.78365E+04 -1.95841E+04  4.43388E+04  1.92487E+04  1.54197E+04  4.37165E+04
 -1.60748E+04  3.35507E+04 -2.47744E+04  1.97545E+03 -9.22339E+03 -2.79797E+04  2.08149E+04 -3.34577E+04
  4.05231E+04 -9.06291E+03  3.56948E+04  2.35528E+04  1.84670E+04  4.60052E+04 -7.77612E+03  5.01964E+04
 -3.16215E+04  3.30731E+04 -4.15627E+04  9.73683E+03 -4.27312E+04 -1.68386E+04 -2.31982E+04 -3.77796E+04
  7.13223E+03 -3.71978E+04  3.11460E+04 -1.49781E+04  2.88574E+04  1.09931E+04  4.15082E+03  1.83176E+04
 -1.34793E+04  7.80847E+03 -1.02889E+04 -7.80649E+03  6.03410E+03 -1.08237E+04  1.79061E+04  5.77735E+03
  1.33517E+04  2.20987E+04 -6.95582E+03  2.47636E+04 -2.24910E+04  1.11203E+04 -2.78496E+04 -4.33453E+03
 -1.98917E+04 -1.75025E+04 -8.03448E+03 -1.99579E+04  3.72833E+03 -1.90666E+04  1.55057E+04 -1.79527E+04
  2.55769E+04 -1.31030E+04  3.17501E+04  2.60668E+03  2.35807E+04  1.92300E+04  3.75115E+03  3.63976E+04
 -1.77448E+04  3.01507E+04 -2.77416E+04  1.08172E+04 -2.05300E+04 -1.08766E+04 -4.44004E+03 -1.34201E+04
  1.89256E+03 -2.88930E+03 -5.18229E+03  6.37343E+03 -1.59041E+04  5.65111E+03 -1.62444E+04 -6.24550E+03
 -9.47425E+03 -1.86185E+04  5.36252E+03 -2.27262E+04  1.49192E+04 -1.64403E+04  1.74180E+04 -1.88665E+03
  1.06101E+04  1.35105E+04 -1.39173E+03  1.88913E+04 -1.27139E+04  1.01755E+04 -1.87742E+04 -3.51333E+03
 -1.37037E+04 -1.71833E+04 -2.08091E+03 -2.29862E+04  1.02917E+04 -1.82358E+04  1.85822E+04 -8.89917E+03
  1.76114E+04  5.76910E+02  1.35888E+04  4.17729E+03  6.00582E+03  7.51912E+02  9.16253E+03 -1.41096E+03
  1.81144E+04  2.17793E+03  1.90154E+04  1.46784E+04  1.27534E+04  3.04225E+04 -2.37955E+03  3.33121E+04
 -2.01930E+04  2.71301E+04 -3.09569E+04  1.30784E+04 -3.34040E+04 -2.76977E+03 -2.68571E+04 -1.93830E+04
 -1.21281E+04 -2.71933E+04  9.34303E+03 -2.40107E+04  2.09362E+04 -1.27194E+04  1.93225E+04  5.58739E+03
  7.07555E+03  1.39772E+04 -9.38545E+03  1.24075E+04 -1.54938E+04  2.84715E+03 -1.21713E+04 -9.70167E+03
 -3.22579E+01 -1.47611E+04  7.03200E+03 -1.08279E+04  9.58988E+03 -1.42278E+03  1.46463E+03  6.29357E+03
 -6.93943E+03  2.91027E+03 -5.90636E+03 -5.45460E+03  2.42495E+02 -1.34163E+04  9.37805E+03 -1.35432E+04
  1.63300E+04 -6.85264E+03  1.70780E+04  2.80822E+03  1.51601E+04  1.25666E+04  7.32684E+03  2.04768E+04
 -3.07965E+03  2.20421E+04 -1.35827E+04  1.33593E+04 -1.54609E+04  2.94821E+03 -1.10295E+04 -3.34751E+03
 -4.77334E+03 -5.02152E+03 -3.79216E+02  1.21686E+03 -2.05836E+03  3.18624E+03 -5.21547E+03  4.37304E+03
 -1.04342E+04  1.23040E+01 -1.14363E+04 -9.14914E+03 -4.39351E+03 -1.47716E+04  4.56361E+03 -1.15344E+04
  9.64894E+03 -4.51305E+03  7.11448E+03  2.39169E+03  2.99259E+02  4.78742E+03 -5.09405E+03  1.17051E+03
 -4.99232E+03 -6.75386E+03 -8.05843E+02 -1.08433E+04  5.95317E+03 -1.16136E+04  1.34796E+04 -6.03737E+03
  1.58092E+04  9.52256E+02  1.18593E+04  8.84400E+03  2.20038E+03  1.27624E+04 -6.85265E+03  1.06077E+04
 -8.83450E+03  3.03590E+03 -4.24443E+03 -2.03010E+03  1.39742E+03 -3.06458E+03  5.74380E+03 -7.62713E+02
  4.84336E+03  4.81757E+03  1.12404E+03  8.51303E+03 -6.04042E+03  9.09648E+03 -1.03581E+04  2.39651E+03
 -6.94730E+03 -5.34209E+03 -3.78217E+02 -9.25494E+03  5.34139E+03 -4.44723E+03  5.52702E+03  1.29862E+03
  8.72247E+02  5.44132E+03 -5.79054E+03  6.55310E+03 -8.20303E+03  3.48188E+03 -8.10958E+03 -2.17649E+03
 -5.10414E+03 -9.57016E+03  2.16922E+03 -1.09143E+04  9.09234E+03 -7.09467E+03  1.00671E+04  1.81144E+03
  6.59766E+03  8.63357E+03 -1.29083E+02  1.05842E+04 -7.38982E+03  6.52169E+03 -7.71225E+03 -5.99800E+02
 -7.82755E+03 -7.00899E+03 -2.00806E+03 -7.40581E+03  4.38774E+03 -6.40267E+03  4.62982E+03 -3.25835E+03
  3.40977E+03  7.68684E+02 -1.37813E+02  9.20352E+02  6.68141E+02 -1.80685E+03  6.11732E+02 -3.07843E+03
  6.32727E+03 -1.58172E+03  9.23537E+03  2.74659E+02  9.10744E+03  5.86913E+03  6.90438E+03  1.20584E+04
 -2.69846E+03  1.39983E+04 -1.22420E+04  1.02990E+04 -1.55541E+04  1.83970E+03 -1.24583E+04 -5.22828E+03
 -6.96859E+03 -9.88197E+03  9.48783E+01 -8.57066E+03  3.71489E+03 -4.55904E+03  2.56793E+03 -3.30431E+03
  1.84201E+03 -2.44187E+03  2.87894E+03 -3.17915E+03  4.52901E+03 -2.20953E+03  5.18992E+03 -2.93860E+02
  7.04657E+03  2.01392E+03  2.98173E+03  5.08879E+03 -2.06008E+03  5.85525E+03 -6.91284E+03  3.89120E+03
 -8.09575E+03 -1.79060E+03 -4.30437E+03 -5.88947E+03 -1.33166E+02 -8.51238E+03  4.52843E+03 -8.83008E+03
  8.84193E+03 -5.24740E+03  1.15676E+04  1.12663E+03  7.51653E+03  7.70061E+03  1.83187E+03  1.04909E+04
 -4.19247E+03  9.32827E+03 -6.01911E+03  2.97400E+03 -3.42327E+03 -1.19360E+03 -2.38051E+03 -1.73647E+03
 -9.50316E+02  4.40791E+02 -1.25456E+03  2.17945E+03 -3.27520E+03  9.98094E+02 -6.17718E+03 -3.01679E+02
 -3.30037E+03 -6.30028E+03  4.09658E+02 -8.00914E+03  4.60001E+03 -7.65847E+03  7.48933E+03 -2.21070E+03
  7.71433E+03  4.21481E+03  3.27810E+03  6.19879E+03 -1.71543E+03  8.46591E+03 -5.00949E+03  4.68450E+03
 -6.91862E+03  5.52757E+02 -5.90241E+03 -4.64839E+03 -5.12673E+02 -5.70556E+03  3.05210E+03 -4.56855E+03
  4.62568E+03 -2.05370E+03  3.74999E+03  9.73757E+02  9.71523E+02  2.87552E+03  9.20117E+02  1.11330E+03
  2.12782E+03  5.89789E+02  2.48777E+03  1.42652E+03  1.68780E+03  3.40187E+03  2.44006E+03  3.13406E+03
 -1.75792E+03  6.06869E+03 -5.33359E+03  6.81860E+03 -7.22931E+03  1.62348E+03 -7.46102E+03 -2.03762E+03
 -3.54281E+03 -7.55055E+03  1.53789E+03 -8.59220E+03  4.58769E+03 -5.53085E+03  6.44591E+03 -1.92872E+03
  4.91985E+03  2.48773E+03  6.26353E+02  4.07191E+03 -1.60661E+03  2.69235E+03 -2.33481E+03 -5.04439E+02
 -1.16692E+03 -3.07894E+03  1.51050E+03 -2.76062E+03  2.43391E+03 -1.50446E+03  3.58407E+03  1.13557E+03
  1.99838E+03  1.11356E+03  1.50679E+03  1.04180E+02 -1.22652E+02  8.87514E+02  1.71334E+03 -6.92145E+02
  4.97350E+02 -7.12120E+01  3.18163E+03  1.08224E+03  5.95238E+02  4.02924E+03 -1.04859E+01  5.99099E+03
 -3.22629E+03  3.01311E+03 -4.32250E+03  5.54932E+02 -3.91227E+03 -1.81657E+03 -7.42328E+02 -2.98084E+03
  1.43613E+02 -2.38885E+03  2.17213E+03 -1.50125E+03  7.91408E+02  1.34880E+03 -6.71500E+02  2.25283E+03
 -2.92299E+03  1.23956E+03 -2.81303E+03 -2.12723E+03 -1.41528E+03 -3.76517E+03  8.53101E+02 -3.55235E+03
  2.03874E+03 -2.55158E+03  2.42821E+03 -3.03860E+02  2.60728E+03  3.37883E+02 -3.88662E+01  2.29818E+03
 -1.25312E+03  6.63590E+02 -1.93127E+03 -1.47277E+03  9.99612E+02 -2.80556E+03  2.91016E+03 -2.36184E+03
  3.85895E+03  3.38555E+01  4.82476E+03  2.67326E+03  1.47283E+03  4.40812E+03 -1.10298E+03  4.08421E+03
 -2.71192E+03  1.54705E+03 -3.54019E+03 -4.78053E+02 -1.94428E+03 -2.83839E+03  1.80655E+02 -2.28584E+03
  2.76028E+03 -1.36663E+03  1.79521E+03  1.46561E+03  1.18148E+03  2.61045E+03 -1.73559E+02  2.62955E+03
 -6.89563E+02  1.47220E+03 -8.20800E+02  6.72046E+01  4.36073E+02  6.48915E+02 -1.42346E+03  1.06056E+03
 -9.84376E+02  1.94694E+03 -3.32461E+03  9.25939E+02 -4.26754E+03  5.18790E+02 -4.79988E+03 -2.54901E+03
 -2.32573E+03 -5.46766E+03  1.56856E+03 -5.60639E+03  3.27219E+03 -5.20946E+03  6.22468E+03 -1.63654E+03
  5.37594E+03  1.11406E+03  3.06734E+03  3.93941E+03 -5.16336E+02  3.53948E+03 -1.12338E+03  3.03214E+03
 -2.08488E+03  1.15553E+03 -1.43583E+03  4.51305E+01 -8.53005E+02  1.59034E+02 -1.05561E+03  1.89655E+02
 -1.43121E+03 -3.00639E+01 -1.52610E+03  5.06389E+01  2.01990E+02 -1.42394E+03 -1.29402E+01 -2.00735E+03
  1.94314E+03 -1.36603E+03  2.00410E+03 -4.70454E+01  2.78339E+03  2.49396E+03  5.06583E+02  3.76296E+03
 -1.81192E+03  4.57903E+03 -4.43229E+03  2.75877E+03 -3.68960E+03 -4.47902E+02 -3.32399E+03 -3.26302E+03
 -1.27625E+03 -4.31772E+03  8.22113E+02 -3.73908E+03  1.75278E+03 -1.59028E+03  2.21378E+03  6.06765E+02
  1.50709E+03  5.90879E+02 -5.32364E+01  1.32492E+03 -9.10748E+02  3.68480E+01  2.11770E+02 -9.96995E+02
  1.56803E+03 -4.51877E+02  1.36058E+03  1.10190E+03  8.37589E+02  1.10586E+03 -2.14081E+02  1.87801E+03
 -1.96079E+03  1.99616E+03 -2.46427E+03  8.98331E+02 -1.80388E+03 -1.54584E+03  5.38400E+02 -3.45480E+03
  2.10120E+03 -2.71049E+03  3.20321E+03  7.38036E+01  2.39597E+03 -2.65627E+02  1.06145E+03  2.06111E+03
  5.99661E+02  1.62338E+03 -6.17035E+02  1.99354E+03 -1.55363E+03  1.06302E+03 -8.45650E+02  5.54040E+02
 -4.80524E+02 -2.20672E+02 -7.83711E+02 -2.66651E+02 -1.51488E+03 -1.12975E+02 -1.95282E+03 -5.49771E+02
 -2.55001E+03 -6.30689E+02 -1.60763E+03 -2.26500E+03  6.99979E+02 -3.36059E+03  2.44480E+03 -1.08335E+03
  2.59196E+03  2.23504E+02  6.68378E+02  1.59863E+03 -2.16129E+01  2.22966E+03 -1.08716E+03  1.76531E+03
