 $NMID ID='MM_0lb_SNR400_9hz_g45_39.RAW', FMTDAT='(8E13.5)'
 TRAMP=1., VOLUME=1. $END
  3.09745E+05  3.89453E+02  3.38103E+05  2.51562E+05  8.46436E+04  3.38373E+05 -1.33039E+05  2.50823E+05
 -1.90374E+05  8.34914E+04 -1.12744E+05 -3.22319E+04  2.68405E+02 -5.10312E+04  5.34433E+04 -6.24662E+02
  3.54604E+04  5.38967E+04 -1.67151E+04  7.58636E+04 -6.07634E+04  6.43177E+04 -8.57833E+04  3.21776E+04
 -8.14394E+04 -1.15436E+04 -5.76126E+04 -5.20376E+04 -1.52460E+04 -7.14664E+04  2.72527E+04 -4.57234E+04
  4.10181E+04  3.59881E+03  1.65040E+04  4.88173E+04 -3.54915E+04  4.81102E+04 -6.75926E+04  1.31304E+02
 -5.53053E+04 -5.75022E+04 -6.88052E+03 -7.85448E+04  3.42507E+04 -5.74364E+04  5.06959E+04 -1.82861E+04
  4.46921E+04  1.11539E+04  3.27420E+04  2.63915E+04  1.52687E+04  3.09680E+04 -6.35508E+03  2.73203E+04
 -2.20150E+04  1.21791E+04 -1.86374E+04 -5.27594E+03  7.03293E+03 -7.93220E+03  2.36781E+04  1.34375E+04
  7.66518E+03  3.76268E+04 -3.37348E+04  3.65297E+04 -6.46088E+04  2.46802E+03 -5.77988E+04 -4.44185E+04
 -1.26586E+04 -6.63411E+04  4.20401E+04 -4.72921E+04  6.08349E+04 -2.58334E+03  3.58207E+04  3.43599E+04
 -5.20248E+03  3.90559E+04 -3.17268E+04  1.86492E+04 -3.33049E+04 -3.77446E+03 -1.93480E+04 -1.21198E+04
 -9.93219E+03 -1.53327E+04 -8.42989E+02 -1.93073E+04  7.87276E+03 -2.25184E+04  1.63923E+04 -1.31921E+04
  1.03305E+04  6.68697E+03 -9.70274E+03  1.26088E+04 -2.24570E+04 -6.25834E+03 -8.92467E+03 -3.69161E+04
  2.47380E+04 -4.57577E+04  5.15242E+04 -2.01641E+04  4.88604E+04  1.97191E+04  1.78459E+04  4.63573E+04
 -1.68274E+04  3.60712E+04 -2.71996E+04  1.76434E+03 -1.18710E+04 -2.97199E+04  2.19195E+04 -3.60559E+04
  4.48371E+04 -1.06839E+04  3.93781E+04  2.54821E+04  2.06874E+04  5.05192E+04 -7.99885E+03  5.54320E+04
 -3.54028E+04  3.78500E+04 -4.78019E+04  1.14700E+04 -4.72923E+04 -1.80952E+04 -2.59433E+04 -4.21477E+04
  8.09726E+03 -4.17376E+04  3.42565E+04 -1.59765E+04  3.22156E+04  1.15813E+04  4.77761E+03  2.15679E+04
 -1.38358E+04  8.70945E+03 -1.04792E+04 -8.27716E+03  6.02671E+03 -1.15636E+04  1.76684E+04  4.95306E+03
  1.40759E+04  2.25318E+04 -4.63554E+03  2.69343E+04 -2.34044E+04  1.40296E+04 -3.08713E+04 -2.65370E+03
 -2.46424E+04 -1.82653E+04 -1.09166E+04 -2.51833E+04  4.95247E+03 -2.55053E+04  1.91688E+04 -2.23193E+04
  3.14098E+04 -1.34098E+04  3.71742E+04  4.60547E+03  2.72860E+04  2.33921E+04  4.40732E+03  4.19595E+04
 -1.95647E+04  3.38214E+04 -3.03282E+04  1.11110E+04 -2.19803E+04 -1.05632E+04 -4.67433E+03 -1.23948E+04
  1.41166E+03 -1.61599E+03 -7.08951E+03  8.51226E+03 -1.90997E+04  4.76712E+03 -1.96905E+04 -8.98033E+03
 -1.18896E+04 -2.30657E+04  6.06271E+03 -2.73721E+04  1.79434E+04 -1.97319E+04  2.12846E+04 -1.77214E+03
  1.43541E+04  1.60925E+04 -1.17825E+03  2.32768E+04 -1.57321E+04  1.35358E+04 -2.31755E+04 -5.03821E+03
 -1.68448E+04 -2.01475E+04 -2.35333E+03 -2.78004E+04  1.19987E+04 -2.36331E+04  2.35016E+04 -1.23860E+04
  2.20200E+04  1.94912E+02  1.55698E+04  5.13748E+03  7.59707E+03  1.43753E+03  1.18757E+04 -2.36346E+03
  2.13608E+04  3.23800E+03  2.48862E+04  1.77020E+04  1.67039E+04  3.67574E+04 -2.88716E+03  4.29239E+04
 -2.53796E+04  3.68625E+04 -4.06299E+04  1.81462E+04 -4.31651E+04 -3.38869E+03 -3.54478E+04 -2.57786E+04
 -1.37393E+04 -3.64192E+04  1.32571E+04 -3.16354E+04  2.69203E+04 -1.55353E+04  2.50028E+04  7.80388E+03
  7.52989E+03  1.81962E+04 -1.12926E+04  1.52068E+04 -2.08776E+04  3.13871E+03 -1.54868E+04 -1.24589E+04
  1.77775E+02 -1.80922E+04  1.03214E+04 -1.45306E+04  1.29779E+04 -1.97880E+03  3.47819E+03  8.68935E+03
 -7.73372E+03  4.56373E+03 -8.59371E+03 -6.44001E+03 -2.19822E+03 -1.71872E+04  1.14565E+04 -2.00375E+04
  2.24995E+04 -1.14002E+04  2.54285E+04  4.19244E+03  2.24299E+04  1.75776E+04  9.67126E+03  2.87637E+04
 -5.30119E+03  3.01992E+04 -1.97716E+04  1.93688E+04 -2.22835E+04  3.27807E+03 -1.54240E+04 -5.70355E+03
 -6.28548E+03 -6.85195E+03 -1.41861E+02  6.54260E+02 -3.52236E+03  4.22206E+03 -7.39608E+03  5.65204E+03
 -1.39718E+04 -9.43772E+02 -1.48964E+04 -1.17081E+04 -6.01927E+03 -1.89746E+04  6.27405E+03 -1.57798E+04
  1.25004E+04 -6.88266E+03  8.64180E+03  3.84784E+03 -1.05478E+02  5.18876E+03 -7.44515E+03 -4.05283E+02
 -7.56073E+03 -1.05093E+04 -1.50585E+03 -1.55184E+04  8.94938E+03 -1.64368E+04  1.98462E+04 -8.44287E+03
  2.29572E+04  1.74449E+03  1.70716E+04  1.34699E+04  2.98952E+03  1.87084E+04 -9.94719E+03  1.45711E+04
 -1.18554E+04  4.87753E+03 -5.95201E+03 -3.09916E+03  1.88454E+03 -4.55475E+03  7.72296E+03 -7.64665E+02
  7.27365E+03  7.11496E+03  1.51295E+03  1.20251E+04 -8.66887E+03  1.27351E+04 -1.52919E+04  2.59818E+03
 -1.02531E+04 -7.90084E+03  1.36809E+03 -1.37051E+04  8.44291E+03 -6.20719E+03  9.37491E+03  3.17045E+03
  2.57587E+03  9.77016E+03 -7.78202E+03  1.11737E+04 -1.32890E+04  4.97957E+03 -1.34048E+04 -5.58378E+03
 -7.08233E+03 -1.53765E+04  3.94932E+03 -1.71858E+04  1.52688E+04 -1.02161E+04  1.62829E+04  2.17819E+03
  1.01608E+04  1.33989E+04 -2.05536E+03  1.55897E+04 -1.09940E+04  8.68105E+03 -1.21963E+04 -1.62752E+03
 -1.05213E+04 -9.92288E+03 -1.12750E+03 -1.19866E+04  6.13609E+03 -9.56647E+03  8.12059E+03 -3.07839E+03
  4.40749E+03  1.94159E+03 -1.67279E+02  1.94517E+03 -8.19632E+02 -2.69499E+03  2.73120E+03 -6.21486E+03
  1.17642E+04 -4.44164E+03  1.48321E+04  1.93554E+03  1.48409E+04  1.11028E+04  9.98851E+03  2.05911E+04
 -3.63494E+03  2.32581E+04 -1.93589E+04  1.71874E+04 -2.54153E+04  3.93131E+03 -1.98696E+04 -8.05517E+03
 -1.05785E+04 -1.73949E+04 -1.48796E+02 -1.37899E+04  4.44135E+03 -7.33836E+03  5.36890E+03 -5.05413E+03
  3.71107E+03 -2.91550E+03  3.55282E+03 -4.07158E+03  5.87082E+03 -2.90156E+03  7.50425E+03 -1.11899E+03
  1.02891E+04  2.38281E+03  6.20069E+03  8.37073E+03 -3.40286E+03  1.12252E+04 -1.01196E+04  8.08002E+03
 -1.52144E+04 -1.50965E+03 -9.11391E+03 -9.69504E+03 -9.28494E+02 -1.49182E+04  7.83323E+03 -1.58813E+04
  1.61060E+04 -8.15336E+03  1.91209E+04  2.42167E+03  1.36631E+04  1.28634E+04  1.87869E+03  1.70687E+04
 -7.30707E+03  1.38831E+04 -1.09379E+04  5.11695E+03 -7.36919E+03 -1.58550E+03 -1.97898E+03 -2.37594E+03
 -7.92608E+02 -7.01322E+02 -1.88445E+03  3.68155E+03 -5.80884E+03  2.07871E+03 -9.75908E+03 -1.63838E+03
 -7.10910E+03 -8.99842E+03  2.29934E+02 -1.43183E+04  8.84677E+03 -1.34594E+04  1.49353E+04 -3.70448E+03
  1.46088E+04  5.76206E+03  6.54496E+03  1.26173E+04 -3.26425E+03  1.50350E+04 -9.79799E+03  9.20553E+03
 -1.34832E+04  1.65449E+02 -1.03834E+04 -8.93353E+03 -1.67427E+03 -1.27021E+04  6.33845E+03 -9.56104E+03
  8.60284E+03 -2.69561E+03  5.85757E+03  2.07647E+03  2.10641E+03  4.47181E+03  8.86851E+02  2.76078E+03
  2.47229E+03  1.13500E+03  3.49688E+03  1.35436E+03  4.26677E+03  4.88715E+03  3.35622E+03  8.02861E+03
 -2.96003E+03  1.19035E+04 -9.79689E+03  1.16797E+04 -1.50940E+04  3.58924E+03 -1.60447E+04 -6.05063E+03
 -7.35689E+03 -1.48642E+04  1.87739E+03 -1.66155E+04  9.06140E+03 -1.06056E+04  1.16021E+04 -3.68488E+03
  1.00007E+04  5.51842E+03  1.90035E+03  8.85125E+03 -4.45031E+03  5.06309E+03 -5.46354E+03 -4.63218E+02
 -2.80767E+03 -6.36320E+03  3.31042E+03 -6.07598E+03  6.68242E+03 -3.28286E+03  5.61867E+03  1.08237E+03
  2.98735E+03  3.13842E+03  1.96273E+03  1.55996E+03 -6.95852E+02  1.16437E+03  1.60506E+03 -9.41689E+02
  2.49961E+03 -9.37486E+02  5.79148E+03  3.38474E+03  3.75874E+03  8.10246E+03 -1.56437E+03  1.01644E+04
 -7.87587E+03  6.87066E+03 -9.27838E+03  1.19586E+03 -8.65623E+03 -3.57034E+03 -3.52202E+03 -5.85488E+03
  3.84669E+02 -5.98838E+03  3.83907E+03 -2.60662E+03  2.94702E+03  2.27870E+03 -1.62717E+03  5.07989E+03
 -6.51909E+03  3.63859E+03 -7.45822E+03 -3.32870E+03 -4.43264E+03 -8.59454E+03  8.75778E+02 -8.45194E+03
  4.69176E+03 -4.81856E+03  6.42381E+03 -6.77952E+02  4.40613E+03  1.72826E+03  7.06484E+02  4.36851E+03
 -2.38902E+03  1.55351E+03 -3.46115E+03 -3.22124E+03  8.35898E+02 -6.23046E+03  7.58377E+03 -4.81221E+03
  8.90703E+03  6.58505E+02  9.57179E+03  6.75422E+03  3.10628E+03  1.01256E+04 -3.04951E+03  9.24914E+03
 -7.68709E+03  3.98659E+03 -7.78119E+03 -7.25706E+02 -4.43423E+03 -7.03754E+03  2.33657E+03 -6.01911E+03
  5.83354E+03 -3.57852E+03  5.30959E+03  1.88507E+03  2.00038E+03  5.87852E+03 -8.36680E+02  3.93935E+03
 -2.60720E+03  3.38286E+03 -2.23035E+03  8.14807E+02 -9.94816E+02  1.39969E+03 -1.40282E+03  2.12087E+03
 -2.83948E+03  4.33553E+03 -6.93828E+03  3.78386E+03 -1.04588E+04  7.24353E+02 -1.05875E+04 -6.43557E+03
 -6.10295E+03 -1.33927E+04  2.28130E+03 -1.45449E+04  9.15562E+03 -1.10401E+04  1.43303E+04 -3.71868E+03
  1.35228E+04  1.72207E+03  8.78513E+03  9.17406E+03  6.03746E+02  1.11269E+04 -4.07061E+03  7.32144E+03
 -4.65542E+03  2.98891E+03 -4.13402E+03 -1.05399E+03 -1.95809E+03 -1.17779E+03 -6.57248E+02 -5.84649E+02
 -2.29279E+03 -5.85516E+01 -2.39178E+03  3.25580E+02 -1.36745E+03 -2.30010E+03  3.59608E+02 -3.54472E+03
  3.43217E+03 -3.23112E+03  6.65917E+03 -2.73078E+02  7.27507E+03  5.84071E+03  1.85661E+03  1.03106E+04
 -4.63148E+03  1.15931E+04 -1.08777E+04  6.33923E+03 -1.30200E+04 -6.25550E+02 -9.90264E+03 -8.07280E+03
 -2.91671E+03 -1.03907E+04  2.96402E+03 -9.76344E+03  6.55689E+03 -5.94316E+03  6.74264E+03  7.40930E+02
  4.54556E+03  3.90910E+03  2.14156E+02  3.31137E+03 -2.14678E+03  5.09821E+02  7.76682E+01 -1.81081E+03
  2.89058E+03 -1.23471E+03  4.06800E+03  1.70008E+03  3.08622E+03  3.42995E+03  3.64327E+02  4.97202E+03
 -4.61300E+03  4.47714E+03 -6.65176E+03 -3.40198E+02 -5.82208E+03 -4.91212E+03 -1.34094E+03 -7.96810E+03
  3.84836E+03 -7.87120E+03  7.86118E+03 -2.33639E+03  8.17873E+03  8.15189E+02  4.55369E+03  6.74074E+03
  1.19041E+03  6.28393E+03 -1.38416E+03  4.23297E+03 -3.90373E+03  2.74967E+03 -4.30829E+03  6.34008E+02
 -1.55775E+03  5.18170E+02 -1.75813E+03  9.42190E+02 -3.25220E+03  9.52889E+02 -4.91483E+03 -7.26453E+02
 -4.39351E+03 -3.39952E+03 -1.61201E+03 -6.77506E+03  3.32757E+03 -6.63369E+03  6.27381E+03 -3.23190E+03
  6.86926E+03  1.93570E+03  3.84181E+03  5.41692E+03  2.64988E+02  6.91817E+03 -5.28908E+03  4.57907E+03
