 $NMID ID='MM_0lb_SNR400_12hz_g60_40.RAW', FMTDAT='(8E13.5)'
 TRAMP=1., VOLUME=1. $END
  3.09688E+05  8.04854E+02  3.38223E+05  2.50853E+05  8.46968E+04  3.37904E+05 -1.32854E+05  2.51667E+05
 -1.90245E+05  8.40119E+04 -1.12284E+05 -3.20710E+04  1.39015E+02 -5.04491E+04  5.35755E+04 -2.02156E+02
  3.62505E+04  5.35458E+04 -1.71134E+04  7.58046E+04 -6.09280E+04  6.46547E+04 -8.54051E+04  3.24036E+04
 -8.18598E+04 -1.12345E+04 -5.84946E+04 -5.16040E+04 -1.47938E+04 -7.10761E+04  2.83336E+04 -4.64196E+04
  4.07180E+04  3.43988E+03  1.65327E+04  4.87741E+04 -3.54447E+04  4.86482E+04 -6.82963E+04  2.12943E+02
 -5.47630E+04 -5.75805E+04 -7.16683E+03 -7.86050E+04  3.36940E+04 -5.66449E+04  4.95830E+04 -1.76031E+04
  4.48811E+04  1.15894E+04  3.26880E+04  2.63471E+04  1.57057E+04  3.04712E+04 -6.29537E+03  2.77367E+04
 -2.27456E+04  1.19939E+04 -1.81293E+04 -5.05157E+03  6.73337E+03 -7.24359E+03  2.34048E+04  1.34766E+04
  7.17204E+03  3.67016E+04 -3.33968E+04  3.73702E+04 -6.53283E+04  2.40449E+03 -5.88092E+04 -4.41392E+04
 -1.24190E+04 -6.50347E+04  4.00439E+04 -4.64947E+04  5.93844E+04 -2.48175E+03  3.58762E+04  3.29076E+04
 -5.64479E+03  3.88575E+04 -3.18497E+04  1.79139E+04 -3.23774E+04 -4.15118E+03 -1.85553E+04 -1.13238E+04
 -8.69442E+03 -1.40389E+04 -5.12389E+01 -1.94528E+04  7.97944E+03 -2.30632E+04  1.57012E+04 -1.24851E+04
  1.03930E+04  5.99827E+03 -9.86602E+03  1.31211E+04 -2.28918E+04 -5.57885E+03 -7.61245E+03 -3.63483E+04
  2.47877E+04 -4.56177E+04  5.05703E+04 -2.00298E+04  4.76613E+04  2.03733E+04  1.69320E+04  4.63938E+04
 -1.64067E+04  3.51502E+04 -2.67376E+04  2.49617E+03 -1.09273E+04 -2.92754E+04  2.09385E+04 -3.56502E+04
  4.34930E+04 -1.01275E+04  3.89777E+04  2.38170E+04  2.03624E+04  4.98550E+04 -8.34834E+03  5.39319E+04
 -3.33457E+04  3.71581E+04 -4.55157E+04  1.02976E+04 -4.61172E+04 -1.78239E+04 -2.61315E+04 -4.09209E+04
  7.60107E+03 -4.04268E+04  3.29177E+04 -1.65920E+04  3.11413E+04  1.06779E+04  5.32703E+03  2.01222E+04
 -1.35383E+04  9.76009E+03 -1.10846E+04 -7.32596E+03  5.76076E+03 -1.09874E+04  1.83908E+04  5.62663E+03
  1.45273E+04  2.25009E+04 -5.83985E+03  2.65794E+04 -2.37354E+04  1.30543E+04 -3.03794E+04 -3.20307E+03
 -2.34971E+04 -1.84696E+04 -1.04364E+04 -2.34662E+04  4.03317E+03 -2.39967E+04  1.75297E+04 -2.09052E+04
  2.97501E+04 -1.36350E+04  3.66981E+04  4.65835E+03  2.60226E+04  2.23874E+04  3.95198E+03  3.89374E+04
 -1.90377E+04  3.24917E+04 -2.92864E+04  1.05483E+04 -2.15150E+04 -1.05286E+04 -4.70119E+03 -1.28209E+04
  1.14366E+03 -1.74893E+03 -6.23774E+03  8.05332E+03 -1.82000E+04  4.32397E+03 -1.85531E+04 -8.21711E+03
 -1.09758E+04 -2.10942E+04  5.82970E+03 -2.57135E+04  1.85455E+04 -1.93243E+04  2.12358E+04 -1.52538E+03
  1.32286E+04  1.49208E+04 -9.40555E+02  2.18470E+04 -1.55474E+04  1.16969E+04 -2.15077E+04 -4.55228E+03
 -1.58150E+04 -1.94665E+04 -2.37000E+03 -2.55107E+04  1.15692E+04 -2.07603E+04  2.14009E+04 -1.12007E+04
  2.06050E+04 -1.77549E+02  1.53623E+04  5.18456E+03  7.67625E+03  7.51001E+02  1.13378E+04 -1.65398E+03
  2.02798E+04  2.61948E+03  2.34547E+04  1.74637E+04  1.59998E+04  3.47986E+04 -2.65852E+03  4.04142E+04
 -2.28682E+04  3.33532E+04 -3.78608E+04  1.68705E+04 -4.03237E+04 -3.27188E+03 -3.28427E+04 -2.33193E+04
 -1.33722E+04 -3.33464E+04  1.06076E+04 -2.98806E+04  2.51557E+04 -1.52401E+04  2.24120E+04  7.22642E+03
  7.73887E+03  1.70401E+04 -1.08879E+04  1.44307E+04 -1.85909E+04  2.11172E+03 -1.42717E+04 -1.20879E+04
 -2.43118E+02 -1.69790E+04  9.36915E+03 -1.31125E+04  1.21355E+04 -1.21516E+03  2.36105E+03  8.07286E+03
 -7.99729E+03  2.90544E+03 -7.93998E+03 -6.02315E+03 -1.08175E+03 -1.60940E+04  1.12283E+04 -1.78200E+04
  2.05951E+04 -9.37013E+03  2.23708E+04  3.84682E+03  2.01521E+04  1.59374E+04  9.27108E+03  2.53507E+04
 -5.10058E+03  2.72486E+04 -1.80366E+04  1.72706E+04 -1.96357E+04  3.46124E+03 -1.34901E+04 -4.82345E+03
 -6.10316E+03 -6.02992E+03 -1.03487E+03  2.86697E+02 -3.05374E+03  3.55238E+03 -6.06204E+03  4.75012E+03
 -1.25148E+04 -1.17302E+03 -1.33208E+04 -1.05251E+04 -5.39595E+03 -1.74219E+04  5.51576E+03 -1.40508E+04
  1.08342E+04 -5.58202E+03  7.85836E+03  3.90906E+03 -1.35635E+02  5.61945E+03 -6.76059E+03  1.92296E+01
 -6.89594E+03 -8.79165E+03 -5.61060E+02 -1.36204E+04  7.82479E+03 -1.39250E+04  1.71241E+04 -7.40903E+03
  2.01722E+04  2.00287E+03  1.42095E+04  1.24722E+04  3.55418E+03  1.60948E+04 -8.38183E+03  1.36439E+04
 -1.08408E+04  3.66627E+03 -5.51705E+03 -3.03537E+03  2.11598E+03 -3.62203E+03  7.17577E+03 -6.15523E+02
  5.97398E+03  6.27521E+03  1.07211E+03  1.05019E+04 -8.13179E+03  1.07361E+04 -1.36180E+04  2.23796E+03
 -9.51028E+03 -7.31350E+03  6.85139E+02 -1.13876E+04  6.84146E+03 -5.48104E+03  7.41426E+03  2.61889E+03
  1.53280E+03  9.15680E+03 -7.34722E+03  9.37558E+03 -1.09258E+04  4.03403E+03 -1.14778E+04 -4.04503E+03
 -6.56480E+03 -1.34391E+04  3.20882E+03 -1.50403E+04  1.29369E+04 -9.52495E+03  1.39189E+04  2.28956E+03
  8.88260E+03  1.05234E+04 -1.11970E+03  1.35746E+04 -9.72225E+03  7.56224E+03 -1.06212E+04 -1.23063E+03
 -8.79287E+03 -9.45418E+03 -1.39401E+03 -9.38982E+03  5.64609E+03 -8.07106E+03  5.29152E+03 -3.66778E+03
  3.97439E+03  8.91167E+02 -4.03816E+02  1.55517E+03 -1.50939E+03 -2.74062E+03  2.11783E+03 -6.05566E+03
  9.21595E+03 -3.45786E+03  1.31906E+04  1.01382E+03  1.23094E+04  8.35786E+03  8.86931E+03  1.67576E+04
 -4.12537E+03  1.91066E+04 -1.58792E+04  1.33826E+04 -2.04995E+04  2.85798E+03 -1.68809E+04 -6.53985E+03
 -8.11364E+03 -1.38219E+04 -1.87765E+02 -1.11214E+04  4.60657E+03 -6.79314E+03  4.00608E+03 -4.01031E+03
  3.24537E+03 -2.02847E+03  3.81206E+03 -3.86045E+03  4.55048E+03 -3.24350E+03  6.79173E+03 -9.74704E+02
  8.87766E+03  2.23624E+03  4.33813E+03  7.57760E+03 -1.71228E+03  8.11615E+03 -9.19123E+03  6.08385E+03
 -1.15503E+04 -1.59032E+03 -6.66458E+03 -8.35040E+03 -5.95036E+02 -1.25984E+04  7.38711E+03 -1.23094E+04
  1.28334E+04 -6.59296E+03  1.51454E+04  2.23877E+03  1.03779E+04  1.07546E+04  1.85458E+03  1.37421E+04
 -5.30427E+03  1.08634E+04 -7.95009E+03  4.11343E+03 -5.28554E+03 -1.80337E+03 -1.97835E+03 -1.84927E+03
 -1.41610E+03  9.24841E+00 -2.13162E+03  3.12244E+03 -5.13601E+03  1.90191E+03 -8.65394E+03 -1.36801E+03
 -5.94182E+03 -9.13025E+03  6.31796E+02 -1.15573E+04  6.90073E+03 -1.02327E+04  1.11186E+04 -2.84605E+03
  1.07861E+04  5.49654E+03  4.39232E+03  9.62554E+03 -2.33489E+03  1.12389E+04 -7.89662E+03  7.54208E+03
 -1.03785E+04  2.02643E+02 -7.81620E+03 -7.57072E+03 -9.76390E+02 -9.00355E+03  4.84679E+03 -6.64612E+03
  6.95636E+03 -1.89751E+03  4.80844E+03  1.12997E+03  1.20009E+03  3.30798E+03  1.02440E+03  1.35788E+03
  2.36987E+03  7.29330E+02  3.03695E+03  2.26558E+03  3.34067E+03  4.87216E+03  3.00549E+03  6.21723E+03
 -2.97924E+03  8.89063E+03 -7.45797E+03  8.39076E+03 -1.04961E+04  2.51502E+03 -1.17677E+04 -4.56789E+03
 -5.93083E+03 -1.11337E+04  1.48411E+03 -1.24316E+04  6.46312E+03 -7.67783E+03  8.79219E+03 -2.18903E+03
  6.91448E+03  3.64998E+03  1.71498E+03  6.39545E+03 -3.13000E+03  4.10823E+03 -4.50723E+03 -6.66477E+02
 -1.74436E+03 -5.49355E+03  3.06309E+03 -5.41058E+03  4.34410E+03 -2.45567E+03  4.39534E+03  4.90618E+02
  2.37327E+03  2.23233E+03  5.75700E+02  1.80507E+03 -1.10337E+03  2.00414E+03  1.65011E+03 -1.37521E+02
  2.05240E+03  3.09271E+02  4.93503E+03  1.82231E+03  2.12972E+03  6.02862E+03 -5.95319E+02  7.47145E+03
 -5.07208E+03  4.70845E+03 -7.21513E+03  6.05441E+02 -6.20999E+03 -1.91435E+03 -1.88407E+03 -4.38809E+03
  3.00900E+02 -4.05966E+03  2.90111E+03 -1.82731E+03  2.36479E+03  1.99504E+03 -1.03919E+03  3.84086E+03
 -4.35097E+03  1.90730E+03 -5.10549E+03 -2.15915E+03 -2.58210E+03 -5.20779E+03  8.72825E+02 -5.79081E+03
  2.73325E+03 -3.81711E+03  4.01267E+03 -6.93963E+02  4.03982E+03  1.33167E+03  9.57467E+02  2.32596E+03
 -2.36776E+03  1.05870E+03 -3.03653E+03 -1.66165E+03  1.06445E+03 -4.02368E+03  5.57289E+03 -3.17381E+03
  5.83545E+03  5.44866E+02  6.04749E+03  4.32213E+03  1.86095E+03  6.63787E+03 -2.02415E+03  6.15783E+03
 -5.45948E+03  2.22499E+03 -5.58271E+03 -2.73216E+02 -3.25727E+03 -4.41030E+03  9.16709E+02 -3.55288E+03
  4.53134E+03 -2.19225E+03  3.14282E+03  2.24986E+03  2.93905E+02  3.34761E+03 -5.93625E+02  3.78959E+03
 -1.26901E+03  1.87527E+03 -2.00772E+03  4.80554E+02 -7.10862E+01  8.59191E+02 -1.42639E+03  7.46439E+02
 -1.19356E+03  3.07453E+03 -4.68640E+03  2.12176E+03 -6.56648E+03 -8.60982E+00 -7.61800E+03 -3.62525E+03
 -3.63662E+03 -8.04482E+03  1.73114E+03 -9.31588E+03  5.95145E+03 -7.95041E+03  9.85829E+03 -3.09010E+03
  8.80160E+03  1.43502E+03  4.94725E+03  5.79163E+03 -1.16042E+02  7.25745E+03 -2.17196E+03  4.84458E+03
 -3.87823E+03  2.67936E+03 -2.31013E+03 -6.56340E+02 -9.21125E+02 -6.28676E+01 -9.12586E+02 -5.58578E+02
 -1.85401E+03  7.60303E+02 -1.87189E+03 -5.23774E+01 -3.82203E+02 -9.46820E+02  1.24066E+02 -2.65796E+03
  2.80073E+03 -2.40157E+03  3.92847E+03 -6.72983E+00  4.18105E+03  3.56827E+03  6.99892E+02  6.30564E+03
 -2.96720E+03  8.10272E+03 -6.69285E+03  4.41982E+03 -8.22160E+03 -2.55575E+02 -5.84337E+03 -4.76664E+03
 -2.02776E+03 -6.09499E+03  1.82355E+03 -6.17454E+03  3.65153E+03 -3.06292E+03  3.79140E+03 -8.50350E+01
  2.29329E+03  1.93196E+03  3.10297E+02  1.33228E+03 -6.29102E+02  3.38297E+02 -1.51902E+02 -1.15653E+03
  2.51115E+03 -9.86896E+02  2.75159E+03  5.59404E+02  1.98405E+03  2.85576E+03  8.17287E+02  3.03210E+03
 -2.51872E+03  3.18162E+03 -3.18334E+03  1.64124E+02 -4.03469E+03 -2.62939E+03 -1.02989E+03 -5.42738E+03
  2.35899E+03 -4.09459E+03  4.61027E+03 -1.40510E+03  4.06552E+03  5.25847E+02  2.82318E+03  3.69389E+03
  1.38009E+02  3.30568E+03 -2.10107E+03  3.30013E+03 -2.74932E+03  1.36232E+03 -1.46319E+03  1.22717E+03
 -1.14822E+03 -1.18309E+02 -1.02646E+03  9.50144E+02 -2.33234E+03  8.80824E+02 -2.72471E+03 -4.39001E+02
 -3.81302E+03 -1.31983E+03 -5.04130E+02 -4.47635E+03  1.97805E+03 -4.44054E+03  3.45366E+03 -1.48732E+03
  4.41567E+03 -1.49462E+02  1.19901E+03  2.46490E+03 -1.02797E+03  4.27390E+03 -2.72988E+03  2.67889E+03
