 $NMID ID='MM_0lb_SNR400_10hz_g45_21.RAW', FMTDAT='(8E13.5)'
 TRAMP=1., VOLUME=1. $END
  3.09213E+05  6.84750E+00  3.37348E+05  2.49992E+05  8.41040E+04  3.38200E+05 -1.32946E+05  2.50843E+05
 -1.90957E+05  8.35348E+04 -1.12221E+05 -3.29099E+04  5.78799E+02 -5.02133E+04  5.33507E+04 -4.63286E+02
  3.59068E+04  5.25788E+04 -1.67737E+04  7.62989E+04 -6.07891E+04  6.35952E+04 -8.54326E+04  3.23163E+04
 -8.26720E+04 -1.17654E+04 -5.70047E+04 -5.22646E+04 -1.45354E+04 -7.09397E+04  2.79758E+04 -4.62331E+04
  4.02767E+04  4.13321E+03  1.64300E+04  4.81964E+04 -3.43950E+04  4.81670E+04 -6.81854E+04 -6.20797E+02
 -5.35284E+04 -5.73896E+04 -7.42909E+03 -7.83573E+04  3.44782E+04 -5.66795E+04  4.97869E+04 -1.76974E+04
  4.51208E+04  1.17484E+04  3.29448E+04  2.62787E+04  1.57439E+04  3.10709E+04 -6.02663E+03  2.73334E+04
 -2.20157E+04  1.21484E+04 -1.81617E+04 -5.05349E+03  6.56730E+03 -7.87190E+03  2.33473E+04  1.26700E+04
  6.65323E+03  3.65111E+04 -3.34124E+04  3.72177E+04 -6.48199E+04  1.75227E+03 -5.84091E+04 -4.44025E+04
 -1.24772E+04 -6.46693E+04  4.19459E+04 -4.62864E+04  6.02482E+04 -2.66572E+03  3.64154E+04  3.40533E+04
 -5.98200E+03  3.87300E+04 -3.12568E+04  1.79529E+04 -3.25394E+04 -2.69249E+03 -1.78624E+04 -1.22166E+04
 -8.66212E+03 -1.46469E+04 -3.28534E+02 -1.90917E+04  8.31863E+03 -2.34191E+04  1.62491E+04 -1.29017E+04
  1.05350E+04  6.61287E+03 -9.69502E+03  1.27037E+04 -2.30371E+04 -5.46829E+03 -8.78709E+03 -3.67043E+04
  2.35948E+04 -4.58372E+04  5.17048E+04 -2.03962E+04  4.82375E+04  2.01734E+04  1.60455E+04  4.63717E+04
 -1.63501E+04  3.53187E+04 -2.63808E+04  1.66406E+03 -1.03771E+04 -2.80429E+04  2.07412E+04 -3.65789E+04
  4.28210E+04 -1.08961E+04  3.97703E+04  2.45917E+04  2.01553E+04  5.01219E+04 -8.67980E+03  5.37795E+04
 -3.39147E+04  3.62789E+04 -4.54746E+04  1.14904E+04 -4.57175E+04 -1.83893E+04 -2.50168E+04 -4.11861E+04
  7.86620E+03 -4.12922E+04  3.31980E+04 -1.60949E+04  3.17493E+04  1.14728E+04  4.45762E+03  2.14231E+04
 -1.37737E+04  9.30129E+03 -1.12931E+04 -7.64024E+03  5.65661E+03 -1.15565E+04  1.82544E+04  5.07089E+03
  1.31312E+04  2.30726E+04 -5.24045E+03  2.67501E+04 -2.37262E+04  1.36141E+04 -3.03518E+04 -4.07734E+03
 -2.41109E+04 -1.82149E+04 -1.10687E+04 -2.35895E+04  4.16132E+03 -2.38318E+04  1.86006E+04 -2.22045E+04
  3.06230E+04 -1.41105E+04  3.63067E+04  2.87530E+03  2.61756E+04  2.22409E+04  4.62693E+03  4.04296E+04
 -1.85341E+04  3.21000E+04 -2.94647E+04  1.06784E+04 -2.14501E+04 -1.01518E+04 -5.39462E+03 -1.33855E+04
  1.60384E+03 -1.45080E+03 -6.66040E+03  7.49235E+03 -1.93266E+04  4.90522E+03 -1.89761E+04 -8.72428E+03
 -1.21494E+04 -2.22069E+04  5.59997E+03 -2.66708E+04  1.74554E+04 -1.78235E+04  2.10882E+04 -1.05259E+03
  1.36950E+04  1.55271E+04 -1.96516E+03  2.21687E+04 -1.57688E+04  1.18728E+04 -2.20397E+04 -3.79059E+03
 -1.66959E+04 -1.99526E+04 -2.22058E+03 -2.60781E+04  1.18829E+04 -2.14513E+04  2.29426E+04 -1.14650E+04
  2.06087E+04  3.77617E+02  1.50149E+04  4.42290E+03  8.54704E+03  1.31216E+03  1.18287E+04 -2.36425E+03
  2.05380E+04  3.55034E+03  2.39111E+04  1.72863E+04  1.64913E+04  3.54151E+04 -2.32432E+03  4.04640E+04
 -2.37141E+04  3.35261E+04 -3.91967E+04  1.74884E+04 -3.99938E+04 -2.85565E+03 -3.30654E+04 -2.41916E+04
 -1.31694E+04 -3.49124E+04  1.22892E+04 -3.00843E+04  2.64956E+04 -1.50966E+04  2.30239E+04  7.12206E+03
  7.05606E+03  1.65529E+04 -1.07527E+04  1.43676E+04 -1.91323E+04  2.96161E+03 -1.44139E+04 -1.27010E+04
 -1.17017E+03 -1.84180E+04  9.15494E+03 -1.32644E+04  1.20074E+04 -1.62572E+03  3.57175E+03  8.57178E+03
 -7.66477E+03  3.20850E+03 -7.78421E+03 -6.03002E+03 -1.38928E+03 -1.59644E+04  1.16902E+04 -1.75961E+04
  2.13308E+04 -1.02740E+04  2.26216E+04  3.68376E+03  2.07127E+04  1.75323E+04  9.83371E+03  2.72582E+04
 -5.17559E+03  2.85366E+04 -1.85119E+04  1.72817E+04 -2.08919E+04  3.76624E+03 -1.37685E+04 -5.12939E+03
 -5.97535E+03 -6.07534E+03 -5.00209E+02  9.67756E+02 -3.33428E+03  3.57589E+03 -6.68832E+03  5.56490E+03
 -1.32639E+04 -9.02421E+02 -1.35556E+04 -1.15293E+04 -5.76956E+03 -1.79165E+04  6.07925E+03 -1.41102E+04
  1.19211E+04 -5.69262E+03  7.98888E+03  4.13434E+03 -4.94033E+02  6.15821E+03 -7.07699E+03  1.26836E+02
 -6.48725E+03 -9.44003E+03 -1.23277E+03 -1.47265E+04  7.43472E+03 -1.48528E+04  1.80259E+04 -8.23427E+03
  2.12262E+04  2.30313E+03  1.59381E+04  1.34514E+04  3.16992E+03  1.69743E+04 -8.64519E+03  1.42957E+04
 -1.16611E+04  4.31650E+03 -6.76867E+03 -3.13296E+03  2.16125E+03 -3.76303E+03  8.12645E+03 -6.14012E+02
  6.47400E+03  5.60651E+03  4.53464E+02  1.18947E+04 -8.29007E+03  1.05917E+04 -1.45583E+04  3.25618E+03
 -1.01198E+04 -7.80845E+03  8.56145E+02 -1.18153E+04  8.22432E+03 -6.96759E+03  8.58393E+03  2.50481E+03
  1.57511E+03  8.68891E+03 -7.45475E+03  9.88945E+03 -1.13704E+04  4.55599E+03 -1.29271E+04 -4.16570E+03
 -6.55835E+03 -1.43087E+04  2.96498E+03 -1.60424E+04  1.36448E+04 -9.59410E+03  1.43503E+04  2.62866E+03
  8.74047E+03  1.15792E+04 -1.23844E+03  1.47608E+04 -1.10355E+04  7.74350E+03 -1.12283E+04 -1.43681E+03
 -9.04322E+03 -9.67395E+03 -1.60416E+03 -1.12076E+04  6.12412E+03 -9.09809E+03  6.41277E+03 -3.44950E+03
  4.07770E+03  1.46332E+03 -5.31380E+02  1.53629E+03 -8.62590E+02 -3.43879E+03  2.15242E+03 -6.30755E+03
  1.06555E+04 -3.17543E+03  1.42997E+04  1.93108E+03  1.35915E+04  9.41268E+03  8.86963E+03  1.83279E+04
 -3.85440E+03  2.11980E+04 -1.81761E+04  1.51113E+04 -2.26883E+04  2.50088E+03 -1.86691E+04 -8.46471E+03
 -9.40587E+03 -1.47779E+04 -4.91561E+02 -1.24988E+04  5.49700E+03 -6.41133E+03  3.96794E+03 -4.40574E+03
  2.89309E+03 -3.52340E+03  3.29063E+03 -3.77987E+03  5.42436E+03 -2.96992E+03  7.48728E+03 -1.06973E+03
  9.51901E+03  2.00013E+03  4.13826E+03  8.96486E+03 -2.24871E+03  9.67180E+03 -1.03699E+04  7.57408E+03
 -1.28951E+04 -1.83008E+03 -7.70538E+03 -9.22808E+03 -6.75206E+02 -1.37985E+04  8.20007E+03 -1.42612E+04
  1.49814E+04 -7.78415E+03  1.78488E+04  2.37869E+03  1.19151E+04  1.18510E+04  1.22576E+03  1.52094E+04
 -5.92141E+03  1.31060E+04 -9.38023E+03  4.72770E+03 -7.15872E+03 -1.29844E+03 -2.67113E+03 -1.80984E+03
 -2.81395E+02 -4.69318E+02 -2.16925E+03  3.00828E+03 -5.44517E+03  2.53122E+03 -8.71875E+03 -1.51850E+03
 -5.08830E+03 -8.67026E+03  4.01108E+02 -1.37136E+04  8.65551E+03 -1.21290E+04  1.22198E+04 -3.71672E+03
  1.27231E+04  6.23680E+03  5.29087E+03  1.08519E+04 -3.13641E+03  1.25271E+04 -9.04622E+03  7.55771E+03
 -1.23809E+04  4.29537E+02 -9.09085E+03 -7.57907E+03 -9.63944E+02 -1.02554E+04  5.81943E+03 -7.61410E+03
  7.64041E+03 -2.65482E+03  5.27680E+03  1.81583E+03  1.93787E+03  3.38399E+03  1.67144E+03  1.61490E+03
  3.07878E+03  6.27012E+02  3.05097E+03  1.54724E+03  3.65388E+03  4.12589E+03  2.95708E+03  5.70951E+03
 -2.52405E+03  9.83036E+03 -9.29468E+03  1.08102E+04 -1.26467E+04  2.60588E+03 -1.36213E+04 -5.12744E+03
 -6.25814E+03 -1.26591E+04  2.50120E+03 -1.38905E+04  7.81307E+03 -8.31081E+03  1.04073E+04 -2.11309E+03
  7.88585E+03  4.13665E+03  1.13441E+03  6.95245E+03 -3.48613E+03  5.00083E+03 -5.63771E+03 -1.03609E+03
 -2.59398E+03 -4.77416E+03  2.83450E+03 -5.85411E+03  4.89602E+03 -3.52807E+03  5.37382E+03  8.61489E+02
  3.42160E+03  2.64416E+03  1.07263E+03  1.96109E+03 -4.61523E+02  2.71079E+03  1.81101E+03 -9.59695E+02
  1.66952E+03 -5.49131E+02  5.72310E+03  2.54329E+03  3.45482E+03  6.99455E+03 -1.71460E+03  9.22494E+03
 -6.04320E+03  6.19720E+03 -8.31392E+03  1.96473E+03 -7.05118E+03 -2.47354E+03 -2.64281E+03 -4.17969E+03
  9.51024E+02 -5.27767E+03  3.63636E+03 -1.97695E+03  2.84250E+03  2.33833E+03 -1.23699E+03  3.12932E+03
 -4.57145E+03  2.20445E+03 -6.58645E+03 -2.37570E+03 -3.05342E+03 -6.68867E+03  5.27265E+02 -7.29806E+03
  3.64242E+03 -4.20031E+03  5.63199E+03 -8.01877E+02  4.57888E+03  1.17297E+03  1.20768E+03  3.73968E+03
 -2.83217E+03  1.11491E+03 -3.40117E+03 -2.36872E+03  1.31717E+03 -5.40620E+03  6.49022E+03 -4.43152E+03
  7.71459E+03  1.27588E+03  7.23481E+03  5.37655E+03  2.29949E+03  9.33789E+03 -3.57759E+03  8.81684E+03
 -6.43348E+03  3.38821E+03 -7.02722E+03 -1.88111E+03 -3.38498E+03 -5.54413E+03  1.42277E+03 -5.66541E+03
  5.46692E+03 -8.64346E+02  5.06433E+03  1.23721E+03  1.24996E+03  4.32282E+03 -8.05092E+02  4.41776E+03
 -2.13943E+03  3.20187E+03 -2.00030E+03  1.03832E+03 -5.31364E+02  8.60553E+02 -1.42603E+03  1.23923E+03
 -2.30615E+03  3.04294E+03 -6.10130E+03  1.94771E+03 -7.75272E+03  3.70054E+02 -9.35238E+03 -5.62073E+03
 -5.06300E+03 -1.15238E+04  2.48778E+03 -1.21670E+04  7.44972E+03 -9.61712E+03  1.19416E+04 -3.98559E+03
  1.08901E+04  2.50024E+03  6.75825E+03  7.68866E+03  3.49415E+02  9.24070E+03 -3.10353E+03  5.95224E+03
 -5.44098E+03  1.99402E+03 -3.12712E+03 -3.27892E+02 -3.37719E+02 -1.05246E+03 -4.93202E+02 -1.16419E+03
 -2.02052E+03  1.65654E+02 -2.59370E+03 -9.59623E+02 -8.80717E+02 -2.20588E+03 -2.91878E+02 -3.26163E+03
  3.75293E+03 -2.34913E+03  4.89862E+03 -3.28812E+01  6.63249E+03  5.05792E+03  7.66300E+02  8.42139E+03
 -3.99606E+03  9.98866E+03 -8.82602E+03  5.39236E+03 -1.05910E+04 -2.76744E+02 -7.86235E+03 -5.90411E+03
 -3.64541E+03 -8.24186E+03  2.61447E+03 -7.62839E+03  6.22812E+03 -4.41637E+03  6.15710E+03 -4.62049E+01
  2.02876E+03  2.56528E+03  2.79479E+02  2.47979E+03 -1.31622E+03 -3.55038E+02 -6.27022E+02 -1.84864E+03
  2.14690E+03 -1.46393E+03  3.16224E+03  1.61557E+03  2.30728E+03  3.21908E+03 -2.16522E+02  4.38277E+03
 -3.58075E+03  3.20833E+03 -5.01792E+03 -1.95398E+02 -5.26749E+03 -3.79979E+03 -2.54483E+02 -6.81464E+03
  3.97338E+03 -5.51769E+03  6.09587E+03 -1.22845E+03  6.61215E+03  1.20434E+03  4.03536E+03  5.01957E+03
  8.28532E+02  6.74252E+03 -2.56795E+03  4.41039E+03 -3.27621E+03  1.96546E+03 -2.21667E+03  9.02587E+01
 -1.12295E+03  5.16440E+02 -7.74691E+02  1.62376E+03 -3.08440E+03  1.27967E+03 -3.52972E+03 -3.34326E+02
 -4.93775E+03 -2.75489E+03 -7.67806E+02 -5.20899E+03  3.32814E+03 -6.12199E+03  5.63478E+03 -2.81685E+03
  5.18134E+03  5.40796E+02  2.82180E+03  4.27989E+03  1.43183E+02  5.33672E+03 -3.57182E+03  3.68873E+03
