 $NMID ID='MM_0lb_SNR400_9hz_g45_12.RAW', FMTDAT='(8E13.5)'
 TRAMP=1., VOLUME=1. $END
  3.09638E+05 -1.24142E+02  3.38329E+05  2.51180E+05  8.54891E+04  3.38656E+05 -1.32396E+05  2.51412E+05
 -1.91335E+05  8.36310E+04 -1.12351E+05 -3.26290E+04  1.79340E+02 -5.10320E+04  5.34414E+04  6.98941E+02
  3.53898E+04  5.24158E+04 -1.71787E+04  7.62915E+04 -6.16354E+04  6.39051E+04 -8.46169E+04  3.26884E+04
 -8.22215E+04 -1.24982E+04 -5.87169E+04 -5.27196E+04 -1.49487E+04 -7.06558E+04  2.87165E+04 -4.65309E+04
  4.05075E+04  3.68052E+03  1.67695E+04  4.89127E+04 -3.49786E+04  4.80631E+04 -6.87038E+04 -7.04429E+01
 -5.46909E+04 -5.78083E+04 -7.28699E+03 -7.91694E+04  3.50311E+04 -5.62653E+04  5.03759E+04 -1.81555E+04
  4.46016E+04  1.18960E+04  3.25068E+04  2.63675E+04  1.60477E+04  3.07151E+04 -5.42399E+03  2.68034E+04
 -2.28029E+04  1.16848E+04 -1.79584E+04 -5.44390E+03  7.71779E+03 -6.78870E+03  2.38277E+04  1.32614E+04
  6.80184E+03  3.56875E+04 -3.40300E+04  3.59503E+04 -6.56834E+04  2.21924E+03 -5.98716E+04 -4.44335E+04
 -1.27524E+04 -6.53416E+04  4.18917E+04 -4.71255E+04  6.07617E+04 -2.60327E+03  3.62027E+04  3.43621E+04
 -5.19579E+03  3.87970E+04 -3.15420E+04  1.83726E+04 -3.30419E+04 -3.61434E+03 -1.98048E+04 -1.23553E+04
 -8.96607E+03 -1.50417E+04  4.37952E+01 -1.96650E+04  7.99514E+03 -2.42928E+04  1.54579E+04 -1.31862E+04
  1.09460E+04  6.62372E+03 -9.94183E+03  1.24435E+04 -2.37673E+04 -6.59287E+03 -7.84986E+03 -3.61221E+04
  2.47500E+04 -4.67027E+04  5.24669E+04 -2.08866E+04  4.77776E+04  2.12147E+04  1.74573E+04  4.63596E+04
 -1.73039E+04  3.58021E+04 -2.78127E+04  2.04892E+03 -1.22151E+04 -2.85198E+04  2.14618E+04 -3.63635E+04
  4.40229E+04 -1.06205E+04  4.02432E+04  2.46228E+04  2.08002E+04  5.06694E+04 -8.31473E+03  5.56907E+04
 -3.49059E+04  3.83785E+04 -4.72471E+04  1.10401E+04 -4.66432E+04 -1.84376E+04 -2.64695E+04 -4.17994E+04
  7.50951E+03 -4.10389E+04  3.38985E+04 -1.62753E+04  3.24317E+04  1.12052E+04  4.62537E+03  2.05621E+04
 -1.32139E+04  9.80916E+03 -1.14336E+04 -6.83944E+03  5.14807E+03 -1.11198E+04  1.93017E+04  5.60343E+03
  1.43150E+04  2.26155E+04 -5.56785E+03  2.68012E+04 -2.34434E+04  1.46202E+04 -3.11367E+04 -3.96013E+03
 -2.50852E+04 -1.86097E+04 -1.13688E+04 -2.47454E+04  4.90669E+03 -2.58220E+04  2.01502E+04 -2.25907E+04
  3.15505E+04 -1.33465E+04  3.72329E+04  4.75054E+03  2.71313E+04  2.50956E+04  3.36452E+03  4.06792E+04
 -1.99575E+04  3.35949E+04 -3.06563E+04  1.19865E+04 -2.31470E+04 -9.37040E+03 -5.59093E+03 -1.32602E+04
  1.44330E+03 -9.31032E+02 -7.29334E+03  8.50788E+03 -2.00906E+04  4.50674E+03 -1.99515E+04 -9.82557E+03
 -1.16136E+04 -2.24682E+04  6.51222E+03 -2.71197E+04  1.92893E+04 -1.89641E+04  2.28376E+04 -1.30821E+03
  1.39545E+04  1.59315E+04 -1.70680E+03  2.27178E+04 -1.60203E+04  1.36607E+04 -2.31313E+04 -4.54706E+03
 -1.69258E+04 -2.09802E+04 -1.76396E+03 -2.73237E+04  1.21009E+04 -2.31108E+04  2.30583E+04 -1.20315E+04
  2.21151E+04 -4.44700E+02  1.59768E+04  5.23728E+03  8.30247E+03  1.00502E+03  1.28287E+04 -1.84436E+03
  2.12673E+04  2.90921E+03  2.46297E+04  1.78635E+04  1.71684E+04  3.57741E+04 -3.09438E+03  4.29903E+04
 -2.43871E+04  3.65453E+04 -4.11477E+04  1.90334E+04 -4.45492E+04 -2.97811E+03 -3.54232E+04 -2.55153E+04
 -1.44576E+04 -3.65461E+04  1.25974E+04 -3.20134E+04  2.71693E+04 -1.54028E+04  2.38169E+04  7.52723E+03
  8.10294E+03  1.81660E+04 -1.09543E+04  1.54980E+04 -2.05662E+04  2.03219E+03 -1.47827E+04 -1.33861E+04
 -6.86951E+02 -1.86933E+04  9.69248E+03 -1.34848E+04  1.22967E+04 -1.34971E+03  3.37206E+03  7.77348E+03
 -8.50685E+03  3.99759E+03 -8.88273E+03 -6.74199E+03 -2.31810E+03 -1.77531E+04  1.21093E+04 -1.96190E+04
  2.24201E+04 -1.09430E+04  2.54637E+04  1.99446E+03  2.16496E+04  1.87844E+04  1.03687E+04  2.76453E+04
 -5.29948E+03  3.08289E+04 -2.02189E+04  1.84834E+04 -2.25769E+04  3.96894E+03 -1.50431E+04 -5.77724E+03
 -5.64976E+03 -6.42967E+03 -5.04164E+00  1.39277E+02 -3.08057E+03  3.52391E+03 -8.43340E+03  5.54066E+03
 -1.40546E+04 -6.91950E+02 -1.48595E+04 -1.11546E+04 -5.98027E+03 -1.89765E+04  6.19711E+03 -1.53071E+04
  1.31226E+04 -6.26857E+03  9.01627E+03  4.78990E+03 -3.67972E+02  5.97721E+03 -7.42367E+03 -4.18229E+02
 -7.20439E+03 -9.47369E+03 -4.66696E+02 -1.56903E+04  8.41932E+03 -1.57185E+04  2.00914E+04 -8.93252E+03
  2.40927E+04  2.08675E+03  1.73861E+04  1.37442E+04  3.79019E+03  1.88361E+04 -9.79767E+03  1.53080E+04
 -1.23173E+04  4.33251E+03 -6.34911E+03 -4.55727E+03  2.10158E+03 -4.37487E+03  7.49760E+03 -1.13577E+03
  7.01468E+03  7.12795E+03  9.29335E+02  1.16732E+04 -9.31586E+03  1.18745E+04 -1.49597E+04  3.38925E+03
 -1.00972E+04 -8.43953E+03  1.76369E+02 -1.31046E+04  8.11880E+03 -7.28719E+03  8.95909E+03  4.18563E+03
  2.65366E+03  9.80714E+03 -7.51708E+03  1.05562E+04 -1.30692E+04  4.86794E+03 -1.35738E+04 -4.49531E+03
 -7.33239E+03 -1.57825E+04  3.96112E+03 -1.72846E+04  1.50877E+04 -9.56392E+03  1.69399E+04  3.13982E+03
  1.02958E+04  1.30010E+04 -9.37896E+02  1.57568E+04 -1.10633E+04  8.94712E+03 -1.21973E+04 -1.49605E+03
 -1.09670E+04 -1.04105E+04 -1.67769E+03 -1.20228E+04  5.78046E+03 -9.01594E+03  7.90183E+03 -3.10895E+03
  5.34091E+03  2.16993E+03 -1.46789E+03  1.59572E+03 -5.69626E+02 -3.40655E+03  1.92518E+03 -7.49045E+03
  1.08012E+04 -4.99229E+03  1.51965E+04  2.21007E+03  1.53154E+04  1.07505E+04  9.85010E+03  2.07587E+04
 -5.03325E+03  2.36372E+04 -1.98656E+04  1.74823E+04 -2.55189E+04  3.43490E+03 -2.06668E+04 -9.11087E+03
 -1.04272E+04 -1.55975E+04 -5.52913E+02 -1.42136E+04  4.71909E+03 -7.45125E+03  5.20024E+03 -5.26371E+03
  3.28388E+03 -3.13861E+03  3.95876E+03 -3.43568E+03  5.00978E+03 -3.41332E+03  8.23595E+03 -1.03313E+03
  1.03991E+04  2.25262E+03  5.73913E+03  9.29877E+03 -2.64079E+03  1.14435E+04 -1.10038E+04  8.42679E+03
 -1.56109E+04 -7.86228E+02 -8.77223E+03 -1.07888E+04 -1.13370E+03 -1.51142E+04  8.34457E+03 -1.57430E+04
  1.53214E+04 -8.61004E+03  1.93556E+04  2.15997E+03  1.34165E+04  1.29989E+04  2.00098E+03  1.70036E+04
 -7.71010E+03  1.36958E+04 -1.03447E+04  5.70090E+03 -7.59848E+03 -6.83674E+02 -3.18375E+03 -2.54814E+03
 -8.84167E+02 -4.81455E+02 -2.68582E+03  3.08147E+03 -6.03685E+03  2.20343E+03 -9.99521E+03 -1.93603E+03
 -6.93415E+03 -9.04224E+03 -7.69473E+02 -1.44942E+04  9.22571E+03 -1.32417E+04  1.38206E+04 -3.83225E+03
  1.42214E+04  6.67172E+03  6.04014E+03  1.27302E+04 -2.01585E+03  1.46952E+04 -1.06022E+04  9.18448E+03
 -1.35803E+04  8.64744E+02 -1.10750E+04 -8.99574E+03 -1.28328E+03 -1.18304E+04  6.47837E+03 -8.30909E+03
  9.25678E+03 -3.07242E+03  5.63504E+03  2.39092E+03  2.18423E+03  3.74290E+03  1.71233E+03  2.80778E+03
  2.82990E+03  1.46294E+03  3.64826E+03  2.08212E+03  4.24124E+03  4.61700E+03  3.59482E+03  7.11755E+03
 -3.04737E+03  1.17802E+04 -1.05431E+04  1.07737E+04 -1.50717E+04  3.33815E+03 -1.46859E+04 -6.04790E+03
 -7.00453E+03 -1.44436E+04  2.40082E+03 -1.63433E+04  8.91744E+03 -1.04212E+04  1.28899E+04 -2.81880E+03
  9.64682E+03  6.81035E+03  1.61604E+03  8.34011E+03 -4.90185E+03  6.05624E+03 -5.87321E+03 -1.35220E+03
 -3.33652E+03 -6.14296E+03  3.11938E+03 -6.37169E+03  6.48174E+03 -2.55942E+03  5.71478E+03  8.04113E+02
  4.48319E+03  2.42833E+03  1.57046E+03  2.22714E+03 -5.94320E+02  2.13166E+03  2.12023E+03 -3.28584E+02
  2.44927E+03 -1.15976E+03  6.31983E+03  2.43780E+03  2.43356E+03  8.38493E+03 -1.08520E+03  9.78666E+03
 -6.14988E+03  7.40091E+03 -9.06676E+03  2.03663E+03 -8.38664E+03 -2.11023E+03 -3.87906E+03 -4.95627E+03
  1.33500E+03 -5.77335E+03  3.87419E+03 -2.18367E+03  3.26589E+03  2.49265E+03 -1.05092E+03  4.65082E+03
 -6.47126E+03  2.81680E+03 -7.05521E+03 -3.70751E+03 -4.30409E+03 -8.31904E+03  1.07418E+03 -8.88893E+03
  4.87359E+03 -4.78607E+03  5.03942E+03 -5.55964E+02  5.25950E+03  1.81316E+03  5.47854E+02  4.19038E+03
 -2.28756E+03  1.29260E+03 -3.18960E+03 -2.39984E+03  1.57480E+03 -6.62381E+03  7.43700E+03 -4.97041E+03
  1.00060E+04  5.94674E+02  9.34779E+03  6.30729E+03  2.61984E+03  9.32880E+03 -3.56321E+03  9.40952E+03
 -7.74179E+03  3.54311E+03 -8.39017E+03 -1.79290E+03 -3.81841E+03 -6.31000E+03  1.60071E+03 -6.11426E+03
  6.10123E+03 -2.81844E+03  5.55712E+03  2.53727E+03  1.40190E+03  5.75154E+03 -8.18727E+02  4.55052E+03
 -2.61247E+03  2.62671E+03 -2.45280E+03  1.06210E+03 -3.10720E+02  6.45164E+02 -7.69466E+02  1.77109E+03
 -2.26382E+03  3.98049E+03 -7.27322E+03  2.81856E+03 -9.45715E+03  9.76511E+02 -1.09308E+04 -6.63075E+03
 -5.34748E+03 -1.21295E+04  1.90504E+03 -1.49275E+04  8.67204E+03 -1.13599E+04  1.39840E+04 -4.48496E+03
  1.34603E+04  3.24863E+03  8.05738E+03  9.03125E+03  6.99297E+02  9.73895E+03 -4.77945E+03  7.63890E+03
 -6.16866E+03  2.67537E+03 -4.11122E+03 -1.75654E+03 -1.49743E+03 -7.53183E+02 -7.96153E+02  4.21280E+01
 -1.14394E+03  8.52462E+02 -1.65314E+03 -8.42730E+02 -1.54035E+03 -2.33537E+03  5.77223E+02 -3.32911E+03
  4.98476E+03 -2.81757E+03  6.27360E+03  1.56904E+02  7.33008E+03  5.18617E+03  1.13353E+03  1.02199E+04
 -4.84761E+03  1.18400E+04 -9.98294E+03  6.83501E+03 -1.22339E+04 -1.57867E+03 -8.91771E+03 -8.00828E+03
 -3.69890E+03 -1.09103E+04  2.48399E+03 -9.21113E+03  6.32741E+03 -6.30977E+03  6.75148E+03 -1.51114E+02
  3.95770E+03  3.60825E+03 -2.99403E+02  3.30305E+03 -2.39877E+03 -5.23141E+01  3.32348E+01 -2.61568E+03
  2.94160E+03 -1.30535E+03  4.95681E+03  1.06674E+03  3.57139E+03  3.92359E+03  8.97091E+02  5.67072E+03
 -4.06934E+03  5.11012E+03 -6.89433E+03  4.23178E+02 -5.92077E+03 -5.29085E+03 -1.25165E+03 -8.59302E+03
  5.39492E+03 -7.07325E+03  7.52340E+03 -2.07820E+03  7.94011E+03  1.77235E+03  5.39755E+03  6.00536E+03
  3.51510E+02  6.74568E+03 -3.00878E+03  5.39120E+03 -4.18053E+03  3.51401E+03 -3.07751E+03  3.97055E+02
 -2.15598E+03 -4.88472E+02 -8.27364E+02  1.20325E+03 -3.52907E+03  1.38362E+03 -4.00628E+03 -1.40946E+02
 -5.40152E+03 -3.40559E+03 -1.08103E+03 -6.30227E+03  3.30946E+03 -7.60797E+03  7.10227E+03 -3.61414E+03
  7.43390E+03  4.08892E+02  4.15395E+03  5.22531E+03 -4.80359E+02  7.17562E+03 -4.85220E+03  4.14833E+03
