 $NMID ID='MM_0lb_SNR400_7hz_g55_79.RAW', FMTDAT='(8E13.5)'
 TRAMP=1., VOLUME=1. $END
  3.09810E+05  1.13598E+02  3.38035E+05  2.50759E+05  8.50056E+04  3.38329E+05 -1.32491E+05  2.52495E+05
 -1.91926E+05  8.46384E+04 -1.11831E+05 -3.31327E+04  7.39089E+02 -5.11200E+04  5.38192E+04 -7.96328E+02
  3.59417E+04  5.33560E+04 -1.60658E+04  7.70674E+04 -6.20256E+04  6.59608E+04 -8.62468E+04  3.21789E+04
 -8.34966E+04 -1.16450E+04 -5.86062E+04 -5.26840E+04 -1.48307E+04 -7.22248E+04  2.81526E+04 -4.72520E+04
  4.11490E+04  4.07316E+03  1.72819E+04  4.95140E+04 -3.55491E+04  4.93346E+04 -6.88092E+04  7.67342E+02
 -5.58984E+04 -5.88611E+04 -8.20860E+03 -8.02403E+04  3.48710E+04 -5.82432E+04  5.07853E+04 -1.85381E+04
  4.56998E+04  1.15365E+04  3.32308E+04  2.76950E+04  1.51618E+04  3.15605E+04 -6.23443E+03  2.80899E+04
 -2.33065E+04  1.15729E+04 -1.81253E+04 -6.20650E+03  8.75775E+03 -8.14664E+03  2.40678E+04  1.41919E+04
  7.29269E+03  3.86832E+04 -3.47833E+04  3.67912E+04 -6.67595E+04  1.59350E+03 -5.95581E+04 -4.49539E+04
 -1.29506E+04 -6.71532E+04  4.31351E+04 -4.82758E+04  6.22497E+04 -2.06948E+03  3.88208E+04  3.60919E+04
 -5.66934E+03  3.95385E+04 -3.30145E+04  1.98583E+04 -3.50331E+04 -2.47844E+03 -2.09433E+04 -1.26535E+04
 -9.84147E+03 -1.66800E+04 -1.92113E+02 -2.01184E+04  8.56506E+03 -2.32228E+04  1.66513E+04 -1.26844E+04
  9.97400E+03  7.28689E+03 -1.25008E+04  1.34502E+04 -2.35849E+04 -8.86397E+03 -8.79112E+03 -3.89623E+04
  2.59923E+04 -4.75733E+04  5.43535E+04 -2.15694E+04  5.04030E+04  2.16249E+04  1.77833E+04  4.89373E+04
 -1.63913E+04  3.78515E+04 -2.84916E+04  2.33812E+03 -1.24134E+04 -3.07990E+04  2.21439E+04 -3.87080E+04
  4.61838E+04 -1.34392E+04  4.27013E+04  2.64484E+04  2.24777E+04  5.27681E+04 -8.70455E+03  5.84821E+04
 -3.75104E+04  4.07800E+04 -5.01288E+04  1.19579E+04 -5.07234E+04 -1.94658E+04 -2.76737E+04 -4.44496E+04
  7.63033E+03 -4.38260E+04  3.57078E+04 -1.84392E+04  3.29587E+04  1.15813E+04  6.75710E+03  2.19532E+04
 -1.43233E+04  1.03970E+04 -1.12597E+04 -7.44669E+03  5.66916E+03 -1.22724E+04  2.02156E+04  6.01106E+03
  1.48880E+04  2.24645E+04 -4.87403E+03  2.78330E+04 -2.34600E+04  1.58805E+04 -3.24759E+04 -2.49983E+03
 -2.80675E+04 -1.90327E+04 -1.31486E+04 -2.70210E+04  4.53295E+03 -2.86998E+04  2.17136E+04 -2.53973E+04
  3.53482E+04 -1.52229E+04  4.03642E+04  5.57409E+03  2.77008E+04  2.67915E+04  4.71312E+03  4.39943E+04
 -2.17903E+04  3.65909E+04 -3.10941E+04  1.31735E+04 -2.35426E+04 -1.12819E+04 -5.41539E+03 -1.24578E+04
 -3.56414E+02 -1.53159E+03 -9.50938E+03  9.45035E+03 -2.30239E+04  4.66789E+03 -2.16570E+04 -1.07539E+04
 -1.27845E+04 -2.62983E+04  6.71440E+03 -3.06384E+04  2.04271E+04 -2.06055E+04  2.45540E+04 -1.71898E+03
  1.57290E+04  1.79981E+04 -2.21124E+03  2.48486E+04 -1.87405E+04  1.55909E+04 -2.64777E+04 -5.77354E+03
 -1.89492E+04 -2.40055E+04 -2.54045E+03 -3.09988E+04  1.46395E+04 -2.59879E+04  2.56829E+04 -1.32454E+04
  2.48848E+04 -1.24312E+03  1.79788E+04  5.39029E+03  9.22819E+03  1.72011E+03  1.30172E+04 -1.47169E+03
  2.45293E+04  2.49145E+03  2.87015E+04  1.96299E+04  2.04915E+04  4.04306E+04 -3.26417E+03  4.97770E+04
 -2.77055E+04  4.15681E+04 -4.80368E+04  2.15878E+04 -5.10457E+04 -4.31800E+03 -4.14770E+04 -2.98375E+04
 -1.60352E+04 -4.12241E+04  1.46375E+04 -3.67117E+04  3.17967E+04 -1.72294E+04  2.66659E+04  8.98382E+03
  8.60716E+03  2.11071E+04 -1.26539E+04  1.64794E+04 -2.32662E+04  3.04970E+03 -1.80100E+04 -1.38335E+04
 -3.35302E+02 -2.23754E+04  1.17907E+04 -1.63958E+04  1.44747E+04 -7.48299E+02  4.24957E+03  9.62145E+03
 -8.91285E+03  5.42764E+03 -9.99071E+03 -8.10560E+03 -2.70534E+03 -2.04914E+04  1.37952E+04 -2.29878E+04
  2.67821E+04 -1.40022E+04  3.12922E+04  3.74883E+03  2.78386E+04  2.22245E+04  1.32940E+04  3.42469E+04
 -7.46564E+03  3.58638E+04 -2.43070E+04  2.16401E+04 -2.69327E+04  4.36367E+03 -1.67408E+04 -7.19189E+03
 -8.78689E+03 -9.16795E+03 -5.19487E+02  8.23623E+01 -3.10241E+03  5.09360E+03 -8.87695E+03  6.92128E+03
 -1.66192E+04 -5.29667E+02 -1.69357E+04 -1.39503E+04 -6.30782E+03 -2.22184E+04  7.81194E+03 -1.87666E+04
  1.51032E+04 -7.06146E+03  1.06192E+04  4.82074E+03 -4.99493E+02  7.60025E+03 -9.28938E+03  2.80955E+02
 -9.08839E+03 -1.27795E+04 -1.29084E+03 -1.82797E+04  1.08265E+04 -2.02253E+04  2.30143E+04 -1.02988E+04
  2.78120E+04  3.15752E+03  2.03654E+04  1.77566E+04  3.83627E+03  2.31916E+04 -1.25878E+04  1.76311E+04
 -1.38630E+04  5.11986E+03 -6.96635E+03 -5.12365E+03  2.87727E+03 -5.14720E+03  9.62218E+03 -1.15008E+03
  8.75673E+03  8.17086E+03  1.26077E+03  1.50266E+04 -1.04554E+04  1.45653E+04 -1.80856E+04  2.51834E+03
 -1.26411E+04 -9.29917E+03  9.17168E+01 -1.54870E+04  1.01019E+04 -7.74683E+03  1.12609E+04  5.11730E+03
  3.64389E+03  1.26238E+04 -9.82403E+03  1.44407E+04 -1.77468E+04  5.99490E+03 -1.75439E+04 -6.67617E+03
 -1.03244E+04 -1.98250E+04  4.25471E+03 -2.19249E+04  1.89133E+04 -1.31062E+04  2.04889E+04  3.51197E+03
  1.21210E+04  1.55103E+04 -1.80607E+03  1.96774E+04 -1.46199E+04  9.75678E+03 -1.55262E+04 -2.02274E+03
 -1.22836E+04 -1.30242E+04 -2.09468E+03 -1.40922E+04  8.03029E+03 -1.07862E+04  9.57179E+03 -3.91267E+03
  6.42264E+03  2.94831E+03 -1.94680E+03  2.28001E+03 -1.85447E+03 -4.69298E+03  2.67902E+03 -9.16848E+03
  1.43921E+04 -7.22324E+03  2.01443E+04  1.74428E+03  2.01409E+04  1.47113E+04  1.20140E+04  2.58464E+04
 -6.91962E+03  2.99279E+04 -2.39740E+04  2.18104E+04 -3.25353E+04  4.16370E+03 -2.58711E+04 -1.10203E+04
 -1.23861E+04 -2.16501E+04 -2.50265E+02 -1.80572E+04  4.81476E+03 -1.11285E+04  6.62108E+03 -6.80983E+03
  3.94338E+03 -2.92436E+03  5.03891E+03 -5.02918E+03  7.03744E+03 -5.40794E+03  1.06507E+04 -3.06934E+03
  1.23648E+04  2.54131E+03  6.66415E+03  1.17078E+04 -2.69894E+03  1.48046E+04 -1.33123E+04  1.17734E+04
 -1.85598E+04 -1.54778E+03 -1.22087E+04 -1.51065E+04 -1.43116E+03 -2.07024E+04  1.05289E+04 -2.09704E+04
  2.22772E+04 -1.07296E+04  2.44966E+04  3.49839E+03  1.76100E+04  1.78916E+04  2.00360E+03  2.29656E+04
 -9.50422E+03  1.85582E+04 -1.32946E+04  6.13465E+03 -9.21722E+03 -1.57406E+03 -3.77516E+03 -3.49880E+03
 -1.07061E+03 -8.64206E+02 -3.47096E+03  3.56534E+03 -6.71427E+03  3.73389E+03 -1.23906E+04 -2.33120E+03
 -9.54751E+03 -1.22436E+04  1.12606E+02 -1.87137E+04  1.11351E+04 -1.73614E+04  1.89302E+04 -5.64974E+03
  1.90435E+04  9.22857E+03  7.76727E+03  1.70525E+04 -2.86230E+03  1.94709E+04 -1.45901E+04  1.18651E+04
 -1.72886E+04  1.23790E+03 -1.38524E+04 -1.18443E+04 -7.44933E+02 -1.54878E+04  9.48479E+03 -1.19884E+04
  1.22110E+04 -4.08968E+03  8.27457E+03  3.78478E+03  3.66030E+03  4.26517E+03  1.89864E+03  2.57825E+03
  3.00149E+03  1.69714E+03  4.95334E+03  2.19331E+03  5.30330E+03  7.09203E+03  5.21143E+03  1.01806E+04
 -4.08323E+03  1.50956E+04 -1.33301E+04  1.49706E+04 -2.06493E+04  3.46323E+03 -2.06919E+04 -8.22080E+03
 -9.23365E+03 -1.97118E+04  3.14272E+03 -2.16373E+04  1.22864E+04 -1.39540E+04  1.78262E+04 -4.43769E+03
  1.38512E+04  7.34581E+03  2.56506E+03  1.07916E+04 -6.11658E+03  7.93873E+03 -8.79044E+03 -1.78912E+03
 -4.47357E+03 -7.89395E+03  3.72530E+03 -8.98258E+03  7.94666E+03 -4.21383E+03  9.43000E+03  2.87583E+03
  5.13903E+03  3.66661E+03  2.24536E+03  3.87997E+03 -9.58028E+02  2.87479E+03  9.68354E+02 -7.93559E+02
  2.88126E+03 -4.80926E+02  8.00991E+03  4.22843E+03  5.31392E+03  1.11113E+04 -1.46452E+03  1.40770E+04
 -1.03063E+04  9.63612E+03 -1.36932E+04  2.36762E+03 -1.16102E+04 -4.35237E+03 -4.47997E+03 -8.31511E+03
  1.53200E+03 -7.71694E+03  5.50616E+03 -4.20359E+03  4.88135E+03  3.72026E+03 -2.24130E+03  6.73067E+03
 -8.48674E+03  4.12611E+03 -1.17596E+04 -4.00128E+03 -4.96596E+03 -1.17331E+04  2.00373E+03 -1.18818E+04
  7.29084E+03 -7.87987E+03  8.21994E+03 -2.09879E+03  5.86546E+03  3.78183E+03  8.83770E+02  6.14461E+03
 -4.86283E+03  1.44394E+03 -4.96533E+03 -4.74378E+03  2.92334E+03 -1.07318E+04  1.08949E+04 -7.25230E+03
  1.34353E+04  1.07201E+03  1.25565E+04  9.69043E+03  4.45440E+03  1.47575E+04 -4.90704E+03  1.38661E+04
 -1.07169E+04  5.41764E+03 -1.20971E+04 -1.69921E+03 -6.91770E+03 -8.26093E+03  1.47027E+03 -8.94025E+03
  9.37897E+03 -3.65125E+03  7.45200E+03  3.70910E+03  3.28696E+03  7.65229E+03 -1.29141E+03  6.73636E+03
 -3.42752E+03  3.65851E+03 -3.16160E+03  2.05692E+03 -1.15418E+03  1.47804E+03 -2.18302E+03  3.11541E+03
 -4.35770E+03  5.80943E+03 -8.54416E+03  5.66465E+03 -1.37529E+04  7.02184E+02 -1.60095E+04 -9.45827E+03
 -8.14779E+03 -1.83046E+04  3.53783E+03 -2.18724E+04  1.45393E+04 -1.68929E+04  2.08578E+04 -7.09987E+03
  2.02786E+04  4.41686E+03  1.25415E+04  1.32851E+04  1.45433E+03  1.54556E+04 -5.32170E+03  1.15536E+04
 -8.12515E+03  4.15820E+03 -4.87325E+03 -2.27020E+03 -2.41686E+03 -1.65914E+03 -8.41875E+02 -1.49490E+02
 -2.06754E+03  1.44368E+02 -3.38293E+03 -1.27518E+03 -1.45391E+03 -2.55959E+03  1.25149E+03 -5.95013E+03
  5.83876E+03 -5.29581E+03  9.68195E+03 -4.91686E+02  9.47032E+03  8.91588E+03  3.77098E+03  1.45589E+04
 -7.27774E+03  1.74325E+04 -1.64737E+04  1.04108E+04 -1.84212E+04 -4.61831E+02 -1.44531E+04 -1.12039E+04
 -5.11595E+03 -1.52646E+04  4.08427E+03 -1.54595E+04  9.91745E+03 -7.93800E+03  1.06082E+04  5.95531E+02
  5.96329E+03  5.79021E+03 -4.81896E+02  4.47376E+03 -2.41507E+03 -6.58219E+02 -3.56540E+02 -4.88295E+03
  4.42142E+03 -2.74815E+03  6.58084E+03  1.32970E+03  4.85040E+03  7.27841E+03  6.23654E+02  9.12831E+03
 -6.68350E+03  7.43926E+03 -1.23300E+04  1.03531E+02 -9.55886E+03 -8.33883E+03 -2.11169E+03 -1.28393E+04
  7.04789E+03 -1.10645E+04  1.31553E+04 -2.71700E+03  1.22372E+04  4.07529E+03  6.81374E+03  9.53916E+03
  1.25206E+03  1.00304E+04 -4.07633E+03  8.64149E+03 -7.86672E+03  3.77296E+03 -5.61371E+03  6.11637E+02
 -3.22009E+03  2.12597E+02 -4.05837E+03  9.80948E+02 -5.36436E+03  2.94343E+03 -7.35042E+03 -2.11635E+03
 -7.96647E+03 -5.49027E+03 -2.72489E+03 -1.05001E+04  4.88210E+03 -1.11726E+04  9.48583E+03 -5.15610E+03
  1.07171E+04  1.91043E+03  7.90751E+03  8.10990E+03 -1.24229E+03  1.15999E+04 -7.61380E+03  7.00343E+03
