 $NMID ID='MM_0lb_SNR400_19hz_g45_11.RAW', FMTDAT='(8E13.5)'
 TRAMP=1., VOLUME=1. $END
  3.09798E+05  6.97006E+02  3.37369E+05  2.50579E+05  8.40591E+04  3.37301E+05 -1.32657E+05  2.49716E+05
 -1.89319E+05  8.25874E+04 -1.10560E+05 -3.25690E+04  1.90623E+03 -5.03146E+04  5.35551E+04  8.43341E+01
  3.46902E+04  5.27621E+04 -1.68422E+04  7.41658E+04 -6.01787E+04  6.27669E+04 -8.24201E+04  3.17709E+04
 -7.92247E+04 -1.09486E+04 -5.58862E+04 -4.97989E+04 -1.45994E+04 -6.78274E+04  2.64717E+04 -4.44033E+04
  3.92379E+04  4.56941E+03  1.53280E+04  4.70108E+04 -3.39104E+04  4.63806E+04 -6.50594E+04 -3.79872E+02
 -5.15010E+04 -5.60501E+04 -5.86350E+03 -7.46902E+04  3.27801E+04 -5.32904E+04  4.60186E+04 -1.65458E+04
  4.13485E+04  1.06199E+04  3.10023E+04  2.41674E+04  1.58039E+04  2.84988E+04 -4.17513E+03  2.75198E+04
 -2.14515E+04  1.28784E+04 -1.93205E+04 -4.24077E+03  4.13499E+03 -7.41330E+03  2.12882E+04  1.06308E+04
  8.20018E+03  3.30537E+04 -3.00217E+04  3.36389E+04 -6.05747E+04  2.44799E+03 -5.53127E+04 -4.08337E+04
 -1.20219E+04 -6.06524E+04  3.81679E+04 -4.30428E+04  5.55072E+04 -2.19823E+03  3.14335E+04  3.00310E+04
 -6.36543E+03  3.19475E+04 -2.83719E+04  1.28641E+04 -2.73869E+04 -5.74302E+03 -1.40092E+04 -9.98950E+03
 -8.02642E+03 -1.14031E+04 -1.00640E+03 -1.60837E+04  6.26581E+03 -2.25352E+04  1.54923E+04 -1.42659E+04
  1.26107E+04  3.96468E+03 -5.74237E+03  1.31764E+04 -1.90305E+04 -2.70037E+03 -8.30846E+03 -2.99072E+04
  2.08501E+04 -4.01788E+04  4.40133E+04 -1.84619E+04  4.13309E+04  1.82139E+04  1.45098E+04  4.13797E+04
 -1.52354E+04  3.07176E+04 -2.30449E+04  1.32813E+03 -8.02658E+03 -2.58517E+04  2.07002E+04 -3.08899E+04
  3.69961E+04 -7.39681E+03  3.05341E+04  2.21912E+04  1.49818E+04  4.14535E+04 -7.85862E+03  4.44475E+04
 -2.78431E+04  2.88077E+04 -3.66371E+04  7.89674E+03 -3.79925E+04 -1.51312E+04 -2.09643E+04 -3.36520E+04
  6.99256E+03 -3.35227E+04  2.82821E+04 -1.27199E+04  2.60884E+04  1.08337E+04  2.61031E+03  1.73315E+04
 -1.24619E+04  6.79515E+03 -9.64572E+03 -7.88749E+03  5.70705E+03 -1.05821E+04  1.69367E+04  6.26286E+03
  1.23261E+04  2.16820E+04 -6.58245E+03  2.33771E+04 -2.13462E+04  9.12853E+03 -2.50662E+04 -6.32937E+03
 -1.60003E+04 -1.67091E+04 -4.61871E+03 -1.60475E+04  3.39087E+03 -1.41264E+04  1.22265E+04 -1.38214E+04
  2.04045E+04 -1.11049E+04  2.74379E+04  7.02258E+02  2.08308E+04  1.60810E+04  3.69874E+03  3.15313E+04
 -1.53894E+04  2.70017E+04 -2.55151E+04  8.97413E+03 -1.94125E+04 -1.04837E+04 -3.93296E+03 -1.45842E+04
  3.13708E+03 -4.25820E+03 -2.47416E+03  5.34324E+03 -1.24358E+04  5.30477E+03 -1.32973E+04 -5.32612E+03
 -8.21528E+03 -1.47843E+04  4.29850E+03 -1.90476E+04  1.22327E+04 -1.37725E+04  1.44405E+04 -1.84008E+03
  8.44967E+03  1.05385E+04 -7.86445E+02  1.54431E+04 -9.91677E+03  8.58922E+03 -1.51249E+04 -3.42844E+03
 -1.08692E+04 -1.33930E+04 -1.40976E+03 -1.78389E+04  8.58356E+03 -1.47537E+04  1.60148E+04 -6.77915E+03
  1.36188E+04  6.89180E+02  1.00921E+04  3.86415E+03  5.45957E+03  2.61391E+02  7.17785E+03 -1.72002E+03
  1.37221E+04  2.65048E+03  1.41195E+04  1.18214E+04  8.28652E+03  2.43889E+04 -3.10881E+03  2.52757E+04
 -1.47822E+04  1.95701E+04 -2.31418E+04  8.96306E+03 -2.36201E+04 -1.57893E+03 -2.02243E+04 -1.36391E+04
 -1.00104E+04 -1.94742E+04  5.75292E+03 -1.78563E+04  1.56129E+04 -1.02045E+04  1.50624E+04  3.55088E+03
  6.24956E+03  1.05902E+04 -7.12226E+03  9.87924E+03 -1.32782E+04  2.59553E+03 -1.00127E+04 -7.53718E+03
 -2.58446E+02 -1.23676E+04  5.54421E+03 -9.20425E+03  7.61782E+03 -1.25765E+03  1.24341E+03  4.74027E+03
 -5.59986E+03  5.41685E+02 -2.56195E+03 -4.79283E+03  1.72498E+03 -1.02258E+04  8.20058E+03 -9.45496E+03
  1.20959E+04 -4.65635E+03  1.12807E+04  2.40971E+03  9.35260E+03  9.03074E+03  4.74309E+03  1.28731E+04
 -1.74570E+03  1.54223E+04 -8.97891E+03  9.51591E+03 -1.05971E+04  3.24728E+03 -8.31915E+03 -2.12769E+03
 -5.05219E+03 -3.27996E+03 -1.03961E+03  1.09527E+03 -2.01424E+03  1.73907E+03 -3.60608E+03  3.71891E+03
 -7.36745E+03 -3.44066E+02 -8.82822E+03 -6.94917E+03 -3.23790E+03 -1.14209E+04  3.55349E+03 -8.25704E+03
  6.84335E+03 -3.57834E+03  5.11980E+03  1.92537E+03  4.95211E+02  2.61521E+03 -2.98224E+03 -1.07135E+02
 -3.58318E+03 -4.93386E+03 -6.63991E+02 -6.88230E+03  3.63229E+03 -7.55077E+03  9.39241E+03 -3.61613E+03
  1.13648E+04  1.17176E+03  7.85628E+03  5.67338E+03  2.14840E+03  8.08937E+03 -5.49293E+03  7.84919E+03
 -6.99044E+03  2.37948E+03 -3.41975E+03 -1.35513E+03  1.28955E+03 -2.12634E+03  4.57374E+03 -8.09493E+02
  3.94994E+03  3.13969E+03  7.79699E+02  6.60306E+03 -4.45814E+03  5.87492E+03 -8.07129E+03  8.63765E+02
 -4.37153E+03 -3.07060E+03  4.48493E+02 -6.15617E+03  4.01246E+03 -2.70861E+03  2.73688E+03  4.71041E+02
  6.34389E+02  3.18839E+03 -3.56092E+03  4.41763E+03 -4.56538E+03  2.13959E+03 -4.44647E+03 -1.52390E+03
 -2.68702E+03 -5.94437E+03  1.42584E+03 -6.57911E+03  5.45372E+03 -4.00681E+03  6.15793E+03  8.63661E+02
  4.19551E+03  4.60230E+03  5.02003E+02  6.39428E+03 -4.25167E+03  4.11917E+03 -4.50145E+03 -2.40737E+02
 -5.41797E+03 -4.06727E+03 -1.53709E+03 -4.34931E+03  2.24787E+03 -4.48771E+03  2.97992E+03 -2.87945E+03
  2.85098E+03  1.71583E+02 -1.67747E+02  1.04830E+03  1.02177E+03 -3.43377E+02  1.59598E+02 -1.72772E+03
  3.23149E+03 -6.84829E+02  5.05213E+03  3.99211E+02  5.68639E+03  3.15810E+03  4.68180E+03  5.94561E+03
 -1.09283E+03  8.13182E+03 -7.26786E+03  5.62723E+03 -8.95641E+03  1.45656E+03 -7.15668E+03 -2.24793E+03
 -3.82450E+03 -5.35186E+03  2.18380E+02 -4.59662E+03  1.54631E+03 -1.51020E+03  1.10734E+03 -2.20919E+03
  1.41211E+03 -1.30205E+03  2.22873E+03 -2.09447E+03  3.48785E+03 -1.76548E+03  3.32769E+03  7.57746E+02
  3.99803E+03  1.28811E+03  6.00481E+02  2.55556E+03 -1.47164E+03  2.55687E+03 -4.34375E+03  2.37013E+03
 -4.44322E+03 -9.17827E+02 -1.50752E+03 -2.75670E+03  5.44148E+02 -4.54538E+03  3.15330E+03 -4.94396E+03
  4.74060E+03 -2.86615E+03  6.40212E+03  7.33097E+02  5.09643E+03  3.70565E+03  9.18904E+02  5.69197E+03
 -2.46171E+03  5.75264E+03 -2.80014E+03  1.91099E+03 -1.51200E+03 -8.90353E+02 -1.20606E+02 -7.04596E+02
 -5.61986E+02  8.18741E+02 -7.54230E+02  2.23139E+03 -2.69840E+03  1.20751E+03 -3.41732E+03  3.49568E+01
 -1.15841E+03 -3.94283E+03  5.10194E+02 -4.31423E+03  2.93328E+03 -3.38419E+03  3.17935E+03 -9.74652E+02
  3.65118E+03  2.54300E+03  1.73586E+03  3.01086E+03 -7.12247E+02  3.81367E+03 -2.57960E+03  2.30445E+03
 -3.11271E+03  1.23425E+03 -2.84348E+03 -2.60690E+03 -6.28252E+01 -2.36281E+03  1.40283E+03 -2.58220E+03
  2.26399E+03 -1.52319E+03  1.28432E+03  3.50521E+02  5.89876E+02  1.22369E+03  7.50342E+02  3.40965E+02
  1.46504E+03  6.41369E+02  8.46728E+02  1.01821E+03  1.13511E+03  2.49178E+03  1.45544E+03  1.90665E+03
 -1.08579E+03  2.37708E+03 -2.48971E+03  3.76666E+03 -2.84935E+03  1.41377E+03 -3.60376E+03 -2.27337E+02
 -1.26127E+03 -3.11531E+03  1.09663E+03 -4.11860E+03  1.47969E+03 -2.11229E+03  2.11305E+03 -9.12041E+02
  2.45974E+03  1.26889E+03  3.74871E+02  2.04798E+03 -8.46623E+02  1.05543E+03 -9.27418E+02 -5.34161E+02
 -7.43921E+02 -1.13915E+03  1.17487E+03 -1.33295E+03  1.50306E+03 -1.15817E+03  1.34387E+03  2.43574E+02
  9.68154E+02 -1.94722E+02  8.36554E+02 -7.88305E+02 -2.03971E+02  1.11507E+03  1.44692E+03  1.46594E+02
 -1.89865E+02 -1.56036E+02  1.58351E+03  6.35141E+02 -3.47846E+02  2.07393E+03  1.53726E+01  2.73799E+03
 -1.76888E+03  9.89785E+02 -2.33132E+03  8.06951E+02 -2.17441E+03 -8.69962E+02 -5.01776E+02 -6.97642E+02
  4.23598E+01 -3.85702E+02  3.99328E+02 -6.22562E+02  4.97871E+02  5.12914E+02 -7.01918E+02  7.01628E+02
 -1.07012E+03  7.12750E+02 -1.05627E+03 -1.19053E+03 -1.11237E+03 -1.87376E+03  2.28824E+02 -1.07837E+03
  5.49490E+02 -4.62397E+02  5.94030E+02 -4.57932E+01  1.05978E+03 -2.44018E+01  2.52235E+02  1.23864E+03
 -2.08946E+02  5.11848E+02 -6.10283E+02 -3.27666E+02  5.93300E+02 -1.25046E+03  1.74139E+03 -7.93953E+02
  1.31424E+03  4.24898E+02  2.71613E+03  4.03128E+02  1.11273E+03  1.57295E+03  5.37279E+01  1.87476E+03
 -9.79704E+02  5.24983E+02 -1.01034E+03 -2.95635E+02 -8.93365E+02 -1.13361E+03  1.82473E+02 -1.98463E+02
  1.59138E+03 -6.84191E+02  8.97550E+02  2.02720E+02 -3.78538E+02  1.12178E+03  6.92514E+02  1.04574E+03
 -7.12082E+02  1.03398E+03 -3.34665E+02  8.21540E+02  4.69077E+02  7.30653E+02 -8.13882E+02  6.69343E+02
 -4.78014E+02  7.12729E+02 -1.17032E+03  5.63946E+02 -1.57363E+03  8.67256E+02 -1.98986E+03 -2.22143E+02
 -4.31453E+02 -1.49982E+03  3.49684E+02 -2.26112E+03  7.29039E+02 -2.75094E+03  2.18143E+03 -1.01261E+03
  2.67515E+03 -1.87726E+01  5.73507E+02  1.07834E+03 -2.34573E+02  1.59324E+03 -6.49867E+02  1.00348E+03
 -1.01108E+03  9.17375E+02 -6.33223E+02 -3.77088E+02 -3.35355E+02  3.95063E+02 -8.02592E+02  3.98060E+01
 -8.74370E+02  1.01086E+01 -7.45623E+02  1.21058E+02  3.56100E+02 -3.05644E+02 -3.48735E+01 -1.05615E+03
  1.15731E+03 -9.35762E+02  6.19084E+02  5.58758E+02  1.67258E+03  1.16047E+03 -7.09714E+02  1.00301E+03
 -6.52445E+02  2.47474E+03 -1.84215E+03  1.63493E+03 -1.81903E+03 -1.96448E+02 -1.23571E+03 -1.47083E+03
 -1.08205E+03 -1.00714E+03  2.59875E+02 -1.03161E+03  7.30124E+02 -3.67907E+02  3.78465E+02  5.02030E+00
  7.82880E+02  2.71305E+02 -2.39104E+02 -4.79656E+01 -3.56979E+02  1.77248E+02  1.74531E+02 -3.80452E+02
  6.98890E+02  1.70495E+02 -1.36443E+02  5.78360E+02 -1.49033E+02  4.11808E+02  6.95611E+02 -1.42817E+02
 -4.72618E+02  5.68022E+02 -7.06934E+02  2.76854E+02 -3.08913E+02 -6.61201E+02 -9.91735E+01 -1.26319E+03
 -7.56128E+01 -6.63267E+02  5.52823E+02  1.13219E+02  1.12138E+03 -2.66227E+02  5.37662E+02  5.70945E+02
  4.70325E+02  9.08179E+01 -2.18250E+02 -5.68303E+01 -7.81026E+02  2.24421E+02 -2.84221E+01  7.66561E+02
 -5.17100E+01 -1.04085E+02  1.15125E+02 -8.16793E+01 -5.28549E+02 -1.06646E+02 -9.46881E+02 -3.57691E+01
 -1.56807E+03  5.32284E+02  2.60904E+02 -1.29629E+03  3.76758E+02 -1.75036E+03  8.00531E+02  5.48287E+01
  1.05419E+03  7.92411E+01  1.57018E+02  1.05065E+02  3.90437E+01  6.39826E+02 -5.45172E+02  5.19154E+02
