 $NMID ID='MM_0lb_SNR400_20hz_g55_64.RAW', FMTDAT='(8E13.5)'
 TRAMP=1., VOLUME=1. $END
  3.10126E+05  7.39197E+02  3.37283E+05  2.50588E+05  8.43952E+04  3.37311E+05 -1.32238E+05  2.50645E+05
 -1.89905E+05  8.27984E+04 -1.10956E+05 -3.26752E+04  9.85002E+02 -5.02757E+04  5.39308E+04 -2.14369E+02
  3.49164E+04  5.29667E+04 -1.67860E+04  7.49330E+04 -5.99441E+04  6.30076E+04 -8.28518E+04  3.16644E+04
 -7.99349E+04 -1.14219E+04 -5.60434E+04 -5.03249E+04 -1.49363E+04 -6.82366E+04  2.66425E+04 -4.49139E+04
  3.93647E+04  4.50669E+03  1.58038E+04  4.72676E+04 -3.45252E+04  4.61320E+04 -6.57507E+04 -3.61818E+02
 -5.27792E+04 -5.56307E+04 -6.41518E+03 -7.56965E+04  3.33141E+04 -5.33995E+04  4.63559E+04 -1.61189E+04
  4.18812E+04  1.11275E+04  3.09982E+04  2.44647E+04  1.59445E+04  2.82485E+04 -5.00154E+03  2.69344E+04
 -2.18220E+04  1.28014E+04 -1.93163E+04 -3.82960E+03  4.41708E+03 -7.11961E+03  2.10564E+04  1.07901E+04
  7.30537E+03  3.33935E+04 -3.08014E+04  3.40494E+04 -6.15366E+04  2.15186E+03 -5.53254E+04 -4.18887E+04
 -1.26011E+04 -6.09155E+04  3.80833E+04 -4.31757E+04  5.55425E+04 -2.44235E+03  3.19785E+04  2.97472E+04
 -6.64730E+03  3.27383E+04 -2.86092E+04  1.31486E+04 -2.84019E+04 -5.03224E+03 -1.43324E+04 -1.06112E+04
 -7.13231E+03 -1.16853E+04 -6.83337E+02 -1.66877E+04  6.92874E+03 -2.27374E+04  1.45204E+04 -1.39221E+04
  1.21164E+04  4.37385E+03 -6.36234E+03  1.27629E+04 -1.93765E+04 -2.44581E+03 -8.10408E+03 -3.07216E+04
  2.08261E+04 -4.07024E+04  4.48316E+04 -1.81827E+04  4.21980E+04  1.79199E+04  1.40569E+04  4.21370E+04
 -1.53420E+04  3.12776E+04 -2.30880E+04  8.79613E+02 -8.64838E+03 -2.70994E+04  2.02985E+04 -3.11308E+04
  3.78675E+04 -7.60855E+03  3.17204E+04  2.23705E+04  1.54455E+04  4.29933E+04 -7.48939E+03  4.51520E+04
 -2.87013E+04  2.98611E+04 -3.68965E+04  8.06879E+03 -3.86493E+04 -1.50212E+04 -2.10325E+04 -3.45527E+04
  6.60107E+03 -3.39508E+04  2.93519E+04 -1.26768E+04  2.67018E+04  1.06989E+04  2.73249E+03  1.78837E+04
 -1.30849E+04  7.45978E+03 -9.27057E+03 -7.67338E+03  6.11883E+03 -1.03554E+04  1.69023E+04  6.81678E+03
  1.18827E+04  2.16929E+04 -6.60992E+03  2.33164E+04 -2.16048E+04  9.33650E+03 -2.57113E+04 -6.42018E+03
 -1.61784E+04 -1.64338E+04 -5.36895E+03 -1.68286E+04  3.75139E+03 -1.45331E+04  1.24671E+04 -1.40606E+04
  2.12377E+04 -1.15736E+04  2.76433E+04  9.99717E+02  2.14192E+04  1.61699E+04  4.16853E+03  3.19929E+04
 -1.59266E+04  2.75263E+04 -2.59912E+04  9.22471E+03 -1.91884E+04 -1.09014E+04 -3.88501E+03 -1.40375E+04
  2.50386E+03 -4.23806E+03 -2.41302E+03  5.27981E+03 -1.29866E+04  5.52380E+03 -1.34485E+04 -4.85278E+03
 -8.60433E+03 -1.54345E+04  4.30289E+03 -1.90639E+04  1.26246E+04 -1.42042E+04  1.42653E+04 -1.71677E+03
  8.58402E+03  1.07632E+04 -1.00787E+03  1.54265E+04 -9.84284E+03  8.09596E+03 -1.50614E+04 -3.79909E+03
 -1.17397E+04 -1.40247E+04 -1.96527E+03 -1.86181E+04  8.21574E+03 -1.49493E+04  1.59889E+04 -7.02864E+03
  1.39556E+04  9.05860E+02  9.94402E+03  3.94059E+03  5.23539E+03  6.31883E+02  6.86793E+03 -1.06969E+03
  1.35535E+04  2.39422E+03  1.43004E+04  1.26971E+04  8.60973E+03  2.39294E+04 -2.71675E+03  2.56950E+04
 -1.57396E+04  1.97056E+04 -2.37312E+04  9.33681E+03 -2.40722E+04 -1.75642E+03 -2.00968E+04 -1.37889E+04
 -9.74062E+03 -1.99020E+04  6.65194E+03 -1.85315E+04  1.59298E+04 -1.02799E+04  1.51771E+04  3.55293E+03
  5.90889E+03  1.10682E+04 -6.86052E+03  9.78838E+03 -1.32394E+04  2.04433E+03 -9.46658E+03 -7.87662E+03
 -1.15349E+02 -1.20045E+04  6.01969E+03 -9.20653E+03  7.63256E+03 -1.31025E+03  1.12278E+03  4.77416E+03
 -5.32838E+03  1.21655E+03 -3.52410E+03 -4.49453E+03  3.15427E+02 -9.65130E+03  7.62796E+03 -9.66837E+03
  1.12970E+04 -4.53459E+03  1.09909E+04  3.02663E+03  9.59887E+03  8.48774E+03  4.69533E+03  1.35268E+04
 -1.19892E+03  1.53374E+04 -8.89142E+03  8.82758E+03 -1.09195E+04  3.00027E+03 -7.65220E+03 -2.27643E+03
 -4.68717E+03 -3.38893E+03 -7.60711E+02  1.54564E+03 -2.09218E+03  1.79346E+03 -3.62437E+03  3.43841E+03
 -8.06298E+03 -1.74142E+02 -8.80676E+03 -6.82435E+03 -3.18751E+03 -1.14409E+04  3.21238E+03 -8.19528E+03
  6.44426E+03 -3.23011E+03  4.78604E+03  1.86707E+03  5.49548E+02  3.29584E+03 -2.99008E+03  4.26523E+02
 -3.19102E+03 -4.80866E+03 -1.16379E+03 -6.53629E+03  3.88567E+03 -7.22368E+03  9.21694E+03 -3.85524E+03
  1.08636E+04  2.53103E+02  7.98587E+03  5.73857E+03  1.97093E+03  8.13410E+03 -4.80123E+03  7.92076E+03
 -6.75128E+03  2.35911E+03 -3.32028E+03 -9.46681E+02  1.30350E+03 -1.84401E+03  4.14450E+03 -7.33708E+02
  4.11154E+03  3.29077E+03  7.35899E+02  5.57138E+03 -4.12466E+03  6.50412E+03 -6.91897E+03  1.46116E+03
 -4.39515E+03 -3.27309E+03  3.03689E+02 -6.15085E+03  3.69452E+03 -2.93408E+03  3.57683E+03  1.06439E+03
  3.37529E+02  2.56743E+03 -3.82424E+03  3.93526E+03 -4.32357E+03  2.18652E+03 -3.79150E+03 -3.17255E+02
 -2.90627E+03 -5.15259E+03  1.02647E+03 -6.74035E+03  5.97603E+03 -4.27957E+03  6.20928E+03  7.13956E+02
  4.02721E+03  4.27978E+03  8.64293E+02  6.68950E+03 -4.04759E+03  3.38702E+03 -4.54786E+03 -6.05455E+01
 -5.99306E+03 -4.69685E+03 -9.98613E+02 -4.86323E+03  2.88310E+03 -4.28555E+03  2.82675E+03 -3.06664E+03
  2.82690E+03 -2.26256E+02  2.47078E+02  9.55142E+02  9.13659E+02 -4.81607E+02  1.49740E+02 -1.30174E+03
  3.17877E+03  4.21375E+01  4.44158E+03 -2.37936E+01  5.29505E+03  2.56239E+03  4.95144E+03  6.42650E+03
 -2.32369E+02  7.36192E+03 -6.61768E+03  5.78891E+03 -8.74294E+03  1.16261E+03 -6.82254E+03 -1.91873E+03
 -3.56488E+03 -5.69272E+03 -4.36480E+02 -4.63741E+03  2.16572E+03 -1.85042E+03  1.29564E+03 -2.24798E+03
  1.28640E+03 -1.86391E+03  2.12994E+03 -2.51433E+03  3.52856E+03 -1.37296E+03  2.90265E+03  5.46878E+02
  4.43611E+03  9.98302E+02  7.78896E+02  2.78931E+03 -1.84713E+03  2.16131E+03 -4.01733E+03  1.84687E+03
 -3.93700E+03 -1.00357E+03 -1.18313E+03 -2.79704E+03  4.88653E+02 -4.09045E+03  3.41465E+03 -4.74548E+03
  3.74398E+03 -2.61300E+03  5.78249E+03  1.55657E+02  4.25462E+03  3.30570E+03  6.82991E+02  4.51628E+03
 -1.87462E+03  4.90966E+03 -2.63610E+03  1.69181E+03 -1.06486E+03 -6.62803E+02 -3.79237E+01 -6.07498E+02
 -3.83640E+02  7.18446E+02 -6.69809E+02  2.10395E+03 -2.53867E+03  8.49682E+02 -3.95605E+03 -3.91864E+01
 -1.41785E+03 -3.80274E+03  8.40046E+02 -3.98234E+03  1.82943E+03 -3.38760E+03  2.53488E+03 -8.73129E+02
  3.54651E+03  2.36612E+03  1.12044E+03  2.61969E+03 -4.36391E+02  3.17243E+03 -2.82305E+03  1.90715E+03
 -3.07246E+03  6.80055E+02 -2.62208E+03 -1.82845E+03 -1.16703E+02 -2.52544E+03  1.32781E+03 -2.42136E+03
  2.30790E+03 -1.46560E+03  6.57578E+02  6.82972E+02  7.42406E+02  1.33659E+03  1.36064E+03  7.53669E+02
  1.68764E+03  8.00920E+02  8.92916E+02  1.02643E+03  7.68254E+02  1.85895E+03  1.38527E+03  1.40476E+03
 -1.63478E+03  2.17574E+03 -2.44976E+03  3.39230E+03 -1.83625E+03  1.15178E+03 -3.45570E+03  5.08271E+02
 -1.06838E+03 -2.32822E+03  3.06553E+02 -3.87542E+03  1.36911E+03 -2.04348E+03  2.31901E+03 -1.31247E+03
  1.86961E+03  1.59759E+03  1.21717E+02  1.53203E+03 -8.59120E+02  1.22867E+03 -4.07308E+02  2.02929E+02
 -4.99952E+02 -1.37138E+03  1.02258E+03 -9.03983E+02  3.85030E+02 -1.04880E+03  1.19781E+03  5.19033E+02
  1.74161E+02 -2.43212E+01  5.08998E+02 -5.80009E+02  1.15077E+02  1.07803E+03  1.68148E+03  2.98646E+02
  1.85654E+02  1.49073E+01  1.63378E+03  4.90630E+02  2.73442E+02  2.18688E+03  7.91812E+00  2.14170E+03
 -1.54314E+03  1.05333E+03 -1.42139E+03  2.44065E+02 -1.79203E+03 -1.09233E+03  3.81070E+02  5.46688E+01
  5.06019E+02 -1.06175E+03  9.00521E+01 -9.91687E+01  5.66293E+02  8.92438E+02 -1.10073E+03  8.11336E+02
 -9.46055E+02  5.82937E+02 -7.44165E+02 -8.50897E+02 -5.24318E+02 -1.41645E+03  1.17564E+02 -1.06422E+03
 -1.61426E+02 -1.77547E+02  4.02376E+02  3.09329E+02  1.16085E+03 -6.41673E+02  1.05791E+03  8.40221E+02
 -9.99235E+01 -5.46359E+02 -1.14961E+03 -1.89897E+02  7.89563E+02 -1.73359E+01  1.12771E+03 -5.75551E+02
  4.68568E+02  3.83339E+02  2.43847E+03 -2.64257E+02  1.00214E+03  8.06329E+02  4.85314E+01  1.85807E+03
 -1.28652E+03  7.43067E+02 -1.25516E+03  1.72994E+02 -7.19538E+02 -7.39261E+02  6.83271E+02  9.83457E+01
  1.19397E+03 -3.75445E+02  5.27063E+02  7.48337E+02 -8.69018E+01  8.93571E+02  4.76292E+02  9.11298E+02
 -1.52318E+02  1.28241E+03 -1.21736E+03  1.37507E+02  2.42245E+02  6.53639E+02 -9.18398E+02  2.43532E+02
 -4.97608E+02  9.51729E+02 -1.53251E+03  4.66810E+02 -9.73108E+02 -1.22553E+01 -1.80237E+03 -5.07890E+02
 -5.87196E+02 -1.24151E+03  2.21195E+02 -2.02077E+03  8.94936E+01 -2.23488E+03  2.17099E+03 -6.90042E+02
  1.74703E+03 -2.64588E+02  1.14154E+03  1.10063E+03 -2.83101E+02  1.06392E+03 -4.61665E+02  5.65742E+02
 -4.63401E+02  9.50186E+02 -9.95639E+01 -2.45543E+02 -4.14607E+02 -9.55695E+01 -5.16955E+02  2.21208E+02
 -5.77698E+02 -1.61155E+02 -1.02780E+03  1.48975E+02  3.44924E+02 -4.83747E+02 -2.49924E+02 -9.27708E+02
  4.68463E+02 -1.19178E+03 -1.00797E+02  8.33293E+01  6.20627E+02  4.13791E+02 -1.00835E+03  1.05576E+03
 -8.58807E+02  1.61358E+03 -1.12384E+03  9.90846E+02 -1.03011E+03 -8.32148E+01 -1.07661E+03 -4.66721E+02
 -4.61910E+02 -5.12193E+02  3.93255E+02 -5.25601E+02  3.31606E+02 -1.58581E+02 -6.01693E+01  9.17099E+01
  3.84516E+02 -2.31403E+02 -1.01304E+02 -1.43495E+02 -1.04281E+03 -1.90904E+02  1.70720E+02 -6.81167E+02
  3.29955E+02  4.57672E+02 -6.26462E+02  7.05825E+02  1.86327E+02  4.63857E+02  2.91712E+02  6.04019E+02
 -5.61928E+02  5.13532E+02 -9.04876E+01  4.50479E+01 -1.93173E+02 -1.18696E+01 -4.83047E+02 -9.31067E+02
  8.39326E+01  1.17052E+02  3.41941E+02 -6.90884E+02  4.53770E+02 -2.49108E+02  4.38320E+02  8.61435E+02
  3.50751E+02  3.67746E+02  1.42833E+02  7.26735E+02 -7.27285E+01  5.48345E+02 -2.27954E+02 -2.40728E+01
  2.68077E+01 -8.66535E+01  2.50791E+02 -4.55958E+02 -2.40424E+02  9.13773E+01 -7.48943E+01 -2.19587E+02
 -7.14325E+02  7.44017E+02 -2.43500E+02 -5.84171E+02  6.25184E+01 -1.74477E+03  5.09881E+02  1.90488E+02
  1.96875E+02  3.36341E+02 -5.47920E+02 -1.20532E+02  1.26215E+02 -1.96695E+01 -6.27608E+01  5.08861E+02
