 $NMID ID='MM_0lb_SNR400_9hz_g40_46.RAW', FMTDAT='(8E13.5)'
 TRAMP=1., VOLUME=1. $END
  3.10124E+05  1.76018E+02  3.37997E+05  2.49421E+05  8.50901E+04  3.38718E+05 -1.32916E+05  2.51981E+05
 -1.91390E+05  8.32142E+04 -1.11913E+05 -3.26882E+04  5.11289E+02 -5.06572E+04  5.32521E+04 -5.78460E+00
  3.53796E+04  5.27591E+04 -1.65021E+04  7.66367E+04 -6.09636E+04  6.42521E+04 -8.51859E+04  3.19817E+04
 -8.22454E+04 -1.14243E+04 -5.75489E+04 -5.19820E+04 -1.54979E+04 -7.07654E+04  2.80533E+04 -4.61628E+04
  4.12446E+04  3.59130E+03  1.64948E+04  4.81754E+04 -3.48671E+04  4.80197E+04 -6.82887E+04 -4.41945E+02
 -5.43130E+04 -5.77858E+04 -7.22426E+03 -7.79464E+04  3.52229E+04 -5.66721E+04  4.91579E+04 -1.81149E+04
  4.45150E+04  1.12074E+04  3.24796E+04  2.65698E+04  1.55572E+04  3.08225E+04 -6.01390E+03  2.82565E+04
 -2.22187E+04  1.19734E+04 -1.78157E+04 -6.12105E+03  8.09658E+03 -7.33558E+03  2.31982E+04  1.33884E+04
  6.93265E+03  3.65719E+04 -3.35017E+04  3.71164E+04 -6.50381E+04  2.65908E+03 -5.82558E+04 -4.41548E+04
 -1.24953E+04 -6.45918E+04  4.09104E+04 -4.76221E+04  6.03829E+04 -2.48998E+03  3.65504E+04  3.38179E+04
 -5.53024E+03  3.83532E+04 -3.16293E+04  1.82512E+04 -3.25209E+04 -3.79750E+03 -1.94023E+04 -1.22341E+04
 -9.30754E+03 -1.50278E+04 -1.02337E+03 -1.90945E+04  8.91165E+03 -2.32486E+04  1.61762E+04 -1.29282E+04
  1.06889E+04  5.43660E+03 -9.77283E+03  1.21849E+04 -2.30853E+04 -6.26651E+03 -8.22271E+03 -3.65650E+04
  2.50708E+04 -4.62694E+04  5.21524E+04 -2.05142E+04  4.84964E+04  1.99310E+04  1.67974E+04  4.60561E+04
 -1.65073E+04  3.53157E+04 -2.65252E+04  2.08046E+03 -1.11445E+04 -2.90909E+04  2.09804E+04 -3.60565E+04
  4.39453E+04 -1.16766E+04  3.99317E+04  2.49059E+04  2.05891E+04  5.08624E+04 -7.86849E+03  5.46337E+04
 -3.50174E+04  3.72713E+04 -4.62944E+04  1.07151E+04 -4.74718E+04 -1.78459E+04 -2.61045E+04 -4.14191E+04
  7.80261E+03 -4.15208E+04  3.30241E+04 -1.75398E+04  3.15516E+04  1.08770E+04  4.65576E+03  2.09310E+04
 -1.41394E+04  8.98452E+03 -1.14690E+04 -8.14602E+03  6.44044E+03 -1.15017E+04  1.89612E+04  5.95865E+03
  1.51707E+04  2.24959E+04 -5.77032E+03  2.69878E+04 -2.30226E+04  1.31423E+04 -3.14021E+04 -3.34899E+03
 -2.53894E+04 -1.81358E+04 -1.09496E+04 -2.44423E+04  4.04108E+03 -2.42612E+04  1.77098E+04 -2.16636E+04
  3.08756E+04 -1.37156E+04  3.67071E+04  4.23859E+03  2.64137E+04  2.34423E+04  3.94104E+03  4.05286E+04
 -1.86544E+04  3.29087E+04 -3.01688E+04  1.12972E+04 -2.23478E+04 -9.44111E+03 -5.13166E+03 -1.29373E+04
  9.86905E+02 -1.94174E+03 -7.26976E+03  7.73312E+03 -1.98766E+04  5.12002E+03 -2.01735E+04 -9.74925E+03
 -1.18980E+04 -2.23934E+04  6.05163E+03 -2.69677E+04  1.76915E+04 -1.93627E+04  2.20420E+04 -1.84504E+03
  1.37363E+04  1.56502E+04 -1.60801E+03  2.24857E+04 -1.61153E+04  1.17789E+04 -2.19040E+04 -4.81183E+03
 -1.51439E+04 -1.93957E+04 -2.16402E+03 -2.71247E+04  1.17846E+04 -2.32036E+04  2.25922E+04 -1.15399E+04
  2.12142E+04 -4.60473E+02  1.55309E+04  5.36231E+03  8.07455E+03  1.10723E+03  1.15730E+04 -1.83685E+03
  2.12137E+04  2.92169E+03  2.41291E+04  1.79602E+04  1.61923E+04  3.63918E+04 -2.43472E+03  4.15140E+04
 -2.46814E+04  3.52155E+04 -3.98702E+04  1.86937E+04 -4.30793E+04 -2.35537E+03 -3.50995E+04 -2.50158E+04
 -1.38560E+04 -3.51396E+04  1.28735E+04 -3.11262E+04  2.56183E+04 -1.47605E+04  2.32760E+04  7.05881E+03
  8.40408E+03  1.83841E+04 -1.09624E+04  1.58093E+04 -1.92345E+04  2.05476E+03 -1.47303E+04 -1.19726E+04
 -1.40731E+03 -1.91963E+04  9.37570E+03 -1.32866E+04  1.34411E+04 -1.32441E+03  2.83952E+03  8.69084E+03
 -8.12297E+03  4.73442E+03 -8.33035E+03 -6.63615E+03 -1.56991E+03 -1.73204E+04  1.15528E+04 -1.91575E+04
  2.22329E+04 -1.07455E+04  2.42813E+04  2.82854E+03  2.12828E+04  1.70940E+04  1.02635E+04  2.75815E+04
 -4.91321E+03  2.95397E+04 -1.96263E+04  1.84839E+04 -2.19508E+04  3.61628E+03 -1.44420E+04 -5.03084E+03
 -5.86313E+03 -7.56329E+03 -1.09972E+03  3.02050E+02 -2.58172E+03  3.20024E+03 -7.47104E+03  5.22329E+03
 -1.47054E+04 -9.47853E+02 -1.42407E+04 -1.13727E+04 -5.57331E+03 -1.85664E+04  6.76065E+03 -1.41065E+04
  1.17589E+04 -6.61711E+03  8.27245E+03  3.82615E+03 -3.17977E+02  6.02222E+03 -7.52513E+03 -8.42034E+02
 -7.28393E+03 -9.07995E+03 -6.02457E+02 -1.49233E+04  8.37529E+03 -1.57236E+04  1.94430E+04 -8.60974E+03
  2.25307E+04  2.60606E+03  1.66549E+04  1.35007E+04  3.39575E+03  1.87463E+04 -9.46946E+03  1.53455E+04
 -1.18020E+04  4.84903E+03 -6.34302E+03 -2.85678E+03  2.69764E+03 -4.01054E+03  8.00153E+03 -1.26124E+03
  6.55828E+03  6.66567E+03  6.30840E+02  1.26261E+04 -8.41402E+03  1.15795E+04 -1.56361E+04  2.07438E+03
 -9.47221E+03 -7.66339E+03  2.37831E+02 -1.30604E+04  7.39451E+03 -6.64094E+03  8.50791E+03  3.19309E+03
  2.47557E+03  9.32272E+03 -7.81583E+03  1.10937E+04 -1.27280E+04  5.25065E+03 -1.31191E+04 -5.00901E+03
 -7.81557E+03 -1.53468E+04  3.50623E+03 -1.67638E+04  1.51664E+04 -1.03035E+04  1.56425E+04  2.69006E+03
  9.39543E+03  1.19849E+04 -1.18100E+03  1.56574E+04 -1.10539E+04  8.31085E+03 -1.11316E+04 -1.27297E+02
 -1.00944E+04 -9.75696E+03 -2.02414E+03 -1.11419E+04  5.42689E+03 -9.42236E+03  7.45935E+03 -3.39968E+03
  4.61150E+03  2.33597E+03 -9.69244E+02  2.27677E+03 -1.18448E+03 -3.08538E+03  2.06697E+03 -7.26408E+03
  1.02963E+04 -4.63254E+03  1.54739E+04  1.40577E+03  1.47826E+04  1.01082E+04  9.91074E+03  1.94373E+04
 -4.89208E+03  2.26049E+04 -1.88552E+04  1.67972E+04 -2.49262E+04  3.20960E+03 -1.99003E+04 -8.31337E+03
 -9.33169E+03 -1.62216E+04 -7.32334E+02 -1.40899E+04  4.74068E+03 -7.80681E+03  5.39256E+03 -5.35694E+03
  3.94981E+03 -2.74191E+03  3.61754E+03 -3.18382E+03  5.05763E+03 -3.01825E+03  7.54163E+03 -6.21671E+02
  1.04224E+04  2.03970E+03  5.22946E+03  8.93603E+03 -2.06545E+03  1.10510E+04 -1.09327E+04  7.89154E+03
 -1.40925E+04 -1.49868E+03 -8.77275E+03 -1.01083E+04 -9.94468E+02 -1.51007E+04  9.36144E+03 -1.50207E+04
  1.61516E+04 -8.81798E+03  1.81684E+04  2.68361E+03  1.27563E+04  1.20789E+04  1.73721E+03  1.61291E+04
 -6.16907E+03  1.34239E+04 -1.04805E+04  5.03647E+03 -7.21415E+03 -2.07233E+03 -2.86762E+03 -1.69870E+03
 -3.70300E+02 -1.20493E+02 -2.71529E+03  2.82204E+03 -6.20645E+03  1.98939E+03 -9.19897E+03 -1.46369E+03
 -6.32929E+03 -8.57534E+03  6.00352E+02 -1.34189E+04  8.81362E+03 -1.21330E+04  1.39179E+04 -3.67541E+03
  1.35624E+04  6.70291E+03  6.34228E+03  1.28659E+04 -3.96102E+03  1.35928E+04 -1.00979E+04  9.04721E+03
 -1.39999E+04  6.32147E+02 -1.07257E+04 -8.37922E+03 -1.00673E+03 -1.13957E+04  6.20050E+03 -8.47503E+03
  9.00969E+03 -2.87433E+03  5.34385E+03  2.65407E+03  1.21307E+03  4.30529E+03  1.00009E+03  1.74575E+03
  3.50015E+03  1.14442E+03  3.68511E+03  2.87140E+03  4.60241E+03  3.73394E+03  3.17218E+03  7.57673E+03
 -3.13366E+03  1.09673E+04 -1.06453E+04  1.10152E+04 -1.48514E+04  2.66544E+03 -1.52504E+04 -5.70519E+03
 -7.49618E+03 -1.40266E+04  2.04436E+03 -1.50077E+04  8.99777E+03 -9.49328E+03  1.18189E+04 -2.41236E+03
  9.54702E+03  4.46790E+03  1.21234E+03  8.09100E+03 -4.44659E+03  5.17915E+03 -5.88832E+03 -8.04666E+02
 -2.57563E+03 -6.39672E+03  3.67324E+03 -6.85384E+03  5.91164E+03 -2.71829E+03  5.81843E+03  1.54858E+03
  3.07502E+03  2.39074E+03  2.03115E+03  2.82620E+03 -2.57274E+02  1.88988E+03  1.57997E+03 -6.94413E+02
  2.13188E+03 -7.93040E+02  5.62919E+03  2.40523E+03  3.52682E+03  6.94927E+03 -7.15933E+02  9.06943E+03
 -7.53581E+03  6.67030E+03 -9.40989E+03  1.65021E+03 -7.47885E+03 -2.92941E+03 -3.20746E+03 -5.73822E+03
  1.32368E+03 -5.48819E+03  4.09754E+03 -2.43865E+03  3.71809E+03  2.33251E+03 -1.26858E+03  4.73388E+03
 -5.96472E+03  3.02002E+03 -6.86989E+03 -3.77816E+03 -3.70874E+03 -7.59810E+03  1.20758E+03 -8.56143E+03
  4.77386E+03 -4.47876E+03  5.87630E+03  4.28236E+01  4.20915E+03  1.24141E+03  9.69692E+02  4.31368E+03
 -2.32048E+03  8.32084E+02 -3.47428E+03 -2.91637E+03  1.69103E+03 -5.62450E+03  7.07451E+03 -5.28709E+03
  8.86870E+03  1.18613E+03  8.72953E+03  6.11876E+03  2.94540E+03  1.01835E+04 -3.84191E+03  8.45398E+03
 -7.08791E+03  3.95444E+03 -8.29279E+03 -1.70576E+03 -4.23271E+03 -5.41662E+03  1.26345E+03 -6.14886E+03
  5.79896E+03 -2.37078E+03  4.62155E+03  3.02066E+03  1.75088E+03  5.59807E+03  2.63150E+02  4.58605E+03
 -1.94916E+03  3.51508E+03 -2.31726E+03  1.14561E+03 -1.24037E+03  3.71154E+02 -1.49795E+03  1.48840E+03
 -2.11570E+03  2.44746E+03 -6.29983E+03  4.10328E+03 -9.29339E+03  1.87294E+02 -1.04499E+04 -6.82142E+03
 -6.03511E+03 -1.24199E+04  2.40269E+03 -1.49311E+04  7.93280E+03 -1.14039E+04  1.33290E+04 -3.95689E+03
  1.27785E+04  2.17126E+03  7.64394E+03  9.02951E+03  8.25796E+02  1.02874E+04 -4.60676E+03  7.54245E+03
 -5.60675E+03  2.93854E+03 -3.35884E+03 -9.11123E+02 -9.67327E+02 -7.83604E+02 -1.48240E+03  1.17115E+03
 -1.94018E+03 -1.31727E+02 -2.77379E+03  1.38207E+02 -7.10695E+02 -1.89856E+03 -2.75351E+02 -3.24297E+03
  4.25867E+03 -3.07484E+03  6.26413E+03  1.83801E+02  6.29301E+03  4.77322E+03  1.73342E+03  9.13159E+03
 -5.07086E+03  1.04689E+04 -1.09571E+04  6.71368E+03 -1.19754E+04 -1.18421E+03 -8.39985E+03 -6.77338E+03
 -3.80585E+03 -1.06382E+04  2.65850E+03 -9.65843E+03  6.22790E+03 -5.34244E+03  6.19271E+03  2.81414E+02
  3.20693E+03  3.05915E+03 -6.68444E+02  3.43346E+03 -1.29482E+03  2.28481E+02 -1.77855E+02 -2.74269E+03
  2.95953E+03 -5.17142E+02  3.34866E+03  1.93152E+03  1.83638E+03  4.00187E+03  6.17289E+02  4.94990E+03
 -4.83139E+03  3.85127E+03 -6.40849E+03  9.52597E+02 -5.22674E+03 -4.93537E+03 -1.05165E+03 -7.86945E+03
  5.06030E+03 -7.20911E+03  7.37431E+03 -2.34988E+03  7.44677E+03  1.98655E+03  4.58992E+03  5.83355E+03
  3.36071E+02  5.90039E+03 -2.82934E+03  4.91377E+03 -4.28441E+03  3.41785E+03 -4.24302E+03  7.60943E+01
 -1.79099E+03 -5.10521E+02 -1.88832E+03  4.22950E+02 -3.71889E+03  9.14413E+02 -4.88805E+03 -1.03893E+03
 -4.48106E+03 -4.12166E+03 -1.64322E+03 -6.62465E+03  3.34728E+03 -7.10825E+03  6.25339E+03 -2.91542E+03
  6.85068E+03  6.07581E+02  2.93208E+03  5.30995E+03 -1.07526E+03  6.23705E+03 -4.89339E+03  4.93721E+03
