 $NMID ID='MM_0lb_SNR400_8hz_g60_66.RAW', FMTDAT='(8E13.5)'
 TRAMP=1., VOLUME=1. $END
  3.09523E+05  9.57147E+02  3.37400E+05  2.50705E+05  8.58613E+04  3.38682E+05 -1.32618E+05  2.52668E+05
 -1.91113E+05  8.52429E+04 -1.13030E+05 -3.13638E+04 -1.27942E+03 -4.94605E+04  5.42338E+04  1.24661E+02
  3.63269E+04  5.32543E+04 -1.69964E+04  7.71217E+04 -6.13192E+04  6.42984E+04 -8.53165E+04  3.26242E+04
 -8.19998E+04 -1.15547E+04 -5.84838E+04 -5.11873E+04 -1.47076E+04 -7.17760E+04  2.78206E+04 -4.70940E+04
  4.09287E+04  3.05406E+03  1.71288E+04  4.85166E+04 -3.45847E+04  4.78739E+04 -6.83091E+04 -7.70564E+01
 -5.55895E+04 -5.90961E+04 -7.78932E+03 -7.97096E+04  3.49024E+04 -5.76320E+04  5.09585E+04 -1.80259E+04
  4.63805E+04  1.21658E+04  3.41076E+04  2.68498E+04  1.53580E+04  3.11616E+04 -6.64102E+03  2.77699E+04
 -2.30989E+04  1.19114E+04 -1.75280E+04 -5.41256E+03  6.88315E+03 -6.79523E+03  2.44746E+04  1.44038E+04
  7.63934E+03  3.84002E+04 -3.55220E+04  3.75310E+04 -6.63895E+04  2.64209E+03 -5.97908E+04 -4.52852E+04
 -1.37934E+04 -6.66395E+04  4.24825E+04 -4.87733E+04  6.22828E+04 -3.25761E+03  3.80359E+04  3.56071E+04
 -6.02387E+03  3.97755E+04 -3.21680E+04  1.92570E+04 -3.55277E+04 -2.22887E+03 -2.01014E+04 -1.28415E+04
 -9.37956E+03 -1.67528E+04 -1.57518E+01 -2.10295E+04  9.41326E+03 -2.30364E+04  1.60447E+04 -1.22368E+04
  9.29953E+03  6.33292E+03 -1.16459E+04  1.28838E+04 -2.40928E+04 -7.56850E+03 -8.86383E+03 -3.98547E+04
  2.63005E+04 -4.86258E+04  5.38289E+04 -2.14840E+04  5.03163E+04  2.07091E+04  1.77833E+04  4.82988E+04
 -1.67392E+04  3.69037E+04 -2.91092E+04  2.88967E+03 -1.24972E+04 -3.07693E+04  2.06233E+04 -3.96495E+04
  4.69445E+04 -1.16286E+04  4.17564E+04  2.46689E+04  2.25341E+04  5.21560E+04 -8.51978E+03  5.83988E+04
 -3.64303E+04  3.94714E+04 -4.87752E+04  1.15663E+04 -4.98322E+04 -1.90096E+04 -2.65596E+04 -4.35216E+04
  7.66345E+03 -4.34536E+04  3.54259E+04 -1.81993E+04  3.39885E+04  1.12700E+04  6.93125E+03  2.24756E+04
 -1.41479E+04  1.03139E+04 -1.21702E+04 -7.01304E+03  5.11976E+03 -1.18976E+04  1.92743E+04  5.45156E+03
  1.49340E+04  2.27141E+04 -4.52517E+03  2.71953E+04 -2.45095E+04  1.49937E+04 -3.24699E+04 -1.83085E+03
 -2.77528E+04 -1.84674E+04 -1.29227E+04 -2.62618E+04  3.74036E+03 -2.83173E+04  2.16326E+04 -2.48416E+04
  3.50821E+04 -1.51084E+04  3.99643E+04  6.24763E+03  2.78804E+04  2.57502E+04  4.44680E+03  4.29032E+04
 -2.10471E+04  3.57111E+04 -3.19474E+04  1.17765E+04 -2.23368E+04 -1.02531E+04 -4.56488E+03 -1.29374E+04
  1.49446E+02 -9.67051E+02 -8.64002E+03  8.78721E+03 -2.20107E+04  5.21576E+03 -2.17835E+04 -1.05573E+04
 -1.29551E+04 -2.60369E+04  7.33126E+03 -2.91607E+04  2.07451E+04 -2.18773E+04  2.48106E+04 -1.58584E+03
  1.55359E+04  1.72594E+04 -2.07905E+03  2.52308E+04 -1.77623E+04  1.44662E+04 -2.50501E+04 -5.96557E+03
 -1.86817E+04 -2.24459E+04 -1.44005E+03 -3.10134E+04  1.33285E+04 -2.50492E+04  2.48800E+04 -1.41298E+04
  2.33437E+04 -9.45265E+02  1.76581E+04  5.59683E+03  9.58663E+03  8.38879E+02  1.33287E+04 -1.94376E+03
  2.42063E+04  2.74899E+03  2.89068E+04  1.94691E+04  1.96955E+04  4.10793E+04 -2.48428E+03  4.79693E+04
 -2.74918E+04  4.02552E+04 -4.62271E+04  2.13634E+04 -4.95288E+04 -3.41211E+03 -3.95402E+04 -2.87866E+04
 -1.58756E+04 -4.18379E+04  1.50845E+04 -3.65088E+04  3.03233E+04 -1.62420E+04  2.63152E+04  8.43186E+03
  8.32754E+03  2.09054E+04 -1.22817E+04  1.69043E+04 -2.21557E+04  2.59701E+03 -1.61312E+04 -1.37135E+04
 -6.17126E+02 -2.07802E+04  1.15559E+04 -1.51184E+04  1.54093E+04 -9.60793E+02  3.79527E+03  9.53503E+03
 -9.66379E+03  5.22459E+03 -1.08907E+04 -6.23197E+03 -3.39384E+03 -2.04690E+04  1.35636E+04 -2.13931E+04
  2.55036E+04 -1.31534E+04  2.96874E+04  3.49164E+03  2.60017E+04  2.03899E+04  1.11722E+04  3.26809E+04
 -7.32425E+03  3.52344E+04 -2.26577E+04  2.19236E+04 -2.55061E+04  5.40465E+03 -1.79332E+04 -7.29444E+03
 -6.27179E+03 -8.15649E+03 -1.38846E+03 -4.29073E+02 -2.93522E+03  3.64297E+03 -7.66675E+03  6.04349E+03
 -1.67170E+04 -1.49275E+03 -1.54909E+04 -1.26872E+04 -6.62424E+03 -2.11035E+04  6.91048E+03 -1.66690E+04
  1.45437E+04 -6.75743E+03  1.11039E+04  5.41992E+03 -1.00653E+03  6.34580E+03 -9.01273E+03 -3.52365E+02
 -8.42820E+03 -1.13730E+04 -1.15481E+03 -1.75637E+04  1.01982E+04 -1.90173E+04  2.13059E+04 -9.67952E+03
  2.63816E+04  3.54282E+03  1.98781E+04  1.63741E+04  3.55148E+03  2.18844E+04 -1.06081E+04  1.73338E+04
 -1.33682E+04  5.03628E+03 -5.84677E+03 -4.55080E+03  2.10737E+03 -5.20179E+03  9.01419E+03 -2.11069E+03
  8.45308E+03  8.07985E+03  1.57595E+03  1.45842E+04 -1.06125E+04  1.34062E+04 -1.76039E+04  2.47338E+03
 -1.28725E+04 -9.55027E+03  4.79759E+02 -1.50158E+04  9.91942E+03 -7.98047E+03  1.07810E+04  4.00615E+03
  2.66077E+03  1.20077E+04 -9.02990E+03  1.37299E+04 -1.64103E+04  5.68917E+03 -1.61813E+04 -5.78873E+03
 -9.04089E+03 -1.90307E+04  4.97664E+03 -2.21940E+04  1.80459E+04 -1.19849E+04  2.03529E+04  3.24287E+03
  1.11077E+04  1.57894E+04 -1.57437E+03  1.83061E+04 -1.39977E+04  8.68904E+03 -1.51990E+04 -2.59681E+03
 -1.18898E+04 -1.27594E+04 -1.53353E+03 -1.41367E+04  7.29456E+03 -1.18093E+04  9.20520E+03 -3.89414E+03
  5.58492E+03  2.26469E+03 -1.41885E+03  2.69986E+03 -1.23349E+03 -4.08506E+03  3.52252E+03 -8.97673E+03
  1.34935E+04 -5.89511E+03  1.96046E+04  2.24990E+03  1.84668E+04  1.29894E+04  1.08979E+04  2.46548E+04
 -6.29958E+03  2.85292E+04 -2.31083E+04  2.08676E+04 -3.10209E+04  4.66802E+03 -2.45499E+04 -1.02773E+04
 -1.20013E+04 -2.04198E+04  1.68885E+01 -1.81075E+04  5.59590E+03 -1.07025E+04  6.15100E+03 -6.35542E+03
  3.74786E+03 -3.57441E+03  4.15251E+03 -3.94157E+03  6.18316E+03 -4.87016E+03  9.42745E+03 -2.30172E+03
  1.23950E+04  2.70533E+03  7.41743E+03  1.09966E+04 -2.77868E+03  1.32237E+04 -1.37924E+04  1.02556E+04
 -1.75132E+04 -1.67807E+03 -1.04805E+04 -1.21547E+04 -7.83986E+02 -1.90503E+04  1.01524E+04 -1.89870E+04
  1.99472E+04 -1.07715E+04  2.36473E+04  2.95917E+03  1.52259E+04  1.63755E+04  2.30193E+03  2.08933E+04
 -9.07044E+03  1.68404E+04 -1.25678E+04  6.05366E+03 -9.59376E+03 -1.76768E+03 -3.00191E+03 -2.49609E+03
 -1.44201E+03 -6.67885E+02 -3.15234E+03  3.37361E+03 -6.81408E+03  3.14558E+03 -1.19125E+04 -2.02364E+03
 -8.64980E+03 -1.12259E+04  1.35843E+02 -1.72267E+04  1.12857E+04 -1.54646E+04  1.76418E+04 -4.34754E+03
  1.80641E+04  8.39427E+03  8.93974E+03  1.62267E+04 -3.67361E+03  1.82414E+04 -1.24997E+04  1.11230E+04
 -1.68053E+04  5.49257E+02 -1.26827E+04 -1.08107E+04 -1.51673E+03 -1.63637E+04  7.46322E+03 -1.15191E+04
  1.12750E+04 -3.90472E+03  8.37667E+03  2.08709E+03  3.04863E+03  5.22988E+03  2.55733E+03  1.97647E+03
  2.98033E+03  6.06880E+02  4.33807E+03  1.32620E+03  5.97945E+03  5.86462E+03  4.60124E+03  9.89523E+03
 -3.55233E+03  1.44411E+04 -1.34297E+04  1.41749E+04 -1.95885E+04  3.58480E+03 -1.86743E+04 -8.74100E+03
 -9.83994E+03 -1.91904E+04  2.81809E+03 -1.96182E+04  1.11593E+04 -1.30365E+04  1.56534E+04 -3.03679E+03
  1.17224E+04  6.86158E+03  2.38172E+03  9.37102E+03 -5.53389E+03  7.41945E+03 -7.82464E+03 -7.39503E+01
 -2.56942E+03 -8.00080E+03  3.84167E+03 -8.69555E+03  7.97881E+03 -3.35592E+03  7.06056E+03  1.70719E+03
  4.78361E+03  3.65951E+03  9.95089E+02  3.54761E+03 -2.39196E+02  2.23066E+03  1.55509E+03 -1.43512E+03
  2.72276E+03 -3.65461E+02  8.15972E+03  3.66186E+03  4.99219E+03  9.59024E+03 -1.00960E+03  1.39686E+04
 -8.78393E+03  8.61329E+03 -1.17840E+04  2.57543E+03 -1.09808E+04 -4.44026E+03 -4.80972E+03 -6.31932E+03
  6.54432E+02 -6.74044E+03  4.33201E+03 -3.97713E+03  4.39404E+03  3.99185E+03 -1.25958E+03  5.41782E+03
 -8.00981E+03  4.35328E+03 -8.80110E+03 -4.16531E+03 -5.29981E+03 -1.00077E+04  3.01901E+03 -1.08790E+04
  6.50054E+03 -5.79867E+03  7.34182E+03 -6.71863E+02  6.41568E+03  2.51696E+03  8.80176E+02  5.60989E+03
 -4.05313E+03  1.96959E+03 -4.85485E+03 -2.72467E+03  1.69038E+03 -7.80173E+03  9.21200E+03 -7.28165E+03
  1.15089E+04  1.07663E+03  1.18304E+04  9.80939E+03  2.93972E+03  1.27035E+04 -4.14018E+03  1.19191E+04
 -1.05509E+04  4.37731E+03 -1.06923E+04 -2.05593E+03 -4.42399E+03 -8.30597E+03  1.72468E+03 -7.54506E+03
  8.55121E+03 -4.08200E+03  7.89839E+03  3.15842E+03  2.05305E+03  7.40960E+03 -1.50162E+03  5.97963E+03
 -3.96729E+03  3.26471E+03 -4.46067E+03  1.04188E+03 -1.37150E+03  8.44355E+02 -1.68358E+03  2.67985E+03
 -2.75105E+03  5.06349E+03 -8.26351E+03  4.35302E+03 -1.37553E+04  4.83925E+02 -1.46136E+04 -8.86612E+03
 -6.75299E+03 -1.67829E+04  3.57306E+03 -2.04990E+04  1.22580E+04 -1.51439E+04  1.87073E+04 -6.60682E+03
  1.65974E+04  4.40166E+03  1.04215E+04  1.22657E+04  2.10252E+03  1.36390E+04 -6.26400E+03  9.46057E+03
 -7.77694E+03  3.66788E+03 -4.66091E+03 -2.05542E+03 -1.56293E+03 -8.54502E+02 -7.97599E+02  1.23742E+03
 -1.35783E+03 -3.46668E+02 -3.98150E+03 -9.93099E+01 -1.03470E+03 -3.25169E+03  4.47983E+02 -4.81487E+03
  6.21898E+03 -4.64600E+03  8.29299E+03 -2.86686E+02  8.94531E+03  6.74184E+03  3.77716E+03  1.25414E+04
 -6.03085E+03  1.57317E+04 -1.41212E+04  8.44667E+03 -1.67687E+04 -1.21572E+03 -1.29881E+04 -1.01192E+04
 -5.32749E+03 -1.27955E+04  4.69909E+03 -1.17113E+04  9.65386E+03 -7.01398E+03  9.42675E+03 -3.94965E+02
  5.24970E+03  4.62679E+03 -3.16370E+02  3.59611E+03 -2.84236E+03 -3.88624E+02  4.35269E+02 -1.93485E+03
  4.59803E+03 -2.32553E+03  5.58896E+03  1.83940E+03  3.98762E+03  5.99490E+03 -2.74441E+01  7.62804E+03
 -5.86759E+03  5.85655E+03 -9.32303E+03  1.05463E+03 -9.18004E+03 -6.89305E+03 -1.79140E+03 -1.14342E+04
  7.69477E+03 -9.63960E+03  1.11373E+04 -3.15652E+03  1.04756E+04  2.50684E+03  6.10241E+03  8.08671E+03
  1.44763E+03  9.45948E+03 -3.80741E+03  7.08011E+03 -5.41838E+03  4.11061E+03 -5.15778E+03  1.42304E+02
 -2.45988E+03  4.98899E+01 -2.43060E+03  1.34426E+03 -4.89580E+03  1.75920E+03 -7.39516E+03 -4.88749E+02
 -6.36098E+03 -5.41589E+03 -1.65281E+03 -9.81261E+03  4.10469E+03 -8.92885E+03  8.63943E+03 -5.60470E+03
  9.15848E+03  1.66397E+03  4.97463E+03  7.11247E+03 -8.00583E+02  9.41064E+03 -6.65033E+03  6.06404E+03
