 $NMID ID='MM_0lb_SNR400_19hz_g55_15.RAW', FMTDAT='(8E13.5)'
 TRAMP=1., VOLUME=1. $END
  3.09565E+05  4.78978E+02  3.37307E+05  2.51186E+05  8.44525E+04  3.37509E+05 -1.33067E+05  2.50447E+05
 -1.89893E+05  8.32563E+04 -1.11162E+05 -3.32733E+04  1.37563E+03 -5.08975E+04  5.36930E+04  1.27814E+02
  3.50840E+04  5.26432E+04 -1.64149E+04  7.48814E+04 -6.04633E+04  6.29393E+04 -8.35391E+04  3.21020E+04
 -7.97776E+04 -1.14920E+04 -5.68879E+04 -5.08853E+04 -1.51775E+04 -6.88049E+04  2.64307E+04 -4.52879E+04
  3.94537E+04  4.14943E+03  1.56694E+04  4.68950E+04 -3.45796E+04  4.62845E+04 -6.54722E+04 -5.79618E+02
 -5.24901E+04 -5.65021E+04 -5.96743E+03 -7.59727E+04  3.36313E+04 -5.33857E+04  4.62176E+04 -1.64863E+04
  4.21740E+04  1.06292E+04  3.10031E+04  2.43909E+04  1.59575E+04  2.85577E+04 -5.06883E+03  2.69938E+04
 -2.20172E+04  1.26288E+04 -1.85735E+04 -4.64180E+03  4.33811E+03 -7.11884E+03  2.10966E+04  1.12749E+04
  8.02771E+03  3.38933E+04 -3.14598E+04  3.44751E+04 -6.19227E+04  1.93461E+03 -5.56672E+04 -4.13554E+04
 -1.21542E+04 -6.17890E+04  3.88071E+04 -4.37879E+04  5.60947E+04 -2.27131E+03  3.27869E+04  3.06818E+04
 -6.28698E+03  3.39930E+04 -2.90380E+04  1.40849E+04 -2.82214E+04 -5.27238E+03 -1.51673E+04 -1.03135E+04
 -7.73581E+03 -1.17750E+04 -1.08145E+03 -1.68571E+04  6.90853E+03 -2.28528E+04  1.50700E+04 -1.35892E+04
  1.19287E+04  4.41402E+03 -6.68310E+03  1.26326E+04 -1.94007E+04 -3.10041E+03 -8.17424E+03 -3.08645E+04
  2.07681E+04 -4.13060E+04  4.56803E+04 -1.87372E+04  4.26534E+04  1.87031E+04  1.46209E+04  4.24145E+04
 -1.49108E+04  3.13422E+04 -2.34809E+04  1.61218E+03 -8.92356E+03 -2.70137E+04  2.06986E+04 -3.19338E+04
  3.87419E+04 -7.44211E+03  3.25302E+04  2.31971E+04  1.63066E+04  4.37307E+04 -8.58403E+03  4.64292E+04
 -2.91744E+04  2.99467E+04 -3.86343E+04  8.85298E+03 -3.89460E+04 -1.53687E+04 -2.11887E+04 -3.52576E+04
  7.46004E+03 -3.53883E+04  2.89931E+04 -1.31217E+04  2.71250E+04  1.09773E+04  3.31890E+03  1.82219E+04
 -1.30316E+04  7.32554E+03 -9.69154E+03 -7.94579E+03  5.94966E+03 -1.02765E+04  1.79238E+04  6.49076E+03
  1.25047E+04  2.22403E+04 -6.96956E+03  2.34448E+04 -2.16589E+04  9.26860E+03 -2.53938E+04 -5.89513E+03
 -1.76348E+04 -1.65437E+04 -5.94116E+03 -1.74484E+04  4.50011E+03 -1.51584E+04  1.31651E+04 -1.47929E+04
  2.23666E+04 -1.19658E+04  2.91821E+04  1.31487E+03  2.17410E+04  1.67863E+04  4.08527E+03  3.30792E+04
 -1.60107E+04  2.78590E+04 -2.64307E+04  9.72107E+03 -1.99613E+04 -1.03349E+04 -4.03758E+03 -1.38791E+04
  2.75887E+03 -3.60482E+03 -3.13273E+03  5.83120E+03 -1.30563E+04  5.49702E+03 -1.40218E+04 -5.04779E+03
 -8.88342E+03 -1.57811E+04  4.28079E+03 -2.01654E+04  1.31299E+04 -1.37528E+04  1.56697E+04 -1.42936E+03
  8.99367E+03  1.07319E+04 -9.63924E+02  1.63557E+04 -1.06462E+04  9.41531E+03 -1.58445E+04 -3.17946E+03
 -1.13397E+04 -1.43202E+04 -1.37257E+03 -1.95871E+04  8.77344E+03 -1.62556E+04  1.62286E+04 -7.60641E+03
  1.48202E+04  1.14287E+03  1.02445E+04  3.21470E+03  5.12116E+03  7.41349E+02  7.61085E+03 -9.50077E+02
  1.47614E+04  2.82691E+03  1.53431E+04  1.29099E+04  9.75494E+03  2.53857E+04 -3.00825E+03  2.74939E+04
 -1.65303E+04  2.06343E+04 -2.50750E+04  9.67540E+03 -2.56421E+04 -1.89230E+03 -2.20718E+04 -1.43597E+04
 -9.89458E+03 -2.10762E+04  7.33076E+03 -1.97141E+04  1.76183E+04 -1.11927E+04  1.59619E+04  4.35815E+03
  6.47327E+03  1.15647E+04 -7.11408E+03  1.05053E+04 -1.32018E+04  2.62859E+03 -1.07044E+04 -8.24666E+03
 -1.44595E+02 -1.23742E+04  6.37065E+03 -9.02538E+03  8.20509E+03 -1.66631E+03  1.33322E+03  5.27454E+03
 -5.52357E+03  1.32094E+03 -4.05109E+03 -4.01655E+03  6.56573E+02 -1.00865E+04  7.97770E+03 -1.00905E+04
  1.24546E+04 -4.86266E+03  1.20102E+04  3.04805E+03  1.02504E+04  9.77389E+03  5.02585E+03  1.46093E+04
 -1.80163E+03  1.62645E+04 -9.87081E+03  9.89034E+03 -1.14059E+04  2.71635E+03 -8.43199E+03 -2.21139E+03
 -4.72141E+03 -3.39158E+03 -3.71374E+02  1.40720E+03 -1.85830E+03  2.22012E+03 -3.43872E+03  4.06772E+03
 -8.24739E+03 -4.86481E+02 -9.10752E+03 -7.80470E+03 -3.29266E+03 -1.16852E+04  3.41213E+03 -8.47955E+03
  7.87601E+03 -4.35970E+03  5.34776E+03  2.40022E+03  5.03169E+02  3.08948E+03 -3.27104E+03 -3.05645E+02
 -3.95537E+03 -5.14615E+03 -1.23267E+03 -7.21277E+03  3.89756E+03 -7.83492E+03  9.86383E+03 -3.97687E+03
  1.23504E+04  8.70924E+02  8.45185E+03  6.22313E+03  2.09108E+03  8.69592E+03 -5.45527E+03  8.65232E+03
 -7.15005E+03  2.77630E+03 -3.95978E+03 -1.03051E+03  1.26228E+03 -2.11368E+03  4.85757E+03 -8.47350E+02
  4.21879E+03  3.16005E+03  3.07549E+02  6.30614E+03 -4.45013E+03  6.62459E+03 -7.86159E+03  2.43397E+03
 -4.61144E+03 -3.75254E+03  4.93864E+02 -7.10130E+03  4.23401E+03 -3.08736E+03  3.08396E+03  9.83270E+02
  4.12272E+02  3.26721E+03 -4.34950E+03  4.44559E+03 -5.27555E+03  2.03996E+03 -4.21254E+03 -1.03772E+03
 -3.09219E+03 -5.80520E+03  1.70230E+03 -6.75051E+03  6.01574E+03 -4.47286E+03  6.46324E+03  8.10111E+02
  4.11507E+03  5.20021E+03  9.05087E+02  7.57370E+03 -4.86570E+03  4.57884E+03 -4.92814E+03 -8.65984E+02
 -5.29757E+03 -5.32433E+03 -1.33828E+03 -5.57129E+03  2.51448E+03 -4.85391E+03  2.82080E+03 -2.71831E+03
  3.52863E+03 -1.15979E+02 -3.10049E+02  1.20801E+03  7.71541E+02  1.90748E+02  1.78522E+02 -1.74211E+03
  4.43870E+03 -9.47145E+02  5.41627E+03  6.52498E+02  5.36392E+03  3.58092E+03  5.67406E+03  7.17143E+03
 -1.34501E+03  9.06469E+03 -7.70378E+03  6.41727E+03 -9.77794E+03  1.12674E+03 -7.44894E+03 -2.52145E+03
 -4.51989E+03 -6.03516E+03 -7.75538E+02 -5.48784E+03  2.03842E+03 -2.14463E+03  1.89622E+03 -1.95153E+03
  8.23523E+02 -1.41546E+03  1.68558E+03 -2.31301E+03  3.77039E+03 -1.41046E+03  4.16877E+03  4.63098E+02
  4.71288E+03  1.96365E+03  4.70067E+02  3.38760E+03 -1.26562E+03  3.03589E+03 -4.10407E+03  2.97317E+03
 -4.49326E+03 -1.08207E+03 -1.78279E+03 -2.94272E+03  6.30200E+02 -4.78975E+03  2.93519E+03 -5.25300E+03
  4.84978E+03 -3.47941E+03  6.57165E+03  1.66145E+02  4.66452E+03  4.22182E+03  5.36155E+02  5.87324E+03
 -2.50896E+03  5.55258E+03 -3.62628E+03  1.52392E+03 -1.58994E+03 -1.08457E+03 -3.73739E+02 -4.63251E+02
 -3.00831E+02  1.17372E+02 -1.16296E+03  1.96503E+03 -2.48364E+03  7.48018E+02 -4.45942E+03 -7.03289E+01
 -1.41201E+03 -3.81046E+03  6.20599E+02 -4.01505E+03  2.23435E+03 -3.75831E+03  3.55313E+03 -1.04831E+03
  4.50794E+03  2.53551E+03  1.75865E+03  3.30698E+03 -1.33805E+03  4.00015E+03 -3.06577E+03  2.90512E+03
 -3.29598E+03  8.22672E+02 -3.82221E+03 -2.10410E+03 -3.00481E+01 -2.87348E+03  1.96040E+03 -2.30894E+03
  2.73869E+03 -9.87190E+02  1.79092E+03  1.05678E+03  6.44219E+02  1.77271E+03  6.34952E+02  8.01112E+02
  1.50827E+03  9.45463E+02  1.26643E+03  1.39870E+03  9.14145E+02  2.44626E+03  1.23520E+03  1.97590E+03
 -8.47647E+02  2.68121E+03 -2.67292E+03  3.48288E+03 -2.52274E+03  1.62018E+03 -3.61886E+03 -5.44622E+02
 -2.04045E+03 -3.48932E+03  5.21461E+02 -4.21076E+03  1.53204E+03 -2.49416E+03  2.50862E+03 -8.47791E+02
  2.00834E+03  2.19402E+03  7.73558E+02  2.07188E+03 -8.56426E+02  1.02583E+03 -1.35166E+03 -1.99672E+02
 -1.06730E+03 -1.05125E+03  1.27001E+03 -1.19059E+03  1.27425E+03 -7.49212E+02  1.61573E+03  4.15063E+02
  4.58943E+02  5.59519E+00  8.43929E+02 -4.56017E+02 -3.24940E+02  1.35908E+03  9.71627E+02 -6.57726E+02
 -2.45377E+02 -4.52559E+02  1.80416E+03  7.34877E+02 -2.45004E+02  1.94539E+03 -4.17053E+02  2.65015E+03
 -1.35343E+03  8.86613E+02 -1.65639E+03 -2.64563E+02 -1.77278E+03 -4.07280E+02 -6.45778E+02 -8.94977E+02
 -1.32852E+02 -9.69690E+02  4.51423E+02 -8.52790E+02  9.22182E+02  1.32760E+03 -7.26454E+02  1.17502E+03
 -1.01748E+03  2.46479E+02 -1.11264E+03 -1.16228E+03 -8.06393E+02 -1.77869E+03  3.42824E+02 -1.57734E+03
  1.08855E+03 -4.90050E+02  6.73333E+02  6.53396E+02  1.43909E+03 -3.78484E+02  1.12054E+03  1.13456E+03
 -7.12015E+02 -3.49162E+02 -7.05150E+02  3.01393E+02  3.38880E+02 -6.39339E+02  1.75000E+03 -4.86499E+02
  7.79955E+02  2.18288E+02  2.54555E+03  7.64249E+02  1.40930E+03  1.55233E+03 -2.29077E+02  1.58779E+03
 -1.31154E+03  2.59225E+02 -1.30316E+03 -6.03217E+01 -3.29213E+02 -1.97183E+03  4.16238E+02 -8.79623E+02
  1.80418E+03 -1.70450E+02  4.97465E+02  8.91258E+02 -1.07671E+02  1.01289E+03  2.28511E+02  1.25239E+03
  5.93091E+01  1.54814E+03 -1.67979E+01  6.18519E+02 -1.29255E+02  2.70085E+02 -6.72202E+02  6.49655E+02
 -6.78735E+02  8.64815E+02 -1.64937E+03 -2.07526E+01 -1.14355E+03  3.76429E+02 -2.21805E+03 -6.89785E+02
 -1.14940E+03 -1.48072E+03  2.82896E+02 -2.81982E+03  1.24747E+03 -2.39924E+03  2.31555E+03 -6.21703E+02
  1.95885E+03 -2.56714E+02  9.68116E+02  1.25312E+03 -9.42245E+02  9.83367E+02 -3.60266E+02  1.01675E+03
 -3.49872E+02  7.86926E+02 -3.57118E+02 -4.07000E+02 -4.47027E+02  8.18931E+01 -7.52174E+02  5.06719E+01
 -1.38007E+03  4.96719E+02 -7.97825E+02  2.29265E+02  2.01024E+02 -5.47498E+02 -5.07662E+02 -4.41033E+02
  1.22023E+03 -5.37729E+02  3.66535E+01 -1.23171E+02  6.97550E+02  1.57236E+03 -1.02750E+03  1.58952E+03
 -6.29125E+02  1.94737E+03 -1.57226E+03  1.19215E+03 -1.08663E+03 -4.01088E+02 -5.89878E+02 -1.24513E+03
 -1.10642E+03 -1.01129E+03  4.69105E+02 -3.78575E+02  8.49241E+02  2.62519E+01  4.10940E+02  2.97163E+02
  1.34555E+03  1.32497E+02  4.38627E+02  9.77363E+02 -1.07347E+03 -3.48361E+00 -1.29204E+02  8.43239E+01
  4.00051E+02  2.41927E+02  2.70017E+02  1.76952E+02  3.92063E+02  4.43212E+02  1.47101E+02 -8.81905E+01
 -7.05242E+02  1.15423E+02 -4.57792E+02  3.14629E+02 -1.19916E+03 -2.21480E+02 -3.80809E+01 -8.95736E+02
  8.39422E+01 -3.91014E+02  6.56665E+02 -3.29534E+02  4.56362E+02 -5.10311E+01  6.24442E+02  4.53478E+02
  5.55164E+02  2.71923E+02 -2.95231E+02  1.00066E+01 -1.38961E+02  3.55196E+02 -2.91348E+01  1.48182E+02
 -1.81110E+01  5.12572E+02 -6.31995E+02  3.32840E+02 -1.47840E+02  1.72970E+02 -1.07111E+02 -7.38986E+02
 -8.72569E+02  1.60603E+02 -2.77080E+02 -8.64424E+02  6.29961E+02 -1.65105E+03  5.50389E+02  2.61159E+02
  3.74001E+02  3.83068E+02 -7.20272E+02  7.17949E+01 -4.96842E+02  5.47405E+02 -7.55179E+01  7.38800E+02
