 $NMID ID='MM_0lb_SNR400_13hz_g45_56.RAW', FMTDAT='(8E13.5)'
 TRAMP=1., VOLUME=1. $END
  3.09187E+05 -9.97963E+01  3.37772E+05  2.50902E+05  8.43903E+04  3.38171E+05 -1.32588E+05  2.51244E+05
 -1.90194E+05  8.22624E+04 -1.12388E+05 -3.32624E+04  4.91968E+02 -5.03255E+04  5.40604E+04 -5.41914E+02
  3.53353E+04  5.31293E+04 -1.69020E+04  7.58169E+04 -6.07277E+04  6.30953E+04 -8.44597E+04  3.24999E+04
 -8.05627E+04 -1.06455E+04 -5.69702E+04 -5.11856E+04 -1.49950E+04 -7.01130E+04  2.72050E+04 -4.58464E+04
  3.98913E+04  4.01102E+03  1.62043E+04  4.82900E+04 -3.43483E+04  4.71792E+04 -6.61923E+04 -8.09878E+02
 -5.39090E+04 -5.65539E+04 -7.20246E+03 -7.64331E+04  3.42444E+04 -5.50710E+04  4.75699E+04 -1.72583E+04
  4.36029E+04  1.13679E+04  3.21692E+04  2.56789E+04  1.54246E+04  2.96564E+04 -5.16595E+03  2.74514E+04
 -2.20753E+04  1.23844E+04 -1.86576E+04 -5.09947E+03  6.13300E+03 -7.85697E+03  2.25757E+04  1.18520E+04
  7.58393E+03  3.52996E+04 -3.16906E+04  3.55596E+04 -6.35909E+04  1.99858E+03 -5.69442E+04 -4.22779E+04
 -1.23626E+04 -6.33509E+04  3.96664E+04 -4.57171E+04  5.80891E+04 -2.21552E+03  3.45430E+04  3.25155E+04
 -5.26453E+03  3.60727E+04 -3.05032E+04  1.60812E+04 -3.05940E+04 -4.63235E+03 -1.72402E+04 -1.07366E+04
 -8.36098E+03 -1.33951E+04 -1.26301E+03 -1.79625E+04  7.83300E+03 -2.31438E+04  1.53557E+04 -1.38382E+04
  1.03564E+04  4.26376E+03 -7.80519E+03  1.29299E+04 -2.14781E+04 -4.58605E+03 -8.43620E+03 -3.41772E+04
  2.28210E+04 -4.38426E+04  4.86765E+04 -1.95423E+04  4.50172E+04  1.99254E+04  1.52928E+04  4.42065E+04
 -1.53419E+04  3.40657E+04 -2.57222E+04  1.19400E+03 -1.01207E+04 -2.75770E+04  2.03812E+04 -3.41404E+04
  4.12555E+04 -9.24709E+03  3.63117E+04  2.40459E+04  1.88415E+04  4.77769E+04 -7.67085E+03  5.07780E+04
 -3.25176E+04  3.44315E+04 -4.26850E+04  9.94836E+03 -4.31836E+04 -1.68402E+04 -2.36558E+04 -3.88537E+04
  7.87169E+03 -3.78283E+04  3.16709E+04 -1.49131E+04  2.95140E+04  1.11987E+04  3.74059E+03  1.91233E+04
 -1.36798E+04  8.55754E+03 -1.10003E+04 -7.73755E+03  5.97185E+03 -1.07884E+04  1.79599E+04  6.02351E+03
  1.34163E+04  2.28373E+04 -5.61496E+03  2.55140E+04 -2.28518E+04  1.24234E+04 -2.86803E+04 -4.79950E+03
 -2.17715E+04 -1.72219E+04 -9.06847E+03 -2.06561E+04  4.64506E+03 -2.03747E+04  1.60395E+04 -1.88279E+04
  2.71463E+04 -1.31861E+04  3.30861E+04  3.50900E+03  2.41236E+04  1.98435E+04  4.19734E+03  3.71646E+04
 -1.75718E+04  3.02359E+04 -2.82973E+04  9.99994E+03 -2.09893E+04 -1.01491E+04 -4.31492E+03 -1.36069E+04
  1.42562E+03 -2.43775E+03 -5.30039E+03  6.43871E+03 -1.69090E+04  5.22521E+03 -1.66245E+04 -7.66494E+03
 -1.05128E+04 -1.93539E+04  5.64187E+03 -2.36704E+04  1.57427E+04 -1.72376E+04  1.88034E+04 -1.69085E+03
  1.15573E+04  1.32610E+04 -1.13727E+03  1.91210E+04 -1.34151E+04  1.08865E+04 -1.99169E+04 -3.76874E+03
 -1.40210E+04 -1.82847E+04 -1.83040E+03 -2.38598E+04  1.02643E+04 -1.94194E+04  1.89777E+04 -9.66951E+03
  1.81718E+04  1.91517E+02  1.33643E+04  4.32882E+03  6.13618E+03  1.26694E+03  9.78564E+03 -1.25552E+03
  1.77596E+04  3.04109E+03  2.02096E+04  1.48240E+04  1.35174E+04  3.14628E+04 -3.25308E+03  3.45710E+04
 -1.98386E+04  2.84587E+04 -3.28380E+04  1.38743E+04 -3.46876E+04 -2.38327E+03 -2.80378E+04 -2.04618E+04
 -1.24144E+04 -2.86765E+04  9.31044E+03 -2.54704E+04  2.14396E+04 -1.34648E+04  1.97400E+04  6.20595E+03
  7.09052E+03  1.53461E+04 -9.40649E+03  1.30460E+04 -1.67572E+04  2.72188E+03 -1.28909E+04 -1.03138E+04
 -5.25816E+02 -1.62201E+04  8.08419E+03 -1.19337E+04  1.05174E+04 -1.54271E+03  2.30034E+03  6.55568E+03
 -6.76143E+03  3.05166E+03 -6.15099E+03 -5.98693E+03 -5.25798E+02 -1.36457E+04  1.00615E+04 -1.44466E+04
  1.71273E+04 -8.09608E+03  1.90859E+04  2.80531E+03  1.63901E+04  1.33679E+04  7.73323E+03  2.13699E+04
 -3.90621E+03  2.30925E+04 -1.49222E+04  1.41827E+04 -1.62868E+04  3.73361E+03 -1.17642E+04 -3.97643E+03
 -5.39068E+03 -5.49063E+03 -1.00907E+03  5.10961E+02 -1.79747E+03  2.49691E+03 -5.62159E+03  4.69390E+03
 -1.03692E+04 -7.02115E+02 -1.13196E+04 -9.45409E+03 -4.47724E+03 -1.52136E+04  5.76669E+03 -1.17929E+04
  1.01366E+04 -5.22401E+03  7.00838E+03  3.24543E+03  2.58645E+02  4.77999E+03 -5.58214E+03 -3.73398E+02
 -6.13391E+03 -7.61594E+03 -1.02479E+03 -1.05212E+04  6.72147E+03 -1.20702E+04  1.45606E+04 -5.78337E+03
  1.71221E+04  1.43938E+03  1.31599E+04  1.01002E+04  2.38338E+03  1.31118E+04 -7.72944E+03  1.16621E+04
 -9.51701E+03  3.29447E+03 -5.50854E+03 -2.43019E+03  1.66624E+03 -3.52587E+03  6.43514E+03 -9.15882E+02
  5.59885E+03  4.57756E+03  1.58717E+03  9.86965E+03 -6.70263E+03  8.87654E+03 -1.13041E+04  2.51602E+03
 -7.99999E+03 -4.84137E+03  6.45809E+02 -9.46828E+03  6.91118E+03 -4.60703E+03  6.05111E+03  2.17183E+03
  1.05890E+03  6.67406E+03 -6.40854E+03  8.18743E+03 -9.36930E+03  3.89742E+03 -9.00439E+03 -2.77029E+03
 -4.81549E+03 -1.05871E+04  2.83148E+03 -1.18576E+04  1.02451E+04 -6.85959E+03  1.07352E+04  2.05563E+03
  7.40816E+03  9.47939E+03 -1.50287E+03  1.12418E+04 -8.11715E+03  6.27554E+03 -8.82823E+03 -5.34228E+02
 -8.44842E+03 -7.03688E+03 -2.02085E+03 -8.03371E+03  4.33770E+03 -6.61108E+03  5.23181E+03 -3.51377E+03
  3.26617E+03  1.20106E+03  6.77501E+00  1.51050E+03 -2.92887E+02 -1.98788E+03  1.11957E+03 -4.24259E+03
  7.55047E+03 -2.49564E+03  1.05746E+04  2.06667E+03  9.93743E+03  6.26626E+03  7.26727E+03  1.29715E+04
 -3.04212E+03  1.54837E+04 -1.32374E+04  1.09591E+04 -1.69676E+04  2.24293E+03 -1.34070E+04 -5.05742E+03
 -7.09044E+03 -1.11331E+04 -6.20836E+02 -9.23676E+03  3.23519E+03 -4.82308E+03  3.01474E+03 -3.86994E+03
  1.96117E+03 -1.84446E+03  3.16720E+03 -2.72093E+03  4.81903E+03 -2.49287E+03  5.58722E+03  6.17704E+01
  7.10740E+03  1.84070E+03  3.15765E+03  5.68103E+03 -1.55164E+03  6.33372E+03 -7.39306E+03  5.84977E+03
 -8.79299E+03 -1.13176E+03 -5.00269E+03 -6.81211E+03 -3.59450E+02 -1.00288E+04  6.24752E+03 -1.01690E+04
  1.01977E+04 -5.81249E+03  1.18147E+04  5.73865E+02  8.74922E+03  7.98568E+03  1.69632E+03  1.09302E+04
 -3.58834E+03  9.75366E+03 -5.67641E+03  3.04908E+03 -4.24245E+03 -1.19450E+03 -1.39545E+03 -1.77062E+03
 -1.17761E+03 -1.35305E+02 -1.87480E+03  2.25102E+03 -4.17879E+03  1.49049E+03 -6.81287E+03 -1.26443E+03
 -3.92425E+03 -6.07772E+03  3.31658E+02 -9.57161E+03  5.58428E+03 -8.08376E+03  8.44672E+03 -2.64116E+03
  8.33363E+03  4.57765E+03  4.14097E+03  6.91442E+03 -1.82167E+03  9.17764E+03 -6.09082E+03  5.83277E+03
 -7.91081E+03  4.20778E+02 -6.32628E+03 -5.29529E+03 -1.31458E+02 -7.11800E+03  3.74542E+03 -5.33724E+03
  5.33836E+03 -2.37725E+03  3.76939E+03  1.60636E+03  1.28225E+03  3.02542E+03  8.39346E+02  1.19477E+03
  1.62228E+03  9.19523E+02  2.08058E+03  1.17530E+03  2.66065E+03  2.97283E+03  2.68916E+03  4.05099E+03
 -1.69324E+03  6.64360E+03 -5.95514E+03  7.35625E+03 -7.97141E+03  2.15630E+03 -9.02727E+03 -2.82559E+03
 -4.58781E+03 -8.31969E+03  1.62632E+03 -9.38309E+03  4.78194E+03 -5.97670E+03  6.82310E+03 -1.29523E+03
  5.52274E+03  2.92742E+03  1.26765E+03  5.15234E+03 -1.84224E+03  3.36921E+03 -3.30922E+03 -7.17748E+02
 -1.64788E+03 -3.34305E+03  2.98175E+03 -3.89690E+03  2.59538E+03 -2.17859E+03  3.66595E+03  1.06343E+03
  2.03469E+03  1.23791E+03  1.10606E+03  1.22293E+03 -6.33479E+02  1.25376E+03  1.63287E+03 -3.75802E+02
  1.07940E+03 -6.21681E+02  3.55182E+03  2.28113E+03  1.60862E+03  3.79843E+03 -1.08349E+03  6.21284E+03
 -3.74893E+03  3.41795E+03 -4.81182E+03  7.34227E+02 -4.37697E+03 -1.93323E+03 -1.26462E+03 -3.21607E+03
  6.81612E+02 -3.65898E+03  1.69630E+03 -2.01750E+03  1.95712E+03  1.65483E+03 -1.36430E+03  3.14172E+03
 -3.13076E+03  1.92329E+03 -3.12219E+03 -2.89377E+03 -1.84339E+03 -4.60963E+03  4.13930E+02 -4.46004E+03
  2.33070E+03 -1.76424E+03  2.73934E+03 -7.80337E+02  2.78167E+03  6.61427E+02  5.21464E+02  2.51299E+03
 -1.15713E+03  4.73628E+02 -2.06667E+03 -1.73600E+03  7.15265E+02 -3.03131E+03  3.86990E+03 -3.34912E+03
  4.35061E+03  7.10529E+02  5.46258E+03  3.09113E+03  1.79768E+03  4.73066E+03 -1.36750E+03  4.45214E+03
 -4.14920E+03  2.47656E+03 -3.87873E+03 -7.59168E+02 -2.32427E+03 -3.52539E+03  1.14494E+03 -2.14664E+03
  3.20600E+03 -9.80246E+02  2.40477E+03  1.12370E+03  4.27655E+02  3.01104E+03 -5.90204E+02  2.66171E+03
 -1.33253E+03  2.49505E+03 -7.39297E+02  5.38950E+02 -9.55285E+02  2.64798E+02 -8.35572E+02  1.37949E+03
 -1.42061E+03  1.65886E+03 -3.67382E+03  2.18045E+03 -5.05454E+03  5.59820E+02 -5.38920E+03 -3.31396E+03
 -2.67976E+03 -6.32658E+03  8.68633E+02 -7.68674E+03  3.79789E+03 -5.81580E+03  7.28724E+03 -2.01359E+03
  7.34348E+03  1.61427E+03  4.09928E+03  5.16274E+03  1.33911E+02  4.51907E+03 -1.97072E+03  4.20318E+03
 -2.26811E+03  1.70077E+03 -1.58174E+03 -9.89576E+02 -8.18062E+02 -7.68361E+01 -7.08723E+02 -6.50741E+01
 -1.62929E+03  1.36828E+02 -8.83959E+02 -7.92854E+02 -2.35425E+02 -1.25329E+03  1.16864E+02 -2.16102E+03
  3.06161E+03 -1.58844E+03  2.37621E+03  1.91402E+00  3.40829E+03  2.98396E+03  9.17055E+02  4.38332E+03
 -2.03177E+03  5.44819E+03 -4.98758E+03  3.54846E+03 -5.83803E+03 -7.24002E+02 -5.26750E+03 -4.47757E+03
 -1.49432E+03 -4.32214E+03  1.47763E+03 -5.09056E+03  3.04111E+03 -2.82550E+03  3.27448E+03  4.50736E+02
  1.63629E+03  9.11761E+02 -3.19629E+01  7.35775E+02 -7.86781E+02 -1.31200E+02 -2.20548E+02  8.77532E+01
  1.23238E+03 -7.21322E+02  2.28364E+03  9.79999E+02  1.18289E+03  1.78223E+03  2.72516E+02  1.56087E+03
 -1.95622E+03  2.14779E+03 -2.55567E+03  2.71424E+02 -2.61691E+03 -2.42089E+03 -1.98843E+01 -4.32211E+03
  1.91997E+03 -2.62783E+03  3.02544E+03 -8.83733E+02  3.46757E+03  1.97973E+02  1.67695E+03  2.72913E+03
  2.51360E+02  2.72241E+03 -5.45734E+02  2.76189E+03 -2.04481E+03  1.71198E+03 -1.23985E+03  1.28319E+02
 -9.71417E+02 -2.58655E+02 -8.25721E+02  3.32779E+02 -2.22883E+03  7.50444E+02 -2.16916E+03 -2.12534E+02
 -1.94619E+03 -8.76111E+02  2.86356E+02 -2.68691E+03  1.26060E+03 -4.18347E+03  2.75902E+03 -1.48258E+03
  3.08087E+03  4.77557E+02  1.07492E+03  1.95407E+03  5.22858E+01  3.52014E+03 -2.07388E+03  2.09962E+03
