 $NMID ID='MM_0lb_SNR400_16hz_g60_4.RAW', FMTDAT='(8E13.5)'
 TRAMP=1., VOLUME=1. $END
  3.09270E+05  1.60405E+02  3.38453E+05  2.50802E+05  8.44376E+04  3.38029E+05 -1.32484E+05  2.51113E+05
 -1.90419E+05  8.28028E+04 -1.11615E+05 -3.25832E+04  1.23083E+03 -5.05620E+04  5.34745E+04  7.16853E+01
  3.53117E+04  5.27165E+04 -1.67964E+04  7.58686E+04 -6.09887E+04  6.35719E+04 -8.42644E+04  3.21989E+04
 -8.11131E+04 -1.10600E+04 -5.75888E+04 -5.16554E+04 -1.55414E+04 -6.98216E+04  2.77827E+04 -4.60542E+04
  4.01574E+04  3.62005E+03  1.59569E+04  4.76218E+04 -3.40585E+04  4.75907E+04 -6.67352E+04 -3.70172E+02
 -5.37405E+04 -5.68275E+04 -6.80347E+03 -7.71370E+04  3.41679E+04 -5.51323E+04  4.73862E+04 -1.71314E+04
  4.34597E+04  1.15356E+04  3.23781E+04  2.59632E+04  1.53975E+04  2.87014E+04 -5.54971E+03  2.74682E+04
 -2.23805E+04  1.35480E+04 -1.84757E+04 -4.59085E+03  5.86283E+03 -7.23379E+03  2.23393E+04  1.19945E+04
  7.48700E+03  3.49178E+04 -3.21811E+04  3.50666E+04 -6.35509E+04  1.79135E+03 -5.74460E+04 -4.26499E+04
 -1.19862E+04 -6.30342E+04  4.00836E+04 -4.57345E+04  5.87089E+04 -1.67404E+03  3.47558E+04  3.19357E+04
 -6.20026E+03  3.60915E+04 -3.01197E+04  1.61153E+04 -3.04795E+04 -4.83133E+03 -1.67847E+04 -1.16634E+04
 -8.69617E+03 -1.30841E+04 -4.65718E+02 -1.82919E+04  7.58131E+03 -2.29106E+04  1.61427E+04 -1.32534E+04
  1.15450E+04  5.73196E+03 -8.51833E+03  1.32051E+04 -2.11472E+04 -4.85565E+03 -8.39690E+03 -3.35418E+04
  2.31705E+04 -4.34276E+04  4.84984E+04 -1.95925E+04  4.49546E+04  1.99733E+04  1.51502E+04  4.40264E+04
 -1.59673E+04  3.35601E+04 -2.57486E+04  2.31706E+03 -9.38756E+03 -2.79709E+04  2.09427E+04 -3.42584E+04
  4.09029E+04 -9.25310E+03  3.50195E+04  2.38231E+04  1.80731E+04  4.65548E+04 -8.85541E+03  4.97763E+04
 -3.12128E+04  3.39375E+04 -4.21782E+04  9.02207E+03 -4.27858E+04 -1.67352E+04 -2.28985E+04 -3.76491E+04
  7.01656E+03 -3.82494E+04  3.14805E+04 -1.47174E+04  2.94343E+04  1.11388E+04  3.76988E+03  1.91379E+04
 -1.32850E+04  8.61408E+03 -1.02060E+04 -8.18317E+03  5.52165E+03 -1.10332E+04  1.84121E+04  5.97429E+03
  1.34881E+04  2.20903E+04 -6.18250E+03  2.57634E+04 -2.25762E+04  1.16059E+04 -2.70793E+04 -4.94942E+03
 -1.98744E+04 -1.67041E+04 -7.94289E+03 -2.09450E+04  3.96211E+03 -1.89152E+04  1.54723E+04 -1.87111E+04
  2.61615E+04 -1.21760E+04  3.22022E+04  2.46737E+03  2.38297E+04  1.96485E+04  4.34603E+03  3.58176E+04
 -1.80134E+04  3.03362E+04 -2.82968E+04  1.02122E+04 -2.05467E+04 -1.09865E+04 -4.45170E+03 -1.34058E+04
  1.61005E+03 -2.07663E+03 -4.69388E+03  6.68865E+03 -1.60500E+04  5.27490E+03 -1.61263E+04 -6.40821E+03
 -9.60547E+03 -1.88533E+04  5.06857E+03 -2.30557E+04  1.50150E+04 -1.64841E+04  1.78365E+04 -2.20834E+03
  1.10840E+04  1.27031E+04 -9.24403E+02  1.84697E+04 -1.26793E+04  1.08697E+04 -1.89332E+04 -3.17462E+03
 -1.35432E+04 -1.69235E+04 -1.60644E+03 -2.21926E+04  1.03031E+04 -1.85744E+04  1.87531E+04 -8.74372E+03
  1.69851E+04  3.69250E+02  1.23035E+04  4.78650E+03  5.80861E+03  1.13243E+03  9.92981E+03 -1.40193E+03
  1.73169E+04  3.37415E+03  1.86905E+04  1.49353E+04  1.23192E+04  2.96241E+04 -2.18307E+03  3.36594E+04
 -1.97784E+04  2.62816E+04 -3.08672E+04  1.31484E+04 -3.25151E+04 -1.76219E+03 -2.65564E+04 -1.81119E+04
 -1.14810E+04 -2.67084E+04  8.58152E+03 -2.39834E+04  2.05447E+04 -1.22187E+04  1.88924E+04  5.16470E+03
  7.39810E+03  1.39972E+04 -8.72049E+03  1.25447E+04 -1.48555E+04  2.59880E+03 -1.19840E+04 -1.00786E+04
 -1.40190E+02 -1.51631E+04  7.72171E+03 -1.07953E+04  9.98694E+03 -1.90079E+03  2.37956E+03  5.81345E+03
 -6.75946E+03  2.39578E+03 -5.56887E+03 -5.58115E+03  3.37243E+02 -1.31198E+04  9.34834E+03 -1.30947E+04
  1.58506E+04 -6.76994E+03  1.64962E+04  2.88332E+03  1.45242E+04  1.27087E+04  6.56371E+03  1.92720E+04
 -2.80007E+03  2.08291E+04 -1.32572E+04  1.31662E+04 -1.49699E+04  2.89348E+03 -1.07631E+04 -3.12533E+03
 -5.15314E+03 -4.92015E+03 -9.93694E+02  5.78164E+02 -2.34411E+03  2.46787E+03 -4.87699E+03  3.33302E+03
 -9.65248E+03 -4.13109E+02 -1.05935E+04 -8.48847E+03 -4.12002E+03 -1.38387E+04  4.23939E+03 -1.05518E+04
  9.29538E+03 -4.78720E+03  6.43085E+03  2.56462E+03  3.76156E+01  4.41052E+03 -4.93568E+03  4.59627E+02
 -4.50882E+03 -6.44423E+03 -1.53223E+02 -1.01355E+04  5.81697E+03 -1.06085E+04  1.28181E+04 -5.60330E+03
  1.54509E+04  1.23374E+03  1.17700E+04  8.55061E+03  2.73376E+03  1.17037E+04 -6.65831E+03  1.10460E+04
 -8.10243E+03  3.28177E+03 -4.35725E+03 -1.72287E+03  1.40737E+03 -2.85363E+03  5.64773E+03 -8.97867E+02
  5.15822E+03  3.93768E+03  6.38942E+02  8.47840E+03 -6.14914E+03  7.53452E+03 -1.05783E+04  1.95500E+03
 -6.48847E+03 -5.15627E+03  2.06406E+02 -8.24540E+03  4.85616E+03 -4.33962E+03  4.64153E+03  1.81510E+03
  8.38456E+02  5.24155E+03 -5.42685E+03  6.39805E+03 -7.14366E+03  2.73498E+03 -7.55555E+03 -1.92301E+03
 -4.86179E+03 -8.89916E+03  1.97767E+03 -1.04416E+04  8.57118E+03 -6.03321E+03  9.63479E+03  1.31731E+03
  5.98342E+03  7.51392E+03  6.01081E+01  9.69107E+03 -6.36755E+03  5.55856E+03 -6.99663E+03 -2.77682E+02
 -7.01084E+03 -6.68031E+03 -1.87334E+03 -6.69254E+03  3.42790E+03 -5.72087E+03  4.42011E+03 -3.55678E+03
  3.00865E+03  1.80659E+02 -3.89662E+02  1.84895E+03 -5.99529E+01 -1.03008E+03  6.01880E+02 -3.23488E+03
  5.72400E+03 -1.93420E+03  8.77257E+03  6.01169E+02  8.33306E+03  4.67239E+03  6.23301E+03  1.11932E+04
 -1.80941E+03  1.26896E+04 -1.04775E+04  9.55851E+03 -1.38792E+04  2.06003E+03 -1.07485E+04 -4.57892E+03
 -5.60020E+03 -9.47396E+03 -9.74135E+02 -7.84554E+03  2.55747E+03 -4.03744E+03  1.96594E+03 -2.78438E+03
  1.82292E+03 -1.97682E+03  2.68778E+03 -2.73525E+03  3.60922E+03 -1.44694E+03  5.09485E+03  3.88325E+01
  6.02036E+03  1.87149E+03  2.22680E+03  5.46403E+03 -2.06857E+03  4.54459E+03 -6.38984E+03  3.65171E+03
 -7.24382E+03 -1.48351E+03 -3.85397E+03 -4.96255E+03  3.73661E+02 -7.31051E+03  4.61059E+03 -8.10737E+03
  7.92784E+03 -4.72116E+03  1.00002E+04  1.17077E+03  7.14354E+03  5.78875E+03  1.22649E+03  7.95504E+03
 -3.55553E+03  7.68271E+03 -5.61239E+03  3.22145E+03 -3.09245E+03 -1.13088E+03 -8.90040E+02 -1.20886E+03
 -4.60944E+02  8.86601E+02 -1.10554E+03  2.12103E+03 -3.31712E+03  1.66933E+03 -5.23379E+03 -4.34692E+02
 -2.92152E+03 -4.89496E+03  5.88200E+02 -6.26473E+03  4.44642E+03 -6.61288E+03  6.37936E+03 -1.70185E+03
  6.24020E+03  3.24858E+03  3.20385E+03  6.04638E+03 -8.30437E+02  6.15087E+03 -4.82175E+03  3.86567E+03
 -6.33941E+03  7.48440E+02 -5.37032E+03 -3.53477E+03 -8.07918E+02 -4.37074E+03  2.73283E+03 -4.02484E+03
  4.02971E+03 -1.50726E+03  2.34740E+03  8.52125E+02  9.95188E+02  2.12305E+03  6.69099E+02  2.62192E+02
  1.66996E+03  1.23344E+03  2.09176E+03  1.06074E+03  1.93176E+03  2.89928E+03  1.37065E+03  2.90456E+03
 -1.36663E+03  4.74448E+03 -3.99224E+03  5.88928E+03 -5.04721E+03  1.30021E+03 -6.16182E+03 -1.81142E+03
 -2.50325E+03 -5.30803E+03  1.10839E+03 -7.17456E+03  2.94080E+03 -4.46980E+03  4.56928E+03 -1.39790E+03
  3.70335E+03  2.29037E+03  5.71576E+02  2.71579E+03 -1.73315E+03  1.63373E+03 -1.66483E+03 -4.64823E+02
 -1.06546E+03 -2.59150E+03  1.77362E+03 -2.55429E+03  2.58700E+03 -1.52738E+03  2.69391E+03  3.86442E+02
  8.49658E+02  8.47396E+02  2.79496E+02  5.54668E+02 -6.08413E+02  9.78333E+02  1.40736E+03  2.98303E+01
  1.01563E+02 -3.97325E+02  2.21332E+03  1.18506E+03  1.33982E+03  3.47263E+03 -6.81656E+02  4.09089E+03
 -2.43937E+03  2.41492E+03 -2.80996E+03  8.79882E+02 -3.57123E+03 -1.29919E+03 -9.80383E+02 -2.09868E+03
  1.54904E+02 -2.55606E+03  7.65384E+02 -1.15544E+03  7.01029E+02  1.48958E+03 -6.56478E+02  2.15715E+03
 -1.83038E+03  9.43431E+02 -2.56832E+03 -1.82160E+03 -1.10749E+03 -3.00121E+03  4.47432E+02 -3.38312E+03
  1.42380E+03 -1.29191E+03  1.60845E+03 -4.61977E+02  2.30226E+03 -7.26195E+01  5.66589E+02  2.01030E+03
 -1.22222E+03 -1.48159E+02 -1.15863E+03 -1.07027E+03  4.69604E+02 -1.62667E+03  2.96731E+03 -1.72750E+03
  2.84062E+03 -6.81308E+01  3.44066E+03  1.64880E+03  1.55829E+03  2.81700E+03 -7.70590E+02  2.87101E+03
 -2.13025E+03  9.37410E+02 -2.23557E+03 -5.34320E+02 -2.00676E+03 -2.16831E+03  9.26740E+02 -1.21939E+03
  2.02753E+03 -1.58220E+03  1.74142E+03  8.49793E+02  1.79975E+02  2.07669E+03 -9.53677E+01  1.81952E+03
 -6.43865E+02  1.48253E+03 -1.74535E+02  3.42569E+02 -4.06280E+02  3.41819E+02 -1.00442E+03  8.02490E+02
 -7.44734E+02  9.50693E+02 -2.28589E+03  8.35127E+02 -3.10485E+03  5.14881E+01 -3.63828E+03 -1.47102E+03
 -1.93758E+03 -3.83721E+03  1.23070E+03 -4.62641E+03  1.90088E+03 -3.61655E+03  4.24773E+03 -1.84650E+03
  4.16727E+03  2.99375E+02  2.61664E+03  2.57564E+03 -1.89195E+02  2.26309E+03 -1.76671E+03  2.33365E+03
 -1.99087E+03  1.45845E+03 -1.03028E+03 -1.70686E+02 -7.36590E+02  5.41464E+01 -6.78638E+02 -9.55942E+01
 -1.35222E+03 -1.39325E+01 -1.70752E+03 -1.06362E+02  1.20934E+02 -1.11936E+03 -1.47886E+02 -1.30651E+03
  1.61623E+03 -1.10284E+03  7.22680E+02 -4.95840E+01  1.93056E+03  1.82011E+03  1.73610E+01  2.35741E+03
 -1.27578E+03  3.74514E+03 -2.86116E+03  2.41584E+03 -2.96294E+03 -2.26613E+02 -2.22028E+03 -1.79572E+03
 -1.25021E+03 -2.56910E+03  5.24829E+02 -1.55028E+03  1.43303E+03 -1.15763E+03  1.54763E+03  7.07310E+02
  1.17049E+03  6.55563E+02  3.52415E+02  1.42800E+03 -8.65583E+02  1.89363E+02 -1.01178E+02 -5.83859E+02
  3.93410E+02  1.37294E+02  4.19885E+02  7.75798E+02  1.03406E+03  1.03146E+03  6.22289E+02  1.38837E+03
 -1.38296E+03  6.81630E+02 -1.49705E+03  1.13769E+02 -1.37700E+03 -9.22030E+02  2.69223E+02 -2.30304E+03
  9.71439E+02 -1.72019E+03  1.29461E+03  2.59391E+02  2.01669E+03  2.67692E+02  1.49973E+03  1.18682E+03
  3.94539E+02  7.69434E+02 -1.36288E+02  1.34503E+03 -1.19654E+03  5.30977E+02 -1.39159E+03  3.33055E+02
  7.05477E+01  1.09935E+02 -4.01373E+02  9.04512E+01 -1.37915E+03  3.05924E+02 -1.35938E+03 -3.82875E+02
 -1.47926E+03 -5.58627E+01 -8.38226E+02 -1.35088E+03  8.80451E+02 -2.05274E+03  1.19166E+03 -8.69970E+02
  1.09222E+03  3.72817E+02  9.88511E+01  1.06070E+03 -4.27297E+02  1.77782E+03 -1.03765E+03  1.55699E+03
