 $NMID ID='MM_0lb_SNR400_17hz_g45_34.RAW', FMTDAT='(8E13.5)'
 TRAMP=1., VOLUME=1. $END
  3.09972E+05  3.12410E+02  3.38095E+05  2.50205E+05  8.45427E+04  3.36696E+05 -1.32367E+05  2.50222E+05
 -1.89492E+05  8.26989E+04 -1.10973E+05 -3.32664E+04  1.19188E+03 -5.03568E+04  5.33529E+04  1.56858E+02
  3.47495E+04  5.29278E+04 -1.66304E+04  7.54634E+04 -6.00348E+04  6.23353E+04 -8.31120E+04  3.18939E+04
 -7.99267E+04 -1.14387E+04 -5.66422E+04 -5.05664E+04 -1.53787E+04 -6.85837E+04  2.66744E+04 -4.51812E+04
  3.93056E+04  3.96958E+03  1.55334E+04  4.69381E+04 -3.45152E+04  4.64880E+04 -6.58283E+04 -5.28983E+02
 -5.22064E+04 -5.61411E+04 -6.72381E+03 -7.50768E+04  3.27588E+04 -5.35142E+04  4.69893E+04 -1.64386E+04
  4.16745E+04  1.09941E+04  3.09492E+04  2.43693E+04  1.56345E+04  2.85917E+04 -4.16927E+03  2.70770E+04
 -2.16299E+04  1.25564E+04 -1.87040E+04 -4.62072E+03  4.62835E+03 -7.36056E+03  2.16724E+04  1.14056E+04
  7.41506E+03  3.41163E+04 -3.08176E+04  3.35172E+04 -6.13018E+04  1.88930E+03 -5.57237E+04 -4.17339E+04
 -1.26952E+04 -6.18597E+04  3.80747E+04 -4.37048E+04  5.60459E+04 -1.92356E+03  3.24629E+04  3.10145E+04
 -6.79240E+03  3.43857E+04 -2.95304E+04  1.42632E+04 -2.77631E+04 -5.11385E+03 -1.53061E+04 -1.06745E+04
 -7.22736E+03 -1.10768E+04 -9.24446E+02 -1.68358E+04  6.59484E+03 -2.24095E+04  1.51927E+04 -1.39185E+04
  1.13425E+04  4.38696E+03 -6.62413E+03  1.24768E+04 -2.00596E+04 -2.88472E+03 -8.22138E+03 -3.11305E+04
  2.17562E+04 -4.16384E+04  4.55678E+04 -1.86830E+04  4.25415E+04  1.83847E+04  1.46745E+04  4.23923E+04
 -1.55630E+04  3.15172E+04 -2.40446E+04  1.68049E+03 -8.68809E+03 -2.68443E+04  2.03576E+04 -3.18541E+04
  3.90827E+04 -7.66628E+03  3.24564E+04  2.34530E+04  1.59474E+04  4.36591E+04 -7.69120E+03  4.67064E+04
 -2.90063E+04  3.05374E+04 -3.87267E+04  8.83371E+03 -3.95300E+04 -1.55257E+04 -2.20496E+04 -3.55890E+04
  7.82676E+03 -3.48655E+04  2.96462E+04 -1.33906E+04  2.70904E+04  1.11426E+04  3.10299E+03  1.81119E+04
 -1.30915E+04  7.65598E+03 -9.73316E+03 -7.52805E+03  5.78538E+03 -9.83914E+03  1.75986E+04  6.09097E+03
  1.32355E+04  2.23460E+04 -6.23743E+03  2.40500E+04 -2.19891E+04  9.87589E+03 -2.54569E+04 -5.71337E+03
 -1.78231E+04 -1.60982E+04 -6.71948E+03 -1.76589E+04  3.77755E+03 -1.60092E+04  1.36488E+04 -1.59646E+04
  2.19966E+04 -1.19654E+04  2.93202E+04  1.31754E+03  2.20256E+04  1.67099E+04  4.45845E+03  3.28994E+04
 -1.62401E+04  2.79534E+04 -2.69424E+04  9.06462E+03 -1.93833E+04 -1.03072E+04 -4.13520E+03 -1.35149E+04
  2.98260E+03 -3.50530E+03 -2.74899E+03  5.58964E+03 -1.41204E+04  5.36016E+03 -1.41962E+04 -5.36295E+03
 -9.41664E+03 -1.62533E+04  5.03078E+03 -2.02242E+04  1.31156E+04 -1.47882E+04  1.55235E+04 -1.39078E+03
  9.30664E+03  1.18684E+04 -6.74155E+02  1.62120E+04 -1.08599E+04  9.04434E+03 -1.60797E+04 -3.75214E+03
 -1.21071E+04 -1.46919E+04 -1.65090E+03 -2.00605E+04  8.64900E+03 -1.61167E+04  1.65855E+04 -8.20633E+03
  1.57376E+04 -4.58736E+00  1.11849E+04  3.83352E+03  5.69819E+03  3.32683E+02  7.67266E+03 -1.82291E+03
  1.44105E+04  2.28662E+03  1.53805E+04  1.38562E+04  1.02169E+04  2.57885E+04 -2.91178E+03  2.80014E+04
 -1.69167E+04  2.19917E+04 -2.56134E+04  1.09893E+04 -2.75668E+04 -1.79312E+03 -2.30918E+04 -1.56949E+04
 -1.05853E+04 -2.21173E+04  7.62185E+03 -2.04261E+04  1.72932E+04 -1.14995E+04  1.60029E+04  4.48464E+03
  6.83588E+03  1.14302E+04 -7.59861E+03  1.05387E+04 -1.39988E+04  2.27637E+03 -1.02549E+04 -8.38106E+03
 -6.07349E+02 -1.30476E+04  6.72178E+03 -1.04406E+04  8.14083E+03 -1.40627E+03  1.80313E+03  5.92949E+03
 -5.79537E+03  1.78603E+03 -4.13777E+03 -4.93401E+03  9.56267E+02 -1.10281E+04  8.07401E+03 -1.15497E+04
  1.37957E+04 -5.56306E+03  1.32493E+04  2.55849E+03  1.11850E+04  1.06419E+04  6.09865E+03  1.51527E+04
 -2.38953E+03  1.83111E+04 -1.13249E+04  1.01112E+04 -1.26283E+04  3.14892E+03 -8.93107E+03 -2.33516E+03
 -4.34417E+03 -3.29029E+03 -1.09567E+03  1.43218E+03 -1.60396E+03  2.84138E+03 -4.22454E+03  3.52897E+03
 -8.11696E+03 -1.68487E+02 -9.20292E+03 -7.93998E+03 -4.06113E+03 -1.16640E+04  4.33981E+03 -8.98167E+03
  8.00843E+03 -4.54267E+03  5.94206E+03  1.64454E+03  8.97005E+02  3.01210E+03 -3.77073E+03 -2.14055E+02
 -3.59521E+03 -5.47949E+03 -7.59989E+02 -7.98535E+03  4.42183E+03 -8.38474E+03  1.07454E+04 -3.94601E+03
  1.24951E+04  1.23678E+03  1.00836E+04  7.27101E+03  2.12654E+03  9.54139E+03 -6.23731E+03  9.02953E+03
 -7.32138E+03  3.06322E+03 -3.79194E+03 -1.61173E+03  1.03246E+03 -2.64595E+03  4.81480E+03 -1.16929E+03
  4.67203E+03  4.06777E+03  1.36239E+03  6.77646E+03 -5.17985E+03  6.90765E+03 -8.53999E+03  1.64594E+03
 -4.76672E+03 -4.02805E+03  9.76022E+01 -7.47765E+03  4.83386E+03 -3.26880E+03  4.59268E+03  1.06965E+03
  9.60923E+02  4.33929E+03 -4.34732E+03  4.67401E+03 -5.19832E+03  2.04212E+03 -5.73514E+03 -1.60471E+03
 -3.42216E+03 -7.17232E+03  8.42982E+02 -8.36858E+03  6.53734E+03 -5.27682E+03  7.14967E+03  1.20337E+03
  4.71058E+03  6.11490E+03  1.99821E+02  7.80279E+03 -5.71178E+03  5.01510E+03 -5.79065E+03 -8.18029E+02
 -5.83916E+03 -6.27481E+03 -1.47297E+03 -5.32274E+03  2.78436E+03 -5.06330E+03  3.57428E+03 -3.54423E+03
  2.85142E+03  7.21800E+02 -1.14765E+02  1.83929E+03  1.10188E+03 -4.49636E+02  6.31829E+02 -2.17868E+03
  4.03095E+03 -1.36303E+03  6.19184E+03  1.07587E+03  6.45239E+03  4.00265E+03  5.29013E+03  8.04905E+03
 -1.70928E+03  1.01174E+04 -8.87492E+03  7.57533E+03 -1.09222E+04  1.55062E+03 -8.46518E+03 -2.83015E+03
 -4.95676E+03 -7.26418E+03 -8.31397E+02 -6.13786E+03  2.72846E+03 -2.28078E+03  2.26943E+03 -1.95246E+03
  1.65349E+03 -2.25030E+03  2.77770E+03 -2.26508E+03  3.34050E+03 -1.58389E+03  4.16319E+03  3.63121E+02
  5.11808E+03  7.56654E+02  2.08142E+03  4.14478E+03 -1.65936E+03  3.44191E+03 -5.18307E+03  3.58204E+03
 -5.91242E+03 -9.97974E+02 -2.82815E+03 -3.77139E+03  3.18214E+02 -6.02611E+03  3.82958E+03 -6.04488E+03
  6.25825E+03 -3.57195E+03  8.18504E+03  3.34325E+01  5.46733E+03  4.78710E+03  1.33294E+03  6.96385E+03
 -3.11625E+03  7.02743E+03 -3.63075E+03  2.67809E+03 -2.47202E+03 -1.06273E+03 -7.69860E+02 -4.90265E+02
 -4.08045E+02  1.13131E+02 -1.44020E+03  2.37390E+03 -2.90056E+03  1.34843E+03 -4.05445E+03 -2.55421E+02
 -1.89178E+03 -4.98491E+03  6.63623E+02 -5.33185E+03  3.24938E+03 -4.60668E+03  4.41792E+03 -1.09799E+03
  5.00071E+03  2.60987E+03  1.76288E+03  3.90032E+03 -7.79158E+02  5.31089E+03 -3.65256E+03  3.19472E+03
 -4.33853E+03  3.84382E+02 -4.07105E+03 -2.63131E+03 -5.73939E+01 -3.67623E+03  2.61938E+03 -2.53335E+03
  3.53093E+03 -1.63568E+03  2.15354E+03  8.09396E+01  2.16063E+02  1.78191E+03  1.33372E+03  8.47669E+02
  2.20585E+03  1.16418E+03  1.24387E+03  9.43630E+02  1.13319E+03  2.53960E+03  1.61051E+03  2.27347E+03
 -1.73110E+03  4.11975E+03 -3.47353E+03  4.66393E+03 -3.99978E+03  1.54915E+03 -4.79432E+03 -7.57026E+02
 -2.62442E+03 -4.54308E+03  3.94315E+02 -5.83034E+03  2.77658E+03 -3.39396E+03  4.12128E+03 -1.21599E+03
  2.66469E+03  1.91154E+03  1.06819E+03  2.09263E+03 -8.36814E+02  1.78141E+03 -1.29409E+03 -5.42471E+02
 -1.27361E+02 -2.29280E+03  1.40961E+03 -2.67553E+03  1.47430E+03 -1.51470E+03  1.69549E+03  3.53483E+02
  1.21427E+03  5.39631E+02  1.15961E+03  3.52278E+02 -3.51077E+02  5.56010E+02  1.91557E+03 -4.60945E+02
 -3.25452E+02 -1.57973E+02  1.92440E+03  2.61555E+02  4.85026E+02  2.55483E+03 -1.01036E+03  3.37470E+03
 -1.92765E+03  1.10514E+03 -2.19646E+03  3.01724E+02 -2.89249E+03 -9.29370E+02 -4.67219E+02 -9.44840E+02
  3.88291E+02 -1.72758E+03  1.28819E+03 -5.50559E+02  5.01869E+02  9.61801E+02 -1.75018E+03  9.45657E+02
 -1.97916E+03  9.00178E+02 -1.76573E+03 -1.58264E+03 -1.39412E+03 -2.78494E+03  1.75507E+01 -1.57827E+03
  5.97836E+02 -1.00854E+03  8.81598E+02 -3.79606E+02  1.63362E+03  4.61979E+02  8.03205E+02  1.58550E+03
 -1.68126E+02  2.12046E+02 -9.15383E+02 -3.42832E+02  1.38025E+02 -1.37168E+03  2.14404E+03 -1.32420E+03
  1.79710E+03  4.37419E+02  3.45146E+03  8.56624E+02  1.52417E+03  2.88815E+03 -6.91872E+02  2.28513E+03
 -1.46665E+03  3.45137E+02 -1.68026E+03  9.65530E+01 -1.01367E+03 -1.43027E+03 -1.10948E+02 -8.38471E+02
  1.60906E+03 -5.89478E+02  3.69714E+02  1.32023E+03  3.10587E+02  1.92384E+03  1.08088E+02  1.48521E+03
 -4.21995E+02  1.38153E+03 -4.49320E+02  1.00086E+02 -6.85103E+02  6.28206E+02 -1.13019E+03  5.83095E+02
 -7.99163E+02  2.04086E+03 -2.02669E+03  2.34123E+02 -1.62800E+03  3.96593E+02 -3.49348E+03 -1.31395E+03
 -1.08310E+03 -2.46874E+03  9.71642E+01 -4.05436E+03  1.65454E+03 -2.85737E+03  3.37711E+03 -1.65758E+03
  3.22657E+03 -1.38763E+02  1.80493E+03  2.25097E+03 -7.41836E+01  2.48242E+03 -7.16865E+02  1.55509E+03
 -1.24168E+03  7.15611E+02 -8.16323E+02  2.02784E+02 -6.76020E+02  2.46132E+02 -1.09664E+03  8.23510E+01
 -8.45692E+02  3.55658E+02 -1.36057E+03  2.00206E+00  3.65833E+02 -5.11195E+02  2.13743E+01 -1.24489E+03
  1.57434E+03 -1.08755E+03  3.38459E+02  4.97093E+01  1.92312E+03  1.10953E+03 -6.34043E+02  1.98332E+03
 -1.03048E+03  3.16644E+03 -2.18312E+03  1.61686E+03 -2.75677E+03 -5.91674E+02 -1.45506E+03 -1.83495E+03
 -9.31232E+02 -2.38700E+03  9.92382E+02 -1.77225E+03  8.71215E+02 -1.92444E+02  5.03881E+02  5.22000E+02
  7.05844E+02  9.56009E+02  1.82042E+02  6.69544E+02 -1.62083E+02 -3.85289E+02 -6.85099E+02 -4.47891E+02
  4.34125E+02 -1.62856E+02  1.44937E+02  6.14961E+02  6.82584E+02  7.05334E+02  8.31143E+02  5.62631E+02
 -1.09263E+03  7.29087E+02 -1.11514E+03 -7.53829E+01 -1.16928E+03 -6.80485E+02 -3.73469E+02 -1.18856E+03
  1.02911E+03 -1.16258E+03  9.34165E+02  6.21140E+02  1.35719E+03 -2.99608E+02  1.11074E+03  1.06641E+03
  6.42025E+02  6.79103E+02 -6.68757E+02  6.61536E+02 -4.97419E+02  5.21508E+02 -8.42619E+02  2.97188E+02
 -3.45949E+02 -3.23136E+02 -3.16000E+02  3.56239E+02 -5.68658E+02  1.04347E+02 -6.97513E+02 -2.63825E+02
 -1.49121E+03  7.66547E+02 -2.64167E+02 -1.42731E+03  1.23373E+03 -2.15095E+03  1.14355E+03 -7.23121E+02
  8.65597E+02  1.38167E+02 -1.85770E+02  8.80767E+01 -3.15258E+02  8.75071E+02 -3.57287E+02  5.23213E+02
