 $NMID ID='MM_0lb_SNR400_20hz_g55_66.RAW', FMTDAT='(8E13.5)'
 TRAMP=1., VOLUME=1. $END
  3.10215E+05  3.62877E+02  3.37324E+05  2.50611E+05  8.45492E+04  3.37602E+05 -1.32782E+05  2.49746E+05
 -1.89724E+05  8.24128E+04 -1.11435E+05 -3.32377E+04  1.49479E+03 -5.05398E+04  5.40762E+04  3.11182E+02
  3.52303E+04  5.29614E+04 -1.70044E+04  7.51226E+04 -6.00517E+04  6.30529E+04 -8.34721E+04  3.15181E+04
 -8.01474E+04 -1.09827E+04 -5.60058E+04 -5.05102E+04 -1.49976E+04 -6.82804E+04  2.65771E+04 -4.43695E+04
  3.91299E+04  3.54990E+03  1.58287E+04  4.72535E+04 -3.37015E+04  4.65174E+04 -6.56511E+04 -6.37174E+02
 -5.20456E+04 -5.61171E+04 -6.40686E+03 -7.48657E+04  3.30863E+04 -5.31352E+04  4.64561E+04 -1.64649E+04
  4.18760E+04  1.08289E+04  3.05073E+04  2.43832E+04  1.57886E+04  2.83825E+04 -4.56853E+03  2.70330E+04
 -2.21012E+04  1.29597E+04 -1.89930E+04 -4.38656E+03  3.98587E+03 -6.79993E+03  2.08931E+04  1.07324E+04
  7.10379E+03  3.30443E+04 -3.08281E+04  3.32930E+04 -6.10763E+04  2.24664E+03 -5.52567E+04 -4.16976E+04
 -1.25558E+04 -6.12993E+04  3.77885E+04 -4.31741E+04  5.57661E+04 -2.02086E+03  3.20325E+04  3.04517E+04
 -6.34707E+03  3.31713E+04 -2.88177E+04  1.40240E+04 -2.77073E+04 -5.45300E+03 -1.42018E+04 -1.01193E+04
 -6.90280E+03 -1.15015E+04 -6.64452E+02 -1.72076E+04  6.26865E+03 -2.26626E+04  1.44435E+04 -1.45447E+04
  1.20850E+04  3.88185E+03 -6.18689E+03  1.31779E+04 -1.93121E+04 -2.59566E+03 -7.97610E+03 -3.06013E+04
  2.13682E+04 -4.04647E+04  4.48247E+04 -1.85016E+04  4.18760E+04  1.81836E+04  1.43589E+04  4.12500E+04
 -1.50411E+04  3.08116E+04 -2.32398E+04  9.43038E+02 -8.32993E+03 -2.69131E+04  2.05159E+04 -3.15454E+04
  3.83500E+04 -7.51692E+03  3.11465E+04  2.27817E+04  1.54096E+04  4.27073E+04 -7.39811E+03  4.52599E+04
 -2.82244E+04  3.02512E+04 -3.79694E+04  8.90660E+03 -3.83396E+04 -1.47468E+04 -2.19444E+04 -3.36236E+04
  6.89637E+03 -3.45071E+04  2.89422E+04 -1.23391E+04  2.65258E+04  1.03171E+04  2.68788E+03  1.79177E+04
 -1.26311E+04  7.61200E+03 -9.41264E+03 -8.00230E+03  6.30238E+03 -1.00495E+04  1.74105E+04  6.64179E+03
  1.25988E+04  2.13191E+04 -6.52101E+03  2.32551E+04 -2.12740E+04  8.83533E+03 -2.52500E+04 -6.41620E+03
 -1.66455E+04 -1.65517E+04 -5.73025E+03 -1.68006E+04  3.90176E+03 -1.49051E+04  1.27687E+04 -1.42221E+04
  2.10564E+04 -1.15269E+04  2.74904E+04  1.34650E+03  2.11232E+04  1.64263E+04  4.73833E+03  3.24196E+04
 -1.63290E+04  2.70549E+04 -2.57333E+04  9.45700E+03 -1.98951E+04 -1.04553E+04 -3.85175E+03 -1.36771E+04
  2.23948E+03 -3.97340E+03 -2.27291E+03  5.19167E+03 -1.30300E+04  5.37136E+03 -1.27823E+04 -4.33058E+03
 -9.04862E+03 -1.51631E+04  4.08026E+03 -1.88036E+04  1.23007E+04 -1.34988E+04  1.42097E+04 -9.21640E+02
  8.85342E+03  1.07699E+04 -1.01338E+03  1.55511E+04 -9.98875E+03  8.69103E+03 -1.53382E+04 -3.37176E+03
 -1.14925E+04 -1.41355E+04 -1.37189E+03 -1.92139E+04  8.36651E+03 -1.47612E+04  1.60421E+04 -7.48831E+03
  1.35766E+04  5.83516E+02  1.01877E+04  4.11118E+03  5.46048E+03  7.79582E+02  7.50192E+03 -1.41348E+03
  1.34636E+04  1.99325E+03  1.45539E+04  1.28484E+04  9.12120E+03  2.39196E+04 -2.89144E+03  2.59751E+04
 -1.55203E+04  1.99877E+04 -2.41337E+04  9.29101E+03 -2.40608E+04 -1.91498E+03 -2.06789E+04 -1.39693E+04
 -1.02622E+04 -1.93178E+04  6.72654E+03 -1.82499E+04  1.66858E+04 -1.04518E+04  1.52098E+04  3.32466E+03
  6.63557E+03  1.04729E+04 -7.14897E+03  1.03490E+04 -1.25787E+04  2.61352E+03 -1.00596E+04 -7.46715E+03
  4.34906E+00 -1.18279E+04  6.23668E+03 -9.41959E+03  7.74318E+03 -1.74450E+03  9.86631E+02  4.58872E+03
 -5.31897E+03  1.23827E+03 -3.59146E+03 -4.52609E+03  9.51591E+02 -1.02147E+04  8.08900E+03 -9.78847E+03
  1.16242E+04 -4.57511E+03  1.13873E+04  3.00932E+03  9.82035E+03  9.04224E+03  4.23431E+03  1.29546E+04
 -5.89783E+02  1.54535E+04 -8.92278E+03  9.60635E+03 -1.09693E+04  2.78946E+03 -7.94873E+03 -1.37095E+03
 -4.20101E+03 -3.17663E+03 -1.05662E+03  1.51036E+03 -2.69620E+03  2.38578E+03 -3.60985E+03  3.28927E+03
 -7.76180E+03 -7.13301E+02 -8.14941E+03 -7.23256E+03 -3.48037E+03 -1.07931E+04  2.91076E+03 -8.34007E+03
  7.01507E+03 -3.60258E+03  5.02712E+03  2.26572E+03  1.19304E+03  3.02319E+03 -2.97866E+03 -1.02381E+02
 -3.17309E+03 -5.10939E+03 -4.31116E+02 -6.72788E+03  3.67445E+03 -7.44846E+03  9.43060E+03 -3.55401E+03
  1.11311E+04  8.02710E+02  7.83237E+03  5.81839E+03  1.73572E+03  7.96126E+03 -4.65517E+03  7.76211E+03
 -7.13548E+03  2.24405E+03 -3.55259E+03 -1.02070E+03  1.13999E+03 -2.08380E+03  4.44445E+03 -7.56312E+02
  3.71483E+03  3.35505E+03  4.66996E+02  6.09918E+03 -3.93303E+03  5.95453E+03 -7.43123E+03  1.79722E+03
 -4.56788E+03 -3.24900E+03  3.07605E+02 -5.68426E+03  2.90241E+03 -2.80618E+03  2.81778E+03  1.33840E+03
  7.33050E+02  3.03947E+03 -3.65482E+03  4.40283E+03 -4.76509E+03  2.54495E+03 -3.89082E+03 -9.04683E+02
 -2.84871E+03 -5.87845E+03  8.75769E+02 -6.46301E+03  5.29348E+03 -4.19934E+03  6.01837E+03  5.26823E+02
  4.12229E+03  4.97390E+03  4.21264E+02  6.88446E+03 -5.22281E+03  3.48858E+03 -4.48418E+03 -3.40529E+02
 -5.62186E+03 -5.14025E+03 -1.61562E+03 -4.18042E+03  3.00970E+03 -4.40601E+03  2.91975E+03 -2.59193E+03
  2.74534E+03  3.46966E+02 -4.07540E+02  1.84156E+03  7.23546E+02 -3.62182E+02  5.02993E+01 -1.38453E+03
  3.01366E+03 -6.21568E+02  3.94674E+03  6.69358E+02  5.00312E+03  2.60094E+03  4.80255E+03  6.51787E+03
 -9.01305E+02  7.21053E+03 -6.70152E+03  5.92497E+03 -8.57417E+03  9.35902E+02 -7.17439E+03 -2.25995E+03
 -3.86974E+03 -5.44265E+03 -1.63065E+02 -4.70139E+03  1.63686E+03 -2.07408E+03  1.78842E+03 -1.99181E+03
  1.61231E+03 -9.45979E+02  2.41727E+03 -1.96554E+03  3.54066E+03 -1.42053E+03  3.35388E+03  7.26028E+02
  4.02726E+03  9.63535E+02  1.36915E+03  2.78600E+03 -1.44575E+03  2.25164E+03 -3.68470E+03  2.47361E+03
 -4.65895E+03 -7.58887E+02 -1.01324E+03 -3.26211E+03  9.32642E+02 -4.19206E+03  2.42008E+03 -4.99998E+03
  4.18660E+03 -3.28857E+03  5.99612E+03  3.20324E+02  4.09431E+03  3.42126E+03  6.41425E+02  5.35495E+03
 -1.77176E+03  5.10732E+03 -2.97342E+03  1.39255E+03 -2.02635E+03 -8.75641E+02 -5.63721E+02 -5.00819E+02
 -3.94285E+02  8.05027E+02 -7.43269E+02  2.32958E+03 -1.76238E+03  1.17167E+03 -3.64773E+03 -8.03987E+01
 -1.72654E+03 -3.96864E+03  1.05078E+03 -3.92916E+03  1.93036E+03 -3.62393E+03  2.45532E+03 -1.06128E+03
  3.73286E+03  2.31761E+03  1.06759E+03  2.88698E+03 -2.18002E+02  3.77615E+03 -2.20537E+03  1.74808E+03
 -3.17294E+03  5.00654E+02 -2.63105E+03 -1.44896E+03  6.56538E+02 -2.41475E+03  8.40220E+02 -1.82687E+03
  2.63435E+03 -1.93528E+03  1.35576E+03  4.27566E+02 -1.11644E+02  1.26482E+03  8.09862E+02  4.60609E+02
  2.22922E+03  8.25614E+02  8.55584E+02  1.07330E+03  7.97498E+02  1.50982E+03  1.30311E+03  1.28488E+03
 -8.05624E+02  2.66366E+03 -1.86294E+03  3.64923E+03 -1.98069E+03  1.07917E+03 -3.30593E+03 -3.39333E+02
 -1.49967E+03 -2.85051E+03  4.57671E+02 -4.05759E+03  1.18840E+03 -2.17882E+03  2.18896E+03 -1.00169E+03
  2.13917E+03  1.73823E+03 -3.94565E+02  1.97950E+03 -9.51601E+01  8.38290E+02 -6.16343E+02  1.19062E+02
 -3.85575E+02 -2.01325E+03  1.11969E+03 -1.44508E+03  9.55358E+02 -8.15086E+02  1.02454E+03  5.66953E+02
  1.23774E+02 -1.54482E+02  7.40914E+02 -8.99226E+02 -3.55711E+02  7.48649E+02  1.82863E+03 -2.61538E+02
 -2.14498E+02  3.71810E+01  1.11241E+03  1.00611E+03 -2.06493E+02  1.96307E+03 -3.75111E+02  2.09048E+03
 -1.16980E+03  9.40846E+02 -1.63694E+03  1.28412E+03 -1.95572E+03 -3.05224E+02 -1.22516E+02 -7.47556E+02
  1.60050E+02 -2.33854E+02  7.95038E+02 -7.85128E+02 -3.50482E+00  1.20311E+03 -7.80862E+02  9.66822E+02
 -1.06209E+03  1.19533E+03 -1.02827E+03 -7.20970E+02 -7.54447E+01 -1.60715E+03  5.97654E+01 -8.50424E+02
 -2.18177E+02 -2.37116E+02 -3.28780E+01  2.50336E+02  1.15028E+03 -1.03919E+02  6.26614E+02  8.15020E+02
  2.30886E+02  1.63528E-01 -2.29175E+02 -7.31187E+01  4.96380E+02 -7.43761E+02  1.15995E+03 -7.83796E+02
  1.56633E+02  4.73627E+02  2.08187E+03  2.73810E+02  7.25596E+02  9.92141E+02 -3.66633E+02  1.59531E+03
 -1.23750E+03  1.29898E+02 -1.15368E+03  1.44342E+02 -7.87971E+02 -1.07857E+03  4.11708E+02 -5.34418E+02
  9.30498E+02 -5.95165E+02  6.53138E+02  4.34430E+02 -7.85442E+01  7.30896E+02  4.00721E+02  1.21091E+03
  9.95616E-01  6.15127E+02 -6.46901E+02  6.12302E+02  1.27230E+02  2.60438E+02 -5.45622E+02  8.00459E+02
 -2.17524E+02  4.87775E+02 -1.73685E+03  8.43307E+02 -9.34184E+02  1.27615E+01 -2.38628E+03 -5.72637E+02
 -6.73241E+02 -1.32002E+03  4.86026E+02 -1.77864E+03  3.21925E+02 -1.22103E+03  2.31003E+03 -7.34328E+02
  1.49280E+03 -7.29228E+02  1.01854E+03  7.18426E+02 -2.47184E+02  7.95618E+02 -8.62977E+02  9.32551E+02
 -2.05317E+02  8.83368E+02  1.38310E+02 -3.33543E+00 -2.46477E+02  2.20784E+02 -9.14357E+02  2.36104E+02
 -1.11192E+03 -1.57995E+02 -4.80771E+02  1.63336E+02  8.22449E+02 -2.01811E+02 -3.38917E+02 -2.07419E+02
  1.03712E+03 -9.63483E+01 -6.42662E+00 -5.55390E+02  6.93387E+02  5.77789E+02 -8.79279E+02  5.56466E+02
 -3.13648E+02  1.59883E+03 -9.10953E+02  1.01814E+03 -1.70541E+03 -1.51505E+02 -1.42903E+03 -5.15298E+02
 -8.09243E+02 -7.59005E+02 -2.15156E+02 -5.80582E+02  7.30356E+00  1.25218E+02  2.45497E+02  6.64424E+02
  5.05465E+02  1.56200E+02  2.19856E+02  8.57697E+01  5.34446E+01 -3.44465E+02  5.18493E+02  2.13547E+01
  1.95653E+02  6.95277E+02  6.15676E+02  3.19331E+02 -2.18861E+02  1.63212E+02  4.68148E+02 -1.78774E+02
 -6.43414E+02 -6.51342E+01 -3.42036E+02 -2.84412E+02 -6.50098E+02 -1.32394E+02  1.03765E+02 -1.12259E+03
  4.13528E+01 -5.43875E+02  8.48931E+00  4.04987E+01  6.70344E+02 -5.21149E+02  4.13153E+02  1.87429E+02
  7.50752E+02 -1.76094E+01  1.65224E+02  2.25575E+02 -4.59606E+02  6.66616E+02 -2.18197E+02 -2.63474E+02
  4.88683E+01  2.76419E+02 -5.62624E+02 -6.15512E+01 -4.88974E+02  5.20272E+02 -7.20439E+02 -1.18606E+02
 -1.18598E+03  8.19524E+01 -2.98900E+02 -6.64970E+02  8.74951E+02 -1.06246E+03  8.75740E+02  1.29492E+02
  4.22571E+02  4.90588E+01 -2.28756E+02 -1.97647E+02 -1.99179E+02  2.31195E+02  2.58762E+02  6.61137E+02
