 $NMID ID='MM_0lb_SNR400_8hz_g60_55.RAW', FMTDAT='(8E13.5)'
 TRAMP=1., VOLUME=1. $END
  3.10286E+05  6.56295E+02  3.37473E+05  2.50724E+05  8.47754E+04  3.39508E+05 -1.32912E+05  2.52235E+05
 -1.91615E+05  8.45995E+04 -1.12568E+05 -3.18909E+04  1.80369E+02 -5.07563E+04  5.37617E+04  3.27169E+01
  3.53824E+04  5.32100E+04 -1.67560E+04  7.63309E+04 -6.09250E+04  6.40907E+04 -8.62901E+04  3.27774E+04
 -8.32686E+04 -1.18505E+04 -5.92555E+04 -5.25502E+04 -1.47011E+04 -7.24466E+04  2.81487E+04 -4.73880E+04
  4.18405E+04  4.19530E+03  1.65909E+04  4.94653E+04 -3.45559E+04  4.88860E+04 -6.92014E+04  4.42531E+02
 -5.64223E+04 -5.87545E+04 -7.69184E+03 -8.01478E+04  3.50039E+04 -5.78899E+04  5.08082E+04 -1.78143E+04
  4.61096E+04  1.15535E+04  3.35772E+04  2.69649E+04  1.59547E+04  3.12320E+04 -6.35866E+03  2.85178E+04
 -2.28577E+04  1.13557E+04 -1.82010E+04 -5.42592E+03  7.00625E+03 -7.38564E+03  2.45802E+04  1.43224E+04
  7.12408E+03  3.83878E+04 -3.44405E+04  3.71503E+04 -6.61640E+04  1.96120E+03 -5.84457E+04 -4.44569E+04
 -1.24086E+04 -6.74373E+04  4.17226E+04 -4.82804E+04  6.30434E+04 -2.37858E+03  3.84189E+04  3.47569E+04
 -5.73963E+03  4.07182E+04 -3.24839E+04  2.04918E+04 -3.50177E+04 -3.50827E+03 -2.07829E+04 -1.25506E+04
 -9.26449E+03 -1.63388E+04 -1.15060E+03 -2.05566E+04  8.46648E+03 -2.36342E+04  1.57381E+04 -1.23614E+04
  9.86964E+03  7.05752E+03 -1.10023E+04  1.22304E+04 -2.41413E+04 -8.11130E+03 -8.51535E+03 -3.96570E+04
  2.59556E+04 -4.80381E+04  5.37963E+04 -2.10592E+04  4.97196E+04  2.13265E+04  1.80899E+04  4.85599E+04
 -1.75527E+04  3.82960E+04 -2.79812E+04  2.60565E+03 -1.10708E+04 -2.96122E+04  2.12364E+04 -3.84080E+04
  4.47913E+04 -1.20863E+04  4.30248E+04  2.44673E+04  2.27545E+04  5.27849E+04 -8.38888E+03  5.88059E+04
 -3.70351E+04  4.05211E+04 -4.99759E+04  1.13611E+04 -4.88163E+04 -1.99079E+04 -2.74143E+04 -4.37131E+04
  8.54746E+03 -4.43098E+04  3.52901E+04 -1.76912E+04  3.28346E+04  1.09663E+04  5.46303E+03  2.15283E+04
 -1.36678E+04  1.04502E+04 -1.17498E+04 -7.62048E+03  5.60438E+03 -1.19530E+04  1.93884E+04  5.42851E+03
  1.61732E+04  2.30573E+04 -5.16023E+03  2.73738E+04 -2.43512E+04  1.55849E+04 -3.30594E+04 -1.16100E+03
 -2.81608E+04 -1.85466E+04 -1.31847E+04 -2.74022E+04  4.50894E+03 -2.81562E+04  2.22967E+04 -2.52781E+04
  3.50666E+04 -1.50608E+04  3.97516E+04  5.26212E+03  2.82869E+04  2.53777E+04  4.09924E+03  4.39019E+04
 -2.09563E+04  3.56246E+04 -3.16537E+04  1.25498E+04 -2.26154E+04 -9.96983E+03 -5.11766E+03 -1.25671E+04
  3.64126E+02 -2.41755E+02 -9.86632E+03  9.41712E+03 -2.21933E+04  5.53476E+03 -2.14611E+04 -1.03547E+04
 -1.26765E+04 -2.51605E+04  5.99007E+03 -2.91801E+04  2.04504E+04 -2.11090E+04  2.38113E+04 -2.05591E+03
  1.54887E+04  1.72119E+04 -1.71148E+03  2.53258E+04 -1.85055E+04  1.40421E+04 -2.57403E+04 -5.36251E+03
 -1.81713E+04 -2.30704E+04 -2.28602E+03 -2.96773E+04  1.26870E+04 -2.52760E+04  2.51919E+04 -1.36677E+04
  2.37527E+04 -5.27884E+02  1.66950E+04  5.16513E+03  9.82754E+03  2.04413E+03  1.30624E+04 -2.69128E+03
  2.33542E+04  2.49471E+03  2.76385E+04  1.98003E+04  1.95804E+04  4.00554E+04 -2.85916E+03  4.87690E+04
 -2.72622E+04  4.05056E+04 -4.57372E+04  2.12381E+04 -4.96728E+04 -3.14954E+03 -3.93010E+04 -3.01615E+04
 -1.52346E+04 -4.05082E+04  1.47330E+04 -3.54597E+04  3.08245E+04 -1.73746E+04  2.64138E+04  7.70822E+03
  8.52709E+03  2.07482E+04 -1.31256E+04  1.71409E+04 -2.13894E+04  2.04252E+03 -1.66360E+04 -1.38466E+04
 -1.02147E+03 -2.11789E+04  1.18031E+04 -1.55774E+04  1.46884E+04 -6.80110E+02  3.46414E+03  9.89941E+03
 -1.07146E+04  5.49236E+03 -1.03155E+04 -7.99654E+03 -2.40852E+03 -2.01908E+04  1.22782E+04 -2.22195E+04
  2.58185E+04 -1.31873E+04  2.95936E+04  2.77424E+03  2.64104E+04  2.23226E+04  1.25274E+04  3.32494E+04
 -5.94506E+03  3.44343E+04 -2.36558E+04  2.09194E+04 -2.68405E+04  3.58600E+03 -1.71435E+04 -7.19253E+03
 -6.74105E+03 -8.33972E+03 -1.03953E+03  1.91385E+02 -2.93992E+03  3.60722E+03 -9.03366E+03  5.13504E+03
 -1.63846E+04  2.96988E+02 -1.63288E+04 -1.28856E+04 -6.63367E+03 -2.11934E+04  6.52452E+03 -1.66812E+04
  1.37238E+04 -8.09874E+03  1.00138E+04  4.98657E+03 -1.33061E+03  7.62268E+03 -8.71032E+03  2.34424E+02
 -8.65560E+03 -1.12754E+04 -1.13759E+03 -1.77497E+04  1.14024E+04 -1.89392E+04  2.25393E+04 -9.74337E+03
  2.67969E+04  2.45705E+03  2.04636E+04  1.62132E+04  4.10003E+03  2.10111E+04 -1.06302E+04  1.69681E+04
 -1.34149E+04  4.91481E+03 -7.43305E+03 -4.53981E+03  2.86837E+03 -4.57292E+03  8.99786E+03 -1.09558E+03
  8.27058E+03  7.55956E+03  1.77083E+03  1.49863E+04 -1.05823E+04  1.37967E+04 -1.78143E+04  2.77210E+03
 -1.24910E+04 -8.89753E+03 -5.15741E+01 -1.44360E+04  9.98332E+03 -8.36195E+03  1.18929E+04  3.11340E+03
  3.28302E+03  1.13654E+04 -9.68022E+03  1.37388E+04 -1.60848E+04  6.35403E+03 -1.66318E+04 -6.54459E+03
 -9.11063E+03 -1.91255E+04  4.24630E+03 -2.13285E+04  1.86794E+04 -1.20449E+04  1.96074E+04  3.63087E+03
  1.18847E+04  1.60378E+04 -2.02915E+03  1.80544E+04 -1.35716E+04  1.10687E+04 -1.46049E+04 -1.32386E+03
 -1.23368E+04 -1.17596E+04 -2.43796E+03 -1.49509E+04  7.55221E+03 -1.07233E+04  8.34057E+03 -2.93094E+03
  5.64928E+03  1.91007E+03 -1.63448E+03  1.64246E+03 -3.87705E+02 -4.39491E+03  3.40636E+03 -8.06828E+03
  1.34079E+04 -6.02706E+03  1.93104E+04  1.42795E+03  1.83006E+04  1.39125E+04  1.11351E+04  2.47448E+04
 -6.74881E+03  2.84536E+04 -2.38477E+04  2.05943E+04 -3.01832E+04  4.14476E+03 -2.43931E+04 -1.03023E+04
 -1.21070E+04 -2.14142E+04 -1.53020E+02 -1.71287E+04  5.97287E+03 -9.87128E+03  6.41975E+03 -5.25491E+03
  4.42081E+03 -3.26243E+03  4.37558E+03 -4.53505E+03  6.49301E+03 -4.44393E+03  9.39743E+03 -1.97832E+03
  1.21380E+04  3.31248E+03  6.94751E+03  1.15841E+04 -2.74259E+03  1.42833E+04 -1.31088E+04  1.07721E+04
 -1.70941E+04 -1.96900E+03 -1.22665E+04 -1.22119E+04 -8.52458E+02 -1.94798E+04  1.08930E+04 -1.84030E+04
  1.93731E+04 -1.08779E+04  2.30853E+04  3.49136E+03  1.62003E+04  1.60445E+04  2.34311E+03  2.17542E+04
 -8.48178E+03  1.66448E+04 -1.26482E+04  6.32253E+03 -9.01682E+03 -1.89216E+03 -3.82359E+03 -2.84047E+03
 -2.04523E+03 -7.99495E+02 -3.32482E+03  3.10405E+03 -7.38741E+03  2.24523E+03 -1.28409E+04 -1.78106E+03
 -8.86391E+03 -1.16957E+04 -3.74410E+02 -1.76667E+04  1.14285E+04 -1.61891E+04  1.79411E+04 -5.10406E+03
  1.78868E+04  7.86689E+03  8.16292E+03  1.69708E+04 -4.23438E+03  1.88507E+04 -1.41253E+04  1.15099E+04
 -1.67416E+04  9.73671E+01 -1.29272E+04 -1.17207E+04 -1.57359E+03 -1.46468E+04  8.45332E+03 -1.11450E+04
  1.12321E+04 -2.64804E+03  7.30079E+03  2.30046E+03  2.89228E+03  5.29892E+03  1.51883E+03  2.46601E+03
  2.08738E+03  1.09118E+03  4.50224E+03  2.65740E+03  5.61082E+03  6.72076E+03  4.77205E+03  1.00221E+04
 -3.75891E+03  1.49532E+04 -1.25573E+04  1.45552E+04 -1.94929E+04  3.78379E+03 -1.85975E+04 -8.00810E+03
 -9.49504E+03 -1.81080E+04  2.35868E+03 -2.06738E+04  1.22497E+04 -1.26620E+04  1.47363E+04 -2.83368E+03
  1.18197E+04  6.18770E+03  2.77802E+03  1.13158E+04 -5.70468E+03  7.40778E+03 -7.44799E+03 -9.71546E+02
 -3.76790E+03 -7.45720E+03  4.14592E+03 -7.69300E+03  8.03018E+03 -4.51815E+03  7.30604E+03  2.04177E+03
  4.32911E+03  4.40747E+03  1.24563E+03  3.40556E+03 -8.86196E+02  2.37484E+03  1.31110E+03 -3.53792E+02
  2.55718E+03 -5.47243E+02  7.27320E+03  3.46387E+03  4.06237E+03  1.09011E+04 -1.75471E+03  1.35979E+04
 -8.34742E+03  9.37909E+03 -1.23424E+04  2.66292E+03 -1.03922E+04 -4.35163E+03 -3.34691E+03 -7.63618E+03
  9.85608E+02 -7.84626E+03  5.35053E+03 -3.44349E+03  3.83995E+03  3.19622E+03 -1.13526E+03  6.02057E+03
 -7.85534E+03  2.98398E+03 -8.02795E+03 -4.76341E+03 -5.83597E+03 -1.07046E+04  1.03327E+03 -1.04130E+04
  6.76685E+03 -6.07347E+03  8.54238E+03 -1.26448E+03  6.03830E+03  2.79838E+03  1.35195E+03  5.48567E+03
 -2.69485E+03  1.08617E+03 -4.20310E+03 -3.86611E+03  2.33917E+03 -8.65371E+03  8.85509E+03 -6.46763E+03
  1.34356E+04  1.38079E+03  1.25730E+04  8.32721E+03  3.87998E+03  1.33626E+04 -3.79015E+03  1.16675E+04
 -1.06428E+04  5.00898E+03 -1.04422E+04 -1.98249E+03 -6.40811E+03 -7.55344E+03  1.90448E+03 -8.18054E+03
  6.48820E+03 -3.39587E+03  6.18972E+03  3.05538E+03  1.90905E+03  7.84383E+03 -4.33947E+02  5.92264E+03
 -2.94045E+03  3.84675E+03 -2.31525E+03  1.61310E+03 -1.00613E+03  2.21769E+03 -1.62403E+03  3.08514E+03
 -2.94838E+03  5.09213E+03 -7.95215E+03  3.72618E+03 -1.29512E+04 -1.09460E+02 -1.42290E+04 -8.11732E+03
 -6.97228E+03 -1.77781E+04  4.01249E+03 -1.98638E+04  1.18861E+04 -1.48251E+04  1.85068E+04 -6.00416E+03
  1.74305E+04  4.16595E+03  1.06465E+04  1.15389E+04  1.65589E+03  1.33542E+04 -5.83875E+03  9.77442E+03
 -7.61344E+03  2.98448E+03 -5.06216E+03 -1.40082E+03 -1.53382E+03 -1.27575E+03 -7.74407E+02  3.00222E+02
 -2.18483E+03  2.04144E+02 -2.50076E+03 -1.88499E+03 -1.29975E+03 -3.37525E+03  4.36512E+02 -4.69760E+03
  5.64446E+03 -4.54015E+03  8.36202E+03 -5.71522E+01  1.02048E+04  7.81969E+03  3.39185E+03  1.40493E+04
 -5.91302E+03  1.54344E+04 -1.48299E+04  8.33035E+03 -1.68739E+04 -9.05494E+02 -1.25580E+04 -9.73765E+03
 -5.09708E+03 -1.38437E+04  4.12836E+03 -1.33077E+04  9.24757E+03 -7.62201E+03  9.03254E+03  5.88360E+02
  5.18260E+03  4.91732E+03 -2.97134E+00  4.03354E+03 -3.19442E+03 -3.25323E+02 -2.31946E+02 -3.35140E+03
  4.61622E+03 -2.30502E+03  6.29178E+03  9.73074E+02  2.94374E+03  4.98600E+03  2.80964E+02  7.69422E+03
 -5.84110E+03  6.36409E+03 -1.01311E+04  1.70272E+02 -8.40366E+03 -6.63292E+03 -1.67581E+03 -1.13617E+04
  6.37826E+03 -9.51094E+03  1.08231E+04 -2.95797E+03  1.06553E+04  2.79629E+03  6.28695E+03  9.17157E+03
  9.65015E+02  9.25858E+03 -3.97315E+03  7.38420E+03 -5.76225E+03  3.85014E+03 -5.71885E+03 -1.25465E+01
 -3.55330E+03 -3.62129E+02 -2.57761E+03  1.08276E+03 -4.34870E+03  1.67034E+03 -7.47960E+03 -1.61728E+03
 -6.96583E+03 -5.94241E+03 -1.81162E+03 -8.68008E+03  4.92504E+03 -1.00264E+04  8.07328E+03 -4.58533E+03
  9.46298E+03  1.45772E+03  4.77385E+03  6.05375E+03 -5.60419E+02  9.82070E+03 -7.53540E+03  6.05860E+03
