 $NMID ID='MM_0lb_SNR400_17hz_g50_66.RAW', FMTDAT='(8E13.5)'
 TRAMP=1., VOLUME=1. $END
  3.09447E+05  2.06164E+02  3.37487E+05  2.50462E+05  8.39813E+04  3.36893E+05 -1.32248E+05  2.50864E+05
 -1.89577E+05  8.30908E+04 -1.10839E+05 -3.27399E+04  1.46831E+03 -5.06497E+04  5.42686E+04  1.14901E+01
  3.51461E+04  5.31201E+04 -1.65514E+04  7.47971E+04 -6.04691E+04  6.29380E+04 -8.32317E+04  3.18189E+04
 -8.00259E+04 -1.16411E+04 -5.66331E+04 -5.09697E+04 -1.49871E+04 -6.93337E+04  2.71297E+04 -4.50802E+04
  3.94511E+04  3.86688E+03  1.57615E+04  4.72163E+04 -3.38753E+04  4.65007E+04 -6.58311E+04 -4.83314E+02
 -5.27479E+04 -5.63805E+04 -5.99521E+03 -7.59863E+04  3.31598E+04 -5.41496E+04  4.73053E+04 -1.67850E+04
  4.22438E+04  1.13585E+04  3.10917E+04  2.45309E+04  1.55366E+04  2.91305E+04 -4.79308E+03  2.67003E+04
 -2.12903E+04  1.31356E+04 -1.85430E+04 -4.74234E+03  4.79399E+03 -7.69235E+03  2.16729E+04  1.23749E+04
  7.87947E+03  3.41957E+04 -3.13392E+04  3.44060E+04 -6.19720E+04  2.13162E+03 -5.63489E+04 -4.22273E+04
 -1.29571E+04 -6.25573E+04  3.84169E+04 -4.45794E+04  5.70284E+04 -2.67542E+03  3.33606E+04  3.17935E+04
 -6.36323E+03  3.40159E+04 -2.89473E+04  1.45709E+04 -2.86794E+04 -5.09795E+03 -1.54624E+04 -1.02077E+04
 -7.61918E+03 -1.24494E+04 -5.80024E+02 -1.72617E+04  7.35521E+03 -2.30841E+04  1.51128E+04 -1.35114E+04
  1.18743E+04  4.65792E+03 -6.30876E+03  1.26976E+04 -2.06689E+04 -3.23599E+03 -7.92886E+03 -3.18372E+04
  2.18873E+04 -4.13876E+04  4.55784E+04 -1.89495E+04  4.36362E+04  1.91056E+04  1.44136E+04  4.23724E+04
 -1.58116E+04  3.18839E+04 -2.39112E+04  1.74581E+03 -8.37568E+03 -2.71711E+04  2.08512E+04 -3.25059E+04
  3.91864E+04 -8.01487E+03  3.33589E+04  2.32166E+04  1.64706E+04  4.40605E+04 -7.40318E+03  4.71787E+04
 -3.04875E+04  3.15739E+04 -3.92701E+04  8.66424E+03 -3.95912E+04 -1.62607E+04 -2.18631E+04 -3.56952E+04
  7.06310E+03 -3.53883E+04  2.96296E+04 -1.35782E+04  2.79836E+04  1.10445E+04  3.17730E+03  1.75662E+04
 -1.30566E+04  7.61965E+03 -1.01265E+04 -7.70260E+03  5.60859E+03 -1.02919E+04  1.74055E+04  6.32635E+03
  1.26742E+04  2.16047E+04 -6.15712E+03  2.38121E+04 -2.19853E+04  1.01732E+04 -2.61950E+04 -5.74537E+03
 -1.83582E+04 -1.70654E+04 -6.33955E+03 -1.82470E+04  4.07276E+03 -1.64085E+04  1.40406E+04 -1.59477E+04
  2.36071E+04 -1.19306E+04  3.05006E+04  1.96654E+03  2.19361E+04  1.82950E+04  4.77038E+03  3.39670E+04
 -1.69209E+04  2.86323E+04 -2.65452E+04  1.00971E+04 -1.97249E+04 -1.01080E+04 -3.49863E+03 -1.36801E+04
  2.66368E+03 -3.76249E+03 -3.89194E+03  5.36491E+03 -1.40993E+04  4.91536E+03 -1.44998E+04 -5.33897E+03
 -9.38207E+03 -1.68244E+04  5.10940E+03 -2.01867E+04  1.33316E+04 -1.52656E+04  1.59114E+04 -1.11818E+03
  9.55379E+03  1.16334E+04 -1.22860E+03  1.74366E+04 -1.10449E+04  9.90723E+03 -1.62865E+04 -3.87681E+03
 -1.23713E+04 -1.47626E+04 -1.54520E+03 -2.01159E+04  9.04101E+03 -1.65579E+04  1.76137E+04 -8.09366E+03
  1.57559E+04  2.16402E+02  1.12771E+04  3.61152E+03  5.69843E+03  7.31127E+02  8.32982E+03 -1.45878E+03
  1.51600E+04  3.12879E+03  1.67101E+04  1.40688E+04  1.06518E+04  2.66600E+04 -3.08714E+03  2.96439E+04
 -1.71522E+04  2.28418E+04 -2.70197E+04  1.12337E+04 -2.78951E+04 -1.43458E+03 -2.36377E+04 -1.59943E+04
 -1.11694E+04 -2.32898E+04  7.59767E+03 -2.15819E+04  1.88054E+04 -1.11028E+04  1.73778E+04  4.62096E+03
  6.64579E+03  1.20109E+04 -7.74012E+03  1.17112E+04 -1.44277E+04  2.04571E+03 -1.13674E+04 -8.49979E+03
 -2.99501E+02 -1.34447E+04  6.68329E+03 -1.02928E+04  8.70224E+03 -9.92380E+02  2.02345E+03  5.74531E+03
 -5.61685E+03  1.67536E+03 -4.90693E+03 -5.19100E+03  6.02748E+02 -1.12754E+04  8.67623E+03 -1.17660E+04
  1.37538E+04 -5.12253E+03  1.42451E+04  2.85432E+03  1.23765E+04  1.08282E+04  5.79538E+03  1.62572E+04
 -2.41800E+03  1.79553E+04 -1.13326E+04  1.18645E+04 -1.25053E+04  3.53617E+03 -9.51067E+03 -2.31421E+03
 -4.70546E+03 -4.27754E+03 -5.94234E+02  1.11714E+03 -2.20210E+03  2.54458E+03 -3.99884E+03  3.67859E+03
 -9.01505E+03 -2.19354E+02 -9.43094E+03 -7.61253E+03 -3.91218E+03 -1.28172E+04  4.30286E+03 -9.13549E+03
  8.00019E+03 -4.10862E+03  5.99565E+03  2.05029E+03  9.20306E+02  4.09225E+03 -4.32145E+03 -1.83524E+02
 -3.88499E+03 -5.33642E+03 -7.78192E+02 -8.69945E+03  4.29294E+03 -8.84159E+03  1.12306E+04 -4.62353E+03
  1.35430E+04  1.04222E+03  1.01369E+04  7.45585E+03  1.44027E+03  1.03879E+04 -5.79824E+03  9.12541E+03
 -7.73711E+03  3.06726E+03 -3.43230E+03 -1.81199E+03  2.05667E+03 -2.44856E+03  5.19250E+03 -9.12487E+02
  4.71671E+03  3.77026E+03  1.32144E+03  7.00889E+03 -5.24891E+03  7.15516E+03 -8.95753E+03  2.25473E+03
 -4.92245E+03 -4.17726E+03  5.16038E+02 -7.31922E+03  3.78284E+03 -3.56138E+03  3.89760E+03  1.81113E+03
  2.76084E+02  4.11632E+03 -4.88276E+03  5.77108E+03 -5.93494E+03  2.96555E+03 -5.81957E+03 -1.34404E+03
 -3.76408E+03 -7.82883E+03  1.26204E+03 -8.62937E+03  6.99900E+03 -5.12247E+03  7.90780E+03  1.16675E+03
  4.81656E+03  5.98970E+03 -6.01977E+02  8.18891E+03 -6.18150E+03  4.68312E+03 -6.09583E+03 -8.95052E+02
 -5.89848E+03 -5.48579E+03 -1.47183E+03 -5.85839E+03  3.62165E+03 -5.38337E+03  3.26154E+03 -2.97286E+03
  3.27116E+03  7.67267E+02 -1.46568E+02  1.39824E+03  7.10189E+01 -1.17980E+03  6.45386E+02 -2.71949E+03
  4.63516E+03 -1.26306E+03  6.15702E+03  1.33056E+03  6.79477E+03  3.99814E+03  5.86252E+03  8.54740E+03
 -1.67545E+03  1.01777E+04 -9.13795E+03  8.24277E+03 -1.20665E+04  1.88038E+03 -9.76832E+03 -3.20754E+03
 -4.97983E+03 -7.71514E+03 -8.25377E+02 -5.63636E+03  2.58967E+03 -2.99731E+03  2.26322E+03 -2.56162E+03
  1.74658E+03 -1.82538E+03  1.79299E+03 -2.59542E+03  4.17597E+03 -1.47014E+03  3.94828E+03  2.07405E+02
  5.91443E+03  9.34672E+02  1.60215E+03  3.69933E+03 -1.01381E+03  4.02571E+03 -5.10203E+03  2.84740E+03
 -6.49620E+03 -6.65793E+02 -3.31406E+03 -4.19452E+03  5.34436E+02 -6.29743E+03  3.22798E+03 -6.81212E+03
  6.15031E+03 -4.76317E+03  7.63299E+03  4.33384E+01  6.14923E+03  4.97785E+03  1.36584E+03  7.30235E+03
 -2.90305E+03  6.25148E+03 -4.28516E+03  2.15608E+03 -2.56026E+03 -2.45552E+02 -1.02774E+03 -7.13208E+02
 -1.01492E+03  4.31494E+02 -1.69359E+03  1.88217E+03 -2.94942E+03  9.95206E+02 -5.18772E+03 -6.15488E+02
 -2.63055E+03 -4.57697E+03  8.38512E+02 -4.72287E+03  4.08016E+03 -5.34304E+03  3.94800E+03 -1.23187E+03
  5.52614E+03  3.76509E+03  2.40013E+03  4.95853E+03 -9.23870E+02  6.06369E+03 -3.08832E+03  3.62356E+03
 -4.79220E+03  9.98461E+02 -4.03551E+03 -3.13780E+03 -1.05992E+02 -3.73436E+03  2.43071E+03 -3.66182E+03
  3.42715E+03 -2.08146E+03  1.41565E+03  1.10307E+03  7.25287E+02  1.99909E+03  1.41892E+03  6.46050E+02
  2.06102E+03  1.31282E+03  1.64450E+03  9.97801E+02  1.77813E+03  3.02049E+03  1.53823E+03  2.18753E+03
 -1.85690E+03  3.87490E+03 -3.03639E+03  4.50573E+03 -4.00754E+03  1.12928E+03 -5.43776E+03 -9.55998E+02
 -2.56965E+03 -4.52834E+03  4.85172E+02 -5.77633E+03  2.64220E+03 -3.43833E+03  4.30214E+03 -7.80223E+02
  3.00959E+03  1.65706E+03  2.99686E+02  3.05921E+03 -9.54582E+02  1.51244E+03 -1.16742E+03 -4.04618E+02
 -9.39874E+02 -1.87002E+03  1.61245E+03 -2.26037E+03  1.90776E+03 -1.40049E+03  2.16212E+03  4.11763E+02
  1.27623E+03  3.19716E+02  7.73247E+02 -2.54515E+02 -1.75231E+02  9.00439E+02  1.66392E+03 -2.25633E+02
 -2.61558E+02 -3.55601E+02  2.30631E+03  1.08457E+03  1.08222E+02  2.55522E+03 -5.80033E+01  3.13319E+03
 -2.32749E+03  1.56916E+03 -2.41153E+03  5.30714E+02 -2.32743E+03 -2.92938E+02 -3.34022E+02 -1.27075E+03
  8.10086E+02 -2.11010E+03  1.06472E+03 -9.74088E+02  7.75123E+02  1.24589E+03 -3.24544E+02  1.11270E+03
 -1.87106E+03  1.33401E+03 -1.14672E+03 -1.21722E+03 -1.18936E+03 -2.79692E+03  5.78772E+02 -2.28924E+03
  5.35343E+02 -1.12177E+03  1.64003E+03  1.50456E+02  1.33206E+03  3.14775E+02  3.15663E+02  1.46727E+03
 -8.24551E+02  4.43462E+02 -1.55101E+03 -7.20377E+02  7.82530E+02 -1.36885E+03  2.30393E+03 -1.07472E+03
  1.90647E+03  2.47420E+02  3.19044E+03  9.61715E+02  1.41958E+03  2.36195E+03 -3.51891E+02  2.26330E+03
 -2.25461E+03  8.05561E+02 -1.92600E+03 -6.83975E+01 -1.06124E+03 -2.08301E+03  1.20746E+03 -1.21716E+03
  1.18443E+03 -5.76055E+02  1.63306E+03  1.01915E+03 -1.14638E+02  1.51698E+03 -2.35046E+02  1.44174E+03
 -3.75889E+02  1.30344E+03 -8.51028E+02  6.43996E+02 -5.26756E+02  5.72675E+02 -1.42389E+03  7.56430E+02
 -9.22252E+02  1.27509E+03 -2.58184E+03  8.01564E+02 -2.15915E+03 -5.46904E+02 -2.91490E+03 -1.65366E+03
 -1.62294E+03 -3.57437E+03  2.48680E+02 -3.69827E+03  1.01598E+03 -3.15943E+03  3.12528E+03 -1.36570E+03
  2.31141E+03  2.08114E+01  1.80113E+03  2.32585E+03 -6.57683E+02  2.22983E+03 -6.99964E+02  1.53604E+03
 -1.33826E+03  9.55750E+02 -4.42335E+02  3.15625E+01 -8.42188E+02  3.63148E+02 -5.01147E+02  2.44878E+02
 -9.05686E+02  1.64146E+02 -1.20203E+03 -1.99114E+02  4.78464E+02 -5.29573E+02 -1.15100E+03 -9.24712E+02
  1.70200E+03 -8.57136E+02  7.97971E+02  2.84737E+01  1.40103E+03  9.07260E+02  1.44960E+02  2.32346E+03
 -1.08917E+03  3.17031E+03 -2.14475E+03  1.31696E+03 -2.13530E+03 -7.58422E+02 -1.92346E+03 -1.86092E+03
 -1.35555E+03 -1.69428E+03  2.67086E+02 -1.35930E+03  1.08174E+03 -7.01216E+02  8.47886E+02  3.53442E+02
  1.08486E+03  6.41076E+02  1.97550E+02  4.05799E+02 -2.76763E+02 -2.25427E+02 -6.27939E+01 -2.65186E+02
  6.98284E+01  1.93066E+02  5.09565E+02  2.02314E+02  2.76472E+02  3.48554E+02  5.49034E+02  3.72969E+02
 -6.79054E+02  5.46557E+02 -1.06013E+03 -1.19377E+02 -1.01926E+03 -7.72832E+02  4.17101E+02 -2.01017E+03
  2.57545E+02 -4.46066E+02  1.08262E+03 -2.58235E+02  1.47981E+03 -2.54726E+02  9.22334E+02  7.51184E+02
  5.42952E+02  4.62430E+02 -4.76977E+02  1.11210E+03 -9.76110E+02  9.13931E+02 -9.72005E+02  3.68557E+02
 -5.81397E+02 -2.45785E+02 -6.13121E+02  2.71746E+02 -8.77598E+02  2.08956E+02 -1.01546E+03 -5.07408E+02
 -6.70181E+02 -1.56002E+01 -6.10805E+02 -1.20026E+03  1.36105E+03 -1.90633E+03  1.15197E+03 -8.46809E+02
  1.01456E+03 -9.74653E+01 -2.67557E+02  2.26278E+02  1.67945E+02  1.40391E+03 -5.25776E+02  7.05075E+02
