 $NMID ID='MM_0lb_SNR400_20hz_g45_38.RAW', FMTDAT='(8E13.5)'
 TRAMP=1., VOLUME=1. $END
  3.09966E+05  3.94617E+02  3.37732E+05  2.50155E+05  8.43400E+04  3.37256E+05 -1.32082E+05  2.49600E+05
 -1.89560E+05  8.22829E+04 -1.10891E+05 -3.28108E+04  1.31128E+03 -5.01777E+04  5.41040E+04  1.17302E+01
  3.53609E+04  5.30202E+04 -1.68125E+04  7.41598E+04 -6.02134E+04  6.26287E+04 -8.28132E+04  3.19988E+04
 -7.84125E+04 -1.09124E+04 -5.62421E+04 -5.00260E+04 -1.51664E+04 -6.77074E+04  2.66996E+04 -4.43546E+04
  3.87898E+04  4.18057E+03  1.53203E+04  4.73229E+04 -3.35230E+04  4.57757E+04 -6.44802E+04 -1.04459E+03
 -5.13504E+04 -5.58181E+04 -5.70957E+03 -7.44592E+04  3.25498E+04 -5.28044E+04  4.60109E+04 -1.60779E+04
  4.07112E+04  1.09163E+04  3.02594E+04  2.42847E+04  1.56165E+04  2.78257E+04 -4.69996E+03  2.61845E+04
 -2.16878E+04  1.26132E+04 -1.89492E+04 -4.19277E+03  4.23790E+03 -7.38341E+03  2.06497E+04  1.02319E+04
  7.04760E+03  3.28148E+04 -3.01559E+04  3.36198E+04 -5.99942E+04  2.19778E+03 -5.44025E+04 -4.06737E+04
 -1.26193E+04 -6.04192E+04  3.70588E+04 -4.27648E+04  5.49184E+04 -1.94207E+03  3.16269E+04  2.99226E+04
 -6.78049E+03  3.18571E+04 -2.77337E+04  1.19735E+04 -2.65204E+04 -5.87404E+03 -1.36159E+04 -9.75678E+03
 -6.91003E+03 -1.10776E+04 -1.14416E+03 -1.61139E+04  6.38934E+03 -2.26293E+04  1.47168E+04 -1.38756E+04
  1.29134E+04  4.04018E+03 -5.39542E+03  1.26623E+04 -1.87239E+04 -1.59732E+03 -8.07837E+03 -2.93057E+04
  1.99552E+04 -4.00419E+04  4.35305E+04 -1.81870E+04  4.04173E+04  1.77375E+04  1.35150E+04  4.06466E+04
 -1.54509E+04  2.99223E+04 -2.26040E+04  5.78962E+02 -7.75929E+03 -2.58869E+04  2.03278E+04 -3.05830E+04
  3.67677E+04 -6.56540E+03  2.99987E+04  2.23140E+04  1.41796E+04  4.18354E+04 -7.71141E+03  4.35325E+04
 -2.77138E+04  2.87031E+04 -3.52193E+04  7.81562E+03 -3.69648E+04 -1.43769E+04 -2.05289E+04 -3.39733E+04
  6.94662E+03 -3.19075E+04  2.87572E+04 -1.20405E+04  2.59864E+04  1.07281E+04  2.55162E+03  1.67753E+04
 -1.28926E+04  7.05648E+03 -9.29176E+03 -7.75925E+03  6.16952E+03 -9.85736E+03  1.73383E+04  6.75992E+03
  1.17872E+04  2.12993E+04 -6.67408E+03  2.26721E+04 -2.07066E+04  8.76283E+03 -2.33030E+04 -6.87210E+03
 -1.57709E+04 -1.59233E+04 -5.13008E+03 -1.60241E+04  3.27450E+03 -1.33361E+04  1.11180E+04 -1.30861E+04
  1.97084E+04 -1.11300E+04  2.62531E+04  7.52336E+02  2.04699E+04  1.51803E+04  3.65837E+03  3.12934E+04
 -1.60595E+04  2.65193E+04 -2.52899E+04  8.56332E+03 -1.92415E+04 -1.08772E+04 -4.09459E+03 -1.36883E+04
  3.05540E+03 -4.98601E+03 -1.85498E+03  5.08204E+03 -1.18953E+04  5.72050E+03 -1.29332E+04 -4.53457E+03
 -8.30201E+03 -1.48808E+04  3.49659E+03 -1.73505E+04  1.18191E+04 -1.32984E+04  1.39047E+04 -1.31886E+03
  7.86796E+03  9.89378E+03 -1.08610E+03  1.46764E+04 -9.55980E+03  8.19285E+03 -1.44597E+04 -2.81122E+03
 -1.05863E+04 -1.32687E+04 -1.35026E+03 -1.73392E+04  7.33041E+03 -1.45217E+04  1.50140E+04 -6.59653E+03
  1.33354E+04  1.49257E+03  9.49533E+03  3.84016E+03  5.19528E+03  8.41434E+02  7.21067E+03 -1.53109E+03
  1.26086E+04  2.41042E+03  1.37606E+04  1.23324E+04  7.65991E+03  2.26315E+04 -2.88798E+03  2.42025E+04
 -1.41336E+04  1.81539E+04 -2.19242E+04  8.42855E+03 -2.22673E+04 -1.50858E+03 -1.93661E+04 -1.24846E+04
 -9.68812E+03 -1.81074E+04  6.01253E+03 -1.71532E+04  1.49009E+04 -9.82650E+03  1.45364E+04  2.70051E+03
  6.83813E+03  9.77943E+03 -6.86346E+03  9.42214E+03 -1.25750E+04  2.62397E+03 -9.79335E+03 -7.15310E+03
  7.70496E+01 -1.07576E+04  5.58991E+03 -9.18567E+03  6.95707E+03 -1.15884E+03  5.64086E+02  4.73760E+03
 -4.62491E+03  1.02348E+03 -2.68747E+03 -4.12082E+03  8.68130E+02 -9.36702E+03  7.63907E+03 -8.80664E+03
  1.08920E+04 -3.97020E+03  1.00942E+04  2.35895E+03  9.02635E+03  8.33873E+03  4.06815E+03  1.14489E+04
 -1.17491E+03  1.40019E+04 -8.25672E+03  8.51202E+03 -1.01637E+04  2.71723E+03 -7.38073E+03 -1.32804E+03
 -4.67108E+03 -3.11862E+03 -1.11839E+03  1.66734E+03 -1.96571E+03  1.95093E+03 -3.02563E+03  3.33448E+03
 -7.28268E+03 -3.57807E+02 -7.82375E+03 -6.74991E+03 -3.27622E+03 -1.04272E+04  2.96927E+03 -7.77536E+03
  6.60281E+03 -3.57957E+03  5.05398E+03  1.22627E+03  1.16390E+03  2.60708E+03 -2.79699E+03  3.52955E+02
 -2.69188E+03 -4.72595E+03 -5.99228E+02 -5.64259E+03  3.29414E+03 -7.49773E+03  8.76798E+03 -3.88803E+03
  1.01085E+04  1.91932E+02  7.63984E+03  5.38547E+03  1.41409E+03  7.31177E+03 -4.36839E+03  7.47990E+03
 -6.20575E+03  2.80515E+03 -3.32470E+03 -8.46777E+02  8.42165E+02 -1.46643E+03  4.37445E+03 -1.14288E+03
  3.44541E+03  2.96483E+03  7.98560E+02  5.14745E+03 -4.34266E+03  5.74803E+03 -7.16843E+03  1.90416E+03
 -4.29838E+03 -3.06171E+03  5.57732E+02 -5.87862E+03  2.73780E+03 -2.98496E+03  3.05762E+03  7.84972E+02
  9.87587E+01  2.55435E+03 -3.61471E+03  4.04310E+03 -3.97945E+03  1.96081E+03 -3.44288E+03 -6.76242E+02
 -2.55162E+03 -5.22031E+03  1.14414E+03 -6.28204E+03  4.79103E+03 -3.84826E+03  5.14467E+03  4.30347E+02
  3.92114E+03  4.62680E+03  3.80723E+02  6.06729E+03 -4.68630E+03  3.58442E+03 -4.50448E+03  2.33016E+02
 -5.39367E+03 -4.31790E+03 -1.52386E+03 -4.16619E+03  2.45389E+03 -3.57515E+03  2.09802E+03 -2.27987E+03
  2.55108E+03  6.28143E+02  2.48250E+02  1.14088E+03  1.11591E+03 -3.39498E+02 -9.12606E+01 -7.49710E+02
  3.26104E+03 -7.64177E+02  4.71537E+03  7.34216E+02  4.97970E+03  3.06447E+03  4.78155E+03  5.92321E+03
 -9.13694E+02  7.10939E+03 -6.45204E+03  5.08334E+03 -8.68945E+03  1.05172E+03 -6.46650E+03 -1.71453E+03
 -3.48311E+03 -5.10161E+03 -7.33664E+02 -4.69780E+03  1.61718E+03 -1.15229E+03  9.00659E+02 -1.27740E+03
  1.08594E+03 -1.18325E+03  2.35696E+03 -2.49808E+03  2.90085E+03 -1.03059E+03  3.70666E+03  6.78031E+02
  3.61316E+03  1.17208E+03  5.03123E+02  3.26045E+03 -9.69660E+02  2.39699E+03 -3.92047E+03  1.91007E+03
 -3.67171E+03 -8.97693E+02 -1.11755E+03 -2.77549E+03  6.46364E+02 -3.96786E+03  2.64304E+03 -4.03923E+03
  4.01730E+03 -2.66597E+03  5.85420E+03  3.47619E+01  4.25046E+03  3.47444E+03  1.08212E+03  4.81122E+03
 -1.58790E+03  4.74281E+03 -2.48437E+03  1.24061E+03 -1.27412E+03 -1.10740E+03 -5.97382E+02 -2.77305E+02
  2.58672E+01  4.30861E+02 -1.37354E+03  1.93472E+03 -1.42925E+03  1.37111E+03 -3.45818E+03 -1.87175E+02
 -6.11348E+02 -3.13780E+03  1.05571E+03 -3.88448E+03  2.20704E+03 -3.40889E+03  2.68844E+03 -9.17758E+02
  3.50699E+03  1.47724E+03  1.12198E+03  2.66322E+03 -4.70043E+02  3.51059E+03 -1.88089E+03  2.71013E+03
 -2.92510E+03  8.72037E+02 -2.15443E+03 -1.35627E+03 -4.76190E+01 -2.81140E+03  8.96210E+02 -2.29916E+03
  2.24885E+03 -8.40765E+02  1.52871E+03  7.08112E+02  8.45289E+02  1.50723E+03  8.48294E+02  3.92219E+02
  1.69001E+03  2.19125E+01  6.32681E+02  9.16639E+02  7.41220E+02  1.97167E+03  1.02606E+03  1.23130E+03
 -1.54109E+03  2.44982E+03 -1.75244E+03  3.30072E+03 -1.92727E+03  1.30457E+03 -3.60896E+03 -4.10076E+02
 -1.17984E+03 -3.03839E+03  4.57816E+02 -3.63788E+03  1.27769E+03 -2.28734E+03  2.00930E+03 -5.57014E+02
  1.83922E+03  1.59042E+03  5.77509E+02  1.70855E+03 -6.02349E+02  1.22243E+03 -6.52289E+02  1.07028E+02
 -9.66522E+00 -9.21017E+02  5.49824E+02 -1.26712E+03  7.88567E+02 -1.19003E+03  2.71468E+02  3.68700E+02
  3.71896E+02 -1.34238E+02  6.31446E+02 -1.09570E+02 -3.45904E+02  2.01063E+02  1.18327E+03 -2.46754E+02
 -3.67341E+02 -6.20419E+01  1.76162E+03  7.63441E+01  8.13085E+01  1.65836E+03  2.50971E+02  1.99157E+03
 -1.29076E+03  8.75137E+02 -1.60263E+03  4.60799E+02 -1.34223E+03 -6.15474E+02 -9.01716E+01 -4.87936E+02
  6.96465E+02 -6.34153E+02  7.02496E+02 -7.70974E+02  6.18711E+02  1.22338E+03 -9.26150E+02  1.23669E+03
 -1.16346E+03  4.01469E+02 -5.85400E+02 -1.02285E+03 -4.48728E+02 -1.87024E+03  6.91247E+02 -1.11776E+03
  3.96841E+02 -1.29642E+02  2.11986E+02  6.98580E+01  1.18368E+03  3.02669E+01  3.44571E+02  8.82833E+02
 -4.34841E+02  1.71322E+01 -4.92912E+02 -2.73933E+02  5.60786E+02 -7.71020E+02  1.31870E+03 -2.64931E+02
  8.91732E+02  3.07219E+02  2.20508E+03 -1.40883E+02  2.85519E+02  1.07463E+03 -1.47601E+02  1.18906E+03
 -1.07121E+03  2.69958E+02 -1.27857E+03  2.81997E+01 -7.34755E+02 -1.22844E+03  1.23637E+02 -7.45647E+01
  1.09343E+03 -4.76867E+02  3.20804E+02  7.33270E+02 -4.67130E+01  9.71963E+02 -3.32671E+02  5.87219E+02
 -1.48687E+02  1.05219E+03 -6.51486E+02  3.33185E+02 -5.45269E+02  4.77239E+02 -4.76184E+02  4.51343E+02
 -2.54998E+02  9.23863E+02 -1.89431E+03  7.63992E+02 -1.35456E+03  2.60250E+02 -2.10349E+03 -4.58140E+02
 -1.02147E+03 -1.57244E+03 -4.63416E+02 -1.72930E+03  1.00311E+03 -1.69480E+03  1.98991E+03 -4.14754E+02
  2.17073E+03 -3.97128E+02  6.82863E+02  1.38908E+03 -6.95219E+02  1.07189E+03 -5.74989E+02  7.35762E+02
 -8.61057E+02  6.67071E+02 -9.76600E+01 -2.28702E+01 -3.26275E+02  6.09815E+02 -7.36899E+02 -2.11825E+02
 -9.20360E+02  2.15166E+02 -9.18347E+02  1.30719E+02  7.77647E+02 -1.92404E+02  1.55190E+02 -1.21552E+03
  1.09933E+03 -3.30321E+02 -5.69722E+02 -8.62270E+01  8.58960E+02  7.29814E+02 -9.03027E+02  8.79332E+02
 -4.56373E+02  1.23201E+03 -8.24644E+02  1.26889E+03 -6.04032E+02 -1.45772E+02 -1.08533E+03 -1.11832E+03
 -7.68704E+02 -6.09600E+02  1.90457E+02 -9.60171E+02  5.99736E+02 -4.93118E+02  1.59606E+02  3.27850E+01
  1.90910E+02  1.11227E+02  5.44372E+01  1.85066E+01 -3.02158E+02 -8.56240E+01 -4.99472E+02 -2.87336E+02
  3.69246E+02  1.48452E+02 -3.47779E+02  6.24714E+01 -1.94917E+02  4.02096E+02  6.79578E+02  1.82640E+02
  4.46400E+01  3.86939E+02  3.47005E+02 -5.76346E+02 -3.22564E+02 -1.52116E+02 -1.90014E+02 -9.50197E+02
 -2.67040E+01 -6.27231E+02  2.89343E+02  1.80335E+02  1.09182E+03 -7.06825E+02 -1.12412E+02  4.28404E+02
  2.46692E+02  9.62608E+00 -3.33871E+02  4.87368E+02 -4.81980E+02  5.29156E+02 -1.76622E+02  3.65306E+02
 -4.33452E+02 -1.30968E+01 -4.82592E+02  1.84031E+02 -3.02671E+02  7.90743E+01 -5.40573E+02 -3.34805E+02
 -8.20424E+02  1.21252E+03 -2.04430E+02 -6.11995E+02  1.02345E+03 -1.11955E+03  2.74627E+02 -2.75922E+02
  7.02065E+02  2.33925E+02 -8.33886E+02  6.19047E+02  3.45167E+02  5.32518E+02 -2.17451E+02  6.32294E+02
