 $NMID ID='MM_0lb_SNR400_17hz_g45_28.RAW', FMTDAT='(8E13.5)'
 TRAMP=1., VOLUME=1. $END
  3.10166E+05  8.45398E+02  3.37522E+05  2.51091E+05  8.45223E+04  3.37718E+05 -1.32643E+05  2.50479E+05
 -1.89947E+05  8.26359E+04 -1.11177E+05 -3.22862E+04  1.55228E+03 -5.01540E+04  5.39472E+04  1.97303E+02
  3.51485E+04  5.27452E+04 -1.78435E+04  7.51950E+04 -5.98003E+04  6.26764E+04 -8.29055E+04  3.19598E+04
 -8.02315E+04 -1.16227E+04 -5.68982E+04 -5.07359E+04 -1.47679E+04 -6.83268E+04  2.70583E+04 -4.58468E+04
  3.95242E+04  3.67330E+03  1.58075E+04  4.76727E+04 -3.38592E+04  4.63078E+04 -6.56420E+04 -6.65808E+01
 -5.23038E+04 -5.59109E+04 -5.97930E+03 -7.54842E+04  3.36136E+04 -5.38551E+04  4.61083E+04 -1.68992E+04
  4.20736E+04  1.20197E+04  3.08511E+04  2.47717E+04  1.52789E+04  2.93806E+04 -4.70231E+03  2.67133E+04
 -2.15909E+04  1.29889E+04 -1.89350E+04 -4.42769E+03  4.39447E+03 -7.08470E+03  2.13827E+04  1.07858E+04
  7.62993E+03  3.44946E+04 -3.13614E+04  3.41009E+04 -6.16411E+04  2.27881E+03 -5.59898E+04 -4.15959E+04
 -1.21728E+04 -6.15642E+04  3.83749E+04 -4.39095E+04  5.63183E+04 -2.22657E+03  3.26123E+04  3.06058E+04
 -6.25063E+03  3.40961E+04 -2.92449E+04  1.38621E+04 -2.86440E+04 -4.81688E+03 -1.47286E+04 -1.02395E+04
 -7.95535E+03 -1.18464E+04 -9.14278E+02 -1.69723E+04  7.29274E+03 -2.26335E+04  1.51049E+04 -1.36731E+04
  1.19972E+04  4.40922E+03 -7.04714E+03  1.30518E+04 -2.01536E+04 -2.94812E+03 -7.95349E+03 -3.10239E+04
  2.07857E+04 -4.13139E+04  4.56074E+04 -1.87341E+04  4.26993E+04  1.84498E+04  1.49402E+04  4.23666E+04
 -1.53033E+04  3.15967E+04 -2.42963E+04  1.59604E+03 -9.12152E+03 -2.65515E+04  2.11730E+04 -3.17736E+04
  3.86749E+04 -7.58992E+03  3.28403E+04  2.33579E+04  1.62660E+04  4.37400E+04 -7.53584E+03  4.62757E+04
 -2.94468E+04  3.08713E+04 -3.84144E+04  8.97158E+03 -3.92989E+04 -1.55915E+04 -2.15686E+04 -3.53488E+04
  7.38675E+03 -3.52359E+04  2.96013E+04 -1.30790E+04  2.73121E+04  1.09490E+04  3.28021E+03  1.78122E+04
 -1.34495E+04  7.38890E+03 -1.00078E+04 -7.46747E+03  5.99386E+03 -1.05410E+04  1.77603E+04  6.44613E+03
  1.29176E+04  2.09687E+04 -5.91473E+03  2.42275E+04 -2.13687E+04  9.40625E+03 -2.58766E+04 -6.25483E+03
 -1.75023E+04 -1.65774E+04 -6.03869E+03 -1.71205E+04  4.28405E+03 -1.58598E+04  1.32015E+04 -1.47000E+04
  2.25058E+04 -1.21809E+04  2.91550E+04  1.59901E+03  2.23421E+04  1.74452E+04  3.80947E+03  3.38869E+04
 -1.62583E+04  2.80641E+04 -2.65499E+04  9.45675E+03 -2.03540E+04 -1.03094E+04 -3.86788E+03 -1.33329E+04
  2.15616E+03 -3.59000E+03 -3.24662E+03  6.41855E+03 -1.35264E+04  5.55408E+03 -1.41598E+04 -5.64953E+03
 -8.68708E+03 -1.62966E+04  4.42859E+03 -2.03072E+04  1.27279E+04 -1.47198E+04  1.59200E+04 -1.58156E+03
  9.64286E+03  1.07477E+04 -5.47839E+01  1.64116E+04 -1.08156E+04  9.64832E+03 -1.63155E+04 -3.41957E+03
 -1.26765E+04 -1.46263E+04 -1.55816E+03 -1.99019E+04  8.63003E+03 -1.63673E+04  1.71761E+04 -8.27333E+03
  1.49277E+04  4.12081E+02  1.10625E+04  4.10244E+03  5.43450E+03  4.57694E+02  8.42641E+03 -1.37550E+03
  1.44115E+04  2.50861E+03  1.63544E+04  1.33708E+04  9.61559E+03  2.64279E+04 -3.32108E+03  2.86292E+04
 -1.76348E+04  2.16299E+04 -2.62487E+04  1.08379E+04 -2.72700E+04 -2.12445E+03 -2.26959E+04 -1.53958E+04
 -1.07485E+04 -2.22394E+04  7.86643E+03 -2.03160E+04  1.80116E+04 -1.15066E+04  1.59348E+04  3.94836E+03
  6.60150E+03  1.18195E+04 -7.89454E+03  1.09878E+04 -1.42585E+04  2.77957E+03 -1.10204E+04 -8.10096E+03
 -3.97544E+01 -1.37111E+04  6.73297E+03 -9.93261E+03  8.54402E+03 -1.20140E+03  2.04401E+03  5.10378E+03
 -6.09594E+03  1.74554E+03 -4.16619E+03 -5.12365E+03  3.11452E+02 -1.10717E+04  8.03336E+03 -1.09930E+04
  1.32716E+04 -5.49063E+03  1.31549E+04  2.60457E+03  1.17341E+04  1.00199E+04  5.48516E+03  1.58151E+04
 -2.01619E+03  1.82754E+04 -1.09726E+04  1.13701E+04 -1.32251E+04  3.52916E+03 -9.39097E+03 -2.24475E+03
 -5.07583E+03 -4.17209E+03 -4.65945E+02  9.29088E+02 -2.05822E+03  2.13791E+03 -3.76673E+03  3.98981E+03
 -8.93910E+03 -3.46245E+02 -9.41831E+03 -7.94985E+03 -3.83265E+03 -1.21357E+04  3.38220E+03 -8.90330E+03
  7.93924E+03 -3.86234E+03  5.64772E+03  2.33214E+03  3.88982E+02  3.65691E+03 -3.41280E+03 -2.84825E+02
 -4.18925E+03 -6.17105E+03 -8.18372E+02 -8.26125E+03  4.13432E+03 -8.02759E+03  1.02301E+04 -4.15431E+03
  1.30446E+04  7.03808E+02  9.46573E+03  7.07589E+03  2.02938E+03  9.77059E+03 -5.29485E+03  9.25837E+03
 -6.60066E+03  3.00594E+03 -3.62523E+03 -1.43817E+03  1.48640E+03 -2.69352E+03  5.28130E+03 -1.14410E+03
  4.58945E+03  3.30959E+03  5.20036E+02  7.14510E+03 -4.95405E+03  7.47001E+03 -8.69140E+03  1.90783E+03
 -5.17676E+03 -3.82258E+03  2.77981E+02 -7.46038E+03  4.09237E+03 -3.67495E+03  4.27450E+03  1.17599E+03
  4.51511E+02  3.58634E+03 -4.18540E+03  4.91080E+03 -5.74087E+03  2.21197E+03 -4.99345E+03 -9.64562E+02
 -3.57649E+03 -7.08583E+03  1.54827E+03 -8.18096E+03  6.47197E+03 -5.79926E+03  7.60137E+03  1.10055E+03
  4.87753E+03  6.10038E+03  1.88611E+02  8.12833E+03 -5.84120E+03  4.41855E+03 -5.85648E+03 -6.84865E+02
 -6.48066E+03 -5.87142E+03 -1.48037E+03 -5.86640E+03  2.59562E+03 -5.22339E+03  2.98561E+03 -3.12180E+03
  2.77002E+03  4.11713E+02 -3.10568E+02  1.62674E+03  1.95956E+02 -4.95609E+02  3.49958E+02 -1.95011E+03
  4.26088E+03 -8.77773E+02  6.19105E+03  9.55990E+02  5.77035E+03  4.08231E+03  5.82473E+03  8.47765E+03
 -2.05973E+03  9.82306E+03 -8.96431E+03  7.88029E+03 -1.14365E+04  1.19353E+03 -8.54376E+03 -2.73630E+03
 -4.70809E+03 -7.49650E+03 -1.98516E+02 -6.63284E+03  2.74212E+03 -2.55437E+03  2.06411E+03 -2.11528E+03
  1.88311E+03 -1.14576E+03  2.29732E+03 -2.85501E+03  3.40873E+03 -1.82630E+03  4.00622E+03  5.26337E+02
  5.13829E+03  1.07049E+03  1.66837E+03  3.93842E+03 -1.52473E+03  3.68053E+03 -4.50879E+03  3.00021E+03
 -6.05560E+03 -1.57581E+03 -2.93941E+03 -4.18275E+03  6.13011E+02 -5.66146E+03  3.80001E+03 -6.13622E+03
  6.56260E+03 -3.61824E+03  8.63888E+03  5.45895E+02  5.49162E+03  5.67507E+03  9.91231E+02  7.58246E+03
 -2.05388E+03  6.49957E+03 -4.37782E+03  2.16654E+03 -2.79199E+03 -9.08496E+02 -7.37651E+02 -7.50643E+02
 -5.50187E+02  3.96640E+02 -1.24833E+03  1.71036E+03 -2.95831E+03  1.22896E+03 -4.81621E+03 -1.44739E+02
 -1.69156E+03 -4.71070E+03  8.12773E+02 -5.65976E+03  3.20746E+03 -5.72317E+03  4.90546E+03 -8.25414E+02
  4.69333E+03  3.18827E+03  1.91363E+03  4.45495E+03 -6.81340E+02  5.68580E+03 -3.44539E+03  2.89247E+03
 -4.49669E+03  3.04837E+02 -3.70032E+03 -2.81576E+03 -1.37599E+02 -4.12916E+03  1.89309E+03 -3.21907E+03
  3.21114E+03 -1.92642E+03  2.15974E+03  7.45231E+02  1.24731E+03  2.01533E+03  4.18932E+02  1.15019E+03
  2.05465E+03  7.29225E+02  1.62251E+03  9.38443E+02  1.73315E+03  3.02608E+03  1.84094E+03  2.67126E+03
 -1.48374E+03  3.37930E+03 -3.34365E+03  4.64855E+03 -4.74649E+03  1.43093E+03 -5.30379E+03 -8.34072E+02
 -2.14529E+03 -4.14346E+03  5.91261E+02 -5.83214E+03  3.03445E+03 -2.85028E+03  4.09003E+03 -7.95543E+02
  3.05334E+03  2.26023E+03  5.15864E+02  2.23080E+03 -1.31516E+03  1.42111E+03 -1.34104E+03 -3.97731E+02
 -8.24350E+02 -1.48229E+03  8.54789E+02 -1.67060E+03  1.95137E+03 -1.08272E+03  1.24699E+03  1.81905E+02
  1.06345E+03  3.42578E+02  8.46495E+02  2.96514E+02 -1.00034E+03  9.99535E+02  1.47211E+03  1.60658E+01
 -4.01032E+01 -1.57077E+02  2.05749E+03  4.45583E+02  4.44653E+02  3.12829E+03 -7.68436E+01  3.79578E+03
 -2.18450E+03  1.56522E+03 -2.78616E+03  2.42920E+02 -2.30903E+03 -1.55432E+03  1.26461E+02 -1.09483E+03
  6.72052E+02 -1.35102E+03  8.97569E+02 -8.61911E+02  7.16364E+02  1.37276E+03 -6.87269E+02  1.25421E+03
 -2.09104E+03  1.16480E+03 -1.94564E+03 -2.04783E+03 -1.48543E+03 -1.91746E+03  2.47450E+02 -1.95089E+03
  7.06284E+02 -8.03398E+02  8.02082E+02  7.78040E+02  1.84536E+03  3.71195E+02  5.25288E+02  1.02261E+03
 -8.75964E+02 -1.01929E+02 -7.71959E+02 -1.05095E+03  8.12831E+02 -1.57965E+03  2.77357E+03 -1.20839E+03
  1.57390E+03  2.87159E+02  3.29851E+03  1.29374E+03  1.53275E+03  2.50464E+03 -5.23007E+02  2.53504E+03
 -2.43869E+03  4.14387E+02 -2.18080E+03 -2.24366E+02 -4.02781E+02 -1.65963E+03  3.25152E+02 -1.10362E+03
  1.62009E+03 -7.40661E+00  1.23226E+03  8.55246E+02  5.61518E+01  1.74806E+03  2.12986E+02  1.32645E+03
 -7.65478E+02  1.00191E+03 -4.55581E+02  4.51747E+01  1.65052E+01 -4.88749E+01 -5.18357E+02  1.35737E+03
 -3.35596E+02  1.69214E+03 -2.08771E+03 -1.22695E+02 -2.39895E+03  3.79967E+02 -3.68093E+03 -1.78099E+03
 -1.45138E+03 -3.41256E+03  1.03114E+03 -3.77152E+03  2.15247E+03 -3.14986E+03  3.02242E+03 -1.19262E+03
  3.35231E+03  7.84887E+01  1.49649E+03  1.51824E+03 -1.14950E+03  2.24707E+03 -1.06452E+03  1.36605E+03
 -1.64656E+03  1.09176E+03 -1.77862E+02 -6.03266E+02 -2.41655E+02 -1.08172E+02 -4.92584E+02 -5.31969E+02
 -1.45108E+03 -3.03620E+02 -7.45811E+02  2.58035E+02 -1.46317E+02 -6.55697E+02  1.32106E+02 -1.07800E+03
  1.62370E+03 -1.05712E+03  8.51025E+02  1.80761E+02  1.76443E+03  1.55904E+03 -2.10191E+02  1.80803E+03
 -1.47807E+03  3.47218E+03 -2.37870E+03  1.55132E+03 -2.28869E+03 -4.14041E+02 -1.47520E+03 -1.84877E+03
 -5.36651E+02 -1.18550E+03  3.24234E+02 -1.62897E+03  9.85737E+02 -4.31968E+02  1.12322E+03  1.85671E+02
  6.80180E+02  8.38365E+02  2.67083E+02  7.25592E+02 -4.44244E+02  9.44889E+01 -7.02694E+01 -6.27231E+02
  3.75409E+02 -9.45116E+01  5.46327E+02  6.20928E+02  2.81761E+02  7.58483E+02 -3.66852E+02  7.15894E+02
 -5.85505E+02  7.10669E+02 -4.18598E+02  2.52449E+02 -1.06138E+03 -8.59781E+02  4.76221E+02 -2.07010E+03
  8.37605E+02 -5.45012E+02  6.79648E+02  3.34990E+02  1.83011E+03 -8.17265E+02  6.26293E+02  6.90890E+02
  1.54178E+02  1.21336E+03 -3.99501E+02  1.11368E+03 -8.95614E+02  7.08743E+02 -7.35158E+02  1.46035E+01
  1.37823E+02  7.87350E+01 -4.50691E+02  4.02526E+02 -7.10527E+01  2.55808E+02 -9.73589E+02 -5.43879E+02
 -1.39637E+03  5.19316E+01 -7.29973E+02 -1.51664E+03  9.86361E+02 -1.75414E+03  7.42184E+02 -5.99649E+02
  1.08171E+03 -5.51149E+01 -5.49975E+02  4.92963E+02 -4.14170E+02  1.25896E+03 -9.82844E+01  5.26807E+02
