 $NMID ID='MM_0lb_SNR400_12hz_g60_25.RAW', FMTDAT='(8E13.5)'
 TRAMP=1., VOLUME=1. $END
  3.09658E+05  2.36063E+02  3.37825E+05  2.50625E+05  8.46281E+04  3.38455E+05 -1.32876E+05  2.51010E+05
 -1.91483E+05  8.42353E+04 -1.12957E+05 -3.26253E+04 -5.02550E+01 -5.14259E+04  5.40878E+04 -6.48412E+02
  3.56386E+04  5.25568E+04 -1.65395E+04  7.60720E+04 -6.06903E+04  6.37218E+04 -8.40552E+04  3.23252E+04
 -8.25644E+04 -1.18662E+04 -5.81764E+04 -5.22643E+04 -1.52271E+04 -7.07035E+04  2.72352E+04 -4.62492E+04
  4.09721E+04  4.15001E+03  1.64546E+04  4.82760E+04 -3.51390E+04  4.79185E+04 -6.78520E+04  9.73502E+01
 -5.47673E+04 -5.76965E+04 -7.70986E+03 -7.92502E+04  3.43329E+04 -5.63214E+04  4.96630E+04 -1.79829E+04
  4.44737E+04  1.20342E+04  3.25132E+04  2.64441E+04  1.58368E+04  3.03214E+04 -5.11721E+03  2.75442E+04
 -2.23202E+04  1.23660E+04 -1.82719E+04 -5.36112E+03  6.04440E+03 -6.98603E+03  2.34596E+04  1.36693E+04
  7.07551E+03  3.72221E+04 -3.32140E+04  3.66474E+04 -6.46829E+04  2.14497E+03 -5.84668E+04 -4.40465E+04
 -1.28033E+04 -6.49214E+04  4.14106E+04 -4.69509E+04  6.06227E+04 -2.12143E+03  3.58211E+04  3.34861E+04
 -5.38578E+03  3.80017E+04 -3.13763E+04  1.80210E+04 -3.28465E+04 -4.45372E+03 -1.80944E+04 -1.19992E+04
 -9.00908E+03 -1.48486E+04 -7.07074E+02 -1.91647E+04  8.49225E+03 -2.32602E+04  1.57646E+04 -1.26890E+04
  1.05858E+04  5.99651E+03 -1.03087E+04  1.34056E+04 -2.29311E+04 -6.06246E+03 -8.78325E+03 -3.60361E+04
  2.50912E+04 -4.58590E+04  5.04947E+04 -2.08440E+04  4.70179E+04  1.98809E+04  1.72554E+04  4.61189E+04
 -1.68458E+04  3.53333E+04 -2.74226E+04  2.75034E+03 -1.07770E+04 -2.85650E+04  2.16725E+04 -3.55715E+04
  4.35625E+04 -1.05262E+04  3.94017E+04  2.41666E+04  2.07418E+04  4.98946E+04 -7.84976E+03  5.43672E+04
 -3.37755E+04  3.68474E+04 -4.53302E+04  1.09615E+04 -4.57302E+04 -1.81436E+04 -2.51973E+04 -4.06425E+04
  7.93979E+03 -4.11338E+04  3.37258E+04 -1.61683E+04  3.11719E+04  1.07301E+04  4.63251E+03  2.04009E+04
 -1.33988E+04  9.18054E+03 -1.11308E+04 -7.70501E+03  5.79957E+03 -1.13970E+04  1.85880E+04  6.06478E+03
  1.46702E+04  2.18736E+04 -5.29754E+03  2.55888E+04 -2.26520E+04  1.35933E+04 -3.06210E+04 -3.63202E+03
 -2.39139E+04 -1.84916E+04 -1.03470E+04 -2.39667E+04  5.08062E+03 -2.37144E+04  1.84352E+04 -2.11060E+04
  3.01990E+04 -1.34596E+04  3.65555E+04  4.56848E+03  2.53105E+04  2.27123E+04  4.12410E+03  3.95785E+04
 -1.93478E+04  3.27789E+04 -2.96618E+04  1.17118E+04 -2.17884E+04 -1.01347E+04 -4.36859E+03 -1.28789E+04
  1.13209E+03 -2.11460E+03 -7.55880E+03  6.97011E+03 -1.88187E+04  4.83983E+03 -1.89051E+04 -9.11417E+03
 -1.07443E+04 -2.19381E+04  5.72712E+03 -2.61273E+04  1.77356E+04 -1.86408E+04  2.13575E+04 -1.74064E+03
  1.33531E+04  1.49653E+04 -9.65130E+02  2.15495E+04 -1.55734E+04  1.23902E+04 -2.20371E+04 -4.25299E+03
 -1.62649E+04 -1.94364E+04 -1.91166E+03 -2.57001E+04  1.22971E+04 -2.17163E+04  2.18725E+04 -1.10113E+04
  2.01721E+04  7.73545E+01  1.48234E+04  4.33005E+03  8.46974E+03  1.06331E+03  1.14198E+04 -2.07084E+03
  2.08271E+04  2.16816E+03  2.35035E+04  1.67247E+04  1.56021E+04  3.45050E+04 -2.55066E+03  4.08420E+04
 -2.35237E+04  3.34865E+04 -3.75548E+04  1.74242E+04 -4.01942E+04 -3.41657E+03 -3.26794E+04 -2.36525E+04
 -1.30065E+04 -3.35577E+04  1.23976E+04 -2.96677E+04  2.52820E+04 -1.40463E+04  2.17591E+04  7.29549E+03
  7.73110E+03  1.67223E+04 -1.04934E+04  1.42379E+04 -1.87744E+04  2.73405E+03 -1.43917E+04 -1.18850E+04
 -3.66011E+02 -1.81141E+04  9.03930E+03 -1.34596E+04  1.31634E+04 -1.28360E+03  2.70908E+03  7.14590E+03
 -8.35479E+03  3.21181E+03 -8.68634E+03 -6.73044E+03 -1.18673E+03 -1.70865E+04  1.06277E+04 -1.74006E+04
  1.98835E+04 -9.32241E+03  2.25279E+04  3.53053E+03  1.94484E+04  1.71063E+04  9.01747E+03  2.53723E+04
 -3.34003E+03  2.75995E+04 -1.79326E+04  1.76571E+04 -1.95793E+04  4.01561E+03 -1.39853E+04 -4.86293E+03
 -6.40063E+03 -6.12616E+03 -1.03518E+03  9.01881E+02 -2.73969E+03  3.25782E+03 -6.52717E+03  5.21920E+03
 -1.33794E+04 -8.49807E+02 -1.35913E+04 -1.11287E+04 -5.59225E+03 -1.78647E+04  5.81696E+03 -1.41659E+04
  1.15190E+04 -5.93197E+03  8.21210E+03  3.33221E+03 -3.47767E+02  5.17141E+03 -6.89569E+03 -2.96049E+02
 -6.68595E+03 -9.25359E+03 -1.86745E+03 -1.29961E+04  8.14247E+03 -1.39848E+04  1.76127E+04 -7.42126E+03
  2.04382E+04  2.04614E+03  1.46381E+04  1.19334E+04  2.39362E+03  1.68196E+04 -8.29304E+03  1.44628E+04
 -1.11145E+04  3.80705E+03 -5.24195E+03 -2.58399E+03  1.79865E+03 -3.09597E+03  7.84055E+03 -1.62559E+03
  7.00379E+03  5.58470E+03  8.48700E+02  1.09670E+04 -7.18739E+03  1.06762E+04 -1.32365E+04  2.18822E+03
 -9.57066E+03 -7.17814E+03  1.12057E+03 -1.14250E+04  7.16780E+03 -5.76338E+03  8.00634E+03  2.72241E+03
  2.09261E+03  8.54500E+03 -6.16938E+03  9.82168E+03 -1.18971E+04  4.63054E+03 -1.14078E+04 -3.49651E+03
 -6.69112E+03 -1.35195E+04  2.49059E+03 -1.52786E+04  1.32361E+04 -8.83257E+03  1.45131E+04  2.04748E+03
  8.30828E+03  1.14197E+04 -1.45235E+03  1.35723E+04 -9.54885E+03  7.61965E+03 -1.00040E+04 -1.29816E+03
 -9.59043E+03 -8.83499E+03 -1.59090E+03 -9.83400E+03  5.70963E+03 -8.06185E+03  6.97871E+03 -3.26490E+03
  4.54199E+03  1.79031E+03 -3.54672E+02  1.79369E+03 -1.76813E+02 -2.97714E+03  2.09801E+03 -6.00244E+03
  9.00150E+03 -3.96036E+03  1.31779E+04  1.53741E+03  1.25107E+04  8.49790E+03  8.90934E+03  1.65123E+04
 -3.67589E+03  1.85429E+04 -1.62061E+04  1.41127E+04 -2.14947E+04  3.09273E+03 -1.65250E+04 -7.03254E+03
 -8.82336E+03 -1.34951E+04 -7.34633E+02 -1.23056E+04  3.82441E+03 -6.82687E+03  4.18400E+03 -4.58694E+03
  2.91357E+03 -2.41090E+03  3.65606E+03 -3.76960E+03  4.24320E+03 -2.73146E+03  6.29515E+03 -1.11231E+03
  7.98199E+03  1.59395E+03  3.93198E+03  7.29680E+03 -1.27173E+03  8.87870E+03 -9.29214E+03  6.94780E+03
 -1.23147E+04 -1.13765E+03 -7.68657E+03 -8.60532E+03 -4.95873E+02 -1.30342E+04  6.78269E+03 -1.20440E+04
  1.30651E+04 -7.24728E+03  1.54236E+04  2.17802E+03  1.11802E+04  9.42557E+03  1.31628E+03  1.30962E+04
 -5.88315E+03  1.15140E+04 -7.60654E+03  3.35967E+03 -5.21828E+03 -2.06442E+03 -1.93881E+03 -1.58836E+03
 -1.38101E+03  4.57589E+02 -1.71618E+03  3.26757E+03 -4.46269E+03  2.92989E+03 -8.78436E+03 -8.28056E+02
 -5.33038E+03 -8.04924E+03  4.29421E+02 -1.17394E+04  6.81095E+03 -9.89864E+03  1.11753E+04 -1.99097E+03
  1.06072E+04  5.06713E+03  5.77971E+03  9.68792E+03 -2.14577E+03  1.12937E+04 -7.69196E+03  6.51095E+03
 -1.10251E+04  4.66749E+02 -8.02168E+03 -6.73095E+03 -1.14308E+03 -8.96439E+03  4.55632E+03 -7.00959E+03
  7.15912E+03 -1.58657E+03  5.07171E+03  1.58291E+03  1.19891E+03  3.54517E+03  5.25094E+02  1.47070E+03
  2.19983E+03  4.47859E+02  3.29954E+03  1.65248E+03  3.53499E+03  3.41982E+03  3.80415E+03  5.69129E+03
 -1.90391E+03  7.99869E+03 -8.26370E+03  9.11607E+03 -1.08538E+04  2.24431E+03 -1.13743E+04 -4.11230E+03
 -4.45062E+03 -1.13241E+04  1.87412E+03 -1.20993E+04  6.31539E+03 -7.59152E+03  8.69575E+03 -2.06666E+03
  6.81897E+03  4.66626E+03  1.37556E+03  6.01309E+03 -2.13494E+03  3.56600E+03 -4.44475E+03 -4.06453E+02
 -1.08362E+03 -4.65852E+03  3.06470E+03 -4.51834E+03  4.20260E+03 -1.96068E+03  4.25844E+03  7.17653E+02
  2.56752E+03  2.51732E+03  1.33430E+03  1.67160E+03 -6.77824E+02  1.25037E+03  1.68917E+03 -4.86378E+02
  1.43042E+03 -9.18842E+02  4.71117E+03  7.68508E+02  2.18086E+03  6.13905E+03 -1.22056E+03  8.03387E+03
 -4.84862E+03  5.09575E+03 -6.77369E+03  2.23690E+03 -6.03495E+03 -2.03698E+03 -1.81905E+03 -3.76344E+03
 -3.16144E+01 -4.04227E+03  2.15868E+03 -2.10818E+03  2.96247E+03  2.06021E+03 -1.58293E+03  3.69892E+03
 -4.22765E+03  1.53700E+03 -4.45318E+03 -2.93355E+03 -2.57495E+03 -6.24547E+03  6.18739E+02 -5.87678E+03
  2.49864E+03 -3.05415E+03  3.69654E+03  1.81898E+02  4.03815E+03  1.54524E+03  5.16606E+02  2.83675E+03
 -1.70129E+03  1.08606E+03 -2.32087E+03 -1.79394E+03  1.55628E+03 -4.07059E+03  4.98938E+03 -3.69746E+03
  5.98337E+03  8.76246E+02  7.45687E+03  4.14304E+03  2.62175E+03  7.72599E+03 -2.85211E+03  5.91764E+03
 -5.43513E+03  2.04455E+03 -5.34046E+03 -1.29294E+03 -3.04605E+03 -4.29223E+03  1.17679E+03 -3.95462E+03
  4.41975E+03 -1.98600E+03  3.20711E+03  1.29711E+03  1.41254E+03  3.50477E+03 -1.07513E+03  2.57478E+03
 -1.17511E+03  2.23136E+03 -1.37450E+03  1.61324E+02 -1.25765E+03  8.82163E+02 -8.55023E+02  2.08123E+03
 -1.07853E+03  2.57064E+03 -4.05482E+03  2.13539E+03 -6.13271E+03  5.07471E+02 -6.97542E+03 -4.39045E+03
 -3.21588E+03 -8.64116E+03  1.54778E+03 -1.00651E+04  5.78598E+03 -8.00730E+03  9.16471E+03 -3.10979E+03
  8.89608E+03  1.57367E+03  5.66775E+03  5.25589E+03  4.42126E+02  6.50400E+03 -2.98292E+03  5.07194E+03
 -3.74619E+03  1.86591E+03 -2.17731E+03 -9.92783E+02 -1.52532E+03 -1.15327E+03 -1.78048E+01 -4.56065E+02
 -1.83612E+03  4.34665E+02 -7.79386E+02 -3.07953E+02 -7.42839E+01 -1.86212E+03 -5.96691E+01 -3.08729E+03
  3.50982E+03 -2.64096E+03  3.38678E+03  1.47833E+02  4.53522E+03  3.04086E+03  6.08070E+02  6.50092E+03
 -3.34588E+03  7.63645E+03 -6.28674E+03  4.86634E+03 -7.40950E+03 -5.73830E+02 -5.06266E+03 -4.99944E+03
 -2.36474E+03 -7.01376E+03  1.76682E+03 -5.80259E+03  4.17176E+03 -2.75643E+03  4.05403E+03 -8.12235E-01
  1.91939E+03  2.40876E+03  1.31676E+02  1.23395E+03 -4.09832E+02 -3.56745E+01 -9.07231E+01 -1.59092E+03
  1.78051E+03 -6.42247E+02  2.10622E+03  4.72336E+02  9.07108E+02  2.62926E+03  3.04081E+02  3.01429E+03
 -3.13533E+03  2.68798E+03 -4.64077E+03  6.37490E+02 -3.03433E+03 -3.25724E+03 -1.13324E+02 -5.03494E+03
  2.53889E+03 -4.71125E+03  4.13129E+03 -1.21115E+03  4.50675E+03  6.78343E+02  2.15884E+03  3.75283E+03
  1.94637E+02  3.69984E+03 -1.58788E+03  3.18476E+03 -2.62806E+03  1.60650E+03 -2.06161E+03  2.94485E+02
 -6.32228E+02 -4.83443E+02 -1.60249E+03  7.61387E+02 -1.66806E+03  3.92860E+02 -2.80369E+03 -2.89045E+02
 -3.37408E+03 -9.66367E+02 -1.43975E+03 -3.84607E+03  2.00899E+03 -4.66650E+03  3.70325E+03 -1.82924E+03
  3.67794E+03 -5.22272E+02  1.60154E+03  2.64703E+03 -4.67695E+02  3.55243E+03 -3.21867E+03  2.57636E+03
