 $NMID ID='MM_0lb_SNR400_12hz_g55_62.RAW', FMTDAT='(8E13.5)'
 TRAMP=1., VOLUME=1. $END
  3.10771E+05  5.48643E+02  3.37437E+05  2.50745E+05  8.44960E+04  3.38463E+05 -1.32179E+05  2.51269E+05
 -1.90699E+05  8.38146E+04 -1.12005E+05 -3.29159E+04  4.14470E+02 -5.14943E+04  5.35415E+04 -6.02551E+02
  3.53778E+04  5.26979E+04 -1.68378E+04  7.55118E+04 -6.10573E+04  6.38069E+04 -8.45331E+04  3.25890E+04
 -8.19186E+04 -1.12657E+04 -5.79579E+04 -5.20044E+04 -1.54375E+04 -7.05678E+04  2.79104E+04 -4.62052E+04
  4.05664E+04  3.72660E+03  1.63122E+04  4.82092E+04 -3.44587E+04  4.73159E+04 -6.79605E+04 -1.16169E+02
 -5.36880E+04 -5.74198E+04 -6.79816E+03 -7.77670E+04  3.48382E+04 -5.66399E+04  4.85956E+04 -1.78416E+04
  4.49406E+04  1.15587E+04  3.24686E+04  2.61935E+04  1.53103E+04  2.97909E+04 -5.42368E+03  2.78847E+04
 -2.23667E+04  1.19674E+04 -1.85029E+04 -5.90314E+03  6.13524E+03 -7.80880E+03  2.31720E+04  1.29865E+04
  7.33106E+03  3.63628E+04 -3.28504E+04  3.62349E+04 -6.45074E+04  2.46324E+03 -5.76291E+04 -4.33265E+04
 -1.22742E+04 -6.50263E+04  4.02840E+04 -4.61276E+04  5.92117E+04 -1.96659E+03  3.56338E+04  3.37226E+04
 -5.56410E+03  3.77839E+04 -3.10297E+04  1.70151E+04 -3.15480E+04 -4.37185E+03 -1.77854E+04 -1.09652E+04
 -9.32081E+03 -1.47936E+04 -8.69773E+02 -1.92081E+04  8.21631E+03 -2.29531E+04  1.59899E+04 -1.26914E+04
  1.07109E+04  5.74385E+03 -9.31425E+03  1.23743E+04 -2.31192E+04 -5.81439E+03 -8.70226E+03 -3.60446E+04
  2.37007E+04 -4.53736E+04  5.03749E+04 -2.07444E+04  4.71360E+04  2.02640E+04  1.71986E+04  4.58445E+04
 -1.66545E+04  3.50213E+04 -2.67650E+04  2.72996E+03 -1.07267E+04 -2.94871E+04  2.16872E+04 -3.51826E+04
  4.27063E+04 -1.05645E+04  3.82380E+04  2.40587E+04  1.92866E+04  4.94811E+04 -8.42293E+03  5.29511E+04
 -3.36259E+04  3.56925E+04 -4.54276E+04  9.70526E+03 -4.52251E+04 -1.72993E+04 -2.49869E+04 -4.04356E+04
  8.03275E+03 -4.01109E+04  3.29654E+04 -1.62152E+04  3.11161E+04  1.16230E+04  4.45167E+03  1.99393E+04
 -1.37284E+04  8.89087E+03 -1.06667E+04 -7.27016E+03  6.09004E+03 -1.14797E+04  1.81453E+04  5.89087E+03
  1.33924E+04  2.22669E+04 -5.18486E+03  2.63445E+04 -2.22283E+04  1.34478E+04 -2.98270E+04 -3.56509E+03
 -2.30238E+04 -1.83161E+04 -1.05504E+04 -2.31559E+04  4.24136E+03 -2.25148E+04  1.79297E+04 -2.02415E+04
  2.96620E+04 -1.33100E+04  3.54242E+04  3.23311E+03  2.59542E+04  2.17662E+04  4.07074E+03  3.83265E+04
 -1.84192E+04  3.23022E+04 -2.86019E+04  1.11726E+04 -2.20570E+04 -1.01047E+04 -4.97507E+03 -1.32723E+04
  5.68934E+02 -1.16635E+03 -5.93928E+03  7.73461E+03 -1.83278E+04  4.85630E+03 -1.76253E+04 -8.19054E+03
 -1.04282E+04 -2.08957E+04  5.49452E+03 -2.56569E+04  1.75157E+04 -1.82859E+04  2.04346E+04 -1.40579E+03
  1.23746E+04  1.43502E+04 -1.15288E+03  2.09910E+04 -1.46545E+04  1.18061E+04 -2.13629E+04 -4.28362E+03
 -1.59257E+04 -1.86495E+04 -1.96738E+03 -2.49866E+04  1.10172E+04 -2.13626E+04  2.08984E+04 -1.11300E+04
  1.91691E+04 -2.38036E+02  1.35327E+04  5.15519E+03  7.29962E+03  9.91487E+02  1.14529E+04 -2.32747E+03
  1.95163E+04  2.72228E+03  2.24580E+04  1.70197E+04  1.48892E+04  3.47161E+04 -2.61917E+03  3.99630E+04
 -2.22557E+04  3.21539E+04 -3.61142E+04  1.62404E+04 -3.92670E+04 -3.03086E+03 -3.23164E+04 -2.28260E+04
 -1.29399E+04 -3.20090E+04  1.16325E+04 -2.88235E+04  2.37442E+04 -1.36504E+04  2.13662E+04  6.90188E+03
  7.52310E+03  1.57378E+04 -1.01327E+04  1.34748E+04 -1.79360E+04  2.36183E+03 -1.40481E+04 -1.15489E+04
 -5.06557E+02 -1.72939E+04  9.25748E+03 -1.25099E+04  1.22373E+04 -8.62858E+02  2.52430E+03  7.58250E+03
 -7.82204E+03  2.60726E+03 -7.44549E+03 -6.38073E+03 -6.12239E+02 -1.60456E+04  1.02150E+04 -1.68446E+04
  1.99454E+04 -9.00342E+03  2.17238E+04  3.26279E+03  1.97202E+04  1.59177E+04  8.71019E+03  2.39850E+04
 -4.35440E+03  2.65945E+04 -1.70215E+04  1.64125E+04 -1.90086E+04  3.52415E+03 -1.35620E+04 -4.94871E+03
 -5.25912E+03 -5.90282E+03 -4.75794E+01  9.32659E+02 -3.14156E+03  2.93253E+03 -6.02643E+03  4.89126E+03
 -1.22559E+04 -2.88382E+02 -1.26647E+04 -1.06842E+04 -5.01894E+03 -1.59679E+04  5.99621E+03 -1.30489E+04
  1.07578E+04 -5.20605E+03  8.19718E+03  3.67205E+03 -3.79297E+02  4.80957E+03 -6.81129E+03 -4.99227E+01
 -6.94167E+03 -8.57280E+03 -1.23640E+03 -1.33595E+04  7.83420E+03 -1.39961E+04  1.71996E+04 -7.50710E+03
  2.02921E+04  1.70125E+03  1.48313E+04  1.19464E+04  3.51128E+03  1.60927E+04 -7.89566E+03  1.29947E+04
 -1.10077E+04  4.00123E+03 -5.24774E+03 -2.82096E+03  2.03388E+03 -3.35525E+03  7.45005E+03 -1.02426E+03
  6.28677E+03  6.01025E+03  1.95864E+03  1.08383E+04 -7.89256E+03  1.06759E+04 -1.28296E+04  3.41920E+03
 -8.19311E+03 -6.93246E+03 -1.29771E+01 -1.05491E+04  7.25209E+03 -5.16159E+03  7.07067E+03  2.76652E+03
  1.98355E+03  8.27249E+03 -6.41949E+03  9.35830E+03 -1.08289E+04  4.19521E+03 -1.00919E+04 -3.04734E+03
 -5.86154E+03 -1.27724E+04  3.01118E+03 -1.39364E+04  1.29030E+04 -8.97442E+03  1.39760E+04  2.42283E+03
  8.62107E+03  1.04672E+04 -1.13277E+03  1.25126E+04 -9.58229E+03  6.61085E+03 -9.61799E+03 -3.86463E+02
 -9.45965E+03 -8.77363E+03 -1.62144E+03 -9.50709E+03  5.04300E+03 -7.55187E+03  6.26493E+03 -3.66584E+03
  4.68367E+03  1.02520E+03 -9.86606E+02  1.72287E+03 -9.97719E+02 -2.06179E+03  1.71571E+03 -5.80792E+03
  9.17198E+03 -3.33565E+03  1.20774E+04  8.17408E+02  1.16221E+04  8.69600E+03  8.42543E+03  1.63143E+04
 -3.91146E+03  1.92609E+04 -1.57409E+04  1.40690E+04 -1.94075E+04  2.35439E+03 -1.60281E+04 -6.97114E+03
 -7.86627E+03 -1.43454E+04 -4.53851E+01 -1.16525E+04  4.33167E+03 -6.06369E+03  3.89913E+03 -4.50635E+03
  3.42712E+03 -2.74143E+03  2.79142E+03 -3.15685E+03  4.50800E+03 -3.53238E+03  6.44159E+03 -6.48452E+02
  7.99546E+03  1.96995E+03  4.06878E+03  7.37093E+03 -2.36971E+03  8.69451E+03 -9.19647E+03  6.00938E+03
 -1.08903E+04 -1.02194E+03 -6.78436E+03 -8.45265E+03 -6.83576E+02 -1.19746E+04  6.29916E+03 -1.19771E+04
  1.21940E+04 -7.25885E+03  1.42091E+04  2.07832E+03  9.78544E+03  1.04063E+04  1.39944E+03  1.37814E+04
 -4.59413E+03  1.10812E+04 -8.30018E+03  3.76444E+03 -6.15499E+03 -1.45969E+03 -2.46956E+03 -2.06991E+03
 -1.18931E+03  1.05634E+02 -1.66310E+03  3.81920E+03 -4.21868E+03  1.99840E+03 -7.39019E+03 -1.03004E+03
 -4.88246E+03 -8.02690E+03  4.11482E+02 -1.10545E+04  6.36521E+03 -1.00406E+04  9.97178E+03 -3.21774E+03
  1.10852E+04  5.85969E+03  4.55175E+03  9.40829E+03 -1.99114E+03  1.10379E+04 -7.81356E+03  6.57826E+03
 -9.93246E+03  5.16718E+02 -8.10433E+03 -6.65833E+03 -9.37580E+02 -8.57636E+03  4.49053E+03 -6.57614E+03
  6.39244E+03 -2.58680E+03  4.16427E+03  1.42941E+03  1.32919E+03  2.89615E+03  6.96495E+02  1.29613E+03
  2.55773E+03  7.30847E+02  2.52370E+03  2.27603E+03  3.41659E+03  4.08759E+03  3.10520E+03  5.91023E+03
 -2.07632E+03  8.92780E+03 -7.23682E+03  8.73739E+03 -1.06677E+04  1.85860E+03 -1.07383E+04 -4.84932E+03
 -4.79045E+03 -1.05435E+04  1.19692E+03 -1.16203E+04  6.09162E+03 -7.85487E+03  8.57616E+03 -1.66206E+03
  6.64692E+03  4.91385E+03  1.37274E+03  5.95523E+03 -2.55696E+03  3.96790E+03 -4.31100E+03 -5.75573E+02
 -2.30208E+03 -4.72904E+03  3.00815E+03 -4.64557E+03  3.87388E+03 -1.92495E+03  4.11474E+03  1.84256E+03
  2.23803E+03  1.84229E+03  1.22316E+03  4.37083E+02 -5.06919E+02  1.44752E+03  1.15204E+03 -7.52415E+02
  1.73668E+03  2.39370E+01  3.99697E+03  1.37982E+03  2.52326E+03  5.53011E+03 -1.20813E+03  6.95014E+03
 -5.06711E+03  4.68914E+03 -6.79935E+03  1.30536E+03 -5.54615E+03 -2.73675E+03 -2.22195E+03 -4.39517E+03
  4.15490E+02 -3.55929E+03  2.71580E+03 -1.60871E+03  2.57760E+03  2.63196E+03 -1.10962E+03  3.72735E+03
 -4.10738E+03  2.51780E+03 -4.60863E+03 -2.38637E+03 -2.38047E+03 -5.77873E+03  1.36015E+03 -5.29196E+03
  3.77715E+03 -2.95916E+03  3.59458E+03 -6.41761E+02  3.12785E+03  1.02296E+03  6.81013E+02  2.74373E+03
 -1.90618E+03  1.35428E+03 -2.54089E+03 -1.97089E+03  1.14616E+03 -4.05095E+03  4.29982E+03 -2.48162E+03
  5.59124E+03  7.55017E+02  6.45759E+03  4.28514E+03  1.98740E+03  6.13940E+03 -1.44290E+03  6.59683E+03
 -5.47959E+03  2.14744E+03 -5.34353E+03 -5.94457E+02 -2.65548E+03 -4.17960E+03  1.03942E+03 -3.97745E+03
  4.85885E+03 -2.42190E+03  3.79991E+03  9.35356E+02  1.00758E+03  3.29819E+03 -2.98491E+02  2.65189E+03
 -1.68128E+03  2.61083E+03 -1.22157E+03  6.82421E+02 -7.20443E+02  1.27624E+03 -1.54232E+03  1.03386E+03
 -1.63335E+03  3.35153E+03 -4.46230E+03  2.28482E+03 -6.50233E+03  4.31473E+02 -7.23332E+03 -3.99126E+03
 -3.94741E+03 -8.19029E+03  1.59308E+03 -9.55548E+03  5.80662E+03 -7.97766E+03  9.34198E+03 -2.84801E+03
  8.83577E+03  1.78964E+03  4.70089E+03  5.41214E+03  4.61271E+02  6.78603E+03 -2.28452E+03  4.77723E+03
 -3.49019E+03  1.14237E+03 -2.35133E+03 -4.74601E+02 -2.27317E+02 -3.39928E+02 -1.25133E+03  5.57364E+01
 -1.38869E+03  5.39605E+02 -1.48946E+03  2.41121E+02 -4.28472E+02 -1.79614E+03  4.38476E+02 -2.63756E+03
  2.88220E+03 -2.24035E+03  3.54719E+03  2.41279E+02  4.68662E+03  3.64414E+03  3.18410E+02  6.14704E+03
 -2.65424E+03  7.81810E+03 -6.21154E+03  4.34322E+03 -7.22727E+03 -6.70805E+02 -5.38271E+03 -4.80185E+03
 -2.35788E+03 -5.84126E+03  1.88953E+03 -5.23929E+03  3.78501E+03 -3.44620E+03  3.57478E+03 -2.31828E+02
  1.70900E+03  2.03871E+03  1.06758E+02  1.03129E+03 -1.83726E+03  1.06146E+02 -3.40676E+02 -1.70225E+03
  2.30190E+03 -7.57197E+02  2.15218E+03  8.41176E+02  1.46940E+03  2.28340E+03  2.36646E+02  2.56837E+03
 -2.71618E+03  3.00735E+03 -3.68104E+03  2.89195E+02 -3.79691E+03 -2.35431E+03 -6.21431E+02 -4.75128E+03
  2.61897E+03 -3.36432E+03  4.45624E+03 -1.28436E+03  4.94401E+03  6.88027E+02  2.51743E+03  3.56149E+03
  1.12596E+03  3.23391E+03 -1.28158E+03  2.47332E+03 -2.13656E+03  1.78979E+03 -1.59888E+03  8.46290E+02
 -1.40241E+03 -5.56291E+02 -8.90974E+02  7.67496E+02 -2.46640E+03  3.67003E+02 -2.97279E+03 -9.83302E+02
 -3.01545E+03 -1.98755E+03 -7.96914E+02 -4.35404E+03  1.73079E+03 -4.49444E+03  2.64389E+03 -1.45275E+03
  3.45845E+03  7.30024E+02  1.40371E+03  2.37931E+03 -5.87947E+01  4.36640E+03 -2.40723E+03  2.54614E+03
