 $NMID ID='MM_0lb_SNR400_10hz_g40_25.RAW', FMTDAT='(8E13.5)'
 TRAMP=1., VOLUME=1. $END
  3.10471E+05  9.78935E+02  3.37014E+05  2.50070E+05  8.54527E+04  3.38252E+05 -1.31998E+05  2.51729E+05
 -1.90582E+05  8.32096E+04 -1.12204E+05 -3.24243E+04 -1.36682E+02 -5.03644E+04  5.38024E+04  2.84048E+02
  3.52598E+04  5.26085E+04 -1.72365E+04  7.57991E+04 -6.10414E+04  6.49327E+04 -8.40059E+04  3.17779E+04
 -8.15179E+04 -1.18236E+04 -5.75304E+04 -5.19010E+04 -1.50995E+04 -7.05792E+04  2.82525E+04 -4.66471E+04
  4.00893E+04  3.32961E+03  1.63351E+04  4.88533E+04 -3.44276E+04  4.74083E+04 -6.80939E+04  9.64704E+01
 -5.39892E+04 -5.73708E+04 -6.03623E+03 -7.76009E+04  3.49414E+04 -5.66796E+04  4.97361E+04 -1.72867E+04
  4.44206E+04  1.14225E+04  3.22232E+04  2.63464E+04  1.56101E+04  2.97748E+04 -5.87609E+03  2.74690E+04
 -2.23522E+04  1.28133E+04 -1.75943E+04 -5.82291E+03  5.78862E+03 -7.62045E+03  2.35670E+04  1.27231E+04
  6.76152E+03  3.63261E+04 -3.34802E+04  3.65767E+04 -6.48264E+04  1.70228E+03 -5.86851E+04 -4.40319E+04
 -1.32135E+04 -6.52198E+04  4.12845E+04 -4.66543E+04  6.04878E+04 -2.43088E+03  3.64981E+04  3.31704E+04
 -4.71013E+03  3.81191E+04 -3.11415E+04  1.74662E+04 -3.26105E+04 -3.88731E+03 -1.77581E+04 -1.18272E+04
 -9.39155E+03 -1.45473E+04 -6.79036E+01 -1.88090E+04  8.10585E+03 -2.34721E+04  1.54890E+04 -1.39649E+04
  1.08944E+04  6.23295E+03 -9.69923E+03  1.32453E+04 -2.22190E+04 -4.91988E+03 -8.08398E+03 -3.49163E+04
  2.45531E+04 -4.52465E+04  5.05359E+04 -2.02277E+04  4.72346E+04  2.01865E+04  1.73196E+04  4.64264E+04
 -1.66990E+04  3.43009E+04 -2.59916E+04  2.60541E+03 -1.07057E+04 -2.90567E+04  2.09354E+04 -3.53952E+04
  4.29406E+04 -9.91976E+03  3.85480E+04  2.42656E+04  2.00542E+04  4.91139E+04 -8.69452E+03  5.46348E+04
 -3.45843E+04  3.67118E+04 -4.57653E+04  1.01682E+04 -4.51764E+04 -1.77706E+04 -2.56305E+04 -4.08197E+04
  7.44163E+03 -4.04747E+04  3.26947E+04 -1.64924E+04  3.05226E+04  1.08716E+04  4.42662E+03  2.04714E+04
 -1.32430E+04  9.13103E+03 -1.08713E+04 -7.69853E+03  5.51849E+03 -1.10897E+04  1.82968E+04  5.60409E+03
  1.38650E+04  2.19442E+04 -5.97338E+03  2.67014E+04 -2.31375E+04  1.32285E+04 -3.03689E+04 -3.64630E+03
 -2.29807E+04 -1.79129E+04 -9.83390E+03 -2.24539E+04  3.71294E+03 -2.24705E+04  1.83851E+04 -2.10495E+04
  3.07053E+04 -1.37364E+04  3.51105E+04  4.33378E+03  2.56358E+04  2.26658E+04  4.14740E+03  3.90222E+04
 -1.91840E+04  3.27330E+04 -2.87217E+04  1.18580E+04 -2.19050E+04 -1.07301E+04 -3.87361E+03 -1.28575E+04
  7.95759E+02 -1.41382E+03 -6.45997E+03  7.51460E+03 -1.85541E+04  5.45773E+03 -1.86374E+04 -8.36948E+03
 -1.11286E+04 -2.15185E+04  5.08702E+03 -2.54969E+04  1.73390E+04 -1.83874E+04  2.09291E+04 -1.54650E+03
  1.32362E+04  1.49965E+04 -1.85287E+03  2.16565E+04 -1.52652E+04  1.32150E+04 -2.18990E+04 -4.99315E+03
 -1.62243E+04 -1.93617E+04 -2.20954E+03 -2.60659E+04  1.22320E+04 -2.17958E+04  2.19094E+04 -1.11558E+04
  2.06039E+04 -3.87511E+02  1.52588E+04  5.03227E+03  7.95064E+03  1.03741E+03  1.11543E+04 -2.10296E+03
  2.02704E+04  2.05955E+03  2.29433E+04  1.70956E+04  1.54222E+04  3.44832E+04 -2.90601E+03  4.00837E+04
 -2.37430E+04  3.35621E+04 -3.76953E+04  1.67384E+04 -4.01808E+04 -3.44269E+03 -3.30130E+04 -2.40996E+04
 -1.32275E+04 -3.32987E+04  1.18984E+04 -3.04010E+04  2.54960E+04 -1.44263E+04  2.29205E+04  7.30410E+03
  6.82185E+03  1.76388E+04 -1.02941E+04  1.42451E+04 -1.84804E+04  2.91582E+03 -1.35473E+04 -1.20460E+04
 -6.70786E+02 -1.82582E+04  9.06426E+03 -1.30195E+04  1.20510E+04 -1.10462E+03  2.84712E+03  7.49756E+03
 -7.75895E+03  3.30303E+03 -7.98714E+03 -7.50811E+03 -1.98271E+03 -1.65355E+04  1.15644E+04 -1.79898E+04
  2.06529E+04 -9.78149E+03  2.27084E+04  3.07357E+03  1.96421E+04  1.61794E+04  9.40019E+03  2.59830E+04
 -4.65793E+03  2.82617E+04 -1.69949E+04  1.69325E+04 -2.04876E+04  4.37818E+03 -1.45764E+04 -5.49437E+03
 -5.95549E+03 -6.34891E+03 -5.35873E+02 -3.61943E+02 -3.13985E+03  2.46605E+03 -6.90111E+03  4.32708E+03
 -1.28967E+04 -2.87308E+02 -1.34505E+04 -1.03795E+04 -4.53873E+03 -1.73311E+04  5.79973E+03 -1.43981E+04
  1.16058E+04 -5.87967E+03  8.81055E+03  3.53007E+03 -4.92228E+02  6.04324E+03 -6.67998E+03  1.39824E+02
 -7.03312E+03 -9.62766E+03 -5.99024E+02 -1.33668E+04  7.72636E+03 -1.40399E+04  1.78514E+04 -7.78754E+03
  2.11549E+04  1.93834E+03  1.53228E+04  1.26424E+04  2.03372E+03  1.63827E+04 -8.71627E+03  1.41895E+04
 -1.19003E+04  4.47244E+03 -5.35259E+03 -2.29754E+03  2.21615E+03 -3.53771E+03  7.32535E+03 -1.21045E+03
  6.03933E+03  5.58266E+03  1.06020E+03  1.06113E+04 -7.57702E+03  1.05289E+04 -1.39635E+04  3.08133E+03
 -9.42443E+03 -7.07010E+03  4.57805E+02 -1.19624E+04  7.69639E+03 -5.59011E+03  8.02132E+03  2.95399E+03
  2.02940E+03  8.10908E+03 -6.93808E+03  9.45281E+03 -1.18468E+04  4.63138E+03 -1.20843E+04 -4.10641E+03
 -7.29506E+03 -1.35955E+04  2.49583E+03 -1.58160E+04  1.27214E+04 -9.33589E+03  1.43834E+04  2.51436E+03
  9.36616E+03  1.10133E+04 -1.14323E+03  1.31918E+04 -1.02784E+04  7.34070E+03 -1.11992E+04 -1.24894E+03
 -9.82468E+03 -9.23212E+03 -1.13174E+03 -1.07955E+04  5.00118E+03 -8.85294E+03  6.16485E+03 -2.82228E+03
  4.65725E+03  1.78646E+03 -2.06040E+02  1.82909E+03 -1.00999E+03 -2.10376E+03  2.70304E+03 -6.38794E+03
  1.04665E+04 -4.30298E+03  1.33402E+04  1.48638E+03  1.32491E+04  9.26593E+03  9.09614E+03  1.71848E+04
 -3.50180E+03  2.03440E+04 -1.64266E+04  1.53661E+04 -2.24501E+04  3.33884E+03 -1.78146E+04 -7.93031E+03
 -9.09123E+03 -1.44970E+04 -9.23351E+02 -1.23128E+04  4.81657E+03 -7.13146E+03  4.27820E+03 -4.35121E+03
  2.80533E+03 -2.75993E+03  3.51938E+03 -3.11918E+03  6.01592E+03 -2.77099E+03  6.70936E+03 -8.58010E+02
  9.67069E+03  2.30756E+03  5.87231E+03  8.11574E+03 -2.46380E+03  9.76561E+03 -1.05938E+04  7.64768E+03
 -1.25028E+04 -1.45050E+03 -8.36313E+03 -8.45386E+03 -1.56328E+03 -1.37252E+04  7.01592E+03 -1.32761E+04
  1.37137E+04 -7.94711E+03  1.62015E+04  2.09478E+03  1.09732E+04  1.16173E+04  1.74749E+03  1.54205E+04
 -6.53069E+03  1.29170E+04 -8.27869E+03  4.12969E+03 -6.10143E+03 -1.31849E+03 -2.57469E+03 -2.12411E+03
 -1.37998E+03  3.87889E+02 -1.77354E+03  3.21175E+03 -5.29307E+03  2.75952E+03 -8.28525E+03 -1.03391E+03
 -6.11672E+03 -9.04218E+03  7.62688E+01 -1.29179E+04  7.48805E+03 -1.12437E+04  1.25782E+04 -3.49003E+03
  1.21420E+04  5.64013E+03  5.07607E+03  1.09812E+04 -2.60544E+03  1.30268E+04 -8.81818E+03  6.74929E+03
 -1.18812E+04 -1.02162E+02 -8.93450E+03 -7.00402E+03 -1.28844E+03 -9.92853E+03  5.28047E+03 -7.42545E+03
  7.63683E+03 -3.13697E+03  6.02211E+03  1.23903E+03  1.93826E+03  3.91734E+03  1.38868E+03  1.11515E+03
  2.27026E+03  2.55531E+02  3.64897E+03  2.45570E+03  3.24021E+03  3.55124E+03  2.93421E+03  6.83306E+03
 -3.10765E+03  9.28725E+03 -8.58694E+03  9.46313E+03 -1.21933E+04  2.18074E+03 -1.31537E+04 -4.24596E+03
 -5.86638E+03 -1.25829E+04  1.70873E+03 -1.38538E+04  7.60555E+03 -8.92727E+03  1.03669E+04 -1.74014E+03
  7.80994E+03  5.03786E+03  1.49762E+03  6.99066E+03 -3.59411E+03  5.04552E+03 -4.87523E+03 -9.10390E+02
 -2.51021E+03 -5.53393E+03  2.62464E+03 -5.70725E+03  4.98945E+03 -2.98003E+03  4.26541E+03  1.06109E+03
  2.77279E+03  2.81207E+03  1.72072E+03  1.80088E+03 -9.29046E+02  1.69414E+03  1.06163E+03 -6.40739E+02
  1.46929E+03 -7.49557E+02  5.67190E+03  2.33918E+03  3.69591E+03  6.97828E+03 -1.90430E+02  8.46301E+03
 -6.56750E+03  5.75403E+03 -7.14464E+03  1.86155E+03 -6.47178E+03 -2.80844E+03 -2.20319E+03 -4.89130E+03
  6.09633E+02 -4.75578E+03  3.26662E+03 -2.62810E+03  2.69855E+03  2.71095E+03 -1.36140E+03  3.90920E+03
 -4.88100E+03  2.84709E+03 -5.11034E+03 -3.20873E+03 -3.55160E+03 -6.84080E+03  1.34182E+03 -6.83924E+03
  3.94019E+03 -4.14098E+03  4.47544E+03 -1.61124E+02  4.43117E+03  1.93611E+03  1.14898E+03  3.46862E+03
 -2.99135E+03  9.61751E+02 -3.00750E+03 -2.06094E+03  1.29015E+03 -5.58430E+03  6.07069E+03 -4.57475E+03
  7.20678E+03  1.10648E+03  8.52067E+03  5.28685E+03  2.45443E+03  7.40906E+03 -2.37439E+03  7.75979E+03
 -5.83513E+03  3.36452E+03 -6.05402E+03 -6.12191E+02 -3.74540E+03 -5.50592E+03  7.85831E+02 -5.35144E+03
  4.50397E+03 -2.46306E+03  4.46375E+03  1.92582E+03  1.25416E+03  4.85347E+03 -1.03378E+03  3.31376E+03
 -2.64490E+03  2.19125E+03 -2.23230E+03  5.79969E+02 -1.50312E+03  1.50407E+03 -1.59245E+03  2.22712E+03
 -1.87162E+03  3.88522E+03 -5.79508E+03  2.54998E+03 -8.88223E+03  6.85443E+02 -9.04581E+03 -5.11838E+03
 -5.26773E+03 -9.75423E+03  2.14332E+03 -1.17763E+04  6.89505E+03 -8.92941E+03  1.22206E+04 -4.07240E+03
  1.06699E+04  2.70213E+03  6.70180E+03  7.64414E+03 -5.65362E+01  8.15409E+03 -3.37805E+03  6.37100E+03
 -5.26108E+03  2.81747E+03 -3.46923E+03 -1.38899E+03 -1.02963E+03 -8.81186E+02 -8.31532E+02 -2.48759E+02
 -1.71798E+03  4.66381E+02 -1.78637E+03 -4.70626E+02 -1.98511E+02 -1.88689E+03  3.82739E+02 -2.99205E+03
  2.76954E+03 -2.95349E+03  5.03324E+03 -6.00605E+02  5.60374E+03  4.29110E+03  1.45361E+03  8.31753E+03
 -3.20088E+03  9.35557E+03 -8.67508E+03  6.56489E+03 -9.67616E+03 -4.01959E+02 -7.26509E+03 -6.27289E+03
 -2.69167E+03 -8.28598E+03  2.09472E+03 -8.02013E+03  5.34630E+03 -3.77277E+03  4.72981E+03 -2.99286E+02
  2.72130E+03  2.21808E+03 -7.10881E+02  1.62114E+03 -1.67070E+03 -1.67419E+02 -3.38415E+02 -2.52837E+03
  2.47789E+03 -1.71027E+03  2.94325E+03  1.45299E+03  2.77764E+03  2.67808E+03  5.44379E+02  4.10858E+03
 -3.30389E+03  4.08099E+03 -5.68311E+03  8.16238E+02 -4.39263E+03 -3.82408E+03 -9.10152E+02 -7.24610E+03
  3.94608E+03 -5.15522E+03  6.14329E+03 -1.92118E+03  5.49712E+03  1.68545E+03  3.00897E+03  4.90466E+03
  9.36210E+02  5.74152E+03 -1.69216E+03  4.04611E+03 -3.15072E+03  2.56898E+03 -2.50411E+03  8.33733E+02
 -1.59560E+03  1.35622E+02 -1.50963E+03  1.06355E+03 -2.68706E+03  8.58825E+02 -4.57532E+03 -6.61105E+02
 -4.61846E+03 -2.94888E+03 -1.70521E+03 -5.12931E+03  2.93910E+03 -6.10039E+03  5.44370E+03 -2.66556E+03
  5.56677E+03  8.97643E+02  3.00415E+03  3.80058E+03 -1.88265E+02  5.49856E+03 -4.48673E+03  3.16086E+03
