 $NMID ID='MM_0lb_SNR400_18hz_g45_71.RAW', FMTDAT='(8E13.5)'
 TRAMP=1., VOLUME=1. $END
  3.09654E+05  5.30178E+02  3.37768E+05  2.50060E+05  8.42483E+04  3.37475E+05 -1.32362E+05  2.50448E+05
 -1.89524E+05  8.25676E+04 -1.11358E+05 -3.27774E+04  1.54962E+03 -5.02097E+04  5.36560E+04  4.40279E+02
  3.47305E+04  5.24547E+04 -1.74805E+04  7.46659E+04 -6.03376E+04  6.30766E+04 -8.27176E+04  3.19274E+04
 -7.96433E+04 -1.11072E+04 -5.62046E+04 -4.99872E+04 -1.53298E+04 -6.78447E+04  2.69231E+04 -4.44790E+04
  3.86914E+04  3.96503E+03  1.52893E+04  4.68156E+04 -3.38090E+04  4.64987E+04 -6.53401E+04 -4.56814E+02
 -5.23740E+04 -5.56991E+04 -6.57090E+03 -7.53633E+04  3.31084E+04 -5.30162E+04  4.63911E+04 -1.65248E+04
  4.13855E+04  1.10320E+04  3.11401E+04  2.46920E+04  1.57604E+04  2.87855E+04 -4.56573E+03  2.73357E+04
 -2.15596E+04  1.27774E+04 -1.88345E+04 -4.02031E+03  4.65797E+03 -7.28876E+03  2.12945E+04  1.10679E+04
  7.89598E+03  3.32874E+04 -3.04575E+04  3.46319E+04 -6.14972E+04  2.78567E+03 -5.56590E+04 -4.12801E+04
 -1.22764E+04 -6.07248E+04  3.76448E+04 -4.34500E+04  5.54531E+04 -1.57102E+03  3.22082E+04  3.05880E+04
 -6.88312E+03  3.33091E+04 -2.88493E+04  1.36560E+04 -2.83418E+04 -5.22149E+03 -1.41946E+04 -1.00211E+04
 -7.39270E+03 -1.13299E+04 -7.20073E+02 -1.65953E+04  7.00831E+03 -2.29880E+04  1.47818E+04 -1.40268E+04
  1.22953E+04  4.40669E+03 -6.04494E+03  1.32821E+04 -1.96565E+04 -2.12445E+03 -7.78541E+03 -3.04694E+04
  2.04191E+04 -4.08969E+04  4.46216E+04 -1.85354E+04  4.17536E+04  1.80838E+04  1.42009E+04  4.16798E+04
 -1.51460E+04  3.10918E+04 -2.36662E+04  1.10545E+03 -7.82861E+03 -2.61543E+04  2.02541E+04 -3.11468E+04
  3.84030E+04 -7.52443E+03  3.14345E+04  2.26850E+04  1.55270E+04  4.26127E+04 -7.78632E+03  4.53015E+04
 -2.84385E+04  3.03772E+04 -3.71606E+04  8.56947E+03 -3.82764E+04 -1.48752E+04 -2.13125E+04 -3.45596E+04
  6.83336E+03 -3.44779E+04  2.93573E+04 -1.31802E+04  2.70434E+04  1.08978E+04  3.25441E+03  1.80289E+04
 -1.34155E+04  6.88354E+03 -9.08409E+03 -7.32481E+03  6.10687E+03 -1.02068E+04  1.68952E+04  6.70250E+03
  1.25867E+04  2.16804E+04 -6.33938E+03  2.33459E+04 -2.14974E+04  8.98680E+03 -2.50487E+04 -6.08483E+03
 -1.74117E+04 -1.61453E+04 -5.63545E+03 -1.67449E+04  3.18031E+03 -1.50798E+04  1.19161E+04 -1.48479E+04
  2.13192E+04 -1.15414E+04  2.86626E+04  8.89864E+02  2.13031E+04  1.63259E+04  4.17698E+03  3.26119E+04
 -1.54037E+04  2.78092E+04 -2.58131E+04  9.22015E+03 -1.96661E+04 -1.06744E+04 -4.03550E+03 -1.43282E+04
  2.75521E+03 -3.34271E+03 -2.85440E+03  5.48333E+03 -1.31267E+04  4.98288E+03 -1.29305E+04 -4.79277E+03
 -8.68000E+03 -1.56740E+04  5.22102E+03 -1.91809E+04  1.23529E+04 -1.36283E+04  1.46960E+04 -1.15192E+03
  8.85612E+03  1.12336E+04 -9.67530E+02  1.57242E+04 -1.02654E+04  8.34232E+03 -1.55163E+04 -3.36667E+03
 -1.19206E+04 -1.44134E+04 -1.88271E+03 -1.86308E+04  8.40971E+03 -1.49009E+04  1.58401E+04 -7.10726E+03
  1.44634E+04  3.97834E+02  1.01818E+04  3.99155E+03  4.99788E+03  6.33386E+02  7.27031E+03 -1.51818E+03
  1.43033E+04  2.84505E+03  1.46214E+04  1.29028E+04  9.52459E+03  2.55854E+04 -3.38689E+03  2.75060E+04
 -1.59606E+04  2.04217E+04 -2.44319E+04  9.87906E+03 -2.52963E+04 -2.19785E+03 -2.22534E+04 -1.45174E+04
 -1.08464E+04 -2.08677E+04  6.72313E+03 -1.97494E+04  1.64109E+04 -1.08926E+04  1.62685E+04  3.95425E+03
  7.20229E+03  1.11537E+04 -6.82677E+03  1.07733E+04 -1.35850E+04  2.58366E+03 -1.02509E+04 -7.67477E+03
  3.90932E+02 -1.23309E+04  6.24344E+03 -9.44849E+03  7.96081E+03 -1.54893E+03  1.54931E+03  5.14842E+03
 -5.59766E+03  1.53884E+03 -3.80593E+03 -4.44314E+03  7.60256E+02 -1.02450E+04  7.41519E+03 -1.02771E+04
  1.22736E+04 -4.95301E+03  1.20409E+04  2.55629E+03  1.11020E+04  9.47873E+03  5.52257E+03  1.41219E+04
 -2.26786E+03  1.61936E+04 -9.64815E+03  1.10063E+04 -1.16855E+04  2.82177E+03 -8.72585E+03 -2.07416E+03
 -4.39266E+03 -3.36537E+03 -6.49497E+02  1.82302E+03 -1.99323E+03  2.30148E+03 -3.73918E+03  3.39890E+03
 -7.86211E+03  3.32949E+02 -9.03602E+03 -7.47201E+03 -3.48598E+03 -1.16190E+04  3.77863E+03 -8.92646E+03
  7.55452E+03 -4.03266E+03  4.72481E+03  2.59596E+03  5.72644E+02  3.38720E+03 -3.52129E+03  2.50316E+01
 -3.33360E+03 -5.28685E+03 -6.76324E+02 -7.74960E+03  3.83414E+03 -8.26718E+03  1.01746E+04 -3.92556E+03
  1.18612E+04  9.05960E+02  9.06839E+03  6.42062E+03  1.65210E+03  9.01802E+03 -5.23391E+03  8.62636E+03
 -7.07021E+03  2.67379E+03 -3.75264E+03 -6.01012E+02  1.17526E+03 -1.98172E+03  4.78220E+03 -6.76490E+02
  4.47240E+03  3.36220E+03  8.46978E+02  6.36540E+03 -4.39349E+03  6.10334E+03 -8.39338E+03  1.57284E+03
 -5.03029E+03 -3.79395E+03  2.86099E+02 -7.04508E+03  3.80894E+03 -2.91930E+03  3.11031E+03  9.35821E+02
  6.48328E+02  3.95017E+03 -3.94324E+03  5.13213E+03 -5.57987E+03  2.49984E+03 -4.68892E+03 -1.65761E+03
 -2.66529E+03 -5.87751E+03  1.64765E+03 -7.34636E+03  6.22947E+03 -4.52252E+03  6.63718E+03  1.10529E+03
  4.72792E+03  5.53012E+03  2.85634E+02  7.29858E+03 -4.56550E+03  4.36489E+03 -5.76763E+03 -2.29768E+02
 -5.85354E+03 -4.82042E+03 -1.41573E+03 -5.39340E+03  2.29449E+03 -5.08700E+03  2.88435E+03 -3.07797E+03
  2.98405E+03  2.80869E+02 -2.27948E+01  1.56463E+03  5.98366E+02 -8.02072E+02  2.04108E+02 -1.88695E+03
  4.24576E+03 -9.90820E+02  5.64687E+03  8.59646E+02  5.26844E+03  3.27723E+03  5.57473E+03  7.66413E+03
 -1.52416E+03  9.02225E+03 -8.32129E+03  6.76970E+03 -1.08662E+04  1.64392E+03 -7.97064E+03 -2.95734E+03
 -4.92464E+03 -6.76547E+03 -8.55113E+02 -5.45521E+03  2.47880E+03 -2.72567E+03  1.61881E+03 -2.01984E+03
  1.00813E+03 -1.51910E+03  2.08821E+03 -2.58088E+03  3.62305E+03 -1.37420E+03  3.69560E+03  3.75750E+02
  5.32193E+03  1.21961E+03  1.82683E+03  3.77608E+03 -1.32455E+03  3.50986E+03 -4.66760E+03  2.84865E+03
 -5.16043E+03 -1.06697E+03 -1.97613E+03 -3.69327E+03  3.95080E+02 -5.38245E+03  3.69160E+03 -5.92710E+03
  5.11370E+03 -3.89729E+03  6.84358E+03  4.15596E+02  4.69877E+03  4.34732E+03  1.20045E+03  6.44573E+03
 -1.92817E+03  5.97337E+03 -3.50829E+03  2.14877E+03 -1.51368E+03 -1.04115E+03 -7.34504E+02 -7.85652E+02
 -6.76647E+02  6.85265E+02 -1.51165E+03  1.91780E+03 -2.22080E+03  1.09950E+03 -3.95634E+03 -4.01098E+02
 -1.50315E+03 -4.15806E+03  7.43792E+02 -5.00089E+03  2.89721E+03 -4.31305E+03  3.69187E+03 -8.88313E+02
  4.52873E+03  2.19986E+03  1.98850E+03  4.04117E+03 -6.08846E+02  4.67568E+03 -2.77989E+03  3.07878E+03
 -4.24950E+03  1.11152E+03 -3.63490E+03 -2.70093E+03 -3.30724E+02 -3.45643E+03  1.22041E+03 -3.26108E+03
  2.67298E+03 -1.47116E+03  1.90994E+03  9.49252E+02  3.62445E+02  1.58992E+03  8.48736E+02  6.69277E+02
  1.70446E+03  1.37408E+02  8.90216E+02  8.64180E+02  5.52825E+02  2.65505E+03  1.24755E+03  1.68074E+03
 -1.25773E+03  2.93407E+03 -2.64788E+03  4.40116E+03 -3.28133E+03  1.53993E+03 -4.43338E+03 -5.09396E+02
 -1.34435E+03 -3.85537E+03  7.67538E+02 -5.71916E+03  2.37454E+03 -3.58637E+03  3.34626E+03 -7.41065E+02
  3.16002E+03  1.91937E+03 -1.37155E+02  2.73848E+03 -5.80716E+02  8.62956E+02 -1.06340E+03 -1.26512E+02
 -7.51175E+02 -1.67593E+03  1.30364E+03 -1.79783E+03  1.43812E+03 -1.31105E+03  1.22787E+03  1.20234E+03
  7.70304E+02 -2.01255E+01  9.11013E+02 -5.29832E+02 -1.43845E+02  9.99058E+02  1.34454E+03 -9.56934E+02
 -1.51742E+02 -6.26298E+01  1.76999E+03  1.16156E+03  5.46381E+02  2.53567E+03 -4.96766E+02  2.72192E+03
 -1.42259E+03  1.64403E+03 -1.84969E+03  1.57527E+02 -2.43740E+03 -5.16430E+02 -3.64482E+01 -1.62248E+03
 -4.03347E+01 -1.16593E+03  1.03204E+03 -9.08802E+02  3.33705E+02  1.21266E+03 -7.20434E+02  1.30598E+03
 -1.19257E+03  1.41239E+02 -1.72079E+03 -1.66923E+03 -6.08041E+02 -2.39278E+03  1.37489E+02 -1.21772E+03
  5.38401E+02 -9.35257E+02  8.50140E+02 -2.56641E+01  1.05501E+03 -2.43247E+02  5.81897E+01  1.01211E+03
 -4.11391E+02  5.38124E+02 -1.13062E+03 -5.04276E+02  2.15870E+02 -6.15116E+02  1.87216E+03 -1.11330E+03
  8.94431E+02 -4.72022E-01  3.03382E+03  9.79631E+02  4.89201E+02  1.65391E+03  2.06925E+02  2.17898E+03
 -1.47211E+03  3.50232E+02 -1.95496E+03 -5.25145E+02 -7.00072E+02 -1.66946E+03  4.36731E+02 -4.65955E+02
  2.19161E+03 -7.28945E+02  8.96279E+02  1.13558E+03  3.27866E+02  1.13359E+03  1.86808E+02  1.19613E+03
 -2.87168E+02  1.72232E+03 -4.44892E+02  3.99119E+02  6.27511E+01  6.37919E+02 -9.97239E+02  6.51993E+02
 -3.15893E+02  1.18744E+03 -1.49528E+03  3.74650E+02 -1.15895E+03  5.41595E+02 -2.86369E+03 -1.12424E+03
 -1.42643E+03 -2.54211E+03  7.62141E+02 -2.92171E+03  8.38155E+02 -2.56498E+03  3.09338E+03 -7.06404E+02
  2.60186E+03  4.01373E+02  1.14850E+03  1.54105E+03 -2.89557E+02  1.34748E+03 -4.71595E+02  1.71091E+03
 -9.77500E+02  1.07529E+03 -6.93700E+02 -1.93924E+02 -8.70767E+02  2.97355E+02 -7.56452E+02  2.56489E+02
 -1.05807E+03 -3.50266E+02 -5.11780E+02  3.70707E+02  2.03068E+02 -9.90199E+02 -7.20037E+02 -7.08401E+02
  1.68157E+03 -1.11182E+03  2.48471E+02  1.04933E+02  1.23126E+03  9.88703E+02 -7.27042E+02  1.67984E+03
 -6.72411E+02  2.41275E+03 -1.95737E+03  1.19153E+03 -1.67370E+03 -1.72547E+02 -1.82390E+03 -1.40786E+03
 -1.09163E+03 -1.53220E+03  5.53125E+01 -1.49573E+03  9.24602E+02 -5.19677E+02  1.07915E+03  3.13434E+02
  4.34155E+02  4.82215E+02  5.80406E+02  3.49825E+02 -3.27054E+02  1.82026E+02 -3.08747E+01  2.07392E+02
  5.71457E+02  4.23943E+02  5.36456E+02  6.64670E+02  2.61196E+02  7.47930E+02  5.30557E+02  5.96713E+02
 -2.20034E+02  8.24464E+02 -8.26570E+02  2.30660E+01 -1.37255E+03 -7.15577E+02 -2.27604E+02 -1.24662E+03
  1.08207E+03 -6.81023E+02  1.19462E+03  2.44654E+02  1.25046E+03 -5.23930E+02  8.42613E+02  1.38198E+03
  4.42669E+01  5.06943E+02 -3.76801E+02  9.62034E+02 -6.71358E+02  5.37315E+02 -1.85051E+02  2.14044E+02
 -2.85578E+02  2.47546E+01 -4.56528E+02  2.82556E+02 -3.43902E+02  9.02936E+01 -6.99315E+02 -5.21194E+02
 -8.18537E+02 -4.88377E+02 -4.26578E+02 -1.13161E+03  1.06076E+03 -1.80505E+03  7.34396E+02 -9.76943E+00
  4.28859E+02  5.82575E+01 -1.51072E+02  9.29081E+02  9.61530E+01  8.52835E+02 -7.59682E+02 -1.30516E+02
