 $NMID ID='MM_0lb_SNR400_11hz_g50_57.RAW', FMTDAT='(8E13.5)'
 TRAMP=1., VOLUME=1. $END
  3.09920E+05  8.42722E+02  3.37271E+05  2.50693E+05  8.49935E+04  3.38177E+05 -1.32216E+05  2.51776E+05
 -1.90525E+05  8.37199E+04 -1.12260E+05 -3.19297E+04  7.60450E+02 -5.05325E+04  5.37720E+04 -1.88093E+02
  3.45081E+04  5.31473E+04 -1.71205E+04  7.65579E+04 -6.06907E+04  6.47572E+04 -8.46053E+04  3.25978E+04
 -8.20979E+04 -1.20016E+04 -5.76464E+04 -5.21768E+04 -1.53867E+04 -7.06967E+04  2.78056E+04 -4.66272E+04
  4.08574E+04  4.13139E+03  1.66151E+04  4.83734E+04 -3.50556E+04  4.72117E+04 -6.79518E+04 -7.00344E+02
 -5.40248E+04 -5.73209E+04 -7.07536E+03 -7.82462E+04  3.38341E+04 -5.59356E+04  4.96144E+04 -1.78462E+04
  4.44156E+04  1.11940E+04  3.27552E+04  2.60788E+04  1.57635E+04  3.01573E+04 -6.64675E+03  2.78876E+04
 -2.25406E+04  1.23893E+04 -1.82034E+04 -5.18870E+03  7.40311E+03 -7.91738E+03  2.19853E+04  1.29774E+04
  7.10865E+03  3.65374E+04 -3.32130E+04  3.54545E+04 -6.48280E+04  2.16152E+03 -5.81034E+04 -4.35721E+04
 -1.28264E+04 -6.51342E+04  4.10040E+04 -4.65311E+04  5.97169E+04 -2.12458E+03  3.60060E+04  3.32186E+04
 -5.39835E+03  3.85682E+04 -3.11878E+04  1.80792E+04 -3.22983E+04 -4.24265E+03 -1.81834E+04 -1.24019E+04
 -9.26195E+03 -1.40373E+04 -7.55781E+02 -1.87968E+04  8.14213E+03 -2.32410E+04  1.57440E+04 -1.32008E+04
  1.08952E+04  5.93628E+03 -9.82039E+03  1.26530E+04 -2.31750E+04 -5.06155E+03 -8.80619E+03 -3.60349E+04
  2.39633E+04 -4.53473E+04  4.95826E+04 -2.04542E+04  4.76118E+04  2.02454E+04  1.61440E+04  4.66500E+04
 -1.60315E+04  3.46871E+04 -2.67064E+04  2.55573E+03 -1.11498E+04 -2.92766E+04  2.10669E+04 -3.57730E+04
  4.29450E+04 -1.02478E+04  3.87228E+04  2.39608E+04  2.00817E+04  4.91783E+04 -8.29675E+03  5.37117E+04
 -3.42327E+04  3.62319E+04 -4.53040E+04  1.01482E+04 -4.60280E+04 -1.79895E+04 -2.50295E+04 -3.98326E+04
  8.11559E+03 -4.01899E+04  3.33817E+04 -1.63834E+04  3.09360E+04  1.07201E+04  5.07781E+03  1.98858E+04
 -1.36815E+04  9.31835E+03 -1.04017E+04 -8.48564E+03  5.38170E+03 -1.08730E+04  1.79957E+04  5.30391E+03
  1.37590E+04  2.19305E+04 -5.58782E+03  2.67353E+04 -2.28573E+04  1.29369E+04 -3.06348E+04 -3.90128E+03
 -2.29648E+04 -1.74312E+04 -1.00979E+04 -2.27299E+04  4.62228E+03 -2.25676E+04  1.82201E+04 -2.10610E+04
  3.00262E+04 -1.39114E+04  3.53943E+04  3.55995E+03  2.56233E+04  2.26116E+04  4.00462E+03  3.88859E+04
 -1.89307E+04  3.20438E+04 -2.90595E+04  1.08711E+04 -2.18251E+04 -1.06830E+04 -4.85707E+03 -1.36088E+04
  4.52728E+02 -2.13534E+03 -6.66006E+03  7.53625E+03 -1.80595E+04  4.82225E+03 -1.86131E+04 -8.29222E+03
 -1.10963E+04 -2.14034E+04  5.90280E+03 -2.59990E+04  1.78557E+04 -1.80585E+04  2.07849E+04 -2.42650E+03
  1.25220E+04  1.44680E+04 -7.10064E+02  2.14264E+04 -1.54340E+04  1.22617E+04 -2.16175E+04 -4.59950E+03
 -1.59505E+04 -1.93871E+04 -2.03170E+03 -2.62097E+04  1.20980E+04 -2.12331E+04  2.17756E+04 -1.08179E+04
  1.99925E+04  5.23170E+01  1.47394E+04  4.82642E+03  7.65097E+03  1.68748E+03  1.07514E+04 -2.48865E+03
  2.07476E+04  2.78219E+03  2.32869E+04  1.67062E+04  1.50661E+04  3.44383E+04 -2.21598E+03  3.92974E+04
 -2.29212E+04  3.28409E+04 -3.74142E+04  1.72268E+04 -4.04710E+04 -3.00887E+03 -3.27887E+04 -2.27967E+04
 -1.36864E+04 -3.33478E+04  1.18916E+04 -2.92567E+04  2.50102E+04 -1.43551E+04  2.20879E+04  6.01518E+03
  7.85672E+03  1.71231E+04 -1.08756E+04  1.44840E+04 -1.89046E+04  2.41340E+03 -1.45705E+04 -1.16315E+04
 -1.98122E+02 -1.79207E+04  8.91361E+03 -1.28812E+04  1.20781E+04 -1.00208E+03  3.03261E+03  8.14941E+03
 -8.31562E+03  3.17852E+03 -7.70106E+03 -6.89043E+03 -1.94040E+03 -1.67085E+04  1.06234E+04 -1.70479E+04
  2.02247E+04 -9.78659E+03  2.28814E+04  3.57529E+03  1.97836E+04  1.59790E+04  8.38487E+03  2.52157E+04
 -4.28825E+03  2.75359E+04 -1.76032E+04  1.74533E+04 -1.98280E+04  3.89405E+03 -1.41986E+04 -4.64505E+03
 -6.40928E+03 -6.19916E+03 -7.00335E+02  6.91516E+02 -3.52328E+03  3.35821E+03 -6.40548E+03  4.69353E+03
 -1.26450E+04 -1.90851E+02 -1.37515E+04 -1.03121E+04 -5.05736E+03 -1.72913E+04  6.03869E+03 -1.35408E+04
  1.06731E+04 -5.60161E+03  8.34324E+03  3.34098E+03  8.83614E+02  5.65085E+03 -6.48121E+03  6.95207E+00
 -6.36723E+03 -8.98661E+03 -1.30234E+03 -1.37628E+04  8.44244E+03 -1.39972E+04  1.71621E+04 -6.79970E+03
  2.02992E+04  1.80787E+03  1.50609E+04  1.23130E+04  2.48064E+03  1.65405E+04 -8.56143E+03  1.27398E+04
 -1.10808E+04  3.15398E+03 -5.85748E+03 -2.22083E+03  2.27625E+03 -4.04342E+03  6.88226E+03 -1.05747E+03
  6.78069E+03  5.76878E+03  7.27881E+02  1.12736E+04 -7.86614E+03  1.05053E+04 -1.28488E+04  2.78735E+03
 -9.48780E+03 -7.28347E+03 -2.87307E+02 -1.20505E+04  7.50902E+03 -6.71226E+03  7.28244E+03  2.50507E+03
  2.22515E+03  8.40969E+03 -7.32930E+03  1.01989E+04 -1.10843E+04  4.52712E+03 -1.16488E+04 -3.52353E+03
 -6.42730E+03 -1.31868E+04  2.92106E+03 -1.44695E+04  1.32465E+04 -9.27847E+03  1.45628E+04  2.28934E+03
  8.30971E+03  1.06036E+04 -5.24020E+02  1.40560E+04 -1.01296E+04  7.08329E+03 -1.06234E+04 -9.33569E+02
 -9.22250E+03 -9.04483E+03 -1.93745E+03 -1.04433E+04  5.55636E+03 -7.81838E+03  6.74032E+03 -3.64767E+03
  4.66596E+03  1.77877E+03 -6.48119E+02  1.86312E+03 -7.37393E+02 -2.27800E+03  2.26259E+03 -6.52965E+03
  9.29452E+03 -3.75359E+03  1.26562E+04  1.87180E+03  1.28534E+04  9.02375E+03  8.46002E+03  1.73212E+04
 -4.20452E+03  1.98045E+04 -1.61766E+04  1.41409E+04 -2.14984E+04  3.00424E+03 -1.72817E+04 -6.84269E+03
 -8.48608E+03 -1.40297E+04 -5.29639E+02 -1.20251E+04  4.33319E+03 -6.57222E+03  4.26377E+03 -4.36074E+03
  2.63553E+03 -3.40866E+03  3.56719E+03 -3.17632E+03  4.51987E+03 -3.89112E+03  7.70595E+03 -1.00994E+03
  8.93147E+03  2.43297E+03  4.78032E+03  7.97175E+03 -1.55858E+03  9.14237E+03 -9.78989E+03  7.11094E+03
 -1.22389E+04 -1.86507E+03 -7.35937E+03 -8.07416E+03 -6.31807E+02 -1.24178E+04  7.03847E+03 -1.28401E+04
  1.33082E+04 -6.20868E+03  1.62602E+04  1.96569E+03  1.06368E+04  1.11568E+04  1.97833E+03  1.47407E+04
 -5.84584E+03  1.19739E+04 -7.92758E+03  3.52461E+03 -5.58589E+03 -1.64712E+03 -2.36850E+03 -2.08562E+03
 -1.20972E+03  4.26545E+02 -1.69933E+03  2.48826E+03 -4.92933E+03  2.23022E+03 -8.51211E+03 -1.46737E+03
 -5.38517E+03 -8.39368E+03 -5.76506E+02 -1.16833E+04  7.54770E+03 -1.12532E+04  1.11062E+04 -2.64146E+03
  1.13903E+04  5.79987E+03  5.45706E+03  9.95290E+03 -1.71747E+03  1.17327E+04 -8.62814E+03  6.93438E+03
 -1.14371E+04  1.35118E+03 -9.13820E+03 -7.27329E+03 -7.15959E+02 -9.08611E+03  4.99175E+03 -6.43704E+03
  7.33121E+03 -2.31843E+03  5.14764E+03  2.16570E+03  1.64894E+03  3.16999E+03  1.21205E+03  1.77806E+03
  1.99258E+03  8.46619E+02  2.94362E+03  1.27140E+03  3.62742E+03  4.85913E+03  2.44788E+03  5.73877E+03
 -2.37802E+03  8.91837E+03 -8.00082E+03  9.67894E+03 -1.19520E+04  2.41674E+03 -1.14257E+04 -4.59858E+03
 -5.67286E+03 -1.06997E+04  1.60481E+03 -1.31769E+04  7.48554E+03 -8.16750E+03  9.63994E+03 -1.57885E+03
  6.68560E+03  4.69827E+03  1.62859E+03  6.80019E+03 -3.26377E+03  3.80406E+03 -5.14387E+03 -2.83427E+02
 -2.43332E+03 -5.04119E+03  2.47197E+03 -5.16403E+03  4.41915E+03 -2.47548E+03  4.59124E+03  1.27824E+03
  2.89144E+03  2.10917E+03  9.11830E+02  2.06505E+03 -6.76643E+02  1.63468E+03  1.35571E+03 -1.84281E+02
  1.81451E+03 -6.09845E+02  5.20927E+03  1.22925E+03  2.39584E+03  6.03686E+03 -1.14408E+03  8.23356E+03
 -5.28492E+03  5.08606E+03 -7.62108E+03  2.32520E+03 -6.35650E+03 -2.41671E+03 -2.07643E+03 -4.37592E+03
  7.52621E+02 -4.76663E+03  3.12311E+03 -1.84379E+03  1.83501E+03  2.83054E+03 -1.92061E+03  3.37180E+03
 -4.39618E+03  2.15125E+03 -4.83800E+03 -2.20646E+03 -2.98118E+03 -6.97370E+03  8.60950E+02 -6.78031E+03
  3.25303E+03 -3.35693E+03  3.74536E+03  3.21206E+02  3.40913E+03  1.14052E+03  5.50384E+01  2.94591E+03
 -2.39281E+03  1.37994E+03 -2.89829E+03 -1.85305E+03  3.16995E+02 -4.77644E+03  5.05871E+03 -3.69852E+03
  6.75939E+03  9.02244E+02  6.77682E+03  4.46033E+03  2.02833E+03  7.20319E+03 -2.52810E+03  7.31194E+03
 -5.65539E+03  2.65025E+03 -5.57393E+03 -1.11811E+03 -2.98149E+03 -4.67599E+03  1.45092E+03 -4.14092E+03
  4.64120E+03 -2.87227E+03  3.82381E+03  2.11215E+03  1.64255E+03  4.36376E+03  2.77477E+02  4.31935E+03
 -2.30686E+03  2.25008E+03 -1.90958E+03  2.75486E+02 -1.33296E+03  9.71589E+02 -1.61335E+03  9.58083E+02
 -2.05931E+03  3.01132E+03 -5.06780E+03  2.08030E+03 -7.48353E+03  7.03913E+02 -7.55978E+03 -3.93417E+03
 -4.48207E+03 -9.90343E+03  1.93686E+03 -1.09510E+04  7.32927E+03 -9.03852E+03  9.45369E+03 -3.70974E+03
  9.74182E+03  1.46519E+03  5.20998E+03  6.61482E+03 -1.46144E+02  6.95305E+03 -4.20231E+03  5.93990E+03
 -4.17981E+03  2.26676E+03 -2.48606E+03 -9.76596E+02 -1.41912E+03 -7.59081E+02 -6.86330E+02  5.89978E+02
 -1.31267E+03 -1.30687E+01 -1.34126E+03 -2.01519E+02 -2.72779E+02 -2.24992E+03 -1.57100E+02 -2.44789E+03
  3.27331E+03 -2.12337E+03  4.70325E+03  2.57552E+02  4.98996E+03  4.08981E+03  9.13155E+02  6.69442E+03
 -3.06702E+03  8.85957E+03 -7.86201E+03  5.32085E+03 -9.62404E+03 -1.16009E+03 -6.41689E+03 -5.24729E+03
 -2.39300E+03 -6.80855E+03  2.44725E+03 -7.26414E+03  5.04012E+03 -4.73681E+03  4.39633E+03  6.18362E+01
  2.35185E+03  1.68808E+03  2.72867E+02  2.38990E+03 -1.26034E+03 -7.49835E+02  2.39130E+02 -9.82753E+02
  1.60054E+03 -9.84024E+02  2.71868E+03  9.43184E+02  1.91938E+03  2.21910E+03  1.88744E+02  2.90883E+03
 -3.61985E+03  3.12466E+03 -4.50638E+03  4.63294E+02 -4.83263E+03 -3.39035E+03 -8.75806E+02 -6.50309E+03
  3.18264E+03 -5.63063E+03  4.82428E+03 -1.34138E+03  5.39089E+03  6.22719E+02  3.09774E+03  4.43299E+03
 -1.12050E+02  4.32025E+03 -1.54854E+03  3.94631E+03 -3.35279E+03  1.80054E+03 -2.63080E+03  1.13251E+02
 -1.34659E+03 -6.56568E+01 -1.31150E+03  5.28058E+02 -2.02258E+03  1.12190E+03 -3.74307E+03 -1.31900E+03
 -4.19395E+03 -2.69054E+03 -1.52748E+03 -4.86079E+03  2.03038E+03 -4.11696E+03  4.42992E+03 -2.24113E+03
  4.76902E+03  2.38079E+01  1.93025E+03  2.99197E+03 -3.06391E+02  5.19375E+03 -3.39312E+03  3.98385E+03
