 $NMID ID='MM_0lb_SNR400_16hz_g60_89.RAW', FMTDAT='(8E13.5)'
 TRAMP=1., VOLUME=1. $END
  3.09497E+05  5.40469E+01  3.37421E+05  2.51085E+05  8.49569E+04  3.37722E+05 -1.32454E+05  2.51037E+05
 -1.90198E+05  8.30345E+04 -1.11907E+05 -3.22134E+04  9.92788E+02 -5.12877E+04  5.36325E+04 -6.03511E+02
  3.52263E+04  5.28225E+04 -1.64105E+04  7.55073E+04 -6.12156E+04  6.28269E+04 -8.41409E+04  3.17123E+04
 -8.12577E+04 -1.17031E+04 -5.77890E+04 -5.10798E+04 -1.53508E+04 -6.97408E+04  2.71805E+04 -4.66482E+04
  3.98536E+04  3.76980E+03  1.59470E+04  4.76417E+04 -3.43522E+04  4.71345E+04 -6.66446E+04 -1.78546E+02
 -5.32049E+04 -5.66822E+04 -6.76475E+03 -7.73897E+04  3.43952E+04 -5.51742E+04  4.81577E+04 -1.69331E+04
  4.34289E+04  1.16827E+04  3.24721E+04  2.54956E+04  1.58578E+04  2.95112E+04 -5.17846E+03  2.74502E+04
 -2.21952E+04  1.18070E+04 -1.89594E+04 -4.85285E+03  5.90263E+03 -7.85639E+03  2.23244E+04  1.24204E+04
  7.08047E+03  3.55527E+04 -3.12736E+04  3.50419E+04 -6.41081E+04  2.02124E+03 -5.73040E+04 -4.30543E+04
 -1.28177E+04 -6.33254E+04  3.98553E+04 -4.53693E+04  5.83292E+04 -2.50036E+03  3.44597E+04  3.26161E+04
 -5.81877E+03  3.55607E+04 -2.98276E+04  1.60646E+04 -3.03407E+04 -4.77848E+03 -1.69385E+04 -1.12342E+04
 -8.41731E+03 -1.32684E+04 -6.60409E+02 -1.81439E+04  7.50901E+03 -2.28614E+04  1.54729E+04 -1.33472E+04
  1.08459E+04  5.53328E+03 -8.05305E+03  1.31589E+04 -2.17911E+04 -4.64035E+03 -7.89560E+03 -3.39317E+04
  2.31820E+04 -4.37563E+04  4.83198E+04 -1.89983E+04  4.48974E+04  1.90994E+04  1.53566E+04  4.42912E+04
 -1.60636E+04  3.32189E+04 -2.54203E+04  2.12865E+03 -1.00147E+04 -2.74622E+04  2.11126E+04 -3.41530E+04
  4.14129E+04 -9.32311E+03  3.59745E+04  2.40932E+04  1.81515E+04  4.64774E+04 -7.91922E+03  5.02202E+04
 -3.18616E+04  3.32621E+04 -4.22679E+04  9.42335E+03 -4.32888E+04 -1.68294E+04 -2.37302E+04 -3.80327E+04
  7.47433E+03 -3.76951E+04  3.14913E+04 -1.45967E+04  2.90208E+04  1.04285E+04  3.67407E+03  1.91317E+04
 -1.32751E+04  7.33528E+03 -1.05044E+04 -8.10769E+03  5.51523E+03 -1.02998E+04  1.79785E+04  5.89913E+03
  1.29974E+04  2.16910E+04 -6.55937E+03  2.50134E+04 -2.23419E+04  1.13000E+04 -2.73867E+04 -4.99428E+03
 -2.03739E+04 -1.71659E+04 -8.63699E+03 -2.00568E+04  3.48203E+03 -1.92599E+04  1.57569E+04 -1.86697E+04
  2.52593E+04 -1.25270E+04  3.18104E+04  2.91094E+03  2.37284E+04  2.00143E+04  3.79690E+03  3.54106E+04
 -1.80335E+04  3.02543E+04 -2.75724E+04  1.06482E+04 -2.10536E+04 -1.03802E+04 -4.28819E+03 -1.34079E+04
  1.73207E+03 -2.75356E+03 -4.98426E+03  6.74013E+03 -1.54595E+04  4.77636E+03 -1.64693E+04 -7.01353E+03
 -9.72561E+03 -1.85510E+04  5.20457E+03 -2.22642E+04  1.50731E+04 -1.57715E+04  1.81598E+04 -1.95330E+03
  1.11295E+04  1.28810E+04 -1.37952E+03  1.95047E+04 -1.25247E+04  1.00273E+04 -1.81423E+04 -4.09431E+03
 -1.35907E+04 -1.72383E+04 -1.27229E+03 -2.18743E+04  1.04266E+04 -1.83228E+04  1.90621E+04 -9.62711E+03
  1.71970E+04 -4.11897E+00  1.20555E+04  4.28898E+03  5.99522E+03  9.48449E+02  1.00188E+04 -1.86097E+03
  1.62840E+04  2.66496E+03  1.85841E+04  1.48888E+04  1.24581E+04  2.96997E+04 -2.81708E+03  3.34072E+04
 -1.95489E+04  2.65815E+04 -3.06933E+04  1.37093E+04 -3.17774E+04 -2.18770E+03 -2.63512E+04 -1.86038E+04
 -1.15352E+04 -2.63096E+04  9.17438E+03 -2.35602E+04  2.04211E+04 -1.22913E+04  1.89274E+04  4.88998E+03
  7.56738E+03  1.37551E+04 -9.40812E+03  1.24191E+04 -1.56859E+04  2.82154E+03 -1.20550E+04 -9.16410E+03
 -2.60941E+02 -1.42966E+04  8.01140E+03 -1.06891E+04  9.71002E+03 -1.52572E+03  2.29333E+03  6.07162E+03
 -6.32496E+03  2.20872E+03 -5.29722E+03 -5.62206E+03 -5.15054E+02 -1.35913E+04  9.45029E+03 -1.36965E+04
  1.51862E+04 -6.80300E+03  1.66492E+04  2.54939E+03  1.43962E+04  1.26296E+04  7.01507E+03  1.88493E+04
 -2.94282E+03  2.12370E+04 -1.36869E+04  1.31771E+04 -1.54383E+04  3.12561E+03 -1.09977E+04 -3.01734E+03
 -4.81853E+03 -5.46554E+03 -1.04605E+03  8.00651E+02 -2.28450E+03  2.42934E+03 -4.47866E+03  4.56851E+03
 -1.03990E+04 -5.48203E+02 -1.12204E+04 -9.18019E+03 -3.61772E+03 -1.40937E+04  4.95316E+03 -1.07806E+04
  9.33528E+03 -3.85745E+03  6.65808E+03  2.51176E+03  2.90046E+02  4.15448E+03 -5.09683E+03 -1.92586E+01
 -5.18822E+03 -7.00572E+03 -7.01954E+02 -9.74631E+03  6.02842E+03 -1.08116E+04  1.31577E+04 -5.43503E+03
  1.53586E+04  1.52623E+03  1.13447E+04  8.85586E+03  2.24865E+03  1.13494E+04 -5.78169E+03  1.04448E+04
 -8.46170E+03  3.36432E+03 -4.05592E+03 -2.57613E+03  8.40831E+02 -1.99345E+03  5.51785E+03 -8.88487E+02
  5.10743E+03  4.67999E+03  1.35213E+03  8.38583E+03 -5.90676E+03  8.07771E+03 -1.03743E+04  2.60636E+03
 -6.66054E+03 -4.31520E+03  5.54185E+02 -9.04537E+03  5.01761E+03 -4.65411E+03  5.65004E+03  1.77795E+03
  1.24406E+03  5.91123E+03 -4.78760E+03  6.43116E+03 -7.21037E+03  3.36986E+03 -7.25569E+03 -1.94525E+03
 -4.13356E+03 -8.33054E+03  1.57163E+03 -1.03724E+04  8.90317E+03 -6.13195E+03  9.41888E+03  1.43751E+03
  6.76289E+03  7.19124E+03 -1.58142E+02  9.50161E+03 -7.36720E+03  5.54208E+03 -7.36718E+03 -8.30725E+02
 -7.54180E+03 -6.71989E+03 -1.06407E+03 -7.39289E+03  3.79938E+03 -5.89219E+03  4.23105E+03 -2.88057E+03
  3.32540E+03  7.45115E+02 -6.96598E+01  1.01371E+03  1.21499E+02 -1.37179E+03  1.02529E+03 -3.47797E+03
  6.03464E+03 -1.93915E+03  8.14542E+03  8.43980E+02  7.90459E+03  5.04229E+03  7.32471E+03  1.01811E+04
 -2.24256E+03  1.22221E+04 -1.06696E+04  9.31011E+03 -1.42508E+04  1.56256E+03 -1.06515E+04 -4.31841E+03
 -5.64140E+03 -8.46406E+03 -4.25109E+02 -7.00364E+03  2.82049E+03 -3.95706E+03  2.46856E+03 -3.04733E+03
  2.02526E+03 -1.51110E+03  2.28472E+03 -2.39622E+03  3.75099E+03 -2.09304E+03  4.32157E+03 -1.37017E+02
  6.57558E+03  1.32032E+03  1.97381E+03  4.77463E+03 -2.16103E+03  4.72997E+03 -6.12849E+03  4.21979E+03
 -7.37540E+03 -1.46648E+03 -3.52349E+03 -5.28001E+03  1.28674E+02 -7.66065E+03  4.39665E+03 -8.05972E+03
  7.55674E+03 -4.30115E+03  9.77023E+03  4.79379E+02  7.09081E+03  6.93480E+03  1.19513E+03  8.79136E+03
 -3.70137E+03  8.12883E+03 -4.79346E+03  2.54508E+03 -3.34374E+03 -1.46372E+03 -1.01118E+03 -9.53603E+02
 -1.05034E+03  4.46986E+01 -1.39676E+03  2.12412E+03 -3.21413E+03  1.25205E+03 -5.98365E+03 -6.02827E+02
 -3.68876E+03 -5.64803E+03  6.47097E+02 -7.50904E+03  4.16377E+03 -6.24932E+03  5.40629E+03 -1.67247E+03
  6.72355E+03  3.28506E+03  3.19640E+03  5.11164E+03 -1.58077E+03  7.15620E+03 -4.46139E+03  4.15846E+03
 -5.73205E+03  5.77274E+02 -5.11284E+03 -4.16535E+03 -1.35365E+02 -4.88186E+03  2.67750E+03 -4.04515E+03
  4.14613E+03 -1.51710E+03  2.22837E+03  9.72598E+02  9.11902E+02  2.00676E+03  8.27962E+02  1.40568E+03
  2.01295E+03  6.61589E+02  1.61818E+03  6.80552E+02  1.49254E+03  2.89514E+03  1.90304E+03  2.89457E+03
 -1.47707E+03  4.57704E+03 -4.38218E+03  5.39116E+03 -5.19869E+03  1.93977E+03 -6.20804E+03 -1.60808E+03
 -2.37359E+03 -5.64591E+03  1.11390E+03 -7.05945E+03  3.47741E+03 -3.83529E+03  4.89914E+03 -5.55597E+02
  3.82484E+03  2.60664E+03  9.82529E+02  3.11685E+03 -1.62880E+03  1.95128E+03 -2.44460E+03 -1.95178E+02
 -1.03063E+03 -2.01307E+03  1.45124E+03 -2.30219E+03  2.38181E+03 -1.36136E+03  2.46882E+03  1.03697E+03
  1.11556E+03  9.50093E+02  9.52913E+02  5.75898E+02 -5.18919E+02  4.78740E+02  1.83645E+03 -3.67197E+02
 -1.67177E+02  1.57337E+02  3.04828E+03  1.22710E+03  6.91528E+02  3.24908E+03 -7.18116E+02  4.22011E+03
 -3.44638E+03  2.34519E+03 -3.23890E+03  4.87629E+02 -3.22382E+03 -1.64885E+03 -1.10401E+03 -1.85835E+03
  3.25801E+02 -1.93995E+03  1.07354E+03 -1.21138E+03  1.44969E+03  1.55367E+03 -1.26220E+03  1.96781E+03
 -3.04440E+03  3.86496E+02 -2.23934E+03 -1.81939E+03 -1.35823E+03 -2.66870E+03  5.26095E+02 -2.33258E+03
  7.52089E+02 -1.31586E+03  1.77043E+03  6.69027E+02  1.57683E+03  4.54504E+02  2.39999E+02  1.42268E+03
 -1.10831E+03 -3.99848E+02 -1.37475E+03 -9.01044E+02  8.06117E+02 -1.63268E+03  2.30536E+03 -1.48019E+03
  2.18803E+03  4.95767E+02  3.97287E+03  1.67979E+03  1.70155E+03  2.80558E+03 -5.51053E+02  2.67676E+03
 -2.46098E+03  1.13906E+03 -2.79369E+03 -5.54751E+02 -1.33551E+03 -1.85796E+03  4.85718E+02 -1.89356E+03
  2.14536E+03 -8.79508E+02  1.58062E+03  1.07291E+03  7.99981E+02  1.83921E+03  9.39245E+01  1.73983E+03
 -8.68095E+02  1.06424E+03 -9.25821E+02 -1.05618E+02 -1.32335E+02  4.38446E+02 -8.99249E+02  7.32437E+02
 -5.71377E+02  1.22174E+03 -2.45869E+03  1.00914E+03 -3.45265E+03  4.45626E+01 -3.54445E+03 -1.60909E+03
 -1.69704E+03 -4.30966E+03  1.26822E+03 -4.77142E+03  2.61141E+03 -3.40924E+03  4.17405E+03 -2.39371E+03
  3.75392E+03  1.17082E+02  2.04058E+03  2.86413E+03  6.66891E+01  2.65647E+03 -1.23765E+03  2.40809E+03
 -1.44311E+03  1.62340E+03 -6.24228E+02 -3.77918E+02 -9.61841E+02 -3.35636E+02 -5.22758E+02 -3.92242E+02
 -1.90505E+03  3.54028E+02 -1.31646E+03  1.18879E+02  2.61699E+02 -1.12945E+03 -1.11566E+03 -6.51455E+02
  1.06476E+03 -3.90335E+02  1.09080E+03  4.45081E+02  2.35420E+03  1.09968E+03 -2.39638E+02  1.91139E+03
 -1.23749E+03  3.32458E+03 -2.73421E+03  2.42002E+03 -3.05978E+03  2.19410E+02 -2.14521E+03 -1.85487E+03
 -1.53216E+03 -2.68828E+03  7.13574E+02 -2.05300E+03  1.41627E+03 -1.57346E+03  1.46986E+03  9.26982E+02
  1.15245E+03  6.93124E+02 -3.87725E+02  6.37502E+02 -7.97177E+02 -7.84821E+02  1.01383E+01 -4.27793E+02
  8.54977E+02 -1.67691E+02  9.72007E+02  8.70570E+02  7.50319E+02  1.00456E+03  9.93739E+02  1.00243E+03
 -4.24685E+02  8.92940E+02 -1.32399E+03 -1.30640E+02 -1.16653E+03 -1.33066E+03  2.91333E+02 -1.98761E+03
  5.18161E+02 -1.29157E+03  1.48165E+03 -4.01849E+02  1.31517E+03  1.52551E+02  5.05559E+02  1.30697E+03
  3.18657E+02  9.39998E+02 -4.83739E+02  1.06145E+03 -2.59671E+02  7.30008E+02 -8.72847E+02  1.45475E+02
 -5.14791E+02  1.07135E+01 -5.92838E+02 -5.24180E+02 -9.06120E+02  4.33190E+02 -1.20450E+03  3.33876E+02
 -1.45554E+03 -5.51938E+02 -7.78135E+02 -1.28498E+03  7.65784E+02 -1.84388E+03  1.33353E+03 -7.05657E+02
  1.03959E+03  1.99998E+02 -2.40846E+01  6.19114E+02  3.75163E+02  1.46970E+03 -7.33260E+02  1.43080E+03
