 $NMID ID='MM_0lb_SNR400_18hz_g40_36.RAW', FMTDAT='(8E13.5)'
 TRAMP=1., VOLUME=1. $END
  3.09896E+05  4.73611E+02  3.37983E+05  2.50500E+05  8.47807E+04  3.37307E+05 -1.32839E+05  2.49859E+05
 -1.89416E+05  8.22939E+04 -1.11023E+05 -3.30692E+04  1.69120E+03 -5.00722E+04  5.43351E+04  1.04013E+01
  3.47664E+04  5.31111E+04 -1.70384E+04  7.51129E+04 -6.03379E+04  6.24179E+04 -8.27923E+04  3.15498E+04
 -7.90288E+04 -1.08473E+04 -5.63041E+04 -4.96337E+04 -1.51123E+04 -6.78849E+04  2.67145E+04 -4.45602E+04
  3.90729E+04  4.81552E+03  1.60096E+04  4.67499E+04 -3.36177E+04  4.62347E+04 -6.52724E+04 -3.07647E+02
 -5.15503E+04 -5.60363E+04 -6.63237E+03 -7.50272E+04  3.28950E+04 -5.26752E+04  4.62855E+04 -1.62048E+04
  4.15303E+04  1.08423E+04  3.09112E+04  2.44598E+04  1.58308E+04  2.77966E+04 -4.88735E+03  2.67783E+04
 -2.20623E+04  1.27292E+04 -1.90071E+04 -3.89135E+03  4.70219E+03 -7.32396E+03  2.13395E+04  1.11151E+04
  7.51092E+03  3.28231E+04 -3.04435E+04  3.38821E+04 -6.07857E+04  1.81818E+03 -5.49410E+04 -4.06323E+04
 -1.28049E+04 -6.02594E+04  3.74484E+04 -4.36089E+04  5.50870E+04 -2.14963E+03  3.14580E+04  2.98580E+04
 -6.40491E+03  3.26816E+04 -2.80340E+04  1.29811E+04 -2.73717E+04 -5.51289E+03 -1.43962E+04 -1.01354E+04
 -7.13993E+03 -1.11232E+04 -4.50773E+02 -1.62478E+04  6.73515E+03 -2.22951E+04  1.49821E+04 -1.38710E+04
  1.26444E+04  4.56989E+03 -5.79984E+03  1.29266E+04 -1.92425E+04 -2.31409E+03 -7.86325E+03 -3.03343E+04
  2.10327E+04 -4.00988E+04  4.43419E+04 -1.82957E+04  4.14295E+04  1.85475E+04  1.44405E+04  4.08730E+04
 -1.49511E+04  3.06009E+04 -2.37510E+04  9.19241E+02 -7.58677E+03 -2.60234E+04  2.02026E+04 -3.06562E+04
  3.75862E+04 -7.08655E+03  3.09225E+04  2.26950E+04  1.53241E+04  4.27237E+04 -7.81029E+03  4.46337E+04
 -2.78105E+04  2.96713E+04 -3.63819E+04  8.71544E+03 -3.82746E+04 -1.51863E+04 -2.09489E+04 -3.44267E+04
  6.74695E+03 -3.41979E+04  2.89854E+04 -1.29621E+04  2.67327E+04  1.09940E+04  3.27317E+03  1.75439E+04
 -1.28909E+04  7.12159E+03 -1.00832E+04 -7.81486E+03  6.12239E+03 -1.01946E+04  1.71301E+04  6.49156E+03
  1.23824E+04  2.12810E+04 -6.53584E+03  2.30444E+04 -2.16545E+04  9.09388E+03 -2.48283E+04 -6.81979E+03
 -1.63938E+04 -1.69526E+04 -5.32724E+03 -1.59425E+04  3.80907E+03 -1.41645E+04  1.19245E+04 -1.38342E+04
  2.07453E+04 -1.16843E+04  2.78286E+04  8.10583E+02  2.09514E+04  1.57423E+04  4.25503E+03  3.18591E+04
 -1.59154E+04  2.72105E+04 -2.53280E+04  9.31493E+03 -1.92047E+04 -1.04741E+04 -3.97337E+03 -1.41005E+04
  2.24743E+03 -4.48224E+03 -2.53077E+03  4.90820E+03 -1.31470E+04  5.05771E+03 -1.34592E+04 -4.79028E+03
 -8.65645E+03 -1.55426E+04  4.30810E+03 -1.90001E+04  1.23020E+04 -1.41911E+04  1.43765E+04 -1.31184E+03
  9.32000E+03  1.06252E+04 -3.84573E+02  1.60685E+04 -9.62139E+03  8.75615E+03 -1.46308E+04 -3.91306E+03
 -1.12841E+04 -1.42646E+04 -1.13771E+03 -1.84795E+04  8.48491E+03 -1.52961E+04  1.60034E+04 -7.14411E+03
  1.45324E+04  4.65265E+02  1.09315E+04  4.04650E+03  5.23754E+03  6.57249E+02  7.35400E+03 -1.60681E+03
  1.34826E+04  2.16725E+03  1.46715E+04  1.26335E+04  9.07630E+03  2.42445E+04 -2.80580E+03  2.65901E+04
 -1.55772E+04  1.99326E+04 -2.39819E+04  9.76136E+03 -2.50548E+04 -1.73085E+03 -2.14886E+04 -1.40985E+04
 -9.39829E+03 -2.01506E+04  6.64240E+03 -1.90843E+04  1.59856E+04 -1.09521E+04  1.61275E+04  3.48019E+03
  6.40266E+03  1.09517E+04 -7.17104E+03  1.04705E+04 -1.33185E+04  2.46256E+03 -1.03312E+04 -8.00044E+03
 -1.35702E+02 -1.20863E+04  5.89970E+03 -9.32975E+03  7.62278E+03 -1.11339E+03  1.60094E+03  5.24050E+03
 -5.43806E+03  1.48743E+03 -3.80208E+03 -4.28108E+03  7.72872E+02 -1.10006E+04  7.30726E+03 -1.00116E+04
  1.29262E+04 -4.56757E+03  1.17048E+04  2.85460E+03  1.02439E+04  8.71645E+03  5.09227E+03  1.39366E+04
 -1.65431E+03  1.54516E+04 -9.30636E+03  1.02208E+04 -1.13530E+04  2.91255E+03 -8.03819E+03 -1.75460E+03
 -4.61134E+03 -3.73403E+03 -1.22845E+03  1.47713E+03 -2.36706E+03  2.09074E+03 -3.55585E+03  3.13454E+03
 -7.96355E+03 -2.31394E+02 -8.40016E+03 -7.34279E+03 -3.51763E+03 -1.13311E+04  3.59548E+03 -8.30588E+03
  7.42171E+03 -3.36729E+03  5.01306E+03  1.89582E+03  6.45654E+02  3.07010E+03 -3.61334E+03  4.80325E+01
 -3.28028E+03 -5.28427E+03 -1.06583E+03 -6.78754E+03  3.54103E+03 -8.18817E+03  9.68368E+03 -3.82138E+03
  1.11716E+04  7.91240E+02  8.69461E+03  6.01447E+03  1.80691E+03  8.53079E+03 -4.74627E+03  8.22459E+03
 -6.81458E+03  3.13574E+03 -3.76985E+03 -1.01604E+03  7.95289E+02 -1.89663E+03  4.52385E+03 -7.99260E+02
  4.21177E+03  3.13737E+03  1.46452E+02  6.40593E+03 -4.36976E+03  6.15814E+03 -7.76633E+03  1.61896E+03
 -4.74605E+03 -3.51812E+03  1.36898E+02 -7.14279E+03  3.92454E+03 -2.60814E+03  3.83297E+03  1.36968E+03
  4.54784E+02  3.72770E+03 -3.89001E+03  4.55088E+03 -4.73547E+03  2.42039E+03 -4.51361E+03 -1.30871E+03
 -2.92526E+03 -5.76237E+03  1.57652E+03 -6.59208E+03  5.60225E+03 -5.18188E+03  6.50018E+03  7.28870E+02
  4.98172E+03  5.76275E+03  3.31067E+02  7.52978E+03 -4.66361E+03  4.13445E+03 -5.88229E+03 -1.10216E+03
 -5.56086E+03 -5.23652E+03 -1.42237E+03 -4.92928E+03  2.80906E+03 -4.99511E+03  2.71057E+03 -3.27794E+03
  2.61382E+03  2.43103E+02 -4.01321E+02  8.53871E+02  6.36577E+02 -3.46636E+02  6.24633E+02 -1.10422E+03
  3.85920E+03 -9.21739E+02  5.20499E+03  9.11820E+02  5.38049E+03  3.14599E+03  5.02459E+03  7.16340E+03
 -1.15834E+03  8.36026E+03 -8.10432E+03  6.93228E+03 -1.01085E+04  1.38131E+03 -7.98418E+03 -2.78102E+03
 -4.09261E+03 -6.70849E+03 -4.10150E+02 -5.51918E+03  2.28368E+03 -1.93922E+03  1.81533E+03 -2.43881E+03
  1.22641E+03 -1.54985E+03  2.20305E+03 -2.80246E+03  4.35553E+03 -1.52306E+03  3.81834E+03  2.97192E+02
  4.59574E+03  1.04967E+03  7.39895E+02  3.42177E+03 -1.57976E+03  3.24999E+03 -4.16826E+03  2.65552E+03
 -5.18268E+03 -9.86031E+02 -2.43731E+03 -3.03763E+03  3.21855E+02 -4.88021E+03  3.35946E+03 -5.35895E+03
  5.27292E+03 -3.38366E+03  7.06505E+03  2.30741E+02  4.90422E+03  4.33139E+03  1.32567E+03  6.11659E+03
 -1.59866E+03  6.46806E+03 -3.71582E+03  1.59690E+03 -1.53603E+03 -9.19222E+02 -1.64390E+02 -5.80592E+02
 -7.98833E+02  7.56973E+02 -1.64604E+03  1.74811E+03 -2.50962E+03  9.56982E+02 -3.86043E+03 -6.34643E+02
 -1.71452E+03 -4.21280E+03  3.65123E+02 -4.46999E+03  2.32784E+03 -4.30435E+03  3.26804E+03 -8.13232E+02
  3.82881E+03  2.63658E+03  2.06264E+03  3.25288E+03 -6.52798E+02  4.34385E+03 -2.58806E+03  2.79039E+03
 -4.04638E+03  1.22287E+03 -3.64508E+03 -2.52513E+03  3.88641E+01 -2.99669E+03  1.63379E+03 -2.29406E+03
  2.45856E+03 -1.29211E+03  1.47868E+03  5.20481E+02  3.59598E+02  1.83621E+03  1.07173E+03  8.26489E+02
  1.41284E+03  8.77441E+02  2.17733E+03  7.08069E+02  1.21862E+03  1.72076E+03  1.53979E+03  1.71070E+03
 -1.35698E+03  3.36046E+03 -2.22947E+03  4.50962E+03 -3.30153E+03  1.33989E+03 -3.82885E+03 -1.76127E+02
 -1.58877E+03 -3.93224E+03  1.03635E+03 -5.06202E+03  2.29550E+03 -3.09527E+03  3.16566E+03 -1.14314E+03
  2.46231E+03  1.66055E+03  1.68845E+02  2.01585E+03 -2.32280E+02  1.52152E+03 -7.04219E+02  7.73367E+01
 -7.53882E+02 -1.51513E+03  1.47719E+03 -1.95644E+03  1.68978E+03 -6.86375E+02  1.73028E+03  5.50464E+02
  4.88414E+02 -2.47284E+01  9.05002E+02 -2.19215E+02  4.73007E+02  9.83584E+02  1.35983E+03 -3.48292E+02
  3.95559E+02  1.40907E+02  2.14726E+03  8.17676E+02  3.84016E+02  2.76956E+03 -5.24530E+02  3.20403E+03
 -2.13933E+03  1.00672E+03 -1.37148E+03  6.28459E+02 -2.28852E+03 -1.02463E+03 -2.01938E+01 -9.19863E+02
  9.16596E+02 -1.43616E+03  1.38239E+03 -4.55123E+02  8.70063E+02  1.57113E+03 -2.85862E+02  1.14448E+03
 -1.60822E+03  9.07267E+02 -1.01920E+03 -9.05912E+02 -1.04652E+03 -1.79601E+03  4.24136E+02 -1.83107E+03
  9.92563E+02 -7.46126E+02  1.00521E+03  2.57083E+02  1.05983E+03 -2.96675E+02  4.25277E+02  1.31428E+03
 -3.90294E+02  3.87080E+02 -1.03575E+03 -1.59948E+02  8.35447E+02 -1.01874E+03  1.34377E+03 -5.87142E+02
  1.28575E+03  5.06262E+02  3.69593E+03  1.12956E+03  4.14031E+02  1.76312E+03  3.33630E+02  1.79220E+03
 -1.57579E+03  6.70733E+02 -1.19846E+03 -2.38928E+02 -1.01247E+03 -1.31752E+03  1.31674E+01 -8.71839E+02
  1.81387E+03 -1.01632E+03  7.02035E+02  3.65282E+02  5.56752E+01  1.25576E+03 -3.48542E+02  1.12422E+03
 -5.60381E+02  6.85396E+02 -4.69267E+02  4.81447E+02 -2.36969E+02  7.49181E+02 -7.00646E+02  4.36776E+02
 -5.25936E+02  1.12675E+03 -2.11095E+03  5.12296E+02 -1.75547E+03 -6.07440E+01 -2.91919E+03 -1.21143E+03
 -1.42539E+03 -2.66292E+03  4.14065E+02 -2.94331E+03  7.73415E+02 -2.03492E+03  2.77601E+03 -6.97954E+02
  2.99138E+03 -5.29734E+02  1.06174E+03  1.72075E+03 -3.70976E+02  1.82696E+03 -1.22197E+03  9.83672E+02
 -1.23253E+03  5.78922E+02 -5.24250E+02 -2.85286E+02 -5.47318E+02  5.16863E+01 -5.76283E+02  2.33095E+02
 -9.32979E+02 -6.96287E+02 -1.18828E+03  4.03176E+01  1.81485E+02 -3.96352E+02 -8.55211E+02 -1.00809E+03
  1.67400E+03 -1.41324E+03  3.54970E+02  5.59796E+02  8.51939E+02  1.21187E+03 -1.71936E+02  1.53034E+03
 -1.62128E+03  2.60619E+03 -1.78201E+03  1.44443E+03 -1.96523E+03  2.98572E+02 -1.54339E+03 -1.34829E+03
 -7.91854E+02 -1.55323E+03  5.47126E+02 -1.63439E+03  1.40916E+03 -6.60631E+02  6.53843E+02  8.96533E+01
  6.44985E+02  2.48818E+02  9.11289E+01  5.99974E+02 -3.88763E+02  3.39150E+02 -2.63672E+02  1.10317E+02
  8.73609E+02 -1.07173E+02  6.18235E+02 -1.31042E+02  5.35568E+02  1.12164E+03  3.81738E+02  4.78872E+02
 -6.79959E+01  9.51176E+02 -5.20700E+02 -4.58997E+01 -7.64931E+02 -3.10957E+02  1.66222E+02 -1.48790E+03
  9.27658E+02 -1.39167E+03  2.35787E+02  1.65914E+01  1.44048E+03 -3.78616E+02  5.50872E+02  1.08014E+03
  4.18898E+02  5.54463E+02 -3.73558E+02  9.05757E+02 -5.32949E+02  6.70224E+02 -8.75145E+02  8.80647E+02
 -3.25458E+02 -2.87056E+02 -7.50675E+02 -8.32095E+02 -4.90443E+02  1.43750E+02 -4.39978E+02  4.11529E+00
 -1.10000E+03  2.61029E+02 -8.50269E+02 -1.21056E+03  7.98827E+02 -1.72346E+03  6.53933E+02  1.84642E+02
  5.92281E+02 -1.13128E+02  1.31966E+02  4.21940E+02  7.19662E+01  6.03901E+02 -1.00220E+03  1.00753E+03
