 $NMID ID='MM_0lb_SNR400_13hz_g60_60.RAW', FMTDAT='(8E13.5)'
 TRAMP=1., VOLUME=1. $END
  3.09325E+05  9.72320E+02  3.38212E+05  2.51209E+05  8.48951E+04  3.38153E+05 -1.32443E+05  2.51015E+05
 -1.90698E+05  8.37156E+04 -1.11501E+05 -3.23713E+04  7.57603E+02 -5.04435E+04  5.41207E+04  4.14214E+01
  3.54405E+04  5.28803E+04 -1.66780E+04  7.64394E+04 -6.12402E+04  6.45682E+04 -8.41271E+04  3.26845E+04
 -8.20479E+04 -1.25585E+04 -5.79812E+04 -5.20399E+04 -1.57145E+04 -7.04070E+04  2.81393E+04 -4.62655E+04
  4.02862E+04  3.98668E+03  1.66403E+04  4.80369E+04 -3.45552E+04  4.74042E+04 -6.68231E+04  6.54081E+01
 -5.35764E+04 -5.76001E+04 -6.82485E+03 -7.84708E+04  3.42579E+04 -5.57908E+04  4.82018E+04 -1.81013E+04
  4.46857E+04  1.09417E+04  3.24233E+04  2.56022E+04  1.57473E+04  3.02761E+04 -5.66188E+03  2.75259E+04
 -2.21312E+04  1.21326E+04 -1.82775E+04 -5.31604E+03  6.43223E+03 -6.99246E+03  2.25309E+04  1.30877E+04
  7.34301E+03  3.64103E+04 -3.36479E+04  3.56584E+04 -6.45269E+04  2.49827E+03 -5.84555E+04 -4.39857E+04
 -1.29051E+04 -6.51539E+04  4.03551E+04 -4.62299E+04  5.98432E+04 -2.71550E+03  3.59386E+04  3.26559E+04
 -4.81594E+03  3.81040E+04 -3.12064E+04  1.80104E+04 -3.21075E+04 -3.83777E+03 -1.80687E+04 -1.17466E+04
 -8.92455E+03 -1.54335E+04 -1.04385E+03 -1.95172E+04  8.71099E+03 -2.33243E+04  1.57791E+04 -1.32917E+04
  1.16927E+04  5.59472E+03 -9.26334E+03  1.32628E+04 -2.23995E+04 -6.45782E+03 -8.76822E+03 -3.57025E+04
  2.36436E+04 -4.55467E+04  4.99027E+04 -2.00430E+04  4.68077E+04  1.99022E+04  1.61926E+04  4.58528E+04
 -1.56172E+04  3.50151E+04 -2.58792E+04  2.04020E+03 -1.02270E+04 -2.87641E+04  2.16052E+04 -3.49975E+04
  4.26824E+04 -9.69526E+03  3.76857E+04  2.46567E+04  2.02300E+04  4.86840E+04 -8.16827E+03  5.30840E+04
 -3.33711E+04  3.62867E+04 -4.50779E+04  1.08969E+04 -4.48975E+04 -1.76104E+04 -2.46669E+04 -4.05296E+04
  7.62409E+03 -3.97279E+04  3.20711E+04 -1.56928E+04  3.07307E+04  1.13244E+04  4.53027E+03  1.96794E+04
 -1.33372E+04  9.10240E+03 -1.00704E+04 -7.90865E+03  5.44303E+03 -1.12898E+04  1.84868E+04  5.92292E+03
  1.41338E+04  2.18011E+04 -5.52293E+03  2.57111E+04 -2.28681E+04  1.30473E+04 -2.97050E+04 -4.21426E+03
 -2.26722E+04 -1.75768E+04 -9.98696E+03 -2.21773E+04  4.19362E+03 -2.21368E+04  1.72534E+04 -2.04466E+04
  2.85822E+04 -1.36144E+04  3.50939E+04  3.01048E+03  2.47496E+04  2.20404E+04  4.22297E+03  3.87875E+04
 -1.81145E+04  3.26384E+04 -2.92205E+04  1.15223E+04 -2.15673E+04 -1.05051E+04 -4.16747E+03 -1.34284E+04
  1.44548E+03 -2.37794E+03 -5.92856E+03  7.52194E+03 -1.84062E+04  4.70052E+03 -1.76862E+04 -7.68395E+03
 -1.08416E+04 -2.07592E+04  5.22753E+03 -2.58422E+04  1.65816E+04 -1.80324E+04  2.00533E+04 -1.13961E+03
  1.30775E+04  1.43166E+04 -1.52765E+03  2.06579E+04 -1.43691E+04  1.18154E+04 -2.16877E+04 -3.99179E+03
 -1.49361E+04 -1.95216E+04 -1.71920E+03 -2.53471E+04  1.13284E+04 -2.12289E+04  2.11808E+04 -1.07822E+04
  1.95287E+04  6.54017E+01  1.38801E+04  4.49362E+03  8.06040E+03  1.07440E+03  1.08650E+04 -2.01360E+03
  2.03038E+04  2.41624E+03  2.19126E+04  1.68872E+04  1.42108E+04  3.36951E+04 -2.13678E+03  3.87924E+04
 -2.21504E+04  3.17996E+04 -3.63974E+04  1.55890E+04 -3.82914E+04 -2.67481E+03 -3.15627E+04 -2.33460E+04
 -1.35409E+04 -3.14493E+04  1.13200E+04 -2.79997E+04  2.36772E+04 -1.34706E+04  2.14100E+04  6.89828E+03
  7.95160E+03  1.63057E+04 -9.68700E+03  1.38313E+04 -1.78513E+04  2.51163E+03 -1.33903E+04 -1.17361E+04
 -5.90004E+01 -1.72309E+04  8.74907E+03 -1.21623E+04  1.10829E+04 -9.30119E+02  3.26680E+03  7.26705E+03
 -6.97355E+03  3.44576E+03 -7.94378E+03 -5.36615E+03 -1.47035E+03 -1.50605E+04  1.02776E+04 -1.65483E+04
  1.90199E+04 -8.41190E+03  2.09423E+04  2.92661E+03  1.91316E+04  1.49902E+04  8.21842E+03  2.46087E+04
 -3.71697E+03  2.57256E+04 -1.70327E+04  1.63968E+04 -1.90327E+04  3.62417E+03 -1.26312E+04 -4.30348E+03
 -5.97003E+03 -5.96588E+03 -4.57344E+02  6.92113E+02 -2.46117E+03  2.74858E+03 -5.55884E+03  4.89705E+03
 -1.25963E+04 -8.43404E+02 -1.25011E+04 -1.05340E+04 -5.41017E+03 -1.68031E+04  5.38723E+03 -1.33989E+04
  1.12263E+04 -5.52122E+03  7.30282E+03  3.33611E+03 -4.89854E+02  4.97049E+03 -6.18232E+03 -1.99265E+02
 -5.49872E+03 -7.87306E+03 -6.42798E+02 -1.19924E+04  7.14788E+03 -1.34702E+04  1.59604E+04 -7.02597E+03
  1.89209E+04  2.08005E+03  1.36539E+04  1.13491E+04  2.75985E+03  1.55092E+04 -8.42091E+03  1.30907E+04
 -1.09714E+04  3.97594E+03 -5.17803E+03 -2.90413E+03  1.86282E+03 -3.37014E+03  6.82773E+03 -1.36048E+03
  5.75141E+03  5.78246E+03  1.45857E+03  1.05301E+04 -6.56996E+03  9.91458E+03 -1.24181E+04  2.79951E+03
 -8.91580E+03 -6.30770E+03  4.92165E+02 -1.08049E+04  7.10674E+03 -5.43946E+03  6.48118E+03  2.49635E+03
  1.58471E+03  7.31611E+03 -6.79296E+03  8.17936E+03 -9.73536E+03  3.88441E+03 -9.84087E+03 -3.02504E+03
 -6.38934E+03 -1.14155E+04  2.70681E+03 -1.36516E+04  1.21550E+04 -8.66686E+03  1.29980E+04  1.66492E+03
  7.86247E+03  9.18770E+03 -7.18480E+01  1.23224E+04 -8.67030E+03  7.26178E+03 -9.57750E+03 -3.20028E+02
 -8.58528E+03 -8.67145E+03 -6.73607E+02 -8.54926E+03  5.21992E+03 -7.83577E+03  5.58634E+03 -4.11899E+03
  4.10635E+03  1.00670E+03 -1.03901E+03  2.00346E+03 -4.31183E+02 -2.21067E+03  1.37342E+03 -5.32971E+03
  9.35844E+03 -3.29765E+03  1.11518E+04  5.84131E+02  1.21501E+04  7.69991E+03  8.56767E+03  1.48612E+04
 -3.93842E+03  1.69149E+04 -1.44596E+04  1.24546E+04 -1.92313E+04  2.56002E+03 -1.50638E+04 -6.23302E+03
 -7.56177E+03 -1.29573E+04 -3.78400E+02 -9.89434E+03  3.73746E+03 -5.64174E+03  3.85203E+03 -3.64457E+03
  2.75360E+03 -2.40707E+03  3.14118E+03 -3.59495E+03  4.72503E+03 -2.48450E+03  5.67750E+03 -6.08793E+02
  7.71675E+03  1.42665E+03  3.62235E+03  6.77690E+03 -2.32199E+03  7.01867E+03 -8.22844E+03  5.65299E+03
 -1.01609E+04 -3.86807E+02 -6.22086E+03 -7.10898E+03 -1.00135E+03 -1.05884E+04  6.26284E+03 -1.11561E+04
  1.13183E+04 -5.94770E+03  1.38919E+04  1.49617E+03  9.79016E+03  9.67932E+03  1.84242E+03  1.25270E+04
 -5.21387E+03  1.00410E+04 -7.19300E+03  3.80146E+03 -5.15541E+03 -1.55546E+03 -1.88057E+03 -1.62429E+03
 -6.60274E+02  6.64794E+01 -1.77633E+03  2.89843E+03 -5.14898E+03  1.57352E+03 -7.69090E+03 -2.42876E+02
 -4.54745E+03 -7.59062E+03  3.73064E+02 -9.64134E+03  5.84277E+03 -9.25071E+03  9.62368E+03 -2.96810E+03
  9.36815E+03  4.86841E+03  4.92517E+03  8.28650E+03 -1.94634E+03  1.00720E+04 -7.08384E+03  6.18259E+03
 -9.14723E+03  4.61943E+02 -6.43112E+03 -5.67799E+03 -5.68943E+02 -7.47927E+03  4.66270E+03 -6.64231E+03
  5.82102E+03 -2.54992E+03  4.20694E+03  1.50136E+03  1.56079E+03  2.99454E+03  1.10107E+03  1.36495E+03
  1.78789E+03  1.11793E+03  2.68567E+03  1.60540E+03  2.62314E+03  4.34963E+03  3.28296E+03  5.01578E+03
 -2.69830E+03  7.93492E+03 -6.42741E+03  8.30370E+03 -8.97993E+03  2.44513E+03 -1.00209E+04 -3.76526E+03
 -4.86768E+03 -9.97907E+03  2.05867E+03 -1.06110E+04  5.93824E+03 -7.51595E+03  7.54394E+03 -2.06500E+03
  5.79062E+03  4.16654E+03  1.02868E+03  5.66627E+03 -2.82225E+03  3.77540E+03 -3.26672E+03 -1.17978E+03
 -1.49785E+03 -3.79989E+03  2.59993E+03 -4.08968E+03  3.59133E+03 -2.29233E+03  4.25344E+03  6.67792E+02
  1.53978E+03  1.78171E+03  1.21964E+03  5.26848E+02 -2.76438E+02  1.11264E+03  1.61248E+03  2.12106E+02
  9.55180E+02 -4.73035E+02  4.09648E+03  1.97514E+03  1.90876E+03  5.11109E+03 -2.79554E+02  5.66847E+03
 -4.33678E+03  4.07756E+03 -5.46056E+03  7.51302E+02 -4.74221E+03 -1.62049E+03 -1.42920E+03 -3.41845E+03
  4.81646E+02 -3.72999E+03  2.41826E+03 -1.23439E+03  2.21389E+03  1.44098E+03 -1.30636E+03  3.04403E+03
 -3.31625E+03  1.93666E+03 -4.15024E+03 -2.57044E+03 -2.84934E+03 -5.03409E+03  1.10381E+03 -4.77755E+03
  2.58563E+03 -2.17931E+03  3.62488E+03 -1.40407E+00  3.43226E+03  9.85197E+02  7.92427E+02  2.57695E+03
 -1.64077E+03 -2.74174E+02 -2.92205E+03 -1.16374E+03  1.29997E+03 -3.67280E+03  4.04564E+03 -1.68112E+03
  4.73409E+03  1.02859E+03  6.17453E+03  3.39640E+03  1.68404E+03  5.24882E+03 -2.02220E+03  5.26022E+03
 -4.41647E+03  2.84950E+03 -4.65867E+03 -9.93874E+02 -2.47045E+03 -3.79249E+03  8.85357E+02 -3.21846E+03
  3.88635E+03 -1.74960E+03  2.76689E+03  1.31971E+03  1.18897E+03  3.01985E+03 -3.72424E+02  2.50619E+03
 -1.49113E+03  1.82200E+03 -7.59218E+02  8.96494E+02 -4.54194E+02  6.09204E+02 -1.66781E+03  6.98195E+02
 -1.40534E+03  3.21439E+03 -3.43023E+03  1.91284E+03 -5.72855E+03  4.18796E+02 -6.67327E+03 -3.67758E+03
 -2.62288E+03 -6.64723E+03  1.72298E+03 -7.93980E+03  4.80235E+03 -7.11104E+03  6.73340E+03 -3.05351E+03
  6.45959E+03  1.05502E+03  3.56657E+03  4.92947E+03  9.00965E+01  4.97006E+03 -1.78789E+03  3.74665E+03
 -3.34373E+03  1.99847E+03 -1.87695E+03 -1.86949E+02 -1.10299E+03  5.29498E+01 -8.11294E+02 -2.29553E+01
 -1.24178E+03  5.40443E+02 -8.39338E+02  9.16169E+02 -2.71006E+02 -2.37084E+03 -1.50311E+02 -2.38033E+03
  2.87049E+03 -1.58859E+03  2.19516E+03  8.31260E+02  3.63941E+03  2.89567E+03  2.55903E+02  5.30120E+03
 -1.63620E+03  6.25022E+03 -5.40750E+03  3.62838E+03 -5.91244E+03 -9.01320E+02 -4.64200E+03 -4.10072E+03
 -2.24610E+03 -5.21636E+03  1.82312E+03 -4.85175E+03  2.63325E+03 -2.15984E+03  2.50378E+03 -1.88764E+02
  1.21719E+03  1.68379E+03 -8.67249E+00  1.34483E+03 -5.83233E+02 -2.84336E+02  5.40047E+02 -1.48192E+03
  1.72185E+03 -8.76583E+02  1.35043E+03  9.36753E+02  1.23012E+03  1.64103E+03  6.60057E+02  2.21607E+03
 -1.79455E+03  2.48137E+03 -2.57253E+03  8.14197E+02 -3.65270E+03 -3.12466E+03 -3.77866E+02 -4.10162E+03
  2.33804E+03 -3.07111E+03  3.90117E+03 -9.81704E+02  3.62690E+03 -5.97521E+00  2.90614E+03  2.67645E+03
  6.50402E+02  3.19575E+03 -1.37846E+03  2.81587E+03 -2.04939E+03  1.52312E+03 -9.34216E+02  1.08268E+02
 -6.21474E+02 -3.47209E+02 -1.20661E+03  6.37334E+02 -2.15902E+03  1.00739E+03 -2.61513E+03 -1.21061E+02
 -3.07545E+03 -1.57277E+03 -7.92287E+02 -3.87686E+03  8.66792E+02 -3.96469E+03  2.84592E+03 -1.57369E+03
  2.76894E+03  6.89370E+02  8.00601E+02  2.03752E+03 -1.22147E+02  3.18208E+03 -2.05539E+03  2.39961E+03
