 $NMID ID='MM_0lb_SNR400_17hz_g45_42.RAW', FMTDAT='(8E13.5)'
 TRAMP=1., VOLUME=1. $END
  3.09906E+05  1.21713E+02  3.37492E+05  2.50610E+05  8.44081E+04  3.37543E+05 -1.32244E+05  2.50508E+05
 -1.89778E+05  8.24861E+04 -1.11256E+05 -3.26861E+04  1.02946E+03 -5.02245E+04  5.40837E+04  6.72529E+02
  3.54164E+04  5.26149E+04 -1.70204E+04  7.46520E+04 -6.03852E+04  6.31915E+04 -8.33096E+04  3.13774E+04
 -8.00160E+04 -1.15834E+04 -5.67594E+04 -5.02600E+04 -1.51382E+04 -6.88117E+04  2.68786E+04 -4.48453E+04
  3.97982E+04  3.95228E+03  1.52587E+04  4.78159E+04 -3.40968E+04  4.66488E+04 -6.58490E+04 -3.88938E+02
 -5.26629E+04 -5.60228E+04 -6.06547E+03 -7.55948E+04  3.35686E+04 -5.35240E+04  4.71523E+04 -1.62760E+04
  4.18683E+04  1.14775E+04  3.13034E+04  2.42598E+04  1.58542E+04  2.88868E+04 -4.96237E+03  2.73627E+04
 -2.17287E+04  1.28325E+04 -1.95039E+04 -5.08769E+03  4.48611E+03 -7.60973E+03  2.14336E+04  1.11505E+04
  7.09261E+03  3.39354E+04 -3.09163E+04  3.43622E+04 -6.15468E+04  1.73694E+03 -5.56076E+04 -4.08577E+04
 -1.23185E+04 -6.13859E+04  3.89762E+04 -4.39594E+04  5.64319E+04 -1.97617E+03  3.17816E+04  3.08223E+04
 -6.07622E+03  3.35103E+04 -2.86576E+04  1.34820E+04 -2.85126E+04 -5.10027E+03 -1.51414E+04 -9.50807E+03
 -8.04980E+03 -1.19305E+04 -8.49890E+02 -1.71489E+04  6.41133E+03 -2.25072E+04  1.52313E+04 -1.35159E+04
  1.22777E+04  4.02916E+03 -6.86205E+03  1.32602E+04 -2.01431E+04 -3.62231E+03 -7.69491E+03 -3.08951E+04
  2.16757E+04 -4.15581E+04  4.58505E+04 -1.90011E+04  4.26337E+04  1.88727E+04  1.39306E+04  4.23849E+04
 -1.54776E+04  3.19866E+04 -2.33423E+04  1.56842E+03 -8.40619E+03 -2.64121E+04  2.02738E+04 -3.17331E+04
  3.85429E+04 -7.51888E+03  3.25152E+04  2.21135E+04  1.61711E+04  4.36197E+04 -7.78725E+03  4.63785E+04
 -2.94831E+04  3.05267E+04 -3.86592E+04  7.88720E+03 -3.92656E+04 -1.52705E+04 -2.22894E+04 -3.50599E+04
  6.85789E+03 -3.52920E+04  2.94777E+04 -1.35372E+04  2.71561E+04  1.03947E+04  2.90118E+03  1.81746E+04
 -1.27693E+04  8.11256E+03 -9.71355E+03 -8.01995E+03  5.92080E+03 -1.03173E+04  1.77199E+04  6.44876E+03
  1.26024E+04  2.14178E+04 -6.28621E+03  2.38572E+04 -2.21304E+04  1.00559E+04 -2.58097E+04 -6.13767E+03
 -1.71120E+04 -1.66653E+04 -6.54691E+03 -1.69249E+04  3.68061E+03 -1.63143E+04  1.32050E+04 -1.54998E+04
  2.22953E+04 -1.20860E+04  2.95318E+04  1.39229E+03  2.22043E+04  1.74959E+04  4.19782E+03  3.36514E+04
 -1.63663E+04  2.85893E+04 -2.60324E+04  9.40118E+03 -1.98073E+04 -1.05050E+04 -4.13470E+03 -1.36345E+04
  2.10804E+03 -4.04041E+03 -3.08881E+03  5.62479E+03 -1.36226E+04  5.57506E+03 -1.40249E+04 -5.71444E+03
 -8.50269E+03 -1.63404E+04  4.59114E+03 -2.02727E+04  1.29789E+04 -1.45783E+04  1.55258E+04 -1.46375E+03
  9.38884E+03  1.12400E+04 -7.86929E+02  1.62727E+04 -1.10874E+04  9.09564E+03 -1.62387E+04 -3.25502E+03
 -1.21213E+04 -1.48694E+04 -1.01161E+03 -1.99909E+04  9.04452E+03 -1.63950E+04  1.63855E+04 -8.16181E+03
  1.48240E+04  6.56156E+02  1.12523E+04  3.98392E+03  5.18715E+03  6.39246E+02  8.14883E+03 -1.39925E+03
  1.53924E+04  3.27564E+03  1.57072E+04  1.29161E+04  9.70913E+03  2.62206E+04 -3.02025E+03  2.85341E+04
 -1.71124E+04  2.22082E+04 -2.61648E+04  1.00066E+04 -2.66516E+04 -1.73569E+03 -2.29913E+04 -1.55701E+04
 -1.05577E+04 -2.18326E+04  7.33331E+03 -1.98788E+04  1.80812E+04 -1.11878E+04  1.60611E+04  4.64094E+03
  6.50628E+03  1.24801E+04 -7.28179E+03  1.09417E+04 -1.34657E+04  2.87400E+03 -1.08692E+04 -8.36051E+03
  5.66878E+00 -1.33014E+04  6.93510E+03 -9.37535E+03  8.92805E+03 -1.80109E+03  1.87005E+03  5.07480E+03
 -5.93888E+03  1.58368E+03 -4.31829E+03 -5.13627E+03  2.60028E+02 -1.07589E+04  8.14656E+03 -1.05084E+04
  1.34981E+04 -5.01690E+03  1.35681E+04  3.07755E+03  1.24193E+04  1.00714E+04  5.39465E+03  1.55368E+04
 -2.39297E+03  1.77455E+04 -1.10350E+04  1.10979E+04 -1.22688E+04  3.13679E+03 -8.84255E+03 -2.92306E+03
 -5.13122E+03 -3.88527E+03 -5.35132E+02  1.12207E+03 -2.55757E+03  1.84139E+03 -4.07530E+03  3.61421E+03
 -8.98693E+03 -2.01357E+02 -8.99112E+03 -7.58353E+03 -3.91506E+03 -1.23252E+04  3.72416E+03 -9.60628E+03
  7.74748E+03 -4.28305E+03  5.95781E+03  2.58390E+03  3.54880E+02  3.10353E+03 -3.83587E+03 -1.85620E+02
 -3.47153E+03 -5.11033E+03 -6.94488E+02 -8.46880E+03  4.25846E+03 -8.61384E+03  1.12474E+04 -4.49084E+03
  1.28494E+04  5.99142E+02  9.26190E+03  6.89833E+03  1.84521E+03  9.76457E+03 -5.34542E+03  8.78429E+03
 -7.38743E+03  2.55090E+03 -3.78162E+03 -1.74628E+03  1.60943E+03 -1.43500E+03  4.92564E+03 -6.84444E+02
  4.33577E+03  3.36709E+03  9.39575E+02  7.51900E+03 -4.58190E+03  7.05189E+03 -8.77709E+03  2.06718E+03
 -5.62787E+03 -4.02490E+03  5.32406E+02 -7.12250E+03  4.36055E+03 -3.81155E+03  3.93432E+03  8.64898E+02
  3.64002E+02  3.59137E+03 -4.06440E+03  5.99935E+03 -5.83423E+03  2.72735E+03 -5.71867E+03 -1.43370E+03
 -3.27611E+03 -6.83110E+03  1.09727E+03 -8.35419E+03  7.12549E+03 -5.39438E+03  7.63762E+03  1.71054E+03
  5.53536E+03  5.65792E+03 -6.04057E+01  8.38946E+03 -5.63760E+03  4.48726E+03 -6.18230E+03 -2.41319E+02
 -6.95883E+03 -5.72526E+03 -1.03060E+03 -5.68845E+03  2.88440E+03 -5.66291E+03  3.49764E+03 -3.10300E+03
  2.96389E+03  6.28166E+02 -1.58585E+02  1.43543E+03 -1.44263E+02  9.87948E+01  8.12396E+02 -2.01695E+03
  4.27779E+03 -7.55962E+02  6.71681E+03  6.32146E+02  6.52972E+03  4.27486E+03  5.91454E+03  8.63985E+03
 -1.87435E+03  1.03506E+04 -8.96107E+03  7.67122E+03 -1.17662E+04  1.22596E+03 -9.10199E+03 -2.77645E+03
 -4.91553E+03 -6.78913E+03 -9.41530E+01 -5.53729E+03  2.28780E+03 -3.00381E+03  2.08327E+03 -2.11460E+03
  1.24446E+03 -1.63097E+03  2.26972E+03 -2.14018E+03  3.41066E+03 -1.57140E+03  4.25099E+03  6.07192E+02
  4.66297E+03  1.16112E+03  1.66061E+03  4.34258E+03 -1.65991E+03  4.27543E+03 -5.18532E+03  3.04459E+03
 -5.66520E+03 -1.17194E+03 -2.76148E+03 -3.66577E+03  6.51896E+02 -5.50777E+03  3.29299E+03 -5.86544E+03
  5.77140E+03 -3.39422E+03  7.45585E+03  2.54192E+02  5.64103E+03  4.91284E+03  1.20421E+03  6.84296E+03
 -2.69722E+03  7.37499E+03 -3.74183E+03  2.68019E+03 -2.10823E+03 -1.08301E+03 -6.61613E+02 -7.44536E+02
 -6.81805E+02  5.77568E+02 -9.98261E+02  2.06552E+03 -2.59103E+03  1.01237E+03 -4.32346E+03 -8.79074E+02
 -2.22522E+03 -4.32960E+03  5.48055E+02 -5.52417E+03  3.14886E+03 -5.11277E+03  4.46389E+03 -1.60590E+03
  5.14069E+03  2.88782E+03  2.29296E+03  3.93624E+03 -1.05366E+03  4.55090E+03 -4.07865E+03  3.63941E+03
 -4.37821E+03  5.74942E+02 -4.30527E+03 -2.90108E+03 -3.92845E+02 -4.05266E+03  1.72418E+03 -2.96322E+03
  3.41849E+03 -1.59436E+03  2.38047E+03  9.18047E+02  3.28401E+02  1.57623E+03  1.16562E+03  2.29901E+02
  2.07015E+03  8.47920E+02  1.75384E+03  1.54742E+03  1.45423E+03  2.33298E+03  1.20086E+03  2.28939E+03
 -9.42748E+02  4.21956E+03 -3.20766E+03  4.76224E+03 -4.04591E+03  1.33915E+03 -5.60567E+03 -7.90611E+02
 -1.57535E+03 -4.71993E+03  7.53270E+02 -5.50712E+03  2.41335E+03 -2.98285E+03  3.42075E+03 -9.62722E+02
  2.92391E+03  1.47199E+03  4.02949E+02  2.20483E+03 -1.59894E+03  2.05784E+03 -1.11300E+03 -2.79558E+01
 -7.43790E+02 -2.16648E+03  1.42574E+03 -2.29224E+03  1.41813E+03 -1.09916E+03  1.27312E+03  5.34083E+02
  9.37260E+02  8.38588E+02  9.68525E+02  1.00050E+03 -1.30968E+02  8.70304E+02  1.32031E+03 -6.63554E+02
  2.48302E+02 -8.04466E+01  1.70106E+03  1.11764E+03  4.03885E+02  2.93890E+03 -7.49735E+02  3.87725E+03
 -2.46770E+03  1.21221E+03 -2.68385E+03  2.79500E+02 -2.71315E+03 -1.22897E+03 -7.21310E+02 -1.03082E+03
  5.55122E+02 -1.09281E+03  1.24916E+03 -8.45927E+02  1.03099E+03  1.38067E+03 -9.37683E+02  1.68467E+03
 -1.81648E+03  1.39498E+03 -1.46929E+03 -1.50730E+03 -7.99614E+02 -2.73885E+03  6.01161E+02 -2.17270E+03
  8.42255E+02 -8.06952E+02  9.40444E+02 -4.82316E+01  5.79884E+02  1.72729E+02  2.91542E+02  1.03634E+03
 -7.59102E+02 -9.79020E+01 -1.71586E+03 -3.27000E+02  7.45327E+02 -1.33433E+03  2.19332E+03 -9.19052E+02
  2.44339E+03  7.62722E+02  3.02745E+03  1.37953E+03  1.04487E+03  2.70009E+03 -9.28642E+02  2.43571E+03
 -2.19364E+03  6.08021E+02 -1.52956E+03 -2.81785E+02 -4.04995E+02 -1.24616E+03  2.91645E+02 -5.57498E+02
  2.48376E+03 -9.40807E+02  1.17651E+03  5.43141E+02  4.00760E+02  1.47591E+03  8.44288E+02  1.21396E+03
 -7.20811E+02  1.66556E+03 -1.28372E+03 -3.62667E+02 -1.84508E+02  8.61477E+02 -7.38706E+02  7.07710E+02
 -6.32724E+02  1.06681E+03 -2.39266E+03  8.20276E+02 -2.44792E+03  6.96368E+02 -3.21361E+03 -1.67401E+03
 -1.20834E+03 -2.60192E+03  3.75933E+02 -3.72093E+03  1.87143E+03 -3.06590E+03  3.07172E+03 -1.53210E+03
  3.14919E+03 -1.76148E+02  1.11029E+03  2.02605E+03 -2.76434E+02  1.81413E+03 -1.14965E+03  1.53755E+03
 -1.13487E+03  4.90420E+02 -6.71741E+02 -2.73574E+02 -4.85804E+02 -8.63707E+01 -6.99282E+02 -7.67507E+02
 -6.71332E+02 -3.07837E+01 -1.26762E+03 -4.92847E+02 -7.33183E+01 -8.44743E+02 -7.22808E+02 -1.01767E+03
  1.16250E+03 -8.65240E+02  7.12296E+02 -1.10442E+02  1.98111E+03  1.27947E+03 -4.50699E+01  1.93555E+03
 -1.23595E+03  2.71089E+03 -2.47625E+03  2.07554E+03 -2.67537E+03 -4.73019E+02 -2.06407E+03 -1.72218E+03
 -1.89001E+03 -1.78639E+03  1.16652E+02 -1.80146E+03  9.15222E+02 -5.07580E+02  1.03210E+03 -4.00020E+02
  1.06367E+03  3.11473E+02  8.98159E+01  8.26584E+02 -9.13520E+02 -1.98859E+01  2.88838E+02  1.30696E+02
  8.46847E+02  2.66035E+02  3.03695E+02  6.32262E+02  4.80063E+01  8.28249E+02  7.05813E+02  1.11531E+03
 -4.84075E+02  1.03022E+03 -1.48900E+03  6.56566E+00 -8.36612E+02 -5.48949E+02 -5.01025E+01 -1.95396E+03
  6.57787E+02 -9.69229E+02  6.49648E+02 -1.57891E+02  1.11318E+03 -4.72626E+02  1.00428E+03  9.38879E+02
  5.56366E+02  1.47485E+03 -2.83288E+02  1.33227E+03 -8.72742E+02  4.90758E+02 -4.62262E+02 -9.30878E+01
 -1.41660E+02 -5.89660E+02 -4.35966E+02  1.89246E+02 -7.58822E+02 -5.09708E+02 -1.41467E+03 -2.82623E+02
 -8.03702E+02  1.24942E+02 -1.47945E+02 -1.42962E+03  5.78354E+02 -1.70961E+03  1.19301E+03 -7.48660E+02
  1.05096E+03 -1.78666E+02 -2.79602E+02  7.21054E+02 -1.89329E+02  1.30859E+03 -5.18351E+02  8.63605E+02
