 $NMID ID='MM_0lb_SNR400_8hz_g45_1.RAW', FMTDAT='(8E13.5)'
 TRAMP=1., VOLUME=1. $END
  3.09102E+05 -1.66131E+02  3.38363E+05  2.50982E+05  8.52572E+04  3.38670E+05 -1.32655E+05  2.51635E+05
 -1.90836E+05  8.37196E+04 -1.12351E+05 -3.17365E+04  1.78368E+02 -5.05284E+04  5.34320E+04 -9.71729E+02
  3.52390E+04  5.32941E+04 -1.69665E+04  7.56261E+04 -6.11608E+04  6.46166E+04 -8.51475E+04  3.23673E+04
 -8.29249E+04 -1.20392E+04 -5.82082E+04 -5.24630E+04 -1.55865E+04 -7.09035E+04  2.84531E+04 -4.65903E+04
  4.11318E+04  3.95244E+03  1.62787E+04  4.82202E+04 -3.46457E+04  4.84526E+04 -6.81802E+04 -7.33859E+02
 -5.55013E+04 -5.80986E+04 -6.90082E+03 -7.89832E+04  3.43142E+04 -5.67774E+04  4.93426E+04 -1.79414E+04
  4.59479E+04  1.17726E+04  3.33585E+04  2.67360E+04  1.56814E+04  3.07327E+04 -6.12779E+03  2.81223E+04
 -2.30243E+04  1.20795E+04 -1.79352E+04 -5.46974E+03  7.88399E+03 -6.66891E+03  2.39909E+04  1.42651E+04
  6.32864E+03  3.83733E+04 -3.36949E+04  3.82180E+04 -6.60949E+04  2.24025E+03 -5.85879E+04 -4.50686E+04
 -1.27514E+04 -6.60094E+04  4.14256E+04 -4.77323E+04  6.18231E+04 -2.59248E+03  3.74423E+04  3.44824E+04
 -5.05887E+03  3.97020E+04 -3.18662E+04  1.94172E+04 -3.39720E+04 -3.32478E+03 -1.86879E+04 -1.18485E+04
 -1.00856E+04 -1.51396E+04  1.68425E+02 -1.92747E+04  7.99402E+03 -2.32405E+04  1.62922E+04 -1.23889E+04
  1.03491E+04  6.36131E+03 -1.10912E+04  1.21676E+04 -2.32244E+04 -7.81564E+03 -7.97733E+03 -3.82001E+04
  2.53208E+04 -4.69523E+04  5.13213E+04 -2.12173E+04  4.87309E+04  2.10712E+04  1.84439E+04  4.72478E+04
 -1.65174E+04  3.65824E+04 -2.87198E+04  2.25509E+03 -1.23200E+04 -2.97147E+04  2.14052E+04 -3.77295E+04
  4.55640E+04 -1.04311E+04  4.10358E+04  2.51408E+04  2.18413E+04  5.18505E+04 -7.99577E+03  5.72131E+04
 -3.54307E+04  3.91377E+04 -4.83323E+04  1.05204E+04 -4.80327E+04 -1.93702E+04 -2.63832E+04 -4.27916E+04
  7.57285E+03 -4.24866E+04  3.52604E+04 -1.78211E+04  3.24701E+04  1.12555E+04  5.28516E+03  2.11937E+04
 -1.42368E+04  9.88471E+03 -1.09549E+04 -6.98848E+03  5.83663E+03 -1.04658E+04  1.87825E+04  5.77627E+03
  1.58277E+04  2.26946E+04 -5.80745E+03  2.74429E+04 -2.32093E+04  1.50316E+04 -3.16490E+04 -2.79001E+03
 -2.54812E+04 -1.84649E+04 -1.27641E+04 -2.47681E+04  4.57792E+03 -2.67599E+04  2.09891E+04 -2.27792E+04
  3.19568E+04 -1.49122E+04  3.83923E+04  5.01308E+03  2.77197E+04  2.56059E+04  4.36261E+03  4.17854E+04
 -1.94768E+04  3.47116E+04 -3.10154E+04  1.17701E+04 -2.24775E+04 -1.09544E+04 -5.17559E+03 -1.21156E+04
  1.05806E+03 -1.30580E+03 -7.88613E+03  8.51461E+03 -2.05093E+04  4.55820E+03 -2.07229E+04 -9.79925E+03
 -1.19049E+04 -2.39477E+04  6.46232E+03 -2.81879E+04  1.90192E+04 -1.99258E+04  2.31907E+04 -2.12112E+03
  1.53243E+04  1.68258E+04 -1.07563E+03  2.38050E+04 -1.75313E+04  1.37211E+04 -2.32466E+04 -4.98622E+03
 -1.68360E+04 -2.19381E+04 -2.16534E+03 -2.85194E+04  1.23245E+04 -2.34621E+04  2.42259E+04 -1.18572E+04
  2.25626E+04  2.02627E+02  1.68700E+04  4.49417E+03  9.01181E+03  8.87971E+02  1.22222E+04 -2.51248E+03
  2.28409E+04  2.75817E+03  2.59044E+04  1.86848E+04  1.83479E+04  3.93841E+04 -2.23837E+03  4.55322E+04
 -2.65217E+04  3.75553E+04 -4.33989E+04  1.98787E+04 -4.59569E+04 -3.50399E+03 -3.76061E+04 -2.69573E+04
 -1.50560E+04 -3.94934E+04  1.35255E+04 -3.34165E+04  2.88526E+04 -1.65155E+04  2.48606E+04  8.12361E+03
  8.84423E+03  1.93961E+04 -1.22194E+04  1.68249E+04 -2.04333E+04  1.96106E+03 -1.64338E+04 -1.33028E+04
 -6.70454E+02 -1.97421E+04  1.10925E+04 -1.49688E+04  1.37693E+04 -1.58946E+03  3.67821E+03  9.75894E+03
 -8.68028E+03  4.61088E+03 -9.80299E+03 -7.27097E+03 -2.47199E+03 -1.83856E+04  1.23781E+04 -2.02894E+04
  2.38493E+04 -1.14584E+04  2.74984E+04  3.17430E+03  2.40689E+04  1.93690E+04  1.05006E+04  3.06591E+04
 -5.68565E+03  3.17913E+04 -2.10616E+04  2.08334E+04 -2.39252E+04  3.45497E+03 -1.57481E+04 -6.23796E+03
 -7.08619E+03 -7.44257E+03 -5.71652E+02  1.42496E+02 -2.74327E+03  3.36351E+03 -7.41685E+03  6.69631E+03
 -1.51886E+04 -1.22467E+03 -1.59595E+04 -1.23380E+04 -5.77197E+03 -1.94817E+04  6.30402E+03 -1.67542E+04
  1.35388E+04 -6.87677E+03  9.35530E+03  4.80784E+03  6.15396E+01  6.64477E+03 -7.44730E+03 -6.01552E+02
 -7.39038E+03 -9.75100E+03 -9.96887E+02 -1.46660E+04  9.28669E+03 -1.79219E+04  2.11044E+04 -8.44690E+03
  2.45913E+04  3.31981E+03  1.78796E+04  1.43719E+04  3.80081E+03  2.01542E+04 -9.20485E+03  1.73113E+04
 -1.29319E+04  4.78702E+03 -6.65577E+03 -4.10815E+03  1.64682E+03 -4.28016E+03  7.85351E+03 -1.14390E+03
  6.91988E+03  7.04989E+03  1.26568E+03  1.32302E+04 -9.72782E+03  1.21544E+04 -1.62487E+04  2.62491E+03
 -1.09555E+04 -8.25171E+03  5.91450E+01 -1.42189E+04  9.07311E+03 -7.33205E+03  1.04815E+04  4.06195E+03
  2.80516E+03  1.09879E+04 -8.96516E+03  1.20370E+04 -1.49515E+04  5.48581E+03 -1.50869E+04 -5.25855E+03
 -8.79076E+03 -1.62475E+04  3.36587E+03 -1.87935E+04  1.62068E+04 -1.17821E+04  1.84662E+04  3.71206E+03
  1.07512E+04  1.40960E+04 -1.46103E+03  1.67431E+04 -1.19085E+04  1.01253E+04 -1.39368E+04 -2.19153E+03
 -1.21192E+04 -1.18693E+04 -1.72652E+03 -1.29561E+04  7.27743E+03 -1.08150E+04  8.67789E+03 -3.49102E+03
  5.16378E+03  1.80328E+03 -1.40765E+03  2.43776E+03 -2.72234E+02 -3.67349E+03  2.31574E+03 -7.52238E+03
  1.19152E+04 -5.51251E+03  1.72778E+04  2.69133E+03  1.63241E+04  1.20048E+04  1.02173E+04  2.29252E+04
 -4.78806E+03  2.52850E+04 -2.12137E+04  1.82962E+04 -2.69920E+04  3.26936E+03 -2.26722E+04 -9.89306E+03
 -1.20504E+04 -1.81591E+04 -2.58768E+02 -1.58374E+04  5.56849E+03 -8.78188E+03  5.64219E+03 -5.60754E+03
  3.71825E+03 -3.24504E+03  3.77180E+03 -4.10057E+03  6.30998E+03 -3.47672E+03  7.61867E+03 -1.00992E+03
  1.18771E+04  1.52691E+03  6.79943E+03  1.01819E+04 -2.79968E+03  1.22600E+04 -1.20513E+04  1.01974E+04
 -1.63704E+04 -7.94794E+02 -9.56798E+03 -1.12360E+04 -1.23017E+03 -1.66139E+04  9.63110E+03 -1.65793E+04
  1.84061E+04 -9.64778E+03  2.10707E+04  3.96724E+03  1.40760E+04  1.47472E+04  2.45284E+03  1.94818E+04
 -8.49506E+03  1.49528E+04 -1.16885E+04  5.06097E+03 -8.04270E+03 -2.20874E+03 -3.38948E+03 -2.76293E+03
 -2.15978E+03 -5.27652E+02 -2.98847E+03  3.46950E+03 -5.73047E+03  2.73779E+03 -1.10268E+04 -1.72152E+03
 -7.44396E+03 -1.09399E+04  3.98154E+02 -1.56693E+04  9.54426E+03 -1.41393E+04  1.60998E+04 -4.60372E+03
  1.57426E+04  7.40398E+03  7.70222E+03  1.45941E+04 -2.80567E+03  1.57593E+04 -1.12291E+04  9.53169E+03
 -1.55416E+04  3.65717E+02 -1.13553E+04 -9.63895E+03 -1.49220E+03 -1.35967E+04  7.34253E+03 -1.02212E+04
  1.00505E+04 -3.09698E+03  6.68742E+03  3.06690E+03  2.67358E+03  4.63384E+03  8.18121E+02  2.48782E+03
  3.34791E+03  7.87138E+02  4.20701E+03  2.17962E+03  4.82754E+03  5.55184E+03  4.13148E+03  9.20471E+03
 -3.46686E+03  1.26860E+04 -1.14091E+04  1.24719E+04 -1.75507E+04  3.22311E+03 -1.74193E+04 -7.66945E+03
 -8.96612E+03 -1.69226E+04  2.75790E+03 -1.75254E+04  1.01012E+04 -1.22521E+04  1.34279E+04 -2.93422E+03
  1.00413E+04  7.28796E+03  2.42523E+03  8.99918E+03 -4.96552E+03  6.56740E+03 -6.56271E+03 -3.80493E+02
 -3.67936E+03 -7.87465E+03  4.27173E+03 -7.58028E+03  6.99538E+03 -3.37674E+03  6.33362E+03  1.02370E+03
  3.56925E+03  3.92353E+03  1.32881E+03  3.28745E+03 -9.21966E+02  2.16341E+03  1.38986E+03 -8.86047E+02
  3.15842E+03 -9.73085E+02  6.55322E+03  2.04461E+03  3.72006E+03  8.88006E+03 -1.00047E+03  1.19714E+04
 -8.00527E+03  7.63621E+03 -1.13488E+04  2.06906E+03 -9.45514E+03 -3.89119E+03 -3.54468E+03 -5.85855E+03
  6.66636E+02 -7.67123E+03  4.41457E+03 -2.67561E+03  3.16002E+03  2.90019E+03 -1.91953E+03  5.64054E+03
 -7.10857E+03  3.32976E+03 -8.22716E+03 -3.57208E+03 -3.79158E+03 -9.49159E+03  1.16945E+03 -8.87114E+03
  6.02427E+03 -5.91992E+03  7.02068E+03 -1.15759E+01  6.12908E+03  2.60584E+03  7.27059E+02  4.89094E+03
 -3.24624E+03  2.42535E+03 -4.07979E+03 -3.37522E+03  2.27638E+03 -7.78502E+03  9.29220E+03 -6.59955E+03
  1.05599E+04  7.23375E+02  1.00674E+04  7.68021E+03  3.29638E+03  1.23820E+04 -4.22280E+03  1.10484E+04
 -8.51735E+03  5.92920E+03 -9.18830E+03 -1.29263E+03 -5.56718E+03 -7.89738E+03  1.83579E+03 -6.86266E+03
  6.41935E+03 -3.26197E+03  6.05126E+03  3.07614E+03  2.68381E+03  6.22700E+03 -9.70834E+02  5.31106E+03
 -3.29491E+03  3.41901E+03 -2.38989E+03  7.50447E+02 -2.37027E+03  1.43303E+03 -2.14072E+03  1.90657E+03
 -2.65051E+03  3.89379E+03 -8.09550E+03  3.70917E+03 -1.17081E+04 -1.84936E+01 -1.32471E+04 -7.88226E+03
 -6.62437E+03 -1.56247E+04  3.01684E+03 -1.84323E+04  1.11724E+04 -1.35469E+04  1.63098E+04 -5.04788E+03
  1.54437E+04  3.04619E+03  9.03560E+03  1.07725E+04  1.13606E+03  1.20168E+04 -4.40037E+03  8.86909E+03
 -7.08001E+03  2.99112E+03 -4.64588E+03 -1.28167E+03 -1.33411E+03 -7.41634E+02 -1.80924E+02 -3.75653E+02
 -1.68928E+03  7.52914E+02 -3.39501E+03 -1.47204E+03 -1.03514E+03 -3.39324E+03 -7.45123E+01 -4.05426E+03
  4.95212E+03 -3.49261E+03  7.17070E+03  6.68271E+02  7.87444E+03  6.94159E+03  2.79987E+03  1.24108E+04
 -5.07686E+03  1.46192E+04 -1.25344E+04  8.16748E+03 -1.46848E+04 -8.31618E+02 -1.20090E+04 -8.92921E+03
 -4.33730E+03 -1.27386E+04  3.33454E+03 -1.08041E+04  8.17497E+03 -6.19510E+03  8.02009E+03  1.35529E+03
  4.73340E+03  4.80704E+03 -4.61102E+02  3.40558E+03 -2.85517E+03 -1.27883E+02  8.72856E+02 -2.99927E+03
  3.81555E+03 -2.09587E+03  4.99691E+03  2.28526E+03  3.53359E+03  4.51798E+03  6.23632E+02  6.91383E+03
 -6.53227E+03  6.66857E+03 -8.44406E+03  4.94733E+02 -7.02313E+03 -6.03732E+03 -2.37110E+03 -1.04230E+04
  6.21125E+03 -8.33394E+03  1.00069E+04 -2.07188E+03  9.27099E+03  2.11070E+03  5.84308E+03  7.94072E+03
  1.39054E+03  8.22966E+03 -2.62902E+03  7.31215E+03 -5.32284E+03  4.21490E+03 -4.01033E+03  1.36288E+03
 -2.05150E+03  3.20328E+02 -2.43247E+03  7.49714E+02 -4.39940E+03  7.97088E+02 -6.85454E+03 -1.24274E+03
 -6.16504E+03 -5.03938E+03 -2.30387E+03 -8.73984E+03  3.72780E+03 -8.85550E+03  7.36785E+03 -4.20021E+03
  9.49209E+03  1.17509E+03  4.34475E+03  6.07745E+03 -6.36388E+02  7.86825E+03 -6.58675E+03  5.48921E+03
