 $NMID ID='MM_0lb_SNR400_18hz_g55_9.RAW', FMTDAT='(8E13.5)'
 TRAMP=1., VOLUME=1. $END
  3.09582E+05  8.93804E+02  3.37652E+05  2.50420E+05  8.50184E+04  3.38149E+05 -1.33049E+05  2.50785E+05
 -1.89948E+05  8.24883E+04 -1.11062E+05 -3.28963E+04  9.99360E+02 -5.01190E+04  5.41365E+04 -5.18077E+02
  3.45371E+04  5.32096E+04 -1.70541E+04  7.55345E+04 -6.07434E+04  6.32984E+04 -8.30163E+04  3.17511E+04
 -8.02166E+04 -1.12384E+04 -5.65801E+04 -5.04928E+04 -1.50759E+04 -6.87220E+04  2.66802E+04 -4.51867E+04
  3.92858E+04  4.27096E+03  1.54201E+04  4.73166E+04 -3.48871E+04  4.66315E+04 -6.55844E+04 -2.57047E+02
 -5.27655E+04 -5.63753E+04 -6.63810E+03 -7.61919E+04  3.29295E+04 -5.39226E+04  4.73051E+04 -1.67515E+04
  4.23463E+04  1.11017E+04  3.10023E+04  2.50381E+04  1.58838E+04  2.87643E+04 -4.59182E+03  2.70337E+04
 -2.13890E+04  1.30814E+04 -1.86996E+04 -4.86864E+03  4.61094E+03 -7.77598E+03  2.19491E+04  1.15491E+04
  7.48452E+03  3.45665E+04 -3.12439E+04  3.45537E+04 -6.21409E+04  2.10324E+03 -5.61644E+04 -4.20764E+04
 -1.27752E+04 -6.17767E+04  3.92838E+04 -4.35872E+04  5.73794E+04 -2.22661E+03  3.27061E+04  3.16494E+04
 -6.30460E+03  3.43260E+04 -2.90752E+04  1.43749E+04 -2.92003E+04 -4.62890E+03 -1.46901E+04 -1.04077E+04
 -7.69289E+03 -1.19255E+04 -8.71604E+02 -1.72130E+04  7.22283E+03 -2.24750E+04  1.49173E+04 -1.38352E+04
  1.22625E+04  4.73866E+03 -7.11571E+03  1.30160E+04 -2.00158E+04 -3.19914E+03 -7.99281E+03 -3.15751E+04
  2.20052E+04 -4.20384E+04  4.61124E+04 -1.93526E+04  4.31709E+04  1.91628E+04  1.51964E+04  4.28223E+04
 -1.54090E+04  3.20111E+04 -2.46153E+04  1.35680E+03 -9.31102E+03 -2.65915E+04  2.07574E+04 -3.27574E+04
  3.95048E+04 -7.67838E+03  3.33036E+04  2.30994E+04  1.62688E+04  4.40171E+04 -8.02938E+03  4.71542E+04
 -2.99113E+04  3.12714E+04 -3.91889E+04  8.20069E+03 -3.97673E+04 -1.53569E+04 -2.21519E+04 -3.59265E+04
  7.15946E+03 -3.56015E+04  3.05013E+04 -1.38487E+04  2.77859E+04  1.09894E+04  3.65884E+03  1.84323E+04
 -1.35390E+04  7.26017E+03 -9.73141E+03 -7.61875E+03  6.12317E+03 -1.04921E+04  1.79564E+04  5.86206E+03
  1.28992E+04  2.16477E+04 -6.23133E+03  2.38280E+04 -2.18123E+04  1.01240E+04 -2.60648E+04 -6.56649E+03
 -1.77439E+04 -1.65240E+04 -6.77009E+03 -1.82219E+04  4.02778E+03 -1.62586E+04  1.36532E+04 -1.59727E+04
  2.28478E+04 -1.21520E+04  2.95825E+04  2.34892E+03  2.22479E+04  1.77631E+04  4.58381E+03  3.42356E+04
 -1.63771E+04  2.89408E+04 -2.68725E+04  9.99732E+03 -1.99075E+04 -1.05922E+04 -3.78762E+03 -1.39178E+04
  2.27702E+03 -4.28995E+03 -3.52190E+03  5.70952E+03 -1.39994E+04  5.44745E+03 -1.45627E+04 -5.64890E+03
 -8.53651E+03 -1.63914E+04  4.90550E+03 -2.06821E+04  1.36710E+04 -1.50671E+04  1.52565E+04 -1.20791E+03
  9.75270E+03  1.17926E+04 -1.02488E+03  1.70207E+04 -1.10192E+04  9.09815E+03 -1.67833E+04 -4.03840E+03
 -1.26408E+04 -1.50911E+04 -1.34755E+03 -2.03545E+04  8.84687E+03 -1.63518E+04  1.73015E+04 -8.06933E+03
  1.55927E+04  2.54997E+02  1.10711E+04  4.56619E+03  6.26949E+03  3.02790E+02  8.43088E+03 -1.45066E+03
  1.46873E+04  3.22403E+03  1.63541E+04  1.31866E+04  1.05977E+04  2.59916E+04 -2.84316E+03  2.88108E+04
 -1.72414E+04  2.21077E+04 -2.67694E+04  1.09877E+04 -2.79776E+04 -2.21527E+03 -2.29011E+04 -1.53799E+04
 -1.06110E+04 -2.27955E+04  7.37051E+03 -2.01707E+04  1.72725E+04 -1.12075E+04  1.65699E+04  4.36750E+03
  6.96807E+03  1.22790E+04 -6.99919E+03  1.03782E+04 -1.38260E+04  2.50882E+03 -1.11458E+04 -8.10698E+03
 -6.33628E+02 -1.34716E+04  6.85825E+03 -1.00563E+04  8.21004E+03 -1.15532E+03  1.83424E+03  5.19981E+03
 -5.90796E+03  1.71572E+03 -4.43518E+03 -4.56534E+03  4.95115E+02 -1.06495E+04  8.58820E+03 -1.13900E+04
  1.34574E+04 -5.30417E+03  1.37556E+04  3.04478E+03  1.19179E+04  1.02263E+04  5.67265E+03  1.59345E+04
 -2.35414E+03  1.77219E+04 -1.09882E+04  1.01013E+04 -1.26507E+04  3.21314E+03 -8.68288E+03 -1.98990E+03
 -4.69619E+03 -4.20801E+03 -9.31971E+02  1.63511E+03 -2.05195E+03  2.03668E+03 -3.75544E+03  4.07726E+03
 -8.58077E+03 -7.01579E+02 -9.44883E+03 -7.43403E+03 -3.56139E+03 -1.22851E+04  3.16693E+03 -8.68559E+03
  7.74118E+03 -4.42473E+03  6.03434E+03  2.05628E+03  6.71634E+02  3.12225E+03 -4.24338E+03 -5.93090E+02
 -3.96330E+03 -6.11180E+03 -4.46669E+02 -8.01994E+03  4.28491E+03 -8.89785E+03  1.05782E+04 -4.31120E+03
  1.30997E+04  1.03461E+03  9.23623E+03  7.05070E+03  1.84754E+03  9.47431E+03 -5.64396E+03  9.35976E+03
 -7.34124E+03  3.60825E+03 -3.58359E+03 -1.04040E+03  9.69456E+02 -1.87689E+03  5.72898E+03 -1.09352E+03
  4.28756E+03  3.84744E+03  1.07855E+03  6.86297E+03 -5.37064E+03  6.64264E+03 -8.50076E+03  2.09234E+03
 -5.31890E+03 -4.19885E+03  2.50524E+02 -7.52293E+03  3.81609E+03 -3.32876E+03  4.18369E+03  1.04650E+03
  5.01700E+02  3.98474E+03 -4.70533E+03  5.26218E+03 -5.31076E+03  2.72641E+03 -5.16542E+03 -1.51922E+03
 -3.11246E+03 -7.00581E+03  1.19534E+03 -7.90149E+03  6.79220E+03 -5.33120E+03  7.50466E+03  8.97285E+02
  5.04697E+03  6.24725E+03 -2.81765E+01  7.95772E+03 -5.73180E+03  4.03243E+03 -6.00198E+03 -8.84035E+02
 -5.50454E+03 -5.80248E+03 -1.54094E+03 -5.11335E+03  2.67157E+03 -4.82679E+03  3.11363E+03 -3.45624E+03
  3.31259E+03 -5.87496E+01 -2.27637E+02  1.65496E+03  2.96043E+02 -7.27467E+02  8.41850E+01 -2.45436E+03
  4.44772E+03 -1.39239E+03  6.08583E+03  9.53372E+02  6.48527E+03  3.65692E+03  5.95947E+03  7.92579E+03
 -1.82394E+03  9.30092E+03 -8.17590E+03  7.46341E+03 -1.09919E+04  1.58585E+03 -8.01664E+03 -2.98377E+03
 -4.46844E+03 -7.33090E+03 -4.44424E+02 -5.63951E+03  1.91604E+03 -2.24260E+03  2.28387E+03 -1.66388E+03
  1.42716E+03 -1.63252E+03  2.34331E+03 -1.99751E+03  3.33919E+03 -1.30612E+03  3.85929E+03  7.39870E+02
  4.79376E+03  1.59321E+03  1.15827E+03  3.90793E+03 -1.43729E+03  3.40697E+03 -4.77147E+03  3.13139E+03
 -5.73511E+03 -1.09234E+03 -2.18782E+03 -3.03917E+03  3.75746E+02 -5.95684E+03  3.92444E+03 -5.44017E+03
  4.89825E+03 -3.91136E+03  7.56176E+03  3.07684E+02  5.18712E+03  4.92145E+03  1.06960E+03  6.60194E+03
 -2.23939E+03  6.42967E+03 -3.24098E+03  2.47118E+03 -2.44256E+03 -1.46057E+03 -9.41208E+02 -5.64727E+02
 -3.45486E+02  4.57734E+02 -9.22181E+02  1.65593E+03 -3.27555E+03  1.13674E+03 -4.39352E+03 -4.12837E+02
 -1.56437E+03 -4.42488E+03  9.03968E+02 -4.87434E+03  3.21844E+03 -5.09607E+03  4.14322E+03 -1.17977E+03
  4.53397E+03  2.03381E+03  1.66096E+03  3.75385E+03 -1.15917E+03  5.13808E+03 -3.12785E+03  3.50570E+03
 -4.67056E+03  8.61254E+02 -4.38318E+03 -2.66626E+03 -1.01913E+01 -3.75495E+03  1.73034E+03 -2.50495E+03
  3.14167E+03 -1.04274E+03  2.34689E+03  3.85317E+02  8.29926E+02  1.57737E+03  6.66419E+02  7.05108E+02
  1.77884E+03  1.71620E+02  1.42714E+03  1.44017E+03  7.10924E+02  2.62276E+03  1.79264E+03  1.54338E+03
 -1.78340E+03  3.36288E+03 -2.74171E+03  3.96300E+03 -3.24247E+03  9.33254E+02 -4.18729E+03 -4.00716E+02
 -1.77213E+03 -3.78364E+03  2.28867E+02 -5.02343E+03  1.89992E+03 -2.98460E+03  2.68198E+03 -9.06257E+02
  2.93412E+03  1.77353E+03  8.23704E+02  2.72231E+03 -2.48767E+02  1.52339E+03 -1.19947E+03 -5.12873E+02
 -6.44301E+02 -1.50062E+03  1.18819E+03 -1.54741E+03  9.81589E+02 -9.51462E+02  1.44302E+03  2.63008E+02
  9.75767E+02  1.79066E+02  4.80666E+02  8.69182E+01 -4.71325E+02  5.07943E+02  1.42778E+03 -9.40345E+02
 -4.90962E+02  3.27854E+02  1.61512E+03  1.26054E+03  4.84724E+02  2.54294E+03 -9.33970E+02  3.02135E+03
 -1.57783E+03  1.42926E+03 -2.40766E+03  7.48931E+02 -2.12541E+03 -8.37453E+02  1.25536E+02 -1.11111E+03
  7.32368E+02 -1.41846E+03  1.00786E+03 -6.56339E+02  5.85433E+02  1.46824E+03 -1.19327E+03  1.02433E+03
 -1.88179E+03  5.55583E+02 -1.53095E+03 -1.57443E+03 -8.47290E+02 -2.43964E+03  3.98588E+02 -1.54832E+03
  8.16973E+02 -6.86806E+02  1.14242E+03 -3.07654E+02  1.47888E+03 -2.53948E+02 -3.24353E+01  8.08338E+02
 -5.25553E+02  2.15724E+02 -1.38767E+03  1.65517E+02  1.10663E+03 -6.02079E+02  1.78152E+03 -1.06774E+03
  1.41457E+03  4.60100E+02  3.05807E+03  8.59936E+02  1.44617E+03  1.71174E+03 -5.71883E+02  2.23854E+03
 -1.82547E+03  3.69463E+01 -1.56265E+03 -3.78687E+02 -1.43699E+03 -1.79826E+03  5.65129E+02 -1.14488E+03
  1.49387E+03 -8.45589E+02  5.15233E+02  1.15679E+03 -3.61079E+02  1.43435E+03  1.62911E+02  9.94543E+02
 -2.87590E+02  1.69583E+03 -8.24038E+01  2.43082E+00 -2.89130E+02  5.50612E+02 -1.68437E+02  7.20171E+02
 -7.65320E+02  1.13793E+03 -1.86154E+03  6.27905E+02 -1.93597E+03  3.48299E+02 -2.69313E+03 -9.06771E+02
 -4.94646E+02 -2.71623E+03  3.18973E+02 -3.11689E+03  1.52735E+03 -3.04853E+03  3.02310E+03 -6.69753E+02
  2.37486E+03 -2.15119E+01  1.19487E+03  1.54381E+03 -1.10557E+03  2.01932E+03 -8.00436E+02  1.56274E+03
 -8.19706E+02  1.06200E+03 -4.10575E+02 -1.04703E+03 -6.08871E+02  1.26060E+02 -2.36511E+02 -8.14485E+01
 -6.30428E+02 -4.11413E+02 -1.23621E+03 -1.18408E+02  2.60526E+02 -8.91671E+02 -4.75482E+02 -6.54990E+02
  1.23399E+03 -1.13174E+03  8.75650E+02  5.90350E+01  1.33545E+03  1.11850E+03 -4.10500E+02  1.07887E+03
 -9.12312E+02  2.41191E+03 -1.49289E+03  1.26201E+03 -2.00888E+03 -1.03398E+02 -1.43947E+03 -1.29055E+03
 -1.36668E+03 -1.30941E+03  2.91323E+02 -1.21723E+03  8.07692E+02 -1.03221E+03  2.28948E+02 -1.03255E+02
  7.01934E+02  4.35311E+02 -5.95983E+01  7.88449E+02 -7.99478E+01  2.40069E+01 -5.24338E+01 -1.83394E+02
  2.83863E+02  1.91809E+02 -6.12184E+00  4.88171E+02 -3.91499E+01  9.27005E+02  5.79898E+02  2.28730E+02
 -9.00801E+02  5.84908E+02 -4.64028E+02 -3.60581E+02 -6.95239E+02 -7.95876E+02  1.22142E+02 -1.15977E+03
  1.29515E+03  9.90891E+01  1.54713E+02  3.75277E+01  9.83850E+02 -8.32841E+02  7.92950E+01  8.67708E+02
  4.04786E+02  7.85288E+02  1.06029E+02  6.79650E+01 -6.72992E+02  6.02818E+02 -1.43069E+02 -2.93832E+02
  2.73199E+02  3.52552E+02 -1.52549E+02  1.58038E+01 -8.28884E+02  3.99415E+02 -5.50545E+02 -2.74667E+02
 -1.68768E+03 -8.06035E+01 -5.65103E+02 -6.04310E+02  6.00189E+02 -1.82802E+03  1.40707E+03 -1.10025E+02
  9.02463E+02  5.69381E+01 -2.63235E+02  5.89769E+02 -3.29429E+02  8.40202E+02 -7.09134E+02  1.11699E+03
