 $NMID ID='MM_0lb_SNR400_17hz_g55_89.RAW', FMTDAT='(8E13.5)'
 TRAMP=1., VOLUME=1. $END
  3.10141E+05  1.73250E+02  3.37538E+05  2.50159E+05  8.48644E+04  3.37772E+05 -1.32576E+05  2.51142E+05
 -1.90166E+05  8.29247E+04 -1.12044E+05 -3.26291E+04  8.81416E+02 -4.97595E+04  5.42450E+04  4.33823E+02
  3.49841E+04  5.27795E+04 -1.69191E+04  7.56706E+04 -6.03299E+04  6.28736E+04 -8.39901E+04  3.18332E+04
 -8.08917E+04 -1.11926E+04 -5.67940E+04 -5.06719E+04 -1.50150E+04 -6.93552E+04  2.66721E+04 -4.53261E+04
  3.99835E+04  3.20371E+03  1.57541E+04  4.73741E+04 -3.44490E+04  4.67350E+04 -6.62494E+04 -6.46613E+02
 -5.30442E+04 -5.68711E+04 -6.62781E+03 -7.63685E+04  3.37884E+04 -5.43744E+04  4.74539E+04 -1.71869E+04
  4.25942E+04  1.13908E+04  3.15698E+04  2.55313E+04  1.56252E+04  2.89559E+04 -4.73275E+03  2.66506E+04
 -2.17829E+04  1.23188E+04 -1.83166E+04 -4.59372E+03  5.62757E+03 -7.65376E+03  2.15904E+04  1.17748E+04
  6.88287E+03  3.46083E+04 -3.17319E+04  3.49790E+04 -6.23222E+04  1.74309E+03 -5.59862E+04 -4.17992E+04
 -1.23924E+04 -6.24595E+04  3.95773E+04 -4.49456E+04  5.76191E+04 -2.52445E+03  3.34903E+04  3.20048E+04
 -6.19804E+03  3.47061E+04 -2.95124E+04  1.41711E+04 -2.86057E+04 -4.66780E+03 -1.59761E+04 -1.07548E+04
 -8.12693E+03 -1.27512E+04 -9.85459E+02 -1.77913E+04  7.00557E+03 -2.32972E+04  1.49558E+04 -1.36664E+04
  1.11871E+04  4.86665E+03 -7.51348E+03  1.31267E+04 -2.00262E+04 -3.99887E+03 -8.40104E+03 -3.32185E+04
  2.21436E+04 -4.26868E+04  4.75414E+04 -1.94080E+04  4.35703E+04  1.85965E+04  1.47382E+04  4.32952E+04
 -1.56869E+04  3.22353E+04 -2.46406E+04  1.33563E+03 -9.22227E+03 -2.76895E+04  2.09281E+04 -3.34500E+04
  3.93561E+04 -8.02542E+03  3.40873E+04  2.39422E+04  1.66187E+04  4.53397E+04 -8.05336E+03  4.75958E+04
 -3.11492E+04  3.17931E+04 -4.05949E+04  9.01587E+03 -4.08153E+04 -1.58724E+04 -2.22775E+04 -3.60173E+04
  7.33302E+03 -3.61823E+04  3.06804E+04 -1.33229E+04  2.84171E+04  1.11534E+04  3.13579E+03  1.84549E+04
 -1.34732E+04  8.32363E+03 -1.02150E+04 -6.75022E+03  6.35045E+03 -1.06420E+04  1.78046E+04  6.47217E+03
  1.30393E+04  2.20891E+04 -5.99051E+03  2.39907E+04 -2.19401E+04  1.06585E+04 -2.65525E+04 -5.80591E+03
 -1.88336E+04 -1.67379E+04 -7.57070E+03 -1.88412E+04  3.44504E+03 -1.68784E+04  1.44781E+04 -1.64186E+04
  2.34472E+04 -1.25529E+04  3.05182E+04  2.70466E+03  2.23897E+04  1.90575E+04  3.87657E+03  3.47360E+04
 -1.76522E+04  2.89434E+04 -2.70576E+04  1.00690E+04 -1.99829E+04 -1.06311E+04 -3.84911E+03 -1.28744E+04
  2.30140E+03 -3.19571E+03 -4.17819E+03  6.12330E+03 -1.44527E+04  5.14930E+03 -1.51189E+04 -6.13587E+03
 -9.91090E+03 -1.75760E+04  5.47711E+03 -2.15150E+04  1.38714E+04 -1.49273E+04  1.65319E+04 -1.79309E+03
  1.01362E+04  1.19099E+04 -6.93761E+02  1.75503E+04 -1.14911E+04  1.00769E+04 -1.67823E+04 -3.37998E+03
 -1.31442E+04 -1.62560E+04 -1.61121E+03 -2.14555E+04  9.69260E+03 -1.71744E+04  1.77128E+04 -8.00624E+03
  1.61865E+04  8.99543E+02  1.13617E+04  4.00108E+03  5.26620E+03  5.81160E+02  8.08801E+03 -1.48642E+03
  1.55935E+04  2.75864E+03  1.72712E+04  1.36782E+04  1.08285E+04  2.73190E+04 -3.30580E+03  3.01558E+04
 -1.81187E+04  2.40880E+04 -2.84116E+04  1.15265E+04 -2.90108E+04 -1.95625E+03 -2.42921E+04 -1.68512E+04
 -1.09085E+04 -2.38080E+04  8.44097E+03 -2.19170E+04  1.85672E+04 -1.23299E+04  1.80940E+04  4.46148E+03
  7.36424E+03  1.24660E+04 -7.53107E+03  1.16561E+04 -1.48145E+04  2.56964E+03 -1.14411E+04 -8.83327E+03
 -1.51563E+02 -1.32407E+04  6.65052E+03 -1.07190E+04  8.48068E+03 -7.41147E+02  1.45341E+03  5.51791E+03
 -6.12640E+03  2.04156E+03 -4.62984E+03 -4.85065E+03  2.91037E+02 -1.20881E+04  8.87418E+03 -1.21302E+04
  1.41327E+04 -5.62976E+03  1.45404E+04  3.03254E+03  1.26370E+04  1.14019E+04  6.00486E+03  1.70385E+04
 -2.42029E+03  1.81430E+04 -1.19464E+04  1.21908E+04 -1.32432E+04  3.42421E+03 -1.03413E+04 -2.22728E+03
 -4.85448E+03 -3.95732E+03 -7.28629E+02  1.35285E+03 -1.84033E+03  2.09883E+03 -4.77562E+03  4.31036E+03
 -9.57322E+03 -4.30589E+02 -9.48401E+03 -8.19926E+03 -3.98060E+03 -1.32919E+04  4.02392E+03 -9.98185E+03
  7.97324E+03 -4.77899E+03  6.26164E+03  2.41836E+03  5.83429E+02  3.56244E+03 -4.38340E+03 -4.46489E+02
 -4.65330E+03 -6.31749E+03 -9.05905E+02 -9.26977E+03  4.73438E+03 -8.64123E+03  1.18275E+04 -4.55162E+03
  1.39828E+04  7.86253E+02  1.02712E+04  8.01107E+03  1.67126E+03  1.08569E+04 -6.32376E+03  1.00871E+04
 -7.87832E+03  3.11111E+03 -4.03083E+03 -1.22537E+03  1.52573E+03 -2.46135E+03  5.84807E+03 -1.10769E+03
  4.64262E+03  4.03108E+03  8.27313E+02  7.45891E+03 -5.25241E+03  7.48480E+03 -9.22739E+03  1.94835E+03
 -5.41906E+03 -4.42159E+03  5.49000E+02 -7.86502E+03  4.12322E+03 -3.85497E+03  4.59131E+03  1.48472E+03
  7.96199E+02  4.33919E+03 -4.55333E+03  6.42954E+03 -6.17382E+03  2.78301E+03 -6.49000E+03 -1.06765E+03
 -3.29356E+03 -7.41608E+03  1.00504E+03 -8.73565E+03  7.23640E+03 -5.37626E+03  7.73830E+03  1.30432E+03
  5.34269E+03  6.47377E+03 -3.07710E+02  8.40782E+03 -5.93513E+03  4.69771E+03 -6.14087E+03 -6.27208E+02
 -6.49674E+03 -5.90943E+03 -1.16894E+03 -6.30535E+03  2.64603E+03 -5.22525E+03  4.35569E+03 -3.00257E+03
  2.83085E+03  9.89552E+01  1.60264E+02  1.52398E+03  4.47461E+02 -1.30853E+03  3.85123E+02 -2.96313E+03
  4.75948E+03 -1.49891E+03  6.87454E+03  5.19630E+02  7.11154E+03  4.19013E+03  6.10889E+03  9.76570E+03
 -1.60788E+03  1.05711E+04 -9.41734E+03  9.12032E+03 -1.20407E+04  1.63252E+03 -9.69038E+03 -3.17813E+03
 -4.98697E+03 -8.06914E+03 -4.32262E+01 -6.67662E+03  2.78791E+03 -3.28948E+03  2.07486E+03 -2.17907E+03
  1.75819E+03 -1.13886E+03  2.10934E+03 -2.93706E+03  3.34386E+03 -1.56141E+03  4.24500E+03  3.10493E+02
  5.77744E+03  1.59086E+03  1.85597E+03  4.14845E+03 -1.98239E+03  3.23765E+03 -5.21502E+03  3.70140E+03
 -6.40289E+03 -1.31677E+03 -2.04569E+03 -3.72160E+03  6.49752E+02 -6.32200E+03  4.18952E+03 -6.86508E+03
  6.31609E+03 -3.97788E+03  8.64720E+03 -1.30326E+00  5.97339E+03  5.81383E+03  1.20911E+03  7.44301E+03
 -3.11234E+03  7.25958E+03 -4.65877E+03  2.30800E+03 -2.24934E+03 -1.37351E+03 -9.47553E+02 -2.12943E+02
 -1.08211E+03  6.52305E+02 -6.91674E+02  2.26032E+03 -3.27458E+03  1.84844E+03 -5.37936E+03 -7.46214E+02
 -1.79520E+03 -4.92983E+03  6.62618E+02 -6.11929E+03  3.56507E+03 -5.31685E+03  4.76958E+03 -1.57304E+03
  4.77998E+03  2.79470E+03  2.07825E+03  4.24682E+03 -9.20047E+02  5.72773E+03 -3.43764E+03  4.06185E+03
 -4.46325E+03  3.21147E+02 -4.06174E+03 -2.76886E+03 -6.36291E+02 -3.89127E+03  2.27620E+03 -3.03892E+03
  4.09634E+03 -1.65645E+03  2.55204E+03  3.69270E+02  5.10287E+02  2.13554E+03  4.77897E+02  1.73980E+02
  2.26860E+03  8.53254E+02  1.96546E+03  9.10405E+02  1.96258E+03  2.39766E+03  1.53533E+03  2.63935E+03
 -2.04914E+03  4.05173E+03 -3.65998E+03  4.27241E+03 -4.77153E+03  8.43481E+02 -5.38186E+03 -7.19217E+02
 -2.02081E+03 -4.69274E+03  8.74740E+02 -5.91214E+03  2.87777E+03 -3.01062E+03  3.19661E+03 -1.23167E+03
  3.06879E+03  2.32729E+03 -7.95292E+01  2.59857E+03 -1.23830E+03  1.65342E+03 -1.38748E+03 -2.64188E+02
 -1.03439E+03 -2.15271E+03  1.76647E+03 -1.89948E+03  1.81080E+03 -1.01228E+03  1.32606E+03  9.90207E+02
  6.40505E+02  2.93113E+02  7.68254E+02  4.41167E+02 -5.84565E+02  5.43244E+02  1.26480E+03  3.60915E+02
  4.12607E+02 -6.76010E+02  2.28026E+03  8.58520E+02  2.08534E+02  2.62390E+03 -2.14326E+02  3.48404E+03
 -2.53054E+03  1.52905E+03 -2.66359E+03  7.99426E+02 -2.39608E+03 -1.16273E+03  6.72644E+01 -1.73522E+03
  8.60752E+02 -1.46530E+03  9.29800E+02 -6.46094E+02  9.00241E+02  1.11470E+03 -7.50577E+02  1.30674E+03
 -2.26811E+03  8.34487E+02 -1.70842E+03 -2.00105E+03 -4.64769E+02 -2.19823E+03  4.91184E+00 -1.84764E+03
  2.48195E+02 -9.52137E+02  1.70791E+03  2.31391E+02  1.84833E+03 -2.49984E+02  4.36375E+02  1.41535E+03
 -3.81292E+02  6.35354E+02 -1.14324E+03 -6.70601E+02  5.43940E+02 -1.19966E+03  2.65014E+03 -7.31747E+02
  2.10752E+03  3.48166E+02  3.82754E+03  1.26230E+03  1.21322E+03  1.96658E+03 -1.43670E+01  2.36192E+03
 -2.09516E+03  5.58860E+02 -1.44957E+03 -2.40384E+02 -1.04757E+03 -1.75710E+03  1.86964E+02 -7.38218E+02
  1.40476E+03 -1.05173E+03  1.10856E+03  8.53814E+02  2.24798E+02  1.72181E+03  3.36931E+02  8.83283E+02
 -9.36786E+02  1.17737E+03 -5.72934E+02  3.89727E+02  4.84052E+01 -3.79587E+01 -7.28961E+02  1.10800E+03
 -6.76082E+02  1.49021E+03 -2.65401E+03  5.66405E+02 -2.01107E+03  2.39014E+02 -3.50034E+03 -1.24645E+03
 -1.59386E+03 -3.03106E+03  1.33320E+02 -4.25114E+03  1.39394E+03 -2.86720E+03  3.67605E+03 -1.76042E+03
  3.32530E+03  2.85108E+02  1.84915E+03  1.63782E+03 -4.36378E+02  1.72768E+03 -4.58033E+02  1.92847E+03
 -1.18199E+03  1.00776E+03 -1.08720E+03 -4.56521E+02 -5.99937E+02  2.20905E+01 -1.12887E+03 -1.58318E+02
 -1.02451E+03 -2.40552E+02 -5.50401E+02 -5.22660E+02  1.92516E+02 -2.27126E+02 -3.63087E+01 -4.58885E+02
  2.24949E+03 -6.74596E+02  6.36053E+02  2.74176E+02  1.54450E+03  1.41795E+03 -6.48267E+02  1.59257E+03
 -1.22419E+03  2.81339E+03 -2.54681E+03  1.84595E+03 -2.37887E+03 -3.88877E+02 -1.77649E+03 -1.81501E+03
 -1.28505E+03 -2.05215E+03  1.39746E+02 -2.03340E+03  8.52096E+02 -5.23719E+02  1.26435E+03  1.05663E+02
  3.58816E+02  2.13256E+02  4.39165E+02  2.61417E+02 -1.31681E+03 -1.34799E+02  3.67702E+02 -4.83269E+02
  9.87072E+02 -1.94590E+02  3.79175E+02  7.22399E+02  4.10597E+02  5.97041E+02  1.13987E+02  7.58909E+02
 -5.32492E+02  1.05299E+03 -1.14670E+03  3.36208E+02 -1.00724E+03 -6.53034E+02 -8.48867E+02 -1.14728E+03
  9.34018E+02 -9.74096E+02  1.05967E+03 -5.59320E+01  1.66308E+03 -8.14876E+02  1.82469E+02  2.57074E+02
  9.13469E+02  1.31413E+03 -3.36293E+02  3.93915E+02 -8.77148E+02  4.26043E+02 -4.50791E+02  1.68262E+02
 -4.02408E+02  2.35419E+02 -4.87942E+02  3.10738E+02 -5.96521E+02 -3.23600E+02 -8.69832E+02 -6.86722E+02
 -1.02910E+03  7.44640E+02 -3.30345E+02 -1.15326E+03  5.56294E+02 -1.88482E+03  1.15947E+03 -3.60385E+02
  9.61223E+02  2.66504E+02 -2.79014E+02  1.05183E+02 -3.31029E+01  1.07354E+03 -6.73345E+02  7.91055E+02
