 $NMID ID='MM_0lb_SNR400_20hz_g40_89.RAW', FMTDAT='(8E13.5)'
 TRAMP=1., VOLUME=1. $END
  3.09922E+05  3.46313E+02  3.37358E+05  2.50171E+05  8.44366E+04  3.36657E+05 -1.32324E+05  2.49307E+05
 -1.89352E+05  8.26756E+04 -1.10992E+05 -3.33421E+04  1.61792E+03 -4.99119E+04  5.38586E+04  2.43119E+01
  3.50387E+04  5.31063E+04 -1.68426E+04  7.46410E+04 -5.97613E+04  6.20649E+04 -8.24564E+04  3.12299E+04
 -7.87320E+04 -1.07813E+04 -5.56335E+04 -4.90672E+04 -1.48073E+04 -6.75607E+04  2.59412E+04 -4.40660E+04
  3.83262E+04  3.46596E+03  1.48690E+04  4.58494E+04 -3.41006E+04  4.56423E+04 -6.51098E+04 -4.56097E+02
 -5.14851E+04 -5.51166E+04 -5.76231E+03 -7.36420E+04  3.28382E+04 -5.18277E+04  4.56563E+04 -1.54241E+04
  4.06474E+04  1.09650E+04  3.05099E+04  2.38166E+04  1.57407E+04  2.71279E+04 -4.54092E+03  2.67884E+04
 -2.09625E+04  1.24404E+04 -1.93786E+04 -3.91303E+03  3.56114E+03 -8.12785E+03  2.02462E+04  9.86748E+03
  7.70740E+03  3.21909E+04 -2.97013E+04  3.29250E+04 -6.01291E+04  2.20870E+03 -5.44655E+04 -3.97832E+04
 -1.26810E+04 -5.96769E+04  3.72818E+04 -4.19032E+04  5.39022E+04 -1.74724E+03  3.04255E+04  2.99135E+04
 -6.72722E+03  3.14849E+04 -2.79207E+04  1.19110E+04 -2.57837E+04 -5.49286E+03 -1.37222E+04 -1.01419E+04
 -6.79779E+03 -1.03973E+04 -1.50022E+03 -1.56276E+04  6.34971E+03 -2.19419E+04  1.43786E+04 -1.45198E+04
  1.24003E+04  4.01214E+03 -5.45828E+03  1.32423E+04 -1.86125E+04 -2.01330E+03 -7.85753E+03 -2.86727E+04
  1.99034E+04 -3.89968E+04  4.26051E+04 -1.80834E+04  4.03033E+04  1.81060E+04  1.31363E+04  4.02725E+04
 -1.47423E+04  3.04741E+04 -2.21749E+04  7.13057E+02 -7.24063E+03 -2.53867E+04  2.06138E+04 -2.99549E+04
  3.62242E+04 -6.36248E+03  2.88574E+04  2.21289E+04  1.42266E+04  4.11746E+04 -8.09383E+03  4.27613E+04
 -2.70730E+04  2.83135E+04 -3.49400E+04  7.89871E+03 -3.62275E+04 -1.40782E+04 -1.98666E+04 -3.28616E+04
  6.21542E+03 -3.24527E+04  2.81549E+04 -1.21006E+04  2.56585E+04  1.08289E+04  2.88290E+03  1.71229E+04
 -1.27849E+04  6.88526E+03 -9.21430E+03 -7.90896E+03  5.82344E+03 -9.12693E+03  1.71623E+04  6.75781E+03
  1.17189E+04  2.09945E+04 -6.88150E+03  2.24005E+04 -2.10185E+04  7.90289E+03 -2.39052E+04 -7.09842E+03
 -1.43068E+04 -1.62445E+04 -3.78173E+03 -1.46384E+04  3.71696E+03 -1.23445E+04  1.17245E+04 -1.26807E+04
  1.94235E+04 -1.14014E+04  2.67520E+04  6.04827E+02  2.00182E+04  1.48203E+04  3.85712E+03  3.06489E+04
 -1.52704E+04  2.63079E+04 -2.48162E+04  8.99769E+03 -1.97238E+04 -1.03960E+04 -3.81318E+03 -1.39247E+04
  3.16771E+03 -4.56590E+03 -1.31821E+03  4.40078E+03 -1.16304E+04  5.68418E+03 -1.18849E+04 -3.62276E+03
 -7.87423E+03 -1.39496E+04  4.46513E+03 -1.77657E+04  1.13424E+04 -1.30475E+04  1.33516E+04 -1.53856E+03
  7.96239E+03  1.04564E+04 -9.96418E+02  1.43428E+04 -8.89260E+03  8.20707E+03 -1.40532E+04 -3.16765E+03
 -1.04815E+04 -1.28877E+04 -1.20090E+03 -1.72743E+04  8.11876E+03 -1.31984E+04  1.51137E+04 -6.15386E+03
  1.35802E+04  4.58841E+02  9.74230E+03  3.40084E+03  4.39326E+03  2.45001E+02  6.84841E+03 -1.04395E+03
  1.24598E+04  2.36335E+03  1.24658E+04  1.12159E+04  7.56114E+03  2.20443E+04 -3.41290E+03  2.35475E+04
 -1.34937E+04  1.81442E+04 -2.12732E+04  7.98976E+03 -2.18902E+04 -1.75650E+03 -1.90106E+04 -1.21603E+04
 -9.49304E+03 -1.72070E+04  6.03698E+03 -1.64995E+04  1.47027E+04 -1.03774E+04  1.35820E+04  3.20749E+03
  6.22010E+03  9.66198E+03 -6.41461E+03  9.81592E+03 -1.22282E+04  2.47205E+03 -9.24926E+03 -7.56392E+03
 -5.62347E+01 -1.15720E+04  5.55370E+03 -8.40991E+03  6.93858E+03 -1.89772E+03  5.95660E+02  4.72520E+03
 -5.56769E+03  6.87678E+02 -2.88375E+03 -4.10535E+03  1.44132E+03 -8.68106E+03  7.30220E+03 -8.20010E+03
  1.07575E+04 -3.83156E+03  9.93658E+03  2.77470E+03  8.29089E+03  8.34739E+03  4.36599E+03  1.16838E+04
 -1.00299E+03  1.37774E+04 -7.92072E+03  8.44355E+03 -9.23073E+03  2.84540E+03 -7.56513E+03 -2.40842E+02
 -4.23132E+03 -3.07419E+03 -9.80246E+02  1.07280E+03 -2.30250E+03  1.52528E+03 -2.71852E+03  3.51271E+03
 -7.05647E+03 -6.55752E+02 -7.46525E+03 -6.52470E+03 -3.89281E+03 -1.04323E+04  2.93135E+03 -7.60194E+03
  6.30900E+03 -3.26158E+03  4.40145E+03  1.88136E+03  4.29107E+02  2.78286E+03 -2.79679E+03 -2.90011E+02
 -3.37829E+03 -3.97547E+03 -7.73885E+02 -6.22449E+03  3.02024E+03 -6.76501E+03  8.43972E+03 -3.20161E+03
  1.02288E+04  7.83463E+01  7.61225E+03  4.62789E+03  1.10699E+03  7.48003E+03 -4.29308E+03  7.01400E+03
 -6.21836E+03  2.76680E+03 -3.06384E+03 -8.84829E+02  1.68508E+03 -1.69716E+03  4.23576E+03 -7.86726E+02
  3.67853E+03  3.15751E+03  1.61580E+03  5.47016E+03 -3.70831E+03  5.47487E+03 -7.03920E+03  1.79620E+03
 -3.83939E+03 -3.25862E+03  2.89195E+02 -5.79263E+03  2.94814E+03 -2.85065E+03  3.11521E+03  7.22231E+02
  3.57366E+02  2.11701E+03 -3.48461E+03  3.83480E+03 -3.55512E+03  2.21607E+03 -3.57952E+03 -8.38431E+02
 -2.28469E+03 -4.98592E+03  1.01944E+03 -5.52454E+03  4.70651E+03 -3.96586E+03  5.52380E+03  8.85458E+02
  3.93377E+03  4.77515E+03  3.09723E+02  6.33931E+03 -3.87643E+03  3.65368E+03 -4.25471E+03 -2.79975E+02
 -4.82312E+03 -4.58139E+03 -1.75225E+03 -4.24377E+03  2.31313E+03 -4.04356E+03  2.72593E+03 -2.66312E+03
  2.46519E+03  2.19115E+02  2.69348E+02  1.26423E+03  6.31931E+02  3.97836E+02 -2.07128E+02 -7.46276E+02
  2.54556E+03 -1.45929E+02  4.08728E+03  6.61533E+02  4.78455E+03  3.05378E+03  4.80989E+03  5.82447E+03
 -8.50575E+02  7.19859E+03 -6.41331E+03  5.70803E+03 -8.64240E+03  1.12225E+03 -6.23665E+03 -2.30952E+03
 -3.60095E+03 -5.31125E+03 -3.24398E+02 -4.17116E+03  1.55195E+03 -1.49533E+03  1.46772E+03 -1.60344E+03
  1.27076E+03 -1.44502E+03  2.02953E+03 -2.15641E+03  3.74828E+03 -1.18139E+03  2.90224E+03  8.11809E+02
  4.14020E+03  1.07915E+03  6.18128E+02  2.40590E+03 -1.74838E+03  2.01055E+03 -3.91161E+03  2.54019E+03
 -4.18920E+03 -9.09200E+02 -9.22810E+02 -2.96177E+03  4.45923E+02 -3.82650E+03  2.67240E+03 -3.93263E+03
  3.76553E+03 -2.57121E+03  5.36821E+03 -9.48609E+01  3.83474E+03  3.27704E+03  1.21451E+03  5.03604E+03
 -1.70430E+03  4.64595E+03 -2.39300E+03  1.66775E+03 -1.68443E+03 -1.11968E+03 -8.51750E+02 -4.22024E+02
 -2.84091E+02  4.36425E+02 -7.70143E+02  1.78720E+03 -2.00517E+03  1.01353E+03 -3.48448E+03 -2.36905E+02
 -1.27401E+03 -3.33574E+03  5.93282E+02 -3.93469E+03  1.94446E+03 -3.72203E+03  2.42608E+03 -8.11515E+02
  3.36749E+03  1.85124E+03  1.24915E+03  2.41093E+03 -5.54736E+02  3.73860E+03 -1.94550E+03  1.91455E+03
 -3.06317E+03  4.54055E+02 -2.76619E+03 -1.53555E+03  3.34682E+02 -2.67796E+03  1.43367E+03 -1.50649E+03
  2.03643E+03 -1.14362E+03  1.92843E+03 -5.66882E+01  7.54256E+01  1.34411E+03  1.13000E+03  4.90783E+02
  1.54345E+03  1.68850E+02  7.45707E+02  1.01415E+03  1.04676E+03  1.86031E+03  1.26805E+03  1.54003E+03
 -8.69410E+02  2.53816E+03 -1.81986E+03  3.35190E+03 -1.97919E+03  8.34176E+02 -3.40260E+03  2.85108E+02
 -1.31814E+03 -3.17084E+03  7.04452E+02 -3.68356E+03  1.24578E+03 -2.14302E+03  2.51504E+03 -8.54693E+02
  2.31871E+03  1.62805E+03  2.84797E+02  1.52702E+03 -7.31013E+02  1.02157E+03 -4.66475E+02  5.35392E+01
 -3.28936E+02 -1.11015E+03  1.13432E+03 -8.08128E+02  8.37068E+02 -9.74087E+02  9.17633E+02  3.82402E+02
  9.89496E+02  1.10504E+02  8.05690E+02  9.88470E+01 -1.33327E+02  1.12056E+03  1.98612E+03  8.44071E+01
  8.60067E+01 -7.23420E+02  2.09284E+03  4.54201E+02  3.65055E+02  1.57338E+03 -2.52491E+02  2.27615E+03
 -1.52881E+03  1.32549E+03 -1.54624E+03  3.78067E+02 -1.45834E+03 -6.31519E+02 -1.70008E+02 -8.47428E+02
  9.06381E+02 -1.03309E+03  6.87928E+02 -5.67541E+02  1.73257E+02  1.02316E+03 -1.62128E+02  6.20008E+02
 -1.15232E+03  6.47151E+02 -5.31786E+02 -1.07364E+03 -6.57157E+02 -1.51546E+03 -2.35969E+02 -1.03484E+03
 -1.58599E+02  1.65464E+02  8.02967E+02  4.76296E+02  1.22215E+03  5.14706E+02  1.70088E+02  1.28936E+03
 -1.87473E+02 -9.78110E+01 -9.77597E+02  2.10211E+02  5.84065E+02 -1.71585E+02  1.17325E+03 -8.75033E+01
  7.60340E+02  4.83537E+02  2.19965E+03  6.89138E+02  8.95185E+02  1.30685E+03 -4.73959E+02  1.47016E+03
 -1.14739E+03  2.28584E+01 -9.52928E+02 -3.33348E+02 -7.89947E+02 -8.23021E+02  1.42052E+02 -2.49951E+02
  1.47762E+03 -5.00795E+02  2.70136E+02  3.33593E+02  5.00644E+02  1.08754E+03  5.48871E+02  1.16046E+03
 -1.88970E+02  6.44995E+02 -3.05282E+02  2.08120E+02  1.70008E+02  4.28815E+02 -8.09395E+02  3.66936E+02
 -4.44919E+02  7.05107E+02 -2.16157E+03  6.51400E+02 -9.37042E+02 -3.05499E+02 -1.80375E+03 -3.01654E+02
 -9.71538E+02 -1.51067E+03  6.48455E+00 -2.31088E+03  6.31890E+02 -1.89824E+03  2.15309E+03 -1.23930E+03
  2.04199E+03 -1.48387E+02  1.06616E+03  1.34711E+03 -5.70098E+02  8.78642E+02 -6.23073E+02  8.88411E+02
 -8.23132E+02  2.48339E+02  1.48741E+02 -4.25173E+02  3.46518E+02 -1.23696E+02 -9.67809E+02 -2.54141E+02
 -1.51805E+03 -4.60072E+01 -7.03047E+02 -2.09218E+02  3.86505E+02 -3.94926E+02 -6.02480E+02 -5.98089E+02
  1.24034E+03 -3.03074E+02  2.53331E+02  1.33733E+02  8.83044E+02  6.95574E+02 -5.32820E+02  1.52459E+03
 -8.50532E+02  1.65662E+03 -1.44971E+03  5.61756E+02 -1.85739E+03  5.66998E+00 -1.14886E+03 -7.17746E+02
 -6.04569E+02 -4.79721E+02  1.99427E+02 -8.49192E+02 -9.57707E+01  8.69160E+01  3.98286E+02  5.26167E+01
  6.36107E+02  6.73500E+01  5.24498E+02 -2.25535E+02 -1.02396E+02 -3.09046E+02  1.25201E+01 -1.41586E+02
 -1.10537E+02  8.42873E+01  1.18339E+01  2.49659E+01 -1.27723E+02  4.21059E+02  9.05948E+02 -1.62404E+02
 -6.17710E+02  1.01637E+02 -9.04750E+02  1.68926E+02 -5.16783E+02 -3.77790E+02  1.07932E+02 -8.92845E+02
  1.44330E+02 -6.75897E+02  5.88073E+02 -1.48639E+02  8.20061E+02 -1.33361E+03  7.14014E+02  8.25518E+02
  7.86199E+02  4.41216E+02 -2.46980E+02  3.02062E+02 -8.93976E+02  3.72404E+02 -7.73055E+01 -2.06669E+02
 -1.43749E+02  3.00607E+02 -3.39233E+02 -2.12291E+02 -5.06552E+02  2.52825E+02 -4.77469E+02  2.12347E-01
 -1.21561E+03  5.48241E+02 -4.25187E+02 -4.51391E+02  9.19821E+02 -1.09854E+03  9.10083E+02 -1.27761E+01
  3.68861E+02  5.33536E+02 -5.81869E+02 -5.10668E+02 -9.27517E-01  6.14446E+02 -2.83977E+02  4.33031E+02
