 $NMID ID='MM_0lb_SNR400_8hz_g60_58.RAW', FMTDAT='(8E13.5)'
 TRAMP=1., VOLUME=1. $END
  3.09646E+05  6.93750E+02  3.37750E+05  2.50710E+05  8.53220E+04  3.39425E+05 -1.32778E+05  2.51856E+05
 -1.90434E+05  8.38981E+04 -1.12615E+05 -3.20449E+04 -5.54512E+01 -5.06554E+04  5.48623E+04 -5.09705E+02
  3.61684E+04  5.21887E+04 -1.60879E+04  7.65038E+04 -6.10076E+04  6.38808E+04 -8.65147E+04  3.27202E+04
 -8.27303E+04 -1.17548E+04 -5.80728E+04 -5.28318E+04 -1.48286E+04 -7.12401E+04  2.83276E+04 -4.68864E+04
  4.20037E+04  3.14901E+03  1.68686E+04  4.91299E+04 -3.49232E+04  4.92580E+04 -6.86525E+04 -6.85757E+01
 -5.64343E+04 -5.85786E+04 -6.97631E+03 -7.99547E+04  3.52678E+04 -5.75750E+04  5.01195E+04 -1.84148E+04
  4.54873E+04  1.21031E+04  3.33674E+04  2.70157E+04  1.71121E+04  3.11660E+04 -5.41135E+03  2.80139E+04
 -2.32588E+04  1.20700E+04 -1.71562E+04 -6.30571E+03  7.65063E+03 -7.40873E+03  2.43653E+04  1.44383E+04
  6.67432E+03  3.88585E+04 -3.49751E+04  3.80755E+04 -6.72824E+04  2.57508E+03 -6.01366E+04 -4.44961E+04
 -1.23292E+04 -6.68447E+04  4.25709E+04 -4.78474E+04  6.29160E+04 -2.50113E+03  3.75531E+04  3.42866E+04
 -4.77673E+03  4.04852E+04 -3.30047E+04  2.00634E+04 -3.49687E+04 -3.06273E+03 -2.10139E+04 -1.20605E+04
 -1.00012E+04 -1.59208E+04 -3.48096E+02 -2.19118E+04  9.09877E+03 -2.40924E+04  1.54904E+04 -1.26695E+04
  9.53893E+03  6.77657E+03 -1.14517E+04  1.30398E+04 -2.39803E+04 -7.85007E+03 -8.73066E+03 -3.87167E+04
  2.65504E+04 -4.82937E+04  5.37495E+04 -2.20320E+04  5.07455E+04  2.18539E+04  1.84949E+04  4.83919E+04
 -1.70539E+04  3.65853E+04 -2.91518E+04  3.26623E+03 -1.14780E+04 -2.93912E+04  2.24540E+04 -3.86663E+04
  4.57361E+04 -1.16565E+04  4.16606E+04  2.61838E+04  2.28459E+04  5.27507E+04 -9.13381E+03  5.82955E+04
 -3.75524E+04  4.03631E+04 -5.01878E+04  1.18091E+04 -4.91932E+04 -2.02950E+04 -2.71285E+04 -4.36472E+04
  8.38920E+03 -4.33588E+04  3.62890E+04 -1.86291E+04  3.45226E+04  1.12628E+04  5.94743E+03  2.10774E+04
 -1.39394E+04  1.02432E+04 -1.20501E+04 -7.28360E+03  6.74752E+03 -1.16656E+04  1.88286E+04  6.42242E+03
  1.45725E+04  2.28723E+04 -5.00156E+03  2.82321E+04 -2.42324E+04  1.56307E+04 -3.31594E+04 -2.22758E+03
 -2.80523E+04 -1.88553E+04 -1.22846E+04 -2.64967E+04  5.46845E+03 -2.80231E+04  2.14997E+04 -2.54477E+04
  3.45715E+04 -1.52722E+04  3.98030E+04  5.87250E+03  2.87983E+04  2.60108E+04  4.24315E+03  4.35011E+04
 -2.06612E+04  3.58230E+04 -3.22974E+04  1.32095E+04 -2.29685E+04 -9.61874E+03 -5.27322E+03 -1.27633E+04
  1.29093E+03 -1.22716E+03 -8.92558E+03  8.88347E+03 -2.22031E+04  4.91564E+03 -2.10784E+04 -1.03714E+04
 -1.25634E+04 -2.61802E+04  5.92569E+03 -3.01508E+04  2.02631E+04 -2.19892E+04  2.51422E+04 -2.26339E+03
  1.57975E+04  1.69615E+04 -1.88669E+03  2.46839E+04 -1.77332E+04  1.46351E+04 -2.64022E+04 -5.17754E+03
 -1.87761E+04 -2.23841E+04 -1.99653E+03 -3.03121E+04  1.41623E+04 -2.40571E+04  2.45243E+04 -1.38418E+04
  2.35902E+04 -8.02916E+01  1.70507E+04  5.14718E+03  9.48066E+03  2.06117E+03  1.28726E+04 -2.58472E+03
  2.43276E+04  2.61307E+03  2.74385E+04  1.94180E+04  1.89402E+04  4.08936E+04 -3.07585E+03  4.80470E+04
 -2.84051E+04  4.01724E+04 -4.60471E+04  2.21684E+04 -4.92398E+04 -4.84152E+03 -4.00482E+04 -2.98488E+04
 -1.52132E+04 -4.18439E+04  1.56362E+04 -3.56956E+04  3.06601E+04 -1.63386E+04  2.64566E+04  9.66489E+03
  8.98699E+03  2.09336E+04 -1.26072E+04  1.62265E+04 -2.23158E+04  1.57996E+03 -1.55160E+04 -1.36237E+04
 -3.34846E+02 -2.10401E+04  1.20582E+04 -1.55884E+04  1.37794E+04 -1.37540E+03  3.04415E+03  9.48553E+03
 -9.52964E+03  4.65113E+03 -1.07470E+04 -7.41382E+03 -2.61109E+03 -2.04853E+04  1.31064E+04 -2.18392E+04
  2.59555E+04 -1.32205E+04  3.04240E+04  3.87238E+03  2.64130E+04  2.01276E+04  1.20620E+04  3.27581E+04
 -6.18379E+03  3.44241E+04 -2.24673E+04  2.12110E+04 -2.56505E+04  4.04828E+03 -1.68900E+04 -6.39422E+03
 -6.82908E+03 -8.45037E+03 -7.87699E+02 -1.73855E+02 -3.06950E+03  3.69998E+03 -8.74814E+03  5.09046E+03
 -1.60050E+04 -1.16208E+03 -1.64742E+04 -1.32280E+04 -6.43302E+03 -2.12659E+04  7.44336E+03 -1.76593E+04
  1.43320E+04 -7.80538E+03  1.01195E+04  4.46686E+03 -4.84229E+02  7.38982E+03 -9.17471E+03 -5.84943E+02
 -8.73605E+03 -1.06397E+04 -8.89017E+02 -1.77539E+04  1.06011E+04 -1.90525E+04  2.20466E+04 -9.98180E+03
  2.64154E+04  3.12923E+03  1.90150E+04  1.66698E+04  3.38820E+03  2.20220E+04 -1.06250E+04  1.85293E+04
 -1.40770E+04  5.22274E+03 -7.41087E+03 -4.20900E+03  2.75833E+03 -4.95337E+03  9.96626E+03 -7.95545E+02
  8.32164E+03  7.54505E+03  1.10411E+03  1.44069E+04 -1.06365E+04  1.25788E+04 -1.80743E+04  2.33048E+03
 -1.20545E+04 -8.92470E+03  2.89973E+01 -1.58277E+04  1.05145E+04 -8.03773E+03  1.12406E+04  4.39415E+03
  2.54410E+03  1.10411E+04 -8.96882E+03  1.30412E+04 -1.55889E+04  5.33074E+03 -1.61301E+04 -6.00994E+03
 -9.76848E+03 -1.82639E+04  4.06629E+03 -2.06548E+04  1.76463E+04 -1.22033E+04  1.87562E+04  2.23653E+03
  1.14131E+04  1.57206E+04 -3.26452E+03  1.69911E+04 -1.32278E+04  1.01171E+04 -1.57358E+04 -2.47761E+03
 -1.14705E+04 -1.21598E+04 -1.59817E+03 -1.31934E+04  7.22763E+03 -1.18688E+04  8.71752E+03 -4.28271E+03
  5.82114E+03  2.78965E+03 -1.56560E+03  2.05752E+03 -4.34545E+02 -4.28009E+03  2.97185E+03 -8.96926E+03
  1.36322E+04 -6.35980E+03  1.99413E+04  1.02495E+03  1.85509E+04  1.31052E+04  1.07187E+04  2.43901E+04
 -5.28415E+03  2.78674E+04 -2.37997E+04  2.05281E+04 -2.94263E+04  4.82192E+03 -2.47691E+04 -9.87522E+03
 -1.19753E+04 -2.01396E+04 -1.37624E+02 -1.71585E+04  6.25768E+03 -1.06415E+04  5.96289E+03 -6.15681E+03
  4.17504E+03 -3.57645E+03  5.30974E+03 -4.94930E+03  7.03848E+03 -4.98918E+03  8.56199E+03 -2.30496E+03
  1.26788E+04  2.42748E+03  6.62401E+03  1.14769E+04 -2.56547E+03  1.42999E+04 -1.40708E+04  1.02473E+04
 -1.86971E+04 -1.89488E+03 -1.23748E+04 -1.22560E+04 -1.29158E+03 -1.87827E+04  1.01314E+04 -1.95977E+04
  1.91254E+04 -9.90784E+03  2.29823E+04  3.68840E+03  1.60122E+04  1.74771E+04  2.99714E+03  2.10424E+04
 -8.41949E+03  1.69681E+04 -1.25080E+04  5.92625E+03 -8.90588E+03 -1.90981E+03 -3.50308E+03 -2.21934E+03
 -1.72671E+03 -8.87259E+02 -3.20689E+03  4.30589E+03 -6.69212E+03  2.42641E+03 -1.11116E+04 -1.27915E+03
 -9.53035E+03 -1.13365E+04  1.10938E+02 -1.75551E+04  1.10025E+04 -1.63582E+04  1.85176E+04 -4.62784E+03
  1.66332E+04  8.50293E+03  8.02190E+03  1.54852E+04 -4.01622E+03  1.80621E+04 -1.30433E+04  1.08762E+04
 -1.75198E+04  1.23389E+02 -1.28190E+04 -1.08248E+04 -2.07123E+03 -1.54052E+04  8.10437E+03 -1.10542E+04
  1.08391E+04 -3.78543E+03  7.85918E+03  3.60635E+03  3.87608E+03  5.09836E+03  1.32374E+03  2.31458E+03
  4.14226E+03  1.50902E+03  4.81372E+03  2.27439E+03  5.88004E+03  5.82865E+03  5.33543E+03  9.72175E+03
 -3.66387E+03  1.55255E+04 -1.26583E+04  1.41023E+04 -1.85957E+04  2.78135E+03 -1.96019E+04 -7.57120E+03
 -8.92877E+03 -1.86780E+04  2.79303E+03 -2.02272E+04  1.11151E+04 -1.29295E+04  1.58050E+04 -2.88356E+03
  1.20251E+04  6.29554E+03  2.43379E+03  1.02393E+04 -5.06924E+03  6.70150E+03 -8.37544E+03 -1.30535E+03
 -4.37871E+03 -7.44989E+03  4.81983E+03 -8.35988E+03  8.37077E+03 -3.53213E+03  7.37290E+03  1.34255E+03
  4.98863E+03  3.02096E+03  1.83284E+03  3.91889E+03 -9.02181E+02  2.07943E+03  1.42392E+03 -3.37845E+02
  2.92331E+03 -6.45568E+02  7.09363E+03  2.20076E+03  4.89460E+03  1.04990E+04 -1.64588E+03  1.24404E+04
 -8.24405E+03  9.43218E+03 -1.18499E+04  2.25627E+03 -1.05248E+04 -3.83551E+03 -4.96081E+03 -7.77911E+03
  9.86425E+02 -7.78559E+03  4.84480E+03 -4.67028E+03  3.43831E+03  3.50071E+03 -1.70559E+03  6.62072E+03
 -8.01291E+03  3.99788E+03 -9.43379E+03 -3.55851E+03 -4.24900E+03 -1.09669E+04  1.06700E+03 -1.05949E+04
  6.42775E+03 -6.25194E+03  8.78883E+03 -4.90279E+02  6.74159E+03  3.12166E+03  2.40108E+02  5.84221E+03
 -4.31681E+03  1.76298E+03 -4.05279E+03 -3.84959E+03  1.73623E+03 -7.72575E+03  9.57949E+03 -6.03169E+03
  1.20998E+04  1.27151E+03  1.14940E+04  7.72263E+03  4.12779E+03  1.18390E+04 -4.38639E+03  1.24874E+04
 -1.04398E+04  5.41914E+03 -1.08952E+04 -1.80908E+03 -5.96145E+03 -7.72838E+03  1.48822E+03 -7.68277E+03
  8.02256E+03 -3.48694E+03  6.92237E+03  3.27973E+03  3.16008E+03  7.11117E+03 -4.64922E+02  5.75454E+03
 -1.95630E+03  3.80308E+03 -3.05699E+03  2.24892E+03 -2.21315E+03  1.12146E+03 -1.74400E+03  2.87922E+03
 -3.19726E+03  5.78505E+03 -8.71230E+03  4.25590E+03 -1.28251E+04  1.18920E+02 -1.49060E+04 -8.88424E+03
 -7.04150E+03 -1.63597E+04  3.83599E+03 -1.93644E+04  1.13758E+04 -1.54200E+04  1.85103E+04 -6.49741E+03
  1.62126E+04  3.13263E+03  1.05566E+04  1.14665E+04  9.99663E+02  1.38841E+04 -5.77368E+03  9.97058E+03
 -8.17191E+03  4.05125E+03 -5.52428E+03 -1.45505E+03 -1.88191E+03 -1.81583E+03 -6.76878E+02  4.13081E+02
 -2.00437E+03  6.46708E+02 -2.92705E+03 -3.32551E+02 -1.32148E+03 -2.96091E+03 -1.50955E+02 -4.52558E+03
  5.31914E+03 -5.15596E+03  9.06888E+03 -5.29268E+02  9.32502E+03  7.44210E+03  2.52501E+03  1.38865E+04
 -7.39439E+03  1.59487E+04 -1.40785E+04  9.38497E+03 -1.57378E+04 -2.23953E+02 -1.27020E+04 -1.03784E+04
 -4.33140E+03 -1.48303E+04  4.08307E+03 -1.31626E+04  9.44775E+03 -6.96972E+03  9.39062E+03 -4.25147E+01
  5.68727E+03  4.82991E+03 -1.31856E+03  4.41627E+03 -1.96667E+03 -3.20065E+02  2.28670E+02 -3.70165E+03
  4.09291E+03 -2.56394E+03  5.72938E+03  2.71543E+03  4.04326E+03  5.37499E+03 -3.01612E+01  6.62812E+03
 -7.33972E+03  5.97626E+03 -9.43205E+03  1.53084E+03 -8.12366E+03 -5.58485E+03 -1.03645E+03 -1.13570E+04
  6.11503E+03 -9.55367E+03  1.05085E+04 -3.82548E+03  1.11524E+04  3.59548E+03  6.12249E+03  8.63580E+03
  9.47634E+02  9.82113E+03 -4.14803E+03  7.51446E+03 -4.99579E+03  3.90467E+03 -4.39096E+03  6.60905E+02
 -3.00336E+03 -4.61284E+02 -1.29528E+03  1.00599E+03 -4.39489E+03  2.02952E+03 -6.42411E+03 -1.86681E+03
 -6.19100E+03 -5.12512E+03 -2.22615E+03 -9.08926E+03  4.04387E+03 -9.86319E+03  9.11775E+03 -4.13978E+03
  7.79944E+03  1.00907E+03  6.24127E+03  6.88286E+03 -1.07736E+03  9.48145E+03 -6.57345E+03  6.36168E+03
