 $NMID ID='MM_0lb_SNR400_10hz_g50_90.RAW', FMTDAT='(8E13.5)'
 TRAMP=1., VOLUME=1. $END
  3.09983E+05  6.61780E+02  3.37822E+05  2.50407E+05  8.47737E+04  3.38383E+05 -1.32900E+05  2.52261E+05
 -1.89792E+05  8.31283E+04 -1.12733E+05 -3.23619E+04 -3.34366E+02 -5.04205E+04  5.37766E+04 -6.19625E+01
  3.57280E+04  5.31565E+04 -1.65207E+04  7.57268E+04 -6.17685E+04  6.45665E+04 -8.54607E+04  3.24098E+04
 -8.18709E+04 -1.19065E+04 -5.81327E+04 -5.19704E+04 -1.57460E+04 -7.16771E+04  2.83145E+04 -4.68540E+04
  4.09122E+04  3.72540E+03  1.73421E+04  4.77103E+04 -3.48851E+04  4.76301E+04 -6.75777E+04  1.87109E+02
 -5.52859E+04 -5.74804E+04 -7.24456E+03 -7.76703E+04  3.45800E+04 -5.52439E+04  4.91589E+04 -1.80644E+04
  4.46816E+04  1.06935E+04  3.23530E+04  2.61181E+04  1.55005E+04  3.04156E+04 -5.63502E+03  2.70856E+04
 -2.25239E+04  1.12434E+04 -1.81049E+04 -5.53104E+03  5.71282E+03 -7.51175E+03  2.30453E+04  1.31419E+04
  6.92138E+03  3.67577E+04 -3.33610E+04  3.68893E+04 -6.54352E+04  2.65619E+03 -5.78335E+04 -4.36892E+04
 -1.16918E+04 -6.59455E+04  4.16588E+04 -4.70535E+04  6.00354E+04 -2.61768E+03  3.61961E+04  3.36099E+04
 -5.40536E+03  3.83245E+04 -3.11771E+04  1.82584E+04 -3.28462E+04 -3.63404E+03 -1.86774E+04 -1.14376E+04
 -9.04670E+03 -1.44339E+04  6.58338E+02 -1.94840E+04  8.77381E+03 -2.33575E+04  1.54704E+04 -1.25403E+04
  1.03302E+04  5.78557E+03 -9.47241E+03  1.20324E+04 -2.22691E+04 -6.58705E+03 -8.16940E+03 -3.63217E+04
  2.44775E+04 -4.64020E+04  5.12465E+04 -2.03691E+04  4.79715E+04  2.03897E+04  1.75060E+04  4.64951E+04
 -1.70010E+04  3.54001E+04 -2.60227E+04  3.19663E+03 -1.03870E+04 -2.96142E+04  2.15345E+04 -3.56651E+04
  4.39882E+04 -1.08845E+04  3.90384E+04  2.36851E+04  2.03287E+04  4.93723E+04 -7.96692E+03  5.55248E+04
 -3.41144E+04  3.72499E+04 -4.55472E+04  1.01737E+04 -4.71994E+04 -1.78593E+04 -2.58656E+04 -4.15019E+04
  7.40061E+03 -4.23196E+04  3.38695E+04 -1.63779E+04  3.23087E+04  1.11097E+04  5.09930E+03  2.04803E+04
 -1.38419E+04  1.00645E+04 -1.10488E+04 -7.26489E+03  6.15567E+03 -1.13222E+04  1.80785E+04  6.14804E+03
  1.40119E+04  2.28188E+04 -5.25038E+03  2.64996E+04 -2.32907E+04  1.39553E+04 -3.12130E+04 -3.32349E+03
 -2.44819E+04 -1.78762E+04 -1.08504E+04 -2.54159E+04  4.76007E+03 -2.50013E+04  1.85787E+04 -2.19197E+04
  3.04419E+04 -1.45227E+04  3.68536E+04  4.21301E+03  2.69565E+04  2.36023E+04  3.99416E+03  4.05296E+04
 -1.89879E+04  3.38883E+04 -2.98665E+04  1.05735E+04 -2.18515E+04 -1.04129E+04 -5.02878E+03 -1.29357E+04
  9.73821E+02 -1.86201E+03 -6.37299E+03  7.90777E+03 -1.91967E+04  4.90910E+03 -1.95609E+04 -9.28806E+03
 -1.17635E+04 -2.31116E+04  5.62983E+03 -2.68154E+04  1.82642E+04 -1.92234E+04  2.19680E+04 -8.10107E+02
  1.34820E+04  1.56913E+04 -5.78169E+02  2.28980E+04 -1.64029E+04  1.34233E+04 -2.19737E+04 -3.70921E+03
 -1.66535E+04 -2.03574E+04 -1.96864E+03 -2.67025E+04  1.28244E+04 -2.24895E+04  2.19557E+04 -1.15259E+04
  2.17599E+04  5.60375E+01  1.51612E+04  4.87901E+03  8.65471E+03  1.55198E+03  1.12105E+04 -1.35548E+03
  2.04656E+04  2.60827E+03  2.48913E+04  1.72688E+04  1.66344E+04  3.60126E+04 -2.24789E+03  4.19713E+04
 -2.39196E+04  3.48640E+04 -3.99877E+04  1.79915E+04 -4.22670E+04 -3.38640E+03 -3.52235E+04 -2.48999E+04
 -1.38795E+04 -3.49694E+04  1.26722E+04 -3.03910E+04  2.67393E+04 -1.47050E+04  2.30777E+04  7.69833E+03
  7.62198E+03  1.78606E+04 -1.06715E+04  1.48391E+04 -1.93849E+04  2.64375E+03 -1.42690E+04 -1.25146E+04
 -6.28839E+02 -1.86744E+04  9.82788E+03 -1.36657E+04  1.22395E+04 -1.91437E+03  3.47486E+03  8.77790E+03
 -8.68104E+03  3.45388E+03 -8.15732E+03 -6.80696E+03 -1.75239E+03 -1.75927E+04  1.14138E+04 -1.79399E+04
  2.17301E+04 -1.00872E+04  2.48645E+04  4.00535E+03  2.02234E+04  1.77592E+04  9.59912E+03  2.72355E+04
 -5.49874E+03  2.91074E+04 -1.86671E+04  1.87697E+04 -2.14490E+04  3.39577E+03 -1.46094E+04 -5.67916E+03
 -6.00922E+03 -6.37671E+03 -9.52376E+02  5.50929E+02 -2.53652E+03  3.60199E+03 -6.71113E+03  5.25469E+03
 -1.39427E+04 -7.57673E+02 -1.49262E+04 -1.14908E+04 -5.54200E+03 -1.91291E+04  6.85641E+03 -1.52737E+04
  1.17470E+04 -5.80912E+03  8.63444E+03  4.28109E+03  1.23831E+02  5.68015E+03 -7.05579E+03 -3.01995E+02
 -6.07740E+03 -9.60897E+03 -1.63288E+03 -1.49223E+04  8.30456E+03 -1.55307E+04  1.85606E+04 -7.40443E+03
  2.18738E+04  2.05721E+03  1.59156E+04  1.35422E+04  4.07254E+03  1.74106E+04 -8.52746E+03  1.47390E+04
 -1.19227E+04  4.25474E+03 -7.06011E+03 -2.78051E+03  2.45236E+03 -4.59957E+03  8.02794E+03 -8.93889E+02
  7.83821E+03  6.03285E+03  5.83066E+02  1.24065E+04 -8.02993E+03  1.22312E+04 -1.42750E+04  2.59016E+03
 -1.05049E+04 -7.50658E+03  5.57367E+02 -1.24833E+04  7.32999E+03 -6.18091E+03  8.65714E+03  3.08644E+03
  1.87171E+03  8.99989E+03 -7.26219E+03  1.07409E+04 -1.20755E+04  5.98684E+03 -1.29955E+04 -4.60059E+03
 -7.42727E+03 -1.51260E+04  3.91767E+03 -1.60578E+04  1.38310E+04 -9.72832E+03  1.52383E+04  2.33873E+03
  9.38780E+03  1.20446E+04 -8.98379E+02  1.44768E+04 -1.08041E+04  8.38372E+03 -1.26080E+04 -9.91825E+02
 -9.96182E+03 -9.69097E+03 -1.89690E+03 -1.09725E+04  6.43320E+03 -9.05240E+03  7.13655E+03 -3.22629E+03
  4.73351E+03  1.61759E+03 -4.44632E+02  1.33722E+03 -5.12208E+02 -2.94807E+03  2.57925E+03 -6.21933E+03
  1.01009E+04 -4.19441E+03  1.39666E+04  1.95964E+03  1.48700E+04  1.00421E+04  9.94351E+03  1.91210E+04
 -4.24237E+03  2.22536E+04 -1.80481E+04  1.59401E+04 -2.39834E+04  3.43550E+03 -1.94539E+04 -7.97553E+03
 -1.01718E+04 -1.59667E+04 -1.04270E+03 -1.26883E+04  5.01008E+03 -7.62220E+03  5.23969E+03 -3.96925E+03
  3.53173E+03 -2.62149E+03  3.85697E+03 -3.40788E+03  5.58899E+03 -3.01513E+03  7.79467E+03 -1.53384E+03
  9.75067E+03  1.77047E+03  3.99746E+03  8.10403E+03 -9.77111E+02  1.08569E+04 -9.76549E+03  8.08433E+03
 -1.35344E+04 -1.51994E+03 -8.55969E+03 -8.90498E+03 -1.15194E+03 -1.40069E+04  8.39689E+03 -1.46906E+04
  1.42939E+04 -7.59127E+03  1.71147E+04  2.15133E+03  1.25971E+04  1.21995E+04  2.20636E+03  1.61577E+04
 -6.42225E+03  1.32888E+04 -8.63683E+03  4.55934E+03 -6.20165E+03 -8.55969E+02 -2.29121E+03 -2.17157E+03
 -1.66606E+03 -6.78893E+02 -2.39455E+03  2.43421E+03 -7.07981E+03  2.39864E+03 -9.43727E+03 -1.67091E+03
 -6.43620E+03 -8.80564E+03  5.24706E+02 -1.33882E+04  8.58737E+03 -1.19810E+04  1.37708E+04 -4.35347E+03
  1.23196E+04  6.39353E+03  6.21485E+03  1.26171E+04 -2.30703E+03  1.35345E+04 -1.01720E+04  8.46575E+03
 -1.22624E+04  6.22870E+02 -9.23581E+03 -7.66755E+03 -6.98280E+02 -1.13193E+04  5.12261E+03 -8.05261E+03
  8.33586E+03 -2.33738E+03  5.40806E+03  2.25029E+03  1.85211E+03  4.57101E+03  1.43267E+03  2.09415E+03
  1.99162E+03  1.33023E+03  2.99259E+03  2.10950E+03  3.62932E+03  4.77054E+03  3.14948E+03  6.99802E+03
 -2.30739E+03  9.90922E+03 -9.50876E+03  1.06978E+04 -1.41850E+04  3.33186E+03 -1.42854E+04 -5.72308E+03
 -6.49931E+03 -1.28542E+04  2.97585E+03 -1.48040E+04  7.59503E+03 -8.81991E+03  1.05250E+04 -2.48721E+03
  8.06654E+03  4.49894E+03  1.52263E+03  7.43054E+03 -3.94391E+03  5.57556E+03 -5.67840E+03 -8.25117E+02
 -2.55590E+03 -5.71812E+03  4.12736E+03 -6.22256E+03  5.69028E+03 -2.34624E+03  4.97303E+03  5.12482E+02
  3.37718E+03  2.46333E+03  1.82033E+03  1.98397E+03 -6.88985E+02  2.57062E+03  1.47314E+03 -7.71325E+02
  2.26267E+03 -6.60623E+02  5.92404E+03  1.85090E+03  3.28056E+03  6.56654E+03 -1.82639E+03  8.35302E+03
 -6.56155E+03  6.04252E+03 -8.43912E+03  2.27561E+03 -7.71699E+03 -2.37221E+03 -2.40359E+03 -4.86683E+03
  1.11098E+03 -5.20862E+03  3.53037E+03 -3.14315E+03  2.88220E+03  2.71252E+03 -1.37813E+03  4.68686E+03
 -4.59158E+03  2.93889E+03 -6.14335E+03 -3.27714E+03 -3.36288E+03 -7.46840E+03  1.12180E+03 -6.88825E+03
  4.72872E+03 -4.89690E+03  4.59406E+03  1.60408E+02  4.62255E+03  2.02269E+03  1.94531E+02  4.02611E+03
 -2.59675E+03  4.33701E+02 -2.61086E+03 -2.50470E+03  1.51953E+03 -6.03137E+03  6.27731E+03 -4.08851E+03
  8.71124E+03  1.16909E+03  8.10810E+03  5.94383E+03  2.85824E+03  9.02487E+03 -3.34959E+03  8.20398E+03
 -7.03240E+03  4.30220E+03 -6.52527E+03 -1.25734E+03 -4.12344E+03 -4.77736E+03  1.84225E+03 -4.69280E+03
  5.67111E+03 -2.28802E+03  4.78227E+03  2.39265E+03  1.53214E+03  4.53297E+03 -7.72465E+02  4.85890E+03
 -2.21454E+03  2.69971E+03 -2.25561E+03  4.84730E+02 -1.43872E+02  1.28053E+03 -8.83871E+02  1.90412E+03
 -2.41152E+03  3.20101E+03 -6.03098E+03  3.13794E+03 -9.23576E+03  7.32516E+02 -1.00220E+04 -5.87612E+03
 -4.91999E+03 -1.20223E+04  2.23817E+03 -1.31338E+04  7.76845E+03 -1.06402E+04  1.23764E+04 -3.76972E+03
  1.16364E+04  2.24685E+03  7.32890E+03  7.46231E+03  2.35697E+02  8.43031E+03 -3.46567E+03  6.80474E+03
 -4.29180E+03  2.89876E+03 -2.90204E+03 -1.37539E+03 -1.24735E+03 -1.38280E+03 -7.97257E+02 -2.29801E+02
 -1.14066E+03  4.88762E+02 -1.22541E+03 -4.44861E+02 -3.04957E+02 -1.84512E+03  4.08945E+02 -3.08044E+03
  4.87981E+03 -3.27727E+03  5.36459E+03  3.03067E+02  6.47750E+03  4.38996E+03  1.62515E+03  9.26694E+03
 -4.68628E+03  9.86599E+03 -8.94173E+03  6.62277E+03 -1.09310E+04 -6.85728E+02 -7.93045E+03 -6.68232E+03
 -3.59984E+03 -8.46664E+03  2.02308E+03 -8.77262E+03  5.69361E+03 -4.30641E+03  5.91717E+03 -4.25524E+02
  2.55378E+03  2.58606E+03 -6.50467E+02  2.41260E+03 -2.03735E+03 -3.33119E+02  7.22116E+02 -1.63181E+03
  2.10785E+03 -1.34335E+03  3.94068E+03  1.00070E+03  2.56070E+03  4.00311E+03  3.39181E+02  4.94803E+03
 -3.75111E+03  3.79699E+03 -6.41812E+03  6.96072E+02 -5.12564E+03 -3.76192E+03 -7.06166E+02 -7.15937E+03
  4.15692E+03 -6.53415E+03  6.31237E+03 -1.77236E+03  6.39950E+03  1.04611E+03  3.91986E+03  5.20212E+03
  2.79242E+02  5.51794E+03 -2.92892E+03  4.74546E+03 -3.57674E+03  2.45471E+03 -2.84545E+03  5.03561E+02
 -1.63926E+03  3.50509E+02 -2.10175E+03  4.52527E+02 -2.45043E+03  8.34894E+02 -5.17211E+03 -5.67408E+02
 -3.79987E+03 -2.91257E+03 -4.88368E+02 -5.72932E+03  3.37761E+03 -6.36441E+03  4.65737E+03 -2.70587E+03
  5.74985E+03  3.70346E+02  2.59643E+03  4.05796E+03  2.52585E+02  5.73075E+03 -3.77530E+03  2.97960E+03
