 $NMID ID='MM_0lb_SNR400_19hz_g50_79.RAW', FMTDAT='(8E13.5)'
 TRAMP=1., VOLUME=1. $END
  3.09753E+05  3.95653E+02  3.37407E+05  2.50078E+05  8.43473E+04  3.37976E+05 -1.32321E+05  2.50426E+05
 -1.89544E+05  8.29406E+04 -1.11785E+05 -3.32958E+04  1.43815E+03 -5.03612E+04  5.38780E+04  5.54855E+02
  3.52697E+04  5.24012E+04 -1.69722E+04  7.48210E+04 -6.03891E+04  6.27829E+04 -8.28586E+04  3.18030E+04
 -7.99567E+04 -1.14954E+04 -5.59513E+04 -5.03425E+04 -1.49446E+04 -6.78028E+04  2.68087E+04 -4.47784E+04
  3.91476E+04  4.15406E+03  1.54947E+04  4.70511E+04 -3.39922E+04  4.60748E+04 -6.54707E+04 -2.44697E+02
 -5.15277E+04 -5.62233E+04 -6.48189E+03 -7.49754E+04  3.27058E+04 -5.32719E+04  4.63143E+04 -1.66465E+04
  4.20198E+04  1.08983E+04  3.09147E+04  2.43166E+04  1.61854E+04  2.78327E+04 -4.78897E+03  2.63143E+04
 -2.13630E+04  1.28484E+04 -1.90174E+04 -4.21997E+03  4.49018E+03 -8.08363E+03  2.14451E+04  1.10722E+04
  7.54236E+03  3.33800E+04 -3.02482E+04  3.42685E+04 -6.07995E+04  2.62402E+03 -5.52798E+04 -4.10380E+04
 -1.25337E+04 -6.12894E+04  3.81099E+04 -4.35548E+04  5.57471E+04 -2.29718E+03  3.17326E+04  3.02746E+04
 -6.48228E+03  3.25724E+04 -2.82741E+04  1.37912E+04 -2.78344E+04 -5.02061E+03 -1.47408E+04 -1.02963E+04
 -7.31119E+03 -1.11930E+04 -1.22559E+03 -1.67268E+04  6.96350E+03 -2.28375E+04  1.47284E+04 -1.38926E+04
  1.16804E+04  4.59317E+03 -6.03336E+03  1.30259E+04 -1.93579E+04 -2.49934E+03 -7.79233E+03 -3.08049E+04
  2.00801E+04 -4.06417E+04  4.44046E+04 -1.90033E+04  4.23535E+04  1.79217E+04  1.37357E+04  4.18731E+04
 -1.55220E+04  3.06909E+04 -2.31575E+04  1.24000E+03 -8.34041E+03 -2.61809E+04  2.01037E+04 -3.15736E+04
  3.80457E+04 -7.21797E+03  3.19312E+04  2.29529E+04  1.51823E+04  4.23105E+04 -7.74314E+03  4.52629E+04
 -2.84148E+04  3.01175E+04 -3.74620E+04  8.17388E+03 -3.80704E+04 -1.47613E+04 -2.11869E+04 -3.45123E+04
  6.88161E+03 -3.44192E+04  2.94041E+04 -1.25125E+04  2.59570E+04  1.04005E+04  2.96617E+03  1.76269E+04
 -1.32092E+04  7.35598E+03 -9.58731E+03 -8.31884E+03  6.06735E+03 -1.04370E+04  1.76707E+04  6.38886E+03
  1.24509E+04  2.13372E+04 -6.51154E+03  2.32256E+04 -2.11921E+04  8.73181E+03 -2.51156E+04 -6.59765E+03
 -1.64735E+04 -1.64880E+04 -5.30505E+03 -1.67701E+04  4.07496E+03 -1.50699E+04  1.26018E+04 -1.46656E+04
  2.12627E+04 -1.11757E+04  2.83703E+04  1.43543E+03  2.15704E+04  1.59048E+04  3.61242E+03  3.27603E+04
 -1.61199E+04  2.75956E+04 -2.58940E+04  9.65826E+03 -1.98550E+04 -1.05000E+04 -3.97098E+03 -1.42040E+04
  2.70457E+03 -4.52628E+03 -2.47188E+03  4.99061E+03 -1.30973E+04  5.22099E+03 -1.38614E+04 -4.60392E+03
 -8.86905E+03 -1.55486E+04  4.50956E+03 -1.96198E+04  1.29805E+04 -1.35751E+04  1.41856E+04 -1.46132E+03
  8.68497E+03  1.08009E+04 -1.17563E+03  1.57011E+04 -1.04671E+04  9.09997E+03 -1.54394E+04 -3.64197E+03
 -1.14656E+04 -1.43398E+04 -1.79817E+03 -1.86989E+04  8.60766E+03 -1.50761E+04  1.59383E+04 -7.81434E+03
  1.49218E+04  6.76476E+02  9.99388E+03  4.24401E+03  5.31203E+03  2.97672E+02  7.52062E+03 -1.42006E+03
  1.37133E+04  3.11477E+03  1.44799E+04  1.34380E+04  8.95939E+03  2.49550E+04 -2.88271E+03  2.64241E+04
 -1.55032E+04  2.01345E+04 -2.44730E+04  9.97422E+03 -2.45528E+04 -1.61563E+03 -2.12995E+04 -1.40415E+04
 -1.02067E+04 -2.02432E+04  7.04676E+03 -1.92557E+04  1.64053E+04 -1.10464E+04  1.53860E+04  3.92479E+03
  6.40960E+03  1.12935E+04 -6.56853E+03  1.01857E+04 -1.29273E+04  2.38795E+03 -1.01838E+04 -7.78016E+03
 -4.50496E+02 -1.24426E+04  6.27303E+03 -9.97583E+03  7.92059E+03 -1.05761E+03  1.29813E+03  4.59509E+03
 -5.40984E+03  9.10357E+02 -3.46982E+03 -4.50028E+03  7.97896E+02 -1.00546E+04  7.68842E+03 -1.00700E+04
  1.19474E+04 -4.53406E+03  1.17039E+04  2.37829E+03  1.00078E+04  8.87522E+03  4.54537E+03  1.37200E+04
 -1.56940E+03  1.57750E+04 -9.61466E+03  1.00895E+04 -1.11655E+04  2.63411E+03 -8.52923E+03 -2.05552E+03
 -4.25518E+03 -3.38146E+03 -3.08298E+02  1.70855E+03 -2.27364E+03  2.07408E+03 -3.05591E+03  3.53761E+03
 -7.78046E+03 -9.48736E+01 -8.69215E+03 -7.01914E+03 -3.62799E+03 -1.11742E+04  3.44506E+03 -8.20815E+03
  7.26230E+03 -3.52122E+03  5.62146E+03  2.21235E+03  5.02842E+02  2.71655E+03 -3.66558E+03 -1.50733E+02
 -2.89897E+03 -5.08473E+03 -4.83168E+02 -6.80453E+03  4.12712E+03 -7.69558E+03  1.01045E+04 -3.90021E+03
  1.15084E+04  4.33301E+02  8.99214E+03  5.83691E+03  1.64802E+03  8.77298E+03 -5.11910E+03  8.03443E+03
 -6.34823E+03  3.20397E+03 -4.01017E+03 -1.16405E+03  1.60844E+03 -1.92462E+03  4.44060E+03 -5.11554E+02
  3.87850E+03  3.83011E+03  1.00509E+03  6.22060E+03 -4.47080E+03  6.55042E+03 -7.89243E+03  1.70785E+03
 -4.97826E+03 -3.80145E+03  4.43820E+01 -6.70072E+03  3.21292E+03 -3.15411E+03  3.70065E+03  6.15502E+02
  7.33704E+02  2.50748E+03 -4.18492E+03  4.44437E+03 -4.48230E+03  2.09063E+03 -3.84812E+03 -1.13356E+03
 -2.51287E+03 -6.47111E+03  1.12032E+03 -6.75100E+03  6.00296E+03 -4.27302E+03  6.38922E+03  5.23422E+02
  4.16433E+03  4.72458E+03 -9.93574E+01  6.31077E+03 -5.33264E+03  3.95270E+03 -4.67765E+03 -5.96361E+02
 -5.82452E+03 -5.53024E+03 -1.33079E+03 -4.77378E+03  2.66379E+03 -4.63244E+03  3.39490E+03 -2.88681E+03
  2.65228E+03  4.96347E+02 -2.84209E+02  1.85155E+03  1.91545E+02  7.18844E+01  3.37365E+02 -2.31728E+03
  3.46792E+03 -3.66630E+02  5.29390E+03  1.18359E+03  4.74700E+03  2.83011E+03  5.13381E+03  6.41094E+03
 -1.45750E+03  8.30183E+03 -7.50235E+03  6.14859E+03 -9.40366E+03  1.73390E+03 -7.65178E+03 -2.96073E+03
 -3.82798E+03 -5.90384E+03 -1.83636E+02 -4.27511E+03  2.14015E+03 -2.24609E+03  1.96390E+03 -2.25670E+03
  1.24825E+03 -1.45100E+03  1.77030E+03 -2.43219E+03  3.58699E+03 -1.58974E+03  3.12595E+03  5.48950E+02
  4.48068E+03  1.18046E+03  1.59459E+03  2.92606E+03 -1.57647E+03  2.19368E+03 -4.72869E+03  2.50176E+03
 -4.73302E+03 -1.23667E+03 -1.49010E+03 -2.98291E+03  6.27842E+02 -4.78930E+03  2.88915E+03 -5.31124E+03
  4.51918E+03 -3.30440E+03  6.21784E+03  1.14471E+02  4.82810E+03  4.16685E+03  7.85759E+02  6.04952E+03
 -1.99304E+03  5.30090E+03 -3.01349E+03  1.36711E+03 -2.05271E+03 -1.10206E+03 -5.15447E+02  5.77152E+01
 -4.78508E+02  4.32492E+02 -7.63453E+02  1.60648E+03 -2.44505E+03  7.16985E+02 -4.27923E+03 -2.51617E+02
 -1.19213E+03 -3.61155E+03  4.18010E+02 -4.30786E+03  2.64708E+03 -4.18143E+03  3.27139E+03 -1.07288E+03
  3.81408E+03  2.77281E+03  2.25644E+03  3.21289E+03 -9.00465E+02  3.85851E+03 -2.19372E+03  2.50704E+03
 -3.52465E+03  3.57394E+02 -3.41177E+03 -2.28064E+03  3.95365E+02 -2.97130E+03  1.23580E+03 -2.21274E+03
  2.87574E+03 -1.22890E+03  1.74888E+03  1.80495E+02  7.66401E+02  2.03460E+03  1.15107E+03  4.59233E+02
  1.59603E+03  3.17341E+02  1.08981E+03  8.68592E+02  1.29241E+03  2.24532E+03  1.51420E+03  2.04830E+03
 -1.46674E+03  2.65256E+03 -2.24147E+03  3.51231E+03 -2.64891E+03  1.25466E+03 -3.58111E+03 -4.76849E+01
 -1.57620E+03 -3.41143E+03  7.16468E+02 -4.24871E+03  1.69501E+03 -2.63533E+03  2.94388E+03 -1.38403E+03
  2.68563E+03  1.35018E+03  3.53865E+02  1.83094E+03 -6.11197E+02  1.46955E+03 -9.90810E+02 -5.47011E+02
 -9.53195E+02 -1.94109E+03  1.54721E+03 -1.17997E+03  1.31837E+03 -8.89376E+02  8.93771E+02  3.54690E+02
  6.98280E+02  4.14764E+01  1.37797E+03 -5.03928E+02 -8.38434E+01  6.12011E+02  1.50153E+03  1.34905E+01
  2.71164E+02  3.08561E+01  1.52472E+03  5.32894E+02 -5.64232E+01  2.33154E+03 -1.21470E+02  2.05577E+03
 -1.43104E+03  6.74515E+02 -2.02523E+03  8.07362E+02 -2.01184E+03 -8.33155E+02 -2.21373E+02 -1.32654E+03
  6.39456E+02 -1.19142E+03  8.30938E+02 -1.00944E+03  7.88884E+02  9.73413E+02 -4.81787E+02  1.00979E+03
 -1.46480E+03  1.41118E+03 -9.25239E+02 -1.24086E+03 -5.74965E+02 -1.97476E+03  2.59012E+02 -8.44505E+02
  5.97696E+02 -2.16343E+02  5.42172E+02 -1.41617E+02  6.31014E+02  2.13632E+00  2.51383E+02  7.60845E+02
 -2.75248E+02 -1.17736E+02 -8.59715E+02 -2.17226E+02  5.74192E+02 -1.95310E+02  1.49500E+03 -1.06592E+03
  7.10631E+02 -4.88191E+02  2.81059E+03  4.22428E+02  7.27702E+02  1.85205E+03 -4.40949E+01  1.80784E+03
 -1.64851E+03  3.08752E+02 -1.16619E+03 -4.48496E+01 -4.74457E+02 -1.42635E+03  4.12807E+02 -3.99618E+02
  1.77411E+03 -5.17403E+02  9.11613E+02  4.43449E+02  5.02060E+02  1.68701E+03  4.32010E+02  1.20929E+03
 -2.46489E+02  6.33764E+02 -5.31469E+02 -7.65281E+00 -8.80514E+01 -2.15719E-01 -6.79019E+02  4.44778E+02
 -9.75337E+02  6.17106E+02 -1.86597E+03  2.76286E+00 -1.50303E+03  4.03497E+02 -1.77886E+03 -7.29455E+02
 -1.01085E+03 -2.03308E+03  5.71813E+02 -2.90356E+03  6.91193E+02 -2.02145E+03  2.52474E+03 -9.58071E+02
  1.91294E+03 -3.81014E+02  1.01168E+03  1.39654E+03 -4.89152E+02  1.48611E+03 -1.23632E+03  9.65815E+02
 -1.22098E+03  7.35025E+02 -5.68590E+02 -6.44619E+02 -7.74509E+02  2.77189E+02 -2.44253E+02 -1.39369E+02
 -7.64216E+02 -1.26512E+02 -4.09619E+02  1.11675E+02  1.48498E+02 -5.44458E+02 -6.23636E+02 -6.59788E+02
  6.68946E+02 -8.83869E+02  1.79361E+02  3.64308E+01  1.69704E+03  4.40588E+02 -1.04026E+03  5.33977E+02
 -1.02218E+03  1.74660E+03 -1.27894E+03  1.16220E+03 -1.93260E+03  2.19536E+00 -1.16596E+03 -8.40789E+02
 -5.83841E+02 -1.05823E+03  2.73780E+02 -8.87221E+02  3.55419E+02 -1.06589E+03  2.80301E+02  3.50891E+02
  5.62191E+02  1.06764E+03  6.45115E+02  1.49674E+02 -3.29982E+02  9.61422E+01 -2.89454E+02  1.78869E+01
  5.61778E+02  3.60117E+02  3.16394E+02  6.51166E+02  1.56868E+02  1.27708E+03  5.40093E+02  2.08008E+02
 -3.69658E+02  6.92031E+02 -7.23062E+02  3.18531E+02 -6.90161E+02 -2.18878E+02 -3.46183E+02 -8.12834E+02
  2.66697E+02 -9.71342E+02  6.01414E+02 -6.31200E+01  6.42386E+02 -6.05497E+02  1.60437E+02  7.44711E+02
 -1.29220E+00  3.42126E+02  2.55283E+02  5.57471E+02 -9.76186E+01  3.04876E+02 -2.10502E+02  2.61923E+02
 -3.01473E+02 -2.34609E+02 -4.95403E+02 -1.36419E+02 -3.76765E+02  5.33339E+01 -7.86744E+02 -3.55032E+02
 -1.12355E+03  2.32322E+02 -6.70374E+02 -9.32719E+02  6.15206E+02 -1.51337E+03  2.63308E+02 -5.57270E+02
  4.26753E+02 -7.94221E+02 -7.86915E+02  4.30272E+02  1.37298E+02  9.41500E+02 -2.07918E+02  1.66543E+02
