 $NMID ID='MM_0lb_SNR400_10hz_g60_29.RAW', FMTDAT='(8E13.5)'
 TRAMP=1., VOLUME=1. $END
  3.09864E+05 -3.16178E+02  3.37497E+05  2.50615E+05  8.53965E+04  3.38416E+05 -1.32515E+05  2.51676E+05
 -1.90882E+05  8.39376E+04 -1.12191E+05 -3.23097E+04  1.01090E+03 -5.06671E+04  5.44064E+04 -1.18556E+03
  3.55053E+04  5.22921E+04 -1.64966E+04  7.61951E+04 -6.17270E+04  6.44890E+04 -8.56779E+04  3.26346E+04
 -8.27669E+04 -1.22021E+04 -5.95139E+04 -5.14414E+04 -1.46795E+04 -7.11392E+04  2.78720E+04 -4.76807E+04
  4.07248E+04  3.88057E+03  1.66848E+04  4.84542E+04 -3.50052E+04  4.83945E+04 -6.82002E+04 -4.24379E+02
 -5.52276E+04 -5.84384E+04 -7.55921E+03 -7.89516E+04  3.47445E+04 -5.75983E+04  5.04806E+04 -1.87800E+04
  4.52620E+04  1.19074E+04  3.32805E+04  2.64778E+04  1.63810E+04  3.06563E+04 -6.07058E+03  2.79622E+04
 -2.21749E+04  1.24938E+04 -1.77649E+04 -5.24530E+03  7.10379E+03 -7.96201E+03  2.39752E+04  1.41161E+04
  7.13965E+03  3.77220E+04 -3.40967E+04  3.73472E+04 -6.50924E+04  2.20584E+03 -5.90677E+04 -4.44653E+04
 -1.27244E+04 -6.57361E+04  4.14426E+04 -4.78349E+04  6.13194E+04 -2.13801E+03  3.75735E+04  3.49595E+04
 -5.80591E+03  4.00828E+04 -3.18691E+04  1.87007E+04 -3.38900E+04 -3.53835E+03 -1.97032E+04 -1.18989E+04
 -9.39965E+03 -1.44163E+04 -1.05685E+03 -1.97160E+04  8.50697E+03 -2.40106E+04  1.56167E+04 -1.29442E+04
  1.06304E+04  5.93909E+03 -1.08985E+04  1.26144E+04 -2.37003E+04 -6.71419E+03 -8.40010E+03 -3.78114E+04
  2.45354E+04 -4.73339E+04  5.20592E+04 -2.12230E+04  4.87426E+04  2.07560E+04  1.71415E+04  4.71518E+04
 -1.75426E+04  3.66591E+04 -2.73057E+04  3.15219E+03 -1.23787E+04 -2.95906E+04  2.18788E+04 -3.68393E+04
  4.43191E+04 -1.06153E+04  4.01985E+04  2.49102E+04  2.09397E+04  5.06643E+04 -7.86514E+03  5.62283E+04
 -3.56865E+04  3.82841E+04 -4.75426E+04  1.10695E+04 -4.86990E+04 -1.83780E+04 -2.61983E+04 -4.22668E+04
  7.63354E+03 -4.21725E+04  3.41456E+04 -1.71752E+04  3.26872E+04  1.04757E+04  5.10857E+03  2.06677E+04
 -1.40823E+04  9.79899E+03 -1.10102E+04 -7.96351E+03  5.63654E+03 -1.11191E+04  1.93953E+04  6.85535E+03
  1.55058E+04  2.24919E+04 -4.90259E+03  2.70249E+04 -2.29655E+04  1.41455E+04 -3.16115E+04 -2.91103E+03
 -2.49906E+04 -1.79406E+04 -1.23022E+04 -2.50344E+04  4.61702E+03 -2.65329E+04  1.99940E+04 -2.39508E+04
  3.19886E+04 -1.32592E+04  3.86207E+04  4.78250E+03  2.67445E+04  2.43854E+04  4.82852E+03  4.11250E+04
 -2.00889E+04  3.35040E+04 -3.08886E+04  1.18869E+04 -2.24392E+04 -1.06059E+04 -4.87877E+03 -1.26381E+04
  8.02000E+02 -2.07473E+03 -7.23759E+03  8.13547E+03 -2.06380E+04  4.83655E+03 -2.01958E+04 -1.03508E+04
 -1.19629E+04 -2.37404E+04  6.65281E+03 -2.73939E+04  1.86631E+04 -2.04687E+04  2.28828E+04 -1.95443E+03
  1.46495E+04  1.56479E+04 -1.79740E+03  2.35167E+04 -1.60344E+04  1.37509E+04 -2.38258E+04 -5.17346E+03
 -1.76012E+04 -2.14556E+04 -2.83380E+03 -2.79233E+04  1.25128E+04 -2.26921E+04  2.29203E+04 -1.23013E+04
  2.19371E+04 -5.85476E+02  1.55627E+04  6.02559E+03  8.79409E+03  1.69896E+03  1.24221E+04 -2.06327E+03
  2.17107E+04  3.27308E+03  2.56041E+04  1.95372E+04  1.77418E+04  3.78672E+04 -2.84495E+03  4.43542E+04
 -2.61968E+04  3.65841E+04 -4.23260E+04  1.92972E+04 -4.47717E+04 -3.27652E+03 -3.64918E+04 -2.62627E+04
 -1.39024E+04 -3.66661E+04  1.28068E+04 -3.24012E+04  2.82831E+04 -1.49245E+04  2.41303E+04  7.98621E+03
  7.37587E+03  1.92468E+04 -1.16123E+04  1.49816E+04 -2.05150E+04  2.74416E+03 -1.59817E+04 -1.24736E+04
  2.32771E+02 -1.98705E+04  9.85565E+03 -1.43424E+04  1.32862E+04 -9.93415E+02  3.44348E+03  8.36528E+03
 -8.28961E+03  3.99076E+03 -8.77888E+03 -6.96206E+03 -1.97125E+03 -1.80062E+04  1.25889E+04 -1.93419E+04
  2.23233E+04 -1.16928E+04  2.60059E+04  2.55996E+03  2.34395E+04  1.81281E+04  1.06771E+04  2.92747E+04
 -5.11677E+03  3.09695E+04 -1.99165E+04  1.92264E+04 -2.22201E+04  3.85095E+03 -1.56133E+04 -5.23357E+03
 -6.57348E+03 -7.30584E+03 -1.29662E+03  2.76908E+02 -2.73348E+03  3.30185E+03 -6.82125E+03  4.95945E+03
 -1.48112E+04 -1.22762E+03 -1.44398E+04 -1.22353E+04 -5.68340E+03 -1.99766E+04  6.85857E+03 -1.52405E+04
  1.28534E+04 -6.58018E+03  9.34720E+03  3.83224E+03  1.46952E+01  6.15587E+03 -7.91191E+03  4.50105E+02
 -7.80048E+03 -1.04862E+04 -1.14021E+03 -1.59319E+04  9.15865E+03 -1.65132E+04  1.99616E+04 -9.24575E+03
  2.34184E+04  2.71116E+03  1.77738E+04  1.34201E+04  3.50048E+03  1.90135E+04 -9.93827E+03  1.48975E+04
 -1.16778E+04  4.05070E+03 -6.02936E+03 -2.66199E+03  1.87200E+03 -4.46342E+03  8.15347E+03 -1.56326E+03
  7.10763E+03  6.76743E+03  1.98192E+03  1.22071E+04 -8.86656E+03  1.18696E+04 -1.56277E+04  2.93719E+03
 -1.04492E+04 -7.44207E+03  6.57222E+02 -1.22270E+04  9.03850E+03 -6.64111E+03  8.83317E+03  3.72233E+03
  2.71398E+03  9.77011E+03 -8.41275E+03  1.21382E+04 -1.37387E+04  5.42552E+03 -1.34723E+04 -4.98700E+03
 -8.00970E+03 -1.56404E+04  4.35863E+03 -1.76059E+04  1.56454E+04 -1.04421E+04  1.59876E+04  3.22016E+03
  1.03527E+04  1.30048E+04 -1.72356E+03  1.59206E+04 -1.15478E+04  8.66100E+03 -1.28438E+04 -1.40131E+03
 -9.80710E+03 -1.02396E+04 -2.16532E+03 -1.17641E+04  6.32838E+03 -9.08633E+03  7.82528E+03 -4.06265E+03
  5.89989E+03  2.75487E+03 -1.91660E+03  2.37311E+03 -7.13584E+02 -4.05605E+03  2.16741E+03 -7.45237E+03
  1.06795E+04 -4.49089E+03  1.63528E+04  1.81190E+03  1.56573E+04  1.09904E+04  9.72737E+03  2.01629E+04
 -4.47330E+03  2.37050E+04 -1.90297E+04  1.75645E+04 -2.47726E+04  4.19749E+03 -2.08294E+04 -9.53026E+03
 -1.00324E+04 -1.64704E+04  3.71551E+02 -1.39730E+04  5.19671E+03 -7.91096E+03  4.81677E+03 -5.21216E+03
  3.75883E+03 -3.62515E+03  3.93683E+03 -3.79090E+03  5.76309E+03 -3.80649E+03  8.10118E+03 -1.97778E+03
  9.81523E+03  2.32583E+03  6.23268E+03  9.40638E+03 -2.50050E+03  1.07526E+04 -1.16345E+04  8.69663E+03
 -1.46075E+04 -1.14354E+03 -8.64799E+03 -1.01130E+04 -1.46919E+03 -1.65129E+04  7.79377E+03 -1.51375E+04
  1.60708E+04 -8.65094E+03  1.85873E+04  3.56046E+03  1.27485E+04  1.37356E+04  2.60993E+03  1.73025E+04
 -6.77022E+03  1.37402E+04 -1.01934E+04  4.79866E+03 -7.86146E+03 -1.68097E+03 -3.92538E+03 -2.23410E+03
 -1.47812E+03 -1.28095E+03 -2.08286E+03  2.59656E+03 -6.10696E+03  2.13886E+03 -1.03283E+04 -1.35824E+03
 -7.00959E+03 -9.49295E+03  5.02065E+01 -1.37970E+04  8.64775E+03 -1.24787E+04  1.33870E+04 -3.59169E+03
  1.36670E+04  7.19119E+03  6.55184E+03  1.29287E+04 -2.88677E+03  1.43128E+04 -9.92743E+03  9.65936E+03
 -1.31777E+04 -2.75216E+02 -1.04531E+04 -8.81873E+03 -1.75902E+03 -1.18045E+04  6.82472E+03 -9.12095E+03
  8.53454E+03 -3.18868E+03  6.47922E+03  3.09915E+03  1.86915E+03  3.44200E+03  1.06392E+03  2.11329E+03
  2.61549E+03  4.70591E+02  3.36110E+03  1.87476E+03  4.47457E+03  4.88718E+03  3.77393E+03  7.75647E+03
 -3.23970E+03  1.13445E+04 -1.02016E+04  1.20858E+04 -1.51397E+04  3.57017E+03 -1.57561E+04 -5.90699E+03
 -7.31684E+03 -1.47999E+04  2.29398E+03 -1.58174E+04  9.29317E+03 -9.60431E+03  1.17074E+04 -2.95714E+03
  8.98457E+03  5.44718E+03  1.45948E+03  8.21888E+03 -4.65788E+03  5.39626E+03 -5.95092E+03 -9.48175E+02
 -2.77567E+03 -6.06400E+03  3.93187E+03 -6.37510E+03  6.27724E+03 -2.66317E+03  5.11727E+03  1.54421E+03
  2.41948E+03  2.72183E+03  1.52893E+03  2.05034E+03 -9.28892E+02  2.40908E+03  1.95116E+03 -4.25675E+02
  1.51998E+03 -6.81869E+02  6.14073E+03  1.97198E+03  2.83016E+03  8.00128E+03 -9.58351E+02  9.88417E+03
 -6.48726E+03  7.15895E+03 -9.51415E+03  1.60599E+03 -7.93258E+03 -2.68171E+03 -3.23931E+03 -5.69534E+03
  9.62055E+02 -5.52861E+03  3.30181E+03 -2.91975E+03  2.83427E+03  2.47711E+03 -1.76916E+03  6.05003E+03
 -6.15445E+03  2.72710E+03 -6.26012E+03 -3.38447E+03 -3.88972E+03 -7.82523E+03  1.27627E+03 -7.88069E+03
  5.36042E+03 -3.88702E+03  5.21282E+03 -1.23589E+03  4.53284E+03  1.86881E+03  2.17337E+02  4.25465E+03
 -2.22955E+03  1.44339E+03 -4.08184E+03 -2.27632E+03  1.40775E+03 -5.55597E+03  6.87857E+03 -4.53180E+03
  8.85443E+03  1.78394E+03  8.91257E+03  6.57686E+03  2.88643E+03  9.70120E+03 -3.40992E+03  7.92548E+03
 -7.91811E+03  3.51800E+03 -7.69303E+03 -7.52729E+02 -4.01412E+03 -5.91798E+03  1.30124E+03 -5.97690E+03
  5.63249E+03 -2.34882E+03  4.58387E+03  2.05379E+03  1.66171E+03  4.89973E+03 -2.33679E+02  4.68635E+03
 -2.18701E+03  2.70761E+03 -2.18414E+03  7.19322E+02 -1.45784E+03  7.59873E+02 -1.41863E+03  1.87979E+03
 -2.53960E+03  4.29162E+03 -6.27561E+03  3.98110E+03 -1.02341E+04  2.51846E+02 -1.11603E+04 -6.28139E+03
 -5.70888E+03 -1.22784E+04  3.11577E+03 -1.46556E+04  9.22873E+03 -1.07900E+04  1.31557E+04 -4.15634E+03
  1.26636E+04  2.53643E+03  7.27677E+03  8.44923E+03  1.09061E+03  9.28210E+03 -5.07854E+03  6.58397E+03
 -6.17723E+03  2.87645E+03 -2.90807E+03 -6.76549E+02 -4.53565E+02 -9.32601E+02 -1.44307E+03 -7.51337E+01
 -2.39398E+03  7.26656E+02 -1.77443E+03 -6.08996E+01 -9.71993E+02 -2.17853E+03  4.74439E+02 -3.87074E+03
  3.37117E+03 -2.92130E+03  5.28360E+03 -2.42341E+02  6.88079E+03  4.91625E+03  1.02808E+03  9.30723E+03
 -5.01365E+03  1.09544E+04 -9.91019E+03  5.75646E+03 -1.16791E+04 -1.34186E+03 -9.21019E+03 -7.57023E+03
 -3.45923E+03 -9.60066E+03  2.30689E+03 -8.61852E+03  5.43517E+03 -5.05562E+03  6.33193E+03  9.12748E+02
  2.80724E+03  3.74978E+03 -9.65517E+02  2.54719E+03 -2.42096E+03 -7.03487E+02  3.32049E+01 -2.33306E+03
  2.94091E+03 -1.10182E+03  3.41624E+03  6.50361E+02  1.75309E+03  3.90151E+03 -3.30770E+02  4.80902E+03
 -4.50660E+03  5.14617E+03 -6.66843E+03  9.17003E+02 -5.07432E+03 -4.72935E+03 -1.02807E+03 -7.16248E+03
  4.65120E+03 -6.39107E+03  7.31762E+03 -1.83430E+03  7.05767E+03  9.34213E+02  4.75305E+03  5.90253E+03
  8.41203E+02  5.80866E+03 -3.10854E+03  4.89833E+03 -3.33486E+03  2.30393E+03 -2.93339E+03  4.48677E+02
 -2.17585E+03 -8.82840E+02 -2.06108E+03  4.73729E+02 -3.96578E+03  1.27003E+03 -5.03060E+03 -7.69654E+02
 -4.79962E+03 -3.46821E+03 -1.51654E+03 -5.82784E+03  1.52513E+03 -6.81301E+03  5.25816E+03 -4.10399E+03
  6.45776E+03  1.34229E+03  3.15861E+03  4.34340E+03 -2.48761E+02  6.75654E+03 -5.24568E+03  3.44250E+03
