 $NMID ID='MM_0lb_SNR400_8hz_g50_10.RAW', FMTDAT='(8E13.5)'
 TRAMP=1., VOLUME=1. $END
  3.10150E+05  7.37500E+02  3.37969E+05  2.50897E+05  8.51873E+04  3.37984E+05 -1.32917E+05  2.51676E+05
 -1.90539E+05  8.43113E+04 -1.13376E+05 -3.18230E+04 -3.65612E+02 -5.17812E+04  5.45150E+04 -3.11431E+02
  3.53929E+04  5.28362E+04 -1.68876E+04  7.60145E+04 -6.21236E+04  6.38406E+04 -8.48295E+04  3.26059E+04
 -8.30976E+04 -1.25603E+04 -5.82578E+04 -5.25303E+04 -1.52963E+04 -7.16735E+04  2.75214E+04 -4.70310E+04
  4.08481E+04  4.88492E+03  1.72512E+04  4.83760E+04 -3.61519E+04  4.78514E+04 -6.88831E+04  1.00824E+02
 -5.53293E+04 -5.79015E+04 -7.11212E+03 -8.01628E+04  3.41762E+04 -5.72334E+04  5.00927E+04 -1.87500E+04
  4.48670E+04  1.17047E+04  3.36802E+04  2.75205E+04  1.64286E+04  3.12411E+04 -5.79083E+03  2.68728E+04
 -2.24738E+04  1.32929E+04 -1.73263E+04 -5.83895E+03  8.14049E+03 -7.70152E+03  2.41555E+04  1.35869E+04
  5.79922E+03  3.81735E+04 -3.43761E+04  3.76173E+04 -6.62994E+04  2.28034E+03 -5.96418E+04 -4.46544E+04
 -1.19904E+04 -6.60995E+04  4.25199E+04 -4.78037E+04  6.24544E+04 -3.07140E+03  3.66368E+04  3.50456E+04
 -4.85407E+03  4.00046E+04 -3.14916E+04  1.96764E+04 -3.42628E+04 -2.90752E+03 -2.02459E+04 -1.18515E+04
 -1.00611E+04 -1.53904E+04 -1.75990E+02 -1.99141E+04  8.29561E+03 -2.36030E+04  1.57962E+04 -1.23127E+04
  1.04091E+04  7.01962E+03 -1.12484E+04  1.24910E+04 -2.40720E+04 -6.91227E+03 -9.04196E+03 -3.86435E+04
  2.53139E+04 -4.69778E+04  5.29095E+04 -2.10765E+04  4.96108E+04  2.18620E+04  1.76529E+04  4.76523E+04
 -1.69745E+04  3.64524E+04 -2.79469E+04  2.81001E+03 -1.14715E+04 -3.07572E+04  2.16352E+04 -3.68822E+04
  4.53394E+04 -1.16114E+04  4.14193E+04  2.54760E+04  2.19873E+04  5.22088E+04 -8.48781E+03  5.74333E+04
 -3.61978E+04  3.95226E+04 -4.86192E+04  1.18313E+04 -4.91144E+04 -1.89781E+04 -2.60484E+04 -4.32771E+04
  7.37856E+03 -4.36620E+04  3.49640E+04 -1.73792E+04  3.22585E+04  1.09013E+04  5.16770E+03  2.18734E+04
 -1.36433E+04  9.45276E+03 -1.18513E+04 -7.53668E+03  5.26114E+03 -1.10622E+04  1.97202E+04  4.96646E+03
  1.45591E+04  2.30812E+04 -5.25631E+03  2.81705E+04 -2.33383E+04  1.49743E+04 -3.15817E+04 -2.61177E+03
 -2.72411E+04 -1.85457E+04 -1.28901E+04 -2.63132E+04  4.26627E+03 -2.66862E+04  2.06307E+04 -2.37971E+04
  3.40316E+04 -1.46134E+04  3.95768E+04  4.88138E+03  2.79785E+04  2.58584E+04  4.50785E+03  4.23704E+04
 -2.02987E+04  3.45942E+04 -3.11646E+04  1.16365E+04 -2.27791E+04 -1.06188E+04 -4.56696E+03 -1.24261E+04
 -2.16712E+02 -1.31085E+03 -8.17472E+03  8.61070E+03 -2.13861E+04  4.62395E+03 -2.14949E+04 -1.03302E+04
 -1.12123E+04 -2.37596E+04  6.19625E+03 -2.90787E+04  2.00660E+04 -1.95297E+04  2.39261E+04 -2.14644E+03
  1.54061E+04  1.65499E+04 -1.46755E+03  2.36015E+04 -1.74861E+04  1.38439E+04 -2.47468E+04 -5.40852E+03
 -1.78949E+04 -2.14264E+04 -2.93813E+03 -2.91403E+04  1.31000E+04 -2.44304E+04  2.36396E+04 -1.27194E+04
  2.27324E+04 -4.48663E+02  1.66087E+04  5.69512E+03  9.91808E+03  3.12013E+03  1.32082E+04 -2.20882E+03
  2.28151E+04  3.20585E+03  2.64856E+04  1.91509E+04  1.77236E+04  3.95181E+04 -3.00834E+03  4.62455E+04
 -2.62660E+04  3.92086E+04 -4.38580E+04  1.99981E+04 -4.72924E+04 -4.02558E+03 -3.74273E+04 -2.77854E+04
 -1.46561E+04 -3.93511E+04  1.41176E+04 -3.45787E+04  2.88242E+04 -1.52604E+04  2.48886E+04  8.11388E+03
  7.89705E+03  1.98450E+04 -1.12367E+04  1.63437E+04 -2.16399E+04  2.38007E+03 -1.65335E+04 -1.34957E+04
 -5.19042E+01 -2.00958E+04  1.12463E+04 -1.41385E+04  1.45999E+04 -1.53274E+03  3.36977E+03  9.67422E+03
 -9.39204E+03  5.01849E+03 -1.01123E+04 -6.72094E+03 -2.35676E+03 -1.92625E+04  1.23120E+04 -2.10563E+04
  2.46900E+04 -1.28060E+04  2.77421E+04  3.61531E+03  2.46653E+04  1.89467E+04  1.16617E+04  3.16885E+04
 -6.15016E+03  3.26696E+04 -2.17984E+04  2.07192E+04 -2.48254E+04  3.83588E+03 -1.61511E+04 -6.33526E+03
 -6.26217E+03 -6.76478E+03 -5.19983E+02 -3.75442E+02 -3.33223E+03  3.42987E+03 -7.85413E+03  5.60646E+03
 -1.53352E+04 -9.43062E+02 -1.50596E+04 -1.20371E+04 -6.72784E+03 -2.11726E+04  6.84385E+03 -1.64846E+04
  1.33012E+04 -6.70486E+03  1.01312E+04  4.61695E+03 -1.21987E+03  5.59870E+03 -8.27138E+03 -9.29736E+01
 -8.88360E+03 -1.08045E+04 -1.35551E+03 -1.74501E+04  9.22294E+03 -1.71979E+04  2.14656E+04 -8.75987E+03
  2.36468E+04  2.26211E+03  1.82361E+04  1.53618E+04  4.12204E+03  2.08948E+04 -9.99394E+03  1.63254E+04
 -1.38093E+04  4.18844E+03 -7.34761E+03 -4.69692E+03  1.86743E+03 -5.07712E+03  9.35575E+03 -1.51848E+03
  7.85127E+03  7.38034E+03  1.04318E+03  1.34580E+04 -9.27749E+03  1.34517E+04 -1.70065E+04  3.20889E+03
 -1.21421E+04 -9.01619E+03  4.79131E+02 -1.57332E+04  9.59817E+03 -7.13233E+03  1.02206E+04  4.28259E+03
  1.88533E+03  1.15243E+04 -8.52633E+03  1.32635E+04 -1.48922E+04  4.74482E+03 -1.50363E+04 -5.48221E+03
 -8.49014E+03 -1.77581E+04  4.56646E+03 -1.97252E+04  1.62068E+04 -1.16682E+04  1.91422E+04  3.37897E+03
  1.19312E+04  1.54518E+04 -1.77212E+03  1.66978E+04 -1.30119E+04  9.46218E+03 -1.43750E+04 -1.40031E+03
 -1.16583E+04 -1.10547E+04 -1.62594E+03 -1.33844E+04  6.59142E+03 -1.09451E+04  8.20144E+03 -4.25205E+03
  5.62967E+03  2.73879E+03 -1.15233E+03  1.59773E+03 -1.11345E+03 -4.55053E+03  2.52612E+03 -8.24205E+03
  1.28186E+04 -5.05872E+03  1.70578E+04  2.21418E+03  1.75591E+04  1.18279E+04  1.10501E+04  2.41002E+04
 -5.56438E+03  2.60408E+04 -2.17613E+04  1.91844E+04 -2.84385E+04  4.06972E+03 -2.29503E+04 -9.89331E+03
 -1.06452E+04 -1.93054E+04 -7.87732E+02 -1.58125E+04  6.12625E+03 -9.41579E+03  5.19828E+03 -6.09217E+03
  4.58758E+03 -2.65954E+03  4.49551E+03 -4.00598E+03  5.90160E+03 -4.09567E+03  9.01931E+03 -9.63167E+02
  1.21342E+04  2.25861E+03  6.79885E+03  1.06485E+04 -1.89378E+03  1.15736E+04 -1.25310E+04  1.02615E+04
 -1.52338E+04 -1.91503E+03 -1.07527E+04 -1.07837E+04 -1.79021E+03 -1.78719E+04  9.68830E+03 -1.75148E+04
  1.91288E+04 -8.78028E+03  2.16077E+04  4.08142E+03  1.47130E+04  1.52045E+04  2.41308E+03  1.96651E+04
 -8.87058E+03  1.60272E+04 -1.14377E+04  5.40372E+03 -7.71155E+03 -1.71234E+03 -3.97738E+03 -2.63764E+03
 -1.67270E+03  3.56496E+02 -2.43126E+03  2.86227E+03 -6.59210E+03  3.71274E+03 -1.06115E+04 -2.06447E+03
 -8.43008E+03 -1.09987E+04 -7.42306E+02 -1.62922E+04  1.05648E+04 -1.53148E+04  1.73822E+04 -5.48542E+03
  1.66086E+04  9.12394E+03  6.74198E+03  1.58680E+04 -3.79140E+03  1.61935E+04 -1.31411E+04  1.04895E+04
 -1.60516E+04  4.46506E+02 -1.17964E+04 -9.74394E+03 -1.09990E+03 -1.37925E+04  7.07104E+03 -1.02071E+04
  1.00338E+04 -3.37497E+03  7.31833E+03  2.28907E+03  1.95753E+03  4.81383E+03  1.48734E+03  2.73167E+03
  2.70105E+03  1.59342E+03  4.10528E+03  1.68462E+03  5.65751E+03  5.37628E+03  4.16326E+03  9.00609E+03
 -2.89450E+03  1.32856E+04 -1.13981E+04  1.28452E+04 -1.80583E+04  4.12749E+03 -1.87807E+04 -7.87859E+03
 -8.76769E+03 -1.72756E+04  2.22789E+03 -1.84614E+04  1.02449E+04 -1.23924E+04  1.37031E+04 -3.34785E+03
  1.07618E+04  6.41109E+03  2.62029E+03  9.12728E+03 -4.53383E+03  6.25467E+03 -7.42734E+03 -1.27209E+03
 -3.29940E+03 -7.57204E+03  3.40434E+03 -6.84778E+03  7.13317E+03 -4.47146E+03  7.44740E+03  1.44649E+03
  4.62879E+03  3.96778E+03  1.85986E+03  2.34123E+03 -7.84274E+02  2.43994E+03  2.49351E+03 -1.21045E+03
  2.73651E+03 -1.13565E+03  7.33920E+03  3.74096E+03  4.13831E+03  8.77329E+03 -2.13629E+03  1.24177E+04
 -8.25918E+03  8.78576E+03 -1.07138E+04  3.04508E+03 -1.05354E+04 -4.09183E+03 -4.08872E+03 -7.17992E+03
  1.41049E+03 -7.54411E+03  4.88654E+03 -3.25549E+03  3.83017E+03  3.59753E+03 -1.83230E+03  5.96676E+03
 -7.60665E+03  3.15310E+03 -8.07872E+03 -3.60366E+03 -4.87662E+03 -1.00890E+04  1.35881E+03 -9.50521E+03
  5.61324E+03 -5.42350E+03  7.43203E+03 -5.94341E+02  5.94255E+03  2.62745E+03  1.42711E+03  5.29420E+03
 -3.16324E+03  1.60411E+03 -4.39895E+03 -3.06995E+03  2.33647E+03 -7.59080E+03  9.02840E+03 -6.70925E+03
  1.15875E+04  8.84509E+02  1.05361E+04  8.24152E+03  3.58472E+03  1.22557E+04 -4.29212E+03  1.15296E+04
 -8.64317E+03  5.26966E+03 -1.00472E+04 -1.84854E+03 -5.20065E+03 -8.13679E+03  2.27065E+03 -7.27503E+03
  8.11327E+03 -2.20701E+03  6.01343E+03  2.62968E+03  2.73344E+03  6.60091E+03 -7.60974E+02  6.26895E+03
 -3.44419E+03  3.28176E+03 -3.21761E+03  1.18808E+03 -2.12350E+03  1.57351E+03 -2.89491E+03  2.75277E+03
 -3.64863E+03  3.99127E+03 -8.05892E+03  3.47577E+03 -1.21490E+04  1.02136E+03 -1.33577E+04 -8.58194E+03
 -7.31363E+03 -1.57455E+04  2.49859E+03 -1.74087E+04  1.12246E+04 -1.36936E+04  1.73901E+04 -5.20957E+03
  1.62918E+04  3.71276E+03  1.01568E+04  1.06901E+04  1.28287E+03  1.24806E+04 -4.95759E+03  9.99318E+03
 -6.57138E+03  3.79080E+03 -4.30673E+03 -1.08660E+03 -1.05029E+03 -1.09733E+03 -7.28904E+01 -1.13932E+02
 -2.76163E+03 -3.91797E+02 -2.10769E+03 -1.04916E+03 -1.16484E+03 -1.95045E+03  1.72414E+02 -4.22796E+03
  4.63962E+03 -3.52344E+03  7.61613E+03 -1.43601E+02  9.26984E+03  5.90732E+03  2.34830E+03  1.24616E+04
 -6.56872E+03  1.31799E+04 -1.28812E+04  8.69136E+03 -1.48013E+04 -9.46218E+02 -1.16501E+04 -9.66803E+03
 -4.77586E+03 -1.39133E+04  3.83344E+03 -1.24044E+04  8.91274E+03 -6.87819E+03  7.85519E+03  1.76554E+02
  5.24133E+03  4.57158E+03 -2.45590E+02  3.00676E+03 -2.27946E+03  3.87484E+02 -1.34979E+02 -3.10807E+03
  3.43498E+03 -8.73435E+02  4.41072E+03  1.59040E+03  2.93668E+03  5.33282E+03  5.89357E+02  7.04278E+03
 -5.88205E+03  5.25417E+03 -8.65117E+03  7.98598E+02 -7.57376E+03 -6.77317E+03 -9.89006E+02 -1.06256E+04
  5.85227E+03 -8.38163E+03  1.08982E+04 -3.46327E+03  9.05352E+03  3.05590E+03  6.28282E+03  7.98443E+03
  9.06798E+02  8.33748E+03 -2.61945E+03  7.44528E+03 -5.57783E+03  3.77566E+03 -4.74067E+03  3.30628E+02
 -2.10213E+03 -7.20032E+02 -3.26618E+03  6.23530E+02 -4.85110E+03  1.48004E+03 -5.84915E+03 -2.09131E+03
 -6.10873E+03 -4.59899E+03 -1.28469E+03 -8.54478E+03  4.51308E+03 -8.40114E+03  6.77938E+03 -4.01594E+03
  7.75667E+03  1.80329E+03  4.30579E+03  5.55532E+03 -1.33272E+03  9.04342E+03 -6.24020E+03  5.85366E+03
