 $NMID ID='MM_0lb_SNR400_20hz_g40_23.RAW', FMTDAT='(8E13.5)'
 TRAMP=1., VOLUME=1. $END
  3.09369E+05  5.47415E+02  3.37165E+05  2.49939E+05  8.43490E+04  3.36717E+05 -1.32628E+05  2.49836E+05
 -1.89568E+05  8.21806E+04 -1.10388E+05 -3.33551E+04  1.51663E+03 -4.99865E+04  5.40036E+04 -2.49081E+02
  3.49164E+04  5.26093E+04 -1.66184E+04  7.43567E+04 -6.00464E+04  6.17421E+04 -8.21250E+04  3.10596E+04
 -7.86330E+04 -1.10010E+04 -5.54555E+04 -4.90447E+04 -1.45994E+04 -6.71458E+04  2.60423E+04 -4.45615E+04
  3.80161E+04  3.41257E+03  1.58173E+04  4.70062E+04 -3.36608E+04  4.54532E+04 -6.47074E+04 -1.42448E+03
 -5.05075E+04 -5.50055E+04 -6.31804E+03 -7.42131E+04  3.31621E+04 -5.20673E+04  4.57515E+04 -1.58077E+04
  4.13777E+04  1.07736E+04  3.06231E+04  2.44847E+04  1.55455E+04  2.74415E+04 -4.72697E+03  2.65247E+04
 -2.11597E+04  1.31541E+04 -1.93406E+04 -3.98240E+03  3.47290E+03 -7.53310E+03  2.02484E+04  1.01555E+04
  7.67561E+03  3.19885E+04 -2.97753E+04  3.31654E+04 -5.99112E+04  2.58416E+03 -5.46966E+04 -4.02003E+04
 -1.23826E+04 -5.93525E+04  3.70908E+04 -4.25565E+04  5.35745E+04 -1.89486E+03  3.11068E+04  2.89029E+04
 -7.15625E+03  3.17368E+04 -2.74413E+04  1.21867E+04 -2.60382E+04 -5.60151E+03 -1.33894E+04 -9.83721E+03
 -6.37147E+03 -1.07608E+04 -1.41060E+03 -1.57946E+04  5.97395E+03 -2.20785E+04  1.49841E+04 -1.38001E+04
  1.25914E+04  4.08714E+03 -5.60610E+03  1.26097E+04 -1.80992E+04 -1.42136E+03 -7.94621E+03 -2.87134E+04
  1.97193E+04 -3.90869E+04  4.35699E+04 -1.78388E+04  4.00812E+04  1.79894E+04  1.31829E+04  4.02461E+04
 -1.50138E+04  2.99815E+04 -2.23517E+04  8.42473E+02 -7.63566E+03 -2.54592E+04  2.01208E+04 -2.98006E+04
  3.70266E+04 -6.67378E+03  2.93884E+04  2.18582E+04  1.35090E+04  4.08480E+04 -7.90964E+03  4.34191E+04
 -2.70734E+04  2.82827E+04 -3.49121E+04  7.88913E+03 -3.65226E+04 -1.39301E+04 -2.02349E+04 -3.24818E+04
  6.55564E+03 -3.23944E+04  2.80335E+04 -1.17237E+04  2.57463E+04  1.09640E+04  2.45796E+03  1.70586E+04
 -1.25779E+04  6.84867E+03 -9.49977E+03 -7.99269E+03  6.42814E+03 -1.01250E+04  1.68188E+04  6.46780E+03
  1.14801E+04  2.11248E+04 -7.28349E+03  2.24596E+04 -2.13380E+04  7.73622E+03 -2.34853E+04 -7.02850E+03
 -1.46159E+04 -1.59537E+04 -4.21047E+03 -1.51054E+04  3.68500E+03 -1.26939E+04  1.14934E+04 -1.22826E+04
  1.91252E+04 -1.12108E+04  2.63470E+04  5.97802E+02  2.04236E+04  1.45209E+04  4.08198E+03  3.05476E+04
 -1.51729E+04  2.60461E+04 -2.52380E+04  9.45574E+03 -1.90080E+04 -1.06757E+04 -4.08018E+03 -1.40340E+04
  2.90909E+03 -4.87686E+03 -1.41218E+03  4.50384E+03 -1.14160E+04  5.28468E+03 -1.15532E+04 -4.29587E+03
 -8.03884E+03 -1.38774E+04  4.13218E+03 -1.73444E+04  1.15668E+04 -1.23472E+04  1.33783E+04 -1.38964E+03
  7.82963E+03  1.01107E+04 -6.35200E+02  1.39936E+04 -9.00791E+03  7.99018E+03 -1.39168E+04 -3.09320E+03
 -1.04968E+04 -1.27223E+04 -1.11418E+03 -1.74129E+04  8.17691E+03 -1.38558E+04  1.49569E+04 -5.52196E+03
  1.36160E+04  9.04907E+02  9.72390E+03  3.96402E+03  4.59977E+03  4.83289E+02  6.89696E+03 -1.73708E+03
  1.23790E+04  2.78294E+03  1.23952E+04  1.20251E+04  7.95820E+03  2.22286E+04 -3.27708E+03  2.28546E+04
 -1.37254E+04  1.78358E+04 -2.16339E+04  8.04985E+03 -2.18061E+04 -1.41372E+03 -1.89441E+04 -1.21530E+04
 -9.28068E+03 -1.76199E+04  5.66099E+03 -1.71691E+04  1.49897E+04 -1.03740E+04  1.40955E+04  2.85374E+03
  6.60970E+03  9.87488E+03 -5.69796E+03  9.21024E+03 -1.20539E+04  2.67899E+03 -9.53764E+03 -7.37244E+03
  3.46366E+02 -1.15776E+04  5.25119E+03 -8.31291E+03  7.42315E+03 -1.59610E+03  1.11035E+03  4.31419E+03
 -4.84538E+03  9.97471E+02 -2.15221E+03 -4.52582E+03  8.13075E+02 -8.59510E+03  7.23420E+03 -8.14753E+03
  1.08393E+04 -3.27612E+03  9.89886E+03  2.47013E+03  8.32230E+03  7.78464E+03  4.34789E+03  1.16883E+04
 -1.27277E+03  1.32299E+04 -8.08444E+03  8.33578E+03 -9.20047E+03  2.54205E+03 -7.43843E+03 -1.02572E+03
 -4.97250E+03 -2.42154E+03 -1.35234E+03  1.67372E+03 -2.04973E+03  1.64067E+03 -2.85951E+03  4.03138E+03
 -7.38203E+03 -5.04493E+02 -8.12798E+03 -6.22923E+03 -3.20592E+03 -1.01956E+04  2.80471E+03 -7.04880E+03
  6.23794E+03 -3.57779E+03  4.72853E+03  1.81960E+03  9.60039E+01  2.12922E+03 -2.58487E+03 -6.33489E+02
 -2.71685E+03 -4.23309E+03 -8.18356E+02 -5.83896E+03  2.91851E+03 -6.97916E+03  8.74455E+03 -3.14397E+03
  1.01197E+04 -1.03354E+02  7.62455E+03  5.43253E+03  1.47612E+03  7.18275E+03 -5.13880E+03  7.28408E+03
 -6.22853E+03  2.62592E+03 -3.05285E+03 -6.05054E+02  1.16319E+03 -1.28831E+03  3.99280E+03 -8.29091E+02
  3.86615E+03  3.33280E+03  1.15691E+03  5.71935E+03 -4.14098E+03  5.50040E+03 -6.74606E+03  1.77020E+03
 -3.98064E+03 -3.03785E+03  4.92647E+02 -6.16111E+03  3.33823E+03 -2.94381E+03  3.12614E+03  6.64145E+02
  2.90358E+02  2.23038E+03 -3.60711E+03  3.92902E+03 -3.68892E+03  1.90651E+03 -3.55246E+03 -6.65020E+02
 -2.04421E+03 -4.67154E+03  6.31924E+02 -5.97680E+03  5.07855E+03 -3.56632E+03  5.69796E+03  1.11943E+03
  3.80175E+03  4.39688E+03  5.13738E+02  6.06496E+03 -4.08955E+03  3.96009E+03 -4.43294E+03 -1.94502E+02
 -5.58181E+03 -4.59596E+03 -1.56189E+03 -4.23754E+03  2.14984E+03 -4.00764E+03  2.04445E+03 -2.78958E+03
  2.54776E+03 -4.69395E+02  8.38842E+02  1.03927E+03  1.17096E+03  2.42485E+02 -3.06591E+02 -1.22943E+03
  2.99250E+03 -3.51909E+02  3.97152E+03  6.80761E+02  4.55115E+03  2.01316E+03  4.65941E+03  5.45341E+03
 -6.83280E+02  7.30415E+03 -6.12924E+03  5.27058E+03 -8.24406E+03  4.95798E+02 -6.58103E+03 -1.72490E+03
 -3.51037E+03 -5.72841E+03 -8.72843E+02 -3.98762E+03  1.86508E+03 -1.29527E+03  1.64226E+03 -1.56359E+03
  7.13580E+02 -1.47348E+03  2.24425E+03 -2.42558E+03  3.40290E+03 -1.22500E+03  3.26511E+03  9.36223E+02
  3.88663E+03  7.16932E+02  6.92782E+02  2.96142E+03 -1.29223E+03  2.02199E+03 -3.65109E+03  1.98200E+03
 -3.91834E+03 -9.32805E+02 -4.72433E+02 -2.98371E+03  1.04488E+03 -4.12292E+03  2.68832E+03 -4.29843E+03
  4.31720E+03 -2.47670E+03  4.49457E+03 -8.60275E+01  3.69415E+03  3.19231E+03  6.90059E+02  4.41102E+03
 -1.83077E+03  5.21476E+03 -2.60842E+03  1.74820E+03 -1.79110E+03 -2.79761E+02 -2.28467E+02 -3.46144E+02
 -5.70822E+02  3.85321E+02 -6.74427E+02  1.58522E+03 -2.05743E+03  8.81349E+02 -3.59633E+03 -3.04853E+02
 -1.53793E+03 -3.24458E+03  9.76100E+02 -3.68543E+03  2.08381E+03 -3.41876E+03  2.34076E+03 -8.92364E+02
  3.09756E+03  1.75149E+03  1.16581E+03  2.06641E+03 -7.14827E+02  3.51648E+03 -1.53941E+03  2.61426E+03
 -3.02759E+03  4.73952E+02 -2.55041E+03 -1.97792E+03 -2.35631E+02 -2.24840E+03  1.36030E+03 -2.00913E+03
  2.56790E+03 -1.25895E+03  1.59857E+03  3.95491E+02  1.31000E+03  1.10840E+03  5.03630E+02  7.61378E+02
  1.24209E+03  7.65128E+02  8.88375E+02  1.73572E+02  9.56209E+02  2.14070E+03  9.70391E+02  1.15391E+03
 -1.10921E+03  2.33104E+03 -1.75009E+03  3.55506E+03 -1.77625E+03  1.57662E+03 -3.08125E+03 -1.96137E+02
 -1.51101E+03 -2.60297E+03  8.68504E+02 -3.86368E+03  1.20708E+03 -1.51239E+03  2.17866E+03 -5.41218E+02
  1.64071E+03  1.09300E+03 -1.42934E+02  1.94906E+03 -1.09961E+02  6.28893E+02 -5.30171E+02 -3.68061E+02
 -8.35681E+02 -1.40870E+03  5.26755E+02 -9.18416E+02  7.60354E+02 -8.73029E+02  1.48181E+03  5.25642E+02
  7.10908E+02 -1.29030E+01  7.55138E+02 -3.56551E+02 -4.62646E+01  5.79995E+02  1.56112E+03  1.79045E+02
  4.57666E+02  1.08269E+02  1.33499E+03  4.07299E+02  1.74245E+01  2.14278E+03 -4.32886E+02  2.17531E+03
 -7.67277E+02  6.80081E+02 -1.40244E+03  1.30225E+02 -1.87840E+03 -4.20168E+02  1.54945E+02 -1.04159E+03
 -1.25795E+02 -1.06165E+03  1.10404E+03 -4.92259E+02  6.32925E+02  1.65346E+03 -8.05823E+02  7.97816E+02
 -1.03259E+03  7.29226E+02 -9.57505E+02 -6.99779E+02 -3.00465E+02 -1.92520E+03 -2.61899E+02 -1.36771E+03
 -1.97505E+02  6.51847E+01  5.59131E+02  1.70451E+02  9.33991E+02 -1.18390E+02  3.36014E+02  1.06036E+03
 -1.49193E+02 -3.06796E+02 -5.95364E+02 -1.03542E+02  8.91571E+02 -5.03758E+02  9.87792E+02 -5.26812E+02
  1.04440E+03  3.74072E+02  2.19376E+03  1.77656E+02  8.53649E+02  7.10339E+02 -2.92120E+02  1.70394E+03
 -1.09483E+03  2.05523E+02 -1.39014E+03  2.89386E+02 -3.95047E+02 -3.28250E+02  6.98279E+02 -3.37441E+02
  1.48425E+03 -2.91968E+02  7.87409E+02  1.73843E+02  3.94764E+02  1.26590E+03  7.11027E+01  6.42045E+02
 -5.51650E+02  1.11595E+03  4.95348E+01 -1.64340E+02 -1.67780E+02  3.14018E+02 -9.09397E+02  7.65778E+02
 -7.65028E+02  5.22722E+02 -1.24221E+03  1.76820E+02 -1.03743E+03 -2.99397E+02 -1.79841E+03 -6.25243E+02
 -7.70931E+02 -1.42780E+03  1.16112E+03 -2.23253E+03  1.06569E+03 -2.03698E+03  2.17301E+03 -6.41100E+02
  1.87564E+03 -5.53448E+02  6.84498E+02  7.24276E+02  2.20429E+01  8.88821E+02 -4.97567E+02  1.17396E+03
 -3.85870E+02  5.75715E+02 -5.02461E+02 -3.09472E+02 -5.35867E+02  5.21748E+02 -1.70286E+01 -3.80253E+02
 -8.49179E+02  3.77520E+02 -1.40467E+03 -2.69885E+02  3.20886E+02 -4.31834E+02 -3.63322E+02 -6.57508E+02
  1.15863E+03 -4.11770E+02  4.58604E+02  6.86268E+01  8.98710E+02  5.82276E+02 -4.72801E+02  9.15684E+02
 -1.15659E+03  2.06223E+03 -9.06060E+02  1.18469E+03 -8.36379E+02 -2.75341E+02 -8.51901E+02 -8.49399E+02
 -6.12773E+02 -8.17493E+02  7.88080E+02 -9.22068E+02  9.58907E+02 -3.17394E+02 -7.04905E+01  1.17065E+01
  4.96943E+02  2.63703E+02  3.49967E+02  6.30117E+02 -6.59158E+02 -8.75215E+02 -4.66814E+02 -2.91796E+02
  2.23565E+02  5.97065E+02  3.04314E+02  5.46170E+02 -3.81423E+02  5.81678E+02  6.47883E+02 -1.78534E+02
 -1.53268E+02  9.10010E+02 -2.12265E+02  3.05365E+02 -8.15548E+02  8.45806E+01 -2.12240E+02 -5.97250E+02
  5.15234E+02 -2.43690E+02  3.30564E+02  1.97632E+01  1.66299E+02 -6.20712E+02  5.56345E+01  8.20926E+02
  9.69885E+02  2.72613E+02 -4.67642E+02 -3.31274E+02 -2.05963E+02  9.56647E+02 -2.99673E+01 -1.21118E+02
 -1.05834E+02 -1.89376E+02 -9.00056E+02  2.33350E+02 -6.25525E+02 -3.98918E+01 -6.52550E+02 -8.74552E+02
 -1.10735E+03  3.15689E+02 -2.65954E+02 -6.58034E+02  8.86509E+01 -7.96316E+02  3.52114E+02 -4.09774E+02
  2.93565E+02 -1.19362E+02 -8.29949E+02 -2.98691E+02  2.09841E+02  5.34402E+02 -2.91871E+02  5.38895E+02
