 $NMID ID='MM_0lb_SNR400_15hz_g60_99.RAW', FMTDAT='(8E13.5)'
 TRAMP=1., VOLUME=1. $END
  3.09514E+05  1.68261E+02  3.37671E+05  2.50551E+05  8.44602E+04  3.37618E+05 -1.32013E+05  2.51587E+05
 -1.90623E+05  8.34086E+04 -1.12319E+05 -3.28077E+04  9.17936E+02 -5.03365E+04  5.36127E+04 -5.68303E+02
  3.51935E+04  5.31620E+04 -1.66097E+04  7.53702E+04 -6.03445E+04  6.39483E+04 -8.49929E+04  3.25218E+04
 -8.17028E+04 -1.22811E+04 -5.81506E+04 -5.12857E+04 -1.48775E+04 -7.00127E+04  2.76861E+04 -4.65526E+04
  4.05025E+04  4.04802E+03  1.61452E+04  4.83796E+04 -3.43328E+04  4.70541E+04 -6.64825E+04 -1.91132E+02
 -5.41917E+04 -5.69212E+04 -7.03517E+03 -7.77612E+04  3.47807E+04 -5.49817E+04  4.84850E+04 -1.76586E+04
  4.40629E+04  1.20515E+04  3.27707E+04  2.58065E+04  1.56747E+04  2.89744E+04 -4.85407E+03  2.67362E+04
 -2.25635E+04  1.14690E+04 -1.78970E+04 -5.04389E+03  5.56432E+03 -7.48932E+03  2.26664E+04  1.27462E+04
  7.29795E+03  3.50904E+04 -3.27154E+04  3.58101E+04 -6.37690E+04  2.17906E+03 -5.77487E+04 -4.30023E+04
 -1.28832E+04 -6.35977E+04  4.01053E+04 -4.55474E+04  5.98280E+04 -1.87558E+03  3.51511E+04  3.29499E+04
 -6.07387E+03  3.59847E+04 -3.05549E+04  1.67429E+04 -3.04543E+04 -3.72670E+03 -1.76752E+04 -1.16343E+04
 -7.96785E+03 -1.31999E+04 -4.73125E+02 -1.87315E+04  7.96812E+03 -2.30894E+04  1.53146E+04 -1.28946E+04
  1.14224E+04  5.60414E+03 -8.48289E+03  1.35939E+04 -2.14556E+04 -4.90342E+03 -8.54717E+03 -3.44871E+04
  2.29655E+04 -4.34341E+04  4.91776E+04 -2.01373E+04  4.56691E+04  2.04806E+04  1.65522E+04  4.50704E+04
 -1.62324E+04  3.35971E+04 -2.60467E+04  2.52950E+03 -1.03496E+04 -2.90837E+04  2.16031E+04 -3.46312E+04
  4.18640E+04 -9.80226E+03  3.71445E+04  2.40022E+04  1.89231E+04  4.68243E+04 -8.27931E+03  5.09416E+04
 -3.26415E+04  3.52410E+04 -4.20495E+04  9.56253E+03 -4.31131E+04 -1.66471E+04 -2.42275E+04 -3.95909E+04
  7.83321E+03 -3.78551E+04  3.20044E+04 -1.51795E+04  2.89298E+04  1.13717E+04  4.86393E+03  1.94928E+04
 -1.32208E+04  8.25144E+03 -1.05363E+04 -7.98465E+03  5.99820E+03 -1.11722E+04  1.85106E+04  5.94627E+03
  1.43104E+04  2.17393E+04 -6.50094E+03  2.56501E+04 -2.28858E+04  1.19026E+04 -2.86997E+04 -4.73823E+03
 -2.14884E+04 -1.75000E+04 -8.38245E+03 -2.00244E+04  3.93739E+03 -1.97065E+04  1.65663E+04 -1.89395E+04
  2.66152E+04 -1.27089E+04  3.28905E+04  3.49847E+03  2.44316E+04  2.06293E+04  4.53555E+03  3.68389E+04
 -1.84117E+04  3.06093E+04 -2.79743E+04  1.07179E+04 -2.04199E+04 -1.07533E+04 -5.05209E+03 -1.34058E+04
  1.26502E+03 -3.01601E+03 -4.73267E+03  7.36418E+03 -1.68805E+04  5.85415E+03 -1.64602E+04 -7.55274E+03
 -1.04308E+04 -1.97872E+04  5.06531E+03 -2.36594E+04  1.61289E+04 -1.71874E+04  1.84573E+04 -1.90423E+03
  1.17564E+04  1.32047E+04 -1.20413E+03  1.93794E+04 -1.44748E+04  1.14880E+04 -1.96742E+04 -3.99621E+03
 -1.36281E+04 -1.72324E+04 -1.50858E+03 -2.37382E+04  1.01234E+04 -1.89053E+04  1.99008E+04 -1.00442E+04
  1.85294E+04  4.46490E+02  1.31356E+04  4.65087E+03  7.11870E+03  1.36523E+03  9.43404E+03 -1.34729E+03
  1.83186E+04  2.78842E+03  1.99991E+04  1.49326E+04  1.27876E+04  3.10425E+04 -3.28740E+03  3.51815E+04
 -1.97438E+04  2.80239E+04 -3.23348E+04  1.38510E+04 -3.43866E+04 -2.74397E+03 -2.78010E+04 -2.02921E+04
 -1.13606E+04 -2.83802E+04  9.89582E+03 -2.53308E+04  2.15248E+04 -1.32692E+04  1.90014E+04  6.00670E+03
  7.32389E+03  1.43703E+04 -9.51688E+03  1.26718E+04 -1.68077E+04  2.90356E+03 -1.26684E+04 -1.01295E+04
 -3.86885E+02 -1.58739E+04  7.15456E+03 -1.21219E+04  1.05116E+04 -1.64737E+03  2.68993E+03  7.36846E+03
 -6.90484E+03  3.24778E+03 -6.89068E+03 -5.04305E+03 -8.07666E+02 -1.38613E+04  9.46136E+03 -1.39337E+04
  1.70123E+04 -8.00088E+03  1.82277E+04  3.41197E+03  1.56727E+04  1.38992E+04  7.66246E+03  1.99796E+04
 -3.00001E+03  2.25504E+04 -1.46825E+04  1.42270E+04 -1.63639E+04  3.67886E+03 -1.13792E+04 -3.32472E+03
 -5.36328E+03 -4.50572E+03 -3.69966E+02  6.54595E+02 -2.33349E+03  2.89550E+03 -5.87890E+03  4.57418E+03
 -1.08498E+04 -8.90747E+02 -1.09982E+04 -9.00347E+03 -4.34726E+03 -1.42969E+04  4.76740E+03 -1.13931E+04
  9.16112E+03 -4.55441E+03  6.84103E+03  3.31304E+03  1.72779E+02  4.58370E+03 -5.02332E+03 -6.59496E+02
 -4.73800E+03 -7.49506E+03 -7.28555E+02 -1.05868E+04  5.83383E+03 -1.08272E+04  1.42307E+04 -6.27628E+03
  1.64398E+04  1.16209E+03  1.22717E+04  9.98997E+03  2.42174E+03  1.26133E+04 -7.46312E+03  1.14509E+04
 -8.76065E+03  3.21182E+03 -5.28511E+03 -2.14538E+03  1.72465E+03 -3.15425E+03  6.51078E+03 -1.51857E+03
  5.33441E+03  5.12611E+03  7.66144E+02  8.68131E+03 -6.08442E+03  8.89270E+03 -1.14294E+04  2.28637E+03
 -7.16691E+03 -5.03752E+03  7.92441E+02 -9.54316E+03  5.85566E+03 -4.62611E+03  6.01090E+03  1.95611E+03
  1.64123E+03  6.18369E+03 -4.93071E+03  7.23559E+03 -7.87455E+03  3.29443E+03 -8.11033E+03 -2.83654E+03
 -5.02019E+03 -9.69611E+03  2.04830E+03 -1.12106E+04  9.52886E+03 -6.59890E+03  1.05591E+04  1.98408E+03
  6.48019E+03  8.35936E+03 -3.23152E+02  1.02968E+04 -8.34851E+03  6.07438E+03 -8.51718E+03 -1.40902E+03
 -7.30341E+03 -6.99364E+03 -1.19135E+03 -7.41779E+03  3.50968E+03 -5.90867E+03  4.96768E+03 -3.00817E+03
  3.64416E+03  8.13451E+02  2.09311E+02  1.35499E+03 -2.85084E+02 -1.25338E+03  1.08692E+03 -4.16277E+03
  7.11538E+03 -2.18629E+03  9.44560E+03  1.23414E+03  9.00849E+03  5.95813E+03  7.22456E+03  1.15864E+04
 -2.05816E+03  1.39940E+04 -1.24698E+04  1.03309E+04 -1.59171E+04  1.94989E+03 -1.24333E+04 -4.56717E+03
 -6.11032E+03 -9.92323E+03 -5.08128E+02 -8.18677E+03  3.56906E+03 -4.41718E+03  2.15291E+03 -3.39190E+03
  2.21488E+03 -2.02368E+03  2.97871E+03 -3.22878E+03  5.02798E+03 -1.93987E+03  4.79376E+03 -4.94421E+02
  6.20320E+03  1.71166E+03  2.91432E+03  5.16652E+03 -1.62776E+03  5.69831E+03 -6.17994E+03  4.74664E+03
 -8.54600E+03 -9.88828E+02 -4.19218E+03 -5.68033E+03  1.88809E+02 -8.09927E+03  5.28859E+03 -8.23733E+03
  8.32620E+03 -5.49900E+03  1.11218E+04  1.61042E+03  8.00978E+03  6.92372E+03  1.66212E+03  9.70218E+03
 -3.87917E+03  9.39232E+03 -6.39375E+03  3.02958E+03 -4.01395E+03 -1.66063E+03 -1.36905E+03 -3.68622E+02
 -1.05272E+03  4.80593E+02 -1.22783E+03  2.28206E+03 -4.34380E+03  1.70706E+03 -5.66959E+03 -6.67274E+02
 -3.84883E+03 -5.53191E+03  7.57505E+02 -6.97811E+03  4.44969E+03 -6.91567E+03  6.90626E+03 -2.39310E+03
  6.99541E+03  3.70103E+03  2.87910E+03  5.78890E+03 -2.05158E+03  7.57295E+03 -4.88125E+03  4.73703E+03
 -7.30402E+03  7.84485E+02 -5.38175E+03 -4.34669E+03 -6.13569E+02 -5.85990E+03  3.18562E+03 -4.20053E+03
  5.15119E+03 -1.41628E+03  3.54055E+03  7.09424E+02  9.54641E+02  2.71299E+03  8.36511E+02  9.10367E+02
  1.62829E+03  6.60958E+02  2.24272E+03  1.02941E+03  1.50456E+03  3.12031E+03  1.85435E+03  3.99999E+03
 -1.87190E+03  5.32668E+03 -4.37648E+03  6.26926E+03 -6.34311E+03  2.17037E+03 -7.20709E+03 -2.07165E+03
 -3.13664E+03 -7.06922E+03  1.20584E+03 -8.08611E+03  4.15440E+03 -5.02047E+03  5.93994E+03 -1.17386E+03
  4.55653E+03  2.87585E+03  7.28586E+02  4.16156E+03 -1.46748E+03  3.25104E+03 -2.44475E+03 -2.21446E+02
 -1.51861E+03 -2.78217E+03  1.98686E+03 -2.52637E+03  2.22283E+03 -1.63134E+03  2.62665E+03  7.10780E+02
  1.65271E+03  7.86693E+02  8.97423E+02  6.05863E+02 -2.68941E+02  1.15677E+03  1.65474E+03  1.15266E+00
  5.51599E+02  2.44483E+02  2.67285E+03  7.10263E+02  1.92686E+03  3.84680E+03 -7.33615E+02  4.62092E+03
 -2.81476E+03  1.91682E+03 -4.08102E+03  3.79747E+02 -3.52749E+03 -1.27390E+03 -1.10334E+03 -2.00153E+03
  7.73648E+02 -2.03464E+03  1.61043E+03 -9.37344E+02  1.49065E+03  1.43856E+03 -8.18715E+02  2.52469E+03
 -2.58171E+03  1.35572E+03 -2.58164E+03 -1.80770E+03 -1.87835E+03 -3.50654E+03  2.37541E+02 -3.44972E+03
  1.27915E+03 -1.34906E+03  1.80742E+03  1.01708E+02  2.75736E+03  6.16028E+02  3.11846E+02  2.39247E+03
 -6.02355E+02  7.15792E+02 -1.59434E+03 -5.89761E+01  9.81343E+02 -2.64619E+03  3.36479E+03 -1.46122E+03
  3.26134E+03  5.39924E+02  4.45576E+03  1.79542E+03  1.81368E+03  3.36667E+03 -9.78439E+02  4.12895E+03
 -2.48901E+03  1.52766E+03 -3.10186E+03 -7.33606E+02 -1.57111E+03 -2.84118E+03  4.59679E+02 -1.76458E+03
  2.34218E+03 -1.40775E+03  1.12259E+03  1.79389E+03  4.93535E+02  2.58531E+03  3.05185E+01  1.83491E+03
 -7.80438E+02  1.92786E+03 -6.95757E+02  2.89935E+02 -2.67024E+02  1.15639E+03 -9.82934E+02  3.76253E+02
 -1.31711E+03  1.34415E+03 -2.29184E+03  8.73088E+02 -3.27844E+03  1.27499E+03 -4.45781E+03 -2.62792E+03
 -1.94877E+03 -4.93089E+03  1.12495E+03 -5.85909E+03  3.02112E+03 -4.54229E+03  5.20145E+03 -1.72474E+03
  4.34800E+03  6.73082E+02  2.61991E+03  3.19808E+03 -3.82982E+00  3.19867E+03 -1.18854E+03  2.51439E+03
 -1.39862E+03  1.61493E+03 -8.39342E+02  4.48995E+01 -7.21322E+02  1.36810E+01 -4.05960E+02  4.14151E+02
 -1.40331E+03  7.06758E+02 -1.32096E+03  6.82672E+01  3.03556E+02 -5.08884E+02 -1.88187E+02 -1.08618E+03
  1.62157E+03 -3.75520E+02  1.50062E+03  1.00906E+03  2.42077E+03  1.62255E+03  1.24845E+02  3.39011E+03
 -1.23089E+03  4.23130E+03 -3.86163E+03  2.77530E+03 -3.25901E+03 -8.64281E+01 -3.58976E+03 -2.45132E+03
 -1.37817E+03 -3.19448E+03  3.64547E+02 -2.46417E+03  1.45588E+03 -1.21656E+03  1.37669E+03 -1.06798E+02
  1.24618E+03  7.62535E+02  3.83468E+02  5.26993E+02 -2.41963E+02 -2.85098E+02 -2.59944E+02 -2.67820E+02
  7.98292E+02 -4.97413E+02  1.01101E+03  6.85962E+02  6.72769E+02  2.98825E+02  1.01175E+03  1.23132E+03
 -1.47143E+03  1.19388E+03 -1.95896E+03  6.12144E+02 -1.42066E+03 -1.39089E+03 -8.55800E+01 -3.04443E+03
  1.47464E+03 -2.16975E+03  1.55101E+03 -1.14889E+02  2.07362E+03  1.84884E+02  1.39248E+03  2.30197E+03
  4.36513E+02  9.53144E+02 -1.04138E+03  1.53875E+03 -1.28494E+03  1.35032E+03 -1.13297E+03  5.81476E+02
 -4.10269E+02 -1.87003E+02 -7.53746E+02  9.29222E+01 -9.22719E+02  2.89935E+02 -2.13821E+03  9.06356E+01
 -1.14979E+03 -6.47674E+01 -6.81637E+02 -1.77238E+03  1.77313E+03 -2.96158E+03  1.87932E+03 -7.22832E+02
  1.70691E+03  8.75160E+01  5.93946E+02  1.34922E+03 -4.53140E+02  1.86528E+03 -1.10487E+03  1.66587E+03
