 $NMID ID='MM_0lb_SNR400_7hz_g50_46.RAW', FMTDAT='(8E13.5)'
 TRAMP=1., VOLUME=1. $END
  3.09630E+05 -4.70598E+02  3.37574E+05  2.50626E+05  8.54273E+04  3.39129E+05 -1.32480E+05  2.52383E+05
 -1.90321E+05  8.45885E+04 -1.12513E+05 -3.26210E+04 -6.72991E+02 -5.09043E+04  5.34398E+04 -4.67409E+02
  3.52596E+04  5.28712E+04 -1.65834E+04  7.63355E+04 -6.22175E+04  6.50019E+04 -8.59540E+04  3.29069E+04
 -8.35131E+04 -1.19833E+04 -5.84285E+04 -5.21045E+04 -1.60823E+04 -7.18448E+04  2.87646E+04 -4.69407E+04
  4.18290E+04  3.11920E+03  1.71209E+04  4.97221E+04 -3.46092E+04  4.82134E+04 -6.81906E+04 -1.73491E+02
 -5.48430E+04 -5.68998E+04 -7.84449E+03 -7.98685E+04  3.57324E+04 -5.89517E+04  4.97508E+04 -1.89089E+04
  4.62406E+04  1.20018E+04  3.33429E+04  2.77587E+04  1.66910E+04  3.03913E+04 -6.14127E+03  2.80166E+04
 -2.24021E+04  1.16978E+04 -1.73368E+04 -6.60096E+03  7.50259E+03 -7.21885E+03  2.42027E+04  1.45375E+04
  7.34436E+03  3.80860E+04 -3.48667E+04  3.77688E+04 -6.68451E+04  1.81860E+03 -6.02449E+04 -4.47966E+04
 -1.30565E+04 -6.66443E+04  4.17962E+04 -4.88377E+04  6.24529E+04 -2.74969E+03  3.63342E+04  3.49722E+04
 -5.41637E+03  4.05779E+04 -3.25979E+04  1.96499E+04 -3.49958E+04 -3.07263E+03 -2.02222E+04 -1.18753E+04
 -1.02768E+04 -1.64984E+04 -2.12950E+02 -2.02204E+04  8.87503E+03 -2.33774E+04  1.63870E+04 -1.22043E+04
  9.81599E+03  6.82332E+03 -1.23488E+04  1.27377E+04 -2.42475E+04 -6.73419E+03 -7.90791E+03 -3.92807E+04
  2.70394E+04 -4.86675E+04  5.32287E+04 -2.16932E+04  5.00802E+04  2.04513E+04  1.77835E+04  4.83945E+04
 -1.77251E+04  3.71780E+04 -2.83759E+04  2.37679E+03 -1.22656E+04 -3.12323E+04  2.21155E+04 -3.87447E+04
  4.59555E+04 -1.19107E+04  4.19305E+04  2.61894E+04  2.18883E+04  5.33334E+04 -8.22548E+03  5.87554E+04
 -3.69269E+04  4.03161E+04 -5.02241E+04  1.26723E+04 -4.98840E+04 -1.88187E+04 -2.66389E+04 -4.36005E+04
  7.85655E+03 -4.34670E+04  3.54891E+04 -1.88436E+04  3.26884E+04  1.18267E+04  5.89125E+03  2.15016E+04
 -1.47772E+04  9.90994E+03 -1.09349E+04 -6.53524E+03  6.06849E+03 -1.16916E+04  1.81379E+04  5.69953E+03
  1.49302E+04  2.24423E+04 -4.76685E+03  2.84175E+04 -2.41784E+04  1.60430E+04 -3.25981E+04 -2.03992E+03
 -2.73874E+04 -1.83485E+04 -1.32610E+04 -2.70849E+04  4.42591E+03 -2.75052E+04  2.18593E+04 -2.46146E+04
  3.48167E+04 -1.52166E+04  4.09634E+04  5.91320E+03  2.73086E+04  2.65372E+04  4.44639E+03  4.37828E+04
 -2.11898E+04  3.53215E+04 -3.12442E+04  1.20436E+04 -2.28379E+04 -1.01842E+04 -4.47550E+03 -1.22971E+04
 -2.20255E+02 -8.27091E+02 -9.04883E+03  9.85204E+03 -2.14552E+04  5.36370E+03 -2.19878E+04 -1.02832E+04
 -1.36274E+04 -2.43853E+04  6.53876E+03 -2.89940E+04  2.12719E+04 -2.15642E+04  2.45070E+04 -1.93974E+03
  1.57578E+04  1.71958E+04 -8.94659E+02  2.53876E+04 -1.84281E+04  1.52787E+04 -2.60598E+04 -4.27431E+03
 -1.80583E+04 -2.23863E+04 -1.88697E+03 -3.07598E+04  1.36783E+04 -2.52742E+04  2.43190E+04 -1.32811E+04
  2.37026E+04 -2.89058E+02  1.68578E+04  5.42237E+03  1.01393E+04  8.71079E+02  1.32713E+04 -3.16448E+03
  2.32217E+04  2.61894E+03  2.84029E+04  1.99276E+04  2.04353E+04  4.14233E+04 -3.77623E+03  4.87237E+04
 -2.75162E+04  4.10987E+04 -4.63520E+04  2.17305E+04 -4.97765E+04 -2.25234E+03 -3.99317E+04 -2.93225E+04
 -1.55531E+04 -4.12891E+04  1.47282E+04 -3.62809E+04  3.07651E+04 -1.69238E+04  2.58656E+04  8.08668E+03
  9.03464E+03  2.02291E+04 -1.29714E+04  1.64713E+04 -2.15738E+04  2.09333E+03 -1.67597E+04 -1.36734E+04
 -1.23417E+01 -2.11715E+04  1.22506E+04 -1.52058E+04  1.42365E+04 -1.35770E+03  4.73945E+03  1.02978E+04
 -9.24538E+03  5.47964E+03 -9.86952E+03 -7.19887E+03 -1.70745E+03 -2.11986E+04  1.29349E+04 -2.25740E+04
  2.59317E+04 -1.24213E+04  2.98974E+04  3.39475E+03  2.58358E+04  2.19333E+04  1.24546E+04  3.32052E+04
 -7.34322E+03  3.57081E+04 -2.28191E+04  2.12663E+04 -2.62338E+04  3.47573E+03 -1.61791E+04 -7.77464E+03
 -6.06253E+03 -7.86404E+03 -1.06732E+03  6.65899E+02 -2.34853E+03  4.05386E+03 -8.76181E+03  5.32111E+03
 -1.59247E+04 -1.70255E+03 -1.61316E+04 -1.30992E+04 -6.60704E+03 -2.11572E+04  7.99279E+03 -1.70427E+04
  1.44329E+04 -6.61342E+03  1.06600E+04  4.58831E+03  9.88946E+01  7.81113E+03 -1.01894E+04 -3.37525E+02
 -8.69036E+03 -1.12599E+04 -1.38061E+03 -1.76292E+04  1.06841E+04 -1.90910E+04  2.30430E+04 -1.10554E+04
  2.60339E+04  2.75348E+03  1.99753E+04  1.79136E+04  4.25191E+03  2.21098E+04 -1.05769E+04  1.77427E+04
 -1.54601E+04  5.07355E+03 -7.16361E+03 -3.92404E+03  2.83390E+03 -5.54470E+03  9.06222E+03 -1.24960E+03
  8.83859E+03  8.50980E+03  1.17735E+03  1.51213E+04 -1.07365E+04  1.37390E+04 -1.82270E+04  3.26736E+03
 -1.23820E+04 -9.66666E+03  2.97816E+02 -1.53586E+04  1.03768E+04 -7.76866E+03  1.11937E+04  3.77381E+03
  2.76564E+03  1.12561E+04 -1.00011E+04  1.40625E+04 -1.65635E+04  5.75945E+03 -1.73199E+04 -6.77115E+03
 -9.73658E+03 -1.86815E+04  4.32334E+03 -2.25196E+04  1.88430E+04 -1.22275E+04  1.92422E+04  3.77890E+03
  1.12930E+04  1.63592E+04 -2.57204E+03  1.83388E+04 -1.41109E+04  1.10466E+04 -1.45434E+04 -2.54480E+03
 -1.16645E+04 -1.15707E+04 -2.02605E+03 -1.43205E+04  7.56091E+03 -1.12248E+04  9.06110E+03 -3.42200E+03
  6.68583E+03  2.00335E+03 -2.01976E+03  2.08320E+03 -9.48209E+02 -4.00710E+03  4.23442E+03 -9.30106E+03
  1.28472E+04 -6.01537E+03  1.99236E+04  2.62030E+03  1.79652E+04  1.33473E+04  1.16558E+04  2.50385E+04
 -6.31483E+03  2.90944E+04 -2.30415E+04  2.03286E+04 -3.10261E+04  4.46078E+03 -2.59614E+04 -1.17235E+04
 -1.27398E+04 -2.03746E+04  1.63737E+02 -1.75181E+04  5.67207E+03 -1.04172E+04  6.74321E+03 -5.99193E+03
  4.66039E+03 -3.07283E+03  4.37294E+03 -4.25826E+03  6.33276E+03 -3.83334E+03  9.49584E+03 -1.28660E+03
  1.27215E+04  3.80322E+03  7.51871E+03  1.09512E+04 -2.08263E+03  1.46027E+04 -1.43530E+04  1.05656E+04
 -1.84350E+04 -7.26352E+02 -1.16205E+04 -1.25416E+04 -1.31612E+03 -1.93252E+04  1.09526E+04 -1.89516E+04
  2.06801E+04 -1.03239E+04  2.41181E+04  3.07080E+03  1.76388E+04  1.73586E+04  2.05894E+03  2.11310E+04
 -9.30478E+03  1.69906E+04 -1.22956E+04  6.62246E+03 -9.65061E+03 -2.05094E+03 -4.07099E+03 -2.58332E+03
 -2.23109E+03 -2.86310E+02 -2.97598E+03  3.11848E+03 -7.29542E+03  3.04496E+03 -1.27537E+04 -2.27830E+03
 -8.32530E+03 -1.20254E+04 -2.03195E+02 -1.81145E+04  1.12032E+04 -1.71024E+04  1.86748E+04 -5.49992E+03
  1.75864E+04  7.45878E+03  8.05639E+03  1.69579E+04 -3.68354E+03  1.84961E+04 -1.34574E+04  1.22726E+04
 -1.76712E+04  3.61656E+02 -1.32524E+04 -1.06286E+04 -2.21685E+03 -1.65379E+04  8.01254E+03 -1.16936E+04
  1.16069E+04 -3.18040E+03  8.23393E+03  3.35746E+03  2.34111E+03  5.14096E+03  1.34215E+03  2.84050E+03
  2.84740E+03  1.62694E+03  4.73538E+03  1.59325E+03  5.68701E+03  6.52340E+03  5.43433E+03  1.03931E+04
 -4.12765E+03  1.55817E+04 -1.33195E+04  1.52475E+04 -1.96341E+04  4.05780E+03 -2.04120E+04 -9.44180E+03
 -9.09802E+03 -1.95459E+04  2.37018E+03 -2.09225E+04  1.24367E+04 -1.31291E+04  1.58094E+04 -4.24992E+03
  1.25604E+04  7.04048E+03  3.31757E+03  1.16867E+04 -5.23994E+03  7.06629E+03 -8.75006E+03 -1.76333E+03
 -3.87963E+03 -8.55659E+03  4.66912E+03 -9.44831E+03  8.09828E+03 -4.30782E+03  7.66810E+03  1.50472E+03
  4.72515E+03  4.65456E+03  1.91234E+03  3.85955E+03 -8.40367E+02  2.36992E+03  1.86934E+03  7.88074E+02
  2.98585E+03 -1.20734E+03  7.39380E+03  2.15769E+03  5.14278E+03  1.12183E+04 -1.29968E+03  1.43692E+04
 -9.41831E+03  9.82151E+03 -1.20067E+04  1.81314E+03 -1.07489E+04 -5.59342E+03 -4.81961E+03 -7.94988E+03
  8.91190E+02 -8.61946E+03  4.45100E+03 -3.23461E+03  4.40580E+03  4.02364E+03 -2.15928E+03  6.01744E+03
 -8.54966E+03  4.84051E+03 -9.93927E+03 -5.28312E+03 -6.19678E+03 -1.02262E+04  1.35100E+03 -1.19291E+04
  7.14915E+03 -7.04261E+03  9.33711E+03 -5.84761E+02  6.53311E+03  3.49987E+03  1.10290E+03  6.02464E+03
 -4.43008E+03  1.46706E+03 -4.91000E+03 -3.76957E+03  1.48433E+03 -8.95708E+03  1.05812E+04 -7.88207E+03
  1.29833E+04  7.31156E+02  1.20766E+04  8.89679E+03  4.70800E+03  1.38730E+04 -3.66424E+03  1.21664E+04
 -1.10325E+04  6.22168E+03 -1.18503E+04 -1.59659E+03 -5.96509E+03 -8.48538E+03  2.30756E+03 -8.45528E+03
  8.62211E+03 -4.42484E+03  7.84384E+03  3.74215E+03  2.82314E+03  7.24989E+03 -8.31673E+02  7.33299E+03
 -3.14236E+03  3.53533E+03 -2.90653E+03  1.25828E+03 -1.80183E+03  1.38346E+03 -1.31883E+03  3.14265E+03
 -3.68324E+03  4.89869E+03 -8.99061E+03  4.34979E+03 -1.31720E+04 -1.81124E+02 -1.56869E+04 -9.52419E+03
 -7.79411E+03 -1.87196E+04  4.06037E+03 -2.12439E+04  1.40580E+04 -1.72283E+04  1.96072E+04 -6.45105E+03
  1.88649E+04  3.97128E+03  1.08825E+04  1.34610E+04  2.17454E+03  1.38156E+04 -6.88672E+03  1.07592E+04
 -7.90863E+03  2.87124E+03 -5.35331E+03 -1.36463E+03 -1.49650E+03 -1.61620E+03 -6.75870E+02 -5.84014E+02
 -1.99175E+03 -1.17267E+02 -3.23759E+03 -5.38254E+02 -1.38518E+03 -4.14596E+03  3.73114E+02 -5.82023E+03
  6.08831E+03 -4.35428E+03  9.01443E+03  2.67191E+02  1.04709E+04  7.18730E+03  2.88672E+03  1.42874E+04
 -5.80146E+03  1.66851E+04 -1.62892E+04  9.55300E+03 -1.84912E+04 -1.33622E+03 -1.30210E+04 -1.12278E+04
 -6.54006E+03 -1.51097E+04  3.07072E+03 -1.38595E+04  9.09392E+03 -7.69638E+03  1.03666E+04  9.91519E+01
  6.46848E+03  4.37205E+03 -8.59175E+02  4.07675E+03 -2.46748E+03 -8.46571E+02  3.68351E+02 -3.47493E+03
  5.25244E+03 -2.93939E+03  6.55115E+03  1.07323E+03  4.05232E+03  7.10801E+03  7.68099E+02  6.72032E+03
 -7.27724E+03  7.75466E+03 -1.02137E+04  8.70547E+02 -8.66231E+03 -7.03839E+03 -1.50764E+03 -1.33080E+04
  8.00451E+03 -1.10608E+04  1.22570E+04 -4.03564E+03  1.17430E+04  3.55549E+03  6.89025E+03  8.68531E+03
  5.33971E+02  9.92769E+03 -4.10190E+03  9.23315E+03 -6.97638E+03  4.42049E+03 -5.04210E+03 -2.16295E+02
 -2.76163E+03 -8.10314E+02 -3.16033E+03  2.22668E+03 -4.98965E+03  6.96587E+02 -8.52394E+03 -2.45575E+03
 -7.00826E+03 -5.79301E+03 -1.99568E+03 -1.03464E+04  4.45000E+03 -1.10732E+04  9.44308E+03 -5.89450E+03
  1.08237E+04  2.13861E+03  6.07058E+03  7.40313E+03 -1.43391E+03  1.06383E+04 -8.32855E+03  6.52425E+03
