 $NMID ID='MM_0lb_SNR400_19hz_g60_65.RAW', FMTDAT='(8E13.5)'
 TRAMP=1., VOLUME=1. $END
  3.10204E+05  5.19039E+02  3.36993E+05  2.51076E+05  8.49167E+04  3.37743E+05 -1.32327E+05  2.50650E+05
 -1.90311E+05  8.30927E+04 -1.10843E+05 -3.26049E+04  8.84919E+02 -5.10643E+04  5.32989E+04  2.12600E+01
  3.52138E+04  5.33533E+04 -1.65048E+04  7.58304E+04 -6.05331E+04  6.31917E+04 -8.32207E+04  3.17402E+04
 -8.06870E+04 -1.13983E+04 -5.67132E+04 -5.10105E+04 -1.48344E+04 -6.88896E+04  2.70228E+04 -4.57074E+04
  3.98722E+04  4.07935E+03  1.57423E+04  4.73186E+04 -3.46200E+04  4.64748E+04 -6.59933E+04 -7.52701E+02
 -5.26135E+04 -5.64716E+04 -6.81763E+03 -7.61800E+04  3.38590E+04 -5.41856E+04  4.77792E+04 -1.73883E+04
  4.22899E+04  1.05781E+04  3.20195E+04  2.47698E+04  1.64097E+04  2.87346E+04 -4.83631E+03  2.69623E+04
 -2.16766E+04  1.27559E+04 -1.87849E+04 -4.97841E+03  4.74153E+03 -7.17169E+03  2.19410E+04  1.18323E+04
  6.89043E+03  3.45764E+04 -3.14651E+04  3.41138E+04 -6.21456E+04  2.17788E+03 -5.60991E+04 -4.21816E+04
 -1.26901E+04 -6.17796E+04  3.85568E+04 -4.41833E+04  5.68141E+04 -2.12426E+03  3.32998E+04  3.18890E+04
 -6.37315E+03  3.45515E+04 -2.91339E+04  1.44878E+04 -2.86953E+04 -4.82241E+03 -1.50901E+04 -1.06195E+04
 -7.67543E+03 -1.21304E+04 -6.77304E+02 -1.77723E+04  7.07008E+03 -2.26915E+04  1.52287E+04 -1.33827E+04
  1.20509E+04  4.88073E+03 -7.36730E+03  1.32627E+04 -2.03054E+04 -3.21128E+03 -7.36439E+03 -3.20807E+04
  2.19369E+04 -4.18641E+04  4.63500E+04 -1.93988E+04  4.36039E+04  1.85644E+04  1.47113E+04  4.26576E+04
 -1.59379E+04  3.19110E+04 -2.42887E+04  1.20777E+03 -8.85555E+03 -2.67898E+04  2.10108E+04 -3.23657E+04
  3.96270E+04 -7.92292E+03  3.28670E+04  2.32425E+04  1.68495E+04  4.36228E+04 -8.11678E+03  4.69725E+04
 -2.94508E+04  3.14888E+04 -3.92629E+04  8.37202E+03 -4.01918E+04 -1.55113E+04 -2.23585E+04 -3.59705E+04
  6.99869E+03 -3.56398E+04  2.99592E+04 -1.36942E+04  2.74123E+04  1.07229E+04  3.35301E+03  1.89769E+04
 -1.34526E+04  8.06358E+03 -9.98932E+03 -7.78275E+03  5.96986E+03 -1.01695E+04  1.72642E+04  6.34844E+03
  1.25181E+04  2.19432E+04 -6.96848E+03  2.40796E+04 -2.17938E+04  9.88054E+03 -2.62493E+04 -5.91673E+03
 -1.82032E+04 -1.69323E+04 -6.79511E+03 -1.78615E+04  3.27388E+03 -1.64708E+04  1.38758E+04 -1.56504E+04
  2.28895E+04 -1.23891E+04  2.94520E+04  2.17204E+03  2.15728E+04  1.75994E+04  4.32688E+03  3.38114E+04
 -1.64720E+04  2.85902E+04 -2.60727E+04  1.02832E+04 -1.98851E+04 -1.02716E+04 -3.84382E+03 -1.42654E+04
  2.95962E+03 -3.85004E+03 -3.18745E+03  5.72999E+03 -1.41220E+04  5.11874E+03 -1.42858E+04 -5.45539E+03
 -8.50755E+03 -1.64902E+04  5.31515E+03 -2.09202E+04  1.43379E+04 -1.47711E+04  1.52710E+04 -1.66269E+03
  9.86257E+03  1.12829E+04 -1.16242E+03  1.66810E+04 -1.20280E+04  9.48807E+03 -1.63035E+04 -3.02931E+03
 -1.21570E+04 -1.50013E+04 -2.05916E+03 -2.03097E+04  9.03582E+03 -1.62917E+04  1.69866E+04 -8.04989E+03
  1.49504E+04  3.65215E+02  1.11742E+04  4.27619E+03  5.29183E+03  3.49860E+02  7.82495E+03 -2.16920E+03
  1.49101E+04  2.69432E+03  1.55322E+04  1.35380E+04  9.92960E+03  2.60962E+04 -3.67505E+03  2.89793E+04
 -1.70812E+04  2.18625E+04 -2.63173E+04  1.05063E+04 -2.69796E+04 -1.66879E+03 -2.26159E+04 -1.51848E+04
 -1.05974E+04 -2.21067E+04  8.16512E+03 -2.05217E+04  1.80793E+04 -1.06146E+04  1.68354E+04  4.17437E+03
  6.68136E+03  1.17665E+04 -6.97240E+03  1.09576E+04 -1.40902E+04  2.44651E+03 -1.03780E+04 -8.38839E+03
 -5.52510E+02 -1.31890E+04  6.55626E+03 -1.00083E+04  8.16676E+03 -1.44659E+03  1.46335E+03  5.96862E+03
 -5.91255E+03  2.00633E+03 -4.04703E+03 -4.33624E+03  1.30806E+01 -1.10474E+04  8.15460E+03 -1.07087E+04
  1.32868E+04 -4.88120E+03  1.30757E+04  2.87048E+03  1.16838E+04  9.88971E+03  5.76611E+03  1.55026E+04
 -2.10040E+03  1.70405E+04 -1.06039E+04  1.07532E+04 -1.24485E+04  3.11384E+03 -9.01563E+03 -2.64287E+03
 -4.86800E+03 -3.16622E+03 -8.21818E+02  1.15776E+03 -1.62162E+03  2.34461E+03 -4.18435E+03  4.25701E+03
 -8.72164E+03 -4.36950E+02 -8.86079E+03 -7.32400E+03 -4.12291E+03 -1.17867E+04  3.68941E+03 -8.33355E+03
  7.40449E+03 -3.95157E+03  5.39882E+03  2.46993E+03  2.66860E+02  3.44142E+03 -3.61685E+03 -9.17391E+01
 -3.61376E+03 -5.42896E+03 -6.66178E+02 -7.98847E+03  4.43605E+03 -8.37090E+03  1.08105E+04 -4.08840E+03
  1.22951E+04  8.50980E+02  9.06061E+03  6.47641E+03  1.58666E+03  9.22855E+03 -5.28405E+03  8.53729E+03
 -7.32844E+03  2.69668E+03 -3.86062E+03 -1.56533E+03  9.97980E+02 -1.62533E+03  4.56826E+03 -6.47548E+02
  4.45652E+03  4.08346E+03  8.81195E+02  6.28512E+03 -4.21212E+03  7.37221E+03 -8.32934E+03  2.05468E+03
 -4.89652E+03 -3.31994E+03  5.21345E+02 -6.49134E+03  4.38525E+03 -3.14703E+03  3.49683E+03  7.59575E+02
  1.02500E+02  3.78595E+03 -4.70562E+03  4.70063E+03 -5.05575E+03  2.09410E+03 -4.45623E+03 -1.28391E+03
 -3.32357E+03 -6.59150E+03  1.18831E+03 -7.36359E+03  6.44201E+03 -5.15115E+03  7.25814E+03  1.04610E+03
  4.58192E+03  5.39711E+03  1.74705E+02  7.24175E+03 -4.92704E+03  4.26877E+03 -5.31001E+03 -1.34053E+02
 -5.69045E+03 -5.18204E+03 -1.60222E+03 -5.41329E+03  2.75598E+03 -4.86607E+03  2.98036E+03 -2.96797E+03
  2.59372E+03 -2.76606E+02  1.65421E+02  1.12438E+03  4.35673E+02 -9.19198E+01  6.46176E+02 -1.80956E+03
  3.82216E+03 -7.99548E+02  5.51424E+03  6.80851E+02  5.71437E+03  3.14756E+03  6.50192E+03  8.17407E+03
 -9.81642E+02  8.65366E+03 -7.84566E+03  7.04956E+03 -1.02945E+04  9.77481E+02 -8.06715E+03 -2.59106E+03
 -4.29851E+03 -7.12630E+03 -7.84167E+01 -5.14117E+03  1.39905E+03 -2.71000E+03  1.72720E+03 -2.28844E+03
  1.27289E+03 -1.08535E+03  2.54303E+03 -2.23063E+03  3.34665E+03 -1.79437E+03  3.25406E+03  2.62217E+02
  4.08483E+03  1.30359E+03  9.72808E+02  3.96497E+03 -1.23248E+03  2.54302E+03 -4.51434E+03  3.00368E+03
 -4.92103E+03 -6.50525E+02 -1.23620E+03 -3.42366E+03  7.09635E+02 -5.02124E+03  3.35960E+03 -5.95907E+03
  5.78734E+03 -3.11633E+03  6.04018E+03  5.13540E+02  5.14892E+03  4.27252E+03  1.38188E+03  5.62800E+03
 -1.96985E+03  5.82982E+03 -3.53132E+03  2.48864E+03 -2.53914E+03 -1.07950E+03 -8.70758E+02 -3.45679E+02
 -4.03929E+02  3.77387E+02 -7.96353E+02  1.84082E+03 -2.36974E+03  5.66509E+02 -4.06923E+03 -3.72262E+02
 -1.06289E+03 -3.90520E+03  9.27412E+02 -3.98919E+03  2.91397E+03 -4.71551E+03  3.80039E+03 -7.07795E+02
  3.99579E+03  2.32364E+03  1.81662E+03  3.24507E+03 -5.34933E+02  4.41665E+03 -2.92199E+03  3.37500E+03
 -3.35820E+03  8.02901E+02 -3.24839E+03 -2.27367E+03  3.63689E+02 -3.27969E+03  1.80116E+03 -2.56706E+03
  2.47584E+03 -1.34514E+03  1.27700E+03  4.14058E+02  7.79080E+02  2.05193E+03  9.30822E+02  6.01149E+02
  1.61952E+03 -1.23655E+02  1.13844E+03  1.08192E+03  1.17812E+03  2.64332E+03  1.27214E+03  1.37480E+03
 -1.16889E+03  2.73061E+03 -2.59320E+03  3.37969E+03 -3.11768E+03  1.10801E+03 -4.18784E+03 -1.98743E+02
 -1.37052E+03 -3.44968E+03  9.60255E+02 -4.87109E+03  1.61646E+03 -2.63016E+03  3.48430E+03 -1.02159E+03
  2.19952E+03  1.78853E+03  5.99918E+02  2.29423E+03 -4.20077E+02  1.29407E+03 -4.44361E+02 -1.83185E+01
 -3.53287E+02 -1.65767E+03  8.33201E+02 -1.08918E+03  1.11467E+03 -6.88232E+02  1.47313E+03  5.77403E+01
  1.19903E+03  3.03641E+02  2.78320E+02 -5.76235E+01 -5.64022E+02  5.70147E+02  1.73029E+03 -1.18330E+02
  2.72862E+02  2.01580E+01  1.69523E+03  3.56883E+02  7.00505E+01  2.47633E+03 -3.00066E+02  2.59239E+03
 -1.35652E+03  8.79960E+02 -1.89093E+03 -4.08038E+02 -1.79400E+03 -7.15317E+02 -8.27740E+02 -8.05276E+02
  3.67199E+02 -1.36038E+03  7.96484E+02 -5.65008E+02  2.24775E+02  1.42172E+03 -1.82251E+02  1.43391E+03
 -1.46460E+03  7.68595E+02 -1.24182E+03 -1.36468E+03 -3.08085E+02 -2.14826E+03  3.14443E+02 -1.44845E+03
 -1.92266E+02 -3.98234E+02  8.30220E+01  7.11443E+02  8.87650E+02 -7.21222E+01 -1.56190E+02  1.09691E+03
 -5.12103E+02 -3.45952E+02 -9.64305E+02 -4.31031E+00  8.09327E+02 -6.89850E+01  1.36486E+03 -1.11427E+02
  1.00755E+03  4.41972E+02  2.35516E+03  1.12172E+02  1.06762E+03  9.15806E+02 -5.91945E+02  2.27598E+03
 -8.22714E+02  5.31494E+02 -1.55437E+03  1.17764E+00 -1.88904E+02 -1.54904E+03  2.41327E+02 -7.38741E+02
  9.68320E+02 -5.69148E+02  2.93187E+02  1.06588E+03 -1.69040E+02  1.52823E+03 -1.70625E+02  7.88307E+02
 -5.82634E+02  1.18443E+03 -4.08346E+02 -9.41192E+01  4.16819E+02  2.77777E+02 -4.59353E+02  6.15398E+02
 -7.66431E+02  8.78800E+02 -1.39188E+03 -1.26925E+02 -1.39616E+03  4.96197E+02 -2.16579E+03 -9.71540E+02
 -7.83574E+02 -2.17273E+03  4.43384E+02 -2.59963E+03  1.13288E+03 -2.14367E+03  2.79397E+03 -8.65905E+02
  2.14650E+03 -1.89373E+02  4.10646E+02  9.41491E+02  6.75158E+01  1.21531E+03 -5.90051E+02  1.24441E+03
 -4.32802E+02  1.00086E+03  1.59445E+02 -8.82815E+02 -5.01647E+02  5.89078E+02 -9.21217E+02 -2.60816E+02
 -1.08492E+03 -1.44606E+02 -8.82291E+02  1.30218E+02  3.89148E+02 -5.98149E+02 -9.34689E+02 -1.64689E+03
  9.20542E+02 -1.53776E+02  5.68878E+02  1.56058E+02  1.06671E+03  4.63175E+02 -9.06713E+02  1.20512E+03
 -7.66334E+02  2.25109E+03 -1.08535E+03  1.55146E+03 -1.40698E+03 -5.73094E+02 -6.60612E+02 -1.14186E+03
 -1.14327E+03 -1.16716E+03  5.61401E+02 -8.81323E+02  4.71382E+02 -1.71888E+02  3.59994E+02  6.44925E+02
  9.01444E+02  7.92469E+01  8.61516E+02  4.82558E+02 -5.28010E+02 -2.55246E+01 -3.83670E+02 -8.43908E+01
  3.38248E+01  4.87528E+02  5.53865E+02  7.93046E+02  2.61681E+01  5.18552E+01  8.11949E+02  8.14805E+01
 -1.95740E+01  8.53465E+02 -4.76753E+02  2.30087E+02 -5.71035E+02 -6.48963E+02  7.93927E+02 -1.21371E+03
  8.02454E+02 -1.86384E+02  2.57248E+02 -6.01915E+02  8.66392E+02 -7.31999E+02  4.81863E+02  6.13522E+02
  1.42563E+02  2.18635E+02  1.49076E+02  4.23570E+01 -6.85452E+02  7.09706E+02 -4.95765E+02  1.64005E+02
 -4.22518E+02 -1.58503E+02 -3.70781E+02 -5.32308E+02 -7.74449E+02 -1.97791E+01 -5.01810E+02 -1.88996E+02
 -1.02458E+03  4.08482E+02 -7.87570E+02 -7.77397E+02  5.06151E+02 -9.93250E+02  9.08555E+02 -5.56122E+02
  4.60946E+01  1.04969E+02 -7.62510E+02  7.80439E+02 -5.04335E+02  3.15065E+02  1.41621E+01  3.51492E+02
