 $NMID ID='MM_0lb_SNR400_14hz_g40_92.RAW', FMTDAT='(8E13.5)'
 TRAMP=1., VOLUME=1. $END
  3.09517E+05  3.08777E+02  3.37359E+05  2.50580E+05  8.47298E+04  3.37612E+05 -1.31872E+05  2.51636E+05
 -1.90346E+05  8.31818E+04 -1.11166E+05 -3.29828E+04  9.93860E+02 -5.04863E+04  5.33962E+04  5.53138E+01
  3.54649E+04  5.21484E+04 -1.74802E+04  7.55167E+04 -6.07071E+04  6.34454E+04 -8.37726E+04  3.17975E+04
 -8.04192E+04 -1.14244E+04 -5.70489E+04 -5.15168E+04 -1.52840E+04 -6.90913E+04  2.72936E+04 -4.47759E+04
  3.92664E+04  3.79793E+03  1.59453E+04  4.78237E+04 -3.41339E+04  4.76034E+04 -6.65481E+04 -3.84368E+02
 -5.24200E+04 -5.63079E+04 -6.32223E+03 -7.67115E+04  3.31782E+04 -5.40910E+04  4.71565E+04 -1.67692E+04
  4.26691E+04  1.10599E+04  3.13587E+04  2.52655E+04  1.62897E+04  2.83203E+04 -5.35057E+03  2.66596E+04
 -2.19638E+04  1.31668E+04 -1.84247E+04 -5.10624E+03  4.57866E+03 -7.12090E+03  2.23231E+04  1.20985E+04
  7.26680E+03  3.43841E+04 -3.15403E+04  3.56269E+04 -6.25219E+04  2.09653E+03 -5.61648E+04 -4.26528E+04
 -1.24977E+04 -6.19803E+04  3.94345E+04 -4.42816E+04  5.74810E+04 -1.56708E+03  3.39660E+04  3.17102E+04
 -6.55968E+03  3.50871E+04 -3.01525E+04  1.50677E+04 -2.93413E+04 -4.52949E+03 -1.62056E+04 -1.02495E+04
 -8.18500E+03 -1.31011E+04 -1.05523E+03 -1.75844E+04  6.73840E+03 -2.29538E+04  1.49167E+04 -1.33578E+04
  1.17772E+04  5.80720E+03 -7.94989E+03  1.29691E+04 -2.09209E+04 -3.89969E+03 -7.45694E+03 -3.23974E+04
  2.24335E+04 -4.33023E+04  4.67017E+04 -1.95694E+04  4.43088E+04  1.92690E+04  1.53998E+04  4.33630E+04
 -1.60327E+04  3.29991E+04 -2.52288E+04  1.10908E+03 -9.64750E+03 -2.77094E+04  2.08208E+04 -3.33897E+04
  3.99284E+04 -9.14183E+03  3.42211E+04  2.33407E+04  1.72846E+04  4.54424E+04 -7.97840E+03  4.84057E+04
 -3.07171E+04  3.27559E+04 -4.10968E+04  9.38192E+03 -4.17831E+04 -1.58559E+04 -2.30962E+04 -3.70690E+04
  7.20692E+03 -3.67561E+04  3.12543E+04 -1.37808E+04  2.83971E+04  1.09010E+04  4.13347E+03  1.90751E+04
 -1.36745E+04  8.13584E+03 -1.02891E+04 -7.20168E+03  5.81104E+03 -1.05586E+04  1.83005E+04  6.11660E+03
  1.35756E+04  2.20702E+04 -6.08179E+03  2.45204E+04 -2.21621E+04  1.02455E+04 -2.71456E+04 -5.07441E+03
 -2.04607E+04 -1.74116E+04 -7.86068E+03 -1.96805E+04  3.97834E+03 -1.80184E+04  1.52460E+04 -1.70775E+04
  2.51088E+04 -1.30722E+04  3.08282E+04  1.99825E+03  2.30875E+04  1.92802E+04  3.83500E+03  3.46607E+04
 -1.74491E+04  3.04835E+04 -2.73806E+04  1.03369E+04 -2.04862E+04 -1.01987E+04 -3.90913E+03 -1.32902E+04
  1.85274E+03 -2.83155E+03 -4.39988E+03  6.86796E+03 -1.51068E+04  5.64473E+03 -1.50662E+04 -6.67459E+03
 -1.00519E+04 -1.78758E+04  5.20327E+03 -2.23001E+04  1.53680E+04 -1.65447E+04  1.77644E+04 -1.51782E+03
  1.07678E+04  1.26014E+04 -5.67407E+02  1.87581E+04 -1.24057E+04  1.03487E+04 -1.87247E+04 -3.82903E+03
 -1.29277E+04 -1.62814E+04 -1.46346E+03 -2.17417E+04  9.67308E+03 -1.81600E+04  1.85969E+04 -9.04140E+03
  1.70839E+04  3.82624E+02  1.21546E+04  4.39677E+03  6.45503E+03  4.49652E+02  9.05902E+03 -1.05659E+03
  1.61524E+04  2.62306E+03  1.84844E+04  1.43850E+04  1.14088E+04  2.90751E+04 -3.32559E+03  3.26911E+04
 -1.89924E+04  2.55354E+04 -3.09967E+04  1.24468E+04 -3.21249E+04 -2.18787E+03 -2.66517E+04 -1.80921E+04
 -1.12995E+04 -2.58494E+04  8.99638E+03 -2.32813E+04  2.04481E+04 -1.19007E+04  1.81114E+04  5.27778E+03
  7.42180E+03  1.37300E+04 -8.87793E+03  1.23175E+04 -1.58880E+04  3.06518E+03 -1.24880E+04 -9.72663E+03
 -3.45123E+02 -1.40961E+04  8.23281E+03 -1.14491E+04  9.57139E+03 -1.12942E+03  2.10856E+03  6.34763E+03
 -6.52508E+03  2.09165E+03 -5.58202E+03 -5.42472E+03  1.03905E+02 -1.26953E+04  9.41748E+03 -1.38662E+04
  1.68002E+04 -7.01767E+03  1.62725E+04  2.50691E+03  1.46344E+04  1.21586E+04  6.87915E+03  2.00499E+04
 -2.72106E+03  2.07549E+04 -1.27382E+04  1.29346E+04 -1.53618E+04  2.65629E+03 -1.08528E+04 -3.48837E+03
 -5.07764E+03 -4.98232E+03 -1.27189E+03  1.43394E+03 -2.82745E+03  2.85646E+03 -5.13113E+03  4.01372E+03
 -1.03924E+04 -9.23044E+02 -1.04480E+04 -8.60588E+03 -4.38735E+03 -1.37074E+04  4.78676E+03 -1.00868E+04
  9.06542E+03 -4.53945E+03  6.65366E+03  2.99643E+03  4.53613E+02  3.96183E+03 -4.64802E+03  4.93989E+02
 -5.01710E+03 -6.50438E+03 -8.54296E+02 -1.03397E+04  5.34336E+03 -1.04932E+04  1.27417E+04 -6.00768E+03
  1.54094E+04  1.36928E+03  1.14205E+04  8.49924E+03  2.48004E+03  1.19384E+04 -6.61760E+03  1.07115E+04
 -8.79242E+03  3.14509E+03 -4.45195E+03 -2.33948E+03  1.76879E+03 -2.71208E+03  5.69633E+03 -8.55749E+02
  5.38122E+03  4.16571E+03  1.43572E+03  8.00397E+03 -5.68929E+03  7.92767E+03 -1.07435E+04  2.27002E+03
 -6.82546E+03 -5.49330E+03  3.49705E+02 -8.54633E+03  5.53219E+03 -4.37282E+03  5.59756E+03  2.48515E+03
  5.31290E+02  5.72525E+03 -5.89383E+03  6.50311E+03 -7.90007E+03  3.62808E+03 -7.86565E+03 -2.52365E+03
 -4.95897E+03 -9.22474E+03  1.78638E+03 -1.08314E+04  8.87534E+03 -6.66730E+03  9.20738E+03  1.67657E+03
  6.24222E+03  7.19789E+03 -2.24656E+02  1.01737E+04 -7.17256E+03  5.30567E+03 -7.83500E+03 -3.41964E+02
 -7.58244E+03 -6.61475E+03 -1.41256E+03 -7.03669E+03  3.82632E+03 -5.95484E+03  4.39003E+03 -2.78079E+03
  3.60030E+03  1.37449E+03 -1.69396E+02  1.72413E+03 -2.21044E+02 -1.53270E+03  5.15176E+02 -3.49963E+03
  6.52096E+03 -2.19602E+03  8.87132E+03  1.66098E+03  9.48926E+03  5.32616E+03  6.89953E+03  1.13193E+04
 -2.86905E+03  1.33356E+04 -1.15151E+04  1.08331E+04 -1.42500E+04  1.90545E+03 -1.14575E+04 -4.94554E+03
 -6.15079E+03 -9.58217E+03 -5.23111E+02 -7.60984E+03  2.95510E+03 -3.93163E+03  2.78587E+03 -2.72038E+03
  2.00345E+03 -2.51638E+03  2.15610E+03 -3.27804E+03  4.48503E+03 -2.16524E+03  4.59647E+03  1.68769E+02
  7.00016E+03  1.48723E+03  2.53563E+03  5.80638E+03 -1.97344E+03  6.17622E+03 -7.05213E+03  4.99505E+03
 -7.56995E+03 -5.67193E+02 -4.24038E+03 -5.96916E+03 -6.10700E+02 -8.09592E+03  5.18994E+03 -9.06663E+03
  8.04194E+03 -5.13452E+03  1.04836E+04  1.35531E+03  7.38379E+03  7.55772E+03  1.79173E+03  9.19330E+03
 -4.27565E+03  8.93528E+03 -5.87549E+03  2.82279E+03 -3.03772E+03 -1.19618E+03 -7.57491E+02 -8.61128E+02
 -9.40577E+02  7.75280E+01 -9.02370E+02  1.85372E+03 -3.06814E+03  1.37295E+03 -6.08250E+03 -8.39843E+02
 -3.61781E+03 -5.83578E+03  2.85515E+02 -7.35224E+03  4.83208E+03 -6.69811E+03  6.81071E+03 -2.13070E+03
  7.48525E+03  4.45224E+03  3.22913E+03  6.17582E+03 -1.29102E+03  8.05163E+03 -4.66599E+03  4.98940E+03
 -6.85597E+03  1.31753E+02 -5.40392E+03 -4.64877E+03 -3.90191E+02 -5.80865E+03  3.30226E+03 -4.13922E+03
  4.66348E+03 -1.97505E+03  3.44641E+03  1.24858E+03  1.43082E+03  2.74556E+03  1.09471E+03  1.43230E+03
  2.29984E+03 -2.33077E+02  2.07841E+03  1.63468E+03  1.97557E+03  3.15520E+03  2.20108E+03  4.02094E+03
 -2.07125E+03  5.50689E+03 -4.99293E+03  6.41277E+03 -6.77206E+03  1.57099E+03 -7.50689E+03 -2.22225E+03
 -3.75202E+03 -6.83741E+03  7.58896E+02 -7.90595E+03  4.36186E+03 -4.68214E+03  5.96550E+03 -1.60652E+03
  5.31154E+03  2.49907E+03  9.88218E+02  4.07943E+03 -2.00416E+03  2.78046E+03 -2.38700E+03 -7.29535E+02
 -8.26931E+02 -2.50257E+03  1.61662E+03 -3.38449E+03  2.33475E+03 -1.45986E+03  2.24333E+03  4.10579E+02
  1.97016E+03  3.67459E+02  1.00875E+03  8.58560E+02 -5.02070E+02  1.18913E+03  2.45545E+03 -9.96773E+01
  4.98213E+02  2.14388E+02  3.05191E+03  1.14563E+03  1.18892E+03  3.55699E+03 -1.05812E+03  5.21293E+03
 -3.02740E+03  3.13072E+03 -4.39335E+03  7.82344E+02 -3.60577E+03 -1.97149E+03 -9.30255E+02 -2.51580E+03
  6.10938E+02 -2.61321E+03  1.50926E+03 -1.61853E+03  1.33871E+03  1.68927E+03 -1.62504E+03  2.20514E+03
 -2.92584E+03  2.14146E+03 -3.08502E+03 -1.99083E+03 -1.40838E+03 -4.08929E+03  4.22369E+02 -4.03384E+03
  1.39934E+03 -1.69566E+03  2.09116E+03 -3.11196E+02  2.67860E+03  6.43705E+02  3.15734E+02  2.03367E+03
 -6.11036E+02  3.63782E+01 -1.82689E+03 -7.31840E+02  1.05538E+03 -2.72425E+03  3.61306E+03 -1.83722E+03
  4.16048E+03  1.27598E+02  4.19781E+03  1.94355E+03  1.27630E+03  3.84094E+03 -1.36755E+03  3.79459E+03
 -3.33334E+03  1.34750E+03 -3.32878E+03 -1.14320E+02 -2.29769E+03 -3.29871E+03  1.00219E+03 -2.40376E+03
  2.03474E+03 -1.27126E+03  2.00008E+03  1.22635E+03  1.11691E+03  2.41445E+03 -3.33219E+02  2.22458E+03
 -9.32752E+02  1.64383E+03 -1.16539E+03  1.57882E+02 -2.89770E+02  8.20583E+02 -2.97897E+02  1.04301E+03
 -1.13832E+03  1.87603E+03 -2.89985E+03  1.11597E+03 -4.32545E+03  2.94837E+02 -4.93572E+03 -2.69335E+03
 -2.94091E+03 -5.09935E+03  1.04972E+03 -6.53387E+03  3.18928E+03 -4.87517E+03  6.26492E+03 -1.73763E+03
  5.19148E+03  9.99074E+02  2.78349E+03  3.90119E+03 -9.61995E+01  4.09859E+03 -1.75567E+03  3.31222E+03
 -1.90006E+03  1.55335E+03 -1.13212E+03 -4.05703E+02 -3.09140E+02  1.96049E+01 -4.45306E+02 -3.04212E+02
 -1.58165E+03 -7.57111E+01 -1.24424E+03 -7.93795E+02  3.37461E+02 -8.78416E+02 -7.96932E+02 -1.58116E+03
  1.80003E+03 -1.09301E+03  1.96203E+03  1.32014E+02  2.35050E+03  1.75662E+03  4.56666E+02  3.71530E+03
 -2.14583E+03  5.33278E+03 -4.01941E+03  2.93103E+03 -5.16612E+03 -1.97506E+02 -2.95865E+03 -2.91228E+03
 -1.75583E+03 -3.68463E+03  4.34528E+02 -3.20583E+03  2.33448E+03 -1.39578E+03  2.46418E+03 -2.30118E+02
  1.14342E+03  1.29475E+03 -6.92835E+02  1.11403E+03 -7.36257E+02  9.10560E+01 -3.38208E+02 -1.46356E+03
  1.16498E+03  2.70351E+02  1.24858E+03  7.91013E+02  9.17754E+02  2.06331E+03  6.05039E+02  1.45124E+03
 -1.24822E+03  1.89109E+03 -2.53941E+03  3.26734E+02 -2.51736E+03 -1.28767E+03  2.30940E+02 -3.48042E+03
  1.39511E+03 -2.63371E+03  2.53223E+03 -3.75322E+02  2.67327E+03  2.13187E+02  1.52696E+03  2.17503E+03
  8.35399E+02  2.67382E+03 -3.83733E+02  2.46905E+03 -1.93588E+03  1.49709E+03 -9.55562E+02  3.53547E+02
 -9.34027E+02 -2.82068E+02 -5.70290E+02  3.75531E+02 -1.72731E+03  4.64203E+02 -2.38719E+03 -3.38659E+01
 -1.93620E+03 -8.39168E+02 -3.72761E+02 -1.82270E+03  1.26901E+03 -3.29467E+03  2.15593E+03 -1.26030E+03
  2.17034E+03  6.03429E+02  5.72831E+02  1.97727E+03  1.77217E+02  2.41275E+03 -1.74173E+03  1.78230E+03
