 $NMID ID='MM_0lb_SNR400_11hz_g55_48.RAW', FMTDAT='(8E13.5)'
 TRAMP=1., VOLUME=1. $END
  3.10241E+05  2.61068E+02  3.37247E+05  2.50840E+05  8.54716E+04  3.38355E+05 -1.33002E+05  2.52270E+05
 -1.90757E+05  8.39135E+04 -1.11711E+05 -3.30885E+04 -2.47116E+02 -5.13085E+04  5.41157E+04 -6.08867E+02
  3.54707E+04  5.25149E+04 -1.70802E+04  7.57726E+04 -6.07751E+04  6.43209E+04 -8.51812E+04  3.23891E+04
 -8.26431E+04 -1.13572E+04 -5.80830E+04 -5.22796E+04 -1.52580E+04 -7.05616E+04  2.83162E+04 -4.64575E+04
  4.09694E+04  4.24545E+03  1.67082E+04  4.87713E+04 -3.48487E+04  4.73315E+04 -6.75180E+04 -4.85132E+02
 -5.43678E+04 -5.66349E+04 -7.11788E+03 -7.84869E+04  3.51015E+04 -5.61597E+04  4.94435E+04 -1.83473E+04
  4.49425E+04  1.12359E+04  3.25273E+04  2.59736E+04  1.53712E+04  3.03090E+04 -5.80140E+03  2.76283E+04
 -2.19819E+04  1.21242E+04 -1.81036E+04 -5.48889E+03  7.12188E+03 -6.95007E+03  2.24856E+04  1.29267E+04
  6.71996E+03  3.67929E+04 -3.41433E+04  3.66366E+04 -6.53490E+04  2.16005E+03 -5.88778E+04 -4.39607E+04
 -1.33918E+04 -6.52882E+04  4.15997E+04 -4.74045E+04  6.06714E+04 -2.25101E+03  3.62142E+04  3.39338E+04
 -5.97004E+03  3.82623E+04 -3.10752E+04  1.79049E+04 -3.32089E+04 -3.88913E+03 -1.86694E+04 -1.13478E+04
 -9.19414E+03 -1.47064E+04 -9.12999E+01 -1.92595E+04  8.15630E+03 -2.31113E+04  1.53699E+04 -1.31716E+04
  1.15390E+04  5.77354E+03 -9.97409E+03  1.21947E+04 -2.25011E+04 -5.74215E+03 -8.80148E+03 -3.68626E+04
  2.44258E+04 -4.58388E+04  5.11940E+04 -2.08228E+04  4.79882E+04  2.11421E+04  1.72710E+04  4.61494E+04
 -1.65644E+04  3.59668E+04 -2.64154E+04  2.45548E+03 -1.18286E+04 -2.91957E+04  2.14412E+04 -3.61888E+04
  4.33266E+04 -1.07935E+04  3.88222E+04  2.47080E+04  2.05455E+04  4.95838E+04 -7.93396E+03  5.42455E+04
 -3.40098E+04  3.73437E+04 -4.66823E+04  1.03530E+04 -4.63170E+04 -1.87114E+04 -2.53884E+04 -4.02898E+04
  8.29773E+03 -4.07941E+04  3.33120E+04 -1.64986E+04  3.10947E+04  1.13584E+04  4.68314E+03  2.06235E+04
 -1.37096E+04  9.33047E+03 -1.14567E+04 -8.12302E+03  5.81819E+03 -1.14071E+04  1.86281E+04  6.12179E+03
  1.44965E+04  2.26453E+04 -6.29113E+03  2.68851E+04 -2.30207E+04  1.33005E+04 -3.11718E+04 -2.58519E+03
 -2.37901E+04 -1.88591E+04 -1.09275E+04 -2.34760E+04  4.06274E+03 -2.40412E+04  1.90070E+04 -2.15112E+04
  3.05980E+04 -1.41804E+04  3.68267E+04  4.26752E+03  2.63105E+04  2.29311E+04  3.97743E+03  4.02031E+04
 -1.91006E+04  3.28800E+04 -2.98587E+04  1.18617E+04 -2.20729E+04 -1.00162E+04 -4.77619E+03 -1.25912E+04
  4.97558E+02 -1.86287E+03 -7.29991E+03  7.93638E+03 -1.91541E+04  4.56571E+03 -1.95174E+04 -8.64058E+03
 -1.15099E+04 -2.16005E+04  5.97723E+03 -2.61481E+04  1.75197E+04 -1.86110E+04  2.16503E+04 -2.21522E+03
  1.32291E+04  1.49653E+04 -1.13255E+03  2.14810E+04 -1.57786E+04  1.30436E+04 -2.24779E+04 -4.27829E+03
 -1.69448E+04 -2.03755E+04 -1.93743E+03 -2.64756E+04  1.18817E+04 -2.19614E+04  2.08803E+04 -1.13237E+04
  2.05194E+04 -6.31238E+01  1.46732E+04  5.35073E+03  7.98031E+03  1.32495E+03  1.17152E+04 -1.56910E+03
  2.05775E+04  2.68111E+03  2.31556E+04  1.73749E+04  1.57888E+04  3.55311E+04 -2.78199E+03  4.09570E+04
 -2.34357E+04  3.38258E+04 -3.80812E+04  1.75113E+04 -4.16548E+04 -2.79746E+03 -3.37662E+04 -2.36858E+04
 -1.40506E+04 -3.44625E+04  1.23458E+04 -2.99947E+04  2.59942E+04 -1.47783E+04  2.25139E+04  7.22359E+03
  7.39399E+03  1.74340E+04 -1.10808E+04  1.47337E+04 -1.96852E+04  2.43016E+03 -1.53373E+04 -1.17707E+04
 -6.55729E+02 -1.81745E+04  9.76988E+03 -1.34029E+04  1.23577E+04 -1.63194E+03  2.47717E+03  8.00565E+03
 -8.18103E+03  4.05762E+03 -8.88485E+03 -6.81464E+03 -1.81664E+03 -1.68461E+04  1.17658E+04 -1.78873E+04
  2.15543E+04 -9.48946E+03  2.34708E+04  4.00580E+03  2.03602E+04  1.75965E+04  8.78884E+03  2.64833E+04
 -4.93893E+03  2.86050E+04 -1.82628E+04  1.79299E+04 -2.11833E+04  3.71962E+03 -1.42825E+04 -4.92101E+03
 -6.62139E+03 -6.00212E+03 -2.37640E+02  1.05648E+03 -2.42106E+03  3.18284E+03 -5.37383E+03  4.57624E+03
 -1.21997E+04 -1.08408E+03 -1.37238E+04 -1.12574E+04 -5.28767E+03 -1.78900E+04  6.07857E+03 -1.45427E+04
  1.21912E+04 -5.38622E+03  7.83551E+03  4.37495E+03  5.51371E+01  5.17079E+03 -6.74911E+03 -9.51040E+01
 -7.03445E+03 -9.06233E+03 -7.58447E+02 -1.46533E+04  7.90516E+03 -1.48373E+04  1.88259E+04 -7.27894E+03
  2.14332E+04  1.80995E+03  1.53571E+04  1.28624E+04  3.48597E+03  1.65578E+04 -8.72392E+03  1.44346E+04
 -1.17017E+04  3.91765E+03 -6.07381E+03 -2.96890E+03  1.77047E+03 -3.96316E+03  6.91326E+03 -9.32075E+02
  6.72301E+03  6.19044E+03  1.11262E+03  1.17586E+04 -8.29944E+03  1.08369E+04 -1.39940E+04  3.67945E+03
 -9.57536E+03 -7.83469E+03  7.52773E+02 -1.24586E+04  8.02060E+03 -6.43319E+03  7.83625E+03  3.32630E+03
  1.58857E+03  8.32163E+03 -6.91586E+03  9.97033E+03 -1.12379E+04  4.53453E+03 -1.17548E+04 -4.22993E+03
 -6.41321E+03 -1.38226E+04  3.36485E+03 -1.49869E+04  1.38965E+04 -9.32130E+03  1.45645E+04  2.16115E+03
  9.35594E+03  1.13131E+04 -1.82732E+03  1.39499E+04 -9.94255E+03  7.53764E+03 -1.08714E+04 -8.00129E+02
 -9.84405E+03 -9.78084E+03 -2.10469E+03 -9.74502E+03  5.90244E+03 -8.74832E+03  6.59480E+03 -3.22277E+03
  4.22207E+03  1.23153E+03 -1.34349E+03  1.55384E+03 -2.18561E+02 -2.85735E+03  1.91412E+03 -5.71624E+03
  9.45458E+03 -3.15732E+03  1.40480E+04  1.30132E+03  1.30167E+04  8.54776E+03  8.33935E+03  1.78032E+04
 -3.91640E+03  2.04111E+04 -1.73547E+04  1.55864E+04 -2.21253E+04  2.92680E+03 -1.84323E+04 -7.67503E+03
 -9.53304E+03 -1.46639E+04  1.44360E+02 -1.23368E+04  4.77445E+03 -6.54788E+03  4.74274E+03 -4.01989E+03
  2.78820E+03 -2.04879E+03  4.22035E+03 -3.92817E+03  4.68345E+03 -2.85890E+03  6.70970E+03 -1.00742E+03
  8.95046E+03  2.31245E+03  5.51246E+03  7.50332E+03 -1.63523E+03  9.53282E+03 -1.01711E+04  7.17944E+03
 -1.27092E+04 -7.91130E+02 -7.95956E+03 -8.38917E+03 -1.21420E+03 -1.32673E+04  7.47943E+03 -1.26729E+04
  1.38014E+04 -7.92277E+03  1.61586E+04  2.16706E+03  1.18311E+04  1.08600E+04  2.94989E+03  1.56533E+04
 -5.94839E+03  1.22775E+04 -8.97978E+03  4.09947E+03 -5.45013E+03 -2.16745E+03 -2.55282E+03 -1.86704E+03
 -1.24961E+03  3.83622E+02 -1.70682E+03  2.38959E+03 -5.70691E+03  2.28130E+03 -8.68461E+03 -1.42919E+03
 -6.33218E+03 -9.26992E+03  3.57149E+02 -1.15416E+04  8.02307E+03 -1.14919E+04  1.16557E+04 -4.15192E+03
  1.18331E+04  6.01012E+03  5.74374E+03  1.09289E+04 -1.89525E+03  1.18592E+04 -7.93968E+03  7.53455E+03
 -1.08536E+04  4.95141E+02 -7.84001E+03 -7.36904E+03 -1.31233E+03 -9.92997E+03  5.18585E+03 -7.86681E+03
  7.46068E+03 -2.26442E+03  5.46742E+03  1.61035E+03  2.07209E+03  3.31310E+03  6.97108E+02  2.28625E+03
  1.84686E+03  4.93623E+02  3.27856E+03  1.90125E+03  3.75080E+03  4.19343E+03  3.19467E+03  6.06027E+03
 -2.06334E+03  9.15243E+03 -8.25771E+03  9.71311E+03 -1.20031E+04  2.35547E+03 -1.28937E+04 -4.62710E+03
 -5.32312E+03 -1.26825E+04  1.12735E+03 -1.41094E+04  7.72020E+03 -8.53575E+03  9.18964E+03 -2.21336E+03
  7.90893E+03  4.98379E+03  1.12878E+03  6.97831E+03 -3.94262E+03  4.08866E+03 -4.70062E+03 -6.94728E+02
 -2.45931E+03 -4.92367E+03  3.56781E+03 -5.15053E+03  4.57098E+03 -2.09229E+03  5.66656E+03  8.89640E+02
  3.58569E+03  2.21506E+03  1.31264E+03  1.45953E+03 -1.16235E+03  2.09854E+03  1.22166E+03 -7.74690E+02
  1.83642E+03 -6.08017E+02  5.37957E+03  2.31265E+03  2.26062E+03  6.22424E+03 -4.16687E+02  8.25345E+03
 -6.40727E+03  5.17287E+03 -7.09083E+03  1.44682E+03 -6.62614E+03 -1.64412E+03 -2.14604E+03 -5.24108E+03
  7.01720E+02 -4.92739E+03  2.95601E+03 -2.34822E+03  3.09490E+03  1.87560E+03 -1.74576E+03  3.92742E+03
 -4.87438E+03  2.16401E+03 -5.26288E+03 -3.21858E+03 -3.37594E+03 -6.68269E+03  8.42639E+02 -6.50392E+03
  4.22186E+03 -4.36112E+03  4.15198E+03 -4.64692E+02  3.59610E+03  6.79462E+02  8.50676E+01  3.36903E+03
 -1.72977E+03  5.87116E+02 -2.92026E+03 -1.95601E+03  1.48751E+03 -4.33913E+03  5.24107E+03 -4.51009E+03
  6.86641E+03 -2.10958E+02  7.34591E+03  4.75520E+03  1.92018E+03  7.90369E+03 -2.19112E+03  7.55067E+03
 -5.86821E+03  2.81321E+03 -6.43800E+03 -5.57344E+02 -3.41012E+03 -4.90746E+03  1.97619E+03 -4.76987E+03
  5.54036E+03 -2.72269E+03  3.98221E+03  2.44472E+03  1.75154E+03  4.59516E+03 -1.13792E+03  4.35340E+03
 -2.07609E+03  1.84495E+03 -2.49679E+03  6.62778E+02 -4.32877E+02  8.99611E+02 -5.81216E+02  1.60729E+03
 -1.82708E+03  3.00712E+03 -5.82155E+03  2.54035E+03 -7.88134E+03  5.11523E+02 -7.98973E+03 -4.55154E+03
 -4.80138E+03 -9.35900E+03  2.78677E+03 -1.19975E+04  7.01550E+03 -9.01427E+03  1.06968E+04 -2.65193E+03
  1.04008E+04  2.05386E+03  5.56619E+03  7.21257E+03 -1.17771E+02  7.51603E+03 -3.70413E+03  5.55345E+03
 -4.28632E+03  1.51642E+03 -2.89691E+03 -3.93965E+02 -9.43755E+02 -2.46610E+02 -1.05443E+03  2.98408E+02
 -1.38573E+03 -3.99034E+01 -2.08713E+03  2.56549E+01 -4.00693E+02 -2.84887E+03  3.15174E+02 -2.31760E+03
  3.12846E+03 -2.07783E+03  3.98044E+03 -5.42030E+02  5.47865E+03  4.38212E+03  1.01648E+03  7.13245E+03
 -3.32352E+03  8.94363E+03 -7.54542E+03  5.35389E+03 -9.80276E+03 -1.07396E+03 -6.79622E+03 -5.95674E+03
 -2.28066E+03 -8.74087E+03  1.58969E+03 -7.07585E+03  4.81742E+03 -4.27320E+03  4.90333E+03  8.57468E+02
  2.69491E+03  1.43960E+03  2.79261E+02  1.96524E+03 -2.19753E+03 -2.42276E+02  1.90937E+02 -1.66835E+03
  1.97296E+03 -1.14374E+03  3.19725E+03  1.08037E+03  2.32708E+03  3.11384E+03  3.79210E+02  3.77875E+03
 -3.45821E+03  2.60221E+03 -4.90389E+03  5.20496E+02 -3.92411E+03 -3.98483E+03 -4.73564E+02 -6.07477E+03
  3.40620E+03 -5.32475E+03  6.29215E+03 -2.24221E+03  6.22835E+03  9.44610E+02  3.04039E+03  4.68989E+03
  1.20614E+03  5.20628E+03 -1.66540E+03  4.03286E+03 -2.89105E+03  1.42512E+03 -2.64535E+03  3.84212E+02
 -1.41899E+03 -2.89151E+02 -1.71407E+03  1.01116E+03 -2.20122E+03  1.03031E+03 -4.09752E+03 -7.12873E+02
 -3.10332E+03 -2.08978E+03 -1.28738E+03 -5.07511E+03  2.78923E+03 -4.97986E+03  4.15527E+03 -1.97770E+03
  4.72785E+03  1.66221E+02  2.06730E+03  3.46787E+03 -3.95484E+02  5.00210E+03 -3.48064E+03  2.85729E+03
