 $NMID ID='MM_0lb_SNR400_19hz_g55_56.RAW', FMTDAT='(8E13.5)'
 TRAMP=1., VOLUME=1. $END
  3.10309E+05  4.48323E+02  3.37302E+05  2.49954E+05  8.47143E+04  3.38148E+05 -1.32822E+05  2.50515E+05
 -1.89890E+05  8.29004E+04 -1.11666E+05 -3.28842E+04  1.82448E+03 -4.98995E+04  5.41563E+04 -2.53682E+02
  3.52386E+04  5.24677E+04 -1.66488E+04  7.51402E+04 -6.04660E+04  6.37548E+04 -8.29713E+04  3.19455E+04
 -8.00851E+04 -1.15231E+04 -5.64107E+04 -5.06782E+04 -1.50309E+04 -6.87725E+04  2.68974E+04 -4.52915E+04
  3.89358E+04  4.20109E+03  1.54935E+04  4.73634E+04 -3.40389E+04  4.68167E+04 -6.59590E+04 -5.69851E+02
 -5.19851E+04 -5.63338E+04 -5.78864E+03 -7.58597E+04  3.39232E+04 -5.36238E+04  4.67252E+04 -1.69443E+04
  4.23024E+04  1.10841E+04  3.14318E+04  2.41678E+04  1.57191E+04  2.91279E+04 -4.61178E+03  2.63830E+04
 -2.19047E+04  1.24124E+04 -1.89977E+04 -4.00097E+03  4.47971E+03 -7.66847E+03  2.10189E+04  1.10131E+04
  7.51884E+03  3.38738E+04 -3.09544E+04  3.40574E+04 -6.17403E+04  2.05514E+03 -5.62578E+04 -4.12737E+04
 -1.27686E+04 -6.13104E+04  3.86065E+04 -4.37868E+04  5.61621E+04 -2.39717E+03  3.21485E+04  3.09413E+04
 -6.74568E+03  3.36672E+04 -2.91460E+04  1.41007E+04 -2.88664E+04 -5.19677E+03 -1.48154E+04 -1.06747E+04
 -7.16582E+03 -1.20162E+04 -1.14703E+03 -1.66710E+04  7.00824E+03 -2.21619E+04  1.55425E+04 -1.37478E+04
  1.21368E+04  4.74800E+03 -6.54198E+03  1.34623E+04 -2.01126E+04 -3.00704E+03 -7.90641E+03 -3.10654E+04
  2.10374E+04 -4.14939E+04  4.61388E+04 -1.86603E+04  4.28164E+04  1.87425E+04  1.44874E+04  4.22369E+04
 -1.53055E+04  3.17151E+04 -2.43019E+04  1.27385E+03 -8.62993E+03 -2.63492E+04  2.03620E+04 -3.13613E+04
  3.89051E+04 -7.21285E+03  3.25211E+04  2.30799E+04  1.63921E+04  4.34570E+04 -7.72198E+03  4.54513E+04
 -2.89587E+04  3.11186E+04 -3.81747E+04  8.61068E+03 -3.88298E+04 -1.54293E+04 -2.15235E+04 -3.47429E+04
  7.14200E+03 -3.47493E+04  2.93347E+04 -1.33333E+04  2.73814E+04  1.05924E+04  2.99690E+03  1.75410E+04
 -1.33302E+04  8.14073E+03 -1.03034E+04 -7.47495E+03  6.00286E+03 -1.09152E+04  1.74996E+04  5.98976E+03
  1.28864E+04  2.19548E+04 -7.05880E+03  2.37578E+04 -2.19457E+04  9.44554E+03 -2.53944E+04 -5.49426E+03
 -1.73434E+04 -1.66502E+04 -5.75201E+03 -1.73658E+04  3.75450E+03 -1.53257E+04  1.28823E+04 -1.51736E+04
  2.19933E+04 -1.20258E+04  2.90739E+04  1.19113E+03  2.17283E+04  1.70054E+04  4.04169E+03  3.30960E+04
 -1.65202E+04  2.78744E+04 -2.63925E+04  9.45701E+03 -1.95808E+04 -1.05865E+04 -4.42238E+03 -1.39636E+04
  2.81910E+03 -3.73848E+03 -3.29133E+03  5.31435E+03 -1.31899E+04  5.16787E+03 -1.37446E+04 -5.33326E+03
 -9.38951E+03 -1.58517E+04  5.15146E+03 -1.93389E+04  1.32681E+04 -1.43859E+04  1.50874E+04 -1.66757E+03
  9.52453E+03  1.13688E+04 -6.39810E+02  1.63976E+04 -1.05575E+04  8.95235E+03 -1.62534E+04 -3.38306E+03
 -1.20130E+04 -1.43683E+04 -1.95409E+03 -1.98531E+04  8.92662E+03 -1.58904E+04  1.64678E+04 -7.33295E+03
  1.50648E+04  3.62917E+02  1.08813E+04  3.61013E+03  5.63562E+03  4.44804E+02  7.79893E+03 -1.10864E+03
  1.38092E+04  2.42209E+03  1.48759E+04  1.28090E+04  1.01648E+04  2.51821E+04 -3.15134E+03  2.74562E+04
 -1.65127E+04  2.11704E+04 -2.50244E+04  1.01438E+04 -2.57577E+04 -1.74192E+03 -2.17430E+04 -1.47019E+04
 -1.02627E+04 -2.11325E+04  6.71361E+03 -1.96210E+04  1.64121E+04 -1.07599E+04  1.55754E+04  3.37051E+03
  7.16634E+03  1.14426E+04 -7.14338E+03  1.06539E+04 -1.37854E+04  2.79569E+03 -1.03756E+04 -7.99527E+03
 -2.46789E+02 -1.26166E+04  6.57663E+03 -9.39484E+03  8.00920E+03 -1.43261E+03  1.21160E+03  5.59756E+03
 -5.83004E+03  1.01386E+03 -4.03708E+03 -4.54902E+03  3.78944E+02 -1.01301E+04  7.79967E+03 -1.00650E+04
  1.27651E+04 -5.23455E+03  1.23825E+04  3.04800E+03  1.04425E+04  9.57031E+03  5.53734E+03  1.40392E+04
 -1.60180E+03  1.64922E+04 -9.93154E+03  1.02495E+04 -1.16223E+04  2.28232E+03 -8.68703E+03 -1.66260E+03
 -4.86699E+03 -3.20840E+03 -7.07885E+02  1.25327E+03 -1.71705E+03  1.92785E+03 -3.98917E+03  3.56990E+03
 -8.30053E+03 -3.85674E+02 -8.90735E+03 -7.92825E+03 -3.12984E+03 -1.14062E+04  3.64592E+03 -8.64657E+03
  7.65691E+03 -3.79706E+03  5.42161E+03  1.92689E+03  2.51931E+02  2.90277E+03 -3.30537E+03 -7.92996E+02
 -3.29573E+03 -5.81287E+03 -9.21867E+02 -7.65088E+03  3.91764E+03 -8.33254E+03  1.01903E+04 -3.79387E+03
  1.20094E+04  4.68115E+02  8.78936E+03  5.95032E+03  2.06419E+03  9.03037E+03 -5.60040E+03  8.81749E+03
 -6.88287E+03  2.78729E+03 -3.72984E+03 -1.10310E+03  1.14514E+03 -1.91622E+03  4.81283E+03 -7.96174E+02
  4.24596E+03  3.60672E+03  8.57763E+02  6.00194E+03 -4.09781E+03  6.31185E+03 -8.30005E+03  1.67096E+03
 -4.65296E+03 -4.34530E+03  4.61996E+02 -6.56110E+03  4.28609E+03 -3.40567E+03  3.45896E+03  8.25245E+02
  5.35231E+02  3.13633E+03 -3.98263E+03  4.66020E+03 -4.60281E+03  2.77494E+03 -4.71679E+03 -6.08333E+02
 -2.83044E+03 -6.02541E+03  1.39998E+03 -7.03021E+03  5.86792E+03 -4.84314E+03  6.53213E+03  6.39865E+02
  4.62403E+03  5.44007E+03  2.92262E+02  6.87568E+03 -4.68676E+03  4.21706E+03 -5.49739E+03 -3.17266E+02
 -5.95313E+03 -5.12768E+03 -1.31231E+03 -4.84876E+03  2.39025E+03 -4.85784E+03  3.23268E+03 -2.42846E+03
  2.66625E+03  1.70410E+02  5.17600E+02  7.10086E+02  9.56093E+02  1.04837E+02  2.43340E+02 -2.08702E+03
  3.83000E+03 -1.23168E+03  5.37188E+03  1.96841E+02  5.64541E+03  2.90989E+03  5.48608E+03  7.32573E+03
 -1.46900E+03  8.40814E+03 -7.27037E+03  6.44716E+03 -9.85645E+03  7.07732E+02 -7.56951E+03 -2.47994E+03
 -4.46295E+03 -6.97673E+03 -1.57016E+02 -4.64149E+03  2.10027E+03 -2.32176E+03  1.89787E+03 -2.38721E+03
  8.79379E+02 -1.28619E+03  1.92617E+03 -1.89122E+03  3.52770E+03 -1.43043E+03  3.79598E+03  2.42240E+02
  4.63007E+03  1.51331E+03  9.71650E+02  3.50806E+03 -1.34082E+03  3.22821E+03 -4.57196E+03  2.31156E+03
 -5.06181E+03 -1.26852E+03 -1.52720E+03 -2.94167E+03  2.82833E+02 -4.70983E+03  3.00395E+03 -5.73019E+03
  5.92545E+03 -3.44919E+03  6.58707E+03  1.46961E+02  4.28315E+03  4.18712E+03  1.15013E+03  5.38355E+03
 -2.39018E+03  6.06150E+03 -3.50020E+03  2.01013E+03 -1.61547E+03 -8.75151E+02 -1.03822E+02 -2.63486E+02
 -2.89549E+02  5.93049E+02 -6.91413E+02  2.10099E+03 -2.78185E+03 -1.05345E+02 -3.67085E+03 -2.84933E+02
 -8.49455E+02 -4.11557E+03  8.63337E+02 -4.72273E+03  2.75966E+03 -3.79847E+03  3.63510E+03 -1.04089E+03
  4.20589E+03  2.02962E+03  1.64414E+03  3.30113E+03 -4.81624E+02  3.95958E+03 -2.51215E+03  2.86299E+03
 -3.60003E+03  8.05636E+02 -3.31942E+03 -2.67079E+03 -6.65334E+02 -3.39251E+03  1.21116E+03 -2.24546E+03
  2.79250E+03 -8.51380E+02  1.57027E+03  3.54465E+02  2.47839E+02  1.76433E+03  7.00621E+02  7.64352E+02
  1.52128E+03  9.14686E+02  1.43349E+03  1.19772E+03  1.63823E+03  2.30419E+03  8.70503E+02  1.28357E+03
 -1.15186E+03  2.14682E+03 -2.54637E+03  4.09488E+03 -2.69926E+03  1.48859E+03 -3.65399E+03  7.62119E-01
 -1.56055E+03 -3.57715E+03  9.73248E+02 -4.23834E+03  1.83509E+03 -2.27040E+03  2.56559E+03 -6.71538E+02
  2.00870E+03  1.85888E+03  4.12271E+02  1.96726E+03 -2.46655E+02  1.44450E+03 -5.48175E+02 -2.95923E+02
 -6.64375E+02 -1.20927E+03  1.37836E+03 -1.71342E+03  1.10346E+03 -3.82811E+02  6.30714E+02  8.28747E+02
  9.46987E+02  4.54720E+02  1.11729E+03 -4.31208E+02 -8.74084E+02  8.89989E+02  1.62947E+03  2.25302E+02
  9.44498E+01 -4.78593E+02  1.79543E+03  2.65714E+02  1.87712E+02  2.28057E+03 -1.36404E+02  2.68855E+03
 -1.68515E+03  1.28554E+03 -2.09560E+03  8.61775E+02 -2.26601E+03 -9.05795E+02 -4.54221E+02 -9.33137E+02
  5.38270E+02 -1.28150E+03  4.63494E+02 -6.86852E+02  6.27128E+02  1.23240E+03 -8.96131E+02  1.33414E+03
 -1.45977E+03  7.73134E+02 -1.04373E+03 -1.18053E+03 -8.68707E+02 -1.97401E+03 -2.02292E+02 -1.17271E+03
  3.44337E+02 -3.16291E+02  8.35221E+02 -2.75125E+02  1.17498E+03 -2.56321E+02  2.19084E+02  9.50881E+02
 -3.45546E+02  4.89754E+01 -2.20881E+02  3.93450E+01  7.43141E+02 -8.89508E+02  1.87689E+03 -1.19458E+03
  9.03357E+02 -9.60412E+01  2.62375E+03  5.76849E+02  1.32983E+03  1.54523E+03 -1.76304E+02  9.75633E+02
 -1.04068E+03  7.35785E+02 -1.01442E+03 -3.72586E+02 -8.53025E+02 -1.24394E+03  4.49393E+02 -5.90763E+02
  1.31385E+03 -7.62320E+02  1.07636E+03  9.70605E+02  2.97233E+02  1.25003E+03  6.49823E+01  1.36228E+03
 -3.89256E+02  6.67367E+02 -6.71958E+02  5.30060E+01  2.44063E+02  4.07327E+02 -6.30619E+02  6.68635E+02
 -5.60281E+02  1.52881E+03 -1.16052E+03  2.71854E+02 -1.58756E+03  5.00739E+02 -2.06672E+03 -8.96332E+02
 -1.17924E+03 -2.40419E+03  2.28640E+02 -2.70345E+03  8.19407E+02 -1.95134E+03  2.91102E+03 -9.36253E+01
  2.14387E+03 -1.87304E+02  8.01328E+02  1.67461E+03 -5.75200E+02  1.52421E+03 -6.18499E+02  9.32085E+02
 -9.09892E+02  7.95705E+02 -1.02745E+03 -4.16419E+02 -9.13418E+02  1.76257E+02 -6.74652E+02  6.93346E+01
 -1.17280E+03 -4.02640E+02 -6.07148E+02  1.98841E+02  7.39332E+02  5.19007E+02 -1.14092E+02 -4.50997E+02
  1.25922E+03 -7.33907E+02  1.02004E+02  6.25156E+01  1.00045E+03  1.36385E+03 -3.08715E+02  1.30870E+03
 -1.06520E+03  1.83579E+03 -1.37268E+03  1.03302E+03 -1.27218E+03  2.33750E+02 -8.75431E+02 -1.09416E+03
 -5.05785E+02 -9.13555E+02  1.24450E+02 -1.10028E+03  2.80030E+02 -1.48117E+02  8.46293E+02 -1.98665E+02
  1.02029E+03 -3.11533E+02  1.97317E+02  1.47936E+02 -1.24863E+02  1.87724E+02 -1.00565E+02  9.59150E+01
  2.61976E+02  1.13488E+02 -4.67346E+02  5.46878E+02 -2.69516E+02  6.77712E+02  6.84488E+02  1.47693E+02
 -8.83099E+01  6.32400E+02 -8.12373E+02  1.70346E+02 -4.90256E+02 -5.18865E+02  1.67881E+02 -6.52469E+02
  3.31259E+02 -9.33029E+02  3.58714E+02  5.54032E+01  7.06282E+02 -7.10421E+02  1.42920E+02  5.00457E+02
  5.39951E+02 -1.59269E+02 -2.83715E+02  7.65783E+02 -1.85593E+02  4.82043E+02 -2.52949E+02  7.09777E+01
 -4.28907E+02 -2.52361E+02 -6.11969E+02 -1.78639E+02 -6.23837E+02  1.52431E+01 -2.24107E+02 -3.20579E+02
 -1.44628E+03  7.88789E+02 -1.00539E+02 -4.02802E+02  6.27562E+02 -1.71779E+03  7.44126E+02 -1.82498E+01
  9.51780E+02  2.54859E+02 -8.07647E+02  2.93545E+02  1.34914E+02  9.50224E+02  6.42048E+02  8.82613E+02
