 $NMID ID='MM_0lb_SNR400_18hz_g45_56.RAW', FMTDAT='(8E13.5)'
 TRAMP=1., VOLUME=1. $END
  3.09250E+05  4.39685E+02  3.37457E+05  2.50526E+05  8.45422E+04  3.37247E+05 -1.31953E+05  2.50551E+05
 -1.89670E+05  8.22954E+04 -1.10968E+05 -3.30510E+04  1.88553E+03 -5.07258E+04  5.41646E+04  4.54377E+02
  3.51085E+04  5.31949E+04 -1.70093E+04  7.48289E+04 -6.04537E+04  6.27993E+04 -8.32971E+04  3.09298E+04
 -8.00964E+04 -1.11154E+04 -5.60507E+04 -5.09131E+04 -1.47859E+04 -6.83700E+04  2.63466E+04 -4.47797E+04
  3.93335E+04  3.65892E+03  1.56145E+04  4.70938E+04 -3.35197E+04  4.56680E+04 -6.48664E+04 -4.59875E+02
 -5.16033E+04 -5.55751E+04 -6.26051E+03 -7.54767E+04  3.32820E+04 -5.35484E+04  4.61906E+04 -1.57654E+04
  4.12851E+04  1.07696E+04  3.04638E+04  2.48740E+04  1.58498E+04  2.79993E+04 -4.79413E+03  2.67512E+04
 -2.17334E+04  1.28563E+04 -1.92875E+04 -3.73296E+03  4.14245E+03 -7.49795E+03  2.14028E+04  1.10266E+04
  7.47161E+03  3.36352E+04 -3.03774E+04  3.44173E+04 -6.08008E+04  1.96159E+03 -5.50186E+04 -4.09703E+04
 -1.25325E+04 -6.04441E+04  3.81929E+04 -4.36136E+04  5.56933E+04 -2.35924E+03  3.15756E+04  3.04110E+04
 -6.25336E+03  3.37000E+04 -2.83041E+04  1.34757E+04 -2.74280E+04 -5.36917E+03 -1.39968E+04 -1.03508E+04
 -7.21648E+03 -1.14065E+04 -8.96914E+02 -1.69733E+04  7.09120E+03 -2.22293E+04  1.49471E+04 -1.44986E+04
  1.24407E+04  4.40310E+03 -6.54226E+03  1.25586E+04 -2.00222E+04 -2.00037E+03 -8.47232E+03 -3.05469E+04
  2.13452E+04 -4.05289E+04  4.48085E+04 -1.91160E+04  4.24800E+04  1.81213E+04  1.38929E+04  4.21677E+04
 -1.47084E+04  3.11255E+04 -2.30597E+04  1.71310E+03 -7.53190E+03 -2.68305E+04  2.00696E+04 -3.12004E+04
  3.81405E+04 -7.62065E+03  3.13704E+04  2.25758E+04  1.51540E+04  4.29665E+04 -7.58138E+03  4.48406E+04
 -2.88136E+04  3.00727E+04 -3.72535E+04  8.27795E+03 -3.86399E+04 -1.52728E+04 -2.09993E+04 -3.44743E+04
  6.92688E+03 -3.43485E+04  2.90882E+04 -1.23890E+04  2.68406E+04  1.07506E+04  2.42325E+03  1.82391E+04
 -1.27268E+04  7.42120E+03 -9.60786E+03 -7.63751E+03  5.79644E+03 -9.89069E+03  1.73985E+04  6.24040E+03
  1.24402E+04  2.20387E+04 -6.48815E+03  2.36118E+04 -2.16010E+04  8.94037E+03 -2.53676E+04 -6.05303E+03
 -1.73089E+04 -1.70420E+04 -6.13762E+03 -1.69478E+04  3.49558E+03 -1.47639E+04  1.26995E+04 -1.43513E+04
  2.13393E+04 -1.19970E+04  2.81665E+04  1.23718E+03  2.17981E+04  1.62004E+04  4.54616E+03  3.23159E+04
 -1.66383E+04  2.77925E+04 -2.57295E+04  9.19445E+03 -1.99115E+04 -1.08112E+04 -3.87224E+03 -1.41347E+04
  2.16435E+03 -3.94347E+03 -2.51264E+03  5.29671E+03 -1.30869E+04  5.35480E+03 -1.36156E+04 -4.58210E+03
 -8.87983E+03 -1.57561E+04  4.35553E+03 -1.92574E+04  1.31547E+04 -1.42788E+04  1.45246E+04 -1.35672E+03
  9.04199E+03  1.11605E+04 -8.63098E+02  1.59988E+04 -1.04203E+04  8.94204E+03 -1.57390E+04 -3.13171E+03
 -1.19013E+04 -1.43428E+04 -1.63380E+03 -1.93874E+04  9.09322E+03 -1.53100E+04  1.60787E+04 -7.34566E+03
  1.46400E+04  8.78293E+02  1.04998E+04  3.36214E+03  5.43120E+03  4.66380E+02  7.53821E+03 -9.13474E+02
  1.37447E+04  2.28205E+03  1.49225E+04  1.29306E+04  9.17562E+03  2.48483E+04 -3.54147E+03  2.71495E+04
 -1.60981E+04  2.07344E+04 -2.46686E+04  1.00015E+04 -2.56723E+04 -1.47934E+03 -2.08398E+04 -1.43316E+04
 -1.04810E+04 -2.06968E+04  6.76758E+03 -1.90283E+04  1.69001E+04 -1.06054E+04  1.56287E+04  4.21921E+03
  6.21268E+03  1.16507E+04 -7.01123E+03  1.10312E+04 -1.38074E+04  2.62889E+03 -1.04052E+04 -7.80166E+03
  4.46905E+02 -1.25627E+04  6.21417E+03 -9.09683E+03  8.28429E+03 -1.04818E+03  2.07034E+03  4.80887E+03
 -5.13923E+03  1.35999E+03 -3.56581E+03 -4.85659E+03  3.04024E+02 -1.04335E+04  8.12223E+03 -1.03471E+04
  1.24332E+04 -4.96811E+03  1.26399E+04  3.08284E+03  1.05827E+04  9.52007E+03  4.93779E+03  1.45970E+04
 -1.24456E+03  1.62260E+04 -9.33331E+03  1.05534E+04 -1.15659E+04  2.50680E+03 -8.31088E+03 -2.16128E+03
 -4.86362E+03 -3.39620E+03 -6.50292E+02  1.54945E+03 -1.96363E+03  1.99639E+03 -4.08408E+03  3.41429E+03
 -8.11644E+03 -7.94129E+01 -8.82601E+03 -7.70582E+03 -3.90763E+03 -1.22373E+04  3.34441E+03 -8.66334E+03
  7.05189E+03 -3.75397E+03  4.98747E+03  2.12316E+03  2.68645E+02  3.49386E+03 -3.57176E+03 -2.43127E+02
 -2.83677E+03 -5.15985E+03 -6.34358E+02 -7.17252E+03  3.97108E+03 -8.32289E+03  9.85982E+03 -3.69405E+03
  1.20396E+04  9.92475E+02  8.68810E+03  6.40397E+03  1.48738E+03  8.82425E+03 -5.32399E+03  8.13221E+03
 -7.35347E+03  2.62518E+03 -3.62306E+03 -1.79266E+03  1.51870E+03 -1.51655E+03  4.91327E+03 -1.09622E+03
  4.39913E+03  3.37727E+03  5.51028E+02  6.41893E+03 -4.78961E+03  6.55487E+03 -8.03644E+03  1.80674E+03
 -5.26035E+03 -3.85450E+03  9.30981E+01 -7.23309E+03  3.55054E+03 -3.86183E+03  3.61353E+03  9.45996E+02
  8.72597E+02  3.47226E+03 -4.20069E+03  5.19479E+03 -4.59579E+03  2.45216E+03 -4.35682E+03 -8.80644E+02
 -3.25400E+03 -5.89118E+03  7.52587E+02 -7.37504E+03  6.64367E+03 -4.62382E+03  6.71230E+03  1.24324E+03
  5.32396E+03  4.90424E+03 -2.90969E+02  8.43749E+03 -5.54250E+03  4.39170E+03 -5.05182E+03 -5.99635E+02
 -5.85773E+03 -5.52137E+03 -1.38210E+03 -4.85451E+03  1.85068E+03 -4.82573E+03  2.74151E+03 -2.77630E+03
  3.29268E+03 -1.62886E+02 -3.55438E+01  1.30536E+03  2.57280E+02  8.32157E+01 -2.15569E+02 -1.98624E+03
  3.74936E+03 -6.34121E+02  5.88776E+03  6.21498E+02  5.71338E+03  3.18220E+03  5.10704E+03  7.23646E+03
 -1.01969E+03  9.07581E+03 -7.73675E+03  7.15170E+03 -9.80566E+03  2.00177E+03 -7.93828E+03 -2.57386E+03
 -4.54849E+03 -6.93946E+03 -9.16989E+02 -5.60895E+03  2.36294E+03 -1.66181E+03  1.48486E+03 -2.03276E+03
  1.01438E+03 -1.41274E+03  2.31756E+03 -2.44006E+03  3.57319E+03 -1.36632E+03  4.54864E+03  3.48899E+02
  4.80785E+03  1.45040E+03  1.13278E+03  4.10047E+03 -1.44630E+03  2.51939E+03 -4.79321E+03  2.36390E+03
 -4.89047E+03 -6.24358E+02 -2.24968E+03 -3.78667E+03  4.29261E+02 -4.74996E+03  3.70594E+03 -5.61045E+03
  5.52289E+03 -3.48536E+03  7.04633E+03  8.68273E+02  4.93015E+03  4.76282E+03  1.13767E+03  5.73451E+03
 -2.23378E+03  5.83238E+03 -3.80356E+03  1.53212E+03 -2.08753E+03 -8.25428E+02 -1.08267E+03 -7.93189E+02
 -6.82031E+02  2.62804E+02 -1.21932E+03  2.01440E+03 -2.76232E+03  1.65638E+03 -4.04775E+03 -6.88076E+02
 -1.50717E+03 -3.67473E+03  5.76256E+02 -4.55669E+03  2.84961E+03 -4.44317E+03  3.74026E+03 -1.33450E+03
  4.14353E+03  1.85199E+03  1.99142E+03  3.52687E+03 -6.91844E+02  4.82820E+03 -2.74112E+03  3.01423E+03
 -4.26891E+03 -4.97725E+01 -3.86329E+03 -2.51857E+03 -4.71030E+02 -3.48999E+03  1.12060E+03 -2.40863E+03
  3.33098E+03 -1.27134E+03  1.72935E+03  5.56743E+02  9.95484E+01  1.77093E+03  1.23418E+03  6.44837E+02
  1.05172E+03  7.26795E+02  2.60521E+02  7.85315E+02  1.47220E+03  2.46412E+03  1.55993E+03  1.87819E+03
 -1.33655E+03  3.29819E+03 -2.45157E+03  4.33311E+03 -2.94266E+03  1.26198E+03 -4.29837E+03  7.08768E+01
 -1.90294E+03 -3.57255E+03  2.93998E+02 -4.98103E+03  2.26015E+03 -2.67863E+03  3.96942E+03 -9.91644E+02
  2.54155E+03  1.87974E+03  1.85197E+02  2.15088E+03 -2.38959E+02  1.24532E+03 -3.99785E+02 -5.79889E+02
 -2.35032E+02 -1.77476E+03  1.16598E+03 -1.82073E+03  9.63565E+02 -1.03681E+03  8.90871E+02  5.20851E+02
  1.01241E+03  6.70699E+02  9.64297E+02  7.24072E+02 -5.68778E+02  5.17163E+02  1.15655E+03 -7.34845E+02
 -3.30485E+02 -1.02503E+01  1.39931E+03  6.52441E+02  3.02455E+02  2.62333E+03 -4.80591E+02  2.87489E+03
 -1.25486E+03  1.03055E+03 -1.63927E+03 -1.08725E+02 -2.27991E+03 -8.73647E+02 -2.34497E+02 -1.31197E+03
  5.02539E+02 -1.21612E+03  8.03166E+02 -6.78755E+02  4.80704E+02  1.16198E+03 -1.01978E+03  1.47480E+03
 -1.27258E+03  4.35567E+02 -1.42034E+03 -1.96388E+03 -7.64201E+02 -2.38511E+03 -4.93374E+02 -1.67295E+03
  6.71425E+02 -1.12231E+03  9.04537E+02  1.13008E+02  1.88800E+03 -3.13114E+02  2.65497E+02  1.10675E+03
 -4.59263E+02  1.18385E+02 -8.63081E+02 -3.43011E+02  5.37733E+02 -8.02984E+02  1.45365E+03 -1.46803E+03
  1.20878E+03  3.20988E+02  2.90705E+03  1.00309E+03  1.15423E+03  1.76197E+03 -8.71132E+02  2.21339E+03
 -8.94315E+02  1.69263E+02 -1.64277E+03 -1.07648E+02 -1.04342E+03 -1.41136E+03  2.14832E+02 -4.44697E+02
  1.56360E+03 -7.24269E+02  1.50266E+03  2.91035E+02  2.67234E+02  1.11190E+03  5.72648E+02  1.69766E+03
 -3.38580E+01  6.59112E+02 -3.82259E+02  8.33717E+00  2.53946E+01  6.23992E+02 -1.02032E+03  5.44951E+02
 -3.88653E+02  1.37978E+03 -1.92119E+03  5.75540E+02 -1.88925E+03  4.09695E+02 -2.83068E+03 -1.24104E+03
 -1.19130E+03 -2.57004E+03  6.60480E+02 -2.86607E+03  1.50969E+03 -2.80845E+03  2.82178E+03 -8.03426E+02
  2.14244E+03 -1.25809E+02  1.16827E+03  2.21908E+03 -8.46229E+02  1.62455E+03 -7.96061E+02  1.55784E+03
 -7.88960E+02  9.90481E+02 -5.93685E+02 -8.28382E+02 -8.27413E+02  2.65682E+02 -7.53506E+02  1.90256E+02
 -1.34557E+03  6.43819E+01 -5.40132E+02  6.53627E+01  2.14294E+02 -3.85028E+02 -4.76439E+02 -7.16308E+02
  1.60418E+03 -6.73332E+02  2.82837E+02  8.62156E+01  1.06216E+03  1.02355E+03 -8.95414E+02  1.32867E+03
 -1.11711E+03  2.48562E+03 -1.92650E+03  1.57203E+03 -1.83629E+03 -5.02261E+01 -1.08722E+03 -1.49470E+03
 -1.10369E+03 -1.42226E+03 -1.29553E+02 -1.41670E+03  4.40910E+02 -5.54985E+02  7.83696E+02 -1.38105E+02
  7.28590E+02  3.51213E+02  1.19922E+02  8.13198E+02  2.10530E+02  7.77323E+01 -2.20117E+02 -9.79709E+01
  6.42449E+02  2.82831E+02  3.82111E+02  9.48922E+02  2.10199E+02  7.12223E+02  2.52950E+02  3.79342E+02
 -1.07144E+03  9.64704E+02 -6.49393E+02  4.90522E+02 -1.38516E+03 -2.56945E+02 -2.97070E+02 -1.66746E+03
  4.91746E+02 -1.14323E+03  6.92617E+02 -4.24373E+02  1.61690E+03 -3.29859E+02  4.65820E+02  1.01879E+03
  3.97658E+02  7.94040E+02 -5.37981E+01  7.16919E+02 -7.17739E+02  1.94400E+02 -9.23594E+01 -4.18799E+01
  2.46399E+02  1.62139E+02 -8.86613E+02 -3.10620E+02 -5.50797E+02  2.08560E+02 -1.32597E+03 -4.24146E+02
 -1.24055E+03  5.32305E+02 -1.10627E+03 -1.74229E+03  1.10073E+03 -1.40748E+03  6.86071E+02  5.15702E+02
  4.94965E+02  3.39961E+02 -1.76656E+02  1.00098E+02  4.13748E+02  1.16663E+03 -9.98863E+02  8.80928E+02
