 $NMID ID='MM_0lb_SNR400_20hz_g50_28.RAW', FMTDAT='(8E13.5)'
 TRAMP=1., VOLUME=1. $END
  3.09866E+05  7.02263E+02  3.37009E+05  2.50494E+05  8.42521E+04  3.37195E+05 -1.32251E+05  2.50781E+05
 -1.89666E+05  8.25570E+04 -1.10403E+05 -3.30792E+04  7.58418E+02 -4.99351E+04  5.41858E+04  5.90755E+02
  3.51914E+04  5.32875E+04 -1.66678E+04  7.45523E+04 -6.00260E+04  6.29014E+04 -8.26739E+04  3.15818E+04
 -7.89545E+04 -1.10798E+04 -5.63410E+04 -5.05070E+04 -1.50065E+04 -6.77210E+04  2.65809E+04 -4.47254E+04
  3.87556E+04  3.29749E+03  1.54080E+04  4.66867E+04 -3.39927E+04  4.57987E+04 -6.52099E+04 -6.65750E+02
 -5.13268E+04 -5.55930E+04 -6.46621E+03 -7.52014E+04  3.31661E+04 -5.24894E+04  4.63395E+04 -1.64017E+04
  4.16243E+04  1.09882E+04  3.03122E+04  2.43853E+04  1.58107E+04  2.82735E+04 -4.05347E+03  2.62780E+04
 -2.20446E+04  1.31822E+04 -1.94044E+04 -4.48386E+03  4.38241E+03 -7.45395E+03  2.14250E+04  1.08900E+04
  7.36659E+03  3.29686E+04 -2.98761E+04  3.36918E+04 -6.07922E+04  1.65054E+03 -5.53978E+04 -4.12373E+04
 -1.22468E+04 -6.07294E+04  3.76548E+04 -4.25196E+04  5.51957E+04 -1.91909E+03  3.13975E+04  2.99856E+04
 -6.86542E+03  3.26255E+04 -2.82130E+04  1.29189E+04 -2.69990E+04 -5.18706E+03 -1.40348E+04 -1.00870E+04
 -7.16138E+03 -1.13666E+04 -8.86315E+02 -1.67373E+04  6.79812E+03 -2.23531E+04  1.48973E+04 -1.38548E+04
  1.22262E+04  4.62091E+03 -5.58689E+03  1.30247E+04 -1.87760E+04 -2.02616E+03 -7.89722E+03 -2.96734E+04
  2.06168E+04 -4.00439E+04  4.43386E+04 -1.80075E+04  4.19048E+04  1.78534E+04  1.39714E+04  4.10640E+04
 -1.45773E+04  3.05259E+04 -2.26270E+04  7.01023E+02 -8.01548E+03 -2.63266E+04  2.05266E+04 -3.08784E+04
  3.75210E+04 -6.94328E+03  3.06633E+04  2.21844E+04  1.47329E+04  4.21773E+04 -7.57789E+03  4.44768E+04
 -2.76240E+04  2.91870E+04 -3.64449E+04  7.86558E+03 -3.80825E+04 -1.41338E+04 -2.07864E+04 -3.36111E+04
  6.89444E+03 -3.37988E+04  2.84448E+04 -1.28821E+04  2.57736E+04  1.05270E+04  2.85890E+03  1.76745E+04
 -1.33343E+04  7.25729E+03 -9.75329E+03 -7.63666E+03  6.12152E+03 -1.01619E+04  1.71326E+04  6.53818E+03
  1.23433E+04  2.13164E+04 -6.83465E+03  2.31585E+04 -2.09444E+04  8.74047E+03 -2.45223E+04 -6.61231E+03
 -1.62197E+04 -1.63259E+04 -5.24261E+03 -1.62813E+04  3.54739E+03 -1.37412E+04  1.19822E+04 -1.40769E+04
  2.03945E+04 -1.19007E+04  2.72749E+04  5.70093E+02  2.08970E+04  1.56615E+04  3.98395E+03  3.16032E+04
 -1.60691E+04  2.64243E+04 -2.55104E+04  9.16695E+03 -1.96006E+04 -1.03327E+04 -3.72078E+03 -1.43588E+04
  2.81858E+03 -4.39442E+03 -2.27746E+03  5.08933E+03 -1.25294E+04  5.23903E+03 -1.32878E+04 -4.69057E+03
 -8.35157E+03 -1.48463E+04  4.44418E+03 -1.79872E+04  1.23962E+04 -1.39375E+04  1.37788E+04 -1.79521E+03
  8.68179E+03  1.01883E+04 -7.89778E+02  1.57998E+04 -9.73254E+03  8.54811E+03 -1.48840E+04 -3.17478E+03
 -1.04506E+04 -1.33484E+04 -1.00787E+03 -1.77980E+04  8.20154E+03 -1.47766E+04  1.49511E+04 -6.76773E+03
  1.38738E+04  7.20812E+02  9.73553E+03  3.25390E+03  4.66103E+03  3.24361E+02  6.66389E+03 -1.07033E+03
  1.27176E+04  2.46634E+03  1.35940E+04  1.18954E+04  8.08018E+03  2.32995E+04 -3.32549E+03  2.51764E+04
 -1.48191E+04  1.89372E+04 -2.27505E+04  8.71754E+03 -2.34471E+04 -1.81134E+03 -2.02595E+04 -1.32011E+04
 -9.60720E+03 -1.87978E+04  6.04512E+03 -1.71185E+04  1.51948E+04 -1.04150E+04  1.47463E+04  3.10795E+03
  5.75474E+03  1.03879E+04 -6.61012E+03  9.74554E+03 -1.26110E+04  2.62576E+03 -9.55737E+03 -7.85832E+03
 -4.10671E+02 -1.16192E+04  6.16162E+03 -9.02888E+03  7.46844E+03 -1.30760E+03  9.97435E+02  4.54264E+03
 -5.52847E+03  7.80212E+02 -3.24731E+03 -4.48705E+03  8.87020E+02 -9.46939E+03  7.81100E+03 -9.17000E+03
  1.12673E+04 -4.04727E+03  1.10381E+04  2.44819E+03  8.89114E+03  8.77142E+03  4.68383E+03  1.30448E+04
 -1.04226E+03  1.46581E+04 -8.75877E+03  9.22738E+03 -1.01499E+04  2.96283E+03 -7.57189E+03 -1.32041E+03
 -4.09134E+03 -2.52426E+03 -8.33666E+02  1.82506E+03 -1.87364E+03  2.24907E+03 -3.26013E+03  3.59022E+03
 -7.65054E+03 -7.31848E+02 -8.36402E+03 -6.55550E+03 -2.87760E+03 -1.07349E+04  3.04857E+03 -7.31977E+03
  6.70312E+03 -3.10769E+03  4.80233E+03  2.00150E+03  1.15925E+03  2.79285E+03 -2.01675E+03 -5.56409E+02
 -3.13105E+03 -5.25944E+03 -5.10730E+02 -6.61579E+03  3.06374E+03 -7.15603E+03  9.54737E+03 -3.71069E+03
  1.06725E+04  2.79296E+02  8.15842E+03  5.36054E+03  1.23904E+03  7.40547E+03 -4.88903E+03  7.64035E+03
 -6.49782E+03  2.87653E+03 -3.33893E+03 -7.37911E+02  1.32855E+03 -1.58703E+03  4.08774E+03 -1.22560E+03
  3.82344E+03  2.82848E+03  1.43284E+03  5.52587E+03 -4.31738E+03  5.74971E+03 -6.72705E+03  1.00964E+03
 -4.60547E+03 -3.23486E+03 -5.99374E+01 -5.76765E+03  3.73658E+03 -2.94587E+03  3.37191E+03  8.36908E+02
  6.69887E+02  2.65895E+03 -3.49736E+03  4.30794E+03 -4.03884E+03  2.31602E+03 -3.70521E+03 -5.37165E+02
 -2.38717E+03 -5.65595E+03  5.81101E+02 -5.98952E+03  5.55810E+03 -4.46625E+03  5.43165E+03  7.65827E+02
  4.47400E+03  4.60588E+03  1.88987E+02  6.44985E+03 -4.20350E+03  3.71328E+03 -4.47395E+03 -2.95566E+02
 -5.15535E+03 -3.94534E+03 -1.69157E+03 -3.89081E+03  2.03737E+03 -4.00160E+03  2.67056E+03 -3.15313E+03
  2.77880E+03 -1.93461E+02 -3.96494E+01  1.07963E+03  2.87319E+02 -4.46622E+01  8.68309E+01 -1.14988E+03
  2.97906E+03 -5.09471E+02  4.54617E+03  1.10959E+03  4.27852E+03  2.19866E+03  4.85097E+03  6.05985E+03
 -8.39296E+02  7.50617E+03 -6.21320E+03  5.90472E+03 -8.29174E+03  7.62419E+02 -6.89793E+03 -2.37732E+03
 -3.90058E+03 -5.81751E+03 -2.14813E+02 -4.45479E+03  1.53789E+03 -1.72957E+03  1.14098E+03 -2.12090E+03
  6.23266E+02 -1.30017E+03  2.22368E+03 -2.10149E+03  3.48160E+03 -1.24825E+03  3.06804E+03  4.82371E+02
  3.51805E+03  1.19513E+03  1.00012E+03  2.89763E+03 -1.24113E+03  2.29402E+03 -4.38219E+03  2.02576E+03
 -3.94227E+03 -1.01334E+03 -1.01755E+03 -2.79568E+03  6.00273E+02 -4.09850E+03  3.06973E+03 -5.03695E+03
  4.26506E+03 -2.52529E+03  5.51559E+03  4.83755E+01  4.32369E+03  3.01285E+03  7.80831E+02  5.04051E+03
 -1.89615E+03  5.51789E+03 -2.95669E+03  1.90602E+03 -1.49829E+03 -8.37323E+02 -2.95292E+02 -1.18671E+02
 -3.02321E+02  4.12469E+02 -6.48057E+02  1.96153E+03 -2.47195E+03  9.68870E+02 -4.16247E+03 -1.44240E+02
 -9.72062E+02 -3.63524E+03  7.08975E+02 -4.08024E+03  2.58540E+03 -3.76444E+03  2.89901E+03 -8.64468E+02
  2.88172E+03  1.38118E+03  1.16299E+03  2.18817E+03 -9.17731E+02  4.02081E+03 -1.70069E+03  1.84374E+03
 -2.73315E+03  5.46029E+02 -2.78951E+03 -2.05531E+03 -1.14913E+02 -2.41798E+03  1.17012E+03 -2.57388E+03
  2.47503E+03 -1.09139E+03  1.36276E+03  2.20953E+02  5.41260E+02  1.75189E+03  6.34814E+02  7.95791E+01
  1.50729E+03  6.07727E+02  9.08376E+02  1.12677E+03  9.15566E+02  1.67304E+03  1.13070E+03  9.51771E+02
 -7.14731E+02  2.13251E+03 -1.56062E+03  3.60916E+03 -1.78519E+03  8.12854E+02 -3.06565E+03 -3.29929E+02
 -1.36900E+03 -2.94512E+03  7.28127E+02 -4.04835E+03  9.98287E+02 -2.43282E+03  2.20312E+03 -8.74616E+02
  2.20472E+03  1.41542E+03  4.82889E+02  2.00832E+03 -8.27151E+02  5.06290E+02 -9.45154E+02  3.06328E+02
 -7.63060E+02 -1.04968E+03  1.01880E+03 -1.19844E+03  1.18721E+03 -8.25413E+02  1.15781E+03  1.08307E+01
  1.55281E+02 -1.81962E+02  9.31294E+02 -2.03852E+02 -5.26002E+02  7.91980E+02  1.57148E+03 -4.54599E+02
 -4.96804E+02 -3.30018E+02  1.21792E+03  2.72155E+02  6.87962E+02  1.98232E+03 -4.31644E+02  2.08590E+03
 -1.33861E+03  7.58991E+02 -1.00023E+03  4.81302E+02 -1.61252E+03 -1.97088E+02 -3.24304E+02 -8.19675E+02
  7.69818E+01 -9.14924E+02  4.41745E+02 -3.34574E+02  3.03043E+02  9.18652E+02 -4.90775E+02  1.10915E+03
 -1.01810E+03  7.65411E+02 -9.66590E+02 -1.36071E+03  1.66531E+01 -1.69475E+03  3.35731E+01 -9.13077E+02
  1.30215E+02 -1.72019E+02  3.75405E+02  1.72157E+02  1.24464E+03 -1.30956E+02  3.47599E+02  1.01051E+03
 -3.25925E+02  2.60783E+02 -1.12281E+03  6.21180E+00  9.83411E+01 -8.21291E+02  8.33826E+02 -6.38020E+02
  7.76573E+02 -1.21019E+02  2.31303E+03  2.74218E+02  8.59871E+02  1.22444E+03  3.20224E+02  1.44651E+03
 -1.04927E+03 -6.63587E+01 -1.16542E+03 -3.92918E+02 -6.78362E+02 -5.37252E+02  2.33692E+01 -2.06204E+01
  9.81257E+02 -1.98020E+02  2.89560E+02  3.14857E+02  4.81164E+02  8.01167E+02  8.69187E+01  1.10149E+03
 -5.99541E+01  7.53906E+02 -4.41007E+02  2.93003E+02  6.59721E+01  2.89534E+02 -6.28033E+01  2.17431E+02
 -2.89806E+02  9.92933E+02 -1.47069E+03  2.24780E+02 -1.17756E+03  2.67063E+02 -1.43921E+03 -5.50186E+02
 -9.50264E+02 -1.07845E+03  1.18251E+02 -1.79332E+03  7.21604E+02 -2.09607E+03  2.35340E+03 -1.09305E+03
  1.73965E+03 -4.24948E+02  8.15612E+02  6.17105E+02 -6.64906E+02  1.26463E+03 -4.08067E+02  9.11751E+02
 -4.68702E+02  2.43880E+02 -5.07390E+02 -5.33095E+02 -2.37365E+02  1.85016E+02 -8.26653E+02 -1.63091E+02
 -4.30725E+02 -2.66344E+02 -4.91785E+02  3.83615E+02 -1.75259E+01 -9.69287E+01  2.62566E+01 -6.15305E+02
  1.02520E+03 -6.94470E+02  4.23448E+02  1.91888E+02  7.52404E+02  2.70998E+02 -1.05555E+03  6.62755E+02
 -7.16735E+02  1.92105E+03 -1.43242E+03  7.45480E+02 -1.57190E+03 -6.48597E+01 -3.36090E+02 -8.97425E+02
 -2.42223E+02 -8.95235E+02  3.62971E+02 -4.88546E+02  7.24824E+02 -2.69207E+02  3.95118E+02  1.93632E+02
  3.72730E+02  5.88328E+01  1.00010E+02  3.40772E+02 -3.40938E+02 -3.15828E+02 -1.63425E+02 -5.02448E+02
  7.05308E+02  3.91798E+02  4.23642E+02  9.11863E+02 -6.96838E+01 -1.33912E+02  5.68783E+02  7.91604E+01
 -9.62749E+02  2.78974E+02 -2.03151E+02  4.97456E+01 -1.20159E+01 -2.98366E+02  1.48306E+02 -4.76614E+02
  2.96754E+02 -3.28255E+02 -4.66889E+01 -2.10076E+02  6.62531E+02 -8.28474E+02  5.12402E+02  2.35032E+02
  7.35779E+02  7.28744E+02 -1.53423E+02  4.78001E+02 -2.51177E+02  4.89095E+02 -2.32740E+02  1.67560E+02
  2.23014E+00 -2.25352E+02 -4.39194E+02  3.31357E+02 -3.88916E+02 -3.29727E+02 -8.29218E+02 -1.93935E+01
 -9.87463E+02  5.45164E+02 -4.58044E+02 -8.23726E+02  6.15965E+02 -1.64938E+03  7.17126E+02 -2.93047E+02
  4.33590E+02  4.12348E+01 -8.20208E+02  2.89359E+01 -1.72361E+01  9.10372E+02 -3.59369E+01  4.74775E+02
