 $NMID ID='MM_0lb_SNR400_11hz_g55_5.RAW', FMTDAT='(8E13.5)'
 TRAMP=1., VOLUME=1. $END
  3.09027E+05  1.11630E+02  3.38030E+05  2.50936E+05  8.44516E+04  3.38335E+05 -1.32873E+05  2.51552E+05
 -1.90907E+05  8.37219E+04 -1.13099E+05 -3.23340E+04  3.37267E+02 -5.04831E+04  5.40172E+04  1.91986E+02
  3.58140E+04  5.33660E+04 -1.63467E+04  7.58983E+04 -6.15975E+04  6.41295E+04 -8.43236E+04  3.32433E+04
 -8.20350E+04 -1.18349E+04 -5.78320E+04 -5.23522E+04 -1.49183E+04 -7.06411E+04  2.83484E+04 -4.59342E+04
  4.08770E+04  3.37464E+03  1.56565E+04  4.80107E+04 -3.47471E+04  4.74771E+04 -6.83581E+04  5.52644E+01
 -5.47146E+04 -5.76121E+04 -6.57105E+03 -7.83567E+04  3.45900E+04 -5.65582E+04  4.95045E+04 -1.81909E+04
  4.47381E+04  1.13611E+04  3.21715E+04  2.69414E+04  1.54558E+04  2.98762E+04 -6.26776E+03  2.72019E+04
 -2.27172E+04  1.17978E+04 -1.78256E+04 -5.37109E+03  6.37014E+03 -7.51692E+03  2.32947E+04  1.40645E+04
  7.32117E+03  3.68751E+04 -3.33839E+04  3.67281E+04 -6.66336E+04  2.18223E+03 -5.84960E+04 -4.36454E+04
 -1.26819E+04 -6.50240E+04  4.08395E+04 -4.70226E+04  6.01046E+04 -2.76812E+03  3.62781E+04  3.38786E+04
 -5.51586E+03  3.81551E+04 -3.12949E+04  1.85503E+04 -3.25944E+04 -4.49264E+03 -1.80465E+04 -1.22985E+04
 -8.67479E+03 -1.41043E+04 -4.12862E+02 -1.93144E+04  8.85527E+03 -2.43431E+04  1.57784E+04 -1.30460E+04
  1.16343E+04  5.79978E+03 -9.79213E+03  1.32044E+04 -2.27142E+04 -5.88671E+03 -8.37570E+03 -3.70932E+04
  2.49395E+04 -4.60647E+04  5.06373E+04 -2.04183E+04  4.80578E+04  2.04226E+04  1.59650E+04  4.64599E+04
 -1.67259E+04  3.53613E+04 -2.70378E+04  2.78903E+03 -1.13341E+04 -2.84887E+04  2.13369E+04 -3.62621E+04
  4.31968E+04 -1.04533E+04  3.90022E+04  2.43728E+04  2.06016E+04  5.00228E+04 -8.36196E+03  5.38736E+04
 -3.43993E+04  3.74335E+04 -4.62447E+04  1.01941E+04 -4.58358E+04 -1.81917E+04 -2.50609E+04 -4.11902E+04
  7.90551E+03 -4.04544E+04  3.33660E+04 -1.59459E+04  3.18195E+04  1.14277E+04  4.74600E+03  2.03327E+04
 -1.40327E+04  9.51629E+03 -1.16900E+04 -7.36068E+03  5.63946E+03 -1.10450E+04  1.83351E+04  5.54209E+03
  1.36809E+04  2.31936E+04 -5.52527E+03  2.66935E+04 -2.22317E+04  1.37011E+04 -3.03544E+04 -3.61818E+03
 -2.46806E+04 -1.90753E+04 -1.08331E+04 -2.40911E+04  4.23572E+03 -2.37914E+04  1.87317E+04 -2.21699E+04
  3.05294E+04 -1.37082E+04  3.70355E+04  4.59225E+03  2.61562E+04  2.37854E+04  4.18303E+03  4.02323E+04
 -1.90051E+04  3.30109E+04 -2.96910E+04  1.13516E+04 -2.17750E+04 -9.93286E+03 -4.46141E+03 -1.32270E+04
  9.58045E+02 -1.44118E+03 -6.96934E+03  8.46283E+03 -1.88273E+04  5.31400E+03 -1.85130E+04 -8.94417E+03
 -1.16108E+04 -2.21014E+04  5.77670E+03 -2.61331E+04  1.79328E+04 -1.92328E+04  2.12936E+04 -1.66888E+03
  1.33006E+04  1.52075E+04 -1.15610E+03  2.15948E+04 -1.58994E+04  1.26444E+04 -2.22472E+04 -4.35863E+03
 -1.60428E+04 -1.98114E+04 -1.74776E+03 -2.62935E+04  1.18901E+04 -2.15597E+04  2.20249E+04 -1.13851E+04
  2.03498E+04 -5.35082E+02  1.52751E+04  4.89868E+03  7.80809E+03  1.14583E+03  1.12910E+04 -1.47973E+03
  1.99082E+04  3.15712E+03  2.36497E+04  1.75879E+04  1.60652E+04  3.53652E+04 -2.07081E+03  4.21190E+04
 -2.49160E+04  3.36969E+04 -3.88873E+04  1.70867E+04 -4.12274E+04 -3.35281E+03 -3.31519E+04 -2.28682E+04
 -1.34405E+04 -3.46902E+04  1.22486E+04 -3.01615E+04  2.61701E+04 -1.42420E+04  2.23108E+04  6.77088E+03
  8.02131E+03  1.72251E+04 -1.12438E+04  1.41210E+04 -1.95939E+04  2.58565E+03 -1.43750E+04 -1.19165E+04
  1.18799E+02 -1.81778E+04  9.70245E+03 -1.35507E+04  1.25302E+04 -1.39735E+03  2.94278E+03  8.10975E+03
 -7.74194E+03  3.72467E+03 -8.48383E+03 -6.73412E+03 -1.05275E+03 -1.65402E+04  1.15198E+04 -1.77749E+04
  2.10257E+04 -1.00285E+04  2.30684E+04  2.66433E+03  2.06421E+04  1.66121E+04  9.88490E+03  2.58028E+04
 -4.19294E+03  2.74462E+04 -1.77704E+04  1.80543E+04 -2.05247E+04  4.42309E+03 -1.46171E+04 -4.97897E+03
 -6.58868E+03 -6.32348E+03 -9.08652E+02  9.42171E+02 -2.45716E+03  3.14451E+03 -6.19950E+03  5.25201E+03
 -1.19757E+04 -6.27057E+02 -1.39633E+04 -1.11512E+04 -5.54381E+03 -1.73283E+04  5.62774E+03 -1.45069E+04
  1.13689E+04 -5.85609E+03  8.87499E+03  3.89623E+03  1.86694E+02  6.31048E+03 -7.07503E+03  3.14639E+02
 -6.52334E+03 -8.53713E+03 -1.54713E+03 -1.36877E+04  8.21018E+03 -1.50218E+04  1.83375E+04 -7.30624E+03
  2.10583E+04  2.07152E+03  1.55113E+04  1.24936E+04  3.21011E+03  1.77804E+04 -8.63659E+03  1.35957E+04
 -1.19643E+04  3.90688E+03 -6.06082E+03 -3.01890E+03  2.82984E+03 -3.70211E+03  7.54956E+03 -2.33899E+02
  7.60995E+03  6.64435E+03  1.04251E+03  1.19748E+04 -6.82064E+03  1.11720E+04 -1.43128E+04  2.33688E+03
 -9.48028E+03 -6.78334E+03 -2.49235E+02 -1.27342E+04  7.38241E+03 -6.02024E+03  7.82219E+03  3.25958E+03
  1.78326E+03  8.63544E+03 -7.05878E+03  1.06329E+04 -1.23769E+04  4.24685E+03 -1.20474E+04 -4.70343E+03
 -7.22952E+03 -1.32816E+04  3.73832E+03 -1.58694E+04  1.38674E+04 -8.87341E+03  1.48389E+04  1.11319E+03
  8.62966E+03  1.19810E+04 -1.65085E+03  1.37768E+04 -1.05257E+04  7.54448E+03 -1.15573E+04 -1.12394E+03
 -9.22605E+03 -9.45547E+03 -2.21534E+03 -1.02772E+04  4.68064E+03 -8.42923E+03  6.74900E+03 -3.57725E+03
  4.55706E+03  2.02150E+03 -3.03031E+02  1.81359E+03 -6.78629E+02 -2.82701E+03  2.17792E+03 -6.56034E+03
  9.86280E+03 -3.95183E+03  1.36958E+04  1.52275E+03  1.29575E+04  9.24256E+03  8.73358E+03  1.77480E+04
 -4.08804E+03  1.91819E+04 -1.69731E+04  1.52404E+04 -2.23329E+04  2.30162E+03 -1.78802E+04 -7.59823E+03
 -9.73983E+03 -1.54926E+04  5.43697E+01 -1.18040E+04  4.31889E+03 -6.81596E+03  4.26257E+03 -5.10886E+03
  2.68423E+03 -2.71653E+03  3.36276E+03 -3.74367E+03  5.37783E+03 -2.65736E+03  6.45859E+03 -9.11113E+02
  1.01755E+04  1.95799E+03  4.97913E+03  7.92790E+03 -2.24789E+03  9.74910E+03 -9.70929E+03  7.79210E+03
 -1.29522E+04 -8.50165E+02 -8.04311E+03 -8.69841E+03 -9.22968E+02 -1.41275E+04  7.66185E+03 -1.32690E+04
  1.32246E+04 -7.13945E+03  1.69632E+04  1.88571E+03  1.16130E+04  1.14933E+04  2.22708E+03  1.43002E+04
 -6.08639E+03  1.26356E+04 -8.70640E+03  4.66367E+03 -5.49303E+03 -1.68046E+03 -1.98899E+03 -2.39073E+03
 -1.09130E+03 -3.65788E+02 -1.86985E+03  2.55320E+03 -5.18149E+03  2.05414E+03 -9.22589E+03 -6.95107E+02
 -5.64733E+03 -8.23304E+03  4.46655E+02 -1.24812E+04  8.11416E+03 -1.11514E+04  1.12643E+04 -3.36551E+03
  1.21772E+04  5.62851E+03  5.29859E+03  1.01285E+04 -3.56204E+03  1.19769E+04 -8.45060E+03  7.78446E+03
 -1.10729E+04  6.51635E+02 -8.40090E+03 -6.95177E+03 -1.12507E+03 -9.99470E+03  5.51858E+03 -7.22924E+03
  7.20348E+03 -1.98661E+03  5.04518E+03  2.39757E+03  1.99533E+03  4.22142E+03  1.93930E+03  8.80880E+02
  3.00867E+03  1.19961E+03  2.95998E+03  1.66115E+03  3.13913E+03  3.22884E+03  2.58880E+03  6.58466E+03
 -2.93783E+03  9.87757E+03 -9.05555E+03  9.90399E+03 -1.24082E+04  2.97869E+03 -1.34167E+04 -5.28480E+03
 -5.57431E+03 -1.20281E+04  1.89206E+03 -1.32034E+04  7.50080E+03 -9.26227E+03  9.52915E+03 -1.73096E+03
  7.90164E+03  4.58034E+03  2.23065E+03  7.35407E+03 -3.76978E+03  4.33244E+03 -4.50089E+03 -4.19239E+02
 -2.65524E+03 -5.14913E+03  2.50137E+03 -5.68878E+03  5.16106E+03 -3.21380E+03  4.48160E+03  1.35588E+03
  2.44807E+03  2.50813E+03  7.23514E+02  2.17740E+03 -6.65031E+02  1.77173E+03  1.51542E+03  1.50077E+02
  1.22424E+03 -1.21506E+03  4.47165E+03  1.55546E+03  2.81132E+03  6.35534E+03 -2.82135E+02  8.52400E+03
 -5.84373E+03  5.20317E+03 -7.57685E+03  1.56009E+03 -6.82778E+03 -3.70912E+03 -1.88689E+03 -4.46663E+03
  1.07003E+03 -4.11814E+03  3.32876E+03 -2.28058E+03  2.49408E+03  1.92905E+03 -1.68658E+03  4.11497E+03
 -4.61129E+03  1.71583E+03 -6.57637E+03 -2.97300E+03 -3.06390E+03 -7.03197E+03  8.03765E+02 -7.31644E+03
  3.34519E+03 -3.12081E+03  4.29809E+03  1.07225E+02  3.58520E+03  1.59882E+03  1.00755E+03  3.53603E+03
 -2.87003E+03  3.58924E+02 -3.11467E+03 -2.16205E+03  1.00859E+03 -4.51580E+03  5.75915E+03 -4.14853E+03
  7.81087E+03  2.89250E+02  7.23974E+03  4.34322E+03  2.77171E+03  7.71695E+03 -2.59036E+03  7.37627E+03
 -5.15103E+03  3.77926E+03 -5.89208E+03 -5.92743E+02 -3.50917E+03 -4.77422E+03  1.06978E+03 -3.84287E+03
  4.26956E+03 -2.03574E+03  4.05816E+03  2.09151E+03  1.90631E+03  4.28851E+03 -1.09288E+02  3.46558E+03
 -2.32878E+03  2.39146E+03 -1.95415E+03  9.73594E+02 -8.91665E+02  4.93295E+02 -1.64264E+03  1.02747E+03
 -2.03754E+03  3.18540E+03 -5.05666E+03  3.46068E+03 -7.67281E+03  3.11534E+02 -8.81082E+03 -4.53453E+03
 -4.53300E+03 -9.99675E+03  2.07708E+03 -1.17811E+04  6.69022E+03 -8.58696E+03  1.09236E+04 -3.53080E+03
  1.00889E+04  1.70357E+03  6.46968E+03  7.33104E+03  5.46867E+00  7.74095E+03 -3.17477E+03  5.57330E+03
 -4.11022E+03  2.03199E+03 -2.95819E+03 -9.62810E+02 -1.14653E+03 -4.87831E+02 -9.36905E+02 -7.83906E+02
 -1.10738E+03  4.10016E+02 -2.00471E+03 -4.05241E+02 -8.16821E+01 -2.02043E+03  1.20168E+03 -2.51409E+03
  3.35289E+03 -2.76226E+03  4.82875E+03 -2.96873E+01  5.50855E+03  4.41285E+03  1.62700E+03  7.62625E+03
 -3.95764E+03  8.26685E+03 -7.91797E+03  5.78180E+03 -8.89639E+03 -3.25507E+02 -6.59396E+03 -5.87321E+03
 -2.92139E+03 -7.41663E+03  1.95906E+03 -6.40173E+03  4.68934E+03 -4.31646E+03  4.86140E+03 -1.25771E+01
  2.82281E+03  2.49113E+03 -5.53815E+02  1.73820E+03 -1.13249E+03 -5.49826E+01  4.58666E+02 -1.63472E+03
  2.63244E+03 -6.48565E+02  3.08324E+03  1.46635E+03  1.82349E+03  2.48310E+03 -1.05782E+02  3.24782E+03
 -3.29756E+03  4.29509E+03 -5.14793E+03  4.58537E+02 -4.40021E+03 -3.06553E+03 -5.90502E+02 -6.42598E+03
  3.02305E+03 -4.43725E+03  4.87480E+03 -8.75191E+02  4.96748E+03  1.78424E+03  3.49005E+03  4.22777E+03
  7.15833E+02  4.03218E+03 -1.65758E+03  4.02657E+03 -2.80144E+03  1.38526E+03 -2.46515E+03  5.19448E+02
 -1.54870E+03 -6.12411E+02 -1.42203E+03  7.71817E+02 -2.99465E+03  1.12992E+03 -3.10254E+03 -8.25366E+02
 -4.39070E+03 -2.51522E+03 -4.71588E+02 -4.17371E+03  2.55271E+03 -5.27807E+03  4.01289E+03 -2.14409E+03
  4.33591E+03  3.18562E+02  1.89260E+03  3.28651E+03 -5.22758E+02  4.77111E+03 -2.98121E+03  3.54189E+03
