 $NMID ID='MM_0lb_SNR400_16hz_g45_16.RAW', FMTDAT='(8E13.5)'
 TRAMP=1., VOLUME=1. $END
  3.09641E+05  3.72790E+02  3.36961E+05  2.50661E+05  8.45247E+04  3.37761E+05 -1.32437E+05  2.50956E+05
 -1.90174E+05  8.28017E+04 -1.11226E+05 -3.25644E+04  1.25294E+03 -5.02893E+04  5.39649E+04 -6.42495E+02
  3.47723E+04  5.27729E+04 -1.68611E+04  7.49236E+04 -6.06111E+04  6.23893E+04 -8.34536E+04  3.16281E+04
 -8.05953E+04 -1.12867E+04 -5.61743E+04 -5.05287E+04 -1.52545E+04 -6.93668E+04  2.74993E+04 -4.53792E+04
  3.95527E+04  3.84032E+03  1.50035E+04  4.73863E+04 -3.40888E+04  4.64468E+04 -6.57305E+04 -3.15804E+02
 -5.27178E+04 -5.63171E+04 -6.06879E+03 -7.65035E+04  3.35942E+04 -5.35265E+04  4.69539E+04 -1.64064E+04
  4.25362E+04  1.13341E+04  3.18303E+04  2.48789E+04  1.55766E+04  2.88573E+04 -4.63816E+03  2.68087E+04
 -2.19737E+04  1.26729E+04 -1.86846E+04 -4.58213E+03  4.97526E+03 -7.40912E+03  2.16197E+04  1.19383E+04
  7.37506E+03  3.41483E+04 -3.12578E+04  3.45951E+04 -6.24090E+04  2.27550E+03 -5.62183E+04 -4.16459E+04
 -1.26139E+04 -6.20406E+04  3.93779E+04 -4.43872E+04  5.70009E+04 -1.96237E+03  3.29535E+04  3.07509E+04
 -6.91161E+03  3.42583E+04 -2.93424E+04  1.44518E+04 -2.88708E+04 -4.76811E+03 -1.53225E+04 -1.08343E+04
 -7.73104E+03 -1.24717E+04 -4.99344E+02 -1.73005E+04  6.91198E+03 -2.27989E+04  1.50501E+04 -1.39059E+04
  1.15025E+04  4.46537E+03 -7.01887E+03  1.34580E+04 -1.99192E+04 -3.91263E+03 -8.40877E+03 -3.17021E+04
  2.18881E+04 -4.16053E+04  4.63906E+04 -1.90189E+04  4.34708E+04  1.86928E+04  1.46809E+04  4.29851E+04
 -1.55650E+04  3.21289E+04 -2.42954E+04  1.24017E+03 -9.18813E+03 -2.68945E+04  2.08884E+04 -3.22397E+04
  3.97124E+04 -8.06812E+03  3.34540E+04  2.34030E+04  1.61068E+04  4.37553E+04 -8.12336E+03  4.72548E+04
 -2.99774E+04  3.19622E+04 -3.93252E+04  8.63683E+03 -4.02473E+04 -1.56315E+04 -2.25679E+04 -3.59194E+04
  7.83045E+03 -3.56649E+04  3.07201E+04 -1.38110E+04  2.78971E+04  1.08722E+04  3.80722E+03  1.84508E+04
 -1.38606E+04  7.53281E+03 -1.04664E+04 -7.61160E+03  6.52031E+03 -1.03954E+04  1.74951E+04  6.41115E+03
  1.24287E+04  2.19883E+04 -6.93738E+03  2.44982E+04 -2.19366E+04  1.01839E+04 -2.63297E+04 -5.50703E+03
 -1.83931E+04 -1.65872E+04 -7.24621E+03 -1.80575E+04  4.01216E+03 -1.75016E+04  1.40697E+04 -1.62674E+04
  2.33491E+04 -1.23289E+04  3.01379E+04  1.70164E+03  2.22541E+04  1.87677E+04  4.18054E+03  3.40133E+04
 -1.74156E+04  2.91708E+04 -2.72180E+04  9.86328E+03 -1.98240E+04 -1.02527E+04 -3.36655E+03 -1.41877E+04
  2.41233E+03 -3.40600E+03 -3.10316E+03  6.56000E+03 -1.52246E+04  5.49617E+03 -1.50992E+04 -5.68296E+03
 -9.78522E+03 -1.71316E+04  5.05880E+03 -2.11469E+04  1.38256E+04 -1.54763E+04  1.67536E+04 -1.81287E+03
  1.04158E+04  1.18979E+04 -6.28197E+02  1.67856E+04 -1.13793E+04  9.93283E+03 -1.71894E+04 -2.88321E+03
 -1.24065E+04 -1.53763E+04 -1.91232E+03 -2.06272E+04  9.33417E+03 -1.66587E+04  1.76004E+04 -8.53079E+03
  1.57850E+04  7.88216E+02  1.11862E+04  3.83090E+03  5.97244E+03  2.51605E+02  8.19167E+03 -1.87728E+03
  1.54123E+04  2.86927E+03  1.70205E+04  1.34810E+04  1.06968E+04  2.80167E+04 -2.94178E+03  3.04238E+04
 -1.78142E+04  2.35881E+04 -2.78470E+04  1.13741E+04 -2.89974E+04 -2.50423E+03 -2.45103E+04 -1.69985E+04
 -1.03400E+04 -2.35481E+04  8.08594E+03 -2.18663E+04  1.90432E+04 -1.15567E+04  1.73300E+04  4.52998E+03
  7.00653E+03  1.23520E+04 -7.46455E+03  1.11123E+04 -1.46536E+04  3.50212E+03 -1.18335E+04 -9.75290E+03
 -2.80287E+02 -1.37867E+04  7.58262E+03 -1.06401E+04  8.45290E+03 -1.38856E+03  1.93543E+03  5.95654E+03
 -6.20303E+03  2.05360E+03 -5.19390E+03 -5.30005E+03 -9.17679E+01 -1.10714E+04  8.34529E+03 -1.18803E+04
  1.41489E+04 -5.88743E+03  1.51407E+04  3.06368E+03  1.27010E+04  1.10850E+04  5.96880E+03  1.66506E+04
 -2.44637E+03  1.91072E+04 -1.13393E+04  1.17974E+04 -1.38940E+04  3.07510E+03 -1.01939E+04 -2.39725E+03
 -4.66428E+03 -3.96104E+03 -1.00078E+03  1.53651E+03 -2.63386E+03  2.62359E+03 -4.55129E+03  3.99661E+03
 -9.63031E+03 -1.69760E+02 -9.95153E+03 -8.03544E+03 -3.76188E+03 -1.30567E+04  4.01814E+03 -1.00398E+04
  8.58954E+03 -4.25874E+03  5.86143E+03  2.52063E+03  5.89149E+01  3.85543E+03 -4.21152E+03 -1.68862E+02
 -4.56168E+03 -6.08952E+03 -1.10299E+03 -8.36506E+03  4.43188E+03 -9.52071E+03  1.17287E+04 -4.49708E+03
  1.40030E+04  1.20036E+03  1.05937E+04  7.83770E+03  2.13339E+03  1.03548E+04 -5.70963E+03  9.36916E+03
 -7.75514E+03  3.03048E+03 -3.77376E+03 -2.12027E+03  1.21242E+03 -3.07554E+03  4.72087E+03 -3.49590E+02
  4.64082E+03  4.27463E+03  1.26577E+03  7.74872E+03 -5.09756E+03  7.68150E+03 -9.53243E+03  2.02659E+03
 -6.24055E+03 -4.64108E+03  1.79692E+02 -8.36699E+03  5.16738E+03 -4.49094E+03  4.09701E+03  1.66308E+03
  5.11708E+02  4.66418E+03 -5.19427E+03  5.59804E+03 -6.35240E+03  2.86297E+03 -6.36698E+03 -2.23531E+03
 -3.82114E+03 -8.22722E+03  1.52047E+03 -8.90097E+03  7.44378E+03 -5.64020E+03  7.71195E+03  1.31195E+03
  5.82915E+03  6.90552E+03 -1.37755E+02  9.06122E+03 -6.08762E+03  5.04168E+03 -6.33348E+03 -2.92860E+01
 -6.81454E+03 -6.33234E+03 -1.52157E+03 -6.16224E+03  3.24152E+03 -5.68545E+03  3.73313E+03 -3.25549E+03
  3.28562E+03  2.75942E+02 -3.53359E+02  1.45381E+03  7.61639E+02 -6.20960E+02  6.35980E+02 -2.63017E+03
  5.39879E+03 -1.84958E+03  7.00354E+03  1.02073E+03  7.06050E+03  4.68671E+03  6.85684E+03  9.60423E+03
 -2.01456E+03  1.10047E+04 -9.61390E+03  8.18723E+03 -1.32366E+04  1.51044E+03 -9.87505E+03 -3.73505E+03
 -5.28006E+03 -8.03689E+03  4.16699E+01 -6.55350E+03  3.02628E+03 -3.58666E+03  2.28551E+03 -2.61839E+03
  1.35980E+03 -1.43112E+03  2.92294E+03 -2.33309E+03  4.11586E+03 -1.75082E+03  4.51578E+03  9.50116E+01
  6.05265E+03  9.58296E+02  1.78172E+03  4.30036E+03 -1.84737E+03  4.32499E+03 -5.81099E+03  3.28783E+03
 -6.43399E+03 -1.00659E+03 -2.65858E+03 -4.71092E+03  1.03214E+02 -6.94369E+03  4.71151E+03 -7.51949E+03
  6.89561E+03 -3.94341E+03  9.01010E+03  4.54192E+02  6.34806E+03  5.95868E+03  1.30611E+03  7.74998E+03
 -3.42942E+03  7.06833E+03 -4.24220E+03  1.97959E+03 -2.97937E+03 -1.35248E+03 -8.80389E+02 -1.05882E+03
 -8.42596E+02  2.19181E+02 -1.63517E+03  1.99810E+03 -3.32609E+03  1.14046E+03 -4.63760E+03 -3.09551E+02
 -2.32180E+03 -5.31986E+03  5.94310E+02 -6.03559E+03  3.84441E+03 -5.66608E+03  5.62608E+03 -1.00665E+03
  5.97453E+03  3.25074E+03  2.37395E+03  4.45726E+03 -1.06052E+03  6.15045E+03 -3.66441E+03  4.33781E+03
 -5.10561E+03  9.26312E+02 -4.97733E+03 -3.86280E+03 -1.74762E+02 -4.13496E+03  2.38279E+03 -3.87638E+03
  3.27533E+03 -1.84479E+03  2.39625E+03  8.30584E+02  7.34925E+02  2.36833E+03  1.00772E+03  6.09367E+02
  2.15912E+03  7.87074E+02  8.80977E+02  7.58094E+02  1.41397E+03  2.86349E+03  1.92076E+03  2.79865E+03
 -1.62452E+03  4.67244E+03 -3.88240E+03  4.94685E+03 -4.53750E+03  1.69812E+03 -6.21471E+03 -1.05034E+03
 -2.43946E+03 -5.20981E+03  1.31371E+03 -6.09923E+03  3.04377E+03 -4.07835E+03  4.33562E+03 -1.48555E+03
  3.00335E+03  2.33514E+03  4.52884E+02  3.54952E+03 -9.03413E+02  1.58940E+03 -1.50979E+03 -2.45429E+02
 -7.89216E+02 -2.63922E+03  1.34906E+03 -2.12180E+03  1.95265E+03 -9.66779E+02  2.16750E+03  9.61060E+02
  8.35976E+02  1.97004E+02  6.95490E+02  3.04953E+02  2.40995E+01  9.16735E+02  9.44520E+02 -4.33814E+02
  5.23774E+02 -2.89563E+01  2.20333E+03  1.13325E+03  9.09515E+02  3.11204E+03 -4.03014E+02  3.98272E+03
 -2.87420E+03  2.01144E+03 -3.17996E+03  5.34430E+02 -3.36993E+03 -1.17699E+03 -4.71137E+02 -1.95460E+03
  8.76472E+02 -1.96316E+03  9.48668E+02 -9.01803E+02  6.70092E+02  1.47880E+03 -1.04236E+03  1.95069E+03
 -1.96664E+03  1.20457E+03 -2.22669E+03 -1.38805E+03 -9.39563E+02 -2.67910E+03  6.93084E+02 -2.03008E+03
  1.46186E+03 -1.04044E+03  1.73032E+03  2.19435E+02  1.53985E+03  4.62775E+02  2.64883E+02  1.48413E+03
 -8.69419E+02  6.22403E+02 -1.70043E+03 -5.51710E+02  8.80684E+02 -1.98390E+03  2.10173E+03 -1.56738E+03
  2.65978E+03  2.30078E+02  3.63495E+03  2.08055E+03  1.54839E+03  2.69807E+03 -7.06108E+02  2.84466E+03
 -2.36893E+03  1.17211E+03 -2.08532E+03 -2.89249E+02 -1.23321E+03 -2.23277E+03  1.60689E+02 -1.40992E+03
  1.81862E+03 -3.76517E+02  1.75739E+03  9.35110E+02  1.27277E+02  1.83344E+03  7.90193E+01  1.81176E+03
 -1.44020E+03  1.68346E+03 -1.19231E+03  3.74222E+02  2.13344E+02  4.00751E+02 -1.52952E+03  4.63793E+02
 -4.45612E+02  1.49077E+03 -2.73977E+03  8.24115E+02 -2.70647E+03  3.14567E+02 -3.78639E+03 -1.77195E+03
 -1.47801E+03 -3.60055E+03  1.38887E+03 -4.52967E+03  2.23882E+03 -3.50491E+03  3.89861E+03 -1.79226E+03
  3.53984E+03  2.90927E+02  1.98466E+03  2.42180E+03 -4.98457E+02  2.98078E+03 -1.33419E+03  1.44561E+03
 -1.36225E+03  1.30894E+03 -7.54651E+02 -5.29523E+01 -4.55750E+02  2.74622E+02 -7.27707E+02 -5.93817E+02
 -1.35942E+03 -6.40868E+02 -1.01892E+03 -1.97690E+02 -8.67937E+02 -1.24845E+03 -2.56147E+02 -9.79352E+02
  1.19589E+03 -9.85164E+02  1.49155E+03  8.43924E+02  1.31724E+03  1.37302E+03 -3.38574E+02  2.85136E+03
 -1.56421E+03  3.47609E+03 -2.73527E+03  1.90794E+03 -2.91352E+03  2.46030E+01 -2.66583E+03 -1.41071E+03
 -1.38628E+03 -2.83466E+03  3.51451E+02 -2.50213E+03  1.14422E+03 -1.09804E+03  9.94872E+02 -4.04180E+01
  7.81476E+02  4.89002E+02 -4.23276E+02  1.07872E+03 -3.72172E+02  3.55974E+02 -2.12079E+02 -3.82503E+02
  5.42772E+02  8.05850E+01  7.72056E+02  5.04952E+02  2.38573E+02  1.01682E+03  1.44194E+02  1.35370E+03
 -9.23533E+02  1.30529E+03 -1.83415E+03  2.52834E+01 -1.14229E+03 -5.10847E+02 -3.50772E+01 -2.07948E+03
  8.12101E+02 -1.39478E+03  1.59982E+03  2.12089E+02  2.02126E+03 -1.53623E+02  8.21706E+02  1.38800E+03
  7.02853E+02  1.23340E+03 -8.86036E+02  9.02907E+02 -1.46229E+03  6.28405E+02 -8.77684E+02  2.45414E+02
  3.59596E+02 -5.20429E+02 -7.12179E+02  7.05312E+01 -8.37297E+02 -3.31286E+01 -5.68454E+02 -5.84089E+02
 -1.32138E+03 -1.83690E+02 -2.62934E+02 -1.73976E+03  1.20791E+03 -1.68089E+03  1.07968E+03 -7.63687E+02
  1.71839E+03  5.85331E+02  1.32102E+02  1.02411E+03 -1.39975E+02  1.62093E+03 -9.62109E+02  7.90977E+02
