 $NMID ID='MM_0lb_SNR400_17hz_g50_19.RAW', FMTDAT='(8E13.5)'
 TRAMP=1., VOLUME=1. $END
  3.09454E+05  4.20743E+02  3.37223E+05  2.50286E+05  8.51201E+04  3.37847E+05 -1.32181E+05  2.51151E+05
 -1.90269E+05  8.26749E+04 -1.11366E+05 -3.26245E+04  1.39572E+03 -5.05634E+04  5.36852E+04  2.71175E+02
  3.53581E+04  5.32931E+04 -1.65693E+04  7.48446E+04 -6.06223E+04  6.26272E+04 -8.32835E+04  3.20937E+04
 -8.08620E+04 -1.11344E+04 -5.71319E+04 -5.10651E+04 -1.56640E+04 -6.95226E+04  2.71829E+04 -4.51408E+04
  3.92871E+04  3.49291E+03  1.57986E+04  4.71488E+04 -3.43714E+04  4.73665E+04 -6.61177E+04 -1.05201E+01
 -5.30615E+04 -5.65962E+04 -6.68065E+03 -7.56035E+04  3.28962E+04 -5.40924E+04  4.72836E+04 -1.72040E+04
  4.20847E+04  1.15277E+04  3.10612E+04  2.48673E+04  1.66398E+04  2.90273E+04 -4.92845E+03  2.71784E+04
 -2.22167E+04  1.24085E+04 -1.90700E+04 -4.79295E+03  4.59362E+03 -7.48700E+03  2.18322E+04  1.15159E+04
  8.22099E+03  3.41846E+04 -3.10947E+04  3.42089E+04 -6.19675E+04  1.54220E+03 -5.62441E+04 -4.20129E+04
 -1.26863E+04 -6.26678E+04  3.91593E+04 -4.39438E+04  5.65476E+04 -1.78100E+03  3.27735E+04  3.08282E+04
 -6.32680E+03  3.45903E+04 -2.89231E+04  1.41372E+04 -2.86066E+04 -4.44118E+03 -1.53235E+04 -1.09331E+04
 -8.17231E+03 -1.19065E+04 -7.52959E+02 -1.74503E+04  7.21925E+03 -2.30172E+04  1.45118E+04 -1.42227E+04
  1.22339E+04  5.03580E+03 -6.81384E+03  1.32168E+04 -2.00717E+04 -2.47042E+03 -8.55024E+03 -3.17242E+04
  2.16696E+04 -4.16591E+04  4.58432E+04 -1.91724E+04  4.33257E+04  1.87168E+04  1.49410E+04  4.26312E+04
 -1.56222E+04  3.16664E+04 -2.45207E+04  1.52221E+03 -8.43792E+03 -2.68468E+04  2.12743E+04 -3.22561E+04
  3.92325E+04 -7.32668E+03  3.36245E+04  2.34447E+04  1.61140E+04  4.43421E+04 -7.62352E+03  4.73683E+04
 -2.97649E+04  3.14850E+04 -3.93651E+04  9.16529E+03 -4.02857E+04 -1.62370E+04 -2.20228E+04 -3.59511E+04
  6.99887E+03 -3.56006E+04  2.94269E+04 -1.37855E+04  2.72470E+04  1.10275E+04  3.57812E+03  1.83018E+04
 -1.34599E+04  8.16665E+03 -1.00945E+04 -8.03950E+03  5.22602E+03 -1.02971E+04  1.74993E+04  6.38186E+03
  1.25678E+04  2.16272E+04 -5.68476E+03  2.43972E+04 -2.20317E+04  1.04541E+04 -2.63222E+04 -5.87840E+03
 -1.84840E+04 -1.71839E+04 -6.56624E+03 -1.81261E+04  3.53115E+03 -1.66151E+04  1.34434E+04 -1.57540E+04
  2.28700E+04 -1.19938E+04  2.95383E+04  1.94745E+03  2.20730E+04  1.81136E+04  4.65204E+03  3.41872E+04
 -1.62527E+04  2.92646E+04 -2.60741E+04  1.02321E+04 -2.02434E+04 -1.06518E+04 -4.56562E+03 -1.34147E+04
  2.64173E+03 -3.47290E+03 -4.13475E+03  5.38627E+03 -1.35510E+04  4.88305E+03 -1.46712E+04 -5.60391E+03
 -9.10046E+03 -1.72744E+04  5.14914E+03 -2.05464E+04  1.38650E+04 -1.50059E+04  1.63917E+04 -1.53064E+03
  1.04259E+04  1.20695E+04 -1.13628E+03  1.74255E+04 -1.13584E+04  9.76643E+03 -1.71192E+04 -3.73567E+03
 -1.27001E+04 -1.56678E+04 -1.86107E+03 -2.10493E+04  9.53782E+03 -1.62951E+04  1.75348E+04 -7.96099E+03
  1.59315E+04 -4.91095E+01  1.15305E+04  4.58464E+03  5.66585E+03  5.16961E+02  8.49358E+03 -1.05587E+03
  1.54374E+04  2.24119E+03  1.67733E+04  1.37254E+04  1.09413E+04  2.66477E+04 -2.60506E+03  2.98082E+04
 -1.78240E+04  2.31257E+04 -2.72869E+04  1.08829E+04 -2.80554E+04 -1.74450E+03 -2.37764E+04 -1.57869E+04
 -1.06557E+04 -2.29930E+04  7.73335E+03 -2.17180E+04  1.84083E+04 -1.16209E+04  1.68057E+04  4.44460E+03
  6.93834E+03  1.24586E+04 -7.81669E+03  1.09836E+04 -1.45549E+04  2.75985E+03 -1.03949E+04 -8.53141E+03
  3.14258E+02 -1.35492E+04  6.32676E+03 -1.06682E+04  8.90675E+03 -1.28910E+03  1.99502E+03  5.60616E+03
 -5.87429E+03  1.85601E+03 -4.47796E+03 -5.03331E+03  5.85051E+02 -1.14454E+04  8.73676E+03 -1.15988E+04
  1.38517E+04 -5.70710E+03  1.43900E+04  2.99251E+03  1.17561E+04  1.04880E+04  5.57865E+03  1.60440E+04
 -1.64827E+03  1.81547E+04 -1.18562E+04  1.15650E+04 -1.25695E+04  4.15988E+03 -9.53438E+03 -2.74835E+03
 -4.59982E+03 -3.56853E+03 -1.49110E+03  1.89606E+03 -1.81355E+03  2.10036E+03 -4.11731E+03  3.82884E+03
 -8.83978E+03 -4.08993E+02 -9.65179E+03 -8.24497E+03 -3.79827E+03 -1.23342E+04  4.24344E+03 -1.00236E+04
  8.22293E+03 -4.14558E+03  5.71686E+03  2.21531E+03  3.65349E+02  3.80226E+03 -3.61785E+03 -5.60565E+02
 -4.25896E+03 -6.11779E+03 -7.75953E+02 -7.99138E+03  4.85969E+03 -9.04837E+03  1.15169E+04 -4.59966E+03
  1.33923E+04  4.30799E+02  1.04466E+04  7.29566E+03  1.82515E+03  1.04073E+04 -5.69337E+03  9.66488E+03
 -7.39749E+03  2.73531E+03 -4.06342E+03 -1.62671E+03  2.42318E+03 -2.26031E+03  5.13252E+03 -5.92665E+02
  4.73500E+03  4.09671E+03  1.06848E+03  6.85303E+03 -5.60558E+03  7.19716E+03 -8.98089E+03  1.95030E+03
 -5.26519E+03 -4.47568E+03  3.89467E+02 -7.13714E+03  4.45054E+03 -3.88932E+03  5.05097E+03  1.52534E+03
  6.93186E+02  4.33280E+03 -4.71908E+03  5.42858E+03 -5.51136E+03  2.70535E+03 -5.23883E+03 -1.42112E+03
 -3.76331E+03 -7.07262E+03  1.13536E+03 -7.68018E+03  6.94822E+03 -5.48246E+03  7.77461E+03  1.03692E+03
  5.07520E+03  6.47009E+03  1.46653E+01  8.24523E+03 -5.51656E+03  4.60674E+03 -5.72472E+03 -5.33233E+02
 -7.14379E+03 -6.17857E+03 -1.75494E+03 -5.72317E+03  3.26076E+03 -5.29882E+03  3.57456E+03 -3.36041E+03
  2.83373E+03  4.96776E+02 -1.52786E+02  9.20763E+02  2.34474E+02 -4.30976E+01  6.80795E+02 -2.47881E+03
  4.88155E+03 -1.24677E+03  7.10142E+03  3.65494E+02  7.24175E+03  4.00655E+03  5.55659E+03  8.64592E+03
 -1.79197E+03  1.02663E+04 -8.94127E+03  7.19901E+03 -1.22285E+04  1.77224E+03 -9.84616E+03 -3.19667E+03
 -4.97566E+03 -7.73578E+03 -5.30208E+02 -5.73113E+03  2.83731E+03 -2.84569E+03  2.24981E+03 -2.53442E+03
  1.87994E+03 -1.53045E+03  3.15072E+03 -3.26158E+03  3.72138E+03 -1.56507E+03  4.09768E+03 -2.75609E+01
  4.47107E+03  1.17753E+03  1.21658E+03  3.91984E+03 -1.95468E+03  3.90645E+03 -5.47682E+03  2.96050E+03
 -6.38323E+03 -9.51738E+02 -2.99185E+03 -3.94294E+03  2.29934E+02 -5.47250E+03  3.39200E+03 -6.94571E+03
  6.04584E+03 -3.65064E+03  7.99579E+03  5.16752E+02  5.81759E+03  5.33562E+03  1.46994E+03  7.05219E+03
 -2.80855E+03  6.80256E+03 -4.17594E+03  2.55563E+03 -2.71409E+03 -1.12119E+03 -1.21594E+03 -1.14549E+03
 -5.85547E+02  3.05970E+02 -6.42463E+02  1.75776E+03 -2.97004E+03  1.66231E+03 -4.82317E+03  1.56630E+02
 -1.87678E+03 -4.57742E+03  6.42968E+02 -5.76459E+03  3.02608E+03 -5.33615E+03  4.04644E+03 -1.94604E+03
  5.54636E+03  2.54204E+03  2.51208E+03  3.76068E+03 -8.31700E+02  5.19374E+03 -3.84151E+03  3.33450E+03
 -4.62912E+03  6.62996E+02 -4.25426E+03 -3.17064E+03 -5.62149E+02 -4.32815E+03  2.16468E+03 -3.07482E+03
  3.57893E+03 -1.05944E+03  2.08445E+03  5.68087E+02  9.18939E+02  2.43791E+03  1.02118E+03  5.51037E+02
  1.53234E+03  5.35813E+02  1.50674E+03  7.69022E+02  1.77865E+03  2.47775E+03  1.98660E+03  2.53984E+03
 -1.24111E+03  3.17752E+03 -3.03086E+03  4.45644E+03 -4.06790E+03  1.17349E+03 -5.19322E+03 -1.20497E+03
 -3.05974E+03 -4.90423E+03  6.09588E+02 -6.02989E+03  2.25463E+03 -3.40117E+03  3.90865E+03 -7.40054E+02
  3.01688E+03  2.05358E+03  1.02907E+02  2.96952E+03 -1.32375E+03  1.25053E+03 -9.56372E+02 -1.40842E+02
 -1.03436E+03 -2.01658E+03  1.86961E+03 -2.56992E+03  1.63209E+03 -1.69227E+03  1.85367E+03  3.30021E+02
  1.00923E+03  4.57672E+02  1.00355E+03 -3.37972E+02 -5.41628E+02  1.00015E+03  1.46205E+03 -2.72992E+02
  3.91210E+02  7.97649E+01  2.15185E+03  1.21497E+03  3.62439E+02  2.85618E+03 -2.60977E+02  4.03707E+03
 -1.62086E+03  1.00379E+03 -2.39855E+03  7.68293E+02 -2.87786E+03 -9.10185E+02 -7.34988E+02 -1.85680E+03
  4.84707E+01 -1.29959E+03  1.27510E+03 -9.84452E+02  1.05319E+03  1.80674E+03 -6.05452E+02  1.26725E+03
 -2.09624E+03  5.50680E+02 -2.05731E+03 -1.17589E+03 -1.28746E+03 -3.26882E+03  7.21100E+02 -1.89193E+03
  8.73118E+02 -1.12560E+03  1.03861E+03  1.23436E+02  1.55422E+03 -1.41877E+02 -1.60570E+02  1.06743E+03
  2.47345E+02 -5.14019E+02 -9.06980E+02 -2.58664E+02  1.31722E+02 -1.50040E+03  1.92333E+03 -1.10445E+03
  1.62682E+03 -4.77133E+02  3.08935E+03  1.38682E+03  1.12136E+03  2.05213E+03 -1.88590E+02  2.19151E+03
 -2.37826E+03  5.40918E+02 -2.24922E+03  1.73538E+02 -1.04599E+03 -1.57498E+03  3.23888E+02 -4.05277E+02
  1.20544E+03 -4.40879E+02  9.75891E+02  8.22962E+02  1.93444E+01  2.02066E+03 -2.94279E+02  1.72081E+03
  1.59910E+02  1.25004E+03 -5.40555E+02  8.19505E+02  2.16859E+02  3.29260E+02 -7.63706E+02  6.83434E+02
 -1.23762E+03  1.38160E+03 -1.57602E+03  4.22535E+02 -2.02500E+03  5.79371E+02 -2.65763E+03 -1.97361E+03
 -1.36755E+03 -2.59984E+03  6.79351E+02 -3.64982E+03  2.06607E+03 -2.96006E+03  3.55672E+03 -1.46890E+03
  3.82998E+03  1.34089E+01  1.24853E+03  2.56109E+03 -1.38500E+02  2.20820E+03 -1.11899E+03  1.43945E+03
 -1.27527E+03  7.70052E+02 -1.10472E+03 -4.92608E+02 -3.10163E+02  2.98031E+02 -3.93632E+02  1.02492E+02
 -1.72459E+03 -4.17441E+02 -6.93923E+02  5.05637E+02  1.19136E+02 -1.00579E+03 -3.04908E+02 -1.17735E+03
  8.44623E+02 -1.49009E+03  1.11471E+03  4.27648E+02  1.47655E+03  1.32651E+03 -5.81231E+01  1.86094E+03
 -1.20010E+03  3.06467E+03 -2.37119E+03  1.12930E+03 -2.03178E+03 -6.15436E+02 -2.00753E+03 -2.02046E+03
 -1.57017E+03 -1.98640E+03  2.40375E+02 -1.90247E+03  9.90720E+02 -8.31480E+02  6.05986E+02  8.97700E+01
  9.67377E+02  9.54040E+02  1.39489E+02  2.35792E+02 -3.91746E+02  2.58396E+02  4.12764E+02 -5.72559E+02
  2.60420E+02  1.51562E+02  5.64368E+02  9.00601E+02  4.43094E+02  7.59031E+02 -1.33137E+02  5.99030E+02
 -1.19077E+03  7.69888E+02 -9.63414E+02  2.46500E+02 -9.88634E+02 -6.49155E+02  4.45833E+02 -2.33865E+03
  1.00329E+03 -8.63020E+02  6.84939E+02 -7.19784E+01  1.55803E+03 -5.20449E+02  4.25065E+02  1.43913E+03
  8.37675E+02  5.87795E+02 -5.21510E+02  8.47003E+02 -6.31248E+02  8.25146E+02 -5.06838E+02  1.70429E+01
 -5.80440E+02 -1.98961E+02 -5.75642E+01  1.16656E+02 -8.97767E+02  2.97974E+02 -9.01823E+02  7.56413E+01
 -1.41222E+03 -3.61128E+02 -4.88698E+02 -1.17051E+03  7.51850E+02 -1.76479E+03  1.11260E+03 -4.88636E+02
  1.33196E+03  4.57620E+02  1.31008E+02  6.59178E+02 -5.71087E+02  9.22687E+02 -6.57382E+02  4.34188E+02
