 $NMID ID='MM_0lb_SNR400_16hz_g45_86.RAW', FMTDAT='(8E13.5)'
 TRAMP=1., VOLUME=1. $END
  3.09804E+05  4.59497E+01  3.37228E+05  2.50527E+05  8.44471E+04  3.37451E+05 -1.32395E+05  2.50525E+05
 -1.90039E+05  8.34950E+04 -1.10701E+05 -3.28762E+04  1.38004E+03 -5.02705E+04  5.43701E+04 -5.33774E+02
  3.54317E+04  5.26431E+04 -1.69360E+04  7.53673E+04 -6.08674E+04  6.35386E+04 -8.32665E+04  3.15894E+04
 -7.98934E+04 -1.09971E+04 -5.68756E+04 -5.03243E+04 -1.49570E+04 -6.92096E+04  2.70548E+04 -4.53772E+04
  3.96372E+04  3.91243E+03  1.58129E+04  4.80270E+04 -3.46224E+04  4.67709E+04 -6.61052E+04 -1.49314E+02
 -5.28919E+04 -5.69660E+04 -6.22855E+03 -7.57162E+04  3.35196E+04 -5.40501E+04  4.73663E+04 -1.65745E+04
  4.25556E+04  1.11765E+04  3.12500E+04  2.43962E+04  1.60245E+04  2.87167E+04 -4.84077E+03  2.66840E+04
 -2.15744E+04  1.25824E+04 -1.92558E+04 -5.58337E+03  4.65415E+03 -7.60577E+03  2.10670E+04  1.14076E+04
  6.90889E+03  3.39693E+04 -3.10731E+04  3.49400E+04 -6.19930E+04  2.13876E+03 -5.58919E+04 -4.16400E+04
 -1.21240E+04 -6.17704E+04  3.90984E+04 -4.41070E+04  5.67251E+04 -1.36522E+03  3.34402E+04  3.11024E+04
 -5.96994E+03  3.46836E+04 -2.94911E+04  1.41276E+04 -2.89609E+04 -5.13351E+03 -1.56417E+04 -1.06138E+04
 -7.82325E+03 -1.17045E+04 -9.35860E+02 -1.76712E+04  6.75739E+03 -2.29466E+04  1.50826E+04 -1.30358E+04
  1.16227E+04  5.10947E+03 -7.18643E+03  1.32271E+04 -2.06288E+04 -3.52093E+03 -7.46191E+03 -3.21378E+04
  2.20368E+04 -4.22111E+04  4.57104E+04 -1.84816E+04  4.28912E+04  1.84087E+04  1.45847E+04  4.27166E+04
 -1.54838E+04  3.20703E+04 -2.43598E+04  1.45089E+03 -8.74251E+03 -2.65538E+04  2.03023E+04 -3.30493E+04
  3.91513E+04 -8.20328E+03  3.34511E+04  2.29846E+04  1.66989E+04  4.47008E+04 -7.70767E+03  4.77567E+04
 -3.00757E+04  3.19076E+04 -3.94621E+04  8.77825E+03 -3.98982E+04 -1.62691E+04 -2.25490E+04 -3.68310E+04
  6.98037E+03 -3.61254E+04  3.01626E+04 -1.33296E+04  2.78600E+04  1.09552E+04  3.63970E+03  1.85856E+04
 -1.34627E+04  8.03035E+03 -9.57431E+03 -7.50951E+03  5.88241E+03 -1.04312E+04  1.73631E+04  6.26572E+03
  1.29582E+04  2.24535E+04 -6.66837E+03  2.41549E+04 -2.16881E+04  1.01152E+04 -2.61935E+04 -5.59384E+03
 -1.84391E+04 -1.64712E+04 -6.81536E+03 -1.86856E+04  3.74839E+03 -1.67155E+04  1.40561E+04 -1.55877E+04
  2.35047E+04 -1.22047E+04  3.00824E+04  1.84723E+03  2.20862E+04  1.78649E+04  3.90162E+03  3.45716E+04
 -1.70416E+04  2.90509E+04 -2.67549E+04  9.94027E+03 -2.05295E+04 -1.04127E+04 -4.17358E+03 -1.33276E+04
  2.16342E+03 -3.29178E+03 -3.48682E+03  5.67793E+03 -1.47950E+04  4.77530E+03 -1.50154E+04 -5.98247E+03
 -9.65331E+03 -1.74514E+04  4.73976E+03 -2.07046E+04  1.41605E+04 -1.53076E+04  1.62281E+04 -1.45300E+03
  9.92206E+03  1.15114E+04 -1.09730E+03  1.71170E+04 -1.11769E+04  9.74306E+03 -1.72933E+04 -3.78405E+03
 -1.25620E+04 -1.53268E+04 -1.76845E+03 -2.14614E+04  9.45335E+03 -1.67540E+04  1.70502E+04 -7.99618E+03
  1.60851E+04  2.75247E+02  1.14177E+04  3.70842E+03  5.94656E+03  1.77685E+02  8.57180E+03 -1.83899E+03
  1.56033E+04  2.49216E+03  1.69926E+04  1.38107E+04  1.04964E+04  2.71583E+04 -2.87018E+03  2.96908E+04
 -1.74922E+04  2.43048E+04 -2.80503E+04  1.18106E+04 -2.89441E+04 -1.50050E+03 -2.41773E+04 -1.68445E+04
 -1.14038E+04 -2.32488E+04  8.56250E+03 -2.16692E+04  1.90761E+04 -1.16460E+04  1.73301E+04  4.35343E+03
  6.79536E+03  1.28556E+04 -7.98536E+03  1.10932E+04 -1.42089E+04  2.52589E+03 -1.12279E+04 -8.48654E+03
 -2.46584E+02 -1.38383E+04  6.68539E+03 -1.01006E+04  8.65729E+03 -1.27564E+03  2.51656E+03  5.78775E+03
 -5.38239E+03  2.09863E+03 -5.46160E+03 -4.84800E+03  1.86318E+02 -1.22017E+04  8.66159E+03 -1.21745E+04
  1.49176E+04 -5.63638E+03  1.58630E+04  3.45346E+03  1.29537E+04  1.15425E+04  6.27980E+03  1.72283E+04
 -2.18264E+03  1.90090E+04 -1.16522E+04  1.23533E+04 -1.32817E+04  3.32861E+03 -9.68138E+03 -2.24471E+03
 -4.67529E+03 -3.63302E+03 -8.19260E+02  1.79425E+03 -3.02396E+03  1.95864E+03 -4.31045E+03  4.24568E+03
 -8.83279E+03 -3.86939E+02 -9.64314E+03 -7.80701E+03 -3.86790E+03 -1.30929E+04  4.40417E+03 -9.46884E+03
  8.54358E+03 -4.62321E+03  5.89338E+03  2.55886E+03  8.18516E+01  3.80671E+03 -4.29159E+03 -2.55042E+02
 -4.22998E+03 -6.10420E+03 -7.62085E+02 -8.85232E+03  4.91387E+03 -9.42970E+03  1.15442E+04 -4.97621E+03
  1.39832E+04  1.18701E+03  1.05106E+04  8.18467E+03  1.61505E+03  1.04897E+04 -5.79387E+03  9.75317E+03
 -7.87359E+03  2.91843E+03 -3.57624E+03 -1.63972E+03  1.65280E+03 -1.99231E+03  5.94473E+03 -1.15376E+03
  4.58062E+03  3.50895E+03  5.30848E+02  7.26496E+03 -5.99090E+03  7.70873E+03 -9.72514E+03  1.99047E+03
 -5.75894E+03 -4.28777E+03 -3.93640E+02 -8.27259E+03  4.92368E+03 -3.66003E+03  4.64249E+03  2.03627E+03
  1.06326E+03  4.31794E+03 -4.39349E+03  6.03410E+03 -6.02686E+03  3.02843E+03 -6.26940E+03 -1.47458E+03
 -3.53582E+03 -7.20435E+03  1.72184E+03 -8.77217E+03  7.44044E+03 -5.42169E+03  8.85004E+03  1.56720E+03
  5.21657E+03  6.68597E+03 -1.58297E+02  9.57209E+03 -5.98462E+03  4.44636E+03 -6.60398E+03 -3.99247E+02
 -6.52251E+03 -6.25756E+03 -1.80116E+03 -6.43078E+03  2.90100E+03 -5.80533E+03  4.10871E+03 -3.14087E+03
  3.40338E+03  2.34584E+02  1.70956E+02  9.78909E+02  1.49744E+02 -1.25786E+03  4.63804E+02 -2.70572E+03
  5.12572E+03 -1.30435E+03  7.64435E+03  1.01561E+03  7.15243E+03  4.46373E+03  6.28003E+03  9.97132E+03
 -1.46298E+03  1.10641E+04 -9.75385E+03  8.52126E+03 -1.24248E+04  1.52034E+03 -9.87605E+03 -3.56038E+03
 -5.65062E+03 -8.89367E+03 -4.46866E+02 -7.17318E+03  1.90673E+03 -3.35500E+03  2.41501E+03 -2.74811E+03
  1.77901E+03 -1.32896E+03  2.35151E+03 -2.93712E+03  4.12109E+03 -1.66585E+03  5.02677E+03  3.20066E+01
  5.89785E+03  1.37909E+03  1.90799E+03  4.35101E+03 -1.55953E+03  4.26175E+03 -5.67212E+03  3.41708E+03
 -6.66270E+03 -1.36881E+03 -2.57192E+03 -4.20417E+03  1.91769E+02 -7.23020E+03  3.98198E+03 -7.19209E+03
  6.72180E+03 -4.33459E+03  9.29199E+03  5.15360E+02  6.13152E+03  6.26498E+03  1.24315E+03  7.68744E+03
 -3.17201E+03  6.80670E+03 -4.20251E+03  2.33956E+03 -3.13445E+03 -1.31423E+03 -6.42330E+02 -7.54428E+02
  1.17849E+02  1.79025E+01 -1.30627E+03  2.08515E+03 -2.99699E+03  1.13718E+03 -5.60047E+03 -9.64725E+02
 -2.97029E+03 -4.65802E+03  1.08512E+03 -6.42320E+03  3.29127E+03 -6.13385E+03  5.55816E+03 -1.24657E+03
  5.84581E+03  3.12654E+03  2.10388E+03  4.78467E+03 -8.74797E+02  6.11300E+03 -3.49514E+03  3.95146E+03
 -5.19968E+03  6.55683E+02 -4.16407E+03 -3.17083E+03 -4.74361E+02 -4.67258E+03  2.63169E+03 -3.40817E+03
  4.09602E+03 -1.50510E+03  2.80016E+03  9.71259E+02  5.33997E+02  2.31866E+03  1.15882E+03  6.91527E+02
  1.94121E+03  2.48878E+02  1.63327E+03  1.41546E+03  1.36931E+03  2.41187E+03  2.06511E+03  2.50883E+03
 -8.52356E+02  5.22978E+03 -4.05763E+03  5.22408E+03 -5.23837E+03  1.83074E+03 -5.76992E+03 -9.33572E+02
 -1.96499E+03 -5.56763E+03  1.31284E+03 -6.05754E+03  3.17375E+03 -3.73796E+03  4.18836E+03 -9.93936E+02
  3.77954E+03  1.97641E+03  7.35390E+02  3.29361E+03 -1.27201E+03  1.36644E+03 -1.75527E+03  1.21964E+02
 -9.71051E+02 -2.05061E+03  1.26162E+03 -2.40994E+03  2.31961E+03 -8.64139E+02  1.91193E+03 -1.30044E+02
  2.08424E+03  4.09394E+02  4.88215E+02  1.81506E+02 -1.31855E+02  1.05064E+03  1.34804E+03 -1.20217E+02
  8.16888E+02 -5.72845E+02  2.53244E+03  1.48496E+03  1.37411E+03  3.28071E+03 -2.52825E+02  4.05240E+03
 -1.80682E+03  1.42498E+03 -3.08283E+03  6.56695E+02 -2.97939E+03 -1.00566E+03 -3.40013E+02 -1.89666E+03
  2.77882E+02 -1.56117E+03  9.79480E+02 -1.08761E+03  5.02902E+02  1.56152E+03 -1.15607E+03  1.64715E+03
 -2.11488E+03  8.88290E+02 -1.69534E+03 -1.60902E+03 -1.15584E+03 -2.54960E+03 -1.65009E+02 -3.08247E+03
  1.08708E+03 -1.22983E+03  1.50463E+03  3.60015E+02  1.46473E+03  2.11891E+02  6.20196E+02  1.58384E+03
 -1.26319E+03  2.11333E+02 -1.50423E+03 -4.68725E+02  7.55333E+02 -1.56672E+03  2.09674E+03 -6.20319E+02
  2.45673E+03 -5.07439E+01  4.31666E+03  1.44906E+03  1.33936E+03  2.50798E+03 -3.73362E+02  2.55723E+03
 -2.02624E+03  6.51406E+02 -2.37430E+03 -7.33054E+01 -1.67761E+03 -2.23947E+03  8.28011E+01 -1.07789E+03
  2.79113E+03 -8.54796E+02  1.66756E+03  9.12408E+02  3.32269E+02  1.69872E+03 -4.14107E+01  2.06916E+03
 -1.37453E+03  1.09578E+03 -1.02568E+03 -2.23494E+02 -6.22942E+02  7.72772E+02 -1.11396E+03  9.86010E+02
 -1.17281E+03  8.09851E+02 -2.32870E+03  1.10237E+03 -2.18355E+03  3.52225E+02 -2.95988E+03 -2.03325E+03
 -1.80579E+03 -3.95058E+03  8.38182E+02 -4.22893E+03  1.85736E+03 -3.75984E+03  4.43130E+03 -1.47113E+03
  2.89978E+03 -4.77260E+02  1.63028E+03  1.92810E+03 -6.61851E+02  2.93166E+03 -9.75836E+02  2.30210E+03
 -1.19117E+03  1.31667E+03 -7.32170E+02 -1.12613E+01 -4.25545E+02 -9.13263E+01 -4.26541E+02 -1.45110E+02
 -1.20950E+03 -6.49353E+02 -1.06395E+03  1.46921E+02 -4.84231E+02 -1.37393E+03 -6.37438E+01 -1.34568E+03
  1.86909E+03 -6.95445E+02  7.91412E+02 -5.66163E+02  2.01799E+03  1.71791E+03 -2.99256E+01  2.65584E+03
 -1.26211E+03  3.15997E+03 -2.65946E+03  1.88151E+03 -2.84831E+03 -2.70082E+02 -2.27196E+03 -1.47657E+03
 -8.32688E+02 -2.42469E+03  8.83560E+02 -2.04550E+03  1.34417E+03 -9.87840E+02  1.79745E+03 -4.74261E+02
  1.77501E+03  7.17629E+02  2.16084E+02  3.21311E+02 -1.06444E+03  4.09606E+02  3.40591E+02 -3.78924E+01
  5.05354E+02 -3.72001E+02 -1.65070E+02  1.01228E+03  6.63677E+01  1.05479E+03  7.20109E+02  1.02186E+03
 -1.25785E+03  6.81582E+02 -2.05797E+03  3.52741E+02 -1.17462E+03 -1.18439E+03  1.09408E+01 -1.86861E+03
  8.24524E+02 -1.23046E+03  7.69421E+02 -1.70193E+02  1.63265E+03 -5.82031E+02  1.19829E+03  1.78556E+03
  5.04875E+01  1.27352E+03 -6.76525E+02  1.20795E+03 -1.34740E+03  6.97076E+02 -1.20081E+03 -2.84688E+02
 -4.39667E+02  1.75064E+02 -3.78988E+02 -4.32366E+02 -1.06008E+03 -1.40629E+02 -8.54839E+02 -4.81267E+02
 -1.69883E+03  2.03823E+02 -5.78083E+02 -1.82612E+03  8.37307E+02 -2.49542E+03  1.55578E+03 -4.38849E+02
  1.89131E+03 -1.74977E+02 -9.89353E+01  8.56678E+02 -6.54397E+02  1.22275E+03 -1.14268E+03  1.13378E+03
