 $NMID ID='MM_0lb_SNR400_8hz_g45_96.RAW', FMTDAT='(8E13.5)'
 TRAMP=1., VOLUME=1. $END
  3.10426E+05 -7.26489E+00  3.37994E+05  2.50111E+05  8.46586E+04  3.38767E+05 -1.31649E+05  2.52025E+05
 -1.90291E+05  8.37419E+04 -1.13698E+05 -3.29778E+04 -4.65361E+02 -5.04507E+04  5.38736E+04 -9.61938E+02
  3.65403E+04  5.24347E+04 -1.70217E+04  7.65973E+04 -6.06417E+04  6.42987E+04 -8.53368E+04  3.36198E+04
 -8.24612E+04 -1.17622E+04 -5.77715E+04 -5.27795E+04 -1.57166E+04 -7.00965E+04  2.81647E+04 -4.70959E+04
  4.06095E+04  3.54301E+03  1.70129E+04  4.87033E+04 -3.52983E+04  4.85818E+04 -6.81135E+04 -6.23911E+02
 -5.54977E+04 -5.79785E+04 -5.82174E+03 -7.92122E+04  3.47648E+04 -5.66879E+04  5.03728E+04 -1.80953E+04
  4.57029E+04  1.17066E+04  3.31005E+04  2.65709E+04  1.69775E+04  3.00019E+04 -6.04655E+03  2.73071E+04
 -2.24457E+04  1.21019E+04 -1.76514E+04 -5.06931E+03  8.05672E+03 -7.53975E+03  2.22702E+04  1.37521E+04
  7.36544E+03  3.71895E+04 -3.37927E+04  3.81574E+04 -6.58435E+04  2.06212E+03 -5.94689E+04 -4.41701E+04
 -1.27346E+04 -6.61951E+04  4.16393E+04 -4.77517E+04  6.18508E+04 -3.00244E+03  3.68263E+04  3.52147E+04
 -4.79950E+03  4.03681E+04 -3.24677E+04  1.86196E+04 -3.36993E+04 -2.82826E+03 -2.01935E+04 -1.22954E+04
 -9.49416E+03 -1.53821E+04 -2.21000E+02 -1.95767E+04  8.26176E+03 -2.32678E+04  1.62829E+04 -1.20821E+04
  1.08642E+04  5.77249E+03 -1.03120E+04  1.26281E+04 -2.36099E+04 -7.17706E+03 -8.27273E+03 -3.73520E+04
  2.53855E+04 -4.67615E+04  5.28810E+04 -2.10219E+04  4.87408E+04  2.04373E+04  1.72617E+04  4.81044E+04
 -1.69866E+04  3.66019E+04 -2.75761E+04  2.61564E+03 -1.21912E+04 -2.96492E+04  2.27244E+04 -3.74949E+04
  4.56744E+04 -1.18955E+04  4.12671E+04  2.52654E+04  2.15378E+04  5.16722E+04 -6.74834E+03  5.64591E+04
 -3.63707E+04  3.96043E+04 -4.75023E+04  1.17537E+04 -4.84671E+04 -1.86867E+04 -2.59426E+04 -4.21240E+04
  7.79232E+03 -4.22952E+04  3.40257E+04 -1.68401E+04  3.20065E+04  1.04641E+04  4.73561E+03  2.14165E+04
 -1.41310E+04  1.00989E+04 -1.14774E+04 -7.37594E+03  5.45958E+03 -1.15091E+04  1.88051E+04  6.07671E+03
  1.44755E+04  2.27255E+04 -5.08164E+03  2.70837E+04 -2.31571E+04  1.51174E+04 -3.20042E+04 -2.52559E+03
 -2.61316E+04 -1.95779E+04 -1.20378E+04 -2.58990E+04  4.30098E+03 -2.63662E+04  2.00762E+04 -2.28783E+04
  3.32602E+04 -1.51221E+04  3.87725E+04  5.80716E+03  2.83039E+04  2.46763E+04  4.64197E+03  4.20344E+04
 -2.00201E+04  3.46792E+04 -3.07372E+04  1.18540E+04 -2.27160E+04 -1.05180E+04 -5.16180E+03 -1.28194E+04
  1.26115E+03 -8.07320E+02 -7.77951E+03  8.24056E+03 -2.03094E+04  6.06739E+03 -2.07418E+04 -9.81203E+03
 -1.22005E+04 -2.34776E+04  5.28255E+03 -2.82371E+04  1.92748E+04 -1.96377E+04  2.27402E+04 -2.42843E+03
  1.47627E+04  1.74626E+04 -9.93760E+02  2.32017E+04 -1.74849E+04  1.35550E+04 -2.47198E+04 -5.21870E+03
 -1.81707E+04 -2.10601E+04 -1.79363E+03 -2.83088E+04  1.29609E+04 -2.34828E+04  2.36566E+04 -1.22366E+04
  2.28385E+04 -1.80846E+02  1.64217E+04  4.83318E+03  9.33136E+03  1.76953E+03  1.29432E+04 -2.49974E+03
  2.28491E+04  2.93366E+03  2.64832E+04  1.88637E+04  1.82961E+04  3.94087E+04 -3.07534E+03  4.59156E+04
 -2.55225E+04  3.75539E+04 -4.31747E+04  2.02648E+04 -4.62713E+04 -2.91670E+03 -3.63650E+04 -2.68650E+04
 -1.49853E+04 -3.83532E+04  1.35144E+04 -3.35908E+04  2.95786E+04 -1.50283E+04  2.49607E+04  7.49318E+03
  8.84126E+03  1.94885E+04 -1.12175E+04  1.60050E+04 -2.04858E+04  3.26929E+03 -1.56070E+04 -1.32607E+04
 -7.65822E+02 -1.99503E+04  1.13355E+04 -1.48493E+04  1.39004E+04 -8.62806E+02  4.16923E+03  8.75644E+03
 -9.96009E+03  4.36394E+03 -9.93676E+03 -7.27296E+03 -1.94094E+03 -1.88213E+04  1.14232E+04 -2.09585E+04
  2.37330E+04 -1.23345E+04  2.78933E+04  3.99631E+03  2.38244E+04  1.90679E+04  1.07190E+04  3.01228E+04
 -6.27890E+03  3.20825E+04 -2.09095E+04  2.00377E+04 -2.32562E+04  4.06488E+03 -1.61887E+04 -6.29192E+03
 -6.58067E+03 -7.49069E+03 -7.81195E+02  1.52106E+02 -3.27810E+03  3.30734E+03 -7.75896E+03  5.93855E+03
 -1.51689E+04 -7.60510E+02 -1.46522E+04 -1.19158E+04 -7.03997E+03 -1.99306E+04  6.66613E+03 -1.54677E+04
  1.41055E+04 -6.93567E+03  9.45640E+03  4.54024E+03 -1.33359E+03  6.10579E+03 -8.07145E+03 -1.12236E+03
 -8.55213E+03 -1.00164E+04 -1.44700E+03 -1.65302E+04  9.97307E+03 -1.58946E+04  2.06729E+04 -9.47364E+03
  2.52472E+04  2.27240E+03  1.74232E+04  1.58172E+04  2.89997E+03  2.04286E+04 -1.04725E+04  1.57644E+04
 -1.34320E+04  5.17741E+03 -6.53762E+03 -3.93913E+03  1.83483E+03 -4.79460E+03  8.90859E+03 -1.16281E+03
  7.78663E+03  7.15897E+03  1.20514E+03  1.26796E+04 -9.59928E+03  1.32050E+04 -1.70829E+04  3.58418E+03
 -1.06509E+04 -8.60145E+03 -2.43366E+02 -1.36449E+04  9.43913E+03 -8.06234E+03  9.90965E+03  4.15495E+03
  2.80893E+03  1.02193E+04 -9.17694E+03  1.19209E+04 -1.42432E+04  5.26937E+03 -1.48920E+04 -6.05190E+03
 -8.54691E+03 -1.71911E+04  4.68132E+03 -1.87201E+04  1.61918E+04 -1.16385E+04  1.79490E+04  2.71090E+03
  1.05380E+04  1.44374E+04 -1.43205E+03  1.58678E+04 -1.20371E+04  8.90705E+03 -1.48171E+04 -2.11962E+03
 -1.04396E+04 -1.09364E+04 -1.72789E+03 -1.29055E+04  6.59339E+03 -9.58140E+03  7.66075E+03 -3.95046E+03
  5.27023E+03  2.62249E+03 -1.75636E+03  1.66435E+03 -6.18664E+02 -3.95156E+03  2.48553E+03 -7.36355E+03
  1.25406E+04 -5.47830E+03  1.77655E+04  1.85271E+03  1.63348E+04  1.19788E+04  1.04117E+04  2.23034E+04
 -5.21339E+03  2.57025E+04 -2.11250E+04  1.92903E+04 -2.70978E+04  3.82372E+03 -2.23413E+04 -9.19225E+03
 -1.13425E+04 -1.88468E+04 -6.40030E+02 -1.58352E+04  5.44884E+03 -9.11852E+03  4.74087E+03 -5.87652E+03
  4.18614E+03 -3.78823E+03  3.42595E+03 -4.29232E+03  6.45867E+03 -3.95035E+03  8.70218E+03 -2.24032E+03
  1.14230E+04  2.70135E+03  5.95286E+03  1.10714E+04 -2.31602E+03  1.21806E+04 -1.32370E+04  9.03806E+03
 -1.61120E+04 -1.44103E+03 -1.01728E+04 -1.18165E+04 -1.16305E+03 -1.71908E+04  9.04422E+03 -1.70424E+04
  1.82671E+04 -9.17963E+03  2.15019E+04  2.96276E+03  1.41694E+04  1.59996E+04  2.60481E+03  1.94004E+04
 -8.34948E+03  1.55891E+04 -1.15917E+04  5.71538E+03 -7.85617E+03 -1.24023E+03 -3.15758E+03 -2.08022E+03
 -1.94058E+03 -3.77030E+01 -2.82689E+03  2.81477E+03 -6.07656E+03  3.39283E+03 -1.01971E+04 -1.10002E+03
 -8.17846E+03 -1.10118E+04  5.26316E+02 -1.63124E+04  1.02244E+04 -1.43781E+04  1.61246E+04 -4.57651E+03
  1.67932E+04  8.26219E+03  7.27855E+03  1.45565E+04 -3.83545E+03  1.68503E+04 -1.09080E+04  1.00054E+04
 -1.48692E+04  1.21657E+03 -1.15061E+04 -9.99775E+03 -1.25110E+03 -1.32568E+04  7.44131E+03 -9.47622E+03
  1.10001E+04 -3.04792E+03  7.14183E+03  4.45984E+03  1.97671E+03  4.66538E+03  2.26069E+03  2.80559E+03
  3.08808E+03  3.69539E+02  3.16150E+03  1.56820E+03  4.52799E+03  5.32891E+03  4.38152E+03  9.09618E+03
 -2.85414E+03  1.29295E+04 -1.12496E+04  1.26577E+04 -1.72642E+04  3.28515E+03 -1.69188E+04 -7.45165E+03
 -8.43293E+03 -1.60385E+04  2.25280E+03 -1.72840E+04  1.09659E+04 -1.17645E+04  1.35471E+04 -2.67517E+03
  1.10540E+04  5.86785E+03  2.60083E+03  9.60181E+03 -4.97528E+03  5.99343E+03 -6.49989E+03 -8.19097E+02
 -3.39059E+03 -7.85098E+03  4.30856E+03 -7.23965E+03  6.54039E+03 -3.49648E+03  7.35747E+03  1.51105E+03
  3.24768E+03  3.59280E+03  1.62573E+03  3.58608E+03 -1.45591E+03  2.06511E+03  1.42979E+03 -3.36299E+02
  3.59524E+03 -5.96530E+02  6.59262E+03  2.57114E+03  3.87535E+03  8.96436E+03 -1.72897E+03  1.14033E+04
 -8.10432E+03  8.28174E+03 -1.07526E+04  1.43472E+03 -9.25035E+03 -4.15247E+03 -3.41214E+03 -6.99871E+03
  3.22600E+02 -6.62703E+03  3.81371E+03 -2.71562E+03  2.34024E+03  3.58412E+03 -2.20745E+03  5.76125E+03
 -7.06927E+03  3.32920E+03 -7.84800E+03 -3.98919E+03 -5.60391E+03 -9.22039E+03  1.29582E+03 -9.42647E+03
  5.63855E+03 -5.46291E+03  7.12965E+03 -8.96845E+02  5.86034E+03  2.39353E+03  1.06798E+03  4.66281E+03
 -4.27360E+03  5.79006E+02 -4.19827E+03 -3.28606E+03  1.59258E+03 -6.84594E+03  8.54035E+03 -5.48127E+03
  1.00471E+04  1.46763E+02  1.06032E+04  7.98606E+03  3.08532E+03  1.22896E+04 -4.50392E+03  1.05169E+04
 -9.91907E+03  4.61768E+03 -9.50123E+03 -2.12133E+03 -5.09771E+03 -7.48288E+03  1.89691E+03 -7.92921E+03
  7.69907E+03 -3.06822E+03  5.85931E+03  3.16824E+03  1.86045E+03  6.03884E+03 -8.70791E+02  5.04499E+03
 -3.57866E+03  4.18619E+03 -3.22137E+03  1.33867E+03 -1.46677E+03  1.12281E+03 -2.59904E+03  2.50874E+03
 -2.91412E+03  3.73484E+03 -7.26965E+03  4.53241E+03 -1.16670E+04  1.52822E+02 -1.32487E+04 -6.76505E+03
 -6.82203E+03 -1.58072E+04  2.86304E+03 -1.72079E+04  1.13577E+04 -1.30483E+04  1.57438E+04 -5.89731E+03
  1.54377E+04  3.72598E+03  9.69616E+03  1.02132E+04  1.03288E+03  1.24170E+04 -5.43776E+03  9.04783E+03
 -5.59001E+03  2.91373E+03 -5.32576E+03 -5.99623E+02 -1.56833E+03 -1.55564E+03 -9.47277E+02 -1.92975E+01
 -2.72799E+03 -1.63629E+02 -2.67580E+03 -9.68998E+02 -1.05943E+03 -2.83510E+03  6.44062E+02 -5.22350E+03
  5.64183E+03 -3.96340E+03  6.55886E+03 -7.53205E+02  8.47798E+03  6.48897E+03  1.81993E+03  1.23272E+04
 -4.80784E+03  1.39409E+04 -1.22779E+04  8.11130E+03 -1.46366E+04 -1.27321E+03 -1.09017E+04 -9.77587E+03
 -5.11020E+03 -1.23214E+04  3.42274E+03 -1.22071E+04  8.13764E+03 -6.29784E+03  8.17859E+03  5.60779E+02
  4.22002E+03  4.57682E+03 -9.47478E+02  3.12545E+03 -1.71377E+03 -5.67666E+02 -1.60239E+01 -3.05349E+03
  4.06340E+03 -2.21385E+03  4.44712E+03  1.69121E+03  3.10184E+03  4.96617E+03  1.51135E+02  6.90106E+03
 -5.39933E+03  6.23432E+03 -8.38549E+03 -2.84417E+02 -7.50030E+03 -6.32494E+03 -8.56328E+02 -1.02526E+04
  6.42286E+03 -8.51983E+03  9.95662E+03 -3.47727E+03  9.23418E+03  2.04005E+03  4.97627E+03  6.99504E+03
  1.41998E+03  7.22983E+03 -3.10259E+03  6.11330E+03 -4.99131E+03  3.16749E+03 -4.13401E+03  1.05916E+03
 -2.79745E+03 -6.15067E+02 -2.50055E+03  1.11292E+03 -4.81217E+03  9.29310E+02 -5.66903E+03 -2.03425E+03
 -5.99791E+03 -4.11849E+03 -1.51619E+03 -8.45953E+03  4.06082E+03 -8.22163E+03  7.45271E+03 -4.19825E+03
  8.38611E+03  9.44388E+02  5.06962E+03  6.33538E+03 -1.06067E+03  8.88186E+03 -6.64848E+03  5.06717E+03
