 $NMID ID='MM_0lb_SNR400_18hz_g60_46.RAW', FMTDAT='(8E13.5)'
 TRAMP=1., VOLUME=1. $END
  3.09932E+05  2.03180E+02  3.38003E+05  2.50766E+05  8.48498E+04  3.37548E+05 -1.32732E+05  2.50616E+05
 -1.90410E+05  8.33714E+04 -1.11601E+05 -3.30225E+04  1.11929E+03 -5.06249E+04  5.32593E+04 -4.45071E+02
  3.51190E+04  5.25539E+04 -1.69394E+04  7.49971E+04 -6.08251E+04  6.32003E+04 -8.40743E+04  3.19616E+04
 -8.13596E+04 -1.14389E+04 -5.70433E+04 -5.04506E+04 -1.47116E+04 -6.91570E+04  2.70622E+04 -4.53859E+04
  3.95082E+04  4.13925E+03  1.59722E+04  4.73028E+04 -3.45456E+04  4.66953E+04 -6.63825E+04 -1.06753E+03
 -5.29285E+04 -5.67405E+04 -6.56667E+03 -7.61257E+04  3.39486E+04 -5.46475E+04  4.75322E+04 -1.69821E+04
  4.27504E+04  1.15911E+04  3.07633E+04  2.44970E+04  1.59695E+04  2.85153E+04 -4.76746E+03  2.67923E+04
 -2.19067E+04  1.27415E+04 -1.89740E+04 -4.67800E+03  6.15898E+03 -7.46164E+03  2.21834E+04  1.18226E+04
  7.47319E+03  3.43822E+04 -3.15887E+04  3.52048E+04 -6.25540E+04  2.17522E+03 -5.62672E+04 -4.22429E+04
 -1.26076E+04 -6.20274E+04  3.95554E+04 -4.49088E+04  5.69693E+04 -1.60215E+03  3.30405E+04  3.19351E+04
 -6.29420E+03  3.44832E+04 -2.94690E+04  1.47902E+04 -2.99159E+04 -4.33812E+03 -1.57867E+04 -1.04931E+04
 -7.16190E+03 -1.31159E+04 -1.49525E+03 -1.77997E+04  7.13490E+03 -2.32711E+04  1.53771E+04 -1.40142E+04
  1.17920E+04  4.53996E+03 -7.74858E+03  1.30760E+04 -2.06013E+04 -3.26467E+03 -8.08592E+03 -3.30991E+04
  2.25551E+04 -4.25254E+04  4.68560E+04 -1.93573E+04  4.45887E+04  1.88897E+04  1.53927E+04  4.32105E+04
 -1.52500E+04  3.23440E+04 -2.49156E+04  1.63291E+03 -9.77179E+03 -2.69382E+04  2.11052E+04 -3.24731E+04
  3.97109E+04 -8.73794E+03  3.38333E+04  2.39743E+04  1.69386E+04  4.51558E+04 -7.94448E+03  4.80543E+04
 -3.09001E+04  3.17963E+04 -3.98012E+04  9.08081E+03 -4.08113E+04 -1.56687E+04 -2.24155E+04 -3.59805E+04
  7.15032E+03 -3.62029E+04  3.05377E+04 -1.31137E+04  2.85884E+04  1.12738E+04  3.81306E+03  1.85210E+04
 -1.29468E+04  8.12339E+03 -1.05475E+04 -7.31815E+03  5.92829E+03 -1.02229E+04  1.81198E+04  6.62684E+03
  1.36450E+04  2.20975E+04 -5.78538E+03  2.48256E+04 -2.21577E+04  1.01842E+04 -2.62517E+04 -5.40640E+03
 -1.90677E+04 -1.75662E+04 -7.17132E+03 -1.92072E+04  4.10991E+03 -1.71597E+04  1.43036E+04 -1.62489E+04
  2.38293E+04 -1.23123E+04  3.04851E+04  2.44532E+03  2.23359E+04  1.78750E+04  4.22098E+03  3.43676E+04
 -1.68981E+04  2.94857E+04 -2.70076E+04  9.82463E+03 -1.99699E+04 -1.01813E+04 -3.90333E+03 -1.29996E+04
  1.79071E+03 -3.70183E+03 -3.92430E+03  5.78920E+03 -1.41732E+04  4.83481E+03 -1.50969E+04 -5.17680E+03
 -9.32956E+03 -1.72862E+04  4.92867E+03 -2.11781E+04  1.35066E+04 -1.51251E+04  1.59772E+04 -1.94270E+03
  1.01414E+04  1.17201E+04 -5.40391E+02  1.79437E+04 -1.16366E+04  9.39656E+03 -1.71948E+04 -3.41619E+03
 -1.23473E+04 -1.57074E+04 -1.53950E+03 -2.11025E+04  9.09296E+03 -1.71657E+04  1.73209E+04 -8.28127E+03
  1.58918E+04  7.25148E+02  1.13740E+04  3.80785E+03  5.48135E+03  5.34857E+02  8.31088E+03 -1.38612E+03
  1.58890E+04  3.37000E+03  1.64242E+04  1.33898E+04  1.14667E+04  2.73290E+04 -2.74742E+03  2.95591E+04
 -1.78504E+04  2.33841E+04 -2.77338E+04  1.12154E+04 -2.93475E+04 -1.54831E+03 -2.42094E+04 -1.65836E+04
 -1.04176E+04 -2.33475E+04  7.51477E+03 -2.13302E+04  1.89645E+04 -1.23454E+04  1.69088E+04  4.39852E+03
  7.53277E+03  1.21848E+04 -8.06842E+03  1.13186E+04 -1.42583E+04  3.16347E+03 -1.08882E+04 -8.53931E+03
  2.75865E+02 -1.38482E+04  6.49930E+03 -1.10370E+04  8.52925E+03 -1.36587E+03  1.53218E+03  5.97525E+03
 -6.05913E+03  1.81548E+03 -4.53352E+03 -5.13559E+03  8.38077E+01 -1.12946E+04  8.30608E+03 -1.17023E+04
  1.48952E+04 -6.01356E+03  1.46584E+04  2.13921E+03  1.19710E+04  1.05751E+04  5.98233E+03  1.66065E+04
 -1.89846E+03  1.81385E+04 -1.11426E+04  1.11929E+04 -1.26337E+04  3.48213E+03 -9.25899E+03 -2.63702E+03
 -4.80695E+03 -3.56947E+03 -1.13579E+03  1.06088E+03 -2.07977E+03  2.03295E+03 -4.32696E+03  4.66573E+03
 -8.72652E+03 -5.45761E+02 -9.58968E+03 -8.30078E+03 -3.79664E+03 -1.24657E+04  4.28841E+03 -9.82779E+03
  7.53627E+03 -4.28551E+03  5.98319E+03  2.25124E+03 -8.80462E+01  3.88941E+03 -4.55991E+03 -5.58210E+02
 -3.82725E+03 -5.99786E+03 -6.80276E+02 -8.23399E+03  4.48880E+03 -8.94619E+03  1.18808E+04 -4.49902E+03
  1.29689E+04  1.31775E+03  9.71133E+03  7.69426E+03  1.91643E+03  1.03111E+04 -6.07895E+03  9.12703E+03
 -8.17580E+03  2.79753E+03 -4.17839E+03 -1.88691E+03  1.45157E+03 -1.91980E+03  5.42721E+03 -7.90373E+02
  4.53217E+03  3.98122E+03  1.02344E+03  6.98267E+03 -5.23616E+03  6.91869E+03 -8.20527E+03  1.16516E+03
 -5.54629E+03 -3.71516E+03 -5.13469E+01 -7.91205E+03  4.62782E+03 -3.29743E+03  3.86036E+03  1.68617E+03
  7.35574E+02  4.00258E+03 -4.43313E+03  5.44460E+03 -5.47043E+03  2.61763E+03 -4.96746E+03 -1.28798E+03
 -3.90880E+03 -6.81975E+03  1.97396E+03 -8.36177E+03  6.67525E+03 -5.41719E+03  7.68559E+03  7.42417E+02
  5.72445E+03  5.88224E+03  4.00935E+02  8.19008E+03 -6.09633E+03  4.35749E+03 -6.49775E+03 -1.72269E+02
 -6.09099E+03 -6.07083E+03 -1.29475E+03 -5.62245E+03  2.69712E+03 -4.95446E+03  3.19837E+03 -3.17874E+03
  2.99460E+03  2.95409E+02 -1.00350E+03  1.15076E+03  1.46658E+02 -4.00039E+02  9.84830E+01 -2.56940E+03
  4.80000E+03 -1.38009E+03  6.60346E+03  6.78027E+02  6.24664E+03  3.15151E+03  5.11179E+03  7.95427E+03
 -1.98040E+03  9.81388E+03 -8.21819E+03  7.76875E+03 -1.15397E+04  1.28377E+03 -9.25000E+03 -3.57036E+03
 -4.58150E+03 -7.77164E+03 -6.30157E+02 -6.33512E+03  2.75977E+03 -2.83542E+03  2.33149E+03 -2.49571E+03
  9.98070E+02 -1.25888E+03  2.54311E+03 -2.84963E+03  3.59709E+03 -1.59448E+03  4.25285E+03  5.94743E+02
  4.45512E+03  8.72173E+02  1.47305E+03  3.12446E+03 -1.12625E+03  3.98367E+03 -5.09603E+03  2.91808E+03
 -5.55281E+03 -9.36640E+02 -2.48935E+03 -3.20297E+03  4.62614E+02 -5.68974E+03  4.28954E+03 -6.27620E+03
  5.73717E+03 -4.02338E+03  7.55923E+03 -5.85079E+00  5.30098E+03  4.88852E+03  1.03537E+03  6.79101E+03
 -2.52276E+03  6.73431E+03 -3.99167E+03  1.91847E+03 -2.05920E+03 -9.93383E+02 -1.30657E+03 -4.15875E+02
 -6.87360E+02 -2.81252E+02 -1.28863E+03  1.83850E+03 -2.50001E+03  1.23273E+03 -4.63208E+03 -7.85872E+02
 -1.91572E+03 -3.97107E+03  8.52557E+02 -5.37041E+03  3.30190E+03 -4.30646E+03  3.84364E+03 -8.38193E+02
  5.13568E+03  3.11764E+03  1.61512E+03  3.98999E+03 -9.33566E+02  4.94124E+03 -2.54520E+03  2.82032E+03
 -4.39357E+03  6.31802E+02 -3.73720E+03 -2.47600E+03 -2.39605E+02 -3.77780E+03  1.72974E+03 -3.02175E+03
  3.27503E+03 -1.96718E+03  1.77993E+03  6.80897E+02  1.03446E+03  1.47287E+03  1.25812E+03  2.59439E+02
  1.44796E+03  4.21283E+02  1.60347E+03  9.48308E+02  8.77347E+02  2.55156E+03  1.31807E+03  1.64693E+03
 -7.20824E+02  2.98229E+03 -2.97135E+03  5.03603E+03 -3.27358E+03  1.82354E+03 -5.06276E+03 -2.27562E+02
 -1.87255E+03 -3.99284E+03  8.35717E+02 -5.20391E+03  2.31052E+03 -3.25653E+03  2.87821E+03 -1.23231E+03
  2.53249E+03  1.79932E+03  7.63732E+02  2.33164E+03 -1.39659E+03  1.59295E+03 -1.32410E+03 -3.85268E+02
 -7.75667E+02 -1.34089E+03  1.47519E+03 -1.28074E+03  2.49914E+03 -9.32339E+02  1.66700E+03  3.86057E+02
  1.22141E+03  3.44367E+02  5.50897E+02 -4.27283E+02 -1.57893E+02  8.65467E+02  1.98512E+03 -1.42075E+02
  4.09650E+02 -2.36877E+02  2.03325E+03  9.54480E+02  1.44842E+02  2.57056E+03 -4.29850E+02  3.19381E+03
 -2.36293E+03  1.44505E+03 -1.99479E+03  1.57529E+02 -1.44119E+03 -1.15573E+03 -2.22068E+02 -8.65588E+02
  5.46755E+02 -1.28674E+03  1.27515E+03 -3.66313E+02  8.36621E+02  1.21365E+03 -6.52544E+02  1.39658E+03
 -1.39209E+03  9.50668E+02 -1.47495E+03 -9.71998E+02 -1.36651E+03 -2.37034E+03  3.59871E+02 -1.76961E+03
  6.66806E+02 -4.97160E+02  1.07522E+03  4.59645E+02  1.63945E+03  2.03326E+02  1.05135E+03  9.12366E+02
  9.97795E+01 -5.23623E+01 -1.03675E+03  3.58005E+02  7.28280E+02 -4.41609E+02  2.08814E+03 -1.08782E+03
  1.39258E+03  7.74614E+02  2.86874E+03  7.39565E+02  6.51032E+02  1.59731E+03 -3.88818E+02  2.24163E+03
 -1.62600E+03  6.43139E+02 -1.74058E+03 -1.20922E+02 -1.15450E+03 -2.21723E+03  1.58129E+02 -1.24822E+03
  2.21315E+03 -4.97235E+02  2.06144E+02  7.61950E+02 -2.07502E+02  1.19358E+03  6.62304E+00  1.07214E+03
 -1.03803E+03  1.43560E+03 -2.50018E+02 -5.91492E+01  3.54469E+02 -2.37285E+02 -1.21088E+03  6.26036E+02
 -7.19105E+02  1.03630E+03 -1.80131E+03  5.39803E+02 -1.96541E+03  1.26918E+02 -3.25164E+03 -1.01491E+03
 -5.22896E+02 -2.60602E+03  1.22150E+03 -3.06405E+03  1.57965E+03 -2.41332E+03  3.27682E+03 -9.40579E+02
  2.30326E+03 -1.02754E+02  1.12389E+03  1.51809E+03 -1.15272E+03  1.29113E+03 -5.58158E+02  1.08087E+03
 -8.40657E+02  1.16007E+03 -5.42261E+02 -6.48450E+02 -1.17550E+03  4.13527E+02 -9.43901E+02  1.22696E+02
 -1.06511E+03 -1.15844E+02 -9.09378E+02 -1.25886E+02 -2.07722E+02 -9.47507E+02 -2.14022E+02 -9.03343E+02
  1.14223E+03 -1.12838E+03  4.96226E+02  2.62828E+02  5.98498E+02  1.56812E+03  4.80414E+01  4.91016E+02
 -8.52501E+02  2.83488E+03 -1.60762E+03  1.09607E+03 -2.32511E+03 -2.71352E+02 -1.10400E+03 -1.40993E+03
 -9.94928E+02 -1.34175E+03  6.67987E+02 -1.36232E+03  4.21745E+02 -2.56063E+02  3.20664E+02 -6.98021E+02
  4.39971E+02  2.22953E+02  1.03191E+02  9.30109E+02 -3.78461E+02  3.30397E+02 -4.49875E+02 -5.69768E+02
  2.66218E+02  8.74224E+01  7.17803E+01  6.26392E+02  2.25252E+02  8.14248E+02  2.30698E+02  4.29746E+02
 -4.15726E+02  4.49737E+02 -9.87613E+01 -1.61549E+01 -4.30936E+02 -4.72399E+02  9.83311E+01 -8.12269E+02
  8.14655E+02 -8.08632E+02  3.08127E+02  1.00247E+01  1.34190E+03 -6.54867E+02  7.36735E+02  2.21689E+02
  6.20175E+02  2.36048E+02  3.59140E+02  1.05761E+03 -3.24477E+02  7.81821E+02 -3.64532E+02 -1.38385E+02
  1.46842E+01  2.39970E+02  3.25560E+01  1.54862E+02 -5.50819E+02  1.61252E+02 -6.54113E+02 -2.40615E+02
 -1.12103E+03  2.29934E+02 -4.57180E+02 -1.37116E+03  1.15592E+03 -1.25051E+03  5.75331E+02 -1.07392E+02
  2.10774E+02  2.94321E+02 -3.08884E+02  8.42591E+02 -2.24235E+02  1.83689E+02  2.76225E+01  8.71333E+02
