 $NMID ID='MM_0lb_SNR400_20hz_g55_38.RAW', FMTDAT='(8E13.5)'
 TRAMP=1., VOLUME=1. $END
  3.10237E+05  5.09058E+02  3.37609E+05  2.50379E+05  8.42554E+04  3.37636E+05 -1.32522E+05  2.50252E+05
 -1.89784E+05  8.22319E+04 -1.10784E+05 -3.33730E+04  1.51753E+03 -5.03795E+04  5.38299E+04 -1.68434E+02
  3.53792E+04  5.34702E+04 -1.70205E+04  7.48396E+04 -5.98275E+04  6.27115E+04 -8.30827E+04  3.19270E+04
 -8.00346E+04 -1.11448E+04 -5.64091E+04 -5.07578E+04 -1.50043E+04 -6.83052E+04  2.71274E+04 -4.45965E+04
  3.92923E+04  4.04959E+03  1.52634E+04  4.72916E+04 -3.40253E+04  4.62081E+04 -6.52571E+04 -1.10293E+03
 -5.21767E+04 -5.57734E+04 -5.96547E+03 -7.55881E+04  3.27641E+04 -5.31611E+04  4.63865E+04 -1.64696E+04
  4.20290E+04  1.07284E+04  3.10276E+04  2.46904E+04  1.60266E+04  2.84791E+04 -4.55517E+03  2.66657E+04
 -2.14055E+04  1.35165E+04 -1.96015E+04 -4.37724E+03  3.84408E+03 -7.36811E+03  2.15120E+04  1.07727E+04
  7.44099E+03  3.37918E+04 -3.06218E+04  3.42432E+04 -6.14023E+04  1.48742E+03 -5.55800E+04 -4.16291E+04
 -1.24767E+04 -6.15065E+04  3.81513E+04 -4.36765E+04  5.57052E+04 -1.89444E+03  3.20501E+04  3.04287E+04
 -6.21922E+03  3.32182E+04 -2.86161E+04  1.36603E+04 -2.78978E+04 -5.32423E+03 -1.45256E+04 -9.99825E+03
 -7.59304E+03 -1.15712E+04 -8.65664E+02 -1.63225E+04  6.73191E+03 -2.25115E+04  1.48112E+04 -1.33131E+04
  1.22078E+04  4.12983E+03 -6.44897E+03  1.35624E+04 -1.93028E+04 -2.21044E+03 -8.35058E+03 -3.04942E+04
  2.12199E+04 -4.07376E+04  4.51977E+04 -1.83163E+04  4.20261E+04  1.82107E+04  1.41449E+04  4.12002E+04
 -1.57076E+04  3.14407E+04 -2.34426E+04  6.30794E+02 -8.26985E+03 -2.65637E+04  2.04257E+04 -3.12989E+04
  3.79814E+04 -7.67351E+03  3.13945E+04  2.18006E+04  1.54172E+04  4.26112E+04 -7.26527E+03  4.51505E+04
 -2.91189E+04  3.03113E+04 -3.73396E+04  8.71018E+03 -3.87009E+04 -1.47558E+04 -2.17678E+04 -3.40525E+04
  7.42290E+03 -3.39830E+04  2.83875E+04 -1.23213E+04  2.68296E+04  1.02692E+04  3.25996E+03  1.82109E+04
 -1.31785E+04  7.37077E+03 -9.83175E+03 -8.34237E+03  5.76562E+03 -9.97764E+03  1.74377E+04  6.31451E+03
  1.22708E+04  2.16762E+04 -6.65786E+03  2.31367E+04 -2.08549E+04  9.44455E+03 -2.51333E+04 -6.37329E+03
 -1.67599E+04 -1.59900E+04 -5.36200E+03 -1.66390E+04  3.79734E+03 -1.47233E+04  1.16564E+04 -1.39692E+04
  2.05826E+04 -1.15689E+04  2.77465E+04  8.57014E+02  2.07212E+04  1.54537E+04  4.29761E+03  3.24072E+04
 -1.58069E+04  2.77570E+04 -2.61004E+04  9.77583E+03 -2.01392E+04 -1.06379E+04 -3.62861E+03 -1.37979E+04
  2.76832E+03 -3.71537E+03 -2.71871E+03  5.45734E+03 -1.29030E+04  4.99516E+03 -1.34401E+04 -4.84564E+03
 -8.47743E+03 -1.55998E+04  4.27104E+03 -1.97559E+04  1.23373E+04 -1.38910E+04  1.44105E+04 -1.43735E+03
  8.36076E+03  1.04240E+04 -4.93038E+02  1.50565E+04 -1.02604E+04  8.35648E+03 -1.48526E+04 -3.28366E+03
 -1.14770E+04 -1.34937E+04 -1.15369E+03 -1.86616E+04  8.68786E+03 -1.50022E+04  1.60840E+04 -6.75653E+03
  1.41273E+04  4.55199E+02  9.79562E+03  3.67902E+03  5.25598E+03  1.17027E+02  7.59977E+03 -1.18695E+03
  1.35670E+04  2.74429E+03  1.39638E+04  1.21336E+04  8.68588E+03  2.43490E+04 -2.68016E+03  2.56611E+04
 -1.54559E+04  1.97434E+04 -2.37151E+04  9.50152E+03 -2.46350E+04 -1.42343E+03 -2.11730E+04 -1.32243E+04
 -9.61608E+03 -1.98151E+04  6.69367E+03 -1.87385E+04  1.61867E+04 -1.07666E+04  1.53746E+04  3.80080E+03
  6.17704E+03  1.08661E+04 -7.40761E+03  1.03012E+04 -1.29718E+04  2.88947E+03 -1.01276E+04 -7.48036E+03
  2.94686E+02 -1.21138E+04  5.78199E+03 -9.61267E+03  7.43913E+03 -1.50601E+03  1.36747E+03  4.91634E+03
 -5.29610E+03  1.58256E+03 -3.53067E+03 -4.73966E+03  5.07241E+02 -1.00729E+04  7.89573E+03 -9.67639E+03
  1.18035E+04 -4.37955E+03  1.12748E+04  2.61313E+03  9.82941E+03  9.08413E+03  4.92902E+03  1.36237E+04
 -2.03840E+03  1.60258E+04 -8.80506E+03  9.95581E+03 -1.07400E+04  3.32213E+03 -8.10930E+03 -1.91844E+03
 -4.34322E+03 -3.35069E+03 -1.22252E+03  1.23928E+03 -2.05451E+03  1.73578E+03 -3.66366E+03  3.71021E+03
 -7.53386E+03  5.65620E+00 -8.38270E+03 -6.84986E+03 -3.68055E+03 -1.13644E+04  3.65575E+03 -7.25596E+03
  6.77953E+03 -3.80314E+03  4.52527E+03  2.17310E+03  9.62165E+02  2.59280E+03 -2.56071E+03 -1.82788E+02
 -3.09318E+03 -5.17803E+03 -1.04512E+03 -7.30607E+03  3.80805E+03 -7.21687E+03  9.45647E+03 -3.66857E+03
  1.11038E+04 -3.46498E+01  8.00770E+03  5.47931E+03  1.55287E+03  7.84427E+03 -4.93235E+03  7.79434E+03
 -6.39332E+03  2.63535E+03 -3.29045E+03 -1.05535E+03  9.61424E+02 -1.36775E+03  4.41094E+03 -1.42214E+03
  3.62492E+03  2.70243E+03  5.35623E+02  5.83714E+03 -3.95401E+03  6.01764E+03 -7.60966E+03  2.17711E+03
 -4.49291E+03 -3.02113E+03  8.13892E+01 -5.90213E+03  3.35583E+03 -3.08579E+03  3.26604E+03  3.39509E+02
  3.97783E+02  3.57507E+03 -4.01555E+03  4.15345E+03 -3.85274E+03  2.25975E+03 -3.89092E+03 -4.80996E+02
 -3.33243E+03 -5.41089E+03  1.08551E+03 -6.42768E+03  5.30422E+03 -4.34115E+03  5.76869E+03  7.81775E+02
  4.35727E+03  4.93690E+03  1.06207E+02  7.20396E+03 -4.47000E+03  4.00063E+03 -4.66363E+03 -7.91023E+01
 -5.15678E+03 -4.56958E+03 -1.21061E+03 -4.31460E+03  2.04840E+03 -4.36160E+03  2.55925E+03 -3.05067E+03
  2.98308E+03 -1.69674E+02  6.56424E+02  1.16766E+03  9.61533E+02  2.79713E+02  1.40955E+02 -1.75881E+03
  3.36356E+03  1.49393E+02  4.52445E+03  6.64621E+02  4.80734E+03  2.57470E+03  5.12611E+03  6.44910E+03
 -1.01645E+03  7.92012E+03 -6.76589E+03  6.11979E+03 -8.58727E+03  1.14276E+03 -6.57475E+03 -1.37014E+03
 -3.42130E+03 -6.03128E+03 -3.95018E+02 -4.23571E+03  1.59811E+03 -2.05050E+03  1.39207E+03 -2.06093E+03
  1.40943E+03 -1.31724E+03  2.04763E+03 -2.50128E+03  3.35247E+03 -1.35448E+03  3.47217E+03  3.45910E+02
  3.61272E+03  1.22997E+03  8.29172E+02  2.89120E+03 -2.00210E+03  1.79990E+03 -4.25030E+03  2.11127E+03
 -4.62529E+03 -7.98209E+02 -1.68743E+03 -3.07804E+03  7.47065E+02 -4.58790E+03  2.49128E+03 -4.59601E+03
  4.45349E+03 -2.41849E+03  5.61912E+03 -4.90298E+01  4.12325E+03  3.10684E+03  8.22422E+02  4.69503E+03
 -1.69227E+03  4.94415E+03 -2.49884E+03  1.83213E+03 -1.69016E+03 -1.20514E+03  6.47038E+01 -3.39186E+02
 -1.06627E+02  2.85412E+02 -8.57750E+02  1.83100E+03 -1.84995E+03  9.79368E+02 -3.56219E+03 -5.49538E+02
 -1.06451E+03 -3.24208E+03  1.43043E+03 -4.32394E+03  2.75866E+03 -4.10538E+03  2.54687E+03 -1.00024E+03
  3.84590E+03  1.82966E+03  1.73811E+03  2.87811E+03 -5.29314E+02  3.84441E+03 -2.25120E+03  2.00875E+03
 -2.78518E+03  4.63424E+02 -2.54610E+03 -2.02400E+03 -1.85747E+02 -2.30927E+03  1.19054E+03 -2.30960E+03
  1.33461E+03 -1.03069E+03  1.63512E+03  7.81332E+02  5.60441E+02  1.48441E+03  6.92534E+02  5.70548E+02
  1.20477E+03  4.76845E+02  8.50009E+02  8.89928E+02  9.64735E+02  2.20486E+03  1.15776E+03  1.26871E+03
 -1.41819E+03  2.56304E+03 -1.85469E+03  3.82376E+03 -2.13837E+03  1.32979E+03 -3.67389E+03 -5.22455E+01
 -1.31901E+03 -2.95347E+03  4.81901E+02 -4.26709E+03  2.01860E+03 -1.80904E+03  2.28529E+03 -1.16546E+03
  2.05657E+03  1.55230E+03  5.05437E+02  2.30198E+03 -5.82074E+02  3.70138E+02 -4.67958E+02 -6.97359E+01
 -6.09335E+02 -1.14482E+03  9.91609E+02 -1.50956E+03  1.06230E+03 -1.20643E+03  9.89353E+02  3.13182E+02
  2.22972E+02  3.76476E+02  4.86694E+02 -4.04174E+02  5.95423E+01  6.37131E+02  1.28829E+03 -4.24287E+02
  4.86903E+01 -7.46141E+02  1.25364E+03  6.31747E+02 -2.49537E+02  1.84678E+03 -2.12615E+02  2.55189E+03
 -1.15677E+03  7.48354E+02 -1.87243E+03  6.27822E+01 -1.66328E+03 -4.58718E+02 -9.71278E+01 -5.22462E+02
  6.36508E+02 -1.14454E+03  9.16626E+02 -5.02423E+02  1.39235E+02  1.20142E+03 -2.79208E+02  1.16565E+03
 -7.28120E+02  9.96950E+02 -9.06966E+01 -1.01372E+03 -2.54635E+02 -2.33923E+03 -1.84574E+02 -1.13205E+03
 -1.67586E+02 -3.51939E+02  3.85578E+01 -2.16968E+02  8.80796E+02 -9.02248E+02  7.10833E+02  6.51235E+02
  1.88615E+02  3.05653E+02 -4.80378E+02 -1.84061E+01  7.83050E+02  3.20186E+02  1.84503E+03 -3.71770E+02
  2.30641E+02  3.37401E+02  2.48794E+03  5.12193E+02  1.00296E+03  9.15964E+02  2.99555E+02  1.05312E+03
 -1.20366E+03 -1.94630E+01 -7.38701E+02 -3.12464E+02 -6.99729E+02 -1.12489E+03  1.44438E+01  1.33750E+02
  1.05507E+03 -1.29382E+02  4.30239E+02  6.59576E+02 -8.58027E+01  8.96372E+02  6.85310E+02  4.21348E+02
  4.11599E+02  1.02036E+03 -2.82027E+02  6.69852E+01  3.03426E+02 -3.21766E+01 -6.47005E+02  1.91279E+02
 -4.59622E+02  7.93092E+02 -1.57835E+03  5.27443E+02 -1.19879E+03  9.61160E+01 -1.58838E+03 -1.29321E+03
 -4.94811E+02 -1.61200E+03  7.19611E+02 -2.21854E+03  9.43066E+02 -1.40748E+03  1.76201E+03 -8.19593E+02
  1.56504E+03 -9.29258E+01  5.65906E+02  1.57475E+03 -6.18993E+02  4.47343E+02 -8.43497E+02  7.47833E+02
 -8.17664E+02  6.19418E+02 -3.40778E+02  1.09572E+02 -6.70184E+02  1.69939E+02 -1.05208E+03  7.28093E+01
 -1.17919E+03 -3.25645E+02 -1.08430E+03  5.24567E+02  3.10054E+01 -7.23096E+02 -3.22829E+02 -6.43955E+02
  1.27355E+03 -2.73990E+02 -2.43060E+01 -2.17485E+02  9.09643E+02  4.62074E+02 -5.30413E+02  1.05184E+03
 -9.41460E+02  1.90868E+03 -6.75176E+02  4.39324E+02 -9.11605E+02 -8.75467E+02 -9.15886E+02 -1.15819E+03
 -7.70178E+02 -3.85555E+02  9.02822E+01 -5.88433E+02 -8.12620E+01 -9.58126E+01  1.31310E+02  1.04977E+02
  3.65554E+02  5.79410E+02  3.79448E+02  1.36246E+01 -3.10918E+02 -5.40426E+02 -4.59134E+02 -2.07557E+02
 -3.74569E+01 -1.29957E+02 -1.35260E+02  3.04369E+02 -1.20519E+02  4.61350E+02  4.02924E+02  4.67075E+02
 -5.69202E+02  7.93029E+02 -4.54431E+02  3.22894E+02 -4.64708E+02 -2.56262E+02  2.94095E+02 -9.93036E+02
  4.17730E+02 -9.38351E+02 -1.72209E+01 -7.85345E+01  8.48780E+02  6.71432E+01 -1.82461E+02  7.30296E+02
 -3.84107E+01 -2.87753E+00 -7.07170E+02  6.32989E+02 -1.78874E+02  4.41475E+02  8.47745E+01  5.95717E+02
 -7.84443E+01  3.17897E+02 -5.11634E+02  2.62658E+02 -4.59003E+02  6.15346E+02 -6.77628E+02 -2.04044E+02
 -7.58770E+02  3.43553E+02 -1.10564E+02 -3.56232E+02  5.44450E+02 -1.71244E+03  8.78394E+02  7.69863E+02
  6.68157E+02 -1.47367E+02 -6.34647E+02  1.67375E+02  2.02772E+02  6.44155E+02 -1.99520E+02 -6.55544E+01
