 $NMID ID='MM_0lb_SNR400_17hz_g50_27.RAW', FMTDAT='(8E13.5)'
 TRAMP=1., VOLUME=1. $END
  3.09713E+05  7.34521E+01  3.37905E+05  2.50530E+05  8.46032E+04  3.37451E+05 -1.32319E+05  2.50658E+05
 -1.89872E+05  8.29306E+04 -1.10708E+05 -3.30036E+04  1.06584E+03 -5.03591E+04  5.37889E+04 -1.28956E+02
  3.55649E+04  5.25062E+04 -1.69291E+04  7.49352E+04 -6.10139E+04  6.27194E+04 -8.32759E+04  3.19431E+04
 -8.06554E+04 -1.12295E+04 -5.71074E+04 -5.09455E+04 -1.51546E+04 -6.86897E+04  2.72684E+04 -4.47494E+04
  3.89626E+04  3.45131E+03  1.54112E+04  4.76452E+04 -3.35963E+04  4.68023E+04 -6.56818E+04 -1.69527E+02
 -5.26887E+04 -5.66126E+04 -6.65623E+03 -7.61463E+04  3.32377E+04 -5.43811E+04  4.72319E+04 -1.61667E+04
  4.24404E+04  1.08291E+04  3.14299E+04  2.50182E+04  1.52612E+04  2.85507E+04 -5.07505E+03  2.67950E+04
 -2.20705E+04  1.31012E+04 -1.90619E+04 -5.03615E+03  4.84805E+03 -7.86046E+03  2.16156E+04  1.21142E+04
  7.02027E+03  3.42137E+04 -3.09267E+04  3.46994E+04 -6.18537E+04  2.00698E+03 -5.60022E+04 -4.14232E+04
 -1.22515E+04 -6.20390E+04  3.85523E+04 -4.39781E+04  5.66462E+04 -2.03308E+03  3.32738E+04  3.13842E+04
 -6.82944E+03  3.41883E+04 -2.94506E+04  1.48157E+04 -2.88904E+04 -5.29582E+03 -1.50080E+04 -1.00448E+04
 -7.80615E+03 -1.28256E+04 -4.50631E+02 -1.70397E+04  6.90732E+03 -2.25977E+04  1.49446E+04 -1.34915E+04
  1.19991E+04  4.64422E+03 -7.40991E+03  1.31851E+04 -1.98290E+04 -3.04589E+03 -8.39372E+03 -3.23370E+04
  2.17121E+04 -4.13301E+04  4.63930E+04 -1.91499E+04  4.32053E+04  1.85341E+04  1.47468E+04  4.28282E+04
 -1.55523E+04  3.19371E+04 -2.47500E+04  1.41613E+03 -8.72980E+03 -2.68892E+04  2.07269E+04 -3.21388E+04
  3.99330E+04 -7.82618E+03  3.35405E+04  2.29378E+04  1.60726E+04  4.40565E+04 -7.89173E+03  4.74529E+04
 -2.91542E+04  3.15288E+04 -3.96276E+04  9.40638E+03 -3.93282E+04 -1.56148E+04 -2.21470E+04 -3.63219E+04
  6.98835E+03 -3.58210E+04  3.02593E+04 -1.36497E+04  2.79772E+04  1.03755E+04  3.26768E+03  1.83409E+04
 -1.30846E+04  7.51340E+03 -9.97385E+03 -7.36091E+03  6.05522E+03 -1.02541E+04  1.73480E+04  6.70826E+03
  1.29081E+04  2.16887E+04 -6.48828E+03  2.39915E+04 -2.20371E+04  1.01932E+04 -2.64012E+04 -6.00037E+03
 -1.87904E+04 -1.68257E+04 -6.12933E+03 -1.82987E+04  3.67021E+03 -1.64321E+04  1.37869E+04 -1.59979E+04
  2.34192E+04 -1.23505E+04  3.01879E+04  1.56157E+03  2.24170E+04  1.79301E+04  4.00580E+03  3.37157E+04
 -1.67225E+04  2.87025E+04 -2.70774E+04  9.57385E+03 -1.98195E+04 -1.03639E+04 -4.07285E+03 -1.37258E+04
  2.24195E+03 -3.44699E+03 -3.59550E+03  6.31336E+03 -1.45578E+04  5.19118E+03 -1.44642E+04 -6.01388E+03
 -9.55400E+03 -1.66593E+04  4.69871E+03 -2.06542E+04  1.30775E+04 -1.47568E+04  1.57328E+04 -2.05461E+03
  9.90559E+03  1.18517E+04 -1.11722E+03  1.65096E+04 -1.08601E+04  8.87399E+03 -1.66201E+04 -3.58408E+03
 -1.22991E+04 -1.49262E+04 -1.51956E+03 -1.97242E+04  9.29805E+03 -1.65732E+04  1.73653E+04 -7.92392E+03
  1.58622E+04  4.51151E+02  1.09384E+04  4.04937E+03  5.76964E+03  7.99933E+02  8.96442E+03 -2.02085E+03
  1.53233E+04  3.01801E+03  1.62716E+04  1.36188E+04  1.02292E+04  2.69582E+04 -2.81741E+03  2.93110E+04
 -1.74212E+04  2.25576E+04 -2.74238E+04  1.08983E+04 -2.75996E+04 -2.15037E+03 -2.37840E+04 -1.55777E+04
 -1.08874E+04 -2.25137E+04  7.89920E+03 -2.12060E+04  1.86416E+04 -1.13515E+04  1.69834E+04  3.84827E+03
  6.57631E+03  1.24500E+04 -7.51553E+03  1.12535E+04 -1.43339E+04  2.79149E+03 -1.12672E+04 -9.07832E+03
 -4.76416E+01 -1.39011E+04  6.73066E+03 -1.00497E+04  8.53741E+03 -1.58601E+03  1.96135E+03  5.45085E+03
 -6.51420E+03  1.71019E+03 -4.54032E+03 -5.22461E+03  8.61157E+02 -1.11893E+04  8.44677E+03 -1.15367E+04
  1.38787E+04 -5.70028E+03  1.43498E+04  2.78553E+03  1.25136E+04  1.09700E+04  5.70880E+03  1.63833E+04
 -2.07793E+03  1.81808E+04 -1.14342E+04  1.15891E+04 -1.30444E+04  3.20367E+03 -9.32936E+03 -2.49818E+03
 -4.74251E+03 -3.26213E+03 -8.23389E+02  1.38895E+03 -1.77681E+03  2.17052E+03 -4.27595E+03  4.12403E+03
 -8.91848E+03 -6.12025E+02 -9.39511E+03 -8.12833E+03 -3.34272E+03 -1.25195E+04  3.72958E+03 -9.19409E+03
  8.08770E+03 -3.60838E+03  5.26874E+03  2.54094E+03  7.29480E+02  3.65924E+03 -3.91270E+03  2.72845E+01
 -4.08141E+03 -6.25234E+03 -1.48020E+03 -8.56874E+03  4.80847E+03 -9.36305E+03  1.16860E+04 -4.59006E+03
  1.36404E+04  7.27976E+02  9.89997E+03  7.42376E+03  1.57150E+03  9.96294E+03 -6.58124E+03  9.53224E+03
 -7.84465E+03  2.82624E+03 -3.57306E+03 -1.76526E+03  1.58978E+03 -2.47301E+03  5.26722E+03 -9.97560E+02
  3.94919E+03  3.96647E+03  1.42846E+03  7.20972E+03 -4.69791E+03  7.16774E+03 -8.42269E+03  2.06658E+03
 -5.92934E+03 -4.48100E+03  3.08215E+02 -7.68499E+03  4.16284E+03 -3.64126E+03  3.61425E+03  1.72445E+03
  6.80700E+02  3.80299E+03 -3.92641E+03  6.46750E+03 -5.73503E+03  3.72289E+03 -5.43486E+03 -2.08660E+03
 -3.52390E+03 -7.70398E+03  1.54452E+03 -9.03557E+03  7.37542E+03 -6.02116E+03  7.27881E+03  1.25448E+03
  5.26190E+03  5.76569E+03 -4.09770E+02  8.00254E+03 -5.39982E+03  4.52745E+03 -6.29174E+03 -1.07680E+03
 -5.79554E+03 -5.52164E+03 -1.59700E+03 -5.23848E+03  2.97987E+03 -5.23395E+03  3.83893E+03 -2.93882E+03
  3.13785E+03  1.32412E+03  3.43756E+01  1.09592E+03  2.26686E+02 -8.35410E+02  3.06173E+02 -2.25395E+03
  4.82076E+03 -1.02393E+03  6.23855E+03  5.43649E+02  6.39196E+03  4.33083E+03  5.93073E+03  8.90106E+03
 -1.95903E+03  1.03016E+04 -9.47986E+03  8.36534E+03 -1.23374E+04  1.15922E+03 -9.67290E+03 -3.38540E+03
 -4.83228E+03 -8.05535E+03 -7.18635E+02 -6.48176E+03  2.31243E+03 -2.58434E+03  1.61217E+03 -2.35613E+03
  1.01168E+03 -1.45897E+03  2.51024E+03 -2.63299E+03  3.53370E+03 -1.91241E+03  4.08044E+03  5.60201E+02
  5.12352E+03  1.28702E+03  1.54712E+03  3.97013E+03 -1.91156E+03  4.16321E+03 -5.11589E+03  3.19622E+03
 -5.69352E+03 -1.34118E+03 -2.24725E+03 -4.00989E+03  1.80362E+01 -5.80908E+03  3.82174E+03 -6.84343E+03
  6.51642E+03 -3.39716E+03  7.93436E+03 -4.84599E+02  5.35939E+03  5.40931E+03  1.22279E+03  7.14217E+03
 -2.37540E+03  6.73102E+03 -3.93177E+03  3.07771E+03 -2.57907E+03 -1.16365E+03 -4.09033E+02 -8.30255E+02
  2.38538E+02  3.72772E+01 -9.05974E+02  2.08482E+03 -3.31442E+03  1.33141E+03 -4.28743E+03 -3.19111E+02
 -2.10560E+03 -4.82627E+03  4.10249E+02 -5.41716E+03  2.88480E+03 -5.06762E+03  4.56539E+03 -1.50431E+03
  5.02433E+03  2.55483E+03  2.63977E+03  4.42845E+03 -8.01873E+02  5.55921E+03 -3.36728E+03  2.96875E+03
 -4.50915E+03  3.52388E+02 -3.91684E+03 -2.70247E+03 -8.19678E+01 -4.08941E+03  2.54344E+03 -3.49658E+03
  3.44857E+03 -1.88738E+03  2.60331E+03  4.91765E+02  2.32669E+02  1.75219E+03  8.34628E+02  4.77912E+02
  1.21329E+03  4.90077E+02  1.80087E+03  1.24829E+03  7.80967E+02  2.19260E+03  1.51116E+03  2.41903E+03
 -1.46262E+03  3.80996E+03 -3.59833E+03  4.43326E+03 -4.54760E+03  2.05402E+03 -5.46068E+03 -1.20825E+03
 -2.32549E+03 -4.60864E+03  8.76866E+02 -5.88808E+03  2.20605E+03 -3.73124E+03  3.22098E+03 -1.35875E+03
  2.71779E+03  2.33227E+03  5.24532E+02  2.94720E+03 -8.96272E+02  1.37434E+03 -1.37524E+03 -3.49263E+02
 -7.87744E+02 -1.95240E+03  1.34046E+03 -1.83414E+03  1.33499E+03 -1.80568E+03  2.34997E+03  9.07304E+02
  1.30857E+03  1.38535E+03  9.39131E+02  3.20909E+02 -5.69686E+02  7.51263E+02  1.50625E+03 -7.58567E+01
  4.18682E+02 -3.84738E+02  2.30690E+03  8.05702E+02 -1.91949E+02  3.21885E+03 -9.32392E+02  3.12454E+03
 -2.17646E+03  1.91933E+03 -2.14157E+03  3.77788E+00 -2.63735E+03 -4.22478E+02 -5.55534E+02 -1.46434E+03
  6.72778E+02 -8.81756E+02  1.45626E+03 -7.00494E+02  7.98222E+02  1.67207E+03 -8.76563E+02  1.32210E+03
 -2.43847E+03  7.43786E+02 -1.77847E+03 -1.48358E+03 -1.23968E+03 -2.01755E+03 -1.80169E+02 -2.17535E+03
  9.11239E+02 -3.99482E+02  9.26611E+02 -9.11219E+01  1.73428E+03 -5.49261E+02  4.96693E+02  1.58415E+03
 -8.67293E+02 -3.19815E+02 -9.76935E+02 -9.92536E+02  7.93562E+02 -1.20956E+03  2.44904E+03 -1.30024E+03
  1.87741E+03  8.01568E+02  2.98724E+03  1.36434E+03  1.57336E+03  2.63532E+03 -8.49862E+02  2.47302E+03
 -1.78660E+03  4.52469E+02 -1.74467E+03 -2.34047E+02 -3.06969E+02 -1.80696E+03  5.97096E+02 -1.02673E+03
  1.99695E+03 -1.01329E+03  1.12562E+03  5.24950E+02  3.79836E+02  1.44752E+03  1.27456E+02  1.94834E+03
  3.24341E+02  1.70057E+03 -1.11572E+03  4.23902E+02 -1.66221E+02  7.79151E+02 -5.26884E+02  5.39225E+02
 -7.80170E+02  7.16101E+02 -2.27688E+03  2.88808E+02 -2.27351E+03  1.04109E+02 -3.37779E+03 -1.05410E+03
 -1.11694E+03 -2.57540E+03  7.01519E+02 -3.69366E+03  1.49232E+03 -2.65905E+03  3.72871E+03 -1.02870E+03
  3.46762E+03 -2.49968E+02  1.97245E+03  2.20503E+03 -9.20947E+02  1.88985E+03 -8.19746E+02  2.30543E+03
 -1.20107E+03  4.23765E+02 -9.18742E+02 -6.87751E+02 -2.29977E+02  5.20120E+02 -6.02504E+02 -2.09053E+01
 -8.02163E+02  2.88499E+02 -9.88613E+02  3.47940E+02 -1.62576E+01 -5.90420E+02 -2.57912E+02 -1.61068E+03
  1.20659E+03 -5.32704E+02  1.30693E+03  2.33551E+02  1.69037E+03  1.55952E+03 -3.68882E+02  1.66708E+03
 -1.21149E+03  2.62379E+03 -1.68976E+03  1.47944E+03 -2.13623E+03 -7.96697E+02 -1.44365E+03 -1.52280E+03
 -6.56669E+02 -2.42329E+03  5.75686E+02 -2.09325E+03  4.12541E+02 -1.22114E+03  5.16274E+02  9.57063E+01
  8.16200E+02  3.93047E+02  6.53492E+01  1.94191E+02 -6.12565E+02 -5.36903E+01 -1.80939E+02 -7.51784E+01
 -5.05624E+01 -2.06449E+01  1.21212E+02  5.81322E+02  1.74633E+02  1.12467E+03  5.97646E+02  1.20641E+03
 -1.38642E+03  6.66545E+02 -7.76630E+02 -5.65920E+02 -1.12527E+03 -5.60939E+01 -1.21151E+02 -1.37188E+03
  6.25720E+02 -1.56369E+03  1.07188E+03 -2.68758E+02  9.51248E+02 -4.08924E+02  5.49269E+02  1.01736E+03
  8.15090E+02  9.54785E+02 -4.36885E+02  7.50428E+02 -1.06339E+03  4.56098E+02 -1.09556E+03  5.61482E+02
 -6.95628E+01  4.26512E+02 -2.66747E+02  1.66294E+02 -1.24226E+03 -1.34276E+02 -1.22819E+03 -7.66473E+02
 -1.09325E+03  3.02170E+02 -1.21201E+03 -1.35077E+03  1.00789E+03 -2.41334E+03  1.17662E+03 -5.32396E+01
  1.00318E+03 -1.70385E+02  4.45473E+02  8.38022E+01 -3.57104E+02  9.37950E+02 -2.91645E+02  5.98610E+02
