 $NMID ID='MM_0lb_SNR400_18hz_g40_46.RAW', FMTDAT='(8E13.5)'
 TRAMP=1., VOLUME=1. $END
  3.09577E+05  2.48499E+02  3.37152E+05  2.50522E+05  8.42241E+04  3.37592E+05 -1.33031E+05  2.49904E+05
 -1.89410E+05  8.22802E+04 -1.10906E+05 -3.30213E+04  1.37873E+03 -5.01666E+04  5.36546E+04  2.72273E+02
  3.49581E+04  5.23991E+04 -1.70122E+04  7.45341E+04 -6.05337E+04  6.27055E+04 -8.29643E+04  3.14343E+04
 -7.95643E+04 -1.10845E+04 -5.62787E+04 -5.03431E+04 -1.50039E+04 -6.85794E+04  2.67401E+04 -4.43665E+04
  3.84876E+04  4.10291E+03  1.53257E+04  4.70072E+04 -3.36410E+04  4.57308E+04 -6.52358E+04 -3.22059E+02
 -5.21403E+04 -5.58331E+04 -6.26508E+03 -7.48197E+04  3.29557E+04 -5.26024E+04  4.61331E+04 -1.69573E+04
  4.09551E+04  1.05655E+04  3.07709E+04  2.43563E+04  1.53833E+04  2.81975E+04 -4.97168E+03  2.67119E+04
 -2.17331E+04  1.28259E+04 -1.88066E+04 -4.25599E+03  3.86654E+03 -7.64641E+03  2.07986E+04  1.08423E+04
  7.39412E+03  3.29294E+04 -2.97927E+04  3.43634E+04 -6.07352E+04  2.48862E+03 -5.53230E+04 -4.08628E+04
 -1.14455E+04 -6.04388E+04  3.76585E+04 -4.32981E+04  5.48295E+04 -1.37571E+03  3.11864E+04  3.03605E+04
 -6.65166E+03  3.25488E+04 -2.81796E+04  1.26508E+04 -2.73500E+04 -5.59433E+03 -1.38429E+04 -9.84351E+03
 -7.25958E+03 -1.09412E+04 -1.24837E+03 -1.65799E+04  6.78001E+03 -2.22943E+04  1.44335E+04 -1.41990E+04
  1.20588E+04  4.52921E+03 -6.05918E+03  1.31259E+04 -1.91748E+04 -1.80342E+03 -7.96936E+03 -3.05151E+04
  2.05554E+04 -3.95546E+04  4.45790E+04 -1.85151E+04  4.13062E+04  1.84478E+04  1.41824E+04  4.17077E+04
 -1.49545E+04  3.10165E+04 -2.34041E+04  9.14296E+02 -8.12987E+03 -2.63829E+04  1.98289E+04 -3.09010E+04
  3.72665E+04 -7.57929E+03  3.10864E+04  2.30939E+04  1.45313E+04  4.21006E+04 -7.68968E+03  4.46505E+04
 -2.87676E+04  2.97851E+04 -3.71528E+04  7.92350E+03 -3.75169E+04 -1.47894E+04 -2.10832E+04 -3.39176E+04
  6.32220E+03 -3.38304E+04  2.89973E+04 -1.24751E+04  2.68279E+04  1.08556E+04  2.90115E+03  1.73253E+04
 -1.31232E+04  7.34635E+03 -9.81780E+03 -7.32693E+03  5.86115E+03 -1.03267E+04  1.74711E+04  6.13605E+03
  1.24629E+04  2.15083E+04 -6.69795E+03  2.30443E+04 -2.11440E+04  8.87219E+03 -2.44262E+04 -6.37430E+03
 -1.66889E+04 -1.61857E+04 -5.60753E+03 -1.63354E+04  4.09492E+03 -1.48671E+04  1.23159E+04 -1.40223E+04
  2.09354E+04 -1.21061E+04  2.76212E+04  1.29343E+03  2.08785E+04  1.65288E+04  4.24312E+03  3.21510E+04
 -1.62118E+04  2.77844E+04 -2.57918E+04  9.53971E+03 -1.91322E+04 -9.68107E+03 -3.59563E+03 -1.34389E+04
  2.14768E+03 -4.66211E+03 -2.49088E+03  4.79809E+03 -1.31264E+04  5.20148E+03 -1.27359E+04 -4.68604E+03
 -8.13602E+03 -1.55222E+04  4.44559E+03 -1.88887E+04  1.23348E+04 -1.42037E+04  1.43470E+04 -1.13614E+03
  8.78414E+03  1.03603E+04 -6.29878E+02  1.54430E+04 -9.78911E+03  8.69144E+03 -1.55376E+04 -3.68626E+03
 -1.11088E+04 -1.41780E+04 -2.04230E+03 -1.87133E+04  8.54568E+03 -1.51117E+04  1.57518E+04 -7.37680E+03
  1.41728E+04  5.08781E+02  1.01796E+04  3.51746E+03  5.01279E+03  6.46032E+02  7.78812E+03 -1.15898E+03
  1.38896E+04  2.96926E+03  1.37936E+04  1.20753E+04  9.00643E+03  2.48322E+04 -3.36954E+03  2.60429E+04
 -1.54674E+04  2.02073E+04 -2.39476E+04  9.68615E+03 -2.49290E+04 -1.43639E+03 -2.11533E+04 -1.30736E+04
 -1.01840E+04 -1.95062E+04  5.93353E+03 -1.94815E+04  1.68646E+04 -1.09184E+04  1.56761E+04  3.22158E+03
  6.68491E+03  1.10489E+04 -7.14251E+03  1.00227E+04 -1.33281E+04  2.24717E+03 -1.02112E+04 -7.71954E+03
  8.18344E+02 -1.26366E+04  6.82826E+03 -9.33691E+03  7.78288E+03 -7.09823E+02  1.63358E+03  5.72257E+03
 -5.00852E+03  9.68467E+02 -4.04667E+03 -4.48815E+03  7.42900E+02 -9.98856E+03  7.75460E+03 -1.03065E+04
  1.20959E+04 -4.57700E+03  1.18038E+04  2.70233E+03  1.01305E+04  9.27843E+03  4.87265E+03  1.36033E+04
 -1.67932E+03  1.61264E+04 -9.02855E+03  1.01420E+04 -1.14278E+04  2.48167E+03 -8.55562E+03 -2.05241E+03
 -4.27792E+03 -3.20278E+03 -7.77906E+02  1.55595E+03 -1.85313E+03  1.81422E+03 -3.61852E+03  3.64541E+03
 -8.64980E+03 -4.24064E+02 -8.41767E+03 -7.57629E+03 -3.64422E+03 -1.13417E+04  3.48910E+03 -8.51605E+03
  6.97080E+03 -3.86216E+03  5.35846E+03  2.16200E+03  4.77103E+02  3.25682E+03 -3.56870E+03  2.25984E+02
 -3.24647E+03 -5.08706E+03 -1.36607E+03 -7.31775E+03  4.53208E+03 -7.98495E+03  9.68962E+03 -3.89828E+03
  1.22322E+04  3.77291E+02  8.47003E+03  6.33905E+03  2.16742E+03  8.52819E+03 -4.69294E+03  8.12258E+03
 -6.68950E+03  2.91971E+03 -2.99560E+03 -1.15910E+03  1.19870E+03 -1.22763E+03  4.59704E+03 -5.87849E+02
  3.88047E+03  3.31717E+03  4.49955E+02  6.53937E+03 -4.64944E+03  5.89023E+03 -7.98502E+03  2.04690E+03
 -5.06980E+03 -3.94967E+03 -2.49590E+01 -6.80190E+03  4.40949E+03 -2.69459E+03  3.42275E+03  5.59945E+02
  2.23388E+02  3.04224E+03 -4.14843E+03  4.41522E+03 -4.65522E+03  2.64392E+03 -4.16656E+03 -9.98257E+02
 -2.72609E+03 -5.96157E+03  1.33937E+03 -6.67896E+03  5.86293E+03 -4.89357E+03  6.20125E+03  9.83016E+02
  4.53621E+03  5.25937E+03  3.88867E+00  7.30543E+03 -4.90618E+03  3.81617E+03 -5.09356E+03 -2.82328E+02
 -5.61879E+03 -5.09952E+03 -1.36794E+03 -5.06769E+03  2.13666E+03 -4.71179E+03  2.71639E+03 -2.98826E+03
  3.14830E+03  2.35974E+02  2.34471E+02  1.00525E+03  7.20597E+02 -2.42816E+02  1.38030E+02 -2.05777E+03
  3.72759E+03 -6.90088E+02  5.13525E+03  1.00422E+02  5.48448E+03  2.91533E+03  5.57485E+03  8.01137E+03
 -1.19981E+03  8.21006E+03 -7.84948E+03  6.65574E+03 -1.00984E+04  1.59469E+03 -7.36498E+03 -2.12662E+03
 -3.95758E+03 -6.48977E+03 -6.83900E+02 -4.63724E+03  2.43627E+03 -2.07391E+03  1.72324E+03 -2.17851E+03
  1.65995E+03 -1.88193E+03  2.36220E+03 -1.91835E+03  3.28751E+03 -1.88902E+03  3.03364E+03  5.78555E+02
  4.33387E+03  5.51529E+02  1.15012E+03  3.45212E+03 -1.55474E+03  2.65501E+03 -4.42452E+03  2.67484E+03
 -5.14547E+03 -1.07456E+03 -2.00391E+03 -2.93506E+03  2.33066E+02 -5.21031E+03  3.70849E+03 -5.16983E+03
  5.24023E+03 -3.42016E+03  6.74708E+03  3.77152E+02  4.34859E+03  4.66894E+03  1.93877E+03  6.50404E+03
 -2.23008E+03  6.00660E+03 -3.52242E+03  2.22897E+03 -1.70398E+03 -1.10496E+03 -1.57955E+02 -7.50969E+02
 -8.58272E+02 -1.28738E+02 -1.11418E+03  2.40369E+03 -2.66795E+03  1.42926E+03 -4.67226E+03 -3.13106E+02
 -9.34408E+02 -3.94053E+03  9.43313E+02 -5.06465E+03  2.63312E+03 -4.26870E+03  3.59401E+03 -1.40154E+03
  3.72367E+03  2.78958E+03  2.12001E+03  3.20694E+03 -7.01911E+02  4.33297E+03 -2.56651E+03  2.53384E+03
 -4.13227E+03  2.48230E+02 -3.52076E+03 -2.88378E+03 -4.33390E+01 -3.29805E+03  1.40674E+03 -2.14031E+03
  2.77361E+03 -1.17838E+03  1.82875E+03  7.60630E+02  6.64908E+02  1.60161E+03  9.73564E+02  8.84792E+02
  1.71066E+03  8.28893E+02  1.45277E+03  1.13995E+03  6.16187E+02  2.16169E+03  1.48752E+03  1.24755E+03
 -1.45099E+03  3.45824E+03 -2.19905E+03  4.27969E+03 -3.02348E+03  1.49901E+03 -4.17869E+03 -7.24192E+02
 -2.36387E+03 -3.69233E+03  8.37897E+02 -5.33625E+03  2.43995E+03 -2.67232E+03  2.77800E+03 -1.02637E+03
  2.72931E+03  1.69045E+03  4.47854E+02  2.44090E+03 -1.12251E+03  1.27555E+03 -1.62075E+03 -5.96728E+02
 -6.44384E+02 -1.72413E+03  1.17944E+03 -1.82922E+03  1.55845E+03 -7.89797E+02  1.26347E+03  7.00157E+02
  7.85208E+02  4.07006E+02  4.56065E+02 -3.39797E+02 -5.46046E+02  9.74567E+02  1.22455E+03  1.05700E+02
 -2.29061E+02 -2.45149E+02  1.84546E+03  3.61547E+02  7.22228E+02  2.31189E+03 -2.24748E+02  2.86053E+03
 -2.08068E+03  1.50039E+03 -2.10450E+03  1.44416E+02 -1.87643E+03 -6.26394E+02 -3.78514E+02 -1.24422E+03
  5.05068E+02 -1.08957E+03  1.01122E+03 -8.01093E+02  3.97554E+02  8.20046E+02 -1.45099E+03  1.60931E+03
 -1.60887E+03  1.42827E+03 -1.86241E+03 -1.78793E+03 -1.29104E+03 -2.67631E+03  1.95295E+02 -1.85143E+03
  8.34384E+02 -6.05910E+02  1.12427E+03  4.18552E+02  1.54900E+03 -7.70060E+01  4.73184E+02  8.47401E+02
 -4.29340E+02  2.88479E+02 -1.30948E+03 -3.40471E+02  1.15106E+01 -7.70117E+02  1.96678E+03 -1.53223E+03
  1.35189E+03  6.96198E+02  2.75900E+03  1.05195E+03  1.02239E+03  2.00188E+03 -7.13938E+02  1.97799E+03
 -1.21359E+03 -2.15047E+02 -2.11828E+03 -6.17016E+02 -7.13142E+02 -1.62800E+03  1.18567E+03 -9.33857E+02
  1.48215E+03 -3.49242E+02  1.02663E+03  1.04827E+03  6.39142E+02  1.47843E+03  6.87343E+02  1.40056E+03
 -9.00343E+01  8.53602E+02 -5.27925E+02  4.53764E+02  1.49624E+02  2.64488E+02 -8.90613E+02  5.01309E+02
 -5.08960E+02  5.35286E+02 -1.88210E+03  3.30827E+02 -1.90901E+03  4.94239E+02 -2.62086E+03 -1.33333E+03
 -1.12976E+03 -2.83217E+03  1.82063E+02 -3.28733E+03  1.33748E+03 -2.92362E+03  3.07902E+03 -1.09728E+03
  2.81540E+03  1.31295E+02  1.68906E+03  2.23678E+03 -3.80839E+02  2.05907E+03 -1.16914E+03  1.57518E+03
 -1.07137E+02  1.07970E+03 -2.96888E+02 -1.98189E+02 -1.64904E+02 -3.29571E+02 -7.39421E+02  1.24572E+01
 -5.85002E+02  3.82691E+01 -9.36522E+02  4.19826E+02 -7.79009E+01 -7.87260E+02 -1.63276E+02 -1.42401E+03
  1.77638E+03 -5.16920E+02 -1.45826E+02 -3.07109E+02  1.76753E+03  1.25367E+03 -4.33402E+02  2.01575E+03
 -1.16358E+03  2.13105E+03 -1.78050E+03  1.16825E+03 -1.58954E+03 -3.49822E+01 -1.59755E+03 -1.47861E+03
 -1.77334E+03 -1.90898E+03  9.73551E+01 -1.58842E+03  2.64569E+02 -1.19078E+03  6.97841E+02  6.21567E+02
  1.56852E+01  1.44552E+02  2.62021E+02  5.32687E+02 -1.19104E+03 -5.64203E+01 -4.05295E+02 -2.32654E+02
  1.17884E+02  5.44463E+01  3.50960E+02  4.58800E+02 -2.93442E+02  7.68217E+02  3.74176E+02  2.01197E+02
 -8.59225E+02  3.04783E+02 -1.09478E+03  2.60684E+02 -5.84214E+02 -5.97567E+02  3.99627E+02 -1.37967E+03
  1.24028E+03 -6.81383E+02  4.57101E+02  1.64121E+02  1.12285E+03 -6.12319E+02  5.85334E+02  6.90534E+02
  5.00153E+02  7.78013E+02 -4.94653E+01  5.39348E+02 -6.08806E+02  7.65760E+02 -3.09039E+02  1.98191E+02
 -3.51572E+02 -3.87877E+02 -9.67027E+02  3.32704E+02 -8.39304E+02  2.69031E+02 -6.69188E+02 -3.24910E+02
 -1.06192E+03 -3.48609E+02 -3.22238E+02 -1.26234E+03  7.15645E+02 -1.77688E+03  9.42855E+02 -6.59659E+02
  8.87811E+02 -4.29801E+02 -4.14147E+02  5.42723E+02 -3.24826E+02  5.38505E+02 -4.17547E+02  8.06918E+02
