 $NMID ID='MM_0lb_SNR400_10hz_g60_13.RAW', FMTDAT='(8E13.5)'
 TRAMP=1., VOLUME=1. $END
  3.09737E+05  6.09247E+02  3.38360E+05  2.50278E+05  8.54615E+04  3.38276E+05 -1.32668E+05  2.52180E+05
 -1.90673E+05  8.45535E+04 -1.12506E+05 -3.26887E+04  1.93671E+02 -5.08811E+04  5.40264E+04 -6.29719E+02
  3.54181E+04  5.29911E+04 -1.65391E+04  7.66579E+04 -6.11247E+04  6.49596E+04 -8.57669E+04  3.19090E+04
 -8.27901E+04 -1.11095E+04 -5.79512E+04 -5.22807E+04 -1.50489E+04 -7.07846E+04  2.80103E+04 -4.72487E+04
  4.17098E+04  2.83338E+03  1.56157E+04  4.81416E+04 -3.54803E+04  4.80809E+04 -6.82098E+04  3.53529E+01
 -5.52009E+04 -5.78351E+04 -6.70476E+03 -7.83221E+04  3.54244E+04 -5.74403E+04  4.99962E+04 -1.81239E+04
  4.54398E+04  1.16429E+04  3.28073E+04  2.70159E+04  1.61634E+04  3.04925E+04 -5.38823E+03  2.76571E+04
 -2.27941E+04  1.23450E+04 -1.79356E+04 -5.36511E+03  6.28262E+03 -7.35244E+03  2.30938E+04  1.42103E+04
  7.34968E+03  3.83460E+04 -3.37196E+04  3.72626E+04 -6.61248E+04  2.13220E+03 -5.95417E+04 -4.43997E+04
 -1.24151E+04 -6.56465E+04  4.20243E+04 -4.71533E+04  6.07024E+04 -2.69622E+03  3.75197E+04  3.47844E+04
 -5.16528E+03  3.92910E+04 -3.17727E+04  1.86514E+04 -3.35399E+04 -3.68674E+03 -1.98840E+04 -1.20482E+04
 -8.91749E+03 -1.54175E+04 -4.31847E+02 -1.95387E+04  8.79961E+03 -2.40998E+04  1.55447E+04 -1.25938E+04
  9.95036E+03  6.43438E+03 -1.01260E+04  1.27173E+04 -2.37870E+04 -6.41566E+03 -8.90072E+03 -3.74120E+04
  2.50563E+04 -4.72638E+04  5.31932E+04 -2.08606E+04  4.86630E+04  2.19653E+04  1.66261E+04  4.74596E+04
 -1.63361E+04  3.60774E+04 -2.79345E+04  2.07918E+03 -1.10489E+04 -3.00647E+04  2.13292E+04 -3.72671E+04
  4.44920E+04 -1.20060E+04  4.07560E+04  2.52229E+04  2.16133E+04  5.20024E+04 -7.44225E+03  5.62562E+04
 -3.55052E+04  3.80955E+04 -4.81023E+04  1.11452E+04 -4.81000E+04 -1.92619E+04 -2.54977E+04 -4.23680E+04
  8.52635E+03 -4.20827E+04  3.47039E+04 -1.66954E+04  3.22449E+04  1.14556E+04  5.46302E+03  2.14519E+04
 -1.39591E+04  9.60408E+03 -1.12531E+04 -7.29961E+03  6.09176E+03 -1.10330E+04  1.81553E+04  5.44213E+03
  1.40272E+04  2.23300E+04 -5.56837E+03  2.67351E+04 -2.35569E+04  1.44146E+04 -3.11773E+04 -2.32238E+03
 -2.56740E+04 -1.82700E+04 -1.14358E+04 -2.44449E+04  4.54879E+03 -2.55444E+04  1.97882E+04 -2.30493E+04
  3.22030E+04 -1.42236E+04  3.86408E+04  5.37163E+03  2.64678E+04  2.43559E+04  4.24470E+03  4.15371E+04
 -1.99376E+04  3.42036E+04 -3.14105E+04  1.21121E+04 -2.27423E+04 -1.02443E+04 -4.44859E+03 -1.24177E+04
  4.50784E+02 -7.39768E+02 -8.04908E+03  8.51471E+03 -2.07466E+04  5.37393E+03 -2.02297E+04 -1.01094E+04
 -1.24912E+04 -2.37850E+04  6.29369E+03 -2.73537E+04  1.83296E+04 -1.99194E+04  2.23998E+04 -1.45621E+03
  1.37928E+04  1.54896E+04 -1.09084E+03  2.29094E+04 -1.67193E+04  1.29581E+04 -2.32430E+04 -5.24302E+03
 -1.75322E+04 -2.06518E+04 -2.05827E+03 -2.79486E+04  1.14119E+04 -2.32044E+04  2.28577E+04 -1.26573E+04
  2.21223E+04 -7.56836E+01  1.63625E+04  4.80839E+03  8.68397E+03  1.72706E+03  1.21812E+04 -1.94340E+03
  2.22554E+04  3.44618E+03  2.54682E+04  1.75646E+04  1.77647E+04  3.75530E+04 -3.13551E+03  4.49769E+04
 -2.51413E+04  3.73234E+04 -4.19047E+04  1.89739E+04 -4.46733E+04 -3.38580E+03 -3.59187E+04 -2.63257E+04
 -1.47648E+04 -3.73634E+04  1.25465E+04 -3.19156E+04  2.85333E+04 -1.54564E+04  2.38854E+04  7.71833E+03
  8.24152E+03  1.91096E+04 -1.13335E+04  1.57577E+04 -2.00125E+04  2.56134E+03 -1.48889E+04 -1.36359E+04
 -6.57140E+02 -1.90590E+04  1.08621E+04 -1.39691E+04  1.27724E+04 -2.08057E+03  3.18300E+03  8.47567E+03
 -9.51773E+03  3.86438E+03 -8.85905E+03 -6.60071E+03 -1.74922E+03 -1.88705E+04  1.19165E+04 -1.93597E+04
  2.30185E+04 -1.17849E+04  2.62434E+04  3.65500E+03  2.27638E+04  1.85906E+04  9.97672E+03  2.84685E+04
 -5.39489E+03  3.10426E+04 -2.02486E+04  1.90782E+04 -2.30244E+04  3.14184E+03 -1.53315E+04 -5.17808E+03
 -6.73615E+03 -7.68971E+03 -4.45184E+02  1.09727E+03 -2.42933E+03  2.68495E+03 -7.02205E+03  5.92095E+03
 -1.32931E+04 -7.80632E+02 -1.46844E+04 -1.19010E+04 -6.22412E+03 -1.90859E+04  5.96421E+03 -1.57815E+04
  1.30339E+04 -6.35399E+03  8.67178E+03  4.20750E+03 -7.95416E+02  6.97062E+03 -7.70677E+03 -4.28160E+02
 -6.95533E+03 -9.38141E+03 -1.54841E+03 -1.51728E+04  8.87819E+03 -1.63341E+04  2.00541E+04 -8.90731E+03
  2.37285E+04  1.90648E+03  1.69101E+04  1.35778E+04  2.74439E+03  1.80398E+04 -9.92840E+03  1.55135E+04
 -1.32075E+04  4.52974E+03 -6.56129E+03 -3.27506E+03  2.48992E+03 -4.75902E+03  7.71832E+03 -9.77662E+02
  7.18442E+03  7.00717E+03  1.09370E+03  1.21118E+04 -9.27142E+03  1.20099E+04 -1.55256E+04  2.71657E+03
 -1.03201E+04 -8.32367E+03 -5.67703E+02 -1.31696E+04  8.93513E+03 -6.28614E+03  8.74908E+03  3.74517E+03
  2.53494E+03  9.98778E+03 -7.35809E+03  1.15307E+04 -1.34554E+04  4.62087E+03 -1.42674E+04 -4.82518E+03
 -8.92098E+03 -1.52045E+04  3.87840E+03 -1.78930E+04  1.47855E+04 -1.06210E+04  1.69388E+04  2.92068E+03
  9.80811E+03  1.29503E+04 -1.42705E+03  1.55545E+04 -1.11166E+04  8.77750E+03 -1.22760E+04 -1.22145E+03
 -9.86571E+03 -1.01248E+04 -1.66700E+03 -1.25347E+04  6.17508E+03 -9.19546E+03  7.48568E+03 -3.22556E+03
  4.88761E+03  1.17000E+03 -9.30323E+02  1.59938E+03 -9.17112E+02 -3.23569E+03  2.96336E+03 -6.95436E+03
  1.13199E+04 -4.42407E+03  1.58400E+04  1.44219E+03  1.48410E+04  1.04006E+04  9.50384E+03  1.94523E+04
 -5.42712E+03  2.40956E+04 -2.02073E+04  1.74763E+04 -2.54420E+04  2.90040E+03 -2.04446E+04 -8.64679E+03
 -1.00661E+04 -1.63548E+04 -7.75000E+02 -1.47599E+04  6.02854E+03 -8.46268E+03  5.03508E+03 -4.86361E+03
  4.23789E+03 -2.44777E+03  4.10487E+03 -4.65924E+03  5.41459E+03 -3.36172E+03  8.71767E+03 -4.22519E+02
  1.02629E+04  2.30225E+03  5.43239E+03  8.78146E+03 -1.62262E+03  1.14443E+04 -1.13648E+04  8.68181E+03
 -1.44149E+04 -1.24585E+03 -9.43815E+03 -9.59354E+03 -1.87420E+03 -1.56217E+04  8.03129E+03 -1.54357E+04
  1.67319E+04 -8.14944E+03  1.91325E+04  2.67091E+03  1.31665E+04  1.26962E+04  2.03284E+03  1.74741E+04
 -7.46615E+03  1.41551E+04 -1.01548E+04  5.07518E+03 -6.70107E+03 -1.38097E+03 -3.25099E+03 -2.91398E+03
 -1.48857E+03  3.00270E+02 -2.15039E+03  3.96349E+03 -6.81683E+03  3.21886E+03 -1.02139E+04 -1.76923E+03
 -7.24565E+03 -9.60962E+03  2.28932E+02 -1.46120E+04  7.84047E+03 -1.33998E+04  1.39506E+04 -4.54606E+03
  1.39459E+04  7.69851E+03  6.23510E+03  1.23310E+04 -3.06478E+03  1.42677E+04 -1.04637E+04  8.63254E+03
 -1.34929E+04  8.13014E+02 -1.07062E+04 -8.87168E+03 -8.09527E+02 -1.19141E+04  5.83334E+03 -8.88834E+03
  9.26582E+03 -3.00794E+03  6.82808E+03  2.44460E+03  2.09990E+03  3.68479E+03  1.91443E+03  2.07384E+03
  2.53772E+03  9.82889E+02  2.59498E+03  1.95854E+03  4.11068E+03  5.04739E+03  4.24879E+03  7.97230E+03
 -2.75507E+03  1.12861E+04 -9.62993E+03  1.07045E+04 -1.56414E+04  2.68049E+03 -1.57462E+04 -6.25124E+03
 -6.51939E+03 -1.36807E+04  1.83100E+03 -1.58369E+04  8.99829E+03 -9.37786E+03  1.10962E+04 -1.54489E+03
  1.00162E+04  5.11981E+03  1.70955E+03  8.43978E+03 -3.86020E+03  5.21237E+03 -5.91982E+03 -6.70562E+02
 -3.24500E+03 -6.11134E+03  3.87099E+03 -6.72865E+03  6.19575E+03 -3.34921E+03  5.93674E+03  1.31300E+03
  3.76998E+03  3.24829E+03  1.84988E+03  1.89304E+03 -2.33935E+02  2.42060E+03  1.10353E+03 -6.28564E+02
  2.64845E+03 -1.13346E+03  6.29853E+03  2.39280E+03  2.84226E+03  6.90584E+03 -1.54384E+03  9.43781E+03
 -7.07072E+03  6.53476E+03 -8.95164E+03  2.73110E+03 -8.95128E+03 -3.59987E+03 -4.00559E+03 -5.87274E+03
  1.04243E+03 -5.92377E+03  4.66932E+03 -1.64112E+03  2.81269E+03  2.51815E+03 -1.31051E+03  4.25234E+03
 -4.96503E+03  2.12452E+03 -7.00311E+03 -2.99749E+03 -3.60981E+03 -7.38211E+03  1.31581E+03 -8.54058E+03
  4.55896E+03 -4.41421E+03  5.59180E+03 -6.83995E+02  5.05100E+03  1.73569E+03  4.59310E+02  4.40052E+03
 -1.76522E+03  1.03659E+03 -3.84404E+03 -2.71250E+03  1.42437E+03 -6.16718E+03  7.38214E+03 -5.06783E+03
  8.95252E+03  7.24228E+02  9.24913E+03  5.71527E+03  3.56420E+03  9.48047E+03 -3.81481E+03  8.82051E+03
 -7.74648E+03  3.55366E+03 -8.65183E+03 -7.96030E+02 -4.15785E+03 -6.16598E+03  1.51740E+03 -5.45426E+03
  6.18966E+03 -2.47867E+03  5.21179E+03  2.46757E+03  2.11922E+03  5.68020E+03 -8.78001E+02  4.16370E+03
 -3.16433E+03  2.86131E+03 -1.92256E+03  9.12604E+02 -1.41544E+03  6.36214E+02 -1.20313E+03  1.79098E+03
 -2.10483E+03  2.89617E+03 -6.49952E+03  2.17283E+03 -9.18997E+03 -5.73641E+02 -1.00560E+04 -5.60018E+03
 -4.71967E+03 -1.18976E+04  2.35377E+03 -1.36801E+04  9.09453E+03 -1.04590E+04  1.36050E+04 -4.73620E+03
  1.24123E+04  2.27290E+03  7.58345E+03  8.60581E+03  3.15457E+02  8.52776E+03 -4.56376E+03  6.16528E+03
 -5.76949E+03  2.72697E+03 -3.87413E+03 -2.12983E+03 -1.21328E+03 -7.04672E+02 -1.09358E+03  4.80876E+02
 -1.92005E+03  1.45926E+02 -2.39449E+03 -3.78585E+02 -1.12311E+03 -2.90204E+03 -5.23632E+02 -4.00802E+03
  4.58882E+03 -3.17255E+03  6.05566E+03 -8.05195E+01  6.07054E+03  5.43769E+03  1.91761E+03  8.98101E+03
 -4.56121E+03  1.08832E+04 -9.65483E+03  5.99980E+03 -1.16102E+04 -6.27456E+02 -8.15795E+03 -7.09068E+03
 -4.15190E+03 -1.05214E+04  3.31728E+03 -7.93301E+03  5.98190E+03 -4.41800E+03  5.82311E+03 -3.70050E+02
  3.91314E+03  2.64376E+03  2.17858E+02  2.85076E+03 -1.69545E+03 -1.79544E+02 -4.81689E+02 -2.36306E+03
  3.05699E+03 -1.15731E+03  3.82971E+03  7.61011E+02  2.53824E+03  3.41675E+03  5.97607E+02  5.17163E+03
 -3.73034E+03  4.21952E+03 -6.85476E+03 -5.95471E+00 -5.48051E+03 -4.01488E+03 -1.12354E+03 -7.97001E+03
  3.89906E+03 -6.12909E+03  7.43450E+03 -2.10116E+03  7.60073E+03  1.85798E+03  4.79987E+03  5.37100E+03
  4.47004E+02  6.53345E+03 -2.92876E+03  5.39787E+03 -3.55002E+03  3.11620E+03 -3.09157E+03  5.91305E+02
 -7.49394E+02 -7.41988E+02 -1.22571E+03  1.04327E+03 -3.58347E+03  1.01951E+03 -4.52671E+03 -9.63355E+02
 -4.05218E+03 -2.90607E+03 -1.16266E+03 -5.72724E+03  1.95869E+03 -6.19704E+03  5.31595E+03 -3.70463E+03
  6.52190E+03  4.13976E+02  3.26698E+03  4.11415E+03 -8.16094E+01  6.35040E+03 -3.91404E+03  4.73873E+03
