 $NMID ID='MM_0lb_SNR400_11hz_g50_73.RAW', FMTDAT='(8E13.5)'
 TRAMP=1., VOLUME=1. $END
  3.09561E+05  6.07203E+02  3.37147E+05  2.49968E+05  8.55664E+04  3.37413E+05 -1.32383E+05  2.51518E+05
 -1.89964E+05  8.39638E+04 -1.12554E+05 -3.24089E+04  1.04692E+02 -5.06587E+04  5.39862E+04  1.72778E+02
  3.50264E+04  5.31600E+04 -1.72497E+04  7.58551E+04 -6.13113E+04  6.43190E+04 -8.45367E+04  3.28361E+04
 -8.13197E+04 -1.11157E+04 -5.76895E+04 -5.19762E+04 -1.51969E+04 -7.02612E+04  2.76402E+04 -4.64530E+04
  4.06756E+04  3.33762E+03  1.67308E+04  4.88203E+04 -3.44482E+04  4.78772E+04 -6.72591E+04  5.92976E+01
 -5.43485E+04 -5.72407E+04 -7.12413E+03 -7.84325E+04  3.43801E+04 -5.64800E+04  4.94991E+04 -1.76203E+04
  4.42938E+04  1.09328E+04  3.17084E+04  2.54228E+04  1.52366E+04  2.97173E+04 -5.62789E+03  2.69024E+04
 -2.21700E+04  1.20653E+04 -1.87699E+04 -4.97487E+03  6.89977E+03 -7.25167E+03  2.30926E+04  1.31427E+04
  7.08145E+03  3.61142E+04 -3.39449E+04  3.68561E+04 -6.45037E+04  2.53625E+03 -5.86578E+04 -4.34675E+04
 -1.27367E+04 -6.48422E+04  4.14106E+04 -4.64229E+04  6.00270E+04 -2.47258E+03  3.60836E+04  3.35358E+04
 -5.51991E+03  3.81960E+04 -3.10185E+04  1.85567E+04 -3.16689E+04 -4.13848E+03 -1.85202E+04 -1.16222E+04
 -9.02797E+03 -1.49140E+04 -1.11226E+03 -1.91736E+04  8.36516E+03 -2.31625E+04  1.55152E+04 -1.27543E+04
  1.11376E+04  5.49402E+03 -9.65024E+03  1.28745E+04 -2.25895E+04 -5.73479E+03 -7.89549E+03 -3.57209E+04
  2.42617E+04 -4.55111E+04  5.05227E+04 -2.03581E+04  4.78357E+04  1.95070E+04  1.63912E+04  4.56047E+04
 -1.63114E+04  3.51203E+04 -2.69666E+04  1.96545E+03 -1.10804E+04 -2.89259E+04  2.12548E+04 -3.60348E+04
  4.32876E+04 -9.85559E+03  3.92037E+04  2.46711E+04  2.02596E+04  4.91180E+04 -8.97891E+03  5.36515E+04
 -3.45992E+04  3.65029E+04 -4.57972E+04  1.10434E+04 -4.55064E+04 -1.80770E+04 -2.53235E+04 -4.03674E+04
  7.66795E+03 -4.06589E+04  3.30754E+04 -1.63537E+04  3.10404E+04  1.07466E+04  5.01944E+03  1.97820E+04
 -1.35705E+04  8.76205E+03 -1.11293E+04 -6.55591E+03  6.07834E+03 -1.11564E+04  1.84240E+04  5.63077E+03
  1.39292E+04  2.27726E+04 -4.69418E+03  2.56964E+04 -2.29669E+04  1.35705E+04 -2.98680E+04 -4.42673E+03
 -2.36128E+04 -1.77880E+04 -9.90222E+03 -2.28118E+04  5.11644E+03 -2.33572E+04  1.86064E+04 -2.04602E+04
  2.99687E+04 -1.36176E+04  3.50340E+04  3.60398E+03  2.59780E+04  2.32269E+04  5.15153E+03  3.93350E+04
 -1.92085E+04  3.28679E+04 -2.95209E+04  1.07041E+04 -2.20168E+04 -1.02824E+04 -4.11485E+03 -1.36012E+04
  9.97676E+02 -9.96296E+02 -6.25249E+03  7.27517E+03 -1.89877E+04  4.99005E+03 -1.79414E+04 -8.74852E+03
 -1.07632E+04 -2.20393E+04  5.67953E+03 -2.55233E+04  1.73707E+04 -1.77195E+04  2.09438E+04 -2.25904E+03
  1.29988E+04  1.50012E+04 -1.46813E+03  2.17304E+04 -1.58039E+04  1.17134E+04 -2.20508E+04 -4.70168E+03
 -1.62471E+04 -1.94131E+04 -2.20987E+03 -2.66076E+04  1.13116E+04 -2.13239E+04  2.15197E+04 -1.03128E+04
  2.00483E+04  3.53610E+02  1.46274E+04  5.64987E+03  7.53030E+03  1.22839E+03  1.13538E+04 -1.36092E+03
  2.02006E+04  3.40368E+03  2.27744E+04  1.67979E+04  1.66236E+04  3.51876E+04 -2.64861E+03  4.00508E+04
 -2.24729E+04  3.27869E+04 -3.81304E+04  1.64802E+04 -3.95663E+04 -2.61600E+03 -3.28120E+04 -2.33596E+04
 -1.31263E+04 -3.39662E+04  1.19348E+04 -2.96384E+04  2.46921E+04 -1.38839E+04  2.28011E+04  6.77606E+03
  7.45202E+03  1.71026E+04 -1.04745E+04  1.39440E+04 -1.86445E+04  2.24899E+03 -1.31350E+04 -1.17576E+04
 -1.62398E+01 -1.79902E+04  9.85404E+03 -1.30515E+04  1.18658E+04 -1.49139E+03  3.09676E+03  7.30400E+03
 -7.63874E+03  3.36421E+03 -7.54687E+03 -6.03337E+03 -1.85365E+03 -1.62601E+04  1.10312E+04 -1.73976E+04
  1.96350E+04 -9.84623E+03  2.23083E+04  3.12277E+03  2.01569E+04  1.61574E+04  8.90357E+03  2.53236E+04
 -4.48669E+03  2.74813E+04 -1.79925E+04  1.73990E+04 -2.02039E+04  3.56679E+03 -1.37795E+04 -5.05407E+03
 -6.26302E+03 -6.10848E+03 -1.04178E+03 -1.33008E+02 -2.15179E+03  2.98960E+03 -6.30821E+03  4.91152E+03
 -1.27737E+04 -7.61208E+02 -1.30665E+04 -1.04945E+04 -5.61981E+03 -1.67206E+04  5.96864E+03 -1.39425E+04
  1.20769E+04 -6.94276E+03  7.52759E+03  4.22910E+03 -2.39313E+02  5.69557E+03 -7.04604E+03  6.00485E+02
 -6.67345E+03 -9.45444E+03 -6.78613E+02 -1.34288E+04  7.70465E+03 -1.43012E+04  1.77158E+04 -8.07218E+03
  2.08342E+04  2.64580E+03  1.50022E+04  1.19136E+04  3.09246E+03  1.57005E+04 -8.50564E+03  1.39624E+04
 -1.19533E+04  3.65048E+03 -5.48299E+03 -2.60487E+03  2.30892E+03 -3.19017E+03  7.51158E+03 -7.35610E+02
  6.16487E+03  6.12102E+03  1.18562E+03  1.04916E+04 -8.15133E+03  1.15650E+04 -1.42025E+04  2.16911E+03
 -9.50401E+03 -7.56824E+03 -2.32777E+02 -1.17407E+04  7.43827E+03 -6.19799E+03  7.41380E+03  2.37139E+03
  1.47883E+03  7.88035E+03 -6.75046E+03  9.40672E+03 -1.04712E+04  4.44297E+03 -1.16727E+04 -4.08264E+03
 -6.68027E+03 -1.30050E+04  3.27061E+03 -1.50917E+04  1.31760E+04 -9.04913E+03  1.36884E+04  1.44373E+03
  9.05790E+03  1.10255E+04 -7.43326E+02  1.31302E+04 -9.47319E+03  7.32127E+03 -1.05452E+04 -1.14434E+03
 -9.48246E+03 -8.79332E+03 -1.72659E+03 -1.08855E+04  5.74912E+03 -8.05354E+03  7.08575E+03 -3.04239E+03
  4.62517E+03  1.13874E+03 -1.28387E+03  1.72163E+03 -2.11416E+02 -2.38188E+03  2.88484E+03 -5.81577E+03
  8.94255E+03 -3.39906E+03  1.29021E+04  2.17435E+03  1.29117E+04  8.75714E+03  8.62449E+03  1.75267E+04
 -4.28929E+03  2.01424E+04 -1.74553E+04  1.44914E+04 -2.12563E+04  3.02789E+03 -1.78785E+04 -7.11518E+03
 -8.91169E+03 -1.48985E+04 -3.03840E+02 -1.29271E+04  3.96140E+03 -6.58332E+03  3.95474E+03 -4.50723E+03
  3.09614E+03 -2.28419E+03  3.44660E+03 -3.62342E+03  5.29399E+03 -3.01401E+03  6.78765E+03 -9.44223E+02
  8.70974E+03  1.97531E+03  4.92274E+03  7.80299E+03 -1.60254E+03  9.07408E+03 -9.55235E+03  6.04374E+03
 -1.17652E+04 -4.69857E+02 -7.26804E+03 -8.70866E+03 -7.42483E+02 -1.31181E+04  7.06348E+03 -1.30292E+04
  1.29739E+04 -7.17291E+03  1.60186E+04  1.54502E+03  1.12415E+04  1.11267E+04  1.30593E+03  1.43776E+04
 -5.65564E+03  1.19324E+04 -8.81727E+03  4.00141E+03 -6.03559E+03 -1.84320E+03 -2.07782E+03 -1.33350E+03
 -1.87727E+03 -3.99223E+02 -1.38576E+03  2.36422E+03 -5.34102E+03  1.95516E+03 -7.96878E+03 -1.42022E+03
 -5.30650E+03 -8.37620E+03  1.61522E+02 -1.15298E+04  7.26837E+03 -1.09211E+04  1.14720E+04 -3.16231E+03
  1.15439E+04  5.27744E+03  5.06694E+03  1.05714E+04 -2.15681E+03  1.13345E+04 -7.95675E+03  6.86319E+03
 -1.06539E+04  3.96193E+02 -8.28232E+03 -6.83273E+03 -6.08247E+02 -9.74772E+03  4.57797E+03 -6.81251E+03
  6.88922E+03 -2.30464E+03  4.80528E+03  1.33691E+03  2.21497E+03  3.75929E+03  1.13026E+03  1.45298E+03
  1.59804E+03  8.11801E+02  2.97017E+03  1.87368E+03  3.41413E+03  3.89259E+03  2.71633E+03  6.08747E+03
 -2.66897E+03  8.72372E+03 -7.91269E+03  9.06127E+03 -1.13120E+04  2.48678E+03 -1.19064E+04 -4.46514E+03
 -6.21778E+03 -1.19523E+04  1.61125E+03 -1.18728E+04  6.82547E+03 -7.88853E+03  9.14970E+03 -1.99822E+03
  7.05605E+03  4.44386E+03  7.17187E+02  6.89010E+03 -3.06833E+03  4.51055E+03 -4.06237E+03 -4.26568E+02
 -2.31511E+03 -4.58943E+03  3.38027E+03 -5.45508E+03  4.25878E+03 -2.03286E+03  4.31098E+03  8.28205E+02
  3.23421E+03  2.27021E+03  1.49622E+03  1.63525E+03 -6.52463E+02  1.67433E+03  1.64709E+03  4.69213E+02
  1.97464E+03 -1.08313E+03  4.85750E+03  2.48991E+03  2.66343E+03  5.51860E+03 -4.23179E+02  8.17178E+03
 -5.25348E+03  5.41894E+03 -8.00145E+03  1.07874E+03 -6.15220E+03 -2.54885E+03 -2.90844E+03 -4.08314E+03
  9.06036E+02 -3.96733E+03  2.98614E+03 -1.99241E+03  2.14443E+03  2.93873E+03 -4.54326E+02  2.96438E+03
 -4.22935E+03  2.65707E+03 -4.84975E+03 -2.98475E+03 -3.53177E+03 -6.18271E+03  8.42001E+02 -6.66423E+03
  4.37960E+03 -3.97292E+03  4.64032E+03  4.12498E+02  4.04789E+03  1.97880E+03  6.11034E+02  3.47434E+03
 -2.65236E+03  7.29577E+02 -2.81558E+03 -1.86675E+03  1.61235E+03 -4.70307E+03  4.85342E+03 -3.33976E+03
  6.59448E+03  4.29450E+02  6.52736E+03  3.63351E+03  1.94401E+03  7.17594E+03 -2.68401E+03  7.16568E+03
 -5.78562E+03  2.50658E+03 -5.94414E+03 -4.78638E+02 -3.09293E+03 -4.46375E+03  1.56537E+03 -4.01941E+03
  5.33269E+03 -2.03091E+03  3.96415E+03  1.68807E+03  1.03125E+03  3.94371E+03  3.12487E+01  4.16971E+03
 -1.80982E+03  2.68731E+03 -1.29972E+03  5.07132E+02 -8.91787E+02  6.21316E+02 -1.19519E+03  1.03084E+03
 -2.06795E+03  3.20628E+03 -5.01124E+03  2.41076E+03 -6.94609E+03  3.51570E+02 -8.06335E+03 -4.88842E+03
 -4.65388E+03 -9.21575E+03  1.99583E+03 -1.13492E+04  7.02461E+03 -7.93331E+03  1.04422E+04 -3.12008E+03
  1.00156E+04  2.07833E+03  6.16457E+03  6.10554E+03 -3.40662E+02  7.11687E+03 -3.06846E+03  5.49843E+03
 -3.47910E+03  1.49833E+03 -2.35373E+03 -7.97207E+02 -1.52674E+03 -9.79111E+02 -6.75690E+02 -1.60244E+01
 -1.31269E+03  8.25051E+02 -1.91730E+03 -1.35699E+02 -1.66699E+02 -1.76154E+03  9.34107E+01 -2.72666E+03
  3.62895E+03 -2.23616E+03  4.69152E+03  3.82317E+02  5.61983E+03  4.07751E+03  1.15359E+03  6.90278E+03
 -4.12155E+03  8.14608E+03 -7.31898E+03  4.81550E+03 -8.61444E+03 -8.82658E+02 -6.41310E+03 -5.58259E+03
 -3.07100E+03 -7.41856E+03  2.14133E+03 -6.45702E+03  4.11653E+03 -3.52240E+03  5.02343E+03  4.15294E+01
  2.98124E+03  3.16728E+03  2.22339E+02  1.97319E+03 -1.35060E+03 -1.06266E+02 -8.43404E+01 -2.20599E+03
  3.06618E+03 -1.31799E+03  2.70271E+03  1.07622E+03  2.00120E+03  2.92425E+03 -6.01172E+01  3.40984E+03
 -2.95118E+03  2.80891E+03 -4.53321E+03 -5.59486E+02 -3.92725E+03 -3.48535E+03 -6.54982E+02 -5.88713E+03
  3.52612E+03 -4.64575E+03  4.89759E+03 -1.08910E+03  5.53822E+03  1.16039E+03  2.42162E+03  4.10345E+03
  5.82485E+02  3.81681E+03 -1.87505E+03  3.51780E+03 -2.95500E+03  2.77615E+03 -3.16431E+03  1.19349E+02
 -1.67228E+03  1.27556E+02 -1.04836E+03  4.86412E+02 -2.50337E+03  7.55259E+02 -3.47307E+03 -2.45786E+02
 -3.58430E+03 -1.79880E+03 -1.48874E+03 -5.24633E+03  2.43817E+03 -4.64069E+03  3.91436E+03 -2.84935E+03
  3.88808E+03  4.12090E+02  2.40529E+03  3.08082E+03 -3.93443E+02  3.96175E+03 -3.76120E+03  2.91262E+03
