 $NMID ID='MM_0lb_SNR400_7hz_g50_37.RAW', FMTDAT='(8E13.5)'
 TRAMP=1., VOLUME=1. $END
  3.09880E+05  7.57079E+01  3.38045E+05  2.50268E+05  8.47933E+04  3.38531E+05 -1.32069E+05  2.51652E+05
 -1.91887E+05  8.46831E+04 -1.12962E+05 -3.25822E+04 -1.16513E+03 -5.17122E+04  5.35491E+04 -5.35601E+02
  3.65040E+04  5.30254E+04 -1.63593E+04  7.64140E+04 -6.11511E+04  6.51344E+04 -8.72841E+04  3.24251E+04
 -8.26370E+04 -1.17411E+04 -5.86905E+04 -5.28540E+04 -1.58669E+04 -7.04202E+04  2.81562E+04 -4.75482E+04
  4.15739E+04  3.17970E+03  1.70124E+04  4.94049E+04 -3.49619E+04  4.88106E+04 -6.83101E+04  5.66945E+02
 -5.52092E+04 -5.83617E+04 -7.35318E+03 -8.00046E+04  3.51228E+04 -5.71522E+04  5.05785E+04 -1.86658E+04
  4.52899E+04  1.23615E+04  3.38477E+04  2.66377E+04  1.64956E+04  3.08258E+04 -6.29510E+03  2.73483E+04
 -2.36698E+04  1.17720E+04 -1.75678E+04 -6.71872E+03  7.62127E+03 -8.08620E+03  2.38259E+04  1.46434E+04
  7.35806E+03  3.78043E+04 -3.41146E+04  3.77508E+04 -6.66110E+04  2.90455E+03 -6.09607E+04 -4.64251E+04
 -1.18355E+04 -6.72843E+04  4.23741E+04 -4.82732E+04  6.18631E+04 -1.84345E+03  3.76512E+04  3.50163E+04
 -4.95849E+03  4.06024E+04 -3.22549E+04  1.97281E+04 -3.41989E+04 -3.26544E+03 -2.14888E+04 -1.14926E+04
 -1.07509E+04 -1.73050E+04 -3.84609E+02 -1.99006E+04  9.04945E+03 -2.37140E+04  1.60998E+04 -1.18083E+04
  1.00347E+04  6.63630E+03 -1.11714E+04  1.32216E+04 -2.44821E+04 -7.67865E+03 -7.37262E+03 -3.94796E+04
  2.57851E+04 -4.91143E+04  5.32983E+04 -2.05287E+04  4.98154E+04  2.11154E+04  1.78735E+04  4.79445E+04
 -1.67836E+04  3.66920E+04 -2.75197E+04  3.05639E+03 -1.22511E+04 -3.06682E+04  2.20919E+04 -3.85483E+04
  4.64584E+04 -1.16539E+04  4.23795E+04  2.32771E+04  2.21523E+04  5.28479E+04 -7.73081E+03  5.85561E+04
 -3.66247E+04  4.03338E+04 -5.03470E+04  1.10824E+04 -4.88696E+04 -1.91130E+04 -2.72339E+04 -4.37643E+04
  7.83803E+03 -4.38151E+04  3.57892E+04 -1.76222E+04  3.24223E+04  1.09705E+04  5.25978E+03  2.20490E+04
 -1.44803E+04  1.07268E+04 -1.20883E+04 -7.85409E+03  5.55838E+03 -1.20747E+04  1.88471E+04  5.72816E+03
  1.53820E+04  2.21412E+04 -4.75403E+03  2.77785E+04 -2.29767E+04  1.57615E+04 -3.22247E+04 -2.16836E+03
 -2.82309E+04 -1.93940E+04 -1.33835E+04 -2.69823E+04  4.26764E+03 -2.75994E+04  2.19052E+04 -2.56158E+04
  3.46324E+04 -1.53519E+04  4.04741E+04  5.98964E+03  2.91455E+04  2.69054E+04  5.32395E+03  4.32131E+04
 -2.07303E+04  3.49160E+04 -3.21707E+04  1.23354E+04 -2.29486E+04 -9.33781E+03 -4.25762E+03 -1.25475E+04
  5.37610E+02 -4.16708E+02 -8.32044E+03  7.99009E+03 -2.23481E+04  4.88547E+03 -2.17973E+04 -1.08853E+04
 -1.25735E+04 -2.47630E+04  6.35765E+03 -2.94170E+04  2.00640E+04 -2.12680E+04  2.33164E+04 -2.15107E+03
  1.56855E+04  1.80431E+04 -1.81208E+03  2.49998E+04 -1.87696E+04  1.40177E+04 -2.60147E+04 -5.23943E+03
 -1.77144E+04 -2.27753E+04 -2.15259E+03 -3.00380E+04  1.33396E+04 -2.57171E+04  2.53251E+04 -1.31556E+04
  2.32165E+04 -9.58331E+02  1.70768E+04  5.22097E+03  9.47581E+03  1.02960E+03  1.41010E+04 -1.11001E+03
  2.43613E+04  2.95233E+03  2.78241E+04  1.98051E+04  2.03698E+04  4.04235E+04 -2.62538E+03  4.86392E+04
 -2.78275E+04  4.10508E+04 -4.57568E+04  2.17624E+04 -5.05322E+04 -3.42434E+03 -3.96347E+04 -2.89323E+04
 -1.59364E+04 -4.25219E+04  1.56833E+04 -3.50610E+04  2.96226E+04 -1.65883E+04  2.55122E+04  8.84546E+03
  8.57920E+03  2.08260E+04 -1.30291E+04  1.64593E+04 -2.19183E+04  3.02904E+03 -1.61186E+04 -1.49809E+04
 -1.39617E+03 -2.10186E+04  1.17066E+04 -1.57383E+04  1.49448E+04 -5.60566E+02  4.68985E+03  9.91953E+03
 -1.07211E+04  5.88886E+03 -1.04680E+04 -7.79133E+03 -3.09231E+03 -1.94563E+04  1.30393E+04 -2.25972E+04
  2.58711E+04 -1.22952E+04  3.04377E+04  3.15622E+03  2.57147E+04  2.14216E+04  1.15916E+04  3.24923E+04
 -6.30877E+03  3.55471E+04 -2.34412E+04  2.19139E+04 -2.58388E+04  4.15670E+03 -1.71547E+04 -7.02271E+03
 -7.19373E+03 -7.94708E+03 -4.67742E+02  7.38549E+02 -3.52840E+03  5.12004E+03 -7.69671E+03  5.66766E+03
 -1.48884E+04 -9.08817E+02 -1.62878E+04 -1.33455E+04 -5.85966E+03 -2.04803E+04  8.42452E+03 -1.76494E+04
  1.48542E+04 -6.19053E+03  9.69253E+03  5.17980E+03 -1.01503E+03  7.65449E+03 -9.07497E+03 -3.96703E+02
 -9.34449E+03 -1.14784E+04 -1.29407E+03 -1.79802E+04  1.07184E+04 -1.81366E+04  2.35446E+04 -9.37837E+03
  2.68586E+04  2.89866E+03  1.94505E+04  1.72911E+04  3.39463E+03  2.21541E+04 -1.16069E+04  1.76907E+04
 -1.48018E+04  4.81851E+03 -7.69979E+03 -4.12581E+03  2.64874E+03 -5.84512E+03  8.64452E+03 -1.15096E+03
  7.58377E+03  8.06669E+03  1.05488E+03  1.47747E+04 -1.04046E+04  1.35272E+04 -1.67827E+04  2.61013E+03
 -1.22995E+04 -1.00983E+04 -2.89366E+02 -1.67575E+04  1.03835E+04 -8.01542E+03  1.07505E+04  4.80060E+03
  3.68987E+03  1.22132E+04 -1.06407E+04  1.44818E+04 -1.64068E+04  5.97884E+03 -1.66227E+04 -6.70930E+03
 -9.03319E+03 -1.83152E+04  4.89149E+03 -2.13848E+04  1.85205E+04 -1.31842E+04  1.99198E+04  2.58047E+03
  1.15691E+04  1.59862E+04 -2.22837E+03  1.88302E+04 -1.43182E+04  1.05701E+04 -1.60002E+04 -2.21946E+03
 -1.11060E+04 -1.27582E+04 -2.49239E+03 -1.40015E+04  7.28083E+03 -1.18687E+04  8.93212E+03 -4.37319E+03
  5.40283E+03  3.47215E+03 -1.70568E+03  2.69898E+03 -1.95429E+03 -4.23728E+03  3.34351E+03 -8.85687E+03
  1.44006E+04 -6.19572E+03  1.98350E+04  2.07137E+03  1.90861E+04  1.36836E+04  1.17287E+04  2.52097E+04
 -6.98431E+03  2.91551E+04 -2.36295E+04  2.19857E+04 -2.99540E+04  4.18253E+03 -2.47892E+04 -1.13531E+04
 -1.28716E+04 -2.05440E+04 -5.29989E+02 -1.71148E+04  6.56992E+03 -1.06369E+04  6.78574E+03 -6.05008E+03
  4.66739E+03 -3.53422E+03  4.33413E+03 -4.36671E+03  7.07577E+03 -4.26354E+03  9.49311E+03 -2.00111E+03
  1.30265E+04  2.38296E+03  7.77204E+03  1.17382E+04 -1.54031E+03  1.41984E+04 -1.32748E+04  9.97321E+03
 -1.83728E+04 -1.80393E+03 -1.20437E+04 -1.35607E+04 -7.11321E+02 -1.92334E+04  1.01382E+04 -2.02403E+04
  2.04245E+04 -1.13270E+04  2.43233E+04  4.09196E+03  1.64275E+04  1.72576E+04  2.73800E+03  2.18240E+04
 -8.98898E+03  1.73361E+04 -1.22428E+04  5.65911E+03 -9.48962E+03 -2.50197E+03 -3.37880E+03 -2.00412E+03
 -2.27011E+03 -5.53382E+01 -3.38227E+03  2.70615E+03 -7.06082E+03  2.98348E+03 -1.17128E+04 -2.77691E+03
 -9.24447E+03 -1.19933E+04 -1.19518E+03 -1.78190E+04  1.07492E+04 -1.80108E+04  1.89083E+04 -5.10705E+03
  1.77239E+04  8.95664E+03  8.34182E+03  1.73842E+04 -4.08634E+03  1.84172E+04 -1.44657E+04  1.24464E+04
 -1.75214E+04  1.04899E+02 -1.30532E+04 -1.20882E+04 -1.91030E+03 -1.54640E+04  7.69430E+03 -1.08138E+04
  1.29874E+04 -3.67543E+03  7.14278E+03  3.42557E+03  2.95162E+03  4.69852E+03  1.20324E+03  2.90928E+03
  2.86531E+03  1.54060E+03  4.57029E+03  2.73335E+03  5.74965E+03  6.75639E+03  4.81755E+03  1.01125E+04
 -4.34673E+03  1.48813E+04 -1.42398E+04  1.39483E+04 -2.00078E+04  3.48315E+03 -2.05394E+04 -9.18965E+03
 -1.02339E+04 -1.92605E+04  2.48587E+03 -2.09405E+04  1.25661E+04 -1.35754E+04  1.60294E+04 -3.80553E+03
  1.24016E+04  7.86955E+03  3.23964E+03  1.07061E+04 -5.09077E+03  7.04632E+03 -7.46763E+03 -9.65148E+02
 -4.12798E+03 -8.68362E+03  4.51807E+03 -8.56327E+03  7.47027E+03 -4.55676E+03  7.65241E+03  2.02665E+03
  5.44661E+03  3.33368E+03  2.12610E+03  3.23839E+03 -7.21655E+02  2.67335E+03  2.01939E+03 -9.22321E+02
  3.85644E+03 -4.65301E+02  8.06407E+03  3.25120E+03  5.70706E+03  1.04135E+04 -2.86101E+03  1.35458E+04
 -1.00942E+04  9.34353E+03 -1.33000E+04  2.71366E+03 -9.63896E+03 -3.63391E+03 -4.93937E+03 -7.54140E+03
  6.75213E+02 -7.56332E+03  5.27816E+03 -3.29864E+03  4.91471E+03  3.92610E+03 -2.05253E+03  6.19144E+03
 -7.80402E+03  3.42217E+03 -9.24021E+03 -4.74726E+03 -5.54512E+03 -1.02132E+04  2.42546E+03 -1.14031E+04
  6.89152E+03 -7.41447E+03  8.12988E+03 -1.31649E+03  5.18458E+03  3.60223E+03  8.10975E+02  6.34038E+03
 -4.10562E+03  2.16657E+03 -4.63804E+03 -4.62907E+03  1.94943E+03 -9.45885E+03  1.05198E+04 -6.21466E+03
  1.34002E+04  1.76688E+03  1.09587E+04  9.44933E+03  3.76941E+03  1.38399E+04 -5.37970E+03  1.31647E+04
 -1.12393E+04  6.28346E+03 -1.11174E+04 -1.36342E+03 -7.55193E+03 -8.40430E+03  1.50054E+03 -8.42698E+03
  8.20936E+03 -4.17464E+03  7.65629E+03  3.70749E+03  2.17109E+03  7.81464E+03 -1.46822E+03  6.63302E+03
 -2.99753E+03  4.58121E+03 -3.13318E+03  1.00484E+03 -2.18300E+03  2.09658E+03 -1.56010E+03  2.19192E+03
 -3.77026E+03  5.06790E+03 -8.74936E+03  5.43000E+03 -1.40946E+04  1.59522E+02 -1.56038E+04 -9.84328E+03
 -8.07619E+03 -1.79640E+04  2.91526E+03 -2.11313E+04  1.32112E+04 -1.68920E+04  1.96285E+04 -6.15532E+03
  1.86307E+04  3.56518E+03  1.19846E+04  1.27309E+04  1.01124E+03  1.46823E+04 -6.17589E+03  1.06449E+04
 -8.72880E+03  4.17967E+03 -5.01910E+03 -1.56118E+03 -1.57604E+03 -1.62001E+03 -6.77648E+02 -5.46901E+02
 -2.43470E+03  2.85228E+02 -3.72699E+03 -9.35229E+02 -1.68277E+03 -2.45699E+03  8.77777E+02 -6.24356E+03
  5.72186E+03 -4.32851E+03  9.08225E+03 -4.46168E+02  1.04127E+04  7.83474E+03  3.43839E+03  1.50970E+04
 -7.68893E+03  1.57623E+04 -1.58691E+04  1.01227E+04 -1.85104E+04 -8.59710E+02 -1.46426E+04 -1.07367E+04
 -5.21438E+03 -1.56383E+04  4.06834E+03 -1.41653E+04  9.75834E+03 -7.65348E+03  1.02507E+04  3.49422E+02
  5.88590E+03  5.55575E+03 -1.41805E+03  3.71855E+03 -3.76018E+03 -7.60733E+02  5.90019E+02 -2.45394E+03
  5.22247E+03 -2.16502E+03  6.79265E+03  2.13107E+03  3.79071E+03  5.73461E+03  1.01300E+03  8.75792E+03
 -5.96455E+03  7.06978E+03 -1.03285E+04  6.47380E+02 -8.73040E+03 -7.79092E+03 -7.92105E+02 -1.27395E+04
  7.19843E+03 -1.13020E+04  1.20563E+04 -4.11263E+03  1.15944E+04  3.44976E+03  6.35441E+03  9.88218E+03
  1.49610E+03  1.09374E+04 -3.99445E+03  8.89270E+03 -6.65784E+03  3.73549E+03 -6.18715E+03  1.18578E+03
 -2.39382E+03 -3.39329E+02 -3.18144E+03  1.46823E+03 -4.81630E+03  1.57039E+03 -7.03008E+03 -6.59543E+02
 -7.51910E+03 -5.55011E+03 -2.45970E+03 -1.02887E+04  4.86638E+03 -1.07463E+04  9.56061E+03 -5.01265E+03
  1.04225E+04  7.42460E+02  6.36001E+03  7.19751E+03 -1.08400E+03  1.09122E+04 -7.92029E+03  6.83130E+03
