 $NMID ID='MM_0lb_SNR400_9hz_g60_23.RAW', FMTDAT='(8E13.5)'
 TRAMP=1., VOLUME=1. $END
  3.09983E+05 -2.34411E+02  3.38055E+05  2.51611E+05  8.58796E+04  3.38886E+05 -1.32877E+05  2.52876E+05
 -1.90434E+05  8.33532E+04 -1.12626E+05 -3.28139E+04 -1.75601E+02 -5.09914E+04  5.41766E+04  3.42057E+01
  3.56360E+04  5.29860E+04 -1.63282E+04  7.65144E+04 -6.18189E+04  6.45618E+04 -8.55719E+04  3.24916E+04
 -8.27985E+04 -1.22281E+04 -5.81526E+04 -5.24584E+04 -1.56485E+04 -7.15954E+04  2.87081E+04 -4.68440E+04
  4.17841E+04  4.48293E+03  1.56637E+04  4.95051E+04 -3.43568E+04  4.86011E+04 -6.86592E+04 -5.12097E+02
 -5.53152E+04 -5.79549E+04 -8.01395E+03 -7.94030E+04  3.44586E+04 -5.71808E+04  5.04379E+04 -1.82922E+04
  4.51703E+04  1.20394E+04  3.30406E+04  2.70676E+04  1.51393E+04  3.09190E+04 -6.23344E+03  2.81158E+04
 -2.23009E+04  1.12622E+04 -1.78086E+04 -5.50232E+03  7.55186E+03 -7.82237E+03  2.34721E+04  1.45881E+04
  7.38945E+03  3.83906E+04 -3.38129E+04  3.79325E+04 -6.68474E+04  2.33730E+03 -5.90066E+04 -4.43474E+04
 -1.23013E+04 -6.62031E+04  4.15125E+04 -4.74085E+04  6.22561E+04 -3.11235E+03  3.73151E+04  3.48741E+04
 -5.94752E+03  4.03924E+04 -3.27175E+04  1.92880E+04 -3.53995E+04 -3.34616E+03 -2.06749E+04 -1.17938E+04
 -9.87448E+03 -1.52661E+04 -1.48534E+02 -2.07684E+04  8.84322E+03 -2.36501E+04  1.58973E+04 -1.25862E+04
  1.04935E+04  6.75028E+03 -1.07382E+04  1.28179E+04 -2.40734E+04 -7.51822E+03 -8.20990E+03 -3.90191E+04
  2.59711E+04 -4.75284E+04  5.32040E+04 -2.10963E+04  4.93362E+04  2.06075E+04  1.71224E+04  4.78182E+04
 -1.63968E+04  3.63690E+04 -2.84297E+04  3.18327E+03 -1.25701E+04 -2.96107E+04  2.10183E+04 -3.77120E+04
  4.53636E+04 -1.20764E+04  4.19519E+04  2.53220E+04  2.17784E+04  5.25781E+04 -7.85101E+03  5.72576E+04
 -3.58577E+04  4.01914E+04 -4.84609E+04  1.13499E+04 -4.91420E+04 -1.94570E+04 -2.73922E+04 -4.28680E+04
  8.24858E+03 -4.20030E+04  3.48391E+04 -1.74323E+04  3.23167E+04  1.15687E+04  5.31591E+03  1.99608E+04
 -1.39683E+04  9.89916E+03 -1.20696E+04 -6.79130E+03  5.98675E+03 -1.15260E+04  1.90625E+04  5.47084E+03
  1.56164E+04  2.31467E+04 -4.99607E+03  2.69430E+04 -2.32754E+04  1.45760E+04 -3.15986E+04 -2.71572E+03
 -2.65738E+04 -1.79255E+04 -1.17827E+04 -2.57899E+04  4.51483E+03 -2.78571E+04  2.05558E+04 -2.43046E+04
  3.28396E+04 -1.46835E+04  3.90888E+04  6.00042E+03  2.86555E+04  2.59940E+04  4.65056E+03  4.21848E+04
 -1.96360E+04  3.46744E+04 -3.14408E+04  1.21808E+04 -2.36495E+04 -1.08079E+04 -5.96448E+03 -1.24880E+04
  8.27663E+01  9.93728E+01 -7.91788E+03  8.28773E+03 -2.13846E+04  4.59968E+03 -2.03549E+04 -9.58231E+03
 -1.27012E+04 -2.49573E+04  6.76523E+03 -2.95284E+04  2.06066E+04 -2.08805E+04  2.31910E+04 -2.38285E+03
  1.52989E+04  1.72948E+04 -1.84720E+03  2.42006E+04 -1.71816E+04  1.34117E+04 -2.47892E+04 -5.36925E+03
 -1.73172E+04 -2.16986E+04 -1.80406E+03 -2.90771E+04  1.36513E+04 -2.36607E+04  2.44409E+04 -1.31193E+04
  2.26237E+04 -5.78549E+02  1.69272E+04  5.08981E+03  9.75306E+03  2.15613E+03  1.24858E+04 -2.07727E+03
  2.25561E+04  3.07849E+03  2.75117E+04  1.82508E+04  1.72008E+04  3.87976E+04 -2.27341E+03  4.67008E+04
 -2.63480E+04  3.83896E+04 -4.38783E+04  2.10647E+04 -4.72993E+04 -3.27286E+03 -3.84149E+04 -2.67104E+04
 -1.52988E+04 -3.94434E+04  1.49066E+04 -3.45302E+04  3.06502E+04 -1.56785E+04  2.52401E+04  8.70065E+03
  8.54729E+03  1.95500E+04 -1.24673E+04  1.56745E+04 -2.10173E+04  2.48469E+03 -1.53751E+04 -1.36731E+04
 -5.69735E+02 -1.97607E+04  1.07986E+04 -1.40589E+04  1.42072E+04 -7.30267E+02  3.55261E+03  9.47023E+03
 -8.34686E+03  4.75809E+03 -9.83194E+03 -6.85202E+03 -1.72865E+03 -1.84194E+04  1.20044E+04 -1.99802E+04
  2.42044E+04 -1.12912E+04  2.82773E+04  2.80620E+03  2.42211E+04  1.98420E+04  1.08300E+04  3.13004E+04
 -6.32508E+03  3.22152E+04 -2.13285E+04  2.05496E+04 -2.37779E+04  4.19319E+03 -1.59259E+04 -5.87404E+03
 -6.91255E+03 -7.44435E+03 -9.24712E+02 -6.85334E+02 -2.34703E+03  3.21663E+03 -7.70262E+03  5.78181E+03
 -1.51728E+04 -1.08707E+03 -1.56145E+04 -1.18614E+04 -7.02238E+03 -1.99651E+04  7.59362E+03 -1.60395E+04
  1.42789E+04 -7.04348E+03  9.48679E+03  4.46688E+03 -4.40159E+02  6.56852E+03 -8.78505E+03  2.97981E+02
 -7.46521E+03 -1.04328E+04 -1.12697E+03 -1.57209E+04  9.00809E+03 -1.82107E+04  2.11201E+04 -9.76481E+03
  2.53860E+04  2.69583E+03  1.75394E+04  1.59841E+04  3.97317E+03  2.01535E+04 -1.01526E+04  1.58633E+04
 -1.32325E+04  4.42285E+03 -6.92804E+03 -3.66147E+03  2.09995E+03 -4.57212E+03  8.57640E+03 -5.69242E+02
  7.77720E+03  6.81024E+03  1.00775E+03  1.34846E+04 -1.00482E+04  1.28068E+04 -1.70195E+04  2.74482E+03
 -1.11259E+04 -8.43403E+03 -4.43327E+02 -1.41870E+04  8.77515E+03 -7.43540E+03  9.50691E+03  3.17198E+03
  1.69449E+03  1.09026E+04 -8.17176E+03  1.24855E+04 -1.46627E+04  4.79574E+03 -1.53330E+04 -5.69774E+03
 -8.30634E+03 -1.72726E+04  4.70574E+03 -1.90888E+04  1.63040E+04 -1.10011E+04  1.82394E+04  3.33482E+03
  1.03879E+04  1.45658E+04 -1.56276E+03  1.62686E+04 -1.21128E+04  9.40565E+03 -1.37016E+04 -7.41827E+02
 -1.17226E+04 -1.10217E+04 -2.03203E+03 -1.25457E+04  6.57428E+03 -1.05994E+04  7.65894E+03 -4.31998E+03
  4.53903E+03  2.64980E+03 -1.49043E+03  1.64024E+03 -3.82056E+02 -3.32876E+03  2.78028E+03 -8.49831E+03
  1.23902E+04 -5.65103E+03  1.70246E+04  1.99368E+03  1.69826E+04  1.16601E+04  1.15417E+04  2.23564E+04
 -3.77292E+03  2.57578E+04 -2.13576E+04  1.85858E+04 -2.80446E+04  4.13686E+03 -2.24971E+04 -9.56969E+03
 -1.15417E+04 -1.82194E+04  1.17253E+01 -1.55649E+04  5.91962E+03 -9.14357E+03  6.17200E+03 -5.30140E+03
  4.98069E+03 -4.33491E+03  3.34183E+03 -3.59420E+03  6.69584E+03 -3.98904E+03  9.44013E+03 -1.86265E+03
  1.21689E+04  1.88895E+03  5.80594E+03  9.93114E+03 -2.41110E+03  1.29579E+04 -1.23789E+04  9.01015E+03
 -1.50533E+04 -1.73715E+03 -1.03934E+04 -1.11486E+04 -1.44222E+03 -1.69798E+04  8.62064E+03 -1.69316E+04
  1.76609E+04 -9.88673E+03  2.08058E+04  3.40572E+03  1.52140E+04  1.51446E+04  1.92678E+03  2.01781E+04
 -8.05022E+03  1.52566E+04 -1.25444E+04  5.30529E+03 -7.69874E+03 -1.89047E+03 -3.00500E+03 -2.48240E+03
 -1.85400E+03  2.34643E+02 -1.86314E+03  3.25751E+03 -6.72585E+03  2.56433E+03 -1.04640E+04 -1.97610E+03
 -8.66541E+03 -9.96399E+03  2.40250E+02 -1.51616E+04  9.50903E+03 -1.47716E+04  1.60463E+04 -4.07399E+03
  1.56474E+04  8.16211E+03  8.06163E+03  1.39054E+04 -2.84409E+03  1.55274E+04 -1.17581E+04  9.76676E+03
 -1.52346E+04  1.44358E+03 -1.23772E+04 -1.04307E+04 -1.21750E+03 -1.32833E+04  7.74736E+03 -9.42207E+03
  1.04003E+04 -2.49452E+03  6.66555E+03  2.37023E+03  2.93844E+03  4.84410E+03  1.66858E+03  2.51590E+03
  2.49912E+03  1.39425E+03  3.89772E+03  2.78177E+03  4.58992E+03  5.64618E+03  4.37082E+03  8.28105E+03
 -2.71144E+03  1.35319E+04 -1.13040E+04  1.28389E+04 -1.74107E+04  3.46613E+03 -1.80028E+04 -7.48465E+03
 -8.97189E+03 -1.64064E+04  2.47186E+03 -1.83867E+04  9.66463E+03 -1.10752E+04  1.29473E+04 -3.11145E+03
  1.06020E+04  6.76315E+03  2.07036E+03  9.68755E+03 -4.78316E+03  5.61824E+03 -6.61186E+03 -8.23444E+02
 -3.39867E+03 -6.37949E+03  3.54918E+03 -7.00523E+03  6.19112E+03 -3.64050E+03  6.33928E+03  1.81894E+03
  4.18776E+03  3.71686E+03  1.66651E+03  2.54172E+03 -9.48349E+02  2.41282E+03  2.62477E+03 -6.81103E+01
  3.50106E+03 -1.22937E+03  6.35624E+03  2.17930E+03  3.94846E+03  8.37125E+03 -1.70578E+03  1.17031E+04
 -8.11229E+03  7.73687E+03 -9.68634E+03  1.95186E+03 -9.28589E+03 -3.98063E+03 -4.06819E+03 -6.99322E+03
  1.04650E+03 -6.53568E+03  4.79903E+03 -3.07425E+03  3.08192E+03  3.02123E+03 -1.55280E+03  6.01514E+03
 -7.62460E+03  2.95796E+03 -7.78202E+03 -3.53004E+03 -5.25497E+03 -8.78187E+03  1.87143E+03 -8.66765E+03
  5.56585E+03 -5.33327E+03  6.14601E+03 -1.62377E+03  5.48913E+03  2.38344E+03  8.47200E+02  5.94754E+03
 -3.22839E+03  7.44135E+02 -3.62108E+03 -4.29390E+03  1.76762E+03 -7.42276E+03  7.52315E+03 -6.19910E+03
  1.07999E+04  7.17594E+02  9.40336E+03  7.91500E+03  2.60670E+03  1.08751E+04 -4.10826E+03  1.01741E+04
 -9.27857E+03  5.43946E+03 -9.45467E+03 -1.34634E+03 -4.28457E+03 -6.69071E+03  2.30743E+03 -6.81690E+03
  6.66502E+03 -4.12858E+03  5.26065E+03  3.19863E+03  1.45419E+03  5.76820E+03 -1.11336E+03  5.51202E+03
 -3.30380E+03  3.72761E+03 -3.03268E+03  9.66154E+02 -2.64223E+03  5.64610E+02 -1.69590E+03  2.15445E+03
 -3.28104E+03  3.31974E+03 -7.53299E+03  3.63268E+03 -1.12479E+04  1.73911E+02 -1.23781E+04 -7.17026E+03
 -6.42089E+03 -1.45410E+04  2.95095E+03 -1.63730E+04  9.57662E+03 -1.29564E+04  1.56579E+04 -5.24811E+03
  1.47993E+04  2.59132E+03  9.58347E+03  1.07688E+04  9.66720E+02  1.14960E+04 -4.66918E+03  8.67088E+03
 -6.76393E+03  2.34237E+03 -4.10269E+03 -2.17401E+03 -1.09965E+03 -6.13270E+02 -2.07850E+03 -6.39024E+02
 -2.32105E+03  4.29640E+02 -2.83425E+03 -1.06064E+03 -6.48444E+02 -2.88859E+03  6.78306E+02 -4.36692E+03
  4.92366E+03 -4.78091E+03  6.60778E+03 -5.44812E+02  7.77169E+03  6.25369E+03  2.04101E+03  1.12442E+04
 -5.61619E+03  1.33843E+04 -1.17926E+04  7.29505E+03 -1.33006E+04 -1.23579E+03 -1.08570E+04 -8.66377E+03
 -4.50488E+03 -1.09601E+04  3.32330E+03 -1.07161E+04  8.03249E+03 -6.06843E+03  6.90846E+03  9.55283E+01
  3.17944E+03  4.46898E+03 -7.25700E+02  3.94752E+03 -1.65216E+03  2.05551E+02  4.27370E+02 -3.51647E+03
  3.80770E+03 -1.76747E+03  4.49894E+03  5.11167E+02  3.35563E+03  4.54318E+03 -6.57106E+02  5.30049E+03
 -5.24505E+03  6.03358E+03 -7.51396E+03 -3.61745E+02 -7.50274E+03 -5.76191E+03 -1.10135E+03 -9.86392E+03
  5.36977E+03 -8.25773E+03  8.77054E+03 -2.14819E+03  8.79411E+03  1.98967E+03  4.91955E+03  7.23757E+03
  9.17294E+02  7.69689E+03 -2.25173E+03  5.92825E+03 -5.05601E+03  4.04544E+03 -4.52079E+03  3.91837E+02
 -1.56720E+03 -8.16233E+02 -2.30651E+03  1.22743E+03 -4.05989E+03  1.38728E+03 -5.25833E+03 -1.67119E+03
 -5.08073E+03 -4.67051E+03 -1.92014E+03 -7.27234E+03  2.93369E+03 -7.77169E+03  6.70041E+03 -3.65446E+03
  7.34391E+03  9.56528E+02  4.47883E+03  5.40365E+03 -7.16847E+02  8.47465E+03 -5.74551E+03  5.42245E+03
