 $NMID ID='MM_0lb_SNR400_13hz_g60_76.RAW', FMTDAT='(8E13.5)'
 TRAMP=1., VOLUME=1. $END
  3.09311E+05  2.38054E+02  3.37825E+05  2.50624E+05  8.50991E+04  3.38684E+05 -1.32526E+05  2.51746E+05
 -1.90446E+05  8.36671E+04 -1.12532E+05 -3.23942E+04  6.50594E+01 -5.04767E+04  5.37382E+04  2.11863E+02
  3.58340E+04  5.33681E+04 -1.68107E+04  7.50858E+04 -6.09901E+04  6.43683E+04 -8.44107E+04  3.19458E+04
 -8.21108E+04 -1.18121E+04 -5.72651E+04 -5.27683E+04 -1.49805E+04 -7.10744E+04  2.81631E+04 -4.60415E+04
  4.05653E+04  3.47124E+03  1.64751E+04  4.81486E+04 -3.46324E+04  4.78261E+04 -6.79093E+04  2.91545E+02
 -5.41923E+04 -5.80070E+04 -7.58066E+03 -7.81303E+04  3.48630E+04 -5.60758E+04  4.90412E+04 -1.77000E+04
  4.41303E+04  1.14126E+04  3.25278E+04  2.56346E+04  1.58674E+04  2.96401E+04 -5.85413E+03  2.71841E+04
 -2.28409E+04  1.15922E+04 -1.81876E+04 -5.27598E+03  7.08908E+03 -7.29020E+03  2.31083E+04  1.20963E+04
  7.23120E+03  3.65462E+04 -3.27608E+04  3.58384E+04 -6.52613E+04  2.01937E+03 -5.80219E+04 -4.36123E+04
 -1.26881E+04 -6.51733E+04  4.07331E+04 -4.63773E+04  5.97097E+04 -2.44321E+03  3.58769E+04  3.35242E+04
 -5.96370E+03  3.82747E+04 -3.06095E+04  1.73982E+04 -3.18788E+04 -3.69292E+03 -1.80144E+04 -1.10920E+04
 -8.69198E+03 -1.42646E+04 -5.55910E+02 -1.90292E+04  7.75267E+03 -2.34215E+04  1.57647E+04 -1.23430E+04
  1.10268E+04  5.70614E+03 -9.28274E+03  1.28658E+04 -2.19553E+04 -5.44367E+03 -9.67063E+03 -3.50467E+04
  2.41533E+04 -4.51471E+04  4.98798E+04 -1.98886E+04  4.68997E+04  2.01151E+04  1.60389E+04  4.47414E+04
 -1.58869E+04  3.39055E+04 -2.66298E+04  2.59882E+03 -1.07952E+04 -2.87529E+04  2.10268E+04 -3.54737E+04
  4.27178E+04 -9.94131E+03  3.80346E+04  2.37868E+04  1.97818E+04  4.85106E+04 -8.00611E+03  5.34413E+04
 -3.35134E+04  3.66911E+04 -4.50269E+04  9.65976E+03 -4.48272E+04 -1.70871E+04 -2.45217E+04 -3.93301E+04
  7.77418E+03 -3.98168E+04  3.27951E+04 -1.56389E+04  3.02426E+04  1.13723E+04  4.76612E+03  1.99612E+04
 -1.36848E+04  8.68234E+03 -1.07781E+04 -7.21801E+03  5.77492E+03 -1.11223E+04  1.84414E+04  6.26903E+03
  1.37890E+04  2.25400E+04 -4.79025E+03  2.61713E+04 -2.35106E+04  1.32632E+04 -2.96615E+04 -3.83731E+03
 -2.26981E+04 -1.76524E+04 -9.36904E+03 -2.28950E+04  3.79462E+03 -2.33427E+04  1.76821E+04 -2.04893E+04
  2.95042E+04 -1.37896E+04  3.53280E+04  3.68299E+03  2.52875E+04  2.17585E+04  4.53019E+03  3.86214E+04
 -1.86563E+04  3.21335E+04 -2.85375E+04  1.08740E+04 -2.10998E+04 -1.03457E+04 -4.72031E+03 -1.32455E+04
  1.11539E+03 -2.53592E+03 -6.35092E+03  7.18714E+03 -1.77296E+04  4.71307E+03 -1.86589E+04 -7.89251E+03
 -1.04024E+04 -2.05394E+04  5.67474E+03 -2.51967E+04  1.66656E+04 -1.83031E+04  2.00775E+04 -1.85217E+03
  1.30017E+04  1.45175E+04 -1.16499E+03  2.07024E+04 -1.50774E+04  1.27349E+04 -2.20559E+04 -3.91346E+03
 -1.54311E+04 -1.92013E+04 -1.72314E+03 -2.45347E+04  1.06039E+04 -2.04550E+04  2.11881E+04 -1.09863E+04
  1.95441E+04 -2.35910E+02  1.42342E+04  5.13505E+03  7.54585E+03  1.26204E+03  1.10680E+04 -1.65194E+03
  1.95528E+04  3.27339E+03  2.19137E+04  1.70476E+04  1.42679E+04  3.35766E+04 -2.66369E+03  3.89511E+04
 -2.18176E+04  3.18598E+04 -3.60504E+04  1.52277E+04 -3.87055E+04 -2.50043E+03 -3.12332E+04 -2.23432E+04
 -1.28630E+04 -3.18809E+04  1.11155E+04 -2.77849E+04  2.45249E+04 -1.35328E+04  2.08203E+04  6.51523E+03
  7.55333E+03  1.55905E+04 -1.09374E+04  1.41978E+04 -1.79840E+04  2.92279E+03 -1.29932E+04 -1.19778E+04
 -3.62733E+02 -1.74744E+04  9.52262E+03 -1.27473E+04  1.09526E+04 -1.67123E+03  2.57689E+03  7.56569E+03
 -8.22771E+03  2.64005E+03 -7.12458E+03 -6.57632E+03 -1.13671E+03 -1.55506E+04  1.00177E+04 -1.59881E+04
  1.97783E+04 -9.06532E+03  2.15381E+04  3.08311E+03  1.84036E+04  1.53995E+04  8.56568E+03  2.35562E+04
 -4.91590E+03  2.54922E+04 -1.64775E+04  1.59303E+04 -1.86784E+04  3.66095E+03 -1.26826E+04 -4.64746E+03
 -5.11045E+03 -6.05356E+03 -1.83228E+02  6.82919E+02 -2.93722E+03  2.68549E+03 -5.64668E+03  5.03651E+03
 -1.16897E+04 -1.09677E+03 -1.21407E+04 -1.01706E+04 -5.10556E+03 -1.63550E+04  5.17635E+03 -1.30667E+04
  1.11628E+04 -4.97436E+03  7.84291E+03  3.32147E+03 -1.28208E+02  4.77401E+03 -6.36003E+03  1.81824E+02
 -6.30273E+03 -8.36992E+03 -8.28264E+02 -1.27524E+04  6.98772E+03 -1.29758E+04  1.61300E+04 -7.57588E+03
  1.92324E+04  1.72349E+03  1.44040E+04  1.12543E+04  2.71760E+03  1.52983E+04 -8.02000E+03  1.27150E+04
 -1.08574E+04  4.32451E+03 -5.25734E+03 -2.56432E+03  2.76192E+03 -3.25990E+03  7.11651E+03 -5.36822E+02
  5.48934E+03  5.65104E+03  1.06249E+03  1.05134E+04 -7.34323E+03  1.03185E+04 -1.22845E+04  1.86338E+03
 -9.04542E+03 -6.53215E+03  8.36539E+02 -1.06054E+04  7.28300E+03 -5.96181E+03  7.27335E+03  2.57809E+03
  1.28045E+03  7.45683E+03 -6.30173E+03  8.90232E+03 -1.00595E+04  4.80588E+03 -9.97095E+03 -3.41755E+03
 -6.21892E+03 -1.24110E+04  2.98197E+03 -1.38460E+04  1.20251E+04 -7.62202E+03  1.22233E+04  2.89015E+03
  7.16176E+03  1.12496E+04 -1.97686E+02  1.24046E+04 -8.79687E+03  7.03432E+03 -9.63530E+03 -7.76701E+02
 -8.48330E+03 -8.52848E+03 -1.56614E+03 -9.71234E+03  4.88092E+03 -7.70577E+03  5.83919E+03 -3.35862E+03
  3.66083E+03  1.34112E+03 -5.30159E+02  1.30538E+03 -5.10239E+02 -2.28230E+03  1.53816E+03 -5.40162E+03
  7.89632E+03 -3.09089E+03  1.13088E+04  8.89047E+02  1.13463E+04  7.30336E+03  7.61633E+03  1.48578E+04
 -3.01802E+03  1.74097E+04 -1.44073E+04  1.29127E+04 -1.92015E+04  2.53598E+03 -1.56330E+04 -6.41203E+03
 -7.75058E+03 -1.26753E+04  3.30422E+02 -1.00592E+04  3.43278E+03 -5.24625E+03  3.24282E+03 -3.53026E+03
  2.99505E+03 -2.50153E+03  3.79924E+03 -3.36424E+03  4.75295E+03 -2.99031E+03  6.07917E+03 -9.12366E+02
  8.46046E+03  2.36231E+03  3.52048E+03  6.72347E+03 -2.27672E+03  7.19084E+03 -9.11142E+03  6.11262E+03
 -9.96594E+03 -1.73509E+03 -6.47190E+03 -6.75720E+03 -5.64117E+02 -1.08127E+04  6.31366E+03 -1.09214E+04
  1.14118E+04 -6.39295E+03  1.46253E+04  2.26636E+03  9.41323E+03  9.21737E+03  2.20299E+03  1.27801E+04
 -5.61310E+03  1.05375E+04 -7.54068E+03  3.79960E+03 -4.43788E+03 -1.62189E+03 -1.48144E+03 -1.72675E+03
 -9.77249E+02 -1.01255E+02 -1.61699E+03  2.45549E+03 -4.62899E+03  1.59398E+03 -6.78014E+03 -6.30633E+02
 -4.52825E+03 -6.38136E+03  5.45415E+02 -1.05115E+04  6.24678E+03 -9.13368E+03  9.55378E+03 -1.73073E+03
  9.50809E+03  5.39765E+03  4.39677E+03  8.20724E+03 -2.05379E+03  1.04015E+04 -7.32722E+03  6.11262E+03
 -9.26430E+03  6.82336E+02 -7.76491E+03 -5.97489E+03 -9.13295E+02 -8.16251E+03  4.27811E+03 -5.94575E+03
  5.79572E+03 -2.11974E+03  3.80056E+03  1.61653E+03  1.48496E+03  2.51294E+03  1.26640E+03  5.85986E+02
  2.68326E+03  8.71584E+01  2.65787E+03  1.95142E+03  2.33618E+03  3.39950E+03  2.78843E+03  4.75164E+03
 -2.43539E+03  7.09510E+03 -6.12398E+03  8.15506E+03 -9.18877E+03  2.38354E+03 -9.46666E+03 -2.99731E+03
 -4.19728E+03 -9.45803E+03  1.09665E+03 -1.10849E+04  5.53169E+03 -7.05121E+03  8.28604E+03 -1.48832E+03
  6.41372E+03  3.87695E+03  5.87082E+02  5.09239E+03 -2.50008E+03  3.38091E+03 -4.21411E+03 -6.07786E+02
 -1.86289E+03 -4.75858E+03  2.18198E+03 -4.26758E+03  3.62044E+03 -1.95120E+03  3.54277E+03  1.28281E+03
  1.94571E+03  1.21478E+03  1.13597E+03  1.34038E+03 -9.70872E+02  1.69540E+03  1.34695E+03  6.60099E+01
  1.37844E+03 -7.02818E+02  2.75839E+03  1.28092E+03  1.76165E+03  5.35378E+03 -1.02864E+03  6.22637E+03
 -4.77853E+03  3.71843E+03 -6.20053E+03  8.18321E+02 -4.88976E+03 -1.48572E+03 -1.56385E+03 -2.20690E+03
  1.22034E+03 -3.70976E+03  2.89913E+03 -1.94356E+03  1.81490E+03  1.63673E+03 -1.15913E+03  3.21918E+03
 -3.84078E+03  1.75253E+03 -3.74479E+03 -2.04959E+03 -2.54024E+03 -5.46130E+03  3.44356E+02 -5.05369E+03
  1.82377E+03 -3.08963E+03  3.54059E+03  2.46242E+00  3.71153E+03  1.25988E+03  1.09192E+03  2.65616E+03
 -2.03591E+03  9.62180E+02 -2.73207E+03 -1.93226E+03  6.55277E+02 -2.50362E+03  4.05738E+03 -2.62688E+03
  4.36038E+03 -3.80962E+02  6.68858E+03  3.04837E+03  2.38394E+03  5.25635E+03 -2.67911E+03  5.50605E+03
 -4.37783E+03  1.82418E+03 -4.85873E+03 -1.78509E+02 -2.37396E+03 -3.27782E+03  1.30427E+03 -2.55702E+03
  3.20574E+03 -1.63434E+03  2.93448E+03  1.09504E+03  1.41999E+03  2.87466E+03  8.47772E+01  2.13884E+03
 -2.14751E+03  2.64031E+03 -1.29986E+03  5.90624E+02 -8.63290E+02  2.46439E+02 -1.58178E+03  1.54614E+03
 -1.17387E+03  2.65537E+03 -4.20849E+03  2.03180E+03 -5.36015E+03 -1.99015E+02 -5.86414E+03 -3.52903E+03
 -3.33534E+03 -7.67184E+03  1.64430E+03 -8.38302E+03  4.70577E+03 -6.47240E+03  7.42445E+03 -2.47933E+03
  7.56579E+03  1.46071E+03  4.19982E+03  4.44374E+03  6.08984E+02  4.85189E+03 -2.61969E+03  4.27085E+03
 -3.00225E+03  2.17546E+03 -1.89858E+03 -1.10398E+03 -5.91890E+02 -5.45060E+02 -1.69400E+03  1.85682E+02
 -1.35481E+03  1.11017E+02 -1.15295E+03  5.24756E+01 -3.50391E+02 -2.06063E+03 -5.76918E+02 -2.24794E+03
  2.89332E+03 -1.15342E+03  3.66715E+03  9.89780E+02  3.83663E+03  2.84153E+03  8.81895E+01  4.88566E+03
 -2.46767E+03  6.30640E+03 -6.06910E+03  3.34930E+03 -6.23817E+03  7.62282E+01 -4.82671E+03 -4.01590E+03
 -1.81967E+03 -5.42557E+03  8.37723E+02 -4.95484E+03  2.67235E+03 -2.41741E+03  3.83693E+03 -5.00356E+02
  1.83665E+03  2.22106E+03  2.79186E+01  1.61543E+03 -9.07446E+02  6.11342E+02  4.68060E+02 -7.21353E+02
  1.55110E+03 -7.46852E+02  1.77737E+03  3.38307E+02  1.10423E+03  2.02406E+03  4.68064E+02  2.19602E+03
 -2.11668E+03  1.91304E+03 -2.75704E+03  7.11682E+02 -2.49558E+03 -1.90263E+03 -4.73083E+02 -3.88367E+03
  2.26337E+03 -3.29921E+03  3.55130E+03 -8.70480E+02  3.14920E+03  3.40443E+02  1.99718E+03  3.29974E+03
  1.01534E+03  2.50889E+03 -1.17266E+03  1.58914E+03 -1.96790E+03  2.02271E+03 -1.63144E+03 -1.87868E+02
 -8.29345E+02 -1.07190E+02 -1.20947E+03  5.58636E+01 -8.20757E+02  7.49044E+02 -2.56715E+03 -7.02439E+02
 -3.12017E+03 -8.80404E+02 -1.20571E+03 -2.81705E+03  1.16183E+03 -3.93807E+03  3.11036E+03 -1.81947E+03
  3.04039E+03  5.54736E+02  1.25644E+03  1.91204E+03 -2.93606E+02  3.82280E+03 -2.49143E+03  2.44661E+03
