 $NMID ID='MM_0lb_SNR400_7hz_g50_2.RAW', FMTDAT='(8E13.5)'
 TRAMP=1., VOLUME=1. $END
  3.09627E+05  8.54918E+02  3.38354E+05  2.50723E+05  8.50993E+04  3.38390E+05 -1.32246E+05  2.51525E+05
 -1.89838E+05  8.44414E+04 -1.13299E+05 -3.19240E+04 -1.91062E+02 -5.07764E+04  5.39760E+04  2.76810E+02
  3.65029E+04  5.25030E+04 -1.59569E+04  7.69187E+04 -6.13514E+04  6.51755E+04 -8.56767E+04  3.26168E+04
 -8.24114E+04 -1.25221E+04 -5.93508E+04 -5.23727E+04 -1.44616E+04 -7.26961E+04  2.77936E+04 -4.71849E+04
  4.11407E+04  3.65988E+03  1.74276E+04  4.87439E+04 -3.46030E+04  4.87663E+04 -6.85600E+04  4.69616E+02
 -5.57987E+04 -5.85861E+04 -6.57293E+03 -7.95754E+04  3.45261E+04 -5.74642E+04  5.03941E+04 -1.85897E+04
  4.53737E+04  1.18982E+04  3.33172E+04  2.69332E+04  1.59122E+04  3.11134E+04 -6.80743E+03  2.77824E+04
 -2.28834E+04  1.13131E+04 -1.74086E+04 -6.31888E+03  8.02079E+03 -7.05712E+03  2.28632E+04  1.38992E+04
  7.13033E+03  3.84918E+04 -3.41974E+04  3.80068E+04 -6.59879E+04  2.45252E+03 -5.92010E+04 -4.53571E+04
 -1.33195E+04 -6.71792E+04  4.21752E+04 -4.80705E+04  6.16080E+04 -2.18421E+03  3.82444E+04  3.51013E+04
 -5.18327E+03  4.08674E+04 -3.35143E+04  2.04732E+04 -3.52810E+04 -2.83955E+03 -2.08851E+04 -1.26157E+04
 -9.56052E+03 -1.56023E+04 -5.34012E+02 -2.08248E+04  8.23687E+03 -2.27747E+04  1.63700E+04 -1.24556E+04
  1.05199E+04  6.35676E+03 -1.06317E+04  1.28578E+04 -2.39189E+04 -7.28726E+03 -8.71932E+03 -3.87594E+04
  2.69767E+04 -4.80707E+04  5.28702E+04 -2.13144E+04  4.96477E+04  2.14300E+04  1.82441E+04  4.86923E+04
 -1.79408E+04  3.70183E+04 -2.91455E+04  3.03930E+03 -1.25133E+04 -3.05296E+04  2.19189E+04 -3.85253E+04
  4.46690E+04 -1.29159E+04  4.22539E+04  2.50780E+04  2.16217E+04  5.29476E+04 -9.02784E+03  5.84261E+04
 -3.66960E+04  3.99071E+04 -4.95334E+04  1.14227E+04 -4.93072E+04 -1.84300E+04 -2.64152E+04 -4.38807E+04
  7.98871E+03 -4.44714E+04  3.46523E+04 -1.74963E+04  3.31516E+04  1.19811E+04  5.55565E+03  2.24173E+04
 -1.36367E+04  1.00473E+04 -1.11556E+04 -7.40511E+03  5.70099E+03 -1.14512E+04  1.90268E+04  4.78143E+03
  1.54562E+04  2.30904E+04 -4.61387E+03  2.87859E+04 -2.32981E+04  1.47391E+04 -3.36933E+04 -1.33876E+03
 -2.69720E+04 -1.95532E+04 -1.25014E+04 -2.74275E+04  4.25959E+03 -2.82425E+04  2.18710E+04 -2.46031E+04
  3.48961E+04 -1.54322E+04  3.93946E+04  5.14439E+03  2.80734E+04  2.64194E+04  5.22793E+03  4.32111E+04
 -2.04595E+04  3.51316E+04 -3.17463E+04  1.27915E+04 -2.30978E+04 -1.07882E+04 -4.77446E+03 -1.24350E+04
  3.46892E+02 -3.21692E+02 -8.76049E+03  9.14188E+03 -2.22074E+04  4.89857E+03 -2.08792E+04 -1.02324E+04
 -1.25632E+04 -2.53988E+04  5.51613E+03 -3.04484E+04  2.06111E+04 -2.15212E+04  2.41610E+04 -1.94050E+03
  1.70727E+04  1.79372E+04 -1.86688E+03  2.49094E+04 -1.83325E+04  1.45079E+04 -2.59877E+04 -4.93161E+03
 -1.82958E+04 -2.22462E+04 -2.98242E+03 -3.12730E+04  1.33444E+04 -2.57376E+04  2.52194E+04 -1.34546E+04
  2.25693E+04  4.10892E+02  1.62363E+04  5.67228E+03  8.84546E+03  1.96584E+03  1.38549E+04 -1.83155E+03
  2.37897E+04  3.53463E+03  2.82232E+04  2.01571E+04  1.85854E+04  4.13358E+04 -2.99325E+03  4.89008E+04
 -2.70754E+04  4.08732E+04 -4.63628E+04  2.17712E+04 -5.03799E+04 -4.02464E+03 -3.94441E+04 -2.95210E+04
 -1.56876E+04 -4.17207E+04  1.45942E+04 -3.53372E+04  3.11740E+04 -1.66104E+04  2.61449E+04  8.65545E+03
  9.58010E+03  2.06519E+04 -1.22312E+04  1.71984E+04 -2.26996E+04  2.07081E+03 -1.63033E+04 -1.40020E+04
 -1.98736E+02 -2.07790E+04  1.09187E+04 -1.58115E+04  1.56206E+04 -1.42907E+03  4.09485E+03  9.84816E+03
 -1.05701E+04  4.65304E+03 -1.06674E+04 -7.20974E+03 -2.04656E+03 -2.11047E+04  1.24022E+04 -2.38188E+04
  2.50882E+04 -1.26395E+04  3.01209E+04  3.86889E+03  2.62426E+04  2.06396E+04  1.30288E+04  3.28550E+04
 -6.84686E+03  3.46581E+04 -2.35913E+04  2.19942E+04 -2.57429E+04  3.50298E+03 -1.67901E+04 -6.94809E+03
 -7.95665E+03 -8.27904E+03 -6.52328E+02  2.80367E+02 -3.30096E+03  4.78412E+03 -8.15179E+03  5.47453E+03
 -1.43747E+04 -1.89373E+03 -1.66076E+04 -1.36488E+04 -7.06560E+03 -2.18104E+04  6.72133E+03 -1.74322E+04
  1.35363E+04 -7.45927E+03  9.44957E+03  4.55644E+03 -2.59945E+02  7.16764E+03 -8.33704E+03  9.15838E+02
 -8.59720E+03 -1.24674E+04 -1.60588E+03 -1.76439E+04  1.10509E+04 -1.91989E+04  2.25895E+04 -1.02437E+04
  2.66545E+04  3.90615E+03  1.99631E+04  1.63849E+04  3.49962E+03  2.15002E+04 -1.00995E+04  1.81619E+04
 -1.39104E+04  5.27481E+03 -7.43988E+03 -4.11592E+03  2.53753E+03 -4.96136E+03  9.11899E+03 -4.75843E+02
  8.05919E+03  8.09190E+03  1.32665E+03  1.44362E+04 -1.06454E+04  1.43588E+04 -1.90053E+04  3.08324E+03
 -1.28585E+04 -9.32580E+03  5.35914E+02 -1.51136E+04  1.02340E+04 -6.91170E+03  1.09705E+04  2.82574E+03
  2.80307E+03  1.16530E+04 -9.45543E+03  1.37607E+04 -1.60193E+04  5.80918E+03 -1.69144E+04 -5.80097E+03
 -9.43505E+03 -1.89021E+04  3.99822E+03 -2.17950E+04  1.81213E+04 -1.29088E+04  2.00317E+04  3.99183E+03
  1.20966E+04  1.62473E+04 -2.05072E+03  1.85633E+04 -1.38227E+04  9.43239E+03 -1.50272E+04 -1.59379E+03
 -1.27612E+04 -1.19672E+04 -2.31212E+03 -1.39370E+04  7.25248E+03 -1.08450E+04  9.44331E+03 -4.44931E+03
  5.70651E+03  2.73252E+03 -1.90758E+03  2.02135E+03 -9.07188E+02 -3.85694E+03  3.10274E+03 -8.91985E+03
  1.37434E+04 -7.24831E+03  1.98435E+04  1.96402E+03  1.86018E+04  1.40742E+04  1.15294E+04  2.50230E+04
 -5.62613E+03  2.94791E+04 -2.40511E+04  2.24727E+04 -3.22667E+04  3.90519E+03 -2.53135E+04 -1.13169E+04
 -1.23599E+04 -1.96123E+04 -6.13720E+01 -1.67245E+04  7.09022E+03 -1.09113E+04  6.60138E+03 -6.50991E+03
  5.33503E+03 -3.73855E+03  3.47298E+03 -4.84972E+03  6.04787E+03 -4.49527E+03  9.81194E+03 -2.66509E+03
  1.19089E+04  2.87221E+03  7.42962E+03  1.20840E+04 -1.90775E+03  1.34759E+04 -1.32975E+04  1.09834E+04
 -1.80252E+04 -1.03069E+03 -1.18026E+04 -1.24764E+04 -1.98075E+03 -1.99225E+04  1.07596E+04 -1.93147E+04
  2.04267E+04 -1.08101E+04  2.33333E+04  3.10740E+03  1.71130E+04  1.69580E+04  3.29496E+03  2.25590E+04
 -9.88682E+03  1.60782E+04 -1.36557E+04  5.75135E+03 -8.31980E+03 -2.83141E+03 -3.99479E+03 -3.61201E+03
 -8.25916E+02  1.37654E+01 -3.42558E+03  3.47545E+03 -8.05811E+03  3.37965E+03 -1.28306E+04 -1.11832E+03
 -9.10376E+03 -1.16772E+04  3.63477E+02 -1.71350E+04  1.11670E+04 -1.67951E+04  1.92493E+04 -5.96572E+03
  1.96413E+04  9.27758E+03  9.14220E+03  1.70641E+04 -3.45840E+03  1.91602E+04 -1.38495E+04  1.11292E+04
 -1.67673E+04  1.83140E+02 -1.28396E+04 -1.19760E+04 -1.33051E+03 -1.55523E+04  7.63498E+03 -1.18815E+04
  1.12981E+04 -3.63014E+03  8.83655E+03  3.03133E+03  2.45253E+03  4.56700E+03  1.46722E+03  3.33276E+03
  3.55134E+03  6.73414E+02  4.91153E+03  1.85310E+03  5.85052E+03  6.56520E+03  5.33819E+03  1.15111E+04
 -3.74572E+03  1.54451E+04 -1.43582E+04  1.52660E+04 -1.97423E+04  3.39908E+03 -1.95996E+04 -8.83892E+03
 -9.32409E+03 -1.84279E+04  2.77899E+03 -2.14156E+04  1.28789E+04 -1.41828E+04  1.67536E+04 -4.15157E+03
  1.22368E+04  6.61262E+03  2.69685E+03  1.10238E+04 -5.42622E+03  7.96260E+03 -7.14372E+03 -7.58553E+02
 -3.78993E+03 -7.87041E+03  4.60132E+03 -8.58146E+03  9.37110E+03 -3.71014E+03  8.39072E+03  1.29800E+03
  4.92427E+03  4.73441E+03  2.15662E+03  3.63501E+03 -1.37799E+03  3.28814E+03  7.97020E+02 -6.77506E+02
  4.13389E+03 -1.59396E+03  8.37335E+03  2.31915E+03  4.62359E+03  1.04216E+04 -2.11563E+03  1.41712E+04
 -1.02388E+04  9.80074E+03 -1.21532E+04  2.52807E+03 -1.15269E+04 -4.81974E+03 -4.50397E+03 -8.16629E+03
  5.58237E+02 -7.59066E+03  4.92476E+03 -4.04176E+03  4.76179E+03  3.64501E+03 -1.35619E+03  7.45522E+03
 -7.47424E+03  3.41179E+03 -9.37257E+03 -4.72489E+03 -5.78317E+03 -1.05770E+04  1.04992E+03 -1.11481E+04
  6.91429E+03 -7.50847E+03  9.51564E+03 -6.40840E+02  5.52460E+03  3.28038E+03  1.30564E+03  6.58416E+03
 -4.70095E+03  2.42281E+03 -4.28307E+03 -3.72671E+03  6.63149E+02 -9.44768E+03  9.90815E+03 -7.34588E+03
  1.31060E+04  1.40515E+03  1.17205E+04  9.91523E+03  4.37997E+03  1.34760E+04 -5.22496E+03  1.30527E+04
 -1.11895E+04  5.95812E+03 -1.13031E+04 -2.45923E+03 -6.16165E+03 -7.75177E+03  2.18460E+03 -9.04989E+03
  8.02840E+03 -3.86220E+03  8.28695E+03  3.54386E+03  2.61295E+03  7.05232E+03 -1.87290E+03  6.21381E+03
 -4.32594E+03  4.20036E+03 -3.34528E+03  4.87414E+02 -2.17485E+03  1.09833E+03 -2.52139E+03  3.17376E+03
 -3.49254E+03  5.19682E+03 -8.69297E+03  4.84234E+03 -1.36675E+04  2.21420E+02 -1.62591E+04 -9.37436E+03
 -7.39177E+03 -1.81923E+04  3.59177E+03 -2.20320E+04  1.28444E+04 -1.69542E+04  2.02075E+04 -6.82825E+03
  1.90485E+04  3.48575E+03  1.15655E+04  1.33452E+04  1.11766E+03  1.50491E+04 -5.69635E+03  1.06450E+04
 -6.90926E+03  3.99788E+03 -5.66152E+03 -1.31650E+03 -1.24433E+03 -1.40777E+03 -9.87304E+02 -2.80034E+02
 -1.48460E+03  4.79491E+02 -2.51619E+03  9.11410E+01 -1.14395E+03 -4.78892E+03  7.94875E+02 -5.36444E+03
  6.06210E+03 -4.06450E+03  9.36370E+03 -7.00293E+01  1.09905E+04  7.05634E+03  2.71139E+03  1.51597E+04
 -6.39677E+03  1.66872E+04 -1.61893E+04  9.74113E+03 -1.78080E+04 -1.50686E+03 -1.36901E+04 -1.01007E+04
 -5.92659E+03 -1.57220E+04  3.84409E+03 -1.40948E+04  9.35640E+03 -7.15549E+03  1.01666E+04 -1.43738E+02
  5.47102E+03  5.48025E+03 -1.12339E+03  5.04759E+03 -2.46702E+03 -6.56507E+02  7.26517E+02 -3.86281E+03
  3.68126E+03 -1.49996E+03  5.74468E+03  1.39743E+03  4.91419E+03  5.85727E+03  2.20743E+02  7.53616E+03
 -5.94307E+03  7.71345E+03 -1.06941E+04  1.44693E+03 -8.91748E+03 -7.77545E+03 -2.63139E+03 -1.31810E+04
  7.39079E+03 -1.12436E+04  1.23932E+04 -4.19559E+03  1.26246E+04  3.45768E+03  6.85125E+03  9.31830E+03
  5.90046E+02  9.99898E+03 -4.84953E+03  8.84422E+03 -6.34415E+03  3.96647E+03 -5.39407E+03 -2.87299E+01
 -3.28065E+03 -4.58245E+02 -2.56212E+03  2.13907E+03 -5.77414E+03  1.56216E+03 -7.93973E+03 -1.34355E+03
 -7.12053E+03 -5.89405E+03 -2.50338E+03 -1.05881E+04  4.84867E+03 -1.05636E+04  8.93055E+03 -6.49171E+03
  9.82977E+03  1.67650E+03  6.28628E+03  7.94869E+03 -5.73489E+02  1.03226E+04 -8.14920E+03  7.73229E+03
