 $NMID ID='MM_0lb_SNR400_9hz_g60_50.RAW', FMTDAT='(8E13.5)'
 TRAMP=1., VOLUME=1. $END
  3.09679E+05  7.07541E+01  3.37983E+05  2.50727E+05  8.50074E+04  3.38591E+05 -1.33310E+05  2.51714E+05
 -1.91571E+05  8.30274E+04 -1.12477E+05 -3.18804E+04  7.52707E+01 -5.11703E+04  5.39406E+04 -1.00044E+03
  3.54852E+04  5.29209E+04 -1.65420E+04  7.71598E+04 -6.18659E+04  6.52767E+04 -8.54626E+04  3.20905E+04
 -8.19654E+04 -1.22713E+04 -5.81901E+04 -5.24665E+04 -1.50256E+04 -7.13824E+04  2.81706E+04 -4.72856E+04
  4.11353E+04  2.66207E+03  1.75249E+04  4.90790E+04 -3.40664E+04  4.83186E+04 -6.75006E+04  2.57693E+02
 -5.56150E+04 -5.69869E+04 -6.93170E+03 -7.95617E+04  3.51123E+04 -5.74453E+04  5.05181E+04 -1.84849E+04
  4.59236E+04  1.12122E+04  3.38270E+04  2.61904E+04  1.59442E+04  3.09795E+04 -6.39225E+03  2.73828E+04
 -2.21080E+04  1.22986E+04 -1.73886E+04 -6.66625E+03  7.89040E+03 -6.81505E+03  2.38111E+04  1.38925E+04
  6.48730E+03  3.79071E+04 -3.42463E+04  3.67123E+04 -6.61713E+04  1.33203E+03 -5.92231E+04 -4.54944E+04
 -1.28120E+04 -6.58356E+04  4.22710E+04 -4.83052E+04  6.24659E+04 -2.62673E+03  3.77289E+04  3.45850E+04
 -5.94072E+03  3.97569E+04 -3.25721E+04  2.05428E+04 -3.42651E+04 -4.06047E+03 -1.96739E+04 -1.13383E+04
 -1.00867E+04 -1.58001E+04  1.16637E+02 -2.03368E+04  7.87723E+03 -2.40596E+04  1.53811E+04 -1.18984E+04
  1.07344E+04  6.57219E+03 -1.06552E+04  1.29678E+04 -2.39356E+04 -7.16443E+03 -8.64206E+03 -3.84024E+04
  2.62931E+04 -4.77153E+04  5.27831E+04 -2.06986E+04  4.95123E+04  2.14511E+04  1.71805E+04  4.83138E+04
 -1.73563E+04  3.60818E+04 -2.83610E+04  2.24291E+03 -1.21083E+04 -2.97289E+04  2.21612E+04 -3.69555E+04
  4.52958E+04 -1.15283E+04  4.14059E+04  2.48960E+04  2.22621E+04  5.16804E+04 -8.10598E+03  5.71737E+04
 -3.59619E+04  3.96307E+04 -4.85291E+04  1.06495E+04 -4.84728E+04 -1.84600E+04 -2.64131E+04 -4.31001E+04
  8.15108E+03 -4.23328E+04  3.53186E+04 -1.81983E+04  3.23519E+04  1.09582E+04  5.86637E+03  2.09803E+04
 -1.37259E+04  1.02869E+04 -1.16317E+04 -8.03981E+03  6.82442E+03 -1.28034E+04  1.87518E+04  4.03300E+03
  1.58437E+04  2.27892E+04 -4.93511E+03  2.86738E+04 -2.45458E+04  1.55664E+04 -3.29737E+04 -2.08637E+03
 -2.67666E+04 -1.91454E+04 -1.20940E+04 -2.70977E+04  4.20405E+03 -2.75743E+04  2.04703E+04 -2.40145E+04
  3.39103E+04 -1.51891E+04  3.94096E+04  4.96051E+03  2.76960E+04  2.60506E+04  4.61818E+03  4.20664E+04
 -2.03121E+04  3.46486E+04 -3.07859E+04  1.21369E+04 -2.22402E+04 -1.00329E+04 -4.93084E+03 -1.25900E+04
  2.73475E+02 -8.35973E+02 -8.36116E+03  8.42508E+03 -2.13880E+04  4.95487E+03 -2.08949E+04 -1.03346E+04
 -1.21314E+04 -2.43809E+04  6.61170E+03 -2.88104E+04  1.90182E+04 -2.03949E+04  2.31871E+04 -2.41441E+03
  1.52345E+04  1.68161E+04 -2.66359E+03  2.33216E+04 -1.74904E+04  1.35178E+04 -2.51565E+04 -5.26329E+03
 -1.79942E+04 -2.17736E+04 -2.30393E+03 -2.92348E+04  1.33634E+04 -2.44075E+04  2.39041E+04 -1.24435E+04
  2.29461E+04 -3.97006E+02  1.63743E+04  5.03846E+03  9.57039E+03  1.71543E+03  1.28028E+04 -2.13611E+03
  2.29540E+04  4.37769E+03  2.64544E+04  1.87178E+04  1.81081E+04  3.95221E+04 -2.88874E+03  4.57226E+04
 -2.76477E+04  3.88044E+04 -4.42263E+04  2.05560E+04 -4.75835E+04 -3.66552E+03 -3.80466E+04 -2.73419E+04
 -1.42559E+04 -3.98865E+04  1.42030E+04 -3.43002E+04  2.88057E+04 -1.64452E+04  2.50800E+04  8.12141E+03
  8.94892E+03  2.01532E+04 -1.22078E+04  1.68570E+04 -2.10865E+04  3.35419E+03 -1.52679E+04 -1.41942E+04
 -2.43970E+02 -2.03546E+04  1.14027E+04 -1.47802E+04  1.37909E+04 -1.52803E+03  3.21034E+03  8.81786E+03
 -9.81835E+03  4.64409E+03 -9.43895E+03 -7.77938E+03 -1.46685E+03 -1.96322E+04  1.21656E+04 -2.13858E+04
  2.39310E+04 -1.12602E+04  2.78541E+04  4.15803E+03  2.42315E+04  2.00137E+04  1.12329E+04  3.09268E+04
 -6.66610E+03  3.21081E+04 -2.12279E+04  2.04809E+04 -2.44163E+04  4.19858E+03 -1.60834E+04 -5.98102E+03
 -6.96607E+03 -6.95519E+03 -5.81709E+02  2.81898E+02 -2.74537E+03  3.16705E+03 -7.74114E+03  5.12926E+03
 -1.44773E+04 -1.09353E+03 -1.49221E+04 -1.21218E+04 -6.41333E+03 -2.05466E+04  6.96331E+03 -1.69123E+04
  1.27687E+04 -6.60846E+03  9.08005E+03  4.72604E+03  2.35639E+02  5.94249E+03 -8.64224E+03 -3.89790E+02
 -8.24091E+03 -1.07206E+04 -1.23076E+03 -1.63307E+04  9.76996E+03 -1.69969E+04  2.02328E+04 -9.24526E+03
  2.56816E+04  2.72772E+03  1.79902E+04  1.50541E+04  3.33596E+03  1.99803E+04 -1.00758E+04  1.60594E+04
 -1.34897E+04  5.31699E+03 -6.22781E+03 -4.36035E+03  2.38045E+03 -4.78067E+03  9.10559E+03 -9.68348E+02
  7.85484E+03  8.20518E+03  1.06600E+03  1.38232E+04 -1.01598E+04  1.29005E+04 -1.55273E+04  3.02976E+03
 -1.19348E+04 -9.45939E+03  1.09106E+02 -1.42487E+04  9.63348E+03 -6.86962E+03  9.98133E+03  4.43788E+03
  2.30881E+03  1.12263E+04 -8.71389E+03  1.21192E+04 -1.47894E+04  6.25896E+03 -1.45845E+04 -6.62065E+03
 -8.53321E+03 -1.69278E+04  4.65997E+03 -1.96430E+04  1.61317E+04 -1.19466E+04  1.82617E+04  3.10111E+03
  1.07601E+04  1.41273E+04 -1.45449E+03  1.72217E+04 -1.19166E+04  9.33663E+03 -1.39071E+04 -1.36700E+03
 -1.22730E+04 -1.18596E+04 -1.05680E+03 -1.31675E+04  6.62285E+03 -1.02217E+04  8.79038E+03 -4.06856E+03
  5.50450E+03  2.41518E+03 -1.71009E+03  2.15667E+03 -1.39863E+03 -4.08941E+03  3.37645E+03 -8.09697E+03
  1.30856E+04 -6.17215E+03  1.74875E+04  1.70031E+03  1.67027E+04  1.19192E+04  1.05599E+04  2.23796E+04
 -5.67187E+03  2.52749E+04 -2.15794E+04  1.88945E+04 -2.78893E+04  3.82348E+03 -2.23761E+04 -9.63681E+03
 -1.04211E+04 -1.78219E+04 -2.98937E+02 -1.62486E+04  5.58915E+03 -9.15373E+03  6.74709E+03 -6.47132E+03
  4.14603E+03 -2.91256E+03  4.09755E+03 -4.37922E+03  6.45842E+03 -3.81885E+03  9.21570E+03 -1.49590E+03
  1.21249E+04  3.50109E+03  6.14900E+03  9.31731E+03 -2.26531E+03  1.22201E+04 -1.36392E+04  8.52185E+03
 -1.54349E+04 -1.83119E+03 -1.10628E+04 -1.07200E+04 -8.53498E+02 -1.72976E+04  9.89058E+03 -1.69236E+04
  1.91554E+04 -9.02610E+03  2.10535E+04  3.04594E+03  1.50445E+04  1.47469E+04  1.95375E+03  1.93929E+04
 -7.94562E+03  1.51655E+04 -1.10009E+04  4.95598E+03 -7.46837E+03 -1.72588E+03 -2.97789E+03 -3.00937E+03
 -1.22516E+03  3.60104E+01 -2.41000E+03  2.57343E+03 -6.87555E+03  2.18542E+03 -1.10241E+04 -1.99510E+03
 -7.77231E+03 -1.00173E+04 -5.21013E+02 -1.60849E+04  9.29100E+03 -1.48730E+04  1.66662E+04 -4.06177E+03
  1.56239E+04  7.96604E+03  8.09483E+03  1.47872E+04 -2.80368E+03  1.65364E+04 -1.25421E+04  1.04796E+04
 -1.59046E+04  3.14008E+02 -1.17607E+04 -9.98911E+03 -8.34699E+02 -1.28208E+04  7.03655E+03 -9.74425E+03
  9.76780E+03 -2.92682E+03  6.63814E+03  3.31152E+03  2.47861E+03  5.11187E+03  2.12416E+03  1.72746E+03
  1.85202E+03  1.69889E+03  3.50732E+03  2.26718E+03  4.65493E+03  5.65900E+03  4.67949E+03  9.14107E+03
 -3.57949E+03  1.29308E+04 -1.21819E+04  1.27088E+04 -1.73319E+04  2.85068E+03 -1.70315E+04 -6.56720E+03
 -8.25124E+03 -1.64126E+04  2.20739E+03 -1.85980E+04  9.65924E+03 -1.19269E+04  1.29157E+04 -3.23543E+03
  9.62224E+03  5.85551E+03  2.29194E+03  9.38940E+03 -4.87746E+03  6.51966E+03 -7.15860E+03 -1.44793E+03
 -3.32735E+03 -6.74164E+03  3.73571E+03 -6.53047E+03  6.14286E+03 -3.06997E+03  6.20152E+03  1.95830E+03
  4.20511E+03  2.67586E+03  1.21988E+03  2.80906E+03 -1.88373E+02  2.22947E+03  1.13235E+03 -4.07633E+02
  1.84080E+03 -1.22849E+03  6.86399E+03  2.91402E+03  4.27438E+03  8.58074E+03 -1.25383E+03  1.20181E+04
 -7.35469E+03  7.32681E+03 -1.03881E+04  2.65353E+03 -9.31355E+03 -3.26690E+03 -4.60475E+03 -6.71390E+03
  1.17829E+03 -7.05896E+03  4.42707E+03 -3.51746E+03  4.91739E+03  2.88934E+03 -2.42172E+03  5.58313E+03
 -6.03678E+03  3.94130E+03 -8.75459E+03 -3.47908E+03 -3.62361E+03 -8.88231E+03  1.75772E+03 -9.19557E+03
  5.47615E+03 -5.36279E+03  7.06374E+03 -1.26313E+03  5.95436E+03  2.73099E+03  1.17590E+03  5.97494E+03
 -3.57692E+03  8.41775E+02 -4.51387E+03 -3.20062E+03  1.67544E+03 -6.57398E+03  8.65539E+03 -5.00058E+03
  1.00768E+04  6.93855E+02  1.05138E+04  7.47791E+03  3.52469E+03  1.11270E+04 -3.52917E+03  9.98023E+03
 -1.03197E+04  4.52780E+03 -9.12420E+03 -1.38518E+03 -5.37656E+03 -6.84907E+03  1.32920E+03 -6.70569E+03
  6.57171E+03 -3.83248E+03  5.89342E+03  3.19481E+03  2.38454E+03  5.65597E+03 -1.07315E+03  5.67331E+03
 -3.00346E+03  2.99125E+03 -2.15819E+03  1.75084E+03 -1.47718E+03  8.09500E+02 -2.09379E+03  2.61534E+03
 -3.23516E+03  4.31543E+03 -7.16565E+03  3.76420E+03 -1.04598E+04  2.73989E+02 -1.19158E+04 -7.05920E+03
 -6.96627E+03 -1.37627E+04  3.43116E+03 -1.65895E+04  1.04759E+04 -1.33727E+04  1.60044E+04 -5.02626E+03
  1.50589E+04  3.36911E+03  9.17232E+03  1.03495E+04  4.94401E+02  1.15796E+04 -4.08696E+03  8.36240E+03
 -6.12067E+03  3.01957E+03 -3.78861E+03 -2.14503E+03 -9.28977E+02 -8.93178E+02 -6.54953E+02 -2.23157E+02
 -2.40317E+03  2.92792E+02 -2.42630E+03 -7.40268E+01 -6.36256E+02 -2.34344E+03  8.08496E+02 -4.66215E+03
  5.73840E+03 -3.72879E+03  7.93269E+03 -1.86251E+02  7.91825E+03  6.33470E+03  3.34132E+03  1.12508E+04
 -5.80432E+03  1.29274E+04 -1.20707E+04  7.56505E+03 -1.40186E+04 -6.83497E+02 -1.11653E+04 -8.69059E+03
 -4.37787E+03 -1.13539E+04  2.65240E+03 -1.03399E+04  7.42249E+03 -5.33476E+03  7.80892E+03 -3.67109E+02
  5.39174E+03  3.70146E+03  5.87782E+02  2.95753E+03 -1.86436E+03 -3.58680E+02  1.00187E+02 -2.79355E+03
  3.91308E+03 -2.36430E+03  4.31880E+03  1.30848E+03  3.22542E+03  4.63820E+03  2.95192E+02  6.37317E+03
 -4.71781E+03  4.58806E+03 -7.08688E+03 -2.81205E+02 -6.73324E+03 -5.52955E+03 -1.03908E+03 -9.93925E+03
  5.68092E+03 -7.78407E+03  7.98648E+03 -3.16638E+03  8.03887E+03  1.67009E+03  5.19570E+03  6.88308E+03
  1.03752E+03  7.38023E+03 -2.95409E+03  6.52698E+03 -4.94872E+03  3.07578E+03 -4.21960E+03  5.48432E+02
 -1.56156E+03 -1.31326E+02 -2.04628E+03  1.14949E+03 -3.65198E+03  8.35061E+02 -6.15255E+03 -1.35511E+03
 -6.01777E+03 -3.87255E+03 -2.83079E+03 -7.91597E+03  3.13895E+03 -8.02552E+03  6.56262E+03 -4.01231E+03
  8.29515E+03  7.57948E+02  4.33880E+03  5.75562E+03 -6.58075E+02  8.28082E+03 -6.48225E+03  4.68643E+03
