 $NMID ID='MM_0lb_SNR400_11hz_g50_75.RAW', FMTDAT='(8E13.5)'
 TRAMP=1., VOLUME=1. $END
  3.09614E+05  4.98262E+02  3.38552E+05  2.50571E+05  8.51065E+04  3.37741E+05 -1.32021E+05  2.51247E+05
 -1.90672E+05  8.39746E+04 -1.12140E+05 -3.22743E+04  5.78156E+02 -5.05423E+04  5.40874E+04 -3.13302E+01
  3.60031E+04  5.36109E+04 -1.68837E+04  7.60157E+04 -6.09059E+04  6.45553E+04 -8.47475E+04  3.26408E+04
 -8.19858E+04 -1.11046E+04 -5.79652E+04 -5.16795E+04 -1.44398E+04 -7.06267E+04  2.85697E+04 -4.63945E+04
  4.08267E+04  3.22922E+03  1.63245E+04  4.83258E+04 -3.46010E+04  4.79370E+04 -6.76979E+04 -1.19861E+02
 -5.48710E+04 -5.78706E+04 -6.85075E+03 -7.81781E+04  3.45070E+04 -5.60620E+04  4.93937E+04 -1.78056E+04
  4.47296E+04  1.12400E+04  3.24471E+04  2.57913E+04  1.57931E+04  3.04169E+04 -5.76355E+03  2.74190E+04
 -2.26436E+04  1.19358E+04 -1.81065E+04 -5.30658E+03  6.52581E+03 -7.97444E+03  2.31125E+04  1.34221E+04
  7.03914E+03  3.65780E+04 -3.29750E+04  3.66568E+04 -6.39674E+04  1.77387E+03 -5.74759E+04 -4.39759E+04
 -1.23675E+04 -6.48330E+04  4.06998E+04 -4.64827E+04  6.01688E+04 -2.65146E+03  3.60680E+04  3.34848E+04
 -5.85343E+03  3.81540E+04 -3.11803E+04  1.74348E+04 -3.22077E+04 -3.95393E+03 -1.80620E+04 -1.08157E+04
 -9.24554E+03 -1.43458E+04 -5.16640E+02 -1.95468E+04  8.32548E+03 -2.40532E+04  1.55470E+04 -1.29609E+04
  1.10320E+04  5.22319E+03 -1.02826E+04  1.33796E+04 -2.21784E+04 -6.33813E+03 -9.19327E+03 -3.65039E+04
  2.49610E+04 -4.54063E+04  5.05692E+04 -2.09208E+04  4.65310E+04  2.01244E+04  1.69864E+04  4.52908E+04
 -1.66818E+04  3.49009E+04 -2.70904E+04  2.95649E+03 -1.04514E+04 -2.95712E+04  2.09153E+04 -3.53913E+04
  4.29755E+04 -1.04963E+04  3.82732E+04  2.49110E+04  2.06368E+04  4.90342E+04 -8.56733E+03  5.41618E+04
 -3.31372E+04  3.65138E+04 -4.52817E+04  1.04416E+04 -4.60405E+04 -1.78406E+04 -2.47518E+04 -4.06756E+04
  7.55684E+03 -4.07081E+04  3.29123E+04 -1.58883E+04  3.07848E+04  1.15645E+04  5.50717E+03  2.06771E+04
 -1.33306E+04  9.29283E+03 -1.09916E+04 -7.07569E+03  5.10238E+03 -1.13217E+04  1.80488E+04  5.68972E+03
  1.34660E+04  2.19170E+04 -5.25298E+03  2.62832E+04 -2.31815E+04  1.29593E+04 -3.00032E+04 -2.99545E+03
 -2.30654E+04 -1.78831E+04 -1.00590E+04 -2.28863E+04  4.39985E+03 -2.36993E+04  1.80349E+04 -2.05865E+04
  3.01159E+04 -1.44776E+04  3.63105E+04  3.50335E+03  2.51618E+04  2.25969E+04  3.25134E+03  3.96277E+04
 -1.87029E+04  3.29946E+04 -2.97401E+04  1.13879E+04 -2.21373E+04 -1.05488E+04 -4.41429E+03 -1.28569E+04
  1.74536E+03 -1.98931E+03 -7.03352E+03  8.10829E+03 -1.81805E+04  4.39386E+03 -1.88994E+04 -8.89197E+03
 -1.16445E+04 -2.17630E+04  5.51490E+03 -2.57481E+04  1.75843E+04 -1.86332E+04  2.05321E+04 -1.87269E+03
  1.28314E+04  1.48059E+04 -1.27927E+03  2.20685E+04 -1.49741E+04  1.25969E+04 -2.23811E+04 -4.04241E+03
 -1.58016E+04 -1.84062E+04 -1.84289E+03 -2.55924E+04  1.20667E+04 -2.12886E+04  2.17195E+04 -1.06776E+04
  2.05259E+04 -2.23818E+02  1.50480E+04  5.50686E+03  7.70327E+03  9.29064E+02  1.19025E+04 -1.53753E+03
  2.02496E+04  3.04619E+03  2.27773E+04  1.69832E+04  1.53069E+04  3.47626E+04 -3.03287E+03  4.00800E+04
 -2.25818E+04  3.32948E+04 -3.77638E+04  1.64375E+04 -4.01624E+04 -2.60846E+03 -3.34603E+04 -2.33869E+04
 -1.31017E+04 -3.35445E+04  1.14784E+04 -3.00137E+04  2.49554E+04 -1.41767E+04  2.20763E+04  6.88194E+03
  8.60039E+03  1.72827E+04 -1.01657E+04  1.44972E+04 -1.85267E+04  3.03183E+03 -1.43827E+04 -1.14978E+04
 -3.86309E+02 -1.78568E+04  9.54333E+03 -1.28649E+04  1.18116E+04 -1.86064E+03  3.62337E+03  7.79372E+03
 -8.05187E+03  3.38699E+03 -8.10374E+03 -6.99017E+03 -1.45720E+03 -1.65419E+04  1.07609E+04 -1.72636E+04
  2.03070E+04 -9.76941E+03  2.25510E+04  3.10820E+03  1.99218E+04  1.55175E+04  8.93387E+03  2.58325E+04
 -5.14937E+03  2.69811E+04 -1.84432E+04  1.79609E+04 -1.97129E+04  4.19765E+03 -1.36158E+04 -5.47968E+03
 -6.67313E+03 -6.58593E+03 -4.78102E+02  9.80040E+02 -3.33518E+03  3.11926E+03 -5.61981E+03  5.16925E+03
 -1.28260E+04 -8.08293E+02 -1.30192E+04 -1.08199E+04 -5.44746E+03 -1.76163E+04  6.18462E+03 -1.34344E+04
  1.19794E+04 -6.16843E+03  8.63343E+03  3.80214E+03 -2.17028E+01  5.78064E+03 -7.00455E+03 -7.36852E+02
 -6.96638E+03 -9.26926E+03 -1.40078E+03 -1.33171E+04  7.57063E+03 -1.44416E+04  1.71614E+04 -8.25855E+03
  2.02114E+04  1.87760E+03  1.45249E+04  1.17615E+04  3.14940E+03  1.59175E+04 -8.97723E+03  1.34140E+04
 -1.14221E+04  3.70157E+03 -6.12074E+03 -3.39159E+03  1.85877E+03 -3.53332E+03  7.45325E+03 -1.30486E+03
  6.54780E+03  5.53833E+03  1.04479E+03  1.07076E+04 -7.83588E+03  1.14445E+04 -1.38158E+04  2.71329E+03
 -8.60993E+03 -7.67526E+03  3.51431E+02 -1.16188E+04  7.87360E+03 -5.82682E+03  7.62879E+03  2.40766E+03
  1.64933E+03  8.18344E+03 -7.38551E+03  9.47300E+03 -1.19934E+04  4.45406E+03 -1.07471E+04 -4.48148E+03
 -5.86151E+03 -1.32803E+04  2.99968E+03 -1.55962E+04  1.31568E+04 -9.38444E+03  1.46935E+04  2.21132E+03
  8.82222E+03  1.12575E+04 -1.35054E+03  1.40916E+04 -9.63042E+03  8.08596E+03 -9.92435E+03 -3.29212E+02
 -9.59258E+03 -8.66833E+03 -1.47097E+03 -9.65117E+03  4.80752E+03 -8.13936E+03  6.56509E+03 -4.52884E+03
  3.89706E+03  1.81280E+03 -4.30817E+02  1.30185E+03  1.08653E+02 -1.96525E+03  1.64880E+03 -6.94964E+03
  8.76180E+03 -3.51148E+03  1.33705E+04  1.97111E+03  1.31935E+04  8.68659E+03  8.87386E+03  1.69370E+04
 -3.76793E+03  1.96056E+04 -1.71226E+04  1.43065E+04 -2.12744E+04  2.43150E+03 -1.70606E+04 -7.22023E+03
 -9.02999E+03 -1.46742E+04 -1.36031E+02 -1.24132E+04  3.94725E+03 -6.72961E+03  3.77240E+03 -4.43203E+03
  2.90255E+03 -2.87213E+03  2.71305E+03 -3.12217E+03  5.76620E+03 -2.84700E+03  7.66648E+03 -2.34710E+02
  9.06393E+03  1.84069E+03  4.61705E+03  8.23550E+03 -2.21570E+03  8.27665E+03 -8.78464E+03  6.39836E+03
 -1.19280E+04 -1.09303E+03 -7.12115E+03 -8.42291E+03 -8.92800E+02 -1.29130E+04  7.06350E+03 -1.33945E+04
  1.29525E+04 -6.85946E+03  1.54479E+04  2.09193E+03  1.17212E+04  1.14513E+04  1.71003E+03  1.43037E+04
 -5.97618E+03  1.18356E+04 -8.37318E+03  3.79773E+03 -5.43739E+03 -1.87725E+03 -2.39584E+03 -1.52386E+03
 -7.10804E+02  4.32580E+01 -1.46318E+03  2.00151E+03 -4.95003E+03  1.48295E+03 -7.88048E+03 -2.74118E+02
 -5.99601E+03 -8.63612E+03 -2.90997E+00 -1.20548E+04  7.20381E+03 -1.08847E+04  1.14469E+04 -3.02094E+03
  1.05666E+04  5.22962E+03  6.06066E+03  1.04983E+04 -2.09149E+03  1.20800E+04 -8.85997E+03  7.44818E+03
 -1.07274E+04  4.86528E+02 -8.29569E+03 -7.34576E+03 -1.24474E+03 -9.81462E+03  5.65780E+03 -7.41434E+03
  7.54710E+03 -2.55896E+03  4.66671E+03  2.04266E+03  1.44475E+03  3.47995E+03  1.66166E+03  1.50607E+03
  2.11598E+03  1.30336E+03  2.36149E+03  2.07811E+03  3.15889E+03  4.82572E+03  3.31364E+03  5.48767E+03
 -1.66683E+03  9.65527E+03 -8.01090E+03  9.10341E+03 -1.13804E+04  2.22001E+03 -1.27661E+04 -4.36543E+03
 -5.48463E+03 -1.16540E+04  1.46090E+03 -1.30488E+04  6.46205E+03 -7.77974E+03  9.77033E+03 -2.31866E+03
  7.34271E+03  4.48944E+03  1.32829E+03  6.52620E+03 -2.56273E+03  3.87180E+03 -5.45471E+03 -9.37448E+02
 -2.26472E+03 -4.82347E+03  2.78450E+03 -5.04944E+03  4.82744E+03 -2.10344E+03  4.57568E+03  1.59065E+03
  2.64796E+03  2.34652E+03  1.04415E+03  1.64814E+03 -7.36586E+02  1.64974E+03  1.83684E+03  1.88192E+02
  1.51805E+03 -1.15080E+03  4.92889E+03  1.49308E+03  3.17281E+03  6.27447E+03 -8.16658E+02  8.18886E+03
 -4.85255E+03  5.42792E+03 -6.93662E+03  8.99688E+02 -7.19608E+03 -3.14982E+03 -2.25543E+03 -4.63224E+03
  1.16090E+03 -4.63355E+03  3.25593E+03 -2.55462E+03  2.06087E+03  3.01842E+03 -1.32980E+03  3.57385E+03
 -5.03755E+03  2.37464E+03 -5.17567E+03 -3.59816E+03 -3.30182E+03 -7.46282E+03  8.68984E+02 -6.46705E+03
  3.75250E+03 -3.43426E+03  4.13335E+03  6.37287E+01  4.56338E+03  1.57537E+03  1.10875E+03  3.62874E+03
 -1.63878E+03  1.17040E+03 -3.00144E+03 -2.36788E+03  1.52232E+03 -5.07365E+03  5.18591E+03 -3.82104E+03
  6.68821E+03  7.19943E+02  6.86297E+03  4.71073E+03  2.13773E+03  7.25464E+03 -3.23828E+03  7.62709E+03
 -6.63485E+03  3.00389E+03 -5.69851E+03 -7.93467E+02 -3.32148E+03 -4.75168E+03  1.04890E+03 -4.19474E+03
  4.25337E+03 -2.86722E+03  3.50472E+03  2.14473E+03  7.90563E+02  4.29364E+03 -3.99401E+02  3.81215E+03
 -1.94794E+03  2.12961E+03 -1.72615E+03  1.18630E+03 -8.64902E+02  1.11905E+03 -1.28503E+03  1.27771E+03
 -1.59233E+03  2.53979E+03 -4.88341E+03  2.60312E+03 -7.31923E+03 -4.49206E+02 -8.07553E+03 -4.99898E+03
 -4.44040E+03 -9.15473E+03  1.73145E+03 -1.14780E+04  6.38075E+03 -8.81991E+03  1.04398E+04 -3.27947E+03
  9.64237E+03  1.96970E+03  5.98445E+03  6.74633E+03  5.93661E+02  7.12135E+03 -2.43590E+03  6.15317E+03
 -4.27460E+03  2.01426E+03 -2.19695E+03 -2.04310E+03 -1.22899E+03 -4.46277E+02 -1.83672E+02  2.04198E+02
 -1.51549E+03  2.22518E+02 -1.86297E+03 -2.02541E+02 -8.80718E+02 -1.96425E+03 -3.74291E+02 -3.06562E+03
  2.98183E+03 -2.25721E+03  3.99493E+03  3.04018E+02  4.90882E+03  3.71193E+03  9.94589E+02  6.45079E+03
 -3.55069E+03  8.29028E+03 -7.09412E+03  4.64264E+03 -8.96189E+03  3.37063E+01 -6.79301E+03 -5.48663E+03
 -2.89045E+03 -7.33333E+03  1.83159E+03 -6.95958E+03  4.64870E+03 -3.30743E+03  4.26958E+03  3.36879E+02
  2.46246E+03  2.77120E+03 -7.26627E+02  2.26932E+03 -1.39497E+03 -1.88514E+02  3.34655E+02 -1.87785E+03
  1.98518E+03 -2.16944E+02  3.21920E+03  1.22415E+03  1.92699E+03  2.52581E+03  8.44297E+01  3.45320E+03
 -3.45652E+03  3.77061E+03 -4.62840E+03  4.36455E+01 -4.58621E+03 -3.45497E+03 -5.46629E+02 -6.21727E+03
  2.96324E+03 -4.44506E+03  5.07293E+03 -1.00136E+03  5.45425E+03  5.12600E+02  2.48255E+03  4.20361E+03
  9.99790E+02  4.51180E+03 -1.87452E+03  3.94403E+03 -3.15578E+03  2.56389E+03 -2.06853E+03  9.41883E+02
 -1.92065E+03 -4.64093E+01 -1.49433E+03  6.48769E+02 -2.10700E+03  1.29242E+03 -3.40472E+03 -8.15987E+02
 -3.42509E+03 -2.18759E+03 -4.09245E+02 -4.23418E+03  1.52430E+03 -5.02913E+03  4.29467E+03 -1.39168E+03
  5.10408E+03  5.98672E+02  2.50676E+03  3.04171E+03 -8.02386E+02  4.63371E+03 -3.20237E+03  3.60237E+03
