 $NMID ID='MM_0lb_SNR400_11hz_g45_35.RAW', FMTDAT='(8E13.5)'
 TRAMP=1., VOLUME=1. $END
  3.10307E+05  6.88286E+02  3.37501E+05  2.51601E+05  8.47803E+04  3.37963E+05 -1.32214E+05  2.51597E+05
 -1.91086E+05  8.34761E+04 -1.11591E+05 -3.20959E+04 -1.13579E+01 -5.04699E+04  5.36331E+04 -2.45334E+02
  3.57968E+04  5.25817E+04 -1.69132E+04  7.57754E+04 -6.12168E+04  6.37494E+04 -8.45746E+04  3.26636E+04
 -8.13324E+04 -1.15274E+04 -5.74160E+04 -5.21078E+04 -1.54511E+04 -7.09136E+04  2.83043E+04 -4.62074E+04
  4.06728E+04  4.05862E+03  1.68088E+04  4.82347E+04 -3.54475E+04  4.80017E+04 -6.82627E+04  8.57391E+01
 -5.34625E+04 -5.73261E+04 -7.52499E+03 -7.75389E+04  3.39465E+04 -5.64967E+04  4.84416E+04 -1.78969E+04
  4.39351E+04  1.15472E+04  3.16474E+04  2.56234E+04  1.58554E+04  2.98559E+04 -5.82502E+03  2.79277E+04
 -2.25719E+04  1.26156E+04 -1.81048E+04 -5.85987E+03  5.84563E+03 -6.99991E+03  2.23934E+04  1.31386E+04
  7.37495E+03  3.67677E+04 -3.29507E+04  3.61024E+04 -6.49064E+04  1.54615E+03 -5.79599E+04 -4.39383E+04
 -1.27472E+04 -6.44994E+04  4.02998E+04 -4.61865E+04  5.90913E+04 -2.27641E+03  3.55192E+04  3.34576E+04
 -6.05729E+03  3.83899E+04 -3.00982E+04  1.70304E+04 -3.16410E+04 -4.62822E+03 -1.79165E+04 -1.10958E+04
 -8.61578E+03 -1.43625E+04 -7.63098E+02 -1.87553E+04  9.06215E+03 -2.27382E+04  1.64511E+04 -1.32254E+04
  1.05812E+04  5.23012E+03 -9.05327E+03  1.31043E+04 -2.20254E+04 -5.79290E+03 -8.78731E+03 -3.52218E+04
  2.39290E+04 -4.54005E+04  5.00982E+04 -2.01899E+04  4.67463E+04  2.03621E+04  1.61978E+04  4.57090E+04
 -1.63709E+04  3.46992E+04 -2.64745E+04  2.88332E+03 -1.02488E+04 -2.89855E+04  2.12740E+04 -3.52710E+04
  4.28357E+04 -9.74715E+03  3.81215E+04  2.47497E+04  1.94926E+04  4.83950E+04 -7.97032E+03  5.36906E+04
 -3.32680E+04  3.57620E+04 -4.45160E+04  9.78991E+03 -4.51937E+04 -1.75489E+04 -2.46933E+04 -4.02450E+04
  7.30313E+03 -3.99285E+04  3.25129E+04 -1.57347E+04  3.08332E+04  1.12119E+04  4.57034E+03  2.02600E+04
 -1.40370E+04  9.33569E+03 -1.07189E+04 -8.15715E+03  5.32170E+03 -1.13692E+04  1.85979E+04  5.92031E+03
  1.39454E+04  2.26276E+04 -5.52815E+03  2.62839E+04 -2.21022E+04  1.34015E+04 -2.97190E+04 -3.70536E+03
 -2.26994E+04 -1.77273E+04 -9.84211E+03 -2.28395E+04  4.80777E+03 -2.28112E+04  1.85581E+04 -2.01835E+04
  2.97075E+04 -1.35787E+04  3.47199E+04  3.48056E+03  2.55256E+04  2.28525E+04  4.36904E+03  3.95131E+04
 -1.88389E+04  3.09505E+04 -2.90199E+04  1.05934E+04 -2.08981E+04 -1.02898E+04 -4.69469E+03 -1.24125E+04
  2.25619E+03 -2.43119E+03 -6.13658E+03  7.48232E+03 -1.81010E+04  5.95933E+03 -1.81949E+04 -8.63944E+03
 -1.08973E+04 -2.06099E+04  5.04746E+03 -2.54348E+04  1.68390E+04 -1.71909E+04  2.03581E+04 -1.42350E+03
  1.30583E+04  1.48445E+04 -1.86265E+03  2.15489E+04 -1.50154E+04  1.16092E+04 -2.04545E+04 -3.61315E+03
 -1.52007E+04 -1.88577E+04 -1.84178E+03 -2.56627E+04  1.09178E+04 -2.07313E+04  2.20460E+04 -1.05912E+04
  1.96174E+04 -4.15632E+02  1.41092E+04  4.94350E+03  7.61665E+03  2.00584E+03  1.10652E+04 -1.78808E+03
  1.97862E+04  3.12770E+03  2.13824E+04  1.66165E+04  1.46181E+04  3.35941E+04 -2.72887E+03  3.90773E+04
 -2.28434E+04  3.24134E+04 -3.68287E+04  1.62955E+04 -3.90703E+04 -3.36153E+03 -3.14359E+04 -2.22214E+04
 -1.24391E+04 -3.26943E+04  1.17581E+04 -2.82683E+04  2.36175E+04 -1.44533E+04  2.18920E+04  6.68102E+03
  7.53826E+03  1.62580E+04 -1.04807E+04  1.43319E+04 -1.81046E+04  2.78551E+03 -1.43122E+04 -1.16018E+04
 -8.53541E+01 -1.79253E+04  9.55256E+03 -1.31697E+04  1.17485E+04 -1.03478E+03  3.27826E+03  7.37636E+03
 -7.67837E+03  3.42310E+03 -7.74218E+03 -5.83723E+03 -9.78003E+02 -1.53158E+04  1.05132E+04 -1.69637E+04
  1.99290E+04 -9.19085E+03  2.24210E+04  3.01684E+03  1.93142E+04  1.56306E+04  8.63755E+03  2.41224E+04
 -4.68446E+03  2.64330E+04 -1.75025E+04  1.72444E+04 -1.92131E+04  3.25530E+03 -1.29158E+04 -5.13817E+03
 -6.64927E+03 -6.60760E+03 -1.03739E+03  5.98086E+02 -2.33717E+03  2.63914E+03 -6.44198E+03  4.87020E+03
 -1.18349E+04 -1.08502E+03 -1.26924E+04 -9.89217E+03 -6.22949E+03 -1.72976E+04  5.46655E+03 -1.40832E+04
  1.12503E+04 -5.56277E+03  7.76696E+03  4.10874E+03  2.81442E+02  4.60447E+03 -6.66202E+03 -4.26188E+01
 -6.31336E+03 -8.51583E+03 -3.05523E+02 -1.30716E+04  7.64181E+03 -1.37049E+04  1.71268E+04 -7.24246E+03
  1.98208E+04  1.43746E+03  1.38044E+04  1.21101E+04  2.30778E+03  1.59822E+04 -8.90546E+03  1.36227E+04
 -1.16292E+04  2.79214E+03 -6.24972E+03 -2.92599E+03  2.55638E+03 -3.94635E+03  7.17074E+03 -1.20613E+03
  6.13385E+03  6.29780E+03  9.87192E+02  1.08250E+04 -7.88884E+03  9.93359E+03 -1.29217E+04  2.59546E+03
 -9.09573E+03 -7.06612E+03  1.04636E+03 -1.12870E+04  7.16015E+03 -5.47041E+03  7.74388E+03  1.95017E+03
  1.47859E+03  7.46595E+03 -6.77751E+03  9.77846E+03 -1.10061E+04  4.54896E+03 -1.08786E+04 -3.66175E+03
 -6.76164E+03 -1.31716E+04  3.17755E+03 -1.43578E+04  1.24762E+04 -9.13901E+03  1.32865E+04  2.42627E+03
  8.27865E+03  1.09048E+04 -1.36521E+03  1.25614E+04 -9.95058E+03  7.32171E+03 -1.01667E+04 -6.56627E+02
 -9.14844E+03 -8.48623E+03 -1.44146E+03 -9.54289E+03  4.80638E+03 -8.78705E+03  5.76979E+03 -3.49283E+03
  4.39465E+03  2.33247E+03 -5.73152E+02  1.61246E+03 -8.36229E+02 -2.04038E+03  2.20169E+03 -5.70470E+03
  9.40259E+03 -4.37680E+03  1.27254E+04  1.72640E+03  1.31014E+04  8.10758E+03  9.38872E+03  1.63166E+04
 -3.21993E+03  1.85729E+04 -1.59605E+04  1.35306E+04 -2.05695E+04  2.62334E+03 -1.69580E+04 -7.13207E+03
 -7.96999E+03 -1.38460E+04 -6.24861E+02 -1.10682E+04  4.60220E+03 -6.41093E+03  3.76281E+03 -3.91225E+03
  3.08525E+03 -2.60824E+03  2.41340E+03 -3.21480E+03  5.92917E+03 -3.17922E+03  6.65541E+03 -9.07319E+02
  8.37620E+03  2.12300E+03  4.15719E+03  7.00311E+03 -2.10833E+03  8.83403E+03 -1.01364E+04  6.84799E+03
 -1.14506E+04 -1.04599E+03 -6.66714E+03 -8.20382E+03 -2.87145E+02 -1.17853E+04  7.25465E+03 -1.18973E+04
  1.28972E+04 -7.33648E+03  1.51552E+04  1.95974E+03  1.01654E+04  1.11035E+04  2.23377E+03  1.37584E+04
 -5.59059E+03  1.16564E+04 -7.86210E+03  4.31568E+03 -5.64944E+03 -2.18818E+03 -2.25547E+03 -1.63232E+03
 -9.80281E+02 -1.67713E+02 -2.21584E+03  2.92077E+03 -5.29195E+03  1.36861E+03 -7.48912E+03 -7.66039E+02
 -4.15972E+03 -8.77786E+03  7.66234E+02 -1.16917E+04  6.03931E+03 -1.07951E+04  1.12518E+04 -3.12330E+03
  1.15645E+04  5.92964E+03  5.25197E+03  1.07507E+04 -1.64823E+03  1.15537E+04 -8.54884E+03  7.21514E+03
 -1.10653E+04 -1.62036E+02 -7.78845E+03 -6.77630E+03 -9.91163E+02 -9.69569E+03  4.61942E+03 -7.02450E+03
  7.17426E+03 -1.85696E+03  4.99338E+03  2.01572E+03  1.79287E+03  3.48286E+03  1.09202E+03  1.68720E+03
  2.81615E+03  1.03206E+03  3.59964E+03  1.64840E+03  4.11652E+03  3.88014E+03  2.85539E+03  5.75661E+03
 -2.49658E+03  8.36682E+03 -7.82688E+03  9.09887E+03 -1.11988E+04  2.61048E+03 -1.18607E+04 -4.55464E+03
 -6.03207E+03 -1.14944E+04  2.20261E+03 -1.23899E+04  6.30576E+03 -8.00891E+03  9.27464E+03 -2.49909E+03
  6.80765E+03  4.51439E+03  1.41871E+03  6.65939E+03 -3.42164E+03  3.66813E+03 -4.49734E+03 -3.43591E+02
 -1.16493E+03 -4.01484E+03  2.27511E+03 -4.95861E+03  3.69749E+03 -2.66943E+03  4.50710E+03  7.56085E+02
  3.14776E+03  8.52251E+02  6.52394E+02  8.75340E+02 -3.96486E+02  1.09117E+03  1.39188E+03 -5.17839E+02
  1.17707E+03 -3.50864E+02  4.59934E+03  1.89175E+03  1.94214E+03  5.82819E+03 -5.10332E+02  8.02076E+03
 -5.56430E+03  5.21389E+03 -6.80762E+03  1.16395E+03 -6.37132E+03 -2.42715E+03 -2.25322E+03 -4.77456E+03
  2.60666E+02 -4.67690E+03  2.80961E+03 -1.90157E+03  2.75857E+03  2.24338E+03 -7.35118E+02  3.23765E+03
 -4.45001E+03  2.13731E+03 -4.47406E+03 -3.01486E+03 -3.58686E+03 -6.57666E+03  1.26947E+03 -6.18884E+03
  2.98055E+03 -3.63926E+03  4.36573E+03 -4.96269E+02  3.82402E+03  1.48666E+03  1.52847E+03  2.78799E+03
 -1.91297E+03  1.27364E+03 -3.45983E+03 -1.61603E+03  1.18418E+03 -4.81092E+03  5.25350E+03 -3.97077E+03
  7.15397E+03  5.17637E+02  7.23242E+03  4.60984E+03  2.71717E+03  6.97438E+03 -2.85109E+03  7.38901E+03
 -5.46787E+03  2.99534E+03 -5.70421E+03 -3.34990E+02 -2.78553E+03 -4.41148E+03  1.39017E+03 -3.97081E+03
  4.86162E+03 -2.54972E+03  4.19624E+03  1.63673E+03  1.10874E+03  4.34379E+03 -5.00916E+02  3.43747E+03
 -2.04568E+03  1.98919E+03 -1.90701E+03  5.76501E+02 -1.10426E+03  9.88675E+02 -1.24795E+03  2.47844E+03
 -1.58378E+03  3.06152E+03 -4.74137E+03  1.57009E+03 -7.00298E+03  9.01301E+01 -7.69222E+03 -4.57998E+03
 -4.64078E+03 -9.94292E+03  1.64858E+03 -1.07273E+04  6.44193E+03 -8.41344E+03  1.06816E+04 -3.18449E+03
  9.21632E+03  1.49838E+03  4.93748E+03  6.04509E+03 -3.33883E+02  7.96529E+03 -3.09154E+03  5.32598E+03
 -4.37940E+03  2.16376E+03 -2.20387E+03 -9.84541E+02 -1.31738E+03 -7.08601E+02 -9.03738E+01 -6.34236E+02
 -1.26353E+03 -4.73733E+02 -1.72887E+03 -2.50801E+02 -4.21382E+02 -9.86477E+02 -2.72584E+02 -2.98663E+03
  4.03979E+03 -2.30396E+03  3.96050E+03  7.30867E+01  4.94635E+03  4.24839E+03  1.25820E+03  6.23391E+03
 -3.86640E+03  8.01981E+03 -7.27228E+03  4.93465E+03 -8.11231E+03 -1.06246E+03 -5.83190E+03 -4.92108E+03
 -2.94563E+03 -7.54761E+03  1.57214E+03 -6.61517E+03  4.62511E+03 -3.70381E+03  5.44861E+03  1.28239E+03
  1.91020E+03  2.58215E+03 -7.87374E+01  2.04905E+03 -1.72604E+03 -4.45088E+02 -1.26316E+02 -9.84339E+02
  2.42890E+03 -7.12477E+02  2.69999E+03  1.13150E+03  1.63325E+03  2.48388E+03  3.43771E+02  3.55161E+03
 -3.19011E+03  3.19701E+03 -4.24977E+03  9.19756E+01 -4.32510E+03 -2.99390E+03 -2.50816E+02 -6.27723E+03
  3.43738E+03 -4.47646E+03  5.07118E+03 -1.05802E+03  5.00754E+03  1.01714E+03  2.84343E+03  4.64957E+03
  1.34455E+03  4.97284E+03 -1.63053E+03  4.16001E+03 -3.13133E+03  2.13460E+03 -2.66678E+03  6.90958E+01
 -1.68937E+03 -4.45479E+01 -1.35925E+03  5.50040E+02 -2.04158E+03  3.08950E+02 -2.85703E+03 -3.90026E+01
 -3.19927E+03 -1.18686E+03 -9.03613E+02 -4.72577E+03  2.05829E+03 -5.13462E+03  4.61634E+03 -1.83964E+03
  3.99600E+03 -1.78234E+02  2.30602E+03  3.29902E+03  4.77883E+02  4.59211E+03 -3.15315E+03  3.59656E+03
