 $NMID ID='MM_0lb_SNR400_13hz_g60_48.RAW', FMTDAT='(8E13.5)'
 TRAMP=1., VOLUME=1. $END
  3.09493E+05  7.11536E+02  3.37383E+05  2.50283E+05  8.46125E+04  3.37968E+05 -1.32962E+05  2.51971E+05
 -1.90630E+05  8.34338E+04 -1.12155E+05 -3.25047E+04  1.32492E+02 -5.01718E+04  5.36408E+04 -8.13302E+02
  3.55037E+04  5.28295E+04 -1.68625E+04  7.56358E+04 -6.17423E+04  6.38489E+04 -8.50048E+04  3.23571E+04
 -8.20012E+04 -1.20833E+04 -5.74298E+04 -5.25800E+04 -1.48246E+04 -7.08768E+04  2.78677E+04 -4.65394E+04
  4.06613E+04  3.64269E+03  1.62909E+04  4.81467E+04 -3.47105E+04  4.71783E+04 -6.78163E+04 -5.77797E+02
 -5.45233E+04 -5.77820E+04 -6.44214E+03 -7.88070E+04  3.42504E+04 -5.57461E+04  4.88103E+04 -1.83502E+04
  4.46252E+04  1.14987E+04  3.24098E+04  2.61742E+04  1.62537E+04  3.01819E+04 -5.94710E+03  2.78560E+04
 -2.20057E+04  1.21898E+04 -1.85303E+04 -4.82124E+03  5.75429E+03 -7.32017E+03  2.28548E+04  1.34841E+04
  7.13861E+03  3.67829E+04 -3.31915E+04  3.69238E+04 -6.52438E+04  2.64854E+03 -5.71951E+04 -4.43774E+04
 -1.27537E+04 -6.50365E+04  4.11102E+04 -4.72163E+04  6.01935E+04 -2.62375E+03  3.51937E+04  3.34307E+04
 -5.83080E+03  3.79189E+04 -3.13724E+04  1.68696E+04 -3.20829E+04 -3.74344E+03 -1.81334E+04 -1.16256E+04
 -9.11276E+03 -1.42274E+04 -9.49253E+02 -1.91565E+04  8.44777E+03 -2.35289E+04  1.59927E+04 -1.37204E+04
  1.10939E+04  5.21625E+03 -1.00053E+04  1.31272E+04 -2.24333E+04 -4.95501E+03 -8.11716E+03 -3.56832E+04
  2.36301E+04 -4.53163E+04  5.03843E+04 -2.05490E+04  4.71369E+04  2.01065E+04  1.70309E+04  4.57596E+04
 -1.59128E+04  3.52749E+04 -2.73824E+04  1.99665E+03 -1.09237E+04 -2.82553E+04  2.11969E+04 -3.56277E+04
  4.27976E+04 -1.05717E+04  3.75480E+04  2.44552E+04  1.99341E+04  4.88677E+04 -7.73409E+03  5.30237E+04
 -3.33456E+04  3.61910E+04 -4.57846E+04  1.04564E+04 -4.45384E+04 -1.67622E+04 -2.52730E+04 -4.00468E+04
  7.25498E+03 -4.00008E+04  3.29431E+04 -1.52303E+04  3.02580E+04  1.12995E+04  4.52120E+03  2.03426E+04
 -1.35281E+04  8.83987E+03 -1.09044E+04 -7.80178E+03  5.48428E+03 -1.09189E+04  1.84218E+04  6.16519E+03
  1.39689E+04  2.22787E+04 -4.75384E+03  2.61737E+04 -2.25908E+04  1.24795E+04 -2.99181E+04 -4.14900E+03
 -2.31552E+04 -1.82554E+04 -9.80227E+03 -2.32664E+04  3.92422E+03 -2.27731E+04  1.69133E+04 -2.09854E+04
  2.94477E+04 -1.39133E+04  3.53126E+04  4.08334E+03  2.45139E+04  2.18117E+04  4.38122E+03  3.87172E+04
 -1.90229E+04  3.17303E+04 -2.89534E+04  1.07937E+04 -2.10180E+04 -1.06544E+04 -5.62315E+03 -1.29313E+04
  1.11417E+03 -2.20569E+03 -5.96558E+03  7.89119E+03 -1.79950E+04  5.11568E+03 -1.78596E+04 -8.15687E+03
 -1.11880E+04 -2.07783E+04  5.66814E+03 -2.50146E+04  1.74728E+04 -1.84198E+04  1.94956E+04 -1.75321E+03
  1.25836E+04  1.39011E+04 -1.29675E+03  2.14803E+04 -1.52604E+04  1.21467E+04 -2.08205E+04 -4.41360E+03
 -1.59269E+04 -1.94052E+04 -2.16539E+03 -2.51398E+04  1.13298E+04 -2.13181E+04  2.06576E+04 -1.04932E+04
  2.03186E+04 -2.42045E+02  1.43625E+04  4.92367E+03  7.86386E+03  8.21563E+02  1.06643E+04 -2.22623E+03
  1.92274E+04  3.88555E+03  2.17784E+04  1.64291E+04  1.47796E+04  3.38450E+04 -3.01400E+03  3.84636E+04
 -2.24678E+04  3.14891E+04 -3.59598E+04  1.60532E+04 -3.77640E+04 -3.54974E+03 -3.08793E+04 -2.21314E+04
 -1.35491E+04 -3.11076E+04  1.11275E+04 -2.81111E+04  2.36171E+04 -1.39310E+04  2.10777E+04  6.83370E+03
  7.62546E+03  1.53308E+04 -1.00275E+04  1.40470E+04 -1.73880E+04  2.52484E+03 -1.32979E+04 -1.17005E+04
 -5.91992E+02 -1.75486E+04  8.79238E+03 -1.31917E+04  1.11905E+04 -1.37585E+03  2.86188E+03  7.86698E+03
 -7.46291E+03  3.49445E+03 -7.69146E+03 -6.52634E+03 -1.27183E+03 -1.57179E+04  1.10755E+04 -1.54892E+04
  1.87033E+04 -8.94857E+03  2.13010E+04  3.34375E+03  1.82294E+04  1.49703E+04  8.84250E+03  2.34238E+04
 -3.99309E+03  2.61229E+04 -1.62518E+04  1.65392E+04 -1.90284E+04  3.12766E+03 -1.33959E+04 -4.61156E+03
 -5.29679E+03 -6.17013E+03 -1.12705E+03  1.01192E+03 -3.08249E+03  3.02777E+03 -5.78289E+03  4.82250E+03
 -1.22125E+04 -1.52919E+03 -1.26382E+04 -1.03549E+04 -4.93146E+03 -1.63032E+04  4.85602E+03 -1.31176E+04
  1.09227E+04 -5.64257E+03  7.25225E+03  3.96802E+03  2.24002E+02  5.06885E+03 -6.45527E+03 -4.81348E+02
 -6.17580E+03 -7.85445E+03 -2.01518E+03 -1.24169E+04  7.20295E+03 -1.30800E+04  1.56700E+04 -7.08727E+03
  1.96734E+04  1.80823E+03  1.40607E+04  1.07978E+04  2.30886E+03  1.52964E+04 -7.68866E+03  1.27615E+04
 -1.05415E+04  4.08688E+03 -5.47026E+03 -2.50958E+03  1.38440E+03 -3.65923E+03  7.15003E+03 -6.47731E+02
  5.72836E+03  5.40069E+03  1.62269E+03  9.65809E+03 -7.61209E+03  9.82323E+03 -1.25709E+04  2.43194E+03
 -8.91879E+03 -6.61045E+03  1.49776E+02 -1.11927E+04  6.66962E+03 -5.42158E+03  6.88339E+03  2.08426E+03
  2.18429E+03  7.84196E+03 -6.53393E+03  9.44738E+03 -1.00783E+04  4.06608E+03 -9.50223E+03 -3.21197E+03
 -5.94586E+03 -1.17263E+04  2.89054E+03 -1.36498E+04  1.10877E+04 -8.51809E+03  1.24762E+04  2.24699E+03
  8.02055E+03  9.66605E+03 -1.53347E+03  1.25865E+04 -9.22755E+03  6.85423E+03 -9.40394E+03 -9.88677E+02
 -8.53392E+03 -8.18467E+03 -1.64531E+03 -9.09023E+03  4.78579E+03 -7.32098E+03  5.71083E+03 -3.15542E+03
  4.41851E+03  1.34292E+03 -7.63095E+02  1.17263E+03 -1.65301E+02 -2.06556E+03  1.23310E+03 -5.18147E+03
  8.37887E+03 -3.16462E+03  1.04144E+04  1.37862E+03  1.18040E+04  8.49580E+03  8.04617E+03  1.47880E+04
 -3.83404E+03  1.73739E+04 -1.45491E+04  1.24033E+04 -1.89886E+04  1.77873E+03 -1.47540E+04 -6.17552E+03
 -7.11376E+03 -1.21757E+04 -1.05837E+03 -1.03586E+04  4.37240E+03 -5.60886E+03  4.17299E+03 -3.51876E+03
  2.48794E+03 -1.69833E+03  3.08348E+03 -2.92401E+03  4.60034E+03 -3.15319E+03  6.77222E+03 -4.46031E+02
  7.54479E+03  2.28412E+03  4.33336E+03  6.88627E+03 -2.16158E+03  7.99608E+03 -7.95354E+03  6.58807E+03
 -1.00877E+04 -1.48830E+03 -5.24645E+03 -7.22392E+03 -6.19031E+02 -1.09998E+04  7.11379E+03 -1.09727E+04
  1.10517E+04 -6.66645E+03  1.35686E+04  1.88421E+03  9.86697E+03  9.54657E+03  9.29694E+02  1.26912E+04
 -4.87016E+03  1.10851E+04 -7.60682E+03  3.39969E+03 -4.90322E+03 -1.88791E+03 -1.61977E+03 -1.19377E+03
 -8.57115E+02  6.66935E+02 -2.01261E+03  2.85955E+03 -4.81303E+03  9.21941E+02 -7.34705E+03 -1.16948E+03
 -4.43677E+03 -6.95343E+03  2.53458E+02 -1.04564E+04  6.12670E+03 -9.30080E+03  9.06847E+03 -3.32979E+03
  1.00338E+04  4.17501E+03  4.75354E+03  8.01573E+03 -2.05383E+03  9.42505E+03 -7.12409E+03  6.03117E+03
 -8.67247E+03  1.11545E+03 -6.83073E+03 -6.19711E+03 -7.93700E+02 -9.00321E+03  3.66793E+03 -6.08841E+03
  6.61754E+03 -2.50884E+03  4.23206E+03  2.55164E+03  1.65561E+03  3.29555E+03  1.48812E+03  1.63778E+03
  1.85960E+03  9.68047E+02  2.12582E+03  1.15942E+03  2.92168E+03  3.69473E+03  2.29525E+03  5.54367E+03
 -2.24765E+03  7.46359E+03 -6.26715E+03  7.87908E+03 -9.38824E+03  2.90815E+03 -1.02019E+04 -3.09447E+03
 -4.15418E+03 -1.00702E+04  1.52163E+03 -1.00977E+04  5.40701E+03 -6.15922E+03  7.36925E+03 -1.12528E+03
  6.78652E+03  3.60396E+03  1.18772E+03  5.63819E+03 -2.75689E+03  3.61874E+03 -3.65313E+03 -4.76737E+02
 -2.42022E+03 -3.97455E+03  2.77590E+03 -3.62661E+03  4.17831E+03 -2.05238E+03  3.29449E+03  4.29864E+02
  2.24365E+03  1.22982E+03  8.23427E+02  1.34452E+03 -1.11736E+03  1.69986E+03  1.37360E+03 -3.33431E+02
  6.34132E+02 -3.07601E+02  3.87188E+03  1.46082E+03  1.53330E+03  5.56849E+03 -1.07071E+03  7.11786E+03
 -4.72868E+03  3.62630E+03 -6.08864E+03  6.15882E+02 -5.40317E+03 -2.55554E+03 -1.83406E+03 -2.63925E+03
  5.89021E+02 -3.44165E+03  2.51940E+03 -1.82405E+03  1.91848E+03  1.49315E+03 -6.36357E+02  3.19099E+03
 -3.80441E+03  1.46553E+03 -3.50493E+03 -1.69094E+03 -2.29242E+03 -4.51679E+03  3.62903E+02 -4.72508E+03
  2.53118E+03 -3.32262E+03  3.67690E+03 -6.08399E+02  3.22431E+03 -1.74928E+02  9.97151E+02  2.80180E+03
 -1.63258E+03  6.25522E+02 -2.12774E+03 -1.34247E+03  1.06758E+03 -3.40628E+03  5.17884E+03 -3.35387E+03
  4.82410E+03  4.30538E+02  5.12415E+03  3.47824E+03  1.79824E+03  5.20089E+03 -1.81484E+03  5.45097E+03
 -4.17597E+03  1.92527E+03 -5.14995E+03 -2.31383E+02 -1.80546E+03 -3.62488E+03  1.40844E+02 -3.12467E+03
  3.78424E+03 -2.37821E+03  3.23378E+03  1.17566E+03  5.61487E+02  3.81881E+03 -5.49830E+02  3.07868E+03
 -1.50888E+03  2.02026E+03 -1.38841E+03  1.89678E+02 -4.36786E+02  7.23572E+02 -1.42396E+03  1.13417E+03
 -1.32104E+03  2.43315E+03 -3.99874E+03  1.80712E+03 -5.06400E+03  3.68085E+02 -6.20777E+03 -3.81423E+03
 -3.28968E+03 -7.58860E+03  1.19970E+03 -8.36696E+03  4.98882E+03 -6.45489E+03  7.79072E+03 -1.91246E+03
  6.99971E+03  1.06905E+03  4.24419E+03  4.39239E+03  4.62288E+02  5.37340E+03 -2.13389E+03  4.21913E+03
 -3.33057E+03  1.30755E+03 -2.47163E+03 -4.85786E+02 -1.40898E+03  7.24448E+01 -3.57846E+02 -7.73315E+02
 -1.45015E+03  1.06467E+02 -1.77704E+03 -5.45615E+02  1.01149E+02 -1.79488E+03 -9.17412E+01 -2.09506E+03
  2.98962E+03 -1.74654E+03  2.52275E+03  5.85983E+02  3.21606E+03  2.41544E+03  4.95533E+02  5.29245E+03
 -2.00222E+03  6.86924E+03 -5.87629E+03  3.26590E+03 -6.91911E+03 -5.82871E+01 -4.80131E+03 -3.53611E+03
 -2.30974E+03 -5.69991E+03  1.32813E+03 -4.86843E+03  3.00201E+03 -2.47143E+03  2.88125E+03 -2.02016E+02
  2.53627E+03  1.05877E+03 -3.08113E+02  1.81551E+03 -6.90505E+02 -2.22988E+02 -8.54122E+02 -1.47606E+03
  1.43788E+03 -9.56422E+02  1.82041E+03  8.65115E+02  7.08708E+02  1.83672E+03  7.20670E+02  2.26384E+03
 -1.62620E+03  2.50456E+03 -3.53680E+03 -4.99102E+02 -3.73367E+03 -2.13677E+03 -3.40324E+01 -3.82764E+03
  2.81614E+03 -2.99531E+03  3.32541E+03 -5.30979E+02  3.48407E+03 -3.90835E+02  1.48001E+03  2.87388E+03
 -1.86523E+02  3.17927E+03 -1.62415E+03  2.16370E+03 -1.68574E+03  2.01897E+03 -1.54688E+03  2.79115E+02
 -9.63620E+02 -4.14080E+01 -6.33457E+02  3.97660E+02 -2.03322E+03  3.61223E+02 -2.10928E+03 -1.09288E+02
 -2.54998E+03 -1.27888E+03 -8.65723E+02 -3.12458E+03  1.90431E+03 -3.51014E+03  3.05685E+03 -1.36640E+03
  3.23030E+03  6.92730E+02  1.17932E+03  1.73064E+03  1.17951E+02  2.70366E+03 -2.39709E+03  1.62530E+03
