 $NMID ID='MM_0lb_SNR400_11hz_g45_4.RAW', FMTDAT='(8E13.5)'
 TRAMP=1., VOLUME=1. $END
  3.09442E+05  3.41344E+02  3.37214E+05  2.51263E+05  8.48581E+04  3.38963E+05 -1.33305E+05  2.51881E+05
 -1.90358E+05  8.38455E+04 -1.12383E+05 -3.19976E+04  5.34550E+02 -5.08296E+04  5.32599E+04  1.51348E+02
  3.57333E+04  5.30102E+04 -1.63414E+04  7.60624E+04 -6.11968E+04  6.35101E+04 -8.48550E+04  3.21870E+04
 -8.14058E+04 -1.17850E+04 -5.79192E+04 -5.06815E+04 -1.51339E+04 -6.99341E+04  2.77478E+04 -4.69052E+04
  4.07516E+04  3.26413E+03  1.63537E+04  4.82246E+04 -3.46693E+04  4.78415E+04 -6.68675E+04 -1.97467E+02
 -5.41515E+04 -5.78227E+04 -7.08642E+03 -7.84499E+04  3.51385E+04 -5.63615E+04  4.94258E+04 -1.76450E+04
  4.42357E+04  1.12499E+04  3.21155E+04  2.56356E+04  1.56329E+04  3.00762E+04 -5.32355E+03  2.75959E+04
 -2.21284E+04  1.21830E+04 -1.88316E+04 -5.32233E+03  6.14038E+03 -7.45074E+03  2.37323E+04  1.25608E+04
  7.27806E+03  3.69335E+04 -3.27304E+04  3.59379E+04 -6.47966E+04  2.00651E+03 -5.81884E+04 -4.27456E+04
 -1.28800E+04 -6.47871E+04  4.00878E+04 -4.66584E+04  5.94600E+04 -2.23837E+03  3.60972E+04  3.44055E+04
 -6.28117E+03  3.76536E+04 -3.05576E+04  1.67963E+04 -3.20290E+04 -4.13496E+03 -1.71708E+04 -1.19228E+04
 -9.35642E+03 -1.44007E+04 -1.15571E+03 -1.88847E+04  8.43082E+03 -2.40047E+04  1.58900E+04 -1.28742E+04
  1.13755E+04  5.46334E+03 -9.44213E+03  1.29892E+04 -2.25224E+04 -5.38520E+03 -7.76731E+03 -3.54573E+04
  2.41272E+04 -4.47130E+04  5.00063E+04 -1.99180E+04  4.62835E+04  1.96821E+04  1.63549E+04  4.53895E+04
 -1.62249E+04  3.49434E+04 -2.68530E+04  2.25764E+03 -1.08251E+04 -2.94492E+04  2.14527E+04 -3.60909E+04
  4.25702E+04 -1.00724E+04  3.80444E+04  2.44763E+04  2.02633E+04  4.94900E+04 -8.60426E+03  5.32521E+04
 -3.26318E+04  3.60293E+04 -4.51501E+04  1.02890E+04 -4.50670E+04 -1.76736E+04 -2.50487E+04 -4.00831E+04
  7.31073E+03 -3.92246E+04  3.25182E+04 -1.60316E+04  3.04943E+04  1.10712E+04  4.17064E+03  2.05539E+04
 -1.34456E+04  9.18563E+03 -1.03258E+04 -7.76533E+03  5.68082E+03 -1.09985E+04  1.78610E+04  5.33061E+03
  1.36980E+04  2.21089E+04 -5.17677E+03  2.58221E+04 -2.32324E+04  1.22125E+04 -3.00574E+04 -4.45427E+03
 -2.30025E+04 -1.78498E+04 -1.04916E+04 -2.25949E+04  4.47411E+03 -2.26069E+04  1.77136E+04 -2.10979E+04
  2.87466E+04 -1.35815E+04  3.50187E+04  4.34066E+03  2.61738E+04  2.22629E+04  3.93828E+03  3.89424E+04
 -1.87677E+04  3.19733E+04 -2.96364E+04  1.09713E+04 -2.18872E+04 -9.80401E+03 -3.53833E+03 -1.32902E+04
  1.39996E+03 -2.05343E+03 -6.83249E+03  7.66765E+03 -1.88782E+04  5.62263E+03 -1.77516E+04 -8.46452E+03
 -1.01776E+04 -2.14060E+04  5.44262E+03 -2.45739E+04  1.75569E+04 -1.80449E+04  2.06870E+04 -1.82115E+03
  1.34770E+04  1.45170E+04 -1.32628E+03  2.18532E+04 -1.41206E+04  1.20938E+04 -2.16222E+04 -3.33188E+03
 -1.49200E+04 -1.87588E+04 -1.87553E+03 -2.50256E+04  1.17003E+04 -2.09870E+04  2.11880E+04 -1.03277E+04
  1.97970E+04 -2.63566E+02  1.43260E+04  5.38138E+03  7.06674E+03  1.14714E+03  1.11220E+04 -1.96990E+03
  1.98366E+04  2.43721E+03  2.29736E+04  1.59406E+04  1.49985E+04  3.39805E+04 -3.16721E+03  3.89706E+04
 -2.24061E+04  3.21656E+04 -3.68809E+04  1.59658E+04 -3.93050E+04 -2.67397E+03 -3.19272E+04 -2.25339E+04
 -1.33602E+04 -3.21125E+04  1.14275E+04 -2.89840E+04  2.46986E+04 -1.34917E+04  2.16943E+04  6.14367E+03
  7.57647E+03  1.65956E+04 -1.03751E+04  1.40228E+04 -1.80656E+04  3.06670E+03 -1.33330E+04 -1.17049E+04
 -5.75585E+02 -1.70336E+04  9.41511E+03 -1.25061E+04  1.21422E+04 -1.32488E+03  2.37550E+03  7.25279E+03
 -7.53276E+03  3.35630E+03 -8.08600E+03 -6.20610E+03 -1.35805E+03 -1.50428E+04  1.06260E+04 -1.69781E+04
  1.99110E+04 -9.38604E+03  2.17471E+04  2.96765E+03  1.97243E+04  1.66531E+04  8.53633E+03  2.39769E+04
 -4.53796E+03  2.59560E+04 -1.72773E+04  1.70000E+04 -1.89561E+04  3.12977E+03 -1.33380E+04 -4.31875E+03
 -5.77621E+03 -6.32079E+03 -1.03551E+03  8.74284E+02 -3.44133E+03  3.44126E+03 -5.91286E+03  5.38087E+03
 -1.27249E+04 -6.29549E+02 -1.29320E+04 -1.00548E+04 -5.61213E+03 -1.70600E+04  5.31374E+03 -1.34482E+04
  1.17596E+04 -5.52930E+03  8.26777E+03  3.41719E+03  5.12653E+02  5.14527E+03 -6.48771E+03  1.73357E+02
 -6.42860E+03 -9.03558E+03 -1.06346E+03 -1.23126E+04  7.94675E+03 -1.33468E+04  1.68315E+04 -7.05915E+03
  1.98288E+04  1.89040E+03  1.47485E+04  1.12889E+04  2.89213E+03  1.59327E+04 -8.17477E+03  1.36071E+04
 -1.12297E+04  3.64909E+03 -5.91287E+03 -3.23145E+03  1.83802E+03 -3.68969E+03  6.84829E+03 -1.12403E+03
  6.21438E+03  6.04178E+03  9.76273E+02  1.03012E+04 -7.82944E+03  9.94305E+03 -1.29309E+04  2.76683E+03
 -9.38489E+03 -6.49074E+03  7.73418E+01 -1.14060E+04  6.88467E+03 -5.14331E+03  7.44402E+03  2.71270E+03
  1.73500E+03  8.42598E+03 -6.43944E+03  9.07434E+03 -1.15881E+04  4.15343E+03 -1.12548E+04 -3.84351E+03
 -6.33048E+03 -1.29296E+04  2.89186E+03 -1.51095E+04  1.24612E+04 -8.58609E+03  1.36454E+04  2.46587E+03
  7.47791E+03  1.05511E+04 -1.19355E+03  1.27534E+04 -9.68890E+03  6.86153E+03 -1.07251E+04 -7.21111E+02
 -1.05505E+04 -8.89618E+03 -1.64570E+03 -9.71192E+03  5.98491E+03 -8.31300E+03  6.35841E+03 -3.28896E+03
  4.28766E+03  9.70430E+02 -1.06657E+03  1.84058E+03 -2.28070E+02 -2.57555E+03  2.16360E+03 -5.38391E+03
  9.58579E+03 -3.85178E+03  1.20607E+04  1.40098E+03  1.26974E+04  8.95818E+03  8.80919E+03  1.66143E+04
 -4.20743E+03  1.90312E+04 -1.61168E+04  1.43867E+04 -2.09981E+04  2.50404E+03 -1.65750E+04 -7.64466E+03
 -8.23470E+03 -1.32554E+04  3.96477E+02 -1.22008E+04  4.90169E+03 -6.44015E+03  3.82181E+03 -4.12741E+03
  3.00858E+03 -2.71808E+03  3.33199E+03 -2.62577E+03  5.38177E+03 -2.95751E+03  6.60685E+03 -1.14777E+03
  8.39210E+03  2.24589E+03  4.57759E+03  8.25430E+03 -2.02382E+03  8.74492E+03 -9.31522E+03  6.74295E+03
 -1.14689E+04 -1.38254E+03 -7.06072E+03 -8.04085E+03 -1.30478E+03 -1.24455E+04  7.13731E+03 -1.20984E+04
  1.25425E+04 -6.40141E+03  1.46219E+04  2.25920E+03  1.08502E+04  1.08605E+04  1.61168E+03  1.44549E+04
 -5.97817E+03  1.12181E+04 -8.24063E+03  4.30493E+03 -4.76666E+03 -1.58378E+03 -2.77509E+03 -1.98466E+03
 -1.22460E+03  4.18817E+02 -1.63553E+03  2.05885E+03 -4.74277E+03  1.62803E+03 -8.20711E+03 -9.58115E+02
 -5.39925E+03 -8.97588E+03  7.98670E+02 -1.17235E+04  6.55544E+03 -1.03899E+04  1.11272E+04 -2.47900E+03
  1.06119E+04  5.75427E+03  4.78313E+03  9.82648E+03 -2.71652E+03  1.18594E+04 -7.65520E+03  7.09499E+03
 -1.02139E+04  1.12858E+03 -8.38688E+03 -7.31638E+03 -8.06103E+02 -8.35645E+03  5.11293E+03 -7.74348E+03
  7.57322E+03 -2.94947E+03  4.45710E+03  2.09930E+03  1.31010E+03  3.74762E+03  1.37378E+03  1.87448E+03
  2.43430E+03  1.06765E+03  2.58693E+03  1.85558E+03  2.67937E+03  4.34512E+03  2.70492E+03  5.45547E+03
 -1.85107E+03  9.35842E+03 -7.69846E+03  9.25718E+03 -1.10163E+04  2.16342E+03 -1.21430E+04 -4.75762E+03
 -4.95046E+03 -1.10761E+04  1.73725E+03 -1.32418E+04  6.94752E+03 -8.22154E+03  9.10022E+03 -2.62507E+03
  7.00805E+03  3.79277E+03  1.61727E+03  6.98255E+03 -3.73618E+03  4.60881E+03 -4.00162E+03 -8.46481E+02
 -1.46952E+03 -4.95940E+03  2.43455E+03 -5.13828E+03  4.34716E+03 -2.01941E+03  4.26113E+03  2.38406E+02
  3.28658E+03  2.08845E+03  1.06471E+03  1.57288E+03 -4.41665E+02  1.68266E+03  1.37490E+03 -6.16878E+02
  2.39348E+03 -8.28099E+02  5.08085E+03  1.47108E+03  2.25881E+03  5.79663E+03 -1.15531E+03  7.20560E+03
 -6.13387E+03  5.09817E+03 -7.15582E+03  5.01679E+02 -5.32816E+03 -2.42274E+03 -2.39386E+03 -4.46245E+03
  6.50471E+02 -3.88676E+03  2.74906E+03 -2.08053E+03  2.74201E+03  1.78689E+03 -1.12636E+03  3.48830E+03
 -4.89228E+03  2.08305E+03 -4.72944E+03 -2.65031E+03 -3.33005E+03 -6.28680E+03  8.46328E+02 -5.84582E+03
  2.62384E+03 -3.03974E+03  4.18388E+03 -6.78905E+02  3.52700E+03 -8.23917E+01  9.69963E+02  3.25375E+03
 -1.65069E+03  1.38219E+02 -2.89535E+03 -1.97695E+03  1.13539E+03 -4.12819E+03  5.40502E+03 -3.12814E+03
  7.19632E+03  6.32505E+02  7.07275E+03  3.99702E+03  2.36759E+03  6.70175E+03 -2.41641E+03  7.68037E+03
 -5.21479E+03  2.40640E+03 -6.03458E+03 -6.43236E+02 -3.58279E+03 -4.24238E+03  1.79092E+03 -4.26808E+03
  4.78206E+03 -2.64625E+03  3.59586E+03  2.49997E+03  9.66794E+02  4.66050E+03 -4.31008E+02  3.15925E+03
 -1.29596E+03  2.29445E+03 -1.59975E+03  6.50860E+02  6.83614E+01  3.42164E+02 -1.44907E+03  1.38931E+03
 -1.69173E+03  3.15725E+03 -4.56142E+03  2.07497E+03 -6.62115E+03  8.04165E+02 -7.99629E+03 -3.68097E+03
 -4.85910E+03 -8.46260E+03  1.59563E+03 -1.11975E+04  6.13697E+03 -8.41465E+03  9.99184E+03 -3.34172E+03
  8.87505E+03  2.12328E+03  5.81037E+03  6.24803E+03 -3.41308E+02  7.12756E+03 -3.42837E+03  5.63725E+03
 -4.79725E+03  1.57124E+03 -2.64491E+03 -2.47587E+02 -8.20646E+02  2.00558E+02 -4.00556E+02  3.55938E+02
 -1.44904E+03 -2.89286E+02 -2.34291E+03 -4.41369E+02 -5.60137E+02 -2.12768E+03 -2.08731E+02 -2.47139E+03
  3.17719E+03 -2.17925E+03  4.56946E+03  3.38282E+02  5.47075E+03  3.81254E+03  1.58349E+03  7.09707E+03
 -3.85583E+03  9.17070E+03 -7.80187E+03  4.26846E+03 -9.22513E+03 -4.10119E+02 -6.35304E+03 -5.23904E+03
 -2.15583E+03 -6.95795E+03  2.56253E+03 -6.04645E+03  4.43999E+03 -3.25228E+03  4.51496E+03 -6.35974E+02
  2.81263E+03  2.68859E+03  4.05119E+02  1.63958E+03 -1.58240E+03 -2.81849E+02 -4.37291E+02 -1.33008E+03
  1.81214E+03 -2.64389E+02  2.22986E+03  1.32055E+03  2.16197E+03  2.60936E+03  3.05041E+02  3.16915E+03
 -2.69534E+03  3.20962E+03 -5.32263E+03  1.20507E+03 -3.98152E+03 -3.36919E+03 -4.92906E+02 -6.46375E+03
  3.89801E+03 -4.67114E+03  4.65984E+03 -1.26518E+03  5.12956E+03  1.04229E+03  2.95534E+03  3.94368E+03
  7.98931E+02  5.05257E+03 -2.62569E+03  3.78288E+03 -2.98161E+03  1.76465E+03 -2.31907E+03  8.14815E+02
 -7.68801E+02  9.29546E+01 -1.59451E+03  5.35652E+02 -2.18736E+03  5.84083E+02 -3.54804E+03 -4.14948E+02
 -3.05392E+03 -1.85965E+03 -5.51901E+02 -4.85232E+03  1.49577E+03 -5.35198E+03  3.90455E+03 -1.55392E+03
  3.98179E+03  3.80962E+02  1.79987E+03  3.20339E+03  6.00335E+01  4.88024E+03 -3.43723E+03  2.89695E+03
