 $NMID ID='MM_0lb_SNR400_14hz_g40_96.RAW', FMTDAT='(8E13.5)'
 TRAMP=1., VOLUME=1. $END
  3.10147E+05  6.51400E+02  3.37519E+05  2.50450E+05  8.45841E+04  3.37613E+05 -1.32894E+05  2.50826E+05
 -1.90127E+05  8.31515E+04 -1.11174E+05 -3.23604E+04  5.29504E+02 -5.03302E+04  5.39447E+04 -5.66103E+02
  3.49701E+04  5.28571E+04 -1.66971E+04  7.54281E+04 -6.02662E+04  6.30353E+04 -8.36234E+04  3.22812E+04
 -8.02839E+04 -1.13369E+04 -5.72862E+04 -5.10073E+04 -1.48454E+04 -6.90255E+04  2.71438E+04 -4.52326E+04
  3.93319E+04  4.28227E+03  1.55245E+04  4.73549E+04 -3.43353E+04  4.72967E+04 -6.69037E+04 -8.40851E+02
 -5.30224E+04 -5.69048E+04 -6.56113E+03 -7.66821E+04  3.38977E+04 -5.43959E+04  4.75928E+04 -1.66191E+04
  4.29479E+04  1.13832E+04  3.15653E+04  2.48353E+04  1.56121E+04  2.92902E+04 -5.47798E+03  2.72612E+04
 -2.14762E+04  1.26152E+04 -1.85221E+04 -4.64073E+03  5.23317E+03 -7.42348E+03  2.21687E+04  1.22878E+04
  7.24417E+03  3.47781E+04 -3.25089E+04  3.52928E+04 -6.24597E+04  2.30699E+03 -5.68484E+04 -4.25365E+04
 -1.18198E+04 -6.28313E+04  3.89425E+04 -4.50414E+04  5.75454E+04 -2.88217E+03  3.34794E+04  3.11715E+04
 -6.75748E+03  3.54346E+04 -3.03978E+04  1.54213E+04 -2.99464E+04 -4.67478E+03 -1.57743E+04 -1.06693E+04
 -8.29801E+03 -1.29944E+04 -1.26443E+03 -1.73175E+04  6.85928E+03 -2.28263E+04  1.57183E+04 -1.33432E+04
  1.14601E+04  5.00297E+03 -7.50778E+03  1.31934E+04 -2.11116E+04 -3.94085E+03 -8.83126E+03 -3.26190E+04
  2.20896E+04 -4.24941E+04  4.75190E+04 -1.89689E+04  4.40285E+04  1.88696E+04  1.54773E+04  4.35234E+04
 -1.53556E+04  3.31252E+04 -2.49755E+04  1.20500E+03 -9.46630E+03 -2.72579E+04  2.10415E+04 -3.32866E+04
  4.02415E+04 -8.17104E+03  3.41055E+04  2.34027E+04  1.73272E+04  4.50958E+04 -8.10904E+03  4.89185E+04
 -3.12018E+04  3.29490E+04 -4.05829E+04  8.96934E+03 -4.13380E+04 -1.69064E+04 -2.28304E+04 -3.71092E+04
  7.02884E+03 -3.71967E+04  3.09183E+04 -1.41132E+04  2.88272E+04  1.16096E+04  3.58027E+03  1.84212E+04
 -1.31620E+04  8.32529E+03 -1.04586E+04 -7.41157E+03  6.09875E+03 -1.06873E+04  1.81255E+04  5.78844E+03
  1.32924E+04  2.14491E+04 -6.08629E+03  2.52168E+04 -2.23664E+04  1.12420E+04 -2.78531E+04 -5.36522E+03
 -1.91148E+04 -1.71572E+04 -7.64283E+03 -1.93098E+04  3.58190E+03 -1.87583E+04  1.48879E+04 -1.72240E+04
  2.51121E+04 -1.28976E+04  3.15344E+04  2.42030E+03  2.32408E+04  1.88063E+04  4.05621E+03  3.52803E+04
 -1.75534E+04  2.95413E+04 -2.72523E+04  1.04325E+04 -2.05418E+04 -1.08000E+04 -4.13598E+03 -1.37428E+04
  2.05036E+03 -3.29929E+03 -4.53724E+03  6.83340E+03 -1.53278E+04  5.24860E+03 -1.53710E+04 -6.53377E+03
 -1.00277E+04 -1.85583E+04  4.90860E+03 -2.20425E+04  1.44688E+04 -1.55822E+04  1.70652E+04 -1.78248E+03
  1.05398E+04  1.30491E+04 -6.32140E+02  1.86226E+04 -1.18212E+04  1.03663E+04 -1.82234E+04 -3.68408E+03
 -1.35806E+04 -1.65746E+04 -1.72219E+03 -2.20197E+04  1.03083E+04 -1.76589E+04  1.89723E+04 -9.01020E+03
  1.72532E+04  5.32317E+02  1.14982E+04  4.08033E+03  6.02386E+03  1.32387E+03  9.39433E+03 -1.64855E+03
  1.68493E+04  2.73569E+03  1.87098E+04  1.45198E+04  1.15270E+04  2.96101E+04 -3.25696E+03  3.23315E+04
 -1.86834E+04  2.59021E+04 -2.99143E+04  1.28640E+04 -3.22080E+04 -2.03069E+03 -2.65364E+04 -1.80245E+04
 -1.15477E+04 -2.58724E+04  9.10094E+03 -2.40200E+04  2.04061E+04 -1.22981E+04  1.77919E+04  5.13877E+03
  7.78540E+03  1.45054E+04 -8.30430E+03  1.22998E+04 -1.54633E+04  2.39078E+03 -1.20827E+04 -9.75820E+03
  1.18875E+01 -1.53796E+04  7.43807E+03 -1.15416E+04  1.04498E+04 -1.19162E+03  1.85550E+03  6.59122E+03
 -6.52919E+03  1.37849E+03 -5.09607E+03 -5.67006E+03 -6.24279E+02 -1.30478E+04  9.03847E+03 -1.38132E+04
  1.61076E+04 -7.15599E+03  1.69869E+04  2.98737E+03  1.49737E+04  1.21828E+04  7.04967E+03  1.88095E+04
 -2.75356E+03  2.07849E+04 -1.32670E+04  1.31060E+04 -1.50447E+04  2.95240E+03 -1.12379E+04 -3.28877E+03
 -4.86966E+03 -4.47392E+03 -1.42705E+03  1.33190E+03 -2.04028E+03  2.72632E+03 -5.21099E+03  4.20313E+03
 -1.02826E+04 -5.83640E+02 -1.07304E+04 -9.41661E+03 -4.59085E+03 -1.33358E+04  4.16758E+03 -1.06813E+04
  8.55828E+03 -5.21424E+03  7.25422E+03  3.18259E+03  3.93064E+02  4.30921E+03 -4.36793E+03  3.22074E+01
 -4.66624E+03 -7.35593E+03 -1.10584E+03 -9.89383E+03  5.14075E+03 -1.09162E+04  1.27253E+04 -5.06266E+03
  1.58502E+04  1.10870E+03  1.16622E+04  8.99392E+03  2.24162E+03  1.22396E+04 -6.66990E+03  1.09037E+04
 -8.89910E+03  3.65834E+03 -4.21665E+03 -1.60537E+03  2.25978E+03 -2.99205E+03  6.14702E+03 -5.88530E+02
  5.10102E+03  4.39180E+03  1.30486E+03  8.16812E+03 -5.84008E+03  8.55688E+03 -1.03616E+04  2.64870E+03
 -6.74601E+03 -5.51407E+03 -1.64927E+02 -9.22960E+03  5.44270E+03 -4.66342E+03  5.57325E+03  1.54674E+03
  1.29984E+03  5.25069E+03 -4.84995E+03  6.24935E+03 -7.69661E+03  3.77724E+03 -7.29537E+03 -2.10512E+03
 -4.77817E+03 -8.97944E+03  2.12568E+03 -1.10853E+04  8.67970E+03 -7.05627E+03  9.69943E+03  1.17034E+03
  6.47376E+03  7.80108E+03 -7.88343E+02  9.82369E+03 -7.24470E+03  5.07363E+03 -7.03421E+03 -4.70312E+02
 -8.00162E+03 -6.83057E+03 -1.83921E+03 -7.62356E+03  3.75075E+03 -5.81536E+03  4.82288E+03 -3.76916E+03
  3.53006E+03  1.17431E+03  5.55895E+02  1.63563E+03 -5.22953E+01 -1.46505E+03  1.21584E+03 -3.32697E+03
  6.19886E+03 -2.05924E+03  8.63262E+03  9.93705E+02  8.01902E+03  5.04987E+03  7.15387E+03  1.12064E+04
 -2.73372E+03  1.28202E+04 -1.14014E+04  9.91667E+03 -1.46489E+04  1.60074E+03 -1.14559E+04 -5.42050E+03
 -6.53665E+03 -9.69986E+03 -7.89576E+02 -8.28701E+03  3.09089E+03 -3.80215E+03  3.11311E+03 -3.03672E+03
  2.47846E+03 -2.28135E+03  3.63694E+03 -3.11016E+03  4.50195E+03 -1.79740E+03  4.80248E+03  1.71299E+02
  6.29085E+03  2.05929E+03  2.24673E+03  5.32117E+03 -1.89198E+03  6.13970E+03 -6.94216E+03  3.86577E+03
 -8.42319E+03 -1.17161E+03 -4.92920E+03 -5.49608E+03 -2.18680E+02 -8.52161E+03  4.70848E+03 -9.09928E+03
  8.66677E+03 -4.78384E+03  1.04500E+04  9.47974E+02  7.85892E+03  6.91078E+03  1.59454E+03  9.83632E+03
 -4.25952E+03  8.12668E+03 -5.62406E+03  3.20335E+03 -3.59487E+03 -1.53502E+03 -1.06494E+03 -1.46497E+03
 -8.35070E+02 -1.58816E+02 -9.21376E+02  2.16649E+03 -4.02573E+03  1.28701E+03 -6.18672E+03 -3.81259E+02
 -3.42908E+03 -5.90318E+03  7.50943E+02 -7.33657E+03  5.05863E+03 -8.02374E+03  6.37856E+03 -2.37912E+03
  7.52217E+03  4.24227E+03  3.30488E+03  6.21555E+03 -1.53399E+03  7.58654E+03 -5.55382E+03  4.62236E+03
 -7.44981E+03  7.68116E+02 -5.52009E+03 -4.14053E+03 -3.17988E+02 -6.02237E+03  2.42922E+03 -4.17657E+03
  4.83943E+03 -1.79680E+03  2.95344E+03  1.52168E+03  8.20586E+02  2.07014E+03  1.25272E+03  1.43357E+03
  2.04572E+03  3.99315E+02  1.48961E+03  1.51856E+03  2.49948E+03  2.53932E+03  1.63680E+03  3.35057E+03
 -2.01250E+03  5.98084E+03 -4.68830E+03  6.11602E+03 -6.76837E+03  1.51627E+03 -8.05830E+03 -1.91723E+03
 -3.80646E+03 -7.18489E+03  7.00140E+02 -7.96333E+03  4.32712E+03 -4.81062E+03  6.00412E+03 -1.51501E+03
  4.72403E+03  3.07161E+03  7.02794E+02  4.06695E+03 -2.12870E+03  2.68077E+03 -1.79669E+03 -3.15033E+02
 -9.37804E+02 -3.46434E+03  1.90368E+03 -3.46960E+03  2.27041E+03 -1.39024E+03  2.48531E+03  1.11114E+03
  1.62562E+03  1.22783E+03  7.52731E+02  2.41903E+02 -5.26741E+02  1.41470E+03  1.41212E+03 -5.25543E+01
  6.36407E+02 -3.22524E+02  2.99610E+03  1.54509E+03  7.84018E+02  3.31077E+03 -4.47311E+02  5.12087E+03
 -3.02044E+03  3.04648E+03 -4.43299E+03  8.47582E+02 -4.03324E+03 -1.27301E+03 -1.22969E+03 -2.80888E+03
  6.50622E+02 -2.39644E+03  1.54166E+03 -1.29716E+03  1.02458E+03  1.68588E+03 -1.10089E+03  2.32777E+03
 -2.66575E+03  1.53456E+03 -2.19386E+03 -1.69269E+03 -1.75469E+03 -3.53045E+03  1.30122E+03 -3.26662E+03
  2.23638E+03 -2.25515E+03  2.44146E+03 -6.00523E+02  2.47891E+03 -4.83773E+02  5.61074E+02  1.98871E+03
 -1.31726E+03  6.38217E+02 -1.56249E+03 -1.52093E+03  5.95298E+02 -2.53172E+03  3.15313E+03 -2.16096E+03
  3.96568E+03  1.73229E+01  4.16575E+03  2.66411E+03  1.17661E+03  4.72303E+03 -1.15351E+03  4.11095E+03
 -3.77832E+03  1.76776E+03 -3.36596E+03 -7.43044E+02 -1.95471E+03 -2.70704E+03  9.63976E+02 -1.33134E+03
  2.11140E+03 -1.49286E+03  1.60721E+03  1.51179E+03  3.68380E+02  3.00916E+03 -3.89169E+02  2.35063E+03
 -8.84828E+02  1.53507E+03 -5.82061E+02  5.55781E+02 -2.91008E+02  7.90779E+02 -1.31383E+03  1.36064E+03
 -1.08823E+03  1.30664E+03 -2.96860E+03  6.42655E+02 -4.34122E+03 -8.78473E+01 -5.23813E+03 -2.22844E+03
 -2.58186E+03 -5.29660E+03  8.33907E+02 -6.44260E+03  3.84560E+03 -5.40662E+03  6.62222E+03 -2.35864E+03
  4.89004E+03  5.65733E+02  2.67348E+03  3.45202E+03 -4.85971E+02  4.19275E+03 -1.27858E+03  2.59430E+03
 -1.94690E+03  1.43172E+03 -1.09784E+03 -1.41202E+02 -1.22013E+03  1.39353E+02 -1.15726E+03  7.19907E+02
 -1.10206E+03  2.41180E+02 -1.14486E+03  2.12059E+02 -2.97903E+02 -1.29714E+03 -3.61809E+02 -1.96880E+03
  1.70105E+03 -1.25376E+03  1.93155E+03 -5.54775E+02  2.59373E+03  1.87321E+03 -3.13268E+02  3.34301E+03
 -1.96558E+03  4.85323E+03 -3.98791E+03  2.76463E+03 -4.90305E+03  1.04999E+02 -2.96211E+03 -3.17218E+03
 -1.50667E+03 -3.09509E+03  1.17636E+03 -2.92342E+03  1.88156E+03 -1.76180E+03  2.08867E+03  4.63890E+02
  1.92790E+03  1.30691E+03 -3.31279E+02  1.01610E+03 -3.13881E+02  4.36084E+01 -1.34722E+02 -7.27650E+02
  1.77237E+03 -4.56724E+02  1.59735E+03  6.75610E+02  5.71054E+02  9.37195E+02  2.76046E+02  1.08789E+03
 -1.53583E+03  1.94548E+03 -2.20699E+03  4.45887E+02 -2.36954E+03 -1.57294E+03 -4.14256E+02 -3.16522E+03
  1.50788E+03 -2.28885E+03  2.20438E+03 -4.21416E+02  3.24480E+03 -3.13396E+02  1.33486E+03  2.40131E+03
  6.96116E+02  1.70531E+03 -2.26338E+02  1.66554E+03 -1.62134E+03  9.91958E+02 -1.25180E+03 -7.33440E+01
 -1.47675E+02 -4.50977E+02 -9.35847E+02  1.97354E+02 -9.35352E+02  6.81255E+02 -2.01723E+03 -7.82752E+02
 -2.22117E+03 -1.09031E+03 -6.93898E+02 -2.05375E+03  1.35588E+03 -2.53408E+03  1.94999E+03 -1.11644E+03
  2.31475E+03  4.55013E+02  8.75483E+02  1.08422E+03 -5.98058E+02  2.46990E+03 -1.24000E+03  1.04070E+03
