 $NMID ID='MM_0lb_SNR400_15hz_g40_5.RAW', FMTDAT='(8E13.5)'
 TRAMP=1., VOLUME=1. $END
  3.09335E+05  5.03514E+02  3.38057E+05  2.50707E+05  8.49825E+04  3.37619E+05 -1.32835E+05  2.50986E+05
 -1.88940E+05  8.24403E+04 -1.11669E+05 -3.25526E+04  1.15965E+03 -5.05057E+04  5.35458E+04 -8.62699E+01
  3.52078E+04  5.31950E+04 -1.60495E+04  7.54731E+04 -6.10320E+04  6.32741E+04 -8.38246E+04  3.21878E+04
 -8.04420E+04 -1.14721E+04 -5.68529E+04 -5.07591E+04 -1.43714E+04 -6.86154E+04  2.74406E+04 -4.50564E+04
  3.95644E+04  3.65103E+03  1.60596E+04  4.71485E+04 -3.38944E+04  4.65136E+04 -6.59894E+04  3.94418E+02
 -5.27850E+04 -5.60449E+04 -6.97482E+03 -7.60439E+04  3.32677E+04 -5.43419E+04  4.66774E+04 -1.65117E+04
  4.22270E+04  1.07270E+04  3.15700E+04  2.52662E+04  1.65514E+04  2.89502E+04 -5.01102E+03  2.71430E+04
 -2.16909E+04  1.24420E+04 -1.93688E+04 -4.44836E+03  4.91219E+03 -7.57101E+03  2.25574E+04  1.19325E+04
  7.15546E+03  3.43514E+04 -3.16541E+04  3.49437E+04 -6.21865E+04  2.34298E+03 -5.65371E+04 -4.21170E+04
 -1.22341E+04 -6.18009E+04  3.89115E+04 -4.45534E+04  5.74717E+04 -1.82805E+03  3.38003E+04  3.12534E+04
 -6.50812E+03  3.44461E+04 -2.90898E+04  1.45256E+04 -2.89985E+04 -5.03668E+03 -1.56032E+04 -1.06002E+04
 -7.74248E+03 -1.21857E+04 -7.88670E+02 -1.72219E+04  7.19455E+03 -2.27337E+04  1.52956E+04 -1.38454E+04
  1.19212E+04  4.42466E+03 -6.75407E+03  1.31653E+04 -1.97370E+04 -3.27926E+03 -8.13902E+03 -3.25580E+04
  2.14399E+04 -4.22582E+04  4.67134E+04 -1.90113E+04  4.37458E+04  1.89804E+04  1.48464E+04  4.34163E+04
 -1.59405E+04  3.22368E+04 -2.41700E+04  1.52907E+03 -9.98197E+03 -2.75206E+04  2.03991E+04 -3.23117E+04
  3.95792E+04 -8.40907E+03  3.38913E+04  2.32815E+04  1.69322E+04  4.47909E+04 -7.80301E+03  4.78545E+04
 -3.05180E+04  3.22540E+04 -4.02834E+04  9.20727E+03 -4.05280E+04 -1.54721E+04 -2.19911E+04 -3.67859E+04
  7.26709E+03 -3.58685E+04  3.03259E+04 -1.36647E+04  2.85757E+04  1.01565E+04  3.65436E+03  1.79088E+04
 -1.27587E+04  7.84270E+03 -1.03990E+04 -7.19112E+03  5.80278E+03 -1.03390E+04  1.71628E+04  5.21280E+03
  1.36479E+04  2.16402E+04 -6.11165E+03  2.41470E+04 -2.17637E+04  1.05292E+04 -2.67711E+04 -5.37679E+03
 -1.87912E+04 -1.70805E+04 -7.13941E+03 -1.85914E+04  4.03914E+03 -1.72360E+04  1.42325E+04 -1.66096E+04
  2.43951E+04 -1.23405E+04  3.08669E+04  1.61827E+03  2.27773E+04  1.85351E+04  3.69204E+03  3.45223E+04
 -1.68055E+04  2.88484E+04 -2.67592E+04  1.03936E+04 -1.99917E+04 -9.57354E+03 -4.51067E+03 -1.34416E+04
  2.00707E+03 -3.30766E+03 -4.13390E+03  5.51303E+03 -1.49190E+04  5.53361E+03 -1.52211E+04 -6.36528E+03
 -9.01166E+03 -1.81389E+04  5.05863E+03 -2.12927E+04  1.42568E+04 -1.53246E+04  1.71871E+04 -1.43764E+03
  9.89186E+03  1.25992E+04 -1.14848E+03  1.72107E+04 -1.24291E+04  1.07816E+04 -1.70812E+04 -4.05418E+03
 -1.33226E+04 -1.60063E+04 -1.77650E+03 -2.10226E+04  9.53829E+03 -1.66279E+04  1.74496E+04 -8.96185E+03
  1.70761E+04  6.45943E+02  1.19431E+04  3.77126E+03  6.03164E+03  6.19107E+02  8.60990E+03 -9.66888E+02
  1.64463E+04  2.66865E+03  1.73962E+04  1.40911E+04  1.07975E+04  2.78974E+04 -2.72870E+03  3.11491E+04
 -1.78692E+04  2.48038E+04 -2.92319E+04  1.26551E+04 -2.95283E+04 -1.92230E+03 -2.49336E+04 -1.74904E+04
 -1.10403E+04 -2.44846E+04  8.20665E+03 -2.28850E+04  1.88366E+04 -1.15678E+04  1.73108E+04  4.13004E+03
  6.22412E+03  1.33555E+04 -8.62152E+03  1.22641E+04 -1.55414E+04  2.53260E+03 -1.11619E+04 -9.43554E+03
 -2.85886E+02 -1.43185E+04  7.29332E+03 -1.04717E+04  8.59567E+03 -1.43053E+03  1.61965E+03  5.50910E+03
 -6.34709E+03  1.94785E+03 -5.12891E+03 -5.41386E+03  5.51139E+01 -1.21085E+04  9.10053E+03 -1.25172E+04
  1.46186E+04 -6.59982E+03  1.57734E+04  2.91928E+03  1.35328E+04  1.13752E+04  5.61654E+03  1.77823E+04
 -2.65814E+03  1.95976E+04 -1.18900E+04  1.19413E+04 -1.41018E+04  3.76580E+03 -1.00348E+04 -2.14989E+03
 -5.06571E+03 -3.57715E+03 -8.82529E+02  1.22995E+03 -2.89093E+03  2.13217E+03 -4.71740E+03  4.21006E+03
 -9.83924E+03  1.10751E+02 -1.04625E+04 -8.15643E+03 -4.09212E+03 -1.29941E+04  4.04130E+03 -9.76296E+03
  8.84272E+03 -4.44459E+03  5.82035E+03  2.95631E+03 -2.98525E+02  3.76736E+03 -5.00556E+03 -4.89594E+02
 -4.43323E+03 -6.17155E+03 -8.39495E+02 -8.96355E+03  4.95913E+03 -1.00691E+04  1.22004E+04 -4.45779E+03
  1.47448E+04  6.69652E+02  1.07161E+04  8.13573E+03  2.70667E+03  1.14658E+04 -6.10867E+03  9.93250E+03
 -8.56771E+03  2.74901E+03 -4.01610E+03 -1.45885E+03  1.63186E+03 -2.64923E+03  6.00228E+03 -9.37225E+02
  4.38256E+03  3.93874E+03  6.87539E+02  8.00119E+03 -5.51528E+03  7.44945E+03 -9.73577E+03  2.09439E+03
 -6.08726E+03 -4.68749E+03  1.23601E+02 -8.06699E+03  5.53241E+03 -4.12860E+03  4.50036E+03  1.68050E+03
  7.75202E+02  4.98834E+03 -4.90769E+03  6.88275E+03 -6.27176E+03  2.99361E+03 -6.18299E+03 -1.78612E+03
 -4.18233E+03 -8.58352E+03  1.76613E+03 -9.84774E+03  8.31736E+03 -5.76428E+03  9.31616E+03  1.28332E+03
  6.04361E+03  7.16950E+03  1.54549E+02  9.41916E+03 -6.68694E+03  4.93660E+03 -7.33896E+03  1.58226E+02
 -6.99644E+03 -6.68473E+03 -1.18033E+03 -6.31596E+03  3.05344E+03 -5.88158E+03  4.02392E+03 -2.65551E+03
  3.19789E+03  1.02249E+03  3.85569E+01  1.34907E+03  3.10361E+02 -1.23523E+03  7.89664E+02 -3.55411E+03
  5.69030E+03 -1.83056E+03  8.13824E+03  1.21845E+03  8.21119E+03  4.79544E+03  6.55808E+03  1.09852E+04
 -2.08714E+03  1.23476E+04 -1.01777E+04  8.98534E+03 -1.37258E+04  1.95213E+03 -1.08678E+04 -3.57706E+03
 -5.35865E+03 -9.25283E+03 -6.22642E+02 -7.21244E+03  2.69334E+03 -3.67395E+03  2.16041E+03 -2.53402E+03
  1.51904E+03 -1.83323E+03  2.16672E+03 -2.56939E+03  3.90137E+03 -1.64788E+03  4.32104E+03  2.21950E+02
  5.28389E+03  1.16520E+03  2.22881E+03  4.97648E+03 -1.52435E+03  4.62847E+03 -6.14032E+03  4.11877E+03
 -7.28763E+03 -1.42181E+03 -3.04744E+03 -4.86578E+03 -4.16535E+01 -7.16281E+03  4.83300E+03 -7.42907E+03
  7.92727E+03 -4.23838E+03  9.51370E+03  8.18171E+02  6.61751E+03  6.05530E+03  1.25328E+03  8.49138E+03
 -3.96257E+03  7.57967E+03 -5.07140E+03  3.10072E+03 -2.46768E+03 -1.42146E+03 -1.11523E+03 -1.37007E+03
 -1.09699E+03 -1.50658E+02 -1.12196E+03  2.07884E+03 -3.52612E+03  1.68588E+03 -5.63958E+03 -1.01302E+03
 -3.02769E+03 -5.96739E+03  7.90708E+02 -6.38119E+03  4.24677E+03 -6.21272E+03  5.38854E+03 -1.64466E+03
  6.47945E+03  3.30589E+03  2.88074E+03  5.34283E+03 -9.51978E+02  6.34457E+03 -4.46838E+03  3.97036E+03
 -6.65225E+03  9.73525E+02 -4.61761E+03 -4.23806E+03 -5.51980E+02 -5.35207E+03  2.32196E+03 -4.36099E+03
  4.08737E+03 -1.67374E+03  2.40907E+03  1.07548E+03  9.48081E+02  2.57969E+03  8.96738E+02  1.39629E+03
  1.78483E+03 -4.75883E+01  1.73424E+03  1.00503E+03  2.18419E+03  2.74790E+03  1.66073E+03  2.97079E+03
 -1.87565E+03  4.78805E+03 -4.51247E+03  5.35102E+03 -6.01840E+03  1.49186E+03 -6.39970E+03 -1.33209E+03
 -3.76155E+03 -6.38029E+03  1.07770E+03 -7.71977E+03  3.02215E+03 -4.10798E+03  5.02314E+03 -1.03313E+03
  3.78962E+03  2.74915E+03  1.12464E+03  3.55510E+03 -2.21072E+03  2.06444E+03 -1.81201E+03 -4.74896E+02
 -1.16486E+03 -3.14229E+03  1.49621E+03 -2.81250E+03  2.00605E+03 -1.29690E+03  2.13002E+03  4.71472E+02
  1.27020E+03  9.07395E+02  1.43837E+03  3.16746E+02 -3.71587E+02  9.15768E+02  1.95280E+03 -1.31091E+02
  5.12105E+02  1.05109E+01  2.29974E+03  3.90149E+02  1.40485E+03  3.16208E+03 -1.09447E+02  4.85243E+03
 -3.06401E+03  2.52518E+03 -4.02398E+03  4.49648E+02 -3.64305E+03 -1.47952E+03 -9.83525E+02 -2.12636E+03
  7.66696E+02 -2.26262E+03  1.05021E+03 -9.28302E+02  1.03192E+03  1.63410E+03 -1.08277E+03  1.37495E+03
 -2.56655E+03  6.61059E+02 -2.42587E+03 -2.25780E+03 -1.27522E+03 -3.25493E+03  3.70862E+02 -2.86866E+03
  1.18006E+03 -1.31678E+03  1.59026E+03 -9.06556E+01  1.68106E+03  4.18085E+02  1.80111E+01  1.60855E+03
 -4.35244E+02  1.54781E+02 -1.22720E+03 -8.39730E+02  3.54212E+02 -2.16545E+03  2.92135E+03 -1.65522E+03
  3.08798E+03  1.42052E+01  3.96614E+03  2.23311E+03  1.45860E+03  3.22760E+03 -9.82033E+02  3.40477E+03
 -2.80701E+03  1.11386E+03 -2.51440E+03 -5.41959E+02 -2.11716E+03 -2.30252E+03  9.38259E+02 -1.53594E+03
  2.62464E+03 -1.28224E+03  1.20335E+03  8.68784E+02  2.40386E+02  1.88693E+03  1.36244E+02  1.79147E+03
 -6.36365E+02  7.97971E+02 -4.70605E+02  7.19247E+02 -3.00290E+02  3.09019E+02 -8.95119E+02  5.20807E+02
 -7.95510E+02  1.43272E+03 -2.78036E+03  1.29259E+03 -3.80362E+03 -3.70147E+02 -4.00251E+03 -1.67692E+03
 -2.07702E+03 -4.69810E+03  1.19960E+03 -5.18083E+03  2.74036E+03 -4.22568E+03  5.08260E+03 -1.74811E+03
  5.13005E+03  3.30949E+02  2.65900E+03  2.45501E+03 -2.08271E+02  3.75292E+03 -9.88970E+02  2.25908E+03
 -2.38057E+03  1.27217E+03 -6.88529E+02 -5.31239E+02 -4.97952E+02  6.31323E+02 -5.56292E+02 -5.10483E+02
 -1.36323E+03 -3.28488E+02 -1.01999E+03 -4.89051E+02  6.08653E+01 -1.06029E+03  1.18559E+02 -1.25617E+03
  1.78959E+03 -6.95125E+02  8.37867E+02  4.28908E+02  2.55081E+03  1.53005E+03  2.25786E+02  2.77122E+03
 -1.62846E+03  3.83859E+03 -4.02384E+03  2.56493E+03 -3.69137E+03 -7.31980E+02 -3.18269E+03 -2.27396E+03
 -1.42420E+03 -2.91013E+03  7.17266E+02 -2.65058E+03  1.18477E+03 -1.05391E+03  1.84962E+03  2.80361E+02
  1.12493E+03  1.04486E+03  5.61198E+01  6.56519E+02 -4.53157E+02 -2.18051E+02  3.40992E+02 -7.06312E+02
  7.72962E+02  3.00560E+01  1.42855E+03  1.00012E+03  7.33322E+02  5.59292E+02  6.26537E+02  1.02941E+03
 -1.58879E+03  1.18354E+03 -2.00943E+03  5.26696E+01 -2.29735E+03 -9.73405E+02 -1.69994E+02 -2.86585E+03
  1.27925E+03 -1.73745E+03  2.17561E+03  3.89846E+01  2.83867E+03  3.82119E+01  1.63702E+03  1.78908E+03
  4.38601E+01  1.37205E+03 -6.36939E+02  7.57092E+02 -1.05094E+03  1.43790E+03 -1.57346E+03 -1.81625E+02
 -8.17496E+02  2.29239E+01 -1.27099E+03  3.89013E+02 -1.00062E+03  4.95129E+02 -1.52715E+03 -6.55065E+02
 -1.66313E+03 -3.75550E+02 -1.19499E+03 -1.57624E+03  1.53681E+03 -2.39753E+03  1.48258E+03 -8.71262E+02
  1.96789E+03  7.36635E+02  1.37554E+02  7.76518E+02 -3.21751E+01  2.30103E+03 -1.28547E+03  1.65195E+03
