 $NMID ID='MM_0lb_SNR400_7hz_g60_97.RAW', FMTDAT='(8E13.5)'
 TRAMP=1., VOLUME=1. $END
  3.09936E+05  1.70294E+03  3.38626E+05  2.51621E+05  8.59859E+04  3.38534E+05 -1.32761E+05  2.52430E+05
 -1.90888E+05  8.45673E+04 -1.13426E+05 -3.22605E+04 -2.25675E+02 -5.06581E+04  5.32015E+04 -1.08670E+03
  3.57207E+04  5.28628E+04 -1.67607E+04  7.70548E+04 -6.14750E+04  6.51013E+04 -8.59234E+04  3.30153E+04
 -8.26352E+04 -1.24994E+04 -5.89510E+04 -5.35793E+04 -1.50329E+04 -7.19078E+04  2.98926E+04 -4.74005E+04
  4.19007E+04  3.34248E+03  1.69734E+04  4.88084E+04 -3.55572E+04  4.90904E+04 -6.89819E+04  4.36888E+02
 -5.57973E+04 -5.87890E+04 -7.12889E+03 -8.05510E+04  3.54815E+04 -5.76824E+04  5.15258E+04 -1.92978E+04
  4.55986E+04  1.15341E+04  3.35426E+04  2.66100E+04  1.62859E+04  3.11160E+04 -5.85704E+03  2.80538E+04
 -2.25951E+04  1.19853E+04 -1.79698E+04 -5.32087E+03  7.89418E+03 -7.87051E+03  2.34525E+04  1.52247E+04
  6.47983E+03  3.81586E+04 -3.41252E+04  3.75031E+04 -6.65922E+04  1.80081E+03 -5.97654E+04 -4.66173E+04
 -1.19917E+04 -6.72963E+04  4.17436E+04 -4.85667E+04  6.29499E+04 -2.62270E+03  3.85387E+04  3.52931E+04
 -4.94634E+03  4.14489E+04 -3.23456E+04  1.98432E+04 -3.45599E+04 -2.45191E+03 -2.16250E+04 -1.17467E+04
 -9.26137E+03 -1.62026E+04 -1.01946E+03 -2.15693E+04  8.12716E+03 -2.42353E+04  1.65688E+04 -1.23546E+04
  1.03976E+04  7.12803E+03 -1.23373E+04  1.31963E+04 -2.46896E+04 -8.97074E+03 -8.24670E+03 -4.04005E+04
  2.72058E+04 -4.91727E+04  5.46082E+04 -2.14109E+04  5.12659E+04  2.17872E+04  1.78849E+04  4.95690E+04
 -1.61927E+04  3.82815E+04 -2.81963E+04  2.81355E+03 -1.28165E+04 -3.02232E+04  2.23927E+04 -3.87532E+04
  4.74712E+04 -1.33456E+04  4.35393E+04  2.55846E+04  2.32225E+04  5.35094E+04 -8.05442E+03  5.94426E+04
 -3.79067E+04  4.18976E+04 -5.05970E+04  1.22962E+04 -5.03648E+04 -1.99903E+04 -2.70934E+04 -4.49429E+04
  8.48947E+03 -4.51390E+04  3.56351E+04 -1.79791E+04  3.41351E+04  1.14034E+04  5.57454E+03  2.26722E+04
 -1.48855E+04  9.83310E+03 -1.18139E+04 -7.05181E+03  5.23101E+03 -1.16332E+04  1.95299E+04  5.57896E+03
  1.58582E+04  2.34215E+04 -4.96967E+03  2.77050E+04 -2.39937E+04  1.55542E+04 -3.25649E+04 -1.60059E+03
 -2.84083E+04 -1.91130E+04 -1.40840E+04 -2.83125E+04  3.99426E+03 -2.88984E+04  2.17791E+04 -2.58162E+04
  3.61989E+04 -1.48004E+04  4.06452E+04  6.64954E+03  2.93126E+04  2.64183E+04  4.86409E+03  4.46365E+04
 -2.10718E+04  3.66663E+04 -3.28371E+04  1.29009E+04 -2.24961E+04 -1.08482E+04 -4.70814E+03 -1.27399E+04
  5.64745E+02  1.08518E+03 -9.99617E+03  8.72735E+03 -2.18927E+04  4.79842E+03 -2.16795E+04 -1.12494E+04
 -1.26046E+04 -2.62883E+04  6.51530E+03 -3.04509E+04  2.09602E+04 -2.14986E+04  2.50541E+04 -1.53390E+03
  1.58569E+04  1.81070E+04 -4.81056E+02  2.57681E+04 -1.92738E+04  1.53692E+04 -2.72398E+04 -5.47732E+03
 -1.82883E+04 -2.32434E+04 -3.33003E+03 -3.15023E+04  1.40271E+04 -2.63285E+04  2.46660E+04 -1.43197E+04
  2.41044E+04 -1.22613E+03  1.88201E+04  6.03271E+03  9.89876E+03  2.10958E+03  1.31558E+04 -3.49639E+03
  2.46102E+04  3.12555E+03  2.97851E+04  2.00388E+04  1.95384E+04  4.17502E+04 -2.33766E+03  5.10698E+04
 -2.75216E+04  4.31824E+04 -4.85757E+04  2.20641E+04 -5.17961E+04 -4.09454E+03 -4.17916E+04 -2.99972E+04
 -1.55893E+04 -4.34986E+04  1.55837E+04 -3.79810E+04  3.21311E+04 -1.76684E+04  2.68980E+04  9.04632E+03
  9.02216E+03  2.16495E+04 -1.40199E+04  1.75129E+04 -2.31717E+04  3.15973E+03 -1.68728E+04 -1.42941E+04
 -1.39959E+03 -2.16426E+04  1.26145E+04 -1.57194E+04  1.44754E+04 -1.26420E+03  4.40445E+03  9.86447E+03
 -9.69703E+03  5.60054E+03 -1.06153E+04 -8.34688E+03 -2.95158E+03 -2.07219E+04  1.28550E+04 -2.35752E+04
  2.68699E+04 -1.38182E+04  3.18187E+04  2.78582E+03  2.74416E+04  2.13161E+04  1.20782E+04  3.55723E+04
 -6.41837E+03  3.67386E+04 -2.46017E+04  2.33670E+04 -2.70384E+04  4.19796E+03 -1.72674E+04 -7.12183E+03
 -6.79483E+03 -8.91550E+03 -5.10328E+02  8.89589E+02 -3.24983E+03  4.71513E+03 -9.70786E+03  6.06410E+03
 -1.74073E+04 -5.88840E+02 -1.76162E+04 -1.39667E+04 -6.56368E+03 -2.29072E+04  7.70725E+03 -1.91231E+04
  1.52643E+04 -8.14665E+03  1.11051E+04  5.07221E+03 -7.27606E+02  7.50560E+03 -9.74641E+03  3.32185E+02
 -9.86569E+03 -1.10344E+04 -2.02763E+03 -1.89757E+04  1.09360E+04 -1.93164E+04  2.36197E+04 -1.12995E+04
  2.78393E+04  4.18143E+03  1.95157E+04  1.78600E+04  3.56705E+03  2.32224E+04 -1.12785E+04  1.85668E+04
 -1.55662E+04  4.96314E+03 -7.70021E+03 -4.85626E+03  2.32989E+03 -6.40281E+03  1.01539E+04 -1.75965E+03
  8.46127E+03  7.74526E+03  9.97394E+02  1.50537E+04 -1.04698E+04  1.39603E+04 -1.89885E+04  3.43878E+03
 -1.31025E+04 -9.63688E+03 -1.44046E+03 -1.60505E+04  1.10633E+04 -7.72696E+03  1.11200E+04  4.70305E+03
  3.25845E+03  1.38733E+04 -1.04106E+04  1.50770E+04 -1.64974E+04  7.35057E+03 -1.75585E+04 -6.83363E+03
 -9.41619E+03 -2.01159E+04  4.94045E+03 -2.34292E+04  1.95432E+04 -1.32379E+04  2.21583E+04  3.89080E+03
  1.16843E+04  1.57326E+04 -2.87633E+03  1.88795E+04 -1.50321E+04  9.81359E+03 -1.63073E+04 -1.88203E+03
 -1.25569E+04 -1.31905E+04 -2.16815E+03 -1.51547E+04  7.31600E+03 -1.22603E+04  1.09504E+04 -4.12564E+03
  6.45680E+03  2.75214E+03 -1.94079E+03  2.33404E+03 -1.10946E+03 -4.77236E+03  3.81830E+03 -8.83389E+03
  1.47214E+04 -6.87658E+03  2.13659E+04  2.73887E+03  1.98641E+04  1.50386E+04  1.21380E+04  2.76754E+04
 -5.67896E+03  3.06667E+04 -2.55113E+04  2.34067E+04 -3.33313E+04  4.16074E+03 -2.55798E+04 -1.15853E+04
 -1.33196E+04 -2.21304E+04  1.48518E+00 -1.88596E+04  7.08807E+03 -1.20966E+04  6.89897E+03 -7.10431E+03
  5.09372E+03 -3.84805E+03  3.79881E+03 -4.10399E+03  7.04865E+03 -4.15581E+03  1.02494E+04 -2.24114E+03
  1.37975E+04  2.67279E+03  8.60763E+03  1.26674E+04 -2.70445E+03  1.55417E+04 -1.43736E+04  1.15647E+04
 -1.92499E+04 -1.51328E+03 -1.26942E+04 -1.30435E+04 -2.18289E+03 -2.13838E+04  1.08584E+04 -2.09623E+04
  2.15535E+04 -1.14015E+04  2.68731E+04  4.98518E+03  1.75402E+04  1.85450E+04  2.27411E+03  2.34108E+04
 -9.78454E+03  1.76929E+04 -1.50966E+04  6.59072E+03 -9.65877E+03 -1.53805E+03 -3.59346E+03 -3.43492E+03
 -1.71677E+03 -3.79123E+02 -3.31212E+03  3.92962E+03 -7.75876E+03  3.56101E+03 -1.36452E+04 -2.27852E+03
 -1.05999E+04 -1.35288E+04 -1.46208E+03 -1.96118E+04  1.17914E+04 -1.89389E+04  2.03363E+04 -5.84365E+03
  1.97862E+04  8.70328E+03  9.12563E+03  1.76088E+04 -4.91539E+03  2.00822E+04 -1.49409E+04  1.24737E+04
 -1.88833E+04  1.83039E+01 -1.25618E+04 -1.24533E+04 -1.35909E+03 -1.62182E+04  9.05125E+03 -1.29800E+04
  1.23995E+04 -4.05042E+03  9.74432E+03  2.94854E+03  3.51575E+03  5.61150E+03  2.07916E+03  3.12722E+03
  3.60291E+03  1.51522E+03  4.44635E+03  2.32863E+03  6.38598E+03  6.22045E+03  5.24198E+03  1.12635E+04
 -4.35816E+03  1.71559E+04 -1.39144E+04  1.52098E+04 -2.13809E+04  4.29458E+03 -2.18283E+04 -9.36429E+03
 -9.82167E+03 -2.11545E+04  3.13642E+03 -2.29211E+04  1.25809E+04 -1.41366E+04  1.75951E+04 -3.23458E+03
  1.21049E+04  6.82900E+03  3.87791E+03  1.08971E+04 -6.63165E+03  8.09901E+03 -9.38685E+03 -4.42728E+02
 -3.60850E+03 -8.79920E+03  3.79495E+03 -1.03157E+04  8.62471E+03 -4.58174E+03  7.64671E+03  2.12394E+03
  5.18179E+03  4.57211E+03  1.78837E+03  4.22673E+03 -1.65327E+03  2.69682E+03  1.98383E+03 -1.23214E+03
  3.31769E+03 -1.51017E+03  8.17557E+03  4.77362E+03  5.15856E+03  1.11400E+04 -2.86465E+03  1.36022E+04
 -9.83645E+03  1.04823E+04 -1.40426E+04  2.54455E+03 -1.20328E+04 -5.87770E+03 -5.16809E+03 -8.95623E+03
  6.65310E+02 -8.01377E+03  4.95652E+03 -4.42523E+03  4.28172E+03  3.82308E+03 -1.54263E+03  7.04332E+03
 -9.88902E+03  4.61394E+03 -9.62838E+03 -4.51093E+03 -6.29115E+03 -1.24745E+04  2.22753E+03 -1.24352E+04
  7.40162E+03 -6.73648E+03  8.73702E+03 -1.05128E+03  7.08054E+03  4.02674E+03  2.98771E+02  6.68580E+03
 -4.97973E+03  2.05854E+03 -5.14287E+03 -4.60135E+03  2.04756E+03 -8.94412E+03  1.01379E+04 -8.79317E+03
  1.44225E+04  1.01771E+03  1.23370E+04  1.04465E+04  4.56727E+03  1.46957E+04 -5.51977E+03  1.44035E+04
 -1.22847E+04  5.95262E+03 -1.28190E+04 -2.45957E+03 -6.33620E+03 -9.16468E+03  1.79850E+03 -8.58608E+03
  8.90679E+03 -5.68513E+03  7.94940E+03  4.55562E+03  2.68409E+03  8.26601E+03 -1.96297E+03  6.73159E+03
 -4.12966E+03  4.04243E+03 -3.00324E+03  1.69120E+03 -2.45615E+03  1.70347E+03 -1.91686E+03  3.05676E+03
 -3.86769E+03  4.80492E+03 -9.35395E+03  5.18294E+03 -1.47845E+04  2.15842E+02 -1.57720E+04 -9.98610E+03
 -7.85051E+03 -1.94851E+04  3.95305E+03 -2.31444E+04  1.49206E+04 -1.77681E+04  2.22295E+04 -7.30171E+03
  2.04027E+04  3.47683E+03  1.25473E+04  1.38262E+04  9.29615E+02  1.57373E+04 -6.62472E+03  1.18706E+04
 -8.61205E+03  3.40205E+03 -5.47085E+03 -1.71676E+03 -1.33434E+03 -3.24394E+03 -5.37070E+02  1.43405E+02
 -3.27695E+03  9.05876E+02 -2.69826E+03 -4.51493E+02 -1.52067E+03 -3.33141E+03  1.15047E+03 -4.93312E+03
  6.50183E+03 -5.63919E+03  1.00425E+04  8.59831E+02  1.01539E+04  9.45282E+03  3.88006E+03  1.63007E+04
 -7.47380E+03  1.75974E+04 -1.70450E+04  1.00780E+04 -1.98909E+04 -1.97274E+03 -1.47743E+04 -1.16749E+04
 -5.46200E+03 -1.60207E+04  3.61123E+03 -1.48910E+04  1.16143E+04 -8.07863E+03  1.02463E+04  4.23233E+02
  5.27772E+03  5.64341E+03 -8.96944E+02  4.51252E+03 -2.85474E+03 -1.08696E+03  4.46204E+02 -4.74203E+03
  4.80561E+03 -2.45025E+03  6.75022E+03  2.35357E+03  4.02463E+03  5.90695E+03 -1.04453E+02  9.01725E+03
 -7.48877E+03  7.84990E+03 -1.14105E+04  1.07172E+03 -1.00812E+04 -7.89344E+03 -6.04049E+02 -1.45819E+04
  8.43008E+03 -1.14032E+04  1.34797E+04 -3.33373E+03  1.31912E+04  3.95788E+03  8.42086E+03  1.06571E+04
  1.75565E+03  1.14027E+04 -4.62533E+03  8.81650E+03 -7.62549E+03  5.15399E+03 -5.61795E+03  1.11257E+03
 -2.84750E+03 -8.29202E+02 -3.18947E+03  1.70099E+03 -5.44618E+03  1.98829E+03 -8.49434E+03 -2.38303E+03
 -8.17931E+03 -6.72666E+03 -2.71676E+03 -1.06247E+04  5.51412E+03 -1.11676E+04  1.02772E+04 -6.06744E+03
  1.12321E+04  1.22788E+03  6.95443E+03  7.76894E+03  4.12347E+02  1.18488E+04 -9.32515E+03  7.27935E+03
