 $NMID ID='MM_0lb_SNR400_20hz_g50_69.RAW', FMTDAT='(8E13.5)'
 TRAMP=1., VOLUME=1. $END
  3.09561E+05  3.99581E+02  3.36983E+05  2.50632E+05  8.45187E+04  3.37489E+05 -1.32704E+05  2.50211E+05
 -1.89462E+05  8.24076E+04 -1.10859E+05 -3.31965E+04  1.55812E+03 -5.06233E+04  5.41269E+04  1.29122E+02
  3.51801E+04  5.28568E+04 -1.73327E+04  7.41222E+04 -6.01378E+04  6.26657E+04 -8.31389E+04  3.11983E+04
 -7.95479E+04 -1.10842E+04 -5.59720E+04 -5.00071E+04 -1.48581E+04 -6.81522E+04  2.66948E+04 -4.44956E+04
  3.90899E+04  4.38685E+03  1.48351E+04  4.67900E+04 -3.36673E+04  4.56751E+04 -6.49737E+04  5.64856E+00
 -5.17302E+04 -5.60067E+04 -6.38677E+03 -7.48421E+04  3.25621E+04 -5.28744E+04  4.60200E+04 -1.65244E+04
  4.12783E+04  1.05061E+04  3.08890E+04  2.35799E+04  1.54758E+04  2.85393E+04 -5.00379E+03  2.67741E+04
 -2.13524E+04  1.29456E+04 -1.92378E+04 -4.07489E+03  3.60175E+03 -7.71443E+03  2.10318E+04  1.07959E+04
  7.55491E+03  3.37761E+04 -3.03378E+04  3.40704E+04 -6.05074E+04  2.02842E+03 -5.47330E+04 -4.08048E+04
 -1.25564E+04 -6.06784E+04  3.78799E+04 -4.30711E+04  5.45819E+04 -1.49111E+03  3.13227E+04  2.99713E+04
 -6.77946E+03  3.27260E+04 -2.82132E+04  1.29704E+04 -2.71456E+04 -5.15273E+03 -1.39970E+04 -9.48760E+03
 -7.33041E+03 -1.10442E+04 -1.05936E+03 -1.62417E+04  6.89079E+03 -2.24398E+04  1.50084E+04 -1.43853E+04
  1.28028E+04  3.92148E+03 -6.18866E+03  1.34770E+04 -1.90895E+04 -2.70904E+03 -7.71861E+03 -2.98328E+04
  2.10488E+04 -3.99374E+04  4.41421E+04 -1.90562E+04  4.10977E+04  1.88864E+04  1.39930E+04  4.09014E+04
 -1.55577E+04  3.06688E+04 -2.30482E+04  7.85990E+02 -8.18764E+03 -2.61258E+04  2.06921E+04 -3.04985E+04
  3.73491E+04 -7.32635E+03  3.06217E+04  2.23359E+04  1.52773E+04  4.23680E+04 -7.02583E+03  4.39544E+04
 -2.80643E+04  2.87286E+04 -3.65978E+04  8.27530E+03 -3.80704E+04 -1.51759E+04 -2.06548E+04 -3.37734E+04
  7.49312E+03 -3.35673E+04  2.85533E+04 -1.19953E+04  2.58762E+04  1.06106E+04  2.91205E+03  1.76418E+04
 -1.31470E+04  6.82296E+03 -8.78158E+03 -7.59942E+03  6.27764E+03 -9.38948E+03  1.67023E+04  6.65926E+03
  1.18865E+04  2.16597E+04 -6.86988E+03  2.27419E+04 -2.13930E+04  8.99360E+03 -2.49366E+04 -6.55450E+03
 -1.59951E+04 -1.65251E+04 -4.97568E+03 -1.56057E+04  3.85215E+03 -1.41960E+04  1.18909E+04 -1.35393E+04
  2.01474E+04 -1.13810E+04  2.75264E+04  8.52315E+02  2.09120E+04  1.55591E+04  4.11176E+03  3.17915E+04
 -1.60311E+04  2.74520E+04 -2.54991E+04  8.97073E+03 -1.93062E+04 -1.07623E+04 -3.65288E+03 -1.41618E+04
  2.70040E+03 -4.19220E+03 -2.80483E+03  5.62836E+03 -1.20875E+04  5.64857E+03 -1.27515E+04 -4.76475E+03
 -8.03323E+03 -1.40641E+04  4.04908E+03 -1.83567E+04  1.17527E+04 -1.34421E+04  1.34017E+04 -1.52990E+03
  8.16241E+03  1.01491E+04 -9.35360E+02  1.52071E+04 -9.84432E+03  8.00142E+03 -1.46729E+04 -3.41471E+03
 -1.13426E+04 -1.32016E+04 -1.61691E+03 -1.81773E+04  8.11800E+03 -1.48911E+04  1.56103E+04 -6.39751E+03
  1.37945E+04  9.12673E+01  9.52116E+03  3.07979E+03  4.99984E+03  4.54385E+02  7.52870E+03 -1.79173E+03
  1.34186E+04  2.56019E+03  1.36981E+04  1.20176E+04  7.89930E+03  2.31147E+04 -3.08508E+03  2.49827E+04
 -1.47497E+04  1.90331E+04 -2.24690E+04  8.85896E+03 -2.29428E+04 -1.46405E+03 -2.00409E+04 -1.33900E+04
 -9.52111E+03 -1.86504E+04  6.14384E+03 -1.74182E+04  1.56276E+04 -1.05427E+04  1.49879E+04  3.32667E+03
  6.47051E+03  1.08538E+04 -6.30344E+03  1.01703E+04 -1.27534E+04  2.28709E+03 -9.99445E+03 -7.56079E+03
  2.90441E+00 -1.16296E+04  5.25563E+03 -9.53228E+03  7.24139E+03 -1.41933E+03  1.40462E+03  4.45836E+03
 -5.17630E+03  1.24423E+03 -2.81361E+03 -4.38555E+03  4.03129E+02 -9.71672E+03  7.28428E+03 -8.99643E+03
  1.07565E+04 -3.66479E+03  1.08619E+04  2.40915E+03  8.94092E+03  9.17575E+03  4.25214E+03  1.21242E+04
 -8.03878E+02  1.40636E+04 -8.39560E+03  9.37255E+03 -1.08920E+04  2.61702E+03 -7.87072E+03 -1.22401E+03
 -4.22417E+03 -2.76670E+03 -9.47366E+02  1.89437E+03 -1.84710E+03  2.17468E+03 -3.65394E+03  3.28795E+03
 -6.86880E+03 -6.69016E+02 -8.30704E+03 -6.37137E+03 -3.14048E+03 -1.06257E+04  3.83095E+03 -7.95447E+03
  6.47924E+03 -3.58097E+03  5.04381E+03  1.80312E+03  5.64379E+02  2.67614E+03 -3.03965E+03 -2.69112E+02
 -3.03918E+03 -4.72774E+03 -5.86354E+02 -6.09336E+03  3.34497E+03 -7.27196E+03  8.72016E+03 -3.42602E+03
  1.08506E+04  2.12004E+00  7.54134E+03  5.23150E+03  1.49940E+03  7.30549E+03 -5.15311E+03  7.57781E+03
 -6.38091E+03  2.32485E+03 -3.05374E+03 -1.15800E+03  1.27550E+03 -1.56584E+03  4.28287E+03 -1.29698E+03
  3.43529E+03  3.18608E+03  7.49037E+02  6.15498E+03 -3.48941E+03  5.67528E+03 -7.31235E+03  2.10972E+03
 -4.20770E+03 -2.84854E+03  1.31805E+02 -6.52819E+03  3.66738E+03 -3.05646E+03  3.07906E+03  1.51547E+02
  1.66271E+02  2.59633E+03 -4.02927E+03  4.13749E+03 -3.87597E+03  1.94340E+03 -3.47041E+03 -8.05868E+02
 -2.56485E+03 -5.05501E+03  9.86551E+02 -6.09764E+03  5.98406E+03 -4.52933E+03  5.66978E+03  2.63787E+02
  3.84932E+03  4.60495E+03  1.01511E+02  6.07364E+03 -4.40554E+03  4.01294E+03 -4.73232E+03 -2.39460E+02
 -5.70495E+03 -4.64382E+03 -1.30305E+03 -4.23967E+03  1.84073E+03 -3.72143E+03  2.24608E+03 -2.67714E+03
  2.68338E+03  2.99352E+02  2.31196E+02  1.25007E+03  6.02469E+02  7.39156E+01 -1.16913E+01 -1.84185E+03
  3.14646E+03 -7.47413E+02  4.33742E+03 -1.16521E+02  4.80565E+03  2.46929E+03  4.69315E+03  5.78483E+03
 -1.03057E+03  7.16198E+03 -6.42863E+03  5.87952E+03 -8.10853E+03  9.50443E+02 -6.81257E+03 -2.74991E+03
 -3.71690E+03 -5.47798E+03  1.89392E+02 -4.56416E+03  2.00633E+03 -1.83099E+03  9.14118E+02 -1.36200E+03
  6.09985E+02 -1.84648E+03  2.34582E+03 -2.03469E+03  3.73352E+03 -2.10333E+03  3.27701E+03  7.26016E+02
  3.94627E+03  9.56803E+02  7.88398E+02  3.07373E+03 -1.47473E+03  1.89466E+03 -3.89522E+03  1.72849E+03
 -4.09561E+03 -9.62169E+02 -1.10070E+03 -2.84459E+03  5.69228E+02 -4.41493E+03  2.80992E+03 -4.72253E+03
  3.74420E+03 -2.50345E+03  5.69703E+03  5.97289E+02  4.36446E+03  2.85206E+03  1.43810E+03  5.47236E+03
 -1.86278E+03  5.18208E+03 -2.88902E+03  1.19566E+03 -8.96927E+02 -8.54168E+02 -5.77019E+02 -1.68882E+02
 -1.86863E+02  3.60256E+02 -4.83781E+02  1.23243E+03 -2.64269E+03  1.57414E+03 -3.43354E+03 -3.19851E+02
 -8.91080E+02 -3.62919E+03  1.04313E+03 -3.78385E+03  2.68503E+03 -3.55499E+03  2.88242E+03 -1.02254E+03
  3.59417E+03  2.12059E+03  1.60613E+03  2.22594E+03 -7.78063E+02  3.58964E+03 -1.64370E+03  2.24514E+03
 -3.01510E+03  5.42109E+02 -2.43217E+03 -1.60736E+03 -2.96143E+02 -2.95699E+03  1.06041E+03 -2.47544E+03
  2.72121E+03 -6.86213E+02  1.70074E+03  8.74982E+01  3.72976E+02  1.62988E+03  9.75274E+02  1.03824E+03
  1.54203E+03  6.28243E+02  1.11498E+03  1.33928E+03  6.48636E+02  2.11515E+03  9.71045E+02  1.58925E+03
 -1.58604E+03  2.16612E+03 -2.01261E+03  3.64601E+03 -2.46619E+03  7.51682E+02 -3.53109E+03 -1.25598E+02
 -1.06026E+03 -2.93312E+03  7.40787E+02 -3.52120E+03  1.75035E+03 -2.13653E+03  2.22055E+03 -1.07184E+03
  1.98491E+03  1.51289E+03  3.84272E+02  1.72456E+03 -2.89807E+02  1.26817E+03 -4.39901E+02 -2.96600E+02
 -2.28645E+01 -8.20187E+02  1.31624E+03 -1.09527E+03  9.55964E+02 -5.40491E+02  1.01615E+03  4.71304E+02
  5.67229E+02  3.08235E+02  7.77373E+02 -6.34128E+02  6.47270E+00  6.49824E+02  1.67119E+03 -1.30013E+02
 -3.33071E+02 -3.18354E+02  2.10804E+03  4.85135E+02 -4.05329E+01  1.89823E+03 -3.55495E+02  2.15466E+03
 -9.89087E+02  9.13107E+02 -1.14578E+03  1.94077E+02 -1.85154E+03 -7.23202E+02 -2.65271E+01 -1.16819E+03
  5.00048E+02 -9.04805E+02  3.23346E+02 -6.94420E+02  3.30351E+02  1.00757E+03 -2.45911E+02  1.00055E+03
 -1.54137E+03  6.37703E+02 -7.92720E+02 -6.07636E+02 -6.71813E+01 -1.78889E+03 -1.89571E+02 -9.83714E+02
 -1.46906E+02  7.45825E+01  8.44635E+00  1.41232E+02  7.73064E+02  3.61410E+02  6.76187E+02  1.10253E+03
 -7.45547E+02 -1.38390E+02 -2.66471E+02  4.05348E+01  4.14274E+02 -7.47587E+02  1.68635E+03 -3.62204E+02
  7.85418E+02  6.67316E+01  2.44638E+03  2.45057E+02  1.49470E+03  9.93556E+02 -6.60787E+01  1.63119E+03
 -8.22320E+02  7.73353E+00 -1.14462E+03  1.78358E+02 -6.82167E+02 -1.10717E+03  4.57498E+02  1.36097E+02
  8.92465E+02 -3.86201E+02  7.38560E+02  4.14662E+02  8.54982E+01  1.39773E+03  1.91342E+02  8.18737E+02
 -3.46282E+02  7.28540E+02 -3.34286E+02  5.43091E+01 -2.33680E+01  6.76493E+02 -3.56432E+02  2.36763E+02
 -7.15439E+02  6.48473E+02 -1.02385E+03  6.38121E+02 -1.58896E+03 -2.53321E+02 -2.31693E+03 -9.91359E+01
 -5.79558E+02 -1.70396E+03  9.33799E+02 -1.75300E+03  3.09529E+02 -2.03942E+03  1.78798E+03 -7.78685E+02
  1.94163E+03 -1.39500E+02  8.45272E+02  1.20940E+03 -5.66710E+02  5.60805E+02 -5.12864E+02  9.46710E+02
 -7.30295E+02  8.36973E+02 -2.17061E+02 -3.66851E+02 -2.38872E+02 -1.42521E+02 -5.37034E+02  3.81442E+02
 -1.13416E+03 -2.77205E+02 -1.12777E+03  1.34109E+02  1.01181E+02 -5.40673E+02 -1.48676E+02 -7.15970E+02
  1.25490E+03 -4.35448E+02 -3.01061E+02  4.44975E+02  7.51035E+02  4.29422E+02 -2.24356E+02  1.42421E+03
 -1.81235E+02  1.90985E+03 -8.67243E+02  1.12366E+03 -9.75284E+02 -9.98900E+01 -7.10181E+02 -1.21234E+03
 -7.25519E+02 -9.45569E+01  1.46232E+02 -9.21793E+01  3.45900E+02 -2.73163E+02  1.08047E+02 -2.50026E+02
  6.13139E+02  9.02393E+01  1.43760E+02 -7.52138E+01 -3.93923E+02 -2.07098E+02 -2.92387E+02 -1.50765E+02
  6.44694E+02  1.71830E+02  3.02771E+02  5.69264E+02 -3.15333E+02  4.46468E+02  3.99904E+02 -9.72097E+01
 -7.25315E+01  9.21259E+01  4.71082E+02  7.77399E+01 -3.90218E+02 -2.16477E+02 -1.37047E+02 -1.38003E+03
  3.18605E+02 -3.95387E+02  4.18521E+01  6.34703E+01  6.13022E+02 -4.96378E+02  3.50315E+02  7.85162E+02
  3.62679E+02  1.00385E+03 -1.22308E+02 -9.84899E+00 -5.14661E+02  4.38214E+02 -6.57140E+02 -9.46123E+01
 -5.93457E+01  1.68364E+02 -2.22031E+02  8.70882E+01 -4.34860E+02  2.66938E+02 -3.34268E+02 -8.60328E+01
 -1.89311E+02  4.80249E+02  1.07568E+02 -6.54761E+02  9.51488E+02 -1.76164E+03  4.99950E+02 -3.18931E+02
  3.53963E+02 -4.28029E+01 -4.18315E+02 -6.16427E+01  1.52542E+02  2.39928E+02 -4.68637E+02  7.39271E+02
