 $NMID ID='MM_0lb_SNR400_19hz_g50_20.RAW', FMTDAT='(8E13.5)'
 TRAMP=1., VOLUME=1. $END
  3.09900E+05  2.22944E+02  3.37279E+05  2.50714E+05  8.43660E+04  3.37902E+05 -1.32851E+05  2.50483E+05
 -1.89357E+05  8.28315E+04 -1.11159E+05 -3.28481E+04  1.93023E+03 -5.07462E+04  5.38409E+04  3.17623E+02
  3.46297E+04  5.26098E+04 -1.64284E+04  7.45400E+04 -6.04571E+04  6.28055E+04 -8.32927E+04  3.16569E+04
 -7.97577E+04 -1.11261E+04 -5.61298E+04 -5.05167E+04 -1.50768E+04 -6.81265E+04  2.69807E+04 -4.46137E+04
  3.92458E+04  4.36066E+03  1.56482E+04  4.71234E+04 -3.38184E+04  4.64056E+04 -6.55246E+04 -9.15072E+02
 -5.19226E+04 -5.59619E+04 -6.74517E+03 -7.54565E+04  3.26429E+04 -5.35035E+04  4.62458E+04 -1.63952E+04
  4.16386E+04  1.11982E+04  3.15384E+04  2.43916E+04  1.54844E+04  2.87917E+04 -5.15584E+03  2.70333E+04
 -2.18829E+04  1.27343E+04 -1.92936E+04 -4.44892E+03  4.43398E+03 -7.78344E+03  2.10718E+04  1.11119E+04
  7.49754E+03  3.34038E+04 -3.02535E+04  3.43927E+04 -6.10586E+04  2.29539E+03 -5.56927E+04 -4.10904E+04
 -1.26900E+04 -6.13117E+04  3.76703E+04 -4.36861E+04  5.53670E+04 -1.70007E+03  3.19636E+04  3.06931E+04
 -6.95677E+03  3.30440E+04 -2.88356E+04  1.30171E+04 -2.82433E+04 -5.51211E+03 -1.48588E+04 -1.03090E+04
 -7.65979E+03 -1.12818E+04 -1.49563E+03 -1.68348E+04  7.27855E+03 -2.24409E+04  1.47748E+04 -1.37925E+04
  1.20750E+04  4.07948E+03 -5.89938E+03  1.29576E+04 -1.91454E+04 -2.90680E+03 -7.96158E+03 -3.04938E+04
  2.05428E+04 -4.07894E+04  4.48711E+04 -1.86366E+04  4.21183E+04  1.85350E+04  1.46246E+04  4.14242E+04
 -1.50732E+04  3.13251E+04 -2.37601E+04  1.04241E+03 -8.22364E+03 -2.65907E+04  2.08464E+04 -3.09472E+04
  3.82939E+04 -8.06603E+03  3.15929E+04  2.25892E+04  1.56719E+04  4.27127E+04 -7.98438E+03  4.49922E+04
 -2.79758E+04  3.01513E+04 -3.72413E+04  7.82401E+03 -3.87660E+04 -1.48332E+04 -2.12745E+04 -3.46823E+04
  6.87256E+03 -3.39637E+04  2.89312E+04 -1.28240E+04  2.69392E+04  1.10704E+04  2.97115E+03  1.81773E+04
 -1.25722E+04  7.47979E+03 -9.21721E+03 -7.61865E+03  6.09981E+03 -1.01720E+04  1.70483E+04  6.88376E+03
  1.29479E+04  2.17141E+04 -6.84576E+03  2.33501E+04 -2.14501E+04  9.35944E+03 -2.51512E+04 -6.10530E+03
 -1.73160E+04 -1.60473E+04 -5.90947E+03 -1.72619E+04  4.20348E+03 -1.45327E+04  1.22436E+04 -1.44764E+04
  2.13118E+04 -1.15977E+04  2.79957E+04  1.27296E+03  2.09649E+04  1.60792E+04  4.23416E+03  3.21549E+04
 -1.56060E+04  2.73965E+04 -2.53752E+04  9.16035E+03 -1.94724E+04 -1.02500E+04 -4.43041E+03 -1.41289E+04
  2.96237E+03 -4.38180E+03 -2.43607E+03  5.42024E+03 -1.30733E+04  5.28966E+03 -1.28840E+04 -5.13897E+03
 -8.33159E+03 -1.58313E+04  4.33484E+03 -1.92846E+04  1.26061E+04 -1.40659E+04  1.46012E+04 -1.62024E+03
  8.57550E+03  1.11419E+04 -8.98891E+02  1.58393E+04 -1.04006E+04  8.90348E+03 -1.53838E+04 -3.60158E+03
 -1.14434E+04 -1.38889E+04 -1.62824E+03 -1.89054E+04  8.75864E+03 -1.55903E+04  1.60592E+04 -7.22902E+03
  1.47420E+04  1.25283E+03  9.95646E+03  3.59032E+03  5.04403E+03  6.95623E+02  7.65335E+03 -1.13362E+03
  1.37056E+04  2.73864E+03  1.49666E+04  1.27438E+04  9.33263E+03  2.44967E+04 -3.34452E+03  2.61336E+04
 -1.53348E+04  2.01654E+04 -2.38736E+04  9.72927E+03 -2.48821E+04 -2.08906E+03 -2.11660E+04 -1.47837E+04
 -1.01726E+04 -1.98237E+04  6.07003E+03 -1.89237E+04  1.59226E+04 -1.12806E+04  1.53631E+04  3.06177E+03
  6.89071E+03  1.11220E+04 -6.61010E+03  1.04174E+04 -1.35696E+04  2.68687E+03 -1.06072E+04 -8.14493E+03
 -2.53892E+02 -1.26052E+04  6.03537E+03 -9.55842E+03  7.79810E+03 -1.96894E+03  1.54713E+03  4.90150E+03
 -5.64240E+03  7.30187E+02 -3.56587E+03 -4.43312E+03  5.58979E+02 -9.76880E+03  7.97757E+03 -9.87859E+03
  1.23897E+04 -4.34849E+03  1.14251E+04  2.83158E+03  1.04045E+04  9.13311E+03  5.02044E+03  1.35495E+04
 -1.69114E+03  1.59126E+04 -9.27707E+03  1.03460E+04 -1.13049E+04  2.69920E+03 -8.48861E+03 -1.66737E+03
 -4.34820E+03 -3.31750E+03 -5.91088E+02  1.64665E+03 -1.90830E+03  2.26805E+03 -3.21563E+03  3.98286E+03
 -8.15850E+03 -6.50068E+02 -8.75443E+03 -7.19768E+03 -3.51041E+03 -1.14762E+04  3.63361E+03 -8.02797E+03
  6.69008E+03 -3.79464E+03  5.22268E+03  1.72087E+03  9.66745E+02  3.16573E+03 -3.55363E+03 -4.19980E+02
 -3.05757E+03 -4.88551E+03 -1.05779E+03 -6.50029E+03  4.23800E+03 -7.82613E+03  9.40114E+03 -3.89573E+03
  1.11856E+04  7.39458E+02  9.23162E+03  6.27202E+03  1.58957E+03  8.29808E+03 -5.18840E+03  7.73945E+03
 -7.49389E+03  2.83167E+03 -2.78850E+03 -1.61771E+03  1.47728E+03 -2.14891E+03  4.66123E+03 -9.24699E+02
  3.87540E+03  3.78497E+03  9.29374E+02  6.31290E+03 -4.76291E+03  5.92806E+03 -7.39295E+03  1.69469E+03
 -4.80905E+03 -3.29906E+03  2.01636E+02 -6.53041E+03  3.76714E+03 -3.16497E+03  3.40212E+03  1.07968E+03
  1.33081E+02  3.70071E+03 -4.28576E+03  4.51362E+03 -4.89939E+03  1.96971E+03 -4.18234E+03 -9.30190E+02
 -3.25401E+03 -6.02903E+03  9.99895E+02 -6.36716E+03  5.69078E+03 -4.56179E+03  6.07031E+03  5.44413E+02
  4.71478E+03  5.60248E+03 -2.29225E+01  6.62907E+03 -4.91710E+03  4.24937E+03 -5.32105E+03 -4.65738E+02
 -6.18955E+03 -5.01162E+03 -1.37195E+03 -4.66746E+03  2.43516E+03 -4.46868E+03  3.06371E+03 -2.66606E+03
  2.74694E+03 -2.50938E+02  6.65490E+02  1.06018E+03  5.30803E+02  7.34226E+01 -2.33897E+02 -1.73117E+03
  3.97181E+03 -2.72983E+02  4.86236E+03  7.06481E+02  5.15070E+03  2.93282E+03  5.59242E+03  6.46864E+03
 -1.06067E+03  8.19751E+03 -7.27020E+03  6.41631E+03 -9.94321E+03  1.71246E+03 -7.61224E+03 -2.81440E+03
 -3.60254E+03 -6.42964E+03 -2.76827E+02 -4.81090E+03  2.66357E+03 -2.25560E+03  1.39487E+03 -2.14938E+03
  1.21187E+03 -1.05803E+03  1.98031E+03 -2.37784E+03  3.76879E+03 -1.39551E+03  3.47105E+03  1.14656E+03
  3.92989E+03  1.20760E+03  9.21060E+02  3.34055E+03 -1.61934E+03  2.62245E+03 -4.85691E+03  2.77098E+03
 -4.79753E+03 -1.17587E+03 -1.48657E+03 -3.29886E+03  3.47870E+02 -4.81422E+03  3.24482E+03 -5.09146E+03
  4.67100E+03 -2.87276E+03  6.28036E+03  6.79926E+02  4.25600E+03  4.13293E+03  1.04106E+03  5.21621E+03
 -2.05672E+03  6.12684E+03 -3.15442E+03  1.51428E+03 -1.29692E+03 -9.00643E+02 -6.89010E+02 -7.83972E+02
 -7.82861E+02  5.83751E+02 -6.45654E+02  1.92455E+03 -2.53530E+03  1.30951E+03 -3.72225E+03 -3.71640E+02
 -1.44729E+03 -3.37993E+03  1.12331E+03 -4.26448E+03  2.27567E+03 -4.31162E+03  3.73874E+03 -6.78490E+02
  3.79487E+03  2.09029E+03  1.41013E+03  2.99907E+03 -9.41333E+02  4.19075E+03 -1.88943E+03  2.77124E+03
 -3.97210E+03  9.28842E+02 -3.28091E+03 -2.73732E+03 -2.49176E+02 -2.82682E+03  1.48737E+03 -2.00098E+03
  2.54983E+03 -1.37133E+03  1.24059E+03  5.38526E+02  1.06753E+03  1.83305E+03  9.94691E+02  3.72042E+02
  2.14292E+03  4.85243E+02  1.22890E+03  1.47372E+03  1.05601E+03  2.47605E+03  1.10625E+03  2.08242E+03
 -1.33727E+03  2.95649E+03 -2.29268E+03  3.78528E+03 -2.72651E+03  1.17089E+03 -3.98616E+03  2.40606E+02
 -1.52022E+03 -3.24647E+03  2.57438E+02 -3.79672E+03  1.65380E+03 -2.07635E+03  2.43345E+03 -7.17869E+02
  2.20760E+03  1.28307E+03  6.74628E+02  1.59949E+03 -3.75784E+02  1.10064E+03 -6.88179E+02  3.05476E+02
 -5.00353E+02 -1.10383E+03  1.15288E+03 -1.23762E+03  1.18141E+03 -1.34821E+03  1.23667E+03  6.15889E+02
  7.41827E+02 -8.31258E+01  5.70154E+02 -1.31001E+01 -5.49997E+02  8.01351E+02  1.37334E+03 -1.39085E+02
 -1.67465E+02 -2.79792E+02  1.71400E+03  6.80643E+02  2.85990E+02  2.19707E+03 -5.28309E+02  2.95060E+03
 -1.27613E+03  8.80403E+02 -2.39210E+03  6.18127E+02 -1.78679E+03 -3.71552E+02 -2.48581E+02 -7.74515E+02
  2.40478E+02 -8.77189E+02  8.78557E+02 -7.79418E+02  4.88070E+02  6.68427E+02 -6.97034E+02  9.13455E+02
 -1.64679E+03  8.86527E+02 -8.65051E+02 -1.32740E+03 -7.47437E+02 -2.20129E+03  2.62622E+00 -1.52600E+03
  6.21769E+02  6.85325E+01 -1.09360E+02  3.66914E+02  1.43963E+03 -5.31654E+02  1.68397E+02  9.11900E+02
 -3.27498E+02 -3.58917E+02 -3.44189E+02 -2.25034E+01  8.15094E+02 -1.02883E+03  1.36008E+03 -1.02131E+03
  9.57310E+02  5.16053E+01  2.71640E+03  4.14580E+02  1.05656E+03  1.62108E+03  1.57544E+02  1.43888E+03
 -1.75883E+03  4.69796E+02 -1.31893E+03 -2.98924E+02 -2.21526E+01 -1.22536E+03 -1.16074E+02 -7.87324E+02
  1.12731E+03 -5.58305E+02  3.00917E+02  5.42996E+02  7.58251E+01  1.37554E+03  3.90131E+02  1.15210E+03
 -2.60114E+02  1.36706E+03  1.13999E+02  6.64469E+02 -1.82452E+01  3.06256E+02 -6.52970E+02  4.51257E+02
 -8.11080E+02  1.17743E+03 -1.43865E+03  5.93989E+02 -1.23147E+03  2.39891E+02 -2.76565E+03 -8.33132E+02
 -7.66505E+02 -1.87101E+03  1.98128E+02 -2.38720E+03  1.16979E+03 -1.62600E+03  2.11022E+03 -8.74271E+02
  1.57402E+03 -4.43249E+02  1.55005E+03  9.36277E+02 -7.15273E+02  1.41203E+03 -5.38291E+02  9.43940E+02
 -3.10502E+02  4.63772E+02 -4.16083E+02 -1.57341E+02 -6.24064E+02  5.74196E+02 -3.44997E+02  9.82705E+01
 -1.21586E+03 -4.87956E+02 -1.00530E+03  1.57071E+02 -4.97813E+02 -1.50932E+02 -5.00766E+02  7.50436E+01
  1.22859E+03 -7.70723E+02  1.60993E+02  3.97980E+01  9.00512E+02  6.11435E+02 -2.12564E+02  1.51408E+03
 -8.32299E+02  2.25351E+03 -1.55476E+03  1.18495E+03 -9.73784E+02  1.15122E+02 -9.54166E+02 -1.26215E+03
 -6.78215E+02 -1.77330E+03  5.46761E+02 -1.40427E+03  5.79729E+02 -2.78609E+02  5.03036E+02 -2.11046E+02
  1.13333E+03  4.90804E+02  2.12573E+02  4.46351E+02 -4.53946E+02  5.92093E+02 -1.50618E+02  1.21199E+01
  8.06645E+02 -3.07332E+02 -8.84374E+01  3.16090E+02 -2.03563E+01  1.26765E+02  5.32623E+02  1.88125E+02
 -7.99487E+02  5.45788E+02 -7.26036E+02  2.34253E+02 -9.19341E+02 -1.69042E+02 -1.85533E+02 -6.56665E+02
  6.44056E+02 -4.37297E+02  3.20545E+02  2.23985E+02  4.66179E+02 -9.00495E+02  3.23890E+02  6.93385E+02
  4.57968E+02  5.64662E+02 -1.22165E+01  6.07100E+02 -9.72791E+02  8.39002E+02 -6.18920E+02 -1.35914E+01
 -8.05872E+02  7.44717E+01 -7.45990E+02  5.16656E+00 -8.27503E+02 -1.20719E+02 -9.56627E+02 -4.71369E+02
 -1.59103E+03  4.07897E+02  2.71677E+02 -1.24393E+03  2.89051E+02 -7.62293E+02  5.23084E+02 -3.67738E+02
  9.67143E+02  9.96997E+01 -2.46558E+02  5.62405E+02 -7.53786E+02  7.77178E+02 -4.67719E+02  5.41859E+02
