 $NMID ID='MM_0lb_SNR400_12hz_g60_84.RAW', FMTDAT='(8E13.5)'
 TRAMP=1., VOLUME=1. $END
  3.10435E+05  7.67165E+02  3.37871E+05  2.50875E+05  8.48951E+04  3.37961E+05 -1.32665E+05  2.51569E+05
 -1.91022E+05  8.39145E+04 -1.12100E+05 -3.25195E+04  4.98076E+02 -5.12336E+04  5.35368E+04 -8.35648E+02
  3.57187E+04  5.37282E+04 -1.64015E+04  7.56471E+04 -6.15279E+04  6.38190E+04 -8.52125E+04  3.17316E+04
 -8.20813E+04 -1.15752E+04 -5.84288E+04 -5.24910E+04 -1.49578E+04 -7.05552E+04  2.80444E+04 -4.67668E+04
  4.11598E+04  3.21160E+03  1.72488E+04  4.86929E+04 -3.52262E+04  4.79771E+04 -6.79615E+04  3.41707E+02
 -5.38980E+04 -5.82618E+04 -7.21087E+03 -7.84131E+04  3.42573E+04 -5.62553E+04  4.99129E+04 -1.84762E+04
  4.50323E+04  1.14627E+04  3.26170E+04  2.60757E+04  1.60945E+04  3.04099E+04 -5.89813E+03  2.69411E+04
 -2.22393E+04  1.26213E+04 -1.83867E+04 -4.80328E+03  6.26997E+03 -7.46607E+03  2.34234E+04  1.37258E+04
  7.94382E+03  3.62512E+04 -3.35959E+04  3.66207E+04 -6.57921E+04  1.99020E+03 -5.93034E+04 -4.43686E+04
 -1.18903E+04 -6.55526E+04  4.08432E+04 -4.65656E+04  6.00345E+04 -2.09163E+03  3.57424E+04  3.41111E+04
 -5.82226E+03  3.84885E+04 -3.11004E+04  1.86898E+04 -3.23649E+04 -4.81412E+03 -1.84444E+04 -1.21271E+04
 -9.54395E+03 -1.43665E+04  2.48874E+01 -1.94548E+04  8.70826E+03 -2.37195E+04  1.55626E+04 -1.19567E+04
  1.08682E+04  5.72672E+03 -1.02539E+04  1.27083E+04 -2.32502E+04 -5.80860E+03 -8.19959E+03 -3.53122E+04
  2.51114E+04 -4.55440E+04  5.09050E+04 -2.10223E+04  4.84809E+04  2.08777E+04  1.67286E+04  4.57592E+04
 -1.72636E+04  3.53853E+04 -2.64738E+04  2.22458E+03 -1.12670E+04 -2.85609E+04  2.11637E+04 -3.59765E+04
  4.28967E+04 -1.03508E+04  3.92117E+04  2.47792E+04  2.02888E+04  4.99055E+04 -7.92498E+03  5.38650E+04
 -3.44533E+04  3.72568E+04 -4.56888E+04  1.07326E+04 -4.60645E+04 -1.78140E+04 -2.55956E+04 -4.12998E+04
  8.22591E+03 -4.11653E+04  3.35253E+04 -1.58374E+04  3.05465E+04  1.04684E+04  4.75077E+03  2.02591E+04
 -1.37636E+04  1.00145E+04 -1.16910E+04 -7.48502E+03  5.98564E+03 -1.12712E+04  1.79497E+04  5.73940E+03
  1.42003E+04  2.27766E+04 -5.70003E+03  2.63453E+04 -2.29361E+04  1.34260E+04 -2.96855E+04 -3.79622E+03
 -2.35947E+04 -1.80869E+04 -1.08445E+04 -2.36485E+04  4.31963E+03 -2.35265E+04  1.87222E+04 -2.15798E+04
  3.03410E+04 -1.46156E+04  3.66130E+04  3.89147E+03  2.58335E+04  2.34865E+04  4.33274E+03  3.99037E+04
 -1.93657E+04  3.28135E+04 -2.95991E+04  1.04000E+04 -2.18638E+04 -1.01320E+04 -5.21581E+03 -1.27069E+04
  3.56085E+02 -2.64078E+03 -6.71931E+03  7.88762E+03 -1.89997E+04  4.46080E+03 -1.87600E+04 -8.56840E+03
 -1.11456E+04 -2.23564E+04  5.78506E+03 -2.56986E+04  1.72394E+04 -1.88347E+04  2.09772E+04 -1.72271E+03
  1.33747E+04  1.45911E+04 -1.44419E+03  2.16934E+04 -1.54722E+04  1.25067E+04 -2.23075E+04 -5.38989E+03
 -1.57053E+04 -1.94673E+04 -2.25872E+03 -2.64665E+04  1.16525E+04 -2.13160E+04  2.12008E+04 -1.09572E+04
  2.06203E+04 -7.33935E+02  1.40301E+04  4.28933E+03  7.85581E+03  8.94296E+02  1.12568E+04 -1.76571E+03
  1.98441E+04  2.63495E+03  2.30816E+04  1.65518E+04  1.59054E+04  3.44456E+04 -2.83660E+03  4.04189E+04
 -2.32531E+04  3.35429E+04 -3.78646E+04  1.65902E+04 -3.99114E+04 -2.77710E+03 -3.30019E+04 -2.37903E+04
 -1.31880E+04 -3.35567E+04  1.15814E+04 -2.96425E+04  2.55377E+04 -1.31928E+04  2.15391E+04  6.39150E+03
  7.86007E+03  1.68811E+04 -1.07683E+04  1.51825E+04 -1.84829E+04  2.35961E+03 -1.44952E+04 -1.18583E+04
 -4.90369E+02 -1.82620E+04  9.61861E+03 -1.36573E+04  1.20421E+04 -1.27697E+03  2.68793E+03  8.00330E+03
 -7.80997E+03  2.97750E+03 -7.95926E+03 -6.72767E+03 -1.33937E+03 -1.61157E+04  1.06900E+04 -1.79468E+04
  1.95740E+04 -1.00544E+04  2.29213E+04  3.42542E+03  2.02708E+04  1.56903E+04  9.56034E+03  2.57922E+04
 -4.28769E+03  2.69463E+04 -1.77092E+04  1.76616E+04 -1.99121E+04  3.71142E+03 -1.41607E+04 -4.94757E+03
 -6.44865E+03 -6.45109E+03 -1.00384E+03  1.49539E+03 -2.67290E+03  3.25966E+03 -6.76789E+03  4.83180E+03
 -1.28108E+04 -4.99858E+02 -1.31536E+04 -1.12342E+04 -5.42381E+03 -1.70724E+04  5.16364E+03 -1.36119E+04
  1.14319E+04 -5.78693E+03  8.29459E+03  3.64179E+03 -3.33241E+02  5.61324E+03 -7.11300E+03 -6.48198E+02
 -6.00183E+03 -8.61244E+03 -1.27785E+03 -1.32632E+04  8.41616E+03 -1.39039E+04  1.70227E+04 -7.62925E+03
  2.01643E+04  1.78288E+03  1.61041E+04  1.31226E+04  2.29401E+03  1.61849E+04 -8.02668E+03  1.30519E+04
 -1.14358E+04  3.86276E+03 -6.21572E+03 -3.17157E+03  2.01390E+03 -3.73032E+03  7.84048E+03 -1.16461E+03
  7.03017E+03  6.32033E+03  1.04442E+03  1.12977E+04 -7.90551E+03  9.85883E+03 -1.41179E+04  2.54797E+03
 -9.14039E+03 -6.74571E+03  1.00411E+03 -1.09533E+04  7.68712E+03 -5.92644E+03  7.53532E+03  2.79459E+03
  1.79137E+03  8.36307E+03 -7.21408E+03  9.73843E+03 -1.10559E+04  4.39728E+03 -1.16477E+04 -3.77913E+03
 -6.34360E+03 -1.39106E+04  2.88283E+03 -1.52499E+04  1.29317E+04 -8.83128E+03  1.45264E+04  2.70161E+03
  8.59374E+03  1.09113E+04 -8.73219E+02  1.36667E+04 -1.02454E+04  7.39494E+03 -1.06808E+04 -7.12947E+02
 -9.77192E+03 -8.53169E+03 -1.73020E+03 -1.03313E+04  4.76663E+03 -8.41446E+03  5.51761E+03 -3.45806E+03
  4.27435E+03  1.48066E+03 -1.32978E+03  1.40827E+03 -5.22323E+02 -3.07749E+03  1.32280E+03 -5.64074E+03
  9.02913E+03 -3.60886E+03  1.34068E+04  1.97286E+03  1.20960E+04  8.28111E+03  9.16111E+03  1.69281E+04
 -3.87565E+03  1.98782E+04 -1.62317E+04  1.38898E+04 -2.03399E+04  3.11689E+03 -1.61688E+04 -7.49484E+03
 -8.46571E+03 -1.37579E+04 -2.30176E+02 -1.16925E+04  4.06899E+03 -5.60104E+03  4.68496E+03 -4.48607E+03
  3.68817E+03 -2.85177E+03  3.64235E+03 -2.95063E+03  5.04308E+03 -2.77687E+03  6.45129E+03 -5.75696E+02
  8.61166E+03  1.62417E+03  4.17556E+03  7.39255E+03 -1.90802E+03  8.96366E+03 -9.42139E+03  6.67998E+03
 -1.16190E+04 -1.48739E+03 -6.37940E+03 -8.03313E+03 -5.63214E+02 -1.25993E+04  6.59062E+03 -1.20827E+04
  1.22891E+04 -7.90678E+03  1.48513E+04  1.76548E+03  1.09408E+04  1.05334E+04  2.21819E+03  1.49513E+04
 -5.11614E+03  1.19511E+04 -8.10522E+03  4.69299E+03 -5.44047E+03 -1.66907E+03 -2.09675E+03 -1.66055E+03
 -1.35489E+03  3.10984E+02 -2.25737E+03  2.85171E+03 -5.21115E+03  2.38436E+03 -8.89702E+03 -1.27891E+03
 -5.71698E+03 -8.04389E+03  6.03777E+02 -1.11437E+04  6.55206E+03 -1.01791E+04  1.10202E+04 -2.89882E+03
  1.09712E+04  5.36887E+03  5.00830E+03  9.44886E+03 -1.58995E+03  1.11338E+04 -7.80976E+03  7.16075E+03
 -1.00687E+04  2.09460E+02 -8.51247E+03 -6.51097E+03 -6.20756E+02 -9.41415E+03  4.52033E+03 -6.81962E+03
  6.85286E+03 -2.31814E+03  4.87897E+03  2.18136E+03  2.02998E+03  3.45908E+03  1.13214E+03  1.85658E+03
  2.62467E+03  1.43329E+03  3.40782E+03  2.03030E+03  2.79923E+03  3.84549E+03  2.72970E+03  5.71931E+03
 -1.89774E+03  8.93559E+03 -7.25474E+03  9.32168E+03 -1.14479E+04  2.59083E+03 -1.16016E+04 -4.80232E+03
 -5.07138E+03 -1.15060E+04  1.43482E+03 -1.21052E+04  6.33823E+03 -7.14549E+03  9.26109E+03 -1.67974E+03
  6.86837E+03  4.30348E+03  1.83182E+03  6.46346E+03 -2.72180E+03  3.69711E+03 -4.47425E+03 -9.82421E+02
 -1.89530E+03 -4.54951E+03  2.09092E+03 -4.79537E+03  4.03407E+03 -2.42760E+03  4.19861E+03  8.37060E+02
  2.10181E+03  1.96006E+03  1.40826E+03  8.74273E+02 -8.78020E+01  1.44925E+03  1.64103E+03 -1.31727E+03
  1.05848E+03 -1.34223E+03  4.66078E+03  1.67692E+03  2.23483E+03  5.15821E+03 -8.42890E+02  7.24395E+03
 -5.68220E+03  4.04171E+03 -6.40564E+03  1.86706E+03 -6.74443E+03 -3.08372E+03 -1.69843E+03 -3.87013E+03
  2.90189E+02 -3.00744E+03  2.41445E+03 -2.51263E+03  1.96435E+03  1.98610E+03 -4.58015E+02  3.41654E+03
 -4.19996E+03  1.46488E+03 -4.51484E+03 -3.00906E+03 -3.54315E+03 -5.86154E+03  9.32297E+02 -5.20064E+03
  2.52469E+03 -3.54918E+03  3.89803E+03 -9.41061E+01  3.29074E+03  1.39088E+03  4.15873E+02  3.34153E+03
 -9.85188E+02  7.12246E+02 -2.30998E+03 -1.70151E+03  4.04450E+02 -3.94477E+03  5.39650E+03 -3.71253E+03
  6.74996E+03  5.62263E+01  6.87025E+03  4.60182E+03  1.95394E+03  7.29866E+03 -2.13112E+03  6.68968E+03
 -5.59432E+03  1.92489E+03 -5.10877E+03 -1.24115E+03 -3.14884E+03 -4.61238E+03  1.43515E+03 -4.39362E+03
  3.49788E+03 -2.35265E+03  3.75724E+03  1.02016E+03  5.92017E+02  3.61119E+03 -2.10247E+02  3.28686E+03
 -2.09675E+03  2.89922E+03 -2.25476E+03  3.81808E+02 -6.51607E+02  8.35593E+02 -1.65050E+03  1.52967E+03
 -1.83981E+03  2.82845E+03 -4.62933E+03  2.61958E+03 -6.58972E+03 -1.08972E+02 -7.59896E+03 -4.46767E+03
 -4.06564E+03 -7.91348E+03  1.64368E+03 -1.01607E+04  6.51186E+03 -7.85034E+03  9.64047E+03 -3.08325E+03
  8.67002E+03  1.36639E+03  4.99084E+03  5.66654E+03  1.47956E+02  7.04795E+03 -2.78232E+03  4.54526E+03
 -3.97896E+03  1.79253E+03 -1.99038E+03 -7.07913E+02 -6.01064E+02  1.18535E+02 -4.93858E+02 -1.10553E+03
 -1.37675E+03  1.08847E+02 -1.43512E+03  1.01026E+02 -5.28512E+02 -1.69810E+03  7.02268E+02 -2.30610E+03
  2.65074E+03 -1.70874E+03  4.04662E+03 -3.84733E+02  4.23485E+03  3.41068E+03  1.04598E+03  6.37646E+03
 -3.08725E+03  8.08185E+03 -6.14352E+03  4.63852E+03 -8.41715E+03 -6.26241E+02 -4.92540E+03 -4.96255E+03
 -2.53597E+03 -6.26393E+03  2.03523E+03 -5.83266E+03  3.37896E+03 -3.47144E+03  3.36976E+03  1.49448E+02
  1.92226E+03  2.44389E+03 -5.45286E+02  1.90610E+03 -1.42540E+03  4.10347E+02  1.18846E+02 -1.84167E+03
  2.32665E+03 -3.55553E+02  2.23119E+03  9.42068E+02  1.26973E+03  1.69041E+03  7.97449E+02  2.94050E+03
 -2.49119E+03  2.67690E+03 -4.31947E+03  7.08204E+02 -3.36927E+03 -2.59454E+03 -9.39691E+02 -5.48145E+03
  2.86093E+03 -3.97670E+03  4.49455E+03 -1.28526E+03  4.46837E+03  3.63546E+02  2.48162E+03  3.49911E+03
  8.24343E+02  4.04194E+03 -1.52002E+03  3.37378E+03 -2.81553E+03  1.87025E+03 -2.39955E+03  1.25578E+02
 -1.27348E+03  1.39052E+01 -1.32591E+03  1.07179E+03 -2.17882E+03  5.39994E+02 -3.02434E+03 -6.27539E+02
 -3.40740E+03 -1.13683E+03 -8.82460E+02 -3.93993E+03  1.67433E+03 -4.88684E+03  3.35593E+03 -1.68339E+03
  4.43559E+03  1.39821E+03  1.78361E+03  2.72844E+03  1.95196E+02  4.22944E+03 -2.63492E+03  3.26421E+03
