 $NMID ID='MM_0lb_SNR400_18hz_g55_92.RAW', FMTDAT='(8E13.5)'
 TRAMP=1., VOLUME=1. $END
  3.09733E+05 -2.81047E+01  3.37090E+05  2.49866E+05  8.44405E+04  3.37680E+05 -1.32109E+05  2.50656E+05
 -1.90115E+05  8.32487E+04 -1.10849E+05 -3.26143E+04  8.03868E+02 -5.03757E+04  5.39681E+04  1.12229E+01
  3.48622E+04  5.27904E+04 -1.71323E+04  7.48333E+04 -6.05681E+04  6.33786E+04 -8.39478E+04  3.16808E+04
 -8.02200E+04 -1.12797E+04 -5.67563E+04 -5.05537E+04 -1.48251E+04 -6.96296E+04  2.72248E+04 -4.54192E+04
  3.93050E+04  3.45027E+03  1.63872E+04  4.65482E+04 -3.42502E+04  4.67345E+04 -6.63550E+04 -6.36943E+02
 -5.24408E+04 -5.62767E+04 -6.13211E+03 -7.69966E+04  3.35785E+04 -5.39317E+04  4.70266E+04 -1.71886E+04
  4.22738E+04  1.13185E+04  3.19031E+04  2.56522E+04  1.59497E+04  2.89671E+04 -4.38180E+03  2.70432E+04
 -2.20612E+04  1.25582E+04 -1.88630E+04 -5.16106E+03  5.02178E+03 -7.77623E+03  2.23644E+04  1.16302E+04
  7.38007E+03  3.43149E+04 -3.08388E+04  3.51567E+04 -6.22773E+04  2.44280E+03 -5.58256E+04 -4.19711E+04
 -1.23859E+04 -6.24200E+04  3.92807E+04 -4.42501E+04  5.66163E+04 -1.84039E+03  3.28215E+04  3.14856E+04
 -6.22626E+03  3.38990E+04 -2.91930E+04  1.49734E+04 -2.90659E+04 -5.08643E+03 -1.55763E+04 -1.01743E+04
 -8.06518E+03 -1.18240E+04 -1.58809E+03 -1.71147E+04  7.16348E+03 -2.27638E+04  1.47077E+04 -1.35025E+04
  1.18030E+04  4.65225E+03 -7.35799E+03  1.30314E+04 -2.03869E+04 -3.12911E+03 -7.80115E+03 -3.18749E+04
  2.12786E+04 -4.16077E+04  4.56675E+04 -1.91100E+04  4.26527E+04  1.89042E+04  1.48295E+04  4.29441E+04
 -1.59730E+04  3.22160E+04 -2.39569E+04  1.72977E+03 -8.56475E+03 -2.73716E+04  2.10360E+04 -3.24003E+04
  3.98488E+04 -7.40648E+03  3.28817E+04  2.31957E+04  1.62546E+04  4.40599E+04 -7.93162E+03  4.73221E+04
 -2.95580E+04  3.18011E+04 -3.89318E+04  8.54250E+03 -3.96362E+04 -1.58156E+04 -2.22251E+04 -3.63436E+04
  7.38774E+03 -3.55006E+04  2.96757E+04 -1.36118E+04  2.82246E+04  1.05237E+04  3.47033E+03  1.83919E+04
 -1.26167E+04  7.85138E+03 -9.94074E+03 -7.42174E+03  6.36625E+03 -1.02070E+04  1.76750E+04  6.76886E+03
  1.21082E+04  2.16917E+04 -6.18028E+03  2.34285E+04 -2.15485E+04  9.91063E+03 -2.61227E+04 -5.47965E+03
 -1.77486E+04 -1.69559E+04 -6.48152E+03 -1.79669E+04  3.64311E+03 -1.64084E+04  1.46415E+04 -1.55229E+04
  2.27046E+04 -1.19477E+04  2.96659E+04  1.57121E+03  2.20285E+04  1.73361E+04  4.62608E+03  3.38398E+04
 -1.67665E+04  2.88157E+04 -2.62821E+04  9.63205E+03 -1.99245E+04 -1.06218E+04 -4.26673E+03 -1.44116E+04
  2.14325E+03 -3.63613E+03 -3.59155E+03  5.88613E+03 -1.40465E+04  4.91543E+03 -1.42875E+04 -5.52623E+03
 -9.19533E+03 -1.73959E+04  4.79628E+03 -2.00074E+04  1.39619E+04 -1.51531E+04  1.59185E+04 -2.04183E+03
  9.87321E+03  1.13916E+04 -1.07527E+03  1.70392E+04 -1.10006E+04  9.55422E+03 -1.65645E+04 -3.68165E+03
 -1.25011E+04 -1.48249E+04 -1.22399E+03 -2.00169E+04  8.91756E+03 -1.62015E+04  1.74809E+04 -7.67928E+03
  1.57837E+04  2.04577E+02  1.07420E+04  3.78374E+03  5.28013E+03  1.16627E+03  8.01121E+03 -1.29764E+03
  1.52891E+04  2.80437E+03  1.58417E+04  1.36503E+04  1.03530E+04  2.65751E+04 -3.00190E+03  2.91083E+04
 -1.72978E+04  2.27942E+04 -2.63848E+04  1.08531E+04 -2.68548E+04 -1.54794E+03 -2.34757E+04 -1.54857E+04
 -1.03664E+04 -2.27140E+04  7.31224E+03 -2.09223E+04  1.80256E+04 -1.15568E+04  1.61716E+04  4.09159E+03
  6.69486E+03  1.20550E+04 -7.65646E+03  1.12673E+04 -1.43725E+04  2.44347E+03 -1.07670E+04 -8.60388E+03
  4.31816E+01 -1.29417E+04  6.74109E+03 -1.01777E+04  8.22747E+03 -1.86748E+03  1.73242E+03  5.34454E+03
 -5.70308E+03  1.79797E+03 -4.28005E+03 -4.37480E+03  2.70328E+02 -1.09084E+04  8.32792E+03 -1.13508E+04
  1.35804E+04 -6.07393E+03  1.37015E+04  3.14203E+03  1.20583E+04  1.01666E+04  5.17526E+03  1.58076E+04
 -2.16991E+03  1.77297E+04 -1.09884E+04  1.13453E+04 -1.28652E+04  3.07540E+03 -9.16754E+03 -1.76741E+03
 -4.82267E+03 -4.06578E+03 -7.61922E+02  1.40632E+03 -2.43320E+03  2.16795E+03 -4.16073E+03  3.87454E+03
 -8.76525E+03 -2.51578E+02 -9.49377E+03 -8.23458E+03 -3.88716E+03 -1.21965E+04  3.42973E+03 -9.02316E+03
  7.18398E+03 -3.82088E+03  5.49182E+03  2.03211E+03  8.85128E+02  2.86985E+03 -4.12089E+03 -4.15708E+02
 -3.82213E+03 -5.74880E+03 -1.11151E+03 -7.97862E+03  4.23119E+03 -8.94245E+03  1.06763E+04 -4.57361E+03
  1.31860E+04  7.71236E+02  9.62957E+03  7.06927E+03  1.43402E+03  9.88136E+03 -5.71846E+03  8.85799E+03
 -7.11023E+03  2.71390E+03 -3.76312E+03 -1.46407E+03  1.33676E+03 -2.17982E+03  5.03062E+03 -1.07175E+03
  4.79499E+03  3.71816E+03  9.22861E+02  6.79846E+03 -4.57328E+03  7.08714E+03 -8.72307E+03  1.95186E+03
 -5.54182E+03 -4.16814E+03 -1.86821E+02 -6.81936E+03  3.98895E+03 -3.61526E+03  4.04769E+03  1.34267E+03
  4.32034E+02  3.87800E+03 -4.12548E+03  5.35642E+03 -5.35801E+03  2.50526E+03 -5.10073E+03 -1.43180E+03
 -3.22140E+03 -7.10947E+03  1.24604E+03 -8.08069E+03  6.48804E+03 -4.89800E+03  7.07441E+03  5.35446E+02
  5.06172E+03  5.90707E+03  1.28054E+02  7.51302E+03 -5.37797E+03  4.06882E+03 -5.83090E+03 -8.34852E+02
 -6.69145E+03 -5.48298E+03 -1.53256E+03 -5.37248E+03  3.24163E+03 -4.87825E+03  2.97594E+03 -2.45588E+03
  2.74009E+03  4.85626E+02  1.03995E+02  1.20798E+03 -8.27769E+01 -4.71530E+02  5.36932E+02 -2.41006E+03
  4.01178E+03 -1.13321E+03  6.24116E+03  7.91445E+02  6.30562E+03  4.17555E+03  5.48579E+03  8.04557E+03
 -1.62201E+03  9.79030E+03 -8.46998E+03  7.09738E+03 -1.08986E+04  1.43214E+03 -8.37765E+03 -2.94515E+03
 -4.79278E+03 -7.12627E+03 -2.18601E+02 -5.28561E+03  2.44002E+03 -2.43456E+03  1.31788E+03 -2.51121E+03
  1.73164E+03 -1.73760E+03  2.30698E+03 -2.41268E+03  3.77914E+03 -2.06643E+03  3.75097E+03 -3.08396E+01
  4.63217E+03  1.25134E+03  1.40226E+03  3.52673E+03 -2.05837E+03  3.09417E+03 -4.61918E+03  2.82497E+03
 -5.93320E+03 -4.72206E+02 -2.38498E+03 -3.65348E+03  5.48121E+01 -4.94782E+03  2.76004E+03 -5.96281E+03
  5.70577E+03 -3.52090E+03  7.40970E+03  5.94231E+02  5.59452E+03  4.98022E+03  9.03400E+02  6.61823E+03
 -2.24620E+03  6.35448E+03 -3.71109E+03  1.89851E+03 -1.93488E+03 -5.13926E+02 -2.84109E+02 -9.45211E+02
 -4.45083E+01  2.23738E+02 -1.18117E+03  2.25806E+03 -2.43792E+03  1.21000E+03 -4.54710E+03 -3.20799E+00
 -2.13299E+03 -4.83335E+03  6.36831E+02 -5.31379E+03  3.27349E+03 -4.99096E+03  4.42605E+03 -1.07394E+03
  4.87713E+03  2.03943E+03  2.13388E+03  4.13307E+03 -5.02312E+02  4.73027E+03 -3.00759E+03  3.28791E+03
 -4.13504E+03  1.74943E+02 -3.81689E+03 -2.24548E+03  5.65195E+00 -4.06945E+03  1.87513E+03 -3.06819E+03
  3.01010E+03 -1.81179E+03  1.91677E+03  6.33127E+02  3.15245E+02  1.86170E+03  1.18578E+03  6.88876E+02
  1.68388E+03  7.11324E+02  1.23721E+03  1.40473E+03  9.43036E+02  2.32323E+03  1.81464E+03  1.70873E+03
 -1.50614E+03  3.08501E+03 -3.12886E+03  4.49615E+03 -3.93831E+03  1.07917E+03 -4.50229E+03 -9.24572E+02
 -1.66896E+03 -3.94897E+03  4.53202E+02 -4.95119E+03  2.23570E+03 -3.13038E+03  3.44706E+03 -1.28820E+03
  2.97008E+03  2.47844E+03  3.90791E+02  2.48014E+03 -8.59005E+02  1.88039E+03 -1.39485E+03 -2.68209E+02
 -8.32320E+02 -1.51776E+03  1.42991E+03 -1.89235E+03  1.22283E+03 -1.89981E+02  1.34634E+03  3.03440E+02
  1.06725E+03  3.06887E+02  7.16254E+02  6.32263E+02 -1.15828E+02  9.03115E+02  2.10788E+03 -7.78083E+00
  4.80094E+01 -5.39883E+02  1.73603E+03  5.18592E+02  7.54037E+02  2.75963E+03 -5.86308E+02  3.34603E+03
 -1.79300E+03  9.97803E+02 -2.56593E+03  5.98451E+02 -2.49574E+03 -1.03528E+03 -4.79098E+02 -1.45865E+03
  7.97098E+02 -1.00519E+03  1.42827E+03 -8.39156E+02  9.12906E+02  1.31911E+03 -8.90719E+02  8.54189E+02
 -1.80582E+03  3.26630E+02 -1.48247E+03 -1.37692E+03 -5.29265E+02 -2.49320E+03  1.88791E+02 -1.81437E+03
  9.29785E+01 -1.16613E+03  4.73699E+02 -3.72210E+02  1.66751E+03 -2.27674E+02  2.97861E+01  8.77610E+02
 -3.56448E+02 -1.10373E+00 -9.50954E+02 -1.84769E+02  1.08132E+03 -9.78422E+02  1.69449E+03 -9.81807E+02
  1.63005E+03  3.36508E+02  2.96275E+03  7.04658E+02  1.42410E+03  1.74760E+03 -4.79594E+02  1.69979E+03
 -1.45342E+03  1.45576E+02 -1.55204E+03 -2.02746E+02 -1.24676E+03 -2.24103E+03  3.34778E+02 -8.52332E+02
  1.71712E+03 -9.33156E+02  9.42051E+02  6.39343E+02  1.58978E+02  1.35317E+03 -3.06701E+02  1.06395E+03
  1.20189E+02  1.37335E+03 -3.28988E+02  5.82130E+02 -1.88970E+02  7.60703E+01 -7.97980E+02  9.28515E+02
 -6.06293E+02  1.10053E+03 -1.72667E+03  3.73940E+02 -1.98507E+03 -6.35277E+01 -2.44257E+03 -6.80525E+02
 -9.93930E+02 -2.26401E+03  1.17519E+03 -3.00784E+03  1.53372E+03 -2.21252E+03  2.79344E+03 -1.12102E+03
  2.20209E+03  4.49065E+02  1.58560E+03  1.25339E+03 -6.77114E+02  1.61287E+03 -8.83764E+02  1.72599E+03
 -7.91595E+02  4.64129E+02 -3.09671E+02 -4.36836E+02 -4.29570E+02 -2.01962E+02 -1.20040E+03 -2.85337E+02
 -1.57841E+03  1.91139E+02 -5.99962E+02 -7.91076E+01  1.24233E+02 -3.97367E+02 -5.88936E+02 -8.55887E+02
  1.66351E+03 -1.16275E+03  7.17661E+02  1.70515E+02  1.35049E+03  1.33009E+03 -3.80878E+02  1.66147E+03
 -9.38590E+02  2.50855E+03 -1.65920E+03  1.61800E+03 -1.55250E+03 -2.09017E+02 -1.14183E+03 -1.57345E+03
 -2.94254E+02 -1.30095E+03  3.00969E+02 -1.42132E+03  2.39898E+02 -5.08060E+02  6.73314E+02 -1.97838E+02
  9.13843E+02 -1.13265E+02 -1.49523E+02  3.83083E+02 -1.94591E+02 -7.60500E-01  1.74413E+02 -2.26462E+02
  2.68747E+02  3.53513E+01  5.24475E+02  4.18921E+02 -2.72898E+02  3.49182E+02  8.86225E+02  4.00266E+02
 -6.40068E+02  8.13889E+02 -5.15885E+02  4.17272E+02 -4.27270E+02 -2.57444E+02  3.61369E+02 -9.61834E+02
  8.73580E+02 -5.38284E+02  7.35994E+02 -4.23064E+02  6.18219E+02 -6.21299E+02  3.95812E+02  8.14402E+02
  7.12820E+02  1.84780E+02  1.50965E+02  7.90793E+02 -8.97786E+02  1.34267E+03 -3.60876E+02 -7.79111E+01
 -2.18199E+02 -4.67186E+02 -7.00046E+02  4.30845E+02 -5.03977E+02 -1.36763E+02 -1.10667E+03  9.32933E+01
 -1.04313E+03 -7.21312E+01 -9.20946E+02 -9.41095E+02  6.02847E+02 -1.04983E+03  1.24339E+03 -6.61866E+02
  4.21009E+02 -8.97212E+01 -4.77636E+02 -5.44876E+01  1.98718E+02  1.38783E+03 -5.15888E+02  5.01311E+02
