 $NMID ID='MM_0lb_SNR400_15hz_g40_47.RAW', FMTDAT='(8E13.5)'
 TRAMP=1., VOLUME=1. $END
  3.09936E+05  2.70210E+02  3.37274E+05  2.50344E+05  8.46595E+04  3.37514E+05 -1.32522E+05  2.50685E+05
 -1.89533E+05  8.28384E+04 -1.11128E+05 -3.30897E+04  9.38633E+02 -5.08072E+04  5.36746E+04 -4.05664E+02
  3.47439E+04  5.29579E+04 -1.66356E+04  7.52919E+04 -6.07851E+04  6.31515E+04 -8.42275E+04  3.17685E+04
 -7.98952E+04 -1.06758E+04 -5.71561E+04 -5.07770E+04 -1.45607E+04 -6.88929E+04  2.72376E+04 -4.51347E+04
  3.91254E+04  4.07279E+03  1.59733E+04  4.74539E+04 -3.42617E+04  4.64035E+04 -6.59821E+04 -3.54520E+02
 -5.23637E+04 -5.66686E+04 -7.09529E+03 -7.60518E+04  3.35946E+04 -5.46793E+04  4.71874E+04 -1.64047E+04
  4.27155E+04  1.13104E+04  3.11966E+04  2.47750E+04  1.57058E+04  2.89533E+04 -5.13038E+03  2.67519E+04
 -2.20507E+04  1.24128E+04 -1.87414E+04 -4.46971E+03  4.65336E+03 -7.09112E+03  2.13261E+04  1.23856E+04
  7.03971E+03  3.44762E+04 -3.14352E+04  3.40212E+04 -6.19385E+04  2.30879E+03 -5.64365E+04 -4.20525E+04
 -1.28116E+04 -6.19371E+04  3.92104E+04 -4.39708E+04  5.64227E+04 -2.38895E+03  3.28436E+04  3.18700E+04
 -5.99424E+03  3.45598E+04 -2.93192E+04  1.48070E+04 -2.94036E+04 -4.98755E+03 -1.59139E+04 -1.08590E+04
 -7.59383E+03 -1.22060E+04 -7.00381E+02 -1.78486E+04  7.05807E+03 -2.31942E+04  1.53794E+04 -1.29878E+04
  1.18231E+04  4.30260E+03 -6.56020E+03  1.31566E+04 -2.02717E+04 -3.58723E+03 -9.08837E+03 -3.19283E+04
  2.12353E+04 -4.15515E+04  4.65836E+04 -1.93960E+04  4.35076E+04  1.83982E+04  1.55704E+04  4.31229E+04
 -1.59369E+04  3.28194E+04 -2.42255E+04  1.95474E+03 -8.99462E+03 -2.70732E+04  2.07450E+04 -3.24889E+04
  3.96329E+04 -7.24007E+03  3.29638E+04  2.40189E+04  1.66992E+04  4.43986E+04 -7.93911E+03  4.76923E+04
 -3.03222E+04  3.24606E+04 -4.02237E+04  8.70473E+03 -4.13076E+04 -1.58098E+04 -2.24501E+04 -3.62984E+04
  7.13641E+03 -3.63048E+04  3.04167E+04 -1.33857E+04  2.84526E+04  1.08298E+04  3.55618E+03  1.83638E+04
 -1.34514E+04  8.11811E+03 -1.04545E+04 -7.78815E+03  6.26452E+03 -1.03975E+04  1.78157E+04  6.46098E+03
  1.29224E+04  2.16842E+04 -6.48731E+03  2.47750E+04 -2.15775E+04  1.06199E+04 -2.63687E+04 -5.59871E+03
 -1.88160E+04 -1.73640E+04 -6.68348E+03 -1.83773E+04  3.94189E+03 -1.74380E+04  1.46677E+04 -1.61374E+04
  2.42940E+04 -1.22030E+04  3.07827E+04  1.61861E+03  2.28770E+04  1.80274E+04  3.89744E+03  3.45441E+04
 -1.65673E+04  2.93227E+04 -2.68687E+04  9.77664E+03 -1.98932E+04 -9.52859E+03 -4.73750E+03 -1.33996E+04
  2.14895E+03 -3.66767E+03 -3.10110E+03  6.11607E+03 -1.50451E+04  5.70828E+03 -1.48122E+04 -5.71485E+03
 -1.02449E+04 -1.79470E+04  5.46341E+03 -2.12023E+04  1.38225E+04 -1.56793E+04  1.66269E+04 -1.24005E+03
  1.02755E+04  1.21565E+04 -9.73539E+02  1.72763E+04 -1.18869E+04  9.93317E+03 -1.72050E+04 -3.64481E+03
 -1.34145E+04 -1.52372E+04 -1.81124E+03 -2.08377E+04  1.02635E+04 -1.72383E+04  1.84528E+04 -9.03911E+03
  1.62703E+04  2.68554E+02  1.19906E+04  3.89883E+03  5.74767E+03  7.05554E+02  8.65366E+03 -1.68838E+03
  1.59882E+04  2.79638E+03  1.73248E+04  1.37328E+04  1.12840E+04  2.78120E+04 -2.79671E+03  3.10982E+04
 -1.79188E+04  2.43725E+04 -2.83711E+04  1.18369E+04 -3.03499E+04 -2.29486E+03 -2.49369E+04 -1.72487E+04
 -1.12614E+04 -2.48187E+04  8.08718E+03 -2.17643E+04  1.93150E+04 -1.20245E+04  1.77166E+04  4.84604E+03
  6.82654E+03  1.33726E+04 -7.96559E+03  1.18108E+04 -1.51430E+04  2.91788E+03 -1.11769E+04 -8.96194E+03
 -5.72202E+02 -1.43101E+04  6.26128E+03 -1.10881E+04  8.80270E+03 -1.28157E+03  1.47126E+03  6.20885E+03
 -6.91629E+03  2.53158E+03 -5.49496E+03 -5.56293E+03 -3.26221E+02 -1.17670E+04  8.44453E+03 -1.24540E+04
  1.48338E+04 -6.44791E+03  1.57438E+04  2.61143E+03  1.34212E+04  1.20332E+04  6.24349E+03  1.74550E+04
 -2.91211E+03  1.99211E+04 -1.20939E+04  1.24709E+04 -1.47147E+04  2.99986E+03 -9.95129E+03 -1.93490E+03
 -5.08780E+03 -4.26116E+03 -6.51380E+02  1.10237E+03 -2.22927E+03  2.22371E+03 -4.22981E+03  4.35104E+03
 -9.64679E+03 -2.64078E+02 -1.03074E+04 -8.23027E+03 -4.63360E+03 -1.40176E+04  4.44127E+03 -9.80107E+03
  8.47242E+03 -4.52758E+03  5.71825E+03  2.94128E+03  4.15047E+02  3.95126E+03 -4.89405E+03  1.27748E+02
 -4.24831E+03 -6.58160E+03 -8.45966E+02 -9.47868E+03  5.22803E+03 -1.02260E+04  1.25024E+04 -5.04156E+03
  1.50478E+04  9.12987E+02  1.05781E+04  8.47571E+03  2.05695E+03  1.09611E+04 -6.21763E+03  9.86659E+03
 -7.82811E+03  3.86526E+03 -4.21138E+03 -1.68898E+03  1.57749E+03 -2.56346E+03  5.51029E+03 -7.84377E+02
  4.43377E+03  4.60121E+03  1.12936E+03  8.26691E+03 -5.31632E+03  8.17069E+03 -9.90182E+03  1.75410E+03
 -6.61733E+03 -4.97381E+03  1.30739E+01 -8.25786E+03  5.10354E+03 -4.55143E+03  4.69893E+03  1.04947E+03
  9.82656E+02  4.79310E+03 -5.01306E+03  6.41636E+03 -7.05351E+03  3.40499E+03 -6.70728E+03 -2.10797E+03
 -4.35329E+03 -8.37443E+03  1.84436E+03 -9.34136E+03  8.07060E+03 -6.17226E+03  9.16125E+03  1.06854E+03
  5.37475E+03  6.54817E+03 -2.11429E+02  9.55741E+03 -6.72708E+03  4.85503E+03 -7.45209E+03 -1.14104E+02
 -6.59622E+03 -6.42702E+03 -1.25572E+03 -7.06775E+03  3.32038E+03 -5.68337E+03  3.44751E+03 -2.30240E+03
  3.81761E+03  3.90368E+02 -4.13334E+02  1.26657E+03  6.59972E+02 -1.17608E+03  1.13963E+03 -2.72377E+03
  5.99752E+03 -1.33462E+03  7.60788E+03  7.19244E+02  7.99283E+03  5.26847E+03  6.85319E+03  1.02234E+04
 -2.67086E+03  1.29188E+04 -1.09201E+04  8.95553E+03 -1.38698E+04  1.78950E+03 -1.09010E+04 -4.41090E+03
 -5.51230E+03 -8.50220E+03 -7.58535E+02 -7.59566E+03  3.57665E+03 -3.25774E+03  2.50742E+03 -3.51035E+03
  1.85831E+03 -2.02458E+03  2.65294E+03 -2.49154E+03  3.40709E+03 -1.84356E+03  5.10204E+03  2.76689E+02
  5.56439E+03  1.17433E+03  2.30993E+03  4.96431E+03 -1.70910E+03  5.02390E+03 -5.66413E+03  3.51531E+03
 -7.01079E+03 -1.07264E+03 -3.84734E+03 -4.66055E+03  2.85358E+01 -7.38173E+03  4.86010E+03 -7.67209E+03
  7.64061E+03 -4.47805E+03  1.00721E+04  1.05228E+03  7.07476E+03  5.68598E+03  1.72393E+03  8.95149E+03
 -3.68141E+03  7.55316E+03 -4.37207E+03  2.87619E+03 -2.86997E+03 -1.41780E+03 -1.08854E+03 -9.32368E+02
 -4.65697E+02  3.51836E+02 -1.23023E+03  2.26882E+03 -3.39035E+03  1.23414E+03 -5.57337E+03 -2.50179E+02
 -2.76504E+03 -5.28950E+03  4.41109E+02 -6.52897E+03  4.26798E+03 -6.60079E+03  6.06843E+03 -1.99946E+03
  5.93258E+03  3.93374E+03  2.27489E+03  5.07531E+03 -1.66141E+03  6.58175E+03 -4.01898E+03  3.88392E+03
 -6.08443E+03  6.56490E+02 -4.91791E+03 -4.69258E+03 -5.78965E+02 -5.04803E+03  2.92228E+03 -4.29242E+03
  3.42428E+03 -1.43706E+03  2.52504E+03  7.11371E+02  8.59358E+02  2.24098E+03  9.70564E+02  8.17397E+02
  2.00720E+03  5.83431E+02  1.12578E+03  1.74224E+03  1.49664E+03  2.07393E+03  1.70129E+03  3.14883E+03
 -1.48991E+03  5.22259E+03 -4.08637E+03  5.59145E+03 -5.51424E+03  1.77090E+03 -6.23977E+03 -1.45968E+03
 -2.95409E+03 -6.65443E+03  6.58213E+02 -6.90802E+03  3.12522E+03 -4.06643E+03  5.28454E+03 -1.35023E+03
  3.53389E+03  1.82979E+03  8.29251E+02  3.93662E+03 -1.78368E+03  2.03129E+03 -2.43565E+03 -2.97814E+02
 -1.09347E+03 -2.26398E+03  1.93952E+03 -2.34385E+03  2.17363E+03 -1.48231E+03  2.53473E+03  2.49167E+02
  9.09760E+02  9.16433E+02  8.91252E+02  7.32060E+02 -5.04648E+02  1.41371E+03  1.65541E+03 -1.87872E+02
  1.03808E+03 -1.55765E+02  2.36547E+03  7.81390E+02  1.14181E+03  3.12592E+03 -1.56988E+02  4.77780E+03
 -2.88705E+03  2.78839E+03 -3.24092E+03  1.16927E+02 -2.95115E+03 -7.19017E+02 -4.87925E+02 -2.18541E+03
  3.63721E+02 -2.18837E+03  1.79878E+03 -4.92558E+02  1.03968E+03  2.13304E+03 -3.46163E+02  2.04091E+03
 -2.64953E+03  1.44696E+03 -2.98085E+03 -1.54712E+03 -8.40328E+02 -2.92502E+03  5.42801E+01 -2.91848E+03
  1.68602E+03 -1.92345E+03  1.20271E+03  3.29861E+02  2.38213E+03  2.47285E+02  2.19369E+01  1.70775E+03
 -6.51032E+02  1.61983E+02 -1.60440E+03 -1.06752E+03  1.17108E+03 -2.17870E+03  3.49418E+03 -1.68978E+03
  2.67286E+03  3.07628E+02  4.07513E+03  2.23942E+03  1.31522E+03  3.41720E+03 -1.34524E+03  3.66354E+03
 -3.08799E+03  1.03260E+03 -2.66560E+03 -5.54910E+02 -1.86404E+03 -2.19663E+03  7.02661E+02 -1.88369E+03
  2.87370E+03 -1.67912E+03  1.43833E+03  1.55468E+03  2.85370E+02  2.43790E+03  1.64851E+02  1.93901E+03
 -6.82069E+02  1.62650E+03 -1.08041E+03  4.19248E+02 -7.30077E+02  1.11758E+03 -1.07533E+03  1.10060E+03
 -1.09535E+03  1.73343E+03 -3.09413E+03  7.56732E+02 -3.24104E+03 -8.11350E+02 -3.70682E+03 -1.87939E+03
 -2.05374E+03 -4.50952E+03  5.09589E+02 -5.29454E+03  1.79238E+03 -3.99367E+03  5.19708E+03 -1.87873E+03
  4.47828E+03 -9.79014E+01  2.99501E+03  2.87202E+03  2.00737E+02  3.85880E+03 -8.77793E+02  2.24238E+03
 -1.90178E+03  1.21139E+03 -1.17691E+03  1.58391E+02 -4.73537E+02  3.47412E+01 -1.06151E+03  7.66515E+01
 -1.41472E+03 -2.41888E+02 -9.37782E+02  7.21575E+01 -2.05139E+02 -9.12217E+02  1.96563E+02 -1.46876E+03
  1.57650E+03 -8.18852E+02  1.78003E+03  3.39720E+02  1.73395E+03  1.56697E+03  2.00427E+02  2.80617E+03
 -1.64034E+03  3.95740E+03 -2.72514E+03  2.68686E+03 -3.20610E+03 -5.31121E+02 -3.01730E+03 -2.22086E+03
 -1.81261E+03 -3.02213E+03  5.33268E+02 -1.93133E+03  1.67668E+03 -1.33571E+03  1.58915E+03  8.21477E+02
  1.61962E+03  4.20496E+02 -2.87271E+02  1.37807E+03 -1.27634E+03 -8.80454E+01  4.24010E+02 -2.38155E+02
  9.38308E+02  1.44122E+02  7.92243E+02  1.41302E+03  1.05551E+02  1.23802E+03  6.57445E+02  1.35577E+03
 -1.89466E+03  1.26965E+03 -1.60865E+03  3.24584E+02 -1.70118E+03 -1.12077E+03 -2.04217E+02 -2.87361E+03
  9.60486E+02 -1.90244E+03  1.81251E+03 -8.88312E+02  2.00985E+03 -7.59194E+00  8.70276E+02  1.89739E+03
  3.72906E+02  1.58300E+03 -6.34558E+02  1.20908E+03 -5.44134E+02  9.07936E+02 -8.95445E+02  2.99744E+01
 -6.35147E+02 -1.54601E+02 -5.36892E+02  3.68371E+02 -8.45130E+02  3.63947E+02 -1.50374E+03 -1.69793E+02
 -1.35880E+03 -5.83348E+00 -2.75679E+02 -1.92218E+03  1.25586E+03 -2.48513E+03  2.57872E+03 -8.08591E+02
  1.75358E+03  2.33425E+02  4.58849E+02  1.32794E+03 -3.20207E+02  1.58877E+03 -1.51731E+03  1.04596E+03
