 $NMID ID='MM_0lb_SNR400_13hz_g45_81.RAW', FMTDAT='(8E13.5)'
 TRAMP=1., VOLUME=1. $END
  3.09730E+05  7.40881E+02  3.37395E+05  2.50691E+05  8.47018E+04  3.37995E+05 -1.32250E+05  2.51364E+05
 -1.90201E+05  8.31234E+04 -1.12536E+05 -3.24507E+04  7.07934E+02 -5.01979E+04  5.41331E+04 -6.33659E+02
  3.50392E+04  5.28243E+04 -1.73430E+04  7.53937E+04 -6.05060E+04  6.32459E+04 -8.45890E+04  3.21333E+04
 -8.15053E+04 -1.15084E+04 -5.75136E+04 -5.17634E+04 -1.54383E+04 -6.92696E+04  2.74494E+04 -4.56518E+04
  3.97808E+04  4.31660E+03  1.64848E+04  4.87534E+04 -3.40914E+04  4.69527E+04 -6.64204E+04 -2.49220E+02
 -5.43349E+04 -5.69734E+04 -6.75558E+03 -7.72880E+04  3.42328E+04 -5.46679E+04  4.81377E+04 -1.68020E+04
  4.39561E+04  1.09836E+04  3.20157E+04  2.57295E+04  1.63835E+04  2.95652E+04 -4.81738E+03  2.75032E+04
 -2.18394E+04  1.30536E+04 -1.88377E+04 -5.06571E+03  6.27406E+03 -7.45029E+03  2.22872E+04  1.18502E+04
  7.62078E+03  3.49642E+04 -3.21742E+04  3.55123E+04 -6.38009E+04  2.52044E+03 -5.71952E+04 -4.30186E+04
 -1.17294E+04 -6.35281E+04  3.99254E+04 -4.60924E+04  5.85616E+04 -2.63834E+03  3.41077E+04  3.29982E+04
 -6.00724E+03  3.65689E+04 -3.04350E+04  1.64939E+04 -3.09006E+04 -3.86253E+03 -1.76522E+04 -1.13374E+04
 -8.37199E+03 -1.32636E+04 -8.65245E+02 -1.83659E+04  7.55622E+03 -2.25453E+04  1.57425E+04 -1.32361E+04
  1.11582E+04  4.86789E+03 -8.72723E+03  1.26070E+04 -2.18065E+04 -4.55415E+03 -8.29466E+03 -3.38213E+04
  2.29136E+04 -4.34961E+04  4.84551E+04 -2.00657E+04  4.49133E+04  1.97087E+04  1.52967E+04  4.40586E+04
 -1.59016E+04  3.37435E+04 -2.52276E+04  1.61019E+03 -9.69020E+03 -2.79586E+04  2.06688E+04 -3.39996E+04
  4.11187E+04 -8.82630E+03  3.59655E+04  2.40643E+04  1.91416E+04  4.73152E+04 -7.97179E+03  5.05493E+04
 -3.19859E+04  3.48059E+04 -4.28120E+04  9.13119E+03 -4.31929E+04 -1.69504E+04 -2.38702E+04 -3.83196E+04
  6.95831E+03 -3.81729E+04  3.20984E+04 -1.50188E+04  2.90422E+04  1.07718E+04  3.96328E+03  1.94568E+04
 -1.28501E+04  8.89243E+03 -1.08220E+04 -7.30113E+03  4.99856E+03 -1.03755E+04  1.83491E+04  5.54061E+03
  1.38062E+04  2.21045E+04 -5.45470E+03  2.51295E+04 -2.20116E+04  1.14101E+04 -2.87713E+04 -4.42201E+03
 -2.12220E+04 -1.72860E+04 -8.69255E+03 -2.07435E+04  4.11615E+03 -2.04008E+04  1.58236E+04 -1.92730E+04
  2.63958E+04 -1.36062E+04  3.32571E+04  3.27600E+03  2.46644E+04  1.98608E+04  4.81101E+03  3.65947E+04
 -1.76675E+04  3.08439E+04 -2.88899E+04  1.06099E+04 -2.11653E+04 -1.04771E+04 -4.39462E+03 -1.34190E+04
  1.39090E+03 -2.16572E+03 -5.51347E+03  6.92536E+03 -1.68523E+04  4.92475E+03 -1.68403E+04 -7.47407E+03
 -1.06844E+04 -1.86398E+04  5.61683E+03 -2.34383E+04  1.55759E+04 -1.67872E+04  1.81548E+04 -2.66166E+03
  1.16236E+04  1.42351E+04 -8.10177E+02  2.03623E+04 -1.35099E+04  1.16091E+04 -2.00588E+04 -4.44690E+03
 -1.47580E+04 -1.73496E+04 -1.94060E+03 -2.32190E+04  1.04068E+04 -1.89190E+04  1.97314E+04 -9.08775E+03
  1.78505E+04  6.70306E+02  1.30903E+04  5.21068E+03  6.14570E+03  9.70437E+02  9.66955E+03 -1.52205E+03
  1.74794E+04  2.66120E+03  2.01353E+04  1.51444E+04  1.39984E+04  3.13601E+04 -3.30142E+03  3.53068E+04
 -2.12737E+04  2.82668E+04 -3.29327E+04  1.43003E+04 -3.46901E+04 -1.84271E+03 -2.83303E+04 -2.01420E+04
 -1.24184E+04 -2.86015E+04  1.00142E+04 -2.50218E+04  2.19081E+04 -1.28017E+04  1.96039E+04  5.59868E+03
  7.58723E+03  1.43444E+04 -9.26586E+03  1.22503E+04 -1.63569E+04  2.46133E+03 -1.25722E+04 -1.10427E+04
  1.90513E+02 -1.57705E+04  8.05367E+03 -1.19043E+04  1.02023E+04 -1.12653E+03  1.98427E+03  6.88662E+03
 -7.04315E+03  3.03433E+03 -5.91529E+03 -6.18986E+03 -4.94706E+02 -1.37679E+04  9.87816E+03 -1.50549E+04
  1.69297E+04 -8.00685E+03  1.88090E+04  3.24468E+03  1.63704E+04  1.40503E+04  7.21552E+03  2.07812E+04
 -3.51869E+03  2.28718E+04 -1.49575E+04  1.47144E+04 -1.62448E+04  2.70927E+03 -1.19080E+04 -3.93240E+03
 -5.52512E+03 -5.34428E+03 -5.48608E+02  6.12405E+02 -2.20453E+03  2.47395E+03 -5.40397E+03  4.43020E+03
 -1.07619E+04 -6.40385E+02 -1.08753E+04 -9.34460E+03 -4.63489E+03 -1.57332E+04  4.91162E+03 -1.16190E+04
  1.01503E+04 -5.13729E+03  7.12192E+03  2.99088E+03 -3.14276E+01  4.52950E+03 -5.95362E+03  1.80313E+02
 -5.04922E+03 -8.36388E+03 -8.90454E+02 -1.15473E+04  6.12868E+03 -1.17301E+04  1.44075E+04 -6.17859E+03
  1.74196E+04  1.82010E+03  1.21380E+04  1.00593E+04  1.68916E+03  1.29993E+04 -7.41825E+03  1.18091E+04
 -9.45312E+03  3.86918E+03 -4.79357E+03 -2.84918E+03  2.09222E+03 -3.59092E+03  6.63179E+03 -1.06978E+03
  5.61288E+03  4.83523E+03  6.85332E+02  8.80609E+03 -7.11634E+03  9.59010E+03 -1.15528E+04  2.92902E+03
 -7.21803E+03 -5.58245E+03  2.42080E+02 -1.01347E+04  5.91502E+03 -4.86159E+03  5.89554E+03  2.59066E+03
  9.82934E+02  6.73035E+03 -5.99220E+03  8.19125E+03 -8.63881E+03  3.79418E+03 -8.30136E+03 -2.76960E+03
 -4.97971E+03 -1.07453E+04  2.51898E+03 -1.24742E+04  1.07447E+04 -7.66774E+03  1.13605E+04  1.45153E+03
  7.52648E+03  9.18521E+03 -8.25284E+02  1.11071E+04 -8.48312E+03  5.83349E+03 -8.99360E+03 -9.48542E+02
 -7.73443E+03 -7.58809E+03 -1.26454E+03 -7.42510E+03  4.17029E+03 -6.64485E+03  5.31703E+03 -3.41095E+03
  3.24540E+03  2.18859E+03 -8.21955E+02  1.61234E+03  3.19236E+01 -2.20927E+03  1.40768E+03 -4.68224E+03
  7.24030E+03 -2.57812E+03  9.78614E+03  1.38879E+03  1.06548E+04  6.83870E+03  7.71155E+03  1.33381E+04
 -2.93604E+03  1.51352E+04 -1.32157E+04  1.24333E+04 -1.69931E+04  2.42848E+03 -1.42857E+04 -5.30965E+03
 -7.19937E+03 -1.12258E+04 -7.18747E+02 -8.83401E+03  3.41165E+03 -4.56261E+03  2.79199E+03 -4.23147E+03
  2.01299E+03 -2.40941E+03  2.85254E+03 -2.95071E+03  4.27477E+03 -2.32338E+03  5.70832E+03 -4.37712E+02
  7.41357E+03  1.79689E+03  3.93148E+03  6.25213E+03 -1.71103E+03  6.87731E+03 -7.29414E+03  5.56228E+03
 -9.33835E+03 -1.92798E+03 -5.34948E+03 -6.22051E+03 -2.98177E+02 -1.00615E+04  5.79813E+03 -9.90799E+03
  1.04988E+04 -5.66183E+03  1.24262E+04  1.00355E+03  8.42461E+03  8.98448E+03  1.85000E+03  1.12230E+04
 -3.88306E+03  1.02370E+04 -6.91323E+03  2.91901E+03 -4.58708E+03 -1.27147E+03 -1.53320E+03 -1.39639E+03
 -9.83665E+02  1.87345E+02 -1.16491E+03  2.77463E+03 -4.04647E+03  1.84186E+03 -7.37332E+03 -1.19149E+03
 -3.86169E+03 -6.49012E+03  1.32815E+02 -8.94070E+03  5.53787E+03 -8.92611E+03  7.85223E+03 -2.83240E+03
  8.55130E+03  3.77457E+03  3.91669E+03  7.98576E+03 -1.81976E+03  8.69896E+03 -6.18740E+03  5.07701E+03
 -8.30106E+03  2.03253E+02 -6.17239E+03 -5.36031E+03 -5.01075E+02 -7.26293E+03  3.88342E+03 -5.13171E+03
  5.48264E+03 -1.98456E+03  3.44689E+03  1.16491E+03  1.11950E+03  2.80221E+03  1.28094E+03  1.62527E+03
  1.29044E+03  7.47245E+02  2.32958E+03  1.27292E+03  2.46383E+03  3.39366E+03  2.12009E+03  4.05172E+03
 -2.28704E+03  6.88504E+03 -6.51094E+03  7.58875E+03 -8.11671E+03  1.83966E+03 -9.06998E+03 -3.02991E+03
 -4.40834E+03 -8.14737E+03  1.80560E+03 -9.28423E+03  4.10551E+03 -5.76881E+03  6.80134E+03 -1.48610E+03
  5.28365E+03  3.73297E+03  1.16402E+03  4.79569E+03 -2.51213E+03  3.68219E+03 -3.47423E+03 -9.52473E+02
 -1.50786E+03 -3.13997E+03  1.87194E+03 -3.11357E+03  3.91965E+03 -2.01769E+03  2.69168E+03  6.55017E+02
  2.48128E+03  1.51558E+03  7.06134E+02  4.45477E+02 -8.43871E+02  1.21277E+03  1.42109E+03 -9.14227E+02
  1.55802E+03  3.25131E+02  4.17020E+03  1.17155E+03  1.42628E+03  4.03292E+03 -6.29764E+02  6.97710E+03
 -4.11414E+03  3.17412E+03 -5.45775E+03  1.00956E+03 -4.30340E+03 -2.13340E+03 -1.71328E+03 -2.55067E+03
  5.76144E+02 -3.34523E+03  1.90006E+03 -1.50873E+03  1.37770E+03  1.45565E+03 -1.50161E+03  2.48552E+03
 -3.26556E+03  2.26147E+03 -3.51977E+03 -2.07381E+03 -2.55149E+03 -4.12828E+03  3.97677E+02 -4.40162E+03
  2.21521E+03 -2.31594E+03  2.95946E+03 -3.69121E+01  3.23298E+03  7.40864E+02  1.06733E+02  2.57767E+03
 -1.61112E+03  2.92179E+02 -2.59870E+03 -9.55931E+02  8.42785E+02 -2.49670E+03  4.02092E+03 -3.08669E+03
  4.36487E+03 -2.15828E+02  5.27706E+03  3.23570E+03  2.37246E+03  4.67010E+03 -8.69768E+02  4.93059E+03
 -4.71210E+03  8.21289E+02 -4.26225E+03 -7.98128E+02 -2.37378E+03 -3.26717E+03  6.26058E+02 -2.13700E+03
  4.36299E+03 -1.65183E+03  2.67042E+03  1.29737E+03  5.17402E+02  3.28493E+03 -5.74018E+02  1.94482E+03
 -1.23101E+03  1.98774E+03 -1.32104E+03  2.65440E+01 -2.35072E+02  9.90490E+02 -1.19751E+03  6.11736E+02
 -9.14406E+02  2.47862E+03 -3.41354E+03  1.82849E+03 -4.48454E+03  2.60266E+02 -6.13184E+03 -3.02532E+03
 -2.46028E+03 -5.97763E+03  1.24509E+03 -7.33578E+03  4.27991E+03 -6.08915E+03  7.32567E+03 -2.67702E+03
  6.10673E+03  1.02882E+03  3.74504E+03  4.41993E+03  6.20368E+01  5.04601E+03 -2.18500E+03  4.41459E+03
 -3.01280E+03  2.18797E+03 -1.26160E+03 -4.80619E+02 -5.17386E+02  2.07598E+02 -5.64014E+01  8.60400E+00
 -1.40434E+03 -3.94315E+02 -2.17790E+03 -2.12953E+02 -1.35427E+02 -1.63805E+03  3.78210E+02 -2.17056E+03
  2.17715E+03 -2.20506E+03  2.25276E+03  2.45068E+02  3.00419E+03  2.68832E+03  2.56290E+02  4.37705E+03
 -1.90754E+03  5.85789E+03 -5.23044E+03  4.05035E+03 -5.34492E+03 -5.20922E+02 -4.49841E+03 -3.01736E+03
 -2.01245E+03 -4.46827E+03  6.85614E+02 -4.65997E+03  2.77798E+03 -1.69777E+03  2.96233E+03  4.97225E+01
  2.04194E+03  1.55800E+03  1.07809E+02  8.44806E+02 -8.33287E+02  3.68192E+02 -1.66148E+02 -5.65374E+02
  1.61434E+03 -2.34744E+02  1.76728E+03  7.02379E+02  9.40847E+02  1.40769E+03  5.65729E+02  2.66319E+03
 -2.11543E+03  1.71422E+03 -2.72858E+03  3.27230E+02 -2.34453E+03 -2.08236E+03 -2.07997E+02 -4.03836E+03
  2.16111E+03 -2.73560E+03  2.99550E+03 -7.86037E+02  3.68300E+03  6.75629E+02  2.21435E+03  2.84321E+03
  7.86087E+02  2.78630E+03 -1.04863E+03  2.63828E+03 -2.29984E+03  1.44774E+03 -2.00035E+03  8.35346E+02
 -8.02244E+02 -4.94839E+02 -8.50096E+02  7.70093E+02 -1.69149E+03  9.13303E+02 -2.08638E+03 -4.59726E+02
 -2.69210E+03 -1.11831E+03 -1.01360E+03 -3.51081E+03  1.45903E+03 -3.23526E+03  3.59401E+03 -1.38041E+03
  2.79007E+03 -4.87516E+02  1.18649E+03  2.16352E+03  2.75254E+01  2.66593E+03 -2.75376E+03  1.81318E+03
