 $NMID ID='MM_0lb_SNR400_9hz_g45_67.RAW', FMTDAT='(8E13.5)'
 TRAMP=1., VOLUME=1. $END
  3.09426E+05  1.17905E+03  3.37528E+05  2.50711E+05  8.46879E+04  3.39162E+05 -1.31801E+05  2.51725E+05
 -1.90479E+05  8.40391E+04 -1.11805E+05 -3.24624E+04  4.09834E+02 -5.07830E+04  5.40624E+04 -1.42887E+02
  3.65395E+04  5.27212E+04 -1.71183E+04  7.55105E+04 -6.11269E+04  6.42187E+04 -8.44192E+04  3.32540E+04
 -8.19297E+04 -1.14985E+04 -5.78489E+04 -5.21014E+04 -1.44987E+04 -6.95300E+04  2.81227E+04 -4.66611E+04
  4.09042E+04  3.88628E+03  1.63595E+04  4.80615E+04 -3.54885E+04  4.82788E+04 -6.75344E+04 -1.02643E+03
 -5.53811E+04 -5.82298E+04 -7.56510E+03 -7.88479E+04  3.48170E+04 -5.65290E+04  4.97030E+04 -1.80236E+04
  4.46963E+04  1.16471E+04  3.28640E+04  2.69525E+04  1.66995E+04  3.09481E+04 -5.58477E+03  2.77439E+04
 -2.28006E+04  1.19999E+04 -1.74294E+04 -6.23772E+03  7.20833E+03 -7.53340E+03  2.35813E+04  1.37025E+04
  6.67293E+03  3.68471E+04 -3.37757E+04  3.61248E+04 -6.58861E+04  1.68409E+03 -5.87073E+04 -4.44441E+04
 -1.37453E+04 -6.58121E+04  4.11577E+04 -4.74333E+04  6.08970E+04 -2.30386E+03  3.73114E+04  3.41472E+04
 -6.05554E+03  3.89189E+04 -3.17122E+04  1.86757E+04 -3.34219E+04 -3.66456E+03 -1.89981E+04 -1.25563E+04
 -9.26794E+03 -1.52825E+04 -5.01782E+02 -1.92823E+04  8.39527E+03 -2.38753E+04  1.56196E+04 -1.34005E+04
  1.05823E+04  6.38181E+03 -1.02127E+04  1.24713E+04 -2.39170E+04 -5.99631E+03 -8.08400E+03 -3.71210E+04
  2.48434E+04 -4.64038E+04  5.21374E+04 -2.07118E+04  4.82399E+04  2.03320E+04  1.76935E+04  4.60707E+04
 -1.69707E+04  3.54907E+04 -2.75263E+04  2.68597E+03 -1.20041E+04 -2.93353E+04  2.22502E+04 -3.66618E+04
  4.52821E+04 -1.13399E+04  3.99199E+04  2.51005E+04  2.14935E+04  5.06485E+04 -8.82251E+03  5.56624E+04
 -3.50607E+04  3.75283E+04 -4.73759E+04  1.02349E+04 -4.76706E+04 -1.87196E+04 -2.62883E+04 -4.15435E+04
  7.80807E+03 -4.27076E+04  3.43654E+04 -1.73597E+04  3.20786E+04  1.13438E+04  4.68980E+03  2.07028E+04
 -1.35839E+04  9.25624E+03 -1.12267E+04 -7.17135E+03  5.69500E+03 -9.94331E+03  1.92240E+04  5.45464E+03
  1.49046E+04  2.28652E+04 -4.84055E+03  2.63943E+04 -2.34961E+04  1.42547E+04 -3.13686E+04 -3.95877E+03
 -2.56951E+04 -1.80384E+04 -1.18065E+04 -2.40775E+04  4.11310E+03 -2.41652E+04  1.90768E+04 -2.18996E+04
  3.11217E+04 -1.39457E+04  3.76350E+04  4.11239E+03  2.70674E+04  2.32888E+04  3.93149E+03  4.04887E+04
 -1.93194E+04  3.38558E+04 -2.99453E+04  1.24565E+04 -2.25469E+04 -1.00477E+04 -5.75933E+03 -1.41632E+04
  1.89917E+03 -1.34456E+03 -7.44190E+03  7.78249E+03 -1.96161E+04  5.30027E+03 -1.97564E+04 -9.13416E+03
 -1.16526E+04 -2.19252E+04  6.05331E+03 -2.79445E+04  1.86833E+04 -2.00630E+04  2.16484E+04 -1.31298E+03
  1.44948E+04  1.53375E+04 -1.70433E+03  2.28721E+04 -1.68395E+04  1.33699E+04 -2.37614E+04 -4.14328E+03
 -1.69484E+04 -2.06466E+04 -2.09371E+03 -2.79503E+04  1.13408E+04 -2.36388E+04  2.29186E+04 -1.19695E+04
  2.09794E+04  2.13971E+02  1.55196E+04  4.22461E+03  8.76414E+03  1.23290E+03  1.24382E+04 -1.90368E+03
  2.20003E+04  3.13760E+03  2.48322E+04  1.80976E+04  1.73269E+04  3.70331E+04 -2.76774E+03  4.34042E+04
 -2.48961E+04  3.58816E+04 -4.07905E+04  1.78534E+04 -4.39913E+04 -2.46869E+03 -3.54793E+04 -2.57741E+04
 -1.37851E+04 -3.64462E+04  1.34004E+04 -3.19546E+04  2.77330E+04 -1.58169E+04  2.38281E+04  7.67629E+03
  7.64993E+03  1.82486E+04 -1.18639E+04  1.53196E+04 -1.97263E+04  2.33632E+03 -1.47090E+04 -1.26734E+04
  1.56637E+02 -1.79828E+04  1.00383E+04 -1.39565E+04  1.32199E+04 -1.31440E+03  3.21863E+03  8.77825E+03
 -8.67149E+03  3.43358E+03 -9.33644E+03 -6.18211E+03 -2.49431E+03 -1.75453E+04  1.15732E+04 -2.00238E+04
  2.18445E+04 -1.03122E+04  2.51485E+04  2.72255E+03  2.27181E+04  1.78516E+04  1.07151E+04  2.81159E+04
 -5.76266E+03  3.11562E+04 -1.97704E+04  1.91188E+04 -2.19456E+04  3.27453E+03 -1.52147E+04 -6.27056E+03
 -6.45027E+03 -6.84667E+03 -5.89855E+02 -1.34062E+02 -2.67952E+03  3.31612E+03 -6.65635E+03  5.44981E+03
 -1.37578E+04 -7.90849E+02 -1.49823E+04 -1.18439E+04 -5.68576E+03 -1.88034E+04  6.25864E+03 -1.48316E+04
  1.24648E+04 -6.54394E+03  9.47589E+03  3.57867E+03 -4.98725E+02  5.64877E+03 -6.79497E+03 -8.05765E+02
 -7.44944E+03 -1.01587E+04 -1.19763E+03 -1.55081E+04  8.63498E+03 -1.60030E+04  2.02837E+04 -8.72735E+03
  2.28686E+04  2.45453E+03  1.71252E+04  1.34740E+04  3.36596E+03  1.87763E+04 -9.11912E+03  1.45548E+04
 -1.18922E+04  3.92318E+03 -5.96774E+03 -3.49571E+03  2.37514E+03 -4.34363E+03  7.60251E+03 -8.24202E+02
  7.10482E+03  6.84744E+03  1.33063E+03  1.25078E+04 -8.88299E+03  1.15840E+04 -1.54907E+04  1.90832E+03
 -9.87158E+03 -7.94382E+03  4.07213E+01 -1.32677E+04  8.33786E+03 -6.81825E+03  8.64456E+03  3.29125E+03
  2.39305E+03  9.50323E+03 -7.61472E+03  1.12012E+04 -1.33513E+04  4.58932E+03 -1.43337E+04 -5.42223E+03
 -7.79990E+03 -1.53343E+04  3.52033E+03 -1.74466E+04  1.49857E+04 -1.05132E+04  1.55009E+04  2.62588E+03
  9.34317E+03  1.31373E+04 -1.67872E+03  1.52711E+04 -1.05566E+04  8.00349E+03 -1.30340E+04 -1.34788E+03
 -1.02436E+04 -1.03451E+04 -1.79342E+03 -1.12296E+04  5.83272E+03 -1.01425E+04  6.98226E+03 -3.68544E+03
  5.04300E+03  1.97445E+03 -1.18304E+03  2.16925E+03 -6.35290E+02 -3.68409E+03  2.36281E+03 -8.09337E+03
  1.08072E+04 -5.26615E+03  1.61582E+04  1.53976E+03  1.44863E+04  1.11098E+04  9.33338E+03  2.00147E+04
 -4.90822E+03  2.33455E+04 -1.97438E+04  1.74707E+04 -2.45772E+04  4.21616E+03 -1.99124E+04 -8.50001E+03
 -1.06004E+04 -1.71077E+04  1.49687E+01 -1.38945E+04  4.45835E+03 -7.40444E+03  5.17959E+03 -5.39978E+03
  3.96450E+03 -2.74290E+03  2.80803E+03 -4.53633E+03  6.06395E+03 -4.24542E+03  7.97123E+03 -1.78828E+03
  1.01148E+04  2.58642E+03  5.11104E+03  8.90174E+03 -2.82789E+03  1.08064E+04 -1.07507E+04  8.58281E+03
 -1.40489E+04 -1.62707E+03 -9.35544E+03 -9.49654E+03 -1.15072E+03 -1.56230E+04  8.79641E+03 -1.53261E+04
  1.59596E+04 -8.23723E+03  1.87747E+04  2.42551E+03  1.30049E+04  1.32756E+04  1.94719E+03  1.77768E+04
 -6.74649E+03  1.41540E+04 -1.02509E+04  4.73991E+03 -7.10793E+03 -1.76545E+03 -3.16721E+03 -1.33608E+03
 -1.09799E+03 -2.60366E+02 -2.06382E+03  2.65835E+03 -6.74949E+03  1.85418E+03 -9.24316E+03 -1.36543E+03
 -6.38819E+03 -9.36336E+03 -6.72258E+01 -1.43662E+04  8.60677E+03 -1.26639E+04  1.35094E+04 -4.52792E+03
  1.45440E+04  7.23345E+03  7.19398E+03  1.29512E+04 -2.74595E+03  1.43214E+04 -1.07972E+04  8.82245E+03
 -1.36327E+04  8.68838E+02 -9.76971E+03 -8.95261E+03 -1.59276E+03 -1.15193E+04  5.92778E+03 -8.73263E+03
  1.02651E+04 -3.26480E+03  6.78153E+03  2.99689E+03  2.38012E+03  4.57726E+03  1.08025E+03  2.54235E+03
  2.76750E+03  7.48961E+02  3.44261E+03  1.90812E+03  3.84802E+03  4.16930E+03  4.52625E+03  7.66271E+03
 -2.98924E+03  1.17059E+04 -1.00299E+04  1.17253E+04 -1.47244E+04  2.64741E+03 -1.56543E+04 -5.82451E+03
 -6.62766E+03 -1.42715E+04  2.28884E+03 -1.66082E+04  8.85207E+03 -1.01173E+04  1.21665E+04 -3.03657E+03
  9.41764E+03  6.34321E+03  2.93103E+03  7.97826E+03 -4.25247E+03  5.00363E+03 -5.41441E+03 -8.41154E+02
 -3.06781E+03 -6.06483E+03  3.71196E+03 -6.72088E+03  6.19143E+03 -3.00986E+03  6.13996E+03  2.42459E+03
  3.65114E+03  3.03815E+03  1.58640E+03  2.69298E+03 -1.20214E+03  2.26701E+03  2.20940E+03 -1.00494E+03
  1.76989E+03 -8.66726E+02  6.17422E+03  2.35519E+03  3.14973E+03  8.07367E+03 -1.10045E+03  1.08806E+04
 -7.76644E+03  6.66542E+03 -9.60111E+03  1.54056E+03 -8.56329E+03 -2.75598E+03 -2.88962E+03 -6.32294E+03
  9.45361E+02 -5.61570E+03  4.27239E+03 -2.86965E+03  3.52916E+03  3.42744E+03 -1.30791E+03  4.78721E+03
 -6.70847E+03  2.40807E+03 -7.95534E+03 -3.87533E+03 -4.03604E+03 -7.19486E+03  1.34019E+02 -7.96502E+03
  5.04095E+03 -5.44604E+03  6.09347E+03 -6.04256E+02  5.70730E+03  2.65582E+03  1.18618E+03  4.29358E+03
 -3.29467E+03  9.09244E+02 -3.59294E+03 -3.45169E+03  1.36497E+03 -6.71185E+03  7.49725E+03 -5.10708E+03
  9.38135E+03  1.00864E+03  8.92784E+03  6.33239E+03  2.82703E+03  9.39992E+03 -2.82015E+03  8.93780E+03
 -8.29796E+03  3.67047E+03 -7.93441E+03 -9.63127E+02 -4.09164E+03 -5.80744E+03  1.52786E+03 -6.72849E+03
  6.37367E+03 -3.15748E+03  5.06258E+03  2.50048E+03  1.02806E+03  5.72037E+03 -6.45964E+02  4.67989E+03
 -2.41623E+03  2.95733E+03 -2.41467E+03  1.12583E+03 -6.16524E+02  9.78195E+02 -1.18717E+03  2.14685E+03
 -2.43047E+03  3.78289E+03 -7.43702E+03  3.51032E+03 -9.71653E+03 -1.66899E+02 -1.11390E+04 -6.13975E+03
 -6.17393E+03 -1.27750E+04  2.33483E+03 -1.52077E+04  9.56332E+03 -1.20645E+04  1.33008E+04 -4.38660E+03
  1.35155E+04  1.73976E+03  7.86301E+03  9.37128E+03  8.30705E+02  1.05743E+04 -4.14004E+03  7.74635E+03
 -5.34529E+03  2.99617E+03 -4.16358E+03 -1.03840E+03 -1.72024E+03 -1.76082E+03 -9.78843E+02 -1.63195E+02
 -1.43106E+03  6.57155E+02 -2.00377E+03 -1.40561E+02 -6.67512E+02 -2.60891E+03  7.95305E+01 -4.24061E+03
  5.81293E+03 -2.88317E+03  5.85344E+03 -5.29867E+02  7.68345E+03  5.34212E+03  1.23187E+03  1.05632E+04
 -4.92889E+03  1.18236E+04 -1.12115E+04  6.42961E+03 -1.15640E+04 -8.87372E+02 -9.30096E+03 -8.13597E+03
 -3.87710E+03 -1.05605E+04  2.51230E+03 -9.47335E+03  6.25241E+03 -4.93848E+03  6.15336E+03  7.51093E+02
  3.79633E+03  3.83289E+03 -7.49702E+02  2.49867E+03 -1.55708E+03 -5.55635E+02  1.91620E+02 -2.46702E+03
  2.73061E+03 -1.17717E+03  3.44275E+03  1.34856E+03  3.04504E+03  3.53728E+03  5.36140E+02  4.74714E+03
 -5.08486E+03  5.28668E+03 -6.88519E+03  6.78414E+02 -6.86370E+03 -4.27205E+03 -1.16149E+03 -8.07242E+03
  5.07302E+03 -7.16306E+03  7.76045E+03 -1.62204E+03  7.75099E+03  2.20724E+03  4.47718E+03  5.86318E+03
  1.00721E+03  6.63990E+03 -2.57972E+03  6.01819E+03 -3.07342E+03  4.06447E+03 -3.08169E+03  7.08940E+02
 -1.85408E+03 -7.75760E+01 -1.80991E+03  7.05107E+02 -4.22545E+03  1.55822E+03 -5.54092E+03 -5.86781E+02
 -5.44419E+03 -4.05668E+03 -1.23465E+03 -7.17913E+03  3.16693E+03 -8.27324E+03  6.04744E+03 -3.21877E+03
  7.29388E+03  5.11548E+02  4.22185E+03  5.35584E+03  1.90240E+01  7.14551E+03 -5.11489E+03  4.71369E+03
