 $NMID ID='MM_0lb_SNR400_16hz_g40_13.RAW', FMTDAT='(8E13.5)'
 TRAMP=1., VOLUME=1. $END
  3.09711E+05  7.21753E+02  3.37520E+05  2.49874E+05  8.48032E+04  3.38009E+05 -1.32808E+05  2.50798E+05
 -1.89859E+05  8.18246E+04 -1.10979E+05 -3.24798E+04  1.45081E+03 -5.02225E+04  5.37184E+04  5.30767E+02
  3.45213E+04  5.31923E+04 -1.69959E+04  7.47970E+04 -6.05017E+04  6.29660E+04 -8.39348E+04  3.21637E+04
 -7.99599E+04 -1.09614E+04 -5.65620E+04 -4.99122E+04 -1.47093E+04 -6.81783E+04  2.68331E+04 -4.52328E+04
  3.93186E+04  4.29554E+03  1.54499E+04  4.74220E+04 -3.44552E+04  4.61990E+04 -6.57475E+04 -3.21597E+02
 -5.23842E+04 -5.59353E+04 -6.17593E+03 -7.52592E+04  3.29442E+04 -5.37175E+04  4.65292E+04 -1.65522E+04
  4.21300E+04  1.09288E+04  3.09899E+04  2.43974E+04  1.57598E+04  2.90670E+04 -4.74225E+03  2.74318E+04
 -2.14509E+04  1.26491E+04 -1.88556E+04 -4.27364E+03  4.56683E+03 -7.20893E+03  2.15650E+04  1.11698E+04
  6.92945E+03  3.42950E+04 -3.10837E+04  3.43923E+04 -6.16732E+04  1.94583E+03 -5.55164E+04 -4.19333E+04
 -1.25612E+04 -6.20364E+04  3.85068E+04 -4.37565E+04  5.64167E+04 -1.99693E+03  3.25805E+04  3.11163E+04
 -6.25543E+03  3.42995E+04 -2.91327E+04  1.41461E+04 -2.88014E+04 -5.52997E+03 -1.52227E+04 -9.71238E+03
 -7.28248E+03 -1.20517E+04 -1.20459E+03 -1.72632E+04  6.23294E+03 -2.28249E+04  1.53305E+04 -1.36384E+04
  1.20439E+04  4.31111E+03 -6.67985E+03  1.29604E+04 -1.94067E+04 -3.19664E+03 -7.68111E+03 -3.07195E+04
  2.15338E+04 -4.20393E+04  4.59445E+04 -1.86279E+04  4.28791E+04  1.85749E+04  1.49691E+04  4.21627E+04
 -1.57650E+04  3.17406E+04 -2.40122E+04  1.14184E+03 -8.40646E+03 -2.71180E+04  2.07599E+04 -3.20317E+04
  3.96761E+04 -7.81413E+03  3.28221E+04  2.27335E+04  1.64195E+04  4.35985E+04 -7.80699E+03  4.69760E+04
 -2.96355E+04  3.12552E+04 -3.86502E+04  8.74860E+03 -3.99719E+04 -1.57650E+04 -2.15488E+04 -3.55369E+04
  6.88748E+03 -3.48419E+04  3.00226E+04 -1.34919E+04  2.74883E+04  1.07579E+04  3.07912E+03  1.91253E+04
 -1.32705E+04  7.17091E+03 -1.02895E+04 -7.57148E+03  5.89393E+03 -9.84579E+03  1.77184E+04  6.13003E+03
  1.23440E+04  2.16839E+04 -6.59952E+03  2.39280E+04 -2.17368E+04  9.97956E+03 -2.60503E+04 -5.74240E+03
 -1.84584E+04 -1.63029E+04 -6.48495E+03 -1.75080E+04  3.81198E+03 -1.63781E+04  1.34305E+04 -1.55488E+04
  2.26733E+04 -1.16123E+04  2.97702E+04  1.49823E+03  2.23979E+04  1.72319E+04  3.97281E+03  3.35525E+04
 -1.60686E+04  2.79654E+04 -2.68901E+04  9.70383E+03 -1.99919E+04 -1.06570E+04 -4.18480E+03 -1.40553E+04
  2.42922E+03 -3.97608E+03 -3.38248E+03  5.79837E+03 -1.43261E+04  4.71133E+03 -1.41871E+04 -5.33780E+03
 -8.83297E+03 -1.73818E+04  4.46886E+03 -2.06231E+04  1.39691E+04 -1.52178E+04  1.60343E+04 -1.39421E+03
  9.40789E+03  1.15803E+04 -1.11200E+03  1.70463E+04 -1.09110E+04  9.53746E+03 -1.65739E+04 -3.37908E+03
 -1.25427E+04 -1.47335E+04 -1.56008E+03 -2.00489E+04  9.07334E+03 -1.61503E+04  1.70866E+04 -8.26701E+03
  1.59048E+04  1.09533E+03  1.15055E+04  4.58559E+03  6.00367E+03  4.65091E+02  8.73507E+03 -1.33292E+03
  1.54656E+04  2.68604E+03  1.67644E+04  1.40243E+04  1.05494E+04  2.68873E+04 -2.35175E+03  2.92531E+04
 -1.72242E+04  2.27241E+04 -2.77099E+04  1.11853E+04 -2.77923E+04 -2.31764E+03 -2.33606E+04 -1.60088E+04
 -1.05855E+04 -2.33842E+04  7.27726E+03 -2.16574E+04  1.88526E+04 -1.15963E+04  1.69499E+04  3.58671E+03
  6.77587E+03  1.23122E+04 -7.82863E+03  1.12913E+04 -1.40479E+04  2.70140E+03 -1.09300E+04 -9.23280E+03
  7.21885E+01 -1.36049E+04  6.92549E+03 -1.04155E+04  8.91712E+03 -1.50382E+03  1.17237E+03  5.95093E+03
 -5.86750E+03  1.93257E+03 -4.37793E+03 -4.80510E+03  1.58228E+02 -1.18261E+04  8.44071E+03 -1.15457E+04
  1.37262E+04 -5.31274E+03  1.40675E+04  3.05553E+03  1.23670E+04  1.07491E+04  6.03770E+03  1.71569E+04
 -2.33744E+03  1.82305E+04 -1.10013E+04  1.15504E+04 -1.34136E+04  2.98063E+03 -9.83979E+03 -2.04089E+03
 -5.17715E+03 -3.77094E+03 -4.62977E+02  1.76241E+03 -1.94491E+03  1.98020E+03 -3.86356E+03  3.74688E+03
 -8.71991E+03 -9.49575E+02 -9.79715E+03 -7.62023E+03 -3.94862E+03 -1.29394E+04  3.94766E+03 -9.84169E+03
  8.02615E+03 -3.58325E+03  5.33068E+03  2.44910E+03  1.05220E+03  3.74323E+03 -4.33576E+03  2.72197E+02
 -4.13828E+03 -6.37511E+03 -8.29205E+02 -8.37286E+03  4.34953E+03 -8.92454E+03  1.09813E+04 -4.78903E+03
  1.30748E+04  1.38007E+03  1.01642E+04  7.80847E+03  2.47600E+03  1.03890E+04 -6.04894E+03  9.25411E+03
 -8.38982E+03  3.17593E+03 -4.20665E+03 -1.82598E+03  1.04489E+03 -2.31573E+03  4.57179E+03 -6.66672E+02
  4.16165E+03  3.44982E+03  6.85211E+02  6.66223E+03 -5.14769E+03  7.21781E+03 -9.36744E+03  2.15547E+03
 -5.72191E+03 -4.52203E+03  8.10117E+02 -7.47554E+03  4.51497E+03 -4.00218E+03  4.43036E+03  8.13074E+02
 -4.18858E+01  3.77307E+03 -4.30318E+03  6.80167E+03 -6.37234E+03  2.79951E+03 -5.61007E+03 -1.98126E+03
 -4.16256E+03 -6.44596E+03  2.00036E+03 -8.81429E+03  7.93091E+03 -5.55486E+03  8.73341E+03  1.38068E+03
  5.28733E+03  6.81267E+03 -5.74240E+02  8.72727E+03 -6.02080E+03  4.75169E+03 -5.80255E+03 -2.25918E+02
 -6.84124E+03 -5.66605E+03 -1.83149E+03 -5.77696E+03  3.32295E+03 -6.31491E+03  3.63460E+03 -2.94463E+03
  3.40451E+03  2.58617E+02 -1.05407E+02  7.81940E+02  1.26608E+02 -6.44228E+02  1.89231E+02 -2.63909E+03
  5.17365E+03 -6.90673E+02  6.91583E+03  1.13607E+03  7.54699E+03  4.41690E+03  6.08744E+03  9.01861E+03
 -1.96383E+03  1.08893E+04 -9.25634E+03  7.97539E+03 -1.23608E+04  1.78485E+03 -1.00634E+04 -3.56316E+03
 -4.90565E+03 -7.89720E+03 -2.59136E+02 -6.78407E+03  2.48235E+03 -2.92137E+03  2.71336E+03 -3.21223E+03
  1.66654E+03 -1.83067E+03  2.41075E+03 -2.48497E+03  3.77387E+03 -1.58535E+03  4.11041E+03 -2.36518E+02
  5.36822E+03  9.39090E+02  1.88919E+03  4.24892E+03 -1.35056E+03  4.58424E+03 -5.72063E+03  3.89796E+03
 -6.14003E+03 -7.86897E+02 -3.10622E+03 -3.81443E+03  4.06220E+02 -6.90392E+03  3.70252E+03 -6.94059E+03
  6.47893E+03 -4.03661E+03  8.13382E+03  3.26888E+02  6.17090E+03  5.41077E+03  9.30038E+02  8.33072E+03
 -2.62702E+03  6.86578E+03 -4.50363E+03  2.29049E+03 -2.68060E+03 -9.62288E+02 -8.44538E+02 -8.03988E+02
 -2.68190E+02 -1.88502E+02 -8.51693E+02  2.30751E+03 -3.04796E+03  1.27614E+03 -4.92433E+03 -7.22678E+02
 -1.45272E+03 -4.18014E+03  8.99068E+02 -6.41941E+03  3.20208E+03 -5.66392E+03  5.73126E+03 -1.84736E+03
  6.10555E+03  2.70619E+03  3.18323E+03  4.66085E+03 -1.05727E+03  6.14311E+03 -3.68932E+03  3.18833E+03
 -5.12027E+03  4.82550E+02 -4.08531E+03 -3.31712E+03 -2.78243E+02 -4.55637E+03  2.47878E+03 -3.49732E+03
  3.83290E+03 -1.93006E+03  2.68111E+03  8.68109E+02  9.12992E+02  1.42382E+03  1.07655E+03  7.94160E+02
  2.04144E+03  6.14336E+02  1.39947E+03  1.46224E+03  1.25481E+03  2.19265E+03  1.54738E+03  2.12621E+03
 -2.08717E+03  4.51154E+03 -3.30924E+03  4.98642E+03 -5.18374E+03  1.89805E+03 -5.50865E+03 -1.68575E+03
 -2.95371E+03 -5.48203E+03  1.74894E+02 -6.40778E+03  2.97361E+03 -3.51158E+03  4.73683E+03 -1.15472E+03
  3.29752E+03  1.65280E+03  4.08947E+02  2.94090E+03 -1.33999E+03  2.26790E+03 -1.50789E+03 -1.23110E+03
 -3.71838E+02 -1.74853E+03  1.24294E+03 -1.87053E+03  1.59976E+03 -1.33447E+03  2.02832E+03  7.14457E+02
  1.63871E+03  8.84913E+02  3.79303E+02 -6.05466E+02 -1.73800E+02  9.09602E+02  1.84996E+03 -2.68875E+02
 -1.20053E+02 -8.66000E+02  2.51827E+03  5.03000E+02  1.28425E+03  2.80593E+03 -6.47171E+02  3.47373E+03
 -2.60820E+03  2.10103E+03 -3.44442E+03  6.99087E+02 -2.34194E+03 -1.00927E+03 -7.18377E+02 -1.63170E+03
  6.50690E+02 -1.39795E+03  8.11897E+02 -1.21901E+03  1.12110E+03  1.81563E+03 -1.05947E+03  1.29944E+03
 -1.91340E+03  1.25174E+03 -1.91487E+03 -1.90712E+03 -1.37749E+03 -2.61758E+03  1.36424E+02 -2.02405E+03
  7.51813E+02 -8.61227E+02  1.09563E+03  2.52351E+02  1.79234E+03  5.21317E+02  1.50445E+02  1.58225E+03
 -7.30018E+02  1.14178E+02 -1.72434E+03 -6.61563E+02  7.65282E+02 -1.79660E+03  3.27240E+03 -1.72037E+03
  2.12010E+03 -1.46198E+02  3.76887E+03  1.26141E+03  1.79865E+03  2.80232E+03 -1.30836E+03  2.94421E+03
 -2.13550E+03  9.38945E+02 -2.40755E+03 -5.96632E+02 -1.08690E+03 -2.13863E+03  7.36014E+02 -9.45265E+02
  2.52306E+03 -6.89216E+02  1.41617E+03  1.14838E+03  7.38491E+02  2.02246E+03 -9.90138E+01  1.67974E+03
 -7.75939E+02  1.53359E+03 -1.04465E+03  3.78471E+02 -1.43260E+01  6.08479E+02 -6.95548E+02  8.97452E+02
 -5.59376E+02  1.39295E+03 -2.18152E+03  6.68926E+02 -3.03587E+03  4.72357E+02 -3.78950E+03 -2.15503E+03
 -1.60386E+03 -3.92410E+03  7.44654E+02 -5.24844E+03  1.77419E+03 -3.48005E+03  3.75509E+03 -1.71370E+03
  2.91962E+03  7.69841E+02  1.70602E+03  2.93973E+03 -1.56461E+02  2.57581E+03 -9.03509E+02  2.19566E+03
 -1.20509E+03  1.04657E+03 -5.25420E+02 -5.55469E+02  2.50354E+02  1.60626E+02 -8.79793E+02  2.26065E+02
 -1.50049E+03  4.51889E+02 -1.08029E+03 -2.33190E+02  3.10157E+02 -1.97857E+02 -5.05278E+02 -8.38207E+02
  1.67400E+03 -7.54666E+02  1.56224E+03  6.31145E+01  2.04278E+03  1.68252E+03  3.96775E+02  2.16497E+03
 -1.27437E+03  3.16841E+03 -2.42300E+03  2.21907E+03 -2.69857E+03  1.65370E+02 -2.24717E+03 -1.61197E+03
 -1.30445E+03 -2.35314E+03 -1.26224E+02 -2.27038E+03  1.11768E+03 -6.50591E+02  9.61877E+02  3.97943E+01
  1.86605E+03  2.95463E+02  4.86932E+02  6.96229E+02 -2.68726E+02 -4.14697E+02 -1.26765E+02 -2.54818E+02
  1.01602E+03  9.42976E+01  6.63104E+02  2.32017E+02  2.34864E+02  1.03428E+03  1.12503E+03  7.88645E+02
 -1.19676E+03  9.28114E+02 -1.30769E+03  2.63769E+00 -1.41658E+03 -7.76699E+02 -4.45720E+01 -2.50920E+03
  1.28669E+03 -1.29762E+03  1.34012E+03 -1.80833E+02  1.65638E+03 -1.73249E+02  8.85610E+02  1.63105E+03
  8.32526E+02  8.39703E+02 -7.70950E+02  1.45797E+03 -1.13954E+03  3.53242E+02 -7.48607E+02  4.85337E+02
 -5.18354E+02 -2.03360E+02 -6.90877E+02  4.68451E+02 -8.51244E+02 -5.05932E+02 -8.81401E+02 -8.80815E+02
 -1.44130E+03 -5.92650E+02 -3.59898E+02 -2.00997E+03  9.87844E+02 -2.21162E+03  1.34451E+03 -3.36427E+02
  1.36993E+03  7.37536E+02  3.71387E+02  1.19841E+03  1.58251E+02  1.23996E+03 -1.25942E+03  6.63474E+02
