 $NMID ID='MM_0lb_SNR400_20hz_g45_50.RAW', FMTDAT='(8E13.5)'
 TRAMP=1., VOLUME=1. $END
  3.09695E+05  6.43770E+02  3.37273E+05  2.50587E+05  8.44696E+04  3.37059E+05 -1.32687E+05  2.50220E+05
 -1.89764E+05  8.20949E+04 -1.10573E+05 -3.33095E+04  1.38746E+03 -5.01147E+04  5.40033E+04 -2.71482E+02
  3.51542E+04  5.29834E+04 -1.68484E+04  7.45961E+04 -6.03815E+04  6.22501E+04 -8.19985E+04  3.14098E+04
 -7.91782E+04 -1.13928E+04 -5.56614E+04 -4.96859E+04 -1.53603E+04 -6.73169E+04  2.66828E+04 -4.41878E+04
  3.86713E+04  4.02609E+03  1.53050E+04  4.68029E+04 -3.43981E+04  4.57900E+04 -6.49256E+04 -3.95619E+02
 -5.19913E+04 -5.51348E+04 -6.19745E+03 -7.50593E+04  3.25785E+04 -5.27762E+04  4.59396E+04 -1.64484E+04
  4.09156E+04  1.08074E+04  3.04389E+04  2.41085E+04  1.54659E+04  2.78027E+04 -4.12008E+03  2.61887E+04
 -2.14894E+04  1.31792E+04 -1.99126E+04 -3.00815E+03  4.26879E+03 -7.68325E+03  2.07124E+04  1.04564E+04
  7.64866E+03  3.25434E+04 -3.01827E+04  3.39814E+04 -6.07268E+04  2.27682E+03 -5.44204E+04 -4.07727E+04
 -1.26149E+04 -5.98627E+04  3.72272E+04 -4.29940E+04  5.44830E+04 -2.02529E+03  3.10693E+04  2.99870E+04
 -6.39925E+03  3.21293E+04 -2.77245E+04  1.26694E+04 -2.67282E+04 -5.76361E+03 -1.38669E+04 -9.82855E+03
 -7.17678E+03 -1.06191E+04 -1.30916E+03 -1.58294E+04  6.49090E+03 -2.21395E+04  1.52205E+04 -1.42820E+04
  1.19578E+04  3.93011E+03 -5.30955E+03  1.30234E+04 -1.90310E+04 -1.68208E+03 -7.89958E+03 -2.95896E+04
  2.03026E+04 -3.91604E+04  4.35698E+04 -1.82500E+04  4.11557E+04  1.73917E+04  1.33920E+04  4.09416E+04
 -1.51914E+04  3.07507E+04 -2.27465E+04  4.94134E+02 -7.40648E+03 -2.55989E+04  2.01207E+04 -3.01718E+04
  3.70430E+04 -6.93575E+03  2.92718E+04  2.23568E+04  1.46876E+04  4.11401E+04 -7.97762E+03  4.30791E+04
 -2.71348E+04  2.87383E+04 -3.57003E+04  8.14118E+03 -3.69654E+04 -1.48150E+04 -2.05769E+04 -3.34576E+04
  6.74459E+03 -3.27910E+04  2.81403E+04 -1.18215E+04  2.58893E+04  1.04679E+04  2.60538E+03  1.74254E+04
 -1.29704E+04  6.74130E+03 -8.92357E+03 -7.90594E+03  6.25883E+03 -1.01526E+04  1.67925E+04  6.82635E+03
  1.18829E+04  2.15832E+04 -6.91190E+03  2.26393E+04 -2.12128E+04  8.47443E+03 -2.40343E+04 -6.72950E+03
 -1.56396E+04 -1.64442E+04 -4.92732E+03 -1.53854E+04  3.56258E+03 -1.33899E+04  1.16839E+04 -1.30756E+04
  1.98166E+04 -1.08556E+04  2.65633E+04  4.66040E+02  2.03313E+04  1.49810E+04  4.43327E+03  3.06789E+04
 -1.57387E+04  2.61949E+04 -2.48825E+04  8.94619E+03 -1.92817E+04 -1.02635E+04 -4.11672E+03 -1.40923E+04
  2.77699E+03 -4.53613E+03 -1.85182E+03  4.99024E+03 -1.19875E+04  5.62801E+03 -1.29072E+04 -4.29614E+03
 -8.48102E+03 -1.46193E+04  4.29158E+03 -1.81787E+04  1.18498E+04 -1.32659E+04  1.32255E+04 -1.60815E+03
  8.45409E+03  1.00714E+04 -5.59337E+02  1.49569E+04 -9.44074E+03  7.69186E+03 -1.39354E+04 -3.05708E+03
 -1.07725E+04 -1.28380E+04 -7.12633E+02 -1.79606E+04  7.64414E+03 -1.41700E+04  1.47224E+04 -7.01083E+03
  1.36864E+04  5.99773E+02  9.80880E+03  3.74436E+03  4.84223E+03  7.95085E+02  6.97821E+03 -1.03441E+03
  1.27723E+04  2.94286E+03  1.34709E+04  1.17264E+04  7.81423E+03  2.28520E+04 -2.98601E+03  2.42999E+04
 -1.43299E+04  1.74438E+04 -2.20025E+04  8.65015E+03 -2.24380E+04 -2.18353E+03 -1.97496E+04 -1.27378E+04
 -9.71544E+03 -1.81295E+04  6.15063E+03 -1.74251E+04  1.52538E+04 -1.02460E+04  1.43641E+04  3.22699E+03
  6.40560E+03  1.06061E+04 -6.86992E+03  9.73634E+03 -1.27328E+04  2.48385E+03 -9.46144E+03 -7.56317E+03
  1.73764E+02 -1.13456E+04  6.21195E+03 -8.76985E+03  6.93368E+03 -1.12349E+03  9.58435E+02  4.39703E+03
 -5.98533E+03  5.80345E+02 -2.70112E+03 -4.48427E+03  1.03418E+03 -8.48283E+03  7.36055E+03 -8.83715E+03
  1.08977E+04 -3.71838E+03  1.06751E+04  2.14580E+03  8.38646E+03  8.22034E+03  4.30043E+03  1.20053E+04
 -9.52544E+02  1.38073E+04 -8.39868E+03  8.88225E+03 -9.63766E+03  2.85242E+03 -7.97665E+03 -1.24103E+03
 -4.86996E+03 -2.49720E+03 -4.88993E+02  1.46268E+03 -2.23146E+03  1.82910E+03 -3.13248E+03  3.16136E+03
 -6.85845E+03 -8.79070E+02 -8.26763E+03 -6.71506E+03 -2.79359E+03 -1.04959E+04  3.08898E+03 -7.90391E+03
  6.59474E+03 -3.63778E+03  4.79577E+03  1.89519E+03  7.67802E+01  2.66790E+03 -3.15080E+03 -3.63289E+02
 -3.18450E+03 -4.95151E+03 -4.00989E+02 -6.25106E+03  3.32711E+03 -6.74002E+03  8.79624E+03 -3.47550E+03
  1.06999E+04  1.41973E+02  7.96168E+03  5.65746E+03  1.97667E+03  7.50093E+03 -4.91673E+03  8.09769E+03
 -6.11303E+03  2.00623E+03 -2.99932E+03 -1.33071E+03  1.42491E+03 -1.38252E+03  4.31104E+03 -1.20039E+03
  3.98934E+03  2.58739E+03  6.40437E+02  5.69465E+03 -3.70325E+03  5.71563E+03 -6.86716E+03  1.33401E+03
 -3.92996E+03 -2.67962E+03  4.96976E+02 -5.24020E+03  3.18703E+03 -2.81429E+03  2.98630E+03  7.48450E+02
  2.88867E+02  2.56151E+03 -3.43966E+03  4.18480E+03 -3.44876E+03  1.55530E+03 -3.23569E+03 -1.01391E+03
 -2.80831E+03 -4.68263E+03  7.02749E+02 -6.06562E+03  4.85875E+03 -3.56361E+03  5.36566E+03  7.27694E+02
  3.87214E+03  4.36770E+03 -4.96908E+01  6.40069E+03 -4.66507E+03  3.66565E+03 -4.80035E+03 -1.76088E+01
 -5.15652E+03 -4.45503E+03 -1.30462E+03 -4.15925E+03  2.32548E+03 -4.22428E+03  2.46832E+03 -3.05243E+03
  2.25417E+03  2.45838E+01 -2.10395E+02  1.29271E+03  7.48680E+02 -3.86284E+02 -2.47559E+02 -9.46079E+02
  3.20888E+03 -7.56496E+02  4.21277E+03  1.19694E+03  4.55549E+03  1.93835E+03  5.22622E+03  5.30848E+03
 -7.48912E+02  6.88548E+03 -6.59028E+03  5.33363E+03 -8.03046E+03  1.01787E+03 -6.40403E+03 -1.67539E+03
 -3.12244E+03 -5.75166E+03 -7.21084E+02 -4.79737E+03  1.89642E+03 -1.78297E+03  1.55295E+03 -2.35758E+03
  4.11838E+02 -7.81615E+02  1.87701E+03 -2.17365E+03  3.10318E+03 -1.58232E+03  3.41959E+03  9.46508E+01
  3.60475E+03  1.11770E+03  9.14031E+02  3.00032E+03 -1.48033E+03  1.77879E+03 -3.64361E+03  2.22720E+03
 -4.22837E+03 -8.41299E+02 -1.31969E+03 -2.60601E+03  3.65995E+02 -3.95019E+03  2.45473E+03 -4.13953E+03
  4.28109E+03 -2.39671E+03  6.26758E+03 -4.84555E+02  4.02808E+03  3.54296E+03  1.21138E+03  4.68182E+03
 -2.42176E+03  5.01715E+03 -2.77319E+03  1.75688E+03 -1.24063E+03 -9.41431E+02 -2.47490E+02 -2.72551E+02
 -4.64329E+02  7.71555E+02 -1.11269E+03  2.20875E+03 -2.36630E+03  7.88314E+02 -2.94189E+03 -4.74624E+02
 -1.06290E+03 -3.40158E+03  1.05332E+03 -3.58996E+03  1.93032E+03 -3.16781E+03  2.44265E+03 -7.47987E+02
  2.92610E+03  2.17575E+03  1.29765E+03  2.87711E+03 -9.86492E+02  3.29464E+03 -1.76531E+03  2.16075E+03
 -2.98502E+03  5.02497E+02 -2.97411E+03 -1.99122E+03  3.92344E+02 -1.96566E+03  1.84432E+03 -1.69378E+03
  2.17095E+03 -1.34858E+03  8.88293E+02  5.30454E+01 -7.84058E+01  1.31709E+03  9.29464E+02  6.27188E+02
  1.97174E+03  3.30332E+02  9.44203E+02  1.43229E+03  2.97982E+02  2.02974E+03  8.99992E+02  1.17976E+03
 -8.62545E+02  2.07061E+03 -1.79791E+03  3.05384E+03 -1.82730E+03  1.32180E+03 -3.34103E+03 -3.83763E+02
 -8.71860E+02 -2.88711E+03 -7.35427E+01 -3.76153E+03  1.46674E+03 -1.83944E+03  2.07786E+03 -1.43703E+03
  1.91563E+03  1.81779E+03  3.58895E+02  1.64073E+03 -2.72937E+02  8.96039E+02 -3.44478E+02 -9.92686E-01
 -4.53971E+02 -1.74608E+03  5.52016E+02 -1.38443E+03  1.11741E+03 -1.26988E+03  1.14268E+03  2.39348E+02
  1.98069E+02  3.99020E+01  8.93072E+02 -1.98249E+02  3.00358E+01  9.20839E+02  1.37381E+03 -1.78967E+02
 -3.20949E+02  1.10292E+02  1.40179E+03  3.00363E+02  7.29100E+01  2.29026E+03 -6.58588E+02  2.13094E+03
 -1.05574E+03  1.06511E+02 -1.37462E+03  5.13095E+01 -1.29387E+03 -8.77925E+02  2.22595E+02 -2.01121E+02
  1.01102E+03 -3.48679E+02  8.74728E+02 -8.29421E+02  2.48708E+02  1.02354E+03 -6.71454E+02  7.40575E+02
 -1.36703E+03  4.82527E+02 -1.44795E+03 -1.26148E+03 -1.13920E+03 -1.52732E+03 -2.93322E+01 -1.29396E+03
  9.10377E+01 -6.69737E+02  7.32264E+02  1.47224E+02  5.20502E+02 -4.12899E+02  6.90063E+02  7.97592E+02
 -3.62193E+01 -7.13475E+00 -4.56518E+02 -4.62256E+02  9.68037E+02 -4.73795E+02  1.47575E+03 -4.44147E+02
  9.40195E+02 -8.80619E+01  1.99600E+03  3.42518E+02  8.64897E+02  1.31250E+03  5.74544E+02  1.18972E+03
 -6.29799E+02 -1.96126E+02 -8.75231E+02 -2.71059E+02 -5.99320E+02 -4.36863E+02  2.69468E+02 -2.34008E+02
  1.67703E+03 -9.48983E+02  3.38336E+02  3.28849E+02  4.19024E+02  1.16268E+03  5.02720E+02  8.58453E+02
 -1.12939E+02  6.24121E+02 -4.75595E+02 -1.21714E+02  2.58072E+02 -2.70518E+01 -8.91177E+02  8.09289E+02
 -4.89007E+02  9.62585E+02 -1.57651E+03  3.48572E+02 -8.30939E+02  4.33096E+02 -2.30797E+03 -1.19760E+03
 -9.34620E+02 -1.70722E+03  3.59479E+02 -1.96216E+03 -2.15143E+01 -2.10538E+03  2.47888E+03 -6.30022E+02
  1.97347E+03 -1.95720E+02  7.94624E+02  4.34305E+02 -4.51692E+02  1.10297E+03 -1.15595E+02  1.09365E+03
 -1.08180E+03 -1.04521E+01 -7.78492E+02  1.53459E+02 -3.30911E+02  2.52458E+01 -8.52042E+02  7.05354E+02
 -1.13951E+03 -1.30417E+02 -6.98585E+02  3.77489E+02  6.33346E+01 -4.11473E+02 -6.61260E+02 -8.34612E+02
  1.01729E+03 -3.35887E+02 -3.36267E+02  9.53203E+02  8.65797E+02  7.46725E+02 -9.22822E+02  8.31993E+02
 -6.44698E+02  2.03843E+03 -1.05178E+03  8.92993E+02 -1.40337E+03 -2.00848E+02 -8.37646E+02 -6.14611E+02
 -8.64211E+02 -1.18499E+03  1.62932E+02 -8.10925E+02  2.76541E+02 -6.95202E+02  1.02989E+03  3.06303E+01
  8.00582E+02  1.26970E+02  3.73772E+02  2.58947E+02 -4.94030E+02 -3.31430E+02  4.45166E+01 -3.99145E+02
 -2.46918E+02 -3.81123E+00  8.13539E+02  3.34943E+02 -5.28831E+02  6.09025E+02  4.49622E+02 -2.39094E+02
 -7.86179E+02  5.13890E+01  1.00420E+01 -8.00819E+00 -8.85212E+02 -4.55004E+02  1.80057E+02 -5.67125E+02
 -2.78136E+01 -1.89806E+02  6.11660E+02  2.75509E+02  4.10050E+02 -8.83905E+02 -3.86020E+02  4.65671E+02
  1.89309E+02  1.00735E+02 -1.63614E+02  1.48317E+02 -1.91658E+02  6.18465E+02 -2.22917E+02  3.96520E+02
  1.21579E+02 -1.83749E+02 -3.26391E+02  3.40331E+02 -3.98752E+02 -3.89193E+02 -5.45136E+02 -3.76976E+02
 -1.03878E+03  6.33649E+02 -6.18780E+02 -2.04148E+02  1.01770E+03 -1.15672E+03  5.25354E+02 -4.00588E+01
  8.26294E+01  3.50964E+01 -1.19855E+03  2.96822E+02 -3.91494E+02  6.14967E+02 -2.99362E+02  7.80292E+02
