 $NMID ID='MM_0lb_SNR400_16hz_g50_30.RAW', FMTDAT='(8E13.5)'
 TRAMP=1., VOLUME=1. $END
  3.09716E+05  4.60794E+02  3.37487E+05  2.50758E+05  8.49625E+04  3.37720E+05 -1.32636E+05  2.51494E+05
 -1.89888E+05  8.29183E+04 -1.11865E+05 -3.25753E+04  9.55333E+02 -5.04466E+04  5.36723E+04 -1.08835E+02
  3.57480E+04  5.33937E+04 -1.65844E+04  7.47208E+04 -6.02460E+04  6.33877E+04 -8.39057E+04  3.21012E+04
 -8.04592E+04 -1.14350E+04 -5.72884E+04 -5.06029E+04 -1.56065E+04 -6.89208E+04  2.74176E+04 -4.48994E+04
  3.94806E+04  3.79869E+03  1.59693E+04  4.77851E+04 -3.39423E+04  4.65981E+04 -6.59752E+04 -5.04019E+02
 -5.27990E+04 -5.66642E+04 -6.71732E+03 -7.61785E+04  3.33691E+04 -5.40064E+04  4.74070E+04 -1.69174E+04
  4.30707E+04  1.13084E+04  3.09483E+04  2.49682E+04  1.57294E+04  2.90679E+04 -5.27188E+03  2.70240E+04
 -2.16373E+04  1.26492E+04 -1.85636E+04 -4.69922E+03  5.10658E+03 -7.47755E+03  2.22109E+04  1.17582E+04
  7.39652E+03  3.39907E+04 -3.12323E+04  3.53275E+04 -6.27851E+04  2.46718E+03 -5.60683E+04 -4.21632E+04
 -1.22687E+04 -6.21139E+04  3.90436E+04 -4.45338E+04  5.71438E+04 -1.08652E+03  3.36780E+04  3.11316E+04
 -6.41545E+03  3.48409E+04 -2.94307E+04  1.46759E+04 -2.94285E+04 -4.71263E+03 -1.53654E+04 -9.99625E+03
 -8.00960E+03 -1.23030E+04 -5.44142E+02 -1.77151E+04  6.67899E+03 -2.31005E+04  1.50889E+04 -1.40055E+04
  1.16256E+04  5.15573E+03 -7.41883E+03  1.25062E+04 -2.10332E+04 -4.07039E+03 -8.43553E+03 -3.22477E+04
  2.15548E+04 -4.19584E+04  4.67232E+04 -1.89353E+04  4.43333E+04  1.88321E+04  1.48954E+04  4.30529E+04
 -1.61330E+04  3.26760E+04 -2.55827E+04  1.39867E+03 -9.92855E+03 -2.72140E+04  2.05720E+04 -3.27357E+04
  3.96893E+04 -8.57580E+03  3.35459E+04  2.36681E+04  1.72370E+04  4.49177E+04 -8.15187E+03  4.87716E+04
 -3.08604E+04  3.23696E+04 -4.03249E+04  8.30261E+03 -4.07088E+04 -1.55292E+04 -2.28227E+04 -3.69852E+04
  7.11472E+03 -3.68064E+04  3.10975E+04 -1.40333E+04  2.83415E+04  1.11210E+04  3.55960E+03  1.83900E+04
 -1.34074E+04  7.45356E+03 -1.01692E+04 -7.68220E+03  5.59905E+03 -1.06755E+04  1.82880E+04  5.74799E+03
  1.28891E+04  2.21188E+04 -6.47669E+03  2.41085E+04 -2.20042E+04  1.03125E+04 -2.64662E+04 -5.18745E+03
 -1.86868E+04 -1.67669E+04 -7.32224E+03 -1.93069E+04  4.29399E+03 -1.74153E+04  1.46021E+04 -1.66362E+04
  2.41251E+04 -1.29383E+04  3.05685E+04  1.33221E+03  2.34337E+04  1.86861E+04  4.05556E+03  3.42302E+04
 -1.68644E+04  2.95294E+04 -2.65979E+04  1.01981E+04 -2.02445E+04 -1.03980E+04 -4.52712E+03 -1.39493E+04
  2.27843E+03 -3.44249E+03 -4.13929E+03  5.94953E+03 -1.43792E+04  5.26290E+03 -1.52024E+04 -5.56957E+03
 -9.23249E+03 -1.77829E+04  5.00392E+03 -2.17262E+04  1.39484E+04 -1.53365E+04  1.68008E+04 -1.42788E+03
  1.09167E+04  1.13920E+04 -1.14335E+03  1.71161E+04 -1.24509E+04  1.01070E+04 -1.77303E+04 -3.27287E+03
 -1.32175E+04 -1.55775E+04 -1.66643E+03 -2.18734E+04  9.90649E+03 -1.76845E+04  1.83721E+04 -8.60317E+03
  1.62519E+04  5.48262E+02  1.19433E+04  4.04214E+03  5.18328E+03  3.74773E+02  8.61387E+03 -1.72132E+03
  1.60265E+04  3.00344E+03  1.68329E+04  1.34703E+04  1.20520E+04  2.75998E+04 -3.46016E+03  3.08935E+04
 -1.82264E+04  2.43104E+04 -2.85332E+04  1.19490E+04 -2.97272E+04 -1.97742E+03 -2.51018E+04 -1.72018E+04
 -1.12133E+04 -2.45380E+04  8.42239E+03 -2.25983E+04  1.93141E+04 -1.12882E+04  1.76426E+04  5.35468E+03
  7.52195E+03  1.30800E+04 -7.49030E+03  1.16915E+04 -1.49334E+04  1.95721E+03 -1.21117E+04 -9.55661E+03
 -1.73718E+02 -1.37365E+04  6.99891E+03 -1.02553E+04  9.36832E+03 -1.72764E+03  1.45834E+03  5.63543E+03
 -6.23886E+03  1.87660E+03 -4.26650E+03 -4.81445E+03  2.71107E+02 -1.20653E+04  8.67463E+03 -1.24728E+04
  1.46837E+04 -6.27516E+03  1.53636E+04  3.09926E+03  1.33325E+04  1.14827E+04  5.98304E+03  1.75254E+04
 -2.24474E+03  1.88597E+04 -1.17789E+04  1.26573E+04 -1.35324E+04  2.91374E+03 -9.45374E+03 -2.95188E+03
 -5.02873E+03 -4.72353E+03 -6.84733E+02  9.28806E+02 -2.45998E+03  2.46946E+03 -4.91386E+03  3.97846E+03
 -9.67954E+03 -4.33019E+02 -1.01863E+04 -8.21278E+03 -4.28069E+03 -1.31982E+04  4.03861E+03 -1.00800E+04
  8.27318E+03 -4.01928E+03  6.17464E+03  2.69814E+03  6.57314E+02  3.75580E+03 -4.84026E+03  1.21522E+02
 -4.59382E+03 -6.28999E+03 -7.99992E+02 -8.56720E+03  4.89800E+03 -9.59096E+03  1.19617E+04 -5.53170E+03
  1.41498E+04  1.08193E+03  1.04325E+04  7.48995E+03  2.59691E+03  1.12900E+04 -6.03127E+03  1.00517E+04
 -8.03335E+03  3.25808E+03 -4.10907E+03 -2.25542E+03  1.86881E+03 -2.45024E+03  5.27743E+03 -9.88781E+02
  4.81205E+03  4.78163E+03  1.40588E+03  7.72351E+03 -5.49812E+03  7.52261E+03 -1.02084E+04  1.89409E+03
 -6.11687E+03 -5.06992E+03  7.69833E+02 -7.81017E+03  5.29362E+03 -4.35477E+03  4.63545E+03  1.71336E+03
  4.99078E+02  4.87625E+03 -5.12083E+03  6.29556E+03 -6.39186E+03  3.38357E+03 -5.99479E+03 -1.51498E+03
 -4.54031E+03 -7.52321E+03  2.04251E+03 -9.66785E+03  7.70162E+03 -6.22375E+03  9.02291E+03  1.64466E+03
  5.53010E+03  7.27566E+03 -1.23854E+01  8.50617E+03 -6.15383E+03  5.15705E+03 -6.61237E+03 -6.63015E+02
 -6.56614E+03 -6.49230E+03 -1.38429E+03 -5.96657E+03  3.12434E+03 -5.69913E+03  3.51536E+03 -2.82535E+03
  3.37643E+03  6.79815E+02  4.90587E+02  1.53376E+03  5.11858E+02 -7.01619E+02  6.82516E+02 -3.02780E+03
  6.00138E+03 -1.71549E+03  7.87300E+03  8.33916E+02  7.84776E+03  5.41267E+03  6.53945E+03  1.00157E+04
 -2.24680E+03  1.09905E+04 -9.80403E+03  8.65583E+03 -1.30132E+04  1.35558E+03 -1.02247E+04 -3.51141E+03
 -5.25377E+03 -8.89431E+03 -6.43319E+02 -7.19361E+03  2.69164E+03 -2.98164E+03  2.54929E+03 -2.31540E+03
  1.18397E+03 -2.03276E+03  2.16174E+03 -2.43519E+03  3.73276E+03 -1.72203E+03  3.92095E+03  4.55511E+02
  6.47566E+03  1.92518E+03  1.99504E+03  4.89004E+03 -1.77454E+03  4.81947E+03 -5.82899E+03  3.15611E+03
 -6.49731E+03 -9.41832E+02 -3.17341E+03 -4.55158E+03 -3.54221E+02 -6.33393E+03  3.99328E+03 -7.18246E+03
  7.17373E+03 -3.61978E+03  9.27737E+03  4.09449E+01  6.42027E+03  5.91421E+03  9.36499E+02  8.05042E+03
 -3.11081E+03  7.83228E+03 -5.24660E+03  2.70331E+03 -2.24767E+03 -3.92120E+02 -9.06818E+02 -4.63944E+02
 -1.18574E+03  1.72049E+02 -1.02387E+03  2.20801E+03 -3.22295E+03  1.43538E+03 -5.12919E+03 -1.67972E+02
 -2.62837E+03 -4.95462E+03  2.32029E+02 -6.57628E+03  3.64197E+03 -6.29136E+03  5.40070E+03 -2.23926E+03
  5.93275E+03  3.32037E+03  2.20368E+03  4.51637E+03 -1.28025E+03  6.63469E+03 -4.07801E+03  4.11185E+03
 -5.67822E+03  2.93978E+02 -4.39263E+03 -4.10453E+03 -3.89284E+02 -4.97480E+03  1.82122E+03 -3.71499E+03
  3.94003E+03 -1.85356E+03  2.88883E+03  4.37310E+02  3.64279E+02  2.31899E+03  9.91139E+02  6.00415E+02
  2.06035E+03  1.03070E+03  1.20288E+03  1.77964E+03  1.18295E+03  2.97950E+03  1.77219E+03  2.27556E+03
 -1.75814E+03  4.56087E+03 -3.54306E+03  5.94870E+03 -4.64793E+03  1.65110E+03 -5.95799E+03 -1.62820E+03
 -2.29818E+03 -5.07111E+03  1.04358E+03 -6.39205E+03  2.76743E+03 -4.14776E+03  4.59569E+03 -1.68971E+03
  3.69684E+03  2.24664E+03  7.21319E+02  3.18492E+03 -1.59094E+03  2.13403E+03 -2.03233E+03 -4.57042E+02
 -1.04918E+03 -2.39023E+03  1.77264E+03 -2.66735E+03  1.92779E+03 -1.09717E+03  2.05092E+03  6.37125E+02
  1.49174E+03  9.61917E+02  1.00397E+03  6.72790E+02 -5.84864E+02  1.11681E+03  1.33320E+03 -4.98743E+02
  7.53375E+02 -6.23344E+02  2.81345E+03  1.39304E+03  8.45363E+02  3.20920E+03 -7.15016E+02  4.16940E+03
 -2.27181E+03  1.71447E+03 -3.32982E+03  6.08002E+02 -3.74104E+03 -1.28553E+03 -3.42260E+02 -9.16589E+02
  7.54025E+02 -1.70283E+03  1.63512E+03 -9.78047E+02  1.21299E+03  1.70966E+03 -1.46594E+03  1.85577E+03
 -2.10807E+03  1.24071E+03 -1.70412E+03 -1.89528E+03 -1.01168E+03 -2.96350E+03  3.43614E+02 -2.40455E+03
  1.63288E+03 -1.23127E+03  1.63701E+03  2.95919E+02  1.76241E+03  7.17975E+02  4.49891E+02  1.44210E+03
 -8.23584E+02 -2.84779E+02 -1.59425E+03 -7.15462E+02  6.24614E+02 -1.41448E+03  2.27937E+03 -1.75709E+03
  1.96401E+03  2.04516E+02  3.74781E+03  1.65588E+03  1.44692E+03  2.44110E+03 -9.35133E+02  2.96112E+03
 -2.35273E+03  7.67866E+02 -2.49624E+03  8.61191E+01 -1.59203E+03 -2.68918E+03  3.36215E+02 -1.16693E+03
  2.25880E+03 -1.60033E+03  1.21082E+03  9.32391E+02  8.48992E+02  2.12438E+03 -2.09479E+02  1.56478E+03
 -4.73598E+02  1.32028E+03 -2.57435E+02  5.94748E+02 -3.01222E+01  9.00675E+02 -5.07732E+02  7.84211E+02
 -1.04574E+03  1.15928E+03 -2.27613E+03  9.90705E+02 -2.86004E+03  2.55708E+02 -3.81491E+03 -1.58836E+03
 -2.67831E+03 -3.72868E+03  1.11217E+03 -4.66272E+03  2.23708E+03 -3.53257E+03  4.84398E+03 -1.66193E+03
  3.44736E+03 -2.12938E+01  2.12345E+03  1.97625E+03  9.01685E+01  2.33118E+03 -7.20032E+02  1.54143E+03
 -1.98250E+03  1.22866E+03 -1.12909E+03 -4.85774E+02 -3.08606E+01 -3.83989E+02 -8.42084E+02 -2.51422E+02
 -1.29847E+03 -4.06480E+02 -6.03809E+02  1.39495E+01 -1.27820E+02 -1.49521E+03 -4.07510E+02 -6.55822E+02
  1.36422E+03 -1.38005E+03  1.39819E+03  4.49570E+02  2.03880E+03  1.40504E+03  4.60718E+01  2.54845E+03
 -1.53785E+03  3.68798E+03 -3.03253E+03  2.00667E+03 -3.23000E+03 -5.61375E+01 -2.58874E+03 -1.83233E+03
 -1.68485E+03 -2.57847E+03  2.30253E+02 -1.99864E+03  1.47035E+03 -1.40592E+03  1.34335E+03  3.82280E+02
  8.06127E+02  7.26218E+02 -1.40379E+02  5.65056E+02 -4.10914E+02 -6.26559E+02  5.11283E+02 -4.99032E+02
  1.01610E+03  4.05982E+00  8.09397E+02  5.59012E+02  8.18793E+02  5.23287E+02  2.52276E+02  1.40131E+03
 -1.00750E+03  1.21112E+03 -9.54048E+02  3.91509E+01 -1.04414E+03 -1.10963E+03  8.01614E+02 -2.21247E+03
  1.21416E+03 -1.66859E+03  1.29890E+03  6.34671E+01  1.73162E+03  1.98464E+02  9.07280E+02  1.24962E+03
  7.88433E+02  1.72423E+03 -2.07683E+02  7.50051E+02 -5.33677E+02  6.75412E+02 -1.09561E+03  2.19617E+02
 -2.38267E+02 -1.71791E+02 -5.41585E+02 -8.76862E+01 -9.88606E+02 -7.96795E+01 -1.15866E+03 -1.22124E+03
 -1.39428E+03  2.44043E+01 -5.28103E+01 -1.51703E+03  5.81153E+02 -2.33385E+03  1.01040E+03 -1.12448E+02
  1.49394E+03  7.39411E+02 -9.79561E+01  4.38084E+02 -1.13589E+03  9.58590E+02 -1.36491E+03  9.21667E+02
