 $NMID ID='MM_0lb_SNR400_13hz_g50_87.RAW', FMTDAT='(8E13.5)'
 TRAMP=1., VOLUME=1. $END
  3.10233E+05  7.69357E+02  3.38042E+05  2.50283E+05  8.50338E+04  3.37944E+05 -1.32646E+05  2.51791E+05
 -1.90247E+05  8.29542E+04 -1.11505E+05 -3.26732E+04  7.23450E+02 -5.01305E+04  5.34629E+04  1.92941E+00
  3.54073E+04  5.30134E+04 -1.64837E+04  7.57410E+04 -6.13147E+04  6.39072E+04 -8.46510E+04  3.17305E+04
 -8.14092E+04 -1.10706E+04 -5.76547E+04 -5.16776E+04 -1.48883E+04 -6.94719E+04  2.81725E+04 -4.60019E+04
  4.06815E+04  3.60891E+03  1.61994E+04  4.77345E+04 -3.49528E+04  4.75506E+04 -6.65190E+04 -4.76201E+02
 -5.34989E+04 -5.70202E+04 -6.42121E+03 -7.83021E+04  3.36172E+04 -5.60904E+04  4.89828E+04 -1.77833E+04
  4.38063E+04  1.15941E+04  3.22736E+04  2.58636E+04  1.63645E+04  2.99984E+04 -5.16236E+03  2.74697E+04
 -2.22253E+04  1.20084E+04 -1.84331E+04 -5.54044E+03  5.88606E+03 -7.57931E+03  2.21065E+04  1.26419E+04
  7.51528E+03  3.56145E+04 -3.29695E+04  3.60581E+04 -6.37328E+04  2.10494E+03 -5.80463E+04 -4.27935E+04
 -1.28327E+04 -6.41364E+04  4.01756E+04 -4.59499E+04  5.92294E+04 -2.54166E+03  3.49768E+04  3.24895E+04
 -5.61848E+03  3.74042E+04 -3.04367E+04  1.62252E+04 -3.09858E+04 -3.97181E+03 -1.74774E+04 -1.10182E+04
 -8.09896E+03 -1.37363E+04 -3.47951E+02 -1.90682E+04  7.93711E+03 -2.31192E+04  1.52160E+04 -1.31270E+04
  1.14358E+04  5.70002E+03 -8.72826E+03  1.26500E+04 -2.16546E+04 -5.19231E+03 -8.26339E+03 -3.47672E+04
  2.35525E+04 -4.38480E+04  4.87086E+04 -2.02189E+04  4.58305E+04  2.04732E+04  1.62195E+04  4.49682E+04
 -1.65296E+04  3.41480E+04 -2.58787E+04  1.71024E+03 -1.02546E+04 -2.81599E+04  2.15615E+04 -3.45525E+04
  4.13489E+04 -9.51372E+03  3.57281E+04  2.43360E+04  1.83765E+04  4.74261E+04 -8.78215E+03  5.08927E+04
 -3.23767E+04  3.48878E+04 -4.33278E+04  1.04762E+04 -4.44962E+04 -1.69972E+04 -2.37812E+04 -3.86795E+04
  7.72111E+03 -3.86367E+04  3.24968E+04 -1.49813E+04  2.98133E+04  1.04100E+04  4.00709E+03  1.98077E+04
 -1.35178E+04  8.15655E+03 -1.09692E+04 -7.45507E+03  5.55495E+03 -1.11397E+04  1.80073E+04  5.82799E+03
  1.30994E+04  2.21643E+04 -5.73682E+03  2.53481E+04 -2.27901E+04  1.24048E+04 -2.92215E+04 -4.07767E+03
 -2.14451E+04 -1.73628E+04 -9.21769E+03 -2.10866E+04  4.40840E+03 -2.08023E+04  1.68226E+04 -1.94526E+04
  2.77674E+04 -1.26566E+04  3.38033E+04  3.96265E+03  2.42049E+04  2.11783E+04  3.70324E+03  3.72551E+04
 -1.83470E+04  3.12444E+04 -2.79112E+04  1.07727E+04 -2.08009E+04 -1.04913E+04 -4.69344E+03 -1.26950E+04
  1.74439E+03 -2.27231E+03 -5.33079E+03  6.80666E+03 -1.73548E+04  5.30934E+03 -1.67801E+04 -7.51879E+03
 -1.07620E+04 -2.01939E+04  5.01048E+03 -2.39088E+04  1.62535E+04 -1.70763E+04  1.93762E+04 -2.23640E+03
  1.22907E+04  1.44618E+04 -8.14138E+02  1.93134E+04 -1.36134E+04  1.14451E+04 -2.01106E+04 -3.79026E+03
 -1.53699E+04 -1.77120E+04 -1.59815E+03 -2.41129E+04  1.13495E+04 -1.99203E+04  1.97812E+04 -1.03765E+04
  1.82714E+04  3.00089E+02  1.25320E+04  4.81377E+03  6.96911E+03  1.29596E+03  1.00394E+04 -1.38551E+03
  1.87467E+04  2.80785E+03  2.07635E+04  1.59094E+04  1.33727E+04  3.12162E+04 -2.67383E+03  3.62829E+04
 -2.10027E+04  2.96145E+04 -3.38641E+04  1.51941E+04 -3.59838E+04 -3.16126E+03 -2.91634E+04 -2.11529E+04
 -1.22799E+04 -2.92394E+04  1.03524E+04 -2.72097E+04  2.31621E+04 -1.33626E+04  1.99765E+04  6.03558E+03
  6.98276E+03  1.52594E+04 -9.45020E+03  1.33259E+04 -1.69444E+04  3.23082E+03 -1.33049E+04 -1.01014E+04
 -1.24828E+02 -1.59710E+04  8.07902E+03 -1.20666E+04  1.11169E+04 -9.89286E+02  1.91677E+03  7.67006E+03
 -7.23813E+03  2.36546E+03 -6.49036E+03 -6.13897E+03 -7.31500E+02 -1.45281E+04  1.00688E+04 -1.55138E+04
  1.76750E+04 -7.68869E+03  1.95036E+04  1.90525E+03  1.70120E+04  1.46597E+04  7.80080E+03  2.16648E+04
 -3.32058E+03  2.37881E+04 -1.55507E+04  1.50900E+04 -1.71769E+04  4.27718E+03 -1.13482E+04 -3.53353E+03
 -5.11525E+03 -5.32866E+03 -1.07458E+03  8.89842E+02 -2.96286E+03  2.98109E+03 -5.39629E+03  4.69231E+03
 -1.18176E+04 -8.58608E+02 -1.22296E+04 -9.19781E+03 -5.56696E+03 -1.56210E+04  4.89929E+03 -1.19750E+04
  1.00947E+04 -5.64198E+03  7.73418E+03  2.98847E+03  1.20618E+02  4.56927E+03 -5.86282E+03  2.43879E+02
 -5.79703E+03 -7.57102E+03 -2.52936E+02 -1.17057E+04  6.74411E+03 -1.21466E+04  1.56695E+04 -6.39153E+03
  1.78866E+04  1.60721E+03  1.30133E+04  1.04971E+04  2.43663E+03  1.37337E+04 -7.37727E+03  1.15174E+04
 -1.01377E+04  3.85721E+03 -5.36322E+03 -1.95663E+03  2.44833E+03 -3.18938E+03  6.81500E+03 -1.33687E+03
  6.18466E+03  5.14992E+03  1.26878E+03  9.20935E+03 -6.11566E+03  9.35592E+03 -1.17663E+04  2.04123E+03
 -8.36004E+03 -6.12673E+03 -4.03591E+01 -1.04683E+04  5.76441E+03 -5.33572E+03  6.57537E+03  2.46238E+03
  1.29722E+03  6.52073E+03 -6.37728E+03  7.74217E+03 -9.01469E+03  3.34981E+03 -9.01491E+03 -3.00450E+03
 -6.02460E+03 -1.11660E+04  2.20212E+03 -1.25542E+04  1.10183E+04 -7.22990E+03  1.22191E+04  2.28116E+03
  7.31701E+03  9.61082E+03  7.10879E+01  1.12743E+04 -8.25181E+03  6.49523E+03 -8.53893E+03 -1.11086E+03
 -8.18221E+03 -7.69085E+03 -1.86161E+03 -8.19529E+03  4.42083E+03 -7.78046E+03  4.51222E+03 -3.43593E+03
  4.28177E+03  1.29599E+03 -6.75455E+02  1.39149E+03  2.66132E+02 -1.90852E+03  1.16575E+03 -4.86345E+03
  7.58554E+03 -3.41007E+03  9.97526E+03  1.20856E+03  1.10616E+04  6.93573E+03  7.38828E+03  1.39096E+04
 -3.09733E+03  1.60015E+04 -1.38364E+04  1.18888E+04 -1.76327E+04  1.99407E+03 -1.35945E+04 -6.12533E+03
 -7.15601E+03 -1.13640E+04 -3.53310E+02 -9.45136E+03  3.84305E+03 -5.66216E+03  3.26613E+03 -3.83441E+03
  3.26179E+03 -2.41465E+03  3.06106E+03 -3.00955E+03  4.67757E+03 -2.81212E+03  5.38706E+03 -3.14481E+02
  6.87847E+03  1.71663E+03  3.15483E+03  6.10807E+03 -2.33602E+03  7.14156E+03 -7.53714E+03  5.32854E+03
 -1.00377E+04 -1.68231E+03 -5.82050E+03 -7.31088E+03 -7.04631E+02 -1.00073E+04  6.16412E+03 -9.82556E+03
  1.04642E+04 -6.45187E+03  1.23135E+04  1.53249E+03  9.03914E+03  8.70150E+03  1.35653E+03  1.20668E+04
 -4.88877E+03  9.95205E+03 -6.78705E+03  3.70847E+03 -4.63257E+03 -1.79784E+03 -1.53065E+03 -1.33198E+03
 -1.52459E+03  6.81331E+02 -1.41842E+03  1.91891E+03 -4.28897E+03  1.83527E+03 -7.49375E+03 -6.43009E+02
 -4.49096E+03 -6.35939E+03  7.51901E+02 -9.06484E+03  5.91284E+03 -8.35296E+03  8.27212E+03 -3.17876E+03
  8.89718E+03  4.41619E+03  4.38040E+03  8.15014E+03 -1.34086E+03  9.22250E+03 -5.96416E+03  5.40235E+03
 -7.71129E+03 -2.82821E+02 -6.85773E+03 -5.50452E+03 -5.43255E+02 -7.08177E+03  4.76321E+03 -5.81418E+03
  6.34201E+03 -2.39753E+03  3.92296E+03  1.16490E+03  1.33912E+03  2.55786E+03  5.77364E+02  1.34300E+03
  2.62015E+03  1.31269E+03  2.41225E+03  7.23015E+02  2.58621E+03  2.89678E+03  2.21380E+03  4.87404E+03
 -2.35573E+03  6.48761E+03 -6.30247E+03  7.85909E+03 -8.43794E+03  2.15795E+03 -9.02480E+03 -3.56946E+03
 -3.76297E+03 -8.53196E+03  9.22752E+02 -9.64869E+03  5.36492E+03 -6.37284E+03  7.25049E+03 -1.40434E+03
  5.95865E+03  2.93459E+03  1.03170E+03  5.78087E+03 -1.84060E+03  3.09664E+03 -2.90997E+03 -2.99144E+02
 -1.18991E+03 -4.38160E+03  2.61943E+03 -3.44923E+03  3.69769E+03 -2.27297E+03  3.58158E+03  8.59417E+02
  2.57969E+03  1.55142E+03  1.55118E+03  9.28216E+02 -5.91856E+02  7.78451E+02  2.24739E+03 -3.31753E+02
  9.77276E+02 -1.51624E+02  3.79382E+03  1.36311E+03  1.46199E+03  4.34362E+03 -7.09789E+02  5.71357E+03
 -4.12200E+03  4.02733E+03 -5.25477E+03  9.77344E+02 -5.03089E+03 -2.20848E+03 -1.82203E+03 -3.53778E+03
  7.25030E+02 -2.59795E+03  1.96752E+03 -1.43765E+03  1.76516E+03  1.86661E+03 -8.72042E+02  3.48107E+03
 -3.95113E+03  2.59295E+03 -3.78062E+03 -2.10192E+03 -1.72918E+03 -4.64104E+03  6.04454E+02 -4.73347E+03
  2.71188E+03 -2.41463E+03  3.58751E+03 -2.21522E+02  2.63416E+03  2.71391E+02  1.35619E+03  2.19538E+03
 -1.60030E+03  5.17654E+02 -2.41811E+03 -1.38874E+03  4.39480E+02 -2.69378E+03  4.40971E+03 -2.97990E+03
  4.95995E+03 -2.21555E+02  5.49991E+03  3.63301E+03  1.66014E+03  4.99006E+03 -1.75847E+03  5.23155E+03
 -4.06973E+03  1.58641E+03 -3.97433E+03 -2.21409E+02 -1.99016E+03 -3.76346E+03  1.65657E+03 -2.92164E+03
  3.03527E+03 -1.71721E+03  2.49556E+03  1.63244E+03  5.77695E+02  3.24638E+03  1.11249E+02  3.36996E+03
 -1.69731E+03  1.66764E+03 -1.11461E+03  3.68717E+02 -1.14844E+03  7.73446E+02 -1.41339E+03  7.71833E+02
 -1.67454E+03  1.84857E+03 -4.02679E+03  1.38500E+03 -5.34052E+03  1.05079E+02 -5.34887E+03 -3.09839E+03
 -2.52277E+03 -6.52793E+03  1.20815E+03 -8.18502E+03  4.33081E+03 -5.86547E+03  7.87305E+03 -3.15499E+03
  5.94018E+03  1.15864E+03  4.37759E+03  4.43963E+03 -3.43358E+02  5.52252E+03 -1.88123E+03  4.27364E+03
 -3.27129E+03  1.75983E+03 -2.11381E+03 -1.03670E+03 -5.47904E+02 -1.18618E+02 -5.06584E+02  3.15324E+02
 -1.52357E+03  2.27053E+02 -1.26156E+03 -2.66459E+02  1.43263E+02 -1.34347E+03 -5.61693E+02 -1.90182E+03
  2.27059E+03 -1.76089E+03  2.98182E+03 -3.36426E+02  3.06400E+03  2.90669E+03  5.06428E+02  5.31996E+03
 -2.67747E+03  5.71159E+03 -4.46830E+03  3.68634E+03 -5.26520E+03 -4.69222E+02 -4.40356E+03 -3.77410E+03
 -1.94969E+03 -5.53829E+03  5.01593E+02 -3.81998E+03  2.84265E+03 -1.65740E+03  3.81257E+03 -5.24502E+01
  2.01582E+03  2.06047E+03 -4.03876E+02  1.12810E+03 -1.26062E+03 -3.37116E+02  1.60998E+01 -1.04990E+03
  7.93751E+02 -6.06563E+02  1.38219E+03  1.21947E+03  7.75782E+02  1.98926E+03  2.39910E+02  2.56372E+03
 -2.05118E+03  2.67759E+03 -3.11944E+03  3.79634E+02 -2.02190E+03 -2.77947E+03 -3.57993E+02 -4.48551E+03
  2.08911E+03 -3.11375E+03  3.74525E+03 -1.15149E+03  3.12468E+03  2.99273E+02  2.26518E+03  2.89895E+03
  9.12080E+02  2.69099E+03 -9.35727E+02  2.26991E+03 -1.77326E+03  1.73491E+03 -1.62154E+03  8.34064E+01
 -3.46757E+02  5.41785E+02 -1.11942E+03  8.49260E+02 -1.72765E+03  6.41808E+02 -2.55850E+03 -5.84354E+02
 -2.49290E+03 -1.10799E+03 -1.02260E+03 -3.46747E+03  1.51095E+03 -3.55236E+03  2.82688E+03 -1.42650E+03
  2.28894E+03  6.76731E+02  8.26592E+02  1.87216E+03 -1.34817E+02  3.63937E+03 -2.16251E+03  1.90421E+03
