 $NMID ID='MM_0lb_SNR400_19hz_g60_25.RAW', FMTDAT='(8E13.5)'
 TRAMP=1., VOLUME=1. $END
  3.09919E+05  1.50510E+02  3.37459E+05  2.50540E+05  8.51798E+04  3.38060E+05 -1.32504E+05  2.50998E+05
 -1.90186E+05  8.28233E+04 -1.11522E+05 -3.25590E+04  1.17705E+03 -5.01324E+04  5.37799E+04 -8.71126E+01
  3.53023E+04  5.30960E+04 -1.66783E+04  7.54030E+04 -6.08510E+04  6.32305E+04 -8.35592E+04  3.15476E+04
 -8.07414E+04 -1.16388E+04 -5.72202E+04 -5.12913E+04 -1.46707E+04 -6.90056E+04  2.67568E+04 -4.57511E+04
  3.94455E+04  3.63282E+03  1.62456E+04  4.73086E+04 -3.40994E+04  4.70505E+04 -6.64975E+04 -3.30513E+02
 -5.25747E+04 -5.61857E+04 -6.76213E+03 -7.59343E+04  3.35311E+04 -5.42744E+04  4.65833E+04 -1.64346E+04
  4.31964E+04  1.13659E+04  3.13155E+04  2.47269E+04  1.62245E+04  2.85212E+04 -5.17858E+03  2.68246E+04
 -2.19525E+04  1.20463E+04 -1.86213E+04 -4.20450E+03  5.07067E+03 -7.35401E+03  2.12771E+04  1.13618E+04
  7.17271E+03  3.40487E+04 -3.17139E+04  3.50154E+04 -6.20393E+04  2.17812E+03 -5.59291E+04 -4.19660E+04
 -1.27788E+04 -6.23698E+04  3.92495E+04 -4.44586E+04  5.65869E+04 -2.48672E+03  3.33235E+04  3.15734E+04
 -6.32277E+03  3.43033E+04 -2.90652E+04  1.41675E+04 -2.89393E+04 -4.46053E+03 -1.55126E+04 -1.06654E+04
 -7.76372E+03 -1.23723E+04 -2.63638E+02 -1.82364E+04  7.11643E+03 -2.27834E+04  1.49783E+04 -1.36923E+04
  1.19591E+04  4.94160E+03 -7.28719E+03  1.28488E+04 -2.00196E+04 -2.55439E+03 -8.37359E+03 -3.16536E+04
  2.15885E+04 -4.20504E+04  4.61443E+04 -1.86079E+04  4.27382E+04  1.85625E+04  1.50187E+04  4.27427E+04
 -1.50474E+04  3.17193E+04 -2.42462E+04  1.65477E+03 -9.16337E+03 -2.69132E+04  2.08033E+04 -3.23435E+04
  3.94754E+04 -7.99275E+03  3.29194E+04  2.29994E+04  1.64686E+04  4.41602E+04 -7.52682E+03  4.70099E+04
 -2.95605E+04  3.18497E+04 -3.92841E+04  8.92525E+03 -3.97572E+04 -1.57860E+04 -2.22280E+04 -3.52827E+04
  7.29056E+03 -3.54370E+04  3.06893E+04 -1.33626E+04  2.82285E+04  1.11091E+04  4.18989E+03  1.82192E+04
 -1.34596E+04  7.37652E+03 -9.72480E+03 -7.29237E+03  5.78238E+03 -1.06082E+04  1.76787E+04  6.53717E+03
  1.28277E+04  2.15199E+04 -6.34212E+03  2.40749E+04 -2.19696E+04  1.01952E+04 -2.57521E+04 -6.22925E+03
 -1.81641E+04 -1.66583E+04 -6.96757E+03 -1.79872E+04  3.86650E+03 -1.63275E+04  1.31152E+04 -1.54250E+04
  2.30463E+04 -1.19732E+04  2.95114E+04  1.50512E+03  2.19057E+04  1.73240E+04  4.40416E+03  3.41805E+04
 -1.65650E+04  2.82128E+04 -2.62958E+04  9.79582E+03 -2.06682E+04 -1.10202E+04 -4.05744E+03 -1.37624E+04
  2.07310E+03 -3.80936E+03 -2.93361E+03  5.32929E+03 -1.37240E+04  5.32755E+03 -1.43430E+04 -5.47082E+03
 -9.10279E+03 -1.67052E+04  4.57884E+03 -2.04419E+04  1.39207E+04 -1.50518E+04  1.51618E+04 -1.17115E+03
  1.02494E+04  1.21367E+04 -1.04221E+03  1.65222E+04 -1.10967E+04  9.51427E+03 -1.61869E+04 -3.36432E+03
 -1.22119E+04 -1.45320E+04 -2.15590E+03 -2.04971E+04  8.73294E+03 -1.64326E+04  1.68509E+04 -7.76339E+03
  1.57589E+04  1.00519E+03  1.09848E+04  3.99389E+03  5.47261E+03  3.91867E+02  7.93654E+03 -1.54357E+03
  1.48227E+04  1.91059E+03  1.57220E+04  1.29083E+04  9.54595E+03  2.57555E+04 -3.12585E+03  2.82187E+04
 -1.73124E+04  2.16953E+04 -2.61763E+04  1.09569E+04 -2.62141E+04 -1.23992E+03 -2.25694E+04 -1.57109E+04
 -1.04649E+04 -2.26299E+04  7.47211E+03 -2.05325E+04  1.76349E+04 -1.09565E+04  1.60565E+04  3.72715E+03
  6.26358E+03  1.19344E+04 -7.47316E+03  1.06987E+04 -1.33807E+04  2.85676E+03 -1.12517E+04 -8.79776E+03
  7.46044E+01 -1.24698E+04  6.77303E+03 -9.64907E+03  8.39499E+03 -1.41401E+03  1.77118E+03  4.43225E+03
 -6.08248E+03  1.66920E+03 -3.96225E+03 -4.90168E+03 -1.43133E+01 -1.11536E+04  8.37776E+03 -1.07081E+04
  1.32228E+04 -4.71100E+03  1.31025E+04  2.93087E+03  1.14161E+04  1.01090E+04  5.67568E+03  1.52287E+04
 -1.82320E+03  1.75923E+04 -1.05183E+04  1.08910E+04 -1.21772E+04  2.59140E+03 -9.30604E+03 -2.37238E+03
 -4.76487E+03 -4.26762E+03 -9.42704E+02  1.10728E+03 -2.06724E+03  2.51169E+03 -3.72812E+03  3.49696E+03
 -8.47460E+03 -2.94273E+02 -9.37590E+03 -7.70433E+03 -3.53880E+03 -1.16007E+04  3.79498E+03 -8.18528E+03
  7.34806E+03 -3.70078E+03  5.45871E+03  2.35512E+03  8.81744E+02  3.07001E+03 -3.11426E+03 -2.55188E+02
 -3.35180E+03 -5.32514E+03 -1.31702E+03 -8.10513E+03  4.10578E+03 -8.35491E+03  1.05460E+04 -4.10100E+03
  1.23381E+04  6.15841E+02  9.43554E+03  6.44460E+03  1.79176E+03  9.08950E+03 -5.45216E+03  8.97886E+03
 -7.84176E+03  2.90162E+03 -3.97381E+03 -9.31013E+02  1.84955E+03 -1.73809E+03  4.69778E+03 -9.70467E+02
  4.03971E+03  3.59561E+03  9.61476E+02  6.38261E+03 -4.91792E+03  6.81121E+03 -8.54831E+03  1.89169E+03
 -4.90660E+03 -3.40486E+03  1.25681E+02 -7.40804E+03  4.27873E+03 -3.26510E+03  3.84411E+03  1.08445E+03
  9.26989E+02  3.57295E+03 -4.03379E+03  4.69156E+03 -4.41284E+03  2.85147E+03 -4.56682E+03 -1.37862E+03
 -2.84385E+03 -6.06259E+03  6.01826E+02 -7.38333E+03  6.75009E+03 -5.03853E+03  6.51412E+03  1.03001E+03
  4.79959E+03  5.70943E+03 -1.74991E+02  7.77154E+03 -5.41528E+03  4.71298E+03 -5.73589E+03 -6.42538E+02
 -5.50473E+03 -5.60523E+03 -9.40072E+02 -5.28479E+03  2.39418E+03 -4.71136E+03  2.16134E+03 -3.28210E+03
  2.64644E+03  1.03064E+02 -3.84005E+02  1.50914E+03  4.11411E+02 -6.39183E+02 -2.94045E+02 -2.03862E+03
  3.71392E+03 -7.10522E+02  5.60173E+03  1.04590E+03  5.51633E+03  3.36482E+03  5.72178E+03  7.36200E+03
 -8.56219E+02  8.22588E+03 -7.18358E+03  6.56599E+03 -9.75750E+03  1.40787E+03 -8.10408E+03 -2.60076E+03
 -4.45130E+03 -6.38074E+03 -4.27942E+02 -5.29238E+03  2.44178E+03 -2.21200E+03  1.51218E+03 -2.69384E+03
  9.85785E+02 -1.79750E+03  2.14103E+03 -2.19010E+03  3.55531E+03 -1.15598E+03  3.81901E+03  3.31680E+02
  4.95737E+03  1.55550E+03  9.82582E+02  3.26868E+03 -1.57794E+03  2.94951E+03 -4.81346E+03  2.52106E+03
 -5.14518E+03 -9.30587E+02 -1.72263E+03 -3.11340E+03  4.95505E+02 -4.75719E+03  3.43384E+03 -5.02698E+03
  5.64742E+03 -3.64601E+03  6.88073E+03 -1.95392E+02  5.73014E+03  4.47012E+03  1.06237E+03  5.68502E+03
 -2.14769E+03  6.19630E+03 -3.02799E+03  1.51924E+03 -1.92878E+03 -9.12366E+02 -7.43534E+02 -1.17129E+03
 -7.77676E+02  2.49704E+02 -5.43141E+02  1.47321E+03 -2.45474E+03  4.66577E+02 -3.85605E+03 -1.90661E+02
 -1.61524E+03 -4.38256E+03  9.13333E+02 -4.66277E+03  2.78139E+03 -4.70340E+03  3.57528E+03 -1.29031E+03
  4.09616E+03  2.18312E+03  1.45707E+03  2.79802E+03 -6.38313E+02  4.97605E+03 -2.35001E+03  2.32469E+03
 -3.47820E+03  8.52852E+02 -3.15424E+03 -2.15452E+03 -6.57334E+02 -3.60609E+03  1.37119E+03 -2.71011E+03
  2.56502E+03 -1.99788E+03  1.62689E+03  3.52310E+02  8.46049E+02  1.16093E+03  1.01924E+03  2.59666E+02
  1.00170E+03  5.37748E+02  1.38801E+03  7.57106E+02  1.37265E+03  2.55169E+03  1.03105E+03  1.70936E+03
 -1.41479E+03  2.52347E+03 -2.16263E+03  3.44187E+03 -3.77957E+03  1.24392E+03 -3.63883E+03 -5.61088E+02
 -1.06115E+03 -3.55374E+03  1.01079E+03 -4.37724E+03  1.96201E+03 -2.68433E+03  2.83086E+03 -7.93937E+02
  2.70933E+03  1.31044E+03  4.50836E+02  2.65865E+03 -7.25291E+02  1.30547E+03 -1.07984E+03 -3.17236E+02
 -8.03473E+02 -1.04092E+03  1.14229E+03 -1.33103E+03  1.48657E+03 -7.09711E+02  1.03981E+03  2.05511E+02
  8.00760E+02  3.78112E+02  5.29611E+02 -4.91396E+01 -1.71811E+02  1.03744E+03  1.70363E+03 -1.55355E+02
  3.35043E+02 -4.82185E+02  1.40670E+03  7.01253E+02 -1.37901E+02  1.87710E+03 -5.86767E+02  2.76856E+03
 -1.52485E+03  1.03693E+03 -2.42571E+03  2.01841E+02 -2.29153E+03 -7.19748E+02 -1.98432E+02 -6.44798E+02
  3.22698E+02 -8.59605E+02  1.09990E+03 -1.03642E+03  4.09423E+02  8.23080E+02 -5.95889E+02  5.56761E+02
 -1.00605E+03  6.11449E+02 -7.32784E+02 -1.36925E+03 -4.86811E+02 -3.11199E+03  3.26371E+02 -1.35236E+03
  1.81970E+02 -1.08090E+03  3.53051E+02 -2.68047E+02  1.72685E+03 -3.69104E+02 -4.94798E+02  4.70175E+02
 -4.50429E+02 -4.07672E+01 -5.80916E+02 -6.75631E+02  3.30023E+02 -9.59869E+02  1.67276E+03 -1.32810E+03
  1.33714E+03 -2.29355E+02  2.15239E+03  5.61016E+02  1.19025E+03  9.58161E+02 -6.99294E+02  1.96353E+03
 -1.07229E+03 -8.32044E+00 -1.07343E+03 -4.15939E+02 -8.65722E+02 -1.24383E+03 -5.99585E+01 -4.47410E+02
  1.83169E+03 -2.52158E+02  5.30094E+02  9.28705E+02  3.70361E+02  1.20550E+03  1.25195E+00  7.81804E+02
  1.43803E+01  1.37509E+03 -9.32302E+02 -4.44022E+01  6.45598E+01  1.01160E+02 -8.97295E+02  8.10603E+02
 -9.21477E+02  1.16377E+03 -1.95656E+03  4.18723E+02 -1.67657E+03 -1.58678E+02 -2.09373E+03 -2.34999E+02
 -6.90777E+02 -1.41300E+03  4.22209E+02 -2.59920E+03  2.82209E+02 -2.11707E+03  2.82269E+03 -6.14817E+02
  2.05625E+03 -2.29991E+00  3.92985E+02  1.06269E+03 -9.03764E+02  9.93354E+02 -4.48023E+02  6.13885E+02
 -2.76387E+02  8.75787E+02 -8.02072E+02 -4.86382E+02 -2.83890E+02  1.81871E+02 -3.72168E+02  1.08809E+02
 -1.07813E+03 -9.36849E+01 -4.93960E+02 -1.30990E+02  3.57945E+02  1.13924E+02 -4.28575E+02 -1.09471E+03
  7.98323E+02 -6.03536E+02  1.16031E+02 -8.85784E+01  1.02609E+03  9.73640E+02 -2.11855E+02  9.41789E+02
 -2.67200E+02  1.79813E+03 -7.56257E+02  1.02007E+03 -1.42893E+03 -5.48067E+01 -1.12779E+03 -1.02916E+03
 -7.01627E+02 -1.69184E+03  3.65557E+02 -3.89274E+02  4.45574E+02 -6.52076E+02  8.78988E+02 -2.91206E+02
  8.74904E+02 -1.17240E+02  3.29025E+02 -2.54513E+02  8.75499E+01  3.66798E+02  2.16320E+02 -4.03071E+02
  7.57003E+01 -2.94538E+01 -2.53171E+02  6.08056E+02  5.23089E+02  6.16024E+02 -2.00430E+02 -1.32160E+02
 -5.39408E+02  7.12501E+02 -7.84046E+02  9.56532E+01 -4.39691E+02 -6.40160E+01  2.13064E+02 -9.04979E+01
  8.93525E+02 -1.75725E+02  4.76987E+02  1.89513E+02  8.50665E+02 -5.28836E+02  3.42425E+02  3.92788E+02
  3.68466E+02  2.53865E+02 -3.07025E+02 -7.76897E+01 -1.03894E+02  3.46359E+02 -1.22496E+02 -4.41206E+02
 -6.10311E+01 -1.08778E+02  2.36112E+02  1.17793E+02 -3.98414E+02  2.56103E+02 -9.05897E+02  2.37676E+01
 -9.11554E+02  1.45007E+02  1.71982E+02 -1.10569E+03  8.55874E+02 -1.69217E+03  1.59568E+02 -4.50095E+02
  8.37880E+02 -5.38945E+02 -1.09444E+02 -1.63068E+02  2.04452E+02  9.20792E+02 -4.28396E+02  4.83350E+02
