 $NMID ID='MM_0lb_SNR400_12hz_g45_99.RAW', FMTDAT='(8E13.5)'
 TRAMP=1., VOLUME=1. $END
  3.09718E+05  1.53088E+02  3.37974E+05  2.50691E+05  8.49300E+04  3.37458E+05 -1.33081E+05  2.51670E+05
 -1.89960E+05  8.33312E+04 -1.12313E+05 -3.23761E+04  1.51581E+03 -5.01720E+04  5.25544E+04  5.97810E+02
  3.53215E+04  5.32270E+04 -1.67996E+04  7.49319E+04 -6.11301E+04  6.33424E+04 -8.42476E+04  3.24827E+04
 -8.12717E+04 -1.11660E+04 -5.75789E+04 -5.16201E+04 -1.49049E+04 -7.02263E+04  2.77011E+04 -4.61920E+04
  4.02225E+04  3.60964E+03  1.72361E+04  4.79657E+04 -3.46961E+04  4.75560E+04 -6.65862E+04 -1.36373E+02
 -5.40981E+04 -5.70615E+04 -6.39196E+03 -7.79726E+04  3.41437E+04 -5.54132E+04  4.83433E+04 -1.79002E+04
  4.38237E+04  1.12279E+04  3.23331E+04  2.56538E+04  1.55098E+04  2.95872E+04 -6.12362E+03  2.74254E+04
 -2.14570E+04  1.20209E+04 -1.84432E+04 -5.24660E+03  5.99379E+03 -7.10264E+03  2.26432E+04  1.29397E+04
  7.27295E+03  3.61883E+04 -3.29432E+04  3.54411E+04 -6.42715E+04  2.42972E+03 -5.73128E+04 -4.28924E+04
 -1.30677E+04 -6.42095E+04  4.04304E+04 -4.59574E+04  5.97364E+04 -1.99335E+03  3.42980E+04  3.32349E+04
 -5.73865E+03  3.67120E+04 -3.09004E+04  1.62092E+04 -3.10415E+04 -5.03233E+03 -1.75961E+04 -1.19561E+04
 -8.03565E+03 -1.40338E+04 -6.65158E+02 -1.91334E+04  7.45823E+03 -2.27749E+04  1.49930E+04 -1.29463E+04
  1.08283E+04  5.64735E+03 -8.34524E+03  1.26929E+04 -2.19762E+04 -5.07861E+03 -8.35148E+03 -3.47359E+04
  2.41522E+04 -4.44727E+04  4.90106E+04 -2.01871E+04  4.67233E+04  1.95105E+04  1.66244E+04  4.51221E+04
 -1.65363E+04  3.44298E+04 -2.61484E+04  1.63373E+03 -1.00260E+04 -2.84046E+04  2.12104E+04 -3.50272E+04
  4.21415E+04 -9.49825E+03  3.65106E+04  2.37045E+04  1.95221E+04  4.83729E+04 -7.96935E+03  5.18083E+04
 -3.30416E+04  3.55125E+04 -4.32956E+04  1.01336E+04 -4.38552E+04 -1.68186E+04 -2.46356E+04 -3.92863E+04
  7.25364E+03 -3.88839E+04  3.24847E+04 -1.47892E+04  2.99852E+04  1.09537E+04  4.43564E+03  2.05364E+04
 -1.35714E+04  8.76250E+03 -1.06420E+04 -7.57697E+03  5.84662E+03 -1.09931E+04  1.79529E+04  5.76780E+03
  1.36053E+04  2.25452E+04 -5.44661E+03  2.53572E+04 -2.28001E+04  1.23491E+04 -2.86601E+04 -4.59850E+03
 -2.15051E+04 -1.75348E+04 -8.84385E+03 -2.21191E+04  4.36191E+03 -2.18716E+04  1.69579E+04 -1.95480E+04
  2.79410E+04 -1.26230E+04  3.30202E+04  3.07224E+03  2.45792E+04  2.07842E+04  3.71065E+03  3.78986E+04
 -1.81023E+04  3.17058E+04 -2.87928E+04  1.07640E+04 -2.14158E+04 -1.03730E+04 -4.82592E+03 -1.41498E+04
  2.19193E+03 -2.46255E+03 -5.61029E+03  7.07441E+03 -1.76003E+04  5.29366E+03 -1.72986E+04 -8.22717E+03
 -1.13321E+04 -2.00979E+04  5.17587E+03 -2.39967E+04  1.64700E+04 -1.77306E+04  1.96340E+04 -1.32291E+03
  1.21552E+04  1.37546E+04 -1.61250E+03  2.08630E+04 -1.44286E+04  1.12561E+04 -1.96298E+04 -4.27757E+03
 -1.42425E+04 -1.81931E+04 -2.41020E+03 -2.44138E+04  1.08463E+04 -2.02345E+04  2.02243E+04 -1.02009E+04
  1.91726E+04  6.87139E+02  1.43247E+04  4.60970E+03  7.32869E+03  1.16244E+03  1.01915E+04 -1.63856E+03
  1.86566E+04  2.78415E+03  2.11624E+04  1.62703E+04  1.41553E+04  3.23861E+04 -2.90189E+03  3.70977E+04
 -2.15405E+04  2.96142E+04 -3.58057E+04  1.60710E+04 -3.66060E+04 -2.19481E+03 -2.94949E+04 -2.11114E+04
 -1.23707E+04 -2.98456E+04  1.05185E+04 -2.74865E+04  2.24035E+04 -1.43050E+04  2.06244E+04  6.61429E+03
  7.72684E+03  1.58115E+04 -9.32820E+03  1.33398E+04 -1.73500E+04  2.68489E+03 -1.32453E+04 -1.09082E+04
 -5.12622E+02 -1.66968E+04  9.00237E+03 -1.17027E+04  1.18159E+04 -1.62023E+03  1.99310E+03  8.20232E+03
 -6.58135E+03  3.23557E+03 -6.50465E+03 -5.90350E+03 -1.26314E+03 -1.52117E+04  1.00215E+04 -1.61247E+04
  1.87752E+04 -9.08846E+03  1.98272E+04  3.53677E+03  1.83113E+04  1.45888E+04  8.38047E+03  2.30512E+04
 -4.09094E+03  2.46577E+04 -1.61304E+04  1.56128E+04 -1.77017E+04  3.86275E+03 -1.29778E+04 -4.38310E+03
 -5.54929E+03 -6.07028E+03 -8.62797E+02  6.78289E+02 -2.53327E+03  3.30097E+03 -6.39527E+03  4.16514E+03
 -1.18456E+04 -6.61041E+02 -1.28469E+04 -9.66818E+03 -5.51252E+03 -1.55643E+04  5.37831E+03 -1.31424E+04
  1.00975E+04 -5.61165E+03  7.66522E+03  3.27078E+03 -5.87258E+02  5.11327E+03 -5.52679E+03  5.97647E+01
 -5.79259E+03 -8.00683E+03 -8.71845E+02 -1.24704E+04  6.66997E+03 -1.25045E+04  1.58641E+04 -7.52698E+03
  1.84399E+04  1.17399E+03  1.39481E+04  1.12511E+04  2.21435E+03  1.49785E+04 -7.70393E+03  1.23671E+04
 -9.40275E+03  3.50897E+03 -5.47634E+03 -2.88786E+03  1.26612E+03 -3.28823E+03  6.83428E+03 -5.86425E+02
  6.49562E+03  5.08555E+03  1.23844E+03  9.46429E+03 -6.92478E+03  9.47884E+03 -1.24580E+04  2.18717E+03
 -7.98658E+03 -6.36891E+03  6.12466E+02 -1.04637E+04  6.83687E+03 -5.41967E+03  7.33160E+03  2.13207E+03
  9.63284E+02  7.11515E+03 -6.65461E+03  8.23749E+03 -9.84337E+03  4.20656E+03 -1.00704E+04 -3.14547E+03
 -5.69412E+03 -1.18854E+04  3.23294E+03 -1.31098E+04  1.11445E+04 -7.92490E+03  1.26097E+04  3.33021E+03
  7.77026E+03  1.05735E+04 -5.62382E+02  1.20966E+04 -8.58071E+03  7.54212E+03 -1.00198E+04 -1.33422E+03
 -9.20719E+03 -7.16670E+03 -9.78519E+02 -9.17645E+03  4.84455E+03 -7.24149E+03  6.02285E+03 -3.83517E+03
  4.69334E+03  9.39972E+02 -6.34263E+02  1.56407E+03 -2.68552E+02 -1.85851E+03  1.88582E+03 -5.17267E+03
  8.36440E+03 -2.76283E+03  1.15490E+04  1.42199E+03  1.07521E+04  7.74909E+03  8.03283E+03  1.47061E+04
 -2.54179E+03  1.68585E+04 -1.40120E+04  1.25924E+04 -1.93738E+04  2.29121E+03 -1.53481E+04 -6.47831E+03
 -7.58227E+03 -1.19826E+04 -7.70681E+02 -9.71371E+03  3.96135E+03 -5.03466E+03  3.26037E+03 -4.23634E+03
  3.17769E+03 -2.04419E+03  3.01397E+03 -3.34073E+03  4.88834E+03 -2.40573E+03  6.27927E+03 -5.74447E+02
  7.57388E+03  2.04978E+03  3.74663E+03  6.74759E+03 -1.39139E+03  7.67771E+03 -8.90581E+03  6.70259E+03
 -1.02770E+04 -1.12242E+03 -6.17601E+03 -7.22136E+03 -7.95516E+02 -1.10662E+04  6.20033E+03 -1.11435E+04
  1.13659E+04 -6.65786E+03  1.36781E+04  1.54970E+03  9.14374E+03  8.67311E+03  1.93279E+03  1.27857E+04
 -5.28526E+03  1.04484E+04 -7.15902E+03  4.24513E+03 -4.60277E+03 -1.29096E+03 -1.76044E+03 -1.45036E+03
 -9.37553E+02 -4.57315E+02 -1.45947E+03  2.35427E+03 -4.27529E+03  2.07474E+03 -7.61821E+03 -1.05107E+03
 -4.40992E+03 -7.83985E+03  1.56195E+02 -9.45806E+03  5.98835E+03 -8.74174E+03  1.01614E+04 -2.76505E+03
  9.90898E+03  4.99278E+03  4.54098E+03  8.64942E+03 -1.89674E+03  1.04172E+04 -6.72680E+03  5.74372E+03
 -9.17163E+03  8.19265E+02 -7.51138E+03 -5.95796E+03  2.51173E+02 -8.39645E+03  4.60292E+03 -5.24933E+03
  6.12836E+03 -2.28471E+03  4.10608E+03  1.79983E+03  2.69064E+03  2.84090E+03  9.95399E+02  7.55381E+02
  1.64082E+03  1.26879E+03  2.52120E+03  1.50805E+03  3.17219E+03  3.95155E+03  3.26253E+03  4.89802E+03
 -2.06267E+03  7.66063E+03 -6.92207E+03  8.63468E+03 -9.51914E+03  2.81113E+03 -1.07850E+04 -3.65284E+03
 -4.89884E+03 -1.06782E+04  1.62097E+03 -1.12856E+04  5.67095E+03 -6.16416E+03  7.65578E+03 -1.44810E+03
  5.85885E+03  3.85470E+03  1.43767E+03  5.54915E+03 -2.63845E+03  3.88020E+03 -3.66010E+03  1.80747E+01
 -1.76258E+03 -3.96394E+03  1.71567E+03 -4.12373E+03  3.40020E+03 -1.64657E+03  4.07447E+03  1.14436E+03
  2.03012E+03  1.90741E+03  1.05279E+03  9.50580E+02 -8.39584E+02  1.90593E+03  8.32490E+02 -7.52146E+01
  1.58073E+03 -4.48099E+02  3.83242E+03  1.73906E+03  1.64789E+03  5.13492E+03 -7.06157E+02  7.09161E+03
 -4.69405E+03  3.51758E+03 -6.13882E+03  9.15563E+02 -5.10808E+03 -2.51460E+03 -2.11297E+03 -3.59466E+03
  2.52674E+02 -3.05065E+03  2.63244E+03 -2.09677E+03  2.16679E+03  2.37270E+03 -1.05487E+03  3.24714E+03
 -4.70765E+03  2.91222E+03 -3.68231E+03 -2.12135E+03 -2.39906E+03 -4.78970E+03  9.28823E+02 -5.09868E+03
  3.18843E+03 -3.03434E+03  3.18001E+03 -9.61653E+01  4.07039E+03  9.80958E+02  4.19583E+02  3.96475E+03
 -1.52199E+03  8.85707E+02 -2.09987E+03 -1.69902E+03  1.56386E+03 -3.38760E+03  4.88952E+03 -3.50007E+03
  6.24717E+03  4.29649E+02  5.77179E+03  4.46375E+03  1.98757E+03  5.42474E+03 -2.15399E+03  6.20284E+03
 -4.41123E+03  1.85093E+03 -5.14309E+03 -3.21946E+02 -2.48988E+03 -4.18988E+03  1.28674E+03 -3.26171E+03
  4.01678E+03 -1.46158E+03  3.02671E+03  1.90864E+03  1.11405E+03  3.80923E+03 -2.41557E+02  3.24644E+03
 -1.43409E+03  1.22686E+03 -8.42445E+02  1.46395E+02 -1.20315E+03  7.29481E+02 -1.36379E+03  1.53063E+03
 -1.36786E+03  2.04135E+03 -4.07317E+03  2.02022E+03 -6.04464E+03  6.09264E+01 -6.55296E+03 -3.58661E+03
 -2.58184E+03 -7.50077E+03  1.15160E+03 -8.78943E+03  4.67757E+03 -6.69108E+03  8.45895E+03 -2.86268E+03
  8.23849E+03  1.67374E+03  5.47637E+03  5.79814E+03  1.22532E+02  5.96056E+03 -2.25692E+03  5.10466E+03
 -3.94706E+03  2.38689E+03 -1.97900E+03 -6.85064E+02 -1.14507E+03 -4.89124E+02 -8.82170E+02  2.78425E+02
 -8.90293E+02  2.75531E+02 -1.49962E+03  3.25087E+01 -2.82828E+02 -7.56597E+02 -7.11666E+02 -1.95297E+03
  2.16705E+03 -2.14278E+03  3.36129E+03  4.00588E+02  3.93327E+03  3.83729E+03  1.79866E+02  6.09762E+03
 -2.23484E+03  7.16193E+03 -6.39893E+03  4.19273E+03 -6.96893E+03 -2.94584E+02 -5.00494E+03 -4.63563E+03
 -2.65000E+03 -6.03256E+03  7.04362E+02 -5.55232E+03  3.30449E+03 -2.42898E+03  3.66943E+03  3.59936E+02
  2.34494E+03  1.71898E+03  2.95766E+02  1.86791E+03 -1.47924E+03 -3.84551E+02  2.46069E+02 -1.04710E+03
  1.35764E+03 -1.05417E+03  2.41322E+03  1.24275E+03  1.33171E+03  2.15655E+03  4.20028E+02  2.30815E+03
 -2.77703E+03  2.10886E+03 -4.06062E+03  4.70970E+02 -2.94670E+03 -2.27043E+03 -1.01482E+03 -4.43122E+03
  2.92922E+03 -3.75537E+03  4.21360E+03 -1.03465E+03  4.37817E+03  1.03646E+03  2.39602E+03  3.30110E+03
  6.78320E+02  3.75744E+03 -1.51637E+03  2.82322E+03 -2.69187E+03  1.85944E+03 -1.42408E+03  4.17329E+02
 -7.34470E+02 -2.66258E+02 -1.02029E+03  1.82674E+02 -2.19612E+03  5.57816E+02 -3.07929E+03 -7.77485E+02
 -2.96038E+03 -1.66142E+03 -1.31219E+03 -3.83368E+03  2.18111E+03 -3.94195E+03  3.57284E+03 -1.26694E+03
  3.56976E+03  5.57287E+02  8.92274E+02  2.80657E+03  4.73640E+02  4.30877E+03 -2.35953E+03  2.55777E+03
