 $NMID ID='MM_0lb_SNR400_17hz_g60_16.RAW', FMTDAT='(8E13.5)'
 TRAMP=1., VOLUME=1. $END
  3.09783E+05  3.89528E+02  3.37917E+05  2.50865E+05  8.46994E+04  3.38146E+05 -1.32717E+05  2.51268E+05
 -1.90228E+05  8.27686E+04 -1.11891E+05 -3.20478E+04  1.02352E+03 -5.03710E+04  5.36024E+04 -2.07989E+02
  3.53722E+04  5.28201E+04 -1.67673E+04  7.59494E+04 -6.07890E+04  6.38525E+04 -8.37632E+04  3.23083E+04
 -8.09270E+04 -1.15225E+04 -5.71831E+04 -5.16702E+04 -1.54271E+04 -6.95092E+04  2.77187E+04 -4.59800E+04
  3.97329E+04  3.81889E+03  1.58305E+04  4.83153E+04 -3.41593E+04  4.73313E+04 -6.68687E+04 -4.98418E+02
 -5.28607E+04 -5.69440E+04 -6.07816E+03 -7.67329E+04  3.43422E+04 -5.51837E+04  4.77199E+04 -1.70848E+04
  4.32810E+04  1.10264E+04  3.18211E+04  2.49823E+04  1.61137E+04  2.93971E+04 -4.89444E+03  2.68874E+04
 -2.22740E+04  1.20298E+04 -1.91217E+04 -4.67756E+03  5.06352E+03 -7.96853E+03  2.19620E+04  1.20490E+04
  7.01399E+03  3.49058E+04 -3.19615E+04  3.49864E+04 -6.33868E+04  1.96015E+03 -5.70847E+04 -4.24799E+04
 -1.21308E+04 -6.29033E+04  3.96464E+04 -4.49635E+04  5.75343E+04 -2.37838E+03  3.37299E+04  3.21186E+04
 -6.41276E+03  3.55428E+04 -2.99475E+04  1.57316E+04 -3.05303E+04 -4.46363E+03 -1.62771E+04 -1.10566E+04
 -8.27838E+03 -1.30319E+04 -5.63013E+02 -1.80212E+04  7.63354E+03 -2.29536E+04  1.56160E+04 -1.32718E+04
  1.23316E+04  4.75399E+03 -8.12069E+03  1.30953E+04 -2.08993E+04 -3.89164E+03 -8.52021E+03 -3.31662E+04
  2.27104E+04 -4.29094E+04  4.73626E+04 -1.91206E+04  4.38666E+04  1.97588E+04  1.57836E+04  4.42298E+04
 -1.61733E+04  3.31737E+04 -2.50233E+04  1.18838E+03 -9.46571E+03 -2.72350E+04  2.04586E+04 -3.28079E+04
  4.06992E+04 -9.32903E+03  3.45378E+04  2.36095E+04  1.78367E+04  4.59043E+04 -8.00690E+03  4.90318E+04
 -3.09893E+04  3.33574E+04 -4.12683E+04  9.17211E+03 -4.21499E+04 -1.62291E+04 -2.31008E+04 -3.73136E+04
  7.41921E+03 -3.65179E+04  3.09685E+04 -1.40856E+04  2.90727E+04  1.10942E+04  3.75311E+03  1.86943E+04
 -1.35776E+04  8.45038E+03 -1.02286E+04 -7.74671E+03  5.41144E+03 -1.05042E+04  1.77758E+04  6.64026E+03
  1.28482E+04  2.18055E+04 -5.97358E+03  2.47457E+04 -2.20594E+04  1.06014E+04 -2.69081E+04 -5.51908E+03
 -1.92651E+04 -1.75120E+04 -7.50380E+03 -1.97036E+04  3.40923E+03 -1.81478E+04  1.52885E+04 -1.72425E+04
  2.54161E+04 -1.25484E+04  3.18572E+04  2.95102E+03  2.31016E+04  1.93514E+04  4.33877E+03  3.53912E+04
 -1.69361E+04  2.91954E+04 -2.73511E+04  9.85452E+03 -1.98246E+04 -1.02164E+04 -4.72482E+03 -1.33330E+04
  1.75159E+03 -2.95717E+03 -4.46335E+03  6.57704E+03 -1.57422E+04  4.92055E+03 -1.53643E+04 -6.67229E+03
 -9.47134E+03 -1.81885E+04  4.87470E+03 -2.20993E+04  1.40382E+04 -1.57232E+04  1.68392E+04 -1.87415E+03
  1.10535E+04  1.23159E+04 -8.51397E+02  1.78256E+04 -1.24621E+04  9.99627E+03 -1.74172E+04 -4.22974E+03
 -1.34312E+04 -1.61687E+04 -1.89960E+03 -2.16139E+04  9.79867E+03 -1.77770E+04  1.81411E+04 -8.35291E+03
  1.69206E+04  8.50894E+01  1.16470E+04  4.52810E+03  6.05801E+03  9.63281E+02  9.17025E+03 -1.95450E+03
  1.59233E+04  2.45839E+03  1.76522E+04  1.43684E+04  1.13300E+04  2.88103E+04 -2.87144E+03  3.14417E+04
 -1.83774E+04  2.40580E+04 -2.93725E+04  1.17115E+04 -3.01778E+04 -1.89829E+03 -2.53647E+04 -1.79800E+04
 -1.09438E+04 -2.52879E+04  9.02265E+03 -2.26846E+04  1.99753E+04 -1.20721E+04  1.80641E+04  4.65033E+03
  7.40001E+03  1.26831E+04 -8.11328E+03  1.17574E+04 -1.50822E+04  2.58122E+03 -1.15891E+04 -9.45468E+03
 -9.20503E+02 -1.36305E+04  6.83536E+03 -1.07159E+04  9.97617E+03 -1.26549E+03  2.58609E+03  6.57331E+03
 -6.40492E+03  2.10434E+03 -4.59900E+03 -5.02383E+03 -9.91602E+01 -1.15782E+04  8.63332E+03 -1.22362E+04
  1.47810E+04 -6.42631E+03  1.50092E+04  2.78979E+03  1.30864E+04  1.15089E+04  5.95292E+03  1.79488E+04
 -2.54317E+03  1.97620E+04 -1.19859E+04  1.28478E+04 -1.43903E+04  3.30784E+03 -1.01341E+04 -2.35845E+03
 -4.74744E+03 -4.33296E+03 -4.92164E+02  9.62223E+02 -2.40596E+03  1.90824E+03 -4.64722E+03  4.37322E+03
 -9.14452E+03 -9.82691E+02 -1.04574E+04 -9.03435E+03 -3.98581E+03 -1.33090E+04  3.79462E+03 -1.00559E+04
  8.69476E+03 -4.43890E+03  6.22616E+03  2.96239E+03  2.16415E+02  3.68583E+03 -3.60432E+03 -1.07331E+02
 -3.93245E+03 -6.69984E+03 -2.79247E+02 -9.55740E+03  4.80831E+03 -9.81105E+03  1.17471E+04 -4.90447E+03
  1.42177E+04  8.00957E+02  1.04844E+04  7.74922E+03  2.35689E+03  1.07376E+04 -5.73899E+03  9.30881E+03
 -8.18774E+03  3.35236E+03 -4.17359E+03 -1.76176E+03  1.62978E+03 -3.01424E+03  5.51819E+03 -1.03688E+03
  4.60992E+03  4.86392E+03  9.37070E+02  7.95453E+03 -6.06152E+03  7.51228E+03 -9.51967E+03  2.38297E+03
 -6.12371E+03 -4.39063E+03  5.51799E+02 -7.51822E+03  4.92707E+03 -4.23538E+03  4.32679E+03  1.55669E+03
  8.89141E+02  4.81711E+03 -4.56979E+03  6.68038E+03 -7.09208E+03  3.42585E+03 -5.62926E+03 -1.70099E+03
 -3.97780E+03 -7.44398E+03  1.29503E+03 -9.85831E+03  7.87173E+03 -6.07427E+03  7.98046E+03  1.38650E+03
  5.87448E+03  6.61690E+03 -1.02914E+02  9.15832E+03 -6.77524E+03  4.51484E+03 -6.50304E+03 -7.70435E+02
 -6.44380E+03 -6.02079E+03 -1.43912E+03 -6.00472E+03  2.87448E+03 -5.25964E+03  3.81115E+03 -2.51101E+03
  3.33178E+03  1.39145E+02 -3.55038E+01  1.52237E+03  6.99070E+02 -1.45462E+03  6.21799E+02 -3.24345E+03
  4.98621E+03 -1.11355E+03  7.28678E+03  2.97012E+02  7.35808E+03  4.22061E+03  6.14432E+03  9.85881E+03
 -2.17592E+03  1.08451E+04 -1.02058E+04  8.73426E+03 -1.24828E+04  1.26942E+03 -9.72478E+03 -3.58028E+03
 -5.65794E+03 -8.18976E+03 -4.05058E+02 -6.73623E+03  2.12475E+03 -2.76948E+03  2.76802E+03 -2.29640E+03
  1.52383E+03 -1.85234E+03  2.79383E+03 -2.54409E+03  3.96295E+03 -1.87162E+03  4.31856E+03  3.93773E+02
  5.89028E+03  1.73052E+03  2.26363E+03  4.21393E+03 -1.64239E+03  4.05107E+03 -5.83155E+03  3.75700E+03
 -6.55758E+03 -1.13466E+03 -3.09043E+03 -3.92080E+03  2.43990E+02 -6.55437E+03  3.95986E+03 -6.47978E+03
  7.40767E+03 -3.50829E+03  8.68511E+03  4.48372E+02  5.98751E+03  5.62719E+03  5.14071E+02  7.27361E+03
 -3.05780E+03  7.05628E+03 -4.32939E+03  2.22343E+03 -2.96552E+03 -1.18998E+03 -9.03798E+02 -8.83192E+02
 -1.16524E+03  1.03436E+02 -1.08244E+03  1.62264E+03 -2.86659E+03  1.38526E+03 -4.87211E+03 -4.71866E+02
 -2.27614E+03 -4.57948E+03  7.98035E+02 -5.95600E+03  3.76056E+03 -5.37792E+03  5.04237E+03 -1.28949E+03
  5.10040E+03  3.22044E+03  3.17281E+03  4.30266E+03 -1.16502E+03  6.10272E+03 -3.62563E+03  3.69437E+03
 -4.89299E+03  4.74139E+02 -4.11558E+03 -3.36061E+03 -7.14999E+02 -4.41473E+03  2.39776E+03 -3.13022E+03
  3.84855E+03 -1.47823E+03  2.21036E+03  3.44885E+02  1.09003E+03  1.76708E+03  1.16392E+03  6.65431E+02
  2.23566E+03  9.56529E+02  1.87227E+03  1.44956E+03  1.81322E+03  2.56795E+03  1.33149E+03  2.12047E+03
 -1.69906E+03  3.65593E+03 -3.16451E+03  5.23836E+03 -4.28801E+03  1.85327E+03 -5.34090E+03 -6.61314E+02
 -2.39947E+03 -4.54484E+03  1.01189E+03 -5.82285E+03  2.59763E+03 -3.20497E+03  3.81248E+03 -8.69727E+02
  2.81948E+03  2.45625E+03  7.59315E+02  3.18363E+03 -7.00316E+02  1.55093E+03 -1.45760E+03 -2.27837E+02
 -8.23157E+02 -1.99626E+03  1.08414E+03 -1.73573E+03  2.16213E+03 -1.12305E+03  1.97715E+03  1.09168E+03
  6.87206E+02  4.03908E+02  8.49762E+02 -5.99456E+01  7.45235E+02  2.09230E+02  1.05908E+03  6.95800E+01
  3.70998E+01 -5.22259E+02  1.99202E+03  7.01475E+02  3.25091E+02  3.21280E+03 -8.72902E+02  3.83666E+03
 -2.41776E+03  1.32679E+03 -2.46143E+03  1.36522E+02 -2.96076E+03 -8.70317E+02 -5.04343E+02 -1.70916E+03
  3.01571E+02 -1.47801E+03  7.64498E+02 -1.10450E+03  1.19110E+03  1.82344E+03 -5.69714E+02  1.47018E+03
 -1.37508E+03  1.42468E+03 -1.61650E+03 -1.71121E+03 -9.39444E+02 -1.99959E+03 -1.83253E+02 -1.39280E+03
  7.58311E+02 -8.90172E+02  1.55476E+03  4.04907E+02  2.37569E+03  4.43666E+02  2.98965E+02  1.47670E+03
 -6.80612E+02  3.18439E+02 -1.11084E+03 -1.58410E+02  4.71320E+02 -1.75428E+03  2.35472E+03 -1.46833E+03
  2.51042E+03  7.62241E+02  3.48949E+03  9.37390E+02  1.32460E+03  2.52578E+03 -5.95011E+02  2.77273E+03
 -1.73530E+03  5.99674E+02 -2.37434E+03  2.88609E+02 -1.26801E+03 -1.19196E+03  3.84153E+02 -6.92348E+02
  1.50368E+03 -7.83549E+02  6.85113E+02  1.01077E+03  4.03723E+02  1.80460E+03  1.45742E+02  1.12937E+03
 -1.80092E+02  1.17193E+03 -1.71869E+02 -1.14225E+00 -2.07564E+02  1.06051E+02 -9.56660E+02  1.12700E+03
 -4.12096E+02  1.19624E+03 -2.16611E+03  4.27350E+02 -2.18861E+03  3.07568E+01 -2.90256E+03 -1.49066E+03
 -9.99044E+02 -3.17446E+03  7.87834E+02 -3.70430E+03  1.46576E+03 -3.01006E+03  4.17979E+03 -8.40964E+02
  2.92137E+03 -1.40495E+01  1.33301E+03  2.51403E+03 -6.82468E+02  2.63934E+03 -1.28110E+03  2.32469E+03
 -1.37155E+03  8.33342E+02 -5.78851E+02 -2.85902E+02 -5.00364E+02  4.48863E+02 -1.13714E+03  4.22497E+02
 -1.22681E+03 -2.84733E+02 -1.27148E+03  3.71877E+02  1.06001E+02 -4.68488E+02 -2.93010E+02 -7.49640E+02
  1.27443E+03 -8.14184E+02  1.48283E+03  5.20805E+01  1.30159E+03  1.83118E+03  1.40212E+02  1.51106E+03
 -1.52265E+03  3.28486E+03 -2.75031E+03  1.61335E+03 -2.25243E+03 -2.99957E+02 -1.55098E+03 -1.72797E+03
 -1.33935E+03 -2.00191E+03  6.65362E+02 -1.62689E+03  9.10099E+02 -1.17278E+03  6.99406E+02 -3.99657E+02
  8.94482E+02 -4.75145E+01 -2.12946E+02  9.86682E+02  4.05751E+01 -2.31071E+02 -2.47712E+02 -2.47087E+02
  9.97750E+02  7.07379E+01  4.56977E+02  8.78829E+02  6.97738E+02  1.00495E+02  2.96230E+02  9.08671E+01
 -5.22472E+02  7.46406E+02 -3.23384E+02 -3.69606E+02 -1.06121E+03 -2.86985E+02  1.05449E+02 -1.54102E+03
  1.19995E+03 -1.32105E+03  9.82066E+02  2.12083E+02  1.59706E+03 -6.92212E+02  3.62894E+02  1.12666E+03
  6.54070E+02  7.07372E+02 -1.00641E+02  6.70064E+02 -9.08154E+02  5.88115E+02 -1.58361E+02  5.96953E+02
 -4.73434E+02 -1.67518E+01 -4.51882E+02  1.70263E+02 -9.76065E+02 -2.36004E+02 -1.19834E+03 -5.52076E+02
 -1.41922E+03  5.35056E+02 -4.53681E+02 -1.02134E+03  1.01074E+03 -1.33022E+03  6.80857E+02 -7.82265E+02
  1.06983E+03 -1.41394E+02  6.30536E+02  5.91838E+01 -4.00277E+01  8.85918E+02 -8.27653E+02  1.01951E+03
