 $NMID ID='MM_0lb_SNR400_17hz_g40_62.RAW', FMTDAT='(8E13.5)'
 TRAMP=1., VOLUME=1. $END
  3.10102E+05  1.07932E+02  3.37071E+05  2.50340E+05  8.42898E+04  3.36949E+05 -1.32460E+05  2.50254E+05
 -1.89723E+05  8.21815E+04 -1.11168E+05 -3.27350E+04  1.82543E+03 -5.03400E+04  5.40598E+04  1.97488E+02
  3.50061E+04  5.26974E+04 -1.63928E+04  7.45458E+04 -6.05546E+04  6.23802E+04 -8.33189E+04  3.12380E+04
 -7.98936E+04 -1.05291E+04 -5.67137E+04 -4.99108E+04 -1.50469E+04 -6.76038E+04  2.61493E+04 -4.52225E+04
  3.92541E+04  3.89404E+03  1.56663E+04  4.69250E+04 -3.41766E+04  4.60859E+04 -6.58365E+04 -7.96624E+02
 -5.22161E+04 -5.59105E+04 -6.45716E+03 -7.50414E+04  3.29989E+04 -5.35035E+04  4.65454E+04 -1.64818E+04
  4.19873E+04  1.11591E+04  3.03399E+04  2.45913E+04  1.57679E+04  2.84076E+04 -5.30284E+03  2.70536E+04
 -2.18385E+04  1.33220E+04 -1.96955E+04 -4.36166E+03  4.60956E+03 -7.58623E+03  2.12463E+04  1.08845E+04
  7.57415E+03  3.34596E+04 -3.10974E+04  3.47776E+04 -6.18990E+04  2.28154E+03 -5.46290E+04 -4.09332E+04
 -1.27691E+04 -6.08752E+04  3.78392E+04 -4.33993E+04  5.55348E+04 -2.18198E+03  3.20868E+04  3.10268E+04
 -6.46134E+03  3.35367E+04 -2.86623E+04  1.38208E+04 -2.80794E+04 -5.48780E+03 -1.45692E+04 -1.04851E+04
 -7.50419E+03 -1.15959E+04 -8.13721E+02 -1.67833E+04  6.71895E+03 -2.27136E+04  1.49896E+04 -1.36212E+04
  1.22792E+04  4.47273E+03 -6.62385E+03  1.31236E+04 -1.93206E+04 -3.34291E+03 -7.68241E+03 -3.03438E+04
  2.05850E+04 -4.01043E+04  4.52091E+04 -1.83911E+04  4.22657E+04  1.82044E+04  1.49464E+04  4.20766E+04
 -1.51741E+04  3.13004E+04 -2.31683E+04  1.29699E+03 -8.49062E+03 -2.65510E+04  2.09825E+04 -3.15032E+04
  3.81727E+04 -7.39531E+03  3.22666E+04  2.28155E+04  1.51810E+04  4.30172E+04 -8.24259E+03  4.54603E+04
 -2.90236E+04  3.00204E+04 -3.71977E+04  8.61165E+03 -3.91171E+04 -1.50413E+04 -2.12448E+04 -3.50741E+04
  6.86375E+03 -3.49831E+04  2.94064E+04 -1.31707E+04  2.73576E+04  1.09580E+04  3.43539E+03  1.74554E+04
 -1.29804E+04  7.81098E+03 -9.87507E+03 -7.80329E+03  6.04677E+03 -9.92761E+03  1.74232E+04  6.58305E+03
  1.22770E+04  2.16575E+04 -6.83273E+03  2.38554E+04 -2.17947E+04  1.00155E+04 -2.55478E+04 -6.17926E+03
 -1.74757E+04 -1.67849E+04 -6.05845E+03 -1.71774E+04  3.63299E+03 -1.54110E+04  1.32835E+04 -1.49245E+04
  2.16744E+04 -1.13524E+04  2.93320E+04  7.75963E+02  2.12762E+04  1.71198E+04  4.38567E+03  3.30038E+04
 -1.66010E+04  2.76152E+04 -2.63887E+04  9.73193E+03 -1.98442E+04 -1.05106E+04 -3.68205E+03 -1.36623E+04
  2.64440E+03 -3.36811E+03 -3.13918E+03  4.95719E+03 -1.36936E+04  5.09703E+03 -1.35023E+04 -5.01031E+03
 -8.18539E+03 -1.59814E+04  4.75531E+03 -1.95428E+04  1.30900E+04 -1.44547E+04  1.48965E+04 -1.34314E+03
  9.49393E+03  1.10630E+04 -6.31254E+02  1.63786E+04 -1.04403E+04  8.86005E+03 -1.57625E+04 -3.63349E+03
 -1.16657E+04 -1.48706E+04 -2.16751E+03 -1.97257E+04  9.29661E+03 -1.58700E+04  1.61695E+04 -7.81149E+03
  1.48717E+04  1.63437E+02  1.09717E+04  3.62414E+03  5.78139E+03  5.09829E+02  7.76196E+03 -1.62046E+03
  1.45784E+04  2.89791E+03  1.54013E+04  1.36091E+04  9.83147E+03  2.58639E+04 -2.86191E+03  2.76359E+04
 -1.63121E+04  2.17698E+04 -2.54066E+04  9.89983E+03 -2.63656E+04 -1.79325E+03 -2.24650E+04 -1.54234E+04
 -1.08846E+04 -2.12653E+04  6.79707E+03 -2.00514E+04  1.74709E+04 -1.12361E+04  1.57782E+04  3.86948E+03
  6.75681E+03  1.14529E+04 -7.55623E+03  1.07379E+04 -1.38690E+04  2.20192E+03 -1.09414E+04 -8.17848E+03
 -1.20370E+02 -1.25757E+04  6.09693E+03 -9.34542E+03  8.54679E+03 -1.24937E+03  1.33508E+03  5.84044E+03
 -6.51881E+03  1.91492E+03 -4.19045E+03 -4.59794E+03  7.18547E+02 -1.10259E+04  8.31052E+03 -1.06063E+04
  1.25104E+04 -5.13532E+03  1.30436E+04  3.57654E+03  1.06739E+04  9.98170E+03  5.17982E+03  1.50998E+04
 -2.22799E+03  1.70168E+04 -1.07091E+04  1.05752E+04 -1.20972E+04  3.37127E+03 -8.88182E+03 -2.21909E+03
 -4.40557E+03 -3.69634E+03 -5.29838E+02  1.32637E+03 -2.02123E+03  2.53937E+03 -3.94967E+03  4.10637E+03
 -8.56683E+03 -6.51700E+02 -8.92927E+03 -7.54879E+03 -3.44005E+03 -1.23274E+04  3.63579E+03 -8.70833E+03
  7.53516E+03 -3.52211E+03  5.73949E+03  1.89433E+03  4.78487E+02  3.43114E+03 -4.05125E+03 -2.29066E+02
 -3.33359E+03 -5.47803E+03 -7.00345E+02 -7.70746E+03  4.22789E+03 -8.01440E+03  1.11677E+04 -4.05846E+03
  1.20639E+04  1.02193E+03  8.67348E+03  7.00343E+03  1.86158E+03  9.31497E+03 -5.25648E+03  8.58610E+03
 -7.05836E+03  2.94209E+03 -3.90771E+03 -1.17853E+03  9.02331E+02 -2.36408E+03  4.77417E+03 -6.03513E+02
  4.34852E+03  3.36681E+03  8.68910E+02  6.87626E+03 -4.80791E+03  6.53818E+03 -8.47384E+03  1.53432E+03
 -5.35291E+03 -4.37472E+03  3.49822E+02 -7.38118E+03  3.65040E+03 -2.79891E+03  4.10807E+03  8.87451E+02
  9.21754E+02  3.71294E+03 -4.82418E+03  5.39614E+03 -4.87024E+03  2.72146E+03 -5.41592E+03 -1.64722E+03
 -2.89989E+03 -6.97622E+03  1.70364E+03 -7.82040E+03  6.58875E+03 -4.69309E+03  7.30885E+03  9.98976E+02
  4.89791E+03  6.23586E+03 -4.67411E+02  8.00493E+03 -5.69501E+03  4.22858E+03 -5.41656E+03 -7.03584E+02
 -6.01468E+03 -5.25775E+03 -1.23541E+03 -5.45748E+03  3.07950E+03 -4.98004E+03  3.58892E+03 -3.65237E+03
  3.13801E+03  3.62525E+02  1.66607E+02  1.10901E+03  5.17301E+02 -5.28973E+02  8.10156E+02 -2.79196E+03
  4.07012E+03 -1.43485E+03  5.95196E+03  1.06680E+03  6.62488E+03  3.21409E+03  5.95817E+03  8.57951E+03
 -1.25007E+03  9.18265E+03 -8.83629E+03  7.49124E+03 -1.13584E+04  1.07720E+03 -8.61034E+03 -3.80867E+03
 -4.58043E+03 -6.74130E+03 -4.10341E+02 -5.46950E+03  2.50453E+03 -2.67241E+03  1.73661E+03 -2.12784E+03
  1.22107E+03 -1.18209E+03  2.36381E+03 -2.59632E+03  4.01863E+03 -1.00138E+03  4.43024E+03  4.49006E+02
  4.62464E+03  1.62130E+03  1.48888E+03  3.76706E+03 -1.47046E+03  3.47606E+03 -5.25998E+03  3.36926E+03
 -5.27991E+03 -9.49007E+02 -1.91538E+03 -3.47382E+03 -4.30907E+02 -4.91310E+03  3.37546E+03 -5.97921E+03
  6.09461E+03 -4.10144E+03  7.36535E+03  6.65456E+02  5.91928E+03  4.94156E+03  1.48863E+03  6.29384E+03
 -2.65181E+03  6.15680E+03 -3.63868E+03  2.61336E+03 -1.95095E+03 -1.74971E+03 -2.93456E+02 -7.73356E+02
 -3.81793E+02  2.68483E+02 -9.18195E+02  2.52476E+03 -2.02023E+03  1.72235E+03 -4.20503E+03 -9.46445E+02
 -2.23073E+03 -4.65923E+03  9.59476E+02 -4.95579E+03  3.18655E+03 -4.74408E+03  4.75005E+03 -1.42038E+03
  4.94010E+03  2.52171E+03  2.34055E+03  4.37634E+03 -5.46320E+02  5.48183E+03 -3.31972E+03  3.00803E+03
 -5.03950E+03  3.97603E+02 -3.73024E+03 -2.74682E+03 -8.11402E+02 -4.00028E+03  2.19142E+03 -2.62878E+03
  3.17519E+03 -1.76607E+03  2.13935E+03  6.50005E+02  8.45125E+02  1.97918E+03  9.33879E+02  8.82846E+02
  1.70456E+03  6.61962E+02  1.05071E+03  5.03572E+02  1.04389E+03  2.49121E+03  2.05403E+03  1.78576E+03
 -1.63317E+03  3.53915E+03 -3.12755E+03  5.07047E+03 -3.47477E+03  1.26471E+03 -4.76777E+03 -9.74521E+02
 -2.04809E+03 -4.66454E+03  2.11817E+02 -5.38972E+03  2.42304E+03 -3.18413E+03  4.17247E+03 -1.09398E+03
  3.42916E+03  1.73667E+03  8.06827E+02  2.42114E+03 -9.84792E+02  8.48500E+02 -1.64120E+03 -5.78155E+02
 -9.80400E+02 -1.76895E+03  1.17268E+03 -2.11133E+03  2.23140E+03 -1.17129E+03  1.96378E+03  5.70003E+02
  1.32161E+03  6.86822E+02  7.64977E+02  1.10118E+02 -6.51065E+02  1.80735E+02  1.37232E+03 -3.28244E+02
  3.12249E+02 -3.38155E+02  2.05260E+03  5.56796E+02  9.45762E+01  2.99442E+03 -5.74200E+02  3.71205E+03
 -2.28558E+03  1.56609E+03 -2.86260E+03  2.63945E+02 -2.45750E+03 -1.06596E+03 -2.65901E+02 -1.39007E+03
 -4.87903E+01 -1.56785E+03  7.13604E+02 -8.22506E+02  5.60636E+02  1.38278E+03 -1.06665E+03  1.23001E+03
 -1.58509E+03  8.87067E+02 -1.44301E+03 -1.20495E+03 -1.11485E+03 -2.36564E+03  8.83358E+02 -1.61292E+03
  2.46396E+02 -6.42943E+02  1.02402E+03  6.36008E+02  1.15709E+03  3.63538E+02  4.89003E+02  1.41448E+03
 -2.59730E+02 -2.10388E+02 -1.36808E+03 -2.46458E+02  1.22070E+03 -1.73746E+03  2.14286E+03 -5.73668E+02
  1.98634E+03 -2.65140E+02  3.73246E+03  1.18314E+03  1.13064E+03  2.20425E+03 -7.49540E+02  1.36894E+03
 -1.39839E+03 -2.12052E+02 -2.03164E+03  3.74501E+02 -9.15037E+02 -1.09711E+03  3.12995E+02 -9.80313E+02
  1.87589E+03 -2.63223E+02  5.65357E+02  1.13585E+03  8.77102E+02  1.18298E+03 -1.41368E+02  9.72621E+02
 -7.60828E+02  1.81195E+03 -8.84367E+02  5.14471E+02  3.45584E+02  6.30414E+00 -6.90323E+02  3.57689E+02
 -3.38779E+02  1.10016E+03 -1.87641E+03  8.10709E+02 -1.96485E+03 -9.94628E+01 -3.29300E+03 -1.22147E+03
 -1.58919E+03 -3.40463E+03  9.34687E+02 -3.99358E+03  1.59137E+03 -2.66330E+03  3.21547E+03 -1.21398E+03
  3.66399E+03  2.27748E+02  1.75785E+03  2.40992E+03 -7.53235E+02  2.27082E+03 -7.80933E+02  1.44864E+03
 -1.32090E+03  8.96401E+02 -7.87580E+02 -8.09599E+00 -3.23223E+02  2.71239E+02 -9.40624E+02 -3.14805E+02
 -1.64526E+03 -4.19425E+02 -1.20379E+03 -3.69778E+02 -2.69123E+02 -5.30663E+02 -5.61605E+02 -1.77143E+03
  1.92216E+03 -4.05166E+02  1.32717E+03  1.05744E+02  1.80959E+03  1.38032E+03 -2.41524E+02  1.48932E+03
 -1.18186E+03  2.73398E+03 -1.95564E+03  1.98657E+03 -3.13726E+03 -1.98387E+02 -1.76886E+03 -1.84944E+03
 -7.72588E+02 -2.16295E+03  2.50108E+02 -1.59448E+03  3.13614E+02 -1.11992E+03  1.13689E+03 -2.11012E+02
  1.00087E+03  8.61736E+02  2.57633E+02  7.68610E+02 -4.98095E+02  1.48591E+02  1.98644E+02 -2.01839E+02
  5.62920E+02  2.72368E+02  5.35857E+02  2.26710E+01  2.97565E+02  1.13319E+02  2.66444E+02  1.41500E+03
 -5.33876E+02  1.97741E+02 -5.70159E+02 -1.15023E+02 -1.05008E+03 -7.33053E+02  7.87220E+02 -1.15420E+03
  1.40337E+02 -8.03819E+02  1.32453E+03 -4.65284E+02  1.22913E+03 -1.82403E+02  9.95132E+02  7.05291E+02
  1.41292E+03  6.71930E+02 -1.46530E+01  1.32116E+03 -1.00153E+03  8.14572E+02 -6.39308E+01 -4.21035E+01
 -9.05455E+01 -4.11941E+02 -7.78661E+02  4.17721E+02 -8.39643E+02  1.21330E+02 -9.22619E+02 -3.70249E+02
 -9.94348E+02  1.62090E+02 -3.84841E+02 -7.60271E+02  1.17896E+03 -1.95133E+03  1.20926E+03 -3.26704E+02
  1.04795E+03 -1.51327E+02  8.48625E+01  9.64391E+01 -1.46376E+02  1.25367E+03 -4.04960E+02  7.70237E+02
