 $NMID ID='MM_0lb_SNR400_11hz_g60_2.RAW', FMTDAT='(8E13.5)'
 TRAMP=1., VOLUME=1. $END
  3.09958E+05  4.12867E+02  3.37885E+05  2.51063E+05  8.54845E+04  3.38906E+05 -1.32573E+05  2.52307E+05
 -1.91101E+05  8.35533E+04 -1.12579E+05 -3.25873E+04  2.96203E+02 -5.08737E+04  5.33718E+04 -7.79684E+02
  3.53059E+04  5.28290E+04 -1.67093E+04  7.68276E+04 -6.13064E+04  6.49606E+04 -8.58582E+04  3.18265E+04
 -8.17382E+04 -1.19346E+04 -5.85243E+04 -5.22583E+04 -1.51253E+04 -7.11382E+04  2.73373E+04 -4.72033E+04
  4.08790E+04  3.92698E+03  1.67923E+04  4.86754E+04 -3.45896E+04  4.92044E+04 -6.76555E+04  6.38332E+02
 -5.48930E+04 -5.74132E+04 -6.96645E+03 -7.89108E+04  3.49028E+04 -5.73318E+04  5.00017E+04 -1.83557E+04
  4.46175E+04  1.21268E+04  3.40439E+04  2.62083E+04  1.65727E+04  3.00183E+04 -6.15840E+03  2.73352E+04
 -2.23420E+04  1.24247E+04 -1.83790E+04 -5.60480E+03  6.82184E+03 -6.41244E+03  2.36099E+04  1.36471E+04
  7.23255E+03  3.68989E+04 -3.38894E+04  3.75259E+04 -6.58845E+04  2.02537E+03 -5.87887E+04 -4.45454E+04
 -1.29660E+04 -6.56549E+04  4.18494E+04 -4.66943E+04  6.09459E+04 -2.42234E+03  3.67807E+04  3.42756E+04
 -5.59771E+03  3.92257E+04 -3.16747E+04  1.78182E+04 -3.25461E+04 -3.85071E+03 -1.86758E+04 -1.19831E+04
 -9.18197E+03 -1.33361E+04 -5.37807E+02 -2.02534E+04  8.22399E+03 -2.25318E+04  1.55555E+04 -1.28937E+04
  1.04254E+04  5.60900E+03 -9.85058E+03  1.26216E+04 -2.28910E+04 -6.68793E+03 -9.31052E+03 -3.72184E+04
  2.52129E+04 -4.69339E+04  5.24058E+04 -2.08337E+04  4.75907E+04  2.08020E+04  1.70550E+04  4.68186E+04
 -1.72423E+04  3.60731E+04 -2.74467E+04  2.69452E+03 -1.11820E+04 -2.87266E+04  2.17812E+04 -3.68927E+04
  4.41266E+04 -1.10798E+04  3.96332E+04  2.51949E+04  2.05017E+04  5.06216E+04 -8.75256E+03  5.50861E+04
 -3.56739E+04  3.79487E+04 -4.69095E+04  1.08656E+04 -4.72687E+04 -1.88692E+04 -2.59483E+04 -4.11534E+04
  7.90441E+03 -4.09280E+04  3.34677E+04 -1.67666E+04  3.14988E+04  1.14621E+04  4.82773E+03  2.14654E+04
 -1.38029E+04  9.58894E+03 -1.15283E+04 -8.04899E+03  5.37035E+03 -1.13802E+04  1.92274E+04  5.83918E+03
  1.47255E+04  2.27844E+04 -4.57768E+03  2.70964E+04 -2.36637E+04  1.47052E+04 -3.03825E+04 -3.63995E+03
 -2.45142E+04 -1.77013E+04 -1.13589E+04 -2.44443E+04  4.60496E+03 -2.41395E+04  2.02908E+04 -2.17738E+04
  3.11486E+04 -1.42329E+04  3.77065E+04  4.26359E+03  2.60161E+04  2.35170E+04  4.33038E+03  4.02258E+04
 -1.93282E+04  3.38033E+04 -2.98015E+04  1.15464E+04 -2.20023E+04 -1.01097E+04 -5.56426E+03 -1.29617E+04
  3.92872E+02 -2.03898E+03 -6.87862E+03  7.91655E+03 -1.98785E+04  5.10367E+03 -1.96132E+04 -9.31435E+03
 -1.19162E+04 -2.27791E+04  6.25030E+03 -2.68120E+04  1.82683E+04 -1.91732E+04  2.19329E+04 -1.55468E+03
  1.41422E+04  1.52401E+04 -2.24739E+03  2.16980E+04 -1.62327E+04  1.32897E+04 -2.23549E+04 -4.62876E+03
 -1.61334E+04 -1.96496E+04 -2.39908E+03 -2.70351E+04  1.18231E+04 -2.28876E+04  2.27138E+04 -1.10993E+04
  2.12882E+04  6.90863E+01  1.57358E+04  4.76935E+03  8.38213E+03  1.59894E+03  1.17377E+04 -2.24652E+03
  2.10906E+04  2.97469E+03  2.43357E+04  1.78304E+04  1.63178E+04  3.63798E+04 -2.34113E+03  4.23358E+04
 -2.44520E+04  3.47331E+04 -3.95468E+04  1.85426E+04 -4.22014E+04 -2.59939E+03 -3.43516E+04 -2.57213E+04
 -1.31236E+04 -3.56551E+04  1.28553E+04 -3.09014E+04  2.65819E+04 -1.48344E+04  2.31814E+04  7.44682E+03
  8.19888E+03  1.77243E+04 -1.13384E+04  1.48599E+04 -1.89918E+04  2.68511E+03 -1.36760E+04 -1.21473E+04
 -4.42159E+02 -1.83293E+04  9.96559E+03 -1.39429E+04  1.24048E+04 -1.47926E+03  3.06754E+03  7.80361E+03
 -8.63502E+03  3.17368E+03 -7.13753E+03 -7.15697E+03 -1.15403E+03 -1.70898E+04  1.20390E+04 -1.86332E+04
  2.16949E+04 -1.10628E+04  2.48093E+04  2.83797E+03  2.20840E+04  1.72941E+04  1.03883E+04  2.70565E+04
 -4.52214E+03  2.93120E+04 -1.93338E+04  1.84865E+04 -2.19661E+04  3.47616E+03 -1.42310E+04 -5.33912E+03
 -6.46163E+03 -7.70025E+03 -4.70429E+02  1.06153E+03 -2.84951E+03  4.05258E+03 -6.99765E+03  5.55493E+03
 -1.23677E+04 -9.90049E+02 -1.40999E+04 -1.21133E+04 -5.72549E+03 -1.81739E+04  6.06504E+03 -1.47166E+04
  1.19880E+04 -6.20082E+03  9.33024E+03  4.18815E+03 -1.83596E+01  6.29616E+03 -7.26148E+03 -5.96216E+02
 -7.04012E+03 -9.41498E+03 -1.40074E+03 -1.39425E+04  7.90016E+03 -1.45108E+04  1.86990E+04 -8.42831E+03
  2.17643E+04  2.15469E+03  1.63783E+04  1.34214E+04  3.30585E+03  1.80424E+04 -9.42223E+03  1.41133E+04
 -1.21015E+04  4.35812E+03 -6.20845E+03 -2.44622E+03  2.00804E+03 -3.93529E+03  7.52080E+03 -1.08140E+03
  7.49179E+03  6.26790E+03  7.90296E+02  1.08743E+04 -8.60573E+03  1.15855E+04 -1.45063E+04  3.08977E+03
 -9.74307E+03 -8.43503E+03  4.86934E+02 -1.27114E+04  8.30695E+03 -6.64565E+03  9.34345E+03  2.90162E+03
  1.38315E+03  9.14852E+03 -7.48615E+03  1.02335E+04 -1.20099E+04  5.44245E+03 -1.22410E+04 -4.27444E+03
 -7.02370E+03 -1.43434E+04  3.16606E+03 -1.63570E+04  1.38519E+04 -9.54106E+03  1.52753E+04  2.61186E+03
  9.23799E+03  1.21273E+04 -1.51868E+03  1.38104E+04 -1.03695E+04  7.91439E+03 -1.23972E+04 -1.97098E+03
 -9.69666E+03 -9.66896E+03 -1.80846E+03 -1.06830E+04  5.81983E+03 -9.39389E+03  6.26433E+03 -3.34354E+03
  5.13679E+03  1.76941E+03 -1.51996E+03  1.57134E+03 -6.69969E+02 -3.18905E+03  1.39658E+03 -6.43328E+03
  1.01325E+04 -4.12796E+03  1.42405E+04  1.15506E+03  1.34796E+04  9.58787E+03  9.48869E+03  1.87987E+04
 -4.93811E+03  2.16017E+04 -1.79036E+04  1.55009E+04 -2.33636E+04  3.46419E+03 -1.84812E+04 -8.71504E+03
 -8.62840E+03 -1.48049E+04  4.18466E+02 -1.25586E+04  4.75258E+03 -6.48520E+03  4.64305E+03 -4.60022E+03
  3.57937E+03 -2.78557E+03  3.12427E+03 -3.54973E+03  5.62941E+03 -2.57004E+03  7.28641E+03 -9.35555E+02
  9.96397E+03  2.41510E+03  5.12427E+03  8.63124E+03 -2.43441E+03  9.08403E+03 -9.93759E+03  7.14234E+03
 -1.33698E+04 -1.34407E+03 -8.28029E+03 -8.72675E+03 -7.83920E+02 -1.42042E+04  7.10140E+03 -1.42447E+04
  1.42239E+04 -8.36355E+03  1.75608E+04  2.26362E+03  1.10496E+04  1.16160E+04  1.66070E+03  1.59562E+04
 -6.08016E+03  1.25505E+04 -8.87288E+03  4.79749E+03 -5.76143E+03 -1.39109E+03 -2.57338E+03 -1.94114E+03
 -4.64346E+02 -8.04244E+02 -1.95175E+03  2.36531E+03 -5.45938E+03  2.00829E+03 -8.37291E+03 -8.86259E+02
 -6.41529E+03 -8.65055E+03 -6.07612E+02 -1.29000E+04  8.11444E+03 -1.20467E+04  1.24327E+04 -3.29772E+03
  1.28380E+04  6.58316E+03  6.25527E+03  1.09098E+04 -1.82175E+03  1.21700E+04 -1.00751E+04  7.00555E+03
 -1.20986E+04  6.29936E+02 -8.91433E+03 -6.63450E+03 -1.39362E+03 -1.00479E+04  5.25980E+03 -7.67538E+03
  7.91793E+03 -2.86144E+03  5.15965E+03  1.95389E+03  2.34770E+03  3.99651E+03  1.14222E+03  1.54234E+03
  2.37133E+03  1.38728E+03  2.70003E+03  1.46603E+03  2.79453E+03  5.37647E+03  3.90401E+03  6.27670E+03
 -2.56081E+03  9.64528E+03 -8.70863E+03  9.92817E+03 -1.21676E+04  3.09350E+03 -1.30482E+04 -4.97563E+03
 -5.96466E+03 -1.25318E+04  2.15860E+03 -1.39988E+04  8.03710E+03 -9.12546E+03  1.05439E+04 -2.00108E+03
  8.05356E+03  5.29759E+03  2.30263E+03  7.41864E+03 -3.32365E+03  4.48870E+03 -5.14089E+03 -6.45733E+02
 -2.78555E+03 -5.68288E+03  2.56698E+03 -6.01715E+03  5.33932E+03 -2.59394E+03  4.06507E+03  1.05209E+03
  3.04603E+03  2.62155E+03  1.43183E+03  1.53264E+03 -8.89084E+02  2.06483E+03  1.91894E+03 -6.31403E+02
  1.82876E+03 -7.22602E+02  5.87073E+03  2.26811E+03  3.01154E+03  6.54736E+03 -7.98244E+02  8.77837E+03
 -6.20577E+03  6.29250E+03 -7.60935E+03  1.62898E+03 -7.33258E+03 -2.87042E+03 -2.57137E+03 -4.80830E+03
  9.94807E+02 -4.45973E+03  3.74433E+03 -2.58316E+03  2.73886E+03  2.23265E+03 -1.33686E+03  3.94451E+03
 -5.13861E+03  2.28346E+03 -5.86489E+03 -3.03446E+03 -3.26629E+03 -7.32685E+03  1.15337E+03 -6.85173E+03
  4.24580E+03 -3.97126E+03  4.72319E+03 -8.82547E+02  4.08730E+03  2.13858E+03  6.81573E+02  4.10076E+03
 -2.16270E+03  1.69257E+02 -2.81244E+03 -2.11989E+03  1.03067E+03 -4.96328E+03  5.60862E+03 -4.29037E+03
  7.48776E+03 -6.91991E+00  7.67108E+03  4.27224E+03  2.65742E+03  7.95208E+03 -2.54886E+03  7.55475E+03
 -6.08438E+03  3.13723E+03 -6.59050E+03 -1.40234E+03 -4.05941E+03 -4.40613E+03  1.42869E+03 -4.68536E+03
  4.90373E+03 -2.22565E+03  4.16716E+03  2.24722E+03  1.42176E+03  4.52953E+03 -1.11036E+03  4.55189E+03
 -1.59385E+03  2.37251E+03 -1.65950E+03  7.42795E+02 -1.06250E+03  5.68046E+02 -9.86827E+02  1.52464E+03
 -1.81288E+03  2.94436E+03 -5.89792E+03  3.02470E+03 -8.28497E+03 -2.73156E+02 -9.00070E+03 -4.69054E+03
 -3.79913E+03 -1.03345E+04  2.09557E+03 -1.16161E+04  6.48606E+03 -9.50754E+03  1.08222E+04 -4.49601E+03
  1.05318E+04  2.07670E+03  6.56603E+03  7.99722E+03  2.05864E+00  7.12216E+03 -3.73082E+03  5.36034E+03
 -5.07880E+03  1.43096E+03 -2.56180E+03 -1.17955E+03 -8.84890E+02 -8.07781E+02 -5.96754E+02 -2.21175E+02
 -1.06828E+03 -3.71256E+02 -1.95666E+03  5.62549E+02 -3.47380E+02 -1.77424E+03  4.95110E+02 -3.38957E+03
  3.28625E+03 -2.19230E+03  4.40739E+03  2.14260E+02  5.96272E+03  4.32365E+03  1.38609E+03  7.44597E+03
 -3.90098E+03  8.88783E+03 -8.40276E+03  5.26232E+03 -9.24212E+03 -9.19019E+02 -7.04035E+03 -5.78472E+03
 -3.07999E+03 -8.34153E+03  2.05803E+03 -7.01333E+03  3.97144E+03 -4.38487E+03  5.02646E+03  7.06414E+02
  3.42322E+03  2.56092E+03 -2.22704E+02  1.75328E+03 -1.89101E+03  3.28455E+02 -9.93124E+02 -1.70535E+03
  2.66426E+03 -9.80254E+02  3.22804E+03  1.58104E+03  1.76172E+03  3.03837E+03 -2.25114E+02  2.67615E+03
 -4.11966E+03  3.85575E+03 -4.39012E+03  8.32061E+02 -4.54602E+03 -3.53911E+03 -5.32708E+02 -6.48378E+03
  4.02809E+03 -5.57685E+03  5.52597E+03 -1.62405E+03  5.58267E+03  9.11848E+02  2.79725E+03  5.24985E+03
  4.05114E+02  5.39560E+03 -1.66775E+03  4.00116E+03 -3.76983E+03  3.15734E+03 -2.78339E+03  2.81577E+02
 -1.23836E+03  1.37836E+02 -1.32062E+03  1.40029E+03 -2.60874E+03  1.23053E+03 -4.35238E+03 -1.48327E+03
 -3.97459E+03 -2.00472E+03 -1.42246E+03 -4.86101E+03  2.95800E+03 -5.60838E+03  4.49409E+03 -1.75063E+03
  5.05503E+03  9.90058E+02  2.26875E+03  3.71455E+03 -5.74342E+02  4.60618E+03 -4.36196E+03  3.93948E+03
