 $NMID ID='MM_0lb_SNR400_13hz_g40_34.RAW', FMTDAT='(8E13.5)'
 TRAMP=1., VOLUME=1. $END
  3.09810E+05  5.00331E+02  3.37563E+05  2.50486E+05  8.43739E+04  3.37513E+05 -1.32599E+05  2.50865E+05
 -1.89718E+05  8.30992E+04 -1.12047E+05 -3.12923E+04  1.54280E+02 -5.06935E+04  5.44045E+04 -3.13455E+02
  3.55427E+04  5.28110E+04 -1.68866E+04  7.51238E+04 -6.08170E+04  6.40620E+04 -8.41334E+04  3.19959E+04
 -8.12010E+04 -1.19135E+04 -5.78238E+04 -5.10378E+04 -1.53049E+04 -6.98447E+04  2.77688E+04 -4.60914E+04
  4.05494E+04  4.15051E+03  1.57019E+04  4.74195E+04 -3.38669E+04  4.70054E+04 -6.64324E+04  2.38103E+02
 -5.34445E+04 -5.66407E+04 -6.52327E+03 -7.74182E+04  3.36803E+04 -5.55562E+04  4.81067E+04 -1.75769E+04
  4.30152E+04  1.12721E+04  3.16420E+04  2.60302E+04  1.60822E+04  2.94182E+04 -4.56496E+03  2.74520E+04
 -2.20605E+04  1.18307E+04 -1.83717E+04 -5.30934E+03  5.75562E+03 -6.68414E+03  2.21798E+04  1.20690E+04
  7.45609E+03  3.53768E+04 -3.16566E+04  3.55100E+04 -6.29764E+04  2.02273E+03 -5.66546E+04 -4.28351E+04
 -1.22412E+04 -6.23556E+04  3.98513E+04 -4.51493E+04  5.78702E+04 -2.16424E+03  3.40059E+04  3.20875E+04
 -5.95360E+03  3.61124E+04 -3.02859E+04  1.58371E+04 -2.96690E+04 -4.40291E+03 -1.69262E+04 -1.06623E+04
 -8.17099E+03 -1.33769E+04 -1.42428E+03 -1.81704E+04  7.96346E+03 -2.28679E+04  1.51634E+04 -1.29668E+04
  1.18669E+04  5.48348E+03 -8.04659E+03  1.29684E+04 -2.11746E+04 -4.48255E+03 -7.96695E+03 -3.38236E+04
  2.29257E+04 -4.41478E+04  4.84921E+04 -1.90725E+04  4.55561E+04  1.92215E+04  1.59545E+04  4.39815E+04
 -1.60712E+04  3.31880E+04 -2.51463E+04  1.96294E+03 -9.73521E+03 -2.80095E+04  2.08666E+04 -3.40210E+04
  4.08076E+04 -9.01480E+03  3.60042E+04  2.35565E+04  1.73675E+04  4.62087E+04 -8.29308E+03  4.96651E+04
 -3.14823E+04  3.40908E+04 -4.11848E+04  9.87538E+03 -4.22187E+04 -1.65833E+04 -2.35170E+04 -3.80650E+04
  7.24488E+03 -3.78076E+04  3.20831E+04 -1.51185E+04  2.83394E+04  1.07700E+04  3.71728E+03  1.89337E+04
 -1.33843E+04  8.07398E+03 -1.06014E+04 -7.31354E+03  5.66547E+03 -1.07967E+04  1.80437E+04  5.82948E+03
  1.40179E+04  2.17153E+04 -6.04958E+03  2.47399E+04 -2.24792E+04  1.15927E+04 -2.81604E+04 -5.21229E+03
 -2.03874E+04 -1.76102E+04 -7.88202E+03 -2.02097E+04  3.81966E+03 -1.95403E+04  1.55618E+04 -1.79502E+04
  2.63559E+04 -1.27120E+04  3.28578E+04  2.69673E+03  2.41199E+04  1.99129E+04  3.67904E+03  3.65645E+04
 -1.74686E+04  3.12611E+04 -2.76930E+04  1.00970E+04 -2.04601E+04 -1.03219E+04 -4.52079E+03 -1.29052E+04
  2.19998E+03 -3.17825E+03 -4.65217E+03  6.54645E+03 -1.62703E+04  5.57936E+03 -1.64758E+04 -6.19103E+03
 -1.04243E+04 -1.91314E+04  5.29528E+03 -2.35551E+04  1.60037E+04 -1.66528E+04  1.88055E+04 -1.46794E+03
  1.15609E+04  1.34463E+04 -9.95192E+02  1.89045E+04 -1.32122E+04  1.10979E+04 -1.90411E+04 -4.27806E+03
 -1.41860E+04 -1.68957E+04 -1.65490E+03 -2.32211E+04  1.03908E+04 -1.87909E+04  1.90564E+04 -9.28553E+03
  1.79807E+04 -1.89468E+02  1.23349E+04  4.31335E+03  6.73658E+03  1.63506E+03  9.50886E+03 -2.39001E+03
  1.80385E+04  2.63674E+03  2.01589E+04  1.47412E+04  1.33226E+04  3.03970E+04 -3.45365E+03  3.44416E+04
 -2.02047E+04  2.78071E+04 -3.20355E+04  1.35835E+04 -3.39084E+04 -2.56271E+03 -2.74530E+04 -1.90352E+04
 -1.18610E+04 -2.80144E+04  9.07249E+03 -2.59806E+04  2.13678E+04 -1.27353E+04  1.95578E+04  5.73175E+03
  7.33573E+03  1.44645E+04 -9.50655E+03  1.22946E+04 -1.58099E+04  2.49780E+03 -1.22759E+04 -1.03202E+04
  8.39959E+01 -1.51299E+04  8.57678E+03 -1.16797E+04  1.03390E+04 -1.45679E+03  2.70884E+03  6.44296E+03
 -7.36434E+03  2.56124E+03 -5.92606E+03 -5.47469E+03 -1.09877E+03 -1.36605E+04  9.79033E+03 -1.40835E+04
  1.69652E+04 -7.12743E+03  1.83454E+04  2.42203E+03  1.56222E+04  1.40761E+04  7.45786E+03  2.05924E+04
 -3.52215E+03  2.27186E+04 -1.44975E+04  1.40009E+04 -1.66770E+04  3.31846E+03 -1.19079E+04 -3.67627E+03
 -5.57102E+03 -5.06069E+03 -5.96642E+02  9.77885E+02 -2.44366E+03  2.58846E+03 -4.86729E+03  4.54668E+03
 -1.07142E+04 -5.16157E+02 -1.13175E+04 -8.71410E+03 -4.76307E+03 -1.53792E+04  4.79494E+03 -1.15839E+04
  9.84931E+03 -4.72319E+03  6.92848E+03  3.42448E+03 -7.11600E+01  4.15678E+03 -5.31318E+03 -2.31854E+02
 -5.51905E+03 -7.14296E+03 -1.60779E+03 -1.10608E+04  5.93798E+03 -1.18989E+04  1.39086E+04 -6.21041E+03
  1.62756E+04  1.04663E+03  1.23380E+04  1.01656E+04  2.82228E+03  1.29141E+04 -6.65456E+03  1.14039E+04
 -9.26835E+03  3.16383E+03 -4.88637E+03 -2.02155E+03  1.28929E+03 -2.88738E+03  6.45586E+03 -1.27293E+03
  5.91318E+03  4.62462E+03  9.48622E+02  8.98679E+03 -6.74825E+03  8.88082E+03 -1.08000E+04  2.14631E+03
 -7.44435E+03 -5.79143E+03  8.62663E+01 -9.52446E+03  5.77781E+03 -4.56156E+03  5.43349E+03  1.30451E+03
  1.57191E+03  6.22976E+03 -5.56387E+03  7.67911E+03 -8.77174E+03  3.54118E+03 -8.77178E+03 -3.19051E+03
 -5.54694E+03 -1.07240E+04  2.33571E+03 -1.18484E+04  9.56117E+03 -7.40862E+03  1.10416E+04  1.59468E+03
  6.50437E+03  8.44594E+03 -1.09100E+03  1.08077E+04 -7.56518E+03  6.55334E+03 -8.70275E+03 -8.71088E+02
 -7.59795E+03 -7.46749E+03 -1.55262E+03 -7.89754E+03  3.41668E+03 -7.09929E+03  5.11581E+03 -2.98712E+03
  3.91225E+03  1.03278E+03 -3.86273E+02  1.80752E+03  2.93531E+02 -1.49535E+03  1.04827E+03 -3.97535E+03
  7.25810E+03 -1.84023E+03  9.83136E+03  7.78813E+02  9.40891E+03  5.97975E+03  7.24852E+03  1.31215E+04
 -3.35812E+03  1.47714E+04 -1.26285E+04  1.12128E+04 -1.59382E+04  1.78244E+03 -1.37072E+04 -5.12311E+03
 -6.96035E+03 -1.07536E+04 -6.64745E+02 -9.48360E+03  3.36968E+03 -4.54325E+03  2.50366E+03 -3.05567E+03
  2.26737E+03 -2.60989E+03  3.25341E+03 -2.65050E+03  4.71896E+03 -2.37038E+03  5.31710E+03 -6.36485E+02
  7.67882E+03  2.20357E+03  3.37601E+03  6.09499E+03 -1.95358E+03  5.44818E+03 -7.50878E+03  4.79633E+03
 -8.62185E+03 -9.22432E+02 -4.62541E+03 -5.92430E+03 -3.06194E+02 -9.27568E+03  4.54575E+03 -9.81043E+03
  1.00358E+04 -5.87150E+03  1.14457E+04  8.63978E+02  8.33317E+03  8.05739E+03  1.10027E+03  1.05277E+04
 -4.58143E+03  9.48901E+03 -6.24201E+03  3.11208E+03 -4.32239E+03 -1.34623E+03 -1.03482E+03 -8.73870E+02
 -6.52069E+02  2.39837E+02 -9.49109E+02  2.37900E+03 -4.58597E+03  2.01876E+03 -6.86054E+03 -1.18661E+03
 -3.33866E+03 -6.26188E+03  8.62421E+02 -8.58956E+03  5.23724E+03 -8.11736E+03  8.21575E+03 -2.23946E+03
  8.67991E+03  3.71719E+03  3.62764E+03  7.77259E+03 -2.21179E+03  8.60152E+03 -5.21741E+03  5.15215E+03
 -7.45492E+03  2.96012E+02 -6.22324E+03 -5.55942E+03 -7.65411E+02 -7.57772E+03  3.42507E+03 -5.01394E+03
  5.73563E+03 -2.44618E+03  3.62121E+03  1.42210E+03  1.56420E+03  3.07947E+03  1.11638E+03  1.39810E+03
  1.81952E+03  6.39693E+02  2.51406E+03  1.21760E+03  2.54861E+03  3.35533E+03  2.68119E+03  4.52713E+03
 -2.02836E+03  6.41935E+03 -5.61812E+03  7.12965E+03 -8.03528E+03  1.79243E+03 -8.59790E+03 -2.12094E+03
 -4.54194E+03 -8.17082E+03  1.68196E+03 -8.59012E+03  4.91342E+03 -5.77752E+03  6.52394E+03 -1.53804E+03
  5.20306E+03  4.17684E+03  9.51601E+02  4.89191E+03 -2.07484E+03  2.44675E+03 -3.29497E+03 -7.88362E+02
 -2.29769E+03 -3.27735E+03  2.26816E+03 -3.57454E+03  3.07376E+03 -2.14896E+03  3.17575E+03  6.78749E+02
  2.34833E+03  1.08010E+03  1.11458E+03  8.80578E+02 -1.31078E+03  7.67633E+02  1.79981E+03 -3.02891E+01
  2.74839E+02 -5.14026E+02  3.07418E+03  1.51125E+03  1.77487E+03  4.27954E+03 -7.33527E+02  5.60337E+03
 -3.64995E+03  3.37580E+03 -4.93241E+03  1.52444E+03 -4.64394E+03 -2.02468E+03 -1.78197E+03 -3.07502E+03
  3.66979E+02 -2.73647E+03  1.90978E+03 -2.20475E+03  1.57170E+03  2.47383E+03 -1.14482E+03  1.75994E+03
 -3.50385E+03  1.62737E+03 -3.54567E+03 -1.64778E+03 -2.16728E+03 -4.32125E+03  7.97971E+02 -4.12350E+03
  2.45934E+03 -1.59319E+03  2.63611E+03 -1.98263E+02  3.25600E+03  9.79117E+02  5.76321E+02  2.06158E+03
 -1.52308E+03  9.08876E+01 -2.01977E+03 -1.26187E+03  9.46885E+02 -2.91229E+03  3.19090E+03 -2.18696E+03
  4.87571E+03  1.80504E+02  5.47973E+03  3.16421E+03  1.87813E+03  4.93745E+03 -1.14552E+03  4.98803E+03
 -4.10825E+03  1.48585E+03 -4.10803E+03 -8.65663E+02 -2.56250E+03 -2.72079E+03  5.65261E+02 -2.66814E+03
  2.97024E+03 -1.78915E+03  2.88139E+03  1.23695E+03  8.21297E+02  2.25858E+03 -3.55870E+02  2.55721E+03
 -1.33386E+03  2.04484E+03 -1.22782E+03  1.20563E+03 -1.25577E+03  4.54909E+02 -1.23909E+03  1.14645E+03
 -1.11746E+03  2.01442E+03 -3.85132E+03  1.90534E+03 -4.47182E+03 -8.36571E+01 -5.64153E+03 -3.12818E+03
 -2.66717E+03 -5.85965E+03  9.78013E+02 -7.37267E+03  4.97427E+03 -5.74292E+03  6.81829E+03 -2.06555E+03
  6.30709E+03  7.02529E+02  4.07661E+03  4.41219E+03 -3.38235E+02  4.39005E+03 -1.78127E+03  3.97696E+03
 -3.14093E+03  1.20148E+03 -1.38129E+03 -7.14645E+02 -2.58170E+02  1.03899E+02 -1.08505E+03 -3.87093E+02
 -1.44772E+03  1.48994E+02 -1.51831E+03  4.26012E+02  1.91348E+01 -1.15014E+03 -1.53047E+02 -2.39734E+03
  2.38436E+03 -1.37052E+03  2.56495E+03 -2.34931E+02  2.89498E+03  2.91834E+03  5.19002E+02  4.04455E+03
 -2.23420E+03  5.92793E+03 -6.13690E+03  3.33826E+03 -6.14923E+03 -5.92010E+02 -3.65020E+03 -3.06862E+03
 -2.36967E+03 -4.65150E+03  9.60733E+02 -3.83805E+03  2.88730E+03 -2.00673E+03  2.49120E+03  6.82247E+02
  2.32193E+03  1.03158E+03  3.59560E+01  1.55948E+03 -1.15177E+03 -7.91763E+01  3.19889E+02 -1.58881E+03
  1.48193E+03 -3.68332E+02  1.77121E+03  8.82682E+02  7.36356E+02  1.70465E+03 -1.71620E+01  2.19156E+03
 -2.04546E+03  2.06619E+03 -3.39237E+03  3.05556E+02 -2.34558E+03 -2.52205E+03 -2.07347E+02 -3.86093E+03
  2.24259E+03 -3.34277E+03  3.14925E+03 -5.64856E+02  3.13592E+03 -4.25321E+01  2.15793E+03  3.06239E+03
 -1.21255E+02  2.82756E+03 -1.16650E+03  1.98268E+03 -1.66955E+03  1.48403E+03 -1.06024E+03  2.60492E+02
 -4.77605E+02  1.59026E+02 -1.40458E+03  3.71411E+02 -2.07452E+03  2.32392E+02 -2.23798E+03 -1.50141E+02
 -2.66053E+03 -8.61693E+02 -5.07451E+02 -2.94152E+03  2.30231E+03 -3.68954E+03  2.83537E+03 -1.60270E+03
  3.00543E+03  4.70336E+02  1.05059E+03  1.73206E+03  3.49413E+01  2.38309E+03 -2.13753E+03  1.48294E+03
