 $NMID ID='MM_0lb_SNR400_15hz_g60_65.RAW', FMTDAT='(8E13.5)'
 TRAMP=1., VOLUME=1. $END
  3.09914E+05  3.53660E+02  3.37322E+05  2.50006E+05  8.48656E+04  3.37779E+05 -1.32431E+05  2.51290E+05
 -1.90367E+05  8.32510E+04 -1.12349E+05 -3.24788E+04  8.83573E+02 -5.02441E+04  5.32885E+04 -1.56857E+02
  3.51479E+04  5.31284E+04 -1.65582E+04  7.52032E+04 -6.06567E+04  6.43783E+04 -8.47130E+04  3.17223E+04
 -8.08051E+04 -1.13732E+04 -5.76118E+04 -5.16943E+04 -1.49967E+04 -6.99915E+04  2.70405E+04 -4.61567E+04
  4.02361E+04  3.28876E+03  1.61955E+04  4.81031E+04 -3.46756E+04  4.75072E+04 -6.70512E+04 -1.30113E+02
 -5.31995E+04 -5.64320E+04 -6.61957E+03 -7.76358E+04  3.40857E+04 -5.49225E+04  4.78424E+04 -1.71963E+04
  4.38710E+04  1.10860E+04  3.26034E+04  2.57255E+04  1.56315E+04  2.97465E+04 -5.43746E+03  2.77260E+04
 -2.27333E+04  1.19572E+04 -1.84450E+04 -5.37288E+03  6.03785E+03 -7.50971E+03  2.24313E+04  1.34251E+04
  7.42041E+03  3.59724E+04 -3.17609E+04  3.55120E+04 -6.39758E+04  1.81399E+03 -5.69050E+04 -4.26527E+04
 -1.20735E+04 -6.37926E+04  4.02571E+04 -4.60706E+04  5.84357E+04 -2.66260E+03  3.42396E+04  3.28149E+04
 -5.98506E+03  3.68325E+04 -3.03738E+04  1.62189E+04 -3.07152E+04 -3.39881E+03 -1.71612E+04 -1.12135E+04
 -8.37915E+03 -1.35210E+04 -8.69068E+02 -1.81544E+04  8.68887E+03 -2.38705E+04  1.55518E+04 -1.40176E+04
  1.14950E+04  5.37779E+03 -8.36522E+03  1.27321E+04 -2.19175E+04 -5.12236E+03 -8.16622E+03 -3.38220E+04
  2.27456E+04 -4.40876E+04  4.87483E+04 -2.01219E+04  4.56629E+04  1.92339E+04  1.64450E+04  4.50431E+04
 -1.61078E+04  3.42183E+04 -2.60909E+04  1.77678E+03 -9.89394E+03 -2.86444E+04  2.08581E+04 -3.37956E+04
  4.15600E+04 -9.55338E+03  3.61313E+04  2.34592E+04  1.87749E+04  4.73656E+04 -7.94287E+03  5.09938E+04
 -3.21429E+04  3.47488E+04 -4.32590E+04  9.03301E+03 -4.40443E+04 -1.72728E+04 -2.36193E+04 -3.83301E+04
  7.07819E+03 -3.86152E+04  3.19161E+04 -1.48808E+04  2.95555E+04  1.07108E+04  4.44609E+03  1.92188E+04
 -1.38937E+04  8.44767E+03 -1.07194E+04 -7.82687E+03  5.74501E+03 -1.07684E+04  1.83259E+04  6.16464E+03
  1.35910E+04  2.17476E+04 -5.67007E+03  2.56450E+04 -2.24304E+04  1.21148E+04 -2.88605E+04 -4.20388E+03
 -2.09926E+04 -1.76880E+04 -8.90346E+03 -2.13650E+04  4.88797E+03 -2.04558E+04  1.65010E+04 -1.85340E+04
  2.69563E+04 -1.33159E+04  3.35777E+04  2.72530E+03  2.41002E+04  2.05338E+04  4.58169E+03  3.71881E+04
 -1.73904E+04  3.10297E+04 -2.82191E+04  9.67819E+03 -2.10970E+04 -1.05492E+04 -4.00951E+03 -1.32717E+04
  1.54049E+03 -2.40512E+03 -5.41480E+03  6.82561E+03 -1.65811E+04  4.80347E+03 -1.64866E+04 -6.65195E+03
 -1.06024E+04 -1.95693E+04  5.70824E+03 -2.32302E+04  1.56054E+04 -1.68803E+04  1.87646E+04 -1.97438E+03
  1.21956E+04  1.31897E+04 -9.97073E+02  1.91985E+04 -1.37592E+04  1.08239E+04 -1.96958E+04 -4.50883E+03
 -1.46979E+04 -1.77721E+04 -1.39355E+03 -2.39414E+04  1.06749E+04 -1.93615E+04  1.91073E+04 -9.85289E+03
  1.80762E+04 -3.15433E+02  1.28665E+04  4.99391E+03  6.76049E+03  9.34212E+02  1.00150E+04 -1.19456E+03
  1.75731E+04  2.54015E+03  2.02910E+04  1.56559E+04  1.32790E+04  3.07189E+04 -2.52122E+03  3.48884E+04
 -2.02501E+04  2.83544E+04 -3.23581E+04  1.38891E+04 -3.42874E+04 -3.06340E+03 -2.83202E+04 -1.91900E+04
 -1.22777E+04 -2.78042E+04  9.41620E+03 -2.51887E+04  2.21828E+04 -1.31041E+04  1.97701E+04  5.39216E+03
  7.63578E+03  1.48828E+04 -8.86642E+03  1.20574E+04 -1.58480E+04  2.69248E+03 -1.28017E+04 -1.01843E+04
  1.24738E+02 -1.52960E+04  8.60758E+03 -1.10853E+04  9.91797E+03 -1.35990E+03  2.23335E+03  6.29246E+03
 -6.85996E+03  1.80181E+03 -5.53643E+03 -5.31089E+03 -2.50654E+02 -1.38859E+04  9.41521E+03 -1.42136E+04
  1.67979E+04 -7.68181E+03  1.89445E+04  2.90487E+03  1.55601E+04  1.38461E+04  7.23895E+03  2.03584E+04
 -3.01220E+03  2.30121E+04 -1.44552E+04  1.41617E+04 -1.59773E+04  3.36155E+03 -1.20191E+04 -3.29608E+03
 -4.87766E+03 -4.28030E+03 -9.41022E+02  1.16515E+03 -2.57734E+03  2.66290E+03 -5.02730E+03  4.59910E+03
 -1.13227E+04 -1.02948E+03 -1.11239E+04 -8.84759E+03 -4.87606E+03 -1.49119E+04  4.63808E+03 -1.14519E+04
  9.10976E+03 -5.21682E+03  7.05809E+03  3.17147E+03  5.62438E+01  4.22645E+03 -5.26149E+03 -9.44036E+01
 -5.31085E+03 -6.88814E+03 -1.60817E+02 -1.07022E+04  6.00957E+03 -1.12845E+04  1.42918E+04 -5.96967E+03
  1.69988E+04  1.43863E+03  1.22370E+04  9.75349E+03  1.57073E+03  1.27208E+04 -7.09353E+03  1.11408E+04
 -9.02842E+03  3.49053E+03 -4.72483E+03 -1.85376E+03  1.90605E+03 -2.71166E+03  6.13550E+03 -8.05458E+02
  5.42400E+03  5.25049E+03  1.01658E+03  8.54495E+03 -6.01560E+03  8.88312E+03 -1.07051E+04  1.87076E+03
 -7.18107E+03 -6.09174E+03 -5.08834E+02 -9.20270E+03  6.38648E+03 -4.93074E+03  5.82061E+03  2.22035E+03
  9.80444E+02  6.05056E+03 -6.02468E+03  7.16803E+03 -8.19927E+03  4.35098E+03 -8.14458E+03 -2.99927E+03
 -5.12073E+03 -9.16605E+03  2.50288E+03 -1.15229E+04  9.56623E+03 -7.27252E+03  9.76669E+03  1.33955E+03
  7.33072E+03  8.33857E+03 -3.26501E+02  1.07993E+04 -7.56020E+03  6.74060E+03 -7.40960E+03 -8.32113E+02
 -7.15838E+03 -6.94256E+03 -1.80866E+03 -8.17058E+03  3.79412E+03 -6.71826E+03  5.09513E+03 -3.61429E+03
  3.31482E+03  1.96550E+02 -3.09410E+02  1.65601E+03  1.60496E+02 -1.22530E+03  1.56184E+03 -3.60178E+03
  6.89036E+03 -2.28353E+03  8.71858E+03  1.29747E+03  9.10398E+03  5.78212E+03  6.99275E+03  1.21743E+04
 -2.53378E+03  1.38567E+04 -1.20388E+04  1.07622E+04 -1.59365E+04  2.05977E+03 -1.22021E+04 -4.72631E+03
 -6.67512E+03 -1.02093E+04 -6.45827E+02 -8.47639E+03  2.83525E+03 -3.92589E+03  2.92800E+03 -3.48763E+03
  2.24620E+03 -1.19369E+03  3.06751E+03 -2.58140E+03  3.84238E+03 -2.77629E+03  5.10158E+03 -5.67472E+02
  6.93814E+03  1.90786E+03  3.38881E+03  5.36171E+03 -1.94246E+03  5.50836E+03 -6.34694E+03  5.02549E+03
 -8.10789E+03 -1.10696E+03 -4.38874E+03 -5.46931E+03  1.82949E+02 -8.59448E+03  4.84756E+03 -8.79232E+03
  8.77136E+03 -5.00015E+03  1.09697E+04  7.75123E+02  7.41426E+03  7.28040E+03  1.47102E+03  8.97617E+03
 -3.96006E+03  9.32367E+03 -5.39139E+03  3.33305E+03 -3.70148E+03 -1.75292E+03 -1.39137E+03 -4.07896E+02
 -6.86769E+02  4.93452E+01 -1.16735E+03  2.18388E+03 -3.98630E+03  1.97146E+03 -5.54922E+03 -4.12984E+02
 -2.96986E+03 -6.09273E+03  3.84929E+02 -8.23159E+03  4.35476E+03 -7.18008E+03  7.00825E+03 -1.96095E+03
  6.84227E+03  4.04799E+03  3.69725E+03  6.21714E+03 -1.44173E+03  7.45177E+03 -5.05132E+03  4.56669E+03
 -6.78994E+03  1.25231E+02 -5.92384E+03 -4.26300E+03 -3.22328E+02 -6.04372E+03  2.90082E+03 -5.02009E+03
  4.71455E+03 -1.85022E+03  3.45196E+03  1.14359E+03  7.32260E+02  2.42819E+03  1.60004E+03  5.57451E+02
  2.54178E+03  9.57214E+02  1.76438E+03  7.94984E+02  2.41948E+03  2.65215E+03  2.00656E+03  3.94989E+03
 -1.52066E+03  5.70645E+03 -4.56558E+03  6.50153E+03 -6.58839E+03  2.21208E+03 -6.69166E+03 -2.37733E+03
 -2.88004E+03 -6.94822E+03  9.96577E+02 -8.16626E+03  4.07337E+03 -5.23567E+03  5.87432E+03 -1.37859E+03
  4.81355E+03  2.75326E+03  8.16851E+02  3.99351E+03 -1.51364E+03  2.57886E+03 -3.12149E+03 -7.26237E+02
 -1.57581E+03 -3.08858E+03  1.38790E+03 -2.53509E+03  2.93722E+03 -1.37380E+03  2.42454E+03  3.23756E+02
  1.32765E+03  1.64517E+03  9.40496E+02  6.06279E+02 -7.99394E+02  9.57901E+02  1.82303E+03  1.64338E+02
  7.80083E+02 -4.37175E+02  3.19766E+03  8.74275E+02  1.34799E+03  4.04385E+03 -1.92932E+01  5.00275E+03
 -3.71099E+03  2.30853E+03 -4.68698E+03  6.44747E+02 -4.00046E+03 -1.33268E+03 -7.75650E+02 -2.53051E+03
  5.38678E+02 -2.60895E+03  1.67031E+03 -6.97596E+02  1.65788E+03  1.90317E+03 -1.08560E+03  2.11575E+03
 -2.28620E+03  1.52394E+03 -2.26231E+03 -2.04829E+03 -1.18511E+03 -3.62966E+03  2.62837E+02 -3.20068E+03
  1.39636E+03 -2.21257E+03  2.10356E+03 -1.16254E+02  2.53156E+03  4.77138E+02  8.74634E+01  1.53658E+03
 -8.73915E+02  1.93003E+02 -1.69938E+03 -1.26589E+03  5.92967E+02 -2.37821E+03  2.72881E+03 -1.73372E+03
  3.52499E+03 -9.93498E+00  4.89553E+03  1.83650E+03  9.83214E+02  3.60797E+03 -1.12601E+03  3.66041E+03
 -2.63088E+03  1.67259E+03 -2.72732E+03 -8.15788E+02 -1.86221E+03 -2.42599E+03  1.44139E+03 -2.02126E+03
  3.47036E+03 -5.92464E+02  1.76370E+03  1.32789E+03  8.00943E+02  2.76494E+03  2.98913E+02  2.02653E+03
 -1.04479E+03  1.70103E+03 -1.90666E+02 -7.27609E+00  6.95313E+00  2.04682E+02 -7.04262E+02  1.27999E+02
 -6.03034E+02  1.73512E+03 -2.79845E+03  1.01315E+03 -3.28975E+03  1.53044E+01 -4.58249E+03 -2.38680E+03
 -2.60363E+03 -4.28506E+03  1.21866E+03 -5.35359E+03  2.88621E+03 -4.15719E+03  4.85919E+03 -1.17358E+03
  4.83836E+03  5.56191E+02  2.75621E+03  2.98198E+03 -2.54875E+02  3.22746E+03 -1.25949E+03  2.17847E+03
 -1.75193E+03  1.47283E+03 -8.84792E+02 -1.10691E+02 -7.03520E+02 -7.45758E+01 -4.43783E+02  1.54983E+02
 -6.45937E+02  2.91569E+02 -1.29078E+03  6.06315E+01  5.46151E+02 -1.38585E+03 -2.80295E+02 -1.84370E+03
  2.17802E+03 -8.00172E+02  1.21828E+03  4.57037E+02  2.17868E+03  1.80944E+03  2.04893E+02  3.04855E+03
 -1.79398E+03  3.80034E+03 -3.90894E+03  2.86773E+03 -3.95958E+03 -6.73204E+02 -2.33351E+03 -2.68139E+03
 -1.85601E+03 -2.93379E+03  6.01687E+02 -2.71613E+03  1.57738E+03 -8.20890E+02  2.28085E+03  1.14734E+02
  1.07775E+03  6.79827E+02  5.28416E+01  3.18447E+02 -7.37313E+02  3.29301E+02  2.40310E+02 -7.97911E+02
  1.22032E+03 -2.14258E+02  1.37411E+03  2.58851E+02 -2.48572E+02  9.85727E+02  3.61175E+02  1.05570E+03
 -2.13510E+02  1.30199E+03 -2.27217E+03 -1.64906E+02 -2.03687E+03 -1.89206E+03  1.73378E+02 -2.71453E+03
  1.66898E+03 -1.60545E+03  1.94439E+03 -4.16457E+02  2.65081E+03 -5.99733E+02  1.75850E+03  1.80087E+03
  6.88457E+02  1.22966E+03 -8.07182E+02  1.18200E+03 -8.09001E+02  7.09565E+02 -5.45603E+02  5.79979E+02
 -4.00661E+02 -1.72696E+02 -1.13314E+03  5.95760E+02 -8.81475E+02 -5.81283E+01 -1.28215E+03 -4.63899E+02
 -1.86314E+03 -8.32062E+02  2.16761E+02 -2.48505E+03  1.24345E+03 -2.69366E+03  1.92148E+03 -8.02301E+02
  2.31798E+03  2.87342E+02 -9.64288E+01  1.13098E+03  4.99238E+02  2.30180E+03 -8.38161E+02  1.30408E+03
