 $NMID ID='MM_0lb_SNR400_14hz_g60_8.RAW', FMTDAT='(8E13.5)'
 TRAMP=1., VOLUME=1. $END
  3.09909E+05  2.33032E+02  3.37142E+05  2.50288E+05  8.50969E+04  3.38717E+05 -1.32863E+05  2.51581E+05
 -1.90993E+05  8.32690E+04 -1.12292E+05 -3.21756E+04  6.18923E+02 -5.04783E+04  5.42561E+04 -5.52907E+02
  3.52834E+04  5.24333E+04 -1.68085E+04  7.49803E+04 -6.08763E+04  6.36616E+04 -8.42306E+04  3.23763E+04
 -8.21158E+04 -1.11767E+04 -5.76130E+04 -5.21756E+04 -1.57063E+04 -7.03796E+04  2.78729E+04 -4.65315E+04
  4.07949E+04  3.68248E+03  1.67553E+04  4.77177E+04 -3.44804E+04  4.74543E+04 -6.69209E+04 -4.78869E+01
 -5.40735E+04 -5.67563E+04 -7.35872E+03 -7.74843E+04  3.43320E+04 -5.52544E+04  4.88553E+04 -1.80770E+04
  4.40696E+04  1.11767E+04  3.23004E+04  2.61000E+04  1.51853E+04  2.99952E+04 -5.30528E+03  2.72705E+04
 -2.24982E+04  1.22069E+04 -1.77440E+04 -5.62091E+03  6.24515E+03 -7.37724E+03  2.28848E+04  1.31332E+04
  6.91049E+03  3.59716E+04 -3.24018E+04  3.64874E+04 -6.44574E+04  2.21750E+03 -5.74100E+04 -4.37761E+04
 -1.27965E+04 -6.40535E+04  4.07004E+04 -4.59847E+04  5.99261E+04 -1.85005E+03  3.49178E+04  3.30826E+04
 -5.67823E+03  3.69072E+04 -3.03766E+04  1.71978E+04 -3.18822E+04 -4.54510E+03 -1.77831E+04 -1.11564E+04
 -8.64746E+03 -1.43659E+04 -6.21144E+02 -1.85315E+04  8.04259E+03 -2.34412E+04  1.57024E+04 -1.33514E+04
  1.09219E+04  5.54280E+03 -9.16296E+03  1.27820E+04 -2.17649E+04 -4.69031E+03 -8.35419E+03 -3.51614E+04
  2.36580E+04 -4.42922E+04  4.92392E+04 -2.03094E+04  4.59431E+04  1.94651E+04  1.60813E+04  4.49291E+04
 -1.61099E+04  3.41414E+04 -2.58035E+04  1.66688E+03 -9.95068E+03 -2.82989E+04  2.10968E+04 -3.47167E+04
  4.17091E+04 -9.54373E+03  3.72818E+04  2.40401E+04  1.86955E+04  4.79149E+04 -8.07998E+03  5.19242E+04
 -3.28767E+04  3.57465E+04 -4.41436E+04  9.98344E+03 -4.35139E+04 -1.65810E+04 -2.45373E+04 -3.93343E+04
  7.43693E+03 -3.95414E+04  3.18029E+04 -1.58073E+04  2.98217E+04  1.08842E+04  4.46748E+03  2.03440E+04
 -1.37580E+04  9.06616E+03 -1.05183E+04 -7.59681E+03  6.01605E+03 -1.08354E+04  1.80205E+04  6.06701E+03
  1.34204E+04  2.28215E+04 -6.57198E+03  2.56781E+04 -2.25120E+04  1.27298E+04 -2.92324E+04 -4.30488E+03
 -2.16113E+04 -1.73074E+04 -9.64266E+03 -2.16275E+04  3.84678E+03 -2.17421E+04  1.65278E+04 -1.99099E+04
  2.69284E+04 -1.33577E+04  3.44603E+04  3.77561E+03  2.51738E+04  2.11428E+04  4.46819E+03  3.80776E+04
 -1.84804E+04  3.09067E+04 -2.77782E+04  1.04193E+04 -2.17944E+04 -1.01645E+04 -4.09277E+03 -1.27656E+04
  7.27082E+02 -2.34074E+03 -5.04091E+03  6.62888E+03 -1.72881E+04  4.92842E+03 -1.71251E+04 -7.83429E+03
 -1.08219E+04 -2.03514E+04  5.80166E+03 -2.45750E+04  1.66209E+04 -1.73387E+04  1.96018E+04 -1.51663E+03
  1.29517E+04  1.41699E+04 -1.05148E+03  1.99633E+04 -1.40937E+04  1.15109E+04 -2.04082E+04 -3.94830E+03
 -1.48670E+04 -1.77006E+04 -2.20731E+03 -2.43550E+04  1.15640E+04 -1.94865E+04  1.97519E+04 -1.03991E+04
  1.89474E+04 -1.33193E+02  1.33789E+04  4.51779E+03  6.76438E+03  8.62946E+02  1.02678E+04 -1.63339E+03
  1.85770E+04  3.03097E+03  2.10797E+04  1.61603E+04  1.44578E+04  3.17502E+04 -2.61024E+03  3.64028E+04
 -2.11597E+04  2.96400E+04 -3.42039E+04  1.48785E+04 -3.59179E+04 -2.50755E+03 -2.91708E+04 -2.11589E+04
 -1.22714E+04 -2.98750E+04  1.01536E+04 -2.62574E+04  2.31319E+04 -1.32990E+04  2.05724E+04  6.84933E+03
  7.78115E+03  1.52048E+04 -9.38881E+03  1.29336E+04 -1.69153E+04  3.15761E+03 -1.28824E+04 -1.06958E+04
 -6.67097E+01 -1.67123E+04  7.83752E+03 -1.23007E+04  1.14934E+04 -8.59376E+02  2.67799E+03  7.13101E+03
 -7.35827E+03  3.27297E+03 -6.93071E+03 -5.96608E+03 -6.31514E+02 -1.45755E+04  1.07004E+04 -1.61551E+04
  1.80596E+04 -7.87063E+03  1.93008E+04  3.13909E+03  1.69536E+04  1.44890E+04  8.05680E+03  2.20419E+04
 -4.59409E+03  2.39965E+04 -1.51217E+04  1.51898E+04 -1.72807E+04  3.65718E+03 -1.21352E+04 -4.19346E+03
 -5.46510E+03 -4.68003E+03 -6.09586E+02  9.79863E+02 -2.69955E+03  3.49751E+03 -5.14787E+03  5.13032E+03
 -1.11559E+04 -8.47665E+02 -1.25150E+04 -1.03081E+04 -5.21814E+03 -1.57888E+04  4.51483E+03 -1.23538E+04
  1.00938E+04 -4.94621E+03  7.35630E+03  2.99534E+03 -2.01192E+02  5.13207E+03 -6.05804E+03 -1.19044E+02
 -5.11742E+03 -7.67042E+03 -8.31251E+01 -1.13438E+04  6.41947E+03 -1.14725E+04  1.53364E+04 -6.29513E+03
  1.80136E+04  1.32708E+03  1.31483E+04  1.03278E+04  2.79183E+03  1.36662E+04 -7.11372E+03  1.18260E+04
 -9.84228E+03  3.51123E+03 -5.04324E+03 -1.85074E+03  1.84418E+03 -3.08680E+03  7.24464E+03 -8.09601E+02
  5.59909E+03  5.54304E+03  1.33223E+03  9.66541E+03 -6.31585E+03  8.88851E+03 -1.13821E+04  2.50471E+03
 -8.08753E+03 -6.13327E+03  1.38563E+02 -1.00205E+04  6.75799E+03 -4.41807E+03  6.52115E+03  1.75632E+03
  8.37480E+02  6.50913E+03 -5.61012E+03  8.22662E+03 -9.00542E+03  3.80149E+03 -9.26501E+03 -2.87602E+03
 -5.62938E+03 -1.03497E+04  2.33760E+03 -1.25681E+04  1.05506E+04 -7.71935E+03  1.16474E+04  1.40892E+03
  7.57334E+03  9.08760E+03 -8.72852E+02  1.19208E+04 -8.48317E+03  6.10119E+03 -8.44284E+03 -9.04309E+02
 -7.98317E+03 -7.89083E+03 -1.36987E+03 -8.39171E+03  4.48213E+03 -7.06081E+03  5.67457E+03 -2.86949E+03
  3.51099E+03  1.01951E+03 -9.24131E+02  1.17901E+03  1.08690E+02 -1.87856E+03  1.65542E+03 -4.53704E+03
  7.82420E+03 -2.37612E+03  1.00922E+04  1.12194E+03  9.70233E+03  6.30265E+03  7.47807E+03  1.37314E+04
 -2.98660E+03  1.51181E+04 -1.29352E+04  1.12272E+04 -1.70979E+04  2.05461E+03 -1.39128E+04 -5.01885E+03
 -6.95658E+03 -1.11156E+04 -4.22429E+02 -9.85461E+03  3.58090E+03 -5.01958E+03  3.46653E+03 -3.10158E+03
  2.04645E+03 -1.93404E+03  2.76258E+03 -2.21110E+03  4.11250E+03 -2.10040E+03  5.49496E+03 -2.71215E+02
  6.71344E+03  2.12068E+03  3.58846E+03  6.42377E+03 -1.76931E+03  6.95991E+03 -7.03358E+03  5.13560E+03
 -9.23129E+03 -1.20619E+03 -5.51068E+03 -6.40442E+03 -2.72544E+02 -9.78211E+03  5.14212E+03 -1.01683E+04
  1.02099E+04 -5.28536E+03  1.23478E+04  1.05260E+03  8.97144E+03  8.59942E+03  1.76401E+03  1.09306E+04
 -4.51249E+03  9.60353E+03 -6.72616E+03  3.22994E+03 -4.67237E+03 -1.40177E+03 -1.72039E+03 -1.02580E+03
 -1.57226E+03  1.63732E+01 -1.70299E+03  2.60558E+03 -3.99404E+03  1.38465E+03 -6.67137E+03 -1.65630E+02
 -4.07929E+03 -5.67621E+03  6.30663E+02 -9.43443E+03  5.37471E+03 -8.82451E+03  8.09241E+03 -1.88744E+03
  8.96803E+03  4.68962E+03  4.31609E+03  7.08040E+03 -1.48823E+03  9.12437E+03 -5.76846E+03  6.28876E+03
 -8.01346E+03  8.17389E+02 -6.55004E+03 -5.27291E+03 -1.38950E+03 -6.96575E+03  2.97663E+03 -5.17726E+03
  5.11746E+03 -2.46626E+03  4.20272E+03  1.15923E+03  1.74471E+03  2.89248E+03  1.18589E+03  1.49675E+03
  2.06756E+03  9.73638E+02  2.18131E+03  1.24527E+03  2.18003E+03  3.74510E+03  1.51973E+03  4.87986E+03
 -2.08133E+03  6.43542E+03 -5.52886E+03  7.00142E+03 -8.66366E+03  1.92147E+03 -8.27228E+03 -2.11087E+03
 -3.69084E+03 -8.17800E+03  1.57162E+03 -9.35866E+03  4.60237E+03 -6.18719E+03  7.37161E+03 -7.96327E+02
  5.20911E+03  2.70396E+03  1.07303E+03  4.27906E+03 -1.82218E+03  2.76748E+03 -2.56036E+03 -1.15637E+02
 -1.38116E+03 -3.63216E+03  2.01123E+03 -3.91087E+03  2.99991E+03 -2.12166E+03  2.67966E+03  8.65218E+02
  2.03849E+03  1.45813E+03  8.02685E+02  8.21260E+02 -7.50592E+02  7.53780E+02  8.93127E+02 -1.49513E+02
  6.42394E+02  1.53567E+02  3.71326E+03  7.52616E+02  9.98397E+02  4.47501E+03 -8.00412E+02  5.53591E+03
 -3.89807E+03  3.20514E+03 -5.12528E+03  1.19976E+03 -4.69503E+03 -1.72631E+03 -1.37454E+03 -2.64120E+03
  4.15934E+02 -3.32261E+03  1.94299E+03 -1.43847E+03  1.85511E+03  1.75474E+03 -7.99407E+02  2.62372E+03
 -2.91021E+03  1.36729E+03 -2.90692E+03 -2.09515E+03 -1.75312E+03 -4.35482E+03  4.41902E+02 -3.78757E+03
  1.77129E+03 -1.72175E+03  2.46896E+03 -4.13191E+02  2.95397E+03  3.01957E+02  1.72463E+02  2.39813E+03
 -1.05428E+03  7.23094E+02 -2.07992E+03 -1.39478E+03  5.11101E+02 -2.97744E+03  3.76924E+03 -2.24308E+03
  3.84893E+03  3.65111E+02  5.39003E+03  2.28317E+03  2.05472E+03  4.28939E+03 -1.18251E+03  4.88589E+03
 -4.01694E+03  1.41301E+03 -3.71987E+03 -7.25580E+02 -2.27447E+03 -2.69595E+03  7.29838E+02 -3.01141E+03
  2.74685E+03 -1.45264E+03  2.32010E+03  1.19714E+03  6.38669E+02  2.48250E+03 -3.31902E+02  2.29339E+03
 -3.06696E+02  1.66295E+03 -1.04902E+03  1.06155E+02  4.63753E+01  7.01436E+02 -1.16075E+03  1.17518E+03
 -8.70886E+02  2.27239E+03 -3.38425E+03  1.64463E+03 -4.38272E+03  2.74681E+02 -5.17177E+03 -2.43612E+03
 -2.53641E+03 -6.10016E+03  1.28639E+03 -7.17909E+03  4.31318E+03 -5.71284E+03  6.93166E+03 -2.39249E+03
  5.46194E+03  1.10367E+03  3.31322E+03  4.05270E+03  8.78033E+01  4.52673E+03 -1.54827E+03  3.35074E+03
 -2.22465E+03  8.51857E+02 -1.43105E+03 -6.13353E+02 -1.00693E+03 -2.51027E+02 -7.33220E+02 -5.10815E+02
 -1.28033E+03 -4.23028E+02 -1.36742E+03  1.17248E+02  3.20034E+02 -7.31636E+02  2.23541E+02 -1.68849E+03
  2.41648E+03 -1.65940E+03  2.25380E+03  4.21572E+02  3.12255E+03  2.38086E+03  1.11540E+02  3.93397E+03
 -1.75848E+03  5.04416E+03 -4.42715E+03  3.19293E+03 -4.76867E+03 -8.44878E+02 -3.22773E+03 -3.68827E+03
 -1.81383E+03 -4.11652E+03  1.09973E+03 -3.39555E+03  2.59687E+03 -1.96699E+03  2.02949E+03  1.12807E+02
  1.66137E+03  8.97267E+02 -4.99078E+02  1.33638E+03 -9.17375E+02 -2.41781E+02  7.67456E+01 -3.25648E+02
  8.33042E+02 -5.78494E+02  1.62334E+03  4.67199E+02  6.10779E+02  1.59233E+03  1.18765E+02  1.58989E+03
 -1.77079E+03  1.74845E+03 -1.99456E+03  4.91125E+02 -2.49740E+03 -2.17224E+03 -3.39475E+02 -3.20466E+03
  1.54663E+03 -2.89345E+03  2.25467E+03 -1.01993E+03  2.50701E+03 -3.65459E+02  1.59114E+03  2.72238E+03
  9.69517E+02  2.01022E+03 -9.34113E+02  2.14159E+03 -2.15964E+03  1.64297E+03 -1.65661E+03 -1.66825E+02
 -5.51867E+02 -2.88198E+02 -9.35495E+02 -8.60472E+01 -1.71593E+03  4.83223E+02 -1.65686E+03 -3.76187E+02
 -2.53293E+03 -1.25320E+03 -8.39783E+02 -2.39213E+03  1.33905E+03 -3.13398E+03  2.13484E+03 -1.15600E+03
  1.99098E+03  5.49553E+02  5.91251E+02  1.26122E+03 -1.72615E+02  2.21140E+03 -1.88242E+03  1.30955E+03
