 $NMID ID='MM_0lb_SNR400_8hz_g60_62.RAW', FMTDAT='(8E13.5)'
 TRAMP=1., VOLUME=1. $END
  3.10335E+05  2.84283E+02  3.38147E+05  2.51579E+05  8.45603E+04  3.38960E+05 -1.32216E+05  2.52950E+05
 -1.91535E+05  8.34987E+04 -1.12634E+05 -3.22917E+04 -9.47091E+01 -5.07168E+04  5.24914E+04 -6.55899E+02
  3.57615E+04  5.28249E+04 -1.69200E+04  7.69691E+04 -6.16049E+04  6.62001E+04 -8.56990E+04  3.26744E+04
 -8.34185E+04 -1.19535E+04 -5.93291E+04 -5.32673E+04 -1.59846E+04 -7.19861E+04  2.87514E+04 -4.66901E+04
  4.11562E+04  3.52211E+03  1.72868E+04  4.83655E+04 -3.52721E+04  4.88142E+04 -6.90478E+04  4.62936E+02
 -5.60638E+04 -5.85168E+04 -7.11268E+03 -8.01442E+04  3.53247E+04 -5.75723E+04  5.09861E+04 -1.84925E+04
  4.58947E+04  1.14804E+04  3.33900E+04  2.74565E+04  1.45234E+04  3.12454E+04 -5.91882E+03  2.79179E+04
 -2.32839E+04  1.25135E+04 -1.82232E+04 -6.06633E+03  7.08324E+03 -7.49558E+03  2.44702E+04  1.44377E+04
  6.59681E+03  3.87849E+04 -3.40107E+04  3.78392E+04 -6.68466E+04  3.00435E+03 -5.96186E+04 -4.58502E+04
 -1.25262E+04 -6.72419E+04  4.21324E+04 -4.80807E+04  6.28345E+04 -3.18696E+03  3.76861E+04  3.51621E+04
 -4.75534E+03  4.09394E+04 -3.27438E+04  2.03807E+04 -3.49326E+04 -3.25184E+03 -2.02241E+04 -1.15418E+04
 -1.04441E+04 -1.56107E+04  3.93719E+02 -2.03572E+04  8.73713E+03 -2.41744E+04  1.62849E+04 -1.23994E+04
  1.02899E+04  6.93979E+03 -1.14414E+04  1.25248E+04 -2.39742E+04 -7.50511E+03 -8.84461E+03 -4.01404E+04
  2.59900E+04 -4.85340E+04  5.42491E+04 -2.14124E+04  5.05244E+04  2.18313E+04  1.73389E+04  4.84901E+04
 -1.67398E+04  3.78265E+04 -2.84658E+04  3.37398E+03 -1.16915E+04 -2.99957E+04  2.15749E+04 -3.77448E+04
  4.62025E+04 -1.16404E+04  4.22195E+04  2.49576E+04  2.32788E+04  5.29435E+04 -9.01191E+03  5.82429E+04
 -3.68438E+04  3.98628E+04 -4.92663E+04  1.09789E+04 -5.03262E+04 -1.84361E+04 -2.65937E+04 -4.31002E+04
  8.43082E+03 -4.40634E+04  3.57796E+04 -1.83634E+04  3.28180E+04  1.17894E+04  5.65648E+03  2.17745E+04
 -1.41473E+04  1.02783E+04 -1.17627E+04 -7.77582E+03  4.39604E+03 -1.20363E+04  1.91331E+04  4.88891E+03
  1.57167E+04  2.25019E+04 -5.01247E+03  2.80335E+04 -2.38280E+04  1.50252E+04 -3.26979E+04 -2.90009E+03
 -2.69196E+04 -1.85397E+04 -1.30552E+04 -2.59371E+04  4.12701E+03 -2.84936E+04  2.08259E+04 -2.49354E+04
  3.43570E+04 -1.44797E+04  4.00902E+04  5.44600E+03  2.77169E+04  2.63256E+04  5.04133E+03  4.37086E+04
 -2.08603E+04  3.54746E+04 -3.24199E+04  1.25278E+04 -2.33188E+04 -9.96713E+03 -5.04789E+03 -1.21699E+04
  1.54677E+02 -9.64178E+02 -8.42097E+03  9.42904E+03 -2.23590E+04  5.07296E+03 -2.18501E+04 -1.07289E+04
 -1.26012E+04 -2.54360E+04  6.47101E+03 -2.94194E+04  1.99502E+04 -2.00249E+04  2.49641E+04 -1.38701E+03
  1.71081E+04  1.74341E+04 -2.41482E+03  2.49698E+04 -1.75164E+04  1.43295E+04 -2.57840E+04 -4.67867E+03
 -1.87775E+04 -2.36061E+04 -2.58205E+03 -2.98878E+04  1.41752E+04 -2.52514E+04  2.48360E+04 -1.28173E+04
  2.33962E+04  3.94436E+02  1.75816E+04  5.91225E+03  9.95333E+03  1.32801E+03  1.34215E+04 -2.35809E+03
  2.48256E+04  2.86774E+03  2.77084E+04  1.94767E+04  1.97781E+04  4.03096E+04 -1.46457E+03  4.84674E+04
 -2.69586E+04  4.08809E+04 -4.58205E+04  2.20805E+04 -4.91663E+04 -4.14270E+03 -3.94326E+04 -2.91915E+04
 -1.51980E+04 -4.19201E+04  1.48488E+04 -3.56781E+04  3.00916E+04 -1.60078E+04  2.65365E+04  9.80734E+03
  8.45343E+03  2.08457E+04 -1.20013E+04  1.65147E+04 -2.18826E+04  2.65164E+03 -1.66048E+04 -1.44821E+04
 -8.88829E+02 -2.14342E+04  1.19263E+04 -1.54136E+04  1.46030E+04 -5.03143E+02  3.40577E+03  9.49178E+03
 -9.30072E+03  5.96132E+03 -1.09329E+04 -7.16065E+03 -2.20636E+03 -1.98673E+04  1.32059E+04 -2.15780E+04
  2.60157E+04 -1.28484E+04  2.88907E+04  3.86116E+03  2.60035E+04  2.10043E+04  1.11905E+04  3.22880E+04
 -6.82445E+03  3.55404E+04 -2.25653E+04  2.13038E+04 -2.50077E+04  5.04319E+03 -1.81492E+04 -7.16748E+03
 -7.32604E+03 -8.81250E+03 -5.51401E+02  2.16596E+02 -3.50389E+03  3.47555E+03 -8.33157E+03  5.46149E+03
 -1.53516E+04 -9.25488E+02 -1.68375E+04 -1.35493E+04 -6.22882E+03 -2.13408E+04  7.29353E+03 -1.78719E+04
  1.42947E+04 -6.77901E+03  9.83796E+03  5.15068E+03 -1.46376E+03  6.91037E+03 -8.00730E+03 -7.04479E+02
 -8.61827E+03 -1.19158E+04 -1.45071E+03 -1.79447E+04  1.05516E+04 -1.91899E+04  2.25080E+04 -1.01619E+04
  2.56078E+04  3.88895E+03  1.91294E+04  1.64808E+04  4.17386E+03  2.16501E+04 -1.05678E+04  1.74773E+04
 -1.36769E+04  5.10162E+03 -7.62253E+03 -4.22252E+03  2.43243E+03 -4.43736E+03  8.93247E+03 -1.21720E+03
  8.54104E+03  8.61167E+03  2.02564E+03  1.48664E+04 -1.06884E+04  1.41006E+04 -1.69581E+04  2.85708E+03
 -1.25160E+04 -9.26015E+03  2.75716E+02 -1.46979E+04  1.05852E+04 -7.19684E+03  1.06330E+04  4.67917E+03
  2.75152E+03  1.18104E+04 -9.31245E+03  1.36660E+04 -1.67535E+04  6.28889E+03 -1.67490E+04 -5.40360E+03
 -9.90500E+03 -1.88858E+04  4.99401E+03 -2.05507E+04  1.69973E+04 -1.18517E+04  1.99837E+04  3.66879E+03
  1.09358E+04  1.52001E+04 -2.22267E+03  1.81631E+04 -1.40970E+04  9.37936E+03 -1.37526E+04 -1.80120E+03
 -1.28673E+04 -1.21479E+04 -1.54029E+03 -1.36817E+04  7.84955E+03 -1.15949E+04  8.36178E+03 -3.66129E+03
  6.53252E+03  2.17981E+03 -2.77333E+02  1.73688E+03 -1.05120E+03 -4.09678E+03  3.02251E+03 -1.00075E+04
  1.43722E+04 -5.57271E+03  1.84782E+04  2.64290E+03  1.78009E+04  1.30229E+04  1.20606E+04  2.45164E+04
 -6.25745E+03  2.84123E+04 -2.36013E+04  2.04442E+04 -2.97009E+04  4.39880E+03 -2.45528E+04 -1.07436E+04
 -1.27044E+04 -2.03336E+04  1.12070E+02 -1.65833E+04  6.10165E+03 -1.01000E+04  6.17321E+03 -5.86053E+03
  5.06295E+03 -3.99953E+03  4.42760E+03 -4.70979E+03  7.07701E+03 -3.74839E+03  9.20531E+03 -1.88120E+03
  1.29080E+04  2.77309E+03  7.06175E+03  1.09561E+04 -1.65518E+03  1.36153E+04 -1.32550E+04  1.06204E+04
 -1.73876E+04 -2.10853E+03 -1.15718E+04 -1.20468E+04 -1.48845E+03 -1.88234E+04  1.07740E+04 -1.85083E+04
  1.93118E+04 -9.90253E+03  2.24532E+04  2.77105E+03  1.58540E+04  1.66657E+04  1.90498E+03  2.03689E+04
 -8.12417E+03  1.70713E+04 -1.24141E+04  7.08188E+03 -9.00998E+03 -1.04412E+03 -4.49023E+03 -2.22951E+03
 -1.93913E+03 -4.24374E+02 -2.38670E+03  3.47118E+03 -7.14312E+03  3.23881E+03 -1.08890E+04 -2.05543E+03
 -8.99921E+03 -1.13398E+04  4.22480E+02 -1.76092E+04  1.01867E+04 -1.56851E+04  1.84798E+04 -4.80372E+03
  1.75640E+04  8.92014E+03  9.78646E+03  1.65105E+04 -3.30320E+03  1.80297E+04 -1.36928E+04  1.04875E+04
 -1.66741E+04  1.28600E+03 -1.19863E+04 -1.13177E+04 -1.88266E+03 -1.56497E+04  7.21834E+03 -1.16986E+04
  1.22163E+04 -3.80882E+03  8.44655E+03  2.89485E+03  2.01867E+03  5.02694E+03  1.23649E+03  2.89720E+03
  2.53496E+03  1.44036E+03  4.09971E+03  1.41273E+03  4.72316E+03  6.29257E+03  4.79569E+03  9.88811E+03
 -3.04791E+03  1.46155E+04 -1.30321E+04  1.41634E+04 -2.01675E+04  3.49335E+03 -1.90367E+04 -8.14495E+03
 -9.06131E+03 -1.85257E+04  3.20887E+03 -2.01040E+04  1.19903E+04 -1.27688E+04  1.54687E+04 -4.20410E+03
  1.06637E+04  6.69686E+03  1.97147E+03  1.02893E+04 -5.39190E+03  6.94708E+03 -7.80623E+03 -3.21637E+02
 -4.27801E+03 -7.96207E+03  3.66883E+03 -7.48665E+03  7.45255E+03 -3.16809E+03  8.68978E+03  4.28882E+02
  4.14271E+03  4.85220E+03  1.12286E+03  3.17432E+03 -2.18746E+02  2.97840E+03  9.17042E+02 -4.59294E+02
  3.67403E+03 -8.78589E+02  8.41699E+03  4.03794E+03  4.54102E+03  9.58669E+03 -1.67578E+03  1.28403E+04
 -8.61029E+03  8.43156E+03 -1.25931E+04  2.79936E+03 -1.02811E+04 -3.71572E+03 -4.71808E+03 -8.64359E+03
  6.58811E+02 -7.91807E+03  5.47358E+03 -3.13314E+03  4.14912E+03  3.81412E+03 -1.44507E+03  6.93041E+03
 -8.08576E+03  3.54597E+03 -9.61207E+03 -5.15070E+03 -4.59315E+03 -1.02971E+04  7.27580E+02 -1.12127E+04
  6.57959E+03 -6.23796E+03  7.85083E+03 -6.54972E+02  6.81400E+03  3.00022E+03  8.16003E+02  5.57652E+03
 -3.08533E+03  2.09784E+03 -4.15843E+03 -4.22057E+03  2.17135E+03 -7.22627E+03  1.00740E+04 -5.63121E+03
  1.16716E+04  1.72864E+03  1.22070E+04  7.43504E+03  3.71636E+03  1.24780E+04 -4.06693E+03  1.18860E+04
 -1.01696E+04  6.13113E+03 -1.16884E+04 -1.12530E+03 -5.70923E+03 -8.21139E+03  2.37008E+03 -8.26457E+03
  7.39108E+03 -3.68668E+03  6.16436E+03  2.97532E+03  3.50306E+03  5.81606E+03 -1.87839E+03  6.14703E+03
 -3.56689E+03  4.43385E+03 -3.36261E+03  1.33437E+03 -1.69492E+03  1.09282E+03 -2.10277E+03  1.98781E+03
 -3.24810E+03  4.75180E+03 -8.06758E+03  5.95451E+03 -1.27693E+04 -5.37510E+01 -1.37953E+04 -8.32700E+03
 -7.49032E+03 -1.78821E+04  2.86293E+03 -1.97904E+04  1.25939E+04 -1.54130E+04  1.83635E+04 -5.11962E+03
  1.73388E+04  2.96849E+03  1.08645E+04  1.18604E+04  8.72375E+02  1.39834E+04 -4.04749E+03  9.73778E+03
 -7.74603E+03  3.06260E+03 -4.25315E+03 -1.55594E+03 -1.47525E+03 -1.21123E+03 -1.44737E+03 -7.68399E+02
 -2.05465E+03  4.47636E+02 -1.93705E+03 -3.03947E+02 -1.62188E+03 -2.74243E+03  3.56799E+02 -5.39471E+03
  5.94636E+03 -4.58575E+03  8.54573E+03  4.90662E+02  9.31755E+03  7.18295E+03  2.51407E+03  1.39096E+04
 -5.85806E+03  1.42348E+04 -1.48800E+04  8.18332E+03 -1.64591E+04 -1.72186E+03 -1.25780E+04 -1.07692E+04
 -5.51851E+03 -1.40552E+04  4.18856E+03 -1.20595E+04  8.91433E+03 -7.56318E+03  9.07438E+03  5.69523E+02
  4.73271E+03  4.43341E+03 -1.74665E+02  3.70354E+03 -2.66527E+03 -1.71394E+02 -6.31859E+00 -3.04522E+03
  5.30307E+03 -1.92417E+03  6.61732E+03  1.28385E+03  3.73498E+03  5.85685E+03 -4.52559E+02  7.74789E+03
 -5.16216E+03  6.49049E+03 -9.57386E+03  9.12439E+02 -7.97190E+03 -7.27554E+03 -1.48976E+03 -1.09476E+04
  6.67917E+03 -1.01834E+04  1.05758E+04 -2.99237E+03  9.98195E+03  2.96528E+03  6.77332E+03  8.80462E+03
  1.28851E+03  9.88335E+03 -3.46949E+03  6.94256E+03 -5.95098E+03  4.46319E+03 -5.89946E+03  1.23241E+03
 -3.45406E+03 -1.86503E+02 -3.20290E+03  1.12766E+03 -4.02843E+03  1.94401E+03 -6.74125E+03 -7.88085E+02
 -7.19299E+03 -4.65584E+03 -1.96344E+03 -9.73799E+03  3.97886E+03 -1.00399E+04  7.55080E+03 -5.08005E+03
  8.69290E+03  1.08059E+03  5.90159E+03  6.09169E+03 -1.44028E+03  9.55440E+03 -6.93419E+03  5.65265E+03
