 $NMID ID='MM_0lb_SNR400_12hz_g55_4.RAW', FMTDAT='(8E13.5)'
 TRAMP=1., VOLUME=1. $END
  3.10036E+05  4.88963E+02  3.37887E+05  2.51194E+05  8.53887E+04  3.38496E+05 -1.32441E+05  2.51494E+05
 -1.90945E+05  8.35076E+04 -1.12683E+05 -3.29435E+04  3.70721E+02 -5.02995E+04  5.41727E+04 -1.65519E+02
  3.53442E+04  5.28503E+04 -1.67840E+04  7.59071E+04 -6.09980E+04  6.35704E+04 -8.47863E+04  3.23690E+04
 -8.19260E+04 -1.18439E+04 -5.78278E+04 -5.22123E+04 -1.54446E+04 -7.09258E+04  2.85875E+04 -4.61771E+04
  4.11584E+04  3.85770E+03  1.70257E+04  4.85854E+04 -3.51178E+04  4.76933E+04 -6.73290E+04 -2.75184E+02
 -5.36760E+04 -5.68895E+04 -6.29472E+03 -7.77032E+04  3.42445E+04 -5.62855E+04  4.86103E+04 -1.82675E+04
  4.47765E+04  1.13664E+04  3.27249E+04  2.66005E+04  1.57240E+04  3.01283E+04 -5.60522E+03  2.72861E+04
 -2.28093E+04  1.20833E+04 -1.78542E+04 -5.27062E+03  5.90120E+03 -6.74137E+03  2.29758E+04  1.31030E+04
  7.22684E+03  3.61048E+04 -3.29777E+04  3.69155E+04 -6.46762E+04  2.56614E+03 -5.73235E+04 -4.38501E+04
 -1.21366E+04 -6.41079E+04  4.03582E+04 -4.69436E+04  6.01213E+04 -1.85811E+03  3.56015E+04  3.38201E+04
 -5.32765E+03  3.83643E+04 -3.02899E+04  1.75651E+04 -3.19976E+04 -3.73364E+03 -1.81651E+04 -1.19674E+04
 -8.57059E+03 -1.40960E+04 -9.20063E+02 -1.91263E+04  8.37139E+03 -2.37058E+04  1.53631E+04 -1.27143E+04
  1.09859E+04  5.77774E+03 -9.63040E+03  1.28043E+04 -2.24991E+04 -5.59460E+03 -8.43601E+03 -3.63766E+04
  2.40083E+04 -4.54176E+04  5.06933E+04 -2.04107E+04  4.70789E+04  2.09797E+04  1.67331E+04  4.55822E+04
 -1.68740E+04  3.47881E+04 -2.64729E+04  2.42336E+03 -1.06224E+04 -2.85106E+04  2.04135E+04 -3.58147E+04
  4.29177E+04 -1.04750E+04  3.81476E+04  2.48373E+04  2.00141E+04  4.89511E+04 -8.51788E+03  5.40715E+04
 -3.33813E+04  3.59763E+04 -4.50490E+04  1.06459E+04 -4.57121E+04 -1.71573E+04 -2.45593E+04 -4.03384E+04
  7.51024E+03 -3.99581E+04  3.38100E+04 -1.59495E+04  3.03063E+04  1.05560E+04  4.31127E+03  1.95326E+04
 -1.47754E+04  9.44564E+03 -1.07608E+04 -7.20467E+03  5.73060E+03 -1.12413E+04  1.88559E+04  5.40683E+03
  1.35902E+04  2.22169E+04 -4.97475E+03  2.58248E+04 -2.27975E+04  1.32098E+04 -2.96629E+04 -3.96941E+03
 -2.29486E+04 -1.77889E+04 -9.92018E+03 -2.26254E+04  4.44197E+03 -2.33070E+04  1.77403E+04 -2.02430E+04
  2.90741E+04 -1.35607E+04  3.52890E+04  4.17112E+03  2.54774E+04  2.23203E+04  4.76915E+03  3.84252E+04
 -1.83959E+04  3.25442E+04 -2.91511E+04  1.10964E+04 -2.21086E+04 -1.03163E+04 -4.39038E+03 -1.31013E+04
  1.30031E+03 -2.30652E+03 -6.34725E+03  7.17119E+03 -1.82605E+04  5.17917E+03 -1.88389E+04 -9.12857E+03
 -1.08959E+04 -2.05914E+04  6.18368E+03 -2.48904E+04  1.70134E+04 -1.91758E+04  2.01570E+04 -1.70680E+03
  1.26459E+04  1.49680E+04 -1.56093E+03  2.10411E+04 -1.52239E+04  1.24526E+04 -2.11379E+04 -4.28495E+03
 -1.60837E+04 -1.92358E+04 -2.00042E+03 -2.59881E+04  1.16615E+04 -2.22118E+04  2.11918E+04 -1.05864E+04
  1.95033E+04  3.14185E+02  1.40028E+04  5.11516E+03  7.58844E+03  8.48515E+02  1.05687E+04 -1.97221E+03
  2.00957E+04  2.89044E+03  2.34594E+04  1.61194E+04  1.44889E+04  3.38544E+04 -3.35069E+03  3.92657E+04
 -2.17765E+04  3.24715E+04 -3.72335E+04  1.63660E+04 -3.92140E+04 -3.12758E+03 -3.25953E+04 -2.26889E+04
 -1.33690E+04 -3.22729E+04  1.11031E+04 -2.89066E+04  2.41551E+04 -1.41173E+04  2.11919E+04  6.54731E+03
  8.55528E+03  1.65027E+04 -1.10650E+04  1.52328E+04 -1.84158E+04  2.61582E+03 -1.40231E+04 -1.14330E+04
 -1.93340E+02 -1.74508E+04  8.72846E+03 -1.35068E+04  1.18315E+04 -1.94486E+03  2.61142E+03  7.80876E+03
 -7.69813E+03  3.08262E+03 -7.44861E+03 -5.91727E+03 -6.79642E+02 -1.60383E+04  1.04386E+04 -1.72353E+04
  2.01647E+04 -9.62382E+03  2.23902E+04  3.13880E+03  1.95289E+04  1.63334E+04  8.77331E+03  2.43365E+04
 -4.02086E+03  2.61975E+04 -1.71684E+04  1.69575E+04 -1.96617E+04  3.79960E+03 -1.37684E+04 -4.12152E+03
 -5.95562E+03 -6.87888E+03 -8.91917E+02  1.41529E+03 -2.77397E+03  3.16196E+03 -6.45162E+03  5.52450E+03
 -1.17088E+04 -6.45613E+02 -1.23923E+04 -1.06826E+04 -5.32545E+03 -1.65388E+04  5.48258E+03 -1.32205E+04
  1.13673E+04 -5.77852E+03  8.06400E+03  3.83143E+03  5.32534E+02  5.06050E+03 -6.86707E+03 -2.37051E+02
 -6.66995E+03 -8.63820E+03 -6.75033E+02 -1.28155E+04  7.43669E+03 -1.34589E+04  1.72883E+04 -7.49848E+03
  1.99806E+04  1.67621E+03  1.42372E+04  1.14440E+04  2.69600E+03  1.61919E+04 -7.93591E+03  1.25665E+04
 -1.08403E+04  3.89915E+03 -5.71762E+03 -3.19161E+03  1.56076E+03 -3.88388E+03  7.56302E+03 -6.91183E+02
  7.29114E+03  5.78341E+03  5.68942E+02  1.01672E+04 -7.75794E+03  1.01762E+04 -1.36215E+04  2.37838E+03
 -8.97275E+03 -7.31047E+03  5.13455E+02 -1.07828E+04  6.96413E+03 -5.78764E+03  7.22517E+03  2.61456E+03
  1.66097E+03  8.12395E+03 -7.23890E+03  9.36957E+03 -1.04911E+04  4.71046E+03 -1.06414E+04 -3.73982E+03
 -5.72158E+03 -1.18306E+04  2.46077E+03 -1.35191E+04  1.25697E+04 -8.30229E+03  1.33477E+04  2.92586E+03
  7.97972E+03  1.08861E+04 -1.36731E+03  1.25667E+04 -9.13133E+03  6.69633E+03 -1.04051E+04 -9.73881E+02
 -8.90076E+03 -7.92160E+03 -1.77810E+03 -9.46937E+03  5.21133E+03 -8.09552E+03  6.61592E+03 -2.96878E+03
  4.41979E+03  1.06212E+03 -5.24120E+02  1.64438E+03 -3.42869E+02 -2.34684E+03  2.08633E+03 -6.45266E+03
  9.04253E+03 -2.90518E+03  1.18688E+04  1.46619E+03  1.26282E+04  8.28280E+03  8.43324E+03  1.59062E+04
 -4.11931E+03  1.84894E+04 -1.55641E+04  1.36842E+04 -2.02996E+04  2.50664E+03 -1.67301E+04 -6.67749E+03
 -8.54801E+03 -1.39732E+04 -1.91334E+02 -1.13751E+04  4.31526E+03 -6.16589E+03  3.68560E+03 -3.58703E+03
  2.37854E+03 -2.74037E+03  3.36885E+03 -2.85072E+03  5.29939E+03 -3.07700E+03  6.91196E+03 -9.44584E+02
  8.58874E+03  1.39911E+03  3.88677E+03  6.67816E+03 -2.66406E+03  8.69232E+03 -7.96509E+03  6.32494E+03
 -1.09587E+04 -1.39085E+03 -6.29376E+03 -7.53163E+03 -9.51155E+02 -1.19526E+04  6.63859E+03 -1.20243E+04
  1.26092E+04 -6.73775E+03  1.48695E+04  1.38375E+03  1.05992E+04  1.03238E+04  1.83251E+03  1.38284E+04
 -4.73888E+03  1.11224E+04 -8.20374E+03  3.84973E+03 -4.89712E+03 -1.06117E+03 -2.69552E+03 -1.76747E+03
 -1.45356E+03  4.53787E+01 -2.05123E+03  2.38854E+03 -4.28267E+03  1.29333E+03 -7.28096E+03 -1.59096E+03
 -4.90912E+03 -7.74741E+03  9.26794E+02 -9.98834E+03  7.08213E+03 -1.02376E+04  1.05544E+04 -2.81999E+03
  9.90275E+03  5.65323E+03  5.17084E+03  9.77493E+03 -2.02274E+03  1.05772E+04 -7.37582E+03  6.05215E+03
 -1.05158E+04  9.76632E+02 -8.19433E+03 -5.82794E+03 -2.12790E+02 -8.61842E+03  4.56645E+03 -6.43654E+03
  7.11344E+03 -1.36796E+03  5.14171E+03  1.57479E+03  1.68290E+03  2.66728E+03  9.62392E+02  1.18227E+03
  2.60109E+03  4.35822E+02  3.19370E+03  1.74810E+03  2.96584E+03  3.86218E+03  2.63304E+03  5.45054E+03
 -2.65969E+03  8.90899E+03 -6.59831E+03  8.97290E+03 -1.13212E+04  2.40345E+03 -1.20056E+04 -4.05249E+03
 -5.17667E+03 -1.04385E+04  1.64190E+03 -1.19411E+04  6.03771E+03 -6.91487E+03  8.55366E+03 -2.31752E+03
  6.96052E+03  4.57575E+03  1.54920E+03  5.70199E+03 -2.75887E+03  3.85894E+03 -4.03167E+03 -1.35086E+02
 -2.15834E+03 -4.87857E+03  2.66553E+03 -4.63042E+03  4.06955E+03 -1.59606E+03  4.31446E+03  9.56879E+02
  3.01315E+03  1.18966E+03  1.14949E+03  1.70440E+03 -4.40271E+02  2.02666E+03  1.29111E+03 -5.74764E+02
  1.32600E+03 -2.46991E+01  4.57562E+03  1.94572E+03  1.96981E+03  6.00171E+03 -1.11179E+03  7.74183E+03
 -4.59412E+03  3.70495E+03 -6.23834E+03  1.20923E+03 -6.29563E+03 -2.66916E+03 -1.82787E+03 -4.49960E+03
  9.55798E+02 -3.90807E+03  2.64496E+03 -2.15697E+03  2.12512E+03  1.87399E+03 -2.00777E+02  3.34112E+03
 -4.25352E+03  2.49682E+03 -4.37229E+03 -2.60308E+03 -2.77004E+03 -5.48592E+03  1.29440E+03 -6.02699E+03
  4.04497E+03 -2.84604E+03  3.94529E+03 -4.90275E+02  3.29255E+03  1.02579E+03  4.76074E+02  3.75868E+03
 -1.93459E+03  5.90329E+02 -2.70833E+03 -2.40010E+03  1.61023E+03 -4.51547E+03  5.05951E+03 -3.37907E+03
  5.69560E+03  8.12228E+02  6.25414E+03  3.48732E+03  1.67656E+03  6.70663E+03 -2.78647E+03  6.19491E+03
 -4.86022E+03  2.73448E+03 -5.10169E+03 -5.74660E+02 -1.87745E+03 -4.44604E+03  2.00129E+03 -3.62594E+03
  3.85790E+03 -2.20424E+03  3.14106E+03  1.44540E+03  1.04324E+03  3.97294E+03 -2.78198E+02  2.81253E+03
 -2.14110E+03  2.05964E+03 -7.87480E+02  1.10071E+03 -9.90496E+02  4.18515E+02 -1.57430E+03  7.92781E+02
 -1.96407E+03  2.22437E+03 -3.77655E+03  2.52815E+03 -5.87309E+03  1.84890E+02 -7.27088E+03 -4.58000E+03
 -3.81924E+03 -7.98930E+03  1.11304E+03 -9.22036E+03  4.73516E+03 -7.33665E+03  9.06402E+03 -2.79919E+03
  8.12215E+03  1.80463E+03  5.21107E+03  5.61643E+03  1.88917E+02  5.72315E+03 -2.34246E+03  4.83181E+03
 -3.90056E+03  1.56110E+03 -2.18005E+03 -4.65697E+02 -1.25420E+03 -1.86507E+02 -5.01982E+02  6.04426E+02
 -9.32244E+02  2.69264E+02 -1.84942E+03 -2.45329E+01  2.04358E+02 -1.92124E+03  7.43663E+02 -2.29772E+03
  2.78177E+03 -2.13217E+03  2.81721E+03  4.95140E+02  4.66542E+03  3.57852E+03  4.03929E+02  5.85321E+03
 -2.78164E+03  7.23120E+03 -7.76154E+03  3.58438E+03 -7.48713E+03 -3.64675E+02 -5.83970E+03 -3.93832E+03
 -2.10159E+03 -6.38173E+03  1.40764E+03 -6.12154E+03  4.17896E+03 -2.31793E+03  3.11719E+03  6.95683E+02
  1.69173E+03  1.97313E+03 -3.08652E+02  2.05759E+03 -2.75069E+02  3.40120E+02  2.76180E+02 -1.53354E+03
  1.11629E+03 -3.48137E+02  2.19612E+03  7.02751E+02  1.62363E+03  2.20421E+03  2.58630E+02  2.64256E+03
 -2.54517E+03  2.61675E+03 -3.90822E+03 -5.02761E+01 -3.46420E+03 -2.68565E+03 -4.37552E+02 -4.75547E+03
  3.18982E+03 -4.34300E+03  4.62550E+03 -7.89890E+02  4.88481E+03  9.64615E+02  2.51204E+03  3.29426E+03
 -1.55324E+02  5.04911E+03 -1.33147E+03  3.28462E+03 -2.12470E+03  1.57592E+03 -1.67756E+03  3.74248E+02
 -1.09137E+03 -1.80713E+02 -1.41939E+03  1.05142E+03 -1.96394E+03  3.13756E+02 -2.87012E+03 -1.02202E+03
 -3.16192E+03 -1.84757E+03 -1.11807E+03 -3.98560E+03  1.58855E+03 -4.56439E+03  3.50088E+03 -2.12672E+03
  4.03314E+03  2.79467E+02  1.67074E+03  3.32037E+03  5.70681E+01  4.02633E+03 -2.25018E+03  2.27676E+03
