 $NMID ID='MM_0lb_SNR400_13hz_g60_59.RAW', FMTDAT='(8E13.5)'
 TRAMP=1., VOLUME=1. $END
  3.10127E+05  7.63021E+01  3.37764E+05  2.50358E+05  8.51671E+04  3.37505E+05 -1.33357E+05  2.52185E+05
 -1.90810E+05  8.41039E+04 -1.12669E+05 -3.24525E+04  1.17743E+03 -5.00804E+04  5.41064E+04 -2.18704E+02
  3.51857E+04  5.29826E+04 -1.64090E+04  7.57012E+04 -6.10797E+04  6.39428E+04 -8.48390E+04  3.25230E+04
 -8.13644E+04 -1.17698E+04 -5.75852E+04 -5.22458E+04 -1.46918E+04 -7.08142E+04  2.78525E+04 -4.60788E+04
  4.04286E+04  3.50162E+03  1.74543E+04  4.78543E+04 -3.47933E+04  4.78093E+04 -6.79345E+04 -3.00668E+02
 -5.46759E+04 -5.74877E+04 -7.06634E+03 -7.79217E+04  3.43595E+04 -5.60123E+04  4.93786E+04 -1.80566E+04
  4.47028E+04  1.09354E+04  3.24844E+04  2.67380E+04  1.64754E+04  2.98950E+04 -5.05714E+03  2.76118E+04
 -2.21743E+04  1.22436E+04 -1.77351E+04 -5.61573E+03  5.80986E+03 -7.53153E+03  2.24861E+04  1.37610E+04
  7.54112E+03  3.60318E+04 -3.23842E+04  3.62822E+04 -6.45540E+04  1.97522E+03 -5.76636E+04 -4.43381E+04
 -1.25036E+04 -6.42892E+04  4.03352E+04 -4.69975E+04  5.96721E+04 -2.68153E+03  3.52899E+04  3.34260E+04
 -5.40343E+03  3.80216E+04 -3.06064E+04  1.73908E+04 -3.19629E+04 -3.93225E+03 -1.78990E+04 -1.10211E+04
 -9.20802E+03 -1.43907E+04 -6.59709E+02 -1.86046E+04  8.13955E+03 -2.33943E+04  1.59053E+04 -1.32060E+04
  1.07303E+04  5.82992E+03 -9.77750E+03  1.30780E+04 -2.22352E+04 -6.05080E+03 -8.39128E+03 -3.52860E+04
  2.42272E+04 -4.50532E+04  4.99446E+04 -2.05374E+04  4.74734E+04  2.06598E+04  1.70071E+04  4.65300E+04
 -1.63597E+04  3.49259E+04 -2.63068E+04  2.37054E+03 -1.05409E+04 -3.04624E+04  2.16546E+04 -3.58407E+04
  4.21672E+04 -1.02080E+04  3.74972E+04  2.42278E+04  1.92438E+04  4.80799E+04 -8.07802E+03  5.40944E+04
 -3.37102E+04  3.63507E+04 -4.45892E+04  1.05727E+04 -4.52130E+04 -1.80543E+04 -2.45872E+04 -4.03566E+04
  7.70180E+03 -3.98855E+04  3.25392E+04 -1.63921E+04  3.06846E+04  1.09129E+04  4.73115E+03  1.95971E+04
 -1.33156E+04  8.59249E+03 -1.12558E+04 -7.50415E+03  5.38105E+03 -1.09680E+04  1.82501E+04  6.16789E+03
  1.43575E+04  2.25760E+04 -5.70229E+03  2.70132E+04 -2.29977E+04  1.31612E+04 -2.94006E+04 -3.66895E+03
 -2.39331E+04 -1.81090E+04 -1.01720E+04 -2.29809E+04  4.13867E+03 -2.20286E+04  1.78066E+04 -2.01218E+04
  2.88888E+04 -1.37231E+04  3.46961E+04  3.94519E+03  2.54200E+04  2.17629E+04  4.76771E+03  3.84505E+04
 -1.87480E+04  3.16281E+04 -2.86298E+04  1.18493E+04 -2.13320E+04 -1.01321E+04 -4.50662E+03 -1.33252E+04
  6.87267E+02 -1.56534E+03 -6.15709E+03  7.18403E+03 -1.76741E+04  5.46934E+03 -1.84144E+04 -8.28901E+03
 -1.11802E+04 -2.07953E+04  5.69644E+03 -2.55400E+04  1.66245E+04 -1.80539E+04  2.00727E+04 -2.07736E+03
  1.25891E+04  1.43306E+04 -9.94153E+02  2.15375E+04 -1.47945E+04  1.21930E+04 -2.04914E+04 -3.96750E+03
 -1.49245E+04 -1.88803E+04 -1.74894E+03 -2.49506E+04  1.19400E+04 -2.06860E+04  2.20539E+04 -1.09193E+04
  1.96663E+04  6.76220E+02  1.45423E+04  4.57622E+03  7.74416E+03  1.05542E+03  1.15341E+04 -2.13632E+03
  1.93307E+04  2.76751E+03  2.17395E+04  1.64156E+04  1.44704E+04  3.34851E+04 -2.87172E+03  3.79211E+04
 -2.27164E+04  3.16492E+04 -3.68799E+04  1.59037E+04 -3.80004E+04 -2.89330E+03 -3.16692E+04 -2.25051E+04
 -1.35791E+04 -3.23206E+04  1.07643E+04 -2.83686E+04  2.35161E+04 -1.39514E+04  2.20836E+04  6.83481E+03
  7.12549E+03  1.58443E+04 -1.04598E+04  1.41696E+04 -1.75497E+04  2.80703E+03 -1.36878E+04 -1.09001E+04
 -5.63346E+02 -1.68413E+04  9.03763E+03 -1.25698E+04  1.12748E+04 -6.24277E+02  2.51559E+03  7.49591E+03
 -7.46896E+03  3.01410E+03 -7.63203E+03 -6.65808E+03 -1.53568E+03 -1.56429E+04  9.83773E+03 -1.65547E+04
  1.85817E+04 -8.83707E+03  2.10728E+04  2.68337E+03  1.80520E+04  1.49038E+04  8.08622E+03  2.39593E+04
 -3.49149E+03  2.56727E+04 -1.64094E+04  1.60546E+04 -1.77833E+04  3.79086E+03 -1.33233E+04 -4.59726E+03
 -6.35771E+03 -6.36443E+03 -1.41335E+03  5.85088E+02 -2.15174E+03  2.90339E+03 -5.65584E+03  4.94915E+03
 -1.18719E+04 -1.06703E+03 -1.29955E+04 -9.75753E+03 -5.25250E+03 -1.71350E+04  5.46243E+03 -1.30202E+04
  1.10816E+04 -5.50247E+03  6.96611E+03  3.72719E+03  4.59493E+02  4.81552E+03 -5.80770E+03 -2.58773E+02
 -5.92325E+03 -8.15578E+03 -7.53051E+02 -1.30815E+04  7.26640E+03 -1.26230E+04  1.58234E+04 -6.94457E+03
  1.90068E+04  1.42803E+03  1.42539E+04  1.08464E+04  2.71573E+03  1.44264E+04 -8.27422E+03  1.28114E+04
 -1.06337E+04  3.91017E+03 -5.83656E+03 -2.40544E+03  1.94383E+03 -2.76092E+03  6.72224E+03 -1.43083E+03
  6.71121E+03  5.83282E+03  8.77111E+02  9.84690E+03 -7.15011E+03  9.88823E+03 -1.24321E+04  2.13978E+03
 -8.55857E+03 -6.40556E+03  8.65787E+02 -1.10817E+04  6.91758E+03 -5.57300E+03  7.07571E+03  2.28068E+03
  1.31643E+03  7.58410E+03 -6.69497E+03  8.49274E+03 -1.03212E+04  3.57677E+03 -1.02567E+04 -2.94755E+03
 -5.94243E+03 -1.22287E+04  2.70395E+03 -1.35316E+04  1.14937E+04 -8.36083E+03  1.22451E+04  2.19482E+03
  7.48995E+03  9.99381E+03 -2.64246E+02  1.25226E+04 -8.74944E+03  7.16892E+03 -9.79309E+03 -9.72370E+02
 -8.54661E+03 -7.83674E+03 -2.07009E+03 -8.74034E+03  4.59248E+03 -7.08926E+03  6.32313E+03 -3.42389E+03
  4.28079E+03  8.76945E+02 -8.59229E+02  2.01652E+03 -6.36221E+02 -2.11708E+03  1.50071E+03 -5.03315E+03
  8.77586E+03 -3.43025E+03  1.07842E+04  1.51063E+03  1.10816E+04  7.14914E+03  8.11668E+03  1.56437E+04
 -3.44349E+03  1.70706E+04 -1.46257E+04  1.41510E+04 -1.89859E+04  2.50554E+03 -1.48032E+04 -5.56155E+03
 -7.63038E+03 -1.27156E+04 -9.96092E+02 -1.02463E+04  4.34617E+03 -5.33630E+03  3.55459E+03 -3.76062E+03
  2.97090E+03 -2.77355E+03  3.27917E+03 -3.45362E+03  4.61950E+03 -2.91655E+03  6.64818E+03 -4.24777E+02
  8.24909E+03  1.23927E+03  3.50069E+03  6.68780E+03 -1.38836E+03  7.59042E+03 -8.23871E+03  6.58441E+03
 -1.05565E+04 -1.29003E+03 -6.36702E+03 -7.20676E+03 -1.28467E+03 -1.05266E+04  6.48961E+03 -1.09425E+04
  1.14509E+04 -6.85609E+03  1.36609E+04  1.56419E+03  9.51304E+03  9.21210E+03  1.46706E+03  1.22864E+04
 -5.20785E+03  1.04444E+04 -7.23551E+03  3.15687E+03 -4.73853E+03 -1.34716E+03 -1.88967E+03 -1.64483E+03
 -1.00348E+03  7.60753E+01 -1.13836E+03  1.87060E+03 -3.93614E+03  1.62444E+03 -7.14439E+03 -5.05664E+02
 -4.25318E+03 -6.93726E+03 -1.58972E+02 -9.47930E+03  5.89596E+03 -8.85574E+03  9.06997E+03 -2.84399E+03
  1.02290E+04  4.96372E+03  4.67656E+03  9.04595E+03 -2.16459E+03  9.53299E+03 -7.12865E+03  5.89749E+03
 -8.76392E+03  3.58389E+02 -6.66795E+03 -5.93282E+03 -7.67631E+02 -8.34405E+03  3.38189E+03 -6.33074E+03
  6.78122E+03 -2.32626E+03  3.66696E+03  1.26148E+03  1.73911E+03  2.80277E+03  1.16768E+03  1.57631E+03
  2.83306E+03  7.67481E+02  2.51993E+03  1.74549E+03  2.63872E+03  3.38017E+03  2.37503E+03  4.86783E+03
 -2.73274E+03  7.85678E+03 -5.61667E+03  8.19156E+03 -9.46607E+03  1.79582E+03 -1.01503E+04 -3.89374E+03
 -4.77793E+03 -9.51894E+03  2.21604E+03 -1.06041E+04  5.99844E+03 -6.53056E+03  7.79605E+03 -2.62544E+03
  5.51393E+03  3.91810E+03  9.78675E+02  5.54880E+03 -2.80134E+03  3.86536E+03 -3.71418E+03  4.32506E+02
 -1.84184E+03 -3.98170E+03  2.12608E+03 -3.88865E+03  3.82111E+03 -2.07484E+03  3.13492E+03  3.44909E+02
  2.22958E+03  2.08261E+03  1.58976E+03  9.79152E+02 -6.44328E+02  2.14617E+03  1.15926E+03 -7.71608E+02
  1.06246E+03 -6.99670E+02  4.13321E+03  1.70622E+03  1.71926E+03  5.27966E+03 -7.71798E+02  6.84172E+03
 -4.41392E+03  3.32803E+03 -5.33589E+03  1.18038E+03 -4.69206E+03 -2.07602E+03 -1.83970E+03 -3.79258E+03
  4.10007E+02 -2.94659E+03  1.80308E+03 -2.11775E+03  1.69695E+03  2.14723E+03 -5.92865E+02  3.42672E+03
 -3.29997E+03  1.00213E+03 -3.95206E+03 -2.47836E+03 -1.65295E+03 -5.75045E+03  5.51973E+02 -4.48650E+03
  2.72962E+03 -3.02923E+03  3.73687E+03 -2.93860E+02  2.80570E+03  7.96485E+02  7.93476E+02  2.82105E+03
 -1.73397E+03  8.61398E+02 -2.21463E+03 -1.35618E+03  1.32940E+03 -3.95288E+03  5.03599E+03 -3.32430E+03
  4.52855E+03  5.53446E+02  5.50637E+03  2.83737E+03  2.59514E+03  6.10840E+03 -2.15336E+03  5.27713E+03
 -4.25107E+03  1.43908E+03 -4.27774E+03 -4.98606E+02 -2.21787E+03 -3.49049E+03  5.17062E+02 -3.12040E+03
  3.31106E+03 -1.95851E+03  3.00223E+03  1.96786E+03  1.09777E+03  3.52533E+03 -3.09985E+02  2.97652E+03
 -1.43545E+03  1.95016E+03 -1.69263E+03  1.35693E+03 -1.05477E+03  9.58833E+02 -8.90098E+02  1.28765E+03
 -1.74030E+03  1.40127E+03 -3.88731E+03  1.75330E+03 -4.17463E+03  1.01514E+02 -5.99090E+03 -3.26285E+03
 -3.28476E+03 -7.69369E+03  9.87429E+02 -8.37632E+03  4.75823E+03 -5.58805E+03  7.29329E+03 -2.64129E+03
  6.78934E+03  1.44829E+03  3.86099E+03  4.69567E+03  4.00045E+02  5.14894E+03 -2.54108E+03  4.04658E+03
 -2.98510E+03  1.05428E+03 -2.64507E+03  1.48073E+02 -7.82335E+02  4.60259E+01 -4.38093E+02  2.63337E+02
 -2.12973E+03 -5.17733E+01 -1.13476E+03 -6.95002E+02  8.23681E+01 -1.70255E+03 -8.43293E+01 -1.72156E+03
  2.19101E+03 -1.24081E+03  3.56991E+03  5.83827E+02  4.06562E+03  2.77299E+03  6.40868E+02  4.63920E+03
 -2.02823E+03  6.43452E+03 -5.78727E+03  4.01295E+03 -6.14817E+03 -3.27495E+02 -5.12558E+03 -4.56979E+03
 -2.53744E+03 -4.53293E+03  1.32475E+03 -3.99021E+03  2.83388E+03 -2.42392E+03  2.63887E+03  1.03734E+02
  1.74870E+03  1.90770E+03  2.11317E+02  8.45545E+02 -6.82098E+02  3.02054E+02 -1.51465E+02 -1.16971E+03
  1.74346E+03 -3.95020E+02  1.59021E+03  7.92969E+02  8.11641E+02  2.06884E+03  4.41399E+02  2.29680E+03
 -1.76356E+03  1.71433E+03 -3.04543E+03  1.20435E+02 -2.55703E+03 -2.60337E+03 -3.50527E+02 -3.98916E+03
  2.99482E+03 -2.97846E+03  2.70394E+03 -7.33901E+02  3.65615E+03  1.73975E+02  1.88037E+03  2.36631E+03
  2.74438E+02  3.32567E+03 -1.28653E+03  2.70021E+03 -1.71256E+03  1.05615E+03 -1.61254E+03 -5.10827E+01
 -1.43216E+03 -5.65493E+02 -1.22522E+03  1.30580E+01 -1.88986E+03  3.93472E+02 -2.49215E+03 -5.56091E+02
 -2.76357E+03 -6.59207E+02 -8.73121E+00 -3.24294E+03  1.13470E+03 -3.77162E+03  2.81824E+03 -2.05645E+03
  2.60116E+03  4.39530E+02  1.38665E+03  1.65857E+03 -5.76646E+02  2.76075E+03 -1.94499E+03  1.82421E+03
