 $NMID ID='MM_0lb_SNR400_16hz_g40_71.RAW', FMTDAT='(8E13.5)'
 TRAMP=1., VOLUME=1. $END
  3.09712E+05  3.07098E+02  3.37305E+05  2.50175E+05  8.48851E+04  3.37454E+05 -1.32320E+05  2.50378E+05
 -1.89509E+05  8.26756E+04 -1.11122E+05 -3.29396E+04  1.16979E+03 -5.02922E+04  5.39261E+04  6.18529E+02
  3.55234E+04  5.28835E+04 -1.65885E+04  7.53443E+04 -6.08423E+04  6.27479E+04 -8.33885E+04  3.18506E+04
 -7.98771E+04 -1.08022E+04 -5.63288E+04 -5.02860E+04 -1.52347E+04 -6.90331E+04  2.71611E+04 -4.46545E+04
  3.99300E+04  4.49538E+03  1.52691E+04  4.74342E+04 -3.41809E+04  4.64415E+04 -6.55411E+04 -5.30732E+02
 -5.25324E+04 -5.60268E+04 -5.88114E+03 -7.55010E+04  3.30751E+04 -5.42083E+04  4.67043E+04 -1.64847E+04
  4.24567E+04  1.10100E+04  3.11001E+04  2.44508E+04  1.60590E+04  2.91850E+04 -4.94570E+03  2.66254E+04
 -2.19777E+04  1.28500E+04 -1.91477E+04 -4.44241E+03  4.89739E+03 -7.14229E+03  2.13886E+04  1.09959E+04
  7.16235E+03  3.40819E+04 -3.13796E+04  3.37570E+04 -6.13881E+04  2.16709E+03 -5.56324E+04 -4.22878E+04
 -1.25149E+04 -6.14547E+04  3.80859E+04 -4.35437E+04  5.65395E+04 -1.99150E+03  3.30236E+04  3.11114E+04
 -6.17744E+03  3.39370E+04 -2.88062E+04  1.45391E+04 -2.85148E+04 -5.25545E+03 -1.47395E+04 -1.06299E+04
 -8.18745E+03 -1.18985E+04 -1.08204E+03 -1.75103E+04  6.48838E+03 -2.25956E+04  1.49231E+04 -1.39768E+04
  1.20840E+04  4.20882E+03 -6.71670E+03  1.28376E+04 -2.03396E+04 -2.48406E+03 -8.59658E+03 -3.17133E+04
  2.10020E+04 -4.13015E+04  4.59811E+04 -1.89416E+04  4.31725E+04  1.82074E+04  1.49081E+04  4.20752E+04
 -1.56388E+04  3.14538E+04 -2.38819E+04  1.51665E+03 -8.68055E+03 -2.67963E+04  2.08539E+04 -3.22266E+04
  3.90692E+04 -7.79627E+03  3.27099E+04  2.31590E+04  1.64623E+04  4.39363E+04 -7.92504E+03  4.63001E+04
 -2.94782E+04  3.11128E+04 -3.92053E+04  8.51070E+03 -3.95749E+04 -1.57639E+04 -2.25107E+04 -3.57163E+04
  6.79430E+03 -3.52953E+04  3.01612E+04 -1.30960E+04  2.74717E+04  1.13143E+04  3.92491E+03  1.82905E+04
 -1.32116E+04  7.71792E+03 -9.65601E+03 -7.65382E+03  5.99162E+03 -1.05469E+04  1.79776E+04  6.45313E+03
  1.18270E+04  2.19305E+04 -6.17848E+03  2.41397E+04 -2.15466E+04  9.59169E+03 -2.60254E+04 -5.55023E+03
 -1.77585E+04 -1.68806E+04 -6.17425E+03 -1.76668E+04  4.21105E+03 -1.57503E+04  1.35751E+04 -1.60746E+04
  2.26545E+04 -1.16770E+04  2.93502E+04  1.58496E+03  2.16496E+04  1.78961E+04  4.19897E+03  3.35340E+04
 -1.66541E+04  2.86411E+04 -2.71978E+04  9.78172E+03 -2.01696E+04 -1.02810E+04 -4.15740E+03 -1.36610E+04
  2.17895E+03 -3.89371E+03 -3.54536E+03  5.91207E+03 -1.40051E+04  5.00738E+03 -1.42929E+04 -5.70691E+03
 -9.67375E+03 -1.65033E+04  4.33095E+03 -2.04636E+04  1.35098E+04 -1.42929E+04  1.62385E+04 -1.99253E+03
  9.73720E+03  1.11977E+04 -6.19120E+02  1.60621E+04 -1.12493E+04  1.00039E+04 -1.59021E+04 -3.46595E+03
 -1.19524E+04 -1.52951E+04 -1.37444E+03 -2.05469E+04  9.66621E+03 -1.68674E+04  1.68895E+04 -8.09039E+03
  1.53775E+04  4.54568E+02  1.10716E+04  3.69895E+03  5.74646E+03  1.26765E+03  7.80773E+03 -1.48756E+03
  1.45062E+04  2.84818E+03  1.69059E+04  1.33439E+04  1.02927E+04  2.60204E+04 -3.03906E+03  2.90857E+04
 -1.66871E+04  2.29377E+04 -2.72603E+04  1.10528E+04 -2.77490E+04 -1.83626E+03 -2.31689E+04 -1.61421E+04
 -1.11734E+04 -2.31496E+04  7.98529E+03 -2.11836E+04  1.84901E+04 -1.18069E+04  1.68275E+04  4.54383E+03
  7.37535E+03  1.17336E+04 -7.86338E+03  1.15011E+04 -1.42955E+04  3.09076E+03 -1.13566E+04 -8.19262E+03
  4.04881E+01 -1.29611E+04  6.61917E+03 -1.00014E+04  8.76623E+03 -1.44172E+03  1.46058E+03  5.40038E+03
 -5.95862E+03  1.72729E+03 -4.51233E+03 -5.25035E+03  1.21164E+02 -1.15509E+04  8.59760E+03 -1.16544E+04
  1.43377E+04 -5.61581E+03  1.40183E+04  2.94841E+03  1.25694E+04  1.10579E+04  5.68388E+03  1.64674E+04
 -2.35807E+03  1.79511E+04 -1.15681E+04  1.18491E+04 -1.30182E+04  3.11084E+03 -9.42568E+03 -2.78058E+03
 -4.65798E+03 -3.52402E+03 -7.07620E+02  1.20960E+03 -1.41993E+03  2.08142E+03 -4.05673E+03  4.38848E+03
 -8.83669E+03 -9.10400E+02 -9.49904E+03 -8.00792E+03 -4.24836E+03 -1.28449E+04  3.92011E+03 -9.79205E+03
  8.25221E+03 -4.54730E+03  5.85819E+03  2.62136E+03  6.03426E+01  3.89780E+03 -4.38345E+03 -5.21776E+02
 -4.10192E+03 -5.89009E+03 -9.16845E+02 -8.46373E+03  4.62567E+03 -8.88334E+03  1.11089E+04 -4.38259E+03
  1.30721E+04  7.32162E+02  9.82036E+03  7.21828E+03  2.52115E+03  1.01596E+04 -5.81608E+03  9.90540E+03
 -7.94446E+03  3.52806E+03 -4.32594E+03 -1.31742E+03  1.04768E+03 -2.25681E+03  5.11069E+03 -5.96519E+02
  4.11960E+03  4.18573E+03  8.24225E+02  6.64874E+03 -4.80898E+03  7.76235E+03 -8.99902E+03  1.49536E+03
 -5.71202E+03 -4.62713E+03  7.99083E+02 -7.73783E+03  4.27440E+03 -3.80865E+03  4.29608E+03  1.01121E+03
  6.25541E+02  3.78923E+03 -4.83636E+03  6.32478E+03 -5.74102E+03  2.56753E+03 -5.50354E+03 -1.87207E+03
 -3.65957E+03 -7.78788E+03  1.31712E+03 -9.21768E+03  7.33647E+03 -5.70624E+03  7.90370E+03  1.34452E+03
  5.88527E+03  6.35974E+03 -4.60016E+02  8.46401E+03 -5.92134E+03  4.52852E+03 -6.42470E+03 -9.75328E+02
 -7.00259E+03 -5.99390E+03 -1.28031E+03 -6.05607E+03  3.16977E+03 -5.01265E+03  3.77428E+03 -3.26221E+03
  3.53502E+03  1.06282E+02 -3.89362E+02  1.48348E+03  2.30787E+02 -9.68392E+02  3.16228E+02 -2.86042E+03
  4.69233E+03 -1.35592E+03  6.77569E+03  1.36124E+03  7.34202E+03  3.99276E+03  5.94683E+03  9.38600E+03
 -1.56230E+03  1.05145E+04 -9.44685E+03  8.12578E+03 -1.27181E+04  1.44616E+03 -9.45616E+03 -3.82739E+03
 -5.04843E+03 -8.02026E+03 -7.17807E+02 -6.48173E+03  2.38695E+03 -3.09537E+03  2.89523E+03 -2.18391E+03
  1.37412E+03 -2.20814E+03  2.74941E+03 -2.16237E+03  3.38751E+03 -1.72526E+03  4.59975E+03  4.14982E+02
  5.13988E+03  1.60201E+03  1.85268E+03  4.08086E+03 -1.21787E+03  3.69441E+03 -5.53761E+03  3.02109E+03
 -5.89061E+03 -7.09523E+02 -2.66848E+03 -4.13774E+03 -6.18648E+02 -6.45557E+03  4.28647E+03 -6.92645E+03
  6.98405E+03 -4.40357E+03  8.45497E+03  2.78749E+02  6.05032E+03  5.15590E+03  1.48863E+03  7.87478E+03
 -2.88075E+03  7.08712E+03 -4.14250E+03  2.81713E+03 -2.90728E+03 -8.93258E+02 -6.74067E+02 -1.07324E+03
 -2.55628E+02  5.72612E+02 -9.71255E+02  2.39567E+03 -2.72154E+03  8.95131E+02 -4.38133E+03 -4.03155E+02
 -2.79734E+03 -4.95313E+03  5.12267E+02 -6.39164E+03  3.71677E+03 -5.60879E+03  5.25794E+03 -1.94481E+03
  5.47383E+03  3.21401E+03  1.63577E+03  4.54773E+03 -1.10956E+03  4.99958E+03 -4.12526E+03  3.04339E+03
 -5.45622E+03  1.52002E+02 -3.89790E+03 -3.53097E+03 -2.29831E+02 -4.87643E+03  2.51532E+03 -3.35647E+03
  3.64125E+03 -1.29419E+03  2.48864E+03  7.35589E+02  5.87311E+02  2.53471E+03  9.41270E+02  5.96156E+02
  1.65177E+03 -3.18094E+01  1.60026E+03  9.02800E+02  1.29126E+03  2.84652E+03  1.81739E+03  3.22274E+03
 -1.58582E+03  4.10932E+03 -3.61153E+03  4.79170E+03 -4.82272E+03  1.75166E+03 -5.42691E+03 -1.18712E+03
 -2.14227E+03 -5.24841E+03  1.12921E+03 -6.11185E+03  3.04049E+03 -4.18362E+03  4.73065E+03 -8.89844E+02
  2.91932E+03  2.00627E+03  4.06108E+02  3.38129E+03 -6.01239E+02  2.61788E+03 -1.59738E+03 -2.96184E+02
 -4.66762E+02 -1.98480E+03  2.03977E+03 -1.89922E+03  1.82740E+03 -8.41403E+02  1.55004E+03  6.66829E+02
  1.30579E+03  1.09005E+03  5.22157E+02 -2.97121E+02 -5.29406E+02  8.55191E+02  1.98435E+03  3.05995E+02
  8.22368E+01 -1.28035E+02  2.20644E+03  9.97904E+02  9.00149E+02  3.18268E+03 -4.30935E+02  4.12146E+03
 -2.58631E+03  1.27947E+03 -2.81549E+03  4.22243E+02 -2.82287E+03 -1.22190E+03 -6.21703E+02 -2.27799E+03
  1.96675E+02 -2.52495E+03  1.19339E+03 -8.56270E+02  9.42348E+02  1.33198E+03 -6.67332E+02  1.79689E+03
 -2.12228E+03  9.28424E+02 -1.94666E+03 -2.03971E+03 -1.21242E+03 -2.47762E+03  2.09190E+01 -2.90053E+03
  1.55231E+03 -3.85366E+02  2.12090E+03 -2.06369E+02  1.52446E+03 -4.00652E+02  4.60741E+02  1.81684E+03
 -3.59160E+02  5.15329E+02 -1.29502E+03 -6.06656E+02  1.01411E+03 -1.75188E+03  2.60734E+03 -1.16209E+03
  2.49409E+03  6.90600E+02  3.89364E+03  2.09306E+03  1.29524E+03  2.99377E+03 -7.94277E+02  3.23583E+03
 -2.46506E+03  3.18168E+02 -2.67132E+03  5.73352E+01 -1.12722E+03 -2.21185E+03  1.44594E+02 -1.58968E+03
  1.56348E+03 -1.05181E+03  1.48552E+03  5.96312E+02  4.90635E+02  1.54790E+03 -1.70991E+02  1.49450E+03
 -1.02656E+03  1.55659E+03 -5.56664E+02  6.55567E+01  4.51465E+00  8.88151E+02 -1.61466E+02  7.68117E+02
 -7.26799E+02  8.47166E+02 -2.40300E+03  1.16847E+03 -3.03673E+03  3.84444E+02 -3.07980E+03 -1.26782E+03
 -1.43193E+03 -3.80118E+03  7.21530E+02 -4.14697E+03  1.67861E+03 -3.42020E+03  3.46944E+03 -9.54723E+02
  3.72164E+03  1.52314E+02  2.12640E+03  2.66326E+03 -2.68712E+02  2.76894E+03 -1.60257E+03  2.00169E+03
 -1.78473E+03  1.17730E+03 -1.24270E+03 -2.68708E+02 -5.81596E+02 -1.00676E+02 -9.19980E+02  1.48650E+02
 -1.65568E+03 -8.05857E+00 -8.15963E+02  6.70582E-01 -3.49019E+02 -1.06401E+03  1.10584E+02 -1.47229E+03
  1.57408E+03 -6.82770E+02  1.30878E+03  2.89481E+02  1.52386E+03  1.30378E+03 -1.97441E+02  2.42614E+03
 -1.63485E+03  3.53679E+03 -2.25145E+03  2.02122E+03 -2.53598E+03 -2.41239E+02 -1.96385E+03 -2.06377E+03
 -1.15063E+03 -2.40666E+03  3.06199E+02 -2.15672E+03  1.69863E+03 -1.09613E+03  9.36123E+02  2.26698E+02
  1.29926E+03  3.58574E+02  2.22842E+02  8.17194E+02 -2.81219E+02 -9.27628E+01 -1.01466E+02 -5.47385E+02
  1.35199E+03 -3.71216E+02  3.48239E+02  7.54993E+02  4.92366E+02  1.19136E+03  7.09137E+02  1.18600E+03
 -8.43231E+02  8.03381E+02 -1.85202E+03 -1.60416E+01 -2.16926E+03 -1.14904E+03 -4.24148E+02 -1.56313E+03
  1.09522E+03 -1.06983E+03  1.32600E+03 -1.69982E+02  1.56184E+03  7.80222E+01  8.69181E+02  1.27937E+03
  4.97739E+02  9.30114E+02 -1.12797E+03  1.19424E+03 -1.56994E+03  1.17593E+03 -5.80040E+02  2.11363E+02
 -4.25577E+02  9.49133E+01 -1.05098E+03 -1.07051E+02 -9.71061E+02  4.74401E+02 -1.13981E+03 -9.39897E+02
 -1.66282E+03 -3.85387E+02 -6.67077E+02 -1.75563E+03  1.23022E+03 -1.96410E+03  1.12339E+03 -9.50467E+02
  1.00278E+03  2.27799E+02  2.04613E+02  1.22419E+03 -1.28732E+02  8.72772E+02 -1.06044E+03  1.11731E+03
