 $NMID ID='MM_0lb_SNR400_8hz_g60_23.RAW', FMTDAT='(8E13.5)'
 TRAMP=1., VOLUME=1. $END
  3.09983E+05  5.63553E+02  3.37997E+05  2.50803E+05  8.41477E+04  3.38407E+05 -1.32228E+05  2.52538E+05
 -1.91147E+05  8.41980E+04 -1.13337E+05 -3.15398E+04  4.38854E+02 -5.15338E+04  5.42404E+04 -5.63949E+02
  3.59711E+04  5.32189E+04 -1.70220E+04  7.66556E+04 -6.12387E+04  6.55220E+04 -8.63323E+04  3.25947E+04
 -8.29452E+04 -1.24206E+04 -5.86644E+04 -5.35765E+04 -1.48653E+04 -7.20421E+04  2.86393E+04 -4.67252E+04
  4.14109E+04  4.01541E+03  1.59508E+04  4.84978E+04 -3.55820E+04  4.81612E+04 -6.88731E+04 -5.22568E+02
 -5.56967E+04 -5.88175E+04 -7.59477E+03 -7.96477E+04  3.49470E+04 -5.68569E+04  5.01070E+04 -1.92754E+04
  4.62907E+04  1.14570E+04  3.36771E+04  2.69758E+04  1.52439E+04  3.09884E+04 -6.63536E+03  2.74320E+04
 -2.25076E+04  1.21249E+04 -1.79074E+04 -6.17713E+03  7.68256E+03 -6.94482E+03  2.51828E+04  1.48308E+04
  6.70661E+03  3.87876E+04 -3.49086E+04  3.80871E+04 -6.66168E+04  1.60232E+03 -5.99146E+04 -4.52778E+04
 -1.22220E+04 -6.64773E+04  4.21022E+04 -4.84780E+04  6.30070E+04 -2.79365E+03  3.71206E+04  3.46250E+04
 -5.37754E+03  4.09595E+04 -3.24006E+04  2.01946E+04 -3.41065E+04 -2.66463E+03 -1.99099E+04 -1.23345E+04
 -9.94035E+03 -1.65670E+04 -6.22157E+02 -2.00316E+04  8.75032E+03 -2.41042E+04  1.62854E+04 -1.25374E+04
  9.15699E+03  6.80815E+03 -1.15719E+04  1.25185E+04 -2.41874E+04 -7.73708E+03 -9.32633E+03 -3.93708E+04
  2.58522E+04 -4.80250E+04  5.41066E+04 -2.12729E+04  5.05765E+04  2.01366E+04  1.80258E+04  4.80127E+04
 -1.66939E+04  3.70797E+04 -2.84200E+04  2.41431E+03 -1.24560E+04 -3.08345E+04  2.22691E+04 -3.75515E+04
  4.58543E+04 -1.22961E+04  4.32164E+04  2.47453E+04  2.26977E+04  5.16035E+04 -8.52816E+03  5.96448E+04
 -3.59250E+04  4.01145E+04 -4.92380E+04  1.16404E+04 -4.97870E+04 -1.87018E+04 -2.72522E+04 -4.34818E+04
  7.74400E+03 -4.34258E+04  3.51002E+04 -1.75818E+04  3.32889E+04  9.56547E+03  5.51797E+03  2.16414E+04
 -1.32661E+04  1.07887E+04 -1.13342E+04 -8.79508E+03  6.16897E+03 -1.20800E+04  1.99454E+04  5.04253E+03
  1.57538E+04  2.27783E+04 -5.16788E+03  2.80006E+04 -2.36081E+04  1.57045E+04 -3.33893E+04 -1.95387E+03
 -2.79614E+04 -1.93846E+04 -1.21409E+04 -2.76482E+04  4.47556E+03 -2.92361E+04  2.13816E+04 -2.54827E+04
  3.51790E+04 -1.43196E+04  4.04249E+04  5.78791E+03  2.79719E+04  2.64923E+04  4.92935E+03  4.25020E+04
 -2.07298E+04  3.56009E+04 -3.15989E+04  1.20784E+04 -2.37820E+04 -9.77503E+03 -6.17180E+03 -1.34943E+04
  7.37286E+02  1.95400E+02 -7.53209E+03  1.03374E+04 -2.18589E+04  5.33871E+03 -2.15432E+04 -1.01927E+04
 -1.25717E+04 -2.48655E+04  6.24088E+03 -3.03718E+04  2.03369E+04 -2.11803E+04  2.56163E+04 -1.14991E+03
  1.51799E+04  1.79911E+04 -1.34827E+03  2.45756E+04 -1.78161E+04  1.38874E+04 -2.57767E+04 -4.69195E+03
 -1.87203E+04 -2.33533E+04 -2.37493E+03 -3.01122E+04  1.38324E+04 -2.56207E+04  2.50664E+04 -1.37000E+04
  2.41745E+04 -8.16367E+02  1.75083E+04  6.07668E+03  9.34295E+03  2.50127E+03  1.37386E+04 -2.37114E+03
  2.42449E+04  3.95954E+03  2.75993E+04  2.02892E+04  1.89895E+04  4.10835E+04 -2.66674E+03  4.81742E+04
 -2.73390E+04  4.13045E+04 -4.65926E+04  2.15281E+04 -4.96739E+04 -4.23212E+03 -3.94924E+04 -2.86974E+04
 -1.57423E+04 -4.09432E+04  1.43661E+04 -3.60138E+04  3.01659E+04 -1.63062E+04  2.70850E+04  8.89754E+03
  8.99928E+03  2.06452E+04 -1.28245E+04  1.76925E+04 -2.14163E+04  2.90046E+03 -1.75192E+04 -1.41527E+04
 -9.02350E+02 -2.11341E+04  1.14995E+04 -1.50579E+04  1.45658E+04 -1.56542E+03  3.33536E+03  8.31041E+03
 -9.74904E+03  5.70022E+03 -1.08232E+04 -7.83604E+03 -3.07621E+03 -1.94298E+04  1.29874E+04 -2.23853E+04
  2.53622E+04 -1.26992E+04  2.99214E+04  4.30452E+03  2.63047E+04  1.99842E+04  1.22183E+04  3.24381E+04
 -6.63999E+03  3.47361E+04 -2.30699E+04  2.13644E+04 -2.58469E+04  3.45198E+03 -1.67860E+04 -7.46657E+03
 -7.14242E+03 -8.20855E+03  1.34269E+01  6.16104E+02 -3.99005E+03  3.13593E+03 -7.21708E+03  5.94376E+03
 -1.58235E+04 -1.34428E+03 -1.65167E+04 -1.35752E+04 -6.51563E+03 -2.08819E+04  6.73986E+03 -1.86334E+04
  1.45889E+04 -7.59900E+03  1.02647E+04  5.80198E+03 -5.92957E+01  6.66734E+03 -8.71403E+03  2.56630E+02
 -8.93160E+03 -1.14366E+04 -1.61862E+03 -1.76402E+04  1.06487E+04 -1.89573E+04  2.32156E+04 -1.00006E+04
  2.71047E+04  3.22797E+03  1.86557E+04  1.64491E+04  4.03440E+03  2.19938E+04 -1.09121E+04  1.74227E+04
 -1.44658E+04  4.71871E+03 -7.24958E+03 -3.98375E+03  1.96181E+03 -5.74206E+03  9.07792E+03 -1.25867E+03
  9.10664E+03  8.75605E+03  2.05150E+03  1.33438E+04 -1.07922E+04  1.30598E+04 -1.71718E+04  2.73943E+03
 -1.21679E+04 -9.75447E+03  5.73213E+02 -1.50939E+04  1.01779E+04 -7.38470E+03  1.09138E+04  4.12686E+03
  2.23250E+03  1.15279E+04 -9.18969E+03  1.34586E+04 -1.78506E+04  6.24836E+03 -1.62685E+04 -6.13070E+03
 -9.23790E+03 -1.85300E+04  4.58429E+03 -2.16757E+04  1.71363E+04 -1.41410E+04  2.02397E+04  2.78229E+03
  1.19071E+04  1.54284E+04 -5.35822E+02  1.79003E+04 -1.21610E+04  1.00933E+04 -1.48498E+04 -1.58988E+03
 -1.18138E+04 -1.16129E+04 -1.56883E+03 -1.37341E+04  7.68428E+03 -1.14847E+04  8.69215E+03 -3.47960E+03
  5.32513E+03  3.09039E+03 -1.13000E+03  2.11232E+03 -1.29023E+03 -3.68173E+03  3.26689E+03 -9.09829E+03
  1.41888E+04 -6.10343E+03  1.90648E+04  2.26350E+03  1.76643E+04  1.31184E+04  1.13837E+04  2.49742E+04
 -6.40782E+03  2.82632E+04 -2.35659E+04  2.15064E+04 -2.98372E+04  4.17182E+03 -2.38339E+04 -1.04370E+04
 -1.16461E+04 -2.00890E+04  7.14527E+02 -1.70337E+04  6.75737E+03 -1.02073E+04  5.30520E+03 -6.30884E+03
  4.50297E+03 -2.71700E+03  4.99976E+03 -3.97250E+03  6.51640E+03 -4.11423E+03  9.91861E+03 -2.26560E+03
  1.32456E+04  2.51936E+03  7.40161E+03  1.09727E+04 -1.93208E+03  1.41292E+04 -1.35423E+04  1.10493E+04
 -1.73516E+04 -1.58293E+03 -1.22096E+04 -1.29336E+04 -1.33185E+03 -1.85747E+04  9.92696E+03 -1.89150E+04
  1.91342E+04 -1.00214E+04  2.37873E+04  3.83048E+03  1.63597E+04  1.69214E+04  2.14980E+03  2.07527E+04
 -8.72367E+03  1.66399E+04 -1.23676E+04  6.31490E+03 -8.17567E+03 -2.72852E+03 -3.73292E+03 -2.34213E+03
 -1.58164E+03 -4.82743E+02 -2.83976E+03  3.74353E+03 -8.16466E+03  2.35727E+03 -1.22591E+04 -1.65792E+03
 -8.89805E+03 -1.13378E+04 -5.60729E+02 -1.73806E+04  1.00475E+04 -1.66683E+04  1.83281E+04 -5.18505E+03
  1.76062E+04  9.08526E+03  8.55111E+03  1.56180E+04 -3.89381E+03  1.83985E+04 -1.29877E+04  1.12138E+04
 -1.73134E+04  1.70016E+02 -1.13711E+04 -1.11230E+04 -6.37681E+02 -1.56003E+04  7.55457E+03 -1.15369E+04
  1.12625E+04 -3.59632E+03  8.50890E+03  2.84908E+03  2.85067E+03  4.87633E+03  1.35822E+03  2.02744E+03
  3.23308E+03  1.56111E+03  4.53887E+03  2.22012E+03  6.39784E+03  5.96654E+03  4.51588E+03  1.01912E+04
 -3.18496E+03  1.43054E+04 -1.24820E+04  1.44468E+04 -1.94811E+04  3.87106E+03 -1.93400E+04 -8.11474E+03
 -9.31133E+03 -1.78769E+04  3.28547E+03 -2.00234E+04  1.23715E+04 -1.31029E+04  1.57326E+04 -2.79880E+03
  1.19456E+04  4.92824E+03  3.10945E+03  1.08192E+04 -5.97795E+03  7.02921E+03 -8.22053E+03 -1.12298E+03
 -4.21645E+03 -7.83749E+03  3.80408E+03 -8.08186E+03  7.99899E+03 -4.55539E+03  8.71771E+03  1.37919E+03
  3.52185E+03  3.09130E+03  2.18008E+03  2.98104E+03 -2.34163E+02  2.26173E+03  1.77200E+03 -1.21104E+03
  2.80546E+03 -1.56007E+03  6.93696E+03  3.36681E+03  4.23445E+03  1.03439E+04 -1.86177E+03  1.35272E+04
 -8.57512E+03  8.13731E+03 -1.29761E+04  3.00828E+03 -9.78247E+03 -4.42666E+03 -3.58200E+03 -7.74053E+03
  1.59164E+03 -7.53444E+03  4.48761E+03 -2.42806E+03  3.70668E+03  3.51417E+03 -9.28107E+02  5.89161E+03
 -7.33845E+03  3.80581E+03 -9.24010E+03 -4.56581E+03 -4.58382E+03 -1.10666E+04  7.34899E+02 -1.07819E+04
  6.59058E+03 -5.73967E+03  8.22658E+03 -9.64041E+02  5.48162E+03  3.64350E+03  1.17649E+03  5.69064E+03
 -3.91054E+03  2.18758E+03 -4.83307E+03 -3.70253E+03  1.62450E+03 -8.22914E+03  9.86381E+03 -6.85355E+03
  1.22275E+04  7.42327E+02  1.11387E+04  8.41320E+03  3.67901E+03  1.34418E+04 -4.51270E+03  1.14507E+04
 -1.01929E+04  5.13457E+03 -1.04093E+04 -1.53825E+03 -5.25143E+03 -7.08061E+03  2.00404E+03 -8.21758E+03
  7.56940E+03 -3.58500E+03  7.32296E+03  2.91224E+03  1.88683E+03  6.49545E+03 -1.26448E+03  6.07378E+03
 -3.04669E+03  3.75178E+03 -4.15557E+03  1.30069E+03 -2.36609E+03  9.35724E+02 -1.73693E+03  1.62069E+03
 -2.70578E+03  4.54490E+03 -8.23178E+03  4.92097E+03 -1.30894E+04  5.17034E+01 -1.41695E+04 -8.46087E+03
 -7.57172E+03 -1.66504E+04  3.07119E+03 -2.02285E+04  1.25669E+04 -1.55900E+04  1.84614E+04 -5.46621E+03
  1.75340E+04  4.15161E+03  9.82156E+03  1.12057E+04  1.97235E+03  1.42897E+04 -5.28644E+03  9.30737E+03
 -7.91739E+03  3.52071E+03 -4.61267E+03 -1.77108E+03 -1.11916E+03 -1.22442E+03 -8.86325E+00 -5.57286E+02
 -2.21942E+03  2.28703E+02 -2.72421E+03 -1.97105E+03 -1.08889E+03 -3.66165E+03  1.12333E+03 -5.19775E+03
  5.42982E+03 -4.18364E+03  7.90310E+03  3.47010E+02  8.65175E+03  7.06574E+03  2.19406E+03  1.34622E+04
 -6.29916E+03  1.48647E+04 -1.52015E+04  9.38762E+03 -1.60687E+04 -1.59208E+03 -1.30568E+04 -9.75494E+03
 -5.51157E+03 -1.35238E+04  2.52639E+03 -1.25721E+04  8.57876E+03 -7.23547E+03  9.22101E+03  1.60875E+02
  5.28051E+03  4.77676E+03 -1.74168E+02  3.71048E+03 -2.16376E+03  2.25532E+02  6.29947E+02 -3.21789E+03
  4.56393E+03 -2.07362E+03  5.63179E+03  2.38928E+03  5.33378E+03  4.66021E+03  1.13930E+03  7.82763E+03
 -5.98121E+03  6.31001E+03 -8.87497E+03  8.27356E+02 -8.94893E+03 -6.69779E+03 -1.51278E+03 -1.21718E+04
  6.43348E+03 -1.03704E+04  1.17805E+04 -2.69288E+03  1.11511E+04  2.96993E+03  5.86591E+03  7.95974E+03
  2.65057E+02  8.57148E+03 -4.37140E+03  7.58154E+03 -6.48813E+03  4.03077E+03 -4.75357E+03  2.87004E+02
 -3.02266E+03 -4.90492E+02 -2.21166E+03  7.19218E+02 -4.88076E+03  2.25580E+03 -7.99507E+03 -1.22929E+03
 -6.15737E+03 -5.09328E+03 -1.75732E+03 -8.89462E+03  3.93299E+03 -9.49946E+03  8.20317E+03 -4.78225E+03
  9.40984E+03  7.71612E+02  5.43855E+03  5.94466E+03 -1.21851E+03  9.55373E+03 -7.10073E+03  6.25280E+03
