 $NMID ID='MM_0lb_SNR400_16hz_g55_97.RAW', FMTDAT='(8E13.5)'
 TRAMP=1., VOLUME=1. $END
  3.09716E+05  4.55288E+02  3.37538E+05  2.50279E+05  8.45420E+04  3.38366E+05 -1.32009E+05  2.50960E+05
 -1.90437E+05  8.30127E+04 -1.11229E+05 -3.31066E+04  8.39735E+02 -5.03877E+04  5.37427E+04 -2.46764E+02
  3.50859E+04  5.28310E+04 -1.72411E+04  7.61586E+04 -6.12501E+04  6.42121E+04 -8.39846E+04  3.19876E+04
 -8.04235E+04 -1.12657E+04 -5.72029E+04 -5.09881E+04 -1.47849E+04 -6.97103E+04  2.71745E+04 -4.64400E+04
  3.99390E+04  3.79558E+03  1.57492E+04  4.78609E+04 -3.37936E+04  4.71839E+04 -6.65768E+04 -4.01171E+02
 -5.28043E+04 -5.67407E+04 -6.75380E+03 -7.62912E+04  3.37679E+04 -5.48528E+04  4.78135E+04 -1.65237E+04
  4.28004E+04  1.13250E+04  3.19793E+04  2.54727E+04  1.59252E+04  2.91940E+04 -5.17500E+03  2.72329E+04
 -2.22926E+04  1.25121E+04 -1.88427E+04 -4.75976E+03  5.43109E+03 -7.92436E+03  2.26184E+04  1.20016E+04
  7.20751E+03  3.53966E+04 -3.16168E+04  3.52334E+04 -6.27221E+04  2.62378E+03 -5.69108E+04 -4.26829E+04
 -1.18590E+04 -6.26908E+04  3.99896E+04 -4.53988E+04  5.81508E+04 -1.63743E+03  3.39387E+04  3.23446E+04
 -6.44271E+03  3.59972E+04 -2.99539E+04  1.57187E+04 -2.99399E+04 -4.85499E+03 -1.66591E+04 -1.04762E+04
 -8.35542E+03 -1.28460E+04 -8.26167E+02 -1.74793E+04  7.84837E+03 -2.24761E+04  1.57746E+04 -1.33814E+04
  1.09199E+04  5.27146E+03 -8.02780E+03  1.29111E+04 -2.06364E+04 -4.27997E+03 -7.90162E+03 -3.29393E+04
  2.23534E+04 -4.32903E+04  4.77163E+04 -1.92467E+04  4.44907E+04  1.95403E+04  1.59251E+04  4.35988E+04
 -1.52995E+04  3.25646E+04 -2.47997E+04  1.60960E+03 -9.96380E+03 -2.75400E+04  2.04006E+04 -3.35740E+04
  4.07243E+04 -9.42031E+03  3.48844E+04  2.34135E+04  1.78465E+04  4.57117E+04 -8.40365E+03  4.98176E+04
 -3.15534E+04  3.26405E+04 -4.02376E+04  9.62378E+03 -4.22716E+04 -1.61646E+04 -2.33768E+04 -3.75947E+04
  7.27985E+03 -3.69547E+04  3.07917E+04 -1.39180E+04  2.88269E+04  1.06155E+04  3.15085E+03  1.88347E+04
 -1.34958E+04  7.57676E+03 -1.04352E+04 -7.79085E+03  5.99858E+03 -1.05686E+04  1.83895E+04  5.91673E+03
  1.33623E+04  2.14661E+04 -6.36462E+03  2.49459E+04 -2.23725E+04  1.08964E+04 -2.74823E+04 -5.95325E+03
 -1.93823E+04 -1.72732E+04 -7.93254E+03 -1.97227E+04  3.58881E+03 -1.83800E+04  1.47261E+04 -1.72648E+04
  2.46207E+04 -1.25107E+04  3.15819E+04  2.90767E+03  2.38315E+04  1.89437E+04  4.71245E+03  3.51946E+04
 -1.69422E+04  3.00531E+04 -2.76169E+04  1.01053E+04 -2.03521E+04 -1.03606E+04 -3.80471E+03 -1.39018E+04
  1.77904E+03 -2.98017E+03 -3.95059E+03  6.73230E+03 -1.55716E+04  5.34845E+03 -1.54301E+04 -6.71426E+03
 -9.33088E+03 -1.79041E+04  4.37545E+03 -2.17720E+04  1.45413E+04 -1.58116E+04  1.74609E+04 -1.34434E+03
  1.07047E+04  1.29974E+04 -1.72358E+03  1.80024E+04 -1.19892E+04  9.99228E+03 -1.86128E+04 -3.84482E+03
 -1.34917E+04 -1.59954E+04 -1.90345E+03 -2.20146E+04  9.71105E+03 -1.77660E+04  1.79986E+04 -8.35731E+03
  1.73290E+04  3.33410E+01  1.17366E+04  3.94252E+03  6.55631E+03  8.14614E+02  9.48235E+03 -1.46512E+03
  1.64006E+04  2.03910E+03  1.86332E+04  1.43501E+04  1.18685E+04  2.82931E+04 -3.32194E+03  3.19388E+04
 -1.90162E+04  2.56058E+04 -2.96944E+04  1.25463E+04 -3.09491E+04 -2.48203E+03 -2.57216E+04 -1.81941E+04
 -1.11913E+04 -2.49712E+04  8.52889E+03 -2.31980E+04  1.95498E+04 -1.17850E+04  1.84124E+04  4.44007E+03
  7.09131E+03  1.34044E+04 -8.62817E+03  1.19419E+04 -1.52493E+04  2.78418E+03 -1.17227E+04 -9.74240E+03
 -9.14236E+01 -1.48582E+04  7.46618E+03 -1.07502E+04  9.48873E+03 -1.52217E+03  2.21371E+03  6.25323E+03
 -5.80087E+03  2.00911E+03 -4.61420E+03 -4.63924E+03 -3.00070E+02 -1.21761E+04  9.00112E+03 -1.25701E+04
  1.56628E+04 -6.61722E+03  1.68831E+04  2.62391E+03  1.36912E+04  1.15513E+04  6.23233E+03  1.84879E+04
 -3.11610E+03  1.95745E+04 -1.29007E+04  1.23208E+04 -1.40564E+04  3.27510E+03 -1.02586E+04 -3.24019E+03
 -5.14099E+03 -4.35532E+03 -8.69839E+02  8.37711E+02 -1.64874E+03  3.05096E+03 -4.51312E+03  3.72313E+03
 -9.71606E+03 -1.12073E+03 -9.61796E+03 -8.29400E+03 -4.05576E+03 -1.27891E+04  4.13908E+03 -1.05577E+04
  8.62788E+03 -4.91253E+03  6.30391E+03  2.31315E+03  3.85829E+02  3.20260E+03 -4.56642E+03  2.76642E+02
 -4.64332E+03 -6.50153E+03 -6.16092E+02 -9.94906E+03  5.45509E+03 -1.03679E+04  1.28102E+04 -4.97986E+03
  1.52219E+04  1.18155E+03  1.08203E+04  8.49804E+03  1.85009E+03  1.10842E+04 -6.96614E+03  1.05243E+04
 -8.65404E+03  3.61482E+03 -3.71027E+03 -1.99459E+03  1.58192E+03 -2.47270E+03  5.48888E+03 -1.20630E+03
  4.81102E+03  4.22862E+03  1.00810E+03  8.04544E+03 -5.74208E+03  7.69816E+03 -1.02582E+04  1.04178E+03
 -6.58674E+03 -4.64095E+03  3.61749E+02 -8.70995E+03  4.83234E+03 -4.35667E+03  5.34992E+03  1.68535E+03
  1.08827E+03  5.00085E+03 -5.04858E+03  6.33211E+03 -6.85880E+03  3.36799E+03 -6.52287E+03 -1.83709E+03
 -4.30456E+03 -8.16766E+03  2.60226E+03 -9.52030E+03  8.07872E+03 -6.04580E+03  9.62997E+03  1.59027E+03
  5.22978E+03  7.48544E+03  1.53917E+02  1.00452E+04 -6.01518E+03  5.35535E+03 -7.08626E+03 -3.66819E+02
 -6.73063E+03 -6.88417E+03 -1.04435E+03 -6.43116E+03  3.16229E+03 -5.28437E+03  4.04958E+03 -3.08590E+03
  3.36925E+03  4.56050E+02 -5.45077E+02  1.06204E+03 -3.92968E+01 -1.30527E+03  6.32713E+02 -2.88667E+03
  5.31867E+03 -1.69910E+03  7.99761E+03  9.83023E+02  7.43132E+03  4.53987E+03  6.04622E+03  1.05967E+04
 -1.81505E+03  1.21041E+04 -1.04748E+04  8.97038E+03 -1.35384E+04  2.30089E+03 -1.10327E+04 -4.60630E+03
 -5.68000E+03 -8.68525E+03 -5.43936E+02 -8.00030E+03  2.93830E+03 -3.03129E+03  2.45691E+03 -2.55005E+03
  1.97815E+03 -2.00952E+03  2.72857E+03 -3.10612E+03  3.70147E+03 -1.93194E+03  5.14729E+03 -4.41635E+01
  5.49416E+03  1.28109E+03  2.13986E+03  5.20479E+03 -1.30530E+03  4.19325E+03 -6.18516E+03  3.92410E+03
 -6.93576E+03 -1.05903E+03 -3.65595E+03 -4.93558E+03 -5.06887E+02 -7.04133E+03  4.33165E+03 -7.20650E+03
  7.54185E+03 -4.59440E+03  9.43666E+03  8.25827E+02  7.38371E+03  6.00349E+03  1.28813E+03  7.95229E+03
 -3.44180E+03  7.54301E+03 -4.87941E+03  2.89333E+03 -3.08198E+03 -1.28696E+03 -1.18988E+02 -1.15367E+03
 -6.41890E+02 -1.32570E+02 -1.18149E+03  1.65020E+03 -2.84622E+03  1.23703E+03 -5.23816E+03 -4.07170E+02
 -2.95319E+03 -5.40730E+03  5.29631E+02 -6.43776E+03  4.23406E+03 -6.51335E+03  5.53010E+03 -1.60810E+03
  6.22550E+03  3.09943E+03  2.67506E+03  5.45196E+03 -1.73211E+03  7.06641E+03 -4.39277E+03  4.57725E+03
 -5.78070E+03  1.05063E+02 -4.04925E+03 -3.57125E+03 -2.61397E+02 -4.73144E+03  2.15439E+03 -3.86340E+03
  3.83994E+03 -2.12161E+03  3.14173E+03  1.15229E+03  9.01038E+02  2.35766E+03  6.36558E+02  1.15434E+03
  2.36447E+03  2.52013E+02  1.23944E+03  1.64443E+03  1.24296E+03  3.00294E+03  1.82105E+03  2.99724E+03
 -1.49279E+03  4.31510E+03 -4.13263E+03  5.49767E+03 -4.91516E+03  1.82498E+03 -6.75129E+03 -1.91115E+03
 -2.39393E+03 -5.44296E+03  5.18405E+02 -5.96476E+03  3.50955E+03 -3.71423E+03  5.41372E+03 -1.53396E+03
  3.63226E+03  2.99425E+03  5.58355E+02  3.10976E+03 -2.04985E+03  1.70441E+03 -2.07124E+03 -2.38610E+02
 -1.42596E+03 -2.81909E+03  2.16390E+03 -2.82537E+03  2.49666E+03 -1.08028E+03  2.11376E+03  7.90277E+02
  1.74036E+03  1.34311E+03  7.52620E+02  6.42861E+02 -1.73940E+02  9.46607E+02  2.26186E+03 -6.68593E+02
  1.60099E+02 -5.03833E+02  2.60757E+03  1.14471E+03  1.21361E+03  3.68418E+03 -1.48108E+02  4.27637E+03
 -2.45051E+03  2.82745E+03 -3.47881E+03  4.35675E+02 -2.99589E+03 -1.24929E+03 -2.73887E+02 -1.34141E+03
  1.01933E+03 -1.72940E+03  2.06071E+03 -1.21968E+03  1.16189E+03  8.38902E+02 -6.10068E+02  1.82240E+03
 -2.02725E+03  8.08189E+02 -2.79059E+03 -1.06834E+03 -1.20942E+03 -3.39196E+03  2.96168E+02 -2.66980E+03
  1.10713E+03 -1.41491E+03  1.40085E+03 -1.34059E+02  2.36109E+03  1.32017E+01  4.41169E+02  1.71914E+03
 -6.58057E+02  1.61026E+02 -1.51842E+03 -8.23621E+02  8.34471E+02 -1.42060E+03  3.09881E+03 -1.76330E+03
  2.30440E+03  5.73580E+02  3.75405E+03  1.06043E+03  1.18893E+03  3.19149E+03 -3.07051E+02  2.89155E+03
 -2.39815E+03  1.27076E+03 -2.54425E+03 -3.03260E+02 -1.50608E+03 -2.07631E+03 -2.13992E+02 -8.46943E+02
  1.94487E+03 -1.03172E+03  1.75557E+03  7.42163E+02  4.19944E+02  1.31593E+03  1.34335E+02  1.78699E+03
 -2.80142E+02  1.09301E+03 -2.63140E+02  6.39834E+02 -5.75337E+02  6.68860E+02 -7.49111E+02  9.43101E+02
 -6.80626E+02  1.73744E+03 -2.65786E+03  9.88282E+02 -2.51222E+03  2.54624E+02 -3.77549E+03 -1.50864E+03
 -1.63565E+03 -3.69697E+03  7.33082E+02 -4.62622E+03  2.40931E+03 -3.34768E+03  4.67865E+03 -2.25400E+03
  3.58915E+03 -3.37741E+02  2.05392E+03  2.52878E+03 -3.17963E+02  2.57942E+03 -6.62971E+02  1.94409E+03
 -1.79644E+03  7.33808E+02 -1.29791E+03  4.35757E+02 -7.21563E+02 -8.07552E+01 -3.66702E+02  3.11418E+02
 -7.76714E+02  6.35643E+02 -1.27187E+03  2.72923E+02  3.47738E+00 -1.09630E+03 -1.75276E+02 -1.08639E+03
  1.73396E+03 -6.25447E+02  1.19975E+03  2.44184E+02  1.76504E+03  1.46572E+03 -2.75465E+02  2.13038E+03
 -1.42661E+03  3.38197E+03 -3.00459E+03  2.16931E+03 -3.60890E+03 -5.36243E+01 -2.07466E+03 -2.31864E+03
 -1.60382E+03 -2.63025E+03  6.94529E+02 -1.39064E+03  1.41824E+03 -1.50600E+03  8.52014E+02  5.34843E+02
  8.00632E+02  1.07155E+02  3.65733E+01  2.45511E+02 -1.78310E+02 -1.06397E+02 -5.63561E+02 -1.39546E+03
  9.74450E+02  6.05981E+01  8.07013E+02  9.83912E+02  8.42955E+02  8.09140E+02  1.19108E+03  1.43591E+03
 -1.20322E+03  1.34666E+03 -1.59616E+03  5.78770E+02 -1.33253E+03 -4.93115E+02  3.41229E+02 -2.12937E+03
  8.85658E+02 -1.08577E+03  1.31062E+03 -1.00095E+02  1.83300E+03 -1.06972E+03  1.02448E+03  1.69328E+03
  7.41290E+02  1.20720E+03 -9.09365E+02  5.78231E+02 -6.97673E+02  5.61326E+02 -1.00055E+03 -8.94267E+01
 -1.14955E+02  3.51785E+02 -5.51400E+02 -1.14401E+02 -1.35359E+03  5.79936E+02 -1.52972E+03 -3.84835E+02
 -1.50876E+03 -7.06662E+02  1.99005E+01 -1.51811E+03  1.01278E+03 -2.29851E+03  9.45010E+02 -4.81904E+02
  2.00249E+03  3.85500E+02  3.10611E+02  3.02012E+02  4.12793E+01  1.35764E+03 -5.54419E+02  1.84108E+03
