 $NMID ID='MM_0lb_SNR400_16hz_g45_24.RAW', FMTDAT='(8E13.5)'
 TRAMP=1., VOLUME=1. $END
  3.10009E+05  5.50597E+02  3.37884E+05  2.51010E+05  8.43063E+04  3.37862E+05 -1.32768E+05  2.50472E+05
 -1.90205E+05  8.33741E+04 -1.10967E+05 -3.34535E+04  1.05808E+03 -4.98489E+04  5.33331E+04 -1.95184E+02
  3.52855E+04  5.30036E+04 -1.69408E+04  7.53556E+04 -6.02145E+04  6.28701E+04 -8.37478E+04  3.19566E+04
 -8.06934E+04 -1.14575E+04 -5.70431E+04 -5.06995E+04 -1.49894E+04 -6.86524E+04  2.69637E+04 -4.48403E+04
  3.92723E+04  4.02867E+03  1.56291E+04  4.71893E+04 -3.38064E+04  4.58890E+04 -6.59423E+04 -5.54705E+02
 -5.27317E+04 -5.60835E+04 -6.55684E+03 -7.58625E+04  3.30125E+04 -5.44326E+04  4.68911E+04 -1.66373E+04
  4.26518E+04  1.13333E+04  3.08144E+04  2.47396E+04  1.54469E+04  2.86954E+04 -4.65823E+03  2.70672E+04
 -2.16219E+04  1.19249E+04 -1.82673E+04 -4.38962E+03  4.54045E+03 -7.75562E+03  2.16801E+04  1.20831E+04
  7.40028E+03  3.42612E+04 -3.09884E+04  3.44816E+04 -6.19336E+04  2.63819E+03 -5.64226E+04 -4.17145E+04
 -1.24455E+04 -6.21489E+04  3.90237E+04 -4.42346E+04  5.68377E+04 -2.12241E+03  3.27659E+04  3.13967E+04
 -5.98918E+03  3.47869E+04 -2.92063E+04  1.43153E+04 -2.95081E+04 -4.91457E+03 -1.56147E+04 -1.05998E+04
 -7.39104E+03 -1.26129E+04 -9.71879E+02 -1.76804E+04  7.02856E+03 -2.28682E+04  1.55655E+04 -1.38574E+04
  1.13084E+04  4.99111E+03 -6.79647E+03  1.35367E+04 -2.04636E+04 -3.38528E+03 -7.84563E+03 -3.18653E+04
  2.22398E+04 -4.22459E+04  4.61702E+04 -1.90009E+04  4.31826E+04  1.88302E+04  1.52717E+04  4.27324E+04
 -1.51551E+04  3.29143E+04 -2.48222E+04  1.09694E+03 -8.89474E+03 -2.73077E+04  2.07955E+04 -3.22543E+04
  3.96136E+04 -8.41852E+03  3.38180E+04  2.30365E+04  1.63076E+04  4.44798E+04 -7.55846E+03  4.71863E+04
 -2.95820E+04  3.15838E+04 -3.92609E+04  8.72076E+03 -4.03041E+04 -1.60647E+04 -2.21562E+04 -3.60728E+04
  7.00552E+03 -3.56723E+04  3.04072E+04 -1.38443E+04  2.80281E+04  1.07945E+04  3.53161E+03  1.81305E+04
 -1.24209E+04  8.08129E+03 -1.00814E+04 -7.28705E+03  5.53639E+03 -1.05744E+04  1.76595E+04  6.33669E+03
  1.27059E+04  2.17575E+04 -6.69554E+03  2.47036E+04 -2.19620E+04  1.00691E+04 -2.68077E+04 -6.24458E+03
 -1.82821E+04 -1.69007E+04 -6.84279E+03 -1.83495E+04  3.99907E+03 -1.67008E+04  1.40215E+04 -1.63486E+04
  2.35065E+04 -1.24711E+04  3.02632E+04  1.91350E+03  2.24109E+04  1.88708E+04  4.08427E+03  3.47804E+04
 -1.68064E+04  2.83278E+04 -2.60874E+04  9.81301E+03 -2.03083E+04 -9.98124E+03 -4.10884E+03 -1.35483E+04
  2.48975E+03 -3.87992E+03 -3.92144E+03  6.14363E+03 -1.43630E+04  4.32739E+03 -1.50225E+04 -5.88425E+03
 -8.80441E+03 -1.70647E+04  4.42431E+03 -2.12070E+04  1.41826E+04 -1.50906E+04  1.68605E+04 -1.55911E+03
  9.64248E+03  1.13513E+04 -1.30537E+03  1.75112E+04 -1.14236E+04  9.70002E+03 -1.74347E+04 -3.50621E+03
 -1.29945E+04 -1.57650E+04 -2.00314E+03 -2.10591E+04  9.58469E+03 -1.68410E+04  1.81338E+04 -7.98354E+03
  1.59479E+04  4.65594E+02  1.13877E+04  4.48155E+03  6.43717E+03  8.40142E+02  8.86026E+03 -1.35724E+03
  1.55271E+04  2.57584E+03  1.70428E+04  1.45559E+04  1.07167E+04  2.73563E+04 -2.56223E+03  3.03089E+04
 -1.79753E+04  2.28547E+04 -2.74046E+04  1.17263E+04 -2.90102E+04 -1.65389E+03 -2.41755E+04 -1.61751E+04
 -1.03210E+04 -2.35186E+04  8.16392E+03 -2.27230E+04  1.89900E+04 -1.14781E+04  1.69320E+04  4.92456E+03
  7.03579E+03  1.26672E+04 -7.55287E+03  1.19145E+04 -1.45263E+04  2.19174E+03 -1.17090E+04 -9.36624E+03
 -5.94604E+02 -1.37090E+04  6.99365E+03 -1.00858E+04  8.98483E+03 -1.30263E+03  2.02596E+03  5.52226E+03
 -5.46717E+03  1.94209E+03 -4.44615E+03 -5.49917E+03  1.17897E+02 -1.20174E+04  8.47207E+03 -1.21727E+04
  1.44317E+04 -6.29512E+03  1.46273E+04  3.18865E+03  1.27535E+04  1.10168E+04  6.41261E+03  1.70902E+04
 -2.56713E+03  1.90129E+04 -1.14638E+04  1.22229E+04 -1.33071E+04  3.19936E+03 -9.43932E+03 -2.81047E+03
 -5.31329E+03 -4.46410E+03 -7.84948E+02  6.79443E+02 -2.15660E+03  2.23262E+03 -4.35579E+03  3.87008E+03
 -9.16223E+03 -9.80695E+02 -9.72344E+03 -8.36420E+03 -3.73285E+03 -1.31059E+04  4.27210E+03 -9.59515E+03
  8.34977E+03 -4.31551E+03  5.40791E+03  2.23205E+03  8.43122E+02  3.58671E+03 -4.42063E+03 -2.89781E+01
 -4.34436E+03 -6.09730E+03 -1.18922E+03 -7.86650E+03  4.78095E+03 -9.43486E+03  1.16441E+04 -5.31147E+03
  1.38147E+04  1.34929E+03  1.02679E+04  7.69229E+03  2.02103E+03  1.09117E+04 -5.82737E+03  9.65257E+03
 -8.20062E+03  2.88062E+03 -4.54574E+03 -1.60350E+03  1.70856E+03 -2.48618E+03  5.93079E+03 -6.90402E+02
  4.46641E+03  3.97893E+03  1.35152E+03  7.41815E+03 -5.35654E+03  7.63174E+03 -9.01044E+03  1.56049E+03
 -5.98571E+03 -4.14879E+03  5.13705E+01 -8.15492E+03  4.76025E+03 -4.26260E+03  4.55251E+03  1.45149E+03
  8.24379E+02  4.56836E+03 -5.00482E+03  6.28788E+03 -6.48092E+03  3.14115E+03 -6.02675E+03 -1.64650E+03
 -3.71825E+03 -7.94426E+03  1.44319E+03 -8.85025E+03  7.61025E+03 -5.37096E+03  8.32037E+03  1.11662E+03
  5.55961E+03  6.27238E+03  6.95735E+00  8.88481E+03 -6.05307E+03  4.73023E+03 -6.41573E+03 -2.78351E+02
 -6.33953E+03 -6.23573E+03 -1.41180E+03 -6.25372E+03  2.78072E+03 -5.41456E+03  3.17269E+03 -2.75067E+03
  3.28646E+03  1.17925E+03 -2.53112E+02  1.75083E+03  4.82275E+02 -1.08007E+03  8.26943E+01 -2.60164E+03
  5.00073E+03 -2.19411E+03  7.04873E+03  6.55982E+02  6.70633E+03  4.40374E+03  6.24843E+03  9.78277E+03
 -1.64274E+03  1.11382E+04 -9.57837E+03  8.35358E+03 -1.22070E+04  1.76875E+03 -1.02459E+04 -3.50668E+03
 -5.67746E+03 -8.21229E+03  3.21000E+01 -6.87536E+03  2.73892E+03 -3.52132E+03  2.48282E+03 -2.29187E+03
  1.39455E+03 -2.09145E+03  2.37056E+03 -1.91380E+03  3.59852E+03 -1.71774E+03  4.15578E+03  1.75633E+02
  5.76208E+03  9.29234E+02  2.72044E+03  4.69526E+03 -1.82465E+03  3.92864E+03 -5.45794E+03  3.40560E+03
 -6.82338E+03 -9.04735E+02 -3.20974E+03 -4.03526E+03  4.81977E+02 -6.55158E+03  3.47432E+03 -6.86812E+03
  6.89081E+03 -4.28720E+03  8.62489E+03  7.43033E+02  6.56560E+03  5.99116E+03  1.45410E+03  8.14932E+03
 -2.35189E+03  7.40247E+03 -4.84118E+03  2.29998E+03 -2.28703E+03 -1.24306E+03 -1.18967E+03 -6.83660E+02
 -7.07678E+02  3.88884E+02 -1.01369E+03  2.22014E+03 -2.57761E+03  1.37803E+03 -5.38506E+03 -8.38469E+02
 -2.39917E+03 -4.99274E+03  8.39319E+02 -6.17188E+03  3.53803E+03 -6.02415E+03  5.42662E+03 -1.56269E+03
  5.67088E+03  4.04418E+03  2.70987E+03  4.95353E+03 -8.93081E+02  5.39590E+03 -3.69654E+03  3.30561E+03
 -5.06381E+03  5.52254E+02 -4.39686E+03 -3.15979E+03 -2.70681E+02 -4.06592E+03  2.58519E+03 -3.40120E+03
  4.21093E+03 -1.60182E+03  2.33170E+03  2.67351E+02  7.20517E+02  1.98116E+03  9.08890E+02  7.64713E+02
  1.79714E+03  1.17901E+03  1.93565E+03  9.54174E+02  1.36962E+03  2.89404E+03  1.43185E+03  2.63593E+03
 -1.36674E+03  4.42694E+03 -3.48211E+03  4.25733E+03 -4.64874E+03  1.33180E+03 -6.11035E+03 -1.51850E+03
 -2.91263E+03 -5.29968E+03  9.83195E+02 -5.96435E+03  2.80961E+03 -3.86143E+03  4.11205E+03 -1.46992E+03
  3.69858E+03  2.60354E+03  5.86950E+02  3.37913E+03 -1.52583E+03  1.76265E+03 -2.10680E+03  2.70162E+01
 -1.12231E+03 -2.28653E+03  1.65356E+03 -2.10624E+03  1.70641E+03 -1.54599E+03  1.37057E+03 -4.04801E+01
  1.38749E+03  5.90708E+02  8.48709E+02  3.94087E+02 -4.97078E+01  1.10360E+03  1.22369E+03  1.01694E+02
  4.45470E+02 -4.86215E+02  1.77632E+03  1.07779E+03  8.22585E+02  3.07245E+03 -5.66535E+02  3.96513E+03
 -2.44994E+03  1.88428E+03 -2.78281E+03  1.66558E+02 -3.44821E+03 -9.97127E+02 -6.03295E+02 -2.02074E+03
  6.78087E+02 -1.75702E+03  1.43436E+03 -9.44122E+02  1.03254E+03  1.84107E+03 -6.71260E+02  2.36887E+03
 -2.07381E+03  8.13285E+02 -2.25590E+03 -1.43801E+03 -9.61226E+02 -3.32216E+03  1.66674E+02 -3.01419E+03
  7.81768E+02 -8.68976E+02  1.22453E+03  1.43381E+02  2.07189E+03  5.77932E+02  5.53197E+02  1.50322E+03
 -7.72677E+02  5.10587E+02 -1.87446E+03 -7.52199E+02  8.36167E+02 -1.56924E+03  2.48540E+03 -1.74112E+03
  2.27959E+03  3.98982E+02  3.97040E+03  9.60765E+02  5.75769E+02  2.53961E+03 -1.11825E+03  3.25287E+03
 -1.67026E+03  4.81170E+02 -2.11754E+03  2.17799E+02 -9.01565E+02 -1.87419E+03  1.02728E+03 -1.50835E+03
  2.08073E+03 -1.49057E+03  1.61984E+03  1.04381E+03  1.00967E+02  1.51120E+03  1.87624E+02  1.24565E+03
 -8.87764E+02  1.46302E+03 -7.20857E+02  9.17552E+02 -9.58210E+02  6.81401E+02 -6.50835E+02  6.24796E+02
 -6.08763E+02  1.07500E+03 -2.19262E+03  1.05201E+03 -2.25605E+03  6.93820E+02 -3.26937E+03 -1.85612E+03
 -1.94021E+03 -4.08373E+03  7.00658E+02 -4.54854E+03  1.66756E+03 -3.25744E+03  3.98791E+03 -1.42691E+03
  3.65665E+03  6.99076E+02  1.54980E+03  1.73730E+03  9.16492E+01  2.40522E+03 -1.16144E+03  2.23135E+03
 -1.24723E+03  1.09146E+03 -3.09539E+02 -2.87744E+02 -6.82556E+02 -3.91162E+02 -2.89755E+02  9.97748E+01
 -1.22681E+03 -1.47435E+02 -1.04884E+03 -3.65450E+02 -1.07743E+02 -9.97432E+02 -1.48008E+02 -1.32460E+03
  1.59389E+03 -8.95668E+02  1.15679E+03 -9.98728E+01  1.77552E+03  1.26114E+03 -4.57566E+02  2.99905E+03
 -1.31595E+03  3.53908E+03 -2.73272E+03  2.02921E+03 -3.58946E+03 -3.75566E+02 -2.26393E+03 -2.34939E+03
 -1.56596E+03 -2.79303E+03 -9.46460E+01 -2.29790E+03  9.73123E+02 -1.25793E+03  9.59163E+02  4.71643E+02
  1.33975E+03  4.96368E+02 -3.91671E+01  8.80889E+02 -7.16639E+02 -4.25179E+02 -1.18151E+02 -4.90217E+02
  9.02853E+02 -3.56657E+02 -7.95569E+01  6.50019E+02  8.51173E+02  1.04567E+03  3.23888E+02  7.20534E+02
 -1.46409E+03  1.23238E+03 -1.19269E+03 -1.48135E+02 -1.55959E+03 -1.26383E+03  5.42352E+01 -2.00224E+03
  1.00303E+03 -1.32376E+03  1.24737E+03 -2.46576E+01  2.07262E+03 -1.08034E+02  6.00691E+02  1.39703E+03
  3.79990E+01  1.40738E+03 -7.07798E+02  1.00384E+03 -1.25888E+03  8.90807E+02 -1.01976E+03 -3.39764E+01
 -1.12718E+02 -2.20144E+02 -7.01126E+01  3.14910E+02 -3.18292E+02 -1.14167E+01 -1.07781E+03 -5.39560E+02
 -1.51518E+03  2.30731E+02 -1.29759E+02 -1.22501E+03  1.20201E+03 -2.24282E+03  1.50092E+03 -6.15402E+02
  1.02725E+03 -1.57415E+02  7.20222E+01  1.14674E+03 -1.38196E+02  9.07320E+02 -3.84505E+02  1.19600E+03
