 $NMID ID='MM_0lb_SNR400_8hz_g60_100.RAW', FMTDAT='(8E13.5)'
 TRAMP=1., VOLUME=1. $END
  3.08963E+05  7.26435E+02  3.38663E+05  2.50711E+05  8.47709E+04  3.38000E+05 -1.32771E+05  2.51758E+05
 -1.91401E+05  8.38012E+04 -1.13269E+05 -3.25227E+04  3.45467E+02 -5.06553E+04  5.29675E+04 -4.76786E+02
  3.63168E+04  5.28349E+04 -1.63410E+04  7.73265E+04 -6.09504E+04  6.47510E+04 -8.54083E+04  3.37957E+04
 -8.33599E+04 -1.20919E+04 -5.85373E+04 -5.30802E+04 -1.49169E+04 -7.15632E+04  2.79949E+04 -4.83015E+04
  4.18017E+04  3.91377E+03  1.69155E+04  4.90035E+04 -3.55168E+04  4.89090E+04 -6.93980E+04  3.43648E+02
 -5.49203E+04 -5.71812E+04 -7.59905E+03 -7.92581E+04  3.57686E+04 -5.74740E+04  5.09938E+04 -1.82469E+04
  4.58691E+04  1.18354E+04  3.38565E+04  2.72244E+04  1.59475E+04  3.12669E+04 -5.74732E+03  2.82652E+04
 -2.27852E+04  1.18774E+04 -1.86594E+04 -5.89303E+03  7.49213E+03 -7.64382E+03  2.46506E+04  1.41744E+04
  5.88736E+03  3.80008E+04 -3.43919E+04  3.81703E+04 -6.76404E+04  2.81211E+03 -5.98788E+04 -4.48415E+04
 -1.19980E+04 -6.67406E+04  4.22822E+04 -4.78166E+04  6.30816E+04 -2.63371E+03  3.73662E+04  3.43845E+04
 -5.35524E+03  4.07673E+04 -3.25740E+04  1.99642E+04 -3.43482E+04 -2.30886E+03 -2.08226E+04 -1.18913E+04
 -9.80602E+03 -1.61398E+04 -5.52677E+02 -2.03847E+04  8.36478E+03 -2.33847E+04  1.69809E+04 -1.19368E+04
  1.04127E+04  6.25819E+03 -1.13418E+04  1.34066E+04 -2.43745E+04 -7.88534E+03 -8.83687E+03 -3.89848E+04
  2.62580E+04 -4.85848E+04  5.27280E+04 -2.15587E+04  5.04597E+04  2.07920E+04  1.73575E+04  4.88144E+04
 -1.67113E+04  3.75488E+04 -2.81525E+04  2.96923E+03 -1.26672E+04 -2.83550E+04  2.18097E+04 -3.82633E+04
  4.58937E+04 -1.20821E+04  4.25147E+04  2.68660E+04  2.21462E+04  5.37711E+04 -8.32045E+03  5.86076E+04
 -3.65118E+04  4.03454E+04 -4.87963E+04  1.15304E+04 -4.93065E+04 -1.96234E+04 -2.69491E+04 -4.37943E+04
  8.32441E+03 -4.43113E+04  3.40043E+04 -1.77668E+04  3.25465E+04  1.08235E+04  5.82996E+03  2.15811E+04
 -1.36409E+04  1.00165E+04 -1.17697E+04 -7.51977E+03  5.45219E+03 -1.15815E+04  1.87803E+04  7.26456E+03
  1.56941E+04  2.36396E+04 -5.38653E+03  2.76276E+04 -2.29050E+04  1.46599E+04 -3.27860E+04 -2.71734E+03
 -2.81305E+04 -1.85848E+04 -1.32767E+04 -2.71539E+04  4.39946E+03 -2.86579E+04  2.05729E+04 -2.48072E+04
  3.50245E+04 -1.44172E+04  4.13294E+04  5.14194E+03  2.93745E+04  2.64440E+04  3.71355E+03  4.38489E+04
 -2.06644E+04  3.49892E+04 -3.16890E+04  1.29007E+04 -2.33652E+04 -1.04517E+04 -5.71974E+03 -1.22314E+04
  3.94820E+02 -1.57550E+03 -8.82270E+03  9.01978E+03 -2.16868E+04  5.02196E+03 -2.17537E+04 -1.22790E+04
 -1.29660E+04 -2.58598E+04  7.49055E+03 -2.97932E+04  2.02679E+04 -2.16717E+04  2.44145E+04 -1.23467E+03
  1.57177E+04  1.79594E+04 -1.46959E+03  2.51525E+04 -1.83109E+04  1.41177E+04 -2.48446E+04 -6.06244E+03
 -1.85843E+04 -2.21182E+04 -2.19427E+03 -3.02825E+04  1.39995E+04 -2.52416E+04  2.41060E+04 -1.35897E+04
  2.41757E+04 -8.44901E+02  1.72219E+04  5.85267E+03  9.25595E+03  1.69736E+03  1.31621E+04 -2.18154E+03
  2.39416E+04  3.40733E+03  2.84810E+04  1.95352E+04  1.91543E+04  4.03034E+04 -3.30443E+03  4.87107E+04
 -2.79523E+04  4.10731E+04 -4.60657E+04  2.21127E+04 -5.00026E+04 -3.54796E+03 -3.91050E+04 -2.85194E+04
 -1.57181E+04 -4.15030E+04  1.42806E+04 -3.55838E+04  3.11430E+04 -1.67948E+04  2.63335E+04  8.54081E+03
  8.94400E+03  2.05646E+04 -1.24738E+04  1.74092E+04 -2.22091E+04  1.75482E+03 -1.52245E+04 -1.41118E+04
  1.42318E+02 -2.13022E+04  1.17615E+04 -1.53964E+04  1.48014E+04 -1.17918E+03  4.06545E+03  9.98674E+03
 -1.00819E+04  4.43221E+03 -1.04670E+04 -7.62189E+03 -1.58311E+03 -2.04803E+04  1.28966E+04 -2.19123E+04
  2.62434E+04 -1.30933E+04  2.95136E+04  3.77832E+03  2.56175E+04  2.05996E+04  1.24896E+04  3.30572E+04
 -5.82393E+03  3.42812E+04 -2.35938E+04  2.10240E+04 -2.42389E+04  3.80436E+03 -1.75463E+04 -7.31843E+03
 -6.65821E+03 -8.59064E+03 -8.96557E+02 -2.25740E+02 -3.99248E+03  2.94504E+03 -8.28385E+03  5.65853E+03
 -1.54489E+04 -1.33205E+03 -1.67083E+04 -1.24945E+04 -6.90053E+03 -2.12792E+04  6.37079E+03 -1.78762E+04
  1.47202E+04 -7.79844E+03  1.02473E+04  4.35488E+03 -9.10415E+02  7.44628E+03 -9.66411E+03 -2.91282E+02
 -8.07845E+03 -1.05051E+04 -7.40590E+02 -1.77864E+04  9.92031E+03 -1.86872E+04  2.33766E+04 -9.95776E+03
  2.74730E+04  3.46240E+03  1.90854E+04  1.68070E+04  2.65271E+03  2.17871E+04 -1.04325E+04  1.76279E+04
 -1.44662E+04  5.47455E+03 -7.19509E+03 -4.12571E+03  3.31681E+03 -4.65221E+03  9.28231E+03 -9.04242E+02
  8.49273E+03  7.48285E+03  1.39808E+03  1.51678E+04 -9.86889E+03  1.37673E+04 -1.73017E+04  3.77517E+03
 -1.19485E+04 -9.69295E+03  1.85362E+02 -1.50067E+04  9.67314E+03 -7.45919E+03  1.12984E+04  4.17254E+03
  2.54556E+03  1.26261E+04 -9.70296E+03  1.43962E+04 -1.56588E+04  5.29634E+03 -1.62956E+04 -6.14627E+03
 -9.70381E+03 -1.91135E+04  4.71839E+03 -2.18071E+04  1.81774E+04 -1.23789E+04  2.03103E+04  3.02524E+03
  1.17743E+04  1.53767E+04 -2.81389E+03  1.77845E+04 -1.34000E+04  1.04662E+04 -1.45172E+04 -2.32535E+03
 -1.18230E+04 -1.14520E+04 -2.40800E+03 -1.29876E+04  7.87059E+03 -1.05068E+04  8.71666E+03 -4.39971E+03
  6.04760E+03  2.28317E+03 -9.64421E+02  2.44983E+03 -1.57695E+03 -4.18874E+03  3.25429E+03 -8.99913E+03
  1.38801E+04 -5.46373E+03  1.95214E+04  3.01615E+03  1.84282E+04  1.21597E+04  1.19774E+04  2.45655E+04
 -5.76128E+03  2.79667E+04 -2.34929E+04  2.05234E+04 -2.97986E+04  3.52026E+03 -2.40225E+04 -1.14035E+04
 -1.11678E+04 -2.01340E+04 -1.27870E+03 -1.75349E+04  5.65937E+03 -1.02474E+04  5.77596E+03 -6.20162E+03
  4.14240E+03 -3.32134E+03  3.99987E+03 -4.12981E+03  6.07706E+03 -4.43286E+03  9.52617E+03 -2.33489E+03
  1.18682E+04  2.93765E+03  6.75528E+03  1.15079E+04 -2.27029E+03  1.23658E+04 -1.27280E+04  9.86684E+03
 -1.76958E+04 -2.35221E+03 -1.19043E+04 -1.23517E+04 -1.69481E+03 -1.90567E+04  1.08938E+04 -1.92464E+04
  1.97416E+04 -1.05977E+04  2.40076E+04  3.87662E+03  1.49807E+04  1.76026E+04  2.36071E+03  2.12211E+04
 -9.67820E+03  1.71492E+04 -1.25778E+04  6.95649E+03 -8.83935E+03 -1.27930E+03 -3.59369E+03 -2.59949E+03
 -1.74041E+03 -9.16348E+01 -2.29046E+03  3.82094E+03 -7.58887E+03  3.38925E+03 -1.24285E+04 -1.98402E+03
 -9.02850E+03 -1.14860E+04 -6.01657E+01 -1.76031E+04  1.08940E+04 -1.53996E+04  1.75227E+04 -4.69341E+03
  1.75771E+04  8.84372E+03  8.90131E+03  1.63864E+04 -3.34636E+03  1.74937E+04 -1.34036E+04  1.05488E+04
 -1.75113E+04  3.19625E+02 -1.34996E+04 -1.03990E+04 -2.40683E+03 -1.54110E+04  8.15743E+03 -1.05882E+04
  1.18645E+04 -4.01354E+03  7.79781E+03  2.96349E+03  2.48141E+03  4.94547E+03  2.62503E+03  2.36127E+03
  2.46677E+03  1.23424E+03  4.75103E+03  2.49318E+03  5.74638E+03  6.12754E+03  4.71766E+03  9.59600E+03
 -3.09325E+03  1.49705E+04 -1.37529E+04  1.40803E+04 -2.03370E+04  3.26511E+03 -1.94776E+04 -8.62810E+03
 -8.47745E+03 -1.84121E+04  3.13635E+03 -2.01071E+04  1.07974E+04 -1.23103E+04  1.56015E+04 -2.58422E+03
  1.08656E+04  6.84563E+03  2.34101E+03  1.08106E+04 -5.27188E+03  6.78949E+03 -8.21002E+03 -1.87482E+03
 -4.01972E+03 -8.20117E+03  3.92192E+03 -8.40143E+03  8.10659E+03 -4.05383E+03  6.80026E+03  1.50570E+03
  4.95592E+03  4.22254E+03  1.86939E+03  3.36275E+03 -1.87225E+03  3.13870E+03  1.93302E+03 -1.73259E+02
  3.39761E+03 -6.85025E+02  6.90937E+03  2.30888E+03  4.03318E+03  1.06566E+04 -2.43887E+03  1.36950E+04
 -8.23672E+03  8.96126E+03 -1.32047E+04  2.34530E+03 -1.08377E+04 -4.59234E+03 -4.26731E+03 -6.77308E+03
  1.14512E+03 -7.30537E+03  5.22727E+03 -4.83844E+03  4.58829E+03  3.85154E+03 -1.49563E+03  6.30615E+03
 -7.90158E+03  4.25303E+03 -9.54502E+03 -3.32282E+03 -4.74237E+03 -1.03658E+04  1.43095E+03 -1.05950E+04
  6.55646E+03 -6.53996E+03  7.51294E+03 -1.33814E+03  6.54865E+03  2.47112E+03  5.96515E+02  5.23620E+03
 -3.80870E+03  1.86928E+03 -4.84808E+03 -3.08367E+03  1.25399E+03 -8.49780E+03  9.92997E+03 -6.76225E+03
  1.29335E+04  8.74377E+02  1.20101E+04  8.73643E+03  3.73396E+03  1.31097E+04 -4.96078E+03  1.20232E+04
 -1.07663E+04  4.77052E+03 -1.10901E+04 -1.83769E+03 -5.00549E+03 -8.41547E+03  2.13435E+03 -7.72226E+03
  7.82665E+03 -3.64404E+03  6.13209E+03  3.66809E+03  2.27105E+03  6.80491E+03 -1.21559E+03  6.87938E+03
 -1.91687E+03  3.42373E+03 -2.60391E+03  5.83913E+02 -1.61451E+03  1.13084E+03 -1.82423E+03  3.61237E+03
 -3.67206E+03  5.80409E+03 -8.37489E+03  5.64508E+03 -1.23592E+04  4.78333E+02 -1.43931E+04 -8.53083E+03
 -7.10052E+03 -1.76544E+04  2.54768E+03 -1.96647E+04  1.20859E+04 -1.44056E+04  1.83519E+04 -6.09636E+03
  1.77488E+04  4.12975E+03  1.03138E+04  1.25404E+04  2.39016E+03  1.32451E+04 -6.03391E+03  9.68720E+03
 -6.75857E+03  3.20580E+03 -4.39922E+03 -1.25807E+03 -1.36889E+03 -9.33372E+02 -2.12116E+02  3.98479E+02
 -1.99623E+03  5.01080E+02 -2.51471E+03 -1.00404E+03 -6.63569E+02 -3.12077E+03  1.48486E+01 -4.77645E+03
  6.13503E+03 -5.53748E+03  8.31260E+03  5.74217E+02  9.95272E+03  7.38031E+03  2.31262E+03  1.34216E+04
 -7.23567E+03  1.46823E+04 -1.45861E+04  8.56894E+03 -1.73742E+04 -1.44306E+03 -1.25931E+04 -1.06111E+04
 -4.81120E+03 -1.37735E+04  2.98073E+03 -1.21546E+04  9.31144E+03 -7.62388E+03  9.45538E+03  1.44603E+02
  5.20664E+03  4.35231E+03  2.17317E+02  3.79753E+03 -2.90390E+03 -2.27883E+02  2.31968E+02 -3.35296E+03
  3.80582E+03 -2.44499E+03  5.47864E+03  2.06371E+03  4.65746E+03  5.70440E+03  1.56408E+00  7.56461E+03
 -6.35572E+03  6.85122E+03 -9.58502E+03  1.75610E+03 -8.41931E+03 -6.95588E+03 -1.11859E+03 -1.15710E+04
  6.33433E+03 -9.76258E+03  1.15854E+04 -3.70525E+03  1.03191E+04  3.22102E+03  6.47641E+03  8.50729E+03
  1.43553E+03  8.64799E+03 -3.34791E+03  8.40726E+03 -5.32374E+03  3.05038E+03 -4.86921E+03 -4.73800E+02
 -2.52190E+03  1.73143E+02 -2.44568E+03  1.08240E+03 -4.83985E+03  1.82943E+03 -6.77562E+03 -1.30014E+03
 -6.50242E+03 -4.91204E+03 -2.21660E+03 -9.08426E+03  3.80230E+03 -9.74940E+03  7.67545E+03 -5.12431E+03
  9.54053E+03  1.57617E+03  5.48156E+03  6.55333E+03 -7.01248E+02  8.84560E+03 -7.14692E+03  6.13597E+03
