 $NMID ID='MM_0lb_SNR400_11hz_g60_72.RAW', FMTDAT='(8E13.5)'
 TRAMP=1., VOLUME=1. $END
  3.09702E+05  7.50815E+02  3.38164E+05  2.50312E+05  8.43270E+04  3.38101E+05 -1.32350E+05  2.51986E+05
 -1.89674E+05  8.38200E+04 -1.12212E+05 -3.22762E+04  8.87260E+02 -5.10747E+04  5.43771E+04 -4.70345E+02
  3.57514E+04  5.32990E+04 -1.66903E+04  7.51302E+04 -6.19886E+04  6.41448E+04 -8.47444E+04  3.26597E+04
 -8.26338E+04 -1.19738E+04 -5.78379E+04 -5.16872E+04 -1.49236E+04 -7.16433E+04  2.82266E+04 -4.69052E+04
  4.02028E+04  3.74890E+03  1.65964E+04  4.86531E+04 -3.45146E+04  4.85994E+04 -6.79202E+04 -6.18250E+01
 -5.48588E+04 -5.82109E+04 -6.85030E+03 -7.87738E+04  3.39848E+04 -5.72129E+04  4.95653E+04 -1.73832E+04
  4.51285E+04  1.11043E+04  3.23476E+04  2.57696E+04  1.59823E+04  3.01491E+04 -5.91363E+03  2.72471E+04
 -2.19503E+04  1.20813E+04 -1.85622E+04 -5.19789E+03  6.44542E+03 -7.76665E+03  2.37615E+04  1.27654E+04
  6.86937E+03  3.65085E+04 -3.31803E+04  3.70718E+04 -6.54574E+04  1.66358E+03 -5.87978E+04 -4.44955E+04
 -1.29414E+04 -6.55929E+04  4.18347E+04 -4.77541E+04  6.08728E+04 -2.94186E+03  3.58932E+04  3.40496E+04
 -5.12165E+03  3.96762E+04 -3.22689E+04  1.83215E+04 -3.28599E+04 -3.99295E+03 -1.82819E+04 -1.20503E+04
 -9.23309E+03 -1.49193E+04 -3.29426E+02 -1.97517E+04  8.48113E+03 -2.31043E+04  1.63550E+04 -1.23436E+04
  1.06677E+04  6.14925E+03 -1.01092E+04  1.28026E+04 -2.25656E+04 -6.26074E+03 -8.40110E+03 -3.70647E+04
  2.49095E+04 -4.61864E+04  5.08960E+04 -1.99814E+04  4.81320E+04  2.03210E+04  1.66590E+04  4.74999E+04
 -1.64647E+04  3.55385E+04 -2.73458E+04  3.61009E+03 -1.12707E+04 -2.96641E+04  2.17847E+04 -3.73838E+04
  4.38579E+04 -1.04117E+04  3.98258E+04  2.41562E+04  2.04268E+04  5.11196E+04 -8.45082E+03  5.46102E+04
 -3.44274E+04  3.75866E+04 -4.68212E+04  1.15857E+04 -4.75546E+04 -1.77983E+04 -2.59050E+04 -4.11708E+04
  7.40598E+03 -4.20541E+04  3.34354E+04 -1.71552E+04  3.20125E+04  1.12887E+04  5.37630E+03  1.98885E+04
 -1.37235E+04  9.16031E+03 -1.09945E+04 -7.76098E+03  5.87509E+03 -1.12259E+04  1.93543E+04  5.27269E+03
  1.40632E+04  2.27113E+04 -4.70150E+03  2.68464E+04 -2.25407E+04  1.40252E+04 -3.12390E+04 -3.06801E+03
 -2.47854E+04 -1.84626E+04 -1.15435E+04 -2.45792E+04  4.73361E+03 -2.48113E+04  1.98680E+04 -2.21615E+04
  3.10729E+04 -1.34635E+04  3.84341E+04  4.98342E+03  2.64518E+04  2.35727E+04  4.31893E+03  4.01547E+04
 -1.95995E+04  3.37981E+04 -2.92525E+04  1.20254E+04 -2.20285E+04 -1.01570E+04 -4.10493E+03 -1.28656E+04
  1.06303E+03 -1.60368E+03 -6.26910E+03  7.94731E+03 -1.94966E+04  5.44539E+03 -1.94686E+04 -9.24233E+03
 -1.18747E+04 -2.28613E+04  5.35347E+03 -2.66987E+04  1.74902E+04 -1.91519E+04  2.24224E+04 -2.05534E+03
  1.33407E+04  1.58356E+04 -1.13935E+03  2.24340E+04 -1.58182E+04  1.26175E+04 -2.33770E+04 -3.88204E+03
 -1.62135E+04 -2.01033E+04 -2.25726E+03 -2.71369E+04  1.23298E+04 -2.29619E+04  2.22343E+04 -1.18741E+04
  2.08490E+04  7.04776E+01  1.53322E+04  5.53749E+03  8.97187E+03  1.32929E+03  1.16301E+04 -1.28538E+03
  2.13869E+04  3.19067E+03  2.48950E+04  1.71736E+04  1.61880E+04  3.69259E+04 -2.08652E+03  4.27383E+04
 -2.39531E+04  3.52001E+04 -4.10520E+04  1.81062E+04 -4.22562E+04 -3.22167E+03 -3.41739E+04 -2.50315E+04
 -1.36940E+04 -3.50914E+04  1.27543E+04 -3.12012E+04  2.63214E+04 -1.55253E+04  2.31620E+04  7.52874E+03
  7.79335E+03  1.76103E+04 -1.11963E+04  1.48717E+04 -1.90744E+04  3.12233E+03 -1.49147E+04 -1.25614E+04
  5.41670E+01 -1.79844E+04  9.99958E+03 -1.44353E+04  1.36538E+04 -1.75306E+03  4.26660E+03  8.85414E+03
 -8.33810E+03  4.44630E+03 -8.59401E+03 -6.31446E+03 -1.70752E+03 -1.71235E+04  1.12675E+04 -1.79779E+04
  2.17550E+04 -9.77071E+03  2.44596E+04  3.60698E+03  2.20052E+04  1.81071E+04  1.04062E+04  2.73195E+04
 -5.18146E+03  2.89295E+04 -1.89264E+04  1.82809E+04 -2.11124E+04  3.75685E+03 -1.47605E+04 -4.22824E+03
 -6.54419E+03 -6.53902E+03 -7.42666E+02  5.41095E+02 -2.60182E+03  2.63635E+03 -6.17870E+03  5.26947E+03
 -1.24817E+04  1.98568E+02 -1.38379E+04 -1.14546E+04 -5.57433E+03 -1.87048E+04  6.47379E+03 -1.51133E+04
  1.20097E+04 -6.34507E+03  9.35478E+03  4.14548E+03 -4.18729E+02  6.24550E+03 -6.85636E+03  1.89896E+02
 -7.54910E+03 -9.17812E+03 -9.29775E+02 -1.46832E+04  7.68469E+03 -1.54435E+04  1.82153E+04 -8.87666E+03
  2.15476E+04  1.18232E+03  1.61736E+04  1.31610E+04  2.86609E+03  1.72996E+04 -8.93390E+03  1.36185E+04
 -1.24563E+04  4.53815E+03 -6.49538E+03 -3.95101E+03  2.63348E+03 -3.91337E+03  7.46492E+03 -1.27576E+03
  7.15122E+03  6.13209E+03  1.76770E+03  1.19827E+04 -8.16589E+03  1.18816E+04 -1.48097E+04  2.99440E+03
 -9.69390E+03 -6.75710E+03  8.42983E+02 -1.23267E+04  8.25598E+03 -6.12406E+03  8.68001E+03  2.39670E+03
  1.96870E+03  8.83538E+03 -7.71138E+03  1.05550E+04 -1.25042E+04  5.25573E+03 -1.25263E+04 -4.03037E+03
 -8.22186E+03 -1.39073E+04  3.69008E+03 -1.61864E+04  1.41577E+04 -9.58767E+03  1.55380E+04  3.25269E+03
  8.97979E+03  1.19880E+04 -9.93025E+02  1.40230E+04 -1.04552E+04  8.40071E+03 -1.10555E+04 -1.00328E+03
 -9.84294E+03 -9.86273E+03 -1.76901E+03 -1.07046E+04  5.78836E+03 -9.43922E+03  6.78684E+03 -4.13106E+03
  3.33102E+03  2.19549E+03 -7.04786E+02  1.96023E+03 -9.71098E+02 -2.81677E+03  1.92964E+03 -6.53618E+03
  1.05914E+04 -4.20360E+03  1.42093E+04  1.53867E+03  1.40195E+04  1.00667E+04  9.17482E+03  1.91852E+04
 -4.14353E+03  2.18341E+04 -1.73607E+04  1.60955E+04 -2.25154E+04  3.36196E+03 -1.91723E+04 -8.41453E+03
 -8.81633E+03 -1.49937E+04 -3.13516E+02 -1.25562E+04  4.87522E+03 -7.71772E+03  4.33975E+03 -4.77504E+03
  3.35254E+03 -2.94950E+03  3.68764E+03 -3.00030E+03  5.69135E+03 -3.50383E+03  6.92400E+03 -3.92899E+02
  1.00573E+04  2.07393E+03  4.61020E+03  8.35545E+03 -1.96960E+03  9.81415E+03 -1.06481E+04  6.99119E+03
 -1.26575E+04 -1.45573E+03 -8.34653E+03 -9.19111E+03  2.40923E+02 -1.38070E+04  7.79962E+03 -1.36926E+04
  1.43886E+04 -8.01275E+03  1.68318E+04  2.36737E+03  1.23212E+04  1.19323E+04  1.97111E+03  1.58078E+04
 -6.42473E+03  1.21533E+04 -9.53345E+03  3.48347E+03 -5.85866E+03 -1.43138E+03 -2.73709E+03 -1.83171E+03
 -1.63762E+03  5.70873E+02 -1.71696E+03  2.81179E+03 -5.36663E+03  2.37343E+03 -9.04071E+03 -1.25020E+03
 -6.51140E+03 -9.04093E+03  3.48873E+02 -1.31129E+04  8.59039E+03 -1.17600E+04  1.26322E+04 -3.88088E+03
  1.25980E+04  5.50035E+03  5.96980E+03  1.10344E+04 -1.86905E+03  1.30291E+04 -7.71836E+03  7.86903E+03
 -1.18154E+04  8.02053E+02 -9.47646E+03 -7.84804E+03 -9.63670E+02 -1.04992E+04  5.14601E+03 -7.76737E+03
  8.41651E+03 -2.44981E+03  5.24073E+03  2.45643E+03  1.71809E+03  3.35968E+03  1.87350E+03  9.69307E+02
  3.08718E+03  1.65233E+03  3.19051E+03  1.69310E+03  4.79314E+03  4.20166E+03  3.14411E+03  6.20896E+03
 -3.55748E+03  1.00653E+04 -9.17999E+03  1.03181E+04 -1.27966E+04  2.22349E+03 -1.33142E+04 -5.16035E+03
 -6.81812E+03 -1.24796E+04  1.92251E+03 -1.49957E+04  7.34969E+03 -8.82972E+03  1.02129E+04 -2.61712E+03
  8.43497E+03  4.71132E+03  1.30370E+03  7.14404E+03 -2.98923E+03  5.00208E+03 -5.05936E+03 -5.42576E+02
 -2.62528E+03 -5.98208E+03  3.00850E+03 -6.57694E+03  4.91859E+03 -2.48665E+03  4.90245E+03  8.62159E+02
  2.92721E+03  2.14588E+03  1.49074E+03  2.25257E+03 -4.73063E+02  1.59012E+03  1.63820E+03 -5.17358E+02
  1.83745E+03 -3.46839E+02  5.43786E+03  2.07312E+03  2.68827E+03  6.58305E+03 -1.02056E+03  9.37003E+03
 -5.91166E+03  5.43822E+03 -8.08524E+03  2.67709E+03 -6.67905E+03 -2.63871E+03 -2.14247E+03 -4.50378E+03
  4.68803E+02 -4.41090E+03  3.33233E+03 -1.96104E+03  3.04534E+03  3.23611E+03 -1.42248E+03  3.31247E+03
 -4.79796E+03  1.72960E+03 -5.39714E+03 -2.28271E+03 -3.02256E+03 -6.80078E+03  6.41759E+02 -6.63169E+03
  4.27811E+03 -4.81070E+03  4.82643E+03 -8.61391E+02  3.76639E+03  1.82845E+03  9.27228E+02  2.77024E+03
 -2.32492E+03  8.08824E+02 -2.58158E+03 -2.31140E+03  1.34408E+03 -5.75094E+03  5.85569E+03 -3.98048E+03
  7.79288E+03 -2.20587E+02  7.58235E+03  5.26988E+03  2.75444E+03  9.03120E+03 -2.33273E+03  8.03754E+03
 -6.66041E+03  3.03182E+03 -7.01024E+03 -1.26710E+03 -3.10860E+03 -4.99570E+03  1.35648E+03 -4.82448E+03
  4.11002E+03 -2.00886E+03  4.55868E+03  2.02643E+03  1.11994E+03  4.11228E+03 -2.45028E+02  3.79566E+03
 -2.49600E+03  2.09202E+03 -2.04956E+03  4.38271E+02 -1.36030E+03  7.69288E+02 -1.56407E+03  2.10749E+03
 -1.81317E+03  2.38731E+03 -5.19466E+03  3.23974E+03 -8.19328E+03  2.48175E+02 -8.70332E+03 -4.86837E+03
 -4.37641E+03 -1.04714E+04  2.00464E+03 -1.23367E+04  7.33804E+03 -8.81860E+03  1.07902E+04 -3.89830E+03
  1.07725E+04  1.36967E+03  6.53751E+03  7.04694E+03  2.89561E+02  7.79800E+03 -3.33214E+03  6.17099E+03
 -4.35879E+03  1.68766E+03 -2.25725E+03 -5.27621E+02 -8.07370E+02 -9.85573E+02 -1.04381E+03 -2.18889E+02
 -1.96032E+03  2.90187E+01 -2.04822E+03 -4.31438E+02 -2.61720E+01 -2.02429E+03  6.23774E+02 -2.92579E+03
  3.57864E+03 -2.07116E+03  4.58474E+03 -2.71264E+02  5.40908E+03  3.84734E+03  8.16120E+02  7.77585E+03
 -3.83168E+03  8.83415E+03 -8.16600E+03  6.15480E+03 -9.87536E+03 -8.25819E+02 -7.09848E+03 -6.13308E+03
 -2.40981E+03 -7.87332E+03  1.89279E+03 -7.60001E+03  5.20812E+03 -3.64067E+03  4.82086E+03 -1.20488E+02
  2.95399E+03  2.42742E+03 -6.57874E+02  1.88603E+03 -1.42274E+03 -8.36472E+01 -8.36688E+02 -2.11806E+03
  2.43027E+03 -1.06139E+03  3.43193E+03  1.39641E+03  2.35606E+03  2.80536E+03  3.36528E+02  3.60966E+03
 -2.93290E+03  4.12382E+03 -4.91923E+03  5.50181E+02 -4.31879E+03 -3.10184E+03  3.45403E+01 -7.15105E+03
  3.22582E+03 -5.36455E+03  5.35971E+03 -5.12679E+02  5.81768E+03  7.57500E+02  2.92034E+03  4.97019E+03
  6.31940E+02  5.08021E+03 -1.72518E+03  4.66064E+03 -3.53726E+03  1.79249E+03 -2.49183E+03  6.67248E+02
 -1.52966E+03  3.28280E+02 -1.13201E+03  1.61569E+02 -2.31475E+03  8.75933E+02 -3.93130E+03 -5.65289E+02
 -4.49453E+03 -2.08699E+03 -9.61843E+02 -4.44797E+03  1.75196E+03 -5.42806E+03  5.22593E+03 -2.59588E+03
  5.11918E+03  9.19051E+02  2.04504E+03  3.74022E+03 -2.74531E+02  4.30010E+03 -3.88328E+03  3.51475E+03
