 $NMID ID='MM_0lb_SNR400_17hz_g55_85.RAW', FMTDAT='(8E13.5)'
 TRAMP=1., VOLUME=1. $END
  3.09776E+05  3.91547E+02  3.37170E+05  2.49913E+05  8.49829E+04  3.38175E+05 -1.32494E+05  2.50889E+05
 -1.89276E+05  8.31195E+04 -1.11290E+05 -3.25149E+04  1.47212E+03 -5.04038E+04  5.45019E+04 -3.32205E+01
  3.50381E+04  5.31964E+04 -1.67104E+04  7.57997E+04 -6.09439E+04  6.32403E+04 -8.33364E+04  3.13683E+04
 -8.06817E+04 -1.11865E+04 -5.68106E+04 -5.10122E+04 -1.52823E+04 -6.88632E+04  2.76401E+04 -4.49393E+04
  3.95478E+04  4.10179E+03  1.57777E+04  4.77601E+04 -3.46562E+04  4.61814E+04 -6.68367E+04  1.02739E+01
 -5.27190E+04 -5.69118E+04 -6.92800E+03 -7.66743E+04  3.35633E+04 -5.46283E+04  4.78148E+04 -1.76036E+04
  4.27799E+04  1.12272E+04  3.18234E+04  2.51515E+04  1.57212E+04  2.94673E+04 -5.03504E+03  2.72055E+04
 -2.17734E+04  1.31624E+04 -1.87599E+04 -4.96322E+03  5.42297E+03 -7.81608E+03  2.24471E+04  1.13494E+04
  7.34088E+03  3.45850E+04 -3.13723E+04  3.49893E+04 -6.27939E+04  1.97725E+03 -5.65786E+04 -4.27320E+04
 -1.27388E+04 -6.24263E+04  3.85729E+04 -4.42107E+04  5.70107E+04 -2.24668E+03  3.35782E+04  3.16592E+04
 -5.93755E+03  3.44412E+04 -2.94570E+04  1.47902E+04 -2.91951E+04 -4.83536E+03 -1.58251E+04 -1.05748E+04
 -7.74505E+03 -1.24205E+04 -8.86944E+02 -1.72867E+04  6.77555E+03 -2.26381E+04  1.52773E+04 -1.40810E+04
  1.18745E+04  5.10578E+03 -7.45931E+03  1.27757E+04 -2.05193E+04 -3.50233E+03 -8.27569E+03 -3.22758E+04
  2.17628E+04 -4.25398E+04  4.72005E+04 -1.92447E+04  4.37642E+04  1.91072E+04  1.47998E+04  4.33060E+04
 -1.59993E+04  3.22113E+04 -2.47978E+04  1.45238E+03 -9.37608E+03 -2.74934E+04  2.09488E+04 -3.32743E+04
  3.97784E+04 -8.73346E+03  3.38273E+04  2.35087E+04  1.72233E+04  4.52790E+04 -7.61745E+03  4.81756E+04
 -3.01546E+04  3.22586E+04 -3.99503E+04  9.59354E+03 -4.11716E+04 -1.56713E+04 -2.26057E+04 -3.58722E+04
  7.40823E+03 -3.62148E+04  3.02424E+04 -1.41764E+04  2.79834E+04  1.08928E+04  3.33090E+03  1.86240E+04
 -1.31179E+04  7.29658E+03 -9.33024E+03 -7.37142E+03  5.72872E+03 -1.00677E+04  1.71112E+04  6.93038E+03
  1.28920E+04  2.19611E+04 -6.00361E+03  2.47294E+04 -2.17670E+04  1.08738E+04 -2.68811E+04 -4.90260E+03
 -1.93620E+04 -1.68868E+04 -7.30175E+03 -1.93800E+04  4.38241E+03 -1.72172E+04  1.39700E+04 -1.67048E+04
  2.40615E+04 -1.21265E+04  3.07317E+04  2.57535E+03  2.26085E+04  1.83990E+04  4.69458E+03  3.52964E+04
 -1.74665E+04  2.91411E+04 -2.65676E+04  1.01059E+04 -1.99136E+04 -1.01550E+04 -4.67254E+03 -1.36307E+04
  2.03147E+03 -3.67463E+03 -3.66969E+03  5.90341E+03 -1.48199E+04  4.99203E+03 -1.51024E+04 -6.04490E+03
 -9.21345E+03 -1.75244E+04  4.92271E+03 -2.12652E+04  1.42142E+04 -1.53282E+04  1.62899E+04 -1.27057E+03
  9.84912E+03  1.18915E+04 -1.40104E+03  1.79389E+04 -1.17355E+04  9.49220E+03 -1.71194E+04 -4.13911E+03
 -1.29338E+04 -1.58341E+04 -1.89799E+03 -2.15518E+04  9.13036E+03 -1.74180E+04  1.81746E+04 -8.54906E+03
  1.63846E+04  7.31463E+02  1.16302E+04  4.30862E+03  5.55806E+03  2.46734E+02  8.33298E+03 -1.76221E+03
  1.63486E+04  2.50363E+03  1.71427E+04  1.38029E+04  1.08279E+04  2.76415E+04 -2.93123E+03  3.02175E+04
 -1.83644E+04  2.36572E+04 -2.81346E+04  1.15962E+04 -2.87135E+04 -1.71378E+03 -2.48111E+04 -1.68563E+04
 -1.01947E+04 -2.43101E+04  7.93833E+03 -2.17649E+04  1.82384E+04 -1.21258E+04  1.71334E+04  4.99081E+03
  7.36571E+03  1.25268E+04 -8.08533E+03  1.10694E+04 -1.49350E+04  2.87710E+03 -1.16506E+04 -8.87526E+03
 -5.98357E+02 -1.38060E+04  7.47932E+03 -1.04521E+04  8.71835E+03 -1.28552E+03  1.57509E+03  5.94417E+03
 -6.22841E+03  2.33446E+03 -4.88201E+03 -5.17333E+03  2.91896E+01 -1.23853E+04  8.58997E+03 -1.17118E+04
  1.46936E+04 -5.88607E+03  1.48687E+04  3.13055E+03  1.32394E+04  1.15370E+04  5.99657E+03  1.71036E+04
 -2.43876E+03  1.88964E+04 -1.18521E+04  1.10221E+04 -1.30693E+04  2.94591E+03 -9.98210E+03 -2.77534E+03
 -4.36784E+03 -4.03814E+03 -5.53619E+01  1.58219E+03 -2.03038E+03  1.75615E+03 -4.76703E+03  3.82813E+03
 -9.41158E+03 -7.87557E+02 -9.95960E+03 -7.56749E+03 -4.26554E+03 -1.30187E+04  4.03262E+03 -9.83002E+03
  7.87382E+03 -4.19468E+03  6.16757E+03  2.72030E+03  2.82726E+02  3.45176E+03 -3.72314E+03  3.31242E+02
 -4.04920E+03 -6.12977E+03 -5.12741E+02 -8.46069E+03  4.46116E+03 -8.97862E+03  1.16482E+04 -4.43477E+03
  1.37559E+04  1.16770E+03  9.82444E+03  7.69147E+03  2.39554E+03  1.02155E+04 -6.04458E+03  8.97373E+03
 -8.07503E+03  3.44904E+03 -3.97378E+03 -1.48837E+03  1.61099E+03 -2.29116E+03  5.46552E+03 -8.80628E+02
  4.60448E+03  3.95862E+03  1.23838E+03  7.52973E+03 -4.93156E+03  6.55468E+03 -8.95394E+03  2.32957E+03
 -6.07501E+03 -4.58812E+03 -1.52412E+02 -8.25889E+03  4.57599E+03 -4.05901E+03  3.83640E+03  1.22968E+03
  3.74229E+02  4.59291E+03 -4.53683E+03  5.90942E+03 -5.77541E+03  3.71001E+03 -6.02805E+03 -1.64967E+03
 -4.15570E+03 -7.35303E+03  1.75008E+03 -8.77479E+03  7.16382E+03 -5.55588E+03  7.54342E+03  1.13296E+03
  5.31847E+03  6.69397E+03  3.21115E+01  9.13631E+03 -5.79265E+03  4.93654E+03 -6.52754E+03 -7.21822E+02
 -6.55683E+03 -5.89430E+03 -1.53922E+03 -5.49650E+03  2.79801E+03 -5.54286E+03  3.16439E+03 -3.25682E+03
  3.13719E+03  4.28854E+02 -2.31947E+02  9.93871E+02  6.13675E+02 -5.74152E+02  4.47706E+02 -2.35372E+03
  4.86813E+03 -1.20056E+03  6.85289E+03  1.13088E+03  6.73468E+03  3.92331E+03  6.04571E+03  9.15952E+03
 -1.93385E+03  1.04411E+04 -9.60427E+03  7.82545E+03 -1.19523E+04  2.01803E+03 -9.81552E+03 -3.20096E+03
 -5.00101E+03 -7.54058E+03  2.46671E+01 -6.48290E+03  2.13967E+03 -3.17903E+03  1.91406E+03 -2.75704E+03
  1.55172E+03 -1.37131E+03  2.52391E+03 -2.51627E+03  3.82002E+03 -1.35379E+03  4.05047E+03  8.17826E+02
  5.55355E+03  1.24155E+03  2.26426E+03  4.20800E+03 -1.96826E+03  3.86828E+03 -4.75747E+03  3.37418E+03
 -6.50753E+03 -1.11492E+03 -2.25108E+03 -5.07278E+03  3.40461E+02 -5.82807E+03  4.25558E+03 -6.90416E+03
  7.10210E+03 -3.94971E+03  8.39000E+03  8.26388E+02  6.36932E+03  5.72036E+03  1.41477E+03  7.05704E+03
 -2.29815E+03  7.10611E+03 -4.24339E+03  2.30312E+03 -2.40460E+03 -1.33537E+03 -6.39803E+02 -7.69487E+02
 -2.95209E+02  8.41422E+01 -9.36282E+02  1.74351E+03 -3.65011E+03  1.20348E+03 -4.85297E+03 -2.10204E+01
 -2.78324E+03 -4.80193E+03  7.93247E+02 -5.20558E+03  4.02768E+03 -4.83054E+03  5.41349E+03 -1.78100E+03
  5.79675E+03  3.09587E+03  1.74881E+03  3.92298E+03 -1.10109E+03  5.53415E+03 -2.76613E+03  3.25128E+03
 -4.44725E+03  6.23262E+02 -4.25046E+03 -3.07823E+03 -6.12751E+02 -4.51405E+03  1.32942E+03 -3.11864E+03
  2.68907E+03 -8.00801E+02  2.24296E+03  7.06542E+02  7.08649E+02  1.99381E+03  1.04404E+03  6.02754E+02
  2.07824E+03  5.46588E+02  1.54096E+03  9.61057E+02  9.20368E+02  3.36287E+03  2.06773E+03  2.15800E+03
 -1.23944E+03  4.00246E+03 -4.02492E+03  5.00998E+03 -3.99273E+03  1.60114E+03 -5.42939E+03 -1.27178E+03
 -2.17674E+03 -4.85362E+03  7.77086E+02 -5.85200E+03  2.67905E+03 -3.57576E+03  4.58278E+03 -1.01526E+03
  3.23387E+03  1.73433E+03  2.89321E+01  2.88599E+03 -1.23290E+03  2.12879E+03 -9.50885E+02 -2.24972E+02
 -9.22336E+02 -1.69997E+03  1.46172E+03 -1.70996E+03  2.02322E+03 -2.10318E+03  1.14185E+03  4.07149E+02
  7.75344E+02  7.53574E+02  1.52638E+02 -5.09078E+02 -6.47131E+02  7.68129E+02  1.92790E+03  1.00350E+02
 -5.86275E+02 -5.48369E+02  2.35394E+03  7.58763E+02  1.86408E+02  3.06318E+03  1.40279E+02  3.68273E+03
 -1.69924E+03  1.65453E+03 -2.60810E+03  1.19359E+03 -1.84319E+03 -1.02139E+03 -4.56734E+02 -1.22916E+03
  9.14532E+02 -1.72097E+03  1.34661E+03 -1.31161E+03  8.84158E+02  1.75601E+03 -9.83306E+02  1.02847E+03
 -2.02517E+03  5.69820E+02 -1.48627E+03 -1.79439E+03 -1.32518E+03 -2.93333E+03  1.73515E+02 -1.69775E+03
  5.34620E+02 -1.10884E+03  1.39450E+03  6.29275E+02  1.48772E+03 -2.20805E+01  3.24900E+02  1.47812E+03
 -1.67175E+02  3.95296E+02 -1.18131E+03 -3.78054E+02  1.24382E+03 -1.40169E+03  2.42771E+03 -1.30727E+03
  1.86925E+03  4.33785E+02  3.29010E+03  1.41425E+03  1.34548E+03  1.51842E+03 -4.96570E+02  2.43280E+03
 -2.09664E+03  8.50065E+02 -2.54816E+03  1.36626E+02 -8.42076E+02 -2.00505E+03 -3.27517E+02 -1.18373E+03
  1.72076E+03 -7.08919E+02  1.38886E+03  9.39991E+02  9.65863E+02  1.39940E+03 -1.50220E+02  1.27247E+03
 -1.82572E+02  9.63450E+02 -8.39055E+02  1.26401E+02 -1.77970E+02  5.47199E+02 -3.27987E+02  8.83945E+02
 -5.49764E+02  1.12038E+03 -2.08258E+03  9.37969E+02 -2.62068E+03 -4.02466E+02 -3.13149E+03 -7.52463E+02
 -1.06792E+03 -3.47347E+03  4.55304E+02 -4.00947E+03  1.85126E+03 -2.86442E+03  2.82097E+03 -1.61998E+03
  3.45430E+03  6.94585E+01  1.53770E+03  2.15825E+03 -5.12623E+02  2.51162E+03 -1.29603E+03  1.88654E+03
 -1.09055E+03  1.01411E+03 -9.19678E+02 -1.69261E+01 -3.88357E+02  7.72292E+02 -4.59833E+02  8.77559E+02
 -1.09218E+03  2.09144E+02 -1.35868E+03  3.92957E+02  5.21168E+02 -7.71422E+02 -6.91887E+02 -9.07657E+02
  1.75116E+03 -1.03832E+03  6.73342E+02  4.97042E+01  1.50584E+03  1.01211E+03 -5.29698E+02  2.01577E+03
 -7.85890E+02  3.04374E+03 -2.12662E+03  1.39109E+03 -3.01176E+03 -7.03802E+02 -1.57543E+03 -1.59733E+03
 -1.20555E+03 -2.17349E+03 -1.61893E+01 -1.67925E+03  1.23544E+03 -7.14060E+02  9.38623E+02  7.71486E+02
  1.02324E+03  5.36381E+02  4.45558E+02  8.31570E+02 -1.23238E+03  1.94404E+02  3.27504E+01  6.43638E+01
  1.74771E+02  3.75590E+01  4.18722E+02  7.73219E+02  3.90551E+02  1.17945E+03  5.61231E+02  7.65003E+02
 -7.78254E+02  7.56271E+02 -6.67147E+02  4.82577E+02 -1.21950E+03 -2.87571E+02  3.02898E+02 -1.62073E+03
  5.86072E+02 -9.86511E+02  6.03905E+02  4.05173E+02  1.64160E+03 -1.00675E+03  6.90168E+02  1.13290E+03
  3.44304E+02  5.99853E+02 -1.17079E+02  5.25772E+02 -8.31062E+02  4.70759E+02 -6.84128E+02  3.47302E+02
 -2.43167E+02  1.52760E+02 -4.58053E+02 -4.08255E+02 -5.33261E+01  4.32818E+02 -1.06647E+03 -4.91082E+02
 -1.02429E+03 -3.09047E+02  1.60437E+02 -1.15383E+03  1.15790E+03 -2.38007E+03  9.23220E+02 -5.91624E+02
  1.28038E+03 -6.37129E+02 -1.93937E+02  6.64086E+02 -1.12367E+02  1.00727E+03 -4.83578E+02  5.69511E+02
