 $NMID ID='MM_0lb_SNR400_14hz_g60_74.RAW', FMTDAT='(8E13.5)'
 TRAMP=1., VOLUME=1. $END
  3.09894E+05  4.12217E+02  3.37708E+05  2.50924E+05  8.47057E+04  3.38248E+05 -1.33091E+05  2.51305E+05
 -1.90255E+05  8.38057E+04 -1.12194E+05 -3.28514E+04  6.11344E+02 -5.09456E+04  5.43127E+04 -3.36433E+02
  3.59238E+04  5.27645E+04 -1.73561E+04  7.56630E+04 -6.08448E+04  6.37920E+04 -8.41834E+04  3.24341E+04
 -8.24138E+04 -1.15371E+04 -5.76188E+04 -5.17152E+04 -1.51224E+04 -6.99598E+04  2.79871E+04 -4.57478E+04
  4.01988E+04  3.68179E+03  1.64457E+04  4.84667E+04 -3.41921E+04  4.74098E+04 -6.72921E+04 -3.16124E+02
 -5.44992E+04 -5.71150E+04 -7.25336E+03 -7.79095E+04  3.37871E+04 -5.62580E+04  4.87042E+04 -1.73311E+04
  4.41113E+04  1.09455E+04  3.26741E+04  2.58433E+04  1.55925E+04  2.94761E+04 -5.76979E+03  2.78971E+04
 -2.15548E+04  1.25840E+04 -1.84186E+04 -5.53529E+03  6.05203E+03 -7.32226E+03  2.35357E+04  1.31885E+04
  7.60268E+03  3.61257E+04 -3.33678E+04  3.58169E+04 -6.41377E+04  2.16087E+03 -5.72534E+04 -4.37604E+04
 -1.28744E+04 -6.45461E+04  4.04879E+04 -4.60783E+04  6.00361E+04 -2.30805E+03  3.50595E+04  3.38808E+04
 -5.81196E+03  3.73592E+04 -2.98852E+04  1.70648E+04 -3.16113E+04 -3.61860E+03 -1.76594E+04 -1.13557E+04
 -9.21840E+03 -1.42625E+04 -3.20697E+02 -1.89172E+04  7.29578E+03 -2.35432E+04  1.60247E+04 -1.29145E+04
  1.15383E+04  5.44996E+03 -9.32198E+03  1.29487E+04 -2.25322E+04 -5.56930E+03 -8.48783E+03 -3.49832E+04
  2.37454E+04 -4.50662E+04  4.97946E+04 -1.97206E+04  4.62021E+04  2.03979E+04  1.64487E+04  4.53825E+04
 -1.67835E+04  3.47433E+04 -2.60750E+04  1.99033E+03 -1.02768E+04 -2.84859E+04  2.08208E+04 -3.45356E+04
  4.20161E+04 -9.60958E+03  3.69636E+04  2.39411E+04  1.92078E+04  4.85017E+04 -8.25820E+03  5.19422E+04
 -3.26162E+04  3.53566E+04 -4.38221E+04  9.83809E+03 -4.43419E+04 -1.66200E+04 -2.43626E+04 -3.94440E+04
  7.63510E+03 -3.82416E+04  3.23778E+04 -1.55039E+04  3.03295E+04  1.12844E+04  4.86733E+03  1.92204E+04
 -1.40204E+04  8.47291E+03 -1.11949E+04 -7.36125E+03  5.52562E+03 -1.06246E+04  1.80335E+04  5.39360E+03
  1.40805E+04  2.17609E+04 -5.82303E+03  2.55273E+04 -2.31974E+04  1.24198E+04 -2.92012E+04 -4.47193E+03
 -2.21418E+04 -1.77059E+04 -9.64780E+03 -2.20751E+04  3.59572E+03 -2.13759E+04  1.74219E+04 -1.93753E+04
  2.79333E+04 -1.33922E+04  3.46876E+04  3.67712E+03  2.41997E+04  2.12984E+04  4.27170E+03  3.75148E+04
 -1.86654E+04  3.07742E+04 -2.88884E+04  1.06603E+04 -2.16178E+04 -1.03262E+04 -4.53494E+03 -1.36366E+04
  1.48672E+03 -2.04060E+03 -5.40756E+03  7.09072E+03 -1.78932E+04  5.30155E+03 -1.71433E+04 -7.68404E+03
 -1.05154E+04 -2.04434E+04  5.16367E+03 -2.43601E+04  1.61490E+04 -1.68454E+04  1.93838E+04 -1.71287E+03
  1.24790E+04  1.39532E+04 -1.69598E+03  2.00848E+04 -1.39997E+04  1.17751E+04 -2.03673E+04 -4.27960E+03
 -1.42097E+04 -1.78349E+04 -1.35340E+03 -2.36473E+04  1.06748E+04 -2.00128E+04  2.04781E+04 -1.05814E+04
  1.81807E+04  6.65396E+02  1.34570E+04  4.24878E+03  7.78390E+03  1.25712E+03  9.48538E+03 -1.97301E+03
  1.88078E+04  2.71933E+03  2.06859E+04  1.62422E+04  1.39621E+04  3.23069E+04 -2.07493E+03  3.73703E+04
 -2.11346E+04  2.99091E+04 -3.34755E+04  1.56062E+04 -3.59669E+04 -2.44760E+03 -2.97916E+04 -2.14903E+04
 -1.22800E+04 -3.04565E+04  9.86297E+03 -2.62622E+04  2.27718E+04 -1.36358E+04  2.02501E+04  5.98772E+03
  7.83810E+03  1.53209E+04 -8.71416E+03  1.33255E+04 -1.68271E+04  2.65479E+03 -1.33053E+04 -1.05576E+04
 -6.73652E+02 -1.63823E+04  8.49021E+03 -1.24262E+04  1.11054E+04 -1.66446E+03  2.76897E+03  6.82260E+03
 -7.70039E+03  3.24588E+03 -6.87190E+03 -5.66621E+03 -9.64595E+02 -1.47697E+04  9.89825E+03 -1.56780E+04
  1.80442E+04 -8.11488E+03  1.91876E+04  3.29134E+03  1.67054E+04  1.45665E+04  8.12689E+03  2.22396E+04
 -4.02154E+03  2.41284E+04 -1.50566E+04  1.52791E+04 -1.80720E+04  3.26340E+03 -1.20735E+04 -3.46208E+03
 -5.44693E+03 -5.97420E+03 -6.83887E+02  7.00099E+02 -2.80305E+03  2.35190E+03 -5.93209E+03  3.84136E+03
 -1.11895E+04 -6.68752E+02 -1.22220E+04 -9.54516E+03 -4.49334E+03 -1.62492E+04  5.03668E+03 -1.22675E+04
  1.03347E+04 -5.43870E+03  7.39799E+03  3.03524E+03  8.29178E-01  4.42357E+03 -6.66122E+03  6.13245E+02
 -5.75307E+03 -8.10937E+03 -5.20943E+02 -1.21533E+04  7.37094E+03 -1.23150E+04  1.53072E+04 -6.64950E+03
  1.81501E+04  1.67680E+03  1.35837E+04  1.04963E+04  2.10154E+03  1.38818E+04 -7.15235E+03  1.19263E+04
 -1.00192E+04  3.46890E+03 -5.31942E+03 -2.52005E+03  2.01319E+03 -3.09072E+03  6.10304E+03 -1.37509E+03
  5.74622E+03  4.79324E+03  1.50101E+03  9.54734E+03 -6.67785E+03  9.76074E+03 -1.19530E+04  1.97094E+03
 -7.61643E+03 -5.79509E+03  5.70932E+02 -9.70463E+03  6.49214E+03 -4.88926E+03  6.86221E+03  1.72073E+03
  1.29559E+03  7.10749E+03 -6.12571E+03  7.53844E+03 -9.32627E+03  4.36653E+03 -9.24128E+03 -3.02672E+03
 -5.46431E+03 -1.07359E+04  2.85457E+03 -1.29147E+04  1.02420E+04 -7.53407E+03  1.12045E+04  1.52796E+03
  7.12464E+03  9.18916E+03 -7.59735E+02  1.16305E+04 -8.28785E+03  6.80577E+03 -8.97254E+03 -6.20732E+02
 -8.69162E+03 -7.63439E+03 -1.76574E+03 -8.33653E+03  4.21296E+03 -6.84738E+03  5.01116E+03 -2.45344E+03
  3.67223E+03  8.16162E+02 -5.25111E+02  1.10124E+03 -6.25468E+01 -1.76875E+03  1.41802E+03 -4.59836E+03
  7.23150E+03 -2.14315E+03  1.12111E+04  1.10731E+03  1.07297E+04  6.62362E+03  7.75869E+03  1.37280E+04
 -3.13059E+03  1.51882E+04 -1.23044E+04  1.20100E+04 -1.70538E+04  2.23288E+03 -1.28489E+04 -5.42385E+03
 -7.47598E+03 -1.11357E+04 -2.22191E+02 -9.39639E+03  3.39337E+03 -5.25460E+03  3.30537E+03 -3.07673E+03
  2.46025E+03 -2.77682E+03  2.71887E+03 -3.40899E+03  4.50389E+03 -1.94193E+03  5.53410E+03 -7.00103E+02
  7.51163E+03  1.35718E+03  3.16919E+03  5.66491E+03 -2.54459E+03  6.18030E+03 -8.04715E+03  4.78995E+03
 -9.16221E+03 -5.78863E+02 -4.70522E+03 -6.47837E+03 -3.09673E+02 -9.32246E+03  5.18130E+03 -1.00265E+04
  9.94120E+03 -6.12567E+03  1.21053E+04  1.65527E+03  8.49193E+03  8.19662E+03  1.69540E+03  1.04956E+04
 -4.64952E+03  9.35176E+03 -6.55813E+03  2.71813E+03 -3.93925E+03 -1.11603E+03 -8.10455E+02 -1.44644E+03
 -3.10561E+02  1.25325E+02 -8.24314E+02  2.49879E+03 -3.46505E+03  2.02914E+03 -5.95132E+03 -1.08137E+03
 -4.19050E+03 -6.46331E+03 -1.28390E+02 -8.33354E+03  4.61700E+03 -8.43922E+03  7.93956E+03 -2.63172E+03
  8.25495E+03  4.37410E+03  4.12491E+03  6.84384E+03 -1.80030E+03  9.14671E+03 -6.04873E+03  4.77447E+03
 -8.15120E+03  8.36556E+02 -6.31128E+03 -4.60316E+03 -9.17683E+02 -7.08462E+03  3.18769E+03 -5.10259E+03
  5.24045E+03 -2.27305E+03  3.61846E+03  1.32565E+03  1.55271E+03  3.06317E+03  1.26561E+03  1.32005E+03
  2.21483E+03  1.27502E+03  2.27659E+03  1.85107E+03  2.72879E+03  2.87457E+03  2.68006E+03  4.27281E+03
 -2.09897E+03  6.06569E+03 -5.62045E+03  6.76016E+03 -8.08250E+03  1.58761E+03 -8.84497E+03 -2.89123E+03
 -4.17363E+03 -7.66514E+03  1.46401E+03 -8.73362E+03  5.13716E+03 -5.52574E+03  6.78781E+03 -1.55420E+03
  5.30575E+03  3.45634E+03  1.20366E+03  4.56977E+03 -2.54241E+03  3.61526E+03 -3.43244E+03 -1.14057E+03
 -2.02822E+03 -3.50896E+03  2.69016E+03 -3.43355E+03  2.79997E+03 -1.82096E+03  2.26918E+03  1.55297E+03
  1.62642E+03  1.58631E+03  1.16404E+03  1.12620E+03 -3.10884E+02  1.19307E+03  1.52484E+03 -3.18596E+02
  4.67148E+02 -2.76571E+02  3.34435E+03  7.74414E+02  1.92690E+03  4.41656E+03 -8.70705E+02  5.95669E+03
 -3.27795E+03  3.45629E+03 -5.16132E+03  4.93365E+02 -4.64233E+03 -1.91623E+03 -2.06674E+03 -2.72139E+03
  7.64676E+02 -3.29763E+03  2.90301E+03 -1.78956E+03  1.74711E+03  1.74676E+03 -8.23024E+02  2.71524E+03
 -2.94042E+03  1.98762E+03 -3.39164E+03 -1.65538E+03 -1.99117E+03 -4.45420E+03  7.86493E+02 -4.08370E+03
  1.82789E+03 -2.32841E+03  2.16272E+03  6.78966E+01  2.74282E+03  2.71320E+02  3.79606E+02  2.41734E+03
 -1.01244E+03  9.30675E+02 -1.93949E+03 -1.27918E+03  1.78480E+01 -3.17416E+03  4.10670E+03 -2.12459E+03
  4.27287E+03  7.10825E+01  5.00165E+03  2.60323E+03  1.72639E+03  4.62506E+03 -1.43872E+03  4.16555E+03
 -3.56470E+03  1.07396E+03 -4.06429E+03 -4.95534E+02 -1.84895E+03 -2.38179E+03  6.24751E+02 -2.63502E+03
  2.31436E+03 -1.34326E+03  1.88534E+03  1.19896E+03  9.40098E+02  2.95526E+03 -1.63612E+02  2.81324E+03
 -1.20535E+03  2.03078E+03 -6.19124E+02  9.74597E+02 -4.11239E+02  9.33659E+01 -1.17358E+03  5.16435E+02
 -1.12709E+03  1.79397E+03 -3.49913E+03  1.37246E+03 -4.17361E+03  6.42613E+02 -4.81369E+03 -3.25736E+03
 -2.18258E+03 -5.62756E+03  4.55083E+02 -6.82760E+03  3.49067E+03 -5.38665E+03  7.19585E+03 -2.15426E+03
  5.74487E+03  1.62444E+03  3.27282E+03  4.80064E+03  3.51364E+02  4.43640E+03 -2.18215E+03  3.63236E+03
 -2.67613E+03  1.36064E+03 -1.95395E+03 -3.31621E+02 -2.26678E+02 -2.67538E+02 -1.23137E+03  4.15345E+02
 -1.65031E+03 -1.04296E+02 -1.27324E+03 -3.16274E+01 -2.30400E+02 -1.80305E+03 -3.68632E+02 -1.38408E+03
  1.87547E+03 -1.12362E+03  2.77187E+03  1.98137E+02  2.55398E+03  2.05288E+03 -8.25460E+01  4.54350E+03
 -2.51115E+03  4.81662E+03 -4.65410E+03  2.81349E+03 -4.63766E+03 -9.18312E+02 -3.09343E+03 -2.73995E+03
 -2.11706E+03 -4.54834E+03  5.81701E+02 -4.16534E+03  1.85963E+03 -2.05559E+03  1.86510E+03 -1.95763E+02
  1.65070E+03  6.22807E+02 -4.71535E+02  7.92578E+02 -2.00705E+02 -2.33130E+02  3.98041E+02 -8.61494E+02
  9.03186E+02 -3.45825E+02  1.67029E+03  7.17377E+02  5.22952E+02  1.98539E+03 -3.84881E+02  1.85715E+03
 -1.99582E+03  1.95411E+03 -2.77246E+03  4.33043E+02 -2.39220E+03 -1.23836E+03  2.65096E+02 -2.85315E+03
  1.86048E+03 -1.58417E+03  2.62847E+03 -9.02563E+02  3.04151E+03  3.31389E+02  1.55089E+03  2.86063E+03
  5.18963E+02  2.00801E+03 -7.78207E+02  1.68971E+03 -1.41178E+03  1.33630E+03 -1.31437E+03  1.81876E+02
 -1.74663E+02  3.80789E+02 -8.50759E+02  6.19305E+02 -1.61304E+03  7.29715E+02 -1.89758E+03 -1.51195E+02
 -2.24922E+03 -1.27713E+02 -1.53481E+03 -2.92747E+03  2.02273E+03 -3.10236E+03  2.03020E+03 -1.10896E+03
  1.57010E+03  5.06823E+02  4.11294E+02  1.15935E+03 -4.14260E+02  2.72453E+03 -1.98394E+03  1.64184E+03
