 $NMID ID='MM_0lb_SNR400_20hz_g45_35.RAW', FMTDAT='(8E13.5)'
 TRAMP=1., VOLUME=1. $END
  3.09641E+05  2.81764E+02  3.36955E+05  2.50359E+05  8.40625E+04  3.37174E+05 -1.32335E+05  2.49861E+05
 -1.89425E+05  8.20036E+04 -1.10724E+05 -3.32842E+04  1.59366E+03 -5.00275E+04  5.39951E+04  2.48601E+02
  3.51433E+04  5.31219E+04 -1.70010E+04  7.46497E+04 -6.08581E+04  6.28266E+04 -8.16526E+04  3.14099E+04
 -7.90053E+04 -1.09616E+04 -5.57301E+04 -5.01102E+04 -1.47045E+04 -6.80074E+04  2.67311E+04 -4.41586E+04
  3.81555E+04  3.82370E+03  1.55649E+04  4.63883E+04 -3.37562E+04  4.63478E+04 -6.51143E+04 -6.29931E+02
 -5.20117E+04 -5.58759E+04 -6.31977E+03 -7.45661E+04  3.32088E+04 -5.27741E+04  4.55543E+04 -1.61076E+04
  4.15862E+04  1.03452E+04  3.03695E+04  2.37798E+04  1.55660E+04  2.81104E+04 -4.21465E+03  2.65220E+04
 -2.15069E+04  1.34673E+04 -1.92009E+04 -4.52704E+03  4.00186E+03 -8.03483E+03  2.06651E+04  1.06766E+04
  7.31337E+03  3.24527E+04 -2.98105E+04  3.32282E+04 -6.10291E+04  2.17149E+03 -5.44701E+04 -4.05469E+04
 -1.19496E+04 -5.96365E+04  3.78129E+04 -4.21754E+04  5.44702E+04 -1.65700E+03  3.04945E+04  2.93343E+04
 -6.67770E+03  3.16336E+04 -2.76752E+04  1.21202E+04 -2.65504E+04 -5.85435E+03 -1.36788E+04 -9.96627E+03
 -7.29051E+03 -1.06480E+04 -1.22319E+03 -1.58294E+04  6.13643E+03 -2.29750E+04  1.50344E+04 -1.37687E+04
  1.24089E+04  3.92535E+03 -5.36792E+03  1.29757E+04 -1.88397E+04 -1.74040E+03 -8.01248E+03 -2.92567E+04
  1.98810E+04 -3.94786E+04  4.35460E+04 -1.86155E+04  4.07735E+04  1.79915E+04  1.33941E+04  4.04540E+04
 -1.51005E+04  2.98491E+04 -2.24869E+04  8.85249E+02 -7.62455E+03 -2.62448E+04  2.03683E+04 -3.03905E+04
  3.73553E+04 -6.66771E+03  3.01356E+04  2.21347E+04  1.41873E+04  4.11908E+04 -8.07716E+03  4.35479E+04
 -2.74964E+04  2.86758E+04 -3.58965E+04  7.56950E+03 -3.70427E+04 -1.43131E+04 -2.04937E+04 -3.31407E+04
  7.23733E+03 -3.28186E+04  2.90113E+04 -1.23142E+04  2.63435E+04  1.08399E+04  2.91864E+03  1.69870E+04
 -1.27284E+04  6.85904E+03 -9.59117E+03 -7.77981E+03  5.96709E+03 -1.00238E+04  1.68219E+04  6.87894E+03
  1.21070E+04  2.15065E+04 -6.84196E+03  2.22372E+04 -2.13405E+04  8.24923E+03 -2.40525E+04 -6.92208E+03
 -1.54660E+04 -1.58468E+04 -4.45529E+03 -1.53205E+04  3.34529E+03 -1.29614E+04  1.16482E+04 -1.29190E+04
  2.00172E+04 -1.10987E+04  2.64398E+04  5.34443E+02  1.99636E+04  1.52504E+04  4.00344E+03  3.13298E+04
 -1.57052E+04  2.69054E+04 -2.51874E+04  9.25933E+03 -1.96294E+04 -1.02146E+04 -4.20486E+03 -1.39933E+04
  2.88291E+03 -5.11699E+03 -2.14727E+03  5.13605E+03 -1.18569E+04  5.29475E+03 -1.25909E+04 -4.26650E+03
 -8.10096E+03 -1.38275E+04  5.02167E+03 -1.85558E+04  1.18029E+04 -1.35205E+04  1.30503E+04 -1.60421E+03
  8.56317E+03  1.05251E+04 -7.73435E+02  1.49872E+04 -9.44886E+03  8.17093E+03 -1.49523E+04 -3.51072E+03
 -1.12887E+04 -1.32197E+04 -8.25631E+02 -1.72458E+04  8.09253E+03 -1.44327E+04  1.49824E+04 -6.34228E+03
  1.34895E+04  8.43938E+02  9.64920E+03  2.91037E+03  4.73342E+03 -3.28324E+01  6.85290E+03 -1.08214E+03
  1.29615E+04  2.34920E+03  1.26679E+04  1.18147E+04  8.33367E+03  2.29108E+04 -2.95764E+03  2.42899E+04
 -1.44010E+04  1.81208E+04 -2.21406E+04  8.89351E+03 -2.20774E+04 -2.07534E+03 -1.93719E+04 -1.24621E+04
 -9.81784E+03 -1.81547E+04  5.80194E+03 -1.72011E+04  1.48530E+04 -1.02436E+04  1.45600E+04  2.70714E+03
  6.37110E+03  1.02599E+04 -6.55302E+03  1.02227E+04 -1.27096E+04  2.49848E+03 -9.78090E+03 -7.81356E+03
  5.51287E+01 -1.16730E+04  5.50817E+03 -8.60682E+03  7.29761E+03 -1.73993E+03  8.33775E+02  4.53185E+03
 -5.24693E+03  7.13283E+02 -3.32330E+03 -4.30043E+03  8.06964E+02 -9.61245E+03  7.04542E+03 -8.69085E+03
  1.07465E+04 -4.18118E+03  9.70056E+03  2.93489E+03  8.99757E+03  8.34649E+03  4.02323E+03  1.24863E+04
 -1.10114E+03  1.42014E+04 -8.08657E+03  8.44334E+03 -9.41046E+03  3.03388E+03 -7.60749E+03 -1.17084E+03
 -4.17044E+03 -2.80245E+03 -4.82434E+02  1.68425E+03 -1.93787E+03  1.73297E+03 -3.44193E+03  3.26793E+03
 -7.28688E+03 -7.97267E+02 -7.81878E+03 -6.30628E+03 -3.21636E+03 -1.03159E+04  3.37706E+03 -7.87644E+03
  6.68115E+03 -2.79554E+03  4.99665E+03  2.29298E+03  5.59506E+02  2.59775E+03 -2.89551E+03 -2.09151E+02
 -2.86901E+03 -4.35266E+03 -5.76344E+02 -6.09783E+03  3.31511E+03 -7.05476E+03  8.15334E+03 -3.34649E+03
  1.03150E+04  3.37432E+02  7.61064E+03  5.16234E+03  1.33881E+03  7.53798E+03 -4.93947E+03  7.52575E+03
 -6.74931E+03  2.82884E+03 -3.30677E+03 -6.39784E+01  1.09807E+03 -1.63983E+03  4.35776E+03 -1.07490E+03
  3.76716E+03  3.10030E+03  1.36017E+03  5.51363E+03 -3.99747E+03  5.78548E+03 -6.82677E+03  1.64208E+03
 -4.04148E+03 -3.47123E+03  5.25781E+02 -5.74026E+03  3.16482E+03 -2.52564E+03  3.11830E+03  7.26052E+02
  4.76438E+02  3.05274E+03 -3.59112E+03  3.73509E+03 -4.18408E+03  1.85045E+03 -3.80629E+03 -5.49112E+02
 -1.67293E+03 -4.92850E+03  1.17171E+03 -5.64592E+03  5.37574E+03 -4.08089E+03  4.66126E+03  7.18994E+02
  4.11444E+03  4.43114E+03 -7.36126E+00  5.90698E+03 -4.58209E+03  3.67181E+03 -3.85739E+03 -1.14413E+02
 -4.70088E+03 -4.39931E+03 -1.58706E+03 -4.80403E+03  2.31498E+03 -3.86627E+03  2.61181E+03 -3.06572E+03
  2.49880E+03 -1.97941E+01 -2.58842E+02  1.17401E+03  8.11868E+02  1.50084E+02 -5.43040E+02 -1.56047E+03
  2.75528E+03 -4.14240E+02  4.05763E+03  4.29620E+02  4.17561E+03  2.20072E+03  4.56563E+03  5.89690E+03
 -7.98944E+02  6.96081E+03 -7.27853E+03  5.58149E+03 -7.85129E+03  1.16266E+03 -6.44347E+03 -2.00409E+03
 -3.54231E+03 -6.05703E+03 -2.43192E+02 -3.94465E+03  1.60632E+03 -1.52007E+03  1.42020E+03 -1.81681E+03
  8.19428E+02 -7.86687E+02  2.13072E+03 -2.11597E+03  3.39126E+03 -1.69633E+03  3.40243E+03  9.11400E+02
  4.20000E+03  1.52399E+03  9.50766E+02  3.37997E+03 -1.68688E+03  1.74269E+03 -3.75579E+03  1.86049E+03
 -4.43581E+03 -9.02780E+02 -9.32066E+02 -2.14296E+03  6.29659E+02 -4.29464E+03  2.32878E+03 -4.12186E+03
  4.25223E+03 -3.34697E+03  5.42698E+03 -2.30596E+02  4.07647E+03  3.25745E+03  7.40366E+02  4.73230E+03
 -1.78171E+03  4.94834E+03 -2.63329E+03  1.30403E+03 -9.57157E+02 -2.62051E+02  1.14066E+02 -5.08855E+02
 -3.67188E+02  4.59571E+02 -8.26024E+02  1.61831E+03 -2.32045E+03  1.22037E+03 -3.47130E+03 -2.66867E+02
 -1.35092E+03 -3.49721E+03  2.85582E+02 -3.47210E+03  2.35943E+03 -3.74069E+03  2.70339E+03 -8.01172E+02
  3.21329E+03  2.10933E+03  9.73907E+02  2.38020E+03 -9.99192E+02  3.59668E+03 -1.52025E+03  2.13353E+03
 -3.10823E+03  3.79798E+02 -2.73197E+03 -1.94017E+03 -5.13389E+01 -2.50848E+03  1.34955E+03 -2.01099E+03
  1.58550E+03 -1.55499E+03  1.75263E+03  1.02963E+02  3.74005E+02  1.73239E+03  1.33937E+03  7.58428E+02
  1.49617E+03 -6.00886E+01  8.93898E+02  8.52822E+02  3.85211E+02  1.91418E+03  5.60096E+02  1.32945E+03
 -1.48053E+03  2.43653E+03 -2.17696E+03  4.00353E+03 -1.88354E+03  9.82186E+02 -3.01698E+03  5.00725E+02
 -8.42025E+02 -3.00784E+03  7.05758E+02 -4.36586E+03  8.79017E+02 -2.18228E+03  2.27063E+03 -4.75426E+02
  2.55880E+03  1.25688E+03  1.67068E+02  1.64998E+03 -6.28811E+02  7.40255E+02 -8.72319E+02  1.54718E+02
 -4.91100E+02 -1.28196E+03  1.14078E+03 -1.06975E+03  9.24383E+02 -1.25287E+03  9.16526E+02 -1.12032E+02
  3.04985E+02 -3.70792E+01  9.47768E+02 -8.69617E+02 -5.87843E+02  8.79973E+02  1.59242E+03  1.47929E+02
 -7.08152E+02  2.56888E+02  9.57354E+02  3.58371E+02  4.02315E+01  2.25200E+03 -6.23547E+02  2.29286E+03
 -1.27049E+03  7.31639E+02 -1.43185E+03  3.62074E+01 -1.89019E+03 -4.67012E+02 -8.99579E+01 -4.81967E+02
  4.45205E+02 -5.37560E+02  6.07939E+02 -6.49836E+02  7.81746E+02  1.04293E+03 -7.10862E+02  7.25000E+02
 -1.11484E+03  6.98042E+02 -1.18119E+03 -1.72107E+03 -8.03541E+02 -1.55444E+03  1.83600E+02 -1.62845E+03
  5.53353E+02 -8.61063E+01  6.51744E+02 -7.14426E+01  1.32575E+03 -2.89408E+02  2.74291E+02  7.83857E+02
 -4.09145E+00 -4.08048E+02 -9.55673E+02 -3.70918E+02  2.68437E+02 -5.25179E+02  1.50448E+03 -8.11866E+02
  7.20718E+02 -4.08466E+02  2.49544E+03  5.07891E+02  1.28733E+03  1.03412E+03 -3.00810E+01  1.93296E+03
 -1.24302E+03 -1.50005E+02 -7.10008E+02 -3.87649E+02 -8.38202E+02 -1.09496E+03 -1.35350E+02 -3.29162E+02
  7.58118E+02 -2.88794E+02  3.56604E+02  3.91727E+02  7.49006E+01  1.14930E+03  2.52265E+02  9.96820E+02
  2.21267E+02  1.36395E+03 -6.05229E+02  3.35745E+02  1.20171E+01  2.32383E+02 -4.55458E+02  2.03410E+02
 -4.16444E+02  8.58243E+02 -1.20150E+03 -3.65578E+02 -9.22712E+02  2.47956E+02 -2.52016E+03 -5.66109E+02
 -7.50593E+02 -1.63288E+03  7.30618E+02 -2.41607E+03  9.11287E+02 -2.15162E+03  1.91249E+03 -5.58496E+02
  1.85298E+03 -1.71491E+02  8.88109E+02  6.30334E+02 -9.02730E+02  8.26698E+02 -4.92814E+02  9.75557E+02
 -2.73828E+02  3.52242E+02 -4.99196E+02 -2.04170E+02 -5.45620E+02  1.63914E+02 -1.00351E+03  3.00201E+02
 -8.39039E+02  1.44585E+02 -3.06026E+02 -2.31823E+02  3.48242E+02 -8.48710E+02 -7.11950E+02 -9.79077E+02
  7.89471E+02 -5.91652E+02  4.55247E+02  1.41706E+02  6.59357E+02  1.32361E+03 -9.52297E+02  5.55629E+02
 -3.22301E+02  1.22727E+03 -1.50108E+03  1.52632E+03 -1.23799E+03 -1.20733E+02 -1.14158E+03 -1.50563E+03
 -6.94926E+02 -6.80307E+02 -1.25800E+02 -1.08399E+03 -4.41362E+02 -5.06799E+02  7.68527E+02  2.02914E+02
  4.40551E+02  1.12905E+02  1.63111E+02  3.08876E+02 -5.27997E+02  1.03083E+02 -4.19288E+02 -2.30403E+01
 -2.58358E+02  4.03745E+02 -5.81197E+01  2.06912E+02 -2.27237E+02  4.35961E+02  2.89630E+02 -2.59753E+02
 -5.34957E+01  4.81901E+02 -2.65214E+02  4.94471E+01  1.38648E+02 -4.83927E+02 -1.56819E+02 -9.87201E+02
  3.69373E+02 -5.12672E+02 -2.67378E+02 -2.37870E+02  5.00241E+02 -7.23131E+02  4.15178E+02  4.02122E+02
  6.19939E+02  5.24094E+02  1.74676E+02  1.77732E+02 -3.96401E+02  2.52760E+02 -3.88664E+02  7.25856E+01
 -9.70587E+01  9.50715E+01 -3.35138E+02 -3.85624E+02 -4.29786E+02  5.60930E+01 -3.32871E+02 -1.32792E+02
 -7.94083E+02  4.70523E+02 -5.59596E+02 -7.09680E+02  7.43866E+02 -1.69376E+03  5.48521E+02 -1.96149E+02
  2.49685E+02 -2.01911E+02 -4.92034E+02 -6.29617E+02  1.98028E+02  9.82232E+02  1.65735E+02  3.82938E+02
