 $NMID ID='MM_0lb_SNR400_19hz_g55_25.RAW', FMTDAT='(8E13.5)'
 TRAMP=1., VOLUME=1. $END
  3.09790E+05 -9.15331E+01  3.37527E+05  2.50495E+05  8.40420E+04  3.37152E+05 -1.32197E+05  2.50758E+05
 -1.90414E+05  8.30849E+04 -1.11664E+05 -3.27954E+04  9.20235E+02 -4.99812E+04  5.36175E+04  6.96026E+01
  3.50097E+04  5.26915E+04 -1.69083E+04  7.54582E+04 -6.08733E+04  6.28956E+04 -8.30172E+04  3.15475E+04
 -7.97776E+04 -1.08350E+04 -5.67360E+04 -5.05975E+04 -1.52137E+04 -6.88207E+04  2.71521E+04 -4.47553E+04
  3.95007E+04  4.15003E+03  1.60006E+04  4.72939E+04 -3.39659E+04  4.66704E+04 -6.57809E+04 -7.36715E+02
 -5.25621E+04 -5.65839E+04 -6.23003E+03 -7.58525E+04  3.31452E+04 -5.42549E+04  4.65777E+04 -1.67625E+04
  4.25056E+04  1.08725E+04  3.07481E+04  2.47952E+04  1.62264E+04  2.82263E+04 -4.45889E+03  2.71289E+04
 -2.17350E+04  1.20653E+04 -1.90956E+04 -4.23718E+03  4.56389E+03 -7.41395E+03  2.17648E+04  1.11371E+04
  7.54892E+03  3.40542E+04 -3.10227E+04  3.46106E+04 -6.21473E+04  2.51184E+03 -5.54161E+04 -4.16577E+04
 -1.21831E+04 -6.14396E+04  3.89035E+04 -4.40283E+04  5.57434E+04 -2.39202E+03  3.28720E+04  3.12331E+04
 -6.42429E+03  3.34829E+04 -2.84575E+04  1.39321E+04 -2.81264E+04 -4.94576E+03 -1.48527E+04 -1.00909E+04
 -7.50003E+03 -1.17507E+04 -5.91934E+02 -1.68516E+04  6.86717E+03 -2.32761E+04  1.51158E+04 -1.41288E+04
  1.17352E+04  4.38540E+03 -6.57232E+03  1.35269E+04 -1.99273E+04 -3.04280E+03 -8.51214E+03 -3.11411E+04
  2.13262E+04 -4.08621E+04  4.54099E+04 -1.85202E+04  4.28879E+04  1.84352E+04  1.42389E+04  4.27354E+04
 -1.53914E+04  3.18406E+04 -2.35315E+04  1.23481E+03 -8.69759E+03 -2.65561E+04  2.02487E+04 -3.15684E+04
  3.82606E+04 -7.52730E+03  3.15156E+04  2.25567E+04  1.62482E+04  4.32227E+04 -7.49877E+03  4.65352E+04
 -2.96410E+04  3.05156E+04 -3.86556E+04  8.49540E+03 -3.94182E+04 -1.54882E+04 -2.15161E+04 -3.54167E+04
  6.86953E+03 -3.44321E+04  2.97067E+04 -1.31019E+04  2.71739E+04  1.11974E+04  2.65228E+03  1.83163E+04
 -1.30651E+04  7.13742E+03 -1.01011E+04 -7.69132E+03  6.22674E+03 -9.70241E+03  1.80133E+04  6.42351E+03
  1.25548E+04  2.17379E+04 -6.76025E+03  2.36344E+04 -2.13865E+04  9.96874E+03 -2.54278E+04 -5.91217E+03
 -1.70941E+04 -1.62179E+04 -5.85855E+03 -1.78270E+04  3.68482E+03 -1.55232E+04  1.27594E+04 -1.52124E+04
  2.14435E+04 -1.15430E+04  2.82187E+04  1.52066E+03  2.16339E+04  1.68786E+04  4.08147E+03  3.33143E+04
 -1.67017E+04  2.74724E+04 -2.63261E+04  9.61796E+03 -2.00134E+04 -1.00716E+04 -3.64774E+03 -1.37329E+04
  2.70549E+03 -4.31517E+03 -3.04206E+03  5.48582E+03 -1.34001E+04  5.24073E+03 -1.39049E+04 -5.14094E+03
 -8.56688E+03 -1.60997E+04  4.59162E+03 -1.99470E+04  1.26081E+04 -1.43991E+04  1.47971E+04 -1.93223E+03
  9.41083E+03  1.10133E+04 -1.02546E+03  1.61820E+04 -1.05923E+04  8.90255E+03 -1.58893E+04 -3.80149E+03
 -1.14655E+04 -1.46507E+04 -1.63744E+03 -1.91282E+04  9.35463E+03 -1.58545E+04  1.70188E+04 -7.28351E+03
  1.51490E+04  7.38855E+02  1.09090E+04  4.23476E+03  5.23921E+03  1.48317E+02  7.43955E+03 -1.51295E+03
  1.42307E+04  2.95692E+03  1.53222E+04  1.27493E+04  9.22011E+03  2.58601E+04 -2.69310E+03  2.73714E+04
 -1.64820E+04  2.09597E+04 -2.59006E+04  9.98091E+03 -2.56911E+04 -2.12943E+03 -2.15958E+04 -1.45323E+04
 -1.01957E+04 -2.11033E+04  6.66174E+03 -1.95239E+04  1.73974E+04 -1.11215E+04  1.58944E+04  4.10983E+03
  6.58244E+03  1.13380E+04 -6.89266E+03  1.05606E+04 -1.38547E+04  2.56258E+03 -1.00983E+04 -8.34308E+03
 -4.54316E+02 -1.26658E+04  6.55097E+03 -9.19294E+03  8.48145E+03 -1.48688E+03  1.46969E+03  5.55524E+03
 -5.63147E+03  1.47391E+03 -4.24522E+03 -4.47272E+03  4.71640E+02 -1.04038E+04  7.75167E+03 -1.04321E+04
  1.19391E+04 -4.98078E+03  1.27722E+04  2.48175E+03  1.09352E+04  9.70692E+03  4.90150E+03  1.43074E+04
 -2.13649E+03  1.57201E+04 -1.05631E+04  1.01824E+04 -1.14745E+04  2.98020E+03 -8.82507E+03 -2.34842E+03
 -4.10596E+03 -3.56666E+03 -8.52037E+02  1.77526E+03 -1.96491E+03  2.11787E+03 -3.57974E+03  3.82867E+03
 -8.20939E+03 -6.06881E+02 -8.82851E+03 -6.96138E+03 -3.51332E+03 -1.15620E+04  3.48269E+03 -8.35246E+03
  7.08272E+03 -3.48227E+03  5.63478E+03  1.49746E+03  5.06878E+02  3.04615E+03 -3.55966E+03 -4.95026E+02
 -2.72379E+03 -5.09628E+03 -1.15204E+03 -7.33282E+03  3.70847E+03 -7.88687E+03  9.90978E+03 -4.73648E+03
  1.13207E+04  6.26157E+02  8.86279E+03  6.29261E+03  1.51139E+03  9.18834E+03 -5.26571E+03  8.09006E+03
 -7.11811E+03  2.54122E+03 -3.73250E+03 -8.92150E+02  1.58816E+03 -1.91016E+03  5.27861E+03 -1.04460E+03
  4.27741E+03  2.82288E+03  8.13702E+02  5.76483E+03 -4.90450E+03  6.66812E+03 -7.88664E+03  1.87873E+03
 -5.05040E+03 -3.52461E+03  1.59688E+02 -7.00890E+03  3.98963E+03 -2.83669E+03  3.50406E+03  8.42142E+02
 -1.10632E+02  3.73957E+03 -4.33589E+03  4.89709E+03 -5.00239E+03  2.57953E+03 -4.48827E+03 -1.27184E+03
 -3.39959E+03 -5.83003E+03  1.81109E+03 -6.68539E+03  5.80811E+03 -4.17330E+03  6.05721E+03  8.70786E+02
  4.15563E+03  5.13029E+03  3.81304E+01  7.06462E+03 -4.60613E+03  3.94125E+03 -5.77868E+03 -9.36586E+02
 -5.73971E+03 -5.21322E+03 -1.73052E+03 -5.16385E+03  3.05149E+03 -4.67369E+03  2.60056E+03 -2.36010E+03
  2.86538E+03  4.47835E+02 -1.35820E+01  1.38650E+03  7.94853E+02  8.27187E+01 -5.81433E+02 -1.81198E+03
  3.19111E+03 -1.73183E+01  5.45960E+03  6.78515E+02  5.54164E+03  3.17742E+03  5.52448E+03  7.28054E+03
 -1.25216E+03  8.70022E+03 -8.01327E+03  6.24374E+03 -1.04137E+04  1.03798E+03 -8.12055E+03 -2.74617E+03
 -4.17610E+03 -6.27721E+03 -7.67885E+02 -5.06819E+03  2.49832E+03 -1.30982E+03  1.65917E+03 -1.86310E+03
  7.23577E+02 -1.82786E+03  1.71555E+03 -2.27006E+03  3.46210E+03 -1.05339E+03  4.36465E+03  2.71888E+02
  4.51573E+03  1.49507E+03  1.25186E+03  3.23844E+03 -1.42625E+03  2.38343E+03 -4.12552E+03  2.46283E+03
 -4.81910E+03 -1.52886E+03 -2.00321E+03 -3.08450E+03  1.94202E+02 -4.79054E+03  3.15461E+03 -4.85216E+03
  5.44741E+03 -2.71042E+03  6.68988E+03  6.60175E+01  4.59459E+03  4.25423E+03  8.21102E+02  5.57907E+03
 -2.30955E+03  5.74689E+03 -3.19607E+03  1.84998E+03 -1.66164E+03 -1.34832E+03  2.75192E+02 -7.73273E+02
 -4.10264E+02  2.17144E+02 -1.16305E+03  1.80114E+03 -2.64230E+03  1.29432E+03 -3.85612E+03 -5.33072E+02
 -1.55617E+03 -3.74298E+03  7.39150E+02 -4.46380E+03  2.67102E+03 -4.45460E+03  3.62445E+03 -7.88100E+02
  4.05111E+03  2.05153E+03  1.30468E+03  3.17406E+03  1.23976E+02  4.22407E+03 -2.06858E+03  2.22855E+03
 -3.28552E+03  6.47958E+02 -2.91967E+03 -2.39040E+03 -3.61446E+02 -2.95256E+03  2.36719E+03 -2.13600E+03
  2.30160E+03 -1.43121E+03  1.69867E+03  2.50319E+02  9.88798E+02  1.69634E+03  8.33273E+02  5.33407E+02
  7.77336E+02  5.05284E+02  1.00251E+03  8.64524E+02  9.21359E+02  1.70691E+03  1.38635E+03  1.57093E+03
 -1.22388E+03  2.71813E+03 -2.71791E+03  4.50632E+03 -2.86905E+03  1.18672E+03 -4.64238E+03 -3.91865E+02
 -1.86157E+03 -3.40189E+03  9.26040E+02 -4.29935E+03  1.85488E+03 -2.39760E+03  3.03795E+03 -1.07221E+03
  2.66410E+03  1.80786E+03  2.35162E+02  2.02397E+03 -3.37217E+02  8.81284E+02 -1.02067E+03  2.35049E+02
 -4.09772E+02 -1.35744E+03  1.09092E+03 -1.51405E+03  6.38713E+02 -1.12378E+03  1.74400E+03  1.65391E+02
  9.44224E+02  1.62952E+01  1.02217E+03 -4.25757E+02 -6.39593E+01  1.15198E+03  1.09401E+03 -3.29160E+02
 -2.23939E+02 -1.85009E+02  1.75672E+03  8.34250E+02 -1.84963E+02  2.08459E+03 -2.34987E+02  3.38835E+03
 -1.29894E+03  3.39782E+02 -1.59501E+03 -3.08543E+02 -1.67236E+03 -1.19282E+03 -3.26022E+01 -1.25307E+03
  3.89088E+02 -7.74982E+02  7.29830E+02 -1.05195E+03  4.91528E+02  1.19957E+03 -8.89619E+02  8.68051E+02
 -1.45466E+03  7.56373E+02 -7.99779E+02 -1.39657E+03 -7.84805E+02 -2.49493E+03  3.09302E+02 -1.54640E+03
  7.17106E+02  6.20548E+01  7.46048E+02  2.05121E+02  1.05778E+03 -4.95518E+02  7.93238E+02  1.08210E+03
 -5.16164E+02 -1.29921E+02 -4.91624E+02  1.11437E+02  8.74461E+02 -4.88873E+02  1.88663E+03 -1.00444E+03
  5.31923E+02  5.17835E+02  2.62189E+03  5.89618E+02  1.13946E+03  1.37619E+03 -1.10469E+02  1.29265E+03
 -1.10975E+03  4.63466E+02 -1.12081E+03 -6.78988E+01 -7.72884E+02 -1.01047E+03 -7.17415E+01 -2.94287E+02
  1.53885E+03 -9.93536E+02  8.23143E+02  8.03372E+02  3.69608E+02  1.15128E+03  5.51980E+02  1.18289E+03
  2.53025E+02  1.22336E+03 -6.06359E+01 -6.24459E+01  1.38229E+02  3.79489E+02 -5.39168E+02  1.02316E+03
 -7.97007E+02  7.62985E+02 -1.81327E+03  2.07220E+02 -1.14914E+03 -1.26682E+02 -2.63752E+03 -1.13160E+03
 -1.10737E+03 -2.53464E+03  4.36312E+02 -2.17754E+03  5.84828E+02 -1.89692E+03  2.69022E+03 -9.49745E+02
  1.80576E+03  7.47361E+01  9.29763E+02  9.83243E+02 -2.03565E+02  1.29328E+03 -7.27670E+02  1.19280E+03
 -2.93596E+02  6.64871E+02 -4.38973E+02 -6.53527E+02 -3.74493E+02  5.61241E+02 -7.91406E+02  6.97496E+02
 -1.40129E+03  3.32807E+02 -6.16668E+02  2.03230E+02  1.89344E+02 -7.96588E+02 -8.37780E+02 -6.05814E+02
  9.04372E+02  1.89468E+01  2.20085E+02 -2.01890E+02  1.06036E+03  9.91194E+02 -4.38201E+02  8.20075E+02
 -6.61557E+02  1.53345E+03 -7.99524E+02  9.49080E+02 -1.80542E+03 -9.02027E+01 -5.01113E+02 -1.57351E+03
 -7.26513E+02 -1.62130E+03  3.03269E+01 -6.19304E+02  6.27414E+02 -1.10458E+03  7.59994E+01  1.60697E+02
  7.28371E+02  5.32331E+02  4.73822E+02  1.27549E+02 -4.36056E+02  4.81136E+02  3.78490E+02  2.38761E+02
  1.10924E+03  3.90129E+02  1.92646E+02  2.30538E+02 -4.54103E+02  3.69419E+02  3.65915E+02  1.76858E+02
 -2.53060E+02  4.96861E+02  9.25598E+01 -7.01751E+01 -4.53321E+02 -5.15411E+02  5.50072E+02 -9.99271E+02
  4.25070E+02 -4.92928E+02  7.52392E+02  3.55726E+00  7.30396E+02 -8.03702E+02 -4.94847E+00  3.24695E+02
  4.00636E+02  4.31330E+02  1.15378E+02  1.02131E+03 -6.16713E+01  8.69267E+02 -7.17467E+02 -1.60275E+02
 -1.17407E+02  8.45294E+01 -1.54266E+02 -1.73085E+02 -4.67159E+02  3.40927E+01 -3.09752E+02 -5.65247E+01
 -8.62515E+02  3.19792E+02 -7.69209E+02 -8.63192E+02  6.22403E+02 -1.21075E+03  7.11412E+02 -4.44878E+02
  7.99050E+02 -2.18072E+01 -5.26650E+02  2.96202E+02  2.24995E+02  9.35890E+02 -2.89214E+02  1.03542E+03
