 $NMID ID='MM_0lb_SNR400_16hz_g60_78.RAW', FMTDAT='(8E13.5)'
 TRAMP=1., VOLUME=1. $END
  3.09588E+05  6.00133E+02  3.37758E+05  2.50635E+05  8.52111E+04  3.38185E+05 -1.32293E+05  2.51619E+05
 -1.90215E+05  8.35998E+04 -1.12230E+05 -3.32545E+04  4.88583E+02 -5.04543E+04  5.38928E+04 -3.82995E+02
  3.50532E+04  5.27160E+04 -1.62169E+04  7.55085E+04 -6.06230E+04  6.34295E+04 -8.47540E+04  3.25501E+04
 -8.13402E+04 -1.16068E+04 -5.73485E+04 -5.12557E+04 -1.48173E+04 -6.97974E+04  2.78980E+04 -4.57575E+04
  3.99325E+04  3.89723E+03  1.62279E+04  4.79606E+04 -3.46073E+04  4.76170E+04 -6.68621E+04  6.15898E+01
 -5.34749E+04 -5.69689E+04 -6.64642E+03 -7.65882E+04  3.40762E+04 -5.49829E+04  4.79723E+04 -1.78651E+04
  4.38513E+04  1.07035E+04  3.12819E+04  2.52602E+04  1.52380E+04  2.94377E+04 -5.45595E+03  2.76176E+04
 -2.20127E+04  1.24358E+04 -1.86431E+04 -4.70663E+03  6.34474E+03 -8.13484E+03  2.23179E+04  1.17234E+04
  7.43807E+03  3.56656E+04 -3.24219E+04  3.57182E+04 -6.36268E+04  1.87437E+03 -5.67390E+04 -4.25640E+04
 -1.22585E+04 -6.35606E+04  3.95850E+04 -4.55664E+04  5.79257E+04 -1.94751E+03  3.41881E+04  3.24128E+04
 -6.03679E+03  3.58365E+04 -3.04816E+04  1.57017E+04 -3.12184E+04 -4.72725E+03 -1.66981E+04 -1.08840E+04
 -8.37995E+03 -1.22421E+04 -1.85833E+02 -1.80031E+04  6.98445E+03 -2.30560E+04  1.49544E+04 -1.37788E+04
  1.23941E+04  5.84622E+03 -8.21110E+03  1.25713E+04 -2.13781E+04 -4.58577E+03 -7.96554E+03 -3.36896E+04
  2.32091E+04 -4.36081E+04  4.80000E+04 -1.97620E+04  4.49901E+04  1.94166E+04  1.62427E+04  4.35346E+04
 -1.60634E+04  3.33792E+04 -2.51183E+04  1.51418E+03 -9.62084E+03 -2.81216E+04  2.14196E+04 -3.38273E+04
  4.10601E+04 -8.76790E+03  3.57265E+04  2.34423E+04  1.82698E+04  4.63193E+04 -7.75076E+03  5.04971E+04
 -3.19375E+04  3.32003E+04 -4.22449E+04  9.70353E+03 -4.24256E+04 -1.66358E+04 -2.32711E+04 -3.83746E+04
  6.92626E+03 -3.74946E+04  3.13153E+04 -1.48440E+04  2.91323E+04  1.11099E+04  4.46975E+03  1.95270E+04
 -1.35192E+04  8.66006E+03 -1.05117E+04 -7.32412E+03  6.28045E+03 -1.07435E+04  1.86899E+04  6.12415E+03
  1.32630E+04  2.17432E+04 -5.95574E+03  2.50438E+04 -2.26115E+04  1.11781E+04 -2.82028E+04 -4.66527E+03
 -2.09701E+04 -1.75713E+04 -8.35227E+03 -2.02307E+04  4.56511E+03 -1.98853E+04  1.56373E+04 -1.75799E+04
  2.61438E+04 -1.25853E+04  3.18558E+04  2.83663E+03  2.42512E+04  1.96787E+04  3.87075E+03  3.63843E+04
 -1.79878E+04  3.01388E+04 -2.74069E+04  1.00256E+04 -2.11545E+04 -1.10443E+04 -4.01182E+03 -1.29528E+04
  2.32879E+03 -1.96504E+03 -4.65321E+03  6.31065E+03 -1.61353E+04  5.53146E+03 -1.61863E+04 -6.81290E+03
 -1.02238E+04 -1.88272E+04  5.53277E+03 -2.26435E+04  1.46769E+04 -1.60800E+04  1.76292E+04 -1.77131E+03
  1.12445E+04  1.25211E+04 -1.20130E+03  1.86897E+04 -1.25809E+04  1.09283E+04 -1.83616E+04 -3.81563E+03
 -1.37954E+04 -1.69446E+04 -1.17463E+03 -2.24663E+04  1.02978E+04 -1.82608E+04  1.89443E+04 -8.74871E+03
  1.78658E+04  5.25473E+02  1.27637E+04  4.19283E+03  6.72057E+03  5.60571E+02  8.51659E+03 -1.38254E+03
  1.67354E+04  2.69548E+03  1.91955E+04  1.51778E+04  1.23570E+04  2.97197E+04 -2.91429E+03  3.36745E+04
 -1.90267E+04  2.62586E+04 -3.13834E+04  1.30467E+04 -3.27457E+04 -2.42884E+03 -2.59779E+04 -1.85247E+04
 -1.16850E+04 -2.65371E+04  8.81383E+03 -2.45304E+04  2.06548E+04 -1.20045E+04  1.88212E+04  5.19998E+03
  7.34482E+03  1.37496E+04 -8.39807E+03  1.18954E+04 -1.51110E+04  2.72718E+03 -1.23179E+04 -9.38210E+03
 -8.44549E+01 -1.44332E+04  7.47847E+03 -1.15485E+04  9.85695E+03 -1.02849E+03  1.92864E+03  6.52023E+03
 -6.75604E+03  2.87088E+03 -5.39349E+03 -5.42268E+03 -3.99126E+02 -1.30477E+04  9.39843E+03 -1.29858E+04
  1.62298E+04 -6.70642E+03  1.66254E+04  2.52640E+03  1.49072E+04  1.31240E+04  6.76771E+03  1.88563E+04
 -2.82137E+03  2.14625E+04 -1.28942E+04  1.39031E+04 -1.52171E+04  3.33752E+03 -1.06959E+04 -3.55672E+03
 -5.63796E+03 -4.85682E+03 -7.06080E+02  1.20663E+03 -2.38272E+03  2.20577E+03 -4.66067E+03  4.33979E+03
 -9.70119E+03 -4.69686E+02 -1.05591E+04 -8.62318E+03 -4.11964E+03 -1.39466E+04  4.16077E+03 -1.04243E+04
  8.75694E+03 -4.32047E+03  6.82640E+03  2.86099E+03  3.82247E+02  3.96430E+03 -4.33827E+03 -4.97150E+01
 -4.70944E+03 -6.66880E+03 -8.33190E+02 -9.20575E+03  5.69616E+03 -1.01219E+04  1.30981E+04 -5.48007E+03
  1.53529E+04  9.03411E+02  1.12396E+04  8.45209E+03  2.53690E+03  1.14045E+04 -6.44913E+03  1.08235E+04
 -9.33464E+03  3.03173E+03 -3.83454E+03 -2.19159E+03  1.72921E+03 -2.40085E+03  6.26990E+03 -1.13390E+03
  4.81573E+03  5.01769E+03  1.11179E+03  7.84006E+03 -6.02268E+03  8.75297E+03 -1.03355E+04  2.15972E+03
 -7.03865E+03 -5.20337E+03  1.82153E+02 -8.37434E+03  5.52137E+03 -4.57289E+03  5.06315E+03  1.24601E+03
  7.78255E+02  5.09749E+03 -5.89800E+03  7.15463E+03 -7.83662E+03  3.05925E+03 -7.13312E+03 -2.57940E+03
 -4.64461E+03 -9.66893E+03  1.67806E+03 -9.91515E+03  8.93623E+03 -6.17661E+03  9.65372E+03  1.15529E+03
  5.64096E+03  7.54988E+03 -4.93070E+02  9.98134E+03 -6.64521E+03  5.63291E+03 -6.92206E+03 -7.06676E+02
 -8.02758E+03 -7.07995E+03 -1.92347E+03 -6.71054E+03  3.72265E+03 -6.06883E+03  4.44459E+03 -3.62856E+03
  3.74418E+03  8.15284E+02 -4.11156E+02  6.82873E+02  4.27828E+02 -1.78635E+03  1.22242E+03 -3.14574E+03
  5.50069E+03 -1.41012E+03  8.06160E+03  1.15697E+03  8.36890E+03  4.97452E+03  6.84304E+03  1.04200E+04
 -2.23032E+03  1.24998E+04 -1.06585E+04  9.04006E+03 -1.33416E+04  1.53417E+03 -1.06776E+04 -4.25123E+03
 -5.42356E+03 -8.91633E+03 -6.21763E+02 -7.21797E+03  2.96867E+03 -3.77002E+03  2.96477E+03 -2.86542E+03
  2.05687E+03 -1.92793E+03  2.76480E+03 -3.12021E+03  4.26317E+03 -1.74320E+03  5.08841E+03 -1.09727E+02
  6.05250E+03  1.52350E+03  2.27103E+03  4.83081E+03 -1.40325E+03  4.91124E+03 -6.08754E+03  3.89052E+03
 -6.94633E+03 -9.46718E+02 -3.66689E+03 -5.79769E+03 -1.78645E+01 -7.81940E+03  4.77903E+03 -7.57297E+03
  7.78613E+03 -4.79281E+03  1.04636E+04  6.99252E+02  6.18632E+03  6.22511E+03  1.97576E+03  9.08978E+03
 -3.27789E+03  7.62966E+03 -4.96694E+03  2.51233E+03 -3.41383E+03 -1.18164E+03 -1.02568E+03 -9.31217E+02
 -1.06369E+03  2.22797E+02 -1.50454E+03  1.91515E+03 -3.89310E+03  1.35107E+03 -5.78616E+03 -4.49500E+02
 -3.11253E+03 -5.34592E+03  6.11967E+02 -6.91264E+03  4.58435E+03 -6.14557E+03  6.25907E+03 -1.66599E+03
  6.23387E+03  3.45778E+03  3.19145E+03  5.59903E+03 -1.04447E+03  6.67591E+03 -4.13999E+03  4.05178E+03
 -6.57183E+03  7.24481E+02 -4.91928E+03 -3.99317E+03 -9.98273E+02 -5.62816E+03  2.11774E+03 -4.31922E+03
  4.11260E+03 -1.64424E+03  2.92046E+03  1.27969E+03  8.09027E+02  2.03241E+03  9.38837E+02  5.09292E+02
  2.08392E+03  5.64171E+02  1.31289E+03  5.73073E+02  1.61761E+03  2.63632E+03  1.98925E+03  3.18316E+03
 -2.12023E+03  4.84633E+03 -3.86523E+03  6.23588E+03 -5.17217E+03  2.12234E+03 -6.56322E+03 -1.55080E+03
 -3.21887E+03 -6.39213E+03  9.35155E+02 -6.79876E+03  3.59834E+03 -4.30899E+03  4.95868E+03 -9.55575E+02
  3.59315E+03  2.67518E+03  6.55422E+02  3.74984E+03 -1.51397E+03  2.07221E+03 -2.35424E+03 -1.42413E+02
 -1.64717E+03 -2.28192E+03  1.60077E+03 -2.65768E+03  2.41413E+03 -1.32585E+03  2.60002E+03  4.25820E+02
  7.22601E+02  1.05876E+03  1.08388E+03 -5.06626E+01 -9.28602E+02  8.76456E+02  1.67185E+03 -1.11424E+02
  9.87033E+02  1.21698E+02  2.76677E+03  1.04212E+03  4.89239E+02  2.66063E+03 -2.86490E+02  3.93390E+03
 -2.77480E+03  2.10801E+03 -3.64454E+03  4.14117E+02 -3.45674E+03 -2.03170E+03 -1.15087E+03 -2.48862E+03
  1.18031E+03 -1.67158E+03  1.75064E+03 -1.50514E+03  1.18609E+03  1.31824E+03 -3.98782E+02  1.94985E+03
 -2.05810E+03  7.37935E+02 -2.35972E+03 -1.77691E+03 -1.70192E+03 -3.04540E+03  2.25419E+02 -3.02204E+03
  1.63809E+03 -1.16378E+03  1.60204E+03 -6.25590E+01  1.84250E+03  7.61698E+02  3.90699E+02  1.39012E+03
 -5.88174E+02  3.53002E+02 -1.57417E+03 -7.30109E+02  7.39902E+02 -1.81410E+03  2.75656E+03 -2.14835E+03
  2.65354E+03  4.06577E+02  4.07779E+03  1.52417E+03  1.33666E+03  3.37091E+03 -1.13453E+03  3.00025E+03
 -2.11506E+03  1.19055E+03 -2.70799E+03 -4.19487E+02 -1.65331E+03 -2.27755E+03  2.89869E+02 -1.50051E+03
  1.92438E+03 -8.48158E+02  1.42632E+03  8.59311E+02  2.71956E+02  1.37415E+03  2.04958E+02  1.44889E+03
 -8.70809E+02  1.43041E+03 -8.01048E+02  2.08837E+02 -8.59949E+01  2.20141E+02 -3.30622E+02  1.02721E+03
 -1.43743E+03  8.94274E+02 -2.27151E+03  3.67360E+02 -2.87335E+03  4.80241E+02 -3.49843E+03 -2.09934E+03
 -1.57547E+03 -3.83750E+03  6.40364E+02 -4.27710E+03  1.76705E+03 -3.59467E+03  4.19322E+03 -1.34688E+03
  4.12686E+03  1.22436E+02  1.47595E+03  2.49351E+03 -2.75553E+02  3.05309E+03 -1.47803E+03  2.86009E+03
 -1.62354E+03  7.49556E+02 -6.21228E+02  2.59723E+02 -1.11644E+03  2.40703E+02 -4.10967E+02  2.98846E+02
 -1.31420E+03 -2.53236E+02 -8.54738E+02  2.55772E+02  4.57204E+02 -4.30307E+02 -2.25634E+02 -1.19436E+03
  1.75180E+03 -1.02910E+03  7.65893E+02  1.91356E+02  1.76887E+03  1.88384E+03  2.74713E+02  2.46678E+03
 -1.68261E+03  3.25555E+03 -2.95015E+03  1.68330E+03 -3.38682E+03 -6.21447E+01 -2.01436E+03 -1.81403E+03
 -5.82521E+02 -2.71612E+03  8.96045E+01 -1.90799E+03  1.19428E+03 -8.25346E+02  8.96836E+02  1.19892E+03
  1.09180E+03  9.47509E+02 -1.73527E+02  4.37899E+02 -1.11117E+03  2.59411E+02  3.54589E+02 -3.09466E+02
  5.78105E+02  5.63173E+02  6.14945E+02  3.39025E+02  6.30592E+02  8.94576E+02  4.01969E+02  1.72032E+02
 -1.10475E+03  6.77792E+02 -8.85408E+02  6.89969E+02 -1.73691E+03 -1.08606E+03 -4.76671E+02 -2.15712E+03
  7.82765E+02 -7.81847E+02  2.08338E+03  2.30811E+02  1.89978E+03 -1.76749E+02  6.54175E+02  1.48018E+03
  1.73468E+02  9.41695E+02 -1.22137E+03  1.46403E+03 -9.49460E+02  9.72788E+02 -1.22096E+03  1.51959E+02
 -5.12995E+02 -6.75747E+02 -5.31687E+02  3.74867E+02 -6.42743E+02  2.05690E+02 -1.14015E+03 -5.89399E+02
 -1.54002E+03 -1.37786E+02 -3.55784E+02 -1.21831E+03  4.91516E+02 -2.43965E+03  1.03774E+03 -3.46254E+02
  1.08237E+03  4.76260E+02  8.03281E+00  5.91860E+02 -2.25529E+02  1.50957E+03 -9.16759E+02  1.40142E+03
