 $NMID ID='MM_0lb_SNR400_8hz_g40_23.RAW', FMTDAT='(8E13.5)'
 TRAMP=1., VOLUME=1. $END
  3.10437E+05  1.38391E+02  3.38156E+05  2.50333E+05  8.48311E+04  3.38538E+05 -1.32758E+05  2.52800E+05
 -1.90676E+05  8.42694E+04 -1.11964E+05 -3.34134E+04  2.01186E+02 -4.97178E+04  5.35746E+04 -7.24703E+02
  3.59855E+04  5.27319E+04 -1.65172E+04  7.65053E+04 -6.12412E+04  6.42862E+04 -8.56488E+04  3.24992E+04
 -8.24883E+04 -1.10112E+04 -5.74204E+04 -5.24269E+04 -1.52293E+04 -7.03620E+04  2.83491E+04 -4.66641E+04
  4.09496E+04  3.66562E+03  1.66830E+04  4.84888E+04 -3.52557E+04  4.86455E+04 -6.83849E+04  5.45175E+02
 -5.48994E+04 -5.77785E+04 -7.98564E+03 -7.97875E+04  3.41203E+04 -5.77000E+04  5.02975E+04 -1.83332E+04
  4.65219E+04  1.09576E+04  3.25172E+04  2.61821E+04  1.65959E+04  2.99699E+04 -5.78445E+03  2.80019E+04
 -2.21132E+04  1.22076E+04 -1.68343E+04 -6.56905E+03  7.24361E+03 -6.80362E+03  2.34676E+04  1.41238E+04
  6.63113E+03  3.72317E+04 -3.37003E+04  3.76264E+04 -6.60679E+04  2.22653E+03 -5.91239E+04 -4.39803E+04
 -1.30713E+04 -6.59102E+04  4.19458E+04 -4.84187E+04  6.05831E+04 -2.34578E+03  3.77654E+04  3.39616E+04
 -5.25789E+03  3.90399E+04 -3.26092E+04  1.95045E+04 -3.41716E+04 -3.74608E+03 -1.96314E+04 -1.18090E+04
 -9.49776E+03 -1.53689E+04 -5.74645E+02 -1.98634E+04  8.58083E+03 -2.24689E+04  1.58502E+04 -1.23032E+04
  1.04321E+04  5.66829E+03 -1.00694E+04  1.38234E+04 -2.41907E+04 -6.11901E+03 -9.45006E+03 -3.73948E+04
  2.45391E+04 -4.70425E+04  5.20010E+04 -2.11291E+04  4.81464E+04  2.05066E+04  1.75804E+04  4.67948E+04
 -1.68000E+04  3.73134E+04 -2.70860E+04  3.33007E+03 -1.16677E+04 -3.00133E+04  2.17259E+04 -3.71890E+04
  4.55369E+04 -1.03918E+04  4.01383E+04  2.47341E+04  2.15389E+04  5.10653E+04 -8.10417E+03  5.63959E+04
 -3.55438E+04  3.87536E+04 -4.72178E+04  1.07392E+04 -4.82042E+04 -1.83496E+04 -2.69842E+04 -4.25214E+04
  8.33647E+03 -4.23087E+04  3.37024E+04 -1.76230E+04  3.28889E+04  1.09820E+04  5.79307E+03  2.10212E+04
 -1.30673E+04  1.04078E+04 -1.12091E+04 -7.70588E+03  5.77464E+03 -1.16324E+04  1.82424E+04  5.47655E+03
  1.53407E+04  2.28010E+04 -6.02232E+03  2.66765E+04 -2.36681E+04  1.47278E+04 -3.20277E+04 -2.33300E+03
 -2.55832E+04 -1.85706E+04 -1.15640E+04 -2.51917E+04  4.23994E+03 -2.57858E+04  2.04958E+04 -2.31614E+04
  3.21522E+04 -1.49482E+04  3.87136E+04  4.57133E+03  2.70778E+04  2.43347E+04  5.54612E+03  4.16773E+04
 -2.00228E+04  3.39532E+04 -3.08006E+04  1.18844E+04 -2.33549E+04 -1.06057E+04 -5.04616E+03 -1.25904E+04
  3.77849E+02 -1.05680E+03 -7.85315E+03  8.32445E+03 -2.02707E+04  5.19265E+03 -2.06215E+04 -9.26729E+03
 -1.21876E+04 -2.31360E+04  5.74388E+03 -2.86247E+04  1.91637E+04 -1.86121E+04  2.31410E+04 -2.54710E+03
  1.49753E+04  1.67233E+04 -1.30736E+03  2.35198E+04 -1.70720E+04  1.27817E+04 -2.41706E+04 -5.57383E+03
 -1.68901E+04 -2.07782E+04 -2.13399E+03 -2.83603E+04  1.26601E+04 -2.31057E+04  2.35406E+04 -1.19820E+04
  2.26433E+04 -9.70844E+02  1.68611E+04  4.97013E+03  9.17437E+03  1.71397E+03  1.25270E+04 -2.46157E+03
  2.24333E+04  3.35388E+03  2.54706E+04  1.80759E+04  1.81370E+04  3.75756E+04 -3.36680E+03  4.65148E+04
 -2.60083E+04  3.74783E+04 -4.26445E+04  1.92372E+04 -4.54852E+04 -3.24130E+03 -3.65534E+04 -2.54056E+04
 -1.45640E+04 -3.73686E+04  1.38747E+04 -3.26183E+04  2.81707E+04 -1.49687E+04  2.47080E+04  8.18720E+03
  7.78280E+03  1.90462E+04 -1.15385E+04  1.62611E+04 -2.00370E+04  2.70269E+03 -1.61322E+04 -1.34499E+04
  8.60481E+01 -1.95489E+04  1.10320E+04 -1.49078E+04  1.42627E+04 -4.72678E+02  3.00381E+03  9.66781E+03
 -8.65597E+03  3.73189E+03 -8.64165E+03 -7.01199E+03 -2.36177E+03 -1.83977E+04  1.17775E+04 -2.03779E+04
  2.32670E+04 -1.11498E+04  2.64733E+04  3.52348E+03  2.25082E+04  1.88953E+04  1.01546E+04  3.00407E+04
 -5.91909E+03  3.16055E+04 -2.09597E+04  1.97454E+04 -2.33794E+04  3.81010E+03 -1.60451E+04 -6.32462E+03
 -6.75198E+03 -7.66923E+03  1.18853E+01  4.68768E+02 -2.72801E+03  3.69631E+03 -7.70086E+03  6.57637E+03
 -1.50152E+04 -6.47737E+02 -1.51047E+04 -1.21864E+04 -5.56025E+03 -2.04288E+04  6.30414E+03 -1.57142E+04
  1.31554E+04 -7.00676E+03  8.86145E+03  3.37061E+03 -3.74385E+02  6.88842E+03 -8.83603E+03  1.51012E+02
 -8.11929E+03 -1.03419E+04 -7.06222E+02 -1.60741E+04  9.28835E+03 -1.66974E+04  2.00799E+04 -8.91029E+03
  2.49161E+04  1.72130E+03  1.76873E+04  1.50880E+04  3.75277E+03  1.92786E+04 -1.01825E+04  1.65517E+04
 -1.30860E+04  4.23534E+03 -6.90070E+03 -3.47256E+03  2.17877E+03 -4.92559E+03  9.07606E+03 -1.56227E+03
  7.00030E+03  7.76423E+03  8.38573E+02  1.19942E+04 -8.84325E+03  1.11846E+04 -1.56338E+04  2.79437E+03
 -1.06753E+04 -7.92758E+03  7.92227E+02 -1.39654E+04  8.64733E+03 -7.13178E+03  9.72775E+03  4.70696E+03
  2.13095E+03  1.09176E+04 -8.87724E+03  1.19411E+04 -1.35326E+04  5.25529E+03 -1.43161E+04 -4.56993E+03
 -8.11060E+03 -1.62868E+04  3.91764E+03 -1.93486E+04  1.56019E+04 -1.07805E+04  1.71152E+04  3.15372E+03
  9.57598E+03  1.41808E+04 -1.89018E+03  1.67804E+04 -1.26410E+04  9.61474E+03 -1.38255E+04 -1.06095E+03
 -1.13238E+04 -1.05393E+04 -1.79715E+03 -1.22820E+04  6.78057E+03 -1.02268E+04  7.95021E+03 -3.49214E+03
  4.96930E+03  1.51913E+03 -7.85941E+02  2.12544E+03 -1.53085E+03 -3.62706E+03  2.69240E+03 -8.01745E+03
  1.14967E+04 -5.78245E+03  1.62678E+04  3.09218E+03  1.65549E+04  1.11701E+04  1.02817E+04  2.20938E+04
 -4.69031E+03  2.51631E+04 -2.04028E+04  1.83835E+04 -2.68587E+04  3.42689E+03 -2.23362E+04 -9.34452E+03
 -1.15311E+04 -1.75218E+04 -5.98063E+02 -1.61028E+04  4.79622E+03 -8.90091E+03  4.94623E+03 -5.31528E+03
  3.92654E+03 -2.82626E+03  4.11540E+03 -4.59353E+03  5.29156E+03 -3.84770E+03  8.68576E+03 -1.03395E+03
  1.15114E+04  2.81816E+03  6.72250E+03  9.76108E+03 -2.34236E+03  1.15924E+04 -1.21416E+04  9.08251E+03
 -1.53842E+04 -1.24879E+03 -1.02576E+04 -1.07557E+04 -1.93308E+03 -1.65127E+04  8.62535E+03 -1.71121E+04
  1.65008E+04 -8.90341E+03  2.02967E+04  2.57042E+03  1.48269E+04  1.46792E+04  2.79902E+03  1.84909E+04
 -7.32985E+03  1.52293E+04 -1.14969E+04  5.55194E+03 -7.98831E+03 -2.39064E+03 -3.18913E+03 -2.55572E+03
 -1.86949E+03  4.52391E+01 -2.20108E+03  2.91732E+03 -6.43100E+03  2.73992E+03 -1.05797E+04 -2.19648E+03
 -7.85180E+03 -1.09051E+04 -1.00699E+03 -1.65904E+04  9.32902E+03 -1.39730E+04  1.59556E+04 -4.31868E+03
  1.58563E+04  7.10078E+03  6.35982E+03  1.49071E+04 -2.27814E+03  1.71012E+04 -1.14306E+04  1.00089E+04
 -1.45598E+04  3.26753E+02 -1.16466E+04 -1.03743E+04 -6.95900E+02 -1.37371E+04  6.88023E+03 -9.54141E+03
  9.82043E+03 -3.05777E+03  6.29641E+03  3.07283E+03  2.05363E+03  4.58351E+03  1.95964E+03  2.26924E+03
  3.23853E+03  1.14554E+03  4.07963E+03  1.67344E+03  4.61294E+03  4.92631E+03  4.68051E+03  8.93855E+03
 -3.12123E+03  1.25685E+04 -1.09063E+04  1.23512E+04 -1.55338E+04  3.75824E+03 -1.68840E+04 -7.55283E+03
 -8.61294E+03 -1.57297E+04  2.03841E+03 -1.79299E+04  1.01447E+04 -1.19112E+04  1.45185E+04 -3.07618E+03
  1.10079E+04  7.07205E+03  1.79149E+03  9.19878E+03 -3.93528E+03  6.55115E+03 -6.99861E+03 -1.02102E+03
 -2.98627E+03 -7.05863E+03  3.82889E+03 -7.52546E+03  7.42789E+03 -3.38051E+03  6.41499E+03  1.30390E+03
  4.82344E+03  3.20147E+03  5.44434E+02  3.04691E+03 -1.69729E+03  9.42944E+02  1.72109E+03 -9.14799E+02
  3.07377E+03 -5.93782E+02  6.07027E+03  2.92879E+03  4.50057E+03  8.00106E+03 -2.44074E+03  1.08858E+04
 -7.39269E+03  7.18308E+03 -1.09703E+04  2.65200E+03 -9.17752E+03 -3.36258E+03 -4.60676E+03 -6.58665E+03
  8.05898E+02 -7.41863E+03  3.61130E+03 -3.58481E+03  2.75419E+03  2.93853E+03 -1.31059E+03  5.22608E+03
 -6.25323E+03  3.70467E+03 -7.98086E+03 -4.06685E+03 -4.44773E+03 -9.71432E+03  1.45352E+03 -9.57996E+03
  5.02845E+03 -4.64783E+03  7.16071E+03 -1.17238E+03  5.15511E+03  2.76296E+03  7.24031E+02  4.74533E+03
 -3.10681E+03  1.41875E+03 -4.00809E+03 -2.94387E+03  1.64451E+03 -7.77947E+03  8.91247E+03 -5.96830E+03
  1.11680E+04  1.02318E+03  1.01273E+04  7.88621E+03  2.68051E+03  1.13919E+04 -4.28912E+03  1.04189E+04
 -8.66220E+03  4.60132E+03 -9.17235E+03 -1.64434E+03 -4.29839E+03 -7.37494E+03  1.82531E+03 -6.87584E+03
  7.22795E+03 -3.35221E+03  5.86581E+03  3.06597E+03  1.81653E+03  6.27379E+03 -1.25807E+03  4.83676E+03
 -2.64685E+03  3.59419E+03 -3.20048E+03  1.21830E+03 -2.48190E+03  1.50928E+03 -1.27747E+03  1.88111E+03
 -3.25067E+03  4.59469E+03 -7.65829E+03  3.57365E+03 -1.11940E+04 -6.18434E+02 -1.18596E+04 -7.57388E+03
 -6.71656E+03 -1.45773E+04  3.71966E+03 -1.66330E+04  1.08915E+04 -1.28044E+04  1.66619E+04 -5.01145E+03
  1.43287E+04  3.25059E+03  8.90017E+03  1.00551E+04  1.33685E+03  1.13809E+04 -4.56652E+03  9.32364E+03
 -6.90830E+03  3.11723E+03 -3.46977E+03 -8.73126E+02 -9.97965E+02 -1.38327E+03 -1.05629E+03 -3.20569E+02
 -1.48320E+03  8.05912E+02 -2.42461E+03 -1.19077E+03 -1.30660E+03 -2.85538E+03  3.96520E+02 -4.25160E+03
  5.95695E+03 -3.79325E+03  6.49739E+03 -9.09894E+01  8.51642E+03  6.15438E+03  1.88684E+03  1.09654E+04
 -5.60425E+03  1.37362E+04 -1.21549E+04  7.90462E+03 -1.37835E+04 -6.70986E+02 -1.17511E+04 -9.41364E+03
 -4.77121E+03 -1.21338E+04  3.23794E+03 -1.11187E+04  7.68256E+03 -5.59751E+03  8.35728E+03 -4.01692E+01
  4.32541E+03  3.60275E+03 -7.01072E+02  3.11278E+03 -2.26623E+03 -1.70642E+02  6.79738E+02 -2.52286E+03
  3.17392E+03 -2.74163E+03  4.41191E+03  8.77383E+02  3.10931E+03  4.86692E+03 -2.59487E+02  6.00560E+03
 -5.19560E+03  5.43896E+03 -7.78484E+03  4.91336E+02 -7.61553E+03 -6.35968E+03 -8.96590E+02 -1.02667E+04
  5.84816E+03 -7.78989E+03  9.41283E+03 -2.54490E+03  9.17164E+03  1.78413E+03  4.64935E+03  7.05526E+03
  3.95478E+02  8.19643E+03 -3.63107E+03  6.60493E+03 -5.16241E+03  2.99192E+03 -4.69553E+03  1.64371E+02
 -2.17687E+03  1.73997E+02 -2.26724E+03  4.68884E+02 -4.26517E+03  1.15845E+03 -6.31910E+03 -3.52698E+02
 -5.42395E+03 -3.59368E+03 -1.94919E+03 -8.31042E+03  4.16374E+03 -8.68272E+03  7.84347E+03 -3.97093E+03
  6.79434E+03  1.46245E+03  4.17555E+03  6.03534E+03 -4.68084E+02  8.26862E+03 -5.09260E+03  4.69481E+03
