 $NMID ID='MM_0lb_SNR400_17hz_g50_94.RAW', FMTDAT='(8E13.5)'
 TRAMP=1., VOLUME=1. $END
  3.10387E+05 -1.56988E+02  3.37485E+05  2.50589E+05  8.41620E+04  3.37916E+05 -1.32651E+05  2.50601E+05
 -1.90359E+05  8.33387E+04 -1.11153E+05 -3.30167E+04  1.35956E+03 -5.01464E+04  5.40510E+04  1.33980E+02
  3.50160E+04  5.31747E+04 -1.66602E+04  7.48787E+04 -6.01282E+04  6.32720E+04 -8.34028E+04  3.18260E+04
 -8.03033E+04 -1.11920E+04 -5.67854E+04 -5.08472E+04 -1.41903E+04 -6.84568E+04  2.60355E+04 -4.57438E+04
  3.91914E+04  4.24372E+03  1.58872E+04  4.75886E+04 -3.41376E+04  4.65224E+04 -6.60981E+04 -8.43887E+02
 -5.30039E+04 -5.64936E+04 -6.39274E+03 -7.62202E+04  3.36539E+04 -5.42467E+04  4.72439E+04 -1.67573E+04
  4.22288E+04  1.10140E+04  3.12176E+04  2.51187E+04  1.58972E+04  2.89427E+04 -5.37435E+03  2.70730E+04
 -2.18261E+04  1.27299E+04 -1.82974E+04 -4.84470E+03  4.40395E+03 -7.72846E+03  2.18834E+04  1.15855E+04
  7.05330E+03  3.46805E+04 -3.11953E+04  3.49315E+04 -6.17250E+04  2.72689E+03 -5.63884E+04 -4.20712E+04
 -1.23487E+04 -6.17988E+04  3.85966E+04 -4.43937E+04  5.61562E+04 -1.81135E+03  3.31878E+04  3.21401E+04
 -6.53174E+03  3.45738E+04 -2.89914E+04  1.46221E+04 -2.93663E+04 -4.61594E+03 -1.53037E+04 -1.04675E+04
 -8.05324E+03 -1.21231E+04 -1.75738E+03 -1.68553E+04  7.48078E+03 -2.29955E+04  1.51137E+04 -1.37066E+04
  1.22448E+04  4.81048E+03 -7.59028E+03  1.27985E+04 -2.06217E+04 -3.47211E+03 -7.54211E+03 -3.16383E+04
  2.15015E+04 -4.19188E+04  4.62850E+04 -1.89477E+04  4.31681E+04  1.87805E+04  1.49521E+04  4.32893E+04
 -1.52728E+04  3.19462E+04 -2.41007E+04  1.38842E+03 -9.22377E+03 -2.69884E+04  2.04790E+04 -3.22138E+04
  3.96305E+04 -8.08512E+03  3.36044E+04  2.26570E+04  1.61701E+04  4.40912E+04 -7.88360E+03  4.71083E+04
 -2.96554E+04  3.17186E+04 -3.88833E+04  8.38110E+03 -3.97101E+04 -1.59411E+04 -2.17163E+04 -3.63258E+04
  6.80601E+03 -3.58553E+04  2.97259E+04 -1.36014E+04  2.70761E+04  1.13596E+04  3.57183E+03  1.79846E+04
 -1.29574E+04  7.73602E+03 -9.88807E+03 -7.58632E+03  4.99671E+03 -9.90645E+03  1.70796E+04  6.16261E+03
  1.26960E+04  2.18916E+04 -6.20845E+03  2.39928E+04 -2.17412E+04  1.02825E+04 -2.61667E+04 -5.51105E+03
 -1.85419E+04 -1.68898E+04 -6.82107E+03 -1.86109E+04  3.72784E+03 -1.66333E+04  1.34963E+04 -1.62368E+04
  2.30408E+04 -1.21498E+04  2.95454E+04  1.64317E+03  2.21886E+04  1.76077E+04  4.21539E+03  3.42186E+04
 -1.66488E+04  2.90180E+04 -2.65137E+04  9.88015E+03 -2.02115E+04 -1.01640E+04 -4.41211E+03 -1.36393E+04
  2.21623E+03 -3.22561E+03 -3.77943E+03  5.11856E+03 -1.37280E+04  5.12702E+03 -1.45000E+04 -5.47723E+03
 -8.92003E+03 -1.67870E+04  4.81221E+03 -2.09956E+04  1.41448E+04 -1.50562E+04  1.55789E+04 -1.96639E+03
  9.56820E+03  1.18228E+04 -5.63055E+02  1.71728E+04 -1.12867E+04  9.79093E+03 -1.67699E+04 -3.44085E+03
 -1.23458E+04 -1.56379E+04 -1.87167E+03 -2.06442E+04  9.28158E+03 -1.68460E+04  1.69616E+04 -7.95803E+03
  1.59848E+04  1.05835E+03  1.14352E+04  4.01388E+03  5.93846E+03  5.38266E+02  8.63755E+03 -9.49075E+02
  1.50757E+04  3.01042E+03  1.66233E+04  1.34293E+04  1.03798E+04  2.70978E+04 -3.65874E+03  2.94493E+04
 -1.76981E+04  2.31097E+04 -2.74234E+04  1.11796E+04 -2.80688E+04 -2.39854E+03 -2.37617E+04 -1.66051E+04
 -1.04951E+04 -2.29007E+04  7.52192E+03 -2.08337E+04  1.84119E+04 -1.10301E+04  1.68205E+04  4.04311E+03
  6.81153E+03  1.22629E+04 -8.09563E+03  1.10486E+04 -1.45597E+04  2.59675E+03 -1.10328E+04 -9.05450E+03
 -2.39829E+01 -1.36168E+04  6.42772E+03 -9.83049E+03  8.52186E+03 -9.96716E+02  1.57431E+03  5.23844E+03
 -5.84853E+03  1.10044E+03 -4.59282E+03 -4.63416E+03 -1.48237E+01 -1.12430E+04  8.65995E+03 -1.19026E+04
  1.41794E+04 -5.83275E+03  1.44059E+04  2.66615E+03  1.15182E+04  1.12361E+04  5.71065E+03  1.62315E+04
 -2.46412E+03  1.77407E+04 -1.14230E+04  1.16502E+04 -1.29057E+04  2.78644E+03 -9.32772E+03 -2.74377E+03
 -4.84119E+03 -4.04876E+03 -4.85077E+02  1.27361E+03 -2.46586E+03  2.46874E+03 -4.20895E+03  3.97343E+03
 -8.54217E+03 -2.77919E+01 -9.88514E+03 -8.24695E+03 -3.87273E+03 -1.30583E+04  3.94295E+03 -9.48536E+03
  7.48960E+03 -4.04917E+03  5.66577E+03  2.11329E+03  4.55338E+02  3.80822E+03 -4.33181E+03 -3.88462E+02
 -3.81518E+03 -5.68913E+03 -2.03789E+02 -7.87284E+03  4.73641E+03 -8.65870E+03  1.14959E+04 -4.90590E+03
  1.32202E+04  1.10627E+03  9.41248E+03  7.24651E+03  1.65951E+03  1.05094E+04 -5.89709E+03  8.66648E+03
 -7.93910E+03  2.95413E+03 -4.42709E+03 -1.39680E+03  1.19010E+03 -2.04332E+03  5.37203E+03 -9.93523E+02
  4.63771E+03  4.00527E+03  1.20415E+03  6.76469E+03 -4.92395E+03  7.53990E+03 -9.02872E+03  1.75131E+03
 -5.89204E+03 -4.35623E+03  2.14636E+02 -7.58693E+03  4.22817E+03 -3.61057E+03  4.44323E+03  1.34109E+03
  9.45619E+02  4.44135E+03 -4.12888E+03  5.38376E+03 -5.38335E+03  3.01107E+03 -5.86626E+03 -1.71162E+03
 -3.47893E+03 -7.06651E+03  1.58896E+03 -8.50235E+03  6.63404E+03 -5.61747E+03  7.62206E+03  1.63354E+03
  4.83283E+03  6.38608E+03 -2.71897E+02  8.42256E+03 -5.47952E+03  4.53133E+03 -6.27295E+03 -3.90981E+02
 -6.68898E+03 -5.87589E+03 -1.31990E+03 -6.24048E+03  2.58472E+03 -5.70779E+03  3.79065E+03 -2.73211E+03
  2.74218E+03  9.49451E+02 -1.69514E+02  2.04514E+03  2.92001E+02 -8.14799E+02  4.39111E+02 -3.00306E+03
  4.20887E+03 -1.63086E+03  6.65909E+03  7.87132E+02  7.01091E+03  4.59659E+03  5.72277E+03  8.58228E+03
 -1.89995E+03  1.04586E+04 -9.07127E+03  7.92778E+03 -1.19760E+04  1.52799E+03 -9.39886E+03 -3.52324E+03
 -5.01254E+03 -7.72266E+03 -8.78947E+02 -5.84299E+03  2.55100E+03 -2.95962E+03  2.59740E+03 -2.28354E+03
  1.84626E+03 -2.15287E+03  2.48752E+03 -2.55204E+03  3.64284E+03 -1.09448E+03  3.86635E+03  5.51419E+02
  5.00395E+03  1.31174E+03  2.13342E+03  3.52515E+03 -1.45050E+03  3.79221E+03 -4.82806E+03  3.01122E+03
 -5.12003E+03 -1.37567E+03 -2.84840E+03 -4.00559E+03  1.56928E+02 -6.02851E+03  3.78820E+03 -6.10835E+03
  6.28757E+03 -3.42694E+03  7.93146E+03  2.39416E+02  5.64900E+03  4.85442E+03  2.00724E+03  7.67796E+03
 -3.11872E+03  6.70250E+03 -4.66768E+03  2.26150E+03 -2.37726E+03 -1.39698E+03 -9.11609E+02 -6.45169E+02
 -8.44881E+02  9.96379E+01 -1.16323E+03  2.07777E+03 -2.56292E+03  1.44191E+03 -4.43972E+03 -6.25007E+02
 -2.20129E+03 -4.76470E+03  7.03554E+02 -5.38877E+03  3.61462E+03 -5.20838E+03  4.64213E+03 -7.71123E+02
  4.94284E+03  3.07997E+03  2.48510E+03  4.50659E+03 -7.48950E+02  5.49746E+03 -3.46559E+03  3.20824E+03
 -4.89371E+03  8.05389E+02 -3.92076E+03 -3.26877E+03 -4.65324E+02 -4.05553E+03  2.14445E+03 -2.96163E+03
  3.08963E+03 -9.79810E+02  2.13278E+03  3.42754E+02  5.91839E+02  2.36433E+03  1.24379E+03  5.42829E+02
  2.01427E+03  5.53415E+02  1.17618E+03  9.62672E+02  1.16890E+03  2.55294E+03  1.65129E+03  2.50655E+03
 -1.54985E+03  3.63355E+03 -3.99242E+03  4.38717E+03 -4.89488E+03  1.11194E+03 -5.25953E+03 -9.67304E+02
 -2.30754E+03 -4.85358E+03  3.06089E+02 -5.63558E+03  2.30451E+03 -3.19427E+03  4.13970E+03 -1.27455E+03
  2.96319E+03  1.38117E+03  7.92145E+02  2.65000E+03 -6.04685E+02  1.37631E+03 -1.11085E+03 -4.87848E+01
 -1.28142E+03 -1.87765E+03  1.07270E+03 -2.07181E+03  1.87642E+03 -1.06509E+03  2.03064E+03  2.50711E+02
  9.61456E+02  6.64441E+02  8.49655E+02 -1.89554E+02  1.27891E+02  8.45749E+02  1.47681E+03 -1.30196E+02
  3.91131E+02 -4.16261E+01  2.16797E+03  9.69005E+02  8.48935E+01  2.33049E+03  4.55532E+01  3.79857E+03
 -1.90284E+03  1.16463E+03 -3.12270E+03  7.95462E+02 -2.90199E+03 -8.32298E+02 -6.49094E+02 -1.89627E+03
  3.77770E+02 -1.30841E+03  1.27996E+03 -9.08127E+02  3.35863E+02  1.37248E+03 -8.92122E+02  1.37408E+03
 -2.02378E+03  1.07952E+03 -1.74067E+03 -1.48768E+03 -1.28384E+03 -2.63636E+03  2.59266E+02 -2.15945E+03
  5.97836E+02 -8.33607E+02  1.34787E+03  2.53597E+02  1.63133E+03 -6.96372E+01  1.80189E+02  1.71276E+03
 -3.27124E+02 -8.03436E+01 -1.31929E+03 -4.15436E+02  6.99891E+02 -1.93148E+03  1.90838E+03 -1.43704E+03
  1.50653E+03  1.58992E+02  3.31946E+03  7.95192E+02  1.39688E+03  2.39835E+03 -3.81040E+02  2.44372E+03
 -2.29774E+03  4.92272E+02 -1.73709E+03 -3.81651E+02 -1.13898E+03 -1.88103E+03  2.97225E+02 -5.26983E+02
  1.54398E+03 -4.92296E+02  4.20207E+02  9.66192E+02  3.28236E+02  1.79241E+03 -1.36847E+02  8.52758E+02
 -8.91487E+02  1.00171E+03 -7.41185E+02  2.88345E+02 -1.57614E+02  9.16896E+02 -2.75264E+02  4.22639E+02
 -7.66860E+02  1.43040E+03 -1.85187E+03  6.02430E+02 -2.54299E+03 -5.58774E+02 -3.05826E+03 -1.73870E+03
 -1.28211E+03 -2.48028E+03  7.99704E+02 -4.07724E+03  1.52600E+03 -3.16680E+03  3.54229E+03 -1.32780E+03
  3.04743E+03 -8.63810E+01  2.08903E+03  2.08453E+03  3.17269E+02  2.23530E+03 -1.45539E+03  1.51812E+03
 -1.31849E+03  6.42092E+02 -1.91018E+02 -6.31026E+02 -6.36161E+02  2.63179E+02 -4.19586E+02 -5.58536E+02
 -1.34383E+03 -9.42398E+00 -8.89640E+02 -5.08726E+02  9.45551E+01 -3.87457E+02 -5.21214E+02 -1.17186E+03
  1.89910E+03 -1.69527E+03  1.23042E+03  3.53226E+02  1.66828E+03  1.12619E+03 -3.80116E+02  1.50618E+03
 -9.97869E+02  3.01105E+03 -2.12822E+03  1.63014E+03 -1.99364E+03 -3.40054E+02 -1.54124E+03 -1.88621E+03
 -1.14995E+03 -1.71514E+03  5.25923E+02 -2.40909E+03  9.59915E+02 -6.06410E+02  1.32783E+03  1.71526E+02
  4.03006E+02  1.01519E+03 -2.62606E+02  6.13782E+02 -4.03330E+02  4.93190E+01  2.06873E+02 -7.65288E+02
  6.65232E+02 -5.48322E+01  7.77108E+02  5.34641E+02  1.07138E+02  1.00929E+02  1.19796E+00  7.26553E+02
 -4.33840E+02  9.38344E+02 -1.29993E+03  4.81568E+02 -1.37646E+03 -8.51786E+02 -2.95730E+02 -1.63919E+03
  4.68184E+02 -1.57980E+03  7.87033E+02 -8.17367E+02  1.44686E+03 -9.57704E+02  3.63399E+02  1.07903E+03
  3.85582E+02  1.13654E+03 -4.13808E+02  6.57174E+02 -6.01533E+02  9.69777E+02 -9.23782E+02  1.46533E+02
 -8.72026E+02  2.00121E+02 -9.51291E+02  3.57184E+02 -6.35052E+02  2.49239E+02 -8.07309E+02 -5.43101E+02
 -1.00916E+03 -1.43400E+02 -8.72446E+02 -1.27166E+03  5.93498E+02 -2.25050E+03  7.66949E+02 -5.46631E+02
  6.82243E+02 -6.62591E+00 -3.41599E+02  1.43579E+02  7.75662E+01  9.15941E+02 -6.83226E+02  9.58374E+02
