 $NMID ID='MM_0lb_SNR400_12hz_g60_98.RAW', FMTDAT='(8E13.5)'
 TRAMP=1., VOLUME=1. $END
  3.10065E+05  2.04628E+02  3.38503E+05  2.50898E+05  8.51343E+04  3.38602E+05 -1.32929E+05  2.52108E+05
 -1.90659E+05  8.38691E+04 -1.12267E+05 -3.21983E+04  3.09426E+02 -5.14894E+04  5.30440E+04 -4.40422E+02
  3.62826E+04  5.23724E+04 -1.59117E+04  7.60863E+04 -6.13166E+04  6.45840E+04 -8.52646E+04  3.16153E+04
 -8.19591E+04 -1.17501E+04 -5.85035E+04 -5.24457E+04 -1.59479E+04 -7.08104E+04  2.84694E+04 -4.68777E+04
  4.06676E+04  4.00453E+03  1.56910E+04  4.83447E+04 -3.41687E+04  4.80813E+04 -6.76929E+04  2.77172E+02
 -5.42307E+04 -5.78396E+04 -7.28730E+03 -7.81352E+04  3.43289E+04 -5.62735E+04  4.89296E+04 -1.78842E+04
  4.52242E+04  1.13117E+04  3.25386E+04  2.63156E+04  1.65977E+04  3.04402E+04 -5.96125E+03  2.77178E+04
 -2.32069E+04  1.22609E+04 -1.84353E+04 -5.39122E+03  6.65326E+03 -7.09099E+03  2.23485E+04  1.26739E+04
  6.68343E+03  3.72713E+04 -3.35818E+04  3.70043E+04 -6.49530E+04  1.73502E+03 -5.81543E+04 -4.43922E+04
 -1.23542E+04 -6.54475E+04  4.09967E+04 -4.77646E+04  6.07357E+04 -2.62595E+03  3.66712E+04  3.37660E+04
 -6.22981E+03  3.87102E+04 -3.11949E+04  1.80285E+04 -3.17034E+04 -3.55501E+03 -1.84122E+04 -1.15235E+04
 -9.14509E+03 -1.45402E+04 -3.92110E+02 -1.94072E+04  8.36483E+03 -2.33621E+04  1.59081E+04 -1.34266E+04
  1.10687E+04  5.94957E+03 -1.01010E+04  1.24040E+04 -2.28637E+04 -6.38174E+03 -8.18703E+03 -3.65887E+04
  2.53313E+04 -4.60408E+04  5.08779E+04 -1.99194E+04  4.80855E+04  2.10675E+04  1.70617E+04  4.67590E+04
 -1.67497E+04  3.50984E+04 -2.70716E+04  2.13139E+03 -1.07872E+04 -2.88001E+04  2.16448E+04 -3.57166E+04
  4.34134E+04 -1.05025E+04  3.96313E+04  2.45139E+04  1.98574E+04  4.89022E+04 -7.89791E+03  5.46009E+04
 -3.39825E+04  3.75182E+04 -4.58225E+04  1.06512E+04 -4.56626E+04 -1.78123E+04 -2.53122E+04 -4.10532E+04
  7.72200E+03 -3.98643E+04  3.37661E+04 -1.59251E+04  3.09444E+04  1.03373E+04  5.34014E+03  2.02175E+04
 -1.34571E+04  8.97850E+03 -1.00637E+04 -8.05752E+03  5.71687E+03 -1.10426E+04  1.82095E+04  5.98838E+03
  1.44226E+04  2.23303E+04 -5.96442E+03  2.67509E+04 -2.37841E+04  1.35864E+04 -2.93008E+04 -3.98337E+03
 -2.32133E+04 -1.78976E+04 -1.08139E+04 -2.40524E+04  4.75384E+03 -2.39030E+04  1.84878E+04 -2.05693E+04
  2.97641E+04 -1.36617E+04  3.59217E+04  4.26275E+03  2.63248E+04  2.30312E+04  4.80638E+03  3.96487E+04
 -1.95780E+04  3.32026E+04 -2.98973E+04  1.18349E+04 -2.18561E+04 -1.03900E+04 -4.95320E+03 -1.30064E+04
  1.03017E+02 -1.69692E+03 -6.52944E+03  7.82702E+03 -1.90049E+04  4.90469E+03 -1.88413E+04 -8.87557E+03
 -1.06376E+04 -2.18650E+04  5.12227E+03 -2.60917E+04  1.79059E+04 -1.88399E+04  2.09194E+04 -1.61222E+03
  1.33657E+04  1.48061E+04 -1.36214E+03  2.23164E+04 -1.53273E+04  1.20313E+04 -2.20950E+04 -3.45396E+03
 -1.58150E+04 -1.97147E+04 -2.48072E+03 -2.60359E+04  1.18522E+04 -2.21691E+04  2.18331E+04 -1.15357E+04
  1.98959E+04 -3.73292E+02  1.48196E+04  4.86409E+03  8.07561E+03  1.04897E+03  1.13162E+04 -1.46275E+03
  2.02981E+04  2.56096E+03  2.32478E+04  1.72308E+04  1.51270E+04  3.46681E+04 -3.05223E+03  4.01125E+04
 -2.37151E+04  3.30404E+04 -3.79838E+04  1.77754E+04 -4.06907E+04 -2.49566E+03 -3.39440E+04 -2.38162E+04
 -1.35140E+04 -3.39363E+04  1.15015E+04 -2.88567E+04  2.61302E+04 -1.46233E+04  2.20391E+04  7.49668E+03
  7.86114E+03  1.68416E+04 -1.01660E+04  1.46161E+04 -1.82820E+04  1.93340E+03 -1.36505E+04 -1.22790E+04
 -7.79999E+02 -1.72909E+04  9.32393E+03 -1.32980E+04  1.20866E+04 -1.04562E+03  2.65143E+03  8.16898E+03
 -7.52043E+03  3.09816E+03 -7.64184E+03 -7.31433E+03 -1.06991E+03 -1.62968E+04  1.15173E+04 -1.74956E+04
  2.07157E+04 -1.01722E+04  2.27487E+04  3.59882E+03  2.01860E+04  1.62524E+04  1.01721E+04  2.59088E+04
 -4.51861E+03  2.71252E+04 -1.79324E+04  1.66071E+04 -1.99266E+04  3.08260E+03 -1.36547E+04 -4.98001E+03
 -6.11379E+03 -6.63574E+03 -7.65185E+02  2.82635E+02 -1.91356E+03  3.22025E+03 -6.82150E+03  4.44691E+03
 -1.24652E+04 -6.02262E+02 -1.35246E+04 -1.10042E+04 -4.90535E+03 -1.75099E+04  5.06226E+03 -1.40996E+04
  1.13080E+04 -5.59863E+03  8.44667E+03  3.29687E+03  3.06628E+02  5.26209E+03 -6.23686E+03 -6.61232E+01
 -6.37304E+03 -8.96220E+03 -8.35798E+02 -1.39514E+04  7.89235E+03 -1.39447E+04  1.70812E+04 -6.93030E+03
  2.04430E+04  1.86840E+03  1.48513E+04  1.19451E+04  2.86660E+03  1.62167E+04 -8.43113E+03  1.38218E+04
 -1.12305E+04  4.78964E+03 -5.60644E+03 -3.01829E+03  1.92147E+03 -4.10249E+03  8.16690E+03 -1.40135E+03
  7.13918E+03  5.89396E+03  9.52583E+02  1.01648E+04 -7.33019E+03  1.02254E+04 -1.38492E+04  2.59749E+03
 -9.11220E+03 -6.55766E+03  6.47715E+02 -1.16021E+04  7.86016E+03 -5.82012E+03  7.96785E+03  2.47281E+03
  1.92104E+03  8.33723E+03 -7.27038E+03  9.96088E+03 -1.15248E+04  4.35176E+03 -1.12593E+04 -3.20530E+03
 -6.60368E+03 -1.31347E+04  3.08607E+03 -1.44770E+04  1.27025E+04 -9.74774E+03  1.38227E+04  2.05004E+03
  7.80138E+03  1.10976E+04 -6.95306E+02  1.34566E+04 -9.66042E+03  7.15851E+03 -9.97194E+03 -1.16085E+03
 -9.54000E+03 -9.42241E+03 -2.31681E+03 -1.00861E+04  4.83117E+03 -7.91221E+03  7.00789E+03 -3.45965E+03
  3.74222E+03  2.29800E+03 -1.16979E+03  1.43245E+03 -7.75887E+02 -2.59481E+03  2.31095E+03 -5.52841E+03
  9.08562E+03 -3.42381E+03  1.25330E+04  7.47509E+02  1.27818E+04  8.83414E+03  8.70951E+03  1.72841E+04
 -4.28914E+03  1.91017E+04 -1.62113E+04  1.41201E+04 -2.02835E+04  3.03274E+03 -1.70626E+04 -7.08614E+03
 -8.44325E+03 -1.38627E+04 -2.46580E+02 -1.09016E+04  4.47682E+03 -6.55248E+03  3.42094E+03 -4.10515E+03
  3.24750E+03 -2.68066E+03  3.71819E+03 -3.65267E+03  5.20513E+03 -2.55485E+03  6.14579E+03 -1.12468E+02
  9.01531E+03  2.29086E+03  4.50930E+03  8.18377E+03 -1.98163E+03  8.53895E+03 -9.04144E+03  7.07002E+03
 -1.17284E+04 -2.19800E+03 -6.83459E+03 -7.87519E+03 -1.16251E+03 -1.21436E+04  6.76055E+03 -1.18226E+04
  1.24256E+04 -6.76230E+03  1.53887E+04  1.64161E+03  1.10660E+04  1.03780E+04  1.80695E+03  1.37425E+04
 -5.90579E+03  1.18901E+04 -8.32695E+03  3.52291E+03 -5.47761E+03 -1.43273E+03 -2.31089E+03 -2.04400E+03
 -1.85007E+03  7.66952E+01 -1.52601E+03  2.87559E+03 -5.46027E+03  1.51726E+03 -8.63693E+03 -1.01350E+03
 -5.46984E+03 -8.33058E+03  4.92592E+02 -1.10516E+04  7.08190E+03 -1.02604E+04  1.14179E+04 -3.00659E+03
  1.10517E+04  5.26801E+03  5.94477E+03  9.74190E+03 -2.43307E+03  1.12113E+04 -7.71014E+03  6.83867E+03
 -1.03597E+04  9.97969E+02 -8.41943E+03 -6.96342E+03 -7.80307E+02 -9.22216E+03  4.75809E+03 -7.53376E+03
  7.05643E+03 -1.66632E+03  4.44874E+03  2.35909E+03  2.19023E+03  4.01437E+03  1.51555E+03  1.79993E+03
  2.56182E+03  1.30574E+03  3.13526E+03  1.35814E+03  2.99294E+03  4.03600E+03  3.57739E+03  6.08805E+03
 -2.13957E+03  8.87160E+03 -7.99122E+03  8.55073E+03 -1.11089E+04  3.03380E+03 -1.12222E+04 -4.79622E+03
 -5.06990E+03 -1.09043E+04  1.60468E+03 -1.29861E+04  6.28005E+03 -7.33398E+03  8.93802E+03 -1.91595E+03
  7.44255E+03  3.67668E+03  2.03248E+03  6.28579E+03 -3.47583E+03  4.39113E+03 -4.42719E+03 -9.15989E+02
 -1.61286E+03 -4.54886E+03  2.54659E+03 -4.45458E+03  4.11943E+03 -2.09548E+03  3.85023E+03  1.00765E+03
  2.45949E+03  2.06558E+03  1.30961E+03  1.39994E+03 -4.69878E+02  1.46403E+03  1.72303E+03 -3.98021E+02
  1.97653E+03 -9.54521E+02  5.23307E+03  1.17797E+03  2.77812E+03  5.35042E+03 -9.44372E+02  7.85925E+03
 -5.05925E+03  4.90451E+03 -6.98078E+03  7.79679E+02 -5.64239E+03 -2.85797E+03 -2.19155E+03 -4.10436E+03
  3.19602E+02 -3.23969E+03  2.82485E+03 -2.09023E+03  2.63736E+03  2.24546E+03 -1.63270E+03  3.80134E+03
 -4.76930E+03  2.05250E+03 -4.47791E+03 -2.26354E+03 -2.42548E+03 -6.56446E+03  2.87915E+02 -5.32353E+03
  3.53883E+03 -2.76143E+03  4.51303E+03 -1.17501E+02  3.72086E+03  1.48416E+03  7.08989E+02  3.01627E+03
 -1.94461E+03  8.64998E+02 -2.54503E+03 -1.45124E+03  1.11111E+03 -4.53826E+03  5.00727E+03 -2.93993E+03
  6.59887E+03  1.04208E+03  7.39010E+03  3.74066E+03  2.64612E+03  6.56967E+03 -2.34554E+03  5.96185E+03
 -5.27682E+03  2.52969E+03 -4.95945E+03 -7.73831E+02 -3.24298E+03 -4.03866E+03  1.75007E+03 -4.15670E+03
  4.32617E+03 -1.90505E+03  3.61739E+03  2.06199E+03  1.23075E+03  3.70622E+03 -5.34121E+02  3.40489E+03
 -1.35020E+03  2.68812E+03 -1.61070E+03  1.21354E+03 -4.36809E+02  9.00433E+02 -1.57880E+03  1.61973E+03
 -1.54920E+03  2.43509E+03 -4.65607E+03  2.88124E+03 -5.85368E+03  5.35410E+02 -7.00349E+03 -4.11770E+03
 -4.31175E+03 -8.57936E+03  2.05235E+03 -9.71319E+03  6.04083E+03 -7.62939E+03  9.87118E+03 -2.55074E+03
  8.81977E+03  1.41539E+03  4.60426E+03  5.29809E+03  6.68731E+02  6.60728E+03 -2.41327E+03  4.41182E+03
 -3.33612E+03  2.68912E+03 -2.54096E+03 -8.55154E+02 -1.04121E+03 -6.96971E+02 -4.99223E+01  1.47249E+02
 -1.59934E+03  8.93228E+00 -1.53234E+03 -4.73715E+02 -5.51291E+02 -1.61286E+03 -3.35323E+02 -2.35663E+03
  3.06409E+03 -2.32723E+03  3.81870E+03 -2.94152E+02  4.90672E+03  3.14705E+03  1.01013E+03  5.40594E+03
 -2.67701E+03  6.68588E+03 -6.92688E+03  5.05846E+03 -7.43449E+03 -9.46301E+02 -6.21033E+03 -4.81121E+03
 -2.32567E+03 -6.06702E+03  1.36422E+03 -5.95210E+03  3.86679E+03 -3.30255E+03  3.55302E+03  8.48353E+02
  2.63703E+03  1.98397E+03  1.88717E+02  2.45130E+03 -8.92938E+02 -1.39433E+02 -3.47434E+02 -1.72330E+03
  1.65767E+03 -5.96418E+02  2.09771E+03  4.69252E+02  1.61973E+03  2.39477E+03  4.55660E+01  2.86058E+03
 -2.80736E+03  3.28193E+03 -3.10623E+03  2.23031E+02 -3.49239E+03 -2.59719E+03 -9.07571E+02 -5.44275E+03
  2.66910E+03 -4.41314E+03  5.01776E+03 -7.52712E+02  4.13394E+03  1.07447E+03  2.46257E+03  3.45209E+03
  1.04300E+03  3.53360E+03 -1.72388E+03  2.83564E+03 -3.17744E+03  2.03495E+03 -2.51889E+03  2.00887E+02
 -1.29689E+03 -5.65998E+01 -1.21288E+03  5.42109E+02 -2.02101E+03  6.73030E+02 -3.03925E+03  6.19441E+01
 -3.57958E+03 -1.16623E+03 -3.08942E+02 -3.97365E+03  1.05042E+03 -4.12254E+03  3.53237E+03 -1.49139E+03
  3.92238E+03  4.67764E+02  1.66360E+03  2.46180E+03  9.85173E+01  3.84328E+03 -2.53909E+03  2.28133E+03
