 $NMID ID='MM_0lb_SNR400_7hz_g55_59.RAW', FMTDAT='(8E13.5)'
 TRAMP=1., VOLUME=1. $END
  3.09225E+05  7.27172E+02  3.37655E+05  2.51531E+05  8.56605E+04  3.39022E+05 -1.32680E+05  2.52306E+05
 -1.91095E+05  8.41542E+04 -1.12474E+05 -3.23191E+04 -1.15316E+02 -5.12008E+04  5.45391E+04 -9.24937E+02
  3.57539E+04  5.31621E+04 -1.71279E+04  7.61885E+04 -6.23319E+04  6.39920E+04 -8.68556E+04  3.30023E+04
 -8.35396E+04 -1.21514E+04 -5.86890E+04 -5.32057E+04 -1.49991E+04 -7.17249E+04  2.91895E+04 -4.64885E+04
  4.10616E+04  2.99602E+03  1.72044E+04  4.93956E+04 -3.48487E+04  4.89728E+04 -6.89089E+04  8.12211E+01
 -5.56615E+04 -5.80207E+04 -7.75470E+03 -8.00964E+04  3.54217E+04 -5.82473E+04  5.04660E+04 -1.91091E+04
  4.61913E+04  1.23622E+04  3.35519E+04  2.65487E+04  1.61405E+04  3.11990E+04 -5.78187E+03  2.76896E+04
 -2.23793E+04  1.14269E+04 -1.75291E+04 -6.36991E+03  7.50942E+03 -7.35482E+03  2.46534E+04  1.45358E+04
  6.87817E+03  3.95586E+04 -3.65476E+04  3.84559E+04 -6.69266E+04  1.88697E+03 -5.93248E+04 -4.45431E+04
 -1.31987E+04 -6.69848E+04  4.20459E+04 -4.79601E+04  6.30728E+04 -3.63036E+03  3.81172E+04  3.49246E+04
 -5.41657E+03  4.02946E+04 -3.32968E+04  2.04411E+04 -3.45756E+04 -4.49635E+03 -2.01736E+04 -1.30238E+04
 -1.02295E+04 -1.62559E+04 -2.34152E+02 -2.03846E+04  8.86461E+03 -2.38269E+04  1.61346E+04 -1.18467E+04
  1.05587E+04  5.62040E+03 -1.12853E+04  1.22944E+04 -2.41946E+04 -7.96593E+03 -8.57831E+03 -3.91171E+04
  2.58657E+04 -4.89947E+04  5.30457E+04 -2.19739E+04  5.06564E+04  2.10903E+04  1.75835E+04  4.88689E+04
 -1.72736E+04  3.75342E+04 -2.89350E+04  2.56395E+03 -1.27951E+04 -3.08800E+04  2.23887E+04 -3.86785E+04
  4.66666E+04 -1.17764E+04  4.30509E+04  2.51439E+04  2.37419E+04  5.32264E+04 -8.44344E+03  5.90098E+04
 -3.77520E+04  4.06864E+04 -4.92196E+04  1.24799E+04 -4.91096E+04 -1.98828E+04 -2.74701E+04 -4.42518E+04
  8.84579E+03 -4.41602E+04  3.51118E+04 -1.84657E+04  3.35600E+04  1.05047E+04  6.08629E+03  2.20590E+04
 -1.56279E+04  1.08721E+04 -1.17963E+04 -8.24450E+03  5.26098E+03 -1.25302E+04  1.91735E+04  5.42755E+03
  1.52074E+04  2.34994E+04 -5.60896E+03  2.77649E+04 -2.39904E+04  1.60087E+04 -3.37869E+04 -2.35710E+03
 -2.81686E+04 -1.91414E+04 -1.38040E+04 -2.76459E+04  4.38144E+03 -2.93043E+04  2.13383E+04 -2.55786E+04
  3.51011E+04 -1.47196E+04  4.01858E+04  5.80323E+03  2.83719E+04  2.59830E+04  4.43175E+03  4.38504E+04
 -2.14847E+04  3.53657E+04 -3.26816E+04  1.26219E+04 -2.30129E+04 -1.06976E+04 -4.72626E+03 -1.34256E+04
  1.68011E+02 -6.35231E+02 -9.20078E+03  9.67556E+03 -2.25445E+04  5.09498E+03 -2.21472E+04 -1.13832E+04
 -1.33548E+04 -2.58818E+04  7.36353E+03 -2.99648E+04  2.10055E+04 -2.17604E+04  2.53336E+04 -2.46867E+03
  1.69072E+04  1.90306E+04 -1.69702E+03  2.60962E+04 -1.87003E+04  1.45477E+04 -2.61660E+04 -5.06617E+03
 -1.81252E+04 -2.25523E+04 -2.30671E+03 -2.96621E+04  1.36623E+04 -2.58069E+04  2.66611E+04 -1.39400E+04
  2.47504E+04 -1.15176E+03  1.75706E+04  5.82549E+03  9.70929E+03  3.66607E+02  1.42190E+04 -2.06250E+03
  2.42725E+04  3.55170E+03  2.93405E+04  2.02796E+04  2.00529E+04  4.22386E+04 -3.01064E+03  5.02465E+04
 -2.78002E+04  4.19009E+04 -4.78312E+04  2.28905E+04 -5.05763E+04 -4.29554E+03 -4.12069E+04 -3.04284E+04
 -1.61895E+04 -4.15362E+04  1.56911E+04 -3.69149E+04  3.19742E+04 -1.53011E+04  2.57502E+04  9.25208E+03
  8.33091E+03  2.05394E+04 -1.34598E+04  1.72479E+04 -2.29365E+04  1.76786E+03 -1.66638E+04 -1.41583E+04
 -3.21370E+02 -2.23549E+04  1.13344E+04 -1.63049E+04  1.52889E+04 -1.38115E+03  4.40624E+03  1.07891E+04
 -1.00815E+04  4.78638E+03 -1.14076E+04 -7.50802E+03 -2.56240E+03 -2.07693E+04  1.24212E+04 -2.26828E+04
  2.65467E+04 -1.29714E+04  3.01264E+04  3.11624E+03  2.73731E+04  2.20419E+04  1.21336E+04  3.37636E+04
 -6.97765E+03  3.61226E+04 -2.39122E+04  2.27516E+04 -2.58811E+04  4.62011E+03 -1.70128E+04 -6.88607E+03
 -8.43992E+03 -8.57041E+03  3.05083E+02 -1.10352E+03 -3.15232E+03  3.28556E+03 -9.30335E+03  5.76106E+03
 -1.67974E+04 -1.71324E+03 -1.70178E+04 -1.35694E+04 -7.07996E+03 -2.29536E+04  7.10199E+03 -1.72800E+04
  1.55038E+04 -7.91503E+03  1.01457E+04  5.57018E+03 -6.22069E+02  7.65452E+03 -9.44133E+03  1.43140E+01
 -9.16519E+03 -1.29045E+04 -1.76137E+03 -1.84484E+04  1.16645E+04 -1.86506E+04  2.32773E+04 -1.02357E+04
  2.77578E+04  3.08521E+03  2.03610E+04  1.69649E+04  4.02514E+03  2.33527E+04 -1.18144E+04  1.81377E+04
 -1.47654E+04  4.17018E+03 -7.61809E+03 -4.84648E+03  3.01631E+03 -5.22968E+03  9.62822E+03 -1.14165E+03
  8.90153E+03  8.30865E+03  8.32019E+02  1.48955E+04 -1.20942E+04  1.43802E+04 -1.82548E+04  2.90416E+03
 -1.33863E+04 -9.71807E+03  4.57687E+02 -1.55338E+04  1.01691E+04 -8.08571E+03  1.05674E+04  4.51420E+03
  3.57593E+03  1.22050E+04 -9.63041E+03  1.40356E+04 -1.66175E+04  6.15122E+03 -1.66727E+04 -5.88703E+03
 -1.02525E+04 -1.91750E+04  4.89716E+03 -2.17588E+04  1.96764E+04 -1.30415E+04  1.94733E+04  3.51334E+03
  1.19962E+04  1.67670E+04 -2.70150E+03  1.88745E+04 -1.36089E+04  1.15985E+04 -1.55051E+04 -1.88830E+03
 -1.23765E+04 -1.22827E+04 -1.42701E+03 -1.43072E+04  7.70531E+03 -1.08972E+04  1.03215E+04 -3.77225E+03
  6.32109E+03  2.03351E+03 -1.98519E+03  2.08200E+03  8.87798E+01 -5.00437E+03  3.37267E+03 -1.04469E+04
  1.47742E+04 -6.61165E+03  2.04175E+04  2.12508E+03  1.92219E+04  1.42046E+04  1.19868E+04  2.71677E+04
 -6.80924E+03  3.02345E+04 -2.41959E+04  2.16406E+04 -3.22405E+04  5.56800E+03 -2.49153E+04 -1.18206E+04
 -1.34109E+04 -2.15733E+04 -8.61597E+02 -1.85706E+04  6.48047E+03 -1.13142E+04  6.30435E+03 -6.12299E+03
  5.56811E+03 -4.14280E+03  4.15447E+03 -4.05818E+03  7.16535E+03 -3.85929E+03  1.01319E+04 -2.36398E+03
  1.28198E+04  3.28963E+03  7.57132E+03  1.22493E+04 -3.07377E+03  1.54871E+04 -1.41495E+04  1.08481E+04
 -1.80891E+04 -1.16696E+03 -1.28443E+04 -1.35699E+04 -1.11543E+03 -1.98163E+04  1.03424E+04 -1.97060E+04
  2.15176E+04 -1.06029E+04  2.42028E+04  4.26437E+03  1.68202E+04  1.74261E+04  2.71532E+03  2.34823E+04
 -8.89971E+03  1.87351E+04 -1.33544E+04  5.25675E+03 -9.26842E+03 -1.95260E+03 -4.10995E+03 -3.65327E+03
 -1.99839E+03 -2.89174E+02 -3.86119E+03  3.04047E+03 -8.47588E+03  3.15323E+03 -1.28026E+04 -1.99276E+03
 -9.38772E+03 -1.30676E+04 -3.02553E+02 -1.87514E+04  1.25327E+04 -1.83044E+04  2.05943E+04 -5.27517E+03
  1.82014E+04  8.82353E+03  8.32661E+03  1.83052E+04 -3.55417E+03  1.95812E+04 -1.44326E+04  1.21713E+04
 -1.81971E+04  2.89532E+02 -1.36689E+04 -1.13559E+04 -1.28403E+03 -1.64700E+04  8.69218E+03 -1.20845E+04
  1.15546E+04 -4.29589E+03  8.28714E+03  3.52272E+03  3.79602E+03  5.94564E+03  1.93338E+03  3.54671E+03
  2.61938E+03  1.80556E+03  4.61845E+03  2.47487E+03  4.99810E+03  6.32230E+03  4.93039E+03  1.02043E+04
 -3.45420E+03  1.55711E+04 -1.39512E+04  1.50943E+04 -2.10619E+04  4.04382E+03 -2.07059E+04 -1.00285E+04
 -1.04394E+04 -1.93082E+04  2.78328E+03 -2.17105E+04  1.17865E+04 -1.34439E+04  1.68741E+04 -3.25152E+03
  1.29812E+04  7.73431E+03  3.00753E+03  1.33046E+04 -5.81757E+03  7.74588E+03 -8.62776E+03 -1.46003E+03
 -4.53826E+03 -8.95974E+03  4.61150E+03 -8.60656E+03  7.90686E+03 -4.76028E+03  7.72884E+03  2.53725E+03
  4.76521E+03  4.16362E+03  1.22323E+03  4.96171E+03 -7.96570E+02  2.28289E+03  2.25476E+03 -1.68391E+03
  2.88329E+03 -1.53748E+03  7.32513E+03  3.36622E+03  4.31306E+03  1.10633E+04 -2.40984E+03  1.37965E+04
 -9.63499E+03  1.14833E+04 -1.28235E+04  2.28909E+03 -1.17376E+04 -4.27212E+03 -4.61122E+03 -8.87134E+03
  6.59492E+02 -9.29621E+03  5.72035E+03 -3.58860E+03  4.99580E+03  4.08072E+03 -1.43470E+03  6.49134E+03
 -8.80734E+03  4.24976E+03 -9.48729E+03 -5.20458E+03 -5.37166E+03 -1.18557E+04  1.33549E+03 -1.13417E+04
  7.58461E+03 -6.99324E+03  7.89864E+03 -6.76189E+02  5.43904E+03  3.26921E+03  8.89931E+02  6.89558E+03
 -3.63799E+03  1.42229E+03 -6.00694E+03 -4.66953E+03  1.40170E+03 -9.09469E+03  1.10480E+04 -8.00642E+03
  1.27864E+04  9.14460E+02  1.25791E+04  9.78207E+03  3.05902E+03  1.50213E+04 -5.25295E+03  1.31425E+04
 -1.18151E+04  6.51639E+03 -1.20245E+04 -1.89140E+03 -6.69352E+03 -1.01036E+04  3.57957E+03 -9.16102E+03
  9.22508E+03 -4.22434E+03  7.96438E+03  4.16080E+03  3.07919E+03  7.50401E+03 -1.62918E+03  7.04981E+03
 -3.38417E+03  4.23065E+03 -4.78393E+03  6.86908E+02 -1.44546E+03  1.78462E+03 -3.16184E+03  3.48831E+03
 -4.40688E+03  4.41508E+03 -9.37498E+03  5.18390E+03 -1.35815E+04  8.42659E+02 -1.62014E+04 -8.83923E+03
 -8.44091E+03 -1.84810E+04  3.83828E+03 -2.23499E+04  1.40569E+04 -1.76414E+04  2.03374E+04 -6.01916E+03
  2.06666E+04  4.34029E+03  1.22932E+04  1.25307E+04  1.51634E+03  1.55258E+04 -6.02458E+03  1.08835E+04
 -8.80275E+03  3.70049E+03 -4.62504E+03 -1.71507E+03 -1.62447E+03 -1.74604E+03 -1.25273E+03 -1.27161E+03
 -2.37067E+03  1.06331E+03 -3.43857E+03 -4.82919E+02 -1.32180E+03 -3.48714E+03  7.98840E+02 -4.97506E+03
  7.11011E+03 -4.33355E+03  9.63227E+03  7.83563E+02  1.12654E+04  7.30579E+03  3.14591E+03  1.54453E+04
 -6.88090E+03  1.73108E+04 -1.64731E+04  1.12400E+04 -1.89274E+04 -1.95568E+03 -1.39348E+04 -1.17223E+04
 -6.01522E+03 -1.59506E+04  4.32993E+03 -1.50217E+04  1.04917E+04 -8.77275E+03  1.04829E+04  1.90949E+02
  6.05696E+03  5.76549E+03 -3.07013E+02  4.70365E+03 -2.62840E+03  2.41936E+02  2.64882E+02 -3.44396E+03
  4.16131E+03 -2.38481E+03  6.87311E+03  1.73693E+03  4.62413E+03  5.96444E+03 -6.22176E+02  8.72674E+03
 -5.69229E+03  6.71895E+03 -1.09331E+04  1.30307E+03 -9.89091E+03 -7.65590E+03 -1.05590E+03 -1.29388E+04
  7.35638E+03 -1.14138E+04  1.31314E+04 -4.14855E+03  1.19117E+04  3.35824E+03  6.69057E+03  1.00325E+04
  7.51981E+02  1.16350E+04 -3.71540E+03  8.55961E+03 -7.13735E+03  3.92542E+03 -5.73617E+03  5.05753E+02
 -2.25009E+03 -2.14640E+02 -3.12347E+03  7.43422E+02 -5.07283E+03  2.20471E+03 -8.15808E+03 -1.81784E+03
 -7.19703E+03 -5.87842E+03 -2.35086E+03 -1.13322E+04  4.94862E+03 -1.05184E+04  1.03149E+04 -6.04820E+03
  1.07128E+04  1.76474E+03  5.69504E+03  8.38356E+03 -8.86006E+02  1.04335E+04 -8.61555E+03  6.82657E+03
