 $NMID ID='MM_0lb_SNR400_9hz_g40_35.RAW', FMTDAT='(8E13.5)'
 TRAMP=1., VOLUME=1. $END
  3.10159E+05  3.19287E+02  3.36914E+05  2.50382E+05  8.55366E+04  3.38106E+05 -1.33671E+05  2.51377E+05
 -1.90219E+05  8.44307E+04 -1.11936E+05 -3.23308E+04  2.74916E+02 -5.11911E+04  5.36750E+04 -4.62802E+02
  3.48648E+04  5.21502E+04 -1.65495E+04  7.64298E+04 -6.14116E+04  6.38474E+04 -8.46846E+04  3.28485E+04
 -8.23400E+04 -1.22247E+04 -5.74449E+04 -5.20414E+04 -1.47755E+04 -7.09890E+04  2.69861E+04 -4.69016E+04
  4.10547E+04  3.75817E+03  1.66555E+04  4.84251E+04 -3.48545E+04  4.84976E+04 -6.77919E+04  1.85650E+02
 -5.43138E+04 -5.72766E+04 -7.34232E+03 -7.86224E+04  3.46706E+04 -5.56375E+04  4.95237E+04 -1.82721E+04
  4.49802E+04  1.20098E+04  3.22717E+04  2.68083E+04  1.54420E+04  3.04506E+04 -5.48422E+03  2.69396E+04
 -2.20071E+04  1.25110E+04 -1.81191E+04 -5.88402E+03  6.39433E+03 -6.66262E+03  2.33633E+04  1.38008E+04
  7.25696E+03  3.65003E+04 -3.43876E+04  3.69887E+04 -6.50188E+04  2.75927E+03 -5.79316E+04 -4.39353E+04
 -1.22622E+04 -6.49427E+04  4.12900E+04 -4.69757E+04  5.97109E+04 -1.75617E+03  3.62225E+04  3.36291E+04
 -5.71194E+03  3.84918E+04 -3.08946E+04  1.82747E+04 -3.30312E+04 -3.50218E+03 -1.85329E+04 -1.14018E+04
 -9.34907E+03 -1.42303E+04 -2.36938E+02 -1.93228E+04  8.12851E+03 -2.29738E+04  1.58385E+04 -1.28900E+04
  1.00594E+04  5.71139E+03 -9.53999E+03  1.20520E+04 -2.30360E+04 -6.60950E+03 -7.92196E+03 -3.65818E+04
  2.45468E+04 -4.60207E+04  5.07216E+04 -2.05490E+04  4.74257E+04  2.01059E+04  1.72693E+04  4.66344E+04
 -1.63786E+04  3.52387E+04 -2.74992E+04  2.29020E+03 -1.09922E+04 -2.89335E+04  2.15227E+04 -3.56549E+04
  4.41540E+04 -1.14375E+04  3.88593E+04  2.47822E+04  1.99032E+04  4.99422E+04 -8.78752E+03  5.55436E+04
 -3.44648E+04  3.72776E+04 -4.66289E+04  1.12341E+04 -4.69005E+04 -1.81354E+04 -2.53694E+04 -4.12870E+04
  7.82699E+03 -4.14179E+04  3.33703E+04 -1.71789E+04  3.18852E+04  1.07924E+04  4.81320E+03  2.01779E+04
 -1.42311E+04  9.86208E+03 -1.06119E+04 -7.01098E+03  5.81049E+03 -1.14985E+04  1.80578E+04  6.15427E+03
  1.48895E+04  2.25271E+04 -5.06173E+03  2.63428E+04 -2.28408E+04  1.44801E+04 -3.12597E+04 -3.91764E+03
 -2.44413E+04 -1.78319E+04 -1.18809E+04 -2.40544E+04  4.60049E+03 -2.46419E+04  1.84222E+04 -2.22346E+04
  3.07907E+04 -1.41712E+04  3.71593E+04  4.69947E+03  2.56515E+04  2.33832E+04  4.36591E+03  4.02495E+04
 -1.90642E+04  3.29204E+04 -2.97694E+04  1.17410E+04 -2.26256E+04 -1.01946E+04 -4.72188E+03 -1.28010E+04
  9.91443E+02 -9.92762E+02 -7.00320E+03  7.88844E+03 -1.94785E+04  4.66934E+03 -2.00025E+04 -9.66813E+03
 -1.19819E+04 -2.26963E+04  5.61111E+03 -2.73566E+04  1.78942E+04 -1.86438E+04  2.21045E+04 -1.58282E+03
  1.37036E+04  1.55395E+04 -1.10202E+03  2.22565E+04 -1.58462E+04  1.20045E+04 -2.29239E+04 -5.13608E+03
 -1.66610E+04 -2.03454E+04 -2.43397E+03 -2.72417E+04  1.25918E+04 -2.22890E+04  2.22462E+04 -1.15853E+04
  2.06698E+04 -6.68600E+01  1.52732E+04  5.18334E+03  7.85323E+03  1.50889E+03  1.24971E+04 -1.58353E+03
  2.12503E+04  3.10845E+03  2.47386E+04  1.72807E+04  1.67333E+04  3.74371E+04 -3.22873E+03  4.26538E+04
 -2.47143E+04  3.61694E+04 -4.02199E+04  1.81610E+04 -4.26979E+04 -3.35210E+03 -3.41365E+04 -2.51855E+04
 -1.42619E+04 -3.51036E+04  1.25744E+04 -3.13551E+04  2.66189E+04 -1.51658E+04  2.36250E+04  8.85075E+03
  8.02546E+03  1.83912E+04 -1.06118E+04  1.43439E+04 -1.95050E+04  2.53118E+03 -1.50313E+04 -1.27387E+04
 -6.76122E+02 -1.86159E+04  9.94989E+03 -1.39036E+04  1.32643E+04 -1.39715E+03  3.63569E+03  8.39235E+03
 -7.60795E+03  3.73274E+03 -8.97739E+03 -7.08813E+03 -1.50274E+03 -1.70235E+04  1.05721E+04 -1.93583E+04
  2.19921E+04 -1.03460E+04  2.47294E+04  2.68883E+03  2.15974E+04  1.77428E+04  9.24249E+03  2.75283E+04
 -4.55809E+03  3.01720E+04 -1.93942E+04  1.82990E+04 -2.10199E+04  3.20255E+03 -1.49114E+04 -6.21379E+03
 -5.59658E+03 -5.92437E+03 -4.12591E+02  1.31573E+02 -2.45136E+03  3.32841E+03 -7.07500E+03  5.50862E+03
 -1.33096E+04 -1.78537E+03 -1.46513E+04 -1.05761E+04 -5.39226E+03 -1.92050E+04  6.58005E+03 -1.45194E+04
  1.15988E+04 -6.97762E+03  9.01704E+03  4.33585E+03  3.59448E+02  6.89782E+03 -6.77300E+03 -3.67781E+02
 -7.58783E+03 -9.25618E+03 -1.06791E+03 -1.50158E+04  9.01585E+03 -1.55582E+04  1.90639E+04 -8.50037E+03
  2.24828E+04  3.13534E+03  1.62155E+04  1.37411E+04  2.86757E+03  1.88643E+04 -9.38562E+03  1.48691E+04
 -1.26954E+04  3.74153E+03 -6.25160E+03 -3.23091E+03  1.65926E+03 -4.54520E+03  8.39707E+03 -1.48054E+03
  6.53591E+03  6.55501E+03  8.90166E+02  1.29871E+04 -8.58329E+03  1.17114E+04 -1.42556E+04  2.41991E+03
 -1.02945E+04 -7.39178E+03 -3.07551E+02 -1.30432E+04  8.24778E+03 -6.35518E+03  8.70730E+03  2.49152E+03
  2.98264E+03  1.01342E+04 -7.82510E+03  1.08086E+04 -1.24620E+04  5.62109E+03 -1.30040E+04 -4.72340E+03
 -7.75466E+03 -1.48135E+04  3.90707E+03 -1.74242E+04  1.51382E+04 -1.04819E+04  1.60155E+04  2.75000E+03
  9.46404E+03  1.36325E+04 -1.59652E+03  1.61591E+04 -1.15121E+04  8.80616E+03 -1.26154E+04 -1.75671E+03
 -1.03729E+04 -1.07387E+04 -1.40813E+03 -1.10548E+04  6.03543E+03 -9.74640E+03  7.20096E+03 -3.92285E+03
  4.24051E+03  2.34597E+03 -9.83183E+02  1.28057E+03 -6.26232E+02 -2.79769E+03  2.57464E+03 -6.65325E+03
  1.07770E+04 -4.55234E+03  1.56887E+04  1.45519E+03  1.50456E+04  1.12224E+04  9.93804E+03  1.94374E+04
 -4.82171E+03  2.30670E+04 -1.87249E+04  1.61744E+04 -2.44257E+04  2.68645E+03 -1.93562E+04 -8.43744E+03
 -9.34734E+03 -1.57076E+04  8.45454E+01 -1.39613E+04  4.63356E+03 -7.25980E+03  4.48884E+03 -5.13773E+03
  3.66113E+03 -3.10334E+03  3.75565E+03 -3.84507E+03  5.22172E+03 -3.79056E+03  8.13600E+03 -1.71770E+03
  9.25341E+03  2.05891E+03  5.81954E+03  8.62344E+03 -2.96311E+03  1.06460E+04 -1.00004E+04  8.32761E+03
 -1.39526E+04 -1.83428E+03 -9.25163E+03 -9.62676E+03 -1.27964E+03 -1.38403E+04  7.66095E+03 -1.54219E+04
  1.55400E+04 -8.16356E+03  1.89843E+04  2.68106E+03  1.24685E+04  1.30315E+04  2.28265E+03  1.64206E+04
 -6.73129E+03  1.30056E+04 -9.49215E+03  4.59688E+03 -7.03097E+03 -1.71896E+03 -2.94922E+03 -1.88658E+03
 -1.41855E+03 -1.99132E+02 -2.11456E+03  3.02469E+03 -5.83857E+03  1.77820E+03 -9.08661E+03 -1.77313E+03
 -7.05116E+03 -1.00155E+04 -1.08757E+02 -1.41498E+04  9.00397E+03 -1.32946E+04  1.37224E+04 -4.49069E+03
  1.45332E+04  7.28524E+03  7.23449E+03  1.25430E+04 -2.29446E+03  1.40958E+04 -1.04388E+04  8.97966E+03
 -1.33873E+04  1.02446E+03 -1.02882E+04 -8.87030E+03 -8.47553E+02 -1.18464E+04  6.46952E+03 -9.18793E+03
  8.87568E+03 -3.36555E+03  5.48062E+03  1.84660E+03  2.10536E+03  4.44377E+03  1.33544E+03  2.26823E+03
  2.95097E+03  5.12882E+02  3.89347E+03  1.69585E+03  4.28763E+03  4.58803E+03  3.28201E+03  7.14444E+03
 -2.98270E+03  1.12393E+04 -1.01873E+04  1.08268E+04 -1.43750E+04  2.66757E+03 -1.62749E+04 -5.76221E+03
 -6.61008E+03 -1.37860E+04  2.02064E+03 -1.54653E+04  8.46654E+03 -9.90063E+03  1.10667E+04 -2.64537E+03
  8.80465E+03  5.34023E+03  2.09339E+03  8.73678E+03 -3.86236E+03  5.06662E+03 -6.45698E+03 -5.39804E+02
 -2.66192E+03 -6.21513E+03  3.02160E+03 -6.04223E+03  6.60612E+03 -3.63768E+03  5.52806E+03  1.12087E+03
  3.31146E+03  2.33177E+03  1.68205E+03  2.72916E+03 -5.43877E+02  1.15311E+03  1.75487E+03 -8.96610E+02
  2.54159E+03 -9.58420E+02  6.20182E+03  2.08980E+03  3.70766E+03  7.58476E+03 -1.50829E+03  1.05524E+04
 -7.05531E+03  6.24479E+03 -8.81401E+03  1.60418E+03 -7.37478E+03 -2.96558E+03 -3.20159E+03 -5.48796E+03
  1.47643E+03 -6.09098E+03  4.54873E+03 -2.61662E+03  3.28293E+03  2.82572E+03 -1.31962E+03  4.57877E+03
 -6.35307E+03  3.44556E+03 -6.81641E+03 -4.05678E+03 -3.25909E+03 -7.76548E+03  1.40753E+03 -7.20531E+03
  4.38429E+03 -5.32120E+03  5.17164E+03 -1.08920E+03  5.16736E+03  2.43509E+03  1.22404E+03  4.30560E+03
 -2.76523E+03  6.48497E+02 -3.91508E+03 -2.85551E+03  1.36159E+03 -6.73883E+03  7.67265E+03 -4.90752E+03
  8.66545E+03  1.00497E+03  8.59765E+03  6.52885E+03  2.62043E+03  8.94905E+03 -3.43063E+03  8.79911E+03
 -7.78925E+03  4.38684E+03 -7.97327E+03 -1.39965E+03 -4.71561E+03 -6.24439E+03  1.51973E+03 -5.43794E+03
  6.26537E+03 -3.50230E+03  4.74668E+03  2.88390E+03  1.85079E+03  5.74772E+03 -8.99343E+02  3.99674E+03
 -2.34337E+03  2.23937E+03 -2.80061E+03  9.89183E+02 -1.58170E+03  1.04584E+03 -2.20378E+03  2.12697E+03
 -2.62994E+03  2.77070E+03 -6.74660E+03  3.25754E+03 -9.06005E+03 -5.54697E+01 -1.02348E+04 -5.88007E+03
 -5.69859E+03 -1.18523E+04  1.73659E+03 -1.46951E+04  9.17789E+03 -1.06045E+04  1.38126E+04 -4.25424E+03
  1.21809E+04  2.85871E+03  7.00499E+03  7.57485E+03  9.80589E+02  9.17635E+03 -3.72801E+03  7.53139E+03
 -4.55309E+03  3.00188E+03 -3.02139E+03 -1.48582E+03 -1.54099E+03 -4.30638E+02 -1.07579E+03  5.19163E+02
 -1.41693E+03  5.76647E+01 -1.96476E+03 -7.97101E+02 -3.57522E+02 -1.72480E+03  4.49055E+02 -3.42131E+03
  4.71421E+03 -4.05857E+03  5.72521E+03 -5.22770E+02  7.32587E+03  5.41134E+03  1.58477E+03  1.01101E+04
 -4.25124E+03  1.21377E+04 -9.65507E+03  6.29878E+03 -1.22354E+04 -1.62211E+03 -9.49795E+03 -7.22672E+03
 -3.44332E+03 -1.01415E+04  2.72214E+03 -9.29161E+03  5.32570E+03 -4.92042E+03  6.59339E+03  3.97452E+01
  3.61030E+03  3.74377E+03 -7.05060E+01  2.28553E+03 -2.12196E+03  2.76662E+02 -2.89704E+02 -2.29389E+03
  3.24879E+03 -5.86215E+02  3.43332E+03  1.31901E+03  2.80230E+03  3.49492E+03 -1.45158E+02  5.21364E+03
 -3.92273E+03  4.80359E+03 -6.52340E+03  7.20356E+02 -6.04279E+03 -5.39954E+03 -1.92895E+03 -9.15776E+03
  4.98327E+03 -6.96927E+03  7.81041E+03 -2.43281E+03  6.93853E+03  9.07785E+02  4.35656E+03  5.77179E+03
  1.03896E+03  7.15456E+03 -2.08707E+03  3.92738E+03 -3.80929E+03  3.11138E+03 -4.34205E+03  7.95192E+02
 -2.37579E+03  2.67226E+02 -2.96355E+02  7.16294E+02 -3.87570E+03  1.62855E+03 -5.30573E+03 -1.78950E+03
 -5.14065E+03 -3.70360E+03 -1.79155E+03 -6.31712E+03  3.74420E+03 -6.87769E+03  6.35093E+03 -3.46792E+03
  8.00337E+03  1.38458E+03  3.63517E+03  4.64309E+03 -6.72004E+02  7.00007E+03 -4.38679E+03  4.14170E+03
