 $NMID ID='MM_0lb_SNR400_7hz_g55_69.RAW', FMTDAT='(8E13.5)'
 TRAMP=1., VOLUME=1. $END
  3.10657E+05 -2.05551E+02  3.37916E+05  2.51996E+05  8.62841E+04  3.38419E+05 -1.33082E+05  2.52860E+05
 -1.91410E+05  8.44282E+04 -1.13126E+05 -3.20512E+04  2.01450E+00 -4.92616E+04  5.46368E+04 -4.21002E+02
  3.51411E+04  5.25652E+04 -1.66148E+04  7.62066E+04 -6.21355E+04  6.28332E+04 -8.54732E+04  3.23565E+04
 -8.26519E+04 -1.22834E+04 -5.81094E+04 -5.30135E+04 -1.40861E+04 -7.16342E+04  2.79796E+04 -4.76445E+04
  4.20543E+04  3.51557E+03  1.75419E+04  4.92506E+04 -3.46634E+04  4.80539E+04 -6.88910E+04  2.78513E+02
 -5.46176E+04 -5.81510E+04 -6.98705E+03 -7.99515E+04  3.54572E+04 -5.75632E+04  5.04343E+04 -1.79478E+04
  4.57610E+04  1.12317E+04  3.33096E+04  2.74760E+04  1.56842E+04  3.13937E+04 -6.42780E+03  2.72590E+04
 -2.35697E+04  1.21121E+04 -1.81350E+04 -5.35251E+03  7.89559E+03 -6.80946E+03  2.37548E+04  1.41375E+04
  7.09342E+03  3.81205E+04 -3.54013E+04  3.81098E+04 -6.72180E+04  2.12416E+03 -5.97360E+04 -4.58838E+04
 -1.35304E+04 -6.62429E+04  4.28268E+04 -4.86240E+04  6.23443E+04 -1.43278E+03  3.75165E+04  3.54995E+04
 -4.94204E+03  4.03965E+04 -3.16969E+04  2.02018E+04 -3.45832E+04 -2.95385E+03 -2.12647E+04 -1.22726E+04
 -1.02175E+04 -1.60555E+04 -6.39018E+02 -1.97361E+04  8.69034E+03 -2.46054E+04  1.60890E+04 -1.24185E+04
  1.09125E+04  6.74461E+03 -1.02439E+04  1.22877E+04 -2.43601E+04 -7.32385E+03 -9.67964E+03 -3.92867E+04
  2.67218E+04 -4.81458E+04  5.51293E+04 -2.12947E+04  5.04313E+04  2.16008E+04  1.76329E+04  4.80389E+04
 -1.69680E+04  3.74297E+04 -2.95673E+04  2.98042E+03 -1.22179E+04 -3.04261E+04  2.15216E+04 -3.88745E+04
  4.71399E+04 -1.12720E+04  4.27467E+04  2.64530E+04  2.22297E+04  5.30990E+04 -8.01435E+03  5.96737E+04
 -3.70772E+04  4.05197E+04 -4.97630E+04  1.14118E+04 -4.93652E+04 -2.00749E+04 -2.80977E+04 -4.47574E+04
  8.65111E+03 -4.48728E+04  3.44062E+04 -1.79168E+04  3.31022E+04  1.16218E+04  6.08519E+03  2.12288E+04
 -1.35870E+04  9.93880E+03 -1.13757E+04 -7.29209E+03  5.14216E+03 -1.16578E+04  1.91608E+04  5.11026E+03
  1.58879E+04  2.24902E+04 -5.31235E+03  2.82730E+04 -2.46887E+04  1.54424E+04 -3.35256E+04 -1.51722E+03
 -2.75635E+04 -1.99111E+04 -1.29403E+04 -2.77682E+04  4.65207E+03 -2.85313E+04  2.19600E+04 -2.49770E+04
  3.51428E+04 -1.42602E+04  4.12715E+04  6.72307E+03  2.82824E+04  2.63817E+04  4.06627E+03  4.47262E+04
 -2.05280E+04  3.50112E+04 -3.13163E+04  1.24886E+04 -2.29995E+04 -1.06212E+04 -5.65898E+03 -1.20788E+04
  5.35250E-02  3.56685E+02 -8.40104E+03  9.41325E+03 -2.34343E+04  4.96915E+03 -2.18507E+04 -1.09069E+04
 -1.27655E+04 -2.60485E+04  6.50813E+03 -2.96813E+04  2.05181E+04 -2.01906E+04  2.49677E+04 -1.50056E+03
  1.58722E+04  1.78964E+04 -1.72632E+03  2.45892E+04 -1.86691E+04  1.39808E+04 -2.65022E+04 -5.47316E+03
 -1.95053E+04 -2.20128E+04 -2.74202E+03 -3.15028E+04  1.40171E+04 -2.65691E+04  2.56951E+04 -1.37763E+04
  2.48053E+04 -3.00154E+02  1.76042E+04  6.72771E+03  1.02278E+04  2.55262E+03  1.43924E+04 -2.85974E+03
  2.48364E+04  2.82466E+03  2.89510E+04  1.90063E+04  1.96064E+04  4.14131E+04 -1.14294E+03  4.97703E+04
 -2.80360E+04  4.20645E+04 -4.75409E+04  2.21585E+04 -5.10679E+04 -2.96136E+03 -4.06621E+04 -3.02240E+04
 -1.61738E+04 -4.20415E+04  1.53003E+04 -3.72016E+04  3.12577E+04 -1.64066E+04  2.70537E+04  9.34891E+03
  9.30497E+03  2.10908E+04 -1.31255E+04  1.75888E+04 -2.18988E+04  2.62260E+03 -1.65643E+04 -1.44612E+04
 -3.07789E+02 -2.16058E+04  1.19052E+04 -1.59328E+04  1.44356E+04 -1.11630E+03  3.51066E+03  9.75497E+03
 -9.17077E+03  4.76527E+03 -1.08739E+04 -7.56910E+03 -3.15644E+03 -2.05488E+04  1.40688E+04 -2.28230E+04
  2.73878E+04 -1.30455E+04  3.09747E+04  4.02384E+03  2.77618E+04  2.26002E+04  1.22240E+04  3.36979E+04
 -6.31498E+03  3.61556E+04 -2.40091E+04  2.14782E+04 -2.66501E+04  4.70569E+03 -1.79449E+04 -7.21141E+03
 -6.60098E+03 -7.67516E+03 -9.11269E+02 -3.46534E+02 -3.54804E+03  4.34922E+03 -7.87852E+03  5.48588E+03
 -1.58823E+04 -9.60680E+02 -1.60189E+04 -1.33178E+04 -6.92694E+03 -2.25443E+04  7.82172E+03 -1.86100E+04
  1.51561E+04 -7.92650E+03  1.01998E+04  5.20252E+03  3.62184E+02  7.69697E+03 -9.52455E+03 -1.60959E+03
 -9.25974E+03 -1.14840E+04 -6.07154E+02 -1.88287E+04  1.05991E+04 -1.87189E+04  2.36707E+04 -1.00500E+04
  2.75766E+04  2.40306E+03  2.03209E+04  1.80138E+04  3.75818E+03  2.21698E+04 -1.13507E+04  1.68767E+04
 -1.47292E+04  4.34411E+03 -8.18301E+03 -4.45936E+03  1.92595E+03 -5.31195E+03  9.65116E+03 -5.92039E+02
  9.33573E+03  8.56540E+03  1.46549E+03  1.48093E+04 -1.06214E+04  1.42937E+04 -1.80216E+04  3.49747E+03
 -1.28979E+04 -1.05821E+04 -3.35781E+02 -1.58129E+04  1.04998E+04 -7.61052E+03  1.14359E+04  4.68917E+03
  3.29932E+03  1.36971E+04 -1.01966E+04  1.39417E+04 -1.59492E+04  6.88073E+03 -1.67727E+04 -6.74834E+03
 -9.73851E+03 -2.06778E+04  5.72195E+03 -2.16364E+04  1.84993E+04 -1.34205E+04  2.05633E+04  2.92852E+03
  1.22159E+04  1.54047E+04 -2.35582E+03  1.76371E+04 -1.33485E+04  9.65872E+03 -1.59938E+04 -2.12568E+03
 -1.25172E+04 -1.28933E+04 -1.59394E+03 -1.51018E+04  9.21411E+03 -1.14525E+04  9.33499E+03 -3.37756E+03
  6.40020E+03  2.95556E+03 -6.15334E+02  2.12036E+03 -2.02225E+03 -4.46317E+03  3.42231E+03 -9.15716E+03
  1.28575E+04 -5.85424E+03  1.99056E+04  2.28126E+03  1.89986E+04  1.42852E+04  1.14196E+04  2.61085E+04
 -5.82707E+03  3.06211E+04 -2.43979E+04  2.17796E+04 -3.26321E+04  4.88811E+03 -2.60280E+04 -1.18884E+04
 -1.22834E+04 -2.05671E+04 -8.96710E+02 -1.82113E+04  6.53958E+03 -1.03789E+04  7.04404E+03 -5.70907E+03
  4.96203E+03 -4.55863E+03  3.79634E+03 -5.03522E+03  6.47552E+03 -3.96836E+03  9.82699E+03 -2.33221E+03
  1.32603E+04  3.20003E+03  7.58273E+03  1.11198E+04 -2.48021E+03  1.43124E+04 -1.34978E+04  1.09195E+04
 -1.90058E+04 -4.98475E+02 -1.19279E+04 -1.35709E+04 -1.75910E+03 -2.09456E+04  1.04842E+04 -1.97633E+04
  2.12974E+04 -1.16482E+04  2.54758E+04  2.45052E+03  1.68885E+04  1.80201E+04  2.18345E+03  2.26823E+04
 -1.00001E+04  1.76470E+04 -1.34173E+04  5.81453E+03 -1.00340E+04 -2.52861E+03 -3.48263E+03 -2.88291E+03
 -1.62382E+03 -3.34442E+02 -1.73321E+03  3.89790E+03 -8.36126E+03  2.79853E+03 -1.15175E+04 -2.76468E+03
 -8.94733E+03 -1.20040E+04 -5.34434E+02 -1.92933E+04  1.22729E+04 -1.77782E+04  1.91234E+04 -5.56706E+03
  1.80731E+04  8.30635E+03  8.74604E+03  1.69522E+04 -3.99670E+03  1.94578E+04 -1.51147E+04  1.22730E+04
 -1.83531E+04 -7.87973E+02 -1.34548E+04 -1.22994E+04 -2.24991E+03 -1.58206E+04  8.96995E+03 -1.19368E+04
  1.15554E+04 -4.01507E+03  8.57850E+03  2.89923E+03  3.44227E+03  4.69736E+03  2.05983E+03  1.94277E+03
  2.54589E+03  1.29597E+03  3.98716E+03  1.68951E+03  5.78786E+03  6.67553E+03  4.88047E+03  1.07331E+04
 -4.55644E+03  1.67713E+04 -1.40443E+04  1.41472E+04 -2.00474E+04  4.27181E+03 -2.04768E+04 -8.52628E+03
 -1.00636E+04 -1.97087E+04  3.38774E+03 -2.11845E+04  1.19617E+04 -1.55600E+04  1.71768E+04 -2.37139E+03
  1.37456E+04  8.47849E+03  2.42276E+03  1.07130E+04 -6.61150E+03  7.81523E+03 -8.33899E+03 -1.16970E+03
 -4.36534E+03 -8.67845E+03  4.45337E+03 -8.92506E+03  8.02004E+03 -4.72074E+03  8.12341E+03  1.69743E+03
  5.61318E+03  4.81909E+03  1.59619E+03  4.53990E+03 -1.31329E+03  2.63596E+03  2.41510E+03 -4.98137E+02
  3.70099E+03 -1.93444E+03  7.60028E+03  2.28054E+03  5.18717E+03  1.07233E+04 -1.12939E+03  1.39848E+04
 -1.07183E+04  9.60680E+03 -1.28742E+04  2.64164E+03 -1.11271E+04 -5.06374E+03 -5.10895E+03 -8.23345E+03
  9.55634E+02 -8.80931E+03  6.01979E+03 -3.82780E+03  4.57451E+03  3.89930E+03 -1.71060E+03  6.86154E+03
 -8.98048E+03  4.52575E+03 -1.04934E+04 -5.79490E+03 -5.34389E+03 -1.11953E+04  1.37774E+03 -1.08367E+04
  7.27208E+03 -6.73865E+03  8.84045E+03 -1.35742E+03  7.18473E+03  3.58220E+03  8.68247E+02  6.14185E+03
 -4.30745E+03  2.33181E+03 -6.24814E+03 -3.60751E+03  1.41762E+03 -9.90393E+03  9.62573E+03 -7.60195E+03
  1.32130E+04  7.60265E+02  1.23467E+04  1.02756E+04  4.53645E+03  1.50493E+04 -5.21055E+03  1.40908E+04
 -1.11434E+04  5.87683E+03 -1.16386E+04 -1.84246E+03 -5.86014E+03 -9.16418E+03  2.12140E+03 -9.60262E+03
  8.17632E+03 -4.13354E+03  8.04384E+03  3.60102E+03  3.18698E+03  6.92784E+03 -1.28529E+03  6.29608E+03
 -3.32742E+03  4.42447E+03 -3.29605E+03  1.65919E+03 -2.56587E+03  1.14083E+03 -1.44004E+03  2.94383E+03
 -3.35603E+03  5.23848E+03 -9.03222E+03  5.42621E+03 -1.43994E+04 -1.14236E+02 -1.61546E+04 -1.01432E+04
 -8.58617E+03 -1.94478E+04  2.91874E+03 -2.22436E+04  1.42706E+04 -1.73765E+04  2.12660E+04 -6.66571E+03
  1.95955E+04  4.28225E+03  1.26434E+04  1.28142E+04  2.22967E+03  1.64069E+04 -5.66481E+03  1.13518E+04
 -9.35885E+03  4.82089E+03 -6.46585E+03 -1.77225E+03 -9.50018E+02 -1.29545E+03 -1.28343E+03  5.42727E+02
 -2.51634E+03  9.41331E+02 -3.06069E+03 -1.42740E+03 -1.33400E+03 -3.74813E+03  3.14807E+02 -6.34552E+03
  7.21960E+03 -4.75007E+03  8.86830E+03  1.55765E+02  1.15155E+04  7.89020E+03  3.40565E+03  1.58530E+04
 -7.46306E+03  1.79447E+04 -1.58383E+04  9.75456E+03 -1.87915E+04 -1.83419E+03 -1.45982E+04 -1.15894E+04
 -5.86533E+03 -1.60457E+04  3.20528E+03 -1.45531E+04  1.05137E+04 -8.32412E+03  1.09822E+04  7.37059E+01
  6.08549E+03  4.92099E+03 -8.45839E+02  4.40354E+03 -2.33771E+03 -2.90933E+02  1.03112E+02 -3.72579E+03
  5.96244E+03 -1.82037E+03  6.99528E+03  1.52993E+03  4.61949E+03  6.33544E+03 -4.19753E+02  8.67001E+03
 -7.05904E+03  7.46804E+03 -1.08585E+04 -5.06176E+02 -9.33794E+03 -8.45132E+03 -1.50100E+03 -1.35043E+04
  8.38327E+03 -1.09680E+04  1.38146E+04 -3.48979E+03  1.23311E+04  3.93127E+03  8.09454E+03  1.02353E+04
  1.34141E+03  1.05350E+04 -4.06689E+03  7.86162E+03 -5.99371E+03  5.35961E+03 -5.50697E+03  3.35685E+02
 -2.63181E+03  6.47096E+02 -3.30994E+03  1.35197E+03 -5.64595E+03  1.81537E+03 -8.69282E+03 -1.04249E+03
 -8.09201E+03 -6.15201E+03 -2.08345E+03 -1.01173E+04  4.56374E+03 -1.11340E+04  9.37128E+03 -6.07847E+03
  1.12763E+04  1.28279E+03  6.94229E+03  7.24025E+03 -1.17084E+02  1.12395E+04 -8.78661E+03  7.23162E+03
