 $NMID ID='MM_0lb_SNR400_10hz_g45_100.RAW', FMTDAT='(8E13.5)'
 TRAMP=1., VOLUME=1. $END
  3.09915E+05  4.97989E+02  3.38095E+05  2.50670E+05  8.49922E+04  3.38892E+05 -1.32773E+05  2.51782E+05
 -1.90978E+05  8.36041E+04 -1.12424E+05 -3.27362E+04  5.26807E+02 -5.11567E+04  5.40514E+04  4.62169E+02
  3.58912E+04  5.31699E+04 -1.67117E+04  7.59256E+04 -6.03296E+04  6.39188E+04 -8.48087E+04  3.32530E+04
 -8.22432E+04 -1.21044E+04 -5.76114E+04 -5.26407E+04 -1.51462E+04 -7.02280E+04  2.85086E+04 -4.69790E+04
  4.10650E+04  2.91693E+03  1.55298E+04  4.82229E+04 -3.41773E+04  4.83049E+04 -6.79307E+04  1.15741E+03
 -5.36815E+04 -5.65570E+04 -7.00628E+03 -7.84557E+04  3.50160E+04 -5.59880E+04  4.89825E+04 -1.81332E+04
  4.51062E+04  1.19945E+04  3.24043E+04  2.67500E+04  1.59620E+04  3.05187E+04 -5.76601E+03  2.76275E+04
 -2.23370E+04  1.15910E+04 -1.85542E+04 -5.71127E+03  6.44679E+03 -7.25649E+03  2.34004E+04  1.36049E+04
  6.94863E+03  3.65933E+04 -3.24077E+04  3.63501E+04 -6.39644E+04  2.70230E+03 -5.85595E+04 -4.33837E+04
 -1.24276E+04 -6.46531E+04  4.09131E+04 -4.64418E+04  6.00365E+04 -2.06789E+03  3.62532E+04  3.35835E+04
 -5.75824E+03  3.83261E+04 -3.14533E+04  1.80126E+04 -3.22585E+04 -3.57869E+03 -1.92238E+04 -1.20225E+04
 -9.19695E+03 -1.49275E+04 -5.10034E+02 -1.92657E+04  8.10092E+03 -2.32017E+04  1.57572E+04 -1.33788E+04
  1.12861E+04  5.05365E+03 -9.76200E+03  1.28811E+04 -2.22416E+04 -5.81694E+03 -8.19734E+03 -3.66803E+04
  2.39634E+04 -4.60595E+04  5.07467E+04 -2.08190E+04  4.74883E+04  2.11508E+04  1.60022E+04  4.69031E+04
 -1.61772E+04  3.47128E+04 -2.67569E+04  1.94819E+03 -1.03219E+04 -2.94311E+04  2.06270E+04 -3.61553E+04
  4.39730E+04 -1.01898E+04  3.90356E+04  2.43578E+04  2.05417E+04  5.00156E+04 -8.34045E+03  5.43519E+04
 -3.44089E+04  3.70133E+04 -4.61004E+04  1.05056E+04 -4.58043E+04 -1.76701E+04 -2.52742E+04 -4.05435E+04
  7.56690E+03 -4.00484E+04  3.29807E+04 -1.65879E+04  3.14712E+04  1.10768E+04  5.16014E+03  2.07478E+04
 -1.37384E+04  7.78465E+03 -1.07558E+04 -6.99149E+03  5.83118E+03 -1.18991E+04  1.87169E+04  5.97570E+03
  1.40316E+04  2.20690E+04 -5.34096E+03  2.66642E+04 -2.34237E+04  1.36968E+04 -3.04664E+04 -3.46585E+03
 -2.33096E+04 -1.85177E+04 -1.06738E+04 -2.38124E+04  3.78679E+03 -2.45108E+04  1.79565E+04 -2.18163E+04
  3.05168E+04 -1.42160E+04  3.59121E+04  3.89521E+03  2.54152E+04  2.30862E+04  3.77937E+03  3.98972E+04
 -1.94086E+04  3.31021E+04 -3.00067E+04  1.02067E+04 -2.20785E+04 -1.05032E+04 -4.92307E+03 -1.29167E+04
  1.10870E+03 -9.02084E+02 -6.64694E+03  7.71263E+03 -1.91751E+04  5.26061E+03 -1.86701E+04 -8.63132E+03
 -1.08845E+04 -2.18976E+04  5.80505E+03 -2.71255E+04  1.70419E+04 -1.90551E+04  2.13321E+04 -2.07009E+03
  1.30796E+04  1.44334E+04 -1.34927E+03  2.21141E+04 -1.53777E+04  1.28482E+04 -2.28338E+04 -4.62533E+03
 -1.60248E+04 -2.01259E+04 -2.51709E+03 -2.62254E+04  1.12835E+04 -2.21773E+04  2.07910E+04 -1.14718E+04
  2.02609E+04 -6.28594E+02  1.49985E+04  5.06535E+03  8.18633E+03  1.53275E+03  1.17844E+04 -1.92362E+03
  2.04326E+04  2.70621E+03  2.38462E+04  1.74157E+04  1.58742E+04  3.54717E+04 -3.50421E+03  4.03971E+04
 -2.38823E+04  3.42201E+04 -3.85535E+04  1.72163E+04 -4.07345E+04 -3.22923E+03 -3.39053E+04 -2.42791E+04
 -1.40532E+04 -3.42243E+04  1.16627E+04 -3.06093E+04  2.54487E+04 -1.43805E+04  2.21021E+04  6.35590E+03
  8.50008E+03  1.69477E+04 -1.08660E+04  1.51138E+04 -1.89295E+04  2.85455E+03 -1.49115E+04 -1.18792E+04
 -4.95214E+02 -1.85347E+04  9.94642E+03 -1.32378E+04  1.22970E+04 -1.04571E+03  2.18290E+03  8.01784E+03
 -8.61788E+03  3.80236E+03 -7.86018E+03 -7.14102E+03 -1.40284E+03 -1.65659E+04  1.12144E+04 -1.87839E+04
  2.12011E+04 -1.02054E+04  2.32291E+04  3.47571E+03  2.00967E+04  1.61162E+04  1.01355E+04  2.64262E+04
 -4.94466E+03  2.80540E+04 -1.77337E+04  1.76747E+04 -2.09855E+04  3.74847E+03 -1.40893E+04 -5.01805E+03
 -6.10914E+03 -6.49555E+03 -1.04918E+03  1.01331E+03 -2.88577E+03  3.17695E+03 -6.71831E+03  5.51986E+03
 -1.25732E+04 -8.98741E+02 -1.40129E+04 -1.03992E+04 -5.54025E+03 -1.72037E+04  5.99891E+03 -1.44759E+04
  1.10588E+04 -6.30693E+03  8.58955E+03  3.81666E+03 -5.14631E+02  5.95683E+03 -7.21313E+03 -2.89580E+02
 -6.44640E+03 -8.92685E+03 -3.79974E+02 -1.43097E+04  8.82897E+03 -1.45254E+04  1.82143E+04 -7.26044E+03
  2.10231E+04  2.09440E+03  1.59520E+04  1.23521E+04  3.42347E+03  1.68843E+04 -8.31445E+03  1.49036E+04
 -1.12999E+04  4.58664E+03 -5.64498E+03 -2.53440E+03  2.90306E+03 -3.54580E+03  7.49981E+03 -8.65913E+02
  6.25256E+03  6.55625E+03  7.90451E+02  1.13793E+04 -8.42775E+03  1.19747E+04 -1.39991E+04  2.17996E+03
 -9.68540E+03 -7.24624E+03  8.61988E+02 -1.18739E+04  8.08702E+03 -6.36697E+03  8.27612E+03  3.29672E+03
  1.94576E+03  9.00120E+03 -8.25847E+03  1.06616E+04 -1.18514E+04  4.65079E+03 -1.27016E+04 -4.82385E+03
 -6.82285E+03 -1.44445E+04  3.05084E+03 -1.60293E+04  1.36010E+04 -9.42213E+03  1.49814E+04  2.24381E+03
  8.88937E+03  1.16836E+04 -6.66140E+02  1.42278E+04 -1.03673E+04  8.03170E+03 -1.09432E+04 -2.01533E+03
 -1.01131E+04 -9.63280E+03 -1.24871E+03 -1.04015E+04  5.79903E+03 -9.19845E+03  6.49649E+03 -3.79085E+03
  4.44059E+03  1.32313E+03 -1.23073E+03  2.05825E+03 -2.57119E+02 -2.74988E+03  2.16910E+03 -5.82674E+03
  9.68346E+03 -4.14555E+03  1.35239E+04  1.55353E+03  1.40977E+04  9.47756E+03  9.13608E+03  1.85949E+04
 -5.10765E+03  2.12547E+04 -1.76217E+04  1.54699E+04 -2.27819E+04  2.64364E+03 -1.84248E+04 -8.12649E+03
 -8.95503E+03 -1.49459E+04  1.33173E+02 -1.30293E+04  4.21706E+03 -7.53803E+03  3.84863E+03 -5.02883E+03
  3.14637E+03 -2.96876E+03  3.20970E+03 -4.04834E+03  5.22677E+03 -3.27055E+03  6.77018E+03 -1.40071E+03
  9.93328E+03  2.12942E+03  5.59311E+03  7.78481E+03 -1.87147E+03  9.07955E+03 -9.60083E+03  6.85629E+03
 -1.31174E+04 -9.19983E+02 -8.19327E+03 -9.35026E+03 -1.35594E+01 -1.41240E+04  8.34416E+03 -1.34044E+04
  1.41073E+04 -7.44665E+03  1.68832E+04  2.20092E+03  1.16524E+04  1.19600E+04  1.60765E+03  1.58954E+04
 -7.27654E+03  1.30062E+04 -8.54344E+03  4.66446E+03 -5.90357E+03 -8.37733E+02 -2.54056E+03 -2.22612E+03
 -1.14621E+03  1.65646E+02 -1.64847E+03  2.13480E+03 -5.90937E+03  2.67385E+03 -9.25251E+03 -1.35919E+03
 -6.63843E+03 -8.69228E+03  5.63295E+02 -1.24363E+04  8.14929E+03 -1.17666E+04  1.24441E+04 -3.06389E+03
  1.22047E+04  6.18728E+03  5.64407E+03  1.19001E+04 -2.04685E+03  1.25977E+04 -8.38608E+03  7.55727E+03
 -1.31386E+04  2.69818E+02 -9.41855E+03 -8.20622E+03 -8.66709E+02 -1.07994E+04  5.30655E+03 -8.71340E+03
  7.45644E+03 -1.87961E+03  5.42854E+03  1.38447E+03  1.85569E+03  3.70174E+03  7.71407E+02  1.73945E+03
  2.97975E+03  1.04412E+03  3.06901E+03  2.16791E+03  3.60640E+03  5.05177E+03  3.10537E+03  7.03273E+03
 -3.07500E+03  1.05038E+04 -9.15082E+03  9.65251E+03 -1.32370E+04  2.21856E+03 -1.38304E+04 -4.78288E+03
 -6.38718E+03 -1.26881E+04  2.00572E+03 -1.44344E+04  7.45675E+03 -9.92686E+03  1.05875E+04 -3.03370E+03
  8.27256E+03  4.96509E+03  1.82234E+03  7.57517E+03 -3.32338E+03  4.90150E+03 -5.04068E+03 -1.44633E+03
 -2.08157E+03 -5.69270E+03  3.07521E+03 -5.86887E+03  5.36202E+03 -2.36372E+03  5.84561E+03  4.39821E+02
  3.27541E+03  2.64107E+03  1.21733E+03  1.50432E+03 -8.28009E+02  1.96422E+03  1.84155E+03 -4.91764E+02
  2.17442E+03 -1.44981E+01  5.85348E+03  2.25198E+03  2.18151E+03  8.00775E+03 -1.43856E+03  9.73377E+03
 -6.25085E+03  5.90567E+03 -7.79330E+03  1.77250E+03 -6.99773E+03 -2.80745E+03 -2.97762E+03 -5.15489E+03
 -2.23989E+02 -4.90958E+03  4.12217E+03 -3.16797E+03  2.63972E+03  2.51136E+03 -1.62188E+03  4.07034E+03
 -5.65306E+03  2.83760E+03 -5.60176E+03 -2.91181E+03 -4.38152E+03 -7.10886E+03  1.17243E+03 -7.15256E+03
  4.66809E+03 -4.85994E+03  5.53585E+03 -6.11514E+02  4.80590E+03  1.97549E+03  3.98401E+02  3.41383E+03
 -2.52859E+03  1.19001E+03 -2.66497E+03 -2.04047E+03  1.05829E+03 -4.77568E+03  7.01270E+03 -5.26239E+03
  8.02889E+03  4.56828E+02  7.80481E+03  5.35817E+03  2.75274E+03  8.91069E+03 -2.96648E+03  7.81502E+03
 -6.89834E+03  2.99693E+03 -6.92528E+03 -1.57382E+03 -4.37993E+03 -5.68160E+03  1.88422E+03 -5.24865E+03
  4.72663E+03 -3.00623E+03  4.28116E+03  1.87438E+03  1.81664E+03  4.58069E+03 -7.66901E+02  4.35620E+03
 -2.17008E+03  2.30172E+03 -1.72997E+03  7.89138E+02 -1.18259E+03  9.17707E+02 -1.06096E+03  1.78768E+03
 -1.75222E+03  3.60664E+03 -5.13270E+03  2.71171E+03 -8.59735E+03  1.04982E+02 -8.95214E+03 -6.21102E+03
 -5.18904E+03 -1.12867E+04  2.28630E+03 -1.24606E+04  8.53661E+03 -9.63436E+03  1.26015E+04 -3.98892E+03
  1.10611E+04  2.14743E+03  6.19038E+03  6.85292E+03  8.66254E+02  8.27173E+03 -3.69299E+03  6.15726E+03
 -5.13848E+03  2.97474E+03 -3.11886E+03 -1.68148E+03 -3.29845E+02 -9.23596E+02 -6.58592E+02 -6.42792E+02
 -1.12123E+03  8.48061E+02 -2.93433E+03 -1.00970E+02 -5.87149E+01 -2.09218E+03  2.87245E+02 -2.97987E+03
  3.79543E+03 -1.52602E+03  4.97370E+03  1.19361E+02  5.86704E+03  4.46236E+03  1.62120E+03  7.81327E+03
 -4.68648E+03  1.00291E+04 -9.29413E+03  5.91100E+03 -1.03465E+04 -9.69009E+02 -7.43266E+03 -6.42674E+03
 -3.45831E+03 -8.19116E+03  2.69324E+03 -6.93016E+03  5.52088E+03 -3.97862E+03  5.53578E+03  6.72971E+02
  3.17722E+03  2.89160E+03 -1.10086E+02  2.86958E+03 -1.33553E+03 -1.49755E+02  1.07040E+02 -2.51035E+03
  2.44180E+03 -1.10924E+03  3.13401E+03  1.60628E+03  1.86158E+03  4.03674E+03 -4.47548E+02  3.74066E+03
 -4.04724E+03  3.95547E+03 -6.10345E+03 -2.01249E+02 -4.44274E+03 -4.62290E+03 -1.33821E+03 -7.44031E+03
  4.54780E+03 -5.67990E+03  6.44540E+03 -1.53762E+03  6.43245E+03  1.84935E+03  4.05626E+03  5.14702E+03
  1.19433E+03  5.89977E+03 -2.52365E+03  4.50493E+03 -4.13984E+03  3.06213E+03 -2.95419E+03  2.45947E+02
 -1.73367E+03  2.92488E+02 -1.14044E+03  3.87341E+02 -3.73525E+03  4.57055E+02 -4.61772E+03 -1.03141E+03
 -4.42349E+03 -2.41440E+03 -1.61077E+03 -5.78465E+03  2.47736E+03 -6.01888E+03  5.32662E+03 -2.69921E+03
  5.42453E+03  5.02715E+02  2.63890E+03  4.02051E+03 -5.04946E+02  5.32886E+03 -3.93385E+03  3.48305E+03
