 $NMID ID='MM_0lb_SNR400_14hz_g55_63.RAW', FMTDAT='(8E13.5)'
 TRAMP=1., VOLUME=1. $END
  3.09675E+05  3.25161E+02  3.38610E+05  2.50729E+05  8.51543E+04  3.37628E+05 -1.32195E+05  2.51570E+05
 -1.89920E+05  8.38219E+04 -1.11409E+05 -3.22235E+04  6.33248E+02 -5.06134E+04  5.30299E+04  2.35386E+02
  3.45558E+04  5.29297E+04 -1.65750E+04  7.55250E+04 -6.10902E+04  6.39040E+04 -8.44542E+04  3.23308E+04
 -8.19190E+04 -1.10577E+04 -5.78266E+04 -5.13525E+04 -1.52216E+04 -6.96578E+04  2.76210E+04 -4.53232E+04
  4.02608E+04  4.03542E+03  1.65004E+04  4.78914E+04 -3.49388E+04  4.77913E+04 -6.68577E+04 -6.79721E+02
 -5.39749E+04 -5.65896E+04 -7.07697E+03 -7.72298E+04  3.38668E+04 -5.54225E+04  4.81658E+04 -1.77541E+04
  4.43840E+04  1.10867E+04  3.15029E+04  2.58486E+04  1.57103E+04  2.96579E+04 -4.74341E+03  2.74209E+04
 -2.10763E+04  1.19436E+04 -1.80199E+04 -5.09956E+03  6.14460E+03 -7.75056E+03  2.25436E+04  1.25126E+04
  6.52406E+03  3.56419E+04 -3.25035E+04  3.62079E+04 -6.41555E+04  1.35237E+03 -5.70667E+04 -4.29850E+04
 -1.28067E+04 -6.42859E+04  4.04730E+04 -4.56209E+04  5.83080E+04 -2.46006E+03  3.43086E+04  3.28811E+04
 -6.15230E+03  3.66683E+04 -3.06772E+04  1.65770E+04 -3.11412E+04 -4.11649E+03 -1.74087E+04 -1.09359E+04
 -7.99681E+03 -1.37535E+04 -7.46839E+02 -1.82539E+04  7.40988E+03 -2.32606E+04  1.59068E+04 -1.32994E+04
  1.08840E+04  5.29516E+03 -8.60181E+03  1.32844E+04 -2.19028E+04 -5.07258E+03 -8.54419E+03 -3.43849E+04
  2.34044E+04 -4.41264E+04  4.88023E+04 -1.95136E+04  4.55011E+04  1.93250E+04  1.60307E+04  4.49199E+04
 -1.67275E+04  3.36900E+04 -2.58214E+04  2.26188E+03 -9.97252E+03 -2.82390E+04  2.08741E+04 -3.45866E+04
  4.17997E+04 -9.22338E+03  3.65805E+04  2.45690E+04  1.87965E+04  4.73252E+04 -8.09768E+03  5.18086E+04
 -3.21245E+04  3.53832E+04 -4.31979E+04  9.27722E+03 -4.39353E+04 -1.73905E+04 -2.38773E+04 -3.84329E+04
  7.02104E+03 -3.84550E+04  3.22518E+04 -1.50677E+04  2.97543E+04  1.10887E+04  3.84538E+03  1.97142E+04
 -1.36499E+04  8.31969E+03 -1.05664E+04 -8.23136E+03  5.88837E+03 -1.06149E+04  1.84870E+04  5.89878E+03
  1.38606E+04  2.17595E+04 -6.42750E+03  2.57179E+04 -2.30401E+04  1.11979E+04 -2.88568E+04 -4.87961E+03
 -2.12816E+04 -1.73988E+04 -8.87170E+03 -2.09739E+04  3.66674E+03 -2.04388E+04  1.60484E+04 -1.91216E+04
  2.72317E+04 -1.32311E+04  3.32039E+04  3.05449E+03  2.47116E+04  2.10390E+04  4.24977E+03  3.72053E+04
 -1.80308E+04  3.10450E+04 -2.83697E+04  1.04177E+04 -2.09485E+04 -1.05851E+04 -4.35999E+03 -1.35810E+04
  2.44912E+03 -1.65613E+03 -5.05876E+03  7.48384E+03 -1.67033E+04  5.78229E+03 -1.74694E+04 -7.41207E+03
 -1.03144E+04 -1.99754E+04  5.03184E+03 -2.35428E+04  1.57959E+04 -1.65783E+04  1.91563E+04 -1.72526E+03
  1.16123E+04  1.37506E+04 -1.24528E+03  1.93353E+04 -1.36905E+04  1.16119E+04 -1.94447E+04 -4.15303E+03
 -1.47149E+04 -1.77256E+04 -1.66626E+03 -2.35613E+04  1.09455E+04 -1.91683E+04  1.93653E+04 -1.02750E+04
  1.80568E+04  6.35381E+02  1.31725E+04  4.52091E+03  7.08566E+03  8.42327E+02  9.85679E+03 -1.96561E+03
  1.80041E+04  2.76093E+03  1.98205E+04  1.53818E+04  1.28126E+04  3.09922E+04 -2.58466E+03  3.53202E+04
 -2.04758E+04  2.85368E+04 -3.27590E+04  1.42736E+04 -3.54486E+04 -2.24670E+03 -2.91034E+04 -1.98518E+04
 -1.23345E+04 -2.88217E+04  9.89253E+03 -2.59049E+04  2.20915E+04 -1.24910E+04  1.95153E+04  5.37203E+03
  7.49139E+03  1.51164E+04 -9.31047E+03  1.31638E+04 -1.65196E+04  2.42353E+03 -1.30981E+04 -9.92001E+03
  4.22960E+02 -1.59883E+04  8.07151E+03 -1.15043E+04  1.03605E+04 -1.91357E+03  2.51347E+03  6.57055E+03
 -6.98791E+03  2.83496E+03 -6.86228E+03 -6.21860E+03 -7.76885E+02 -1.39793E+04  9.43467E+03 -1.47953E+04
  1.81155E+04 -8.32106E+03  1.89802E+04  3.45850E+03  1.65014E+04  1.39528E+04  8.22428E+03  2.12159E+04
 -3.63162E+03  2.25896E+04 -1.44694E+04  1.39598E+04 -1.57265E+04  3.52119E+03 -1.18186E+04 -4.27822E+03
 -5.07393E+03 -5.14350E+03 -9.56995E+02  1.18155E+03 -1.57031E+03  2.99329E+03 -5.79905E+03  3.90843E+03
 -1.00836E+04 -2.11382E+02 -1.18295E+04 -9.01523E+03 -4.83865E+03 -1.52351E+04  4.88957E+03 -1.19910E+04
  9.78448E+03 -5.21003E+03  7.17820E+03  3.32408E+03  5.98848E+02  4.10512E+03 -5.79016E+03 -6.50294E+02
 -5.29494E+03 -8.01149E+03 -9.25304E+02 -1.14222E+04  6.39162E+03 -1.14627E+04  1.49201E+04 -6.56106E+03
  1.72470E+04  1.37520E+03  1.28399E+04  9.80678E+03  2.36199E+03  1.25417E+04 -7.60399E+03  1.14683E+04
 -9.76362E+03  4.02900E+03 -5.05166E+03 -2.42884E+03  1.46049E+03 -2.76327E+03  5.62722E+03 -1.79585E+03
  5.20907E+03  4.93060E+03  6.23303E+02  8.95424E+03 -7.13203E+03  9.37111E+03 -1.15036E+04  1.84993E+03
 -8.23168E+03 -6.24751E+03 -1.03307E+02 -1.00739E+04  5.09180E+03 -5.42499E+03  6.02585E+03  1.94335E+03
  1.36221E+03  6.49433E+03 -6.25050E+03  8.46799E+03 -8.96299E+03  4.45192E+03 -8.36526E+03 -3.24207E+03
 -5.10874E+03 -1.05047E+04  2.55226E+03 -1.20090E+04  1.02306E+04 -6.96309E+03  1.09524E+04  2.63003E+03
  6.72186E+03  8.17260E+03 -2.48966E+02  1.13594E+04 -7.63696E+03  6.04107E+03 -8.42257E+03 -9.76442E+02
 -8.02271E+03 -7.33620E+03 -1.29774E+03 -7.83324E+03  3.65834E+03 -6.77319E+03  5.22816E+03 -3.02060E+03
  3.64393E+03  6.80115E+02 -6.67842E+01  1.55754E+03  2.94621E+00 -1.17291E+03  1.08314E+03 -4.86656E+03
  7.14933E+03 -2.09730E+03  1.01667E+04  1.58567E+03  9.70153E+03  6.32950E+03  6.80075E+03  1.26007E+04
 -3.12565E+03  1.50448E+04 -1.33891E+04  1.11308E+04 -1.61554E+04  1.28070E+03 -1.36599E+04 -5.61009E+03
 -6.41145E+03 -1.08164E+04 -4.95476E+02 -9.46178E+03  3.06627E+03 -4.45354E+03  2.80634E+03 -3.88220E+03
  2.48149E+03 -2.05368E+03  2.46587E+03 -2.71521E+03  4.63662E+03 -1.38064E+03  5.68233E+03 -2.85386E+02
  7.49335E+03  1.75162E+03  3.34127E+03  6.00653E+03 -1.45965E+03  6.66785E+03 -7.10007E+03  4.72299E+03
 -9.03493E+03 -1.18692E+03 -4.76111E+03 -5.96042E+03 -7.41719E+02 -9.85292E+03  5.42405E+03 -9.15108E+03
  1.01232E+04 -5.76030E+03  1.19620E+04  1.59710E+03  8.03516E+03  8.53583E+03  1.03002E+03  1.04457E+04
 -4.20374E+03  9.43444E+03 -5.96643E+03  2.90015E+03 -3.32182E+03 -1.54673E+03 -1.14486E+03 -9.86992E+02
 -5.24825E+02  1.90646E+02 -1.35841E+03  1.98252E+03 -3.34785E+03  1.40446E+03 -6.68941E+03 -1.01711E+03
 -3.84021E+03 -6.41185E+03  1.28612E+03 -8.69202E+03  5.39058E+03 -8.09029E+03  7.11460E+03 -1.90522E+03
  8.79920E+03  4.55378E+03  3.84177E+03  6.98493E+03 -1.33008E+03  7.50869E+03 -5.32049E+03  5.38709E+03
 -7.26721E+03  6.50502E+02 -6.22848E+03 -4.94480E+03 -5.71307E+02 -7.07386E+03  3.37607E+03 -5.40753E+03
  4.80166E+03 -1.66531E+03  3.87895E+03  1.15434E+03  1.33295E+03  2.39910E+03  1.53277E+03  8.61810E+02
  1.73506E+03  9.03631E+02  2.20596E+03  1.13547E+03  2.11694E+03  3.26615E+03  2.28409E+03  4.01482E+03
 -1.87811E+03  6.44569E+03 -5.12624E+03  6.59875E+03 -7.86997E+03  2.37400E+03 -7.83069E+03 -2.73783E+03
 -3.87425E+03 -7.92755E+03  1.07766E+03 -9.21173E+03  3.88332E+03 -5.58304E+03  6.09500E+03 -1.14718E+03
  4.23939E+03  3.65822E+03  1.55671E+03  4.65744E+03 -1.67111E+03  2.60478E+03 -2.38500E+03 -2.54924E+02
 -1.01556E+03 -3.37011E+03  1.87303E+03 -3.88978E+03  2.73775E+03 -1.96583E+03  3.24019E+03  7.81220E+02
  2.08555E+03  8.37864E+02  1.09952E+03  8.08460E+02 -7.84105E+02  9.51869E+02  1.86285E+03 -7.85751E+02
  1.44308E+03  6.46272E+01  3.45634E+03  8.79289E+02  1.58438E+03  4.79649E+03 -1.45107E+03  4.96081E+03
 -3.39486E+03  3.46114E+03 -4.72744E+03  4.92099E+02 -4.04487E+03 -1.82313E+03 -1.03721E+03 -2.37351E+03
  4.32270E+02 -3.25307E+03  1.33611E+03 -4.61134E+02  1.95640E+03  1.78113E+03 -8.69124E+02  2.48276E+03
 -3.36970E+03  1.61777E+03 -3.24836E+03 -2.23530E+03 -1.70329E+03 -3.85029E+03  1.07058E+03 -4.69439E+03
  2.15886E+03 -1.73805E+03  1.76394E+03 -6.99967E+02  2.02963E+03  3.43966E+02  3.96997E+02  2.22294E+03
 -1.98084E+03  3.51415E+02 -1.10264E+03 -1.33390E+03  1.03842E+03 -3.41726E+03  3.91119E+03 -2.58589E+03
  3.78358E+03  6.19034E+01  4.54415E+03  3.17836E+03  1.73198E+03  4.25187E+03 -1.86254E+03  4.55932E+03
 -3.19344E+03  1.07974E+03 -3.82655E+03 -2.24987E+02 -2.32519E+03 -3.23063E+03  5.55806E+02 -1.94113E+03
  2.41541E+03 -8.25529E+02  1.63612E+03  1.48772E+03  1.19393E+03  2.63795E+03  1.73247E+02  2.06960E+03
 -7.34587E+02  1.59185E+03 -1.39634E+03  5.46374E+02 -4.11909E+01  3.00882E+02 -1.14892E+03  7.09843E+02
 -1.00885E+03  1.66170E+03 -3.33983E+03  1.39760E+03 -4.12544E+03  9.18364E+02 -5.01696E+03 -2.41460E+03
 -2.75920E+03 -5.77094E+03  8.21632E+02 -6.32111E+03  3.30361E+03 -5.33147E+03  6.05443E+03 -1.63731E+03
  6.51794E+03  7.29132E+02  3.27150E+03  3.63367E+03 -3.11097E+02  4.34450E+03 -1.46578E+03  2.92729E+03
 -2.55462E+03  1.40222E+03 -1.51226E+03 -1.39704E-01 -4.38320E+02  1.91650E+01 -4.60104E+02 -1.28761E+02
 -1.20486E+03  6.81619E+02 -9.45251E+02  2.66723E+02  1.44448E+01 -7.94929E+02  1.44851E+02 -1.90287E+03
  2.47016E+03 -1.36466E+03  2.15562E+03  5.53960E+00  2.47391E+03  2.32396E+03  6.94365E+02  4.53464E+03
 -1.85747E+03  5.18486E+03 -4.45945E+03  2.71329E+03 -4.77516E+03 -8.24021E+02 -3.27574E+03 -2.61244E+03
 -2.04556E+03 -3.94238E+03  8.09270E+02 -4.09225E+03  3.30505E+03 -2.06143E+03  1.93509E+03  2.65970E+02
  1.52532E+03  7.70945E+02 -5.40184E+02  9.99342E+02 -3.48126E+02  2.23508E+02  3.09077E+02 -1.28736E+03
  1.10580E+03 -5.73733E+02  1.06138E+03  1.04397E+03  5.05616E+02  1.76295E+03  5.49264E+02  1.56244E+03
 -2.05150E+03  2.37139E+03 -2.46566E+03  3.00722E+02 -2.10215E+03 -1.43495E+03  7.96553E+00 -2.89777E+03
  8.90504E+02 -2.50167E+03  2.45940E+03 -5.41880E+02  2.41382E+03  8.84215E+01  2.06107E+03  2.79383E+03
 -4.97303E+01  2.37124E+03 -5.81003E+02  2.18813E+03 -1.60791E+03  1.53342E+03 -1.46418E+03  3.83620E+02
 -1.06435E+03 -9.40371E+01 -3.54822E+02 -8.86431E+00 -1.95633E+03  5.02251E+02 -2.12861E+03 -2.15289E+02
 -2.22883E+03  1.76614E+02 -4.25546E+02 -2.06266E+03  1.07690E+03 -2.17591E+03  2.46576E+03 -9.99140E+02
  2.12901E+03 -2.47611E+02  7.14592E+02  1.49368E+03 -4.56602E+02  3.12912E+03 -1.16017E+03  1.90638E+03
