 $NMID ID='MM_0lb_SNR400_11hz_g50_80.RAW', FMTDAT='(8E13.5)'
 TRAMP=1., VOLUME=1. $END
  3.09499E+05  2.36375E+02  3.38547E+05  2.51296E+05  8.50859E+04  3.37590E+05 -1.32242E+05  2.51056E+05
 -1.90485E+05  8.35284E+04 -1.11885E+05 -3.26710E+04  7.65833E+02 -5.04192E+04  5.38083E+04 -6.38416E+01
  3.59359E+04  5.28850E+04 -1.65240E+04  7.59510E+04 -6.06388E+04  6.50530E+04 -8.50691E+04  3.27358E+04
 -8.18575E+04 -1.11864E+04 -5.73814E+04 -5.19420E+04 -1.48971E+04 -7.02574E+04  2.83542E+04 -4.61754E+04
  4.03693E+04  3.34412E+03  1.63877E+04  4.82753E+04 -3.43191E+04  4.84443E+04 -6.70723E+04  4.54226E+02
 -5.41878E+04 -5.69200E+04 -7.60185E+03 -7.83320E+04  3.44000E+04 -5.67026E+04  4.86344E+04 -1.80444E+04
  4.50501E+04  1.10218E+04  3.25417E+04  2.59591E+04  1.64657E+04  3.01395E+04 -6.47719E+03  2.79590E+04
 -2.24201E+04  1.25510E+04 -1.85589E+04 -5.89468E+03  6.38123E+03 -8.04395E+03  2.26186E+04  1.32404E+04
  6.73213E+03  3.61912E+04 -3.37959E+04  3.70079E+04 -6.46041E+04  2.19079E+03 -5.79238E+04 -4.33204E+04
 -1.29834E+04 -6.46784E+04  4.06289E+04 -4.67161E+04  6.04069E+04 -2.61469E+03  3.63388E+04  3.44739E+04
 -5.24801E+03  3.89746E+04 -3.15032E+04  1.80411E+04 -3.23764E+04 -2.87311E+03 -1.81637E+04 -1.15387E+04
 -9.08019E+03 -1.41559E+04 -6.07800E+02 -1.90389E+04  7.53796E+03 -2.32501E+04  1.55139E+04 -1.24208E+04
  1.04721E+04  5.94992E+03 -9.72158E+03  1.21057E+04 -2.24893E+04 -5.83975E+03 -8.76270E+03 -3.62772E+04
  2.39771E+04 -4.60718E+04  5.05494E+04 -2.03556E+04  4.73910E+04  2.00595E+04  1.65928E+04  4.56899E+04
 -1.61526E+04  3.50461E+04 -2.68392E+04  1.79983E+03 -1.12209E+04 -2.86577E+04  2.17262E+04 -3.59939E+04
  4.31820E+04 -1.04556E+04  3.88787E+04  2.46189E+04  2.03365E+04  4.87796E+04 -8.29047E+03  5.35862E+04
 -3.39573E+04  3.55730E+04 -4.53965E+04  1.00451E+04 -4.53733E+04 -1.75765E+04 -2.51444E+04 -4.05957E+04
  8.59766E+03 -4.03616E+04  3.35475E+04 -1.60026E+04  3.11845E+04  1.11547E+04  5.25219E+03  2.03756E+04
 -1.36473E+04  9.36385E+03 -1.06449E+04 -7.64622E+03  5.94090E+03 -1.15182E+04  1.86055E+04  5.28050E+03
  1.42066E+04  2.27059E+04 -5.49138E+03  2.58739E+04 -2.30913E+04  1.26722E+04 -3.06182E+04 -4.03650E+03
 -2.34312E+04 -1.77378E+04 -9.87346E+03 -2.32472E+04  4.15553E+03 -2.35651E+04  1.78648E+04 -2.09697E+04
  2.98101E+04 -1.38851E+04  3.59463E+04  4.41911E+03  2.59436E+04  2.27504E+04  4.94240E+03  3.93777E+04
 -1.85008E+04  3.27101E+04 -2.91897E+04  1.10180E+04 -2.17037E+04 -1.08306E+04 -4.46136E+03 -1.28660E+04
  1.01620E+03 -2.01554E+03 -6.43234E+03  7.61791E+03 -1.85965E+04  5.35056E+03 -1.87117E+04 -8.46622E+03
 -1.08316E+04 -2.22047E+04  5.33395E+03 -2.57063E+04  1.72310E+04 -1.87778E+04  2.07788E+04 -2.14330E+03
  1.36175E+04  1.53260E+04 -1.02598E+03  2.12653E+04 -1.46780E+04  1.19241E+04 -2.16646E+04 -4.26438E+03
 -1.62202E+04 -1.93827E+04 -2.12780E+03 -2.54691E+04  1.19770E+04 -2.08126E+04  2.13478E+04 -1.06073E+04
  2.00624E+04  3.45251E+01  1.45188E+04  4.02744E+03  7.75133E+03  1.18405E+03  1.13319E+04 -2.31942E+03
  2.05825E+04  2.72485E+03  2.27780E+04  1.74394E+04  1.55296E+04  3.51117E+04 -3.25788E+03  3.96810E+04
 -2.29757E+04  3.33795E+04 -3.82024E+04  1.72947E+04 -3.98849E+04 -3.02938E+03 -3.30973E+04 -2.33696E+04
 -1.38326E+04 -3.27501E+04  1.17070E+04 -2.94783E+04  2.56578E+04 -1.44403E+04  2.17904E+04  6.65215E+03
  7.87971E+03  1.72071E+04 -1.05139E+04  1.44817E+04 -1.93075E+04  2.24578E+03 -1.41165E+04 -1.14856E+04
 -3.23674E+01 -1.79891E+04  9.26075E+03 -1.34258E+04  1.21217E+04 -1.85738E+03  2.73613E+03  7.58414E+03
 -7.94887E+03  3.08152E+03 -7.92000E+03 -6.28478E+03 -1.14430E+03 -1.62021E+04  1.12883E+04 -1.72357E+04
  2.03969E+04 -9.76607E+03  2.30003E+04  4.01603E+03  1.96399E+04  1.65712E+04  9.41621E+03  2.54289E+04
 -4.75767E+03  2.77108E+04 -1.69998E+04  1.78304E+04 -2.00743E+04  4.11416E+03 -1.46069E+04 -5.11470E+03
 -6.02853E+03 -5.86242E+03 -7.00457E+02  8.91424E+02 -2.98748E+03  3.11639E+03 -6.49217E+03  4.56083E+03
 -1.26130E+04 -4.62851E+02 -1.33001E+04 -1.12280E+04 -4.70242E+03 -1.70948E+04  5.83174E+03 -1.37806E+04
  1.17030E+04 -5.45402E+03  9.13583E+03  4.18743E+03  3.63885E+02  5.55836E+03 -7.06110E+03 -2.25665E+02
 -7.01567E+03 -9.03161E+03 -1.08490E+03 -1.35428E+04  8.27571E+03 -1.41921E+04  1.75041E+04 -8.22873E+03
  2.07169E+04  2.06715E+03  1.54921E+04  1.22978E+04  3.14277E+03  1.64849E+04 -8.20146E+03  1.39131E+04
 -1.09566E+04  3.68782E+03 -6.42207E+03 -3.70002E+03  9.62288E+02 -3.49745E+03  7.33547E+03 -1.18719E+03
  6.52965E+03  5.83415E+03  6.71532E+02  1.10308E+04 -8.05071E+03  1.01214E+04 -1.35346E+04  3.36709E+03
 -8.84044E+03 -7.77201E+03 -1.90973E+02 -1.10514E+04  7.61111E+03 -6.18810E+03  8.11233E+03  2.97500E+03
  1.95611E+03  8.46637E+03 -7.33095E+03  9.56417E+03 -1.08630E+04  4.17989E+03 -1.16984E+04 -3.77708E+03
 -6.34418E+03 -1.28217E+04  3.12984E+03 -1.47438E+04  1.24700E+04 -9.09060E+03  1.37212E+04  2.52929E+03
  8.03672E+03  1.14171E+04 -5.17678E+02  1.38471E+04 -9.83442E+03  6.94825E+03 -1.04473E+04 -3.32930E+02
 -9.44894E+03 -9.06895E+03 -1.53868E+03 -1.03460E+04  5.53835E+03 -8.21478E+03  6.49502E+03 -2.83732E+03
  3.90555E+03  1.47885E+03 -1.29009E+03  1.79349E+03 -1.05062E+03 -1.49605E+03  3.09760E+03 -6.38157E+03
  9.45729E+03 -3.72335E+03  1.36020E+04  1.43787E+03  1.29080E+04  9.27802E+03  8.52704E+03  1.77151E+04
 -4.08574E+03  1.93732E+04 -1.59789E+04  1.43869E+04 -2.16720E+04  2.97043E+03 -1.73886E+04 -7.62688E+03
 -7.87848E+03 -1.39073E+04 -6.42184E+02 -1.16727E+04  4.31017E+03 -6.12200E+03  4.73152E+03 -4.10858E+03
  3.39019E+03 -2.42225E+03  3.26024E+03 -3.36331E+03  5.02042E+03 -3.48011E+03  6.72966E+03 -1.07817E+03
  8.28806E+03  1.89895E+03  4.29086E+03  7.39882E+03 -1.97027E+03  9.34861E+03 -9.22835E+03  6.71136E+03
 -1.22085E+04 -1.69068E+03 -7.74046E+03 -8.25725E+03 -2.40689E+02 -1.30416E+04  7.57613E+03 -1.31184E+04
  1.27096E+04 -6.89935E+03  1.57945E+04  1.96297E+03  1.09366E+04  1.12855E+04  2.26784E+03  1.45925E+04
 -6.40125E+03  1.16513E+04 -7.10147E+03  3.84946E+03 -5.37082E+03 -1.83119E+03 -2.58059E+03 -2.19804E+03
 -1.43295E+03  1.95577E+02 -2.08390E+03  2.65003E+03 -5.11172E+03  2.22982E+03 -8.00344E+03 -1.34482E+03
 -5.49272E+03 -8.31773E+03  8.43314E+02 -1.16049E+04  7.09015E+03 -1.14466E+04  1.11822E+04 -4.03354E+03
  1.13135E+04  6.31310E+03  5.50556E+03  9.96647E+03 -2.32272E+03  1.19867E+04 -8.32075E+03  6.90229E+03
 -1.09471E+04  1.16236E+01 -9.27660E+03 -6.76426E+03 -9.28783E+02 -9.79630E+03  5.61171E+03 -6.80852E+03
  7.76876E+03 -2.56532E+03  4.93082E+03  1.37882E+03  1.76313E+03  3.58279E+03  1.74901E+03  1.68689E+03
  2.59020E+03  3.24475E+02  3.18187E+03  2.23663E+03  3.28704E+03  3.97205E+03  2.78097E+03  5.84672E+03
 -2.38652E+03  9.42142E+03 -8.56537E+03  8.83539E+03 -1.16655E+04  2.93289E+03 -1.19174E+04 -4.37586E+03
 -4.96010E+03 -1.18352E+04  1.41896E+03 -1.35268E+04  6.92870E+03 -7.82411E+03  9.39823E+03 -2.19346E+03
  7.55905E+03  4.31448E+03  1.84089E+03  6.07878E+03 -3.15162E+03  3.63114E+03 -5.14686E+03 -1.99280E+02
 -2.72705E+03 -4.88983E+03  2.78064E+03 -4.95635E+03  4.57819E+03 -2.26064E+03  4.26910E+03  7.46960E+02
  2.42196E+03  2.92713E+03  9.14937E+02  1.32728E+03 -8.45879E+02  1.80626E+03  1.28272E+03 -2.03346E+02
  1.70782E+03 -3.26989E+02  5.29661E+03  1.45922E+03  3.06172E+03  6.85969E+03 -4.54451E+02  8.27206E+03
 -5.23632E+03  5.88752E+03 -7.89611E+03  1.62008E+03 -6.02068E+03 -2.96459E+03 -1.22512E+03 -4.68243E+03
  5.19123E+02 -4.40862E+03  3.04375E+03 -2.36530E+03  2.19175E+03  2.71281E+03 -7.29998E+02  3.75827E+03
 -4.72755E+03  2.56913E+03 -5.23351E+03 -2.48417E+03 -3.09147E+03 -5.72050E+03  7.55472E+02 -6.95949E+03
  3.53923E+03 -3.73085E+03  4.63873E+03 -5.72577E+02  4.24701E+03  1.35826E+03  4.98185E+02  3.62002E+03
 -2.39341E+03 -2.13430E+02 -3.17569E+03 -1.93422E+03  1.22847E+03 -4.67321E+03  5.76439E+03 -3.60381E+03
  7.23431E+03  9.39510E+02  6.59475E+03  4.73185E+03  2.71118E+03  7.85746E+03 -2.51875E+03  5.75046E+03
 -6.13846E+03  3.08292E+03 -5.92303E+03 -7.71789E+02 -3.81140E+03 -5.30274E+03  1.36630E+03 -4.13067E+03
  3.61138E+03 -1.89827E+03  3.52426E+03  2.35988E+03  6.74294E+02  3.79645E+03 -9.08903E+02  3.25454E+03
 -1.68819E+03  2.65830E+03 -9.51546E+02  6.69077E+02 -3.62152E+02  1.14716E+03 -1.69206E+03  1.73784E+03
 -2.79795E+03  3.44947E+03 -5.61210E+03  2.11786E+03 -7.25182E+03 -2.03039E+02 -7.96029E+03 -4.63020E+03
 -4.27488E+03 -9.41165E+03  1.84425E+03 -1.05259E+04  6.11384E+03 -8.33813E+03  1.01694E+04 -3.28924E+03
  9.11324E+03  1.46850E+03  5.75323E+03  6.75697E+03 -3.07111E+02  7.80035E+03 -2.88081E+03  5.42759E+03
 -4.66166E+03  2.09594E+03 -1.82727E+03 -7.24898E+02 -1.14433E+03 -1.46200E+03 -7.02139E+02  1.30099E+02
 -2.13778E+03  8.74991E+01 -1.88734E+03  2.41883E+01 -2.39567E+02 -1.89274E+03  5.78852E+02 -2.55703E+03
  3.16874E+03 -2.57570E+03  3.70733E+03 -5.65623E+02  5.47272E+03  4.06628E+03  7.82345E+02  7.34081E+03
 -3.40900E+03  8.29080E+03 -7.53301E+03  5.11611E+03 -8.85121E+03 -3.10157E+02 -6.38769E+03 -4.75185E+03
 -2.70624E+03 -7.17281E+03  1.62753E+03 -6.57242E+03  4.72337E+03 -4.01189E+03  4.38719E+03  5.88268E+02
  3.20718E+03  1.73493E+03 -9.15293E+01  1.64619E+03 -8.80947E+02 -1.42996E+02  5.23783E+02 -1.75174E+03
  2.54260E+03 -7.03185E+02  3.15969E+03  4.70753E+02  1.37964E+03  3.31923E+03  5.12584E+02  3.27858E+03
 -3.34342E+03  3.24853E+03 -3.79177E+03  8.37792E+02 -4.05584E+03 -3.69015E+03 -6.87875E+02 -5.66604E+03
  3.35264E+03 -5.46580E+03  4.96663E+03 -1.16252E+03  5.44260E+03  1.29579E+03  2.74483E+03  4.07477E+03
  4.52188E+02  4.37822E+03 -1.29218E+03  4.35698E+03 -3.30724E+03  1.22654E+03 -2.84078E+03  8.85775E+02
 -6.85894E+02 -1.76517E+00 -1.19093E+03  9.53261E+02 -2.40798E+03  1.15513E+03 -3.58422E+03 -3.53875E+02
 -3.21153E+03 -1.93657E+03 -1.60377E+03 -4.36638E+03  1.83883E+03 -5.62556E+03  4.15952E+03 -3.03695E+03
  5.32644E+03  1.87015E+03  1.81044E+03  2.53368E+03 -6.70251E+02  5.46554E+03 -3.65459E+03  3.39092E+03
