 $NMID ID='MM_0lb_SNR400_11hz_g45_70.RAW', FMTDAT='(8E13.5)'
 TRAMP=1., VOLUME=1. $END
  3.08753E+05  7.03426E+02  3.37583E+05  2.50896E+05  8.50416E+04  3.38062E+05 -1.31865E+05  2.51597E+05
 -1.90458E+05  8.36329E+04 -1.12487E+05 -3.21131E+04  7.65680E+02 -5.02341E+04  5.42815E+04 -8.30577E+02
  3.52669E+04  5.22938E+04 -1.69145E+04  7.54670E+04 -6.12161E+04  6.36960E+04 -8.51995E+04  3.24267E+04
 -8.15331E+04 -1.17606E+04 -5.77574E+04 -5.19128E+04 -1.53657E+04 -6.99661E+04  2.82069E+04 -4.64300E+04
  4.08080E+04  4.08935E+03  1.71888E+04  4.79161E+04 -3.41513E+04  4.78030E+04 -6.74891E+04 -4.51644E+02
 -5.38337E+04 -5.60300E+04 -7.41185E+03 -7.82640E+04  3.38269E+04 -5.57780E+04  4.82134E+04 -1.72088E+04
  4.39470E+04  1.21581E+04  3.21378E+04  2.61916E+04  1.54495E+04  3.05118E+04 -5.12281E+03  2.75992E+04
 -2.20814E+04  1.21982E+04 -1.81102E+04 -5.24961E+03  6.13138E+03 -7.83537E+03  2.28666E+04  1.26666E+04
  6.41943E+03  3.59205E+04 -3.28878E+04  3.60046E+04 -6.48833E+04  2.14892E+03 -5.78752E+04 -4.33793E+04
 -1.24374E+04 -6.40218E+04  4.09651E+04 -4.64470E+04  5.99199E+04 -2.88133E+03  3.49092E+04  3.31631E+04
 -5.13663E+03  3.73795E+04 -3.08263E+04  1.71761E+04 -3.20140E+04 -4.73209E+03 -1.70990E+04 -1.12099E+04
 -9.10249E+03 -1.49697E+04 -9.62522E+02 -1.94751E+04  8.39017E+03 -2.35689E+04  1.55044E+04 -1.31663E+04
  1.08252E+04  5.65492E+03 -8.95677E+03  1.22497E+04 -2.19485E+04 -5.91717E+03 -8.15965E+03 -3.50855E+04
  2.38306E+04 -4.52509E+04  4.99185E+04 -2.01820E+04  4.66467E+04  2.01748E+04  1.64064E+04  4.54117E+04
 -1.61511E+04  3.48315E+04 -2.64389E+04  2.19419E+03 -1.04035E+04 -2.85004E+04  2.10850E+04 -3.56771E+04
  4.26067E+04 -9.82291E+03  3.81291E+04  2.43419E+04  2.01985E+04  4.89267E+04 -7.57603E+03  5.31192E+04
 -3.32099E+04  3.51817E+04 -4.45701E+04  9.33534E+03 -4.54250E+04 -1.79281E+04 -2.43067E+04 -4.00747E+04
  7.93940E+03 -3.96591E+04  3.27069E+04 -1.53498E+04  3.06164E+04  1.10526E+04  4.56173E+03  1.97542E+04
 -1.38115E+04  9.07389E+03 -1.08559E+04 -7.97619E+03  5.93466E+03 -1.07603E+04  1.82864E+04  6.34435E+03
  1.37835E+04  2.22248E+04 -5.80370E+03  2.64012E+04 -2.33856E+04  1.31633E+04 -2.97178E+04 -4.39858E+03
 -2.26035E+04 -1.85072E+04 -1.05434E+04 -2.31698E+04  4.74360E+03 -2.21044E+04  1.82957E+04 -1.99191E+04
  2.85775E+04 -1.32989E+04  3.58130E+04  3.67602E+03  2.50901E+04  2.15921E+04  4.34830E+03  3.92343E+04
 -1.84744E+04  3.21314E+04 -2.88739E+04  1.18895E+04 -2.18912E+04 -9.55013E+03 -5.29800E+03 -1.38503E+04
  1.10281E+03 -2.12330E+03 -6.19958E+03  7.17368E+03 -1.82626E+04  4.88306E+03 -1.79788E+04 -8.70898E+03
 -1.09569E+04 -2.13979E+04  5.75002E+03 -2.52685E+04  1.74436E+04 -1.84011E+04  2.03992E+04 -2.07063E+03
  1.29270E+04  1.47208E+04 -1.21085E+03  2.07308E+04 -1.41360E+04  1.19842E+04 -2.15345E+04 -4.04497E+03
 -1.59798E+04 -1.92081E+04 -1.58256E+03 -2.60306E+04  1.11813E+04 -2.09985E+04  2.14780E+04 -1.07338E+04
  2.03339E+04  5.29559E+02  1.42984E+04  4.54496E+03  7.28069E+03  5.41421E+02  1.13923E+04 -2.62329E+03
  1.98082E+04  2.52393E+03  2.24915E+04  1.68754E+04  1.52978E+04  3.33123E+04 -2.70591E+03  3.84040E+04
 -2.25535E+04  3.31010E+04 -3.70153E+04  1.64665E+04 -3.89486E+04 -2.65762E+03 -3.25086E+04 -2.24881E+04
 -1.29931E+04 -3.25337E+04  1.07800E+04 -2.89223E+04  2.43740E+04 -1.45564E+04  2.13221E+04  6.81437E+03
  6.89607E+03  1.64623E+04 -9.74223E+03  1.47654E+04 -1.77758E+04  2.43241E+03 -1.42989E+04 -1.11792E+04
  2.74859E+02 -1.78568E+04  9.42685E+03 -1.26373E+04  1.17779E+04 -1.83777E+03  2.97376E+03  8.30001E+03
 -7.32020E+03  3.44739E+03 -8.05142E+03 -6.00457E+03 -1.51040E+03 -1.56124E+04  1.06399E+04 -1.72323E+04
  1.93516E+04 -8.54329E+03  2.23033E+04  3.73391E+03  1.92776E+04  1.54644E+04  8.52049E+03  2.48206E+04
 -4.76482E+03  2.74624E+04 -1.66869E+04  1.64326E+04 -1.94197E+04  3.29526E+03 -1.41425E+04 -4.32608E+03
 -5.80361E+03 -5.90468E+03 -5.22198E+02  9.09001E+02 -2.17115E+03  2.56954E+03 -6.40096E+03  4.26057E+03
 -1.26414E+04 -5.16243E+02 -1.26693E+04 -9.79577E+03 -6.06802E+03 -1.73393E+04  5.80110E+03 -1.42984E+04
  1.05701E+04 -5.45219E+03  7.65934E+03  3.39321E+03  5.73484E+02  5.31021E+03 -6.33783E+03 -6.05189E+02
 -5.93862E+03 -8.46218E+03 -8.04292E+02 -1.27035E+04  6.98733E+03 -1.39365E+04  1.67564E+04 -8.25205E+03
  1.96789E+04  1.62126E+03  1.45332E+04  1.14331E+04  3.57715E+03  1.56228E+04 -7.87361E+03  1.30029E+04
 -1.07048E+04  3.00125E+03 -5.36785E+03 -2.73679E+03  2.26434E+03 -3.88054E+03  7.27433E+03 -6.55710E+02
  6.43160E+03  5.03897E+03  1.28446E+03  1.08549E+04 -8.02969E+03  9.51800E+03 -1.36312E+04  2.46166E+03
 -8.79820E+03 -6.51795E+03  2.03642E+02 -1.12304E+04  7.93896E+03 -5.56384E+03  7.48774E+03  2.19560E+03
  2.30163E+03  7.50070E+03 -6.74248E+03  9.97121E+03 -1.02498E+04  4.04238E+03 -1.15005E+04 -4.15781E+03
 -5.72124E+03 -1.27780E+04  3.26547E+03 -1.47525E+04  1.25775E+04 -9.31081E+03  1.29058E+04  3.00817E+03
  8.29372E+03  1.04235E+04 -7.24602E+02  1.29725E+04 -9.73440E+03  6.98410E+03 -1.07088E+04 -8.89642E+02
 -9.40717E+03 -8.75852E+03 -1.88405E+03 -9.23565E+03  4.85398E+03 -7.97166E+03  6.06509E+03 -3.26720E+03
  4.29279E+03  1.80533E+03 -5.15521E+02  1.48413E+03  3.19338E+02 -2.71174E+03  1.87459E+03 -5.83637E+03
  8.93941E+03 -4.01418E+03  1.25604E+04  1.40743E+03  1.22817E+04  8.72324E+03  8.34360E+03  1.64548E+04
 -3.44587E+03  1.89365E+04 -1.55566E+04  1.37122E+04 -1.99289E+04  2.53766E+03 -1.68480E+04 -7.17649E+03
 -8.71029E+03 -1.40182E+04 -6.85214E+02 -1.15230E+04  4.35570E+03 -6.55448E+03  4.26161E+03 -4.68623E+03
  2.93285E+03 -3.05489E+03  4.11552E+03 -3.75013E+03  5.31632E+03 -2.67178E+03  6.20909E+03 -1.25389E+03
  8.76378E+03  2.21152E+03  4.70345E+03  7.66427E+03 -2.23283E+03  8.82600E+03 -9.13733E+03  6.66911E+03
 -1.16324E+04 -8.26811E+02 -6.47475E+03 -8.21182E+03 -1.12610E+03 -1.19268E+04  6.51638E+03 -1.25435E+04
  1.30706E+04 -7.15360E+03  1.53662E+04  1.70310E+03  1.02370E+04  1.05915E+04  1.73722E+03  1.37437E+04
 -5.68101E+03  1.19418E+04 -8.29537E+03  4.42388E+03 -5.24189E+03 -6.78087E+02 -1.93764E+03 -1.58554E+03
 -8.18927E+02 -9.58252E+02 -1.25446E+03  3.08102E+03 -5.55003E+03  2.34761E+03 -7.77816E+03 -1.73518E+03
 -5.45241E+03 -8.43902E+03  7.02826E+01 -1.06341E+04  7.31485E+03 -1.03747E+04  1.13678E+04 -3.38194E+03
  1.19011E+04  4.98129E+03  4.74817E+03  9.85588E+03 -2.04285E+03  1.15860E+04 -7.52348E+03  7.18423E+03
 -1.09034E+04  6.52022E+02 -8.86037E+03 -6.92062E+03 -7.23702E+02 -9.84561E+03  4.91464E+03 -6.82978E+03
  6.65726E+03 -3.12087E+03  4.67372E+03  1.24856E+03  1.40359E+03  4.44580E+03  7.75305E+02  1.79414E+03
  2.70532E+03  6.83844E+02  3.11009E+03  2.05718E+03  3.18443E+03  4.37186E+03  3.02904E+03  5.85630E+03
 -2.02925E+03  8.91275E+03 -8.16374E+03  8.93127E+03 -1.10887E+04  2.73498E+03 -1.15663E+04 -5.04157E+03
 -5.37634E+03 -1.06335E+04  1.61451E+03 -1.31566E+04  6.48021E+03 -7.96869E+03  9.17937E+03 -2.31804E+03
  7.11968E+03  4.88655E+03  1.90069E+03  6.27264E+03 -2.92336E+03  3.66271E+03 -3.77326E+03 -7.56888E+02
 -2.09109E+03 -4.52765E+03  3.25452E+03 -5.26544E+03  4.45291E+03 -2.32112E+03  5.00670E+03  7.77541E+02
  2.18934E+03  1.86625E+03  1.32528E+03  1.99096E+03 -8.23089E+02  1.61534E+03  1.54422E+03  2.91314E+02
  1.29157E+03 -1.07957E+03  4.75447E+03  1.68729E+03  1.42220E+03  5.45527E+03 -4.34549E+02  7.45873E+03
 -5.38409E+03  4.26617E+03 -7.34750E+03  1.66153E+03 -6.14398E+03 -2.19496E+03 -2.47801E+03 -4.55517E+03
  1.87952E+02 -3.54517E+03  2.46641E+03 -1.50739E+03  2.33155E+03  2.32920E+03 -1.70479E+03  3.46603E+03
 -4.23481E+03  2.18467E+03 -4.66077E+03 -2.66469E+03 -3.01011E+03 -6.00029E+03  6.49338E+02 -6.02125E+03
  3.82493E+03 -3.38139E+03  3.63649E+03  7.80347E+01  3.15294E+03  1.03686E+03 -1.15569E+02  3.32286E+03
 -2.16307E+03  1.01422E+03 -2.75938E+03 -2.42571E+03  1.06772E+03 -4.50816E+03  5.07654E+03 -3.96415E+03
  6.41925E+03 -3.14939E+02  7.58057E+03  5.00791E+03  2.16959E+03  6.30335E+03 -2.71543E+03  7.01669E+03
 -6.26676E+03  2.60730E+03 -6.12672E+03 -1.39090E+03 -3.25497E+03 -4.65536E+03  1.11595E+03 -3.39958E+03
  4.63791E+03 -2.81381E+03  3.03310E+03  2.26835E+03  8.71172E+02  3.77793E+03 -9.71603E+02  3.87298E+03
 -1.61370E+03  2.45338E+03 -1.13444E+03  8.17264E+02 -6.59945E+02  1.16378E+02 -9.98737E+02  1.10437E+03
 -1.54964E+03  2.44510E+03 -5.50100E+03  1.69628E+03 -6.83498E+03  9.02758E+02 -8.45699E+03 -3.86650E+03
 -4.50703E+03 -9.17338E+03  2.10686E+03 -1.10987E+04  6.36615E+03 -8.56775E+03  1.02580E+04 -3.59692E+03
  9.19262E+03  1.49634E+03  6.26892E+03  5.65554E+03  5.90580E+02  6.84032E+03 -3.10100E+03  5.35439E+03
 -3.94806E+03  2.09942E+03 -2.23003E+03 -3.29576E+02 -3.31290E+02 -1.10448E+03 -1.59199E+02  3.50208E+02
 -2.38417E+03 -3.55690E+02 -1.64619E+03  4.22830E+02 -6.33058E+02 -1.39602E+03  5.81789E+02 -2.61456E+03
  3.73780E+03 -2.61553E+03  3.86945E+03  6.68701E+02  5.06076E+03  4.01145E+03  2.47913E+02  6.98517E+03
 -3.77716E+03  8.94769E+03 -6.49991E+03  4.98728E+03 -9.21777E+03 -1.06062E+03 -6.46618E+03 -4.92784E+03
 -2.97656E+03 -6.60011E+03  1.88657E+03 -6.72473E+03  4.47782E+03 -3.07682E+03  4.50322E+03 -7.89137E+01
  2.52321E+03  1.68130E+03  1.01973E+02  2.11878E+03 -1.73162E+03  2.43403E+02 -2.04238E+02 -2.11153E+03
  2.53045E+03 -3.64248E+01  2.43085E+03  1.07226E+03  2.21491E+03  2.36621E+03  9.17328E+02  3.35572E+03
 -2.86208E+03  3.08915E+03 -5.25772E+03  1.11613E+03 -3.77336E+03 -3.42434E+03  1.42752E+02 -5.93324E+03
  2.95391E+03 -4.47145E+03  5.25613E+03 -2.06575E+03  5.36914E+03  3.92028E+02  3.13888E+03  4.23670E+03
  6.29249E+02  4.71078E+03 -1.92027E+03  3.46444E+03 -2.91731E+03  2.11860E+03 -2.45089E+03  1.90523E+02
 -1.25908E+03 -2.43982E+02 -1.88454E+03  8.94225E+02 -2.34922E+03  4.78013E+02 -3.40553E+03 -1.37238E+03
 -3.67147E+03 -1.98829E+03 -1.81198E+03 -4.69707E+03  1.66141E+03 -5.07043E+03  3.97106E+03 -2.97899E+03
  4.18216E+03 -1.47531E+01  1.63817E+03  2.62427E+03 -2.73536E+02  4.41842E+03 -3.44178E+03  2.32175E+03
