 $NMID ID='MM_0lb_SNR400_7hz_g60_10.RAW', FMTDAT='(8E13.5)'
 TRAMP=1., VOLUME=1. $END
  3.10170E+05  2.37576E+02  3.37495E+05  2.51486E+05  8.48619E+04  3.38551E+05 -1.31827E+05  2.52028E+05
 -1.91429E+05  8.43803E+04 -1.13373E+05 -3.22091E+04  7.96740E+02 -5.08006E+04  5.36508E+04 -4.10014E+02
  3.50315E+04  5.28812E+04 -1.72087E+04  7.74591E+04 -6.12764E+04  6.41911E+04 -8.59106E+04  3.29829E+04
 -8.33698E+04 -1.17173E+04 -5.88017E+04 -5.24290E+04 -1.49612E+04 -7.24345E+04  2.81535E+04 -4.81376E+04
  4.28984E+04  2.20997E+03  1.74425E+04  4.94232E+04 -3.50498E+04  4.89587E+04 -6.87070E+04 -2.05369E+02
 -5.60621E+04 -5.88147E+04 -7.72833E+03 -7.92362E+04  3.44310E+04 -5.80642E+04  5.06499E+04 -1.96319E+04
  4.62722E+04  1.19626E+04  3.39066E+04  2.70453E+04  1.58220E+04  3.15388E+04 -6.78716E+03  2.92139E+04
 -2.32309E+04  1.20887E+04 -1.80168E+04 -5.57072E+03  9.01674E+03 -7.75453E+03  2.41338E+04  1.44964E+04
  6.50011E+03  3.77350E+04 -3.41975E+04  3.76603E+04 -6.76823E+04  2.10802E+03 -5.89645E+04 -4.62629E+04
 -1.26151E+04 -6.78436E+04  4.25038E+04 -4.88532E+04  6.28241E+04 -3.15761E+03  3.77360E+04  3.60836E+04
 -5.49879E+03  4.27749E+04 -3.21090E+04  1.98503E+04 -3.35176E+04 -2.42996E+03 -1.99875E+04 -1.25542E+04
 -1.05201E+04 -1.62501E+04 -7.49663E+02 -2.11363E+04  9.54636E+03 -2.42165E+04  1.72987E+04 -1.24930E+04
  1.01050E+04  6.94928E+03 -1.12341E+04  1.29853E+04 -2.56055E+04 -7.79250E+03 -8.35345E+03 -4.00490E+04
  2.73310E+04 -4.94305E+04  5.46512E+04 -2.24302E+04  5.08680E+04  2.14625E+04  1.87734E+04  4.87867E+04
 -1.77309E+04  3.81173E+04 -2.87658E+04  2.79796E+03 -1.34515E+04 -3.04161E+04  2.17543E+04 -3.83411E+04
  4.68204E+04 -1.17605E+04  4.33488E+04  2.55949E+04  2.24084E+04  5.36558E+04 -8.23413E+03  5.88732E+04
 -3.74284E+04  3.97729E+04 -5.02070E+04  1.17946E+04 -5.02961E+04 -1.92632E+04 -2.79927E+04 -4.39156E+04
  6.93474E+03 -4.45142E+04  3.61458E+04 -1.86471E+04  3.40893E+04  1.07246E+04  5.85181E+03  2.18287E+04
 -1.35541E+04  1.00974E+04 -1.19599E+04 -7.19240E+03  5.43202E+03 -1.15179E+04  1.87831E+04  4.62829E+03
  1.49784E+04  2.27831E+04 -3.60876E+03  2.87442E+04 -2.37872E+04  1.60911E+04 -3.31506E+04 -1.45799E+03
 -2.79267E+04 -1.87828E+04 -1.31178E+04 -2.72626E+04  5.46577E+03 -2.92582E+04  2.27553E+04 -2.60077E+04
  3.55188E+04 -1.41539E+04  4.15413E+04  5.83471E+03  2.83530E+04  2.64799E+04  5.16431E+03  4.45867E+04
 -2.06271E+04  3.59078E+04 -3.13635E+04  1.38588E+04 -2.32574E+04 -1.00073E+04 -6.29433E+03 -1.16338E+04
 -2.89385E+02  3.77759E+02 -9.72549E+03  8.81652E+03 -2.37045E+04  4.98926E+03 -2.30908E+04 -1.12538E+04
 -1.24665E+04 -2.66069E+04  6.44999E+03 -3.01831E+04  2.13127E+04 -2.20646E+04  2.63349E+04 -1.00022E+03
  1.59051E+04  1.76280E+04 -1.57273E+03  2.61628E+04 -1.87234E+04  1.53999E+04 -2.60968E+04 -5.70693E+03
 -1.91481E+04 -2.28325E+04 -2.11638E+03 -3.09979E+04  1.41464E+04 -2.57469E+04  2.53136E+04 -1.30286E+04
  2.39242E+04 -1.16178E+03  1.76734E+04  6.14359E+03  1.00832E+04  1.74353E+03  1.37542E+04 -3.21171E+03
  2.42419E+04  2.94037E+03  3.00743E+04  2.00155E+04  2.04020E+04  4.25059E+04 -3.16665E+03  5.08770E+04
 -2.88791E+04  4.34026E+04 -4.77773E+04  2.26715E+04 -5.22029E+04 -4.34371E+03 -4.08115E+04 -3.00871E+04
 -1.61749E+04 -4.36258E+04  1.61889E+04 -3.75565E+04  3.18226E+04 -1.74617E+04  2.80522E+04  9.84553E+03
  8.59416E+03  2.15936E+04 -1.40492E+04  1.72810E+04 -2.13846E+04  2.45105E+03 -1.80048E+04 -1.43566E+04
 -5.37719E+02 -2.11413E+04  1.23785E+04 -1.63766E+04  1.58634E+04 -7.56884E+02  5.02457E+03  9.96427E+03
 -9.82025E+03  5.13747E+03 -1.08687E+04 -8.27246E+03 -3.31195E+03 -2.10749E+04  1.29653E+04 -2.39655E+04
  2.72413E+04 -1.35901E+04  3.10942E+04  3.48398E+03  2.89210E+04  2.17967E+04  1.25345E+04  3.45925E+04
 -8.07626E+03  3.62909E+04 -2.44186E+04  2.19225E+04 -2.61136E+04  5.28521E+03 -1.80307E+04 -7.66025E+03
 -6.81532E+03 -8.82284E+03 -6.06589E+02  7.54222E+02 -3.04163E+03  4.20448E+03 -9.25577E+03  6.28650E+03
 -1.63791E+04 -1.91199E+03 -1.78185E+04 -1.34436E+04 -7.02317E+03 -2.27356E+04  7.52789E+03 -1.84500E+04
  1.50356E+04 -8.07208E+03  1.09498E+04  5.15750E+03 -7.58776E+02  7.22085E+03 -9.30367E+03 -4.90416E+02
 -9.19673E+03 -1.19616E+04 -9.41418E+02 -1.86171E+04  1.17248E+04 -1.89402E+04  2.43813E+04 -1.05149E+04
  2.78163E+04  4.16599E+03  2.09775E+04  1.78321E+04  4.40748E+03  2.44586E+04 -1.09034E+04  1.93150E+04
 -1.55505E+04  5.65324E+03 -7.67434E+03 -3.75781E+03  3.27402E+03 -5.74651E+03  1.01294E+04 -7.11533E+02
  8.49486E+03  8.96397E+03  1.50298E+03  1.50911E+04 -1.16654E+04  1.46228E+04 -1.91425E+04  3.50894E+03
 -1.31622E+04 -1.02481E+04  4.22593E+02 -1.63202E+04  1.09342E+04 -8.91768E+03  1.13101E+04  5.19247E+03
  2.12795E+03  1.31360E+04 -9.38371E+03  1.36393E+04 -1.74846E+04  6.63079E+03 -1.82142E+04 -6.34064E+03
 -1.04746E+04 -1.96795E+04  5.04336E+03 -2.24920E+04  1.94641E+04 -1.26810E+04  2.10292E+04  3.31536E+03
  1.26919E+04  1.64201E+04 -5.63201E+02  1.88435E+04 -1.49163E+04  1.05132E+04 -1.63078E+04 -1.77524E+03
 -1.34403E+04 -1.31681E+04 -1.68979E+03 -1.51180E+04  7.83630E+03 -1.21553E+04  9.49322E+03 -3.52646E+03
  5.72378E+03  2.26499E+03 -1.27301E+03  3.15089E+03 -2.88633E+02 -4.66771E+03  5.13885E+03 -1.00356E+04
  1.44540E+04 -6.97392E+03  2.14176E+04  2.50642E+03  2.08422E+04  1.42856E+04  1.25718E+04  2.75068E+04
 -7.34327E+03  3.10558E+04 -2.52006E+04  2.23821E+04 -3.35868E+04  5.15210E+03 -2.73674E+04 -1.25943E+04
 -1.25249E+04 -2.15649E+04 -6.69070E+01 -1.94780E+04  6.66650E+03 -1.16624E+04  6.84901E+03 -7.28888E+03
  5.07975E+03 -3.12165E+03  4.24304E+03 -4.65206E+03  7.05662E+03 -4.29672E+03  9.88615E+03 -2.82014E+03
  1.33757E+04  3.30895E+03  7.48426E+03  1.21291E+04 -2.40125E+03  1.52430E+04 -1.38687E+04  1.08232E+04
 -1.95604E+04 -1.66456E+03 -1.29282E+04 -1.24221E+04 -1.64138E+03 -2.10481E+04  1.08746E+04 -2.01542E+04
  2.21332E+04 -1.10402E+04  2.58705E+04  4.51840E+03  1.74267E+04  1.92784E+04  2.29009E+03  2.26479E+04
 -1.10771E+04  1.88719E+04 -1.38229E+04  6.39258E+03 -9.08385E+03 -7.85503E+02 -4.50536E+03 -3.79387E+03
 -2.54705E+03  2.24442E+02 -3.09321E+03  4.07288E+03 -8.66799E+03  2.88317E+03 -1.36835E+04 -2.01217E+03
 -1.10086E+04 -1.16453E+04 -6.24747E+02 -2.01190E+04  1.16764E+04 -1.80266E+04  2.03318E+04 -5.66292E+03
  1.94019E+04  9.86639E+03  9.45336E+03  1.76462E+04 -4.41643E+03  1.89114E+04 -1.48044E+04  1.33648E+04
 -1.91145E+04  6.14098E+02 -1.45056E+04 -1.28394E+04 -2.15777E+03 -1.66783E+04  9.01852E+03 -1.22527E+04
  1.16795E+04 -3.25647E+03  8.34896E+03  3.46469E+03  3.25757E+03  5.70828E+03  1.15307E+03  3.23160E+03
  3.40475E+03  2.08155E+03  5.25775E+03  2.32281E+03  5.81059E+03  6.70784E+03  5.36954E+03  1.04956E+04
 -4.03309E+03  1.73136E+04 -1.45463E+04  1.54404E+04 -2.24314E+04  4.75946E+03 -2.24953E+04 -1.01536E+04
 -1.05669E+04 -2.05974E+04  4.02056E+03 -2.24827E+04  1.34437E+04 -1.48390E+04  1.72550E+04 -2.94634E+03
  1.32867E+04  7.73341E+03  3.71394E+03  1.30649E+04 -5.65301E+03  7.55206E+03 -8.90410E+03 -1.92402E+03
 -4.41914E+03 -9.34614E+03  3.94686E+03 -9.99972E+03  7.80756E+03 -4.55037E+03  8.40243E+03  1.73806E+03
  5.47674E+03  3.51726E+03  3.26493E+03  3.97176E+03 -9.91717E+02  2.95971E+03  1.53122E+03 -8.13968E+02
  4.62113E+03 -1.68574E+03  8.32921E+03  2.88265E+03  4.76798E+03  1.03807E+04 -9.07066E+02  1.54973E+04
 -1.05485E+04  1.07344E+04 -1.33140E+04  2.48222E+03 -1.27473E+04 -4.46893E+03 -4.94090E+03 -8.68863E+03
  6.90781E+02 -9.49736E+03  5.22905E+03 -2.93517E+03  4.69921E+03  4.51237E+03 -1.66129E+03  6.23127E+03
 -8.94346E+03  3.78162E+03 -1.05471E+04 -4.73043E+03 -5.67575E+03 -1.12128E+04  9.41693E+02 -1.19182E+04
  7.00941E+03 -7.84657E+03  9.12450E+03 -7.71378E+02  7.14225E+03  3.06643E+03  1.86393E+03  6.34577E+03
 -4.28256E+03  2.15106E+03 -5.39131E+03 -4.27997E+03  2.49325E+03 -1.02572E+04  1.08572E+04 -6.70951E+03
  1.41255E+04  8.34450E+02  1.36804E+04  1.03967E+04  5.02536E+03  1.49345E+04 -4.86662E+03  1.44468E+04
 -1.20379E+04  6.78699E+03 -1.16159E+04 -1.88663E+03 -6.70823E+03 -9.34960E+03  2.65939E+03 -8.93657E+03
  9.00453E+03 -4.74796E+03  7.69363E+03  3.66103E+03  2.48493E+03  7.80636E+03 -1.86115E+03  6.61148E+03
 -4.29875E+03  3.86574E+03 -3.91376E+03  1.64980E+03 -2.22475E+03  1.64169E+03 -1.49413E+03  3.60749E+03
 -4.03032E+03  5.40123E+03 -1.02611E+04  3.70116E+03 -1.43738E+04 -3.89084E+02 -1.57261E+04 -1.09524E+04
 -8.92269E+03 -1.98496E+04  3.99310E+03 -2.31308E+04  1.37087E+04 -1.80307E+04  2.25251E+04 -6.54289E+03
  1.97631E+04  4.34810E+03  1.20529E+04  1.42598E+04  1.19844E+03  1.59112E+04 -5.82975E+03  1.19285E+04
 -8.70460E+03  4.37800E+03 -5.73726E+03 -7.38680E+02 -1.89220E+03 -2.36285E+03 -2.70029E+02  4.08764E+02
 -2.29353E+03  3.59693E+02 -3.68760E+03 -1.15699E+03 -1.59742E+03 -3.71797E+03  8.65685E+02 -5.99208E+03
  6.52133E+03 -5.18288E+03  9.46529E+03 -2.32750E+01  1.19672E+04  9.20906E+03  3.88382E+03  1.65518E+04
 -8.15637E+03  1.84200E+04 -1.68178E+04  1.09776E+04 -1.98129E+04 -2.05576E+03 -1.51287E+04 -1.27600E+04
 -5.32912E+03 -1.74094E+04  4.89705E+03 -1.53416E+04  9.92826E+03 -8.85535E+03  1.07800E+04  1.03407E+03
  5.44966E+03  4.84941E+03 -5.92512E+02  4.56077E+03 -2.09964E+03  1.01791E+02  1.75185E+02 -3.80675E+03
  4.95636E+03 -2.25782E+03  7.43183E+03  3.07803E+03  4.90127E+03  6.78604E+03 -6.88361E+02  7.54663E+03
 -8.32647E+03  7.67052E+03 -1.06683E+04  1.29389E+03 -1.03289E+04 -7.93123E+03 -1.37106E+03 -1.37198E+04
  7.06042E+03 -1.21201E+04  1.33948E+04 -3.56713E+03  1.25713E+04  3.91448E+03  7.16346E+03  9.74469E+03
  9.13284E+02  1.07886E+04 -4.23946E+03  8.77219E+03 -7.87060E+03  4.94267E+03 -5.66188E+03  1.08672E+03
 -2.11768E+03  3.19942E+02 -3.70539E+03  1.36026E+03 -5.59594E+03  1.41152E+03 -7.79192E+03 -1.21013E+03
 -8.37125E+03 -5.86233E+03 -2.58344E+03 -1.07745E+04  5.75319E+03 -1.17053E+04  1.00264E+04 -6.26343E+03
  1.20578E+04  6.76684E+02  6.26754E+03  7.52235E+03 -5.96740E+02  1.04376E+04 -9.17771E+03  7.72682E+03
