 $NMID ID='MM_0lb_SNR400_13hz_g55_63.RAW', FMTDAT='(8E13.5)'
 TRAMP=1., VOLUME=1. $END
  3.09643E+05  6.95504E+02  3.37735E+05  2.50790E+05  8.45187E+04  3.38233E+05 -1.32690E+05  2.51557E+05
 -1.90838E+05  8.31240E+04 -1.12006E+05 -3.27101E+04  1.20291E+03 -5.10730E+04  5.33449E+04  3.31481E+02
  3.53031E+04  5.26283E+04 -1.68273E+04  7.62571E+04 -6.05758E+04  6.38015E+04 -8.47330E+04  3.24120E+04
 -8.10902E+04 -1.14339E+04 -5.85169E+04 -5.21731E+04 -1.51670E+04 -7.03241E+04  2.68604E+04 -4.57953E+04
  4.13053E+04  3.88972E+03  1.61945E+04  4.81096E+04 -3.37686E+04  4.77417E+04 -6.70064E+04  5.32007E+02
 -5.35990E+04 -5.71232E+04 -6.46303E+03 -7.77279E+04  3.48154E+04 -5.55486E+04  4.85100E+04 -1.79556E+04
  4.42457E+04  1.15981E+04  3.19013E+04  2.55399E+04  1.63377E+04  2.97292E+04 -4.74465E+03  2.72788E+04
 -2.20444E+04  1.23048E+04 -1.78757E+04 -4.76256E+03  5.50370E+03 -6.63699E+03  2.30309E+04  1.22667E+04
  6.69484E+03  3.63321E+04 -3.30142E+04  3.61745E+04 -6.41772E+04  2.14672E+03 -5.78795E+04 -4.30780E+04
 -1.30061E+04 -6.49427E+04  4.06850E+04 -4.63745E+04  6.00296E+04 -2.64407E+03  3.48263E+04  3.31133E+04
 -6.16075E+03  3.78160E+04 -3.10185E+04  1.67526E+04 -3.18217E+04 -4.05265E+03 -1.77051E+04 -1.09602E+04
 -9.02153E+03 -1.36401E+04 -2.33722E+02 -1.88449E+04  7.62828E+03 -2.30923E+04  1.56290E+04 -1.31736E+04
  1.06927E+04  5.73735E+03 -8.85969E+03  1.27530E+04 -2.20515E+04 -5.36705E+03 -9.15605E+03 -3.48032E+04
  2.39783E+04 -4.49781E+04  4.92569E+04 -2.02658E+04  4.61685E+04  1.95448E+04  1.68129E+04  4.48443E+04
 -1.61072E+04  3.45745E+04 -2.59378E+04  2.35013E+03 -9.90114E+03 -2.85718E+04  2.12402E+04 -3.50895E+04
  4.17882E+04 -9.43686E+03  3.72426E+04  2.42276E+04  1.99468E+04  4.76753E+04 -8.04790E+03  5.20416E+04
 -3.26576E+04  3.58742E+04 -4.42751E+04  1.03038E+04 -4.49075E+04 -1.72188E+04 -2.39004E+04 -3.95271E+04
  7.39649E+03 -3.90571E+04  3.26913E+04 -1.54211E+04  3.00390E+04  1.09106E+04  4.10983E+03  1.94672E+04
 -1.35777E+04  8.12917E+03 -1.10938E+04 -7.61741E+03  5.51265E+03 -1.12487E+04  1.81307E+04  5.95865E+03
  1.43328E+04  2.19177E+04 -5.76541E+03  2.63283E+04 -2.29823E+04  1.23243E+04 -2.87929E+04 -4.14928E+03
 -2.19090E+04 -1.75249E+04 -9.11243E+03 -2.17556E+04  3.33096E+03 -2.18658E+04  1.77489E+04 -1.96106E+04
  2.75722E+04 -1.34513E+04  3.45018E+04  3.78615E+03  2.48544E+04  2.18706E+04  4.45540E+03  3.79303E+04
 -1.77817E+04  3.16964E+04 -2.91329E+04  1.06644E+04 -2.13025E+04 -1.00498E+04 -4.55240E+03 -1.34038E+04
  1.26728E+03 -2.24159E+03 -5.95454E+03  7.08455E+03 -1.70851E+04  5.36967E+03 -1.73941E+04 -7.61940E+03
 -1.06529E+04 -1.99294E+04  5.94876E+03 -2.52679E+04  1.61134E+04 -1.75160E+04  1.94902E+04 -2.09264E+03
  1.24251E+04  1.37968E+04 -1.48607E+03  2.01508E+04 -1.40118E+04  1.23440E+04 -2.05425E+04 -4.29493E+03
 -1.57349E+04 -1.83149E+04 -1.96519E+03 -2.43126E+04  1.09254E+04 -2.00684E+04  2.07621E+04 -1.00736E+04
  1.93194E+04 -2.68876E+02  1.43714E+04  4.77223E+03  6.85117E+03  1.59316E+03  9.56956E+03 -2.52567E+03
  1.87348E+04  3.07129E+03  2.12756E+04  1.58057E+04  1.40490E+04  3.26991E+04 -2.96440E+03  3.73526E+04
 -2.13632E+04  3.07051E+04 -3.44924E+04  1.55449E+04 -3.69693E+04 -3.14793E+03 -3.05832E+04 -2.13390E+04
 -1.23358E+04 -3.06499E+04  1.06351E+04 -2.69240E+04  2.25994E+04 -1.39970E+04  2.05204E+04  6.21503E+03
  7.87188E+03  1.52082E+04 -1.00271E+04  1.32329E+04 -1.70939E+04  2.47432E+03 -1.29570E+04 -1.11688E+04
 -1.98626E+02 -1.68492E+04  8.87326E+03 -1.21994E+04  1.16479E+04 -1.37754E+03  2.96583E+03  7.54776E+03
 -7.34060E+03  2.38594E+03 -6.57558E+03 -6.25890E+03 -2.54596E+02 -1.50500E+04  1.09861E+04 -1.60221E+04
  1.85571E+04 -8.58508E+03  2.03447E+04  2.85526E+03  1.69563E+04  1.49761E+04  8.15680E+03  2.30300E+04
 -3.48617E+03  2.41122E+04 -1.56650E+04  1.48809E+04 -1.81674E+04  4.24231E+03 -1.27689E+04 -4.22732E+03
 -5.54993E+03 -5.69101E+03 -3.79521E+02  2.15416E+02 -2.13447E+03  3.25545E+03 -5.95819E+03  5.02330E+03
 -1.16661E+04 -5.58062E+02 -1.20275E+04 -1.06549E+04 -4.68623E+03 -1.57919E+04  5.82423E+03 -1.26136E+04
  1.07837E+04 -5.12543E+03  7.44313E+03  2.74009E+03  4.70188E+01  5.21890E+03 -5.44020E+03 -2.20404E+02
 -5.80031E+03 -7.71869E+03 -9.13293E+02 -1.12906E+04  7.18138E+03 -1.31065E+04  1.60519E+04 -6.68762E+03
  1.86476E+04  1.64689E+03  1.37151E+04  1.05637E+04  2.82364E+03  1.44607E+04 -7.64939E+03  1.26543E+04
 -1.03695E+04  3.68223E+03 -4.70389E+03 -2.82806E+03  1.41502E+03 -3.19735E+03  7.18046E+03 -7.49689E+02
  5.99993E+03  6.26937E+03  1.72625E+03  9.85729E+03 -7.04109E+03  9.85910E+03 -1.21738E+04  2.41643E+03
 -8.00211E+03 -6.70410E+03  1.93209E+02 -1.06487E+04  6.29198E+03 -5.62708E+03  6.57392E+03  2.93490E+03
  9.72220E+02  6.91195E+03 -6.05265E+03  8.32640E+03 -9.32776E+03  4.00835E+03 -9.38661E+03 -2.82533E+03
 -5.50815E+03 -1.11969E+04  2.40417E+03 -1.32434E+04  1.14132E+04 -7.94432E+03  1.19195E+04  2.27949E+03
  7.10143E+03  9.89124E+03 -4.29219E+01  1.23665E+04 -8.74713E+03  6.52568E+03 -9.58801E+03 -1.45356E+02
 -8.78320E+03 -8.13448E+03 -1.66528E+03 -9.24924E+03  4.28184E+03 -6.94635E+03  4.78998E+03 -3.13209E+03
  3.50454E+03  9.97056E+02 -6.06326E+02  1.90097E+03 -3.50715E+02 -2.19205E+03  2.60976E+03 -5.21658E+03
  8.11781E+03 -3.09215E+03  1.13694E+04  1.82975E+03  1.12003E+04  7.55513E+03  7.83892E+03  1.52462E+04
 -2.64516E+03  1.65314E+04 -1.38083E+04  1.24171E+04 -1.83749E+04  2.56622E+03 -1.46000E+04 -5.21815E+03
 -7.46998E+03 -1.24574E+04 -5.86300E+02 -9.38565E+03  3.42509E+03 -5.40095E+03  3.85901E+03 -4.20533E+03
  2.85211E+03 -1.39632E+03  3.02731E+03 -2.96156E+03  4.74692E+03 -2.69361E+03  5.71885E+03 -7.19840E+02
  7.63318E+03  2.32958E+03  3.25232E+03  5.81921E+03 -1.90108E+03  7.43775E+03 -7.88637E+03  5.93113E+03
 -1.04178E+04 -1.12030E+03 -5.75001E+03 -6.96938E+03 -2.95070E+02 -1.02561E+04  5.43092E+03 -1.10042E+04
  1.05793E+04 -6.09198E+03  1.32197E+04  1.23850E+03  8.67375E+03  8.91709E+03  2.07238E+03  1.10861E+04
 -5.19649E+03  9.84137E+03 -7.16921E+03  4.02097E+03 -5.21896E+03 -1.56999E+03 -2.11810E+03 -1.70589E+03
 -8.71340E+02  6.66385E+02 -2.05254E+03  2.94664E+03 -4.47414E+03  2.38742E+03 -7.16319E+03 -1.06314E+03
 -4.55308E+03 -7.37501E+03  1.46819E+02 -9.70710E+03  5.78657E+03 -9.32787E+03  9.04889E+03 -1.94890E+03
  8.41538E+03  4.99685E+03  3.82876E+03  8.25308E+03 -2.35922E+03  9.43613E+03 -6.65863E+03  6.25730E+03
 -8.51805E+03  3.28209E+02 -6.91010E+03 -5.56326E+03 -9.87732E+02 -7.31122E+03  4.32340E+03 -5.73161E+03
  5.44866E+03 -2.13593E+03  3.75748E+03  1.86502E+03  1.26115E+03  2.94751E+03  9.60498E+02  1.26653E+03
  2.12757E+03  8.29911E+02  2.09078E+03  1.50204E+03  2.11300E+03  3.54738E+03  1.58111E+03  4.61902E+03
 -1.76273E+03  7.63526E+03 -6.70169E+03  7.51255E+03 -8.88182E+03  2.44355E+03 -9.93540E+03 -3.02762E+03
 -4.56750E+03 -8.66417E+03  1.14077E+03 -1.05245E+04  5.20133E+03 -6.16413E+03  7.34551E+03 -2.18310E+03
  5.33794E+03  4.51846E+03  8.39111E+02  5.53088E+03 -2.22813E+03  3.61723E+03 -2.83964E+03 -9.69514E+02
 -1.59046E+03 -3.74311E+03  2.13970E+03 -4.16692E+03  3.67783E+03 -1.81066E+03  3.81843E+03  8.87840E+02
  2.08703E+03  1.53002E+03  1.16157E+03  1.31106E+02 -6.10349E+02  1.81745E+03  1.39511E+03 -6.15299E+02
  1.36957E+03 -1.02506E+03  3.67509E+03  1.82120E+03  1.49882E+03  5.29012E+03 -9.92412E+02  5.93132E+03
 -4.28249E+03  3.77652E+03 -5.10681E+03  6.84890E+02 -5.40298E+03 -1.86347E+03 -1.52117E+03 -3.16855E+03
  7.65640E+02 -3.70333E+03  2.38365E+03 -1.68425E+03  1.25450E+03  2.05719E+03 -1.16774E+03  3.32112E+03
 -3.80714E+03  1.34666E+03 -4.05081E+03 -2.58178E+03 -2.37557E+03 -4.94030E+03  5.63359E+02 -4.68570E+03
  2.48463E+03 -2.11098E+03  2.33193E+03 -2.12778E+02  3.23189E+03  3.96755E+02  2.38468E+02  2.24687E+03
 -1.76974E+03  5.88254E+02 -2.36398E+03 -1.45289E+03  1.04700E+03 -3.34853E+03  4.35227E+03 -2.62162E+03
  5.07360E+03  1.01441E+03  5.71304E+03  3.12177E+03  1.37488E+03  5.42674E+03 -1.97004E+03  4.24728E+03
 -3.79659E+03  2.77430E+03 -3.99714E+03 -1.19618E+03 -2.63249E+03 -3.90623E+03  9.53799E+02 -2.67951E+03
  3.50080E+03 -1.32764E+03  2.79330E+03  1.27424E+03  1.10797E+03  3.43632E+03  3.08768E+02  2.58414E+03
 -1.67253E+03  2.69663E+03 -1.57640E+03  3.32843E+02 -8.70468E+01  6.94798E+02 -6.37894E+02  1.48782E+02
 -1.60457E+03  2.20945E+03 -3.74977E+03  1.56674E+03 -4.47256E+03 -8.11952E+01 -6.14424E+03 -3.56571E+03
 -2.86422E+03 -6.79604E+03  1.37855E+03 -7.73905E+03  4.30416E+03 -6.59113E+03  8.02776E+03 -2.91949E+03
  7.04532E+03  7.77794E+02  2.98566E+03  5.09306E+03  3.79070E+02  5.10999E+03 -2.44720E+03  3.68350E+03
 -3.31472E+03  1.74432E+03 -1.15035E+03 -7.73862E+02 -8.29085E+02  9.53861E+02 -5.60462E+02 -3.27814E+02
 -1.82782E+03  7.71393E+02 -1.67525E+03 -4.37039E+02 -1.78209E+02 -1.69381E+03 -1.27793E+02 -3.08566E+03
  2.16561E+03 -2.56974E+03  2.28139E+03  8.10692E+02  3.80169E+03  3.93472E+03  2.89611E+02  5.27953E+03
 -2.20989E+03  5.67598E+03 -4.67174E+03  3.25284E+03 -6.60735E+03 -5.18371E+02 -4.90515E+03 -4.09766E+03
 -2.20422E+03 -4.97393E+03  1.00932E+03 -4.92213E+03  3.29018E+03 -1.62648E+03  3.30159E+03  5.90003E+02
  1.26007E+03  1.82667E+03  5.55538E+02  1.63766E+03 -7.22473E+02 -4.18823E+02  3.64760E+02 -1.20549E+03
  1.74571E+03 -1.19825E+02  1.69288E+03  1.09582E+02  1.00654E+03  2.25838E+03  5.73235E+02  2.26241E+03
 -2.26954E+03  2.64707E+03 -2.47226E+03  7.25347E+02 -2.78290E+03 -2.30827E+03 -6.23242E+01 -4.53993E+03
  2.12687E+03 -2.80642E+03  2.97479E+03 -1.10980E+03  4.16622E+03  3.56458E+02  2.38345E+03  2.87823E+03
  2.38137E+02  3.33888E+03 -9.24597E+02  2.22263E+03 -1.72596E+03  1.46408E+03 -2.16070E+03  4.43791E+02
 -1.27443E+03  1.10478E+02 -1.41721E+03  7.60528E+02 -2.18701E+03  8.31947E+02 -2.12000E+03 -4.81057E+02
 -2.80033E+03 -9.04259E+02 -8.97794E+02 -3.29749E+03  1.60888E+03 -3.68588E+03  2.97313E+03 -1.68488E+03
  2.82569E+03  5.64085E+01  1.05705E+03  1.51962E+03 -1.59135E+02  3.18077E+03 -1.94102E+03  2.37819E+03
