 $NMID ID='MM_0lb_SNR400_18hz_g45_5.RAW', FMTDAT='(8E13.5)'
 TRAMP=1., VOLUME=1. $END
  3.09938E+05  7.83766E+02  3.37759E+05  2.50667E+05  8.42375E+04  3.37074E+05 -1.32780E+05  2.50746E+05
 -1.89362E+05  8.25593E+04 -1.10870E+05 -3.32514E+04  1.33123E+03 -5.07485E+04  5.38093E+04  2.87491E+02
  3.46780E+04  5.27081E+04 -1.67946E+04  7.51652E+04 -6.04513E+04  6.30045E+04 -8.29891E+04  3.17349E+04
 -7.94430E+04 -1.15872E+04 -5.66890E+04 -5.00706E+04 -1.46387E+04 -6.87426E+04  2.67141E+04 -4.51963E+04
  3.92752E+04  3.66045E+03  1.59480E+04  4.68956E+04 -3.39926E+04  4.60181E+04 -6.53656E+04 -4.32899E+02
 -5.13776E+04 -5.56297E+04 -6.40653E+03 -7.50355E+04  3.32763E+04 -5.33466E+04  4.63323E+04 -1.63413E+04
  4.17206E+04  1.15012E+04  3.09787E+04  2.44887E+04  1.51890E+04  2.82544E+04 -4.33711E+03  2.69153E+04
 -2.16365E+04  1.25271E+04 -1.89913E+04 -4.35068E+03  4.27058E+03 -7.44031E+03  2.09889E+04  1.11061E+04
  7.54014E+03  3.32569E+04 -3.07911E+04  3.38428E+04 -6.07861E+04  2.08125E+03 -5.60205E+04 -4.15729E+04
 -1.23274E+04 -6.15438E+04  3.86408E+04 -4.30626E+04  5.57339E+04 -2.25902E+03  3.14992E+04  3.09222E+04
 -5.99445E+03  3.35289E+04 -2.92133E+04  1.34908E+04 -2.81994E+04 -5.61868E+03 -1.46283E+04 -1.00216E+04
 -7.51300E+03 -1.10838E+04 -1.01347E+03 -1.69601E+04  6.50960E+03 -2.24890E+04  1.48946E+04 -1.41495E+04
  1.22712E+04  3.97826E+03 -6.52171E+03  1.24854E+04 -1.86066E+04 -2.47050E+03 -8.13189E+03 -3.04338E+04
  2.12074E+04 -4.03074E+04  4.47893E+04 -1.85993E+04  4.30575E+04  1.80476E+04  1.45030E+04  4.19450E+04
 -1.51146E+04  3.11697E+04 -2.31065E+04  9.85193E+02 -8.70588E+03 -2.62824E+04  2.01569E+04 -3.13459E+04
  3.85638E+04 -7.60358E+03  3.19102E+04  2.22682E+04  1.56576E+04  4.27280E+04 -7.94162E+03  4.56978E+04
 -2.85887E+04  3.02228E+04 -3.75139E+04  8.60946E+03 -3.79422E+04 -1.53094E+04 -2.11388E+04 -3.51548E+04
  6.56010E+03 -3.47520E+04  2.95685E+04 -1.31571E+04  2.73973E+04  1.09155E+04  3.12781E+03  1.78141E+04
 -1.29262E+04  7.08466E+03 -9.59671E+03 -8.48936E+03  6.23234E+03 -1.03224E+04  1.77924E+04  6.76761E+03
  1.26356E+04  2.11895E+04 -6.49264E+03  2.37364E+04 -2.16034E+04  9.33003E+03 -2.57015E+04 -6.18200E+03
 -1.66190E+04 -1.65696E+04 -5.69310E+03 -1.67753E+04  3.62923E+03 -1.44167E+04  1.29718E+04 -1.46304E+04
  2.18497E+04 -1.13461E+04  2.81964E+04  9.29343E+02  2.10705E+04  1.63449E+04  4.29720E+03  3.27004E+04
 -1.62803E+04  2.73910E+04 -2.57722E+04  9.34784E+03 -1.95410E+04 -1.04866E+04 -4.23844E+03 -1.37439E+04
  2.63651E+03 -4.53596E+03 -2.61823E+03  5.40406E+03 -1.31619E+04  5.09557E+03 -1.36333E+04 -4.87214E+03
 -8.70219E+03 -1.56644E+04  4.51774E+03 -1.94709E+04  1.26933E+04 -1.42790E+04  1.45094E+04 -1.22786E+03
  8.64952E+03  1.10877E+04 -1.26850E+03  1.61488E+04 -1.00601E+04  9.22387E+03 -1.60125E+04 -3.40624E+03
 -1.18357E+04 -1.38322E+04 -1.76080E+03 -1.93364E+04  9.28450E+03 -1.60554E+04  1.65847E+04 -7.15001E+03
  1.48099E+04  8.18171E+01  1.05512E+04  3.09992E+03  5.47153E+03  5.46420E+02  8.03926E+03 -9.69540E+02
  1.41031E+04  2.73373E+03  1.49128E+04  1.31109E+04  9.19073E+03  2.48398E+04 -2.76916E+03  2.68196E+04
 -1.61647E+04  2.03519E+04 -2.48838E+04  9.37503E+03 -2.50508E+04 -1.42983E+03 -2.25456E+04 -1.40758E+04
 -9.79915E+03 -2.05995E+04  7.28874E+03 -1.91735E+04  1.65327E+04 -1.12743E+04  1.62436E+04  3.64464E+03
  6.67036E+03  1.07954E+04 -7.49469E+03  1.06631E+04 -1.34592E+04  3.04607E+03 -1.02980E+04 -8.12685E+03
  3.06261E+02 -1.26198E+04  6.14707E+03 -9.94913E+03  8.29995E+03 -1.38591E+03  1.86011E+03  4.85917E+03
 -5.38665E+03  1.59763E+03 -3.79291E+03 -4.77620E+03  9.40327E+02 -1.03683E+04  7.93248E+03 -1.03941E+04
  1.22058E+04 -4.39753E+03  1.25524E+04  2.64667E+03  1.06132E+04  9.28059E+03  4.87216E+03  1.46448E+04
 -1.70852E+03  1.63462E+04 -9.68606E+03  9.95788E+03 -1.11555E+04  2.84802E+03 -8.00650E+03 -2.67714E+03
 -4.34783E+03 -3.57918E+03 -9.61161E+02  1.39988E+03 -2.02318E+03  2.26191E+03 -2.85517E+03  3.51618E+03
 -8.23526E+03 -5.23182E+02 -9.22927E+03 -7.87778E+03 -3.82827E+03 -1.21708E+04  3.37691E+03 -8.83693E+03
  7.13529E+03 -3.41869E+03  5.98493E+03  2.49980E+03  8.44844E+02  3.33471E+03 -3.51901E+03 -4.66868E+02
 -3.18506E+03 -5.38920E+03 -8.33667E+02 -7.23212E+03  4.31010E+03 -8.59589E+03  1.02268E+04 -4.09582E+03
  1.22589E+04  6.78303E+01  9.05829E+03  6.33318E+03  2.06756E+03  8.79116E+03 -5.18997E+03  8.45854E+03
 -6.74289E+03  2.53988E+03 -3.85430E+03 -1.19470E+03  1.08965E+03 -1.78638E+03  4.79479E+03 -5.76294E+02
  4.30888E+03  3.70004E+03  1.74560E+03  6.19887E+03 -4.22617E+03  6.17822E+03 -8.34944E+03  1.90681E+03
 -5.01963E+03 -3.57942E+03  3.00539E+01 -6.70543E+03  4.03206E+03 -3.27227E+03  3.17226E+03  1.48791E+03
  1.19775E+02  3.18325E+03 -3.83285E+03  5.42592E+03 -4.65944E+03  2.68456E+03 -4.38094E+03 -9.17059E+02
 -2.81829E+03 -6.34624E+03  9.79930E+02 -7.48328E+03  5.69463E+03 -4.50892E+03  6.43904E+03  7.84157E+02
  4.75983E+03  5.66857E+03  2.24015E+02  7.32514E+03 -4.81509E+03  4.51406E+03 -5.56184E+03 -4.46560E+02
 -5.44441E+03 -5.48841E+03 -1.73310E+03 -5.38176E+03  2.38036E+03 -4.63758E+03  2.85668E+03 -2.60552E+03
  3.19847E+03 -8.22640E+01 -1.13034E+02  1.15290E+03  3.12886E+02 -3.89022E+02  3.16590E+01 -1.65549E+03
  3.78370E+03 -5.78873E+02  5.09442E+03  1.15694E+03  6.26041E+03  3.18339E+03  5.67250E+03  7.24826E+03
 -1.78766E+03  8.61344E+03 -8.51423E+03  6.97289E+03 -1.03872E+04  1.26370E+03 -8.36010E+03 -2.46817E+03
 -4.19648E+03 -6.83105E+03 -3.39737E+02 -5.25176E+03  2.49407E+03 -2.21391E+03  2.08016E+03 -2.72933E+03
  1.68289E+03 -1.44157E+03  1.90277E+03 -2.44468E+03  3.75351E+03 -1.56624E+03  3.64301E+03  3.72251E+02
  4.47759E+03  1.37792E+03  1.05751E+03  3.73724E+03 -1.74066E+03  2.62900E+03 -5.08980E+03  2.37870E+03
 -4.79335E+03 -1.24777E+03 -2.74477E+03 -3.44256E+03  6.52422E+02 -5.42104E+03  3.58833E+03 -5.87669E+03
  5.77668E+03 -3.18666E+03  6.79463E+03  5.24810E+02  4.89826E+03  4.58171E+03  9.67716E+02  6.29661E+03
 -2.33848E+03  6.24234E+03 -3.60948E+03  2.14500E+03 -1.47478E+03 -1.46111E+03 -3.47103E+02 -4.41696E+02
 -7.01086E+02  1.08294E+01 -1.27672E+03  2.49773E+03 -3.05989E+03  1.22669E+03 -3.78453E+03 -4.44521E+02
 -1.39499E+03 -3.83738E+03  9.01288E+02 -5.28238E+03  2.69117E+03 -4.81824E+03  3.47803E+03 -1.22372E+03
  4.23383E+03  2.92556E+03  2.43305E+03  4.08579E+03 -1.05637E+03  3.83207E+03 -2.58950E+03  2.60178E+03
 -3.80957E+03  9.43830E+02 -3.56729E+03 -2.62966E+03  1.76739E+02 -3.04407E+03  1.36986E+03 -2.88018E+03
  3.09235E+03 -1.38771E+03  1.85530E+03  8.40998E+02  5.71924E+02  1.64231E+03  1.00146E+02  2.45025E+02
  1.31849E+03  7.00227E+02  1.63315E+03  9.56059E+02  1.09475E+03  1.97253E+03  1.71210E+03  2.09559E+03
 -1.09789E+03  2.80436E+03 -2.28255E+03  3.87506E+03 -3.22026E+03  1.41343E+03 -4.56964E+03 -2.20264E+02
 -2.13831E+03 -4.05661E+03  9.78441E+02 -4.83394E+03  2.32213E+03 -2.59439E+03  3.66383E+03 -8.74875E+02
  2.84557E+03  1.44880E+03  1.03661E+03  2.22530E+03 -4.51408E+02  1.88395E+03 -1.26039E+03  2.04635E+02
 -1.05949E+03 -2.00059E+03  1.22290E+03 -1.79668E+03  1.39039E+03 -1.19221E+03  1.93408E+03  4.16882E+01
  9.92049E+02  1.31994E+02  7.71895E+02  1.86135E+01 -3.15604E+02  8.90388E+02  1.81950E+03  9.07105E+01
  4.36552E+02 -7.88618E+01  2.02576E+03  1.03660E+03  4.15845E+02  2.26215E+03 -5.47069E+02  3.00102E+03
 -1.67488E+03  1.42307E+03 -2.85932E+03  5.11679E+02 -2.16321E+03 -6.05408E+02 -1.09132E+02 -7.79377E+02
  5.87960E+02 -1.52868E+03  1.06081E+03 -7.74350E+02  5.43168E+02  1.41474E+03 -6.39930E+02  1.41436E+03
 -1.12306E+03  1.03812E+03 -1.06732E+03 -1.21944E+03 -2.44698E+02 -2.82676E+03  1.79215E+01 -1.93076E+03
  7.76929E+02 -4.80097E+02  4.53542E+02  3.05692E+02  1.35549E+03  8.36717E+01  5.31638E+02  1.09566E+03
 -1.95916E+02  3.08782E+02 -8.82242E+02  1.40145E+02  4.49181E+02 -8.08150E+02  1.59790E+03 -7.60987E+02
  7.22414E+02 -2.32214E+02  2.34248E+03  1.06949E+03  1.18756E+03  1.56280E+03 -5.99097E+02  2.35479E+03
 -1.99870E+03 -2.67574E+01 -1.89041E+03 -2.96986E+02 -8.61579E+02 -1.41529E+03  4.62205E+02 -5.76576E+02
  1.36480E+03 -1.04049E+03  3.39367E+02  8.41211E+02  3.99584E+02  1.01992E+03  2.49287E+02  1.12940E+03
 -4.56838E+01  8.78877E+02 -1.15982E+02 -1.65379E+02  4.23300E+02  2.74777E+02 -3.92967E+02  4.22202E+02
 -7.63483E+02  1.41634E+03 -1.93019E+03  3.10974E+02 -2.01919E+03  7.31478E+02 -2.78476E+03 -9.66038E+02
 -6.24849E+02 -2.18262E+03  4.12918E+02 -2.97345E+03  1.18535E+03 -2.98316E+03  2.87718E+03 -7.83399E+02
  2.28521E+03 -1.28046E+02  1.35894E+03  1.50984E+03 -5.49611E+02  1.60228E+03 -1.11646E+03  1.40432E+03
 -1.36691E+03  9.65400E+02 -6.28541E+02 -6.25540E+01 -7.65463E+02  7.06530E+02 -7.06137E+02  3.11077E+02
 -9.24580E+02 -1.19332E+02 -1.09890E+03  2.06146E+02 -7.61728E+01 -7.88882E+02 -9.89076E+02 -1.49808E+03
  1.33007E+03 -3.44438E+02  1.08037E+03 -3.08260E+02  1.40616E+03  7.73243E+02 -6.03324E+02  1.59572E+03
 -5.10446E+02  2.63493E+03 -1.58184E+03  1.19169E+03 -2.05437E+03 -4.66087E+02 -1.21004E+03 -1.65120E+03
 -1.27177E+03 -1.94462E+03 -2.01348E+02 -1.14264E+03  8.42195E+02 -1.23732E+03  1.00730E+03 -4.54162E+02
  3.98396E+02  3.13815E+02 -1.71769E+02  7.74509E+02 -1.70459E+02  2.97047E+02 -1.66109E+02 -3.78520E+02
  2.52687E+02  2.63360E+02  2.72186E+01  1.76656E+02 -3.01063E+02  2.18907E+02  5.72940E+02  4.43214E+02
 -5.86129E+02  4.98979E+02 -5.36608E+02 -2.31781E+02 -9.39356E+02 -1.18188E+02 -8.12504E+01 -1.28683E+03
  6.77709E+02 -2.45455E+02  7.64938E+02  4.15472E+01  9.58994E+02 -4.69180E+02  8.61414E+02  1.67716E+03
  3.25073E+02  7.74817E+02 -4.56004E+02  1.15657E+02 -5.24240E+02  4.62767E+02  1.79400E+02  2.89884E+02
 -2.26366E+02 -3.20125E+02 -6.20212E+02 -6.38694E+01 -6.22392E+02  8.54880E+01 -1.03487E+03  1.24055E+02
 -1.29901E+03  3.63732E+02  9.79657E+00 -1.04368E+03  7.08265E+02 -1.22095E+03  7.66776E+02 -4.20473E+02
  6.93221E+02  4.14351E+02 -6.80489E+02  1.32360E+02 -2.57950E+02  3.17370E+02 -7.55243E+02  6.98919E+02
