 $NMID ID='MM_0lb_SNR400_8hz_g55_91.RAW', FMTDAT='(8E13.5)'
 TRAMP=1., VOLUME=1. $END
  3.09781E+05  3.21164E+02  3.37714E+05  2.50793E+05  8.47579E+04  3.38607E+05 -1.32806E+05  2.52671E+05
 -1.91542E+05  8.44389E+04 -1.11630E+05 -3.26976E+04  1.11033E+02 -5.07396E+04  5.35324E+04  2.55031E+01
  3.61924E+04  5.24908E+04 -1.63811E+04  7.61797E+04 -6.10734E+04  6.49777E+04 -8.58476E+04  3.23992E+04
 -8.28176E+04 -1.23246E+04 -5.86262E+04 -5.27182E+04 -1.57413E+04 -7.10449E+04  2.79168E+04 -4.64068E+04
  4.11412E+04  3.84004E+03  1.66949E+04  4.83644E+04 -3.56605E+04  4.84348E+04 -6.83940E+04  6.14356E+02
 -5.57060E+04 -5.80119E+04 -7.07010E+03 -7.97267E+04  3.47260E+04 -5.74369E+04  4.96644E+04 -1.82558E+04
  4.55272E+04  1.16790E+04  3.32317E+04  2.67968E+04  1.62586E+04  3.14171E+04 -6.01166E+03  2.77950E+04
 -2.28382E+04  1.20771E+04 -1.78137E+04 -6.28969E+03  7.50805E+03 -7.78252E+03  2.43378E+04  1.38309E+04
  6.73584E+03  3.77212E+04 -3.45068E+04  3.75244E+04 -6.71181E+04  2.13238E+03 -5.94663E+04 -4.49521E+04
 -1.21597E+04 -6.66635E+04  4.13258E+04 -4.77294E+04  6.12430E+04 -3.00170E+03  3.75485E+04  3.51771E+04
 -5.52273E+03  4.07176E+04 -3.18979E+04  2.00662E+04 -3.47196E+04 -3.66010E+03 -2.04755E+04 -1.33892E+04
 -9.89356E+03 -1.58310E+04 -9.52770E+02 -1.99911E+04  8.82089E+03 -2.37198E+04  1.52006E+04 -1.23302E+04
  1.07703E+04  6.53378E+03 -1.14256E+04  1.26461E+04 -2.45352E+04 -7.78318E+03 -8.84247E+03 -3.79405E+04
  2.55143E+04 -4.75283E+04  5.35223E+04 -2.22979E+04  5.01750E+04  2.10171E+04  1.75664E+04  4.78858E+04
 -1.65218E+04  3.60875E+04 -2.85658E+04  3.67583E+03 -1.20883E+04 -3.02500E+04  2.17849E+04 -3.79336E+04
  4.56436E+04 -1.16586E+04  4.18011E+04  2.50827E+04  2.25541E+04  5.14369E+04 -7.65907E+03  5.71351E+04
 -3.67328E+04  3.89786E+04 -4.90139E+04  1.10656E+04 -4.95868E+04 -1.97691E+04 -2.71987E+04 -4.40051E+04
  7.29592E+03 -4.34829E+04  3.42802E+04 -1.82042E+04  3.25265E+04  1.12268E+04  5.75781E+03  2.12803E+04
 -1.38942E+04  1.08569E+04 -1.13943E+04 -7.67656E+03  6.33735E+03 -1.15421E+04  1.89915E+04  4.83135E+03
  1.51797E+04  2.30916E+04 -4.95159E+03  2.84161E+04 -2.31897E+04  1.46689E+04 -3.28925E+04 -2.42515E+03
 -2.69282E+04 -1.84329E+04 -1.27951E+04 -2.57007E+04  4.52381E+03 -2.80507E+04  2.08795E+04 -2.42520E+04
  3.44705E+04 -1.46614E+04  3.95339E+04  5.01679E+03  2.86792E+04  2.51578E+04  5.63532E+03  4.24702E+04
 -2.11735E+04  3.46050E+04 -3.06687E+04  1.20227E+04 -2.25736E+04 -1.00482E+04 -5.56952E+03 -1.21594E+04
  1.17156E+03 -1.35452E+03 -8.79860E+03  9.20914E+03 -2.23635E+04  5.50770E+03 -2.19346E+04 -1.02878E+04
 -1.22456E+04 -2.51635E+04  5.42754E+03 -2.98344E+04  1.99688E+04 -2.13105E+04  2.34434E+04 -2.29769E+03
  1.54321E+04  1.70804E+04 -1.46341E+03  2.44480E+04 -1.74436E+04  1.42048E+04 -2.54327E+04 -5.68652E+03
 -1.87547E+04 -2.22633E+04 -2.33015E+03 -2.99330E+04  1.34671E+04 -2.48767E+04  2.45821E+04 -1.38236E+04
  2.35119E+04  2.21691E+02  1.67631E+04  5.58565E+03  9.54174E+03  1.38807E+03  1.30378E+04 -1.33427E+03
  2.33881E+04  3.23469E+03  2.67669E+04  1.96241E+04  1.85687E+04  3.93586E+04 -2.31087E+03  4.83924E+04
 -2.66945E+04  3.97357E+04 -4.46579E+04  2.04867E+04 -4.84663E+04 -3.10950E+03 -3.87619E+04 -2.89230E+04
 -1.49966E+04 -4.02771E+04  1.52144E+04 -3.56582E+04  3.01830E+04 -1.62484E+04  2.52675E+04  9.13555E+03
  8.59423E+03  2.00522E+04 -1.34452E+04  1.64275E+04 -2.17171E+04  2.29090E+03 -1.54208E+04 -1.44529E+04
 -2.25228E+02 -2.03021E+04  1.07358E+04 -1.47851E+04  1.40583E+04 -8.59767E+02  4.31876E+03  9.47184E+03
 -9.55793E+03  3.98656E+03 -9.29525E+03 -7.83506E+03 -3.28438E+03 -1.91072E+04  1.30039E+04 -2.27308E+04
  2.49104E+04 -1.23852E+04  2.92239E+04  2.88290E+03  2.44304E+04  2.01552E+04  1.19813E+04  3.18112E+04
 -6.27098E+03  3.35996E+04 -2.20084E+04  2.11587E+04 -2.52463E+04  3.09530E+03 -1.61565E+04 -6.35309E+03
 -7.13455E+03 -8.55353E+03 -3.83843E+02  6.19645E+02 -2.42929E+03  3.14012E+03 -9.48546E+03  6.06551E+03
 -1.51887E+04 -1.07320E+03 -1.59426E+04 -1.27087E+04 -6.29998E+03 -2.07522E+04  7.14656E+03 -1.72513E+04
  1.41948E+04 -6.68000E+03  9.38804E+03  5.11132E+03  4.32687E+02  6.50175E+03 -9.13359E+03  3.00300E+01
 -7.66799E+03 -1.04956E+04 -1.88608E+03 -1.70816E+04  1.09090E+04 -1.86733E+04  2.20780E+04 -1.03940E+04
  2.57964E+04  3.53910E+03  1.79691E+04  1.55535E+04  2.72924E+03  1.99189E+04 -1.06834E+04  1.69062E+04
 -1.31504E+04  4.38845E+03 -6.65326E+03 -3.96348E+03  2.25541E+03 -5.30186E+03  8.84084E+03 -1.24125E+03
  8.01337E+03  8.26396E+03  1.55185E+03  1.34738E+04 -9.84615E+03  1.32140E+04 -1.76008E+04  3.52025E+03
 -1.25600E+04 -8.69821E+03 -1.07257E+02 -1.50487E+04  1.00360E+04 -7.58345E+03  1.06102E+04  3.23787E+03
  1.87513E+03  1.14813E+04 -1.02353E+04  1.32225E+04 -1.53977E+04  5.46959E+03 -1.61298E+04 -5.18868E+03
 -9.72147E+03 -1.81557E+04  4.19492E+03 -2.06658E+04  1.70703E+04 -1.21827E+04  1.92201E+04  3.62150E+03
  1.15559E+04  1.50640E+04 -1.44425E+03  1.74157E+04 -1.30245E+04  9.56531E+03 -1.40696E+04 -1.66742E+03
 -1.16626E+04 -1.22806E+04 -1.46303E+03 -1.26899E+04  7.41540E+03 -1.03663E+04  8.59637E+03 -3.75316E+03
  5.22660E+03  2.47457E+03 -1.98123E+02  2.41305E+03 -3.55082E+01 -3.88334E+03  2.20447E+03 -8.92817E+03
  1.23086E+04 -5.89834E+03  1.91877E+04  2.64380E+03  1.76424E+04  1.24784E+04  1.06339E+04  2.42725E+04
 -6.22123E+03  2.77632E+04 -2.18892E+04  1.99585E+04 -2.86976E+04  3.64521E+03 -2.37755E+04 -1.02377E+04
 -1.16490E+04 -1.86685E+04 -3.54184E+02 -1.68463E+04  5.74959E+03 -9.87574E+03  5.90959E+03 -4.66084E+03
  4.16832E+03 -3.91967E+03  4.71923E+03 -4.47386E+03  6.26744E+03 -4.16608E+03  9.13691E+03 -1.71862E+03
  1.18455E+04  3.00653E+03  7.39304E+03  1.00916E+04 -2.42364E+03  1.26796E+04 -1.26051E+04  9.10068E+03
 -1.79199E+04 -2.22587E+03 -1.12274E+04 -1.15493E+04 -1.92457E+03 -1.77355E+04  9.18875E+03 -1.79567E+04
  1.91151E+04 -1.01534E+04  2.29079E+04  3.65679E+03  1.49723E+04  1.58781E+04  2.19279E+03  2.10277E+04
 -8.62447E+03  1.66728E+04 -1.19968E+04  6.41885E+03 -7.36478E+03 -1.64914E+03 -2.93638E+03 -2.29244E+03
 -1.46982E+03 -8.99642E+02 -2.95943E+03  2.79165E+03 -6.42954E+03  2.37888E+03 -1.19501E+04 -2.31206E+03
 -8.33267E+03 -1.06436E+04 -3.48148E+02 -1.63592E+04  1.01698E+04 -1.53318E+04  1.73801E+04 -4.72637E+03
  1.67849E+04  8.65405E+03  8.13863E+03  1.54459E+04 -4.01166E+03  1.71869E+04 -1.21092E+04  1.09070E+04
 -1.61895E+04 -5.13374E+02 -1.20984E+04 -1.07147E+04 -2.24081E+03 -1.44188E+04  7.54096E+03 -1.12263E+04
  1.08773E+04 -2.96170E+03  7.90150E+03  2.80190E+03  2.32420E+03  5.21172E+03  1.52709E+03  2.85316E+03
  2.88968E+03  1.77316E+03  3.71414E+03  1.74985E+03  5.68179E+03  5.02021E+03  4.19090E+03  9.23183E+03
 -2.60807E+03  1.41607E+04 -1.25158E+04  1.31872E+04 -1.85240E+04  3.28722E+03 -1.88723E+04 -7.53838E+03
 -9.35912E+03 -1.71129E+04  3.18924E+03 -1.87899E+04  1.09883E+04 -1.29228E+04  1.46304E+04 -3.32169E+03
  1.10983E+04  6.28703E+03  3.14603E+03  1.05176E+04 -4.84227E+03  6.91327E+03 -7.85564E+03 -1.22464E+03
 -2.91251E+03 -8.40419E+03  4.47378E+03 -8.04978E+03  7.30596E+03 -3.70112E+03  6.37179E+03  1.37069E+03
  4.62454E+03  2.94345E+03  1.16313E+03  3.00032E+03 -1.35816E+02  2.81804E+03  2.22174E+03 -6.37098E+02
  2.97230E+03 -6.69186E+02  7.08172E+03  3.15769E+03  4.78758E+03  9.35423E+03 -1.40504E+03  1.33310E+04
 -8.41764E+03  8.60930E+03 -1.24405E+04  2.49191E+03 -1.03455E+04 -4.08038E+03 -3.56942E+03 -8.03000E+03
  2.84369E+02 -7.24441E+03  4.60402E+03 -4.05853E+03  3.82256E+03  4.05475E+03 -1.34997E+03  6.16765E+03
 -7.98618E+03  4.34587E+03 -8.21312E+03 -4.66458E+03 -4.47597E+03 -9.47818E+03  1.73384E+03 -1.03922E+04
  6.75230E+03 -7.10187E+03  6.77088E+03 -8.78896E+02  5.98946E+03  3.35573E+03  1.28021E+03  5.94358E+03
 -3.96731E+03  1.65563E+03 -4.39957E+03 -3.50475E+03  1.88689E+03 -7.09919E+03  9.41233E+03 -6.77491E+03
  1.05637E+04  2.12491E+03  1.01753E+04  8.35221E+03  2.78570E+03  1.31192E+04 -4.96477E+03  1.15000E+04
 -9.83909E+03  5.07143E+03 -1.03728E+04 -1.79321E+03 -5.97190E+03 -7.97402E+03  1.53982E+03 -7.96431E+03
  7.66253E+03 -3.05031E+03  6.47166E+03  2.61746E+03  2.04416E+03  7.20928E+03 -1.53174E+03  5.33741E+03
 -2.91613E+03  4.06332E+03 -2.49626E+03  8.38958E+02 -1.56280E+03  1.11849E+03 -1.70120E+03  2.11948E+03
 -2.78642E+03  4.47029E+03 -8.04851E+03  4.09046E+03 -1.23322E+04  2.88644E-02 -1.36160E+04 -8.08992E+03
 -7.40038E+03 -1.63786E+04  2.39213E+03 -1.85807E+04  1.15705E+04 -1.49085E+04  1.80193E+04 -5.37313E+03
  1.71205E+04  3.60218E+03  1.10852E+04  1.05836E+04  1.38781E+03  1.32167E+04 -5.14625E+03  9.35184E+03
 -7.02620E+03  3.85342E+03 -3.63935E+03 -1.33738E+03 -1.37736E+03 -1.62912E+03 -1.25269E+02  2.11301E+02
 -1.87960E+03  3.46532E+02 -2.53665E+03 -9.84076E+02 -2.55880E+03 -2.95274E+03  8.49534E+02 -4.49814E+03
  5.42998E+03 -4.45954E+03  7.56218E+03  4.09101E+02  9.09865E+03  6.49320E+03  2.22653E+03  1.30982E+04
 -6.47991E+03  1.40229E+04 -1.34765E+04  8.89051E+03 -1.61734E+04 -1.25322E+03 -1.25040E+04 -9.28055E+03
 -4.70550E+03 -1.38467E+04  3.02679E+03 -1.21799E+04  8.06406E+03 -6.02134E+03  8.64574E+03 -6.11752E+00
  4.50621E+03  3.53391E+03 -4.96318E+02  3.63970E+03 -2.39111E+03  5.44660E+00  3.76983E+02 -2.83734E+03
  3.43082E+03 -1.96042E+03  5.55245E+03  1.93683E+03  4.16524E+03  6.16050E+03 -4.49745E+02  6.50518E+03
 -6.66660E+03  6.99789E+03 -8.36317E+03  7.55233E+02 -8.28493E+03 -6.89520E+03 -1.77129E+03 -1.14822E+04
  6.90712E+03 -9.49256E+03  1.07834E+04 -2.75866E+03  1.02400E+04  2.59453E+03  5.16533E+03  7.98846E+03
  1.64076E+03  8.84808E+03 -3.51848E+03  7.43696E+03 -6.50244E+03  3.84734E+03 -4.44563E+03  2.33898E+02
 -2.12648E+03 -7.47019E+02 -3.12663E+03  1.20607E+03 -5.10618E+03  4.71519E+02 -6.25859E+03 -1.44425E+03
 -6.15029E+03 -5.16577E+03 -1.99238E+03 -8.40545E+03  4.02871E+03 -9.46254E+03  7.75410E+03 -4.53588E+03
  7.68904E+03  1.49521E+03  5.05221E+03  6.69977E+03 -1.41916E+03  9.19664E+03 -7.69707E+03  5.61409E+03
