 $NMID ID='MM_0lb_SNR400_7hz_g60_92.RAW', FMTDAT='(8E13.5)'
 TRAMP=1., VOLUME=1. $END
  3.10033E+05  1.22156E+03  3.37939E+05  2.51137E+05  8.48872E+04  3.39089E+05 -1.32785E+05  2.53016E+05
 -1.90636E+05  8.46997E+04 -1.12619E+05 -3.33141E+04 -4.22756E+02 -5.08895E+04  5.25331E+04 -3.07204E+02
  3.52107E+04  5.35404E+04 -1.63165E+04  7.74030E+04 -6.07880E+04  6.53344E+04 -8.49302E+04  3.29758E+04
 -8.35210E+04 -1.23100E+04 -5.91156E+04 -5.33233E+04 -1.48551E+04 -7.17729E+04  2.89522E+04 -4.88529E+04
  4.22315E+04  2.89295E+03  1.78846E+04  4.93831E+04 -3.52598E+04  4.87293E+04 -6.85349E+04 -2.03702E+02
 -5.55352E+04 -5.90371E+04 -8.43228E+03 -8.04354E+04  3.55467E+04 -5.72881E+04  5.11577E+04 -1.81203E+04
  4.66009E+04  1.11822E+04  3.32233E+04  2.78232E+04  1.56291E+04  3.14281E+04 -6.35598E+03  2.86028E+04
 -2.24012E+04  1.21313E+04 -1.73431E+04 -6.40389E+03  7.64944E+03 -7.62432E+03  2.43191E+04  1.34429E+04
  6.63743E+03  3.80197E+04 -3.51561E+04  3.80052E+04 -6.80186E+04  2.71519E+03 -5.98221E+04 -4.51915E+04
 -1.35306E+04 -6.73412E+04  4.26298E+04 -4.93462E+04  6.30797E+04 -2.18225E+03  3.76249E+04  3.56531E+04
 -5.27163E+03  4.17132E+04 -3.27940E+04  1.97781E+04 -3.51718E+04 -3.33283E+03 -2.07163E+04 -1.33689E+04
 -1.02021E+04 -1.64102E+04 -5.74787E+02 -2.08116E+04  9.54675E+03 -2.31558E+04  1.63006E+04 -1.18668E+04
  1.00810E+04  7.12182E+03 -1.19858E+04  1.33908E+04 -2.42285E+04 -7.66378E+03 -8.67957E+03 -3.99917E+04
  2.61189E+04 -4.95018E+04  5.35920E+04 -2.19495E+04  4.98560E+04  2.16257E+04  1.81888E+04  4.85552E+04
 -1.64560E+04  3.72366E+04 -2.87955E+04  3.14111E+03 -1.28813E+04 -3.01744E+04  2.14936E+04 -3.94050E+04
  4.74055E+04 -1.19906E+04  4.25760E+04  2.58298E+04  2.36984E+04  5.32779E+04 -7.43214E+03  5.96326E+04
 -3.78331E+04  4.09695E+04 -5.06112E+04  1.16281E+04 -5.13017E+04 -1.94504E+04 -2.76299E+04 -4.48154E+04
  9.29351E+03 -4.47439E+04  3.60014E+04 -1.80085E+04  3.37845E+04  1.05089E+04  5.70412E+03  2.12355E+04
 -1.40437E+04  1.02568E+04 -1.23578E+04 -8.17904E+03  5.61360E+03 -1.17819E+04  1.89841E+04  5.45706E+03
  1.57989E+04  2.32402E+04 -4.09994E+03  2.72690E+04 -2.44153E+04  1.62649E+04 -3.38894E+04 -1.10348E+03
 -2.84233E+04 -1.90959E+04 -1.35332E+04 -2.84250E+04  4.72085E+03 -2.90581E+04  2.17290E+04 -2.59212E+04
  3.57703E+04 -1.51699E+04  4.11521E+04  6.42437E+03  2.86684E+04  2.71811E+04  4.88704E+03  4.46228E+04
 -2.06237E+04  3.59561E+04 -3.30390E+04  1.33863E+04 -2.25502E+04 -1.04326E+04 -6.17173E+03 -1.28645E+04
  2.28052E+02  6.84203E+01 -9.33532E+03  9.16822E+03 -2.28754E+04  5.47897E+03 -2.26203E+04 -1.07369E+04
 -1.32067E+04 -2.57307E+04  6.61071E+03 -3.08687E+04  2.13186E+04 -2.16000E+04  2.57380E+04 -2.61548E+03
  1.63974E+04  1.72580E+04 -2.69566E+03  2.58533E+04 -1.94120E+04  1.52909E+04 -2.65681E+04 -4.49876E+03
 -1.94379E+04 -2.27946E+04 -2.72354E+03 -3.03414E+04  1.37612E+04 -2.67221E+04  2.58542E+04 -1.44063E+04
  2.43526E+04 -1.71145E+02  1.84549E+04  5.42489E+03  9.79439E+03  1.79407E+03  1.37700E+04 -1.97397E+03
  2.36849E+04  3.35706E+03  2.98913E+04  1.99502E+04  2.11345E+04  4.28193E+04 -2.40825E+03  5.01942E+04
 -2.84336E+04  4.24762E+04 -4.74365E+04  2.34940E+04 -5.19858E+04 -4.27562E+03 -4.25149E+04 -3.06781E+04
 -1.49590E+04 -4.35742E+04  1.57277E+04 -3.80823E+04  3.25046E+04 -1.59286E+04  2.71320E+04  9.19953E+03
  8.34171E+03  2.17035E+04 -1.39286E+04  1.71869E+04 -2.27866E+04  2.47510E+03 -1.72870E+04 -1.51722E+04
 -9.93689E+02 -2.20085E+04  1.14498E+04 -1.58736E+04  1.57913E+04 -1.26580E+03  3.04381E+03  9.86494E+03
 -1.02033E+04  5.11310E+03 -1.06374E+04 -7.99106E+03 -2.09202E+03 -2.19885E+04  1.35372E+04 -2.30615E+04
  2.70289E+04 -1.39256E+04  3.15507E+04  4.07378E+03  2.79364E+04  2.15934E+04  1.28251E+04  3.49859E+04
 -7.59412E+03  3.79637E+04 -2.40023E+04  2.31829E+04 -2.72527E+04  5.12390E+03 -1.74818E+04 -7.47551E+03
 -6.87298E+03 -8.28211E+03 -4.81646E+01 -6.53342E+02 -4.07604E+03  4.38361E+03 -8.57119E+03  6.30856E+03
 -1.65726E+04 -9.82159E+02 -1.66839E+04 -1.27269E+04 -7.51428E+03 -2.26049E+04  7.78095E+03 -1.95831E+04
  1.53601E+04 -7.11361E+03  1.03799E+04  4.69883E+03 -5.21185E+02  7.99181E+03 -9.78643E+03 -6.83279E+02
 -8.31726E+03 -1.18314E+04 -2.59360E+02 -1.87459E+04  1.07163E+04 -2.01695E+04  2.47601E+04 -1.08584E+04
  2.71558E+04  3.12875E+03  2.00688E+04  1.76774E+04  4.00400E+03  2.28383E+04 -1.17366E+04  1.88063E+04
 -1.53008E+04  5.70107E+03 -7.98105E+03 -5.00201E+03  3.02029E+03 -4.56105E+03  9.00217E+03 -8.25797E+02
  9.05608E+03  9.84862E+03  1.11418E+03  1.48785E+04 -1.19693E+04  1.42824E+04 -1.91477E+04  3.20319E+03
 -1.41178E+04 -9.74890E+03  4.00363E+02 -1.59571E+04  1.02042E+04 -8.32405E+03  1.22798E+04  4.91846E+03
  3.24611E+03  1.25783E+04 -1.02706E+04  1.39630E+04 -1.69880E+04  6.73652E+03 -1.82705E+04 -6.66873E+03
 -1.03940E+04 -1.96514E+04  5.52923E+03 -2.34055E+04  1.99200E+04 -1.34880E+04  2.17042E+04  3.38723E+03
  1.27585E+04  1.64120E+04 -2.90564E+03  1.85718E+04 -1.49422E+04  1.05357E+04 -1.58362E+04 -1.91027E+03
 -1.36375E+04 -1.26103E+04 -2.01340E+03 -1.56131E+04  7.51161E+03 -1.16714E+04  1.02691E+04 -4.26226E+03
  5.54346E+03  2.23292E+03 -1.62783E+03  2.02525E+03 -1.44427E+03 -4.58113E+03  3.47487E+03 -1.06025E+04
  1.48468E+04 -7.18830E+03  2.13478E+04  1.70014E+03  1.96681E+04  1.44995E+04  1.16793E+04  2.65096E+04
 -6.72835E+03  3.11388E+04 -2.56286E+04  2.25356E+04 -3.22037E+04  5.21815E+03 -2.61329E+04 -1.25068E+04
 -1.42302E+04 -2.20094E+04 -3.42471E+02 -1.90686E+04  5.97092E+03 -1.11596E+04  7.22323E+03 -7.11915E+03
  3.98840E+03 -3.69918E+03  4.23844E+03 -4.82161E+03  7.04103E+03 -4.64747E+03  1.07630E+04 -2.50223E+03
  1.41060E+04  3.27471E+03  7.37223E+03  1.31441E+04 -2.15479E+03  1.46289E+04 -1.41990E+04  1.12799E+04
 -1.87081E+04 -4.22453E+02 -1.40407E+04 -1.45870E+04 -2.70254E+03 -2.12352E+04  1.13285E+04 -1.98633E+04
  2.12221E+04 -1.17820E+04  2.55033E+04  3.28246E+03  1.79724E+04  1.85103E+04  1.91197E+03  2.38564E+04
 -1.02136E+04  1.88204E+04 -1.39351E+04  6.07840E+03 -9.42023E+03 -2.59771E+03 -3.92841E+03 -2.89087E+03
 -1.73319E+03 -4.08993E+02 -2.47792E+03  4.22369E+03 -8.63979E+03  2.48571E+03 -1.34214E+04 -2.41847E+03
 -8.41765E+03 -1.27770E+04 -5.61823E+02 -2.09641E+04  1.30942E+04 -1.70732E+04  2.03714E+04 -6.00088E+03
  1.96626E+04  9.49750E+03  8.83176E+03  1.74478E+04 -4.09104E+03  2.02770E+04 -1.43829E+04  1.20426E+04
 -1.93004E+04  6.82926E+02 -1.45337E+04 -1.19795E+04 -1.52873E+03 -1.75380E+04  8.46933E+03 -1.16955E+04
  1.25046E+04 -3.68409E+03  8.76126E+03  3.82010E+03  2.51810E+03  4.54863E+03  2.06271E+03  2.25712E+03
  3.56916E+03  1.08646E+03  4.13625E+03  1.68470E+03  6.31794E+03  6.55732E+03  4.79002E+03  1.12847E+04
 -4.59324E+03  1.71581E+04 -1.41833E+04  1.55306E+04 -2.12443E+04  3.00814E+03 -2.25105E+04 -9.84560E+03
 -1.01826E+04 -2.08168E+04  2.40093E+03 -2.29002E+04  1.32983E+04 -1.51000E+04  1.80306E+04 -4.10753E+03
  1.28175E+04  8.12879E+03  3.14589E+03  1.28415E+04 -5.28418E+03  8.24303E+03 -8.51655E+03 -2.46733E+03
 -3.36665E+03 -9.42999E+03  4.82409E+03 -8.31247E+03  9.03899E+03 -3.92223E+03  9.02794E+03  1.99876E+03
  5.36948E+03  4.59500E+03  1.66972E+03  4.30364E+03 -1.42502E+03  2.13140E+03  1.38549E+03 -1.15356E+03
  3.19130E+03 -1.28355E+03  9.16056E+03  3.29024E+03  6.26170E+03  1.11717E+04 -2.32867E+03  1.49299E+04
 -1.08213E+04  9.88063E+03 -1.33136E+04  2.02727E+03 -1.26951E+04 -5.10405E+03 -5.60642E+03 -8.76988E+03
  2.71249E+03 -8.49835E+03  5.50749E+03 -4.05880E+03  5.36728E+03  3.81055E+03 -1.71872E+03  7.11951E+03
 -8.66006E+03  3.60539E+03 -1.07670E+04 -4.57369E+03 -6.30661E+03 -1.19357E+04  1.29722E+03 -1.09495E+04
  6.89893E+03 -6.52345E+03  8.99989E+03 -5.11291E+02  7.62127E+03  3.16871E+03  1.29530E+03  6.72210E+03
 -4.27997E+03  1.69641E+03 -6.25119E+03 -4.65194E+03  2.38070E+03 -9.81530E+03  1.05215E+04 -7.10014E+03
  1.44875E+04  1.33277E+03  1.31022E+04  9.54149E+03  3.94615E+03  1.43369E+04 -5.18871E+03  1.36701E+04
 -1.21653E+04  6.11382E+03 -1.41459E+04 -2.12052E+03 -8.03627E+03 -9.60560E+03  2.56976E+03 -9.13560E+03
  9.16619E+03 -3.85792E+03  7.96079E+03  3.53071E+03  3.44093E+03  7.35575E+03 -2.38302E+03  6.79417E+03
 -4.18334E+03  5.38242E+03 -3.56454E+03  6.42998E+02 -1.61548E+03  1.03008E+03 -2.15506E+03  2.83705E+03
 -4.58355E+03  5.81625E+03 -1.05033E+04  5.45116E+03 -1.49573E+04  5.39213E+02 -1.65679E+04 -1.06698E+04
 -8.73656E+03 -1.97335E+04  3.85054E+03 -2.31828E+04  1.44959E+04 -1.85866E+04  2.17688E+04 -6.16617E+03
  1.98767E+04  4.78840E+03  1.23076E+04  1.48562E+04  1.97689E+03  1.59093E+04 -6.81063E+03  1.17251E+04
 -9.29018E+03  3.61076E+03 -5.93226E+03 -1.56898E+03 -1.29774E+03 -2.20585E+03 -6.91191E+02 -4.02320E+02
 -1.70651E+03  4.71293E+02 -3.14042E+03 -5.04019E+02 -1.60393E+03 -3.48552E+03 -2.09725E+02 -6.28932E+03
  6.04256E+03 -4.83743E+03  9.83739E+03  4.06823E+02  1.11856E+04  9.86503E+03  3.65156E+03  1.64376E+04
 -7.21542E+03  1.75849E+04 -1.69417E+04  1.06708E+04 -1.87581E+04 -9.33011E+02 -1.40713E+04 -1.13367E+04
 -5.84640E+03 -1.73936E+04  5.23761E+03 -1.62881E+04  1.02299E+04 -7.84965E+03  1.13083E+04 -4.62205E+02
  5.32269E+03  6.26858E+03 -7.12894E+02  4.20432E+03 -2.42903E+03  2.47032E+02  3.08437E+02 -2.45799E+03
  5.82063E+03 -2.38583E+03  6.23258E+03  3.65401E+03  4.90776E+03  7.09336E+03  2.33141E+02  8.55278E+03
 -6.98262E+03  8.24957E+03 -1.10628E+04  1.18827E+03 -1.02884E+04 -7.95774E+03 -2.17020E+03 -1.38968E+04
  7.62116E+03 -1.09006E+04  1.31649E+04 -3.76783E+03  1.34253E+04  3.87371E+03  7.62312E+03  1.03531E+04
  1.45864E+03  1.13274E+04 -4.92543E+03  9.92404E+03 -7.40784E+03  4.43302E+03 -5.75477E+03  3.33079E+02
 -3.47068E+03 -5.13744E+02 -2.61890E+03  1.34272E+03 -5.87977E+03  1.58769E+03 -8.99800E+03 -2.65530E+03
 -8.63242E+03 -6.73296E+03 -3.16956E+03 -1.17983E+04  5.37008E+03 -1.19997E+04  1.01292E+04 -5.50803E+03
  1.11100E+04  9.35225E+02  7.17542E+03  7.73594E+03 -4.68518E+02  1.09952E+04 -9.03673E+03  8.46064E+03
