 $NMID ID='MM_0lb_SNR400_11hz_g45_75.RAW', FMTDAT='(8E13.5)'
 TRAMP=1., VOLUME=1. $END
  3.10713E+05  3.26826E+02  3.38013E+05  2.51141E+05  8.41732E+04  3.38352E+05 -1.32269E+05  2.51995E+05
 -1.90456E+05  8.33727E+04 -1.12942E+05 -3.27245E+04  6.02559E+02 -5.03437E+04  5.35605E+04 -3.08252E+01
  3.57546E+04  5.22148E+04 -1.67088E+04  7.58191E+04 -6.04120E+04  6.37236E+04 -8.43176E+04  3.18870E+04
 -8.13094E+04 -1.20440E+04 -5.81488E+04 -5.12713E+04 -1.52661E+04 -7.08836E+04  2.82481E+04 -4.60033E+04
  4.03712E+04  3.61825E+03  1.60643E+04  4.80791E+04 -3.47753E+04  4.74726E+04 -6.75477E+04 -5.20009E+02
 -5.44860E+04 -5.76566E+04 -7.37862E+03 -7.82476E+04  3.39233E+04 -5.61438E+04  4.94572E+04 -1.77021E+04
  4.42381E+04  1.15115E+04  3.22628E+04  2.61752E+04  1.58321E+04  3.04300E+04 -5.53670E+03  2.69857E+04
 -2.18332E+04  1.28117E+04 -1.83915E+04 -5.04594E+03  7.30809E+03 -7.28760E+03  2.34172E+04  1.31599E+04
  6.86728E+03  3.64506E+04 -3.31762E+04  3.65222E+04 -6.44114E+04  2.41461E+03 -5.74815E+04 -4.29726E+04
 -1.21889E+04 -6.51779E+04  4.10688E+04 -4.68971E+04  5.96336E+04 -1.95775E+03  3.58621E+04  3.42895E+04
 -6.53483E+03  3.76990E+04 -3.13272E+04  1.74724E+04 -3.12619E+04 -3.83412E+03 -1.83697E+04 -1.15024E+04
 -8.53517E+03 -1.38486E+04 -5.49575E+02 -1.91456E+04  7.82725E+03 -2.29625E+04  1.56682E+04 -1.35951E+04
  1.03444E+04  6.15605E+03 -8.87072E+03  1.34483E+04 -2.20665E+04 -5.46596E+03 -8.34738E+03 -3.55155E+04
  2.36131E+04 -4.51679E+04  4.96377E+04 -2.03854E+04  4.69157E+04  1.96175E+04  1.65308E+04  4.59315E+04
 -1.60558E+04  3.41460E+04 -2.74392E+04  1.73075E+03 -1.15102E+04 -2.90387E+04  2.14178E+04 -3.49399E+04
  4.22496E+04 -1.03063E+04  3.79149E+04  2.49820E+04  2.00228E+04  4.87314E+04 -7.92871E+03  5.26458E+04
 -3.34275E+04  3.66468E+04 -4.45375E+04  1.06174E+04 -4.42146E+04 -1.83709E+04 -2.52532E+04 -4.01412E+04
  7.99085E+03 -4.00399E+04  3.33679E+04 -1.62467E+04  3.09906E+04  1.07513E+04  4.70203E+03  1.98266E+04
 -1.36700E+04  8.86789E+03 -1.05191E+04 -7.21708E+03  5.48839E+03 -1.10438E+04  1.81953E+04  5.61842E+03
  1.44704E+04  2.30167E+04 -5.84185E+03  2.56889E+04 -2.34147E+04  1.30407E+04 -2.96818E+04 -3.73596E+03
 -2.29793E+04 -1.77985E+04 -1.03256E+04 -2.27878E+04  3.79470E+03 -2.34196E+04  1.77453E+04 -2.08277E+04
  2.82386E+04 -1.37873E+04  3.45505E+04  4.37090E+03  2.56979E+04  2.21988E+04  4.35735E+03  3.90698E+04
 -1.92533E+04  3.22995E+04 -2.86125E+04  1.05390E+04 -2.13705E+04 -1.04799E+04 -4.67179E+03 -1.27751E+04
  1.50723E+03 -1.40957E+03 -6.47235E+03  7.92508E+03 -1.84841E+04  4.47682E+03 -1.81196E+04 -8.40386E+03
 -1.14180E+04 -2.07609E+04  5.38595E+03 -2.57695E+04  1.71997E+04 -1.82236E+04  2.11765E+04 -1.91198E+03
  1.26788E+04  1.50061E+04 -3.18973E+02  2.18146E+04 -1.44543E+04  1.24042E+04 -2.17083E+04 -4.63473E+03
 -1.52570E+04 -1.97408E+04 -2.29173E+03 -2.53989E+04  1.16583E+04 -2.15726E+04  2.12523E+04 -1.10120E+04
  2.00511E+04  5.49219E+02  1.39833E+04  4.42554E+03  7.20796E+03  1.01356E+03  1.09852E+04 -1.71307E+03
  1.98417E+04  2.77900E+03  2.27249E+04  1.67476E+04  1.50533E+04  3.41858E+04 -2.98829E+03  3.91987E+04
 -2.31293E+04  3.18056E+04 -3.73285E+04  1.64333E+04 -3.94316E+04 -2.49306E+03 -3.23301E+04 -2.21416E+04
 -1.29807E+04 -3.27605E+04  1.13999E+04 -2.84808E+04  2.45465E+04 -1.42622E+04  2.16837E+04  6.52257E+03
  6.99621E+03  1.62261E+04 -1.03607E+04  1.40065E+04 -1.80999E+04  2.93157E+03 -1.32371E+04 -1.14359E+04
 -6.00423E+02 -1.77718E+04  9.23734E+03 -1.26629E+04  1.20142E+04 -1.89986E+03  3.04313E+03  7.22156E+03
 -6.99499E+03  3.54713E+03 -8.03309E+03 -6.32361E+03 -1.18476E+03 -1.59344E+04  1.11033E+04 -1.70982E+04
  1.99840E+04 -8.70037E+03  2.13905E+04  3.65628E+03  1.92400E+04  1.60205E+04  8.28005E+03  2.44413E+04
 -4.39459E+03  2.67953E+04 -1.72966E+04  1.69946E+04 -1.92363E+04  3.45991E+03 -1.28196E+04 -4.87159E+03
 -6.01951E+03 -5.95270E+03 -1.01043E+03  1.14657E+03 -2.77831E+03  3.45337E+03 -6.84852E+03  5.29047E+03
 -1.23909E+04 -1.14986E+03 -1.32948E+04 -1.03097E+04 -5.28783E+03 -1.67562E+04  5.52874E+03 -1.35208E+04
  1.12365E+04 -5.11206E+03  8.08768E+03  3.25798E+03 -3.33381E+02  5.27435E+03 -6.96000E+03 -1.44453E+02
 -6.45401E+03 -8.76692E+03 -1.25490E+03 -1.26754E+04  7.86417E+03 -1.38711E+04  1.63027E+04 -8.06222E+03
  1.98662E+04  2.05674E+03  1.50317E+04  1.23031E+04  2.63933E+03  1.62769E+04 -8.73815E+03  1.32791E+04
 -1.12211E+04  3.68623E+03 -5.73017E+03 -2.88003E+03  2.23367E+03 -4.20167E+03  7.34837E+03 -1.25686E+03
  6.52535E+03  5.02765E+03  1.98491E+03  1.05309E+04 -7.35227E+03  1.04197E+04 -1.27154E+04  2.84423E+03
 -8.50042E+03 -6.87930E+03  1.40594E+02 -1.15163E+04  7.37935E+03 -6.12728E+03  7.20529E+03  2.89549E+03
  1.57084E+03  7.67838E+03 -6.67638E+03  9.21272E+03 -1.07726E+04  3.33640E+03 -1.10883E+04 -3.83959E+03
 -6.37471E+03 -1.22303E+04  2.87709E+03 -1.51470E+04  1.24572E+04 -8.35909E+03  1.33472E+04  1.70477E+03
  8.15724E+03  1.03333E+04 -1.68476E+03  1.36524E+04 -1.02835E+04  7.61126E+03 -1.07682E+04 -1.21201E+03
 -9.19652E+03 -9.10147E+03 -1.25530E+03 -9.39339E+03  5.39305E+03 -7.63663E+03  6.24454E+03 -3.36190E+03
  4.20654E+03  1.75176E+03 -9.40291E+02  1.96598E+03 -9.36961E+02 -2.75716E+03  2.16317E+03 -5.63730E+03
  8.60479E+03 -3.15620E+03  1.30012E+04  1.56703E+03  1.21238E+04  9.17111E+03  7.71289E+03  1.70374E+04
 -4.08848E+03  1.94815E+04 -1.62207E+04  1.44188E+04 -2.05297E+04  2.29646E+03 -1.65228E+04 -7.29941E+03
 -8.18387E+03 -1.37190E+04 -8.84269E+02 -1.21032E+04  4.40259E+03 -5.89134E+03  3.88447E+03 -4.44124E+03
  2.75537E+03 -3.52347E+03  3.55656E+03 -3.61973E+03  5.30526E+03 -3.08193E+03  6.31918E+03 -8.41753E+02
  8.46988E+03  1.68643E+03  3.94384E+03  7.35885E+03 -2.25144E+03  8.54898E+03 -9.55909E+03  7.13139E+03
 -1.04725E+04 -1.23198E+03 -7.27215E+03 -7.53731E+03 -6.20331E+02 -1.20478E+04  6.83738E+03 -1.24996E+04
  1.31683E+04 -6.86399E+03  1.54370E+04  2.04575E+03  1.10645E+04  1.06300E+04  2.30850E+03  1.39370E+04
 -5.20199E+03  1.14454E+04 -8.00669E+03  4.14977E+03 -5.26956E+03 -1.36943E+03 -1.89425E+03 -1.23778E+03
 -1.29988E+03  4.74204E+02 -2.02965E+03  2.72140E+03 -4.96150E+03  2.58666E+03 -8.03387E+03 -1.06781E+03
 -5.00915E+03 -7.98838E+03  9.97476E+02 -1.12779E+04  6.93656E+03 -1.00394E+04  1.05954E+04 -4.11277E+03
  1.13596E+04  5.07584E+03  5.72203E+03  9.66776E+03 -2.21314E+03  1.15796E+04 -8.01445E+03  6.87207E+03
 -1.07122E+04  2.58838E+02 -8.29442E+03 -6.54183E+03 -1.08558E+03 -9.30339E+03  4.15220E+03 -6.60613E+03
  7.39256E+03 -2.43765E+03  5.43142E+03  2.25094E+03  1.02481E+03  3.92743E+03  1.20892E+03  1.57976E+03
  2.41802E+03  5.46825E+02  2.47209E+03  1.85421E+03  3.04486E+03  3.51137E+03  3.16556E+03  5.46825E+03
 -2.58434E+03  9.17132E+03 -7.94888E+03  9.23372E+03 -1.16164E+04  1.98266E+03 -1.18703E+04 -3.76211E+03
 -5.65880E+03 -1.10778E+04  2.34676E+03 -1.23022E+04  6.84041E+03 -8.08160E+03  9.18409E+03 -2.36525E+03
  6.79649E+03  4.89679E+03  8.74662E+02  6.48235E+03 -3.08623E+03  4.56519E+03 -4.43412E+03 -1.15640E+03
 -2.02536E+03 -4.70183E+03  2.14198E+03 -5.56782E+03  4.68277E+03 -2.37276E+03  4.51008E+03  1.34751E+03
  1.60822E+03  2.42281E+03  1.33726E+03  1.20541E+03 -6.03165E+02  1.96092E+03  1.24703E+03 -3.45246E+02
  1.03467E+03 -9.83358E+01  5.14272E+03  1.17978E+03  1.45923E+03  5.55442E+03 -1.64582E+03  7.88404E+03
 -5.28324E+03  4.82961E+03 -6.93234E+03  1.38697E+03 -6.74820E+03 -2.27712E+03 -1.57638E+03 -4.13525E+03
 -4.91247E+00 -4.39752E+03  2.81514E+03 -1.80325E+03  2.27632E+03  2.32157E+03 -1.33711E+03  3.62113E+03
 -4.62279E+03  2.80440E+03 -5.36169E+03 -2.30872E+03 -3.34124E+03 -5.98555E+03  1.69335E+03 -5.73993E+03
  3.29447E+03 -3.61663E+03  4.11487E+03 -5.72932E+02  3.29431E+03  1.24201E+03 -1.45085E+01  2.77619E+03
 -1.54554E+03  8.53000E+02 -2.86437E+03 -2.25091E+03  1.64208E+03 -4.11399E+03  5.17907E+03 -2.91179E+03
  6.61271E+03  1.40031E+02  7.23198E+03  4.45799E+03  2.66336E+03  6.90918E+03 -2.35953E+03  6.56854E+03
 -5.50265E+03  2.81462E+03 -5.41741E+03 -1.28863E+03 -3.53941E+03 -5.02898E+03  5.41503E+02 -4.16263E+03
  4.85129E+03 -2.55008E+03  3.76159E+03  2.26939E+03  1.89390E+03  4.24438E+03 -4.11950E+02  3.03369E+03
 -1.76721E+03  2.58653E+03 -2.06801E+03  1.49568E+02 -1.19419E+03  1.45538E+03 -1.11818E+03  1.53045E+03
 -2.18266E+03  3.17103E+03 -5.05359E+03  2.12989E+03 -7.02639E+03  4.60887E+01 -8.28598E+03 -4.66343E+03
 -3.94873E+03 -9.93826E+03  2.20544E+03 -1.06753E+04  6.08370E+03 -8.14224E+03  1.03749E+04 -3.67144E+03
  9.93971E+03  2.88002E+03  5.34678E+03  6.88068E+03  9.35545E+01  6.81983E+03 -2.76138E+03  5.43993E+03
 -3.83168E+03  2.24202E+03 -2.57443E+03 -1.52829E+03 -1.17651E+03 -6.87836E+02 -3.82960E+02  4.44366E+02
 -1.18273E+03  3.48358E+02 -1.24091E+03 -5.47050E+01  5.75436E+01 -1.75375E+03  2.85050E+02 -2.84735E+03
  3.62195E+03 -2.25188E+03  3.94329E+03  1.14674E+03  5.12417E+03  3.68837E+03  4.92649E+02  6.75272E+03
 -3.64669E+03  8.08706E+03 -7.03445E+03  5.31880E+03 -8.55769E+03 -1.18594E+03 -5.35893E+03 -5.66451E+03
 -2.26605E+03 -7.66762E+03  1.92897E+03 -6.70948E+03  3.99211E+03 -3.44022E+03  4.52195E+03 -2.84628E+02
  3.03001E+03  2.37911E+03 -6.61641E+00  2.09882E+03 -1.27156E+03 -2.28481E+02  3.98008E+02 -1.77085E+03
  2.46416E+03 -2.38111E+02  2.54951E+03  7.26782E+02  2.01528E+03  2.48504E+03 -6.25953E+02  3.24228E+03
 -2.77605E+03  2.91847E+03 -4.69839E+03  2.66027E+02 -4.08889E+03 -3.20303E+03 -7.42647E+02 -6.01670E+03
  3.73084E+03 -4.74103E+03  4.87986E+03 -1.84462E+03  5.06828E+03  9.51168E+02  3.28531E+03  4.14819E+03
  7.39637E+02  4.31108E+03 -1.54695E+03  3.31528E+03 -3.01020E+03  2.52956E+03 -1.92022E+03  2.54569E+02
 -5.33410E+02 -7.24566E+02 -1.14577E+03  1.10953E+02 -2.42861E+03  1.12672E+03 -3.81255E+03 -1.10500E+03
 -3.28302E+03 -2.04691E+03 -7.78467E+02 -4.90142E+03  2.26970E+03 -5.62175E+03  3.96207E+03 -2.11965E+03
  4.32514E+03  1.00135E+03  2.06357E+03  3.15614E+03 -5.25775E+02  4.28207E+03 -3.63873E+03  3.08175E+03
