 $NMID ID='MM_0lb_SNR400_8hz_g45_25.RAW', FMTDAT='(8E13.5)'
 TRAMP=1., VOLUME=1. $END
  3.10302E+05 -2.35315E+02  3.37838E+05  2.50442E+05  8.52190E+04  3.38753E+05 -1.32388E+05  2.52035E+05
 -1.91465E+05  8.41611E+04 -1.12636E+05 -3.30676E+04  9.36513E+01 -5.08021E+04  5.35401E+04 -3.02091E+02
  3.60399E+04  5.32209E+04 -1.77564E+04  7.54911E+04 -6.17261E+04  6.50864E+04 -8.56686E+04  3.18385E+04
 -8.25558E+04 -1.08969E+04 -5.87116E+04 -5.22434E+04 -1.50110E+04 -7.18728E+04  2.80606E+04 -4.65895E+04
  4.05972E+04  5.01921E+03  1.74436E+04  4.92630E+04 -3.43572E+04  4.81120E+04 -6.84579E+04  4.49988E+02
 -5.48886E+04 -5.79324E+04 -7.88176E+03 -7.89168E+04  3.33141E+04 -5.72280E+04  4.98995E+04 -1.89540E+04
  4.52661E+04  1.22380E+04  3.35832E+04  2.61617E+04  1.57607E+04  3.06549E+04 -5.71694E+03  2.84022E+04
 -2.27807E+04  1.14327E+04 -1.74316E+04 -6.00825E+03  6.54601E+03 -6.61407E+03  2.42955E+04  1.34828E+04
  7.69600E+03  3.76697E+04 -3.43558E+04  3.74065E+04 -6.64954E+04  2.31998E+03 -5.89850E+04 -4.44938E+04
 -1.29548E+04 -6.63627E+04  4.19698E+04 -4.84567E+04  6.14317E+04 -1.79461E+03  3.63737E+04  3.46247E+04
 -5.46277E+03  3.97195E+04 -3.24777E+04  1.93506E+04 -3.38128E+04 -2.79232E+03 -1.98438E+04 -1.19600E+04
 -9.52674E+03 -1.54895E+04 -6.49922E+02 -1.99071E+04  8.09218E+03 -2.36318E+04  1.53789E+04 -1.24283E+04
  9.93851E+03  6.82882E+03 -1.04688E+04  1.32775E+04 -2.35977E+04 -6.96920E+03 -8.58044E+03 -3.80088E+04
  2.51331E+04 -4.63408E+04  5.23127E+04 -2.02512E+04  4.79923E+04  2.05054E+04  1.73585E+04  4.76011E+04
 -1.63186E+04  3.61955E+04 -2.80244E+04  2.81395E+03 -1.15956E+04 -2.94182E+04  2.10488E+04 -3.78031E+04
  4.53115E+04 -1.12412E+04  3.98292E+04  2.61498E+04  2.21956E+04  5.18394E+04 -7.45339E+03  5.59203E+04
 -3.55994E+04  3.81853E+04 -4.80609E+04  1.08409E+04 -4.81186E+04 -1.80741E+04 -2.63214E+04 -4.26228E+04
  8.81284E+03 -4.20382E+04  3.46023E+04 -1.77365E+04  3.30525E+04  1.14264E+04  4.95648E+03  2.08307E+04
 -1.35001E+04  9.98145E+03 -1.14902E+04 -7.07281E+03  5.49437E+03 -1.22149E+04  1.87539E+04  5.30093E+03
  1.50983E+04  2.27922E+04 -5.03806E+03  2.76872E+04 -2.34359E+04  1.54233E+04 -3.20836E+04 -2.89203E+03
 -2.57539E+04 -1.89099E+04 -1.27800E+04 -2.55691E+04  4.34246E+03 -2.57547E+04  2.05653E+04 -2.34983E+04
  3.37361E+04 -1.37556E+04  3.86183E+04  5.68419E+03  2.70462E+04  2.57356E+04  4.51982E+03  4.26563E+04
 -2.04306E+04  3.41990E+04 -3.02661E+04  1.19314E+04 -2.30629E+04 -1.13665E+04 -4.14667E+03 -1.22923E+04
  3.48976E+02 -1.04967E+03 -7.85127E+03  8.47808E+03 -2.07622E+04  5.29866E+03 -2.06625E+04 -1.05808E+04
 -1.17494E+04 -2.44595E+04  6.85820E+03 -2.84096E+04  1.89015E+04 -2.00119E+04  2.32487E+04 -1.55465E+03
  1.60305E+04  1.62318E+04 -1.86055E+03  2.44608E+04 -1.73403E+04  1.39615E+04 -2.41699E+04 -5.08020E+03
 -1.73394E+04 -2.10379E+04 -1.79735E+03 -2.86625E+04  1.25122E+04 -2.44577E+04  2.38360E+04 -1.23112E+04
  2.21803E+04  2.19950E+02  1.66789E+04  5.61382E+03  8.54757E+03  2.54880E+03  1.32034E+04 -1.43499E+03
  2.29419E+04  2.62118E+03  2.59872E+04  1.89805E+04  1.79475E+04  3.77577E+04 -3.37849E+03  4.52559E+04
 -2.59675E+04  3.79385E+04 -4.35105E+04  2.02331E+04 -4.55559E+04 -3.11566E+03 -3.72965E+04 -2.69697E+04
 -1.43778E+04 -3.81867E+04  1.37067E+04 -3.36618E+04  2.91585E+04 -1.47906E+04  2.41915E+04  9.06869E+03
  7.47611E+03  1.95858E+04 -1.16731E+04  1.66920E+04 -2.00981E+04  3.31881E+03 -1.51530E+04 -1.29592E+04
 -6.29095E+02 -2.02110E+04  1.11543E+04 -1.40599E+04  1.40498E+04 -1.93006E+03  3.77207E+03  9.14716E+03
 -9.52820E+03  4.99287E+03 -9.80946E+03 -7.34887E+03 -2.28604E+03 -1.80375E+04  1.18361E+04 -2.03931E+04
  2.36773E+04 -1.21097E+04  2.72398E+04  3.23756E+03  2.39471E+04  1.98059E+04  1.07381E+04  3.03529E+04
 -5.78623E+03  3.26123E+04 -2.12826E+04  1.91544E+04 -2.35803E+04  5.07008E+03 -1.56958E+04 -6.71506E+03
 -7.95253E+03 -7.64192E+03 -6.81049E+02  2.44189E+02 -2.53390E+03  2.85641E+03 -7.86078E+03  6.09331E+03
 -1.53441E+04 -2.00062E+03 -1.52236E+04 -1.18621E+04 -6.97766E+03 -2.07384E+04  6.79743E+03 -1.64873E+04
  1.29145E+04 -7.27221E+03  8.92999E+03  4.18339E+03 -8.06059E+02  6.78172E+03 -8.39404E+03 -3.95496E+02
 -7.95376E+03 -1.02895E+04 -1.58658E+03 -1.67936E+04  8.64490E+03 -1.67689E+04  2.11910E+04 -9.11764E+03
  2.42922E+04  2.44491E+03  1.88399E+04  1.49291E+04  3.95608E+03  1.88339E+04 -1.02494E+04  1.62120E+04
 -1.32600E+04  4.32508E+03 -7.41366E+03 -4.18825E+03  2.04210E+03 -4.31963E+03  8.68430E+03 -9.12963E+02
  8.33528E+03  7.54327E+03  1.58141E+03  1.28928E+04 -9.87810E+03  1.29120E+04 -1.61653E+04  2.61467E+03
 -1.07227E+04 -8.30921E+03  1.10169E+02 -1.47087E+04  9.83181E+03 -7.66116E+03  9.80254E+03  3.63900E+03
  2.30484E+03  1.07874E+04 -8.12473E+03  1.23411E+04 -1.40938E+04  5.70312E+03 -1.50711E+04 -5.47209E+03
 -8.51903E+03 -1.68241E+04  3.78884E+03 -1.85445E+04  1.72504E+04 -1.14332E+04  1.86399E+04  3.28257E+03
  1.05029E+04  1.42930E+04 -2.38110E+03  1.77972E+04 -1.21147E+04  9.12519E+03 -1.38463E+04 -1.09807E+03
 -1.07851E+04 -1.07501E+04 -2.05723E+03 -1.25779E+04  6.81785E+03 -9.60349E+03  7.57925E+03 -4.14852E+03
  4.90658E+03  2.75570E+03 -1.38456E+03  2.25061E+03 -3.97493E+02 -3.52178E+03  2.88348E+03 -7.77687E+03
  1.29661E+04 -5.43440E+03  1.71339E+04  1.95224E+03  1.68302E+04  1.22058E+04  1.13262E+04  2.19924E+04
 -6.05134E+03  2.63042E+04 -2.17977E+04  1.93578E+04 -2.77923E+04  2.61149E+03 -2.10362E+04 -9.71403E+03
 -1.06938E+04 -1.81180E+04  5.77544E+02 -1.61005E+04  5.13132E+03 -8.41680E+03  5.52828E+03 -5.15069E+03
  3.77399E+03 -3.22858E+03  3.50746E+03 -3.49560E+03  5.88576E+03 -4.20650E+03  8.06964E+03 -2.15797E+03
  1.11614E+04  3.30420E+03  7.07017E+03  9.36610E+03 -2.49582E+03  1.19322E+04 -1.21357E+04  9.29656E+03
 -1.60199E+04 -1.21630E+03 -1.06695E+04 -1.14456E+04 -1.28789E+03 -1.75303E+04  9.44440E+03 -1.72898E+04
  1.78010E+04 -9.28334E+03  2.11785E+04  2.76211E+03  1.40317E+04  1.48701E+04  2.45907E+03  1.87692E+04
 -8.14292E+03  1.63666E+04 -1.16967E+04  5.29773E+03 -8.58300E+03 -2.33512E+03 -3.00740E+03 -2.49122E+03
 -1.52917E+03  6.24129E+02 -2.72246E+03  2.87257E+03 -6.52314E+03  2.18481E+03 -1.05098E+04 -1.12152E+03
 -7.79309E+03 -1.09609E+04 -8.10493E+02 -1.55033E+04  9.22176E+03 -1.45430E+04  1.58656E+04 -4.43296E+03
  1.58418E+04  7.67228E+03  7.98574E+03  1.42570E+04 -3.50927E+03  1.54830E+04 -1.13755E+04  1.09638E+04
 -1.57427E+04  4.36209E+02 -1.33179E+04 -9.11395E+03 -2.05294E+03 -1.27687E+04  6.09439E+03 -1.02134E+04
  1.10310E+04 -2.31675E+03  6.46767E+03  2.75250E+03  2.22933E+03  4.61166E+03  1.20940E+03  2.49168E+03
  2.58589E+03  6.74094E+02  3.53871E+03  1.66975E+03  5.27249E+03  5.16614E+03  5.19547E+03  8.99714E+03
 -2.88656E+03  1.32906E+04 -1.06365E+04  1.29880E+04 -1.71487E+04  4.23491E+03 -1.72479E+04 -6.84203E+03
 -8.20497E+03 -1.69997E+04  3.14376E+03 -1.89812E+04  9.63323E+03 -1.16372E+04  1.31793E+04 -3.34939E+03
  9.94911E+03  6.27772E+03  3.18158E+03  9.26610E+03 -4.28454E+03  6.26381E+03 -6.79802E+03 -1.17551E+03
 -2.93154E+03 -7.41453E+03  3.48093E+03 -6.90450E+03  7.59775E+03 -3.52183E+03  6.69036E+03  1.40595E+03
  2.71502E+03  2.83209E+03  1.78957E+03  3.15970E+03 -9.66007E+02  2.30537E+03  2.19035E+03 -3.20092E+02
  2.95935E+03 -1.67872E+03  6.07248E+03  3.39509E+03  3.48847E+03  8.67212E+03 -1.14479E+03  1.23361E+04
 -8.25542E+03  7.20432E+03 -1.11223E+04  2.27731E+03 -9.11097E+03 -3.75766E+03 -3.98177E+03 -7.26572E+03
  1.03658E+03 -6.69725E+03  3.80379E+03 -2.56066E+03  4.32986E+03  2.96624E+03 -8.81709E+02  6.23843E+03
 -8.06945E+03  4.09647E+03 -8.38531E+03 -3.41758E+03 -3.69981E+03 -8.88314E+03  1.51980E+03 -9.05592E+03
  5.69240E+03 -6.17979E+03  7.10141E+03 -5.08087E+02  5.86991E+03  2.41565E+03  4.44088E+02  3.95101E+03
 -3.39464E+03  2.10250E+03 -3.89771E+03 -3.83462E+03  1.58114E+03 -6.99284E+03  8.79818E+03 -5.92294E+03
  1.05007E+04  6.48957E+02  9.62973E+03  7.68952E+03  3.34865E+03  1.24023E+04 -4.64126E+03  1.07786E+04
 -1.00579E+04  4.20472E+03 -9.08209E+03 -1.61045E+03 -5.13630E+03 -7.08828E+03  2.15619E+03 -7.41461E+03
  6.77019E+03 -2.92022E+03  6.06025E+03  2.99028E+03  2.29760E+03  5.97927E+03  1.20994E+02  5.47320E+03
 -3.71400E+03  3.36805E+03 -2.26606E+03  1.32664E+03 -1.54766E+03  9.71365E+02 -1.93356E+03  2.44149E+03
 -3.10323E+03  4.22048E+03 -7.89008E+03  4.47573E+03 -1.15334E+04  6.64359E+02 -1.22341E+04 -7.34434E+03
 -6.58316E+03 -1.50377E+04  2.82206E+03 -1.89734E+04  1.13669E+04 -1.34981E+04  1.67676E+04 -5.57109E+03
  1.51609E+04  3.16335E+03  9.03685E+03  1.00464E+04  1.13216E+03  1.25609E+04 -4.44226E+03  9.56332E+03
 -7.41242E+03  3.22059E+03 -4.46973E+03 -6.21151E+02 -1.20642E+03 -1.16348E+03 -7.46108E+02  1.70581E+02
 -2.74027E+03  8.63651E+02 -2.55344E+03 -8.02854E+02 -1.27883E+03 -3.07502E+03  2.81465E+02 -4.45139E+03
  4.72262E+03 -3.53388E+03  7.30648E+03  8.14072E+02  7.92974E+03  6.86720E+03  2.68049E+03  1.19268E+04
 -5.49796E+03  1.42473E+04 -1.30401E+04  7.66924E+03 -1.39644E+04 -9.81752E+02 -1.07426E+04 -9.58294E+03
 -4.04015E+03 -1.23744E+04  3.20767E+03 -1.12160E+04  8.07375E+03 -6.39053E+03  7.99795E+03  8.24406E+01
  4.02577E+03  3.37232E+03 -8.72047E+02  3.29800E+03 -1.38025E+03 -4.19806E+02  1.41269E+02 -3.66135E+03
  3.82946E+03 -1.97756E+03  4.92523E+03  1.57377E+03  3.23579E+03  4.95212E+03  5.69386E+02  6.47483E+03
 -4.68899E+03  5.42041E+03 -8.40741E+03  5.22395E+02 -7.20708E+03 -7.03415E+03 -2.18381E+03 -9.83728E+03
  5.78449E+03 -8.99209E+03  9.98613E+03 -2.35614E+03  9.37441E+03  3.64398E+03  5.21449E+03  7.24196E+03
  1.18267E+03  8.13875E+03 -3.26954E+03  6.42023E+03 -5.75666E+03  3.20086E+03 -4.38840E+03  9.98336E+02
 -2.39719E+03 -3.82325E+02 -2.06622E+03  5.28208E+02 -3.28180E+03  1.71560E+03 -5.82589E+03 -9.12248E+02
 -6.03455E+03 -4.01935E+03 -2.35493E+03 -8.53706E+03  3.31789E+03 -7.94581E+03  8.19754E+03 -4.42146E+03
  8.11992E+03  1.85305E+03  5.19246E+03  5.66918E+03 -7.02641E+02  7.94916E+03 -6.66651E+03  5.53594E+03
