 $NMID ID='MM_0lb_SNR400_9hz_g55_48.RAW', FMTDAT='(8E13.5)'
 TRAMP=1., VOLUME=1. $END
  3.09359E+05  4.61274E+02  3.39186E+05  2.51173E+05  8.45701E+04  3.38562E+05 -1.32991E+05  2.52123E+05
 -1.91110E+05  8.41067E+04 -1.12496E+05 -3.32865E+04 -8.61079E+01 -5.14115E+04  5.34751E+04 -6.07343E+02
  3.53268E+04  5.26422E+04 -1.63450E+04  7.59984E+04 -6.05693E+04  6.42748E+04 -8.56233E+04  3.25840E+04
 -8.27807E+04 -1.14572E+04 -5.88727E+04 -5.29694E+04 -1.52237E+04 -7.10741E+04  2.73518E+04 -4.70023E+04
  4.09997E+04  3.40412E+03  1.64734E+04  4.80463E+04 -3.53301E+04  4.87737E+04 -6.78986E+04  1.92118E+01
 -5.48247E+04 -5.84825E+04 -7.68274E+03 -7.84572E+04  3.48529E+04 -5.72651E+04  5.01710E+04 -1.83498E+04
  4.53343E+04  1.16302E+04  3.34189E+04  2.55310E+04  1.58926E+04  3.08862E+04 -5.73807E+03  2.84127E+04
 -2.23922E+04  1.15817E+04 -1.74645E+04 -5.13041E+03  6.61484E+03 -7.97348E+03  2.35848E+04  1.31892E+04
  7.53538E+03  3.82516E+04 -3.40010E+04  3.75201E+04 -6.54773E+04  1.65909E+03 -5.94048E+04 -4.58580E+04
 -1.25823E+04 -6.60318E+04  4.14648E+04 -4.72362E+04  6.10216E+04 -2.82704E+03  3.72455E+04  3.40246E+04
 -5.85471E+03  4.01557E+04 -3.23367E+04  2.02909E+04 -3.42033E+04 -3.42874E+03 -1.97633E+04 -1.24519E+04
 -9.52595E+03 -1.58298E+04  2.57259E+02 -2.08211E+04  9.35362E+03 -2.41296E+04  1.52075E+04 -1.32098E+04
  1.06061E+04  5.76019E+03 -1.07631E+04  1.27142E+04 -2.36333E+04 -6.72081E+03 -8.23248E+03 -3.77935E+04
  2.53459E+04 -4.76064E+04  5.16540E+04 -2.09618E+04  4.97135E+04  2.11171E+04  1.76142E+04  4.70544E+04
 -1.62476E+04  3.64580E+04 -2.79446E+04  2.32045E+03 -1.09027E+04 -3.01810E+04  2.16982E+04 -3.71240E+04
  4.52064E+04 -1.06503E+04  4.09310E+04  2.44019E+04  2.23162E+04  5.20327E+04 -8.52115E+03  5.70179E+04
 -3.52713E+04  3.87774E+04 -4.80410E+04  1.06016E+04 -4.75939E+04 -1.88512E+04 -2.63513E+04 -4.23908E+04
  8.91001E+03 -4.31233E+04  3.50842E+04 -1.75504E+04  3.24032E+04  1.10411E+04  5.49309E+03  2.03524E+04
 -1.42631E+04  1.03645E+04 -1.17521E+04 -7.65797E+03  5.62892E+03 -1.12374E+04  1.83880E+04  5.21471E+03
  1.46911E+04  2.31892E+04 -4.42206E+03  2.73640E+04 -2.31803E+04  1.42369E+04 -3.26033E+04 -2.55864E+03
 -2.55347E+04 -1.83293E+04 -1.25239E+04 -2.51029E+04  4.84662E+03 -2.62296E+04  2.03473E+04 -2.38875E+04
  3.20984E+04 -1.45070E+04  3.87549E+04  4.74670E+03  2.77071E+04  2.41202E+04  4.61947E+03  4.16947E+04
 -1.90841E+04  3.42773E+04 -3.11154E+04  1.17214E+04 -2.18229E+04 -1.07658E+04 -4.81777E+03 -1.23027E+04
  8.54538E+02 -8.90173E+02 -7.68108E+03  8.49318E+03 -2.11442E+04  4.76997E+03 -2.05380E+04 -9.26254E+03
 -1.24559E+04 -2.36710E+04  6.60913E+03 -2.88299E+04  1.83936E+04 -2.01513E+04  2.21986E+04 -1.39542E+03
  1.60733E+04  1.57278E+04 -1.01468E+03  2.33052E+04 -1.70039E+04  1.36680E+04 -2.43752E+04 -4.74712E+03
 -1.82843E+04 -2.20436E+04 -2.83059E+03 -2.86816E+04  1.38664E+04 -2.37035E+04  2.32684E+04 -1.24383E+04
  2.23671E+04  3.52671E+02  1.61911E+04  5.58791E+03  8.21615E+03  1.57470E+03  1.19672E+04 -1.90876E+03
  2.24530E+04  2.92913E+03  2.59763E+04  1.87026E+04  1.79589E+04  3.76937E+04 -3.21784E+03  4.49583E+04
 -2.60488E+04  3.81586E+04 -4.25077E+04  1.90840E+04 -4.56118E+04 -3.74813E+03 -3.68331E+04 -2.66576E+04
 -1.51873E+04 -3.78006E+04  1.40626E+04 -3.39924E+04  2.83032E+04 -1.54295E+04  2.49866E+04  9.25680E+03
  7.56293E+03  1.89596E+04 -1.18945E+04  1.55916E+04 -2.10794E+04  3.37503E+03 -1.57569E+04 -1.32743E+04
 -7.85572E+01 -1.98680E+04  1.14302E+04 -1.51999E+04  1.32549E+04 -1.60623E+03  3.81231E+03  9.33652E+03
 -9.09094E+03  4.54515E+03 -9.07040E+03 -7.02859E+03 -2.09989E+03 -1.92444E+04  1.17651E+04 -2.08246E+04
  2.36720E+04 -1.19104E+04  2.81055E+04  3.59422E+03  2.36748E+04  1.99333E+04  1.05750E+04  3.02534E+04
 -5.59217E+03  3.20534E+04 -2.02295E+04  2.00344E+04 -2.26582E+04  3.74595E+03 -1.59053E+04 -6.76639E+03
 -6.27517E+03 -7.64459E+03 -3.17138E+02  1.75768E+02 -3.20289E+03  3.78081E+03 -7.82551E+03  5.15208E+03
 -1.46183E+04 -9.04058E+02 -1.48986E+04 -1.23895E+04 -6.07557E+03 -1.97377E+04  5.66385E+03 -1.63366E+04
  1.29429E+04 -7.10820E+03  8.74955E+03  4.79136E+03 -3.02053E+02  7.01337E+03 -8.41299E+03 -3.04723E+02
 -8.52607E+03 -1.05978E+04 -1.08856E+03 -1.58077E+04  9.41691E+03 -1.69806E+04  2.07231E+04 -9.09711E+03
  2.40249E+04  2.43914E+03  1.80936E+04  1.41424E+04  2.78211E+03  1.97114E+04 -1.02782E+04  1.59802E+04
 -1.29824E+04  4.73035E+03 -5.89656E+03 -3.57330E+03  2.21192E+03 -4.07515E+03  8.56517E+03 -7.89966E+02
  7.38291E+03  7.16569E+03  1.55589E+03  1.35568E+04 -8.67421E+03  1.20662E+04 -1.63762E+04  3.20120E+03
 -1.22194E+04 -8.89287E+03 -2.17095E+02 -1.32433E+04  9.08044E+03 -7.44035E+03  9.33423E+03  3.49850E+03
  2.15800E+03  9.91595E+03 -8.80294E+03  1.26690E+04 -1.38340E+04  4.56736E+03 -1.51318E+04 -5.58871E+03
 -7.97903E+03 -1.66205E+04  3.83816E+03 -1.84770E+04  1.61914E+04 -1.08678E+04  1.69821E+04  3.71606E+03
  1.06511E+04  1.38284E+04 -2.74690E+03  1.70295E+04 -1.17385E+04  9.29314E+03 -1.40174E+04 -1.46183E+03
 -1.09196E+04 -1.09973E+04 -2.24254E+03 -1.21587E+04  6.67482E+03 -9.38015E+03  7.97723E+03 -3.40114E+03
  5.00103E+03  3.41451E+03 -1.59925E+03  1.61882E+03 -1.07967E+03 -3.47030E+03  2.87056E+03 -7.75202E+03
  1.16944E+04 -5.00438E+03  1.74519E+04  2.31659E+03  1.59381E+04  1.22030E+04  1.03289E+04  2.08056E+04
 -4.81941E+03  2.45053E+04 -2.09917E+04  1.87687E+04 -2.60836E+04  3.59448E+03 -2.20079E+04 -9.40274E+03
 -1.09820E+04 -1.76026E+04 -5.45503E+02 -1.44594E+04  5.32063E+03 -8.36269E+03  5.26444E+03 -5.95697E+03
  4.52154E+03 -2.64256E+03  4.08704E+03 -4.45128E+03  5.78379E+03 -3.08354E+03  7.85203E+03 -1.58381E+03
  1.10907E+04  1.84894E+03  5.70440E+03  1.08720E+04 -2.46294E+03  1.25504E+04 -1.15957E+04  9.21199E+03
 -1.59206E+04 -1.59321E+03 -9.78517E+03 -1.09723E+04 -1.80970E+03 -1.66110E+04  9.30910E+03 -1.65791E+04
  1.65205E+04 -9.13796E+03  2.04980E+04  2.94991E+03  1.44648E+04  1.44071E+04  2.19368E+03  1.96255E+04
 -7.85318E+03  1.42862E+04 -1.05460E+04  4.45253E+03 -8.32414E+03 -2.45833E+03 -2.79644E+03 -1.84398E+03
 -1.70544E+03 -5.33071E+02 -2.02342E+03  3.24085E+03 -6.36513E+03  2.53929E+03 -1.02972E+04 -1.65181E+03
 -7.48407E+03 -9.82361E+03 -1.79327E+02 -1.60103E+04  9.98577E+03 -1.33066E+04  1.55517E+04 -3.43619E+03
  1.59745E+04  7.57164E+03  7.65178E+03  1.38436E+04 -3.53516E+03  1.48241E+04 -1.08879E+04  9.71674E+03
 -1.42393E+04  3.61322E+02 -1.09977E+04 -9.07620E+03 -1.35193E+03 -1.30190E+04  6.81653E+03 -9.56431E+03
  9.92007E+03 -2.83747E+03  6.81144E+03  1.80987E+03  1.95626E+03  4.57333E+03  1.65032E+03  2.07461E+03
  2.60443E+03  9.06319E+02  3.87894E+03  1.55155E+03  4.33105E+03  5.00557E+03  3.89448E+03  8.19316E+03
 -3.04315E+03  1.14993E+04 -1.00667E+04  1.28368E+04 -1.58193E+04  2.77185E+03 -1.65248E+04 -6.16233E+03
 -8.07753E+03 -1.53805E+04  3.65735E+03 -1.75123E+04  9.90175E+03 -1.11292E+04  1.30710E+04 -3.17752E+03
  9.83556E+03  5.55487E+03  2.14008E+03  1.02292E+04 -4.16948E+03  6.00709E+03 -6.42519E+03 -1.00141E+03
 -3.01676E+03 -7.04102E+03  2.94253E+03 -6.40612E+03  6.45910E+03 -3.36838E+03  6.52343E+03  1.50855E+03
  3.91394E+03  2.77242E+03  1.70082E+03  2.72345E+03 -6.43115E+02  2.17306E+03  1.11517E+03 -1.55912E+02
  2.47340E+03 -7.80326E+02  5.71087E+03  2.51716E+03  3.70512E+03  8.68171E+03 -1.07000E+03  1.15373E+04
 -7.59675E+03  6.20154E+03 -1.00317E+04  1.91756E+03 -9.01311E+03 -3.60192E+03 -3.37141E+03 -5.83189E+03
  2.50895E+02 -6.36196E+03  4.40279E+03 -2.92863E+03  3.92832E+03  3.80120E+03 -9.36149E+02  5.95846E+03
 -6.25976E+03  2.89361E+03 -7.33543E+03 -3.43369E+03 -3.84268E+03 -8.39140E+03  1.04234E+03 -9.60235E+03
  5.60822E+03 -5.41909E+03  6.78104E+03 -7.70145E+02  4.83460E+03  2.48149E+03  7.31682E+02  5.86668E+03
 -3.15079E+03  6.39117E+02 -3.36851E+03 -3.15643E+03  1.01297E+03 -6.70014E+03  8.56502E+03 -5.85901E+03
  9.99422E+03  9.31632E+02  9.69715E+03  6.71625E+03  3.18184E+03  9.60032E+03 -4.08003E+03  9.62417E+03
 -8.57102E+03  4.63381E+03 -8.70983E+03 -1.58742E+03 -4.58659E+03 -6.53540E+03  1.35246E+03 -6.84325E+03
  6.90139E+03 -3.65902E+03  5.71917E+03  3.09689E+03  2.08013E+03  6.70044E+03 -6.84567E+02  4.97507E+03
 -3.06854E+03  3.17443E+03 -1.80296E+03  1.37579E+03 -1.51285E+03  1.93119E+02 -1.65146E+03  1.93316E+03
 -2.70316E+03  3.61152E+03 -7.00348E+03  3.61990E+03 -1.03802E+04  1.38714E+02 -1.13670E+04 -6.79036E+03
 -6.24814E+03 -1.45185E+04  2.23997E+03 -1.67622E+04  1.01882E+04 -1.23290E+04  1.53841E+04 -5.77240E+03
  1.42482E+04  2.54513E+03  9.16997E+03  9.92375E+03  1.46142E+03  1.02726E+04 -4.18907E+03  8.79237E+03
 -5.76500E+03  2.36985E+03 -4.84458E+03 -2.14110E+03 -1.16469E+03 -8.78067E+02 -6.60456E+02 -4.25102E+02
 -1.98212E+03 -1.84683E+02 -2.04958E+03 -8.65039E+02 -1.38308E+03 -1.97546E+03  4.27093E+02 -4.20331E+03
  4.74500E+03 -3.39188E+03  6.56960E+03 -2.03587E+02  8.34686E+03  5.79837E+03  1.64519E+03  1.10547E+04
 -5.24342E+03  1.26990E+04 -1.09253E+04  7.19773E+03 -1.31854E+04 -1.53487E+03 -1.01006E+04 -7.60975E+03
 -3.99121E+03 -1.15776E+04  2.51745E+03 -9.85948E+03  7.45835E+03 -5.98685E+03  7.75640E+03 -2.54505E+02
  3.86482E+03  3.04159E+03 -6.66674E+02  2.88341E+03 -1.74192E+03 -8.39956E+02  1.21317E+03 -2.14535E+03
  3.23811E+03 -1.91894E+03  4.77236E+03  1.69092E+03  4.06187E+03  4.83073E+03  3.57927E+02  5.55891E+03
 -4.85966E+03  4.35823E+03 -7.56667E+03  9.12688E+01 -5.89582E+03 -6.14263E+03 -4.55448E+02 -9.37564E+03
  5.91328E+03 -7.10008E+03  7.65238E+03 -2.10925E+03  9.15454E+03  1.62192E+03  4.87934E+03  6.69731E+03
  8.36671E+02  7.12905E+03 -2.52701E+03  6.00853E+03 -4.57440E+03  4.37212E+03 -4.22304E+03  6.48812E+02
 -1.78072E+03  6.99170E+02 -1.58150E+03  1.16388E+03 -3.74943E+03  6.56334E+02 -6.22476E+03 -1.43996E+03
 -5.12627E+03 -3.58227E+03 -1.35154E+03 -7.07513E+03  4.06800E+03 -7.26408E+03  6.86141E+03 -3.95631E+03
  7.74927E+03  1.33340E+03  4.75537E+03  4.95192E+03 -5.91616E+02  6.47550E+03 -5.34314E+03  4.68895E+03
