 $NMID ID='MM_0lb_SNR400_7hz_g55_17.RAW', FMTDAT='(8E13.5)'
 TRAMP=1., VOLUME=1. $END
  3.10142E+05  1.98674E+02  3.37869E+05  2.50614E+05  8.46670E+04  3.39024E+05 -1.33585E+05  2.51674E+05
 -1.91319E+05  8.34634E+04 -1.13290E+05 -3.30935E+04  5.58367E+02 -5.15761E+04  5.40960E+04 -8.82768E+02
  3.58329E+04  5.32981E+04 -1.72090E+04  7.54635E+04 -6.10184E+04  6.48641E+04 -8.54242E+04  3.30204E+04
 -8.21612E+04 -1.15176E+04 -5.88699E+04 -5.30653E+04 -1.48086E+04 -7.18638E+04  2.78283E+04 -4.74958E+04
  4.24509E+04  4.01975E+03  1.70320E+04  4.95024E+04 -3.53297E+04  4.74465E+04 -6.91792E+04 -5.86138E+02
 -5.54709E+04 -5.90051E+04 -7.70931E+03 -7.98801E+04  3.48160E+04 -5.83472E+04  4.99259E+04 -1.84643E+04
  4.55150E+04  1.19374E+04  3.32587E+04  2.72751E+04  1.60257E+04  3.11015E+04 -5.09138E+03  2.78103E+04
 -2.26096E+04  1.17270E+04 -1.69616E+04 -5.25490E+03  7.63387E+03 -6.70165E+03  2.52803E+04  1.46659E+04
  7.13792E+03  3.95142E+04 -3.43533E+04  3.67786E+04 -6.79396E+04  2.38287E+03 -5.95768E+04 -4.53153E+04
 -1.37724E+04 -6.76830E+04  4.27618E+04 -4.85002E+04  6.17351E+04 -2.18600E+03  3.75981E+04  3.52747E+04
 -6.13498E+03  4.04277E+04 -3.26443E+04  2.02613E+04 -3.46410E+04 -3.30715E+03 -1.99831E+04 -1.37242E+04
 -8.89372E+03 -1.65471E+04 -2.30842E+02 -2.05923E+04  9.21933E+03 -2.36425E+04  1.60834E+04 -1.20788E+04
  9.85567E+03  6.16772E+03 -1.17649E+04  1.32617E+04 -2.46566E+04 -7.74732E+03 -9.01750E+03 -3.99118E+04
  2.67583E+04 -4.94443E+04  5.35302E+04 -2.15759E+04  5.07522E+04  2.18060E+04  1.79836E+04  4.96639E+04
 -1.73479E+04  3.65211E+04 -2.88514E+04  2.57812E+03 -1.23577E+04 -2.97711E+04  2.24892E+04 -3.78083E+04
  4.60883E+04 -1.23267E+04  4.28422E+04  2.49554E+04  2.31560E+04  5.36839E+04 -8.79781E+03  5.92005E+04
 -3.75854E+04  4.04135E+04 -4.99418E+04  1.26938E+04 -5.10431E+04 -1.83880E+04 -2.70904E+04 -4.35801E+04
  8.19268E+03 -4.49358E+04  3.55275E+04 -1.92899E+04  3.33647E+04  1.09277E+04  6.28289E+03  2.13492E+04
 -1.41704E+04  9.76834E+03 -1.20556E+04 -7.11120E+03  5.31325E+03 -1.14339E+04  1.94834E+04  4.58112E+03
  1.53933E+04  2.30539E+04 -4.24656E+03  2.91055E+04 -2.42673E+04  1.53109E+04 -3.33683E+04 -2.09606E+03
 -2.76668E+04 -1.88124E+04 -1.43343E+04 -2.73484E+04  4.41115E+03 -2.86222E+04  2.17227E+04 -2.61947E+04
  3.47191E+04 -1.50191E+04  4.15442E+04  6.15755E+03  2.84147E+04  2.65437E+04  5.06285E+03  4.27024E+04
 -2.07188E+04  3.65965E+04 -3.18574E+04  1.24884E+04 -2.36903E+04 -9.08339E+03 -4.77180E+03 -1.26894E+04
 -2.29862E+02 -1.52305E+02 -9.35279E+03  9.05229E+03 -2.19122E+04  5.58723E+03 -2.26336E+04 -1.11323E+04
 -1.33444E+04 -2.54124E+04  6.45868E+03 -3.06950E+04  2.06151E+04 -2.26788E+04  2.43582E+04 -2.05764E+03
  1.64867E+04  1.81699E+04 -1.69124E+03  2.61771E+04 -1.83241E+04  1.51247E+04 -2.52275E+04 -4.63078E+03
 -1.89084E+04 -2.25480E+04 -2.84102E+03 -3.15416E+04  1.35679E+04 -2.56745E+04  2.56836E+04 -1.31864E+04
  2.39551E+04 -1.07946E+03  1.77429E+04  5.39641E+03  1.03881E+04  2.03228E+03  1.38801E+04 -2.41484E+03
  2.46372E+04  3.57609E+03  2.85088E+04  1.94250E+04  1.99437E+04  4.10511E+04 -2.96469E+03  4.99295E+04
 -2.91744E+04  4.27236E+04 -4.70304E+04  2.24488E+04 -5.15488E+04 -4.41640E+03 -4.10838E+04 -2.95620E+04
 -1.57441E+04 -4.31409E+04  1.59524E+04 -3.69399E+04  3.20817E+04 -1.68114E+04  2.63817E+04  9.27828E+03
  8.67964E+03  2.20220E+04 -1.29774E+04  1.70203E+04 -2.23587E+04  3.03426E+03 -1.70912E+04 -1.43884E+04
 -4.73108E+01 -2.10133E+04  1.11672E+04 -1.48953E+04  1.52351E+04 -1.07627E+03  3.82725E+03  9.81038E+03
 -1.04121E+04  5.96850E+03 -1.10313E+04 -8.54200E+03 -3.65727E+03 -2.07837E+04  1.37006E+04 -2.23743E+04
  2.68554E+04 -1.37369E+04  3.04564E+04  3.49251E+03  2.72770E+04  2.07417E+04  1.25592E+04  3.47534E+04
 -6.79699E+03  3.68335E+04 -2.29624E+04  2.29912E+04 -2.58819E+04  4.10512E+03 -1.72298E+04 -7.13855E+03
 -7.00647E+03 -9.57591E+03 -1.02439E+03 -6.31120E+02 -3.18224E+03  4.19134E+03 -8.43169E+03  6.06329E+03
 -1.60985E+04 -1.37879E+03 -1.67129E+04 -1.28063E+04 -5.82485E+03 -2.22273E+04  7.79805E+03 -1.85214E+04
  1.39783E+04 -7.70419E+03  1.08871E+04  4.02546E+03 -1.12873E+03  7.12067E+03 -1.01264E+04 -8.30664E+02
 -9.48254E+03 -1.05050E+04 -1.79977E+03 -1.75875E+04  1.13742E+04 -1.87162E+04  2.36118E+04 -1.14276E+04
  2.80793E+04  2.99426E+03  1.89948E+04  1.68527E+04  3.72175E+03  2.23393E+04 -1.08288E+04  1.73723E+04
 -1.50332E+04  4.81079E+03 -7.73317E+03 -4.88693E+03  2.42258E+03 -4.39611E+03  1.00831E+04 -4.48956E+02
  9.08081E+03  8.05735E+03  8.12334E+02  1.53310E+04 -1.06071E+04  1.49792E+04 -1.88004E+04  3.31037E+03
 -1.35829E+04 -1.01206E+04 -5.39547E+02 -1.56002E+04  1.12161E+04 -7.64071E+03  1.16789E+04  3.70230E+03
  2.71841E+03  1.25079E+04 -9.76137E+03  1.26635E+04 -1.64861E+04  6.75888E+03 -1.82619E+04 -7.45706E+03
 -9.12130E+03 -1.90527E+04  6.09560E+03 -2.14578E+04  1.94383E+04 -1.29743E+04  2.05286E+04  3.06641E+03
  1.32528E+04  1.53841E+04 -1.95265E+03  1.80967E+04 -1.37338E+04  1.07951E+04 -1.59170E+04 -1.31392E+03
 -1.25606E+04 -1.22415E+04 -1.85523E+03 -1.44791E+04  8.30589E+03 -1.11389E+04  9.81123E+03 -3.80238E+03
  5.97493E+03  3.02350E+03 -1.32412E+03  1.84332E+03 -5.13817E+02 -5.44944E+03  2.88689E+03 -9.20920E+03
  1.44238E+04 -6.17521E+03  2.03448E+04  2.89057E+03  1.96695E+04  1.41342E+04  1.19640E+04  2.66870E+04
 -6.70091E+03  2.93261E+04 -2.51158E+04  2.14151E+04 -3.23842E+04  4.63409E+03 -2.58600E+04 -1.07480E+04
 -1.30105E+04 -2.07003E+04 -9.37764E+02 -1.83725E+04  6.11002E+03 -1.06566E+04  6.60880E+03 -6.85635E+03
  4.39593E+03 -4.29530E+03  4.65442E+03 -3.57522E+03  7.42775E+03 -4.47812E+03  9.27909E+03 -1.88207E+03
  1.28261E+04  2.25275E+03  7.74418E+03  1.17608E+04 -2.55865E+03  1.52801E+04 -1.39059E+04  1.07092E+04
 -1.73288E+04 -1.30251E+03 -1.24519E+04 -1.40062E+04 -2.00883E+03 -2.02968E+04  9.90826E+03 -2.06451E+04
  2.18392E+04 -1.06447E+04  2.47965E+04  3.57401E+03  1.70868E+04  1.81536E+04  2.40245E+03  2.30649E+04
 -1.02457E+04  1.78679E+04 -1.27483E+04  7.06196E+03 -9.38592E+03 -1.59488E+03 -3.54483E+03 -3.27514E+03
 -1.82500E+03 -5.22310E+02 -2.49952E+03  3.94148E+03 -8.00211E+03  2.20537E+03 -1.23570E+04 -1.94056E+03
 -1.04861E+04 -1.29029E+04 -5.95120E+02 -1.84528E+04  1.14171E+04 -1.81519E+04  1.89408E+04 -5.28775E+03
  1.90246E+04  9.40666E+03  9.70660E+03  1.79759E+04 -3.54293E+03  1.92409E+04 -1.40808E+04  1.15022E+04
 -1.79451E+04  3.64008E+02 -1.45501E+04 -1.22045E+04 -1.54758E+03 -1.66962E+04  9.46758E+03 -1.18742E+04
  1.32020E+04 -4.07502E+03  8.38275E+03  3.07212E+03  3.36243E+03  4.99081E+03  2.12382E+03  3.71053E+03
  2.69900E+03  7.86417E+02  6.07876E+03  2.03732E+03  5.72895E+03  7.20587E+03  5.00352E+03  1.12738E+04
 -3.77454E+03  1.53068E+04 -1.45330E+04  1.53633E+04 -2.06933E+04  4.54446E+03 -2.08371E+04 -8.00571E+03
 -9.93991E+03 -2.00742E+04  3.14068E+03 -2.21253E+04  1.18630E+04 -1.37008E+04  1.62143E+04 -3.12536E+03
  1.29042E+04  6.76059E+03  2.68326E+03  1.20160E+04 -5.64565E+03  7.55576E+03 -8.31989E+03 -1.05484E+03
 -4.28401E+03 -9.23173E+03  4.43376E+03 -9.26957E+03  9.07097E+03 -4.98700E+03  8.28717E+03  1.65067E+03
  4.56306E+03  3.84948E+03  9.98808E+02  3.23070E+03 -1.33899E+03  3.72820E+03  1.89337E+03 -7.92083E+02
  2.97106E+03 -1.02678E+03  8.29073E+03  4.47527E+03  4.52638E+03  1.10191E+04 -2.04471E+03  1.46901E+04
 -1.01613E+04  1.00136E+04 -1.39584E+04  2.83972E+03 -1.07619E+04 -4.56417E+03 -4.74104E+03 -7.76164E+03
  1.47630E+03 -8.06424E+03  6.02481E+03 -4.03855E+03  4.55637E+03  3.58078E+03 -9.89235E+02  6.22884E+03
 -8.12637E+03  4.88252E+03 -1.03131E+04 -3.52886E+03 -6.26630E+03 -1.18535E+04  1.80800E+03 -1.09649E+04
  7.69061E+03 -7.22471E+03  9.13202E+03 -1.51791E+03  7.84607E+03  3.97891E+03  7.31572E+00  5.46948E+03
 -4.84249E+03  2.13547E+03 -5.07550E+03 -3.46442E+03  2.75869E+03 -9.50688E+03  1.03672E+04 -8.56427E+03
  1.47465E+04  1.09510E+03  1.34260E+04  9.34034E+03  4.37199E+03  1.41900E+04 -4.86726E+03  1.25592E+04
 -1.11710E+04  6.62722E+03 -1.16574E+04 -1.24401E+03 -6.43466E+03 -9.18116E+03  1.34078E+03 -8.43759E+03
  9.48455E+03 -4.80424E+03  7.03297E+03  3.20048E+03  2.96371E+03  7.40901E+03 -1.57823E+03  6.52864E+03
 -3.79635E+03  4.53921E+03 -2.68630E+03  4.17529E+02 -1.00965E+03  1.73474E+03 -1.93302E+03  2.48039E+03
 -3.27715E+03  3.70644E+03 -9.43958E+03  4.18058E+03 -1.52381E+04  7.53825E+02 -1.54944E+04 -8.80444E+03
 -8.50668E+03 -1.84167E+04  4.00617E+03 -2.19018E+04  1.41863E+04 -1.77047E+04  2.05662E+04 -6.48347E+03
  1.98287E+04  4.89242E+03  1.19755E+04  1.37419E+04  1.09202E+03  1.59254E+04 -5.77429E+03  1.18301E+04
 -8.72458E+03  3.34094E+03 -5.86343E+03 -9.94432E+02 -1.82251E+03 -1.39465E+03 -6.90815E+02 -1.16771E+03
 -3.00690E+03  6.75385E+02 -3.58399E+03 -8.37876E+02 -8.01314E+02 -2.03646E+03  6.58809E+02 -5.54216E+03
  7.06999E+03 -5.18560E+03  9.60508E+03 -1.46533E+02  9.78185E+03  7.49920E+03  2.58622E+03  1.55289E+04
 -6.48513E+03  1.78593E+04 -1.61213E+04  9.57720E+03 -1.85613E+04 -1.33855E+03 -1.33601E+04 -1.07234E+04
 -6.67211E+03 -1.60776E+04  3.87120E+03 -1.47011E+04  9.97104E+03 -8.33446E+03  1.09017E+04  6.03362E+02
  5.99762E+03  5.17204E+03 -1.82042E+02  4.69413E+03 -2.35269E+03 -3.49953E+02  1.27210E+03 -3.74044E+03
  4.88798E+03 -2.96330E+03  6.39085E+03  1.91564E+03  3.89463E+03  6.58086E+03  3.20007E+02  8.39526E+03
 -7.00251E+03  6.96838E+03 -1.08647E+04  3.05868E+02 -9.06377E+03 -6.78804E+03 -1.93377E+03 -1.33121E+04
  7.67599E+03 -1.14658E+04  1.23432E+04 -3.67402E+03  1.25157E+04  3.44647E+03  7.16912E+03  1.00676E+04
  1.85945E+03  1.06187E+04 -4.40674E+03  8.82301E+03 -6.75579E+03  4.03794E+03 -6.54039E+03  1.17794E+03
 -2.77802E+03  1.75788E+02 -3.88995E+03  1.95710E+03 -6.11758E+03  1.88078E+03 -7.24066E+03 -2.26849E+03
 -7.48091E+03 -5.16829E+03 -2.66813E+03 -1.03380E+04  4.55982E+03 -1.15881E+04  1.05858E+04 -5.32054E+03
  1.15022E+04  1.03607E+03  6.29853E+03  7.46433E+03 -1.82325E+02  1.10219E+04 -8.71214E+03  6.80957E+03
