 $NMID ID='MM_0lb_SNR400_13hz_g45_60.RAW', FMTDAT='(8E13.5)'
 TRAMP=1., VOLUME=1. $END
  3.09310E+05  3.28966E+02  3.37586E+05  2.50744E+05  8.51278E+04  3.38362E+05 -1.32468E+05  2.51798E+05
 -1.89762E+05  8.35086E+04 -1.12065E+05 -3.20353E+04  1.67351E+03 -5.13359E+04  5.44658E+04  6.67407E+02
  3.53873E+04  5.30914E+04 -1.69140E+04  7.54532E+04 -6.02912E+04  6.32497E+04 -8.42701E+04  3.24346E+04
 -8.07137E+04 -1.12388E+04 -5.79146E+04 -5.09346E+04 -1.51011E+04 -6.95377E+04  2.78582E+04 -4.53617E+04
  4.06324E+04  3.74568E+03  1.64965E+04  4.77640E+04 -3.45300E+04  4.81699E+04 -6.64815E+04 -6.40141E+02
 -5.34756E+04 -5.73977E+04 -7.34878E+03 -7.75922E+04  3.42672E+04 -5.50973E+04  4.80498E+04 -1.72946E+04
  4.38958E+04  1.08470E+04  3.13322E+04  2.54164E+04  1.64604E+04  3.04447E+04 -5.13362E+03  2.78043E+04
 -2.22614E+04  1.22364E+04 -1.88288E+04 -4.90775E+03  5.80907E+03 -6.99619E+03  2.27849E+04  1.27552E+04
  7.48577E+03  3.59003E+04 -3.20303E+04  3.54498E+04 -6.37127E+04  2.07570E+03 -5.70195E+04 -4.36495E+04
 -1.30068E+04 -6.30684E+04  4.03155E+04 -4.54786E+04  5.88238E+04 -2.76246E+03  3.46634E+04  3.24124E+04
 -6.32899E+03  3.68252E+04 -3.02186E+04  1.64340E+04 -3.05791E+04 -4.43695E+03 -1.70251E+04 -1.02778E+04
 -8.92172E+03 -1.33494E+04 -6.79025E+02 -1.82936E+04  7.86937E+03 -2.28277E+04  1.57871E+04 -1.37339E+04
  1.12308E+04  5.36720E+03 -8.75563E+03  1.31451E+04 -2.14406E+04 -5.06624E+03 -8.52881E+03 -3.39939E+04
  2.27109E+04 -4.37927E+04  4.86628E+04 -1.99140E+04  4.62579E+04  1.92908E+04  1.54529E+04  4.45708E+04
 -1.58357E+04  3.39470E+04 -2.52557E+04  1.10510E+03 -1.02377E+04 -2.77707E+04  2.15983E+04 -3.43905E+04
  4.19782E+04 -1.00320E+04  3.63917E+04  2.27468E+04  1.86590E+04  4.77992E+04 -7.86888E+03  5.03699E+04
 -3.23848E+04  3.39783E+04 -4.21282E+04  9.93256E+03 -4.26721E+04 -1.73330E+04 -2.36892E+04 -3.90869E+04
  7.22974E+03 -3.82583E+04  3.08921E+04 -1.52776E+04  2.93654E+04  1.10767E+04  3.70688E+03  1.87969E+04
 -1.32179E+04  8.41161E+03 -1.03423E+04 -7.80197E+03  6.14606E+03 -1.01132E+04  1.78768E+04  5.72058E+03
  1.29291E+04  2.23343E+04 -6.21451E+03  2.45165E+04 -2.28477E+04  1.22542E+04 -2.88338E+04 -4.16885E+03
 -2.12820E+04 -1.81620E+04 -8.16581E+03 -2.12336E+04  3.19307E+03 -2.01236E+04  1.60662E+04 -1.94574E+04
  2.64186E+04 -1.30683E+04  3.36491E+04  3.78200E+03  2.38884E+04  2.06074E+04  4.54409E+03  3.63897E+04
 -1.85931E+04  3.03599E+04 -2.81517E+04  1.01602E+04 -2.17359E+04 -1.08166E+04 -4.75587E+03 -1.32101E+04
  1.99777E+03 -2.61699E+03 -5.67152E+03  7.13314E+03 -1.63541E+04  4.61747E+03 -1.66440E+04 -7.57250E+03
 -1.00362E+04 -1.92315E+04  5.85049E+03 -2.36545E+04  1.55628E+04 -1.72559E+04  1.81247E+04 -1.32677E+03
  1.15704E+04  1.34326E+04 -1.23008E+03  1.97391E+04 -1.31718E+04  1.15175E+04 -1.95737E+04 -3.81093E+03
 -1.40385E+04 -1.76848E+04 -1.72082E+03 -2.39420E+04  1.10205E+04 -1.92222E+04  1.94117E+04 -8.79421E+03
  1.93475E+04  5.74183E+02  1.32772E+04  4.74409E+03  7.49602E+03  8.22070E+02  9.57567E+03 -1.75317E+03
  1.76586E+04  3.08763E+03  2.00699E+04  1.55628E+04  1.30992E+04  3.13242E+04 -2.98846E+03  3.50277E+04
 -2.07816E+04  2.88027E+04 -3.30699E+04  1.44261E+04 -3.48331E+04 -2.72032E+03 -2.85445E+04 -1.90491E+04
 -1.26944E+04 -2.84247E+04  9.73873E+03 -2.56368E+04  2.24848E+04 -1.32612E+04  1.92888E+04  6.01951E+03
  6.90764E+03  1.50794E+04 -9.38052E+03  1.22380E+04 -1.65984E+04  2.48718E+03 -1.29897E+04 -1.07443E+04
 -3.06229E+02 -1.55695E+04  7.89200E+03 -1.21050E+04  1.00767E+04 -1.03057E+03  2.75945E+03  6.61388E+03
 -6.92998E+03  3.01840E+03 -5.67029E+03 -5.19063E+03 -8.52650E+02 -1.42361E+04  9.93332E+03 -1.53432E+04
  1.74165E+04 -8.02779E+03  1.83958E+04  2.65965E+03  1.64805E+04  1.31969E+04  7.45804E+03  2.15302E+04
 -3.66315E+03  2.25738E+04 -1.48734E+04  1.45701E+04 -1.66501E+04  3.26841E+03 -1.13956E+04 -3.63963E+03
 -5.96319E+03 -6.28284E+03 -8.14810E+02  1.01169E+03 -2.31145E+03  2.69615E+03 -5.46461E+03  3.96184E+03
 -1.11286E+04 -3.93977E+02 -1.18723E+04 -8.95754E+03 -4.33094E+03 -1.49493E+04  5.18282E+03 -1.13439E+04
  1.01306E+04 -5.30863E+03  6.90928E+03  2.71066E+03 -1.74617E+02  4.75555E+03 -5.58451E+03 -4.22033E+02
 -4.92429E+03 -8.05467E+03 -5.30027E+02 -1.08806E+04  6.36975E+03 -1.19070E+04  1.44745E+04 -6.20909E+03
  1.75745E+04  1.46030E+03  1.29445E+04  1.07845E+04  2.90017E+03  1.35531E+04 -6.88888E+03  1.26159E+04
 -9.79004E+03  3.73536E+03 -4.70350E+03 -2.90251E+03  1.82861E+03 -3.52900E+03  6.70402E+03 -8.19859E+02
  5.27023E+03  5.17449E+03  1.24795E+03  9.32653E+03 -6.82074E+03  9.40128E+03 -1.14401E+04  2.31159E+03
 -7.46082E+03 -5.56455E+03  8.68164E+01 -1.00395E+04  5.84204E+03 -5.27053E+03  5.88572E+03  2.42759E+03
  1.26506E+03  7.27556E+03 -5.71769E+03  7.89524E+03 -8.58862E+03  3.31670E+03 -9.07094E+03 -3.05445E+03
 -5.25154E+03 -1.03771E+04  2.89452E+03 -1.22916E+04  9.78413E+03 -7.30333E+03  1.13681E+04  1.76830E+03
  7.94917E+03  9.28130E+03 -7.60814E+02  1.13329E+04 -8.56212E+03  6.48974E+03 -8.03555E+03 -8.90855E+02
 -7.82990E+03 -7.28142E+03 -1.24544E+03 -7.58062E+03  3.93648E+03 -6.66215E+03  4.82862E+03 -3.14813E+03
  3.42383E+03  1.04354E+03 -9.49396E+02  1.01305E+03  2.46966E+02 -2.03133E+03  1.42392E+03 -4.13389E+03
  6.51353E+03 -2.10577E+03  1.05218E+04  9.11331E+02  1.03934E+04  6.27106E+03  7.69599E+03  1.31829E+04
 -3.14824E+03  1.57245E+04 -1.32890E+04  1.10449E+04 -1.72798E+04  1.74632E+03 -1.39901E+04 -5.40534E+03
 -6.64807E+03 -1.13190E+04 -5.16302E+01 -9.44811E+03  3.59999E+03 -4.61850E+03  3.56401E+03 -3.62632E+03
  2.86877E+03 -1.55542E+03  2.99319E+03 -3.04610E+03  4.34090E+03 -1.40274E+03  5.28823E+03 -4.63638E+02
  7.78742E+03  1.94293E+03  3.12206E+03  5.57486E+03 -1.53454E+03  6.88817E+03 -7.67688E+03  5.55291E+03
 -8.93514E+03 -1.21575E+03 -5.38731E+03 -6.38137E+03 -1.27513E+02 -9.65358E+03  5.17081E+03 -9.58898E+03
  9.99475E+03 -5.44680E+03  1.19414E+04  8.95918E+02  9.22634E+03  8.37580E+03  1.77267E+03  1.13654E+04
 -4.86766E+03  9.32334E+03 -6.48419E+03  3.19170E+03 -4.67109E+03 -2.04758E+03 -1.46844E+03 -6.97095E+02
 -4.82789E+02  1.29868E+02 -1.11581E+03  2.93406E+03 -3.29260E+03  2.01430E+03 -6.57942E+03 -8.96522E+02
 -3.86217E+03 -5.81788E+03 -1.73901E+02 -8.69663E+03  5.27458E+03 -8.93529E+03  7.89114E+03 -1.73915E+03
  8.59334E+03  4.80441E+03  3.54835E+03  7.77169E+03 -1.27049E+03  8.51969E+03 -5.80897E+03  5.48704E+03
 -8.45318E+03  1.35147E+03 -6.48755E+03 -5.18360E+03 -8.32766E+02 -6.62648E+03  3.16440E+03 -5.26147E+03
  5.15652E+03 -1.33319E+03  4.14106E+03  1.42884E+03  1.00356E+03  3.41194E+03  1.18160E+03  9.58739E+02
  1.81152E+03  1.01695E+03  1.78647E+03  8.36609E+02  2.83742E+03  3.93216E+03  2.77649E+03  3.87747E+03
 -2.12733E+03  6.63322E+03 -5.54656E+03  7.32110E+03 -8.62979E+03  2.06871E+03 -9.00978E+03 -3.00384E+03
 -3.65911E+03 -8.44044E+03  1.54278E+03 -9.63681E+03  4.52386E+03 -6.08563E+03  6.89554E+03 -2.23681E+03
  5.22350E+03  3.48608E+03  7.39136E+02  4.70307E+03 -1.73872E+03  2.73087E+03 -3.33057E+03 -1.84149E+02
 -9.53244E+02 -3.41464E+03  2.25789E+03 -3.43628E+03  3.22205E+03 -1.94988E+03  3.32878E+03  8.78297E+02
  2.09141E+03  1.41172E+03  4.51600E+02  5.03375E+02 -1.10611E+03  1.24784E+03  5.27914E+02 -7.49857E+02
  1.40073E+03 -9.02330E+01  3.90476E+03  1.36335E+03  1.68919E+03  5.13275E+03 -1.18465E+03  5.97398E+03
 -3.89917E+03  3.39195E+03 -5.01633E+03  1.00355E+03 -4.67298E+03 -2.48399E+03 -1.33299E+03 -3.33272E+03
  2.72084E+02 -3.60232E+03  2.18849E+03 -8.07653E+02  2.30532E+03  1.49845E+03 -1.26437E+03  2.69104E+03
 -3.16412E+03  1.49940E+03 -2.62530E+03 -2.17693E+03 -2.52404E+03 -4.48814E+03  5.81524E+02 -4.45759E+03
  2.27503E+03 -2.60031E+03  2.86213E+03 -2.41731E+02  2.80003E+03  1.02497E+03  5.46760E+02  2.25083E+03
 -1.80040E+03  6.47803E+02 -1.93363E+03 -1.48875E+03  1.12444E+03 -2.82490E+03  3.78469E+03 -2.64484E+03
  5.21577E+03  4.33471E+02  4.74577E+03  2.69277E+03  1.53202E+03  5.28212E+03 -1.85292E+03  4.64400E+03
 -4.14447E+03  1.18458E+03 -5.06451E+03 -9.73872E+02 -1.71514E+03 -3.15762E+03  5.26572E+01 -2.16950E+03
  4.19310E+03 -1.65031E+03  2.73157E+03  1.64259E+03  9.83969E+02  2.69982E+03 -2.17031E+01  3.27346E+03
 -1.44581E+03  1.85157E+03 -1.18127E+03  5.51268E+02  2.75710E+01  3.92320E+02 -8.31782E+02  1.37136E+03
 -1.26462E+03  2.21127E+03 -3.89742E+03  1.30633E+03 -5.44196E+03  1.42176E+02 -6.45936E+03 -3.57985E+03
 -2.44918E+03 -5.64409E+03  1.77536E+03 -8.17900E+03  3.99465E+03 -6.65408E+03  7.07443E+03 -2.54610E+03
  6.43693E+03  1.34864E+03  4.10492E+03  3.75439E+03  4.85199E+02  4.93062E+03 -1.53984E+03  3.75623E+03
 -3.17027E+03  1.26613E+03 -1.19997E+03 -9.22452E+02 -9.35491E+02 -4.10322E+02 -1.01237E+03  4.71609E+02
 -1.51924E+03  2.22023E+02 -1.31602E+03  2.57375E+02 -4.76415E+02 -1.74057E+03 -6.46299E+01 -1.80777E+03
  1.94938E+03 -1.98540E+03  2.27823E+03  4.56865E+02  2.96828E+03  2.60865E+03  6.24114E+02  4.32371E+03
 -2.81378E+03  6.04109E+03 -5.27654E+03  2.77890E+03 -5.09796E+03 -5.19931E+02 -4.55347E+03 -2.95461E+03
 -2.09907E+03 -4.15891E+03  8.13343E+02 -4.82852E+03  3.42452E+03 -2.13055E+03  3.06615E+03  1.07433E+02
  1.99493E+03  1.02869E+03 -4.05741E+02  1.03905E+03 -1.35471E+03 -3.35738E+02 -6.90106E+01 -1.39047E+03
  1.49516E+03 -6.11379E+02  1.24586E+03  9.47509E+02  1.07429E+03  1.09333E+03  7.81100E+02  1.86752E+03
 -2.24772E+03  1.89130E+03 -2.07668E+03 -1.20380E+02 -2.56377E+03 -2.19774E+03 -8.33417E+02 -3.69797E+03
  2.18077E+03 -3.20466E+03  2.48570E+03 -1.10250E+03  3.69287E+03  2.05194E+02  1.67972E+03  3.34854E+03
  6.72755E+02  2.54130E+03 -1.88410E+03  2.33888E+03 -1.83897E+03  2.33133E+03 -1.88212E+03  1.05704E+02
 -8.07318E+02  2.23294E+01 -9.83296E+02  5.19912E+02 -1.80563E+03  3.10174E+02 -2.48529E+03 -1.02261E+03
 -2.30243E+03 -7.44639E+02 -8.87754E+02 -3.12582E+03  1.40929E+03 -3.55645E+03  2.87012E+03 -1.74243E+03
  2.95974E+03  8.70595E+02  9.70251E+02  2.16393E+03  2.36272E+02  3.62407E+03 -2.19688E+03  1.93014E+03
