 $NMID ID='MM_0lb_SNR400_7hz_g55_93.RAW', FMTDAT='(8E13.5)'
 TRAMP=1., VOLUME=1. $END
  3.09948E+05 -2.18394E+02  3.37629E+05  2.50597E+05  8.50603E+04  3.39366E+05 -1.33345E+05  2.52166E+05
 -1.91989E+05  8.35427E+04 -1.12938E+05 -3.17063E+04 -4.65150E+02 -4.99459E+04  5.27302E+04 -5.57948E+02
  3.50001E+04  5.36392E+04 -1.61796E+04  7.53693E+04 -6.10277E+04  6.50882E+04 -8.51839E+04  3.32491E+04
 -8.37441E+04 -1.17961E+04 -5.96558E+04 -5.27910E+04 -1.50088E+04 -7.21305E+04  2.88076E+04 -4.67343E+04
  4.17882E+04  3.27619E+03  1.69904E+04  4.75444E+04 -3.37328E+04  4.91362E+04 -6.88284E+04 -4.69772E+02
 -5.54114E+04 -5.76675E+04 -7.07896E+03 -8.07135E+04  3.55272E+04 -5.81022E+04  5.07835E+04 -1.86155E+04
  4.58960E+04  1.20653E+04  3.38770E+04  2.77865E+04  1.60438E+04  3.11222E+04 -6.15322E+03  2.74197E+04
 -2.23830E+04  1.20389E+04 -1.78013E+04 -6.00117E+03  6.99317E+03 -7.50227E+03  2.42721E+04  1.43260E+04
  6.77024E+03  3.94544E+04 -3.46229E+04  3.73589E+04 -6.71237E+04  1.66875E+03 -5.95471E+04 -4.56576E+04
 -1.26483E+04 -6.71639E+04  4.28815E+04 -4.83834E+04  6.17997E+04 -2.48627E+03  3.80251E+04  3.54079E+04
 -5.43334E+03  4.12356E+04 -3.24333E+04  2.01032E+04 -3.55285E+04 -3.76203E+03 -2.10691E+04 -1.25851E+04
 -1.01228E+04 -1.60450E+04 -4.74524E+01 -2.04289E+04  9.96617E+03 -2.36854E+04  1.57131E+04 -1.22941E+04
  9.40359E+03  6.70077E+03 -1.10224E+04  1.35145E+04 -2.42041E+04 -7.53843E+03 -8.30734E+03 -3.96951E+04
  2.64820E+04 -4.90994E+04  5.42055E+04 -2.14420E+04  4.98505E+04  2.12592E+04  1.79668E+04  4.83849E+04
 -1.68190E+04  3.74677E+04 -2.88724E+04  2.98809E+03 -1.28898E+04 -3.01115E+04  2.15368E+04 -3.78491E+04
  4.65501E+04 -1.16647E+04  4.33150E+04  2.59366E+04  2.25931E+04  5.33896E+04 -8.57732E+03  5.88488E+04
 -3.92181E+04  4.07278E+04 -5.03509E+04  1.18386E+04 -4.98900E+04 -1.97919E+04 -2.73059E+04 -4.50524E+04
  8.05840E+03 -4.47375E+04  3.51244E+04 -1.84100E+04  3.43063E+04  1.08106E+04  5.88326E+03  2.20506E+04
 -1.50850E+04  1.03214E+04 -1.20706E+04 -7.61583E+03  4.41006E+03 -1.09220E+04  1.87838E+04  5.62718E+03
  1.49278E+04  2.31808E+04 -4.72637E+03  2.85545E+04 -2.40887E+04  1.55112E+04 -3.35570E+04 -1.39329E+03
 -2.82160E+04 -1.88749E+04 -1.31825E+04 -2.77945E+04  4.31847E+03 -2.81328E+04  2.21700E+04 -2.52793E+04
  3.51796E+04 -1.46016E+04  4.02351E+04  5.36602E+03  2.75276E+04  2.65310E+04  3.65051E+03  4.35747E+04
 -2.11143E+04  3.50994E+04 -3.26397E+04  1.23380E+04 -2.31125E+04 -1.04368E+04 -5.46841E+03 -1.27640E+04
 -3.49899E+02 -1.11723E+03 -9.27912E+03  9.88728E+03 -2.20819E+04  4.39331E+03 -2.19665E+04 -1.03528E+04
 -1.33645E+04 -2.58467E+04  5.85271E+03 -2.97401E+04  2.04543E+04 -2.07803E+04  2.47788E+04 -2.13101E+03
  1.60251E+04  1.75170E+04 -2.10385E+03  2.51618E+04 -1.83406E+04  1.48881E+04 -2.61686E+04 -5.00611E+03
 -1.84805E+04 -2.36027E+04 -2.22769E+03 -3.03991E+04  1.42405E+04 -2.44503E+04  2.48957E+04 -1.30328E+04
  2.46784E+04 -7.53962E+02  1.72797E+04  6.23564E+03  1.00274E+04  1.54313E+03  1.36778E+04 -2.31192E+03
  2.48334E+04  2.36375E+03  2.88529E+04  2.04259E+04  2.02983E+04  4.14997E+04 -2.21567E+03  4.96447E+04
 -2.79587E+04  4.15701E+04 -4.71474E+04  2.25459E+04 -5.12893E+04 -3.84339E+03 -4.13168E+04 -2.94003E+04
 -1.54474E+04 -4.17518E+04  1.48926E+04 -3.67031E+04  3.18951E+04 -1.63361E+04  2.60390E+04  9.89437E+03
  8.50161E+03  2.07831E+04 -1.40001E+04  1.71059E+04 -2.25034E+04  1.56986E+03 -1.74449E+04 -1.52814E+04
  5.94116E+02 -2.11425E+04  1.19772E+04 -1.58091E+04  1.47434E+04 -1.56559E+03  3.66762E+03  9.15098E+03
 -9.74600E+03  4.56087E+03 -1.09414E+04 -7.72276E+03 -1.38744E+03 -2.09607E+04  1.32763E+04 -2.33652E+04
  2.58077E+04 -1.35183E+04  3.10260E+04  3.64665E+03  2.67443E+04  2.13667E+04  1.13265E+04  3.38281E+04
 -6.88068E+03  3.56576E+04 -2.38036E+04  2.29433E+04 -2.73500E+04  5.05380E+03 -1.80009E+04 -7.08802E+03
 -7.00303E+03 -8.69087E+03 -3.88520E+02 -3.05241E+02 -2.96300E+03  4.43567E+03 -8.66742E+03  6.21029E+03
 -1.52211E+04 -1.54158E+03 -1.64969E+04 -1.42201E+04 -6.64392E+03 -2.19263E+04  7.11848E+03 -1.85420E+04
  1.38233E+04 -6.57316E+03  1.07167E+04  4.77518E+03  5.62790E+01  6.99550E+03 -9.47557E+03 -6.72133E+02
 -8.40956E+03 -1.18164E+04 -9.32500E+02 -1.81231E+04  1.10445E+04 -2.01266E+04  2.35075E+04 -1.09075E+04
  2.78717E+04  3.05627E+03  2.11397E+04  1.74804E+04  3.63230E+03  2.26868E+04 -1.10844E+04  1.78648E+04
 -1.45665E+04  4.33591E+03 -9.12324E+03 -4.58222E+03  2.83712E+03 -4.74006E+03  1.01639E+04 -1.30707E+03
  8.79200E+03  8.85715E+03  1.65649E+02  1.45221E+04 -1.03439E+04  1.44025E+04 -1.75031E+04  2.81123E+03
 -1.29201E+04 -1.02971E+04  3.25397E+01 -1.54909E+04  9.91621E+03 -8.10001E+03  1.12149E+04  3.38678E+03
  3.42186E+03  1.25731E+04 -9.42279E+03  1.38901E+04 -1.78257E+04  6.25593E+03 -1.74708E+04 -7.29886E+03
 -9.93398E+03 -1.97635E+04  4.27723E+03 -2.16612E+04  1.93466E+04 -1.24088E+04  2.06460E+04  4.29280E+03
  1.21940E+04  1.63121E+04 -2.21024E+03  1.94642E+04 -1.38095E+04  1.05546E+04 -1.64730E+04 -1.77313E+03
 -1.20828E+04 -1.30567E+04 -1.29318E+03 -1.41748E+04  7.91304E+03 -1.05687E+04  9.78928E+03 -3.68554E+03
  6.08521E+03  2.14151E+03 -1.01123E+03  2.63806E+03 -1.43839E+03 -3.10423E+03  3.40937E+03 -1.02961E+04
  1.46761E+04 -6.07036E+03  2.00351E+04  3.42834E+03  1.90990E+04  1.44982E+04  1.21688E+04  2.63475E+04
 -7.37702E+03  2.96449E+04 -2.39629E+04  2.19160E+04 -3.19992E+04  4.19355E+03 -2.63216E+04 -1.14980E+04
 -1.35289E+04 -2.03309E+04 -4.74515E+02 -1.83765E+04  6.11388E+03 -1.06727E+04  7.07527E+03 -6.66441E+03
  5.42553E+03 -2.57832E+03  5.21211E+03 -4.49827E+03  6.60616E+03 -4.08466E+03  8.54749E+03 -2.51982E+03
  1.34865E+04  2.78729E+03  7.41446E+03  1.24800E+04 -2.86540E+03  1.53914E+04 -1.34111E+04  1.10784E+04
 -1.88520E+04 -1.13296E+03 -1.24356E+04 -1.32480E+04 -1.77811E+03 -2.04427E+04  9.71468E+03 -1.98613E+04
  2.12945E+04 -1.10920E+04  2.52402E+04  2.71796E+03  1.67073E+04  1.82085E+04  2.14362E+03  2.25238E+04
 -9.80632E+03  1.87585E+04 -1.32012E+04  7.23122E+03 -9.00437E+03 -1.66255E+03 -3.69566E+03 -3.02553E+03
 -1.90823E+03 -4.71918E+02 -2.99338E+03  2.54100E+03 -8.04973E+03  2.89611E+03 -1.33705E+04 -1.94424E+03
 -8.90002E+03 -1.24373E+04  2.29192E+02 -1.87969E+04  1.12272E+04 -1.82122E+04  1.98899E+04 -5.39606E+03
  1.92171E+04  9.36716E+03  9.55089E+03  1.82997E+04 -4.44744E+03  1.92452E+04 -1.39694E+04  1.24589E+04
 -1.81303E+04  2.21262E+02 -1.44654E+04 -1.25472E+04 -1.34943E+03 -1.69223E+04  8.90977E+03 -1.18670E+04
  1.24046E+04 -2.90055E+03  8.47603E+03  3.80223E+03  3.55681E+03  6.53648E+03  1.36051E+03  2.18762E+03
  2.69374E+03  1.29819E+03  4.53075E+03  2.54260E+03  5.61484E+03  6.98302E+03  4.66324E+03  1.00577E+04
 -4.94647E+03  1.61698E+04 -1.40199E+04  1.58716E+04 -2.06848E+04  4.14507E+03 -2.10378E+04 -7.87441E+03
 -1.06003E+04 -2.02504E+04  3.08290E+03 -2.21656E+04  1.28032E+04 -1.42858E+04  1.65338E+04 -2.77223E+03
  1.26744E+04  7.60523E+03  2.90381E+03  1.18329E+04 -5.39992E+03  7.79538E+03 -8.29078E+03 -1.11633E+03
 -3.92607E+03 -8.44323E+03  5.12572E+03 -9.08688E+03  7.94976E+03 -4.74530E+03  8.69315E+03  1.76493E+03
  5.45557E+03  4.15272E+03  2.00239E+03  3.49312E+03 -1.31563E+03  2.37948E+03  2.17731E+03 -5.07040E+02
  3.65278E+03 -1.42510E+03  8.39920E+03  4.22847E+03  5.71248E+03  1.05959E+04 -1.94181E+03  1.50944E+04
 -9.23795E+03  1.01774E+04 -1.35255E+04  2.95412E+03 -1.12393E+04 -4.07949E+03 -4.92629E+03 -8.37124E+03
  1.53900E+03 -8.42194E+03  5.54675E+03 -4.32417E+03  4.39094E+03  3.11988E+03 -2.59863E+03  6.71514E+03
 -8.05236E+03  3.67763E+03 -1.00292E+04 -4.95744E+03 -6.09855E+03 -1.09313E+04  2.45264E+03 -1.19854E+04
  7.50786E+03 -6.86636E+03  8.99531E+03 -5.76327E+02  6.68584E+03  2.90694E+03  1.15026E+03  5.90219E+03
 -4.25552E+03  2.32838E+03 -5.61855E+03 -4.41282E+03  2.01160E+03 -9.90960E+03  9.97313E+03 -8.38054E+03
  1.46582E+04  1.90932E+03  1.31062E+04  9.46814E+03  3.23893E+03  1.37747E+04 -5.04845E+03  1.23892E+04
 -1.03810E+04  5.91604E+03 -1.19312E+04 -1.71153E+03 -6.43983E+03 -9.30834E+03  2.32612E+03 -1.00218E+04
  8.84898E+03 -4.96025E+03  6.98724E+03  3.08350E+03  2.30329E+03  7.47328E+03 -2.56615E+03  6.40208E+03
 -3.96651E+03  3.45240E+03 -2.96121E+03  5.58747E+02 -1.01447E+03  1.82255E+03 -1.08601E+03  2.99592E+03
 -3.43018E+03  4.72271E+03 -9.30986E+03  5.47617E+03 -1.48071E+04  6.38005E+02 -1.61510E+04 -9.89799E+03
 -7.33854E+03 -1.87442E+04  2.98557E+03 -2.22334E+04  1.46042E+04 -1.66280E+04  2.16235E+04 -6.28267E+03
  1.90012E+04  4.45695E+03  1.17215E+04  1.33988E+04  1.41462E+03  1.49933E+04 -6.27316E+03  1.01751E+04
 -8.35974E+03  4.71701E+03 -5.78763E+03 -1.96698E+03 -1.05928E+03 -1.79584E+03 -1.04068E+03  3.56608E+01
 -2.28730E+03  1.23223E+02 -3.27444E+03 -9.61371E+02 -2.89161E+02 -3.09663E+03 -1.66789E+02 -5.43258E+03
  6.23844E+03 -4.09663E+03  8.89169E+03  6.46498E+01  1.05212E+04  7.36903E+03  3.49402E+03  1.56243E+04
 -7.49060E+03  1.76430E+04 -1.60330E+04  1.00072E+04 -1.86648E+04 -2.26908E+03 -1.33670E+04 -1.26671E+04
 -5.29847E+03 -1.57641E+04  4.86240E+03 -1.42900E+04  1.02539E+04 -7.43779E+03  1.07480E+04  5.75306E+02
  5.54362E+03  5.18008E+03 -7.52698E+01  4.35558E+03 -2.44276E+03 -6.01998E+02  1.16286E+02 -3.99718E+03
  4.46872E+03 -3.04794E+03  6.92932E+03  1.53687E+03  5.14418E+03  6.04524E+03 -4.68500E+02  8.14262E+03
 -6.23477E+03  7.40559E+03 -1.12079E+04  5.74776E+02 -1.00592E+04 -8.16193E+03 -1.00813E+03 -1.31238E+04
  7.76225E+03 -1.17512E+04  1.30316E+04 -4.46746E+03  1.18559E+04  3.53189E+03  7.22223E+03  9.73932E+03
  1.48199E+03  1.12769E+04 -4.15977E+03  9.85702E+03 -7.15313E+03  4.74647E+03 -5.41546E+03  1.03854E+03
 -3.11909E+03 -9.83586E+02 -2.03359E+03  1.71786E+03 -5.29547E+03  2.26618E+03 -7.54158E+03 -1.98298E+03
 -6.78317E+03 -6.84466E+03 -3.30815E+03 -1.06945E+04  4.63324E+03 -1.15605E+04  9.16674E+03 -5.45941E+03
  1.11730E+04  1.73999E+03  7.54207E+03  8.20066E+03 -7.68478E+02  1.08569E+04 -8.72089E+03  7.49970E+03
