 $NMID ID='MM_0lb_SNR400_20hz_g50_35.RAW', FMTDAT='(8E13.5)'
 TRAMP=1., VOLUME=1. $END
  3.09649E+05  4.68684E+02  3.37268E+05  2.50412E+05  8.45107E+04  3.37243E+05 -1.32500E+05  2.49999E+05
 -1.90239E+05  8.19558E+04 -1.10718E+05 -3.29056E+04  1.01098E+03 -5.01551E+04  5.40053E+04  7.49696E+02
  3.47928E+04  5.25224E+04 -1.68208E+04  7.54202E+04 -6.00522E+04  6.23236E+04 -8.28927E+04  3.15674E+04
 -7.95281E+04 -1.13579E+04 -5.58585E+04 -5.03466E+04 -1.48673E+04 -6.82089E+04  2.64868E+04 -4.39955E+04
  3.88495E+04  3.93257E+03  1.47358E+04  4.70135E+04 -3.37177E+04  4.60321E+04 -6.51281E+04 -6.64120E+02
 -5.12382E+04 -5.56922E+04 -6.45419E+03 -7.51130E+04  3.28864E+04 -5.27330E+04  4.57869E+04 -1.59229E+04
  4.12397E+04  1.11930E+04  3.05110E+04  2.43920E+04  1.62385E+04  2.80156E+04 -4.81029E+03  2.68325E+04
 -2.14873E+04  1.25869E+04 -1.84864E+04 -4.41263E+03  3.93842E+03 -7.41900E+03  2.10966E+04  1.02741E+04
  7.36534E+03  3.28738E+04 -3.04192E+04  3.31693E+04 -6.10828E+04  2.22911E+03 -5.52990E+04 -4.11831E+04
 -1.22880E+04 -6.03186E+04  3.82603E+04 -4.29400E+04  5.52381E+04 -2.38538E+03  3.08820E+04  3.00900E+04
 -6.86073E+03  3.25963E+04 -2.81754E+04  1.32215E+04 -2.71187E+04 -5.48596E+03 -1.35771E+04 -1.04456E+04
 -6.86064E+03 -1.16690E+04 -1.21052E+03 -1.61420E+04  6.55250E+03 -2.26774E+04  1.44843E+04 -1.35762E+04
  1.27914E+04  4.44376E+03 -5.77722E+03  1.27966E+04 -1.91601E+04 -2.18184E+03 -8.20876E+03 -2.95117E+04
  2.10603E+04 -3.98587E+04  4.42313E+04 -1.87123E+04  4.15987E+04  1.79937E+04  1.46097E+04  4.11312E+04
 -1.56880E+04  3.08024E+04 -2.36298E+04  8.26388E+02 -7.81986E+03 -2.56935E+04  2.05548E+04 -3.10111E+04
  3.75600E+04 -7.17242E+03  3.09251E+04  2.29054E+04  1.44499E+04  4.15156E+04 -7.50474E+03  4.42687E+04
 -2.81120E+04  2.91800E+04 -3.68297E+04  8.08981E+03 -3.77405E+04 -1.51360E+04 -2.08009E+04 -3.38417E+04
  6.70827E+03 -3.37949E+04  2.89498E+04 -1.20209E+04  2.64685E+04  1.09218E+04  2.56675E+03  1.71513E+04
 -1.27237E+04  7.13281E+03 -9.25333E+03 -7.91013E+03  5.40833E+03 -9.67742E+03  1.72228E+04  6.58903E+03
  1.21215E+04  2.12993E+04 -6.40969E+03  2.26641E+04 -2.13182E+04  9.53275E+03 -2.47677E+04 -5.76259E+03
 -1.65616E+04 -1.66134E+04 -5.37582E+03 -1.63073E+04  3.69904E+03 -1.40456E+04  1.21096E+04 -1.36917E+04
  2.03683E+04 -1.12974E+04  2.77162E+04  1.34280E+03  2.08569E+04  1.52698E+04  3.58750E+03  3.18459E+04
 -1.58540E+04  2.68499E+04 -2.53822E+04  9.73180E+03 -1.92851E+04 -1.04037E+04 -3.73639E+03 -1.44510E+04
  2.77026E+03 -4.69896E+03 -2.15637E+03  4.62268E+03 -1.24640E+04  6.09028E+03 -1.27189E+04 -4.90496E+03
 -8.74680E+03 -1.53612E+04  4.60365E+03 -1.86352E+04  1.25070E+04 -1.34037E+04  1.40974E+04 -1.26542E+03
  8.35723E+03  1.06250E+04 -5.71365E+02  1.47867E+04 -9.79691E+03  8.76431E+03 -1.47033E+04 -3.22010E+03
 -1.15682E+04 -1.39545E+04 -1.89496E+03 -1.81028E+04  8.09097E+03 -1.42054E+04  1.51505E+04 -7.02046E+03
  1.43562E+04  5.99000E+02  9.75653E+03  3.63389E+03  4.95217E+03  3.91548E+01  7.20994E+03 -1.20348E+03
  1.35115E+04  2.54367E+03  1.36072E+04  1.21497E+04  8.50491E+03  2.36658E+04 -3.77502E+03  2.53577E+04
 -1.51850E+04  1.91476E+04 -2.24963E+04  8.37407E+03 -2.33162E+04 -2.20645E+03 -2.01469E+04 -1.33242E+04
 -9.57564E+03 -1.94050E+04  5.55385E+03 -1.76715E+04  1.56663E+04 -1.00850E+04  1.49663E+04  3.03499E+03
  6.36273E+03  1.12576E+04 -6.37664E+03  1.06747E+04 -1.24883E+04  2.56540E+03 -9.99181E+03 -7.71778E+03
  2.38034E+02 -1.18045E+04  5.27181E+03 -8.89310E+03  7.62791E+03 -1.00200E+03  1.25646E+03  4.31686E+03
 -5.47969E+03  1.59384E+03 -3.14271E+03 -4.01706E+03  7.60682E+02 -9.72642E+03  7.08681E+03 -9.27204E+03
  1.11477E+04 -3.68605E+03  1.01468E+04  2.75259E+03  8.69243E+03  8.92928E+03  5.10378E+03  1.27188E+04
 -1.35987E+03  1.44749E+04 -8.76651E+03  9.37913E+03 -9.65433E+03  2.50057E+03 -7.89866E+03 -9.96853E+02
 -4.55872E+03 -2.65930E+03 -6.27475E+02  1.40278E+03 -1.59247E+03  2.49729E+03 -3.10818E+03  3.37921E+03
 -7.45288E+03 -6.04715E+02 -8.37155E+03 -6.67000E+03 -3.56033E+03 -1.08291E+04  3.26110E+03 -7.59360E+03
  6.14505E+03 -3.41676E+03  4.58081E+03  1.17986E+03  1.32901E+03  2.28458E+03 -2.69968E+03  7.06370E+01
 -2.37991E+03 -4.77102E+03 -6.37334E+02 -6.20289E+03  3.29329E+03 -7.41484E+03  9.44951E+03 -3.93484E+03
  1.07993E+04  4.71629E+02  8.06037E+03  5.56610E+03  1.46553E+03  8.23564E+03 -4.70519E+03  7.58461E+03
 -6.21797E+03  2.82595E+03 -3.16481E+03 -9.75887E+02  1.22986E+03 -1.87243E+03  4.32485E+03 -1.47482E+03
  4.17854E+03  3.11679E+03  1.09475E+03  5.83810E+03 -4.25441E+03  6.18913E+03 -6.94213E+03  1.73811E+03
 -4.17251E+03 -2.81061E+03  1.10098E+01 -6.14877E+03  3.06546E+03 -3.34953E+03  2.70984E+03  8.76593E+02
  2.56837E+02  2.47744E+03 -3.74231E+03  4.27284E+03 -4.02668E+03  2.16110E+03 -3.83302E+03 -7.93408E+02
 -2.06324E+03 -5.66861E+03  8.96969E+02 -5.99579E+03  5.25292E+03 -4.20123E+03  5.60817E+03  3.27957E+02
  3.91451E+03  5.08247E+03  2.40702E+02  6.93585E+03 -4.43813E+03  3.63485E+03 -4.74450E+03 -1.87659E+02
 -5.48064E+03 -4.57068E+03 -1.24119E+03 -4.30345E+03  1.92422E+03 -4.27112E+03  3.00698E+03 -3.00658E+03
  2.52049E+03  2.36538E+02  3.81186E+02  1.39463E+03  1.03861E+03  4.83009E+02 -3.94481E+02 -1.09441E+03
  2.94034E+03 -1.38268E+02  3.80777E+03  7.77585E+02  5.13210E+03  2.44031E+03  4.53191E+03  5.63038E+03
 -5.63509E+02  6.86626E+03 -6.66314E+03  5.60210E+03 -8.35986E+03  4.59785E+02 -6.77334E+03 -2.68057E+03
 -3.86968E+03 -5.55795E+03 -4.78851E+02 -4.01749E+03  1.91558E+03 -1.38968E+03  1.14540E+03 -1.63732E+03
  9.49501E+02 -1.56790E+03  2.36021E+03 -2.52501E+03  3.30421E+03 -9.97699E+02  3.08513E+03  6.05753E+02
  3.66830E+03  1.29002E+03  9.95971E+02  2.42415E+03 -9.06559E+02  2.39546E+03 -3.98441E+03  2.52138E+03
 -3.86555E+03 -8.80831E+02 -1.49335E+03 -2.81150E+03  6.47248E+02 -3.82398E+03  3.18227E+03 -4.63211E+03
  3.85021E+03 -2.76763E+03  5.83698E+03  5.02596E+02  4.16168E+03  3.38610E+03  1.19244E+03  5.27199E+03
 -1.74546E+03  5.70774E+03 -2.45340E+03  9.66123E+02 -1.07339E+03 -1.25556E+03 -2.24089E+02 -8.19766E+02
 -5.49538E+02  8.18206E+02 -7.10072E+02  2.13760E+03 -2.45718E+03  9.36194E+02 -3.79799E+03 -6.49459E+02
 -9.86871E+02 -3.85903E+03  7.67636E+02 -3.95174E+03  2.21537E+03 -3.42427E+03  2.38303E+03 -7.98013E+02
  3.21009E+03  2.04571E+03  1.32905E+03  2.61522E+03 -1.06788E+03  4.06172E+03 -2.03415E+03  1.84580E+03
 -3.44184E+03  1.05429E+03 -2.60597E+03 -2.37717E+03 -2.21176E+02 -2.60428E+03  1.04044E+03 -2.30686E+03
  2.36525E+03 -1.00728E+03  1.00069E+03  6.29830E+02  4.98999E+00  1.48029E+03  4.71837E+02  2.23215E+02
  1.55848E+03  4.70098E+02  8.98623E+02  1.32019E+03  1.19674E+03  2.01505E+03  1.01675E+03  1.23505E+03
 -1.10023E+03  2.36944E+03 -1.75339E+03  3.61562E+03 -2.12720E+03  1.36175E+03 -2.93232E+03  5.23728E+02
 -1.15849E+03 -2.15096E+03  5.67867E+02 -3.53150E+03  1.47823E+03 -2.06655E+03  2.37056E+03 -9.29124E+02
  1.87811E+03  1.42412E+03  5.29081E+02  1.88899E+03 -1.30313E+02  8.95684E+02 -9.95120E+02  1.65958E+02
  5.18682E+01 -1.19673E+03  1.29236E+03 -1.45631E+03  9.17311E+02 -9.36166E+02  1.22418E+03  4.86265E+02
  1.13270E+03  1.14649E+02  7.28054E+02 -4.19546E+02 -3.40076E+02  4.52508E+02  1.51516E+03 -8.89706E+01
 -1.68873E+02 -2.71614E+02  1.34044E+03  3.23943E+02  4.49599E+02  2.00788E+03 -2.63089E+02  2.17209E+03
 -1.01730E+03  8.03329E+02 -1.53655E+03  2.09787E+02 -1.20457E+03 -9.15406E+02  5.45201E+02 -4.38463E+02
  6.30492E+02 -1.50664E+03  2.89980E+02 -5.13375E+02  5.53811E+01  9.93669E+02 -3.96448E+02  7.38344E+02
 -9.35690E+02  7.24920E+02 -7.76690E+02 -1.70201E+03 -1.15348E+02 -1.88753E+03  3.58410E+02 -1.46211E+03
  3.05334E+02 -3.63498E+02  3.64276E+02  2.81908E+02  1.24260E+03 -3.79069E+01  1.87381E+02  8.89464E+02
 -1.57663E+02 -2.99541E+02 -3.63967E+02  1.30167E+02  1.04289E+03 -3.18958E+02  1.24637E+03 -6.38306E+02
  1.00055E+03  5.20940E+02  1.73677E+03  1.11316E+03  8.24398E+02  1.30866E+03  3.47640E+02  1.36632E+03
 -1.17329E+03 -2.67087E+01 -8.00894E+02 -5.00537E+02 -1.29235E+01 -4.52474E+02  1.24073E+02 -1.30681E+02
  1.42683E+03 -3.37884E+02  3.10493E+02  4.61531E+02  2.71870E+01  9.41146E+02  4.36254E+02  1.02664E+03
 -6.54700E+02  9.59448E+02 -7.22838E+02 -2.38877E+02  1.95684E+02  5.11882E+02 -4.33955E+02  7.89915E+02
 -8.08147E+02  3.95865E+02 -1.42539E+03 -8.95458E+01 -1.43712E+03  2.77725E+02 -1.83731E+03 -6.31188E+02
 -8.22013E+02 -2.28510E+03  1.87463E+02 -1.89623E+03  3.68126E+02 -1.81182E+03  2.27648E+03 -8.08729E+02
  1.36667E+03 -5.46362E+02  1.23839E+03  1.72656E+03 -5.17510E+02  8.76290E+02 -6.99123E+02  8.40068E+02
 -7.89916E+02  7.66296E+02 -6.06436E+02  8.58367E+00 -2.69892E+02  3.24546E+01 -7.52682E+02 -7.10431E+00
 -1.00665E+03  3.28284E+02 -7.80715E+02  4.25173E+02  2.60175E+01 -5.99663E+02 -6.58071E+02 -1.27552E+03
  1.62530E+03 -3.70831E+02 -5.77706E+01  2.35068E+02  8.37829E+02  1.04408E+03 -3.91559E+02  9.30069E+02
 -6.38338E+02  1.90784E+03 -1.53397E+03  9.74451E+02 -1.09271E+03 -6.39510E+01 -1.36478E+03 -8.37883E+02
 -9.76532E+02 -7.87938E+02 -9.13274E+01 -7.71706E+02  3.62979E+02 -4.53596E+02  6.95717E+02  4.77607E+01
  8.68345E+01 -1.64370E+02  3.87394E+02 -5.60165E+02 -5.94722E+02 -4.18417E+01 -3.27145E+01  1.32945E+02
  8.10071E+02  2.23062E+02  1.21194E+02  3.77734E+02 -1.72702E+02  1.20309E+02  2.24221E+02 -1.69595E+02
 -7.85375E+02  6.52066E+02 -6.72999E+02  5.54020E+02 -2.87858E+02 -1.93874E+01  7.54256E+01 -9.77738E+02
 -3.29051E+01  4.98622E+02 -1.41586E+02 -1.09243E+02  1.01950E+03 -1.24029E+03  1.11406E+02  3.91293E+02
  8.66135E+02 -2.83982E+01  1.34647E+02  2.02519E+02 -3.96508E+02  4.00385E+02 -5.08040E+02 -5.87449E+02
 -1.21327E+02 -5.54661E+01 -3.76534E+02  5.42458E+01 -4.25288E+02  2.93202E+01 -9.48719E+02 -1.07067E+02
 -1.35840E+03  8.87904E+02 -3.31292E+01 -7.27477E+02 -2.85703E+01 -9.10566E+02  5.20882E+02 -1.07895E+02
  4.02438E+02  2.14965E+02 -6.19611E+02  1.99614E+02  3.44841E+02  7.81928E+02  2.24895E+02  9.14508E+02
