 $NMID ID='MM_0lb_SNR400_8hz_g50_52.RAW', FMTDAT='(8E13.5)'
 TRAMP=1., VOLUME=1. $END
  3.09740E+05  4.24331E+02  3.38281E+05  2.50191E+05  8.51844E+04  3.38393E+05 -1.32793E+05  2.52480E+05
 -1.91538E+05  8.33480E+04 -1.12682E+05 -3.21442E+04  2.21808E+02 -5.18773E+04  5.39953E+04 -5.99990E+02
  3.56304E+04  5.31497E+04 -1.65754E+04  7.61895E+04 -6.17610E+04  6.49068E+04 -8.59340E+04  3.18377E+04
 -8.34322E+04 -1.16525E+04 -5.87919E+04 -5.29911E+04 -1.51285E+04 -7.19488E+04  2.80007E+04 -4.70762E+04
  4.12266E+04  3.56408E+03  1.66727E+04  4.90283E+04 -3.46624E+04  4.77348E+04 -6.79007E+04  4.36597E+02
 -5.45886E+04 -5.83539E+04 -7.16874E+03 -7.94347E+04  3.53847E+04 -5.79085E+04  4.97362E+04 -1.85215E+04
  4.58033E+04  1.18240E+04  3.27481E+04  2.72868E+04  1.57206E+04  3.07831E+04 -5.98567E+03  2.80567E+04
 -2.28869E+04  1.19331E+04 -1.76834E+04 -6.13526E+03  7.39621E+03 -7.27416E+03  2.31353E+04  1.39714E+04
  7.15571E+03  3.78228E+04 -3.35015E+04  3.82265E+04 -6.61848E+04  2.62834E+03 -5.84828E+04 -4.52031E+04
 -1.23517E+04 -6.59934E+04  4.19016E+04 -4.81674E+04  6.18434E+04 -2.68549E+03  3.71396E+04  3.45382E+04
 -5.64301E+03  4.04107E+04 -3.17660E+04  1.95316E+04 -3.40366E+04 -3.39667E+03 -2.04482E+04 -1.21774E+04
 -1.00904E+04 -1.57081E+04 -7.82166E+02 -1.99610E+04  9.01577E+03 -2.32634E+04  1.60539E+04 -1.28742E+04
  1.05259E+04  5.95114E+03 -1.05405E+04  1.26019E+04 -2.30110E+04 -7.51746E+03 -8.82907E+03 -3.84517E+04
  2.52870E+04 -4.85288E+04  5.23160E+04 -2.12682E+04  4.97368E+04  2.15523E+04  1.75245E+04  4.74339E+04
 -1.71730E+04  3.57298E+04 -2.80952E+04  2.38807E+03 -1.17822E+04 -2.99675E+04  2.20601E+04 -3.74725E+04
  4.50725E+04 -1.11526E+04  4.14617E+04  2.50940E+04  2.12774E+04  5.17159E+04 -8.17797E+03  5.71425E+04
 -3.67052E+04  3.83045E+04 -4.88301E+04  1.10379E+04 -4.88800E+04 -1.89938E+04 -2.55814E+04 -4.26104E+04
  8.54785E+03 -4.21453E+04  3.40370E+04 -1.82933E+04  3.17055E+04  1.13836E+04  5.72181E+03  2.09864E+04
 -1.38828E+04  9.65999E+03 -1.10953E+04 -8.21055E+03  6.78697E+03 -1.16888E+04  1.83937E+04  5.02020E+03
  1.54919E+04  2.26930E+04 -5.39501E+03  2.81984E+04 -2.37605E+04  1.50222E+04 -3.19135E+04 -3.03794E+03
 -2.55927E+04 -1.82281E+04 -1.24913E+04 -2.59163E+04  3.82552E+03 -2.72224E+04  2.06829E+04 -2.36490E+04
  3.33199E+04 -1.47342E+04  3.85665E+04  6.54928E+03  2.75955E+04  2.51704E+04  5.34709E+03  4.25043E+04
 -2.03185E+04  3.45820E+04 -3.10145E+04  1.11997E+04 -2.30551E+04 -9.77585E+03 -4.42428E+03 -1.25648E+04
  8.85658E+01 -9.73460E+02 -8.23671E+03  8.68838E+03 -2.10602E+04  4.84067E+03 -2.05867E+04 -1.04982E+04
 -1.23123E+04 -2.42962E+04  6.12468E+03 -2.85996E+04  1.96109E+04 -2.02685E+04  2.39157E+04 -1.92348E+03
  1.55366E+04  1.68433E+04 -1.95127E+03  2.35676E+04 -1.72499E+04  1.41206E+04 -2.40511E+04 -4.70666E+03
 -1.81296E+04 -2.20772E+04 -1.42910E+03 -2.94885E+04  1.29703E+04 -2.39218E+04  2.32868E+04 -1.19245E+04
  2.23824E+04  7.93445E+01  1.63430E+04  5.95254E+03  9.39618E+03  2.03072E+03  1.24162E+04 -1.75743E+03
  2.34972E+04  2.42962E+03  2.72735E+04  1.87512E+04  1.75561E+04  3.93821E+04 -2.64298E+03  4.64546E+04
 -2.69303E+04  3.86608E+04 -4.42015E+04  1.97982E+04 -4.76073E+04 -3.37834E+03 -3.73044E+04 -2.72969E+04
 -1.44006E+04 -3.94378E+04  1.42921E+04 -3.46186E+04  2.96667E+04 -1.54542E+04  2.52950E+04  9.32854E+03
  8.84746E+03  2.02289E+04 -1.24486E+04  1.65589E+04 -2.14831E+04  2.27721E+03 -1.63166E+04 -1.33110E+04
 -1.20564E+03 -2.05854E+04  1.15383E+04 -1.56416E+04  1.39926E+04 -1.22945E+03  4.49211E+03  1.00829E+04
 -8.62813E+03  4.76209E+03 -9.76461E+03 -6.44559E+03 -2.63373E+03 -1.97409E+04  1.32172E+04 -2.16058E+04
  2.50361E+04 -1.23994E+04  2.77176E+04  3.28292E+03  2.44261E+04  1.99374E+04  1.14596E+04  3.05892E+04
 -6.16472E+03  3.29862E+04 -2.09877E+04  2.12909E+04 -2.53415E+04  4.12815E+03 -1.60200E+04 -6.21210E+03
 -8.07977E+03 -7.87245E+03 -2.87631E+02  2.30210E+02 -2.53582E+03  3.71344E+03 -7.82637E+03  5.92982E+03
 -1.43000E+04 -1.63363E+03 -1.65126E+04 -1.25512E+04 -6.05512E+03 -2.02283E+04  6.50055E+03 -1.66227E+04
  1.28464E+04 -7.00054E+03  9.30090E+03  4.88696E+03 -4.33012E+02  6.30501E+03 -9.40895E+03  3.54745E+02
 -6.86109E+03 -1.13238E+04 -1.04298E+03 -1.64493E+04  9.33941E+03 -1.86557E+04  2.16712E+04 -9.54946E+03
  2.46787E+04  2.39235E+03  1.92041E+04  1.55861E+04  2.89854E+03  2.01203E+04 -9.86993E+03  1.61167E+04
 -1.42498E+04  4.83570E+03 -7.45673E+03 -3.93828E+03  2.40454E+03 -4.91995E+03  8.86536E+03 -6.16502E+02
  7.88187E+03  7.49369E+03  8.44623E+02  1.32500E+04 -9.71212E+03  1.30870E+04 -1.59243E+04  2.63515E+03
 -1.18705E+04 -9.39641E+03  7.85451E+02 -1.44332E+04  9.70723E+03 -6.69717E+03  1.03682E+04  4.24927E+03
  2.56907E+03  1.08575E+04 -9.02721E+03  1.24459E+04 -1.48267E+04  5.19430E+03 -1.58746E+04 -5.65481E+03
 -8.86628E+03 -1.72846E+04  4.33103E+03 -2.04351E+04  1.68785E+04 -1.18400E+04  1.87716E+04  3.57622E+03
  1.15227E+04  1.55975E+04 -2.47427E+03  1.72505E+04 -1.23845E+04  9.79191E+03 -1.35526E+04 -1.33268E+03
 -1.09058E+04 -1.23676E+04 -1.99611E+03 -1.28737E+04  6.59498E+03 -1.04824E+04  7.99141E+03 -4.09015E+03
  5.14700E+03  1.55202E+03 -1.30307E+03  2.37260E+03 -5.15191E+02 -3.83355E+03  4.31094E+03 -8.18461E+03
  1.17429E+04 -5.39293E+03  1.70003E+04  2.40404E+03  1.71589E+04  1.25153E+04  9.84697E+03  2.30030E+04
 -6.04554E+03  2.58050E+04 -2.20278E+04  1.86660E+04 -2.86942E+04  2.86316E+03 -2.31517E+04 -9.22725E+03
 -1.06440E+04 -1.91842E+04 -4.87527E+02 -1.58509E+04  5.37795E+03 -8.25076E+03  5.84815E+03 -5.53666E+03
  4.79616E+03 -4.29977E+03  4.71756E+03 -4.46929E+03  6.74884E+03 -4.17239E+03  8.84126E+03 -1.17229E+03
  1.20069E+04  2.63101E+03  6.23014E+03  1.01646E+04 -2.90365E+03  1.33892E+04 -1.25080E+04  1.05731E+04
 -1.74886E+04 -7.58814E+02 -1.07287E+04 -1.16247E+04 -1.29167E+03 -1.84244E+04  9.30066E+03 -1.79049E+04
  1.89399E+04 -9.29905E+03  2.19591E+04  3.35337E+03  1.50675E+04  1.51707E+04  2.38512E+03  2.01756E+04
 -8.28041E+03  1.58292E+04 -1.25646E+04  4.68815E+03 -8.75085E+03 -1.75876E+03 -2.70667E+03 -2.71555E+03
 -1.94434E+03  5.88959E+02 -2.11339E+03  3.03835E+03 -6.20976E+03  2.85888E+03 -1.10307E+04 -1.97470E+03
 -8.27580E+03 -1.15538E+04 -1.36437E+02 -1.60645E+04  1.01038E+04 -1.53635E+04  1.64642E+04 -5.93249E+03
  1.74453E+04  8.18698E+03  7.61730E+03  1.51579E+04 -4.11456E+03  1.71449E+04 -1.28878E+04  9.95596E+03
 -1.59893E+04  6.91993E+02 -1.20009E+04 -9.29074E+03 -2.50175E+03 -1.39777E+04  6.47340E+03 -9.87303E+03
  1.09277E+04 -3.36270E+03  6.97255E+03  3.12124E+03  2.77816E+03  4.03065E+03  1.09670E+03  1.86220E+03
  3.34931E+03  5.96582E+02  3.26862E+03  1.92841E+03  5.09403E+03  5.32136E+03  3.87096E+03  9.48432E+03
 -3.20644E+03  1.37851E+04 -1.19069E+04  1.20733E+04 -1.71413E+04  2.57933E+03 -1.81033E+04 -7.18654E+03
 -8.33062E+03 -1.76608E+04  2.23246E+03 -1.85839E+04  1.06065E+04 -1.19021E+04  1.34085E+04 -3.73358E+03
  1.10990E+04  6.07855E+03  2.60510E+03  1.05536E+04 -5.02972E+03  6.69285E+03 -7.26879E+03 -6.24463E+02
 -3.28672E+03 -7.03966E+03  3.63604E+03 -7.74905E+03  6.62400E+03 -3.16462E+03  7.36470E+03  6.77496E+02
  3.60752E+03  3.37771E+03  6.27399E+02  3.35575E+03 -7.80900E+02  2.58805E+03  1.59410E+03  8.81144E+01
  2.74794E+03 -6.07768E+02  7.16896E+03  3.08077E+03  3.53817E+03  9.60473E+03 -1.39678E+03  1.29525E+04
 -8.62725E+03  8.17612E+03 -1.15832E+04  2.41051E+03 -9.93736E+03 -3.23491E+03 -4.00528E+03 -7.11657E+03
  1.43544E+03 -6.76839E+03  5.02576E+03 -3.34765E+03  3.56167E+03  2.56372E+03 -1.35337E+03  5.48347E+03
 -6.92903E+03  3.27256E+03 -7.89521E+03 -4.56507E+03 -5.68980E+03 -9.97375E+03  1.14682E+03 -1.05712E+04
  5.88900E+03 -5.71739E+03  7.38036E+03 -5.25907E+01  5.52549E+03  3.56262E+03  4.45770E+01  5.36992E+03
 -3.80140E+03  7.81372E+02 -4.27881E+03 -3.89429E+03  1.91703E+03 -7.54681E+03  8.48344E+03 -6.76887E+03
  1.16296E+04  7.00839E+02  1.03507E+04  7.73801E+03  3.14643E+03  1.27182E+04 -4.26996E+03  1.06385E+04
 -9.69368E+03  5.59884E+03 -1.00719E+04 -1.75859E+03 -5.09519E+03 -7.82058E+03  1.20841E+03 -7.09091E+03
  7.60816E+03 -3.41905E+03  6.36037E+03  1.93086E+03  1.84440E+03  6.22104E+03 -1.88467E+03  5.69138E+03
 -2.36786E+03  2.94116E+03 -2.72519E+03  2.11791E+03 -1.67574E+03  8.75075E+02 -1.79900E+03  2.76547E+03
 -3.33220E+03  4.31872E+03 -7.41000E+03  4.91738E+03 -1.12138E+04  4.99632E+01 -1.34027E+04 -7.61369E+03
 -6.26532E+03 -1.48879E+04  2.74841E+03 -1.78641E+04  1.15977E+04 -1.37141E+04  1.61813E+04 -5.30339E+03
  1.59459E+04  2.97651E+03  1.00409E+04  1.08281E+04  1.24718E+03  1.32891E+04 -5.36261E+03  9.38238E+03
 -7.57286E+03  3.08314E+03 -4.51244E+03 -1.54553E+03 -2.01055E+03 -6.74040E+02 -1.30348E+03  8.40779E+01
 -1.88183E+03  1.95654E+02 -2.84323E+03 -7.63935E+02 -6.07154E+02 -2.63859E+03 -5.99822E+01 -4.33904E+03
  5.20201E+03 -3.36888E+03  8.18366E+03  2.67345E+02  9.07661E+03  6.18080E+03  2.10330E+03  1.16398E+04
 -5.77585E+03  1.40065E+04 -1.28291E+04  8.07552E+03 -1.53044E+04 -2.03166E+03 -1.09144E+04 -8.86099E+03
 -4.03001E+03 -1.23444E+04  4.50907E+03 -1.14413E+04  7.78589E+03 -6.31585E+03  8.17632E+03 -3.20056E+02
  4.13186E+03  4.87842E+03 -1.21239E+03  3.68047E+03 -2.39769E+03 -8.81566E+02  4.73385E+01 -3.95801E+03
  4.80830E+03 -1.77988E+03  4.91822E+03  2.10758E+03  4.03953E+03  4.57530E+03  8.32267E+02  6.94076E+03
 -5.20827E+03  5.64523E+03 -8.33147E+03  9.92594E+02 -7.24433E+03 -5.86546E+03 -1.39089E+03 -1.10112E+04
  6.46254E+03 -9.43231E+03  9.38738E+03 -3.00059E+03  9.93901E+03  2.41144E+03  6.10009E+03  7.13728E+03
  4.53749E+02  9.13827E+03 -3.62686E+03  7.72806E+03 -5.25220E+03  3.93640E+03 -5.47409E+03  4.47330E+02
 -2.34264E+03 -8.79390E+02 -3.03532E+03  1.42268E+03 -4.42929E+03  8.03092E+02 -7.19350E+03 -1.21945E+03
 -6.18689E+03 -4.51771E+03 -1.79513E+03 -8.69470E+03  4.09771E+03 -9.11019E+03  7.55200E+03 -4.74238E+03
  8.63175E+03  1.65238E+03  5.24483E+03  5.75367E+03 -9.33002E+02  9.31748E+03 -6.27537E+03  4.70840E+03
