 $NMID ID='MM_0lb_SNR400_18hz_g40_67.RAW', FMTDAT='(8E13.5)'
 TRAMP=1., VOLUME=1. $END
  3.10052E+05  6.92648E+02  3.37045E+05  2.50143E+05  8.43404E+04  3.36998E+05 -1.32274E+05  2.50151E+05
 -1.89530E+05  8.24597E+04 -1.11121E+05 -3.29919E+04  1.56125E+03 -5.04531E+04  5.41149E+04  2.60671E+02
  3.51998E+04  5.35898E+04 -1.74000E+04  7.44767E+04 -6.02035E+04  6.25027E+04 -8.28886E+04  3.09961E+04
 -8.03632E+04 -1.07249E+04 -5.61799E+04 -5.01446E+04 -1.50279E+04 -6.81840E+04  2.65158E+04 -4.48511E+04
  3.91281E+04  3.67302E+03  1.58240E+04  4.70909E+04 -3.38868E+04  4.60239E+04 -6.48927E+04 -3.24105E+02
 -5.16604E+04 -5.55984E+04 -5.88085E+03 -7.51219E+04  3.35699E+04 -5.30872E+04  4.60596E+04 -1.61045E+04
  4.14812E+04  1.07714E+04  3.12321E+04  2.42296E+04  1.58160E+04  2.82063E+04 -4.16264E+03  2.61175E+04
 -2.16121E+04  1.26590E+04 -1.88617E+04 -4.11547E+03  4.57351E+03 -7.59308E+03  2.13836E+04  1.14416E+04
  8.01324E+03  3.30296E+04 -2.99094E+04  3.37965E+04 -6.04559E+04  2.10555E+03 -5.49541E+04 -4.12849E+04
 -1.27081E+04 -6.05168E+04  3.72334E+04 -4.31364E+04  5.53565E+04 -2.63749E+03  3.13110E+04  3.04670E+04
 -6.66685E+03  3.30824E+04 -2.79541E+04  1.30513E+04 -2.74193E+04 -5.36306E+03 -1.43826E+04 -9.73374E+03
 -7.19010E+03 -1.17565E+04 -4.85163E+02 -1.63677E+04  6.76907E+03 -2.24523E+04  1.48251E+04 -1.42073E+04
  1.21651E+04  4.26637E+03 -5.53905E+03  1.32186E+04 -1.95189E+04 -1.96913E+03 -8.10519E+03 -2.96159E+04
  2.01518E+04 -4.04545E+04  4.43570E+04 -1.85560E+04  4.16212E+04  1.79657E+04  1.42988E+04  4.19474E+04
 -1.49716E+04  3.07696E+04 -2.36127E+04  1.15343E+03 -8.62717E+03 -2.61914E+04  2.04478E+04 -3.10688E+04
  3.76042E+04 -6.98497E+03  3.12770E+04  2.31033E+04  1.50921E+04  4.19910E+04 -7.61572E+03  4.49276E+04
 -2.82436E+04  2.92694E+04 -3.71697E+04  8.34596E+03 -3.78584E+04 -1.48043E+04 -2.11251E+04 -3.39369E+04
  6.81376E+03 -3.36715E+04  2.83224E+04 -1.26462E+04  2.71707E+04  1.06844E+04  2.93834E+03  1.79998E+04
 -1.28396E+04  7.05364E+03 -9.19245E+03 -8.34168E+03  5.93522E+03 -1.02446E+04  1.71786E+04  6.81733E+03
  1.24426E+04  2.19968E+04 -6.33888E+03  2.36660E+04 -2.19926E+04  8.99320E+03 -2.47289E+04 -6.61875E+03
 -1.61524E+04 -1.65088E+04 -5.68055E+03 -1.59353E+04  3.64364E+03 -1.45572E+04  1.21229E+04 -1.43329E+04
  2.07475E+04 -1.19324E+04  2.72786E+04  1.41880E+03  2.05125E+04  1.57068E+04  3.62759E+03  3.22436E+04
 -1.63020E+04  2.69956E+04 -2.57962E+04  9.14864E+03 -1.96020E+04 -1.05246E+04 -3.90014E+03 -1.39692E+04
  2.66945E+03 -4.64033E+03 -2.37089E+03  5.32123E+03 -1.33127E+04  5.02415E+03 -1.26693E+04 -4.77356E+03
 -8.22604E+03 -1.54488E+04  4.72905E+03 -1.93704E+04  1.21685E+04 -1.44114E+04  1.39492E+04 -1.14381E+03
  8.82498E+03  1.05065E+04 -6.79090E+02  1.55601E+04 -1.01539E+04  8.84201E+03 -1.50696E+04 -3.54031E+03
 -1.13898E+04 -1.37994E+04 -1.37111E+03 -1.86345E+04  8.42414E+03 -1.50366E+04  1.58931E+04 -7.61468E+03
  1.43330E+04  1.11985E+03  1.03777E+04  3.68456E+03  4.49531E+03  1.84342E+02  6.83766E+03 -1.51057E+03
  1.29042E+04  2.56644E+03  1.52008E+04  1.22511E+04  8.49955E+03  2.44559E+04 -3.28570E+03  2.66484E+04
 -1.56974E+04  1.99910E+04 -2.36868E+04  9.29116E+03 -2.45483E+04 -2.04269E+03 -2.09896E+04 -1.39255E+04
 -1.03926E+04 -2.01692E+04  7.00473E+03 -1.91017E+04  1.64350E+04 -1.10986E+04  1.52081E+04  3.89972E+03
  6.67645E+03  1.08133E+04 -7.31562E+03  9.95866E+03 -1.33885E+04  2.64238E+03 -1.01024E+04 -8.21544E+03
 -6.63366E+02 -1.24465E+04  5.70631E+03 -8.90869E+03  8.00791E+03 -1.16300E+03  1.62985E+03  4.48643E+03
 -5.50358E+03  5.85197E+02 -3.55307E+03 -4.59789E+03  6.40642E+02 -1.01660E+04  7.98697E+03 -1.02040E+04
  1.27634E+04 -4.52597E+03  1.15386E+04  2.47461E+03  1.01005E+04  9.15507E+03  4.98725E+03  1.36412E+04
 -1.67086E+03  1.58551E+04 -9.10799E+03  9.67168E+03 -1.09998E+04  2.51542E+03 -8.32980E+03 -1.77833E+03
 -4.54732E+03 -3.62277E+03 -1.09509E+03  1.39562E+03 -2.12823E+03  1.93177E+03 -3.72277E+03  3.60713E+03
 -7.91805E+03 -2.00640E+02 -8.64256E+03 -7.25934E+03 -3.57603E+03 -1.12449E+04  3.92844E+03 -8.24486E+03
  7.77020E+03 -3.77453E+03  5.19929E+03  2.07157E+03  8.91248E+02  3.38512E+03 -3.48634E+03  4.59802E+01
 -3.72722E+03 -5.17421E+03 -1.03704E+03 -7.07243E+03  3.08352E+03 -7.79104E+03  9.93059E+03 -4.05538E+03
  1.18039E+04  6.92819E+02  9.02160E+03  6.95708E+03  1.97402E+03  8.83732E+03 -5.77397E+03  7.87885E+03
 -7.28173E+03  2.93665E+03 -3.33468E+03 -1.08413E+03  1.56295E+03 -1.99838E+03  4.86507E+03 -1.02079E+03
  4.21271E+03  3.35679E+03  1.10591E+03  6.62648E+03 -4.95503E+03  5.84422E+03 -7.32753E+03  1.80399E+03
 -4.99591E+03 -3.35584E+03  3.00636E+02 -6.71531E+03  3.92110E+03 -3.07719E+03  3.75719E+03  9.08828E+02
  9.40489E+02  3.41859E+03 -4.34996E+03  4.81599E+03 -4.95520E+03  1.85163E+03 -4.41196E+03 -1.05142E+03
 -2.68149E+03 -5.83231E+03  1.54114E+03 -6.81666E+03  6.05622E+03 -5.02870E+03  6.63173E+03  6.88865E+02
  4.94426E+03  5.25394E+03 -3.73124E+02  6.95068E+03 -4.59515E+03  4.28651E+03 -5.04881E+03 -2.19558E+02
 -5.92414E+03 -5.41953E+03 -1.17670E+03 -5.87121E+03  2.17093E+03 -3.78329E+03  2.70330E+03 -2.89284E+03
  2.66454E+03  1.17300E+02 -3.98576E+02  8.87358E+02  1.23268E+01  1.31301E+01  4.53938E+01 -1.26883E+03
  3.63269E+03 -6.40151E+02  5.36320E+03  7.36009E+02  5.50987E+03  3.48323E+03  5.27136E+03  7.37172E+03
 -1.39998E+03  9.11060E+03 -7.81479E+03  6.69377E+03 -9.81228E+03  1.83914E+03 -7.74490E+03 -2.63304E+03
 -4.52293E+03 -6.57135E+03 -2.91501E+02 -5.15225E+03  1.83828E+03 -2.04132E+03  1.45852E+03 -2.59918E+03
  9.22200E+02 -2.05673E+03  2.16384E+03 -2.61647E+03  3.44235E+03 -1.48204E+03  4.36601E+03  4.02843E+02
  4.77833E+03  1.07259E+03  1.90294E+03  3.34059E+03 -1.66943E+03  2.62933E+03 -4.29287E+03  2.34688E+03
 -5.65327E+03 -6.97630E+02 -2.01971E+03 -3.67902E+03  5.03314E+02 -5.05830E+03  3.05415E+03 -4.94735E+03
  5.04622E+03 -3.66214E+03  6.66789E+03  9.09914E+02  4.72361E+03  3.77862E+03  1.25915E+03  6.01059E+03
 -1.81603E+03  5.80948E+03 -3.04269E+03  1.99211E+03 -2.43354E+03 -8.00492E+02 -6.47013E+02 -9.39977E+02
 -9.43130E+02  3.02394E+01 -1.04146E+03  1.88824E+03 -2.34468E+03  1.33940E+03 -3.88985E+03 -7.94251E+02
 -1.89398E+03 -4.46901E+03  6.25113E+02 -4.64514E+03  2.65634E+03 -4.47359E+03  3.52486E+03 -5.71378E+02
  3.70399E+03  2.62907E+03  2.04176E+03  3.24485E+03 -1.16053E+03  4.70439E+03 -2.55247E+03  3.08931E+03
 -3.93667E+03  7.53840E+02 -3.87991E+03 -2.47641E+03 -5.19392E+02 -3.29720E+03  1.52786E+03 -2.45356E+03
  2.23503E+03 -1.61203E+03  1.86271E+03  6.20531E+02  8.61932E+02  2.20544E+03  1.12666E+03  3.01766E+02
  1.95564E+03  2.17081E+02  1.08237E+03  1.00606E+03  9.65373E+02  2.21629E+03  1.14958E+03  1.90234E+03
 -1.23459E+03  3.18969E+03 -2.73208E+03  4.26412E+03 -3.70414E+03  1.52856E+03 -4.02289E+03 -3.81284E+02
 -1.56834E+03 -3.42047E+03  7.53462E+02 -4.82239E+03  2.04696E+03 -3.10526E+03  3.31908E+03 -7.08987E+02
  2.76345E+03  1.73569E+03  6.37139E+02  2.58991E+03 -6.61814E+02  1.11032E+03 -9.31760E+02  2.22492E+02
 -5.98155E+02 -1.63609E+03  1.06652E+03 -1.72624E+03  1.95289E+03 -1.08303E+03  1.20198E+03 -9.23632E+00
  1.14006E+03  2.06814E+02  8.24566E+02 -1.17305E+01 -3.33559E+02  9.22948E+02  1.10431E+03  7.99665E+00
  2.04169E+02 -8.53020E+01  1.88516E+03  8.99868E+02  5.77874E+02  1.87863E+03 -1.24519E+02  2.78785E+03
 -1.66264E+03  6.56554E+02 -2.69696E+03  5.16682E+02 -2.63470E+03 -7.49043E+02 -1.74012E+02 -1.21422E+03
  6.75791E+02 -1.44452E+03  9.85346E+02 -3.67468E+02  4.26417E+02  1.16770E+03 -6.74562E+02  8.03134E+02
 -1.51089E+03  4.58874E+02 -1.01961E+03 -1.12184E+03 -5.30196E+02 -2.61841E+03  9.90832E+01 -1.65234E+03
  7.48623E+02 -1.40094E+03  1.22739E+03  5.64502E+02  1.51614E+03  2.55818E+02  1.59854E+02  1.25849E+03
 -3.47467E+02 -2.13616E+02 -1.28407E+03 -8.19134E+01  8.63583E+02 -1.52606E+03  1.70287E+03 -1.03952E+03
  1.56535E+03  1.51425E+02  2.94346E+03  7.91502E+02  1.15165E+03  1.58343E+03  1.92134E+02  1.66147E+03
 -1.76691E+03 -1.60937E+02 -1.65723E+03  1.28883E+01 -7.58694E+02 -1.66910E+03  3.13297E+02 -5.72185E+02
  1.62410E+03 -8.88914E+02  9.04520E+02  4.41873E+02  4.71710E+02  1.40740E+03  1.91515E+02  8.80169E+02
 -3.78452E+02  8.72703E+02  2.27062E+01  2.85560E+02  3.22664E+02  4.50834E+02 -1.07598E+03  9.99081E+02
 -4.86598E+02  1.12642E+03 -1.18843E+03  5.08155E+02 -1.67508E+03  3.00489E+02 -2.87795E+03 -1.21735E+03
 -1.35472E+03 -2.43916E+03  4.38154E+02 -2.78647E+03  1.30201E+03 -2.63581E+03  3.11400E+03 -1.26368E+03
  3.17597E+03 -2.75366E+02  1.12347E+03  1.75879E+03 -6.44226E+02  1.63144E+03 -1.11898E+03  1.56139E+03
 -1.31810E+03  4.76502E+02 -8.64397E+02 -7.07003E+02 -5.22855E+02  3.77371E+02 -9.59009E+02 -1.02705E+02
 -1.55809E+03  6.74938E+01 -1.20826E+03 -8.01818E+01  3.73239E+02 -4.40611E+02 -1.83648E+02 -5.52038E+02
  1.49628E+03 -4.59917E+02  9.75390E+02  4.82709E+02  7.84583E+02  8.65993E+02 -5.52105E+02  1.67297E+03
 -1.20672E+03  2.72237E+03 -2.00479E+03  1.66679E+03 -1.65994E+03 -1.39841E+02 -1.34229E+03 -1.31883E+03
 -1.36397E+03 -1.55201E+03  3.67953E+02 -1.46348E+03  5.82267E+02 -1.18801E+03  1.21765E+03  3.81166E+02
  8.58524E+02  9.38377E+01  3.74978E+02  5.23113E+02 -3.82599E+02 -2.25524E+02 -5.29071E+02 -4.87568E+02
  6.71121E+02  2.72889E+02  4.95357E+02  6.08697E+02 -1.00875E+02  4.12714E+02  4.63480E+02  5.55204E+02
 -6.85066E+02  6.26550E+02 -7.51548E+02 -6.65250E+00 -1.09532E+03 -8.41594E+02 -3.61448E+02 -1.33447E+03
  9.80830E+02 -1.23334E+03  1.03058E+03  1.33315E+02  2.48046E+02 -1.61986E+02  2.71612E+02  6.15490E+02
  8.29665E+02  1.21022E+03 -7.48571E+01  3.70815E+02 -4.92112E+02  8.97561E+02 -5.06587E+02  7.67891E+02
  3.38833E+02  1.79502E+02 -8.17713E+01  1.27597E+02 -4.79329E+02  5.31735E+02 -8.54546E+02 -1.39444E+02
 -1.01034E+03 -3.41064E+02 -7.14663E+02 -1.39475E+03  5.36739E+02 -1.96076E+03  1.03285E+03  1.47933E+02
  8.68805E+02  5.04870E+02 -2.54419E+02  1.00912E+03  1.16938E+02  9.02637E+02 -9.75046E+02  9.22684E+02
