 $NMID ID='MM_0lb_SNR400_10hz_g45_44.RAW', FMTDAT='(8E13.5)'
 TRAMP=1., VOLUME=1. $END
  3.09664E+05  1.78993E+02  3.37588E+05  2.50505E+05  8.50710E+04  3.38170E+05 -1.32556E+05  2.51546E+05
 -1.91129E+05  8.38730E+04 -1.11443E+05 -3.23862E+04  1.30875E+03 -5.10025E+04  5.31992E+04 -6.19657E+02
  3.53493E+04  5.26509E+04 -1.62365E+04  7.57997E+04 -6.11313E+04  6.47070E+04 -8.47040E+04  3.24203E+04
 -8.09611E+04 -1.04242E+04 -5.82979E+04 -5.17224E+04 -1.50499E+04 -6.93409E+04  2.77713E+04 -4.61658E+04
  4.13287E+04  3.99069E+03  1.71346E+04  4.87178E+04 -3.43824E+04  4.75611E+04 -6.78010E+04 -7.03672E+01
 -5.43858E+04 -5.68756E+04 -6.91822E+03 -7.80554E+04  3.46088E+04 -5.57487E+04  4.84826E+04 -1.81004E+04
  4.52818E+04  1.11393E+04  3.21854E+04  2.65436E+04  1.66859E+04  3.03308E+04 -6.23056E+03  2.65946E+04
 -2.19701E+04  1.28497E+04 -1.76843E+04 -5.03883E+03  6.16095E+03 -7.76080E+03  2.27073E+04  1.39113E+04
  8.60195E+03  3.64259E+04 -3.27269E+04  3.68933E+04 -6.53796E+04  2.59898E+03 -5.86445E+04 -4.40190E+04
 -1.25167E+04 -6.54590E+04  4.15016E+04 -4.76022E+04  6.04135E+04 -2.33559E+03  3.61606E+04  3.34500E+04
 -5.61256E+03  3.92815E+04 -3.06698E+04  1.80038E+04 -3.29463E+04 -4.51578E+03 -1.85627E+04 -1.14641E+04
 -8.77503E+03 -1.47673E+04 -1.05064E+03 -1.86984E+04  8.12831E+03 -2.24949E+04  1.64471E+04 -1.33055E+04
  1.12570E+04  5.85408E+03 -9.80333E+03  1.29151E+04 -2.28335E+04 -6.02747E+03 -8.80274E+03 -3.62312E+04
  2.48227E+04 -4.62195E+04  5.08282E+04 -2.01526E+04  4.73810E+04  2.01920E+04  1.63553E+04  4.64696E+04
 -1.67346E+04  3.52815E+04 -2.64890E+04  2.16536E+03 -1.10262E+04 -2.89530E+04  2.18561E+04 -3.70823E+04
  4.37072E+04 -1.05733E+04  3.91878E+04  2.47701E+04  2.08521E+04  5.00345E+04 -8.13105E+03  5.40745E+04
 -3.43068E+04  3.65612E+04 -4.60357E+04  1.05526E+04 -4.64003E+04 -1.77762E+04 -2.50290E+04 -4.09215E+04
  7.63208E+03 -4.05501E+04  3.37285E+04 -1.63244E+04  3.08871E+04  1.09211E+04  4.59843E+03  1.99597E+04
 -1.39476E+04  8.39749E+03 -1.10444E+04 -7.78964E+03  5.16444E+03 -1.12191E+04  1.86137E+04  6.22915E+03
  1.38664E+04  2.22294E+04 -5.78832E+03  2.65927E+04 -2.27308E+04  1.35340E+04 -3.09396E+04 -2.97515E+03
 -2.41269E+04 -1.74703E+04 -1.04753E+04 -2.35309E+04  3.60623E+03 -2.34309E+04  1.80099E+04 -2.16597E+04
  3.03367E+04 -1.38893E+04  3.59626E+04  4.26990E+03  2.54757E+04  2.27270E+04  4.10606E+03  3.99467E+04
 -1.98081E+04  3.24759E+04 -2.96621E+04  1.12786E+04 -2.17320E+04 -9.79744E+03 -4.30157E+03 -1.32043E+04
  4.79180E+02 -1.40266E+03 -7.10935E+03  7.68307E+03 -1.93268E+04  6.35158E+03 -1.91269E+04 -8.74238E+03
 -1.14191E+04 -2.17669E+04  5.84374E+03 -2.63912E+04  1.74254E+04 -1.84799E+04  2.14352E+04 -1.90191E+03
  1.42088E+04  1.54274E+04 -1.12731E+03  2.21475E+04 -1.59596E+04  1.25038E+04 -2.35061E+04 -4.78714E+03
 -1.60539E+04 -1.97003E+04 -1.39661E+03 -2.64278E+04  1.18362E+04 -2.17876E+04  2.12108E+04 -1.09343E+04
  2.06503E+04 -1.86596E+02  1.52091E+04  5.38120E+03  8.39935E+03  2.22556E+03  1.17494E+04 -2.34932E+03
  2.05569E+04  2.49223E+03  2.36327E+04  1.70191E+04  1.57888E+04  3.57217E+04 -2.88124E+03  4.11990E+04
 -2.30842E+04  3.39862E+04 -3.76582E+04  1.79794E+04 -4.09416E+04 -2.80896E+03 -3.47874E+04 -2.46417E+04
 -1.39404E+04 -3.36449E+04  1.21783E+04 -2.98974E+04  2.58190E+04 -1.51604E+04  2.29973E+04  6.65966E+03
  7.81679E+03  1.70663E+04 -1.06932E+04  1.48046E+04 -1.92841E+04  2.58471E+03 -1.46156E+04 -1.17653E+04
 -5.33903E+02 -1.81957E+04  9.58392E+03 -1.40691E+04  1.18420E+04 -8.44648E+02  2.26744E+03  8.27423E+03
 -7.85898E+03  3.33101E+03 -7.71701E+03 -6.56409E+03 -2.15067E+03 -1.69213E+04  1.10641E+04 -1.81475E+04
  2.09838E+04 -9.86925E+03  2.36323E+04  3.15774E+03  2.04778E+04  1.70768E+04  9.82692E+03  2.65947E+04
 -4.41423E+03  2.77790E+04 -1.84678E+04  1.72408E+04 -2.04153E+04  3.64646E+03 -1.36111E+04 -4.93309E+03
 -7.16488E+03 -6.69364E+03 -7.39105E+02  9.18288E+02 -3.65478E+03  3.93284E+03 -6.13333E+03  4.75829E+03
 -1.39574E+04 -5.49871E+02 -1.33810E+04 -1.05678E+04 -5.76021E+03 -1.79447E+04  5.74091E+03 -1.37276E+04
  1.18567E+04 -5.64806E+03  8.53446E+03  3.48465E+03 -5.61783E-01  5.64030E+03 -6.51034E+03 -1.33042E+03
 -7.33707E+03 -8.95728E+03 -1.32954E+03 -1.42927E+04  7.89848E+03 -1.44287E+04  1.86293E+04 -8.27262E+03
  2.07013E+04  2.60737E+03  1.57019E+04  1.25444E+04  3.16682E+03  1.68262E+04 -9.07140E+03  1.45389E+04
 -1.15575E+04  3.81655E+03 -5.48730E+03 -2.50950E+03  2.05595E+03 -4.23642E+03  7.52325E+03 -1.00301E+03
  7.05314E+03  6.65111E+03  1.21982E+03  1.18008E+04 -7.87127E+03  1.13319E+04 -1.38620E+04  3.19520E+03
 -9.61924E+03 -7.30767E+03  3.07918E-01 -1.22067E+04  8.25172E+03 -5.85044E+03  9.26307E+03  2.12199E+03
  2.04750E+03  8.57190E+03 -6.80504E+03  1.00632E+04 -1.16134E+04  4.44045E+03 -1.16011E+04 -3.79991E+03
 -7.47367E+03 -1.39155E+04  2.64494E+03 -1.55264E+04  1.34390E+04 -9.79622E+03  1.47949E+04  2.11172E+03
  9.36359E+03  1.22280E+04 -1.29554E+03  1.37215E+04 -1.07294E+04  8.19971E+03 -1.11192E+04 -9.28862E+02
 -1.01410E+04 -1.03391E+04 -1.28608E+03 -1.01601E+04  5.64728E+03 -8.26607E+03  6.76555E+03 -2.80914E+03
  4.39959E+03  1.59715E+03 -1.13290E+03  1.88873E+03 -9.28362E+02 -3.23510E+03  2.99375E+03 -6.71270E+03
  9.98151E+03 -4.16106E+03  1.38640E+04  2.25427E+03  1.41434E+04  1.01752E+04  9.37849E+03  1.81920E+04
 -3.59075E+03  2.08793E+04 -1.73047E+04  1.53671E+04 -2.22471E+04  3.49259E+03 -1.84409E+04 -8.02622E+03
 -8.56617E+03 -1.50967E+04 -4.52823E+02 -1.24736E+04  4.92769E+03 -6.44280E+03  4.34854E+03 -4.55107E+03
  3.75072E+03 -2.86617E+03  3.63893E+03 -4.47481E+03  5.42691E+03 -2.91312E+03  7.80470E+03 -8.92028E+02
  9.11352E+03  1.99455E+03  5.02586E+03  8.13891E+03 -1.84220E+03  1.01255E+04 -1.01244E+04  7.88517E+03
 -1.25023E+04 -1.42952E+03 -7.97953E+03 -9.10288E+03 -1.55815E+03 -1.42380E+04  7.33208E+03 -1.29859E+04
  1.45256E+04 -8.06224E+03  1.69495E+04  2.37242E+03  1.15009E+04  1.19765E+04  1.63685E+03  1.62299E+04
 -6.77449E+03  1.31913E+04 -1.01158E+04  4.73939E+03 -6.14607E+03 -1.24815E+03 -2.74264E+03 -2.69408E+03
 -1.50367E+03  8.90963E+02 -2.08958E+03  2.27626E+03 -5.00688E+03  2.12397E+03 -8.95008E+03 -1.59696E+03
 -7.10621E+03 -9.11065E+03 -3.91713E+02 -1.31431E+04  7.51960E+03 -1.24669E+04  1.27223E+04 -3.44610E+03
  1.25815E+04  6.91094E+03  5.22159E+03  1.09329E+04 -2.95813E+03  1.25317E+04 -9.00074E+03  7.72602E+03
 -1.19463E+04  7.19147E+02 -9.74488E+03 -7.25110E+03 -1.89447E+02 -1.05880E+04  5.38835E+03 -7.99124E+03
  8.03224E+03 -2.01334E+03  5.33901E+03  2.02620E+03  1.59515E+03  4.28413E+03  4.02738E+02  2.08051E+03
  2.41693E+03  1.18656E+03  2.94037E+03  1.62255E+03  3.99787E+03  4.14838E+03  3.70438E+03  6.80775E+03
 -2.43340E+03  9.39654E+03 -8.68728E+03  1.05662E+04 -1.25259E+04  2.76872E+03 -1.33593E+04 -4.71164E+03
 -6.42502E+03 -1.28656E+04  1.52806E+03 -1.39426E+04  7.41293E+03 -8.75327E+03  1.03554E+04 -2.47872E+03
  8.18991E+03  4.65338E+03  2.32999E+03  7.55609E+03 -3.79695E+03  4.26974E+03 -5.78171E+03 -1.93021E+02
 -2.60454E+03 -5.56563E+03  2.83899E+03 -5.84766E+03  5.30106E+03 -2.88788E+03  5.26726E+03  8.42221E+02
  3.22436E+03  2.14940E+03  1.28623E+03  2.26015E+03 -8.65065E+02  1.22786E+03  1.74224E+03 -5.92903E+02
  1.96140E+03 -1.46759E+03  5.56124E+03  2.01928E+03  3.23050E+03  6.25776E+03 -1.18162E+03  9.42149E+03
 -6.63427E+03  6.61722E+03 -8.50089E+03  1.32560E+03 -7.19091E+03 -2.50275E+03 -2.51904E+03 -5.65218E+03
  1.50895E+03 -4.68547E+03  4.27811E+03 -1.86952E+03  2.70519E+03  2.36255E+03 -1.25159E+03  4.00972E+03
 -5.13572E+03  2.60260E+03 -5.95174E+03 -2.78007E+03 -4.32869E+03 -7.38818E+03  4.40947E+02 -7.09852E+03
  3.45500E+03 -3.79465E+03  5.36932E+03  7.25057E+01  4.62499E+03  1.20850E+03  7.12640E+02  3.44574E+03
 -2.64884E+03  1.28723E+03 -2.47110E+03 -2.64589E+03  9.18434E+02 -5.62199E+03  5.68385E+03 -3.88445E+03
  8.32248E+03  6.59961E+01  7.46581E+03  5.34313E+03  2.92471E+03  8.33486E+03 -2.87603E+03  7.99222E+03
 -6.49117E+03  3.12510E+03 -7.00795E+03 -8.86130E+02 -3.96394E+03 -5.04985E+03  1.30075E+03 -4.78807E+03
  6.38245E+03 -2.58743E+03  4.28219E+03  2.34059E+03  9.97557E+02  4.49217E+03 -6.56669E+02  3.34252E+03
 -2.83735E+03  2.68098E+03 -1.84164E+03  6.57696E+02 -1.22684E+03  9.64658E+02 -8.31607E+02  1.58910E+03
 -2.39233E+03  3.19955E+03 -5.67867E+03  3.23159E+03 -7.78900E+03  3.25441E+02 -9.77570E+03 -5.72238E+03
 -4.66672E+03 -1.08149E+04  2.37752E+03 -1.25630E+04  8.62461E+03 -9.86064E+03  1.19240E+04 -3.85618E+03
  1.12010E+04  1.79549E+03  6.40115E+03  7.47038E+03  8.78137E+02  8.31218E+03 -3.90175E+03  6.94869E+03
 -4.72794E+03  2.01847E+03 -2.90396E+03 -1.66895E+03 -3.29465E+02 -8.89697E+02 -1.22855E+03 -5.77384E+02
 -1.56568E+03  1.65303E+02 -2.38970E+03 -1.64372E+02  4.81272E+02 -1.87595E+03  1.27424E+02 -3.03822E+03
  3.96932E+03 -2.78922E+03  4.93419E+03  3.61618E+02  6.89117E+03  3.84794E+03  1.57991E+03  8.65279E+03
 -4.18171E+03  9.66641E+03 -8.87264E+03  6.38484E+03 -1.02187E+04 -1.49846E+03 -8.04623E+03 -6.38518E+03
 -3.54846E+03 -8.01349E+03  1.81058E+03 -7.76625E+03  5.66879E+03 -3.60097E+03  5.48495E+03  2.85474E+01
  2.95263E+03  2.74546E+03  3.75070E+02  2.41423E+03 -1.54776E+03 -1.02148E+02 -3.47940E+02 -1.39314E+03
  2.96676E+03  1.44902E+02  2.85663E+03  8.15341E+02  2.56471E+03  3.83666E+03  6.97284E+02  3.97436E+03
 -4.35127E+03  3.91259E+03 -5.90123E+03  3.22284E+02 -4.89086E+03 -4.39509E+03 -1.31226E+03 -6.99433E+03
  3.99025E+03 -5.85681E+03  5.43499E+03 -1.34775E+03  6.05841E+03  1.42825E+03  3.32875E+03  5.12763E+03
  6.22761E+02  5.28458E+03 -2.52634E+03  4.59647E+03 -3.75229E+03  2.72647E+03 -2.41972E+03 -2.22923E+02
 -8.91661E+02  1.17677E+02 -2.12473E+03  6.69568E+02 -3.34022E+03  1.11174E+03 -5.01459E+03 -7.59470E+02
 -3.83885E+03 -3.19702E+03 -1.43048E+03 -6.47661E+03  2.66212E+03 -6.27890E+03  5.01165E+03 -2.75011E+03
  5.50747E+03  2.66085E+02  2.74518E+03  3.01992E+03 -7.12097E+02  6.23647E+03 -3.14010E+03  3.90233E+03
