 $NMID ID='MM_0lb_SNR400_12hz_g45_25.RAW', FMTDAT='(8E13.5)'
 TRAMP=1., VOLUME=1. $END
  3.09816E+05 -1.35965E+02  3.37489E+05  2.51157E+05  8.45544E+04  3.37730E+05 -1.32425E+05  2.51217E+05
 -1.90125E+05  8.34170E+04 -1.11942E+05 -3.19504E+04  2.70270E+02 -5.02061E+04  5.38656E+04  8.16649E+01
  3.57777E+04  5.30264E+04 -1.67240E+04  7.57758E+04 -6.08343E+04  6.41000E+04 -8.35897E+04  3.18877E+04
 -8.12800E+04 -1.12221E+04 -5.74757E+04 -5.13508E+04 -1.51036E+04 -7.00626E+04  2.74163E+04 -4.67491E+04
  4.00126E+04  4.04516E+03  1.65128E+04  4.85604E+04 -3.43183E+04  4.73868E+04 -6.67761E+04 -6.55972E+02
 -5.40372E+04 -5.61046E+04 -7.53713E+03 -7.79239E+04  3.40776E+04 -5.54463E+04  4.81609E+04 -1.76146E+04
  4.33196E+04  1.13574E+04  3.18825E+04  2.58211E+04  1.53570E+04  2.92180E+04 -5.22620E+03  2.73606E+04
 -2.24567E+04  1.24773E+04 -1.94514E+04 -5.73240E+03  5.59226E+03 -7.67712E+03  2.29034E+04  1.26947E+04
  7.19237E+03  3.64675E+04 -3.29337E+04  3.64926E+04 -6.36681E+04  2.34488E+03 -5.80883E+04 -4.37018E+04
 -1.25733E+04 -6.37066E+04  4.05106E+04 -4.64124E+04  5.91440E+04 -2.42963E+03  3.51055E+04  3.32626E+04
 -5.85816E+03  3.74777E+04 -3.13132E+04  1.70376E+04 -3.14042E+04 -3.40722E+03 -1.77120E+04 -1.11196E+04
 -9.70248E+03 -1.38424E+04 -8.70317E+02 -1.89136E+04  7.21983E+03 -2.34009E+04  1.56687E+04 -1.36206E+04
  1.15181E+04  5.56376E+03 -9.04093E+03  1.34783E+04 -2.21131E+04 -4.56386E+03 -9.04320E+03 -3.55257E+04
  2.40198E+04 -4.39243E+04  4.88709E+04 -2.01485E+04  4.57169E+04  2.01714E+04  1.59671E+04  4.58167E+04
 -1.63256E+04  3.47768E+04 -2.62421E+04  2.06829E+03 -1.02758E+04 -2.89828E+04  2.17344E+04 -3.47291E+04
  4.23734E+04 -9.77226E+03  3.69696E+04  2.38075E+04  1.85902E+04  4.81893E+04 -8.35706E+03  5.16371E+04
 -3.22854E+04  3.52949E+04 -4.36186E+04  1.00936E+04 -4.35178E+04 -1.68105E+04 -2.43899E+04 -3.92535E+04
  7.76254E+03 -3.92806E+04  3.24603E+04 -1.53631E+04  3.05418E+04  1.05267E+04  4.47928E+03  1.99112E+04
 -1.37600E+04  8.50136E+03 -1.11131E+04 -7.91602E+03  5.81128E+03 -1.06062E+04  1.83112E+04  5.39434E+03
  1.35098E+04  2.19685E+04 -5.91588E+03  2.56129E+04 -2.26920E+04  1.21506E+04 -2.91457E+04 -3.49910E+03
 -2.23266E+04 -1.80738E+04 -9.49625E+03 -2.15139E+04  4.04920E+03 -2.13523E+04  1.66741E+04 -1.97827E+04
  2.70511E+04 -1.25471E+04  3.38330E+04  3.43402E+03  2.45008E+04  2.10092E+04  3.94533E+03  3.75489E+04
 -1.78432E+04  3.15714E+04 -2.93090E+04  1.06904E+04 -2.15205E+04 -1.08504E+04 -4.69023E+03 -1.34165E+04
  9.04342E+02 -2.72528E+03 -5.27381E+03  7.14188E+03 -1.63815E+04  5.30527E+03 -1.71740E+04 -7.70546E+03
 -1.00833E+04 -1.99030E+04  5.53025E+03 -2.48599E+04  1.57289E+04 -1.76017E+04  1.95424E+04 -1.32715E+03
  1.25364E+04  1.36792E+04 -7.78894E+02  2.06566E+04 -1.38095E+04  1.14049E+04 -1.98709E+04 -4.12743E+03
 -1.46629E+04 -1.87845E+04 -2.52015E+03 -2.46929E+04  1.10844E+04 -2.01729E+04  1.97724E+04 -9.99726E+03
  1.98340E+04 -6.83643E+02  1.33499E+04  4.85195E+03  7.62349E+03  1.17353E+03  1.01681E+04 -6.24914E+02
  1.89491E+04  2.61901E+03  2.12970E+04  1.61583E+04  1.45642E+04  3.30940E+04 -2.96392E+03  3.75328E+04
 -2.13489E+04  3.00619E+04 -3.56198E+04  1.53755E+04 -3.76547E+04 -2.85144E+03 -3.06203E+04 -2.07147E+04
 -1.29074E+04 -3.08519E+04  1.03602E+04 -2.67684E+04  2.33646E+04 -1.34969E+04  2.04584E+04  5.98657E+03
  7.90109E+03  1.54929E+04 -9.35629E+03  1.31019E+04 -1.72762E+04  2.65845E+03 -1.27391E+04 -1.10018E+04
 -6.22095E+01 -1.61481E+04  8.26905E+03 -1.26885E+04  1.10400E+04 -1.59864E+03  2.85571E+03  7.33848E+03
 -7.21036E+03  3.67167E+03 -6.96497E+03 -6.33217E+03 -8.40755E+02 -1.46578E+04  1.02501E+04 -1.56024E+04
  1.83770E+04 -8.50142E+03  2.03954E+04  3.48988E+03  1.74950E+04  1.47126E+04  8.07852E+03  2.27107E+04
 -3.49645E+03  2.50899E+04 -1.52934E+04  1.54941E+04 -1.76189E+04  3.22280E+03 -1.27717E+04 -4.21258E+03
 -5.23047E+03 -6.02150E+03 -3.23831E+02  5.59108E+02 -2.77653E+03  3.20233E+03 -5.68215E+03  4.90476E+03
 -1.18264E+04 -4.85439E+02 -1.27151E+04 -9.80682E+03 -5.43754E+03 -1.68843E+04  5.59631E+03 -1.23029E+04
  1.07914E+04 -5.37990E+03  6.59328E+03  3.74900E+03  3.24262E+02  4.27850E+03 -6.15075E+03  2.85644E+02
 -5.63966E+03 -7.81480E+03 -1.14019E+03 -1.16201E+04  7.18202E+03 -1.26631E+04  1.53078E+04 -6.81778E+03
  1.82425E+04  1.85536E+03  1.31366E+04  1.06782E+04  1.78221E+03  1.52524E+04 -7.48822E+03  1.27075E+04
 -1.04406E+04  3.85244E+03 -5.07221E+03 -2.35844E+03  2.70717E+03 -3.33470E+03  6.76561E+03 -5.67961E+02
  5.69473E+03  4.88369E+03  5.37988E+02  9.63558E+03 -7.05138E+03  9.06397E+03 -1.25630E+04  1.55980E+03
 -8.46857E+03 -5.81095E+03  1.50004E+02 -1.06997E+04  6.19519E+03 -5.24511E+03  7.27907E+03  2.19318E+03
  1.34952E+03  7.45663E+03 -6.56567E+03  8.93715E+03 -9.73656E+03  4.19792E+03 -1.01506E+04 -3.56142E+03
 -4.98736E+03 -1.21344E+04  2.15754E+03 -1.36517E+04  1.14603E+04 -8.23984E+03  1.29503E+04  1.84796E+03
  7.37486E+03  9.46927E+03 -2.92118E+02  1.16180E+04 -8.33689E+03  6.74955E+03 -8.93288E+03 -5.11742E+02
 -8.16506E+03 -8.01385E+03 -1.49306E+03 -9.26386E+03  4.07627E+03 -7.35725E+03  5.47229E+03 -3.62935E+03
  3.89320E+03  1.38168E+03 -1.21947E+03  1.54188E+03  5.07107E+01 -1.65610E+03  1.12011E+03 -4.98665E+03
  7.42055E+03 -2.72615E+03  1.12723E+04  6.09521E+02  1.16526E+04  7.31565E+03  8.06708E+03  1.52471E+04
 -3.45405E+03  1.71796E+04 -1.42100E+04  1.28934E+04 -1.86698E+04  2.59021E+03 -1.51879E+04 -6.11399E+03
 -8.49601E+03 -1.25900E+04 -6.78149E+02 -1.03594E+04  3.78499E+03 -5.75134E+03  3.44919E+03 -3.75492E+03
  2.36484E+03 -2.20150E+03  3.34089E+03 -3.19850E+03  5.25106E+03 -2.37802E+03  5.93013E+03 -7.15197E+02
  8.26090E+03  1.97337E+03  3.17040E+03  6.54046E+03 -2.12384E+03  8.18001E+03 -8.30107E+03  5.98158E+03
 -1.05581E+04 -1.82828E+03 -6.26091E+03 -7.50373E+03  2.95613E+02 -1.04224E+04  6.18756E+03 -1.13780E+04
  1.12551E+04 -6.39789E+03  1.40175E+04  1.37419E+03  9.05740E+03  9.49094E+03  1.70286E+03  1.22545E+04
 -3.96732E+03  1.03221E+04 -7.55125E+03  3.62714E+03 -5.04205E+03 -1.74752E+03 -1.97304E+03 -1.42894E+03
 -6.09027E+02 -1.65674E+02 -1.95768E+03  3.15712E+03 -4.55632E+03  1.73933E+03 -6.57310E+03 -4.71910E+02
 -4.52640E+03 -7.17765E+03  7.73639E+02 -1.09465E+04  5.22084E+03 -9.16673E+03  1.00384E+04 -3.40885E+03
  9.52619E+03  5.02007E+03  4.76133E+03  8.39061E+03 -1.43987E+03  9.88221E+03 -7.20287E+03  6.87676E+03
 -9.57154E+03  2.09330E+02 -7.32704E+03 -6.03865E+03 -8.17650E+02 -8.52516E+03  3.90445E+03 -5.71889E+03
  7.05571E+03 -2.23319E+03  3.84203E+03  1.67049E+03  7.38500E+02  2.56869E+03  1.43969E+03  1.41217E+03
  2.47472E+03  1.57790E+02  2.45980E+03  2.14742E+03  2.36911E+03  3.57027E+03  2.81347E+03  5.65708E+03
 -2.60961E+03  7.95558E+03 -6.94825E+03  7.57987E+03 -9.63666E+03  1.96669E+03 -1.06356E+04 -3.71564E+03
 -4.57882E+03 -9.98905E+03  1.31056E+03 -1.07111E+04  5.44162E+03 -6.57247E+03  7.64293E+03 -2.15688E+03
  6.41455E+03  3.80477E+03  1.47022E+03  5.98263E+03 -2.86653E+03  3.93767E+03 -4.14540E+03  1.24452E+02
 -1.83393E+03 -3.68848E+03  2.23521E+03 -4.31455E+03  4.00327E+03 -2.22860E+03  4.25346E+03  1.33355E+03
  2.24713E+03  1.98643E+03  1.10909E+03  1.14119E+03 -1.30568E+02  1.24615E+03  1.34121E+03 -3.15173E+02
  1.36646E+03 -1.19609E+03  4.27077E+03  1.40633E+03  2.20223E+03  5.23949E+03 -8.93521E+02  7.14947E+03
 -4.86512E+03  4.34855E+03 -5.75044E+03  9.59252E+02 -4.91453E+03 -2.19201E+03 -1.72499E+03 -3.76747E+03
  4.21912E+01 -3.91802E+03  2.06154E+03 -1.69232E+03  2.22929E+03  1.63965E+03 -1.32016E+03  2.89072E+03
 -3.53747E+03  1.82882E+03 -4.72591E+03 -2.69573E+03 -2.83858E+03 -5.32412E+03  8.70621E+02 -5.23298E+03
  3.13861E+03 -2.85295E+03  3.80699E+03 -8.08485E+02  3.02715E+03  1.39814E+03  3.23236E+02  3.28083E+03
 -2.01861E+03  9.84041E+02 -2.61159E+03 -1.63954E+03  8.06500E+02 -3.84724E+03  4.62831E+03 -2.45285E+03
  5.73009E+03 -1.69765E+02  5.65335E+03  4.05156E+03  2.32935E+03  5.75235E+03 -1.38245E+03  5.13482E+03
 -5.09760E+03  2.37562E+03 -5.50684E+03 -1.34295E+03 -2.79416E+03 -3.96995E+03  2.68511E+02 -3.40260E+03
  3.82999E+03 -2.05630E+03  2.60836E+03  1.35068E+03  3.98652E+02  3.62553E+03 -3.92872E+02  2.83715E+03
 -1.64227E+03  2.05293E+03 -2.03921E+03  9.42280E+02 -5.40485E+02  2.56246E+02 -1.29254E+03  9.29020E+02
 -1.53952E+03  3.24815E+03 -4.35758E+03  2.14561E+03 -6.02394E+03  1.51440E+02 -6.82634E+03 -4.92508E+03
 -3.80518E+03 -7.75098E+03  1.78158E+03 -8.87271E+03  5.21849E+03 -6.84748E+03  7.97929E+03 -2.41099E+03
  8.22799E+03  9.05453E+02  4.54968E+03  5.02818E+03  8.33334E+02  5.78266E+03 -2.79321E+03  4.40756E+03
 -3.74314E+03  2.03104E+03 -2.01190E+03 -4.66427E+02 -8.51008E+02 -1.14514E+01 -1.06901E+03  1.19387E+03
 -1.82652E+03  7.70688E+02 -1.70426E+03  4.85374E+01  2.34938E+02 -1.22703E+03  3.62733E+01 -2.71264E+03
  2.37596E+03 -2.00036E+03  2.71967E+03  9.47740E+01  4.41746E+03  3.55918E+03  7.70824E+01  5.41628E+03
 -2.67351E+03  6.27558E+03 -6.09447E+03  4.41889E+03 -7.04617E+03 -4.88660E+02 -5.00837E+03 -4.57866E+03
 -1.72745E+03 -5.78369E+03  1.63970E+03 -5.25717E+03  2.94554E+03 -2.75331E+03  3.73207E+03  1.17689E+02
  2.53218E+03  2.16507E+03  2.02393E+02  1.12107E+03 -1.18739E+03  5.72103E+02  2.94639E+02 -1.75735E+03
  1.61915E+03 -5.94458E+02  1.67148E+03  4.10797E+02  9.99937E+02  1.78655E+03 -5.10742E+02  2.24398E+03
 -1.94255E+03  3.10165E+03 -3.17225E+03 -1.41419E+02 -3.50550E+03 -2.62023E+03 -6.38922E+02 -3.69694E+03
  3.38738E+03 -3.55832E+03  3.66403E+03 -8.11718E+02  4.97190E+03  1.15126E+03  1.93049E+03  3.77225E+03
  4.74841E+02  3.24747E+03 -1.47368E+03  3.09336E+03 -2.46903E+03  1.42953E+03 -2.14048E+03  3.64662E+02
 -1.48063E+03 -2.88009E+02 -1.39224E+03  5.71786E+02 -2.64057E+03  8.45327E+02 -2.93598E+03 -3.45864E+02
 -2.41644E+03 -1.57094E+03 -1.00768E+03 -3.64054E+03  2.54841E+03 -4.84769E+03  3.61435E+03 -1.70755E+03
  3.67216E+03  2.14566E+02  2.08562E+03  2.37810E+03 -1.85733E+02  4.26246E+03 -2.07531E+03  3.50327E+03
