 $NMID ID='MM_0lb_SNR400_13hz_g45_88.RAW', FMTDAT='(8E13.5)'
 TRAMP=1., VOLUME=1. $END
  3.09594E+05  9.42645E+02  3.37438E+05  2.50527E+05  8.49732E+04  3.38135E+05 -1.32300E+05  2.51553E+05
 -1.90358E+05  8.28418E+04 -1.11820E+05 -3.28054E+04  9.82174E+02 -5.02483E+04  5.44191E+04 -7.93094E+02
  3.52615E+04  5.26530E+04 -1.73331E+04  7.57966E+04 -6.06271E+04  6.35184E+04 -8.34175E+04  3.19946E+04
 -8.11114E+04 -1.13262E+04 -5.74418E+04 -5.21298E+04 -1.50312E+04 -6.98841E+04  2.76230E+04 -4.63780E+04
  4.01960E+04  4.13328E+03  1.63705E+04  4.76407E+04 -3.44197E+04  4.75068E+04 -6.68087E+04 -4.37164E+01
 -5.27557E+04 -5.66820E+04 -6.89236E+03 -7.71805E+04  3.41535E+04 -5.44879E+04  4.83736E+04 -1.74843E+04
  4.33095E+04  1.14845E+04  3.20144E+04  2.55691E+04  1.57345E+04  2.95372E+04 -5.36731E+03  2.71021E+04
 -2.16992E+04  1.18005E+04 -1.88327E+04 -5.23061E+03  6.19921E+03 -7.51831E+03  2.25012E+04  1.23956E+04
  7.18351E+03  3.56965E+04 -3.27323E+04  3.54578E+04 -6.31320E+04  1.94545E+03 -5.70705E+04 -4.26875E+04
 -1.27001E+04 -6.36751E+04  4.02066E+04 -4.54389E+04  5.84230E+04 -2.65262E+03  3.45606E+04  3.23340E+04
 -6.36297E+03  3.59131E+04 -3.00354E+04  1.60320E+04 -3.03878E+04 -4.84645E+03 -1.67468E+04 -1.10217E+04
 -8.87454E+03 -1.40387E+04 -6.07847E+02 -1.87030E+04  7.53640E+03 -2.29005E+04  1.50304E+04 -1.32691E+04
  1.14021E+04  4.95913E+03 -8.11398E+03  1.30637E+04 -2.15130E+04 -5.13206E+03 -8.26578E+03 -3.44015E+04
  2.33433E+04 -4.30970E+04  4.79399E+04 -1.96675E+04  4.48485E+04  1.93676E+04  1.57180E+04  4.40430E+04
 -1.57077E+04  3.42247E+04 -2.59133E+04  1.86077E+03 -9.86012E+03 -2.79238E+04  2.10997E+04 -3.41546E+04
  4.13633E+04 -9.38300E+03  3.56154E+04  2.30604E+04  1.78851E+04  4.72062E+04 -8.57438E+03  5.10528E+04
 -3.22423E+04  3.34376E+04 -4.28542E+04  1.00244E+04 -4.29845E+04 -1.67096E+04 -2.38568E+04 -3.87494E+04
  7.13915E+03 -3.87827E+04  3.11694E+04 -1.47988E+04  2.92431E+04  1.10502E+04  4.09346E+03  1.88423E+04
 -1.38877E+04  8.44950E+03 -1.04965E+04 -7.38011E+03  5.41232E+03 -1.07111E+04  1.76966E+04  5.46987E+03
  1.33022E+04  2.24554E+04 -6.17232E+03  2.52013E+04 -2.25149E+04  1.16606E+04 -2.86918E+04 -4.97784E+03
 -2.14308E+04 -1.72234E+04 -9.09471E+03 -2.09369E+04  3.87375E+03 -2.04054E+04  1.59813E+04 -1.87560E+04
  2.69354E+04 -1.27667E+04  3.33438E+04  3.64134E+03  2.40044E+04  1.98823E+04  4.47520E+03  3.68397E+04
 -1.77535E+04  3.00765E+04 -2.77674E+04  1.04040E+04 -2.09424E+04 -1.07426E+04 -4.26875E+03 -1.28826E+04
  1.99183E+03 -2.48744E+03 -5.61270E+03  6.91162E+03 -1.63948E+04  6.10672E+03 -1.65920E+04 -6.80015E+03
 -1.07878E+04 -1.97378E+04  5.39442E+03 -2.36615E+04  1.64196E+04 -1.71826E+04  1.87469E+04 -1.46674E+03
  1.16084E+04  1.32079E+04 -4.79863E+02  1.89200E+04 -1.36986E+04  1.04731E+04 -1.96115E+04 -4.39444E+03
 -1.41474E+04 -1.72052E+04 -1.69038E+03 -2.30209E+04  9.84663E+03 -1.91517E+04  2.01105E+04 -1.03899E+04
  1.86185E+04  3.37009E+02  1.29627E+04  4.14708E+03  6.80244E+03  6.07255E+02  1.02930E+04 -1.16087E+03
  1.74689E+04  2.70648E+03  2.00419E+04  1.52714E+04  1.30622E+04  3.06573E+04 -2.86878E+03  3.56728E+04
 -2.03788E+04  2.85987E+04 -3.30337E+04  1.41781E+04 -3.44402E+04 -3.20319E+03 -2.84666E+04 -2.03947E+04
 -1.23279E+04 -2.79601E+04  9.75420E+03 -2.58943E+04  2.22522E+04 -1.23616E+04  1.98459E+04  5.85058E+03
  7.41046E+03  1.55539E+04 -9.35910E+03  1.34335E+04 -1.62316E+04  2.65723E+03 -1.31621E+04 -1.05651E+04
 -7.77127E+02 -1.61870E+04  8.34406E+03 -1.20642E+04  1.08838E+04 -1.16412E+03  2.81840E+03  6.25133E+03
 -6.36173E+03  2.48724E+03 -6.00323E+03 -5.77167E+03 -9.95671E+02 -1.36838E+04  9.26071E+03 -1.47168E+04
  1.73783E+04 -7.27593E+03  1.95158E+04  2.94561E+03  1.62314E+04  1.41455E+04  7.32007E+03  2.22865E+04
 -3.54910E+03  2.26365E+04 -1.51706E+04  1.46008E+04 -1.61007E+04  3.60447E+03 -1.18631E+04 -3.56919E+03
 -4.63806E+03 -5.02270E+03 -1.31445E+03  1.41354E+03 -2.25281E+03  3.17425E+03 -4.90388E+03  4.47882E+03
 -1.06186E+04 -4.75989E+02 -1.13436E+04 -9.17828E+03 -4.63657E+03 -1.53180E+04  4.44987E+03 -1.18420E+04
  1.03052E+04 -4.56726E+03  7.14911E+03  3.47031E+03 -3.07798E+02  4.48825E+03 -5.17828E+03 -5.41372E+02
 -5.65865E+03 -6.97449E+03 -1.28560E+03 -1.14401E+04  6.63833E+03 -1.19919E+04  1.55789E+04 -6.79865E+03
  1.74567E+04  1.24297E+03  1.29852E+04  9.39684E+03  1.89536E+03  1.38942E+04 -7.11293E+03  1.25853E+04
 -9.92849E+03  3.28913E+03 -4.66313E+03 -1.48724E+03  2.12144E+03 -2.71395E+03  6.47564E+03 -9.23572E+02
  6.04111E+03  5.04545E+03  9.97361E+02  9.24648E+03 -6.34089E+03  8.97350E+03 -1.17305E+04  2.48311E+03
 -6.97862E+03 -6.24906E+03  2.86759E+02 -9.68635E+03  5.92998E+03 -5.11543E+03  6.04189E+03  2.16164E+03
  1.67484E+03  6.20753E+03 -6.24846E+03  7.90973E+03 -8.92081E+03  3.24173E+03 -9.22841E+03 -2.51947E+03
 -5.66331E+03 -1.10384E+04  2.17766E+03 -1.19031E+04  1.04788E+04 -7.94252E+03  1.12685E+04  1.75425E+03
  7.25419E+03  8.67185E+03 -6.52091E+02  1.21328E+04 -8.49198E+03  6.31434E+03 -8.51794E+03 -6.62544E+02
 -8.48440E+03 -7.25540E+03 -1.37490E+03 -7.83778E+03  4.10625E+03 -6.93508E+03  5.04203E+03 -3.34390E+03
  3.36138E+03  5.79848E+02 -4.15222E+02  1.44727E+03  7.09115E+02 -2.30676E+03  2.14393E+03 -5.09411E+03
  7.48545E+03 -2.40306E+03  1.02092E+04  1.20799E+03  9.93049E+03  5.91379E+03  7.41035E+03  1.36612E+04
 -2.74051E+03  1.55583E+04 -1.36622E+04  1.15740E+04 -1.68562E+04  2.63830E+03 -1.39752E+04 -5.57037E+03
 -6.54301E+03 -1.15192E+04  3.43313E+01 -9.66189E+03  4.35256E+03 -5.04889E+03  3.50591E+03 -3.29302E+03
  2.42499E+03 -2.77724E+03  2.34477E+03 -2.87411E+03  4.49592E+03 -2.03819E+03  5.53182E+03 -4.03953E+02
  7.66768E+03  1.94847E+03  3.18101E+03  6.37417E+03 -1.88493E+03  6.42467E+03 -7.30673E+03  5.05395E+03
 -8.92564E+03 -1.04642E+03 -4.91981E+03 -6.59642E+03  1.15073E+02 -9.77069E+03  5.34867E+03 -9.46214E+03
  9.77202E+03 -6.24645E+03  1.24288E+04  1.02027E+03  8.55654E+03  8.77439E+03  1.70649E+03  1.11362E+04
 -4.85566E+03  8.96059E+03 -5.61782E+03  3.29913E+03 -4.22254E+03 -7.20360E+02 -1.58202E+03 -6.94546E+02
 -1.91498E+02 -3.35649E+02 -1.84694E+03  2.30852E+03 -4.02474E+03  1.94795E+03 -6.40885E+03 -8.45947E+02
 -4.22788E+03 -6.99820E+03  9.58241E+02 -8.90071E+03  5.94986E+03 -8.14334E+03  8.44671E+03 -2.60439E+03
  8.44324E+03  4.23416E+03  4.64605E+03  7.36500E+03 -1.79869E+03  8.59469E+03 -6.23085E+03  5.49026E+03
 -7.52272E+03  4.60280E+02 -7.00801E+03 -5.49885E+03 -5.21832E+02 -7.45076E+03  3.91435E+03 -5.19422E+03
  4.47589E+03 -2.22037E+03  4.14679E+03  1.95586E+03  1.24336E+03  2.76239E+03  1.43917E+03  1.76360E+03
  2.15627E+03  2.25421E+02  1.93108E+03  8.30828E+02  2.34574E+03  3.22424E+03  2.17345E+03  4.17461E+03
 -1.04956E+03  6.80486E+03 -5.75945E+03  7.26014E+03 -8.14936E+03  2.38091E+03 -8.84171E+03 -3.66915E+03
 -4.61245E+03 -8.18619E+03  9.47502E+02 -1.00956E+04  4.71355E+03 -5.91297E+03  6.39101E+03 -2.74088E+03
  5.52549E+03  3.26897E+03  1.16850E+03  5.30338E+03 -2.33695E+03  3.20444E+03 -2.73589E+03 -8.70649E+02
 -1.33831E+03 -4.17842E+03  2.34722E+03 -3.55711E+03  3.30652E+03 -1.94045E+03  2.44706E+03  5.76492E+02
  1.88611E+03  9.32007E+02  1.19553E+03  9.63967E+02 -3.97200E+02  1.38369E+03  1.42376E+03 -8.67577E+02
  1.07636E+03 -3.11467E+02  3.59632E+03  1.59693E+03  1.23514E+03  4.37030E+03 -1.15692E+03  5.49338E+03
 -4.50787E+03  3.62024E+03 -4.87499E+03  7.23050E+02 -3.84354E+03 -1.70923E+03 -1.66033E+03 -2.54138E+03
  5.52268E+02 -2.68706E+03  1.46317E+03 -1.40872E+03  1.33292E+03  2.04640E+03 -1.19197E+03  1.57994E+03
 -3.44235E+03  1.86847E+03 -3.56644E+03 -2.25030E+03 -2.20879E+03 -4.04558E+03  4.69779E+02 -4.31848E+03
  2.84814E+03 -2.49089E+03  2.72007E+03 -6.05074E+02  2.45547E+03  1.66998E+03  7.12714E+02  2.57430E+03
 -1.12105E+03  5.19110E+02 -1.83563E+03 -8.10821E+02  8.13906E+02 -3.25652E+03  4.23897E+03 -2.50039E+03
  4.95481E+03 -1.44923E+01  5.30867E+03  3.06249E+03  1.89471E+03  5.19012E+03 -1.49720E+03  4.62835E+03
 -4.35043E+03  1.32953E+03 -4.30126E+03 -6.61275E+02 -2.38659E+03 -3.67249E+03  2.84541E+02 -3.05769E+03
  3.39532E+03 -1.25118E+03  2.75035E+03  1.20008E+03  1.01944E+03  2.49218E+03  6.76023E+02  2.39493E+03
 -1.10742E+03  1.74121E+03 -1.48239E+03  2.17159E+02  4.33049E+01  7.73339E+02 -1.35049E+03  1.18003E+03
 -1.22752E+03  1.57817E+03 -3.45145E+03  2.22919E+03 -5.44097E+03  8.42763E+01 -5.64250E+03 -3.29053E+03
 -2.68863E+03 -6.22818E+03  1.62328E+03 -7.26792E+03  4.26763E+03 -6.57749E+03  7.17167E+03 -2.10314E+03
  6.33555E+03  7.99666E+02  4.30547E+03  4.79370E+03 -4.22056E+02  4.17723E+03 -2.78939E+03  3.19352E+03
 -2.48768E+03  1.31601E+03 -2.19242E+03 -6.36588E+02 -7.33421E+02 -7.48087E+01 -4.67413E+02 -2.15337E+02
 -1.18462E+03  1.06323E+02 -1.48716E+03 -3.32890E+02  1.20502E+02 -1.30759E+03 -4.13181E+02 -2.43094E+03
  2.68459E+03 -1.63068E+03  3.13942E+03  1.70704E+02  3.41824E+03  2.40166E+03 -4.44974E+02  4.69503E+03
 -2.05030E+03  5.33626E+03 -4.66886E+03  3.06378E+03 -5.90566E+03 -7.85867E+02 -4.29824E+03 -3.87808E+03
 -2.18892E+03 -4.72446E+03  1.02342E+03 -3.83186E+03  2.74902E+03 -2.39261E+03  2.92142E+03 -1.15629E+02
  1.96543E+03  1.73092E+03 -2.85539E+02  1.31320E+03 -7.38502E+02  7.09768E+01 -2.03997E+02 -2.59661E+02
  1.30221E+03  5.11868E+02  1.17248E+03  6.01793E+02  1.03486E+03  2.01725E+03  5.10777E+02  1.46442E+03
 -2.03248E+03  2.17207E+03 -2.94260E+03 -3.06004E+02 -2.47020E+03 -1.91748E+03  5.27361E+02 -3.77271E+03
  1.79747E+03 -2.86470E+03  3.08642E+03 -6.91982E+02  3.15313E+03  6.66982E+02  2.03424E+03  2.79354E+03
  6.87803E+02  2.51935E+03 -1.04078E+03  2.07616E+03 -1.67502E+03  1.23631E+03 -1.32550E+03 -1.64577E+01
 -9.97736E+02 -1.81838E+02 -1.25688E+03  7.49466E+01 -1.47338E+03 -3.83472E+02 -2.86377E+03 -3.92351E+02
 -2.00834E+03 -1.03276E+03 -4.31714E+02 -2.63258E+03  1.75653E+03 -2.84757E+03  2.12373E+03 -1.72017E+03
  3.08717E+03  5.09324E+02  6.14114E+02  1.30170E+03 -3.96087E+02  2.76265E+03 -2.43033E+03  2.09772E+03
