 $NMID ID='MM_0lb_SNR400_15hz_g60_6.RAW', FMTDAT='(8E13.5)'
 TRAMP=1., VOLUME=1. $END
  3.09807E+05 -2.54615E+02  3.37729E+05  2.51311E+05  8.49701E+04  3.38225E+05 -1.32559E+05  2.51443E+05
 -1.90845E+05  8.31527E+04 -1.11636E+05 -3.24905E+04  6.15006E+02 -5.07421E+04  5.40632E+04 -2.88693E+02
  3.55061E+04  5.25581E+04 -1.69675E+04  7.55868E+04 -6.05755E+04  6.37964E+04 -8.44027E+04  3.19645E+04
 -8.13095E+04 -1.19998E+04 -5.71594E+04 -5.09716E+04 -1.56640E+04 -6.99251E+04  2.76438E+04 -4.56807E+04
  4.01633E+04  4.22997E+03  1.59901E+04  4.80443E+04 -3.47829E+04  4.74116E+04 -6.68583E+04 -3.76145E+02
 -5.40550E+04 -5.74380E+04 -6.83626E+03 -7.72921E+04  3.46007E+04 -5.55240E+04  4.86601E+04 -1.77533E+04
  4.34258E+04  1.17171E+04  3.16030E+04  2.61959E+04  1.56479E+04  2.93498E+04 -5.02851E+03  2.72943E+04
 -2.19192E+04  1.26600E+04 -1.85767E+04 -5.31805E+03  5.49142E+03 -7.16639E+03  2.27513E+04  1.25788E+04
  7.34913E+03  3.58738E+04 -3.23789E+04  3.49317E+04 -6.41707E+04  2.16482E+03 -5.75017E+04 -4.27812E+04
 -1.27364E+04 -6.33253E+04  4.04587E+04 -4.59703E+04  5.84231E+04 -1.66031E+03  3.43946E+04  3.26512E+04
 -5.65427E+03  3.68847E+04 -2.99516E+04  1.57671E+04 -3.12019E+04 -4.90136E+03 -1.72456E+04 -1.17489E+04
 -8.58814E+03 -1.37259E+04 -7.51204E+02 -1.80671E+04  7.64075E+03 -2.27769E+04  1.55383E+04 -1.34392E+04
  1.15614E+04  5.36067E+03 -8.49391E+03  1.31176E+04 -2.13878E+04 -4.64415E+03 -8.21045E+03 -3.44788E+04
  2.36201E+04 -4.42149E+04  4.81901E+04 -1.96536E+04  4.57808E+04  1.92596E+04  1.62810E+04  4.44966E+04
 -1.61861E+04  3.34991E+04 -2.62146E+04  2.09712E+03 -1.04498E+04 -2.79987E+04  2.06498E+04 -3.43901E+04
  4.11692E+04 -9.43294E+03  3.65101E+04  2.43275E+04  1.85288E+04  4.80165E+04 -8.32908E+03  5.11580E+04
 -3.24569E+04  3.42593E+04 -4.26281E+04  9.90030E+03 -4.38998E+04 -1.70356E+04 -2.37615E+04 -3.84614E+04
  7.57817E+03 -3.86316E+04  3.15097E+04 -1.50776E+04  2.94646E+04  1.16588E+04  4.47308E+03  1.92649E+04
 -1.30225E+04  8.70140E+03 -1.05604E+04 -8.05815E+03  6.53771E+03 -1.07393E+04  1.84653E+04  6.16122E+03
  1.38581E+04  2.16546E+04 -6.35793E+03  2.51719E+04 -2.24515E+04  1.25481E+04 -2.91275E+04 -4.75392E+03
 -2.16211E+04 -1.70962E+04 -8.97611E+03 -2.15382E+04  4.14262E+03 -2.02402E+04  1.66131E+04 -1.89514E+04
  2.66878E+04 -1.32100E+04  3.36852E+04  2.71391E+03  2.45546E+04  2.02458E+04  4.56823E+03  3.67993E+04
 -1.74287E+04  3.06673E+04 -2.83174E+04  1.10904E+04 -2.11164E+04 -9.82184E+03 -3.63290E+03 -1.34050E+04
  1.08518E+03 -2.63901E+03 -5.23777E+03  6.30327E+03 -1.62327E+04  5.04578E+03 -1.72529E+04 -7.35046E+03
 -1.02927E+04 -1.94120E+04  5.12390E+03 -2.28960E+04  1.59488E+04 -1.67167E+04  1.81323E+04 -1.77970E+03
  1.15993E+04  1.34997E+04 -1.40389E+03  1.96143E+04 -1.39102E+04  1.03555E+04 -1.93057E+04 -4.39096E+03
 -1.39713E+04 -1.77419E+04 -1.97856E+03 -2.29999E+04  9.91622E+03 -1.91212E+04  2.01555E+04 -9.56912E+03
  1.78480E+04  2.95221E+02  1.31311E+04  4.08475E+03  7.15406E+03  4.47264E+02  9.57519E+03 -1.82508E+03
  1.79594E+04  2.92945E+03  1.97704E+04  1.48287E+04  1.27475E+04  3.05495E+04 -3.33580E+03  3.44622E+04
 -2.06457E+04  2.83226E+04 -3.26608E+04  1.43636E+04 -3.48777E+04 -2.62081E+03 -2.79884E+04 -1.98728E+04
 -1.20092E+04 -2.81429E+04  1.03039E+04 -2.46639E+04  2.20286E+04 -1.24856E+04  1.95511E+04  5.87399E+03
  7.52934E+03  1.42544E+04 -8.49160E+03  1.24175E+04 -1.63628E+04  2.09590E+03 -1.25999E+04 -1.01839E+04
  1.03141E+02 -1.56307E+04  7.55234E+03 -1.22240E+04  1.03596E+04 -1.15996E+03  2.20273E+03  6.29545E+03
 -6.63180E+03  2.57295E+03 -6.55225E+03 -5.52367E+03 -6.39959E+02 -1.34208E+04  9.51174E+03 -1.46919E+04
  1.66279E+04 -7.30900E+03  1.84065E+04  3.81672E+03  1.53668E+04  1.38799E+04  7.08290E+03  2.03835E+04
 -3.35308E+03  2.26834E+04 -1.42917E+04  1.42031E+04 -1.62024E+04  2.90740E+03 -1.16264E+04 -3.78137E+03
 -5.20517E+03 -4.97508E+03 -7.24461E+02  6.93142E+02 -2.10200E+03  2.39056E+03 -5.18096E+03  4.09537E+03
 -1.06368E+04 -3.51947E+02 -1.12248E+04 -9.02221E+03 -4.34928E+03 -1.53589E+04  4.96386E+03 -1.13929E+04
  9.53462E+03 -4.53053E+03  7.16834E+03  2.78104E+03  3.04109E+02  4.44260E+03 -5.51598E+03  2.05371E+02
 -5.08297E+03 -7.13218E+03 -9.96336E+02 -1.07419E+04  6.19896E+03 -1.10401E+04  1.38197E+04 -6.39574E+03
  1.71993E+04  1.44751E+03  1.25493E+04  9.89440E+03  2.66429E+03  1.28677E+04 -7.08729E+03  1.08709E+04
 -9.25706E+03  3.33355E+03 -5.19912E+03 -1.77448E+03  2.19043E+03 -3.64048E+03  6.27945E+03 -1.00863E+03
  5.81047E+03  4.49047E+03  1.29099E+03  9.14163E+03 -6.02234E+03  8.44908E+03 -1.03328E+04  1.78825E+03
 -7.30313E+03 -5.91560E+03 -4.78473E+02 -9.92736E+03  5.60201E+03 -4.97405E+03  5.50295E+03  1.45951E+03
  1.64193E+03  5.98975E+03 -5.60697E+03  8.15998E+03 -8.42059E+03  3.41300E+03 -8.44145E+03 -2.61477E+03
 -4.91104E+03 -1.02048E+04  2.51960E+03 -1.13088E+04  9.81090E+03 -6.99827E+03  1.03443E+04  1.91154E+03
  6.13756E+03  8.43503E+03 -5.11145E+02  1.05723E+04 -8.06240E+03  6.14728E+03 -7.55686E+03 -9.41227E+02
 -7.30276E+03 -6.70624E+03 -1.83107E+03 -7.30597E+03  3.53080E+03 -6.63194E+03  4.77917E+03 -3.47413E+03
  3.31073E+03  1.44466E+03 -5.83226E+01  1.30154E+03 -1.43674E+02 -9.91197E+02  9.31079E+02 -3.97165E+03
  6.54214E+03 -2.46082E+03  9.16708E+03  6.31106E+02  9.20920E+03  5.51135E+03  6.81199E+03  1.21767E+04
 -2.57906E+03  1.40906E+04 -1.20265E+04  1.07669E+04 -1.57703E+04  1.53763E+03 -1.17356E+04 -4.29608E+03
 -6.59367E+03 -1.02932E+04 -8.87133E+02 -8.22133E+03  2.79682E+03 -4.73432E+03  3.24522E+03 -3.13492E+03
  1.63780E+03 -1.75333E+03  2.73371E+03 -2.77760E+03  4.06681E+03 -1.68239E+03  5.13477E+03 -4.05762E+02
  6.25142E+03  1.74557E+03  2.99393E+03  4.85082E+03 -1.23539E+03  4.47419E+03 -7.51818E+03  4.74937E+03
 -8.34774E+03 -1.83482E+03 -4.09895E+03 -5.99751E+03 -1.47119E+02 -8.36923E+03  5.07980E+03 -8.82709E+03
  9.13403E+03 -5.35121E+03  1.09305E+04  1.65519E+03  7.94334E+03  7.23672E+03  1.91591E+03  9.81608E+03
 -3.35296E+03  8.39364E+03 -5.26810E+03  2.32782E+03 -3.21628E+03 -8.06862E+02 -2.05720E+03 -1.80695E+03
 -8.79129E+00 -7.76532E+01 -1.79881E+03  1.79866E+03 -3.27926E+03  1.23643E+03 -5.92544E+03 -1.43882E+02
 -2.90640E+03 -6.30803E+03  2.35318E+02 -7.76363E+03  4.37140E+03 -7.25733E+03  7.19310E+03 -2.05478E+03
  7.39227E+03  3.93485E+03  3.02965E+03  6.59918E+03 -1.78732E+03  7.69877E+03 -4.82587E+03  5.13763E+03
 -6.93224E+03  3.87945E+02 -6.09236E+03 -4.14725E+03 -8.18810E+02 -5.77624E+03  2.79983E+03 -4.84782E+03
  4.46529E+03 -1.71791E+03  3.50596E+03  1.02999E+03  9.58535E+02  2.06374E+03  1.20953E+03  8.66394E+02
  2.41900E+03  5.53034E+02  2.05819E+03  1.77769E+03  2.68755E+03  3.15194E+03  1.96947E+03  3.34202E+03
 -1.28506E+03  5.26574E+03 -4.96049E+03  6.15103E+03 -5.86927E+03  1.95306E+03 -7.36266E+03 -1.98048E+03
 -3.26543E+03 -7.25374E+03  1.12847E+03 -8.01618E+03  4.16255E+03 -4.66178E+03  5.35800E+03 -1.15249E+03
  4.59188E+03  2.63234E+03  1.09436E+03  4.26572E+03 -1.97086E+03  1.87428E+03 -2.55797E+03 -3.41902E+02
 -1.07840E+03 -2.67007E+03  1.95581E+03 -3.21677E+03  2.83458E+03 -1.26080E+03  2.74457E+03  4.41911E+02
  1.50571E+03  9.12465E+02  1.19849E+03  1.10441E+02 -9.44633E+02  1.09155E+03  2.02417E+03 -2.35321E+02
  4.07454E+02 -7.63362E+02  2.89853E+03  7.84873E+02  1.51789E+03  3.43236E+03 -4.72949E+02  4.79087E+03
 -2.80406E+03  2.86124E+03 -4.19351E+03  8.76027E+02 -4.00067E+03 -1.35940E+03 -9.66917E+02 -2.54760E+03
  1.40972E+02 -2.63820E+03  1.89327E+03 -1.20939E+03  2.07142E+03  1.82531E+03 -1.27815E+03  2.28769E+03
 -2.54252E+03  1.51359E+03 -2.10103E+03 -1.67452E+03 -9.42268E+02 -3.12900E+03  4.95824E+02 -3.27607E+03
  1.83009E+03 -2.10589E+03  2.28580E+03  2.48429E+02  1.65106E+03  1.09659E+03  6.07711E+02  1.89904E+03
 -7.96656E+02  7.84069E+01 -1.03366E+03 -1.12520E+02  7.86595E+02 -2.31072E+03  2.94143E+03 -1.75532E+03
  2.95502E+03  2.69390E+02  4.84597E+03  1.69414E+03  1.84727E+03  4.21723E+03 -8.23751E+02  3.62420E+03
 -3.48936E+03  1.63811E+03 -2.54649E+03 -1.09838E+03 -1.81760E+03 -2.97240E+03  2.08227E+02 -2.48221E+03
  2.22995E+03 -1.05935E+03  1.91045E+03  5.39377E+02  3.35048E+02  2.13058E+03 -5.28762E+02  1.59645E+03
 -1.01264E+03  7.21950E+02 -8.48898E+02  6.24159E+00 -6.66288E+02  8.82402E+02 -3.74726E+02  9.58004E+02
 -5.66354E+02  1.49761E+03 -2.63367E+03  1.39398E+03 -3.20066E+03 -9.13819E+01 -4.58302E+03 -2.20049E+03
 -1.69248E+03 -4.69162E+03  9.35433E+02 -5.27869E+03  2.54469E+03 -4.68957E+03  5.37726E+03 -1.39473E+03
  5.10426E+03  7.43374E+02  2.65466E+03  3.12012E+03 -1.19690E+03  3.26729E+03 -4.57228E+02  3.39022E+03
 -2.11588E+03  7.69362E+02 -1.05488E+03 -4.58393E+02 -6.20917E+02  4.72646E+02 -1.02110E+03 -3.52873E+02
 -1.62721E+03  1.82320E+02 -1.49948E+03  4.93395E+00  2.68683E+02 -9.69297E+02  6.66153E+02 -1.59050E+03
  1.75296E+03 -1.35072E+03  1.04839E+03  9.37584E+01  2.46366E+03  2.20603E+03 -6.73469E+01  3.42160E+03
 -1.55183E+03  4.31511E+03 -3.56580E+03  2.00649E+03 -3.63481E+03  5.12536E+02 -2.48057E+03 -2.46396E+03
 -1.62432E+03 -2.82006E+03  7.39575E+02 -3.25697E+03  2.24595E+03 -1.46864E+03  1.64065E+03  7.24706E+02
  1.11183E+03  1.61222E+03 -2.32400E+02  1.39535E+03 -5.83570E+02 -5.24265E+02  7.02028E+02 -8.16763E+02
  1.34689E+03 -1.22328E+00  5.96780E+02  2.26678E+02  1.12890E+03  1.32109E+03 -2.51853E+02  1.40208E+03
 -1.08878E+03  1.36691E+03 -1.62064E+03  1.34105E+02 -1.69498E+03 -1.61350E+03  4.32901E+01 -2.81150E+03
  1.01596E+03 -1.44617E+03  1.85216E+03 -4.13278E+02  2.70077E+03 -2.88338E+02  1.98753E+03  1.99474E+03
  6.56809E+02  1.31020E+03 -1.40947E+03  1.33142E+03 -9.65650E+02  1.47443E+03 -3.29527E+02  6.30532E+02
 -4.60683E+02 -2.40052E+02 -7.19827E+02  1.22624E+02 -1.45540E+03  1.75828E+02 -1.52121E+03 -2.50049E+02
 -1.76050E+03 -4.69575E+02 -1.07693E+03 -1.96790E+03  1.32381E+03 -2.41619E+03  1.65546E+03 -1.04925E+03
  1.76325E+03  1.03139E+03  6.21296E+02  8.91120E+02 -7.80229E+02  1.66964E+03 -8.62124E+02  1.48938E+03
