 $NMID ID='MM_0lb_SNR400_8hz_g55_14.RAW', FMTDAT='(8E13.5)'
 TRAMP=1., VOLUME=1. $END
  3.10163E+05 -6.47050E+02  3.38468E+05  2.51678E+05  8.49186E+04  3.39382E+05 -1.32513E+05  2.51930E+05
 -1.90632E+05  8.43479E+04 -1.12546E+05 -3.17518E+04 -6.37491E+02 -5.10018E+04  5.37399E+04 -2.29133E+02
  3.58080E+04  5.29687E+04 -1.64631E+04  7.63233E+04 -6.02304E+04  6.38976E+04 -8.59014E+04  3.29021E+04
 -8.20744E+04 -1.19553E+04 -5.84912E+04 -5.33204E+04 -1.46950E+04 -7.12727E+04  2.88337E+04 -4.62565E+04
  4.15474E+04  4.03370E+03  1.79782E+04  4.97988E+04 -3.57839E+04  4.89110E+04 -6.84530E+04  5.63135E+02
 -5.48881E+04 -5.81604E+04 -7.40584E+03 -7.91651E+04  3.51788E+04 -5.66930E+04  5.00725E+04 -1.83247E+04
  4.53166E+04  1.21730E+04  3.29527E+04  2.66609E+04  1.55754E+04  3.14105E+04 -5.87107E+03  2.76693E+04
 -2.26323E+04  1.18821E+04 -1.76801E+04 -6.08725E+03  7.27519E+03 -7.97733E+03  2.41979E+04  1.45803E+04
  7.12369E+03  3.86273E+04 -3.39071E+04  3.77665E+04 -6.63827E+04  1.43416E+03 -5.93236E+04 -4.53994E+04
 -1.24664E+04 -6.64873E+04  4.26961E+04 -4.83656E+04  6.13811E+04 -3.35040E+03  3.80295E+04  3.52173E+04
 -5.21589E+03  4.03186E+04 -3.22999E+04  1.99531E+04 -3.37085E+04 -3.66292E+03 -2.07768E+04 -1.23046E+04
 -9.32525E+03 -1.62053E+04 -4.28614E+02 -1.91621E+04  8.60140E+03 -2.33711E+04  1.48621E+04 -1.24897E+04
  1.04330E+04  6.43540E+03 -1.11969E+04  1.30066E+04 -2.40713E+04 -6.83860E+03 -8.73057E+03 -3.87985E+04
  2.50768E+04 -4.78727E+04  5.22727E+04 -2.12847E+04  5.00804E+04  2.17372E+04  1.80090E+04  4.75216E+04
 -1.65852E+04  3.72471E+04 -2.87716E+04  1.88969E+03 -1.20084E+04 -3.03318E+04  2.17578E+04 -3.79782E+04
  4.55214E+04 -1.07804E+04  4.22095E+04  2.49247E+04  2.19511E+04  5.20552E+04 -8.70161E+03  5.80890E+04
 -3.58806E+04  3.95220E+04 -4.93380E+04  1.21813E+04 -4.95602E+04 -1.95230E+04 -2.67283E+04 -4.31471E+04
  7.81968E+03 -4.33445E+04  3.50019E+04 -1.67909E+04  3.37509E+04  1.12398E+04  5.35913E+03  2.23649E+04
 -1.31522E+04  1.02192E+04 -1.14336E+04 -6.93803E+03  5.83714E+03 -1.14881E+04  1.94083E+04  5.34808E+03
  1.58062E+04  2.28075E+04 -4.79998E+03  2.72056E+04 -2.42959E+04  1.56696E+04 -3.35710E+04 -2.02247E+03
 -2.58333E+04 -1.84781E+04 -1.30137E+04 -2.65937E+04  5.34602E+03 -2.73705E+04  2.11283E+04 -2.35869E+04
  3.40787E+04 -1.49274E+04  3.95951E+04  5.12368E+03  2.82186E+04  2.56254E+04  4.03073E+03  4.32109E+04
 -2.04993E+04  3.53022E+04 -3.22356E+04  1.19654E+04 -2.28641E+04 -1.07066E+04 -5.29607E+03 -1.24840E+04
  1.94255E+02 -4.78158E+02 -8.25913E+03  8.27631E+03 -2.14054E+04  5.40404E+03 -2.10297E+04 -1.06729E+04
 -1.25625E+04 -2.48915E+04  6.46019E+03 -2.81563E+04  2.06844E+04 -2.09234E+04  2.40327E+04 -1.58589E+03
  1.49937E+04  1.76694E+04 -1.37597E+03  2.44776E+04 -1.80649E+04  1.42109E+04 -2.54127E+04 -5.48122E+03
 -1.86978E+04 -2.19348E+04 -2.16021E+03 -2.94353E+04  1.32354E+04 -2.50693E+04  2.40739E+04 -1.31938E+04
  2.34746E+04  1.56361E+02  1.69887E+04  5.31264E+03  9.22186E+03  1.36805E+03  1.24378E+04 -1.68566E+03
  2.42593E+04  3.07120E+03  2.77438E+04  1.95118E+04  1.92290E+04  3.96731E+04 -2.41156E+03  4.68976E+04
 -2.70492E+04  4.00534E+04 -4.47840E+04  2.16938E+04 -4.78588E+04 -4.19841E+03 -3.92370E+04 -2.82270E+04
 -1.51661E+04 -4.00393E+04  1.49043E+04 -3.52682E+04  2.96726E+04 -1.53800E+04  2.57674E+04  7.94923E+03
  8.44992E+03  1.98670E+04 -1.26836E+04  1.65415E+04 -2.13532E+04  2.85967E+03 -1.60064E+04 -1.36137E+04
 -4.69232E+02 -2.08568E+04  1.14576E+04 -1.52283E+04  1.48170E+04 -1.98160E+03  4.26813E+03  9.20793E+03
 -9.53896E+03  4.28702E+03 -1.08008E+04 -7.01504E+03 -2.13127E+03 -1.89175E+04  1.16745E+04 -2.13199E+04
  2.50937E+04 -1.23273E+04  2.91117E+04  3.59935E+03  2.56121E+04  2.07191E+04  1.14668E+04  3.18367E+04
 -6.20832E+03  3.36385E+04 -2.22297E+04  2.11492E+04 -2.52720E+04  4.34534E+03 -1.65236E+04 -7.12013E+03
 -6.24832E+03 -9.02996E+03 -1.04635E+03  4.86637E+02 -3.80122E+03  3.21993E+03 -6.75913E+03  5.70384E+03
 -1.55815E+04 -1.30524E+03 -1.64828E+04 -1.21247E+04 -5.69482E+03 -2.04236E+04  6.89289E+03 -1.70765E+04
  1.37437E+04 -7.33258E+03  9.94271E+03  4.68852E+03  5.24033E+01  7.35922E+03 -8.25631E+03  2.61955E+02
 -8.03943E+03 -1.05635E+04 -1.14612E+03 -1.73405E+04  1.03967E+04 -1.74855E+04  2.18911E+04 -9.54598E+03
  2.46308E+04  2.70146E+03  1.89723E+04  1.61941E+04  3.99392E+03  2.04384E+04 -1.10174E+04  1.75925E+04
 -1.40224E+04  4.20228E+03 -6.85276E+03 -3.80770E+03  2.78745E+03 -4.67681E+03  8.51285E+03 -7.73428E+02
  8.38141E+03  6.48311E+03  7.31874E+02  1.42725E+04 -1.02202E+04  1.35152E+04 -1.70859E+04  2.29186E+03
 -1.24698E+04 -7.47287E+03  2.74475E+02 -1.50966E+04  1.06006E+04 -8.33556E+03  9.74311E+03  4.62145E+03
  2.74821E+03  1.10985E+04 -8.85606E+03  1.29258E+04 -1.49210E+04  5.52762E+03 -1.54141E+04 -5.87968E+03
 -9.00609E+03 -1.73449E+04  4.93214E+03 -2.02408E+04  1.73215E+04 -1.20411E+04  1.95461E+04  3.96400E+03
  1.10807E+04  1.42297E+04 -1.80728E+03  1.90121E+04 -1.35398E+04  9.91459E+03 -1.37848E+04 -9.64281E+02
 -1.17278E+04 -1.20072E+04 -1.13118E+03 -1.22657E+04  7.27979E+03 -1.03892E+04  8.91852E+03 -3.53274E+03
  5.36526E+03  3.26394E+03 -1.60218E+03  1.82566E+03 -1.33690E+03 -4.79642E+03  3.47321E+03 -8.75545E+03
  1.28353E+04 -5.31762E+03  1.85915E+04  1.43294E+03  1.79018E+04  1.26803E+04  1.02920E+04  2.34851E+04
 -5.25600E+03  2.76266E+04 -2.28568E+04  2.04014E+04 -2.99304E+04  3.44809E+03 -2.33348E+04 -1.05522E+04
 -1.16052E+04 -1.94989E+04 -1.19948E+03 -1.71370E+04  4.96179E+03 -9.82079E+03  6.06692E+03 -6.11190E+03
  3.70890E+03 -3.73105E+03  3.85531E+03 -4.41107E+03  6.23756E+03 -4.62236E+03  9.12195E+03 -2.23434E+03
  1.15590E+04  2.75011E+03  7.10929E+03  9.85083E+03 -2.25916E+03  1.42538E+04 -1.26266E+04  9.35789E+03
 -1.59883E+04 -1.72171E+03 -1.03390E+04 -1.15399E+04 -1.16974E+03 -1.86252E+04  9.82547E+03 -1.79157E+04
  1.93796E+04 -9.64038E+03  2.20015E+04  3.74427E+03  1.49024E+04  1.65575E+04  1.93284E+03  2.07448E+04
 -8.81327E+03  1.62812E+04 -1.18125E+04  6.02970E+03 -8.84739E+03 -2.12110E+03 -3.29271E+03 -2.69679E+03
 -1.65527E+03 -4.28018E+02 -1.23638E+03  3.28949E+03 -7.47294E+03  2.35359E+03 -1.15700E+04 -2.38844E+03
 -8.47296E+03 -1.12208E+04 -6.12037E+01 -1.68206E+04  9.84963E+03 -1.63308E+04  1.75907E+04 -4.96586E+03
  1.64600E+04  8.19663E+03  8.04434E+03  1.55682E+04 -2.37333E+03  1.77099E+04 -1.30525E+04  1.03482E+04
 -1.63856E+04  2.19365E+02 -1.33744E+04 -1.06201E+04 -1.88385E+03 -1.50210E+04  7.56965E+03 -9.37328E+03
  1.10124E+04 -3.11772E+03  7.64974E+03  3.36983E+03  2.81109E+03  4.65944E+03  1.86069E+03  1.67584E+03
  2.22925E+03  8.51868E+02  4.29132E+03  2.15718E+03  4.92787E+03  5.71848E+03  3.93568E+03  1.00578E+04
 -3.92743E+03  1.44967E+04 -1.19712E+04  1.35078E+04 -1.82444E+04  3.12399E+03 -1.77567E+04 -7.75369E+03
 -9.10656E+03 -1.83666E+04  2.32365E+03 -1.95431E+04  1.01627E+04 -1.29645E+04  1.48747E+04 -3.10422E+03
  1.07375E+04  6.74126E+03  3.04319E+03  1.02297E+04 -5.32125E+03  6.34471E+03 -7.16304E+03 -1.00223E+03
 -3.76681E+03 -7.67510E+03  4.24245E+03 -8.93301E+03  7.82004E+03 -4.18227E+03  7.11032E+03  2.74359E+03
  4.85469E+03  4.57732E+03  1.37394E+03  2.99299E+03 -7.76974E+02  2.51896E+03  1.50432E+03 -1.08043E+03
  3.47732E+03 -1.34072E+03  7.49933E+03  2.69525E+03  4.72589E+03  9.48790E+03 -1.90195E+03  1.27757E+04
 -8.76147E+03  8.19232E+03 -1.10575E+04  2.61875E+03 -1.02975E+04 -3.41986E+03 -4.92369E+03 -6.49554E+03
  1.31168E+03 -6.82974E+03  5.17453E+03 -3.48671E+03  4.30499E+03  4.25790E+03 -1.47256E+03  6.50909E+03
 -7.92849E+03  3.33267E+03 -7.95674E+03 -4.28498E+03 -4.94179E+03 -9.91672E+03  1.69080E+03 -1.04591E+04
  6.26147E+03 -6.49434E+03  6.66704E+03 -9.71975E+02  5.39598E+03  3.10559E+03  4.85096E+02  5.32113E+03
 -3.00701E+03  2.09822E+03 -4.90393E+03 -3.90296E+03  2.49533E+03 -8.80058E+03  8.86507E+03 -6.92805E+03
  1.17013E+04  2.29397E+02  1.12783E+04  8.08752E+03  3.38071E+03  1.22901E+04 -4.47216E+03  1.07761E+04
 -1.03971E+04  6.37958E+03 -1.07746E+04 -4.72960E+02 -5.99548E+03 -8.34170E+03  2.17510E+03 -7.29624E+03
  8.33312E+03 -3.68189E+03  6.80516E+03  3.59077E+03  2.19479E+03  6.27157E+03 -1.75425E+03  6.10743E+03
 -2.50114E+03  3.04976E+03 -2.89810E+03  1.83728E+03 -1.01858E+03  1.51183E+03 -1.37383E+03  2.77710E+03
 -3.65651E+03  4.34171E+03 -7.63389E+03  3.44356E+03 -1.19479E+04  5.06358E+02 -1.41398E+04 -7.96527E+03
 -7.03193E+03 -1.56019E+04  3.33757E+03 -1.88847E+04  1.08780E+04 -1.34863E+04  1.77439E+04 -5.45151E+03
  1.65077E+04  3.55562E+03  1.05050E+04  1.13061E+04  2.07679E+03  1.24024E+04 -5.81339E+03  1.03438E+04
 -7.86119E+03  3.49662E+03 -4.55946E+03 -1.32967E+03 -9.66399E+02 -1.85015E+03 -6.28383E+02  4.58001E+02
 -1.53484E+03  4.07206E+02 -2.45376E+03 -9.14857E+02 -1.13386E+03 -3.71525E+03  6.56614E+02 -5.00164E+03
  6.22377E+03 -4.56758E+03  8.18466E+03 -1.22518E+01  8.25533E+03  6.97105E+03  3.23860E+03  1.26788E+04
 -7.10695E+03  1.40822E+04 -1.33464E+04  9.28275E+03 -1.61801E+04 -2.32728E+03 -1.23953E+04 -1.00953E+04
 -4.54049E+03 -1.41351E+04  3.37300E+03 -1.26189E+04  8.71468E+03 -6.37508E+03  7.65778E+03  7.80075E+02
  4.96603E+03  4.70748E+03 -9.67247E+02  4.11703E+03 -2.73788E+03 -4.63872E+02  1.06034E+03 -3.42426E+03
  3.72409E+03 -1.85348E+03  5.14107E+03  1.91402E+03  4.15732E+03  4.89773E+03  4.25397E+02  6.82033E+03
 -5.80439E+03  6.24653E+03 -9.32423E+03  1.17552E+02 -8.24292E+03 -6.12267E+03 -1.27649E+03 -1.11599E+04
  6.40251E+03 -9.79243E+03  1.03452E+04 -2.91848E+03  1.05308E+04  2.24068E+03  6.31666E+03  8.94107E+03
  1.18241E+03  9.41889E+03 -3.24565E+03  7.25182E+03 -5.82580E+03  3.22846E+03 -4.77723E+03  1.55053E+03
 -2.45896E+03  3.42460E+02 -3.33744E+03  1.74700E+03 -4.80431E+03  1.64952E+03 -7.17893E+03 -1.02455E+03
 -6.15721E+03 -4.31824E+03 -2.34854E+03 -9.17696E+03  3.99430E+03 -8.82657E+03  7.58671E+03 -4.73867E+03
  8.88459E+03  1.01174E+03  4.58455E+03  7.42874E+03  8.15012E+01  9.19494E+03 -6.15373E+03  5.80751E+03
