 $NMID ID='MM_0lb_SNR400_16hz_g50_70.RAW', FMTDAT='(8E13.5)'
 TRAMP=1., VOLUME=1. $END
  3.09489E+05  9.04101E+02  3.37502E+05  2.50415E+05  8.49442E+04  3.37547E+05 -1.32154E+05  2.50973E+05
 -1.89717E+05  8.29144E+04 -1.11578E+05 -3.29849E+04  1.22752E+03 -5.11172E+04  5.35322E+04 -3.26862E+02
  3.51807E+04  5.26642E+04 -1.69017E+04  7.55153E+04 -6.06432E+04  6.26808E+04 -8.32802E+04  3.20850E+04
 -8.04567E+04 -1.12134E+04 -5.65770E+04 -5.09530E+04 -1.49670E+04 -6.90460E+04  2.72972E+04 -4.52556E+04
  3.97022E+04  3.41375E+03  1.54997E+04  4.77363E+04 -3.45057E+04  4.67799E+04 -6.64126E+04  2.99190E+02
 -5.21355E+04 -5.71553E+04 -6.13114E+03 -7.65681E+04  3.38304E+04 -5.44496E+04  4.74458E+04 -1.73204E+04
  4.22235E+04  1.11201E+04  3.21389E+04  2.54138E+04  1.61749E+04  2.89587E+04 -4.93125E+03  2.69557E+04
 -2.17348E+04  1.25178E+04 -1.90324E+04 -4.88402E+03  4.87384E+03 -7.69174E+03  2.19675E+04  1.17453E+04
  7.49292E+03  3.47021E+04 -3.12324E+04  3.51287E+04 -6.26067E+04  2.56405E+03 -5.63500E+04 -4.22158E+04
 -1.22021E+04 -6.22170E+04  3.91287E+04 -4.41565E+04  5.70444E+04 -2.16753E+03  3.27651E+04  3.14714E+04
 -6.23899E+03  3.46965E+04 -2.88808E+04  1.49804E+04 -2.94143E+04 -5.14174E+03 -1.60509E+04 -1.02825E+04
 -8.18679E+03 -1.27303E+04 -1.58415E+03 -1.79352E+04  7.91375E+03 -2.31457E+04  1.49834E+04 -1.31784E+04
  1.14787E+04  4.95225E+03 -7.40796E+03  1.27961E+04 -2.10016E+04 -3.73587E+03 -8.28451E+03 -3.21158E+04
  2.23946E+04 -4.23687E+04  4.65527E+04 -1.95215E+04  4.39364E+04  1.87599E+04  1.49384E+04  4.32341E+04
 -1.55999E+04  3.22160E+04 -2.42622E+04  1.39328E+03 -9.67873E+03 -2.75173E+04  2.08537E+04 -3.26402E+04
  3.98570E+04 -8.10356E+03  3.44597E+04  2.30818E+04  1.71003E+04  4.53346E+04 -8.13231E+03  4.79849E+04
 -3.06759E+04  3.26662E+04 -3.99547E+04  9.04776E+03 -4.09935E+04 -1.58789E+04 -2.28604E+04 -3.66667E+04
  7.03526E+03 -3.68425E+04  3.04368E+04 -1.36535E+04  2.82193E+04  1.03156E+04  3.86480E+03  1.91133E+04
 -1.30922E+04  7.77420E+03 -1.09970E+04 -7.63822E+03  6.00964E+03 -9.99402E+03  1.75289E+04  6.20883E+03
  1.26934E+04  2.14716E+04 -6.33171E+03  2.41314E+04 -2.19179E+04  1.10316E+04 -2.70004E+04 -4.97135E+03
 -1.89521E+04 -1.71658E+04 -7.32539E+03 -1.86400E+04  4.06085E+03 -1.76311E+04  1.45401E+04 -1.69860E+04
  2.43924E+04 -1.21504E+04  3.07947E+04  2.79313E+03  2.22593E+04  1.85304E+04  4.49529E+03  3.45533E+04
 -1.66194E+04  2.85684E+04 -2.70505E+04  9.72025E+03 -2.07575E+04 -1.04731E+04 -4.17199E+03 -1.36729E+04
  1.66516E+03 -3.27620E+03 -3.95899E+03  5.74002E+03 -1.45855E+04  5.84149E+03 -1.52771E+04 -6.23424E+03
 -9.79366E+03 -1.81550E+04  4.61455E+03 -2.19483E+04  1.43710E+04 -1.55653E+04  1.63187E+04 -1.66601E+03
  1.04464E+04  1.23647E+04 -1.60212E+03  1.85475E+04 -1.22032E+04  1.00726E+04 -1.82869E+04 -3.74829E+03
 -1.24999E+04 -1.60390E+04 -1.93095E+03 -2.07180E+04  9.79545E+03 -1.71403E+04  1.78937E+04 -8.89520E+03
  1.65087E+04  1.00870E+02  1.15150E+04  4.29325E+03  5.93675E+03  1.30776E+03  8.10819E+03 -1.52777E+03
  1.61125E+04  3.39346E+03  1.75536E+04  1.33969E+04  1.12701E+04  2.80809E+04 -2.92813E+03  3.12961E+04
 -1.78745E+04  2.43177E+04 -2.89664E+04  1.17857E+04 -3.00660E+04 -1.96114E+03 -2.53469E+04 -1.72908E+04
 -1.14637E+04 -2.48590E+04  7.93365E+03 -2.26529E+04  1.94713E+04 -1.17693E+04  1.74915E+04  4.31458E+03
  6.50818E+03  1.32453E+04 -8.25469E+03  1.11108E+04 -1.55379E+04  2.29846E+03 -1.07367E+04 -8.89507E+03
 -1.64398E+02 -1.39354E+04  6.99932E+03 -1.02891E+04  9.92750E+03 -1.57918E+03  2.53375E+03  6.48484E+03
 -6.27857E+03  2.03459E+03 -4.65348E+03 -4.86793E+03 -1.25865E+02 -1.21718E+04  9.28923E+03 -1.29919E+04
  1.46827E+04 -6.36137E+03  1.51776E+04  2.90267E+03  1.30225E+04  1.21822E+04  6.26066E+03  1.77335E+04
 -3.08179E+03  1.93678E+04 -1.20636E+04  1.31254E+04 -1.41352E+04  3.69612E+03 -9.69886E+03 -2.55970E+03
 -5.32647E+03 -3.95456E+03 -7.40706E+02  9.46142E+02 -2.13100E+03  2.73171E+03 -4.49975E+03  3.92380E+03
 -9.04028E+03 -4.97582E+02 -1.02972E+04 -8.48952E+03 -3.91949E+03 -1.29769E+04  3.44405E+03 -1.03386E+04
  8.30662E+03 -4.33755E+03  5.72055E+03  2.70473E+03  4.63501E+02  3.31647E+03 -4.48623E+03 -7.78666E+02
 -4.62874E+03 -6.33861E+03 -6.48284E+02 -9.31824E+03  5.58798E+03 -9.85396E+03  1.23453E+04 -4.79951E+03
  1.36976E+04  8.69017E+02  9.79648E+03  8.01025E+03  1.60091E+03  1.12087E+04 -6.20963E+03  9.85825E+03
 -8.32938E+03  3.50364E+03 -4.65728E+03 -1.73968E+03  1.27048E+03 -2.06308E+03  5.84990E+03 -8.20936E+02
  5.23058E+03  3.92725E+03  1.29360E+03  7.01197E+03 -5.33455E+03  7.84727E+03 -8.70888E+03  2.22564E+03
 -5.07441E+03 -4.72191E+03  5.73863E+02 -8.03886E+03  5.01034E+03 -4.01236E+03  4.97852E+03  8.65544E+02
  1.15828E+03  5.10302E+03 -5.20861E+03  6.18328E+03 -6.66309E+03  2.62759E+03 -6.00364E+03 -1.99835E+03
 -4.08313E+03 -7.99753E+03  1.50881E+03 -9.79193E+03  6.96929E+03 -6.16791E+03  8.52043E+03  1.45915E+03
  5.87145E+03  6.90185E+03  6.22980E+02  9.19524E+03 -6.19175E+03  4.74546E+03 -6.47893E+03 -1.09322E+03
 -6.14816E+03 -6.59354E+03 -1.25658E+03 -6.10113E+03  3.07820E+03 -5.27729E+03  3.99546E+03 -2.97494E+03
  3.89589E+03  2.89129E+02 -2.53393E+02  1.30871E+03  4.08011E+02 -8.94268E+02  1.40221E+03 -2.79835E+03
  5.23734E+03 -1.44902E+03  7.68507E+03  9.35277E+02  7.12495E+03  4.62859E+03  6.18593E+03  9.57148E+03
 -1.96130E+03  1.10395E+04 -9.81405E+03  8.61729E+03 -1.28834E+04  1.47198E+03 -1.05632E+04 -4.15600E+03
 -5.04443E+03 -8.69686E+03 -2.76749E+02 -7.10766E+03  2.61757E+03 -3.18931E+03  2.58162E+03 -2.88950E+03
  1.38775E+03 -1.86628E+03  2.56740E+03 -2.75516E+03  3.83869E+03 -1.88122E+03  4.29867E+03 -3.65502E+02
  5.71355E+03  1.55385E+03  2.00830E+03  4.63788E+03 -1.82118E+03  4.39620E+03 -5.72527E+03  4.12158E+03
 -6.55133E+03 -1.09051E+03 -3.28824E+03 -4.34242E+03  4.03125E+02 -7.03090E+03  3.93056E+03 -7.80976E+03
  7.46160E+03 -4.56075E+03  9.18988E+03  1.34651E+03  5.87747E+03  6.06346E+03  1.63527E+03  8.08311E+03
 -3.14114E+03  7.70803E+03 -4.60290E+03  2.96987E+03 -3.10137E+03 -1.33832E+03 -1.06925E+03 -8.44625E+02
 -7.67176E+02 -1.46318E+02 -5.50109E+02  1.99254E+03 -3.52053E+03  1.36750E+03 -5.77890E+03 -8.53062E+02
 -2.25708E+03 -4.82698E+03  1.00917E+03 -6.55948E+03  3.69117E+03 -5.63923E+03  6.04659E+03 -1.41139E+03
  6.19468E+03  2.92222E+03  2.32939E+03  4.65810E+03 -6.37306E+02  6.09800E+03 -3.97055E+03  4.19254E+03
 -5.15110E+03  7.09952E+02 -4.32157E+03 -4.14150E+03 -2.23108E+02 -4.75866E+03  2.72435E+03 -3.08679E+03
  3.43186E+03 -1.55126E+03  2.74743E+03  7.71375E+02  6.66237E+02  2.27980E+03  4.19357E+02  4.42698E+02
  1.87631E+03 -7.23709E+00  1.68426E+03  7.39807E+02  1.91124E+03  2.70333E+03  1.16534E+03  2.81649E+03
 -1.44792E+03  4.71056E+03 -3.76607E+03  5.45187E+03 -5.38717E+03  1.42917E+03 -5.56827E+03 -9.76958E+02
 -3.29779E+03 -5.56194E+03  2.67514E+02 -6.42038E+03  3.13284E+03 -3.40435E+03  4.65668E+03 -6.36285E+02
  3.75176E+03  2.62006E+03  1.09689E+03  3.58496E+03 -6.93325E+02  1.79242E+03 -2.07745E+03  7.49747E+00
 -1.65176E+03 -2.63646E+03  1.29180E+03 -2.89792E+03  2.23291E+03 -5.46245E+02  2.05553E+03  6.41482E+02
  1.41059E+03  1.07676E+03  1.33623E+03  1.97054E+02 -4.34783E+01  6.49102E+02  1.56576E+03 -5.22858E+02
  7.35430E+02  7.63949E+01  2.62727E+03  1.49726E+03  6.68036E+02  3.12996E+03 -1.48953E+02  3.97834E+03
 -2.46150E+03  1.84617E+03 -2.86086E+03  8.43608E+02 -3.09375E+03 -1.75458E+03 -1.12048E+03 -1.57528E+03
  7.18567E+02 -2.17503E+03  1.67456E+03 -1.13437E+03  1.15614E+03  2.05585E+03 -6.76357E+02  2.07137E+03
 -2.36950E+03  7.19129E+02 -2.31215E+03 -1.37064E+03 -1.83544E+03 -2.68435E+03  3.22487E+02 -2.62286E+03
  1.31634E+03 -6.44485E+02  1.40471E+03  1.15486E+02  2.09054E+03  3.27016E+02  2.63882E+02  1.58000E+03
 -1.24907E+03  8.01860E+00 -1.24163E+03 -4.43685E+02  1.17174E+03 -1.85536E+03  2.73019E+03 -1.30568E+03
  1.95692E+03  2.95707E+02  3.52688E+03  7.95576E+02  1.35733E+03  3.20958E+03 -8.33128E+02  3.19439E+03
 -2.60081E+03  1.16702E+03 -2.27561E+03 -4.75581E+02 -1.26538E+03 -1.50821E+03  5.07047E+02 -1.35579E+03
  2.62521E+03 -1.81320E+03  7.98610E+02  7.85780E+02  6.26015E+02  2.01573E+03 -1.96285E+02  1.38621E+03
 -2.56689E+02  8.80745E+02 -1.18960E+03  6.47563E+01  8.85145E+01  9.36889E+02 -6.89448E+02  1.00784E+03
 -4.00143E+02  1.10813E+03 -2.43009E+03  5.49654E+02 -3.07308E+03 -1.78422E+00 -4.17794E+03 -1.83103E+03
 -1.51242E+03 -4.34106E+03  1.17608E+03 -4.67989E+03  2.62273E+03 -4.27241E+03  4.00514E+03 -1.40890E+03
  4.17455E+03  2.56400E+02  2.08475E+03  2.37896E+03 -2.02829E+02  2.68355E+03 -1.22047E+03  2.29321E+03
 -1.84987E+03  1.27351E+03 -6.49229E+02 -2.38374E+02 -4.36848E+02  1.06706E+02 -2.62542E+02  9.61967E+01
 -1.35031E+03  2.52466E+02 -1.17913E+03 -3.24941E+01 -2.47052E+01 -8.30777E+02 -2.35420E+02 -1.30729E+03
  2.20529E+03 -1.06577E+03  1.13183E+03 -1.03635E+02  1.38292E+03  1.47958E+03 -1.66168E+02  3.03558E+03
 -1.61086E+03  3.64476E+03 -2.32116E+03  1.77491E+03 -3.12251E+03 -2.05089E+02 -2.52727E+03 -1.62557E+03
 -1.57244E+03 -2.97864E+03  3.33859E+02 -2.35488E+03  1.42671E+03 -1.22816E+03  1.84705E+03 -1.60115E+02
  1.06636E+03  2.99661E+02  1.44132E+02  5.04041E+02 -6.98041E+02  2.78249E+02 -2.51133E+02 -3.24755E+02
  8.46573E+02  4.57765E+01  3.77896E+02  9.28102E+02  4.67273E+02  8.12435E+02  3.78534E+02  7.22439E+02
 -9.07192E+02  1.01615E+03 -1.41503E+03 -5.15622E+02 -1.12935E+03 -1.21896E+03  3.34103E+02 -1.92588E+03
  1.06452E+03 -1.01886E+03  1.18240E+03  3.59598E+02  1.92181E+03  2.87257E+02  9.75311E+02  1.31225E+03
  8.14881E+02  1.47007E+03 -6.57903E+02  8.98460E+02 -9.67916E+02  6.49372E+02 -1.19398E+03  1.61519E+02
 -2.00736E+02 -4.76910E+02 -2.50455E+02  3.26237E+02 -5.93684E+02  1.63620E+02 -9.01113E+02 -4.72666E+02
 -1.53912E+03 -2.49899E+02 -9.88373E+02 -1.51343E+03  7.06750E+02 -2.28563E+03  1.25858E+03 -6.91873E+02
  1.25948E+03  3.28133E+02  1.35112E+02  4.42530E+02  1.96143E+02  1.23968E+03 -1.28045E+03  1.05849E+03
