 $NMID ID='MM_0lb_SNR400_18hz_g50_99.RAW', FMTDAT='(8E13.5)'
 TRAMP=1., VOLUME=1. $END
  3.09934E+05  4.18034E+02  3.37204E+05  2.50559E+05  8.46822E+04  3.37559E+05 -1.32176E+05  2.50466E+05
 -1.89894E+05  8.21715E+04 -1.11112E+05 -3.29992E+04  1.93113E+03 -5.00327E+04  5.38098E+04 -1.72101E+02
  3.52571E+04  5.30693E+04 -1.66886E+04  7.48458E+04 -6.05042E+04  6.33452E+04 -8.37442E+04  3.16774E+04
 -8.04491E+04 -1.14462E+04 -5.63262E+04 -5.05623E+04 -1.51891E+04 -6.89229E+04  2.70186E+04 -4.49825E+04
  3.90909E+04  3.83266E+03  1.56957E+04  4.75182E+04 -3.41255E+04  4.64286E+04 -6.56510E+04 -6.89650E+02
 -5.16192E+04 -5.59336E+04 -6.43830E+03 -7.54762E+04  3.33666E+04 -5.41041E+04  4.66316E+04 -1.62535E+04
  4.21830E+04  1.07527E+04  3.12316E+04  2.46391E+04  1.56634E+04  2.84216E+04 -4.98248E+03  2.69692E+04
 -2.21693E+04  1.29816E+04 -1.85619E+04 -4.69793E+03  5.42930E+03 -7.43871E+03  2.14434E+04  1.08731E+04
  7.31208E+03  3.39569E+04 -3.05203E+04  3.41922E+04 -6.11431E+04  1.88821E+03 -5.58268E+04 -4.15919E+04
 -1.24459E+04 -6.12921E+04  3.84389E+04 -4.36371E+04  5.66010E+04 -1.97642E+03  3.30129E+04  3.09777E+04
 -5.79000E+03  3.37958E+04 -2.88961E+04  1.40243E+04 -2.84118E+04 -5.15295E+03 -1.50435E+04 -1.04795E+04
 -7.16766E+03 -1.17106E+04 -5.41786E+02 -1.76248E+04  6.85668E+03 -2.27472E+04  1.51734E+04 -1.36666E+04
  1.23298E+04  4.68255E+03 -6.50892E+03  1.27877E+04 -1.99998E+04 -3.22366E+03 -8.24341E+03 -3.10802E+04
  2.17200E+04 -4.14467E+04  4.59665E+04 -1.88816E+04  4.27332E+04  1.87261E+04  1.45428E+04  4.17210E+04
 -1.55048E+04  3.19553E+04 -2.36054E+04  1.44443E+03 -8.41285E+03 -2.70383E+04  2.02473E+04 -3.19686E+04
  3.85319E+04 -7.88091E+03  3.17169E+04  2.29645E+04  1.64099E+04  4.37656E+04 -7.80412E+03  4.64612E+04
 -2.92724E+04  3.07775E+04 -3.84522E+04  8.12473E+03 -3.95965E+04 -1.55321E+04 -2.21366E+04 -3.44546E+04
  6.83133E+03 -3.50529E+04  2.95598E+04 -1.28862E+04  2.79094E+04  1.07329E+04  3.28207E+03  1.77201E+04
 -1.32111E+04  7.66476E+03 -9.18586E+03 -8.20797E+03  6.07050E+03 -1.04736E+04  1.72996E+04  6.45292E+03
  1.20458E+04  2.18381E+04 -6.41539E+03  2.37900E+04 -2.19554E+04  9.55694E+03 -2.59822E+04 -6.28435E+03
 -1.78432E+04 -1.63422E+04 -6.05350E+03 -1.73133E+04  3.36760E+03 -1.57655E+04  1.35754E+04 -1.47210E+04
  2.22535E+04 -1.15498E+04  2.86748E+04  1.89334E+03  2.16076E+04  1.68034E+04  3.74934E+03  3.29652E+04
 -1.62185E+04  2.76816E+04 -2.63898E+04  1.00617E+04 -1.94731E+04 -1.02603E+04 -3.82121E+03 -1.32368E+04
  2.53206E+03 -3.99544E+03 -3.39326E+03  5.52112E+03 -1.37035E+04  5.56556E+03 -1.37913E+04 -4.94571E+03
 -8.79831E+03 -1.61928E+04  4.70133E+03 -1.93806E+04  1.29891E+04 -1.50761E+04  1.54944E+04 -1.90187E+03
  9.08456E+03  1.15812E+04 -9.09277E+02  1.60607E+04 -1.06344E+04  9.12396E+03 -1.59249E+04 -3.43492E+03
 -1.19977E+04 -1.45357E+04 -1.58340E+03 -1.95379E+04  8.79897E+03 -1.62929E+04  1.67965E+04 -8.18250E+03
  1.51464E+04  5.18653E+01  1.10332E+04  4.30397E+03  5.09658E+03  8.28806E+02  7.48957E+03 -1.64433E+03
  1.45035E+04  2.69054E+03  1.58432E+04  1.36140E+04  9.80531E+03  2.58999E+04 -3.18924E+03  2.75988E+04
 -1.64046E+04  2.14331E+04 -2.55824E+04  1.01126E+04 -2.67138E+04 -1.94222E+03 -2.27005E+04 -1.50230E+04
 -1.00256E+04 -2.18052E+04  7.21035E+03 -2.01082E+04  1.77662E+04 -1.13916E+04  1.62700E+04  3.69281E+03
  6.55320E+03  1.17615E+04 -6.68281E+03  1.09593E+04 -1.38120E+04  2.56328E+03 -1.03607E+04 -8.48921E+03
 -1.19484E+02 -1.27060E+04  6.73497E+03 -9.99831E+03  7.72001E+03 -1.53160E+03  1.34343E+03  5.12510E+03
 -5.86301E+03  1.77949E+03 -4.02721E+03 -4.33602E+03  3.74337E+02 -1.08388E+04  7.95898E+03 -1.05360E+04
  1.29513E+04 -4.72245E+03  1.31172E+04  2.69562E+03  1.08347E+04  9.68552E+03  5.09154E+03  1.49404E+04
 -2.07834E+03  1.67217E+04 -1.00242E+04  1.06165E+04 -1.18033E+04  3.02429E+03 -8.84338E+03 -1.94449E+03
 -4.70631E+03 -3.30589E+03 -9.84877E+02  1.56772E+03 -1.98208E+03  1.97780E+03 -3.63199E+03  3.38430E+03
 -8.87747E+03 -5.32970E+02 -9.21474E+03 -7.34407E+03 -4.33814E+03 -1.16847E+04  3.99591E+03 -9.43409E+03
  7.81785E+03 -3.65306E+03  5.79975E+03  2.19730E+03 -5.83534E+01  3.22967E+03 -3.33217E+03 -1.19853E+02
 -3.73112E+03 -5.22234E+03 -6.94532E+02 -7.92489E+03  4.15556E+03 -7.98739E+03  1.09018E+04 -4.42007E+03
  1.23355E+04  6.46394E+02  9.30173E+03  7.11278E+03  2.08439E+03  9.39606E+03 -5.28816E+03  8.65262E+03
 -7.40881E+03  3.12491E+03 -3.55778E+03 -1.11065E+03  1.29371E+03 -2.02524E+03  5.11750E+03 -5.86382E+02
  4.37095E+03  3.45546E+03  7.56294E+02  6.51242E+03 -4.64796E+03  6.30720E+03 -8.97733E+03  1.97594E+03
 -4.79025E+03 -4.15269E+03  2.95045E+02 -6.86624E+03  4.12988E+03 -3.39864E+03  3.95171E+03  1.57286E+03
  7.04703E+02  2.53095E+03 -4.31086E+03  4.63943E+03 -5.16417E+03  2.33458E+03 -4.42475E+03 -1.12958E+03
 -2.84678E+03 -6.47491E+03  1.44798E+03 -7.29331E+03  6.19169E+03 -5.40070E+03  6.78303E+03  9.09744E+02
  4.61566E+03  5.82793E+03 -1.24530E+02  7.73541E+03 -5.32967E+03  4.31711E+03 -5.37507E+03 -3.18870E+02
 -5.28633E+03 -5.72536E+03 -1.38672E+03 -5.32666E+03  2.31242E+03 -4.70271E+03  2.86060E+03 -3.04326E+03
  2.75275E+03  4.62838E+02  5.54112E+01  1.08391E+03  5.95961E+02 -5.46209E+02 -3.00280E+02 -2.19530E+03
  3.69274E+03 -5.20508E+02  5.73733E+03  5.71221E+02  6.04646E+03  3.80042E+03  5.88191E+03  7.68762E+03
 -1.21086E+03  9.00694E+03 -8.13169E+03  6.73600E+03 -1.01850E+04  1.15819E+03 -8.97970E+03 -2.46354E+03
 -4.16808E+03 -7.29560E+03 -1.80754E+02 -5.39732E+03  2.58119E+03 -2.15795E+03  1.60859E+03 -2.40329E+03
  1.59470E+03 -7.67532E+02  1.98960E+03 -2.62429E+03  4.06777E+03 -1.37797E+03  3.58625E+03  7.87739E+02
  4.87677E+03  1.21909E+03  8.55084E+02  4.18118E+03 -1.62911E+03  3.50449E+03 -5.04039E+03  2.59017E+03
 -5.65802E+03 -1.26186E+03 -2.38507E+03 -3.90627E+03 -2.11832E+02 -5.26930E+03  3.37633E+03 -5.45346E+03
  5.33631E+03 -3.41167E+03  7.61382E+03  5.33777E+02  5.40907E+03  4.30818E+03  1.21769E+03  6.40742E+03
 -2.76010E+03  6.50525E+03 -3.40095E+03  1.95145E+03 -1.85918E+03 -1.13212E+03 -4.52993E+02 -6.77990E+02
 -4.81310E+02  1.13870E+02 -3.88385E+02  1.44224E+03 -2.66952E+03  1.29967E+03 -3.85910E+03 -6.22879E+02
 -1.24490E+03 -4.39103E+03  7.44480E+02 -4.72943E+03  2.72988E+03 -4.28412E+03  3.78551E+03 -5.11772E+02
  4.37402E+03  2.41299E+03  2.08554E+03  2.80014E+03 -9.16073E+02  4.33760E+03 -3.29578E+03  2.54150E+03
 -4.78917E+03 -1.05740E+02 -3.82507E+03 -2.46728E+03  3.54427E+02 -3.26002E+03  1.67195E+03 -2.57960E+03
  2.87019E+03 -1.17133E+03  2.20092E+03  6.23707E+02 -2.38122E+02  2.20563E+03  9.24377E+02  5.19271E+02
  2.12577E+03  3.45688E+02  1.45406E+03  4.20717E+02  7.08382E+02  2.38916E+03  1.18744E+03  2.17463E+03
 -1.45172E+03  3.04156E+03 -2.89225E+03  4.68955E+03 -3.53845E+03  1.63078E+03 -4.08866E+03 -1.00521E+03
 -1.44440E+03 -3.53499E+03  3.34806E+02 -5.10643E+03  1.73946E+03 -2.49745E+03  3.42370E+03 -9.83989E+02
  2.38825E+03  1.76163E+03 -1.67858E+02  2.93121E+03 -7.61047E+02  9.82884E+02 -1.23329E+03 -8.48435E+01
 -2.32231E+02 -1.47085E+03  1.00654E+03 -1.99288E+03  1.54054E+03 -7.15585E+02  1.77739E+03  2.10756E+02
  1.17941E+03  1.14467E+02  7.16989E+02 -1.42518E+02 -2.72935E+02  7.98142E+02  1.87747E+03 -3.67400E+02
 -4.08244E+02 -3.27621E+02  1.84981E+03  6.26245E+02  3.07177E+02  3.00832E+03 -4.56596E+02  2.93427E+03
 -1.99851E+03  9.72474E+02 -2.19406E+03  2.71309E+02 -2.14803E+03 -7.54315E+02 -5.19035E+02 -1.44708E+03
  4.49695E+02 -8.79475E+02  1.20077E+03 -7.46927E+02  4.45884E+02  1.60696E+03 -1.20857E+03  1.28409E+03
 -2.21589E+03  1.36102E+03 -1.68809E+03 -1.55647E+03 -8.60909E+02 -1.96324E+03  5.40247E+02 -1.90776E+03
  2.17465E+02 -7.21718E+02  1.03327E+03  8.99063E+01  8.68491E+02  4.60772E+02 -1.21085E+02  1.64131E+03
 -2.36933E+02  2.38259E+02 -1.12326E+03  9.60016E+01 -5.42312E+01 -1.13942E+03  1.81520E+03 -1.47159E+03
  1.21429E+03  7.01264E+02  3.02638E+03  1.26957E+03  1.06825E+03  2.14462E+03 -6.92111E+02  2.41254E+03
 -1.29187E+03  5.07613E+02 -1.32969E+03 -4.83574E+02 -7.25059E+02 -1.59386E+03  3.63986E+02 -8.68266E+01
  1.45639E+03 -9.97037E+02  1.15836E+03  8.65329E+02  3.10477E+02  1.31528E+03 -3.28326E+01  6.42347E+02
 -5.34584E+01  1.08877E+03 -2.24161E+02  6.30947E+01  1.26101E+02  3.63503E+02 -3.54604E+02  3.39639E+02
 -1.57376E+03  1.54794E+03 -2.00676E+03  9.58865E+02 -2.00526E+03  2.53847E+02 -2.65127E+03 -9.56563E+02
 -1.12598E+03 -2.74962E+03  6.75864E+02 -3.26483E+03  1.13425E+03 -2.83414E+03  3.44458E+03 -6.50074E+02
  2.63344E+03 -1.15219E+02  2.09421E+03  1.49061E+03 -6.82212E+02  1.19697E+03 -6.66215E+02  8.27343E+02
 -9.62945E+02  3.51067E+02 -5.55483E+02  1.79760E+02 -4.37701E+02  3.04666E+02 -8.00084E+02  1.23802E+01
 -1.18527E+03 -1.63244E+02 -8.49583E+02  2.69681E+01 -7.09376E+01 -5.05263E+02 -6.94536E+02 -1.18746E+03
  1.11738E+03 -6.52552E+02  6.35505E+02 -1.26238E+02  9.58756E+02  1.61461E+03 -8.60261E+02  1.26990E+03
 -1.28134E+03  1.89370E+03 -1.35034E+03  1.49821E+03 -1.94565E+03 -1.62658E+02 -9.43223E+02 -1.17694E+03
 -8.15187E+02 -2.08093E+03  3.46210E+02 -1.31502E+03  8.10152E+02 -4.57081E+02  4.99144E+02  1.46472E+02
  7.20319E+02  1.40893E+02  4.30700E+02  5.71546E+02 -7.28003E+02  1.90038E+02  5.37539E+01  1.59641E+02
  3.40405E+02  1.17854E+02  3.48644E+02  4.62363E+02 -2.90434E+01  9.00902E+02  7.27753E+02  2.61065E+02
 -7.56327E+02  5.59321E+02 -8.06688E+02  3.95514E+02 -8.80315E+02 -8.79038E+02 -4.71385E+02 -1.36002E+03
  1.70439E+02 -4.24378E+02  4.00989E+02 -1.64230E+01  1.13650E+03 -8.78775E+02  3.52112E+02  1.20403E+03
  2.58594E+02  5.17221E+02  8.18785E+01  1.15266E+03 -5.61456E+02  5.72252E+02 -5.21644E+02  2.72866E+02
 -5.58820E+02  2.04535E+02 -5.92951E+02  3.23872E+02 -5.57637E+02 -6.08489E+00 -4.08529E+02 -1.06988E+02
 -8.38323E+02  6.20036E+02 -5.10488E+02 -8.96576E+02  1.35995E+03 -1.63978E+03  8.79427E+02  1.68527E+02
  6.41573E+02 -1.89534E+02 -2.12293E+02  1.91473E+02  8.13456E+01  9.87369E+02 -3.67884E+02  8.42549E+01
