 $NMID ID='MM_0lb_SNR400_10hz_g40_86.RAW', FMTDAT='(8E13.5)'
 TRAMP=1., VOLUME=1. $END
  3.10109E+05  1.18009E+03  3.37604E+05  2.50423E+05  8.50858E+04  3.38541E+05 -1.32545E+05  2.51219E+05
 -1.90551E+05  8.40649E+04 -1.12093E+05 -3.21185E+04  5.40788E+02 -5.14054E+04  5.39706E+04 -6.71609E+02
  3.55025E+04  5.29560E+04 -1.65510E+04  7.65372E+04 -6.09127E+04  6.36570E+04 -8.41713E+04  3.16916E+04
 -8.17150E+04 -1.14365E+04 -5.82245E+04 -5.22228E+04 -1.50940E+04 -7.00626E+04  2.69836E+04 -4.58561E+04
  4.04434E+04  3.67327E+03  1.65133E+04  4.78811E+04 -3.44120E+04  4.81739E+04 -6.72619E+04  4.28381E+01
 -5.38870E+04 -5.80134E+04 -7.26434E+03 -7.86875E+04  3.49342E+04 -5.61221E+04  4.96625E+04 -1.76582E+04
  4.46138E+04  1.17429E+04  3.25267E+04  2.64253E+04  1.56896E+04  3.01806E+04 -4.82225E+03  2.72804E+04
 -2.27867E+04  1.17207E+04 -1.82267E+04 -5.83532E+03  6.56444E+03 -7.93053E+03  2.28379E+04  1.35785E+04
  7.62203E+03  3.73871E+04 -3.32724E+04  3.64826E+04 -6.49807E+04  2.07336E+03 -5.78181E+04 -4.39865E+04
 -1.20276E+04 -6.45594E+04  4.03605E+04 -4.57644E+04  5.92476E+04 -1.89715E+03  3.55430E+04  3.27304E+04
 -5.52258E+03  3.73352E+04 -2.99928E+04  1.71652E+04 -3.14632E+04 -4.32119E+03 -1.81049E+04 -1.20336E+04
 -9.07076E+03 -1.46605E+04 -5.64313E+02 -1.84039E+04  8.13950E+03 -2.40463E+04  1.53260E+04 -1.24795E+04
  1.10225E+04  6.09250E+03 -9.90834E+03  1.23817E+04 -2.27771E+04 -4.98083E+03 -8.67640E+03 -3.58379E+04
  2.43898E+04 -4.52920E+04  5.04722E+04 -2.09319E+04  4.71205E+04  1.99522E+04  1.63140E+04  4.60182E+04
 -1.64618E+04  3.48363E+04 -2.65273E+04  2.54381E+03 -1.11892E+04 -2.84868E+04  2.12002E+04 -3.54061E+04
  4.31836E+04 -9.11455E+03  3.90066E+04  2.42546E+04  2.03488E+04  4.96662E+04 -8.47842E+03  5.40001E+04
 -3.38988E+04  3.65802E+04 -4.53439E+04  1.08715E+04 -4.51305E+04 -1.76965E+04 -2.55307E+04 -4.05003E+04
  7.54082E+03 -3.97941E+04  3.34084E+04 -1.63605E+04  3.00150E+04  1.16744E+04  4.71704E+03  2.05295E+04
 -1.45001E+04  9.02908E+03 -1.04335E+04 -7.35638E+03  5.77973E+03 -1.10387E+04  1.88137E+04  5.65917E+03
  1.46461E+04  2.21622E+04 -5.75364E+03  2.67207E+04 -2.32930E+04  1.24679E+04 -3.00961E+04 -3.38845E+03
 -2.33157E+04 -1.80624E+04 -1.05753E+04 -2.25392E+04  4.23028E+03 -2.31522E+04  1.80001E+04 -2.08988E+04
  2.94293E+04 -1.35947E+04  3.55269E+04  3.90314E+03  2.58734E+04  2.18425E+04  4.81969E+03  3.88588E+04
 -1.94576E+04  3.15741E+04 -2.93614E+04  1.09279E+04 -2.11605E+04 -1.03440E+04 -4.76999E+03 -1.26953E+04
  1.69026E+03 -1.21973E+03 -6.56062E+03  7.71558E+03 -1.89012E+04  4.80200E+03 -1.88711E+04 -8.49826E+03
 -1.09423E+04 -2.15626E+04  5.90434E+03 -2.65924E+04  1.76619E+04 -1.84108E+04  2.13775E+04 -1.74644E+03
  1.21100E+04  1.52907E+04 -1.12992E+03  2.15468E+04 -1.54891E+04  1.26488E+04 -2.16514E+04 -4.14830E+03
 -1.58135E+04 -1.93602E+04 -1.89955E+03 -2.57835E+04  1.15805E+04 -2.14320E+04  2.17170E+04 -1.09499E+04
  2.08061E+04 -1.44164E+02  1.52605E+04  4.70216E+03  8.17805E+03  2.14632E+02  1.15777E+04 -1.81608E+03
  2.01112E+04  2.50342E+03  2.25181E+04  1.73182E+04  1.56702E+04  3.42278E+04 -3.00184E+03  3.99306E+04
 -2.34485E+04  3.38147E+04 -3.83690E+04  1.74802E+04 -3.99131E+04 -3.35512E+03 -3.25729E+04 -2.29221E+04
 -1.30443E+04 -3.31534E+04  1.17377E+04 -3.02617E+04  2.50823E+04 -1.40499E+04  2.25853E+04  6.74689E+03
  7.36917E+03  1.73438E+04 -1.07436E+04  1.44220E+04 -1.87159E+04  2.05059E+03 -1.43406E+04 -1.23977E+04
 -5.95184E+02 -1.82061E+04  9.49915E+03 -1.31175E+04  1.20318E+04 -8.60496E+02  2.83124E+03  7.76649E+03
 -7.39456E+03  3.53441E+03 -7.88018E+03 -6.27437E+03 -6.63558E+02 -1.67508E+04  1.06641E+04 -1.74416E+04
  2.01277E+04 -9.26480E+03  2.30790E+04  3.29602E+03  2.03861E+04  1.66840E+04  9.72343E+03  2.60453E+04
 -5.06863E+03  2.75878E+04 -1.73351E+04  1.74323E+04 -1.99958E+04  3.87764E+03 -1.37042E+04 -5.57291E+03
 -6.34987E+03 -5.49766E+03 -1.23037E+03  6.06958E+02 -2.10775E+03  3.81644E+03 -6.14206E+03  4.31169E+03
 -1.25048E+04 -1.43125E+03 -1.34126E+04 -1.14852E+04 -5.85943E+03 -1.75721E+04  5.76074E+03 -1.35624E+04
  1.12071E+04 -5.55018E+03  7.98418E+03  3.88443E+03  2.00537E+01  6.37321E+03 -7.80624E+03  8.45121E+02
 -6.21818E+03 -8.89177E+03 -1.04128E+03 -1.31392E+04  8.18515E+03 -1.39622E+04  1.80429E+04 -7.89736E+03
  2.04363E+04  2.33505E+03  1.49077E+04  1.29132E+04  3.04172E+03  1.64141E+04 -8.64505E+03  1.38268E+04
 -1.12201E+04  3.68500E+03 -5.83749E+03 -2.86430E+03  1.77041E+03 -4.04174E+03  7.70548E+03 -2.67735E+02
  6.91519E+03  6.14610E+03  1.01321E+03  1.15494E+04 -8.78844E+03  1.04546E+04 -1.36059E+04  3.05220E+03
 -9.26875E+03 -7.71259E+03  1.67924E+02 -1.16492E+04  7.10843E+03 -5.83012E+03  8.70552E+03  2.19857E+03
  1.85653E+03  8.32739E+03 -7.02941E+03  1.03136E+04 -1.15126E+04  4.08299E+03 -1.17715E+04 -3.07624E+03
 -7.02672E+03 -1.36454E+04  3.93397E+03 -1.53170E+04  1.35365E+04 -9.61542E+03  1.41519E+04  2.48027E+03
  9.17922E+03  1.10171E+04 -1.39171E+03  1.37535E+04 -1.00438E+04  7.63332E+03 -1.08529E+04 -1.11941E+03
 -9.60979E+03 -9.56305E+03 -1.17495E+03 -1.05668E+04  6.09330E+03 -8.64984E+03  6.74580E+03 -3.89039E+03
  4.12747E+03  2.27233E+03 -8.58180E+02  1.73882E+03 -6.45388E+01 -3.03090E+03  2.34210E+03 -6.90570E+03
  1.02553E+04 -4.26210E+03  1.33702E+04  1.60445E+03  1.38637E+04  9.27623E+03  9.69353E+03  1.86913E+04
 -4.43766E+03  2.01069E+04 -1.61541E+04  1.59802E+04 -2.22809E+04  2.85735E+03 -1.71925E+04 -7.87871E+03
 -8.67484E+03 -1.43642E+04 -9.25406E+02 -1.21915E+04  4.27205E+03 -6.58698E+03  4.84985E+03 -5.09288E+03
  3.31141E+03 -2.68107E+03  3.62154E+03 -3.97122E+03  5.13207E+03 -1.91675E+03  6.45877E+03 -1.94625E+03
  9.66292E+03  2.22730E+03  4.67621E+03  8.32863E+03 -1.05428E+03  9.51511E+03 -9.01140E+03  6.83178E+03
 -1.22892E+04 -1.36454E+03 -7.06740E+03 -8.19922E+03 -5.28317E+02 -1.34672E+04  7.79898E+03 -1.39328E+04
  1.38738E+04 -7.19588E+03  1.66730E+04  2.07625E+03  1.21080E+04  1.17211E+04  1.47371E+03  1.50816E+04
 -5.40456E+03  1.22463E+04 -8.72079E+03  4.79386E+03 -6.85143E+03 -2.22248E+03 -2.92209E+03 -2.06980E+03
 -1.14794E+03 -2.14833E+02 -2.65338E+03  3.10941E+03 -5.37772E+03  2.05452E+03 -8.56442E+03 -1.82926E+03
 -6.94639E+03 -8.53475E+03 -1.67608E+02 -1.20709E+04  7.64085E+03 -1.17646E+04  1.20974E+04 -3.36019E+03
  1.16347E+04  5.75032E+03  5.46774E+03  1.10425E+04 -2.03285E+03  1.24451E+04 -8.55626E+03  7.47758E+03
 -1.14144E+04  5.06343E+02 -9.42078E+03 -8.42559E+03 -1.67048E+03 -9.91962E+03  4.87601E+03 -7.37459E+03
  8.39393E+03 -2.17556E+03  5.27411E+03  1.33626E+03  1.36612E+03  3.40291E+03  1.38287E+03  1.80941E+03
  2.79452E+03  1.04740E+03  2.67086E+03  1.07660E+03  4.03703E+03  4.26132E+03  3.71198E+03  6.48022E+03
 -2.63602E+03  9.08846E+03 -8.91024E+03  1.04351E+04 -1.25420E+04  2.42506E+03 -1.38095E+04 -4.57472E+03
 -5.15043E+03 -1.24760E+04  1.97216E+03 -1.33831E+04  7.57950E+03 -9.47794E+03  1.03040E+04 -3.02461E+03
  8.53536E+03  4.80075E+03  1.87067E+03  6.92153E+03 -4.11807E+03  4.10022E+03 -5.18859E+03 -7.25631E+02
 -2.03727E+03 -4.77264E+03  2.82826E+03 -5.56764E+03  5.56743E+03 -3.36674E+03  4.75753E+03  1.02889E+03
  2.69849E+03  2.64910E+03  1.43860E+03  2.42768E+03 -8.49962E+02  1.65897E+03  1.54666E+03 -3.32404E+02
  1.54750E+03 -3.92181E+02  5.08085E+03  1.66689E+03  3.49769E+03  6.35700E+03 -1.26013E+03  9.16840E+03
 -6.22346E+03  5.91399E+03 -7.51338E+03  1.29730E+03 -6.40413E+03 -2.87705E+03 -2.75293E+03 -4.75318E+03
  5.27672E+02 -4.93187E+03  3.90343E+03 -2.45736E+03  2.63899E+03  2.66353E+03 -1.93934E+03  4.03832E+03
 -5.10709E+03  2.18830E+03 -5.84060E+03 -3.52744E+03 -3.02297E+03 -7.07545E+03  5.12488E+02 -6.77478E+03
  3.51444E+03 -2.85544E+03  4.82152E+03 -1.14651E+02  3.91715E+03  1.79872E+03  3.91194E+02  3.03431E+03
 -2.85000E+03  9.11898E+02 -2.74477E+03 -2.84132E+03  9.04591E+02 -4.79648E+03  6.60434E+03 -4.51230E+03
  6.88915E+03  4.76361E+02  7.96572E+03  5.46289E+03  2.17512E+03  8.49918E+03 -3.25423E+03  7.18641E+03
 -6.78528E+03  3.51568E+03 -6.85281E+03 -1.41986E+03 -3.13192E+03 -4.47339E+03  1.41122E+03 -5.15511E+03
  4.90146E+03 -2.36412E+03  4.63847E+03  1.60417E+03  1.47148E+03  5.14848E+03 -7.41410E+02  4.12834E+03
 -2.19475E+03  3.41936E+03 -1.72115E+03  6.23104E+02 -7.02039E+02  1.84864E+03 -7.05748E+02  1.54700E+03
 -1.56368E+03  3.28603E+03 -4.89578E+03  2.39464E+03 -7.96821E+03  5.62019E+02 -8.87663E+03 -5.43460E+03
 -4.85030E+03 -9.68002E+03  1.93092E+03 -1.29587E+04  7.46212E+03 -9.64492E+03  1.22810E+04 -4.57272E+03
  1.07864E+04  2.50348E+03  5.95386E+03  7.08159E+03  6.29551E+02  9.05379E+03 -2.92104E+03  5.83005E+03
 -4.64039E+03  1.91560E+03 -3.34879E+03 -7.24796E+02 -1.20068E+03 -4.67295E+02 -6.60804E+02 -3.41229E+02
 -1.34113E+03  4.39506E+02 -1.94993E+03 -1.81260E+02 -8.66905E+02 -1.88354E+03 -5.36008E+02 -2.44473E+03
  3.69428E+03 -2.74228E+03  4.90278E+03 -3.55711E+02  6.34031E+03  3.88346E+03  1.29351E+03  8.34159E+03
 -3.92726E+03  9.44883E+03 -9.46977E+03  5.98255E+03 -8.67521E+03 -8.30107E+02 -7.01409E+03 -6.25402E+03
 -2.88821E+03 -8.54304E+03  2.69046E+03 -6.88949E+03  4.39090E+03 -4.62451E+03  5.59195E+03  7.25724E+02
  3.14716E+03  2.02537E+03  1.62783E+02  2.50669E+03 -2.15478E+03 -4.05374E+02  5.73142E+02 -1.59241E+03
  2.62619E+03 -1.11995E+03  3.08401E+03  1.33956E+03  2.61688E+03  2.51187E+03  1.97212E+02  4.94456E+03
 -3.59883E+03  3.70642E+03 -6.38153E+03  1.21507E+03 -4.83445E+03 -4.45585E+03 -1.13925E+03 -7.48297E+03
  3.05982E+03 -4.57586E+03  5.93193E+03 -1.54365E+03  7.10254E+03  1.35980E+03  3.42003E+03  4.70781E+03
  1.37411E+03  4.68107E+03 -2.13255E+03  4.27877E+03 -3.52978E+03  1.67016E+03 -2.13020E+03 -2.64278E+02
 -1.38915E+03  5.30707E+02 -1.80003E+03  9.10417E+02 -2.63383E+03  5.84696E+02 -3.82193E+03 -9.11497E+02
 -4.00955E+03 -2.15554E+03 -1.63877E+03 -5.22275E+03  1.88489E+03 -5.89678E+03  4.97304E+03 -3.20625E+03
  5.46143E+03  9.01932E+02  2.41120E+03  4.36492E+03 -7.28517E+02  5.21287E+03 -4.16920E+03  3.66045E+03
