 $NMID ID='MM_0lb_SNR400_9hz_g40_72.RAW', FMTDAT='(8E13.5)'
 TRAMP=1., VOLUME=1. $END
  3.09686E+05  5.01292E+02  3.36886E+05  2.50617E+05  8.46212E+04  3.38131E+05 -1.32919E+05  2.52183E+05
 -1.90566E+05  8.27698E+04 -1.12102E+05 -3.25839E+04  1.15448E+03 -5.10654E+04  5.44927E+04 -1.84246E+02
  3.56228E+04  5.32958E+04 -1.63553E+04  7.53277E+04 -5.98877E+04  6.40264E+04 -8.54598E+04  3.31311E+04
 -8.10235E+04 -1.15979E+04 -5.73271E+04 -5.17052E+04 -1.52368E+04 -7.13217E+04  2.72003E+04 -4.57067E+04
  4.12534E+04  3.94149E+03  1.68806E+04  4.89542E+04 -3.48947E+04  4.84017E+04 -6.79917E+04  4.34833E+01
 -5.39679E+04 -5.76139E+04 -7.30715E+03 -7.91642E+04  3.46900E+04 -5.61863E+04  5.00848E+04 -1.83107E+04
  4.40995E+04  1.19027E+04  3.23334E+04  2.60165E+04  1.63053E+04  2.98269E+04 -5.27877E+03  2.79738E+04
 -2.25701E+04  1.17251E+04 -1.83900E+04 -5.59874E+03  7.60379E+03 -6.89963E+03  2.34365E+04  1.28073E+04
  6.96923E+03  3.67785E+04 -3.33951E+04  3.69284E+04 -6.45726E+04  2.58728E+03 -5.80821E+04 -4.43103E+04
 -1.27251E+04 -6.51216E+04  4.16123E+04 -4.69646E+04  6.00316E+04 -1.86998E+03  3.69633E+04  3.38076E+04
 -5.69251E+03  3.87722E+04 -3.21401E+04  1.86691E+04 -3.22867E+04 -3.64652E+03 -1.87979E+04 -1.23858E+04
 -1.00005E+04 -1.51574E+04 -4.11894E+02 -1.90576E+04  9.01075E+03 -2.35621E+04  1.56830E+04 -1.23098E+04
  1.10578E+04  5.72131E+03 -1.04151E+04  1.29726E+04 -2.23775E+04 -6.46913E+03 -8.86148E+03 -3.64208E+04
  2.45148E+04 -4.68229E+04  5.13024E+04 -2.15918E+04  4.73035E+04  2.11482E+04  1.75663E+04  4.67677E+04
 -1.62494E+04  3.54728E+04 -2.63896E+04  2.82824E+03 -1.10045E+04 -2.85769E+04  2.20734E+04 -3.59874E+04
  4.38796E+04 -1.12101E+04  3.89249E+04  2.42495E+04  2.13024E+04  5.03308E+04 -8.13731E+03  5.44295E+04
 -3.49276E+04  3.79206E+04 -4.64542E+04  1.10627E+04 -4.66164E+04 -1.86015E+04 -2.58371E+04 -4.07858E+04
  7.84396E+03 -4.07524E+04  3.42858E+04 -1.68284E+04  3.15150E+04  1.10155E+04  4.80867E+03  2.04719E+04
 -1.40162E+04  9.90556E+03 -1.14244E+04 -7.64039E+03  5.72689E+03 -1.11283E+04  1.82392E+04  6.36671E+03
  1.41914E+04  2.22683E+04 -5.32247E+03  2.68974E+04 -2.39396E+04  1.41930E+04 -3.10053E+04 -3.78944E+03
 -2.38673E+04 -1.83025E+04 -1.11844E+04 -2.44723E+04  4.91350E+03 -2.42896E+04  1.86646E+04 -2.26478E+04
  3.10235E+04 -1.33811E+04  3.72047E+04  4.95023E+03  2.62870E+04  2.26329E+04  4.88313E+03  4.05280E+04
 -1.95692E+04  3.23824E+04 -3.04270E+04  1.11675E+04 -2.31049E+04 -1.04367E+04 -4.69879E+03 -1.18749E+04
  1.06978E+03 -1.23778E+03 -6.72429E+03  7.94963E+03 -2.01046E+04  5.29933E+03 -1.95310E+04 -9.18003E+03
 -1.14925E+04 -2.27814E+04  5.69380E+03 -2.74732E+04  1.73965E+04 -1.93680E+04  2.24451E+04 -1.71326E+03
  1.40696E+04  1.59173E+04 -1.37645E+03  2.26910E+04 -1.58239E+04  1.21981E+04 -2.25655E+04 -4.07194E+03
 -1.63574E+04 -2.06705E+04 -2.03084E+03 -2.71156E+04  1.28380E+04 -2.29090E+04  2.36784E+04 -1.22727E+04
  2.07230E+04  2.67519E+02  1.48049E+04  4.81837E+03  8.42979E+03  1.39875E+03  1.21857E+04 -1.87755E+03
  2.11650E+04  2.74194E+03  2.36121E+04  1.77185E+04  1.66610E+04  3.59614E+04 -3.01189E+03  4.25181E+04
 -2.44408E+04  3.54429E+04 -4.01215E+04  1.81485E+04 -4.26301E+04 -3.12242E+03 -3.50137E+04 -2.49148E+04
 -1.37865E+04 -3.50601E+04  1.24522E+04 -3.09819E+04  2.72136E+04 -1.52886E+04  2.37482E+04  7.87102E+03
  8.98362E+03  1.76091E+04 -1.16127E+04  1.55212E+04 -1.85697E+04  2.64293E+03 -1.42892E+04 -1.22936E+04
 -3.44538E+02 -1.91368E+04  1.00859E+04 -1.39028E+04  1.22623E+04 -1.24964E+03  3.43024E+03  8.50579E+03
 -8.98721E+03  2.85814E+03 -8.19841E+03 -6.89198E+03 -1.79906E+03 -1.67464E+04  1.11409E+04 -1.84750E+04
  2.12073E+04 -1.08011E+04  2.43918E+04  3.94975E+03  2.21139E+04  1.78753E+04  9.49505E+03  2.78676E+04
 -5.55732E+03  2.88529E+04 -1.90754E+04  1.77155E+04 -2.14576E+04  4.17863E+03 -1.42257E+04 -5.45974E+03
 -5.67173E+03 -6.58488E+03 -1.30661E+03  4.08685E+02 -2.95813E+03  3.46266E+03 -7.24025E+03  4.86997E+03
 -1.32293E+04 -4.89775E+02 -1.41397E+04 -1.11120E+04 -5.80125E+03 -1.83395E+04  6.25148E+03 -1.54212E+04
  1.21487E+04 -6.14532E+03  8.94182E+03  4.18312E+03 -3.22595E+02  6.14408E+03 -7.94897E+03  3.21861E+02
 -6.23928E+03 -1.00515E+04 -1.19056E+03 -1.54917E+04  8.17578E+03 -1.60173E+04  1.93633E+04 -8.08686E+03
  2.21804E+04  1.83708E+03  1.65177E+04  1.35189E+04  3.12716E+03  1.86452E+04 -9.35152E+03  1.45327E+04
 -1.26181E+04  4.23837E+03 -6.25498E+03 -3.54972E+03  1.31696E+03 -4.47766E+03  8.73831E+03 -5.62569E+02
  7.85566E+03  6.72503E+03  1.24820E+03  1.23195E+04 -8.38756E+03  1.17062E+04 -1.42461E+04  2.77987E+03
 -1.02177E+04 -7.47078E+03  1.68812E+02 -1.31140E+04  8.56516E+03 -6.84668E+03  9.23095E+03  3.48834E+03
  1.64341E+03  9.08446E+03 -8.12917E+03  1.09276E+04 -1.28462E+04  5.09584E+03 -1.25133E+04 -5.27715E+03
 -8.10353E+03 -1.46198E+04  3.49658E+03 -1.73152E+04  1.38067E+04 -1.04182E+04  1.58143E+04  3.24498E+03
  1.02385E+04  1.26166E+04 -8.81643E+02  1.56678E+04 -1.09582E+04  7.71391E+03 -1.22004E+04 -1.34531E+03
 -1.07175E+04 -9.96737E+03 -2.08476E+03 -1.07684E+04  6.08128E+03 -9.76927E+03  6.82859E+03 -4.45800E+03
  5.02992E+03  2.44033E+03 -1.05832E+03  3.14449E+03 -3.36350E+02 -2.75911E+03  2.72129E+03 -6.67908E+03
  1.04676E+04 -4.38241E+03  1.56274E+04  1.19329E+03  1.47909E+04  1.00416E+04  9.95762E+03  1.97634E+04
 -4.36987E+03  2.28498E+04 -1.83982E+04  1.63501E+04 -2.44067E+04  3.57790E+03 -1.90779E+04 -8.31733E+03
 -1.09852E+04 -1.59798E+04 -3.57077E+02 -1.33578E+04  5.29077E+03 -7.82773E+03  4.23398E+03 -5.19786E+03
  4.01769E+03 -2.45854E+03  4.20523E+03 -3.61036E+03  5.11654E+03 -3.47583E+03  7.42248E+03 -9.60453E+02
  9.57320E+03  2.02067E+03  5.50899E+03  8.67441E+03 -2.01303E+03  1.12568E+04 -1.12368E+04  8.19787E+03
 -1.34928E+04 -1.35466E+03 -7.98057E+03 -9.79479E+03 -1.77229E+03 -1.51459E+04  8.36549E+03 -1.45617E+04
  1.57140E+04 -9.08289E+03  1.80831E+04  2.42853E+03  1.25432E+04  1.35317E+04  2.63185E+03  1.71991E+04
 -7.43767E+03  1.34300E+04 -1.02124E+04  4.66749E+03 -6.71260E+03 -1.48424E+03 -3.02051E+03 -2.25550E+03
 -1.74910E+03 -3.37961E+02 -1.92651E+03  3.33801E+03 -6.66633E+03  2.02264E+03 -9.28600E+03 -1.33336E+03
 -6.84605E+03 -9.74935E+03 -4.40587E+02 -1.40403E+04  8.52342E+03 -1.31671E+04  1.45333E+04 -3.77721E+03
  1.33144E+04  6.49832E+03  6.62416E+03  1.21453E+04 -1.81752E+03  1.45450E+04 -1.01632E+04  9.22624E+03
 -1.28686E+04  5.21372E+02 -1.05283E+04 -7.93713E+03 -2.17638E+03 -1.15943E+04  6.04063E+03 -7.73750E+03
  9.25463E+03 -2.79800E+03  6.04184E+03  2.22705E+03  2.33161E+03  3.39043E+03  1.72983E+03  2.14456E+03
  2.70139E+03  1.08656E+03  3.31167E+03  1.86243E+03  4.01514E+03  4.51148E+03  3.82494E+03  7.40691E+03
 -2.33347E+03  1.09958E+04 -9.67322E+03  1.09712E+04 -1.34761E+04  2.47188E+03 -1.43429E+04 -5.38085E+03
 -7.27407E+03 -1.39234E+04  1.63868E+03 -1.53335E+04  8.40210E+03 -9.37841E+03  1.23119E+04 -2.69961E+03
  8.55491E+03  4.76058E+03  1.84175E+03  8.46470E+03 -4.00165E+03  5.42848E+03 -5.88751E+03 -3.12555E+02
 -2.12629E+03 -5.91554E+03  2.60005E+03 -6.39867E+03  5.88369E+03 -2.76669E+03  5.28886E+03  1.37045E+03
  3.23395E+03  2.34925E+03  1.75916E+03  1.96970E+03 -1.33645E+03  2.73251E+03  1.41899E+03 -1.20384E+03
  1.96383E+03 -8.07670E+02  5.42622E+03  2.47735E+03  3.15422E+03  7.34583E+03 -6.18617E+02  9.70914E+03
 -6.88012E+03  5.76365E+03 -9.33976E+03  1.93637E+03 -8.07511E+03 -3.01889E+03 -2.20798E+03 -5.74342E+03
  1.33103E+03 -4.56732E+03  3.57411E+03 -2.50190E+03  2.65471E+03  2.88310E+03 -2.06849E+03  4.36547E+03
 -6.03227E+03  2.50658E+03 -6.57593E+03 -3.77209E+03 -3.59333E+03 -7.43260E+03  9.66232E+02 -7.74707E+03
  4.78554E+03 -4.67467E+03  6.43089E+03 -4.15928E+02  5.36671E+03  1.62870E+03  5.16574E+02  3.88633E+03
 -3.49244E+03  1.01404E+03 -4.20501E+03 -2.97083E+03  1.62311E+03 -6.23457E+03  7.38277E+03 -5.96862E+03
  8.86169E+03  2.51184E+02  9.49047E+03  6.30179E+03  2.46017E+03  9.46957E+03 -3.13966E+03  8.87477E+03
 -7.34356E+03  3.55909E+03 -8.34661E+03 -7.38388E+02 -4.02753E+03 -6.28579E+03  8.15223E+02 -5.30668E+03
  5.72059E+03 -2.76281E+03  5.14386E+03  2.99419E+03  2.01473E+03  5.10282E+03 -3.19485E+02  4.93191E+03
 -2.62777E+03  2.66598E+03 -1.58252E+03  8.09233E+02 -6.65848E+02  7.18738E+02 -1.15063E+03  1.60388E+03
 -2.61059E+03  2.57905E+03 -6.43879E+03  3.44925E+03 -9.65069E+03 -3.74729E+02 -1.09846E+04 -6.04024E+03
 -5.22961E+03 -1.26785E+04  2.37399E+03 -1.44201E+04  9.05236E+03 -1.15686E+04  1.37550E+04 -3.53705E+03
  1.21224E+04  2.45453E+03  7.62755E+03  8.38159E+03  9.45972E+02  9.82316E+03 -4.37170E+03  6.66997E+03
 -5.83453E+03  2.35378E+03 -3.08324E+03 -8.65281E+02 -1.24426E+03 -8.26315E+02 -3.55518E+02  1.31084E+02
 -1.82268E+03 -2.12947E+02 -2.16659E+03  5.29374E+02 -5.25702E+02 -2.65450E+03  1.55455E+02 -2.90214E+03
  4.14362E+03 -3.27289E+03  5.66731E+03 -6.50551E+02  6.36593E+03  5.45159E+03  2.04891E+03  9.36757E+03
 -4.13251E+03  1.12497E+04 -1.04350E+04  7.26466E+03 -1.20381E+04 -8.26233E+02 -8.59024E+03 -7.15544E+03
 -3.44970E+03 -1.00159E+04  2.57792E+03 -9.75516E+03  5.65878E+03 -5.09104E+03  6.65691E+03  8.37966E+02
  3.47679E+03  3.02582E+03 -9.26532E+02  2.49625E+03 -2.03763E+03 -9.79345E+02 -3.32802E+02 -2.47186E+03
  3.38577E+03 -9.68261E+02  3.50411E+03  6.32791E+02  2.90097E+03  3.78148E+03  5.22302E+02  5.72491E+03
 -4.80830E+03  3.65769E+03 -6.17857E+03  2.55089E+02 -5.66403E+03 -4.61523E+03 -9.50472E+02 -8.16645E+03
  3.91200E+03 -6.87223E+03  7.34096E+03 -2.16721E+03  7.72308E+03  1.40340E+03  4.62469E+03  5.94196E+03
  1.35541E+03  6.22394E+03 -3.56394E+03  3.75641E+03 -4.09559E+03  2.39661E+03 -3.62982E+03  6.32061E+02
 -1.80470E+03 -7.07389E+02 -1.53341E+03  5.44486E+02 -3.86422E+03  1.04466E+03 -4.35181E+03 -1.01362E+03
 -5.00766E+03 -3.39349E+03 -1.07036E+03 -6.55438E+03  2.60694E+03 -7.20413E+03  6.39498E+03 -3.54250E+03
  7.26391E+03  1.17146E+03  2.72850E+03  4.05623E+03 -8.42917E+01  7.01123E+03 -5.38250E+03  4.66045E+03
