 $NMID ID='MM_0lb_SNR400_15hz_g50_40.RAW', FMTDAT='(8E13.5)'
 TRAMP=1., VOLUME=1. $END
  3.09880E+05  1.11088E+03  3.37725E+05  2.50544E+05  8.48397E+04  3.37707E+05 -1.32486E+05  2.50961E+05
 -1.90680E+05  8.31108E+04 -1.11345E+05 -3.27319E+04  8.06728E+02 -5.02378E+04  5.35873E+04  1.63040E+02
  3.52975E+04  5.29847E+04 -1.75007E+04  7.56029E+04 -6.04167E+04  6.36783E+04 -8.42135E+04  3.15843E+04
 -8.10498E+04 -1.16810E+04 -5.73810E+04 -5.13277E+04 -1.53240E+04 -6.97896E+04  2.73426E+04 -4.53795E+04
  3.96010E+04  3.77643E+03  1.60555E+04  4.85648E+04 -3.40212E+04  4.71046E+04 -6.73268E+04 -1.95181E+02
 -5.31230E+04 -5.71865E+04 -7.53725E+03 -7.67151E+04  3.37058E+04 -5.48084E+04  4.75960E+04 -1.79676E+04
  4.27194E+04  1.14102E+04  3.11017E+04  2.49742E+04  1.57918E+04  2.92825E+04 -5.74266E+03  2.76041E+04
 -2.18489E+04  1.23781E+04 -1.85251E+04 -4.40813E+03  5.54226E+03 -7.14227E+03  2.23040E+04  1.19380E+04
  7.29686E+03  3.50173E+04 -3.18605E+04  3.49248E+04 -6.30711E+04  1.42535E+03 -5.68601E+04 -4.26308E+04
 -1.22745E+04 -6.28760E+04  3.94529E+04 -4.46887E+04  5.79476E+04 -2.29747E+03  3.39035E+04  3.22892E+04
 -5.75773E+03  3.57108E+04 -2.99157E+04  1.56116E+04 -3.00322E+04 -4.98021E+03 -1.63698E+04 -1.06147E+04
 -8.52907E+03 -1.30191E+04 -4.17273E+02 -1.77050E+04  6.76428E+03 -2.30142E+04  1.53509E+04 -1.37299E+04
  1.11649E+04  4.99380E+03 -8.03060E+03  1.34294E+04 -2.06851E+04 -4.17177E+03 -8.09411E+03 -3.27735E+04
  2.23704E+04 -4.30506E+04  4.74575E+04 -1.90860E+04  4.39527E+04  1.91188E+04  1.52161E+04  4.35752E+04
 -1.58210E+04  3.32568E+04 -2.53404E+04  1.98730E+03 -9.41819E+03 -2.74694E+04  2.11988E+04 -3.33507E+04
  4.05326E+04 -9.02896E+03  3.48521E+04  2.32717E+04  1.81095E+04  4.59311E+04 -8.47166E+03  4.89783E+04
 -3.15259E+04  3.27430E+04 -4.11279E+04  9.90262E+03 -4.15388E+04 -1.64546E+04 -2.32432E+04 -3.71984E+04
  7.01120E+03 -3.71971E+04  3.09886E+04 -1.49681E+04  2.95748E+04  1.15235E+04  3.75059E+03  1.92686E+04
 -1.32188E+04  8.10105E+03 -1.03562E+04 -7.85677E+03  6.19084E+03 -1.07656E+04  1.75870E+04  5.92483E+03
  1.28853E+04  2.16814E+04 -6.21074E+03  2.47748E+04 -2.25260E+04  1.12504E+04 -2.75951E+04 -5.15643E+03
 -1.99021E+04 -1.73635E+04 -7.45726E+03 -2.03456E+04  4.05650E+03 -1.92573E+04  1.51346E+04 -1.73883E+04
  2.52088E+04 -1.26315E+04  3.18409E+04  2.62136E+03  2.26675E+04  1.88402E+04  4.16218E+03  3.55512E+04
 -1.79508E+04  2.93672E+04 -2.77973E+04  1.01599E+04 -2.03469E+04 -9.88985E+03 -3.99936E+03 -1.38244E+04
  2.33422E+03 -3.23487E+03 -4.38753E+03  6.47867E+03 -1.54435E+04  4.89277E+03 -1.53126E+04 -6.78030E+03
 -1.01531E+04 -1.81505E+04  5.49028E+03 -2.25601E+04  1.46792E+04 -1.60946E+04  1.78131E+04 -1.19965E+03
  1.12605E+04  1.30286E+04 -1.39586E+03  1.83475E+04 -1.26154E+04  1.04340E+04 -1.81529E+04 -4.05174E+03
 -1.34950E+04 -1.67764E+04 -1.95818E+03 -2.18806E+04  1.02587E+04 -1.80148E+04  1.85340E+04 -9.12972E+03
  1.72807E+04  4.61677E+02  1.24991E+04  4.10222E+03  6.41130E+03  8.94688E+02  9.83436E+03 -1.60286E+03
  1.69281E+04  2.88955E+03  1.84774E+04  1.47114E+04  1.22170E+04  2.96084E+04 -3.29615E+03  3.30171E+04
 -1.92391E+04  2.53700E+04 -3.02914E+04  1.33169E+04 -3.22947E+04 -1.76409E+03 -2.63681E+04 -1.83021E+04
 -1.13116E+04 -2.60916E+04  8.75101E+03 -2.34104E+04  1.98944E+04 -1.19195E+04  1.88332E+04  4.76767E+03
  7.07519E+03  1.40459E+04 -8.46709E+03  1.20132E+04 -1.58070E+04  2.62932E+03 -1.15221E+04 -9.72696E+03
  5.91396E+01 -1.46583E+04  7.34392E+03 -1.07349E+04  9.58391E+03 -1.40607E+03  2.05288E+03  6.31566E+03
 -6.45418E+03  2.40891E+03 -5.28402E+03 -5.27227E+03 -4.22851E+02 -1.29201E+04  8.85890E+03 -1.27853E+04
  1.61031E+04 -7.14473E+03  1.60335E+04  3.51183E+03  1.43114E+04  1.24529E+04  6.94637E+03  1.87178E+04
 -3.27991E+03  2.09651E+04 -1.30548E+04  1.30346E+04 -1.48463E+04  3.15802E+03 -1.08251E+04 -3.39590E+03
 -4.61727E+03 -4.34198E+03 -9.27797E+02  8.13170E+02 -2.13928E+03  2.74795E+03 -4.62040E+03  4.21878E+03
 -9.72904E+03 -6.61668E+02 -1.05555E+04 -9.28598E+03 -4.09457E+03 -1.43772E+04  4.30813E+03 -1.07426E+04
  9.15692E+03 -5.04266E+03  6.43190E+03  3.12066E+03  1.14566E+03  3.83942E+03 -4.79260E+03 -3.84904E+02
 -4.72647E+03 -7.05489E+03 -7.56289E+02 -9.82217E+03  5.68130E+03 -1.06569E+04  1.35796E+04 -5.33319E+03
  1.53685E+04  1.29560E+03  1.12266E+04  8.96081E+03  1.91809E+03  1.13284E+04 -7.21632E+03  1.00463E+04
 -8.24761E+03  2.71503E+03 -4.11524E+03 -1.45458E+03  1.23729E+03 -2.83508E+03  5.59541E+03 -6.22829E+02
  4.92573E+03  4.05427E+03  1.37384E+03  8.53514E+03 -6.26152E+03  8.28582E+03 -1.04430E+04  2.07812E+03
 -6.53174E+03 -4.77082E+03  5.90510E+02 -8.12491E+03  5.84065E+03 -4.19379E+03  5.47364E+03  2.03319E+03
  1.14974E+03  5.11102E+03 -5.45947E+03  7.03092E+03 -7.64624E+03  2.84049E+03 -7.19682E+03 -1.82213E+03
 -4.51179E+03 -9.07386E+03  1.87863E+03 -1.04315E+04  8.73611E+03 -5.98396E+03  9.84054E+03  1.83417E+03
  6.32957E+03  8.40337E+03 -9.08372E+02  9.65256E+03 -6.21221E+03  5.28478E+03 -7.98903E+03 -3.86709E+02
 -7.26917E+03 -7.17592E+03 -1.70207E+03 -7.28085E+03  3.17893E+03 -6.06579E+03  4.29889E+03 -3.05543E+03
  2.99268E+03  7.53221E+02  1.39370E+02  1.17003E+03  1.22983E+02 -1.56825E+03  1.18125E+03 -3.24655E+03
  5.69642E+03 -1.75534E+03  8.68930E+03  1.31450E+03  8.13296E+03  5.21088E+03  6.32429E+03  1.09709E+04
 -2.21950E+03  1.34592E+04 -1.14769E+04  9.43185E+03 -1.46321E+04  2.29525E+03 -1.15954E+04 -4.78192E+03
 -5.78150E+03 -9.86509E+03 -4.52215E+02 -7.29367E+03  2.44671E+03 -3.58599E+03  2.18741E+03 -3.08746E+03
  1.92337E+03 -1.84853E+03  2.83549E+03 -3.19212E+03  4.16714E+03 -1.94206E+03  4.86435E+03  7.73465E+01
  6.13142E+03  1.54786E+03  1.70724E+03  5.38811E+03 -1.77509E+03  4.73483E+03 -6.06623E+03  4.46411E+03
 -7.99930E+03 -1.51046E+03 -3.43159E+03 -5.50540E+03  5.02651E+02 -8.15225E+03  4.54451E+03 -7.76502E+03
  7.77740E+03 -4.97217E+03  1.00091E+04  5.10089E+02  7.20961E+03  6.90062E+03  1.11116E+03  9.12735E+03
 -3.37323E+03  8.52859E+03 -5.31078E+03  2.73237E+03 -3.03929E+03 -9.08298E+02 -1.36517E+03 -5.71526E+02
 -7.36762E+02 -1.23563E+02 -1.43787E+03  2.35095E+03 -3.21063E+03  1.71528E+03 -5.65719E+03 -6.85335E+02
 -3.90153E+03 -5.37369E+03  8.99739E+02 -7.16295E+03  4.12641E+03 -6.46479E+03  6.47436E+03 -2.18413E+03
  6.58504E+03  3.36048E+03  2.90555E+03  5.49331E+03 -1.35675E+03  7.11368E+03 -4.90083E+03  4.12371E+03
 -6.58416E+03  5.70385E+02 -5.23409E+03 -4.00180E+03 -9.64954E+02 -5.39998E+03  3.34404E+03 -3.49087E+03
  4.28643E+03 -1.82054E+03  3.12050E+03  8.83535E+02  1.45995E+03  1.91987E+03  1.13683E+03  1.19145E+03
  1.71521E+03  4.62514E+02  1.47194E+03  1.30779E+03  1.97649E+03  3.00676E+03  1.81120E+03  3.20631E+03
 -1.41591E+03  4.66756E+03 -4.20899E+03  6.14082E+03 -6.31848E+03  1.27949E+03 -6.37674E+03 -1.27469E+03
 -3.12279E+03 -6.36640E+03  7.63123E+02 -7.14691E+03  3.41994E+03 -4.72921E+03  5.46614E+03 -1.36383E+03
  3.42932E+03  2.69130E+03  5.58497E+02  4.08743E+03 -9.73913E+02  2.26027E+03 -2.62412E+03 -6.74073E+01
 -1.02420E+03 -2.79194E+03  2.21284E+03 -2.39554E+03  2.75644E+03 -1.68900E+03  2.16763E+03  8.39963E+02
  1.23711E+03  8.96418E+02  7.30310E+02  2.01259E+02 -5.04977E+02  1.15465E+03  1.98332E+03 -1.92450E+02
  8.44753E+02 -2.93691E+02  2.66251E+03  9.10671E+02  7.62609E+02  3.86985E+03 -5.72102E+02  5.08141E+03
 -2.63528E+03  2.48771E+03 -3.45790E+03  9.32856E+02 -3.62076E+03 -1.41524E+03 -7.36997E+02 -2.52688E+03
  9.45941E+02 -3.05420E+03  1.88019E+03 -1.22050E+03  1.86188E+03  1.79614E+03 -1.21925E+03  1.86220E+03
 -2.91277E+03  9.63872E+02 -2.59400E+03 -2.11856E+03 -1.69235E+03 -3.32492E+03  2.21660E+02 -2.58859E+03
  1.16267E+03 -1.35340E+03  1.58179E+03  1.66006E+02  1.67675E+03  8.19673E+02  8.83806E+01  2.38026E+03
 -1.49910E+03  1.41543E+01 -1.60045E+03 -4.54908E+02  5.28631E+02 -2.20106E+03  3.48866E+03 -2.22436E+03
  2.59420E+03  8.31694E+01  4.00877E+03  2.52358E+03  1.29367E+03  4.00448E+03 -1.48809E+03  3.22467E+03
 -2.81315E+03  1.20481E+03 -2.73063E+03 -5.73959E+02 -1.48306E+03 -2.38589E+03  4.76368E+02 -1.76926E+03
  2.27224E+03 -1.00829E+03  1.93340E+03  1.09529E+03  1.06391E+03  1.64245E+03 -4.13751E+02  2.53723E+03
 -1.19912E+03  1.69889E+03 -7.92866E+02  2.27618E+02  7.02456E+02  8.88549E+02 -4.75387E+02  1.00969E+03
 -1.30492E+03  2.17639E+03 -2.44404E+03  7.98319E+02 -3.94203E+03 -2.14827E+02 -4.09083E+03 -2.81874E+03
 -1.77350E+03 -4.47710E+03  3.96850E+02 -5.26654E+03  2.72959E+03 -4.38775E+03  4.64423E+03 -1.67093E+03
  4.30902E+03  7.05665E+02  2.67238E+03  2.85716E+03 -4.40733E+02  3.26313E+03 -1.58254E+03  1.95912E+03
 -2.03389E+03  2.24496E+02 -1.21763E+03 -7.38911E+02 -8.77636E+02  5.10558E+02 -5.54475E+02 -3.13607E+02
 -1.82151E+03  3.16247E+01 -9.49436E+02 -2.63029E+02  1.91623E+02 -1.34309E+03 -1.39329E+03 -1.69371E+03
  1.87700E+03 -1.09069E+03  1.39199E+03  4.28275E+02  2.55920E+03  1.52873E+03  1.88465E+02  2.93630E+03
 -1.79611E+03  3.71444E+03 -3.31486E+03  2.66536E+03 -4.21162E+03 -1.61863E+02 -2.69982E+03 -1.87944E+03
 -1.83341E+03 -2.77536E+03  1.03004E+03 -2.88016E+03  1.60028E+03 -1.58458E+03  1.58095E+03  2.05316E+02
  7.19428E+02  5.83787E+02 -2.61745E+02  9.23604E+02 -7.37292E+02  4.97613E+01  8.98616E+01 -7.06813E+02
  1.05411E+03  7.00531E+02  1.32023E+03  8.58655E+02  3.37730E+02  7.88913E+02  8.35737E+02  1.83730E+03
 -1.13151E+03  1.44576E+03 -2.22691E+03 -3.75256E+02 -1.55157E+03 -1.74730E+03 -1.18905E+02 -1.51100E+03
  1.24281E+03 -1.63974E+03  2.29597E+03 -5.68097E+02  1.82174E+03 -7.98113E+00  1.01468E+03  1.71498E+03
  5.20010E+02  2.09215E+03 -1.13042E+03  1.11966E+03 -7.40868E+02  5.57911E+02 -1.00725E+03 -1.54151E+02
 -3.10177E+02  5.78016E+02 -5.95557E+02  1.49714E+02 -9.73883E+02  1.13062E+02 -1.76147E+03 -2.17902E+02
 -1.59402E+03 -2.64243E+01 -6.52570E+02 -1.92383E+03  9.11597E+02 -2.47888E+03  2.06178E+03 -4.63371E+02
  1.65870E+03  1.14174E+02  7.19089E+02  1.24018E+03 -1.64734E+02  1.93168E+03 -1.23477E+03  8.63407E+02
