 $NMID ID='MM_0lb_SNR400_18hz_g50_28.RAW', FMTDAT='(8E13.5)'
 TRAMP=1., VOLUME=1. $END
  3.09187E+05 -4.70436E+02  3.37649E+05  2.50515E+05  8.41558E+04  3.37497E+05 -1.32370E+05  2.50645E+05
 -1.89793E+05  8.25252E+04 -1.11529E+05 -3.27000E+04  1.15250E+03 -5.03525E+04  5.35359E+04 -1.68112E+02
  3.54279E+04  5.25088E+04 -1.66539E+04  7.51899E+04 -6.03116E+04  6.29688E+04 -8.34803E+04  3.17560E+04
 -8.02906E+04 -1.11545E+04 -5.69230E+04 -5.02204E+04 -1.48372E+04 -6.87708E+04  2.68189E+04 -4.51136E+04
  3.95266E+04  4.50234E+03  1.57238E+04  4.73040E+04 -3.43409E+04  4.63297E+04 -6.58741E+04 -2.74955E+02
 -5.25142E+04 -5.65113E+04 -6.51136E+03 -7.56935E+04  3.31409E+04 -5.31234E+04  4.70371E+04 -1.68674E+04
  4.15596E+04  1.09778E+04  3.08251E+04  2.45824E+04  1.55636E+04  2.86770E+04 -4.97222E+03  2.64888E+04
 -2.19310E+04  1.23893E+04 -1.89266E+04 -4.34003E+03  4.87114E+03 -7.80977E+03  2.15524E+04  1.14219E+04
  6.85511E+03  3.38941E+04 -3.04241E+04  3.39405E+04 -6.12361E+04  2.50322E+03 -5.54828E+04 -4.13904E+04
 -1.21522E+04 -6.11091E+04  3.86106E+04 -4.37818E+04  5.64104E+04 -1.35478E+03  3.22402E+04  3.04871E+04
 -6.54937E+03  3.38776E+04 -2.83044E+04  1.39012E+04 -2.75719E+04 -5.75609E+03 -1.50502E+04 -9.86379E+03
 -7.40240E+03 -1.18536E+04 -8.09815E+02 -1.70439E+04  6.66365E+03 -2.22026E+04  1.49370E+04 -1.38631E+04
  1.20123E+04  4.35054E+03 -7.01767E+03  1.31529E+04 -2.00348E+04 -3.06630E+03 -7.94758E+03 -3.09819E+04
  2.12613E+04 -4.10748E+04  4.57672E+04 -1.88871E+04  4.24482E+04  1.87132E+04  1.45502E+04  4.27214E+04
 -1.54153E+04  3.21204E+04 -2.38432E+04  1.31809E+03 -8.31872E+03 -2.68435E+04  2.02962E+04 -3.19147E+04
  3.85493E+04 -7.74352E+03  3.20194E+04  2.27719E+04  1.64129E+04  4.40081E+04 -7.53904E+03  4.60097E+04
 -2.86764E+04  3.05727E+04 -3.84881E+04  8.68675E+03 -3.88769E+04 -1.56211E+04 -2.16948E+04 -3.51395E+04
  6.92714E+03 -3.43339E+04  2.95902E+04 -1.31364E+04  2.70333E+04  1.05649E+04  2.74760E+03  1.83134E+04
 -1.33221E+04  7.99343E+03 -9.74499E+03 -8.35276E+03  6.32951E+03 -1.03281E+04  1.72712E+04  5.87275E+03
  1.23128E+04  2.17320E+04 -7.08114E+03  2.35536E+04 -2.16027E+04  9.47085E+03 -2.60504E+04 -5.83703E+03
 -1.75161E+04 -1.66360E+04 -6.02470E+03 -1.76254E+04  4.10854E+03 -1.54489E+04  1.30379E+04 -1.48582E+04
  2.23729E+04 -1.26009E+04  2.93002E+04  1.74115E+03  2.15047E+04  1.71672E+04  3.99251E+03  3.33497E+04
 -1.63059E+04  2.81154E+04 -2.63285E+04  9.66481E+03 -1.98805E+04 -1.02072E+04 -3.99927E+03 -1.38160E+04
  2.29955E+03 -4.11289E+03 -3.23499E+03  5.47430E+03 -1.37747E+04  5.19521E+03 -1.41604E+04 -4.96506E+03
 -9.63673E+03 -1.59907E+04  4.46703E+03 -1.98022E+04  1.33560E+04 -1.40981E+04  1.47938E+04 -1.81387E+03
  9.32056E+03  1.15145E+04 -6.63395E+02  1.57626E+04 -1.05703E+04  8.50049E+03 -1.59768E+04 -4.12071E+03
 -1.19451E+04 -1.47624E+04 -1.63300E+03 -1.94200E+04  9.12124E+03 -1.60053E+04  1.64757E+04 -7.62398E+03
  1.52559E+04  4.68033E+02  1.08497E+04  3.90346E+03  5.51163E+03  5.62316E+02  8.22537E+03 -1.26775E+03
  1.46581E+04  2.14661E+03  1.55953E+04  1.35386E+04  1.02541E+04  2.60502E+04 -2.96478E+03  2.77529E+04
 -1.59300E+04  2.10953E+04 -2.55089E+04  1.01790E+04 -2.58873E+04 -2.01162E+03 -2.26053E+04 -1.48787E+04
 -1.04858E+04 -2.09665E+04  7.10239E+03 -1.98886E+04  1.76467E+04 -1.12578E+04  1.62101E+04  3.99112E+03
  6.70667E+03  1.10299E+04 -7.03866E+03  1.04603E+04 -1.43244E+04  2.72539E+03 -1.04934E+04 -8.21361E+03
 -2.14565E+02 -1.24890E+04  6.14720E+03 -9.24640E+03  8.02659E+03 -1.12851E+03  1.38357E+03  5.42044E+03
 -6.02558E+03  6.81365E+02 -4.04424E+03 -4.95699E+03  4.62203E+02 -1.05822E+04  7.99260E+03 -1.07159E+04
  1.25377E+04 -5.25808E+03  1.30246E+04  2.60983E+03  1.09290E+04  1.01866E+04  5.35709E+03  1.53053E+04
 -1.91741E+03  1.73197E+04 -1.07647E+04  1.07281E+04 -1.13594E+04  2.70258E+03 -8.95481E+03 -2.31412E+03
 -5.21839E+03 -3.29689E+03 -4.71057E+02  1.19574E+03 -1.89294E+03  1.84844E+03 -4.52634E+03  3.25289E+03
 -7.97231E+03 -5.72653E+02 -9.19371E+03 -7.34263E+03 -4.29566E+03 -1.21494E+04  3.91133E+03 -8.82022E+03
  8.07751E+03 -3.65077E+03  5.27703E+03  2.32861E+03  6.65813E+02  3.30222E+03 -3.20626E+03  2.17580E+02
 -3.88185E+03 -5.97368E+03 -7.35400E+02 -8.06838E+03  4.33163E+03 -7.89547E+03  1.06927E+04 -3.92561E+03
  1.24690E+04  5.68417E+02  9.44479E+03  7.19952E+03  1.83652E+03  9.45794E+03 -5.38599E+03  8.68549E+03
 -6.70874E+03  2.99293E+03 -3.61661E+03 -9.02023E+02  1.64559E+03 -2.03252E+03  4.61416E+03 -5.98326E+02
  4.44035E+03  3.52196E+03  1.06282E+03  6.70555E+03 -4.11133E+03  6.31142E+03 -8.53012E+03  1.62063E+03
 -5.04364E+03 -3.64650E+03  3.67735E+02 -7.10686E+03  4.73808E+03 -3.96394E+03  3.29586E+03  1.32665E+03
  3.71029E+02  3.41257E+03 -4.09499E+03  5.44607E+03 -5.92835E+03  2.34100E+03 -4.51562E+03 -1.31044E+03
 -3.20321E+03 -6.14291E+03  1.57983E+03 -8.48029E+03  6.27754E+03 -4.87305E+03  7.34876E+03  1.37519E+03
  5.05440E+03  5.47764E+03 -1.71725E+02  7.40867E+03 -5.90427E+03  4.13399E+03 -5.42005E+03 -7.51412E+02
 -6.27405E+03 -5.14526E+03 -1.32348E+03 -5.34707E+03  2.97122E+03 -5.02536E+03  2.87445E+03 -2.55267E+03
  2.69580E+03  1.80853E+02  1.05165E+02  1.44362E+03  3.00650E+02 -2.91102E+02  4.33689E+02 -2.36002E+03
  3.72882E+03 -1.21674E+03  5.62805E+03  5.12543E+02  5.56921E+03  3.54124E+03  5.29000E+03  7.90762E+03
 -1.10179E+03  8.82247E+03 -8.33054E+03  6.59528E+03 -1.00183E+04  1.27008E+03 -8.41055E+03 -2.21472E+03
 -3.90432E+03 -6.67237E+03 -9.13214E+02 -5.10980E+03  1.97009E+03 -2.12403E+03  1.32763E+03 -2.44324E+03
  1.25673E+03 -1.53393E+03  1.84537E+03 -2.73634E+03  3.86784E+03 -1.49388E+03  3.48503E+03  2.20833E+02
  5.04467E+03  1.18240E+03  1.29367E+03  3.86785E+03 -1.13197E+03  3.02119E+03 -4.71895E+03  3.24170E+03
 -5.32263E+03 -1.28492E+03 -1.45482E+03 -3.45017E+03  3.46249E+02 -4.88357E+03  3.34533E+03 -5.64447E+03
  5.33773E+03 -2.80078E+03  6.89168E+03  3.61054E+02  5.13482E+03  4.91483E+03  1.18705E+03  6.90374E+03
 -2.33931E+03  6.13443E+03 -3.90505E+03  2.13897E+03 -1.76264E+03 -8.99013E+02 -7.54821E+02 -8.91759E+02
 -7.19624E+02 -4.30033E+01 -8.38425E+02  2.06597E+03 -2.38549E+03  1.22887E+03 -4.83405E+03 -2.42219E+02
 -2.07152E+03 -4.18111E+03  8.81281E+02 -5.40351E+03  3.16333E+03 -4.40278E+03  3.81790E+03 -1.37578E+03
  4.27206E+03  2.33017E+03  1.93052E+03  3.38333E+03 -5.19350E+02  4.36568E+03 -3.22280E+03  2.78659E+03
 -4.60984E+03  2.97344E+02 -3.56081E+03 -2.71526E+03 -6.54363E+02 -3.53344E+03  2.12495E+03 -2.69480E+03
  3.07409E+03 -1.53780E+03  2.23860E+03  4.18264E+02  6.40798E+01  1.34486E+03  6.65301E+02  3.84330E+02
  1.55391E+03  8.46267E+02  1.14169E+03  9.59794E+02  1.11268E+03  2.58770E+03  1.60648E+03  2.42162E+03
 -1.69513E+03  3.15739E+03 -2.95275E+03  4.45560E+03 -3.71935E+03  1.34031E+03 -4.09148E+03 -2.42065E+02
 -1.97037E+03 -3.43873E+03  2.60350E+02 -4.83982E+03  1.83101E+03 -2.75270E+03  3.48876E+03 -1.20758E+03
  3.42720E+03  1.62037E+03  7.66393E+02  3.06484E+03 -9.79432E+02  1.62110E+03 -9.32166E+02  5.46946E+01
 -1.19818E+03 -1.15662E+03  1.24428E+03 -1.70013E+03  1.59965E+03 -1.79149E+03  1.68060E+03  1.02676E+02
  3.05846E+02  3.60768E+02  7.46805E+02 -6.12576E+02 -4.51871E+02  4.90551E+02  8.26590E+02  5.02536E+01
  6.92190E+02  1.81000E+02  2.14869E+03  6.30753E+02  4.72106E+02  3.27114E+03 -2.99922E+02  3.06341E+03
 -1.25263E+03  1.25551E+03 -2.32527E+03 -3.05701E+01 -1.96122E+03 -6.84151E+02 -2.87441E+02 -1.36123E+03
  4.15822E+02 -1.35701E+03  1.15850E+03 -4.37879E+02  7.60630E+02  8.85516E+02 -5.47835E+02  1.28922E+03
 -2.05323E+03  4.14333E+02 -1.38487E+03 -1.65496E+03 -7.64203E+02 -2.69090E+03  7.66056E+02 -1.17103E+03
  5.10091E+02 -6.95851E+02  1.43307E+03 -4.18462E+01  1.49111E+03 -4.23583E+02 -1.55290E+02  1.37731E+03
 -4.94582E+01 -5.21691E+02 -1.00330E+03 -6.44728E+02  3.45381E+02 -1.58291E+03  1.55125E+03 -1.03567E+03
  1.45712E+03  3.95667E+02  2.84377E+03  9.56474E+02  9.87389E+02  1.97914E+03  4.75246E-01  2.35515E+03
 -1.32309E+03  2.68558E+02 -9.70236E+02 -4.58776E+02 -1.04403E+03 -9.72284E+02 -4.11882E-01 -6.62481E+02
  1.48299E+03 -1.06086E+03  1.15448E+03  5.76757E+01 -2.13024E+02  7.62493E+02  2.03373E+02  1.42122E+03
 -5.84145E+02  9.08476E+02 -1.94690E+02  6.61122E+02 -1.51736E+02  4.01389E+02 -2.95331E+02  1.36279E+02
 -9.35252E+02  7.89482E+02 -2.08959E+03  1.90954E+02 -1.61435E+03  4.71400E+01 -2.44677E+03 -1.12302E+03
 -1.34099E+03 -2.64425E+03  2.77971E+02 -2.98631E+03  1.03996E+03 -2.38582E+03  3.42152E+03 -1.18789E+03
  2.30373E+03 -3.26453E+02  1.25876E+03  1.32906E+03 -2.94025E+02  1.19812E+03 -3.88053E+02  1.16641E+03
 -1.34540E+03  6.14717E+02 -4.46653E+02 -4.13990E+02 -7.04135E+02 -2.91248E+01 -6.87427E+02 -1.16298E+02
 -1.57182E+03 -6.40243E+02 -7.90389E+02 -3.02274E+02  1.75300E+02 -3.86604E+02 -5.10415E+02 -8.85001E+02
  1.02899E+03 -6.37545E+02  6.33891E+02  1.44131E+02  1.20181E+03  3.38961E+02 -5.38149E+02  1.74407E+03
 -8.54891E+02  2.30582E+03 -2.16268E+03  1.35824E+03 -1.94912E+03 -3.23499E+01 -1.26121E+03 -1.23513E+03
 -1.05182E+03 -1.13225E+03  7.73081E+02 -1.15803E+03  8.91908E+02 -3.61916E+02  6.55266E+02  1.99850E+01
  1.40159E+03  2.60763E+02 -2.96278E+02  4.07313E+02 -7.29254E+01 -1.23094E+02 -1.69930E+02 -3.83120E+02
  4.45400E+02  1.05641E+02  6.78139E+02  7.06955E+02  5.82947E+02  6.99630E+02  8.68538E+02  3.66280E+02
 -5.41199E+02  4.45908E+02 -7.04523E+02  2.36297E+01 -8.46530E+02 -6.15398E+02  3.51941E+02 -1.50717E+03
  7.28204E+02 -8.23990E+02  4.19468E+02 -5.13440E+02  1.32963E+03 -7.45086E+02 -1.50651E+02  9.56356E+02
  3.85365E+02  6.25947E+02  1.03010E+01  7.44857E+02 -9.21497E+02  8.81402E+02 -5.12153E+02  2.42252E+01
 -1.39208E+02 -4.37668E+02 -8.38362E+02 -3.12745E+02 -6.16817E+02  5.52485E+02 -1.48632E+03 -9.33794E+01
 -9.64882E+02  9.46902E+02 -3.85336E+01 -9.16304E+02  6.92351E+02 -1.33777E+03  1.02815E+03 -3.00484E+02
  5.99681E+02  1.99428E+02 -4.32859E+02  2.64791E+02 -1.23285E+02  9.02624E+02 -1.51249E+02  9.06336E+02
