 $NMID ID='MM_0lb_SNR400_8hz_g40_37.RAW', FMTDAT='(8E13.5)'
 TRAMP=1., VOLUME=1. $END
  3.10643E+05  3.67655E+02  3.37709E+05  2.50788E+05  8.52382E+04  3.38577E+05 -1.32909E+05  2.52347E+05
 -1.91010E+05  8.45399E+04 -1.12374E+05 -3.23891E+04  5.37204E+02 -5.03524E+04  5.34862E+04  1.55433E+02
  3.50223E+04  5.29844E+04 -1.59977E+04  7.53784E+04 -6.14479E+04  6.49394E+04 -8.45186E+04  3.17121E+04
 -8.24688E+04 -1.24090E+04 -5.86796E+04 -5.31556E+04 -1.49806E+04 -7.15581E+04  2.71650E+04 -4.67567E+04
  4.06009E+04  4.46435E+03  1.67234E+04  4.92908E+04 -3.49072E+04  4.81335E+04 -6.80097E+04  2.38488E+01
 -5.49148E+04 -5.80125E+04 -7.42399E+03 -7.91376E+04  3.43708E+04 -5.69584E+04  4.95256E+04 -1.79959E+04
  4.50135E+04  1.11710E+04  3.27529E+04  2.64628E+04  1.63442E+04  3.03633E+04 -5.72651E+03  2.75971E+04
 -2.27157E+04  1.20450E+04 -1.86575E+04 -5.85736E+03  6.46064E+03 -7.68610E+03  2.40147E+04  1.32697E+04
  7.76222E+03  3.69251E+04 -3.33588E+04  3.67770E+04 -6.52870E+04  3.14737E+03 -5.86429E+04 -4.46758E+04
 -1.36012E+04 -6.63654E+04  4.09644E+04 -4.68150E+04  6.08437E+04 -1.99569E+03  3.67807E+04  3.43682E+04
 -5.45890E+03  3.99379E+04 -3.23245E+04  1.81134E+04 -3.35013E+04 -3.16268E+03 -1.87434E+04 -1.19950E+04
 -9.38564E+03 -1.48288E+04 -1.05425E+02 -1.98516E+04  7.79072E+03 -2.44083E+04  1.61651E+04 -1.25281E+04
  1.01617E+04  6.22808E+03 -1.04118E+04  1.29715E+04 -2.39226E+04 -6.98088E+03 -8.48668E+03 -3.68759E+04
  2.44610E+04 -4.71983E+04  5.12761E+04 -2.14530E+04  4.90430E+04  2.10151E+04  1.74376E+04  4.77278E+04
 -1.64318E+04  3.63652E+04 -2.84045E+04  2.53199E+03 -1.14535E+04 -2.98775E+04  2.06791E+04 -3.66496E+04
  4.39676E+04 -1.04733E+04  4.00383E+04  2.53931E+04  2.09855E+04  5.12688E+04 -8.12847E+03  5.58438E+04
 -3.51017E+04  3.86616E+04 -4.77898E+04  1.06418E+04 -4.79674E+04 -1.86646E+04 -2.55746E+04 -4.29034E+04
  7.37308E+03 -4.21703E+04  3.44470E+04 -1.77516E+04  3.26339E+04  1.06080E+04  4.80614E+03  2.05888E+04
 -1.41421E+04  9.56671E+03 -1.18758E+04 -8.81189E+03  5.66695E+03 -1.14785E+04  1.92361E+04  5.37369E+03
  1.47760E+04  2.27676E+04 -5.95324E+03  2.66657E+04 -2.27515E+04  1.42865E+04 -3.14832E+04 -2.99061E+03
 -2.53076E+04 -1.85264E+04 -1.16754E+04 -2.43068E+04  4.84177E+03 -2.56245E+04  1.96328E+04 -2.37170E+04
  3.30310E+04 -1.42336E+04  3.79093E+04  5.41587E+03  2.72212E+04  2.52835E+04  3.76732E+03  4.08402E+04
 -1.99580E+04  3.39560E+04 -3.08663E+04  1.18370E+04 -2.22227E+04 -1.02159E+04 -5.24637E+03 -1.24746E+04
 -2.90798E+00 -8.73770E+02 -8.26810E+03  8.09671E+03 -1.99662E+04  5.39996E+03 -2.04333E+04 -9.56580E+03
 -1.23381E+04 -2.32360E+04  6.25200E+03 -2.78414E+04  1.89711E+04 -2.00379E+04  2.22542E+04 -1.97163E+03
  1.37904E+04  1.61998E+04 -9.89774E+02  2.37110E+04 -1.73762E+04  1.25886E+04 -2.40773E+04 -4.09985E+03
 -1.77311E+04 -2.05632E+04 -2.42167E+03 -2.81893E+04  1.23516E+04 -2.31569E+04  2.37591E+04 -1.26786E+04
  2.15811E+04 -6.80363E+02  1.53410E+04  5.23782E+03  8.18274E+03  1.59494E+03  1.29630E+04 -1.89985E+03
  2.23204E+04  2.53306E+03  2.55117E+04  1.77761E+04  1.71230E+04  3.78995E+04 -3.22253E+03  4.44601E+04
 -2.53280E+04  3.69351E+04 -4.33955E+04  1.95212E+04 -4.50720E+04 -3.28602E+03 -3.65883E+04 -2.70649E+04
 -1.35302E+04 -3.79027E+04  1.32298E+04 -3.34394E+04  2.82072E+04 -1.50929E+04  2.42593E+04  7.93448E+03
  8.38960E+03  1.91830E+04 -1.25633E+04  1.62357E+04 -2.07889E+04  2.44358E+03 -1.53693E+04 -1.28320E+04
 -3.86786E+02 -1.99315E+04  1.09903E+04 -1.41019E+04  1.32702E+04 -1.53200E+03  3.34127E+03  9.50351E+03
 -8.20841E+03  3.72862E+03 -8.78311E+03 -8.00444E+03 -1.94267E+03 -1.85115E+04  1.22422E+04 -2.06081E+04
  2.23344E+04 -1.03824E+04  2.62807E+04  3.69054E+03  2.33010E+04  1.91430E+04  1.02625E+04  2.89314E+04
 -5.94279E+03  3.20587E+04 -2.05906E+04  2.01265E+04 -2.25638E+04  4.45743E+03 -1.61972E+04 -6.42519E+03
 -7.15113E+03 -7.35995E+03 -1.25513E+03  5.66287E+02 -2.61302E+03  4.17047E+03 -7.60012E+03  4.38781E+03
 -1.39844E+04 -1.18338E+02 -1.49590E+04 -1.19225E+04 -6.11615E+03 -2.00502E+04  6.75821E+03 -1.60135E+04
  1.27999E+04 -6.97713E+03  9.38211E+03  4.76066E+03 -8.14483E+00  6.20957E+03 -7.18152E+03 -3.03210E+01
 -7.24978E+03 -1.00580E+04 -1.57928E+03 -1.57019E+04  9.23475E+03 -1.65909E+04  2.04187E+04 -9.15357E+03
  2.36698E+04  1.76021E+03  1.68435E+04  1.45290E+04  3.38544E+03  1.97100E+04 -1.03712E+04  1.53493E+04
 -1.24906E+04  4.41152E+03 -7.82131E+03 -3.23065E+03  2.99680E+03 -4.74306E+03  8.15862E+03 -1.15413E+03
  6.92076E+03  6.26513E+03  1.48526E+03  1.28632E+04 -1.00948E+04  1.20665E+04 -1.63888E+04  3.22138E+03
 -1.15015E+04 -8.60130E+03  5.14800E+02 -1.41865E+04  8.92474E+03 -6.98002E+03  1.01263E+04  4.13575E+03
  1.65924E+03  1.05013E+04 -8.82675E+03  1.18413E+04 -1.42843E+04  5.65052E+03 -1.38410E+04 -5.07014E+03
 -8.21859E+03 -1.56964E+04  3.87885E+03 -1.91902E+04  1.59121E+04 -1.14648E+04  1.77059E+04  1.94941E+03
  1.12845E+04  1.28911E+04 -2.10416E+03  1.66246E+04 -1.18009E+04  8.62383E+03 -1.38261E+04 -1.52687E+03
 -1.07414E+04 -1.08841E+04 -1.34583E+03 -1.22691E+04  6.74822E+03 -9.76556E+03  8.07657E+03 -3.68489E+03
  5.25840E+03  1.56329E+03 -1.56409E+03  2.23289E+03  6.92295E+01 -3.00992E+03  3.15122E+03 -7.29412E+03
  1.21900E+04 -5.59585E+03  1.70405E+04  1.36676E+03  1.59434E+04  1.06336E+04  9.26533E+03  2.20175E+04
 -5.14549E+03  2.53992E+04 -2.02413E+04  1.88084E+04 -2.75372E+04  2.78302E+03 -2.12736E+04 -8.46831E+03
 -9.80141E+03 -1.80476E+04 -1.20314E+03 -1.56666E+04  6.35475E+03 -8.83964E+03  4.99508E+03 -5.16003E+03
  4.25534E+03 -2.86323E+03  3.67748E+03 -4.09325E+03  6.34447E+03 -4.05976E+03  8.11495E+03 -1.02154E+03
  1.19847E+04  3.33242E+03  6.47806E+03  9.62480E+03 -2.37306E+03  1.24589E+04 -1.14456E+04  9.64896E+03
 -1.50088E+04 -1.41774E+03 -9.60179E+03 -1.12698E+04 -1.68655E+03 -1.68828E+04  9.17700E+03 -1.64725E+04
  1.71263E+04 -9.49202E+03  2.04931E+04  3.33950E+03  1.45596E+04  1.36011E+04  2.36835E+03  1.90040E+04
 -7.33957E+03  1.45672E+04 -9.86706E+03  6.21806E+03 -7.78398E+03 -1.47264E+03 -3.22465E+03 -2.64029E+03
 -1.24404E+03 -1.18579E+01 -1.93465E+03  2.76249E+03 -7.05538E+03  1.89268E+03 -1.08755E+04 -1.09270E+03
 -7.61807E+03 -1.03264E+04  2.13026E-02 -1.58658E+04  9.36438E+03 -1.48137E+04  1.56545E+04 -3.70576E+03
  1.58384E+04  8.88339E+03  6.59974E+03  1.46819E+04 -3.50506E+03  1.53719E+04 -1.08732E+04  1.04595E+04
 -1.47737E+04  3.63345E+02 -1.16070E+04 -9.65378E+03 -1.39863E+03 -1.34717E+04  7.36370E+03 -9.83341E+03
  9.49263E+03 -3.74138E+03  6.51243E+03  3.04109E+03  2.84128E+03  4.75552E+03  1.04681E+03  1.04953E+03
  2.86840E+03  1.70785E+03  3.17119E+03  1.04756E+03  4.63981E+03  6.32726E+03  4.36128E+03  8.38110E+03
 -3.35600E+03  1.22439E+04 -1.18389E+04  1.24061E+04 -1.63265E+04  3.00613E+03 -1.64755E+04 -6.61749E+03
 -8.10785E+03 -1.58666E+04  2.12764E+03 -1.73490E+04  9.95612E+03 -1.13978E+04  1.31307E+04 -2.92622E+03
  1.01808E+04  5.02315E+03  1.95925E+03  9.39804E+03 -4.59950E+03  6.09020E+03 -6.75438E+03 -1.16391E+03
 -3.29882E+03 -7.39714E+03  3.53442E+03 -7.03044E+03  6.27792E+03 -3.11287E+03  6.15613E+03  1.59466E+03
  3.94168E+03  3.31266E+03  7.59124E+02  3.20249E+03 -4.10319E+02  2.71741E+03  1.88455E+03 -5.22701E+02
  2.49145E+03 -5.09423E+02  6.42874E+03  3.00219E+03  4.06134E+03  8.68191E+03 -1.47461E+03  1.12745E+04
 -7.93155E+03  7.68041E+03 -1.05561E+04  2.31447E+03 -8.87214E+03 -2.80185E+03 -3.87679E+03 -7.13437E+03
  1.09415E+03 -6.99400E+03  3.96777E+03 -3.71445E+03  3.26416E+03  3.96252E+03 -1.23101E+03  4.96117E+03
 -6.59767E+03  3.50466E+03 -7.69074E+03 -3.75816E+03 -5.57103E+03 -9.06216E+03  2.10975E+03 -1.01884E+04
  5.55645E+03 -5.19173E+03  5.83918E+03 -8.64876E+02  4.36930E+03  2.32427E+03  1.86982E+03  4.56736E+03
 -3.63695E+03  8.26969E+02 -4.08215E+03 -3.13232E+03  8.40892E+02 -7.06567E+03  7.96786E+03 -5.24131E+03
  1.05926E+04  8.74943E+02  9.71871E+03  7.27742E+03  2.93746E+03  1.15174E+04 -3.83880E+03  1.03125E+04
 -8.99252E+03  4.54381E+03 -9.40068E+03 -1.24879E+03 -5.68984E+03 -7.00888E+03  2.18192E+03 -6.77019E+03
  6.77532E+03 -3.45326E+03  6.05041E+03  3.28314E+03  1.65945E+03  6.59477E+03 -6.46531E+02  4.68777E+03
 -2.65574E+03  3.13138E+03 -2.26502E+03  6.32901E+02 -9.52031E+02  1.44931E+03 -1.75623E+03  2.44951E+03
 -3.76284E+03  3.97451E+03 -7.98534E+03  3.59244E+03 -1.05272E+04 -6.20959E+02 -1.23543E+04 -7.65197E+03
 -6.65393E+03 -1.47073E+04  3.10880E+03 -1.72399E+04  1.06002E+04 -1.33268E+04  1.67374E+04 -5.61194E+03
  1.46193E+04  3.85410E+03  8.73744E+03  9.58795E+03  1.95764E+03  1.13678E+04 -5.16476E+03  9.00274E+03
 -6.38214E+03  3.43719E+03 -4.64592E+03 -1.20401E+03 -6.23795E+02 -1.26439E+03 -1.16640E+03 -1.81411E+02
 -1.40185E+03  9.89086E+01 -2.42090E+03 -4.41527E+02 -1.20958E+03 -2.16650E+03  4.19109E+02 -4.96705E+03
  4.65566E+03 -4.01821E+03  6.41546E+03  8.65883E+02  8.63744E+03  6.84490E+03  1.40354E+03  1.16587E+04
 -6.29736E+03  1.26156E+04 -1.24412E+04  7.86797E+03 -1.40979E+04 -1.28245E+03 -1.06607E+04 -8.87356E+03
 -4.07505E+03 -1.19312E+04  3.39092E+03 -1.05788E+04  7.86122E+03 -6.13679E+03  7.89515E+03  3.25699E+02
  3.53243E+03  3.91573E+03 -5.68137E+02  3.42719E+03 -1.80676E+03 -7.07718E+02 -2.02933E+02 -2.03325E+03
  4.04817E+03 -2.26639E+03  5.23869E+03  1.54879E+03  3.12523E+03  5.27292E+03  3.59992E+02  6.72327E+03
 -6.09151E+03  5.41427E+03 -8.92110E+03  1.37022E+03 -7.41764E+03 -5.48770E+03 -1.26062E+03 -9.70489E+03
  5.84152E+03 -8.89041E+03  8.72443E+03 -2.36195E+03  9.53318E+03  2.51979E+03  5.42189E+03  7.18249E+03
  1.44261E+03  8.95209E+03 -2.39808E+03  6.82839E+03 -5.81122E+03  3.68821E+03 -4.26213E+03  4.10373E+01
 -1.72240E+03 -3.40047E+02 -2.38168E+03  7.60859E+02 -4.47902E+03  1.65864E+03 -5.67642E+03 -1.09072E+03
 -5.34537E+03 -3.77833E+03 -1.40299E+03 -8.83909E+03  3.62205E+03 -8.88035E+03  6.23756E+03 -3.65550E+03
  7.51528E+03  7.43046E+02  4.55464E+03  6.64414E+03  1.06093E+02  8.40055E+03 -7.04105E+03  5.10635E+03
