 $NMID ID='MM_0lb_SNR400_7hz_g60_45.RAW', FMTDAT='(8E13.5)'
 TRAMP=1., VOLUME=1. $END
  3.10350E+05  7.67097E+02  3.38213E+05  2.50131E+05  8.48811E+04  3.38278E+05 -1.32261E+05  2.51071E+05
 -1.91624E+05  8.39314E+04 -1.13168E+05 -3.29041E+04  3.45330E+02 -5.07337E+04  5.43822E+04 -1.10347E+03
  3.54696E+04  5.35520E+04 -1.65732E+04  7.65507E+04 -6.21950E+04  6.56473E+04 -8.64547E+04  3.24335E+04
 -8.36929E+04 -1.07479E+04 -5.93144E+04 -5.30071E+04 -1.47724E+04 -7.23432E+04  2.83926E+04 -4.79533E+04
  4.19401E+04  3.47590E+03  1.73634E+04  4.88638E+04 -3.53990E+04  4.79508E+04 -6.95171E+04  6.21295E+02
 -5.67375E+04 -5.81016E+04 -8.16370E+03 -7.96753E+04  3.49224E+04 -5.84791E+04  5.11267E+04 -1.82307E+04
  4.66148E+04  1.14466E+04  3.32978E+04  2.78259E+04  1.53991E+04  3.13144E+04 -6.17872E+03  2.78597E+04
 -2.29484E+04  1.14656E+04 -1.84543E+04 -6.22001E+03  7.65475E+03 -7.32739E+03  2.37613E+04  1.53121E+04
  6.58120E+03  3.87811E+04 -3.44447E+04  3.74748E+04 -6.76626E+04  2.24747E+03 -5.95256E+04 -4.53181E+04
 -1.34002E+04 -6.72064E+04  4.28449E+04 -4.81496E+04  6.28935E+04 -3.18783E+03  3.73802E+04  3.51683E+04
 -5.06720E+03  4.17053E+04 -3.24790E+04  2.11599E+04 -3.44678E+04 -2.88654E+03 -1.97485E+04 -1.31396E+04
 -1.00918E+04 -1.63501E+04 -8.14164E+02 -2.12664E+04  8.47836E+03 -2.40665E+04  1.61437E+04 -1.19124E+04
  1.00368E+04  7.64966E+03 -1.17649E+04  1.41986E+04 -2.50054E+04 -8.07835E+03 -8.60602E+03 -3.97146E+04
  2.66370E+04 -4.92706E+04  5.49784E+04 -2.21090E+04  5.10940E+04  2.24307E+04  1.80805E+04  4.92343E+04
 -1.71627E+04  3.80315E+04 -2.94405E+04  3.77083E+03 -1.32623E+04 -3.08807E+04  2.18460E+04 -3.87880E+04
  4.66919E+04 -1.23347E+04  4.42450E+04  2.59280E+04  2.43567E+04  5.36105E+04 -9.09906E+03  5.94889E+04
 -3.73562E+04  4.06518E+04 -5.11538E+04  1.27754E+04 -5.03757E+04 -2.03825E+04 -2.68112E+04 -4.48485E+04
  8.10722E+03 -4.53901E+04  3.56012E+04 -1.83690E+04  3.49650E+04  1.09519E+04  6.11412E+03  2.26296E+04
 -1.44132E+04  9.60008E+03 -1.12800E+04 -6.56354E+03  5.33307E+03 -1.27042E+04  1.97117E+04  4.61939E+03
  1.58952E+04  2.34671E+04 -4.80941E+03  2.90061E+04 -2.46309E+04  1.62037E+04 -3.36022E+04 -2.32558E+03
 -2.83640E+04 -1.93405E+04 -1.34049E+04 -2.70530E+04  5.04387E+03 -2.86913E+04  2.33868E+04 -2.58533E+04
  3.49206E+04 -1.52903E+04  4.16026E+04  5.70131E+03  2.80775E+04  2.63651E+04  4.13966E+03  4.44650E+04
 -2.14588E+04  3.47745E+04 -3.28129E+04  1.34684E+04 -2.41495E+04 -9.98316E+03 -5.91518E+03 -1.31506E+04
  3.57177E+02  1.22705E+02 -9.39487E+03  9.15966E+03 -2.22290E+04  5.03681E+03 -2.33607E+04 -1.12370E+04
 -1.24117E+04 -2.60885E+04  6.26823E+03 -3.11691E+04  2.13992E+04 -2.10687E+04  2.49069E+04 -1.57612E+03
  1.59007E+04  1.79252E+04 -1.97798E+03  2.52002E+04 -1.96830E+04  1.53934E+04 -2.72569E+04 -6.17096E+03
 -1.91929E+04 -2.34697E+04 -2.40764E+03 -3.14707E+04  1.37649E+04 -2.68111E+04  2.63364E+04 -1.29903E+04
  2.46725E+04  1.33226E+02  1.76986E+04  6.06498E+03  1.02123E+04  1.61700E+03  1.42534E+04 -2.84286E+03
  2.52794E+04  2.78609E+03  2.90332E+04  2.04397E+04  2.17810E+04  4.28343E+04 -2.83382E+03  5.08811E+04
 -2.86553E+04  4.29628E+04 -4.82230E+04  2.28949E+04 -5.18467E+04 -3.33207E+03 -4.10738E+04 -3.08104E+04
 -1.55444E+04 -4.30452E+04  1.52684E+04 -3.70755E+04  3.23503E+04 -1.68467E+04  2.70571E+04  9.96369E+03
  8.24099E+03  2.03575E+04 -1.39946E+04  1.67489E+04 -2.23033E+04  1.46354E+03 -1.67321E+04 -1.49004E+04
 -9.79356E+02 -2.24113E+04  1.18527E+04 -1.65216E+04  1.56507E+04 -1.57494E+03  5.02994E+03  9.62001E+03
 -9.20888E+03  5.59930E+03 -1.10916E+04 -8.59819E+03 -2.40864E+03 -2.04286E+04  1.35127E+04 -2.31970E+04
  2.66073E+04 -1.45097E+04  3.21829E+04  3.47555E+03  2.74417E+04  2.05309E+04  1.23713E+04  3.52282E+04
 -7.68266E+03  3.70044E+04 -2.40090E+04  2.24955E+04 -2.77016E+04  3.60092E+03 -1.90576E+04 -7.05254E+03
 -8.10876E+03 -9.04199E+03 -1.01539E+03 -4.72644E-01 -2.87769E+03  2.97348E+03 -8.05013E+03  6.62580E+03
 -1.70372E+04 -7.66769E+02 -1.68529E+04 -1.29514E+04 -5.67858E+03 -2.21457E+04  7.41088E+03 -1.77220E+04
  1.54665E+04 -7.83016E+03  1.16751E+04  5.15089E+03 -2.04129E+02  7.61363E+03 -9.45390E+03  5.05770E+02
 -8.69000E+03 -1.26081E+04 -9.57336E+02 -1.84576E+04  1.19587E+04 -2.06415E+04  2.48064E+04 -1.14809E+04
  2.86623E+04  2.40710E+03  2.00359E+04  1.71311E+04  3.42603E+03  2.37378E+04 -1.07437E+04  1.79811E+04
 -1.49449E+04  4.67062E+03 -8.13677E+03 -4.03739E+03  2.48853E+03 -5.61941E+03  9.88660E+03 -9.96268E+02
  8.42634E+03  8.35277E+03  9.85858E+02  1.46679E+04 -1.12127E+04  1.43287E+04 -1.86080E+04  2.78345E+03
 -1.32972E+04 -9.89927E+03  6.99271E+02 -1.66243E+04  1.11363E+04 -8.21733E+03  1.26885E+04  4.24785E+03
  3.01447E+03  1.22426E+04 -1.01149E+04  1.41865E+04 -1.78715E+04  5.95654E+03 -1.80502E+04 -6.68517E+03
 -1.02872E+04 -1.93066E+04  4.50722E+03 -2.31468E+04  2.02912E+04 -1.35708E+04  2.12917E+04  4.72544E+03
  1.18972E+04  1.67376E+04 -3.00350E+03  1.96165E+04 -1.47932E+04  1.13387E+04 -1.56626E+04 -2.09099E+03
 -1.25637E+04 -1.27206E+04 -1.97570E+03 -1.47039E+04  9.23988E+03 -1.18096E+04  9.58461E+03 -4.49630E+03
  5.69080E+03  3.46745E+03 -1.93864E+03  2.26191E+03 -1.38009E+03 -4.70742E+03  3.63039E+03 -9.42482E+03
  1.47279E+04 -6.75684E+03  2.07742E+04  2.20488E+03  2.02940E+04  1.44906E+04  1.25832E+04  2.66739E+04
 -6.58027E+03  3.08515E+04 -2.51793E+04  2.29294E+04 -3.22075E+04  4.15969E+03 -2.70591E+04 -1.17553E+04
 -1.19435E+04 -2.14628E+04 -1.72064E+02 -1.84149E+04  6.60300E+03 -1.12451E+04  6.40716E+03 -7.35190E+03
  5.02080E+03 -3.55463E+03  4.67068E+03 -4.17944E+03  7.20133E+03 -4.47587E+03  9.47347E+03 -1.44643E+03
  1.34693E+04  2.81002E+03  7.44521E+03  1.21712E+04 -2.57642E+03  1.54130E+04 -1.56675E+04  1.13451E+04
 -1.85684E+04 -2.17653E+03 -1.32151E+04 -1.29695E+04 -1.47671E+03 -2.03537E+04  1.13838E+04 -2.10490E+04
  2.17076E+04 -1.11643E+04  2.52834E+04  4.02096E+03  1.81036E+04  1.86125E+04  3.01984E+03  2.36799E+04
 -1.01978E+04  1.81715E+04 -1.34050E+04  6.25307E+03 -1.04407E+04 -1.46731E+03 -5.15903E+03 -2.58182E+03
 -1.63276E+03 -2.21785E+02 -2.69749E+03  3.43766E+03 -7.81820E+03  3.76565E+03 -1.42340E+04 -1.63678E+03
 -8.83124E+03 -1.31222E+04 -6.59687E+02 -1.94668E+04  1.03570E+04 -1.71982E+04  1.88541E+04 -5.52508E+03
  2.02096E+04  1.03797E+04  8.26824E+03  1.68755E+04 -4.16317E+03  2.03587E+04 -1.48261E+04  1.18764E+04
 -1.93951E+04  7.13673E+02 -1.45450E+04 -1.15406E+04 -2.33953E+03 -1.80065E+04  8.81744E+03 -1.27474E+04
  1.25417E+04 -4.31480E+03  9.01345E+03  4.26780E+03  2.39132E+03  6.37934E+03  2.74899E+03  3.08339E+03
  3.85066E+03  1.61604E+03  4.49273E+03  2.43318E+03  6.23659E+03  6.32499E+03  4.43204E+03  1.05016E+04
 -4.03304E+03  1.56110E+04 -1.49615E+04  1.55357E+04 -2.16293E+04  4.05889E+03 -2.14538E+04 -8.22587E+03
 -1.05031E+04 -2.11083E+04  2.85683E+03 -2.26139E+04  1.25136E+04 -1.40797E+04  1.78512E+04 -4.11003E+03
  1.31560E+04  7.68525E+03  2.36541E+03  1.15158E+04 -6.94639E+03  7.13158E+03 -9.52469E+03 -2.26687E+03
 -3.47405E+03 -9.45910E+03  3.79551E+03 -8.72274E+03  9.32994E+03 -4.86476E+03  8.05589E+03  1.25464E+03
  5.26435E+03  4.03735E+03  1.89542E+03  4.24376E+03 -1.27107E+03  2.87655E+03  1.40399E+03 -1.21039E+03
  3.41473E+03 -9.33924E+02  8.25716E+03  2.92149E+03  5.35550E+03  1.15720E+04 -1.67004E+03  1.47241E+04
 -9.46641E+03  1.11105E+04 -1.45344E+04  3.53831E+03 -1.21874E+04 -4.78100E+03 -5.45452E+03 -8.34780E+03
  1.21084E+03 -8.35463E+03  5.11000E+03 -3.57282E+03  4.95249E+03  3.25719E+03 -1.15540E+03  7.79916E+03
 -9.84418E+03  3.78547E+03 -9.11764E+03 -5.93718E+03 -5.73927E+03 -1.15622E+04  2.99267E+03 -1.22251E+04
  7.83702E+03 -7.77721E+03  9.24394E+03 -1.85931E+03  6.28351E+03  3.28500E+03 -1.48000E+01  6.03524E+03
 -4.55942E+03  2.34749E+03 -5.94669E+03 -4.70083E+03  1.91930E+03 -9.58245E+03  1.17210E+04 -6.82740E+03
  1.33672E+04  5.60013E+02  1.37498E+04  1.02473E+04  4.34134E+03  1.60192E+04 -5.74859E+03  1.36592E+04
 -1.23932E+04  5.93866E+03 -1.33136E+04 -1.95124E+03 -6.56607E+03 -9.43481E+03  2.20903E+03 -9.18521E+03
  9.24378E+03 -3.67351E+03  8.42945E+03  4.85019E+03  2.27226E+03  8.04764E+03 -1.84451E+03  7.41138E+03
 -4.70658E+03  4.37205E+03 -3.79418E+03  2.65490E+03 -1.66564E+03  5.40787E+02 -2.92083E+03  2.62868E+03
 -3.92892E+03  5.98908E+03 -1.08270E+04  4.82423E+03 -1.44435E+04  8.40307E+01 -1.64823E+04 -8.53262E+03
 -8.50439E+03 -1.86193E+04  3.31107E+03 -2.32794E+04  1.47935E+04 -1.79960E+04  2.18959E+04 -6.98785E+03
  2.06774E+04  4.89032E+03  1.30270E+04  1.38980E+04  1.76350E+03  1.62609E+04 -6.45978E+03  1.22543E+04
 -8.33668E+03  3.78308E+03 -5.69022E+03 -1.87624E+03 -1.97265E+03 -1.86788E+03 -2.07935E+02 -1.80247E+02
 -2.25549E+03  1.02610E+03 -3.62041E+03  4.63813E+02 -6.38830E+02 -4.08113E+03  1.54570E+01 -5.52144E+03
  5.66313E+03 -3.96306E+03  1.00725E+04 -7.29272E+02  1.03321E+04  9.07229E+03  4.65145E+03  1.56882E+04
 -6.83733E+03  1.81315E+04 -1.67085E+04  1.11454E+04 -2.08352E+04 -2.25976E+03 -1.41589E+04 -1.19814E+04
 -5.27225E+03 -1.65123E+04  4.12198E+03 -1.54043E+04  1.03175E+04 -8.76244E+03  1.05671E+04  7.01718E+02
  5.69685E+03  6.38128E+03 -9.59603E+02  4.98992E+03 -3.19703E+03  1.18268E+02  3.38004E+02 -4.53052E+03
  4.80166E+03 -2.53601E+03  6.57524E+03  9.93150E+02  4.60256E+03  7.20957E+03 -7.61635E+01  9.28055E+03
 -7.11480E+03  7.23606E+03 -1.19264E+04  3.91277E+01 -1.07683E+04 -8.55048E+03 -1.45488E+03 -1.27070E+04
  8.93695E+03 -1.23138E+04  1.19882E+04 -4.40699E+03  1.30064E+04  4.60609E+03  7.98763E+03  1.01670E+04
  1.11174E+03  1.10844E+04 -5.50948E+03  9.21036E+03 -7.07530E+03  4.61635E+03 -5.68776E+03  4.86737E+02
 -3.37565E+03  1.48204E+02 -2.78186E+03  1.05779E+03 -5.40170E+03  1.85826E+03 -8.98896E+03 -2.33129E+03
 -8.50888E+03 -7.17548E+03 -2.46600E+03 -1.17743E+04  5.15009E+03 -1.13198E+04  1.04971E+04 -5.26154E+03
  1.12067E+04  8.81275E+02  6.87836E+03  9.20246E+03 -7.23280E+02  1.09643E+04 -8.55733E+03  8.38561E+03
