 $NMID ID='MM_0lb_SNR400_8hz_g45_41.RAW', FMTDAT='(8E13.5)'
 TRAMP=1., VOLUME=1. $END
  3.10820E+05  8.51738E+02  3.38315E+05  2.50915E+05  8.39388E+04  3.38725E+05 -1.32192E+05  2.51803E+05
 -1.90667E+05  8.38317E+04 -1.11824E+05 -3.18698E+04  7.35624E+02 -5.12954E+04  5.40305E+04 -1.27347E+02
  3.58531E+04  5.31705E+04 -1.60029E+04  7.64877E+04 -6.07295E+04  6.38410E+04 -8.43500E+04  3.26198E+04
 -8.27168E+04 -1.20829E+04 -5.88673E+04 -5.26499E+04 -1.49906E+04 -7.10952E+04  2.78846E+04 -4.68263E+04
  4.05168E+04  3.49077E+03  1.66230E+04  4.86444E+04 -3.55067E+04  4.83542E+04 -6.84913E+04 -4.47611E+02
 -5.45590E+04 -5.77552E+04 -7.90563E+03 -7.99825E+04  3.49892E+04 -5.71746E+04  5.04739E+04 -1.90647E+04
  4.55660E+04  1.18996E+04  3.26207E+04  2.69422E+04  1.57285E+04  3.07110E+04 -6.25125E+03  2.73715E+04
 -2.28388E+04  1.16283E+04 -1.77581E+04 -5.99090E+03  7.79382E+03 -7.68268E+03  2.37418E+04  1.38657E+04
  6.54660E+03  3.73730E+04 -3.42123E+04  3.71897E+04 -6.60707E+04  3.07721E+03 -6.01572E+04 -4.43647E+04
 -1.29539E+04 -6.66006E+04  4.16801E+04 -4.79861E+04  6.15621E+04 -2.30078E+03  3.70853E+04  3.58673E+04
 -6.00507E+03  4.01061E+04 -3.24275E+04  1.88827E+04 -3.34476E+04 -3.06714E+03 -1.89473E+04 -1.22526E+04
 -9.87727E+03 -1.52198E+04  5.48644E+02 -2.04664E+04  8.68333E+03 -2.39735E+04  1.52489E+04 -1.27984E+04
  1.05937E+04  6.47373E+03 -1.12108E+04  1.15023E+04 -2.35713E+04 -7.55865E+03 -7.33577E+03 -3.86916E+04
  2.50107E+04 -4.72493E+04  5.19355E+04 -2.05148E+04  4.83924E+04  2.13865E+04  1.70140E+04  4.72555E+04
 -1.62330E+04  3.69420E+04 -2.74066E+04  2.10173E+03 -1.18617E+04 -2.98150E+04  2.16853E+04 -3.67113E+04
  4.55067E+04 -1.20139E+04  4.12834E+04  2.51576E+04  2.22207E+04  5.09603E+04 -8.32879E+03  5.71325E+04
 -3.61241E+04  3.87675E+04 -4.79289E+04  1.09252E+04 -4.83408E+04 -1.82092E+04 -2.63527E+04 -4.31891E+04
  8.80696E+03 -4.29177E+04  3.47415E+04 -1.73138E+04  3.21838E+04  1.16490E+04  4.81459E+03  2.03142E+04
 -1.46853E+04  1.02527E+04 -1.08004E+04 -7.09515E+03  5.69535E+03 -1.05220E+04  1.95930E+04  5.45083E+03
  1.54406E+04  2.27315E+04 -4.25743E+03  2.69109E+04 -2.35122E+04  1.47319E+04 -3.15586E+04 -2.87062E+03
 -2.56864E+04 -1.92132E+04 -1.27786E+04 -2.63025E+04  5.04941E+03 -2.73493E+04  2.07042E+04 -2.31871E+04
  3.22980E+04 -1.42458E+04  3.77991E+04  5.08752E+03  2.74258E+04  2.47731E+04  4.38252E+03  4.22169E+04
 -1.97684E+04  3.59761E+04 -3.06855E+04  1.23559E+04 -2.28287E+04 -1.05196E+04 -4.65497E+03 -1.32269E+04
  7.06187E+02 -1.94581E+03 -8.08486E+03  7.94931E+03 -1.95383E+04  5.50344E+03 -2.08139E+04 -9.65736E+03
 -1.21257E+04 -2.47017E+04  6.46007E+03 -2.83210E+04  1.87823E+04 -1.95773E+04  2.34955E+04 -1.66614E+03
  1.50935E+04  1.67796E+04 -8.85260E+02  2.39165E+04 -1.75842E+04  1.37765E+04 -2.44476E+04 -4.96902E+03
 -1.86408E+04 -2.17313E+04 -2.44957E+03 -2.91306E+04  1.27674E+04 -2.45269E+04  2.35994E+04 -1.29558E+04
  2.27507E+04  2.04127E+02  1.52539E+04  5.40113E+03  9.02123E+03  9.05549E+02  1.33109E+04 -2.48929E+03
  2.27231E+04  2.96411E+03  2.61531E+04  1.85301E+04  1.77307E+04  3.88928E+04 -2.75101E+03  4.55263E+04
 -2.62675E+04  3.79660E+04 -4.33126E+04  1.99592E+04 -4.63429E+04 -4.04829E+03 -3.75721E+04 -2.75123E+04
 -1.44832E+04 -3.85764E+04  1.33603E+04 -3.30209E+04  2.84283E+04 -1.62321E+04  2.48460E+04  8.14664E+03
  8.54081E+03  1.93084E+04 -1.20555E+04  1.61351E+04 -2.15319E+04  2.51070E+03 -1.57965E+04 -1.26722E+04
  2.93409E+02 -1.97479E+04  1.07430E+04 -1.50267E+04  1.36266E+04 -1.12050E+03  4.07899E+03  8.44985E+03
 -9.75577E+03  4.61360E+03 -9.74659E+03 -7.59301E+03 -2.00178E+03 -1.90610E+04  1.26819E+04 -2.02804E+04
  2.38839E+04 -1.10930E+04  2.75606E+04  3.41593E+03  2.40759E+04  1.90834E+04  1.15702E+04  2.99280E+04
 -6.36745E+03  3.17426E+04 -2.08623E+04  2.02184E+04 -2.40827E+04  4.93558E+03 -1.56051E+04 -6.12061E+03
 -6.86204E+03 -7.28307E+03 -1.06156E+03 -3.24571E+02 -3.05713E+03  3.78778E+03 -8.38157E+03  6.36736E+03
 -1.49777E+04 -1.21980E+03 -1.56193E+04 -1.30485E+04 -6.20518E+03 -1.97460E+04  6.98140E+03 -1.67410E+04
  1.42290E+04 -6.74710E+03  9.29771E+03  4.63740E+03 -6.39770E+02  6.41756E+03 -7.55100E+03 -3.64570E+01
 -7.99129E+03 -1.03249E+04 -1.73345E+03 -1.63957E+04  9.38110E+03 -1.63965E+04  2.08477E+04 -9.12029E+03
  2.49698E+04  2.38911E+03  1.81895E+04  1.55979E+04  3.12841E+03  2.00402E+04 -9.90017E+03  1.65773E+04
 -1.25237E+04  3.89751E+03 -7.65711E+03 -3.89314E+03  1.80852E+03 -4.83463E+03  9.69817E+03 -9.00832E+02
  8.30544E+03  6.54145E+03  8.27606E+01  1.33049E+04 -9.24911E+03  1.28097E+04 -1.62693E+04  2.91404E+03
 -1.14877E+04 -8.89275E+03  1.94153E+02 -1.40427E+04  9.95576E+03 -7.30463E+03  9.99126E+03  3.98248E+03
  2.10948E+03  1.03386E+04 -8.58605E+03  1.20469E+04 -1.45841E+04  5.74003E+03 -1.49317E+04 -5.37551E+03
 -7.84226E+03 -1.67584E+04  4.09243E+03 -1.97929E+04  1.67930E+04 -1.13898E+04  1.82262E+04  3.02182E+03
  1.05017E+04  1.41257E+04 -1.95444E+03  1.61545E+04 -1.30602E+04  9.20669E+03 -1.42535E+04 -1.93918E+03
 -1.14110E+04 -1.11669E+04 -1.65869E+03 -1.20183E+04  6.86957E+03 -1.03951E+04  8.03257E+03 -3.13131E+03
  4.70453E+03  1.98541E+03 -1.06275E+03  2.00461E+03 -7.61552E+02 -3.60466E+03  2.89972E+03 -7.97013E+03
  1.29746E+04 -5.61231E+03  1.75360E+04  2.04128E+03  1.63049E+04  1.16628E+04  1.01477E+04  2.23535E+04
 -5.40567E+03  2.55547E+04 -2.19562E+04  1.96132E+04 -2.69110E+04  3.30513E+03 -2.09592E+04 -9.99407E+03
 -1.03702E+04 -1.74808E+04 -8.22147E+02 -1.52335E+04  6.00526E+03 -8.40828E+03  6.12775E+03 -5.19199E+03
  4.14927E+03 -2.72636E+03  4.65266E+03 -3.56276E+03  6.01258E+03 -3.43934E+03  8.99826E+03 -1.77421E+03
  1.19996E+04  2.04103E+03  6.92268E+03  9.43057E+03 -2.72737E+03  1.19748E+04 -1.14532E+04  8.93312E+03
 -1.58907E+04 -2.19218E+03 -1.04249E+04 -1.06123E+04 -9.97850E+02 -1.70610E+04  8.91525E+03 -1.69432E+04
  1.82463E+04 -9.07364E+03  2.10834E+04  3.31767E+03  1.40847E+04  1.49270E+04  2.86743E+03  1.83840E+04
 -8.03814E+03  1.43908E+04 -1.10029E+04  4.09079E+03 -6.56381E+03 -2.26475E+03 -3.00948E+03 -2.70273E+03
 -1.94262E+03  9.50990E+01 -3.53787E+03  3.81374E+03 -6.69585E+03  2.83365E+03 -1.07215E+04 -1.36012E+03
 -7.18964E+03 -1.06597E+04  1.06905E+01 -1.58293E+04  9.78164E+03 -1.52594E+04  1.63630E+04 -5.43568E+03
  1.58863E+04  7.37494E+03  7.45934E+03  1.41082E+04 -3.59416E+03  1.59216E+04 -1.17253E+04  9.79860E+03
 -1.47957E+04  1.57019E+03 -1.14658E+04 -9.71532E+03 -1.20398E+03 -1.34734E+04  6.24837E+03 -9.54157E+03
  1.03968E+04 -3.23650E+03  7.61189E+03  2.61258E+03  2.56396E+03  5.45544E+03  1.29744E+03  2.12759E+03
  2.38470E+03  1.25046E+03  3.87881E+03  2.21574E+03  5.07525E+03  5.24125E+03  4.19350E+03  9.00457E+03
 -3.65148E+03  1.32847E+04 -1.22133E+04  1.29871E+04 -1.70844E+04  2.99727E+03 -1.66907E+04 -8.35064E+03
 -7.99242E+03 -1.68174E+04  2.97218E+03 -1.86169E+04  9.74045E+03 -1.14403E+04  1.35257E+04 -2.44154E+03
  1.08909E+04  5.80806E+03  2.87607E+03  9.17482E+03 -4.62879E+03  6.82555E+03 -6.23293E+03 -5.96420E+02
 -3.43095E+03 -7.43925E+03  4.41531E+03 -7.98916E+03  7.52587E+03 -3.51943E+03  7.34577E+03  1.03856E+03
  4.19952E+03  3.41013E+03  4.37613E+02  2.57363E+03 -6.95121E+02  2.34293E+03  2.35779E+03 -6.61585E+02
  2.33426E+03 -1.01073E+03  5.95706E+03  2.79642E+03  4.37245E+03  8.99757E+03 -1.85283E+03  1.13097E+04
 -8.29342E+03  7.06320E+03 -1.09870E+04  1.05185E+03 -9.15580E+03 -2.77552E+03 -3.18158E+03 -7.40789E+03
  1.10910E+03 -6.45685E+03  5.26987E+03 -3.46258E+03  3.51909E+03  3.92275E+03 -1.43257E+03  4.96447E+03
 -7.40202E+03  2.99916E+03 -7.70085E+03 -3.72837E+03 -4.23311E+03 -9.27402E+03  1.66704E+03 -9.59780E+03
  5.77156E+03 -5.27895E+03  5.87661E+03 -9.04261E+02  5.68727E+03  2.30447E+03  2.32962E+02  5.50859E+03
 -3.33427E+03  1.56908E+03 -4.45412E+03 -4.22898E+03  2.84463E+03 -7.39831E+03  8.19959E+03 -5.87845E+03
  1.04648E+04  1.80508E+03  1.07813E+04  7.84006E+03  4.27810E+03  1.14505E+04 -4.51254E+03  1.11473E+04
 -9.00459E+03  4.32247E+03 -1.00072E+04 -2.19019E+03 -5.91997E+03 -6.43332E+03  9.06281E+02 -6.53974E+03
  6.93029E+03 -3.56960E+03  6.45224E+03  3.31305E+03  2.29033E+03  6.59882E+03 -1.65530E+03  5.22004E+03
 -2.71549E+03  3.95861E+03 -2.81510E+03  9.01030E+02 -2.07694E+03  1.51687E+03 -2.04691E+03  2.36624E+03
 -3.58695E+03  4.32402E+03 -7.66018E+03  4.06689E+03 -1.14772E+04 -2.88098E+02 -1.36916E+04 -7.07570E+03
 -7.02547E+03 -1.55391E+04  3.02917E+03 -1.73296E+04  1.11895E+04 -1.46276E+04  1.73465E+04 -4.91209E+03
  1.55916E+04  2.92620E+03  9.21924E+03  1.00825E+04  1.24736E+03  1.25387E+04 -4.73120E+03  8.29654E+03
 -6.88180E+03  2.36974E+03 -4.28092E+03 -1.20377E+03 -1.71514E+03 -1.01140E+03 -1.47361E+03 -4.26947E+02
 -1.90677E+03  4.28447E+02 -2.82143E+03 -8.59776E+02 -9.91745E+02 -3.56522E+03  4.37102E+02 -4.65770E+03
  5.72863E+03 -4.12648E+03  8.89991E+03  4.23949E+02  8.54870E+03  6.90570E+03  2.65172E+03  1.25732E+04
 -5.74664E+03  1.43392E+04 -1.27071E+04  7.11812E+03 -1.45205E+04 -8.00478E+02 -1.20739E+04 -8.07869E+03
 -4.88307E+03 -1.23048E+04  2.89984E+03 -1.15783E+04  6.90313E+03 -6.40078E+03  8.33149E+03  6.58584E+02
  4.70259E+03  4.62605E+03 -8.55688E+02  3.22247E+03 -1.84847E+03  5.74486E+02  5.98210E+01 -2.88370E+03
  4.01410E+03 -1.62268E+03  4.87814E+03  1.71047E+03  2.89403E+03  4.44392E+03  4.16109E+02  6.15214E+03
 -5.38145E+03  5.61138E+03 -8.29267E+03  4.77460E+02 -8.09137E+03 -6.50845E+03 -1.88598E+03 -1.09463E+04
  5.66516E+03 -8.34656E+03  9.24124E+03 -2.86562E+03  9.04140E+03  2.86783E+03  5.80528E+03  7.81389E+03
  9.97263E+02  7.85078E+03 -3.50012E+03  6.85038E+03 -5.25729E+03  3.29241E+03 -3.88077E+03  5.18210E+02
 -1.25224E+03  5.01824E+01 -1.91454E+03  1.08174E+03 -4.68586E+03  1.67932E+03 -5.68074E+03 -1.10805E+03
 -6.14647E+03 -4.29424E+03 -2.48745E+03 -8.99948E+03  4.01960E+03 -8.69500E+03  6.83841E+03 -3.54145E+03
  8.11817E+03  1.39511E+03  5.10272E+03  6.36248E+03 -1.19154E+03  8.64177E+03 -6.10515E+03  5.61831E+03
