 $NMID ID='MM_0lb_SNR400_10hz_g55_3.RAW', FMTDAT='(8E13.5)'
 TRAMP=1., VOLUME=1. $END
  3.09997E+05  3.61566E+02  3.37683E+05  2.50924E+05  8.50437E+04  3.38013E+05 -1.32416E+05  2.51953E+05
 -1.90288E+05  8.33951E+04 -1.12334E+05 -3.30031E+04 -4.22462E+02 -5.03319E+04  5.42627E+04  5.13629E+02
  3.53805E+04  5.32377E+04 -1.66750E+04  7.64519E+04 -6.00925E+04  6.37205E+04 -8.47687E+04  3.22352E+04
 -8.23654E+04 -1.20046E+04 -5.83010E+04 -5.25033E+04 -1.52329E+04 -7.07485E+04  2.77215E+04 -4.58501E+04
  4.01478E+04  4.54496E+03  1.66930E+04  4.85461E+04 -3.46642E+04  4.74669E+04 -6.88193E+04  6.49085E+02
 -5.46078E+04 -5.73641E+04 -6.69838E+03 -7.86182E+04  3.44356E+04 -5.66805E+04  4.97871E+04 -1.87604E+04
  4.55726E+04  1.19987E+04  3.26088E+04  2.54756E+04  1.63579E+04  3.06683E+04 -5.89753E+03  2.82642E+04
 -2.25238E+04  1.16382E+04 -1.80692E+04 -5.57087E+03  6.74112E+03 -7.25057E+03  2.31939E+04  1.44224E+04
  7.17675E+03  3.75529E+04 -3.29702E+04  3.71450E+04 -6.56223E+04  2.90453E+03 -5.88995E+04 -4.43457E+04
 -1.24604E+04 -6.58124E+04  4.17436E+04 -4.72591E+04  6.02655E+04 -3.02033E+03  3.67157E+04  3.33667E+04
 -5.49215E+03  3.88285E+04 -3.12895E+04  1.87192E+04 -3.30204E+04 -3.91623E+03 -1.91306E+04 -1.15252E+04
 -9.69370E+03 -1.55735E+04 -8.85580E+02 -1.97434E+04  8.43250E+03 -2.38513E+04  1.55017E+04 -1.25777E+04
  9.86375E+03  6.21585E+03 -9.52331E+03  1.27523E+04 -2.33393E+04 -6.84694E+03 -9.00779E+03 -3.70175E+04
  2.54549E+04 -4.63915E+04  5.17524E+04 -2.12242E+04  4.88004E+04  2.07105E+04  1.72967E+04  4.56970E+04
 -1.62727E+04  3.60690E+04 -2.73026E+04  2.27785E+03 -1.12644E+04 -3.02692E+04  2.20327E+04 -3.67222E+04
  4.34915E+04 -1.05352E+04  3.98664E+04  2.54505E+04  2.12547E+04  5.11104E+04 -7.35076E+03  5.58460E+04
 -3.49610E+04  3.83526E+04 -4.68600E+04  1.12177E+04 -4.71908E+04 -1.88423E+04 -2.62820E+04 -4.24937E+04
  8.40238E+03 -4.22715E+04  3.38847E+04 -1.68017E+04  3.24432E+04  1.11314E+04  5.37763E+03  2.10603E+04
 -1.41984E+04  9.55997E+03 -1.13581E+04 -7.38624E+03  5.69099E+03 -1.12411E+04  1.91332E+04  6.33308E+03
  1.38476E+04  2.28286E+04 -5.36595E+03  2.74242E+04 -2.40316E+04  1.33894E+04 -3.06074E+04 -3.52508E+03
 -2.55048E+04 -1.84995E+04 -1.12287E+04 -2.39328E+04  4.14893E+03 -2.38846E+04  1.93098E+04 -2.24139E+04
  3.11548E+04 -1.43129E+04  3.76465E+04  3.92475E+03  2.76457E+04  2.48210E+04  4.22821E+03  4.12807E+04
 -1.97125E+04  3.37600E+04 -2.97319E+04  1.16701E+04 -2.19345E+04 -1.10797E+04 -4.82694E+03 -1.21112E+04
  5.24376E+02 -1.22963E+03 -6.71543E+03  8.20240E+03 -1.94698E+04  5.07507E+03 -2.02392E+04 -8.25757E+03
 -1.18469E+04 -2.32854E+04  6.17445E+03 -2.70835E+04  1.84034E+04 -1.93704E+04  2.15586E+04 -1.31991E+03
  1.41798E+04  1.52413E+04 -1.24255E+03  2.22215E+04 -1.62659E+04  1.25730E+04 -2.24969E+04 -4.81755E+03
 -1.72363E+04 -2.07970E+04 -2.37881E+03 -2.81716E+04  1.19802E+04 -2.23675E+04  2.17481E+04 -1.16783E+04
  2.14804E+04  1.93939E+02  1.50409E+04  5.46800E+03  9.11436E+03  1.43928E+03  1.26011E+04 -2.13390E+03
  2.16991E+04  2.78337E+03  2.47987E+04  1.82564E+04  1.66063E+04  3.69886E+04 -3.08630E+03  4.32702E+04
 -2.46909E+04  3.56828E+04 -4.08039E+04  1.81893E+04 -4.34896E+04 -3.19631E+03 -3.59490E+04 -2.54969E+04
 -1.48645E+04 -3.64899E+04  1.30922E+04 -3.19594E+04  2.71994E+04 -1.50957E+04  2.34080E+04  7.38540E+03
  8.01763E+03  1.74893E+04 -1.17566E+04  1.57415E+04 -1.95191E+04  2.64696E+03 -1.47000E+04 -1.22234E+04
  2.49163E+01 -1.91384E+04  1.04536E+04 -1.41563E+04  1.28709E+04 -1.62951E+03  2.79406E+03  8.20999E+03
 -8.73026E+03  4.13067E+03 -8.43604E+03 -6.17099E+03 -1.01484E+03 -1.73690E+04  1.20996E+04 -1.90492E+04
  2.27784E+04 -1.07610E+04  2.55022E+04  3.24816E+03  2.17869E+04  1.80894E+04  1.14576E+04  2.82808E+04
 -5.24588E+03  3.04116E+04 -1.92246E+04  1.89409E+04 -2.18532E+04  3.43227E+03 -1.47657E+04 -5.03261E+03
 -5.64487E+03 -7.06358E+03 -6.99900E+02  6.12871E+02 -3.22522E+03  3.65062E+03 -6.66951E+03  5.68706E+03
 -1.38399E+04 -1.43390E+03 -1.39332E+04 -1.16042E+04 -5.42489E+03 -1.91223E+04  6.63553E+03 -1.53252E+04
  1.25777E+04 -6.06431E+03  9.13706E+03  4.35639E+03  3.81414E+02  5.85995E+03 -7.24028E+03 -3.66745E+02
 -7.59963E+03 -9.65655E+03 -1.43943E+03 -1.49905E+04  8.34070E+03 -1.61516E+04  1.94923E+04 -8.06814E+03
  2.23753E+04  1.77583E+03  1.68516E+04  1.41736E+04  3.00271E+03  1.83255E+04 -9.04091E+03  1.53575E+04
 -1.22057E+04  4.49038E+03 -6.25179E+03 -3.49545E+03  3.18308E+03 -4.47924E+03  7.82396E+03 -4.95921E+02
  7.99859E+03  6.15485E+03  1.00582E+03  1.21320E+04 -8.99548E+03  1.16422E+04 -1.46629E+04  2.13170E+03
 -1.05806E+04 -7.72172E+03  6.99882E+02 -1.29936E+04  8.47524E+03 -6.15046E+03  8.62436E+03  3.07681E+03
  2.55025E+03  9.82777E+03 -7.10900E+03  1.10943E+04 -1.30442E+04  4.49954E+03 -1.37176E+04 -4.74144E+03
 -8.14997E+03 -1.50429E+04  4.04460E+03 -1.76732E+04  1.41122E+04 -1.06538E+04  1.56971E+04  3.37499E+03
  9.73531E+03  1.26152E+04 -1.93375E+03  1.48458E+04 -1.04054E+04  8.94661E+03 -1.20692E+04 -1.07004E+03
 -1.05302E+04 -9.82791E+03 -2.44190E+03 -1.13158E+04  6.32011E+03 -9.71322E+03  7.43079E+03 -3.29525E+03
  4.74130E+03  1.94836E+03 -5.50759E+02  2.58792E+03 -8.01177E+02 -3.08380E+03  2.19498E+03 -6.66836E+03
  1.03309E+04 -3.80006E+03  1.43628E+04  1.57687E+03  1.50535E+04  9.68053E+03  9.58458E+03  1.94675E+04
 -4.38630E+03  2.19556E+04 -1.91760E+04  1.71256E+04 -2.42749E+04  3.11629E+03 -1.96586E+04 -8.49084E+03
 -1.05427E+04 -1.67414E+04 -2.52939E+02 -1.31036E+04  4.67585E+03 -7.47324E+03  5.26871E+03 -5.13298E+03
  3.73941E+03 -2.88525E+03  4.19198E+03 -3.42005E+03  4.91880E+03 -2.91607E+03  7.88108E+03 -1.29697E+03
  1.01759E+04  2.59741E+03  6.11600E+03  8.39780E+03 -2.47768E+03  1.04721E+04 -1.10169E+04  8.27744E+03
 -1.38046E+04 -5.34381E+02 -9.50294E+03 -9.08570E+03 -9.68425E+02 -1.50197E+04  7.52933E+03 -1.40546E+04
  1.54675E+04 -8.85672E+03  1.88227E+04  3.01948E+03  1.26994E+04  1.23236E+04  2.22373E+03  1.68163E+04
 -6.82586E+03  1.41861E+04 -9.26425E+03  4.93189E+03 -5.58648E+03 -9.27220E+02 -2.54968E+03 -2.56324E+03
 -1.54244E+03  1.64129E+02 -1.88341E+03  3.00690E+03 -5.64622E+03  2.38946E+03 -1.00820E+04 -1.12774E+03
 -5.59978E+03 -8.88807E+03 -3.04769E+02 -1.38751E+04  8.41449E+03 -1.29299E+04  1.39951E+04 -3.92042E+03
  1.28945E+04  6.50467E+03  6.16267E+03  1.21659E+04 -1.85942E+03  1.38393E+04 -9.63092E+03  8.81057E+03
 -1.32145E+04  1.07094E+02 -9.64626E+03 -8.03851E+03 -1.07131E+03 -1.08430E+04  5.93569E+03 -8.03896E+03
  8.58074E+03 -2.50898E+03  5.94283E+03  3.02599E+03  2.39563E+03  3.64843E+03  1.38379E+03  2.55009E+03
  2.26719E+03  4.83523E+02  3.17940E+03  1.42341E+03  4.28686E+03  4.07029E+03  3.27883E+03  6.31973E+03
 -3.55037E+03  1.04864E+04 -9.61810E+03  1.12965E+04 -1.47208E+04  2.86831E+03 -1.49105E+04 -5.76743E+03
 -6.28065E+03 -1.36261E+04  1.22629E+03 -1.52585E+04  8.65176E+03 -9.67461E+03  1.15005E+04 -2.56695E+03
  8.68167E+03  4.66439E+03  2.23165E+03  8.06151E+03 -4.17805E+03  5.67622E+03 -4.72584E+03 -1.63038E+03
 -2.45467E+03 -5.24183E+03  3.05297E+03 -5.72975E+03  5.43300E+03 -3.08443E+03  5.34986E+03  1.10255E+03
  3.55497E+03  3.55028E+03  1.21774E+03  2.25359E+03 -5.14945E+02  1.73524E+03  1.04006E+03 -1.02821E+03
  2.23597E+03 -4.04247E+02  6.10221E+03  3.23868E+03  2.96383E+03  7.59697E+03 -2.08218E+03  9.57189E+03
 -6.33953E+03  5.80876E+03 -8.65340E+03  1.87577E+03 -7.61206E+03 -2.95038E+03 -3.09348E+03 -4.60841E+03
  1.33985E+03 -5.76743E+03  3.37774E+03 -2.28301E+03  3.13944E+03  3.33774E+03 -4.04680E+02  4.65230E+03
 -5.91642E+03  2.45892E+03 -6.87523E+03 -3.17676E+03 -3.37289E+03 -7.70895E+03  7.88295E+02 -7.81072E+03
  4.45061E+03 -4.53701E+03  5.55719E+03  2.10345E+02  5.03044E+03  2.66966E+03  5.20212E+02  3.73466E+03
 -2.88893E+03  1.47760E+03 -2.85872E+03 -2.07360E+03  1.19736E+03 -5.43812E+03  6.55428E+03 -4.56284E+03
  8.09190E+03  9.90505E+02  8.58673E+03  5.90690E+03  2.91003E+03  9.35894E+03 -3.20390E+03  8.18026E+03
 -7.86447E+03  3.37112E+03 -7.22415E+03 -1.80439E+03 -4.28802E+03 -5.41191E+03  1.63229E+03 -5.13061E+03
  5.89541E+03 -3.21579E+03  5.09564E+03  2.24350E+03  1.66180E+03  4.52505E+03 -1.04418E+03  3.99223E+03
 -2.29223E+03  2.91245E+03 -2.40951E+03  1.02043E+03 -4.59507E+02  1.03749E+03 -2.22992E+03  2.10419E+03
 -1.78821E+03  2.88407E+03 -5.91823E+03  2.95368E+03 -8.95959E+03  1.01917E+03 -9.33292E+03 -6.25952E+03
 -4.38806E+03 -1.19083E+04  2.07726E+03 -1.38769E+04  9.19143E+03 -9.95845E+03  1.23795E+04 -4.37468E+03
  1.09870E+04  2.48910E+03  7.81769E+03  7.88813E+03  3.22160E+02  9.52113E+03 -3.58230E+03  6.52227E+03
 -5.26394E+03  2.88399E+03 -3.45128E+03 -5.54696E+02 -7.46476E+02 -5.75372E+02 -9.02398E+02  5.70936E+02
 -2.28429E+03 -3.75800E+02 -1.24868E+03 -2.70697E+02 -2.37529E+02 -2.03356E+03 -6.50383E+02 -3.99311E+03
  4.50463E+03 -3.29031E+03  5.51676E+03  1.41084E+01  6.35495E+03  5.22625E+03  1.39128E+03  8.96347E+03
 -3.68803E+03  9.42557E+03 -9.45989E+03  5.97407E+03 -1.08599E+04 -6.69426E+02 -7.64119E+03 -6.61317E+03
 -4.21437E+03 -9.32781E+03  2.42212E+03 -8.35074E+03  5.58997E+03 -4.52422E+03  5.40516E+03  7.37957E+02
  4.26140E+03  3.25357E+03 -5.66065E+02  2.47047E+03 -1.84702E+03 -7.46019E+02 -1.85199E+02 -1.76079E+03
  2.84452E+03 -7.14408E+02  3.57261E+03  2.54169E+02  2.56407E+03  3.40746E+03  5.17766E+02  4.91964E+03
 -4.34404E+03  4.49821E+03 -5.50076E+03  8.21517E+01 -5.59777E+03 -4.35521E+03 -2.26911E+02 -7.81880E+03
  3.52755E+03 -6.49206E+03  6.29047E+03 -2.16681E+03  6.91109E+03  1.47300E+03  4.46932E+03  5.59942E+03
  8.54717E+02  6.81318E+03 -3.35193E+03  4.89684E+03 -3.97258E+03  2.17101E+03 -2.88608E+03  4.30380E+02
 -1.85003E+03 -7.37275E+02 -1.82388E+03  2.91668E+02 -2.72109E+03  1.52958E+03 -4.51798E+03 -6.20030E+02
 -4.83619E+03 -2.77111E+03 -1.62100E+03 -6.09471E+03  2.61385E+03 -6.37895E+03  5.60595E+03 -3.03373E+03
  6.16822E+03  1.95121E+02  3.37626E+03  3.84520E+03 -6.71199E+02  5.54146E+03 -5.40167E+03  3.08390E+03
