 $NMID ID='MM_0lb_SNR400_8hz_g50_45.RAW', FMTDAT='(8E13.5)'
 TRAMP=1., VOLUME=1. $END
  3.09765E+05 -3.05916E+02  3.37492E+05  2.51284E+05  8.45450E+04  3.38988E+05 -1.31441E+05  2.52321E+05
 -1.91502E+05  8.41117E+04 -1.12922E+05 -3.24120E+04 -1.55366E+02 -5.02205E+04  5.42315E+04  6.73854E+02
  3.55896E+04  5.33819E+04 -1.71270E+04  7.62757E+04 -6.16164E+04  6.42629E+04 -8.49377E+04  3.25136E+04
 -8.23341E+04 -1.18197E+04 -5.85587E+04 -5.19757E+04 -1.50239E+04 -7.14279E+04  2.72527E+04 -4.69742E+04
  4.15679E+04  3.18127E+03  1.70529E+04  4.83285E+04 -3.41768E+04  4.82472E+04 -6.84079E+04 -7.60248E+01
 -5.61757E+04 -5.80639E+04 -7.96934E+03 -7.93992E+04  3.40364E+04 -5.68166E+04  4.95201E+04 -1.78873E+04
  4.49894E+04  1.14958E+04  3.31513E+04  2.64393E+04  1.51507E+04  3.10541E+04 -6.41818E+03  2.85694E+04
 -2.28941E+04  1.22170E+04 -1.83668E+04 -6.26568E+03  7.69430E+03 -8.02630E+03  2.37768E+04  1.43382E+04
  7.43816E+03  3.91195E+04 -3.41869E+04  3.66386E+04 -6.63698E+04  2.75529E+03 -5.92841E+04 -4.51172E+04
 -1.22031E+04 -6.65523E+04  4.12544E+04 -4.81400E+04  6.16542E+04 -2.17890E+03  3.69458E+04  3.55123E+04
 -6.00359E+03  4.02546E+04 -3.24162E+04  1.96240E+04 -3.47229E+04 -3.37472E+03 -1.99084E+04 -1.15334E+04
 -9.05209E+03 -1.60600E+04  2.05379E+01 -2.07370E+04  8.34065E+03 -2.42623E+04  1.62357E+04 -1.31059E+04
  1.03220E+04  6.82539E+03 -1.07881E+04  1.27161E+04 -2.31438E+04 -6.98309E+03 -9.64504E+03 -3.86874E+04
  2.50994E+04 -4.84422E+04  5.29250E+04 -2.09662E+04  4.94363E+04  2.10586E+04  1.79523E+04  4.75455E+04
 -1.62730E+04  3.75005E+04 -2.81809E+04  2.45578E+03 -1.22573E+04 -2.95511E+04  2.12977E+04 -3.80186E+04
  4.57934E+04 -1.14963E+04  4.17466E+04  2.55551E+04  2.27547E+04  5.13161E+04 -8.11400E+03  5.67398E+04
 -3.58663E+04  3.85916E+04 -4.90524E+04  1.12302E+04 -4.82814E+04 -1.89371E+04 -2.71098E+04 -4.27313E+04
  7.55735E+03 -4.31797E+04  3.43326E+04 -1.83221E+04  3.24363E+04  1.23835E+04  4.51915E+03  2.11754E+04
 -1.47549E+04  9.81651E+03 -1.11484E+04 -7.54066E+03  6.09295E+03 -1.15779E+04  1.86989E+04  5.55420E+03
  1.53284E+04  2.25865E+04 -5.35167E+03  2.79635E+04 -2.48381E+04  1.44449E+04 -3.21717E+04 -2.32260E+03
 -2.67941E+04 -1.82265E+04 -1.20040E+04 -2.58250E+04  4.19587E+03 -2.65207E+04  1.95361E+04 -2.36502E+04
  3.32461E+04 -1.41260E+04  3.89007E+04  5.54629E+03  2.74579E+04  2.61662E+04  4.29196E+03  4.22357E+04
 -2.07113E+04  3.53557E+04 -3.08299E+04  1.21776E+04 -2.29228E+04 -9.31048E+03 -4.76516E+03 -1.29791E+04
  1.89350E+02 -8.02695E+02 -8.21936E+03  8.46222E+03 -2.08105E+04  5.34561E+03 -2.07177E+04 -1.02328E+04
 -1.26262E+04 -2.43014E+04  5.39179E+03 -2.96536E+04  1.94876E+04 -2.00116E+04  2.38513E+04 -1.54236E+03
  1.53611E+04  1.72710E+04 -1.70227E+03  2.38061E+04 -1.75863E+04  1.37582E+04 -2.50016E+04 -4.47396E+03
 -1.76349E+04 -2.20880E+04 -1.96501E+03 -2.88574E+04  1.28056E+04 -2.30627E+04  2.41151E+04 -1.24292E+04
  2.31123E+04 -1.09597E+03  1.63368E+04  4.32549E+03  9.72005E+03  1.65015E+03  1.36202E+04 -2.64433E+03
  2.35222E+04  2.64533E+03  2.73050E+04  1.92347E+04  1.87383E+04  3.96860E+04 -2.79113E+03  4.68201E+04
 -2.64800E+04  3.84679E+04 -4.38050E+04  2.01008E+04 -4.68374E+04 -3.63450E+03 -3.86432E+04 -2.70441E+04
 -1.55113E+04 -3.88385E+04  1.40075E+04 -3.51951E+04  2.95302E+04 -1.64367E+04  2.47804E+04  8.29739E+03
  8.67501E+03  1.94524E+04 -1.27452E+04  1.71478E+04 -2.05249E+04  2.12882E+03 -1.58319E+04 -1.31825E+04
 -2.71615E+02 -1.96842E+04  1.11357E+04 -1.47590E+04  1.40759E+04 -1.09381E+03  3.62550E+03  9.49143E+03
 -9.23419E+03  3.76918E+03 -9.47191E+03 -6.88837E+03 -9.42273E+02 -1.88413E+04  1.30708E+04 -2.08794E+04
  2.55847E+04 -1.22253E+04  2.80509E+04  3.01353E+03  2.49059E+04  1.97218E+04  1.07642E+04  3.07653E+04
 -5.79624E+03  3.31493E+04 -2.20868E+04  2.10671E+04 -2.46227E+04  3.50610E+03 -1.63266E+04 -6.60982E+03
 -6.65510E+03 -7.79459E+03 -9.58134E+00  8.88518E+02 -2.92601E+03  3.62387E+03 -7.96321E+03  5.11926E+03
 -1.45557E+04 -2.94961E+02 -1.53067E+04 -1.28762E+04 -6.41069E+03 -2.04197E+04  6.73136E+03 -1.66328E+04
  1.42799E+04 -7.14619E+03  9.96746E+03  3.74798E+03 -6.03595E+02  5.74004E+03 -8.45270E+03  1.56166E+02
 -8.45010E+03 -1.03911E+04 -1.34981E+03 -1.68562E+04  1.02909E+04 -1.82722E+04  2.08833E+04 -9.79471E+03
  2.52758E+04  2.26105E+03  1.73117E+04  1.45469E+04  4.24890E+03  2.06211E+04 -9.24013E+03  1.63120E+04
 -1.23285E+04  4.40269E+03 -7.75607E+03 -3.18146E+03  2.09098E+03 -5.28643E+03  9.08475E+03 -2.09434E+03
  8.14613E+03  7.34465E+03  1.84735E+03  1.35823E+04 -9.35793E+03  1.32283E+04 -1.74976E+04  2.88477E+03
 -1.22052E+04 -9.80932E+03 -1.15125E+02 -1.50785E+04  9.57223E+03 -7.12760E+03  1.07961E+04  3.42775E+03
  2.61157E+03  1.12712E+04 -9.37493E+03  1.25799E+04 -1.58626E+04  5.32182E+03 -1.47439E+04 -5.61063E+03
 -9.64249E+03 -1.76298E+04  4.30839E+03 -1.98175E+04  1.68925E+04 -1.19048E+04  1.87349E+04  3.42716E+03
  1.16497E+04  1.50674E+04 -2.34124E+03  1.78600E+04 -1.34101E+04  1.03914E+04 -1.43680E+04 -1.22537E+03
 -1.08711E+04 -1.19273E+04 -9.94394E+02 -1.31064E+04  8.33840E+03 -1.01850E+04  8.83688E+03 -3.72481E+03
  5.49859E+03  3.18141E+03 -8.30000E+02  1.63150E+03 -1.59833E+03 -3.87532E+03  2.81621E+03 -7.40382E+03
  1.29489E+04 -4.64259E+03  1.75256E+04  2.08618E+03  1.68497E+04  1.27425E+04  1.12955E+04  2.33381E+04
 -6.06209E+03  2.63025E+04 -2.15533E+04  1.96323E+04 -2.78270E+04  4.02130E+03 -2.27110E+04 -9.55293E+03
 -1.17156E+04 -1.85893E+04  1.90433E+02 -1.56602E+04  6.39753E+03 -9.66064E+03  5.21328E+03 -5.31726E+03
  4.63719E+03 -2.77416E+03  4.50371E+03 -4.29771E+03  5.58815E+03 -4.59882E+03  8.40416E+03 -2.06712E+03
  1.15719E+04  2.88320E+03  6.76108E+03  1.00785E+04 -2.29448E+03  1.24815E+04 -1.26627E+04  9.66101E+03
 -1.69821E+04 -1.18140E+03 -1.09154E+04 -1.20503E+04 -6.90162E+01 -1.75176E+04  9.40681E+03 -1.77701E+04
  1.86083E+04 -1.01058E+04  2.18916E+04  3.28897E+03  1.39725E+04  1.49786E+04  2.40335E+03  2.00374E+04
 -8.32905E+03  1.56447E+04 -1.10736E+04  6.29406E+03 -8.10814E+03 -1.73832E+03 -3.71747E+03 -2.98544E+03
 -1.47991E+03  1.97755E+01 -2.18637E+03  3.34161E+03 -6.09696E+03  2.23610E+03 -1.13180E+04 -1.37956E+03
 -8.39771E+03 -1.10428E+04 -4.80791E+02 -1.65283E+04  1.02699E+04 -1.60931E+04  1.62319E+04 -3.88253E+03
  1.54699E+04  7.33481E+03  8.48959E+03  1.52576E+04 -3.48074E+03  1.69873E+04 -1.14237E+04  1.01056E+04
 -1.64901E+04  7.17568E+02 -1.20925E+04 -1.04127E+04 -1.63907E+03 -1.37145E+04  7.49546E+03 -1.05429E+04
  1.13276E+04 -3.15213E+03  6.96437E+03  3.32225E+03  2.86923E+03  4.82415E+03  1.92663E+03  1.91842E+03
  2.47095E+03  8.82181E+02  4.07231E+03  2.08016E+03  5.06211E+03  6.44126E+03  4.82750E+03  9.17833E+03
 -3.10490E+03  1.34791E+04 -1.22658E+04  1.37836E+04 -1.72970E+04  2.58341E+03 -1.76017E+04 -7.03497E+03
 -7.79250E+03 -1.74113E+04  2.38516E+03 -1.83345E+04  1.07290E+04 -1.25114E+04  1.31012E+04 -3.13212E+03
  1.08793E+04  6.05267E+03  2.83369E+03  8.88037E+03 -4.23733E+03  6.41674E+03 -7.04452E+03 -5.98867E+02
 -3.20834E+03 -7.43782E+03  3.59989E+03 -7.72625E+03  7.29358E+03 -4.09606E+03  6.96281E+03  1.86233E+03
  4.53756E+03  3.89560E+03  1.94317E+03  2.66772E+03 -5.54771E+02  2.46780E+03  2.10621E+03 -1.95740E+02
  2.19851E+03 -9.25777E+02  6.26621E+03  2.20746E+03  3.96315E+03  8.49357E+03 -2.18974E+03  1.26507E+04
 -7.67459E+03  8.18212E+03 -1.13499E+04  1.98490E+03 -9.30160E+03 -4.64387E+03 -3.43298E+03 -6.32287E+03
  4.51754E+02 -6.54975E+03  3.62215E+03 -3.16238E+03  3.24008E+03  4.07008E+03 -2.15771E+03  5.90274E+03
 -7.63993E+03  3.69301E+03 -8.64544E+03 -4.47805E+03 -4.93193E+03 -9.96493E+03  1.67869E+03 -9.33228E+03
  5.73779E+03 -6.68702E+03  7.80425E+03 -6.99724E+02  5.33087E+03  1.99680E+03  1.78131E+03  4.18740E+03
 -4.36930E+03  1.74223E+03 -3.66525E+03 -3.44377E+03  1.56450E+03 -7.24356E+03  8.63063E+03 -6.65961E+03
  1.07258E+04  2.95798E+01  1.02063E+04  8.24726E+03  3.28284E+03  1.15519E+04 -4.03523E+03  1.11605E+04
 -9.46056E+03  4.72805E+03 -1.01181E+04 -1.99655E+03 -5.26446E+03 -7.88255E+03  8.16682E+02 -7.47169E+03
  6.58668E+03 -3.42045E+03  5.94466E+03  3.12796E+03  1.93988E+03  7.08503E+03 -1.18314E+03  4.88576E+03
 -2.66571E+03  3.70689E+03 -2.55920E+03  1.60101E+03 -1.48568E+03  5.56698E+02 -1.04028E+03  2.36868E+03
 -2.78285E+03  4.00986E+03 -7.83340E+03  4.41378E+03 -1.09042E+04  5.01053E+01 -1.30529E+04 -8.94043E+03
 -6.09101E+03 -1.57058E+04  2.12543E+03 -1.85685E+04  1.06724E+04 -1.41432E+04  1.62409E+04 -5.13672E+03
  1.62004E+04  3.72716E+03  9.42086E+03  1.15927E+04  1.19541E+03  1.30082E+04 -4.71015E+03  9.49368E+03
 -6.75784E+03  3.18091E+03 -3.42734E+03 -1.34941E+03 -1.21264E+03 -1.07445E+03 -4.34827E+02 -6.62896E+02
 -1.11925E+03  1.37703E+02 -2.43877E+03 -2.98876E+02 -1.26520E+03 -3.31235E+03  5.75256E+02 -4.86226E+03
  6.03149E+03 -4.16815E+03  8.53890E+03 -7.90028E+01  9.16872E+03  7.05119E+03  4.34990E+03  1.24758E+04
 -5.59104E+03  1.36753E+04 -1.36395E+04  9.00959E+03 -1.58915E+04 -7.06843E+02 -1.10657E+04 -9.69325E+03
 -4.61409E+03 -1.28806E+04  2.63388E+03 -1.19069E+04  8.01668E+03 -6.00902E+03  8.57708E+03 -5.61841E+02
  4.46038E+03  4.21126E+03 -2.76667E+02  4.25331E+03 -2.38218E+03 -1.02308E+03 -6.70048E+02 -3.70922E+03
  3.98613E+03 -2.21815E+03  4.94783E+03  1.56196E+03  4.19729E+03  5.20012E+03  9.50409E+02  6.90440E+03
 -5.99876E+03  6.22065E+03 -9.19358E+03  4.26068E+02 -7.31953E+03 -6.60729E+03 -1.31023E+03 -1.08829E+04
  6.31496E+03 -8.57715E+03  9.46910E+03 -3.11658E+03  1.00424E+04  2.26792E+03  5.66196E+03  7.73618E+03
  8.57456E+02  9.38558E+03 -2.35804E+03  6.81482E+03 -5.57503E+03  2.89724E+03 -3.87181E+03  3.80461E+02
 -2.74873E+03 -4.39207E+02 -2.05550E+03  5.24348E+02 -4.51460E+03  1.73783E+03 -6.25354E+03 -1.39944E+03
 -6.86720E+03 -4.78970E+03 -2.04187E+03 -8.71856E+03  4.24569E+03 -9.36689E+03  8.10834E+03 -5.36987E+03
  8.70118E+03  1.27338E+03  5.63922E+03  6.46655E+03 -4.74725E+02  8.63724E+03 -6.61250E+03  5.72315E+03
