 $NMID ID='MM_0lb_SNR400_16hz_g60_88.RAW', FMTDAT='(8E13.5)'
 TRAMP=1., VOLUME=1. $END
  3.09359E+05  3.24812E+02  3.37862E+05  2.50205E+05  8.44692E+04  3.37969E+05 -1.32470E+05  2.51289E+05
 -1.90482E+05  8.35069E+04 -1.11320E+05 -3.21776E+04  9.46697E+02 -5.09109E+04  5.36729E+04 -1.83565E+02
  3.48137E+04  5.29858E+04 -1.71086E+04  7.56384E+04 -6.08651E+04  6.34511E+04 -8.35899E+04  3.20678E+04
 -8.07907E+04 -1.13061E+04 -5.80829E+04 -5.10460E+04 -1.49078E+04 -7.03237E+04  2.72593E+04 -4.58060E+04
  4.03980E+04  3.30401E+03  1.61405E+04  4.80615E+04 -3.44818E+04  4.74765E+04 -6.67623E+04  3.09144E+02
 -5.35502E+04 -5.67753E+04 -6.79455E+03 -7.70952E+04  3.36812E+04 -5.51335E+04  4.84618E+04 -1.67100E+04
  4.36365E+04  1.12670E+04  3.21695E+04  2.51691E+04  1.59056E+04  2.95465E+04 -5.40267E+03  2.72479E+04
 -2.21239E+04  1.25113E+04 -1.89901E+04 -5.23085E+03  5.77784E+03 -7.27305E+03  2.20479E+04  1.23499E+04
  7.18604E+03  3.54401E+04 -3.17951E+04  3.55691E+04 -6.36756E+04  2.68124E+03 -5.68054E+04 -4.28110E+04
 -1.22296E+04 -6.35688E+04  4.04941E+04 -4.52704E+04  5.89448E+04 -2.03232E+03  3.42761E+04  3.24502E+04
 -6.06888E+03  3.59869E+04 -3.00682E+04  1.59802E+04 -3.07883E+04 -4.35523E+03 -1.63589E+04 -1.04111E+04
 -8.21520E+03 -1.29024E+04 -1.57572E+02 -1.83348E+04  7.08530E+03 -2.30382E+04  1.52379E+04 -1.31780E+04
  1.15977E+04  5.31409E+03 -8.70356E+03  1.28001E+04 -2.14695E+04 -4.50083E+03 -7.89271E+03 -3.39510E+04
  2.27664E+04 -4.30614E+04  4.82830E+04 -1.99205E+04  4.50642E+04  1.92524E+04  1.54301E+04  4.45626E+04
 -1.53017E+04  3.32625E+04 -2.48509E+04  1.86619E+03 -1.01597E+04 -2.78913E+04  2.09271E+04 -3.42884E+04
  4.05799E+04 -9.01041E+03  3.58422E+04  2.37304E+04  1.82687E+04  4.65349E+04 -8.51420E+03  5.04794E+04
 -3.18520E+04  3.38989E+04 -4.23258E+04  1.00426E+04 -4.24175E+04 -1.60372E+04 -2.37950E+04 -3.77905E+04
  7.55343E+03 -3.74825E+04  3.12794E+04 -1.50339E+04  2.92572E+04  1.07611E+04  3.91643E+03  1.92464E+04
 -1.34700E+04  7.75220E+03 -1.02016E+04 -7.40611E+03  5.94759E+03 -1.00325E+04  1.81125E+04  6.37966E+03
  1.41263E+04  2.17239E+04 -5.88183E+03  2.53475E+04 -2.24338E+04  1.10773E+04 -2.78034E+04 -4.62066E+03
 -2.05819E+04 -1.74669E+04 -7.62936E+03 -2.02579E+04  3.97509E+03 -2.02387E+04  1.55924E+04 -1.83505E+04
  2.57624E+04 -1.29514E+04  3.23530E+04  3.22771E+03  2.37276E+04  1.92183E+04  3.70829E+03  3.63717E+04
 -1.76847E+04  3.00654E+04 -2.76347E+04  1.00532E+04 -2.10709E+04 -1.04040E+04 -4.65175E+03 -1.30957E+04
  2.20325E+03 -2.44396E+03 -4.62126E+03  6.21653E+03 -1.62768E+04  5.39637E+03 -1.58915E+04 -6.60586E+03
 -9.98673E+03 -1.89524E+04  5.32681E+03 -2.25999E+04  1.48692E+04 -1.55282E+04  1.73635E+04 -1.52541E+03
  1.13847E+04  1.27296E+04 -1.81734E+03  1.90659E+04 -1.25719E+04  9.68876E+03 -1.86663E+04 -4.30527E+03
 -1.39568E+04 -1.73293E+04 -1.55994E+03 -2.24090E+04  1.03377E+04 -1.79383E+04  1.83136E+04 -9.15173E+03
  1.74367E+04  1.16957E+02  1.27783E+04  4.59683E+03  6.81036E+03  5.38105E+02  9.15012E+03 -1.83408E+03
  1.73653E+04  2.56245E+03  1.90661E+04  1.50725E+04  1.16392E+04  2.90545E+04 -2.43794E+03  3.26589E+04
 -1.96194E+04  2.64143E+04 -3.06783E+04  1.29199E+04 -3.22767E+04 -2.57575E+03 -2.71988E+04 -1.84601E+04
 -1.10597E+04 -2.61017E+04  9.18421E+03 -2.39622E+04  2.08856E+04 -1.22667E+04  1.84529E+04  5.21123E+03
  7.28796E+03  1.44759E+04 -8.84882E+03  1.15911E+04 -1.57143E+04  2.03614E+03 -1.28021E+04 -1.00974E+04
  1.86490E+02 -1.46224E+04  7.61643E+03 -1.12870E+04  9.22514E+03 -9.99352E+02  2.20857E+03  7.33861E+03
 -6.31390E+03  1.99813E+03 -5.49280E+03 -5.04966E+03 -3.02356E+02 -1.34057E+04  8.70810E+03 -1.30277E+04
  1.56930E+04 -6.88763E+03  1.67922E+04  2.89564E+03  1.49184E+04  1.31186E+04  6.34896E+03  1.86974E+04
 -2.68463E+03  2.06560E+04 -1.31032E+04  1.35328E+04 -1.48040E+04  3.34983E+03 -1.03836E+04 -3.03219E+03
 -4.61605E+03 -5.55714E+03 -7.87863E+02  1.45117E+03 -1.94865E+03  2.78634E+03 -4.65564E+03  3.61590E+03
 -1.02837E+04 -3.94576E+02 -1.03716E+04 -9.12598E+03 -4.25729E+03 -1.35954E+04  4.43358E+03 -1.03301E+04
  8.84945E+03 -4.56231E+03  6.36040E+03  2.69638E+03  5.99111E+01  3.68065E+03 -4.95291E+03 -1.72365E+02
 -4.09891E+03 -6.74482E+03 -1.31005E+03 -9.69305E+03  6.26608E+03 -1.06923E+04  1.36154E+04 -5.56250E+03
  1.56613E+04  1.49500E+03  1.11845E+04  8.79557E+03  2.11269E+03  1.18099E+04 -6.70361E+03  1.08088E+04
 -8.52053E+03  3.61950E+03 -4.23323E+03 -1.58633E+03  1.76467E+03 -2.58213E+03  5.89786E+03 -8.19865E+02
  4.89717E+03  4.07220E+03  1.06314E+03  8.12711E+03 -5.73490E+03  8.03067E+03 -1.01767E+04  2.62278E+03
 -5.77509E+03 -4.89657E+03  6.46703E+02 -9.43922E+03  4.96935E+03 -4.30047E+03  5.14380E+03  1.48633E+03
  1.31904E+03  5.78270E+03 -5.16611E+03  7.01623E+03 -7.12529E+03  2.88681E+03 -7.14642E+03 -2.49545E+03
 -4.45846E+03 -8.46496E+03  1.66441E+03 -1.03223E+04  9.05601E+03 -6.33019E+03  9.38074E+03  2.35613E+03
  6.30093E+03  7.46849E+03 -1.00779E+03  9.61181E+03 -6.58072E+03  5.33670E+03 -7.49543E+03 -5.67029E+02
 -7.18527E+03 -6.83223E+03 -1.21166E+03 -7.58689E+03  3.38534E+03 -6.22005E+03  4.14803E+03 -3.11355E+03
  3.32924E+03  1.07887E+03 -3.67264E+02  1.41589E+03 -3.58330E+02 -1.24224E+03  9.40592E+02 -3.59698E+03
  6.11438E+03 -1.93918E+03  8.47845E+03  6.68464E+02  7.53453E+03  4.83359E+03  6.99612E+03  1.08400E+04
 -2.58537E+03  1.24677E+04 -1.05386E+04  9.41766E+03 -1.39401E+04  1.04342E+03 -1.12596E+04 -4.63195E+03
 -5.35091E+03 -9.05505E+03 -3.36444E+02 -7.56185E+03  3.24161E+03 -3.54592E+03  3.04948E+03 -2.71639E+03
  1.50540E+03 -1.87714E+03  1.63811E+03 -2.25339E+03  4.57617E+03 -1.69145E+03  4.76315E+03  2.66439E+02
  5.80438E+03  1.29294E+03  2.25727E+03  4.91077E+03 -1.34507E+03  5.53627E+03 -5.96709E+03  4.29466E+03
 -7.06242E+03 -1.12217E+03 -3.76955E+03 -5.46860E+03 -3.48780E+01 -7.55669E+03  4.25375E+03 -7.72724E+03
  7.27669E+03 -4.37161E+03  9.81011E+03  7.74422E+02  6.84829E+03  6.82764E+03  1.59528E+03  8.48550E+03
 -3.32620E+03  7.40334E+03 -5.13621E+03  3.13668E+03 -3.09074E+03 -1.12018E+03 -8.76464E+02 -1.17503E+03
 -6.66934E+02  2.86167E+02 -1.35867E+03  1.72890E+03 -3.29279E+03  1.45981E+03 -5.37819E+03 -7.81985E+02
 -2.98916E+03 -5.79684E+03  1.42547E+02 -7.17530E+03  3.87559E+03 -6.90555E+03  5.78415E+03 -1.64541E+03
  6.63738E+03  2.96525E+03  3.45040E+03  5.58574E+03 -1.14397E+03  6.88075E+03 -4.42653E+03  4.11875E+03
 -6.23854E+03  4.51069E+02 -5.15017E+03 -3.71928E+03 -5.20637E+02 -5.33060E+03  3.61972E+03 -4.07051E+03
  4.44653E+03 -1.35220E+03  2.70062E+03  3.88996E+02  1.19034E+03  2.25280E+03  9.86505E+02  6.82889E+02
  1.64279E+03  8.96527E+02  1.44715E+03  8.63228E+02  1.83866E+03  2.84242E+03  2.10936E+03  2.81269E+03
 -1.66315E+03  4.74346E+03 -4.61786E+03  5.42619E+03 -5.44397E+03  1.19955E+03 -6.99069E+03 -1.35277E+03
 -3.28751E+03 -5.65099E+03  9.88516E+02 -6.93875E+03  3.51474E+03 -3.61967E+03  4.78717E+03 -1.36338E+03
  3.41423E+03  2.34030E+03  9.76445E+01  3.77620E+03 -1.14830E+03  2.02159E+03 -1.47160E+03 -3.03720E+02
 -8.90800E+02 -2.32454E+03  1.32224E+03 -2.77370E+03  1.57318E+03 -1.57974E+03  2.38190E+03  9.67699E+02
  1.61604E+03  1.02441E+03  2.19913E+02 -1.11094E+02 -4.31925E+02  1.13938E+03  1.42163E+03 -7.76872E+02
  8.37925E+02  1.01817E+02  2.21061E+03  9.28228E+02  1.34891E+03  3.07962E+03 -5.79517E+02  3.93888E+03
 -2.54812E+03  2.40249E+03 -3.91542E+03  5.05800E+02 -2.65225E+03 -1.68368E+03 -1.51098E+02 -2.10020E+03
  1.54478E+02 -2.28678E+03  1.92435E+03 -1.11822E+03  1.11157E+03  2.00371E+03 -3.04565E+02  1.50897E+03
 -2.49238E+03  8.41182E+02 -1.75803E+03 -1.92743E+03 -1.10131E+03 -3.65610E+03  5.44751E+02 -2.37403E+03
  1.62526E+03 -1.81010E+03  2.11052E+03  5.15926E+02  1.86031E+03 -7.08375E+01  6.02329E+02  1.88929E+03
 -9.19315E+02 -4.49268E+02 -1.66761E+03 -8.29533E+02  7.72023E+02 -1.66848E+03  2.91879E+03 -1.18457E+03
  2.21277E+03  4.10085E+02  3.99912E+03  1.36614E+03  1.74685E+03  3.18141E+03 -1.05248E+03  2.99560E+03
 -2.53586E+03  9.98004E+02 -2.86476E+03 -1.42518E+02 -1.74557E+03 -2.09773E+03 -2.20763E+02 -1.21716E+03
  2.36956E+03 -5.13921E+02  1.23884E+03  1.20672E+03  5.67022E+02  1.33641E+03 -2.82729E+02  1.41773E+03
 -4.55119E+02  1.50906E+03 -6.72039E+02  7.33432E+02 -1.58835E+02  3.17322E+02 -1.91158E+03  3.50819E+02
 -1.78942E+02  1.66460E+03 -2.09084E+03  9.58805E+02 -2.66456E+03 -2.43073E+00 -4.03245E+03 -2.30319E+03
 -1.96462E+03 -4.20901E+03  6.39986E+02 -4.28505E+03  2.40508E+03 -3.58421E+03  4.45362E+03 -1.40677E+03
  3.03198E+03  2.68380E+02  2.57746E+03  2.59154E+03 -6.55367E+02  2.68826E+03 -7.40482E+02  1.91818E+03
 -1.23191E+03  9.92126E+02 -1.00046E+03 -7.81485E+02 -3.22357E+02  1.34941E+02 -7.58038E+02 -1.11847E+02
 -1.05888E+03 -2.93447E+02 -1.01551E+03  2.85964E+02  1.99846E+02 -3.54367E+02 -2.95484E+02 -1.12094E+03
  2.43934E+03 -6.92518E+02  4.54176E+02  4.71924E+02  2.26297E+03  1.47427E+03  2.63870E+02  2.59623E+03
 -1.28765E+03  3.21103E+03 -3.14401E+03  1.90074E+03 -2.67961E+03 -1.75420E+02 -1.84634E+03 -1.76941E+03
 -5.02203E+02 -3.03323E+03  2.55629E+02 -2.32367E+03  1.68726E+03 -7.90773E+02  1.03570E+03 -2.68262E+02
  7.76156E+02  8.45533E+02  5.84441E+02  1.09346E+03 -2.29503E+02  3.78387E+01 -4.34763E+01 -5.36934E+02
  1.65388E+03 -2.37537E+02  9.65112E+02  8.38367E+02 -2.18848E+02  7.25887E+02  3.91381E+02  1.09160E+03
 -6.03922E+02  1.21808E+03 -1.05352E+03  1.93631E+01 -1.60584E+03 -1.02024E+03 -8.96944E+02 -2.28951E+03
  1.57723E+03 -1.62379E+03  1.43550E+03 -5.68985E+02  2.07323E+03 -1.39059E+02  4.50796E+02  1.89047E+03
  8.87199E+02  1.00818E+03  2.63006E+02  1.27978E+03 -9.85800E+02  1.19053E+03 -6.57387E+02  2.39953E+02
 -6.86162E+01 -1.86265E+02 -3.47591E+02 -1.04153E+02 -7.53629E+02  1.09617E+02 -7.83790E+02 -4.23970E+02
 -1.39836E+03 -1.70416E+02 -5.21301E+02 -2.25618E+03  1.11715E+03 -2.03740E+03  1.36282E+03 -6.70155E+02
  1.54453E+03 -2.07156E+02 -5.28188E+01  5.31026E+02 -5.15376E+02  2.15812E+03 -7.81727E+02  1.33445E+03
