 $NMID ID='MM_0lb_SNR400_20hz_g40_94.RAW', FMTDAT='(8E13.5)'
 TRAMP=1., VOLUME=1. $END
  3.09601E+05  1.00024E+03  3.36860E+05  2.50132E+05  8.39215E+04  3.36837E+05 -1.32703E+05  2.49961E+05
 -1.88659E+05  8.19849E+04 -1.10348E+05 -3.29413E+04  1.53975E+03 -5.01668E+04  5.39185E+04  6.03732E+02
  3.50084E+04  5.27934E+04 -1.73656E+04  7.45165E+04 -5.97339E+04  6.22128E+04 -8.21487E+04  3.11819E+04
 -7.91392E+04 -1.09409E+04 -5.51615E+04 -4.91736E+04 -1.46845E+04 -6.74105E+04  2.64007E+04 -4.44297E+04
  3.89061E+04  3.83217E+03  1.49384E+04  4.65439E+04 -3.35605E+04  4.58413E+04 -6.42710E+04 -6.85482E+02
 -5.11859E+04 -5.58786E+04 -6.05111E+03 -7.34898E+04  3.24681E+04 -5.15892E+04  4.57327E+04 -1.57553E+04
  4.08599E+04  1.07291E+04  3.03949E+04  2.39532E+04  1.58366E+04  2.74864E+04 -4.42127E+03  2.65518E+04
 -2.15395E+04  1.29323E+04 -1.93477E+04 -4.21878E+03  3.69433E+03 -7.71751E+03  2.04439E+04  1.02648E+04
  7.51487E+03  3.23272E+04 -2.99756E+04  3.30926E+04 -5.97445E+04  2.62807E+03 -5.45148E+04 -4.08688E+04
 -1.22384E+04 -5.99113E+04  3.69068E+04 -4.15808E+04  5.42338E+04 -1.88588E+03  3.06705E+04  2.94532E+04
 -6.89903E+03  3.12551E+04 -2.79852E+04  1.16899E+04 -2.63761E+04 -5.81315E+03 -1.33499E+04 -9.40818E+03
 -6.72753E+03 -1.09552E+04 -1.29194E+03 -1.63784E+04  6.22936E+03 -2.19554E+04  1.42923E+04 -1.41341E+04
  1.24857E+04  4.11738E+03 -5.17406E+03  1.29579E+04 -1.78878E+04 -1.55046E+03 -7.85743E+03 -2.83890E+04
  1.99942E+04 -3.91582E+04  4.31353E+04 -1.77548E+04  4.06237E+04  1.79309E+04  1.38846E+04  4.06269E+04
 -1.48682E+04  3.03099E+04 -2.25371E+04  7.47396E+02 -7.26577E+03 -2.57323E+04  1.96746E+04 -2.94570E+04
  3.71122E+04 -6.57501E+03  2.96929E+04  2.18648E+04  1.41740E+04  4.06994E+04 -7.57742E+03  4.24351E+04
 -2.68454E+04  2.81404E+04 -3.48177E+04  7.17254E+03 -3.65910E+04 -1.40366E+04 -2.00547E+04 -3.28833E+04
  7.03495E+03 -3.21252E+04  2.82078E+04 -1.18036E+04  2.58296E+04  1.00685E+04  2.02309E+03  1.69877E+04
 -1.27176E+04  6.53425E+03 -9.25128E+03 -7.01745E+03  6.00957E+03 -9.51575E+03  1.67662E+04  6.31746E+03
  1.19058E+04  2.12142E+04 -7.26156E+03  2.24187E+04 -2.13393E+04  8.03183E+03 -2.42407E+04 -7.46837E+03
 -1.51017E+04 -1.62567E+04 -3.37922E+03 -1.53578E+04  3.42133E+03 -1.28224E+04  1.09391E+04 -1.23422E+04
  1.90975E+04 -1.12194E+04  2.62235E+04  3.71791E+02  2.00125E+04  1.46442E+04  4.00819E+03  3.07162E+04
 -1.56201E+04  2.61190E+04 -2.46757E+04  9.19156E+03 -1.91041E+04 -1.04642E+04 -3.91169E+03 -1.39566E+04
  2.81899E+03 -4.88093E+03 -2.07574E+03  4.78236E+03 -1.14787E+04  5.34183E+03 -1.24257E+04 -4.12003E+03
 -8.41333E+03 -1.40584E+04  4.06366E+03 -1.73108E+04  1.15931E+04 -1.27737E+04  1.31023E+04 -1.71612E+03
  8.29242E+03  9.80737E+03 -6.80337E+02  1.40481E+04 -8.78642E+03  7.92746E+03 -1.41188E+04 -3.30237E+03
 -1.09872E+04 -1.28125E+04 -1.24400E+03 -1.73597E+04  7.93903E+03 -1.38326E+04  1.48389E+04 -6.26196E+03
  1.28764E+04  8.39701E+02  9.14495E+03  3.37786E+03  5.10311E+03  6.28514E+02  6.69836E+03 -1.08103E+03
  1.23384E+04  2.71018E+03  1.23771E+04  1.15238E+04  7.92005E+03  2.21382E+04 -2.76747E+03  2.37682E+04
 -1.43947E+04  1.75476E+04 -2.15883E+04  8.16541E+03 -2.20023E+04 -1.15026E+03 -1.88471E+04 -1.24611E+04
 -9.43611E+03 -1.79298E+04  5.41678E+03 -1.66785E+04  1.43876E+04 -1.03909E+04  1.33862E+04  3.20671E+03
  6.01524E+03  9.90428E+03 -6.55324E+03  9.75549E+03 -1.23904E+04  3.04828E+03 -9.27080E+03 -6.75631E+03
  7.86878E+02 -1.11075E+04  5.55304E+03 -8.42198E+03  6.69120E+03 -1.53222E+03  1.17777E+03  4.50484E+03
 -4.72218E+03  1.02218E+03 -2.60388E+03 -4.39256E+03  9.62887E+02 -8.82232E+03  7.06045E+03 -8.55445E+03
  1.02877E+04 -3.65191E+03  9.44312E+03  2.96439E+03  8.29979E+03  8.03655E+03  3.68916E+03  1.23302E+04
 -1.27289E+03  1.38084E+04 -7.92370E+03  8.88536E+03 -9.47378E+03  3.04303E+03 -7.62287E+03 -1.48805E+03
 -4.27069E+03 -2.54383E+03 -9.63526E+02  1.62337E+03 -1.17990E+03  2.30292E+03 -2.87332E+03  3.44787E+03
 -6.55598E+03 -4.13101E+02 -7.85927E+03 -6.84041E+03 -3.40531E+03 -1.03440E+04  2.66566E+03 -7.17140E+03
  6.29901E+03 -3.40741E+03  4.57754E+03  1.69571E+03  8.65071E+02  3.03037E+03 -3.08112E+03 -7.04927E+01
 -3.32168E+03 -4.47009E+03 -8.35628E+02 -6.15589E+03  3.42676E+03 -6.77793E+03  8.48446E+03 -3.22445E+03
  1.01809E+04  1.30516E+02  7.43197E+03  5.15118E+03  1.20935E+03  7.04907E+03 -5.22622E+03  7.69986E+03
 -6.25716E+03  2.83068E+03 -2.99995E+03 -1.11166E+03  1.38819E+03 -1.53507E+03  4.31391E+03 -8.05524E+02
  3.78597E+03  2.99959E+03  1.10051E+03  5.67933E+03 -3.25912E+03  5.67850E+03 -7.21375E+03  1.68903E+03
 -3.82822E+03 -3.04094E+03  4.25730E+02 -6.00577E+03  3.16157E+03 -2.59741E+03  2.95601E+03  8.10140E+02
  1.83604E+02  2.41581E+03 -3.55047E+03  4.12123E+03 -4.16145E+03  1.79408E+03 -3.07930E+03 -5.34200E+02
 -2.17471E+03 -4.61708E+03  9.45866E+02 -5.11791E+03  5.06373E+03 -3.58898E+03  5.26480E+03  4.24277E+02
  4.02021E+03  4.17423E+03  3.39123E+02  6.01834E+03 -4.37022E+03  3.88748E+03 -3.95184E+03 -7.01777E+02
 -5.61124E+03 -4.24517E+03 -1.54303E+03 -4.12833E+03  2.28862E+03 -3.69720E+03  1.99907E+03 -3.09998E+03
  2.62922E+03  1.02287E+01 -1.33337E+02  8.20763E+02  5.63399E+02 -2.56337E+02 -4.41295E+02 -8.04004E+02
  3.22325E+03 -3.67908E+02  3.67312E+03  4.48937E+02  4.22563E+03  2.47250E+03  4.74122E+03  5.37048E+03
 -1.21069E+03  7.37094E+03 -6.11004E+03  5.45752E+03 -8.29320E+03  9.41229E+02 -6.23627E+03 -2.27988E+03
 -3.50220E+03 -5.37322E+03  1.57762E+02 -4.21096E+03  1.96718E+03 -1.65573E+03  1.57867E+03 -1.74941E+03
  5.40588E+02 -1.37701E+03  1.92169E+03 -2.23590E+03  3.18407E+03 -1.61748E+03  3.28763E+03  9.04383E+02
  4.05172E+03  1.16139E+03  4.69351E+02  2.78728E+03 -1.27849E+03  1.55407E+03 -4.17995E+03  1.93963E+03
 -3.65309E+03 -1.13339E+03 -1.08371E+03 -3.11635E+03  8.94447E+02 -3.46476E+03  2.80880E+03 -4.67845E+03
  4.01744E+03 -2.80868E+03  5.06943E+03 -8.17772E+01  3.72546E+03  3.26164E+03  1.40001E+03  4.68262E+03
 -1.51864E+03  5.13867E+03 -2.72663E+03  1.76457E+03 -1.85120E+03 -5.76419E+02 -2.42213E+02 -1.52267E+02
  3.92376E+02  4.15501E+02 -1.01704E+03  1.41306E+03 -2.70192E+03  1.02247E+03 -3.84960E+03 -1.55380E+02
 -1.20410E+03 -3.78423E+03  8.89913E+02 -3.94339E+03  2.17213E+03 -3.80721E+03  2.68047E+03 -5.88419E+02
  3.58113E+03  2.23462E+03  1.32631E+03  2.53592E+03 -9.82304E+02  3.51622E+03 -1.72557E+03  1.63952E+03
 -3.23871E+03  5.75453E+02 -2.62166E+03 -1.74448E+03 -2.72019E+02 -2.29963E+03  1.28379E+03 -1.93778E+03
  2.21529E+03 -1.09032E+03  1.77157E+03  4.42747E+02  1.53770E+02  1.29237E+03  1.16102E+03  2.15861E+02
  1.17633E+03  1.07299E+03  7.12783E+02  1.23132E+03  1.03715E+03  2.25119E+03  1.08761E+03  1.10241E+03
 -1.38123E+03  2.20001E+03 -1.85528E+03  3.13174E+03 -2.15950E+03  1.03568E+03 -2.92476E+03  5.28979E+02
 -1.06971E+03 -2.37871E+03  7.63126E+02 -3.35797E+03  1.60722E+03 -1.96904E+03  2.07027E+03 -8.48935E+02
  2.04754E+03  1.31160E+03  6.48189E+02  1.78163E+03 -5.99062E+02  1.16522E+03 -5.11297E+02 -3.78627E+02
 -4.38480E+02 -1.73539E+03  8.59825E+02 -1.42266E+03  5.90738E+02 -8.85205E+02  1.33461E+03 -4.50279E+02
  6.67850E+02  1.21777E+02  8.59713E+02 -3.61693E+02 -2.02355E+02  4.91585E+02  1.72855E+03 -6.10220E+02
 -3.62607E+01 -7.16069E+02  1.42296E+03  3.16021E+02 -3.03858E+02  1.53469E+03  1.53976E+02  2.37622E+03
 -1.18750E+03  1.00780E+03 -1.07531E+03  1.59412E+02 -1.40574E+03 -6.14941E+02  1.20844E+02 -8.09130E+02
 -2.03121E+02 -1.04251E+03  6.63325E+02 -7.74435E+02  7.08233E+02  1.18275E+03 -9.62653E+02  1.19940E+03
 -1.01704E+03  2.78677E+02 -5.24832E+02 -1.09492E+03 -6.44597E+02 -1.86774E+03  1.89746E+02 -1.22021E+03
 -4.03440E+02 -6.07433E+02  5.48121E+02 -1.52446E+02  3.54687E+02 -2.21289E+02  5.95188E+02  7.80428E+02
 -3.75328E+02 -2.06921E+02 -5.14956E+02 -2.74820E+02  5.61030E+02 -8.22070E+02  1.19342E+03 -3.41434E+02
  1.13507E+03  5.29606E+02  2.05866E+03 -1.03481E+02  7.68660E+02  1.02811E+03 -6.61958E+02  1.71091E+03
 -7.11747E+02 -1.10132E+02 -1.00861E+03 -1.52760E+02 -8.88235E+02 -9.05491E+02 -4.66185E+01 -4.43698E+02
  1.00238E+03 -6.78593E+02  5.46641E+02  1.04141E+03 -4.51044E+02  1.07460E+03 -4.80302E+01  7.76897E+02
 -3.27051E+00  4.17449E+02 -1.11524E+02 -6.89984E+01 -1.26122E+02  2.33812E+02 -7.49488E+02  1.29940E+02
 -8.40133E+02  1.19215E+03 -1.54293E+03  8.10925E+02 -1.72781E+03  3.28338E+02 -2.58121E+03 -1.17033E+03
 -2.03084E+02 -1.70342E+03  8.55587E+02 -2.65161E+03  2.81579E+02 -1.90606E+03  2.50571E+03 -1.41273E+03
  1.83762E+03  3.09532E+00  5.08234E+02  9.75049E+02 -3.28347E+02  7.08676E+02 -6.69526E+02  1.06726E+03
 -1.01059E+03  3.31801E+02 -4.39150E+02 -3.19735E+02 -2.85085E+02 -5.41206E+01 -9.01564E+02  8.80157E+01
 -7.44779E+02 -2.10895E+02 -7.29630E+02  1.03088E+02  2.93511E+02 -3.14193E+02 -1.13758E+03 -1.09298E+03
  3.58985E+02 -2.14956E+02  3.26166E+02  4.44584E+02  1.13620E+03  5.94461E+02 -7.00225E+02  9.69152E+02
 -2.44778E+02  1.70743E+03 -1.03381E+03  1.17286E+03 -1.48113E+03 -8.63073E+01 -1.02566E+03 -1.26660E+03
 -7.95164E+02 -6.82992E+02  2.06520E+02 -8.74280E+02  3.85033E+02 -2.08755E+02  2.73600E+02  1.91248E+02
  2.97817E+02  3.82554E+02  1.13556E+02 -1.71141E+02 -5.58061E+02  1.92062E+02  1.61699E+02  1.39615E+02
  4.46710E+02  5.86732E+02  1.66860E+02  3.13545E+02 -3.28963E+02  3.59189E+02  8.98148E+02  4.96331E+02
 -7.60936E+02  4.78879E+02 -7.93429E+02  2.20942E+02 -2.44470E+02 -7.09973E+02  4.59824E+02 -7.22796E+02
  5.28569E+02  1.16102E+02  3.28102E+02 -9.60789E+01  6.35834E+02 -3.82516E+02  1.25309E+02  9.19707E+02
  1.55257E+02  3.87444E+02 -3.56594E+02  6.06383E+02 -2.31214E+02  8.11210E+02 -2.17333E+02  2.77542E+02
  1.22200E+02 -2.54897E+02 -3.81699E+02 -2.52296E+02 -3.65505E+02 -2.97146E+02 -8.12638E+02 -2.63079E+02
 -8.45502E+02  7.73160E+02 -1.06413E+02 -1.10811E+03  6.57344E+02 -1.51189E+03  6.85461E+02  1.16905E+02
  7.36135E+02  6.49155E+02 -3.01575E+02 -6.80251E+01  3.71966E+01  1.04719E+03  3.72009E+02 -1.90639E+02
