 $NMID ID='MM_0lb_SNR400_16hz_g50_24.RAW', FMTDAT='(8E13.5)'
 TRAMP=1., VOLUME=1. $END
  3.10384E+05  1.43276E+02  3.37817E+05  2.50914E+05  8.43077E+04  3.37859E+05 -1.33242E+05  2.50867E+05
 -1.90134E+05  8.30588E+04 -1.10346E+05 -3.23783E+04  9.60444E+02 -5.02981E+04  5.40944E+04  1.76831E+02
  3.48867E+04  5.24894E+04 -1.65214E+04  7.54022E+04 -6.04066E+04  6.34007E+04 -8.34755E+04  3.17719E+04
 -8.07113E+04 -1.13181E+04 -5.76249E+04 -5.11030E+04 -1.46055E+04 -6.92664E+04  2.70222E+04 -4.53977E+04
  3.98927E+04  3.98272E+03  1.55694E+04  4.76011E+04 -3.40258E+04  4.69067E+04 -6.61674E+04 -3.49355E+02
 -5.25706E+04 -5.64085E+04 -7.02747E+03 -7.63056E+04  3.36438E+04 -5.41606E+04  4.79571E+04 -1.70974E+04
  4.30048E+04  1.18138E+04  3.12556E+04  2.52050E+04  1.56813E+04  2.87933E+04 -4.54195E+03  2.74509E+04
 -2.19659E+04  1.24557E+04 -1.88941E+04 -4.78208E+03  5.12139E+03 -7.78413E+03  2.15655E+04  1.16997E+04
  7.54829E+03  3.45490E+04 -3.11292E+04  3.50336E+04 -6.26926E+04  1.97956E+03 -5.60537E+04 -4.24897E+04
 -1.19875E+04 -6.24279E+04  3.88946E+04 -4.48960E+04  5.71976E+04 -2.36310E+03  3.39008E+04  3.19925E+04
 -5.86974E+03  3.51538E+04 -2.96109E+04  1.46261E+04 -2.98881E+04 -5.09254E+03 -1.57210E+04 -1.04579E+04
 -7.95534E+03 -1.25621E+04 -5.49710E+02 -1.79408E+04  7.45433E+03 -2.27667E+04  1.53579E+04 -1.34588E+04
  1.14188E+04  4.51653E+03 -6.89653E+03  1.25531E+04 -2.05308E+04 -3.68009E+03 -8.39262E+03 -3.23936E+04
  2.24608E+04 -4.32432E+04  4.68520E+04 -1.96397E+04  4.38493E+04  1.87473E+04  1.54031E+04  4.32903E+04
 -1.61103E+04  3.24251E+04 -2.47606E+04  1.46918E+03 -9.28962E+03 -2.73754E+04  2.11053E+04 -3.32928E+04
  3.95221E+04 -8.07809E+03  3.34710E+04  2.29832E+04  1.68870E+04  4.47164E+04 -7.71478E+03  4.83821E+04
 -3.02489E+04  3.22194E+04 -3.98275E+04  8.82744E+03 -4.12381E+04 -1.58592E+04 -2.27134E+04 -3.64024E+04
  7.18863E+03 -3.65991E+04  2.99606E+04 -1.42026E+04  2.83003E+04  1.09602E+04  3.99597E+03  1.84354E+04
 -1.34158E+04  7.70164E+03 -1.01541E+04 -7.75818E+03  5.69563E+03 -1.06595E+04  1.77050E+04  5.96416E+03
  1.27180E+04  2.21865E+04 -5.84109E+03  2.40470E+04 -2.21536E+04  1.04481E+04 -2.65850E+04 -5.81359E+03
 -1.89358E+04 -1.69344E+04 -7.06467E+03 -1.92858E+04  4.08154E+03 -1.75794E+04  1.36992E+04 -1.65825E+04
  2.36609E+04 -1.30615E+04  3.04786E+04  1.52359E+03  2.31938E+04  1.86416E+04  4.15366E+03  3.47798E+04
 -1.73655E+04  2.88139E+04 -2.71192E+04  9.94291E+03 -2.07096E+04 -1.02689E+04 -4.57550E+03 -1.36644E+04
  2.16749E+03 -3.13196E+03 -4.22820E+03  5.98623E+03 -1.50377E+04  4.86435E+03 -1.47001E+04 -6.70007E+03
 -9.20233E+03 -1.76826E+04  5.01693E+03 -2.13262E+04  1.41872E+04 -1.51542E+04  1.66386E+04 -2.05929E+03
  1.03366E+04  1.21473E+04 -8.15459E+02  1.75552E+04 -1.18897E+04  1.01134E+04 -1.77173E+04 -3.30415E+03
 -1.25991E+04 -1.55310E+04 -2.00064E+03 -2.09922E+04  1.01483E+04 -1.74074E+04  1.74281E+04 -8.64216E+03
  1.66881E+04  2.05547E+02  1.14352E+04  4.29443E+03  6.47769E+03  6.70889E+02  8.72180E+03 -9.77102E+02
  1.62645E+04  2.78165E+03  1.75092E+04  1.36441E+04  1.12296E+04  2.81183E+04 -2.98905E+03  3.14693E+04
 -1.81269E+04  2.41083E+04 -2.79667E+04  1.23421E+04 -2.98204E+04 -2.28087E+03 -2.52936E+04 -1.71639E+04
 -1.12700E+04 -2.49897E+04  8.31335E+03 -2.24195E+04  1.97470E+04 -1.20263E+04  1.73888E+04  4.14865E+03
  6.69015E+03  1.27974E+04 -8.97468E+03  1.21086E+04 -1.51765E+04  2.84998E+03 -1.09159E+04 -8.86000E+03
 -1.08746E+02 -1.36116E+04  7.59214E+03 -1.01879E+04  9.01756E+03 -1.51671E+03  1.87497E+03  5.79752E+03
 -6.25398E+03  1.82626E+03 -4.80404E+03 -5.61288E+03 -6.63059E+01 -1.24110E+04  9.12950E+03 -1.23679E+04
  1.50416E+04 -6.46443E+03  1.49756E+04  2.75283E+03  1.29401E+04  1.17319E+04  6.29216E+03  1.76972E+04
 -2.23891E+03  1.94793E+04 -1.20272E+04  1.20067E+04 -1.32495E+04  3.17496E+03 -9.55410E+03 -2.40402E+03
 -5.05990E+03 -4.17511E+03 -4.65209E+02  1.46329E+03 -2.26978E+03  1.69052E+03 -4.05719E+03  4.30951E+03
 -9.37844E+03 -4.60322E+02 -1.02473E+04 -8.40876E+03 -4.81333E+03 -1.29395E+04  3.79976E+03 -1.02116E+04
  8.91483E+03 -4.96708E+03  6.20850E+03  2.06956E+03  3.40495E+02  4.08566E+03 -4.12854E+03  2.45230E+01
 -4.55050E+03 -5.91692E+03 -6.15073E+02 -8.67439E+03  5.19227E+03 -9.70254E+03  1.17905E+04 -4.78020E+03
  1.44351E+04  1.71043E+03  1.08422E+04  7.82268E+03  2.25961E+03  1.12278E+04 -6.51320E+03  1.06732E+04
 -7.90820E+03  2.77858E+03 -4.55707E+03 -1.32894E+03  1.43655E+03 -2.37965E+03  5.52255E+03 -1.30136E+03
  4.91420E+03  3.86537E+03  9.62726E+02  8.14134E+03 -5.81841E+03  8.00877E+03 -9.78207E+03  2.03405E+03
 -5.90287E+03 -5.01610E+03  1.01172E+02 -7.82283E+03  5.02515E+03 -4.11820E+03  5.14737E+03  1.60294E+03
  5.78565E+02  4.80182E+03 -4.30185E+03  6.11944E+03 -6.15193E+03  2.88800E+03 -6.02532E+03 -2.20350E+03
 -3.94014E+03 -8.05777E+03  1.46247E+03 -9.40138E+03  7.85638E+03 -6.70559E+03  8.71553E+03  1.73216E+03
  6.13303E+03  6.92029E+03 -3.38750E+02  9.04817E+03 -6.01504E+03  5.15230E+03 -6.33633E+03 -7.61892E+02
 -6.59590E+03 -5.62472E+03 -1.25110E+03 -6.73295E+03  3.70541E+03 -5.71258E+03  3.66151E+03 -3.24208E+03
  2.81977E+03  3.37706E+02 -2.07945E+02  1.40423E+03  1.49121E+02 -8.93966E+02  7.99031E+02 -2.69668E+03
  5.85363E+03 -1.52786E+03  7.66451E+03  6.80368E+02  7.53913E+03  5.23956E+03  6.09912E+03  9.36387E+03
 -2.07638E+03  1.19246E+04 -1.03614E+04  8.72827E+03 -1.30131E+04  1.60684E+03 -1.00608E+04 -3.63135E+03
 -4.75559E+03 -7.78845E+03  2.85251E+02 -6.84218E+03  3.01711E+03 -2.93809E+03  2.44058E+03 -2.85136E+03
  1.42402E+03 -1.51094E+03  2.48565E+03 -2.39923E+03  3.83899E+03 -1.58934E+03  4.54495E+03  5.46558E+02
  5.39550E+03  1.67611E+03  1.72572E+03  4.45673E+03 -1.82344E+03  4.80294E+03 -5.61384E+03  3.72706E+03
 -6.45538E+03 -4.11677E+02 -3.94838E+03 -4.25533E+03  1.68903E+02 -7.31605E+03  4.34129E+03 -7.43866E+03
  6.64581E+03 -4.44606E+03  9.11001E+03  6.17410E+02  6.80886E+03  6.40670E+03  9.52080E+02  8.07157E+03
 -2.93948E+03  8.11395E+03 -4.42929E+03  1.99028E+03 -2.74851E+03 -1.03832E+03 -8.09506E+02 -1.11768E+03
 -3.65405E+02  3.10483E+02 -9.36064E+02  2.25450E+03 -3.19165E+03  1.55097E+03 -5.33677E+03 -4.32560E+02
 -3.23673E+03 -5.19863E+03  5.74190E+02 -6.21267E+03  3.93988E+03 -6.00441E+03  5.77332E+03 -1.58133E+03
  5.75959E+03  3.40451E+03  3.43693E+03  4.99873E+03 -9.67561E+02  6.32327E+03 -4.26159E+03  4.34561E+03
 -4.85319E+03  3.84294E+02 -4.29271E+03 -3.53181E+03 -6.62657E+02 -4.58251E+03  2.29267E+03 -3.95683E+03
  4.17114E+03 -1.63224E+03  2.87555E+03  5.40479E+02  6.61027E+02  2.34924E+03  7.08272E+02  7.97063E+02
  2.11033E+03  7.30237E+02  1.83551E+03  1.45912E+03  8.70700E+02  3.08932E+03  1.92703E+03  3.02483E+03
 -1.30207E+03  4.35521E+03 -3.82748E+03  4.83389E+03 -5.63604E+03  1.01286E+03 -6.31105E+03 -1.09371E+03
 -3.04817E+03 -6.04472E+03  1.42283E+03 -6.14163E+03  3.01321E+03 -3.76715E+03  4.41847E+03 -1.19726E+03
  3.78965E+03  2.33205E+03  9.19454E+02  3.89561E+03 -1.67838E+03  2.06520E+03 -2.06079E+03  9.45424E+01
 -1.31317E+03 -2.21687E+03  1.31709E+03 -2.24562E+03  1.98993E+03 -9.19238E+02  2.30102E+03  9.54876E+02
  1.32649E+03  6.88318E+02  1.12902E+03 -3.94011E+02  2.83544E+01  9.69597E+02  1.72761E+03 -3.16717E+02
  7.71258E+02  3.01598E+01  1.76813E+03  8.10286E+02  5.86958E+02  3.27185E+03  3.98389E+01  3.70718E+03
 -2.30318E+03  1.99924E+03 -2.57488E+03  3.31006E+02 -3.16928E+03 -9.43075E+02 -4.72786E+02 -1.69274E+03
 -3.22597E+01 -1.39796E+03  1.06247E+03 -1.49304E+03  4.75316E+02  1.76051E+03 -9.87444E+02  1.62316E+03
 -1.63904E+03  1.49230E+03 -2.19474E+03 -1.90433E+03 -1.85559E+03 -3.09157E+03  8.59632E+02 -2.13622E+03
  6.56238E+02 -9.23092E+02  1.50605E+03 -2.31674E+02  2.79246E+03  5.22477E+02 -1.84437E+02  1.73643E+03
 -1.08990E+03  4.64126E+02 -9.01229E+02 -9.37954E+01  9.37966E+02 -2.06075E+03  2.80234E+03 -1.35573E+03
  2.61051E+03  1.59417E+02  3.32415E+03  1.33451E+03  1.54635E+03  2.77786E+03 -4.94154E+02  3.09073E+03
 -2.49511E+03  8.44530E+02 -2.41855E+03 -3.03595E+02 -1.51865E+03 -1.87302E+03  4.71719E+02 -1.84811E+03
  2.27121E+03 -1.04479E+03  1.38492E+03  7.67349E+02  9.20244E+02  1.70148E+03 -2.24486E+02  1.50843E+03
 -1.00524E+03  1.73482E+03 -9.56897E+02  7.06027E+02 -1.00696E+02  3.68898E+02 -7.57215E+02  1.01658E+03
 -9.87922E+02  1.71634E+03 -2.72983E+03  9.57943E+02 -2.56639E+03  9.75506E+01 -3.17545E+03 -1.76978E+03
 -1.61319E+03 -4.08989E+03  5.37152E+02 -4.53029E+03  2.36191E+03 -3.98813E+03  4.39135E+03 -1.45837E+03
  3.83147E+03 -5.80407E+01  1.84494E+03  2.44037E+03 -7.67825E+02  2.41186E+03 -1.12613E+03  2.63829E+03
 -1.49009E+03  1.28943E+03 -3.60425E+02 -6.70494E+02 -8.96150E+02  3.66930E+01 -1.24240E+03  1.40325E+02
 -1.04511E+03  2.81290E+01 -1.22413E+03  2.78988E+01  4.84952E+02 -7.69171E+02 -3.73021E+02 -7.96853E+02
  1.58289E+03 -5.36310E+02  1.18523E+03 -3.39047E+02  1.53283E+03  1.58946E+03 -1.51836E+02  2.43977E+03
 -1.22295E+03  2.65420E+03 -2.30607E+03  2.26964E+03 -3.37039E+03  6.03832E+02 -1.86504E+03 -2.00738E+03
 -8.91771E+02 -2.11894E+03  3.04895E+02 -2.16052E+03  1.46058E+03 -8.04242E+02  9.70954E+02  6.88777E+01
  1.22593E+03  1.01171E+03  4.95362E+02  1.06440E+03 -3.50497E+02 -6.30370E+02  3.96360E+02 -4.56681E+02
  5.78073E+02  2.66688E+01  6.50192E+02  1.59889E+02  4.52777E+02  4.46384E+02  2.31856E+01  1.09639E+03
 -7.07702E+02  7.69950E+02 -1.31857E+03 -1.81100E+02 -1.39188E+03 -8.90758E+02  3.78939E+00 -1.85487E+03
  9.62302E+02 -1.91061E+03  1.30585E+03  4.83567E+02  2.16472E+03 -3.79585E+02  9.54422E+02  1.90964E+03
  6.66740E+02  1.51126E+03 -4.15917E+02  1.39949E+03 -9.11638E+02  1.01881E+03 -3.93742E+02  4.02662E+02
 -4.33862E+02  7.10723E+02 -4.25960E+02  2.28816E+02 -4.40729E+02  4.73527E+02 -1.17252E+03 -1.00411E+03
 -1.31621E+03 -8.37624E+02 -8.95923E+02 -1.48391E+03  1.08562E+03 -2.34735E+03  1.21511E+03 -6.81759E+02
  1.89891E+03 -8.91441E+01 -1.31548E+02  1.00954E+03 -4.60982E+02  1.35590E+03 -4.29699E+02  1.21714E+03
