 $NMID ID='MM_0lb_SNR400_16hz_g40_62.RAW', FMTDAT='(8E13.5)'
 TRAMP=1., VOLUME=1. $END
  3.10013E+05  2.97442E+02  3.37392E+05  2.50647E+05  8.42425E+04  3.37400E+05 -1.32532E+05  2.50789E+05
 -1.89950E+05  8.23738E+04 -1.11054E+05 -3.29979E+04  1.36030E+03 -5.03656E+04  5.35891E+04  3.63449E+02
  3.52275E+04  5.30198E+04 -1.71481E+04  7.49267E+04 -6.07955E+04  6.29211E+04 -8.36795E+04  3.12799E+04
 -7.99544E+04 -1.11003E+04 -5.67756E+04 -5.04318E+04 -1.46536E+04 -6.88153E+04  2.71915E+04 -4.49242E+04
  3.87994E+04  3.92091E+03  1.64432E+04  4.72581E+04 -3.38831E+04  4.62397E+04 -6.57212E+04 -6.20835E+02
 -5.20697E+04 -5.62475E+04 -6.50630E+03 -7.55588E+04  3.35630E+04 -5.36943E+04  4.68893E+04 -1.68589E+04
  4.23986E+04  1.14280E+04  3.13115E+04  2.45396E+04  1.53136E+04  2.86103E+04 -5.16594E+03  2.66416E+04
 -2.17066E+04  1.20132E+04 -1.85266E+04 -3.61952E+03  4.58516E+03 -7.78524E+03  2.14665E+04  1.16719E+04
  7.90020E+03  3.37316E+04 -3.10713E+04  3.49363E+04 -6.17209E+04  2.01622E+03 -5.58229E+04 -4.13402E+04
 -1.29024E+04 -6.14575E+04  3.82353E+04 -4.36327E+04  5.60826E+04 -1.85042E+03  3.22984E+04  3.06361E+04
 -5.49691E+03  3.39606E+04 -2.91942E+04  1.40874E+04 -2.88012E+04 -4.71900E+03 -1.54426E+04 -1.00799E+04
 -8.16350E+03 -1.19169E+04 -1.13843E+03 -1.72761E+04  6.57911E+03 -2.28128E+04  1.46695E+04 -1.42181E+04
  1.19076E+04  4.38967E+03 -6.65586E+03  1.28606E+04 -1.99504E+04 -3.35965E+03 -8.82836E+03 -3.11441E+04
  2.09412E+04 -4.12091E+04  4.58213E+04 -1.91110E+04  4.29758E+04  1.88162E+04  1.45459E+04  4.26372E+04
 -1.55512E+04  3.22176E+04 -2.41583E+04  1.35158E+03 -8.56168E+03 -2.68533E+04  2.03221E+04 -3.21335E+04
  3.89059E+04 -7.86384E+03  3.29193E+04  2.28901E+04  1.63781E+04  4.38632E+04 -7.66684E+03  4.63834E+04
 -2.98522E+04  3.10119E+04 -3.86908E+04  9.00711E+03 -4.01365E+04 -1.54708E+04 -2.17445E+04 -3.55482E+04
  7.15822E+03 -3.54329E+04  3.02796E+04 -1.34815E+04  2.74418E+04  1.13579E+04  3.80043E+03  1.83963E+04
 -1.25060E+04  7.51268E+03 -9.81524E+03 -7.07257E+03  6.27623E+03 -1.02698E+04  1.73788E+04  6.32536E+03
  1.24826E+04  2.13926E+04 -6.10961E+03  2.40243E+04 -2.15672E+04  9.81602E+03 -2.64742E+04 -5.78228E+03
 -1.78144E+04 -1.72340E+04 -6.45070E+03 -1.84839E+04  3.98485E+03 -1.64551E+04  1.33405E+04 -1.59227E+04
  2.27666E+04 -1.21180E+04  2.92993E+04  1.57202E+03  2.23113E+04  1.72022E+04  4.20015E+03  3.39867E+04
 -1.65245E+04  2.88926E+04 -2.69685E+04  1.01348E+04 -1.95919E+04 -1.00974E+04 -4.32464E+03 -1.34002E+04
  2.65500E+03 -3.63548E+03 -3.20159E+03  5.07526E+03 -1.39196E+04  5.33444E+03 -1.46245E+04 -5.49535E+03
 -9.33209E+03 -1.63402E+04  4.47969E+03 -2.01398E+04  1.34070E+04 -1.48225E+04  1.55548E+04 -1.70717E+03
  9.44218E+03  1.07227E+04 -1.31173E+03  1.66894E+04 -1.07097E+04  9.45072E+03 -1.70590E+04 -4.10601E+03
 -1.25228E+04 -1.53144E+04 -1.43375E+03 -2.00357E+04  9.58006E+03 -1.69091E+04  1.69299E+04 -8.34350E+03
  1.59013E+04  3.61672E+02  1.13047E+04  4.29747E+03  5.74021E+03  7.69371E+00  7.44139E+03 -7.94852E+02
  1.56142E+04  2.45502E+03  1.60163E+04  1.35776E+04  1.08983E+04  2.67499E+04 -3.48994E+03  2.94801E+04
 -1.69991E+04  2.24247E+04 -2.70086E+04  1.11176E+04 -2.81491E+04 -2.09818E+03 -2.43442E+04 -1.60550E+04
 -1.07648E+04 -2.28104E+04  7.40265E+03 -2.12376E+04  1.84941E+04 -1.13254E+04  1.72890E+04  4.02833E+03
  6.42239E+03  1.23297E+04 -7.66405E+03  1.13897E+04 -1.40412E+04  3.49561E+03 -1.13552E+04 -8.80511E+03
  2.52064E+02 -1.33310E+04  6.71191E+03 -9.95855E+03  8.45236E+03 -1.11500E+03  1.47090E+03  5.15821E+03
 -5.70121E+03  1.73845E+03 -4.67491E+03 -5.42766E+03  1.04911E+02 -1.14418E+04  8.54227E+03 -1.15516E+04
  1.42252E+04 -5.50282E+03  1.40937E+04  2.76382E+03  1.24555E+04  1.13861E+04  5.72344E+03  1.61504E+04
 -2.18657E+03  1.75518E+04 -1.14288E+04  1.16184E+04 -1.27538E+04  3.18489E+03 -9.43889E+03 -2.52151E+03
 -4.80496E+03 -4.35631E+03 -6.17553E+02  1.08880E+03 -2.02807E+03  2.37978E+03 -4.03118E+03  3.30240E+03
 -9.05630E+03 -7.10507E+02 -1.01542E+04 -8.28067E+03 -3.62060E+03 -1.30552E+04  3.71855E+03 -9.67795E+03
  7.57168E+03 -4.21048E+03  6.34036E+03  2.18653E+03  5.32515E+02  3.11562E+03 -3.59093E+03 -1.14745E+02
 -3.49193E+03 -6.12517E+03 -1.07585E+03 -8.95046E+03  4.76510E+03 -9.46390E+03  1.16661E+04 -4.48856E+03
  1.35057E+04  8.71789E+02  1.03066E+04  7.38143E+03  1.85157E+03  9.64861E+03 -5.31853E+03  8.94712E+03
 -7.71447E+03  2.89494E+03 -3.90315E+03 -2.10703E+03  1.45882E+03 -2.74763E+03  5.39743E+03 -1.22907E+03
  4.66125E+03  4.30540E+03  1.43269E+03  7.03683E+03 -5.16711E+03  7.51014E+03 -8.62405E+03  1.88450E+03
 -5.58773E+03 -4.52116E+03  6.11339E+02 -7.41272E+03  4.24149E+03 -4.39950E+03  4.16485E+03  1.69681E+03
  1.36892E+03  4.85588E+03 -4.48766E+03  5.84120E+03 -6.06023E+03  2.80149E+03 -5.88842E+03 -1.62164E+03
 -3.81830E+03 -7.81150E+03  1.81882E+03 -8.67931E+03  7.41570E+03 -4.86006E+03  8.04720E+03  7.82645E+02
  5.61101E+03  6.59374E+03 -2.30005E+02  8.70497E+03 -5.39625E+03  4.94279E+03 -6.42897E+03 -4.93302E+02
 -5.94863E+03 -5.95080E+03 -1.50173E+03 -6.31898E+03  3.06830E+03 -5.33735E+03  3.89259E+03 -3.28964E+03
  3.35278E+03  1.30073E+03 -8.50188E+01  1.08911E+03  3.97301E+02 -8.97191E+02  8.03514E+02 -3.14079E+03
  5.16144E+03 -1.25492E+03  6.45494E+03  6.01520E+02  6.51692E+03  4.53054E+03  5.63522E+03  9.13272E+03
 -2.26165E+03  1.10310E+04 -9.45396E+03  8.52050E+03 -1.28571E+04  1.92308E+03 -9.54832E+03 -3.44613E+03
 -4.85901E+03 -8.04893E+03 -2.57856E+02 -6.86476E+03  2.65952E+03 -2.85427E+03  1.90260E+03 -3.23512E+03
  1.12700E+03 -1.81897E+03  3.02382E+03 -2.47223E+03  3.86181E+03 -2.37124E+03  4.87038E+03  5.16527E+02
  5.56854E+03  9.61960E+02  1.63015E+03  3.82893E+03 -1.69744E+03  4.40685E+03 -5.89193E+03  3.56257E+03
 -6.35527E+03 -1.18445E+03 -2.87446E+03 -4.66474E+03  1.52564E+02 -6.70001E+03  3.77265E+03 -6.39249E+03
  6.78465E+03 -4.19835E+03  8.35795E+03  3.38503E+02  6.13856E+03  6.08651E+03  1.38830E+03  7.27361E+03
 -2.87477E+03  7.17389E+03 -4.24937E+03  1.98650E+03 -2.99914E+03 -1.18890E+03 -7.81064E+02 -6.78161E+02
 -7.38741E+01  1.23370E+02 -9.34348E+02  2.05556E+03 -2.86479E+03  1.55021E+03 -5.13985E+03 -3.86680E+02
 -2.84340E+03 -4.41010E+03  1.44172E+03 -5.88819E+03  4.10662E+03 -5.85768E+03  4.97245E+03 -1.32816E+03
  5.48148E+03  2.99445E+03  2.73103E+03  5.28149E+03 -5.95615E+02  5.99608E+03 -3.19797E+03  3.85861E+03
 -5.81633E+03  8.85515E+02 -4.68797E+03 -3.71920E+03 -1.16737E+02 -4.56872E+03  2.53102E+03 -3.25723E+03
  3.72963E+03 -1.78755E+03  2.36495E+03  1.47221E+03  9.24496E+02  2.36794E+03  9.71860E+02  1.15248E+03
  1.60355E+03  5.65007E+02  1.79284E+03  9.73819E+02  1.54825E+03  2.72876E+03  1.43599E+03  2.63209E+03
 -1.11403E+03  4.12514E+03 -3.90062E+03  5.23211E+03 -4.80927E+03  1.06648E+03 -5.67377E+03 -1.33690E+03
 -2.26491E+03 -5.15392E+03  1.14132E+03 -6.81145E+03  3.28381E+03 -4.08404E+03  4.24326E+03 -1.40658E+03
  3.67839E+03  2.32514E+03  7.98964E+02  3.09332E+03 -1.40731E+03  1.85248E+03 -1.40764E+03 -8.42283E+01
 -1.29365E+02 -2.31122E+03  1.62897E+03 -1.40085E+03  1.59932E+03 -1.68088E+03  1.91367E+03  5.57782E+02
  1.63751E+03  2.84484E+02  6.35697E+02  3.21935E+02 -6.01231E+02  1.11670E+03  1.50943E+03 -2.37819E+02
  3.52901E+02 -2.73388E+02  2.34880E+03  6.46899E+02  1.72429E+02  3.30433E+03 -2.14253E+02  3.69695E+03
 -2.45769E+03  1.82123E+03 -2.87374E+03  1.01389E+03 -2.79218E+03 -7.66497E+02 -2.50211E+02 -1.85002E+03
  4.47856E+02 -1.41490E+03  1.52712E+03 -1.22531E+03  5.14529E+02  1.62154E+03 -5.14176E+02  1.87206E+03
 -2.63121E+03  9.06139E+02 -1.99333E+03 -1.64767E+03 -1.15863E+03 -2.88509E+03 -5.35862E+01 -2.65829E+03
  8.54561E+02 -1.40504E+03  1.66118E+03 -7.13672E+02  1.81486E+03  1.07412E+02  4.55642E+02  1.76766E+03
 -1.01563E+03  5.50452E+01 -1.14676E+03 -4.33594E+02  1.70311E+02 -2.03803E+03  1.94207E+03 -1.19616E+03
  2.16852E+03  7.17346E+02  3.62510E+03  1.29909E+03  1.15996E+03  2.22109E+03 -1.74344E+02  2.88889E+03
 -2.27075E+03  4.32763E+02 -2.56541E+03 -2.97702E+02 -1.27670E+03 -2.13747E+03  3.14184E+02 -1.62139E+03
  1.85028E+03 -8.15981E+02  9.86254E+02  8.80253E+02  3.70417E+02  2.01201E+03 -3.00385E+01  1.40490E+03
  6.64328E+01  1.49778E+03 -8.75422E+02 -3.85185E+01  4.67531E+02  4.15039E+02 -4.87823E+02  5.52004E+02
 -1.35297E+03  6.91222E+02 -2.24063E+03  1.10295E+03 -3.06669E+03 -2.56038E+02 -3.77541E+03 -1.99252E+03
 -1.76808E+03 -4.30718E+03  1.33147E+03 -4.20471E+03  2.37702E+03 -3.71267E+03  4.98514E+03 -1.11546E+03
  3.18759E+03  4.92705E+02  1.75856E+03  2.71068E+03  3.54826E+02  2.83489E+03 -1.23048E+03  1.63507E+03
 -1.72070E+03  5.15488E+02 -8.94834E+02 -7.21099E+02 -1.43380E+02 -1.64332E+01 -7.44259E+02  1.41905E+02
 -1.73519E+03 -1.82266E+01 -1.29508E+03  3.35945E+02 -9.45175E+00 -4.59459E+02  1.10783E+02 -9.10157E+02
  2.16894E+03 -8.66622E+02  1.06703E+03 -1.34413E+02  2.16183E+03  1.51624E+03 -4.65983E+02  2.67925E+03
 -1.86583E+03  3.36495E+03 -2.36769E+03  1.37191E+03 -2.89382E+03 -1.96359E+02 -2.51825E+03 -1.43073E+03
 -1.03924E+03 -2.25874E+03  6.45299E+02 -1.65312E+03  1.64871E+03 -1.64893E+03  1.18042E+03  5.00848E+02
  9.74326E+02  4.99628E+02  3.06328E+02  5.75851E+02 -1.31335E+02 -5.89412E+01 -1.17785E+02 -3.78680E+02
  5.95317E+02  2.10610E+02  4.48600E+02  3.44386E+02  1.51205E+02  8.63554E+02  4.32794E+02  1.29709E+03
 -1.72879E+03  1.44012E+03 -1.73072E+03  1.07009E+02 -7.66344E+02 -1.10101E+03  6.90213E+01 -2.12912E+03
  1.15223E+03 -1.78031E+03  1.44755E+03  1.40971E+02  1.94347E+03 -5.43101E+02  1.00909E+03  1.90770E+03
  2.14011E+02  1.07594E+03 -6.91738E+02  1.19896E+03 -1.38939E+03  7.48459E+02 -6.15361E+02 -1.94479E+02
 -2.76179E+02 -2.61870E+02 -1.00198E+03  8.26419E+02 -1.61193E+03  5.44082E+02 -1.10313E+03 -1.77618E+02
 -1.47660E+03 -1.86847E+01 -6.80397E+02 -1.34778E+03  1.16776E+03 -2.42201E+03  1.23491E+03 -6.78909E+02
  1.68093E+03  1.35030E+02  4.47935E+01  9.69964E+02 -2.29127E+02  1.96902E+03 -5.50062E+02  1.04599E+03
