 $NMID ID='MM_0lb_SNR400_17hz_g50_38.RAW', FMTDAT='(8E13.5)'
 TRAMP=1., VOLUME=1. $END
  3.10096E+05  4.14458E+02  3.37459E+05  2.50414E+05  8.44553E+04  3.37550E+05 -1.32664E+05  2.50852E+05
 -1.90040E+05  8.27870E+04 -1.11521E+05 -3.24900E+04  1.16315E+03 -4.97249E+04  5.39171E+04  4.27876E+02
  3.54237E+04  5.29035E+04 -1.72769E+04  7.48985E+04 -6.05276E+04  6.34917E+04 -8.37867E+04  3.18988E+04
 -7.99143E+04 -1.17892E+04 -5.68334E+04 -4.99997E+04 -1.60236E+04 -6.86740E+04  2.68743E+04 -4.50200E+04
  3.91067E+04  4.59165E+03  1.59555E+04  4.71364E+04 -3.37651E+04  4.65320E+04 -6.63452E+04 -4.36288E+02
 -5.26036E+04 -5.63482E+04 -6.62682E+03 -7.56794E+04  3.33531E+04 -5.41641E+04  4.69360E+04 -1.66937E+04
  4.24858E+04  1.16018E+04  3.12311E+04  2.46210E+04  1.57677E+04  2.82946E+04 -4.97052E+03  2.72982E+04
 -2.18741E+04  1.27437E+04 -1.86363E+04 -4.20111E+03  5.18504E+03 -7.14307E+03  2.13214E+04  1.09057E+04
  7.44803E+03  3.40776E+04 -3.08780E+04  3.48173E+04 -6.14875E+04  2.37049E+03 -5.58627E+04 -4.19567E+04
 -1.21797E+04 -6.16449E+04  3.88548E+04 -4.41469E+04  5.70548E+04 -2.05999E+03  3.28420E+04  3.15876E+04
 -6.26523E+03  3.46248E+04 -2.92522E+04  1.45694E+04 -2.96604E+04 -5.12136E+03 -1.55399E+04 -1.07210E+04
 -7.59307E+03 -1.19867E+04 -2.66108E+02 -1.72879E+04  6.95291E+03 -2.25801E+04  1.53663E+04 -1.35632E+04
  1.14392E+04  4.85440E+03 -7.81730E+03  1.25407E+04 -2.02917E+04 -3.78947E+03 -8.33288E+03 -3.19014E+04
  2.17551E+04 -4.16157E+04  4.63516E+04 -1.91966E+04  4.35399E+04  1.84676E+04  1.46498E+04  4.26205E+04
 -1.54941E+04  3.18545E+04 -2.44432E+04  1.13061E+03 -9.06301E+03 -2.70976E+04  2.06964E+04 -3.24764E+04
  3.89109E+04 -7.96841E+03  3.31933E+04  2.35238E+04  1.61231E+04  4.41660E+04 -7.82799E+03  4.71203E+04
 -2.98633E+04  3.14429E+04 -3.92592E+04  9.04658E+03 -4.04693E+04 -1.59874E+04 -2.18685E+04 -3.59202E+04
  7.31325E+03 -3.55396E+04  2.96301E+04 -1.33496E+04  2.81212E+04  1.08969E+04  2.92663E+03  1.81440E+04
 -1.36518E+04  7.67215E+03 -9.70077E+03 -7.55019E+03  5.91740E+03 -9.88482E+03  1.79029E+04  6.13056E+03
  1.30169E+04  2.21221E+04 -6.00829E+03  2.43366E+04 -2.21788E+04  1.02186E+04 -2.64168E+04 -5.08136E+03
 -1.86817E+04 -1.68041E+04 -6.90955E+03 -1.86138E+04  3.61800E+03 -1.70266E+04  1.39210E+04 -1.58941E+04
  2.31909E+04 -1.23641E+04  3.03747E+04  1.50126E+03  2.19882E+04  1.80306E+04  4.09019E+03  3.43891E+04
 -1.67593E+04  2.87125E+04 -2.68245E+04  9.89791E+03 -2.03411E+04 -1.05143E+04 -4.77710E+03 -1.37089E+04
  2.23951E+03 -3.45192E+03 -3.49245E+03  5.94729E+03 -1.44127E+04  5.02554E+03 -1.43364E+04 -6.51808E+03
 -9.18550E+03 -1.62857E+04  4.92335E+03 -2.07075E+04  1.33773E+04 -1.49564E+04  1.56872E+04 -1.24948E+03
  9.50269E+03  1.15666E+04 -5.91153E+02  1.73083E+04 -1.14328E+04  9.17380E+03 -1.68402E+04 -4.14781E+03
 -1.21516E+04 -1.51051E+04 -1.02295E+03 -2.04398E+04  9.29363E+03 -1.70291E+04  1.69196E+04 -8.04054E+03
  1.54156E+04  3.88180E+02  1.14971E+04  4.55643E+03  5.72459E+03  8.49110E+02  7.67985E+03 -1.34439E+03
  1.49208E+04  2.60407E+03  1.64831E+04  1.37665E+04  9.94057E+03  2.71580E+04 -2.75036E+03  2.94091E+04
 -1.76280E+04  2.30948E+04 -2.76761E+04  1.13137E+04 -2.78680E+04 -2.00839E+03 -2.37431E+04 -1.68236E+04
 -1.05170E+04 -2.28846E+04  7.43939E+03 -2.08030E+04  1.78418E+04 -1.16473E+04  1.73862E+04  4.07965E+03
  6.62336E+03  1.24360E+04 -7.25740E+03  1.10316E+04 -1.44948E+04  2.27394E+03 -1.16293E+04 -9.02357E+03
 -4.25588E+02 -1.33323E+04  6.77452E+03 -1.09116E+04  9.11166E+03 -1.13229E+03  1.59479E+03  5.29996E+03
 -5.47871E+03  1.70686E+03 -4.44187E+03 -5.35164E+03  1.89459E+02 -1.16694E+04  8.35681E+03 -1.14661E+04
  1.39018E+04 -6.09526E+03  1.39723E+04  2.76349E+03  1.14927E+04  1.09099E+04  5.64869E+03  1.63994E+04
 -2.65240E+03  1.78322E+04 -1.09857E+04  1.14713E+04 -1.35030E+04  2.80489E+03 -9.39323E+03 -2.06349E+03
 -5.35292E+03 -4.09001E+03 -6.27391E+02  1.50239E+03 -2.04913E+03  2.04394E+03 -4.26894E+03  3.52033E+03
 -8.82770E+03 -6.82284E+01 -9.96849E+03 -7.96961E+03 -4.18058E+03 -1.21604E+04  3.28383E+03 -8.87145E+03
  8.15372E+03 -4.20103E+03  5.43205E+03  2.62459E+03  2.67692E+02  3.64039E+03 -4.33415E+03 -5.11721E+01
 -4.07145E+03 -5.90315E+03 -1.22512E+03 -8.36898E+03  4.28182E+03 -9.52339E+03  1.14614E+04 -4.12872E+03
  1.31578E+04  7.52034E+02  9.85967E+03  7.63309E+03  1.51602E+03  9.81485E+03 -5.23497E+03  8.78778E+03
 -7.85675E+03  2.92789E+03 -3.73141E+03 -1.65706E+03  1.37539E+03 -2.18188E+03  5.13079E+03 -8.10788E+02
  4.65282E+03  4.07153E+03  1.66070E+03  7.24078E+03 -5.00043E+03  7.53160E+03 -8.76232E+03  1.99811E+03
 -5.69833E+03 -4.29796E+03  4.93954E+02 -7.71432E+03  4.31649E+03 -3.78238E+03  4.56361E+03  1.47206E+03
  3.42722E+02  4.26038E+03 -5.11295E+03  5.27834E+03 -5.42560E+03  3.05640E+03 -5.80477E+03 -1.72218E+03
 -3.56296E+03 -7.68834E+03  1.38017E+03 -8.45264E+03  6.72212E+03 -6.04600E+03  7.48647E+03  1.27623E+03
  5.75859E+03  6.22186E+03  9.97801E+01  8.73116E+03 -6.33726E+03  4.73397E+03 -5.87350E+03 -3.72474E+02
 -6.40598E+03 -5.87663E+03 -1.29499E+03 -5.91948E+03  2.28845E+03 -5.56812E+03  3.72973E+03 -3.14772E+03
  2.99222E+03  2.76518E+02  1.95847E+02  1.55915E+03  3.03527E+02 -6.23817E+02  7.47370E+01 -2.63641E+03
  5.09219E+03 -1.17383E+03  6.98798E+03  4.46905E+02  7.11290E+03  4.14510E+03  5.68526E+03  8.64068E+03
 -1.69600E+03  1.03444E+04 -9.08087E+03  8.36371E+03 -1.12385E+04  1.71433E+03 -9.55722E+03 -3.51004E+03
 -5.16212E+03 -7.71349E+03 -8.44855E+02 -5.65223E+03  2.78095E+03 -2.35338E+03  1.59774E+03 -2.36780E+03
  1.35525E+03 -1.61626E+03  2.32151E+03 -2.37369E+03  4.10708E+03 -1.23552E+03  4.52568E+03  3.07848E+02
  4.99103E+03  2.03719E+03  1.60164E+03  4.54352E+03 -1.56465E+03  3.72706E+03 -5.17851E+03  2.98998E+03
 -6.07154E+03 -1.16399E+03 -2.70927E+03 -4.21535E+03  4.99680E+02 -6.24373E+03  3.83693E+03 -5.92754E+03
  6.03317E+03 -3.61867E+03  7.56322E+03  2.06487E+02  6.27558E+03  5.04472E+03  1.62203E+03  6.86552E+03
 -2.55942E+03  6.92811E+03 -3.95529E+03  2.49945E+03 -2.00477E+03 -1.34172E+03 -8.10107E+02 -9.16000E+02
 -3.49010E+02  7.67048E+01 -1.62857E+03  1.79541E+03 -2.97216E+03  1.56304E+03 -4.21698E+03 -4.96899E+02
 -1.71500E+03 -5.27480E+03  8.20532E+02 -5.88307E+03  3.88081E+03 -5.61634E+03  4.85808E+03 -1.28007E+03
  5.16224E+03  2.87293E+03  2.48181E+03  4.50752E+03 -9.51665E+02  6.08718E+03 -3.22491E+03  3.22599E+03
 -4.61744E+03  5.91997E+02 -4.09034E+03 -2.66446E+03 -3.15050E+02 -3.97760E+03  2.48647E+03 -3.24725E+03
  3.37020E+03 -1.33603E+03  2.16225E+03  3.68665E+02  6.21115E+02  2.25051E+03  5.97562E+02  8.13472E+02
  1.24292E+03  1.01210E+03  1.02948E+03  1.05642E+03  1.70627E+03  2.32788E+03  1.32632E+03  1.85670E+03
 -1.21657E+03  3.90015E+03 -3.24918E+03  5.22673E+03 -4.99631E+03  1.58688E+03 -5.40730E+03 -7.72034E+02
 -1.83254E+03 -4.47034E+03  1.53385E+02 -5.95524E+03  2.66624E+03 -3.72152E+03  3.72363E+03 -1.51517E+03
  2.27956E+03  2.34487E+03  3.50823E+02  2.94038E+03 -1.12460E+03  1.52944E+03 -1.68744E+03 -1.97994E+02
 -7.70863E+02 -1.79313E+03  1.51814E+03 -2.03534E+03  1.44767E+03 -1.04584E+03  1.74046E+03  1.17032E+03
  8.41433E+02  7.59134E+02  8.64868E+02  1.46852E+02 -3.59261E+02  5.87486E+02  1.66666E+03 -4.21732E+02
  3.30706E+02 -1.85842E+02  2.11031E+03  1.00841E+03 -9.86963E+01  3.51472E+03 -9.28089E+02  3.26617E+03
 -2.23267E+03  2.02582E+03 -2.68407E+03  2.68594E+02 -2.79232E+03 -8.29305E+02  4.26826E+02 -1.22809E+03
  4.10071E+02 -1.26915E+03  1.16077E+03 -8.25639E+02  7.68728E+02  1.93997E+03 -2.54386E+02  1.01909E+03
 -1.72716E+03  8.63928E+02 -1.85964E+03 -1.56152E+03 -1.19310E+03 -2.35888E+03  2.58666E+02 -2.44385E+03
  9.69919E+02 -8.47174E+02  1.68335E+03  5.07648E+02  1.08488E+03  5.04154E+02  6.66457E+02  1.64522E+03
 -1.27618E+02  7.08516E+01 -1.86170E+03 -5.39428E+02  7.77469E+02 -1.03103E+03  1.93056E+03 -1.65276E+03
  2.32878E+03 -5.31386E+01  3.12894E+03  7.88404E+02  1.74059E+03  2.62081E+03 -5.75340E+02  2.13772E+03
 -1.75853E+03  3.33034E+02 -2.12124E+03 -1.57680E+02 -6.84401E+02 -1.94780E+03  5.70635E+02 -9.99542E+02
  1.91348E+03 -1.39820E+03  6.67968E+02  8.54523E+02  1.93688E+02  2.16741E+03  4.70180E+02  1.23775E+03
 -9.57887E+02  1.63704E+03 -4.57421E+02  3.34172E+00  2.48743E+02 -1.31077E+02 -9.70688E+02  6.11080E+02
 -3.82547E+02  1.38934E+03 -1.54443E+03  8.21993E+02 -2.08507E+03  6.56639E+02 -3.63097E+03 -1.64426E+03
 -1.65559E+03 -2.85875E+03  5.25568E+02 -3.67719E+03  1.99596E+03 -2.83060E+03  3.40232E+03 -8.42844E+02
  2.97127E+03 -1.35916E+02  1.26718E+03  2.30096E+03 -5.59233E+02  2.46103E+03 -6.84926E+02  1.93152E+03
 -1.00529E+03  8.22742E+02 -7.05117E+02  5.63577E+01 -1.97400E+02 -3.48744E+02 -1.16243E+02  4.63194E+02
 -1.39862E+03 -3.46344E+02 -1.38402E+03  5.05823E+02  3.89110E+01 -4.30803E+02 -4.19017E+02 -1.12980E+03
  1.06554E+03 -7.30497E+02  9.82192E+02  1.42220E+02  1.34249E+03  1.43238E+03 -7.69265E+02  1.88070E+03
 -4.28647E+02  3.02295E+03 -2.31022E+03  1.69055E+03 -2.37575E+03 -3.91168E+02 -1.23731E+03 -1.55373E+03
 -9.07630E+02 -1.66507E+03  6.24540E+02 -2.11300E+03  9.28223E+02 -1.03963E+03  1.11770E+02  2.09789E+02
  4.63109E+02  6.83394E+02 -4.62494E+02  4.51667E+02 -1.92907E+02  1.89562E+02  3.53613E+02  4.28301E+01
  5.62096E+02  1.11106E+02  4.08436E+02  6.98415E+02  1.26509E+02  1.08579E+03  8.60932E+02  4.84014E+02
 -3.41116E+02  4.40775E+02 -6.13656E+02  7.70544E+02 -1.77552E+03 -6.75010E+02  5.33721E+01 -1.06594E+03
  8.15873E+02 -8.10631E+02  7.21061E+02  3.06934E+02  1.17471E+03 -7.60948E+02  1.09783E+03  1.22010E+03
  5.40184E+02  1.21609E+03 -5.68996E+02  4.45185E+02 -4.20071E+02  4.65693E+02 -4.44315E+02 -1.02783E+02
 -5.12452E+02 -6.69016E+01 -8.39074E+02  5.08882E+02 -9.44048E+02  1.94033E+01 -1.13931E+03  2.73310E+01
 -7.81069E+02 -7.72913E+01 -3.39664E+02 -1.54753E+03  8.83175E+02 -2.01965E+03  9.59972E+02  1.81386E+02
  9.49619E+02  1.62972E+01  2.43614E+01  3.76265E+02 -3.08099E+02  1.37055E+03 -6.27228E+02  8.90957E+02
