 $NMID ID='MM_0lb_SNR400_8hz_g60_84.RAW', FMTDAT='(8E13.5)'
 TRAMP=1., VOLUME=1. $END
  3.10057E+05  2.33716E+02  3.37996E+05  2.51090E+05  8.52004E+04  3.38714E+05 -1.33277E+05  2.51039E+05
 -1.91686E+05  8.36360E+04 -1.12606E+05 -3.21966E+04 -4.83924E+01 -5.06942E+04  5.35769E+04 -1.03530E+03
  3.62754E+04  5.29601E+04 -1.63142E+04  7.71348E+04 -6.13944E+04  6.52474E+04 -8.59499E+04  3.29196E+04
 -8.19599E+04 -1.11461E+04 -5.89794E+04 -5.26820E+04 -1.49270E+04 -7.15290E+04  2.84856E+04 -4.70925E+04
  4.12307E+04  3.23790E+03  1.69034E+04  4.89807E+04 -3.44455E+04  4.88023E+04 -6.84290E+04  4.77531E+02
 -5.56293E+04 -5.83939E+04 -7.27613E+03 -8.04064E+04  3.54351E+04 -5.71248E+04  5.05797E+04 -1.93595E+04
  4.59458E+04  1.13308E+04  3.37940E+04  2.78614E+04  1.60935E+04  3.18477E+04 -5.85042E+03  2.83333E+04
 -2.24629E+04  1.21441E+04 -1.78755E+04 -5.84375E+03  7.73990E+03 -6.97982E+03  2.36406E+04  1.40115E+04
  7.69552E+03  3.82526E+04 -3.40638E+04  3.85040E+04 -6.77434E+04  1.78088E+03 -5.95161E+04 -4.53661E+04
 -1.24167E+04 -6.68192E+04  4.29172E+04 -4.80068E+04  6.23059E+04 -1.92689E+03  3.79061E+04  3.64326E+04
 -5.82540E+03  4.04825E+04 -3.15062E+04  2.02548E+04 -3.43313E+04 -3.55482E+03 -2.09661E+04 -1.16467E+04
 -1.02641E+04 -1.62405E+04  2.88252E+02 -2.09618E+04  9.20489E+03 -2.33862E+04  1.64868E+04 -1.26895E+04
  9.56684E+03  6.84903E+03 -1.10020E+04  1.26930E+04 -2.47213E+04 -7.78593E+03 -9.97840E+03 -3.98593E+04
  2.62340E+04 -4.91507E+04  5.37891E+04 -2.14533E+04  4.99544E+04  2.13056E+04  1.83647E+04  4.95637E+04
 -1.68186E+04  3.71730E+04 -2.79516E+04  2.02837E+03 -1.23734E+04 -3.02369E+04  2.17274E+04 -3.86175E+04
  4.56642E+04 -1.20359E+04  4.28968E+04  2.64297E+04  2.35386E+04  5.30542E+04 -8.72137E+03  5.86044E+04
 -3.67347E+04  3.89581E+04 -4.91876E+04  1.12855E+04 -4.97485E+04 -1.88598E+04 -2.74664E+04 -4.38931E+04
  8.28684E+03 -4.36458E+04  3.54669E+04 -1.80259E+04  3.38856E+04  1.06472E+04  5.80311E+03  2.21680E+04
 -1.39978E+04  1.06234E+04 -1.20412E+04 -7.41884E+03  5.14160E+03 -1.16524E+04  1.83841E+04  5.75005E+03
  1.60938E+04  2.28831E+04 -5.03725E+03  2.82853E+04 -2.34880E+04  1.54925E+04 -3.33619E+04 -2.49174E+03
 -2.72427E+04 -1.88165E+04 -1.32337E+04 -2.73738E+04  3.99814E+03 -2.85508E+04  2.14046E+04 -2.52136E+04
  3.41610E+04 -1.50764E+04  4.02301E+04  5.83213E+03  2.84057E+04  2.54355E+04  5.29396E+03  4.35576E+04
 -2.06083E+04  3.55063E+04 -3.17530E+04  1.27862E+04 -2.32330E+04 -1.02870E+04 -4.72973E+03 -1.36276E+04
  7.54278E+02 -7.60414E+02 -8.43461E+03  8.99083E+03 -2.17208E+04  4.84672E+03 -2.15207E+04 -1.09221E+04
 -1.23446E+04 -2.58113E+04  6.86707E+03 -2.95925E+04  2.00763E+04 -2.10543E+04  2.48383E+04 -1.46484E+03
  1.54265E+04  1.72048E+04 -1.67003E+03  2.51740E+04 -1.79911E+04  1.52144E+04 -2.49347E+04 -4.90371E+03
 -1.87446E+04 -2.22747E+04 -2.76689E+03 -2.99646E+04  1.36076E+04 -2.47005E+04  2.49872E+04 -1.26131E+04
  2.28945E+04 -9.44991E+02  1.68968E+04  5.55135E+03  1.05206E+04  1.75595E+03  1.33088E+04 -2.47634E+03
  2.40427E+04  2.34620E+03  2.78240E+04  1.97271E+04  1.94729E+04  4.06641E+04 -2.54095E+03  4.80603E+04
 -2.68000E+04  4.02188E+04 -4.65256E+04  2.20833E+04 -4.99599E+04 -2.50203E+03 -3.96390E+04 -2.86934E+04
 -1.61161E+04 -4.05130E+04  1.49301E+04 -3.60907E+04  3.06304E+04 -1.59163E+04  2.62747E+04  8.59952E+03
  8.65195E+03  1.99096E+04 -1.26652E+04  1.68333E+04 -2.16224E+04  2.44872E+03 -1.63242E+04 -1.35933E+04
 -4.68345E+02 -2.11504E+04  1.15929E+04 -1.54585E+04  1.40899E+04 -6.60507E+02  3.97657E+03  1.03449E+04
 -9.57273E+03  5.04970E+03 -1.05982E+04 -6.09676E+03 -2.20816E+03 -2.04439E+04  1.35648E+04 -2.25273E+04
  2.59958E+04 -1.31415E+04  3.06147E+04  3.80565E+03  2.65526E+04  2.05382E+04  1.26468E+04  3.19284E+04
 -6.68483E+03  3.45148E+04 -2.35141E+04  2.18597E+04 -2.44957E+04  4.41474E+03 -1.66747E+04 -6.83966E+03
 -7.56516E+03 -7.85762E+03 -7.22618E+02 -4.64285E+02 -3.27208E+03  4.13053E+03 -9.01150E+03  5.81347E+03
 -1.66490E+04 -1.84133E+03 -1.59045E+04 -1.32955E+04 -6.76654E+03 -2.12731E+04  6.98704E+03 -1.73439E+04
  1.42557E+04 -7.03088E+03  9.43380E+03  4.48690E+03 -9.57528E+02  7.89130E+03 -9.07366E+03 -1.32174E+01
 -7.65952E+03 -1.12136E+04 -6.67645E+02 -1.79847E+04  1.08594E+04 -1.85603E+04  2.18800E+04 -1.03774E+04
  2.72300E+04  2.19654E+03  1.91115E+04  1.68173E+04  4.02003E+03  2.17853E+04 -1.07696E+04  1.75671E+04
 -1.34305E+04  4.81410E+03 -7.20991E+03 -4.25795E+03  2.75502E+03 -5.18766E+03  9.30167E+03 -1.14150E+03
  9.09015E+03  8.17634E+03  1.43617E+03  1.47928E+04 -9.91798E+03  1.39868E+04 -1.81826E+04  4.19134E+03
 -1.23671E+04 -9.51174E+03  3.57022E+02 -1.50680E+04  1.06172E+04 -7.82204E+03  1.05901E+04  3.08104E+03
  2.27047E+03  1.18389E+04 -9.37683E+03  1.28991E+04 -1.55904E+04  5.39325E+03 -1.63344E+04 -6.21048E+03
 -9.44022E+03 -1.90387E+04  4.28113E+03 -2.02840E+04  1.80699E+04 -1.26861E+04  1.91785E+04  3.41486E+03
  1.15049E+04  1.52244E+04 -2.08504E+03  1.82773E+04 -1.29553E+04  9.56545E+03 -1.52365E+04 -1.90660E+03
 -1.17955E+04 -1.28961E+04 -1.66364E+03 -1.34394E+04  7.89378E+03 -1.13399E+04  8.65186E+03 -3.71917E+03
  5.25889E+03  3.10624E+03 -1.65639E+03  1.99530E+03 -7.64324E+02 -3.87583E+03  4.01525E+03 -9.42876E+03
  1.35942E+04 -6.86516E+03  1.97885E+04  2.14804E+03  1.84014E+04  1.33189E+04  1.22623E+04  2.39152E+04
 -5.97694E+03  2.89712E+04 -2.48878E+04  2.03406E+04 -2.97233E+04  3.78319E+03 -2.47730E+04 -1.00765E+04
 -1.16220E+04 -2.05701E+04 -7.26787E+01 -1.73602E+04  5.36515E+03 -9.48790E+03  6.14124E+03 -6.35655E+03
  3.86427E+03 -3.51555E+03  4.30545E+03 -4.75173E+03  6.48073E+03 -4.00789E+03  9.25279E+03 -1.77985E+03
  1.25743E+04  3.06506E+03  6.74660E+03  1.13587E+04 -2.38464E+03  1.35383E+04 -1.30675E+04  1.07003E+04
 -1.78278E+04 -1.76889E+03 -1.24317E+04 -1.21406E+04 -1.46834E+03 -1.94747E+04  1.00669E+04 -1.90469E+04
  1.98790E+04 -9.19415E+03  2.36116E+04  3.10790E+03  1.59334E+04  1.66624E+04  1.80261E+03  2.12023E+04
 -8.96953E+03  1.61176E+04 -1.27805E+04  6.47087E+03 -8.53383E+03 -1.45294E+03 -3.93549E+03 -2.46482E+03
 -1.55163E+03 -4.13784E+02 -2.27393E+03  3.55692E+03 -6.09851E+03  2.92794E+03 -1.22138E+04 -1.84970E+03
 -9.15213E+03 -1.19463E+04  7.18381E+01 -1.81058E+04  1.10105E+04 -1.59317E+04  1.72156E+04 -4.91710E+03
  1.87356E+04  8.97284E+03  7.62586E+03  1.68172E+04 -3.05221E+03  1.82315E+04 -1.33575E+04  1.05683E+04
 -1.51826E+04  5.40087E+02 -1.28598E+04 -1.03088E+04 -9.71996E+02 -1.50150E+04  8.51821E+03 -1.15038E+04
  1.14614E+04 -3.78733E+03  6.83869E+03  3.59078E+03  1.86450E+03  5.06332E+03  1.43666E+03  1.45408E+03
  3.35517E+03  1.43718E+03  3.99085E+03  2.87482E+03  5.13842E+03  6.07622E+03  4.22631E+03  1.04908E+04
 -3.79745E+03  1.42751E+04 -1.28506E+04  1.42219E+04 -1.89222E+04  3.17068E+03 -1.86973E+04 -8.07269E+03
 -9.67535E+03 -1.84594E+04  2.62369E+03 -2.04162E+04  1.20752E+04 -1.39662E+04  1.45665E+04 -2.90334E+03
  1.15632E+04  7.64783E+03  2.10996E+03  1.03551E+04 -6.15729E+03  6.52897E+03 -7.69798E+03 -7.83426E+02
 -3.85771E+03 -8.51176E+03  3.97147E+03 -7.78791E+03  7.70415E+03 -4.50261E+03  7.31301E+03  1.76575E+03
  4.69814E+03  4.14403E+03  1.40448E+03  3.73425E+03 -1.03324E+03  2.44614E+03  2.45206E+03 -8.98356E+02
  2.93224E+03 -1.91526E+02  7.22745E+03  2.32866E+03  4.22826E+03  9.96388E+03 -1.45877E+03  1.28092E+04
 -9.45195E+03  8.83343E+03 -1.30526E+04  1.88602E+03 -1.07107E+04 -4.52519E+03 -4.23860E+03 -7.56446E+03
  1.19450E+03 -8.10249E+03  4.42130E+03 -4.16680E+03  4.02324E+03  4.29170E+03 -1.35525E+03  5.78034E+03
 -8.07298E+03  3.31450E+03 -9.09631E+03 -3.62129E+03 -6.07271E+03 -1.01433E+04  1.52401E+03 -1.12737E+04
  6.43780E+03 -6.40074E+03  7.59956E+03 -9.79651E+02  6.53190E+03  2.87681E+03 -4.48374E+01  5.58267E+03
 -4.33682E+03  2.08137E+03 -4.66616E+03 -3.83492E+03  1.23226E+03 -7.71291E+03  8.14426E+03 -7.37807E+03
  1.23613E+04  1.14048E+03  1.13150E+04  8.74213E+03  3.43033E+03  1.37225E+04 -3.36900E+03  1.19614E+04
 -9.95068E+03  5.84858E+03 -1.06609E+04 -2.01605E+03 -5.91608E+03 -8.90355E+03  1.53830E+03 -8.04437E+03
  8.45529E+03 -3.65755E+03  6.45309E+03  4.47989E+03  2.13388E+03  6.78191E+03 -1.19498E+03  6.35622E+03
 -2.72945E+03  4.61598E+03 -3.07869E+03  9.45620E+02 -1.48177E+03  1.32524E+03 -1.39202E+03  2.59160E+03
 -3.10547E+03  3.91308E+03 -8.96214E+03  4.34753E+03 -1.35081E+04  1.07065E+03 -1.40618E+04 -8.50838E+03
 -7.75382E+03 -1.83510E+04  3.40385E+03 -2.00380E+04  1.24017E+04 -1.47468E+04  1.73051E+04 -5.16952E+03
  1.75928E+04  3.57637E+03  1.04749E+04  1.13826E+04  1.46178E+03  1.29243E+04 -4.89189E+03  1.01027E+04
 -7.14239E+03  3.61319E+03 -4.28065E+03 -1.86415E+03 -1.50293E+03 -1.63947E+03 -6.11554E+02  3.51714E+01
 -1.27734E+03  3.26170E+02 -3.04339E+03 -6.53641E+02 -8.19445E+02 -4.33958E+03  2.54017E+02 -4.90789E+03
  5.88552E+03 -5.83185E+03  8.95198E+03 -1.28328E+02  9.50485E+03  5.79572E+03  2.74931E+03  1.36291E+04
 -6.40024E+03  1.61501E+04 -1.46364E+04  9.21416E+03 -1.57558E+04 -1.73415E+03 -1.20794E+04 -1.10087E+04
 -3.95881E+03 -1.42923E+04  3.15484E+03 -1.30607E+04  8.61526E+03 -6.45832E+03  8.68630E+03  2.39581E+02
  5.50629E+03  4.80703E+03 -1.51261E+02  3.98386E+03 -2.73917E+03 -6.81763E+02  2.09655E+02 -3.09537E+03
  4.08525E+03 -2.27797E+03  5.75607E+03  1.38595E+03  3.72559E+03  5.03117E+03  5.87788E+02  8.05923E+03
 -6.11443E+03  6.57705E+03 -9.50606E+03  7.85541E+02 -8.17519E+03 -7.40781E+03 -2.09186E+03 -1.05764E+04
  6.63695E+03 -9.46811E+03  1.08389E+04 -2.90327E+03  1.09016E+04  2.85967E+03  6.33715E+03  8.27176E+03
  6.51009E+02  9.81183E+03 -4.16721E+03  7.11350E+03 -5.97497E+03  4.47145E+03 -4.98367E+03  1.51081E+03
 -3.65198E+03 -1.05802E+03 -2.79071E+03  1.01334E+03 -5.42806E+03  1.41712E+03 -7.06469E+03 -2.29665E+03
 -7.10408E+03 -5.43439E+03 -2.54681E+03 -1.00098E+04  4.04923E+03 -9.51133E+03  8.47443E+03 -4.91788E+03
  8.86134E+03  9.96266E+02  5.04650E+03  6.31264E+03 -7.61998E+02  9.17328E+03 -7.43193E+03  6.02151E+03
