 $NMID ID='MM_0lb_SNR400_19hz_g45_3.RAW', FMTDAT='(8E13.5)'
 TRAMP=1., VOLUME=1. $END
  3.09808E+05  8.57872E+02  3.36984E+05  2.50616E+05  8.44842E+04  3.37561E+05 -1.32442E+05  2.49859E+05
 -1.89501E+05  8.22763E+04 -1.10753E+05 -3.30459E+04  1.39230E+03 -5.01443E+04  5.38813E+04  1.38215E+02
  3.51914E+04  5.24191E+04 -1.71933E+04  7.47041E+04 -6.01590E+04  6.26537E+04 -8.27432E+04  3.16183E+04
 -7.96874E+04 -1.13800E+04 -5.58969E+04 -5.06659E+04 -1.48322E+04 -6.81257E+04  2.69016E+04 -4.43544E+04
  3.91419E+04  4.15483E+03  1.56432E+04  4.73255E+04 -3.38946E+04  4.59279E+04 -6.53526E+04 -2.52204E+02
 -5.12027E+04 -5.53218E+04 -6.47891E+03 -7.49879E+04  3.29668E+04 -5.33022E+04  4.61693E+04 -1.55504E+04
  4.12752E+04  1.16924E+04  3.07174E+04  2.42768E+04  1.56789E+04  2.79242E+04 -4.29842E+03  2.63367E+04
 -2.20444E+04  1.29843E+04 -1.86221E+04 -3.41368E+03  4.09382E+03 -7.81527E+03  2.12463E+04  1.14497E+04
  8.04502E+03  3.34107E+04 -3.05084E+04  3.38514E+04 -6.08238E+04  2.25064E+03 -5.52255E+04 -4.09413E+04
 -1.30702E+04 -6.05715E+04  3.79517E+04 -4.29974E+04  5.44659E+04 -1.63314E+03  3.16219E+04  3.00842E+04
 -6.54624E+03  3.27674E+04 -2.85633E+04  1.30940E+04 -2.70612E+04 -5.53568E+03 -1.41180E+04 -9.42696E+03
 -7.18972E+03 -1.03700E+04 -1.03009E+03 -1.64414E+04  6.29452E+03 -2.23780E+04  1.53143E+04 -1.33961E+04
  1.21164E+04  3.93471E+03 -6.29315E+03  1.31012E+04 -1.87232E+04 -2.09389E+03 -8.06976E+03 -2.96716E+04
  2.05495E+04 -3.95423E+04  4.40162E+04 -1.88867E+04  4.14978E+04  1.84247E+04  1.37930E+04  4.14703E+04
 -1.51829E+04  3.05749E+04 -2.28177E+04  7.09346E+02 -7.99858E+03 -2.64910E+04  2.07836E+04 -3.07966E+04
  3.78031E+04 -7.04740E+03  3.08985E+04  2.19259E+04  1.46282E+04  4.25372E+04 -8.03139E+03  4.51548E+04
 -2.81321E+04  2.89754E+04 -3.67802E+04  8.13249E+03 -3.76155E+04 -1.47103E+04 -2.07066E+04 -3.42349E+04
  6.75801E+03 -3.34672E+04  2.90346E+04 -1.29179E+04  2.67592E+04  1.04589E+04  2.83163E+03  1.77636E+04
 -1.29490E+04  7.36208E+03 -8.75994E+03 -7.79406E+03  5.78914E+03 -1.01962E+04  1.74011E+04  6.46763E+03
  1.23142E+04  2.11508E+04 -6.86259E+03  2.28001E+04 -2.11954E+04  8.73414E+03 -2.50957E+04 -6.48104E+03
 -1.62371E+04 -1.63522E+04 -5.00680E+03 -1.62295E+04  3.86751E+03 -1.45635E+04  1.21862E+04 -1.40042E+04
  2.06082E+04 -1.16098E+04  2.77985E+04  5.08156E+02  2.14162E+04  1.61229E+04  3.96055E+03  3.16215E+04
 -1.63588E+04  2.72787E+04 -2.52582E+04  9.10869E+03 -1.89911E+04 -1.00821E+04 -3.71178E+03 -1.38090E+04
  2.35509E+03 -3.93897E+03 -1.95972E+03  5.43076E+03 -1.27993E+04  5.25646E+03 -1.31153E+04 -4.45406E+03
 -8.47891E+03 -1.56327E+04  4.73224E+03 -1.89193E+04  1.19454E+04 -1.35941E+04  1.43286E+04 -1.67606E+03
  8.27185E+03  1.07122E+04 -8.42817E+02  1.53101E+04 -1.02588E+04  8.48811E+03 -1.48283E+04 -3.10470E+03
 -1.08284E+04 -1.37802E+04 -1.28879E+03 -1.82825E+04  8.13054E+03 -1.49263E+04  1.52799E+04 -7.29717E+03
  1.40452E+04  6.56740E+02  1.03719E+04  3.87116E+03  4.63316E+03  1.14719E+03  7.62900E+03 -1.54858E+03
  1.33462E+04  2.10228E+03  1.42396E+04  1.20819E+04  8.37400E+03  2.42312E+04 -3.27004E+03  2.51645E+04
 -1.51229E+04  1.92328E+04 -2.37131E+04  9.16554E+03 -2.35859E+04 -1.97861E+03 -2.13327E+04 -1.38518E+04
 -9.81720E+03 -1.94778E+04  5.76813E+03 -1.85901E+04  1.58912E+04 -1.05932E+04  1.51872E+04  3.42692E+03
  6.28845E+03  1.05080E+04 -6.59444E+03  1.00190E+04 -1.29146E+04  2.21503E+03 -1.06749E+04 -7.34181E+03
  2.78271E+02 -1.22769E+04  5.92914E+03 -9.12623E+03  7.59954E+03 -8.76000E+02  1.06267E+03  4.62606E+03
 -4.90679E+03  1.24042E+03 -3.43912E+03 -4.05466E+03  6.23819E+02 -1.00500E+04  7.74285E+03 -9.66941E+03
  1.19768E+04 -3.95855E+03  1.18887E+04  3.13468E+03  9.77053E+03  9.27823E+03  4.61065E+03  1.30562E+04
 -1.37351E+03  1.56481E+04 -8.86378E+03  9.75824E+03 -1.03856E+04  2.63878E+03 -8.40676E+03 -1.57880E+03
 -4.33087E+03 -2.49537E+03 -8.50811E+02  1.57006E+03 -2.04962E+03  2.28633E+03 -3.32065E+03  3.95406E+03
 -7.72144E+03 -7.27512E+01 -7.95297E+03 -6.88940E+03 -3.24681E+03 -1.08394E+04  3.35836E+03 -7.69429E+03
  7.24132E+03 -3.84142E+03  5.09358E+03  1.71591E+03  9.03086E+02  2.54912E+03 -3.19380E+03  2.18933E+02
 -3.50350E+03 -4.54534E+03 -6.16355E+02 -7.59866E+03  3.73221E+03 -7.33104E+03  9.17857E+03 -3.03752E+03
  1.09837E+04 -1.99753E+00  8.54812E+03  5.66846E+03  2.18760E+03  8.34870E+03 -4.90844E+03  8.42664E+03
 -7.05578E+03  2.48938E+03 -3.22567E+03 -1.18708E+03  1.43277E+03 -1.74752E+03  4.28040E+03 -4.71754E+02
  4.02246E+03  3.07048E+03  1.05525E+03  5.66466E+03 -4.32452E+03  6.08418E+03 -7.51489E+03  2.05692E+03
 -4.93710E+03 -3.53738E+03 -1.45363E+02 -6.32749E+03  4.03327E+03 -3.12822E+03  2.93104E+03  8.13897E+02
  6.91026E+02  3.14798E+03 -3.80267E+03  3.95259E+03 -4.11598E+03  1.76927E+03 -3.97308E+03 -4.54772E+02
 -3.01874E+03 -5.06587E+03  7.76400E+02 -6.60189E+03  5.70234E+03 -4.42726E+03  6.04030E+03  1.34725E+03
  4.62980E+03  4.84764E+03 -4.27433E+02  6.86150E+03 -5.00316E+03  3.97476E+03 -5.04020E+03  2.98448E+02
 -5.13498E+03 -5.03835E+03 -1.60044E+03 -5.46586E+03  2.06074E+03 -4.07437E+03  2.61682E+03 -2.33936E+03
  3.03771E+03  1.24350E+02  7.01172E+01  8.85341E+02  8.43982E+02  4.10054E+02  2.70295E+02 -1.44678E+03
  3.92426E+03 -6.93155E+01  4.82995E+03  1.03116E+03  5.28541E+03  1.97894E+03  4.71156E+03  6.67137E+03
 -6.92964E+02  7.97868E+03 -7.14691E+03  6.43608E+03 -8.59188E+03  1.53487E+03 -7.34980E+03 -2.25313E+03
 -3.70809E+03 -5.88537E+03 -3.20139E+02 -5.19975E+03  2.20281E+03 -2.07320E+03  2.33799E+03 -1.64451E+03
  1.06775E+03 -1.26169E+03  1.67724E+03 -2.94131E+03  3.36538E+03 -1.08368E+03  3.80803E+03  5.09494E+02
  4.37677E+03  1.28148E+03  9.79598E+02  3.59734E+03 -1.58053E+03  2.94013E+03 -4.24140E+03  2.40569E+03
 -4.42801E+03 -7.70288E+02 -1.92556E+03 -2.88548E+03  5.21567E+02 -4.35999E+03  2.73994E+03 -4.85079E+03
  4.95271E+03 -3.04329E+03  6.08351E+03  6.62214E+02  4.21852E+03  3.85442E+03  7.38393E+02  5.74001E+03
 -1.85939E+03  5.35510E+03 -2.85830E+03  1.97745E+03 -1.99900E+03 -9.56608E+02 -2.67810E+02 -7.90041E+02
 -7.00151E+02  7.02380E+01 -8.29020E+02  1.88688E+03 -2.20851E+03  1.16920E+03 -4.11866E+03 -4.68279E+02
 -1.03656E+03 -3.91544E+03  8.07382E+02 -4.45791E+03  2.47858E+03 -4.26038E+03  2.59531E+03 -3.47759E+02
  3.65165E+03  2.08422E+03  1.65801E+03  3.04702E+03 -9.40351E+02  3.97611E+03 -1.73205E+03  2.17472E+03
 -3.46755E+03  5.29040E+02 -3.00431E+03 -2.19586E+03  2.82717E+02 -2.55673E+03  1.76712E+03 -2.33630E+03
  2.39085E+03 -1.55607E+03  1.20473E+03  6.00644E+02  7.22379E+02  1.39325E+03  1.00301E+03  2.72695E+02
  1.70865E+03  8.96106E+02  1.28883E+03  1.65506E+03  8.49676E+02  2.52242E+03  1.70344E+03  2.08373E+03
 -1.23713E+03  2.48463E+03 -2.37267E+03  3.74855E+03 -3.08527E+03  1.36876E+03 -3.60943E+03 -7.94144E+01
 -1.61687E+03 -3.98522E+03  4.54894E+02 -4.59495E+03  1.36754E+03 -2.37507E+03  2.81088E+03 -7.43128E+02
  1.86449E+03  1.19276E+03 -1.37437E+02  1.94085E+03 -3.13936E+02  1.14546E+03 -5.22124E+02 -2.93039E+02
 -6.41540E+00 -1.04203E+03  1.28098E+03 -1.34798E+03  1.30582E+03 -1.39167E+03  1.01202E+03  1.84158E+02
  1.08274E+03  2.01861E+02  1.17096E+03 -2.30032E+02 -6.03423E-01  8.02389E+02  1.68443E+03  5.82050E+01
 -8.18591E+02 -6.16647E+01  1.66035E+03  2.85160E+01  5.82338E+02  2.23371E+03 -9.70900E+01  2.43750E+03
 -1.10509E+03  8.18263E+02 -1.88147E+03  7.52471E+02 -2.32903E+03 -8.49023E+02 -2.78910E+02 -9.45501E+02
  4.22791E+02 -9.98668E+02  6.40806E+02 -1.15242E+03  4.29370E+02  7.10849E+02 -8.96443E+02  1.37920E+03
 -1.56737E+03  6.53805E+02 -9.97841E+02 -1.04097E+03 -8.58920E+02 -1.18360E+03  3.85099E+01 -6.20325E+02
 -1.76853E+01 -6.86663E+02  6.35275E+02  4.79577E+02  7.36150E+02  2.69752E+01 -1.83925E+01  1.31843E+03
 -1.34586E+02  2.54995E+02 -9.30092E+02  3.25579E+02  3.73753E+02 -1.28190E+03  1.39103E+03 -7.18918E+01
  1.18030E+03 -8.47107E+01  2.49761E+03  3.85180E+02  1.14244E+03  1.23756E+03 -2.69975E+02  1.52882E+03
 -1.20165E+03  5.09287E+02 -1.33440E+03  6.38728E+01 -3.66692E+02 -1.19230E+03 -2.17362E+02 -4.28058E+02
  1.25311E+03 -7.05850E+02  1.03093E+03  7.64975E+02  2.75846E+01  1.49539E+03  1.54973E+02  6.59905E+02
  1.80524E+02  1.27025E+03 -4.09510E+02  3.40230E+02 -1.42282E+02  4.13077E+02 -6.42673E+02  2.95855E+01
 -3.31962E+02  6.66741E+02 -1.22286E+03  2.58774E+02 -1.31440E+03  2.93818E+02 -2.09340E+03 -9.42591E+02
 -8.63442E+02 -1.97093E+03  3.06799E+02 -2.38768E+03  7.82031E+02 -2.51613E+03  2.38130E+03 -8.64159E+02
  1.97989E+03  2.05822E+02  8.76901E+02  1.58222E+03 -2.03812E+02  1.33738E+03 -1.81784E+02  9.96237E+02
 -7.62496E+02  5.74379E+02 -1.38007E+02  2.89154E+02 -2.81649E+02  1.00862E+03 -1.25954E+02 -2.82006E+02
 -1.00921E+03  2.08408E+02 -7.53657E+02  2.95940E+02  5.57026E+02 -7.63221E+02 -5.21493E+02 -5.69645E+02
  1.22070E+03 -6.49733E+02  1.11780E+02  1.70989E+02  1.25496E+03  6.17882E+02 -8.64122E+02  8.20664E+02
 -8.28469E+02  2.07247E+03 -1.08856E+03  8.87693E+02 -1.11776E+03  1.13117E+02 -1.61892E+03 -9.66053E+02
 -6.23936E+02 -6.30851E+02 -3.65997E+02 -6.48309E+02  6.75782E+02 -4.58388E+01  4.78653E+02 -2.02309E+02
  7.44841E+02  4.58541E+02  1.35418E+02  2.79748E+02 -3.18038E+02 -2.87031E+02 -1.09638E+00  1.06551E+02
  6.31528E+02  1.05814E+02  3.18201E+02  6.74117E+02  8.91194E+01  1.44170E+02  5.40182E+02  5.99575E+02
 -7.60958E+02  3.92124E+02 -5.00649E+02  4.26145E+02 -2.51591E+02 -3.69601E+02  3.47833E+02 -1.16215E+03
  1.09437E+03 -5.80966E+02  2.21051E+02  1.41915E+02  7.80771E+02 -6.92828E+02  1.74166E+02  1.36055E+03
  4.24327E+02  3.39881E+02  3.58870E+02  7.19525E+02 -8.51587E+02  6.23916E+02 -3.71161E+02  4.53411E+02
 -2.58916E+02  2.69110E+02 -6.04144E+02  6.60336E+02 -3.02576E+02 -7.38309E+00 -7.71399E+02 -3.38702E+02
 -8.91145E+02  2.61831E+02 -5.46549E+02 -7.01943E+02  6.77493E+02 -1.27064E+03  7.25757E+02 -1.27078E+02
  6.23001E+02 -5.18506E+01  1.92846E+01  3.51905E+02  2.43424E+02  9.02593E+02 -7.82789E+02  1.13452E+03
