 $NMID ID='MM_0lb_SNR400_19hz_g55_18.RAW', FMTDAT='(8E13.5)'
 TRAMP=1., VOLUME=1. $END
  3.09330E+05  2.28621E+02  3.37401E+05  2.50754E+05  8.42923E+04  3.37506E+05 -1.32774E+05  2.50370E+05
 -1.89537E+05  8.23160E+04 -1.11389E+05 -3.31482E+04  1.12757E+03 -5.02194E+04  5.40935E+04 -2.30110E+02
  3.56304E+04  5.25802E+04 -1.69385E+04  7.57456E+04 -6.06358E+04  6.29910E+04 -8.37131E+04  3.14488E+04
 -8.01801E+04 -1.12668E+04 -5.66305E+04 -5.04050E+04 -1.49407E+04 -6.79390E+04  2.70665E+04 -4.50749E+04
  3.94123E+04  4.05953E+03  1.55946E+04  4.67932E+04 -3.42820E+04  4.67558E+04 -6.58794E+04 -7.16265E+02
 -5.22719E+04 -5.61037E+04 -6.58915E+03 -7.57909E+04  3.39134E+04 -5.36863E+04  4.64941E+04 -1.64657E+04
  4.19112E+04  1.15314E+04  3.07107E+04  2.49814E+04  1.61226E+04  2.80928E+04 -4.91035E+03  2.68185E+04
 -2.14955E+04  1.28570E+04 -1.94817E+04 -4.40560E+03  4.84505E+03 -7.62602E+03  2.11310E+04  1.13369E+04
  7.12828E+03  3.39729E+04 -3.06451E+04  3.47805E+04 -6.18426E+04  1.96928E+03 -5.58339E+04 -4.13791E+04
 -1.23974E+04 -6.17392E+04  3.87476E+04 -4.39243E+04  5.62599E+04 -1.61871E+03  3.23239E+04  3.11361E+04
 -7.08561E+03  3.41123E+04 -2.90844E+04  1.35347E+04 -2.88615E+04 -5.40654E+03 -1.49542E+04 -1.07198E+04
 -8.01979E+03 -1.15685E+04 -6.86334E+02 -1.66621E+04  6.14239E+03 -2.23883E+04  1.51093E+04 -1.31891E+04
  1.15598E+04  3.95006E+03 -6.90247E+03  1.34012E+04 -1.98378E+04 -2.68003E+03 -7.85370E+03 -3.09734E+04
  2.08405E+04 -4.09480E+04  4.55207E+04 -1.88466E+04  4.27400E+04  1.84013E+04  1.43854E+04  4.19392E+04
 -1.54507E+04  3.15524E+04 -2.34264E+04  1.01159E+03 -8.30880E+03 -2.70206E+04  2.07641E+04 -3.21148E+04
  3.81738E+04 -7.49284E+03  3.23458E+04  2.30593E+04  1.61721E+04  4.39071E+04 -7.89820E+03  4.57194E+04
 -2.93291E+04  3.06394E+04 -3.83684E+04  9.06108E+03 -3.91389E+04 -1.54261E+04 -2.12344E+04 -3.49318E+04
  6.88021E+03 -3.49124E+04  2.94723E+04 -1.33723E+04  2.74453E+04  1.09541E+04  2.94416E+03  1.76844E+04
 -1.30382E+04  7.49692E+03 -9.63246E+03 -7.83110E+03  6.38688E+03 -1.06706E+04  1.75003E+04  6.43127E+03
  1.25585E+04  2.19437E+04 -6.27963E+03  2.42312E+04 -2.20070E+04  9.51304E+03 -2.50796E+04 -6.16653E+03
 -1.75291E+04 -1.67931E+04 -6.34147E+03 -1.74603E+04  4.05659E+03 -1.52787E+04  1.29711E+04 -1.49859E+04
  2.16131E+04 -1.21434E+04  2.89773E+04  1.99000E+03  2.17840E+04  1.68544E+04  4.15598E+03  3.28506E+04
 -1.62621E+04  2.79653E+04 -2.57405E+04  9.30109E+03 -2.03320E+04 -1.04805E+04 -4.06592E+03 -1.38687E+04
  2.55830E+03 -4.49444E+03 -3.42449E+03  5.82755E+03 -1.32110E+04  5.38671E+03 -1.34407E+04 -5.26254E+03
 -8.56992E+03 -1.57277E+04  4.40466E+03 -2.02011E+04  1.29839E+04 -1.40581E+04  1.51129E+04 -1.65975E+03
  9.36599E+03  1.11553E+04 -6.98049E+02  1.64566E+04 -1.06480E+04  9.35077E+03 -1.56085E+04 -3.43288E+03
 -1.19032E+04 -1.46377E+04 -1.42223E+03 -1.94730E+04  8.88013E+03 -1.55418E+04  1.63153E+04 -7.01336E+03
  1.50054E+04  8.76867E+02  1.04175E+04  4.00626E+03  5.40346E+03  7.60076E+02  7.59224E+03 -1.99867E+03
  1.45556E+04  2.98976E+03  1.54705E+04  1.32067E+04  9.79971E+03  2.52298E+04 -3.24635E+03  2.72083E+04
 -1.58559E+04  2.15122E+04 -2.52343E+04  9.92647E+03 -2.56480E+04 -1.61288E+03 -2.19602E+04 -1.44639E+04
 -1.01466E+04 -2.13884E+04  7.17836E+03 -1.98202E+04  1.67717E+04 -1.08881E+04  1.57818E+04  4.29217E+03
  6.93631E+03  1.12950E+04 -7.40912E+03  1.07106E+04 -1.35668E+04  2.19846E+03 -1.04128E+04 -8.35481E+03
 -6.81046E+01 -1.28952E+04  5.66459E+03 -9.81314E+03  8.07510E+03 -1.45744E+03  8.23641E+02  5.35083E+03
 -5.96500E+03  1.50649E+03 -3.86068E+03 -4.94697E+03  6.57174E+02 -1.00725E+04  8.15029E+03 -1.03613E+04
  1.24620E+04 -4.47659E+03  1.27187E+04  2.81924E+03  1.07731E+04  1.01354E+04  4.91171E+03  1.43452E+04
 -2.32144E+03  1.65184E+04 -9.14358E+03  1.02788E+04 -1.14228E+04  3.15761E+03 -8.64039E+03 -1.61273E+03
 -4.45074E+03 -3.22278E+03 -7.46161E+02  1.32673E+03 -1.31279E+03  1.31863E+03 -3.36255E+03  3.81797E+03
 -7.81360E+03  6.81487E+01 -9.51452E+03 -7.33074E+03 -3.79092E+03 -1.21609E+04  3.11722E+03 -8.42660E+03
  7.62556E+03 -3.92969E+03  5.96585E+03  1.97466E+03  5.07756E+02  3.93211E+03 -3.27141E+03 -2.40775E+02
 -3.58650E+03 -5.14154E+03 -1.02108E+03 -6.94770E+03  4.00189E+03 -8.20279E+03  1.01543E+04 -3.71978E+03
  1.17402E+04  4.42293E+02  9.22864E+03  6.87396E+03  2.20480E+03  8.41295E+03 -5.00753E+03  8.06587E+03
 -6.66647E+03  2.67301E+03 -3.32656E+03 -1.00266E+03  1.55165E+03 -1.84055E+03  4.93626E+03 -1.37401E+03
  4.75393E+03  3.06371E+03  4.09729E+02  6.17598E+03 -4.34291E+03  6.22409E+03 -7.76897E+03  1.66431E+03
 -4.32193E+03 -3.45976E+03  6.96436E+02 -6.91260E+03  3.87726E+03 -3.37034E+03  3.66238E+03  1.29158E+03
  2.61682E+02  3.20839E+03 -4.38359E+03  4.75013E+03 -4.99375E+03  1.88779E+03 -4.85919E+03 -4.10676E+02
 -2.98492E+03 -6.31233E+03  8.43275E+02 -6.85931E+03  5.99249E+03 -4.91497E+03  6.04551E+03  7.94171E+02
  4.86020E+03  4.86943E+03 -4.89059E+02  7.32084E+03 -4.78890E+03  4.29025E+03 -5.37653E+03 -4.49372E+02
 -5.90507E+03 -4.51213E+03 -1.28940E+03 -5.05616E+03  2.38142E+03 -4.82554E+03  2.65096E+03 -3.00353E+03
  3.19508E+03  6.50355E+01  3.59079E+02  1.18120E+03  7.29389E+02 -3.65617E+02  1.01745E+02 -1.69374E+03
  3.80091E+03 -1.18182E+03  5.00924E+03  1.67407E+02  5.59135E+03  2.92068E+03  4.97787E+03  7.07714E+03
 -1.68984E+03  8.43694E+03 -7.66362E+03  6.75171E+03 -9.25331E+03  1.40625E+03 -7.55014E+03 -2.26980E+03
 -4.10671E+03 -6.60396E+03 -8.10361E+02 -4.74004E+03  2.11758E+03 -2.02351E+03  2.21671E+03 -1.78718E+03
  8.90916E+02 -1.54196E+03  2.75888E+03 -2.39751E+03  4.02378E+03 -1.64891E+03  3.79722E+03  4.83399E+02
  4.72597E+03  1.21156E+03  1.40458E+03  3.17167E+03 -1.73550E+03  2.89155E+03 -4.30188E+03  2.01012E+03
 -5.15193E+03 -5.50183E+02 -1.51534E+03 -2.77271E+03  5.71371E+02 -4.77565E+03  2.94172E+03 -5.05308E+03
  5.08292E+03 -2.98803E+03  6.13772E+03  3.61166E+02  5.18762E+03  3.73684E+03  1.00368E+03  5.90236E+03
 -2.29267E+03  5.82342E+03 -3.53682E+03  1.76479E+03 -2.49331E+03 -8.27442E+02 -1.97368E+02 -7.43785E+02
 -2.76535E+02  4.82546E+02 -1.04174E+03  1.73987E+03 -2.59888E+03  1.24504E+03 -4.04705E+03 -2.06518E+02
 -1.63320E+03 -4.23010E+03  4.81992E+02 -4.95861E+03  2.30523E+03 -4.51203E+03  3.84273E+03 -1.45034E+03
  3.44763E+03  2.69986E+03  1.63221E+03  2.55735E+03 -8.88527E+02  4.18697E+03 -2.43169E+03  2.44381E+03
 -3.89033E+03  1.02290E+03 -3.11997E+03 -2.31583E+03 -5.63391E+02 -2.81113E+03  1.20369E+03 -2.08889E+03
  2.95987E+03 -1.30598E+03  2.19129E+03  2.21088E+02  3.51299E+02  1.51851E+03  1.07605E+03  4.85036E+02
  1.70473E+03  3.59722E+02  1.43877E+03  5.02584E+02  7.06705E+02  2.31063E+03  1.24992E+03  2.13543E+03
 -1.57589E+03  2.72436E+03 -1.96731E+03  3.47813E+03 -2.75788E+03  1.26250E+03 -4.13303E+03  3.04093E+01
 -1.74088E+03 -3.45779E+03  8.09550E+02 -3.92586E+03  1.61227E+03 -2.45492E+03  2.80137E+03 -4.39292E+02
  2.39251E+03  1.65861E+03  3.56542E+02  1.82798E+03 -7.40530E+02  1.13768E+03 -1.00010E+03 -6.00226E+02
 -8.03289E+02 -1.76852E+03  1.10719E+03 -1.35247E+03  5.27876E+02 -7.62122E+02  1.47559E+03  3.83067E+02
  2.12992E+02  3.50271E+02  9.90822E+02 -2.25191E+02 -5.59662E+02  6.70673E+01  1.61193E+03 -1.77791E+02
 -2.09367E+02 -1.16228E+02  1.39190E+03  1.21165E+03 -4.15449E+01  2.37210E+03  1.03237E+02  2.79513E+03
 -1.07328E+03  1.36277E+03 -1.24635E+03 -3.51844E+02 -1.92649E+03 -1.19952E+03 -3.34176E+02 -1.06861E+03
 -5.96824E+01 -1.09018E+03  1.29521E+03 -4.25629E+02  5.99568E+02  9.14924E+02 -1.14956E+03  1.34456E+03
 -1.13607E+03  1.11891E+03 -1.15680E+03 -1.28730E+03 -1.29324E+02 -1.56453E+03 -3.17345E+02 -1.84613E+03
  2.70564E+02 -6.79500E+02  4.28174E+02  3.66057E+02  1.21293E+03 -8.65865E+02  1.93771E+02  9.20770E+02
  1.30177E+02 -1.14376E+02 -9.13496E+02 -1.48922E+02  7.47987E+02 -9.63909E+02  1.61892E+03 -2.53351E+02
  8.19613E+02  3.53282E+02  3.07826E+03  4.80821E+02  7.86222E+02  1.45813E+03  1.38517E+01  1.56581E+03
 -1.42955E+03 -1.27899E+02 -1.16200E+03 -5.87165E+01 -5.97558E+02 -1.53953E+03  5.05209E+02 -2.14102E+02
  1.25419E+03 -1.55186E+03  7.85350E+02  6.70440E+02  3.78462E+02  1.17773E+03  2.80594E+02  1.41320E+03
 -2.15793E+02  1.23999E+03 -3.76162E+02  4.80696E+01  2.99542E+02 -2.85011E+02 -9.57873E+02  6.27377E+02
 -3.65936E+02  7.30143E+02 -1.89198E+03  7.98768E+02 -1.03367E+03  6.18408E+02 -2.09682E+03 -1.07617E+03
 -1.10030E+03 -2.02219E+03  7.09848E+02 -2.29117E+03  9.21879E+02 -2.09193E+03  2.36891E+03 -1.11718E+03
  1.85594E+03 -2.17719E+02  7.56260E+02  9.33177E+02 -1.01424E+03  7.28788E+02 -4.02201E+02  4.87029E+02
 -6.31565E+02  4.12714E+02 -5.17931E+02 -1.45434E+02 -4.74340E+01  4.29765E+02 -5.25275E+02 -1.44860E+02
 -4.38161E+02  3.04881E+02 -1.17811E+03  6.76245E+02  5.50806E+02 -5.65436E+02 -2.37208E+02 -1.16412E+03
  1.17439E+03 -5.31116E+02 -1.39285E+01  3.86045E+02  5.90435E+02  6.82666E+02 -1.00246E+03  5.50605E+02
 -6.59481E+02  1.80771E+03 -1.90750E+03  1.56576E+03 -1.18296E+03  1.84550E+01 -7.06032E+02 -7.59803E+02
 -6.95755E+02 -9.11305E+02  1.89648E+02 -7.67297E+02  5.06330E+02 -2.09247E+02  6.91747E+02  3.58318E+02
  6.55553E+02 -4.49141E+02  1.10502E+02  2.67630E+02 -1.17096E+02  1.97360E+02 -6.11694E+02 -1.13061E+01
  4.19614E+02 -6.76969E+01  2.93309E+02 -1.89729E+00 -1.13230E+02 -2.27591E+01  5.75482E+02  3.83549E+02
 -7.60449E+02  1.82941E+02  1.88077E+02 -8.28481E+01 -8.24769E+02 -8.49450E+02 -5.07869E+01 -1.33451E+03
  6.46184E+02 -5.89967E+02 -1.35455E+01  2.35193E+02  2.25387E+02 -8.02284E+02  5.44853E+02  5.78788E+02
  2.94319E+02  5.82008E+02 -1.54777E+02  2.97163E+02 -6.06446E+01  7.61527E+02 -3.22030E+02 -3.15781E+01
 -3.79007E+02  3.18243E+02 -2.67707E+02  9.03632E+01 -6.45621E+02  2.31196E+02 -9.25209E+01 -4.34609E+02
 -1.45989E+03  4.17052E+02 -5.28901E+02 -6.56735E+02  7.57177E+02 -1.35776E+03  4.84653E+02 -5.71378E+01
 -6.12090E+01 -2.23566E+02 -3.41313E+02 -2.84947E+02 -2.11468E+02  1.45837E+03 -5.51849E+01  1.08354E+03
