 $NMID ID='MM_0lb_SNR400_16hz_g40_44.RAW', FMTDAT='(8E13.5)'
 TRAMP=1., VOLUME=1. $END
  3.09875E+05  8.87919E+02  3.37181E+05  2.50142E+05  8.46898E+04  3.37186E+05 -1.31725E+05  2.50724E+05
 -1.90071E+05  8.23467E+04 -1.10967E+05 -3.29320E+04  1.80490E+03 -5.04398E+04  5.40843E+04  5.04003E+01
  3.53716E+04  5.28415E+04 -1.66722E+04  7.55145E+04 -6.04224E+04  6.28521E+04 -8.31232E+04  3.20922E+04
 -8.01032E+04 -1.12320E+04 -5.62265E+04 -5.08165E+04 -1.49803E+04 -6.84118E+04  2.62907E+04 -4.53470E+04
  3.90321E+04  3.11292E+03  1.60411E+04  4.70255E+04 -3.35407E+04  4.61018E+04 -6.57817E+04 -2.13659E+02
 -5.22729E+04 -5.63066E+04 -6.60909E+03 -7.56423E+04  3.35964E+04 -5.36464E+04  4.64041E+04 -1.65504E+04
  4.21978E+04  1.10972E+04  3.09018E+04  2.44820E+04  1.58000E+04  2.87773E+04 -5.32910E+03  2.69637E+04
 -2.14090E+04  1.28744E+04 -1.94824E+04 -3.94512E+03  4.55950E+03 -7.29622E+03  2.10296E+04  1.15303E+04
  7.14317E+03  3.35866E+04 -3.06780E+04  3.48229E+04 -6.21304E+04  1.83039E+03 -5.57454E+04 -4.14763E+04
 -1.23555E+04 -6.14709E+04  3.86384E+04 -4.32334E+04  5.61624E+04 -1.85285E+03  3.27128E+04  3.11042E+04
 -6.87822E+03  3.44902E+04 -2.93303E+04  1.44573E+04 -2.81168E+04 -5.05763E+03 -1.50895E+04 -1.02887E+04
 -7.68378E+03 -1.26183E+04 -1.14852E+03 -1.70701E+04  6.91707E+03 -2.27869E+04  1.44045E+04 -1.38704E+04
  1.19323E+04  4.19904E+03 -6.57019E+03  1.35016E+04 -1.99405E+04 -2.97057E+03 -8.42067E+03 -3.18412E+04
  2.19078E+04 -4.17961E+04  4.58501E+04 -1.90504E+04  4.28474E+04  1.81164E+04  1.41871E+04  4.24231E+04
 -1.54698E+04  3.13526E+04 -2.34343E+04  1.63949E+03 -8.59679E+03 -2.69130E+04  2.02427E+04 -3.17745E+04
  3.89246E+04 -8.00398E+03  3.31696E+04  2.29615E+04  1.66292E+04  4.40832E+04 -8.57716E+03  4.65147E+04
 -2.92309E+04  3.12090E+04 -3.91127E+04  8.61794E+03 -3.94206E+04 -1.52560E+04 -2.16851E+04 -3.52767E+04
  7.27512E+03 -3.55325E+04  3.02829E+04 -1.33018E+04  2.74386E+04  1.04773E+04  3.54504E+03  1.83824E+04
 -1.34847E+04  7.15039E+03 -9.84511E+03 -7.85801E+03  5.82110E+03 -9.43190E+03  1.77187E+04  5.79929E+03
  1.23124E+04  2.20266E+04 -6.78417E+03  2.35112E+04 -2.18172E+04  1.00925E+04 -2.56506E+04 -5.40691E+03
 -1.76362E+04 -1.64684E+04 -6.75006E+03 -1.78972E+04  4.28364E+03 -1.62747E+04  1.30541E+04 -1.59669E+04
  2.29982E+04 -1.16017E+04  2.96919E+04  2.09449E+03  2.17580E+04  1.78526E+04  4.43892E+03  3.41333E+04
 -1.70995E+04  2.83888E+04 -2.64477E+04  9.78225E+03 -1.96809E+04 -1.00909E+04 -3.94730E+03 -1.36575E+04
  2.54982E+03 -3.92229E+03 -3.80460E+03  6.02094E+03 -1.39100E+04  5.23990E+03 -1.44740E+04 -6.23912E+03
 -8.94925E+03 -1.68665E+04  4.08184E+03 -1.99830E+04  1.33669E+04 -1.47022E+04  1.52418E+04 -1.07202E+03
  9.71049E+03  1.10792E+04 -5.73858E+02  1.65063E+04 -1.13927E+04  9.55750E+03 -1.69228E+04 -3.76104E+03
 -1.26519E+04 -1.49208E+04 -1.24005E+03 -2.00815E+04  9.92295E+03 -1.62190E+04  1.70499E+04 -8.26949E+03
  1.58450E+04  3.79079E+02  1.13383E+04  4.07102E+03  5.48771E+03  1.05121E+03  8.62736E+03 -1.31941E+03
  1.53918E+04  2.79442E+03  1.62349E+04  1.33624E+04  1.03575E+04  2.66692E+04 -2.97174E+03  2.89816E+04
 -1.68117E+04  2.27080E+04 -2.65893E+04  1.11478E+04 -2.79459E+04 -1.97906E+03 -2.39081E+04 -1.64644E+04
 -1.06384E+04 -2.31188E+04  7.34580E+03 -2.13994E+04  1.83257E+04 -1.14820E+04  1.69814E+04  4.44322E+03
  6.64381E+03  1.20866E+04 -7.49339E+03  1.19955E+04 -1.41069E+04  2.27361E+03 -1.11522E+04 -8.71579E+03
 -5.69620E+02 -1.35440E+04  6.94921E+03 -1.02282E+04  8.54689E+03 -6.34533E+02  1.69463E+03  5.68155E+03
 -5.75913E+03  1.82789E+03 -4.50998E+03 -4.63288E+03  6.09401E+02 -1.12315E+04  8.17432E+03 -1.16409E+04
  1.40233E+04 -5.07302E+03  1.41142E+04  2.39496E+03  1.23406E+04  1.14505E+04  5.28074E+03  1.64295E+04
 -2.45095E+03  1.78761E+04 -1.13076E+04  1.15526E+04 -1.29317E+04  2.73618E+03 -9.70721E+03 -2.65302E+03
 -4.48425E+03 -4.08965E+03 -1.09269E+03  7.53814E+02 -2.41892E+03  1.95129E+03 -4.17507E+03  3.47937E+03
 -8.66901E+03 -2.04108E+02 -9.56332E+03 -7.69687E+03 -3.66784E+03 -1.26548E+04  3.68023E+03 -9.64473E+03
  7.66179E+03 -4.44396E+03  5.71733E+03  2.08755E+03  5.17539E+02  3.43669E+03 -3.58398E+03  1.86831E+02
 -4.20317E+03 -6.38994E+03 -1.37078E+03 -8.66537E+03  4.59011E+03 -9.14951E+03  1.13585E+04 -4.77675E+03
  1.34718E+04  1.56661E+03  1.00465E+04  7.21361E+03  1.38528E+03  1.05862E+04 -5.70460E+03  9.30543E+03
 -7.67927E+03  3.20693E+03 -3.83238E+03 -1.84064E+03  1.13233E+03 -1.80930E+03  5.58453E+03 -1.17348E+03
  4.69122E+03  4.02465E+03  5.99903E+02  7.21326E+03 -5.30846E+03  6.52291E+03 -9.13847E+03  2.29002E+03
 -6.00786E+03 -4.20174E+03  2.37076E+02 -7.84686E+03  4.68137E+03 -4.08062E+03  4.47500E+03  1.27497E+03
  5.56669E+02  4.14129E+03 -4.61069E+03  5.44513E+03 -6.64368E+03  2.63275E+03 -5.82702E+03 -1.17650E+03
 -3.43585E+03 -7.24718E+03  2.21433E+03 -9.00453E+03  7.62800E+03 -5.42772E+03  7.69098E+03  7.04591E+02
  5.55787E+03  6.30999E+03 -3.18401E+02  8.52719E+03 -6.13003E+03  4.60771E+03 -6.55359E+03 -5.93453E+02
 -6.57260E+03 -5.79281E+03 -1.62184E+03 -5.81260E+03  3.00412E+03 -5.62329E+03  3.57810E+03 -3.29777E+03
  3.47462E+03 -4.55457E+01 -9.02837E+01  1.28957E+03  5.64731E+02 -6.09551E+02  8.54888E+02 -2.81123E+03
  5.10928E+03 -1.15714E+03  6.62262E+03  1.52687E+03  6.78178E+03  4.23255E+03  4.87516E+03  8.80896E+03
 -1.66709E+03  1.13997E+04 -9.26702E+03  8.23162E+03 -1.20024E+04  1.40993E+03 -9.87176E+03 -3.77509E+03
 -5.20613E+03 -8.61843E+03 -1.01939E+03 -6.23680E+03  2.45832E+03 -2.86582E+03  2.76827E+03 -2.52817E+03
  1.97939E+03 -1.93699E+03  2.29448E+03 -2.56558E+03  3.13517E+03 -1.53380E+03  3.90789E+03 -2.24500E+01
  5.60984E+03  1.46601E+03  1.49205E+03  4.32731E+03 -1.60668E+03  4.11634E+03 -5.64107E+03  3.48380E+03
 -6.41570E+03 -3.27001E+02 -2.91494E+03 -4.08176E+03 -1.62237E+02 -7.01118E+03  4.51860E+03 -6.86517E+03
  6.66897E+03 -3.99233E+03  8.23902E+03  7.98418E+02  6.60753E+03  5.87023E+03  1.20458E+03  7.82379E+03
 -2.96709E+03  6.41588E+03 -4.03032E+03  2.12556E+03 -2.69680E+03 -1.12150E+03 -1.13884E+03 -7.81777E+02
 -7.60682E+02  2.90509E+02 -1.29931E+03  1.91988E+03 -3.06198E+03  1.44252E+03 -4.89479E+03 -5.62896E+02
 -2.80970E+03 -4.84927E+03  8.27912E+02 -6.00746E+03  3.25057E+03 -5.79644E+03  4.57559E+03 -1.37113E+03
  5.66846E+03  2.84115E+03  3.16852E+03  4.54824E+03 -1.20730E+03  5.84182E+03 -3.46282E+03  3.88828E+03
 -5.53769E+03  1.98026E+02 -3.92507E+03 -3.08348E+03 -4.05033E+02 -4.50260E+03  1.74393E+03 -3.85076E+03
  3.65058E+03 -1.37649E+03  2.34349E+03  8.92368E+02  7.28967E+02  1.68792E+03  8.67134E+02  6.34151E+02
  1.92444E+03  6.34544E+02  2.24793E+03  1.10910E+03  1.53441E+03  2.34163E+03  1.96212E+03  2.32243E+03
 -1.55891E+03  4.12657E+03 -3.45189E+03  4.83888E+03 -4.69233E+03  1.87393E+03 -5.91831E+03 -1.65802E+03
 -1.98850E+03 -4.97255E+03  2.12113E+02 -6.26773E+03  3.71017E+03 -3.25936E+03  4.27809E+03 -1.93400E+03
  3.18682E+03  2.33587E+03  9.59297E+02  3.42617E+03 -1.28945E+03  1.30693E+03 -2.01609E+03  1.46338E+02
 -1.17083E+03 -2.09272E+03  1.16127E+03 -2.10455E+03  2.18191E+03 -1.49004E+03  2.06599E+03  2.75357E+02
  9.83492E+02  9.01201E+02  8.84444E+02  3.50306E+02  5.35391E+01  9.61606E+02  1.60492E+03 -5.05979E+02
  3.70648E+02 -9.66685E+01  2.24655E+03  6.16975E+02  3.75435E+02  3.41841E+03 -5.54165E+02  4.04030E+03
 -2.64196E+03  1.71596E+03 -3.18530E+03  9.06656E+02 -3.28581E+03 -1.50502E+03 -9.43248E+02 -2.29204E+03
  5.55388E+02 -2.16034E+03  1.21447E+03 -1.44973E+03  7.82204E+02  1.50074E+03 -9.14204E+02  1.96639E+03
 -1.56597E+03  1.26360E+03 -1.74196E+03 -1.28230E+03 -1.23789E+03 -3.55517E+03 -2.92861E+02 -2.19669E+03
  7.29432E+02 -1.10880E+03  1.31672E+03  1.98696E+02  2.12040E+03  5.29570E+02  5.71804E+02  1.32105E+03
 -6.43085E+02  2.44600E+02 -1.41485E+03 -1.03445E+03  6.67977E+02 -1.82108E+03  2.32884E+03 -1.16333E+03
  2.66595E+03  9.67002E+02  4.21443E+03  1.39752E+03  5.77643E+02  3.03833E+03 -1.22724E+03  3.38906E+03
 -2.85148E+03  6.37528E+02 -1.98664E+03  1.92284E+01 -1.02104E+03 -1.68650E+03  1.84575E+02 -1.69454E+03
  1.61526E+03 -5.22949E+02  1.25602E+03  1.54054E+03  4.10946E+02  1.90034E+03  1.67459E+02  9.94288E+02
 -7.84670E+02  1.19682E+03 -1.08473E+03  5.39823E+02 -1.17417E+02 -1.47532E+02 -1.33665E+03  8.83691E+02
 -7.82325E+02  1.70306E+03 -2.64038E+03  7.86397E+02 -2.53500E+03 -3.02671E+02 -3.73031E+03 -1.64756E+03
 -2.51123E+03 -2.98407E+03  1.04705E+03 -4.33285E+03  1.87343E+03 -3.30357E+03  4.16933E+03 -1.25491E+03
  3.45244E+03  4.31995E+02  2.08056E+03  2.48432E+03 -6.86934E+02  2.74250E+03 -1.48374E+03  2.03341E+03
 -1.53819E+03  8.51098E+02 -7.22639E+02 -9.01749E+02 -5.08031E+02  1.20214E+02 -1.11510E+03 -1.04889E+02
 -4.76246E+02 -4.24009E+02 -1.31971E+03 -1.05254E+02  3.96749E+01 -9.54212E+02 -5.82792E+02 -1.06665E+03
  2.41167E+03 -9.60653E+02  1.14191E+03  3.35164E+02  1.82476E+03  1.30677E+03 -2.12222E+02  2.83494E+03
 -1.46538E+03  3.35695E+03 -2.91014E+03  1.85085E+03 -2.58253E+03 -5.74009E+02 -2.67368E+03 -2.16652E+03
 -1.06838E+03 -2.41468E+03  6.47790E+02 -2.05475E+03  1.46260E+03 -1.62162E+03  1.61929E+03  1.68156E+02
  1.48541E+03  7.94452E+02 -2.78718E+02  6.50303E+02 -4.88734E+01  4.98470E+01 -3.72974E+02 -2.45161E+02
  7.62433E+02  4.47719E+01  9.22558E+02  8.49170E+02  2.62879E+02  9.65368E+02  2.71016E+02  8.63418E+02
 -1.51746E+03  5.22659E+02 -1.26584E+03  4.77484E+02 -1.14542E+03 -1.29376E+03  1.78375E+02 -2.34609E+03
  4.57625E+02 -1.38372E+03  1.03844E+03 -3.00966E+02  1.46707E+03 -2.71957E+02  8.32105E+02  1.41865E+03
  5.43619E+02  1.49026E+03 -3.80178E+02  1.26493E+03 -1.09955E+03  1.06464E+03 -1.20615E+03  1.72425E+02
 -6.94405E+01 -1.66157E+02 -1.04905E+03  4.37886E+02 -7.35691E+02 -2.40147E+02 -1.43765E+03  1.63078E+02
 -1.83132E+03 -2.19698E+02 -9.29034E+02 -1.63218E+03  1.21260E+03 -2.30637E+03  1.41313E+03 -8.42233E+02
  9.45517E+02 -5.38864E+01  1.18536E+02  7.77326E+01  5.85903E+02  1.76927E+03 -9.82079E+02  7.26403E+02
