 $NMID ID='MM_0lb_SNR400_12hz_g55_71.RAW', FMTDAT='(8E13.5)'
 TRAMP=1., VOLUME=1. $END
  3.10049E+05 -6.21192E+02  3.37979E+05  2.50852E+05  8.47623E+04  3.37946E+05 -1.32605E+05  2.51527E+05
 -1.90174E+05  8.35661E+04 -1.12127E+05 -3.25541E+04  1.17467E+03 -5.09750E+04  5.33783E+04 -5.28265E+02
  3.51138E+04  5.24026E+04 -1.68994E+04  7.57394E+04 -6.10436E+04  6.38151E+04 -8.49299E+04  3.27126E+04
 -8.19542E+04 -1.13666E+04 -5.77772E+04 -5.15309E+04 -1.47760E+04 -7.09122E+04  2.79222E+04 -4.63929E+04
  4.05615E+04  2.86817E+03  1.61042E+04  4.78220E+04 -3.42844E+04  4.78843E+04 -6.76404E+04 -2.69671E+02
 -5.40757E+04 -5.71912E+04 -6.96916E+03 -7.75613E+04  3.44220E+04 -5.60939E+04  4.93633E+04 -1.80014E+04
  4.39084E+04  1.11329E+04  3.23885E+04  2.57355E+04  1.58516E+04  2.94479E+04 -5.45317E+03  2.73890E+04
 -2.20430E+04  1.15759E+04 -1.85405E+04 -5.91749E+03  6.08818E+03 -8.21144E+03  2.27373E+04  1.28826E+04
  7.37992E+03  3.69496E+04 -3.34892E+04  3.64489E+04 -6.48033E+04  2.35341E+03 -5.86462E+04 -4.44019E+04
 -1.23042E+04 -6.49325E+04  4.09120E+04 -4.63395E+04  6.03716E+04 -2.02670E+03  3.52537E+04  3.33138E+04
 -5.68336E+03  3.81973E+04 -3.14138E+04  1.81921E+04 -3.22875E+04 -3.63973E+03 -1.81605E+04 -1.16363E+04
 -9.38555E+03 -1.39945E+04 -5.07760E+01 -1.88415E+04  8.47037E+03 -2.33845E+04  1.55585E+04 -1.34156E+04
  1.06442E+04  6.12571E+03 -9.74363E+03  1.25240E+04 -2.25543E+04 -5.50023E+03 -9.41888E+03 -3.62567E+04
  2.40525E+04 -4.60035E+04  5.02578E+04 -2.05294E+04  4.72076E+04  2.02295E+04  1.66429E+04  4.52133E+04
 -1.65685E+04  3.54858E+04 -2.65769E+04  2.28484E+03 -1.08217E+04 -2.83559E+04  2.20895E+04 -3.60765E+04
  4.31015E+04 -1.05271E+04  3.77835E+04  2.39121E+04  1.97130E+04  4.87491E+04 -7.45533E+03  5.36908E+04
 -3.33212E+04  3.62291E+04 -4.49913E+04  1.00595E+04 -4.51861E+04 -1.78624E+04 -2.49830E+04 -4.04871E+04
  7.81030E+03 -3.95406E+04  3.34751E+04 -1.61841E+04  3.08939E+04  1.05560E+04  4.43489E+03  2.01871E+04
 -1.27726E+04  8.81692E+03 -1.10674E+04 -7.75739E+03  5.71461E+03 -1.16295E+04  1.83409E+04  6.10261E+03
  1.39401E+04  2.24264E+04 -5.77673E+03  2.62926E+04 -2.28213E+04  1.27328E+04 -3.00887E+04 -4.31508E+03
 -2.34244E+04 -1.81106E+04 -1.04448E+04 -2.23460E+04  4.42913E+03 -2.27022E+04  1.75200E+04 -2.10069E+04
  2.94558E+04 -1.36840E+04  3.53924E+04  3.63210E+03  2.65720E+04  2.20977E+04  3.96409E+03  3.84019E+04
 -1.84264E+04  3.19237E+04 -2.92916E+04  1.14281E+04 -2.14484E+04 -9.90473E+03 -4.66070E+03 -1.37872E+04
  2.35931E+03 -2.41629E+03 -6.35912E+03  7.15487E+03 -1.86973E+04  5.19733E+03 -1.88841E+04 -8.10855E+03
 -1.07543E+04 -2.08379E+04  5.21920E+03 -2.53183E+04  1.71228E+04 -1.88964E+04  1.98762E+04 -2.00906E+03
  1.28114E+04  1.50589E+04 -9.24659E+02  2.13689E+04 -1.51955E+04  1.26767E+04 -2.05622E+04 -4.54671E+03
 -1.58171E+04 -1.83848E+04 -2.37306E+03 -2.58540E+04  1.11680E+04 -2.13286E+04  2.11217E+04 -1.06431E+04
  1.98724E+04  1.09706E+02  1.38135E+04  5.28732E+03  7.76162E+03  8.76421E+02  1.13257E+04 -2.35385E+03
  1.96057E+04  2.33964E+03  2.23173E+04  1.69646E+04  1.50744E+04  3.43751E+04 -2.96755E+03  3.88964E+04
 -2.26758E+04  3.16290E+04 -3.71382E+04  1.65915E+04 -3.89375E+04 -2.54135E+03 -3.25319E+04 -2.24023E+04
 -1.35429E+04 -3.21501E+04  1.15582E+04 -2.89802E+04  2.42853E+04 -1.42964E+04  2.14979E+04  6.83577E+03
  7.71899E+03  1.65984E+04 -1.00323E+04  1.31939E+04 -1.79256E+04  2.64520E+03 -1.40915E+04 -1.16337E+04
 -4.78523E+01 -1.75388E+04  9.32241E+03 -1.27392E+04  1.23650E+04 -7.62693E+02  3.11635E+03  7.89460E+03
 -8.10481E+03  3.48904E+03 -7.54700E+03 -6.26573E+03 -1.41527E+03 -1.58188E+04  1.08350E+04 -1.72726E+04
  2.01018E+04 -8.91756E+03  2.17573E+04  4.05100E+03  1.88455E+04  1.59621E+04  8.09516E+03  2.45197E+04
 -4.71839E+03  2.70196E+04 -1.75038E+04  1.65696E+04 -1.93085E+04  3.74332E+03 -1.32741E+04 -4.83916E+03
 -6.00598E+03 -6.37804E+03 -7.49362E+02  7.02108E+02 -2.67051E+03  3.56778E+03 -6.03950E+03  4.96151E+03
 -1.17582E+04 -9.81807E+02 -1.24738E+04 -1.09262E+04 -5.31913E+03 -1.75065E+04  5.72305E+03 -1.34372E+04
  1.07904E+04 -6.08837E+03  8.07799E+03  3.43087E+03 -3.66427E+02  5.17323E+03 -6.52356E+03  2.05075E+02
 -6.70614E+03 -8.34690E+03 -5.71508E+02 -1.29307E+04  7.25109E+03 -1.34533E+04  1.66273E+04 -7.31234E+03
  2.00451E+04  1.30252E+03  1.35838E+04  1.15399E+04  2.76961E+03  1.51620E+04 -8.22529E+03  1.28299E+04
 -1.01816E+04  4.14616E+03 -5.30527E+03 -1.87466E+03  1.89248E+03 -4.02360E+03  7.26410E+03 -5.15391E+02
  5.73937E+03  6.17774E+03  9.78810E+02  1.04962E+04 -7.87196E+03  9.95367E+03 -1.37537E+04  2.57599E+03
 -9.43143E+03 -6.34264E+03 -1.65582E+02 -1.12518E+04  7.09456E+03 -5.69962E+03  7.54778E+03  2.97837E+03
  2.11717E+03  7.50806E+03 -6.62084E+03  9.15128E+03 -1.14520E+04  4.91213E+03 -1.08547E+04 -3.28349E+03
 -5.62224E+03 -1.26629E+04  3.87005E+03 -1.43339E+04  1.21032E+04 -8.19798E+03  1.36868E+04  2.60383E+03
  8.04882E+03  1.09211E+04 -7.85636E+02  1.20038E+04 -9.31187E+03  6.82465E+03 -1.02838E+04 -1.28665E+03
 -8.95556E+03 -8.87586E+03 -1.59441E+03 -9.04178E+03  4.52528E+03 -7.51905E+03  5.78825E+03 -3.97809E+03
  4.19178E+03  1.45469E+03 -1.49520E+03  1.65070E+03 -1.13386E+03 -2.75352E+03  1.66056E+03 -5.27079E+03
  8.57204E+03 -3.62206E+03  1.20781E+04  1.27114E+03  1.23454E+04  8.22014E+03  9.05799E+03  1.55101E+04
 -3.73491E+03  1.86098E+04 -1.57886E+04  1.38538E+04 -1.99172E+04  3.31463E+03 -1.59178E+04 -6.58371E+03
 -7.48648E+03 -1.31351E+04 -6.40535E+02 -1.19692E+04  4.35166E+03 -5.50432E+03  3.82104E+03 -4.28564E+03
  2.06493E+03 -2.63235E+03  3.82305E+03 -3.61818E+03  4.80933E+03 -2.96301E+03  6.73510E+03 -1.22603E+03
  8.72570E+03  9.92163E+02  3.75545E+03  7.40258E+03 -2.17821E+03  8.48425E+03 -9.44564E+03  5.62949E+03
 -1.10139E+04 -1.68063E+03 -6.87179E+03 -7.30529E+03 -4.11972E+02 -1.11561E+04  6.48541E+03 -1.23890E+04
  1.22681E+04 -7.53365E+03  1.42404E+04  2.03510E+03  1.04758E+04  1.01213E+04  1.82159E+03  1.35736E+04
 -5.90403E+03  1.06469E+04 -7.32445E+03  3.45007E+03 -5.38422E+03 -1.71425E+03 -2.69341E+03 -1.36013E+03
 -6.57156E+02  1.38576E+02 -1.57887E+03  3.18114E+03 -4.48566E+03  1.87396E+03 -8.05748E+03 -8.86415E+02
 -5.14507E+03 -8.07047E+03  4.56518E+02 -1.03198E+04  6.73855E+03 -9.92113E+03  1.08272E+04 -3.14715E+03
  1.07145E+04  5.49870E+03  4.24893E+03  9.40932E+03 -1.96566E+03  1.03080E+04 -7.77090E+03  6.75806E+03
 -9.85224E+03  5.54411E+02 -7.76429E+03 -6.74941E+03 -8.00763E+02 -8.49747E+03  4.71233E+03 -7.10263E+03
  6.58053E+03 -2.55257E+03  4.56197E+03  1.67625E+03  1.31913E+03  3.25252E+03  1.77529E+03  1.41433E+03
  2.97604E+03  4.31534E+02  2.70056E+03  1.62560E+03  3.12160E+03  4.46195E+03  3.17602E+03  5.25491E+03
 -2.64798E+03  7.67379E+03 -7.16034E+03  8.71399E+03 -1.00970E+04  2.01042E+03 -1.13483E+04 -3.91054E+03
 -5.47951E+03 -1.03444E+04  1.55500E+03 -1.19982E+04  6.16629E+03 -7.62200E+03  8.67812E+03 -2.16743E+03
  6.75962E+03  4.17867E+03  1.58267E+03  6.18685E+03 -2.46211E+03  3.55337E+03 -4.03699E+03  2.05905E+01
 -1.33432E+03 -4.03430E+03  3.23037E+03 -4.85597E+03  4.06324E+03 -2.43174E+03  4.04437E+03  2.98129E+02
  3.17015E+03  1.73512E+03  9.43806E+02  1.07360E+03 -3.21881E+02  1.66573E+03  2.01208E+03  7.12160E+01
  1.18198E+03 -8.10796E+02  4.21605E+03  1.48156E+03  2.39548E+03  5.46820E+03 -1.54306E+03  7.06818E+03
 -4.99784E+03  4.24462E+03 -6.88336E+03  1.57378E+03 -5.88987E+03 -2.55448E+03 -1.80451E+03 -3.65596E+03
  6.20946E+02 -4.45697E+03  2.81314E+03 -1.57524E+03  2.81495E+03  2.35045E+03 -1.11171E+03  3.48558E+03
 -4.14458E+03  1.91340E+03 -4.45157E+03 -2.15608E+03 -3.44659E+03 -6.17250E+03  9.79643E+02 -4.65123E+03
  3.27875E+03 -3.10283E+03  4.08032E+03 -6.02736E+02  3.63747E+03  1.97597E+03  5.97459E+02  3.30674E+03
 -1.30864E+03  1.09008E+03 -2.91537E+03 -1.78131E+03  1.25654E+03 -4.53030E+03  4.91476E+03 -3.33037E+03
  5.78126E+03  9.34454E+02  6.21936E+03  3.93171E+03  2.01034E+03  6.57774E+03 -1.92887E+03  6.31609E+03
 -5.01095E+03  2.70661E+03 -5.42539E+03 -8.62603E+02 -3.02091E+03 -4.30146E+03  9.72532E+02 -4.17148E+03
  3.74198E+03 -1.67695E+03  3.61469E+03  1.75897E+03  1.25851E+03  3.60530E+03 -3.69198E+02  2.85269E+03
 -1.31192E+03  2.63780E+03 -1.33742E+03  9.23707E+02 -3.09686E+02  1.04241E+03 -1.77222E+03  1.67656E+03
 -1.44029E+03  2.46996E+03 -4.61018E+03  2.09589E+03 -6.24345E+03  3.33141E+02 -7.55103E+03 -3.17837E+03
 -3.96950E+03 -8.54834E+03  1.81374E+03 -9.53058E+03  5.98084E+03 -7.64200E+03  9.05080E+03 -2.87969E+03
  7.34992E+03  1.13283E+03  4.92153E+03  6.22291E+03 -4.34848E-01  5.86534E+03 -3.25487E+03  4.73479E+03
 -3.94316E+03  1.52136E+03 -2.64005E+03 -6.08406E+02 -9.74964E+02 -1.56594E+02 -5.38452E+02 -1.30403E+02
 -1.40917E+03  6.39117E+02 -1.61833E+03 -2.86216E+02 -2.94855E+02 -1.46743E+03  5.32104E+02 -1.86477E+03
  2.50359E+03 -2.01780E+03  3.75959E+03 -2.82345E+02  4.05360E+03  3.35576E+03  6.11665E+02  6.16407E+03
 -2.87412E+03  6.89556E+03 -6.72505E+03  4.21281E+03 -7.06241E+03 -2.54750E+02 -5.57478E+03 -4.41737E+03
 -2.56676E+03 -6.56488E+03  1.21117E+03 -5.63932E+03  3.80094E+03 -2.01008E+03  4.06235E+03  9.19211E+01
  2.73504E+03  1.27482E+03 -6.13907E+02  2.08053E+03 -6.33818E+02  4.40255E+02  2.98422E+02 -1.59761E+03
  1.28600E+03 -1.49587E+02  2.81210E+03  2.82318E+02  2.07761E+03  2.10592E+03 -1.36770E+02  2.81976E+03
 -2.71301E+03  2.31110E+03 -3.83279E+03  7.52842E+02 -3.23554E+03 -2.25413E+03 -3.09377E+02 -4.46229E+03
  2.60836E+03 -4.07306E+03  4.88771E+03 -5.86530E+02  4.44848E+03  5.69008E+02  2.13422E+03  3.68161E+03
  1.30793E+03  2.97358E+03 -1.89073E+03  3.24629E+03 -2.65676E+03  2.11791E+03 -2.36936E+03  6.03896E+02
 -1.24177E+03 -3.19586E+02 -6.98700E+02  1.93223E+02 -1.66464E+03  5.97167E+02 -3.53751E+03 -1.40919E+02
 -2.84764E+03 -1.95404E+03 -3.90914E+02 -3.94652E+03  2.23179E+03 -4.29319E+03  3.62831E+03 -2.13832E+03
  3.56292E+03  1.97485E+02  1.73138E+03  1.76333E+03 -4.29941E+02  4.55563E+03 -2.89417E+03  2.20971E+03
