 $NMID ID='MM_0lb_SNR400_8hz_g60_9.RAW', FMTDAT='(8E13.5)'
 TRAMP=1., VOLUME=1. $END
  3.09224E+05  2.01814E+02  3.37971E+05  2.51263E+05  8.49413E+04  3.38691E+05 -1.32397E+05  2.52746E+05
 -1.90102E+05  8.39493E+04 -1.11976E+05 -3.23514E+04  3.45622E+00 -5.01146E+04  5.29539E+04 -6.49645E+02
  3.52542E+04  5.33432E+04 -1.58111E+04  7.58704E+04 -6.19676E+04  6.48039E+04 -8.52139E+04  3.32130E+04
 -8.27629E+04 -1.22031E+04 -5.89046E+04 -5.31302E+04 -1.57863E+04 -7.17049E+04  2.85982E+04 -4.63306E+04
  4.24503E+04  2.74145E+03  1.72290E+04  4.87022E+04 -3.47027E+04  4.81506E+04 -6.87472E+04 -1.56864E+02
 -5.53590E+04 -5.79533E+04 -8.12675E+03 -7.94008E+04  3.55041E+04 -5.78245E+04  5.03087E+04 -1.88404E+04
  4.57213E+04  1.19042E+04  3.42282E+04  2.62196E+04  1.57216E+04  3.15303E+04 -5.80997E+03  2.87262E+04
 -2.36057E+04  1.09858E+04 -1.77652E+04 -6.17344E+03  7.50232E+03 -6.65902E+03  2.47915E+04  1.42154E+04
  6.47972E+03  3.81578E+04 -3.39286E+04  3.86790E+04 -6.66232E+04  2.72580E+03 -6.01138E+04 -4.55977E+04
 -1.30676E+04 -6.62257E+04  4.23906E+04 -4.78902E+04  6.25046E+04 -2.77762E+03  3.79240E+04  3.47788E+04
 -5.49835E+03  4.11877E+04 -3.18164E+04  2.04103E+04 -3.45228E+04 -2.81919E+03 -2.06710E+04 -1.24098E+04
 -9.89890E+03 -1.59595E+04 -3.65102E+02 -1.97899E+04  7.78444E+03 -2.40475E+04  1.61584E+04 -1.24861E+04
  9.85733E+03  7.44640E+03 -1.19458E+04  1.29741E+04 -2.32592E+04 -7.62499E+03 -9.17801E+03 -3.96158E+04
  2.58149E+04 -4.85023E+04  5.34629E+04 -2.13250E+04  5.03250E+04  2.10325E+04  1.83190E+04  4.81564E+04
 -1.63925E+04  3.74151E+04 -2.82557E+04  3.18073E+03 -1.31216E+04 -2.91056E+04  2.18309E+04 -3.90045E+04
  4.57917E+04 -1.19492E+04  4.21298E+04  2.48051E+04  2.30387E+04  5.32057E+04 -8.65065E+03  5.79432E+04
 -3.74388E+04  4.00497E+04 -4.99540E+04  1.08208E+04 -4.98676E+04 -1.94518E+04 -2.70816E+04 -4.45557E+04
  8.90070E+03 -4.42638E+04  3.48443E+04 -1.81700E+04  3.25561E+04  1.13532E+04  5.64813E+03  2.11764E+04
 -1.39564E+04  1.04979E+04 -1.15620E+04 -7.42652E+03  6.18707E+03 -1.19577E+04  1.87151E+04  5.76369E+03
  1.51831E+04  2.36047E+04 -4.97134E+03  2.70887E+04 -2.37552E+04  1.51244E+04 -3.26984E+04 -2.11829E+03
 -2.81553E+04 -1.85906E+04 -1.30985E+04 -2.63882E+04  4.15764E+03 -2.78607E+04  2.12532E+04 -2.45227E+04
  3.42341E+04 -1.35014E+04  4.06980E+04  5.44578E+03  2.84757E+04  2.57558E+04  4.31663E+03  4.27776E+04
 -1.98905E+04  3.50604E+04 -3.21280E+04  1.23628E+04 -2.31447E+04 -9.59563E+03 -4.91755E+03 -1.23479E+04
  6.33413E+02 -2.61948E+02 -9.35072E+03  8.62736E+03 -2.25353E+04  5.59820E+03 -2.24299E+04 -1.05817E+04
 -1.29298E+04 -2.47949E+04  7.02599E+03 -2.96204E+04  2.06847E+04 -2.07487E+04  2.43189E+04 -1.40536E+03
  1.60434E+04  1.75604E+04 -2.02903E+03  2.54628E+04 -1.79760E+04  1.44270E+04 -2.56608E+04 -5.73619E+03
 -1.83220E+04 -2.20826E+04 -3.34656E+03 -2.98606E+04  1.41458E+04 -2.49809E+04  2.33091E+04 -1.36273E+04
  2.33357E+04 -1.09328E+03  1.76898E+04  5.52391E+03  9.22134E+03  1.54151E+03  1.35577E+04 -2.01151E+03
  2.35447E+04  3.39501E+03  2.80523E+04  1.96447E+04  1.95677E+04  4.06406E+04 -2.88182E+03  4.81569E+04
 -2.77136E+04  4.05556E+04 -4.55298E+04  2.10216E+04 -4.93701E+04 -2.67000E+03 -4.05519E+04 -2.86060E+04
 -1.57050E+04 -4.16817E+04  1.46359E+04 -3.53812E+04  3.00920E+04 -1.73791E+04  2.69354E+04  8.24587E+03
  9.48067E+03  2.13504E+04 -1.31617E+04  1.71471E+04 -2.12206E+04  2.75730E+03 -1.70137E+04 -1.35217E+04
 -5.56303E+02 -2.11263E+04  1.18956E+04 -1.58860E+04  1.45272E+04 -8.06266E+02  4.99930E+03  9.89277E+03
 -1.03363E+04  5.23881E+03 -1.11286E+04 -7.78830E+03 -2.01259E+03 -2.03656E+04  1.24939E+04 -2.11305E+04
  2.55368E+04 -1.29795E+04  2.96298E+04  3.64321E+03  2.59542E+04  2.06162E+04  1.18227E+04  3.32847E+04
 -6.05947E+03  3.51077E+04 -2.30979E+04  2.20705E+04 -2.51850E+04  3.63781E+03 -1.66697E+04 -6.70757E+03
 -7.65569E+03 -8.06677E+03 -6.31338E+02  6.21344E+01 -3.24822E+03  3.56203E+03 -8.85139E+03  5.01324E+03
 -1.55697E+04 -6.77900E+02 -1.66504E+04 -1.29480E+04 -6.41285E+03 -2.17210E+04  7.21501E+03 -1.71687E+04
  1.47122E+04 -7.06279E+03  9.92552E+03  4.14706E+03 -5.75834E+02  6.20115E+03 -8.32190E+03 -4.09262E+01
 -7.75861E+03 -1.16078E+04 -1.75840E+03 -1.81608E+04  1.11848E+04 -1.84291E+04  2.23787E+04 -1.06983E+04
  2.58524E+04  3.44872E+03  1.89053E+04  1.63094E+04  4.17985E+03  2.15807E+04 -1.06593E+04  1.74580E+04
 -1.55227E+04  4.18863E+03 -6.83513E+03 -3.67082E+03  2.11389E+03 -5.59455E+03  8.81201E+03 -1.00089E+03
  7.90449E+03  7.52690E+03  5.11802E+02  1.35418E+04 -1.01907E+04  1.40853E+04 -1.76700E+04  3.59347E+03
 -1.22110E+04 -9.04638E+03  7.91866E+02 -1.50796E+04  1.00866E+04 -7.64567E+03  9.84332E+03  3.50772E+03
  2.99791E+03  1.06395E+04 -9.72694E+03  1.32615E+04 -1.58085E+04  5.28967E+03 -1.64677E+04 -6.47909E+03
 -9.31758E+03 -1.90494E+04  4.14626E+03 -2.12869E+04  1.79552E+04 -1.17669E+04  2.03234E+04  4.32744E+03
  1.18376E+04  1.53546E+04 -1.43510E+03  1.72878E+04 -1.32794E+04  9.09004E+03 -1.51463E+04 -2.08769E+03
 -1.22175E+04 -1.21324E+04 -1.37655E+03 -1.41914E+04  7.07699E+03 -1.04897E+04  8.36287E+03 -2.83735E+03
  5.48247E+03  3.26075E+03 -9.76001E+02  1.38939E+03 -1.07830E+03 -4.39391E+03  2.90565E+03 -9.67038E+03
  1.35468E+04 -6.46197E+03  1.90742E+04  1.62919E+03  1.87613E+04  1.36917E+04  1.08907E+04  2.37299E+04
 -5.51082E+03  2.76766E+04 -2.38015E+04  2.05347E+04 -3.00513E+04  4.52390E+03 -2.42929E+04 -1.11723E+04
 -1.19983E+04 -1.98690E+04 -7.56707E+01 -1.69176E+04  6.11713E+03 -1.01340E+04  6.69469E+03 -6.36046E+03
  4.90423E+03 -3.26929E+03  4.06721E+03 -4.19219E+03  6.43988E+03 -4.05593E+03  9.03936E+03 -1.96277E+03
  1.27456E+04  3.16201E+03  7.66890E+03  1.08217E+04 -1.61581E+03  1.30662E+04 -1.35736E+04  1.10472E+04
 -1.74605E+04 -1.81308E+03 -1.16308E+04 -1.28053E+04 -1.28058E+03 -1.88801E+04  9.92652E+03 -1.88306E+04
  1.95349E+04 -1.02300E+04  2.32849E+04  3.13621E+03  1.55101E+04  1.70619E+04  1.85472E+03  2.18967E+04
 -9.18395E+03  1.61227E+04 -1.21879E+04  6.91746E+03 -8.70339E+03 -1.82669E+03 -4.39534E+03 -2.66245E+03
 -1.44764E+03  4.73735E+01 -2.04909E+03  3.52010E+03 -6.99128E+03  2.55843E+03 -1.14240E+04 -1.84094E+03
 -8.84279E+03 -1.25952E+04 -2.87016E+02 -1.85016E+04  1.08336E+04 -1.63644E+04  1.89351E+04 -4.36743E+03
  1.82848E+04  8.98995E+03  8.08833E+03  1.60974E+04 -3.00464E+03  1.76932E+04 -1.31980E+04  1.07728E+04
 -1.72455E+04  1.08478E+03 -1.25317E+04 -1.09680E+04 -6.28922E+02 -1.50275E+04  7.97946E+03 -1.16291E+04
  1.19458E+04 -3.47667E+03  7.66812E+03  3.58616E+03  4.09299E+03  5.30831E+03  1.55720E+03  2.28096E+03
  3.29385E+03  1.73633E+02  4.31578E+03  1.67154E+03  5.63092E+03  6.74246E+03  4.97503E+03  9.30981E+03
 -4.21194E+03  1.44255E+04 -1.29949E+04  1.49832E+04 -1.98928E+04  4.39205E+03 -1.96615E+04 -8.26782E+03
 -8.45153E+03 -1.83890E+04  2.74971E+03 -1.97357E+04  1.18501E+04 -1.30140E+04  1.61721E+04 -3.19090E+03
  1.16471E+04  6.42188E+03  3.37225E+03  1.06313E+04 -4.58436E+03  6.70244E+03 -7.51504E+03 -2.19646E+03
 -3.75440E+03 -8.31677E+03  4.56557E+03 -8.08870E+03  7.50175E+03 -3.75666E+03  7.97624E+03  1.97597E+03
  4.67521E+03  4.18627E+03  2.15730E+03  2.88023E+03 -1.10584E+03  2.93104E+03  2.36679E+03 -9.63401E+02
  3.59618E+03 -9.65261E+02  7.47773E+03  3.47303E+03  5.05347E+03  1.02011E+04 -1.41659E+03  1.30348E+04
 -9.59748E+03  8.98863E+03 -1.22660E+04  1.80490E+03 -1.13242E+04 -4.68839E+03 -4.73709E+03 -7.48895E+03
  3.96972E+02 -7.66201E+03  4.65607E+03 -3.32913E+03  4.63772E+03  3.51123E+03 -2.05780E+03  6.07028E+03
 -7.81185E+03  3.14956E+03 -8.81143E+03 -4.01312E+03 -5.33828E+03 -1.00564E+04  1.68049E+03 -1.12414E+04
  6.95196E+03 -7.49391E+03  7.57331E+03 -4.85263E+02  6.28245E+03  2.22409E+03  1.12172E+03  5.82359E+03
 -3.20740E+03  9.50182E+02 -4.61924E+03 -3.27763E+03  1.77008E+03 -8.88912E+03  1.01761E+04 -6.69621E+03
  1.27404E+04  8.02043E+02  1.22886E+04  8.79751E+03  3.85759E+03  1.29802E+04 -4.05974E+03  1.18853E+04
 -9.69726E+03  4.59418E+03 -1.00800E+04 -2.55374E+03 -5.10716E+03 -7.99016E+03  2.22724E+03 -7.84458E+03
  6.70964E+03 -4.00535E+03  7.06717E+03  3.25428E+03  2.99460E+03  6.65889E+03 -6.86604E+02  5.84421E+03
 -2.81314E+03  4.61597E+03 -3.34959E+03  1.16173E+03 -2.12692E+03  9.46685E+02 -1.81459E+03  2.21692E+03
 -3.04590E+03  4.72120E+03 -8.48358E+03  4.02056E+03 -1.30657E+04  1.09094E+02 -1.36124E+04 -8.61330E+03
 -6.95485E+03 -1.74250E+04  2.67944E+03 -2.02685E+04  1.13995E+04 -1.54133E+04  1.86072E+04 -4.87757E+03
  1.72025E+04  3.47627E+03  1.17475E+04  1.17257E+04  1.54408E+03  1.25696E+04 -6.12533E+03  1.04630E+04
 -7.84436E+03  3.32950E+03 -4.21697E+03 -1.65006E+03 -1.82439E+03 -1.76618E+03  2.18006E+02 -6.86350E+02
 -2.49198E+03 -2.65416E+02 -4.45015E+03 -1.13222E+03 -3.91156E+02 -3.51026E+03  2.34425E+02 -5.76308E+03
  6.32965E+03 -3.39832E+03  7.30670E+03  3.49976E+02  9.02443E+03  8.45336E+03  3.88741E+03  1.40336E+04
 -7.28032E+03  1.49582E+04 -1.44401E+04  9.02717E+03 -1.61225E+04 -1.39444E+03 -1.17885E+04 -1.00452E+04
 -5.52419E+03 -1.33932E+04  5.03889E+03 -1.34936E+04  8.63369E+03 -7.32813E+03  8.30287E+03  8.60357E+02
  5.44112E+03  5.25649E+03 -3.82187E+01  4.17429E+03 -2.62059E+03 -3.81123E+02  2.39064E+01 -3.14289E+03
  4.12742E+03 -9.67400E+02  5.72625E+03  1.45482E+03  3.45176E+03  5.74811E+03 -3.79853E+01  7.63816E+03
 -6.11927E+03  5.67638E+03 -9.38927E+03  1.13995E+03 -8.63862E+03 -6.44121E+03 -7.30449E+02 -1.08008E+04
  6.45745E+03 -9.95153E+03  1.07771E+04 -3.18298E+03  1.03029E+04  3.38358E+03  6.03755E+03  9.08989E+03
  1.45215E+03  9.13372E+03 -3.45613E+03  7.21081E+03 -5.64430E+03  3.53431E+03 -4.72363E+03  1.35591E+03
 -1.97741E+03 -6.82693E+02 -2.38999E+03  1.08942E+03 -4.57034E+03  2.12754E+03 -6.84109E+03 -1.19883E+03
 -6.15807E+03 -6.23977E+03 -2.63315E+03 -8.61700E+03  4.67598E+03 -9.64521E+03  7.73777E+03 -4.82719E+03
  8.91018E+03  1.21416E+03  4.66120E+03  6.64288E+03 -9.79825E+02  9.01017E+03 -7.77501E+03  6.81865E+03
