 $NMID ID='MM_0lb_SNR400_17hz_g55_16.RAW', FMTDAT='(8E13.5)'
 TRAMP=1., VOLUME=1. $END
  3.09300E+05  2.84180E+02  3.37750E+05  2.51128E+05  8.45323E+04  3.37710E+05 -1.32086E+05  2.50849E+05
 -1.90066E+05  8.26660E+04 -1.11536E+05 -3.28455E+04  1.01874E+03 -5.05942E+04  5.37812E+04 -1.16138E+02
  3.54209E+04  5.32207E+04 -1.67012E+04  7.50646E+04 -6.12206E+04  6.31376E+04 -8.38200E+04  3.19649E+04
 -8.03523E+04 -1.10619E+04 -5.65152E+04 -5.08706E+04 -1.47963E+04 -6.88174E+04  2.75743E+04 -4.52725E+04
  3.93783E+04  4.25857E+03  1.64169E+04  4.74995E+04 -3.49006E+04  4.67165E+04 -6.63593E+04 -1.40979E+02
 -5.24488E+04 -5.70697E+04 -6.45229E+03 -7.69829E+04  3.33702E+04 -5.44280E+04  4.75375E+04 -1.67215E+04
  4.25321E+04  1.13118E+04  3.13283E+04  2.51352E+04  1.61240E+04  2.88985E+04 -5.46561E+03  2.69689E+04
 -2.26578E+04  1.23941E+04 -1.89836E+04 -4.74405E+03  5.40386E+03 -6.95460E+03  2.20750E+04  1.18964E+04
  7.36725E+03  3.45582E+04 -3.12794E+04  3.47893E+04 -6.26015E+04  2.40088E+03 -5.65398E+04 -4.14515E+04
 -1.21401E+04 -6.23170E+04  3.92697E+04 -4.46978E+04  5.71996E+04 -2.48612E+03  3.31879E+04  3.14567E+04
 -5.59098E+03  3.51341E+04 -2.94849E+04  1.52551E+04 -2.93184E+04 -4.82339E+03 -1.58009E+04 -1.04048E+04
 -7.78382E+03 -1.22511E+04 -9.04205E+02 -1.73948E+04  7.80404E+03 -2.29701E+04  1.54231E+04 -1.37281E+04
  1.16224E+04  4.71341E+03 -7.66824E+03  1.29559E+04 -2.01795E+04 -3.76938E+03 -7.75652E+03 -3.25399E+04
  2.16288E+04 -4.21776E+04  4.65623E+04 -1.93890E+04  4.41351E+04  1.90990E+04  1.53429E+04  4.29883E+04
 -1.60704E+04  3.17790E+04 -2.40723E+04  1.77167E+03 -9.21719E+03 -2.72693E+04  2.04372E+04 -3.24731E+04
  3.94893E+04 -8.24109E+03  3.38425E+04  2.36134E+04  1.67803E+04  4.50527E+04 -8.31947E+03  4.82412E+04
 -3.08883E+04  3.25227E+04 -4.00287E+04  8.93339E+03 -4.10396E+04 -1.58222E+04 -2.26555E+04 -3.62135E+04
  7.04742E+03 -3.60984E+04  3.04642E+04 -1.40873E+04  2.79686E+04  1.08366E+04  3.75594E+03  1.88539E+04
 -1.30178E+04  7.86591E+03 -1.01850E+04 -7.64491E+03  5.80594E+03 -1.05642E+04  1.77236E+04  6.25638E+03
  1.30621E+04  2.13368E+04 -6.27115E+03  2.44326E+04 -2.17269E+04  1.02213E+04 -2.65184E+04 -5.02806E+03
 -1.91430E+04 -1.74565E+04 -7.50733E+03 -1.87000E+04  4.01584E+03 -1.74241E+04  1.41061E+04 -1.61933E+04
  2.39204E+04 -1.24905E+04  3.05418E+04  1.89187E+03  2.30199E+04  1.82118E+04  4.24474E+03  3.54045E+04
 -1.70857E+04  2.89986E+04 -2.71575E+04  1.04453E+04 -2.02736E+04 -1.04957E+04 -4.27519E+03 -1.35972E+04
  2.10781E+03 -3.67697E+03 -3.40026E+03  6.29432E+03 -1.54233E+04  4.85976E+03 -1.50286E+04 -5.95720E+03
 -9.62863E+03 -1.81278E+04  5.39912E+03 -2.13798E+04  1.37020E+04 -1.58411E+04  1.62314E+04 -1.17184E+03
  1.02399E+04  1.20426E+04 -3.36409E+02  1.76376E+04 -1.11438E+04  9.91760E+03 -1.75926E+04 -4.21401E+03
 -1.32149E+04 -1.56123E+04 -1.46294E+03 -2.10032E+04  9.58183E+03 -1.69617E+04  1.75283E+04 -8.36360E+03
  1.60906E+04  4.35750E+02  1.16532E+04  3.60045E+03  5.74099E+03  8.71500E+02  8.62177E+03 -1.15157E+03
  1.57514E+04  2.80427E+03  1.70564E+04  1.41978E+04  1.07611E+04  2.74640E+04 -3.00929E+03  3.06117E+04
 -1.77113E+04  2.42357E+04 -2.77645E+04  1.18514E+04 -2.94404E+04 -1.77973E+03 -2.41808E+04 -1.68570E+04
 -1.07170E+04 -2.36950E+04  7.92537E+03 -2.23785E+04  1.95859E+04 -1.15009E+04  1.71847E+04  4.55905E+03
  6.91836E+03  1.24617E+04 -7.85845E+03  1.18264E+04 -1.44811E+04  2.69630E+03 -1.12719E+04 -8.64719E+03
  1.24173E+02 -1.30982E+04  6.45364E+03 -1.03381E+04  9.20288E+03 -1.24648E+03  1.76960E+03  5.84874E+03
 -5.82084E+03  1.77845E+03 -4.47204E+03 -5.03608E+03  1.36593E+02 -1.16431E+04  7.96699E+03 -1.20588E+04
  1.44366E+04 -6.14646E+03  1.48783E+04  3.40288E+03  1.22810E+04  1.11557E+04  6.33693E+03  1.69494E+04
 -2.20085E+03  1.86776E+04 -1.19106E+04  1.23182E+04 -1.31287E+04  3.15721E+03 -9.55962E+03 -2.75700E+03
 -5.33434E+03 -4.73148E+03 -9.35285E+02  1.84473E+03 -2.44272E+03  2.05808E+03 -4.47369E+03  3.51503E+03
 -9.61343E+03 -7.07687E+02 -9.74521E+03 -8.45014E+03 -4.50942E+03 -1.26665E+04  3.77510E+03 -9.61417E+03
  8.21158E+03 -3.98344E+03  6.05641E+03  2.66669E+03  9.49650E+02  3.44909E+03 -3.94926E+03 -2.08487E+02
 -4.47517E+03 -6.11757E+03 -6.07961E+02 -8.24302E+03  5.08640E+03 -9.33700E+03  1.09868E+04 -4.67974E+03
  1.39332E+04  1.52106E+03  9.79471E+03  7.29870E+03  1.89909E+03  1.09555E+04 -6.28830E+03  9.57593E+03
 -8.11205E+03  2.84670E+03 -4.57453E+03 -9.27159E+02  1.21933E+03 -2.56681E+03  5.14999E+03 -6.52540E+02
  4.64099E+03  3.87268E+03  7.13681E+02  7.89731E+03 -5.27143E+03  6.87746E+03 -9.17147E+03  1.67012E+03
 -6.67756E+03 -4.34701E+03  9.28238E+01 -8.02084E+03  5.15980E+03 -3.64798E+03  4.34662E+03  6.09981E+02
  7.59046E+02  4.79773E+03 -4.52284E+03  6.46046E+03 -6.82598E+03  3.01231E+03 -5.93050E+03 -1.63374E+03
 -3.78032E+03 -7.42956E+03  1.43815E+03 -8.86928E+03  7.33837E+03 -6.31456E+03  7.59753E+03  1.23178E+03
  6.18987E+03  6.50924E+03 -4.55977E+02  8.73135E+03 -5.76955E+03  4.37959E+03 -6.63868E+03 -3.66754E+02
 -5.79447E+03 -5.75599E+03 -1.34950E+03 -5.91348E+03  3.74316E+03 -5.28280E+03  3.76804E+03 -3.11416E+03
  3.21853E+03  5.68516E+02 -1.11533E+02  1.55654E+03  5.04595E+02 -9.34595E+02  6.23405E+02 -2.90278E+03
  4.61014E+03 -1.47758E+03  6.32553E+03  7.50004E+02  7.63499E+03  4.37865E+03  6.19567E+03  9.46994E+03
 -1.79091E+03  1.08903E+04 -9.61842E+03  7.73683E+03 -1.18955E+04  2.05570E+03 -9.84287E+03 -3.50712E+03
 -4.90773E+03 -8.26200E+03  2.49496E+01 -6.40477E+03  2.52368E+03 -3.43746E+03  2.19713E+03 -2.54053E+03
  1.74599E+03 -1.67557E+03  1.94283E+03 -2.13640E+03  3.67632E+03 -1.82899E+03  3.95982E+03  1.54436E+02
  5.23349E+03  1.66147E+03  1.86372E+03  3.70471E+03 -1.63789E+03  3.71339E+03 -5.69292E+03  3.47476E+03
 -6.04686E+03 -8.78019E+02 -2.62133E+03 -4.31492E+03  3.21214E+02 -6.05884E+03  4.10067E+03 -6.78827E+03
  6.72240E+03 -3.46482E+03  8.22877E+03  8.83041E+02  5.90836E+03  4.69416E+03  1.30595E+03  7.67231E+03
 -2.94147E+03  6.95710E+03 -4.27240E+03  2.58319E+03 -2.51563E+03 -1.42459E+03 -4.44724E+02 -3.06002E+02
 -1.07003E+03  2.56332E+02 -1.25709E+03  2.12422E+03 -2.91646E+03  1.18888E+03 -5.24486E+03 -7.10433E+02
 -2.25945E+03 -4.67240E+03  1.06918E+03 -5.50665E+03  3.53059E+03 -4.84087E+03  4.85447E+03 -2.42137E+03
  5.74074E+03  2.58668E+03  2.35479E+03  5.17856E+03 -1.04457E+03  5.40777E+03 -3.43768E+03  3.22495E+03
 -4.80638E+03  1.06613E+03 -3.91583E+03 -3.45108E+03 -2.69458E+02 -3.61725E+03  2.25008E+03 -3.17345E+03
  3.11259E+03 -2.23518E+03  2.54411E+03  5.73335E+02  7.25688E+02  2.03486E+03  6.45987E+02  7.74818E+02
  1.89365E+03  6.09037E+02  9.68918E+02  6.40785E+02  1.28968E+03  2.41626E+03  1.82498E+03  2.72324E+03
 -1.66927E+03  4.10079E+03 -3.28477E+03  5.25288E+03 -4.22730E+03  1.46080E+03 -5.85710E+03 -6.41590E+02
 -2.02447E+03 -4.32262E+03  1.33161E+03 -6.16282E+03  1.76390E+03 -3.54348E+03  3.84595E+03 -1.82547E+03
  3.10694E+03  2.08575E+03  2.07023E+02  2.10997E+03 -9.60205E+02  1.46361E+03 -1.80252E+03  1.02114E+02
 -1.41798E+03 -1.76215E+03  1.36563E+03 -2.13399E+03  1.64321E+03 -1.45720E+03  2.00867E+03  6.11434E+02
  1.54892E+03  1.18646E+02  1.14195E+03 -3.91753E+02 -7.13614E+02  5.00723E+02  1.89796E+03 -6.29767E+02
 -1.58608E+02 -4.44831E+02  2.31932E+03  6.38656E+02 -1.53972E+02  3.42502E+03 -6.10405E+02  4.08642E+03
 -2.07761E+03  1.67196E+03 -2.82495E+03  9.81095E+02 -2.33921E+03 -9.24529E+02 -4.47383E+02 -1.23704E+03
  2.71419E+02 -1.17905E+03  8.48468E+02 -9.98560E+02  1.04187E+03  1.43973E+03 -7.68731E+02  9.68855E+02
 -2.24504E+03  7.60553E+02 -2.01739E+03 -1.38928E+03 -6.64538E+02 -2.86731E+03  2.16963E+02 -2.19472E+03
  6.47455E+02 -1.30287E+03  1.07222E+03  7.19415E+02  1.95308E+03 -2.34669E+02 -8.93570E+01  1.51313E+03
 -4.93762E+02 -2.09143E+02 -9.25988E+02 -2.11755E+02  3.42815E+02 -1.50629E+03  2.57421E+03 -1.38828E+03
  1.92275E+03  2.27577E+01  3.21962E+03  1.36190E+03  9.51067E+02  2.03329E+03 -2.13899E+02  2.44127E+03
 -2.16081E+03 -1.07743E+01 -1.99890E+03 -3.63741E+02 -9.00033E+02 -1.30125E+03  6.44734E+02 -1.03528E+03
  1.91496E+03 -5.55997E+02  1.42721E+03  7.57861E+02  3.35589E+02  1.72313E+03  2.20441E+01  1.69870E+03
 -6.12165E+02  1.71501E+03 -4.01002E+02  4.51663E+02 -2.41537E+02  2.92213E+02 -1.45941E+03  9.79802E+02
 -9.67373E+02  1.28512E+03 -2.05693E+03  1.31034E+03 -2.26148E+03  3.47929E+01 -3.03879E+03 -1.49269E+03
 -1.12024E+03 -2.71935E+03  1.26606E+03 -4.29192E+03  1.47435E+03 -2.72719E+03  3.73628E+03 -1.39703E+03
  3.28555E+03  2.17552E+02  1.79831E+03  1.99802E+03 -3.36551E+02  1.75874E+03 -1.29765E+03  1.55703E+03
 -1.64816E+03  6.39585E+02 -1.01254E+03 -3.80103E+02 -6.93591E+02  3.81848E+02 -2.42251E+02  4.67518E+02
 -5.98041E+02 -1.90474E+02 -8.15398E+02 -4.76501E+01  6.13340E+02 -1.02420E+03 -5.73483E+02 -1.36072E+03
  1.37911E+03 -8.77015E+02  2.21949E+02  2.42662E+02  1.87668E+03  1.57795E+03  4.29064E+01  2.17467E+03
 -1.20661E+03  2.63314E+03 -2.30482E+03  2.13944E+03 -2.21623E+03 -6.65878E+02 -1.93498E+03 -1.65717E+03
 -9.20896E+02 -1.87198E+03  6.54091E+02 -1.44076E+03  7.94775E+02 -4.81835E+02  6.15329E+02  1.79084E+02
  1.04564E+03  4.17857E+02  2.71854E+02  4.86039E+02 -8.07335E+02 -4.38121E+02 -4.49556E+01  1.53501E+00
  1.31397E+02  2.10023E+02  8.02351E+02  5.80667E+02  3.72737E+02  6.79745E+02  8.09341E+02  6.48101E+01
 -2.33688E+02  9.04310E+02 -7.36853E+02 -2.62341E+02 -9.70053E+02 -5.24175E+02  1.85153E+01 -1.27449E+03
  7.98536E+02 -5.97257E+02  1.16859E+03 -2.10883E+02  1.20860E+03 -7.83921E+01  5.64515E+02  4.97928E+02
  3.61241E+02  9.25589E+02 -1.61582E+02  1.14725E+03 -9.68071E+02  9.86437E+02 -3.56420E+01  2.84978E+02
 -4.94479E+02  2.38071E+02 -7.05256E+02  5.56940E+02 -1.16842E+03 -1.96967E+02 -1.14149E+03 -1.53994E+02
 -1.48827E+03 -2.04408E+02 -4.20923E+02 -9.82772E+02  1.28006E+03 -7.75257E+02  1.23322E+03 -1.39744E+02
  5.79739E+02  5.54913E+02 -2.64153E+01  4.16510E+02 -1.01285E+02  1.20488E+03 -8.04488E+02  8.91325E+02
