 $NMID ID='MM_0lb_SNR400_8hz_g50_68.RAW', FMTDAT='(8E13.5)'
 TRAMP=1., VOLUME=1. $END
  3.09322E+05  5.42342E+01  3.38342E+05  2.51409E+05  8.46982E+04  3.38162E+05 -1.32822E+05  2.52515E+05
 -1.90455E+05  8.38341E+04 -1.12784E+05 -3.28503E+04  4.89163E+02 -5.10676E+04  5.37700E+04 -8.22104E+02
  3.53883E+04  5.30165E+04 -1.69605E+04  7.65159E+04 -6.14407E+04  6.42110E+04 -8.57853E+04  3.21057E+04
 -8.31288E+04 -1.20607E+04 -5.90599E+04 -5.29645E+04 -1.46341E+04 -7.23652E+04  2.89365E+04 -4.74014E+04
  4.15030E+04  3.95387E+03  1.66087E+04  4.87116E+04 -3.46595E+04  4.84509E+04 -6.81340E+04  3.80876E+02
 -5.52571E+04 -5.71040E+04 -7.57528E+03 -7.92894E+04  3.45128E+04 -5.70437E+04  4.93101E+04 -1.82321E+04
  4.48769E+04  1.22223E+04  3.39470E+04  2.71751E+04  1.65290E+04  3.07142E+04 -5.75334E+03  2.87612E+04
 -2.23723E+04  1.21399E+04 -1.79050E+04 -5.48681E+03  7.07153E+03 -6.47349E+03  2.37384E+04  1.38256E+04
  8.08157E+03  3.71703E+04 -3.35929E+04  3.77912E+04 -6.57916E+04  1.52958E+03 -6.00178E+04 -4.44698E+04
 -1.27752E+04 -6.65746E+04  4.24948E+04 -4.77039E+04  6.19633E+04 -3.15471E+03  3.66962E+04  3.55109E+04
 -5.74969E+03  3.88035E+04 -3.19575E+04  1.93181E+04 -3.33168E+04 -3.45351E+03 -2.01740E+04 -1.19522E+04
 -9.18133E+03 -1.59723E+04 -8.55648E+02 -1.92479E+04  8.36658E+03 -2.39412E+04  1.61464E+04 -1.36890E+04
  1.04465E+04  6.18662E+03 -1.09941E+04  1.23803E+04 -2.34275E+04 -6.63657E+03 -8.98307E+03 -3.80291E+04
  2.59880E+04 -4.71130E+04  5.29703E+04 -2.10731E+04  4.95305E+04  2.08411E+04  1.75503E+04  4.72575E+04
 -1.67015E+04  3.64761E+04 -2.79371E+04  2.63323E+03 -1.20172E+04 -3.01930E+04  2.21828E+04 -3.69585E+04
  4.51214E+04 -1.11162E+04  4.14165E+04  2.52995E+04  2.19355E+04  5.22612E+04 -8.84862E+03  5.78727E+04
 -3.54540E+04  3.90159E+04 -4.81491E+04  1.17217E+04 -4.85291E+04 -1.89171E+04 -2.74234E+04 -4.28298E+04
  8.19426E+03 -4.27369E+04  3.40319E+04 -1.71179E+04  3.23609E+04  1.15094E+04  5.11262E+03  2.00460E+04
 -1.37329E+04  9.53803E+03 -1.10222E+04 -7.45091E+03  6.24243E+03 -1.12010E+04  1.92142E+04  5.39385E+03
  1.49633E+04  2.26493E+04 -5.36089E+03  2.75332E+04 -2.36885E+04  1.47750E+04 -3.29574E+04 -1.90093E+03
 -2.60190E+04 -1.86213E+04 -1.21194E+04 -2.58311E+04  4.71379E+03 -2.66695E+04  2.10350E+04 -2.48155E+04
  3.25427E+04 -1.51227E+04  3.91051E+04  5.91574E+03  2.76197E+04  2.50892E+04  4.21426E+03  4.24928E+04
 -2.08881E+04  3.48165E+04 -3.12095E+04  1.08506E+04 -2.18392E+04 -1.00635E+04 -4.64623E+03 -1.25918E+04
  4.19292E+02 -2.78486E+02 -6.77473E+03  7.69255E+03 -2.03256E+04  4.97685E+03 -2.04074E+04 -1.07076E+04
 -1.20476E+04 -2.50759E+04  5.99779E+03 -2.93267E+04  1.97557E+04 -2.04010E+04  2.36659E+04 -1.30463E+03
  1.54835E+04  1.74419E+04 -1.20581E+03  2.41148E+04 -1.74687E+04  1.42852E+04 -2.41128E+04 -4.68594E+03
 -1.81370E+04 -2.13073E+04 -1.25818E+03 -2.88324E+04  1.30379E+04 -2.43184E+04  2.35809E+04 -1.25670E+04
  2.26212E+04 -1.20222E+03  1.57864E+04  6.29022E+03  8.29239E+03  2.03345E+03  1.22186E+04 -1.82362E+03
  2.30693E+04  3.28452E+03  2.72076E+04  1.87431E+04  1.83326E+04  4.03253E+04 -2.36013E+03  4.72163E+04
 -2.61391E+04  3.90156E+04 -4.37032E+04  2.10362E+04 -4.66214E+04 -2.47244E+03 -3.78388E+04 -2.79090E+04
 -1.46320E+04 -3.91160E+04  1.44928E+04 -3.39772E+04  3.00139E+04 -1.52111E+04  2.56025E+04  8.39861E+03
  8.55629E+03  1.98557E+04 -1.18649E+04  1.58784E+04 -2.03955E+04  2.90830E+03 -1.59605E+04 -1.35105E+04
 -4.97991E+01 -1.95904E+04  1.01117E+04 -1.55584E+04  1.40741E+04 -1.29514E+03  3.52757E+03  8.89293E+03
 -9.18496E+03  4.95631E+03 -1.01434E+04 -7.06260E+03 -1.85094E+03 -1.95766E+04  1.19783E+04 -2.08225E+04
  2.39767E+04 -1.22341E+04  2.77937E+04  2.46082E+03  2.46834E+04  1.99103E+04  1.16986E+04  3.07954E+04
 -6.22037E+03  3.35101E+04 -2.19910E+04  1.98517E+04 -2.42705E+04  4.02395E+03 -1.58045E+04 -6.47136E+03
 -7.25277E+03 -7.35453E+03 -6.44773E+02  3.02961E+02 -3.21393E+03  4.21780E+03 -7.97050E+03  6.55415E+03
 -1.46373E+04 -1.04739E+03 -1.53722E+04 -1.28185E+04 -5.63953E+03 -2.03769E+04  6.62788E+03 -1.73014E+04
  1.41673E+04 -7.11493E+03  9.06251E+03  5.09372E+03  3.94990E+02  6.83566E+03 -8.57507E+03  4.10444E+02
 -8.43725E+03 -1.03698E+04 -1.86033E+03 -1.64375E+04  1.01100E+04 -1.76972E+04  2.21017E+04 -9.25193E+03
  2.53301E+04  2.96264E+03  1.91427E+04  1.60219E+04  2.79553E+03  2.12473E+04 -1.02747E+04  1.72534E+04
 -1.31222E+04  4.17006E+03 -7.17258E+03 -3.60285E+03  2.74164E+03 -5.26849E+03  9.06929E+03 -1.52644E+02
  8.39453E+03  7.87708E+03  1.44044E+03  1.40687E+04 -1.04492E+04  1.28513E+04 -1.74271E+04  2.76778E+03
 -1.19562E+04 -8.48217E+03  2.52977E+02 -1.43468E+04  9.56605E+03 -6.73581E+03  1.01689E+04  3.32418E+03
  2.43448E+03  1.11817E+04 -7.77692E+03  1.24524E+04 -1.48282E+04  6.23580E+03 -1.57993E+04 -5.94890E+03
 -9.20891E+03 -1.66314E+04  3.37289E+03 -2.03029E+04  1.68001E+04 -1.13747E+04  1.83309E+04  3.85028E+03
  1.13881E+04  1.42110E+04 -2.12922E+03  1.69346E+04 -1.28392E+04  9.84100E+03 -1.41330E+04 -1.58991E+03
 -1.11788E+04 -1.05506E+04 -8.35249E+02 -1.27125E+04  6.57458E+03 -1.09286E+04  8.69802E+03 -4.90260E+03
  5.09292E+03  1.98511E+03 -9.48766E+02  2.28746E+03 -8.25697E+02 -4.25335E+03  2.38528E+03 -8.84123E+03
  1.28200E+04 -5.41234E+03  1.77463E+04  1.72221E+03  1.68571E+04  1.27290E+04  1.11591E+04  2.32233E+04
 -6.29574E+03  2.63397E+04 -2.22198E+04  1.92619E+04 -2.83849E+04  3.74018E+03 -2.29878E+04 -1.01207E+04
 -1.04860E+04 -1.87565E+04 -2.17680E+02 -1.54448E+04  5.51895E+03 -9.45596E+03  4.45777E+03 -6.28138E+03
  4.10458E+03 -3.32487E+03  4.80743E+03 -3.99705E+03  6.64064E+03 -3.35829E+03  8.89354E+03 -1.70725E+03
  1.16700E+04  2.07137E+03  6.41442E+03  1.01699E+04 -2.32144E+03  1.33276E+04 -1.31005E+04  1.08138E+04
 -1.61809E+04 -2.33036E+03 -1.07722E+04 -1.11614E+04 -1.01454E+03 -1.86386E+04  9.94997E+03 -1.67314E+04
  1.83033E+04 -9.31694E+03  2.07995E+04  3.33866E+03  1.56001E+04  1.48829E+04  2.93871E+03  2.01836E+04
 -8.19116E+03  1.52917E+04 -1.19068E+04  5.73521E+03 -7.81139E+03 -1.45537E+03 -3.82047E+03 -3.21559E+03
 -1.62873E+03 -6.69385E+02 -2.21689E+03  2.94409E+03 -7.18553E+03  2.38917E+03 -1.08125E+04 -2.31134E+03
 -8.38666E+03 -1.06836E+04  4.30177E+01 -1.58771E+04  1.00389E+04 -1.55744E+04  1.70385E+04 -4.82793E+03
  1.58261E+04  7.77366E+03  7.52709E+03  1.55349E+04 -4.16969E+03  1.60620E+04 -1.26214E+04  1.07170E+04
 -1.58613E+04  8.27175E+00 -1.17681E+04 -1.16112E+04 -1.78355E+03 -1.46576E+04  7.71077E+03 -1.03403E+04
  1.09780E+04 -3.91012E+03  7.37462E+03  2.82694E+03  2.16474E+03  5.40831E+03  7.73564E+02  3.02849E+03
  3.12890E+03  8.35025E+02  4.37987E+03  2.36005E+03  4.99433E+03  5.64526E+03  3.77645E+03  9.15753E+03
 -4.27245E+03  1.38429E+04 -1.11688E+04  1.31340E+04 -1.73294E+04  2.65807E+03 -1.84440E+04 -7.68710E+03
 -8.37298E+03 -1.75385E+04  2.82830E+03 -1.88853E+04  1.01416E+04 -1.22895E+04  1.40906E+04 -3.11975E+03
  1.06160E+04  6.12303E+03  2.15900E+03  1.01307E+04 -5.12449E+03  6.22946E+03 -7.34909E+03 -1.88563E+03
 -4.22349E+03 -7.98394E+03  3.26402E+03 -8.28527E+03  7.87559E+03 -3.72194E+03  7.30391E+03  1.63110E+03
  3.80722E+03  3.70285E+03  2.28838E+03  3.39586E+03 -6.03891E+02  2.54326E+03  1.23833E+03 -3.87591E+02
  2.76101E+03 -1.38269E+03  6.42955E+03  3.38270E+03  3.18635E+03  8.86858E+03 -1.97775E+03  1.34743E+04
 -7.89343E+03  8.24969E+03 -1.17473E+04  2.77891E+03 -1.04386E+04 -4.22800E+03 -3.89414E+03 -7.31651E+03
  1.04803E+03 -7.25367E+03  4.30657E+03 -3.68527E+03  4.84606E+03  4.31809E+03 -1.10240E+03  6.44943E+03
 -6.77966E+03  3.51088E+03 -8.98438E+03 -4.33357E+03 -5.00944E+03 -9.67187E+03  1.13515E+03 -1.04593E+04
  6.27051E+03 -5.91246E+03  7.72681E+03  9.09566E+01  5.39784E+03  2.20251E+03  1.48739E+03  3.84353E+03
 -3.10733E+03  1.59705E+03 -4.84245E+03 -3.54945E+03  2.39727E+03 -7.24466E+03  8.57171E+03 -6.71991E+03
  1.15957E+04  1.23663E+03  1.09084E+04  7.02948E+03  3.92991E+03  1.21049E+04 -5.16578E+03  1.17869E+04
 -1.04467E+04  4.47419E+03 -1.08660E+04 -1.92042E+03 -5.60997E+03 -7.89708E+03  1.39693E+03 -6.50707E+03
  7.38521E+03 -3.23058E+03  7.32592E+03  2.70134E+03  2.06736E+03  6.93734E+03 -5.95447E+02  5.76057E+03
 -3.20761E+03  3.89974E+03 -2.08762E+03  1.15745E+03 -2.08086E+03  1.08866E+03 -1.40844E+03  3.13391E+03
 -3.98211E+03  4.69719E+03 -7.20973E+03  3.77959E+03 -1.20099E+04  3.39906E+02 -1.25166E+04 -8.20730E+03
 -7.02470E+03 -1.57330E+04  3.36827E+03 -1.74587E+04  1.14563E+04 -1.46797E+04  1.75049E+04 -5.54607E+03
  1.54053E+04  2.78766E+03  9.29502E+03  1.10638E+04  8.54839E+02  1.30735E+04 -5.40665E+03  9.42970E+03
 -7.28536E+03  3.02013E+03 -4.33179E+03 -5.55140E+02 -6.00189E+02 -1.89011E+03  1.27775E+02  2.26344E+02
 -1.94440E+03  9.85755E+02 -2.71438E+03 -6.60813E+02 -5.92988E+02 -3.03189E+03  1.93401E+02 -5.39542E+03
  5.79335E+03 -4.42057E+03  7.39776E+03 -9.52705E+01  7.76577E+03  6.91835E+03  3.43885E+03  1.31953E+04
 -5.27444E+03  1.37306E+04 -1.31489E+04  8.64632E+03 -1.44233E+04 -1.14649E+03 -1.14752E+04 -8.86838E+03
 -4.90040E+03 -1.23760E+04  3.01667E+03 -1.14768E+04  9.46249E+03 -6.34893E+03  9.58744E+03 -6.23961E+01
  4.41622E+03  4.09165E+03 -9.11399E+00  3.11054E+03 -2.66314E+03 -3.56112E+02  3.56265E+02 -3.18635E+03
  4.60881E+03 -2.19667E+03  5.36477E+03  1.40242E+03  3.71751E+03  4.62411E+03  6.22491E+02  7.45547E+03
 -5.30259E+03  6.75495E+03 -8.96649E+03  7.21637E+02 -6.56925E+03 -6.40016E+03 -2.23561E+03 -1.02934E+04
  6.13675E+03 -9.72292E+03  9.96263E+03 -2.57337E+03  9.21981E+03  2.99095E+03  5.89276E+03  8.05518E+03
  1.75206E+03  9.13555E+03 -3.37563E+03  7.83913E+03 -4.91117E+03  4.57658E+03 -5.00660E+03  5.70735E+02
 -1.25466E+03 -2.94983E+02 -2.21723E+03  1.39263E+03 -4.26075E+03  9.36236E+02 -6.76093E+03 -9.14683E+02
 -5.87319E+03 -5.41849E+03 -1.96078E+03 -7.75391E+03  3.87892E+03 -9.19914E+03  8.15965E+03 -4.12426E+03
  8.47283E+03  1.25457E+03  4.73447E+03  6.78339E+03 -1.53317E+02  8.23742E+03 -6.55329E+03  5.16152E+03
