 $NMID ID='MM_0lb_SNR400_10hz_g45_55.RAW', FMTDAT='(8E13.5)'
 TRAMP=1., VOLUME=1. $END
  3.09497E+05  1.53300E+03  3.38279E+05  2.49992E+05  8.49434E+04  3.38595E+05 -1.32529E+05  2.51028E+05
 -1.91349E+05  8.33065E+04 -1.11955E+05 -3.22821E+04  1.28520E+03 -5.07868E+04  5.40878E+04  4.39091E+02
  3.53398E+04  5.28219E+04 -1.67911E+04  7.56394E+04 -6.07566E+04  6.40328E+04 -8.52432E+04  3.24048E+04
 -8.21077E+04 -1.07569E+04 -5.76828E+04 -5.16853E+04 -1.50367E+04 -7.11945E+04  2.79971E+04 -4.66156E+04
  4.05225E+04  3.54727E+03  1.60993E+04  4.78480E+04 -3.47395E+04  4.76897E+04 -6.79328E+04 -1.31239E+02
 -5.47019E+04 -5.74613E+04 -7.35551E+03 -7.83815E+04  3.54324E+04 -5.61278E+04  4.88462E+04 -1.75812E+04
  4.45617E+04  1.16801E+04  3.16544E+04  2.58547E+04  1.58870E+04  3.02249E+04 -5.16242E+03  2.80519E+04
 -2.18654E+04  1.22213E+04 -1.79186E+04 -5.60252E+03  6.69102E+03 -7.49400E+03  2.35686E+04  1.30765E+04
  7.13437E+03  3.62394E+04 -3.28242E+04  3.65845E+04 -6.48480E+04  3.25609E+03 -5.79148E+04 -4.33406E+04
 -1.19022E+04 -6.57763E+04  4.09637E+04 -4.69410E+04  6.04574E+04 -2.67130E+03  3.62944E+04  3.37792E+04
 -5.84829E+03  3.81169E+04 -3.09076E+04  1.75665E+04 -3.29681E+04 -3.91395E+03 -1.78763E+04 -1.12242E+04
 -9.49802E+03 -1.46538E+04 -5.89220E+02 -1.88840E+04  7.74235E+03 -2.33331E+04  1.60785E+04 -1.23510E+04
  1.12285E+04  5.29420E+03 -1.00399E+04  1.30575E+04 -2.24253E+04 -6.71015E+03 -8.39930E+03 -3.66259E+04
  2.44290E+04 -4.67222E+04  5.13919E+04 -2.02274E+04  4.72477E+04  2.04696E+04  1.70085E+04  4.65019E+04
 -1.66637E+04  3.57344E+04 -2.79284E+04  2.99578E+03 -1.08213E+04 -2.86270E+04  2.13190E+04 -3.52416E+04
  4.31828E+04 -1.02637E+04  3.95032E+04  2.47542E+04  2.10154E+04  4.99612E+04 -8.63790E+03  5.44080E+04
 -3.45312E+04  3.66948E+04 -4.60833E+04  1.09651E+04 -4.59968E+04 -1.90521E+04 -2.59119E+04 -4.11623E+04
  8.65813E+03 -4.10220E+04  3.39629E+04 -1.67303E+04  3.09496E+04  1.01318E+04  4.60027E+03  2.06975E+04
 -1.40827E+04  8.99997E+03 -1.10118E+04 -7.21929E+03  6.25207E+03 -1.09812E+04  1.81372E+04  5.47177E+03
  1.44762E+04  2.27904E+04 -5.21552E+03  2.57875E+04 -2.34148E+04  1.27522E+04 -3.10276E+04 -3.60392E+03
 -2.45669E+04 -1.77043E+04 -1.03300E+04 -2.40329E+04  4.88846E+03 -2.29365E+04  1.86881E+04 -2.11615E+04
  3.02388E+04 -1.39210E+04  3.64494E+04  4.25915E+03  2.63378E+04  2.33337E+04  3.78523E+03  4.02231E+04
 -1.89242E+04  3.23592E+04 -2.96385E+04  1.07443E+04 -2.21163E+04 -1.03881E+04 -4.91293E+03 -1.32429E+04
  1.58464E+03 -2.20911E+03 -7.12295E+03  7.96350E+03 -1.94531E+04  5.24064E+03 -1.90810E+04 -8.37378E+03
 -1.08860E+04 -2.22076E+04  5.80672E+03 -2.66659E+04  1.81226E+04 -1.89446E+04  2.14510E+04 -1.54503E+03
  1.35200E+04  1.55285E+04 -1.47720E+03  2.16696E+04 -1.57404E+04  1.26959E+04 -2.23787E+04 -4.72869E+03
 -1.57074E+04 -1.95104E+04 -2.03823E+03 -2.55252E+04  1.19419E+04 -2.20540E+04  2.17200E+04 -1.14031E+04
  2.04378E+04  1.63587E+02  1.53250E+04  4.78525E+03  7.84894E+03  1.91722E+03  1.09669E+04 -1.45753E+03
  2.08485E+04  2.49741E+03  2.36309E+04  1.70537E+04  1.54370E+04  3.56223E+04 -2.02754E+03  4.11462E+04
 -2.36959E+04  3.37310E+04 -3.90583E+04  1.63037E+04 -4.16226E+04 -4.05147E+03 -3.35719E+04 -2.49807E+04
 -1.28494E+04 -3.39189E+04  1.22676E+04 -3.01393E+04  2.59220E+04 -1.40251E+04  2.26274E+04  6.23524E+03
  7.77558E+03  1.70534E+04 -1.12168E+04  1.45731E+04 -1.92888E+04  2.81396E+03 -1.44358E+04 -1.16164E+04
 -5.69353E+02 -1.73697E+04  1.06399E+04 -1.35339E+04  1.16777E+04 -1.52432E+03  3.03670E+03  8.24197E+03
 -8.31695E+03  3.43270E+03 -7.78318E+03 -6.56661E+03 -1.20547E+03 -1.63743E+04  1.12648E+04 -1.77969E+04
  2.07074E+04 -1.00079E+04  2.36764E+04  3.92152E+03  2.05949E+04  1.70601E+04  1.04778E+04  2.66385E+04
 -5.01689E+03  2.89160E+04 -1.85394E+04  1.79834E+04 -2.04411E+04  3.97331E+03 -1.36725E+04 -5.45737E+03
 -6.49145E+03 -7.12532E+03 -5.23394E+02  1.15437E+03 -2.81697E+03  3.07938E+03 -6.84734E+03  4.74708E+03
 -1.27440E+04 -9.62184E+02 -1.38262E+04 -1.07687E+04 -5.78420E+03 -1.73520E+04  5.96000E+03 -1.50716E+04
  1.19470E+04 -5.85984E+03  8.53796E+03  4.21855E+03 -2.81329E+02  6.28073E+03 -6.04862E+03  1.15670E+02
 -6.81859E+03 -8.50927E+03 -7.49675E+02 -1.40282E+04  8.86329E+03 -1.48504E+04  1.82783E+04 -8.39908E+03
  2.13897E+04  2.21019E+03  1.52659E+04  1.25357E+04  3.77025E+03  1.68098E+04 -8.50383E+03  1.46966E+04
 -1.10691E+04  4.36590E+03 -5.80518E+03 -3.22915E+03  1.39850E+03 -3.97321E+03  7.57889E+03 -1.66895E+03
  5.97638E+03  6.34742E+03  1.30742E+03  1.13926E+04 -8.67944E+03  1.13502E+04 -1.40054E+04  2.87863E+03
 -9.39776E+03 -7.73822E+03 -4.18532E+02 -1.23734E+04  7.30980E+03 -6.08337E+03  8.60161E+03  2.61519E+03
  2.22699E+03  8.92894E+03 -7.92976E+03  1.03587E+04 -1.18960E+04  4.26449E+03 -1.24824E+04 -5.09975E+03
 -7.87551E+03 -1.35951E+04  4.03138E+03 -1.67372E+04  1.41780E+04 -9.23018E+03  1.56021E+04  2.36982E+03
  8.73234E+03  1.25049E+04 -1.46177E+03  1.44968E+04 -1.03702E+04  8.15963E+03 -1.16689E+04 -1.40240E+03
 -9.68752E+03 -9.90505E+03 -1.97074E+03 -1.01989E+04  4.90843E+03 -8.17388E+03  7.12848E+03 -3.19326E+03
  4.53347E+03  1.33445E+03 -6.83998E+02  1.98415E+03 -1.77669E+02 -2.10347E+03  2.29077E+03 -5.81224E+03
  1.08159E+04 -4.37388E+03  1.46071E+04  1.57562E+03  1.39607E+04  9.52248E+03  9.66527E+03  1.83165E+04
 -3.92923E+03  2.06333E+04 -1.77691E+04  1.50367E+04 -2.23789E+04  2.86795E+03 -1.77352E+04 -7.72331E+03
 -8.76922E+03 -1.51271E+04  2.56544E+02 -1.30877E+04  5.13303E+03 -7.75307E+03  4.82806E+03 -4.45855E+03
  3.74682E+03 -2.13313E+03  3.64651E+03 -4.15022E+03  4.79593E+03 -3.34004E+03  7.69728E+03 -7.40615E+02
  9.92641E+03  1.45581E+03  4.92380E+03  9.10750E+03 -1.88936E+03  9.01083E+03 -9.73713E+03  7.12109E+03
 -1.18359E+04 -1.93536E+03 -8.32424E+03 -9.32328E+03 -9.77699E+02 -1.40904E+04  7.17910E+03 -1.37206E+04
  1.46779E+04 -7.60226E+03  1.73881E+04  2.28181E+03  1.25785E+04  1.17101E+04  1.51715E+03  1.60601E+04
 -6.44339E+03  1.24250E+04 -1.00282E+04  4.91345E+03 -5.64965E+03 -1.79869E+03 -2.80834E+03 -2.27908E+03
 -9.42283E+02  1.37248E+02 -2.26281E+03  2.32721E+03 -5.29350E+03  2.08407E+03 -9.33972E+03 -1.67439E+03
 -6.64117E+03 -8.26976E+03  9.22534E+01 -1.22556E+04  7.91140E+03 -1.20180E+04  1.21187E+04 -4.37472E+03
  1.25795E+04  6.22478E+03  6.19769E+03  1.21939E+04 -2.47772E+03  1.23722E+04 -9.77869E+03  8.30572E+03
 -1.17550E+04  2.53572E+02 -9.20831E+03 -7.91781E+03 -1.04436E+03 -1.04133E+04  5.59946E+03 -7.60427E+03
  8.02637E+03 -3.34482E+03  5.87700E+03  2.49798E+03  9.46392E+02  4.10923E+03  1.77770E+03  1.28582E+03
  1.87539E+03  1.57587E+03  3.60089E+03  1.52604E+03  3.70691E+03  4.43312E+03  3.72042E+03  6.99781E+03
 -2.65610E+03  9.76121E+03 -8.63561E+03  9.66499E+03 -1.29495E+04  2.40458E+03 -1.37454E+04 -5.63605E+03
 -6.26122E+03 -1.32256E+04  1.45045E+03 -1.40129E+04  7.67199E+03 -8.74502E+03  1.07801E+04 -2.57610E+03
  7.98366E+03  4.98267E+03  2.06277E+03  7.62972E+03 -3.95759E+03  4.05902E+03 -5.16465E+03 -1.12016E+03
 -3.29788E+03 -5.62798E+03  3.43218E+03 -5.22540E+03  5.57776E+03 -3.09826E+03  5.65992E+03  7.29460E+02
  3.67242E+03  2.44107E+03  7.25996E+02  1.81730E+03 -1.17987E+03  2.66287E+03  2.06484E+03 -6.13340E+02
  2.87343E+03 -1.23938E+03  5.34081E+03  2.10613E+03  2.60825E+03  6.45605E+03 -1.23186E+03  9.70680E+03
 -6.41453E+03  5.38352E+03 -7.87408E+03  1.14259E+03 -7.00147E+03 -3.57824E+03 -3.68780E+03 -4.74691E+03
 -1.24984E+02 -4.78509E+03  3.64527E+03 -1.89250E+03  1.92071E+03  2.71394E+03 -7.21976E+02  4.54285E+03
 -5.63976E+03  2.53378E+03 -5.92327E+03 -3.03281E+03 -3.45457E+03 -6.16311E+03  1.08018E+03 -7.16005E+03
  3.50842E+03 -3.58380E+03  5.29987E+03 -1.26897E+02  4.04275E+03  1.12685E+03  1.35454E+03  3.81040E+03
 -2.12444E+03  7.74197E+02 -3.29499E+03 -2.03942E+03  1.46935E+03 -5.68685E+03  6.02324E+03 -3.79411E+03
  7.48358E+03  6.28864E+02  7.10913E+03  5.08048E+03  3.18271E+03  7.60052E+03 -2.29473E+03  7.03006E+03
 -7.16072E+03  3.50586E+03 -6.74446E+03 -8.61011E+02 -3.30332E+03 -4.93183E+03  3.62835E+02 -4.64534E+03
  5.26487E+03 -2.15524E+03  4.21114E+03  2.95401E+03  1.63956E+03  4.60609E+03 -3.38330E+02  3.61332E+03
 -1.81744E+03  2.24466E+03 -2.13134E+03  5.07809E+02 -9.62785E+02  1.37419E+03 -1.31072E+03  2.36928E+03
 -1.84894E+03  3.21971E+03 -5.99984E+03  2.09681E+03 -8.55256E+03  2.68204E+02 -9.49114E+03 -4.56445E+03
 -4.82041E+03 -1.12584E+04  2.12125E+03 -1.28075E+04  7.65358E+03 -9.86004E+03  1.18678E+04 -4.79405E+03
  1.13231E+04  2.38651E+03  6.62549E+03  8.14485E+03  5.00354E+02  7.58874E+03 -3.19942E+03  6.47437E+03
 -5.27772E+03  2.78076E+03 -2.57359E+03 -6.40097E+02 -7.98437E+02 -8.49142E+02 -4.63313E+02 -3.75807E+02
 -2.43594E+03  1.32715E+02 -1.75539E+03 -1.10641E+03 -4.84686E+02 -2.18824E+03 -1.57233E+02 -3.99294E+03
  5.02096E+03 -3.14611E+03  5.03674E+03 -4.51621E+02  6.34753E+03  4.64192E+03  1.39785E+03  8.75581E+03
 -4.67006E+03  9.51656E+03 -9.04328E+03  5.66097E+03 -1.08683E+04 -1.01244E+03 -7.47100E+03 -5.94902E+03
 -2.05493E+03 -8.34190E+03  2.02558E+03 -7.75028E+03  5.69545E+03 -4.14868E+03  5.66431E+03  2.32879E+02
  2.83116E+03  2.37249E+03 -4.18399E+02  1.91721E+03 -2.01563E+03 -1.36050E+02 -4.53456E+02 -2.18167E+03
  2.28728E+03 -8.59514E+02  3.23625E+03  1.16750E+03  1.69107E+03  3.50621E+03  6.48830E+02  4.81027E+03
 -3.21542E+03  3.88543E+03 -5.70059E+03  5.48675E+02 -5.54851E+03 -4.55837E+03 -3.77000E+02 -6.91263E+03
  3.22898E+03 -6.32371E+03  7.21156E+03 -1.19616E+03  6.84704E+03  1.09464E+03  3.88497E+03  5.37223E+03
  3.93240E+02  5.66834E+03 -1.87929E+03  3.71834E+03 -3.99108E+03  2.60562E+03 -2.86968E+03  9.11446E+00
 -2.06174E+03 -1.86678E+02 -1.97635E+03  6.47258E+02 -3.01768E+03  1.68628E+03 -4.72441E+03 -1.64800E+03
 -4.10277E+03 -2.71578E+03 -1.53637E+03 -5.04356E+03  2.65421E+03 -6.73722E+03  5.24973E+03 -2.20328E+03
  5.73561E+03  8.95770E+01  2.83117E+03  3.63904E+03 -6.62216E+02  5.11558E+03 -4.55332E+03  3.78563E+03
