 $NMID ID='MM_0lb_SNR400_10hz_g50_26.RAW', FMTDAT='(8E13.5)'
 TRAMP=1., VOLUME=1. $END
  3.09878E+05 -1.00941E+02  3.38538E+05  2.50213E+05  8.46271E+04  3.38522E+05 -1.32515E+05  2.51478E+05
 -1.90219E+05  8.37531E+04 -1.12238E+05 -3.24747E+04 -4.91269E+02 -5.08994E+04  5.34224E+04 -8.42307E+02
  3.53664E+04  5.27801E+04 -1.71630E+04  7.57789E+04 -6.12735E+04  6.48603E+04 -8.52292E+04  3.25598E+04
 -8.19645E+04 -1.19816E+04 -5.84074E+04 -5.28402E+04 -1.47267E+04 -7.09578E+04  2.72127E+04 -4.62091E+04
  4.11999E+04  3.59416E+03  1.80473E+04  4.84307E+04 -3.53178E+04  4.79819E+04 -6.76140E+04  2.57976E+02
 -5.50647E+04 -5.74824E+04 -7.89578E+03 -7.81133E+04  3.50585E+04 -5.71274E+04  4.93855E+04 -1.84832E+04
  4.43912E+04  1.17031E+04  3.14144E+04  2.64334E+04  1.55069E+04  3.06406E+04 -6.02115E+03  2.77995E+04
 -2.16164E+04  1.18972E+04 -1.87395E+04 -5.77122E+03  6.58248E+03 -7.75663E+03  2.29722E+04  1.32230E+04
  7.33147E+03  3.70324E+04 -3.39467E+04  3.65789E+04 -6.55550E+04  1.90998E+03 -5.89715E+04 -4.42019E+04
 -1.29058E+04 -6.56372E+04  4.12375E+04 -4.73133E+04  6.09458E+04 -2.33645E+03  3.60295E+04  3.35754E+04
 -5.21316E+03  3.88161E+04 -3.13868E+04  1.74139E+04 -3.29385E+04 -3.17346E+03 -1.89913E+04 -1.22795E+04
 -8.91884E+03 -1.48645E+04 -3.12401E+02 -1.87137E+04  7.84406E+03 -2.34224E+04  1.62873E+04 -1.25267E+04
  1.03928E+04  5.82768E+03 -9.04728E+03  1.31559E+04 -2.28316E+04 -6.32672E+03 -8.09616E+03 -3.63683E+04
  2.48920E+04 -4.60177E+04  5.12240E+04 -2.07744E+04  4.74875E+04  2.07582E+04  1.71533E+04  4.60930E+04
 -1.70419E+04  3.59745E+04 -2.69445E+04  1.39574E+03 -1.08702E+04 -2.87806E+04  2.10437E+04 -3.55132E+04
  4.45997E+04 -9.79543E+03  3.97319E+04  2.46448E+04  2.04014E+04  5.01107E+04 -8.30196E+03  5.42311E+04
 -3.45752E+04  3.77381E+04 -4.67691E+04  1.10926E+04 -4.67010E+04 -1.87763E+04 -2.54302E+04 -4.07876E+04
  7.66042E+03 -4.14840E+04  3.35723E+04 -1.65525E+04  3.21592E+04  1.10559E+04  4.47647E+03  2.06445E+04
 -1.37999E+04  9.34284E+03 -1.08363E+04 -8.22315E+03  6.01995E+03 -1.19727E+04  1.80410E+04  5.25352E+03
  1.43227E+04  2.17351E+04 -4.86903E+03  2.70976E+04 -2.32451E+04  1.38996E+04 -3.07304E+04 -3.28097E+03
 -2.51044E+04 -1.85513E+04 -1.20361E+04 -2.40244E+04  4.18433E+03 -2.42911E+04  1.85641E+04 -2.16357E+04
  3.13099E+04 -1.40631E+04  3.66593E+04  3.92212E+03  2.70356E+04  2.32206E+04  5.14579E+03  4.01645E+04
 -1.95127E+04  3.34494E+04 -3.04841E+04  1.15762E+04 -2.22221E+04 -1.01437E+04 -4.49037E+03 -1.33286E+04
  9.67000E+02 -8.65128E+02 -6.94355E+03  7.66230E+03 -2.00269E+04  5.14197E+03 -1.96676E+04 -9.88055E+03
 -1.15203E+04 -2.18831E+04  6.20965E+03 -2.61663E+04  1.76136E+04 -1.93045E+04  2.22208E+04 -2.31498E+03
  1.38748E+04  1.56534E+04 -1.33969E+03  2.19590E+04 -1.53549E+04  1.31248E+04 -2.28056E+04 -5.79394E+03
 -1.66387E+04 -2.08461E+04 -1.43221E+03 -2.65022E+04  1.15990E+04 -2.23519E+04  2.26547E+04 -1.17496E+04
  2.04409E+04 -1.76705E+02  1.57859E+04  5.07947E+03  8.69611E+03  9.89089E+02  1.11058E+04 -1.48890E+03
  2.16621E+04  2.13161E+03  2.37060E+04  1.74290E+04  1.59912E+04  3.65592E+04 -2.80171E+03  4.24408E+04
 -2.36905E+04  3.47410E+04 -4.00227E+04  1.75603E+04 -4.27896E+04 -3.76050E+03 -3.40501E+04 -2.41573E+04
 -1.34876E+04 -3.48917E+04  1.22227E+04 -3.11938E+04  2.65720E+04 -1.44580E+04  2.23499E+04  6.96868E+03
  7.50638E+03  1.78736E+04 -1.04165E+04  1.49707E+04 -1.89041E+04  2.83694E+03 -1.49517E+04 -1.23572E+04
 -1.32358E+02 -1.84890E+04  9.68942E+03 -1.40753E+04  1.26267E+04 -1.89042E+03  3.11785E+03  7.72282E+03
 -8.72451E+03  3.33793E+03 -8.93112E+03 -6.05738E+03 -1.88635E+03 -1.74357E+04  1.20644E+04 -1.85149E+04
  2.25683E+04 -1.05193E+04  2.44551E+04  3.18432E+03  2.09228E+04  1.70912E+04  9.45955E+03  2.78026E+04
 -4.77993E+03  2.95771E+04 -1.89530E+04  1.90874E+04 -2.09593E+04  3.98667E+03 -1.39425E+04 -5.90459E+03
 -6.28701E+03 -6.62727E+03 -7.21901E+02  8.23873E+02 -2.51714E+03  2.60518E+03 -7.60261E+03  5.27873E+03
 -1.36437E+04 -3.80979E+02 -1.28662E+04 -1.11216E+04 -5.24890E+03 -1.87497E+04  5.70296E+03 -1.42533E+04
  1.25962E+04 -6.53715E+03  8.60938E+03  3.69630E+03  3.04790E+02  5.10018E+03 -7.33922E+03 -5.58207E+02
 -7.00780E+03 -9.12476E+03 -1.21285E+03 -1.42300E+04  7.94244E+03 -1.55441E+04  1.79757E+04 -7.82792E+03
  2.13581E+04  2.17109E+03  1.55328E+04  1.41629E+04  3.07163E+03  1.78434E+04 -9.29061E+03  1.42337E+04
 -1.13417E+04  4.55599E+03 -6.33668E+03 -3.80317E+03  1.40580E+03 -4.05692E+03  8.13694E+03 -9.73436E+02
  6.54403E+03  6.60659E+03  1.97804E+03  1.22621E+04 -7.66695E+03  1.11155E+04 -1.52990E+04  3.53737E+03
 -1.09218E+04 -8.31928E+03 -1.61500E+02 -1.29581E+04  7.93972E+03 -6.26577E+03  7.98749E+03  3.57451E+03
  2.77169E+03  8.75048E+03 -7.82802E+03  1.06766E+04 -1.29120E+04  4.73618E+03 -1.24561E+04 -5.12090E+03
 -7.33031E+03 -1.41184E+04  3.24199E+03 -1.71361E+04  1.41879E+04 -1.02714E+04  1.54929E+04  3.29933E+03
  9.19759E+03  1.22444E+04 -1.44995E+03  1.46593E+04 -1.06653E+04  7.82392E+03 -1.11365E+04 -1.71265E+03
 -1.01415E+04 -1.01930E+04 -1.33413E+03 -1.07012E+04  5.97632E+03 -8.54469E+03  7.28375E+03 -3.96909E+03
  4.82875E+03  2.06401E+03 -2.79313E+02  2.10619E+03 -1.40631E+02 -2.45407E+03  1.58305E+03 -6.30707E+03
  1.01639E+04 -3.76554E+03  1.50079E+04  1.91165E+03  1.44742E+04  1.02617E+04  9.54504E+03  1.88033E+04
 -5.23004E+03  2.19650E+04 -1.76488E+04  1.62895E+04 -2.43821E+04  2.88159E+03 -1.86743E+04 -8.00918E+03
 -9.46040E+03 -1.52483E+04  6.86627E+01 -1.35956E+04  5.19526E+03 -7.76441E+03  4.45267E+03 -4.84468E+03
  3.32532E+03 -2.74848E+03  4.15262E+03 -3.63668E+03  5.38873E+03 -3.28683E+03  7.44917E+03 -1.52942E+03
  9.98098E+03  2.52141E+03  5.91581E+03  8.79000E+03 -2.36767E+03  1.05226E+04 -1.05637E+04  8.07520E+03
 -1.35972E+04 -1.66416E+03 -8.35344E+03 -9.20562E+03 -1.11117E+03 -1.49508E+04  7.92072E+03 -1.38063E+04
  1.44737E+04 -8.30659E+03  1.73588E+04  2.91769E+03  1.10280E+04  1.30192E+04  2.11516E+03  1.63664E+04
 -6.25679E+03  1.34125E+04 -8.98613E+03  4.18784E+03 -6.45649E+03 -2.61405E+03 -2.56715E+03 -2.23194E+03
 -1.79665E+03  3.89027E+01 -1.71742E+03  2.46712E+03 -5.71578E+03  2.72278E+03 -8.86670E+03 -1.10021E+03
 -7.41384E+03 -8.91487E+03 -2.37640E+02 -1.26443E+04  7.80194E+03 -1.24339E+04  1.27367E+04 -2.99438E+03
  1.31893E+04  6.78830E+03  5.72601E+03  1.11381E+04 -3.26087E+03  1.38717E+04 -9.85979E+03  8.33623E+03
 -1.22383E+04  4.34464E+02 -9.30586E+03 -7.70659E+03 -1.09343E+03 -1.16888E+04  5.70586E+03 -8.50069E+03
  8.21077E+03 -2.31718E+03  5.62156E+03  2.42342E+03  1.86803E+03  3.72358E+03  1.46586E+03  1.60328E+03
  1.92529E+03  9.21013E+02  3.34621E+03  1.73589E+03  4.17914E+03  4.85352E+03  2.99007E+03  6.71295E+03
 -2.05548E+03  1.07875E+04 -9.09185E+03  1.00856E+04 -1.37826E+04  3.06012E+03 -1.41275E+04 -5.52126E+03
 -7.12462E+03 -1.27707E+04  1.92582E+03 -1.48418E+04  7.85126E+03 -8.97416E+03  1.04415E+04 -3.11759E+03
  7.79976E+03  5.02519E+03  1.98792E+03  7.86412E+03 -3.66272E+03  5.17231E+03 -5.70350E+03 -1.05733E+03
 -3.43167E+03 -5.77675E+03  3.18610E+03 -6.12988E+03  5.88795E+03 -3.23651E+03  6.11591E+03  1.00550E+03
  3.71803E+03  2.64057E+03  1.29780E+03  2.14809E+03 -8.34720E+02  1.63523E+03  9.22767E+02 -8.73321E+02
  1.44647E+03 -1.16356E+02  5.83659E+03  1.22496E+03  3.87225E+03  7.08799E+03 -1.18773E+03  9.47495E+03
 -6.68378E+03  6.52876E+03 -9.19041E+03  1.80230E+03 -7.98918E+03 -2.29477E+03 -3.11828E+03 -4.91782E+03
  1.25400E+03 -5.07814E+03  3.16611E+03 -2.40768E+03  2.62247E+03  2.20330E+03 -1.21705E+03  5.09956E+03
 -4.85557E+03  2.44604E+03 -7.26059E+03 -3.66991E+03 -3.13042E+03 -7.27209E+03  4.72059E+02 -7.49848E+03
  4.29762E+03 -4.83594E+03  5.24564E+03 -6.56627E+01  3.76927E+03  1.23910E+03  5.02233E+02  5.02327E+03
 -2.67781E+03  1.86529E+03 -2.99217E+03 -2.67865E+03  9.04455E+02 -5.40296E+03  6.69181E+03 -4.76055E+03
  8.61816E+03  3.26493E+02  7.64583E+03  5.33540E+03  2.20260E+03  9.60493E+03 -3.39784E+03  8.21816E+03
 -6.56736E+03  3.64001E+03 -7.13046E+03 -1.26968E+03 -4.60116E+03 -5.57592E+03  1.28183E+03 -5.60479E+03
  5.64346E+03 -1.97595E+03  4.41583E+03  2.19648E+03  1.35905E+03  3.61313E+03 -7.34617E+02  4.46312E+03
 -1.38107E+03  3.26783E+03 -2.10200E+03  5.97327E+02 -1.13201E+03  1.27580E+03 -9.00261E+02  2.41820E+03
 -3.09875E+03  3.31643E+03 -6.67672E+03  2.24270E+03 -8.59732E+03 -1.93620E+02 -9.64667E+03 -5.49300E+03
 -4.87306E+03 -1.15939E+04  2.71180E+03 -1.25348E+04  7.87580E+03 -1.01247E+04  1.30683E+04 -3.74833E+03
  1.19731E+04  2.77905E+03  6.70918E+03  7.40866E+03  5.31540E+02  9.29738E+03 -3.75289E+03  6.94492E+03
 -4.78141E+03  3.18726E+03 -3.70890E+03 -1.03694E+03 -7.76762E+02 -2.00870E+02 -1.63936E+02  1.19565E+02
 -1.45160E+03  3.84996E+02 -1.55886E+03 -8.37612E+02 -1.07779E+02 -1.23073E+03  1.55146E+02 -3.19593E+03
  4.06829E+03 -2.81262E+03  5.39242E+03  8.75670E+02  6.81619E+03  4.16520E+03  1.37164E+03  8.46482E+03
 -3.98873E+03  1.00654E+04 -9.13796E+03  6.21595E+03 -1.15993E+04 -1.65330E+02 -8.12333E+03 -6.79545E+03
 -2.71304E+03 -8.56898E+03  2.15858E+03 -8.50579E+03  5.62508E+03 -4.32828E+03  6.23930E+03  7.01656E+02
  2.92822E+03  2.64609E+03 -5.92427E+02  2.17111E+03 -2.26036E+03  1.15520E+02  3.33177E+02 -2.17151E+03
  2.67226E+03 -1.84468E+03  3.21986E+03  1.15984E+03  2.09642E+03  3.76498E+03 -7.21391E+01  5.33219E+03
 -3.84234E+03  3.26426E+03 -5.99327E+03 -2.03379E+02 -4.16697E+03 -4.39174E+03 -4.02925E+02 -7.10830E+03
  4.02554E+03 -5.95891E+03  6.71188E+03 -2.40313E+03  7.01438E+03  2.01144E+03  3.99853E+03  5.08721E+03
  1.16695E+03  4.80924E+03 -1.87919E+03  4.35208E+03 -3.91125E+03  2.86013E+03 -2.63463E+03  1.17884E+03
 -1.60388E+03 -5.14005E+02 -2.01092E+03  9.61555E+02 -3.24967E+03  9.28669E+02 -4.38059E+03 -4.17671E+02
 -4.14370E+03 -3.27512E+03 -1.23714E+03 -5.53929E+03  2.86273E+03 -6.04025E+03  5.19529E+03 -1.49275E+03
  5.79086E+03  6.73991E+02  2.90644E+03  4.40797E+03 -6.54199E+02  5.84771E+03 -4.51915E+03  3.82798E+03
