 $NMID ID='MM_0lb_SNR400_7hz_g60_21.RAW', FMTDAT='(8E13.5)'
 TRAMP=1., VOLUME=1. $END
  3.09165E+05 -2.65649E+02  3.38014E+05  2.51335E+05  8.50941E+04  3.38993E+05 -1.33186E+05  2.52715E+05
 -1.92188E+05  8.44046E+04 -1.13344E+05 -3.26510E+04  1.80228E+02 -5.20469E+04  5.33083E+04 -1.03292E+03
  3.56278E+04  5.29380E+04 -1.59277E+04  7.65282E+04 -6.18203E+04  6.43151E+04 -8.64096E+04  3.32395E+04
 -8.37027E+04 -1.15858E+04 -5.85143E+04 -5.28667E+04 -1.60194E+04 -7.25007E+04  2.85066E+04 -4.85156E+04
  4.14489E+04  4.00253E+03  1.61221E+04  4.89166E+04 -3.51779E+04  4.90385E+04 -6.88304E+04  3.19833E+02
 -5.56090E+04 -5.75295E+04 -7.78146E+03 -8.00655E+04  3.56809E+04 -5.78776E+04  5.04683E+04 -1.86758E+04
  4.59381E+04  1.16802E+04  3.41542E+04  2.73951E+04  1.62303E+04  3.19415E+04 -7.16833E+03  2.76056E+04
 -2.25947E+04  1.09872E+04 -1.83856E+04 -6.33472E+03  8.03875E+03 -7.20468E+03  2.41334E+04  1.47243E+04
  7.31350E+03  3.82256E+04 -3.49723E+04  3.88794E+04 -6.69709E+04  1.97544E+03 -6.07192E+04 -4.66304E+04
 -1.26731E+04 -6.87160E+04  4.33852E+04 -4.88673E+04  6.32773E+04 -2.24346E+03  3.80468E+04  3.57491E+04
 -5.63745E+03  4.20041E+04 -3.23007E+04  2.03295E+04 -3.52062E+04 -2.88037E+03 -2.06793E+04 -1.29787E+04
 -1.00944E+04 -1.60849E+04 -2.32476E+02 -2.00105E+04  9.31847E+03 -2.30115E+04  1.68240E+04 -1.27817E+04
  9.57456E+03  6.67068E+03 -1.18998E+04  1.27470E+04 -2.60251E+04 -7.74135E+03 -9.24552E+03 -3.97253E+04
  2.76554E+04 -4.86705E+04  5.50268E+04 -2.15366E+04  5.11009E+04  2.10222E+04  1.79143E+04  4.90188E+04
 -1.67014E+04  3.78214E+04 -3.02665E+04  2.52324E+03 -1.29159E+04 -3.03655E+04  2.18239E+04 -3.89430E+04
  4.68352E+04 -1.14717E+04  4.39423E+04  2.49531E+04  2.29919E+04  5.44136E+04 -9.26763E+03  5.96799E+04
 -3.75347E+04  4.08601E+04 -5.00521E+04  1.14264E+04 -5.06180E+04 -1.93462E+04 -2.77733E+04 -4.46442E+04
  7.95055E+03 -4.51830E+04  3.59714E+04 -1.92232E+04  3.39934E+04  1.11220E+04  5.50974E+03  2.11794E+04
 -1.41188E+04  1.06675E+04 -1.15239E+04 -7.46446E+03  5.73236E+03 -1.14107E+04  1.88302E+04  5.45570E+03
  1.60725E+04  2.24488E+04 -4.92110E+03  2.76207E+04 -2.42353E+04  1.52497E+04 -3.32747E+04 -1.51264E+03
 -2.83171E+04 -1.98604E+04 -1.33162E+04 -2.76910E+04  5.28019E+03 -2.94312E+04  2.21777E+04 -2.57600E+04
  3.50562E+04 -1.46982E+04  4.07896E+04  5.73676E+03  2.79905E+04  2.72274E+04  4.57900E+03  4.51087E+04
 -2.03821E+04  3.53491E+04 -3.30318E+04  1.28367E+04 -2.30032E+04 -9.42136E+03 -4.89076E+03 -1.25647E+04
 -3.56394E+02  8.62519E+02 -9.88357E+03  9.36781E+03 -2.36185E+04  5.64280E+03 -2.30085E+04 -1.14123E+04
 -1.38612E+04 -2.62511E+04  6.51903E+03 -3.08604E+04  2.08421E+04 -2.21722E+04  2.59040E+04 -1.61038E+03
  1.65058E+04  1.90690E+04 -2.02598E+03  2.64498E+04 -1.90336E+04  1.46758E+04 -2.65764E+04 -4.78865E+03
 -1.88056E+04 -2.32746E+04 -3.14993E+03 -3.23009E+04  1.44523E+04 -2.63000E+04  2.47036E+04 -1.43518E+04
  2.52895E+04 -9.17100E+02  1.80853E+04  5.94231E+03  1.02752E+04  9.39910E+02  1.32475E+04 -2.06549E+03
  2.52925E+04  2.46617E+03  3.04268E+04  2.14322E+04  2.04342E+04  4.18734E+04 -2.44011E+03  4.97689E+04
 -2.81494E+04  4.28961E+04 -4.86952E+04  2.17454E+04 -5.10971E+04 -3.75117E+03 -4.24317E+04 -3.08476E+04
 -1.62192E+04 -4.35865E+04  1.54376E+04 -3.80426E+04  3.16472E+04 -1.64307E+04  2.69951E+04  8.92496E+03
  8.41559E+03  2.19536E+04 -1.32973E+04  1.79852E+04 -2.31124E+04  3.02117E+03 -1.72388E+04 -1.56288E+04
 -8.61637E+02 -2.15696E+04  1.17601E+04 -1.69943E+04  1.55053E+04 -1.96111E+03  4.96541E+03  1.09281E+04
 -9.52361E+03  5.41119E+03 -1.22062E+04 -8.26655E+03 -2.60075E+03 -1.95859E+04  1.35971E+04 -2.37574E+04
  2.75390E+04 -1.32967E+04  3.16226E+04  3.85598E+03  2.81798E+04  2.21425E+04  1.20849E+04  3.50567E+04
 -6.84189E+03  3.64489E+04 -2.42644E+04  2.16632E+04 -2.62982E+04  4.40274E+03 -1.71909E+04 -7.21879E+03
 -6.25231E+03 -8.76228E+03 -5.33103E+02  2.45724E+02 -3.72586E+03  4.54765E+03 -9.27329E+03  6.66124E+03
 -1.66426E+04 -8.85623E+02 -1.79088E+04 -1.42264E+04 -6.59286E+03 -2.36140E+04  7.66182E+03 -1.90132E+04
  1.55407E+04 -7.86021E+03  1.11838E+04  6.51271E+03 -7.32847E+02  6.75507E+03 -9.44606E+03  1.68350E+02
 -9.87966E+03 -1.22403E+04 -1.36020E+03 -1.85879E+04  9.40986E+03 -1.91093E+04  2.41793E+04 -1.04165E+04
  2.91026E+04  3.22533E+03  2.02234E+04  1.78846E+04  3.96527E+03  2.34962E+04 -1.10424E+04  1.96588E+04
 -1.46120E+04  5.45232E+03 -8.50739E+03 -4.58861E+03  2.42856E+03 -5.44910E+03  9.23102E+03 -4.11904E+02
  9.64266E+03  8.72618E+03  1.05826E+03  1.57344E+04 -1.15942E+04  1.52232E+04 -1.98303E+04  2.82526E+03
 -1.31863E+04 -1.00367E+04  3.01668E+01 -1.60217E+04  1.11255E+04 -8.86201E+03  1.16980E+04  4.56159E+03
  3.58078E+03  1.27603E+04 -1.03661E+04  1.48377E+04 -1.71876E+04  6.49730E+03 -1.77027E+04 -7.50653E+03
 -1.05216E+04 -1.94212E+04  5.63101E+03 -2.31456E+04  1.97966E+04 -1.33406E+04  2.08481E+04  3.60992E+03
  1.08836E+04  1.64103E+04 -2.30522E+03  1.95091E+04 -1.52769E+04  9.89166E+03 -1.73597E+04 -1.64563E+03
 -1.28441E+04 -1.23874E+04 -1.80245E+03 -1.41757E+04  8.61358E+03 -1.18092E+04  9.65346E+03 -3.25738E+03
  5.72092E+03  3.65658E+03 -1.96682E+03  2.41283E+03 -1.19543E+03 -4.82045E+03  4.19001E+03 -1.04170E+04
  1.44412E+04 -6.42090E+03  2.22779E+04  2.16441E+03  2.03439E+04  1.49844E+04  1.10843E+04  2.65017E+04
 -7.18716E+03  3.09397E+04 -2.46771E+04  2.15806E+04 -3.22972E+04  3.86583E+03 -2.65620E+04 -1.20859E+04
 -1.34211E+04 -2.18979E+04 -1.31510E+02 -1.98781E+04  6.27543E+03 -1.23194E+04  6.94143E+03 -6.40685E+03
  4.74386E+03 -4.22160E+03  3.87781E+03 -4.65529E+03  7.71502E+03 -4.49107E+03  1.05634E+04 -2.25050E+03
  1.28977E+04  3.69072E+03  8.20885E+03  1.24657E+04 -2.50076E+03  1.54343E+04 -1.51155E+04  1.19132E+04
 -1.91083E+04 -1.10850E+03 -1.18319E+04 -1.44329E+04 -2.37910E+03 -2.25798E+04  1.20235E+04 -2.08767E+04
  2.14995E+04 -1.13185E+04  2.49596E+04  4.44142E+03  1.75961E+04  1.85217E+04  3.25585E+03  2.42477E+04
 -1.00025E+04  1.91213E+04 -1.36050E+04  5.86621E+03 -9.36350E+03 -1.49558E+03 -4.85098E+03 -3.04230E+03
 -1.67504E+03 -2.71833E+02 -3.31836E+03  3.47732E+03 -7.67622E+03  3.67732E+03 -1.28061E+04 -9.46481E+02
 -9.31997E+03 -1.27717E+04 -9.55560E+02 -1.93777E+04  1.27588E+04 -1.73813E+04  1.97495E+04 -6.16543E+03
  1.97646E+04  8.69515E+03  1.01599E+04  1.74185E+04 -3.47161E+03  2.08608E+04 -1.46046E+04  1.18459E+04
 -1.96630E+04  5.57313E+02 -1.48404E+04 -1.36169E+04 -2.73508E+03 -1.68251E+04  8.30014E+03 -1.28118E+04
  1.17786E+04 -3.36571E+03  9.46600E+03  3.83675E+03  3.36781E+03  5.99898E+03  1.16260E+03  2.44699E+03
  3.93044E+03  1.41789E+03  4.92771E+03  1.81444E+03  5.79058E+03  6.39289E+03  5.22877E+03  1.12171E+04
 -3.95694E+03  1.66309E+04 -1.44309E+04  1.69226E+04 -2.18123E+04  4.41179E+03 -2.09096E+04 -8.97935E+03
 -1.06640E+04 -2.03321E+04  2.98976E+03 -2.27456E+04  1.31708E+04 -1.46236E+04  1.73043E+04 -4.17863E+03
  1.33209E+04  8.62371E+03  3.58014E+03  1.19182E+04 -6.22709E+03  7.69331E+03 -9.64073E+03 -1.15153E+03
 -4.20972E+03 -8.69585E+03  4.85877E+03 -8.65921E+03  9.06140E+03 -4.64684E+03  8.77478E+03  1.64296E+03
  5.84506E+03  4.83287E+03  1.91804E+03  3.23181E+03 -1.06584E+03  2.04642E+03  8.70783E+02 -1.14587E+03
  3.86463E+03 -1.33954E+03  8.15189E+03  3.29368E+03  5.39566E+03  1.14796E+04 -7.28703E+02  1.44396E+04
 -1.07900E+04  1.01874E+04 -1.42170E+04  2.83865E+03 -1.17412E+04 -5.63164E+03 -4.73781E+03 -9.24251E+03
  7.02290E+02 -8.38789E+03  6.10764E+03 -4.12769E+03  5.75921E+03  3.51781E+03 -1.82661E+03  6.35893E+03
 -8.54646E+03  4.56977E+03 -1.05883E+04 -4.27311E+03 -5.80750E+03 -1.21951E+04  3.13879E+03 -1.13543E+04
  8.11126E+03 -6.50913E+03  9.10191E+03 -4.37795E+02  7.13555E+03  3.96175E+03  9.79935E+02  6.42408E+03
 -4.27451E+03  2.72069E+03 -4.74322E+03 -4.38715E+03  2.18257E+03 -9.31459E+03  1.06609E+04 -7.57995E+03
  1.45487E+04  9.82955E+02  1.32861E+04  1.02848E+04  4.24771E+03  1.46200E+04 -5.05199E+03  1.37946E+04
 -1.15956E+04  6.50911E+03 -1.26019E+04 -2.05707E+03 -6.68620E+03 -8.65963E+03  3.19164E+03 -9.34004E+03
  8.87518E+03 -4.03134E+03  8.56952E+03  4.33177E+03  3.13410E+03  8.02899E+03 -1.76262E+03  7.75824E+03
 -4.05280E+03  5.03151E+03 -2.92620E+03  1.76179E+03 -7.88564E+02  1.32839E+03 -2.82359E+03  2.76413E+03
 -3.73346E+03  5.62728E+03 -9.28968E+03  4.62776E+03 -1.49471E+04  2.74285E+01 -1.59864E+04 -9.59539E+03
 -8.62735E+03 -1.97452E+04  3.44431E+03 -2.22294E+04  1.42314E+04 -1.79527E+04  2.22019E+04 -6.62114E+03
  1.98780E+04  4.47777E+03  1.21669E+04  1.40037E+04  1.76007E+03  1.63930E+04 -6.74363E+03  1.14664E+04
 -8.68174E+03  2.89319E+03 -5.45048E+03 -2.28459E+03 -1.14478E+03 -1.22698E+03 -1.47751E+03 -8.22141E+02
 -1.77072E+03  1.01813E+03 -3.24792E+03 -1.83176E+03 -1.43112E+03 -3.68621E+03  2.26815E+02 -6.55734E+03
  8.48821E+03 -5.87380E+03  9.22995E+03  2.12721E+02  1.19008E+04  7.67777E+03  3.84417E+03  1.62659E+04
 -6.45096E+03  1.75608E+04 -1.70177E+04  1.05725E+04 -1.97077E+04 -1.12013E+03 -1.49344E+04 -1.19376E+04
 -5.80098E+03 -1.61923E+04  4.94585E+03 -1.55890E+04  1.09668E+04 -8.76927E+03  1.04109E+04 -3.68541E+01
  6.87598E+03  5.61862E+03 -5.56154E+02  5.41780E+03 -3.55287E+03 -1.68871E+02  6.86975E+02 -4.38100E+03
  5.08042E+03 -3.62381E+03  7.20904E+03  1.30614E+03  4.43360E+03  7.31399E+03  5.26124E+02  8.07118E+03
 -6.78598E+03  7.31489E+03 -1.18896E+04  1.19895E+03 -9.49277E+03 -8.42667E+03 -2.17447E+03 -1.40570E+04
  7.35929E+03 -1.22056E+04  1.29234E+04 -3.81605E+03  1.34009E+04  3.78214E+03  6.68125E+03  9.86152E+03
  1.63636E+03  1.12806E+04 -4.16817E+03  9.05772E+03 -7.07373E+03  4.73892E+03 -5.92997E+03 -3.09769E+02
 -2.69297E+03 -7.47319E+02 -3.22589E+03  1.12863E+03 -6.85103E+03  2.48294E+03 -8.80494E+03 -2.90864E+03
 -7.52730E+03 -6.19951E+03 -1.98652E+03 -1.08478E+04  4.62940E+03 -1.21149E+04  1.02592E+04 -5.34986E+03
  1.25622E+04  1.52964E+03  7.00557E+03  7.58015E+03 -6.65257E+02  1.10710E+04 -8.72588E+03  6.98255E+03
