 $NMID ID='MM_0lb_SNR400_20hz_g45_41.RAW', FMTDAT='(8E13.5)'
 TRAMP=1., VOLUME=1. $END
  3.09857E+05  5.05540E+02  3.36838E+05  2.49994E+05  8.36570E+04  3.37432E+05 -1.32701E+05  2.50013E+05
 -1.89747E+05  8.22446E+04 -1.10911E+05 -3.29215E+04  1.78553E+03 -5.03261E+04  5.41812E+04  4.50687E+02
  3.50573E+04  5.27877E+04 -1.70988E+04  7.45687E+04 -6.04104E+04  6.25662E+04 -8.28174E+04  3.14353E+04
 -7.86915E+04 -1.08958E+04 -5.60208E+04 -4.96017E+04 -1.52270E+04 -6.72313E+04  2.64298E+04 -4.43431E+04
  3.89811E+04  4.25756E+03  1.49461E+04  4.72124E+04 -3.36438E+04  4.58420E+04 -6.47758E+04 -6.89947E+02
 -5.14187E+04 -5.52610E+04 -6.05461E+03 -7.43588E+04  3.30860E+04 -5.24783E+04  4.51131E+04 -1.56688E+04
  4.11055E+04  1.10662E+04  3.05730E+04  2.37420E+04  1.58887E+04  2.81630E+04 -5.28666E+03  2.63513E+04
 -2.15936E+04  1.28659E+04 -1.91806E+04 -3.94570E+03  3.94830E+03 -7.58423E+03  2.09217E+04  1.03323E+04
  8.00555E+03  3.23419E+04 -2.94515E+04  3.32365E+04 -6.02247E+04  1.94499E+03 -5.41095E+04 -4.07034E+04
 -1.23973E+04 -5.97082E+04  3.74294E+04 -4.26535E+04  5.43403E+04 -1.56106E+03  3.08043E+04  3.01467E+04
 -6.30459E+03  3.20296E+04 -2.79143E+04  1.23772E+04 -2.66944E+04 -5.11256E+03 -1.34129E+04 -9.51858E+03
 -6.90102E+03 -1.09428E+04 -9.99182E+02 -1.56529E+04  6.41442E+03 -2.22126E+04  1.49747E+04 -1.39971E+04
  1.27337E+04  3.80210E+03 -5.06611E+03  1.25364E+04 -1.83839E+04 -1.62489E+03 -8.30426E+03 -2.94133E+04
  2.00206E+04 -3.96447E+04  4.35663E+04 -1.80509E+04  4.09811E+04  1.76318E+04  1.39226E+04  4.05784E+04
 -1.49895E+04  3.06889E+04 -2.27254E+04  9.43118E+02 -7.61022E+03 -2.57327E+04  2.02994E+04 -3.03601E+04
  3.70176E+04 -6.07719E+03  3.01973E+04  2.23111E+04  1.49216E+04  4.12630E+04 -7.47913E+03  4.35359E+04
 -2.72648E+04  2.84424E+04 -3.55529E+04  7.71810E+03 -3.67217E+04 -1.43102E+04 -2.04493E+04 -3.28445E+04
  6.71385E+03 -3.27307E+04  2.87731E+04 -1.18725E+04  2.55636E+04  1.08489E+04  2.41215E+03  1.72424E+04
 -1.33488E+04  7.23732E+03 -9.47313E+03 -7.57730E+03  5.61099E+03 -9.56379E+03  1.65918E+04  6.76696E+03
  1.21410E+04  2.14222E+04 -6.44499E+03  2.25038E+04 -2.12847E+04  8.45598E+03 -2.38222E+04 -6.74047E+03
 -1.54258E+04 -1.61975E+04 -4.83080E+03 -1.57293E+04  3.17170E+03 -1.29895E+04  1.13121E+04 -1.31839E+04
  1.99683E+04 -1.13460E+04  2.65283E+04  9.17833E+02  2.00834E+04  1.55749E+04  4.07211E+03  3.12784E+04
 -1.56138E+04  2.66501E+04 -2.51035E+04  9.45314E+03 -1.93943E+04 -1.02566E+04 -3.34466E+03 -1.41092E+04
  2.87293E+03 -4.61299E+03 -1.72927E+03  5.01114E+03 -1.25000E+04  5.27395E+03 -1.17607E+04 -4.36587E+03
 -8.33713E+03 -1.40308E+04  4.01085E+03 -1.79214E+04  1.16181E+04 -1.28189E+04  1.36486E+04 -1.68246E+03
  8.50603E+03  1.00429E+04 -4.35731E+02  1.52259E+04 -9.27063E+03  8.17710E+03 -1.39972E+04 -3.49233E+03
 -1.05147E+04 -1.33324E+04 -7.38646E+02 -1.79031E+04  7.85892E+03 -1.43501E+04  1.53413E+04 -6.42159E+03
  1.32020E+04  9.67377E+02  1.03580E+04  3.81040E+03  4.70145E+03  2.05264E+02  7.10884E+03 -1.48253E+03
  1.29494E+04  2.34401E+03  1.30225E+04  1.17787E+04  7.81218E+03  2.30337E+04 -3.14491E+03  2.41857E+04
 -1.48157E+04  1.84331E+04 -2.20711E+04  8.47291E+03 -2.23021E+04 -1.39258E+03 -1.91090E+04 -1.29004E+04
 -9.33462E+03 -1.85075E+04  5.39797E+03 -1.76067E+04  1.52588E+04 -1.02875E+04  1.46933E+04  3.12008E+03
  6.50849E+03  1.01890E+04 -6.61005E+03  9.77698E+03 -1.27859E+04  2.63090E+03 -9.79690E+03 -7.15976E+03
  9.68328E+01 -1.15371E+04  6.03619E+03 -8.94855E+03  7.13504E+03 -1.89450E+03  1.58429E+03  4.45308E+03
 -5.35547E+03  7.75165E+02 -2.83492E+03 -4.76831E+03  9.73527E+02 -9.19476E+03  7.44702E+03 -9.26154E+03
  1.05791E+04 -3.43970E+03  1.00670E+04  3.07758E+03  9.00073E+03  8.52865E+03  4.64444E+03  1.21646E+04
 -1.26631E+03  1.42743E+04 -8.40944E+03  8.91310E+03 -9.61102E+03  3.25607E+03 -7.66267E+03 -1.68479E+03
 -4.13907E+03 -3.12443E+03 -3.42272E+02  1.62290E+03 -1.85865E+03  1.83612E+03 -3.22594E+03  2.80275E+03
 -7.32826E+03  8.99559E+01 -7.85212E+03 -6.69656E+03 -3.45188E+03 -9.94644E+03  3.20149E+03 -7.52115E+03
  6.59799E+03 -3.53584E+03  4.63113E+03  1.95740E+03  4.36714E+02  2.70149E+03 -2.92247E+03 -6.14558E+02
 -3.27351E+03 -5.28674E+03 -9.54399E+02 -6.37301E+03  3.30629E+03 -6.87896E+03  8.84463E+03 -3.53730E+03
  1.02207E+04  5.46524E+02  7.74836E+03  4.92278E+03  1.58688E+03  7.44754E+03 -4.69313E+03  7.59603E+03
 -6.34106E+03  2.45019E+03 -3.55438E+03 -1.52833E+03  1.71424E+03 -1.67969E+03  4.21192E+03 -1.17497E+03
  3.81685E+03  2.97012E+03  1.05785E+03  5.56561E+03 -4.38770E+03  5.44800E+03 -6.92865E+03  1.50177E+03
 -4.45375E+03 -3.52106E+03  7.54430E+01 -5.87498E+03  3.25760E+03 -2.74868E+03  2.56106E+03  1.32753E+03
 -4.94396E+01  2.73462E+03 -4.01784E+03  4.34585E+03 -3.97100E+03  2.12931E+03 -3.62888E+03 -1.05346E+03
 -2.13800E+03 -4.82190E+03  5.18466E+02 -5.66568E+03  5.15093E+03 -4.06357E+03  5.42053E+03  4.59732E+02
  3.87034E+03  4.87692E+03  3.25447E+02  6.68542E+03 -4.48465E+03  3.26279E+03 -4.23196E+03 -1.23000E+02
 -5.13006E+03 -4.46145E+03 -1.38058E+03 -4.53194E+03  2.64454E+03 -4.24407E+03  2.57237E+03 -2.56743E+03
  2.53246E+03  3.71544E+02  2.89117E+02  9.36957E+02  8.52801E+02  6.17071E+02 -3.56084E+02 -1.00234E+03
  3.34028E+03 -4.28657E+02  4.54001E+03  1.12442E+03  4.34139E+03  2.05295E+03  4.76486E+03  5.89753E+03
 -9.19207E+02  7.47228E+03 -6.51703E+03  5.50980E+03 -7.97250E+03  7.89633E+02 -6.21092E+03 -1.73605E+03
 -3.71482E+03 -5.11856E+03 -8.86726E+02 -3.74327E+03  1.30993E+03 -1.46132E+03  1.36836E+03 -1.25240E+03
  1.36299E+03 -1.19598E+03  2.00044E+03 -2.53831E+03  3.28223E+03 -6.81707E+02  3.70086E+03  5.10884E+02
  4.12091E+03  5.27959E+02  7.47152E+02  2.80568E+03 -1.83113E+03  2.05305E+03 -3.35109E+03  2.14801E+03
 -3.77095E+03 -1.18483E+03 -1.37484E+03 -2.74028E+03  6.54463E+02 -3.64758E+03  2.88775E+03 -4.58006E+03
  4.23631E+03 -2.48250E+03  6.24780E+03  3.57513E+02  4.59534E+03  4.16400E+03  1.00366E+03  5.05192E+03
 -2.35902E+03  5.01482E+03 -2.97286E+03  1.60883E+03 -1.02503E+03 -8.30896E+02 -2.42443E+02 -3.68895E+02
 -1.33933E+01  7.71238E+02 -8.61623E+02  1.93170E+03 -2.19984E+03  1.07136E+03 -3.54236E+03 -1.14307E+03
 -7.70803E+02 -3.26462E+03  8.54219E+02 -3.58020E+03  1.80353E+03 -3.52359E+03  2.53906E+03 -1.26978E+03
  3.64552E+03  2.01321E+03  8.06316E+02  2.73329E+03 -6.82848E+02  3.22388E+03 -2.10731E+03  2.11037E+03
 -2.91755E+03  5.34526E+02 -2.88218E+03 -1.88596E+03  2.06341E+02 -2.34923E+03  1.35004E+03 -1.68179E+03
  2.18788E+03 -1.73244E+03  7.82545E+02  5.47818E+02  1.95484E+02  1.16441E+03  3.17684E+02 -5.42329E+01
  1.54388E+03  3.98053E+02  9.45684E+02  1.03043E+03  8.05318E+02  1.96195E+03  1.24845E+03  1.00475E+03
 -1.11254E+03  2.45245E+03 -1.86062E+03  3.14569E+03 -1.87474E+03  1.00187E+03 -3.25114E+03  1.09237E+02
 -1.19870E+03 -2.93801E+03  4.84512E+02 -3.12329E+03  1.96955E+03 -2.31101E+03  2.54729E+03 -5.17910E+02
  1.59758E+03  1.66886E+03  2.84216E+02  1.89069E+03 -5.82782E+02  9.99380E+02 -3.58370E+02  1.88277E+02
 -3.34968E+02 -8.60530E+02  6.87682E+02 -1.20395E+03  1.02598E+03 -9.47188E+02  6.83911E+02  3.20797E+02
  5.46950E+02 -1.94273E+02  6.51946E+02 -4.92466E+02  2.03908E+02  5.40136E+02  1.50134E+03 -3.14668E+02
  1.07851E+02 -2.86228E+02  1.42908E+03  5.41663E+02  2.02819E+02  2.22486E+03 -3.65797E+02  2.68875E+03
 -1.39179E+03  4.34936E+02 -1.96712E+03  1.67336E+02 -2.32393E+03 -4.10857E+02  1.21627E+02 -4.28577E+02
  6.33638E+01 -1.32493E+03  7.81857E+02 -1.04066E+03  4.27044E+02  9.23340E+02 -2.22878E+02  8.50731E+02
 -1.27351E+03  6.07771E+02 -1.29469E+03 -1.50133E+03 -4.91732E+02 -1.88974E+03 -3.23202E+02 -1.27104E+03
 -1.65838E+02 -1.14248E+02  7.81256E+01  1.66427E+02  1.17090E+03 -1.08362E+02  3.28838E+02  1.25712E+03
 -2.39441E+02  4.47611E+01 -8.79107E+02 -2.18106E+01  4.92714E+02 -3.77900E+02  1.37004E+03 -8.08409E+02
  5.19105E+02  5.02080E+02  2.39306E+03  4.30388E+02  1.24148E+03  1.03099E+03  2.95238E+02  1.15822E+03
 -9.15301E+02  1.11575E+02 -9.16198E+02 -3.17604E+02 -3.60437E+02 -1.73924E+03  5.62224E+02 -4.23289E+02
  8.75521E+02 -8.98735E+02  3.17853E+02  2.50111E+02  2.91988E+02  1.20094E+03  5.02949E+02  1.44335E+03
 -3.78158E+02  1.23990E+03 -1.49256E+02  5.24879E+02  2.55694E+02  2.12771E+02 -6.34428E+02  5.29403E+02
 -4.83883E+02  7.03946E+02 -1.48755E+03  2.99901E+02 -1.24274E+03 -2.05373E+02 -1.47700E+03 -5.26928E+02
 -5.60397E+02 -1.80462E+03  9.22933E+02 -1.41615E+03  7.00703E+02 -1.66565E+03  2.07234E+03 -8.59888E+02
  2.26261E+03 -4.54546E+02  8.95875E+02  1.31076E+03 -3.26595E+02  1.11534E+03 -6.51289E+02  1.20752E+03
 -4.14028E+02  6.84416E+02 -7.73099E+02  4.03201E+02 -6.64450E+02  5.35977E+02 -3.90603E+02 -1.89790E+01
 -1.31117E+03 -8.36091E+01 -9.88974E+02  8.52020E+01  4.83717E+02 -4.66645E+02 -4.11250E+02 -6.60915E+02
  1.47766E+03  1.21665E+02  2.91560E+02 -2.01275E+01  1.02444E+03  6.42995E+02 -9.60895E+02  8.40370E+02
 -1.07647E+03  1.70131E+03 -1.37066E+03  7.38754E+02 -9.70400E+02  1.27820E+02 -7.24285E+02 -9.52037E+02
 -1.29312E+03 -9.44046E+02 -5.75820E+00 -5.33335E+02  3.67696E+01 -4.35308E+02  1.80875E+02 -1.17586E+02
  4.82087E+01  2.92880E+02  4.86425E+01  4.92595E+02 -2.14110E+01 -2.23856E+02  1.20022E+02  3.36402E+01
  9.18888E+01  1.70296E+02  2.83016E+02  5.23955E+02 -1.16706E+02  3.58543E+02  3.97045E+02  1.18358E+02
  2.64159E+02  2.00383E+02 -5.16773E+02  1.90094E+02 -5.22948E+02 -6.65758E+02  7.07935E+02 -7.67960E+02
  9.06572E+02 -2.83859E+02  3.43018E+02  4.26522E+02  4.56266E+02 -6.99495E+02  1.66354E+02  6.26147E+02
  2.35219E+02  7.91493E+02 -5.72909E+02  1.11885E+02 -5.37642E+02  6.00099E+02 -4.56126E+01  3.27950E+02
 -4.11381E+02  2.83027E+00 -5.45494E+02  1.01417E+02 -3.85007E+02  4.38427E+02  3.83114E+01  2.27159E+01
 -9.90836E+02  1.30575E+02  5.97840E+01 -1.43046E+02  4.81584E+02 -1.46106E+03  4.31508E+02 -2.18780E+02
  7.66060E+02  1.41570E+02 -3.13808E+02  1.89684E+02 -1.79953E+02  6.68214E+02 -1.45557E+02  3.65560E+02
