 $NMID ID='MM_0lb_SNR400_16hz_g40_34.RAW', FMTDAT='(8E13.5)'
 TRAMP=1., VOLUME=1. $END
  3.09778E+05  2.78334E+02  3.37268E+05  2.50454E+05  8.49440E+04  3.38186E+05 -1.32539E+05  2.50549E+05
 -1.89816E+05  8.27902E+04 -1.10738E+05 -3.30930E+04  1.28149E+03 -5.04947E+04  5.41368E+04 -5.98149E+02
  3.49379E+04  5.31473E+04 -1.69834E+04  7.48836E+04 -6.04210E+04  6.33100E+04 -8.33526E+04  3.16977E+04
 -7.99332E+04 -1.09321E+04 -5.65530E+04 -5.05035E+04 -1.50987E+04 -6.95815E+04  2.75404E+04 -4.51168E+04
  4.01175E+04  3.74248E+03  1.59021E+04  4.70417E+04 -3.39751E+04  4.68426E+04 -6.55026E+04 -3.56576E+02
 -5.15102E+04 -5.59364E+04 -6.07489E+03 -7.57897E+04  3.37572E+04 -5.38154E+04  4.60712E+04 -1.66516E+04
  4.25212E+04  1.04573E+04  3.14207E+04  2.47027E+04  1.58514E+04  2.84600E+04 -4.63122E+03  2.67649E+04
 -2.17310E+04  1.19205E+04 -1.90110E+04 -4.27715E+03  4.73474E+03 -7.64501E+03  2.12797E+04  1.09615E+04
  7.57229E+03  3.32988E+04 -3.08721E+04  3.43552E+04 -6.18913E+04  2.09303E+03 -5.53759E+04 -4.22692E+04
 -1.22540E+04 -6.16220E+04  3.84728E+04 -4.39232E+04  5.61865E+04 -2.06031E+03  3.23124E+04  3.13773E+04
 -6.48911E+03  3.40107E+04 -2.86068E+04  1.39707E+04 -2.78453E+04 -4.87029E+03 -1.47377E+04 -9.87063E+03
 -7.60464E+03 -1.13294E+04 -9.55395E+02 -1.76813E+04  6.45376E+03 -2.24601E+04  1.48006E+04 -1.33731E+04
  1.18639E+04  4.89641E+03 -7.21256E+03  1.28851E+04 -2.01154E+04 -2.72389E+03 -8.17371E+03 -3.16632E+04
  2.14558E+04 -4.10991E+04  4.57173E+04 -1.91910E+04  4.31825E+04  1.86089E+04  1.47038E+04  4.25051E+04
 -1.52954E+04  3.20001E+04 -2.39840E+04  1.71851E+03 -9.18847E+03 -2.72854E+04  2.08789E+04 -3.23617E+04
  3.86860E+04 -7.70516E+03  3.26859E+04  2.33533E+04  1.59035E+04  4.44017E+04 -7.67753E+03  4.69675E+04
 -2.91232E+04  3.07714E+04 -3.85869E+04  8.73977E+03 -3.96023E+04 -1.55471E+04 -2.22055E+04 -3.54597E+04
  6.93127E+03 -3.54912E+04  3.04834E+04 -1.35597E+04  2.70889E+04  1.11004E+04  3.25844E+03  1.79279E+04
 -1.33103E+04  8.10473E+03 -9.99792E+03 -7.81605E+03  5.82839E+03 -1.02750E+04  1.78233E+04  6.01144E+03
  1.34302E+04  2.14025E+04 -6.72402E+03  2.30374E+04 -2.19297E+04  1.02727E+04 -2.63666E+04 -6.16319E+03
 -1.80261E+04 -1.60440E+04 -6.76464E+03 -1.78483E+04  3.66540E+03 -1.62820E+04  1.35552E+04 -1.59732E+04
  2.31291E+04 -1.18607E+04  2.91462E+04  1.97916E+03  2.18998E+04  1.78573E+04  4.59784E+03  3.38122E+04
 -1.70518E+04  2.87316E+04 -2.67932E+04  9.89845E+03 -2.03196E+04 -1.04312E+04 -3.75066E+03 -1.41013E+04
  2.08480E+03 -3.34212E+03 -3.27332E+03  5.45975E+03 -1.42356E+04  5.04786E+03 -1.45251E+04 -5.49048E+03
 -8.84173E+03 -1.67593E+04  4.36836E+03 -2.04399E+04  1.33043E+04 -1.44465E+04  1.58002E+04 -1.40384E+03
  9.85357E+03  1.17953E+04 -9.55499E+02  1.67864E+04 -1.10522E+04  9.78031E+03 -1.64651E+04 -3.70716E+03
 -1.31660E+04 -1.49920E+04 -1.91052E+03 -2.01695E+04  9.03670E+03 -1.60988E+04  1.74832E+04 -8.54828E+03
  1.59112E+04  5.71331E+01  1.13898E+04  4.01890E+03  5.65761E+03  3.90676E+02  8.25204E+03 -1.39997E+03
  1.47369E+04  2.47091E+03  1.66707E+04  1.38171E+04  1.06472E+04  2.69590E+04 -2.85458E+03  2.92063E+04
 -1.74072E+04  2.27932E+04 -2.72664E+04  1.14794E+04 -2.79542E+04 -1.96239E+03 -2.38864E+04 -1.58682E+04
 -1.14336E+04 -2.31429E+04  7.37833E+03 -2.13615E+04  1.77741E+04 -1.13490E+04  1.64975E+04  4.20069E+03
  6.78222E+03  1.25921E+04 -7.85235E+03  1.09518E+04 -1.40734E+04  2.48892E+03 -1.19034E+04 -8.63338E+03
  3.61915E+02 -1.32758E+04  6.50143E+03 -1.05572E+04  8.82618E+03 -1.37530E+03  1.87941E+03  4.94841E+03
 -6.29507E+03  1.87083E+03 -4.91875E+03 -5.36128E+03  1.89033E+02 -1.09328E+04  8.89344E+03 -1.18389E+04
  1.43011E+04 -4.95763E+03  1.41089E+04  2.82504E+03  1.21570E+04  1.06895E+04  5.22412E+03  1.62415E+04
 -2.39792E+03  1.83092E+04 -1.12635E+04  1.21451E+04 -1.30500E+04  3.21955E+03 -9.56146E+03 -2.34566E+03
 -4.42316E+03 -4.24674E+03 -8.45668E+02  1.97344E+03 -2.55594E+03  1.99240E+03 -3.71897E+03  3.87706E+03
 -9.72233E+03 -5.37309E+02 -9.68623E+03 -7.61851E+03 -3.85716E+03 -1.22421E+04  4.15762E+03 -9.62378E+03
  8.79910E+03 -4.02862E+03  5.58703E+03  2.59401E+03  6.78185E+02  3.95873E+03 -3.95397E+03 -2.35557E+02
 -4.32545E+03 -5.89855E+03 -1.44953E+03 -7.86445E+03  4.92457E+03 -8.61669E+03  1.10476E+04 -4.92837E+03
  1.32230E+04  7.67599E+02  1.01038E+04  6.93723E+03  1.88319E+03  1.00695E+04 -6.11698E+03  9.11319E+03
 -8.18040E+03  2.58588E+03 -4.05300E+03 -1.57533E+03  1.62680E+03 -2.38508E+03  5.09477E+03 -1.24054E+03
  5.05406E+03  4.05439E+03  8.38609E+02  7.03134E+03 -5.30885E+03  7.23140E+03 -9.02155E+03  1.87496E+03
 -5.78951E+03 -4.39617E+03 -2.24536E+02 -7.08318E+03  4.17565E+03 -3.33899E+03  4.62825E+03  1.27812E+03
  8.00971E+02  4.28239E+03 -4.38018E+03  5.39046E+03 -5.72093E+03  3.08499E+03 -5.15677E+03 -1.58832E+03
 -3.87002E+03 -7.26166E+03  1.48004E+03 -8.67818E+03  7.25036E+03 -5.42187E+03  7.81231E+03  1.18600E+03
  5.77492E+03  6.22059E+03 -2.54834E+02  8.82182E+03 -5.85133E+03  4.58739E+03 -6.31931E+03 -9.32508E+02
 -6.58726E+03 -5.80029E+03 -1.52255E+03 -6.33230E+03  3.20232E+03 -5.16987E+03  4.39465E+03 -3.24297E+03
  3.22135E+03  6.71311E+02  9.13558E+01  1.10561E+03  7.14427E+02 -4.39705E+02  1.65011E+01 -2.57150E+03
  4.58003E+03 -1.61419E+03  7.19386E+03  6.76434E+02  7.17375E+03  4.26966E+03  6.41658E+03  8.61492E+03
 -2.46100E+03  1.06072E+04 -9.43438E+03  8.19730E+03 -1.24841E+04  1.16331E+03 -9.40641E+03 -3.96554E+03
 -5.21762E+03 -8.01404E+03 -1.07483E+03 -6.73517E+03  2.89604E+03 -2.88859E+03  2.66452E+03 -2.81916E+03
  1.58984E+03 -2.19179E+03  3.07788E+03 -2.86825E+03  4.20143E+03 -1.31468E+03  4.75422E+03  7.01284E+02
  5.42785E+03  1.17525E+03  1.81507E+03  3.76167E+03 -1.63721E+03  3.51570E+03 -5.64866E+03  3.77154E+03
 -5.92789E+03 -1.08372E+03 -3.10436E+03 -4.43705E+03  5.10123E+02 -6.83564E+03  4.23525E+03 -6.95045E+03
  6.93464E+03 -3.78695E+03  8.73224E+03  9.73547E+02  6.24428E+03  5.41049E+03  9.86540E+02  6.89588E+03
 -2.87177E+03  7.49343E+03 -4.29804E+03  2.34924E+03 -2.42370E+03 -7.52751E+02 -1.01646E+03 -5.99560E+02
  2.31018E+02  6.30242E+02 -1.15083E+03  2.19371E+03 -3.30187E+03  1.03414E+03 -5.12119E+03 -5.83791E+02
 -2.69884E+03 -4.51120E+03  9.44830E+02 -6.20461E+03  3.20193E+03 -5.67542E+03  5.59288E+03 -2.20933E+03
  5.46997E+03  2.86453E+03  2.48037E+03  5.35602E+03 -1.33445E+03  5.34140E+03 -3.58984E+03  3.53247E+03
 -5.17746E+03 -4.51328E+01 -3.94830E+03 -2.90350E+03 -2.78635E+02 -4.65600E+03  2.35862E+03 -3.77355E+03
  4.14447E+03 -1.84674E+03  2.31924E+03  6.74760E+02  4.01914E+02  2.22683E+03  4.29312E+02  9.26865E+02
  2.08340E+03  1.05792E+03  1.39492E+03  7.99311E+02  1.62589E+03  2.32656E+03  1.72397E+03  2.50283E+03
 -1.21261E+03  4.27921E+03 -3.65963E+03  4.86349E+03 -4.71618E+03  1.55740E+03 -5.72752E+03 -1.65976E+03
 -2.25479E+03 -4.79391E+03  6.41978E+02 -6.50151E+03  2.75953E+03 -3.06610E+03  4.88916E+03 -1.20422E+03
  4.00642E+03  2.82301E+03  7.56035E+02  2.84748E+03 -1.46274E+03  1.27589E+03 -1.55741E+03 -1.92937E+02
 -9.95926E+02 -2.27765E+03  1.69028E+03 -2.08634E+03  1.81101E+03 -1.33826E+03  2.37716E+03  5.64042E+02
  1.47259E+03  5.58776E+02  8.06624E+02  5.49778E+02 -3.35697E+02  6.17484E+02  1.50188E+03 -3.23040E+02
  1.67191E+02 -2.56423E+02  1.90525E+03  1.37539E+03  8.82117E+02  2.83879E+03 -4.75629E+02  3.63788E+03
 -2.03907E+03  1.72150E+03 -2.86501E+03  5.57399E+02 -2.87238E+03 -7.34798E+02 -2.20867E+02 -1.10492E+03
  1.25382E+03 -2.45900E+03  1.03942E+03 -9.85957E+02  8.27442E+02  1.48426E+03 -1.30726E+03  1.58512E+03
 -2.42350E+03  1.52320E+03 -2.12655E+03 -1.73022E+03 -1.31455E+03 -2.22196E+03  4.28884E+02 -2.73793E+03
  7.63523E+02 -1.17791E+03  1.72618E+03 -4.48497E+02  1.19196E+03 -1.31979E+02  3.28888E+02  1.70895E+03
 -1.48973E+03  4.68051E+02 -9.61061E+02 -4.65099E+02  1.01690E+03 -1.78732E+03  2.63963E+03 -1.58496E+03
  2.61637E+03  5.74007E+01  4.04729E+03  1.67882E+03  1.27115E+03  3.62607E+03 -6.26387E+02  3.00136E+03
 -2.01106E+03  1.14568E+03 -2.08200E+03  1.40011E+01 -1.03591E+03 -1.97650E+03  6.46302E+02 -1.11217E+03
  2.41564E+03 -1.61168E+03  1.11528E+03  1.03616E+03  4.70264E+02  1.39221E+03 -3.39792E+02  2.24997E+03
 -7.92038E+02  1.29497E+03 -5.52463E+02  6.03441E+01  1.75654E+02  9.51526E+02 -5.91659E+02  3.32109E+02
 -1.05910E+03  1.73054E+03 -1.96039E+03  9.98435E+02 -2.82845E+03  3.02472E+00 -3.92548E+03 -1.33780E+03
 -2.23252E+03 -3.83545E+03  9.47239E+02 -5.20528E+03  1.77942E+03 -3.98646E+03  4.15556E+03 -1.73619E+03
  3.72554E+03  9.26939E+01  2.41280E+03  2.51211E+03 -1.00035E+03  2.86257E+03 -8.40187E+02  2.49005E+03
 -1.42247E+03  6.80724E+02 -1.26503E+03 -4.78824E+02 -6.73888E+02  1.06163E+03 -3.03505E+02 -3.09206E+02
 -1.26774E+03  1.13299E+02 -1.34154E+03 -1.14331E+02 -1.28189E+02 -9.00885E+02  1.57326E+02 -1.52233E+03
  1.72126E+03 -1.56778E+03  1.46399E+03  4.20022E+02  1.70502E+03  1.41941E+03 -2.83308E+02  2.83995E+03
 -1.57556E+03  3.42990E+03 -2.93336E+03  1.78886E+03 -3.18797E+03 -4.53102E+02 -2.02998E+03 -1.94061E+03
 -1.53601E+03 -2.89873E+03  8.39145E+02 -1.64325E+03  9.91446E+02 -1.32283E+03  6.14485E+02 -8.67099E+01
  8.24369E+02  5.08787E+02  6.06962E+02  1.40144E+02 -2.98444E+02  4.09191E+01  5.32156E+01 -9.91549E+02
  6.96356E+02 -4.58882E+02  1.44392E+02  2.82562E+02 -1.72752E+02  1.01274E+03  3.25186E+02  8.51445E+02
 -5.70688E+02  1.33889E+03 -7.56023E+02  8.60507E+01 -1.68030E+03 -1.14572E+03  4.17085E+02 -2.22023E+03
  1.28554E+03 -1.56150E+03  1.29832E+03 -7.17230E+01  1.76044E+03 -2.71172E+01  1.12542E+03  1.00200E+03
  5.54189E+02  9.94877E+02 -6.08062E+02  6.48150E+02 -8.27425E+02  1.25495E+03 -1.18877E+03 -1.00195E+02
 -2.89901E+02 -3.04417E+02 -8.84460E+02  5.12086E+02 -7.98832E+02  5.03787E+02 -1.30510E+03 -6.52730E+01
 -1.54929E+03 -1.42892E+02 -5.45887E+02 -1.85967E+03  5.06916E+02 -2.28822E+03  1.39351E+03 -7.31710E+02
  1.22200E+03  5.84789E+02  5.67939E+02  1.23914E+03  3.62823E+02  1.27510E+03 -6.86206E+02  9.20500E+02
