 $NMID ID='MM_0lb_SNR400_7hz_g60_23.RAW', FMTDAT='(8E13.5)'
 TRAMP=1., VOLUME=1. $END
  3.10118E+05  1.89915E+03  3.37824E+05  2.51221E+05  8.50854E+04  3.38021E+05 -1.32449E+05  2.51845E+05
 -1.90765E+05  8.48127E+04 -1.12274E+05 -3.21664E+04  6.94478E+02 -5.04629E+04  5.37204E+04 -3.09443E+02
  3.44073E+04  5.16019E+04 -1.70217E+04  7.63119E+04 -6.07956E+04  6.50822E+04 -8.61696E+04  3.30161E+04
 -8.29638E+04 -1.15648E+04 -5.85945E+04 -5.34797E+04 -1.50650E+04 -7.17389E+04  2.91383E+04 -4.75230E+04
  4.15518E+04  3.38144E+03  1.59535E+04  4.83068E+04 -3.52610E+04  4.85533E+04 -6.99332E+04 -7.31546E+02
 -5.62157E+04 -5.85512E+04 -7.38405E+03 -7.95973E+04  3.59182E+04 -5.74605E+04  5.08030E+04 -1.90898E+04
  4.61574E+04  1.14650E+04  3.36371E+04  2.74050E+04  1.67357E+04  3.18041E+04 -6.62402E+03  2.75050E+04
 -2.35936E+04  1.21782E+04 -1.80279E+04 -6.68910E+03  7.38367E+03 -7.51098E+03  2.55467E+04  1.46198E+04
  7.14392E+03  3.88313E+04 -3.50459E+04  3.81152E+04 -6.76237E+04  1.48541E+03 -5.91155E+04 -4.67349E+04
 -1.37073E+04 -6.77970E+04  4.15496E+04 -4.86237E+04  6.29373E+04 -2.62758E+03  3.77640E+04  3.58518E+04
 -5.00852E+03  4.12115E+04 -3.25830E+04  2.17620E+04 -3.49553E+04 -2.56753E+03 -2.09122E+04 -1.24319E+04
 -9.41922E+03 -1.62179E+04 -2.59671E+00 -2.09304E+04  8.46290E+03 -2.44784E+04  1.59739E+04 -1.22853E+04
  9.09535E+03  6.62981E+03 -1.22915E+04  1.30525E+04 -2.50128E+04 -8.12694E+03 -9.18931E+03 -4.01935E+04
  2.67754E+04 -4.86569E+04  5.56156E+04 -2.08592E+04  5.11645E+04  2.14214E+04  1.80121E+04  4.84302E+04
 -1.71990E+04  3.78244E+04 -2.96802E+04  3.68079E+03 -1.28330E+04 -3.15034E+04  2.21523E+04 -3.83309E+04
  4.71019E+04 -1.13718E+04  4.31108E+04  2.57358E+04  2.43021E+04  5.45355E+04 -9.53298E+03  5.98497E+04
 -3.78680E+04  4.09419E+04 -5.07917E+04  1.21288E+04 -5.07997E+04 -1.89180E+04 -2.79351E+04 -4.46057E+04
  8.10921E+03 -4.53413E+04  3.62788E+04 -1.84448E+04  3.39131E+04  1.12026E+04  6.21731E+03  2.18313E+04
 -1.36938E+04  1.01110E+04 -1.17964E+04 -7.00615E+03  6.10645E+03 -1.19423E+04  1.92990E+04  5.44535E+03
  1.65617E+04  2.26596E+04 -5.30172E+03  2.92020E+04 -2.32125E+04  1.57551E+04 -3.36872E+04 -1.85818E+03
 -2.85836E+04 -1.87467E+04 -1.43227E+04 -2.81748E+04  4.95030E+03 -2.99364E+04  2.17450E+04 -2.51528E+04
  3.57917E+04 -1.56861E+04  4.10991E+04  5.91039E+03  2.90816E+04  2.71432E+04  4.47708E+03  4.40049E+04
 -2.06413E+04  3.56612E+04 -3.15901E+04  1.25853E+04 -2.23364E+04 -1.02723E+04 -5.77647E+03 -1.19481E+04
  1.02497E+03  3.95802E+02 -9.24291E+03  9.60176E+03 -2.22771E+04  4.67369E+03 -2.25550E+04 -1.14398E+04
 -1.31461E+04 -2.57998E+04  6.22771E+03 -3.02055E+04  2.01382E+04 -2.12691E+04  2.46543E+04 -2.54339E+03
  1.75947E+04  1.88494E+04 -1.70050E+03  2.58695E+04 -1.83584E+04  1.57629E+04 -2.68341E+04 -5.06958E+03
 -1.97247E+04 -2.37534E+04 -2.36681E+03 -3.15694E+04  1.35193E+04 -2.63713E+04  2.53155E+04 -1.33688E+04
  2.55767E+04 -4.97779E+02  1.77103E+04  5.77956E+03  1.01086E+04  1.87270E+03  1.35202E+04 -2.62160E+03
  2.50092E+04  2.41794E+03  2.96799E+04  1.97537E+04  2.08574E+04  4.22333E+04 -2.87396E+03  5.08660E+04
 -2.90829E+04  4.31988E+04 -4.79217E+04  2.27307E+04 -5.33077E+04 -3.86917E+03 -4.18529E+04 -3.06908E+04
 -1.57221E+04 -4.37445E+04  1.52628E+04 -3.70477E+04  3.24946E+04 -1.65594E+04  2.77785E+04  1.02771E+04
  8.38541E+03  2.15421E+04 -1.27967E+04  1.79626E+04 -2.28466E+04  1.73196E+03 -1.73032E+04 -1.43992E+04
 -3.26678E+02 -2.18568E+04  1.26981E+04 -1.57887E+04  1.59829E+04 -1.98054E+03  4.66090E+03  1.03595E+04
 -9.45933E+03  5.40672E+03 -1.08082E+04 -7.84220E+03 -4.43381E+03 -2.07427E+04  1.40077E+04 -2.34359E+04
  2.76984E+04 -1.36821E+04  3.09378E+04  3.79795E+03  2.66478E+04  2.19762E+04  1.25854E+04  3.45080E+04
 -7.15725E+03  3.63391E+04 -2.39829E+04  2.41138E+04 -2.64357E+04  4.30274E+03 -1.77300E+04 -7.71317E+03
 -7.08786E+03 -9.06813E+03 -1.45600E+03  3.23487E+01 -3.15418E+03  4.40546E+03 -8.93654E+03  5.75857E+03
 -1.65191E+04 -1.58655E+03 -1.78030E+04 -1.31451E+04 -6.32889E+03 -2.32089E+04  7.60590E+03 -1.86069E+04
  1.56082E+04 -6.68122E+03  1.03090E+04  5.33319E+03 -4.32909E+02  7.52498E+03 -9.80509E+03 -6.12911E+02
 -9.96467E+03 -1.17603E+04 -9.91817E+02 -1.81962E+04  1.04407E+04 -1.94496E+04  2.39311E+04 -1.11955E+04
  2.83854E+04  3.39241E+03  1.98615E+04  1.78175E+04  3.76600E+03  2.24863E+04 -1.06795E+04  1.73024E+04
 -1.49787E+04  4.76443E+03 -7.87184E+03 -5.03415E+03  2.60795E+03 -5.50560E+03  9.31084E+03 -1.08957E+03
  9.18340E+03  9.05391E+03  6.04527E+02  1.52244E+04 -1.14769E+04  1.33455E+04 -1.87772E+04  3.37628E+03
 -1.29938E+04 -1.04974E+04  5.64962E+02 -1.59452E+04  1.13487E+04 -8.63228E+03  1.11115E+04  2.95577E+03
  3.00090E+03  1.30072E+04 -1.02351E+04  1.39038E+04 -1.67651E+04  6.44550E+03 -1.89733E+04 -6.41816E+03
 -9.62238E+03 -2.04240E+04  5.96104E+03 -2.34543E+04  1.89357E+04 -1.32962E+04  2.13688E+04  4.00548E+03
  1.30047E+04  1.63353E+04 -2.02906E+03  1.88837E+04 -1.50466E+04  1.08375E+04 -1.48641E+04 -1.48721E+03
 -1.35829E+04 -1.34826E+04 -1.78398E+03 -1.43074E+04  7.19335E+03 -1.21957E+04  9.59393E+03 -3.49282E+03
  5.70292E+03  2.65939E+03 -1.53384E+03  2.79538E+03 -1.69058E+03 -4.69919E+03  3.24614E+03 -1.01135E+04
  1.47808E+04 -6.95521E+03  2.14345E+04  1.01248E+03  2.02798E+04  1.29689E+04  1.28459E+04  2.65605E+04
 -7.51270E+03  3.12118E+04 -2.44851E+04  2.25772E+04 -3.27036E+04  4.40761E+03 -2.68797E+04 -1.29463E+04
 -1.37159E+04 -2.20296E+04 -1.17279E+02 -1.87903E+04  5.61490E+03 -1.09305E+04  7.02915E+03 -6.72193E+03
  4.92777E+03 -3.66117E+03  5.17800E+03 -4.52322E+03  7.47112E+03 -4.97480E+03  1.07569E+04 -1.74815E+03
  1.42602E+04  2.01631E+03  8.26110E+03  1.23390E+04 -2.11789E+03  1.50355E+04 -1.46815E+04  1.19549E+04
 -1.90183E+04 -1.86505E+03 -1.28966E+04 -1.36311E+04 -2.88168E+03 -2.02771E+04  1.10408E+04 -2.00187E+04
  2.09395E+04 -1.08861E+04  2.48773E+04  4.08104E+03  1.75633E+04  1.87036E+04  2.56868E+03  2.24279E+04
 -8.92962E+03  1.83938E+04 -1.40244E+04  7.73346E+03 -9.22341E+03 -1.32070E+03 -3.69239E+03 -2.09334E+03
 -2.32810E+03 -2.77159E+02 -2.59700E+03  3.56771E+03 -7.38059E+03  3.13464E+03 -1.30713E+04 -2.22677E+03
 -9.63036E+03 -1.31003E+04  2.34237E+02 -1.96838E+04  1.09667E+04 -1.83546E+04  2.02027E+04 -4.75375E+03
  1.93432E+04  9.41676E+03  1.04696E+04  1.81552E+04 -3.58603E+03  2.04098E+04 -1.34436E+04  1.30162E+04
 -1.87055E+04  1.43748E+03 -1.48441E+04 -1.27419E+04 -9.29839E+02 -1.88087E+04  8.56602E+03 -1.27807E+04
  1.23603E+04 -4.54895E+03  9.15583E+03  4.23530E+03  3.45142E+03  6.30769E+03  1.72847E+03  3.37691E+03
  3.00689E+03  7.55109E+02  5.45562E+03  2.31157E+03  6.54528E+03  6.63699E+03  5.04675E+03  1.06641E+04
 -4.72089E+03  1.67976E+04 -1.53423E+04  1.58451E+04 -2.17320E+04  4.02425E+03 -2.08395E+04 -9.39846E+03
 -1.06210E+04 -2.06847E+04  3.07468E+03 -2.22232E+04  1.35236E+04 -1.45949E+04  1.76918E+04 -3.21784E+03
  1.37319E+04  7.70827E+03  3.75935E+03  1.16378E+04 -7.10103E+03  7.56992E+03 -9.24027E+03 -1.24899E+03
 -4.43299E+03 -9.17217E+03  4.77982E+03 -9.92567E+03  9.05116E+03 -4.50001E+03  7.68915E+03  2.17636E+03
  5.80174E+03  4.92217E+03  2.62952E+03  5.08386E+03 -9.32107E+02  2.27528E+03  2.06713E+03 -3.87870E+02
  3.75394E+03 -1.10041E+03  8.17943E+03  3.93810E+03  5.86411E+03  1.05286E+04 -1.94215E+03  1.53906E+04
 -9.88323E+03  1.09260E+04 -1.42636E+04  3.12473E+03 -1.29573E+04 -6.06739E+03 -5.59881E+03 -9.10736E+03
  1.59493E+03 -8.39521E+03  5.42209E+03 -3.55103E+03  4.91547E+03  4.51871E+03 -1.24242E+03  7.51593E+03
 -9.11046E+03  4.54683E+03 -1.03767E+04 -3.90431E+03 -6.10451E+03 -1.16557E+04  2.28838E+03 -1.19533E+04
  6.89267E+03 -7.58795E+03  8.97522E+03 -1.73305E+03  5.86623E+03  3.08089E+03  1.13203E+03  6.50432E+03
 -3.95827E+03  1.74570E+03 -5.46049E+03 -4.71338E+03  1.90516E+03 -9.37789E+03  1.07975E+04 -7.27143E+03
  1.40593E+04  1.86535E+02  1.32646E+04  1.01054E+04  4.61969E+03  1.48893E+04 -4.62927E+03  1.29941E+04
 -1.20171E+04  6.36733E+03 -1.17568E+04 -2.12933E+03 -7.27017E+03 -8.80951E+03  2.84528E+03 -9.38690E+03
  1.00180E+04 -4.66358E+03  6.41934E+03  3.99139E+03  3.05935E+03  8.62154E+03 -1.22035E+03  7.25581E+03
 -4.57503E+03  4.02909E+03 -3.73772E+03  1.49214E+03 -1.36503E+03  1.65075E+03 -2.59926E+03  3.82049E+03
 -3.67245E+03  5.50718E+03 -9.25558E+03  4.29149E+03 -1.45296E+04 -2.00598E+02 -1.63343E+04 -1.01984E+04
 -8.93279E+03 -1.97212E+04  4.34628E+03 -2.25160E+04  1.50297E+04 -1.75005E+04  2.12528E+04 -6.67586E+03
  2.04882E+04  4.71512E+03  1.28541E+04  1.36164E+04  2.18922E+03  1.55296E+04 -6.11917E+03  1.14200E+04
 -8.67479E+03  4.61428E+03 -5.16082E+03 -1.84816E+03 -1.26615E+03 -1.22594E+03 -1.81071E+03  2.20861E+02
 -1.87519E+03 -7.56420E+02 -3.50161E+03 -1.54011E+02 -1.87430E+03 -4.20243E+03  6.84379E+02 -6.90107E+03
  7.04112E+03 -5.58640E+03  1.03323E+04  1.92576E+02  1.13498E+04  8.21175E+03  3.21747E+03  1.55905E+04
 -7.66487E+03  1.77239E+04 -1.82749E+04  9.38707E+03 -1.95310E+04 -1.26062E+03 -1.48878E+04 -1.15953E+04
 -6.73372E+03 -1.72296E+04  4.51793E+03 -1.49508E+04  1.00750E+04 -7.78418E+03  1.00875E+04  5.75939E+02
  5.26578E+03  4.48296E+03 -5.63939E+02  4.00324E+03 -3.04998E+03  2.10397E+01  4.15765E+02 -3.37378E+03
  4.37772E+03 -1.55926E+03  7.40670E+03  1.80452E+03  5.51606E+03  6.96387E+03 -6.37013E+02  9.42606E+03
 -7.36306E+03  6.82570E+03 -1.16735E+04  1.88203E+02 -1.10137E+04 -8.79264E+03 -2.37161E+03 -1.33528E+04
  7.16578E+03 -1.21728E+04  1.31916E+04 -3.66101E+03  1.30885E+04  3.40274E+03  6.98983E+03  9.93566E+03
  1.17925E+03  1.27015E+04 -3.87796E+03  8.83306E+03 -7.61070E+03  5.05905E+03 -5.79870E+03  9.32401E+02
 -3.32733E+03 -9.00563E+02 -3.07025E+03  1.20510E+03 -5.67944E+03  2.30097E+03 -8.56336E+03 -2.24254E+03
 -7.89088E+03 -7.44650E+03 -2.34100E+03 -1.05411E+04  4.96561E+03 -1.08292E+04  9.31828E+03 -5.61081E+03
  1.06115E+04  1.27828E+03  7.20788E+03  8.11139E+03 -5.79091E+02  1.16940E+04 -8.93018E+03  7.22322E+03
