 $NMID ID='MM_0lb_SNR400_14hz_g45_77.RAW', FMTDAT='(8E13.5)'
 TRAMP=1., VOLUME=1. $END
  3.09902E+05  4.73125E+02  3.37131E+05  2.50150E+05  8.45654E+04  3.38309E+05 -1.32768E+05  2.50824E+05
 -1.89724E+05  8.30359E+04 -1.11111E+05 -3.29085E+04  9.56836E+02 -5.08079E+04  5.39478E+04 -8.13099E+02
  3.57058E+04  5.27844E+04 -1.63137E+04  7.56234E+04 -6.07534E+04  6.32482E+04 -8.36878E+04  3.13520E+04
 -8.11263E+04 -1.11101E+04 -5.76838E+04 -5.07756E+04 -1.40995E+04 -7.00124E+04  2.77144E+04 -4.56788E+04
  3.99437E+04  3.97149E+03  1.64935E+04  4.78348E+04 -3.47567E+04  4.71547E+04 -6.68421E+04  6.58844E+01
 -5.34362E+04 -5.66457E+04 -6.58321E+03 -7.64137E+04  3.38327E+04 -5.48522E+04  4.72440E+04 -1.67554E+04
  4.29901E+04  1.12603E+04  3.18127E+04  2.50680E+04  1.49614E+04  2.96072E+04 -4.93758E+03  2.68968E+04
 -2.16298E+04  1.24148E+04 -1.85123E+04 -5.01951E+03  5.33311E+03 -6.56213E+03  2.27806E+04  1.26010E+04
  7.24179E+03  3.49870E+04 -3.17124E+04  3.50914E+04 -6.33392E+04  1.77386E+03 -5.69800E+04 -4.26681E+04
 -1.33465E+04 -6.28663E+04  4.02816E+04 -4.45980E+04  5.77470E+04 -1.94747E+03  3.37143E+04  3.25708E+04
 -6.29584E+03  3.56313E+04 -3.03576E+04  1.58295E+04 -2.99012E+04 -4.43646E+03 -1.64563E+04 -1.10230E+04
 -8.07770E+03 -1.29901E+04 -5.99940E+02 -1.85319E+04  7.50984E+03 -2.24354E+04  1.51720E+04 -1.32337E+04
  1.16527E+04  4.99993E+03 -7.85521E+03  1.33352E+04 -2.06417E+04 -4.08114E+03 -8.65468E+03 -3.31841E+04
  2.20997E+04 -4.31636E+04  4.82946E+04 -1.96162E+04  4.50340E+04  1.92461E+04  1.59420E+04  4.37379E+04
 -1.54422E+04  3.32373E+04 -2.46334E+04  1.30012E+03 -9.66381E+03 -2.72634E+04  2.02490E+04 -3.37490E+04
  4.08996E+04 -8.95420E+03  3.55501E+04  2.35175E+04  1.77138E+04  4.60135E+04 -8.42531E+03  4.99302E+04
 -3.10348E+04  3.31523E+04 -4.16023E+04  9.48603E+03 -4.25042E+04 -1.64083E+04 -2.36515E+04 -3.74052E+04
  7.15595E+03 -3.70108E+04  3.08150E+04 -1.53085E+04  2.91296E+04  1.08958E+04  3.51775E+03  1.86311E+04
 -1.34329E+04  8.09013E+03 -1.00667E+04 -7.25379E+03  5.14947E+03 -1.07618E+04  1.75315E+04  5.75519E+03
  1.39928E+04  2.23954E+04 -6.12498E+03  2.52833E+04 -2.24958E+04  1.16578E+04 -2.76692E+04 -4.66355E+03
 -2.02626E+04 -1.69398E+04 -8.02448E+03 -2.02211E+04  4.31772E+03 -1.90477E+04  1.55002E+04 -1.80315E+04
  2.53951E+04 -1.29315E+04  3.23962E+04  2.85196E+03  2.34875E+04  1.96672E+04  4.50675E+03  3.68028E+04
 -1.73174E+04  2.97610E+04 -2.75027E+04  1.05015E+04 -2.11079E+04 -1.03219E+04 -4.04422E+03 -1.37431E+04
  1.82636E+03 -3.01898E+03 -4.44518E+03  6.16932E+03 -1.52819E+04  5.28306E+03 -1.59457E+04 -7.14699E+03
 -9.88105E+03 -1.86546E+04  5.33654E+03 -2.28685E+04  1.49875E+04 -1.65224E+04  1.77515E+04 -1.58705E+03
  1.10291E+04  1.27624E+04 -8.90737E+02  1.86977E+04 -1.30165E+04  1.08596E+04 -1.88211E+04 -3.80479E+03
 -1.34413E+04 -1.68127E+04 -1.58931E+03 -2.24416E+04  1.00508E+04 -1.84744E+04  1.79945E+04 -9.25518E+03
  1.79688E+04 -1.04236E+02  1.25029E+04  4.34580E+03  6.72376E+03  9.39003E+02  9.76126E+03 -1.80987E+03
  1.66028E+04  2.48565E+03  1.92251E+04  1.52989E+04  1.25093E+04  3.00067E+04 -2.56738E+03  3.37361E+04
 -1.99669E+04  2.65009E+04 -3.12131E+04  1.31378E+04 -3.27797E+04 -2.06287E+03 -2.69601E+04 -1.88645E+04
 -1.16184E+04 -2.70660E+04  9.43276E+03 -2.39009E+04  2.00806E+04 -1.27893E+04  1.89529E+04  5.90126E+03
  6.96273E+03  1.36021E+04 -9.35017E+03  1.20753E+04 -1.61444E+04  2.46657E+03 -1.23672E+04 -9.71094E+03
 -4.94609E+01 -1.50283E+04  7.89986E+03 -1.15435E+04  1.01962E+04 -1.58022E+03  2.26588E+03  6.11163E+03
 -6.31430E+03  2.43483E+03 -5.48088E+03 -5.55267E+03  6.43008E+01 -1.27660E+04  8.82977E+03 -1.37339E+04
  1.63238E+04 -6.82348E+03  1.74741E+04  3.01901E+03  1.44414E+04  1.23992E+04  7.21053E+03  1.96968E+04
 -3.36664E+03  2.22080E+04 -1.36815E+04  1.36195E+04 -1.52998E+04  2.92012E+03 -1.11630E+04 -3.85700E+03
 -5.69657E+03 -4.54668E+03 -4.06825E+02  8.47096E+02 -2.26949E+03  2.64860E+03 -5.45944E+03  3.93784E+03
 -9.92564E+03 -3.26342E+02 -1.05114E+04 -9.34350E+03 -3.96960E+03 -1.44474E+04  4.87897E+03 -1.10665E+04
  8.96890E+03 -4.67949E+03  7.02908E+03  2.50352E+03  6.70428E+02  4.00245E+03 -4.75088E+03 -3.23354E+02
 -5.15681E+03 -7.78319E+03 -9.40178E+02 -1.06612E+04  5.10634E+03 -1.13899E+04  1.38804E+04 -5.84223E+03
  1.57676E+04  1.75026E+03  1.16794E+04  8.98129E+03  2.36168E+03  1.26477E+04 -6.97846E+03  1.05766E+04
 -8.90127E+03  3.41921E+03 -4.75344E+03 -2.08698E+03  1.76655E+03 -2.67359E+03  6.03301E+03 -1.22227E+03
  5.47030E+03  4.48654E+03  5.84698E+02  8.84346E+03 -5.70238E+03  8.16325E+03 -1.10065E+04  1.79331E+03
 -8.13284E+03 -5.60319E+03  4.73120E+01 -8.99039E+03  5.42421E+03 -4.79948E+03  5.12285E+03  1.80590E+03
  7.50935E+02  6.14172E+03 -5.73921E+03  6.99616E+03 -8.22631E+03  3.81114E+03 -8.04106E+03 -2.82122E+03
 -4.67580E+03 -9.82852E+03  1.99519E+03 -1.10616E+04  9.45145E+03 -6.60014E+03  1.00828E+04  2.00233E+03
  6.18890E+03  8.66713E+03 -8.71222E+02  1.03260E+04 -7.30088E+03  6.10075E+03 -7.89798E+03 -4.30415E+02
 -7.81374E+03 -7.04055E+03 -1.59858E+03 -7.65661E+03  4.01354E+03 -6.73606E+03  4.54842E+03 -2.60630E+03
  3.49789E+03  8.17681E+02 -1.70843E+02  1.53080E+03  5.49707E+01 -7.65015E+02  7.66442E+02 -3.93450E+03
  6.27884E+03 -1.69902E+03  8.70448E+03  9.31301E+02  9.16908E+03  5.58794E+03  6.88956E+03  1.19377E+04
 -2.13035E+03  1.36069E+04 -1.23314E+04  1.04222E+04 -1.48663E+04  1.81010E+03 -1.19900E+04 -4.71379E+03
 -5.92449E+03 -1.06964E+04 -4.88573E+02 -8.87951E+03  3.43061E+03 -4.19027E+03  2.82364E+03 -3.10932E+03
  2.17859E+03 -2.54577E+03  3.04193E+03 -2.28667E+03  3.91532E+03 -2.10038E+03  5.44575E+03 -1.30164E+02
  6.95093E+03  2.04733E+03  3.09686E+03  6.02277E+03 -1.37908E+03  5.99311E+03 -6.78048E+03  4.65519E+03
 -8.19169E+03 -8.86635E+02 -3.83265E+03 -5.78195E+03 -6.51122E+02 -8.27920E+03  4.92578E+03 -8.74458E+03
  9.21583E+03 -5.10140E+03  1.11549E+04  1.31606E+03  7.86019E+03  7.18628E+03  1.75772E+03  1.05207E+04
 -3.61541E+03  8.88750E+03 -5.79867E+03  3.01828E+03 -3.16114E+03 -1.51390E+03 -1.80345E+03 -1.88694E+03
 -3.78325E+02  5.44408E+02 -5.96691E+02  1.99691E+03 -3.66661E+03  1.19722E+03 -6.14214E+03 -8.44465E+02
 -2.99445E+03 -5.92832E+03  7.92417E+02 -8.16608E+03  4.62172E+03 -7.14769E+03  7.49149E+03 -1.97033E+03
  7.95459E+03  3.93739E+03  3.58165E+03  6.63513E+03 -9.58852E+02  8.04904E+03 -5.21840E+03  5.15129E+03
 -7.28064E+03  7.86251E+02 -5.90016E+03 -4.72647E+03 -5.39818E+01 -5.98297E+03  3.60085E+03 -4.76055E+03
  4.38140E+03 -2.54352E+03  3.09348E+03  4.47808E+02  6.95186E+02  2.77816E+03  5.62486E+02  8.70856E+02
  2.05567E+03  3.60456E+02  1.51053E+03  1.64510E+03  1.92315E+03  3.43590E+03  2.32826E+03  4.12212E+03
 -1.48757E+03  6.00152E+03 -5.04313E+03  6.53561E+03 -6.69428E+03  1.75272E+03 -7.47139E+03 -3.04130E+03
 -3.29628E+03 -6.74726E+03  7.83726E+02 -7.80472E+03  4.51063E+03 -4.80484E+03  5.62159E+03 -1.70786E+03
  4.48364E+03  2.98704E+03  5.45623E+02  4.03880E+03 -2.27960E+03  2.21101E+03 -2.30472E+03 -2.91875E+02
 -1.56039E+03 -2.67310E+03  1.71935E+03 -3.40781E+03  2.99922E+03 -1.28763E+03  2.10660E+03  9.02038E+02
  1.43093E+03  1.16309E+03  1.43016E+03  1.07204E+03 -2.41476E+02  8.59424E+02  1.45490E+03 -1.91981E+02
  1.27301E+03 -3.81871E+02  2.17202E+03  1.13444E+03  6.20789E+02  4.32567E+03 -5.43444E+00  5.56518E+03
 -3.43492E+03  3.53984E+03 -4.80582E+03  9.40233E+02 -4.14737E+03 -1.64730E+03 -1.17013E+03 -1.77017E+03
  6.49315E+02 -2.38770E+03  1.72228E+03 -1.30116E+03  1.18723E+03  1.71634E+03 -3.97043E+02  2.47813E+03
 -3.23596E+03  1.90305E+03 -2.79998E+03 -2.10281E+03 -1.87671E+03 -3.92824E+03  8.17572E+02 -3.41096E+03
  1.64182E+03 -2.03461E+03  2.67257E+03  4.14287E+02  2.16042E+03  8.35413E+02  7.88051E+02  2.11573E+03
 -1.39605E+03  3.28929E+02 -1.69300E+03 -1.12184E+03  8.93363E+02 -2.67746E+03  3.81568E+03 -2.16104E+03
  3.89559E+03 -7.29008E+01  4.38413E+03  2.67696E+03  1.92699E+03  3.48640E+03 -1.84002E+03  3.68210E+03
 -3.09324E+03  1.23174E+03 -3.55078E+03 -5.94641E+01 -1.78835E+03 -2.93303E+03  9.91324E+02 -2.02557E+03
  3.08281E+03 -1.22681E+03  1.90811E+03  1.27847E+03  1.04489E+03  2.18320E+03  2.80457E+02  2.26602E+03
 -1.24549E+03  1.68191E+03 -1.33168E+03  4.45740E+02 -1.30718E+02  4.09409E+02 -9.02109E+02  1.25817E+03
 -1.16545E+03  1.35510E+03 -2.64354E+03  1.54913E+03 -4.36631E+03  3.83696E+02 -5.21376E+03 -2.63573E+03
 -2.05787E+03 -5.89211E+03  8.88953E+02 -6.90770E+03  3.74989E+03 -5.45596E+03  5.99250E+03 -1.64631E+03
  5.80589E+03 -9.34279E+01  2.89828E+03  3.85764E+03 -4.91085E+02  3.73767E+03 -1.61742E+03  3.57078E+03
 -2.22470E+03  1.58408E+03 -1.11907E+03 -1.26515E+03 -5.43212E+01 -1.99673E+02 -1.05416E+03  1.34297E+01
 -1.15851E+03  4.59673E+02 -1.24693E+03 -1.54226E+02  4.42477E+01 -1.53831E+03 -2.49577E+02 -1.51998E+03
  2.12921E+03 -8.27957E+02  2.16189E+03 -2.43022E+02  3.17057E+03  2.16823E+03  7.74822E+02  3.55029E+03
 -2.05568E+03  4.98458E+03 -4.19850E+03  3.16120E+03 -4.71229E+03 -8.76887E+02 -3.54210E+03 -3.13087E+03
 -2.09108E+03 -3.86965E+03  1.17107E+03 -3.29983E+03  2.41341E+03 -1.59494E+03  1.59990E+03  3.02998E+02
  2.35878E+03  6.41695E+02  3.56941E+02  1.36998E+03 -1.33647E+03  4.24567E+01 -7.38495E+01 -1.00328E+03
  1.06387E+03  6.98786E+02  1.36230E+03  4.26787E+02  7.91170E+02  1.05875E+03  5.83690E+02  1.41032E+03
 -1.41200E+03  1.30217E+03 -2.06964E+03  2.20242E+02 -2.07858E+03 -1.67962E+03 -2.92852E+02 -3.07938E+03
  1.73221E+03 -2.09934E+03  3.02008E+03 -6.29640E+02  2.93704E+03  3.88911E+00  1.08223E+03  2.37435E+03
 -3.28165E+02  1.73833E+03 -8.72154E+02  2.58345E+03 -1.23088E+03  1.80868E+03 -1.69427E+03  1.00675E+02
 -1.49480E+03 -2.13836E+02 -1.08781E+03  5.40870E+02 -1.41676E+03  3.40574E+02 -1.49268E+03 -2.68028E+02
 -2.31970E+03 -9.94212E+02 -3.31138E+02 -2.44441E+03  1.10822E+03 -3.49303E+03  2.54344E+03 -1.36799E+03
  2.31967E+03  4.22124E+02  4.53982E+02  1.59209E+03 -3.98847E+02  2.08820E+03 -7.59014E+02  1.65402E+03
