 $NMID ID='MM_0lb_SNR400_19hz_g60_2.RAW', FMTDAT='(8E13.5)'
 TRAMP=1., VOLUME=1. $END
  3.09916E+05  4.23029E+02  3.37658E+05  2.50834E+05  8.44008E+04  3.37605E+05 -1.32299E+05  2.51098E+05
 -1.90447E+05  8.21807E+04 -1.11488E+05 -3.28478E+04  6.88045E+02 -5.10258E+04  5.37240E+04  7.69229E+01
  3.49479E+04  5.31812E+04 -1.63400E+04  7.52821E+04 -6.03465E+04  6.31399E+04 -8.39909E+04  3.18088E+04
 -8.02499E+04 -1.17390E+04 -5.65415E+04 -5.10998E+04 -1.51758E+04 -6.92629E+04  2.72788E+04 -4.55525E+04
  3.96661E+04  3.90138E+03  1.53894E+04  4.78760E+04 -3.43231E+04  4.68291E+04 -6.63067E+04 -6.65707E+02
 -5.30564E+04 -5.67132E+04 -7.01693E+03 -7.57415E+04  3.34312E+04 -5.41382E+04  4.78610E+04 -1.62532E+04
  4.23285E+04  1.11928E+04  3.10888E+04  2.42853E+04  1.59415E+04  2.90763E+04 -4.68386E+03  2.74172E+04
 -2.27639E+04  1.27324E+04 -1.85350E+04 -4.85815E+03  5.17485E+03 -7.06998E+03  2.19279E+04  1.19734E+04
  6.76669E+03  3.43705E+04 -3.18415E+04  3.48647E+04 -6.24078E+04  2.31083E+03 -5.64360E+04 -4.22213E+04
 -1.23364E+04 -6.18580E+04  3.88490E+04 -4.48734E+04  5.66328E+04 -1.97444E+03  3.31491E+04  3.17607E+04
 -6.21600E+03  3.48724E+04 -2.94948E+04  1.46274E+04 -2.85378E+04 -5.12946E+03 -1.51464E+04 -1.01290E+04
 -7.30074E+03 -1.23850E+04 -8.09982E+02 -1.70915E+04  7.57164E+03 -2.26843E+04  1.51561E+04 -1.38464E+04
  1.16439E+04  4.74569E+03 -7.25826E+03  1.27504E+04 -1.98768E+04 -2.91513E+03 -8.07737E+03 -3.14904E+04
  2.19840E+04 -4.15990E+04  4.58018E+04 -1.90819E+04  4.31560E+04  1.87217E+04  1.52257E+04  4.28497E+04
 -1.53219E+04  3.21132E+04 -2.41688E+04  7.97243E+02 -9.01649E+03 -2.68794E+04  2.07976E+04 -3.20745E+04
  3.94586E+04 -7.56224E+03  3.28654E+04  2.30849E+04  1.67469E+04  4.38747E+04 -7.99398E+03  4.69370E+04
 -2.94899E+04  3.16037E+04 -3.84216E+04  8.73994E+03 -4.05840E+04 -1.58225E+04 -2.22335E+04 -3.62184E+04
  7.21690E+03 -3.58561E+04  2.96888E+04 -1.33348E+04  2.77462E+04  1.03678E+04  3.47498E+03  1.87844E+04
 -1.31993E+04  7.96588E+03 -9.60471E+03 -7.38878E+03  5.81670E+03 -1.03046E+04  1.78355E+04  6.36111E+03
  1.26497E+04  2.17729E+04 -6.46853E+03  2.38736E+04 -2.16604E+04  1.03034E+04 -2.63496E+04 -5.62673E+03
 -1.85118E+04 -1.67868E+04 -6.35664E+03 -1.82576E+04  4.15786E+03 -1.60960E+04  1.39516E+04 -1.56949E+04
  2.26833E+04 -1.17573E+04  3.02385E+04  1.67899E+03  2.21592E+04  1.75788E+04  4.54343E+03  3.41502E+04
 -1.63503E+04  2.86019E+04 -2.65666E+04  9.44758E+03 -1.99113E+04 -9.83696E+03 -4.12237E+03 -1.40331E+04
  2.71187E+03 -3.74140E+03 -2.99754E+03  5.48796E+03 -1.42535E+04  5.46023E+03 -1.39625E+04 -5.88890E+03
 -9.52941E+03 -1.65793E+04  4.42599E+03 -2.01558E+04  1.35856E+04 -1.47767E+04  1.56611E+04 -1.33709E+03
  9.83017E+03  1.13137E+04 -1.31776E+03  1.68289E+04 -1.12626E+04  9.42164E+03 -1.63590E+04 -4.19265E+03
 -1.21933E+04 -1.50919E+04 -1.55653E+03 -1.98723E+04  9.18865E+03 -1.62118E+04  1.66391E+04 -7.72268E+03
  1.58166E+04  6.27007E+02  1.12897E+04  4.02554E+03  5.49824E+03  9.36920E+02  8.18721E+03 -1.80597E+03
  1.49605E+04  2.53277E+03  1.54442E+04  1.32020E+04  9.70861E+03  2.56113E+04 -3.02573E+03  2.84086E+04
 -1.67891E+04  2.20737E+04 -2.67798E+04  1.04037E+04 -2.67162E+04 -1.37144E+03 -2.24952E+04 -1.50119E+04
 -1.06840E+04 -2.20489E+04  7.44748E+03 -2.04308E+04  1.85079E+04 -1.16908E+04  1.62208E+04  3.91080E+03
  6.79368E+03  1.15559E+04 -7.43521E+03  1.10655E+04 -1.41598E+04  2.35168E+03 -1.06969E+04 -8.45979E+03
 -6.61007E+01 -1.26743E+04  6.40589E+03 -9.59623E+03  8.69908E+03 -1.05801E+03  1.97487E+03  5.30045E+03
 -5.88841E+03  1.33150E+03 -4.35653E+03 -4.99008E+03  9.58138E+02 -1.07917E+04  8.71820E+03 -1.11362E+04
  1.33073E+04 -5.57639E+03  1.35833E+04  2.45414E+03  1.17768E+04  1.01584E+04  5.71637E+03  1.49480E+04
 -1.89904E+03  1.67886E+04 -1.08103E+04  1.04969E+04 -1.21150E+04  3.31606E+03 -9.02898E+03 -2.19769E+03
 -4.68127E+03 -3.47873E+03 -1.07364E+03  1.33637E+03 -1.84813E+03  1.90405E+03 -4.41607E+03  3.73826E+03
 -8.40477E+03 -8.48984E+02 -8.64110E+03 -7.74987E+03 -3.55010E+03 -1.19739E+04  3.72689E+03 -9.09235E+03
  7.20391E+03 -3.95571E+03  5.71701E+03  1.93500E+03  9.24921E+02  3.36118E+03 -3.70240E+03 -4.50318E+02
 -4.05592E+03 -5.52541E+03 -9.67126E+02 -7.42878E+03  4.23168E+03 -8.28339E+03  1.04946E+04 -4.47621E+03
  1.17603E+04  6.32500E+02  8.69981E+03  7.15714E+03  2.12678E+03  9.21441E+03 -5.07574E+03  9.04190E+03
 -7.42634E+03  2.88986E+03 -4.22730E+03 -1.40892E+03  1.45621E+03 -1.78444E+03  4.62937E+03 -1.16921E+03
  4.11994E+03  2.93972E+03  6.18030E+02  6.04724E+03 -4.78466E+03  6.91862E+03 -8.65466E+03  2.24629E+03
 -5.21464E+03 -4.21099E+03  6.27980E+02 -6.93160E+03  3.48852E+03 -3.20033E+03  3.13302E+03  1.16813E+03
 -1.10509E+02  3.43170E+03 -4.08930E+03  5.24328E+03 -5.31515E+03  2.67934E+03 -4.67114E+03 -1.33224E+03
 -3.14306E+03 -5.84275E+03  1.17246E+03 -7.51219E+03  6.19584E+03 -5.18928E+03  6.74922E+03  6.01053E+02
  4.61086E+03  5.53742E+03 -6.85116E+01  7.37304E+03 -5.12724E+03  4.29137E+03 -5.18974E+03 -2.39178E+02
 -5.87359E+03 -5.16058E+03 -7.89761E+02 -5.38613E+03  2.58746E+03 -4.91357E+03  3.38654E+03 -2.55953E+03
  2.91546E+03 -6.07007E+01  7.48867E+01  1.86102E+03  6.89486E+02 -1.54144E+02  5.03265E+02 -2.35624E+03
  4.18195E+03 -5.48041E+02  5.06213E+03  7.74765E+02  5.93011E+03  3.21452E+03  5.01724E+03  7.40599E+03
 -1.35510E+03  8.96292E+03 -7.69129E+03  7.11427E+03 -1.04462E+04  8.88979E+02 -8.05217E+03 -2.90938E+03
 -4.50047E+03 -6.79174E+03 -5.37298E+02 -5.47017E+03  2.01524E+03 -2.02544E+03  1.92720E+03 -2.03972E+03
  1.17864E+03 -1.77715E+03  2.39102E+03 -2.46942E+03  3.68307E+03 -1.45613E+03  3.91708E+03  2.31483E+02
  5.10720E+03  9.78823E+02  1.10759E+03  3.62520E+03 -1.42523E+03  2.38071E+03 -4.30438E+03  2.93157E+03
 -4.88198E+03 -1.07181E+03 -1.98835E+03 -3.47673E+03  1.60117E+02 -5.77079E+03  3.13691E+03 -4.75142E+03
  4.95509E+03 -3.46348E+03  6.68915E+03  7.94330E+02  4.79517E+03  4.05506E+03  1.58819E+03  5.57877E+03
 -1.81060E+03  5.89819E+03 -3.15433E+03  1.83971E+03 -2.25955E+03 -1.34134E+03 -7.25661E+02 -4.21481E+02
 -4.84173E+02 -3.75317E+02 -1.31463E+03  2.03980E+03 -2.47644E+03  1.36858E+03 -3.71109E+03 -4.35749E+02
 -1.52690E+03 -4.29862E+03  9.07921E+02 -4.40254E+03  2.45067E+03 -4.47145E+03  3.51453E+03 -1.21309E+03
  3.70314E+03  2.29143E+03  1.68513E+03  3.46424E+03 -9.81122E+02  3.87071E+03 -2.10240E+03  2.73362E+03
 -3.49751E+03  6.46049E+02 -3.52269E+03 -2.19517E+03 -2.21380E+02 -2.50072E+03  1.88665E+03 -2.25388E+03
  3.18528E+03 -1.15153E+03  1.95487E+03  7.26660E+02  7.25062E+02  2.08368E+03  1.39181E+03  7.76094E+02
  1.31188E+03  9.64323E+02  7.85347E+02  1.42724E+03  7.92376E+02  1.94100E+03  1.54202E+03  1.40657E+03
 -1.02930E+03  2.13381E+03 -2.91231E+03  4.29238E+03 -2.66357E+03  1.59752E+03 -3.29487E+03 -1.03725E+02
 -1.74923E+03 -3.68802E+03  4.13022E+02 -4.45612E+03  1.64457E+03 -1.90398E+03  2.56268E+03 -1.32925E+03
  1.95846E+03  2.00482E+03  1.58932E+02  1.93352E+03 -6.72087E+02  1.32115E+03 -6.76854E+02 -9.43850E+01
 -1.02358E+03 -1.20124E+03  6.32272E+02 -1.50265E+03  7.63381E+02 -6.10196E+02  1.17926E+03  4.68974E+02
  6.45921E+02  7.93170E+02  6.47226E+02 -7.07677E+02 -1.85026E+02  8.23578E+02  2.22607E+03 -4.64904E+02
  2.55765E+02 -3.67460E+02  2.37506E+03  4.08201E+02  5.36327E+02  2.58638E+03 -4.15007E+02  2.34978E+03
 -1.47144E+03  1.05191E+03 -1.23312E+03  6.38229E+02 -2.71694E+03 -8.34533E+02 -2.70602E+02 -7.33879E+02
  8.42747E+01 -1.48650E+03  1.04892E+03 -3.41297E+02  1.41311E+01  1.14706E+03 -6.43137E+02  8.29017E+02
 -1.84586E+03  1.01070E+03 -1.24782E+03 -1.05051E+03 -8.18584E+02 -1.89771E+03  6.19924E+02 -1.36599E+03
  3.64509E+02 -8.66828E+02  4.83787E+02  9.75642E+02  9.87842E+02 -4.33683E+02  5.49365E+00  1.12724E+03
 -3.09242E+02 -7.32183E+01 -1.15877E+03  9.94906E+01  5.11662E+02 -2.57365E+02  1.75385E+03 -7.54621E+02
  7.42706E+02  2.04175E+02  2.46550E+03  5.90023E+02  1.12156E+03  1.74326E+03 -1.60914E+02  1.74788E+03
 -1.44962E+03  3.48914E+02 -6.86767E+02 -3.82533E+02 -7.57702E+02 -1.06718E+03  1.11286E+02 -3.84537E+02
  1.24413E+03 -8.05692E+02  4.77311E+02  5.94974E+02 -2.82498E+02  1.33832E+03  3.59717E+02  9.95554E+02
 -3.45865E+02  9.12687E+02 -2.51977E+02  4.78614E+02  3.40455E+02  6.01467E+02 -9.29978E+02  6.87597E+01
 -7.45593E+02  1.32753E+03 -1.54668E+03  6.49489E+02 -1.29015E+03  2.10700E+02 -2.24926E+03 -9.69349E+02
 -1.75875E+03 -1.51785E+03  5.00398E+02 -2.96369E+03  9.67138E+02 -2.37130E+03  2.62653E+03 -1.03016E+03
  2.31851E+03 -6.99094E+00  9.24626E+02  1.02036E+03 -7.91827E+02  5.25265E+02 -4.02474E+02  1.24076E+03
 -9.11051E+02  4.32868E+02 -9.00718E+02  6.82962E+01 -5.54630E+02  1.08504E+02 -8.55925E+02  5.63080E+02
 -8.60284E+02 -3.39965E+02 -4.05642E+02  3.25321E+02  1.62992E+02 -5.01982E+02 -8.95601E+02 -8.23295E+02
  1.08962E+03 -7.88041E+02  4.22454E+02  3.54791E+01  1.04648E+03  7.39394E+02 -8.14299E+02  1.36646E+03
 -1.24943E+03  1.55104E+03 -6.09887E+02  5.88730E+02 -8.16279E+02 -4.48287E+02 -1.61150E+03 -9.68948E+02
 -6.61599E+02 -7.76126E+02  9.00219E+01 -1.16959E+03  3.71684E+02 -2.63171E+02  5.98776E+02  1.39041E+01
  1.17068E+03  2.99578E+02  2.09062E+02  4.68557E+02 -2.57760E+02 -6.85028E+01 -3.30389E+01  9.90226E+01
  4.31594E+02  3.42455E+02  7.75354E+01  1.10860E+03  2.19670E+02 -5.00700E+01  5.65702E+02 -1.19427E+01
 -6.03117E+01  6.52221E+02 -7.64962E+02 -2.09628E+02 -5.54083E+02 -1.27024E+02  3.82494E+02 -1.37984E+03
  4.89781E+02 -6.33508E+02  2.53651E+02  8.69810E+02  8.72821E+02 -1.14639E+03  6.16091E+02  7.83313E+02
  3.39225E+02  2.10011E+02 -2.72352E+02  8.13201E+02  1.01055E+02  7.59282E+02  2.88628E+02 -3.57303E+02
 -1.76164E+02 -6.90839E+02 -6.43561E+02  2.68460E+02 -7.69974E+02 -4.71974E+02 -8.35555E+02  1.92178E+02
 -1.06126E+03  7.59819E+01 -4.84107E+02 -5.08272E+02  5.23584E+02 -9.86737E+02  2.74379E+02 -9.29356E+02
 -2.46404E+01  1.12970E+02 -2.84551E+02  2.02772E+02  2.83045E+00  5.42787E+02 -4.67935E+02  9.54821E+02
