 $NMID ID='MM_0lb_SNR400_8hz_g45_24.RAW', FMTDAT='(8E13.5)'
 TRAMP=1., VOLUME=1. $END
  3.10008E+05  7.24531E+02  3.38005E+05  2.50796E+05  8.48739E+04  3.39018E+05 -1.32892E+05  2.51891E+05
 -1.90844E+05  8.34871E+04 -1.13157E+05 -3.18462E+04  3.57015E+00 -5.02582E+04  5.43095E+04 -1.13933E+03
  3.62522E+04  5.26902E+04 -1.67983E+04  7.57437E+04 -6.22765E+04  6.50473E+04 -8.48973E+04  3.23675E+04
 -8.24476E+04 -1.11413E+04 -5.83504E+04 -5.23135E+04 -1.47099E+04 -7.11801E+04  2.82584E+04 -4.68464E+04
  4.08802E+04  4.27745E+03  1.63558E+04  4.81714E+04 -3.45169E+04  4.75994E+04 -6.80421E+04  4.91649E+02
 -5.39149E+04 -5.86946E+04 -6.64863E+03 -7.94033E+04  3.46412E+04 -5.72624E+04  4.93945E+04 -1.85492E+04
  4.57713E+04  1.12384E+04  3.31356E+04  2.65678E+04  1.60182E+04  3.03169E+04 -6.42940E+03  2.74284E+04
 -2.24041E+04  1.21882E+04 -1.71984E+04 -5.37790E+03  7.00511E+03 -6.58700E+03  2.37485E+04  1.32947E+04
  7.56744E+03  3.72247E+04 -3.47697E+04  3.71875E+04 -6.55023E+04  1.71325E+03 -5.90127E+04 -4.45780E+04
 -1.24891E+04 -6.62593E+04  4.28028E+04 -4.76772E+04  6.12989E+04 -2.18608E+03  3.76701E+04  3.45202E+04
 -5.55849E+03  4.03971E+04 -3.15523E+04  1.87028E+04 -3.40624E+04 -3.99557E+03 -2.00452E+04 -1.15885E+04
 -9.64246E+03 -1.48624E+04 -1.71854E+02 -1.94503E+04  8.25989E+03 -2.35826E+04  1.51712E+04 -1.25720E+04
  1.02262E+04  6.63315E+03 -1.07239E+04  1.32247E+04 -2.36197E+04 -7.90664E+03 -8.25405E+03 -3.83222E+04
  2.48057E+04 -4.79599E+04  5.28745E+04 -2.14811E+04  4.87895E+04  2.07317E+04  1.75780E+04  4.74064E+04
 -1.69390E+04  3.59564E+04 -2.85409E+04  2.53339E+03 -1.24395E+04 -2.98301E+04  2.20753E+04 -3.64358E+04
  4.54013E+04 -1.14726E+04  4.02913E+04  2.58594E+04  2.20033E+04  5.23396E+04 -8.09027E+03  5.66741E+04
 -3.63821E+04  3.80509E+04 -4.86138E+04  1.13988E+04 -4.79806E+04 -1.93851E+04 -2.69573E+04 -4.21021E+04
  8.29864E+03 -4.22496E+04  3.50383E+04 -1.76015E+04  3.22859E+04  1.20994E+04  5.22292E+03  2.06890E+04
 -1.40700E+04  9.15930E+03 -1.07114E+04 -7.95160E+03  5.56868E+03 -1.06332E+04  1.81330E+04  5.55916E+03
  1.51192E+04  2.31273E+04 -5.54188E+03  2.76004E+04 -2.38478E+04  1.41403E+04 -3.23627E+04 -3.28985E+03
 -2.49886E+04 -1.82726E+04 -1.25616E+04 -2.58262E+04  4.55301E+03 -2.69125E+04  1.95499E+04 -2.45739E+04
  3.25980E+04 -1.41394E+04  3.84842E+04  5.02063E+03  2.77858E+04  2.51376E+04  4.71523E+03  4.18355E+04
 -2.00530E+04  3.40158E+04 -3.02625E+04  1.13620E+04 -2.20593E+04 -1.03880E+04 -5.46142E+03 -1.25645E+04
  4.42439E+02 -1.15669E+03 -7.69965E+03  8.61434E+03 -2.12136E+04  5.36630E+03 -2.08112E+04 -1.02721E+04
 -1.21905E+04 -2.33542E+04  6.32167E+03 -2.81280E+04  1.89507E+04 -1.97203E+04  2.29949E+04 -2.26769E+03
  1.53195E+04  1.61168E+04 -5.75963E+02  2.38457E+04 -1.70284E+04  1.39813E+04 -2.43789E+04 -5.28411E+03
 -1.79711E+04 -2.14751E+04 -1.85987E+03 -2.79790E+04  1.23609E+04 -2.42306E+04  2.35097E+04 -1.29318E+04
  2.33725E+04 -4.57405E+02  1.64333E+04  5.23821E+03  9.63916E+03  2.27159E+03  1.22571E+04 -2.27492E+03
  2.25207E+04  3.31095E+03  2.64562E+04  1.92403E+04  1.76038E+04  3.88651E+04 -2.81312E+03  4.63417E+04
 -2.52949E+04  3.70433E+04 -4.27481E+04  2.02728E+04 -4.65510E+04 -3.24347E+03 -3.72097E+04 -2.71461E+04
 -1.58315E+04 -3.88059E+04  1.35617E+04 -3.30204E+04  2.90750E+04 -1.57541E+04  2.40563E+04  7.89981E+03
  8.17105E+03  1.87082E+04 -1.28182E+04  1.57986E+04 -2.05471E+04  2.92856E+03 -1.57008E+04 -1.29937E+04
 -9.72489E+02 -1.99823E+04  1.05383E+04 -1.45554E+04  1.35264E+04 -1.76828E+03  3.92889E+03  8.85572E+03
 -9.31524E+03  4.39425E+03 -9.58003E+03 -7.26076E+03 -2.15160E+03 -1.80685E+04  1.17171E+04 -2.04496E+04
  2.39506E+04 -1.18436E+04  2.80282E+04  3.35879E+03  2.37486E+04  1.98671E+04  1.05769E+04  3.08627E+04
 -6.28660E+03  3.15476E+04 -2.17314E+04  2.02518E+04 -2.36071E+04  4.32425E+03 -1.63539E+04 -6.79862E+03
 -6.49133E+03 -7.34300E+03 -3.80624E+02 -1.51045E+02 -2.23874E+03  3.45726E+03 -7.78353E+03  5.44650E+03
 -1.46802E+04 -6.49711E+02 -1.50508E+04 -1.26309E+04 -6.16998E+03 -2.06473E+04  6.43479E+03 -1.62601E+04
  1.23058E+04 -6.76568E+03  9.54041E+03  4.33330E+03 -3.70286E+02  6.22735E+03 -8.42583E+03 -1.16128E+02
 -8.41201E+03 -1.10046E+04 -8.65739E+02 -1.62862E+04  9.82274E+03 -1.71045E+04  2.20135E+04 -8.87114E+03
  2.54012E+04  3.02981E+03  1.75745E+04  1.49193E+04  3.74135E+03  2.00578E+04 -9.94829E+03  1.65706E+04
 -1.34635E+04  3.94021E+03 -7.27804E+03 -3.91431E+03  2.28673E+03 -4.53004E+03  8.56462E+03 -1.62769E+03
  7.89269E+03  7.63142E+03  1.57905E+03  1.34069E+04 -9.76601E+03  1.30510E+04 -1.65318E+04  3.48676E+03
 -1.14363E+04 -8.56160E+03  8.61710E+02 -1.32425E+04  9.53848E+03 -6.66554E+03  1.00936E+04  3.43170E+03
  2.11602E+03  1.12650E+04 -8.83622E+03  1.24497E+04 -1.45073E+04  5.83087E+03 -1.54624E+04 -5.23622E+03
 -8.42448E+03 -1.70580E+04  4.39971E+03 -1.96826E+04  1.65720E+04 -1.14758E+04  1.70198E+04  2.98814E+03
  1.09845E+04  1.39012E+04 -1.77331E+03  1.72378E+04 -1.21337E+04  9.87406E+03 -1.43078E+04 -6.87407E+02
 -1.24835E+04 -1.02810E+04 -2.12339E+03 -1.26657E+04  7.39901E+03 -1.04333E+04  8.61435E+03 -3.36202E+03
  5.02862E+03  2.40266E+03 -1.36575E+03  2.45031E+03 -1.42880E+03 -3.40830E+03  3.15604E+03 -8.86326E+03
  1.25072E+04 -4.71125E+03  1.62856E+04  2.46436E+03  1.66986E+04  1.16641E+04  1.10045E+04  2.24094E+04
 -5.18703E+03  2.58958E+04 -2.07898E+04  1.92374E+04 -2.73151E+04  3.10690E+03 -2.23122E+04 -9.66583E+03
 -1.08601E+04 -1.80974E+04  3.38857E+01 -1.60588E+04  5.51773E+03 -9.05124E+03  4.73054E+03 -5.94980E+03
  4.19854E+03 -3.16853E+03  4.71026E+03 -4.33987E+03  6.59409E+03 -3.12270E+03  7.97724E+03 -1.38605E+03
  1.08499E+04  2.48463E+03  6.24045E+03  9.95543E+03 -2.17914E+03  1.26490E+04 -1.24870E+04  1.00251E+04
 -1.61939E+04 -1.53187E+03 -1.03521E+04 -1.18900E+04 -1.58695E+03 -1.65061E+04  9.03089E+03 -1.72354E+04
  1.88343E+04 -8.93511E+03  2.07294E+04  2.52995E+03  1.47075E+04  1.47302E+04  2.54959E+03  1.84521E+04
 -8.10331E+03  1.59975E+04 -1.19743E+04  5.32696E+03 -9.16010E+03 -1.02925E+03 -3.15596E+03 -2.86822E+03
 -1.84352E+03 -3.73978E+02 -3.34975E+03  3.34135E+03 -7.13783E+03  2.09404E+03 -1.17395E+04 -1.98848E+03
 -8.64505E+03 -1.00026E+04 -4.02247E+02 -1.63927E+04  9.90587E+03 -1.42185E+04  1.62043E+04 -4.78791E+03
  1.54334E+04  7.76718E+03  7.78557E+03  1.36759E+04 -2.64281E+03  1.58111E+04 -1.18410E+04  9.77112E+03
 -1.54355E+04  1.71729E+02 -1.19342E+04 -9.70084E+03 -1.52006E+03 -1.24863E+04  6.54657E+03 -9.87735E+03
  1.08927E+04 -3.25257E+03  7.48302E+03  2.21845E+03  1.90964E+03  4.39493E+03  1.67168E+03  1.83513E+03
  1.98926E+03  1.09973E+03  4.13924E+03  2.52478E+03  5.79808E+03  5.14629E+03  5.05751E+03  8.60495E+03
 -2.49879E+03  1.29979E+04 -1.09283E+04  1.27826E+04 -1.70479E+04  3.86405E+03 -1.71902E+04 -7.79466E+03
 -7.98091E+03 -1.65785E+04  1.96751E+03 -1.81802E+04  1.01105E+04 -1.17156E+04  1.38153E+04 -3.50067E+03
  1.01441E+04  6.25266E+03  2.44955E+03  1.02288E+04 -4.21315E+03  5.82966E+03 -7.03620E+03 -1.22629E+03
 -3.72224E+03 -7.31021E+03  3.64144E+03 -7.85195E+03  6.76247E+03 -3.64422E+03  7.17943E+03  1.52749E+03
  5.28344E+03  3.93977E+03  1.98805E+03  2.97404E+03 -6.11700E+02  1.90329E+03  1.09763E+03 -1.31389E+03
  2.80780E+03 -5.42838E+02  6.90432E+03  2.51324E+03  3.80240E+03  8.69165E+03 -1.66275E+03  1.24649E+04
 -9.51179E+03  8.40468E+03 -1.10309E+04  2.75403E+03 -1.02758E+04 -4.04599E+03 -4.16364E+03 -7.46758E+03
  6.63655E+02 -7.04399E+03  4.03975E+03 -3.17870E+03  3.90017E+03  3.70590E+03 -1.31659E+03  5.77994E+03
 -6.61221E+03  3.52978E+03 -8.83788E+03 -3.66553E+03 -4.64030E+03 -9.11459E+03  1.24186E+03 -9.65759E+03
  5.67321E+03 -6.00346E+03  7.47163E+03 -4.30063E+02  5.44294E+03  2.81760E+03  8.38615E+02  5.42550E+03
 -3.36108E+03  2.02203E+03 -4.02751E+03 -3.45656E+03  2.01541E+03 -6.82177E+03  8.52819E+03 -5.36740E+03
  1.06672E+04  1.15544E+02  1.06349E+04  7.86476E+03  3.92775E+03  1.18300E+04 -4.11628E+03  1.06768E+04
 -8.66681E+03  3.87506E+03 -9.10055E+03 -1.32576E+03 -4.23580E+03 -7.27764E+03  2.13363E+03 -6.52492E+03
  7.53790E+03 -4.18797E+03  6.06225E+03  3.95938E+03  2.07308E+03  5.65237E+03 -1.03212E+03  4.84426E+03
 -2.56037E+03  3.43451E+03 -2.14038E+03  5.71022E+02 -8.38990E+02  6.07063E+02 -1.05629E+03  1.92718E+03
 -3.67733E+03  3.94068E+03 -7.63476E+03  4.77570E+03 -1.16746E+04 -6.16586E+01 -1.38559E+04 -6.89694E+03
 -7.13171E+03 -1.53360E+04  2.90770E+03 -1.74420E+04  1.10237E+04 -1.35086E+04  1.66194E+04 -5.14580E+03
  1.60524E+04  3.60707E+03  9.90662E+03  1.05268E+04  9.50476E+02  1.26895E+04 -4.91527E+03  9.69752E+03
 -6.62510E+03  3.26913E+03 -4.02300E+03 -1.04229E+03 -1.06898E+03 -1.04326E+03 -8.28735E+02 -2.62654E+02
 -1.54641E+03  3.85983E+02 -2.53478E+03 -1.12923E+03 -2.06334E+02 -2.86891E+03  3.63916E+02 -4.21911E+03
  4.83357E+03 -3.42723E+03  7.47210E+03  7.41177E+02  8.74149E+03  5.86466E+03  2.62602E+03  1.25166E+04
 -6.11210E+03  1.43620E+04 -1.36314E+04  8.45165E+03 -1.42681E+04 -1.75347E+03 -1.18284E+04 -8.88367E+03
 -4.79964E+03 -1.29727E+04  3.42853E+03 -1.09988E+04  7.87026E+03 -6.92464E+03  8.80019E+03  1.57587E+02
  4.77706E+03  3.73433E+03 -5.58256E+02  3.38020E+03 -2.10200E+03 -4.27641E+02 -7.22076E+01 -3.13162E+03
  3.72347E+03 -1.82774E+03  5.41004E+03  1.29303E+03  2.84732E+03  4.70780E+03 -7.23319E+02  6.20806E+03
 -5.75653E+03  5.93688E+03 -7.87095E+03  7.30376E+02 -7.90323E+03 -6.11514E+03 -1.91797E+03 -9.94294E+03
  6.59506E+03 -8.76522E+03  9.54316E+03 -2.53827E+03  9.81606E+03  3.46151E+03  5.39349E+03  7.89853E+03
  9.59968E+02  7.38801E+03 -2.64045E+03  6.14063E+03 -4.76864E+03  3.77087E+03 -4.63823E+03 -4.76999E+02
 -2.34768E+03 -3.92033E+02 -2.05564E+03  8.79432E+02 -4.08593E+03  1.81533E+03 -6.42570E+03 -1.75657E+03
 -6.43070E+03 -5.46469E+03 -1.69692E+03 -7.94439E+03  4.10767E+03 -8.85912E+03  6.81493E+03 -4.00392E+03
  8.19423E+03  2.30189E+02  4.08063E+03  6.54209E+03 -3.53969E+02  9.05438E+03 -5.93463E+03  4.73550E+03
