 $NMID ID='MM_0lb_SNR400_14hz_g60_64.RAW', FMTDAT='(8E13.5)'
 TRAMP=1., VOLUME=1. $END
  3.09677E+05  8.22534E+02  3.37343E+05  2.50803E+05  8.44357E+04  3.38029E+05 -1.32436E+05  2.51820E+05
 -1.91141E+05  8.34367E+04 -1.12640E+05 -3.24143E+04  6.67107E+02 -5.09920E+04  5.34996E+04 -1.00211E+02
  3.53925E+04  5.28910E+04 -1.65304E+04  7.56527E+04 -6.04014E+04  6.40788E+04 -8.44310E+04  3.24806E+04
 -8.18615E+04 -1.08276E+04 -5.79236E+04 -5.20107E+04 -1.54203E+04 -7.01024E+04  2.82419E+04 -4.63325E+04
  3.98920E+04  3.93622E+03  1.64451E+04  4.76898E+04 -3.46142E+04  4.81622E+04 -6.77035E+04  9.87168E+00
 -5.44214E+04 -5.67476E+04 -7.10611E+03 -7.85302E+04  3.44646E+04 -5.60182E+04  4.85442E+04 -1.77104E+04
  4.43391E+04  1.16737E+04  3.24917E+04  2.56648E+04  1.59823E+04  3.04163E+04 -4.80226E+03  2.76390E+04
 -2.16789E+04  1.30107E+04 -1.84113E+04 -5.04426E+03  5.96225E+03 -8.03820E+03  2.27884E+04  1.32278E+04
  7.12828E+03  3.61895E+04 -3.27734E+04  3.58447E+04 -6.42981E+04  1.76667E+03 -5.71372E+04 -4.35976E+04
 -1.22528E+04 -6.43273E+04  4.05073E+04 -4.58069E+04  5.97161E+04 -2.30067E+03  3.52077E+04  3.33779E+04
 -5.88509E+03  3.64032E+04 -3.08895E+04  1.68782E+04 -3.08369E+04 -4.32502E+03 -1.82744E+04 -1.13553E+04
 -8.47726E+03 -1.41391E+04 -1.32155E+02 -1.94196E+04  7.55586E+03 -2.32975E+04  1.57715E+04 -1.28398E+04
  1.06508E+04  6.38746E+03 -8.89844E+03  1.26952E+04 -2.21059E+04 -5.28052E+03 -7.99094E+03 -3.53758E+04
  2.36198E+04 -4.39853E+04  4.92891E+04 -2.00839E+04  4.62283E+04  2.00541E+04  1.63544E+04  4.52133E+04
 -1.59436E+04  3.41197E+04 -2.63315E+04  1.62811E+03 -1.07563E+04 -2.83386E+04  2.07197E+04 -3.43383E+04
  4.20127E+04 -1.00837E+04  3.72427E+04  2.41255E+04  1.90835E+04  4.74295E+04 -7.85507E+03  5.22582E+04
 -3.26796E+04  3.49243E+04 -4.36383E+04  1.01248E+04 -4.42166E+04 -1.68364E+04 -2.40273E+04 -3.93750E+04
  7.75557E+03 -3.90414E+04  3.25265E+04 -1.54458E+04  2.99301E+04  1.01461E+04  4.41451E+03  1.97221E+04
 -1.34238E+04  8.38228E+03 -1.07624E+04 -7.03058E+03  5.30663E+03 -1.04973E+04  1.78693E+04  5.92730E+03
  1.39687E+04  2.20254E+04 -4.97092E+03  2.47915E+04 -2.26583E+04  1.25812E+04 -2.89505E+04 -4.80016E+03
 -2.19956E+04 -1.77841E+04 -9.70633E+03 -2.17410E+04  3.77475E+03 -2.11944E+04  1.68675E+04 -1.93079E+04
  2.79686E+04 -1.32660E+04  3.42888E+04  3.65989E+03  2.43572E+04  2.08138E+04  4.40801E+03  3.77308E+04
 -1.82947E+04  3.09335E+04 -2.84463E+04  1.04746E+04 -2.12532E+04 -1.01047E+04 -4.19790E+03 -1.32436E+04
  1.23629E+03 -2.37107E+03 -5.75941E+03  6.92063E+03 -1.70328E+04  4.64783E+03 -1.77311E+04 -7.68433E+03
 -1.07421E+04 -2.05877E+04  5.04670E+03 -2.45291E+04  1.62461E+04 -1.77753E+04  1.91600E+04 -1.69157E+03
  1.23129E+04  1.40223E+04 -1.17265E+03  1.99226E+04 -1.39411E+04  1.16981E+04 -1.98534E+04 -4.90875E+03
 -1.48958E+04 -1.76533E+04 -1.40343E+03 -2.42175E+04  1.05037E+04 -1.97396E+04  2.01506E+04 -1.02771E+04
  1.87243E+04 -6.72821E+01  1.41065E+04  4.46653E+03  6.42333E+03  5.85799E+02  1.04920E+04 -1.75584E+03
  1.89256E+04  2.65861E+03  2.09053E+04  1.58604E+04  1.35480E+04  3.11887E+04 -2.73955E+03  3.69183E+04
 -2.08962E+04  2.94472E+04 -3.44539E+04  1.55415E+04 -3.59196E+04 -2.70304E+03 -3.01015E+04 -2.10510E+04
 -1.23180E+04 -2.98457E+04  1.02439E+04 -2.63981E+04  2.26688E+04 -1.38391E+04  2.16382E+04  6.42071E+03
  7.13846E+03  1.58914E+04 -9.68496E+03  1.28831E+04 -1.75206E+04  2.34064E+03 -1.30565E+04 -1.05186E+04
 -6.92941E+02 -1.69044E+04  8.45826E+03 -1.30171E+04  1.05631E+04 -1.55273E+02  2.35370E+03  7.44097E+03
 -7.56286E+03  2.63937E+03 -6.64554E+03 -5.12638E+03 -6.54018E+02 -1.44646E+04  9.71237E+03 -1.55324E+04
  1.74561E+04 -8.68819E+03  2.04555E+04  3.50029E+03  1.78103E+04  1.43329E+04  8.32232E+03  2.23803E+04
 -3.70780E+03  2.34461E+04 -1.54005E+04  1.49387E+04 -1.70696E+04  3.58763E+03 -1.17091E+04 -3.07022E+03
 -5.75626E+03 -5.45265E+03 -4.57384E+02  7.21607E+02 -1.90468E+03  2.68654E+03 -5.70328E+03  5.17741E+03
 -1.19290E+04 -5.92989E+02 -1.15352E+04 -9.79244E+03 -4.92999E+03 -1.60267E+04  4.63355E+03 -1.25449E+04
  1.01665E+04 -5.32846E+03  7.74349E+03  3.51785E+03 -4.73058E+02  4.34821E+03 -5.29262E+03  2.66222E+02
 -5.90963E+03 -7.82023E+03 -1.22808E+03 -1.12826E+04  6.05937E+03 -1.20148E+04  1.46301E+04 -6.53865E+03
  1.79642E+04  1.26904E+03  1.29788E+04  1.12711E+04  2.27478E+03  1.34438E+04 -7.35933E+03  1.17255E+04
 -8.99807E+03  3.11252E+03 -4.96375E+03 -2.42041E+03  1.67638E+03 -2.92201E+03  6.05989E+03 -1.30426E+03
  6.19965E+03  5.13916E+03  9.15720E+02  9.44277E+03 -6.45139E+03  9.40107E+03 -1.16814E+04  2.94453E+03
 -8.88875E+03 -5.89653E+03  1.78589E+02 -1.03875E+04  5.80328E+03 -4.89979E+03  6.34839E+03  1.94812E+03
  5.82233E+02  6.82903E+03 -5.71746E+03  8.20350E+03 -9.47731E+03  3.97531E+03 -9.07065E+03 -2.55284E+03
 -5.50393E+03 -1.08160E+04  2.18185E+03 -1.22279E+04  1.08080E+04 -8.21841E+03  1.09010E+04  1.42855E+03
  7.40474E+03  9.35850E+03 -8.30629E+02  1.13972E+04 -8.68872E+03  6.66389E+03 -8.95702E+03 -1.12323E+03
 -7.93751E+03 -7.89803E+03 -1.11441E+03 -8.34873E+03  4.12424E+03 -7.12978E+03  4.55734E+03 -2.58179E+03
  4.45440E+03  9.00413E+02 -6.56550E+02  1.63139E+03  3.83850E+02 -2.00775E+03  9.75158E+02 -4.41169E+03
  7.84999E+03 -2.89952E+03  1.06917E+04  9.85011E+02  1.03215E+04  5.92495E+03  7.94022E+03  1.33802E+04
 -2.86155E+03  1.55776E+04 -1.31406E+04  1.13224E+04 -1.69606E+04  2.34842E+03 -1.38659E+04 -5.88435E+03
 -6.64800E+03 -1.13374E+04 -4.13997E+02 -9.07403E+03  3.53404E+03 -5.14253E+03  3.12432E+03 -3.52305E+03
  2.01217E+03 -2.33425E+03  2.82069E+03 -3.58438E+03  5.22040E+03 -2.19787E+03  5.49494E+03 -3.05311E+01
  7.41053E+03  1.77046E+03  3.74411E+03  6.19228E+03 -1.46001E+03  6.26388E+03 -7.46716E+03  6.04819E+03
 -8.97431E+03 -1.17036E+03 -5.04831E+03 -6.05915E+03 -4.54134E+02 -9.90528E+03  5.51541E+03 -9.49935E+03
  1.01798E+04 -5.80302E+03  1.26794E+04  1.21159E+03  8.94206E+03  8.33610E+03  1.05948E+03  1.11114E+04
 -4.35245E+03  9.34999E+03 -6.89502E+03  3.60241E+03 -2.99150E+03 -2.21089E+03 -1.71998E+03 -1.86075E+03
 -1.39690E+03  4.19506E+02 -1.63375E+03  2.42545E+03 -4.06720E+03  1.89913E+03 -7.54974E+03 -6.55774E+02
 -4.16503E+03 -6.87454E+03  8.30043E+02 -9.17569E+03  5.78481E+03 -8.54648E+03  7.79518E+03 -2.16531E+03
  8.44750E+03  4.74651E+03  3.52932E+03  6.72755E+03 -1.86271E+03  8.87581E+03 -5.72566E+03  5.16933E+03
 -7.85708E+03  7.55333E+02 -6.72345E+03 -4.85484E+03  4.99454E+01 -7.15941E+03  4.21387E+03 -5.30973E+03
  6.02861E+03 -1.84602E+03  2.98993E+03  1.84633E+03  6.76968E+02  2.47094E+03  8.72723E+02  8.68941E+02
  1.66362E+03  1.34374E+03  1.27899E+03  1.56573E+03  2.59444E+03  3.99723E+03  2.52111E+03  4.10284E+03
 -1.62612E+03  6.55345E+03 -6.43031E+03  6.78900E+03 -8.24422E+03  1.45018E+03 -8.07265E+03 -2.54614E+03
 -4.07489E+03 -8.46765E+03  1.36738E+03 -9.35225E+03  4.43429E+03 -5.45231E+03  6.83768E+03 -9.11947E+02
  5.45933E+03  2.94559E+03  7.17517E+02  4.45178E+03 -1.78581E+03  2.85632E+03 -3.45923E+03 -3.42416E+02
 -1.72508E+03 -3.13755E+03  1.93552E+03 -3.20453E+03  3.35717E+03 -1.96171E+03  3.44941E+03  1.77087E+02
  2.31315E+03  1.34700E+03  1.49632E+03  9.77763E+02 -2.55800E+02  1.76299E+03  1.68957E+03 -3.34430E+02
  1.39400E+03 -3.77718E+02  3.60163E+03  1.59013E+03  9.85624E+02  4.34692E+03 -1.13664E+03  5.74852E+03
 -3.78270E+03  3.21612E+03 -4.43422E+03  1.53815E+03 -4.31603E+03 -1.70667E+03 -1.40893E+03 -3.84852E+03
  7.08773E+02 -3.44003E+03  2.38610E+03 -2.13345E+03  1.43646E+03  1.48449E+03 -1.17000E+03  2.81056E+03
 -2.92195E+03  1.74971E+03 -3.64119E+03 -1.78722E+03 -1.71180E+03 -4.10397E+03  1.18738E+03 -3.61595E+03
  1.48626E+03 -1.92528E+03  2.10915E+03 -2.20427E+02  2.62681E+03  1.22903E+03  2.09518E+02  2.18342E+03
 -8.46017E+02  9.22337E+02 -2.39800E+03 -6.36191E+02  6.33581E+02 -3.07350E+03  3.66047E+03 -2.62602E+03
  3.74894E+03  4.22534E+02  5.19901E+03  2.24904E+03  2.65602E+03  4.77345E+03 -1.46701E+03  3.95674E+03
 -3.68500E+03  1.70914E+03 -3.23627E+03 -2.16994E+02 -1.94884E+03 -3.18517E+03  2.83995E+02 -2.81443E+03
  3.02090E+03 -7.49875E+02  2.56151E+03  2.00766E+03  1.43031E+03  2.45874E+03 -4.49447E+02  2.16198E+03
 -9.52496E+02  2.40224E+03 -4.71610E+02  3.29321E+02  4.71786E+01 -1.42002E+02 -1.68576E+03  1.30016E+03
 -1.19505E+03  2.39223E+03 -3.27270E+03  1.24068E+03 -4.65018E+03  6.22921E+02 -4.95078E+03 -2.45581E+03
 -2.54775E+03 -5.34563E+03  1.88134E+03 -6.30417E+03  3.89217E+03 -5.23865E+03  6.43220E+03 -2.09751E+03
  5.28725E+03  1.03725E+03  3.23350E+03  4.55018E+03 -3.01697E+02  5.04641E+03 -1.90908E+03  3.32821E+03
 -2.71001E+03  1.61477E+03 -1.49082E+03 -1.81028E+02 -6.83149E+02  1.03789E+02 -5.59259E+02 -2.46088E+02
 -1.53299E+03 -5.17997E+01 -1.32382E+03 -3.64769E+02  4.19243E+02 -1.62133E+03 -8.20596E+01 -1.67855E+03
  2.29882E+03 -1.72792E+03  1.71175E+03 -1.27440E+02  2.83123E+03  2.09413E+03  2.67880E+02  3.99963E+03
 -2.68956E+03  4.92557E+03 -4.10531E+03  2.93996E+03 -4.86922E+03 -2.64886E+02 -3.26686E+03 -2.58575E+03
 -1.79758E+03 -3.78309E+03  8.13671E+02 -3.73629E+03  2.60100E+03 -2.38757E+03  2.15251E+03 -1.07319E+02
  1.77296E+03  1.00621E+03  5.77787E+01  1.35962E+03 -4.50085E+02  3.77817E+02  9.75915E+01 -6.09954E+02
  1.15607E+03 -1.66066E+02  1.56922E+03  3.01570E+01  9.30762E+02  1.48743E+03  3.43245E+02  2.34658E+03
 -1.18243E+03  1.94456E+03 -2.32419E+03  1.94782E+02 -1.46308E+03 -9.80880E+02 -1.16843E+02 -2.82357E+03
  2.08881E+03 -2.41349E+03  2.00343E+03 -3.18602E+02  2.69564E+03  1.94523E+02  1.75759E+03  2.59860E+03
  6.59719E+02  2.33162E+03 -4.57266E+02  2.14134E+03 -1.36836E+03  8.26352E+02 -1.00484E+03  3.86041E+02
 -9.50231E+02  1.71808E+02 -7.37033E+02  2.40989E+02 -1.49104E+03  7.48078E+02 -2.37289E+03 -1.69282E+02
 -1.76282E+03 -5.85762E+02 -1.01188E+03 -2.43723E+03  8.22397E+02 -2.75620E+03  2.48242E+03 -1.09912E+03
  2.36337E+03  2.39521E+02  8.36445E+02  8.04943E+02 -4.73193E+02  2.62950E+03 -1.74155E+03  1.61287E+03
