 $NMID ID='MM_0lb_SNR400_19hz_g45_49.RAW', FMTDAT='(8E13.5)'
 TRAMP=1., VOLUME=1. $END
  3.09854E+05  9.90432E+02  3.36924E+05  2.50262E+05  8.40899E+04  3.37510E+05 -1.32581E+05  2.50116E+05
 -1.89790E+05  8.25876E+04 -1.10822E+05 -3.23009E+04  1.88567E+03 -5.06190E+04  5.38711E+04  2.46249E+02
  3.50082E+04  5.27614E+04 -1.71643E+04  7.51239E+04 -6.02079E+04  6.25687E+04 -8.26262E+04  3.12510E+04
 -7.91080E+04 -1.16242E+04 -5.58788E+04 -5.00160E+04 -1.44823E+04 -6.84571E+04  2.68243E+04 -4.43736E+04
  3.87807E+04  4.22931E+03  1.53043E+04  4.74758E+04 -3.37559E+04  4.61597E+04 -6.51643E+04 -1.07346E+03
 -5.18093E+04 -5.59899E+04 -5.62982E+03 -7.47410E+04  3.31555E+04 -5.29953E+04  4.57008E+04 -1.57452E+04
  4.13444E+04  1.12848E+04  3.10973E+04  2.35530E+04  1.60305E+04  2.76037E+04 -4.58995E+03  2.64488E+04
 -2.16486E+04  1.29256E+04 -1.87888E+04 -3.65764E+03  4.42357E+03 -7.30745E+03  2.12732E+04  1.07765E+04
  7.83709E+03  3.31656E+04 -3.02198E+04  3.38672E+04 -6.07732E+04  2.15460E+03 -5.47822E+04 -4.11067E+04
 -1.20336E+04 -6.03478E+04  3.83084E+04 -4.29752E+04  5.50553E+04 -2.25725E+03  3.09924E+04  3.01439E+04
 -6.92766E+03  3.21686E+04 -2.81594E+04  1.33694E+04 -2.70255E+04 -5.76655E+03 -1.41277E+04 -9.92628E+03
 -7.72174E+03 -1.07906E+04 -1.28288E+03 -1.62970E+04  6.39746E+03 -2.23796E+04  1.51447E+04 -1.39564E+04
  1.24140E+04  3.97249E+03 -6.09159E+03  1.29226E+04 -1.92293E+04 -2.31107E+03 -8.29096E+03 -3.04099E+04
  2.10797E+04 -4.03143E+04  4.40854E+04 -1.82042E+04  4.15070E+04  1.77719E+04  1.39407E+04  4.14349E+04
 -1.53125E+04  3.06827E+04 -2.30815E+04  1.29329E+03 -8.22198E+03 -2.59296E+04  2.02678E+04 -3.07969E+04
  3.74582E+04 -6.90815E+03  3.10366E+04  2.26419E+04  1.49296E+04  4.17762E+04 -7.96385E+03  4.46559E+04
 -2.75575E+04  2.90942E+04 -3.62755E+04  8.21209E+03 -3.74747E+04 -1.46292E+04 -2.12128E+04 -3.42318E+04
  7.13986E+03 -3.34153E+04  2.88592E+04 -1.20379E+04  2.60628E+04  1.06354E+04  2.37457E+03  1.76735E+04
 -1.29504E+04  7.03562E+03 -9.03873E+03 -7.85505E+03  6.12056E+03 -1.02379E+04  1.69184E+04  6.88736E+03
  1.19792E+04  2.15195E+04 -6.76385E+03  2.34112E+04 -2.12286E+04  9.38910E+03 -2.43266E+04 -6.84769E+03
 -1.61814E+04 -1.61539E+04 -5.24523E+03 -1.63481E+04  3.81902E+03 -1.39192E+04  1.18897E+04 -1.42849E+04
  2.01181E+04 -1.14256E+04  2.77519E+04  6.04445E+02  2.05316E+04  1.58369E+04  4.36778E+03  3.15084E+04
 -1.58533E+04  2.73747E+04 -2.55995E+04  9.10682E+03 -1.99203E+04 -1.06176E+04 -3.87992E+03 -1.33392E+04
  2.83683E+03 -4.53629E+03 -2.53574E+03  5.38988E+03 -1.28411E+04  5.25459E+03 -1.30014E+04 -4.86166E+03
 -8.01480E+03 -1.51712E+04  4.56704E+03 -1.93077E+04  1.22079E+04 -1.36413E+04  1.42132E+04 -1.39795E+03
  9.12602E+03  1.04651E+04 -1.13792E+03  1.49271E+04 -1.01257E+04  8.46327E+03 -1.51715E+04 -3.32634E+03
 -1.10268E+04 -1.38337E+04 -1.61218E+03 -1.87142E+04  8.79505E+03 -1.50763E+04  1.55411E+04 -6.74899E+03
  1.40220E+04  9.38616E+02  1.03522E+04  3.45468E+03  5.17380E+03  3.09149E+02  7.48538E+03 -1.50116E+03
  1.31873E+04  2.59579E+03  1.38431E+04  1.22454E+04  8.52701E+03  2.42442E+04 -3.40310E+03  2.58998E+04
 -1.54270E+04  1.92685E+04 -2.38841E+04  8.72043E+03 -2.34081E+04 -1.33798E+03 -2.04140E+04 -1.33959E+04
 -9.63034E+03 -1.90270E+04  5.99898E+03 -1.85295E+04  1.58527E+04 -1.08081E+04  1.54845E+04  3.15170E+03
  6.62189E+03  1.05247E+04 -6.18010E+03  1.03773E+04 -1.32087E+04  2.82743E+03 -1.02372E+04 -8.03199E+03
  8.15043E+01 -1.19687E+04  5.72591E+03 -9.15612E+03  7.59197E+03 -1.54700E+03  1.59559E+03  4.96656E+03
 -5.35807E+03  1.29899E+03 -3.00895E+03 -3.72318E+03  1.22538E+03 -9.61565E+03  7.58457E+03 -9.62757E+03
  1.13871E+04 -4.47299E+03  1.11433E+04  2.46343E+03  9.95269E+03  9.05305E+03  4.56312E+03  1.30717E+04
 -1.27503E+03  1.51081E+04 -9.10764E+03  9.31686E+03 -1.00094E+04  2.96389E+03 -7.82641E+03 -1.75250E+03
 -4.70127E+03 -3.26732E+03 -9.54465E+02  1.36394E+03 -2.21220E+03  1.43095E+03 -3.44567E+03  3.54897E+03
 -7.60476E+03 -1.66321E+02 -8.69575E+03 -6.83369E+03 -3.80177E+03 -1.11136E+04  3.36583E+03 -8.17471E+03
  6.85842E+03 -2.85966E+03  5.50446E+03  1.19863E+03  9.04070E+02  2.66832E+03 -3.27641E+03 -4.87412E+02
 -3.46794E+03 -4.77848E+03  4.97066E+01 -6.44207E+03  3.83509E+03 -7.38433E+03  9.37354E+03 -3.53513E+03
  1.10436E+04  5.52582E+02  7.87681E+03  6.16933E+03  1.71944E+03  7.91508E+03 -5.16442E+03  8.05922E+03
 -6.12883E+03  2.97851E+03 -3.82827E+03 -1.24990E+03  1.21093E+03 -1.58780E+03  4.85516E+03 -1.00619E+03
  3.82081E+03  3.29835E+03  7.29967E+02  6.01599E+03 -4.50389E+03  6.11848E+03 -7.59421E+03  1.50851E+03
 -4.54908E+03 -3.37660E+03  2.60639E+02 -6.83014E+03  3.34064E+03 -2.93149E+03  3.14985E+03  1.60804E+03
  4.55962E+00  2.91982E+03 -3.81614E+03  4.58405E+03 -5.00742E+03  2.15111E+03 -4.19527E+03 -1.15149E+03
 -2.42985E+03 -5.27219E+03  1.07015E+03 -6.66906E+03  5.44904E+03 -4.51753E+03  5.78733E+03  8.40637E+02
  4.22641E+03  4.94261E+03 -2.06152E+02  6.75586E+03 -5.13170E+03  4.38009E+03 -4.69789E+03 -1.11555E+01
 -5.15227E+03 -4.47984E+03 -1.38415E+03 -4.24385E+03  2.52215E+03 -4.65852E+03  2.61950E+03 -3.25668E+03
  2.63721E+03  3.10416E+01  8.19901E+01  9.52465E+02  2.45898E+02 -1.31161E+02 -3.47842E+02 -1.72898E+03
  3.37841E+03 -7.84360E+02  4.80215E+03  4.14431E+02  4.83708E+03  2.56705E+03  5.35771E+03  6.87991E+03
 -1.09374E+03  7.87770E+03 -6.88293E+03  5.62389E+03 -9.33535E+03  7.89173E+02 -6.33827E+03 -2.17187E+03
 -3.44956E+03 -6.17274E+03 -6.64352E+02 -4.90025E+03  2.10373E+03 -2.15364E+03  1.54279E+03 -1.72223E+03
  1.77395E+03 -1.18241E+03  2.06168E+03 -2.32012E+03  3.20567E+03 -1.38698E+03  3.74359E+03  4.54432E+02
  4.17753E+03  1.09973E+03  6.08323E+02  2.92065E+03 -1.00131E+03  2.39953E+03 -4.36710E+03  1.96064E+03
 -4.29634E+03 -1.16495E+03 -1.37186E+03 -3.42355E+03  3.25499E+02 -4.61429E+03  3.10438E+03 -5.40358E+03
  4.22918E+03 -3.08447E+03  6.14639E+03  1.09611E+02  4.64494E+03  3.83438E+03  9.25575E+02  5.98308E+03
 -1.71987E+03  4.89230E+03 -2.94829E+03  2.32649E+03 -1.79910E+03 -4.10309E+02 -3.82307E+01 -2.27509E+02
 -2.85493E+02  6.84170E+02 -4.10981E+02  1.68811E+03 -2.50088E+03  1.38358E+03 -3.51161E+03 -6.58948E+02
 -1.44675E+03 -4.06003E+03  1.07520E+03 -4.02510E+03  1.86884E+03 -4.51487E+03  3.26208E+03 -9.58873E+02
  3.02110E+03  2.01114E+03  1.36679E+03  3.04844E+03 -6.04595E+02  3.97854E+03 -2.06957E+03  2.25776E+03
 -3.14133E+03  2.44799E+02 -3.32872E+03 -1.80481E+03 -1.22613E+02 -2.62276E+03  1.72767E+03 -2.09454E+03
  2.64956E+03 -1.51034E+03  2.16315E+03  4.99544E+02  3.00863E+02  1.89745E+03  9.37529E+02  1.49300E+02
  1.67513E+03  4.08177E+02  1.19251E+03  1.18084E+03  6.87911E+02  2.32290E+03  1.72219E+03  1.28639E+03
 -1.40498E+03  2.55195E+03 -2.07273E+03  3.56657E+03 -2.34413E+03  9.59872E+02 -3.25318E+03  1.69699E+02
 -1.00588E+03 -3.60048E+03  6.28723E+02 -4.79672E+03  1.42811E+03 -2.53021E+03  3.21397E+03 -7.34995E+02
  2.04603E+03  1.69415E+03  1.78983E+02  2.37113E+03 -8.20572E+01  1.06974E+03 -1.03649E+03 -8.57049E+01
 -7.05624E+02 -1.23909E+03  1.24106E+03 -1.48150E+03  1.17044E+03 -8.72899E+02  1.36932E+03  3.57239E+02
  8.37748E+02 -2.05856E+02  8.25924E+02 -3.16857E+02 -3.97175E+02  4.93982E+02  2.16953E+03 -1.39052E+02
  8.01971E+01  1.60339E+02  1.84237E+03  4.48709E+02  3.87354E+02  1.75141E+03 -1.56218E+02  2.73212E+03
 -1.30744E+03  7.52054E+02 -1.61051E+03  7.80250E+01 -1.99083E+03 -6.73766E+02 -2.07006E+02 -6.07380E+02
  6.16304E+01 -1.28640E+03  9.89645E+02 -7.57442E+02  8.94216E+02  1.60659E+03 -4.69784E+02  7.59657E+02
 -9.37738E+02  4.23721E+02 -1.04825E+03 -1.14759E+03 -6.17369E+02 -1.95502E+03  5.76398E+02 -1.50025E+03
  9.42065E+02 -5.93605E+02  6.24139E+02  4.96517E+02  1.02266E+03 -1.51647E+02  2.56027E+02  1.35271E+03
  1.14192E+02 -7.26346E+02 -9.47805E+02  4.46672E+01  7.49518E+02 -7.70265E+02  1.25511E+03 -1.14176E+03
  9.63594E+02 -2.34525E+02  2.86656E+03  3.90784E+02  1.18745E+03  1.19989E+03 -3.18222E+02  1.57147E+03
 -1.51910E+03  6.19948E+01 -1.17434E+03 -7.06605E+01 -6.38980E+02 -1.10385E+03 -2.49539E+02 -9.85368E+02
  1.55857E+03 -2.50996E+02  6.35227E+02  7.22482E+02  1.74721E+02  1.61028E+03 -8.93931E+01  1.17459E+03
  2.59694E+01  1.11863E+03 -1.85084E+02 -6.91134E+02  1.86090E+02  6.01750E+00 -1.29817E+03  5.81217E+02
 -1.05337E+03  7.12814E+02 -1.45420E+03 -2.39342E+02 -8.53632E+02 -2.39823E+02 -2.23947E+03 -8.22096E+02
 -1.00423E+03 -1.69820E+03  2.26952E+02 -2.73412E+03  9.72269E+02 -2.59998E+03  2.57786E+03 -1.33747E+03
  2.05491E+03 -3.74868E+02  7.78931E+02  1.36259E+03 -6.34051E+02  1.27464E+03 -9.52456E+02  5.73422E+02
 -9.06997E+02  2.68543E+02 -7.72293E+02  1.32762E+02 -2.63606E+02  4.88730E+01 -1.03174E+03  3.19080E+02
 -1.50225E+03  2.48337E+02 -9.25571E+02  1.81579E+02 -1.85157E+02 -1.14875E+03 -1.35649E+03 -6.66295E+02
  1.16344E+03 -4.09378E+02  1.08722E+03  5.02949E+02  1.19051E+03  1.26239E+03 -1.21040E+02  1.65941E+03
 -8.85428E+02  2.34302E+03 -1.63662E+03  8.99556E+02 -1.89530E+03  6.50349E+01 -2.26299E+02 -1.46163E+03
 -9.88941E+02 -1.39073E+03 -5.88454E+02 -1.14996E+03  5.51532E+02 -1.16620E+02  6.28828E+02  6.62810E+02
  7.50337E+02  5.19787E+01  1.64643E+02  5.51198E+02 -4.37613E+02  1.30208E+02 -8.26344E+02  4.32113E+02
  7.30217E+02 -9.57584E+01  3.64748E+02  2.88533E+02 -3.80042E+02  3.54790E+02  3.94593E+02  2.32808E+02
 -4.72606E+02  7.34014E+02  4.31460E+01  4.30377E+02 -5.65055E+02 -2.75903E+02  1.24938E+02 -7.14390E+02
  5.67133E+02 -5.73454E+02  6.26587E+02  8.77463E+01  1.22321E+03 -6.24670E+02  1.32049E+02  1.52030E+03
  1.64174E+02  8.48199E+02 -1.72074E+02  2.27342E+02 -7.87739E+02  6.57770E+02 -2.37033E+02  4.66260E+02
  5.22785E+02 -1.00570E+02  4.13067E+00  2.94179E+02 -7.00217E+01 -2.49232E+02 -6.91293E+02 -5.35985E+01
 -1.25537E+03  6.27150E+02 -4.56326E+02 -1.21441E+03  2.20207E+02 -1.30730E+03  6.81730E+02 -3.96030E+02
  8.85304E+01  2.43874E+02 -2.48522E+02  3.03881E+02 -3.78764E+02  7.79920E+02 -7.84283E+02  4.70894E+02
