 $NMID ID='MM_0lb_SNR400_9hz_g60_39.RAW', FMTDAT='(8E13.5)'
 TRAMP=1., VOLUME=1. $END
  3.09759E+05  5.09271E+01  3.37884E+05  2.50042E+05  8.43866E+04  3.39158E+05 -1.33294E+05  2.51903E+05
 -1.90766E+05  8.30310E+04 -1.12702E+05 -3.21798E+04 -3.23165E+02 -5.11077E+04  5.34891E+04  1.82303E+02
  3.50005E+04  5.24869E+04 -1.74771E+04  7.64771E+04 -6.16525E+04  6.40422E+04 -8.58379E+04  3.34186E+04
 -8.28742E+04 -1.22396E+04 -5.76462E+04 -5.29795E+04 -1.51480E+04 -7.11021E+04  2.88646E+04 -4.66036E+04
  4.15202E+04  3.86952E+03  1.73014E+04  4.85713E+04 -3.49504E+04  4.80780E+04 -6.82736E+04  5.68570E+02
 -5.55550E+04 -5.91473E+04 -7.06996E+03 -7.92377E+04  3.43620E+04 -5.77935E+04  4.98349E+04 -1.82102E+04
  4.55887E+04  1.17221E+04  3.41443E+04  2.69341E+04  1.59988E+04  3.06327E+04 -5.31545E+03  2.84607E+04
 -2.32859E+04  1.25423E+04 -1.77223E+04 -5.09228E+03  6.83429E+03 -6.83976E+03  2.40173E+04  1.37815E+04
  6.76479E+03  3.74908E+04 -3.39135E+04  3.71486E+04 -6.71456E+04  1.90893E+03 -5.97497E+04 -4.53724E+04
 -1.30598E+04 -6.65045E+04  4.23140E+04 -4.83585E+04  6.12623E+04 -2.94943E+03  3.74135E+04  3.54494E+04
 -4.36572E+03  4.04691E+04 -3.20190E+04  1.96485E+04 -3.36577E+04 -3.51910E+03 -1.96095E+04 -1.24803E+04
 -9.55279E+03 -1.54361E+04 -1.41216E+02 -2.01093E+04  8.27052E+03 -2.40968E+04  1.57963E+04 -1.22185E+04
  1.02059E+04  6.27014E+03 -1.12694E+04  1.30392E+04 -2.39274E+04 -7.00028E+03 -8.64081E+03 -3.87794E+04
  2.53952E+04 -4.74611E+04  5.30428E+04 -2.09201E+04  5.00122E+04  2.17355E+04  1.77808E+04  4.77576E+04
 -1.75362E+04  3.69598E+04 -2.85304E+04  3.23353E+03 -1.19479E+04 -2.99032E+04  2.16827E+04 -3.79690E+04
  4.59711E+04 -1.09775E+04  4.15784E+04  2.53373E+04  2.21355E+04  5.15575E+04 -8.19492E+03  5.78123E+04
 -3.56835E+04  3.98546E+04 -4.89108E+04  1.24053E+04 -4.85289E+04 -1.92983E+04 -2.65493E+04 -4.34140E+04
  8.08749E+03 -4.27586E+04  3.58368E+04 -1.72885E+04  3.24662E+04  1.08514E+04  4.90371E+03  2.17224E+04
 -1.38708E+04  1.02310E+04 -1.13729E+04 -7.47337E+03  5.03151E+03 -1.17290E+04  1.87432E+04  5.06541E+03
  1.55084E+04  2.24817E+04 -4.65350E+03  2.75967E+04 -2.43401E+04  1.57052E+04 -3.18545E+04 -2.59998E+03
 -2.59687E+04 -1.81821E+04 -1.38351E+04 -2.66224E+04  4.10870E+03 -2.72160E+04  2.11323E+04 -2.42541E+04
  3.38141E+04 -1.43867E+04  3.85959E+04  5.27190E+03  2.73984E+04  2.50114E+04  4.43206E+03  4.16883E+04
 -2.06993E+04  3.47060E+04 -3.08402E+04  1.20040E+04 -2.29030E+04 -9.76568E+03 -5.30657E+03 -1.22598E+04
  8.41230E+02  2.98622E+01 -7.74872E+03  8.58151E+03 -2.09951E+04  5.18613E+03 -2.08608E+04 -1.01977E+04
 -1.17595E+04 -2.34840E+04  6.45908E+03 -2.93276E+04  1.96679E+04 -2.04977E+04  2.38134E+04 -2.12658E+03
  1.52468E+04  1.66077E+04 -1.68330E+03  2.41501E+04 -1.70858E+04  1.31500E+04 -2.48572E+04 -4.81886E+03
 -1.81575E+04 -2.19726E+04 -2.16643E+03 -2.90115E+04  1.27466E+04 -2.41628E+04  2.37475E+04 -1.20517E+04
  2.32205E+04 -9.13350E+02  1.64815E+04  5.36328E+03  8.47229E+03  1.85823E+03  1.28672E+04 -2.40014E+03
  2.34548E+04  3.21129E+03  2.62641E+04  1.81580E+04  1.82166E+04  3.97496E+04 -3.00775E+03  4.69114E+04
 -2.61610E+04  3.86686E+04 -4.41221E+04  1.97898E+04 -4.66410E+04 -3.50254E+03 -3.88041E+04 -2.69412E+04
 -1.46815E+04 -3.99498E+04  1.37167E+04 -3.44185E+04  2.94657E+04 -1.56828E+04  2.59397E+04  8.82878E+03
  8.50674E+03  1.95631E+04 -1.26458E+04  1.64583E+04 -2.18515E+04  2.92882E+03 -1.60502E+04 -1.34830E+04
  1.38996E+02 -2.05049E+04  1.08317E+04 -1.44753E+04  1.39791E+04 -1.36866E+03  3.59566E+03  9.26568E+03
 -8.09180E+03  4.58418E+03 -9.71914E+03 -6.64429E+03 -2.58587E+03 -1.78104E+04  1.23174E+04 -2.03103E+04
  2.38029E+04 -1.13662E+04  2.78661E+04  4.20207E+03  2.55174E+04  1.95515E+04  1.11376E+04  3.16355E+04
 -5.94470E+03  3.33895E+04 -2.15957E+04  2.00128E+04 -2.43794E+04  4.00399E+03 -1.65499E+04 -6.35273E+03
 -6.65276E+03 -7.85818E+03 -2.97136E+02  7.11086E+02 -2.26393E+03  3.42595E+03 -6.76753E+03  5.17225E+03
 -1.51878E+04 -6.97952E+02 -1.60702E+04 -1.18769E+04 -7.10791E+03 -2.03452E+04  6.29911E+03 -1.64918E+04
  1.43402E+04 -6.47570E+03  9.54214E+03  3.85829E+03 -5.72970E+02  7.22844E+03 -7.80967E+03 -3.46724E+02
 -7.78437E+03 -1.07467E+04 -1.70617E+03 -1.66525E+04  1.02157E+04 -1.73353E+04  2.17318E+04 -1.03264E+04
  2.47342E+04  3.72557E+03  1.78699E+04  1.53178E+04  2.35565E+03  2.10973E+04 -9.92022E+03  1.63163E+04
 -1.31707E+04  4.69417E+03 -6.50247E+03 -4.10543E+03  2.21258E+03 -4.37101E+03  9.99233E+03 -1.09292E+03
  7.61744E+03  8.02814E+03  7.66372E+02  1.30324E+04 -9.68683E+03  1.34145E+04 -1.64540E+04  2.46835E+03
 -1.22870E+04 -8.90022E+03  4.03106E+02 -1.43632E+04  9.83017E+03 -7.46072E+03  1.03976E+04  3.32542E+03
  2.73871E+03  1.00198E+04 -8.55678E+03  1.22770E+04 -1.46960E+04  5.59210E+03 -1.49595E+04 -5.68393E+03
 -8.65195E+03 -1.70464E+04  3.73589E+03 -1.92009E+04  1.63736E+04 -1.10603E+04  1.73265E+04  2.48673E+03
  1.04010E+04  1.38858E+04 -1.72722E+03  1.73027E+04 -1.17956E+04  1.01825E+04 -1.38999E+04 -1.23094E+03
 -1.13110E+04 -1.12784E+04 -1.90411E+03 -1.28022E+04  7.30067E+03 -1.08403E+04  8.35689E+03 -3.40588E+03
  5.54029E+03  2.32826E+03 -2.12081E+03  2.04372E+03 -5.53224E+02 -2.98128E+03  3.17695E+03 -8.34183E+03
  1.29169E+04 -5.49441E+03  1.72611E+04  2.35878E+03  1.69035E+04  1.17702E+04  1.09127E+04  2.24692E+04
 -5.24643E+03  2.60055E+04 -2.26507E+04  1.87266E+04 -2.73411E+04  3.52850E+03 -2.26551E+04 -9.86113E+03
 -1.08579E+04 -1.89252E+04 -2.74680E+02 -1.60990E+04  6.00202E+03 -9.15583E+03  4.48225E+03 -6.28607E+03
  3.75572E+03 -3.28719E+03  4.46026E+03 -4.18237E+03  6.30710E+03 -4.42846E+03  8.51785E+03 -1.03179E+03
  1.18572E+04  2.63221E+03  7.23795E+03  9.78955E+03 -2.58380E+03  1.24192E+04 -1.27696E+04  8.67089E+03
 -1.55879E+04 -1.63340E+03 -1.12261E+04 -1.10296E+04 -1.14007E+03 -1.70642E+04  9.63564E+03 -1.73266E+04
  1.79877E+04 -9.37351E+03  2.10868E+04  2.93010E+03  1.44123E+04  1.47071E+04  1.29930E+03  1.90245E+04
 -7.94162E+03  1.44319E+04 -1.12208E+04  5.59402E+03 -8.16967E+03 -2.00159E+03 -4.27444E+03 -1.97114E+03
 -1.50585E+03 -1.97923E+02 -2.35441E+03  2.88852E+03 -6.18679E+03  1.87539E+03 -1.08120E+04 -8.08592E+02
 -8.17657E+03 -1.00138E+04  1.84626E+02 -1.67141E+04  1.00264E+04 -1.45202E+04  1.61537E+04 -5.18677E+03
  1.63937E+04  7.43599E+03  7.24218E+03  1.43416E+04 -2.88747E+03  1.61763E+04 -1.14347E+04  9.64132E+03
 -1.50883E+04  1.82840E+02 -1.16515E+04 -9.25626E+03 -9.95747E+02 -1.31291E+04  6.68718E+03 -9.73738E+03
  1.13513E+04 -3.24514E+03  6.87224E+03  3.08487E+03  2.65324E+03  4.82560E+03  1.92969E+03  3.21028E+03
  2.67345E+03  1.46888E+03  3.61755E+03  2.03860E+03  4.81817E+03  5.93811E+03  4.50447E+03  8.09093E+03
 -2.43028E+03  1.28674E+04 -1.09094E+04  1.24895E+04 -1.73199E+04  3.11115E+03 -1.67622E+04 -7.13129E+03
 -8.82240E+03 -1.68485E+04  3.24998E+03 -1.79517E+04  9.28072E+03 -1.20815E+04  1.39875E+04 -3.54252E+03
  1.01683E+04  6.38069E+03  2.35437E+03  1.01050E+04 -4.52372E+03  6.44822E+03 -6.89724E+03 -1.02177E+03
 -4.04480E+03 -7.25443E+03  3.31868E+03 -7.35184E+03  6.82648E+03 -3.33446E+03  6.49547E+03  9.84556E+02
  4.17246E+03  3.07671E+03  1.54427E+03  3.27489E+03 -1.15058E+03  2.10308E+03  1.80550E+03 -1.41912E+03
  2.93376E+03 -8.06613E+02  6.89415E+03  3.86382E+03  4.99365E+03  8.98930E+03 -2.50581E+03  1.18149E+04
 -7.61383E+03  7.98327E+03 -1.03573E+04  1.76670E+03 -8.71705E+03 -3.44906E+03 -3.18190E+03 -6.61407E+03
  1.04786E+03 -6.57583E+03  4.15846E+03 -2.96984E+03  3.66028E+03  3.14844E+03 -1.19389E+03  5.95684E+03
 -7.19294E+03  3.29128E+03 -8.10322E+03 -3.53101E+03 -3.76086E+03 -8.60391E+03  1.50908E+03 -9.15172E+03
  5.63468E+03 -5.57329E+03  6.35781E+03  1.01244E+02  5.62663E+03  2.27628E+03  1.44432E+03  4.77452E+03
 -3.98167E+03  2.05539E+03 -4.96434E+03 -3.54320E+03  1.97369E+03 -7.59130E+03  8.15839E+03 -5.66676E+03
  1.09160E+04  6.46566E+02  9.20467E+03  6.57490E+03  3.58218E+03  1.18209E+04 -4.53171E+03  9.93532E+03
 -9.23700E+03  4.14396E+03 -9.80363E+03 -2.22506E+03 -5.10222E+03 -6.71686E+03  1.94637E+03 -6.83880E+03
  7.05120E+03 -2.71586E+03  6.21751E+03  3.77405E+03  2.26767E+03  6.35687E+03 -9.72803E+02  4.76443E+03
 -2.57576E+03  3.58942E+03 -3.18477E+03  1.19003E+03 -1.75254E+03  8.94321E+02 -1.76789E+03  2.49496E+03
 -2.73207E+03  5.21447E+03 -7.84853E+03  3.98784E+03 -1.05854E+04  3.77900E+02 -1.21551E+04 -8.00660E+03
 -6.53306E+03 -1.43498E+04  2.68537E+03 -1.69114E+04  1.04721E+04 -1.32117E+04  1.58893E+04 -5.13498E+03
  1.48711E+04  3.46440E+03  8.90318E+03  9.97265E+03  9.27948E+02  1.22563E+04 -4.86738E+03  8.01337E+03
 -6.31944E+03  2.89086E+03 -3.67867E+03 -1.62690E+03 -1.13243E+03 -8.18405E+02 -5.70398E+02  2.48653E+01
 -2.26769E+03  2.96024E+02 -1.92047E+03 -6.73335E+01 -6.86915E+02 -2.34961E+03 -5.40945E+02 -4.38466E+03
  4.64518E+03 -4.57520E+03  6.58865E+03 -7.19765E+01  8.21646E+03  5.93704E+03  2.71760E+03  1.13638E+04
 -5.51238E+03  1.30749E+04 -1.14547E+04  7.53070E+03 -1.36008E+04 -9.06321E+02 -1.05539E+04 -8.50118E+03
 -5.34518E+03 -1.17473E+04  2.81540E+03 -1.15503E+04  6.73386E+03 -6.25023E+03  6.97530E+03  1.11669E+03
  4.18837E+03  3.51852E+03 -2.60455E+02  2.84830E+03 -2.03627E+03 -3.94833E+02  9.22143E+02 -1.88055E+03
  4.14515E+03 -1.89950E+03  5.00312E+03  2.10913E+03  2.60011E+03  4.72884E+03  4.32427E+02  5.47612E+03
 -5.02538E+03  5.56193E+03 -7.61526E+03  8.23894E+01 -7.34303E+03 -5.10292E+03 -8.38255E+02 -8.99655E+03
  5.71792E+03 -8.20254E+03  7.91638E+03 -1.72905E+03  9.12523E+03  1.54627E+03  4.82242E+03  7.72679E+03
  1.29185E+03  7.85996E+03 -3.02276E+03  6.06432E+03 -4.73595E+03  2.87435E+03 -4.81088E+03  3.84958E+02
 -2.26924E+03 -9.33661E+02 -1.50399E+03  1.17419E+03 -3.35340E+03  1.27146E+03 -6.29650E+03 -1.34858E+03
 -5.32442E+03 -4.47548E+03 -1.10547E+03 -8.49770E+03  3.66407E+03 -6.95140E+03  6.70160E+03 -3.93931E+03
  7.69560E+03  1.04664E+03  4.61092E+03  4.51513E+03 -1.14242E+03  7.56936E+03 -5.76481E+03  4.93856E+03
