 $NMID ID='MM_0lb_SNR400_11hz_g50_55.RAW', FMTDAT='(8E13.5)'
 TRAMP=1., VOLUME=1. $END
  3.09524E+05  4.32590E+02  3.37879E+05  2.50188E+05  8.47555E+04  3.38097E+05 -1.32839E+05  2.52300E+05
 -1.90368E+05  8.40290E+04 -1.12306E+05 -3.22470E+04 -9.03293E+01 -5.10199E+04  5.34344E+04 -3.12965E+02
  3.54627E+04  5.26534E+04 -1.66622E+04  7.51603E+04 -6.11165E+04  6.41685E+04 -8.51117E+04  3.26203E+04
 -8.22997E+04 -1.09565E+04 -5.76942E+04 -5.26120E+04 -1.54327E+04 -7.12225E+04  2.79639E+04 -4.67018E+04
  3.99525E+04  3.72378E+03  1.64540E+04  4.82716E+04 -3.48747E+04  4.79711E+04 -6.78160E+04 -4.17580E+02
 -5.47956E+04 -5.68484E+04 -7.14361E+03 -7.84765E+04  3.43342E+04 -5.63476E+04  4.89530E+04 -1.81676E+04
  4.49120E+04  1.15722E+04  3.26599E+04  2.57669E+04  1.59349E+04  2.96899E+04 -6.14650E+03  2.71716E+04
 -2.26387E+04  1.29520E+04 -1.88452E+04 -5.31936E+03  7.12607E+03 -7.55815E+03  2.28809E+04  1.30395E+04
  7.58217E+03  3.67491E+04 -3.30533E+04  3.65886E+04 -6.45975E+04  2.22297E+03 -5.82027E+04 -4.32908E+04
 -1.31149E+04 -6.46989E+04  4.05070E+04 -4.65090E+04  6.03512E+04 -2.65208E+03  3.54081E+04  3.37732E+04
 -5.97091E+03  3.77021E+04 -3.08102E+04  1.75342E+04 -3.29589E+04 -4.53763E+03 -1.82192E+04 -1.20792E+04
 -8.42319E+03 -1.43451E+04 -2.45893E+02 -1.89971E+04  8.75007E+03 -2.30375E+04  1.64103E+04 -1.29891E+04
  1.07489E+04  5.70158E+03 -9.85547E+03  1.26671E+04 -2.31037E+04 -5.93282E+03 -8.42803E+03 -3.61460E+04
  2.42711E+04 -4.52361E+04  5.08945E+04 -2.00749E+04  4.68952E+04  2.07626E+04  1.62262E+04  4.55083E+04
 -1.60105E+04  3.52027E+04 -2.72453E+04  2.43845E+03 -1.10082E+04 -2.85389E+04  2.14751E+04 -3.59070E+04
  4.34496E+04 -1.05447E+04  3.83929E+04  2.46438E+04  1.97868E+04  4.93337E+04 -8.30758E+03  5.31946E+04
 -3.36227E+04  3.56701E+04 -4.53571E+04  1.05629E+04 -4.51973E+04 -1.67678E+04 -2.52430E+04 -3.98598E+04
  8.01468E+03 -4.02567E+04  3.31695E+04 -1.61463E+04  3.09300E+04  1.07119E+04  4.64508E+03  2.05562E+04
 -1.37607E+04  8.96041E+03 -1.14242E+04 -8.36309E+03  5.92949E+03 -1.12404E+04  1.89569E+04  5.73228E+03
  1.44169E+04  2.23068E+04 -4.89605E+03  2.62422E+04 -2.25600E+04  1.29280E+04 -3.05025E+04 -4.89068E+03
 -2.35957E+04 -1.83439E+04 -1.04756E+04 -2.29638E+04  3.92492E+03 -2.34863E+04  1.81175E+04 -2.11068E+04
  2.99994E+04 -1.34436E+04  3.62534E+04  4.13620E+03  2.59849E+04  2.32507E+04  4.55822E+03  3.92675E+04
 -1.90741E+04  3.22655E+04 -2.93023E+04  1.13509E+04 -2.16192E+04 -9.56701E+03 -4.50715E+03 -1.26845E+04
  1.54415E+03 -1.63685E+03 -6.92334E+03  7.07588E+03 -1.85223E+04  5.51298E+03 -1.90028E+04 -8.56979E+03
 -1.17578E+04 -2.18360E+04  5.96729E+03 -2.57156E+04  1.76489E+04 -1.84914E+04  2.10727E+04 -1.54728E+03
  1.33020E+04  1.49746E+04 -1.78841E+03  2.16492E+04 -1.51513E+04  1.29457E+04 -2.06119E+04 -4.63277E+03
 -1.68274E+04 -1.94453E+04 -2.55948E+03 -2.56532E+04  1.15385E+04 -2.16293E+04  2.13917E+04 -1.07343E+04
  2.00582E+04 -2.67224E+02  1.46029E+04  4.89892E+03  8.55502E+03  1.71138E+03  1.13206E+04 -1.82758E+03
  1.94882E+04  2.33819E+03  2.36939E+04  1.67185E+04  1.52857E+04  3.41613E+04 -2.41304E+03  4.05855E+04
 -2.29369E+04  3.30847E+04 -3.75577E+04  1.66687E+04 -3.98682E+04 -3.48589E+03 -3.21093E+04 -2.35682E+04
 -1.33743E+04 -3.27836E+04  1.19713E+04 -2.89915E+04  2.53446E+04 -1.44815E+04  2.25471E+04  6.94083E+03
  7.44373E+03  1.62608E+04 -1.01541E+04  1.42529E+04 -1.91200E+04  3.10914E+03 -1.40197E+04 -1.18399E+04
 -4.94309E+02 -1.71307E+04  9.11190E+03 -1.23748E+04  1.21969E+04 -1.18011E+03  2.32729E+03  7.39871E+03
 -7.86692E+03  4.11374E+03 -8.10563E+03 -6.16383E+03 -8.20395E+02 -1.60580E+04  1.06365E+04 -1.75144E+04
  1.99051E+04 -9.99493E+03  2.26209E+04  2.88617E+03  1.97094E+04  1.59586E+04  9.02889E+03  2.49054E+04
 -4.60740E+03  2.69226E+04 -1.84471E+04  1.73465E+04 -1.88640E+04  3.62248E+03 -1.33951E+04 -5.36701E+03
 -6.18467E+03 -6.58321E+03 -2.47764E+02  2.47756E+02 -2.64909E+03  3.38929E+03 -6.05282E+03  4.44878E+03
 -1.19972E+04 -1.05372E+03 -1.32180E+04 -1.08375E+04 -5.66879E+03 -1.75354E+04  5.68148E+03 -1.38197E+04
  1.18608E+04 -5.61258E+03  8.27431E+03  3.18578E+03 -3.93259E+02  4.99457E+03 -6.95405E+03  6.06992E+02
 -6.10744E+03 -9.06843E+03 -9.64502E+02 -1.29590E+04  7.62751E+03 -1.37476E+04  1.75535E+04 -7.86159E+03
  2.05250E+04  2.31871E+03  1.46650E+04  1.19338E+04  2.97715E+03  1.55711E+04 -8.88012E+03  1.36465E+04
 -1.09835E+04  4.10381E+03 -5.50654E+03 -2.92010E+03  2.52815E+03 -3.31301E+03  7.64500E+03 -7.70620E+02
  6.82217E+03  6.00350E+03  1.29189E+03  1.13843E+04 -7.56403E+03  1.03737E+04 -1.37885E+04  2.95385E+03
 -8.95659E+03 -7.29702E+03 -1.23964E+00 -1.13712E+04  7.04543E+03 -6.06562E+03  7.58235E+03  2.57500E+03
  1.68769E+03  8.68078E+03 -7.00683E+03  9.45583E+03 -1.10042E+04  4.89132E+03 -1.06747E+04 -4.15346E+03
 -6.30757E+03 -1.28678E+04  3.00620E+03 -1.52168E+04  1.32470E+04 -8.99396E+03  1.36605E+04  2.96642E+03
  8.10643E+03  1.16198E+04 -9.52353E+02  1.30424E+04 -9.52420E+03  7.73998E+03 -1.12868E+04 -9.40140E+02
 -8.93429E+03 -8.89531E+03 -1.44568E+03 -1.03337E+04  5.54524E+03 -8.29612E+03  5.57685E+03 -3.26485E+03
  3.92870E+03  1.84410E+03 -2.23795E+02  1.23926E+03 -5.82228E+02 -2.31173E+03  2.55120E+03 -6.08258E+03
  9.52108E+03 -3.71753E+03  1.35484E+04  1.81270E+03  1.32121E+04  9.45937E+03  9.07848E+03  1.76502E+04
 -4.33905E+03  1.99453E+04 -1.66504E+04  1.43595E+04 -2.07478E+04  2.83703E+03 -1.81615E+04 -7.36891E+03
 -8.67027E+03 -1.36299E+04 -1.32217E+02 -1.20376E+04  4.35013E+03 -6.21901E+03  4.46177E+03 -4.38963E+03
  3.71105E+03 -2.77145E+03  3.02223E+03 -3.09074E+03  5.00222E+03 -2.71266E+03  7.02614E+03 -7.57139E+02
  9.59349E+03  2.45539E+03  4.09885E+03  6.83172E+03 -2.19553E+03  9.00246E+03 -9.47687E+03  6.98981E+03
 -1.16618E+04 -8.20453E+02 -7.51076E+03 -8.44128E+03 -6.61641E+02 -1.30546E+04  7.32585E+03 -1.31006E+04
  1.28999E+04 -7.21392E+03  1.61259E+04  1.66994E+03  1.08671E+04  1.14449E+04  1.85406E+03  1.51763E+04
 -6.18958E+03  1.21953E+04 -8.87978E+03  4.04771E+03 -5.78750E+03 -1.06032E+03 -1.98275E+03 -1.67500E+03
 -6.59857E+02 -7.73442E+02 -2.09278E+03  3.04841E+03 -5.06846E+03  2.54016E+03 -8.40353E+03 -1.72658E+03
 -4.87107E+03 -8.19089E+03  1.35403E+02 -1.11135E+04  7.16611E+03 -1.06353E+04  1.13637E+04 -3.38902E+03
  1.16792E+04  5.77111E+03  5.19564E+03  1.00810E+04 -2.63503E+03  1.17272E+04 -8.25738E+03  7.20860E+03
 -1.08736E+04  7.34668E+02 -8.25275E+03 -6.67163E+03 -7.86211E+02 -9.97026E+03  5.24183E+03 -6.07360E+03
  7.19252E+03 -2.15840E+03  5.34016E+03  1.94652E+03  1.83463E+03  3.77882E+03  1.04925E+03  1.40429E+03
  2.88283E+03  7.88968E+01  2.60936E+03  2.19155E+03  4.01345E+03  4.21008E+03  2.15022E+03  6.03971E+03
 -3.02048E+03  8.84679E+03 -7.97272E+03  8.94076E+03 -1.18994E+04  3.08527E+03 -1.26237E+04 -4.86902E+03
 -5.98487E+03 -1.17147E+04  1.74201E+03 -1.33302E+04  6.66218E+03 -7.76937E+03  9.21319E+03 -1.92102E+03
  7.29675E+03  4.95338E+03  1.99054E+03  6.96303E+03 -3.44124E+03  4.95788E+03 -4.46973E+03 -5.11821E+02
 -2.12180E+03 -5.28482E+03  2.17678E+03 -5.15207E+03  5.05750E+03 -3.06801E+03  4.05696E+03  1.35881E+03
  3.28800E+03  1.68709E+03  1.06396E+03  1.58064E+03 -1.03527E+03  1.55714E+03  2.09184E+03 -1.37990E+02
  1.75563E+03 -1.44168E+02  4.60202E+03  2.46133E+03  3.11682E+03  6.79045E+03 -7.54972E+02  7.86750E+03
 -5.26076E+03  4.86407E+03 -6.63189E+03  1.43251E+03 -6.82975E+03 -1.78148E+03 -1.23111E+03 -3.92308E+03
  7.72706E+02 -4.53002E+03  3.14440E+03 -2.40005E+03  2.28336E+03  2.87144E+03 -1.16387E+03  3.34012E+03
 -4.66395E+03  1.87026E+03 -5.53731E+03 -2.57025E+03 -3.05381E+03 -6.30867E+03  1.49338E+03 -5.86965E+03
  2.91758E+03 -3.28104E+03  4.60182E+03 -1.60957E+02  4.82192E+03  2.29676E+03  3.25913E+02  3.64331E+03
 -2.15679E+03  1.77285E+03 -2.31336E+03 -1.67523E+03  1.25303E+03 -4.16288E+03  4.82296E+03 -3.65381E+03
  6.73597E+03  1.96694E+02  7.62745E+03  5.25497E+03  2.53586E+03  6.92977E+03 -2.54840E+03  7.07355E+03
 -5.34755E+03  2.94901E+03 -5.77008E+03 -8.71334E+02 -3.20438E+03 -4.78942E+03  1.04737E+03 -4.71932E+03
  4.61282E+03 -1.73245E+03  3.52082E+03  2.17046E+03  1.12256E+03  4.10544E+03 -1.00506E+03  3.22710E+03
 -2.14205E+03  2.20322E+03 -1.73011E+03  1.15703E+03 -7.29756E+02  9.72336E+02 -1.68045E+03  1.16392E+03
 -1.72791E+03  3.44607E+03 -4.49623E+03  2.72269E+03 -6.65115E+03 -2.01552E+02 -8.34906E+03 -4.79779E+03
 -3.92420E+03 -9.69095E+03  1.58003E+03 -1.12802E+04  6.73236E+03 -8.51174E+03  1.00152E+04 -3.45442E+03
  9.37543E+03  1.59067E+03  5.57832E+03  6.73716E+03  7.37457E+02  7.16893E+03 -2.64227E+03  5.54128E+03
 -5.12477E+03  2.16070E+03 -1.89812E+03 -6.50865E+02 -1.19896E+03 -3.11464E+02 -1.84088E+02 -5.18600E+02
 -2.15660E+03  5.86379E+02 -1.35521E+03 -1.23561E+01 -8.21835E+02 -2.27956E+03  3.57966E+02 -2.69198E+03
  3.56626E+03 -2.27089E+03  4.42872E+03 -4.78697E+01  5.23474E+03  3.92943E+03  1.56044E+03  7.56196E+03
 -3.32749E+03  7.61705E+03 -8.33717E+03  4.85153E+03 -8.67314E+03 -9.84645E+02 -6.51449E+03 -5.03980E+03
 -3.05714E+03 -7.38347E+03  1.87205E+03 -7.32978E+03  4.74722E+03 -4.08950E+03  3.87380E+03  4.06261E+02
  2.46523E+03  2.48464E+03 -4.70401E+01  1.76474E+03 -1.07254E+03 -4.73581E+02 -4.86523E+02 -1.56249E+03
  1.95298E+03 -2.98184E+02  3.33012E+03  5.57027E+02  2.60169E+03  3.07909E+03 -1.85121E+02  3.06295E+03
 -3.57882E+03  2.98737E+03 -4.61031E+03  6.54553E+02 -3.81866E+03 -2.71371E+03 -6.48368E+02 -6.71947E+03
  3.22979E+03 -5.30545E+03  5.12264E+03 -1.57519E+03  5.65718E+03  1.09208E+03  3.73688E+03  3.86551E+03
  8.41380E+02  4.73800E+03 -1.91054E+03  4.13702E+03 -2.46054E+03  1.74757E+03 -2.08709E+03  4.18498E+02
 -1.71679E+03 -2.60782E+02 -1.32775E+03  4.16350E+02 -3.08937E+03  6.73476E+02 -3.52880E+03 -3.59986E+02
 -3.46150E+03 -2.37932E+03 -1.21750E+03 -4.59741E+03  2.20799E+03 -5.34538E+03  3.95603E+03 -2.26501E+03
  3.88260E+03  2.89229E+02  2.92074E+03  2.72460E+03  2.07327E+02  4.80589E+03 -3.00485E+03  3.48440E+03
