 $NMID ID='MM_0lb_SNR400_19hz_g45_69.RAW', FMTDAT='(8E13.5)'
 TRAMP=1., VOLUME=1. $END
  3.09845E+05  3.53278E+02  3.37149E+05  2.50338E+05  8.41934E+04  3.37432E+05 -1.32658E+05  2.50311E+05
 -1.89546E+05  8.21631E+04 -1.10659E+05 -3.28636E+04  1.43905E+03 -5.01618E+04  5.46428E+04  1.29596E+02
  3.53021E+04  5.29119E+04 -1.66683E+04  7.43885E+04 -6.01693E+04  6.28380E+04 -8.29420E+04  3.13531E+04
 -7.93084E+04 -1.17384E+04 -5.67025E+04 -5.03751E+04 -1.50614E+04 -6.80420E+04  2.64022E+04 -4.49027E+04
  3.92956E+04  4.20315E+03  1.53950E+04  4.67010E+04 -3.36673E+04  4.65674E+04 -6.50358E+04 -5.18416E+02
 -5.20213E+04 -5.56617E+04 -5.52634E+03 -7.56889E+04  3.27325E+04 -5.23644E+04  4.59152E+04 -1.63996E+04
  4.18530E+04  1.18894E+04  3.06052E+04  2.47699E+04  1.55505E+04  2.81126E+04 -4.63337E+03  2.66931E+04
 -2.12740E+04  1.27809E+04 -1.90730E+04 -3.97105E+03  4.30303E+03 -7.86684E+03  2.09950E+04  1.08126E+04
  7.90449E+03  3.24841E+04 -3.01214E+04  3.38698E+04 -6.06129E+04  2.13681E+03 -5.47633E+04 -4.04804E+04
 -1.19213E+04 -6.04042E+04  3.83619E+04 -4.28643E+04  5.56382E+04 -1.95583E+03  3.13840E+04  2.99627E+04
 -6.74945E+03  3.28464E+04 -2.80461E+04  1.30512E+04 -2.75160E+04 -4.92513E+03 -1.38659E+04 -9.81266E+03
 -7.41454E+03 -1.10608E+04 -1.14183E+03 -1.56276E+04  6.46433E+03 -2.30808E+04  1.48108E+04 -1.44849E+04
  1.23985E+04  4.10759E+03 -6.73147E+03  1.34601E+04 -1.89840E+04 -2.44708E+03 -8.37020E+03 -2.94555E+04
  2.01893E+04 -4.02202E+04  4.39748E+04 -1.80135E+04  4.23665E+04  1.86635E+04  1.43024E+04  4.11699E+04
 -1.50477E+04  3.08204E+04 -2.30036E+04  7.30437E+02 -8.34332E+03 -2.59682E+04  2.05171E+04 -3.09271E+04
  3.78247E+04 -7.08616E+03  3.11792E+04  2.23922E+04  1.45404E+04  4.22744E+04 -7.29735E+03  4.45112E+04
 -2.86938E+04  2.97976E+04 -3.67027E+04  8.73494E+03 -3.77438E+04 -1.52769E+04 -2.05887E+04 -3.38167E+04
  7.02050E+03 -3.36470E+04  2.87595E+04 -1.22771E+04  2.67590E+04  1.04920E+04  2.92812E+03  1.71523E+04
 -1.32866E+04  6.88638E+03 -9.42152E+03 -7.59750E+03  5.92843E+03 -9.98041E+03  1.72763E+04  6.75694E+03
  1.21867E+04  2.15401E+04 -6.55100E+03  2.31738E+04 -2.13884E+04  9.15890E+03 -2.46373E+04 -5.96691E+03
 -1.61603E+04 -1.65880E+04 -5.37257E+03 -1.65729E+04  3.64749E+03 -1.37003E+04  1.20224E+04 -1.35767E+04
  2.03502E+04 -1.21036E+04  2.76112E+04  6.21740E+02  2.08486E+04  1.60540E+04  4.41770E+03  3.15260E+04
 -1.57981E+04  2.70618E+04 -2.57994E+04  9.59643E+03 -1.98006E+04 -1.02488E+04 -3.78382E+03 -1.42475E+04
  3.24642E+03 -3.99182E+03 -2.56491E+03  5.15989E+03 -1.26224E+04  5.24928E+03 -1.29306E+04 -4.77317E+03
 -8.60678E+03 -1.53300E+04  4.25474E+03 -1.90017E+04  1.23875E+04 -1.37694E+04  1.36168E+04 -1.42832E+03
  8.85686E+03  1.05842E+04 -2.59100E+02  1.49617E+04 -1.03642E+04  9.27839E+03 -1.47724E+04 -3.37252E+03
 -1.07288E+04 -1.41531E+04 -1.50001E+03 -1.89332E+04  8.02593E+03 -1.49313E+04  1.59690E+04 -7.48471E+03
  1.37466E+04  8.68026E+02  1.00036E+04  3.84660E+03  5.46565E+03  6.75235E+02  7.43894E+03 -1.71301E+03
  1.35015E+04  2.75519E+03  1.41067E+04  1.28218E+04  8.32837E+03  2.40523E+04 -3.27315E+03  2.54198E+04
 -1.49410E+04  1.94702E+04 -2.35330E+04  9.12617E+03 -2.36811E+04 -1.81204E+03 -2.04061E+04 -1.30269E+04
 -9.54771E+03 -1.92793E+04  6.53504E+03 -1.80384E+04  1.58268E+04 -1.01181E+04  1.49338E+04  3.48100E+03
  6.34721E+03  1.09798E+04 -7.05145E+03  1.05529E+04 -1.32740E+04  2.06994E+03 -9.84994E+03 -8.02551E+03
 -4.19080E+01 -1.19032E+04  5.52006E+03 -9.66369E+03  7.81467E+03 -9.49667E+02  1.33828E+03  4.49302E+03
 -5.56734E+03  1.06956E+03 -3.20537E+03 -4.10080E+03  9.59568E+02 -1.00530E+04  6.99278E+03 -9.71120E+03
  1.20033E+04 -4.25063E+03  1.13369E+04  2.86116E+03  9.05005E+03  8.72068E+03  4.45375E+03  1.34767E+04
 -1.72098E+03  1.48940E+04 -9.04603E+03  9.28551E+03 -1.02307E+04  3.04985E+03 -7.53705E+03 -1.83492E+03
 -4.37193E+03 -3.69912E+03 -1.07399E+03  1.55784E+03 -1.60166E+03  1.32832E+03 -3.03038E+03  3.56772E+03
 -7.82283E+03 -1.47218E+02 -8.30750E+03 -6.92471E+03 -3.65397E+03 -1.13602E+04  3.43893E+03 -7.95888E+03
  6.78667E+03 -3.28104E+03  5.21431E+03  2.15362E+03  8.87420E+02  2.62775E+03 -3.08948E+03 -2.07801E+02
 -2.99636E+03 -5.24444E+03 -5.66251E+02 -6.73572E+03  4.02778E+03 -7.37892E+03  9.37886E+03 -4.16575E+03
  1.08648E+04  5.10084E+02  8.22946E+03  5.85144E+03  1.11586E+03  7.90009E+03 -5.20572E+03  7.38716E+03
 -5.81567E+03  2.81387E+03 -3.22925E+03 -7.19699E+02  1.37314E+03 -1.61895E+03  4.38710E+03 -1.02695E+03
  3.47499E+03  3.61743E+03  5.08446E+02  6.46354E+03 -4.50297E+03  6.39428E+03 -7.57203E+03  2.10958E+03
 -4.02670E+03 -3.54054E+03  5.37811E+02 -6.40452E+03  3.61054E+03 -3.37781E+03  3.06967E+03  8.56091E+02
 -5.86510E+01  3.00334E+03 -3.71782E+03  4.59167E+03 -4.72532E+03  2.18468E+03 -3.66094E+03 -9.38121E+02
 -2.75937E+03 -5.80754E+03  6.08852E+02 -6.16568E+03  5.77650E+03 -4.52782E+03  5.95083E+03  5.08447E+02
  4.54596E+03  4.53373E+03 -9.28234E+01  6.69118E+03 -4.36283E+03  3.87133E+03 -4.65346E+03 -5.10359E+02
 -5.18685E+03 -5.06342E+03 -1.72882E+03 -4.87517E+03  1.78663E+03 -3.80538E+03  2.62007E+03 -2.66010E+03
  2.59459E+03 -7.77816E+01  4.57947E+02  1.11950E+03  4.12502E+02  1.48578E+02  3.35138E+02 -1.46259E+03
  3.34842E+03 -1.40581E+03  5.12151E+03  7.88671E+02  4.82686E+03  2.96983E+03  5.20917E+03  6.70807E+03
 -1.62893E+03  7.71896E+03 -6.60424E+03  6.00511E+03 -8.86998E+03  1.17297E+03 -7.48592E+03 -2.54031E+03
 -3.92212E+03 -6.34364E+03 -4.06950E+02 -4.94863E+03  2.10872E+03 -2.29582E+03  1.42688E+03 -2.36043E+03
  1.00814E+03 -7.17760E+02  1.99029E+03 -2.62728E+03  3.45267E+03 -1.40857E+03  3.55364E+03  2.37549E+02
  4.51933E+03  1.05373E+03  1.32590E+03  3.48940E+03 -1.33261E+03  2.73916E+03 -4.39491E+03  2.36484E+03
 -4.22131E+03 -1.00175E+03 -1.77674E+03 -3.19247E+03  2.82621E+02 -4.66657E+03  2.88839E+03 -5.32275E+03
  5.08400E+03 -3.22678E+03  6.20252E+03 -6.62561E+00  4.06761E+03  3.57544E+03  1.05456E+03  5.38368E+03
 -2.35003E+03  5.50383E+03 -2.98238E+03  2.41599E+03 -1.75135E+03 -7.58026E+02 -4.34526E+02  9.84321E+01
 -6.47277E+02  3.44321E+02 -6.41493E+02  1.67213E+03 -2.45837E+03  1.11286E+03 -3.81891E+03 -1.27768E+02
 -1.13698E+03 -3.75194E+03  5.17098E+02 -4.59550E+03  2.47015E+03 -4.06451E+03  2.75468E+03 -7.60762E+02
  3.83398E+03  2.16006E+03  1.36634E+03  3.04647E+03 -1.03175E+03  3.75241E+03 -1.76993E+03  2.55347E+03
 -2.90068E+03  9.38445E+02 -3.34204E+03 -2.44530E+03  3.35719E+02 -2.68274E+03  1.71028E+03 -1.67599E+03
  2.63138E+03 -1.04501E+03  1.33452E+03  1.27116E+01  3.72051E+02  1.48974E+03  7.38675E+02  5.20695E+02
  1.62350E+03  3.53614E+02  1.31708E+03  1.07879E+03  1.07911E+03  2.51589E+03  9.23253E+02  1.76608E+03
 -1.28702E+03  2.92071E+03 -1.91962E+03  3.52695E+03 -2.94855E+03  9.71488E+02 -3.68050E+03 -4.25509E+02
 -1.57261E+03 -3.55754E+03  7.39060E+02 -4.43188E+03  1.63299E+03 -2.38277E+03  2.60862E+03 -8.36348E+02
  2.44345E+03  1.89639E+03 -9.24547E+01  2.41685E+03 -6.39828E+02  9.27392E+02 -6.77970E+02 -1.80787E+02
 -5.09101E+02 -1.10647E+03  1.70255E+03 -1.77264E+03  6.99968E+02 -1.00883E+03  9.91095E+02  1.65709E+01
  8.41769E-01 -2.36540E+02  4.92059E+02 -1.98250E+02 -5.43709E+02  2.60700E+02  1.76395E+03 -4.15164E+02
  5.02796E+02 -1.85790E+02  1.70761E+03  8.46756E+02 -4.06269E+02  2.07530E+03 -8.35585E+02  2.59422E+03
 -1.65173E+03  1.20065E+03 -2.04159E+03  7.77874E+02 -1.76248E+03 -1.15577E+03  5.97862E+02 -1.39759E+03
  2.44603E+02 -6.76314E+02  1.40986E+03 -1.23894E+03  6.22102E+02  1.01661E+03 -8.33388E+02  5.23404E+02
 -1.13256E+03  4.36327E+02 -6.44557E+02 -1.69210E+03 -6.60470E+02 -2.21097E+03  5.84896E+02 -1.75848E+03
  1.93212E+02 -4.99732E+02  7.55250E+02  4.24393E+02  1.39412E+03 -2.13640E+02 -1.60605E+02  1.52435E+03
 -3.65447E+02 -1.89422E+02 -1.38016E+03 -5.15248E+02  8.47743E+02 -1.30271E+03  2.10533E+03 -7.31999E+01
  6.60841E+02  4.56620E+02  2.62037E+03  7.51398E+02  1.00077E+03  1.67072E+03  1.35315E+02  1.01309E+03
 -1.21514E+03 -6.77448E+01 -1.01142E+03 -1.88005E+02 -7.20647E+02 -1.03500E+03  2.86340E+02 -5.07133E+02
  1.43671E+03 -4.37465E+02  5.74938E+02  5.25498E+02 -9.59229E+01  1.36006E+03  5.19622E+01  1.08059E+03
 -5.49864E+02  1.03603E+03 -5.14788E+01  5.02353E+02 -1.33810E+02  3.51310E+02 -4.24656E+02  7.17869E+02
 -8.15639E+02  9.76497E+02 -1.68754E+03  2.59229E+02 -1.61146E+03  5.64170E+01 -1.54710E+03 -1.31950E+03
 -9.30246E+02 -1.96317E+03  5.84309E+02 -2.06196E+03  1.04049E+03 -2.27011E+03  1.85454E+03 -9.83611E+02
  2.06982E+03  1.31816E+01  1.09780E+03  1.31827E+03 -8.79503E+01  1.19206E+03 -3.82175E+02  9.31207E+02
 -8.03031E+02  1.16351E+03 -2.43484E+02  2.86448E+01 -2.56629E+02  4.10931E+02 -4.62939E+02 -6.34324E+02
 -8.55331E+02  1.28690E+01 -4.27647E+02 -5.01181E+01 -2.83045E+02 -6.17500E+02 -6.24830E+01 -1.48086E+03
  1.58419E+03 -6.32561E+02 -1.78960E+02  1.97019E+02  1.17936E+03  8.40255E+02 -7.60239E+02  1.41587E+03
 -5.54880E+02  1.60224E+03 -1.58637E+03  1.34343E+03 -1.17219E+03 -9.56949E+01 -1.08543E+03 -5.45083E+02
 -9.27829E+02 -7.22311E+02  7.15260E+02 -5.09721E+02  7.60836E+02 -4.85044E+02  4.35976E+02  5.92681E+01
  4.83191E+02  3.51928E+02  7.09117E+01  4.04206E+02 -1.16843E+02  1.71256E+02  1.79990E+02 -1.13396E+02
  2.23246E+02  3.45563E+02  8.26841E+02  5.31178E+02 -5.56032E+02  1.18483E+02  5.96127E+02  4.31914E+02
  6.99425E+01  6.22774E+02 -7.89410E+01  2.96430E+02 -4.37395E+02 -1.16290E+02 -3.52481E+01 -1.00870E+03
  5.01544E+02 -5.23051E+02  3.00137E+02  2.71770E+02  9.51216E+02 -1.08054E+03  2.27165E+02  2.44179E+02
  2.98289E+02  8.14995E+02 -1.50425E+02  7.44755E+02 -1.86763E+02  1.03568E+03 -7.16226E+02  1.53584E+02
 -3.05530E+02  3.66976E+02 -2.17920E+02 -1.70870E+02 -1.67333E+01  4.83640E+02 -6.45229E+02  7.65170E+01
 -8.86023E+02 -4.19270E+02 -4.65332E+02 -7.25791E+02  2.85374E+02 -1.73944E+03  3.88045E+02 -4.64238E+02
  3.69028E+02  3.89185E+01 -1.76922E+02  1.25644E+02  1.03848E+02  3.91856E+02  3.14080E+02  6.66082E+02
