 $NMID ID='MM_0lb_SNR400_15hz_g45_3.RAW', FMTDAT='(8E13.5)'
 TRAMP=1., VOLUME=1. $END
  3.09666E+05  3.33895E+02  3.37382E+05  2.50677E+05  8.46498E+04  3.37824E+05 -1.32420E+05  2.50546E+05
 -1.90343E+05  8.29644E+04 -1.11589E+05 -3.26461E+04  6.75121E+02 -5.05027E+04  5.32977E+04 -1.90591E+02
  3.51485E+04  5.27143E+04 -1.69436E+04  7.56823E+04 -6.08538E+04  6.31848E+04 -8.33358E+04  3.21384E+04
 -8.11239E+04 -1.08605E+04 -5.70129E+04 -5.07109E+04 -1.50231E+04 -6.84592E+04  2.73172E+04 -4.56348E+04
  3.97241E+04  4.03628E+03  1.60686E+04  4.69286E+04 -3.44264E+04  4.68321E+04 -6.66510E+04 -5.27319E+02
 -5.30124E+04 -5.64105E+04 -6.28367E+03 -7.58106E+04  3.37453E+04 -5.37982E+04  4.68477E+04 -1.71541E+04
  4.30198E+04  1.09709E+04  3.14982E+04  2.49854E+04  1.60986E+04  2.83323E+04 -4.95055E+03  2.66352E+04
 -2.18867E+04  1.19038E+04 -1.90079E+04 -4.68307E+03  4.59591E+03 -7.20312E+03  2.22473E+04  1.25431E+04
  7.39435E+03  3.45122E+04 -3.16392E+04  3.50449E+04 -6.32365E+04  2.42602E+03 -5.63999E+04 -4.13070E+04
 -1.31412E+04 -6.21140E+04  3.91887E+04 -4.43390E+04  5.74031E+04 -1.92313E+03  3.35239E+04  3.23995E+04
 -5.89539E+03  3.51994E+04 -2.95668E+04  1.49768E+04 -2.94333E+04 -4.09998E+03 -1.56396E+04 -1.07368E+04
 -7.71287E+03 -1.26608E+04 -1.24247E+03 -1.80946E+04  7.24756E+03 -2.32857E+04  1.51405E+04 -1.36480E+04
  1.17307E+04  5.16661E+03 -7.57937E+03  1.28004E+04 -2.05526E+04 -3.68680E+03 -8.06331E+03 -3.29311E+04
  2.18598E+04 -4.23753E+04  4.66668E+04 -1.95480E+04  4.40743E+04  1.92458E+04  1.49400E+04  4.33800E+04
 -1.51991E+04  3.23184E+04 -2.46380E+04  2.11098E+03 -8.82988E+03 -2.76842E+04  2.09203E+04 -3.25575E+04
  3.97884E+04 -8.20406E+03  3.42797E+04  2.36517E+04  1.74696E+04  4.49972E+04 -8.38058E+03  4.82366E+04
 -3.11739E+04  3.27560E+04 -3.99686E+04  9.23224E+03 -4.09503E+04 -1.63187E+04 -2.29163E+04 -3.65804E+04
  6.82408E+03 -3.60972E+04  3.10554E+04 -1.38527E+04  2.81114E+04  1.04533E+04  3.97730E+03  1.87704E+04
 -1.35450E+04  8.08442E+03 -9.86219E+03 -7.78790E+03  5.51148E+03 -1.06582E+04  1.75841E+04  6.42648E+03
  1.29972E+04  2.17683E+04 -6.57729E+03  2.48012E+04 -2.26271E+04  9.94100E+03 -2.74276E+04 -5.17329E+03
 -1.94533E+04 -1.68922E+04 -7.85170E+03 -1.91140E+04  3.54891E+03 -1.80447E+04  1.44659E+04 -1.69193E+04
  2.43991E+04 -1.20736E+04  3.18498E+04  1.81719E+03  2.32845E+04  1.92948E+04  4.12143E+03  3.53364E+04
 -1.79735E+04  2.98839E+04 -2.70588E+04  1.01216E+04 -2.05332E+04 -1.06971E+04 -3.60346E+03 -1.29575E+04
  1.86689E+03 -2.93505E+03 -3.99803E+03  5.78573E+03 -1.46668E+04  5.58376E+03 -1.52026E+04 -6.13809E+03
 -9.82351E+03 -1.76094E+04  4.87588E+03 -2.15668E+04  1.44807E+04 -1.59917E+04  1.69048E+04 -2.21946E+03
  1.08713E+04  1.26816E+04 -1.68866E+03  1.80544E+04 -1.25235E+04  1.05552E+04 -1.77797E+04 -4.29563E+03
 -1.24427E+04 -1.63047E+04 -1.43113E+03 -2.16713E+04  1.02214E+04 -1.73124E+04  1.81046E+04 -9.61151E+03
  1.65576E+04  2.49267E+02  1.17792E+04  4.56132E+03  6.21080E+03  7.14001E+02  8.98145E+03 -1.51244E+03
  1.60465E+04  2.45061E+03  1.83247E+04  1.46460E+04  1.13240E+04  2.88386E+04 -2.95957E+03  3.21264E+04
 -1.85468E+04  2.48129E+04 -2.92877E+04  1.24089E+04 -3.09967E+04 -1.69306E+03 -2.53393E+04 -1.79859E+04
 -1.14915E+04 -2.46959E+04  8.89831E+03 -2.29621E+04  1.93281E+04 -1.21427E+04  1.78905E+04  4.33912E+03
  7.13731E+03  1.30169E+04 -8.93731E+03  1.23952E+04 -1.53441E+04  2.68043E+03 -1.23342E+04 -9.58307E+03
  2.77432E+01 -1.48829E+04  7.38811E+03 -1.11400E+04  9.06253E+03 -2.02917E+03  1.95156E+03  5.94400E+03
 -6.82803E+03  1.58417E+03 -5.17346E+03 -5.05273E+03  4.44292E+02 -1.32323E+04  8.97437E+03 -1.28999E+04
  1.54859E+04 -6.15456E+03  1.61499E+04  2.74915E+03  1.36127E+04  1.18698E+04  6.47124E+03  1.79038E+04
 -3.08969E+03  1.98883E+04 -1.26689E+04  1.22230E+04 -1.45548E+04  3.79785E+03 -9.52085E+03 -2.83361E+03
 -4.53200E+03 -4.29627E+03 -7.94933E+02  7.20335E+02 -1.91104E+03  2.63470E+03 -4.31216E+03  4.35824E+03
 -9.64230E+03 -1.00603E+03 -1.01378E+04 -8.44799E+03 -4.00589E+03 -1.36473E+04  4.62466E+03 -1.06205E+04
  8.57432E+03 -4.84452E+03  5.44870E+03  2.82687E+03  2.93501E+02  3.71460E+03 -4.49632E+03 -7.25003E+02
 -5.08145E+03 -7.11294E+03 -8.29551E+02 -9.18405E+03  5.16108E+03 -1.02348E+04  1.31325E+04 -5.04945E+03
  1.55707E+04  7.87088E+02  1.09945E+04  8.67081E+03  2.47642E+03  1.19240E+04 -5.75521E+03  1.02625E+04
 -8.47250E+03  3.62517E+03 -4.07864E+03 -2.01892E+03  1.54901E+03 -2.65518E+03  6.04948E+03 -6.16660E+02
  4.88878E+03  3.96527E+03  1.31318E+03  7.42603E+03 -5.49841E+03  7.73613E+03 -9.42125E+03  2.38064E+03
 -5.94616E+03 -4.87835E+03  3.77064E+02 -8.01613E+03  5.09488E+03 -4.65442E+03  5.35961E+03  1.99434E+03
  1.28454E+03  5.60878E+03 -5.65814E+03  6.09947E+03 -7.15364E+03  3.11677E+03 -6.96063E+03 -2.48824E+03
 -4.07454E+03 -8.30503E+03  1.47483E+03 -9.67861E+03  8.23493E+03 -6.21501E+03  9.44567E+03  1.26687E+03
  5.73021E+03  7.24515E+03  7.04977E+01  9.09557E+03 -6.73617E+03  6.03945E+03 -6.86456E+03 -6.04690E+02
 -6.96746E+03 -6.55087E+03 -5.51738E+02 -6.67496E+03  3.57093E+03 -5.84327E+03  3.83798E+03 -3.08868E+03
  3.31594E+03  6.22249E+02 -6.86455E+02  9.44682E+02  3.65232E+02 -1.35764E+03  8.64628E+02 -3.20819E+03
  5.89849E+03 -1.91275E+03  7.85713E+03  1.85531E+03  7.66794E+03  4.99051E+03  6.15988E+03  1.04420E+04
 -2.13909E+03  1.24696E+04 -1.14254E+04  9.53346E+03 -1.34192E+04  1.23284E+03 -1.14111E+04 -4.10439E+03
 -5.97016E+03 -8.99910E+03 -4.49674E+02 -7.07274E+03  2.81443E+03 -3.22216E+03  2.62946E+03 -2.71268E+03
  1.76390E+03 -1.82758E+03  2.97753E+03 -2.93187E+03  4.12795E+03 -1.48789E+03  4.44439E+03 -5.13048E+01
  6.04610E+03  1.66682E+03  2.11824E+03  5.39831E+03 -1.46066E+03  4.78690E+03 -5.64223E+03  3.84445E+03
 -7.75901E+03 -6.55629E+02 -4.11913E+03 -5.10029E+03 -1.39588E+02 -7.69165E+03  4.64204E+03 -8.09465E+03
  7.23715E+03 -4.62573E+03  9.70691E+03  1.47757E+03  6.91409E+03  6.31563E+03  1.58491E+03  8.82885E+03
 -3.34113E+03  8.03419E+03 -5.26179E+03  2.26838E+03 -3.08746E+03 -1.13748E+03 -1.63474E+03 -6.64721E+02
 -8.11810E+02  8.58409E+01 -1.14439E+03  1.98920E+03 -3.70509E+03  6.83136E+02 -5.33519E+03 -8.70599E+02
 -3.04411E+03 -5.74065E+03  6.49898E+02 -6.86187E+03  4.79321E+03 -6.39672E+03  5.92153E+03 -1.67931E+03
  6.09528E+03  3.37163E+03  3.23061E+03  5.71938E+03 -1.19915E+03  6.89128E+03 -4.55978E+03  4.23047E+03
 -5.74212E+03  2.11926E+02 -5.88915E+03 -3.87596E+03  1.61488E+02 -5.69536E+03  2.88827E+03 -4.51669E+03
  4.62805E+03 -1.39939E+03  3.24536E+03  1.02169E+03  1.59156E+03  2.18027E+03  1.73977E+03  9.00126E+02
  1.86530E+03  8.24097E+02  1.97693E+03  1.17964E+03  2.06454E+03  3.20414E+03  1.67430E+03  2.58400E+03
 -1.90886E+03  4.54038E+03 -4.47079E+03  5.82110E+03 -6.21048E+03  1.12704E+03 -7.01258E+03 -1.28908E+03
 -2.84294E+03 -6.27791E+03  1.35498E+03 -7.39403E+03  3.84441E+03 -4.61568E+03  5.14134E+03 -1.95007E+03
  4.24802E+03  2.68509E+03  1.43644E+03  3.62560E+03 -1.81151E+03  2.44302E+03 -1.75647E+03 -8.34771E+02
 -1.07883E+03 -2.19034E+03  2.12510E+03 -2.98454E+03  2.12281E+03 -7.95249E+02  2.82239E+03  6.75906E+02
  1.14482E+03  9.99064E+02  6.04538E+02  4.04519E+02 -3.21515E+02  8.09101E+02  1.45376E+03 -2.88219E+02
  5.09944E+02 -4.11050E+02  2.58630E+03  4.70471E+02  1.09519E+03  3.72961E+03 -8.25338E+02  4.70272E+03
 -3.04762E+03  2.30971E+03 -4.13194E+03  6.45649E+02 -3.16020E+03 -1.00008E+03 -8.11116E+02 -2.57104E+03
  6.99374E+02 -2.46559E+03  2.17396E+03 -1.27604E+03  1.22509E+03  1.46361E+03 -1.18781E+03  1.64407E+03
 -2.33137E+03  1.52472E+03 -2.34566E+03 -1.63759E+03 -2.39643E+03 -3.72557E+03  5.10724E+02 -2.73143E+03
  1.39567E+03 -1.24923E+03  2.30078E+03  3.51958E+02  1.86361E+03  1.39137E+03  2.58234E+01  2.00844E+03
 -1.49642E+03  1.58737E+02 -1.76285E+03 -1.04774E+03  5.78629E+02 -2.55410E+03  2.93893E+03 -1.64019E+03
  2.85090E+03  6.78419E+02  3.91448E+03  1.57476E+03  1.16949E+03  3.02893E+03 -5.44897E+02  3.01517E+03
 -2.70479E+03  1.77120E+03 -2.96577E+03 -6.32900E+02 -1.26663E+03 -1.95642E+03  7.37208E+02 -1.71180E+03
  2.48434E+03 -1.30346E+03  1.91094E+03  1.15237E+03  1.95723E+02  1.92594E+03  5.17229E+02  2.38870E+03
 -1.16635E+03  1.23392E+03 -1.03523E+03  5.46723E+02  3.91674E+02  9.19075E+02 -9.97710E+02  6.65299E+02
 -3.65493E+02  1.31645E+03 -3.08726E+03  9.52908E+02 -3.51688E+03  2.14138E+02 -3.31331E+03 -2.08132E+03
 -1.89403E+03 -4.99305E+03  9.21671E+02 -4.79780E+03  2.40080E+03 -4.02042E+03  4.62145E+03 -2.41811E+03
  4.36062E+03  7.78159E+02  2.51096E+03  2.87111E+03  1.48300E+02  3.50381E+03 -1.15539E+03  2.52465E+03
 -2.40964E+03  1.03213E+03 -1.02534E+03 -6.49700E+02 -6.20835E+02 -5.73204E+00 -8.98478E+02 -1.21106E+02
 -9.95179E+02  1.89004E+02 -5.21382E+02  8.94022E+01  6.53492E+01 -4.17264E+02 -4.88294E+01 -1.58095E+03
  1.67839E+03 -1.57248E+03  1.54075E+03 -1.78371E+02  2.88003E+03  1.59632E+03  4.08502E+02  3.63538E+03
 -1.28395E+03  3.83151E+03 -3.01005E+03  2.42004E+03 -3.94611E+03 -6.19407E+02 -2.90254E+03 -2.90703E+03
 -1.75619E+03 -2.73684E+03  1.84432E+02 -2.71705E+03  1.88844E+03 -1.47477E+03  2.10945E+03  3.10214E+02
  1.13295E+03  7.48552E+02  4.76144E+02  2.53995E+02 -2.02342E+02  1.02745E+00 -2.43881E+02 -3.25830E+02
  9.79322E+02 -3.93852E+02  1.22753E+03  8.14136E+02  1.22418E+03  8.81720E+02 -1.00841E+02  8.18071E+02
 -1.15845E+03  1.36859E+03 -1.58142E+03  1.39056E+02 -1.77958E+03 -1.61873E+03 -8.97025E+01 -2.33965E+03
  1.13922E+03 -2.01613E+03  1.82820E+03 -1.93705E+02  2.01448E+03 -7.74664E+02  1.15259E+03  1.71213E+03
  9.47474E+02  1.79145E+03 -4.36963E+02  1.45352E+03 -9.60568E+02  1.23686E+03 -6.08212E+02  1.73336E+02
 -3.69902E+02 -7.89571E+02 -7.84500E+02  1.28857E+02 -9.80832E+02  6.33389E+02 -1.69174E+03 -9.01988E+02
 -1.92124E+03 -3.26686E+02 -3.41225E+02 -1.63075E+03  8.01897E+02 -2.86380E+03  1.79056E+03 -8.73840E+02
  1.60567E+03  7.92833E+01  6.98079E+02  1.12453E+03  5.05400E+01  2.22487E+03 -1.08385E+03  1.37606E+03
