 $NMID ID='MM_0lb_SNR400_10hz_g45_8.RAW', FMTDAT='(8E13.5)'
 TRAMP=1., VOLUME=1. $END
  3.10383E+05  3.52446E+01  3.38682E+05  2.50238E+05  8.51664E+04  3.38004E+05 -1.32453E+05  2.51733E+05
 -1.90823E+05  8.43452E+04 -1.12093E+05 -3.30646E+04 -1.30646E+02 -5.14422E+04  5.33468E+04 -1.17563E+03
  3.51420E+04  5.28589E+04 -1.64411E+04  7.57795E+04 -6.08635E+04  6.44454E+04 -8.50814E+04  3.19018E+04
 -8.21457E+04 -1.18628E+04 -5.77599E+04 -5.22252E+04 -1.53671E+04 -7.06007E+04  2.83760E+04 -4.62379E+04
  4.11857E+04  3.45230E+03  1.62993E+04  4.79795E+04 -3.50916E+04  4.79159E+04 -6.76922E+04  2.91803E+01
 -5.37563E+04 -5.71530E+04 -7.73806E+03 -7.92071E+04  3.41851E+04 -5.58904E+04  4.94722E+04 -1.75418E+04
  4.47222E+04  1.16260E+04  3.25306E+04  2.60792E+04  1.66679E+04  3.01087E+04 -4.45985E+03  2.82382E+04
 -2.17903E+04  1.21293E+04 -1.83685E+04 -5.11471E+03  6.15448E+03 -7.76816E+03  2.32056E+04  1.39161E+04
  7.49198E+03  3.66664E+04 -3.29950E+04  3.64120E+04 -6.49339E+04  2.29460E+03 -5.91009E+04 -4.36273E+04
 -1.28692E+04 -6.50004E+04  4.09960E+04 -4.76218E+04  6.06126E+04 -2.42876E+03  3.59287E+04  3.37070E+04
 -4.77212E+03  3.82114E+04 -3.10711E+04  1.82178E+04 -3.17507E+04 -4.03972E+03 -1.82872E+04 -1.18180E+04
 -8.72059E+03 -1.48644E+04 -9.96125E+02 -1.91253E+04  8.07766E+03 -2.26561E+04  1.55260E+04 -1.30914E+04
  1.04685E+04  5.96712E+03 -9.81499E+03  1.27734E+04 -2.33097E+04 -5.78535E+03 -8.01205E+03 -3.58473E+04
  2.42353E+04 -4.59755E+04  5.03152E+04 -2.08877E+04  4.74897E+04  2.07867E+04  1.69591E+04  4.66418E+04
 -1.63205E+04  3.54481E+04 -2.74882E+04  2.62392E+03 -1.13778E+04 -2.95583E+04  2.10643E+04 -3.57401E+04
  4.37850E+04 -1.09424E+04  3.83682E+04  2.46207E+04  1.99008E+04  4.93889E+04 -8.05331E+03  5.45829E+04
 -3.37420E+04  3.75270E+04 -4.58270E+04  1.07305E+04 -4.60508E+04 -1.81799E+04 -2.57709E+04 -4.08975E+04
  8.31074E+03 -4.04114E+04  3.36030E+04 -1.55309E+04  3.17495E+04  1.14457E+04  5.50575E+03  2.07097E+04
 -1.33631E+04  9.48360E+03 -1.12705E+04 -7.23943E+03  5.05489E+03 -1.06844E+04  1.86492E+04  6.03797E+03
  1.42970E+04  2.22671E+04 -5.58124E+03  2.71919E+04 -2.34649E+04  1.31867E+04 -3.04425E+04 -3.26063E+03
 -2.35633E+04 -1.79618E+04 -1.02662E+04 -2.34511E+04  4.75997E+03 -2.41744E+04  1.90862E+04 -2.10623E+04
  3.06747E+04 -1.34326E+04  3.64582E+04  4.56414E+03  2.61970E+04  2.28899E+04  4.70515E+03  3.98616E+04
 -1.94991E+04  3.28474E+04 -2.94962E+04  1.15754E+04 -2.18192E+04 -1.05939E+04 -4.08128E+03 -1.25899E+04
  4.94474E+02 -1.66138E+03 -6.58449E+03  8.14128E+03 -1.82733E+04  5.25507E+03 -1.91452E+04 -8.96138E+03
 -1.10032E+04 -2.19247E+04  5.49573E+03 -2.62926E+04  1.83795E+04 -1.91061E+04  2.13058E+04 -1.67786E+03
  1.32319E+04  1.60383E+04 -1.35837E+03  2.20913E+04 -1.52876E+04  1.34584E+04 -2.19753E+04 -5.06076E+03
 -1.63427E+04 -1.93629E+04 -2.29834E+03 -2.59686E+04  1.19363E+04 -2.23242E+04  2.17018E+04 -1.13939E+04
  2.04073E+04  5.19605E+02  1.47617E+04  5.64653E+03  8.49089E+03  1.49786E+03  1.20834E+04 -1.60168E+03
  2.04025E+04  2.93638E+03  2.40380E+04  1.74487E+04  1.59824E+04  3.54964E+04 -2.18692E+03  4.10894E+04
 -2.29813E+04  3.44023E+04 -3.89924E+04  1.69391E+04 -4.15638E+04 -3.50846E+03 -3.34998E+04 -2.42903E+04
 -1.27723E+04 -3.38340E+04  1.17889E+04 -2.92763E+04  2.50985E+04 -1.49423E+04  2.26763E+04  6.63691E+03
  8.22059E+03  1.74855E+04 -1.14428E+04  1.41142E+04 -1.95468E+04  2.36535E+03 -1.46943E+04 -1.21849E+04
 -2.57727E+02 -1.78859E+04  9.98599E+03 -1.38295E+04  1.23099E+04 -2.09848E+03  2.84324E+03  8.52954E+03
 -8.34986E+03  3.70159E+03 -7.97797E+03 -6.88192E+03 -1.79259E+03 -1.61717E+04  1.02631E+04 -1.80490E+04
  2.08237E+04 -9.71919E+03  2.43440E+04  3.27533E+03  2.08220E+04  1.69648E+04  9.27045E+03  2.59500E+04
 -5.01227E+03  2.89243E+04 -1.84341E+04  1.85546E+04 -2.08379E+04  3.46097E+03 -1.42476E+04 -5.94564E+03
 -5.61849E+03 -6.60105E+03  1.15100E+02  3.36597E+01 -3.65399E+03  3.16407E+03 -6.95558E+03  4.89930E+03
 -1.33273E+04 -4.91357E+02 -1.39184E+04 -1.14591E+04 -5.18977E+03 -1.79404E+04  6.46451E+03 -1.39149E+04
  1.19004E+04 -6.32167E+03  8.02091E+03  4.02189E+03  3.99870E+02  5.99080E+03 -7.36016E+03  3.23875E+02
 -6.71040E+03 -8.67809E+03 -1.07582E+03 -1.46347E+04  7.57060E+03 -1.42041E+04  1.82730E+04 -8.03092E+03
  2.13677E+04  2.10034E+03  1.58855E+04  1.29368E+04  2.96555E+03  1.77824E+04 -8.90116E+03  1.46451E+04
 -1.17464E+04  4.12946E+03 -5.79669E+03 -2.67744E+03  2.75269E+03 -3.38067E+03  7.80216E+03 -1.29139E+03
  7.74748E+03  5.89550E+03  6.60568E+02  1.13309E+04 -8.87596E+03  1.07065E+04 -1.39721E+04  1.95049E+03
 -9.61619E+03 -7.55500E+03  1.60009E+02 -1.24002E+04  8.09185E+03 -5.58544E+03  8.30603E+03  2.77731E+03
  1.43398E+03  8.24855E+03 -6.79581E+03  1.00652E+04 -1.17999E+04  4.50970E+03 -1.22252E+04 -4.97219E+03
 -6.99687E+03 -1.34260E+04  3.32158E+03 -1.61269E+04  1.36357E+04 -9.51136E+03  1.57757E+04  2.33273E+03
  8.59535E+03  1.26074E+04 -1.21090E+03  1.46008E+04 -1.00520E+04  8.78712E+03 -1.14667E+04 -9.87312E+02
 -9.83476E+03 -9.44857E+03 -1.94153E+03 -1.08399E+04  5.72529E+03 -8.63981E+03  6.59792E+03 -3.76089E+03
  4.13568E+03  2.17319E+03 -9.94244E+02  1.40204E+03 -7.81453E+02 -2.97243E+03  2.26723E+03 -6.33261E+03
  9.38457E+03 -3.79778E+03  1.38666E+04  1.45412E+03  1.30207E+04  9.44476E+03  8.91945E+03  1.83360E+04
 -3.72523E+03  2.13081E+04 -1.69259E+04  1.56117E+04 -2.29720E+04  3.54011E+03 -1.79493E+04 -7.76862E+03
 -9.50196E+03 -1.49272E+04 -8.67761E+02 -1.28626E+04  4.08178E+03 -7.65765E+03  4.33266E+03 -4.16806E+03
  3.88700E+03 -3.24655E+03  3.69786E+03 -4.00341E+03  5.04865E+03 -3.02693E+03  7.28564E+03 -1.13915E+03
  8.75592E+03  2.09862E+03  4.08690E+03  8.28940E+03 -3.25530E+03  9.34786E+03 -1.09178E+04  7.78609E+03
 -1.28229E+04 -1.94628E+03 -8.17340E+03 -8.81256E+03 -1.20326E+03 -1.34771E+04  8.16360E+03 -1.35749E+04
  1.41711E+04 -7.72792E+03  1.68235E+04  2.88366E+03  1.20841E+04  1.13742E+04  2.32501E+03  1.57517E+04
 -6.62635E+03  1.27725E+04 -8.60135E+03  4.74473E+03 -6.39533E+03 -1.67447E+03 -3.02094E+03 -2.02218E+03
 -1.51746E+03  1.22097E+02 -1.50447E+03  2.33723E+03 -5.56186E+03  2.76650E+03 -9.72655E+03 -1.40694E+03
 -6.14727E+03 -9.39624E+03  6.68776E+01 -1.23389E+04  8.08655E+03 -1.15643E+04  1.26267E+04 -3.60052E+03
  1.20289E+04  6.71416E+03  6.86610E+03  1.20522E+04 -2.32590E+03  1.24986E+04 -8.84514E+03  7.53619E+03
 -1.16016E+04  9.32516E+02 -9.57669E+03 -7.76677E+03 -1.57077E+03 -1.08645E+04  5.15927E+03 -8.33274E+03
  8.12392E+03 -2.59777E+03  5.18636E+03  1.49516E+03  1.65171E+03  3.98007E+03  9.56205E+02  2.16776E+03
  2.99218E+03  1.12533E+03  2.99126E+03  2.11729E+03  3.74473E+03  4.92026E+03  3.45670E+03  6.10028E+03
 -2.25679E+03  9.73205E+03 -8.94586E+03  1.03280E+04 -1.23772E+04  3.09427E+03 -1.29299E+04 -4.63543E+03
 -6.61592E+03 -1.25571E+04  2.39820E+03 -1.43464E+04  7.96302E+03 -9.34202E+03  1.03944E+04 -2.34597E+03
  8.73533E+03  5.46963E+03  1.59122E+03  7.55489E+03 -3.77442E+03  5.29668E+03 -5.90935E+03 -5.05674E+02
 -2.54403E+03 -5.28243E+03  2.73352E+03 -5.72985E+03  5.76266E+03 -2.18022E+03  5.03424E+03  1.60373E+03
  3.56603E+03  3.14007E+03  6.55774E+02  1.84757E+03 -1.84601E+02  1.79757E+03  1.90235E+03 -1.09835E+03
  2.30637E+03 -8.78602E+02  5.83023E+03  2.47919E+03  2.97323E+03  6.43187E+03 -1.04558E+03  9.44512E+03
 -6.24058E+03  6.69965E+03 -8.10242E+03  2.31140E+03 -7.63456E+03 -3.33314E+03 -3.12199E+03 -5.05447E+03
  5.02222E+02 -5.15524E+03  3.02947E+03 -1.98739E+03  2.78717E+03  2.93057E+03 -9.19798E+02  4.36680E+03
 -4.71583E+03  2.19062E+03 -6.23332E+03 -3.20045E+03 -3.34043E+03 -7.13834E+03  5.66561E+02 -7.15138E+03
  5.06197E+03 -3.97571E+03  4.98813E+03 -4.45796E+02  3.65255E+03  1.68544E+03  3.62944E+02  3.56970E+03
 -3.15910E+03  5.90895E+02 -3.30644E+03 -2.89709E+03  2.45636E+03 -4.99627E+03  6.99699E+03 -3.57090E+03
  8.32055E+03  7.63925E+02  7.97920E+03  5.71507E+03  2.66337E+03  8.54349E+03 -3.40123E+03  7.40332E+03
 -6.44419E+03  3.43660E+03 -7.02208E+03 -8.50610E+02 -3.89828E+03 -5.01147E+03  1.22065E+03 -4.43377E+03
  5.32476E+03 -2.15509E+03  4.86957E+03  1.88871E+03  1.44976E+03  4.61897E+03 -3.64206E+02  3.82400E+03
 -2.19573E+03  2.76248E+03 -2.08485E+03  1.00195E+03 -9.08080E+02  1.24035E+03 -1.63199E+03  1.02713E+03
 -1.16637E+03  3.54110E+03 -5.68876E+03  3.09832E+03 -8.45124E+03  8.26473E+01 -9.08617E+03 -4.83012E+03
 -5.01561E+03 -1.10973E+04  2.05950E+03 -1.30032E+04  7.96186E+03 -9.75574E+03  1.11297E+04 -4.46433E+03
  1.14128E+04  1.81352E+03  6.64851E+03  7.50417E+03  6.50457E+01  8.44755E+03 -3.68542E+03  6.35252E+03
 -4.76403E+03  2.28204E+03 -3.21325E+03 -1.37137E+03 -8.84283E+02 -6.37954E+02 -2.50748E+02  5.87378E+01
 -1.50552E+03 -1.87186E+02 -1.90049E+03  2.64175E+02  3.62202E+02 -2.30484E+03  6.80902E+02 -3.56047E+03
  3.42933E+03 -3.16799E+03  4.95799E+03  3.03635E+02  5.48239E+03  5.10751E+03  1.66302E+03  8.27571E+03
 -4.22580E+03  9.74710E+03 -9.04159E+03  5.56714E+03 -1.04450E+04 -1.16833E+02 -7.29273E+03 -6.58016E+03
 -3.39039E+03 -8.23459E+03  1.71355E+03 -7.98087E+03  4.88086E+03 -4.36776E+03  4.62282E+03 -5.55950E+01
  2.53376E+03  2.69400E+03 -1.03436E+03  3.12614E+03 -1.97819E+03 -2.77295E+02 -1.42088E+02 -1.46898E+03
  2.86375E+03 -7.30191E+02  4.23439E+03  1.74060E+03  1.71192E+03  3.11557E+03 -1.50433E+01  4.24065E+03
 -3.33918E+03  4.18323E+03 -5.16315E+03  1.14893E+03 -3.99762E+03 -3.95101E+03 -1.15120E+03 -7.08835E+03
  3.76352E+03 -6.10586E+03  6.41929E+03 -1.58038E+03  6.04440E+03  1.65702E+03  3.65616E+03  5.60221E+03
  8.06490E+02  5.37091E+03 -2.18979E+03  4.86096E+03 -3.36179E+03  2.23144E+03 -2.59782E+03  5.09170E+02
 -1.15349E+03 -6.96990E+02 -2.07082E+03  4.69605E+02 -2.54301E+03  4.17429E+02 -4.44528E+03 -1.54168E+03
 -4.02468E+03 -2.91097E+03 -1.67707E+03 -5.68713E+03  2.02344E+03 -6.18723E+03  4.74312E+03 -2.43331E+03
  5.07072E+03  1.85984E+02  2.86261E+03  4.69056E+03 -5.97871E+01  6.03238E+03 -3.95788E+03  3.74046E+03
