 $NMID ID='MM_0lb_SNR400_13hz_g60_26.RAW', FMTDAT='(8E13.5)'
 TRAMP=1., VOLUME=1. $END
  3.10424E+05  8.12328E+02  3.37566E+05  2.50645E+05  8.41576E+04  3.38491E+05 -1.32551E+05  2.50967E+05
 -1.91072E+05  8.40346E+04 -1.11929E+05 -3.29371E+04  5.73930E+02 -5.06365E+04  5.34780E+04 -5.05079E+02
  3.48692E+04  5.23750E+04 -1.64050E+04  7.54776E+04 -6.09509E+04  6.43644E+04 -8.53048E+04  3.28469E+04
 -8.14408E+04 -1.18787E+04 -5.83420E+04 -5.12383E+04 -1.49757E+04 -6.99394E+04  2.83076E+04 -4.63185E+04
  4.06754E+04  3.21892E+03  1.61723E+04  4.84083E+04 -3.48570E+04  4.74383E+04 -6.72221E+04 -6.56466E+02
 -5.41585E+04 -5.69057E+04 -6.70249E+03 -7.86456E+04  3.42249E+04 -5.59728E+04  4.91240E+04 -1.83891E+04
  4.44614E+04  1.07040E+04  3.26525E+04  2.65507E+04  1.60425E+04  2.91929E+04 -5.35750E+03  2.72282E+04
 -2.17960E+04  1.18334E+04 -1.81128E+04 -5.96847E+03  6.10643E+03 -7.07743E+03  2.27506E+04  1.31267E+04
  7.27087E+03  3.72046E+04 -3.25875E+04  3.62392E+04 -6.54060E+04  2.27847E+03 -5.84158E+04 -4.39993E+04
 -1.23038E+04 -6.44695E+04  4.09048E+04 -4.68218E+04  5.97622E+04 -1.94147E+03  3.57550E+04  3.30469E+04
 -6.15159E+03  3.79434E+04 -3.09990E+04  1.74716E+04 -3.21800E+04 -3.86603E+03 -1.80965E+04 -1.18718E+04
 -9.03024E+03 -1.39827E+04 -1.27555E+03 -1.94110E+04  8.37352E+03 -2.29943E+04  1.56318E+04 -1.28770E+04
  1.04256E+04  5.84109E+03 -9.18370E+03  1.29792E+04 -2.20458E+04 -5.88862E+03 -8.03753E+03 -3.65854E+04
  2.38990E+04 -4.55163E+04  5.03325E+04 -2.05392E+04  4.72567E+04  1.98399E+04  1.65212E+04  4.54946E+04
 -1.66165E+04  3.49633E+04 -2.63068E+04  1.50947E+03 -1.03091E+04 -2.85116E+04  2.17274E+04 -3.59113E+04
  4.25915E+04 -1.09303E+04  3.72355E+04  2.41453E+04  2.02425E+04  4.85364E+04 -8.97863E+03  5.26955E+04
 -3.37636E+04  3.60564E+04 -4.45532E+04  1.02860E+04 -4.52331E+04 -1.72883E+04 -2.47274E+04 -4.01613E+04
  7.59984E+03 -3.96664E+04  3.28671E+04 -1.54398E+04  3.10038E+04  1.16416E+04  4.41490E+03  1.99671E+04
 -1.40556E+04  9.49895E+03 -1.06772E+04 -6.94150E+03  5.87732E+03 -1.13507E+04  1.77206E+04  5.38601E+03
  1.36806E+04  2.22056E+04 -5.28388E+03  2.63096E+04 -2.22266E+04  1.28419E+04 -3.03308E+04 -3.83753E+03
 -2.24490E+04 -1.80179E+04 -9.90682E+03 -2.27907E+04  4.02316E+03 -2.24307E+04  1.74410E+04 -2.07094E+04
  2.86424E+04 -1.35520E+04  3.48057E+04  4.06141E+03  2.52438E+04  2.18391E+04  4.61475E+03  3.84615E+04
 -1.92733E+04  3.15648E+04 -2.92994E+04  1.06354E+04 -2.17670E+04 -1.01190E+04 -4.64835E+03 -1.38969E+04
  1.32141E+03 -1.85810E+03 -6.59864E+03  6.80195E+03 -1.74809E+04  4.75830E+03 -1.76246E+04 -8.38450E+03
 -1.15936E+04 -2.06377E+04  5.63865E+03 -2.52848E+04  1.71055E+04 -1.79857E+04  1.98889E+04 -1.59581E+03
  1.32411E+04  1.44938E+04 -1.62822E+03  2.12069E+04 -1.45937E+04  1.17739E+04 -2.02806E+04 -4.48478E+03
 -1.53319E+04 -1.83840E+04 -2.53370E+03 -2.51159E+04  1.12785E+04 -2.10212E+04  2.11447E+04 -1.07503E+04
  1.92433E+04 -8.34537E+02  1.45860E+04  4.52463E+03  7.91036E+03  1.36225E+03  1.06064E+04 -1.47789E+03
  2.03928E+04  2.70151E+03  2.16580E+04  1.58364E+04  1.48158E+04  3.32843E+04 -2.82627E+03  3.89360E+04
 -2.22353E+04  3.23181E+04 -3.59277E+04  1.59832E+04 -3.80451E+04 -3.11403E+03 -3.07029E+04 -2.21293E+04
 -1.27918E+04 -3.14511E+04  1.07744E+04 -2.76096E+04  2.42152E+04 -1.40859E+04  2.01428E+04  6.27491E+03
  7.60697E+03  1.55527E+04 -9.76752E+03  1.39947E+04 -1.83931E+04  2.66256E+03 -1.36456E+04 -1.09296E+04
 -4.42261E+02 -1.61175E+04  8.60909E+03 -1.28818E+04  1.11662E+04 -1.73693E+03  2.99555E+03  6.82205E+03
 -7.48534E+03  3.37773E+03 -6.64409E+03 -5.92203E+03 -1.70655E+01 -1.47381E+04  1.05421E+04 -1.68110E+04
  1.93026E+04 -8.34380E+03  2.13806E+04  3.09009E+03  1.84449E+04  1.51223E+04  8.56036E+03  2.39858E+04
 -4.22536E+03  2.59568E+04 -1.67536E+04  1.57128E+04 -1.84808E+04  3.27777E+03 -1.26702E+04 -4.28293E+03
 -5.38461E+03 -6.09806E+03 -1.08679E+03  1.09073E+03 -2.87694E+03  2.83188E+03 -5.69054E+03  5.41073E+03
 -1.20892E+04 -8.29016E+02 -1.23787E+04 -1.04178E+04 -5.31741E+03 -1.67904E+04  5.83275E+03 -1.35419E+04
  1.03784E+04 -5.34337E+03  7.70476E+03  3.48955E+03 -3.06015E+02  5.71673E+03 -6.40101E+03 -4.03241E+02
 -6.10357E+03 -8.65612E+03 -1.43520E+03 -1.18625E+04  7.11223E+03 -1.28049E+04  1.66056E+04 -7.37910E+03
  1.92521E+04  1.28498E+03  1.42233E+04  1.09511E+04  2.38973E+03  1.53376E+04 -8.57546E+03  1.17651E+04
 -1.08130E+04  3.87568E+03 -5.04068E+03 -2.43771E+03  1.12740E+03 -3.30546E+03  6.53020E+03 -1.55340E+03
  6.31259E+03  5.82378E+03  1.63498E+03  1.04423E+04 -8.42650E+03  1.00630E+04 -1.25577E+04  2.02080E+03
 -8.20045E+03 -6.76047E+03  2.43480E+02 -1.05480E+04  6.41776E+03 -5.49578E+03  7.31632E+03  2.14630E+03
  2.17864E+03  7.68827E+03 -5.89092E+03  8.43271E+03 -9.66476E+03  4.00843E+03 -1.00569E+04 -3.52537E+03
 -5.99559E+03 -1.24572E+04  2.70868E+03 -1.35900E+04  1.22353E+04 -8.46829E+03  1.27586E+04  1.87319E+03
  7.78664E+03  1.01800E+04 -1.21259E+03  1.22340E+04 -8.72540E+03  7.08782E+03 -9.36918E+03 -6.81887E+02
 -8.86316E+03 -8.46931E+03 -1.32767E+03 -8.56612E+03  5.21223E+03 -7.38167E+03  5.18655E+03 -3.13773E+03
  4.02890E+03  1.25373E+03 -4.85306E+02  1.39585E+03 -5.68816E+02 -2.01592E+03  2.18429E+03 -5.44463E+03
  8.58239E+03 -3.57354E+03  1.11374E+04  2.02379E+03  1.14408E+04  7.47934E+03  8.58045E+03  1.47376E+04
 -3.40407E+03  1.73934E+04 -1.42395E+04  1.25178E+04 -1.89369E+04  2.15148E+03 -1.51255E+04 -6.22720E+03
 -7.17004E+03 -1.18724E+04 -5.10311E+02 -1.08256E+04  4.10408E+03 -5.36021E+03  3.73420E+03 -3.71918E+03
  2.67146E+03 -1.99716E+03  3.15417E+03 -3.39302E+03  4.43542E+03 -2.28487E+03  5.80330E+03 -3.31983E+02
  8.18962E+03  1.84014E+03  3.48261E+03  7.07345E+03 -1.89872E+03  7.58910E+03 -8.71705E+03  5.33033E+03
 -1.05364E+04 -1.26361E+03 -6.38444E+03 -7.30481E+03 -9.95998E+02 -1.06035E+04  6.44929E+03 -1.08364E+04
  1.17418E+04 -6.12335E+03  1.39611E+04  1.43087E+03  9.40640E+03  9.22181E+03  8.45886E+02  1.26522E+04
 -4.58811E+03  1.06027E+04 -6.98457E+03  3.74517E+03 -4.74727E+03 -2.31340E+03 -1.42159E+03 -1.41629E+03
 -8.93931E+02 -8.06744E+02 -1.75180E+03  2.09236E+03 -3.89311E+03  1.60196E+03 -7.66684E+03 -7.60618E+02
 -5.39162E+03 -7.22048E+03  6.30934E+02 -1.02855E+04  6.63675E+03 -9.25803E+03  1.00129E+04 -2.96959E+03
  9.51843E+03  4.54749E+03  4.87061E+03  8.23643E+03 -2.03482E+03  1.02561E+04 -7.06766E+03  5.97819E+03
 -9.26918E+03  7.07336E+02 -7.18262E+03 -5.41212E+03 -5.66928E+02 -8.49961E+03  4.36741E+03 -5.37174E+03
  6.00257E+03 -1.90950E+03  3.90015E+03  1.77906E+03  1.07444E+03  3.50109E+03  8.07451E+02  1.57011E+03
  2.71884E+03  6.27211E+02  1.94667E+03  1.54373E+03  2.69195E+03  4.01580E+03  2.07092E+03  5.12885E+03
 -1.70580E+03  7.82447E+03 -6.24075E+03  8.20653E+03 -9.60155E+03  2.60791E+03 -1.01826E+04 -2.85784E+03
 -4.31636E+03 -9.16361E+03  1.21031E+03 -1.09126E+04  5.29432E+03 -6.81726E+03  7.63750E+03 -2.42202E+03
  6.27782E+03  2.71396E+03  1.11975E+03  5.37981E+03 -2.79656E+03  3.73364E+03 -3.33456E+03 -1.26708E+02
 -9.63882E+02 -4.11190E+03  1.87303E+03 -4.68047E+03  3.46164E+03 -1.90097E+03  2.88562E+03  7.87178E+02
  2.40130E+03  1.86740E+03  1.28694E+03  1.74355E+03 -8.73509E+02  1.31411E+03  1.95684E+03 -6.79075E+01
  1.47414E+03 -3.54360E+02  3.36961E+03  1.40690E+03  2.26228E+03  5.54240E+03 -1.11338E+03  6.56608E+03
 -4.39434E+03  4.41168E+03 -6.37032E+03  1.00275E+03 -4.84364E+03 -2.24153E+03 -1.34794E+03 -3.77972E+03
 -5.64876E+01 -3.55513E+03  1.91486E+03 -7.10875E+02  1.80339E+03  2.06216E+03 -1.41886E+03  2.78394E+03
 -3.87742E+03  1.62398E+03 -4.25320E+03 -1.82824E+03 -2.25150E+03 -5.01267E+03  5.61663E+02 -4.18912E+03
  1.40069E+03 -2.62014E+03  3.24978E+03  1.08246E+02  3.08171E+03  2.26692E+02  8.06138E+02  2.30388E+03
 -2.26540E+03  1.15149E+03 -2.17657E+03 -1.87692E+03  8.94188E+02 -2.76674E+03  4.42039E+03 -2.54180E+03
  4.78425E+03  2.17377E+02  5.84881E+03  3.11265E+03  2.16961E+03  5.62337E+03 -1.49462E+03  5.20966E+03
 -3.98633E+03  2.07742E+03 -4.74392E+03 -7.24109E+02 -2.17472E+03 -3.16484E+03  5.58835E+02 -3.23937E+03
  3.59241E+03 -7.93499E+02  2.34735E+03  1.97177E+03  6.43583E+02  3.24295E+03 -1.11617E+03  3.09311E+03
 -2.58667E+02  1.95908E+03 -5.85838E+02  5.70107E+02 -1.33981E+03  3.12172E+02 -8.27771E+02  1.16609E+03
 -1.62556E+03  2.67830E+03 -3.96663E+03  1.62271E+03 -5.43709E+03  1.09306E+02 -6.25201E+03 -2.53437E+03
 -3.04120E+03 -6.19849E+03  2.00619E+03 -8.17812E+03  5.15134E+03 -5.91827E+03  7.67158E+03 -2.68375E+03
  7.64209E+03  1.62924E+03  4.04754E+03  4.94008E+03 -1.22526E+02  5.03812E+03 -2.05377E+03  3.91747E+03
 -3.31040E+03  2.08210E+03 -1.51520E+03 -1.56731E+03 -2.05075E+03  2.62888E+02 -8.30172E+02  3.55107E+02
 -1.23102E+03  4.51829E+02 -1.38210E+03 -6.74671E+01  3.79354E+02 -1.69718E+03  6.41134E+02 -2.67021E+03
  2.56816E+03 -1.82967E+03  2.79202E+03  4.27309E+02  3.66686E+03  3.08571E+03  2.10998E+02  4.61039E+03
 -2.88502E+03  5.69796E+03 -5.08656E+03  3.19353E+03 -5.97786E+03 -1.21116E+03 -5.17732E+03 -3.68770E+03
 -1.93822E+03 -5.43106E+03  1.43103E+03 -4.36339E+03  2.94182E+03 -2.62508E+03  2.30709E+03  1.78239E+02
  1.71362E+03  1.59419E+03 -3.66755E+02  1.70312E+03 -1.60876E+03  2.44471E+02  1.03735E+02 -1.12891E+03
  1.85658E+03 -1.10205E+02  2.06532E+03  1.39605E+02  8.39717E+02  1.92432E+03 -7.18775E+01  2.18109E+03
 -2.00888E+03  2.23980E+03 -3.01263E+03  2.38051E+02 -3.04165E+03 -1.87272E+03 -3.45593E+02 -3.61848E+03
  2.61394E+03 -3.08720E+03  3.52587E+03 -1.15361E+03  4.40666E+03  7.78797E+02  2.35035E+03  3.11193E+03
  7.18291E+02  3.29934E+03 -6.04110E+02  2.51782E+03 -1.88974E+03  1.92391E+03 -2.09510E+03 -1.63340E+02
 -7.42153E+02  1.35915E+02 -7.56303E+02  2.38143E+02 -1.79802E+03  3.69832E+00 -2.46476E+03 -3.51665E+02
 -2.30177E+03 -6.99420E+02 -4.72535E+02 -2.61155E+03  1.76112E+03 -3.83462E+03  2.48295E+03 -2.01843E+03
  3.27133E+03  7.66905E+02  1.49996E+03  1.92828E+03 -1.30396E+02  2.62572E+03 -2.11671E+03  1.94881E+03
