 $NMID ID='MM_0lb_SNR400_8hz_g45_76.RAW', FMTDAT='(8E13.5)'
 TRAMP=1., VOLUME=1. $END
  3.10059E+05  5.83887E+02  3.37832E+05  2.50715E+05  8.48844E+04  3.38371E+05 -1.32548E+05  2.52011E+05
 -1.91132E+05  8.37285E+04 -1.11831E+05 -3.22508E+04  1.28857E+02 -5.06895E+04  5.38050E+04 -5.48773E+02
  3.54454E+04  5.33309E+04 -1.70522E+04  7.59567E+04 -6.10116E+04  6.51583E+04 -8.56634E+04  3.22352E+04
 -8.26837E+04 -1.14926E+04 -5.75644E+04 -5.22962E+04 -1.57335E+04 -7.15398E+04  2.74706E+04 -4.76457E+04
  4.11735E+04  3.52305E+03  1.62487E+04  4.90481E+04 -3.52077E+04  4.78784E+04 -6.87505E+04  2.08983E+01
 -5.52168E+04 -5.76356E+04 -7.78442E+03 -7.95938E+04  3.48530E+04 -5.76281E+04  4.99893E+04 -1.82150E+04
  4.56311E+04  1.12671E+04  3.35854E+04  2.65312E+04  1.54569E+04  3.09352E+04 -6.09830E+03  2.77523E+04
 -2.30727E+04  1.27271E+04 -1.83708E+04 -5.65380E+03  7.53744E+03 -7.68606E+03  2.36370E+04  1.39572E+04
  6.69084E+03  3.77777E+04 -3.33961E+04  3.71343E+04 -6.50172E+04  9.58782E+02 -5.87736E+04 -4.43275E+04
 -1.36042E+04 -6.63294E+04  4.19685E+04 -4.74933E+04  6.22296E+04 -2.68520E+03  3.69733E+04  3.49851E+04
 -5.56444E+03  3.92589E+04 -3.17912E+04  1.82579E+04 -3.33389E+04 -3.60711E+03 -1.98474E+04 -1.16316E+04
 -9.75326E+03 -1.51841E+04  5.08442E+02 -1.93778E+04  9.90355E+03 -2.37967E+04  1.63726E+04 -1.20468E+04
  1.00706E+04  5.66139E+03 -1.14140E+04  1.28895E+04 -2.36058E+04 -6.52509E+03 -7.40058E+03 -3.82126E+04
  2.65299E+04 -4.77115E+04  5.22774E+04 -2.09149E+04  4.86558E+04  2.08843E+04  1.77354E+04  4.73250E+04
 -1.68576E+04  3.66164E+04 -2.81114E+04  2.27616E+03 -1.22016E+04 -2.96950E+04  2.15920E+04 -3.69132E+04
  4.54247E+04 -1.08132E+04  4.10315E+04  2.50832E+04  2.13295E+04  5.13462E+04 -8.40432E+03  5.71366E+04
 -3.58443E+04  3.81857E+04 -4.85867E+04  1.10081E+04 -4.78317E+04 -1.90321E+04 -2.63414E+04 -4.24573E+04
  7.07368E+03 -4.29333E+04  3.52428E+04 -1.66198E+04  3.15972E+04  1.11989E+04  5.23336E+03  2.07846E+04
 -1.37582E+04  1.03653E+04 -1.12173E+04 -8.15147E+03  5.66006E+03 -1.13554E+04  1.85728E+04  6.06346E+03
  1.48186E+04  2.28896E+04 -5.07922E+03  2.79207E+04 -2.39155E+04  1.46102E+04 -3.27122E+04 -3.04756E+03
 -2.58185E+04 -1.83164E+04 -1.22576E+04 -2.54678E+04  4.71679E+03 -2.62687E+04  1.97482E+04 -2.37736E+04
  3.34950E+04 -1.41212E+04  3.85434E+04  5.17757E+03  2.84049E+04  2.53692E+04  4.05968E+03  4.16763E+04
 -2.00926E+04  3.36525E+04 -3.00004E+04  1.19901E+04 -2.24010E+04 -1.03817E+04 -4.30336E+03 -1.29935E+04
  1.66058E+03 -1.90661E+03 -7.39786E+03  8.93515E+03 -2.11457E+04  5.17820E+03 -2.05042E+04 -9.12435E+03
 -1.20650E+04 -2.41028E+04  6.68580E+03 -2.78139E+04  1.92339E+04 -2.03841E+04  2.29429E+04 -2.01453E+03
  1.52524E+04  1.66584E+04 -1.52532E+03  2.36622E+04 -1.69413E+04  1.40344E+04 -2.39980E+04 -4.79913E+03
 -1.71121E+04 -2.09144E+04 -2.10545E+03 -2.87626E+04  1.22878E+04 -2.44160E+04  2.43013E+04 -1.26765E+04
  2.19526E+04 -9.76347E+02  1.70431E+04  5.62063E+03  9.70340E+03  1.79990E+03  1.30016E+04 -2.03674E+03
  2.28114E+04  3.78718E+03  2.61633E+04  1.82067E+04  1.80827E+04  3.82140E+04 -2.88703E+03  4.60430E+04
 -2.58091E+04  3.83235E+04 -4.24455E+04  1.99210E+04 -4.68692E+04 -4.26420E+03 -3.64183E+04 -2.75648E+04
 -1.44082E+04 -3.92569E+04  1.32989E+04 -3.35152E+04  2.87691E+04 -1.50984E+04  2.33441E+04  8.26766E+03
  7.81813E+03  2.02478E+04 -1.20671E+04  1.63718E+04 -2.05077E+04  2.76570E+03 -1.55194E+04 -1.35307E+04
 -3.80050E+02 -2.04277E+04  1.00371E+04 -1.55947E+04  1.29536E+04 -1.33720E+03  2.92045E+03  9.71393E+03
 -9.32173E+03  4.26785E+03 -1.00952E+04 -7.65506E+03 -1.53903E+03 -1.88141E+04  1.08918E+04 -2.08215E+04
  2.42292E+04 -1.15459E+04  2.72550E+04  4.42578E+03  2.34809E+04  1.93160E+04  1.11797E+04  3.07777E+04
 -5.07471E+03  3.27129E+04 -2.14568E+04  2.03509E+04 -2.33185E+04  4.70824E+03 -1.61078E+04 -5.90169E+03
 -7.33398E+03 -7.79038E+03 -9.11411E+02  8.54835E+01 -3.08149E+03  3.95801E+03 -7.71178E+03  5.23251E+03
 -1.50293E+04 -7.96215E+02 -1.64569E+04 -1.22635E+04 -6.84900E+03 -1.99118E+04  6.47514E+03 -1.69102E+04
  1.34268E+04 -6.94001E+03  9.24333E+03  4.95665E+03 -4.55764E+02  7.39767E+03 -8.70209E+03 -4.80157E+01
 -7.55924E+03 -9.83828E+03 -1.01074E+03 -1.64482E+04  9.32054E+03 -1.69105E+04  2.16193E+04 -8.54569E+03
  2.47715E+04  2.76051E+03  1.84813E+04  1.53755E+04  3.15779E+03  1.99120E+04 -9.33151E+03  1.61858E+04
 -1.28339E+04  4.84422E+03 -6.19936E+03 -3.60429E+03  2.14715E+03 -4.78965E+03  8.84207E+03 -4.48384E+02
  7.93993E+03  7.14068E+03  1.19151E+03  1.35177E+04 -9.31272E+03  1.19178E+04 -1.63760E+04  2.91367E+03
 -1.07950E+04 -9.32902E+03 -4.23018E+02 -1.41105E+04  9.04933E+03 -7.45625E+03  1.00092E+04  3.11479E+03
  1.91635E+03  1.04940E+04 -8.99273E+03  1.27112E+04 -1.51311E+04  4.84352E+03 -1.54263E+04 -6.35123E+03
 -8.82878E+03 -1.68228E+04  3.90890E+03 -1.87095E+04  1.58299E+04 -1.15900E+04  1.68413E+04  2.88536E+03
  1.04383E+04  1.28829E+04 -1.04185E+03  1.71187E+04 -1.23912E+04  9.19347E+03 -1.30622E+04 -8.87735E+02
 -1.10174E+04 -1.07296E+04 -1.19818E+03 -1.22934E+04  6.97005E+03 -1.01426E+04  8.41479E+03 -3.82397E+03
  4.75140E+03  2.05849E+03 -1.40078E+03  2.38604E+03 -3.87155E+02 -3.87737E+03  3.16059E+03 -7.94080E+03
  1.25597E+04 -5.93893E+03  1.70923E+04  1.83931E+03  1.65937E+04  1.15661E+04  1.06596E+04  2.26644E+04
 -5.69510E+03  2.57942E+04 -2.16079E+04  1.90652E+04 -2.69060E+04  3.72381E+03 -2.21698E+04 -9.98910E+03
 -1.14910E+04 -1.80676E+04 -1.28083E+03 -1.62467E+04  5.37290E+03 -9.42772E+03  5.95078E+03 -5.64869E+03
  4.97666E+03 -3.10661E+03  3.46476E+03 -3.69238E+03  6.12800E+03 -3.23152E+03  8.03352E+03 -2.07070E+03
  1.18784E+04  2.37337E+03  6.30732E+03  1.02634E+04 -2.97494E+03  1.25148E+04 -1.18443E+04  9.21820E+03
 -1.60108E+04 -1.13445E+03 -9.70631E+03 -1.13843E+04 -1.13638E+03 -1.70296E+04  8.65194E+03 -1.70700E+04
  1.83229E+04 -8.48177E+03  2.05747E+04  3.33228E+03  1.39815E+04  1.51874E+04  2.65018E+03  1.97888E+04
 -7.36652E+03  1.52893E+04 -1.15848E+04  6.18116E+03 -7.89980E+03 -2.00412E+03 -3.75112E+03 -2.48729E+03
 -1.51400E+03  3.87963E+01 -2.33162E+03  4.21127E+03 -7.34860E+03  2.32132E+03 -1.13594E+04 -1.34706E+03
 -8.01609E+03 -1.10736E+04  6.99901E+02 -1.60818E+04  9.79311E+03 -1.49407E+04  1.64431E+04 -4.21687E+03
  1.59135E+04  7.42422E+03  7.38954E+03  1.45711E+04 -3.05729E+03  1.63330E+04 -1.10338E+04  1.08951E+04
 -1.51516E+04  9.55671E+02 -1.16172E+04 -1.02150E+04 -9.77729E+02 -1.36829E+04  6.38038E+03 -9.51620E+03
  1.01241E+04 -3.19091E+03  6.98430E+03  3.49305E+03  2.65417E+03  5.04718E+03  1.87171E+03  2.17276E+03
  2.39220E+03  1.63897E+03  5.15807E+03  3.12486E+03  4.94370E+03  5.36908E+03  4.35383E+03  8.75950E+03
 -3.63732E+03  1.26739E+04 -1.03129E+04  1.27569E+04 -1.73590E+04  3.67461E+03 -1.76757E+04 -7.40304E+03
 -8.89983E+03 -1.60185E+04  2.97923E+03 -1.86349E+04  1.01162E+04 -1.15177E+04  1.38436E+04 -3.18552E+03
  1.04860E+04  5.89147E+03  2.47123E+03  8.58491E+03 -4.40592E+03  5.85381E+03 -7.29948E+03 -1.10611E+03
 -3.63081E+03 -7.29495E+03  4.41075E+03 -7.36370E+03  6.41764E+03 -3.65193E+03  7.34507E+03  5.04178E+02
  4.03954E+03  3.95278E+03  1.78914E+03  2.83799E+03 -3.66989E+02  2.13117E+03  1.23523E+03 -2.40860E+02
  3.48340E+03 -1.25189E+03  6.80304E+03  2.78563E+03  3.99391E+03  9.48268E+03 -1.76073E+03  1.19350E+04
 -8.81757E+03  8.52645E+03 -9.75972E+03  1.68361E+03 -9.54627E+03 -3.87185E+03 -3.41476E+03 -6.90069E+03
  1.64947E+03 -7.29552E+03  4.19722E+03 -3.24279E+03  4.59129E+03  4.11022E+03 -1.42425E+03  5.22561E+03
 -6.76346E+03  3.52655E+03 -7.85853E+03 -3.72800E+03 -3.92050E+03 -8.68134E+03  2.02729E+03 -9.04348E+03
  5.40277E+03 -5.59759E+03  7.19369E+03 -8.54052E+02  5.68274E+03  2.90150E+03  9.91262E+02  5.37761E+03
 -3.48265E+03  1.01410E+03 -4.55412E+03 -3.13133E+03  1.99575E+03 -6.64515E+03  8.72302E+03 -5.65405E+03
  1.12112E+04  2.34822E+02  1.06578E+04  7.88459E+03  4.31623E+03  1.14672E+04 -4.33711E+03  1.04037E+04
 -8.36968E+03  4.72414E+03 -9.05114E+03 -1.11850E+03 -4.78013E+03 -7.96740E+03  2.18489E+03 -6.79492E+03
  7.29503E+03 -2.71806E+03  5.64523E+03  2.70477E+03  1.21414E+03  6.62092E+03 -1.12125E+03  4.74706E+03
 -2.72248E+03  2.32781E+03 -2.31071E+03  1.02546E+03 -1.61722E+03  5.86627E+02 -1.83330E+03  1.69341E+03
 -3.55111E+03  4.30211E+03 -7.78975E+03  4.28968E+03 -1.10238E+04  1.15911E+02 -1.38614E+04 -7.92903E+03
 -6.64128E+03 -1.56031E+04  3.81460E+03 -1.78584E+04  1.02556E+04 -1.29549E+04  1.67043E+04 -4.12094E+03
  1.54475E+04  3.19172E+03  9.54644E+03  1.03373E+04  5.52753E+02  1.15934E+04 -3.55177E+03  8.78517E+03
 -6.87720E+03  2.42374E+03 -3.35793E+03 -1.83977E+03 -1.47078E+03 -2.30072E+03 -7.60215E+02 -9.05486E+02
 -1.56491E+03 -2.56529E+02 -1.83567E+03 -1.14443E+02 -1.61620E+03 -3.02509E+03  8.05934E+02 -4.47635E+03
  5.21394E+03 -3.83835E+03  7.17327E+03 -2.09180E+02  8.00933E+03  6.85757E+03  2.49808E+03  1.22715E+04
 -6.01986E+03  1.33517E+04 -1.21104E+04  7.95827E+03 -1.43609E+04 -9.59246E+02 -1.13078E+04 -9.99328E+03
 -4.81111E+03 -1.24105E+04  2.80371E+03 -1.11109E+04  8.55278E+03 -6.80623E+03  7.60508E+03  1.13331E+02
  4.44740E+03  4.15045E+03 -8.35684E+02  3.32919E+03 -2.65183E+03  1.28040E+02  3.14102E+02 -2.54031E+03
  4.56627E+03 -2.27442E+03  4.61503E+03  1.44194E+03  3.78990E+03  4.74527E+03  4.95634E+02  7.46748E+03
 -5.18952E+03  5.98253E+03 -8.18555E+03  1.22739E+03 -7.76383E+03 -6.34754E+03 -1.15359E+03 -1.02997E+04
  6.90561E+03 -8.49808E+03  1.02846E+04 -3.16335E+03  9.25707E+03  3.04596E+03  5.31081E+03  7.27993E+03
  6.56867E+02  8.26765E+03 -2.82879E+03  6.93099E+03 -5.43892E+03  3.16808E+03 -4.36749E+03  2.63533E+02
 -1.59421E+03 -7.83955E+02 -2.32814E+03  5.70664E+02 -4.29130E+03  1.44285E+03 -6.64336E+03 -3.38077E+02
 -6.62750E+03 -4.76569E+03 -1.49611E+03 -8.08024E+03  3.36824E+03 -8.82923E+03  7.45200E+03 -5.36710E+03
  8.01159E+03  1.13044E+03  4.44617E+03  5.74872E+03 -8.80586E+02  7.68370E+03 -6.76816E+03  5.90924E+03
