 $NMID ID='MM_0lb_SNR400_17hz_g45_91.RAW', FMTDAT='(8E13.5)'
 TRAMP=1., VOLUME=1. $END
  3.09679E+05 -2.80753E+01  3.37977E+05  2.49965E+05  8.42501E+04  3.37188E+05 -1.32206E+05  2.50402E+05
 -1.89616E+05  8.30989E+04 -1.11188E+05 -3.22934E+04  1.61772E+03 -5.00977E+04  5.39496E+04  3.01370E+02
  3.50252E+04  5.28298E+04 -1.61722E+04  7.44238E+04 -6.04414E+04  6.28797E+04 -8.36811E+04  3.22312E+04
 -8.03839E+04 -1.09902E+04 -5.64343E+04 -5.07477E+04 -1.54735E+04 -6.84329E+04  2.68117E+04 -4.46634E+04
  3.95027E+04  4.24799E+03  1.55326E+04  4.69688E+04 -3.41363E+04  4.63679E+04 -6.59908E+04 -3.85202E+02
 -5.26464E+04 -5.65753E+04 -6.53717E+03 -7.51503E+04  3.30899E+04 -5.38401E+04  4.72600E+04 -1.64039E+04
  4.22541E+04  1.07742E+04  3.10434E+04  2.43962E+04  1.58974E+04  2.81862E+04 -4.78750E+03  2.69304E+04
 -2.22611E+04  1.33700E+04 -1.86056E+04 -4.35737E+03  4.16580E+03 -7.13924E+03  2.15647E+04  1.09732E+04
  7.12336E+03  3.41471E+04 -3.08919E+04  3.41093E+04 -6.23364E+04  1.94574E+03 -5.61734E+04 -4.15157E+04
 -1.27108E+04 -6.08902E+04  3.83366E+04 -4.39155E+04  5.59168E+04 -1.93756E+03  3.26514E+04  3.13537E+04
 -5.79633E+03  3.41241E+04 -2.86308E+04  1.38101E+04 -2.80423E+04 -4.80955E+03 -1.47148E+04 -1.03460E+04
 -7.81926E+03 -1.16303E+04 -2.91956E+02 -1.68545E+04  6.92200E+03 -2.23923E+04  1.51936E+04 -1.38846E+04
  1.14539E+04  5.02330E+03 -6.48422E+03  1.31603E+04 -2.02754E+04 -3.72664E+03 -7.87696E+03 -3.11073E+04
  2.13000E+04 -4.15047E+04  4.61469E+04 -1.84171E+04  4.25194E+04  1.87922E+04  1.47119E+04  4.26653E+04
 -1.50803E+04  3.11179E+04 -2.40006E+04  1.82890E+03 -9.05364E+03 -2.71096E+04  2.06609E+04 -3.25345E+04
  3.85179E+04 -8.38679E+03  3.24613E+04  2.28796E+04  1.60880E+04  4.33450E+04 -8.23388E+03  4.65478E+04
 -2.95142E+04  3.05069E+04 -3.82620E+04  8.88050E+03 -3.93632E+04 -1.54519E+04 -2.14466E+04 -3.53004E+04
  6.42945E+03 -3.51229E+04  2.98315E+04 -1.34115E+04  2.79511E+04  1.09722E+04  3.03158E+03  1.81246E+04
 -1.34716E+04  7.74550E+03 -1.00270E+04 -7.96210E+03  5.64148E+03 -1.00274E+04  1.76540E+04  6.12564E+03
  1.22818E+04  2.16179E+04 -5.78136E+03  2.37396E+04 -2.14742E+04  1.00654E+04 -2.61332E+04 -6.15007E+03
 -1.81681E+04 -1.70662E+04 -6.10695E+03 -1.81815E+04  4.12515E+03 -1.54215E+04  1.28130E+04 -1.51543E+04
  2.21456E+04 -1.21151E+04  2.90149E+04  1.06450E+03  2.19762E+04  1.70021E+04  4.34681E+03  3.35709E+04
 -1.56498E+04  2.81504E+04 -2.58355E+04  9.54512E+03 -2.01173E+04 -1.02457E+04 -3.72326E+03 -1.39365E+04
  2.96796E+03 -3.68236E+03 -3.37550E+03  5.52017E+03 -1.36987E+04  5.24590E+03 -1.36679E+04 -5.23017E+03
 -8.83622E+03 -1.65726E+04  4.89538E+03 -2.01849E+04  1.32136E+04 -1.45979E+04  1.56615E+04 -2.04009E+03
  9.72208E+03  1.17697E+04 -1.14962E+03  1.63877E+04 -1.12016E+04  9.89995E+03 -1.62985E+04 -3.76280E+03
 -1.24176E+04 -1.48170E+04 -1.61830E+03 -2.00212E+04  8.85774E+03 -1.63157E+04  1.73817E+04 -7.56707E+03
  1.51785E+04  2.96862E+02  1.11991E+04  4.02884E+03  5.84571E+03  4.14321E+02  8.56929E+03 -1.81853E+03
  1.42462E+04  2.85581E+03  1.61818E+04  1.36259E+04  1.00025E+04  2.63027E+04 -3.21562E+03  2.81388E+04
 -1.70378E+04  2.22526E+04 -2.60229E+04  1.08190E+04 -2.75144E+04 -1.68768E+03 -2.27339E+04 -1.50706E+04
 -1.00029E+04 -2.22304E+04  7.61090E+03 -1.99933E+04  1.81005E+04 -1.09816E+04  1.69961E+04  4.40319E+03
  7.04205E+03  1.18348E+04 -7.02265E+03  1.08096E+04 -1.36772E+04  2.51406E+03 -1.09898E+04 -8.24253E+03
 -1.62395E+02 -1.29474E+04  5.95312E+03 -9.79792E+03  8.40925E+03 -1.66461E+03  1.91146E+03  5.21173E+03
 -5.58844E+03  1.31384E+03 -3.54593E+03 -4.57382E+03  2.70199E+02 -1.02834E+04  7.77788E+03 -1.05839E+04
  1.35510E+04 -5.80627E+03  1.30458E+04  3.33428E+03  1.19486E+04  1.06849E+04  5.38518E+03  1.59251E+04
 -1.99076E+03  1.74784E+04 -1.08146E+04  1.16245E+04 -1.18444E+04  3.24463E+03 -9.20321E+03 -2.17889E+03
 -4.68262E+03 -3.63795E+03 -8.21819E+02  1.20746E+03 -2.27180E+03  2.31064E+03 -4.17014E+03  3.49348E+03
 -9.53634E+03 -7.08234E+02 -9.12041E+03 -7.84128E+03 -3.81823E+03 -1.23835E+04  3.56345E+03 -8.43405E+03
  7.72413E+03 -4.08252E+03  5.99112E+03  2.20239E+03  4.12353E+02  3.59292E+03 -3.80852E+03  1.65724E+02
 -3.89089E+03 -5.87647E+03 -5.56871E+02 -7.63727E+03  3.75691E+03 -8.71073E+03  1.11862E+04 -4.77048E+03
  1.32454E+04  5.35889E+02  9.65895E+03  7.05782E+03  1.98916E+03  9.88322E+03 -5.44945E+03  9.88136E+03
 -7.16028E+03  2.86098E+03 -3.68601E+03 -1.45725E+03  8.48598E+02 -2.31744E+03  4.93500E+03 -1.49399E+03
  4.11261E+03  4.42909E+03  9.23544E+02  7.33150E+03 -5.24584E+03  6.48855E+03 -8.88618E+03  1.63055E+03
 -5.81167E+03 -3.88364E+03  3.18866E+02 -7.57548E+03  3.95965E+03 -3.44135E+03  4.01944E+03  1.28762E+03
  7.75322E+02  4.17466E+03 -4.62030E+03  5.56097E+03 -5.67185E+03  2.89672E+03 -5.40598E+03 -8.92542E+02
 -3.47396E+03 -6.47888E+03  1.52220E+03 -7.97181E+03  6.21592E+03 -4.72853E+03  7.60725E+03  1.35178E+03
  5.26078E+03  5.84013E+03 -2.56999E+02  8.30122E+03 -5.72481E+03  4.89048E+03 -5.80835E+03 -2.50379E+02
 -6.30419E+03 -6.26119E+03 -1.27734E+03 -6.26670E+03  3.08134E+03 -5.69921E+03  3.40680E+03 -2.72547E+03
  3.65150E+03  1.05811E+03 -2.28000E+02  1.19961E+03  4.60051E+02 -2.82792E+02  3.19290E+02 -2.74003E+03
  4.63538E+03 -1.39725E+03  5.57980E+03  7.62192E+02  6.32376E+03  3.74205E+03  6.39720E+03  8.26256E+03
 -1.34812E+03  9.85117E+03 -8.64101E+03  7.69914E+03 -1.18945E+04  1.06267E+03 -8.86114E+03 -2.90847E+03
 -4.91881E+03 -7.86671E+03 -6.62471E+02 -5.97601E+03  2.59383E+03 -2.67539E+03  2.01095E+03 -2.68648E+03
  1.78176E+03 -1.54175E+03  1.61066E+03 -2.28931E+03  3.23532E+03 -1.55744E+03  3.59390E+03  4.62085E+02
  4.83183E+03  1.61302E+03  1.45826E+03  4.04527E+03 -1.94071E+03  3.61527E+03 -5.31498E+03  2.86309E+03
 -5.76521E+03 -1.08498E+03 -2.63821E+03 -4.17056E+03  3.30930E+02 -6.18315E+03  3.35170E+03 -6.53642E+03
  5.66669E+03 -3.44370E+03  7.83687E+03  8.14298E+02  5.48860E+03  4.77155E+03  1.24345E+03  6.47953E+03
 -3.05790E+03  5.87972E+03 -3.79507E+03  1.99951E+03 -2.44325E+03 -9.23891E+02 -6.94148E+02 -1.21483E+03
 -3.47421E+02  7.21714E+02 -1.15209E+03  2.08573E+03 -2.63669E+03  9.97918E+02 -4.82523E+03 -7.41347E+02
 -2.21304E+03 -4.00765E+03  8.04225E+02 -5.85397E+03  3.92265E+03 -5.10918E+03  4.42876E+03 -1.46492E+03
  4.45394E+03  2.62057E+03  2.52076E+03  4.10454E+03 -8.60090E+02  5.32076E+03 -3.39345E+03  3.21803E+03
 -4.15366E+03  2.26201E+02 -4.34656E+03 -2.99210E+03  2.91578E+01 -3.05569E+03  1.63969E+03 -3.20442E+03
  3.08713E+03 -1.27711E+03  2.42618E+03  4.78196E+02  3.23619E+02  2.05569E+03  6.27403E+02  4.94036E+02
  2.21430E+03  1.28749E+02  1.43063E+03  1.29142E+03  7.36420E+02  2.41353E+03  1.40195E+03  1.82541E+03
 -1.35740E+03  3.62974E+03 -2.98071E+03  4.68357E+03 -4.42280E+03  1.02324E+03 -4.88842E+03 -9.55771E+02
 -2.45583E+03 -4.65698E+03  7.85569E+02 -5.77331E+03  2.08780E+03 -3.04972E+03  4.06271E+03 -1.20600E+03
  3.09865E+03  2.22088E+03  3.60745E+02  2.65542E+03 -1.14895E+03  1.29117E+03 -8.44480E+02  1.04329E+01
 -5.69252E+02 -2.00490E+03  1.93725E+03 -2.16435E+03  1.94157E+03 -8.08335E+02  1.81927E+03  8.45041E+01
  1.24324E+03  7.33277E+02  9.72828E+02 -2.48555E+02 -1.11296E+02  7.55918E+02  1.32977E+03 -1.76454E+02
  1.53145E+01 -4.88536E+02  1.88524E+03  1.32412E+03  7.80941E+02  2.44501E+03 -2.64003E+02  3.53478E+03
 -1.75739E+03  1.58982E+03 -2.52266E+03 -1.59835E+02 -2.52071E+03 -7.51817E+02 -7.24880E+02 -1.44148E+03
  7.28688E+02 -1.63160E+03  1.23485E+03 -4.79016E+02  6.75471E+02  1.33586E+03 -8.49350E+02  1.31231E+03
 -2.28636E+03  9.96183E+02 -8.12509E+02 -1.45883E+03 -8.87249E+02 -2.96546E+03  6.14258E+01 -1.88186E+03
  6.46062E+02 -7.87651E+02  1.59860E+03  2.21491E+01  1.46436E+03 -5.24475E+02  7.64761E+01  1.56022E+03
 -4.84296E+02 -6.37686E+00 -1.18796E+03 -4.25365E+02  4.96285E+02 -1.29019E+03  1.60665E+03 -1.04305E+03
  2.27790E+03  6.28253E+02  3.51086E+03  1.04918E+03  1.13596E+03  2.41571E+03 -8.19161E+02  2.32796E+03
 -1.99096E+03 -5.27211E+01 -1.74893E+03  2.53522E+02 -1.28171E+03 -1.76219E+03  8.08428E+00 -1.04584E+03
  1.68794E+03 -1.35094E+03  4.56824E+02  1.25294E+03  3.35713E+02  2.09467E+03  5.22913E+02  1.59874E+03
 -3.43224E+02  9.31521E+02 -4.78789E+02  6.46511E+01  4.86310E+02 -8.29121E+01 -4.85669E+02  1.03148E+03
 -5.20347E+02  7.68373E+02 -1.67382E+03  5.57381E+02 -2.33602E+03  5.25643E+02 -3.28318E+03 -1.31999E+03
 -1.37401E+03 -3.02036E+03  9.30624E+02 -3.51234E+03  1.84765E+03 -2.66945E+03  3.26404E+03 -1.06338E+03
  2.93655E+03  1.36206E+02  1.76769E+03  2.12510E+03 -5.45264E+02  2.48560E+03 -1.01093E+03  1.85592E+03
 -1.41339E+03  5.64910E+02 -6.91474E+02  8.87190E+01 -4.19487E+01  2.05028E+02 -6.09463E+02 -4.61313E+01
 -1.09903E+03 -3.75299E+02 -6.44423E+02  2.98982E+02  3.29179E+02 -6.95961E+02  3.84064E+01 -1.21102E+03
  1.13544E+03 -9.87307E+02  1.22591E+03  2.68229E+02  1.24812E+03  1.81639E+03 -5.04111E+02  2.28066E+03
 -1.63583E+03  2.92740E+03 -2.39963E+03  1.85237E+03 -2.23009E+03 -4.00347E+00 -1.81138E+03 -1.77814E+03
 -1.09086E+03 -2.11369E+03  2.35008E+02 -1.82524E+03  8.22358E+02 -7.46394E+02  1.02962E+03  8.03364E+02
  1.05878E+03  6.63084E+02 -3.26847E+02  9.47054E+02 -4.66704E+02 -6.33949E+02  2.26443E+02 -2.66520E+02
  4.68985E+02  7.03043E+01  7.56043E+02  6.76691E+02  7.63907E+01  5.26741E+02  2.21131E+02 -1.04314E+01
 -9.77984E+02  6.37745E+02 -9.19189E+02  6.08770E+01 -9.06379E+02 -1.19471E+03  2.27497E+02 -1.32143E+03
  6.77567E+02 -1.20187E+03  1.19529E+03 -5.52344E+02  1.11671E+03 -2.75748E+02  1.30765E+03  7.49357E+02
  3.78905E+02  8.41545E+02 -9.87549E+00  5.13541E+02 -7.90160E+02  7.17981E+02 -4.76149E+02 -1.91668E+02
 -1.12735E+03 -6.42728E+01  2.94478E+02  2.56118E+02 -9.70951E+02  6.81018E+02 -7.02371E+02  7.13704E+00
 -1.65680E+03 -5.98731E+01 -7.48598E+02 -1.34050E+03  8.83224E+02 -1.48667E+03  1.16189E+03 -6.94315E+02
  1.39285E+03  1.06247E+01  2.10205E+02  6.07412E+02 -3.63963E+00  1.18354E+03 -3.41423E+02  1.33127E+03
