 $NMID ID='MM_0lb_SNR400_10hz_g60_5.RAW', FMTDAT='(8E13.5)'
 TRAMP=1., VOLUME=1. $END
  3.10515E+05  2.13630E+02  3.37555E+05  2.50920E+05  8.49094E+04  3.38774E+05 -1.33072E+05  2.51943E+05
 -1.90921E+05  8.36782E+04 -1.12879E+05 -3.23840E+04  3.17899E+02 -4.98864E+04  5.38997E+04 -5.06375E+02
  3.51166E+04  5.31417E+04 -1.67640E+04  7.60946E+04 -6.15455E+04  6.43812E+04 -8.59592E+04  3.32005E+04
 -8.21604E+04 -1.21262E+04 -5.84184E+04 -5.21910E+04 -1.62086E+04 -7.12829E+04  2.74764E+04 -4.70623E+04
  4.10700E+04  3.20884E+03  1.60593E+04  4.90752E+04 -3.52505E+04  4.79790E+04 -6.75983E+04  1.67578E+02
 -5.54867E+04 -5.83249E+04 -7.15736E+03 -7.98687E+04  3.53703E+04 -5.66492E+04  4.98051E+04 -1.79365E+04
  4.53180E+04  1.13722E+04  3.35418E+04  2.63311E+04  1.67577E+04  3.03533E+04 -5.84129E+03  2.69552E+04
 -2.25581E+04  1.15339E+04 -1.79241E+04 -5.32044E+03  6.85513E+03 -7.08991E+03  2.32952E+04  1.38419E+04
  7.73069E+03  3.75864E+04 -3.41241E+04  3.72574E+04 -6.67029E+04  1.91125E+03 -5.90179E+04 -4.41811E+04
 -1.32358E+04 -6.53394E+04  4.19134E+04 -4.77124E+04  6.19465E+04 -3.23900E+03  3.72271E+04  3.49975E+04
 -4.70012E+03  3.99439E+04 -3.28313E+04  1.87935E+04 -3.35759E+04 -3.12599E+03 -1.85986E+04 -1.22852E+04
 -9.53200E+03 -1.62029E+04 -1.76314E+02 -1.97756E+04  8.60199E+03 -2.35510E+04  1.50629E+04 -1.30633E+04
  1.07151E+04  5.75692E+03 -1.06160E+04  1.30031E+04 -2.35262E+04 -7.37532E+03 -8.62850E+03 -3.72415E+04
  2.51877E+04 -4.70900E+04  5.24456E+04 -2.07365E+04  4.88054E+04  2.14363E+04  1.80700E+04  4.85442E+04
 -1.73415E+04  3.62635E+04 -2.77874E+04  3.00883E+03 -1.16121E+04 -2.93746E+04  2.19284E+04 -3.76834E+04
  4.37937E+04 -1.10465E+04  4.11016E+04  2.47668E+04  2.03949E+04  5.11233E+04 -8.50442E+03  5.60676E+04
 -3.66441E+04  3.89045E+04 -4.75363E+04  1.06054E+04 -4.78210E+04 -1.89949E+04 -2.68670E+04 -4.23990E+04
  8.65794E+03 -4.23558E+04  3.36994E+04 -1.71496E+04  3.25583E+04  1.03756E+04  5.71169E+03  2.14070E+04
 -1.38435E+04  1.00119E+04 -1.10482E+04 -7.64667E+03  5.27128E+03 -1.21510E+04  1.94446E+04  4.93027E+03
  1.49118E+04  2.32625E+04 -5.11855E+03  2.77133E+04 -2.32850E+04  1.48673E+04 -3.16852E+04 -3.20460E+03
 -2.61294E+04 -1.85060E+04 -1.17245E+04 -2.55915E+04  4.77019E+03 -2.58937E+04  1.99571E+04 -2.22805E+04
  3.24020E+04 -1.44937E+04  3.80577E+04  5.04597E+03  2.75639E+04  2.43221E+04  4.63460E+03  4.15920E+04
 -1.92240E+04  3.38393E+04 -3.07781E+04  1.13311E+04 -2.23409E+04 -9.95810E+03 -4.60241E+03 -1.28097E+04
  8.12384E+02 -1.24895E+03 -8.10284E+03  8.08100E+03 -2.03655E+04  4.45368E+03 -2.03555E+04 -9.43433E+03
 -1.13443E+04 -2.36067E+04  5.89158E+03 -2.79659E+04  1.87611E+04 -1.94346E+04  2.31118E+04 -2.09487E+03
  1.47479E+04  1.65664E+04 -1.60437E+03  2.34435E+04 -1.66561E+04  1.33269E+04 -2.37958E+04 -5.29902E+03
 -1.73936E+04 -2.13284E+04 -1.95684E+03 -2.79590E+04  1.23594E+04 -2.31423E+04  2.28358E+04 -1.24150E+04
  2.12931E+04 -2.13688E+02  1.64969E+04  6.26536E+03  7.91877E+03  9.27950E+02  1.21208E+04 -2.36156E+03
  2.20785E+04  3.07223E+03  2.55906E+04  1.87803E+04  1.74021E+04  3.78236E+04 -2.16097E+03  4.42711E+04
 -2.50080E+04  3.70511E+04 -4.25093E+04  1.90031E+04 -4.49474E+04 -3.71313E+03 -3.58153E+04 -2.63614E+04
 -1.42890E+04 -3.69437E+04  1.36489E+04 -3.29968E+04  2.77745E+04 -1.57102E+04  2.43611E+04  7.84690E+03
  8.12130E+03  1.90502E+04 -1.12265E+04  1.51676E+04 -2.08952E+04  1.52572E+03 -1.52428E+04 -1.32384E+04
 -2.90198E+02 -1.91554E+04  1.09471E+04 -1.43069E+04  1.39647E+04 -1.23055E+03  2.97546E+03  9.19474E+03
 -8.77729E+03  3.83175E+03 -8.41598E+03 -7.70455E+03 -2.34538E+03 -1.81601E+04  1.14366E+04 -1.98448E+04
  2.32210E+04 -1.06063E+04  2.60469E+04  2.63528E+03  2.26850E+04  1.84364E+04  1.03870E+04  2.89070E+04
 -5.43669E+03  3.10751E+04 -2.06380E+04  1.92703E+04 -2.24765E+04  3.61219E+03 -1.57802E+04 -6.25467E+03
 -6.06609E+03 -7.20665E+03 -4.70643E+02  1.22847E+03 -2.91314E+03  2.76153E+03 -8.09695E+03  5.25838E+03
 -1.36560E+04 -7.65118E+02 -1.53983E+04 -1.11974E+04 -5.95430E+03 -1.98103E+04  6.16968E+03 -1.58663E+04
  1.24663E+04 -6.43282E+03  8.77595E+03  5.06631E+03 -3.90436E+01  5.85379E+03 -7.66896E+03  4.48475E+02
 -7.15256E+03 -1.02467E+04 -4.23422E+02 -1.51790E+04  8.25832E+03 -1.59183E+04  1.95314E+04 -8.03293E+03
  2.39815E+04  2.80670E+03  1.66414E+04  1.35745E+04  3.61344E+03  1.89016E+04 -9.67918E+03  1.50409E+04
 -1.22538E+04  4.20775E+03 -7.06865E+03 -2.93557E+03  2.59914E+03 -4.45343E+03  8.52776E+03 -6.98317E+02
  7.60185E+03  6.49556E+03  1.09240E+03  1.22944E+04 -8.93444E+03  1.15867E+04 -1.59861E+04  2.47178E+03
 -1.07579E+04 -8.71638E+03  1.97912E+02 -1.30222E+04  9.08631E+03 -7.33330E+03  8.86521E+03  3.08196E+03
  2.16602E+03  9.84781E+03 -8.05128E+03  1.20429E+04 -1.34999E+04  5.15928E+03 -1.36913E+04 -5.58997E+03
 -7.06416E+03 -1.55775E+04  4.04566E+03 -1.74080E+04  1.44351E+04 -1.07545E+04  1.67048E+04  2.56038E+03
  9.59893E+03  1.33718E+04 -1.71178E+03  1.56380E+04 -1.19537E+04  9.03480E+03 -1.21405E+04 -1.25438E+03
 -1.09108E+04 -9.37623E+03 -1.88511E+03 -1.17625E+04  5.63092E+03 -9.47799E+03  7.79855E+03 -3.64433E+03
  5.31885E+03  1.51168E+03 -1.11178E+03  2.41401E+03 -8.88096E+02 -3.49315E+03  2.81283E+03 -7.30951E+03
  1.20282E+04 -5.21905E+03  1.56056E+04  1.79967E+03  1.52348E+04  1.08142E+04  1.03548E+04  2.07256E+04
 -4.66946E+03  2.37801E+04 -1.91719E+04  1.77182E+04 -2.46531E+04  3.25380E+03 -2.06818E+04 -9.10287E+03
 -9.46595E+03 -1.68276E+04 -5.31303E+02 -1.44445E+04  5.14536E+03 -7.73108E+03  4.71765E+03 -5.34053E+03
  3.54046E+03 -2.76893E+03  3.32057E+03 -4.12215E+03  6.31810E+03 -3.88444E+03  7.76287E+03 -8.98602E+02
  1.10386E+04  2.03245E+03  6.67763E+03  9.87781E+03 -1.82179E+03  1.06237E+04 -1.14465E+04  8.76835E+03
 -1.47505E+04 -1.75251E+03 -8.99805E+03 -1.01059E+04 -1.51071E+03 -1.55424E+04  7.94160E+03 -1.54622E+04
  1.64922E+04 -8.42232E+03  1.95427E+04  2.92924E+03  1.30286E+04  1.35407E+04  2.11208E+03  1.79245E+04
 -7.60770E+03  1.29800E+04 -1.06717E+04  4.87582E+03 -6.45746E+03 -1.62176E+03 -3.21261E+03 -2.48677E+03
 -1.27776E+03  1.19115E+02 -2.79558E+03  3.08669E+03 -6.75411E+03  2.13356E+03 -1.01395E+04 -1.28852E+03
 -7.10262E+03 -1.06210E+04 -3.05956E+02 -1.48790E+04  8.40884E+03 -1.28771E+04  1.46234E+04 -5.12649E+03
  1.42689E+04  6.96917E+03  6.68768E+03  1.20967E+04 -2.57475E+03  1.43445E+04 -1.06158E+04  8.98516E+03
 -1.36591E+04  4.54776E+01 -1.10234E+04 -9.15836E+03 -8.97437E+02 -1.17457E+04  6.01077E+03 -9.62867E+03
  8.61269E+03 -2.55915E+03  5.89928E+03  2.99464E+03  1.77480E+03  4.47091E+03  1.55704E+03  2.06195E+03
  3.01365E+03  1.62651E+03  3.94731E+03  1.68795E+03  4.91024E+03  4.75978E+03  3.42819E+03  7.40050E+03
 -3.16623E+03  1.11582E+04 -9.98818E+03  1.11291E+04 -1.49042E+04  2.70040E+03 -1.47220E+04 -6.27698E+03
 -6.98286E+03 -1.51191E+04  2.13957E+03 -1.70467E+04  9.19768E+03 -9.74048E+03  1.22904E+04 -2.75239E+03
  8.67748E+03  4.56848E+03  1.93614E+03  8.83917E+03 -4.31928E+03  5.03443E+03 -5.13269E+03 -9.17728E+02
 -2.55616E+03 -6.21681E+03  3.68889E+03 -6.36351E+03  5.87730E+03 -3.80437E+03  5.77993E+03  1.16209E+03
  3.31739E+03  3.10494E+03  1.62827E+03  2.63300E+03 -9.79288E+02  1.88958E+03  1.21705E+03 -8.14540E+02
  2.65805E+03 -1.44160E+03  5.53404E+03  2.45814E+03  3.29257E+03  7.29983E+03 -1.55568E+03  9.35727E+03
 -7.45674E+03  6.24682E+03 -9.23097E+03  1.84822E+03 -8.31874E+03 -3.68192E+03 -2.27909E+03 -4.95528E+03
  6.21502E+02 -5.46499E+03  4.48167E+03 -2.48010E+03  2.93357E+03  2.66235E+03 -1.40442E+03  4.52555E+03
 -6.04122E+03  3.53249E+03 -6.59569E+03 -3.87925E+03 -3.82855E+03 -7.62556E+03  1.77925E+03 -8.69034E+03
  4.88944E+03 -5.08951E+03  5.58274E+03 -1.10772E+03  4.40861E+03  2.16336E+03  2.35041E+02  4.54419E+03
 -3.70954E+03  8.94992E+02 -3.65955E+03 -2.21799E+03  2.22200E+03 -6.52210E+03  6.92835E+03 -4.54399E+03
  9.12945E+03  1.56683E+03  9.13667E+03  6.22401E+03  3.47819E+03  1.02666E+04 -3.12007E+03  8.87059E+03
 -7.89092E+03  3.92145E+03 -7.78944E+03 -1.38369E+03 -4.37691E+03 -6.06772E+03  1.20284E+03 -5.85288E+03
  5.85520E+03 -2.55917E+03  5.34028E+03  2.11576E+03  2.20338E+03  5.12112E+03 -1.11701E+03  4.71203E+03
 -2.49464E+03  2.67185E+03 -2.07500E+03  7.38274E+02 -3.62361E+02  1.47249E+03 -2.07340E+03  1.59872E+03
 -2.01608E+03  3.16124E+03 -6.53727E+03  3.21828E+03 -9.40653E+03  5.05843E+02 -1.04346E+04 -5.40886E+03
 -4.25524E+03 -1.20030E+04  2.28016E+03 -1.43942E+04  8.33631E+03 -1.13450E+04  1.30965E+04 -4.39869E+03
  1.29208E+04  2.66677E+03  7.99528E+03  8.16811E+03  7.18565E+02  9.02482E+03 -3.87263E+03  6.91261E+03
 -5.48786E+03  2.86268E+03 -3.02178E+03 -5.77344E+02 -1.64450E+03  3.09052E+00 -5.92263E+02 -4.03315E+02
 -1.39644E+03  6.91706E+02 -1.79125E+03 -2.67568E+02 -5.58480E+02 -2.46170E+03  6.50187E+02 -3.71035E+03
  4.64012E+03 -3.26972E+03  5.95793E+03  7.85905E+02  6.02998E+03  5.23470E+03  1.68919E+03  9.54480E+03
 -4.41292E+03  1.08452E+04 -9.32306E+03  6.54591E+03 -1.18469E+04 -3.33714E+02 -8.20151E+03 -7.99046E+03
 -3.96578E+03 -8.89716E+03  2.60723E+03 -8.53093E+03  5.95924E+03 -5.19624E+03  6.13375E+03  3.75496E+02
  2.67800E+03  2.53580E+03 -4.52840E+01  1.89617E+03 -2.11302E+03  1.40735E+02 -8.13123E+02 -1.92860E+03
  3.41388E+03 -1.08249E+03  4.17516E+03  1.43803E+03  2.89584E+03  3.97985E+03  1.21935E+02  5.08772E+03
 -4.85177E+03  4.64815E+03 -7.41647E+03  7.22361E+02 -5.16404E+03 -3.99481E+03 -6.70548E+02 -7.45833E+03
  4.65065E+03 -7.13998E+03  7.64484E+03 -2.08971E+03  6.87844E+03  1.68530E+03  4.02000E+03  5.53290E+03
  7.29932E+02  5.79894E+03 -1.96179E+03  5.29952E+03 -4.13673E+03  3.01030E+03 -3.40329E+03  4.33929E+02
 -1.57414E+03 -1.77212E+02 -1.87239E+03  9.63517E+02 -2.46302E+03  1.41267E+03 -4.12444E+03 -9.57904E+02
 -4.33162E+03 -3.68638E+03 -2.11841E+03 -6.19412E+03  2.92220E+03 -6.63063E+03  5.21035E+03 -3.09848E+03
  6.29249E+03  1.11973E+03  4.52692E+03  4.00509E+03 -1.37444E+02  6.47764E+03 -4.65076E+03  4.23154E+03
