 $NMID ID='MM_0lb_SNR400_12hz_g40_71.RAW', FMTDAT='(8E13.5)'
 TRAMP=1., VOLUME=1. $END
  3.09402E+05  5.28860E+02  3.37527E+05  2.50793E+05  8.46519E+04  3.38122E+05 -1.32333E+05  2.51005E+05
 -1.90443E+05  8.31781E+04 -1.11352E+05 -3.21623E+04  7.43212E+02 -5.02960E+04  5.41019E+04  4.32299E+02
  3.56636E+04  5.30394E+04 -1.64758E+04  7.51540E+04 -6.06291E+04  6.32142E+04 -8.37928E+04  3.24014E+04
 -8.14161E+04 -1.10507E+04 -5.66806E+04 -5.16526E+04 -1.55354E+04 -6.93824E+04  2.74107E+04 -4.60522E+04
  4.11162E+04  4.44778E+03  1.64145E+04  4.82136E+04 -3.52868E+04  4.81906E+04 -6.73658E+04  2.51514E+02
 -5.35714E+04 -5.64162E+04 -7.29457E+03 -7.79230E+04  3.37341E+04 -5.56285E+04  4.81356E+04 -1.74657E+04
  4.35247E+04  1.13188E+04  3.17482E+04  2.59192E+04  1.57059E+04  2.91277E+04 -5.53550E+03  2.71052E+04
 -2.19813E+04  1.19069E+04 -1.85515E+04 -5.01892E+03  6.03444E+03 -6.96774E+03  2.23772E+04  1.35851E+04
  7.28038E+03  3.57925E+04 -3.18621E+04  3.60347E+04 -6.34282E+04  1.71901E+03 -5.72637E+04 -4.33248E+04
 -1.18090E+04 -6.30263E+04  4.03863E+04 -4.50297E+04  5.89723E+04 -1.98464E+03  3.54354E+04  3.27660E+04
 -5.53289E+03  3.68513E+04 -3.02026E+04  1.64685E+04 -3.08682E+04 -4.14232E+03 -1.79214E+04 -1.07286E+04
 -8.85870E+03 -1.34875E+04 -1.00911E+03 -1.85497E+04  7.27423E+03 -2.33039E+04  1.53726E+04 -1.35895E+04
  1.18424E+04  5.75552E+03 -8.26187E+03  1.29288E+04 -2.12084E+04 -4.92418E+03 -8.10177E+03 -3.47010E+04
  2.36231E+04 -4.39928E+04  4.93364E+04 -1.99282E+04  4.60216E+04  1.90272E+04  1.56260E+04  4.44446E+04
 -1.55664E+04  3.38174E+04 -2.57835E+04  2.20817E+03 -1.01286E+04 -2.83685E+04  2.14846E+04 -3.48408E+04
  4.14080E+04 -9.26311E+03  3.71253E+04  2.39006E+04  1.85270E+04  4.65846E+04 -7.87508E+03  5.03172E+04
 -3.23017E+04  3.48485E+04 -4.30677E+04  1.03328E+04 -4.33674E+04 -1.69740E+04 -2.44566E+04 -3.87209E+04
  6.76000E+03 -3.90046E+04  3.21816E+04 -1.47896E+04  2.97974E+04  1.13793E+04  4.40367E+03  1.92446E+04
 -1.38754E+04  8.34356E+03 -1.07974E+04 -7.33164E+03  5.89543E+03 -1.06509E+04  1.72726E+04  5.51229E+03
  1.38671E+04  2.22522E+04 -5.23669E+03  2.51003E+04 -2.28873E+04  1.17430E+04 -2.90961E+04 -4.10527E+03
 -2.06726E+04 -1.75723E+04 -8.71213E+03 -2.17731E+04  4.14760E+03 -2.09457E+04  1.66842E+04 -1.91289E+04
  2.67801E+04 -1.29055E+04  3.32242E+04  3.09124E+03  2.47488E+04  2.06227E+04  4.72503E+03  3.77490E+04
 -1.73262E+04  3.07128E+04 -2.88908E+04  1.10090E+04 -2.13726E+04 -1.02330E+04 -4.47147E+03 -1.35453E+04
  1.73801E+03 -2.57666E+03 -5.76496E+03  7.06134E+03 -1.74305E+04  5.12777E+03 -1.71886E+04 -7.95475E+03
 -1.03002E+04 -1.89184E+04  5.61078E+03 -2.37158E+04  1.63811E+04 -1.78222E+04  1.89220E+04 -1.23508E+03
  1.20121E+04  1.35621E+04 -9.74587E+02  2.05516E+04 -1.41649E+04  1.13907E+04 -1.96910E+04 -3.98625E+03
 -1.51730E+04 -1.78849E+04 -1.76730E+03 -2.39717E+04  1.08888E+04 -2.01796E+04  2.02668E+04 -9.41953E+03
  1.89863E+04  5.70115E+02  1.34528E+04  4.78906E+03  6.97381E+03  5.27544E+02  1.04923E+04 -2.09580E+03
  1.87777E+04  2.79888E+03  2.05351E+04  1.56683E+04  1.33911E+04  3.19266E+04 -2.81663E+03  3.62939E+04
 -2.08300E+04  2.96057E+04 -3.42902E+04  1.46999E+04 -3.57087E+04 -3.05778E+03 -2.98380E+04 -2.11228E+04
 -1.29537E+04 -2.98814E+04  1.04325E+04 -2.66229E+04  2.28343E+04 -1.30712E+04  2.05538E+04  6.15583E+03
  7.68724E+03  1.52028E+04 -9.48714E+03  1.32783E+04 -1.72413E+04  3.27487E+03 -1.22712E+04 -1.12185E+04
 -1.36354E+02 -1.65063E+04  8.68876E+03 -1.20106E+04  1.13492E+04 -1.34760E+03  2.81838E+03  7.03925E+03
 -7.26483E+03  3.54093E+03 -6.54979E+03 -5.60416E+03 -9.87614E+02 -1.43010E+04  1.00130E+04 -1.54970E+04
  1.78523E+04 -8.38295E+03  1.95381E+04  3.87680E+03  1.71260E+04  1.44591E+04  7.66709E+03  2.23645E+04
 -4.02150E+03  2.35413E+04 -1.53406E+04  1.52546E+04 -1.74212E+04  3.69200E+03 -1.15671E+04 -3.71408E+03
 -5.78728E+03 -4.67026E+03 -6.97279E+00  1.24665E+03 -2.09301E+03  2.21437E+03 -5.14732E+03  3.88878E+03
 -1.16999E+04 -5.83461E+02 -1.18525E+04 -9.90770E+03 -4.61894E+03 -1.58316E+04  5.23012E+03 -1.25755E+04
  1.05584E+04 -5.66774E+03  7.46507E+03  3.20815E+03  2.40480E+02  5.08626E+03 -5.79495E+03 -7.93027E+02
 -5.39960E+03 -7.21675E+03 -1.44765E+03 -1.20239E+04  7.27907E+03 -1.28914E+04  1.53818E+04 -6.05146E+03
  1.83560E+04  1.29574E+03  1.32672E+04  1.04739E+04  2.51483E+03  1.45186E+04 -7.95722E+03  1.20540E+04
 -1.00072E+04  3.65554E+03 -5.46277E+03 -2.91338E+03  1.60290E+03 -3.44117E+03  6.74649E+03 -9.87756E+02
  5.37132E+03  5.45424E+03  1.71688E+03  9.48341E+03 -6.68504E+03  9.45289E+03 -1.22163E+04  3.06091E+03
 -7.94066E+03 -6.17299E+03  3.96356E+02 -9.47778E+03  6.55501E+03 -5.17688E+03  6.77776E+03  1.68446E+03
  1.77544E+03  7.10015E+03 -6.24919E+03  7.77136E+03 -8.93651E+03  3.16918E+03 -9.79699E+03 -3.44778E+03
 -5.93501E+03 -1.15613E+04  2.88335E+03 -1.30894E+04  1.05706E+04 -8.05795E+03  1.23888E+04  2.46870E+03
  7.07807E+03  9.89177E+03 -5.72348E+02  1.13764E+04 -8.84504E+03  6.59434E+03 -9.67875E+03 -8.30775E+02
 -8.59738E+03 -8.46562E+03 -1.49283E+03 -8.57453E+03  4.11546E+03 -7.08224E+03  5.88706E+03 -3.03841E+03
  3.50699E+03  1.18487E+03 -1.25356E+03  1.36904E+03 -5.11766E+00 -3.05098E+03  1.24322E+03 -4.12596E+03
  7.62071E+03 -2.61052E+03  1.04720E+04  1.21159E+03  1.08372E+04  7.73841E+03  8.04325E+03  1.43244E+04
 -3.21462E+03  1.66472E+04 -1.36370E+04  1.23932E+04 -1.79518E+04  2.30257E+03 -1.46363E+04 -5.57421E+03
 -7.21212E+03 -1.22274E+04  5.83994E+01 -1.05024E+04  3.43556E+03 -5.08781E+03  3.25582E+03 -4.16267E+03
  2.29356E+03 -2.26276E+03  3.14533E+03 -2.67332E+03  4.30994E+03 -2.55465E+03  6.02657E+03 -8.49613E+02
  7.30034E+03  1.39018E+03  3.61464E+03  6.90908E+03 -1.49008E+03  7.29161E+03 -7.71888E+03  5.52266E+03
 -9.91218E+03 -7.82243E+02 -5.63468E+03 -6.61617E+03 -3.96734E+02 -1.11238E+04  6.30521E+03 -1.11803E+04
  1.04016E+04 -5.96968E+03  1.30560E+04  1.37864E+03  9.51884E+03  9.53033E+03  1.23417E+03  1.18201E+04
 -5.09524E+03  1.03079E+04 -6.42344E+03  3.49966E+03 -4.90690E+03 -1.22016E+03 -1.65998E+03 -2.04228E+03
 -1.11891E+03  3.55962E+02 -1.62835E+03  3.05017E+03 -4.68722E+03  1.29443E+03 -7.62444E+03 -1.13171E+03
 -4.53298E+03 -7.58628E+03  9.10367E+02 -9.75405E+03  6.09122E+03 -8.88728E+03  9.50928E+03 -2.33597E+03
  1.00255E+04  4.50122E+03  3.83111E+03  8.72453E+03 -1.83326E+03  8.99772E+03 -7.33797E+03  5.88453E+03
 -8.26651E+03  4.70180E+02 -7.48455E+03 -5.50932E+03 -5.81363E+02 -8.00744E+03  4.18909E+03 -5.50303E+03
  6.67497E+03 -1.82425E+03  3.96317E+03  1.63575E+03  9.24228E+02  3.24257E+03  1.01730E+03  1.19374E+03
  2.54101E+03  9.58207E+02  2.05076E+03  1.55376E+03  2.78808E+03  3.52885E+03  2.32369E+03  4.33480E+03
 -2.20603E+03  7.26453E+03 -7.44836E+03  8.05417E+03 -9.35910E+03  1.94940E+03 -9.21540E+03 -3.85458E+03
 -5.38939E+03 -9.65108E+03  1.13165E+03 -1.03308E+04  5.79019E+03 -6.67269E+03  8.12735E+03 -2.11231E+03
  6.11431E+03  4.77912E+03  1.45165E+03  5.67607E+03 -2.52893E+03  3.82181E+03 -3.30565E+03 -3.54593E+02
 -1.39341E+03 -3.93480E+03  2.47132E+03 -4.70701E+03  3.78916E+03 -2.20877E+03  4.04087E+03  7.45919E+02
  2.62933E+03  1.57499E+03  1.54399E+03  1.35368E+03 -7.09152E+02  1.52265E+03  1.19881E+03 -6.56711E+02
  9.67623E+02 -4.15405E+02  4.07376E+03  1.65797E+03  1.95800E+03  4.68057E+03 -1.30782E+03  6.50129E+03
 -4.57444E+03  4.39206E+03 -6.42322E+03  1.26984E+03 -4.90482E+03 -2.62901E+03 -2.27899E+03 -3.25061E+03
  6.55834E+02 -3.17425E+03  2.48750E+03 -1.09796E+03  1.77780E+03  2.05260E+03 -1.75827E+03  3.10621E+03
 -2.82966E+03  2.00883E+03 -3.84097E+03 -2.24814E+03 -2.03532E+03 -5.29569E+03  9.32200E+02 -5.22605E+03
  2.59282E+03 -2.80623E+03  2.76239E+03  5.42955E+01  3.29878E+03  1.78907E+03  6.89873E+02  3.24389E+03
 -1.63873E+03  1.00000E+03 -2.35226E+03 -2.03957E+03  1.44862E+03 -3.56152E+03  4.79868E+03 -2.77022E+03
  5.18740E+03  1.82949E+02  6.18901E+03  3.63116E+03  1.72187E+03  5.90731E+03 -2.44919E+03  5.47481E+03
 -4.84683E+03  2.62132E+03 -5.51433E+03 -7.10356E+02 -3.06228E+03 -4.35518E+03  1.34056E+03 -3.71241E+03
  3.42490E+03 -1.59806E+03  2.92155E+03  1.97333E+03  4.64487E+02  3.29467E+03 -4.04077E+02  2.92206E+03
 -1.13090E+03  1.92565E+03 -1.37574E+03  9.39298E+02 -3.19569E+02  1.27668E+03 -9.11730E+02  1.01566E+03
 -1.40774E+03  2.41960E+03 -4.15865E+03  1.78996E+03 -5.81316E+03  3.03225E+02 -6.51516E+03 -3.68551E+03
 -3.08311E+03 -7.53489E+03  1.68924E+03 -8.86994E+03  5.20267E+03 -6.57475E+03  8.70116E+03 -2.95552E+03
  6.92764E+03  8.83749E+02  4.41192E+03  5.76108E+03  3.23090E+02  5.49955E+03 -1.84436E+03  4.00333E+03
 -3.39634E+03  1.67920E+03 -1.40505E+03 -5.30865E+02 -3.82808E+02 -3.63022E+02 -9.89955E+02 -5.97945E+01
 -1.40123E+03  3.52062E+02 -1.58910E+03 -1.91488E+02 -3.99407E+02 -1.77627E+03  4.31868E+01 -2.39983E+03
  3.18895E+03 -2.09135E+03  3.12112E+03 -1.13640E+02  4.08061E+03  3.19895E+03  5.80045E+02  4.96461E+03
 -2.21425E+03  6.14003E+03 -5.86569E+03  3.48794E+03 -6.39354E+03 -4.63511E+02 -5.28783E+03 -4.42183E+03
 -2.23789E+03 -5.83962E+03  2.61881E+03 -5.44939E+03  3.04408E+03 -3.29132E+03  4.24669E+03  4.51936E+02
  2.27543E+03  1.35528E+03  1.32241E+02  1.27561E+03 -9.98203E+02  6.56116E+02  5.34775E+02 -1.93440E+03
  9.97905E+02 -7.20183E+02  1.27359E+03  4.59486E+02  9.05705E+02  2.73029E+03  1.32015E+02  2.67167E+03
 -2.39369E+03  2.69074E+03 -3.44233E+03  6.17918E+02 -3.26727E+03 -2.46273E+03 -3.28855E+02 -3.83843E+03
  2.29696E+03 -3.96242E+03  3.25902E+03 -6.50699E+02  4.25975E+03  8.39847E+02  2.69140E+03  3.30424E+03
  1.11343E+03  3.07338E+03 -1.15158E+03  3.54800E+03 -1.53689E+03  1.95493E+03 -1.42220E+03 -1.87297E+02
 -9.08593E+02  3.82989E+02 -1.61662E+03  8.19543E+02 -1.73622E+03  4.15324E+02 -2.73544E+03 -9.10993E+02
 -3.14428E+03 -1.46917E+03 -1.47770E+03 -3.53608E+03  2.06338E+03 -4.08564E+03  2.85379E+03 -1.86075E+03
  3.20322E+03  5.47986E+02  1.90282E+03  2.17347E+03 -2.88276E+01  3.45820E+03 -2.05430E+03  1.98680E+03
