 $NMID ID='MM_0lb_SNR400_18hz_g50_29.RAW', FMTDAT='(8E13.5)'
 TRAMP=1., VOLUME=1. $END
  3.09547E+05  6.05514E+02  3.37389E+05  2.50685E+05  8.45272E+04  3.37285E+05 -1.32403E+05  2.50794E+05
 -1.90250E+05  8.24958E+04 -1.10880E+05 -3.28906E+04  8.53731E+02 -4.96034E+04  5.36711E+04  1.08926E+02
  3.46284E+04  5.28716E+04 -1.69746E+04  7.50769E+04 -6.02463E+04  6.27523E+04 -8.32781E+04  3.17188E+04
 -7.94224E+04 -1.11557E+04 -5.65987E+04 -5.04706E+04 -1.50359E+04 -6.90690E+04  2.68250E+04 -4.48673E+04
  3.90508E+04  4.05800E+03  1.52645E+04  4.73804E+04 -3.42444E+04  4.59728E+04 -6.56673E+04 -3.27129E+02
 -5.21564E+04 -5.57702E+04 -6.49599E+03 -7.52706E+04  3.34087E+04 -5.32849E+04  4.59729E+04 -1.65839E+04
  4.14423E+04  1.06085E+04  3.09747E+04  2.48967E+04  1.57863E+04  2.78199E+04 -4.77705E+03  2.64530E+04
 -2.20610E+04  1.26036E+04 -1.91183E+04 -4.24278E+03  4.30375E+03 -7.82144E+03  2.12464E+04  1.12441E+04
  7.36972E+03  3.37707E+04 -3.04535E+04  3.45151E+04 -6.21296E+04  2.24811E+03 -5.59924E+04 -4.14591E+04
 -1.27317E+04 -6.14660E+04  3.86513E+04 -4.35124E+04  5.61738E+04 -1.28771E+03  3.20718E+04  3.10322E+04
 -6.81582E+03  3.35652E+04 -2.89931E+04  1.40025E+04 -2.81080E+04 -4.94130E+03 -1.45018E+04 -9.85611E+03
 -7.77549E+03 -1.23497E+04 -9.75832E+02 -1.64086E+04  6.90525E+03 -2.21162E+04  1.50043E+04 -1.34464E+04
  1.14282E+04  4.41639E+03 -6.64434E+03  1.34232E+04 -1.97400E+04 -3.28397E+03 -8.79643E+03 -3.11148E+04
  2.13703E+04 -4.07131E+04  4.52082E+04 -1.89934E+04  4.28113E+04  1.86062E+04  1.42654E+04  4.22318E+04
 -1.55575E+04  3.17468E+04 -2.37503E+04  1.61176E+03 -8.21657E+03 -2.67503E+04  2.05236E+04 -3.20532E+04
  3.87500E+04 -7.44055E+03  3.25621E+04  2.25367E+04  1.64344E+04  4.33456E+04 -7.67070E+03  4.64541E+04
 -2.88637E+04  3.08996E+04 -3.84146E+04  8.49348E+03 -3.96875E+04 -1.60454E+04 -2.16747E+04 -3.54070E+04
  6.83227E+03 -3.54988E+04  2.96835E+04 -1.29447E+04  2.71244E+04  1.05674E+04  2.90690E+03  1.85681E+04
 -1.29084E+04  7.66705E+03 -9.75374E+03 -7.42265E+03  6.37132E+03 -9.80478E+03  1.71851E+04  5.95293E+03
  1.25626E+04  2.15675E+04 -6.88119E+03  2.38017E+04 -2.16176E+04  9.32411E+03 -2.55384E+04 -6.06381E+03
 -1.70601E+04 -1.66107E+04 -6.22937E+03 -1.76687E+04  3.53163E+03 -1.59380E+04  1.27026E+04 -1.44103E+04
  2.20591E+04 -1.14788E+04  2.89517E+04  1.89912E+03  2.12795E+04  1.72065E+04  3.96675E+03  3.29575E+04
 -1.63714E+04  2.75966E+04 -2.58544E+04  9.47178E+03 -2.03464E+04 -1.00452E+04 -4.01574E+03 -1.37858E+04
  2.17017E+03 -4.47469E+03 -3.12509E+03  5.43130E+03 -1.34268E+04  5.26095E+03 -1.41980E+04 -5.73704E+03
 -8.66230E+03 -1.62497E+04  4.24462E+03 -2.00530E+04  1.29625E+04 -1.42165E+04  1.49744E+04 -1.20500E+03
  9.04052E+03  1.10293E+04 -1.40189E+03  1.67079E+04 -1.09990E+04  9.18493E+03 -1.59141E+04 -4.00785E+03
 -1.17825E+04 -1.44126E+04 -1.62670E+03 -1.98986E+04  9.45965E+03 -1.53964E+04  1.67094E+04 -6.84868E+03
  1.50650E+04  6.62759E+02  1.07269E+04  3.21599E+03  6.07406E+03  3.17870E+02  7.45577E+03 -1.37749E+03
  1.42795E+04  2.74296E+03  1.54888E+04  1.29860E+04  9.68528E+03  2.54745E+04 -3.04148E+03  2.77294E+04
 -1.65334E+04  2.15220E+04 -2.58711E+04  1.02422E+04 -2.62473E+04 -2.28265E+03 -2.30439E+04 -1.50181E+04
 -1.02695E+04 -2.12135E+04  7.03325E+03 -2.02484E+04  1.75007E+04 -1.17672E+04  1.61902E+04  4.37866E+03
  6.47037E+03  1.18058E+04 -8.00194E+03  1.07097E+04 -1.35723E+04  2.89354E+03 -1.06055E+04 -8.38884E+03
  6.81161E+02 -1.33753E+04  6.53284E+03 -9.84135E+03  8.25897E+03 -1.57952E+03  2.01292E+03  5.41288E+03
 -5.84157E+03  8.56076E+02 -3.67154E+03 -5.11259E+03  4.12588E+02 -1.10484E+04  7.77463E+03 -1.03932E+04
  1.27726E+04 -4.80720E+03  1.28440E+04  2.96917E+03  1.08513E+04  9.57489E+03  5.15806E+03  1.49156E+04
 -2.25759E+03  1.67851E+04 -1.04471E+04  1.07079E+04 -1.18891E+04  3.17522E+03 -8.26005E+03 -2.19674E+03
 -4.93589E+03 -3.00382E+03 -7.82378E+02  9.56177E+02 -2.05162E+03  1.66827E+03 -4.33546E+03  3.40436E+03
 -8.42296E+03 -6.22164E+02 -9.23970E+03 -7.31778E+03 -3.70933E+03 -1.23375E+04  3.49182E+03 -8.64182E+03
  7.55850E+03 -3.84110E+03  5.46102E+03  2.19242E+03  5.11281E+02  2.95741E+03 -3.64118E+03  3.96314E+01
 -3.75870E+03 -5.49050E+03 -8.06917E+02 -6.78198E+03  4.67238E+03 -8.54123E+03  1.03862E+04 -4.06466E+03
  1.23360E+04  1.02816E+01  9.06047E+03  6.22524E+03  1.73615E+03  8.92925E+03 -4.72045E+03  8.36040E+03
 -7.36205E+03  2.42891E+03 -3.97017E+03 -1.38926E+03  7.93597E+02 -2.49670E+03  4.56877E+03 -6.12951E+02
  4.31534E+03  3.81836E+03  1.15314E+03  6.69083E+03 -4.55330E+03  6.60359E+03 -7.93731E+03  1.99538E+03
 -5.10678E+03 -4.44747E+03  2.55491E+02 -7.24361E+03  4.08002E+03 -2.97487E+03  3.48776E+03  9.87317E+02
  7.40278E+02  3.15551E+03 -4.14317E+03  5.41423E+03 -5.49617E+03  2.40885E+03 -4.97371E+03 -9.17617E+02
 -3.43333E+03 -6.65830E+03  9.89680E+02 -7.04793E+03  6.51548E+03 -4.57326E+03  6.49833E+03  1.01785E+03
  5.09824E+03  5.48116E+03 -2.25412E+02  7.36214E+03 -5.47513E+03  4.19489E+03 -6.03541E+03 -3.11133E+02
 -6.23507E+03 -5.31577E+03 -1.78145E+03 -5.75004E+03  3.16509E+03 -4.44498E+03  2.46847E+03 -3.06723E+03
  2.73060E+03  1.21566E+01 -5.98410E+01  1.55357E+03  6.33389E+02 -1.83199E+02  4.82396E+02 -1.93480E+03
  4.12373E+03 -9.07847E+02  5.54980E+03  4.86744E+02  6.20871E+03  3.09015E+03  5.64684E+03  7.48904E+03
 -1.30925E+03  9.23452E+03 -8.02436E+03  6.94194E+03 -1.03961E+04  1.30722E+03 -8.48443E+03 -2.96412E+03
 -3.74993E+03 -7.24166E+03 -2.61849E+02 -5.64911E+03  1.98706E+03 -2.83788E+03  2.03594E+03 -2.57177E+03
  1.19856E+03 -1.83828E+03  2.51310E+03 -2.91979E+03  4.05024E+03 -1.49372E+03  3.78029E+03 -3.01371E+02
  4.79002E+03  1.33108E+03  1.66593E+03  3.98346E+03 -1.87738E+03  3.39117E+03 -4.47095E+03  2.74346E+03
 -5.65488E+03 -1.18536E+03 -2.08631E+03 -3.46689E+03  4.70293E+02 -5.18237E+03  3.36731E+03 -5.65452E+03
  5.29786E+03 -3.13458E+03  7.63934E+03  4.41710E+02  4.78651E+03  4.64154E+03  4.12356E+02  6.20302E+03
 -2.09716E+03  6.09503E+03 -3.38852E+03  2.15065E+03 -2.13278E+03 -1.00401E+03 -1.69026E+02 -3.95412E+02
 -8.11437E+01  5.63605E+02 -1.42691E+03  1.92758E+03 -3.01299E+03  1.21227E+03 -4.30281E+03  9.14312E+01
 -1.58041E+03 -4.02837E+03  8.41412E+02 -4.96496E+03  3.00113E+03 -4.82483E+03  3.99124E+03 -1.30077E+03
  4.29603E+03  2.26765E+03  2.31663E+03  3.51783E+03 -1.38511E+03  4.45180E+03 -3.02497E+03  3.08028E+03
 -4.00876E+03  7.07306E+02 -3.55835E+03 -2.40792E+03 -1.22808E+02 -3.55630E+03  1.40156E+03 -2.05388E+03
  2.75952E+03 -1.53818E+03  2.21310E+03  8.17552E+02  9.71986E+02  1.66775E+03  1.06212E+03  4.30643E+02
  1.80340E+03  8.73598E+02  1.33402E+03  1.29804E+03  1.20896E+03  2.24920E+03  1.50430E+03  1.92941E+03
 -1.37447E+03  3.11573E+03 -3.12881E+03  4.02248E+03 -3.52140E+03  1.27340E+03 -4.93708E+03 -2.12142E+02
 -1.44285E+03 -4.71979E+03  7.39252E+02 -4.90100E+03  2.26711E+03 -2.24652E+03  2.93114E+03 -8.13915E+02
  2.53991E+03  1.87159E+03  3.87990E+02  2.85723E+03 -3.83716E+02  2.18253E+03 -9.59199E+02 -7.30264E+01
 -9.68542E+02 -1.67215E+03  9.40544E+02 -1.92079E+03  1.62725E+03 -1.59155E+03  1.87113E+03  6.72326E+02
  8.96718E+02  1.24853E+02  9.40531E+02 -2.51887E+02  1.37394E+02  7.43155E+02  1.70944E+03 -6.38314E+02
 -6.02891E+02 -2.26059E+02  2.24522E+03  1.03841E+03 -1.24817E+01  2.89122E+03 -4.98322E+02  3.06377E+03
 -1.50246E+03  9.48209E+02 -2.20888E+03  9.66438E+01 -2.72217E+03 -5.91208E+02 -5.19324E+02 -8.25087E+02
  3.81708E+02 -1.04891E+03  1.26528E+03 -1.10118E+03  7.06741E+02  1.45076E+03 -8.88242E+02  1.37284E+03
 -1.36644E+03  1.12498E+03 -9.22997E+02 -1.35211E+03 -7.02655E+02 -2.09572E+03  5.94706E+02 -1.02561E+03
  6.46246E+02  1.72839E+01  1.24782E+03 -2.83475E+02  1.11551E+03 -3.92132E+02 -3.23352E+01  1.41809E+03
 -4.04374E+02  2.68876E+02 -9.57841E+02 -6.07222E+00  1.15595E+03 -5.33525E+02  2.49562E+03 -1.53866E+03
  1.34331E+03  1.37699E+02  3.66348E+03  1.10722E+03  9.16958E+02  1.52764E+03 -2.03354E+02  2.01404E+03
 -1.83978E+03  6.40184E+02 -1.44338E+03  1.86692E+02 -6.83714E+02 -1.08814E+03  4.89502E+02 -8.73572E+02
  1.33842E+03 -1.09742E+03  7.15568E+02  1.16780E+03  3.74530E+02  1.51944E+03  4.46815E+01  1.04728E+03
 -4.38994E+02  9.71782E+02 -6.62162E+02  3.42440E+02  7.59970E+02 -5.89510E+01 -8.40987E+02  6.08370E+02
 -6.50903E+02  1.04965E+03 -2.16150E+03  6.11733E+02 -1.82754E+03 -6.43357E+01 -2.37016E+03 -1.10927E+03
 -1.49933E+03 -2.31888E+03  7.34858E+02 -3.54548E+03  1.23625E+03 -2.54829E+03  2.58708E+03 -9.87469E+02
  2.74933E+03  1.14850E+02  1.56102E+03  1.65628E+03 -9.08352E+02  1.95468E+03 -7.15743E+02  1.59551E+03
 -1.12930E+03  8.15970E+02 -8.25116E+02 -4.50051E+02 -4.61510E+02  1.02080E+02 -5.69824E+02 -1.69316E+02
 -6.86363E+02  2.01142E+02 -1.45318E+03  2.86462E+02  2.31748E+01 -2.37229E+02 -1.93645E+02 -9.42401E+02
  1.51398E+03 -6.30558E+02  5.38198E+02  1.72542E+02  5.85887E+02  1.53671E+03 -5.42605E+01  1.84240E+03
 -9.87324E+02  2.48032E+03 -1.68526E+03  8.89283E+02 -1.78828E+03 -6.64870E+01 -1.15239E+03 -1.83558E+03
 -9.88191E+02 -1.57214E+03  3.13181E+02 -1.46962E+03  1.36354E+03 -1.12527E+03  1.10612E+03 -6.36071E+02
  1.60867E+02  5.64601E+02 -5.64835E+02  8.20758E+02 -2.85554E+02 -1.39418E+02 -1.05004E+02 -5.97031E+02
  5.22947E+02  4.52693E+02  1.48837E+02  6.80088E+02  8.24259E+01  4.13404E+02  2.96946E+02  3.25328E+02
 -7.13163E+02  7.14259E+01 -4.17880E+02  1.09101E+02 -9.10485E+02 -1.89447E+02  1.49506E+02 -1.11340E+03
  1.09544E+02 -6.75857E+02  7.63262E+02 -3.81501E+02  1.03130E+03 -8.79772E+02  7.08089E+02  1.42273E+03
  3.75635E+02  4.31368E+02 -5.21961E+02  7.59937E+02 -4.06277E+02  6.36853E+02 -8.68794E+02  5.39793E+02
 -5.28499E+02 -5.24206E+02 -6.41636E+02 -1.49415E+02 -7.56387E+02 -4.53837E+01 -6.32609E+02 -3.73392E+02
 -1.69370E+03  7.21584E+02 -4.30590E+02 -8.74328E+02  1.23870E+03 -1.88275E+03  6.21339E+02 -1.33413E+02
  6.35964E+02 -1.06384E+01  2.80529E+01  4.08636E+02  1.86574E+01  1.18001E+03 -8.45989E+02  7.73697E+02
