 $NMID ID='MM_0lb_SNR400_13hz_g60_55.RAW', FMTDAT='(8E13.5)'
 TRAMP=1., VOLUME=1. $END
  3.09626E+05  5.08436E+02  3.37436E+05  2.50603E+05  8.47748E+04  3.38623E+05 -1.32331E+05  2.50854E+05
 -1.90912E+05  8.37353E+04 -1.12419E+05 -3.18298E+04  1.46235E+02 -5.07658E+04  5.36239E+04 -6.73860E+02
  3.51232E+04  5.23411E+04 -1.76256E+04  7.58767E+04 -6.13338E+04  6.46219E+04 -8.45450E+04  3.21898E+04
 -8.17182E+04 -1.14285E+04 -5.72785E+04 -5.18086E+04 -1.53312E+04 -7.01415E+04  2.84030E+04 -4.65175E+04
  3.99751E+04  3.78001E+03  1.66663E+04  4.87657E+04 -3.51456E+04  4.83347E+04 -6.70416E+04 -1.28972E+02
 -5.45075E+04 -5.71309E+04 -6.39726E+03 -7.84577E+04  3.43749E+04 -5.54426E+04  4.89535E+04 -1.81672E+04
  4.46487E+04  1.14865E+04  3.22389E+04  2.53706E+04  1.59328E+04  2.98878E+04 -5.60608E+03  2.79063E+04
 -2.18763E+04  1.20673E+04 -1.79579E+04 -6.25909E+03  5.63562E+03 -7.13791E+03  2.34503E+04  1.26068E+04
  6.97731E+03  3.65065E+04 -3.33783E+04  3.63465E+04 -6.45389E+04  2.41855E+03 -5.81135E+04 -4.40209E+04
 -1.26451E+04 -6.46390E+04  4.00713E+04 -4.63829E+04  6.01041E+04 -2.87382E+03  3.55191E+04  3.27671E+04
 -5.84264E+03  3.78729E+04 -3.08170E+04  1.81211E+04 -3.19522E+04 -3.87477E+03 -1.80638E+04 -1.15454E+04
 -9.79012E+03 -1.46095E+04 -9.65536E+02 -1.87821E+04  8.23660E+03 -2.30225E+04  1.55374E+04 -1.36190E+04
  1.06640E+04  5.70053E+03 -9.80296E+03  1.32157E+04 -2.24182E+04 -5.90011E+03 -8.32514E+03 -3.52622E+04
  2.41217E+04 -4.51169E+04  5.01436E+04 -2.05393E+04  4.62926E+04  2.06370E+04  1.63547E+04  4.50152E+04
 -1.58940E+04  3.51591E+04 -2.66927E+04  2.19951E+03 -1.05044E+04 -2.90927E+04  2.11821E+04 -3.52784E+04
  4.29627E+04 -9.97311E+03  3.71708E+04  2.44467E+04  1.95944E+04  4.84370E+04 -7.81368E+03  5.32574E+04
 -3.32370E+04  3.59179E+04 -4.50101E+04  1.04741E+04 -4.44147E+04 -1.82458E+04 -2.48398E+04 -3.99323E+04
  7.28322E+03 -4.01157E+04  3.26653E+04 -1.63189E+04  2.94787E+04  1.10735E+04  5.32658E+03  2.03222E+04
 -1.32695E+04  8.93175E+03 -1.05749E+04 -7.68122E+03  5.94620E+03 -1.06993E+04  1.81929E+04  6.04808E+03
  1.40132E+04  2.27718E+04 -5.80967E+03  2.63447E+04 -2.33879E+04  1.29392E+04 -2.97106E+04 -3.91063E+03
 -2.29457E+04 -1.78017E+04 -9.30412E+03 -2.23093E+04  4.05627E+03 -2.23481E+04  1.76171E+04 -2.04219E+04
  2.86420E+04 -1.38146E+04  3.52364E+04  2.97377E+03  2.51010E+04  2.18970E+04  4.62352E+03  3.95118E+04
 -1.90433E+04  3.20202E+04 -2.90347E+04  1.19184E+04 -2.21919E+04 -1.00849E+04 -5.14750E+03 -1.31473E+04
  1.41092E+03 -2.35542E+03 -6.09173E+03  7.41649E+03 -1.81836E+04  5.13493E+03 -1.80362E+04 -8.06889E+03
 -1.09611E+04 -2.08817E+04  5.25449E+03 -2.52366E+04  1.61195E+04 -1.78418E+04  2.00438E+04 -1.40106E+03
  1.28522E+04  1.49677E+04 -7.58333E+02  2.12996E+04 -1.51177E+04  1.19548E+04 -2.08605E+04 -4.51998E+03
 -1.48962E+04 -1.94597E+04 -2.08335E+03 -2.47383E+04  1.14211E+04 -2.07354E+04  2.12516E+04 -1.06997E+04
  1.97589E+04 -4.12490E+02  1.41568E+04  5.00733E+03  7.22185E+03  1.40394E+03  1.12170E+04 -1.78368E+03
  1.92757E+04  2.96780E+03  2.21576E+04  1.58677E+04  1.44002E+04  3.36857E+04 -2.53310E+03  3.82122E+04
 -2.19950E+04  3.16865E+04 -3.62308E+04  1.61654E+04 -3.81578E+04 -2.59173E+03 -3.23521E+04 -2.27789E+04
 -1.24202E+04 -3.17620E+04  1.12780E+04 -2.81879E+04  2.42917E+04 -1.41399E+04  2.10002E+04  6.11559E+03
  7.68687E+03  1.67539E+04 -1.04050E+04  1.41229E+04 -1.77556E+04  2.11515E+03 -1.35859E+04 -1.11738E+04
 -6.89995E+02 -1.69693E+04  9.29355E+03 -1.23479E+04  1.09411E+04 -1.61494E+03  2.37894E+03  8.34524E+03
 -7.48933E+03  3.02033E+03 -7.12010E+03 -6.77732E+03 -8.66124E+02 -1.55748E+04  1.00110E+04 -1.63998E+04
  1.91707E+04 -9.37039E+03  2.13371E+04  3.63577E+03  1.84000E+04  1.53680E+04  8.98089E+03  2.34173E+04
 -4.38190E+03  2.66339E+04 -1.65736E+04  1.64121E+04 -1.88749E+04  3.34976E+03 -1.29275E+04 -4.79947E+03
 -5.55665E+03 -5.37449E+03 -1.03093E+03  8.09910E+02 -1.98944E+03  2.71894E+03 -5.09975E+03  4.99317E+03
 -1.11934E+04 -6.72617E+02 -1.28095E+04 -9.64139E+03 -4.90542E+03 -1.67728E+04  4.73029E+03 -1.37162E+04
  1.11169E+04 -5.78819E+03  7.42454E+03  3.25659E+03  9.07163E+01  4.91956E+03 -5.84789E+03 -2.71536E+02
 -5.94754E+03 -8.83455E+03 -1.19186E+03 -1.27395E+04  7.19206E+03 -1.27814E+04  1.61693E+04 -7.11438E+03
  1.91617E+04  1.95049E+03  1.37646E+04  1.15674E+04  2.13783E+03  1.50066E+04 -8.04908E+03  1.24296E+04
 -1.05536E+04  4.26261E+03 -5.60387E+03 -2.77989E+03  1.84466E+03 -3.98221E+03  6.79418E+03 -4.43086E+02
  6.61589E+03  5.35566E+03  1.20703E+03  9.91352E+03 -7.50601E+03  9.62697E+03 -1.18229E+04  2.33124E+03
 -8.47123E+03 -7.22982E+03  8.91543E+01 -1.09267E+04  7.47368E+03 -4.73132E+03  7.51141E+03  2.75255E+03
  1.30621E+03  7.49761E+03 -6.28026E+03  8.54029E+03 -9.11672E+03  4.13733E+03 -9.86081E+03 -3.90731E+03
 -6.12944E+03 -1.26946E+04  2.82768E+03 -1.41736E+04  1.16130E+04 -8.78967E+03  1.30196E+04  1.49807E+03
  7.68887E+03  1.02528E+04 -1.32880E+03  1.27857E+04 -9.29737E+03  6.18640E+03 -9.70839E+03 -7.42574E+02
 -9.09386E+03 -8.45120E+03 -1.80489E+03 -8.96734E+03  4.85360E+03 -7.53957E+03  5.64678E+03 -3.51946E+03
  4.18476E+03  9.93668E+02 -5.25290E+02  1.83379E+03  1.37425E+02 -2.40778E+03  1.78187E+03 -4.63752E+03
  8.13743E+03 -3.19194E+03  1.14614E+04  1.87459E+03  1.17561E+04  8.07108E+03  8.28351E+03  1.47980E+04
 -3.46488E+03  1.72658E+04 -1.47534E+04  1.28309E+04 -1.90019E+04  2.94087E+03 -1.55047E+04 -6.21562E+03
 -7.20031E+03 -1.31013E+04 -5.04628E+02 -1.07121E+04  4.15674E+03 -5.46621E+03  4.30654E+03 -3.62547E+03
  2.59008E+03 -2.93843E+03  3.71074E+03 -3.61734E+03  4.21790E+03 -1.99591E+03  5.84420E+03 -6.49964E+02
  7.29546E+03  2.25269E+03  4.01957E+03  7.49290E+03 -2.00024E+03  7.31620E+03 -7.86518E+03  5.87233E+03
 -1.02175E+04 -1.55394E+03 -5.70419E+03 -6.26485E+03 -3.62014E+02 -1.11090E+04  6.16371E+03 -1.10594E+04
  1.08915E+04 -6.23036E+03  1.33497E+04  2.01964E+03  9.52700E+03  8.56508E+03  1.65199E+03  1.23620E+04
 -4.61605E+03  1.09518E+04 -6.99774E+03  3.10794E+03 -4.74242E+03 -1.78333E+03 -1.81652E+03 -1.14446E+03
 -1.10590E+03 -1.02636E+02 -1.72648E+03  2.46994E+03 -4.76415E+03  1.56110E+03 -6.98303E+03 -7.99759E+02
 -5.09995E+03 -7.44191E+03  5.28109E+02 -9.51297E+03  5.73341E+03 -9.61952E+03  9.86357E+03 -2.83271E+03
  9.89779E+03  5.08484E+03  4.38797E+03  7.84251E+03 -1.56704E+03  1.10375E+04 -7.06809E+03  5.90408E+03
 -7.95523E+03  6.66896E+01 -7.23941E+03 -5.89886E+03 -7.28208E+02 -8.31868E+03  4.51969E+03 -6.34791E+03
  6.52093E+03 -2.13685E+03  4.26302E+03  1.95433E+03  1.90012E+03  2.99646E+03  8.39840E+02  7.41002E+02
  2.29926E+03  9.11033E+02  2.77361E+03  1.28613E+03  2.76373E+03  3.98121E+03  2.83679E+03  5.27103E+03
 -2.03086E+03  7.24314E+03 -7.08962E+03  8.34083E+03 -9.53789E+03  2.57541E+03 -1.04968E+04 -3.74551E+03
 -4.35689E+03 -9.50529E+03  1.92992E+03 -1.02167E+04  5.86557E+03 -6.95037E+03  7.27403E+03 -1.64686E+03
  6.40834E+03  4.40118E+03  1.52818E+03  5.52434E+03 -2.81042E+03  2.84978E+03 -3.55985E+03 -4.67995E+01
 -2.07306E+03 -4.24493E+03  2.15927E+03 -4.01723E+03  4.44056E+03 -2.01723E+03  3.67900E+03  1.71175E+02
  2.41441E+03  1.69104E+03  8.64802E+02  1.24739E+03 -3.37844E+02  1.95199E+03  1.08190E+03 -5.31058E+02
  9.80562E+02 -9.02741E+02  4.02863E+03  1.06675E+03  1.99368E+03  5.24712E+03 -5.65617E+02  6.10414E+03
 -4.48564E+03  3.52263E+03 -5.64182E+03  9.07039E+02 -5.32080E+03 -2.18999E+03 -1.60912E+03 -3.24941E+03
  6.35713E+02 -3.67165E+03  2.31039E+03 -1.90671E+03  2.21150E+03  2.05231E+03 -8.35090E+02  3.08258E+03
 -4.01028E+03  1.82096E+03 -4.33450E+03 -2.23177E+03 -2.05644E+03 -4.89588E+03  1.33976E+03 -5.54042E+03
  2.07405E+03 -2.84835E+03  2.92127E+03 -2.65883E+02  3.51112E+03  1.27016E+03  2.43071E+02  2.53504E+03
 -1.51913E+03  9.05265E+02 -2.14135E+03 -4.14229E+02  1.06634E+03 -3.60443E+03  4.49547E+03 -3.17832E+03
  4.69546E+03  4.64440E+02  5.73684E+03  3.48582E+03  2.38025E+03  6.07448E+03 -1.73626E+03  5.12938E+03
 -4.08613E+03  1.75846E+03 -5.13406E+03 -5.18182E+02 -3.14377E+03 -3.78323E+03  1.29878E+03 -3.19973E+03
  3.90504E+03 -1.73083E+03  3.15455E+03  1.23741E+03  9.28060E+02  3.99977E+03  1.63622E+02  2.85803E+03
 -1.71892E+03  2.25793E+03 -1.19092E+03  2.27382E+02 -6.14325E+02  1.54747E+03 -1.80494E+03  1.22959E+03
 -1.93719E+03  2.35387E+03 -3.65180E+03  2.73794E+03 -5.03487E+03 -4.39624E+01 -6.27615E+03 -3.51911E+03
 -3.01025E+03 -7.02281E+03  1.89482E+03 -8.44755E+03  5.03331E+03 -6.61610E+03  7.96718E+03 -3.00793E+03
  7.40251E+03  1.49517E+03  3.96148E+03  5.43989E+03 -3.86270E+02  5.28380E+03 -2.12796E+03  3.53978E+03
 -2.71403E+03  2.29944E+03 -2.20869E+03 -5.69284E+02 -1.53829E+03 -2.41532E+01 -1.06136E+03  6.01709E+02
 -6.42321E+02  8.81920E+02 -2.36243E+03 -7.51573E+01 -6.25088E+02 -5.84074E+02 -2.69528E+02 -1.51929E+03
  2.31308E+03 -1.74802E+03  2.63999E+03 -5.56608E+01  2.95823E+03  3.42584E+03  7.59123E+02  5.80242E+03
 -2.94674E+03  5.51208E+03 -5.38487E+03  3.10770E+03 -6.07840E+03 -6.65069E+02 -4.55481E+03 -3.75309E+03
 -2.42640E+03 -4.97975E+03  1.78446E+03 -4.72243E+03  2.87771E+03 -2.09975E+03  3.05105E+03  1.44463E+02
  2.16591E+03  1.61500E+03  3.00150E+02  1.80288E+03 -1.05418E+03 -2.43051E+02 -4.42037E+02 -5.99715E+02
  1.99641E+03 -1.37910E+03  2.35593E+03  7.94958E+02  1.50151E+03  1.43961E+03  1.38767E+02  2.09299E+03
 -1.81547E+03  1.46277E+03 -3.46273E+03  7.30609E+02 -2.39522E+03 -2.36135E+03 -3.64552E+02 -3.62972E+03
  2.60389E+03 -2.99704E+03  3.04472E+03 -9.35002E+02  3.55542E+03  6.19909E+02  1.87746E+03  3.24550E+03
  3.64656E+02  2.58088E+03 -8.29944E+02  2.95589E+03 -1.60008E+03  1.40226E+03 -1.81875E+03  2.68818E+02
 -9.19512E+02  7.16780E+00 -1.15775E+03  3.67555E+02 -1.80707E+03  7.38448E+02 -2.40179E+03 -9.03847E+02
 -2.41193E+03 -1.95597E+03 -4.04937E+02 -3.67655E+03  1.53156E+03 -3.51192E+03  2.66050E+03 -1.28764E+03
  2.87104E+03  7.40759E+01  1.52284E+03  1.56476E+03 -2.51072E+02  3.05785E+03 -2.47136E+03  1.22054E+03
