 $NMID ID='MM_0lb_SNR400_13hz_g60_21.RAW', FMTDAT='(8E13.5)'
 TRAMP=1., VOLUME=1. $END
  3.09586E+05  4.22926E+02  3.37802E+05  2.50532E+05  8.48762E+04  3.38980E+05 -1.32942E+05  2.51019E+05
 -1.90794E+05  8.38335E+04 -1.11987E+05 -3.21097E+04  7.70917E+02 -5.00492E+04  5.36243E+04 -1.06001E+02
  3.54768E+04  5.28644E+04 -1.66540E+04  7.59280E+04 -6.12784E+04  6.45386E+04 -8.42409E+04  3.19811E+04
 -8.18830E+04 -1.13846E+04 -5.83731E+04 -5.15321E+04 -1.54958E+04 -7.03647E+04  2.72116E+04 -4.62967E+04
  4.10029E+04  3.57695E+03  1.62686E+04  4.84673E+04 -3.45136E+04  4.76126E+04 -6.78886E+04 -6.16970E+01
 -5.48668E+04 -5.76156E+04 -7.36377E+03 -7.78069E+04  3.42503E+04 -5.59093E+04  4.86998E+04 -1.78947E+04
  4.38003E+04  1.11059E+04  3.19292E+04  2.59064E+04  1.61676E+04  3.00771E+04 -5.75856E+03  2.74374E+04
 -2.23995E+04  1.21509E+04 -1.76943E+04 -5.73540E+03  7.24586E+03 -7.28984E+03  2.29641E+04  1.33422E+04
  6.91687E+03  3.64786E+04 -3.35432E+04  3.61766E+04 -6.50334E+04  2.67238E+03 -5.79443E+04 -4.40074E+04
 -1.25217E+04 -6.45742E+04  4.02249E+04 -4.65168E+04  5.96515E+04 -2.51522E+03  3.52391E+04  3.29594E+04
 -5.28964E+03  3.80580E+04 -3.12150E+04  1.73443E+04 -3.23625E+04 -3.63324E+03 -1.85116E+04 -1.17981E+04
 -9.28317E+03 -1.40407E+04 -1.65127E+03 -1.91707E+04  8.10682E+03 -2.28352E+04  1.59907E+04 -1.29812E+04
  1.08003E+04  6.19790E+03 -9.69660E+03  1.32061E+04 -2.24620E+04 -5.77969E+03 -9.07156E+03 -3.58427E+04
  2.35508E+04 -4.48592E+04  5.01518E+04 -2.00164E+04  4.72934E+04  1.99401E+04  1.67024E+04  4.59381E+04
 -1.64940E+04  3.47001E+04 -2.61489E+04  1.81873E+03 -1.08745E+04 -2.83743E+04  2.18570E+04 -3.52017E+04
  4.28970E+04 -1.01498E+04  3.80854E+04  2.40635E+04  2.00605E+04  4.87202E+04 -8.24098E+03  5.33905E+04
 -3.37708E+04  3.61619E+04 -4.41268E+04  9.94281E+03 -4.57100E+04 -1.70696E+04 -2.46090E+04 -3.99523E+04
  7.70597E+03 -4.05575E+04  3.23732E+04 -1.58642E+04  3.04570E+04  1.05426E+04  4.64546E+03  1.97548E+04
 -1.38629E+04  9.21035E+03 -1.08332E+04 -7.75773E+03  6.22409E+03 -1.12924E+04  1.84992E+04  5.73695E+03
  1.40687E+04  2.28618E+04 -5.24294E+03  2.56369E+04 -2.23673E+04  1.27743E+04 -2.96835E+04 -3.67599E+03
 -2.33383E+04 -1.78657E+04 -1.00499E+04 -2.20348E+04  4.19049E+03 -2.24817E+04  1.78441E+04 -2.04752E+04
  2.87700E+04 -1.41188E+04  3.49793E+04  3.52752E+03  2.55585E+04  2.21160E+04  5.42705E+03  3.81473E+04
 -1.93083E+04  3.19480E+04 -2.91165E+04  1.08764E+04 -2.14926E+04 -1.00324E+04 -5.03857E+03 -1.25363E+04
  1.33319E+03 -1.45139E+03 -5.93471E+03  6.84709E+03 -1.79465E+04  4.57545E+03 -1.79392E+04 -8.05400E+03
 -1.06921E+04 -2.10985E+04  5.83267E+03 -2.53129E+04  1.69623E+04 -1.72460E+04  1.98719E+04 -2.10000E+03
  1.27554E+04  1.52600E+04 -1.16514E+03  2.07871E+04 -1.40863E+04  1.18216E+04 -2.08959E+04 -4.62926E+03
 -1.59024E+04 -1.93547E+04 -1.95092E+03 -2.52152E+04  1.22881E+04 -2.07964E+04  2.09285E+04 -1.09320E+04
  2.00891E+04 -7.45775E+02  1.43951E+04  4.47023E+03  7.63665E+03  1.66826E+03  1.12382E+04 -2.57396E+03
  1.95311E+04  3.01757E+03  2.27654E+04  1.67741E+04  1.47234E+04  3.33452E+04 -2.56235E+03  3.87328E+04
 -2.27309E+04  3.18095E+04 -3.59015E+04  1.64097E+04 -3.86482E+04 -2.47022E+03 -3.17861E+04 -2.14923E+04
 -1.32155E+04 -3.12736E+04  1.06191E+04 -2.83654E+04  2.43059E+04 -1.32840E+04  2.20844E+04  6.57338E+03
  7.78773E+03  1.63015E+04 -1.02175E+04  1.43194E+04 -1.70237E+04  2.88669E+03 -1.39512E+04 -1.12687E+04
 -9.99734E+02 -1.66785E+04  9.02900E+03 -1.30184E+04  1.20419E+04 -1.78646E+03  2.52508E+03  7.54305E+03
 -7.79438E+03  2.99934E+03 -7.60237E+03 -5.89722E+03 -1.15303E+03 -1.47363E+04  1.07525E+04 -1.63019E+04
  1.91286E+04 -8.77977E+03  2.13641E+04  3.25237E+03  1.82719E+04  1.54123E+04  9.17440E+03  2.38394E+04
 -4.01295E+03  2.54739E+04 -1.70374E+04  1.63496E+04 -1.85893E+04  3.14400E+03 -1.33910E+04 -4.44432E+03
 -5.50447E+03 -5.95420E+03 -4.80159E+02  4.58500E+02 -2.67129E+03  3.03646E+03 -5.62528E+03  4.94782E+03
 -1.20552E+04 -1.10252E+03 -1.21923E+04 -1.00887E+04 -5.50168E+03 -1.68057E+04  5.48865E+03 -1.29754E+04
  1.05375E+04 -5.77928E+03  7.20194E+03  3.01741E+03  3.51092E+02  4.83538E+03 -6.01719E+03 -1.54149E+02
 -6.18528E+03 -8.70529E+03 -1.90820E+03 -1.29351E+04  7.59104E+03 -1.33320E+04  1.63243E+04 -6.67677E+03
  1.94454E+04  1.94389E+03  1.39094E+04  1.11008E+04  2.96199E+03  1.55700E+04 -7.69275E+03  1.29710E+04
 -1.10800E+04  3.94979E+03 -5.18866E+03 -2.88254E+03  1.33529E+03 -3.13498E+03  7.49162E+03 -1.10027E+03
  6.10743E+03  5.50684E+03  9.57373E+02  1.05625E+04 -6.97782E+03  1.00553E+04 -1.32424E+04  1.73658E+03
 -8.04993E+03 -6.72282E+03  9.78645E+01 -1.09649E+04  6.98184E+03 -5.36306E+03  6.88089E+03  2.23708E+03
  1.40254E+03  7.00644E+03 -7.07714E+03  8.91906E+03 -9.74052E+03  4.40707E+03 -1.06053E+04 -3.34807E+03
 -6.27445E+03 -1.23910E+04  2.92775E+03 -1.36332E+04  1.18959E+04 -8.26051E+03  1.25354E+04  2.65468E+03
  8.40019E+03  1.00552E+04 -1.09055E+03  1.25641E+04 -9.53202E+03  6.79670E+03 -9.11247E+03 -2.17022E+03
 -8.03636E+03 -9.13871E+03 -1.78927E+03 -8.59680E+03  5.32281E+03 -7.71076E+03  5.82489E+03 -3.58680E+03
  4.36600E+03  7.01042E+02 -1.01231E+03  1.82965E+03 -5.87236E+02 -1.96951E+03  1.16679E+03 -5.35046E+03
  7.74623E+03 -2.77828E+03  1.06678E+04  1.37444E+03  1.14160E+04  7.77058E+03  7.45211E+03  1.56892E+04
 -3.63861E+03  1.74982E+04 -1.42706E+04  1.33136E+04 -1.88567E+04  2.34788E+03 -1.59214E+04 -6.42925E+03
 -7.74568E+03 -1.22800E+04  2.87693E+02 -1.08338E+04  3.76261E+03 -5.48844E+03  3.32838E+03 -3.89713E+03
  3.10451E+03 -2.70165E+03  3.50203E+03 -3.16223E+03  4.78561E+03 -2.81457E+03  6.07335E+03 -1.78697E+02
  7.82769E+03  2.37212E+03  3.87065E+03  7.07742E+03 -2.08137E+03  7.37968E+03 -8.08631E+03  6.40616E+03
 -1.02712E+04 -1.43921E+03 -5.72245E+03 -7.08204E+03 -5.09644E+02 -1.09271E+04  5.90568E+03 -1.11050E+04
  1.16260E+04 -6.12320E+03  1.32056E+04  9.67497E+02  9.97019E+03  9.73545E+03  1.58382E+03  1.20247E+04
 -5.45311E+03  9.76829E+03 -6.64645E+03  3.36432E+03 -4.51205E+03 -1.55286E+03 -2.03206E+03 -1.81829E+03
 -1.20737E+03  4.97015E+02 -1.71488E+03  2.89536E+03 -4.38336E+03  1.44072E+03 -7.51674E+03 -9.13203E+02
 -4.92795E+03 -7.54050E+03  7.70463E+02 -1.00397E+04  6.16312E+03 -9.72302E+03  9.95205E+03 -2.91434E+03
  9.66128E+03  4.38085E+03  5.14405E+03  8.83001E+03 -1.32632E+03  1.02393E+04 -6.38891E+03  6.51247E+03
 -8.68871E+03  3.93281E+02 -6.71232E+03 -5.34382E+03 -1.17005E+03 -7.92337E+03  4.23716E+03 -6.16024E+03
  6.06738E+03 -2.25100E+03  3.86365E+03  1.08179E+03  1.79555E+03  3.59080E+03  1.31111E+03  1.25935E+03
  2.71983E+03  1.16093E+03  2.85527E+03  1.20683E+03  2.58418E+03  3.24536E+03  2.25296E+03  4.21318E+03
 -2.15736E+03  7.55711E+03 -6.78793E+03  8.09107E+03 -1.00599E+04  1.56301E+03 -9.83893E+03 -3.36393E+03
 -4.63300E+03 -9.88464E+03  1.45058E+03 -1.05991E+04  5.39749E+03 -6.59197E+03  7.30771E+03 -2.06574E+03
  6.52140E+03  3.83850E+03  1.03050E+03  5.47741E+03 -2.25379E+03  3.66900E+03 -4.38255E+03 -7.83738E+02
 -1.08074E+03 -4.20269E+03  1.97167E+03 -3.53061E+03  3.06226E+03 -1.45006E+03  4.06871E+03  8.54222E+02
  2.16974E+03  2.23675E+03  1.50510E+03  1.25405E+03 -7.25813E+02  1.35040E+03  2.32379E+03 -3.05861E+02
  1.42004E+03 -7.17269E+02  4.20792E+03  9.99272E+02  1.88687E+03  5.46616E+03 -7.25927E+02  6.70970E+03
 -3.70027E+03  3.84839E+03 -5.79127E+03  1.04599E+03 -5.29714E+03 -2.19507E+03 -1.82847E+03 -3.83787E+03
  1.03959E+03 -3.72225E+03  2.22459E+03 -1.70585E+03  1.88359E+03  2.19755E+03 -1.06787E+03  2.54765E+03
 -4.58654E+03  1.18007E+03 -3.83829E+03 -2.31863E+03 -2.12791E+03 -5.66546E+03  3.22394E+02 -4.00063E+03
  2.69578E+03 -2.59622E+03  3.47831E+03 -7.68134E+02  2.75185E+03  8.23882E+02  5.74688E+02  2.62445E+03
 -7.36975E+02  3.73142E+01 -2.65471E+03 -1.23171E+03  9.86614E+02 -3.47630E+03  3.88913E+03 -3.08676E+03
  4.84108E+03  7.43109E+02  5.34624E+03  2.74608E+03  2.35127E+03  5.41051E+03 -1.01095E+03  5.05260E+03
 -4.82993E+03  1.86317E+03 -4.19131E+03 -8.67959E+02 -2.24144E+03 -3.70658E+03  7.03403E+02 -2.97185E+03
  3.39883E+03 -1.32638E+03  2.56205E+03  1.94996E+03  1.59724E+03  2.58888E+03  1.03264E+02  3.15165E+03
 -9.56981E+02  1.91910E+03 -8.28526E+02  5.28758E+02 -5.64060E+02  1.08124E+03 -1.30193E+03  1.61080E+03
 -2.07604E+03  1.95513E+03 -3.23406E+03  2.33564E+03 -5.13849E+03 -3.35553E+02 -6.28350E+03 -2.86676E+03
 -3.45600E+03 -6.87293E+03  1.16370E+03 -8.24691E+03  4.73893E+03 -6.94066E+03  7.47936E+03 -2.72094E+03
  6.78604E+03  1.43266E+03  4.75535E+03  5.14929E+03  5.20503E+02  5.37558E+03 -2.39131E+03  4.38307E+03
 -3.11764E+03  9.19290E+02 -1.26731E+03 -6.42044E+02 -1.25953E+03 -3.08533E+02 -8.51340E+02  1.60582E+02
 -1.87930E+03 -1.61367E+02 -1.92681E+03 -9.90344E+02 -2.82098E+02 -1.62087E+03 -5.63317E+02 -2.02453E+03
  2.98385E+03 -2.02495E+03  3.38428E+03  1.93724E+02  4.19331E+03  3.43914E+03  1.07006E+03  5.33469E+03
 -2.29640E+03  5.96450E+03 -5.68808E+03  3.25561E+03 -5.66179E+03 -5.28741E+02 -4.61395E+03 -4.19614E+03
 -2.28404E+03 -5.13985E+03  1.52791E+03 -4.71432E+03  3.50393E+03 -2.20698E+03  3.33117E+03  1.59117E+01
  1.97003E+03  2.12041E+03 -2.09820E+02  1.69703E+03 -1.13313E+03 -5.66507E+02 -5.03710E+02 -9.68937E+02
  1.57311E+03 -1.14804E+02  2.08778E+03  5.20338E+02  1.63869E+03  2.11468E+03  4.50403E+02  1.68734E+03
 -1.97823E+03  1.99851E+03 -3.09724E+03  5.08486E+02 -2.74316E+03 -2.63680E+03 -7.54077E+02 -4.33298E+03
  2.16294E+03 -4.00241E+03  2.72147E+03 -6.66889E+02  3.70496E+03  1.14225E+02  1.34451E+03  2.81521E+03
  8.60528E+02  3.23559E+03 -9.55686E+02  2.32181E+03 -1.79347E+03  1.65603E+03 -1.94989E+03  5.70979E+02
 -3.58832E+02 -7.21226E+01 -9.73683E+02  5.79335E+02 -1.68044E+03  9.25338E+02 -2.38703E+03 -3.67666E+02
 -3.38650E+03 -1.58853E+03 -7.91739E+02 -3.56451E+03  2.12702E+03 -3.41108E+03  2.69036E+03 -7.96241E+02
  2.95224E+03 -1.32840E+00  1.20841E+03  1.54550E+03  2.19113E+02  2.88477E+03 -1.87832E+03  1.84811E+03
