 $NMID ID='MM_0lb_SNR400_19hz_g55_49.RAW', FMTDAT='(8E13.5)'
 TRAMP=1., VOLUME=1. $END
  3.09413E+05  1.00356E+02  3.37267E+05  2.50935E+05  8.43073E+04  3.36818E+05 -1.32560E+05  2.50607E+05
 -1.89913E+05  8.26085E+04 -1.11471E+05 -3.26717E+04  1.43228E+03 -5.03537E+04  5.38851E+04  1.54114E+02
  3.51040E+04  5.35212E+04 -1.67424E+04  7.50232E+04 -6.02458E+04  6.32038E+04 -8.33563E+04  3.13289E+04
 -8.00700E+04 -1.09161E+04 -5.65082E+04 -5.05692E+04 -1.48172E+04 -6.91447E+04  2.68358E+04 -4.49153E+04
  3.98284E+04  4.14971E+03  1.51978E+04  4.71306E+04 -3.40173E+04  4.63045E+04 -6.61296E+04 -5.13228E+02
 -5.25515E+04 -5.64210E+04 -6.47250E+03 -7.55171E+04  3.34266E+04 -5.35034E+04  4.71608E+04 -1.67170E+04
  4.19390E+04  1.13975E+04  3.11827E+04  2.44190E+04  1.60423E+04  2.88604E+04 -4.41140E+03  2.67735E+04
 -2.12502E+04  1.24094E+04 -1.89259E+04 -4.98169E+03  4.27434E+03 -7.46399E+03  2.14669E+04  1.15692E+04
  7.62290E+03  3.37870E+04 -3.09932E+04  3.44648E+04 -6.15464E+04  2.30145E+03 -5.56983E+04 -4.15469E+04
 -1.29378E+04 -6.13851E+04  3.85737E+04 -4.38173E+04  5.66771E+04 -1.85367E+03  3.23453E+04  3.08705E+04
 -6.12300E+03  3.42207E+04 -2.89294E+04  1.40138E+04 -2.79205E+04 -4.86852E+03 -1.42898E+04 -9.70699E+03
 -7.72650E+03 -1.23096E+04 -6.55007E+02 -1.69718E+04  6.65691E+03 -2.24711E+04  1.50820E+04 -1.40198E+04
  1.20815E+04  4.23906E+03 -7.41520E+03  1.31972E+04 -1.97543E+04 -2.95351E+03 -7.61880E+03 -3.14298E+04
  2.13459E+04 -4.14485E+04  4.54668E+04 -1.85819E+04  4.31077E+04  1.86797E+04  1.48319E+04  4.20035E+04
 -1.50819E+04  3.18965E+04 -2.33898E+04  1.00080E+03 -8.64742E+03 -2.67008E+04  2.06208E+04 -3.17123E+04
  3.84479E+04 -7.01546E+03  3.16297E+04  2.30666E+04  1.55263E+04  4.40497E+04 -7.21149E+03  4.62212E+04
 -2.89858E+04  3.06621E+04 -3.86054E+04  9.04358E+03 -3.91649E+04 -1.55124E+04 -2.12939E+04 -3.55935E+04
  6.80594E+03 -3.53662E+04  3.02948E+04 -1.31069E+04  2.73156E+04  1.11160E+04  3.44377E+03  1.82574E+04
 -1.35109E+04  6.87389E+03 -9.86403E+03 -7.76157E+03  5.86254E+03 -1.03203E+04  1.73050E+04  6.19457E+03
  1.26250E+04  2.20063E+04 -6.52801E+03  2.41642E+04 -2.13183E+04  9.65444E+03 -2.53604E+04 -5.93574E+03
 -1.71746E+04 -1.61956E+04 -5.77503E+03 -1.68624E+04  3.75189E+03 -1.56155E+04  1.33132E+04 -1.46687E+04
  2.15427E+04 -1.20568E+04  2.87738E+04  1.49419E+03  2.18607E+04  1.70334E+04  4.05042E+03  3.35852E+04
 -1.67703E+04  2.76461E+04 -2.63262E+04  9.69895E+03 -1.99564E+04 -1.07874E+04 -4.35633E+03 -1.37191E+04
  2.30063E+03 -4.79316E+03 -2.86161E+03  6.00921E+03 -1.34891E+04  5.08043E+03 -1.43816E+04 -5.26522E+03
 -8.87838E+03 -1.62259E+04  4.57855E+03 -2.04092E+04  1.28279E+04 -1.41732E+04  1.51977E+04 -1.44350E+03
  9.35406E+03  1.12643E+04 -7.41131E+02  1.59387E+04 -1.07804E+04  9.43310E+03 -1.61486E+04 -3.34105E+03
 -1.18281E+04 -1.45240E+04 -1.78544E+03 -1.91140E+04  8.46864E+03 -1.59536E+04  1.64060E+04 -7.70240E+03
  1.51059E+04  1.76308E+02  1.08665E+04  3.50672E+03  5.29826E+03  8.63199E+02  7.46233E+03 -1.64655E+03
  1.41145E+04  2.01218E+03  1.50118E+04  1.30516E+04  9.75567E+03  2.51856E+04 -3.17498E+03  2.74781E+04
 -1.56965E+04  2.10721E+04 -2.52177E+04  1.01382E+04 -2.62019E+04 -2.27778E+03 -2.20715E+04 -1.48557E+04
 -1.11155E+04 -2.06560E+04  6.85086E+03 -1.97928E+04  1.75659E+04 -1.15008E+04  1.58448E+04  3.76956E+03
  6.52068E+03  1.19892E+04 -6.94370E+03  1.11955E+04 -1.34883E+04  2.72872E+03 -1.06791E+04 -8.41172E+03
 -5.59179E+02 -1.24114E+04  6.28316E+03 -9.57522E+03  8.37104E+03 -1.03327E+03  1.45951E+03  4.91039E+03
 -5.34943E+03  1.61652E+03 -3.71364E+03 -4.47549E+03  8.90661E+02 -1.03674E+04  8.33839E+03 -1.06151E+04
  1.23315E+04 -5.40815E+03  1.24403E+04  3.15700E+03  1.06363E+04  9.92431E+03  5.46668E+03  1.46801E+04
 -1.47511E+03  1.58931E+04 -9.79903E+03  1.01944E+04 -1.07344E+04  2.75000E+03 -8.88840E+03 -1.81184E+03
 -4.20512E+03 -3.32919E+03 -9.64135E+02  1.40527E+03 -1.34296E+03  2.15152E+03 -3.72084E+03  3.66401E+03
 -7.17999E+03 -4.32575E+02 -9.29065E+03 -7.21000E+03 -3.68683E+03 -1.19562E+04  4.03686E+03 -8.91411E+03
  7.56892E+03 -3.41761E+03  5.76629E+03  2.12310E+03  5.67006E+02  3.29512E+03 -3.19228E+03 -2.42734E+01
 -3.17696E+03 -5.25696E+03 -5.24891E+02 -7.32964E+03  3.84111E+03 -8.01885E+03  1.00458E+04 -3.56522E+03
  1.16839E+04  9.35205E+02  9.20942E+03  6.13562E+03  1.88106E+03  8.20924E+03 -5.39774E+03  8.44366E+03
 -6.81501E+03  3.05493E+03 -3.58439E+03 -9.87009E+02  1.04154E+03 -1.54732E+03  4.51290E+03 -1.12710E+03
  4.13774E+03  4.65656E+03  1.33698E+03  5.98969E+03 -4.96361E+03  6.03240E+03 -7.78328E+03  1.58617E+03
 -4.67960E+03 -3.68675E+03  3.80175E+02 -6.63364E+03  3.43388E+03 -3.31048E+03  3.23034E+03  5.58293E+02
  1.79981E+02  2.95843E+03 -4.17819E+03  4.70296E+03 -4.85080E+03  2.06256E+03 -4.66292E+03 -1.30724E+03
 -2.78815E+03 -6.37472E+03  1.70308E+03 -6.63825E+03  6.22221E+03 -4.71531E+03  6.20358E+03  1.19542E+03
  5.03746E+03  5.17912E+03  1.35666E+02  7.26521E+03 -4.77900E+03  4.28726E+03 -5.63149E+03 -6.24988E+02
 -5.45568E+03 -4.49879E+03 -1.45353E+03 -5.10928E+03  2.55129E+03 -4.19166E+03  2.86362E+03 -2.72557E+03
  2.90094E+03  2.56984E+01  2.55126E+02  1.38949E+03  2.59741E+02 -3.47492E+02  2.51197E+02 -1.66465E+03
  4.20122E+03 -1.06411E+03  5.33427E+03  5.65253E+02  5.40752E+03  3.12548E+03  5.04334E+03  6.78543E+03
 -1.34678E+03  8.42549E+03 -7.45309E+03  6.07937E+03 -9.85404E+03  1.37736E+03 -7.83375E+03 -2.47924E+03
 -4.22081E+03 -6.51533E+03  3.53896E+02 -4.58807E+03  2.29300E+03 -1.99109E+03  1.78960E+03 -2.09732E+03
  1.78453E+03 -1.35707E+03  2.26588E+03 -2.66900E+03  3.29564E+03 -1.13571E+03  3.83807E+03  8.22210E+02
  4.46459E+03  9.56832E+02  6.47482E+02  3.31953E+03 -1.62632E+03  2.96030E+03 -4.25382E+03  2.39759E+03
 -5.57679E+03 -1.21961E+03 -1.31864E+03 -3.11597E+03  1.53361E+02 -5.00904E+03  3.18109E+03 -5.15494E+03
  4.13849E+03 -3.00856E+03  6.40668E+03  2.99722E+02  4.76530E+03  3.85498E+03  2.45658E+02  5.46626E+03
 -1.90762E+03  5.80386E+03 -3.24032E+03  1.78962E+03 -2.08301E+03 -1.05720E+03 -6.62139E+02 -3.71615E+02
 -9.98162E+02  3.06836E+02 -6.27767E+02  1.97448E+03 -2.76790E+03  7.47018E+02 -3.71730E+03 -1.16877E+02
 -1.22734E+03 -3.51619E+03  7.33423E+02 -4.61846E+03  2.82029E+03 -3.78166E+03  3.38853E+03 -1.60515E+03
  4.03550E+03  2.07612E+03  1.95923E+03  2.61290E+03 -8.28827E+02  3.70274E+03 -2.27613E+03  2.01484E+03
 -3.48806E+03  7.99099E+02 -3.16276E+03 -1.95577E+03  1.88229E+02 -2.82245E+03  1.38623E+03 -2.60808E+03
  2.86106E+03 -1.48028E+03  1.48632E+03  8.50324E+01  4.36131E+02  1.54833E+03  1.21263E+03  9.83032E+02
  1.35607E+03  2.85785E+02  1.31585E+03  1.05972E+03  1.15207E+03  2.09066E+03  1.19506E+03  2.04685E+03
 -1.50004E+03  2.35321E+03 -1.95617E+03  3.40061E+03 -2.91492E+03  8.69842E+02 -3.79789E+03 -3.58838E+01
 -1.66404E+03 -3.44186E+03  5.37541E+02 -4.53968E+03  1.45979E+03 -2.36160E+03  2.46166E+03 -1.12023E+03
  1.86714E+03  1.13796E+03  3.68935E+02  1.89900E+03 -9.80234E+02  7.89562E+02 -9.39462E+02 -1.33111E+01
 -6.59895E+02 -1.71805E+03  1.56633E+03 -1.51095E+03  1.31853E+03 -8.02590E+02  1.65839E+03  3.43873E+02
  3.80795E+02  4.55027E+02  8.17331E+02  2.14695E+02 -2.96773E+02  2.19305E+02  1.42558E+03 -4.19018E+02
  4.61532E+02  7.72825E+01  1.64869E+03  2.37427E+02  3.45723E+02  2.62094E+03 -5.39479E+02  2.01797E+03
 -1.43715E+03  1.14847E+03 -2.22908E+03  1.09875E+02 -2.31555E+03 -5.78986E+02 -4.04324E+02 -1.07317E+03
  1.54293E+02 -7.10898E+02  4.56705E+02 -1.13010E+03  7.56003E+01  8.60328E+02 -7.68653E+02  1.28825E+03
 -1.60471E+03  6.79541E+02 -7.25152E+02 -9.04188E+02 -5.16449E+02 -2.06670E+03  2.97536E+02 -1.38521E+03
  2.53870E+02 -5.10151E+02  9.25388E+02  3.94673E+02  1.46274E+03 -3.14337E+02  6.10909E+02  1.13173E+03
  1.43696E+02 -1.33142E+02 -7.74763E+02 -1.83948E+02  1.21924E+02 -4.97753E+02  2.01031E+03 -3.66384E+02
  8.71845E+02  2.81720E+02  2.88311E+03  8.86121E+02  1.14378E+03  1.46234E+03 -6.14289E+02  1.62518E+03
 -1.18259E+03  2.59346E+02 -1.07548E+03  2.41303E+01 -4.65527E+01 -1.32268E+03  2.60387E+02 -5.36240E+02
  1.59761E+03 -2.82217E+02  1.05539E+03  9.43335E+02  2.70522E+02  1.23277E+03 -9.16127E+01  1.16904E+03
 -2.51755E+01  1.45243E+03 -7.28735E+02  7.23619E+02  7.14522E+02  5.41632E+02 -7.88905E+02  9.69195E+02
 -3.26586E+02  1.01441E+03 -1.14320E+03  1.21361E+02 -1.67419E+03  4.62680E+02 -2.56515E+03 -9.20760E+02
 -7.39935E+02 -1.68745E+03  1.93654E+02 -2.53876E+03  1.80624E+03 -1.82509E+03  2.53586E+03 -1.70775E+03
  2.19537E+03 -4.66315E+01  1.53276E+03  1.20904E+03 -1.06092E+03  1.54591E+03 -5.46962E+02  5.08628E+02
 -9.56138E+02  9.85961E+02 -6.56361E+02 -4.71377E+02  1.55959E+01  1.28535E+02 -5.02311E+02  7.68837E+02
 -1.21352E+03  5.68685E+02 -8.61804E+02  1.68118E+02  7.51111E+00 -6.92975E+02 -2.15121E+02 -6.07264E+02
  9.54148E+02 -5.63700E+02  6.64771E+02 -2.90130E+01  8.27004E+02  1.06951E+03 -1.42121E+01  1.54017E+03
 -6.65494E+02  1.64688E+03 -1.05337E+03  1.00211E+03 -1.54077E+03 -8.71458E+02 -4.98090E+02 -1.62875E+03
 -9.95737E+02 -6.49306E+02 -4.83853E+02 -4.48842E+02  6.25974E+01 -7.07734E+02  2.50863E+02  5.56903E+02
  1.05640E+03 -3.12185E+02  5.29740E+02  2.79956E+02 -1.66112E+02 -3.25773E+02 -4.07074E+02 -4.14896E+02
  3.28464E+02  2.42538E+02  2.98225E+02  3.54141E+02  3.79457E+02  8.37036E+01  6.82268E+02  9.91211E+02
 -3.25539E+02  5.37972E+02 -4.26073E+02  1.54827E+02 -7.11327E+02 -2.52538E+02 -3.49541E+02 -8.92149E+02
  4.43897E+02 -2.93771E+02  3.38894E+02  2.81545E+02  9.31516E+02 -5.07966E+02  5.54940E+02  5.29441E+02
  7.68414E+01  4.58818E+02 -1.84398E+02  2.71537E+02 -7.06500E+02  4.01213E+02 -4.44852E+02  3.28957E+02
 -5.77784E+02  1.14721E+02 -3.69598E+02 -2.11385E+02 -8.30941E+02  3.01075E+02 -8.33790E+02 -5.97423E+01
 -1.32041E+03  4.80269E+02 -8.80206E+01 -9.76001E+02  8.50017E+02 -1.81967E+03  4.01347E+02 -1.44355E+00
  2.86872E+02 -1.02354E+02 -3.66242E+02  1.97843E+02  3.08417E+02  1.11261E+03  3.45574E+02  5.22184E+02
