 $NMID ID='MM_0lb_SNR400_11hz_g60_76.RAW', FMTDAT='(8E13.5)'
 TRAMP=1., VOLUME=1. $END
  3.09314E+05  6.30011E+02  3.38178E+05  2.50007E+05  8.48267E+04  3.38619E+05 -1.32656E+05  2.51725E+05
 -1.90605E+05  8.37741E+04 -1.12784E+05 -3.17281E+04  9.58347E+02 -5.08170E+04  5.37372E+04 -1.76985E+02
  3.56584E+04  5.30240E+04 -1.63983E+04  7.58197E+04 -6.15276E+04  6.43792E+04 -8.52218E+04  3.30572E+04
 -8.21746E+04 -1.22276E+04 -5.85372E+04 -5.15911E+04 -1.50090E+04 -7.10455E+04  2.84118E+04 -4.65243E+04
  4.07010E+04  3.21850E+03  1.50852E+04  4.79369E+04 -3.42016E+04  4.75312E+04 -6.80156E+04 -2.92434E+02
 -5.46939E+04 -5.78932E+04 -7.31076E+03 -7.89675E+04  3.43632E+04 -5.66529E+04  4.91240E+04 -1.79599E+04
  4.54971E+04  1.17275E+04  3.26052E+04  2.60217E+04  1.61603E+04  3.08104E+04 -6.13477E+03  2.78028E+04
 -2.20369E+04  1.18077E+04 -1.82725E+04 -5.96179E+03  6.75658E+03 -6.46573E+03  2.29493E+04  1.44891E+04
  8.12230E+03  3.77970E+04 -3.40290E+04  3.76371E+04 -6.59474E+04  2.03023E+03 -5.82524E+04 -4.46567E+04
 -1.24844E+04 -6.57876E+04  4.11632E+04 -4.67999E+04  6.11142E+04 -1.47327E+03  3.64665E+04  3.45412E+04
 -5.45827E+03  3.91694E+04 -3.12484E+04  1.81161E+04 -3.26161E+04 -3.67902E+03 -1.90047E+04 -1.13933E+04
 -9.87515E+03 -1.52600E+04 -8.64729E+02 -2.00156E+04  7.61182E+03 -2.32869E+04  1.69801E+04 -1.29024E+04
  1.01636E+04  6.28205E+03 -1.06763E+04  1.29992E+04 -2.28734E+04 -6.28358E+03 -8.43098E+03 -3.73147E+04
  2.53361E+04 -4.65457E+04  5.19245E+04 -2.12498E+04  4.85605E+04  2.07841E+04  1.72441E+04  4.67174E+04
 -1.64249E+04  3.62601E+04 -2.67292E+04  3.14644E+03 -1.17721E+04 -2.94226E+04  2.14227E+04 -3.60562E+04
  4.38306E+04 -1.09662E+04  4.02192E+04  2.54886E+04  2.06687E+04  5.08935E+04 -8.66251E+03  5.56331E+04
 -3.43471E+04  3.73020E+04 -4.69658E+04  1.09883E+04 -4.69336E+04 -1.91049E+04 -2.56765E+04 -4.09654E+04
  7.40653E+03 -4.18527E+04  3.37299E+04 -1.69900E+04  3.10786E+04  1.07486E+04  4.86262E+03  2.10273E+04
 -1.41466E+04  1.01840E+04 -1.12121E+04 -7.83730E+03  4.43369E+03 -1.20933E+04  1.80221E+04  5.96402E+03
  1.38303E+04  2.29095E+04 -5.18632E+03  2.66493E+04 -2.47664E+04  1.46396E+04 -3.10239E+04 -2.90075E+03
 -2.49644E+04 -1.78454E+04 -1.08054E+04 -2.52284E+04  4.68054E+03 -2.47583E+04  1.93395E+04 -2.20359E+04
  3.18807E+04 -1.41811E+04  3.71390E+04  5.30626E+03  2.65519E+04  2.35836E+04  4.49515E+03  4.04248E+04
 -2.00062E+04  3.32065E+04 -3.03906E+04  1.15524E+04 -2.25004E+04 -1.01622E+04 -4.74213E+03 -1.35061E+04
  7.08492E+02 -1.84470E+03 -7.42329E+03  8.22765E+03 -1.91461E+04  4.74401E+03 -1.95002E+04 -9.12602E+03
 -1.19572E+04 -2.30426E+04  6.01927E+03 -2.72832E+04  1.72775E+04 -1.92681E+04  2.11466E+04 -1.24968E+03
  1.43036E+04  1.55205E+04 -1.30290E+03  2.20887E+04 -1.60333E+04  1.33067E+04 -2.26090E+04 -4.52551E+03
 -1.65715E+04 -1.97957E+04 -1.83355E+03 -2.71496E+04  1.27437E+04 -2.34199E+04  2.21632E+04 -1.15113E+04
  2.07073E+04 -1.60668E+02  1.44431E+04  5.16745E+03  8.22353E+03  1.53801E+03  1.19074E+04 -1.77058E+03
  2.12548E+04  2.90648E+03  2.41859E+04  1.74483E+04  1.71473E+04  3.62593E+04 -3.08512E+03  4.29834E+04
 -2.42136E+04  3.58832E+04 -3.91559E+04  1.85729E+04 -4.23968E+04 -3.10584E+03 -3.49190E+04 -2.44159E+04
 -1.39236E+04 -3.50241E+04  1.32280E+04 -3.14135E+04  2.68274E+04 -1.49630E+04  2.23988E+04  7.28735E+03
  7.51872E+03  1.79306E+04 -1.08446E+04  1.52543E+04 -1.88828E+04  3.10057E+03 -1.44968E+04 -1.24601E+04
  4.33959E+02 -1.84209E+04  9.99945E+03 -1.31384E+04  1.27665E+04 -1.71512E+03  3.20603E+03  7.47768E+03
 -8.17466E+03  4.12444E+03 -8.05574E+03 -6.98266E+03 -1.20374E+03 -1.71866E+04  1.14637E+04 -1.84913E+04
  2.20858E+04 -1.10978E+04  2.43348E+04  2.95226E+03  2.15237E+04  1.73669E+04  9.83192E+03  2.75200E+04
 -5.26354E+03  2.94320E+04 -1.91889E+04  1.84570E+04 -2.07872E+04  4.45963E+03 -1.43564E+04 -5.05862E+03
 -6.42644E+03 -7.36219E+03 -4.02151E+02  4.69294E+02 -2.55155E+03  2.80675E+03 -6.96637E+03  4.88148E+03
 -1.35420E+04 -1.02549E+03 -1.45296E+04 -1.12017E+04 -6.28819E+03 -1.87962E+04  5.76639E+03 -1.53158E+04
  1.23808E+04 -6.67536E+03  8.61127E+03  3.87576E+03 -5.19756E+01  5.64804E+03 -6.51132E+03  1.21697E+01
 -7.18346E+03 -1.03799E+04 -1.51443E+03 -1.45777E+04  7.98160E+03 -1.51867E+04  1.92303E+04 -7.23772E+03
  2.17052E+04  2.66238E+03  1.53832E+04  1.26849E+04  3.44830E+03  1.75244E+04 -8.94156E+03  1.49241E+04
 -1.19259E+04  4.35358E+03 -6.35614E+03 -2.45649E+03  2.37019E+03 -4.23331E+03  7.81941E+03 -1.00247E+03
  7.52680E+03  6.29965E+03  6.82110E+02  1.15676E+04 -8.10076E+03  1.14403E+04 -1.45625E+04  3.33479E+03
 -9.68267E+03 -7.53607E+03  2.90242E+02 -1.20229E+04  8.40144E+03 -6.51576E+03  8.77393E+03  2.99815E+03
  2.09012E+03  8.48327E+03 -7.56265E+03  1.01717E+04 -1.26132E+04  4.49194E+03 -1.21642E+04 -4.88020E+03
 -7.10235E+03 -1.53658E+04  3.84031E+03 -1.68671E+04  1.42863E+04 -9.74837E+03  1.47130E+04  2.59697E+03
  9.57257E+03  1.14749E+04 -1.39724E+03  1.42034E+04 -1.05610E+04  7.83156E+03 -1.19090E+04 -2.28156E+03
 -9.64345E+03 -9.32026E+03 -1.79653E+03 -1.11176E+04  5.74756E+03 -9.24953E+03  6.39722E+03 -3.30502E+03
  4.17888E+03  1.17001E+03 -1.07615E+03  2.05044E+03  2.40734E+02 -2.99861E+03  2.64980E+03 -7.25632E+03
  1.02250E+04 -4.13165E+03  1.48810E+04  1.37408E+03  1.46656E+04  1.01314E+04  1.01348E+04  1.84886E+04
 -4.05704E+03  2.12196E+04 -1.71700E+04  1.51615E+04 -2.36045E+04  3.16254E+03 -1.85724E+04 -7.69839E+03
 -9.34227E+03 -1.54051E+04  1.05051E+02 -1.28936E+04  4.54711E+03 -7.45265E+03  4.49949E+03 -4.29881E+03
  3.73865E+03 -2.69893E+03  3.07931E+03 -3.84729E+03  6.03030E+03 -3.04663E+03  7.29139E+03 -7.65962E+02
  8.81125E+03  3.00417E+03  4.89217E+03  9.34073E+03 -1.77350E+03  1.02283E+04 -9.89322E+03  6.97598E+03
 -1.19082E+04 -1.74920E+03 -8.44457E+03 -9.63947E+03 -1.08716E+03 -1.37859E+04  7.82346E+03 -1.35854E+04
  1.49740E+04 -7.19079E+03  1.72465E+04  2.67481E+03  1.17559E+04  1.12709E+04  2.04893E+03  1.56185E+04
 -6.57479E+03  1.33905E+04 -8.82294E+03  3.49099E+03 -6.08375E+03 -1.91447E+03 -2.34902E+03 -1.80269E+03
 -1.51970E+03  1.70862E+02 -2.27686E+03  2.39548E+03 -5.52106E+03  1.90363E+03 -8.60363E+03 -1.44006E+03
 -6.62563E+03 -8.43587E+03 -3.89144E+02 -1.28687E+04  6.90942E+03 -1.15919E+04  1.24031E+04 -3.13145E+03
  1.24007E+04  6.45055E+03  5.83223E+03  1.12624E+04 -2.56228E+03  1.22936E+04 -8.95317E+03  8.17919E+03
 -1.20986E+04 -1.64287E+02 -9.31511E+03 -7.13879E+03 -1.44449E+03 -1.09987E+04  5.59513E+03 -7.09622E+03
  8.07689E+03 -2.45403E+03  5.50727E+03  2.69528E+03  1.78291E+03  4.21129E+03  1.04008E+03  1.89033E+03
  2.02923E+03  1.29754E+03  3.01676E+03  1.69278E+03  3.61899E+03  4.56721E+03  3.56622E+03  6.96217E+03
 -2.72043E+03  9.78722E+03 -8.54367E+03  1.02865E+04 -1.22293E+04  2.54868E+03 -1.33490E+04 -5.21062E+03
 -6.74360E+03 -1.24006E+04  2.67851E+03 -1.40068E+04  8.25411E+03 -9.06158E+03  1.02427E+04 -2.39522E+03
  8.16170E+03  4.84708E+03  1.75443E+03  6.60151E+03 -3.33786E+03  4.98770E+03 -5.12617E+03 -7.74537E+02
 -2.38253E+03 -5.38396E+03  2.43748E+03 -6.14963E+03  5.21211E+03 -2.63379E+03  5.00894E+03  1.11746E+03
  2.37599E+03  2.29146E+03  1.32705E+03  1.93300E+03 -3.47551E+02  1.19206E+03  1.94215E+03 -3.18430E+02
  2.13540E+03 -6.94436E+01  5.54927E+03  1.59180E+03  2.08369E+03  6.65960E+03 -1.81219E+03  9.02697E+03
 -5.50270E+03  5.65052E+03 -7.83809E+03  1.73984E+03 -6.81969E+03 -3.36507E+03 -1.97451E+03 -5.89121E+03
  1.10390E+02 -5.10493E+03  2.99477E+03 -2.64124E+03  3.01101E+03  2.85143E+03 -6.84261E+02  4.39416E+03
 -6.34039E+03  2.26922E+03 -5.76584E+03 -3.24870E+03 -2.92893E+03 -7.30610E+03  6.73565E+02 -7.09019E+03
  4.33996E+03 -4.04585E+03  4.88074E+03 -1.28585E+03  3.78628E+03  5.09191E+02  6.27497E+02  3.79944E+03
 -2.26125E+03  1.76276E+03 -3.46724E+03 -1.51241E+03  1.38395E+03 -4.81032E+03  6.65704E+03 -3.90328E+03
  7.89445E+03 -9.66422E+01  7.61620E+03  4.98889E+03  2.08458E+03  7.73175E+03 -2.41221E+03  7.29476E+03
 -6.89336E+03  3.19670E+03 -7.42931E+03 -6.02316E+02 -3.38555E+03 -5.23607E+03  1.59763E+03 -4.82973E+03
  4.97553E+03 -2.16153E+03  3.61154E+03  2.43624E+03  1.81698E+03  4.58112E+03 -4.72267E+02  5.11453E+03
 -1.83737E+03  2.51859E+03 -2.31775E+03  1.26012E+03 -8.08702E+02  1.08119E+02 -1.61277E+03  1.53335E+03
 -1.84791E+03  3.20466E+03 -5.17901E+03  2.89710E+03 -7.92685E+03  7.07262E+01 -8.58902E+03 -5.23393E+03
 -4.92994E+03 -1.01249E+04  2.47099E+03 -1.16099E+04  7.32742E+03 -9.52309E+03  1.06610E+04 -2.61294E+03
  1.01577E+04  2.15678E+03  6.38245E+03  7.49662E+03  6.83182E+02  7.52887E+03 -3.56983E+03  6.45021E+03
 -4.01513E+03  2.57057E+03 -2.97367E+03 -8.10831E+02 -6.96043E+01 -2.44415E+02 -2.29373E+02  1.08433E+02
 -1.19335E+03  3.84480E+02 -1.50495E+03 -2.02983E+02 -8.35166E+02 -1.37095E+03 -2.51904E+00 -3.10272E+03
  3.44648E+03 -2.09314E+03  4.40887E+03  6.89143E+01  5.80196E+03  3.95535E+03  1.77418E+03  8.03262E+03
 -3.76507E+03  8.85011E+03 -8.19921E+03  5.28729E+03 -9.54971E+03 -1.08103E+03 -7.98020E+03 -5.80801E+03
 -2.98166E+03 -7.90858E+03  1.91755E+03 -7.23338E+03  4.69182E+03 -4.13345E+03  4.59392E+03  4.16838E+02
  2.88285E+03  2.85840E+03 -2.56913E+02  2.72842E+03 -7.14069E+02 -3.23977E+02 -5.26183E+02 -1.96418E+03
  2.47106E+03 -7.82353E+02  2.31585E+03  5.45665E+02  1.69503E+03  3.50104E+03  6.55042E+02  3.85988E+03
 -4.01192E+03  3.75488E+03 -5.37246E+03  1.01192E+02 -4.81306E+03 -4.04066E+03 -2.24559E+02 -6.23189E+03
  2.86523E+03 -5.08439E+03  5.74330E+03 -1.29293E+03  5.84232E+03  9.32656E+02  3.37555E+03  4.59507E+03
  9.08117E+02  4.82184E+03 -1.22525E+03  4.45518E+03 -3.24662E+03  1.92399E+03 -2.57888E+03  6.04667E+01
 -1.59413E+03  1.45718E+02 -1.46537E+03  8.38430E+02 -1.73227E+03  1.04354E+03 -3.77285E+03 -1.08216E+03
 -4.69953E+03 -2.99341E+03 -1.15419E+03 -5.01411E+03  2.90243E+03 -5.99793E+03  4.00639E+03 -2.77877E+03
  4.70482E+03  8.65940E+02  2.09826E+03  3.48928E+03 -7.86720E+02  5.18582E+03 -3.44485E+03  2.69439E+03
