 $NMID ID='MM_0lb_SNR400_13hz_g45_97.RAW', FMTDAT='(8E13.5)'
 TRAMP=1., VOLUME=1. $END
  3.09842E+05 -5.37867E+02  3.37754E+05  2.51266E+05  8.51322E+04  3.38477E+05 -1.33055E+05  2.51344E+05
 -1.90159E+05  8.30768E+04 -1.12077E+05 -3.24022E+04  7.45552E+02 -5.00963E+04  5.36005E+04 -2.58702E+02
  3.53505E+04  5.31090E+04 -1.73405E+04  7.61798E+04 -6.09665E+04  6.39345E+04 -8.41490E+04  3.19963E+04
 -8.03188E+04 -1.13075E+04 -5.74033E+04 -5.16825E+04 -1.52458E+04 -6.92478E+04  2.75745E+04 -4.63778E+04
  3.99988E+04  3.34409E+03  1.62914E+04  4.78375E+04 -3.43322E+04  4.69775E+04 -6.72828E+04 -1.60142E+02
 -5.36879E+04 -5.69703E+04 -6.90149E+03 -7.72022E+04  3.49047E+04 -5.52061E+04  4.77860E+04 -1.72521E+04
  4.39095E+04  1.11396E+04  3.24139E+04  2.57058E+04  1.57147E+04  2.98967E+04 -5.01889E+03  2.75906E+04
 -2.17836E+04  1.27106E+04 -1.87493E+04 -4.85000E+03  6.09984E+03 -7.85400E+03  2.19401E+04  1.27019E+04
  7.42919E+03  3.57264E+04 -3.21892E+04  3.49232E+04 -6.36636E+04  1.83038E+03 -5.73145E+04 -4.31470E+04
 -1.18300E+04 -6.30262E+04  3.99168E+04 -4.55098E+04  5.86368E+04 -1.83242E+03  3.45437E+04  3.24475E+04
 -6.30249E+03  3.63177E+04 -3.04353E+04  1.59553E+04 -3.04483E+04 -4.09790E+03 -1.69853E+04 -1.10081E+04
 -8.47365E+03 -1.34932E+04 -4.38632E+02 -1.87178E+04  8.03988E+03 -2.34188E+04  1.48927E+04 -1.29141E+04
  1.10910E+04  5.61132E+03 -8.55593E+03  1.24383E+04 -2.16135E+04 -4.55060E+03 -8.39141E+03 -3.39453E+04
  2.26541E+04 -4.33004E+04  4.82612E+04 -2.02450E+04  4.54789E+04  1.96966E+04  1.56807E+04  4.44806E+04
 -1.58523E+04  3.41210E+04 -2.47742E+04  2.59252E+03 -9.87012E+03 -2.78468E+04  2.05455E+04 -3.42940E+04
  4.09547E+04 -8.97097E+03  3.56965E+04  2.38559E+04  1.83097E+04  4.65386E+04 -7.80883E+03  5.13497E+04
 -3.22330E+04  3.40097E+04 -4.26331E+04  9.37650E+03 -4.33698E+04 -1.72407E+04 -2.40806E+04 -3.83186E+04
  7.60342E+03 -3.87527E+04  3.17475E+04 -1.45903E+04  2.97606E+04  1.07582E+04  4.48999E+03  1.93804E+04
 -1.38882E+04  8.78410E+03 -1.04915E+04 -7.47963E+03  5.66969E+03 -1.11004E+04  1.73961E+04  6.15054E+03
  1.35030E+04  2.17775E+04 -5.44965E+03  2.48964E+04 -2.19786E+04  1.22340E+04 -2.83951E+04 -4.41631E+03
 -2.08344E+04 -1.71403E+04 -8.30790E+03 -2.13371E+04  4.32640E+03 -1.99478E+04  1.59602E+04 -1.86793E+04
  2.65924E+04 -1.30499E+04  3.26505E+04  2.74292E+03  2.41532E+04  1.97929E+04  4.63886E+03  3.65555E+04
 -1.79922E+04  3.07070E+04 -2.80920E+04  1.05438E+04 -2.15879E+04 -1.06067E+04 -4.13582E+03 -1.35504E+04
  1.88772E+03 -2.64793E+03 -5.43029E+03  7.11856E+03 -1.65229E+04  4.95584E+03 -1.65015E+04 -6.83810E+03
 -1.05520E+04 -1.97566E+04  5.00850E+03 -2.39620E+04  1.50220E+04 -1.70573E+04  1.85012E+04 -1.67663E+03
  1.19035E+04  1.38705E+04 -9.18565E+02  1.94822E+04 -1.30813E+04  1.17036E+04 -1.90645E+04 -4.02892E+03
 -1.45403E+04 -1.84683E+04 -1.82647E+03 -2.36920E+04  1.10085E+04 -1.94951E+04  1.98345E+04 -9.24138E+03
  1.78726E+04 -3.74860E+01  1.36406E+04  3.89172E+03  6.79291E+03  7.09207E+02  9.62337E+03 -1.33155E+03
  1.82023E+04  2.92324E+03  1.97130E+04  1.53165E+04  1.27164E+04  3.19501E+04 -2.93767E+03  3.52917E+04
 -2.07704E+04  2.84669E+04 -3.31212E+04  1.44050E+04 -3.47087E+04 -2.17042E+03 -2.84499E+04 -1.95874E+04
 -1.19957E+04 -2.90066E+04  9.07850E+03 -2.60259E+04  2.21364E+04 -1.32874E+04  1.96966E+04  5.81498E+03
  8.05357E+03  1.53700E+04 -8.91310E+03  1.34682E+04 -1.70966E+04  2.48082E+03 -1.29485E+04 -1.02471E+04
  1.01215E+02 -1.60543E+04  8.03975E+03 -1.17085E+04  1.03773E+04 -9.58152E+02  2.49557E+03  6.50826E+03
 -6.92411E+03  2.89484E+03 -6.24444E+03 -6.32114E+03 -8.47754E+01 -1.40086E+04  1.01573E+04 -1.48953E+04
  1.74330E+04 -7.57254E+03  1.89062E+04  2.47910E+03  1.60761E+04  1.37724E+04  7.28960E+03  2.07453E+04
 -3.80263E+03  2.28828E+04 -1.52313E+04  1.49940E+04 -1.63346E+04  3.64150E+03 -1.20666E+04 -3.95484E+03
 -5.65960E+03 -5.30937E+03 -3.09615E+02  5.23302E+02 -2.62432E+03  2.82422E+03 -5.38353E+03  4.48420E+03
 -1.05788E+04 -1.95677E+02 -1.16394E+04 -9.32468E+03 -4.16699E+03 -1.57181E+04  4.42466E+03 -1.16313E+04
  1.01506E+04 -4.83574E+03  6.83163E+03  3.37783E+03  1.10066E+02  4.12830E+03 -5.70757E+03 -6.62792E+01
 -5.53181E+03 -7.54300E+03 -4.84978E+02 -1.11225E+04  6.86037E+03 -1.21639E+04  1.42534E+04 -7.31692E+03
  1.75506E+04  1.21991E+03  1.23781E+04  1.00417E+04  1.95906E+03  1.30921E+04 -7.98395E+03  1.16127E+04
 -9.86265E+03  3.48450E+03 -4.26988E+03 -2.70085E+03  1.71523E+03 -2.42716E+03  6.70564E+03 -6.54709E+02
  5.46589E+03  5.21347E+03  1.22435E+03  9.73653E+03 -5.90221E+03  8.83855E+03 -1.21055E+04  2.17048E+03
 -7.32048E+03 -5.35017E+03  4.72327E+02 -9.25452E+03  5.98022E+03 -4.96635E+03  5.96136E+03  2.52646E+03
  7.59783E+02  6.57254E+03 -5.54396E+03  8.38609E+03 -9.05106E+03  3.69273E+03 -9.00061E+03 -2.68343E+03
 -5.27552E+03 -1.07331E+04  2.94814E+03 -1.26785E+04  1.00921E+04 -7.60822E+03  1.10297E+04  1.55560E+03
  6.50075E+03  8.71721E+03  9.89515E+01  1.13665E+04 -7.93756E+03  6.63853E+03 -9.17422E+03 -8.32550E+02
 -7.80289E+03 -7.61936E+03 -1.96268E+03 -7.80322E+03  4.28764E+03 -6.49293E+03  5.78758E+03 -3.56333E+03
  3.87211E+03  1.14433E+03 -8.46967E+01  1.75773E+03 -1.72450E+02 -9.51653E+02  7.74817E+02 -4.49539E+03
  7.65193E+03 -3.17592E+03  1.06307E+04  1.00468E+03  1.01947E+04  6.52047E+03  7.08737E+03  1.29646E+04
 -2.79044E+03  1.52073E+04 -1.23102E+04  1.15787E+04 -1.71820E+04  1.67410E+03 -1.34929E+04 -5.76339E+03
 -7.38421E+03 -1.12779E+04 -3.39933E+02 -9.79798E+03  3.07535E+03 -4.70399E+03  3.49064E+03 -3.39615E+03
  2.39678E+03 -1.89774E+03  2.98813E+03 -3.20257E+03  4.24389E+03 -2.90973E+03  4.90552E+03 -6.89477E+02
  7.64207E+03  1.72168E+03  2.99008E+03  6.32602E+03 -2.29859E+03  6.54749E+03 -7.43527E+03  5.05492E+03
 -9.17404E+03 -1.18056E+03 -4.75398E+03 -5.66813E+03 -3.03498E+02 -9.97397E+03  5.57061E+03 -9.73770E+03
  1.00804E+04 -5.71039E+03  1.26226E+04  9.68518E+02  8.68797E+03  8.72395E+03  9.49216E+02  1.15861E+04
 -4.83686E+03  9.46451E+03 -6.25658E+03  2.93904E+03 -4.02811E+03 -1.09286E+03 -1.37998E+03 -1.06642E+03
 -7.05446E+02  5.35577E+01 -7.75321E+02  2.73708E+03 -3.52990E+03  1.35418E+03 -6.54165E+03 -6.56184E+02
 -4.79718E+03 -6.63503E+03  9.86158E+02 -9.02642E+03  5.92796E+03 -8.75669E+03  8.59154E+03 -2.63238E+03
  8.52805E+03  4.21480E+03  3.60105E+03  7.67955E+03 -1.87042E+03  8.88861E+03 -5.49171E+03  5.35573E+03
 -8.39224E+03  6.92963E+02 -6.38652E+03 -4.99343E+03 -8.98566E+02 -7.07480E+03  3.33480E+03 -5.31212E+03
  5.58270E+03 -1.80097E+03  3.12618E+03  1.35467E+03  1.51384E+03  2.49298E+03  1.35438E+03  1.40010E+03
  1.53145E+03  8.69022E+02  1.68933E+03  1.54182E+03  2.98683E+03  3.58701E+03  2.83806E+03  4.16968E+03
 -1.58421E+03  6.98064E+03 -6.20588E+03  7.16445E+03 -8.11506E+03  2.11780E+03 -9.25645E+03 -2.52485E+03
 -4.01801E+03 -9.13102E+03  1.25611E+03 -9.68375E+03  4.62270E+03 -5.59543E+03  6.68316E+03 -1.56980E+03
  5.30223E+03  3.16903E+03  1.26937E+03  5.13543E+03 -2.17701E+03  3.00131E+03 -3.01399E+03 -5.16137E+02
 -1.37067E+03 -3.50923E+03  1.95690E+03 -3.39563E+03  4.20600E+03 -2.29109E+03  3.40541E+03  7.84526E+02
  2.03236E+03  1.11591E+03  1.00138E+03  1.22463E+03 -6.39545E+02  6.13122E+02  1.01682E+03 -7.00269E+02
  1.13440E+03 -3.48557E+02  3.17476E+03  1.79631E+03  1.35579E+03  5.05061E+03 -5.38281E+02  6.21220E+03
 -3.84153E+03  3.21550E+03 -4.58481E+03  1.53162E+03 -4.68340E+03 -1.24521E+03 -1.18462E+03 -2.76212E+03
  6.38129E+02 -4.02391E+03  2.79010E+03 -1.83794E+03  1.65600E+03  2.31237E+03 -4.65548E+02  2.60902E+03
 -3.39130E+03  1.37649E+03 -3.04116E+03 -2.26380E+03 -2.22101E+03 -4.16235E+03  9.00375E+02 -4.33659E+03
  2.51180E+03 -2.53627E+03  2.95952E+03 -4.84533E+02  2.31187E+03  4.51768E+02 -1.42856E+02  2.32369E+03
 -1.73791E+03  1.37906E+03 -2.51473E+03 -1.17931E+03  8.26588E+02 -3.25792E+03  4.69619E+03 -2.81836E+03
  4.59344E+03 -3.13294E+02  5.32171E+03  2.98591E+03  1.90690E+03  4.84030E+03 -1.92381E+03  5.12198E+03
 -3.62796E+03  1.55457E+03 -3.99285E+03  1.22075E+02 -2.65751E+03 -3.40662E+03  6.18618E+02 -2.86178E+03
  3.64444E+03 -1.37211E+03  2.62127E+03  1.13477E+03  1.11415E+03  3.02013E+03 -5.32995E+02  2.78184E+03
 -1.37598E+03  1.99319E+03 -1.14508E+03  2.38713E+02 -1.07248E+02  5.28954E+02 -6.08140E+02  1.16643E+03
 -1.59180E+03  2.31357E+03 -3.63389E+03  1.85856E+03 -4.62249E+03  5.44088E+02 -5.95640E+03 -2.57488E+03
 -3.31815E+03 -6.22672E+03  1.56166E+03 -7.69362E+03  4.05898E+03 -5.70094E+03  6.96617E+03 -1.94798E+03
  6.97990E+03  8.33758E+02  3.88212E+03  5.72280E+03 -7.49113E+02  4.85597E+03 -2.27063E+03  4.00289E+03
 -2.66655E+03  1.70087E+03 -1.93523E+03 -4.59335E+02 -1.01991E+02 -1.11320E+02 -2.37088E+02  1.55070E+02
 -1.93234E+03  6.75690E+02 -1.17407E+03 -6.21709E+02 -2.34697E+02 -1.62138E+03 -2.56503E+02 -2.43489E+03
  3.02933E+03 -1.75506E+03  2.70011E+03 -7.14999E+02  4.13382E+03  3.09306E+03 -2.13255E+02  4.06089E+03
 -2.47966E+03  5.61316E+03 -4.86398E+03  3.03835E+03 -5.65377E+03 -1.12249E+03 -4.22260E+03 -3.67377E+03
 -2.26460E+03 -4.87896E+03  1.67666E+03 -5.12797E+03  3.29432E+03 -2.04440E+03  2.99974E+03 -5.54812E+02
  1.80970E+03  1.45796E+03 -2.12031E+02  1.30001E+03 -7.20770E+02 -9.96231E+01  3.39088E+02 -1.09441E+03
  1.80192E+03 -7.70430E+02  1.80524E+03  5.60554E+02  1.36211E+03  2.08438E+03  4.41892E+02  1.44014E+03
 -2.36337E+03  1.67683E+03 -3.41980E+03  1.04417E+03 -2.66356E+03 -1.97451E+03  1.19593E+02 -3.89010E+03
  1.87878E+03 -2.77079E+03  3.61769E+03 -1.22088E+03  2.92357E+03 -7.45995E+01  1.89193E+03  3.10279E+03
  7.61241E+02  2.98351E+03 -9.93064E+02  2.36729E+03 -2.51604E+03  1.24914E+03 -1.68620E+03  3.24606E+02
 -6.35062E+02  1.05574E+02 -9.27022E+02  4.55566E+02 -1.77195E+03  5.38618E+02 -2.00883E+03 -1.40966E+03
 -2.33972E+03 -6.46053E+02 -3.60414E+02 -3.09347E+03  1.12802E+03 -3.40377E+03  2.69543E+03 -1.47158E+03
  2.80557E+03  7.57567E+02  1.69995E+03  1.55898E+03 -4.57123E+02  2.56738E+03 -2.70338E+03  1.14255E+03
