 $NMID ID='MM_0lb_SNR400_13hz_g45_17.RAW', FMTDAT='(8E13.5)'
 TRAMP=1., VOLUME=1. $END
  3.09652E+05  9.17734E+01  3.37228E+05  2.51076E+05  8.54639E+04  3.37284E+05 -1.32395E+05  2.51437E+05
 -1.90400E+05  8.23679E+04 -1.11657E+05 -3.24432E+04  6.50027E+02 -5.06474E+04  5.39506E+04 -2.31932E+02
  3.51755E+04  5.24559E+04 -1.65409E+04  7.60425E+04 -6.14427E+04  6.39644E+04 -8.47102E+04  3.14546E+04
 -8.12108E+04 -1.09236E+04 -5.76891E+04 -5.13080E+04 -1.49042E+04 -6.92241E+04  2.76772E+04 -4.60005E+04
  4.04603E+04  3.89254E+03  1.62988E+04  4.77454E+04 -3.41266E+04  4.72884E+04 -6.63839E+04 -5.43677E+02
 -5.31735E+04 -5.67397E+04 -6.66350E+03 -7.74016E+04  3.42583E+04 -5.48932E+04  4.80438E+04 -1.74912E+04
  4.33611E+04  1.16392E+04  3.18967E+04  2.58648E+04  1.59965E+04  2.92418E+04 -5.31424E+03  2.72778E+04
 -2.12998E+04  1.24030E+04 -1.87030E+04 -4.95137E+03  6.22921E+03 -7.32814E+03  2.24363E+04  1.26959E+04
  7.22375E+03  3.53056E+04 -3.26697E+04  3.63213E+04 -6.33345E+04  1.71591E+03 -5.71165E+04 -4.28942E+04
 -1.24017E+04 -6.32664E+04  4.01999E+04 -4.49247E+04  5.90663E+04 -1.82297E+03  3.44737E+04  3.30278E+04
 -5.67271E+03  3.59028E+04 -2.99570E+04  1.65642E+04 -3.06249E+04 -4.32268E+03 -1.67510E+04 -1.06734E+04
 -8.30623E+03 -1.31695E+04 -7.69109E+02 -1.89935E+04  7.06246E+03 -2.28875E+04  1.52565E+04 -1.24633E+04
  1.14692E+04  5.11135E+03 -8.16126E+03  1.28644E+04 -2.10704E+04 -4.89450E+03 -8.71688E+03 -3.32791E+04
  2.33677E+04 -4.36476E+04  4.81102E+04 -1.97913E+04  4.53748E+04  2.01683E+04  1.58196E+04  4.46789E+04
 -1.63404E+04  3.36870E+04 -2.61301E+04  1.55445E+03 -9.65667E+03 -2.74116E+04  2.06242E+04 -3.41096E+04
  4.14254E+04 -9.34650E+03  3.54510E+04  2.46789E+04  1.85417E+04  4.65760E+04 -7.79653E+03  5.05360E+04
 -3.12291E+04  3.41756E+04 -4.25841E+04  9.35213E+03 -4.33499E+04 -1.73446E+04 -2.32974E+04 -3.85366E+04
  7.16899E+03 -3.82849E+04  3.16560E+04 -1.53024E+04  3.01322E+04  1.10667E+04  4.40624E+03  1.88205E+04
 -1.39826E+04  9.06432E+03 -9.78697E+03 -7.59694E+03  5.83103E+03 -1.04183E+04  1.79607E+04  5.39357E+03
  1.35795E+04  2.16055E+04 -6.20502E+03  2.53596E+04 -2.30813E+04  1.19719E+04 -2.88019E+04 -5.16100E+03
 -2.13282E+04 -1.74366E+04 -9.12410E+03 -2.12310E+04  3.78549E+03 -2.00554E+04  1.60368E+04 -1.83722E+04
  2.71178E+04 -1.32134E+04  3.30218E+04  2.77625E+03  2.41058E+04  2.03824E+04  4.88659E+03  3.71756E+04
 -1.78139E+04  3.02590E+04 -2.85066E+04  1.05512E+04 -2.10740E+04 -1.10414E+04 -4.74342E+03 -1.34803E+04
  1.45534E+03 -2.48759E+03 -4.90721E+03  7.45996E+03 -1.62695E+04  5.16850E+03 -1.67115E+04 -6.60619E+03
 -1.03968E+04 -1.89292E+04  5.03068E+03 -2.26226E+04  1.50004E+04 -1.66694E+04  1.84487E+04 -1.24692E+03
  1.17644E+04  1.31365E+04 -1.41832E+03  1.99509E+04 -1.31809E+04  1.07884E+04 -1.93217E+04 -4.33549E+03
 -1.44010E+04 -1.79514E+04 -1.57497E+03 -2.33463E+04  1.05459E+04 -1.93865E+04  1.94615E+04 -9.34972E+03
  1.80796E+04  5.50408E+02  1.28498E+04  4.82467E+03  6.62324E+03  1.04900E+03  9.91917E+03 -1.56879E+03
  1.75502E+04  2.17152E+03  1.95267E+04  1.53587E+04  1.32535E+04  3.09765E+04 -3.09499E+03  3.54858E+04
 -2.00013E+04  2.82879E+04 -3.27294E+04  1.46081E+04 -3.44557E+04 -3.32727E+03 -2.83640E+04 -1.99392E+04
 -1.20832E+04 -2.82385E+04  9.29929E+03 -2.61887E+04  2.19348E+04 -1.33040E+04  1.99399E+04  5.73504E+03
  7.19495E+03  1.51944E+04 -9.37814E+03  1.26922E+04 -1.67064E+04  2.79684E+03 -1.26084E+04 -1.03495E+04
 -2.47141E+02 -1.56291E+04  8.14207E+03 -1.16435E+04  1.06384E+04 -1.26418E+03  2.30033E+03  6.83169E+03
 -7.04970E+03  2.62065E+03 -6.18940E+03 -5.36006E+03 -8.43575E+02 -1.42462E+04  1.00296E+04 -1.41549E+04
  1.77317E+04 -8.46898E+03  1.85928E+04  3.35940E+03  1.61383E+04  1.35936E+04  7.99856E+03  2.15538E+04
 -3.33171E+03  2.28094E+04 -1.51875E+04  1.46693E+04 -1.66705E+04  3.29059E+03 -1.19866E+04 -3.62503E+03
 -5.41524E+03 -5.08559E+03 -4.59234E+02  9.67595E+02 -2.46299E+03  2.72762E+03 -5.65109E+03  3.95760E+03
 -1.05936E+04 -6.58488E+02 -1.13856E+04 -9.20047E+03 -4.64778E+03 -1.54240E+04  5.24526E+03 -1.18215E+04
  9.72313E+03 -4.89165E+03  6.62054E+03  3.47186E+03 -2.78734E+02  4.26457E+03 -5.00708E+03  1.86746E+01
 -4.67821E+03 -7.14055E+03 -5.04590E+02 -1.09845E+04  6.78894E+03 -1.21769E+04  1.45613E+04 -6.04077E+03
  1.67747E+04  1.44672E+03  1.31272E+04  9.91261E+03  2.33084E+03  1.38769E+04 -7.61054E+03  1.17884E+04
 -9.26287E+03  3.13260E+03 -5.16044E+03 -2.33277E+03  1.86131E+03 -3.34262E+03  5.74435E+03  1.97774E+01
  5.73121E+03  4.88011E+03  9.52297E+02  8.90386E+03 -6.89267E+03  9.18067E+03 -1.18321E+04  2.20272E+03
 -7.53968E+03 -5.90322E+03  3.92061E+02 -1.01149E+04  5.82526E+03 -5.25567E+03  6.28208E+03  1.75544E+03
  1.60562E+03  6.66399E+03 -5.91713E+03  8.72192E+03 -9.09025E+03  3.85160E+03 -8.87406E+03 -2.81500E+03
 -5.64245E+03 -1.08742E+04  2.50308E+03 -1.15942E+04  9.88064E+03 -7.65795E+03  1.08417E+04  2.06171E+03
  7.47239E+03  8.99230E+03 -4.73018E+02  1.11689E+04 -8.34287E+03  6.47414E+03 -8.43366E+03 -1.06868E+03
 -8.54684E+03 -7.68796E+03 -1.65295E+03 -8.80836E+03  4.19207E+03 -6.93135E+03  4.74418E+03 -3.31721E+03
  3.99398E+03  7.92443E+02 -3.08413E+02  1.10989E+03  4.39391E+02 -1.55215E+03  9.35082E+02 -4.40791E+03
  7.30855E+03 -2.85947E+03  1.04615E+04  9.87426E+02  1.09685E+04  6.79038E+03  7.25123E+03  1.33064E+04
 -2.62556E+03  1.45722E+04 -1.33695E+04  1.15935E+04 -1.73430E+04  2.11299E+03 -1.35148E+04 -5.51319E+03
 -6.60118E+03 -1.14754E+04 -5.44770E+02 -9.27583E+03  3.22308E+03 -5.42156E+03  3.45557E+03 -3.42557E+03
  2.48646E+03 -1.56073E+03  2.79510E+03 -2.48037E+03  4.75828E+03 -2.49673E+03  6.02144E+03 -5.04779E+02
  7.34230E+03  1.96458E+03  3.19411E+03  6.18216E+03 -1.56320E+03  6.69690E+03 -8.18946E+03  5.20001E+03
 -8.59782E+03 -1.12929E+03 -5.36948E+03 -6.72335E+03  5.71384E+01 -1.05286E+04  5.46467E+03 -1.00403E+04
  1.01738E+04 -5.65602E+03  1.18643E+04  2.38421E+03  8.27683E+03  8.15769E+03  1.49607E+03  1.13324E+04
 -3.99817E+03  9.71111E+03 -6.16884E+03  3.45753E+03 -4.14572E+03 -1.51395E+03 -1.60168E+03 -7.48786E+02
 -8.94771E+02 -3.66883E+01 -1.86383E+03  2.45486E+03 -4.50744E+03  1.95974E+03 -6.29663E+03 -1.00547E+03
 -4.00621E+03 -6.83260E+03  2.32370E+02 -8.84765E+03  5.33226E+03 -8.31926E+03  8.98284E+03 -3.18681E+03
  8.34941E+03  4.71438E+03  4.22684E+03  7.56504E+03 -1.55209E+03  9.16600E+03 -6.20104E+03  4.77535E+03
 -7.55093E+03  5.58178E+02 -6.62058E+03 -4.60893E+03 -3.15336E+01 -6.86689E+03  4.05652E+03 -5.64795E+03
  5.38221E+03 -2.30885E+03  3.32732E+03  1.54975E+03  1.28994E+03  3.21384E+03  6.62559E+02  1.39320E+03
  1.74776E+03  8.57207E+02  1.78061E+03  1.10558E+03  2.80694E+03  3.53605E+03  2.33935E+03  3.69214E+03
 -1.26232E+03  6.56862E+03 -5.30571E+03  7.35616E+03 -8.03959E+03  1.35903E+03 -8.52007E+03 -3.77597E+03
 -4.52335E+03 -7.57672E+03  5.53514E+02 -9.74718E+03  5.43612E+03 -5.65404E+03  6.66911E+03 -1.36220E+03
  5.24685E+03  3.63976E+03  6.53582E+02  4.64495E+03 -2.38882E+03  2.66874E+03 -2.96342E+03 -9.22559E+02
 -1.76773E+03 -3.57155E+03  2.54429E+03 -3.67927E+03  3.13898E+03 -2.23164E+03  3.13661E+03  5.97358E+02
  2.07872E+03  1.38599E+03  5.70488E+02  1.21390E+03 -4.30141E+02  6.90330E+02  2.09691E+03 -3.71053E+02
  8.03142E+02 -5.13584E+02  3.14573E+03  1.55342E+03  9.43430E+02  4.51194E+03 -3.92183E+02  5.70555E+03
 -4.23944E+03  3.74261E+03 -5.01339E+03  7.95903E+02 -4.19495E+03 -1.88895E+03 -1.65332E+03 -2.83437E+03
  6.01702E+02 -2.87289E+03  2.10520E+03 -1.02108E+03  9.91862E+02  2.61292E+03 -1.18757E+03  2.54096E+03
 -3.42410E+03  2.06901E+03 -3.55226E+03 -2.08270E+03 -1.35557E+03 -4.07558E+03  2.71725E+02 -4.67682E+03
  2.37437E+03 -2.46950E+03  2.97105E+03 -7.99408E+02  2.97595E+03  1.22378E+03  8.50654E+02  2.54754E+03
 -1.69659E+03  1.11400E+03 -1.86165E+03 -9.34102E+02  1.17243E+03 -2.76999E+03  4.37615E+03 -3.17114E+03
  4.99085E+03  7.82760E+02  5.68219E+03  3.17904E+03  1.56532E+03  4.73735E+03 -1.56758E+03  4.91053E+03
 -4.01831E+03  2.19819E+03 -4.22164E+03  9.12271E+01 -2.46650E+03 -2.54812E+03  1.17344E+03 -1.92361E+03
  3.99279E+03 -1.32417E+03  2.64681E+03  1.43478E+03  1.44519E+03  2.54657E+03 -4.27838E+02  2.34574E+03
 -1.05719E+03  1.27388E+03 -1.43477E+03  3.94263E+02 -3.92358E+02  4.21528E+02 -9.95578E+02  1.40864E+03
 -1.70059E+03  2.34485E+03 -3.04545E+03  1.41154E+03 -5.07612E+03  1.29592E+02 -5.95548E+03 -3.12340E+03
 -2.57013E+03 -6.48211E+03  8.06442E+02 -7.35050E+03  4.40338E+03 -6.57930E+03  6.67682E+03 -2.09445E+03
  5.76922E+03  1.10997E+03  3.90809E+03  3.79606E+03  1.92578E+02  4.51188E+03 -2.36034E+03  3.66565E+03
 -3.55977E+03  1.34864E+03 -1.33901E+03 -8.50987E+02 -8.59041E+02 -1.30798E+02 -2.80442E+02  3.72934E+02
 -1.73526E+03 -5.83325E+01 -1.58969E+03 -2.91402E+02  2.00021E+02 -1.12098E+03 -5.89209E+02 -1.88126E+03
  2.20771E+03 -1.58088E+03  2.72102E+03  2.61972E+01  3.77658E+03  2.72772E+03  9.03045E+02  4.74835E+03
 -1.79383E+03  5.95725E+03 -4.32949E+03  2.88260E+03 -6.39036E+03 -3.82405E+02 -4.63117E+03 -3.69781E+03
 -1.59310E+03 -5.35469E+03  9.54705E+02 -5.09861E+03  2.98574E+03 -2.44247E+03  3.44796E+03 -2.56274E+02
  1.48139E+03  9.98626E+02  2.67259E+02  9.56227E+02 -7.60039E+02  3.90624E+01  4.40366E+02 -1.13561E+03
  1.03361E+03 -3.99398E+02  1.77776E+03  7.94410E+02  1.13521E+03  2.37245E+03  2.45004E+02  1.88671E+03
 -1.88604E+03  2.13879E+03 -2.95283E+03  4.20467E+02 -2.36560E+03 -2.03456E+03  2.96708E+02 -3.76326E+03
  1.86014E+03 -3.00909E+03  2.73834E+03 -7.89499E+02  3.63795E+03  1.10951E+03  1.64276E+03  3.32552E+03
  5.73002E+02  3.22449E+03 -1.22019E+03  2.29027E+03 -1.78192E+03  1.48615E+03 -1.05459E+03  1.38139E+02
 -7.45694E+02 -7.12312E+02 -1.28167E+03  4.50850E+01 -1.04294E+03  4.85363E+02 -2.97489E+03 -9.49366E+02
 -3.20078E+03 -1.23895E+03 -4.82394E+02 -2.24372E+03  1.01893E+03 -3.23278E+03  2.70568E+03 -1.81935E+03
  2.60825E+03  1.35740E+02  1.21149E+03  2.07934E+03  6.65801E+01  2.28795E+03 -2.04882E+03  1.89247E+03
