 $NMID ID='MM_0lb_SNR400_9hz_g40_52.RAW', FMTDAT='(8E13.5)'
 TRAMP=1., VOLUME=1. $END
  3.09662E+05  2.29921E+02  3.38185E+05  2.51058E+05  8.50085E+04  3.38678E+05 -1.33031E+05  2.51944E+05
 -1.90876E+05  8.36656E+04 -1.12862E+05 -3.20661E+04  2.91037E+02 -5.09147E+04  5.32744E+04 -8.54682E+02
  3.51422E+04  5.32129E+04 -1.66413E+04  7.61673E+04 -6.10012E+04  6.40557E+04 -8.53543E+04  3.15927E+04
 -8.26929E+04 -1.15294E+04 -5.87198E+04 -5.23074E+04 -1.54615E+04 -7.09737E+04  2.81560E+04 -4.67112E+04
  4.03668E+04  3.86210E+03  1.66446E+04  4.82945E+04 -3.54328E+04  4.84755E+04 -6.79998E+04 -1.15764E+02
 -5.34186E+04 -5.75553E+04 -7.11842E+03 -7.87703E+04  3.52440E+04 -5.72515E+04  4.94740E+04 -1.78137E+04
  4.44225E+04  1.10206E+04  3.24295E+04  2.59746E+04  1.64456E+04  3.00106E+04 -5.49365E+03  2.84350E+04
 -2.20309E+04  1.25937E+04 -1.80406E+04 -5.45383E+03  6.48779E+03 -8.16720E+03  2.26897E+04  1.35249E+04
  6.65678E+03  3.73695E+04 -3.35829E+04  3.66116E+04 -6.52892E+04  1.66891E+03 -5.83127E+04 -4.45676E+04
 -1.27319E+04 -6.48296E+04  4.03427E+04 -4.67047E+04  6.05773E+04 -2.22449E+03  3.71413E+04  3.43021E+04
 -5.84914E+03  3.87893E+04 -3.12002E+04  1.80084E+04 -3.29485E+04 -4.15494E+03 -1.84994E+04 -1.22208E+04
 -9.05288E+03 -1.44720E+04 -5.25437E+02 -1.90532E+04  8.13848E+03 -2.32237E+04  1.63775E+04 -1.36071E+04
  1.06323E+04  6.35112E+03 -1.03631E+04  1.29731E+04 -2.30484E+04 -5.73460E+03 -8.77203E+03 -3.65907E+04
  2.45972E+04 -4.62825E+04  5.13678E+04 -2.15560E+04  4.80731E+04  2.05994E+04  1.69343E+04  4.68393E+04
 -1.61452E+04  3.60865E+04 -2.77619E+04  2.55101E+03 -1.14751E+04 -2.89228E+04  2.11767E+04 -3.63804E+04
  4.40548E+04 -1.10228E+04  3.93953E+04  2.57962E+04  2.15221E+04  5.01498E+04 -8.26463E+03  5.52160E+04
 -3.50295E+04  3.74872E+04 -4.65257E+04  1.17989E+04 -4.69420E+04 -1.77090E+04 -2.58937E+04 -4.12231E+04
  7.43796E+03 -4.16328E+04  3.34975E+04 -1.70995E+04  3.12839E+04  1.15918E+04  5.60721E+03  2.08282E+04
 -1.41348E+04  9.16207E+03 -1.11855E+04 -8.06284E+03  5.79515E+03 -1.17745E+04  1.83301E+04  6.03819E+03
  1.44068E+04  2.31065E+04 -5.74479E+03  2.74724E+04 -2.27811E+04  1.28201E+04 -3.04884E+04 -3.41559E+03
 -2.50902E+04 -1.76772E+04 -1.18390E+04 -2.41059E+04  3.54556E+03 -2.38888E+04  1.84832E+04 -2.24395E+04
  3.12190E+04 -1.42667E+04  3.69088E+04  4.62690E+03  2.66505E+04  2.39127E+04  4.59103E+03  4.05923E+04
 -1.92931E+04  3.37172E+04 -2.99643E+04  1.20924E+04 -2.25090E+04 -1.00472E+04 -4.21346E+03 -1.26064E+04
  9.76878E+02 -1.18525E+03 -7.66291E+03  7.80630E+03 -2.01690E+04  4.81619E+03 -2.00209E+04 -9.20186E+03
 -1.11662E+04 -2.26168E+04  6.12319E+03 -2.82660E+04  1.82492E+04 -1.90383E+04  2.19560E+04 -1.47919E+03
  1.43024E+04  1.50729E+04 -1.76099E+03  2.25303E+04 -1.68193E+04  1.31079E+04 -2.25597E+04 -4.42711E+03
 -1.64644E+04 -2.03623E+04 -1.87174E+03 -2.63749E+04  1.22469E+04 -2.20887E+04  2.21008E+04 -1.23844E+04
  2.06701E+04  5.16582E+01  1.53986E+04  5.43002E+03  8.13051E+03  1.79041E+03  1.19176E+04 -1.43675E+03
  2.10692E+04  3.39012E+03  2.36030E+04  1.73234E+04  1.62331E+04  3.64539E+04 -2.95215E+03  4.21004E+04
 -2.49604E+04  3.51732E+04 -4.03689E+04  1.82330E+04 -4.25196E+04 -3.32906E+03 -3.45502E+04 -2.42499E+04
 -1.28609E+04 -3.57016E+04  1.14714E+04 -3.15802E+04  2.65527E+04 -1.48430E+04  2.35229E+04  7.42853E+03
  7.34846E+03  1.78711E+04 -1.10369E+04  1.57141E+04 -1.93553E+04  2.15456E+03 -1.51278E+04 -1.23905E+04
  1.41904E+02 -1.87500E+04  1.03315E+04 -1.38418E+04  1.29472E+04 -1.26961E+03  3.65642E+03  8.58754E+03
 -8.36591E+03  4.53598E+03 -8.77370E+03 -6.79102E+03 -1.14370E+03 -1.70163E+04  1.07804E+04 -1.97098E+04
  2.17374E+04 -1.06172E+04  2.46834E+04  3.74968E+03  2.19259E+04  1.75467E+04  1.07923E+04  2.81327E+04
 -5.21930E+03  3.00599E+04 -1.86449E+04  1.84841E+04 -2.12514E+04  4.12489E+03 -1.51552E+04 -5.74661E+03
 -6.55309E+03 -6.93193E+03 -1.91378E+01  5.36027E+02 -3.59800E+03  4.37834E+03 -6.65525E+03  4.69814E+03
 -1.35854E+04 -1.62670E+03 -1.36620E+04 -1.12079E+04 -5.53955E+03 -1.85062E+04  5.83247E+03 -1.51787E+04
  1.16332E+04 -5.97388E+03  9.14861E+03  4.11366E+03 -6.88303E+00  5.98613E+03 -7.14229E+03  2.62782E+02
 -7.02056E+03 -9.99575E+03 -1.24017E+03 -1.40583E+04  8.83700E+03 -1.52378E+04  1.92226E+04 -7.87707E+03
  2.24475E+04  2.73492E+03  1.70037E+04  1.37291E+04  3.35406E+03  1.79681E+04 -8.98378E+03  1.50976E+04
 -1.15187E+04  4.07549E+03 -7.18164E+03 -4.16843E+03  2.13286E+03 -3.49830E+03  7.72803E+03 -9.72994E+02
  7.48982E+03  6.78569E+03  9.84464E+02  1.18295E+04 -9.37907E+03  1.20624E+04 -1.50299E+04  3.59627E+03
 -9.81392E+03 -8.02133E+03  2.53331E+02 -1.30752E+04  8.32163E+03 -6.42867E+03  9.06270E+03  2.50086E+03
  1.87822E+03  9.02240E+03 -7.32334E+03  1.06594E+04 -1.29932E+04  5.13079E+03 -1.25054E+04 -4.74263E+03
 -7.18559E+03 -1.61306E+04  4.21588E+03 -1.69024E+04  1.48356E+04 -1.11097E+04  1.59017E+04  2.90575E+03
  9.00109E+03  1.25922E+04 -9.13253E+02  1.52234E+04 -1.08697E+04  8.09608E+03 -1.24398E+04 -1.28424E+03
 -1.01431E+04 -1.00919E+04 -2.08640E+03 -1.11213E+04  6.46804E+03 -9.49218E+03  7.55190E+03 -3.79060E+03
  5.29752E+03  2.03666E+03 -3.53578E+02  2.28394E+03 -9.59006E+02 -3.56594E+03  2.14348E+03 -7.26154E+03
  1.04975E+04 -4.30528E+03  1.50050E+04  1.50886E+03  1.46145E+04  1.03549E+04  9.72484E+03  2.04116E+04
 -4.80326E+03  2.15830E+04 -1.88298E+04  1.64885E+04 -2.41585E+04  3.76136E+03 -1.94510E+04 -8.64322E+03
 -9.40901E+03 -1.65598E+04  2.05486E+02 -1.37694E+04  4.93947E+03 -7.14442E+03  4.64654E+03 -5.19592E+03
  3.93934E+03 -3.04321E+03  3.33122E+03 -3.62544E+03  5.39035E+03 -3.31403E+03  7.08558E+03 -8.73029E+02
  1.02084E+04  2.39930E+03  4.98103E+03  9.18539E+03 -2.37096E+03  1.10123E+04 -1.02383E+04  7.61071E+03
 -1.42176E+04 -1.74999E+03 -7.76155E+03 -8.95258E+03 -5.59804E+02 -1.49333E+04  8.10733E+03 -1.49048E+04
  1.65469E+04 -8.24202E+03  1.85192E+04  2.30942E+03  1.32690E+04  1.25617E+04  2.39863E+03  1.71543E+04
 -6.54931E+03  1.34856E+04 -9.52118E+03  5.53780E+03 -6.58066E+03 -2.29414E+03 -2.68103E+03 -2.00428E+03
 -1.35228E+03  3.20397E+00 -2.00320E+03  2.78513E+03 -4.99247E+03  2.10808E+03 -9.82871E+03 -1.32841E+03
 -7.24443E+03 -9.48458E+03 -5.23369E+02 -1.41841E+04  8.96621E+03 -1.23367E+04  1.36124E+04 -3.31381E+03
  1.44502E+04  7.11668E+03  6.47712E+03  1.19792E+04 -3.03200E+03  1.37947E+04 -9.83960E+03  8.82385E+03
 -1.27613E+04  3.93063E+02 -1.01245E+04 -8.40527E+03 -1.15940E+03 -1.20196E+04  5.51437E+03 -8.43341E+03
  8.75556E+03 -2.94958E+03  6.47685E+03  2.05478E+03  1.94045E+03  3.99653E+03  1.46731E+03  1.51827E+03
  2.98576E+03  1.25118E+03  3.38970E+03  2.54413E+03  3.78880E+03  4.92398E+03  3.67995E+03  7.83844E+03
 -2.46086E+03  1.10737E+04 -1.02444E+04  1.10086E+04 -1.43692E+04  2.95027E+03 -1.46570E+04 -6.60341E+03
 -6.50095E+03 -1.37965E+04  2.21890E+03 -1.52685E+04  9.63598E+03 -1.07891E+04  1.08039E+04 -2.19737E+03
  8.06459E+03  5.18067E+03  2.48066E+03  8.13039E+03 -4.47599E+03  4.87385E+03 -5.90477E+03 -9.87734E+02
 -2.61083E+03 -5.66927E+03  3.13114E+03 -6.01833E+03  5.35086E+03 -2.79460E+03  5.44364E+03  1.46096E+03
  3.02920E+03  3.21520E+03  1.41104E+03  1.97637E+03 -1.47033E+03  2.38070E+03  1.78660E+03 -4.46310E+02
  1.49578E+03  2.06711E+02  6.83826E+03  2.91556E+03  3.35980E+03  8.33640E+03 -8.22523E+02  1.04480E+04
 -6.60923E+03  5.91489E+03 -8.65160E+03  2.75216E+03 -8.20371E+03 -3.03160E+03 -2.56173E+03 -5.67460E+03
  2.04635E+03 -5.58034E+03  3.51983E+03 -2.73139E+03  3.41187E+03  2.25771E+03 -1.27662E+03  4.75234E+03
 -6.12390E+03  2.15130E+03 -6.48199E+03 -3.80473E+03 -3.73202E+03 -8.24857E+03  1.28387E+03 -8.13176E+03
  5.03010E+03 -5.20977E+03  5.53717E+03 -7.66697E+02  4.15699E+03  2.02058E+03  6.57781E+02  4.27231E+03
 -2.82695E+03  1.48546E+03 -2.67681E+03 -1.91778E+03  1.19246E+03 -6.07386E+03  7.29453E+03 -4.70515E+03
  8.67258E+03  1.22646E+02  8.04956E+03  5.97245E+03  2.66220E+03  9.65655E+03 -3.07117E+03  8.46135E+03
 -8.43559E+03  4.15603E+03 -8.84145E+03 -9.04550E+02 -5.01848E+03 -6.12862E+03  1.74726E+03 -6.27114E+03
  5.48971E+03 -3.09590E+03  4.61728E+03  2.31551E+03  1.01042E+03  5.72699E+03 -2.02861E+02  4.94538E+03
 -2.23874E+03  2.88115E+03 -2.52270E+03  9.54212E+02 -1.05954E+03  9.16841E+02 -2.12718E+03  1.79487E+03
 -3.32507E+03  3.66127E+03 -6.46296E+03  2.90287E+03 -9.51708E+03 -7.01202E+01 -9.70967E+03 -6.76711E+03
 -5.00502E+03 -1.31227E+04  2.70004E+03 -1.54433E+04  9.17220E+03 -1.19117E+04  1.36126E+04 -3.71675E+03
  1.27183E+04  2.88552E+03  7.92609E+03  8.53119E+03  4.58987E+02  1.04016E+04 -4.23936E+03  7.23974E+03
 -5.84012E+03  3.05514E+03 -3.31662E+03 -9.98365E+02 -2.05276E+02 -6.74537E+02 -7.11559E+02  4.56718E+02
 -1.57082E+03 -2.73097E+02 -2.47741E+03  3.59080E+01 -7.81005E+02 -2.08302E+03  1.35227E+02 -3.54053E+03
  3.93023E+03 -3.35165E+03  6.89540E+03 -3.28855E+02  7.07007E+03  5.94112E+03  2.10757E+03  9.52016E+03
 -4.67625E+03  1.14047E+04 -1.02558E+04  7.05569E+03 -1.22924E+04 -1.50733E+03 -8.32400E+03 -7.51238E+03
 -3.31217E+03 -1.05194E+04  2.83593E+03 -8.82777E+03  5.94397E+03 -4.73966E+03  6.75538E+03  3.93320E+01
  2.95917E+03  3.32519E+03 -8.51527E+02  2.65702E+03 -1.74278E+03 -6.90684E+02  1.70521E+02 -3.49862E+03
  2.93509E+03 -1.20260E+03  4.11445E+03  1.30922E+03  1.76727E+03  4.49334E+03  6.86062E+01  5.28466E+03
 -5.06860E+03  3.54276E+03 -6.56386E+03  2.01687E+02 -5.34876E+03 -4.27701E+03 -8.55280E+02 -8.05142E+03
  4.78772E+03 -7.29891E+03  7.59625E+03 -2.13872E+03  8.11868E+03  2.45437E+03  4.27864E+03  6.62901E+03
  4.39043E+02  5.59775E+03 -2.40583E+03  5.38451E+03 -3.33878E+03  2.62398E+03 -3.49081E+03  4.94259E+02
 -2.05277E+03  2.38501E+02 -1.52592E+03  6.39410E+02 -3.12559E+03  1.21134E+03 -5.31518E+03 -1.12748E+03
 -4.31625E+03 -3.68218E+03 -2.11349E+03 -7.01508E+03  2.77544E+03 -7.08951E+03  6.11417E+03 -3.35056E+03
  5.90148E+03  1.38353E+03  3.95351E+03  4.69763E+03 -3.49725E+02  6.60903E+03 -4.81171E+03  4.14693E+03
