 $NMID ID='MM_0lb_SNR400_8hz_g40_54.RAW', FMTDAT='(8E13.5)'
 TRAMP=1., VOLUME=1. $END
  3.09769E+05 -5.81521E+02  3.37440E+05  2.51105E+05  8.51937E+04  3.38808E+05 -1.32406E+05  2.51613E+05
 -1.91305E+05  8.37327E+04 -1.12545E+05 -3.14196E+04 -6.73296E+02 -5.10728E+04  5.30339E+04 -9.61067E+02
  3.64499E+04  5.32872E+04 -1.64397E+04  7.65225E+04 -6.01059E+04  6.43729E+04 -8.56962E+04  3.17035E+04
 -8.24740E+04 -1.12920E+04 -5.82114E+04 -5.29131E+04 -1.55657E+04 -7.12896E+04  2.89733E+04 -4.68997E+04
  4.11265E+04  3.72460E+03  1.64580E+04  4.86882E+04 -3.48397E+04  4.85695E+04 -6.83133E+04  1.79251E+02
 -5.55063E+04 -5.79909E+04 -7.83441E+03 -7.85679E+04  3.50367E+04 -5.73572E+04  4.89727E+04 -1.77806E+04
  4.47507E+04  1.13333E+04  3.28256E+04  2.60003E+04  1.61268E+04  3.14111E+04 -5.92178E+03  2.73303E+04
 -2.24247E+04  1.11497E+04 -1.79772E+04 -4.79025E+03  6.57199E+03 -7.91598E+03  2.37598E+04  1.40465E+04
  6.78732E+03  3.75272E+04 -3.33253E+04  3.64893E+04 -6.62325E+04  2.81745E+03 -5.88120E+04 -4.45954E+04
 -1.27396E+04 -6.57642E+04  4.17951E+04 -4.75719E+04  6.04353E+04 -2.96006E+03  3.70277E+04  3.49602E+04
 -5.48147E+03  3.98008E+04 -3.19403E+04  1.87324E+04 -3.43420E+04 -3.67476E+03 -1.95273E+04 -1.18007E+04
 -9.37794E+03 -1.49249E+04 -1.98883E+02 -2.04373E+04  8.42343E+03 -2.34515E+04  1.54218E+04 -1.30534E+04
  1.00145E+04  6.51896E+03 -9.80250E+03  1.34840E+04 -2.32868E+04 -7.02541E+03 -8.22150E+03 -3.75833E+04
  2.51445E+04 -4.62041E+04  5.15721E+04 -2.16263E+04  4.88961E+04  1.95806E+04  1.70562E+04  4.70511E+04
 -1.69131E+04  3.57415E+04 -2.79412E+04  3.76174E+03 -1.24944E+04 -2.83843E+04  2.28460E+04 -3.72444E+04
  4.54879E+04 -1.09840E+04  4.08704E+04  2.46265E+04  2.12408E+04  5.09606E+04 -8.57268E+03  5.62577E+04
 -3.64165E+04  3.86403E+04 -4.72210E+04  1.04299E+04 -4.78402E+04 -1.81645E+04 -2.61123E+04 -4.21920E+04
  8.14418E+03 -4.22213E+04  3.37542E+04 -1.70157E+04  3.31661E+04  1.16446E+04  5.59830E+03  2.08060E+04
 -1.35927E+04  9.40734E+03 -1.11273E+04 -6.90516E+03  5.47672E+03 -1.08224E+04  1.92793E+04  5.42046E+03
  1.56078E+04  2.29694E+04 -5.36389E+03  2.74799E+04 -2.41534E+04  1.53167E+04 -3.17416E+04 -2.64747E+03
 -2.57097E+04 -1.96040E+04 -1.12479E+04 -2.43756E+04  4.63033E+03 -2.67435E+04  1.97410E+04 -2.37520E+04
  3.16374E+04 -1.47672E+04  3.77078E+04  4.67000E+03  2.66642E+04  2.47526E+04  4.21986E+03  4.15644E+04
 -2.05048E+04  3.40238E+04 -3.10411E+04  1.13065E+04 -2.24964E+04 -1.05178E+04 -5.55684E+03 -1.27797E+04
  9.55287E+02 -1.07147E+03 -7.61712E+03  8.00758E+03 -2.13240E+04  5.27978E+03 -1.95802E+04 -9.73569E+03
 -1.13183E+04 -2.39734E+04  6.22528E+03 -2.88890E+04  1.84973E+04 -1.97441E+04  2.25377E+04 -1.99264E+03
  1.49072E+04  1.59302E+04 -1.35777E+03  2.32273E+04 -1.63942E+04  1.36264E+04 -2.43311E+04 -5.00947E+03
 -1.75573E+04 -2.08995E+04 -2.99203E+03 -2.81155E+04  1.27032E+04 -2.39993E+04  2.34279E+04 -1.22068E+04
  2.26833E+04 -2.99484E+02  1.69727E+04  5.06656E+03  9.75438E+03  5.45029E+02  1.17309E+04 -2.65884E+03
  2.25565E+04  2.16871E+03  2.64807E+04  1.80841E+04  1.80456E+04  3.76990E+04 -2.82068E+03  4.44869E+04
 -2.55715E+04  3.68149E+04 -4.26646E+04  1.90190E+04 -4.56162E+04 -3.49129E+03 -3.65040E+04 -2.67366E+04
 -1.48473E+04 -3.79296E+04  1.35650E+04 -3.34158E+04  2.87637E+04 -1.57613E+04  2.48507E+04  8.27912E+03
  8.31820E+03  1.91676E+04 -1.20881E+04  1.63550E+04 -2.02586E+04  2.39068E+03 -1.52039E+04 -1.24988E+04
  3.18049E+00 -1.93157E+04  1.08521E+04 -1.45235E+04  1.42341E+04 -1.74265E+03  3.32454E+03  8.98229E+03
 -9.95057E+03  4.37238E+03 -9.17475E+03 -7.13511E+03 -2.49850E+03 -1.82816E+04  1.16949E+04 -2.02689E+04
  2.33379E+04 -1.25443E+04  2.67021E+04  3.69664E+03  2.24117E+04  1.97333E+04  1.19773E+04  2.94980E+04
 -5.33592E+03  3.15410E+04 -2.06324E+04  1.93716E+04 -2.35474E+04  3.53015E+03 -1.55984E+04 -5.53063E+03
 -6.74631E+03 -8.61609E+03 -3.97623E+02  5.31438E+02 -3.05368E+03  3.39944E+03 -7.25204E+03  4.94581E+03
 -1.46740E+04 -6.81999E+02 -1.55300E+04 -1.22280E+04 -6.15540E+03 -2.02566E+04  5.92161E+03 -1.60503E+04
  1.33518E+04 -6.45045E+03  8.74981E+03  4.94365E+03 -6.23201E+01  6.86464E+03 -8.39759E+03 -5.46690E+01
 -7.17270E+03 -9.99734E+03 -9.22832E+02 -1.65532E+04  9.53830E+03 -1.65629E+04  2.07227E+04 -8.61821E+03
  2.43412E+04  2.19745E+03  1.77937E+04  1.48762E+04  3.75818E+03  1.96246E+04 -1.04823E+04  1.61545E+04
 -1.30246E+04  4.60126E+03 -6.65880E+03 -3.73228E+03  2.46833E+03 -4.97141E+03  8.62479E+03 -1.33864E+03
  8.17111E+03  7.43654E+03  1.27684E+03  1.22740E+04 -9.92208E+03  1.17079E+04 -1.62000E+04  3.01154E+03
 -1.18256E+04 -8.81243E+03 -5.29103E+02 -1.44094E+04  9.69430E+03 -7.68997E+03  9.82268E+03  3.64647E+03
  2.48501E+03  9.80658E+03 -7.97304E+03  1.19431E+04 -1.31710E+04  5.64411E+03 -1.40518E+04 -5.38241E+03
 -8.00990E+03 -1.63628E+04  3.84185E+03 -1.83484E+04  1.62121E+04 -1.06980E+04  1.75730E+04  3.53025E+03
  9.65290E+03  1.37439E+04 -2.12978E+03  1.73435E+04 -1.19445E+04  9.24977E+03 -1.32231E+04 -1.91353E+03
 -1.06631E+04 -1.08631E+04 -1.65105E+03 -1.29838E+04  6.73575E+03 -1.04697E+04  7.51507E+03 -4.12731E+03
  4.57718E+03  1.82236E+03 -1.59176E+03  1.27381E+03 -3.18139E+02 -3.98713E+03  3.16667E+03 -8.16635E+03
  1.12670E+04 -5.43446E+03  1.69927E+04  2.01729E+03  1.62872E+04  1.17231E+04  9.64215E+03  2.22059E+04
 -5.62914E+03  2.42373E+04 -2.03594E+04  1.89096E+04 -2.77784E+04  4.47009E+03 -2.19294E+04 -9.59013E+03
 -1.11771E+04 -1.80209E+04 -6.32653E+02 -1.54308E+04  5.28449E+03 -8.90512E+03  6.01639E+03 -6.75149E+03
  4.24605E+03 -3.96127E+03  4.24911E+03 -3.99577E+03  6.03373E+03 -4.05483E+03  7.35230E+03 -1.44707E+03
  1.05569E+04  2.01781E+03  5.45602E+03  1.01090E+04 -2.36332E+03  1.14803E+04 -1.17235E+04  8.30414E+03
 -1.54874E+04 -2.08627E+03 -9.60706E+03 -1.13157E+04 -1.27156E+03 -1.63294E+04  8.90785E+03 -1.68190E+04
  1.68993E+04 -9.59212E+03  2.05921E+04  3.16296E+03  1.43938E+04  1.44065E+04  2.69904E+03  1.89410E+04
 -8.45759E+03  1.48931E+04 -1.03921E+04  5.73842E+03 -7.73175E+03 -1.51234E+03 -3.50532E+03 -2.53339E+03
 -2.06481E+03 -4.63634E+02 -2.78021E+03  3.26853E+03 -6.51389E+03  3.16686E+03 -1.08303E+04 -1.42402E+03
 -8.20523E+03 -1.01115E+04  1.32119E+02 -1.60829E+04  1.00524E+04 -1.37825E+04  1.56425E+04 -4.73928E+03
  1.59347E+04  6.95288E+03  7.36816E+03  1.41861E+04 -3.60868E+03  1.59286E+04 -1.13158E+04  9.47036E+03
 -1.53938E+04  6.07595E+02 -1.11010E+04 -1.03237E+04 -1.86952E+03 -1.31674E+04  7.39303E+03 -9.78056E+03
  1.02241E+04 -3.63357E+03  6.49246E+03  2.70392E+03  2.61636E+03  4.78079E+03  1.42013E+03  2.62165E+03
  3.31120E+03  7.10191E+02  4.43968E+03  2.14577E+03  4.81661E+03  5.17032E+03  4.17805E+03  8.48952E+03
 -3.22330E+03  1.16884E+04 -1.14907E+04  1.31447E+04 -1.61490E+04  3.67079E+03 -1.65177E+04 -6.81082E+03
 -7.02898E+03 -1.60766E+04  2.84448E+03 -1.81397E+04  9.89240E+03 -1.09574E+04  1.38883E+04 -2.97623E+03
  1.05945E+04  5.97852E+03  2.16054E+03  9.28799E+03 -4.46415E+03  6.01058E+03 -6.72429E+03 -3.31047E+02
 -3.51870E+03 -7.29845E+03  3.62156E+03 -6.66962E+03  6.68882E+03 -3.89534E+03  6.83393E+03  1.11866E+03
  3.96642E+03  3.76736E+03  1.68324E+03  2.69857E+03 -1.05261E+03  2.59979E+03  1.75573E+03 -5.55472E+02
  3.22364E+03 -1.37728E+03  6.73456E+03  3.07971E+03  3.99015E+03  8.45307E+03 -1.72382E+03  1.12052E+04
 -7.93430E+03  7.01726E+03 -9.84287E+03  2.24026E+03 -9.04882E+03 -3.85904E+03 -3.86891E+03 -6.04930E+03
  1.45234E+03 -6.30901E+03  3.47441E+03 -3.27455E+03  3.31364E+03  2.97125E+03 -1.04742E+03  5.24752E+03
 -6.30631E+03  3.70115E+03 -8.48212E+03 -3.82842E+03 -4.45199E+03 -8.55993E+03  9.95987E+02 -9.29240E+03
  4.68631E+03 -4.91428E+03  6.92493E+03 -3.64386E+02  5.28659E+03  2.18983E+03  3.86452E+02  5.28638E+03
 -3.53375E+03  1.84953E+03 -3.38066E+03 -3.58072E+03  1.50036E+03 -7.82599E+03  7.20951E+03 -4.90733E+03
  1.11085E+04  1.31849E+02  1.06634E+04  6.65922E+03  3.45349E+03  1.07428E+04 -4.38950E+03  1.04257E+04
 -8.27299E+03  4.41065E+03 -9.05138E+03 -2.03124E+03 -5.27226E+03 -7.55845E+03  2.35968E+03 -7.73841E+03
  6.34324E+03 -3.15596E+03  5.70215E+03  2.54660E+03  2.23267E+03  6.63852E+03 -1.64445E+03  5.84032E+03
 -3.00873E+03  3.13061E+03 -2.93397E+03  1.08320E+03 -1.60860E+03  1.29755E+03 -1.91029E+03  2.18574E+03
 -2.12844E+03  4.46539E+03 -7.25189E+03  3.76662E+03 -1.06024E+04  1.38129E+02 -1.22884E+04 -7.19586E+03
 -5.38700E+03 -1.50831E+04  3.57789E+03 -1.65021E+04  1.05964E+04 -1.25805E+04  1.57992E+04 -4.55418E+03
  1.49585E+04  2.65935E+03  9.68171E+03  1.11144E+04  1.17614E+03  1.20787E+04 -4.40524E+03  9.00777E+03
 -6.76280E+03  4.05873E+03 -4.23078E+03 -1.13912E+03 -1.81121E+03 -1.04923E+03 -7.06094E+02 -7.31177E+02
 -1.08398E+03  8.28307E+01 -2.31597E+03 -4.11285E+01 -1.33871E+03 -3.02340E+03 -5.86117E+00 -5.47667E+03
  5.44715E+03 -4.36536E+03  7.05243E+03 -2.81718E+02  8.43841E+03  5.31374E+03  2.49822E+03  1.14315E+04
 -5.23692E+03  1.33902E+04 -1.25682E+04  7.55123E+03 -1.43969E+04 -1.07568E+03 -1.09983E+04 -8.50526E+03
 -4.96751E+03 -1.22713E+04  3.32750E+03 -1.13976E+04  7.73284E+03 -5.66487E+03  7.59347E+03 -3.49497E+02
  3.96305E+03  3.82572E+03 -4.58432E+02  3.16878E+03 -1.87873E+03 -1.10509E+02 -7.72935E+02 -2.43602E+03
  3.88940E+03 -1.77518E+03  4.58339E+03  1.52655E+03  2.53838E+03  4.64346E+03  3.32022E+02  5.87062E+03
 -5.30629E+03  5.18074E+03 -7.98854E+03  2.29227E+02 -7.04284E+03 -6.26080E+03 -1.48724E+03 -9.06696E+03
  6.19476E+03 -9.12475E+03  9.17050E+03 -3.05185E+03  8.13716E+03  2.16365E+03  5.15270E+03  6.74670E+03
  1.10615E+03  7.52744E+03 -2.74285E+03  6.55568E+03 -5.02883E+03  3.59038E+03 -4.52471E+03  4.95387E+02
 -2.56549E+03 -6.10673E+01 -1.57532E+03  1.13347E+03 -4.15900E+03  1.39666E+03 -6.77722E+03 -1.67102E+03
 -5.31035E+03 -4.10761E+03 -2.05228E+03 -8.34146E+03  4.00910E+03 -8.43067E+03  7.41748E+03 -4.51966E+03
  7.67833E+03  1.33317E+03  4.37952E+03  6.84131E+03 -8.46228E+02  8.46671E+03 -6.26229E+03  5.20648E+03
