 $NMID ID='MM_0lb_SNR400_19hz_g55_64.RAW', FMTDAT='(8E13.5)'
 TRAMP=1., VOLUME=1. $END
  3.10088E+05  4.47532E+02  3.37584E+05  2.50407E+05  8.44362E+04  3.37370E+05 -1.32909E+05  2.51130E+05
 -1.90151E+05  8.26204E+04 -1.11265E+05 -3.25767E+04  9.88705E+02 -5.02750E+04  5.37941E+04  1.61751E+02
  3.50224E+04  5.29534E+04 -1.66070E+04  7.53160E+04 -6.03216E+04  6.34209E+04 -8.30180E+04  3.16439E+04
 -8.02236E+04 -1.08862E+04 -5.67305E+04 -5.11045E+04 -1.51278E+04 -6.83877E+04  2.65770E+04 -4.51199E+04
  3.91850E+04  3.89584E+03  1.53451E+04  4.72771E+04 -3.43147E+04  4.64419E+04 -6.53212E+04 -2.36110E+02
 -5.27694E+04 -5.60445E+04 -6.47559E+03 -7.51554E+04  3.32357E+04 -5.40340E+04  4.73461E+04 -1.66189E+04
  4.17441E+04  1.12037E+04  3.06508E+04  2.40466E+04  1.52956E+04  2.84173E+04 -5.26318E+03  2.67089E+04
 -2.17635E+04  1.25492E+04 -1.91573E+04 -4.86695E+03  4.11103E+03 -7.50748E+03  2.18427E+04  1.11920E+04
  7.22729E+03  3.38435E+04 -3.09312E+04  3.43092E+04 -6.14363E+04  2.37273E+03 -5.56653E+04 -4.15152E+04
 -1.23514E+04 -6.17820E+04  3.83650E+04 -4.41926E+04  5.62765E+04 -1.89153E+03  3.21961E+04  3.09248E+04
 -6.44203E+03  3.38032E+04 -2.87059E+04  1.39822E+04 -2.79044E+04 -4.99843E+03 -1.47810E+04 -1.03089E+04
 -7.59855E+03 -1.17301E+04 -9.83566E+02 -1.72608E+04  6.87656E+03 -2.18803E+04  1.50816E+04 -1.35420E+04
  1.20169E+04  4.67283E+03 -6.89212E+03  1.32028E+04 -1.95219E+04 -2.73484E+03 -8.47766E+03 -3.13494E+04
  2.11761E+04 -4.21447E+04  4.53953E+04 -1.87185E+04  4.22948E+04  1.83079E+04  1.44940E+04  4.23138E+04
 -1.51673E+04  3.09213E+04 -2.37062E+04  1.18248E+03 -8.56324E+03 -2.65871E+04  2.07865E+04 -3.15575E+04
  3.90278E+04 -8.35270E+03  3.21074E+04  2.24952E+04  1.56122E+04  4.29375E+04 -8.08261E+03  4.62868E+04
 -2.92068E+04  3.05402E+04 -3.82546E+04  8.76523E+03 -3.94813E+04 -1.54567E+04 -2.17681E+04 -3.56887E+04
  7.32377E+03 -3.49526E+04  2.93027E+04 -1.27758E+04  2.71082E+04  1.06020E+04  3.32385E+03  1.81035E+04
 -1.32439E+04  7.40058E+03 -9.56662E+03 -7.82553E+03  5.43114E+03 -1.03212E+04  1.72304E+04  6.26977E+03
  1.30617E+04  2.11351E+04 -6.97972E+03  2.29168E+04 -2.14494E+04  9.50258E+03 -2.52895E+04 -6.16330E+03
 -1.73179E+04 -1.59405E+04 -6.30568E+03 -1.77156E+04  4.09509E+03 -1.55394E+04  1.27779E+04 -1.50761E+04
  2.22961E+04 -1.18584E+04  2.87794E+04  1.28962E+03  2.16391E+04  1.72248E+04  3.92393E+03  3.29180E+04
 -1.64201E+04  2.79737E+04 -2.57459E+04  9.62648E+03 -1.98133E+04 -1.02686E+04 -4.11931E+03 -1.33573E+04
  2.69002E+03 -3.65832E+03 -2.65749E+03  5.43062E+03 -1.31859E+04  4.99476E+03 -1.35459E+04 -5.08928E+03
 -8.85436E+03 -1.59806E+04  4.63175E+03 -1.99001E+04  1.29010E+04 -1.46167E+04  1.50360E+04 -1.11564E+03
  9.46733E+03  1.18744E+04 -1.02766E+03  1.56433E+04 -1.07514E+04  8.93104E+03 -1.61062E+04 -3.44900E+03
 -1.22124E+04 -1.50625E+04 -1.29270E+03 -1.93174E+04  8.86349E+03 -1.60129E+04  1.57102E+04 -7.90851E+03
  1.51749E+04  8.46927E+02  1.05508E+04  3.56930E+03  4.97654E+03  6.70400E+02  7.61808E+03 -1.54228E+03
  1.44203E+04  2.37290E+03  1.57243E+04  1.28098E+04  9.45157E+03  2.49433E+04 -3.40792E+03  2.71303E+04
 -1.56296E+04  2.07668E+04 -2.57289E+04  9.82686E+03 -2.60417E+04 -1.87047E+03 -2.22917E+04 -1.46385E+04
 -9.96110E+03 -2.13708E+04  7.01827E+03 -1.92058E+04  1.69653E+04 -1.11139E+04  1.61538E+04  3.29213E+03
  6.63326E+03  1.15452E+04 -7.44745E+03  1.09586E+04 -1.30190E+04  3.04765E+03 -1.01610E+04 -7.83894E+03
  4.74947E+02 -1.29776E+04  6.27555E+03 -9.99730E+03  7.96900E+03 -1.06377E+03  1.62344E+03  4.42636E+03
 -5.73843E+03  1.31745E+03 -3.90440E+03 -4.51605E+03  4.05020E+02 -1.10071E+04  8.30825E+03 -9.92593E+03
  1.22264E+04 -4.45053E+03  1.25324E+04  3.12653E+03  1.08940E+04  9.68705E+03  5.05980E+03  1.45905E+04
 -1.88132E+03  1.66049E+04 -9.44370E+03  1.01784E+04 -1.10282E+04  2.74566E+03 -8.44518E+03 -2.26397E+03
 -4.58800E+03 -3.35442E+03 -1.77574E+03  1.24370E+03 -1.30503E+03  2.35005E+03 -3.89097E+03  3.63571E+03
 -8.42101E+03 -3.74243E+02 -9.04386E+03 -7.34403E+03 -3.72477E+03 -1.13066E+04  3.25321E+03 -8.46996E+03
  7.62137E+03 -4.16077E+03  5.67878E+03  2.21319E+03  2.50398E+02  2.79113E+03 -3.83362E+03  1.81223E+02
 -3.52998E+03 -5.09801E+03 -5.45869E+02 -7.20770E+03  4.13916E+03 -8.16155E+03  9.84191E+03 -3.69578E+03
  1.22203E+04  8.38916E+02  8.92233E+03  6.00119E+03  1.34220E+03  8.91455E+03 -5.13574E+03  8.50335E+03
 -6.58777E+03  2.21539E+03 -3.08068E+03 -1.43206E+03  1.68241E+03 -2.15101E+03  4.49019E+03 -1.69719E+03
  4.39623E+03  3.40084E+03  1.18732E+03  6.41362E+03 -4.36632E+03  6.61566E+03 -8.00469E+03  1.88564E+03
 -4.17985E+03 -3.91025E+03  4.95188E+02 -6.84847E+03  3.57418E+03 -3.83809E+03  3.53236E+03  1.21053E+03
  2.03226E+02  3.40328E+03 -3.51758E+03  5.23334E+03 -4.41301E+03  2.28621E+03 -4.53782E+03 -6.03889E+02
 -3.41241E+03 -6.02861E+03  1.09083E+03 -6.77982E+03  5.78039E+03 -4.84763E+03  6.24888E+03  9.97292E+02
  4.71235E+03  5.72695E+03  2.08253E+02  7.02901E+03 -5.17704E+03  3.88695E+03 -5.29763E+03 -8.97812E+02
 -5.71029E+03 -5.72868E+03 -1.27841E+03 -5.14740E+03  2.51505E+03 -4.19733E+03  2.93332E+03 -2.28939E+03
  2.72755E+03  1.05023E+02  4.33282E+02  8.03844E+02  4.26351E+02 -7.64203E+02  1.09053E+02 -2.22179E+03
  3.28318E+03 -1.19815E+03  5.38903E+03  7.25283E+02  5.59091E+03  3.19064E+03  5.32925E+03  6.85440E+03
 -8.98875E+02  8.07458E+03 -7.01579E+03  6.50985E+03 -9.55152E+03  1.21484E+03 -7.89250E+03 -2.33194E+03
 -4.17822E+03 -6.35533E+03 -9.32468E+02 -5.34650E+03  2.10812E+03 -2.16353E+03  1.85439E+03 -1.65979E+03
  1.19821E+03 -9.72172E+02  1.54553E+03 -2.59425E+03  3.65004E+03 -1.01626E+03  3.65876E+03  7.12746E+02
  3.91287E+03  9.80214E+02  1.19163E+03  3.05557E+03 -1.32523E+03  2.62049E+03 -4.57706E+03  2.39223E+03
 -5.07783E+03 -5.37029E+02 -1.35388E+03 -3.12807E+03  2.86866E+02 -4.70342E+03  3.22625E+03 -4.98850E+03
  4.92862E+03 -3.52260E+03  7.10991E+03  2.33357E+02  5.16899E+03  4.19628E+03  1.01521E+03  5.41185E+03
 -1.83560E+03  5.61010E+03 -2.88470E+03  1.75291E+03 -1.83037E+03 -1.32850E+03 -8.49405E+02 -3.53760E+02
  1.17561E+02  6.51698E+02 -1.02766E+03  1.85581E+03 -2.35907E+03  8.45478E+02 -3.96891E+03 -3.33279E+02
 -1.55173E+03 -3.99685E+03  1.23702E+03 -4.14617E+03  2.76662E+03 -4.30581E+03  3.33121E+03 -8.20643E+02
  4.66681E+03  2.11673E+03  1.65213E+03  2.81602E+03 -8.85466E+02  4.31463E+03 -1.91444E+03  2.41790E+03
 -3.57295E+03  3.35209E+02 -3.35125E+03 -2.61167E+03 -1.67899E+02 -3.00912E+03  1.78821E+03 -2.16288E+03
  2.81750E+03 -1.54041E+03  1.86433E+03  1.46846E+02  2.91390E+02  1.62348E+03  5.45866E+02  5.20789E+02
  1.75383E+03  5.01795E+02  1.59542E+03  8.92932E+02  1.33122E+03  2.65122E+03  1.13115E+03  1.27987E+03
 -6.89786E+02  2.28958E+03 -2.30399E+03  3.68018E+03 -2.92266E+03  9.44084E+02 -3.85508E+03  8.90024E+01
 -1.50511E+03 -3.43183E+03  1.15156E+03 -4.46874E+03  1.67237E+03 -2.30912E+03  2.59104E+03 -6.40715E+02
  2.59937E+03  1.84054E+03  6.66867E+02  2.19979E+03 -4.29534E+02  1.25449E+03 -1.05763E+03 -3.42230E+02
 -4.83147E+02 -1.18172E+03  7.66244E+02 -1.77265E+03  1.53477E+03 -1.06208E+03  1.55468E+03  9.16604E+02
  4.10411E+02  3.69102E+02  8.64003E+02 -1.23642E+02 -3.43925E+02  7.29301E+02  1.40407E+03 -4.67723E+02
  3.29451E+01  4.51298E+01  1.60585E+03  1.50611E+02  7.74022E+01  2.44626E+03 -2.46244E+02  2.88923E+03
 -1.68163E+03  8.66127E+02 -2.08611E+03 -4.10971E+02 -2.17670E+03 -1.00639E+03 -7.46418E+01 -7.08851E+02
  6.22698E+02 -1.74106E+03  1.27951E+03 -5.74702E+02 -1.36657E+02  9.35869E+02 -1.49042E+02  1.02249E+03
 -1.60317E+03  5.45344E+02 -9.58930E+02 -1.11915E+03 -8.39271E+02 -2.33225E+03  6.11609E+01 -1.79287E+03
  3.25092E+02 -5.60165E+02  1.00723E+03  1.75844E+02  6.20388E+02 -2.72589E+01 -1.21666E+02  1.47897E+03
 -9.10987E+01 -7.42551E+02 -1.16233E+03  1.92066E+02  5.61529E+02 -6.60571E+02  1.97847E+03 -1.10471E+03
  4.55334E+02  1.41912E+02  2.65767E+03  8.03709E+02  6.12045E+02  1.27134E+03  2.67036E+02  2.35771E+03
 -1.37705E+03  3.94880E+02 -1.06782E+03 -2.01929E+02 -5.21867E+02 -1.22425E+03  2.33289E+02 -2.24686E+02
  1.32139E+03 -7.53560E+02  6.43803E+02  2.00432E+02 -3.37988E+02  1.42340E+03  4.02353E+02  1.09845E+03
  2.38386E+01  9.88186E+02 -2.50029E+02 -1.54340E+02  4.84730E+02  6.48263E+02 -3.08059E+01  2.89193E+02
 -2.93511E+02  1.15531E+03 -1.76877E+03  1.11060E+02 -1.64280E+03  1.26186E+02 -1.75462E+03 -7.18745E+02
 -7.41363E+02 -1.97825E+03  6.10664E+02 -2.60607E+03  9.44705E+02 -2.19328E+03  2.45796E+03 -5.70745E+02
  1.83361E+03 -1.01053E+02  5.65696E+02  1.10505E+03 -1.66814E+02  6.42224E+02 -2.75723E+02  1.15404E+03
 -7.29247E+02  8.23782E+02 -1.12261E+03 -1.92017E+02 -7.81476E+02 -3.55710E+01 -8.64749E+02  1.15715E+02
 -1.15682E+03 -4.84768E+02 -9.57905E+02 -7.97290E+01  3.74172E+01 -8.49792E+02  6.68468E+01 -6.18479E+02
  1.51590E+03 -4.79931E+02 -8.18912E+01  2.08028E+02  6.63411E+02  1.22517E+03 -5.60279E+02  1.29330E+03
 -9.34721E+02  2.05450E+03 -6.70911E+02  3.12683E+02 -1.82504E+03  1.10278E+02 -9.18494E+02 -1.06035E+03
 -8.65476E+02 -1.00232E+03  2.28835E+02 -5.03627E+02  4.15199E+02 -3.24188E+02 -1.00078E+02  5.03899E+02
  8.67996E+02  5.08425E+02 -4.13581E+01  4.42303E+02 -6.21241E+02  1.33435E+02 -2.99149E+00 -4.04589E+02
 -2.03500E+02  5.75229E+01  5.67821E+02  4.05540E+02  4.96766E+02  3.27457E+02 -2.11045E+01 -6.56786E+01
 -3.76825E+02  5.87493E+02 -3.62378E+02  2.10233E+02  3.98595E+02 -4.75530E+02 -4.13504E+02 -2.10126E+02
 -3.79534E+01 -3.03573E+02  3.49479E+02  1.76114E+02  7.60651E+02 -7.45070E+02  4.12593E+02  9.45090E+02
  5.24225E+02  1.22336E+03  1.11753E+02  8.03193E+02 -3.30125E+01  1.78992E+02 -7.27999E+02  1.20128E+02
 -1.09872E+02  8.96841E+01 -4.59495E+02  1.92775E+02 -9.69182E+02  1.07545E+02 -4.01483E+02 -1.92650E+02
 -6.14538E+02  8.47206E+02 -3.56157E+02 -7.29785E+02 -9.14319E+01 -9.28331E+02  4.39032E+02 -2.19065E+01
  4.46797E+02 -1.31817E+02 -5.31981E+02  6.28376E+02 -2.43073E+02 -1.29010E+02  3.38021E+02  7.21057E+02
