 $NMID ID='MM_0lb_SNR400_8hz_g50_80.RAW', FMTDAT='(8E13.5)'
 TRAMP=1., VOLUME=1. $END
  3.09556E+05  5.28755E+02  3.38389E+05  2.50672E+05  8.44690E+04  3.38813E+05 -1.32590E+05  2.51633E+05
 -1.91624E+05  8.40100E+04 -1.12602E+05 -3.24331E+04  1.24480E+03 -5.12474E+04  5.38766E+04 -4.96122E+02
  3.62905E+04  5.38172E+04 -1.70305E+04  7.67111E+04 -6.18302E+04  6.49338E+04 -8.61643E+04  3.23741E+04
 -8.29445E+04 -1.17742E+04 -5.81831E+04 -5.24989E+04 -1.58455E+04 -7.14917E+04  2.77485E+04 -4.68785E+04
  4.15110E+04  4.19507E+03  1.67034E+04  4.94073E+04 -3.47475E+04  4.78975E+04 -6.89373E+04  5.56882E+02
 -5.51274E+04 -5.74569E+04 -7.40581E+03 -7.85840E+04  3.50482E+04 -5.75018E+04  5.02868E+04 -1.92169E+04
  4.56008E+04  1.18583E+04  3.30302E+04  2.63680E+04  1.63392E+04  3.10957E+04 -6.00626E+03  2.76318E+04
 -2.19680E+04  1.13773E+04 -1.80082E+04 -5.15096E+03  6.55239E+03 -7.73199E+03  2.40528E+04  1.37858E+04
  6.73897E+03  3.80096E+04 -3.53506E+04  3.72523E+04 -6.66103E+04  1.72994E+03 -5.87986E+04 -4.50788E+04
 -1.24195E+04 -6.56788E+04  4.19972E+04 -4.86589E+04  6.17477E+04 -2.83792E+03  3.74095E+04  3.43025E+04
 -5.08645E+03  4.01612E+04 -3.20006E+04  1.95113E+04 -3.41599E+04 -3.63212E+03 -2.00274E+04 -1.14354E+04
 -1.04008E+04 -1.56864E+04 -7.08366E+02 -2.04998E+04  9.05180E+03 -2.34593E+04  1.53882E+04 -1.21070E+04
  9.99837E+03  6.22780E+03 -1.08720E+04  1.24228E+04 -2.41048E+04 -6.94951E+03 -8.57058E+03 -3.83613E+04
  2.50065E+04 -4.68628E+04  5.34690E+04 -2.13770E+04  4.94669E+04  2.15405E+04  1.68307E+04  4.73442E+04
 -1.65178E+04  3.59949E+04 -2.75616E+04  2.41091E+03 -1.27571E+04 -2.96167E+04  2.09451E+04 -3.73206E+04
  4.47518E+04 -1.12122E+04  4.13908E+04  2.47556E+04  2.17847E+04  5.08705E+04 -8.99762E+03  5.76962E+04
 -3.60628E+04  3.98209E+04 -4.86042E+04  1.21823E+04 -4.93292E+04 -1.88225E+04 -2.63532E+04 -4.20491E+04
  8.36836E+03 -4.25909E+04  3.49193E+04 -1.79176E+04  3.23334E+04  1.09256E+04  5.97289E+03  2.15311E+04
 -1.32710E+04  1.04587E+04 -1.19634E+04 -7.45541E+03  5.09369E+03 -1.19236E+04  1.90665E+04  5.06744E+03
  1.48351E+04  2.14294E+04 -5.17338E+03  2.79093E+04 -2.39057E+04  1.50232E+04 -3.23173E+04 -2.15408E+03
 -2.67688E+04 -1.90805E+04 -1.27828E+04 -2.63109E+04  3.82979E+03 -2.63870E+04  2.04898E+04 -2.38516E+04
  3.24710E+04 -1.38169E+04  3.82527E+04  4.69540E+03  2.76320E+04  2.57281E+04  4.33054E+03  4.30859E+04
 -2.02533E+04  3.41139E+04 -3.13196E+04  1.18453E+04 -2.25389E+04 -9.73282E+03 -5.22970E+03 -1.30067E+04
  1.14003E+03 -2.19051E+02 -8.79963E+03  8.99528E+03 -2.13570E+04  4.99744E+03 -2.17431E+04 -1.01634E+04
 -1.26301E+04 -2.54885E+04  5.72381E+03 -2.85446E+04  1.87024E+04 -2.03669E+04  2.36163E+04 -2.20040E+03
  1.49816E+04  1.77682E+04 -1.02154E+03  2.37592E+04 -1.66921E+04  1.43262E+04 -2.46328E+04 -4.93725E+03
 -1.76366E+04 -2.20439E+04 -1.92863E+03 -2.95193E+04  1.39573E+04 -2.43101E+04  2.43497E+04 -1.27464E+04
  2.28589E+04  2.59811E+01  1.66947E+04  5.44369E+03  9.85773E+03  1.86252E+03  1.21354E+04 -2.32811E+03
  2.34064E+04  2.85286E+03  2.70924E+04  1.94303E+04  1.95438E+04  3.99075E+04 -2.13639E+03  4.59784E+04
 -2.66157E+04  3.89334E+04 -4.41879E+04  2.03356E+04 -4.63735E+04 -3.66233E+03 -3.73415E+04 -2.66268E+04
 -1.55602E+04 -3.96701E+04  1.35744E+04 -3.37779E+04  2.98256E+04 -1.62276E+04  2.55864E+04  8.83925E+03
  9.13339E+03  1.93803E+04 -1.17921E+04  1.57231E+04 -2.11480E+04  2.03827E+03 -1.61835E+04 -1.32817E+04
 -8.13324E+00 -2.11207E+04  1.00654E+04 -1.60030E+04  1.41329E+04 -1.39638E+03  3.80259E+03  8.58147E+03
 -8.94666E+03  4.76986E+03 -9.54880E+03 -7.28459E+03 -1.94738E+03 -1.90255E+04  1.24864E+04 -2.06561E+04
  2.45573E+04 -1.13236E+04  2.79869E+04  2.63380E+03  2.42396E+04  1.96462E+04  1.12430E+04  3.13263E+04
 -6.70778E+03  3.37783E+04 -2.28007E+04  2.02395E+04 -2.35599E+04  4.51086E+03 -1.62586E+04 -5.90642E+03
 -6.83245E+03 -8.21263E+03 -4.70257E+02  2.96620E+02 -3.58102E+03  3.64886E+03 -7.41922E+03  5.43297E+03
 -1.44305E+04 -1.45544E+03 -1.57464E+04 -1.23744E+04 -5.81626E+03 -2.11540E+04  6.25242E+03 -1.65223E+04
  1.36036E+04 -7.04737E+03  9.38610E+03  4.81421E+03  2.50978E+01  6.57207E+03 -8.32391E+03 -2.32906E+02
 -8.54989E+03 -1.07144E+04 -7.37395E+02 -1.55780E+04  8.63174E+03 -1.73075E+04  2.10295E+04 -9.36716E+03
  2.51975E+04  2.30487E+03  1.76954E+04  1.51025E+04  3.04497E+03  2.05524E+04 -9.89669E+03  1.70403E+04
 -1.27185E+04  4.79258E+03 -7.09155E+03 -4.35684E+03  2.26108E+03 -5.08047E+03  9.11975E+03 -1.36495E+03
  8.27512E+03  7.19562E+03  1.03904E+03  1.39330E+04 -9.58830E+03  1.28682E+04 -1.68377E+04  3.20274E+03
 -1.17206E+04 -9.24778E+03  3.70599E+02 -1.48224E+04  1.02045E+04 -7.23962E+03  1.01304E+04  3.79498E+03
  2.49832E+03  1.09708E+04 -9.36094E+03  1.30205E+04 -1.48687E+04  6.10751E+03 -1.48461E+04 -6.03717E+03
 -9.00645E+03 -1.65454E+04  4.61910E+03 -1.97862E+04  1.64324E+04 -1.22308E+04  1.77969E+04  3.61605E+03
  1.11123E+04  1.46443E+04 -1.46638E+03  1.79094E+04 -1.30686E+04  9.43668E+03 -1.42474E+04 -2.14987E+03
 -1.12455E+04 -1.07488E+04 -2.00891E+03 -1.27262E+04  7.20689E+03 -9.89435E+03  7.93510E+03 -4.33079E+03
  5.60757E+03  2.33021E+03 -1.39305E+03  2.05158E+03 -1.34374E+03 -4.63847E+03  2.90425E+03 -8.49081E+03
  1.28771E+04 -4.69215E+03  1.79197E+04  2.67073E+03  1.72509E+04  1.22458E+04  1.11377E+04  2.43110E+04
 -5.53304E+03  2.69911E+04 -2.08674E+04  1.91466E+04 -2.84620E+04  4.24115E+03 -2.32149E+04 -1.05991E+04
 -1.07928E+04 -1.95443E+04 -1.90000E+02 -1.62394E+04  5.69068E+03 -9.36893E+03  5.84910E+03 -5.51700E+03
  4.18311E+03 -3.48664E+03  4.70310E+03 -4.89738E+03  5.69508E+03 -3.74696E+03  8.58157E+03 -6.83352E+02
  1.16970E+04  2.60590E+03  6.48759E+03  1.01802E+04 -2.55833E+03  1.22345E+04 -1.27873E+04  9.88968E+03
 -1.61870E+04 -1.38197E+03 -1.09569E+04 -1.16828E+04 -2.15021E+03 -1.76155E+04  9.44361E+03 -1.80223E+04
  1.77221E+04 -9.37318E+03  2.17712E+04  2.81293E+03  1.50612E+04  1.59593E+04  1.79577E+03  2.00167E+04
 -7.98861E+03  1.48934E+04 -1.14528E+04  4.76732E+03 -7.90773E+03 -1.52667E+03 -4.01702E+03 -3.05228E+03
 -1.33523E+03 -3.79697E+01 -2.14381E+03  3.73878E+03 -7.06808E+03  3.02608E+03 -1.15233E+04 -5.93223E+02
 -7.98521E+03 -1.07005E+04 -9.18475E+01 -1.66945E+04  1.02891E+04 -1.50355E+04  1.60547E+04 -4.82243E+03
  1.60266E+04  7.09472E+03  8.33611E+03  1.54971E+04 -3.36305E+03  1.69226E+04 -1.22553E+04  9.50657E+03
 -1.55977E+04  4.31685E+02 -1.22783E+04 -1.09233E+04 -1.18299E+03 -1.46175E+04  6.55128E+03 -9.77401E+03
  1.10216E+04 -2.72578E+03  7.67207E+03  3.10399E+03  3.03673E+03  5.19192E+03  9.61235E+02  2.82145E+03
  2.82267E+03  1.39025E+03  4.27502E+03  2.27505E+03  4.72200E+03  4.95031E+03  3.79268E+03  8.70679E+03
 -3.34888E+03  1.37725E+04 -1.23010E+04  1.24451E+04 -1.74748E+04  2.52613E+03 -1.72955E+04 -7.26603E+03
 -9.40264E+03 -1.78635E+04  2.52251E+03 -1.83091E+04  9.63929E+03 -1.16380E+04  1.37843E+04 -2.23666E+03
  1.10049E+04  6.34044E+03  2.92504E+03  9.85781E+03 -5.11035E+03  5.41695E+03 -7.39289E+03 -9.85694E+02
 -3.60278E+03 -6.91525E+03  4.13164E+03 -7.00304E+03  7.33836E+03 -4.39080E+03  6.68396E+03  2.47278E+03
  4.06646E+03  3.92115E+03  2.50424E+03  3.65219E+03 -1.67550E+03  2.87215E+03  1.27729E+03 -9.31067E+02
  2.75528E+03 -1.60304E+03  6.86155E+03  3.12872E+03  4.09437E+03  9.22882E+03 -1.48199E+03  1.21496E+04
 -7.90984E+03  8.19472E+03 -1.04524E+04  1.85703E+03 -9.95851E+03 -4.18703E+03 -3.43117E+03 -7.10477E+03
  1.07848E+03 -6.61464E+03  4.76872E+03 -3.17192E+03  4.77823E+03  3.61638E+03 -1.66708E+03  5.43988E+03
 -7.18456E+03  3.50019E+03 -8.17663E+03 -4.36042E+03 -5.17471E+03 -9.36054E+03  1.47524E+03 -9.75739E+03
  5.91204E+03 -5.79270E+03  7.52108E+03 -4.92875E+02  5.48353E+03  2.10577E+03  1.92486E+02  5.46798E+03
 -3.48231E+03  1.63317E+03 -4.42449E+03 -3.96362E+03  1.88768E+03 -8.15413E+03  8.72899E+03 -5.92508E+03
  1.15165E+04  1.60814E+02  1.15272E+04  8.26674E+03  3.93157E+03  1.20514E+04 -4.34869E+03  1.08672E+04
 -8.79096E+03  5.40080E+03 -1.08113E+04 -2.08171E+03 -5.52847E+03 -7.23131E+03  1.01542E+03 -6.82730E+03
  7.67100E+03 -3.54331E+03  6.50473E+03  3.17073E+03  2.57685E+03  6.38941E+03 -1.53313E+03  5.66457E+03
 -3.58838E+03  3.34087E+03 -3.05923E+03  1.01474E+03 -6.55464E+02  9.08702E+02 -2.11994E+03  1.72627E+03
 -3.06471E+03  4.13778E+03 -8.70105E+03  4.19950E+03 -1.21142E+04 -3.94288E+02 -1.32700E+04 -8.29944E+03
 -7.30140E+03 -1.69357E+04  3.01815E+03 -1.75584E+04  1.09530E+04 -1.40503E+04  1.74014E+04 -5.61453E+03
  1.59785E+04  2.38171E+03  1.05240E+04  1.10785E+04  7.03881E+02  1.25581E+04 -4.37448E+03  9.42845E+03
 -6.71828E+03  3.83415E+03 -4.94659E+03 -1.15966E+03 -1.40075E+03 -2.05302E+03 -6.77815E+02 -3.47852E+02
 -3.29890E+03  2.00827E+02 -2.61325E+03 -5.82471E+02 -1.25896E+03 -3.08195E+03 -3.06970E+02 -5.27401E+03
  4.96811E+03 -4.40350E+03  7.17251E+03  5.81501E+01  9.37637E+03  7.45735E+03  3.00061E+03  1.29176E+04
 -5.46464E+03  1.43640E+04 -1.29204E+04  7.98164E+03 -1.52826E+04 -9.43475E+02 -1.11381E+04 -1.01785E+04
 -4.81704E+03 -1.28870E+04  3.73010E+03 -1.14824E+04  8.04056E+03 -6.72991E+03  8.51639E+03  1.04421E+02
  4.82618E+03  4.30443E+03 -1.30935E+02  3.34136E+03 -2.52815E+03  2.74441E+02 -1.04397E+03 -3.37235E+03
  4.08681E+03 -1.90990E+03  6.20377E+03  2.11875E+03  3.77900E+03  5.10341E+03  1.66758E+02  6.95346E+03
 -5.44467E+03  5.60887E+03 -8.63753E+03  7.80291E+02 -8.12737E+03 -5.29788E+03 -8.53331E+02 -1.14685E+04
  5.86125E+03 -9.22182E+03  1.02592E+04 -2.98639E+03  1.03552E+04  4.17777E+03  5.90173E+03  7.47762E+03
  7.69007E+02  9.15459E+03 -3.48629E+03  6.58779E+03 -5.57253E+03  3.97033E+03 -4.99797E+03  9.95023E+02
 -1.90160E+03 -2.52843E+02 -2.09568E+03  1.76704E+03 -4.49208E+03  1.12019E+03 -6.91545E+03 -1.14937E+03
 -6.46598E+03 -5.10675E+03 -1.54009E+03 -9.16914E+03  4.20347E+03 -8.62909E+03  8.06097E+03 -5.12757E+03
  9.00931E+03  1.56959E+03  4.72019E+03  5.86512E+03 -1.00311E+03  8.83411E+03 -7.25100E+03  5.73146E+03
