 $NMID ID='MM_0lb_SNR400_12hz_g45_39.RAW', FMTDAT='(8E13.5)'
 TRAMP=1., VOLUME=1. $END
  3.09330E+05  1.45298E+02  3.38020E+05  2.50452E+05  8.43482E+04  3.37868E+05 -1.32955E+05  2.51667E+05
 -1.90127E+05  8.29009E+04 -1.11982E+05 -3.28999E+04  4.88431E+02 -5.07498E+04  5.37728E+04 -3.61302E+02
  3.51763E+04  5.28322E+04 -1.70821E+04  7.56174E+04 -6.10759E+04  6.38762E+04 -8.43211E+04  3.23578E+04
 -8.13637E+04 -1.10575E+04 -5.70936E+04 -5.11373E+04 -1.48003E+04 -6.95953E+04  2.77980E+04 -4.60108E+04
  3.98397E+04  3.20736E+03  1.65085E+04  4.75173E+04 -3.47061E+04  4.75596E+04 -6.74241E+04 -1.03227E+02
 -5.39177E+04 -5.71408E+04 -6.72460E+03 -7.80258E+04  3.42063E+04 -5.59866E+04  4.83001E+04 -1.82291E+04
  4.40397E+04  1.11960E+04  3.20795E+04  2.56717E+04  1.61288E+04  2.96020E+04 -5.78358E+03  2.70843E+04
 -2.23402E+04  1.16839E+04 -1.86842E+04 -5.38133E+03  5.75824E+03 -7.83557E+03  2.25906E+04  1.27284E+04
  6.94471E+03  3.58295E+04 -3.24071E+04  3.60014E+04 -6.43625E+04  1.92144E+03 -5.73521E+04 -4.34293E+04
 -1.24865E+04 -6.39440E+04  4.00198E+04 -4.55692E+04  5.94946E+04 -2.43027E+03  3.48380E+04  3.29081E+04
 -5.91834E+03  3.76676E+04 -3.06924E+04  1.67421E+04 -3.12384E+04 -3.77868E+03 -1.73389E+04 -1.11003E+04
 -9.01550E+03 -1.40206E+04 -1.30585E+03 -1.81828E+04  8.01672E+03 -2.26182E+04  1.61235E+04 -1.32255E+04
  1.14152E+04  5.01777E+03 -8.75485E+03  1.28031E+04 -2.15113E+04 -5.27824E+03 -7.96696E+03 -3.46197E+04
  2.31184E+04 -4.48624E+04  4.88856E+04 -2.01621E+04  4.55582E+04  1.99483E+04  1.58721E+04  4.52781E+04
 -1.68053E+04  3.47708E+04 -2.53570E+04  2.11010E+03 -1.02998E+04 -2.83220E+04  2.08592E+04 -3.51268E+04
  4.15604E+04 -9.27398E+03  3.73421E+04  2.39209E+04  1.91016E+04  4.72883E+04 -7.96271E+03  5.28169E+04
 -3.26173E+04  3.47566E+04 -4.35452E+04  9.98666E+03 -4.47622E+04 -1.68848E+04 -2.41089E+04 -3.94714E+04
  7.88480E+03 -3.97116E+04  3.19461E+04 -1.53868E+04  2.99727E+04  1.17860E+04  3.75315E+03  1.95661E+04
 -1.39292E+04  8.76483E+03 -1.04304E+04 -8.33372E+03  5.57288E+03 -1.04984E+04  1.79719E+04  5.11659E+03
  1.35987E+04  2.22698E+04 -5.31868E+03  2.54875E+04 -2.25150E+04  1.25237E+04 -2.85839E+04 -3.83574E+03
 -2.22234E+04 -1.80671E+04 -9.10977E+03 -2.18427E+04  3.54818E+03 -2.12815E+04  1.74350E+04 -2.00010E+04
  2.81706E+04 -1.33973E+04  3.38089E+04  3.74100E+03  2.47033E+04  2.14905E+04  3.71384E+03  3.77885E+04
 -1.80556E+04  3.15931E+04 -2.81292E+04  1.04712E+04 -2.20709E+04 -1.02213E+04 -4.47294E+03 -1.35030E+04
  2.28052E+03 -2.09315E+03 -6.09465E+03  7.86741E+03 -1.74857E+04  5.15982E+03 -1.71743E+04 -7.45778E+03
 -9.66448E+03 -2.01659E+04  5.38091E+03 -2.41646E+04  1.67017E+04 -1.76369E+04  1.99622E+04 -1.79634E+03
  1.26156E+04  1.41119E+04 -6.25978E+02  2.06617E+04 -1.44391E+04  1.17020E+04 -2.02375E+04 -3.47849E+03
 -1.51935E+04 -1.84977E+04 -1.74630E+03 -2.46020E+04  1.12277E+04 -2.02006E+04  2.06954E+04 -1.07345E+04
  1.92162E+04 -1.62167E+02  1.40221E+04  4.58265E+03  6.64625E+03  1.31747E+03  1.01664E+04 -2.06692E+03
  1.82951E+04  2.53217E+03  2.08974E+04  1.60606E+04  1.41436E+04  3.26481E+04 -2.73197E+03  3.75169E+04
 -2.19366E+04  3.03605E+04 -3.47192E+04  1.54971E+04 -3.65986E+04 -2.99208E+03 -3.03149E+04 -2.07088E+04
 -1.32166E+04 -3.08408E+04  1.12992E+04 -2.70529E+04  2.34037E+04 -1.36450E+04  2.02250E+04  5.79111E+03
  7.58870E+03  1.55276E+04 -9.51478E+03  1.38964E+04 -1.73040E+04  2.71286E+03 -1.31459E+04 -1.13398E+04
 -6.25020E+02 -1.60682E+04  9.23518E+03 -1.15002E+04  1.11320E+04 -6.51322E+02  2.62572E+03  7.04143E+03
 -6.77793E+03  3.92218E+03 -6.77945E+03 -5.57057E+03 -8.10930E+02 -1.52583E+04  1.00253E+04 -1.58301E+04
  1.78868E+04 -8.45806E+03  2.02179E+04  2.64945E+03  1.76048E+04  1.48879E+04  7.82954E+03  2.31097E+04
 -4.30594E+03  2.48125E+04 -1.58203E+04  1.58605E+04 -1.74747E+04  3.18764E+03 -1.24457E+04 -4.71476E+03
 -6.03790E+03 -4.94468E+03 -6.54509E+02  8.90065E+02 -2.35699E+03  2.74552E+03 -5.92576E+03  4.76825E+03
 -1.13218E+04 -8.21573E+02 -1.19190E+04 -9.75492E+03 -4.54424E+03 -1.61657E+04  5.59120E+03 -1.33141E+04
  1.05222E+04 -5.35724E+03  7.36397E+03  3.27697E+03 -4.43163E+01  4.71783E+03 -6.32081E+03 -5.45317E+01
 -5.69196E+03 -8.39799E+03 -1.19413E+03 -1.22453E+04  6.92718E+03 -1.28730E+04  1.60480E+04 -7.13835E+03
  1.78064E+04  1.75926E+03  1.36798E+04  1.11803E+04  3.34430E+03  1.48001E+04 -7.45046E+03  1.26774E+04
 -1.03299E+04  3.82822E+03 -5.58268E+03 -2.17771E+03  8.61236E+02 -3.48001E+03  7.41288E+03 -1.07391E+03
  6.11661E+03  5.67111E+03  1.52721E+03  1.02089E+04 -7.40693E+03  9.14872E+03 -1.22812E+04  1.79647E+03
 -8.58974E+03 -5.90116E+03 -2.24320E+02 -1.02940E+04  7.01559E+03 -5.04347E+03  7.24559E+03  2.74430E+03
  1.27582E+03  6.91998E+03 -6.56930E+03  9.03202E+03 -1.00315E+04  4.06005E+03 -1.02005E+04 -3.16450E+03
 -5.32632E+03 -1.16636E+04  1.76377E+03 -1.27652E+04  1.09682E+04 -7.59390E+03  1.24380E+04  1.89012E+03
  7.77265E+03  9.90252E+03 -9.39205E+02  1.20101E+04 -9.49385E+03  6.81733E+03 -9.08551E+03 -7.39758E+02
 -8.09959E+03 -8.67292E+03 -1.51169E+03 -8.90459E+03  4.99420E+03 -7.37113E+03  5.39398E+03 -2.94154E+03
  4.10088E+03  5.04383E+02 -5.77182E+02  1.38736E+03  5.37089E+02 -2.66654E+03  1.95019E+03 -4.72599E+03
  8.82137E+03 -2.83643E+03  1.15926E+04  9.69457E+02  1.11537E+04  7.90942E+03  8.15421E+03  1.47023E+04
 -3.01426E+03  1.71052E+04 -1.52045E+04  1.27131E+04 -1.89010E+04  2.27177E+03 -1.54248E+04 -6.12748E+03
 -7.30794E+03 -1.19364E+04 -1.00450E+03 -1.06714E+04  3.43753E+03 -5.79019E+03  3.44159E+03 -4.11822E+03
  2.79857E+03 -2.56933E+03  3.00204E+03 -2.89045E+03  5.16532E+03 -3.02893E+03  5.06137E+03 -2.77707E+02
  7.37626E+03  1.20038E+03  3.60273E+03  6.92309E+03 -2.15431E+03  7.79825E+03 -8.09885E+03  5.74668E+03
 -1.06399E+04 -1.17890E+03 -5.61588E+03 -7.08438E+03 -3.25054E+02 -1.08961E+04  6.11716E+03 -1.07809E+04
  1.11589E+04 -6.53496E+03  1.35506E+04  1.65454E+03  9.94801E+03  8.95480E+03  2.04117E+03  1.26523E+04
 -4.82635E+03  1.15522E+04 -7.45985E+03  3.59199E+03 -4.47139E+03 -1.30422E+03 -2.30995E+03 -8.44156E+02
 -2.74640E+02  1.39373E+02 -2.03611E+03  2.32209E+03 -4.22132E+03  1.78016E+03 -7.78416E+03 -5.52196E+02
 -3.96137E+03 -6.98907E+03  6.25383E+02 -9.87423E+03  7.00240E+03 -9.39936E+03  9.75371E+03 -2.91283E+03
  9.51639E+03  4.95564E+03  4.43126E+03  8.55038E+03 -2.46665E+03  1.08915E+04 -6.95251E+03  6.34381E+03
 -9.21280E+03  3.12324E+02 -6.99664E+03 -5.93873E+03 -2.39549E+02 -7.18592E+03  4.13037E+03 -6.24217E+03
  6.63542E+03 -2.87654E+03  4.05543E+03  1.50171E+03  1.46384E+03  3.25356E+03  1.27767E+03  9.14746E+02
  2.02430E+03  1.10748E+03  2.87341E+03  2.13367E+03  3.24982E+03  4.24914E+03  2.62069E+03  4.44245E+03
 -2.33009E+03  7.75864E+03 -6.68304E+03  8.52453E+03 -9.04996E+03  2.16396E+03 -1.04493E+04 -3.72716E+03
 -5.61710E+03 -9.68006E+03  2.00548E+03 -1.12823E+04  5.71124E+03 -6.26706E+03  8.46734E+03 -1.76151E+03
  5.39715E+03  4.16196E+03  1.20634E+03  5.32142E+03 -2.69014E+03  3.37686E+03 -3.60627E+03 -1.34369E+03
 -1.99216E+03 -4.31739E+03  2.87575E+03 -4.12579E+03  4.09050E+03 -2.21930E+03  4.05327E+03  1.20397E+03
  1.90286E+03  1.76287E+03  1.00487E+03  1.24344E+03 -3.28081E+02  1.79377E+03  1.90656E+03 -6.50491E+02
  1.62701E+03 -7.27780E+02  4.08855E+03  2.26940E+03  1.95546E+03  5.12661E+03 -3.11690E+02  6.99228E+03
 -5.16507E+03  4.22809E+03 -6.46763E+03  1.25015E+03 -5.64247E+03 -2.13445E+03 -2.01092E+03 -3.19853E+03
  5.67037E+02 -3.26386E+03  2.61407E+03 -1.31599E+03  2.20569E+03  1.84083E+03 -7.98783E+02  2.81145E+03
 -3.19810E+03  1.39753E+03 -4.15042E+03 -2.68756E+03 -2.47852E+03 -4.67168E+03  7.29467E+02 -4.73549E+03
  2.67318E+03 -2.79188E+03  3.53991E+03 -1.70434E+03  3.47492E+03  1.26653E+03  4.69227E+02  2.65428E+03
 -1.51794E+03  3.78066E+02 -2.59138E+03 -1.72428E+03  1.08206E+03 -3.81012E+03  4.84866E+03 -3.49285E+03
  5.57521E+03  8.69767E+02  5.86827E+03  3.08558E+03  2.35094E+03  5.58259E+03 -1.58539E+03  5.64390E+03
 -4.89169E+03  2.60024E+03 -4.91490E+03 -1.46137E+03 -2.28265E+03 -3.90754E+03  1.59724E+03 -3.35028E+03
  3.60015E+03 -1.22447E+03  2.82861E+03  1.77122E+03  1.22300E+03  3.50030E+03 -1.31412E+03  3.42728E+03
 -1.57505E+03  2.19239E+03 -1.08478E+03 -1.95253E+01 -3.48396E+02  2.69343E+02 -1.16665E+03  1.80960E+03
 -8.74425E+02  1.96330E+03 -4.95397E+03  1.67825E+03 -5.37856E+03  5.30438E+02 -6.38226E+03 -3.40499E+03
 -3.83803E+03 -7.72270E+03  1.45638E+03 -8.89706E+03  4.92774E+03 -7.02794E+03  8.66888E+03 -3.00833E+03
  7.43270E+03  1.01410E+03  4.98302E+03  5.50745E+03  7.47294E+02  6.30998E+03 -2.66186E+03  4.24028E+03
 -3.81858E+03  1.69767E+03 -1.58267E+03 -4.57484E+02 -1.60535E+03 -7.56696E+02 -1.25054E+03 -3.25539E+02
 -1.48714E+03  7.16540E+02 -9.93916E+02 -4.87277E+02  3.26494E+02 -1.16780E+03 -2.94491E+02 -2.15016E+03
  2.92258E+03 -2.09663E+03  3.45125E+03  4.48326E+02  3.77713E+03  3.10483E+03  6.96622E+02  6.36785E+03
 -3.06049E+03  7.28524E+03 -5.84424E+03  4.13331E+03 -6.78398E+03 -5.52145E+02 -5.29497E+03 -4.23225E+03
 -2.60494E+03 -5.97521E+03  1.56329E+03 -5.23817E+03  3.40799E+03 -3.26757E+03  3.50732E+03  4.37253E+02
  2.28049E+03  1.80999E+03 -1.05259E+02  1.17174E+03 -1.86267E+03  8.35787E+01 -5.68599E+02 -1.21470E+03
  2.10105E+03 -3.86052E+02  1.87219E+03  8.09190E+02  1.12471E+03  2.09604E+03  8.09843E+02  3.43334E+03
 -2.35771E+03  2.25687E+03 -3.37580E+03  2.86557E+02 -3.68673E+03 -2.82783E+03 -2.24218E+02 -4.87776E+03
  2.74112E+03 -3.61341E+03  4.84193E+03 -7.25798E+02  4.19891E+03  1.12625E+03  1.70782E+03  3.44157E+03
  8.16431E+02  3.41184E+03 -1.83010E+03  3.15576E+03 -2.75132E+03  1.94635E+03 -1.89329E+03  2.77743E+02
 -1.24634E+03  2.94516E+02 -7.64721E+02  5.30409E+02 -2.04027E+03  5.96960E+01 -2.63761E+03 -6.71441E+02
 -3.18117E+03 -1.81224E+03 -4.11676E+02 -3.87463E+03  1.98465E+03 -4.42027E+03  3.92000E+03 -1.80014E+03
  4.36353E+03  1.05263E+01  1.79499E+03  2.03409E+03 -5.60120E+02  3.42655E+03 -3.18778E+03  2.99307E+03
