 $NMID ID='MM_0lb_SNR400_10hz_g40_89.RAW', FMTDAT='(8E13.5)'
 TRAMP=1., VOLUME=1. $END
  3.10499E+05  9.29924E+02  3.37952E+05  2.50447E+05  8.51651E+04  3.38377E+05 -1.32573E+05  2.51381E+05
 -1.91021E+05  8.22378E+04 -1.12565E+05 -3.28578E+04  7.32009E+02 -4.95156E+04  5.42359E+04 -4.86236E+02
  3.52974E+04  5.36719E+04 -1.63936E+04  7.60234E+04 -6.11753E+04  6.32404E+04 -8.49325E+04  3.23761E+04
 -8.23168E+04 -1.19465E+04 -5.71794E+04 -5.11473E+04 -1.51060E+04 -7.02412E+04  2.70309E+04 -4.63399E+04
  4.05508E+04  3.75424E+03  1.64125E+04  4.79590E+04 -3.48122E+04  4.83033E+04 -6.76350E+04 -4.61880E+02
 -5.46298E+04 -5.77945E+04 -6.65596E+03 -7.81388E+04  3.48225E+04 -5.59733E+04  4.86044E+04 -1.88057E+04
  4.47934E+04  1.03704E+04  3.21301E+04  2.59435E+04  1.63700E+04  2.98293E+04 -5.42341E+03  2.73316E+04
 -2.28099E+04  1.17434E+04 -1.85015E+04 -4.89992E+03  6.23912E+03 -7.31573E+03  2.29631E+04  1.39781E+04
  7.04923E+03  3.68483E+04 -3.37084E+04  3.64732E+04 -6.52170E+04  1.90602E+03 -5.78652E+04 -4.37304E+04
 -1.28556E+04 -6.48834E+04  4.12385E+04 -4.66047E+04  6.00720E+04 -2.62921E+03  3.53060E+04  3.33111E+04
 -5.21881E+03  3.75624E+04 -3.11944E+04  1.70892E+04 -3.19213E+04 -4.15368E+03 -1.75913E+04 -1.14543E+04
 -9.11388E+03 -1.39524E+04 -8.56723E+02 -1.90757E+04  7.11169E+03 -2.30035E+04  1.56289E+04 -1.26986E+04
  1.09162E+04  5.67877E+03 -9.30413E+03  1.38253E+04 -2.24226E+04 -5.45392E+03 -8.86464E+03 -3.59389E+04
  2.37548E+04 -4.58469E+04  5.10947E+04 -2.12678E+04  4.71374E+04  2.03008E+04  1.58214E+04  4.57109E+04
 -1.63020E+04  3.41886E+04 -2.61874E+04  2.28220E+03 -1.02889E+04 -2.86469E+04  2.21966E+04 -3.50507E+04
  4.28087E+04 -1.02652E+04  3.84744E+04  2.47114E+04  2.06108E+04  4.90269E+04 -8.13702E+03  5.37061E+04
 -3.39249E+04  3.64956E+04 -4.50028E+04  1.04346E+04 -4.52491E+04 -1.83662E+04 -2.41992E+04 -3.97395E+04
  7.89669E+03 -4.03315E+04  3.32514E+04 -1.59989E+04  3.09995E+04  1.11266E+04  5.06945E+03  1.99186E+04
 -1.41173E+04  8.51298E+03 -1.11619E+04 -7.84146E+03  5.96098E+03 -1.10751E+04  1.83903E+04  6.38250E+03
  1.43447E+04  2.23406E+04 -5.30946E+03  2.57470E+04 -2.26029E+04  1.30568E+04 -3.01719E+04 -3.01721E+03
 -2.26015E+04 -1.81469E+04 -9.79442E+03 -2.27328E+04  4.80109E+03 -2.34295E+04  1.86305E+04 -2.12066E+04
  2.94984E+04 -1.37610E+04  3.54860E+04  4.03813E+03  2.53277E+04  2.27405E+04  3.79209E+03  3.96462E+04
 -1.92730E+04  3.26878E+04 -2.94631E+04  1.08265E+04 -2.24872E+04 -1.07230E+04 -5.35517E+03 -1.37169E+04
  1.08203E+03 -2.28246E+03 -6.36550E+03  7.52732E+03 -1.85764E+04  4.93017E+03 -1.84354E+04 -8.74849E+03
 -1.07023E+04 -2.11356E+04  5.96470E+03 -2.61022E+04  1.73549E+04 -1.85058E+04  2.13080E+04 -1.86689E+03
  1.34407E+04  1.49600E+04 -1.75237E+03  2.14580E+04 -1.48668E+04  1.21550E+04 -2.21502E+04 -4.42787E+03
 -1.60220E+04 -1.93897E+04 -2.22224E+03 -2.53067E+04  1.15696E+04 -2.13039E+04  2.16175E+04 -1.10193E+04
  2.02585E+04 -1.36777E+00  1.50020E+04  4.48155E+03  8.30624E+03  1.93525E+03  1.08952E+04 -2.25198E+03
  2.01734E+04  2.82788E+03  2.27323E+04  1.69541E+04  1.51016E+04  3.51160E+04 -2.66444E+03  3.97114E+04
 -2.30755E+04  3.31982E+04 -3.74106E+04  1.72292E+04 -4.07340E+04 -3.08404E+03 -3.33039E+04 -2.31828E+04
 -1.30191E+04 -3.36497E+04  1.23471E+04 -2.97363E+04  2.56871E+04 -1.41749E+04  2.25003E+04  7.60562E+03
  7.95910E+03  1.70741E+04 -9.99511E+03  1.37723E+04 -1.90845E+04  2.72904E+03 -1.36219E+04 -1.20530E+04
 -2.90846E+02 -1.78271E+04  9.47668E+03 -1.32894E+04  1.19178E+04 -2.35443E+03  2.76924E+03  7.72794E+03
 -8.36112E+03  3.21870E+03 -7.38976E+03 -5.98624E+03 -5.78765E+02 -1.65837E+04  1.10017E+04 -1.76170E+04
  2.04799E+04 -9.94418E+03  2.24147E+04  3.02970E+03  1.99900E+04  1.66408E+04  9.31996E+03  2.49878E+04
 -4.67171E+03  2.79627E+04 -1.79761E+04  1.70190E+04 -2.03833E+04  3.35795E+03 -1.30958E+04 -4.87691E+03
 -6.37510E+03 -7.13896E+03 -1.04324E+03  6.58364E+02 -3.07035E+03  3.28792E+03 -6.08647E+03  5.65484E+03
 -1.28445E+04 -8.05858E+02 -1.38359E+04 -1.14446E+04 -5.05101E+03 -1.73470E+04  5.33795E+03 -1.40804E+04
  1.17278E+04 -5.32315E+03  8.49521E+03  4.02771E+03  6.19299E+02  5.73273E+03 -7.45117E+03  1.59143E+02
 -6.38214E+03 -8.57992E+03 -1.39197E+03 -1.35641E+04  7.39574E+03 -1.43340E+04  1.76205E+04 -7.80762E+03
  2.02208E+04  2.25563E+03  1.50843E+04  1.22163E+04  3.00276E+03  1.70930E+04 -8.94553E+03  1.33947E+04
 -1.15457E+04  3.55544E+03 -5.81647E+03 -3.07000E+03  2.54001E+03 -4.23444E+03  8.24399E+03 -1.17561E+02
  6.67859E+03  6.29584E+03  6.47086E+02  1.17776E+04 -8.83745E+03  1.06107E+04 -1.39797E+04  2.83423E+03
 -9.33224E+03 -6.92276E+03  3.15686E+02 -1.17006E+04  7.55004E+03 -6.13215E+03  8.54670E+03  2.78323E+03
  2.05373E+03  7.93458E+03 -6.96777E+03  1.04019E+04 -1.13522E+04  5.09489E+03 -1.18023E+04 -3.74887E+03
 -7.01565E+03 -1.27720E+04  3.04560E+03 -1.52677E+04  1.29731E+04 -9.93505E+03  1.46616E+04  2.89474E+03
  9.01997E+03  1.23271E+04 -1.35178E+03  1.41170E+04 -1.02137E+04  8.62459E+03 -1.11098E+04 -1.45939E+03
 -9.65925E+03 -8.55049E+03 -1.39369E+03 -9.70125E+03  5.18637E+03 -7.92800E+03  6.88553E+03 -3.41902E+03
  3.62649E+03  1.30073E+03 -7.64660E+02  2.39452E+03 -6.53730E+02 -2.83545E+03  2.56882E+03 -6.39491E+03
  1.00298E+04 -4.23491E+03  1.38068E+04  1.77956E+03  1.35570E+04  9.21752E+03  9.11342E+03  1.77044E+04
 -4.61732E+03  2.03156E+04 -1.75731E+04  1.46177E+04 -2.24626E+04  3.48179E+03 -1.77684E+04 -7.60567E+03
 -9.08820E+03 -1.41679E+04 -2.38229E+01 -1.27613E+04  4.27423E+03 -6.54248E+03  4.48748E+03 -5.02201E+03
  3.35633E+03 -3.52302E+03  3.43291E+03 -3.58274E+03  4.81756E+03 -3.09586E+03  6.70753E+03 -1.10239E+03
  9.08496E+03  1.94906E+03  4.77654E+03  8.32411E+03 -2.04224E+03  9.29417E+03 -9.71809E+03  7.86545E+03
 -1.30245E+04 -1.83631E+03 -7.50298E+03 -9.09450E+03 -9.40153E+02 -1.39286E+04  7.53374E+03 -1.41895E+04
  1.43978E+04 -7.28434E+03  1.63612E+04  2.61164E+03  1.18541E+04  1.12266E+04  1.52636E+03  1.53999E+04
 -6.78443E+03  1.26491E+04 -9.33205E+03  4.53124E+03 -5.91734E+03 -1.31528E+03 -2.22355E+03 -1.87926E+03
 -6.25958E+02  4.07299E+02 -1.84521E+03  2.42169E+03 -5.01266E+03  2.08419E+03 -8.52816E+03 -1.76101E+03
 -6.19218E+03 -9.28523E+03 -2.97136E+02 -1.23185E+04  7.27965E+03 -1.16100E+04  1.22606E+04 -2.31019E+03
  1.28223E+04  5.83781E+03  6.05728E+03  1.10336E+04 -2.66842E+03  1.26577E+04 -9.23281E+03  7.58059E+03
 -1.12358E+04  1.45881E+03 -8.21127E+03 -7.59600E+03 -7.16886E+02 -1.04477E+04  5.75321E+03 -8.04221E+03
  7.19699E+03 -2.46631E+03  6.25986E+03  2.59578E+03  1.94065E+03  3.68495E+03  1.35746E+03  1.25281E+03
  2.49658E+03  1.03437E+03  3.55583E+03  2.11813E+03  3.62600E+03  4.22942E+03  3.15315E+03  6.43875E+03
 -2.25159E+03  1.00148E+04 -8.76691E+03  9.77136E+03 -1.22942E+04  2.57610E+03 -1.28293E+04 -4.99143E+03
 -6.37909E+03 -1.22701E+04  2.42363E+03 -1.41841E+04  6.63911E+03 -8.76462E+03  9.76350E+03 -2.20935E+03
  7.93425E+03  5.11035E+03  2.17142E+03  7.13063E+03 -3.46704E+03  4.63764E+03 -4.91171E+03 -1.18269E+03
 -1.77337E+03 -4.58722E+03  2.71069E+03 -4.90635E+03  4.94090E+03 -2.60481E+03  5.06353E+03  7.43456E+02
  2.31729E+03  2.52253E+03  1.15681E+03  3.05715E+03  2.99359E+02  2.16572E+03  1.92463E+03 -1.24390E+02
  2.08367E+03 -1.04030E+03  4.53635E+03  2.38698E+03  2.45259E+03  6.95734E+03 -1.05570E+03  8.46227E+03
 -5.50157E+03  5.39483E+03 -8.10133E+03  1.96098E+03 -7.64752E+03 -2.86862E+03 -3.16680E+03 -4.70527E+03
 -9.71104E+01 -4.91532E+03  3.68033E+03 -1.88221E+03  2.95474E+03  1.36718E+03 -1.43299E+03  4.24060E+03
 -4.97598E+03  2.18536E+03 -5.63289E+03 -3.12526E+03 -3.77277E+03 -6.98035E+03  1.04979E+02 -6.90369E+03
  4.22935E+03 -4.04423E+03  5.72949E+03 -5.98450E+02  3.81217E+03  1.47005E+03  5.70368E+02  3.63594E+03
 -2.44123E+03  6.74925E+02 -2.96742E+03 -2.59819E+03  8.75940E+02 -4.53125E+03  6.73413E+03 -3.70258E+03
  7.90697E+03  8.26997E+02  7.63494E+03  5.19446E+03  2.54886E+03  8.90290E+03 -3.30146E+03  8.35425E+03
 -6.57894E+03  2.89681E+03 -6.36311E+03 -6.36044E+02 -4.57761E+03 -5.08520E+03  5.31092E+02 -4.75021E+03
  5.07714E+03 -2.23161E+03  3.56763E+03  1.75878E+03  7.85700E+02  4.31842E+03 -5.90421E+02  3.75406E+03
 -1.72182E+03  3.06899E+03 -2.07429E+03  9.95983E+02 -6.94710E+02  6.06817E+02 -8.81911E+02  1.46869E+03
 -2.18984E+03  3.19959E+03 -5.71437E+03  2.72380E+03 -8.84062E+03 -2.59745E+01 -8.87220E+03 -5.32263E+03
 -4.96542E+03 -1.15748E+04  1.95746E+03 -1.19353E+04  7.75020E+03 -9.86795E+03  1.17048E+04 -3.14045E+03
  1.03913E+04  1.38934E+03  6.18221E+03  7.71999E+03  1.18078E+03  8.69349E+03 -3.62698E+03  5.48678E+03
 -4.15731E+03  2.72052E+03 -2.82276E+03 -7.33050E+02 -1.31351E+03  1.23990E+02 -1.12943E+03 -1.70179E+02
 -2.21745E+03 -3.78541E+02 -1.81677E+03 -4.59052E+02 -6.89420E+02 -1.66465E+03 -2.21946E+02 -2.70949E+03
  3.47051E+03 -2.80381E+03  5.04077E+03  8.69006E+02  6.06539E+03  4.69038E+03  1.53972E+03  7.79806E+03
 -4.87792E+03  9.63998E+03 -8.53950E+03  5.25714E+03 -1.09936E+04 -8.14699E+02 -7.77058E+03 -5.42501E+03
 -3.07231E+03 -7.89093E+03  2.18573E+03 -8.23232E+03  4.27917E+03 -4.74903E+03  5.32377E+03 -7.15036E+02
  2.92609E+03  2.78318E+03  1.51927E+02  2.45087E+03 -1.75787E+03 -2.27432E+02  4.38347E+02 -2.72484E+03
  2.29310E+03 -6.96549E+02  3.52685E+03  8.22705E+02  2.34463E+03  2.87093E+03  4.37379E+02  4.31613E+03
 -3.72210E+03  3.72903E+03 -5.56642E+03  7.80409E+02 -5.21846E+03 -3.25100E+03 -9.14736E+02 -6.43100E+03
  4.00245E+03 -4.58450E+03  6.44863E+03 -1.75840E+03  5.25618E+03  1.16194E+03  4.03729E+03  4.78497E+03
  1.12322E+03  5.46053E+03 -8.48015E+02  4.13781E+03 -4.03896E+03  2.89048E+03 -2.95115E+03  3.99700E+02
 -8.24301E+02  4.43078E+02 -1.44294E+03  8.56856E+02 -2.35889E+03  7.58363E+02 -4.77087E+03 -8.66623E+02
 -4.16879E+03 -2.29984E+03 -1.21188E+03 -5.31356E+03  3.14198E+03 -6.25579E+03  5.16668E+03 -2.71339E+03
  4.81398E+03  7.79984E+02  2.77260E+03  4.57328E+03 -7.23795E+02  5.96148E+03 -4.16227E+03  3.75118E+03
