 $NMID ID='MM_0lb_SNR400_17hz_g40_31.RAW', FMTDAT='(8E13.5)'
 TRAMP=1., VOLUME=1. $END
  3.10305E+05  3.40753E+02  3.37264E+05  2.50358E+05  8.44004E+04  3.37266E+05 -1.32471E+05  2.50216E+05
 -1.89884E+05  8.22669E+04 -1.10740E+05 -3.28557E+04  1.19199E+03 -5.02790E+04  5.37205E+04 -5.00186E+01
  3.47585E+04  5.28350E+04 -1.71031E+04  7.49138E+04 -6.00613E+04  6.25014E+04 -8.34891E+04  3.15335E+04
 -7.98983E+04 -1.12023E+04 -5.65885E+04 -5.06735E+04 -1.44153E+04 -6.79075E+04  2.65465E+04 -4.45272E+04
  3.94717E+04  3.92176E+03  1.59617E+04  4.73016E+04 -3.39151E+04  4.62616E+04 -6.52941E+04 -7.68801E+02
 -5.24061E+04 -5.67833E+04 -5.72834E+03 -7.50255E+04  3.33600E+04 -5.32557E+04  4.61046E+04 -1.69724E+04
  4.20388E+04  1.04926E+04  3.05427E+04  2.47074E+04  1.57766E+04  2.79103E+04 -5.22955E+03  2.67604E+04
 -2.13120E+04  1.27969E+04 -1.89723E+04 -4.07649E+03  4.41048E+03 -7.34695E+03  2.13753E+04  1.08454E+04
  7.54301E+03  3.32421E+04 -3.07280E+04  3.39344E+04 -6.09307E+04  2.07524E+03 -5.57371E+04 -4.12611E+04
 -1.24820E+04 -6.10426E+04  3.81308E+04 -4.39480E+04  5.59114E+04 -2.28948E+03  3.22487E+04  3.10157E+04
 -6.71759E+03  3.36329E+04 -2.82714E+04  1.38317E+04 -2.77382E+04 -4.33076E+03 -1.51341E+04 -1.02461E+04
 -7.74167E+03 -1.16223E+04 -7.60719E+02 -1.65442E+04  6.54609E+03 -2.21917E+04  1.48864E+04 -1.40434E+04
  1.27992E+04  4.13484E+03 -6.25268E+03  1.29526E+04 -1.90670E+04 -2.19452E+03 -8.08267E+03 -3.05931E+04
  2.12122E+04 -4.04499E+04  4.48142E+04 -1.83061E+04  4.21828E+04  1.81622E+04  1.46870E+04  4.17281E+04
 -1.55960E+04  3.12025E+04 -2.38059E+04  1.03519E+03 -8.33532E+03 -2.64140E+04  2.08887E+04 -3.16618E+04
  3.87470E+04 -7.57540E+03  3.19303E+04  2.30750E+04  1.58090E+04  4.31220E+04 -7.54863E+03  4.59522E+04
 -2.89719E+04  3.00790E+04 -3.81406E+04  8.13780E+03 -3.89057E+04 -1.57019E+04 -2.19923E+04 -3.48234E+04
  7.01207E+03 -3.39693E+04  2.91851E+04 -1.39452E+04  2.71900E+04  1.09398E+04  3.41154E+03  1.78077E+04
 -1.31679E+04  7.69118E+03 -1.02337E+04 -7.85682E+03  5.81408E+03 -9.93577E+03  1.77045E+04  6.13465E+03
  1.21238E+04  2.12280E+04 -6.72900E+03  2.34571E+04 -2.23043E+04  9.29486E+03 -2.57788E+04 -5.97870E+03
 -1.74859E+04 -1.58152E+04 -6.03609E+03 -1.74163E+04  3.60578E+03 -1.51822E+04  1.32909E+04 -1.50588E+04
  2.19633E+04 -1.14040E+04  2.87516E+04  1.52009E+03  2.23107E+04  1.66707E+04  4.00089E+03  3.33751E+04
 -1.62199E+04  2.80351E+04 -2.61912E+04  9.49777E+03 -1.97614E+04 -9.95454E+03 -4.53462E+03 -1.37957E+04
  2.35784E+03 -3.06235E+03 -3.04402E+03  5.48895E+03 -1.33056E+04  5.20824E+03 -1.36842E+04 -5.32495E+03
 -8.69916E+03 -1.61533E+04  4.28652E+03 -1.90813E+04  1.25258E+04 -1.45274E+04  1.47656E+04 -2.06512E+03
  1.00789E+04  1.17507E+04 -8.40287E+02  1.63409E+04 -1.09788E+04  9.04020E+03 -1.59645E+04 -3.93410E+03
 -1.19326E+04 -1.41697E+04 -9.61064E+02 -1.99576E+04  9.12132E+03 -1.57565E+04  1.64507E+04 -7.35862E+03
  1.50037E+04  9.34271E+02  1.12238E+04  3.68460E+03  5.82815E+03  1.34264E+02  8.26164E+03 -1.27930E+03
  1.40419E+04  2.81358E+03  1.51814E+04  1.31078E+04  9.16651E+03  2.58575E+04 -3.14870E+03  2.77385E+04
 -1.63882E+04  2.15545E+04 -2.51593E+04  1.02325E+04 -2.58013E+04 -1.66391E+03 -2.25385E+04 -1.50303E+04
 -1.08512E+04 -2.10499E+04  6.42685E+03 -1.92773E+04  1.73919E+04 -1.12765E+04  1.65324E+04  4.15152E+03
  6.54849E+03  1.14618E+04 -7.43621E+03  1.12604E+04 -1.37994E+04  2.83962E+03 -1.05940E+04 -8.14194E+03
 -6.61433E+02 -1.26146E+04  6.95786E+03 -9.79880E+03  8.20256E+03 -1.39247E+03  1.48826E+03  4.88973E+03
 -5.54271E+03  1.42938E+03 -3.78398E+03 -5.25220E+03  4.96851E+02 -1.03389E+04  7.74775E+03 -1.07918E+04
  1.31207E+04 -5.34327E+03  1.25504E+04  2.85996E+03  1.09363E+04  1.00273E+04  5.27034E+03  1.49547E+04
 -1.76019E+03  1.64856E+04 -1.02855E+04  1.07367E+04 -1.20468E+04  2.83710E+03 -8.45552E+03 -1.98151E+03
 -4.45352E+03 -3.88046E+03 -1.13575E+03  1.98273E+03 -1.83466E+03  2.36373E+03 -3.96132E+03  3.53273E+03
 -8.64397E+03 -8.04125E+02 -9.18226E+03 -6.97501E+03 -3.49655E+03 -1.18402E+04  4.17488E+03 -9.18567E+03
  7.52188E+03 -3.98546E+03  5.01836E+03  1.38724E+03  1.06404E+02  2.91903E+03 -3.33630E+03 -3.64150E+01
 -3.83273E+03 -5.61679E+03 -4.26823E+02 -7.64897E+03  4.72364E+03 -8.69877E+03  1.06079E+04 -4.35299E+03
  1.25298E+04  8.31073E+02  9.06954E+03  6.46432E+03  1.91447E+03  9.05422E+03 -5.91046E+03  9.09860E+03
 -7.44374E+03  3.00414E+03 -3.37851E+03 -1.61447E+03  1.28244E+03 -1.71225E+03  5.09492E+03 -1.02477E+03
  4.56381E+03  3.72583E+03  1.08231E+03  6.82993E+03 -3.82701E+03  6.43050E+03 -8.37352E+03  2.03249E+03
 -5.52779E+03 -3.36921E+03  1.07671E+02 -7.24005E+03  3.95946E+03 -3.68625E+03  4.36189E+03  9.64030E+02
  7.75169E+02  4.02596E+03 -4.05364E+03  4.81337E+03 -5.68677E+03  2.78447E+03 -5.28677E+03 -1.19369E+03
 -3.42835E+03 -6.38542E+03  1.56400E+03 -7.32423E+03  6.76634E+03 -5.41684E+03  6.76954E+03  9.62061E+02
  4.77936E+03  5.50716E+03  4.44028E+02  8.18992E+03 -5.45633E+03  4.89858E+03 -5.69198E+03 -4.62436E+02
 -6.00520E+03 -5.68737E+03 -1.51529E+03 -5.69774E+03  2.45839E+03 -4.98873E+03  3.00734E+03 -2.98389E+03
  3.28123E+03  4.07121E+02 -5.29967E+02  1.33446E+03  4.53161E+02 -2.00918E+02  3.35523E+02 -1.87045E+03
  4.72807E+03 -1.21327E+03  6.18505E+03 -1.31552E+02  6.15370E+03  3.74092E+03  5.94931E+03  7.79027E+03
 -1.24610E+03  9.18573E+03 -8.71525E+03  7.12527E+03 -1.10365E+04  7.58499E+02 -9.24403E+03 -2.80786E+03
 -4.55925E+03 -7.09014E+03 -3.03807E+02 -5.46773E+03  2.75564E+03 -2.83193E+03  2.12451E+03 -2.22758E+03
  1.03188E+03 -1.71318E+03  2.31212E+03 -2.31365E+03  4.04934E+03 -1.04452E+03  3.90519E+03 -2.93682E+01
  4.50293E+03  9.27554E+02  1.55071E+03  4.22335E+03 -1.40913E+03  3.73615E+03 -5.19422E+03  3.23593E+03
 -5.77896E+03 -1.06937E+03 -2.45817E+03 -2.94009E+03  1.99279E+02 -5.82077E+03  3.57052E+03 -6.40893E+03
  5.73064E+03 -3.96746E+03  7.43642E+03 -7.89106E+01  5.78506E+03  5.20542E+03  1.42441E+03  6.83728E+03
 -2.58986E+03  6.14668E+03 -3.34107E+03  2.29026E+03 -2.90717E+03 -1.29736E+03 -1.69421E+02 -1.29855E+02
 -2.23485E+02  3.02093E+02 -1.30343E+03  2.13897E+03 -2.59543E+03  1.11825E+03 -4.27180E+03 -4.85646E+02
 -2.65846E+03 -4.20821E+03  1.15159E+03 -5.51296E+03  3.13041E+03 -4.50994E+03  4.11719E+03 -1.80417E+03
  4.81344E+03  2.83188E+03  2.39896E+03  4.66887E+03 -1.47858E+03  5.69600E+03 -3.32311E+03  2.91775E+03
 -5.11952E+03  3.51527E+02 -3.84955E+03 -3.09392E+03 -5.20833E+02 -3.64979E+03  1.87653E+03 -3.17978E+03
  3.27700E+03 -1.70118E+03  2.15165E+03  1.19765E+03  5.26658E+02  1.84065E+03  9.45383E+02  7.91827E+02
  1.18564E+03  1.18601E+03  1.35268E+03  1.52710E+03  1.21217E+03  2.07444E+03  1.62961E+03  2.15911E+03
 -1.43847E+03  3.43321E+03 -2.79938E+03  4.52760E+03 -3.96710E+03  1.21386E+03 -5.38987E+03 -7.08190E+02
 -2.76733E+03 -4.93627E+03  8.35547E+02 -5.55251E+03  2.35036E+03 -3.41057E+03  3.96533E+03 -7.79781E+02
  2.92331E+03  2.07075E+03  3.09940E+02  2.96539E+03 -6.71197E+02  1.50842E+03 -1.33453E+03 -8.96971E+02
 -3.45349E+02 -1.74061E+03  1.44704E+03 -2.21517E+03  2.33392E+03 -7.17377E+02  1.79567E+03 -6.55755E+01
  8.05398E+02  4.20232E+02  1.13390E+03 -1.78866E+02 -3.93312E+02  6.94910E+02  1.01893E+03 -6.36991E+02
  3.34198E+02  7.46426E+01  2.30885E+03  4.94637E+02  1.08351E+03  2.26189E+03 -5.21663E+02  3.25943E+03
 -2.04846E+03  9.33682E+02 -2.96223E+03  2.73400E+02 -2.60268E+03 -8.49312E+02 -9.99817E+02 -1.75629E+03
  5.09164E+02 -1.63323E+03  1.07161E+03 -1.18466E+03  8.89974E+02  1.54883E+03 -9.22339E+02  1.16833E+03
 -1.69346E+03  1.50954E+03 -1.83695E+03 -1.03623E+03 -3.51076E+02 -2.52872E+03  5.61041E+02 -1.77187E+03
  9.54454E+02 -6.56352E+02  7.80135E+02  2.69306E+02  1.05912E+03  2.45368E+01 -1.91404E+02  1.62233E+03
 -5.59102E+02  1.45887E+02 -9.39663E+02 -6.49353E+02  8.22631E+02 -1.32554E+03  2.20952E+03 -1.01516E+03
  2.03375E+03  5.44979E+02  3.16319E+03  6.77169E+02  1.37771E+03  2.64583E+03 -4.16665E+02  2.54185E+03
 -1.24514E+03  5.25894E+02 -1.92836E+03 -3.18210E+02 -1.24400E+03 -1.52619E+03  3.35401E+00 -7.31150E+02
  2.05528E+03 -9.71420E+02  5.73950E+02  1.64069E+03  3.02990E+02  1.65514E+03 -1.35545E+02  1.11551E+03
 -8.19620E+02  1.47608E+03 -5.84734E+02 -3.69447E+02 -8.65114E+01  8.61902E+02 -7.14694E+02  7.37593E+02
 -4.58062E+02  1.21794E+03 -1.96168E+03  6.68377E+02 -2.05560E+03  1.73566E+02 -3.30257E+03 -1.00082E+03
 -1.30832E+03 -2.86076E+03  5.23213E+02 -3.39402E+03  1.52405E+03 -2.92595E+03  3.43916E+03 -1.68456E+03
  3.07865E+03  9.95250E+01  1.95643E+03  1.77315E+03 -8.20891E+02  1.38762E+03 -5.95479E+02  2.22981E+03
 -1.86585E+03  7.69399E+02 -7.19456E+02  2.22265E+02 -2.38690E+01  1.12104E+02 -6.35159E+02 -1.01797E+02
 -4.37839E+02  2.09267E+02 -1.32057E+03 -8.26264E+02 -3.26701E+02 -4.42884E+02 -2.44330E+02 -9.43047E+02
  1.31572E+03 -4.98216E+02  6.76090E+02  3.03075E+02  1.90157E+03  1.32600E+03 -3.20950E+02  1.91183E+03
 -1.39710E+03  2.95721E+03 -1.88245E+03  1.40621E+03 -2.40578E+03 -2.27602E+01 -1.73719E+03 -2.03827E+03
 -9.30467E+02 -2.26613E+03  5.78711E+02 -1.51419E+03  7.80578E+02 -9.86119E+02  1.03335E+03  5.54662E+02
  1.07992E+03  3.78409E+02 -6.57284E+01  1.18933E+03 -5.10004E+02  3.77355E+02  4.79482E+02 -8.04333E+02
  2.60973E+02 -1.13782E+02  5.02582E+02  7.40298E+02  1.60856E+02  7.08586E+02 -4.94754E+01  1.11565E+03
 -8.83122E+02  7.25368E+02 -9.76187E+02 -8.02872E+01 -1.54947E+03 -5.40440E+02 -1.97419E+02 -1.42771E+03
  1.10519E+03 -8.01829E+02  1.19869E+03  8.59719E+01  8.62197E+02 -3.83946E+02  8.82640E+02  1.50264E+03
  5.12738E+02  6.24368E+02 -4.31920E+02  9.06436E+02 -5.00284E+02  5.80444E+02 -9.07143E+01 -8.16544E+01
  5.09928E+02 -5.64519E+01 -7.62541E+02 -2.89827E+02 -5.88050E+02  3.13977E+02 -9.67273E+02 -4.53445E+02
 -7.33486E+02 -2.49371E+02 -1.21646E+01 -1.17359E+03  9.25950E+02 -1.82993E+03  8.70671E+02 -3.66073E+02
  5.24021E+02  1.39446E+02 -3.00836E+02 -1.68803E+02 -2.65088E+02  8.49616E+02 -5.65024E+02  1.04196E+03
