 $NMID ID='MM_0lb_SNR400_9hz_g50_73.RAW', FMTDAT='(8E13.5)'
 TRAMP=1., VOLUME=1. $END
  3.10184E+05 -5.55443E+02  3.37984E+05  2.50261E+05  8.51666E+04  3.37829E+05 -1.33068E+05  2.52361E+05
 -1.89809E+05  8.36148E+04 -1.12714E+05 -3.19409E+04  1.63022E+02 -5.05455E+04  5.50406E+04 -6.60592E+02
  3.48279E+04  5.27964E+04 -1.76968E+04  7.62003E+04 -6.08940E+04  6.41485E+04 -8.48786E+04  3.28641E+04
 -8.19446E+04 -1.12910E+04 -5.83589E+04 -5.18037E+04 -1.50776E+04 -7.04722E+04  2.75859E+04 -4.70243E+04
  4.09738E+04  4.21406E+03  1.66073E+04  4.87479E+04 -3.45592E+04  4.82012E+04 -6.83160E+04 -1.52378E+02
 -5.53823E+04 -5.83382E+04 -6.74995E+03 -7.89166E+04  3.45389E+04 -5.67509E+04  4.99284E+04 -1.87448E+04
  4.45128E+04  1.16050E+04  3.29365E+04  2.75075E+04  1.57835E+04  3.04242E+04 -5.72011E+03  2.73122E+04
 -2.29718E+04  1.20898E+04 -1.78879E+04 -5.69105E+03  7.32587E+03 -7.87310E+03  2.30968E+04  1.39181E+04
  6.93919E+03  3.76895E+04 -3.36341E+04  3.71055E+04 -6.56851E+04  2.23452E+03 -5.91221E+04 -4.41213E+04
 -1.24160E+04 -6.60284E+04  4.16868E+04 -4.75222E+04  6.14304E+04 -1.98557E+03  3.68753E+04  3.42577E+04
 -5.52951E+03  3.99178E+04 -3.21834E+04  1.86622E+04 -3.28765E+04 -3.50021E+03 -1.95430E+04 -1.19251E+04
 -9.57712E+03 -1.49834E+04 -6.43723E+02 -1.99911E+04  8.19237E+03 -2.24618E+04  1.66417E+04 -1.22416E+04
  9.76294E+03  6.21277E+03 -1.06709E+04  1.20373E+04 -2.28265E+04 -6.86122E+03 -8.68137E+03 -3.77299E+04
  2.55834E+04 -4.74474E+04  5.21019E+04 -2.10448E+04  4.88930E+04  2.09299E+04  1.70406E+04  4.68521E+04
 -1.69543E+04  3.57659E+04 -2.80932E+04  3.35217E+03 -1.19506E+04 -2.99156E+04  2.14799E+04 -3.69371E+04
  4.48985E+04 -1.15929E+04  4.00339E+04  2.49498E+04  2.12276E+04  5.10463E+04 -8.18548E+03  5.53523E+04
 -3.54302E+04  3.77171E+04 -4.68153E+04  1.13215E+04 -4.78238E+04 -1.74400E+04 -2.67966E+04 -4.14737E+04
  7.84769E+03 -4.24141E+04  3.45398E+04 -1.70763E+04  3.22742E+04  1.14420E+04  4.83741E+03  2.06511E+04
 -1.39880E+04  8.86321E+03 -1.12042E+04 -7.25358E+03  6.40855E+03 -1.08915E+04  1.90067E+04  5.30489E+03
  1.46264E+04  2.31924E+04 -5.30497E+03  2.68388E+04 -2.32159E+04  1.33988E+04 -3.13922E+04 -2.91168E+03
 -2.56965E+04 -1.80635E+04 -1.18425E+04 -2.41209E+04  4.64995E+03 -2.54895E+04  2.01509E+04 -2.27681E+04
  3.21065E+04 -1.44401E+04  3.79734E+04  4.80707E+03  2.70125E+04  2.39427E+04  4.62073E+03  4.08377E+04
 -1.95237E+04  3.31681E+04 -3.02071E+04  1.12708E+04 -2.28623E+04 -1.01862E+04 -5.14010E+03 -1.27132E+04
  5.76854E+02 -1.29412E+03 -7.51504E+03  8.69184E+03 -1.99256E+04  5.78642E+03 -1.97874E+04 -9.13612E+03
 -1.10944E+04 -2.41324E+04  5.93685E+03 -2.79661E+04  1.95719E+04 -1.91574E+04  2.29131E+04 -2.06876E+03
  1.46991E+04  1.56743E+04 -9.49277E+02  2.23598E+04 -1.69030E+04  1.29981E+04 -2.37325E+04 -4.05469E+03
 -1.79435E+04 -2.14708E+04 -2.07304E+03 -2.92243E+04  1.33708E+04 -2.30801E+04  2.20316E+04 -1.19745E+04
  2.26712E+04  8.35234E+01  1.60269E+04  5.60301E+03  8.76465E+03  1.47151E+03  1.12155E+04 -2.63300E+03
  2.27467E+04  3.89219E+03  2.49497E+04  1.87194E+04  1.75633E+04  3.79465E+04 -2.47326E+03  4.44825E+04
 -2.41011E+04  3.68296E+04 -4.26910E+04  1.94929E+04 -4.52576E+04 -3.12476E+03 -3.66596E+04 -2.60362E+04
 -1.43955E+04 -3.72276E+04  1.32889E+04 -3.23949E+04  2.77839E+04 -1.49994E+04  2.33415E+04  7.40793E+03
  7.54411E+03  1.86733E+04 -1.12424E+04  1.61925E+04 -1.98660E+04  3.22779E+03 -1.51085E+04 -1.22009E+04
  2.59272E+02 -1.95061E+04  1.07616E+04 -1.50849E+04  1.33436E+04 -7.39720E+02  3.67207E+03  8.82898E+03
 -8.57729E+03  3.70836E+03 -9.74539E+03 -6.98689E+03 -2.04676E+03 -1.77186E+04  1.15292E+04 -2.03201E+04
  2.29886E+04 -1.08364E+04  2.63519E+04  3.21159E+03  2.26337E+04  1.86305E+04  1.05445E+04  2.95159E+04
 -5.62518E+03  3.14955E+04 -1.94232E+04  1.92249E+04 -2.29184E+04  4.17092E+03 -1.54358E+04 -6.49282E+03
 -5.76897E+03 -7.63612E+03 -8.69945E+02  2.41605E+02 -3.15978E+03  4.25077E+03 -7.19332E+03  5.20940E+03
 -1.44425E+04 -2.01805E+02 -1.41539E+04 -1.19473E+04 -5.96734E+03 -1.87824E+04  6.34313E+03 -1.57060E+04
  1.35390E+04 -6.29627E+03  8.02321E+03  3.32595E+03 -2.78895E+02  5.93202E+03 -7.85500E+03  1.87557E+02
 -7.26705E+03 -1.09100E+04 -1.17796E+03 -1.58728E+04  8.97608E+03 -1.56294E+04  1.99474E+04 -8.27894E+03
  2.39982E+04  2.84450E+03  1.68471E+04  1.49790E+04  3.28649E+03  1.95120E+04 -9.76950E+03  1.49204E+04
 -1.31488E+04  4.38060E+03 -7.11622E+03 -2.98879E+03  3.18911E+03 -4.98604E+03  7.70607E+03 -1.27790E+03
  7.74907E+03  6.77878E+03  9.56516E+02  1.30709E+04 -9.29248E+03  1.23731E+04 -1.64269E+04  2.50112E+03
 -1.10401E+04 -8.66696E+03  5.36684E+02 -1.42542E+04  8.16344E+03 -7.27113E+03  9.41889E+03  3.66151E+03
  2.95919E+03  1.04462E+04 -8.43620E+03  1.12713E+04 -1.28357E+04  5.47361E+03 -1.39838E+04 -4.48215E+03
 -8.37621E+03 -1.68564E+04  3.43462E+03 -1.80334E+04  1.57521E+04 -9.63950E+03  1.67713E+04  2.09644E+03
  9.34782E+03  1.30635E+04 -1.35086E+03  1.58763E+04 -1.15299E+04  9.15163E+03 -1.34518E+04 -6.39520E+02
 -1.11291E+04 -1.04896E+04 -1.24502E+03 -1.20645E+04  7.21155E+03 -9.96477E+03  8.07240E+03 -3.52616E+03
  4.30026E+03  2.01402E+03 -3.99723E+02  1.99140E+03 -5.22668E+02 -2.77219E+03  2.74713E+03 -7.58802E+03
  1.13422E+04 -5.23090E+03  1.60477E+04  5.08272E+02  1.55914E+04  1.12970E+04  1.02321E+04  2.11421E+04
 -4.73967E+03  2.47390E+04 -1.89189E+04  1.82665E+04 -2.51570E+04  4.22491E+03 -2.06385E+04 -9.22023E+03
 -9.82380E+03 -1.67852E+04 -1.62468E+02 -1.41874E+04  5.40357E+03 -8.28886E+03  5.02929E+03 -5.37684E+03
  3.82640E+03 -2.92759E+03  4.19317E+03 -3.18740E+03  6.05065E+03 -4.14083E+03  8.35207E+03 -2.03887E+03
  1.11925E+04  2.26442E+03  5.79057E+03  9.22266E+03 -1.27105E+03  1.12743E+04 -1.12567E+04  8.80258E+03
 -1.58354E+04 -1.94719E+03 -9.50401E+03 -1.04337E+04 -9.77511E+02 -1.58586E+04  8.75864E+03 -1.60907E+04
  1.62833E+04 -8.77878E+03  1.93298E+04  2.95638E+03  1.42009E+04  1.41163E+04  2.29447E+03  1.73928E+04
 -7.70326E+03  1.42553E+04 -1.05913E+04  4.92544E+03 -6.36297E+03 -2.09497E+03 -3.25772E+03 -2.88093E+03
 -1.90417E+03  1.01205E+02 -1.63123E+03  1.95508E+03 -6.00695E+03  2.76390E+03 -9.94919E+03 -1.38920E+03
 -7.62623E+03 -1.04521E+04 -7.26750E+02 -1.50652E+04  9.11227E+03 -1.34671E+04  1.47038E+04 -4.29508E+03
  1.44230E+04  7.48405E+03  6.11804E+03  1.33720E+04 -2.95884E+03  1.44737E+04 -1.07565E+04  8.24577E+03
 -1.42505E+04  9.99015E+02 -1.06647E+04 -9.76439E+03 -1.15696E+03 -1.29491E+04  5.87388E+03 -9.41128E+03
  9.31559E+03 -3.26671E+03  6.13163E+03  2.51470E+03  3.41819E+03  4.34881E+03  7.91287E+02  1.85778E+03
  3.36361E+03  1.18875E+03  3.99872E+03  1.85700E+03  3.59160E+03  4.93265E+03  4.57360E+03  8.11417E+03
 -3.42151E+03  1.17747E+04 -1.00268E+04  1.22392E+04 -1.56993E+04  3.05974E+03 -1.60805E+04 -6.38407E+03
 -7.58629E+03 -1.53502E+04  2.03831E+03 -1.64320E+04  9.36154E+03 -1.09575E+04  1.29863E+04 -2.93021E+03
  9.89333E+03  5.40763E+03  2.49167E+03  8.30240E+03 -4.75580E+03  5.54865E+03 -6.61944E+03 -1.61197E+03
 -2.54403E+03 -6.04494E+03  3.54567E+03 -6.36224E+03  5.57231E+03 -3.14543E+03  6.15775E+03  1.50194E+03
  4.21389E+03  2.97488E+03  1.37864E+03  1.92301E+03 -1.62245E+03  2.40508E+03  1.06920E+03 -1.04223E+03
  2.15748E+03 -2.30134E+03  6.66088E+03  1.70215E+03  2.90686E+03  8.13885E+03 -1.38355E+03  1.04089E+04
 -7.28144E+03  6.88454E+03 -1.00663E+04  1.68263E+03 -7.76655E+03 -3.28308E+03 -3.72605E+03 -6.74942E+03
  8.17232E+02 -6.01355E+03  3.43866E+03 -2.84835E+03  2.94511E+03  2.76447E+03 -2.12067E+03  5.63101E+03
 -6.10699E+03  3.26211E+03 -7.72034E+03 -3.82176E+03 -4.12109E+03 -8.45333E+03  8.48930E+02 -8.63101E+03
  4.96525E+03 -5.78743E+03  5.70793E+03 -4.78374E+02  4.56574E+03  3.32212E+03  6.88090E+02  4.76705E+03
 -3.17758E+03  7.89451E+02 -3.74586E+03 -3.24930E+03  1.16270E+03 -6.09817E+03  7.21114E+03 -5.18819E+03
  9.16423E+03  1.04389E+03  1.02079E+04  6.73850E+03  3.06560E+03  1.00606E+04 -3.59052E+03  9.67565E+03
 -7.89854E+03  4.23648E+03 -8.61533E+03 -2.02945E+03 -4.10798E+03 -6.63976E+03  1.79190E+03 -5.36960E+03
  6.36284E+03 -3.89694E+03  6.02127E+03  2.51726E+03  1.12355E+03  5.61438E+03 -6.27168E+02  4.21841E+03
 -2.60884E+03  3.24571E+03 -2.52251E+03  5.14442E+02 -1.25002E+03  1.25570E+03 -1.60300E+03  1.71634E+03
 -2.34180E+03  3.45520E+03 -6.48829E+03  3.38054E+03 -1.01690E+04  6.12102E+02 -1.13753E+04 -6.45329E+03
 -5.90690E+03 -1.36694E+04  3.13067E+03 -1.60690E+04  9.55931E+03 -1.21590E+04  1.49742E+04 -4.78407E+03
  1.30583E+04  2.77186E+03  8.77834E+03  8.69137E+03  1.04137E+03  1.05747E+04 -3.65597E+03  8.42251E+03
 -6.27806E+03  2.84508E+03 -3.84642E+03 -9.41235E+02 -1.23153E+03 -5.02722E+02 -8.30423E+02  1.21025E+02
 -2.42159E+03  3.81851E+02 -2.36419E+03 -3.92974E+02  1.52463E+02 -2.54841E+03  4.18416E+02 -3.68932E+03
  5.10136E+03 -3.48727E+03  6.12326E+03 -7.84435E+02  5.97334E+03  5.25100E+03  3.24878E+03  1.01848E+04
 -5.31042E+03  1.23879E+04 -1.06772E+04  6.70160E+03 -1.29652E+04 -1.21806E+03 -9.92117E+03 -7.36951E+03
 -3.61318E+03 -1.09423E+04  2.57041E+03 -9.58126E+03  6.65064E+03 -5.35205E+03  7.27337E+03  1.06008E+03
  4.03769E+03  3.81702E+03 -9.16564E+02  2.95211E+03 -1.44153E+03 -3.80435E+02 -3.02243E+02 -2.73680E+03
  3.11683E+03 -1.60835E+03  4.07324E+03  1.10028E+03  2.60826E+03  4.29423E+03 -5.71520E+02  4.72945E+03
 -4.77817E+03  5.75011E+03 -6.76227E+03  3.37662E+00 -5.85541E+03 -5.04898E+03 -4.29623E+01 -8.64286E+03
  5.45266E+03 -7.56489E+03  8.18903E+03 -2.05901E+03  8.47917E+03  8.59964E+02  3.97308E+03  6.56442E+03
  7.86709E+02  7.01534E+03 -3.36703E+03  5.56905E+03 -4.15389E+03  3.03337E+03 -3.44197E+03 -8.38934E+01
 -1.95207E+03 -3.02881E+02 -1.82703E+03  3.65697E+02 -3.55191E+03  1.77123E+03 -4.80363E+03 -1.54896E+03
 -6.15579E+03 -3.50040E+03 -1.11861E+03 -6.43736E+03  3.24241E+03 -7.64813E+03  6.64836E+03 -4.72663E+03
  6.95371E+03  8.30716E+02  3.88175E+03  4.91534E+03 -1.13786E+03  7.69079E+03 -6.15358E+03  4.80120E+03
