 $NMID ID='MM_0lb_SNR400_17hz_g45_95.RAW', FMTDAT='(8E13.5)'
 TRAMP=1., VOLUME=1. $END
  3.09761E+05  4.11822E+02  3.37480E+05  2.50434E+05  8.40873E+04  3.37644E+05 -1.32177E+05  2.50402E+05
 -1.89876E+05  8.25077E+04 -1.11199E+05 -3.28954E+04  1.88954E+03 -4.99342E+04  5.35957E+04  3.51461E+01
  3.46089E+04  5.23573E+04 -1.66018E+04  7.52639E+04 -6.02582E+04  6.33460E+04 -8.37957E+04  3.18915E+04
 -8.01589E+04 -1.09842E+04 -5.67988E+04 -5.07870E+04 -1.49113E+04 -6.89347E+04  2.64205E+04 -4.49636E+04
  3.93020E+04  3.45714E+03  1.57059E+04  4.66169E+04 -3.41783E+04  4.61427E+04 -6.60548E+04  1.94366E+01
 -5.28972E+04 -5.61969E+04 -6.67169E+03 -7.55582E+04  3.33559E+04 -5.34565E+04  4.68183E+04 -1.67015E+04
  4.22534E+04  1.07570E+04  3.14050E+04  2.41545E+04  1.58386E+04  2.81617E+04 -5.03720E+03  2.69311E+04
 -2.18177E+04  1.28880E+04 -1.86288E+04 -4.56185E+03  4.48377E+03 -7.54524E+03  2.14812E+04  1.09518E+04
  7.35353E+03  3.39970E+04 -3.09852E+04  3.44440E+04 -6.20342E+04  2.37086E+03 -5.60918E+04 -4.22816E+04
 -1.23353E+04 -6.14602E+04  3.80507E+04 -4.40878E+04  5.58987E+04 -1.82114E+03  3.27806E+04  3.08161E+04
 -6.12917E+03  3.37556E+04 -2.86800E+04  1.40492E+04 -2.78950E+04 -5.18836E+03 -1.51666E+04 -9.98492E+03
 -7.90126E+03 -1.19262E+04 -8.38635E+02 -1.72146E+04  7.04836E+03 -2.29747E+04  1.48979E+04 -1.40233E+04
  1.24634E+04  4.69014E+03 -6.28149E+03  1.36947E+04 -1.98132E+04 -3.11662E+03 -7.83814E+03 -3.10918E+04
  2.15680E+04 -4.14798E+04  4.56574E+04 -1.90718E+04  4.23764E+04  1.82383E+04  1.45453E+04  4.26946E+04
 -1.54695E+04  3.15431E+04 -2.39249E+04  1.11185E+03 -8.68132E+03 -2.64743E+04  2.04472E+04 -3.17106E+04
  3.87280E+04 -7.62202E+03  3.23267E+04  2.27249E+04  1.61891E+04  4.41041E+04 -7.25809E+03  4.64437E+04
 -2.93280E+04  3.03040E+04 -3.88147E+04  8.92399E+03 -3.90801E+04 -1.57739E+04 -2.16372E+04 -3.54547E+04
  6.83431E+03 -3.50878E+04  3.02984E+04 -1.32613E+04  2.72906E+04  1.07456E+04  3.21892E+03  1.77422E+04
 -1.29293E+04  7.33028E+03 -9.48637E+03 -8.27702E+03  6.30303E+03 -1.03173E+04  1.77497E+04  6.62560E+03
  1.28488E+04  2.21460E+04 -6.35411E+03  2.40718E+04 -2.17064E+04  9.52704E+03 -2.59065E+04 -5.87821E+03
 -1.75146E+04 -1.67835E+04 -6.66598E+03 -1.78663E+04  4.28639E+03 -1.61180E+04  1.34621E+04 -1.47987E+04
  2.20130E+04 -1.21031E+04  2.93135E+04  1.03693E+03  2.15436E+04  1.77410E+04  4.26086E+03  3.31660E+04
 -1.59704E+04  2.82641E+04 -2.65663E+04  9.38416E+03 -1.99814E+04 -1.04214E+04 -3.83094E+03 -1.36684E+04
  2.91342E+03 -4.01531E+03 -3.40659E+03  5.74489E+03 -1.38658E+04  5.48159E+03 -1.42547E+04 -5.14303E+03
 -8.89849E+03 -1.65427E+04  4.86961E+03 -2.01360E+04  1.32054E+04 -1.46422E+04  1.55275E+04 -1.23723E+03
  1.02280E+04  1.10106E+04 -1.22895E+03  1.67153E+04 -1.07995E+04  1.01311E+04 -1.61056E+04 -3.12130E+03
 -1.23916E+04 -1.51807E+04 -1.91796E+03 -2.05580E+04  9.10253E+03 -1.59395E+04  1.69475E+04 -8.22936E+03
  1.54940E+04  4.14162E+02  1.14509E+04  3.75294E+03  5.79951E+03  6.46569E+02  8.33809E+03 -1.83603E+03
  1.48387E+04  2.54731E+03  1.59563E+04  1.29816E+04  9.87668E+03  2.60852E+04 -3.19030E+03  2.78985E+04
 -1.69067E+04  2.14140E+04 -2.68130E+04  1.11008E+04 -2.71464E+04 -1.40922E+03 -2.28476E+04 -1.54157E+04
 -1.04368E+04 -2.26231E+04  7.66766E+03 -2.09292E+04  1.73611E+04 -1.09327E+04  1.66763E+04  3.68312E+03
  6.88331E+03  1.17909E+04 -7.75776E+03  1.15106E+04 -1.38651E+04  2.11417E+03 -9.93365E+03 -8.55737E+03
 -3.78784E+02 -1.28665E+04  6.91755E+03 -9.64013E+03  8.06549E+03 -1.05831E+03  1.62934E+03  5.07795E+03
 -6.64932E+03  1.42802E+03 -4.52432E+03 -4.71339E+03  1.37563E+02 -1.11278E+04  8.73046E+03 -1.05482E+04
  1.34478E+04 -5.07411E+03  1.41324E+04  2.72667E+03  1.14111E+04  1.09270E+04  5.84066E+03  1.53414E+04
 -1.79898E+03  1.75641E+04 -1.05811E+04  1.07418E+04 -1.25158E+04  2.79042E+03 -9.13905E+03 -2.17817E+03
 -5.25473E+03 -4.44333E+03 -2.44239E+02  1.71223E+03 -2.08291E+03  2.22988E+03 -3.78138E+03  3.45943E+03
 -8.97850E+03 -2.43494E+02 -9.48384E+03 -7.98299E+03 -3.87672E+03 -1.22888E+04  3.63680E+03 -9.34086E+03
  7.87258E+03 -4.39400E+03  5.30534E+03  2.09310E+03  5.21542E+02  3.07932E+03 -3.99236E+03  5.35992E+02
 -3.78843E+03 -5.22800E+03 -9.38851E+02 -8.43393E+03  4.68288E+03 -8.70850E+03  1.04118E+04 -4.18385E+03
  1.27723E+04  9.11827E+02  9.07552E+03  7.08056E+03  1.98719E+03  9.63357E+03 -5.66524E+03  9.31512E+03
 -7.62146E+03  3.16337E+03 -3.67279E+03 -1.53289E+03  8.76209E+02 -2.54497E+03  4.91775E+03 -9.33333E+02
  4.89130E+03  3.99103E+03  1.02838E+03  7.21100E+03 -4.97068E+03  6.56552E+03 -8.86586E+03  1.74271E+03
 -6.12943E+03 -4.23301E+03  2.05246E+02 -7.07941E+03  4.22907E+03 -3.30543E+03  3.99021E+03  7.97306E+02
  2.81489E+02  4.22386E+03 -4.42539E+03  5.20834E+03 -5.71139E+03  3.09961E+03 -5.25583E+03 -1.45451E+03
 -3.62366E+03 -7.02802E+03  1.09595E+03 -7.68469E+03  6.97527E+03 -5.51197E+03  8.05527E+03  1.34797E+03
  5.22146E+03  6.10842E+03  5.78181E+01  8.01818E+03 -5.70382E+03  4.69675E+03 -5.70354E+03 -5.11487E+02
 -6.17239E+03 -5.54984E+03 -1.61094E+03 -5.14101E+03  2.48105E+03 -5.38685E+03  2.93419E+03 -2.66015E+03
  2.93724E+03 -1.57767E+02  5.81422E+01  8.85047E+02 -8.46747E+01  7.23621E+01  7.32972E+02 -2.51599E+03
  4.68725E+03 -8.64632E+02  5.81488E+03  4.20908E+02  6.57545E+03  3.67098E+03  5.59957E+03  8.14946E+03
 -1.59108E+03  9.88788E+03 -8.20220E+03  7.62161E+03 -1.12788E+04  1.49728E+03 -8.79306E+03 -3.00956E+03
 -5.28588E+03 -7.38609E+03  3.12998E+02 -6.06154E+03  2.53415E+03 -2.08217E+03  1.69854E+03 -2.15451E+03
  1.39152E+03 -1.41495E+03  2.27207E+03 -2.40423E+03  3.44133E+03 -1.29477E+03  4.81725E+03  4.52126E+02
  4.93055E+03  8.78106E+02  1.32688E+03  4.35862E+03 -2.32611E+03  3.71393E+03 -5.11050E+03  2.81239E+03
 -5.70587E+03 -1.02104E+03 -2.29020E+03 -3.84696E+03  3.31756E+02 -5.92430E+03  3.71238E+03 -5.70642E+03
  5.91836E+03 -3.59246E+03  7.94809E+03  7.39786E+02  5.59458E+03  4.90902E+03  1.82247E+03  6.65285E+03
 -2.77291E+03  7.12085E+03 -3.90572E+03  1.69121E+03 -2.27235E+03 -1.25478E+03 -1.00441E+03 -2.46546E+02
 -1.08167E+03  6.62952E+02 -8.91001E+02  2.21462E+03 -2.66949E+03  1.03803E+03 -4.71569E+03 -7.38902E+02
 -2.04672E+03 -4.38715E+03  1.12446E+03 -5.07639E+03  2.86953E+03 -5.36762E+03  5.50737E+03 -1.43843E+03
  4.69152E+03  2.53374E+03  2.21132E+03  3.96717E+03 -9.44382E+02  5.09896E+03 -3.38268E+03  2.80077E+03
 -4.98063E+03  3.44863E+02 -4.04824E+03 -2.75240E+03 -4.34915E+02 -4.33922E+03  1.87212E+03 -3.20021E+03
  2.98654E+03 -1.53783E+03  2.68410E+03  8.05143E+01  4.35521E+02  2.08351E+03  7.47497E+02  6.00619E+02
  1.89014E+03 -2.16379E+02  1.61166E+03  1.42856E+03  1.13606E+03  2.21751E+03  1.34491E+03  2.31834E+03
 -1.64019E+03  3.99337E+03 -3.46175E+03  4.20198E+03 -3.83838E+03  1.49930E+03 -5.16107E+03 -8.50787E+02
 -1.68617E+03 -4.60822E+03  7.24408E+02 -6.09386E+03  2.54781E+03 -3.12220E+03  3.91644E+03 -9.86255E+02
  3.64693E+03  2.18301E+03  3.21714E+02  3.42963E+03 -6.72273E+02  1.05709E+03 -1.57760E+03 -3.68047E+02
 -5.97974E+02 -1.43628E+03  2.05554E+03 -2.16259E+03  1.55470E+03 -1.51556E+03  1.43930E+03  1.59512E+02
  1.08090E+03  4.45208E+02  8.63803E+02 -4.02221E+02 -1.10230E+03  1.03730E+03  1.43525E+03  3.54174E+02
  1.50903E+02  2.75963E+02  1.96124E+03  7.52604E+02  3.26107E+02  2.40958E+03  2.72937E+01  3.50113E+03
 -1.96035E+03  1.20817E+03 -2.90663E+03  8.32361E+02 -2.58171E+03 -1.28650E+03 -1.09049E+02 -1.10147E+03
  9.86338E+02 -1.46336E+03  8.46809E+02 -9.25722E+02  9.04792E+02  1.38300E+03 -6.52471E+02  1.13098E+03
 -1.83003E+03  1.51807E+03 -2.26470E+03 -1.51678E+03 -1.00377E+03 -2.78754E+03  3.39998E+02 -2.09622E+03
  7.46827E+02 -1.07065E+03  8.14335E+02  6.43457E+02  1.74367E+03 -1.96392E+02  4.06166E+02  1.39128E+03
 -9.37894E+02  3.55791E+02 -1.26557E+03  2.75175E+01  6.59117E+02 -1.01272E+03  2.08301E+03 -1.12168E+03
  2.17894E+03 -7.52869E+01  3.54295E+03  7.18236E+02  1.95302E+03  2.05221E+03  2.60851E+02  2.46469E+03
 -1.82399E+03  5.33566E+02 -1.41746E+03 -1.40775E+02 -1.20726E+03 -1.70141E+03 -7.60831E+01 -8.57423E+02
  1.74702E+03 -8.61134E+02  1.37658E+03  6.78372E+02  3.70750E+02  1.84964E+03  5.17446E+01  1.77526E+03
 -4.11033E+02  1.26516E+03 -8.30492E+02  2.92614E+02  1.78977E+02  4.28203E+02 -3.71137E+02  6.47021E+02
 -9.36036E+02  7.70499E+02 -2.18912E+03  3.45091E+02 -1.66330E+03 -1.25328E+02 -3.05966E+03 -1.31089E+03
 -1.02069E+03 -3.29423E+03  5.15662E+02 -4.14521E+03  1.27970E+03 -3.04310E+03  3.53475E+03 -1.48742E+03
  3.27279E+03 -3.93378E+01  2.08358E+03  1.91711E+03 -3.10467E+02  1.82247E+03 -8.64991E+02  6.46902E+02
 -1.82330E+03  1.02951E+03 -7.34027E+02 -1.39242E+02 -8.93721E+02 -4.53291E+02 -2.23785E+01  3.00142E+02
 -1.73897E+03  3.62956E+02 -6.22883E+02 -2.60813E+01  1.10410E+01 -9.03496E+02 -2.19140E+02 -7.66074E+02
  1.46470E+03 -2.18374E+02  2.52168E+02  7.91380E+01  1.48989E+03  1.43287E+03 -1.54368E+02  1.38695E+03
 -1.09132E+03  2.37736E+03 -2.31842E+03  1.51921E+03 -3.22404E+03 -2.80752E+02 -2.12501E+03 -1.80488E+03
 -1.29772E+03 -1.54319E+03  4.06153E+02 -1.55153E+03  1.13080E+03 -1.40501E+03  9.49452E+02  2.11236E+02
  8.99883E+02  9.69128E+02  1.50604E+02  5.69682E+02 -1.64585E+02  1.08740E+02  4.19133E+02  3.44520E+02
  8.88219E+02 -3.29304E+02  3.22668E+02  2.88953E+02  3.05933E+02  1.24696E+03  1.06919E+02  6.22205E+02
 -8.75916E+02  4.69533E+02 -1.00521E+03  4.96555E+01 -1.13201E+03 -6.87639E+02 -2.21823E+02 -2.56970E+03
  1.15050E+03 -1.53291E+03  9.41503E+02 -3.12651E+02  1.77834E+03 -7.56783E+02  9.54810E+02  9.31815E+02
  1.66129E+02  1.55432E+03 -9.87173E+01  4.88590E+02 -7.73542E+02  7.72646E+02 -1.65490E+01  4.64913E+02
 -3.06948E+02 -6.16383E+01 -8.52394E+01  2.34305E+02 -1.11510E+03  2.26409E+00 -9.74808E+02 -9.11656E+01
 -1.20070E+03  7.53653E+01 -4.17628E+02 -1.10134E+03  1.25298E+03 -2.37417E+03  1.12835E+03 -1.10923E+03
  1.44789E+03  4.05132E+02  6.58541E+01  1.04443E+02 -6.35474E+02  1.67678E+03 -1.00742E+03  5.28917E+02
