 $NMID ID='MM_0lb_SNR400_20hz_g50_17.RAW', FMTDAT='(8E13.5)'
 TRAMP=1., VOLUME=1. $END
  3.09608E+05  8.36198E+02  3.37106E+05  2.50199E+05  8.44016E+04  3.37222E+05 -1.32440E+05  2.50134E+05
 -1.89583E+05  8.24380E+04 -1.10490E+05 -3.25554E+04  1.42497E+03 -5.01409E+04  5.40030E+04  3.95079E+02
  3.50065E+04  5.31064E+04 -1.72809E+04  7.47763E+04 -6.00994E+04  6.28599E+04 -8.29202E+04  3.15160E+04
 -7.90348E+04 -1.07595E+04 -5.61700E+04 -5.06071E+04 -1.50401E+04 -6.82521E+04  2.68641E+04 -4.44128E+04
  3.93968E+04  3.58011E+03  1.58656E+04  4.64196E+04 -3.41152E+04  4.58661E+04 -6.55100E+04 -5.04350E+02
 -5.20645E+04 -5.56913E+04 -5.79457E+03 -7.47027E+04  3.32364E+04 -5.28949E+04  4.56777E+04 -1.56531E+04
  4.13610E+04  1.09978E+04  3.05628E+04  2.46232E+04  1.56575E+04  2.83354E+04 -4.48376E+03  2.67963E+04
 -2.18930E+04  1.29301E+04 -1.92651E+04 -4.30401E+03  4.79099E+03 -7.87019E+03  2.12233E+04  1.07375E+04
  8.15288E+03  3.30618E+04 -3.02669E+04  3.40045E+04 -6.08744E+04  2.56923E+03 -5.52822E+04 -4.11177E+04
 -1.23540E+04 -6.02072E+04  3.82100E+04 -4.36150E+04  5.48497E+04 -2.24367E+03  3.15301E+04  3.01098E+04
 -7.11321E+03  3.25312E+04 -2.83591E+04  1.27678E+04 -2.74419E+04 -5.58859E+03 -1.44913E+04 -9.87280E+03
 -7.10963E+03 -1.10549E+04 -1.42304E+03 -1.63393E+04  6.71734E+03 -2.19392E+04  1.46871E+04 -1.39299E+04
  1.25337E+04  4.26497E+03 -5.72246E+03  1.31130E+04 -1.94551E+04 -2.17611E+03 -8.15683E+03 -3.03536E+04
  2.05325E+04 -4.03189E+04  4.46017E+04 -1.90685E+04  4.19436E+04  1.83792E+04  1.35589E+04  4.15964E+04
 -1.52616E+04  3.04759E+04 -2.29651E+04  9.14378E+02 -8.45447E+03 -2.60623E+04  2.07423E+04 -3.07514E+04
  3.73279E+04 -7.22981E+03  3.09448E+04  2.25041E+04  1.49045E+04  4.15294E+04 -7.64818E+03  4.38166E+04
 -2.81624E+04  2.94166E+04 -3.66140E+04  8.32051E+03 -3.78374E+04 -1.39397E+04 -2.10269E+04 -3.32476E+04
  6.91649E+03 -3.35162E+04  2.86832E+04 -1.22712E+04  2.66385E+04  1.11893E+04  3.18987E+03  1.79673E+04
 -1.30567E+04  7.10199E+03 -9.60786E+03 -7.94205E+03  5.95180E+03 -1.00127E+04  1.72782E+04  6.12612E+03
  1.24652E+04  2.15312E+04 -6.56811E+03  2.26920E+04 -2.13249E+04  8.17084E+03 -2.48176E+04 -6.63988E+03
 -1.59445E+04 -1.66256E+04 -4.84465E+03 -1.59072E+04  3.87077E+03 -1.38609E+04  1.17881E+04 -1.36004E+04
  2.05774E+04 -1.17512E+04  2.68535E+04  7.16034E+02  2.12593E+04  1.59492E+04  4.55762E+03  3.20123E+04
 -1.59552E+04  2.68120E+04 -2.52220E+04  9.30354E+03 -1.93317E+04 -1.05080E+04 -3.97716E+03 -1.41114E+04
  2.95907E+03 -4.22289E+03 -2.17249E+03  5.04687E+03 -1.25712E+04  5.50984E+03 -1.26852E+04 -4.43579E+03
 -8.10227E+03 -1.47799E+04  4.58525E+03 -1.80264E+04  1.20941E+04 -1.36437E+04  1.41644E+04 -1.24466E+03
  7.94810E+03  1.04608E+04 -1.40134E+03  1.50277E+04 -9.78185E+03  8.17700E+03 -1.46695E+04 -3.26688E+03
 -1.11834E+04 -1.35200E+04 -1.67225E+03 -1.82973E+04  8.03779E+03 -1.45701E+04  1.59177E+04 -7.24998E+03
  1.39496E+04  6.51297E+02  9.80863E+03  3.67098E+03  4.98127E+03  1.50066E+03  7.73205E+03 -9.58025E+02
  1.29746E+04  2.95701E+03  1.40755E+04  1.21029E+04  8.19291E+03  2.27008E+04 -3.33942E+03  2.48720E+04
 -1.49139E+04  1.84614E+04 -2.29731E+04  8.09625E+03 -2.34454E+04 -1.48330E+03 -1.99811E+04 -1.32580E+04
 -9.51488E+03 -1.89068E+04  6.41365E+03 -1.81652E+04  1.55497E+04 -1.05451E+04  1.48542E+04  3.58124E+03
  6.50622E+03  1.03496E+04 -6.25587E+03  1.04238E+04 -1.30337E+04  2.45878E+03 -1.00197E+04 -7.06493E+03
 -2.73253E+02 -1.19566E+04  5.67861E+03 -9.14465E+03  7.79087E+03 -9.69831E+02  1.35856E+03  5.01516E+03
 -5.27653E+03  5.18035E+02 -2.98965E+03 -4.17941E+03  1.14415E+03 -9.22831E+03  7.36862E+03 -9.25234E+03
  1.18383E+04 -4.04777E+03  1.00215E+04  2.74272E+03  8.86004E+03  8.51605E+03  4.08831E+03  1.23448E+04
 -1.14672E+03  1.53822E+04 -8.18045E+03  9.50734E+03 -9.80068E+03  2.66813E+03 -7.92006E+03 -1.39830E+03
 -3.87576E+03 -2.73276E+03 -9.67105E+02  1.93882E+03 -1.78296E+03  1.47378E+03 -3.26206E+03  3.42881E+03
 -7.44599E+03  3.17279E+01 -8.06589E+03 -6.85418E+03 -3.27358E+03 -1.05564E+04  3.06578E+03 -7.79755E+03
  6.53302E+03 -3.23837E+03  4.77380E+03  1.78641E+03  4.62123E+02  3.02032E+03 -3.29869E+03 -2.43138E+02
 -2.78284E+03 -4.55283E+03 -6.26359E+02 -5.98640E+03  3.33461E+03 -7.60709E+03  9.38544E+03 -3.54678E+03
  1.04720E+04  3.80217E+02  8.13465E+03  5.01509E+03  1.59908E+03  7.74886E+03 -4.67788E+03  7.29882E+03
 -6.78701E+03  2.92716E+03 -3.55486E+03 -9.84468E+02  1.24279E+03 -1.47455E+03  4.59219E+03 -8.11330E+02
  4.03688E+03  3.08080E+03  1.21604E+03  6.05786E+03 -3.79938E+03  5.61893E+03 -7.03346E+03  1.57534E+03
 -4.15056E+03 -2.91492E+03  2.41689E+02 -5.96050E+03  3.81454E+03 -2.95043E+03  3.01344E+03  1.05711E+03
  3.21692E+02  3.26732E+03 -3.54419E+03  3.84589E+03 -4.21615E+03  2.13672E+03 -3.75151E+03 -9.72004E+02
 -2.40400E+03 -4.84112E+03  9.87223E+02 -6.17017E+03  5.06167E+03 -4.09334E+03  5.63713E+03  6.77628E+02
  3.84750E+03  4.65014E+03  5.36187E+02  6.11770E+03 -4.71919E+03  4.16449E+03 -4.00114E+03 -6.11886E+02
 -5.34162E+03 -4.54090E+03 -2.00562E+03 -4.43507E+03  1.98251E+03 -4.02107E+03  1.91564E+03 -3.32929E+03
  2.39515E+03  8.46709E+01  1.23274E+02  1.46106E+03  1.15532E+03  3.86745E+02 -4.18486E+00 -1.96711E+03
  2.73168E+03 -6.29612E+02  4.83296E+03  5.94765E+02  4.95759E+03  2.30925E+03  4.77700E+03  6.02620E+03
 -6.16317E+02  6.53870E+03 -6.53688E+03  5.49537E+03 -9.09767E+03  1.23794E+03 -6.87489E+03 -1.81924E+03
 -3.75331E+03 -6.01154E+03 -5.69186E+02 -4.17989E+03  1.49560E+03 -1.83612E+03  1.21702E+03 -1.55765E+03
  1.37175E+03 -9.60005E+02  2.03979E+03 -2.58357E+03  3.55894E+03 -1.06930E+03  2.90160E+03  7.81547E+02
  4.15798E+03  1.03213E+03  5.65359E+02  2.88299E+03 -1.52386E+03  2.29807E+03 -4.16885E+03  1.94724E+03
 -4.32262E+03 -7.91279E+02 -1.19539E+03 -2.74057E+03  9.62146E+02 -4.18949E+03  2.46929E+03 -4.75945E+03
  4.62635E+03 -2.90529E+03  5.72378E+03  2.08098E+02  3.56857E+03  3.44646E+03  9.89639E+02  5.10560E+03
 -1.36179E+03  4.29361E+03 -2.78674E+03  2.25279E+03 -1.80255E+03 -1.86857E+03 -5.30945E+02 -8.81994E+02
 -6.28758E+02 -1.69440E+02 -8.14787E+02  2.42741E+03 -2.32032E+03  1.03297E+03 -3.58731E+03 -4.57885E+02
 -1.06153E+03 -3.95320E+03  8.64106E+02 -3.60873E+03  2.29650E+03 -3.96318E+03  3.20995E+03 -9.52541E+02
  2.82301E+03  1.76582E+03  1.21812E+03  2.78183E+03 -8.32856E+02  3.48118E+03 -1.23496E+03  2.21307E+03
 -2.72948E+03  6.76524E+02 -2.85659E+03 -1.66005E+03  2.85095E+02 -3.02600E+03  1.34658E+03 -2.33980E+03
  2.21970E+03 -4.43596E+02  1.31602E+03  2.16240E+02  1.65305E+02  1.51292E+03  1.44087E+03 -1.60461E+02
  1.30141E+03  3.34423E+02  8.32115E+02  5.25123E+02  6.23418E+02  1.86533E+03  7.28019E+02  1.38469E+03
 -5.50245E+02  2.21497E+03 -1.38847E+03  3.01477E+03 -1.69515E+03  1.18875E+03 -2.78383E+03 -4.61842E+02
 -1.17639E+03 -3.24734E+03  7.50474E+02 -4.12881E+03  1.12206E+03 -1.93508E+03  2.60373E+03 -6.95643E+02
  2.05686E+03  1.53007E+03 -3.10971E+01  1.66613E+03 -3.12621E+02  5.94156E+02 -4.04143E+02  3.04203E+01
 -5.28722E+02 -1.61652E+03  9.63089E+02 -8.91949E+02  7.69609E+02 -8.08181E+02  3.80196E+02  4.95270E+02
  9.91103E+02 -2.94167E+02  6.45370E+02 -1.94664E+02 -8.86936E+02  2.92164E+02  1.79944E+03 -2.66681E+02
  2.68102E+02 -2.69631E+02  1.43247E+03  5.67878E+02 -8.42688E+02  1.97974E+03  1.27940E+02  2.16999E+03
 -1.15145E+03  8.20384E+02 -1.50494E+03  2.35180E+02 -2.11313E+03 -3.39311E+02 -7.94207E+01 -3.92629E+02
 -7.04544E+01 -9.68393E+02  2.76167E+02 -9.65068E+02  8.36179E+02  1.11803E+03 -5.03281E+02  1.04457E+03
 -7.70392E+02  1.43001E+02 -3.07653E+02 -1.58325E+03 -7.21248E+02 -1.61841E+03  1.71749E+02 -1.20504E+03
  2.19672E+02 -4.50379E+01  2.90645E+02  4.38539E+02  8.27774E+02 -2.85529E+02  5.62188E+02  5.23290E+02
 -4.62270E+02  1.86806E+02 -6.24686E+02  1.24972E+02  8.39582E+02 -2.92380E+02  1.52224E+03 -2.55879E+02
  1.19118E+03  5.93235E+02  2.30125E+03 -1.72769E+02  8.11112E+02  1.45627E+03 -1.62281E+00  1.38461E+03
 -1.31925E+03  2.05286E+02 -8.76066E+02 -3.60870E+02 -1.24155E+02 -7.32518E+02  2.74101E+02  8.44856E+01
  1.22924E+03 -6.91985E+02  2.49065E+02  7.26263E+02 -4.01127E+01  9.64899E+02  8.81634E+02  6.52976E+02
 -4.21897E+02  1.35534E+03 -1.58629E+02 -5.79125E+00  1.13664E+02  4.95344E+02  1.17146E+01  8.55580E+02
 -5.54269E+02  1.57033E+03 -1.63970E+03 -3.93495E+02 -1.71554E+03 -1.28808E+02 -2.18033E+03 -6.16553E+02
 -8.88802E+02 -1.56895E+03  3.09901E+02 -1.88244E+03  1.70714E+02 -2.07328E+03  1.37836E+03 -1.05823E+03
  2.15629E+03  2.03364E+02  6.58591E+02  1.14801E+03 -1.24912E+03  1.11576E+03 -2.95078E+02  5.21638E+02
 -5.15031E+02  5.99947E+02  6.76412E+01 -5.11927E+02 -2.24310E+02  3.93552E+02 -3.49858E+02 -9.18990E+00
 -1.09218E+03 -1.81479E+02 -8.50437E+02  4.23054E+02  2.86653E+02 -5.26205E+02 -3.91781E+02 -8.96403E+02
  1.20105E+03 -6.18103E+02 -7.98829E+01  1.38965E+02  1.20473E+03  3.72074E+02 -3.23046E+02  9.55419E+02
 -7.89496E+02  1.60187E+03 -1.24850E+03  9.20801E+02 -7.11919E+02 -5.17210E+02 -4.02338E+02 -6.91646E+02
 -4.34034E+02 -1.16472E+03  5.68107E+01 -1.29276E+03  6.29695E+02 -3.95434E+02  5.38788E+02  3.29441E+02
 -1.13028E+02 -1.04486E+02  9.41597E+02  1.85514E+01 -6.29402E+01 -8.59040E+01 -4.20541E+01 -8.79818E+01
  2.45483E+02 -6.31334E+01 -2.83384E+02  4.59975E+02 -7.52454E+01  1.76313E+02  5.11135E+01 -2.06461E+02
 -2.11477E+02  6.37704E+02 -1.70185E+02  4.28630E+02 -1.21112E+02 -5.26806E+02  6.69695E+02 -1.15097E+03
  7.22813E+01 -2.52356E+02  2.57922E+02  1.12019E+01  5.65377E+02 -6.49348E+02  3.36116E+02  4.40573E+02
  1.61613E+02  2.35461E+02 -1.93545E+02  6.63022E+02  8.63374E+01  7.90997E+02 -4.64391E+02  2.62622E+02
  4.52626E+01 -1.24703E+02 -3.89003E+01 -5.86694E+01 -4.22267E+02  1.00578E+02 -3.39566E+02  9.57363E+01
 -6.71818E+02  5.49241E+02 -7.18424E+02 -5.81565E+02  4.27171E+02 -1.13690E+03  5.30214E+02 -1.43536E+02
  7.62809E+01  5.65094E+01 -2.76720E+02  5.08595E+02  5.11267E+02  4.71426E+02  1.63165E+02  9.83554E+01
