 $NMID ID='MM_0lb_SNR400_18hz_g60_30.RAW', FMTDAT='(8E13.5)'
 TRAMP=1., VOLUME=1. $END
  3.10070E+05 -5.04092E+01  3.37186E+05  2.50374E+05  8.46526E+04  3.38470E+05 -1.32678E+05  2.50870E+05
 -1.89941E+05  8.27274E+04 -1.11568E+05 -3.30197E+04  5.22419E+02 -5.06321E+04  5.40519E+04  7.63498E+01
  3.47081E+04  5.28282E+04 -1.65201E+04  7.58010E+04 -6.10720E+04  6.31650E+04 -8.39018E+04  3.18958E+04
 -8.01709E+04 -1.13062E+04 -5.69694E+04 -5.13889E+04 -1.49430E+04 -6.96165E+04  2.68122E+04 -4.57928E+04
  3.96318E+04  4.16097E+03  1.52698E+04  4.77604E+04 -3.43651E+04  4.69246E+04 -6.61363E+04 -1.74006E+02
 -5.33290E+04 -5.68677E+04 -6.46895E+03 -7.64585E+04  3.34921E+04 -5.42600E+04  4.71845E+04 -1.71747E+04
  4.29165E+04  1.14479E+04  3.10103E+04  2.48926E+04  1.56140E+04  2.93877E+04 -5.73076E+03  2.76677E+04
 -2.22307E+04  1.19473E+04 -1.83245E+04 -4.64358E+03  5.48792E+03 -7.73388E+03  2.15614E+04  1.18264E+04
  7.00212E+03  3.50829E+04 -3.13470E+04  3.45558E+04 -6.22465E+04  1.72617E+03 -5.67649E+04 -4.20230E+04
 -1.25106E+04 -6.16479E+04  3.99655E+04 -4.50838E+04  5.72934E+04 -2.00807E+03  3.31639E+04  3.14414E+04
 -6.18275E+03  3.55609E+04 -2.98368E+04  1.51568E+04 -2.92988E+04 -4.61727E+03 -1.56940E+04 -1.05915E+04
 -7.85968E+03 -1.22507E+04 -9.94214E+02 -1.80260E+04  7.35891E+03 -2.28478E+04  1.48700E+04 -1.38045E+04
  1.14355E+04  4.96941E+03 -7.89773E+03  1.26469E+04 -2.07487E+04 -3.67188E+03 -7.92733E+03 -3.22576E+04
  2.25189E+04 -4.20396E+04  4.67908E+04 -1.89920E+04  4.34048E+04  1.85464E+04  1.48968E+04  4.27822E+04
 -1.55284E+04  3.24003E+04 -2.48393E+04  1.52084E+03 -9.66598E+03 -2.76767E+04  2.10708E+04 -3.28546E+04
  4.04934E+04 -8.28945E+03  3.41684E+04  2.31363E+04  1.69218E+04  4.49332E+04 -8.55014E+03  4.81818E+04
 -3.05398E+04  3.22824E+04 -4.03746E+04  8.84447E+03 -4.09309E+04 -1.57861E+04 -2.21429E+04 -3.62909E+04
  6.72104E+03 -3.63950E+04  3.03504E+04 -1.38279E+04  2.86620E+04  1.08375E+04  3.49703E+03  1.87213E+04
 -1.32019E+04  8.07787E+03 -1.01095E+04 -7.61227E+03  5.93330E+03 -1.03259E+04  1.81057E+04  5.71819E+03
  1.28992E+04  2.17179E+04 -6.76991E+03  2.43305E+04 -2.22332E+04  1.10434E+04 -2.68630E+04 -5.46913E+03
 -1.86365E+04 -1.70761E+04 -7.08653E+03 -1.89090E+04  3.87569E+03 -1.74912E+04  1.43848E+04 -1.61793E+04
  2.37417E+04 -1.22209E+04  3.02695E+04  2.66158E+03  2.21038E+04  1.78069E+04  4.29470E+03  3.39914E+04
 -1.68798E+04  2.87583E+04 -2.74165E+04  1.02506E+04 -1.99464E+04 -1.01934E+04 -4.02120E+03 -1.39111E+04
  1.99107E+03 -3.54473E+03 -4.23721E+03  5.78799E+03 -1.49543E+04  4.81147E+03 -1.45935E+04 -5.81867E+03
 -9.70119E+03 -1.73564E+04  4.61849E+03 -2.10827E+04  1.41622E+04 -1.52107E+04  1.67208E+04 -1.29450E+03
  9.95168E+03  1.18976E+04 -1.33770E+03  1.73739E+04 -1.19044E+04  9.01107E+03 -1.71199E+04 -4.16771E+03
 -1.20391E+04 -1.60666E+04 -1.38507E+03 -2.07918E+04  9.53410E+03 -1.68071E+04  1.76496E+04 -8.16796E+03
  1.59003E+04  5.99373E+02  1.17640E+04  3.84688E+03  5.86864E+03  5.86944E+02  8.70136E+03 -1.47671E+03
  1.57598E+04  2.63286E+03  1.68312E+04  1.42200E+04  1.07369E+04  2.71234E+04 -3.63700E+03  2.98775E+04
 -1.70315E+04  2.32427E+04 -2.78883E+04  1.19864E+04 -2.85188E+04 -2.01820E+03 -2.43516E+04 -1.65538E+04
 -1.08647E+04 -2.33304E+04  8.22276E+03 -2.18477E+04  1.91259E+04 -1.13188E+04  1.74382E+04  4.45493E+03
  7.04375E+03  1.31181E+04 -8.07382E+03  1.16823E+04 -1.48256E+04  2.62304E+03 -1.15045E+04 -8.84122E+03
 -5.16018E+02 -1.34824E+04  6.90081E+03 -1.06321E+04  9.17878E+03 -1.53116E+03  1.56667E+03  5.12706E+03
 -6.70408E+03  1.83086E+03 -5.11317E+03 -4.61961E+03  1.45868E+02 -1.15498E+04  8.20458E+03 -1.14853E+04
  1.34292E+04 -5.93963E+03  1.43339E+04  3.39717E+03  1.27130E+04  1.11478E+04  5.78819E+03  1.65535E+04
 -2.49841E+03  1.82862E+04 -1.12844E+04  1.19558E+04 -1.32800E+04  3.25031E+03 -9.44353E+03 -2.39964E+03
 -4.80142E+03 -3.51389E+03 -6.04963E+02  7.76251E+02 -2.52403E+03  2.39300E+03 -3.39931E+03  3.91743E+03
 -9.12439E+03 -7.93231E+02 -1.03391E+04 -7.82545E+03 -4.15253E+03 -1.24239E+04  4.28250E+03 -9.44669E+03
  8.00871E+03 -3.93129E+03  5.51068E+03  2.43577E+03  1.04896E+02  3.43312E+03 -4.14540E+03 -3.39793E+02
 -3.92560E+03 -5.59333E+03 -3.89705E+02 -8.69884E+03  4.47494E+03 -8.99656E+03  1.11388E+04 -4.57884E+03
  1.32331E+04  7.76637E+02  9.22476E+03  7.23592E+03  1.51498E+03  9.95609E+03 -6.72489E+03  8.61261E+03
 -7.83279E+03  2.50345E+03 -4.08190E+03 -1.12709E+03  1.25388E+03 -1.97731E+03  5.41940E+03 -9.28237E+02
  4.70350E+03  3.87718E+03  1.33089E+03  6.93700E+03 -4.80943E+03  7.20660E+03 -8.76052E+03  2.63861E+03
 -5.03105E+03 -3.67658E+03  5.25562E+02 -7.15563E+03  4.36242E+03 -3.56110E+03  3.99212E+03  1.36175E+03
  4.83864E+02  4.04712E+03 -5.14065E+03  4.84455E+03 -5.14336E+03  2.61329E+03 -5.71702E+03 -1.45459E+03
 -3.50236E+03 -6.98738E+03  1.52584E+03 -7.98646E+03  7.07702E+03 -5.37335E+03  7.75460E+03  1.14040E+03
  5.65051E+03  6.08029E+03 -4.07725E+01  7.89196E+03 -5.87440E+03  4.15434E+03 -5.91512E+03 -6.24112E+02
 -6.33294E+03 -5.56144E+03 -1.73778E+03 -5.41103E+03  2.74857E+03 -5.01460E+03  4.04691E+03 -2.75119E+03
  2.86642E+03  5.86060E+02 -7.49567E+02  1.43665E+03  4.94835E+02 -3.64160E+02  1.19936E+02 -2.57118E+03
  4.98698E+03 -1.13039E+03  6.80364E+03  9.91441E+02  6.13295E+03  3.33439E+03  5.66742E+03  7.89921E+03
 -1.38839E+03  9.86209E+03 -8.65989E+03  7.47689E+03 -1.19198E+04  1.22236E+03 -9.12663E+03 -3.17432E+03
 -4.79799E+03 -7.20482E+03 -7.04828E+02 -5.91581E+03  2.36084E+03 -2.85474E+03  1.83599E+03 -2.34654E+03
  1.32821E+03 -1.55318E+03  2.01978E+03 -2.37975E+03  3.40475E+03 -1.72154E+03  4.45643E+03  3.30193E+02
  5.23094E+03  1.60265E+03  1.75126E+03  3.41774E+03 -1.79305E+03  3.18264E+03 -4.85166E+03  3.11612E+03
 -6.02879E+03 -1.32544E+03 -2.60750E+03 -4.42891E+03  6.77566E+02 -6.08910E+03  3.51036E+03 -5.62611E+03
  5.91158E+03 -3.71206E+03  7.71234E+03  3.95195E+02  5.65952E+03  5.32887E+03  1.24788E+03  6.88388E+03
 -2.50436E+03  6.49833E+03 -4.13999E+03  2.29174E+03 -2.65878E+03 -5.92553E+02 -6.96834E+02 -7.53949E+02
 -3.50917E+02  5.31393E+02 -1.30004E+03  2.08971E+03 -3.04454E+03  1.35516E+03 -4.05335E+03 -1.54598E+02
 -1.83633E+03 -4.78889E+03  1.75311E+03 -5.29728E+03  3.16037E+03 -4.97707E+03  4.60107E+03 -4.81171E+02
  4.44862E+03  2.93836E+03  1.85190E+03  4.18646E+03 -1.33574E+03  5.15150E+03 -3.11535E+03  3.34353E+03
 -3.84874E+03  7.97517E+02 -4.38659E+03 -2.58304E+03 -1.72550E+02 -4.23547E+03  2.30654E+03 -3.13269E+03
  3.04101E+03 -1.30333E+03  1.86655E+03  2.93643E+02  6.82802E+02  1.45514E+03  6.50033E+02  4.46230E+02
  1.51231E+03  5.40517E+02  4.22253E+02  1.28320E+03  1.22138E+03  2.14116E+03  9.84877E+02  2.44142E+03
 -1.39811E+03  3.36575E+03 -3.20053E+03  4.52643E+03 -2.98417E+03  1.45613E+03 -4.27284E+03 -5.77072E+02
 -1.84249E+03 -4.35571E+03  9.44730E+02 -5.37317E+03  2.00606E+03 -2.25246E+03  3.17481E+03 -7.40046E+02
  2.80832E+03  2.14076E+03  9.21843E+02  2.24236E+03 -8.92621E+02  1.62617E+03 -1.21212E+03 -5.37722E+02
 -5.33191E+02 -1.96447E+03  1.19336E+03 -2.15330E+03  1.80098E+03 -9.67242E+02  1.44292E+03  5.03016E+01
  5.22712E+02  2.36525E+01  1.01116E+03 -1.93882E+01 -4.42853E+02  8.24505E+02  1.29323E+03 -5.05028E+02
 -2.20983E+02 -3.59781E+02  1.75456E+03  5.22951E+02 -8.57174E+01  2.56236E+03 -3.48080E+00  2.94366E+03
 -2.11869E+03  1.20277E+03 -2.02794E+03 -1.07979E+02 -2.15317E+03 -7.71800E+02 -2.23871E+02 -1.29913E+03
  7.84514E+02 -1.33733E+03  8.25073E+01 -1.19458E+03  3.88077E+02  1.12463E+03 -7.98156E+02  7.83944E+02
 -1.98631E+03  1.75242E+03 -1.40093E+03 -1.10562E+03 -8.12727E+02 -2.33727E+03  6.33413E+02 -1.59035E+03
  8.77924E+02 -7.95556E+02  1.07791E+03 -7.49728E+01  1.01816E+03 -9.39343E+01  8.24696E+02  1.48757E+03
 -3.05817E+02  7.14616E+01 -9.62031E+02 -7.58046E+02  4.92746E+02 -9.54437E+02  1.87071E+03 -1.13186E+03
  1.28878E+03  3.49398E+02  3.12155E+03  3.38124E+02  1.21247E+03  1.41537E+03 -6.03008E+02  1.70659E+03
 -1.79647E+03  1.13661E+02 -1.55876E+03  1.26796E+02 -5.16809E+02 -1.85655E+03  8.17335E+02 -8.22862E+02
  1.52182E+03 -6.41520E+02  9.42617E+02  5.95904E+02  3.02149E+02  1.60947E+03 -2.34745E+02  1.29857E+03
 -4.55496E+02  1.35174E+03 -7.92793E+02  5.07213E+02  7.32481E+02  7.63969E+02 -3.79004E+02  1.21647E+02
 -4.24691E+02  9.19045E+02 -1.95066E+03  9.22671E+02 -1.77035E+03  3.48815E+02 -2.34196E+03 -1.16936E+03
 -1.43313E+03 -2.31899E+03  9.80434E+02 -2.93945E+03  1.52353E+03 -2.91231E+03  3.00798E+03 -7.28647E+02
  2.18006E+03  3.08317E+02  9.32985E+02  2.12960E+03 -2.86857E+02  1.56719E+03 -8.35396E+02  1.68107E+03
 -6.70037E+02  1.27358E+03 -4.54146E+02 -5.20086E+01 -5.77437E+02  1.73582E+02 -5.13596E+02 -2.10711E+02
 -1.03682E+03 -2.21196E+02 -7.11059E+02  1.72399E+02  2.70823E+02 -6.23592E+02 -5.10989E+02 -5.72842E+02
  1.51073E+03 -4.03342E+02  5.43707E+02 -1.52229E+02  1.05928E+03  9.98622E+02 -8.45648E+02  1.38767E+03
 -1.43389E+03  2.90470E+03 -1.78054E+03  1.66875E+03 -2.38640E+03  1.51946E+02 -9.72803E+02 -1.30489E+03
 -5.62220E+02 -1.19518E+03  1.99608E+02 -8.92109E+02  7.08701E+02 -8.18936E+02  1.17239E+03  3.74556E+02
  1.03180E+03  2.53584E+02  5.28848E+01  4.68278E+02 -5.46568E+02  3.38658E+02 -1.75033E+02 -5.41846E+02
  5.00528E+02  1.45696E+02  1.96757E+02  3.18238E+02  2.47552E+02  5.93153E+02  6.45883E+02  2.53100E+02
 -8.25324E+02  2.61129E+02 -4.85923E+02  7.36127E+02 -7.65015E+02 -3.15900E+02  5.00949E+02 -1.31740E+03
  9.61664E+02 -1.02360E+03  4.93068E+02 -5.98266E+02  7.71954E+02 -1.23858E+03  3.75682E+02  1.00429E+03
  4.50423E+02  5.27918E+02  8.42304E+01  6.41780E+02 -4.55611E+02  4.69428E+02 -3.18387E+02 -4.55217E+01
 -5.94024E+01  6.56365E+01 -4.71490E+02  2.53277E+02 -1.25167E+03  3.19894E+02 -6.20052E+02  2.86530E+02
 -8.65766E+02  2.06973E+02  1.05159E+02 -1.37729E+03  7.40234E+02 -1.55022E+03  6.92212E+02 -6.64106E+01
  5.21335E+02  1.16685E+02 -3.43172E+02  6.37288E+02  2.24348E+02  8.14125E+02 -5.44277E+02  8.40078E+01
