 $NMID ID='MM_0lb_SNR400_13hz_g60_52.RAW', FMTDAT='(8E13.5)'
 TRAMP=1., VOLUME=1. $END
  3.10617E+05 -2.79817E+02  3.37844E+05  2.50876E+05  8.52558E+04  3.38299E+05 -1.32644E+05  2.51482E+05
 -1.90090E+05  8.36013E+04 -1.12228E+05 -3.24329E+04 -5.93193E-01 -5.04696E+04  5.41276E+04 -2.92968E+02
  3.50276E+04  5.23647E+04 -1.68069E+04  7.57535E+04 -6.06034E+04  6.38854E+04 -8.45170E+04  3.23878E+04
 -8.20078E+04 -1.09592E+04 -5.77829E+04 -5.21811E+04 -1.54587E+04 -7.03663E+04  2.77584E+04 -4.62162E+04
  4.06860E+04  4.16005E+03  1.63782E+04  4.83734E+04 -3.43542E+04  4.77212E+04 -6.79985E+04  4.14278E+01
 -5.41905E+04 -5.69266E+04 -6.92806E+03 -7.80600E+04  3.40203E+04 -5.61356E+04  4.90552E+04 -1.74502E+04
  4.45425E+04  1.13955E+04  3.28524E+04  2.56255E+04  1.59629E+04  2.96694E+04 -5.17709E+03  2.76682E+04
 -2.18816E+04  1.19537E+04 -1.84733E+04 -4.79154E+03  7.02249E+03 -7.14074E+03  2.23304E+04  1.31608E+04
  7.47167E+03  3.68210E+04 -3.28693E+04  3.61209E+04 -6.45766E+04  2.64754E+03 -5.87670E+04 -4.36975E+04
 -1.26867E+04 -6.48729E+04  3.98235E+04 -4.68475E+04  5.99521E+04 -2.47991E+03  3.59407E+04  3.36855E+04
 -5.76326E+03  3.77851E+04 -3.04074E+04  1.70127E+04 -3.18859E+04 -3.58183E+03 -1.84272E+04 -1.08279E+04
 -8.50772E+03 -1.41771E+04 -4.07248E+02 -1.88565E+04  7.96917E+03 -2.30581E+04  1.56702E+04 -1.27271E+04
  1.08535E+04  5.67461E+03 -9.86847E+03  1.31374E+04 -2.25425E+04 -5.08808E+03 -8.43443E+03 -3.59352E+04
  2.41987E+04 -4.49441E+04  5.10116E+04 -2.04875E+04  4.69171E+04  2.04097E+04  1.58541E+04  4.51086E+04
 -1.56706E+04  3.42036E+04 -2.59120E+04  2.41749E+03 -1.14258E+04 -2.85353E+04  2.14477E+04 -3.56483E+04
  4.24894E+04 -1.02692E+04  3.77724E+04  2.43756E+04  2.01602E+04  4.89359E+04 -7.66882E+03  5.33955E+04
 -3.35621E+04  3.55803E+04 -4.46908E+04  1.00772E+04 -4.49454E+04 -1.78713E+04 -2.47763E+04 -3.97402E+04
  7.85110E+03 -4.03136E+04  3.27930E+04 -1.55327E+04  3.12280E+04  1.09144E+04  4.36286E+03  1.98826E+04
 -1.36668E+04  8.67324E+03 -1.09433E+04 -7.62408E+03  6.03012E+03 -1.05967E+04  1.85085E+04  5.48223E+03
  1.38157E+04  2.23935E+04 -6.13308E+03  2.63114E+04 -2.19023E+04  1.25209E+04 -2.96957E+04 -4.86210E+03
 -2.32943E+04 -1.75920E+04 -1.01655E+04 -2.26343E+04  4.06404E+03 -2.25158E+04  1.82844E+04 -2.05584E+04
  2.88628E+04 -1.39661E+04  3.51939E+04  3.57644E+03  2.53539E+04  2.21437E+04  3.65843E+03  3.82207E+04
 -1.86540E+04  3.23661E+04 -2.87947E+04  1.12944E+04 -2.18199E+04 -1.02293E+04 -4.12175E+03 -1.31802E+04
  1.42625E+03 -2.91038E+03 -6.61956E+03  7.15287E+03 -1.86344E+04  5.61820E+03 -1.82753E+04 -8.33331E+03
 -1.11502E+04 -2.11170E+04  5.15573E+03 -2.51587E+04  1.72334E+04 -1.77148E+04  2.01129E+04 -1.95230E+03
  1.21932E+04  1.49547E+04 -1.31467E+03  2.09184E+04 -1.46525E+04  1.19856E+04 -2.07929E+04 -4.34432E+03
 -1.51017E+04 -1.83519E+04 -1.94344E+03 -2.56165E+04  1.15169E+04 -2.09942E+04  2.12615E+04 -1.04006E+04
  1.91381E+04 -3.31105E+02  1.43201E+04  4.74225E+03  7.12447E+03  1.19170E+03  1.14179E+04 -2.00834E+03
  1.89122E+04  3.02206E+03  2.17896E+04  1.64419E+04  1.48028E+04  3.38666E+04 -3.44832E+03  3.88680E+04
 -2.28391E+04  3.16451E+04 -3.62172E+04  1.62720E+04 -3.85440E+04 -3.15870E+03 -3.14453E+04 -2.23349E+04
 -1.27166E+04 -3.14852E+04  1.02555E+04 -2.77206E+04  2.40053E+04 -1.37404E+04  2.17918E+04  6.47802E+03
  6.86638E+03  1.61367E+04 -1.04829E+04  1.38820E+04 -1.75611E+04  2.52712E+03 -1.36125E+04 -1.15767E+04
  7.03911E+02 -1.76348E+04  8.72943E+03 -1.30804E+04  1.11800E+04 -1.49430E+03  2.75413E+03  7.67562E+03
 -8.09528E+03  3.69576E+03 -7.40037E+03 -6.38639E+03 -4.43024E+02 -1.53231E+04  1.03373E+04 -1.54716E+04
  1.89206E+04 -9.41070E+03  2.10262E+04  2.80051E+03  1.88577E+04  1.56804E+04  8.72831E+03  2.38028E+04
 -4.94934E+03  2.54498E+04 -1.69367E+04  1.54832E+04 -1.84708E+04  3.01104E+03 -1.25325E+04 -4.72806E+03
 -6.02288E+03 -6.37418E+03 -9.87717E+02  1.33049E+03 -2.60898E+03  2.96978E+03 -5.69819E+03  5.23793E+03
 -1.14457E+04 -1.84718E+03 -1.26858E+04 -9.98738E+03 -5.49319E+03 -1.71438E+04  4.63041E+03 -1.35797E+04
  1.00939E+04 -5.63289E+03  7.15157E+03  3.95140E+03  2.10755E+02  5.46899E+03 -6.00217E+03  5.99907E+01
 -6.16508E+03 -8.07992E+03 -1.17501E+03 -1.23097E+04  7.20323E+03 -1.33560E+04  1.56646E+04 -7.22728E+03
  1.92110E+04  1.75510E+03  1.39252E+04  1.11765E+04  2.80943E+03  1.51817E+04 -7.70093E+03  1.24589E+04
 -1.03326E+04  3.90993E+03 -5.55888E+03 -2.83854E+03  2.50340E+03 -3.15699E+03  6.29559E+03 -8.95944E+02
  6.26894E+03  6.48443E+03  1.44459E+03  1.05845E+04 -8.02763E+03  1.04619E+04 -1.24957E+04  1.99643E+03
 -8.13470E+03 -6.49874E+03  4.23267E+02 -1.16172E+04  7.56374E+03 -5.55186E+03  6.99849E+03  1.96683E+03
  1.12037E+03  7.26925E+03 -6.15000E+03  8.84129E+03 -1.07742E+04  4.34333E+03 -1.01971E+04 -3.71132E+03
 -5.35531E+03 -1.17689E+04  2.74205E+03 -1.31154E+04  1.12407E+04 -8.52888E+03  1.25348E+04  2.29139E+03
  7.71913E+03  1.03184E+04 -1.05281E+03  1.25851E+04 -9.49901E+03  6.37802E+03 -9.12501E+03 -6.02341E+02
 -8.30344E+03 -8.73431E+03 -1.02842E+03 -9.23209E+03  4.33157E+03 -7.59581E+03  6.01256E+03 -3.93611E+03
  4.58931E+03  7.78907E+02 -9.13444E+02  2.23800E+03 -3.98253E+02 -1.86421E+03  1.63672E+03 -5.07127E+03
  7.98446E+03 -2.49993E+03  1.10222E+04  1.65978E+03  1.07121E+04  8.23691E+03  7.42899E+03  1.50724E+04
 -3.11698E+03  1.73546E+04 -1.46153E+04  1.27651E+04 -1.83540E+04  2.67600E+03 -1.53672E+04 -6.72625E+03
 -7.85515E+03 -1.23010E+04 -1.42952E+02 -1.07910E+04  4.65679E+03 -5.80231E+03  3.49887E+03 -4.27871E+03
  2.86241E+03 -2.72950E+03  3.40827E+03 -3.63321E+03  4.99952E+03 -2.89087E+03  6.04602E+03 -6.80765E+02
  7.78689E+03  2.31992E+03  3.73077E+03  6.78840E+03 -2.36762E+03  7.12020E+03 -8.62566E+03  6.33745E+03
 -1.03326E+04 -1.29817E+03 -5.89797E+03 -6.80234E+03 -4.22460E+02 -1.11874E+04  6.17879E+03 -1.12255E+04
  1.10645E+04 -6.45452E+03  1.35140E+04  1.23647E+03  8.98691E+03  9.49119E+03  2.07226E+03  1.32564E+04
 -4.57031E+03  1.00692E+04 -7.49758E+03  3.73864E+03 -4.45669E+03 -1.58568E+03 -2.40487E+03 -1.70200E+03
 -8.20224E+02  1.92992E+02 -1.30308E+03  2.04975E+03 -4.82333E+03  1.02962E+03 -6.88872E+03 -1.27212E+03
 -4.43364E+03 -7.75647E+03  9.23249E+02 -1.01266E+04  5.79179E+03 -9.10677E+03  9.72454E+03 -2.96914E+03
  1.01331E+04  4.91690E+03  4.93995E+03  9.04157E+03 -2.13988E+03  1.02161E+04 -6.27143E+03  6.39349E+03
 -9.85241E+03  5.58872E+02 -6.84897E+03 -5.58745E+03 -3.20755E+02 -8.42964E+03  4.42161E+03 -5.91934E+03
  5.65442E+03 -2.44470E+03  4.82578E+03  7.20748E+02  1.48257E+03  2.48318E+03  1.12322E+03  1.08812E+03
  2.39949E+03  8.88592E+02  2.87258E+03  9.32355E+02  2.61365E+03  3.81389E+03  2.93906E+03  5.42926E+03
 -2.52807E+03  7.76861E+03 -5.87403E+03  7.81568E+03 -9.00651E+03  2.33119E+03 -1.05274E+04 -3.95942E+03
 -4.19391E+03 -9.29314E+03  1.50703E+03 -1.07565E+04  5.60232E+03 -6.26678E+03  7.53849E+03 -2.86331E+03
  6.23975E+03  3.74680E+03  1.72891E+03  5.49886E+03 -2.77338E+03  3.11630E+03 -3.12219E+03 -7.64195E+02
 -1.22024E+03 -3.90305E+03  2.24228E+03 -4.15945E+03  3.74115E+03 -2.22217E+03  4.03877E+03  8.17895E+02
  1.77042E+03  1.50618E+03  1.25389E+03  1.16937E+03 -6.90834E+02  1.54295E+03  1.83040E+03 -2.53067E+02
  1.24482E+03 -1.02886E+03  3.39555E+03  1.47762E+03  1.76070E+03  5.27005E+03 -5.85111E+02  6.59766E+03
 -4.10236E+03  4.11238E+03 -6.22866E+03  9.95361E+02 -4.59442E+03 -1.69362E+03 -1.86780E+03 -3.44876E+03
  7.09195E+02 -4.05520E+03  2.36582E+03 -2.27068E+03  2.51994E+03  2.13378E+03 -1.13318E+03  2.98654E+03
 -4.52743E+03  1.66883E+03 -4.56419E+03 -2.44502E+03 -2.59872E+03 -4.66739E+03  2.92221E+02 -5.12785E+03
  2.57361E+03 -3.10200E+03  3.29772E+03 -3.99805E+02  2.84281E+03  1.23437E+03  6.76298E+02  2.29261E+03
 -1.58606E+03  7.98872E+01 -2.48975E+03 -1.55239E+03  1.49506E+03 -3.86844E+03  4.10679E+03 -2.49347E+03
  4.95432E+03  5.49780E+02  6.01394E+03  3.42723E+03  1.99197E+03  5.78773E+03 -2.01817E+03  5.45320E+03
 -5.14914E+03  1.65626E+03 -4.30471E+03 -4.51086E+02 -2.33444E+03 -3.61013E+03  1.02947E+03 -2.47877E+03
  4.16511E+03 -1.64925E+03  2.27098E+03  1.37787E+03  1.36605E+03  3.38204E+03 -1.08526E+02  3.13430E+03
 -9.83171E+02  2.14968E+03 -1.34941E+03 -2.93153E+02 -3.76449E+02  1.41600E+03 -6.62401E+02  1.59022E+03
 -1.17436E+03  2.18826E+03 -4.47570E+03  1.59811E+03 -5.71707E+03 -4.84969E+01 -5.97876E+03 -3.84521E+03
 -2.83239E+03 -6.74163E+03  1.82443E+03 -7.51762E+03  4.80452E+03 -6.27890E+03  7.92505E+03 -2.15450E+03
  7.25648E+03  1.18594E+03  4.17862E+03  4.77422E+03 -2.25805E+02  5.57231E+03 -2.02009E+03  4.24998E+03
 -2.80786E+03  1.54187E+03 -1.21395E+03 -5.76802E+02 -7.64216E+02 -5.95512E+02 -6.21859E+02  6.60779E+02
 -1.18952E+03 -1.37897E+02 -1.25415E+03 -3.97740E+02  1.48719E+02 -1.10036E+03 -1.21042E+00 -1.96015E+03
  2.98075E+03 -1.72591E+03  3.28062E+03  3.57700E+02  3.52431E+03  2.91651E+03  4.19295E+02  5.22833E+03
 -2.30879E+03  5.90969E+03 -5.13691E+03  3.84989E+03 -5.93236E+03 -6.79483E+02 -4.85878E+03 -4.00095E+03
 -2.04812E+03 -5.49463E+03  1.26795E+03 -5.24340E+03  2.78414E+03 -2.36467E+03  3.13689E+03 -1.10816E+02
  1.74440E+03  2.11285E+03  8.69948E+01  1.31119E+03 -1.23954E+03 -4.54272E+02  3.16810E+02 -1.48647E+03
  1.99282E+03  1.12209E+02  1.52640E+03  1.60751E+02  9.96667E+02  1.43506E+03  1.90146E+02  2.56563E+03
 -2.44813E+03  2.28081E+03 -2.92396E+03  1.60851E+02 -2.87428E+03 -2.13951E+03  1.82663E+02 -4.35266E+03
  1.68195E+03 -3.46279E+03  4.10524E+03 -7.64140E+02  3.36263E+03  1.66174E+02  1.88404E+03  3.50410E+03
  8.21323E+02  3.19225E+03 -8.26105E+02  2.25829E+03 -1.57200E+03  1.53396E+03 -1.87762E+03  2.65196E+02
 -8.45934E+02  1.15105E+02 -1.24637E+03  7.07150E+01 -1.45077E+03  2.00910E+02 -2.36287E+03 -9.11506E+02
 -3.11452E+03 -7.89130E+02 -4.40178E+02 -3.33574E+03  7.88213E+02 -3.97660E+03  2.90213E+03 -2.43483E+03
  2.80093E+03  4.73488E+02  1.80135E+03  2.91648E+03  1.68701E+02  3.38004E+03 -2.61103E+03  2.34115E+03
