 $NMID ID='MM_0lb_SNR400_20hz_g55_14.RAW', FMTDAT='(8E13.5)'
 TRAMP=1., VOLUME=1. $END
  3.09420E+05  2.22287E+02  3.37539E+05  2.50797E+05  8.47161E+04  3.37449E+05 -1.32406E+05  2.50275E+05
 -1.90219E+05  8.29861E+04 -1.11318E+05 -3.24430E+04  1.52258E+03 -5.02477E+04  5.41369E+04  1.92928E+02
  3.52375E+04  5.24934E+04 -1.72219E+04  7.51246E+04 -6.04542E+04  6.26826E+04 -8.29500E+04  3.20750E+04
 -7.96088E+04 -1.14979E+04 -5.65304E+04 -5.00574E+04 -1.49463E+04 -6.88140E+04  2.59350E+04 -4.49315E+04
  3.86357E+04  4.04114E+03  1.55685E+04  4.73798E+04 -3.36345E+04  4.63797E+04 -6.52648E+04 -5.10379E+02
 -5.27297E+04 -5.58549E+04 -6.51970E+03 -7.55258E+04  3.34134E+04 -5.37786E+04  4.64271E+04 -1.65429E+04
  4.14598E+04  1.12575E+04  3.07023E+04  2.47724E+04  1.60307E+04  2.87175E+04 -4.68576E+03  2.70816E+04
 -2.16394E+04  1.29041E+04 -1.88411E+04 -3.57399E+03  4.47531E+03 -7.55000E+03  2.14033E+04  1.06835E+04
  7.07342E+03  3.29073E+04 -3.05650E+04  3.43827E+04 -6.10483E+04  2.18465E+03 -5.56671E+04 -4.13339E+04
 -1.24626E+04 -6.05267E+04  3.77693E+04 -4.31073E+04  5.52910E+04 -2.19147E+03  3.21950E+04  3.09424E+04
 -7.04458E+03  3.30272E+04 -2.84352E+04  1.32051E+04 -2.79439E+04 -5.44728E+03 -1.44730E+04 -9.91621E+03
 -6.80275E+03 -1.15002E+04 -9.47743E+02 -1.66010E+04  6.56333E+03 -2.26458E+04  1.51151E+04 -1.38326E+04
  1.22498E+04  4.40521E+03 -6.76066E+03  1.27613E+04 -1.90322E+04 -2.54508E+03 -8.25293E+03 -3.00328E+04
  2.08015E+04 -4.07149E+04  4.47217E+04 -1.86874E+04  4.22967E+04  1.86023E+04  1.43935E+04  4.16788E+04
 -1.46013E+04  3.05731E+04 -2.35625E+04  7.48812E+02 -7.88369E+03 -2.57871E+04  2.07283E+04 -3.14530E+04
  3.80816E+04 -7.25467E+03  3.13746E+04  2.25277E+04  1.54668E+04  4.26468E+04 -7.52046E+03  4.59119E+04
 -2.80941E+04  2.98202E+04 -3.76847E+04  8.43093E+03 -3.85942E+04 -1.51462E+04 -2.13719E+04 -3.42614E+04
  6.34111E+03 -3.47334E+04  2.92678E+04 -1.29575E+04  2.69696E+04  1.08753E+04  3.29869E+03  1.83101E+04
 -1.24780E+04  7.35262E+03 -9.28267E+03 -7.76653E+03  6.01019E+03 -1.01467E+04  1.70715E+04  6.44507E+03
  1.20919E+04  2.14019E+04 -6.70749E+03  2.35089E+04 -2.12483E+04  8.82751E+03 -2.52147E+04 -6.50562E+03
 -1.68183E+04 -1.60777E+04 -5.31559E+03 -1.65293E+04  4.02082E+03 -1.46902E+04  1.19047E+04 -1.43115E+04
  2.13612E+04 -1.19894E+04  2.72654E+04  3.93388E+02  2.11094E+04  1.64191E+04  4.27033E+03  3.21524E+04
 -1.53392E+04  2.75670E+04 -2.56312E+04  9.32583E+03 -1.91973E+04 -1.03514E+04 -4.34856E+03 -1.44582E+04
  2.76412E+03 -4.11916E+03 -3.05734E+03  5.29135E+03 -1.28063E+04  5.53565E+03 -1.32725E+04 -4.53136E+03
 -8.75119E+03 -1.53730E+04  4.26156E+03 -1.84964E+04  1.23304E+04 -1.39199E+04  1.45142E+04 -9.60713E+02
  8.17526E+03  1.04969E+04 -8.20652E+02  1.56327E+04 -1.04548E+04  8.54670E+03 -1.46057E+04 -3.26336E+03
 -1.09038E+04 -1.40244E+04 -9.42257E+02 -1.93314E+04  9.21540E+03 -1.54275E+04  1.61786E+04 -7.03952E+03
  1.40230E+04  7.80425E+02  1.01184E+04  4.07130E+03  4.70736E+03  6.12346E+02  7.66332E+03 -1.39043E+03
  1.35505E+04  2.26541E+03  1.48182E+04  1.23939E+04  8.82168E+03  2.46717E+04 -2.70328E+03  2.57931E+04
 -1.52616E+04  1.94041E+04 -2.37675E+04  9.08758E+03 -2.44668E+04 -1.60552E+03 -2.10827E+04 -1.32509E+04
 -9.95369E+03 -1.96039E+04  6.96094E+03 -1.86851E+04  1.63337E+04 -1.06453E+04  1.54887E+04  3.21722E+03
  6.23085E+03  1.06061E+04 -6.58569E+03  1.07187E+04 -1.28732E+04  3.10697E+03 -9.91638E+03 -7.81164E+03
  2.15029E+02 -1.23374E+04  6.08243E+03 -8.93396E+03  7.68108E+03 -1.54349E+03  1.55530E+03  4.63956E+03
 -6.05719E+03  1.36604E+03 -3.72449E+03 -4.23876E+03  5.97034E+02 -9.97275E+03  7.28507E+03 -1.00298E+04
  1.26132E+04 -4.24271E+03  1.17513E+04  2.94876E+03  9.41763E+03  8.74714E+03  4.51072E+03  1.31495E+04
 -1.39233E+03  1.51409E+04 -9.15360E+03  9.47452E+03 -1.08612E+04  2.50308E+03 -8.24961E+03 -2.43889E+03
 -4.26769E+03 -2.94435E+03 -4.85011E+02  1.39006E+03 -2.15615E+03  1.73720E+03 -3.49204E+03  3.70530E+03
 -7.73225E+03 -7.15562E+02 -7.80081E+03 -6.75546E+03 -3.22025E+03 -1.11786E+04  3.09257E+03 -8.20962E+03
  7.11464E+03 -3.13739E+03  4.88746E+03  2.19409E+03  7.78427E+02  3.08993E+03 -2.73182E+03 -5.17045E+02
 -2.85321E+03 -5.16746E+03 -8.70698E+02 -6.84179E+03  3.55217E+03 -7.50375E+03  9.29497E+03 -3.63823E+03
  1.06460E+04  4.36006E+02  8.19068E+03  5.78889E+03  1.88075E+03  8.15698E+03 -4.73680E+03  8.02873E+03
 -6.88310E+03  2.10954E+03 -3.37220E+03 -1.37203E+03  1.65637E+03 -2.22146E+03  4.49322E+03 -8.87466E+02
  3.68733E+03  3.05147E+03  7.42534E+02  6.29474E+03 -3.89897E+03  6.22025E+03 -7.60229E+03  2.20262E+03
 -4.33040E+03 -3.14381E+03  5.35916E+02 -6.50625E+03  3.01709E+03 -3.48992E+03  2.79257E+03  7.87890E+02
  5.40885E+02  2.93561E+03 -4.10199E+03  4.01699E+03 -4.36979E+03  2.51708E+03 -4.20118E+03 -1.19824E+03
 -2.24973E+03 -4.91727E+03  9.63391E+02 -6.10402E+03  5.21209E+03 -5.01282E+03  5.54757E+03  5.39051E+02
  4.63580E+03  4.33379E+03  2.65534E+02  6.82249E+03 -4.82282E+03  3.95430E+03 -4.51622E+03 -5.03853E+02
 -5.22190E+03 -4.59613E+03 -1.49300E+03 -4.26682E+03  2.22897E+03 -3.86808E+03  2.30631E+03 -3.24673E+03
  2.95175E+03  3.52993E+02  4.80553E+02  1.66560E+03  1.26941E+03  2.55181E+02 -2.27510E+01 -1.49583E+03
  3.17371E+03 -5.28047E+02  4.39700E+03  4.55513E+02  5.13601E+03  2.22437E+03  4.97580E+03  6.10144E+03
 -1.41307E+03  7.64735E+03 -6.66538E+03  5.86135E+03 -8.91299E+03  9.60274E+02 -6.82653E+03 -2.05576E+03
 -3.45088E+03 -5.92392E+03 -4.10316E+02 -4.61852E+03  1.85075E+03 -1.98552E+03  1.36558E+03 -1.71364E+03
  1.15378E+03 -1.18198E+03  2.48159E+03 -2.15431E+03  2.84859E+03 -1.36466E+03  3.36883E+03  1.11628E+03
  4.42683E+03  6.46163E+02  5.70898E+02  2.90285E+03 -1.64523E+03  2.35533E+03 -3.99214E+03  3.08155E+03
 -4.37905E+03 -8.29829E+02 -1.56535E+03 -2.53433E+03  6.30005E+02 -4.32748E+03  2.69079E+03 -4.47836E+03
  4.14694E+03 -3.03131E+03  5.40458E+03  2.14253E+02  4.32868E+03  3.04778E+03  1.05255E+03  5.41200E+03
 -2.24741E+03  5.13240E+03 -3.28711E+03  1.70688E+03 -1.61534E+03 -1.07362E+03 -3.21996E+02 -7.15998E+02
 -3.20436E+02 -1.90148E+02 -1.10028E+03  1.75852E+03 -2.53313E+03  1.03813E+03 -3.85285E+03 -2.93614E+02
 -1.25129E+03 -3.78065E+03  7.83924E+02 -3.62856E+03  2.18010E+03 -3.60146E+03  2.76517E+03 -8.24637E+02
  3.31627E+03  1.92122E+03  1.07657E+03  2.71155E+03 -3.97817E+02  3.58445E+03 -2.06943E+03  2.28267E+03
 -2.89602E+03  1.84887E+02 -2.65195E+03 -1.45490E+03 -3.17399E+02 -2.57538E+03  1.16476E+03 -1.94091E+03
  2.20238E+03 -1.09447E+03  1.44384E+03  9.46763E+01  2.45497E+02  1.17105E+03  1.32074E+03  3.26843E+02
  1.27458E+03  4.24290E+02  6.30555E+02  6.74420E+02  9.11409E+02  1.76170E+03  1.78884E+03  1.02376E+03
 -9.82981E+02  2.19965E+03 -2.20482E+03  3.73018E+03 -2.17839E+03  9.48685E+02 -3.40199E+03  1.00111E+01
 -1.66546E+03 -2.35605E+03  5.22431E+02 -3.71770E+03  1.27920E+03 -1.96765E+03  2.04703E+03 -8.84154E+02
  2.03406E+03  1.79983E+03  6.32596E+02  1.99265E+03 -5.75857E+02  1.14545E+03 -3.68630E+02 -1.12255E+02
 -2.62652E+02 -1.41206E+03  1.54767E+03 -1.56158E+03  4.03867E+02 -1.11474E+03  1.31806E+03  6.50932E+02
  6.50002E+02  4.75345E+02  7.17062E+02 -3.23902E+01 -3.96756E+00  7.04639E+02  1.29971E+03 -2.22951E+02
  4.73558E+01 -3.85839E+02  1.63641E+03  1.70306E+02 -7.31879E+01  1.86219E+03  1.96062E+02  2.11946E+03
 -9.05083E+02  8.74897E+02 -1.53182E+03  4.49803E+01 -1.18039E+03 -5.13849E+02  1.07411E+02 -7.40736E+02
  1.88232E+02 -5.19877E+02  1.22632E+03 -1.01194E+03  4.85774E+02  9.61368E+02 -7.91411E+02  1.17427E+03
 -1.74986E+03  6.26461E+02 -3.38098E+02 -1.19441E+03 -2.73405E+02 -1.60554E+03 -5.01794E+02 -1.15963E+03
  5.45256E+02 -5.94329E+02  3.19840E+02 -2.24617E+02  7.94055E+02 -7.60952E+01  2.98299E+02  7.39733E+02
 -9.66399E+01 -2.38093E+01 -5.13284E+02 -1.22984E+02  5.98268E+02 -6.76739E+02  1.54306E+03 -5.56556E+02
  8.11616E+02  2.37992E+02  2.19554E+03  7.13087E+02  1.43081E+03  8.90007E+02 -1.69453E+02  8.33346E+02
 -1.22147E+03 -3.59647E+00 -8.92576E+02 -4.91861E+02 -4.60958E+02 -9.85474E+02  1.61766E+02 -1.89090E+02
  1.51549E+03 -3.33813E+02  2.39113E+02  7.45497E+02 -2.06942E+02  1.16490E+03 -3.48963E+02  5.13873E+02
 -2.04909E+02  1.30500E+03 -2.82858E+02  6.58632E+02 -8.76770E+01  5.11209E+02 -4.57908E+02  4.93436E+01
 -3.35264E+02  5.81855E+02 -1.38138E+03  5.48011E+02 -9.08350E+02  2.30336E+02 -1.91655E+03 -4.13309E+02
 -6.59880E+02 -1.20236E+03  7.96558E+01 -1.94196E+03  4.83191E+02 -2.16952E+03  2.38030E+03 -2.35433E+02
  1.68912E+03 -1.52650E+02  1.02231E+03  1.19120E+03 -1.32568E+02  9.26202E+02 -2.05265E+02  7.69054E+02
 -6.91564E+02  5.54029E+02 -5.38318E+02 -1.78352E+02 -6.10471E+02  3.74762E+02 -6.57898E+02  4.24143E+02
 -1.14852E+03 -5.62001E+01 -3.73599E+02 -1.51057E+02  4.34392E+02 -5.25143E+02 -9.05441E+02 -6.14183E+02
  1.09392E+03 -7.13380E+02  5.18872E+02  1.98033E+02  6.71307E+02  5.95966E+02 -4.44856E+02  6.68333E+02
 -5.55039E+02  1.47216E+03 -1.10539E+03  1.08065E+03 -7.45399E+02 -5.63222E+02 -1.22882E+03 -6.04227E+02
 -7.84257E+02 -1.18566E+03 -4.02207E+02 -5.86239E+02  9.34403E+02 -7.01037E+02  4.43112E+02  7.05113E+02
  4.86759E+02 -7.98375E+01  5.17969E+02  8.20161E+02 -5.98980E+01  9.10678E+02  1.14740E+02 -2.38174E+01
  2.72839E+02  1.12493E+02  7.31229E+01  8.99941E+01 -1.56567E+01  5.57030E+02  8.15695E+02 -1.29002E+00
 -3.62637E+02  1.62357E+02 -2.68397E+02  6.23635E+02 -4.14488E+02 -3.56586E+02  5.28852E+02 -6.78746E+02
  6.72259E+01 -3.51010E+02 -8.77848E+01 -2.95133E+01  8.18947E+02 -1.51986E+03  9.99509E+01  4.05280E+02
  7.36686E+02  5.02621E+02 -2.05716E+02  2.42618E+02 -8.61029E+02  7.21002E+02 -2.93498E+01  4.03315E+02
  2.67200E+02 -8.55469E+01 -8.85334E+02  2.73318E+01 -4.24865E+02  1.13220E+02 -6.11993E+02 -5.22348E+02
 -5.07292E+02  4.62972E+02 -6.72205E+01 -7.97313E+02  8.39361E+02 -1.37586E+03  8.81896E+02 -7.00344E+02
  2.37125E+02 -5.97213E+02 -6.41153E+02 -1.01153E+02 -4.12473E+02  3.01658E+02 -1.28329E+02  3.26299E+02
