 $NMID ID='MM_0lb_SNR400_17hz_g60_74.RAW', FMTDAT='(8E13.5)'
 TRAMP=1., VOLUME=1. $END
  3.09615E+05  1.92385E+02  3.37454E+05  2.50470E+05  8.48720E+04  3.38045E+05 -1.32897E+05  2.51454E+05
 -1.90259E+05  8.28525E+04 -1.11641E+05 -3.26141E+04  9.25344E+02 -5.04580E+04  5.42832E+04  4.22878E+02
  3.55881E+04  5.21699E+04 -1.63313E+04  7.53491E+04 -6.06867E+04  6.37489E+04 -8.40346E+04  3.17007E+04
 -8.16321E+04 -1.11972E+04 -5.72714E+04 -5.07330E+04 -1.50004E+04 -6.97604E+04  2.71338E+04 -4.54493E+04
  4.01904E+04  3.82533E+03  1.60428E+04  4.80978E+04 -3.40112E+04  4.73436E+04 -6.63281E+04  1.47145E+02
 -5.33333E+04 -5.67879E+04 -6.98334E+03 -7.67000E+04  3.31489E+04 -5.53745E+04  4.73805E+04 -1.71719E+04
  4.40568E+04  1.08765E+04  3.11050E+04  2.52500E+04  1.61774E+04  2.89849E+04 -5.73039E+03  2.68457E+04
 -2.16787E+04  1.27140E+04 -1.84089E+04 -4.72637E+03  5.62188E+03 -7.58209E+03  2.26195E+04  1.24766E+04
  7.12826E+03  3.48314E+04 -3.19424E+04  3.54187E+04 -6.33652E+04  2.72760E+03 -5.72086E+04 -4.25358E+04
 -1.25676E+04 -6.32170E+04  3.96916E+04 -4.49841E+04  5.77696E+04 -1.99370E+03  3.32975E+04  3.18138E+04
 -5.82515E+03  3.54015E+04 -2.93607E+04  1.57952E+04 -3.03031E+04 -4.77874E+03 -1.69655E+04 -1.03991E+04
 -8.28605E+03 -1.30662E+04 -9.77954E+02 -1.78253E+04  6.73242E+03 -2.28547E+04  1.56493E+04 -1.32679E+04
  1.10424E+04  4.95540E+03 -7.86559E+03  1.23404E+04 -2.07977E+04 -4.23460E+03 -8.51643E+03 -3.27302E+04
  2.25837E+04 -4.30157E+04  4.78935E+04 -1.97093E+04  4.43096E+04  1.93265E+04  1.55248E+04  4.32677E+04
 -1.56076E+04  3.28093E+04 -2.50016E+04  1.48029E+03 -9.19161E+03 -2.73572E+04  2.10180E+04 -3.34381E+04
  4.04775E+04 -8.95553E+03  3.45512E+04  2.35597E+04  1.77615E+04  4.56989E+04 -7.53912E+03  4.90961E+04
 -3.12445E+04  3.29912E+04 -4.08557E+04  9.98461E+03 -4.20323E+04 -1.64713E+04 -2.30748E+04 -3.74191E+04
  6.60391E+03 -3.68368E+04  3.09499E+04 -1.42163E+04  2.87856E+04  1.13392E+04  3.77819E+03  1.89774E+04
 -1.31779E+04  8.91044E+03 -1.07138E+04 -7.79965E+03  6.18765E+03 -1.07889E+04  1.82904E+04  6.14305E+03
  1.34941E+04  2.20523E+04 -6.24599E+03  2.42347E+04 -2.22370E+04  1.08146E+04 -2.72180E+04 -5.45671E+03
 -1.98472E+04 -1.67841E+04 -7.73933E+03 -1.93415E+04  4.28122E+03 -1.86022E+04  1.47041E+04 -1.71369E+04
  2.46537E+04 -1.27293E+04  3.12300E+04  2.02642E+03  2.31579E+04  1.87313E+04  4.84008E+03  3.56741E+04
 -1.71976E+04  2.99022E+04 -2.70481E+04  9.86185E+03 -2.05112E+04 -1.05107E+04 -4.39821E+03 -1.35973E+04
  2.06245E+03 -2.36029E+03 -4.25722E+03  6.26633E+03 -1.56653E+04  5.28382E+03 -1.59554E+04 -6.63468E+03
 -1.02549E+04 -1.77833E+04  4.56510E+03 -2.18551E+04  1.43960E+04 -1.52834E+04  1.69675E+04 -1.08670E+03
  1.05404E+04  1.21528E+04 -1.37871E+03  1.72961E+04 -1.21185E+04  1.00145E+04 -1.76677E+04 -3.67246E+03
 -1.29603E+04 -1.64394E+04 -1.82219E+03 -2.14811E+04  9.55036E+03 -1.84795E+04  1.78481E+04 -8.85657E+03
  1.63663E+04  6.59936E+02  1.23680E+04  4.31648E+03  6.23190E+03  7.82940E+02  9.15339E+03 -1.58230E+03
  1.64944E+04  2.72673E+03  1.78127E+04  1.46396E+04  1.13035E+04  2.82417E+04 -2.83968E+03  3.10866E+04
 -1.83468E+04  2.55564E+04 -2.89330E+04  1.24370E+04 -3.04410E+04 -1.83191E+03 -2.57645E+04 -1.71885E+04
 -1.15186E+04 -2.51939E+04  8.63147E+03 -2.24345E+04  1.92238E+04 -1.23286E+04  1.79772E+04  4.96688E+03
  7.10318E+03  1.33360E+04 -8.45726E+03  1.21437E+04 -1.50491E+04  2.53316E+03 -1.19008E+04 -9.22650E+03
  8.74279E+00 -1.41258E+04  7.13466E+03 -1.11543E+04  9.46080E+03 -1.75917E+03  2.36212E+03  6.15438E+03
 -6.55358E+03  2.04350E+03 -5.47295E+03 -5.54674E+03 -1.39926E+02 -1.22402E+04  8.02932E+03 -1.21023E+04
  1.49415E+04 -6.77558E+03  1.56933E+04  2.87146E+03  1.31060E+04  1.15750E+04  5.78195E+03  1.80378E+04
 -2.06884E+03  1.97189E+04 -1.20200E+04  1.22822E+04 -1.36545E+04  3.24594E+03 -1.01886E+04 -3.02176E+03
 -4.84269E+03 -4.11275E+03 -8.43170E+02  1.32348E+03 -2.24097E+03  2.62083E+03 -4.67380E+03  4.54148E+03
 -9.37198E+03 -1.69584E+02 -9.90159E+03 -8.16701E+03 -4.29205E+03 -1.35950E+04  3.91128E+03 -9.78379E+03
  8.16613E+03 -4.64930E+03  6.34727E+03  2.62239E+03  2.82032E+02  3.58068E+03 -4.20055E+03  9.62206E+01
 -4.19340E+03 -6.83532E+03 -7.23086E+02 -9.53077E+03  4.68766E+03 -1.04027E+04  1.19619E+04 -5.04943E+03
  1.38845E+04  4.96631E+02  1.05525E+04  7.91762E+03  2.68990E+03  1.09742E+04 -6.18619E+03  1.04021E+04
 -7.77621E+03  3.48703E+03 -3.72981E+03 -1.63147E+03  1.23198E+03 -2.08098E+03  5.43612E+03 -1.06187E+03
  4.51392E+03  4.21310E+03  9.24615E+02  7.34653E+03 -4.96240E+03  7.78357E+03 -9.45239E+03  1.88726E+03
 -6.09921E+03 -4.58143E+03  2.57123E+02 -7.65600E+03  4.48153E+03 -3.95911E+03  4.53214E+03  1.35196E+03
  5.76946E+02  4.78985E+03 -4.66186E+03  5.75331E+03 -6.70325E+03  3.14403E+03 -6.20822E+03 -2.25516E+03
 -3.87724E+03 -7.53384E+03  1.38280E+03 -9.83290E+03  8.45237E+03 -5.58015E+03  8.47116E+03  1.43592E+03
  4.97975E+03  6.83461E+03 -4.26447E+02  8.29011E+03 -5.81405E+03  5.25061E+03 -6.84542E+03  9.18595E+01
 -7.16572E+03 -6.30599E+03 -1.94151E+03 -5.88133E+03  3.30593E+03 -5.64911E+03  3.74255E+03 -3.13227E+03
  3.06666E+03  3.36639E+02 -3.13728E+02  7.35686E+02  6.61942E+02 -1.10331E+03  6.42270E+02 -2.71702E+03
  5.49218E+03 -1.34590E+03  6.99546E+03  9.13635E+02  7.64063E+03  4.43424E+03  6.49983E+03  9.59006E+03
 -2.07498E+03  1.08281E+04 -9.49440E+03  7.92798E+03 -1.28796E+04  1.56875E+03 -9.66803E+03 -4.14120E+03
 -4.65628E+03 -7.97763E+03 -6.08541E+02 -7.02529E+03  2.52395E+03 -3.57724E+03  2.38188E+03 -2.82628E+03
  1.87777E+03 -1.95786E+03  2.55291E+03 -2.37292E+03  4.09678E+03 -1.59628E+03  4.57153E+03 -1.61228E+02
  5.30118E+03  1.35803E+03  1.50728E+03  4.12219E+03 -1.87589E+03  4.28227E+03 -5.42204E+03  3.23682E+03
 -6.70933E+03 -1.34194E+03 -2.27488E+03 -4.39130E+03 -2.55312E+00 -6.11406E+03  4.06227E+03 -7.04529E+03
  6.59294E+03 -4.20271E+03  8.13339E+03  4.84063E+02  6.49064E+03  5.13586E+03  9.57315E+02  8.04446E+03
 -2.69657E+03  6.99441E+03 -4.56317E+03  2.79891E+03 -2.88895E+03 -1.13151E+03 -1.01688E+03 -8.28929E+02
 -7.22888E+02  1.18296E+03 -1.44350E+03  2.37251E+03 -2.53574E+03  1.04452E+03 -4.94428E+03 -5.75857E+02
 -2.63077E+03 -4.99090E+03  7.99650E+02 -5.95724E+03  3.98665E+03 -5.53276E+03  5.37464E+03 -1.26337E+03
  5.49249E+03  3.65680E+03  2.54741E+03  4.71929E+03 -1.45040E+03  5.81878E+03 -3.78248E+03  3.72099E+03
 -5.04141E+03  7.45695E+02 -4.60177E+03 -3.15160E+03 -1.60245E+02 -4.33315E+03  2.39558E+03 -3.18255E+03
  3.55187E+03 -1.24654E+03  2.48116E+03  4.89998E+02  7.81470E+02  1.60897E+03  5.25568E+02  2.97389E+02
  1.49415E+03  4.82952E+02  1.32127E+03  1.76526E+03  1.58777E+03  3.05381E+03  1.53127E+03  2.89024E+03
 -1.68165E+03  3.72693E+03 -3.12922E+03  4.57543E+03 -4.52484E+03  1.62920E+03 -5.14392E+03 -1.39846E+03
 -2.64121E+03 -4.69611E+03  9.60453E+02 -6.31674E+03  2.59232E+03 -3.20408E+03  3.69789E+03 -6.23295E+02
  3.67398E+03  2.37754E+03  1.24625E+02  3.27618E+03 -1.06080E+03  2.10479E+03 -1.67848E+03  2.06565E+02
 -9.70777E+02 -2.47645E+03  1.23658E+03 -2.63157E+03  1.57885E+03 -7.92445E+02  1.78345E+03  7.39848E+02
  4.40885E+02  4.14590E+02  1.05421E+03 -1.32141E+02 -1.62335E+02  1.25524E+03  1.70274E+03 -1.35662E+02
  3.83437E+01 -2.66395E+02  2.21939E+03  4.66877E+02  1.17991E+03  3.44147E+03 -5.83533E+02  3.89531E+03
 -2.51990E+03  1.77518E+03 -3.24470E+03  5.30940E+02 -2.49035E+03 -6.68492E+02 -3.11194E+02 -1.52763E+03
  6.58956E+02 -2.21585E+03  1.10406E+03 -1.32264E+03  9.39753E+02  1.95560E+03 -5.32655E+02  1.88016E+03
 -1.20611E+03  1.14250E+03 -1.33091E+03 -1.49849E+03 -1.39832E+03 -3.00784E+03 -4.77976E+01 -2.27958E+03
  6.30496E+02 -1.39836E+03  1.31354E+03 -4.17781E+02  1.49738E+03 -3.81662E+02  1.20882E+02  1.91185E+03
 -7.16110E+02 -1.64522E+02 -1.14380E+03 -1.35619E+02  4.99672E+02 -1.12724E+03  2.52369E+03 -1.84232E+03
  1.34193E+03  7.37693E+01  3.67150E+03  1.06201E+03  1.06035E+03  2.62664E+03 -6.49971E+02  2.43797E+03
 -1.26923E+03  3.16352E+01 -1.83002E+03 -4.64875E+02 -1.12874E+03 -9.35399E+02  7.09158E+02 -6.61376E+02
  1.92519E+03 -7.84428E+02  1.36545E+03  7.48327E+02 -2.68523E+02  1.71633E+03  4.92344E+02  1.50970E+03
  2.66568E+02  8.30376E+02 -7.62463E+02  2.35867E+02 -1.24750E+02  8.23787E+02 -6.25518E+02  1.38103E+02
 -1.25306E+03  1.43818E+03 -2.52885E+03  1.02604E+03 -1.95778E+03 -2.09362E+02 -2.47614E+03 -1.18269E+03
 -1.33888E+03 -3.11825E+03  1.01931E+03 -3.12441E+03  1.98854E+03 -3.33011E+03  3.94567E+03 -9.67814E+02
  3.51167E+03  6.61298E+01  1.80368E+03  1.72586E+03 -6.39139E+02  1.93264E+03 -5.20017E+02  1.45444E+03
 -1.02863E+03  8.91312E+02 -7.16297E+02 -9.68443E+02 -7.40466E+02 -1.03120E+02 -5.90260E+02 -1.90410E+02
 -1.49064E+03  2.67453E+02 -9.22815E+02  1.03269E+01  1.37406E+02 -8.42724E+02 -9.71092E+02 -5.71002E+02
  1.40431E+03 -3.18522E+02  1.06702E+03 -1.52481E+02  1.38891E+03  1.19696E+03 -2.93330E+02  2.18116E+03
 -1.13687E+03  2.72863E+03 -2.56836E+03  1.29955E+03 -2.50242E+03  2.00300E+02 -1.35620E+03 -1.96802E+03
 -6.66982E+02 -2.02855E+03  7.36369E+02 -1.70972E+03  6.48877E+02 -7.19121E+02  9.61374E+02 -4.47893E+02
  4.86026E+02  1.16416E+02  2.44326E+02  5.43249E+02 -3.56756E+02 -5.64200E+02  2.73368E+02  2.26784E+02
  1.00298E+03 -1.23916E+02  6.04477E+02  4.51485E+02  9.40041E+02  1.02981E+03  6.19511E+02  4.49817E+02
 -8.99327E+02  6.60343E+02 -1.06644E+03  1.73151E+01 -7.33196E+02 -5.54669E+02  2.13522E+02 -1.37062E+03
  1.11405E+03 -1.18013E+03  6.09032E+02 -6.12835E+01  1.41631E+03 -5.46868E+02 -1.08817E+02  9.65612E+02
  1.40354E+02  7.86957E+02 -5.89055E+02  9.79633E+02 -6.47053E+02  1.06348E+03 -4.30849E+02  3.84130E+02
 -4.19140E+02 -2.24284E+02 -5.43022E+02  4.45334E+02 -8.25372E+02  5.51740E+02 -1.06549E+03 -2.62288E+02
 -1.38079E+03 -1.25567E+02 -7.24755E+01 -1.20601E+03  5.37129E+02 -2.42385E+03  5.02794E+02 -2.60075E+02
  1.01749E+03  5.39187E+02  8.52729E+01  1.11889E+02  3.08333E+02  1.32837E+03 -6.62182E+02  1.10058E+03
