 $NMID ID='MM_0lb_SNR400_9hz_g50_34.RAW', FMTDAT='(8E13.5)'
 TRAMP=1., VOLUME=1. $END
  3.10618E+05  3.45095E+02  3.37861E+05  2.51180E+05  8.46198E+04  3.38557E+05 -1.32248E+05  2.52247E+05
 -1.90546E+05  8.40106E+04 -1.12249E+05 -3.19754E+04  4.80216E+02 -5.03217E+04  5.44934E+04 -6.02501E+02
  3.54542E+04  5.25770E+04 -1.66173E+04  7.61587E+04 -6.11975E+04  6.42992E+04 -8.54621E+04  3.19786E+04
 -8.26171E+04 -1.18903E+04 -5.78065E+04 -5.21386E+04 -1.56565E+04 -7.04539E+04  2.72937E+04 -4.66284E+04
  4.15233E+04  3.53048E+03  1.61175E+04  4.82705E+04 -3.46677E+04  4.77161E+04 -6.79212E+04 -8.57859E+02
 -5.47989E+04 -5.82028E+04 -6.73021E+03 -7.88102E+04  3.45581E+04 -5.77743E+04  5.00877E+04 -1.81513E+04
  4.51378E+04  1.14824E+04  3.35164E+04  2.67278E+04  1.62530E+04  3.02203E+04 -5.08937E+03  2.79087E+04
 -2.25599E+04  1.21434E+04 -1.79237E+04 -5.88020E+03  6.87740E+03 -6.78475E+03  2.38353E+04  1.27965E+04
  6.89784E+03  3.73359E+04 -3.39004E+04  3.72756E+04 -6.49355E+04  2.30976E+03 -5.82693E+04 -4.43246E+04
 -1.21722E+04 -6.57276E+04  4.16624E+04 -4.80972E+04  6.12040E+04 -2.89985E+03  3.67387E+04  3.50793E+04
 -5.39485E+03  3.91029E+04 -3.15625E+04  1.84431E+04 -3.34437E+04 -3.89563E+03 -1.95637E+04 -1.20796E+04
 -8.92407E+03 -1.51208E+04 -1.46286E+02 -2.00624E+04  8.46610E+03 -2.40684E+04  1.63273E+04 -1.34040E+04
  9.98420E+03  5.63609E+03 -1.04671E+04  1.29056E+04 -2.33143E+04 -6.38880E+03 -8.82760E+03 -3.72571E+04
  2.56308E+04 -4.73731E+04  5.25843E+04 -2.07100E+04  4.83539E+04  2.09223E+04  1.71711E+04  4.67567E+04
 -1.61895E+04  3.67840E+04 -2.71889E+04  3.52299E+03 -1.08810E+04 -3.04055E+04  2.17454E+04 -3.76026E+04
  4.42388E+04 -1.18256E+04  4.07438E+04  2.54060E+04  2.10275E+04  5.10686E+04 -8.72697E+03  5.65037E+04
 -3.52162E+04  3.80820E+04 -4.77268E+04  1.17327E+04 -4.73475E+04 -1.80892E+04 -2.56538E+04 -4.18382E+04
  8.73363E+03 -4.16221E+04  3.39577E+04 -1.73816E+04  3.20528E+04  1.19354E+04  5.28174E+03  2.06414E+04
 -1.44148E+04  9.12037E+03 -1.06854E+04 -6.33720E+03  4.93756E+03 -1.12900E+04  1.82577E+04  5.29079E+03
  1.56684E+04  2.25910E+04 -5.53766E+03  2.72873E+04 -2.34890E+04  1.45643E+04 -3.15127E+04 -3.20372E+03
 -2.58045E+04 -1.91037E+04 -1.19503E+04 -2.45790E+04  4.13883E+03 -2.64647E+04  1.97702E+04 -2.31273E+04
  3.17284E+04 -1.45630E+04  3.80299E+04  5.59542E+03  2.67685E+04  2.49524E+04  4.56483E+03  4.11374E+04
 -2.04192E+04  3.42661E+04 -3.07928E+04  1.22081E+04 -2.29192E+04 -1.06117E+04 -5.32629E+03 -1.36246E+04
  2.11932E+02 -1.45463E+03 -7.63918E+03  7.46584E+03 -2.00465E+04  5.43352E+03 -1.99862E+04 -9.76412E+03
 -1.23335E+04 -2.29958E+04  5.75797E+03 -2.81846E+04  1.87371E+04 -2.01304E+04  2.32134E+04 -2.05987E+03
  1.43616E+04  1.54498E+04 -1.94999E+03  2.29541E+04 -1.71133E+04  1.39474E+04 -2.37934E+04 -5.02367E+03
 -1.73437E+04 -2.06775E+04 -1.95986E+03 -2.71734E+04  1.21508E+04 -2.21327E+04  2.33506E+04 -1.24738E+04
  2.11698E+04 -3.26426E+02  1.61599E+04  4.43702E+03  8.86722E+03  9.17091E+02  1.23380E+04 -2.16671E+03
  2.17029E+04  2.88986E+03  2.57591E+04  1.83865E+04  1.76528E+04  3.80222E+04 -2.31968E+03  4.40557E+04
 -2.53580E+04  3.72989E+04 -4.12226E+04  1.95268E+04 -4.49477E+04 -3.15203E+03 -3.63797E+04 -2.58224E+04
 -1.45785E+04 -3.77571E+04  1.35851E+04 -3.26759E+04  2.79317E+04 -1.61920E+04  2.36967E+04  7.97694E+03
  7.41249E+03  1.88802E+04 -1.11203E+04  1.50836E+04 -2.06833E+04  2.24163E+03 -1.46663E+04 -1.31566E+04
 -6.17085E+02 -1.93218E+04  1.08104E+04 -1.41806E+04  1.30738E+04 -1.90147E+03  2.42495E+03  8.83954E+03
 -8.73954E+03  4.13491E+03 -9.20924E+03 -7.71992E+03 -2.17289E+03 -1.78047E+04  1.16668E+04 -2.00954E+04
  2.31087E+04 -1.08124E+04  2.54996E+04  2.63875E+03  2.23038E+04  1.94397E+04  1.05095E+04  2.96576E+04
 -5.56359E+03  3.02833E+04 -2.03519E+04  1.92885E+04 -2.27906E+04  4.71637E+03 -1.62084E+04 -5.13541E+03
 -6.65434E+03 -7.72365E+03 -5.15062E+02 -1.24439E+02 -3.06245E+03  4.11656E+03 -7.61046E+03  5.37717E+03
 -1.48567E+04 -1.19915E+03 -1.49856E+04 -1.19789E+04 -5.67561E+03 -1.97566E+04  5.99643E+03 -1.56325E+04
  1.31746E+04 -6.13408E+03  9.09310E+03  4.79682E+03 -6.05422E+02  5.93098E+03 -7.86899E+03  3.16459E+02
 -7.57062E+03 -1.01490E+04 -1.06757E+03 -1.56978E+04  9.25733E+03 -1.64502E+04  1.93257E+04 -8.89919E+03
  2.32748E+04  2.80865E+03  1.69973E+04  1.48245E+04  3.31179E+03  1.92418E+04 -1.01957E+04  1.51501E+04
 -1.32260E+04  4.74655E+03 -6.87633E+03 -3.43085E+03  3.32355E+03 -4.62008E+03  7.47804E+03 -6.69691E+02
  7.46596E+03  7.08262E+03  1.10482E+03  1.27521E+04 -8.77162E+03  1.24674E+04 -1.56970E+04  2.37102E+03
 -1.07661E+04 -8.47435E+03 -4.10269E+02 -1.38504E+04  8.26749E+03 -6.72816E+03  8.93746E+03  3.42897E+03
  2.69338E+03  1.00936E+04 -8.69203E+03  1.19443E+04 -1.36794E+04  5.13699E+03 -1.38395E+04 -4.36456E+03
 -7.62668E+03 -1.65303E+04  3.81993E+03 -1.75006E+04  1.59387E+04 -1.05703E+04  1.68409E+04  2.94489E+03
  1.04044E+04  1.34795E+04 -1.26936E+03  1.57376E+04 -1.11089E+04  8.73635E+03 -1.35164E+04 -5.22930E+02
 -1.06552E+04 -1.08425E+04 -1.70674E+03 -1.10141E+04  6.48723E+03 -8.79652E+03  8.61613E+03 -3.42046E+03
  5.02429E+03  1.67906E+03 -7.88585E+02  1.69433E+03 -8.94671E+02 -3.15881E+03  2.56081E+03 -8.28917E+03
  1.11581E+04 -4.76321E+03  1.62668E+04  2.10311E+03  1.53762E+04  1.11342E+04  1.01753E+04  2.10206E+04
 -4.75953E+03  2.38861E+04 -1.97796E+04  1.72932E+04 -2.60284E+04  3.59494E+03 -2.04505E+04 -1.02293E+04
 -1.03879E+04 -1.74908E+04  1.54831E+02 -1.50944E+04  4.84884E+03 -9.35060E+03  5.23490E+03 -5.26863E+03
  4.07100E+03 -2.50710E+03  3.06667E+03 -4.28300E+03  5.41623E+03 -3.57283E+03  8.15550E+03 -1.72896E+03
  1.14046E+04  2.25448E+03  5.94598E+03  9.77775E+03 -2.37641E+03  1.07001E+04 -1.09885E+04  8.60511E+03
 -1.48420E+04 -1.66678E+03 -9.55229E+03 -1.04744E+04 -4.81978E+02 -1.52118E+04  9.49602E+03 -1.57743E+04
  1.69150E+04 -8.77895E+03  1.99397E+04  2.46728E+03  1.32728E+04  1.33127E+04  2.33920E+03  1.86652E+04
 -7.45413E+03  1.45855E+04 -1.05838E+04  4.29851E+03 -6.71995E+03 -1.52145E+03 -2.67222E+03 -1.94541E+03
 -1.07286E+03 -1.17388E+03 -2.61884E+03  2.84828E+03 -5.95674E+03  1.99129E+03 -1.05801E+04 -1.92801E+03
 -6.69429E+03 -1.02463E+04 -5.01508E+02 -1.52516E+04  8.86019E+03 -1.30898E+04  1.42924E+04 -4.42277E+03
  1.45965E+04  6.09437E+03  6.68876E+03  1.30835E+04 -3.33301E+03  1.55274E+04 -1.10053E+04  8.57966E+03
 -1.35937E+04  5.48011E+02 -1.16573E+04 -9.05935E+03 -1.81051E+03 -1.26850E+04  6.58044E+03 -9.46015E+03
  9.40467E+03 -2.96419E+03  7.19908E+03  2.75281E+03  2.21180E+03  4.34360E+03  1.07053E+03  2.57651E+03
  2.51678E+03  1.12926E+03  3.04576E+03  2.98596E+03  4.73080E+03  5.72548E+03  3.91196E+03  7.62174E+03
 -2.63585E+03  1.23913E+04 -9.72222E+03  1.11005E+04 -1.56135E+04  2.49924E+03 -1.47855E+04 -6.55254E+03
 -7.29792E+03 -1.50927E+04  2.35847E+03 -1.66694E+04  9.14436E+03 -1.03629E+04  1.26133E+04 -3.23989E+03
  9.22114E+03  5.18842E+03  1.85018E+03  9.10534E+03 -3.40081E+03  5.54753E+03 -6.66622E+03 -8.65011E+02
 -2.74553E+03 -6.13831E+03  3.63471E+03 -7.02926E+03  6.05191E+03 -3.28472E+03  6.24037E+03  1.41419E+03
  3.01728E+03  3.61151E+03  1.85016E+03  2.26713E+03 -9.57293E+02  2.24699E+03  1.46806E+03  6.81348E+01
  2.44853E+03 -8.52534E+02  5.95445E+03  2.37526E+03  3.84874E+03  8.07903E+03 -1.12434E+03  9.90438E+03
 -7.86501E+03  6.64753E+03 -1.00984E+04  2.03053E+03 -9.09620E+03 -2.79650E+03 -2.73776E+03 -6.46415E+03
  7.09983E+02 -6.16023E+03  4.00891E+03 -2.53396E+03  3.41474E+03  3.15895E+03 -1.04201E+03  4.99250E+03
 -6.23432E+03  3.00478E+03 -6.62261E+03 -3.34332E+03 -4.24568E+03 -8.71664E+03  1.92589E+03 -8.90514E+03
  4.88419E+03 -4.83766E+03  6.74174E+03 -1.68417E+02  5.68886E+03  2.72486E+03  1.92484E+03  4.59127E+03
 -2.47009E+03  9.55921E+02 -2.95991E+03 -2.68097E+03  1.09556E+03 -5.69692E+03  8.26555E+03 -5.41860E+03
  9.81999E+03  1.41900E+03  8.75511E+03  6.23252E+03  3.44527E+03  9.83103E+03 -3.48590E+03  9.00830E+03
 -8.30420E+03  4.41859E+03 -8.21891E+03 -1.13368E+03 -5.04947E+03 -6.75359E+03  1.12336E+03 -5.69429E+03
  5.47719E+03 -3.42833E+03  5.34545E+03  2.17640E+03  2.10162E+03  5.41437E+03 -8.42156E+02  5.08183E+03
 -2.81358E+03  3.22950E+03 -2.84914E+03  1.25938E+03 -1.39626E+03  1.13034E+03 -1.03073E+03  2.56004E+03
 -2.79815E+03  4.71814E+03 -6.97192E+03  3.45621E+03 -1.06976E+04  1.24847E+02 -1.16774E+04 -7.20292E+03
 -5.77256E+03 -1.30285E+04  2.64919E+03 -1.47624E+04  9.70084E+03 -1.17816E+04  1.44167E+04 -5.37427E+03
  1.31700E+04  3.21890E+03  8.61305E+03  9.70364E+03  5.38786E+01  1.01379E+04 -3.99356E+03  7.77657E+03
 -6.44942E+03  3.19628E+03 -4.89150E+03 -1.44148E+03 -1.51744E+02 -1.12624E+03 -6.08705E+02 -1.66369E+02
 -1.62043E+03 -1.28472E+02 -2.51787E+03 -1.90616E+01 -1.18867E+03 -2.39580E+03  6.25357E+02 -3.58568E+03
  4.76279E+03 -3.15037E+03  6.12899E+03  5.53814E+01  7.52480E+03  5.76122E+03  2.04071E+03  1.09038E+04
 -4.86237E+03  1.17547E+04 -1.11814E+04  6.83991E+03 -1.27227E+04 -9.88135E+02 -9.64575E+03 -7.36524E+03
 -4.46031E+03 -1.12864E+04  3.84565E+03 -1.08294E+04  7.76286E+03 -5.56112E+03  7.61824E+03  4.10978E+02
  4.27373E+03  4.10456E+03 -7.54037E+02  3.15235E+03 -2.07380E+03 -6.73974E+02 -3.59817E+02 -2.15327E+03
  2.86083E+03 -1.27140E+03  3.95178E+03  7.65580E+02  3.12537E+03  5.05130E+03 -1.47926E+02  5.77914E+03
 -4.32557E+03  4.32327E+03 -7.69444E+03  1.69426E+02 -5.99491E+03 -4.78321E+03 -9.64936E+02 -8.65168E+03
  4.81576E+03 -7.20600E+03  8.71777E+03 -2.40989E+03  7.53628E+03  2.49830E+03  4.06830E+03  5.81289E+03
  3.64491E+02  6.88302E+03 -2.13470E+03  5.56615E+03 -4.46391E+03  3.32887E+03 -4.27446E+03  6.20529E+02
 -1.66893E+03 -3.74191E+02 -1.30788E+03  5.73295E+02 -3.49729E+03  1.19711E+03 -5.73010E+03 -6.09138E+02
 -5.58592E+03 -3.88466E+03 -1.54280E+03 -7.00430E+03  3.43430E+03 -6.94974E+03  6.10094E+03 -3.04321E+03
  6.70339E+03  9.24810E+02  4.95131E+03  5.06740E+03  1.61318E+02  7.12961E+03 -5.25143E+03  4.95116E+03
