 $NMID ID='MM_0lb_SNR400_11hz_g60_75.RAW', FMTDAT='(8E13.5)'
 TRAMP=1., VOLUME=1. $END
  3.10162E+05  9.91060E+02  3.38158E+05  2.50423E+05  8.46874E+04  3.38782E+05 -1.32517E+05  2.51893E+05
 -1.90695E+05  8.38466E+04 -1.11810E+05 -3.26762E+04  5.46591E+02 -5.09370E+04  5.32579E+04 -1.32922E+03
  3.60109E+04  5.27179E+04 -1.64513E+04  7.62024E+04 -6.11618E+04  6.41901E+04 -8.54324E+04  3.15947E+04
 -8.16467E+04 -1.21226E+04 -5.80257E+04 -5.25268E+04 -1.49410E+04 -7.04665E+04  2.81172E+04 -4.66941E+04
  4.09581E+04  3.36486E+03  1.70053E+04  4.82893E+04 -3.55400E+04  4.79724E+04 -6.80620E+04  6.82592E+02
 -5.52757E+04 -5.84311E+04 -7.16329E+03 -7.85292E+04  3.43790E+04 -5.66191E+04  5.00982E+04 -1.83349E+04
  4.51260E+04  1.11104E+04  3.22151E+04  2.66770E+04  1.65856E+04  2.97726E+04 -5.82655E+03  2.75919E+04
 -2.20986E+04  1.19030E+04 -1.78431E+04 -5.27150E+03  6.54076E+03 -7.21979E+03  2.38160E+04  1.30913E+04
  7.79050E+03  3.74612E+04 -3.43100E+04  3.70088E+04 -6.54957E+04  1.85124E+03 -5.82713E+04 -4.43384E+04
 -1.25830E+04 -6.58375E+04  4.14616E+04 -4.74927E+04  6.09198E+04 -2.45187E+03  3.60698E+04  3.40178E+04
 -5.15871E+03  3.95678E+04 -3.18923E+04  1.89719E+04 -3.31638E+04 -3.19777E+03 -1.85017E+04 -1.18171E+04
 -8.97642E+03 -1.48893E+04  9.71444E+01 -1.93603E+04  8.88418E+03 -2.38144E+04  1.53637E+04 -1.27853E+04
  9.79847E+03  6.24402E+03 -1.10407E+04  1.24130E+04 -2.33122E+04 -5.84571E+03 -8.14691E+03 -3.72809E+04
  2.50145E+04 -4.63801E+04  5.22961E+04 -1.98405E+04  4.78621E+04  2.00884E+04  1.70886E+04  4.60001E+04
 -1.65033E+04  3.66291E+04 -2.75458E+04  3.05827E+03 -1.25010E+04 -2.92924E+04  2.12821E+04 -3.70830E+04
  4.34862E+04 -1.08055E+04  3.85603E+04  2.52489E+04  2.13237E+04  4.99055E+04 -8.19038E+03  5.57877E+04
 -3.46167E+04  3.70923E+04 -4.64110E+04  1.09138E+04 -4.72293E+04 -1.85237E+04 -2.57685E+04 -4.19004E+04
  7.90407E+03 -4.17528E+04  3.37127E+04 -1.63749E+04  3.18676E+04  1.13541E+04  5.40858E+03  2.03544E+04
 -1.35108E+04  9.80675E+03 -1.07303E+04 -7.59662E+03  6.03595E+03 -1.12685E+04  1.93739E+04  5.82461E+03
  1.50993E+04  2.23455E+04 -5.27936E+03  2.63488E+04 -2.26999E+04  1.39301E+04 -3.14472E+04 -3.20013E+03
 -2.44730E+04 -1.86289E+04 -1.08295E+04 -2.45675E+04  4.58942E+03 -2.45388E+04  2.00651E+04 -2.22166E+04
  3.05788E+04 -1.41915E+04  3.76996E+04  4.79307E+03  2.68073E+04  2.44406E+04  3.67806E+03  4.04972E+04
 -1.93739E+04  3.39540E+04 -2.98895E+04  1.14914E+04 -2.19429E+04 -9.32397E+03 -5.02469E+03 -1.35893E+04
  1.62145E+03 -9.50275E+02 -6.57796E+03  7.71764E+03 -1.94204E+04  4.66771E+03 -1.97856E+04 -9.60547E+03
 -1.16078E+04 -2.24601E+04  6.09556E+03 -2.72523E+04  1.79976E+04 -1.92936E+04  2.18311E+04 -2.14104E+03
  1.43994E+04  1.54563E+04 -1.42430E+03  2.26130E+04 -1.55706E+04  1.30445E+04 -2.26665E+04 -4.96899E+03
 -1.66513E+04 -1.96861E+04 -1.88887E+03 -2.71807E+04  1.23000E+04 -2.25028E+04  2.31879E+04 -1.14826E+04
  2.18323E+04  3.05647E+02  1.53389E+04  5.35931E+03  8.93796E+03  1.22036E+03  1.17806E+04 -1.36751E+03
  2.05936E+04  3.09670E+03  2.45163E+04  1.84336E+04  1.63948E+04  3.59947E+04 -2.87395E+03  4.21699E+04
 -2.47528E+04  3.48423E+04 -4.00073E+04  1.83976E+04 -4.27306E+04 -3.33812E+03 -3.46793E+04 -2.51257E+04
 -1.35279E+04 -3.55793E+04  1.31619E+04 -3.06496E+04  2.66319E+04 -1.44807E+04  2.33573E+04  7.58984E+03
  8.47950E+03  1.80367E+04 -1.09507E+04  1.50873E+04 -1.96261E+04  3.08098E+03 -1.44693E+04 -1.27331E+04
 -4.63362E+02 -1.89383E+04  9.47880E+03 -1.39214E+04  1.28136E+04 -1.00688E+03  3.15343E+03  8.57889E+03
 -8.56423E+03  2.95698E+03 -9.00037E+03 -7.17980E+03 -1.20404E+03 -1.74698E+04  1.11109E+04 -1.90799E+04
  2.16795E+04 -1.03403E+04  2.40690E+04  3.44138E+03  2.19449E+04  1.73160E+04  9.88821E+03  2.68170E+04
 -5.43934E+03  2.90221E+04 -1.93091E+04  1.78874E+04 -2.10105E+04  3.56891E+03 -1.51387E+04 -4.78849E+03
 -6.61827E+03 -6.68149E+03 -5.59688E+02  2.03553E+02 -3.42188E+03  4.06714E+03 -6.38754E+03  5.84850E+03
 -1.35870E+04 -7.10422E+02 -1.44568E+04 -1.11224E+04 -5.29309E+03 -1.80785E+04  5.61694E+03 -1.45412E+04
  1.24676E+04 -5.80153E+03  8.77796E+03  4.08761E+03 -2.20230E+01  4.94410E+03 -7.17543E+03 -8.80060E+01
 -7.59074E+03 -9.41077E+03 -1.32549E+03 -1.41685E+04  8.02355E+03 -1.53144E+04  1.87076E+04 -7.81675E+03
  2.21432E+04  2.47467E+03  1.63687E+04  1.33083E+04  2.88586E+03  1.78743E+04 -8.33402E+03  1.46003E+04
 -1.23675E+04  4.73440E+03 -6.33065E+03 -2.87364E+03  2.22114E+03 -4.54906E+03  8.60627E+03 -1.42011E+03
  7.17730E+03  6.13968E+03  8.54857E+02  1.19670E+04 -9.12399E+03  1.12057E+04 -1.41264E+04  2.78251E+03
 -9.95410E+03 -7.39685E+03  8.44138E+02 -1.26951E+04  8.80984E+03 -5.94096E+03  8.34639E+03  2.01855E+03
  2.40157E+03  8.97204E+03 -7.73342E+03  1.12585E+04 -1.18490E+04  4.82110E+03 -1.30407E+04 -4.54191E+03
 -7.20723E+03 -1.50589E+04  3.39750E+03 -1.66907E+04  1.39925E+04 -9.04871E+03  1.54080E+04  2.51425E+03
  9.43245E+03  1.17657E+04 -2.03596E+03  1.44661E+04 -1.10599E+04  7.89457E+03 -1.14023E+04 -7.73044E+02
 -9.97042E+03 -8.55889E+03 -2.16350E+03 -1.13550E+04  5.99594E+03 -8.74664E+03  6.30955E+03 -3.22714E+03
  4.19824E+03  1.27970E+03 -2.64025E+02  1.84203E+03 -1.19990E+02 -2.44298E+03  2.05420E+03 -6.52246E+03
  9.53821E+03 -3.72598E+03  1.41118E+04  1.65684E+03  1.36053E+04  1.00437E+04  9.62715E+03  1.85984E+04
 -4.70487E+03  2.11196E+04 -1.86311E+04  1.56041E+04 -2.31825E+04  2.63928E+03 -1.81015E+04 -7.74624E+03
 -9.05567E+03 -1.46046E+04 -6.14587E+02 -1.30184E+04  4.68584E+03 -7.21315E+03  4.22341E+03 -5.86417E+03
  3.14185E+03 -2.59023E+03  3.86821E+03 -3.74582E+03  5.58696E+03 -3.10519E+03  7.47465E+03 -1.10671E+03
  9.42571E+03  2.24940E+03  5.33925E+03  8.41157E+03 -2.62384E+03  9.56315E+03 -9.75916E+03  7.08083E+03
 -1.30923E+04 -8.34354E+02 -7.73119E+03 -9.14192E+03 -8.65676E+02 -1.39405E+04  8.35259E+03 -1.43598E+04
  1.41453E+04 -7.66319E+03  1.78187E+04  2.05431E+03  1.16843E+04  1.18031E+04  2.10425E+03  1.51576E+04
 -6.24261E+03  1.25816E+04 -9.18823E+03  4.51976E+03 -5.52331E+03 -2.07557E+03 -2.18953E+03 -2.20679E+03
 -2.03282E+03 -6.97646E+02 -2.51065E+03  2.61452E+03 -5.47039E+03  1.66127E+03 -9.08599E+03 -1.27683E+03
 -7.11230E+03 -8.59123E+03 -6.64702E+01 -1.23644E+04  8.36243E+03 -1.23366E+04  1.22381E+04 -2.41094E+03
  1.18527E+04  6.11234E+03  6.41431E+03  1.13785E+04 -2.45492E+03  1.23617E+04 -9.23293E+03  7.97348E+03
 -1.16893E+04  8.66016E+02 -9.42522E+03 -7.11595E+03 -1.38399E+03 -1.04397E+04  6.04101E+03 -7.97116E+03
  8.11692E+03 -2.36697E+03  5.31507E+03  2.49398E+03  1.22927E+03  4.01039E+03  1.94639E+03  1.65951E+03
  2.31040E+03  9.39378E+02  2.31878E+03  2.24314E+03  3.93980E+03  4.56673E+03  2.88184E+03  6.86396E+03
 -3.23925E+03  9.22973E+03 -9.08543E+03  1.00369E+04 -1.27112E+04  2.53234E+03 -1.35417E+04 -5.61150E+03
 -6.32599E+03 -1.32030E+04  2.17440E+03 -1.36647E+04  8.02610E+03 -8.88270E+03  1.04381E+04 -2.10663E+03
  7.95015E+03  4.79960E+03  1.69439E+03  7.40683E+03 -3.33899E+03  4.52817E+03 -4.56412E+03 -1.92825E+03
 -1.95803E+03 -5.94095E+03  3.56224E+03 -5.40823E+03  5.81308E+03 -3.41233E+03  5.59392E+03  2.11378E+03
  3.11941E+03  2.49326E+03  9.99715E+02  2.46518E+03 -6.59506E+02  1.67881E+03  1.58876E+03 -9.51930E+02
  1.92585E+03 -3.54689E+02  5.91529E+03  2.52728E+03  2.76862E+03  6.53077E+03 -1.72743E+03  9.07976E+03
 -5.86467E+03  5.98705E+03 -7.90834E+03  1.37828E+03 -7.08072E+03 -3.24845E+03 -2.47596E+03 -4.76035E+03
  4.12909E+02 -4.53049E+03  3.25577E+03 -2.36919E+03  2.36223E+03  2.48077E+03 -1.44785E+03  4.46779E+03
 -4.71736E+03  2.19359E+03 -5.88720E+03 -3.82020E+03 -3.22641E+03 -6.20755E+03  3.61419E+02 -6.56409E+03
  4.68618E+03 -3.45910E+03  5.36349E+03 -7.41283E+02  4.46946E+03  3.10292E+03  1.46279E+03  3.56667E+03
 -1.67390E+03  8.97507E+02 -2.68357E+03 -1.70574E+03  2.05881E+03 -4.89205E+03  6.01139E+03 -3.66394E+03
  7.10134E+03  9.70749E+02  7.50662E+03  4.18776E+03  2.37496E+03  8.33587E+03 -2.12454E+03  7.32213E+03
 -7.12859E+03  2.56593E+03 -7.42181E+03 -1.10723E+03 -3.46940E+03 -5.33721E+03  1.41554E+03 -4.84237E+03
  4.62479E+03 -2.71509E+03  4.17808E+03  2.07760E+03  2.00315E+03  3.90460E+03 -5.07063E+02  3.85257E+03
 -1.88059E+03  2.47200E+03 -2.70729E+03  1.12760E+03 -1.31055E+03  7.21867E+02 -1.31949E+03  2.08990E+03
 -2.14478E+03  2.92448E+03 -5.29584E+03  2.75497E+03 -7.86172E+03  2.31692E+02 -8.29061E+03 -4.82344E+03
 -4.79336E+03 -1.05930E+04  2.70534E+03 -1.19178E+04  6.85954E+03 -8.79060E+03  1.12572E+04 -3.95207E+03
  1.05504E+04  2.44094E+03  6.76406E+03  7.21123E+03  4.87082E+02  8.16060E+03 -3.63432E+03  6.13781E+03
 -4.00690E+03  2.04481E+03 -2.10401E+03 -1.32258E+03 -4.82350E+02 -8.26387E+02 -5.66622E+02 -3.31973E+01
 -1.79580E+03  2.69006E+02 -1.94636E+03  7.41349E+02 -5.66577E+02 -1.57846E+03 -1.17625E+01 -2.67101E+03
  3.96655E+03 -2.26866E+03  4.67465E+03  3.38989E+02  6.03347E+03  3.68874E+03  6.31121E+02  7.21485E+03
 -3.83426E+03  9.16798E+03 -7.63147E+03  4.94021E+03 -9.48129E+03 -1.12513E+03 -6.68607E+03 -5.39704E+03
 -3.21706E+03 -8.09846E+03  1.79278E+03 -8.59712E+03  4.87490E+03 -3.40943E+03  5.13863E+03  4.33206E+02
  2.44301E+03  2.51348E+03 -7.89362E+02  2.42863E+03 -1.92577E+03  6.46190E+01  6.43476E+02 -2.10683E+03
  2.65584E+03 -9.41037E+02  2.95399E+03  5.85351E+02  2.43442E+03  3.04656E+03  5.09662E+02  4.11449E+03
 -2.99513E+03  3.74337E+03 -4.95033E+03  1.24207E+02 -4.65898E+03 -3.38711E+03 -9.81053E+02 -6.46953E+03
  3.52915E+03 -4.65859E+03  5.95405E+03 -1.76821E+03  5.85400E+03  1.62771E+03  3.21748E+03  4.41345E+03
  1.06445E+03  4.08216E+03 -2.18353E+03  4.30260E+03 -2.95625E+03  1.95524E+03 -2.51665E+03  7.45545E+02
 -1.62554E+03 -1.59460E+02 -1.30493E+03  3.71490E+02 -2.97881E+03  4.05068E+02 -4.45185E+03 -1.26219E+03
 -3.80898E+03 -2.81769E+03 -1.89704E+03 -4.87566E+03  2.34117E+03 -5.01782E+03  4.46953E+03 -2.43874E+03
  5.15677E+03  6.23673E+02  3.24560E+03  2.93586E+03 -7.64129E+02  4.96056E+03 -3.30075E+03  2.75399E+03
