 $NMID ID='MM_0lb_SNR400_15hz_g50_13.RAW', FMTDAT='(8E13.5)'
 TRAMP=1., VOLUME=1. $END
  3.09782E+05 -1.08397E+02  3.37730E+05  2.50591E+05  8.48276E+04  3.37789E+05 -1.32180E+05  2.50914E+05
 -1.90055E+05  8.31148E+04 -1.11918E+05 -3.28574E+04  7.21807E+02 -5.05231E+04  5.36010E+04 -5.99878E+02
  3.49864E+04  5.28010E+04 -1.70913E+04  7.51715E+04 -6.04274E+04  6.36677E+04 -8.39943E+04  3.18749E+04
 -8.12283E+04 -1.13590E+04 -5.73928E+04 -5.07451E+04 -1.48123E+04 -6.96200E+04  2.66842E+04 -4.55216E+04
  3.99171E+04  3.48520E+03  1.64841E+04  4.71232E+04 -3.43864E+04  4.73476E+04 -6.66055E+04 -3.65549E+02
 -5.33317E+04 -5.66675E+04 -6.66774E+03 -7.65958E+04  3.45380E+04 -5.53966E+04  4.77982E+04 -1.66355E+04
  4.31276E+04  1.17172E+04  3.11331E+04  2.53647E+04  1.59486E+04  2.86297E+04 -5.14165E+03  2.76921E+04
 -2.20443E+04  1.30679E+04 -1.86566E+04 -4.79298E+03  5.31603E+03 -7.64622E+03  2.21469E+04  1.18982E+04
  6.86412E+03  3.46481E+04 -3.16754E+04  3.51841E+04 -6.32009E+04  2.10190E+03 -5.65163E+04 -4.23292E+04
 -1.28645E+04 -6.28733E+04  3.99282E+04 -4.47576E+04  5.75629E+04 -2.47691E+03  3.39424E+04  3.11813E+04
 -6.55197E+03  3.57413E+04 -3.00280E+04  1.53307E+04 -2.98873E+04 -4.59176E+03 -1.67440E+04 -1.05580E+04
 -8.07744E+03 -1.23695E+04 -8.50730E+02 -1.83457E+04  7.32674E+03 -2.28181E+04  1.51379E+04 -1.32008E+04
  1.16147E+04  5.22137E+03 -7.40999E+03  1.25525E+04 -2.08577E+04 -3.97833E+03 -7.77179E+03 -3.29270E+04
  2.23029E+04 -4.23455E+04  4.72322E+04 -1.87576E+04  4.36665E+04  1.95673E+04  1.51849E+04  4.39760E+04
 -1.57350E+04  3.27695E+04 -2.54268E+04  1.93829E+03 -9.68444E+03 -2.79174E+04  2.12107E+04 -3.29738E+04
  3.99660E+04 -8.87577E+03  3.38842E+04  2.28782E+04  1.81482E+04  4.56899E+04 -7.60037E+03  4.91319E+04
 -3.06336E+04  3.31717E+04 -4.13290E+04  9.46075E+03 -4.20546E+04 -1.62119E+04 -2.26846E+04 -3.71902E+04
  7.04231E+03 -3.69853E+04  3.06152E+04 -1.42350E+04  2.91574E+04  1.14423E+04  2.89566E+03  1.89600E+04
 -1.35552E+04  8.14930E+03 -1.04918E+04 -7.78480E+03  5.77591E+03 -1.05662E+04  1.86148E+04  5.92508E+03
  1.36725E+04  2.24204E+04 -6.31685E+03  2.44120E+04 -2.23239E+04  1.11619E+04 -2.70581E+04 -5.09988E+03
 -1.96387E+04 -1.76307E+04 -7.99896E+03 -2.01297E+04  3.89690E+03 -1.84579E+04  1.55140E+04 -1.75004E+04
  2.50919E+04 -1.24838E+04  3.18463E+04  2.71632E+03  2.33712E+04  1.97161E+04  3.56886E+03  3.63604E+04
 -1.76981E+04  3.00892E+04 -2.72324E+04  1.05351E+04 -2.06546E+04 -1.02948E+04 -3.82303E+03 -1.31046E+04
  1.76661E+03 -2.97328E+03 -4.93711E+03  5.94127E+03 -1.56143E+04  5.81377E+03 -1.53719E+04 -6.93945E+03
 -9.97934E+03 -1.85209E+04  5.13688E+03 -2.23656E+04  1.52632E+04 -1.62177E+04  1.71688E+04 -7.34656E+02
  1.12105E+04  1.27911E+04 -2.42926E+02  1.85909E+04 -1.24181E+04  1.03883E+04 -1.79631E+04 -4.13193E+03
 -1.39934E+04 -1.62912E+04 -1.95896E+03 -2.26518E+04  9.88653E+03 -1.80118E+04  1.89957E+04 -8.99426E+03
  1.72675E+04  8.42666E+00  1.21635E+04  4.25695E+03  6.30234E+03  1.04940E+03  8.94714E+03 -1.23098E+03
  1.69498E+04  2.84099E+03  1.84393E+04  1.46056E+04  1.24236E+04  2.92634E+04 -3.17402E+03  3.24029E+04
 -1.94204E+04  2.60063E+04 -3.05029E+04  1.26370E+04 -3.16743E+04 -2.40381E+03 -2.61675E+04 -1.81392E+04
 -1.21984E+04 -2.63955E+04  8.98340E+03 -2.37527E+04  2.05822E+04 -1.28634E+04  1.87456E+04  5.41825E+03
  6.77468E+03  1.32997E+04 -8.72376E+03  1.23684E+04 -1.59325E+04  2.78085E+03 -1.19468E+04 -9.58840E+03
 -2.33490E+02 -1.45272E+04  7.81668E+03 -1.15409E+04  9.57535E+03 -1.85978E+03  2.44758E+03  5.44198E+03
 -6.52622E+03  1.85381E+03 -5.35147E+03 -5.16279E+03 -1.17667E+01 -1.25244E+04  9.86253E+03 -1.32491E+04
  1.60559E+04 -7.08368E+03  1.65378E+04  2.97869E+03  1.47288E+04  1.27424E+04  7.15254E+03  1.92011E+04
 -3.49128E+03  2.08121E+04 -1.34940E+04  1.29955E+04 -1.49527E+04  3.94369E+03 -1.12290E+04 -3.15051E+03
 -5.35040E+03 -4.56331E+03 -9.22542E+02  1.60413E+03 -2.24976E+03  2.86284E+03 -4.14582E+03  3.73319E+03
 -9.70084E+03 -1.30476E+03 -1.05940E+04 -8.74831E+03 -4.01003E+03 -1.39848E+04  4.74965E+03 -1.03117E+04
  8.82114E+03 -4.50109E+03  6.69812E+03  2.69542E+03 -7.27706E+01  3.81406E+03 -5.58501E+03  2.14080E+02
 -5.43850E+03 -7.03608E+03 -1.21651E+03 -9.59912E+03  5.64842E+03 -1.05015E+04  1.33855E+04 -5.92346E+03
  1.52208E+04  1.28643E+03  1.12593E+04  8.69050E+03  2.00685E+03  1.20538E+04 -5.98667E+03  1.06378E+04
 -8.70813E+03  3.34608E+03 -4.38625E+03 -2.03304E+03  1.43006E+03 -2.50749E+03  5.26995E+03 -1.05335E+03
  5.37311E+03  4.69733E+03  4.15951E+02  8.28228E+03 -5.97720E+03  8.31025E+03 -9.47042E+03  2.11239E+03
 -6.60590E+03 -4.99336E+03  2.83620E+02 -8.69662E+03  5.59695E+03 -4.11076E+03  5.29940E+03  1.24996E+03
  1.18378E+03  4.93281E+03 -5.53951E+03  7.04375E+03 -7.62581E+03  3.48713E+03 -7.05845E+03 -2.11609E+03
 -5.43129E+03 -8.59064E+03  2.26127E+03 -1.08796E+04  8.96321E+03 -6.06531E+03  8.98871E+03  1.52899E+03
  6.67882E+03  7.42764E+03 -4.50295E+02  1.01893E+04 -7.01830E+03  5.46981E+03 -6.76760E+03 -6.27890E+02
 -7.02898E+03 -6.46130E+03 -1.10490E+03 -7.73154E+03  3.85445E+03 -6.65631E+03  4.39205E+03 -3.40682E+03
  3.32471E+03  3.82979E+02  1.28374E+02  1.51735E+03 -1.04867E+02 -6.86603E+02  9.67176E+02 -3.25278E+03
  6.33880E+03 -1.61797E+03  8.77285E+03  1.08630E+03  9.35010E+03  5.02848E+03  6.65856E+03  1.11184E+04
 -2.27698E+03  1.32900E+04 -1.14080E+04  9.53522E+03 -1.42552E+04  1.91422E+03 -1.13215E+04 -4.31355E+03
 -6.21364E+03 -9.75664E+03 -6.62146E+02 -8.40837E+03  3.35568E+03 -3.73540E+03  2.67439E+03 -2.96146E+03
  2.20472E+03 -1.83471E+03  3.30527E+03 -2.05939E+03  3.80366E+03 -2.37557E+03  4.40612E+03 -2.69659E+02
  6.00943E+03  1.97203E+03  2.14433E+03  5.36333E+03 -1.98554E+03  5.26732E+03 -6.73771E+03  4.74778E+03
 -7.36759E+03 -5.93928E+02 -3.68529E+03 -5.43758E+03  9.25459E+01 -8.21748E+03  4.31636E+03 -8.39608E+03
  8.40000E+03 -4.68453E+03  1.00991E+04  1.29200E+03  7.27771E+03  7.33554E+03  1.45445E+03  8.81870E+03
 -3.70029E+03  8.43008E+03 -5.10769E+03  2.50084E+03 -3.08876E+03 -1.27216E+03 -1.15832E+03 -4.41904E+02
 -7.79778E+02  5.87700E+02 -1.15874E+03  2.45738E+03 -3.40911E+03  1.30538E+03 -5.53467E+03 -2.77243E+02
 -3.40106E+03 -5.41030E+03  4.20820E+02 -7.18361E+03  4.13387E+03 -6.78292E+03  6.20945E+03 -1.71741E+03
  6.90570E+03  3.54343E+03  2.37326E+03  6.07070E+03 -1.47537E+03  6.84071E+03 -4.71094E+03  3.84744E+03
 -6.21265E+03  2.49806E+02 -4.96224E+03 -4.37094E+03 -1.86374E+02 -5.77452E+03  2.11140E+03 -4.60117E+03
  4.43169E+03 -1.87575E+03  2.79259E+03  7.90710E+02  1.08469E+03  1.89736E+03  1.18526E+03  5.79917E+02
  2.48621E+03  8.98167E+02  2.45766E+03  1.15204E+03  2.32056E+03  2.66898E+03  2.19601E+03  3.16253E+03
 -1.88308E+03  4.88096E+03 -3.88889E+03  6.04128E+03 -5.76476E+03  1.74489E+03 -7.05527E+03 -2.56177E+03
 -3.33388E+03 -6.17605E+03  1.10357E+03 -7.86021E+03  3.75044E+03 -5.02325E+03  5.88673E+03 -1.77186E+03
  3.83428E+03  2.47761E+03  7.34010E+02  3.84758E+03 -1.78212E+03  1.98257E+03 -2.14344E+03 -5.51669E+02
 -1.38579E+03 -2.75997E+03  1.77300E+03 -3.19302E+03  2.23001E+03 -2.08334E+03  2.88433E+03  2.84059E+02
  1.47842E+03  8.89163E+02  1.10816E+02  4.44905E+02 -6.14720E+02  1.00452E+03  2.25486E+03 -5.88083E+02
  1.12609E+03  1.19296E+02  2.44560E+03  1.29375E+03  1.33507E+03  3.80605E+03 -3.76783E+02  4.28831E+03
 -2.43486E+03  2.65142E+03 -3.69434E+03  2.41053E+02 -3.55117E+03 -1.21143E+03 -1.34815E+03 -2.13814E+03
  6.13257E+02 -2.50528E+03  1.48152E+03 -8.64384E+02  1.09584E+03  1.36680E+03 -8.41156E+02  1.73359E+03
 -2.62135E+03  1.03932E+03 -2.02586E+03 -1.87546E+03 -1.96280E+03 -3.00553E+03  3.71272E+02 -2.59781E+03
  9.54773E+02 -1.77855E+03  1.52007E+03  1.00657E+02  2.15166E+03  8.12152E+02  7.82667E+02  1.50286E+03
 -8.71529E+02 -3.07581E+02 -1.75181E+03 -8.87203E+02  1.06514E+03 -1.97651E+03  2.62644E+03 -1.93939E+03
  3.30083E+03  5.27827E+02  3.81150E+03  2.22799E+03  1.25774E+03  3.41029E+03 -8.52170E+02  3.93350E+03
 -3.22888E+03  1.01809E+03 -3.18232E+03 -6.59059E+01 -1.32745E+03 -2.21690E+03  1.02882E+03 -1.41710E+03
  2.53657E+03 -1.16147E+03  1.95858E+03  1.12013E+03  4.03178E+02  1.87841E+03  9.71438E+01  1.84953E+03
 -5.54342E+02  1.46509E+03 -1.08845E+03  4.26517E+02 -7.75611E+02 -2.98436E+01 -1.06069E+03  1.15222E+03
 -6.35097E+02  1.06510E+03 -3.58954E+03  1.37978E+03 -2.94326E+03  1.22949E+02 -4.49138E+03 -2.40569E+03
 -2.22029E+03 -4.40266E+03  1.01079E+03 -5.09563E+03  2.36983E+03 -4.98388E+03  4.87855E+03 -1.74547E+03
  4.28996E+03  2.61655E+02  2.50903E+03  3.89498E+03 -1.43188E+02  3.18608E+03 -2.06545E+03  1.95518E+03
 -2.47644E+03  1.65781E+03 -1.48008E+03 -1.55016E+02 -7.97671E+02 -2.51697E+02 -4.86816E+02 -3.44940E+02
 -1.16498E+03 -5.32246E+01 -1.01075E+03  3.66106E+02 -3.14908E+02 -7.78328E+02 -1.45898E+02 -1.01926E+03
  1.75739E+03 -1.29322E+03  1.37423E+03 -3.50972E+02  2.61074E+03  1.80728E+03  2.24252E+02  3.13525E+03
 -1.54453E+03  4.37726E+03 -3.28529E+03  2.57374E+03 -3.56074E+03 -1.62820E+01 -3.26317E+03 -2.72704E+03
 -1.63779E+03 -3.24585E+03  7.36721E+02 -2.90581E+03  1.58046E+03 -1.47653E+03  1.04715E+03  9.23115E+00
  1.06902E+03  7.59175E+02 -6.18604E+02  7.92735E+02 -5.37419E+02  5.23861E+02 -1.27903E+02 -5.90203E+02
  2.50476E+02 -7.34386E+02  7.63206E+02  3.58330E+02  7.80141E+02  1.16895E+03  1.07501E+02  8.52058E+02
 -1.34208E+03  8.00856E+02 -2.13159E+03 -2.86750E+02 -1.63682E+03 -1.64017E+03  4.03508E+02 -2.30384E+03
  1.08546E+03 -1.74423E+03  1.67427E+03 -2.51710E+02  2.15460E+03 -4.77450E+02  7.02028E+02  1.72191E+03
  6.34338E+02  1.71711E+03 -1.21931E+03  2.12794E+03 -1.19920E+03  1.36056E+03 -4.30553E+02  4.52979E+02
 -8.06318E+02 -5.53405E+02 -1.70195E+02  9.90062E+02 -1.47403E+03  4.88693E+02 -2.02066E+03 -5.65587E+02
 -1.69618E+03 -3.52188E+02 -3.66102E+02 -1.63180E+03  1.12235E+03 -2.67376E+03  1.40355E+03 -1.02907E+03
  2.07282E+03  3.90912E+02  5.89078E+02  9.39172E+02  5.91413E+01  1.96792E+03 -1.04242E+03  1.47965E+03
