 $NMID ID='MM_0lb_SNR400_7hz_g50_58.RAW', FMTDAT='(8E13.5)'
 TRAMP=1., VOLUME=1. $END
  3.09670E+05  2.79884E+02  3.37975E+05  2.50341E+05  8.50145E+04  3.37885E+05 -1.32334E+05  2.51881E+05
 -1.91560E+05  8.40681E+04 -1.14433E+05 -3.26011E+04  3.21931E+02 -5.07109E+04  5.37715E+04 -3.54209E+02
  3.50154E+04  5.29677E+04 -1.69580E+04  7.58532E+04 -6.09397E+04  6.51614E+04 -8.55907E+04  3.16720E+04
 -8.26779E+04 -1.21299E+04 -5.82911E+04 -5.26882E+04 -1.54266E+04 -7.19919E+04  2.84246E+04 -4.67838E+04
  4.12112E+04  3.51688E+03  1.64305E+04  4.84498E+04 -3.57246E+04  4.90625E+04 -6.86230E+04  5.44501E+02
 -5.50105E+04 -5.88111E+04 -8.00523E+03 -7.93992E+04  3.41439E+04 -5.78840E+04  4.97237E+04 -1.81702E+04
  4.66294E+04  1.13977E+04  3.34014E+04  2.66053E+04  1.61583E+04  3.09655E+04 -6.45170E+03  2.79420E+04
 -2.21304E+04  1.21806E+04 -1.81733E+04 -6.47640E+03  7.59832E+03 -7.87941E+03  2.41161E+04  1.41841E+04
  7.50649E+03  3.74396E+04 -3.47329E+04  3.71919E+04 -6.65595E+04  2.01640E+03 -5.92156E+04 -4.48778E+04
 -1.30667E+04 -6.67829E+04  4.23502E+04 -4.82880E+04  6.30614E+04 -2.32058E+03  3.80239E+04  3.49306E+04
 -5.12057E+03  4.13170E+04 -3.31389E+04  1.91014E+04 -3.46303E+04 -2.29340E+03 -1.99902E+04 -1.20336E+04
 -9.71962E+03 -1.53021E+04 -1.13195E+03 -2.06791E+04  8.35834E+03 -2.40369E+04  1.66317E+04 -1.27724E+04
  1.11000E+04  6.49866E+03 -1.07877E+04  1.32094E+04 -2.48112E+04 -7.60797E+03 -8.60875E+03 -3.88882E+04
  2.51526E+04 -4.84937E+04  5.41821E+04 -2.08572E+04  5.05775E+04  2.07370E+04  1.78592E+04  4.79877E+04
 -1.66152E+04  3.65502E+04 -2.85026E+04  2.70477E+03 -1.19508E+04 -3.01473E+04  2.14775E+04 -3.78956E+04
  4.58201E+04 -1.17307E+04  4.27021E+04  2.54204E+04  2.30659E+04  5.33101E+04 -7.75293E+03  5.84549E+04
 -3.72165E+04  3.95459E+04 -4.99533E+04  1.15707E+04 -5.02310E+04 -1.99135E+04 -2.81280E+04 -4.36672E+04
  8.25190E+03 -4.41539E+04  3.55893E+04 -1.76381E+04  3.34218E+04  1.11873E+04  4.85087E+03  2.25254E+04
 -1.52045E+04  1.01363E+04 -1.13664E+04 -7.52284E+03  5.03472E+03 -1.13641E+04  1.97385E+04  5.46857E+03
  1.55106E+04  2.31543E+04 -4.83703E+03  2.77669E+04 -2.38597E+04  1.55974E+04 -3.28500E+04 -1.49178E+03
 -2.67949E+04 -1.83066E+04 -1.20920E+04 -2.66291E+04  5.91289E+03 -2.83655E+04  2.18165E+04 -2.54582E+04
  3.45573E+04 -1.51016E+04  4.01951E+04  5.90576E+03  2.74097E+04  2.56151E+04  4.60789E+03  4.29635E+04
 -1.98102E+04  3.54132E+04 -3.23341E+04  1.14922E+04 -2.30863E+04 -9.80156E+03 -4.81897E+03 -1.26294E+04
  2.02649E+02  5.17382E+02 -8.99518E+03  9.71139E+03 -2.20248E+04  4.40580E+03 -2.17986E+04 -1.04666E+04
 -1.20129E+04 -2.52107E+04  6.85367E+03 -3.00890E+04  2.00022E+04 -2.06995E+04  2.38607E+04 -2.41857E+03
  1.52002E+04  1.74912E+04 -6.94511E+02  2.53360E+04 -1.78661E+04  1.48293E+04 -2.62563E+04 -5.65712E+03
 -1.78963E+04 -2.26429E+04 -2.84633E+03 -3.07685E+04  1.32311E+04 -2.55945E+04  2.47302E+04 -1.33279E+04
  2.38483E+04 -7.15967E+02  1.68521E+04  5.60890E+03  1.00738E+04  1.45694E+03  1.34232E+04 -2.89625E+03
  2.39257E+04  2.70438E+03  2.84085E+04  1.99277E+04  1.97937E+04  4.17678E+04 -3.27739E+03  4.79781E+04
 -2.75449E+04  4.13685E+04 -4.65213E+04  2.15814E+04 -5.00074E+04 -3.78162E+03 -4.00388E+04 -2.91339E+04
 -1.55351E+04 -4.19486E+04  1.53413E+04 -3.64488E+04  3.00875E+04 -1.68989E+04  2.66968E+04  9.53429E+03
  8.25004E+03  2.03625E+04 -1.36124E+04  1.73592E+04 -2.24363E+04  3.25177E+03 -1.66079E+04 -1.37871E+04
 -4.78363E+02 -2.12855E+04  1.17164E+04 -1.59144E+04  1.51183E+04 -9.51570E+02  3.93407E+03  1.10130E+04
 -9.68467E+03  5.66986E+03 -1.11257E+04 -7.65295E+03 -2.94239E+03 -1.97192E+04  1.28985E+04 -2.30534E+04
  2.62469E+04 -1.26303E+04  3.03366E+04  3.12434E+03  2.64181E+04  2.15316E+04  1.23020E+04  3.27474E+04
 -6.84680E+03  3.53663E+04 -2.31645E+04  2.18820E+04 -2.55866E+04  5.03358E+03 -1.70219E+04 -7.78414E+03
 -6.80291E+03 -8.08106E+03 -8.13635E+02 -8.22745E+02 -3.67934E+03  3.31951E+03 -8.56327E+03  5.56287E+03
 -1.61303E+04 -1.91018E+03 -1.61847E+04 -1.25115E+04 -5.89094E+03 -2.10394E+04  6.26310E+03 -1.71308E+04
  1.38520E+04 -6.18635E+03  1.00305E+04  4.49643E+03 -3.74070E+02  6.99767E+03 -9.24363E+03 -7.60844E+02
 -8.76455E+03 -1.01209E+04 -5.99217E+02 -1.71660E+04  1.05031E+04 -1.87832E+04  2.27026E+04 -1.01889E+04
  2.74480E+04  2.02952E+03  1.89541E+04  1.62117E+04  3.94020E+03  2.20795E+04 -1.05058E+04  1.81936E+04
 -1.45038E+04  4.02343E+03 -6.96296E+03 -4.15242E+03  2.19994E+03 -4.98752E+03  9.88934E+03 -1.56715E+03
  8.63469E+03  8.17996E+03  1.40016E+02  1.53167E+04 -1.04196E+04  1.42167E+04 -1.87361E+04  2.96436E+03
 -1.27612E+04 -9.55902E+03 -3.73235E+02 -1.60631E+04  1.00393E+04 -7.32448E+03  1.16298E+04  3.71783E+03
  2.53724E+03  1.16655E+04 -9.79783E+03  1.33960E+04 -1.64124E+04  6.45390E+03 -1.72704E+04 -6.94868E+03
 -9.83307E+03 -1.88819E+04  5.15680E+03 -2.30307E+04  1.85661E+04 -1.40566E+04  2.03489E+04  3.14938E+03
  1.12897E+04  1.65801E+04 -2.73403E+03  1.80757E+04 -1.37801E+04  1.04961E+04 -1.50991E+04 -2.37524E+03
 -1.26138E+04 -1.21205E+04 -3.13972E+03 -1.49646E+04  7.04120E+03 -1.21590E+04  8.77290E+03 -3.94201E+03
  5.59388E+03  1.78853E+03 -2.23032E+03  1.70554E+03 -2.23619E+03 -5.11055E+03  4.07401E+03 -9.36600E+03
  1.41787E+04 -6.66302E+03  1.97108E+04  2.01911E+03  2.01480E+04  1.40238E+04  1.12475E+04  2.57116E+04
 -6.71070E+03  2.88382E+04 -2.30410E+04  2.10204E+04 -3.11865E+04  4.39407E+03 -2.59376E+04 -1.03766E+04
 -1.22795E+04 -2.08227E+04 -3.80775E+02 -1.77615E+04  5.89247E+03 -9.67539E+03  6.16284E+03 -5.77262E+03
  4.60504E+03 -3.79814E+03  4.13889E+03 -3.85138E+03  5.56113E+03 -4.27486E+03  9.89510E+03 -2.63341E+03
  1.33741E+04  2.78983E+03  6.67126E+03  1.14650E+04 -2.51074E+03  1.32942E+04 -1.35393E+04  1.02554E+04
 -1.76769E+04 -7.89190E+02 -1.19170E+04 -1.28201E+04 -2.40446E+03 -1.92391E+04  1.00449E+04 -1.94404E+04
  2.05018E+04 -9.80181E+03  2.38810E+04  4.84373E+03  1.63716E+04  1.65579E+04  2.55982E+03  2.19843E+04
 -9.93648E+03  1.73442E+04 -1.32982E+04  5.52104E+03 -1.00167E+04 -1.33277E+03 -4.29254E+03 -3.62492E+03
 -2.08566E+03 -1.69751E+02 -2.82035E+03  3.31538E+03 -7.83632E+03  2.09013E+03 -1.21605E+04 -2.22084E+03
 -9.76960E+03 -1.20831E+04  3.46434E+02 -1.84321E+04  1.09285E+04 -1.66195E+04  1.94570E+04 -5.58769E+03
  1.79589E+04  9.03790E+03  9.18799E+03  1.70592E+04 -3.80355E+03  2.00693E+04 -1.42429E+04  1.10462E+04
 -1.63623E+04  7.94560E+02 -1.38950E+04 -1.14567E+04 -2.20463E+03 -1.59713E+04  8.29337E+03 -1.25239E+04
  1.14736E+04 -3.21021E+03  8.37220E+03  2.54690E+03  2.70959E+03  5.11350E+03  1.94438E+03  2.54240E+03
  2.73391E+03  1.85012E+03  4.57144E+03  2.26131E+03  6.33332E+03  5.51025E+03  4.97438E+03  1.03660E+04
 -3.90886E+03  1.48584E+04 -1.30638E+04  1.52251E+04 -2.04691E+04  4.21251E+03 -2.02879E+04 -9.01914E+03
 -9.48180E+03 -2.04926E+04  2.99124E+03 -2.02270E+04  1.18743E+04 -1.42554E+04  1.65099E+04 -3.66607E+03
  1.12041E+04  7.01607E+03  2.43052E+03  1.10357E+04 -4.65204E+03  6.43566E+03 -8.84213E+03 -1.45019E+03
 -3.75729E+03 -8.42033E+03  3.82743E+03 -8.83481E+03  9.31153E+03 -4.65097E+03  7.73508E+03  1.42164E+03
  5.40602E+03  4.32460E+03  2.32165E+03  2.73095E+03 -1.10019E+03  2.42996E+03  1.58831E+03 -3.71413E+02
  3.12154E+03 -2.02279E+03  8.52664E+03  3.27172E+03  5.06017E+03  9.97911E+03 -2.87112E+03  1.37227E+04
 -9.77644E+03  9.84045E+03 -1.25844E+04  2.58587E+03 -1.10380E+04 -4.23175E+03 -5.35895E+03 -7.91256E+03
  1.22207E+03 -7.60783E+03  5.05952E+03 -2.80938E+03  4.38322E+03  3.08510E+03 -4.46628E+02  6.77971E+03
 -7.12849E+03  3.37911E+03 -1.00757E+04 -4.58114E+03 -6.20391E+03 -1.10810E+04  1.90015E+03 -1.12420E+04
  6.54666E+03 -6.54814E+03  9.09149E+03 -2.84766E+03  6.32437E+03  2.13970E+03  9.62188E+02  5.49991E+03
 -3.97159E+03  2.44853E+03 -5.21283E+03 -3.54345E+03  1.98235E+03 -8.49973E+03  1.02530E+04 -7.26451E+03
  1.28402E+04  8.13056E+02  1.20591E+04  1.03738E+04  4.05122E+03  1.40508E+04 -4.07572E+03  1.26374E+04
 -1.06154E+04  6.45300E+03 -1.18927E+04 -2.09639E+03 -6.10626E+03 -8.30549E+03  2.41421E+03 -8.92969E+03
  8.21311E+03 -5.04840E+03  7.12590E+03  3.64369E+03  2.03843E+03  7.80976E+03 -2.02219E+03  6.68128E+03
 -3.87460E+03  5.09696E+03 -2.99016E+03  1.92457E+03 -1.76978E+03  1.57310E+03 -2.88007E+03  3.26171E+03
 -3.38173E+03  5.13551E+03 -9.57672E+03  5.25424E+03 -1.36845E+04 -3.31579E+02 -1.61523E+04 -8.63974E+03
 -8.90950E+03 -1.81170E+04  3.45621E+03 -2.14510E+04  1.34710E+04 -1.63914E+04  2.00126E+04 -6.30510E+03
  1.94110E+04  3.70476E+03  1.19825E+04  1.32588E+04  1.13591E+03  1.54092E+04 -4.90860E+03  1.09041E+04
 -8.26410E+03  3.97543E+03 -5.12338E+03 -7.86329E+02 -1.42591E+03 -2.21312E+03  3.22253E+02  3.65194E+02
 -3.26308E+03  5.67754E+01 -3.42736E+03 -1.74496E+02 -7.31147E+02 -3.03702E+03  5.94227E+02 -6.17540E+03
  6.05414E+03 -4.68213E+03  8.82178E+03 -3.03635E+02  1.09811E+04  8.41276E+03  3.69594E+03  1.39335E+04
 -7.09826E+03  1.60608E+04 -1.61251E+04  1.02636E+04 -1.78450E+04 -1.70334E+03 -1.30808E+04 -1.17002E+04
 -6.51451E+03 -1.51763E+04  3.44470E+03 -1.57252E+04  9.75540E+03 -7.18082E+03  1.03592E+04 -2.36243E+02
  4.97461E+03  5.07564E+03 -1.40054E+02  3.89421E+03 -3.00264E+03 -2.18845E+02  4.65887E+02 -3.58369E+03
  4.71476E+03 -2.46586E+03  6.64885E+03  1.72585E+03  4.57275E+03  6.28579E+03  7.40591E+02  7.56652E+03
 -7.22560E+03  7.02657E+03 -1.04725E+04  6.91824E+02 -9.10438E+03 -7.52656E+03 -1.22570E+03 -1.29530E+04
  7.48391E+03 -1.08628E+04  1.20614E+04 -3.38175E+03  1.21616E+04  4.03324E+03  5.89904E+03  9.30144E+03
  8.63774E+02  1.11368E+04 -3.68416E+03  8.14955E+03 -6.60544E+03  3.97411E+03 -5.38792E+03  4.08926E+02
 -2.36419E+03  7.97881E+01 -2.84294E+03  1.04779E+03 -5.40110E+03  2.57246E+03 -7.49136E+03 -1.23044E+03
 -6.66821E+03 -5.98861E+03 -2.56728E+03 -1.02706E+04  4.86249E+03 -1.20227E+04  8.82012E+03 -5.86966E+03
  9.66197E+03  1.53620E+03  5.89943E+03  7.03364E+03 -5.92503E+02  1.01064E+04 -7.52583E+03  7.00386E+03
