 $NMID ID='MM_0lb_SNR400_8hz_g45_98.RAW', FMTDAT='(8E13.5)'
 TRAMP=1., VOLUME=1. $END
  3.09879E+05  9.96355E+00  3.38204E+05  2.50848E+05  8.49270E+04  3.38193E+05 -1.33192E+05  2.52058E+05
 -1.90633E+05  8.38255E+04 -1.12094E+05 -3.22393E+04 -1.13615E+02 -5.12809E+04  5.31017E+04 -5.00618E+02
  3.55538E+04  5.28562E+04 -1.69019E+04  7.63451E+04 -6.16139E+04  6.47595E+04 -8.57633E+04  3.30163E+04
 -8.22077E+04 -1.23247E+04 -5.80981E+04 -5.27469E+04 -1.52859E+04 -7.09850E+04  2.87844E+04 -4.73447E+04
  4.09383E+04  3.39027E+03  1.72007E+04  4.88639E+04 -3.47615E+04  4.72431E+04 -6.80713E+04  6.55802E+02
 -5.58908E+04 -5.82793E+04 -6.74674E+03 -7.89952E+04  3.50601E+04 -5.75389E+04  4.97183E+04 -1.81905E+04
  4.59417E+04  1.16082E+04  3.39477E+04  2.66869E+04  1.46509E+04  3.09626E+04 -6.52713E+03  2.82012E+04
 -2.21151E+04  1.19124E+04 -1.76035E+04 -5.38579E+03  7.10236E+03 -7.01891E+03  2.36613E+04  1.35712E+04
  6.85971E+03  3.76287E+04 -3.38950E+04  3.64196E+04 -6.54320E+04  1.80467E+03 -5.92784E+04 -4.48593E+04
 -1.21873E+04 -6.63742E+04  4.14446E+04 -4.78572E+04  6.15067E+04 -3.57664E+03  3.69628E+04  3.40085E+04
 -6.09459E+03  3.98618E+04 -3.23914E+04  1.88640E+04 -3.39730E+04 -3.33343E+03 -1.96447E+04 -1.24012E+04
 -1.00720E+04 -1.56703E+04 -1.07628E+03 -1.87536E+04  9.67032E+03 -2.33791E+04  1.62805E+04 -1.32237E+04
  1.10448E+04  6.17418E+03 -1.17485E+04  1.31197E+04 -2.41349E+04 -6.69402E+03 -8.15911E+03 -3.75723E+04
  2.43777E+04 -4.76524E+04  5.26013E+04 -2.07940E+04  4.80660E+04  2.19154E+04  1.66730E+04  4.70796E+04
 -1.70691E+04  3.57105E+04 -2.80842E+04  1.97101E+03 -1.25049E+04 -2.96164E+04  2.13330E+04 -3.74799E+04
  4.49187E+04 -1.02955E+04  4.01489E+04  2.55358E+04  2.04969E+04  5.12587E+04 -8.98026E+03  5.67318E+04
 -3.53830E+04  3.85861E+04 -4.79104E+04  1.09157E+04 -4.78969E+04 -1.88217E+04 -2.69424E+04 -4.26016E+04
  8.56060E+03 -4.30759E+04  3.45549E+04 -1.78343E+04  3.21730E+04  1.06866E+04  6.30243E+03  2.08755E+04
 -1.43774E+04  9.89276E+03 -1.13698E+04 -7.39074E+03  5.59508E+03 -1.23096E+04  1.92032E+04  5.20099E+03
  1.52386E+04  2.26629E+04 -5.34535E+03  2.72121E+04 -2.32852E+04  1.45190E+04 -3.19296E+04 -2.71876E+03
 -2.53179E+04 -1.83962E+04 -1.23867E+04 -2.56161E+04  3.50534E+03 -2.71941E+04  2.03662E+04 -2.40388E+04
  3.21517E+04 -1.43968E+04  3.93281E+04  4.98361E+03  2.76597E+04  2.47250E+04  4.14963E+03  4.22477E+04
 -2.03400E+04  3.47045E+04 -3.08705E+04  1.24352E+04 -2.23099E+04 -9.92356E+03 -5.03708E+03 -1.23965E+04
  5.86472E+02 -6.06250E+02 -8.40610E+03  8.54171E+03 -2.09484E+04  4.69946E+03 -2.12842E+04 -9.86215E+03
 -1.34607E+04 -2.26462E+04  6.40732E+03 -2.76665E+04  1.96092E+04 -2.03220E+04  2.31242E+04 -2.05975E+03
  1.47399E+04  1.70074E+04 -1.97383E+03  2.34119E+04 -1.70603E+04  1.38437E+04 -2.40031E+04 -4.58899E+03
 -1.77264E+04 -2.11053E+04 -1.76393E+03 -2.79790E+04  1.31090E+04 -2.43518E+04  2.35305E+04 -1.17733E+04
  2.33136E+04 -3.61365E+01  1.61713E+04  5.52326E+03  8.83908E+03  1.53430E+03  1.34008E+04 -2.93423E+03
  2.32231E+04  2.98494E+03  2.57905E+04  1.85367E+04  1.77838E+04  3.93344E+04 -2.12293E+03  4.65208E+04
 -2.59801E+04  3.79448E+04 -4.35705E+04  1.94224E+04 -4.56476E+04 -2.55115E+03 -3.76783E+04 -2.79381E+04
 -1.38166E+04 -3.86027E+04  1.33957E+04 -3.35886E+04  2.80570E+04 -1.54810E+04  2.50122E+04  8.77112E+03
  6.91452E+03  1.99015E+04 -1.21425E+04  1.64666E+04 -1.98733E+04  1.83125E+03 -1.64766E+04 -1.36966E+04
 -2.77956E+02 -2.02004E+04  1.00007E+04 -1.48105E+04  1.33774E+04 -1.34760E+03  2.55955E+03  8.89841E+03
 -9.18478E+03  5.02611E+03 -9.50208E+03 -7.68299E+03 -2.71717E+03 -1.83901E+04  1.24114E+04 -2.13723E+04
  2.28901E+04 -1.17948E+04  2.69338E+04  2.55934E+03  2.40677E+04  1.92355E+04  1.10042E+04  2.99550E+04
 -6.45726E+03  3.20238E+04 -2.01509E+04  2.07600E+04 -2.42154E+04  4.41504E+03 -1.65420E+04 -5.81977E+03
 -7.06026E+03 -7.94317E+03 -7.88774E+02  7.82646E+02 -3.37753E+03  3.32505E+03 -7.49713E+03  4.94050E+03
 -1.45410E+04 -1.41013E+03 -1.51872E+04 -1.17895E+04 -5.53932E+03 -1.97933E+04  6.52273E+03 -1.62924E+04
  1.30161E+04 -7.70142E+03  8.83222E+03  4.61629E+03 -4.78709E+02  6.96306E+03 -8.10620E+03 -4.23554E+02
 -8.46619E+03 -1.08738E+04 -1.76910E+03 -1.70839E+04  9.69949E+03 -1.68247E+04  2.05417E+04 -8.27033E+03
  2.42777E+04  2.73658E+03  1.82055E+04  1.43044E+04  2.87744E+03  2.02556E+04 -1.06438E+04  1.61551E+04
 -1.27656E+04  5.32174E+03 -7.07491E+03 -3.83803E+03  2.59506E+03 -4.69100E+03  8.38846E+03 -1.45290E+03
  6.72927E+03  7.73592E+03  1.60528E+03  1.30086E+04 -9.19118E+03  1.22495E+04 -1.63844E+04  3.10871E+03
 -1.03718E+04 -9.35359E+03  3.16955E+02 -1.42132E+04  9.47877E+03 -7.08824E+03  1.02901E+04  3.02166E+03
  2.50043E+03  1.02739E+04 -9.54527E+03  1.24677E+04 -1.50454E+04  5.71052E+03 -1.55285E+04 -5.50520E+03
 -8.44087E+03 -1.66736E+04  4.07884E+03 -1.95745E+04  1.57958E+04 -1.12762E+04  1.89221E+04  2.59874E+03
  1.00512E+04  1.42514E+04 -1.25412E+03  1.74653E+04 -1.17846E+04  8.56324E+03 -1.36996E+04 -1.24776E+03
 -1.13102E+04 -1.08369E+04 -1.45858E+03 -1.26155E+04  6.73423E+03 -1.08827E+04  8.34904E+03 -3.43559E+03
  4.62048E+03  2.33601E+03 -1.05358E+03  2.08310E+03 -7.21152E+02 -4.17379E+03  2.80822E+03 -7.93409E+03
  1.22915E+04 -5.31875E+03  1.67827E+04  1.61079E+03  1.69247E+04  1.15299E+04  9.68007E+03  2.24997E+04
 -5.66856E+03  2.58587E+04 -2.12160E+04  1.89357E+04 -2.77787E+04  3.38825E+03 -2.28617E+04 -9.60886E+03
 -1.13968E+04 -1.77103E+04 -1.79130E+02 -1.59596E+04  6.04876E+03 -8.43958E+03  5.65189E+03 -5.84567E+03
  4.38812E+03 -3.32858E+03  4.59594E+03 -4.18475E+03  6.15625E+03 -3.68420E+03  8.39888E+03 -1.40874E+03
  1.10326E+04  3.03124E+03  7.55653E+03  1.06942E+04 -2.85334E+03  1.28804E+04 -1.20342E+04  8.96086E+03
 -1.63968E+04 -1.24043E+03 -1.01594E+04 -1.11540E+04 -1.58166E+03 -1.75508E+04  8.44238E+03 -1.68218E+04
  1.68882E+04 -8.68366E+03  2.10500E+04  3.62325E+03  1.46025E+04  1.44897E+04  2.00248E+03  1.88294E+04
 -7.95461E+03  1.48592E+04 -1.06676E+04  5.19760E+03 -8.74283E+03 -2.01129E+03 -3.86988E+03 -1.90476E+03
 -9.13145E+02 -5.68141E+02 -2.99560E+03  4.15977E+03 -5.94977E+03  3.11136E+03 -1.04382E+04 -1.85390E+03
 -8.24261E+03 -1.04506E+04  5.32359E+01 -1.48011E+04  1.04886E+04 -1.50396E+04  1.67952E+04 -4.35336E+03
  1.62402E+04  7.41147E+03  7.00039E+03  1.48031E+04 -3.40394E+03  1.65940E+04 -1.20296E+04  1.02428E+04
 -1.52521E+04  3.30347E+02 -1.17885E+04 -9.69363E+03 -5.97980E+02 -1.38482E+04  6.88189E+03 -1.04119E+04
  1.01143E+04 -2.69895E+03  6.91066E+03  3.02857E+03  2.81451E+03  4.03856E+03  6.64422E+02  1.85760E+03
  3.15925E+03  1.03113E+03  3.17826E+03  1.73956E+03  4.64088E+03  5.66972E+03  4.22907E+03  7.68604E+03
 -3.56795E+03  1.28330E+04 -1.12190E+04  1.22997E+04 -1.78016E+04  3.02297E+03 -1.64187E+04 -6.67201E+03
 -8.85530E+03 -1.63988E+04  3.07332E+03 -1.76937E+04  1.09830E+04 -1.16379E+04  1.33532E+04 -3.10943E+03
  1.02588E+04  6.36019E+03  1.96913E+03  1.00800E+04 -4.96680E+03  6.24848E+03 -7.07008E+03 -1.85760E+03
 -3.68575E+03 -6.69141E+03  4.73420E+03 -8.31606E+03  7.40969E+03 -3.29182E+03  7.06462E+03  2.00035E+03
  3.75256E+03  3.51160E+03  1.48576E+03  2.77497E+03 -1.03386E+03  1.70186E+03  1.60127E+03  4.02994E+02
  2.80848E+03 -1.02598E+03  7.57762E+03  2.85374E+03  4.00596E+03  9.46864E+03 -1.12708E+03  1.26297E+04
 -8.55437E+03  8.01718E+03 -1.07143E+04  2.57625E+03 -9.41617E+03 -4.06142E+03 -4.01994E+03 -5.77776E+03
  5.13570E+02 -6.63294E+03  3.91121E+03 -3.20149E+03  3.81585E+03  3.71340E+03 -1.55817E+03  4.07999E+03
 -7.37309E+03  4.61946E+03 -9.15585E+03 -4.10910E+03 -4.28177E+03 -7.96248E+03  2.24782E+03 -1.00784E+04
  5.14295E+03 -6.70622E+03  6.67927E+03 -6.76544E+02  5.13027E+03  3.01672E+03  8.11492E+02  4.87106E+03
 -3.52866E+03  1.46885E+03 -3.94670E+03 -4.23229E+03  9.86735E+02 -6.54246E+03  8.31954E+03 -6.24973E+03
  1.15178E+04  1.44038E+03  9.70037E+03  7.57043E+03  3.56323E+03  1.12761E+04 -3.94158E+03  1.09558E+04
 -9.63412E+03  4.94341E+03 -9.38583E+03 -1.70857E+03 -6.02838E+03 -7.33615E+03  2.39923E+03 -6.27695E+03
  7.27237E+03 -2.64503E+03  6.62830E+03  2.05248E+03  2.23205E+03  6.37859E+03 -6.68875E+02  5.58635E+03
 -3.47134E+03  4.35974E+03 -2.00434E+03  1.47377E+03 -7.32821E+02  1.22293E+03 -1.85008E+03  2.52540E+03
 -2.42192E+03  5.31343E+03 -7.71650E+03  4.75516E+03 -1.07421E+04  8.91875E+01 -1.19453E+04 -8.42113E+03
 -6.69549E+03 -1.49025E+04  2.76788E+03 -1.80845E+04  1.06763E+04 -1.33885E+04  1.64969E+04 -5.37042E+03
  1.55174E+04  3.32061E+03  1.01724E+04  1.09337E+04  1.63204E+03  1.13674E+04 -4.38260E+03  8.76188E+03
 -7.43687E+03  4.00875E+03 -4.71452E+03 -1.62666E+03 -9.59595E+02 -1.02790E+03 -1.06997E+02  5.25763E+01
 -1.21276E+03  3.04311E+01 -2.64263E+03 -3.46716E+02 -1.24522E+03 -3.00120E+03  1.04433E+03 -4.28437E+03
  5.42312E+03 -3.61886E+03  7.05458E+03  1.22522E+02  9.43762E+03  6.20697E+03  2.02785E+03  1.27730E+04
 -5.77771E+03  1.36652E+04 -1.21590E+04  7.51443E+03 -1.54187E+04 -1.51441E+03 -1.07472E+04 -8.67341E+03
 -3.92844E+03 -1.17856E+04  2.49555E+03 -1.22187E+04  7.37758E+03 -5.65131E+03  8.52056E+03  1.21545E+03
  3.69457E+03  4.11015E+03 -1.13094E+03  3.45835E+03 -1.68936E+03 -2.96249E+01 -6.87556E+02 -2.51520E+03
  3.58225E+03 -1.86176E+03  4.56232E+03  6.88083E+02  3.51105E+03  4.02310E+03  1.92874E+02  6.89081E+03
 -5.15947E+03  6.12455E+03 -8.21024E+03  8.80213E+02 -7.59423E+03 -6.80615E+03 -7.97793E+02 -1.03110E+04
  5.36630E+03 -8.57957E+03  9.69225E+03 -2.79419E+03  8.95190E+03  2.60438E+03  5.54041E+03  7.73285E+03
  1.09792E+03  8.09703E+03 -3.33719E+03  6.10715E+03 -5.16078E+03  3.05008E+03 -4.31346E+03  3.01816E+02
 -2.68008E+03  1.42904E+02 -2.18289E+03  1.01206E+03 -4.34738E+03  1.64267E+03 -6.03425E+03 -9.39804E+02
 -5.98009E+03 -3.27181E+03 -1.90627E+03 -8.52970E+03  3.58356E+03 -8.39583E+03  6.71473E+03 -4.56121E+03
  8.41048E+03  5.86753E+02  4.08391E+03  5.53217E+03 -7.51160E+02  9.16947E+03 -6.71668E+03  4.98179E+03
