 $NMID ID='MM_0lb_SNR400_13hz_g55_28.RAW', FMTDAT='(8E13.5)'
 TRAMP=1., VOLUME=1. $END
  3.09488E+05  1.26105E+03  3.37576E+05  2.50263E+05  8.48388E+04  3.38283E+05 -1.32261E+05  2.51164E+05
 -1.90610E+05  8.34180E+04 -1.12305E+05 -3.27182E+04  3.24327E+02 -5.02839E+04  5.36215E+04 -4.45100E+02
  3.56205E+04  5.29587E+04 -1.67529E+04  7.58216E+04 -6.13693E+04  6.35311E+04 -8.44176E+04  3.21485E+04
 -8.12066E+04 -1.15225E+04 -5.77017E+04 -5.08673E+04 -1.55469E+04 -7.01544E+04  2.77924E+04 -4.60866E+04
  4.06645E+04  4.08074E+03  1.61426E+04  4.76995E+04 -3.46784E+04  4.77687E+04 -6.73114E+04  3.04156E+02
 -5.36818E+04 -5.75158E+04 -6.62063E+03 -7.78867E+04  3.39925E+04 -5.50230E+04  4.84993E+04 -1.76782E+04
  4.38003E+04  1.11666E+04  3.23585E+04  2.58286E+04  1.62753E+04  2.97474E+04 -5.68370E+03  2.77136E+04
 -2.27377E+04  1.29531E+04 -1.83896E+04 -4.87063E+03  5.84393E+03 -7.72788E+03  2.26790E+04  1.33438E+04
  7.03642E+03  3.62235E+04 -3.26920E+04  3.68913E+04 -6.46638E+04  2.40074E+03 -5.72248E+04 -4.33272E+04
 -1.24901E+04 -6.42927E+04  4.08770E+04 -4.63183E+04  5.98496E+04 -2.54178E+03  3.52080E+04  3.32366E+04
 -6.13855E+03  3.70621E+04 -3.04014E+04  1.79212E+04 -3.07056E+04 -4.09701E+03 -1.78544E+04 -1.19183E+04
 -8.82241E+03 -1.39560E+04 -7.14278E+02 -1.87025E+04  7.89895E+03 -2.29683E+04  1.63950E+04 -1.30139E+04
  1.18516E+04  5.48366E+03 -8.54989E+03  1.25163E+04 -2.26605E+04 -5.15211E+03 -8.46651E+03 -3.54173E+04
  2.35578E+04 -4.48202E+04  4.99897E+04 -1.99235E+04  4.63607E+04  1.94130E+04  1.60147E+04  4.46790E+04
 -1.61347E+04  3.43627E+04 -2.63536E+04  1.76434E+03 -1.04063E+04 -2.77617E+04  2.08493E+04 -3.50119E+04
  4.22280E+04 -9.58415E+03  3.74827E+04  2.42752E+04  2.00988E+04  4.81358E+04 -8.36743E+03  5.21560E+04
 -3.29843E+04  3.50601E+04 -4.39121E+04  1.01521E+04 -4.48788E+04 -1.75299E+04 -2.42112E+04 -3.95811E+04
  7.32023E+03 -3.98152E+04  3.27388E+04 -1.50065E+04  3.06171E+04  1.07903E+04  4.81873E+03  1.99817E+04
 -1.40674E+04  8.84132E+03 -1.04925E+04 -7.44658E+03  6.38292E+03 -1.17792E+04  1.80056E+04  5.87421E+03
  1.35579E+04  2.22401E+04 -4.95414E+03  2.60376E+04 -2.32674E+04  1.32894E+04 -2.97722E+04 -3.89229E+03
 -2.25965E+04 -1.76495E+04 -8.89856E+03 -2.12866E+04  3.97795E+03 -2.18472E+04  1.70536E+04 -1.96864E+04
  2.83323E+04 -1.37770E+04  3.39407E+04  3.49225E+03  2.46968E+04  2.18871E+04  4.91334E+03  3.81070E+04
 -1.82995E+04  3.17606E+04 -2.86790E+04  1.10495E+04 -2.10152E+04 -9.98368E+03 -4.34503E+03 -1.33370E+04
  1.87124E+03 -2.25479E+03 -6.12800E+03  6.84160E+03 -1.70877E+04  5.35143E+03 -1.75799E+04 -7.61372E+03
 -1.06900E+04 -2.00933E+04  5.43035E+03 -2.43655E+04  1.60971E+04 -1.80217E+04  1.94267E+04 -1.92150E+03
  1.19198E+04  1.38237E+04 -8.24940E+02  1.98552E+04 -1.38778E+04  1.21546E+04 -2.00526E+04 -3.67139E+03
 -1.52371E+04 -1.79395E+04 -2.28358E+03 -2.52841E+04  1.12697E+04 -1.98561E+04  1.96527E+04 -1.03972E+04
  1.85686E+04 -1.02060E+01  1.38397E+04  4.55444E+03  7.64728E+03  2.17149E+03  1.03197E+04 -2.01299E+03
  1.83461E+04  3.26532E+03  2.09088E+04  1.60903E+04  1.32928E+04  3.31732E+04 -3.30129E+03  3.75202E+04
 -2.16899E+04  3.01562E+04 -3.44980E+04  1.53216E+04 -3.68841E+04 -2.09818E+03 -3.01981E+04 -2.12639E+04
 -1.27424E+04 -3.12104E+04  1.14523E+04 -2.71130E+04  2.33363E+04 -1.28564E+04  2.08094E+04  6.91461E+03
  7.15819E+03  1.56693E+04 -1.01067E+04  1.34287E+04 -1.72973E+04  2.29900E+03 -1.30105E+04 -1.06607E+04
  9.13385E+01 -1.62259E+04  8.77871E+03 -1.24533E+04  1.07696E+04 -1.74709E+03  2.60649E+03  7.42147E+03
 -7.97069E+03  2.92543E+03 -6.91836E+03 -6.01792E+03 -1.24771E+03 -1.54954E+04  1.07041E+04 -1.60030E+04
  1.92704E+04 -8.10291E+03  1.94751E+04  3.09832E+03  1.74626E+04  1.51545E+04  7.90578E+03  2.31595E+04
 -3.68914E+03  2.49326E+04 -1.61359E+04  1.52196E+04 -1.74768E+04  3.69396E+03 -1.24024E+04 -3.84368E+03
 -5.61711E+03 -5.25700E+03 -8.88286E+02  1.48617E+03 -2.72765E+03  2.11032E+03 -6.05190E+03  4.60039E+03
 -1.16368E+04 -8.99086E+02 -1.21468E+04 -1.03930E+04 -4.76848E+03 -1.59833E+04  4.82511E+03 -1.25649E+04
  1.08376E+04 -5.88792E+03  7.39076E+03  3.54523E+03 -6.82904E+01  5.01238E+03 -5.74527E+03  6.42497E+02
 -5.50137E+03 -8.02770E+03 -9.11331E+02 -1.23632E+04  6.37100E+03 -1.26123E+04  1.62670E+04 -6.73031E+03
  1.86275E+04  1.34740E+03  1.33258E+04  1.04814E+04  3.14686E+03  1.44291E+04 -7.94314E+03  1.26857E+04
 -1.00520E+04  4.36234E+03 -5.14679E+03 -1.77247E+03  1.94392E+03 -3.98827E+03  6.69016E+03 -1.08824E+03
  5.72903E+03  5.27795E+03  1.27581E+03  9.67493E+03 -6.98564E+03  9.22887E+03 -1.20970E+04  2.10339E+03
 -7.90653E+03 -6.61565E+03 -3.66728E+02 -1.03081E+04  6.27644E+03 -5.08862E+03  7.21287E+03  2.53848E+03
  1.56277E+03  7.30233E+03 -6.26544E+03  8.35523E+03 -9.75213E+03  3.80493E+03 -9.40317E+03 -3.12647E+03
 -5.44735E+03 -1.16343E+04  3.17872E+03 -1.32829E+04  1.07798E+04 -8.15890E+03  1.27696E+04  1.64974E+03
  7.14025E+03  1.02610E+04 -6.43351E+02  1.23429E+04 -9.34031E+03  6.71759E+03 -9.35659E+03 -7.89209E+02
 -8.61107E+03 -7.70104E+03 -9.60378E+02 -8.92742E+03  4.55135E+03 -8.11470E+03  5.29565E+03 -3.87439E+03
  3.40957E+03  7.95269E+02 -6.27295E+02  1.28987E+03 -1.21042E+02 -1.73945E+03  1.53607E+03 -4.36886E+03
  7.92188E+03 -2.78905E+03  1.08448E+04  1.65099E+03  1.04763E+04  7.81301E+03  8.06988E+03  1.43107E+04
 -2.70616E+03  1.66487E+04 -1.31637E+04  1.18669E+04 -1.82203E+04  2.59045E+03 -1.41874E+04 -6.13998E+03
 -7.52586E+03 -1.18346E+04 -2.60547E+02 -1.02811E+04  4.66565E+03 -5.69361E+03  3.83007E+03 -3.78790E+03
  2.23640E+03 -2.63209E+03  3.06908E+03 -3.51737E+03  4.59694E+03 -2.12100E+03  5.72453E+03 -1.75145E+02
  7.77967E+03  2.27456E+03  3.33897E+03  6.58643E+03 -1.75973E+03  6.92579E+03 -7.53795E+03  5.28297E+03
 -1.01184E+04 -1.38035E+03 -5.79628E+03 -6.59821E+03 -6.52156E+02 -1.12758E+04  6.26274E+03 -1.05532E+04
  1.01994E+04 -5.87292E+03  1.34368E+04  1.27549E+03  9.12300E+03  8.26569E+03  1.69458E+03  1.20506E+04
 -4.69911E+03  1.04910E+04 -6.92437E+03  3.34985E+03 -4.98255E+03 -1.56575E+03 -1.48721E+03 -1.07225E+03
 -1.33639E+03  6.09873E+02 -1.53550E+03  2.50978E+03 -4.69901E+03  1.31839E+03 -6.77826E+03 -1.40140E+03
 -4.01403E+03 -6.78775E+03  2.32398E+02 -9.46304E+03  6.20748E+03 -9.39578E+03  9.32961E+03 -3.26804E+03
  9.63619E+03  4.93247E+03  4.17719E+03  8.50942E+03 -2.21329E+03  9.32652E+03 -6.77493E+03  5.92351E+03
 -8.18629E+03  6.93406E+02 -6.85780E+03 -5.58834E+03  2.46745E+01 -7.82526E+03  4.54383E+03 -5.94018E+03
  5.94816E+03 -2.13606E+03  3.91747E+03  1.46915E+03  1.30591E+03  2.87478E+03  1.49668E+03  1.26183E+03
  2.42586E+03  8.11707E+02  2.32321E+03  2.06635E+03  2.83128E+03  3.85305E+03  2.43742E+03  3.76010E+03
 -2.73367E+03  7.20341E+03 -6.48176E+03  7.74944E+03 -9.01136E+03  2.94230E+03 -9.93651E+03 -4.16689E+03
 -4.45385E+03 -8.68508E+03  1.45476E+03 -1.04297E+04  5.26470E+03 -6.07641E+03  7.80965E+03 -1.86535E+03
  5.37584E+03  3.44276E+03  7.90393E+02  5.26239E+03 -2.24679E+03  3.50889E+03 -3.22644E+03 -9.98930E+02
 -1.63205E+03 -3.51862E+03  2.44139E+03 -3.76720E+03  3.19632E+03 -2.59587E+03  3.54259E+03  1.18922E+03
  2.78868E+03  1.74761E+03  8.32446E+02  9.79442E+02 -3.23444E+02  1.63487E+03  1.60803E+03  1.67970E+02
  1.48319E+03 -3.38035E+02  3.48668E+03  1.89910E+03  1.35796E+03  5.41202E+03 -1.02063E+03  6.90762E+03
 -3.78085E+03  3.38540E+03 -5.87538E+03  6.52453E+02 -4.45160E+03 -2.27840E+03 -1.32862E+03 -2.87332E+03
  2.02378E+02 -3.51188E+03  3.18417E+03 -1.85185E+03  1.48360E+03  2.09412E+03 -1.18335E+03  3.01415E+03
 -3.64218E+03  1.66237E+03 -4.53822E+03 -2.04084E+03 -2.13564E+03 -4.97058E+03  3.76484E+02 -4.13991E+03
  2.45028E+03 -2.20035E+03  2.77457E+03 -5.95491E+02  3.30367E+03  6.55000E+02  1.94545E+02  2.43921E+03
 -9.53197E+02  1.92592E+02 -1.92674E+03 -1.49793E+03  1.09333E+03 -2.85412E+03  4.32930E+03 -2.85015E+03
  4.67802E+03  5.26034E+01  5.43522E+03  3.38386E+03  2.37175E+03  5.36552E+03 -1.59555E+03  5.08574E+03
 -4.51374E+03  1.92969E+03 -4.24027E+03 -7.42456E+02 -2.05961E+03 -3.43563E+03  1.62812E+02 -3.36288E+03
  3.39262E+03 -1.50356E+03  2.65875E+03  1.85193E+03  1.67054E+03  2.63361E+03 -3.59630E+02  2.85784E+03
 -1.19859E+03  2.13534E+03 -1.21337E+03  7.27937E+02  1.50455E+02  4.10681E+02 -2.58762E+02  4.91478E+02
 -1.43186E+03  1.31960E+03 -4.30023E+03  1.49079E+03 -5.13543E+03  6.61746E+02 -5.98627E+03 -3.41089E+03
 -2.45318E+03 -7.10281E+03  1.29252E+03 -7.72358E+03  4.67165E+03 -6.39752E+03  7.10096E+03 -2.55698E+03
  7.09428E+03  8.11745E+02  3.52035E+03  5.15471E+03 -2.06618E+02  4.75578E+03 -1.88974E+03  4.51139E+03
 -2.58782E+03  1.55228E+03 -1.75883E+03 -4.66095E+02 -1.48349E+03 -2.18822E+02 -1.06506E+03 -1.12952E+02
 -1.41536E+03  4.13099E+02 -1.97530E+03 -2.75837E+02 -2.35169E+02 -1.36372E+03 -2.25758E+02 -1.07042E+03
  3.04975E+03 -1.53409E+03  2.27973E+03 -2.06316E+02  2.99646E+03  3.43266E+03  6.85037E+02  5.23371E+03
 -3.28845E+03  6.21385E+03 -5.37042E+03  3.42391E+03 -5.89256E+03 -1.07710E+03 -3.89985E+03 -3.99081E+03
 -2.20034E+03 -4.58500E+03  1.37553E+03 -4.62996E+03  3.06818E+03 -3.06480E+03  3.18279E+03 -1.65914E+02
  2.27897E+03  1.51894E+03 -2.56649E+02  1.05465E+03 -6.78221E+02 -2.12026E+02 -1.70652E+02 -1.20489E+03
  1.67939E+03 -6.43679E+02  2.59779E+03  1.05495E+03  7.51548E+02  1.69441E+03  4.02310E+02  2.34545E+03
 -2.02814E+03  2.13956E+03 -2.65337E+03  2.77707E+02 -3.38016E+03 -1.71894E+03 -5.09997E+02 -4.37742E+03
  2.46664E+03 -2.63171E+03  3.57951E+03 -1.00849E+03  4.03641E+03 -6.78330E+02  2.00848E+03  2.79055E+03
  3.28349E+02  3.07764E+03 -1.59529E+03  2.05686E+03 -2.05158E+03  7.59199E+02 -1.51392E+03  6.45173E+02
 -1.29449E+03  2.17899E+02 -1.69787E+03 -2.05576E+02 -1.50214E+03  4.36274E+02 -1.93019E+03 -1.08513E+03
 -2.77558E+03 -1.35191E+03 -1.02853E+03 -2.55987E+03  1.40849E+03 -3.89567E+03  3.48425E+03 -1.29504E+03
  3.01917E+03  7.14987E+02  1.14859E+03  1.76338E+03 -3.89708E+02  2.65124E+03 -1.68774E+03  2.48600E+03
