 $NMID ID='MM_0lb_SNR400_16hz_g50_59.RAW', FMTDAT='(8E13.5)'
 TRAMP=1., VOLUME=1. $END
  3.09840E+05  2.77008E+02  3.37134E+05  2.50334E+05  8.43745E+04  3.38012E+05 -1.32385E+05  2.50706E+05
 -1.89999E+05  8.32684E+04 -1.11575E+05 -3.31452E+04  1.20640E+03 -5.13080E+04  5.43864E+04  4.67553E+02
  3.50406E+04  5.27033E+04 -1.66396E+04  7.53760E+04 -6.07163E+04  6.34080E+04 -8.33431E+04  3.22577E+04
 -8.06740E+04 -1.13432E+04 -5.64820E+04 -5.13338E+04 -1.52542E+04 -6.86277E+04  2.74364E+04 -4.55837E+04
  4.02469E+04  3.46195E+03  1.60697E+04  4.73067E+04 -3.44650E+04  4.65910E+04 -6.65317E+04  1.00075E+02
 -5.23452E+04 -5.69337E+04 -6.34464E+03 -7.58006E+04  3.37149E+04 -5.37891E+04  4.77073E+04 -1.68534E+04
  4.31936E+04  1.06854E+04  3.14084E+04  2.51485E+04  1.56907E+04  2.90994E+04 -5.61898E+03  2.74661E+04
 -2.15670E+04  1.26159E+04 -1.87454E+04 -4.58888E+03  5.07262E+03 -7.68858E+03  2.23664E+04  1.14635E+04
  6.71639E+03  3.45378E+04 -3.15865E+04  3.41665E+04 -6.24865E+04  2.66534E+03 -5.60447E+04 -4.23059E+04
 -1.23747E+04 -6.29467E+04  3.87849E+04 -4.51229E+04  5.74814E+04 -1.94069E+03  3.33762E+04  3.16687E+04
 -6.47919E+03  3.49905E+04 -2.94193E+04  1.50141E+04 -2.95758E+04 -4.83027E+03 -1.61075E+04 -1.03178E+04
 -8.09177E+03 -1.28194E+04 -4.22147E+02 -1.76764E+04  7.02273E+03 -2.23648E+04  1.50943E+04 -1.33313E+04
  1.22305E+04  4.95792E+03 -7.64150E+03  1.34491E+04 -2.12239E+04 -3.96749E+03 -7.95099E+03 -3.24291E+04
  2.19443E+04 -4.27539E+04  4.69384E+04 -1.85462E+04  4.37224E+04  1.84151E+04  1.55464E+04  4.33087E+04
 -1.59860E+04  3.26087E+04 -2.48236E+04  1.97084E+03 -9.58772E+03 -2.71842E+04  2.08249E+04 -3.28960E+04
  3.99450E+04 -8.20112E+03  3.40798E+04  2.32569E+04  1.68779E+04  4.47821E+04 -7.56486E+03  4.88176E+04
 -2.98761E+04  3.13474E+04 -4.02794E+04  9.08275E+03 -4.12437E+04 -1.53601E+04 -2.20997E+04 -3.68693E+04
  6.96267E+03 -3.66655E+04  3.06216E+04 -1.43593E+04  2.84056E+04  1.03833E+04  3.86513E+03  1.80356E+04
 -1.35146E+04  8.18153E+03 -9.74117E+03 -7.23232E+03  6.29745E+03 -1.09962E+04  1.72836E+04  6.42612E+03
  1.33465E+04  2.17010E+04 -6.21770E+03  2.44199E+04 -2.11858E+04  1.04720E+04 -2.66246E+04 -5.64485E+03
 -2.00264E+04 -1.70441E+04 -7.06240E+03 -1.90872E+04  3.71543E+03 -1.78135E+04  1.40893E+04 -1.70856E+04
  2.37416E+04 -1.26086E+04  3.04195E+04  1.49893E+03  2.27145E+04  1.85400E+04  4.28992E+03  3.52240E+04
 -1.72934E+04  2.95548E+04 -2.71651E+04  1.03446E+04 -2.01789E+04 -1.06979E+04 -3.95079E+03 -1.36781E+04
  2.07212E+03 -3.29685E+03 -3.76205E+03  5.98424E+03 -1.52874E+04  5.30376E+03 -1.51038E+04 -6.03139E+03
 -9.33615E+03 -1.77759E+04  4.94418E+03 -2.14735E+04  1.37380E+04 -1.52631E+04  1.67603E+04 -1.51773E+03
  1.11201E+04  1.25757E+04 -7.25679E+02  1.73525E+04 -1.16488E+04  9.78729E+03 -1.71968E+04 -3.99581E+03
 -1.33584E+04 -1.59547E+04 -1.91873E+03 -2.10145E+04  1.04970E+04 -1.67037E+04  1.77918E+04 -8.57753E+03
  1.64082E+04  3.60097E+02  1.24287E+04  4.36761E+03  6.42948E+03  1.02606E+03  8.34363E+03 -1.70528E+03
  1.59266E+04  2.75209E+03  1.69696E+04  1.41125E+04  1.08362E+04  2.73767E+04 -3.69059E+03  3.12492E+04
 -1.80586E+04  2.41318E+04 -2.93552E+04  1.19032E+04 -3.00955E+04 -2.40641E+03 -2.50491E+04 -1.72392E+04
 -1.06396E+04 -2.48113E+04  8.19266E+03 -2.28522E+04  1.85909E+04 -1.21795E+04  1.76647E+04  4.92905E+03
  6.58895E+03  1.27871E+04 -8.15814E+03  1.18261E+04 -1.53303E+04  2.98877E+03 -1.13874E+04 -8.80221E+03
  2.64619E+02 -1.42701E+04  6.62345E+03 -1.10179E+04  9.65747E+03 -1.93214E+03  2.07502E+03  5.96582E+03
 -6.59208E+03  1.95833E+03 -4.99039E+03 -4.84664E+03  4.76724E+02 -1.25302E+04  8.98392E+03 -1.22810E+04
  1.47489E+04 -6.48946E+03  1.53006E+04  2.97067E+03  1.34755E+04  1.17546E+04  6.18247E+03  1.78002E+04
 -2.22005E+03  1.98155E+04 -1.22744E+04  1.22747E+04 -1.40579E+04  2.95879E+03 -1.00772E+04 -2.18380E+03
 -4.99686E+03 -3.68281E+03 -7.79904E+02  1.01118E+03 -1.87078E+03  2.73793E+03 -3.93444E+03  4.23477E+03
 -9.76684E+03 -3.76255E+02 -9.44522E+03 -8.46678E+03 -4.08063E+03 -1.32048E+04  3.57256E+03 -9.76196E+03
  8.54045E+03 -4.25504E+03  5.88383E+03  2.50657E+03  5.10055E+02  4.15036E+03 -4.80514E+03  4.12152E+02
 -4.38190E+03 -5.93372E+03 -1.41303E+03 -9.22090E+03  5.07891E+03 -1.02812E+04  1.28712E+04 -5.29452E+03
  1.40783E+04  6.90455E+02  1.05722E+04  8.27337E+03  2.42402E+03  1.10076E+04 -5.88765E+03  9.22841E+03
 -8.22538E+03  3.41559E+03 -4.44772E+03 -1.47036E+03  1.82601E+03 -2.99005E+03  5.48897E+03 -1.19748E+03
  5.28686E+03  3.63289E+03  7.76844E+02  8.04101E+03 -4.90547E+03  7.44024E+03 -9.69300E+03  2.03370E+03
 -6.04784E+03 -4.17714E+03  7.64134E+02 -8.82478E+03  5.05510E+03 -4.15741E+03  5.09362E+03  1.06958E+03
  7.61639E+02  4.53091E+03 -5.39818E+03  5.91964E+03 -7.07120E+03  2.86628E+03 -6.67968E+03 -2.22855E+03
 -3.91067E+03 -8.23884E+03  1.72023E+03 -9.56808E+03  8.19651E+03 -6.03876E+03  8.57781E+03  1.45007E+03
  5.63336E+03  7.21963E+03  3.38497E+02  9.00769E+03 -6.81742E+03  5.19537E+03 -6.84784E+03 -9.38444E+02
 -7.04371E+03 -5.93918E+03 -1.59427E+03 -6.41473E+03  3.84775E+03 -5.50964E+03  4.11074E+03 -3.20492E+03
  3.70719E+03  3.02029E+02 -4.36946E+02  2.01349E+03  1.94291E+02 -7.65567E+02  1.08667E+02 -3.57487E+03
  5.98174E+03 -1.42842E+03  7.51746E+03  5.32587E+02  7.46991E+03  4.57565E+03  6.02876E+03  1.02273E+04
 -1.97356E+03  1.16715E+04 -1.03820E+04  9.17973E+03 -1.24602E+04  1.60710E+03 -9.81868E+03 -3.86106E+03
 -5.11900E+03 -8.20785E+03 -2.41753E+02 -6.87145E+03  3.25849E+03 -3.75454E+03  1.98930E+03 -2.52822E+03
  1.24375E+03 -2.15127E+03  2.51306E+03 -2.80659E+03  3.71789E+03 -1.90320E+03  4.81958E+03  2.32824E+02
  5.29648E+03  1.64602E+03  2.25300E+03  4.50864E+03 -2.35205E+03  3.69713E+03 -5.50241E+03  4.49826E+03
 -6.64422E+03 -6.74929E+02 -3.38399E+03 -4.35004E+03  2.58601E+02 -6.71081E+03  4.09893E+03 -7.86017E+03
  7.89088E+03 -4.53233E+03  9.52728E+03  9.28812E+02  6.46353E+03  5.66345E+03  1.68369E+03  8.24022E+03
 -3.23075E+03  7.75753E+03 -4.10452E+03  2.20742E+03 -2.78163E+03 -1.03869E+03 -5.43654E+02 -3.94892E+02
 -1.48852E+02  6.25240E+02 -1.32916E+03  2.81394E+03 -2.96580E+03  1.51511E+03 -5.12069E+03 -3.32041E+02
 -2.95800E+03 -4.96613E+03  4.99412E+02 -6.10237E+03  4.18435E+03 -5.54063E+03  5.45569E+03 -1.25823E+03
  6.18613E+03  3.00078E+03  2.68644E+03  5.20464E+03 -1.66985E+03  6.24978E+03 -3.65978E+03  3.75881E+03
 -5.49099E+03  5.41905E+02 -4.39374E+03 -3.31711E+03  1.04625E+02 -5.04728E+03  2.88187E+03 -3.22525E+03
  3.41821E+03 -1.91778E+03  2.92751E+03  1.36570E+03  1.20480E+03  1.77579E+03  1.55185E+03  8.46235E+02
  1.97611E+03  5.21745E+02  1.38111E+03  9.98426E+02  1.86189E+03  2.78636E+03  1.51364E+03  3.35522E+03
 -1.45616E+03  4.64626E+03 -3.76045E+03  4.98613E+03 -4.96511E+03  1.91906E+03 -5.84128E+03 -1.30879E+03
 -2.80477E+03 -5.41900E+03  9.85700E+02 -6.63204E+03  3.27538E+03 -3.28767E+03  4.31833E+03 -6.43561E+02
  4.12729E+03  2.72661E+03 -1.78469E+02  3.37773E+03 -1.08737E+03  1.87659E+03 -1.37831E+03 -4.05160E+02
 -1.28847E+03 -2.71097E+03  1.72870E+03 -2.21547E+03  2.61171E+03 -2.82832E+02  1.79081E+03  4.80676E+02
  1.60213E+03  3.71021E+02  2.98619E+02 -4.94579E+02 -1.81380E+02  1.44805E+03  1.29032E+03  1.08454E+02
  1.56231E+02 -3.46268E+02  2.82948E+03  1.46006E+03  6.77203E+01  2.76743E+03 -1.02796E+03  4.06732E+03
 -2.42065E+03  2.02866E+03 -3.25081E+03  2.57954E+02 -2.78288E+03 -1.17723E+03 -5.99439E+02 -1.37773E+03
  3.03130E+02 -2.34862E+03  1.10794E+03 -9.00676E+02  1.32618E+03  1.07466E+03 -8.92274E+02  1.74783E+03
 -2.11449E+03  1.55398E+03 -1.74160E+03 -1.43639E+03 -1.56653E+03 -3.14327E+03  4.99577E+02 -2.56747E+03
  1.06455E+03 -1.16836E+03  1.92057E+03  1.19594E+02  1.98424E+03  1.68097E+02  7.27716E+02  1.73016E+03
 -1.07056E+03 -3.19143E+02 -1.79565E+03 -3.96081E+02  3.30547E+02 -2.05242E+03  3.28232E+03 -1.86039E+03
  2.29679E+03 -1.99757E+02  4.11415E+03  1.24392E+03  1.40118E+03  2.36582E+03 -1.22344E+03  2.41600E+03
 -2.24661E+03  1.59941E+03 -1.89543E+03 -9.34375E+02 -1.59674E+03 -2.42216E+03  7.63639E+02 -1.53386E+03
  2.37429E+03 -1.69354E+03  1.42424E+03  7.97630E+02  1.07565E+03  2.23095E+03  2.43316E+02  1.62336E+03
 -4.08331E+02  1.81209E+03 -8.59724E+02  7.39367E+02  4.02337E+02  6.43264E+02 -1.07576E+03  7.32764E+02
 -1.05822E+03  1.32447E+03 -2.84385E+03  6.58251E+02 -3.32002E+03 -2.09494E+00 -4.06561E+03 -1.79797E+03
 -1.48064E+03 -3.73457E+03  6.25422E+02 -3.94264E+03  1.96542E+03 -2.86953E+03  3.77214E+03 -1.71358E+03
  4.00818E+03  4.29292E+02  1.93114E+03  3.03985E+03 -7.51851E+02  2.89298E+03 -9.42546E+02  1.56568E+03
 -1.62019E+03  1.00806E+03 -7.88046E+02  8.82751E+00 -3.51924E+02  5.58847E+02 -1.27814E+03 -2.41680E+02
 -1.18049E+03 -4.10147E+02 -1.19037E+03  5.11238E+02  3.11950E+02 -4.81178E+02 -3.61073E+02 -1.56051E+03
  1.50873E+03 -1.08683E+03  9.70286E+02 -5.72719E+01  1.62687E+03  1.16570E+03  9.36293E+01  2.70529E+03
 -1.11253E+03  3.09487E+03 -2.15311E+03  1.89954E+03 -2.57690E+03 -9.02920E+02 -2.48531E+03 -2.38893E+03
 -1.61698E+03 -2.24682E+03  4.69905E+02 -2.32675E+03  3.66792E+02 -1.71673E+03  1.92618E+03  4.08104E+02
  1.30314E+03  1.26919E+03 -3.76353E+02  4.32503E+02 -5.82582E+02 -2.35936E+02  5.91680E+02  6.49552E+01
  8.94202E+02  1.66349E+02  8.83833E+02  7.14984E+02  3.05813E+02  1.00029E+03  4.74531E+02  4.28045E+02
 -1.14446E+03  1.15050E+03 -1.37838E+03  2.63223E+02 -1.22240E+03 -1.20009E+03 -2.15627E+02 -1.88374E+03
  5.98986E+02 -1.46185E+03  1.68240E+03 -3.40471E+02  1.48700E+03  5.68424E+00  3.97685E+02  1.40086E+03
  3.51379E+02  8.60657E+02 -5.23761E+02  1.66345E+03 -1.01467E+03  9.17411E+02 -6.98909E+02  4.32855E+02
  1.74654E+02 -4.89375E+02 -1.00702E+03  1.29106E+02 -1.14861E+03  7.88311E+02 -8.03020E+02 -4.19458E+02
 -1.20137E+03 -7.40511E+02 -6.25108E+02 -9.49762E+02  1.44770E+03 -2.24021E+03  1.99162E+03 -8.22629E+02
  1.78083E+03 -3.08182E+02  1.99293E+01  1.03773E+03 -1.79935E+02  9.33551E+02 -9.01263E+02  1.64549E+03
