 $NMID ID='MM_0lb_SNR400_17hz_g50_53.RAW', FMTDAT='(8E13.5)'
 TRAMP=1., VOLUME=1. $END
  3.09686E+05 -2.79189E+02  3.37169E+05  2.50715E+05  8.40767E+04  3.37723E+05 -1.32380E+05  2.50691E+05
 -1.89624E+05  8.28253E+04 -1.11529E+05 -3.30720E+04  1.12948E+03 -5.06541E+04  5.41499E+04 -4.33800E+02
  3.54667E+04  5.22009E+04 -1.72379E+04  7.51249E+04 -6.05616E+04  6.29209E+04 -8.39022E+04  3.15327E+04
 -8.05947E+04 -1.11671E+04 -5.69052E+04 -5.03435E+04 -1.49378E+04 -6.91084E+04  2.75876E+04 -4.47139E+04
  3.94378E+04  3.96351E+03  1.54000E+04  4.77101E+04 -3.38004E+04  4.68842E+04 -6.60506E+04 -6.77777E+02
 -5.30493E+04 -5.68542E+04 -5.90276E+03 -7.62652E+04  3.32788E+04 -5.40100E+04  4.68420E+04 -1.70673E+04
  4.31484E+04  1.15750E+04  3.13672E+04  2.48462E+04  1.56193E+04  2.89144E+04 -5.16485E+03  2.62583E+04
 -2.16984E+04  1.26638E+04 -1.91749E+04 -4.35280E+03  5.00983E+03 -7.42960E+03  2.16837E+04  1.11708E+04
  7.26846E+03  3.47315E+04 -3.08912E+04  3.47504E+04 -6.21244E+04  1.82532E+03 -5.58697E+04 -4.19464E+04
 -1.25529E+04 -6.13715E+04  3.85162E+04 -4.37461E+04  5.64925E+04 -1.48546E+03  3.25266E+04  3.07281E+04
 -5.77262E+03  3.41482E+04 -2.95886E+04  1.44116E+04 -2.88001E+04 -5.38831E+03 -1.57198E+04 -1.01436E+04
 -7.33745E+03 -1.20669E+04 -1.11191E+03 -1.72395E+04  6.50935E+03 -2.30395E+04  1.44611E+04 -1.36614E+04
  1.19603E+04  4.50757E+03 -6.90881E+03  1.28011E+04 -1.98927E+04 -3.20322E+03 -7.82150E+03 -3.21029E+04
  2.17706E+04 -4.18482E+04  4.56818E+04 -1.94937E+04  4.28722E+04  1.89990E+04  1.47458E+04  4.32115E+04
 -1.56574E+04  3.20481E+04 -2.41738E+04  1.37299E+03 -9.01766E+03 -2.67383E+04  2.02783E+04 -3.17916E+04
  3.90119E+04 -8.19114E+03  3.31599E+04  2.33301E+04  1.61730E+04  4.42477E+04 -7.77556E+03  4.73114E+04
 -2.99799E+04  3.16070E+04 -3.98077E+04  8.46988E+03 -4.03052E+04 -1.59584E+04 -2.21697E+04 -3.56842E+04
  7.21196E+03 -3.53859E+04  2.94847E+04 -1.32763E+04  2.80602E+04  1.04574E+04  2.99061E+03  1.84123E+04
 -1.29586E+04  7.93376E+03 -1.04338E+04 -7.77840E+03  5.88682E+03 -1.06539E+04  1.72329E+04  6.10952E+03
  1.28014E+04  2.16919E+04 -6.52218E+03  2.40680E+04 -2.20056E+04  9.99588E+03 -2.62604E+04 -5.34988E+03
 -1.83560E+04 -1.67339E+04 -7.25543E+03 -1.87004E+04  4.19665E+03 -1.66504E+04  1.39203E+04 -1.55770E+04
  2.33454E+04 -1.21457E+04  2.99006E+04  1.96420E+03  2.27366E+04  1.79884E+04  4.35981E+03  3.38353E+04
 -1.66414E+04  2.89573E+04 -2.68987E+04  1.01367E+04 -2.01351E+04 -1.04937E+04 -4.08087E+03 -1.37170E+04
  1.89827E+03 -3.60203E+03 -3.21733E+03  6.13577E+03 -1.41188E+04  5.35236E+03 -1.41595E+04 -5.84960E+03
 -9.35093E+03 -1.67512E+04  4.67806E+03 -2.05529E+04  1.42847E+04 -1.52857E+04  1.62895E+04 -1.53729E+03
  9.90337E+03  1.18933E+04 -1.07349E+03  1.72796E+04 -1.08442E+04  9.66815E+03 -1.65064E+04 -3.35469E+03
 -1.27161E+04 -1.56498E+04 -1.69824E+03 -2.06399E+04  9.16685E+03 -1.63516E+04  1.77763E+04 -8.42056E+03
  1.62823E+04  3.03184E+02  1.16292E+04  4.35077E+03  5.78673E+03  9.11682E+02  8.41415E+03 -1.61829E+03
  1.45980E+04  2.83029E+03  1.64781E+04  1.40246E+04  1.03717E+04  2.64798E+04 -3.34004E+03  2.96095E+04
 -1.74031E+04  2.31360E+04 -2.64815E+04  1.11394E+04 -2.83646E+04 -1.16828E+03 -2.39437E+04 -1.60906E+04
 -1.11604E+04 -2.31438E+04  7.83050E+03 -2.14747E+04  1.88744E+04 -1.19244E+04  1.68536E+04  4.08589E+03
  6.37376E+03  1.23905E+04 -7.80535E+03  1.05791E+04 -1.43138E+04  2.74879E+03 -1.13689E+04 -8.34196E+03
 -5.36677E+02 -1.35235E+04  7.21282E+03 -1.01357E+04  8.49420E+03 -1.21816E+03  1.48820E+03  5.68860E+03
 -6.26966E+03  8.39945E+02 -4.48428E+03 -5.16581E+03  5.39695E+02 -1.14562E+04  8.47611E+03 -1.13452E+04
  1.33332E+04 -5.73463E+03  1.39977E+04  2.73838E+03  1.22756E+04  1.07756E+04  5.08724E+03  1.63576E+04
 -2.72227E+03  1.77563E+04 -1.11293E+04  1.13970E+04 -1.25773E+04  3.17430E+03 -9.43401E+03 -1.98728E+03
 -4.60629E+03 -3.82735E+03 -6.57393E+02  9.29313E+02 -1.59770E+03  2.68818E+03 -3.44750E+03  4.35548E+03
 -8.24721E+03 -1.10761E+03 -9.18376E+03 -7.87472E+03 -3.92991E+03 -1.28423E+04  4.01100E+03 -9.87118E+03
  7.45402E+03 -3.97199E+03  5.57008E+03  2.45860E+03 -2.71281E+02  3.37908E+03 -3.65904E+03 -5.58646E+02
 -3.73518E+03 -5.51968E+03 -7.67764E+02 -8.13230E+03  5.00904E+03 -9.32094E+03  1.14563E+04 -5.05807E+03
  1.32223E+04  1.21850E+03  1.00032E+04  7.39156E+03  1.09925E+03  1.00081E+04 -5.50706E+03  8.84173E+03
 -7.52811E+03  2.94278E+03 -4.48952E+03 -1.41098E+03  1.19894E+03 -2.18252E+03  4.88739E+03 -1.06569E+03
  4.60911E+03  3.76749E+03  1.15035E+03  6.72363E+03 -4.89907E+03  7.13889E+03 -8.63044E+03  1.52285E+03
 -5.26596E+03 -4.57343E+03 -3.04729E+02 -7.39494E+03  4.33472E+03 -4.04672E+03  4.25758E+03  1.46922E+03
  4.30373E+02  4.02386E+03 -5.05716E+03  5.63628E+03 -6.15951E+03  2.09665E+03 -5.82497E+03 -1.64035E+03
 -4.11916E+03 -6.94541E+03  8.25483E+02 -8.23100E+03  7.08483E+03 -5.16617E+03  7.79273E+03  6.70246E+02
  5.44386E+03  6.14215E+03  3.63388E+02  8.18791E+03 -5.64214E+03  4.58489E+03 -6.05037E+03  6.86187E+01
 -6.06873E+03 -5.85818E+03 -1.35385E+03 -6.52856E+03  2.73218E+03 -5.22787E+03  3.80627E+03 -2.97163E+03
  3.28021E+03  6.29116E+02 -4.04437E+02  1.67753E+03 -2.71404E+01  4.75786E+02  2.68574E+02 -2.81639E+03
  4.59943E+03 -1.20278E+03  6.73413E+03  7.87536E+02  6.95693E+03  3.88769E+03  6.07498E+03  9.05220E+03
 -1.64533E+03  1.07166E+04 -9.37926E+03  7.91902E+03 -1.20532E+04  1.43406E+03 -8.98712E+03 -2.57020E+03
 -4.56230E+03 -7.99623E+03  1.08658E+01 -6.33813E+03  2.59336E+03 -2.75579E+03  2.14358E+03 -2.42224E+03
  1.64943E+03 -1.35422E+03  2.64873E+03 -2.31326E+03  3.28593E+03 -1.57742E+03  3.69938E+03  2.04198E+02
  4.95842E+03  1.44196E+03  1.43027E+03  4.30790E+03 -1.64476E+03  3.19983E+03 -5.18134E+03  2.73378E+03
 -6.10691E+03 -1.42687E+03 -3.00803E+03 -3.63706E+03 -4.12130E+02 -5.70647E+03  3.83748E+03 -6.41959E+03
  6.16300E+03 -4.01879E+03  8.31936E+03  9.37867E+02  6.07948E+03  5.29986E+03  1.33521E+03  7.49924E+03
 -2.46165E+03  7.32077E+03 -4.19944E+03  2.44098E+03 -2.31519E+03 -1.29478E+03 -7.12694E+02  1.43168E+02
  1.13127E+02  3.89852E+02 -1.35427E+03  2.27834E+03 -3.40873E+03  8.79024E+02 -4.41607E+03 -6.94794E+02
 -1.90498E+03 -4.81452E+03  3.66400E+02 -5.86530E+03  3.67695E+03 -5.29082E+03  4.65550E+03 -1.96022E+03
  5.22540E+03  2.43787E+03  2.06191E+03  4.45717E+03 -8.72680E+02  5.27835E+03 -3.19732E+03  3.35964E+03
 -4.69548E+03  9.13516E+02 -4.12635E+03 -3.26074E+03  4.65851E+01 -4.35549E+03  2.34538E+03 -2.74194E+03
  3.06669E+03 -6.63001E+02  2.24686E+03  1.30297E+03  1.06456E+03  2.29511E+03  1.56467E+03  4.88009E+02
  1.77507E+03  6.65896E+02  1.76485E+03  1.72146E+03  1.35560E+03  2.31897E+03  1.23042E+03  2.34125E+03
 -1.41400E+03  3.44401E+03 -2.99720E+03  5.00741E+03 -4.33137E+03  1.47770E+03 -5.07047E+03 -9.29957E+02
 -2.64073E+03 -4.94024E+03  5.00979E+02 -5.20809E+03  2.52682E+03 -3.76868E+03  3.18954E+03 -1.08612E+03
  3.09594E+03  1.94886E+03  2.66332E+02  3.20941E+03 -7.98957E+02  1.57669E+03 -1.05053E+03  1.62730E+02
 -8.42489E+02 -1.61512E+03  1.80870E+03 -1.66245E+03  1.71354E+03 -1.25538E+03  1.89241E+03  5.47056E+02
  1.48831E+03  6.49991E+02  1.20574E+03  2.81392E+02 -2.64643E+02  6.13783E+02  1.22689E+03 -4.23731E+02
  3.91629E+02 -5.05185E+02  2.29252E+03  7.81428E+02  1.07208E+03  2.54128E+03 -7.99219E+02  3.52545E+03
 -2.24112E+03  1.32710E+03 -2.42076E+03  2.86578E+02 -2.72974E+03 -7.02520E+02 -1.16070E+02 -1.36676E+03
  5.75022E+02 -1.77949E+03  9.77787E+02 -8.58301E+02  1.05060E+03  1.31329E+03 -9.87868E+02  1.63131E+03
 -1.64095E+03  9.06026E+02 -1.75919E+03 -1.91735E+03 -1.25225E+03 -2.70959E+03  2.81668E+02 -2.70523E+03
  5.12731E+02 -1.69998E+03  1.72895E+03  1.87793E+02  2.31671E+03  1.98994E+02  6.27333E+02  1.29325E+03
 -3.31529E-01  8.29616E+02 -1.54908E+03 -3.70101E+02  4.30431E+02 -2.00347E+03  2.15237E+03 -7.34698E+02
  2.13685E+03  2.99575E+02  3.21657E+03  1.00115E+03  1.40482E+03  2.38033E+03 -5.61533E+02  2.22243E+03
 -1.77031E+03  9.73383E+02 -2.09036E+03 -1.09997E+02 -1.06042E+03 -1.95563E+03  4.59224E+02 -9.70689E+02
  1.70382E+03 -2.22157E+02  1.17570E+03  8.80419E+02 -7.83914E+01  1.73853E+03  3.29473E+02  1.15252E+03
 -8.73012E+02  1.21643E+03 -9.27942E+02 -3.72829E+02 -6.34946E+02  5.18923E+02 -6.33223E+02  9.42399E+02
 -8.47659E+02  8.23204E+02 -1.74981E+03  7.60234E+02 -1.93415E+03 -3.08400E+01 -3.65305E+03 -1.20659E+03
 -1.45302E+03 -2.81475E+03  7.34533E+02 -3.61563E+03  1.73805E+03 -3.66496E+03  4.29420E+03 -1.50598E+03
  3.55244E+03  2.67615E+01  1.52510E+03  2.44902E+03 -4.52694E+01  2.05003E+03 -9.68319E+02  1.41311E+03
 -7.87312E+02  9.52416E+02 -6.67947E+02 -1.50516E+02  1.36600E+02  1.68248E+02 -9.26520E+02  1.92833E+02
 -1.19357E+03 -1.30890E+02 -7.01224E+02 -3.08699E+02  5.11780E+02 -3.83391E+02  2.05479E+02 -9.72514E+02
  6.46540E+02 -3.20444E+02  6.58123E+02  3.51162E+02  1.65689E+03  1.23813E+03  6.34272E+01  1.57218E+03
 -1.09130E+03  3.35209E+03 -2.38450E+03  1.23489E+03 -2.21127E+03 -5.31707E+02 -1.51785E+03 -1.40807E+03
 -1.46451E+03 -2.02559E+03  5.33106E+02 -2.14449E+03  9.56933E+02 -3.79973E+02  9.97761E+02  4.52783E+02
  6.55895E+02  7.55867E+02 -2.75631E+02  6.97438E+02 -1.29270E+03 -1.80175E+02 -3.88231E+02 -3.44790E+02
  1.10771E+03  3.64408E+02  4.71637E+02  2.11072E+02  1.68753E+02  8.07779E+02  4.61782E+02  3.86411E+02
 -8.81867E+02  1.02670E+03 -1.12378E+03  3.17769E+02 -1.20252E+03 -5.17615E+02 -3.76129E+01 -1.50705E+03
  3.48099E+02 -1.44224E+03  8.32036E+02  1.07571E+02  1.11439E+03 -5.87412E+02  6.85455E+02  8.18770E+02
  1.38370E+02  8.32252E+02 -1.77085E+02  5.72575E+02 -1.05477E+03  5.26828E+02 -4.46952E+02 -2.87423E+02
 -2.39252E+02 -4.90185E+01 -6.86118E+01 -1.04460E+02 -7.34617E+02 -2.99060E+02 -6.76174E+02 -5.51271E+02
 -9.22094E+02 -4.84022E+02 -2.14448E+02 -1.77321E+03  9.77563E+02 -2.04927E+03  4.71708E+02 -6.64875E+02
  6.61971E+02  2.26412E+02 -2.94403E+02  6.66308E+02  1.83804E+02  9.29665E+02 -7.49675E+02  1.14350E+03
