 $NMID ID='MM_0lb_SNR400_20hz_g50_72.RAW', FMTDAT='(8E13.5)'
 TRAMP=1., VOLUME=1. $END
  3.09738E+05  3.17124E+01  3.36973E+05  2.50470E+05  8.44260E+04  3.37253E+05 -1.32699E+05  2.50428E+05
 -1.89116E+05  8.23309E+04 -1.11447E+05 -3.29480E+04  1.68073E+03 -4.98192E+04  5.42143E+04  3.21720E+01
  3.50471E+04  5.30282E+04 -1.70321E+04  7.50724E+04 -6.03028E+04  6.25475E+04 -8.31958E+04  3.18494E+04
 -7.93613E+04 -1.15944E+04 -5.65505E+04 -5.02591E+04 -1.48732E+04 -6.79433E+04  2.70843E+04 -4.47254E+04
  3.95608E+04  4.07815E+03  1.50725E+04  4.63780E+04 -3.43682E+04  4.58495E+04 -6.48836E+04 -5.27103E+02
 -5.19730E+04 -5.60132E+04 -6.46635E+03 -7.46431E+04  3.30438E+04 -5.29781E+04  4.58667E+04 -1.57290E+04
  4.13944E+04  1.10002E+04  3.13910E+04  2.46349E+04  1.57214E+04  2.84057E+04 -4.41764E+03  2.72840E+04
 -2.15886E+04  1.28773E+04 -1.96489E+04 -4.23849E+03  3.87976E+03 -7.86286E+03  2.09571E+04  1.11197E+04
  7.47279E+03  3.31790E+04 -3.05660E+04  3.35680E+04 -6.05639E+04  1.96014E+03 -5.51346E+04 -4.00690E+04
 -1.23087E+04 -6.06086E+04  3.76904E+04 -4.35417E+04  5.51617E+04 -2.08766E+03  3.11218E+04  3.04931E+04
 -6.65109E+03  3.32971E+04 -2.84619E+04  1.33260E+04 -2.68698E+04 -5.00850E+03 -1.44477E+04 -1.00090E+04
 -7.24267E+03 -1.12324E+04 -8.80809E+02 -1.64988E+04  6.23704E+03 -2.25059E+04  1.51444E+04 -1.40056E+04
  1.18262E+04  4.06689E+03 -6.16658E+03  1.30594E+04 -1.91400E+04 -2.24209E+03 -7.97812E+03 -2.99394E+04
  2.10380E+04 -3.99755E+04  4.46229E+04 -1.78793E+04  4.09750E+04  1.83068E+04  1.36405E+04  4.10080E+04
 -1.52410E+04  3.05235E+04 -2.29853E+04  1.30886E+03 -7.98238E+03 -2.58606E+04  2.02353E+04 -3.07600E+04
  3.78603E+04 -7.37258E+03  3.07191E+04  2.27809E+04  1.60295E+04  4.20556E+04 -8.23320E+03  4.36187E+04
 -2.83194E+04  2.93805E+04 -3.67761E+04  8.37828E+03 -3.77373E+04 -1.47070E+04 -2.05715E+04 -3.34798E+04
  6.20918E+03 -3.35605E+04  2.92483E+04 -1.21127E+04  2.62699E+04  1.12990E+04  3.11528E+03  1.77322E+04
 -1.22784E+04  7.19880E+03 -9.90155E+03 -7.17157E+03  5.95610E+03 -1.01620E+04  1.69064E+04  6.43047E+03
  1.25402E+04  2.14665E+04 -6.92918E+03  2.25681E+04 -2.13237E+04  8.55803E+03 -2.44136E+04 -6.63755E+03
 -1.61003E+04 -1.62925E+04 -5.37025E+03 -1.60359E+04  3.74226E+03 -1.38993E+04  1.23642E+04 -1.36020E+04
  2.01480E+04 -1.15533E+04  2.68678E+04  9.12023E+02  2.04155E+04  1.57651E+04  4.10458E+03  3.20031E+04
 -1.52135E+04  2.71806E+04 -2.58938E+04  8.61200E+03 -1.92968E+04 -1.02900E+04 -4.10596E+03 -1.43104E+04
  2.24508E+03 -4.29263E+03 -1.97602E+03  5.34709E+03 -1.27752E+04  5.31472E+03 -1.31235E+04 -4.39907E+03
 -8.27620E+03 -1.51478E+04  4.21944E+03 -1.84866E+04  1.23574E+04 -1.35946E+04  1.39671E+04 -1.56938E+03
  8.24569E+03  1.00460E+04 -7.31188E+02  1.51461E+04 -9.93585E+03  8.12241E+03 -1.47323E+04 -3.12288E+03
 -1.13916E+04 -1.36426E+04 -1.57413E+03 -1.82448E+04  8.04895E+03 -1.47761E+04  1.52957E+04 -7.10148E+03
  1.36747E+04  6.94899E+02  9.78642E+03  4.13046E+03  5.21256E+03  4.97008E+02  7.36285E+03 -1.31236E+03
  1.29713E+04  2.35152E+03  1.39482E+04  1.22276E+04  8.37166E+03  2.36874E+04 -3.56959E+03  2.51663E+04
 -1.48012E+04  1.90863E+04 -2.33711E+04  9.37009E+03 -2.29045E+04 -1.75994E+03 -2.07725E+04 -1.29754E+04
 -9.42023E+03 -1.86717E+04  6.42666E+03 -1.75475E+04  1.55939E+04 -1.00588E+04  1.48035E+04  3.33449E+03
  6.34455E+03  1.03883E+04 -6.29857E+03  9.79943E+03 -1.26685E+04  2.33796E+03 -9.94940E+03 -7.64162E+03
 -2.33925E+02 -1.18174E+04  5.98816E+03 -9.00620E+03  7.41511E+03 -1.19282E+03  1.37314E+03  4.78688E+03
 -5.13462E+03  9.93229E+02 -3.38472E+03 -3.91255E+03  1.03920E+03 -9.35749E+03  7.66790E+03 -9.68789E+03
  1.15191E+04 -4.18069E+03  1.05823E+04  2.60776E+03  9.22469E+03  9.10579E+03  4.68654E+03  1.27107E+04
 -1.48431E+03  1.47261E+04 -8.73385E+03  9.66405E+03 -9.97403E+03  2.64186E+03 -7.38792E+03 -1.56911E+03
 -3.68365E+03 -2.74665E+03 -5.43372E+02  1.60013E+03 -2.12532E+03  1.31831E+03 -3.74412E+03  3.89926E+03
 -7.30089E+03 -5.87161E+02 -8.23856E+03 -6.58176E+03 -3.02062E+03 -1.13517E+04  4.01465E+03 -7.58318E+03
  6.62304E+03 -3.85872E+03  5.27835E+03  2.10612E+03  9.23210E+02  2.77657E+03 -2.87756E+03 -1.20420E+02
 -2.56692E+03 -5.09763E+03 -1.93158E+02 -6.48664E+03  3.56726E+03 -7.54598E+03  8.93464E+03 -3.41763E+03
  1.07231E+04  5.78535E+02  7.75784E+03  5.36215E+03  1.46667E+03  7.59991E+03 -4.85971E+03  7.37698E+03
 -6.06369E+03  2.70957E+03 -3.32163E+03 -1.17545E+03  1.55589E+03 -1.53058E+03  4.30679E+03 -1.20488E+03
  3.67654E+03  3.49523E+03  7.22418E+02  5.18480E+03 -4.11478E+03  6.26946E+03 -6.75282E+03  1.47459E+03
 -4.59570E+03 -2.49279E+03  4.59101E+02 -6.08068E+03  2.94962E+03 -3.00047E+03  2.91409E+03  8.36331E+02
  1.57637E+02  2.53668E+03 -4.08109E+03  4.14979E+03 -3.64392E+03  2.10062E+03 -3.97157E+03 -9.96736E+02
 -2.30155E+03 -5.06510E+03  7.79586E+02 -5.87032E+03  4.84895E+03 -3.53547E+03  5.47271E+03  4.90329E+02
  4.35321E+03  4.98316E+03  3.93281E+02  6.13974E+03 -4.62500E+03  4.19859E+03 -4.65900E+03 -2.66282E+02
 -5.15580E+03 -4.51719E+03 -1.50349E+03 -4.48149E+03  2.46210E+03 -4.61686E+03  2.39824E+03 -2.70825E+03
  3.10376E+03 -6.04035E+01  4.27535E+02  1.27073E+03  4.84733E+02 -1.84628E+01 -2.49791E+02 -1.33383E+03
  3.62187E+03 -4.66301E+02  4.37929E+03  5.76167E+02  4.69988E+03  1.60403E+03  4.88009E+03  5.89129E+03
 -6.26659E+02  7.01892E+03 -6.55185E+03  5.34637E+03 -8.93900E+03  1.15733E+03 -6.72519E+03 -2.32476E+03
 -3.57290E+03 -5.32053E+03 -1.95556E+02 -4.27317E+03  1.81873E+03 -1.87448E+03  9.75064E+02 -2.33441E+03
  1.38785E+03 -1.43660E+03  2.11508E+03 -2.10946E+03  3.43039E+03 -5.41056E+02  3.00926E+03  3.98803E+02
  4.03067E+03  7.49899E+02  6.81000E+02  3.01566E+03 -1.08475E+03  2.34293E+03 -3.83382E+03  1.83991E+03
 -3.87472E+03 -4.64300E+02 -9.67256E+02 -2.67506E+03  1.06010E+03 -4.20536E+03  2.56544E+03 -4.52841E+03
  4.38785E+03 -2.90093E+03  5.92086E+03 -9.20213E+01  3.85720E+03  3.07855E+03  1.11925E+03  5.20625E+03
 -9.71373E+02  4.85839E+03 -3.09944E+03  1.43360E+03 -1.63968E+03 -8.18051E+02 -5.09283E+02 -5.19534E+02
 -1.72331E+02  4.67035E+02 -6.59517E+02  1.88865E+03 -2.50064E+03  5.91425E+02 -3.86235E+03 -4.41509E+02
 -9.41413E+02 -3.60766E+03  9.98890E+02 -3.79881E+03  2.18464E+03 -3.75926E+03  2.78085E+03 -7.70668E+02
  3.36478E+03  1.89323E+03  1.36824E+03  2.10249E+03 -4.65414E+02  3.40949E+03 -1.75455E+03  2.52660E+03
 -2.95180E+03  6.74957E+02 -3.24075E+03 -1.82336E+03  2.90153E+02 -3.14375E+03  1.63905E+03 -1.70743E+03
  2.00897E+03 -1.41300E+03  1.48552E+03  4.17402E+02  6.34231E+02  1.63442E+03  6.00353E+02 -6.49481E+01
  1.39354E+03  3.69222E+02  8.36031E+02  1.10836E+03  9.92970E+02  1.91804E+03  1.06804E+03  1.20823E+03
 -1.00806E+03  2.42177E+03 -1.71412E+03  3.75328E+03 -2.06218E+03  1.17701E+03 -3.18874E+03  2.27324E+02
 -1.48925E+03 -2.87619E+03  5.79659E+02 -3.94900E+03  1.35298E+03 -2.25428E+03  2.50730E+03 -7.82627E+02
  1.97271E+03  1.55344E+03  4.52499E+02  1.59730E+03 -4.50449E+02  1.30454E+03 -3.70019E+02  2.49315E+02
 -3.01052E+02 -1.21534E+03  1.39055E+03 -1.28348E+03  7.00967E+02 -7.83817E+02  3.67103E+02  1.66179E+02
  5.81937E+02  1.40662E+02  5.38537E+02 -1.00287E+03 -4.14676E+02  8.85793E+02  1.15713E+03 -3.72484E+02
  5.04931E+01 -9.52136E+01  1.59784E+03  4.63349E+02  4.12765E+02  1.81935E+03 -2.87987E+02  2.31829E+03
 -1.17979E+03  5.65691E+02 -1.27392E+03  4.51373E+02 -1.95620E+03 -1.66088E+02  2.05665E+02 -6.70913E+02
  6.58520E+02 -9.13994E+02  1.06714E+03 -6.78280E+02  4.07974E+02  1.14943E+03 -7.31527E+02  9.83946E+02
 -1.28274E+03  6.33685E+02 -6.03511E+01 -1.42576E+03 -6.09974E+01 -1.73917E+03  5.82652E+02 -1.11594E+03
  3.45662E+01  3.71505E+02  1.44631E+02  5.64577E+02  1.15903E+03 -3.38428E+02  2.58046E+02  6.64771E+02
 -5.35587E+02  4.30118E+01 -3.01902E+02  5.68536E+01  9.61039E+02 -1.70285E+02  1.02806E+03 -8.76962E+02
  9.47866E+02 -6.48502E+01  2.33749E+03  5.63212E+02  8.99283E+02  1.07479E+03  1.36613E+02  1.64361E+03
 -4.53099E+02 -3.31604E+02 -1.15424E+03  6.45179E+01 -7.25615E+02 -8.08636E+02  2.86859E+02  4.78591E+02
  9.68671E+02 -1.09281E+02  3.05603E+02  1.02095E+03  2.20680E+02  8.09142E+02  5.26098E+02  7.34049E+02
 -4.64823E+02  1.06257E+03 -4.02987E+01 -1.38257E+00 -2.21777E+01  1.38667E+02 -5.95082E+02  7.62440E+02
 -3.88149E+02  8.69966E+02 -1.08561E+03  2.90525E+02 -1.22966E+03  2.00159E+02 -2.27243E+03 -1.00738E+03
 -1.05092E+02 -1.46239E+03  1.31883E+02 -2.30640E+03  5.14318E+02 -1.74533E+03  1.57047E+03 -8.05193E+02
  2.06660E+03 -1.38143E+01  7.42540E+02  1.35771E+03 -8.31011E+02  6.05212E+02 -4.02799E+02  1.53391E+03
 -1.00656E+03  9.05397E+02 -1.12959E+03  1.99743E+02 -9.30485E+02 -4.42253E+01 -5.15502E+02 -2.26020E+02
 -1.20697E+03  1.10961E+01 -7.16950E+02 -7.90037E+01  1.96460E+02 -3.83623E+02 -9.08309E+02 -8.97022E+02
  7.21157E+02 -2.82720E+02 -1.98698E+02  3.81117E+02  1.05393E+03  7.73303E+02  1.48799E+02  1.45708E+03
 -5.69840E+02  2.19149E+03 -1.20574E+03  1.25190E+03 -1.76694E+03 -2.80008E+02 -8.58768E+02 -5.51098E+02
 -7.12911E+02 -6.95423E+02  3.29081E+02 -1.01779E+03 -1.25224E+01 -6.70170E+02  2.78282E+02  2.98464E+02
  1.02489E+02  2.66672E+02  4.34600E+02  1.69681E+02 -3.06709E+02 -3.00249E+02 -3.18016E+02  1.75224E+02
 -9.50318E+01  5.48819E+02  7.36896E+01  4.66635E+02 -1.81337E+02  3.40646E+02  6.36030E+02 -1.10118E+02
 -6.61479E+02  4.11217E+02  2.31941E+01 -3.56561E+02 -7.07654E+01 -7.17580E+01 -1.75144E+02 -7.91820E+02
 -3.89767E+01 -2.32954E+02  3.32184E+01  1.90928E+02  1.27056E+03 -4.46408E+02  4.86892E+02  6.49235E+02
  3.52103E+02 -1.28804E+01  1.64730E+02  6.18575E+02 -2.72956E+01  4.62094E+02 -8.64929E+02  2.82648E+02
  1.61003E+02 -4.89427E+02 -6.25077E+02  3.54895E+02 -6.22278E+02 -6.07145E+02 -4.68559E+02 -9.18464E+01
 -9.69949E+02  7.11531E+02 -3.34198E+02 -1.02814E+03  3.87970E+02 -9.46905E+02 -1.75309E+02 -3.19335E+02
 -1.34778E+02 -3.74237E+02 -5.35845E+02 -2.59408E+02 -5.04562E+02  5.92015E+02 -7.68373E+02  3.45388E+02
