 $NMID ID='MM_0lb_SNR400_14hz_g45_72.RAW', FMTDAT='(8E13.5)'
 TRAMP=1., VOLUME=1. $END
  3.09619E+05  5.03523E+02  3.37014E+05  2.50385E+05  8.45084E+04  3.37660E+05 -1.32314E+05  2.51623E+05
 -1.89882E+05  8.31673E+04 -1.11811E+05 -3.29692E+04  8.54665E+02 -5.05728E+04  5.37104E+04  3.51571E+01
  3.53905E+04  5.27049E+04 -1.72351E+04  7.55352E+04 -6.01352E+04  6.32194E+04 -8.34510E+04  3.18623E+04
 -8.07971E+04 -1.13228E+04 -5.70332E+04 -5.06720E+04 -1.56027E+04 -6.97788E+04  2.68417E+04 -4.65970E+04
  3.99953E+04  3.65835E+03  1.68193E+04  4.79337E+04 -3.40148E+04  4.66274E+04 -6.60133E+04 -1.05446E+03
 -5.29873E+04 -5.70124E+04 -6.60669E+03 -7.69265E+04  3.35281E+04 -5.45925E+04  4.73766E+04 -1.72151E+04
  4.34231E+04  1.16146E+04  3.14134E+04  2.52075E+04  1.60103E+04  2.94519E+04 -4.78317E+03  2.70120E+04
 -2.21493E+04  1.18746E+04 -1.85332E+04 -4.39714E+03  5.70225E+03 -7.60257E+03  2.15270E+04  1.21780E+04
  7.68729E+03  3.50382E+04 -3.20329E+04  3.47898E+04 -6.26588E+04  2.18280E+03 -5.72243E+04 -4.27274E+04
 -1.22491E+04 -6.31065E+04  4.01257E+04 -4.48914E+04  5.78893E+04 -2.35420E+03  3.38816E+04  3.22453E+04
 -5.49813E+03  3.54553E+04 -2.97900E+04  1.58156E+04 -3.01796E+04 -4.74310E+03 -1.59694E+04 -1.11563E+04
 -8.42329E+03 -1.30322E+04 -3.12831E+02 -1.75380E+04  7.26560E+03 -2.25989E+04  1.50935E+04 -1.30575E+04
  1.12796E+04  5.35504E+03 -7.96191E+03  1.28930E+04 -2.12789E+04 -4.06429E+03 -8.42458E+03 -3.28645E+04
  2.23286E+04 -4.32718E+04  4.77331E+04 -1.91956E+04  4.51273E+04  1.89134E+04  1.61032E+04  4.40403E+04
 -1.59433E+04  3.31541E+04 -2.53322E+04  1.84110E+03 -9.97041E+03 -2.80300E+04  2.12203E+04 -3.42371E+04
  4.09329E+04 -7.81012E+03  3.48715E+04  2.33501E+04  1.75892E+04  4.61805E+04 -8.01884E+03  4.95878E+04
 -3.14258E+04  3.35821E+04 -4.11394E+04  9.46007E+03 -4.23178E+04 -1.61506E+04 -2.27878E+04 -3.74376E+04
  7.13599E+03 -3.72286E+04  3.15186E+04 -1.42652E+04  2.85018E+04  1.07370E+04  3.83407E+03  1.90931E+04
 -1.36479E+04  8.08871E+03 -1.04936E+04 -7.86879E+03  5.61128E+03 -1.07789E+04  1.82943E+04  6.45458E+03
  1.33885E+04  2.24528E+04 -6.29927E+03  2.47618E+04 -2.23218E+04  1.14566E+04 -2.79291E+04 -4.84090E+03
 -1.98468E+04 -1.75012E+04 -8.25151E+03 -2.02910E+04  3.79919E+03 -1.96150E+04  1.50937E+04 -1.75187E+04
  2.59915E+04 -1.26738E+04  3.26156E+04  2.97035E+03  2.39337E+04  1.97629E+04  4.26711E+03  3.60101E+04
 -1.76003E+04  3.02465E+04 -2.78812E+04  1.02458E+04 -2.04795E+04 -1.02867E+04 -4.41848E+03 -1.40547E+04
  1.70249E+03 -3.22660E+03 -4.41001E+03  6.54885E+03 -1.60491E+04  4.91357E+03 -1.65713E+04 -7.20814E+03
 -9.71991E+03 -1.88700E+04  5.29339E+03 -2.21727E+04  1.57677E+04 -1.68153E+04  1.84597E+04 -1.57202E+03
  1.10996E+04  1.30926E+04 -1.09601E+03  1.88020E+04 -1.33980E+04  1.05258E+04 -1.86807E+04 -3.52765E+03
 -1.36037E+04 -1.67729E+04 -1.64825E+03 -2.21286E+04  1.00835E+04 -1.76279E+04  1.88534E+04 -8.78551E+03
  1.74100E+04  5.03608E+02  1.25274E+04  4.49917E+03  6.24283E+03  1.33860E+03  9.33867E+03 -1.68955E+03
  1.70163E+04  2.55381E+03  1.85103E+04  1.46071E+04  1.20658E+04  3.00055E+04 -3.18907E+03  3.37195E+04
 -1.95619E+04  2.65304E+04 -3.08470E+04  1.40501E+04 -3.32349E+04 -2.17657E+03 -2.72063E+04 -1.90791E+04
 -1.10314E+04 -2.64724E+04  9.69812E+03 -2.49512E+04  2.11108E+04 -1.24918E+04  1.92910E+04  5.60206E+03
  7.30124E+03  1.43226E+04 -9.33639E+03  1.26246E+04 -1.59326E+04  1.63650E+03 -1.24530E+04 -9.51836E+03
 -6.65360E+02 -1.50800E+04  8.55817E+03 -1.22269E+04  9.89655E+03 -1.50419E+03  2.02049E+03  6.73567E+03
 -6.82593E+03  2.32967E+03 -5.85645E+03 -6.29349E+03 -1.09566E+02 -1.33111E+04  9.48596E+03 -1.37308E+04
  1.59201E+04 -7.24111E+03  1.72799E+04  3.00625E+03  1.50027E+04  1.33478E+04  6.51866E+03  2.02763E+04
 -3.21681E+03  2.13939E+04 -1.39844E+04  1.38525E+04 -1.60224E+04  2.82866E+03 -1.13775E+04 -3.43594E+03
 -5.36504E+03 -4.32056E+03 -4.74719E+02  5.99286E+02 -1.94052E+03  2.50108E+03 -4.72841E+03  4.39986E+03
 -1.05543E+04 -7.33707E+02 -1.16368E+04 -8.68363E+03 -5.02473E+03 -1.40446E+04  4.58641E+03 -1.11933E+04
  8.49547E+03 -4.90044E+03  6.47678E+03  2.92499E+03  3.46204E+02  4.05218E+03 -5.08002E+03  8.52906E+01
 -4.97140E+03 -7.23030E+03 -1.47317E+03 -9.85065E+03  5.95007E+03 -1.08819E+04  1.42491E+04 -5.24022E+03
  1.58538E+04  8.38658E+02  1.21005E+04  9.04488E+03  1.77049E+03  1.23208E+04 -6.71226E+03  1.05273E+04
 -9.20504E+03  3.57076E+03 -5.05060E+03 -2.28234E+03  1.76137E+03 -3.28043E+03  5.49474E+03 -1.46661E+03
  5.78114E+03  4.53311E+03  8.00491E+02  8.93693E+03 -6.17158E+03  8.82904E+03 -1.03291E+04  1.95595E+03
 -7.17145E+03 -4.84835E+03 -4.33713E+02 -8.52779E+03  5.17896E+03 -4.59615E+03  6.04714E+03  1.87533E+03
  1.43288E+03  6.41506E+03 -5.61337E+03  7.12682E+03 -8.02287E+03  3.09211E+03 -7.36667E+03 -2.25411E+03
 -5.29834E+03 -9.18903E+03  1.82376E+03 -1.05446E+04  9.25588E+03 -6.88600E+03  1.06669E+04  1.88824E+03
  5.67438E+03  7.83328E+03  2.96798E+01  9.93890E+03 -7.12321E+03  5.80414E+03 -8.12703E+03 -3.72273E+02
 -8.12615E+03 -6.88448E+03 -1.33557E+03 -7.10139E+03  3.36017E+03 -6.43985E+03  5.02742E+03 -2.78741E+03
  3.61443E+03  1.26033E+03 -7.96291E+02  1.44859E+03  1.70697E+02 -1.49095E+03  1.36408E+03 -4.31298E+03
  6.77625E+03 -2.07971E+03  9.25187E+03  9.33713E+02  9.13294E+03  5.70536E+03  7.36427E+03  1.24882E+04
 -2.49248E+03  1.47175E+04 -1.25641E+04  1.03316E+04 -1.57339E+04  2.05148E+03 -1.25722E+04 -5.20988E+03
 -6.64200E+03 -9.61949E+03 -3.00644E+02 -8.07095E+03  2.79603E+03 -4.23639E+03  2.61091E+03 -3.16942E+03
  2.09166E+03 -1.57834E+03  2.31233E+03 -2.39676E+03  4.50686E+03 -2.54357E+03  4.21049E+03  1.33489E+02
  6.63658E+03  9.99864E+02  2.84328E+03  5.53281E+03 -1.10447E+03  5.97312E+03 -7.03392E+03  5.03582E+03
 -8.11455E+03 -7.49235E+02 -4.70449E+03 -5.44582E+03  7.83624E+02 -8.06237E+03  4.82550E+03 -9.69321E+03
  8.91907E+03 -4.50444E+03  1.10705E+04  9.12555E+02  8.05182E+03  7.10708E+03  1.78199E+03  9.79755E+03
 -3.40550E+03  9.15090E+03 -5.92817E+03  3.07388E+03 -3.77959E+03 -1.52525E+03 -1.26694E+03 -1.12743E+03
 -6.12285E+02  7.73895E+02 -1.51188E+03  2.59312E+03 -3.69324E+03  1.19451E+03 -6.50495E+03 -7.50804E+02
 -3.21093E+03 -6.21481E+03  3.97835E+02 -7.69868E+03  5.46606E+03 -7.00587E+03  6.47873E+03 -2.39754E+03
  7.67399E+03  3.89985E+03  3.56192E+03  7.22276E+03 -2.05295E+03  7.67634E+03 -5.84476E+03  5.32378E+03
 -6.92511E+03  1.70975E+02 -5.65791E+03 -4.45342E+03 -7.10442E+02 -5.88871E+03  3.46139E+03 -4.52161E+03
  4.61561E+03 -2.04103E+03  3.40053E+03  1.35421E+03  1.24800E+03  2.65587E+03  1.08373E+03  1.08456E+03
  1.98471E+03  7.35785E+02  2.01224E+03  1.00557E+03  2.15337E+03  2.78637E+03  1.84356E+03  3.42484E+03
 -2.09996E+03  6.03970E+03 -4.88858E+03  6.16995E+03 -6.62481E+03  1.74316E+03 -7.82957E+03 -2.24259E+03
 -3.36888E+03 -7.60141E+03  9.68959E+02 -8.94078E+03  4.12072E+03 -4.94410E+03  6.65441E+03 -1.67611E+03
  4.81763E+03  2.76869E+03  5.86949E+02  4.34433E+03 -1.57888E+03  2.53743E+03 -2.73622E+03 -1.53751E+02
 -1.63083E+03 -3.09046E+03  1.26673E+03 -2.74039E+03  2.94318E+03 -1.65594E+03  2.64053E+03  8.89181E+02
  1.68808E+03  1.23972E+03  1.19827E+03  2.25477E+02 -4.68351E+02  1.06349E+03  2.03886E+03 -8.53065E+01
  7.46050E+02 -4.01715E+02  3.48506E+03  1.81748E+03  1.23591E+03  4.30460E+03 -4.46307E+02  4.96862E+03
 -3.58876E+03  2.61069E+03 -4.00299E+03  1.16973E+03 -4.79059E+03 -1.59010E+03 -7.58202E+02 -3.20111E+03
  6.09344E+02 -2.37168E+03  1.17878E+03 -1.49159E+03  1.25431E+03  2.20855E+03 -1.09386E+03  1.59955E+03
 -2.73634E+03  1.04366E+03 -1.99538E+03 -1.62360E+03 -2.18623E+03 -4.22617E+03  5.27388E+02 -3.44990E+03
  2.31898E+03 -1.70791E+03  2.95593E+03 -5.07326E+01  2.02671E+03  7.25159E+02  6.96158E+02  2.42086E+03
 -7.50310E+02  1.04529E+02 -1.85167E+03 -1.03963E+03  1.12886E+03 -2.45025E+03  3.22183E+03 -2.55321E+03
  3.81729E+03 -2.24836E+01  4.33563E+03  2.73700E+03  1.39293E+03  4.40745E+03 -1.05062E+03  4.43331E+03
 -3.47476E+03  1.02838E+03 -3.88850E+03 -1.05938E+03 -2.01158E+03 -2.97836E+03  6.08566E+02 -1.81056E+03
  2.79756E+03 -1.18492E+03  2.12134E+03  1.06156E+03  7.67639E+02  1.81422E+03 -2.67289E+02  1.94017E+03
 -1.12137E+03  2.10863E+03 -7.62148E+02  1.18759E+02 -1.48823E+02  2.82309E+02 -9.36581E+02  1.35397E+03
 -1.54800E+03  1.90982E+03 -3.01260E+03  1.07083E+03 -4.83527E+03  1.46569E+02 -4.26365E+03 -2.82490E+03
 -2.46460E+03 -5.77200E+03  1.28703E+03 -6.41331E+03  3.49967E+03 -5.52152E+03  6.41250E+03 -2.25591E+03
  5.80580E+03  6.78252E+02  2.92881E+03  3.69503E+03 -9.40816E+01  3.39682E+03 -1.41044E+03  3.20593E+03
 -2.49513E+03  1.72829E+03 -1.66706E+03 -3.43128E+02 -6.80636E+02  7.63532E+02 -8.03876E+02 -2.51613E+02
 -1.03519E+03 -4.14059E+02 -1.24121E+03  2.38757E+01  2.87229E+02 -6.20225E+02  6.21229E+02 -1.65220E+03
  2.21883E+03 -8.77748E+02  1.82745E+03  1.59315E+02  3.36039E+03  2.61081E+03  2.89926E+02  4.27990E+03
 -2.55087E+03  4.23384E+03 -4.29776E+03  3.00914E+03 -4.34077E+03 -2.87145E+02 -2.97209E+03 -2.43265E+03
 -1.94079E+03 -4.00942E+03  1.31306E+03 -3.21791E+03  2.33744E+03 -1.88943E+03  2.01752E+03  6.61032E+02
  9.25848E+02  1.20568E+03 -4.83177E+02  1.04793E+03 -1.05861E+03  1.80854E+02  8.87380E+01 -7.57237E+02
  7.81793E+02 -8.64206E+01  9.42577E+02  9.90757E+02  9.53006E+02  1.53085E+03  6.50684E+02  1.88727E+03
 -1.26118E+03  1.73683E+03 -2.37901E+03  5.22320E+01 -2.10073E+03 -1.81667E+03 -1.02391E+00 -2.91095E+03
  1.99598E+03 -2.24112E+03  2.30868E+03 -7.19881E+02  3.09377E+03 -2.88624E+02  1.53916E+03  2.18116E+03
 -3.76967E+01  2.12135E+03 -6.61584E+02  1.51168E+03 -2.10140E+03  1.10502E+03 -2.08595E+03 -3.15648E+02
 -8.19891E+02 -5.84900E+02 -1.81374E+03  6.28287E+02 -1.70431E+03  3.82198E+02 -2.46560E+03 -7.66635E+02
 -1.89785E+03 -4.35240E+02 -6.04820E+02 -2.32678E+03  1.27541E+03 -2.99161E+03  2.26426E+03 -1.20292E+03
  2.34769E+03  7.86156E+02  7.99924E+02  1.41946E+03  1.64089E+02  1.97963E+03 -2.07575E+03  1.84094E+03
