 $NMID ID='MM_0lb_SNR400_11hz_g60_66.RAW', FMTDAT='(8E13.5)'
 TRAMP=1., VOLUME=1. $END
  3.09699E+05  1.01568E+03  3.38102E+05  2.51179E+05  8.48427E+04  3.38489E+05 -1.32866E+05  2.51286E+05
 -1.91191E+05  8.35212E+04 -1.12273E+05 -3.23782E+04  6.01453E+02 -5.12871E+04  5.33716E+04 -1.60338E+02
  3.50366E+04  5.29569E+04 -1.71753E+04  7.61235E+04 -6.14509E+04  6.42634E+04 -8.46882E+04  3.21712E+04
 -8.25063E+04 -1.14199E+04 -5.83407E+04 -5.24561E+04 -1.53683E+04 -7.05796E+04  2.88178E+04 -4.64923E+04
  4.11386E+04  4.00712E+03  1.68328E+04  4.88141E+04 -3.45484E+04  4.81987E+04 -6.80824E+04 -3.67551E+02
 -5.46696E+04 -5.70048E+04 -7.66757E+03 -7.86643E+04  3.46814E+04 -5.62351E+04  4.97869E+04 -1.80935E+04
  4.48886E+04  1.13278E+04  3.27827E+04  2.67950E+04  1.55903E+04  3.00117E+04 -5.82599E+03  2.72834E+04
 -2.26625E+04  1.21369E+04 -1.82901E+04 -6.12834E+03  6.77658E+03 -7.34826E+03  2.31538E+04  1.35744E+04
  7.59463E+03  3.70600E+04 -3.42088E+04  3.70067E+04 -6.53810E+04  2.01496E+03 -5.83516E+04 -4.37016E+04
 -1.26119E+04 -6.61642E+04  4.18654E+04 -4.70857E+04  6.07045E+04 -2.10036E+03  3.67761E+04  3.42087E+04
 -5.58896E+03  3.85532E+04 -3.06748E+04  1.77551E+04 -3.22531E+04 -3.44622E+03 -1.92734E+04 -1.23578E+04
 -9.26907E+03 -1.51362E+04 -2.02312E+02 -1.99081E+04  8.11613E+03 -2.39439E+04  1.58899E+04 -1.24150E+04
  1.05298E+04  5.60315E+03 -1.03699E+04  1.25801E+04 -2.26624E+04 -6.56246E+03 -8.67963E+03 -3.61176E+04
  2.54617E+04 -4.65837E+04  5.12449E+04 -2.09211E+04  4.76492E+04  1.97657E+04  1.73334E+04  4.75460E+04
 -1.71405E+04  3.55772E+04 -2.76653E+04  2.58209E+03 -1.08864E+04 -2.98231E+04  2.12720E+04 -3.63741E+04
  4.39786E+04 -1.19890E+04  3.97194E+04  2.48354E+04  2.12247E+04  5.05279E+04 -8.55461E+03  5.56727E+04
 -3.44328E+04  3.76475E+04 -4.67263E+04  1.05811E+04 -4.70125E+04 -1.75924E+04 -2.56791E+04 -4.25743E+04
  8.52350E+03 -4.12524E+04  3.39711E+04 -1.70215E+04  3.17825E+04  1.13859E+04  5.20918E+03  2.05704E+04
 -1.37816E+04  9.00128E+03 -1.12953E+04 -7.84075E+03  6.11260E+03 -1.13859E+04  1.88007E+04  6.01846E+03
  1.48174E+04  2.31032E+04 -5.10555E+03  2.66418E+04 -2.34979E+04  1.38112E+04 -3.11503E+04 -3.14815E+03
 -2.38503E+04 -1.86609E+04 -1.11642E+04 -2.40883E+04  4.12586E+03 -2.51090E+04  1.96066E+04 -2.16557E+04
  3.13873E+04 -1.45404E+04  3.63951E+04  4.32189E+03  2.59865E+04  2.39477E+04  4.67680E+03  3.94368E+04
 -1.94412E+04  3.26018E+04 -2.97635E+04  1.23174E+04 -2.22228E+04 -1.06578E+04 -5.33310E+03 -1.33389E+04
  1.23508E+03 -9.45612E+02 -7.62143E+03  8.62151E+03 -2.01426E+04  5.48698E+03 -1.99383E+04 -9.18246E+03
 -1.14223E+04 -2.25860E+04  5.55718E+03 -2.68717E+04  1.80667E+04 -1.84201E+04  2.14546E+04 -1.98032E+03
  1.41860E+04  1.54980E+04 -1.43367E+03  2.22582E+04 -1.59073E+04  1.31475E+04 -2.23690E+04 -4.54078E+03
 -1.70013E+04 -2.05081E+04 -2.26385E+03 -2.71062E+04  1.15194E+04 -2.22122E+04  2.17994E+04 -1.12368E+04
  2.10533E+04  2.69462E+02  1.57398E+04  5.02051E+03  8.42482E+03  1.77002E+03  1.10927E+04 -2.13913E+03
  2.15586E+04  2.79770E+03  2.41931E+04  1.80389E+04  1.63193E+04  3.60649E+04 -2.87928E+03  4.28763E+04
 -2.39779E+04  3.51328E+04 -3.90067E+04  1.80334E+04 -4.22369E+04 -3.57026E+03 -3.47172E+04 -2.45673E+04
 -1.38797E+04 -3.51974E+04  1.22011E+04 -3.04599E+04  2.64415E+04 -1.50235E+04  2.30611E+04  7.59074E+03
  7.81486E+03  1.76644E+04 -1.14285E+04  1.49397E+04 -1.89113E+04  2.60557E+03 -1.46392E+04 -1.24341E+04
 -5.90605E+02 -1.82364E+04  9.78461E+03 -1.38447E+04  1.27864E+04 -1.11496E+03  2.93685E+03  8.00176E+03
 -8.78177E+03  3.19246E+03 -7.95723E+03 -6.95996E+03 -1.99250E+03 -1.70793E+04  1.24704E+04 -1.81992E+04
  2.18974E+04 -1.02407E+04  2.52742E+04  3.14762E+03  2.11000E+04  1.77371E+04  1.02990E+04  2.76028E+04
 -5.21054E+03  2.94050E+04 -1.92148E+04  1.79084E+04 -2.17897E+04  4.19213E+03 -1.38418E+04 -5.04502E+03
 -6.10189E+03 -6.56207E+03 -6.52656E+02  5.77588E+02 -2.90132E+03  3.26449E+03 -6.80031E+03  4.71910E+03
 -1.35563E+04 -1.08858E+03 -1.47841E+04 -1.14737E+04 -5.53467E+03 -1.77978E+04  5.61548E+03 -1.41919E+04
  1.18489E+04 -5.61151E+03  9.16577E+03  4.50016E+03 -8.82138E+02  5.57600E+03 -7.08076E+03 -4.03281E+02
 -6.12798E+03 -1.03310E+04 -1.17928E+03 -1.45356E+04  8.32938E+03 -1.54610E+04  1.89833E+04 -8.03384E+03
  2.11935E+04  2.22467E+03  1.62911E+04  1.37091E+04  3.88085E+03  1.77091E+04 -9.41183E+03  1.46464E+04
 -1.14590E+04  4.32715E+03 -5.99686E+03 -3.00083E+03  2.61417E+03 -4.56284E+03  7.54841E+03 -1.03478E+03
  6.36382E+03  6.83131E+03  1.77265E+03  1.18143E+04 -9.03772E+03  1.07797E+04 -1.37497E+04  1.55285E+03
 -9.32198E+03 -7.16798E+03  1.75456E+02 -1.22359E+04  8.47796E+03 -5.84271E+03  8.03479E+03  2.97458E+03
  1.78139E+03  8.68580E+03 -7.30893E+03  1.05078E+04 -1.25398E+04  4.91579E+03 -1.22650E+04 -4.33168E+03
 -7.48438E+03 -1.39273E+04  3.65191E+03 -1.64891E+04  1.45278E+04 -1.03250E+04  1.48959E+04  2.69028E+03
  9.47991E+03  1.21799E+04 -1.15440E+03  1.45336E+04 -1.09565E+04  7.62066E+03 -1.17048E+04 -9.60275E+02
 -1.03238E+04 -9.74157E+03 -1.25410E+03 -1.09451E+04  6.01266E+03 -9.11758E+03  8.09783E+03 -3.32578E+03
  4.55208E+03  1.64549E+03 -1.02452E+03  2.53525E+03 -5.80587E+02 -3.29811E+03  1.70630E+03 -6.50344E+03
  1.08859E+04 -4.37230E+03  1.41123E+04  2.18508E+03  1.37669E+04  9.63740E+03  9.18812E+03  1.89716E+04
 -3.95958E+03  2.10598E+04 -1.77243E+04  1.61439E+04 -2.33372E+04  2.40417E+03 -1.90304E+04 -8.04099E+03
 -9.64196E+03 -1.52418E+04  3.64800E+02 -1.27184E+04  5.16348E+03 -7.79203E+03  4.28570E+03 -5.70740E+03
  3.47897E+03 -2.75972E+03  3.93314E+03 -2.73468E+03  5.79302E+03 -3.15605E+03  7.06734E+03 -1.03693E+03
  9.39160E+03  2.49852E+03  4.98368E+03  8.26232E+03 -2.22387E+03  9.55576E+03 -1.06981E+04  7.45130E+03
 -1.34483E+04 -1.36628E+03 -7.91613E+03 -9.22131E+03 -1.27239E+03 -1.33747E+04  7.60986E+03 -1.34188E+04
  1.43651E+04 -7.33429E+03  1.68176E+04  2.06661E+03  1.20959E+04  1.19527E+04  1.88025E+03  1.58717E+04
 -6.60608E+03  1.29701E+04 -9.55585E+03  4.01540E+03 -5.79161E+03 -1.75202E+03 -2.40775E+03 -1.46753E+03
 -9.75988E+02 -6.34529E+02 -1.83543E+03  3.86645E+03 -5.18386E+03  2.09585E+03 -8.82083E+03 -4.39626E+02
 -6.26397E+03 -9.35594E+03  7.13691E+00 -1.25580E+04  7.93632E+03 -1.19607E+04  1.30946E+04 -3.88241E+03
  1.26901E+04  6.85428E+03  5.50853E+03  1.14287E+04 -3.11445E+03  1.28573E+04 -8.97069E+03  7.43466E+03
 -1.18562E+04 -5.90753E+01 -9.06259E+03 -7.45118E+03 -7.64878E+02 -1.03483E+04  5.23577E+03 -7.68189E+03
  8.45984E+03 -2.86035E+03  5.75453E+03  2.35853E+03  2.40756E+03  3.92972E+03  5.39019E+02  1.28791E+03
  2.23495E+03  1.20603E+03  2.87999E+03  1.72488E+03  4.17735E+03  4.30024E+03  3.37432E+03  6.35180E+03
 -3.21633E+03  9.86384E+03 -9.19681E+03  9.85485E+03 -1.27538E+04  2.56323E+03 -1.37305E+04 -4.85555E+03
 -5.75684E+03 -1.24366E+04  1.70603E+03 -1.36194E+04  7.61720E+03 -8.96555E+03  1.08700E+04 -2.70350E+03
  8.00481E+03  4.94719E+03  1.93298E+03  7.39677E+03 -3.10854E+03  4.18687E+03 -5.18418E+03 -3.27678E+02
 -1.96785E+03 -4.45204E+03  2.92362E+03 -5.40971E+03  5.30902E+03 -2.70873E+03  5.57546E+03  6.37945E+02
  3.13963E+03  2.38372E+03  1.34760E+03  2.00213E+03 -6.79885E+02  1.40869E+03  2.19134E+03 -4.24607E+02
  2.15546E+03 -6.68672E+02  5.27238E+03  1.91184E+03  2.90922E+03  6.45309E+03 -1.07914E+03  8.96228E+03
 -6.47744E+03  5.75924E+03 -8.28293E+03  1.65609E+03 -7.41333E+03 -2.78259E+03 -2.43075E+03 -4.81510E+03
  7.77055E+02 -5.36136E+03  3.37605E+03 -2.24605E+03  2.46600E+03  2.64971E+03 -1.17458E+03  4.56119E+03
 -4.51996E+03  2.62383E+03 -6.21250E+03 -3.03740E+03 -3.20285E+03 -6.34633E+03  9.87657E+02 -6.65539E+03
  3.67486E+03 -4.16891E+03  4.70084E+03  6.44777E+01  4.45558E+03  1.80385E+03  1.06053E+03  3.77473E+03
 -2.05076E+03  1.57068E+03 -2.39411E+03 -1.72885E+03  1.55779E+03 -4.48659E+03  6.60434E+03 -4.02953E+03
  7.06473E+03  9.25078E+02  8.66750E+03  6.24144E+03  2.20076E+03  7.81017E+03 -3.41444E+03  6.76247E+03
 -6.20741E+03  2.81677E+03 -6.34576E+03 -9.97589E+02 -3.65608E+03 -4.72581E+03  1.87373E+03 -4.69675E+03
  5.00735E+03 -2.27357E+03  3.70094E+03  2.36453E+03  2.24659E+03  5.26113E+03 -5.25604E+02  3.90606E+03
 -1.37530E+03  2.73982E+03 -2.23507E+03  7.96784E+02 -4.00871E+02  7.60505E+02 -1.33755E+03  1.52891E+03
 -2.60864E+03  2.98601E+03 -5.95810E+03  1.80412E+03 -8.24200E+03 -2.04188E+02 -9.24795E+03 -4.86312E+03
 -4.72980E+03 -1.04327E+04  2.04568E+03 -1.22892E+04  6.96063E+03 -9.84654E+03  1.07109E+04 -3.52421E+03
  9.97935E+03  1.90124E+03  7.01618E+03  8.33673E+03  2.37102E+01  7.82374E+03 -3.29850E+03  6.27082E+03
 -4.35875E+03  2.43020E+03 -3.17716E+03 -4.66035E+02 -1.03975E+03 -1.10309E+03 -1.03468E+03 -4.19346E+02
 -8.26698E+02 -4.75997E+02 -1.41872E+03  1.36448E+02 -7.90088E+01 -1.78816E+03  1.36406E+01 -3.13639E+03
  3.85672E+03 -2.28295E+03  5.05512E+03 -3.44695E+01  5.03274E+03  4.88868E+03  1.21180E+03  7.43735E+03
 -4.26138E+03  9.41131E+03 -7.47473E+03  5.55393E+03 -9.11570E+03 -8.46280E+02 -7.58392E+03 -5.57356E+03
 -3.97178E+03 -7.91353E+03  1.94283E+03 -7.55671E+03  5.82491E+03 -3.95080E+03  5.18364E+03  2.63080E+02
  2.94007E+03  2.74646E+03 -5.84987E+02  2.17908E+03 -1.51184E+03 -4.67691E+02 -4.26360E+02 -1.96269E+03
  1.88358E+03 -1.65627E+03  3.15780E+03  1.04320E+03  1.96568E+03  2.36467E+03  4.45062E+01  3.74134E+03
 -3.88414E+03  3.75714E+03 -4.89638E+03  8.01169E+02 -5.30151E+03 -3.23076E+03  8.97606E+01 -6.82048E+03
  4.29959E+03 -4.91358E+03  5.87906E+03 -2.15052E+03  5.50899E+03  1.10457E+03  3.50516E+03  4.99175E+03
  8.34268E+02  4.43619E+03 -1.87208E+03  4.53106E+03 -2.34218E+03  2.64250E+03 -2.43632E+03  1.57091E+02
 -1.24359E+03  1.83238E+02 -1.65287E+03 -1.10916E+02 -2.45830E+03  8.97721E+02 -3.43531E+03 -5.51587E+02
 -4.28240E+03 -2.67229E+03 -1.98899E+03 -5.50967E+03  2.54441E+03 -5.50288E+03  4.87419E+03 -2.68696E+03
  4.88941E+03  7.76847E+02  2.28236E+03  2.98564E+03 -8.80664E+02  3.96276E+03 -3.85542E+03  3.50594E+03
