 $NMID ID='MM_0lb_SNR400_7hz_g55_95.RAW', FMTDAT='(8E13.5)'
 TRAMP=1., VOLUME=1. $END
  3.10216E+05  5.53334E+02  3.38154E+05  2.50617E+05  8.50760E+04  3.39198E+05 -1.32600E+05  2.52549E+05
 -1.91491E+05  8.36794E+04 -1.12732E+05 -3.27974E+04 -1.54345E+02 -5.06804E+04  5.30728E+04  2.26105E+02
  3.59661E+04  5.34866E+04 -1.67017E+04  7.59051E+04 -6.09740E+04  6.50127E+04 -8.62379E+04  3.32759E+04
 -8.34967E+04 -1.23837E+04 -5.90638E+04 -5.27244E+04 -1.48323E+04 -7.24420E+04  2.83946E+04 -4.67744E+04
  4.19010E+04  3.60171E+03  1.80109E+04  4.91935E+04 -3.56886E+04  4.97291E+04 -7.00009E+04  6.28813E+02
 -5.54193E+04 -5.79840E+04 -7.06840E+03 -8.09632E+04  3.59676E+04 -5.80198E+04  5.05883E+04 -1.88581E+04
  4.58074E+04  1.17531E+04  3.28158E+04  2.69193E+04  1.61223E+04  3.12508E+04 -5.90297E+03  2.77877E+04
 -2.26209E+04  1.21000E+04 -1.85455E+04 -6.81901E+03  8.44865E+03 -7.12728E+03  2.42598E+04  1.36310E+04
  7.25540E+03  3.86867E+04 -3.44736E+04  3.86981E+04 -6.69929E+04  1.84385E+03 -5.96104E+04 -4.60098E+04
 -1.24395E+04 -6.79765E+04  4.30455E+04 -4.91210E+04  6.23272E+04 -2.72636E+03  3.73256E+04  3.53077E+04
 -4.79922E+03  4.07413E+04 -3.21674E+04  2.10348E+04 -3.49154E+04 -3.62670E+03 -2.01824E+04 -1.21192E+04
 -1.06850E+04 -1.64199E+04 -1.26868E+03 -2.11386E+04  9.41918E+03 -2.43150E+04  1.64611E+04 -1.16350E+04
  9.69762E+03  5.64415E+03 -1.08635E+04  1.26737E+04 -2.41273E+04 -7.57219E+03 -9.15879E+03 -3.95655E+04
  2.66743E+04 -4.91841E+04  5.40573E+04 -2.05970E+04  5.05880E+04  2.09314E+04  1.76182E+04  4.82675E+04
 -1.65846E+04  3.89294E+04 -2.83346E+04  3.50702E+03 -1.16415E+04 -3.04595E+04  2.05363E+04 -3.84637E+04
  4.66837E+04 -1.22005E+04  4.25970E+04  2.50398E+04  2.31761E+04  5.35163E+04 -8.92646E+03  5.89484E+04
 -3.68998E+04  4.02465E+04 -5.02876E+04  1.15766E+04 -4.97092E+04 -1.94197E+04 -2.78622E+04 -4.44055E+04
  7.92795E+03 -4.39822E+04  3.60730E+04 -1.81563E+04  3.35240E+04  1.09909E+04  5.49418E+03  2.23704E+04
 -1.47111E+04  9.61764E+03 -1.11489E+04 -7.24948E+03  5.80290E+03 -1.12729E+04  2.02955E+04  4.92253E+03
  1.64972E+04  2.25972E+04 -4.11154E+03  2.80329E+04 -2.42755E+04  1.64780E+04 -3.33141E+04 -2.61415E+03
 -2.74354E+04 -1.96458E+04 -1.34990E+04 -2.73133E+04  4.87156E+03 -2.87343E+04  2.23456E+04 -2.65204E+04
  3.51943E+04 -1.50537E+04  4.15716E+04  5.56135E+03  2.78726E+04  2.64554E+04  4.79731E+03  4.31368E+04
 -2.14163E+04  3.64580E+04 -3.20723E+04  1.33326E+04 -2.35213E+04 -1.03624E+04 -4.67569E+03 -1.34728E+04
  9.24106E+01 -5.62443E+02 -9.20441E+03  9.29455E+03 -2.31281E+04  5.29590E+03 -2.14977E+04 -1.11438E+04
 -1.28807E+04 -2.58116E+04  6.16531E+03 -3.01260E+04  2.08837E+04 -2.12185E+04  2.50305E+04 -2.26105E+03
  1.57846E+04  1.64620E+04 -1.51562E+03  2.56409E+04 -1.85061E+04  1.47386E+04 -2.54617E+04 -5.91975E+03
 -1.86558E+04 -2.23986E+04 -2.50013E+03 -3.03712E+04  1.48444E+04 -2.59337E+04  2.50901E+04 -1.34507E+04
  2.44774E+04 -8.01367E+02  1.74533E+04  5.51739E+03  9.60642E+03  1.66255E+03  1.30373E+04 -2.10419E+03
  2.46425E+04  2.91731E+03  2.83758E+04  2.02990E+04  1.91518E+04  4.20338E+04 -2.45812E+03  4.94079E+04
 -2.78833E+04  4.22728E+04 -4.72578E+04  2.22805E+04 -5.05045E+04 -3.18623E+03 -4.05600E+04 -2.99048E+04
 -1.59048E+04 -4.16438E+04  1.43212E+04 -3.71180E+04  3.13006E+04 -1.64233E+04  2.72959E+04  9.04207E+03
  8.83390E+03  2.06666E+04 -1.28353E+04  1.71993E+04 -2.20992E+04  2.42641E+03 -1.66968E+04 -1.46746E+04
 -1.54309E+01 -2.28520E+04  1.13698E+04 -1.64113E+04  1.54486E+04 -1.11759E+03  3.93672E+03  9.59179E+03
 -9.89131E+03  5.06448E+03 -1.04837E+04 -7.84487E+03 -2.91481E+03 -2.04448E+04  1.32621E+04 -2.25326E+04
  2.64017E+04 -1.38225E+04  3.17329E+04  3.76294E+03  2.73551E+04  2.11292E+04  1.30167E+04  3.38881E+04
 -6.77180E+03  3.62050E+04 -2.37318E+04  2.31737E+04 -2.58079E+04  4.65981E+03 -1.83256E+04 -7.08993E+03
 -7.09833E+03 -7.62249E+03 -1.26190E+03 -5.05619E+02 -3.14840E+03  4.57847E+03 -8.47714E+03  6.64256E+03
 -1.61199E+04 -2.36460E+03 -1.60559E+04 -1.37207E+04 -6.70346E+03 -2.22086E+04  6.80342E+03 -1.86682E+04
  1.50952E+04 -7.20498E+03  9.75471E+03  4.45917E+03 -1.07910E+03  7.47823E+03 -9.22722E+03  6.32661E+02
 -9.21417E+03 -1.16500E+04 -1.01360E+03 -1.79250E+04  1.07410E+04 -1.94673E+04  2.30948E+04 -1.09000E+04
  2.79153E+04  2.84216E+03  2.05184E+04  1.73282E+04  2.98771E+03  2.34779E+04 -1.15757E+04  1.74006E+04
 -1.43711E+04  5.05287E+03 -7.62717E+03 -3.67236E+03  2.81019E+03 -4.99846E+03  9.79979E+03 -1.28793E+03
  9.69306E+03  8.78879E+03  9.51590E+02  1.37137E+04 -1.13386E+04  1.36994E+04 -1.70800E+04  2.80747E+03
 -1.28129E+04 -9.15966E+03  6.68708E+02 -1.53492E+04  1.01489E+04 -8.02841E+03  1.06244E+04  3.35912E+03
  2.85834E+03  1.21655E+04 -1.05736E+04  1.45879E+04 -1.67087E+04  5.18198E+03 -1.79460E+04 -6.31169E+03
 -1.00720E+04 -1.94444E+04  5.00745E+03 -2.24366E+04  1.94485E+04 -1.36925E+04  2.08542E+04  3.87725E+03
  1.12439E+04  1.61159E+04 -2.57270E+03  1.94680E+04 -1.32640E+04  1.01749E+04 -1.50103E+04 -6.24110E+02
 -1.18647E+04 -1.18639E+04 -2.81009E+03 -1.47224E+04  6.86065E+03 -1.07405E+04  9.41657E+03 -3.63659E+03
  4.80702E+03  2.87155E+03 -1.42211E+03  2.95697E+03 -1.11549E+03 -5.84389E+03  3.59076E+03 -9.54674E+03
  1.38642E+04 -6.11171E+03  2.02534E+04  2.21842E+03  1.95402E+04  1.34790E+04  1.26129E+04  2.60302E+04
 -6.40840E+03  2.95290E+04 -2.44000E+04  2.15126E+04 -3.16191E+04  4.14100E+03 -2.53452E+04 -1.22093E+04
 -1.31814E+04 -2.15681E+04 -4.54877E+02 -1.90010E+04  6.16019E+03 -1.08627E+04  6.21732E+03 -5.99855E+03
  4.42789E+03 -3.29682E+03  4.73098E+03 -4.20182E+03  6.82143E+03 -5.09318E+03  9.81708E+03 -2.07935E+03
  1.35605E+04  3.45275E+03  7.69176E+03  1.09589E+04 -1.64344E+03  1.46136E+04 -1.50327E+04  1.06075E+04
 -1.90456E+04 -1.89320E+03 -1.27647E+04 -1.24886E+04 -2.39936E+03 -1.91885E+04  9.99247E+03 -1.94466E+04
  2.08059E+04 -1.06198E+04  2.43838E+04  4.11280E+03  1.68611E+04  1.78829E+04  2.43897E+03  2.26440E+04
 -9.53918E+03  1.76428E+04 -1.40034E+04  6.40988E+03 -9.67855E+03 -1.60422E+03 -3.71981E+03 -2.32095E+03
 -7.66867E+02  3.13588E+01 -2.75722E+03  3.56130E+03 -7.74123E+03  3.09215E+03 -1.16526E+04 -2.59855E+03
 -9.74805E+03 -1.31365E+04  8.27679E+00 -1.91238E+04  1.25086E+04 -1.77299E+04  1.98270E+04 -5.82717E+03
  1.97005E+04  9.16133E+03  8.92172E+03  1.68047E+04 -3.97668E+03  1.90170E+04 -1.38040E+04  1.18668E+04
 -1.77978E+04  8.60741E+02 -1.49010E+04 -1.19186E+04 -1.61874E+03 -1.66092E+04  9.20014E+03 -1.26602E+04
  1.17909E+04 -3.76134E+03  8.19604E+03  3.77017E+03  3.32169E+03  5.72848E+03  1.50459E+03  3.56767E+03
  2.67192E+03  1.40578E+03  4.79145E+03  2.63789E+03  6.86264E+03  6.44494E+03  4.87222E+03  1.07002E+04
 -3.97862E+03  1.63065E+04 -1.35068E+04  1.48788E+04 -2.10905E+04  4.00033E+03 -2.09493E+04 -8.71768E+03
 -9.88514E+03 -2.03065E+04  3.50526E+03 -2.14396E+04  1.27574E+04 -1.40898E+04  1.59810E+04 -3.27179E+03
  1.33144E+04  7.67327E+03  2.73159E+03  1.24147E+04 -5.64236E+03  7.54864E+03 -8.11393E+03 -1.99358E+03
 -3.62513E+03 -8.20382E+03  4.11938E+03 -9.02340E+03  9.16869E+03 -4.41057E+03  8.25934E+03  1.57617E+03
  5.40517E+03  4.78602E+03  1.44497E+03  3.97342E+03 -3.25075E+02  2.57574E+03  1.19277E+03  2.49395E+00
  3.93177E+03 -1.17477E+03  7.89878E+03  3.33226E+03  4.94472E+03  1.16800E+04 -2.40480E+03  1.34381E+04
 -1.00151E+04  9.61107E+03 -1.31750E+04  2.59873E+03 -1.18886E+04 -3.86345E+03 -5.66460E+03 -9.27794E+03
  1.85871E+03 -8.10966E+03  5.54653E+03 -3.40350E+03  4.17814E+03  3.75021E+03 -1.20651E+03  6.35624E+03
 -8.62319E+03  4.37672E+03 -9.99941E+03 -5.12925E+03 -5.31530E+03 -1.18997E+04  6.73204E+02 -1.13001E+04
  7.27328E+03 -7.69597E+03  8.55106E+03 -1.69693E+03  5.92210E+03  3.29766E+03  2.04013E+03  5.99038E+03
 -3.44792E+03  1.58549E+03 -4.33427E+03 -3.87196E+03  1.54705E+03 -8.08341E+03  9.83993E+03 -7.22833E+03
  1.34213E+04  7.89399E+02  1.24867E+04  9.97239E+03  4.22867E+03  1.35372E+04 -5.06398E+03  1.20645E+04
 -1.12024E+04  6.16103E+03 -1.21143E+04 -2.39617E+03 -6.48355E+03 -9.00061E+03  1.60900E+03 -9.47522E+03
  8.73954E+03 -4.17557E+03  7.77092E+03  4.04213E+03  2.17455E+03  8.01074E+03 -2.41902E+03  7.49831E+03
 -4.80641E+03  3.66449E+03 -2.79164E+03  1.61752E+03 -1.92906E+03  1.48406E+03 -1.49541E+03  2.44581E+03
 -3.18413E+03  3.99398E+03 -9.64174E+03  4.62481E+03 -1.40938E+04  6.55034E+02 -1.57312E+04 -9.28646E+03
 -8.56271E+03 -2.02211E+04  3.19965E+03 -2.16348E+04  1.54299E+04 -1.70545E+04  2.07447E+04 -7.49529E+03
  1.99342E+04  5.59509E+03  1.25055E+04  1.28144E+04  1.28620E+03  1.57396E+04 -6.36902E+03  1.19039E+04
 -8.81706E+03  3.87133E+03 -4.93781E+03 -2.35830E+03 -2.45037E+03 -1.53377E+03 -1.01656E+03 -4.45353E+02
 -1.15986E+03  9.20319E+02 -4.04352E+03 -5.89418E+02 -1.78883E+03 -3.65670E+03  3.49086E+02 -4.99424E+03
  5.68019E+03 -5.27651E+03  8.89987E+03 -1.52106E+02  1.12212E+04  8.03099E+03  2.73711E+03  1.60912E+04
 -7.59544E+03  1.73841E+04 -1.63677E+04  1.01261E+04 -1.83007E+04 -1.10330E+03 -1.33104E+04 -1.10209E+04
 -6.33040E+03 -1.53513E+04  4.07140E+03 -1.42729E+04  1.04125E+04 -8.04171E+03  1.00888E+04  9.12610E+02
  4.95822E+03  5.43024E+03 -1.10501E+03  4.95118E+03 -1.59400E+03  5.30309E+00 -4.13714E+02 -4.04322E+03
  5.39963E+03 -2.47693E+03  5.42798E+03  1.50954E+03  4.72480E+03  5.48231E+03 -1.18668E+03  7.74607E+03
 -6.43020E+03  6.67764E+03 -1.03656E+04  7.45014E+02 -9.80955E+03 -7.71493E+03 -1.50112E+03 -1.24607E+04
  6.85094E+03 -1.16383E+04  1.23703E+04 -2.97992E+03  1.27555E+04  3.63771E+03  6.86040E+03  1.01834E+04
  1.61909E+03  1.00797E+04 -3.89549E+03  8.25289E+03 -6.87116E+03  4.72928E+03 -5.52475E+03  9.31931E+02
 -3.86046E+03 -3.55761E+01 -3.00277E+03  1.87804E+03 -5.39643E+03  2.05152E+03 -8.03779E+03 -2.12761E+03
 -7.50564E+03 -5.76822E+03 -2.29320E+03 -1.00082E+04  4.61179E+03 -1.08425E+04  9.92890E+03 -5.02478E+03
  1.06262E+04  6.78479E+02  5.91502E+03  8.15403E+03  3.60146E+02  1.06795E+04 -8.65498E+03  7.45418E+03
