 $NMID ID='MM_0lb_SNR400_18hz_g50_33.RAW', FMTDAT='(8E13.5)'
 TRAMP=1., VOLUME=1. $END
  3.10062E+05  3.05027E+02  3.37743E+05  2.50351E+05  8.47380E+04  3.38298E+05 -1.33116E+05  2.50104E+05
 -1.90569E+05  8.29297E+04 -1.10954E+05 -3.26302E+04  9.37553E+02 -5.09692E+04  5.39592E+04  5.30077E+02
  3.51639E+04  5.33391E+04 -1.70286E+04  7.50604E+04 -6.06215E+04  6.24672E+04 -8.31568E+04  3.14798E+04
 -7.99887E+04 -1.09986E+04 -5.60059E+04 -5.04325E+04 -1.45444E+04 -6.90212E+04  2.67063E+04 -4.54102E+04
  3.91518E+04  4.07982E+03  1.62315E+04  4.68869E+04 -3.43030E+04  4.65292E+04 -6.56640E+04 -5.61735E+02
 -5.24023E+04 -5.56203E+04 -6.01842E+03 -7.61304E+04  3.36254E+04 -5.36800E+04  4.69206E+04 -1.67709E+04
  4.20550E+04  1.12292E+04  3.08736E+04  2.48651E+04  1.55602E+04  2.85336E+04 -5.22380E+03  2.70008E+04
 -2.11317E+04  1.30865E+04 -1.90336E+04 -4.21777E+03  4.99836E+03 -8.05123E+03  2.11263E+04  1.15596E+04
  7.14240E+03  3.36480E+04 -3.13034E+04  3.39034E+04 -6.21911E+04  2.05238E+03 -5.59315E+04 -4.18569E+04
 -1.25050E+04 -6.16230E+04  3.82694E+04 -4.37234E+04  5.55980E+04 -1.62214E+03  3.29622E+04  3.05218E+04
 -6.43631E+03  3.35887E+04 -2.86605E+04  1.39057E+04 -2.80522E+04 -5.22980E+03 -1.47674E+04 -1.01867E+04
 -7.53647E+03 -1.15281E+04 -8.16690E+02 -1.76721E+04  7.38589E+03 -2.22373E+04  1.49235E+04 -1.38657E+04
  1.20390E+04  4.45746E+03 -6.74439E+03  1.26314E+04 -1.99114E+04 -2.95838E+03 -8.16147E+03 -3.09460E+04
  2.11666E+04 -4.12468E+04  4.55848E+04 -1.88296E+04  4.24759E+04  1.84945E+04  1.41129E+04  4.19765E+04
 -1.59129E+04  3.14935E+04 -2.34426E+04  1.39430E+03 -8.92145E+03 -2.68778E+04  2.03503E+04 -3.15704E+04
  3.86601E+04 -7.88045E+03  3.21924E+04  2.29958E+04  1.64976E+04  4.34162E+04 -8.14551E+03  4.67575E+04
 -2.90478E+04  3.08460E+04 -3.82152E+04  8.36206E+03 -3.92279E+04 -1.53064E+04 -2.13953E+04 -3.50082E+04
  6.96867E+03 -3.48524E+04  3.00277E+04 -1.26206E+04  2.73127E+04  1.04577E+04  3.38171E+03  1.75564E+04
 -1.28919E+04  7.11499E+03 -1.08449E+04 -7.81999E+03  5.60745E+03 -1.01171E+04  1.70616E+04  6.19422E+03
  1.26260E+04  2.17837E+04 -6.10364E+03  2.37859E+04 -2.21489E+04  9.92565E+03 -2.55994E+04 -6.25339E+03
 -1.73811E+04 -1.68045E+04 -6.20670E+03 -1.77594E+04  3.60028E+03 -1.54065E+04  1.30458E+04 -1.57191E+04
  2.20729E+04 -1.22012E+04  2.93452E+04  1.10283E+03  2.13035E+04  1.74893E+04  3.99621E+03  3.32778E+04
 -1.68508E+04  2.83206E+04 -2.58353E+04  9.30249E+03 -2.03206E+04 -1.05847E+04 -4.07747E+03 -1.43170E+04
  2.96288E+03 -4.25825E+03 -3.48988E+03  5.25845E+03 -1.36233E+04  5.70026E+03 -1.42499E+04 -5.33833E+03
 -9.07984E+03 -1.58401E+04  4.90999E+03 -1.96861E+04  1.31581E+04 -1.47940E+04  1.47571E+04 -1.38845E+03
  9.31650E+03  1.16593E+04 -9.71448E+02  1.61043E+04 -1.10604E+04  9.33495E+03 -1.57923E+04 -3.24653E+03
 -1.25629E+04 -1.48353E+04 -1.25738E+03 -1.97001E+04  8.98190E+03 -1.60560E+04  1.71395E+04 -8.02500E+03
  1.49033E+04  1.04883E+02  1.05822E+04  3.92212E+03  5.81237E+03  2.78095E+01  7.88028E+03 -1.56874E+03
  1.39683E+04  2.70313E+03  1.53882E+04  1.36330E+04  1.00322E+04  2.56936E+04 -2.91646E+03  2.78580E+04
 -1.67867E+04  2.17862E+04 -2.55624E+04  9.69244E+03 -2.70382E+04 -1.59273E+03 -2.24888E+04 -1.56068E+04
 -1.00255E+04 -2.18535E+04  6.66605E+03 -1.97304E+04  1.73571E+04 -1.15712E+04  1.66483E+04  3.33573E+03
  6.62120E+03  1.16973E+04 -7.34412E+03  1.04629E+04 -1.39278E+04  2.64093E+03 -1.05624E+04 -8.35095E+03
 -2.46204E+02 -1.26369E+04  6.16778E+03 -9.06449E+03  8.20437E+03 -1.93498E+03  1.41595E+03  5.06549E+03
 -6.10909E+03  1.29865E+03 -3.77752E+03 -4.81285E+03  4.96034E+02 -1.04636E+04  8.11612E+03 -1.10337E+04
  1.29481E+04 -5.07775E+03  1.28483E+04  2.63514E+03  1.10279E+04  1.00559E+04  5.41015E+03  1.44324E+04
 -2.02104E+03  1.71703E+04 -1.04936E+04  1.07726E+04 -1.24372E+04  2.88441E+03 -8.92206E+03 -2.05113E+03
 -4.54577E+03 -4.01743E+03 -7.04168E+02  2.01996E+03 -1.57232E+03  2.02826E+03 -3.88776E+03  3.00546E+03
 -8.09720E+03 -9.76978E+02 -8.93024E+03 -7.61719E+03 -3.45661E+03 -1.15956E+04  3.59506E+03 -9.17812E+03
  7.18342E+03 -4.11182E+03  5.55273E+03  2.04502E+03  7.11663E+02  2.54357E+03 -4.10198E+03  3.57559E+02
 -3.08668E+03 -5.18240E+03 -8.83500E+02 -7.82744E+03  4.15285E+03 -8.33001E+03  1.11270E+04 -4.66777E+03
  1.29690E+04  9.36796E+02  9.40285E+03  6.67818E+03  2.07390E+03  9.02327E+03 -4.93260E+03  8.70558E+03
 -6.64623E+03  2.71758E+03 -3.65186E+03 -1.47014E+03  1.24628E+03 -1.86511E+03  5.23141E+03 -1.03460E+03
  4.17048E+03  3.26875E+03  1.23845E+03  6.43250E+03 -4.39241E+03  6.08038E+03 -8.37953E+03  2.02858E+03
 -5.51952E+03 -3.89522E+03  8.94285E+02 -7.19050E+03  3.78450E+03 -2.93495E+03  3.66322E+03  1.00545E+03
  5.03152E+02  3.69192E+03 -4.41302E+03  4.83223E+03 -5.58692E+03  2.45845E+03 -5.15853E+03 -1.14438E+03
 -3.08260E+03 -6.57084E+03  1.15979E+03 -7.25016E+03  6.77890E+03 -4.95943E+03  6.94889E+03  7.75823E+02
  4.68164E+03  5.64323E+03 -6.83663E+01  7.43816E+03 -5.69251E+03  4.20309E+03 -6.25982E+03 -7.96877E+02
 -5.72584E+03 -5.10916E+03 -1.11036E+03 -5.51351E+03  2.72172E+03 -4.66359E+03  3.50955E+03 -2.85231E+03
  3.19499E+03  3.24250E+02  1.00075E+02  1.15829E+03  5.47812E+02 -4.76846E+02 -1.12333E+02 -2.01420E+03
  4.21705E+03 -1.47246E+03  5.90437E+03  7.95901E+02  6.08085E+03  3.85666E+03  5.85772E+03  7.61724E+03
 -1.61104E+03  9.50218E+03 -7.83664E+03  7.50624E+03 -1.08026E+04  1.03591E+03 -8.12628E+03 -2.56730E+03
 -4.62731E+03 -6.77358E+03 -2.79357E+02 -5.19195E+03  2.47442E+03 -2.32461E+03  1.81229E+03 -2.12483E+03
  1.38474E+03 -1.97093E+03  2.39816E+03 -2.30180E+03  3.80864E+03 -1.82461E+03  3.48655E+03  4.12205E+02
  5.09312E+03  1.19156E+03  1.19860E+03  3.87386E+03 -1.77501E+03  3.33869E+03 -4.86906E+03  2.47099E+03
 -5.11419E+03 -1.48301E+03 -1.72838E+03 -3.58724E+03 -5.08146E+01 -5.77533E+03  2.72035E+03 -5.77546E+03
  5.27826E+03 -3.42757E+03  7.08730E+03  7.65487E+02  5.15894E+03  4.09926E+03  8.40605E+02  6.31036E+03
 -2.32232E+03  5.97343E+03 -3.17151E+03  2.06148E+03 -2.26176E+03 -7.48739E+02 -3.56859E+02 -7.21776E+02
 -4.10693E+02 -4.66320E+01 -7.26543E+02  2.00608E+03 -2.65285E+03  6.43014E+02 -4.03672E+03 -2.35147E+02
 -1.88955E+03 -4.25730E+03  3.85551E+02 -4.86777E+03  3.03804E+03 -4.63363E+03  3.69187E+03 -9.24514E+02
  4.84974E+03  2.76532E+03  2.31966E+03  3.23457E+03 -8.11026E+02  4.91153E+03 -3.12708E+03  2.58827E+03
 -4.13731E+03  6.38554E+02 -3.57066E+03 -2.42152E+03 -2.61320E+02 -3.86505E+03  1.78234E+03 -3.00893E+03
  2.96885E+03 -1.30773E+03  1.80186E+03  4.47230E+02  6.64751E+02  1.86703E+03  2.45518E+02  8.29705E+02
  1.44494E+03  3.13656E+02  9.33528E+02  9.24884E+02  7.67251E+02  2.62230E+03  1.31432E+03  1.63713E+03
 -1.49988E+03  3.37441E+03 -2.71801E+03  4.02113E+03 -3.34197E+03  1.63340E+03 -4.83289E+03 -1.39894E+03
 -2.24969E+03 -4.06957E+03  8.08024E+02 -5.38881E+03  1.76908E+03 -2.63555E+03  3.20780E+03 -1.10697E+03
  2.68916E+03  2.09711E+03  6.85724E+02  2.52940E+03 -4.35134E+02  1.11307E+03 -1.19278E+03  4.55172E+01
 -6.36524E+02 -2.15614E+03  1.56321E+03 -1.51248E+03  1.72647E+03 -9.40853E+02  1.17979E+03  2.80403E+02
  1.02184E+03  8.36857E+01  9.79882E+02 -8.25071E+01 -1.44741E+02  3.69854E+01  1.63029E+03 -7.02034E+02
 -3.33476E+02 -4.50369E+02  1.88682E+03  1.15913E+03  9.64448E+01  2.64300E+03 -1.20842E+02  3.27321E+03
 -1.81264E+03  1.18721E+03 -2.04130E+03  8.37059E+01 -2.84141E+03 -5.88403E+02  1.33996E+02 -1.40229E+03
  1.11967E+02 -9.70884E+02  1.01795E+03 -5.73969E+02  4.70494E+02  1.42804E+03 -1.03741E+03  1.37915E+03
 -2.04296E+03  7.08049E+02 -1.15043E+03 -1.25787E+03 -3.77673E+02 -2.69723E+03 -2.27453E+02 -1.72404E+03
  3.08517E+02 -3.39562E+02  1.30175E+03  7.61108E+02  1.84259E+03 -1.35433E+01  5.41216E+02  1.06853E+03
 -5.67224E+02 -5.05326E+01 -8.49679E+02 -5.79838E+02  6.13201E+02 -9.04475E+02  1.57617E+03 -1.06078E+03
  8.99432E+02  3.76090E+02  3.40198E+03  6.92347E+02  1.00540E+03  1.74845E+03 -3.08518E+02  2.40419E+03
 -1.22343E+03  6.58592E+02 -2.27506E+03 -3.92251E+01 -1.20566E+03 -1.26769E+03  2.62530E+02 -1.26917E+03
  1.63716E+03 -8.30060E+02  9.31164E+02  5.06017E+02 -7.79967E+01  1.31988E+03 -1.07151E+02  1.25596E+03
 -6.20471E+02  9.97084E+02 -7.23647E+02  1.38400E+02 -8.01067E+01  3.74883E+02 -4.46342E+02  8.94064E+02
 -2.76297E+02  1.42069E+03 -1.52388E+03  5.39139E+02 -1.60761E+03 -4.20633E+02 -2.47605E+03 -1.38902E+03
 -8.22500E+02 -2.38319E+03  3.85371E+02 -2.96317E+03  1.06710E+03 -2.39413E+03  2.81195E+03 -8.18621E+02
  2.75186E+03 -7.06486E+01  1.41277E+03  1.34104E+03 -4.41801E+02  1.67714E+03 -1.75639E+02  1.76535E+03
 -1.02126E+03  5.47633E+02 -7.14570E+02 -7.35088E+02 -1.41331E+02 -6.82498E+01 -5.83145E+02  2.18542E+00
 -2.80689E+02  1.17362E+02 -5.38574E+02 -5.38437E+01  2.98437E+02 -9.09046E+02 -3.88382E+02 -4.33772E+02
  9.69376E+02 -9.38786E+02  6.56475E+02  2.83582E+02  1.62909E+03  1.59550E+03 -2.33658E+02  1.32404E+03
 -1.95193E+03  2.85982E+03 -1.83510E+03  1.17055E+03 -2.05011E+03 -5.63961E+01 -1.07844E+03 -1.30533E+03
 -7.70493E+02 -1.12174E+03  9.00945E+02 -1.24951E+03  5.09505E+02 -1.33690E+03  1.12553E+03  4.64926E+02
  8.09886E+02  8.41988E+02  2.40886E+02  1.83090E+01 -2.20347E+02  2.44297E+02 -4.97249E+02 -9.91131E+01
  3.85923E+02 -6.38055E+02  4.17490E+02  4.51107E+02  1.29500E+02  5.12192E+02  5.39239E+02  4.17279E+02
 -9.59374E+02  4.20677E+02 -5.08753E+02 -6.81443E+01 -1.00487E+03 -6.14099E+02 -3.35126E+02 -1.19956E+03
  4.98586E+02 -9.60782E+02  4.16718E+02  4.14078E+02  1.40494E+03 -9.42153E+02  4.92731E+02  1.05024E+03
  2.54447E+02  4.20568E+01 -5.73376E+02  4.80902E+02 -1.41553E+02  3.39585E+02 -3.56089E+02  1.79052E+02
  2.27688E+02  1.41909E+01 -6.66890E+02  3.60918E+01 -6.20704E+02 -5.34246E+02 -5.51481E+02 -2.84628E+02
 -1.65487E+03  4.67371E+02 -2.64677E+02 -1.39033E+03  4.76795E+02 -1.19687E+03  7.09437E+02 -3.72587E+02
  7.87827E+02  6.79634E+02 -2.23299E+02  9.25443E+02 -1.47942E+02  8.49816E+02 -2.93874E+02  5.09559E+02
