 $NMID ID='MM_0lb_SNR400_8hz_g50_65.RAW', FMTDAT='(8E13.5)'
 TRAMP=1., VOLUME=1. $END
  3.09465E+05  7.65167E+02  3.37691E+05  2.50651E+05  8.48886E+04  3.38220E+05 -1.33281E+05  2.52412E+05
 -1.90729E+05  8.40562E+04 -1.12682E+05 -3.25197E+04  3.92942E+02 -5.08851E+04  5.44324E+04 -1.47809E+03
  3.60792E+04  5.30133E+04 -1.61380E+04  7.57362E+04 -6.15080E+04  6.47676E+04 -8.53856E+04  3.34957E+04
 -8.27744E+04 -1.25057E+04 -5.89077E+04 -5.27918E+04 -1.44629E+04 -7.03911E+04  2.76897E+04 -4.73159E+04
  4.11576E+04  3.34727E+03  1.67719E+04  4.87816E+04 -3.47073E+04  4.91816E+04 -6.78489E+04  6.25874E+02
 -5.46976E+04 -5.83833E+04 -7.36066E+03 -8.00746E+04  3.43480E+04 -5.72669E+04  5.04841E+04 -1.85300E+04
  4.55422E+04  1.12533E+04  3.32297E+04  2.62132E+04  1.54440E+04  3.07570E+04 -5.66588E+03  2.78809E+04
 -2.28414E+04  1.20858E+04 -1.76825E+04 -5.58803E+03  6.89683E+03 -6.96678E+03  2.38296E+04  1.37061E+04
  6.90790E+03  3.80145E+04 -3.49587E+04  3.77039E+04 -6.64516E+04  2.19941E+03 -5.97650E+04 -4.39303E+04
 -1.24612E+04 -6.64111E+04  4.17822E+04 -4.80390E+04  6.16477E+04 -2.92852E+03  3.71179E+04  3.53901E+04
 -6.30734E+03  3.96987E+04 -3.18090E+04  1.97802E+04 -3.38154E+04 -3.68764E+03 -2.01637E+04 -1.22362E+04
 -9.21178E+03 -1.52001E+04  2.27970E+02 -1.96707E+04  9.25153E+03 -2.31738E+04  1.58320E+04 -1.21944E+04
  9.64681E+03  6.33373E+03 -1.07474E+04  1.23607E+04 -2.41443E+04 -6.51987E+03 -9.49748E+03 -3.79977E+04
  2.47692E+04 -4.76637E+04  5.20868E+04 -2.10342E+04  4.92984E+04  2.13128E+04  1.72048E+04  4.78360E+04
 -1.62573E+04  3.68072E+04 -2.81626E+04  3.19875E+03 -1.19833E+04 -2.95459E+04  2.18673E+04 -3.64553E+04
  4.45109E+04 -1.09376E+04  4.07254E+04  2.54184E+04  2.17107E+04  5.24787E+04 -8.63437E+03  5.75185E+04
 -3.68774E+04  3.91891E+04 -4.93688E+04  1.10773E+04 -4.85356E+04 -1.93659E+04 -2.66920E+04 -4.20230E+04
  8.34634E+03 -4.27545E+04  3.45066E+04 -1.67155E+04  3.32135E+04  1.05333E+04  5.72096E+03  2.12037E+04
 -1.32248E+04  1.04173E+04 -1.15338E+04 -7.71488E+03  5.98306E+03 -1.07370E+04  1.94472E+04  5.42701E+03
  1.49587E+04  2.36003E+04 -5.09270E+03  2.73437E+04 -2.43346E+04  1.51998E+04 -3.22814E+04 -2.56590E+03
 -2.72365E+04 -1.90561E+04 -1.23532E+04 -2.52904E+04  4.57450E+03 -2.60390E+04  2.06403E+04 -2.39976E+04
  3.39434E+04 -1.44419E+04  4.01945E+04  4.71657E+03  2.80052E+04  2.44867E+04  4.39742E+03  4.29736E+04
 -2.07883E+04  3.40052E+04 -3.21178E+04  1.19214E+04 -2.18730E+04 -1.01547E+04 -4.98041E+03 -1.20462E+04
  2.34397E+02 -9.29547E+02 -8.12352E+03  8.35679E+03 -2.08832E+04  4.51180E+03 -2.08059E+04 -9.83311E+03
 -1.18972E+04 -2.35380E+04  6.17543E+03 -2.89742E+04  1.96474E+04 -1.97403E+04  2.34824E+04 -1.37187E+03
  1.51734E+04  1.60460E+04 -1.61003E+03  2.37687E+04 -1.80352E+04  1.30025E+04 -2.50522E+04 -4.81887E+03
 -1.81575E+04 -2.14296E+04 -2.20714E+03 -2.94374E+04  1.26691E+04 -2.46160E+04  2.38673E+04 -1.27606E+04
  2.20633E+04  1.64930E+02  1.66552E+04  4.96531E+03  9.54132E+03  1.42505E+03  1.27033E+04 -2.07318E+03
  2.20948E+04  3.50104E+03  2.65048E+04  1.93734E+04  1.82416E+04  3.92206E+04 -3.12196E+03  4.70517E+04
 -2.58721E+04  3.87915E+04 -4.39320E+04  2.13480E+04 -4.72394E+04 -3.37741E+03 -3.79026E+04 -2.76165E+04
 -1.49701E+04 -4.02337E+04  1.42426E+04 -3.40466E+04  2.98334E+04 -1.58707E+04  2.55355E+04  8.34976E+03
  7.83247E+03  2.01357E+04 -1.17716E+04  1.57948E+04 -2.07117E+04  2.65021E+03 -1.60848E+04 -1.42554E+04
 -1.02969E+03 -1.97559E+04  1.05213E+04 -1.48338E+04  1.44274E+04 -1.55710E+03  3.83998E+03  9.26310E+03
 -9.06718E+03  4.76829E+03 -1.01004E+04 -7.24236E+03 -1.68987E+03 -1.95002E+04  1.23027E+04 -2.06414E+04
  2.43080E+04 -1.19356E+04  2.82780E+04  2.93859E+03  2.50133E+04  1.95662E+04  1.04927E+04  3.01285E+04
 -5.64572E+03  3.31542E+04 -2.17824E+04  2.11075E+04 -2.46599E+04  3.41146E+03 -1.65730E+04 -6.26815E+03
 -6.72404E+03 -7.93222E+03 -1.00222E+03  2.66187E+02 -2.99760E+03  4.09296E+03 -8.18036E+03  5.59055E+03
 -1.51837E+04 -1.01027E+03 -1.61600E+04 -1.28164E+04 -6.22536E+03 -2.12096E+04  5.31800E+03 -1.68374E+04
  1.36046E+04 -6.79045E+03  9.89780E+03  4.99738E+03 -9.43426E+02  5.81157E+03 -8.82577E+03  1.31180E+01
 -7.72429E+03 -1.01301E+04 -1.99289E+03 -1.73148E+04  9.53052E+03 -1.78344E+04  2.12102E+04 -9.45129E+03
  2.58101E+04  3.01851E+03  1.79839E+04  1.57888E+04  3.25154E+03  1.90807E+04 -1.06188E+04  1.66233E+04
 -1.26444E+04  5.53391E+03 -6.90969E+03 -3.71951E+03  1.33205E+03 -4.21622E+03  8.72740E+03 -1.94165E+03
  8.30538E+03  8.24672E+03  1.15256E+03  1.37424E+04 -9.73964E+03  1.27052E+04 -1.65025E+04  3.31149E+03
 -1.25347E+04 -9.36316E+03 -1.67247E+02 -1.55185E+04  9.70329E+03 -8.24395E+03  1.07542E+04  3.91088E+03
  2.39731E+03  1.05700E+04 -9.07628E+03  1.30671E+04 -1.45667E+04  5.44813E+03 -1.53820E+04 -5.24744E+03
 -9.29308E+03 -1.72176E+04  4.33314E+03 -1.93092E+04  1.69493E+04 -1.20163E+04  1.81554E+04  3.08442E+03
  1.10006E+04  1.40257E+04 -9.56222E+02  1.67705E+04 -1.25494E+04  1.00718E+04 -1.39589E+04 -2.38307E+03
 -1.18666E+04 -1.12690E+04 -1.17040E+03 -1.31491E+04  6.75250E+03 -9.92935E+03  9.01858E+03 -4.19337E+03
  5.81711E+03  2.77422E+03 -4.44169E+02  1.72696E+03 -1.32369E+03 -3.17048E+03  2.42595E+03 -8.52786E+03
  1.35205E+04 -4.94530E+03  1.81600E+04  1.69859E+03  1.65544E+04  1.26642E+04  1.08493E+04  2.33141E+04
 -6.06078E+03  2.64591E+04 -2.26869E+04  2.01430E+04 -2.83007E+04  4.13772E+03 -2.35229E+04 -9.66194E+03
 -1.14785E+04 -1.88181E+04 -4.83361E+02 -1.58878E+04  5.11940E+03 -9.69026E+03  5.84090E+03 -5.46322E+03
  4.53763E+03 -3.44617E+03  4.59233E+03 -4.38478E+03  5.55082E+03 -3.94361E+03  8.99345E+03 -1.93708E+03
  1.14313E+04  3.25125E+03  7.50530E+03  1.04671E+04 -2.61712E+03  1.15643E+04 -1.18308E+04  9.33627E+03
 -1.65121E+04 -1.14838E+03 -1.07310E+04 -1.13433E+04 -1.37923E+03 -1.80730E+04  9.12154E+03 -1.69291E+04
  1.84522E+04 -9.48883E+03  2.14690E+04  3.80668E+03  1.48515E+04  1.47893E+04  1.97383E+03  1.98437E+04
 -8.62583E+03  1.60217E+04 -1.12871E+04  5.46724E+03 -7.47804E+03 -1.83794E+03 -2.61514E+03 -2.02506E+03
 -1.40329E+03 -5.38476E+02 -2.20865E+03  2.50840E+03 -6.36068E+03  2.76371E+03 -1.06263E+04 -1.26434E+03
 -8.34278E+03 -1.19056E+04 -7.40713E+02 -1.64911E+04  9.75914E+03 -1.51400E+04  1.67239E+04 -4.80868E+03
  1.68163E+04  8.39955E+03  7.49696E+03  1.56220E+04 -3.39635E+03  1.66864E+04 -1.22158E+04  1.08090E+04
 -1.47598E+04 -1.91165E+01 -1.27420E+04 -9.72917E+03 -9.86812E+02 -1.43365E+04  6.91572E+03 -1.13494E+04
  9.92273E+03 -2.90557E+03  7.15230E+03  3.37306E+03  2.63403E+03  4.95524E+03  1.57008E+03  2.66864E+03
  3.05243E+03  1.17011E+03  3.74085E+03  1.56333E+03  5.18502E+03  6.43257E+03  4.14055E+03  1.05590E+04
 -3.85473E+03  1.35579E+04 -1.21020E+04  1.24405E+04 -1.79873E+04  3.24622E+03 -1.71119E+04 -7.49828E+03
 -8.52193E+03 -1.79622E+04  2.24930E+03 -1.82516E+04  1.00522E+04 -1.16855E+04  1.43663E+04 -3.06382E+03
  1.17947E+04  6.53446E+03  2.63092E+03  9.61544E+03 -4.77315E+03  6.58427E+03 -7.76677E+03 -1.59826E+03
 -3.15656E+03 -7.10499E+03  4.07769E+03 -7.95581E+03  6.71492E+03 -4.07183E+03  6.88282E+03  1.04682E+03
  3.95141E+03  3.16866E+03  1.68493E+03  3.08196E+03 -6.76721E+02  2.41046E+03  1.68711E+03 -9.48400E+02
  3.16186E+03 -6.49953E+02  6.45549E+03  2.31249E+03  4.79569E+03  8.89301E+03 -1.06657E+03  1.19161E+04
 -8.02999E+03  8.46593E+03 -1.18583E+04  2.41515E+03 -9.55919E+03 -3.28008E+03 -4.67363E+03 -7.05993E+03
  8.38013E+02 -6.30188E+03  5.17464E+03 -2.69926E+03  4.59428E+03  3.08265E+03 -1.64207E+03  6.62422E+03
 -7.84796E+03  4.14821E+03 -8.63828E+03 -3.80373E+03 -4.40899E+03 -9.70526E+03  1.19599E+03 -9.74901E+03
  6.41997E+03 -6.45608E+03  7.38686E+03 -1.79959E+03  5.61234E+03  2.65731E+03  4.53727E+02  5.42383E+03
 -3.06164E+03  1.60688E+03 -4.76519E+03 -3.90655E+03  1.21363E+03 -7.43731E+03  8.42961E+03 -5.75397E+03
  1.12041E+04  1.02657E+03  1.04935E+04  8.38382E+03  3.12993E+03  1.23351E+04 -3.43941E+03  1.10472E+04
 -9.73746E+03  4.85700E+03 -9.17860E+03 -2.39575E+03 -5.92884E+03 -7.68738E+03  6.06138E+02 -7.17405E+03
  6.94962E+03 -3.95651E+03  5.84324E+03  3.32518E+03  2.52107E+03  6.62025E+03 -1.80990E+03  5.42849E+03
 -3.07585E+03  3.19843E+03 -2.89880E+03  1.35735E+03 -1.38477E+03  1.57915E+03 -1.79417E+03  2.28699E+03
 -2.49004E+03  3.70829E+03 -7.31238E+03  4.07419E+03 -1.16610E+04  8.77630E+01 -1.38223E+04 -8.01694E+03
 -7.13012E+03 -1.49347E+04  3.98731E+03 -1.91459E+04  1.13927E+04 -1.40142E+04  1.66450E+04 -6.06240E+03
  1.66429E+04  3.87554E+03  9.54932E+03  1.12201E+04  8.97659E+02  1.30123E+04 -5.08837E+03  8.42474E+03
 -7.45343E+03  3.41754E+03 -4.33908E+03 -1.78719E+03 -1.00296E+03 -1.39334E+03 -1.18224E+03  3.78327E+02
 -1.80888E+03  3.12313E+02 -2.87359E+03 -9.72745E+02 -5.33078E+02 -3.28538E+03  1.31502E+02 -4.90178E+03
  5.56463E+03 -4.10003E+03  8.32013E+03  4.10452E+02  8.30212E+03  6.42846E+03  2.80708E+03  1.22759E+04
 -6.49406E+03  1.47000E+04 -1.29547E+04  7.89876E+03 -1.58609E+04 -1.62508E+03 -1.13708E+04 -8.61373E+03
 -4.72331E+03 -1.27606E+04  3.80501E+03 -1.14322E+04  8.46898E+03 -6.26880E+03  8.49994E+03 -1.83516E+02
  4.18908E+03  3.82910E+03 -1.54330E+03  4.15691E+03 -2.70087E+03 -7.79536E+02 -4.36281E+02 -3.04646E+03
  3.56627E+03 -1.35344E+03  4.98029E+03  2.03158E+03  3.06731E+03  4.63296E+03  1.28590E+02  6.75585E+03
 -5.64239E+03  5.96178E+03 -9.07380E+03 -3.16501E+02 -7.26699E+03 -6.52711E+03 -1.50297E+03 -1.07596E+04
  6.26116E+03 -9.24003E+03  9.77000E+03 -2.42292E+03  8.88545E+03  3.09408E+03  5.52879E+03  8.36468E+03
  1.45311E+03  8.86069E+03 -3.71221E+03  7.30461E+03 -6.04080E+03  4.25244E+03 -5.27151E+03  3.02682E+02
 -2.96846E+03 -3.35725E+02 -2.70064E+03  2.16735E+02 -4.36132E+03  1.99759E+03 -5.47595E+03 -2.96617E+02
 -5.42613E+03 -4.07099E+03 -2.73039E+03 -8.98711E+03  3.30425E+03 -9.77289E+03  6.20262E+03 -4.52393E+03
  8.93574E+03  1.72189E+03  4.06429E+03  6.56085E+03 -1.08233E+03  8.59919E+03 -6.57739E+03  5.46076E+03
