 $NMID ID='MM_0lb_SNR400_7hz_g50_36.RAW', FMTDAT='(8E13.5)'
 TRAMP=1., VOLUME=1. $END
  3.09431E+05  8.21086E+02  3.37803E+05  2.50472E+05  8.53244E+04  3.38486E+05 -1.32436E+05  2.51508E+05
 -1.90674E+05  8.50460E+04 -1.14008E+05 -3.20588E+04 -4.75914E+02 -5.06295E+04  5.38941E+04 -5.85439E+02
  3.55831E+04  5.32371E+04 -1.60820E+04  7.59878E+04 -6.20748E+04  6.39739E+04 -8.58066E+04  3.30613E+04
 -8.32000E+04 -1.19839E+04 -5.81755E+04 -5.20483E+04 -1.47640E+04 -7.22283E+04  2.77344E+04 -4.74540E+04
  4.15939E+04  3.87057E+03  1.79213E+04  4.95073E+04 -3.49428E+04  4.87243E+04 -6.87832E+04  1.69868E+02
 -5.54657E+04 -5.88436E+04 -6.83969E+03 -8.06043E+04  3.52548E+04 -5.79815E+04  5.17420E+04 -1.87080E+04
  4.53656E+04  1.18177E+04  3.36802E+04  2.64703E+04  1.67373E+04  3.22772E+04 -6.12655E+03  2.77849E+04
 -2.36992E+04  1.18006E+04 -1.73184E+04 -5.58110E+03  8.28423E+03 -7.35260E+03  2.40242E+04  1.43090E+04
  6.93269E+03  3.96094E+04 -3.46915E+04  3.76369E+04 -6.67596E+04  2.20509E+03 -5.91979E+04 -4.47531E+04
 -1.25122E+04 -6.61209E+04  4.28995E+04 -4.90759E+04  6.24796E+04 -3.03079E+03  3.81140E+04  3.54259E+04
 -5.76331E+03  4.05840E+04 -3.25088E+04  1.99211E+04 -3.44152E+04 -3.11342E+03 -2.03755E+04 -1.15250E+04
 -1.03356E+04 -1.52024E+04 -6.57853E+02 -1.95399E+04  8.39162E+03 -2.27328E+04  1.60265E+04 -1.25200E+04
  1.02638E+04  6.79949E+03 -1.17069E+04  1.39337E+04 -2.44649E+04 -7.14037E+03 -8.16511E+03 -3.87083E+04
  2.56673E+04 -4.85810E+04  5.44158E+04 -2.05555E+04  5.01003E+04  2.19785E+04  1.79465E+04  4.89079E+04
 -1.73401E+04  3.68471E+04 -2.80301E+04  3.37389E+03 -1.22600E+04 -3.02835E+04  2.18278E+04 -3.84835E+04
  4.76337E+04 -1.20093E+04  4.24702E+04  2.46601E+04  2.25076E+04  5.34377E+04 -8.52076E+03  5.95667E+04
 -3.73103E+04  3.97668E+04 -5.05251E+04  1.20677E+04 -4.99137E+04 -1.98226E+04 -2.76345E+04 -4.34302E+04
  8.43317E+03 -4.39996E+04  3.55998E+04 -1.80217E+04  3.22069E+04  1.16100E+04  6.24100E+03  2.18453E+04
 -1.41170E+04  9.38673E+03 -1.24272E+04 -7.82284E+03  5.82320E+03 -1.16926E+04  1.86566E+04  5.24736E+03
  1.54541E+04  2.32273E+04 -4.50941E+03  2.79821E+04 -2.40919E+04  1.53611E+04 -3.28822E+04 -2.04873E+03
 -2.75812E+04 -1.92002E+04 -1.29790E+04 -2.73774E+04  3.91615E+03 -2.77966E+04  2.09144E+04 -2.54616E+04
  3.50541E+04 -1.44532E+04  4.04638E+04  5.02502E+03  2.77872E+04  2.60623E+04  5.01410E+03  4.41343E+04
 -2.13777E+04  3.49679E+04 -3.13604E+04  1.25024E+04 -2.20797E+04 -1.03850E+04 -4.71449E+03 -1.23464E+04
  8.32313E+02 -3.76338E+02 -8.88483E+03  9.47650E+03 -2.28387E+04  5.73929E+03 -2.17009E+04 -9.93911E+03
 -1.28200E+04 -2.57599E+04  6.69275E+03 -2.93693E+04  2.00843E+04 -2.08036E+04  2.44795E+04 -2.15976E+03
  1.64532E+04  1.78811E+04 -1.36263E+03  2.41769E+04 -1.83561E+04  1.42875E+04 -2.62482E+04 -4.86129E+03
 -1.84458E+04 -2.28907E+04 -2.56822E+03 -2.98174E+04  1.28590E+04 -2.55345E+04  2.57950E+04 -1.28079E+04
  2.33449E+04 -3.82374E+02  1.78028E+04  5.28770E+03  9.92637E+03  1.47402E+03  1.30101E+04 -1.02725E+03
  2.33944E+04  3.07529E+03  2.90677E+04  1.99686E+04  1.92208E+04  4.12277E+04 -2.09649E+03  4.88663E+04
 -2.75996E+04  4.10844E+04 -4.59898E+04  2.20610E+04 -5.01442E+04 -2.67119E+03 -4.03057E+04 -2.91722E+04
 -1.51172E+04 -4.12914E+04  1.35182E+04 -3.65067E+04  3.12851E+04 -1.64764E+04  2.66600E+04  9.19553E+03
  7.91456E+03  2.14177E+04 -1.23770E+04  1.65645E+04 -2.21684E+04  2.05377E+03 -1.69943E+04 -1.37667E+04
 -1.25398E+03 -2.12559E+04  1.26353E+04 -1.56554E+04  1.44051E+04 -1.17594E+03  3.77163E+03  1.04044E+04
 -9.36201E+03  4.73172E+03 -1.08868E+04 -8.12796E+03 -2.35427E+03 -2.02433E+04  1.34368E+04 -2.33417E+04
  2.55201E+04 -1.24288E+04  2.97743E+04  3.01644E+03  2.65675E+04  2.14193E+04  1.24368E+04  3.28815E+04
 -5.65810E+03  3.46574E+04 -2.29857E+04  2.18847E+04 -2.58579E+04  4.04187E+03 -1.76113E+04 -7.77458E+03
 -5.87078E+03 -6.94311E+03 -8.44771E+02  8.78884E+02 -2.91777E+03  3.32583E+03 -8.06169E+03  6.21424E+03
 -1.50000E+04 -1.13490E+03 -1.55825E+04 -1.31064E+04 -6.98699E+03 -2.15226E+04  7.74585E+03 -1.79181E+04
  1.47602E+04 -7.89406E+03  9.29589E+03  3.60451E+03 -3.00120E+02  7.87322E+03 -9.28026E+03 -4.80465E+02
 -8.83421E+03 -1.13628E+04 -1.41707E+03 -1.66562E+04  1.07590E+04 -1.90890E+04  2.26218E+04 -1.02194E+04
  2.64831E+04  3.68895E+03  1.96572E+04  1.70566E+04  3.06344E+03  2.21060E+04 -1.05572E+04  1.82856E+04
 -1.36073E+04  4.25417E+03 -7.56116E+03 -4.60333E+03  2.13217E+03 -5.55380E+03  9.14588E+03 -7.41968E+02
  9.53372E+03  8.26350E+03  1.29761E+03  1.37795E+04 -1.11461E+04  1.42490E+04 -1.81118E+04  3.22955E+03
 -1.29018E+04 -1.04225E+04 -5.41388E+01 -1.55593E+04  1.03129E+04 -7.72802E+03  1.11827E+04  4.01036E+03
  3.38263E+03  1.24569E+04 -9.39232E+03  1.33787E+04 -1.73700E+04  6.16445E+03 -1.65231E+04 -6.12991E+03
 -9.07477E+03 -1.90392E+04  5.10784E+03 -2.18043E+04  1.90621E+04 -1.30441E+04  1.97945E+04  4.08958E+03
  1.19372E+04  1.56455E+04 -2.00664E+03  1.81634E+04 -1.33837E+04  9.87872E+03 -1.56901E+04 -1.86599E+03
 -1.11012E+04 -1.15801E+04 -1.87699E+03 -1.35869E+04  8.14178E+03 -9.77234E+03  9.42841E+03 -3.36475E+03
  4.94919E+03  2.27316E+03 -1.10826E+03  2.58524E+03 -1.31479E+03 -3.88552E+03  3.40334E+03 -9.65377E+03
  1.36417E+04 -6.05632E+03  1.95574E+04  2.52378E+03  1.91698E+04  1.38474E+04  1.27975E+04  2.55130E+04
 -6.62604E+03  2.87181E+04 -2.33404E+04  2.11437E+04 -3.03326E+04  4.39376E+03 -2.55220E+04 -1.12508E+04
 -1.19511E+04 -2.07713E+04 -1.79719E+02 -1.75589E+04  6.63091E+03 -9.91672E+03  7.25700E+03 -6.44636E+03
  4.57901E+03 -3.85057E+03  4.07599E+03 -4.78423E+03  5.50447E+03 -3.98361E+03  9.67479E+03 -2.14060E+03
  1.32729E+04  4.14391E+03  8.46453E+03  1.10986E+04 -2.81340E+03  1.43729E+04 -1.39581E+04  1.11101E+04
 -1.76888E+04 -1.90049E+03 -1.11970E+04 -1.31964E+04 -1.99937E+03 -2.05416E+04  1.12110E+04 -2.05147E+04
  2.05028E+04 -1.08816E+04  2.46575E+04  3.20160E+03  1.64529E+04  1.77737E+04  2.63083E+03  2.13843E+04
 -1.05756E+04  1.78678E+04 -1.30559E+04  6.45812E+03 -9.47602E+03 -2.22079E+03 -4.20135E+03 -2.90440E+03
 -1.54914E+03 -6.10680E+01 -2.66101E+03  2.71085E+03 -8.13021E+03  3.03152E+03 -1.28833E+04 -2.77191E+03
 -1.00015E+04 -1.22452E+04 -3.86798E+02 -1.82220E+04  1.08481E+04 -1.64009E+04  1.94608E+04 -5.62521E+03
  1.88386E+04  9.01499E+03  9.28309E+03  1.69354E+04 -5.17512E+03  1.92501E+04 -1.50923E+04  1.13895E+04
 -1.80746E+04  1.60162E+02 -1.41415E+04 -1.12671E+04 -1.59212E+03 -1.58321E+04  7.45830E+03 -1.28154E+04
  1.17294E+04 -4.35800E+03  7.76401E+03  2.94505E+03  2.48458E+03  5.08724E+03  2.00651E+03  2.39119E+03
  2.28509E+03  1.87020E+03  4.65559E+03  2.02948E+03  6.42194E+03  5.81988E+03  5.27735E+03  1.05446E+04
 -3.86749E+03  1.44862E+04 -1.29214E+04  1.49302E+04 -2.08715E+04  3.44384E+03 -2.06026E+04 -9.34709E+03
 -9.13926E+03 -1.92389E+04  3.09420E+03 -2.15212E+04  1.22198E+04 -1.38689E+04  1.58377E+04 -2.83146E+03
  1.29541E+04  7.01478E+03  3.09374E+03  1.03560E+04 -4.54495E+03  8.25765E+03 -8.14979E+03 -2.03906E+03
 -4.90098E+03 -8.58180E+03  4.13212E+03 -8.65537E+03  7.31184E+03 -4.10741E+03  7.36228E+03  1.60352E+03
  5.04639E+03  4.46905E+03  1.60172E+03  3.74049E+03 -2.60113E+02  2.34057E+03  1.63353E+03 -6.48496E+02
  2.65343E+03 -5.43712E+02  8.50767E+03  2.83593E+03  5.03516E+03  1.05816E+04 -1.95972E+03  1.42709E+04
 -9.44822E+03  9.27739E+03 -1.32826E+04  1.36794E+03 -1.13638E+04 -4.41343E+03 -4.13118E+03 -7.64823E+03
  7.11248E+02 -8.25006E+03  5.28867E+03 -2.93787E+03  5.83972E+03  3.50642E+03 -1.90491E+03  6.78227E+03
 -7.98674E+03  2.89407E+03 -9.66893E+03 -3.83753E+03 -6.08234E+03 -1.04084E+04  1.12861E+03 -1.18264E+04
  7.04737E+03 -7.36462E+03  8.45755E+03 -5.87571E+02  6.24613E+03  2.59427E+03  7.82337E+02  5.55131E+03
 -4.43183E+03  1.70903E+03 -4.80043E+03 -5.08685E+03  1.37267E+03 -8.88725E+03  1.04120E+04 -6.94240E+03
  1.33990E+04  1.60284E+03  1.31393E+04  9.14138E+03  4.03408E+03  1.41944E+04 -4.76144E+03  1.28071E+04
 -1.09445E+04  5.97269E+03 -1.08553E+04 -1.57163E+03 -6.09043E+03 -8.65818E+03  2.32548E+03 -8.21473E+03
  9.08844E+03 -4.69779E+03  7.36020E+03  3.86278E+03  2.55143E+03  6.56212E+03 -1.90649E+03  6.51791E+03
 -3.00777E+03  4.29011E+03 -2.65918E+03  1.64147E+03 -2.25024E+03  1.92544E+03 -2.59366E+03  3.68850E+03
 -2.69101E+03  5.17252E+03 -9.00328E+03  4.69085E+03 -1.38143E+04 -1.06406E+03 -1.61235E+04 -9.95982E+03
 -7.81269E+03 -1.89326E+04  3.67376E+03 -2.12302E+04  1.36310E+04 -1.64595E+04  2.02698E+04 -6.89555E+03
  1.88031E+04  4.17848E+03  1.12741E+04  1.35825E+04  8.13444E+02  1.49673E+04 -4.18466E+03  1.09423E+04
 -7.93103E+03  4.19353E+03 -5.60877E+03 -1.27506E+03 -1.85214E+03 -1.09639E+03 -4.03275E+02 -3.84520E+02
 -2.97873E+03  1.47857E+03 -2.65999E+03 -4.40441E+02 -1.64426E+03 -2.86990E+03  6.69368E+02 -5.18958E+03
  6.41899E+03 -4.24786E+03  9.98696E+03  6.40065E+02  9.13350E+03  7.03294E+03  3.11450E+03  1.55690E+04
 -6.69817E+03  1.63389E+04 -1.65584E+04  9.16384E+03 -1.75905E+04 -2.25106E+03 -1.47583E+04 -1.08851E+04
 -5.23636E+03 -1.54676E+04  3.89793E+03 -1.41558E+04  9.43070E+03 -8.67783E+03  1.02697E+04  3.80646E+02
  6.50027E+03  4.13136E+03 -4.55705E+02  4.61576E+03 -2.88206E+03 -4.14344E+02 -3.94356E+01 -3.65534E+03
  5.37601E+03 -1.87817E+03  5.90314E+03  5.89377E+02  4.02137E+03  5.58698E+03  1.51496E+03  8.65980E+03
 -7.48754E+03  7.24944E+03 -1.11356E+04  4.23987E+02 -9.56670E+03 -7.67797E+03 -1.67363E+03 -1.34109E+04
  7.01131E+03 -1.03841E+04  1.19951E+04 -4.61557E+03  1.17140E+04  2.79020E+03  7.37089E+03  9.99434E+03
  3.94953E+02  9.88610E+03 -3.99178E+03  8.45686E+03 -6.67481E+03  4.59577E+03 -6.02895E+03  1.45876E+02
 -3.11746E+03 -7.13703E+02 -1.98637E+03  8.82385E+02 -5.51352E+03  1.61555E+03 -7.06052E+03 -1.49192E+03
 -7.48596E+03 -6.71822E+03 -2.91069E+03 -9.59707E+03  4.31331E+03 -1.07968E+04  9.59634E+03 -5.63072E+03
  1.08071E+04  1.76599E+03  6.44464E+03  8.81534E+03 -3.16382E+02  1.10176E+04 -8.87393E+03  6.88984E+03
