 $NMID ID='MM_0lb_SNR400_20hz_g45_4.RAW', FMTDAT='(8E13.5)'
 TRAMP=1., VOLUME=1. $END
  3.09671E+05  5.44285E+02  3.37213E+05  2.50428E+05  8.45117E+04  3.37425E+05 -1.31872E+05  2.49879E+05
 -1.89937E+05  8.25498E+04 -1.10489E+05 -3.29380E+04  1.73871E+03 -5.02654E+04  5.38590E+04 -7.65020E+01
  3.48062E+04  5.27733E+04 -1.71162E+04  7.45846E+04 -6.06599E+04  6.28641E+04 -8.25103E+04  3.13204E+04
 -7.93857E+04 -1.09475E+04 -5.59011E+04 -4.94411E+04 -1.46747E+04 -6.80402E+04  2.64404E+04 -4.48314E+04
  3.86500E+04  4.18039E+03  1.55356E+04  4.65902E+04 -3.33891E+04  4.58824E+04 -6.50455E+04 -9.36514E+02
 -5.15154E+04 -5.51091E+04 -6.00295E+03 -7.45492E+04  3.28151E+04 -5.26931E+04  4.52087E+04 -1.58346E+04
  4.07291E+04  1.12418E+04  3.04069E+04  2.40380E+04  1.60991E+04  2.78217E+04 -4.47307E+03  2.67826E+04
 -2.14454E+04  1.31307E+04 -1.92887E+04 -4.04946E+03  3.67492E+03 -7.88119E+03  2.09036E+04  1.03700E+04
  7.77947E+03  3.22608E+04 -2.99084E+04  3.37134E+04 -5.99143E+04  2.22018E+03 -5.50527E+04 -4.05139E+04
 -1.22350E+04 -6.00337E+04  3.76401E+04 -4.23439E+04  5.41119E+04 -1.82913E+03  3.09774E+04  3.03106E+04
 -7.04368E+03  3.23269E+04 -2.79965E+04  1.23789E+04 -2.67009E+04 -6.27125E+03 -1.37541E+04 -1.01828E+04
 -6.74243E+03 -1.11069E+04 -8.18735E+02 -1.63530E+04  6.37790E+03 -2.28329E+04  1.45616E+04 -1.45343E+04
  1.27832E+04  4.02776E+03 -5.60294E+03  1.30257E+04 -1.85512E+04 -1.96246E+03 -8.13102E+03 -2.96554E+04
  1.99654E+04 -3.95189E+04  4.34329E+04 -1.81167E+04  4.10110E+04  1.79846E+04  1.41595E+04  4.11287E+04
 -1.54410E+04  3.00765E+04 -2.30325E+04  1.15026E+03 -7.73015E+03 -2.60731E+04  2.01041E+04 -3.04647E+04
  3.70325E+04 -6.81829E+03  3.02488E+04  2.25520E+04  1.40428E+04  4.14828E+04 -7.43147E+03  4.34049E+04
 -2.75477E+04  2.86973E+04 -3.62652E+04  7.79270E+03 -3.67875E+04 -1.45872E+04 -2.05167E+04 -3.37217E+04
  6.85672E+03 -3.38616E+04  2.81099E+04 -1.18967E+04  2.62652E+04  1.00659E+04  2.58964E+03  1.75072E+04
 -1.30099E+04  6.80104E+03 -9.71097E+03 -8.12379E+03  6.02246E+03 -1.01498E+04  1.71129E+04  6.73899E+03
  1.17437E+04  2.13666E+04 -6.50795E+03  2.27914E+04 -2.11068E+04  8.10011E+03 -2.42093E+04 -7.58442E+03
 -1.53360E+04 -1.62421E+04 -4.79247E+03 -1.57244E+04  3.24413E+03 -1.31270E+04  1.07165E+04 -1.29518E+04
  1.95888E+04 -1.11455E+04  2.66951E+04  8.08149E+02  1.98851E+04  1.52531E+04  4.00008E+03  3.11285E+04
 -1.56573E+04  2.60913E+04 -2.53185E+04  9.68314E+03 -1.90435E+04 -1.04052E+04 -3.40918E+03 -1.38873E+04
  2.63901E+03 -4.62873E+03 -2.11272E+03  5.35041E+03 -1.12699E+04  5.27548E+03 -1.25150E+04 -4.37645E+03
 -7.90699E+03 -1.40798E+04  4.11989E+03 -1.79626E+04  1.19990E+04 -1.33092E+04  1.32098E+04 -1.30388E+03
  8.11773E+03  9.99909E+03 -1.36216E+03  1.45946E+04 -9.31134E+03  8.23101E+03 -1.44273E+04 -3.17825E+03
 -1.01928E+04 -1.32332E+04 -1.03670E+03 -1.81891E+04  7.42198E+03 -1.40025E+04  1.49235E+04 -6.67940E+03
  1.36847E+04  6.55617E+02  9.76988E+03  3.96463E+03  4.82480E+03  7.91877E+02  6.83267E+03 -1.12092E+03
  1.28760E+04  2.28635E+03  1.33677E+04  1.17566E+04  7.94458E+03  2.30029E+04 -3.15537E+03  2.46438E+04
 -1.49001E+04  1.80821E+04 -2.22382E+04  8.81720E+03 -2.29068E+04 -2.16696E+03 -1.94385E+04 -1.25063E+04
 -9.22758E+03 -1.83290E+04  5.54906E+03 -1.74635E+04  1.51889E+04 -1.06682E+04  1.47954E+04  2.62710E+03
  5.83663E+03  1.02921E+04 -6.34244E+03  9.72995E+03 -1.26230E+04  2.82970E+03 -9.62528E+03 -7.26791E+03
  6.35698E+02 -1.17449E+04  5.48882E+03 -9.36057E+03  7.19433E+03 -1.33527E+03  1.03584E+03  4.41160E+03
 -5.09229E+03  8.68150E+02 -3.02333E+03 -4.02798E+03  4.67232E+02 -9.16061E+03  7.37639E+03 -8.74277E+03
  1.07535E+04 -3.79939E+03  1.00682E+04  2.50733E+03  8.79722E+03  7.89546E+03  4.60012E+03  1.22982E+04
 -1.29685E+03  1.41699E+04 -8.19421E+03  9.21874E+03 -9.85301E+03  3.12421E+03 -7.74574E+03 -1.23375E+03
 -4.00745E+03 -3.06612E+03 -3.55473E+02  1.86742E+03 -2.10171E+03  1.64386E+03 -3.15042E+03  3.46243E+03
 -7.66265E+03 -2.71490E+02 -7.73127E+03 -6.30039E+03 -3.00809E+03 -1.06869E+04  3.90148E+03 -7.96060E+03
  7.26016E+03 -3.44548E+03  4.35535E+03  1.75390E+03  7.32012E+02  3.05972E+03 -2.99124E+03 -1.10312E+02
 -2.93197E+03 -4.94008E+03 -5.00095E+02 -5.99124E+03  3.40449E+03 -6.79337E+03  8.96369E+03 -3.16948E+03
  1.04444E+04  1.44336E+02  7.68473E+03  5.32175E+03  1.62413E+03  7.61321E+03 -5.19323E+03  7.19718E+03
 -6.19659E+03  2.61628E+03 -3.42715E+03 -1.28435E+03  1.12817E+03 -1.50350E+03  4.17039E+03 -7.47890E+02
  3.79339E+03  2.67156E+03  9.42892E+02  5.87043E+03 -3.99438E+03  5.76130E+03 -6.98026E+03  2.35258E+03
 -4.35798E+03 -3.28037E+03  6.70847E+02 -6.11269E+03  3.27420E+03 -2.87333E+03  2.48586E+03  8.43360E+02
  2.79639E+01  2.68751E+03 -3.32966E+03  3.30280E+03 -4.42210E+03  2.11255E+03 -3.20298E+03 -1.05849E+03
 -1.95354E+03 -5.10750E+03  1.05467E+03 -5.99008E+03  5.07986E+03 -3.99854E+03  5.50345E+03  7.46589E+02
  4.13247E+03  4.46113E+03 -3.16482E+01  6.04319E+03 -4.16785E+03  3.55633E+03 -4.76219E+03 -3.38703E+02
 -5.24337E+03 -4.49972E+03 -1.44072E+03 -4.60184E+03  2.31486E+03 -4.39529E+03  2.60559E+03 -2.88873E+03
  2.49315E+03 -1.43962E+02  5.29266E+02  1.12892E+03  1.19463E+03 -6.63632E+01 -2.72008E+02 -1.07249E+03
  3.17710E+03 -8.07252E+01  4.38053E+03  5.37763E+02  4.93632E+03  2.74209E+03  4.94026E+03  5.87326E+03
 -1.01415E+03  6.59469E+03 -6.58255E+03  4.92188E+03 -8.14360E+03  8.99066E+02 -6.67313E+03 -2.02742E+03
 -3.15668E+03 -5.52875E+03 -1.75346E+02 -4.24484E+03  2.07942E+03 -1.67922E+03  7.55380E+02 -1.30587E+03
  9.40534E+02 -1.60180E+03  1.94617E+03 -1.95340E+03  3.09328E+03 -8.89594E+02  3.43650E+03 -1.28034E+02
  3.46385E+03  9.59770E+02  1.27556E+03  2.91756E+03 -1.38799E+03  2.31583E+03 -4.26134E+03  2.23097E+03
 -4.17418E+03 -1.31258E+03 -1.22044E+03 -2.64427E+03  1.05591E+03 -4.13424E+03  2.76358E+03 -4.07520E+03
  3.96249E+03 -2.32567E+03  5.80035E+03  8.94793E+01  4.09921E+03  3.52315E+03  3.03025E+02  5.00692E+03
 -1.40789E+03  4.79646E+03 -3.10708E+03  1.40765E+03 -1.42102E+03 -1.19731E+03 -4.60426E+02 -6.44593E+02
 -2.39339E+02  4.22795E+01 -7.76628E+02  1.74028E+03 -2.14019E+03  8.67252E+02 -3.95356E+03  2.39410E+02
 -1.07168E+03 -3.28869E+03  4.18453E+02 -3.79274E+03  2.28236E+03 -3.38408E+03  2.23429E+03 -9.24053E+02
  2.76675E+03  1.88046E+03  1.81363E+03  2.81648E+03 -4.68636E+02  3.72552E+03 -1.80298E+03  2.35939E+03
 -2.85566E+03  7.81307E+02 -3.33738E+03 -1.96234E+03 -3.55560E+02 -3.35145E+03  9.09935E+02 -2.03230E+03
  2.42646E+03 -1.01085E+03  1.95767E+03  3.50200E+02  6.59228E+02  9.72214E+02  7.99945E+02  4.19231E+02
  1.91245E+03  3.13773E+02  9.00348E+02  1.16554E+03  1.73371E+03  1.81327E+03  1.33213E+03  1.06412E+03
 -9.90216E+02  2.45530E+03 -1.82459E+03  4.00692E+03 -1.58212E+03  9.00773E+02 -3.25799E+03 -5.02631E+02
 -1.26952E+03 -3.14557E+03  8.19158E+02 -3.70499E+03  1.40322E+03 -1.99586E+03  2.19462E+03 -7.69604E+02
  2.07873E+03  1.43166E+03  5.45238E+02  1.96520E+03 -4.16651E+02  8.64498E+02 -1.23466E+02 -1.75914E+02
 -4.76544E+02 -1.14476E+03  1.58881E+03 -1.16841E+03  1.01738E+03 -4.74228E+02  8.56197E+02  8.56087E+01
  6.65792E+02  3.29003E+02  3.80958E+00 -3.71330E+02  1.37414E+02  5.37238E+02  1.25252E+03 -6.19170E+02
 -2.50894E+02 -2.85378E+02  1.35235E+03  3.33354E+02 -2.53353E+02  1.45185E+03 -7.06204E+02  1.59672E+03
 -1.12688E+03  7.41876E+02 -1.77283E+03  1.74427E+02 -1.63258E+03 -4.37145E+02  8.36326E+01 -5.62071E+02
  4.80892E+02 -1.18294E+03  8.95158E+02 -3.22217E+02  3.14229E+02  1.89035E+03 -9.54181E+02  1.02364E+03
 -1.26483E+03  5.50842E+02 -7.81662E+02 -9.50896E+02 -7.36828E+02 -1.95891E+03  9.19762E+01 -1.32365E+03
 -1.01014E+02 -1.73565E+00 -6.12881E+01  3.40697E+02  1.15208E+03 -2.21073E+02 -2.79179E+01  9.30124E+02
  3.57661E+02 -2.47663E+02 -6.78531E+02 -1.51009E+02  6.79096E+02 -6.89663E+02  1.67982E+03 -3.73642E+02
  3.68117E+02 -6.57019E+01  2.17633E+03  7.92440E+02  1.24170E+03  1.18189E+03 -7.05645E+02  1.21053E+03
 -1.14763E+03  2.20842E+02 -8.78145E+02  4.74104E+02  3.01602E+01 -1.00134E+03 -2.38881E+02  2.73539E+02
  1.16889E+03 -5.87784E+02  2.04549E+02  3.82943E+02 -4.39329E+02  1.34445E+03  2.08621E+02  1.13481E+03
  3.34211E+01  9.73261E+02 -6.17300E+02  6.28493E+02 -9.55835E+01  1.41658E+02 -6.27640E+02  3.16517E+02
 -3.17877E+02  6.00700E+02 -1.88703E+03  5.08516E+02 -1.18216E+03 -1.79942E+02 -2.14694E+03 -8.20307E+02
 -6.55870E+02 -1.78310E+03  3.05643E+02 -2.05197E+03 -1.09942E+02 -1.74676E+03  2.14576E+03  3.51139E+01
  1.42895E+03 -2.85096E+02  6.61360E+02  1.44472E+03 -3.01453E+02  1.33875E+03 -6.18984E+02  8.51613E+02
 -3.90732E+02  6.68895E+02 -3.18233E+01 -7.92571E+02 -7.67554E+02  4.06930E+02 -1.04422E+03  1.65327E+02
 -1.10582E+03 -3.67105E+01 -5.73098E+02  4.99905E+02  1.73894E+02 -3.06655E+02 -2.51551E+02 -8.82697E+02
  1.22285E+03 -2.45739E+02 -6.96659E+01  7.89644E+02  6.86202E+02  6.94570E+02 -4.95880E+02  1.06973E+03
 -8.51066E+02  1.47247E+03 -8.04966E+02  1.65421E+03 -9.82031E+02 -3.19808E+02 -1.14142E+03 -6.88363E+02
 -5.24264E+02 -1.23003E+03  2.60416E+02 -5.60799E+02  3.31245E+02  3.08846E+02  5.52861E+01  5.06373E+00
  4.86432E+02  2.58525E+02 -2.34565E+02  5.32521E+02 -3.70913E+02  4.28745E+01 -3.73438E+02 -4.97059E+02
  2.56838E+02 -2.57640E+02  2.75374E+02  6.52796E+02 -6.83238E+01  1.36838E+02 -1.68290E+01 -1.77093E+02
 -1.07412E+02  3.22186E+02 -2.89828E+02 -1.65265E+02 -5.65972E+02 -2.69283E+02  2.73277E+01 -9.06696E+02
  2.32799E+02 -1.23898E+02 -5.45019E+01  1.85396E+02  1.11512E+03 -7.02348E+02 -3.97558E+02  5.33599E+02
  1.13108E+02 -9.65511E+01 -5.45058E+01  3.66171E+02 -6.45645E+02  2.81496E+02 -1.12459E+02  1.41520E+02
  7.06956E+01  1.77949E+02 -4.13479E+02  3.15699E+02 -4.68620E+02  1.34389E+02 -2.95157E+02 -2.44517E+02
 -1.10627E+03  3.64675E+02 -1.01640E+03 -6.21730E+02  5.85653E+02 -7.41745E+02  2.49326E+02 -7.75628E+01
  4.50961E+02  1.64634E+02 -5.37468E+02  7.88835E+02  5.92946E+01  5.71413E+02 -3.69164E+02  7.40708E+02
