 $NMID ID='MM_0lb_SNR400_17hz_g40_59.RAW', FMTDAT='(8E13.5)'
 TRAMP=1., VOLUME=1. $END
  3.09737E+05  1.86863E+02  3.37168E+05  2.50088E+05  8.49141E+04  3.37240E+05 -1.32984E+05  2.50378E+05
 -1.89787E+05  8.27955E+04 -1.11840E+05 -3.25650E+04  1.28870E+03 -5.05743E+04  5.40729E+04  3.30052E+02
  3.53926E+04  5.24837E+04 -1.70577E+04  7.48011E+04 -5.98548E+04  6.22358E+04 -8.35372E+04  3.18277E+04
 -7.92730E+04 -1.16311E+04 -5.67621E+04 -5.02944E+04 -1.48904E+04 -6.82622E+04  2.70978E+04 -4.46097E+04
  3.90120E+04  4.04874E+03  1.56790E+04  4.71940E+04 -3.40098E+04  4.66202E+04 -6.58705E+04 -7.45192E+02
 -5.19710E+04 -5.59545E+04 -6.53047E+03 -7.49733E+04  3.29150E+04 -5.30880E+04  4.68481E+04 -1.63079E+04
  4.21541E+04  1.09541E+04  3.07682E+04  2.41202E+04  1.53703E+04  2.82676E+04 -4.51462E+03  2.70541E+04
 -2.22340E+04  1.34002E+04 -1.92253E+04 -4.56245E+03  4.02731E+03 -7.68923E+03  2.13604E+04  1.08648E+04
  7.61781E+03  3.36755E+04 -3.05226E+04  3.40939E+04 -6.09477E+04  1.90997E+03 -5.55601E+04 -4.06465E+04
 -1.23048E+04 -6.06750E+04  3.71705E+04 -4.30953E+04  5.62155E+04 -2.25485E+03  3.25431E+04  3.05014E+04
 -6.70127E+03  3.36894E+04 -2.82023E+04  1.38730E+04 -2.85050E+04 -5.32534E+03 -1.43925E+04 -1.06882E+04
 -7.50773E+03 -1.18197E+04 -1.13605E+03 -1.68052E+04  6.73122E+03 -2.25601E+04  1.53974E+04 -1.41487E+04
  1.22724E+04  5.00510E+03 -6.45354E+03  1.29141E+04 -1.92201E+04 -2.92707E+03 -7.58792E+03 -3.11421E+04
  2.10057E+04 -4.07511E+04  4.50555E+04 -1.85217E+04  4.23539E+04  1.87621E+04  1.40408E+04  4.18778E+04
 -1.52425E+04  3.12971E+04 -2.31064E+04  1.08305E+03 -7.93051E+03 -2.63413E+04  2.03931E+04 -3.11427E+04
  3.82486E+04 -7.50722E+03  3.13409E+04  2.23780E+04  1.58303E+04  4.21312E+04 -7.63261E+03  4.63500E+04
 -2.90515E+04  3.05688E+04 -3.73964E+04  8.49527E+03 -3.85358E+04 -1.49234E+04 -2.14676E+04 -3.54922E+04
  6.55500E+03 -3.45571E+04  2.91091E+04 -1.30947E+04  2.76040E+04  1.12127E+04  3.58546E+03  1.85046E+04
 -1.33926E+04  7.26106E+03 -9.66826E+03 -7.85077E+03  5.82533E+03 -9.89229E+03  1.75476E+04  7.05128E+03
  1.21764E+04  2.16245E+04 -6.88554E+03  2.36666E+04 -2.14592E+04  9.02145E+03 -2.54245E+04 -5.52042E+03
 -1.76007E+04 -1.63166E+04 -5.63257E+03 -1.74160E+04  3.95417E+03 -1.49158E+04  1.28097E+04 -1.42514E+04
  2.20048E+04 -1.18105E+04  2.88019E+04  1.67182E+03  2.16748E+04  1.62366E+04  3.84140E+03  3.27252E+04
 -1.62668E+04  2.82721E+04 -2.59441E+04  9.61160E+03 -1.99828E+04 -1.04233E+04 -3.99651E+03 -1.34300E+04
  2.38111E+03 -4.04027E+03 -3.09478E+03  5.68781E+03 -1.30561E+04  5.10346E+03 -1.38952E+04 -5.41268E+03
 -8.59071E+03 -1.57287E+04  4.38180E+03 -1.97261E+04  1.32076E+04 -1.43783E+04  1.50475E+04 -1.40852E+03
  9.48499E+03  1.11085E+04 -9.14455E+02  1.60470E+04 -1.03860E+04  8.71341E+03 -1.58824E+04 -3.37187E+03
 -1.20092E+04 -1.43712E+04 -1.52357E+03 -1.94455E+04  9.09455E+03 -1.62955E+04  1.67349E+04 -8.19160E+03
  1.44631E+04  2.77626E+02  1.05154E+04  3.85865E+03  5.16950E+03  4.55610E+02  7.21352E+03 -1.12265E+03
  1.46240E+04  2.92211E+03  1.54714E+04  1.29727E+04  1.00695E+04  2.58469E+04 -2.59947E+03  2.77527E+04
 -1.68387E+04  2.16149E+04 -2.51691E+04  1.05534E+04 -2.63362E+04 -2.13968E+03 -2.19567E+04 -1.48801E+04
 -1.02060E+04 -2.17798E+04  6.91099E+03 -1.99916E+04  1.73638E+04 -1.10478E+04  1.58505E+04  3.93574E+03
  6.21007E+03  1.20777E+04 -7.11008E+03  1.08951E+04 -1.37666E+04  2.73369E+03 -1.06691E+04 -7.98131E+03
 -1.55496E+02 -1.25194E+04  5.80814E+03 -9.35210E+03  8.25224E+03 -1.33289E+03  1.65318E+03  5.22093E+03
 -5.41148E+03  1.78005E+03 -4.57183E+03 -4.31665E+03  4.19190E+02 -1.06373E+04  8.17150E+03 -1.09802E+04
  1.27887E+04 -5.00373E+03  1.36004E+04  1.93722E+03  1.07174E+04  1.02462E+04  5.91737E+03  1.45496E+04
 -2.14634E+03  1.68917E+04 -9.78648E+03  1.12985E+04 -1.16917E+04  2.95359E+03 -9.04022E+03 -1.95937E+03
 -4.29293E+03 -3.20865E+03 -1.12324E+03  1.64078E+03 -1.99866E+03  1.87479E+03 -4.07006E+03  3.63790E+03
 -8.44678E+03 -4.74883E+02 -9.19735E+03 -7.37733E+03 -3.38418E+03 -1.18875E+04  3.78803E+03 -9.41825E+03
  7.39579E+03 -4.35982E+03  5.41715E+03  2.70225E+03  6.69828E+02  3.86833E+03 -4.19010E+03 -2.68510E+02
 -3.88057E+03 -5.95009E+03 -6.61494E+02 -7.78779E+03  4.31297E+03 -8.38490E+03  1.08381E+04 -4.88204E+03
  1.24784E+04  1.43383E+03  9.10676E+03  6.86926E+03  1.88045E+03  9.00832E+03 -5.94953E+03  8.77025E+03
 -6.78913E+03  2.57770E+03 -3.54964E+03 -1.45430E+03  1.77360E+03 -2.25478E+03  5.06309E+03 -1.20805E+03
  4.01420E+03  3.21385E+03  1.29097E+03  6.80082E+03 -4.64736E+03  6.63333E+03 -8.45215E+03  1.65702E+03
 -5.19380E+03 -4.33356E+03  6.81061E+02 -6.73195E+03  3.65368E+03 -3.48077E+03  4.37155E+03  9.23585E+02
  2.37816E+02  3.48101E+03 -4.66297E+03  5.21721E+03 -5.74153E+03  2.85554E+03 -4.94221E+03 -1.34172E+03
 -3.48745E+03 -6.18842E+03  1.22445E+03 -7.54941E+03  7.00490E+03 -4.87544E+03  6.82564E+03  1.06246E+03
  5.02331E+03  5.38953E+03 -6.40891E+01  8.20207E+03 -5.67104E+03  4.53690E+03 -5.79400E+03 -1.03761E+03
 -6.71058E+03 -5.31429E+03 -1.22930E+03 -5.49146E+03  3.02094E+03 -5.19920E+03  2.99564E+03 -3.14254E+03
  2.93475E+03  1.34097E+02  6.88951E+02  1.51005E+03  4.02552E+02  3.25328E+02  4.12485E+02 -2.55513E+03
  4.61302E+03 -6.50945E+02  6.38929E+03  7.18976E+02  6.03385E+03  3.79524E+03  5.97532E+03  8.43738E+03
 -2.01836E+03  9.36986E+03 -8.21031E+03  7.24006E+03 -1.00889E+04  1.22063E+03 -8.73625E+03 -3.01359E+03
 -5.38893E+03 -6.94832E+03 -3.72573E+02 -5.52786E+03  2.20646E+03 -2.71634E+03  1.51177E+03 -2.41454E+03
  9.72540E+02 -1.27195E+03  2.64276E+03 -2.37880E+03  3.66488E+03 -1.61885E+03  4.39327E+03  7.53297E+02
  4.68541E+03  1.16606E+03  1.33389E+03  3.80983E+03 -1.52523E+03  3.49670E+03 -5.35639E+03  3.37021E+03
 -5.36027E+03 -7.99226E+02 -3.09646E+03 -3.19890E+03 -3.14188E+02 -5.81833E+03  2.97598E+03 -6.67395E+03
  6.15005E+03 -3.28423E+03  7.84089E+03  3.62423E+02  5.93108E+03  4.94830E+03  9.85179E+02  6.84460E+03
 -2.57771E+03  6.43533E+03 -3.98842E+03  2.43665E+03 -2.03128E+03 -1.43220E+03 -6.14977E+02 -2.30959E+02
 -6.73813E+02  3.25317E+02 -9.35274E+02  2.16850E+03 -2.14425E+03  1.68110E+03 -4.35665E+03 -2.97797E+02
 -2.30801E+03 -4.93108E+03  9.89448E+02 -5.33527E+03  2.60722E+03 -4.95853E+03  4.63307E+03 -1.11231E+03
  5.09720E+03  3.14778E+03  2.10897E+03  3.51193E+03 -5.17248E+02  5.16648E+03 -3.64217E+03  3.31379E+03
 -4.51554E+03  7.12233E+02 -4.00072E+03 -2.97954E+03 -6.29726E+02 -3.78587E+03  2.21374E+03 -3.42907E+03
  3.66087E+03 -1.08242E+03  2.19690E+03  4.52831E+02  4.90725E+02  1.55077E+03  1.29275E+03  8.28838E+02
  2.27463E+03  2.56849E+01  1.97907E+03  8.29184E+02  1.40111E+03  2.96094E+03  1.82706E+03  1.90139E+03
 -1.84266E+03  3.61341E+03 -3.20495E+03  4.24466E+03 -3.78545E+03  1.31266E+03 -4.83508E+03 -1.02525E+03
 -2.49065E+03 -4.31412E+03  7.13088E+02 -5.95725E+03  2.18741E+03 -3.52298E+03  3.70283E+03 -1.05900E+03
  2.88803E+03  2.02813E+03  9.09403E+02  3.00678E+03 -1.13429E+03  1.35212E+03 -2.00113E+03  9.78630E+01
 -1.43602E+03 -1.46468E+03  1.45994E+03 -1.60033E+03  1.36517E+03 -1.32573E+03  1.56823E+03  7.46893E+02
  1.17518E+03  8.08286E+02  1.16124E+03 -3.00272E+02  1.29308E+01  6.83811E+02  1.31420E+03 -8.83679E+02
 -3.90139E+02 -4.88508E+02  2.16422E+03  1.02168E+03  3.92668E+02  3.20906E+03 -3.66458E+02  3.41866E+03
 -1.96541E+03  1.26330E+03 -2.36593E+03  5.57062E+02 -2.59582E+03 -1.04895E+03 -3.22199E+02 -1.34689E+03
 -7.57300E+01 -1.45240E+03  1.42218E+03 -1.06432E+03  1.32286E+03  1.41474E+03 -5.12146E+02  1.39412E+03
 -2.03104E+03  1.21847E+03 -1.49061E+03 -1.54259E+03 -5.44688E+02 -2.38180E+03  8.09943E+02 -2.34386E+03
  9.31793E+01 -8.16538E+02  1.35271E+03  3.97817E+02  2.04907E+03  1.03502E+02  1.27402E+02  1.31149E+03
 -7.11528E+02  1.47343E+02 -1.43384E+03 -4.87111E+02  7.82531E+02 -1.45224E+03  1.76676E+03 -1.01615E+03
  1.78909E+03 -7.89161E+01  2.81121E+03  1.43299E+03  8.43930E+02  2.06646E+03 -3.25476E+02  2.28918E+03
 -1.77417E+03  6.61891E+02 -2.05537E+03  3.08074E+01 -1.05669E+03 -1.60149E+03  1.00545E+03 -6.75545E+02
  1.83419E+03 -6.83325E+02  7.69569E+02  1.03498E+03  3.93360E+01  1.86994E+03  1.10362E+02  1.34431E+03
 -4.99282E+02  6.45324E+02 -7.11587E+02  2.49879E+02  5.52737E+01  6.76676E+02 -9.54239E+02  5.70615E+02
 -8.79574E+02  1.82971E+03 -1.71266E+03  7.57715E+02 -2.48588E+03  8.45954E+02 -2.99390E+03 -1.45133E+03
 -1.40243E+03 -2.87979E+03  4.53925E+02 -3.86967E+03  1.37845E+03 -2.97899E+03  3.04086E+03 -1.17099E+03
  2.52762E+03  1.38643E+02  2.35322E+03  1.61884E+03 -5.69782E+02  2.21041E+03 -8.35693E+02  1.51131E+03
 -1.67943E+03  5.71148E+02 -6.97113E+02 -4.42766E+02 -4.40565E+02  3.72393E+02 -4.94930E+02  5.07843E+02
 -9.62393E+02 -2.87318E+02 -1.16092E+03 -2.97070E+02  7.42978E+01 -5.73171E+02  3.62114E+02 -1.46708E+02
  1.18598E+03 -6.59716E+02  5.75255E+02  4.84278E+02  1.95393E+03  1.42514E+03 -1.15596E+02  1.93514E+03
 -1.31466E+03  3.06196E+03 -1.74476E+03  1.38128E+03 -2.31870E+03 -4.92288E+02 -1.86836E+03 -1.34140E+03
 -6.27012E+02 -2.33380E+03  6.31352E+02 -2.02502E+03  1.05219E+03 -1.03683E+03  7.03489E+02  2.33889E+02
  6.05722E+02  7.98859E+02 -1.49780E+02  7.40097E+02 -2.59635E+02  3.68885E+02  1.22000E+02 -5.08428E+02
 -5.34034E+01 -7.18406E+02 -2.81499E+02 -3.24449E+02  6.74438E+02  1.11324E+03 -1.26769E+01  1.11201E+03
 -1.62852E+03  1.07887E+03 -1.13775E+03  3.29501E+02 -9.56088E+02 -1.17059E+03  7.18384E+01 -1.50818E+03
  1.30940E+03 -1.09764E+03  1.56239E+03 -3.99242E+02  1.44554E+03 -7.38394E+02  9.42493E+02  1.12426E+03
  6.24261E+02  8.40526E+02 -6.27622E+02  8.90113E+02 -5.07594E+02  1.04920E+03 -4.53820E+02  2.25214E+02
 -1.95146E+02 -3.85971E+02 -5.60796E+02  9.65950E+01 -5.12010E+02  6.56202E+01 -9.96194E+02 -1.34085E+02
 -1.85211E+03  8.70904E+01 -1.07942E+03 -9.96320E+02  4.87170E+02 -2.19040E+03  1.31052E+03 -3.56798E+02
  1.18202E+03  5.22815E+02  4.96768E+01  4.81379E+02  2.37265E+02  1.15829E+03 -1.26653E+03  6.70599E+02
