 $NMID ID='MM_0lb_SNR400_16hz_g55_7.RAW', FMTDAT='(8E13.5)'
 TRAMP=1., VOLUME=1. $END
  3.09552E+05  3.54890E+02  3.37964E+05  2.50573E+05  8.42847E+04  3.37547E+05 -1.33127E+05  2.50538E+05
 -1.90405E+05  8.30148E+04 -1.11888E+05 -3.26779E+04  7.19227E+02 -5.07531E+04  5.42676E+04  4.30813E+02
  3.51033E+04  5.26862E+04 -1.66020E+04  7.48620E+04 -6.07677E+04  6.31027E+04 -8.41206E+04  3.15648E+04
 -8.02288E+04 -1.12156E+04 -5.65089E+04 -5.11302E+04 -1.45646E+04 -6.95123E+04  2.67862E+04 -4.60571E+04
  4.01179E+04  4.11685E+03  1.66576E+04  4.75170E+04 -3.44171E+04  4.68247E+04 -6.67530E+04 -1.01868E+03
 -5.33538E+04 -5.67032E+04 -6.74751E+03 -7.66348E+04  3.41891E+04 -5.47038E+04  4.79408E+04 -1.71464E+04
  4.28606E+04  1.11458E+04  3.14982E+04  2.47374E+04  1.61663E+04  2.85915E+04 -5.00087E+03  2.76408E+04
 -2.21343E+04  1.24129E+04 -1.84640E+04 -4.89534E+03  5.36344E+03 -7.81697E+03  2.23049E+04  1.25414E+04
  7.62985E+03  3.45139E+04 -3.20957E+04  3.54187E+04 -6.31537E+04  2.16182E+03 -5.68603E+04 -4.24412E+04
 -1.21238E+04 -6.27815E+04  3.90385E+04 -4.49247E+04  5.74324E+04 -2.86069E+03  3.40603E+04  3.23595E+04
 -5.79361E+03  3.60758E+04 -2.99287E+04  1.53467E+04 -2.96723E+04 -4.48794E+03 -1.66731E+04 -1.10529E+04
 -7.87056E+03 -1.33191E+04 -3.66014E+02 -1.78459E+04  7.28620E+03 -2.31602E+04  1.55871E+04 -1.39352E+04
  1.19364E+04  4.43901E+03 -8.29908E+03  1.29394E+04 -2.09672E+04 -4.44841E+03 -8.55611E+03 -3.31385E+04
  2.25611E+04 -4.35556E+04  4.77995E+04 -1.96909E+04  4.42922E+04  1.85157E+04  1.57771E+04  4.30928E+04
 -1.59496E+04  3.27756E+04 -2.51900E+04  1.36296E+03 -9.76318E+03 -2.79330E+04  2.12922E+04 -3.32614E+04
  4.00768E+04 -8.79914E+03  3.46032E+04  2.33639E+04  1.76414E+04  4.58796E+04 -8.04601E+03  4.90545E+04
 -3.07539E+04  3.31665E+04 -4.10187E+04  9.51308E+03 -4.20465E+04 -1.63298E+04 -2.33522E+04 -3.73495E+04
  7.58975E+03 -3.77125E+04  3.12332E+04 -1.47825E+04  2.81282E+04  1.09516E+04  3.68134E+03  1.90032E+04
 -1.34205E+04  8.41785E+03 -9.63880E+03 -8.25591E+03  5.99536E+03 -1.00106E+04  1.75342E+04  5.85808E+03
  1.33382E+04  2.14995E+04 -6.24698E+03  2.45387E+04 -2.22787E+04  1.10966E+04 -2.72804E+04 -5.30002E+03
 -1.93396E+04 -1.67198E+04 -8.06192E+03 -1.96756E+04  3.87355E+03 -1.81228E+04  1.55091E+04 -1.70368E+04
  2.54452E+04 -1.27808E+04  3.16816E+04  2.08253E+03  2.31147E+04  1.96051E+04  3.87569E+03  3.51922E+04
 -1.77390E+04  2.94858E+04 -2.76674E+04  1.02129E+04 -2.04026E+04 -1.04217E+04 -4.31475E+03 -1.42366E+04
  2.28470E+03 -3.13794E+03 -4.08164E+03  5.92826E+03 -1.54840E+04  5.30269E+03 -1.56624E+04 -6.66703E+03
 -9.63254E+03 -1.77667E+04  5.07546E+03 -2.30236E+04  1.45822E+04 -1.54477E+04  1.71939E+04 -1.95638E+03
  1.04337E+04  1.24367E+04 -1.25618E+03  1.79666E+04 -1.28828E+04  1.00405E+04 -1.81705E+04 -3.93994E+03
 -1.31450E+04 -1.64565E+04 -2.04299E+03 -2.26290E+04  9.58839E+03 -1.73565E+04  1.88619E+04 -8.39974E+03
  1.69656E+04  4.01269E+02  1.20381E+04  3.93888E+03  6.61083E+03  8.88086E+02  9.48491E+03 -1.81078E+03
  1.65839E+04  2.77713E+03  1.82000E+04  1.46229E+04  1.06628E+04  2.90527E+04 -3.33470E+03  3.21844E+04
 -1.88941E+04  2.49582E+04 -2.98734E+04  1.26843E+04 -3.13308E+04 -2.37013E+03 -2.57059E+04 -1.74530E+04
 -1.14056E+04 -2.54722E+04  8.27903E+03 -2.29306E+04  2.02106E+04 -1.17183E+04  1.78757E+04  5.26910E+03
  7.23560E+03  1.32245E+04 -7.93251E+03  1.23473E+04 -1.50240E+04  2.56694E+03 -1.13213E+04 -9.07387E+03
 -3.17777E+02 -1.42803E+04  6.97609E+03 -1.03621E+04  9.50076E+03 -1.54102E+03  1.49205E+03  6.70924E+03
 -6.17903E+03  1.74841E+03 -4.88151E+03 -5.23885E+03 -3.06432E+02 -1.28550E+04  8.88369E+03 -1.25697E+04
  1.54398E+04 -6.61468E+03  1.65885E+04  2.58365E+03  1.39732E+04  1.17024E+04  6.57267E+03  1.80175E+04
 -2.92842E+03  1.99662E+04 -1.30393E+04  1.28433E+04 -1.46054E+04  2.90566E+03 -1.01911E+04 -3.06393E+03
 -5.30395E+03 -4.33964E+03 -1.00649E+03  6.76485E+02 -2.39529E+03  1.88412E+03 -5.06580E+03  3.79984E+03
 -9.95641E+03  1.93473E+02 -1.03258E+04 -8.47709E+03 -3.81129E+03 -1.44164E+04  4.48251E+03 -1.05282E+04
  8.31123E+03 -4.91313E+03  6.75923E+03  2.60375E+03  4.23258E+02  3.85613E+03 -4.59422E+03 -8.80663E+02
 -4.21097E+03 -6.72484E+03 -1.23147E+03 -9.47523E+03  5.65954E+03 -1.02307E+04  1.27362E+04 -5.32645E+03
  1.47678E+04  9.72791E+02  1.08602E+04  8.04151E+03  2.46985E+03  1.14544E+04 -6.74681E+03  1.05030E+04
 -8.36776E+03  3.14407E+03 -4.66288E+03 -1.92494E+03  1.87509E+03 -2.56935E+03  5.89165E+03 -9.42921E+02
  4.97507E+03  4.14959E+03  6.69224E+02  8.02390E+03 -5.32677E+03  8.25678E+03 -1.02441E+04  2.34920E+03
 -6.61510E+03 -4.74174E+03  5.55800E+01 -8.20044E+03  5.30166E+03 -4.33219E+03  5.14491E+03  1.83672E+03
  1.06232E+03  5.14598E+03 -5.21602E+03  6.71382E+03 -7.50355E+03  2.79887E+03 -7.27771E+03 -2.47706E+03
 -3.76330E+03 -8.37316E+03  1.55451E+03 -9.62118E+03  7.97292E+03 -6.44826E+03  8.89508E+03  6.30503E+02
  5.63062E+03  8.04979E+03 -5.06006E+02  9.50603E+03 -6.55057E+03  4.85349E+03 -6.94646E+03 -1.29449E+03
 -7.11321E+03 -7.11492E+03 -1.86839E+03 -6.62690E+03  3.48036E+03 -5.41641E+03  3.97048E+03 -3.27160E+03
  3.35515E+03  8.79280E+02  4.52868E+02  1.78285E+03  5.60966E+02 -1.00140E+03  6.89285E+02 -2.83196E+03
  6.07676E+03 -1.77310E+03  7.73976E+03  8.65688E+02  7.55016E+03  4.40592E+03  6.11328E+03  1.00614E+04
 -2.44208E+03  1.22744E+04 -1.09697E+04  9.25016E+03 -1.33885E+04  1.64201E+03 -1.07452E+04 -4.21155E+03
 -5.58687E+03 -8.82919E+03 -2.13776E+02 -7.37257E+03  2.70711E+03 -3.58046E+03  2.02260E+03 -2.97559E+03
  1.33429E+03 -1.77220E+03  2.50424E+03 -2.55898E+03  3.47105E+03 -1.81367E+03  5.18556E+03  3.28898E+01
  5.72246E+03  8.30467E+02  2.29651E+03  4.74497E+03 -1.76031E+03  4.17059E+03 -5.98105E+03  4.42751E+03
 -6.84588E+03 -1.04807E+03 -3.24124E+03 -4.63360E+03  1.55130E+02 -7.88214E+03  3.71072E+03 -7.39135E+03
  7.90089E+03 -4.56104E+03  9.28166E+03  1.02599E+03  6.66322E+03  5.83304E+03  1.65636E+03  8.41400E+03
 -3.40192E+03  7.79301E+03 -3.91150E+03  1.99995E+03 -3.08302E+03 -1.17765E+03 -9.56089E+02 -4.32032E+02
 -1.22818E+03  4.57654E+02 -1.01070E+03  2.03937E+03 -3.45388E+03  1.77115E+03 -5.06059E+03 -5.71480E+02
 -2.50523E+03 -4.84533E+03  5.05146E+02 -7.33456E+03  3.46917E+03 -5.96506E+03  4.92062E+03 -1.72698E+03
  6.33668E+03  3.80680E+03  2.54577E+03  5.22738E+03 -9.38939E+02  6.63417E+03 -3.90958E+03  4.30829E+03
 -5.53429E+03  3.94904E+02 -4.74503E+03 -3.61055E+03 -4.27424E+02 -4.61847E+03  2.72823E+03 -3.32126E+03
  4.01542E+03 -1.10940E+03  2.31563E+03  7.16421E+02  1.19553E+03  1.90120E+03  8.74362E+02  5.97786E+02
  2.06305E+03  7.07820E+02  1.11867E+03  1.17443E+03  2.14420E+03  2.46635E+03  2.09208E+03  3.26313E+03
 -1.92520E+03  4.36739E+03 -4.15728E+03  6.02207E+03 -5.78911E+03  1.20220E+03 -6.09448E+03 -1.49719E+03
 -2.58458E+03 -5.40626E+03  1.17036E+03 -7.19435E+03  3.17775E+03 -3.58607E+03  4.51411E+03 -1.59786E+03
  3.81658E+03  2.32921E+03 -1.75519E+02  3.53189E+03 -1.48945E+03  1.59330E+03 -2.07847E+03 -6.99166E+02
 -9.87003E+02 -2.83509E+03  1.78270E+03 -2.08860E+03  2.17588E+03 -1.62160E+03  2.69321E+03  5.48282E+02
  1.18823E+03  6.52006E+02  7.61114E+02  4.41200E+02 -1.26822E+03  5.95153E+02  1.70696E+03 -6.91836E+02
  4.47030E+02 -9.59288E+01  2.69795E+03  9.21011E+02  6.08874E+02  3.88351E+03 -5.38922E+02  3.37666E+03
 -3.04036E+03  2.10392E+03 -3.31136E+03  8.43527E+02 -3.54382E+03 -1.14577E+03 -6.28209E+02 -1.57273E+03
  3.54788E+01 -2.13269E+03  1.30276E+03 -8.67792E+02  1.47027E+03  1.24358E+03 -7.23645E+02  1.54231E+03
 -2.70122E+03  1.05595E+03 -2.03968E+03 -1.45762E+03 -1.67375E+03 -3.65115E+03 -6.98247E+01 -2.81523E+03
  1.64704E+03 -1.26527E+03  1.82155E+03  1.86261E+02  2.12037E+03  5.27552E+02  9.14276E+01  1.46044E+03
 -8.80477E+02  1.14885E+02 -1.72839E+03 -1.03030E+03  1.56030E+03 -1.65578E+03  3.17278E+03 -1.49584E+03
  2.48618E+03  3.45958E+02  3.46666E+03  1.62743E+03  1.32904E+03  2.93151E+03 -5.41005E+02  2.74794E+03
 -1.98284E+03  4.67233E+02 -2.34808E+03 -3.19316E+02 -1.03166E+03 -2.02037E+03  1.00806E+03 -1.07384E+03
  2.07271E+03 -1.44702E+03  1.17399E+03  8.07987E+02  1.24245E+02  1.55110E+03  3.84080E+02  2.08262E+03
 -5.18649E+02  1.98835E+03 -1.45654E+03  1.23304E+02 -4.25823E+02  7.87584E+02 -6.48708E+02  5.18766E+02
 -1.07804E+03  1.29288E+03 -2.39958E+03  6.84989E+02 -2.72710E+03  9.62919E+02 -3.44152E+03 -1.51277E+03
 -1.63048E+03 -4.21031E+03  6.45025E+02 -3.83768E+03  2.18162E+03 -3.42386E+03  4.12306E+03 -1.61400E+03
  3.24564E+03  1.10563E+01  2.11748E+03  2.35748E+03 -4.73001E+02  2.13214E+03 -9.62680E+02  2.70036E+03
 -1.86446E+03  1.27578E+03 -5.08023E+02 -3.22341E+02 -7.53330E+02 -1.50332E+02 -8.99809E+02  1.06672E+02
 -1.65053E+03  4.89726E+02 -7.72592E+02 -2.84500E+02 -4.00343E+02 -5.52165E+02 -4.18944E+01 -1.13736E+03
  1.71757E+03 -1.16150E+03  1.40992E+03 -2.08883E+01  2.36739E+03  1.32839E+03 -3.48251E+02  2.26971E+03
 -1.96129E+03  3.36593E+03 -2.92953E+03  1.70550E+03 -2.42986E+03 -4.81630E+01 -2.43621E+03 -2.66152E+03
 -1.28166E+03 -2.77896E+03  4.97626E+01 -1.66667E+03  1.51286E+03 -1.75606E+03  1.68920E+03 -4.41858E+01
  1.21547E+03  1.03716E+03  4.28906E+02  9.24807E+02 -6.27815E+02 -4.05240E+02 -1.33105E+02 -5.16603E+02
  5.30244E+02  3.07035E+02  3.95053E+02  3.68985E+02  9.85292E+02  1.42078E+03  6.87838E+02  6.78185E+02
 -8.93038E+02  1.21914E+03 -1.62711E+03  6.07369E+02 -1.68286E+03 -7.03833E+02 -1.20430E+01 -2.12748E+03
  1.21396E+03 -1.48837E+03  1.51515E+03 -1.30143E+01  1.54145E+03 -4.16446E+02  7.79002E+02  1.59959E+03
  1.11188E+02  9.88899E+02 -4.12731E+02  1.09862E+03 -5.75725E+02  1.02734E+03 -9.38345E+02  1.91940E+02
 -2.08224E+01 -2.85396E+01 -3.24452E+02  7.38139E+01 -1.34038E+03  7.91077E+02 -1.69613E+03 -1.73490E+02
 -1.93928E+03  3.99149E+02 -6.01504E+02 -1.48407E+03  1.20282E+03 -1.79012E+03  1.54095E+03 -5.35479E+02
  1.75471E+03 -5.10398E+01  1.51879E+02  1.03358E+03 -4.32175E+02  1.97036E+03 -9.33154E+02  1.02802E+03
