 $NMID ID='MM_0lb_SNR400_10hz_g45_40.RAW', FMTDAT='(8E13.5)'
 TRAMP=1., VOLUME=1. $END
  3.09514E+05  5.53261E+02  3.37906E+05  2.50986E+05  8.51470E+04  3.38559E+05 -1.32976E+05  2.51661E+05
 -1.91550E+05  8.39544E+04 -1.12706E+05 -3.22427E+04  7.43688E+02 -5.08649E+04  5.43031E+04 -7.49262E+02
  3.49302E+04  5.30524E+04 -1.67934E+04  7.57584E+04 -6.11834E+04  6.47064E+04 -8.53042E+04  3.26716E+04
 -8.20840E+04 -1.16870E+04 -5.81644E+04 -5.17584E+04 -1.50331E+04 -7.07857E+04  2.76274E+04 -4.67246E+04
  4.16655E+04  3.62043E+03  1.63528E+04  4.77290E+04 -3.47622E+04  4.85769E+04 -6.78492E+04 -7.49247E+02
 -5.50917E+04 -5.84336E+04 -7.48259E+03 -7.79340E+04  3.44362E+04 -5.60097E+04  4.89791E+04 -1.79918E+04
  4.44295E+04  1.20309E+04  3.30777E+04  2.65232E+04  1.55079E+04  2.96872E+04 -5.48536E+03  2.77252E+04
 -2.27417E+04  1.19435E+04 -1.75769E+04 -6.06563E+03  6.54797E+03 -7.72605E+03  2.30975E+04  1.25924E+04
  7.40091E+03  3.64103E+04 -3.25856E+04  3.67985E+04 -6.55364E+04  2.43993E+03 -5.85603E+04 -4.43778E+04
 -1.28289E+04 -6.55869E+04  4.13578E+04 -4.63803E+04  6.00537E+04 -2.76563E+03  3.63477E+04  3.33922E+04
 -5.37894E+03  3.83406E+04 -3.08739E+04  1.80348E+04 -3.21443E+04 -3.25488E+03 -1.90063E+04 -1.14116E+04
 -8.55652E+03 -1.34639E+04 -3.76065E+02 -1.85901E+04  7.63972E+03 -2.36100E+04  1.60250E+04 -1.28257E+04
  1.04114E+04  6.49892E+03 -9.39859E+03  1.32351E+04 -2.25491E+04 -5.64525E+03 -7.97201E+03 -3.65123E+04
  2.40218E+04 -4.61263E+04  5.08674E+04 -2.05857E+04  4.81431E+04  2.07016E+04  1.67985E+04  4.60615E+04
 -1.62414E+04  3.54350E+04 -2.77733E+04  2.78472E+03 -1.12550E+04 -3.01300E+04  2.18986E+04 -3.59064E+04
  4.35096E+04 -9.91192E+03  3.88558E+04  2.48376E+04  2.04080E+04  4.98257E+04 -7.50182E+03  5.46168E+04
 -3.36868E+04  3.65093E+04 -4.51925E+04  1.09934E+04 -4.67127E+04 -1.80384E+04 -2.50033E+04 -4.06766E+04
  7.22825E+03 -4.11758E+04  3.31643E+04 -1.67598E+04  3.14617E+04  1.07473E+04  5.63659E+03  2.04324E+04
 -1.37799E+04  9.09810E+03 -1.17782E+04 -7.84533E+03  5.44698E+03 -1.10634E+04  1.85047E+04  6.27687E+03
  1.44081E+04  2.27400E+04 -6.08883E+03  2.63759E+04 -2.32999E+04  1.33099E+04 -3.09303E+04 -4.02108E+03
 -2.27721E+04 -1.87391E+04 -1.03686E+04 -2.33925E+04  4.63896E+03 -2.37388E+04  1.78325E+04 -2.09549E+04
  3.00874E+04 -1.34432E+04  3.62233E+04  5.13877E+03  2.61012E+04  2.33237E+04  4.19647E+03  4.00287E+04
 -1.90833E+04  3.26967E+04 -2.99281E+04  1.15401E+04 -2.18947E+04 -1.00652E+04 -5.20333E+03 -1.27653E+04
  1.56888E+03 -1.89585E+03 -6.83106E+03  7.66314E+03 -1.94703E+04  4.89984E+03 -1.97340E+04 -8.71855E+03
 -1.16993E+04 -2.25760E+04  5.93408E+03 -2.62262E+04  1.70844E+04 -1.85091E+04  2.16714E+04 -2.42702E+03
  1.36546E+04  1.54268E+04 -1.22165E+03  2.26451E+04 -1.56275E+04  1.19510E+04 -2.23262E+04 -4.18673E+03
 -1.62509E+04 -1.93754E+04 -1.82424E+03 -2.68038E+04  1.22357E+04 -2.20730E+04  2.21899E+04 -1.11034E+04
  2.12403E+04 -5.38830E+02  1.50547E+04  5.82021E+03  8.46930E+03  1.15676E+03  1.13482E+04 -2.19261E+03
  2.05010E+04  2.59376E+03  2.35255E+04  1.82984E+04  1.53305E+04  3.52130E+04 -2.93973E+03  4.13066E+04
 -2.43510E+04  3.41870E+04 -3.77034E+04  1.65716E+04 -4.10575E+04 -3.21663E+03 -3.37337E+04 -2.44067E+04
 -1.33938E+04 -3.37765E+04  1.21151E+04 -3.04597E+04  2.60782E+04 -1.44341E+04  2.28191E+04  7.04778E+03
  8.54829E+03  1.67852E+04 -1.11708E+04  1.51131E+04 -1.90037E+04  2.30765E+03 -1.39966E+04 -1.23227E+04
 -1.19858E+03 -1.78616E+04  9.69579E+03 -1.33898E+04  1.29973E+04 -9.00677E+02  3.02274E+03  8.72354E+03
 -7.84246E+03  3.70517E+03 -8.94372E+03 -6.88693E+03 -1.59508E+03 -1.69451E+04  1.16692E+04 -1.77559E+04
  2.08996E+04 -9.64684E+03  2.39158E+04  3.45131E+03  2.09712E+04  1.67861E+04  9.36230E+03  2.65356E+04
 -4.54967E+03  2.82585E+04 -1.84323E+04  1.74748E+04 -2.02105E+04  2.98823E+03 -1.39965E+04 -5.21230E+03
 -6.33657E+03 -6.30593E+03 -7.52590E+02  2.99307E+02 -2.64378E+03  3.29463E+03 -6.99050E+03  4.98886E+03
 -1.23139E+04 -1.07039E+03 -1.38063E+04 -1.14648E+04 -5.21787E+03 -1.82826E+04  6.42659E+03 -1.43171E+04
  1.11233E+04 -5.88829E+03  8.06801E+03  4.05979E+03 -9.36716E+02  5.17899E+03 -6.90695E+03 -6.11492E+02
 -6.47812E+03 -8.97985E+03 -5.01774E+02 -1.37556E+04  8.44396E+03 -1.45269E+04  1.78675E+04 -8.52630E+03
  2.13407E+04  1.94974E+03  1.57743E+04  1.28821E+04  2.53760E+03  1.69064E+04 -8.13638E+03  1.32850E+04
 -1.11609E+04  4.08553E+03 -6.06534E+03 -4.06566E+03  1.61908E+03 -4.44092E+03  7.58690E+03 -1.31739E+03
  6.30204E+03  6.67213E+03  9.42608E+02  1.08571E+04 -8.06357E+03  1.05900E+04 -1.46032E+04  2.27673E+03
 -9.63750E+03 -7.44415E+03  5.53693E+02 -1.25747E+04  8.12841E+03 -6.24037E+03  7.93884E+03  3.10663E+03
  1.27786E+03  9.24557E+03 -9.03924E+03  1.01918E+04 -1.15585E+04  4.99719E+03 -1.21331E+04 -4.95772E+03
 -7.89872E+03 -1.42830E+04  3.87006E+03 -1.55856E+04  1.41772E+04 -9.68684E+03  1.50229E+04  3.14124E+03
  9.12403E+03  1.22516E+04 -1.48120E+03  1.53211E+04 -9.67802E+03  8.34001E+03 -1.10788E+04 -1.10313E+03
 -9.98118E+03 -8.86984E+03 -1.87220E+03 -1.08482E+04  5.95905E+03 -8.90668E+03  6.65109E+03 -3.21329E+03
  4.48538E+03  2.19696E+03 -1.38400E+03  1.20057E+03 -2.46095E+02 -3.35658E+03  2.73148E+03 -6.06138E+03
  1.02992E+04 -4.00692E+03  1.34696E+04  1.88009E+03  1.39735E+04  9.44734E+03  9.28750E+03  1.93412E+04
 -4.57603E+03  2.14897E+04 -1.77462E+04  1.59860E+04 -2.25727E+04  3.02298E+03 -1.87616E+04 -7.61932E+03
 -8.99637E+03 -1.48956E+04 -5.72501E+02 -1.29287E+04  4.89108E+03 -6.55653E+03  4.96674E+03 -4.97411E+03
  4.00268E+03 -2.84764E+03  4.58166E+03 -3.56058E+03  5.89644E+03 -3.47013E+03  7.31926E+03 -1.05530E+03
  9.45319E+03  2.66182E+03  4.17141E+03  8.31522E+03 -2.27796E+03  1.01661E+04 -9.57285E+03  7.23964E+03
 -1.27105E+04 -1.64612E+03 -7.83901E+03 -9.47370E+03 -5.69499E+02 -1.44578E+04  7.62121E+03 -1.45625E+04
  1.35159E+04 -8.12830E+03  1.78827E+04  1.33854E+03  1.05799E+04  1.17222E+04  1.31557E+03  1.55994E+04
 -6.69513E+03  1.25130E+04 -8.98023E+03  4.50777E+03 -5.77628E+03 -8.10605E+02 -2.17877E+03 -1.58522E+03
 -1.68616E+03 -5.20909E+02 -1.85409E+03  2.68977E+03 -5.59941E+03  2.80420E+03 -8.59406E+03 -1.55932E+03
 -6.32747E+03 -8.71662E+03 -6.42345E+02 -1.25838E+04  7.07042E+03 -1.15649E+04  1.21924E+04 -3.75365E+03
  1.27759E+04  5.81275E+03  5.26110E+03  1.09936E+04 -2.55073E+03  1.30655E+04 -9.35826E+03  7.71285E+03
 -1.15475E+04  3.92959E+02 -8.95440E+03 -8.29234E+03 -1.00281E+03 -1.03951E+04  5.77572E+03 -7.65389E+03
  7.99519E+03 -3.14297E+03  4.84238E+03  2.31342E+03  2.52832E+03  3.95969E+03  1.65095E+03  1.74582E+03
  2.85124E+03  9.21385E+02  2.78364E+03  1.99415E+03  3.13900E+03  4.24065E+03  3.16422E+03  7.57870E+03
 -3.02687E+03  1.03198E+04 -9.64058E+03  9.80796E+03 -1.19497E+04  2.70638E+03 -1.35598E+04 -5.02639E+03
 -6.26503E+03 -1.30197E+04  1.41859E+03 -1.38006E+04  7.68103E+03 -8.30281E+03  1.07912E+04 -2.58905E+03
  8.38002E+03  5.59208E+03  1.94381E+03  7.17018E+03 -2.97989E+03  4.42984E+03 -5.33806E+03 -1.02481E+03
 -3.16956E+03 -5.27265E+03  2.62014E+03 -6.08587E+03  5.56837E+03 -2.56851E+03  5.52134E+03  6.99938E+02
  3.16618E+03  2.28427E+03  8.66737E+02  1.61298E+03 -4.45633E+02  2.06070E+03  1.69204E+03 -9.15510E+02
  1.67153E+03 -3.72332E+02  5.27117E+03  2.12246E+03  2.35443E+03  7.54240E+03 -9.00256E+02  8.79309E+03
 -5.59607E+03  5.85883E+03 -8.05402E+03  1.66619E+03 -7.01302E+03 -2.97675E+03 -2.72808E+03 -5.19046E+03
  5.72234E+02 -4.38986E+03  3.85580E+03 -2.62544E+03  2.59593E+03  2.41754E+03 -1.40695E+03  4.51802E+03
 -4.77546E+03  2.45759E+03 -5.59260E+03 -2.85564E+03 -3.11218E+03 -6.93550E+03  1.06365E+03 -7.17658E+03
  4.50950E+03 -3.60199E+03  5.61642E+03  3.21697E+02  4.50161E+03  1.89854E+03  7.69922E+02  3.77423E+03
 -2.40925E+03  6.97980E+02 -3.33531E+03 -2.38282E+03  1.09635E+03 -5.41490E+03  6.35190E+03 -3.79368E+03
  8.42614E+03  7.77093E+02  7.96948E+03  5.13666E+03  2.39453E+03  8.43390E+03 -2.47183E+03  7.30572E+03
 -7.05992E+03  3.13310E+03 -7.03615E+03 -6.52251E+02 -4.08155E+03 -5.74769E+03  4.07111E+02 -4.65196E+03
  5.78720E+03 -2.31006E+03  4.37679E+03  1.61068E+03  1.05191E+03  4.53424E+03 -8.21082E+00  4.20978E+03
 -1.95795E+03  2.96580E+03 -2.51962E+03  1.08382E+03 -7.37195E+02  1.49696E+03 -1.78746E+03  2.00459E+03
 -2.07173E+03  2.90259E+03 -5.99055E+03  3.14421E+03 -8.03356E+03  8.44192E+02 -9.91670E+03 -5.44610E+03
 -5.64993E+03 -1.03954E+04  2.75213E+03 -1.24219E+04  7.71466E+03 -9.33868E+03  1.17058E+04 -3.63659E+03
  1.16712E+04  2.23128E+03  6.13469E+03  6.99461E+03  8.94479E+02  7.89122E+03 -3.23347E+03  6.33540E+03
 -4.58501E+03  2.32735E+03 -3.10583E+03 -6.17708E+02 -1.69288E+03 -8.40346E+02 -8.26592E+02  5.41647E+02
 -8.65732E+02  5.77759E+02 -1.64915E+03  2.09516E+02 -1.08914E+03 -2.11736E+03  5.50961E+02 -2.99655E+03
  3.34759E+03 -2.41670E+03  4.75915E+03 -2.87960E+02  6.43514E+03  4.66433E+03  1.74263E+03  7.95980E+03
 -4.06435E+03  9.83120E+03 -8.72014E+03  5.88449E+03 -1.00256E+04 -7.62446E+02 -7.77410E+03 -5.32475E+03
 -3.52566E+03 -8.47002E+03  1.94052E+03 -7.76773E+03  4.40611E+03 -3.04761E+03  5.75091E+03  4.46750E+02
  2.77115E+03  2.64206E+03 -3.85664E+02  2.49715E+03 -1.62669E+03 -3.69862E+02 -1.07402E+02 -1.94734E+03
  2.65843E+03 -2.60800E+02  3.68102E+03  1.15679E+03  3.55512E+03  2.77665E+03  1.83315E+02  4.40622E+03
 -3.60619E+03  3.99620E+03 -5.52414E+03  2.95123E+02 -5.19133E+03 -3.62073E+03 -8.55261E+02 -7.06290E+03
  3.21233E+03 -5.78466E+03  6.91697E+03 -1.71579E+03  6.65247E+03  2.39556E+03  2.80005E+03  4.68566E+03
  4.74466E+02  5.69746E+03 -2.11293E+03  4.91868E+03 -2.94327E+03  2.55722E+03 -2.57404E+03 -1.70234E+02
 -1.65584E+03 -3.56348E+02 -1.03558E+03  6.24964E+02 -3.13964E+03  1.09485E+03 -3.90212E+03 -9.59310E+02
 -4.24553E+03 -3.79227E+03 -1.62471E+03 -5.33306E+03  3.34449E+03 -5.95649E+03  5.35767E+03 -2.34258E+03
  6.44397E+03  5.06726E+02  3.00988E+03  3.94866E+03 -3.80452E+02  5.66396E+03 -4.03630E+03  3.52441E+03
