 $NMID ID='MM_0lb_SNR400_14hz_g40_74.RAW', FMTDAT='(8E13.5)'
 TRAMP=1., VOLUME=1. $END
  3.09601E+05  6.72348E+02  3.37496E+05  2.50266E+05  8.42790E+04  3.37764E+05 -1.32558E+05  2.50650E+05
 -1.90546E+05  8.32909E+04 -1.11649E+05 -3.20998E+04  9.84519E+02 -5.00732E+04  5.39194E+04 -5.85812E+01
  3.52773E+04  5.24836E+04 -1.70612E+04  7.48462E+04 -6.01914E+04  6.29906E+04 -8.34165E+04  3.17189E+04
 -8.02310E+04 -1.15687E+04 -5.66881E+04 -5.07963E+04 -1.51431E+04 -6.95161E+04  2.69377E+04 -4.55321E+04
  4.00707E+04  3.66994E+03  1.60581E+04  4.76899E+04 -3.43124E+04  4.64046E+04 -6.60155E+04 -3.47669E+02
 -5.31586E+04 -5.67680E+04 -6.33529E+03 -7.64182E+04  3.33192E+04 -5.46706E+04  4.78787E+04 -1.68934E+04
  4.24963E+04  1.15566E+04  3.12459E+04  2.56062E+04  1.62352E+04  2.88809E+04 -4.75407E+03  2.68658E+04
 -2.18796E+04  1.26468E+04 -1.86674E+04 -4.84328E+03  5.08051E+03 -7.32751E+03  2.14404E+04  1.12811E+04
  7.73913E+03  3.44927E+04 -3.10302E+04  3.47838E+04 -6.25426E+04  2.12764E+03 -5.69774E+04 -4.18619E+04
 -1.25548E+04 -6.24041E+04  3.92011E+04 -4.52984E+04  5.77906E+04 -1.58213E+03  3.38442E+04  3.24077E+04
 -6.08099E+03  3.49347E+04 -2.94560E+04  1.50502E+04 -2.94414E+04 -4.82439E+03 -1.58944E+04 -1.07204E+04
 -8.16105E+03 -1.17289E+04 -1.13910E+03 -1.76342E+04  7.31197E+03 -2.34908E+04  1.60109E+04 -1.31352E+04
  1.20193E+04  4.49837E+03 -7.81707E+03  1.25400E+04 -2.04869E+04 -4.01899E+03 -8.99062E+03 -3.30141E+04
  2.23793E+04 -4.28771E+04  4.72575E+04 -1.99330E+04  4.41375E+04  1.87133E+04  1.52721E+04  4.37729E+04
 -1.54272E+04  3.26194E+04 -2.46182E+04  1.38078E+03 -9.28113E+03 -2.70461E+04  2.09187E+04 -3.27438E+04
  4.05009E+04 -8.32538E+03  3.43131E+04  2.36546E+04  1.77912E+04  4.54707E+04 -8.32344E+03  4.96994E+04
 -3.05956E+04  3.31549E+04 -4.08188E+04  9.48365E+03 -4.11248E+04 -1.60670E+04 -2.28614E+04 -3.73011E+04
  8.07589E+03 -3.71949E+04  3.11314E+04 -1.43514E+04  2.98370E+04  1.08984E+04  4.08345E+03  1.88964E+04
 -1.28524E+04  8.37813E+03 -9.83942E+03 -8.14171E+03  5.94315E+03 -1.07741E+04  1.74777E+04  5.85087E+03
  1.37793E+04  2.17451E+04 -7.12390E+03  2.44309E+04 -2.19227E+04  1.08177E+04 -2.72843E+04 -5.20189E+03
 -1.95271E+04 -1.70471E+04 -7.33861E+03 -1.97222E+04  4.57511E+03 -1.82794E+04  1.53333E+04 -1.79812E+04
  2.52691E+04 -1.24790E+04  3.14009E+04  2.40935E+03  2.35978E+04  1.92349E+04  3.91558E+03  3.53197E+04
 -1.66395E+04  2.97141E+04 -2.74739E+04  1.05560E+04 -2.07840E+04 -1.01649E+04 -4.10389E+03 -1.34697E+04
  2.09147E+03 -2.64941E+03 -4.16207E+03  5.96815E+03 -1.52204E+04  5.39348E+03 -1.57770E+04 -6.83535E+03
 -9.88407E+03 -1.86367E+04  4.94799E+03 -2.22051E+04  1.46903E+04 -1.54748E+04  1.74225E+04 -1.69378E+03
  1.08522E+04  1.28062E+04 -7.41336E+02  1.82087E+04 -1.23984E+04  1.06083E+04 -1.80597E+04 -4.07547E+03
 -1.29919E+04 -1.66354E+04 -2.20216E+03 -2.20397E+04  1.05328E+04 -1.81082E+04  1.87489E+04 -9.47187E+03
  1.72683E+04 -6.53314E+02  1.21828E+04  3.55642E+03  6.57672E+03  7.18947E+02  9.47640E+03 -2.24676E+03
  1.65733E+04  2.88597E+03  1.78386E+04  1.47030E+04  1.20333E+04  2.91075E+04 -3.00129E+03  3.25134E+04
 -1.88728E+04  2.61383E+04 -3.00456E+04  1.24319E+04 -3.20801E+04 -2.84130E+03 -2.65592E+04 -1.82071E+04
 -1.20283E+04 -2.60705E+04  9.33641E+03 -2.32640E+04  1.98573E+04 -1.21585E+04  1.90022E+04  5.06440E+03
  6.58649E+03  1.34458E+04 -8.65482E+03  1.18132E+04 -1.61988E+04  2.71306E+03 -1.20604E+04 -9.45561E+03
  5.74838E+01 -1.50640E+04  7.14809E+03 -1.07710E+04  9.93877E+03 -1.63618E+03  2.41410E+03  6.40075E+03
 -6.23498E+03  2.26885E+03 -6.00408E+03 -6.12302E+03 -3.47454E+02 -1.26234E+04  9.77761E+03 -1.39163E+04
  1.59305E+04 -6.99158E+03  1.74909E+04  2.69243E+03  1.46561E+04  1.28463E+04  6.79380E+03  1.92913E+04
 -3.52458E+03  2.09100E+04 -1.33596E+04  1.26609E+04 -1.48688E+04  3.27950E+03 -1.12982E+04 -3.67174E+03
 -5.17659E+03 -4.23606E+03 -7.33411E+02  1.81841E+03 -2.18923E+03  2.58224E+03 -5.13568E+03  4.49799E+03
 -9.65020E+03 -8.93920E+02 -1.04284E+04 -8.84603E+03 -4.41951E+03 -1.40596E+04  4.63513E+03 -1.09732E+04
  9.37498E+03 -4.64891E+03  6.23139E+03  2.85732E+03 -9.78080E+01  4.21780E+03 -5.10199E+03 -3.08118E+02
 -4.61265E+03 -6.21348E+03 -1.18179E+03 -9.56291E+03  5.65016E+03 -1.07806E+04  1.35423E+04 -6.00874E+03
  1.58261E+04  1.61923E+03  1.18742E+04  9.16528E+03  2.52350E+03  1.23438E+04 -7.23614E+03  1.09108E+04
 -8.91080E+03  3.72002E+03 -4.80480E+03 -2.16398E+03  1.56788E+03 -2.16439E+03  5.69211E+03 -1.49379E+02
  5.82253E+03  4.28839E+03  7.16018E+02  8.25877E+03 -6.48127E+03  7.87357E+03 -1.09869E+04  2.15913E+03
 -6.87806E+03 -4.87561E+03  7.46869E+02 -8.91128E+03  4.93559E+03 -4.92873E+03  5.37914E+03  1.91761E+03
  1.11339E+03  5.97641E+03 -5.46396E+03  6.14409E+03 -7.66235E+03  2.92544E+03 -7.47324E+03 -2.66934E+03
 -4.94076E+03 -9.82920E+03  1.80567E+03 -1.06663E+04  9.61869E+03 -7.03816E+03  9.64741E+03  1.96358E+03
  5.99032E+03  8.27264E+03  2.08591E+02  9.70193E+03 -7.16336E+03  5.24834E+03 -8.05364E+03 -1.13775E+03
 -7.38149E+03 -6.41438E+03 -1.57827E+03 -7.57498E+03  3.18863E+03 -6.16031E+03  4.41500E+03 -2.88825E+03
  3.21369E+03  1.40593E+03  1.83130E+02  1.54578E+03 -3.71676E+02 -1.04565E+03  1.07553E+03 -3.61605E+03
  6.16978E+03 -1.82531E+03  9.01566E+03  1.17665E+03  8.80060E+03  5.60514E+03  6.65941E+03  1.18279E+04
 -2.26183E+03  1.33535E+04 -1.14717E+04  1.04601E+04 -1.56218E+04  2.13633E+03 -1.23327E+04 -5.11375E+03
 -6.69413E+03 -9.33377E+03 -7.32153E+02 -7.99776E+03  3.09954E+03 -4.10860E+03  2.58722E+03 -2.13740E+03
  1.85722E+03 -2.21225E+03  3.18078E+03 -3.01280E+03  4.44189E+03 -1.98779E+03  5.04887E+03 -4.44860E+02
  6.28921E+03  1.70873E+03  2.79269E+03  5.45634E+03 -2.04433E+03  5.66367E+03 -6.83506E+03  4.44697E+03
 -8.65195E+03 -1.40419E+03 -4.09638E+03 -5.61807E+03  7.70504E+01 -8.91035E+03  4.62968E+03 -8.97583E+03
  8.69649E+03 -5.03881E+03  1.01620E+04  1.03102E+03  7.13089E+03  6.87918E+03  1.46625E+03  9.09984E+03
 -4.12493E+03  8.22679E+03 -5.82607E+03  3.31854E+03 -4.19235E+03 -1.23356E+03 -1.07633E+03 -1.64157E+03
 -5.02030E+02  4.82923E+02 -1.03629E+03  2.38082E+03 -3.73874E+03  1.77553E+03 -5.84043E+03 -6.31154E+02
 -3.49886E+03 -5.96545E+03  7.94810E+02 -7.56267E+03  4.93898E+03 -7.48256E+03  7.09703E+03 -1.68492E+03
  7.48970E+03  3.67508E+03  3.65053E+03  6.54806E+03 -1.58030E+03  7.35583E+03 -5.37916E+03  4.70593E+03
 -6.50294E+03  5.15708E+02 -4.88329E+03 -4.36076E+03 -9.06991E+02 -5.94886E+03  3.31464E+03 -3.94095E+03
  4.24417E+03 -2.29082E+03  3.21056E+03  1.29539E+03  1.14184E+03  2.28892E+03  9.26876E+02  1.58313E+03
  1.56912E+03  1.04758E+03  2.58010E+03  1.08623E+03  2.01834E+03  3.91854E+03  2.34086E+03  4.30977E+03
 -2.10881E+03  5.32921E+03 -4.38464E+03  6.91216E+03 -7.62769E+03  1.60770E+03 -7.96100E+03 -2.02188E+03
 -2.92691E+03 -7.13437E+03  1.10999E+03 -7.93864E+03  3.88566E+03 -4.59707E+03  5.81686E+03 -1.51478E+03
  4.68366E+03  3.04116E+03  1.11913E+03  3.98506E+03 -2.09926E+03  2.64486E+03 -2.79674E+03 -4.19781E+02
 -1.37989E+03 -2.64360E+03  2.17372E+03 -3.09395E+03  3.37102E+03 -1.63563E+03  2.57826E+03  1.05939E+03
  1.55431E+03  1.57787E+03  8.81706E+02  3.67108E+02 -4.50846E+02  1.15924E+03  1.25416E+03 -2.14056E+02
  5.47923E+02 -6.94477E+02  3.18549E+03  1.05932E+03  9.65557E+02  3.25589E+03 -1.00891E+03  5.52978E+03
 -3.10311E+03  2.90997E+03 -4.16747E+03  1.33463E+03 -4.48287E+03 -1.52845E+03 -1.49156E+03 -2.50107E+03
  8.74740E+02 -2.37795E+03  1.45539E+03 -1.37852E+03  1.46938E+03  1.19197E+03 -1.03066E+03  1.96339E+03
 -2.62375E+03  1.47381E+03 -2.97482E+03 -1.40908E+03 -1.70752E+03 -4.42053E+03  9.98640E+02 -3.92342E+03
  2.09975E+03 -2.02773E+03  2.51643E+03 -2.81084E+02  2.96100E+03  1.15447E+03  1.03851E+03  2.04024E+03
 -5.92644E+02  4.43803E+02 -1.31793E+03 -1.28341E+03  1.06637E+03 -2.26524E+03  3.17060E+03 -2.20604E+03
  3.21881E+03 -2.59087E+01  3.93631E+03  1.62178E+03  2.06497E+03  3.86183E+03 -1.13040E+03  3.99897E+03
 -3.29265E+03  1.96667E+03 -3.54292E+03 -7.86302E+02 -1.87513E+03 -3.19023E+03  8.63698E+02 -2.11999E+03
  2.66215E+03 -1.12891E+03  2.48835E+03  5.77917E+02  9.70718E+02  1.97491E+03 -1.88512E+02  1.24918E+03
 -6.65176E+02  1.45751E+03 -8.34320E+02  5.82759E+02  2.11950E+01  6.50527E+02 -9.17214E+02  1.41834E+03
 -1.27122E+03  1.68787E+03 -2.94871E+03  1.86593E+03 -4.10281E+03 -1.63448E+00 -5.02880E+03 -2.42587E+03
 -1.97776E+03 -5.20910E+03  6.21494E+02 -5.71497E+03  3.00826E+03 -5.16285E+03  5.28877E+03 -2.04317E+03
  4.70401E+03  1.01350E+03  2.66297E+03  2.87881E+03 -6.59024E+02  3.41515E+03 -1.53977E+03  3.12736E+03
 -2.40399E+03  1.33926E+03 -1.23911E+03 -8.13626E+02 -1.22990E+03 -1.56502E+02 -9.63420E+02  3.34644E+02
 -8.96207E+02 -2.78650E+02 -1.01125E+03 -1.04163E+02  2.44353E+02 -1.15994E+03 -1.18026E+02 -1.69174E+03
  2.08162E+03 -1.76625E+03  2.45008E+03  2.95616E+02  2.32075E+03  1.59305E+03  4.82417E+02  3.84177E+03
 -1.57908E+03  4.73053E+03 -4.39519E+03  2.47155E+03 -4.47817E+03 -4.26841E+02 -3.32135E+03 -2.74675E+03
 -1.63661E+03 -3.44498E+03  4.67444E+02 -3.38448E+03  1.77269E+03 -1.61723E+03  2.16346E+03  1.23397E+02
  1.30323E+03  1.64704E+03 -2.27625E+02  8.88269E+02 -8.71075E+02 -2.66688E+02 -2.14000E+01 -1.40883E+03
  1.48858E+03  4.47023E+01  9.29674E+02  5.01890E+02  9.44950E+02  1.20779E+03  5.23759E+02  1.65898E+03
 -1.75266E+03  1.61657E+03 -2.56714E+03  4.15059E+02 -2.61095E+03 -1.61644E+03  2.55600E+02 -3.24658E+03
  1.83546E+03 -2.22161E+03  2.25145E+03 -3.39660E+02  3.09390E+03 -1.01534E+02  1.88960E+03  1.98896E+03
  7.12198E+02  2.37758E+03 -9.73131E+02  2.10676E+03 -1.94677E+03  1.95909E+03 -1.79509E+03  4.77245E+02
 -5.86367E+02 -4.40670E+02 -7.77116E+02  7.79007E+01 -1.17333E+03 -2.14332E+02 -2.02839E+03 -8.20840E+02
 -1.60108E+03 -4.75399E+02 -1.03215E+03 -2.17656E+03  1.23876E+03 -3.29363E+03  2.34518E+03 -1.09302E+03
  2.12969E+03  7.76587E+02  9.25106E+02  8.60921E+02 -5.67775E+01  2.37322E+03 -2.34326E+03  1.48679E+03
