 $NMID ID='MM_0lb_SNR400_15hz_g45_16.RAW', FMTDAT='(8E13.5)'
 TRAMP=1., VOLUME=1. $END
  3.09703E+05  6.02607E+02  3.37420E+05  2.50131E+05  8.39245E+04  3.37029E+05 -1.32597E+05  2.50696E+05
 -1.90014E+05  8.28861E+04 -1.11708E+05 -3.29033E+04  1.57197E+03 -4.97584E+04  5.36664E+04 -2.86206E+02
  3.51794E+04  5.23487E+04 -1.69292E+04  7.54167E+04 -6.02186E+04  6.37218E+04 -8.39663E+04  3.17787E+04
 -8.01610E+04 -1.11994E+04 -5.63711E+04 -5.13972E+04 -1.49805E+04 -6.93612E+04  2.73166E+04 -4.59634E+04
  3.93650E+04  3.76673E+03  1.58789E+04  4.79007E+04 -3.38096E+04  4.66796E+04 -6.58944E+04 -2.42184E+02
 -5.25392E+04 -5.64459E+04 -6.47224E+03 -7.66463E+04  3.36612E+04 -5.42476E+04  4.73790E+04 -1.69478E+04
  4.26608E+04  1.13483E+04  3.11743E+04  2.54624E+04  1.58417E+04  2.91210E+04 -5.44547E+03  2.71968E+04
 -2.15321E+04  1.27011E+04 -1.84247E+04 -4.67577E+03  5.88179E+03 -6.82756E+03  2.18002E+04  1.18989E+04
  7.79287E+03  3.49533E+04 -3.15924E+04  3.52439E+04 -6.22484E+04  1.99954E+03 -5.67116E+04 -4.19929E+04
 -1.25974E+04 -6.32956E+04  3.90315E+04 -4.52240E+04  5.72447E+04 -1.94323E+03  3.36121E+04  3.18327E+04
 -6.22709E+03  3.52399E+04 -2.96477E+04  1.51143E+04 -2.90570E+04 -5.35824E+03 -1.59414E+04 -1.03651E+04
 -8.34184E+03 -1.24861E+04 -8.72980E+02 -1.80173E+04  7.37936E+03 -2.29000E+04  1.53371E+04 -1.34573E+04
  1.14292E+04  5.32341E+03 -6.87495E+03  1.28324E+04 -2.09111E+04 -3.79601E+03 -8.65193E+03 -3.25630E+04
  2.20116E+04 -4.25296E+04  4.73000E+04 -1.95863E+04  4.36363E+04  1.93235E+04  1.57839E+04  4.35805E+04
 -1.58659E+04  3.24379E+04 -2.43824E+04  2.00782E+03 -9.23461E+03 -2.67239E+04  2.02236E+04 -3.27946E+04
  4.01636E+04 -8.71255E+03  3.42195E+04  2.32344E+04  1.71556E+04  4.50606E+04 -7.35831E+03  4.87231E+04
 -3.06086E+04  3.23149E+04 -4.07333E+04  8.91609E+03 -4.03812E+04 -1.64435E+04 -2.22361E+04 -3.66874E+04
  7.57428E+03 -3.66798E+04  3.07736E+04 -1.46776E+04  2.81389E+04  1.08598E+04  2.92430E+03  1.86000E+04
 -1.37151E+04  7.83779E+03 -1.06099E+04 -7.70140E+03  6.20491E+03 -1.02856E+04  1.72212E+04  5.68609E+03
  1.29774E+04  2.21054E+04 -6.17122E+03  2.44128E+04 -2.16262E+04  1.03743E+04 -2.71608E+04 -5.87914E+03
 -1.94176E+04 -1.71503E+04 -7.50891E+03 -1.91973E+04  4.03549E+03 -1.83380E+04  1.47313E+04 -1.68562E+04
  2.42583E+04 -1.26131E+04  3.14277E+04  2.22792E+03  2.27949E+04  1.84560E+04  4.28001E+03  3.49534E+04
 -1.79099E+04  2.85888E+04 -2.71068E+04  1.06278E+04 -2.01384E+04 -1.04552E+04 -4.18366E+03 -1.35899E+04
  2.31754E+03 -3.16323E+03 -3.80675E+03  7.21075E+03 -1.55588E+04  5.18969E+03 -1.51552E+04 -6.47141E+03
 -9.75418E+03 -1.74743E+04  4.85566E+03 -2.17594E+04  1.44952E+04 -1.57242E+04  1.74199E+04 -1.85574E+03
  1.10012E+04  1.28350E+04 -5.11429E+02  1.81981E+04 -1.23061E+04  1.02143E+04 -1.71717E+04 -3.97139E+03
 -1.30438E+04 -1.62521E+04 -1.97752E+03 -2.12741E+04  9.76973E+03 -1.80948E+04  1.85350E+04 -9.13241E+03
  1.68031E+04  3.70464E+02  1.17777E+04  3.91744E+03  6.89865E+03  7.29768E+02  8.53247E+03 -1.55502E+03
  1.65618E+04  3.05436E+03  1.81218E+04  1.41671E+04  1.19591E+04  2.84278E+04 -2.82585E+03  3.18121E+04
 -1.85414E+04  2.52242E+04 -2.97272E+04  1.22196E+04 -3.04599E+04 -1.86241E+03 -2.49826E+04 -1.81190E+04
 -1.17237E+04 -2.51436E+04  8.61762E+03 -2.24602E+04  1.96410E+04 -1.19744E+04  1.79644E+04  4.68566E+03
  7.28424E+03  1.33623E+04 -8.15484E+03  1.23578E+04 -1.48199E+04  2.14110E+03 -1.23819E+04 -9.35262E+03
  3.33725E+02 -1.49615E+04  7.02003E+03 -1.09501E+04  9.15999E+03 -1.44253E+03  1.67373E+03  5.90358E+03
 -6.48046E+03  2.68678E+03 -5.35774E+03 -5.16688E+03 -7.20135E+02 -1.16853E+04  9.48550E+03 -1.25843E+04
  1.56696E+04 -6.85097E+03  1.56531E+04  2.97764E+03  1.42793E+04  1.19287E+04  6.71200E+03  1.85421E+04
 -2.85361E+03  2.02183E+04 -1.22371E+04  1.21714E+04 -1.46914E+04  2.68370E+03 -1.03152E+04 -2.51404E+03
 -5.17226E+03 -4.46726E+03 -7.07882E+02  1.15968E+03 -2.29686E+03  1.95592E+03 -4.64241E+03  3.93602E+03
 -9.52659E+03 -1.79189E+02 -1.06830E+04 -8.74829E+03 -4.88573E+03 -1.34894E+04  5.03300E+03 -1.01506E+04
  8.41520E+03 -4.73254E+03  6.21028E+03  2.56543E+03  1.97685E+02  4.02794E+03 -4.73654E+03  2.46063E+02
 -4.49709E+03 -6.60743E+03 -1.03999E+03 -9.39462E+03  5.65251E+03 -1.04940E+04  1.27405E+04 -5.53577E+03
  1.52555E+04  1.05464E+03  1.07998E+04  8.29096E+03  1.69244E+03  1.13666E+04 -6.43870E+03  1.00165E+04
 -9.04225E+03  3.03913E+03 -4.62448E+03 -1.88052E+03  1.36381E+03 -2.36411E+03  5.59791E+03 -9.03021E+02
  4.71347E+03  3.80640E+03  9.82815E+02  8.13510E+03 -6.15321E+03  8.09505E+03 -1.05648E+04  2.35943E+03
 -6.32115E+03 -4.71135E+03  7.05920E+02 -8.44455E+03  4.53407E+03 -4.26683E+03  4.83416E+03  1.58707E+03
  1.07704E+03  5.10023E+03 -5.05970E+03  6.06293E+03 -7.19398E+03  3.81876E+03 -6.69496E+03 -2.12275E+03
 -3.88757E+03 -8.88577E+03  2.31204E+03 -1.03983E+04  7.85120E+03 -6.27527E+03  9.07552E+03  1.58452E+03
  6.38513E+03  7.71185E+03 -5.45485E+02  9.31354E+03 -7.04608E+03  5.71154E+03 -7.08297E+03 -1.38409E+03
 -7.34107E+03 -6.31396E+03 -1.72529E+03 -6.61192E+03  3.51221E+03 -5.95124E+03  4.36641E+03 -2.81763E+03
  3.57579E+03  1.35456E+03  5.43710E+02  8.60051E+02  2.81843E+02 -4.36685E+02  4.44310E+02 -3.48875E+03
  5.80594E+03 -1.89150E+03  8.84014E+03  1.16752E+03  7.45894E+03  4.68259E+03  6.68091E+03  1.01794E+04
 -2.19947E+03  1.20885E+04 -1.10277E+04  9.31261E+03 -1.37086E+04  1.65118E+03 -1.13706E+04 -4.10770E+03
 -5.31486E+03 -9.64841E+03 -1.91155E+02 -8.07257E+03  3.02879E+03 -3.48590E+03  2.51737E+03 -3.04264E+03
  1.97797E+03 -1.48890E+03  2.44339E+03 -2.66730E+03  4.30749E+03 -1.56552E+03  4.80721E+03  7.92296E+02
  6.06659E+03  1.51580E+03  2.21612E+03  4.66950E+03 -1.66424E+03  4.61533E+03 -6.28531E+03  3.69812E+03
 -7.37272E+03 -2.03111E+03 -3.88363E+03 -4.95821E+03 -2.98252E+02 -7.79272E+03  3.86395E+03 -8.01115E+03
  8.04366E+03 -5.02496E+03  9.98185E+03  3.95408E+02  6.80022E+03  6.37903E+03  1.37580E+03  9.01811E+03
 -3.75119E+03  7.90997E+03 -5.25279E+03  2.55821E+03 -3.60737E+03 -1.26979E+03 -1.40002E+03 -1.14805E+03
 -1.43395E+02 -2.04267E+02 -9.57958E+02  2.52339E+03 -4.26460E+03  1.63827E+03 -5.49426E+03 -7.09869E+02
 -2.48069E+03 -4.91800E+03  9.81146E+02 -6.84895E+03  4.34481E+03 -5.79474E+03  6.51148E+03 -1.95925E+03
  6.92934E+03  2.91820E+03  2.60934E+03  5.40740E+03 -1.70280E+03  7.21674E+03 -3.75523E+03  4.22324E+03
 -6.38195E+03  5.64757E+02 -5.11310E+03 -4.15586E+03 -7.91517E+02 -5.21420E+03  2.77446E+03 -4.01365E+03
  3.86303E+03 -2.12664E+03  2.40534E+03  1.01706E+03  1.10799E+03  2.60876E+03  2.99700E+02  1.07643E+03
  1.85138E+03  2.82383E+02  1.52161E+03  9.87919E+02  1.82004E+03  2.81431E+03  2.11055E+03  3.14054E+03
 -1.59343E+03  5.00807E+03 -4.57851E+03  5.66021E+03 -5.45406E+03  1.76793E+03 -6.91389E+03 -1.37210E+03
 -2.72185E+03 -5.82921E+03  1.22671E+03 -7.09738E+03  3.38047E+03 -3.96093E+03  5.01160E+03 -1.66274E+03
  4.27286E+03  2.36210E+03  4.23336E+02  3.83620E+03 -1.36191E+03  2.07717E+03 -1.81189E+03 -5.94954E+02
 -1.51514E+03 -2.46424E+03  1.84602E+03 -2.52340E+03  2.04986E+03 -1.38167E+03  2.13159E+03  3.42710E+02
  1.34166E+03  7.61934E+02  6.53991E+02  6.23060E+01 -9.30853E+02  7.90048E+02  9.44264E+02 -8.20088E+01
 -9.36891E+01 -1.01033E+01  2.79485E+03  1.06346E+03  3.16705E+02  4.14133E+03 -4.06111E+02  3.76672E+03
 -3.02434E+03  2.31709E+03 -3.89778E+03  1.21111E+03 -3.81478E+03 -1.24227E+03 -9.12149E+02 -1.89240E+03
  4.24159E+02 -2.82558E+03  1.72855E+03 -5.49630E+02  6.58864E+02  1.19229E+03 -6.58040E+02  2.18532E+03
 -2.41621E+03  1.03342E+03 -2.32055E+03 -1.50360E+03 -1.22594E+03 -3.15314E+03  5.53562E+02 -2.93282E+03
  1.37226E+03 -1.60319E+03  1.81404E+03  6.25457E+02  2.11143E+03  8.63446E+02  5.33701E+02  2.41816E+03
 -6.51413E+02  4.60049E+01 -1.85250E+03 -5.35640E+02  4.98655E+02 -1.92634E+03  3.53575E+03 -2.08555E+03
  2.83380E+03  4.82003E+02  4.19125E+03  2.46011E+03  1.54307E+03  3.66238E+03 -1.06963E+03  3.61222E+03
 -2.91150E+03  9.22925E+02 -3.30169E+03  1.63035E+02 -1.25140E+03 -2.64580E+03  1.00697E+03 -1.66243E+03
  2.42987E+03 -1.01137E+03  2.09004E+03  7.99177E+02  7.23139E+02  2.11174E+03  3.07204E+02  2.07229E+03
 -1.22332E+03  1.33677E+03 -6.21528E+02  3.91709E+02  1.59281E+02  2.91592E+02 -6.58825E+02  8.36385E+02
 -1.08511E+03  2.42807E+03 -2.84625E+03  1.03888E+03 -3.36284E+03  3.36097E+02 -4.44736E+03 -2.85137E+03
 -1.83222E+03 -4.95796E+03  1.11684E+03 -5.04663E+03  2.92997E+03 -5.00651E+03  5.50173E+03 -1.40665E+03
  4.08162E+03  4.70840E+02  2.14083E+03  2.97777E+03 -6.62036E+01  3.04985E+03 -1.48474E+03  2.61532E+03
 -1.54754E+03  1.02194E+03 -1.57271E+03 -3.74493E+02 -8.48757E+02  7.48561E+01 -9.44791E+02  1.04366E+02
 -1.41611E+03  3.45036E+02 -1.16875E+03  4.07551E+02  9.57192E+01 -1.20842E+03 -1.83474E+02 -1.09077E+03
  1.46575E+03 -1.02731E+03  2.08041E+03  5.08228E+02  1.51511E+03  2.11576E+03 -4.67858E+02  3.42161E+03
 -1.61648E+03  4.46654E+03 -3.10397E+03  2.51102E+03 -3.84840E+03 -6.98578E+02 -3.26546E+03 -2.50348E+03
 -1.67319E+03 -3.52885E+03  9.36697E+02 -2.68933E+03  1.31693E+03 -1.42684E+03  1.58640E+03  1.27188E+02
  1.33963E+03  9.96885E+01  2.03275E+02  1.01713E+03 -3.44131E+02  2.92718E+02  1.08794E+02 -1.00141E+03
  7.75631E+02  2.43075E+01  6.27465E+02  7.38463E+02  7.78222E+02  1.13338E+03  5.33838E+02  1.38407E+03
 -1.18598E+03  1.36570E+03 -2.04910E+03  3.92303E+02 -1.60164E+03 -1.34958E+03 -6.85041E+01 -2.01737E+03
  1.14210E+03 -1.33193E+03  1.48697E+03 -2.44758E+02  2.41584E+03 -6.00259E+02  1.85060E+03  1.77533E+03
  8.39845E+02  2.07002E+03 -2.16782E+02  1.40999E+03 -1.14032E+03  1.36829E+03 -1.02110E+03  1.29195E+02
  1.69180E+02 -2.64741E+02 -5.33052E+02  2.44009E+02 -1.60942E+03  5.07110E+02 -1.23113E+03 -5.74652E+02
 -2.10061E+03 -3.76788E+02 -9.80114E+02 -2.29074E+03  1.67991E+03 -2.61938E+03  1.51777E+03 -7.11209E+02
  1.79776E+03 -1.58038E+02  9.78124E+02  1.33238E+03 -2.42601E+02  1.49886E+03 -1.28706E+03  1.92970E+03
