 $NMID ID='MM_0lb_SNR400_18hz_g50_6.RAW', FMTDAT='(8E13.5)'
 TRAMP=1., VOLUME=1. $END
  3.10223E+05  4.51881E+02  3.37499E+05  2.50218E+05  8.43850E+04  3.37211E+05 -1.32889E+05  2.51331E+05
 -1.89580E+05  8.27939E+04 -1.11613E+05 -3.23004E+04  1.16999E+03 -5.05642E+04  5.34418E+04 -8.05668E+01
  3.55033E+04  5.27745E+04 -1.70125E+04  7.48011E+04 -6.01686E+04  6.28727E+04 -8.33985E+04  3.11618E+04
 -8.01488E+04 -1.10774E+04 -5.65034E+04 -5.08944E+04 -1.51283E+04 -6.85331E+04  2.67650E+04 -4.44818E+04
  3.91449E+04  4.11769E+03  1.63478E+04  4.75022E+04 -3.46703E+04  4.65492E+04 -6.46743E+04 -3.43061E+02
 -5.21935E+04 -5.60492E+04 -6.89868E+03 -7.57865E+04  3.33903E+04 -5.33213E+04  4.62913E+04 -1.69435E+04
  4.20450E+04  1.12129E+04  3.14446E+04  2.51259E+04  1.52779E+04  2.87384E+04 -4.62309E+03  2.65207E+04
 -2.20671E+04  1.30122E+04 -1.82311E+04 -5.02887E+03  4.21438E+03 -7.79813E+03  2.18326E+04  1.15710E+04
  7.67973E+03  3.39308E+04 -3.12901E+04  3.47670E+04 -6.20175E+04  2.30073E+03 -5.59055E+04 -4.17309E+04
 -1.21035E+04 -6.16168E+04  3.87289E+04 -4.40234E+04  5.62575E+04 -2.27040E+03  3.21084E+04  3.12877E+04
 -6.57242E+03  3.32179E+04 -2.88321E+04  1.38679E+04 -2.79002E+04 -5.10179E+03 -1.48769E+04 -1.03901E+04
 -8.01811E+03 -1.16315E+04 -9.82741E+02 -1.75656E+04  6.82673E+03 -2.30890E+04  1.52741E+04 -1.36014E+04
  1.29328E+04  4.99224E+03 -6.72917E+03  1.35667E+04 -1.97622E+04 -3.18342E+03 -8.11007E+03 -3.11646E+04
  2.09089E+04 -4.09058E+04  4.56069E+04 -1.90950E+04  4.36005E+04  1.90634E+04  1.40655E+04  4.16552E+04
 -1.53931E+04  3.19962E+04 -2.40263E+04  1.34078E+03 -8.69891E+03 -2.62572E+04  2.05627E+04 -3.12117E+04
  3.92712E+04 -7.26539E+03  3.25397E+04  2.32536E+04  1.59978E+04  4.31203E+04 -8.18626E+03  4.63630E+04
 -2.87485E+04  3.04930E+04 -3.83030E+04  8.59954E+03 -3.94209E+04 -1.52593E+04 -2.18758E+04 -3.55529E+04
  7.04867E+03 -3.47105E+04  2.97342E+04 -1.36324E+04  2.68541E+04  1.04949E+04  3.20825E+03  1.75875E+04
 -1.31816E+04  7.74677E+03 -9.47513E+03 -7.42162E+03  5.56572E+03 -1.04012E+04  1.69880E+04  6.49563E+03
  1.20260E+04  2.12399E+04 -6.82804E+03  2.38263E+04 -2.21343E+04  9.21766E+03 -2.56152E+04 -5.95053E+03
 -1.74282E+04 -1.69378E+04 -6.48032E+03 -1.76808E+04  3.73673E+03 -1.55042E+04  1.26330E+04 -1.51548E+04
  2.23689E+04 -1.20222E+04  2.91192E+04  1.30234E+03  2.18134E+04  1.68662E+04  3.95627E+03  3.37617E+04
 -1.68544E+04  2.83010E+04 -2.65484E+04  9.74583E+03 -2.02368E+04 -1.04840E+04 -4.54341E+03 -1.40940E+04
  1.72879E+03 -3.03178E+03 -2.66063E+03  5.45566E+03 -1.41530E+04  5.01326E+03 -1.36797E+04 -5.29451E+03
 -8.83280E+03 -1.57559E+04  4.62447E+03 -2.02922E+04  1.26904E+04 -1.42792E+04  1.55692E+04 -1.64064E+03
  9.93799E+03  1.13720E+04 -5.84857E+02  1.60904E+04 -1.14333E+04  8.96099E+03 -1.61371E+04 -3.26343E+03
 -1.18602E+04 -1.44098E+04 -9.27948E+02 -1.94624E+04  8.73177E+03 -1.62376E+04  1.63964E+04 -7.59885E+03
  1.56363E+04  6.84833E+02  1.07836E+04  4.11999E+03  5.46418E+03  7.84140E+02  8.05772E+03 -1.68533E+03
  1.38165E+04  2.82293E+03  1.54911E+04  1.31015E+04  1.00466E+04  2.56953E+04 -2.81315E+03  2.85630E+04
 -1.61426E+04  2.13678E+04 -2.55823E+04  1.06644E+04 -2.63364E+04 -2.04500E+03 -2.26824E+04 -1.51179E+04
 -9.95299E+03 -2.21513E+04  7.02343E+03 -1.95171E+04  1.70450E+04 -1.10922E+04  1.61868E+04  3.91670E+03
  6.35100E+03  1.14946E+04 -7.33328E+03  1.14809E+04 -1.28913E+04  3.28281E+03 -1.08059E+04 -7.88139E+03
  2.89909E+02 -1.24014E+04  6.05404E+03 -9.98977E+03  7.53503E+03 -1.83139E+03  2.07092E+03  5.00164E+03
 -5.54609E+03  1.23264E+03 -4.33360E+03 -4.48344E+03  4.61360E+02 -1.06364E+04  7.36210E+03 -1.06974E+04
  1.34267E+04 -5.52203E+03  1.30470E+04  3.16019E+03  1.05437E+04  1.01611E+04  5.51366E+03  1.47753E+04
 -1.61819E+03  1.70054E+04 -1.02197E+04  1.03767E+04 -1.10989E+04  3.05524E+03 -8.67687E+03 -2.16428E+03
 -4.72030E+03 -4.23565E+03 -3.94983E+02  2.01699E+03 -2.00335E+03  1.88741E+03 -4.06249E+03  3.51145E+03
 -8.24063E+03 -5.09310E+02 -8.80771E+03 -8.11747E+03 -3.63027E+03 -1.15811E+04  3.71534E+03 -8.22543E+03
  7.05614E+03 -4.08973E+03  5.62692E+03  2.20483E+03  2.28423E+02  3.54168E+03 -3.28971E+03 -1.03313E+01
 -3.33934E+03 -5.61963E+03 -7.92932E+02 -8.11231E+03  4.77092E+03 -7.88629E+03  1.05267E+04 -4.20219E+03
  1.19550E+04  5.60273E+02  9.51018E+03  6.74176E+03  1.50934E+03  9.15306E+03 -5.76313E+03  8.95635E+03
 -6.80373E+03  2.87125E+03 -3.35265E+03 -1.74863E+03  1.72080E+03 -2.41297E+03  5.39707E+03 -1.32429E+03
  4.20448E+03  3.48298E+03  1.73771E+03  7.05179E+03 -5.09318E+03  6.83486E+03 -8.82250E+03  1.30578E+03
 -4.88008E+03 -3.53201E+03  4.88617E+02 -6.77744E+03  4.05854E+03 -3.37549E+03  4.02688E+03  5.91447E+02
  5.86127E+02  3.45642E+03 -4.16737E+03  5.06942E+03 -5.28185E+03  2.63282E+03 -4.64513E+03 -1.20211E+03
 -2.94490E+03 -6.42749E+03  1.58303E+03 -7.87412E+03  6.34312E+03 -4.64658E+03  6.88080E+03  8.86668E+02
  4.62992E+03  5.59016E+03  8.14402E+01  7.80494E+03 -5.78083E+03  3.84973E+03 -5.83342E+03 -5.36607E+02
 -5.52163E+03 -5.57134E+03 -1.15922E+03 -5.46211E+03  2.96011E+03 -5.34857E+03  3.41088E+03 -2.79230E+03
  2.86327E+03  1.28690E+02 -1.72742E+02  1.64382E+03  1.38281E+02 -1.24525E+02 -6.54001E+02 -2.08293E+03
  3.83858E+03 -1.48865E+03  5.88612E+03  9.31555E+02  5.93145E+03  3.58026E+03  5.15522E+03  7.59865E+03
 -1.50288E+03  8.91336E+03 -8.21633E+03  7.64207E+03 -1.06462E+04  1.26976E+03 -8.02660E+03 -2.81239E+03
 -4.51390E+03 -6.79435E+03 -1.89271E+01 -5.83664E+03  1.91943E+03 -3.11670E+03  1.53224E+03 -1.90833E+03
  1.30597E+03 -1.98581E+03  2.14550E+03 -2.88004E+03  3.59476E+03 -9.01439E+02  3.38492E+03  3.89069E+02
  4.01976E+03  1.48531E+03  9.37113E+02  3.13190E+03 -1.44592E+03  2.94180E+03 -4.59385E+03  2.39306E+03
 -5.48659E+03 -9.16524E+02 -1.84250E+03 -2.95153E+03  3.98416E+02 -5.45561E+03  3.51673E+03 -5.65153E+03
  5.27729E+03 -3.89481E+03  7.29666E+03  5.45558E+02  5.15213E+03  4.62874E+03  1.40505E+03  6.68588E+03
 -2.49107E+03  5.85370E+03 -3.33506E+03  2.22330E+03 -2.15946E+03 -9.17780E+02 -8.13860E+02 -5.15228E+02
 -1.40484E+02  2.28763E+02 -1.12185E+03  1.80458E+03 -2.42822E+03  1.02872E+03 -4.53404E+03 -4.62507E+02
 -1.20675E+03 -4.28946E+03  8.59206E+02 -4.58467E+03  3.15213E+03 -4.98910E+03  4.15668E+03 -1.21225E+03
  4.34642E+03  3.27801E+03  1.75382E+03  3.56632E+03 -1.52560E+03  4.45343E+03 -2.76501E+03  2.96738E+03
 -4.36631E+03  5.40244E+02 -3.60454E+03 -3.01903E+03 -5.42885E+02 -3.72260E+03  2.01577E+03 -2.45527E+03
  3.32715E+03 -1.42025E+03  1.97797E+03  4.34239E+02  2.13983E+02  2.16599E+03  9.43924E+02  5.51157E+02
  1.77226E+03  8.98944E+02  7.94621E+02  9.92423E+02  1.24434E+03  2.49909E+03  6.63978E+02  1.27389E+03
 -1.47517E+03  3.14518E+03 -3.11226E+03  4.26330E+03 -3.04496E+03  1.03678E+03 -4.22564E+03 -7.27946E+02
 -1.63591E+03 -4.01212E+03  3.15280E+02 -4.83557E+03  2.03681E+03 -2.66491E+03  3.97797E+03 -1.63003E+03
  3.12999E+03  1.36982E+03  2.10216E+02  2.24824E+03 -3.47024E+02  1.90538E+03 -1.59360E+03  2.62134E+02
 -4.77597E+02 -1.16675E+03  2.22694E+03 -1.53365E+03  1.36291E+03 -1.47089E+02  9.46336E+02  3.41053E+02
  8.74333E+02  3.79639E+01  9.27715E+02  1.30763E+02 -5.48202E+01  7.34523E+02  1.66374E+03 -9.96350E+02
 -1.13520E+02 -3.28134E+02  1.57123E+03  6.19296E+02  4.33134E+02  2.49703E+03 -3.45541E+01  3.34123E+03
 -1.83558E+03  8.43989E+02 -2.19356E+03  3.46390E+02 -2.19901E+03 -5.25513E+02 -1.10363E+01 -7.12564E+02
  3.28353E+02 -1.63298E+03  1.07538E+03 -1.25275E+03  1.18730E+03  1.46053E+03 -7.22995E+02  9.71666E+02
 -1.70826E+03  1.22150E+03 -1.46400E+03 -7.65227E+02 -5.79115E+02 -2.43030E+03 -3.86538E+02 -1.43039E+03
  3.91472E+02 -6.92527E+02  3.54087E+02  1.85924E+02  1.49592E+03 -3.62136E+02  6.76650E+02  1.27619E+03
 -4.76823E+02  2.85869E+02 -1.45395E+03 -2.87104E+02  8.41683E+02 -3.86906E+02  2.41647E+03 -1.13903E+03
  1.28309E+03  7.77923E+02  2.70245E+03  1.20138E+03  9.72271E+02  2.05241E+03 -1.57350E+02  2.38268E+03
 -1.70171E+03  3.80297E+02 -1.54581E+03 -3.92894E+02 -4.50619E+02 -1.87838E+03  2.95399E+02 -7.58454E+02
  1.44696E+03 -9.54858E+02  7.18682E+02  9.55103E+02  5.77794E+02  1.11311E+03  4.90440E+02  1.31702E+03
 -9.69870E+02  1.03650E+03 -4.04925E+02 -3.27219E+02  3.85724E+01  6.14894E+02 -2.21624E+02  9.68692E+02
 -4.06351E+02  9.94947E+02 -2.61882E+03  8.78841E+02 -1.58939E+03  4.41704E+02 -2.42103E+03 -1.46651E+03
 -1.23981E+03 -2.67442E+03  8.38882E+02 -3.59333E+03  1.31760E+03 -2.68591E+03  3.08384E+03 -8.53558E+02
  2.17696E+03 -1.51747E+02  1.43850E+03  1.59100E+03 -4.68535E+02  1.81679E+03 -1.00453E+03  1.69551E+03
 -8.96232E+02  7.89685E+02 -7.53552E+02 -1.14180E+02 -7.55225E+02  2.68364E+02 -7.84061E+02  4.44107E+01
 -1.19734E+03 -1.20764E+02 -8.02672E+02 -1.98584E+02 -7.55535E+02 -5.13644E+02 -6.13234E+02 -1.21237E+03
  1.25799E+03 -5.55331E+02  7.19999E+02  4.47795E+02  1.16479E+03  1.03003E+03 -4.56235E+02  1.70446E+03
 -1.37087E+03  2.15147E+03 -1.94414E+03  1.57221E+03 -2.04117E+03  1.24359E+02 -1.22975E+03 -1.82797E+03
 -1.10926E+03 -1.41673E+03  7.04609E+02 -1.12557E+03  6.26397E+02 -6.86885E+02  4.86745E+02  5.27543E+02
  6.24128E+02  9.16992E+00  2.20288E+01  7.24149E+02 -4.41860E+02 -3.36932E+02 -5.05777E+00 -6.61464E+02
  4.23156E+02 -3.42632E+02  5.78165E+02  2.39056E+02  4.09776E+02  9.58804E+02  1.02594E+02  2.70550E+02
 -1.33629E+02  4.38758E+02 -7.73591E+02  1.67710E+02 -1.06099E+03 -9.21816E+02  2.34046E+02 -1.67919E+03
  8.96508E+02 -7.81541E+02 -2.06672E+02 -1.89069E+02  7.78495E+02 -5.75729E+02  8.39198E+02  6.57941E+02
  3.66498E+02  6.46427E+02 -8.82505E+01  1.00531E+03 -3.19399E+02  7.42633E+02 -4.80745E+02 -5.26077E+00
 -9.07126E+01  1.57484E+02 -1.28045E+02 -1.03533E+02 -1.33512E+03  2.29432E+02 -9.81781E+02  1.02034E+02
 -1.13591E+03  4.98733E+01 -4.38263E+01 -5.47934E+02  4.99585E+02 -1.21776E+03  7.45127E+02  7.90661E+01
  9.47780E+02  5.90328E+02 -2.06952E+02 -1.75007E+02  2.39587E+02  7.72336E+02 -7.74545E+01  8.77389E+02
