 $NMID ID='MM_0lb_SNR400_15hz_g45_34.RAW', FMTDAT='(8E13.5)'
 TRAMP=1., VOLUME=1. $END
  3.09978E+05  4.97912E+02  3.37529E+05  2.50748E+05  8.44470E+04  3.37144E+05 -1.31981E+05  2.50438E+05
 -1.89831E+05  8.29285E+04 -1.10976E+05 -3.26658E+04  1.63181E+03 -5.03271E+04  5.34127E+04 -4.04071E+02
  3.57769E+04  5.28959E+04 -1.69138E+04  7.52122E+04 -6.09634E+04  6.34447E+04 -8.38152E+04  3.18078E+04
 -8.09282E+04 -1.13814E+04 -5.65191E+04 -5.11245E+04 -1.44392E+04 -6.89102E+04  2.68481E+04 -4.56315E+04
  3.98078E+04  3.69544E+03  1.63545E+04  4.77463E+04 -3.39512E+04  4.64778E+04 -6.56643E+04 -5.67270E+02
 -5.31021E+04 -5.65773E+04 -6.96087E+03 -7.62623E+04  3.34700E+04 -5.42019E+04  4.75907E+04 -1.70657E+04
  4.26785E+04  1.17084E+04  3.15737E+04  2.50531E+04  1.51102E+04  2.91879E+04 -5.35837E+03  2.69051E+04
 -2.17926E+04  1.22521E+04 -1.87897E+04 -4.45677E+03  5.49399E+03 -7.61301E+03  2.25336E+04  1.14972E+04
  7.38736E+03  3.46983E+04 -3.16332E+04  3.54800E+04 -6.23370E+04  2.05082E+03 -5.66229E+04 -4.24877E+04
 -1.25268E+04 -6.22465E+04  3.92839E+04 -4.45306E+04  5.70971E+04 -2.31170E+03  3.35740E+04  3.21709E+04
 -6.11261E+03  3.42978E+04 -2.94309E+04  1.51780E+04 -2.90039E+04 -4.90685E+03 -1.57188E+04 -1.12484E+04
 -8.37285E+03 -1.25554E+04 -2.72154E+02 -1.69820E+04  7.21519E+03 -2.28316E+04  1.50641E+04 -1.39283E+04
  1.22695E+04  5.11871E+03 -7.66938E+03  1.31749E+04 -2.04467E+04 -3.94666E+03 -8.10300E+03 -3.28600E+04
  2.22853E+04 -4.17589E+04  4.69236E+04 -1.92820E+04  4.44397E+04  1.92722E+04  1.47956E+04  4.31451E+04
 -1.65249E+04  3.35679E+04 -2.48520E+04  1.10812E+03 -9.61796E+03 -2.71112E+04  2.08503E+04 -3.24376E+04
  3.97871E+04 -8.86560E+03  3.43058E+04  2.31300E+04  1.70561E+04  4.48464E+04 -7.85094E+03  4.85952E+04
 -3.06152E+04  3.30812E+04 -4.03890E+04  8.76984E+03 -4.02997E+04 -1.57826E+04 -2.28740E+04 -3.69354E+04
  7.52229E+03 -3.64672E+04  3.04115E+04 -1.39205E+04  2.90624E+04  1.03898E+04  3.62391E+03  1.84121E+04
 -1.32279E+04  7.53459E+03 -1.00882E+04 -7.75860E+03  6.15753E+03 -1.04194E+04  1.76164E+04  6.41319E+03
  1.34077E+04  2.15619E+04 -6.54590E+03  2.42682E+04 -2.20526E+04  1.06978E+04 -2.70821E+04 -4.40349E+03
 -1.99258E+04 -1.65151E+04 -7.78509E+03 -1.98338E+04  4.17500E+03 -1.90948E+04  1.51513E+04 -1.70720E+04
  2.47252E+04 -1.27427E+04  3.11337E+04  2.38721E+03  2.27459E+04  1.86650E+04  3.82236E+03  3.46934E+04
 -1.69806E+04  2.96220E+04 -2.76190E+04  9.89044E+03 -2.00838E+04 -1.02574E+04 -3.50258E+03 -1.36690E+04
  2.22256E+03 -3.31430E+03 -4.38836E+03  6.30185E+03 -1.47495E+04  5.13197E+03 -1.57936E+04 -5.92968E+03
 -9.68796E+03 -1.76564E+04  4.80764E+03 -2.19000E+04  1.45813E+04 -1.58731E+04  1.74724E+04 -2.00114E+03
  1.04698E+04  1.24657E+04 -8.09780E+02  1.79975E+04 -1.17977E+04  9.75061E+03 -1.79766E+04 -4.20153E+03
 -1.30451E+04 -1.63602E+04 -2.17538E+03 -2.20129E+04  1.01110E+04 -1.80732E+04  1.86753E+04 -8.76611E+03
  1.66821E+04  9.40952E+02  1.21538E+04  4.46173E+03  5.78983E+03  5.55689E+02  8.65560E+03 -1.92824E+03
  1.64651E+04  3.15203E+03  1.82555E+04  1.40458E+04  1.09128E+04  2.87019E+04 -2.44639E+03  3.17222E+04
 -1.84295E+04  2.54710E+04 -3.00710E+04  1.23932E+04 -3.09076E+04 -2.69669E+03 -2.53033E+04 -1.76742E+04
 -1.21969E+04 -2.49978E+04  8.78012E+03 -2.30874E+04  1.97118E+04 -1.23215E+04  1.82096E+04  4.55046E+03
  7.72334E+03  1.33690E+04 -8.26630E+03  1.24612E+04 -1.50112E+04  2.57574E+03 -1.14088E+04 -9.28707E+03
 -7.02574E+02 -1.41517E+04  6.98360E+03 -1.07948E+04  9.67120E+03 -1.52944E+03  1.98665E+03  6.06201E+03
 -6.90942E+03  1.47159E+03 -5.49715E+03 -5.32151E+03  2.30022E+02 -1.23407E+04  8.94558E+03 -1.36217E+04
  1.48920E+04 -6.31272E+03  1.59257E+04  2.67749E+03  1.43748E+04  1.18204E+04  6.40329E+03  1.83035E+04
 -2.61791E+03  1.99849E+04 -1.25911E+04  1.26327E+04 -1.42238E+04  2.88526E+03 -9.80590E+03 -2.82791E+03
 -5.30755E+03 -4.74239E+03 -1.16685E+03  1.29653E+03 -2.41541E+03  2.55872E+03 -4.23227E+03  3.67737E+03
 -9.69361E+03 -4.57707E+02 -9.94966E+03 -8.79993E+03 -4.67787E+03 -1.37303E+04  4.19716E+03 -1.07445E+04
  9.11381E+03 -4.74409E+03  6.21042E+03  2.38426E+03  2.00667E+02  3.53392E+03 -4.73903E+03 -1.92982E+02
 -4.19779E+03 -6.69597E+03 -1.21558E+03 -9.68577E+03  5.35291E+03 -1.01727E+04  1.27852E+04 -5.22634E+03
  1.53091E+04  6.99047E+02  1.11059E+04  8.80730E+03  2.72042E+03  1.15684E+04 -6.51832E+03  1.01089E+04
 -8.82589E+03  3.47011E+03 -3.68710E+03 -1.75106E+03  2.11411E+03 -2.43782E+03  6.02512E+03 -1.12391E+03
  5.72608E+03  4.32652E+03  1.29743E+03  7.75659E+03 -5.14161E+03  8.44008E+03 -1.00642E+04  1.75883E+03
 -6.19199E+03 -5.24354E+03  4.38106E+02 -8.52615E+03  5.43052E+03 -4.65268E+03  4.81782E+03  1.59645E+03
  4.64181E+02  5.31752E+03 -5.88047E+03  6.06711E+03 -6.82680E+03  2.89592E+03 -6.77974E+03 -1.93549E+03
 -4.50399E+03 -8.64691E+03  1.81942E+03 -1.01821E+04  8.04904E+03 -6.08341E+03  9.11645E+03  1.86599E+03
  6.14034E+03  7.52639E+03 -3.62353E+02  8.67064E+03 -6.60172E+03  5.54866E+03 -6.76726E+03 -3.01406E+02
 -7.29013E+03 -6.77332E+03 -1.42112E+03 -7.08297E+03  3.49729E+03 -5.68506E+03  4.38612E+03 -3.47892E+03
  4.12662E+03  1.10992E+03  5.84041E+02  1.00451E+03  3.65410E+02 -7.92027E+02  8.62086E+02 -3.94018E+03
  6.01123E+03 -1.90834E+03  8.19664E+03  8.94434E+02  8.18252E+03  4.95371E+03  6.64041E+03  1.07011E+04
 -2.39248E+03  1.25972E+04 -1.11833E+04  9.49115E+03 -1.39781E+04  1.41243E+03 -1.10838E+04 -4.24691E+03
 -5.99747E+03 -8.77204E+03 -8.70243E+02 -8.12678E+03  2.70656E+03 -3.13962E+03  3.40127E+03 -2.56755E+03
  2.37287E+03 -2.19042E+03  2.62247E+03 -2.63579E+03  4.08492E+03 -2.11114E+03  5.30570E+03 -5.72058E+02
  6.21102E+03  1.57100E+03  2.62214E+03  4.42732E+03 -1.12036E+03  4.86504E+03 -6.47348E+03  3.74359E+03
 -6.89492E+03 -8.04954E+02 -3.83272E+03 -4.01798E+03 -9.71673E+01 -8.00686E+03  4.52937E+03 -8.15178E+03
  8.01594E+03 -4.41941E+03  9.68562E+03  8.13620E+02  6.79166E+03  6.45366E+03  1.64387E+03  9.01500E+03
 -3.10450E+03  7.98337E+03 -4.80015E+03  2.66639E+03 -3.01339E+03 -1.43359E+03 -8.52792E+02 -1.54901E+03
 -3.95922E+02  1.02531E+02 -1.61232E+03  2.33596E+03 -4.01907E+03  1.73289E+03 -5.65704E+03 -1.14331E+03
 -2.96746E+03 -5.72340E+03  5.14250E+02 -6.81325E+03  4.18150E+03 -6.67717E+03  5.63794E+03 -1.81514E+03
  6.45324E+03  3.15725E+03  3.31846E+03  5.16815E+03 -1.29515E+03  6.87350E+03 -4.39031E+03  4.25921E+03
 -6.21312E+03  7.07762E+02 -5.19792E+03 -4.26191E+03 -4.41368E+02 -5.12051E+03  2.31550E+03 -3.66513E+03
  4.17355E+03 -1.53451E+03  3.04283E+03  1.16193E+03  8.52274E+02  2.12198E+03  7.39800E+02  1.32142E+03
  2.20855E+03  5.25100E+02  1.75661E+03  1.69700E+03  1.95491E+03  2.37599E+03  2.03596E+03  2.72770E+03
 -1.91806E+03  4.99512E+03 -4.85894E+03  5.67693E+03 -6.34800E+03  1.96876E+03 -6.82106E+03 -1.49674E+03
 -3.42205E+03 -6.67785E+03  4.07796E+02 -6.89073E+03  3.35788E+03 -4.39434E+03  5.13853E+03 -1.19200E+03
  3.49651E+03  2.56709E+03  3.90880E+02  3.70352E+03 -1.09947E+03  1.92707E+03 -1.96055E+03 -5.38771E+02
 -8.87270E+02 -2.63696E+03  1.84994E+03 -1.75494E+03  2.35400E+03 -1.38675E+03  2.46443E+03  1.87235E+02
  9.81525E+02  9.12624E+02  1.15162E+03  2.26797E+02 -9.77882E+01  7.05226E+02  2.01675E+03 -3.20541E+02
  2.37173E+01 -1.34097E+02  3.11726E+03  8.43459E+02  9.83378E+02  3.16342E+03 -5.45424E+02  4.26864E+03
 -2.39567E+03  2.80931E+03 -3.68267E+03  1.71914E+03 -3.43390E+03 -1.43937E+03 -1.36774E+03 -2.06366E+03
  8.47286E+02 -1.89305E+03  1.99025E+03 -1.05505E+03  1.09726E+03  1.49606E+03 -7.32807E+02  1.59655E+03
 -2.59633E+03  1.07701E+03 -2.99588E+03 -1.86535E+03 -1.23698E+03 -3.56105E+03  7.02027E+02 -2.60260E+03
  1.82649E+03 -1.73056E+03  2.16494E+03  2.35375E+02  2.24242E+03 -1.15356E+02  6.32243E+02  1.87493E+03
 -7.74297E+02  9.94349E+02 -9.00187E+02 -2.43100E+02  1.06033E+03 -2.11659E+03  3.29979E+03 -1.81450E+03
  2.59613E+03 -5.49223E+02  3.30894E+03  2.18086E+03  1.98020E+03  4.01117E+03 -1.38115E+02  3.14231E+03
 -2.60005E+03  9.92630E+02 -3.30667E+03 -5.50231E+02 -1.67488E+03 -3.42435E+03  4.00518E+02 -1.65570E+03
  2.38107E+03 -7.81935E+02  1.08516E+03  3.29293E+02  2.07718E+02  1.99415E+03  4.35485E+02  2.33489E+03
 -1.14559E+03  1.86290E+03 -6.54746E+02  5.93997E+02 -1.27361E+02  1.04294E+03 -5.99115E+02  8.58307E+02
 -1.01021E+03  1.55942E+03 -2.63062E+03  1.25358E+03 -3.89420E+03  6.36626E+01 -3.92164E+03 -2.01014E+03
 -2.33342E+03 -4.12775E+03  5.84277E+02 -5.64802E+03  2.79657E+03 -4.42447E+03  5.02913E+03 -1.78437E+03
  4.41054E+03  2.15539E+02  2.49611E+03  2.48655E+03  1.08948E+02  3.63032E+03 -1.77245E+03  2.48088E+03
 -1.69021E+03  1.37662E+03 -2.38770E+02 -2.64069E+02 -3.40572E+02  4.78027E+02 -6.64792E+02  1.16102E+02
 -6.62923E+02  2.44410E+02 -8.30563E+02  5.37436E+02  1.59524E+02 -1.24270E+03 -4.18082E+02 -1.38290E+03
  1.85569E+03 -6.80868E+02  1.26587E+03 -6.18003E+01  1.99760E+03  2.18306E+03  8.64418E+02  2.91918E+03
 -1.91099E+03  3.75726E+03 -3.42255E+03  2.15626E+03 -4.14086E+03  1.04141E+01 -2.68619E+03 -2.48896E+03
 -1.30525E+03 -3.20580E+03  4.83004E+02 -2.54145E+03  1.92684E+03 -1.60640E+03  1.79176E+03 -8.89971E+01
  1.05064E+03  1.17175E+03 -1.79479E+02  4.80958E+02 -2.06018E+02 -4.37304E+02 -3.37187E+02 -1.89525E+02
  1.35490E+03 -3.36194E+02  5.94183E+02  5.30446E+02  3.34958E+02  1.53758E+03  7.13783E+02  1.16524E+03
 -1.23907E+03  1.22483E+03 -2.18145E+03  3.36204E+02 -1.41574E+03 -1.06203E+03  5.38305E+02 -2.34232E+03
  1.48844E+03 -1.78333E+03  1.33657E+03 -6.04350E+02  2.19207E+03  2.50825E+01  1.77991E+03  2.61026E+03
  5.83873E+02  1.71214E+03 -8.35274E+02  1.89077E+03 -1.27083E+03  1.28420E+03 -7.32221E+02  7.30163E+02
 -4.37868E+02  5.91652E+02 -9.45822E+02  1.14584E+02 -7.39873E+02 -1.07286E+02 -1.59392E+03 -6.86222E+02
 -1.76175E+03 -2.62044E+02 -5.02691E+02 -1.98093E+03  1.19028E+03 -2.41968E+03  1.29141E+03 -5.90636E+02
  2.09304E+03  2.20673E+02  5.01594E+02  7.39855E+02 -1.19334E+02  2.11729E+03 -1.51167E+03  1.36393E+03
