 $NMID ID='MM_0lb_SNR400_7hz_g40_54.RAW', FMTDAT='(8E13.5)'
 TRAMP=1., VOLUME=1. $END
  3.10939E+05 -7.71883E+01  3.37173E+05  2.50507E+05  8.48839E+04  3.38451E+05 -1.32626E+05  2.52456E+05
 -1.91452E+05  8.27633E+04 -1.12910E+05 -3.23183E+04 -6.02075E+02 -5.11303E+04  5.29524E+04 -8.80810E+02
  3.54643E+04  5.24416E+04 -1.63307E+04  7.66188E+04 -6.05442E+04  6.44372E+04 -8.49918E+04  3.25090E+04
 -8.24362E+04 -1.16067E+04 -5.74904E+04 -5.24666E+04 -1.53950E+04 -7.11030E+04  2.83185E+04 -4.65712E+04
  4.15151E+04  3.96397E+03  1.68419E+04  4.94268E+04 -3.55431E+04  4.87850E+04 -6.88467E+04  2.24445E+01
 -5.44465E+04 -5.79150E+04 -7.08287E+03 -7.95582E+04  3.57015E+04 -5.78291E+04  4.98313E+04 -1.76861E+04
  4.60789E+04  1.17422E+04  3.40247E+04  2.58996E+04  1.63951E+04  3.13368E+04 -6.00759E+03  2.73588E+04
 -2.32204E+04  1.22404E+04 -1.80816E+04 -6.37452E+03  6.59916E+03 -6.80647E+03  2.34080E+04  1.45698E+04
  7.37294E+03  3.80997E+04 -3.40858E+04  3.72436E+04 -6.56749E+04  1.06011E+03 -5.91030E+04 -4.58688E+04
 -1.30756E+04 -6.72446E+04  4.20481E+04 -4.83479E+04  6.25162E+04 -1.87813E+03  3.68480E+04  3.42979E+04
 -5.38914E+03  4.00688E+04 -3.21960E+04  1.93180E+04 -3.43882E+04 -2.79699E+03 -1.96253E+04 -1.25895E+04
 -9.19681E+03 -1.60069E+04  2.77267E+02 -2.08734E+04  9.04966E+03 -2.34282E+04  1.57305E+04 -1.31953E+04
  1.01261E+04  5.87604E+03 -1.08948E+04  1.23907E+04 -2.35040E+04 -6.24731E+03 -8.23289E+03 -3.82285E+04
  2.48227E+04 -4.77648E+04  5.33335E+04 -2.14395E+04  4.99897E+04  2.13033E+04  1.74873E+04  4.77461E+04
 -1.68355E+04  3.62985E+04 -2.86518E+04  1.67991E+03 -1.20529E+04 -2.99126E+04  2.22821E+04 -3.75067E+04
  4.51456E+04 -1.10305E+04  4.18068E+04  2.58227E+04  2.13947E+04  5.16792E+04 -8.14087E+03  5.79564E+04
 -3.64071E+04  3.89596E+04 -4.92124E+04  1.19679E+04 -4.87278E+04 -1.88839E+04 -2.63174E+04 -4.33136E+04
  8.38715E+03 -4.33113E+04  3.45748E+04 -1.76937E+04  3.33562E+04  1.01661E+04  6.01069E+03  2.17981E+04
 -1.39691E+04  1.02278E+04 -1.13619E+04 -7.77759E+03  5.08611E+03 -1.18614E+04  1.88122E+04  6.00939E+03
  1.54307E+04  2.23718E+04 -5.55737E+03  2.75886E+04 -2.50012E+04  1.51616E+04 -3.24177E+04 -1.98346E+03
 -2.70270E+04 -1.86894E+04 -1.28676E+04 -2.58061E+04  3.71600E+03 -2.74156E+04  2.11568E+04 -2.45732E+04
  3.31320E+04 -1.49489E+04  3.94481E+04  5.65800E+03  2.76075E+04  2.54425E+04  4.68570E+03  4.22853E+04
 -2.08100E+04  3.47264E+04 -3.05081E+04  1.30084E+04 -2.21050E+04 -9.39639E+03 -5.88828E+03 -1.25250E+04
 -3.95899E+01 -3.24777E+02 -7.99679E+03  8.92598E+03 -2.11463E+04  5.03361E+03 -2.11500E+04 -1.09195E+04
 -1.21229E+04 -2.54087E+04  6.82204E+03 -2.93832E+04  1.91341E+04 -2.14168E+04  2.45918E+04 -3.10695E+03
  1.45927E+04  1.70849E+04 -1.64277E+03  2.48701E+04 -1.82819E+04  1.42560E+04 -2.64126E+04 -5.03885E+03
 -1.75337E+04 -2.24156E+04 -2.73986E+03 -2.95226E+04  1.31090E+04 -2.46513E+04  2.36226E+04 -1.24799E+04
  2.27643E+04 -6.77952E+01  1.63705E+04  5.26315E+03  9.70055E+03  1.80829E+03  1.22428E+04 -1.93647E+03
  2.31998E+04  2.96652E+03  2.80457E+04  2.05358E+04  1.74219E+04  3.98885E+04 -3.28554E+03  4.73950E+04
 -2.70548E+04  3.98269E+04 -4.47509E+04  2.04780E+04 -4.97450E+04 -3.19271E+03 -3.77950E+04 -2.74072E+04
 -1.51820E+04 -4.01019E+04  1.46818E+04 -3.47485E+04  2.99166E+04 -1.50571E+04  2.54022E+04  9.28396E+03
  8.32941E+03  1.99949E+04 -1.25074E+04  1.67422E+04 -2.13929E+04  3.03473E+03 -1.72475E+04 -1.44072E+04
 -5.51292E+02 -1.99857E+04  1.13918E+04 -1.50636E+04  1.37357E+04 -1.74494E+03  4.54930E+03  9.26050E+03
 -9.25966E+03  4.88224E+03 -1.00290E+04 -7.78951E+03 -2.58571E+03 -2.06926E+04  1.30961E+04 -2.14423E+04
  2.50832E+04 -1.25098E+04  2.78852E+04  3.36198E+03  2.51130E+04  2.01157E+04  1.24221E+04  3.19835E+04
 -5.56010E+03  3.28658E+04 -2.30140E+04  2.06520E+04 -2.49827E+04  3.97519E+03 -1.64613E+04 -6.56891E+03
 -6.50632E+03 -8.18787E+03 -4.08970E+02  6.54357E+02 -3.16333E+03  4.19683E+03 -8.43161E+03  6.27499E+03
 -1.53553E+04 -1.40301E+03 -1.60315E+04 -1.24935E+04 -6.09048E+03 -2.06113E+04  6.49457E+03 -1.64300E+04
  1.40268E+04 -7.01362E+03  1.02172E+04  4.81384E+03 -5.26485E+02  6.95079E+03 -8.94770E+03  2.65074E+02
 -7.77554E+03 -1.07602E+04 -1.60022E+03 -1.82057E+04  1.02148E+04 -1.80158E+04  2.24892E+04 -9.74213E+03
  2.62856E+04  3.42956E+03  1.83978E+04  1.64170E+04  3.79117E+03  2.05860E+04 -1.08426E+04  1.75669E+04
 -1.40943E+04  5.16536E+03 -7.18506E+03 -3.97735E+03  1.56008E+03 -5.37526E+03  9.67854E+03 -8.20109E+02
  7.68273E+03  8.52745E+03  1.10667E+03  1.35148E+04 -1.04674E+04  1.35010E+04 -1.63162E+04  2.93544E+03
 -1.09878E+04 -9.26836E+03 -1.59091E+02 -1.49650E+04  1.02359E+04 -7.30585E+03  1.09864E+04  3.79175E+03
  2.54834E+03  1.09762E+04 -9.22069E+03  1.19986E+04 -1.53312E+04  5.96780E+03 -1.64084E+04 -5.69296E+03
 -9.09241E+03 -1.77175E+04  3.86213E+03 -2.04649E+04  1.79914E+04 -1.15993E+04  1.85182E+04  3.23992E+03
  1.20645E+04  1.44504E+04 -1.57708E+03  1.78067E+04 -1.30864E+04  1.01057E+04 -1.43452E+04 -1.46597E+03
 -1.16719E+04 -1.23813E+04 -2.69725E+03 -1.37424E+04  7.24350E+03 -1.02412E+04  8.86787E+03 -3.65689E+03
  4.56152E+03  3.09165E+03 -1.06945E+03  2.49260E+03 -9.37548E+02 -3.91239E+03  3.09845E+03 -9.20938E+03
  1.26113E+04 -5.99023E+03  1.86806E+04  2.00105E+03  1.83558E+04  1.39698E+04  1.16892E+04  2.41238E+04
 -6.26856E+03  2.77349E+04 -2.27733E+04  2.00733E+04 -2.93380E+04  3.29145E+03 -2.42019E+04 -1.09351E+04
 -1.18626E+04 -1.86308E+04 -9.51414E+02 -1.61292E+04  5.43851E+03 -9.89838E+03  6.25374E+03 -6.23330E+03
  4.34493E+03 -3.11559E+03  4.52028E+03 -4.77111E+03  5.91559E+03 -3.89769E+03  8.86508E+03 -1.72314E+03
  1.19814E+04  3.05286E+03  7.52818E+03  1.07917E+04 -2.33497E+03  1.31684E+04 -1.35250E+04  1.00775E+04
 -1.70562E+04 -5.29310E+02 -1.13451E+04 -1.10366E+04 -1.66280E+03 -1.93192E+04  1.01137E+04 -1.83778E+04
  1.91519E+04 -1.02510E+04  2.25257E+04  3.48680E+03  1.57950E+04  1.64865E+04  2.16254E+03  2.11565E+04
 -8.28795E+03  1.64575E+04 -1.20495E+04  6.99751E+03 -7.90169E+03 -2.05685E+03 -3.81010E+03 -2.14012E+03
 -1.65515E+03  6.40643E+01 -3.18364E+03  2.16568E+03 -7.86202E+03  2.28257E+03 -1.20446E+04 -1.79728E+03
 -8.10079E+03 -1.16608E+04  1.56698E+02 -1.84992E+04  1.08336E+04 -1.54955E+04  1.76033E+04 -4.93637E+03
  1.77436E+04  8.43632E+03  8.19478E+03  1.60652E+04 -3.44710E+03  1.78960E+04 -1.30232E+04  1.04620E+04
 -1.62224E+04  3.78679E+02 -1.28789E+04 -1.02368E+04 -1.11793E+03 -1.48930E+04  7.78732E+03 -1.11434E+04
  1.06057E+04 -2.70815E+03  7.71916E+03  3.52030E+03  2.29231E+03  4.88965E+03  1.14262E+03  2.38365E+03
  3.67126E+03  9.21526E+02  5.34097E+03  1.53997E+03  5.08601E+03  6.26587E+03  4.54558E+03  1.04042E+04
 -4.10004E+03  1.43254E+04 -1.32941E+04  1.39643E+04 -1.93828E+04  4.52800E+03 -1.89429E+04 -8.59818E+03
 -9.46977E+03 -1.83646E+04  2.93615E+03 -1.90770E+04  1.12931E+04 -1.34739E+04  1.40585E+04 -3.02009E+03
  1.17953E+04  6.54239E+03  2.97257E+03  1.05458E+04 -5.31227E+03  6.14701E+03 -6.96329E+03 -9.51538E+02
 -2.75074E+03 -8.33867E+03  3.62088E+03 -8.30261E+03  9.08685E+03 -3.50226E+03  8.36691E+03  2.29964E+03
  4.89910E+03  3.91325E+03  1.92436E+03  3.74440E+03 -5.99543E+02  2.88005E+03  2.04501E+03 -4.02024E+01
  2.24501E+03 -1.27473E+03  7.54445E+03  2.17615E+03  3.99838E+03  9.76314E+03 -2.22594E+03  1.32496E+04
 -8.59625E+03  9.84820E+03 -1.19654E+04  2.77291E+03 -1.02524E+04 -4.08540E+03 -4.08264E+03 -7.31870E+03
  1.17274E+03 -7.96749E+03  4.47823E+03 -3.75241E+03  4.53875E+03  3.10633E+03 -1.95735E+03  5.84835E+03
 -6.85958E+03  4.12239E+03 -9.61508E+03 -4.72443E+03 -5.14911E+03 -1.04275E+04  1.21079E+03 -1.04132E+04
  5.95168E+03 -6.04870E+03  7.48150E+03 -1.32953E+03  6.51256E+03  3.54627E+03  4.63200E+02  5.54364E+03
 -2.90313E+03  1.47471E+03 -3.76613E+03 -4.33128E+03  2.00427E+03 -7.73794E+03  9.51305E+03 -6.71773E+03
  1.20713E+04  4.79452E+02  1.23416E+04  8.36120E+03  4.07200E+03  1.30228E+04 -4.31298E+03  1.23557E+04
 -9.85506E+03  4.79958E+03 -1.12223E+04 -2.51484E+03 -6.13898E+03 -9.10657E+03  1.52000E+03 -8.13697E+03
  7.68107E+03 -4.19652E+03  6.95301E+03  3.14047E+03  2.20447E+03  5.97934E+03 -1.89904E+03  5.71370E+03
 -4.10588E+03  3.82675E+03 -3.48177E+03  2.18502E+03 -1.61483E+03  1.19354E+03 -1.90257E+03  2.54668E+03
 -2.99923E+03  4.85190E+03 -8.97295E+03  3.92697E+03 -1.20913E+04 -3.90266E+02 -1.50728E+04 -8.88163E+03
 -7.67317E+03 -1.71353E+04  3.64221E+03 -1.98742E+04  1.24682E+04 -1.53764E+04  1.90759E+04 -5.95603E+03
  1.84451E+04  3.79036E+03  1.03800E+04  1.23711E+04 -3.50005E+02  1.36976E+04 -5.51805E+03  9.99581E+03
 -8.71532E+03  4.13344E+03 -4.46459E+03 -2.14305E+03 -1.72690E+03 -9.18859E+02 -7.04580E+02 -1.35446E+02
 -1.98216E+03  5.45135E+02 -3.75176E+03  2.49940E+02 -1.68263E+03 -2.99859E+03  5.67353E+02 -4.41174E+03
  5.68083E+03 -3.63007E+03  8.01109E+03  4.42244E+02  9.14529E+03  7.21609E+03  3.10823E+03  1.44570E+04
 -5.36702E+03  1.54796E+04 -1.50843E+04  9.49830E+03 -1.63111E+04 -1.49432E+03 -1.29634E+04 -1.05579E+04
 -4.86479E+03 -1.43230E+04  3.94239E+03 -1.30798E+04  8.89615E+03 -6.44385E+03  8.67265E+03  7.72906E+02
  5.34604E+03  4.50759E+03 -3.20901E+02  4.45458E+03 -2.36263E+03 -9.48939E+02 -4.80595E+01 -3.88651E+03
  4.63475E+03 -2.12588E+03  5.83556E+03  1.57237E+03  4.02194E+03  5.74121E+03 -4.63324E+01  7.18486E+03
 -6.28127E+03  5.86252E+03 -1.07034E+04  8.87731E+02 -8.59421E+03 -6.51373E+03 -8.75751E+02 -1.19718E+04
  6.26235E+03 -9.67813E+03  1.13969E+04 -4.20587E+03  1.15922E+04  2.03500E+03  5.67553E+03  8.51483E+03
  5.70914E+02  8.97635E+03 -3.83737E+03  7.64489E+03 -5.93268E+03  4.96315E+03 -5.66018E+03  2.08300E+02
 -3.19881E+03 -3.26445E+02 -2.23701E+03  7.21068E+02 -5.30414E+03  1.73050E+03 -7.24186E+03 -2.14139E+03
 -6.84953E+03 -6.05984E+03 -2.92535E+03 -9.76153E+03  4.08253E+03 -1.01052E+04  9.15839E+03 -5.19909E+03
  9.76902E+03  1.42034E+03  5.18790E+03  6.86519E+03 -7.40453E+02  1.02064E+04 -8.20500E+03  6.26615E+03
