 $NMID ID='MM_0lb_SNR400_17hz_g45_18.RAW', FMTDAT='(8E13.5)'
 TRAMP=1., VOLUME=1. $END
  3.09997E+05  6.61162E+02  3.37499E+05  2.50305E+05  8.45967E+04  3.37331E+05 -1.31899E+05  2.50692E+05
 -1.89700E+05  8.24451E+04 -1.10998E+05 -3.31466E+04  1.70236E+03 -5.01898E+04  5.38014E+04  3.76284E+02
  3.52329E+04  5.30476E+04 -1.66774E+04  7.48949E+04 -6.07282E+04  6.33064E+04 -8.31938E+04  3.17746E+04
 -7.94226E+04 -1.18349E+04 -5.70052E+04 -5.03648E+04 -1.50409E+04 -6.89768E+04  2.68797E+04 -4.53201E+04
  3.94824E+04  4.04266E+03  1.60110E+04  4.71941E+04 -3.38484E+04  4.66128E+04 -6.55509E+04 -1.10565E+03
 -5.23597E+04 -5.57359E+04 -6.23987E+03 -7.52812E+04  3.27634E+04 -5.40468E+04  4.69536E+04 -1.66881E+04
  4.17251E+04  1.11785E+04  3.13329E+04  2.40523E+04  1.58301E+04  2.81970E+04 -5.38987E+03  2.65542E+04
 -2.16680E+04  1.24064E+04 -1.90915E+04 -4.90617E+03  4.70333E+03 -7.85867E+03  2.15585E+04  1.06787E+04
  7.66912E+03  3.34203E+04 -3.13302E+04  3.39469E+04 -6.10854E+04  2.66570E+03 -5.59371E+04 -4.18657E+04
 -1.22613E+04 -6.18979E+04  3.85475E+04 -4.38341E+04  5.59150E+04 -1.78599E+03  3.22341E+04  3.10657E+04
 -5.85994E+03  3.39384E+04 -2.83961E+04  1.42072E+04 -2.84792E+04 -5.32339E+03 -1.52423E+04 -1.03922E+04
 -7.26394E+03 -1.11655E+04 -5.96520E+02 -1.64857E+04  6.35424E+03 -2.25973E+04  1.49505E+04 -1.39506E+04
  1.24030E+04  4.74415E+03 -6.67217E+03  1.27674E+04 -1.95416E+04 -3.18964E+03 -8.37213E+03 -3.09586E+04
  2.13513E+04 -4.15528E+04  4.54818E+04 -1.89363E+04  4.25922E+04  1.83745E+04  1.44056E+04  4.19890E+04
 -1.51809E+04  3.15413E+04 -2.39775E+04  6.71687E+02 -8.35378E+03 -2.63366E+04  2.06312E+04 -3.20029E+04
  3.87236E+04 -7.49247E+03  3.25492E+04  2.32111E+04  1.60170E+04  4.36262E+04 -8.18139E+03  4.62728E+04
 -2.89554E+04  3.03477E+04 -3.88959E+04  8.52409E+03 -3.93823E+04 -1.54161E+04 -2.23542E+04 -3.49571E+04
  7.03363E+03 -3.53437E+04  2.98814E+04 -1.29781E+04  2.67909E+04  1.14979E+04  3.54786E+03  1.85210E+04
 -1.32327E+04  7.25473E+03 -9.54272E+03 -7.56728E+03  5.81906E+03 -1.01684E+04  1.77821E+04  6.10464E+03
  1.23348E+04  2.14730E+04 -6.76247E+03  2.38929E+04 -2.12665E+04  9.42913E+03 -2.59822E+04 -5.94298E+03
 -1.80025E+04 -1.64935E+04 -6.73012E+03 -1.81025E+04  3.86258E+03 -1.55226E+04  1.33291E+04 -1.51164E+04
  2.24873E+04 -1.21243E+04  2.94943E+04  1.03417E+03  2.16022E+04  1.77849E+04  4.15414E+03  3.35598E+04
 -1.59822E+04  2.80952E+04 -2.64375E+04  9.88956E+03 -1.95544E+04 -1.04798E+04 -4.34021E+03 -1.40486E+04
  2.18452E+03 -3.54383E+03 -3.10521E+03  5.93326E+03 -1.38118E+04  5.30847E+03 -1.40440E+04 -5.71869E+03
 -8.62011E+03 -1.65237E+04  4.38844E+03 -2.02800E+04  1.34449E+04 -1.53558E+04  1.49904E+04 -1.74426E+03
  1.00023E+04  1.13678E+04 -6.71017E+01  1.65327E+04 -1.09901E+04  9.26155E+03 -1.62720E+04 -3.06991E+03
 -1.19608E+04 -1.48765E+04 -1.75609E+03 -2.01872E+04  9.07352E+03 -1.62460E+04  1.67422E+04 -7.79849E+03
  1.51717E+04  6.02075E+02  1.09989E+04  3.86372E+03  4.98454E+03  6.20257E+02  8.41498E+03 -1.77022E+03
  1.47309E+04  2.75146E+03  1.59466E+04  1.28399E+04  9.48334E+03  2.61948E+04 -3.25243E+03  2.83511E+04
 -1.69935E+04  2.17387E+04 -2.65781E+04  1.12111E+04 -2.73436E+04 -1.84074E+03 -2.36609E+04 -1.54593E+04
 -1.07205E+04 -2.19251E+04  8.05723E+03 -2.06945E+04  1.77828E+04 -1.05297E+04  1.61864E+04  4.39711E+03
  6.35019E+03  1.26671E+04 -7.26006E+03  1.07548E+04 -1.40960E+04  2.63895E+03 -1.02995E+04 -8.60664E+03
 -5.55428E+02 -1.34550E+04  6.54230E+03 -1.02031E+04  8.74552E+03 -1.45032E+03  1.86459E+03  5.42545E+03
 -5.93474E+03  1.61019E+03 -3.86692E+03 -4.82918E+03  1.17946E+02 -1.08139E+04  8.30533E+03 -1.09456E+04
  1.36475E+04 -5.53499E+03  1.34329E+04  3.17215E+03  1.16780E+04  1.07210E+04  5.54824E+03  1.56751E+04
 -1.91588E+03  1.78068E+04 -1.03704E+04  1.12370E+04 -1.23517E+04  2.91958E+03 -9.43696E+03 -2.49237E+03
 -4.49517E+03 -3.61287E+03 -8.60060E+02  1.23231E+03 -1.91047E+03  2.12498E+03 -3.69484E+03  4.17449E+03
 -8.34112E+03 -1.25481E+03 -9.53776E+03 -7.50496E+03 -4.13056E+03 -1.26185E+04  3.49639E+03 -9.73713E+03
  7.83080E+03 -4.43395E+03  5.92873E+03  2.65687E+03  8.16382E+02  3.17396E+03 -3.97317E+03  1.80604E+02
 -3.32582E+03 -5.51101E+03 -6.83471E+02 -8.35178E+03  4.62306E+03 -8.77590E+03  1.06697E+04 -4.82429E+03
  1.27345E+04  5.66609E+02  9.95105E+03  6.52962E+03  2.13659E+03  9.64368E+03 -5.39877E+03  9.31060E+03
 -7.70861E+03  2.61905E+03 -4.43617E+03 -1.36959E+03  1.34492E+03 -1.79179E+03  4.85405E+03 -9.81592E+02
  3.73653E+03  4.54413E+03  3.00649E+02  7.12318E+03 -5.09474E+03  7.07731E+03 -8.94847E+03  2.38642E+03
 -5.51718E+03 -3.95790E+03  2.02547E+02 -7.11746E+03  4.39858E+03 -3.65910E+03  4.24445E+03  1.20568E+03
  7.05975E+02  3.69202E+03 -4.97374E+03  4.93311E+03 -6.09478E+03  2.55171E+03 -5.41863E+03 -1.92806E+03
 -3.53121E+03 -6.97076E+03  1.62773E+03 -7.74962E+03  6.96519E+03 -5.54056E+03  7.56280E+03  1.19779E+03
  4.84687E+03  5.92204E+03 -1.80495E+02  8.22825E+03 -5.32531E+03  4.94193E+03 -5.82273E+03 -4.81699E+02
 -6.41486E+03 -5.68433E+03 -1.51302E+03 -5.75001E+03  2.63596E+03 -4.88317E+03  3.47118E+03 -3.63966E+03
  2.65609E+03  9.33540E+02 -1.52812E+01  1.23559E+03  3.19253E+02 -8.34664E+02 -1.00661E+02 -2.88244E+03
  4.22413E+03 -8.09909E+02  6.12123E+03  3.15930E+02  6.54970E+03  3.70631E+03  5.82054E+03  8.76655E+03
 -1.20905E+03  1.01260E+04 -8.91195E+03  7.49064E+03 -1.13576E+04  1.80533E+03 -9.10252E+03 -3.29662E+03
 -4.66735E+03 -7.05164E+03 -1.89228E+02 -6.34193E+03  2.39384E+03 -2.68684E+03  1.67709E+03 -2.75822E+03
  1.22588E+03 -1.65716E+03  2.41238E+03 -2.55364E+03  3.50743E+03 -1.40682E+03  3.91770E+03  4.04866E+02
  5.27162E+03  1.08694E+03  1.19568E+03  4.15929E+03 -1.93757E+03  3.55696E+03 -4.93637E+03  3.51948E+03
 -5.88446E+03 -1.41633E+03 -2.97341E+03 -4.15314E+03 -1.46265E+02 -6.11269E+03  3.27910E+03 -6.01211E+03
  5.91777E+03 -3.61329E+03  8.36063E+03  5.75098E+02  5.71139E+03  5.44975E+03  1.35582E+03  7.37411E+03
 -2.21368E+03  6.02924E+03 -4.06545E+03  1.76404E+03 -2.05002E+03 -9.87224E+02 -1.07531E+03 -1.09916E+03
 -9.02580E+02  1.18757E+01 -8.86329E+02  2.28969E+03 -3.43180E+03  1.05219E+03 -3.98290E+03 -6.06019E+02
 -2.09933E+03 -5.35318E+03  6.41748E+02 -6.04932E+03  3.56254E+03 -5.76532E+03  4.32954E+03 -1.26083E+03
  4.93924E+03  2.62400E+03  1.79771E+03  3.88968E+03 -1.23332E+03  5.26805E+03 -2.80495E+03  2.80285E+03
 -4.44466E+03  8.46811E+02 -3.93998E+03 -3.33464E+03 -8.78114E+02 -4.36130E+03  2.11863E+03 -3.06149E+03
  3.79720E+03 -1.37087E+03  2.10991E+03  5.66058E+02  5.81240E+02  1.92208E+03  3.50921E+02  2.29287E+02
  1.68945E+03  1.12436E+03  1.23221E+03  9.59462E+02  7.66405E+02  2.67184E+03  1.67235E+03  2.14759E+03
 -1.59470E+03  4.09207E+03 -3.15755E+03  4.85712E+03 -3.80027E+03  1.39530E+03 -5.12704E+03 -8.64469E+02
 -2.22290E+03 -4.69994E+03  1.02788E+03 -5.00877E+03  2.62803E+03 -2.88400E+03  3.80842E+03 -1.13863E+03
  3.22161E+03  1.98842E+03  2.90577E+02  2.58512E+03 -1.68782E+03  1.55241E+03 -1.23308E+03 -8.53142E+01
 -4.30992E+02 -1.41131E+03  1.39424E+03 -2.05832E+03  1.59415E+03 -7.62872E+02  1.47605E+03  2.50029E+01
  1.19333E+03  1.20778E+02  1.03919E+03  3.09116E+02 -2.29611E+02  8.46396E+02  1.40563E+03 -5.22740E+02
 -1.14444E+02 -1.76585E+02  2.18729E+03  8.18762E+02  1.08347E+02  3.34096E+03 -5.01143E+02  3.73630E+03
 -2.19971E+03  1.62992E+03 -3.06502E+03  3.57519E+02 -2.23684E+03 -8.65550E+02 -6.81617E+02 -1.46945E+03
  1.03952E+03 -1.25010E+03  1.45182E+03 -4.84109E+02  9.48827E+02  1.67624E+03 -8.23246E+02  1.24082E+03
 -2.40698E+03  6.51212E+02 -1.42568E+03 -1.31107E+03 -7.71891E+02 -2.59584E+03  2.77881E+02 -2.20943E+03
  1.38309E+03 -8.03429E+02  8.71292E+02  3.06320E+02  1.67447E+03  6.32196E+01  9.38324E+01  1.38122E+03
 -9.87994E+01 -4.26574E+02 -1.09257E+03 -1.99824E+02  7.59570E+02 -1.22654E+03  3.04193E+03 -9.37759E+02
  1.67506E+03  3.60538E+02  3.64735E+03  9.94366E+02  7.63490E+02  2.30070E+03 -6.17373E+02  2.16096E+03
 -2.10698E+03  6.78160E+02 -1.86737E+03 -3.97328E+02 -9.93252E+02 -2.13128E+03  8.57879E+02 -1.12055E+03
  2.28744E+03 -1.33724E+03  1.10749E+03  5.02657E+02  3.10465E+02  1.04043E+03  4.05482E+02  1.13887E+03
 -2.06601E+02  1.51293E+03 -8.78092E+02  5.48081E+02  9.00748E+01  5.66170E+02 -9.19234E+02  2.95717E+02
 -2.79410E+02  1.51209E+03 -1.92408E+03  1.00846E+03 -2.23169E+03  4.98744E+01 -2.89945E+03 -1.57240E+03
 -2.00048E+03 -3.46145E+03  6.34201E+02 -3.48605E+03  2.01054E+03 -3.18989E+03  3.17051E+03 -1.95624E+03
  3.27268E+03  2.94176E+02  1.64225E+03  2.28113E+03 -8.20941E+02  2.17199E+03 -1.21319E+03  1.68148E+03
 -8.72016E+02  9.86561E+02 -7.84571E+02 -3.24436E+02 -5.05917E+02  3.66738E+01 -1.17389E+03 -1.38377E+01
 -1.17956E+03 -8.54638E+01 -1.09466E+03  4.53609E+02  4.90947E+02 -9.26461E+02 -8.70268E+02 -4.95310E+02
  1.48092E+03 -1.16958E+03  5.20512E+02  5.26388E+00  1.18323E+03  1.53074E+03 -5.68174E+02  1.16147E+03
 -6.29659E+02  2.32494E+03 -2.28810E+03  1.81291E+03 -2.40889E+03  5.76869E+01 -1.29700E+03 -2.31738E+03
 -1.09188E+03 -1.18585E+03  3.96884E+02 -1.49199E+03  9.84432E+02 -9.26526E+02  1.01143E+03  1.93584E+02
  1.43091E+03  7.72354E+02  9.91291E+01 -3.15112E+01 -2.48986E+02  1.00624E+02  6.14261E+02 -2.93709E+02
  7.86690E+02 -1.26421E+02  1.01753E+02  6.09369E+02  3.13503E+02  7.93976E+02  3.78054E+02  9.13841E+02
 -8.40782E+02  7.97612E+02 -7.79342E+02 -9.66975E+01 -1.04217E+03 -9.20732E+02 -8.19726E+01 -1.14199E+03
  1.07436E+03 -1.79355E+03  1.40373E+03  5.24837E+02  1.75037E+03 -5.14598E+02  8.97365E+02  9.06380E+02
  7.11112E+02  1.48898E+03 -1.07547E+02  7.73048E+02 -6.11680E+02  1.28057E+03 -5.79090E+02  3.51957E+01
 -1.27798E+02  2.16713E+02 -9.86224E+02  6.04858E+02 -9.33219E+02  5.64144E+02 -1.78186E+03 -6.94805E+01
 -1.16417E+03  7.37557E+02 -9.83540E+02 -1.35157E+03  9.55351E+02 -1.82106E+03  1.49779E+03 -3.60101E+02
  7.70816E+02 -3.10939E+02 -2.89432E+02  4.53603E+02 -4.76641E+02  1.02196E+03 -2.44386E+02  1.41654E+03
