 $NMID ID='MM_0lb_SNR400_20hz_g40_17.RAW', FMTDAT='(8E13.5)'
 TRAMP=1., VOLUME=1. $END
  3.09250E+05  2.62088E+02  3.37334E+05  2.50541E+05  8.43204E+04  3.37196E+05 -1.32500E+05  2.49487E+05
 -1.89538E+05  8.17955E+04 -1.10643E+05 -3.26042E+04  1.48319E+03 -4.97629E+04  5.41037E+04  2.94346E+02
  3.51820E+04  5.27700E+04 -1.68220E+04  7.42561E+04 -5.98235E+04  6.22355E+04 -8.23750E+04  3.13024E+04
 -7.84902E+04 -1.10928E+04 -5.58307E+04 -4.91522E+04 -1.49369E+04 -6.72886E+04  2.63183E+04 -4.45941E+04
  3.82557E+04  3.73453E+03  1.48818E+04  4.66722E+04 -3.33299E+04  4.56502E+04 -6.41839E+04 -1.11374E+03
 -5.08920E+04 -5.55152E+04 -5.69885E+03 -7.37750E+04  3.26389E+04 -5.21590E+04  4.49714E+04 -1.62180E+04
  4.10297E+04  1.07856E+04  3.02511E+04  2.35646E+04  1.60339E+04  2.73380E+04 -4.55656E+03  2.67982E+04
 -2.11384E+04  1.32663E+04 -1.91739E+04 -3.67898E+03  3.53876E+03 -7.40160E+03  2.07987E+04  1.03805E+04
  7.77611E+03  3.21507E+04 -2.95713E+04  3.33108E+04 -5.99524E+04  2.11987E+03 -5.44965E+04 -4.01575E+04
 -1.21314E+04 -5.95075E+04  3.70983E+04 -4.23526E+04  5.41159E+04 -1.44065E+03  3.04089E+04  2.93821E+04
 -6.83739E+03  3.18515E+04 -2.80596E+04  1.19656E+04 -2.64824E+04 -5.92404E+03 -1.29487E+04 -9.58717E+03
 -7.00964E+03 -1.02333E+04 -1.46094E+03 -1.56313E+04  5.99623E+03 -2.21078E+04  1.45926E+04 -1.42097E+04
  1.25888E+04  3.96621E+03 -4.93113E+03  1.28645E+04 -1.84564E+04 -1.59903E+03 -8.13604E+03 -2.87942E+04
  2.02493E+04 -3.88344E+04  4.36328E+04 -1.83239E+04  4.05320E+04  1.77024E+04  1.36501E+04  4.06545E+04
 -1.48723E+04  3.01309E+04 -2.22439E+04  8.34157E+02 -7.45190E+03 -2.58683E+04  2.05132E+04 -3.01940E+04
  3.64201E+04 -6.60105E+03  2.92554E+04  2.17273E+04  1.44492E+04  4.06004E+04 -7.50164E+03  4.26054E+04
 -2.70227E+04  2.74049E+04 -3.48820E+04  7.36660E+03 -3.61781E+04 -1.44010E+04 -1.98913E+04 -3.25191E+04
  7.05298E+03 -3.20321E+04  2.83989E+04 -1.19486E+04  2.64404E+04  1.03310E+04  2.95536E+03  1.71825E+04
 -1.31994E+04  7.16046E+03 -8.71660E+03 -7.23756E+03  5.76609E+03 -9.34334E+03  1.66679E+04  6.76637E+03
  1.19952E+04  2.12536E+04 -6.81347E+03  2.27988E+04 -2.07998E+04  7.98610E+03 -2.37901E+04 -7.27231E+03
 -1.53168E+04 -1.60979E+04 -4.29379E+03 -1.50296E+04  3.50324E+03 -1.22867E+04  1.09783E+04 -1.24356E+04
  1.91896E+04 -1.07654E+04  2.59692E+04 -1.61755E+02  2.01694E+04  1.46933E+04  3.79993E+03  3.06145E+04
 -1.54313E+04  2.62043E+04 -2.48660E+04  8.98646E+03 -1.92237E+04 -1.05625E+04 -3.88738E+03 -1.41936E+04
  2.81751E+03 -4.08983E+03 -1.87720E+03  4.22928E+03 -1.15255E+04  5.19865E+03 -1.19000E+04 -4.35049E+03
 -7.85683E+03 -1.37318E+04  4.30768E+03 -1.72790E+04  1.12520E+04 -1.25418E+04  1.32003E+04 -1.45727E+03
  7.64290E+03  1.06059E+04 -9.54216E+02  1.43791E+04 -9.00011E+03  8.07891E+03 -1.38180E+04 -3.19986E+03
 -1.03145E+04 -1.31222E+04 -1.84702E+03 -1.71596E+04  7.79435E+03 -1.34323E+04  1.53935E+04 -6.33543E+03
  1.30974E+04  6.26008E+02  9.99521E+03  3.97362E+03  4.51483E+03  9.24899E+01  6.02757E+03 -8.18417E+02
  1.22834E+04  2.45601E+03  1.29831E+04  1.15292E+04  7.64002E+03  2.23509E+04 -3.07307E+03  2.37852E+04
 -1.42829E+04  1.72839E+04 -2.11738E+04  8.38127E+03 -2.14681E+04 -1.68764E+03 -1.91497E+04 -1.19059E+04
 -9.67885E+03 -1.74447E+04  5.44918E+03 -1.66349E+04  1.48937E+04 -9.84662E+03  1.39087E+04  3.22401E+03
  6.08315E+03  1.03324E+04 -6.16261E+03  9.55700E+03 -1.24170E+04  2.64815E+03 -9.20761E+03 -7.11841E+03
 -3.36427E+02 -1.10280E+04  5.56904E+03 -8.50511E+03  6.78588E+03 -1.35701E+03  1.05074E+03  4.38459E+03
 -5.61632E+03  1.37426E+03 -3.02528E+03 -4.23347E+03  1.15981E+03 -8.98194E+03  7.08056E+03 -8.46964E+03
  1.09885E+04 -3.61589E+03  9.80409E+03  2.54808E+03  8.26948E+03  8.66039E+03  3.72007E+03  1.20995E+04
 -1.27791E+03  1.38232E+04 -8.20094E+03  9.21318E+03 -9.62537E+03  2.78030E+03 -7.37563E+03 -1.16017E+03
 -3.94022E+03 -2.81536E+03 -6.58334E+02  1.75052E+03 -2.11443E+03  1.57413E+03 -2.71595E+03  3.51141E+03
 -7.17778E+03 -6.93990E+02 -7.47003E+03 -6.79696E+03 -3.11839E+03 -1.04312E+04  2.68246E+03 -7.34077E+03
  6.83011E+03 -3.69950E+03  4.99013E+03  1.99148E+03  6.90331E+02  2.94931E+03 -3.36215E+03 -7.55038E+01
 -2.82164E+03 -4.02504E+03 -1.50956E+02 -5.87100E+03  3.02767E+03 -7.00028E+03  7.89438E+03 -3.72235E+03
  1.01314E+04  4.39510E+02  7.84232E+03  4.89488E+03  1.17604E+03  6.91513E+03 -4.24182E+03  7.46453E+03
 -5.99328E+03  2.65830E+03 -3.26844E+03 -7.65302E+02  9.77436E+02 -1.39084E+03  4.35237E+03 -7.76860E+02
  3.50919E+03  2.96552E+03  9.03346E+02  4.97581E+03 -3.86118E+03  5.31357E+03 -6.75753E+03  1.43755E+03
 -4.15107E+03 -3.36653E+03  4.72989E+02 -5.55119E+03  3.25105E+03 -2.61664E+03  2.62975E+03  1.29589E+03
  4.54055E+02  2.56731E+03 -3.29017E+03  4.03119E+03 -4.00449E+03  2.33726E+03 -3.51337E+03 -2.68873E+01
 -2.33232E+03 -4.65374E+03  1.00102E+03 -5.54917E+03  4.91200E+03 -3.79263E+03  5.27208E+03  1.44506E+03
  4.09453E+03  4.58794E+03 -1.91490E+02  6.70201E+03 -4.42024E+03  3.20895E+03 -4.31383E+03  3.18295E+02
 -5.26569E+03 -4.37654E+03 -1.50735E+03 -4.35579E+03  2.10862E+03 -3.68914E+03  1.88346E+03 -2.71247E+03
  2.89629E+03 -1.38858E+02  2.54360E+01  1.30545E+03  8.09684E+02  1.39204E+02  3.36512E+01 -8.74176E+02
  3.73945E+03 -1.31745E+01  4.00442E+03  3.89174E+02  4.09071E+03  2.44232E+03  4.48925E+03  6.40759E+03
 -3.89968E+02  7.06364E+03 -6.12728E+03  5.11532E+03 -8.45791E+03  1.49000E+03 -6.29246E+03 -1.64955E+03
 -3.82906E+03 -5.19297E+03 -7.24132E+02 -4.46783E+03  1.65263E+03 -1.16091E+03  1.29707E+03 -1.61741E+03
  1.07516E+03 -1.45182E+03  2.17452E+03 -2.78191E+03  3.31890E+03 -9.80881E+02  2.71561E+03  3.56847E+02
  3.73154E+03  1.03274E+03  5.62770E+02  2.90137E+03 -1.41942E+03  1.92481E+03 -3.21317E+03  1.60294E+03
 -4.08183E+03 -6.42442E+02 -1.13279E+03 -2.89095E+03  8.50901E+02 -3.71329E+03  2.49057E+03 -4.22318E+03
  4.01079E+03 -2.05072E+03  5.70325E+03 -2.63712E+02  4.50787E+03  3.31923E+03  1.26469E+03  4.93217E+03
 -1.58202E+03  4.90250E+03 -2.41442E+03  1.32566E+03 -1.52632E+03 -1.19862E+03 -1.98129E+02 -4.67152E+02
 -6.68216E+02  5.64055E+02 -3.19450E+02  1.67374E+03 -2.45242E+03  1.18370E+03 -3.72415E+03 -4.22919E+02
 -4.32386E+02 -3.36342E+03  8.47770E+02 -3.28160E+03  1.76245E+03 -3.42104E+03  3.02021E+03 -1.06109E+03
  3.36087E+03  2.07412E+03  1.37110E+03  2.28530E+03 -7.54705E+02  3.43282E+03 -2.26891E+03  1.84403E+03
 -3.00461E+03  8.38946E+02 -3.26700E+03 -2.01384E+03  1.79117E+02 -2.25436E+03  1.34873E+03 -1.72683E+03
  2.13925E+03 -1.49667E+03  1.90889E+03  1.66821E+02  6.17169E+02  1.76211E+03  6.00391E+02  6.16291E+02
  1.61908E+03  3.70560E+02  1.40503E+03  1.38820E+03  1.08452E+03  1.73395E+03  1.11415E+03  8.21450E+02
 -1.25366E+03  2.16498E+03 -1.83253E+03  3.62326E+03 -2.47824E+03  1.30423E+03 -2.98187E+03 -1.52910E+02
 -9.57230E+02 -2.73550E+03  7.31215E+02 -3.72214E+03  1.21038E+03 -1.90458E+03  2.49458E+03 -7.61185E+02
  1.81772E+03  1.08427E+03 -2.26525E+02  1.50662E+03 -5.67615E+02  1.09447E+03 -5.86388E+02 -2.67868E+01
  2.82885E+02 -1.07640E+03  1.27779E+03 -1.19568E+03  1.81108E+03 -4.28773E+02  7.96526E+02  1.29515E+02
  6.91799E+02  8.96505E+01  9.97972E+02 -5.81896E+02 -4.94406E+02  8.86002E+02  1.45262E+03 -4.36891E+02
  1.46791E+02 -9.40083E+01  1.34165E+03  7.74258E+02 -1.49690E+02  2.04375E+03 -1.79332E+02  2.41602E+03
 -1.33033E+03  3.81842E+02 -1.42336E+03  4.92206E+02 -1.33263E+03 -3.59623E+02 -2.00376E+02 -1.21680E+03
  4.63128E+02 -5.42790E+02  2.68644E+02 -8.18106E+02  7.87261E+02  1.31893E+03 -8.31307E+02  1.21732E+03
 -1.85926E+03  6.23283E+02 -1.21335E+03 -7.98565E+02 -9.19623E+02 -2.08528E+03  1.10329E+02 -1.29083E+03
  2.36263E+01 -9.06910E+01  2.48103E+02  3.32245E+02  1.20185E+03 -1.05753E+02  1.33220E+02  9.19468E+02
 -1.44335E+02 -1.30916E+02 -9.96063E+02  9.49476E+00  6.94379E+02  6.03561E+01  1.31477E+03 -6.59063E+02
  8.23908E+02  1.09635E+02  2.13942E+03  4.11903E+02  7.69475E+02  1.02498E+03 -2.52314E+01  1.26709E+03
 -1.41234E+03 -5.91894E+02 -1.16670E+03  1.53842E+02  3.55743E+01 -1.14635E+03  2.73229E+02 -1.72039E+02
  1.11381E+03 -9.23046E+02  3.10096E+02  1.34100E+02  3.22553E+01  1.44479E+03  8.96976E+01  7.15855E+02
 -1.64717E+02  6.69289E+02 -3.22023E+02  4.71314E+02  4.78148E+01  4.63069E+02 -4.99242E+02  9.69606E+02
 -4.00841E+01  1.15808E+03 -1.68099E+03  1.55909E+02 -1.08520E+03  5.52958E+02 -2.24999E+03 -7.98461E+02
 -5.49956E+02 -1.27794E+03  2.25746E+02 -2.77545E+03  7.09101E+02 -2.37973E+03  1.86860E+03 -9.22679E+02
  1.90269E+03 -6.52462E+01  5.50477E+02  1.04276E+03 -6.37804E+02  1.35346E+03 -5.76614E+00  3.97958E+02
 -6.27953E+02  7.47601E+02 -4.08046E+02  3.66297E+02 -2.23730E+02  2.92064E+02 -2.61813E+02  2.15373E-01
 -1.13185E+03 -3.31606E+02 -9.79553E+02 -2.72484E+02 -8.67080E+01 -5.45783E+02 -2.38962E+02 -7.52614E+02
  1.21166E+03 -4.15141E+02  2.86593E+02  2.31465E+02  1.03062E+03  5.32829E+02 -1.35349E+03  1.33143E+03
 -8.52625E+02  2.24408E+03 -6.79831E+02  1.44740E+03 -1.00883E+03  2.43943E+02 -5.03868E+02 -1.39989E+03
 -4.85868E+02 -7.92369E+02  3.11698E+02 -6.49594E+02  3.79266E+02 -6.98263E+02  5.93558E+02 -3.14015E+01
  5.31075E+02  5.51482E+02  3.84782E+02  6.71482E+02 -1.60090E+02 -2.40176E+02 -3.28968E+02 -1.60159E+02
  7.21638E+01 -1.51073E+02  3.27691E+02  5.16165E+02 -1.29987E+02  1.89526E+02 -2.03965E+01  2.29817E+02
 -2.50117E+02 -2.62673E-01  2.98685E+02 -2.46387E+02 -1.93578E+02 -5.86306E+01  9.38215E+01 -5.47086E+02
  7.08949E+02 -6.53010E+02  2.76427E+02 -2.61672E+02  5.59235E+02 -8.89507E+02  3.02563E+02  8.11460E+02
  2.64954E+02  1.44915E+02  2.54144E+02  8.42282E+00 -3.43301E+02  7.02814E+02 -2.20032E+02  3.97916E+02
 -3.14569E+02  1.50807E+02 -5.76468E+02  3.64468E+02 -1.05670E+03  4.43649E+02 -1.04900E+03 -3.17728E+02
 -1.03037E+03  3.99344E+02 -9.57474E+01 -6.73880E+02  7.58163E+02 -1.23206E+03  5.06253E+02 -5.91565E+02
  8.66687E+02  7.32793E+02 -8.71115E+02  1.97845E+02  4.38737E+02  6.48201E+02  6.96624E+01  6.50317E+02
