 $NMID ID='MM_0lb_SNR400_10hz_g60_35.RAW', FMTDAT='(8E13.5)'
 TRAMP=1., VOLUME=1. $END
  3.09812E+05  1.17064E+03  3.38465E+05  2.50447E+05  8.48159E+04  3.39385E+05 -1.32251E+05  2.52164E+05
 -1.90468E+05  8.47479E+04 -1.13055E+05 -3.24358E+04  7.30782E+01 -5.08216E+04  5.39957E+04 -5.91216E+02
  3.51269E+04  5.30479E+04 -1.59194E+04  7.56165E+04 -6.16348E+04  6.42257E+04 -8.49481E+04  3.27322E+04
 -8.26459E+04 -1.21626E+04 -5.79932E+04 -5.25839E+04 -1.54998E+04 -7.11304E+04  2.84485E+04 -4.71748E+04
  4.13215E+04  3.70931E+03  1.67109E+04  4.87778E+04 -3.48911E+04  4.74394E+04 -6.80327E+04 -1.68011E+02
 -5.42666E+04 -5.79623E+04 -6.72346E+03 -7.92541E+04  3.45108E+04 -5.70551E+04  4.89812E+04 -1.84929E+04
  4.55053E+04  1.15593E+04  3.34732E+04  2.66352E+04  1.57252E+04  3.13961E+04 -6.39327E+03  2.74729E+04
 -2.25866E+04  1.20060E+04 -1.76562E+04 -5.91765E+03  7.45540E+03 -7.65911E+03  2.38262E+04  1.43402E+04
  6.86102E+03  3.71925E+04 -3.44657E+04  3.67978E+04 -6.59843E+04  2.12623E+03 -5.90290E+04 -4.45748E+04
 -1.26373E+04 -6.60212E+04  4.17902E+04 -4.72541E+04  6.16768E+04 -2.50249E+03  3.64278E+04  3.43483E+04
 -5.56060E+03  4.02664E+04 -3.20961E+04  1.97418E+04 -3.36281E+04 -3.97308E+03 -2.01033E+04 -1.12182E+04
 -9.27926E+03 -1.46295E+04 -9.98815E+02 -2.01833E+04  7.40689E+03 -2.33933E+04  1.64616E+04 -1.31336E+04
  1.08312E+04  7.30239E+03 -1.09502E+04  1.29541E+04 -2.34786E+04 -6.07495E+03 -7.86118E+03 -3.68843E+04
  2.46597E+04 -4.70860E+04  5.21228E+04 -2.06743E+04  4.93825E+04  2.03263E+04  1.69427E+04  4.77906E+04
 -1.70120E+04  3.58797E+04 -2.77574E+04  1.70574E+03 -1.12879E+04 -2.96600E+04  2.12887E+04 -3.68426E+04
  4.55051E+04 -1.10610E+04  4.06993E+04  2.46450E+04  2.11851E+04  5.13619E+04 -8.84311E+03  5.58260E+04
 -3.62045E+04  3.76265E+04 -4.75275E+04  1.10526E+04 -4.82138E+04 -1.85187E+04 -2.70618E+04 -4.26800E+04
  7.19438E+03 -4.21718E+04  3.40327E+04 -1.72538E+04  3.13154E+04  1.11742E+04  5.51109E+03  2.14046E+04
 -1.36279E+04  9.67842E+03 -1.12769E+04 -7.58004E+03  5.90677E+03 -1.19497E+04  1.93462E+04  5.30702E+03
  1.58870E+04  2.36119E+04 -4.87537E+03  2.70530E+04 -2.34988E+04  1.44146E+04 -3.19529E+04 -2.85794E+03
 -2.59661E+04 -1.85838E+04 -1.14795E+04 -2.49089E+04  4.14040E+03 -2.56844E+04  1.97258E+04 -2.34020E+04
  3.23420E+04 -1.39070E+04  3.78500E+04  5.25051E+03  2.67708E+04  2.52933E+04  4.52402E+03  4.15282E+04
 -2.00749E+04  3.38757E+04 -3.10414E+04  1.20542E+04 -2.25096E+04 -1.03381E+04 -4.61333E+03 -1.31983E+04
  3.18196E+02 -1.79731E+03 -6.81254E+03  8.31753E+03 -2.00227E+04  4.83847E+03 -2.08689E+04 -8.97225E+03
 -1.26505E+04 -2.29019E+04  6.59773E+03 -2.72977E+04  1.89905E+04 -1.94154E+04  2.23751E+04 -1.63438E+03
  1.45921E+04  1.64864E+04 -9.91420E+02  2.24047E+04 -1.70568E+04  1.32054E+04 -2.38715E+04 -3.89086E+03
 -1.80014E+04 -2.08244E+04 -2.75035E+03 -2.84794E+04  1.31546E+04 -2.42510E+04  2.34121E+04 -1.29518E+04
  2.23196E+04  1.77773E+02  1.62302E+04  5.18756E+03  8.74948E+03  1.37682E+03  1.24574E+04 -1.77537E+03
  2.22722E+04  2.77836E+03  2.50775E+04  1.79454E+04  1.74458E+04  3.81128E+04 -3.38437E+03  4.41927E+04
 -2.61215E+04  3.73052E+04 -4.20912E+04  1.91389E+04 -4.52663E+04 -3.17317E+03 -3.57060E+04 -2.66510E+04
 -1.44376E+04 -3.68442E+04  1.33917E+04 -3.29387E+04  2.79433E+04 -1.54042E+04  2.37966E+04  7.99293E+03
  8.62434E+03  1.81451E+04 -1.22275E+04  1.56647E+04 -2.02219E+04  1.52720E+03 -1.59680E+04 -1.29522E+04
 -8.03121E+02 -1.94671E+04  1.07663E+04 -1.41316E+04  1.35952E+04 -1.38496E+03  2.76907E+03  8.54643E+03
 -8.40290E+03  3.51155E+03 -9.45971E+03 -6.51876E+03 -1.34800E+03 -1.69079E+04  1.18691E+04 -1.97469E+04
  2.27715E+04 -1.15487E+04  2.58719E+04  2.62365E+03  2.26007E+04  1.91530E+04  1.07746E+04  2.90987E+04
 -5.61360E+03  3.14222E+04 -2.00727E+04  1.96615E+04 -2.27403E+04  3.70064E+03 -1.55496E+04 -5.42359E+03
 -6.83173E+03 -7.17455E+03 -1.14496E+02  5.08787E+02 -3.32910E+03  4.47926E+03 -7.62133E+03  5.28112E+03
 -1.38191E+04 -9.90867E+02 -1.48713E+04 -1.12784E+04 -5.91936E+03 -1.99533E+04  7.02930E+03 -1.61321E+04
  1.35446E+04 -6.35661E+03  8.82799E+03  4.58129E+03  4.13467E+02  6.15581E+03 -7.20144E+03  7.46932E+00
 -7.11320E+03 -1.04866E+04 -7.11472E+02 -1.58003E+04  9.47695E+03 -1.61320E+04  2.03920E+04 -9.06359E+03
  2.31866E+04  2.13835E+03  1.70998E+04  1.41760E+04  3.64637E+03  1.95466E+04 -9.19899E+03  1.57066E+04
 -1.22929E+04  4.30647E+03 -5.76344E+03 -3.07659E+03  2.30756E+03 -5.48500E+03  8.71475E+03 -6.39921E+02
  7.32202E+03  6.56510E+03  3.14096E+02  1.36782E+04 -8.58728E+03  1.17764E+04 -1.55637E+04  3.04557E+03
 -1.07615E+04 -8.06495E+03  8.75314E+01 -1.38753E+04  8.95616E+03 -7.14521E+03  8.81261E+03  3.92203E+03
  3.19252E+03  9.38745E+03 -8.12836E+03  1.15543E+04 -1.32771E+04  5.57582E+03 -1.33132E+04 -6.32150E+03
 -7.43234E+03 -1.54890E+04  4.05448E+03 -1.75283E+04  1.55406E+04 -1.00470E+04  1.61205E+04  2.78670E+03
  1.04571E+04  1.29130E+04 -1.70395E+03  1.58642E+04 -1.20347E+04  8.79658E+03 -1.22877E+04 -4.99621E+02
 -1.05324E+04 -1.09700E+04 -9.89374E+02 -1.22007E+04  6.49576E+03 -9.63606E+03  7.38885E+03 -3.00610E+03
  6.16517E+03  2.13687E+03 -8.61447E+02  1.70147E+03 -8.98336E+02 -3.28877E+03  2.50445E+03 -7.06086E+03
  1.06775E+04 -5.20138E+03  1.53956E+04  1.96194E+03  1.56026E+04  1.12938E+04  9.95664E+03  2.00772E+04
 -5.44711E+03  2.44893E+04 -1.88473E+04  1.70335E+04 -2.56296E+04  3.15586E+03 -1.93426E+04 -8.78652E+03
 -1.00322E+04 -1.74696E+04 -4.70021E+02 -1.45590E+04  4.85830E+03 -8.39261E+03  5.25824E+03 -5.37200E+03
  3.35351E+03 -3.05991E+03  3.84094E+03 -4.40806E+03  5.96127E+03 -3.68739E+03  8.67220E+03 -1.16438E+03
  1.06499E+04  2.21344E+03  5.79193E+03  9.25960E+03 -2.31389E+03  1.13023E+04 -1.16239E+04  8.09506E+03
 -1.41735E+04 -1.67933E+03 -8.94517E+03 -1.06735E+04 -1.84725E+03 -1.48045E+04  9.19848E+03 -1.61439E+04
  1.61720E+04 -9.17168E+03  1.92740E+04  2.76073E+03  1.35910E+04  1.34591E+04  2.42788E+03  1.64197E+04
 -7.24466E+03  1.39515E+04 -1.01351E+04  4.83414E+03 -6.60726E+03 -4.88677E+02 -2.88387E+03 -2.50791E+03
 -1.06247E+03  6.61101E+01 -2.03282E+03  2.53345E+03 -6.36761E+03  2.04092E+03 -9.64834E+03 -1.57985E+03
 -7.62704E+03 -9.62863E+03 -1.48435E+02 -1.47749E+04  8.46121E+03 -1.33638E+04  1.40139E+04 -4.48943E+03
  1.41619E+04  7.01684E+03  5.93395E+03  1.23127E+04 -2.94084E+03  1.37197E+04 -1.05016E+04  8.83362E+03
 -1.29494E+04  2.79298E+02 -1.01412E+04 -8.50140E+03 -1.05347E+03 -1.25389E+04  6.29534E+03 -9.09038E+03
  8.86970E+03 -3.30729E+03  6.75283E+03  2.91276E+03  1.99366E+03  3.80495E+03  1.01661E+03  2.03125E+03
  2.41640E+03  1.13072E+03  3.86717E+03  2.01978E+03  4.08485E+03  4.98442E+03  3.51619E+03  7.48888E+03
 -2.35386E+03  1.10949E+04 -1.02631E+04  1.20265E+04 -1.48221E+04  2.95644E+03 -1.49918E+04 -6.96350E+03
 -6.96159E+03 -1.48157E+04  2.52322E+03 -1.62884E+04  8.26505E+03 -8.86700E+03  1.18535E+04 -2.74978E+03
  9.82738E+03  5.66188E+03  1.93234E+03  8.27099E+03 -3.96707E+03  5.53491E+03 -7.13480E+03 -1.29914E+03
 -3.09653E+03 -5.93172E+03  3.62155E+03 -5.61510E+03  5.19910E+03 -2.90606E+03  5.05258E+03  1.67049E+03
  3.61469E+03  3.10132E+03  7.99310E+02  2.47733E+03 -3.85875E+02  2.23451E+03  1.20644E+03 -9.81305E+02
  2.92268E+03 -6.96511E+02  5.83888E+03  1.84035E+03  2.52342E+03  7.86412E+03 -7.43067E+02  9.71400E+03
 -6.92925E+03  6.88205E+03 -9.34384E+03  2.10550E+03 -8.02322E+03 -3.34325E+03 -3.19765E+03 -5.71198E+03
  9.41847E+02 -5.39442E+03  3.40441E+03 -2.97878E+03  3.22300E+03  3.36093E+03 -2.14062E+03  5.44103E+03
 -6.05581E+03  2.57397E+03 -6.87839E+03 -3.36197E+03 -3.88485E+03 -8.07547E+03  1.51334E+03 -7.75638E+03
  4.70434E+03 -4.36292E+03  5.61021E+03 -4.54847E+02  5.38506E+03  2.63586E+03  1.39603E+03  4.42157E+03
 -2.47668E+03  1.47923E+03 -3.62645E+03 -2.26964E+03  1.22044E+03 -6.27443E+03  6.76418E+03 -3.71738E+03
  8.48510E+03  6.27426E+02  8.85031E+03  6.16883E+03  3.68788E+03  9.29158E+03 -2.68144E+03  8.09189E+03
 -7.60172E+03  3.32188E+03 -7.77607E+03 -1.28242E+03 -4.14095E+03 -5.60503E+03  1.45779E+03 -5.99474E+03
  6.40049E+03 -3.07306E+03  4.78897E+03  2.10907E+03  1.70448E+03  5.03775E+03 -1.00216E+03  4.69632E+03
 -2.69776E+03  2.60023E+03 -2.31426E+03  9.30443E+02 -3.05565E+02  1.06335E+03 -1.31294E+03  2.11983E+03
 -2.75393E+03  3.85644E+03 -6.24083E+03  3.73481E+03 -9.69292E+03  1.95837E+02 -1.07327E+04 -4.94948E+03
 -5.70981E+03 -1.18609E+04  1.42309E+03 -1.40435E+04  8.26702E+03 -1.05661E+04  1.28524E+04 -4.19351E+03
  1.27312E+04  3.11899E+03  7.56776E+03  8.27556E+03  1.07022E+03  9.41817E+03 -3.60976E+03  7.54831E+03
 -5.28888E+03  2.51502E+03 -3.36797E+03 -1.38183E+03 -1.14432E+03 -1.14013E+03 -1.00293E+03  4.21416E+02
 -1.64186E+03 -1.10905E+02 -1.95765E+03 -8.40313E+02 -1.03357E+03 -2.50113E+03 -3.61689E+02 -3.69527E+03
  3.79094E+03 -3.46254E+03  5.10334E+03  7.10514E+02  6.85185E+03  5.31279E+03  2.13417E+03  8.98527E+03
 -4.72378E+03  9.75928E+03 -1.08179E+04  6.85141E+03 -1.14070E+04 -1.30698E+03 -9.13499E+03 -6.72413E+03
 -3.37790E+03 -9.49344E+03  2.84655E+03 -9.00225E+03  5.99102E+03 -5.35986E+03  6.55346E+03  5.61433E+02
  2.56439E+03  2.93379E+03 -6.35046E+02  3.29487E+03 -1.69728E+03 -6.88973E+02  1.09034E+01 -2.04154E+03
  3.51773E+03 -1.78837E+03  3.48193E+03  8.64785E+02  2.48087E+03  4.30527E+03  4.18917E+02  5.08447E+03
 -4.41516E+03  3.92745E+03 -5.72871E+03  3.74898E+02 -5.63927E+03 -5.24623E+03 -1.28491E+03 -7.63785E+03
  4.83059E+03 -6.40259E+03  7.38250E+03 -2.41973E+03  6.20565E+03  1.75038E+03  5.14161E+03  5.80409E+03
 -2.02953E+02  6.11395E+03 -2.21542E+03  4.49277E+03 -4.40846E+03  2.84842E+03 -3.43353E+03 -4.07185E+02
 -1.95146E+03 -1.06833E+03 -1.57657E+03  3.27192E+02 -3.08077E+03  1.56906E+03 -4.45071E+03 -5.47168E+02
 -4.69408E+03 -3.51241E+03 -8.91309E+02 -6.08733E+03  2.02065E+03 -7.72913E+03  6.09172E+03 -2.94999E+03
  5.97487E+03  6.25254E+02  4.32455E+03  4.41219E+03 -6.86065E+02  6.63432E+03 -4.32130E+03  3.94998E+03
