 $NMID ID='MM_0lb_SNR400_12hz_g45_13.RAW', FMTDAT='(8E13.5)'
 TRAMP=1., VOLUME=1. $END
  3.09499E+05 -4.29493E+01  3.37588E+05  2.50710E+05  8.44542E+04  3.37944E+05 -1.32506E+05  2.51218E+05
 -1.90966E+05  8.32280E+04 -1.11748E+05 -3.26489E+04  5.01166E+02 -5.01016E+04  5.33307E+04 -1.05091E+03
  3.57827E+04  5.32067E+04 -1.60415E+04  7.56112E+04 -6.14257E+04  6.42985E+04 -8.42217E+04  3.25063E+04
 -8.16862E+04 -1.19049E+04 -5.78208E+04 -5.20692E+04 -1.50476E+04 -6.98521E+04  2.72551E+04 -4.60254E+04
  3.98501E+04  4.03021E+03  1.57521E+04  4.78128E+04 -3.42000E+04  4.72038E+04 -6.76167E+04 -5.43689E+01
 -5.31195E+04 -5.74292E+04 -7.58938E+03 -7.75278E+04  3.43224E+04 -5.58477E+04  4.82186E+04 -1.76451E+04
  4.38784E+04  1.14868E+04  3.26079E+04  2.56157E+04  1.56128E+04  2.98588E+04 -5.50645E+03  2.75618E+04
 -2.25102E+04  1.27707E+04 -1.86309E+04 -5.32093E+03  5.81306E+03 -7.57401E+03  2.30409E+04  1.25053E+04
  7.47745E+03  3.58237E+04 -3.26979E+04  3.57299E+04 -6.38898E+04  2.45513E+03 -5.68707E+04 -4.32890E+04
 -1.25101E+04 -6.44148E+04  4.01812E+04 -4.57739E+04  5.85638E+04 -2.35220E+03  3.54300E+04  3.27912E+04
 -5.72708E+03  3.68759E+04 -3.02776E+04  1.66321E+04 -3.10359E+04 -4.76184E+03 -1.71171E+04 -1.09449E+04
 -9.05112E+03 -1.29063E+04 -1.06330E+03 -1.86654E+04  7.44744E+03 -2.33524E+04  1.60077E+04 -1.31719E+04
  1.12544E+04  5.33765E+03 -8.84564E+03  1.29205E+04 -2.17107E+04 -5.32181E+03 -7.99540E+03 -3.41884E+04
  2.33189E+04 -4.44455E+04  4.95996E+04 -1.93686E+04  4.64383E+04  2.01316E+04  1.67356E+04  4.50453E+04
 -1.58407E+04  3.34422E+04 -2.54775E+04  2.03654E+03 -1.00564E+04 -2.87993E+04  2.11683E+04 -3.43354E+04
  4.25579E+04 -9.85216E+03  3.67517E+04  2.42866E+04  1.94139E+04  4.70879E+04 -8.17583E+03  5.17345E+04
 -3.34113E+04  3.45180E+04 -4.37777E+04  1.06504E+04 -4.38729E+04 -1.73966E+04 -2.46865E+04 -3.90818E+04
  7.77657E+03 -3.93834E+04  3.24104E+04 -1.55369E+04  2.97118E+04  1.05727E+04  4.37314E+03  1.97518E+04
 -1.33055E+04  9.25635E+03 -1.05519E+04 -7.83140E+03  5.64079E+03 -1.08420E+04  1.78941E+04  5.26327E+03
  1.35635E+04  2.20821E+04 -5.59863E+03  2.58433E+04 -2.27399E+04  1.22973E+04 -2.88027E+04 -4.72142E+03
 -2.22598E+04 -1.74893E+04 -9.60549E+03 -2.12695E+04  4.12969E+03 -2.12484E+04  1.72050E+04 -1.98197E+04
  2.77849E+04 -1.30221E+04  3.40780E+04  3.16497E+03  2.44808E+04  2.10054E+04  4.54358E+03  3.79446E+04
 -1.92550E+04  3.11264E+04 -2.85350E+04  1.10087E+04 -2.09038E+04 -9.79663E+03 -4.02284E+03 -1.35760E+04
  2.05181E+03 -1.98514E+03 -5.70488E+03  7.47784E+03 -1.75574E+04  5.65983E+03 -1.73037E+04 -7.67437E+03
 -1.03867E+04 -1.99343E+04  5.49390E+03 -2.48381E+04  1.63210E+04 -1.69036E+04  1.93359E+04 -2.02314E+03
  1.29386E+04  1.33885E+04 -1.01404E+03  2.05294E+04 -1.40732E+04  1.20097E+04 -2.00584E+04 -4.19198E+03
 -1.47677E+04 -1.78628E+04 -2.08665E+03 -2.38492E+04  1.11667E+04 -1.97871E+04  2.05941E+04 -1.03855E+04
  1.89183E+04  1.31356E+02  1.36238E+04  4.68090E+03  7.43184E+03  1.18204E+03  1.02217E+04 -1.69763E+03
  1.87598E+04  2.87618E+03  2.06917E+04  1.61934E+04  1.42416E+04  3.18935E+04 -2.94026E+03  3.72088E+04
 -2.16838E+04  2.99834E+04 -3.46592E+04  1.52830E+04 -3.63705E+04 -3.20737E+03 -3.05301E+04 -2.16615E+04
 -1.28585E+04 -3.06652E+04  1.00978E+04 -2.70788E+04  2.33711E+04 -1.39533E+04  2.10221E+04  6.12530E+03
  7.47837E+03  1.58319E+04 -1.01151E+04  1.35098E+04 -1.83098E+04  2.41488E+03 -1.29540E+04 -1.08340E+04
  9.94193E+01 -1.64911E+04  8.68562E+03 -1.29828E+04  1.11773E+04 -1.15878E+03  2.39479E+03  7.87128E+03
 -7.78725E+03  3.07023E+03 -7.50442E+03 -6.14409E+03 -3.50725E+02 -1.51304E+04  9.99061E+03 -1.53680E+04
  1.83653E+04 -8.61307E+03  2.01008E+04  3.52374E+03  1.78411E+04  1.42805E+04  8.40263E+03  2.25865E+04
 -4.19776E+03  2.55657E+04 -1.55756E+04  1.55876E+04 -1.81562E+04  3.77006E+03 -1.20690E+04 -3.82518E+03
 -5.90707E+03 -6.04510E+03 -1.08926E+03  1.20486E+03 -2.02238E+03  2.99341E+03 -5.49681E+03  5.28068E+03
 -1.20352E+04 -8.80243E+02 -1.26869E+04 -9.45848E+03 -4.99234E+03 -1.63864E+04  5.28432E+03 -1.19908E+04
  1.00613E+04 -6.09664E+03  8.07787E+03  3.58189E+03  3.34464E-01  4.84473E+03 -6.35061E+03 -3.49748E+02
 -5.86656E+03 -6.92006E+03 -1.10720E+03 -1.21541E+04  6.59822E+03 -1.20250E+04  1.61507E+04 -6.86263E+03
  1.86793E+04  1.43117E+03  1.36201E+04  1.06050E+04  2.81309E+03  1.41526E+04 -7.87699E+03  1.23222E+04
 -9.94342E+03  3.63152E+03 -5.71928E+03 -2.85919E+03  2.44885E+03 -3.26532E+03  6.88172E+03 -7.39609E+02
  5.73024E+03  5.69946E+03  2.05841E+03  1.00152E+04 -7.38525E+03  9.39232E+03 -1.19950E+04  2.13352E+03
 -8.79229E+03 -6.02435E+03  8.09114E+02 -1.02968E+04  6.89929E+03 -6.16761E+03  7.80410E+03  2.14237E+03
  6.04792E+02  7.03434E+03 -6.64613E+03  8.88790E+03 -9.59048E+03  3.68010E+03 -1.04956E+04 -4.11417E+03
 -6.27318E+03 -1.10941E+04  2.95401E+03 -1.30616E+04  1.14792E+04 -8.19487E+03  1.18660E+04  1.76840E+03
  7.66979E+03  9.57806E+03 -4.41818E+02  1.23489E+04 -8.62683E+03  6.49303E+03 -9.39234E+03 -1.10513E+03
 -8.70023E+03 -8.06802E+03 -1.68039E+03 -9.30707E+03  4.96026E+03 -7.55540E+03  5.47718E+03 -2.92595E+03
  3.71751E+03  9.07138E+02 -6.19105E+02  1.64462E+03 -4.80633E+02 -1.66507E+03  1.36128E+03 -5.08117E+03
  8.15074E+03 -2.70908E+03  1.16217E+04  2.49331E+03  1.07255E+04  7.38269E+03  8.88240E+03  1.48598E+04
 -2.77276E+03  1.71997E+04 -1.40526E+04  1.26921E+04 -1.85061E+04  2.12275E+03 -1.49310E+04 -6.09238E+03
 -7.44512E+03 -1.24652E+04 -3.90280E+02 -1.05377E+04  3.71028E+03 -5.89818E+03  4.68189E+03 -4.46632E+03
  2.56481E+03 -1.97147E+03  3.25877E+03 -3.33562E+03  4.81497E+03 -2.50323E+03  5.93149E+03 -9.74864E+02
  7.88570E+03  1.34445E+03  3.64704E+03  7.10088E+03 -1.45515E+03  7.45044E+03 -8.07574E+03  6.34851E+03
 -9.73455E+03 -1.69229E+03 -5.61861E+03 -7.28002E+03 -8.01516E+02 -1.09301E+04  6.38195E+03 -1.00767E+04
  1.12727E+04 -5.96440E+03  1.36169E+04  1.79653E+03  8.69924E+03  9.48736E+03  1.22523E+03  1.25230E+04
 -4.81060E+03  1.02766E+04 -6.62029E+03  3.83998E+03 -4.61001E+03 -1.51881E+03 -2.25887E+03 -1.65733E+03
 -8.64206E+02  7.46046E+02 -1.75459E+03  2.42424E+03 -4.94821E+03  2.65358E+03 -7.99043E+03 -8.05658E+02
 -4.33073E+03 -7.54540E+03 -5.45337E+02 -1.00026E+04  6.21293E+03 -9.14996E+03  1.01694E+04 -2.84308E+03
  9.51000E+03  5.08958E+03  4.90755E+03  8.29753E+03 -1.69290E+03  9.30667E+03 -6.78472E+03  6.49799E+03
 -9.29842E+03  1.39176E+02 -6.91097E+03 -5.76104E+03 -6.50393E+02 -8.28618E+03  4.39146E+03 -5.84174E+03
  5.98515E+03 -2.28742E+03  4.08217E+03  1.80303E+03  1.72427E+03  2.53665E+03  3.20663E+02  9.95468E+02
  1.75908E+03  1.10032E+03  2.28290E+03  1.41959E+03  3.16989E+03  3.77864E+03  2.69752E+03  4.73328E+03
 -2.76813E+03  7.36256E+03 -6.57349E+03  8.35915E+03 -9.22712E+03  2.21088E+03 -1.06341E+04 -3.69008E+03
 -3.89478E+03 -1.03967E+04  1.45082E+03 -1.12699E+04  5.90416E+03 -6.65258E+03  8.54459E+03 -1.82920E+03
  6.71670E+03  3.57591E+03  2.00391E+03  5.35210E+03 -2.48248E+03  4.04806E+03 -3.58776E+03 -2.87376E+02
 -1.92636E+03 -3.94640E+03  2.44112E+03 -3.65707E+03  4.27349E+03 -2.55913E+03  3.65814E+03  9.99119E+02
  2.16178E+03  1.45488E+03  1.69717E+03  1.03596E+03 -1.10472E+03  1.01212E+03  1.98334E+03  9.77156E+01
  1.54608E+03 -2.27334E+02  3.85222E+03  2.01536E+03  1.56974E+03  5.53491E+03 -1.08648E+03  6.92918E+03
 -4.91412E+03  3.76721E+03 -6.42714E+03  6.24560E+02 -5.79970E+03 -2.16941E+03 -1.33945E+03 -3.40911E+03
  1.48463E+03 -3.72771E+03  2.11140E+03 -9.22886E+02  1.94933E+03  1.98473E+03 -1.39264E+03  3.25933E+03
 -3.45030E+03  1.48909E+03 -4.54992E+03 -2.42174E+03 -2.79789E+03 -4.96282E+03  3.04918E+02 -4.74455E+03
  2.93918E+03 -2.51870E+03  3.37625E+03  6.45087E+01  3.22139E+03  1.10760E+03 -1.55262E+02  3.01752E+03
 -1.74639E+03  7.57256E+02 -2.42399E+03 -1.60647E+03  1.04930E+03 -3.44223E+03  4.73795E+03 -2.55854E+03
  5.83290E+03  2.07594E+02  6.02712E+03  3.75291E+03  1.89507E+03  6.21987E+03 -2.11006E+03  5.67613E+03
 -4.82207E+03  1.65788E+03 -5.26620E+03 -3.98660E+02 -2.77081E+03 -3.45520E+03  9.81114E+02 -2.63762E+03
  3.38265E+03 -2.55713E+03  3.05536E+03  1.84680E+03  1.48725E+03  3.43111E+03  2.68519E+02  2.81191E+03
 -1.32298E+03  2.02672E+03 -1.62076E+03  4.44726E+02 -9.71777E+02  6.32875E+02 -9.40785E+02  1.41363E+03
 -1.88511E+03  2.77498E+03 -4.11156E+03  1.81089E+03 -5.86530E+03  1.67161E+02 -6.01879E+03 -3.92240E+03
 -2.99991E+03 -7.70562E+03  1.23978E+03 -8.86511E+03  5.29802E+03 -7.42960E+03  8.98895E+03 -2.44819E+03
  8.09979E+03  1.55670E+03  5.19532E+03  5.38082E+03  4.60066E+01  6.04914E+03 -2.58983E+03  4.51296E+03
 -2.64990E+03  2.32764E+03 -1.94298E+03 -1.01585E+03 -8.41531E+02 -4.01938E+01 -7.06704E+02  2.83484E+02
 -1.20389E+03  3.89214E+02 -1.25862E+03 -5.79807E+02 -2.89047E+02 -1.63662E+03 -1.00599E+02 -2.46182E+03
  3.39753E+03 -1.73222E+03  3.12662E+03  1.26015E+01  4.63582E+03  3.84473E+03  1.33574E+03  5.51171E+03
 -2.53478E+03  6.95429E+03 -5.94948E+03  3.66185E+03 -6.91282E+03 -4.31727E+02 -5.30979E+03 -4.39220E+03
 -3.12820E+03 -5.85754E+03  1.72729E+03 -4.32939E+03  3.50943E+03 -2.39647E+03  3.79740E+03  4.14641E+02
  2.21947E+03  1.68489E+03 -5.46443E+01  1.26055E+03 -8.11508E+02  1.35137E+02  3.48234E+02 -6.41706E+02
  1.78419E+03 -1.11061E+03  2.74994E+03  3.98289E+02  1.29750E+03  2.30716E+03  6.36971E+02  2.62807E+03
 -1.86056E+03  2.37290E+03 -4.31794E+03  9.97876E+01 -3.00792E+03 -2.40898E+03 -7.99701E+02 -4.98778E+03
  2.73056E+03 -4.07763E+03  4.25483E+03 -1.35088E+03  3.95485E+03  2.27658E+02  2.08941E+03  4.19904E+03
  3.78574E+02  3.37978E+03 -1.31534E+03  3.06483E+03 -2.38285E+03  2.01811E+03 -1.69608E+03 -6.58902E+02
 -1.08990E+03 -1.78570E+01 -1.47518E+03  5.89150E+02 -1.70511E+03  8.07143E+02 -3.01500E+03 -8.59090E+02
 -2.98879E+03 -1.59477E+03 -1.93278E+01 -3.67386E+03  1.89244E+03 -3.77918E+03  3.51308E+03 -1.47794E+03
  3.19853E+03  3.46282E+02  6.33539E+02  2.34341E+03 -6.01817E+02  3.80922E+03 -2.77227E+03  2.02938E+03
