 $NMID ID='MM_0lb_SNR400_11hz_g55_92.RAW', FMTDAT='(8E13.5)'
 TRAMP=1., VOLUME=1. $END
  3.09518E+05  6.20229E+02  3.37708E+05  2.50766E+05  8.50051E+04  3.38856E+05 -1.32128E+05  2.51666E+05
 -1.90792E+05  8.37387E+04 -1.13042E+05 -3.23767E+04  9.20711E+02 -5.13901E+04  5.35925E+04  3.89811E+02
  3.50274E+04  5.25309E+04 -1.70278E+04  7.60644E+04 -6.16260E+04  6.38178E+04 -8.53698E+04  3.22223E+04
 -8.19162E+04 -1.17080E+04 -5.79484E+04 -5.21866E+04 -1.48889E+04 -7.11813E+04  2.87621E+04 -4.71830E+04
  4.15568E+04  3.13900E+03  1.60774E+04  4.84041E+04 -3.46400E+04  4.80317E+04 -6.73061E+04 -3.97635E+02
 -5.42796E+04 -5.70429E+04 -7.40427E+03 -7.79335E+04  3.44015E+04 -5.63671E+04  4.89219E+04 -1.82087E+04
  4.51545E+04  1.09486E+04  3.26323E+04  2.67506E+04  1.63519E+04  2.97892E+04 -5.74734E+03  2.74339E+04
 -2.23470E+04  1.13714E+04 -1.87524E+04 -5.76789E+03  6.05680E+03 -7.40410E+03  2.29979E+04  1.32065E+04
  6.70308E+03  3.74767E+04 -3.29817E+04  3.63730E+04 -6.47718E+04  2.15306E+03 -5.84914E+04 -4.32996E+04
 -1.25641E+04 -6.54860E+04  4.10108E+04 -4.70213E+04  6.06397E+04 -2.57263E+03  3.57547E+04  3.33239E+04
 -5.58364E+03  3.89327E+04 -3.13047E+04  1.77533E+04 -3.26451E+04 -3.77707E+03 -1.85965E+04 -1.20308E+04
 -9.24494E+03 -1.51239E+04 -5.53737E+02 -1.91575E+04  8.34491E+03 -2.41613E+04  1.51283E+04 -1.29043E+04
  1.00889E+04  6.76659E+03 -9.66467E+03  1.38562E+04 -2.26353E+04 -6.04181E+03 -7.94276E+03 -3.63966E+04
  2.43628E+04 -4.59001E+04  5.12121E+04 -2.04652E+04  4.77681E+04  2.06088E+04  1.70391E+04  4.68591E+04
 -1.69168E+04  3.58195E+04 -2.72064E+04  2.58774E+03 -1.06563E+04 -2.90210E+04  2.07996E+04 -3.55841E+04
  4.26556E+04 -9.95624E+03  3.97333E+04  2.46292E+04  2.09324E+04  4.95165E+04 -7.85044E+03  5.44326E+04
 -3.45652E+04  3.67898E+04 -4.62157E+04  1.07303E+04 -4.52840E+04 -1.77334E+04 -2.56500E+04 -4.07601E+04
  7.62227E+03 -4.17342E+04  3.37376E+04 -1.63536E+04  3.14903E+04  1.18144E+04  5.19628E+03  2.03542E+04
 -1.41785E+04  9.38708E+03 -1.15956E+04 -7.73491E+03  5.12860E+03 -1.13178E+04  1.87728E+04  5.13298E+03
  1.43223E+04  2.25796E+04 -5.39945E+03  2.61494E+04 -2.28546E+04  1.32733E+04 -3.05552E+04 -3.11048E+03
 -2.39432E+04 -1.86556E+04 -1.00886E+04 -2.29389E+04  3.99989E+03 -2.41547E+04  1.87800E+04 -2.18738E+04
  2.98896E+04 -1.37955E+04  3.64750E+04  3.55984E+03  2.58714E+04  2.30078E+04  4.22732E+03  3.97604E+04
 -1.94941E+04  3.31662E+04 -2.98113E+04  1.16114E+04 -2.19589E+04 -9.61066E+03 -4.89925E+03 -1.19849E+04
  8.31115E+02 -1.42971E+03 -6.66655E+03  7.19923E+03 -1.96012E+04  5.42598E+03 -1.89739E+04 -9.18674E+03
 -1.12390E+04 -2.22851E+04  5.27630E+03 -2.60107E+04  1.76370E+04 -1.91022E+04  2.17073E+04 -2.45492E+03
  1.30431E+04  1.53909E+04 -1.53957E+03  2.15725E+04 -1.57358E+04  1.32937E+04 -2.21311E+04 -4.88326E+03
 -1.69179E+04 -1.95143E+04 -2.29137E+03 -2.63503E+04  1.22487E+04 -2.16716E+04  2.19138E+04 -1.12843E+04
  2.03724E+04  8.35033E+02  1.49308E+04  4.57995E+03  8.39852E+03  1.50491E+03  1.15131E+04 -2.30893E+03
  2.02395E+04  3.10209E+03  2.39622E+04  1.71845E+04  1.59224E+04  3.53305E+04 -3.02706E+03  4.08168E+04
 -2.38471E+04  3.39869E+04 -3.94107E+04  1.73329E+04 -4.15383E+04 -3.07027E+03 -3.24193E+04 -2.37941E+04
 -1.32915E+04 -3.45013E+04  1.15473E+04 -3.01144E+04  2.64431E+04 -1.49505E+04  2.28829E+04  7.20111E+03
  7.49165E+03  1.77275E+04 -1.13753E+04  1.48436E+04 -1.85607E+04  2.03828E+03 -1.47562E+04 -1.18994E+04
 -2.75414E+01 -1.79512E+04  9.28477E+03 -1.33951E+04  1.24536E+04 -1.17894E+03  3.33210E+03  8.35277E+03
 -7.98725E+03  3.78356E+03 -7.63817E+03 -6.18210E+03 -1.66294E+03 -1.65403E+04  1.04578E+04 -1.81160E+04
  2.08174E+04 -1.01413E+04  2.42919E+04  3.39540E+03  2.12197E+04  1.69503E+04  8.84505E+03  2.65381E+04
 -5.12237E+03  2.86448E+04 -1.84803E+04  1.76871E+04 -2.07074E+04  3.69037E+03 -1.43034E+04 -5.10662E+03
 -5.82937E+03 -6.14435E+03 -6.24751E+02  5.38543E+02 -2.31069E+03  3.14840E+03 -6.88630E+03  5.57308E+03
 -1.31372E+04 -2.99459E+02 -1.36673E+04 -1.19150E+04 -5.18640E+03 -1.76057E+04  5.18795E+03 -1.46688E+04
  1.19520E+04 -5.57897E+03  7.87987E+03  3.69157E+03 -5.97944E+02  5.29204E+03 -6.35513E+03  2.57714E+02
 -6.37828E+03 -8.96679E+03 -1.23244E+03 -1.43249E+04  8.44576E+03 -1.41086E+04  1.79269E+04 -7.90608E+03
  2.19058E+04  1.45660E+03  1.57355E+04  1.32965E+04  3.15533E+03  1.75894E+04 -8.75330E+03  1.40229E+04
 -1.20380E+04  4.29328E+03 -6.09912E+03 -3.27120E+03  2.11896E+03 -4.12917E+03  7.40088E+03 -1.08385E+03
  7.29988E+03  6.23427E+03  1.39886E+03  1.16568E+04 -8.29648E+03  1.04749E+04 -1.39731E+04  2.25374E+03
 -9.50636E+03 -7.69288E+03  4.08056E+01 -1.25872E+04  7.15356E+03 -6.18583E+03  8.72148E+03  2.92782E+03
  1.29862E+03  8.12659E+03 -7.94629E+03  9.79620E+03 -1.17414E+04  4.63268E+03 -1.14720E+04 -4.35237E+03
 -7.52931E+03 -1.36693E+04  3.79413E+03 -1.55896E+04  1.30882E+04 -9.63629E+03  1.43194E+04  2.19238E+03
  8.60483E+03  1.30027E+04 -1.36240E+03  1.38567E+04 -1.05588E+04  8.36458E+03 -1.16982E+04 -9.95752E+02
 -9.64321E+03 -9.06204E+03 -1.33906E+03 -9.93071E+03  5.13704E+03 -8.55065E+03  7.11366E+03 -3.60772E+03
  5.17309E+03  2.62020E+03 -1.25076E+03  2.23419E+03 -7.44452E+02 -2.75193E+03  1.47776E+03 -6.17831E+03
  9.47635E+03 -3.49551E+03  1.36271E+04  1.08988E+03  1.28346E+04  9.55840E+03  8.76699E+03  1.71241E+04
 -3.69684E+03  2.09481E+04 -1.67320E+04  1.46348E+04 -2.17093E+04  2.67365E+03 -1.78102E+04 -7.52673E+03
 -9.13936E+03 -1.47295E+04  2.41387E+02 -1.27470E+04  4.91280E+03 -6.80158E+03  4.68355E+03 -4.98570E+03
  3.49941E+03 -3.01271E+03  3.79926E+03 -3.10061E+03  5.14949E+03 -3.36777E+03  7.21608E+03 -1.01359E+03
  9.39289E+03  1.74556E+03  4.72609E+03  8.24092E+03 -1.44573E+03  8.84868E+03 -9.65549E+03  6.48903E+03
 -1.26473E+04 -1.59082E+03 -7.64369E+03 -8.09255E+03 -7.72170E+02 -1.43082E+04  7.20435E+03 -1.34092E+04
  1.30854E+04 -7.27151E+03  1.58891E+04  2.53827E+03  1.11742E+04  1.19571E+04  2.40864E+03  1.39102E+04
 -5.44602E+03  1.27792E+04 -9.03793E+03  4.41358E+03 -5.64802E+03 -2.23866E+03 -2.47336E+03 -1.41942E+03
 -7.95646E+02 -3.60592E+02 -1.65976E+03  2.91692E+03 -5.32701E+03  1.79384E+03 -8.25321E+03 -1.14093E+03
 -6.13520E+03 -8.64880E+03 -1.06815E+02 -1.25398E+04  7.39660E+03 -1.09056E+04  1.24034E+04 -3.85501E+03
  1.15913E+04  5.86126E+03  5.18855E+03  1.02667E+04 -2.93554E+03  1.22110E+04 -9.43656E+03  8.02594E+03
 -1.17894E+04  9.23920E+02 -8.79042E+03 -6.94021E+03 -1.22115E+03 -9.89314E+03  5.22993E+03 -7.93497E+03
  8.00584E+03 -2.65707E+03  4.84432E+03  2.15887E+03  1.52770E+03  4.12687E+03  1.67900E+03  1.28851E+03
  2.49228E+03  7.70778E+02  3.25020E+03  1.71437E+03  3.25268E+03  5.01029E+03  3.49852E+03  5.91086E+03
 -2.90937E+03  8.62097E+03 -8.32059E+03  9.09909E+03 -1.21834E+04  1.86717E+03 -1.24503E+04 -5.13930E+03
 -6.41380E+03 -1.21415E+04  1.09842E+03 -1.33930E+04  7.47318E+03 -8.21816E+03  9.72133E+03 -1.75176E+03
  7.43980E+03  3.99252E+03  1.74475E+03  6.87807E+03 -3.42361E+03  4.95463E+03 -5.31029E+03 -8.69913E+02
 -2.55226E+03 -5.13704E+03  2.69171E+03 -5.36945E+03  4.68559E+03 -2.63398E+03  4.30084E+03  3.95153E+02
  3.33206E+03  1.67656E+03  7.48846E+02  1.57661E+03 -3.10603E+02  1.53396E+03  1.60919E+03 -1.11678E+03
  1.19291E+03 -9.87468E+02  4.46003E+03  2.15758E+03  3.38512E+03  6.28669E+03 -1.64415E+03  9.27269E+03
 -5.93714E+03  5.51840E+03 -8.03437E+03  1.33978E+03 -7.58108E+03 -2.58892E+03 -1.94281E+03 -4.33815E+03
  1.29577E+03 -4.88494E+03  2.96111E+03 -1.63724E+03  2.54377E+03  1.40793E+03 -1.12634E+03  4.43220E+03
 -4.49686E+03  2.24135E+03 -5.73535E+03 -3.21628E+03 -2.50991E+03 -6.37659E+03  5.99950E+02 -6.86370E+03
  4.04446E+03 -3.24227E+03  3.92624E+03  1.93326E+02  3.20631E+03  1.53464E+03  7.34103E+02  4.16891E+03
 -2.29415E+03  1.21212E+03 -2.69383E+03 -1.85411E+03  1.06758E+03 -4.79232E+03  5.55968E+03 -4.34636E+03
  7.20833E+03  2.03868E+01  7.58142E+03  4.70636E+03  2.02042E+03  7.55247E+03 -3.01427E+03  7.83224E+03
 -5.59765E+03  3.12405E+03 -6.63875E+03 -1.31271E+03 -3.69469E+03 -4.86639E+03  1.74161E+03 -4.27892E+03
  5.02334E+03 -2.25107E+03  3.74831E+03  2.63457E+03  1.28553E+03  3.66835E+03 -3.82488E+02  4.62483E+03
 -2.13423E+03  2.79150E+03 -2.31836E+03  4.56256E+02 -3.25487E+02  8.60922E+02 -1.10999E+03  2.27004E+03
 -2.63203E+03  2.42254E+03 -5.07747E+03  2.98946E+03 -7.24931E+03 -8.18342E+02 -9.35481E+03 -4.41174E+03
 -3.88458E+03 -1.07470E+04  2.42600E+03 -1.07965E+04  7.45675E+03 -9.46303E+03  1.07150E+04 -3.46665E+03
  1.04411E+04  1.67627E+03  6.39610E+03  6.87261E+03  1.08531E+03  7.80764E+03 -2.79274E+03  5.27961E+03
 -3.59294E+03  2.29625E+03 -2.43152E+03 -3.10139E+02 -8.90405E+02 -9.94934E+02 -6.79155E+02 -1.53644E+02
 -1.44659E+03  1.74586E+02 -1.80776E+03 -6.09738E+02 -4.02384E+02 -2.19689E+03  2.65213E+02 -3.38078E+03
  3.88917E+03 -2.71120E+03  4.65639E+03  2.54665E+02  5.77382E+03  3.62726E+03  1.29553E+03  7.28362E+03
 -3.43792E+03  8.43289E+03 -7.61061E+03  5.24932E+03 -8.61455E+03 -2.13824E+02 -6.69579E+03 -5.44096E+03
 -3.07445E+03 -7.75071E+03  1.80170E+03 -7.16809E+03  4.84242E+03 -3.19176E+03  5.09207E+03  2.74744E+01
  2.55014E+03  3.07469E+03 -4.44829E+02  1.49963E+03 -1.40397E+03  3.22953E+01 -1.59341E+01 -2.02067E+03
  2.83184E+03 -1.09110E+03  2.50191E+03  1.03636E+03  2.23192E+03  2.65141E+03  2.80298E+02  3.72963E+03
 -3.00525E+03  3.41698E+03 -4.45161E+03  3.35104E+02 -4.28409E+03 -3.63213E+03 -2.47931E+02 -6.32698E+03
  3.59065E+03 -5.18499E+03  5.99124E+03 -1.44751E+03  5.45100E+03  1.20692E+03  3.71931E+03  4.07429E+03
  6.61272E+02  4.62001E+03 -1.64605E+03  3.71715E+03 -2.73715E+03  2.92344E+03 -2.79815E+03  6.61707E+02
 -1.56243E+03 -2.55028E+02 -1.82295E+03  1.07863E+03 -2.38388E+03  1.14887E+03 -3.77937E+03 -8.52837E+02
 -3.99880E+03 -2.60759E+03 -4.12049E+02 -4.75017E+03  2.49531E+03 -5.82241E+03  3.85477E+03 -2.33807E+03
  4.60413E+03  9.70013E+02  2.05306E+03  2.97120E+03 -2.49583E+02  4.22627E+03 -3.69335E+03  3.12806E+03
