 $NMID ID='MM_0lb_SNR400_8hz_g55_74.RAW', FMTDAT='(8E13.5)'
 TRAMP=1., VOLUME=1. $END
  3.09794E+05 -1.49130E+02  3.38384E+05  2.50371E+05  8.46685E+04  3.38550E+05 -1.33033E+05  2.52076E+05
 -1.90153E+05  8.42511E+04 -1.12236E+05 -3.22812E+04 -1.91590E+02 -5.04360E+04  5.44933E+04  2.26571E+02
  3.55649E+04  5.28265E+04 -1.61989E+04  7.61531E+04 -6.14001E+04  6.47217E+04 -8.50029E+04  3.22769E+04
 -8.40906E+04 -1.16688E+04 -5.92070E+04 -5.26277E+04 -1.54479E+04 -7.14629E+04  2.83516E+04 -4.66726E+04
  4.14246E+04  3.62156E+03  1.74231E+04  4.88885E+04 -3.45746E+04  4.91685E+04 -6.84932E+04 -3.25784E+02
 -5.48813E+04 -5.72375E+04 -7.19908E+03 -7.94857E+04  3.59878E+04 -5.70795E+04  5.09287E+04 -1.84081E+04
  4.54608E+04  1.11111E+04  3.31856E+04  2.79269E+04  1.58964E+04  3.12143E+04 -6.37660E+03  2.87570E+04
 -2.31474E+04  1.21055E+04 -1.81343E+04 -5.88963E+03  8.08380E+03 -7.63130E+03  2.36458E+04  1.42002E+04
  6.55244E+03  3.74904E+04 -3.42942E+04  3.81652E+04 -6.65193E+04  2.38810E+03 -5.99349E+04 -4.52421E+04
 -1.22622E+04 -6.64050E+04  4.14095E+04 -4.74938E+04  6.24024E+04 -2.96669E+03  3.79062E+04  3.53311E+04
 -5.11297E+03  4.00613E+04 -3.25806E+04  2.01086E+04 -3.43388E+04 -3.81153E+03 -2.02359E+04 -1.13894E+04
 -9.73002E+03 -1.56326E+04 -2.02487E+02 -1.99577E+04  7.96159E+03 -2.33266E+04  1.56774E+04 -1.32818E+04
  1.07267E+04  6.56072E+03 -1.13290E+04  1.32465E+04 -2.48312E+04 -7.22683E+03 -7.93171E+03 -3.88199E+04
  2.57289E+04 -4.75816E+04  5.24597E+04 -2.11825E+04  5.04307E+04  2.19756E+04  1.79001E+04  4.84369E+04
 -1.73123E+04  3.72028E+04 -2.79544E+04  2.85236E+03 -1.14122E+04 -3.02994E+04  2.25939E+04 -3.73877E+04
  4.55777E+04 -1.16679E+04  4.15937E+04  2.56339E+04  2.21663E+04  5.32396E+04 -8.64347E+03  5.80476E+04
 -3.62043E+04  3.99940E+04 -4.87835E+04  1.09955E+04 -4.96350E+04 -1.98902E+04 -2.71721E+04 -4.38135E+04
  8.75242E+03 -4.32122E+04  3.46818E+04 -1.77224E+04  3.25392E+04  1.15857E+04  5.31662E+03  2.12939E+04
 -1.43908E+04  9.58564E+03 -1.11469E+04 -6.77685E+03  5.26605E+03 -1.20921E+04  2.06612E+04  5.32997E+03
  1.55884E+04  2.27586E+04 -4.80714E+03  2.78774E+04 -2.32303E+04  1.46117E+04 -3.18682E+04 -2.31279E+03
 -2.58441E+04 -1.76799E+04 -1.26603E+04 -2.65056E+04  4.97428E+03 -2.78823E+04  2.09191E+04 -2.47667E+04
  3.43413E+04 -1.50494E+04  3.98428E+04  5.48270E+03  2.86696E+04  2.52265E+04  4.05567E+03  4.31911E+04
 -2.14037E+04  3.57697E+04 -3.10456E+04  1.20776E+04 -2.24278E+04 -1.05805E+04 -4.59645E+03 -1.29815E+04
 -2.69537E+02  4.60394E+02 -8.46067E+03  7.99976E+03 -2.14239E+04  5.13230E+03 -2.22133E+04 -9.44016E+03
 -1.30924E+04 -2.51433E+04  4.94148E+03 -2.92170E+04  2.03446E+04 -2.04974E+04  2.43110E+04 -6.64001E+02
  1.52191E+04  1.69115E+04 -8.49867E+02  2.44511E+04 -1.79494E+04  1.44923E+04 -2.55167E+04 -5.33554E+03
 -1.84544E+04 -2.34315E+04 -2.16735E+03 -2.95568E+04  1.36780E+04 -2.47252E+04  2.44716E+04 -1.33978E+04
  2.35547E+04 -3.44476E+01  1.74887E+04  5.44617E+03  8.92985E+03  1.54631E+03  1.36509E+04 -2.02207E+03
  2.35895E+04  3.14710E+03  2.79190E+04  1.89100E+04  1.94010E+04  3.93415E+04 -2.71517E+03  4.81708E+04
 -2.65396E+04  3.93523E+04 -4.47983E+04  2.02894E+04 -4.77770E+04 -3.84072E+03 -3.87098E+04 -2.80380E+04
 -1.54608E+04 -4.01711E+04  1.46252E+04 -3.50231E+04  3.03185E+04 -1.57863E+04  2.58485E+04  9.57240E+03
  8.39860E+03  2.01001E+04 -1.13499E+04  1.69901E+04 -2.14811E+04  2.64091E+03 -1.65246E+04 -1.30813E+04
 -4.72755E+02 -2.14548E+04  1.12566E+04 -1.48404E+04  1.45586E+04 -1.61774E+03  3.16160E+03  9.51941E+03
 -8.26242E+03  4.28848E+03 -1.12509E+04 -6.77206E+03 -2.06459E+03 -1.97989E+04  1.26204E+04 -2.16932E+04
  2.53413E+04 -1.22314E+04  2.88512E+04  2.81396E+03  2.56267E+04  2.01713E+04  1.10489E+04  3.24185E+04
 -5.76459E+03  3.36317E+04 -2.25826E+04  2.09073E+04 -2.42029E+04  4.65432E+03 -1.80598E+04 -7.39440E+03
 -6.69643E+03 -7.86653E+03 -1.03944E+03 -1.30501E+02 -3.27040E+03  3.50171E+03 -7.88344E+03  5.73203E+03
 -1.43224E+04 -1.92840E+03 -1.63342E+04 -1.30505E+04 -6.51192E+03 -2.11872E+04  7.38047E+03 -1.69079E+04
  1.36625E+04 -6.95929E+03  1.06815E+04  4.46281E+03 -2.44112E+02  7.39072E+03 -8.71732E+03 -6.56737E+02
 -8.78399E+03 -1.10518E+04 -9.83493E+02 -1.79326E+04  1.05788E+04 -1.81528E+04  2.15478E+04 -9.81400E+03
  2.57381E+04  2.95420E+03  1.89960E+04  1.56760E+04  3.02695E+03  2.11019E+04 -9.81987E+03  1.73024E+04
 -1.43629E+04  4.97740E+03 -7.56310E+03 -4.00011E+03  2.16746E+03 -4.86789E+03  8.44206E+03 -8.40979E+02
  8.51056E+03  7.43773E+03  1.44736E+03  1.46884E+04 -1.05796E+04  1.31590E+04 -1.73972E+04  3.37095E+03
 -1.24956E+04 -9.47877E+03  3.15478E+01 -1.49928E+04  9.65513E+03 -8.53663E+03  9.87700E+03  4.73166E+03
  2.00786E+03  1.16890E+04 -9.05349E+03  1.26288E+04 -1.54368E+04  4.79754E+03 -1.50852E+04 -6.08856E+03
 -8.74966E+03 -1.82618E+04  4.57198E+03 -2.13114E+04  1.69116E+04 -1.21170E+04  1.83239E+04  3.09682E+03
  1.12845E+04  1.51939E+04 -1.70851E+03  1.77274E+04 -1.27727E+04  9.17782E+03 -1.42281E+04 -1.31413E+03
 -1.13575E+04 -1.16366E+04 -2.17793E+03 -1.31569E+04  7.62213E+03 -1.08249E+04  9.28052E+03 -4.42032E+03
  6.60918E+03  3.27758E+03 -1.25654E+03  2.07518E+03 -1.60292E+03 -4.45580E+03  3.17793E+03 -7.94270E+03
  1.22708E+04 -5.26281E+03  1.79187E+04  2.58755E+03  1.78222E+04  1.22319E+04  1.10500E+04  2.38315E+04
 -5.65886E+03  2.74759E+04 -2.32135E+04  1.94691E+04 -2.95112E+04  4.35877E+03 -2.37216E+04 -1.04854E+04
 -1.13897E+04 -2.02871E+04 -2.68715E+02 -1.78967E+04  5.79543E+03 -9.37335E+03  5.69134E+03 -6.02443E+03
  4.09445E+03 -3.49096E+03  4.26563E+03 -3.80030E+03  6.31543E+03 -4.17586E+03  1.01094E+04 -1.82046E+03
  1.20160E+04  2.07244E+03  7.42127E+03  1.02866E+04 -2.66424E+03  1.31174E+04 -1.22973E+04  9.64837E+03
 -1.69596E+04 -1.69313E+03 -1.15251E+04 -1.21679E+04 -1.89152E+03 -1.89590E+04  9.30358E+03 -1.87517E+04
  1.87276E+04 -9.78726E+03  2.26447E+04  3.34985E+03  1.60473E+04  1.54973E+04  2.17750E+03  2.04903E+04
 -8.93779E+03  1.73560E+04 -1.25073E+04  5.44253E+03 -7.44152E+03 -1.83300E+03 -2.66657E+03 -1.83233E+03
 -8.65820E+02  3.00792E+02 -3.18562E+03  3.28691E+03 -7.08834E+03  2.52027E+03 -1.16662E+04 -1.98745E+03
 -8.83522E+03 -1.19951E+04 -2.04448E+02 -1.61367E+04  1.01568E+04 -1.58817E+04  1.73405E+04 -5.75723E+03
  1.74971E+04  8.67423E+03  8.13787E+03  1.61214E+04 -3.87082E+03  1.72598E+04 -1.16856E+04  1.09161E+04
 -1.63459E+04  1.18736E+03 -1.27479E+04 -1.11543E+04 -1.50056E+03 -1.45760E+04  6.73281E+03 -1.16362E+04
  9.88303E+03 -3.31890E+03  8.70765E+03  2.41664E+03  3.37664E+03  4.46737E+03  6.42219E+02  2.47215E+03
  2.56838E+03  1.20465E+03  4.43065E+03  2.40468E+03  4.87164E+03  5.44681E+03  4.34674E+03  9.58175E+03
 -2.93440E+03  1.44289E+04 -1.25207E+04  1.31238E+04 -1.81434E+04  3.95900E+03 -1.91579E+04 -7.83325E+03
 -9.09909E+03 -1.75542E+04  2.24796E+03 -1.88181E+04  1.03602E+04 -1.25961E+04  1.45867E+04 -3.15425E+03
  1.19760E+04  6.59761E+03  3.37539E+03  1.12453E+04 -4.84031E+03  7.14886E+03 -7.73734E+03 -1.01188E+03
 -4.01705E+03 -7.80297E+03  4.02370E+03 -8.49959E+03  7.00776E+03 -4.11866E+03  7.93295E+03  2.70833E+03
  4.58665E+03  4.50192E+03  2.19759E+03  2.83866E+03 -6.98397E+02  2.89011E+03  1.25055E+03 -1.01694E+03
  3.15034E+03 -8.12088E+02  6.92542E+03  3.05239E+03  3.82003E+03  8.86057E+03 -1.53475E+03  1.20404E+04
 -9.24877E+03  8.58498E+03 -1.07825E+04  1.90827E+03 -1.01574E+04 -4.77729E+03 -4.95894E+03 -7.04131E+03
  8.34566E+02 -7.73082E+03  3.54494E+03 -3.06978E+03  4.58186E+03  3.68959E+03 -2.34181E+03  5.77429E+03
 -6.76336E+03  3.89896E+03 -7.98973E+03 -4.51534E+03 -3.85790E+03 -9.98820E+03  7.67686E+02 -9.92440E+03
  6.94969E+03 -5.82157E+03  7.74161E+03 -7.65674E+02  5.91196E+03  2.20807E+03  1.23029E+03  4.92472E+03
 -3.64470E+03  1.08915E+03 -5.37388E+03 -3.92253E+03  1.33560E+03 -7.37156E+03  1.02694E+04 -6.86070E+03
  1.16016E+04  8.03716E+02  1.08087E+04  8.76838E+03  3.49126E+03  1.23688E+04 -4.41617E+03  1.10368E+04
 -9.35620E+03  5.35746E+03 -1.13288E+04 -1.39935E+03 -5.32031E+03 -8.22435E+03  1.94033E+03 -7.64999E+03
  7.42940E+03 -3.39701E+03  7.33340E+03  3.44213E+03  1.98984E+03  7.14352E+03 -8.59387E+02  5.16936E+03
 -3.49587E+03  3.72548E+03 -2.86656E+03  1.24736E+03 -1.84931E+03  1.82685E+03 -1.85944E+03  2.63703E+03
 -2.96291E+03  4.97386E+03 -7.81216E+03  5.03560E+03 -1.11337E+04  6.80547E+02 -1.38289E+04 -7.55637E+03
 -6.86677E+03 -1.52619E+04  3.36027E+03 -1.86230E+04  1.21094E+04 -1.47857E+04  1.67739E+04 -4.69717E+03
  1.67800E+04  3.10871E+03  9.65145E+03  1.14222E+04  7.71341E+02  1.38943E+04 -5.67802E+03  9.64907E+03
 -7.51972E+03  4.09835E+03 -5.35238E+03 -1.64146E+03 -5.69175E+02 -2.15130E+03 -8.62533E+02 -1.68325E+02
 -2.45996E+03  5.70248E+01 -2.61268E+03  1.33858E+02 -1.02062E+03 -2.84587E+03 -6.08878E+01 -4.82495E+03
  6.49684E+03 -4.43383E+03  8.07375E+03  9.78815E+02  9.06915E+03  5.92009E+03  2.55535E+03  1.33195E+04
 -6.44749E+03  1.48174E+04 -1.34808E+04  8.18250E+03 -1.58659E+04 -1.37484E+03 -1.22320E+04 -9.88402E+03
 -4.87035E+03 -1.39074E+04  2.79010E+03 -1.32976E+04  8.11714E+03 -7.26236E+03  8.52120E+03  2.80905E+02
  4.11602E+03  4.19301E+03 -9.42247E+02  2.92091E+03 -2.88246E+03 -1.00972E+03  2.17323E+02 -2.51206E+03
  3.76477E+03 -2.12476E+03  4.16962E+03  2.36822E+03  3.52749E+03  4.90673E+03  3.36359E+01  6.30089E+03
 -5.88068E+03  5.43337E+03 -9.01089E+03  2.68128E+02 -8.91405E+03 -6.71824E+03 -4.25345E+02 -1.08175E+04
  5.91402E+03 -9.00880E+03  1.02279E+04 -3.12790E+03  9.56001E+03  3.08314E+03  6.20172E+03  8.46684E+03
  9.21163E+02  7.99145E+03 -3.53229E+03  7.23717E+03 -5.63719E+03  3.72911E+03 -4.96742E+03  2.64657E+02
 -1.94676E+03 -3.55867E+01 -2.77898E+03  1.26969E+03 -5.37575E+03  8.73373E+02 -6.73605E+03 -1.99019E+03
 -6.08223E+03 -5.02713E+03 -2.18071E+03 -8.75124E+03  4.15325E+03 -8.16313E+03  8.38585E+03 -4.71006E+03
  8.88129E+03  1.55719E+03  5.65266E+03  6.83243E+03 -3.76069E+02  8.41186E+03 -7.13143E+03  5.74350E+03
