 $NMID ID='MM_0lb_SNR400_14hz_g50_24.RAW', FMTDAT='(8E13.5)'
 TRAMP=1., VOLUME=1. $END
  3.09519E+05  2.85321E+02  3.37711E+05  2.50733E+05  8.41750E+04  3.38175E+05 -1.32713E+05  2.51333E+05
 -1.89718E+05  8.24388E+04 -1.11482E+05 -3.26131E+04  7.15645E+02 -5.07425E+04  5.34934E+04  1.85600E+02
  3.58371E+04  5.24266E+04 -1.66869E+04  7.57287E+04 -6.08800E+04  6.35665E+04 -8.44438E+04  3.19784E+04
 -8.09534E+04 -1.16191E+04 -5.71954E+04 -5.06370E+04 -1.51742E+04 -6.97439E+04  2.75644E+04 -4.59801E+04
  4.03912E+04  3.69836E+03  1.64962E+04  4.76966E+04 -3.38108E+04  4.72958E+04 -6.66201E+04 -2.98411E+02
 -5.38025E+04 -5.61182E+04 -7.45830E+03 -7.69937E+04  3.34293E+04 -5.53569E+04  4.81233E+04 -1.66807E+04
  4.37323E+04  1.15496E+04  3.22001E+04  2.54765E+04  1.57078E+04  2.97348E+04 -5.53946E+03  2.73712E+04
 -2.13711E+04  1.20877E+04 -1.81097E+04 -4.86740E+03  4.60233E+03 -7.98464E+03  2.21834E+04  1.20168E+04
  7.28249E+03  3.50457E+04 -3.25098E+04  3.49324E+04 -6.31516E+04  2.09343E+03 -5.69831E+04 -4.28661E+04
 -1.22376E+04 -6.35090E+04  3.97622E+04 -4.55771E+04  5.79799E+04 -2.16063E+03  3.48524E+04  3.19948E+04
 -6.42595E+03  3.57845E+04 -2.96904E+04  1.58813E+04 -3.00664E+04 -4.83991E+03 -1.71887E+04 -1.03226E+04
 -8.14661E+03 -1.27498E+04 -1.03449E+03 -1.79027E+04  7.15102E+03 -2.27613E+04  1.49398E+04 -1.35561E+04
  1.14624E+04  5.36902E+03 -8.42171E+03  1.26592E+04 -2.09805E+04 -4.21254E+03 -8.22382E+03 -3.34682E+04
  2.27447E+04 -4.43634E+04  4.80112E+04 -1.95414E+04  4.52586E+04  1.88086E+04  1.54386E+04  4.46034E+04
 -1.64400E+04  3.37174E+04 -2.53669E+04  2.08317E+03 -9.96834E+03 -2.78801E+04  2.10463E+04 -3.45558E+04
  4.13615E+04 -8.97503E+03  3.58174E+04  2.30114E+04  1.78108E+04  4.62385E+04 -7.81584E+03  4.95124E+04
 -3.15119E+04  3.41639E+04 -4.20302E+04  9.47232E+03 -4.29376E+04 -1.66125E+04 -2.41066E+04 -3.75125E+04
  7.17650E+03 -3.78200E+04  3.15773E+04 -1.47752E+04  2.88348E+04  1.06683E+04  4.13711E+03  1.87255E+04
 -1.29951E+04  8.48153E+03 -1.03113E+04 -7.19177E+03  5.85073E+03 -1.07272E+04  1.82976E+04  5.74424E+03
  1.36393E+04  2.22422E+04 -5.82517E+03  2.47794E+04 -2.30748E+04  1.11604E+04 -2.84083E+04 -4.83663E+03
 -2.11097E+04 -1.78046E+04 -8.68004E+03 -2.04218E+04  3.59612E+03 -1.94906E+04  1.59687E+04 -1.88233E+04
  2.63305E+04 -1.21952E+04  3.26310E+04  2.97362E+03  2.40543E+04  1.99628E+04  4.35238E+03  3.65942E+04
 -1.79327E+04  3.01919E+04 -2.83592E+04  1.05715E+04 -2.08838E+04 -1.00884E+04 -4.21575E+03 -1.35632E+04
  1.55910E+03 -2.48386E+03 -5.09354E+03  6.69122E+03 -1.64723E+04  4.89744E+03 -1.61780E+04 -7.79514E+03
 -1.07003E+04 -1.88239E+04  5.43170E+03 -2.25854E+04  1.55808E+04 -1.67565E+04  1.79696E+04 -1.82281E+03
  1.18970E+04  1.31904E+04 -1.09582E+03  1.93352E+04 -1.31210E+04  1.07685E+04 -1.93305E+04 -4.17352E+03
 -1.38878E+04 -1.73286E+04 -1.49734E+03 -2.30196E+04  1.00281E+04 -1.85957E+04  1.90141E+04 -9.32678E+03
  1.81965E+04  1.01132E+02  1.25770E+04  4.96240E+03  7.03399E+03  1.27192E+03  9.65081E+03 -2.63554E+03
  1.76576E+04  2.79471E+03  1.96943E+04  1.59986E+04  1.26041E+04  2.99242E+04 -2.70060E+03  3.47555E+04
 -1.96200E+04  2.80870E+04 -3.17488E+04  1.45314E+04 -3.38433E+04 -2.18661E+03 -2.78677E+04 -1.97454E+04
 -1.17972E+04 -2.80989E+04  9.75450E+03 -2.51857E+04  2.14859E+04 -1.31158E+04  1.91361E+04  5.56692E+03
  7.39130E+03  1.37710E+04 -8.40843E+03  1.23153E+04 -1.55402E+04  2.90203E+03 -1.24632E+04 -9.90020E+03
  2.20442E+02 -1.51446E+04  8.05527E+03 -1.15395E+04  1.06576E+04 -1.72465E+03  2.41214E+03  6.68909E+03
 -6.38695E+03  2.22283E+03 -5.74512E+03 -4.89458E+03 -7.37757E+02 -1.37651E+04  8.97433E+03 -1.45798E+04
  1.69589E+04 -7.41626E+03  1.86351E+04  2.79210E+03  1.55765E+04  1.32321E+04  7.16334E+03  1.99213E+04
 -3.53769E+03  2.19587E+04 -1.35033E+04  1.37605E+04 -1.60622E+04  3.20191E+03 -1.14258E+04 -3.43815E+03
 -5.16654E+03 -4.54152E+03 -1.03297E+03  8.90122E+02 -2.75922E+03  2.67474E+03 -5.10622E+03  3.39667E+03
 -1.05402E+04 -5.10176E+02 -1.13270E+04 -9.64227E+03 -4.93515E+03 -1.45082E+04  4.71585E+03 -1.18146E+04
  9.69152E+03 -4.81161E+03  7.02895E+03  2.68417E+03  1.18624E+03  3.88638E+03 -4.62108E+03 -3.46589E+02
 -4.44530E+03 -7.22141E+03 -3.07265E+02 -1.07378E+04  5.90368E+03 -1.12962E+04  1.39629E+04 -5.55686E+03
  1.66531E+04  7.46371E+02  1.21497E+04  9.03954E+03  1.97377E+03  1.34189E+04 -7.11697E+03  1.12236E+04
 -9.40275E+03  3.69768E+03 -4.31420E+03 -2.41442E+03  1.86336E+03 -2.76834E+03  6.29200E+03 -9.10858E+02
  5.53987E+03  5.02254E+03  9.52428E+02  8.31709E+03 -6.38405E+03  8.43629E+03 -1.09410E+04  1.69688E+03
 -7.47046E+03 -5.76817E+03 -3.00142E+02 -1.00941E+04  6.02923E+03 -5.21965E+03  5.92453E+03  1.79829E+03
  1.18917E+03  5.97022E+03 -5.10047E+03  7.54921E+03 -8.34413E+03  3.11375E+03 -7.84698E+03 -2.51984E+03
 -4.69135E+03 -1.00262E+04  2.71250E+03 -1.14633E+04  9.89918E+03 -7.37052E+03  1.04104E+04  1.58040E+03
  7.06915E+03  8.64320E+03 -9.11162E+02  1.04754E+04 -7.49619E+03  6.00760E+03 -7.96912E+03 -1.10488E+01
 -7.87993E+03 -7.09709E+03 -1.15540E+03 -7.70330E+03  4.25619E+03 -5.99844E+03  4.11148E+03 -2.74058E+03
  3.05867E+03  8.13904E+02 -6.60021E+02  5.88443E+02  7.26404E+02 -1.59626E+03  7.16648E+02 -4.00157E+03
  6.37053E+03 -2.66413E+03  9.05757E+03  1.35074E+03  9.07233E+03  6.11150E+03  7.47368E+03  1.19900E+04
 -2.80067E+03  1.44207E+04 -1.21603E+04  1.05262E+04 -1.62160E+04  1.90710E+03 -1.24229E+04 -4.94836E+03
 -7.07484E+03 -1.08021E+04 -4.59812E+02 -8.64316E+03  3.60605E+03 -3.97946E+03  2.85345E+03 -4.09756E+03
  2.67745E+03 -2.68500E+03  2.82264E+03 -2.63712E+03  4.65213E+03 -2.34675E+03  5.46071E+03 -7.53718E+01
  7.29245E+03  1.45927E+03  2.75023E+03  5.30143E+03 -2.42130E+03  6.24641E+03 -6.82634E+03  4.57154E+03
 -8.21575E+03 -1.21811E+03 -4.17854E+03 -6.20368E+03 -3.02750E+02 -9.13593E+03  5.69853E+03 -8.42950E+03
  9.17355E+03 -5.49443E+03  1.10941E+04  1.40954E+03  7.99532E+03  8.00608E+03  2.37528E+03  1.06766E+04
 -4.09565E+03  8.85725E+03 -6.08626E+03  2.83770E+03 -3.93082E+03 -6.15481E+02 -1.35225E+03 -1.36420E+03
 -7.54844E+02  1.10873E+03 -1.94433E+03  2.76634E+03 -4.07555E+03  1.96207E+03 -6.30028E+03  1.60271E+02
 -3.65696E+03 -6.40904E+03  1.70619E+02 -8.02462E+03  5.21325E+03 -8.06390E+03  7.81400E+03 -2.13757E+03
  8.02446E+03  3.85383E+03  3.40110E+03  6.78296E+03 -1.58558E+03  8.19414E+03 -5.90056E+03  4.67370E+03
 -7.51669E+03  2.94615E+02 -5.89648E+03 -4.47620E+03 -4.44486E+02 -6.54775E+03  3.38713E+03 -5.29734E+03
  5.01595E+03 -2.13931E+03  3.45917E+03  1.06069E+03  1.14241E+03  3.41277E+03  1.92448E+03  8.42278E+02
  2.46250E+03  7.45521E+02  2.45507E+03  9.08483E+02  1.88955E+03  3.57112E+03  1.94913E+03  3.70766E+03
 -1.72414E+03  6.66423E+03 -4.27012E+03  6.52651E+03 -7.07900E+03  1.86162E+03 -8.23110E+03 -2.13657E+03
 -3.74558E+03 -7.48495E+03  1.27048E+03 -8.40169E+03  4.83686E+03 -4.98509E+03  6.55902E+03 -1.85770E+03
  4.86404E+03  2.52905E+03  1.30664E+03  4.40693E+03 -2.17848E+03  2.72002E+03 -2.79493E+03 -8.81494E+02
 -1.61511E+03 -3.13995E+03  1.76950E+03 -2.73788E+03  3.08627E+03 -1.93913E+03  2.95342E+03  4.03059E+02
  1.31456E+03  1.21473E+03  7.61873E+02  5.81748E+02 -7.52887E+02  1.27293E+03  1.32272E+03 -8.72644E+01
  1.00748E+03 -4.14638E+02  3.00127E+03  1.00114E+03  1.43812E+03  4.41541E+03 -8.51726E+02  4.76830E+03
 -3.69535E+03  3.11544E+03 -4.75272E+03  5.24446E+02 -4.47527E+03 -1.52546E+03 -1.34893E+03 -2.55683E+03
  2.03574E+02 -2.66390E+03  1.78952E+03 -9.71485E+02  1.53034E+03  1.31554E+03 -1.14506E+03  2.67807E+03
 -2.87765E+03  1.15125E+03 -2.77697E+03 -1.98682E+03 -1.89187E+03 -4.41637E+03  3.00900E+01 -4.13115E+03
  2.16624E+03 -3.11729E+03  2.77214E+03 -1.96932E+02  3.09878E+03  7.93559E+02  2.52618E+02  2.02505E+03
 -1.10783E+03  5.76134E+02 -1.58305E+03 -1.40270E+03  9.52521E+02 -2.02587E+03  3.77486E+03 -2.15135E+03
  3.75889E+03  4.07558E+02  4.79568E+03  2.83006E+03  9.84213E+02  4.29415E+03 -1.45037E+03  4.19434E+03
 -3.43237E+03  1.54846E+03 -3.42477E+03 -6.88924E+01 -1.86569E+03 -2.71887E+03  1.12339E+03 -2.79382E+03
  2.96762E+03 -1.59146E+03  1.65004E+03  9.90777E+02  9.75396E+02  2.61982E+03 -9.27142E+02  2.38366E+03
 -1.22528E+03  1.05915E+03 -1.37508E+03  9.39004E+01  4.77457E+02 -1.35146E+01 -1.37674E+03  9.20913E+02
 -1.22774E+03  1.27049E+03 -3.51567E+03  1.69926E+03 -3.83380E+03 -2.38364E+02 -4.53168E+03 -2.70728E+03
 -1.86745E+03 -5.59724E+03  1.00224E+03 -5.84410E+03  3.78369E+03 -5.48707E+03  6.32726E+03 -2.03222E+03
  5.87321E+03  1.06703E+03  3.32991E+03  3.98652E+03 -4.89383E+02  3.28820E+03 -1.78128E+03  3.00771E+03
 -2.52623E+03  1.88791E+03 -1.67455E+03 -5.22601E+02 -7.69590E+02  2.40154E+01 -8.16759E+02  9.09678E+01
 -1.68047E+03  4.77139E+02 -1.01047E+03  2.38999E+02  9.18215E+01 -1.14653E+03 -1.58584E+02 -1.64191E+03
  1.78047E+03 -1.27487E+03  1.75279E+03 -2.73778E+02  2.18079E+03  2.29039E+03  9.09789E+02  4.87584E+03
 -2.16970E+03  4.85639E+03 -3.61208E+03  2.69769E+03 -4.47026E+03 -1.55713E+02 -3.68532E+03 -2.85447E+03
 -1.46097E+03 -3.67413E+03  9.42735E+02 -3.98781E+03  2.38704E+03 -1.71549E+03  2.40494E+03 -2.03332E+02
  9.82414E+02  1.09171E+03  2.28097E+02  1.58774E+03 -7.62023E+02  4.93083E+01  3.34329E+02 -7.46243E+02
  1.30266E+03 -4.71814E+02  1.39416E+03  1.25295E+03  9.07552E+02  1.81346E+03  2.19296E+02  2.13847E+03
 -1.59023E+03  1.98094E+03 -2.08590E+03  1.63395E+02 -2.41370E+03 -1.75725E+03 -7.81219E+01 -2.61299E+03
  1.74796E+03 -2.30620E+03  2.50291E+03 -5.89097E+02  2.71908E+03  4.21467E+01  6.30748E+02  2.77507E+03
  1.74631E+02  2.39122E+03 -6.77370E+02  1.04422E+03 -1.60888E+03  1.36415E+03 -1.38175E+03 -1.22888E+02
 -5.54983E+02 -1.32542E+02 -9.08768E+02  1.87511E+02 -1.50106E+03  6.80650E+02 -2.41605E+03 -4.55791E+02
 -1.65220E+03 -5.87636E+02 -4.38390E+02 -2.67559E+03  1.19041E+03 -3.13367E+03  2.02126E+03 -1.47761E+03
  1.86069E+03  2.03943E+02  8.36721E+02  2.15258E+03 -1.37319E+02  2.60944E+03 -1.79849E+03  1.90653E+03
