 $NMID ID='MM_0lb_SNR400_10hz_g40_3.RAW', FMTDAT='(8E13.5)'
 TRAMP=1., VOLUME=1. $END
  3.09814E+05  1.84918E+03  3.37884E+05  2.51062E+05  8.50312E+04  3.38532E+05 -1.32514E+05  2.51349E+05
 -1.90102E+05  8.38067E+04 -1.12137E+05 -3.26459E+04 -1.71616E+02 -5.10968E+04  5.35142E+04 -5.17823E+02
  3.54217E+04  5.29973E+04 -1.70591E+04  7.54875E+04 -6.05166E+04  6.34894E+04 -8.47111E+04  3.25541E+04
 -8.14418E+04 -1.12244E+04 -5.81154E+04 -5.12842E+04 -1.59708E+04 -7.06225E+04  2.76073E+04 -4.64682E+04
  4.12373E+04  3.67729E+03  1.61066E+04  4.84090E+04 -3.54412E+04  4.78466E+04 -6.71085E+04 -4.67198E+02
 -5.36009E+04 -5.72859E+04 -7.11029E+03 -7.82409E+04  3.42054E+04 -5.63639E+04  4.89288E+04 -1.83383E+04
  4.44537E+04  1.11082E+04  3.26934E+04  2.69399E+04  1.59206E+04  3.07851E+04 -4.68869E+03  2.74140E+04
 -2.22500E+04  1.20599E+04 -1.78756E+04 -5.07874E+03  6.54515E+03 -6.84082E+03  2.26900E+04  1.29801E+04
  7.55433E+03  3.65745E+04 -3.34519E+04  3.65200E+04 -6.56255E+04  2.10838E+03 -5.74931E+04 -4.36346E+04
 -1.30822E+04 -6.49365E+04  4.09285E+04 -4.65479E+04  5.95576E+04 -2.82280E+03  3.59331E+04  3.35406E+04
 -5.85776E+03  3.86369E+04 -3.07652E+04  1.79100E+04 -3.25316E+04 -3.66195E+03 -1.83098E+04 -1.16063E+04
 -8.55344E+03 -1.48139E+04 -7.44021E+02 -1.94457E+04  7.71438E+03 -2.28860E+04  1.51907E+04 -1.23892E+04
  1.07541E+04  6.60216E+03 -9.67800E+03  1.28315E+04 -2.20309E+04 -5.26061E+03 -8.34681E+03 -3.60891E+04
  2.48403E+04 -4.59183E+04  4.98646E+04 -2.11063E+04  4.77954E+04  2.01071E+04  1.64018E+04  4.62689E+04
 -1.63807E+04  3.51384E+04 -2.65578E+04  2.30873E+03 -1.07501E+04 -2.84510E+04  2.18990E+04 -3.57018E+04
  4.30165E+04 -1.04468E+04  3.77181E+04  2.50179E+04  1.98390E+04  4.95830E+04 -8.77852E+03  5.30146E+04
 -3.31301E+04  3.61947E+04 -4.55200E+04  9.94926E+03 -4.60670E+04 -1.78089E+04 -2.53811E+04 -3.95226E+04
  7.44984E+03 -4.09892E+04  3.24169E+04 -1.57590E+04  3.07189E+04  1.11712E+04  4.98579E+03  2.01241E+04
 -1.40457E+04  9.39382E+03 -1.05168E+04 -7.27058E+03  5.67079E+03 -1.10541E+04  1.92194E+04  5.48433E+03
  1.34467E+04  2.24738E+04 -5.31522E+03  2.70664E+04 -2.28664E+04  1.33860E+04 -3.00945E+04 -3.88750E+03
 -2.35755E+04 -1.84265E+04 -1.07507E+04 -2.29592E+04  4.29904E+03 -2.36360E+04  1.85608E+04 -2.16040E+04
  2.89802E+04 -1.36029E+04  3.55146E+04  4.52533E+03  2.63508E+04  2.34009E+04  4.35930E+03  3.93645E+04
 -1.83784E+04  3.25237E+04 -2.96376E+04  1.10549E+04 -2.16187E+04 -1.04297E+04 -4.66012E+03 -1.37228E+04
  5.38671E+02 -1.42984E+03 -6.00654E+03  7.52643E+03 -1.79671E+04  5.19406E+03 -1.79078E+04 -8.29091E+03
 -1.11201E+04 -2.17156E+04  6.15038E+03 -2.49028E+04  1.70598E+04 -1.81032E+04  2.12993E+04 -1.42029E+03
  1.33177E+04  1.47744E+04 -1.51032E+03  2.13426E+04 -1.45033E+04  1.22526E+04 -2.19127E+04 -5.35115E+03
 -1.50234E+04 -1.87184E+04 -1.83891E+03 -2.58614E+04  1.09536E+04 -2.09876E+04  2.14374E+04 -1.16597E+04
  2.03176E+04 -6.96465E+02  1.49697E+04  5.27342E+03  8.18044E+03  1.45696E+03  1.14463E+04 -1.74073E+03
  2.03805E+04  2.87148E+03  2.30410E+04  1.70370E+04  1.59064E+04  3.49503E+04 -1.99909E+03  4.02414E+04
 -2.32827E+04  3.28425E+04 -3.82597E+04  1.66238E+04 -4.07017E+04 -3.19897E+03 -3.24434E+04 -2.37381E+04
 -1.34000E+04 -3.35502E+04  1.24281E+04 -3.01300E+04  2.52724E+04 -1.52717E+04  2.21688E+04  7.11834E+03
  8.47460E+03  1.68935E+04 -1.05188E+04  1.41156E+04 -1.89031E+04  2.44615E+03 -1.39229E+04 -1.12943E+04
  6.31723E+02 -1.80592E+04  9.97913E+03 -1.32271E+04  1.20880E+04 -1.30614E+03  3.46777E+03  7.70844E+03
 -8.25970E+03  3.36640E+03 -7.74934E+03 -7.29138E+03 -6.13294E+02 -1.68271E+04  1.11548E+04 -1.71909E+04
  2.11435E+04 -9.99637E+03  2.20667E+04  3.75077E+03  2.10414E+04  1.66254E+04  9.39930E+03  2.56454E+04
 -4.77461E+03  2.77939E+04 -1.83763E+04  1.71850E+04 -1.93400E+04  3.06631E+03 -1.43739E+04 -4.51116E+03
 -5.87500E+03 -6.85390E+03 -1.11482E+03  7.56124E+02 -2.48830E+03  3.21630E+03 -6.74176E+03  4.25339E+03
 -1.24966E+04 -9.12279E+02 -1.38013E+04 -1.05857E+04 -5.30237E+03 -1.80921E+04  5.31651E+03 -1.46223E+04
  1.13086E+04 -6.21706E+03  8.81067E+03  3.37668E+03 -1.79222E+01  5.67843E+03 -7.22015E+03 -3.04174E+02
 -6.27021E+03 -8.99792E+03 -3.57302E+02 -1.39248E+04  8.26273E+03 -1.47819E+04  1.77118E+04 -7.96501E+03
  2.10367E+04  2.54972E+03  1.54888E+04  1.26650E+04  2.88130E+03  1.65302E+04 -8.08723E+03  1.35559E+04
 -1.14686E+04  3.43400E+03 -5.80847E+03 -2.93203E+03  1.47764E+03 -3.75055E+03  8.18515E+03 -1.96689E+03
  6.36784E+03  5.74252E+03  1.34831E+03  1.07662E+04 -7.80072E+03  1.06067E+04 -1.38111E+04  2.28594E+03
 -9.42741E+03 -6.60716E+03  7.01563E+02 -1.19297E+04  7.84621E+03 -6.27913E+03  8.07646E+03  3.32340E+03
  1.51273E+03  8.77156E+03 -6.82790E+03  1.03340E+04 -1.12829E+04  3.55412E+03 -1.16244E+04 -3.90344E+03
 -5.98489E+03 -1.34047E+04  2.53248E+03 -1.51755E+04  1.35277E+04 -9.23381E+03  1.44945E+04  2.58095E+03
  9.03939E+03  1.08559E+04 -6.83911E+02  1.35221E+04 -9.87685E+03  7.78446E+03 -1.08059E+04 -7.45254E+02
 -9.57639E+03 -9.54917E+03 -2.26089E+03 -1.05173E+04  5.20062E+03 -8.56442E+03  6.36923E+03 -3.29011E+03
  4.50786E+03  1.71723E+03 -1.35560E+02  1.76801E+03 -4.83752E+02 -2.56460E+03  1.77640E+03 -6.75076E+03
  9.26866E+03 -3.44585E+03  1.34463E+04  9.75426E+02  1.31471E+04  9.17973E+03  9.24013E+03  1.85772E+04
 -3.93701E+03  2.02866E+04 -1.69642E+04  1.49846E+04 -2.22162E+04  3.46080E+03 -1.72031E+04 -7.37015E+03
 -8.98464E+03 -1.42930E+04 -7.76050E+02 -1.31854E+04  4.17578E+03 -6.69029E+03  4.28874E+03 -4.43978E+03
  2.35632E+03 -2.44990E+03  3.45250E+03 -4.22071E+03  5.65591E+03 -2.59983E+03  6.57860E+03 -1.10506E+03
  8.74706E+03  2.38166E+03  3.82562E+03  7.91901E+03 -1.91844E+03  9.92941E+03 -9.78838E+03  7.08486E+03
 -1.21838E+04 -1.61962E+03 -7.79638E+03 -8.50243E+03 -8.52939E+02 -1.34928E+04  7.37832E+03 -1.37647E+04
  1.35074E+04 -7.47149E+03  1.63098E+04  2.27168E+03  1.19548E+04  1.15501E+04  1.45696E+03  1.46533E+04
 -6.93430E+03  1.23735E+04 -8.95396E+03  4.65883E+03 -6.64236E+03 -1.42923E+03 -2.96390E+03 -1.84139E+03
 -1.59821E+03  8.74992E+01 -2.18858E+03  2.83886E+03 -5.66001E+03  1.51770E+03 -9.36340E+03 -1.35624E+03
 -6.39928E+03 -9.06146E+03 -7.81753E+01 -1.23773E+04  7.85573E+03 -1.12351E+04  1.25568E+04 -4.52257E+03
  1.26383E+04  6.20526E+03  5.77492E+03  1.13988E+04 -2.27135E+03  1.23753E+04 -8.58765E+03  7.51298E+03
 -1.08157E+04  7.33096E+02 -9.49096E+03 -7.81920E+03 -8.67599E+02 -1.06447E+04  5.76423E+03 -8.04382E+03
  7.30319E+03 -2.77195E+03  5.38422E+03  2.06826E+03  2.03838E+03  4.28577E+03  8.38698E+02  1.49983E+03
  2.84913E+03  9.30892E+02  3.13377E+03  2.36341E+03  3.80352E+03  4.86645E+03  3.15628E+03  6.78057E+03
 -2.68089E+03  1.05749E+04 -8.96470E+03  1.01614E+04 -1.31052E+04  2.38762E+03 -1.30907E+04 -5.01390E+03
 -6.21763E+03 -1.25499E+04  2.06530E+03 -1.42848E+04  7.36032E+03 -9.48310E+03  1.00957E+04 -2.27726E+03
  8.52698E+03  4.77609E+03  1.64528E+03  6.67561E+03 -2.81079E+03  4.85673E+03 -4.48102E+03 -4.88872E+02
 -2.80149E+03 -4.99162E+03  3.26325E+03 -4.72057E+03  5.51254E+03 -2.37891E+03  5.51366E+03  7.91302E+02
  2.30141E+03  3.04980E+03  1.37070E+03  1.67776E+03 -3.72908E+02  1.76719E+03  1.08318E+03 -1.12784E+03
  1.34408E+03 -6.10433E+02  4.76320E+03  2.15302E+03  2.30700E+03  6.79255E+03 -8.98413E+02  8.42975E+03
 -5.96488E+03  5.83474E+03 -7.50643E+03  2.35673E+03 -7.27396E+03 -2.52444E+03 -2.53802E+03 -5.69307E+03
  2.00275E+02 -4.44157E+03  2.75765E+03 -2.23610E+03  3.15527E+03  3.46250E+03 -1.06091E+03  4.74394E+03
 -5.65794E+03  2.69102E+03 -4.91271E+03 -4.06078E+03 -3.70638E+03 -7.00603E+03  7.47392E+02 -6.84501E+03
  3.55994E+03 -4.28476E+03  5.19329E+03 -1.40925E+03  3.80211E+03  1.68859E+03  5.91179E+02  3.61802E+03
 -1.59682E+03  4.67673E+02 -2.93519E+03 -2.26333E+03  1.46395E+03 -5.72304E+03  5.73069E+03 -4.02152E+03
  7.68044E+03 -2.61085E+01  7.75684E+03  5.05188E+03  2.80867E+03  7.95839E+03 -2.81884E+03  7.28533E+03
 -6.58491E+03  3.24257E+03 -6.63174E+03 -1.78501E+03 -3.93707E+03 -5.22791E+03  2.09408E+03 -4.55573E+03
  5.30981E+03 -2.60089E+03  4.10564E+03  2.39860E+03  1.77759E+03  4.60169E+03 -8.61063E+02  4.51483E+03
 -1.81391E+03  3.58143E+03 -2.03582E+03  2.84855E+02 -3.34944E+02  1.14864E+03 -1.39314E+03  1.95518E+03
 -1.84073E+03  3.32171E+03 -4.77029E+03  2.45524E+03 -7.15365E+03  3.31141E+02 -9.79263E+03 -5.12389E+03
 -4.17828E+03 -9.84308E+03  2.44163E+03 -1.20388E+04  7.88557E+03 -9.25371E+03  1.19988E+04 -3.95137E+03
  1.07793E+04  1.54827E+03  6.28667E+03  7.63554E+03 -9.55215E+01  8.72475E+03 -2.65225E+03  6.67232E+03
 -4.59226E+03  2.93866E+03 -2.76051E+03 -1.13031E+03 -1.35663E+03 -4.43726E+02 -1.44608E+03 -6.26794E+01
 -1.22514E+03 -2.59942E+02 -1.97718E+03  5.02497E+02 -2.79646E+01 -2.08564E+03  1.57472E+02 -2.98451E+03
  3.50421E+03 -2.84030E+03  5.09008E+03  4.35487E+02  6.00587E+03  3.93745E+03  1.70175E+03  7.95975E+03
 -3.43466E+03  9.22358E+03 -8.41640E+03  5.63546E+03 -1.06199E+04 -1.47846E+03 -7.26563E+03 -5.95619E+03
 -3.10508E+03 -8.35369E+03  1.94217E+03 -7.82847E+03  5.45152E+03 -4.33624E+03  5.07056E+03  1.59424E+01
  2.75557E+03  2.70238E+03  4.68062E+02  2.00152E+03 -2.21201E+03 -2.80277E+02  7.28859E+02 -2.58423E+03
  2.75558E+03  7.50951E+01  3.22715E+03  1.54986E+03  2.74684E+03  2.26700E+03  6.57745E+02  4.19134E+03
 -3.08687E+03  3.91803E+03 -4.35749E+03  8.87744E+02 -4.99206E+03 -3.41397E+03 -1.31524E+03 -6.75287E+03
  3.27127E+03 -5.30932E+03  5.66402E+03 -1.09218E+03  6.61815E+03  1.39301E+03  4.11229E+03  5.08984E+03
  4.45679E+02  5.39732E+03 -2.33847E+03  4.76911E+03 -3.15005E+03  1.51228E+03 -1.85814E+03 -1.20962E+02
 -1.52229E+03 -1.90936E+02 -2.24607E+03  8.86615E+02 -3.41982E+03  2.79210E+02 -4.29230E+03 -1.64118E+02
 -4.21121E+03 -2.36545E+03 -1.22145E+03 -5.44786E+03  2.82148E+03 -5.01444E+03  4.48994E+03 -2.75908E+03
  5.63784E+03  7.96054E+02  2.04716E+03  3.58689E+03 -4.87225E+02  5.32565E+03 -4.26639E+03  4.15350E+03
