 $NMID ID='MM_0lb_SNR400_11hz_g50_72.RAW', FMTDAT='(8E13.5)'
 TRAMP=1., VOLUME=1. $END
  3.09618E+05 -9.00966E+00  3.38207E+05  2.50249E+05  8.52470E+04  3.38676E+05 -1.32708E+05  2.51478E+05
 -1.90316E+05  8.38336E+04 -1.12304E+05 -3.22830E+04  5.36951E+02 -5.00242E+04  5.37127E+04 -2.94641E+02
  3.53461E+04  5.22774E+04 -1.66942E+04  7.52065E+04 -6.16271E+04  6.37540E+04 -8.46746E+04  3.21507E+04
 -8.12355E+04 -1.15845E+04 -5.78286E+04 -5.19529E+04 -1.50477E+04 -7.04570E+04  2.76426E+04 -4.70368E+04
  4.12533E+04  4.38574E+03  1.66509E+04  4.86334E+04 -3.49262E+04  4.83710E+04 -6.74726E+04 -2.91121E+02
 -5.38580E+04 -5.65439E+04 -6.43123E+03 -7.84259E+04  3.46895E+04 -5.63529E+04  4.89269E+04 -1.79557E+04
  4.39125E+04  1.14434E+04  3.28911E+04  2.61494E+04  1.61160E+04  3.09648E+04 -5.98341E+03  2.75355E+04
 -2.24338E+04  1.25043E+04 -1.79775E+04 -5.48495E+03  6.74531E+03 -7.59984E+03  2.28207E+04  1.25930E+04
  7.12800E+03  3.71049E+04 -3.31326E+04  3.57615E+04 -6.56095E+04  1.70737E+03 -5.79282E+04 -4.45556E+04
 -1.19194E+04 -6.52577E+04  4.10331E+04 -4.61272E+04  5.99940E+04 -2.05956E+03  3.51734E+04  3.32332E+04
 -5.36872E+03  3.82315E+04 -3.09821E+04  1.74894E+04 -3.19446E+04 -4.19381E+03 -1.80923E+04 -1.09302E+04
 -8.44905E+03 -1.43445E+04 -7.93913E+02 -1.92694E+04  8.51344E+03 -2.34115E+04  1.55390E+04 -1.23893E+04
  1.06672E+04  5.72935E+03 -9.56492E+03  1.38114E+04 -2.26803E+04 -5.93556E+03 -7.86827E+03 -3.62927E+04
  2.44676E+04 -4.59263E+04  5.03537E+04 -2.07283E+04  4.71355E+04  2.06645E+04  1.61391E+04  4.66987E+04
 -1.62384E+04  3.50201E+04 -2.59561E+04  2.09541E+03 -1.09167E+04 -2.85499E+04  2.17848E+04 -3.58481E+04
  4.32367E+04 -1.01856E+04  3.80392E+04  2.40504E+04  2.03300E+04  4.85697E+04 -8.34496E+03  5.44605E+04
 -3.36225E+04  3.67204E+04 -4.55024E+04  1.00420E+04 -4.54704E+04 -1.80381E+04 -2.56588E+04 -4.08754E+04
  7.46802E+03 -4.08736E+04  3.35387E+04 -1.60891E+04  3.08951E+04  1.10730E+04  5.15850E+03  2.05063E+04
 -1.36375E+04  8.91647E+03 -1.09109E+04 -7.63909E+03  5.34638E+03 -1.13812E+04  1.85062E+04  6.31703E+03
  1.36433E+04  2.32878E+04 -5.38124E+03  2.59217E+04 -2.26178E+04  1.27938E+04 -2.97083E+04 -2.73088E+03
 -2.34893E+04 -1.78946E+04 -9.68161E+03 -2.38191E+04  4.12089E+03 -2.39079E+04  1.81053E+04 -2.08622E+04
  2.93210E+04 -1.41483E+04  3.56229E+04  3.49403E+03  2.56805E+04  2.20207E+04  4.44962E+03  3.96851E+04
 -1.89018E+04  3.24271E+04 -3.01209E+04  1.04489E+04 -2.18505E+04 -1.07840E+04 -5.04732E+03 -1.34144E+04
  1.05477E+03 -1.82601E+03 -6.15442E+03  8.10232E+03 -1.88681E+04  5.12421E+03 -1.84753E+04 -8.95494E+03
 -1.10332E+04 -2.23298E+04  5.36186E+03 -2.53820E+04  1.78733E+04 -1.87825E+04  2.12723E+04 -1.61261E+03
  1.34394E+04  1.46274E+04 -8.04454E+02  2.13052E+04 -1.53298E+04  1.23792E+04 -2.12065E+04 -4.52819E+03
 -1.50164E+04 -1.99806E+04 -1.56753E+03 -2.64052E+04  1.15553E+04 -2.17513E+04  2.13323E+04 -1.16482E+04
  2.01289E+04 -4.68137E+02  1.41809E+04  4.95380E+03  8.38102E+03  8.41304E+02  1.18470E+04 -1.99833E+03
  2.04204E+04  3.01440E+03  2.33075E+04  1.74819E+04  1.60263E+04  3.48740E+04 -3.42036E+03  3.97907E+04
 -2.31580E+04  3.29588E+04 -3.82827E+04  1.67582E+04 -3.97552E+04 -2.84976E+03 -3.32255E+04 -2.39025E+04
 -1.36241E+04 -3.29944E+04  1.16287E+04 -2.97888E+04  2.55600E+04 -1.45753E+04  2.26543E+04  6.26827E+03
  7.77902E+03  1.69809E+04 -1.02699E+04  1.42915E+04 -1.77452E+04  2.54573E+03 -1.43750E+04 -1.20156E+04
 -1.27589E+01 -1.77202E+04  9.16464E+03 -1.33828E+04  1.23810E+04 -3.02800E+02  2.33743E+03  8.00333E+03
 -7.41126E+03  3.19059E+03 -7.90672E+03 -7.15299E+03 -1.74729E+03 -1.66476E+04  1.11912E+04 -1.71772E+04
  2.00534E+04 -9.46372E+03  2.29108E+04  3.50341E+03  1.99370E+04  1.61198E+04  8.66747E+03  2.57959E+04
 -4.43618E+03  2.80200E+04 -1.78606E+04  1.76734E+04 -2.05074E+04  3.94077E+03 -1.39939E+04 -5.14133E+03
 -5.55546E+03 -5.87707E+03 -1.34693E+03  5.97623E+02 -2.18288E+03  3.72016E+03 -6.20465E+03  4.45682E+03
 -1.24543E+04 -1.00949E+03 -1.31941E+04 -1.10201E+04 -5.02396E+03 -1.76583E+04  5.98192E+03 -1.33909E+04
  1.17527E+04 -5.26264E+03  8.68292E+03  3.91416E+03  2.82664E+02  6.01492E+03 -6.81060E+03 -7.21415E+02
 -6.54965E+03 -8.54418E+03 -1.44304E+03 -1.35582E+04  7.69516E+03 -1.44704E+04  1.76815E+04 -7.44429E+03
  2.02623E+04  1.77463E+03  1.45784E+04  1.24485E+04  3.65044E+03  1.63737E+04 -8.38823E+03  1.37798E+04
 -1.11746E+04  3.33134E+03 -4.47006E+03 -2.67601E+03  2.11879E+03 -3.98793E+03  6.78793E+03 -1.49991E+03
  7.37012E+03  6.09817E+03  7.85082E+02  1.14776E+04 -7.71511E+03  1.01032E+04 -1.40758E+04  2.16915E+03
 -9.19012E+03 -7.01533E+03  1.34400E+03 -1.10308E+04  7.46930E+03 -6.21172E+03  8.15466E+03  2.75582E+03
  1.72486E+03  8.21268E+03 -7.14496E+03  9.78095E+03 -1.13895E+04  4.51267E+03 -1.20038E+04 -4.02968E+03
 -6.32560E+03 -1.33549E+04  3.05919E+03 -1.50790E+04  1.33042E+04 -9.60053E+03  1.33191E+04  2.45411E+03
  9.03428E+03  1.10489E+04 -1.52643E+03  1.28716E+04 -9.94049E+03  6.79932E+03 -1.11142E+04 -1.15154E+03
 -9.34366E+03 -9.03497E+03 -1.76766E+03 -9.91730E+03  5.36176E+03 -8.83884E+03  6.88523E+03 -3.57316E+03
  4.11990E+03  1.51988E+03 -3.74459E+02  1.19482E+03 -9.03769E+02 -2.71853E+03  2.12539E+03 -5.83841E+03
  1.03833E+04 -3.70358E+03  1.30033E+04  1.27870E+03  1.25203E+04  8.96430E+03  9.00432E+03  1.77045E+04
 -4.33446E+03  1.99779E+04 -1.67383E+04  1.47709E+04 -2.13014E+04  2.73663E+03 -1.76224E+04 -7.13677E+03
 -8.60787E+03 -1.43932E+04  7.67993E+01 -1.15562E+04  4.26251E+03 -6.89669E+03  4.31910E+03 -3.67894E+03
  2.78286E+03 -2.01738E+03  3.85426E+03 -3.30902E+03  5.34183E+03 -3.35012E+03  6.94015E+03 -9.39958E+02
  8.62573E+03  1.59229E+03  4.49047E+03  8.19113E+03 -2.05546E+03  9.45450E+03 -9.27362E+03  6.14686E+03
 -1.21540E+04 -1.29004E+03 -7.77703E+03 -8.27341E+03 -1.09855E+03 -1.26408E+04  7.02592E+03 -1.35886E+04
  1.32424E+04 -7.32051E+03  1.57576E+04  2.23926E+03  1.10073E+04  1.10128E+04  2.29597E+03  1.43008E+04
 -6.30998E+03  1.21948E+04 -8.78173E+03  3.71818E+03 -5.35889E+03 -2.01942E+03 -2.19873E+03 -1.60502E+03
 -1.15869E+03  3.86463E+02 -1.13136E+03  3.09231E+03 -5.85364E+03  2.09144E+03 -8.00603E+03 -8.09602E+02
 -5.58589E+03 -8.35324E+03  7.49083E+02 -1.19568E+04  7.81315E+03 -1.01342E+04  1.10657E+04 -3.47070E+03
  1.14520E+04  5.69341E+03  5.45668E+03  1.09676E+04 -2.21313E+03  1.18264E+04 -8.34059E+03  6.74866E+03
 -1.16423E+04  7.57056E+02 -8.25859E+03 -7.40368E+03 -1.00120E+03 -9.46570E+03  4.69327E+03 -7.22459E+03
  7.02537E+03 -2.56672E+03  5.35462E+03  1.71557E+03  1.99385E+03  3.82957E+03  8.45290E+02  2.25880E+03
  2.51797E+03  1.25352E+03  2.65327E+03  2.24151E+03  3.36514E+03  4.76061E+03  3.33533E+03  6.19836E+03
 -2.85704E+03  8.96789E+03 -8.29281E+03  9.35756E+03 -1.19800E+04  2.12199E+03 -1.16622E+04 -4.66453E+03
 -5.86160E+03 -1.13638E+04  1.26301E+03 -1.28746E+04  6.97512E+03 -8.33664E+03  8.82612E+03 -1.49585E+03
  7.50729E+03  4.65301E+03  2.11711E+03  6.68746E+03 -2.32465E+03  4.04509E+03 -4.60752E+03  1.08692E+02
 -2.37172E+03 -4.54759E+03  2.41718E+03 -5.28319E+03  4.36923E+03 -2.12188E+03  4.40048E+03  1.00800E+03
  2.14543E+03  2.57016E+03  1.12750E+03  8.69578E+02 -1.19072E+03  1.97136E+03  1.74410E+03 -4.92538E+02
  1.60955E+03 -6.91882E+02  4.81445E+03  2.24162E+03  2.25147E+03  5.87260E+03 -1.17395E+03  8.28163E+03
 -5.32922E+03  5.08006E+03 -7.49428E+03  1.86545E+03 -6.11043E+03 -2.91810E+03 -2.46387E+03 -4.49875E+03
  9.89981E+02 -4.70980E+03  3.78066E+03 -1.88214E+03  2.59136E+03  3.12267E+03 -1.93784E+03  4.21625E+03
 -5.06068E+03  2.49811E+03 -5.81294E+03 -3.04468E+03 -2.75013E+03 -6.03012E+03  1.71001E+03 -6.15387E+03
  3.34480E+03 -3.54064E+03  4.55942E+03  6.31297E+01  3.63544E+03  1.21252E+03  3.92265E+02  2.97242E+03
 -2.13859E+03  7.26734E+02 -2.68731E+03 -1.24318E+03  1.17906E+03 -4.47573E+03  6.10816E+03 -5.23843E+03
  7.13677E+03  6.24026E+02  7.30640E+03  5.94167E+03  2.49819E+03  7.25487E+03 -2.84277E+03  7.32344E+03
 -5.87103E+03  2.71200E+03 -7.47367E+03 -9.15162E+02 -3.37303E+03 -4.23134E+03  1.11363E+03 -3.47487E+03
  5.10078E+03 -2.53718E+03  4.15676E+03  1.67942E+03  1.30688E+03  4.23144E+03 -5.98731E+02  3.46688E+03
 -1.53420E+03  2.61786E+03 -1.94893E+03  5.33544E+02 -4.50644E+02  1.16765E+03 -1.84151E+03  1.11431E+03
 -1.68346E+03  3.39856E+03 -5.96561E+03  2.54295E+03 -7.72661E+03 -9.71057E+01 -8.49725E+03 -3.54227E+03
 -4.24475E+03 -8.67452E+03  2.31695E+03 -1.10602E+04  6.17459E+03 -9.39683E+03  1.06427E+04 -3.12248E+03
  9.61841E+03  2.10642E+03  5.55365E+03  6.55960E+03  1.00083E+03  7.41567E+03 -2.92097E+03  5.88587E+03
 -4.14146E+03  1.71790E+03 -2.35925E+03 -5.94291E+02 -8.83129E+02 -2.64981E+02 -6.61065E+02 -2.26395E+02
 -2.10852E+03 -6.01177E+01 -1.18807E+03 -4.07745E+02 -1.04111E+03 -1.90151E+03 -2.17004E+02 -2.72699E+03
  3.69325E+03 -3.13542E+03  4.01089E+03  4.91924E+00  4.69539E+03  3.71149E+03  1.06064E+03  6.99651E+03
 -3.67228E+03  8.77153E+03 -7.52378E+03  5.18554E+03 -9.02357E+03 -8.95646E+02 -6.78544E+03 -5.33454E+03
 -3.33683E+03 -6.97128E+03  1.42682E+03 -6.81634E+03  4.57948E+03 -3.30220E+03  4.29591E+03  6.89803E+02
  2.58340E+03  2.05450E+03 -6.71730E+02  1.94712E+03 -1.07216E+03  1.00199E+02  1.83923E+01 -2.13672E+03
  2.11546E+03 -8.20054E+02  2.75796E+03  1.00731E+03  1.74580E+03  2.90153E+03  4.63572E+02  3.74923E+03
 -4.17556E+03  3.14576E+03 -4.40006E+03  3.14887E+02 -4.83106E+03 -3.25427E+03 -7.59116E+02 -6.66639E+03
  3.51490E+03 -5.18839E+03  4.13126E+03 -1.37420E+03  5.58036E+03  2.47392E+02  3.10278E+03  4.48045E+03
  1.34146E+03  5.06712E+03 -2.45133E+03  3.50560E+03 -3.29544E+03  1.85034E+03 -2.44968E+03 -2.72270E+02
 -1.76414E+02 -9.25053E+02 -1.17666E+03  8.22551E+02 -3.03349E+03  4.41657E+02 -3.84190E+03 -7.26048E+02
 -3.17208E+03 -1.98234E+03 -1.01105E+03 -4.60799E+03  2.44804E+03 -4.65675E+03  4.53989E+03 -2.00856E+03
  5.08585E+03  2.64245E+02  3.25390E+03  3.11101E+03 -7.26787E+02  4.15044E+03 -3.95868E+03  3.52640E+03
