 $NMID ID='MM_0lb_SNR400_15hz_g60_22.RAW', FMTDAT='(8E13.5)'
 TRAMP=1., VOLUME=1. $END
  3.09939E+05  8.82541E+02  3.37774E+05  2.50353E+05  8.43025E+04  3.38100E+05 -1.32328E+05  2.51049E+05
 -1.90722E+05  8.33427E+04 -1.12484E+05 -3.26115E+04  9.19756E+02 -5.04866E+04  5.36123E+04 -9.46677E+02
  3.53085E+04  5.27341E+04 -1.68930E+04  7.54193E+04 -6.08366E+04  6.36493E+04 -8.43010E+04  3.21891E+04
 -8.15490E+04 -1.18239E+04 -5.72424E+04 -5.13588E+04 -1.48608E+04 -7.02767E+04  2.72580E+04 -4.67954E+04
  3.97621E+04  3.82272E+03  1.61343E+04  4.76746E+04 -3.44856E+04  4.71820E+04 -6.69443E+04 -7.67695E+00
 -5.38716E+04 -5.80300E+04 -6.45337E+03 -7.76804E+04  3.39910E+04 -5.57835E+04  4.81016E+04 -1.74741E+04
  4.45872E+04  1.21477E+04  3.21449E+04  2.57150E+04  1.65564E+04  2.94264E+04 -5.68484E+03  2.73710E+04
 -2.23966E+04  1.23401E+04 -1.83446E+04 -5.33518E+03  5.94647E+03 -8.07882E+03  2.27464E+04  1.34704E+04
  7.62378E+03  3.56941E+04 -3.29997E+04  3.61416E+04 -6.43005E+04  2.58536E+03 -5.76621E+04 -4.33275E+04
 -1.26024E+04 -6.37206E+04  4.04334E+04 -4.54460E+04  5.86170E+04 -2.42774E+03  3.43788E+04  3.25922E+04
 -5.37559E+03  3.70278E+04 -3.01004E+04  1.71896E+04 -3.06654E+04 -4.44713E+03 -1.73840E+04 -1.16261E+04
 -8.52397E+03 -1.31363E+04 -8.84051E+02 -1.79596E+04  7.79584E+03 -2.30820E+04  1.53170E+04 -1.24964E+04
  1.11056E+04  5.16462E+03 -9.20475E+03  1.27787E+04 -2.08313E+04 -5.12591E+03 -8.46823E+03 -3.50780E+04
  2.38031E+04 -4.44841E+04  4.87483E+04 -1.97322E+04  4.58987E+04  1.89859E+04  1.62442E+04  4.46601E+04
 -1.57532E+04  3.37350E+04 -2.53160E+04  2.14533E+03 -1.02377E+04 -2.80822E+04  2.16839E+04 -3.41413E+04
  4.12417E+04 -9.37596E+03  3.57291E+04  2.36226E+04  1.86444E+04  4.70969E+04 -7.91762E+03  5.15810E+04
 -3.26237E+04  3.41117E+04 -4.30961E+04  9.99168E+03 -4.34453E+04 -1.66464E+04 -2.37938E+04 -3.90208E+04
  7.90100E+03 -3.85885E+04  3.16850E+04 -1.57463E+04  2.95728E+04  1.09189E+04  4.45731E+03  1.98608E+04
 -1.37723E+04  7.80140E+03 -1.05367E+04 -7.98171E+03  6.09050E+03 -1.07331E+04  1.76327E+04  5.95352E+03
  1.39310E+04  2.26653E+04 -5.45721E+03  2.52763E+04 -2.19975E+04  1.24623E+04 -2.83576E+04 -5.14715E+03
 -2.09654E+04 -1.75020E+04 -8.76133E+03 -2.12402E+04  3.84668E+03 -1.97602E+04  1.62095E+04 -1.90354E+04
  2.65797E+04 -1.33195E+04  3.36631E+04  2.74782E+03  2.37002E+04  2.03318E+04  4.62152E+03  3.72216E+04
 -1.78458E+04  3.04022E+04 -2.78919E+04  1.11555E+04 -2.12106E+04 -1.05581E+04 -4.84837E+03 -1.38334E+04
  2.29083E+03 -2.55309E+03 -4.75664E+03  6.76085E+03 -1.65317E+04  5.01788E+03 -1.59989E+04 -6.91778E+03
 -1.04051E+04 -1.89108E+04  5.59745E+03 -2.41170E+04  1.58273E+04 -1.73114E+04  1.85720E+04 -1.88856E+03
  1.20647E+04  1.35718E+04 -1.27751E+03  1.92620E+04 -1.31436E+04  1.13160E+04 -1.98584E+04 -4.17182E+03
 -1.45341E+04 -1.77587E+04 -1.63678E+03 -2.29758E+04  1.01747E+04 -1.96145E+04  1.90676E+04 -9.41350E+03
  1.87097E+04  9.59900E+02  1.31469E+04  4.73759E+03  7.02898E+03  1.01635E+03  9.93765E+03 -1.46066E+03
  1.71038E+04  1.98953E+03  1.98689E+04  1.54874E+04  1.33691E+04  3.10306E+04 -3.38990E+03  3.54699E+04
 -2.02522E+04  2.82990E+04 -3.28612E+04  1.37350E+04 -3.44709E+04 -2.75206E+03 -2.79424E+04 -1.97357E+04
 -1.20336E+04 -2.79014E+04  1.01312E+04 -2.51288E+04  2.14807E+04 -1.29606E+04  1.89660E+04  5.98940E+03
  7.51813E+03  1.42683E+04 -9.59068E+03  1.25168E+04 -1.60405E+04  3.16777E+03 -1.25718E+04 -1.01753E+04
 -3.13485E+02 -1.56822E+04  8.15498E+03 -1.18416E+04  1.01301E+04 -1.36618E+03  2.88112E+03  6.42235E+03
 -6.36938E+03  3.15370E+03 -5.89508E+03 -5.31172E+03 -6.29381E+02 -1.37892E+04  9.33436E+03 -1.42227E+04
  1.69737E+04 -7.47079E+03  1.79873E+04  2.92644E+03  1.53623E+04  1.35663E+04  7.50454E+03  2.10582E+04
 -3.57829E+03  2.23742E+04 -1.46472E+04  1.46537E+04 -1.61191E+04  2.90939E+03 -1.19817E+04 -4.18877E+03
 -5.30891E+03 -5.16310E+03 -7.99961E+02  8.68095E+02 -2.50877E+03  2.62196E+03 -5.45795E+03  4.85753E+03
 -1.02684E+04 -4.64752E+02 -1.16271E+04 -9.41465E+03 -4.85250E+03 -1.52886E+04  4.51128E+03 -1.11562E+04
  8.83034E+03 -5.20208E+03  6.61431E+03  2.95471E+03  2.26106E+01  4.59111E+03 -5.06420E+03 -3.01296E+02
 -4.97951E+03 -6.72946E+03 -7.27431E+02 -1.09388E+04  6.84039E+03 -1.15306E+04  1.44690E+04 -6.06224E+03
  1.69328E+04  1.98915E+03  1.25781E+04  9.16803E+03  2.80698E+03  1.29444E+04 -8.03697E+03  1.12448E+04
 -9.23601E+03  3.69766E+03 -4.80933E+03 -1.88807E+03  2.23546E+03 -3.11734E+03  6.60770E+03 -1.91997E+03
  5.13788E+03  4.75830E+03  5.11437E+02  8.52844E+03 -6.08293E+03  8.62036E+03 -1.11593E+04  2.36554E+03
 -7.25173E+03 -5.85696E+03  3.21836E+02 -9.64157E+03  6.10735E+03 -4.48820E+03  5.32916E+03  1.68686E+03
  1.00825E+03  5.51716E+03 -6.00209E+03  7.01749E+03 -8.41369E+03  3.17040E+03 -8.23626E+03 -2.80188E+03
 -5.05319E+03 -9.91844E+03  2.07383E+03 -1.12718E+04  9.45290E+03 -6.80352E+03  1.03428E+04  2.03600E+03
  7.33427E+03  8.97073E+03 -1.15393E+02  1.07254E+04 -7.17466E+03  5.91818E+03 -7.68499E+03 -8.22047E+02
 -7.50482E+03 -7.20201E+03 -1.79084E+03 -7.62055E+03  3.97455E+03 -6.84025E+03  4.74905E+03 -3.04419E+03
  3.74207E+03  1.03537E+03 -2.79885E+02  1.67412E+03  6.27723E+00 -1.42767E+03  1.07023E+03 -3.61537E+03
  7.07962E+03 -2.06566E+03  9.84225E+03  1.23345E+03  9.81427E+03  5.53758E+03  6.36928E+03  1.24735E+04
 -2.65658E+03  1.36835E+04 -1.23415E+04  9.91995E+03 -1.56471E+04  2.88087E+03 -1.25477E+04 -5.45493E+03
 -6.01658E+03 -1.05208E+04 -5.51977E+02 -8.36994E+03  3.13843E+03 -3.97275E+03  3.28134E+03 -3.24087E+03
  2.39805E+03 -2.39852E+03  2.48059E+03 -2.78246E+03  4.32361E+03 -2.24634E+03  5.00300E+03 -1.21438E+02
  6.30222E+03  1.77844E+03  3.64171E+03  5.27210E+03 -1.89824E+03  5.18315E+03 -7.29590E+03  4.99525E+03
 -8.71865E+03 -7.73271E+02 -3.96018E+03 -6.05618E+03  6.64208E+01 -9.36365E+03  4.59632E+03 -9.08895E+03
  9.11104E+03 -4.89973E+03  1.07234E+04  1.15025E+03  8.28199E+03  7.50194E+03  8.93664E+02  9.32192E+03
 -3.80140E+03  7.78606E+03 -5.71139E+03  3.38945E+03 -3.84006E+03 -1.09661E+03 -1.31747E+03 -9.45281E+02
 -6.23940E+02 -4.82523E+02 -1.00770E+03  2.09956E+03 -4.33080E+03  1.60584E+03 -6.14052E+03 -1.30362E+02
 -3.16973E+03 -6.07589E+03  6.31617E+02 -7.94288E+03  4.34495E+03 -7.12256E+03  7.27944E+03 -1.63965E+03
  7.12690E+03  3.48859E+03  3.43607E+03  5.77036E+03 -1.39626E+03  7.64334E+03 -5.17399E+03  4.57850E+03
 -7.04073E+03  7.09346E+02 -5.44812E+03 -3.76981E+03 -6.32220E+02 -6.16241E+03  3.07983E+03 -4.13785E+03
  4.83220E+03 -1.39012E+03  2.99969E+03  8.21849E+02  1.27142E+03  3.24946E+03  1.44810E+03  1.06755E+03
  2.30499E+03  5.75338E+02  1.77562E+03  1.22963E+03  1.94050E+03  3.15423E+03  2.09876E+03  3.20052E+03
 -1.75890E+03  5.91320E+03 -5.43043E+03  5.94067E+03 -6.37787E+03  1.60350E+03 -7.52539E+03 -2.13389E+03
 -2.53432E+03 -6.69871E+03  8.25005E+02 -8.31903E+03  4.18216E+03 -5.29175E+03  5.20328E+03 -6.43863E+02
  4.30377E+03  3.35509E+03  1.43791E+03  4.36621E+03 -1.55072E+03  2.36538E+03 -2.27160E+03 -8.76976E+02
 -1.13895E+03 -2.84478E+03  1.98769E+03 -2.90057E+03  2.62557E+03 -1.57714E+03  2.68263E+03  4.63158E+02
  1.68775E+03  1.41892E+03  7.97748E+02  1.28299E+03 -1.46212E+01  1.18925E+03  1.81667E+03 -6.85473E+02
  6.55300E+02 -7.73314E+02  2.75376E+03  1.27691E+03  4.67797E+02  4.25512E+03 -8.92061E+02  4.86356E+03
 -2.65569E+03  2.51631E+03 -4.23303E+03  5.22357E+02 -3.63093E+03 -1.39691E+03 -1.52968E+03 -1.72229E+03
  1.04378E+03 -2.54543E+03  1.60772E+03 -7.39847E+02  1.87635E+03  1.68616E+03 -8.77042E+02  1.78280E+03
 -2.64986E+03  9.40713E+02 -2.56281E+03 -1.47648E+03 -1.72377E+03 -3.78387E+03  2.26550E+02 -2.75621E+03
  1.21236E+03 -1.28507E+03  2.13348E+03 -1.01597E+02  2.59934E+03  4.70805E+02 -1.88648E+02  1.68246E+03
 -1.47584E+03 -3.83084E+02 -2.03375E+03 -4.09523E+02  7.62928E+02 -2.12311E+03  3.36274E+03 -1.71957E+03
  2.80858E+03  6.93987E+02  4.42196E+03  2.18685E+03  1.37654E+03  3.49409E+03 -1.04717E+03  3.75622E+03
 -3.36693E+03  1.28511E+03 -3.04816E+03  1.60001E+02 -1.88292E+03 -2.62105E+03  4.01424E+02 -1.75944E+03
  2.78052E+03 -1.44105E+03  1.39582E+03  7.98697E+02  9.20813E+02  1.71444E+03 -1.16907E+02  1.29404E+03
 -7.31555E+02  1.53915E+03 -9.95462E+02  7.20115E+02 -2.46188E+02  1.02208E+02 -1.07063E+03  9.34891E+02
 -1.22610E+03  1.39823E+03 -2.89420E+03  1.08328E+03 -3.25694E+03  1.53326E+02 -4.09637E+03 -2.01605E+03
 -1.70188E+03 -4.23237E+03  1.28359E+03 -5.36677E+03  3.31685E+03 -4.10478E+03  5.59888E+03 -2.04790E+03
  4.94252E+03  1.42625E+02  2.09774E+03  3.46942E+03 -3.97892E+02  2.90232E+03 -1.91463E+03  2.63582E+03
 -1.68026E+03  1.56128E+03 -1.13495E+03 -6.96215E+02 -7.12748E+02 -2.31051E+02 -6.34237E+02 -5.04458E+02
 -1.00234E+03  1.61105E+02 -1.40903E+03 -6.55642E+02 -1.59754E+01 -9.84237E+02 -5.37551E+02 -1.43794E+03
  1.67019E+03 -1.08349E+03  1.92863E+03  2.84988E+02  2.39267E+03  1.95147E+03  3.03820E+02  3.00633E+03
 -1.64978E+03  4.01011E+03 -3.22380E+03  2.42672E+03 -3.28919E+03 -5.81269E+01 -2.80960E+03 -2.75956E+03
 -1.52020E+03 -3.26216E+03  7.83960E+02 -2.54137E+03  1.61046E+03 -1.46541E+03  1.89138E+03  4.18659E+02
  1.09378E+03  1.00279E+03  1.59477E+02  9.59095E+02 -7.07355E+02 -4.40730E+02  4.24902E+02 -7.95501E+02
  9.98954E+02 -3.14858E+02  8.76589E+02  5.46100E+02  5.58214E+02  7.94709E+02  5.84365E+02  9.63677E+02
 -1.11848E+03  1.47844E+03 -2.02455E+03 -5.33640E+01 -1.68535E+03 -1.15789E+03 -1.20637E+02 -2.90012E+03
  8.54705E+02 -1.90443E+03  1.99992E+03  2.78579E+02  2.37514E+03  2.57486E+01  1.83500E+03  1.63254E+03
  5.05482E+02  2.09762E+03 -8.93412E+02  1.13129E+03 -1.27789E+03  1.40724E+03 -9.51859E+02  5.95207E+02
 -4.24688E+02  2.01414E+02 -1.07474E+03  1.76030E+02 -7.64189E+02 -1.02869E+02 -1.68134E+03 -6.25418E+01
 -1.96058E+03 -2.64899E+02  2.82778E+01 -2.19838E+03  1.50393E+03 -2.75599E+03  1.46812E+03 -5.39466E+02
  1.48972E+03  9.75779E+01  3.89819E+02  5.57914E+02 -2.51785E+02  1.52407E+03 -9.96776E+02  1.16487E+03
