 $NMID ID='MM_0lb_SNR400_7hz_g40_13.RAW', FMTDAT='(8E13.5)'
 TRAMP=1., VOLUME=1. $END
  3.10355E+05  4.79773E+02  3.39035E+05  2.51712E+05  8.54117E+04  3.38489E+05 -1.33154E+05  2.52142E+05
 -1.91161E+05  8.41906E+04 -1.12459E+05 -3.22742E+04 -4.66855E+02 -5.04174E+04  5.39798E+04  4.36182E+02
  3.62857E+04  5.29593E+04 -1.66078E+04  7.59938E+04 -6.07485E+04  6.44906E+04 -8.57396E+04  3.23076E+04
 -8.32376E+04 -1.18363E+04 -5.80711E+04 -5.29202E+04 -1.46578E+04 -7.12799E+04  2.80855E+04 -4.69986E+04
  4.21596E+04  4.13527E+03  1.73036E+04  4.82067E+04 -3.53722E+04  4.86909E+04 -6.90469E+04  1.51773E+02
 -5.49262E+04 -5.88488E+04 -7.22762E+03 -7.90438E+04  3.47963E+04 -5.74113E+04  4.95286E+04 -1.79410E+04
  4.58885E+04  1.26414E+04  3.23033E+04  2.67989E+04  1.66649E+04  3.12234E+04 -6.03604E+03  2.80018E+04
 -2.34151E+04  1.16131E+04 -1.81248E+04 -6.23303E+03  7.33321E+03 -7.99876E+03  2.42364E+04  1.33768E+04
  7.84304E+03  3.81673E+04 -3.46956E+04  3.75404E+04 -6.60280E+04  3.38740E+03 -5.91278E+04 -4.57244E+04
 -1.30836E+04 -6.60440E+04  4.25246E+04 -4.72613E+04  6.20665E+04 -3.13492E+03  3.76599E+04  3.51889E+04
 -5.23525E+03  4.11410E+04 -3.27744E+04  1.89677E+04 -3.42668E+04 -3.68461E+03 -2.08900E+04 -1.20138E+04
 -9.71600E+03 -1.65379E+04 -8.53998E+02 -1.91470E+04  8.44322E+03 -2.31759E+04  1.61155E+04 -1.09744E+04
  9.56583E+03  6.82462E+03 -1.10372E+04  1.25506E+04 -2.32810E+04 -7.85391E+03 -8.92447E+03 -3.78534E+04
  2.52479E+04 -4.73924E+04  5.28827E+04 -2.09365E+04  4.94260E+04  2.01121E+04  1.75483E+04  4.82778E+04
 -1.60278E+04  3.69289E+04 -2.85863E+04  3.24701E+03 -1.25300E+04 -3.04241E+04  2.19684E+04 -3.76293E+04
  4.62135E+04 -1.16613E+04  4.16960E+04  2.53745E+04  2.18012E+04  5.21755E+04 -8.79875E+03  5.74788E+04
 -3.70877E+04  3.90089E+04 -4.90991E+04  1.17972E+04 -4.94218E+04 -1.87764E+04 -2.66239E+04 -4.26277E+04
  7.66398E+03 -4.30352E+04  3.47987E+04 -1.70809E+04  3.19867E+04  1.16565E+04  5.04633E+03  2.13723E+04
 -1.41675E+04  9.03309E+03 -1.12162E+04 -7.34213E+03  6.55432E+03 -1.20327E+04  1.93138E+04  5.33275E+03
  1.45496E+04  2.30286E+04 -4.57281E+03  2.75006E+04 -2.34439E+04  1.56344E+04 -3.28760E+04 -2.17675E+03
 -2.67133E+04 -1.92100E+04 -1.32875E+04 -2.61458E+04  4.97905E+03 -2.67589E+04  2.09742E+04 -2.44472E+04
  3.43537E+04 -1.47891E+04  3.99796E+04  4.90865E+03  2.73259E+04  2.61771E+04  4.22421E+03  4.27180E+04
 -2.16477E+04  3.52920E+04 -3.07018E+04  1.21606E+04 -2.32838E+04 -1.06118E+04 -4.22530E+03 -1.20117E+04
  6.80876E+02 -2.47840E+02 -9.30480E+03  9.44628E+03 -2.16190E+04  4.40359E+03 -2.13887E+04 -9.96895E+03
 -1.28151E+04 -2.50599E+04  6.51403E+03 -2.87238E+04  1.92878E+04 -1.96235E+04  2.39762E+04 -1.97526E+03
  1.50283E+04  1.65375E+04 -1.08989E+03  2.51961E+04 -1.83250E+04  1.37139E+04 -2.55452E+04 -5.58566E+03
 -1.85909E+04 -2.25978E+04 -2.63336E+03 -2.97903E+04  1.34811E+04 -2.39802E+04  2.43151E+04 -1.33024E+04
  2.36775E+04 -2.22773E+02  1.74423E+04  6.18037E+03  8.65268E+03  1.35110E+03  1.28811E+04 -2.38409E+03
  2.41322E+04  2.76377E+03  2.76146E+04  1.89233E+04  1.87313E+04  3.99521E+04 -2.90906E+03  4.74055E+04
 -2.72132E+04  4.01812E+04 -4.43707E+04  2.08793E+04 -4.83259E+04 -3.08228E+03 -3.86848E+04 -2.82791E+04
 -1.53999E+04 -3.98249E+04  1.46784E+04 -3.51347E+04  2.97341E+04 -1.62745E+04  2.61602E+04  7.97360E+03
  8.51250E+03  1.98789E+04 -1.19907E+04  1.61963E+04 -2.13166E+04  2.82745E+03 -1.76897E+04 -1.44243E+04
 -7.50581E+02 -2.10404E+04  1.13325E+04 -1.52456E+04  1.45562E+04 -9.38118E+02  3.51003E+03  9.16734E+03
 -1.00801E+04  4.44303E+03 -1.07066E+04 -7.57619E+03 -2.78567E+03 -1.93002E+04  1.23602E+04 -2.11081E+04
  2.42996E+04 -1.19561E+04  2.81401E+04  3.97432E+03  2.52422E+04  2.00463E+04  1.14399E+04  3.15471E+04
 -6.48057E+03  3.28084E+04 -2.20448E+04  2.03511E+04 -2.51422E+04  3.74948E+03 -1.67415E+04 -7.03691E+03
 -6.72858E+03 -7.30945E+03 -1.27281E+03  6.56505E+02 -3.17555E+03  2.48990E+03 -8.88302E+03  5.14004E+03
 -1.52298E+04 -1.15987E+03 -1.64404E+04 -1.24841E+04 -7.55322E+03 -2.11216E+04  7.31577E+03 -1.66155E+04
  1.35085E+04 -5.90712E+03  1.03406E+04  5.12383E+03 -3.83621E+02  6.89022E+03 -8.10964E+03  3.15667E+02
 -8.15421E+03 -1.01047E+04 -1.55625E+03 -1.74494E+04  1.05830E+04 -1.76743E+04  2.13805E+04 -9.60697E+03
  2.47131E+04  3.00908E+03  1.88833E+04  1.60912E+04  3.91713E+03  2.12206E+04 -9.90141E+03  1.77066E+04
 -1.28090E+04  4.79563E+03 -7.12104E+03 -3.62743E+03  1.75581E+03 -5.45520E+03  8.72720E+03 -8.87455E+02
  7.97540E+03  7.03109E+03  1.60112E+03  1.38895E+04 -9.19982E+03  1.27292E+04 -1.69719E+04  2.57635E+03
 -1.21915E+04 -9.41985E+03 -6.83668E+02 -1.39444E+04  9.49966E+03 -7.02375E+03  1.02613E+04  3.35487E+03
  2.70433E+03  1.09556E+04 -9.70263E+03  1.30827E+04 -1.56532E+04  5.60551E+03 -1.58229E+04 -5.24183E+03
 -9.44923E+03 -1.80126E+04  3.86125E+03 -2.08433E+04  1.72245E+04 -1.21217E+04  1.83913E+04  3.20456E+03
  1.12762E+04  1.49708E+04 -2.50641E+03  1.76531E+04 -1.27988E+04  9.21594E+03 -1.46938E+04 -1.30858E+03
 -1.12118E+04 -1.15805E+04 -1.86031E+03 -1.32273E+04  6.52769E+03 -1.03205E+04  8.65454E+03 -4.01222E+03
  5.32410E+03  3.29882E+03 -1.04389E+03  2.06397E+03 -1.74539E+03 -4.33562E+03  2.45491E+03 -8.22127E+03
  1.39072E+04 -6.37995E+03  1.82362E+04  2.23851E+03  1.80476E+04  1.26507E+04  1.13078E+04  2.35257E+04
 -5.49059E+03  2.74922E+04 -2.20609E+04  2.01500E+04 -2.87750E+04  3.21241E+03 -2.47755E+04 -1.09076E+04
 -1.11300E+04 -1.88890E+04 -1.51840E+03 -1.72217E+04  5.73239E+03 -1.02120E+04  5.72837E+03 -5.61849E+03
  4.85877E+03 -4.37217E+03  4.67042E+03 -3.94996E+03  5.67380E+03 -4.59088E+03  8.68602E+03 -2.43642E+03
  1.18301E+04  2.97316E+03  6.96716E+03  1.12258E+04 -3.15973E+03  1.35963E+04 -1.27728E+04  9.73215E+03
 -1.66777E+04 -1.90143E+03 -1.08069E+04 -1.15268E+04 -2.21370E+03 -1.85131E+04  9.32968E+03 -1.91203E+04
  1.95822E+04 -9.80507E+03  2.26182E+04  2.93938E+03  1.51233E+04  1.60078E+04  2.06768E+03  2.08598E+04
 -9.01757E+03  1.63776E+04 -1.28503E+04  7.24379E+03 -8.10420E+03 -1.88574E+03 -3.49802E+03 -2.09426E+03
 -2.15804E+03  7.07578E+02 -2.87803E+03  2.57997E+03 -7.01616E+03  3.25151E+03 -1.17618E+04 -1.71666E+03
 -8.34723E+03 -1.20336E+04 -2.25220E+02 -1.71864E+04  1.09445E+04 -1.67986E+04  1.63969E+04 -5.27170E+03
  1.76946E+04  8.89147E+03  7.77242E+03  1.60584E+04 -2.84726E+03  1.76205E+04 -1.29514E+04  1.11556E+04
 -1.73119E+04  1.04669E+03 -1.18563E+04 -1.17987E+04 -1.79040E+03 -1.50670E+04  7.01996E+03 -1.06773E+04
  1.15098E+04 -2.93941E+03  8.45739E+03  3.06336E+03  2.63671E+03  5.25368E+03  1.79656E+03  2.66986E+03
  2.50377E+03  7.42905E+02  4.39107E+03  1.90162E+03  6.45418E+03  6.90618E+03  5.52849E+03  9.05666E+03
 -3.65297E+03  1.41122E+04 -1.17855E+04  1.38039E+04 -1.88250E+04  3.56054E+03 -1.82442E+04 -7.22182E+03
 -8.91299E+03 -1.86604E+04  2.03216E+03 -1.98062E+04  1.10467E+04 -1.21369E+04  1.54796E+04 -3.87295E+03
  1.18362E+04  6.17547E+03  2.26284E+03  1.00128E+04 -5.39929E+03  7.60487E+03 -7.57137E+03 -1.49197E+03
 -3.63251E+03 -8.01932E+03  4.21077E+03 -8.08218E+03  7.70227E+03 -4.19735E+03  7.46525E+03  1.85997E+03
  3.91873E+03  4.20515E+03  2.12295E+03  3.50054E+03 -1.36867E+03  2.29729E+03  1.59964E+03 -1.21091E+02
  3.21894E+03 -1.30620E+03  7.84350E+03  2.67398E+03  4.54157E+03  9.95150E+03 -1.43798E+03  1.28841E+04
 -8.47715E+03  8.63064E+03 -1.11690E+04  1.85440E+03 -1.08807E+04 -4.41680E+03 -3.87383E+03 -6.86846E+03
  1.80246E+03 -7.34662E+03  5.49000E+03 -3.86441E+03  4.54736E+03  3.44306E+03 -2.07293E+03  5.07507E+03
 -7.69708E+03  4.17283E+03 -8.53093E+03 -3.53757E+03 -4.75057E+03 -9.33626E+03  1.60534E+03 -1.11722E+04
  7.52190E+03 -7.16027E+03  7.57225E+03 -4.07707E+02  7.44075E+03  2.28751E+03  7.30644E+02  5.44340E+03
 -3.36700E+03  1.42658E+03 -5.05089E+03 -3.65791E+03  1.45521E+03 -8.79456E+03  9.72746E+03 -7.33978E+03
  1.21334E+04  1.21040E+03  1.14138E+04  8.47242E+03  3.63168E+03  1.30290E+04 -4.88613E+03  1.14713E+04
 -1.07742E+04  5.33075E+03 -1.19143E+04 -1.80395E+03 -6.21495E+03 -7.66844E+03  1.88584E+03 -7.45179E+03
  7.79107E+03 -3.43287E+03  6.94457E+03  4.30753E+03  2.78086E+03  6.75639E+03 -1.48622E+03  6.18715E+03
 -4.01235E+03  4.36386E+03 -3.29035E+03  8.17594E+02 -1.83370E+03  1.48172E+03 -2.03257E+03  2.36182E+03
 -2.97975E+03  5.01273E+03 -9.62759E+03  4.81204E+03 -1.28901E+04  5.65927E+02 -1.44116E+04 -8.82097E+03
 -8.13370E+03 -1.76483E+04  3.50575E+03 -1.98832E+04  1.30684E+04 -1.63315E+04  1.85208E+04 -6.03987E+03
  1.72321E+04  4.51684E+03  1.08658E+04  1.22528E+04  1.47849E+03  1.37095E+04 -5.31902E+03  1.05961E+04
 -7.52515E+03  3.64807E+03 -5.29975E+03 -1.98270E+03 -1.80301E+03 -1.04828E+03 -3.47545E+02 -1.24285E+02
 -1.78562E+03 -6.77966E+02 -2.62150E+03  2.61723E+02 -1.73051E+03 -3.63996E+03  3.85281E+02 -4.83827E+03
  5.54697E+03 -3.99243E+03  9.15918E+03 -1.77870E+01  9.68748E+03  7.30886E+03  2.90657E+03  1.29491E+04
 -6.21070E+03  1.45759E+04 -1.41774E+04  9.36764E+03 -1.71429E+04 -1.60577E+03 -1.33716E+04 -1.07387E+04
 -5.89452E+03 -1.45201E+04  3.52003E+03 -1.36268E+04  8.30048E+03 -7.75721E+03  9.19000E+03  1.01928E+03
  5.27774E+03  5.20109E+03 -1.34833E+03  3.55732E+03 -2.88727E+03  1.80740E+02  6.25271E+02 -3.66524E+03
  4.73941E+03 -1.89147E+03  4.90462E+03  1.40155E+03  3.78539E+03  5.74509E+03  3.88200E+02  8.35706E+03
 -6.70418E+03  6.05964E+03 -9.92450E+03  1.34629E+03 -7.82454E+03 -7.50595E+03 -1.22200E+03 -1.26645E+04
  6.28129E+03 -9.25995E+03  1.01853E+04 -2.09554E+03  1.11318E+04  3.57104E+03  6.26529E+03  9.20432E+03
  1.68497E+03  9.55781E+03 -3.61771E+03  7.76371E+03 -6.26064E+03  3.95528E+03 -5.82183E+03  2.04364E+03
 -2.33738E+03 -9.84802E+02 -2.64309E+03  1.30223E+03 -5.46243E+03  2.15326E+03 -7.44199E+03 -1.46541E+03
 -7.45870E+03 -5.10812E+03 -1.59091E+03 -8.99379E+03  4.56147E+03 -1.03038E+04  9.12934E+03 -5.41965E+03
  9.37196E+03  1.54620E+03  5.81278E+03  6.89803E+03 -1.88175E+03  1.04369E+04 -7.85007E+03  6.73460E+03
