 $NMID ID='MM_0lb_SNR400_15hz_g55_82.RAW', FMTDAT='(8E13.5)'
 TRAMP=1., VOLUME=1. $END
  3.09805E+05  3.43758E+02  3.38125E+05  2.50996E+05  8.48474E+04  3.37750E+05 -1.32823E+05  2.50950E+05
 -1.90625E+05  8.30092E+04 -1.11911E+05 -3.27594E+04  7.64969E+02 -5.07447E+04  5.38467E+04  3.33444E+02
  3.53345E+04  5.31195E+04 -1.72444E+04  7.56367E+04 -6.02193E+04  6.35893E+04 -8.45836E+04  3.24411E+04
 -8.19007E+04 -1.09373E+04 -5.73167E+04 -5.10886E+04 -1.46063E+04 -6.88558E+04  2.71172E+04 -4.62173E+04
  4.03388E+04  3.74300E+03  1.62618E+04  4.73377E+04 -3.45820E+04  4.69380E+04 -6.68858E+04 -1.66203E+02
 -5.31212E+04 -5.67116E+04 -6.75916E+03 -7.67654E+04  3.38024E+04 -5.51296E+04  4.80660E+04 -1.71688E+04
  4.30601E+04  1.14885E+04  3.22093E+04  2.54607E+04  1.59515E+04  2.95727E+04 -5.52010E+03  2.68511E+04
 -2.17765E+04  1.23111E+04 -1.76752E+04 -4.64732E+03  5.34185E+03 -7.21826E+03  2.23232E+04  1.24546E+04
  7.17990E+03  3.58800E+04 -3.26315E+04  3.51476E+04 -6.34508E+04  1.69873E+03 -5.64164E+04 -4.26796E+04
 -1.25842E+04 -6.33482E+04  3.93093E+04 -4.56373E+04  5.78210E+04 -1.95869E+03  3.39351E+04  3.21475E+04
 -5.80410E+03  3.58792E+04 -2.98893E+04  1.59641E+04 -3.00630E+04 -4.67349E+03 -1.73434E+04 -1.07831E+04
 -8.46381E+03 -1.28570E+04 -7.59617E+02 -1.82240E+04  7.74470E+03 -2.26762E+04  1.57765E+04 -1.29627E+04
  1.12664E+04  5.33233E+03 -7.85112E+03  1.30271E+04 -2.12153E+04 -4.46215E+03 -8.24477E+03 -3.35960E+04
  2.32434E+04 -4.27539E+04  4.80324E+04 -1.94542E+04  4.47795E+04  1.90061E+04  1.51866E+04  4.37069E+04
 -1.52297E+04  3.29793E+04 -2.48163E+04  1.54379E+03 -9.42473E+03 -2.78779E+04  2.08103E+04 -3.42043E+04
  4.06773E+04 -8.63252E+03  3.57481E+04  2.37200E+04  1.81035E+04  4.66611E+04 -8.14953E+03  5.03656E+04
 -3.19595E+04  3.34109E+04 -4.20425E+04  9.39071E+03 -4.29239E+04 -1.66450E+04 -2.33185E+04 -3.83315E+04
  7.19119E+03 -3.77082E+04  3.15036E+04 -1.48122E+04  2.91791E+04  1.11570E+04  4.10130E+03  1.94263E+04
 -1.35297E+04  8.26391E+03 -1.03435E+04 -7.24594E+03  6.28717E+03 -1.06737E+04  1.84228E+04  6.16042E+03
  1.36576E+04  2.21331E+04 -6.14331E+03  2.51013E+04 -2.22385E+04  1.15401E+04 -2.76089E+04 -4.79034E+03
 -2.03952E+04 -1.79566E+04 -8.35219E+03 -2.10423E+04  4.33359E+03 -1.91810E+04  1.57093E+04 -1.81263E+04
  2.59569E+04 -1.27247E+04  3.22739E+04  3.20803E+03  2.32422E+04  1.92916E+04  4.65226E+03  3.61294E+04
 -1.73087E+04  3.06366E+04 -2.79511E+04  1.08038E+04 -2.17030E+04 -1.04387E+04 -4.20573E+03 -1.33031E+04
  2.18428E+03 -2.66482E+03 -4.59792E+03  6.19524E+03 -1.60243E+04  4.84678E+03 -1.62899E+04 -7.27807E+03
 -1.00761E+04 -1.91630E+04  4.90671E+03 -2.27801E+04  1.54089E+04 -1.62926E+04  1.79433E+04 -1.60158E+03
  1.10869E+04  1.27924E+04 -1.17245E+03  1.87910E+04 -1.27915E+04  1.10947E+04 -1.95347E+04 -3.84494E+03
 -1.41200E+04 -1.69506E+04 -1.83076E+03 -2.27812E+04  1.02467E+04 -1.91565E+04  1.86644E+04 -8.99623E+03
  1.79973E+04  1.94180E+02  1.22375E+04  4.29104E+03  6.71461E+03  1.14411E+03  9.62085E+03 -1.49408E+03
  1.70857E+04  2.62575E+03  1.86940E+04  1.49506E+04  1.25154E+04  2.99475E+04 -2.63891E+03  3.35761E+04
 -1.99522E+04  2.71244E+04 -3.14451E+04  1.36970E+04 -3.28831E+04 -2.91059E+03 -2.76083E+04 -1.91865E+04
 -1.16380E+04 -2.74364E+04  8.92910E+03 -2.42473E+04  2.14310E+04 -1.26252E+04  1.91217E+04  5.42387E+03
  7.02703E+03  1.44072E+04 -8.56945E+03  1.22025E+04 -1.59177E+04  2.81928E+03 -1.17968E+04 -9.72100E+03
  4.54212E+01 -1.53653E+04  7.88641E+03 -1.12491E+04  1.03041E+04 -1.00415E+03  2.61461E+03  6.67356E+03
 -6.77325E+03  2.08372E+03 -5.83940E+03 -4.66632E+03  3.51765E+01 -1.40225E+04  9.44614E+03 -1.38276E+04
  1.65689E+04 -7.50184E+03  1.74921E+04  3.05965E+03  1.48375E+04  1.27762E+04  7.36569E+03  1.93194E+04
 -2.75821E+03  2.14064E+04 -1.33122E+04  1.39404E+04 -1.54586E+04  3.22091E+03 -1.06604E+04 -2.88983E+03
 -5.19508E+03 -4.89000E+03 -5.25031E+02  1.08900E+03 -2.51473E+03  2.26879E+03 -5.19934E+03  4.74629E+03
 -1.02578E+04 -5.66062E+02 -1.12901E+04 -8.77820E+03 -3.78855E+03 -1.40656E+04  4.49078E+03 -1.02595E+04
  9.80962E+03 -4.74426E+03  6.80145E+03  2.06654E+03  1.02277E+02  4.38479E+03 -5.50670E+03 -2.63859E+02
 -4.89409E+03 -7.38987E+03 -9.72951E+02 -1.02423E+04  5.74595E+03 -1.09438E+04  1.34594E+04 -5.93943E+03
  1.53868E+04  1.54299E+03  1.20445E+04  8.91027E+03  1.88810E+03  1.22895E+04 -6.63607E+03  1.01714E+04
 -9.06618E+03  3.64674E+03 -4.72804E+03 -1.46150E+03  1.88103E+03 -3.03112E+03  5.89344E+03 -1.24876E+03
  5.41419E+03  4.33639E+03  9.84051E+02  7.94181E+03 -6.14885E+03  7.90619E+03 -1.05002E+04  1.85030E+03
 -6.99207E+03 -4.48522E+03  4.30332E+01 -9.06306E+03  5.58602E+03 -4.86416E+03  5.55936E+03  1.86269E+03
  1.53138E+03  5.25885E+03 -5.92869E+03  6.93173E+03 -7.40314E+03  3.41429E+03 -7.78322E+03 -2.59479E+03
 -5.32976E+03 -8.93702E+03  2.37556E+03 -1.09295E+04  9.30063E+03 -6.87059E+03  9.74886E+03  1.56678E+03
  5.86345E+03  7.92735E+03  4.21790E+02  9.64710E+03 -7.10953E+03  5.69341E+03 -7.80762E+03 -8.38430E+02
 -7.67820E+03 -7.04479E+03 -1.48986E+03 -7.57378E+03  3.74709E+03 -6.20816E+03  4.29353E+03 -3.18285E+03
  3.77337E+03  1.38293E+03 -3.58235E+02  1.80128E+03  1.89868E+02 -1.00869E+03  7.42413E+02 -3.04540E+03
  6.47914E+03 -1.61838E+03  8.72867E+03  5.92635E+02  8.55590E+03  5.36990E+03  7.19276E+03  1.14649E+04
 -2.44431E+03  1.34978E+04 -1.17008E+04  1.04124E+04 -1.61651E+04  2.04463E+03 -1.22088E+04 -4.49362E+03
 -5.82475E+03 -9.43968E+03 -2.23303E+02 -8.20459E+03  3.14133E+03 -4.15185E+03  2.19530E+03 -2.98109E+03
  2.39718E+03 -2.34465E+03  2.85653E+03 -2.74762E+03  3.98391E+03 -3.03868E+03  4.83070E+03  1.87389E+02
  6.41918E+03  1.37216E+03  2.33207E+03  5.37785E+03 -2.14207E+03  5.28334E+03 -6.22699E+03  5.21765E+03
 -8.20223E+03 -1.41014E+03 -3.97463E+03 -5.21210E+03 -2.75952E+02 -8.60397E+03  4.60401E+03 -8.65365E+03
  8.41010E+03 -4.70356E+03  1.09696E+04  6.63020E+02  7.26885E+03  7.30316E+03  8.98884E+02  9.62075E+03
 -3.47475E+03  8.58298E+03 -5.79105E+03  2.74785E+03 -2.75499E+03 -7.74588E+02 -1.27908E+03 -1.20293E+03
 -8.83574E+02  1.68478E+02 -1.47305E+03  2.83433E+03 -3.88016E+03  2.26328E+03 -6.21453E+03 -7.44525E+02
 -3.61607E+03 -6.00642E+03  3.84272E+02 -7.24713E+03  4.56381E+03 -7.44769E+03  6.87484E+03 -2.04922E+03
  6.95951E+03  3.37246E+03  3.19083E+03  6.18928E+03 -1.53900E+03  7.18024E+03 -4.95246E+03  3.74323E+03
 -6.96972E+03  4.82625E+02 -5.14719E+03 -4.25093E+03 -7.22486E+02 -6.00427E+03  2.89595E+03 -3.77697E+03
  4.34576E+03 -1.81333E+03  2.73206E+03  9.46405E+02  1.12634E+03  2.59722E+03  6.99084E+02  1.13284E+03
  2.06879E+03  9.20334E+02  2.36314E+03  7.91125E+02  2.16655E+03  2.84567E+03  1.84215E+03  3.31563E+03
 -2.02196E+03  5.64590E+03 -4.93959E+03  5.76725E+03 -6.22474E+03  1.44281E+03 -7.15975E+03 -1.61319E+03
 -3.33269E+03 -6.81112E+03  8.23471E+02 -8.04586E+03  3.88860E+03 -4.83377E+03  5.77840E+03 -1.35564E+03
  4.58754E+03  2.73817E+03  9.29660E+02  4.04850E+03 -1.60107E+03  2.04087E+03 -1.88485E+03 -1.08688E+02
 -1.43498E+03 -2.47091E+03  1.90840E+03 -2.38718E+03  2.60888E+03 -1.36729E+03  2.97057E+03 -7.16203E+01
  1.39483E+03  6.68611E+02  1.53642E+03  3.15284E+02 -8.45062E+02  6.14265E+02  9.18751E+02 -3.20338E+02
  3.50974E+02 -6.83640E+02  3.26645E+03  7.94499E+02  6.51192E+02  3.55104E+03 -5.31658E+02  5.32202E+03
 -2.63919E+03  2.99673E+03 -3.32364E+03  3.62448E+02 -3.78828E+03 -1.14541E+03 -4.95412E+02 -1.90068E+03
  6.32657E+02 -2.52546E+03  1.89891E+03 -1.49884E+03  1.21568E+03  1.87498E+03 -9.93015E+02  2.08291E+03
 -2.40384E+03  1.61818E+03 -1.98313E+03 -2.43897E+03 -1.71887E+03 -3.81103E+03 -1.07742E+02 -3.13865E+03
  1.46065E+03 -1.13574E+03  2.50229E+03 -1.24375E+01  2.43947E+03  5.69182E+02 -2.32565E+02  1.95325E+03
 -8.79947E+02  2.37686E+02 -9.35048E+02 -4.93650E+02  8.64176E+02 -2.63945E+03  2.62848E+03 -1.61360E+03
  2.87997E+03  1.32167E+02  5.03348E+03  1.84329E+03  1.49098E+03  3.92657E+03 -5.06574E+02  3.47443E+03
 -3.03523E+03  1.60276E+03 -3.41516E+03 -5.62030E+02 -7.75211E+02 -1.94150E+03  6.97886E+02 -1.89437E+03
  3.08919E+03 -1.57832E+03  1.77373E+03  6.31119E+02  7.44725E+02  2.32347E+03 -5.30633E+01  1.94294E+03
 -6.66634E+02  1.86120E+03 -1.29785E+03  6.34142E+02 -3.61484E+02  1.15285E+02 -7.59591E+02  1.47337E+03
 -9.88051E+02  2.15613E+03 -2.01732E+03  1.71443E+03 -2.60085E+03  4.29701E+02 -4.63879E+03 -2.54278E+03
 -2.20590E+03 -4.60489E+03  9.65098E+02 -5.74908E+03  2.99189E+03 -4.10870E+03  5.07166E+03 -1.30775E+03
  4.72906E+03  8.01040E+02  3.26097E+03  3.25190E+03 -2.13070E+02  3.72462E+03 -1.44284E+03  2.56205E+03
 -2.50623E+03  1.13373E+03 -1.13030E+03 -3.06106E+02 -8.46804E+02  3.93350E+02 -8.69037E+02 -1.93001E+02
 -1.25517E+03  2.47905E+02 -1.25916E+03 -1.15660E+02  1.10875E+02 -1.19553E+03 -2.68729E+02 -1.42265E+03
  1.72194E+03 -1.40849E+03  1.57559E+03  1.90115E+01  1.95646E+03  2.17927E+03  3.29125E+01  2.93396E+03
 -1.53175E+03  4.27061E+03 -3.22381E+03  2.09039E+03 -3.79314E+03 -8.35780E+02 -2.54118E+03 -2.79567E+03
 -1.14121E+03 -3.23937E+03  1.03488E+03 -3.09084E+03  1.63266E+03 -2.11988E+03  1.31802E+03  7.61257E+01
  1.17165E+03  6.56107E+02 -1.32001E+02  1.17348E+03 -8.26697E+02 -2.63079E+02  1.64159E+02 -8.66191E+02
  1.58307E+03  1.39297E+02  1.05463E+03  8.29909E+02  1.24857E+03  1.12992E+03  4.37826E+02  1.27229E+03
 -1.11170E+03  1.69252E+03 -1.95943E+03 -6.22488E+01 -1.51704E+03 -1.61378E+03 -1.94399E+01 -2.11865E+03
  1.27550E+03 -2.09269E+03  1.99731E+03  4.02592E+01  2.51873E+03  3.22836E+02  1.55612E+03  1.40710E+03
  5.25455E+02  2.22647E+03 -7.78517E+02  1.88914E+03 -1.21642E+03  1.38347E+03 -1.01662E+03 -5.34517E+02
 -4.29185E+02 -6.60056E+02 -4.33885E+02 -2.95374E+01 -1.46785E+03  7.19317E+02 -2.01231E+03 -2.97943E+02
 -1.69408E+03 -5.90126E+02 -3.76874E+02 -1.66487E+03  9.02658E+02 -2.99642E+03  1.62912E+03 -8.19304E+02
  1.36416E+03 -3.63005E+02  6.73816E+02  1.23528E+03  3.62419E+02  1.72951E+03 -1.07439E+03  1.32112E+03
