 $NMID ID='MM_0lb_SNR400_8hz_g50_82.RAW', FMTDAT='(8E13.5)'
 TRAMP=1., VOLUME=1. $END
  3.08966E+05  7.32704E+02  3.38589E+05  2.50036E+05  8.52264E+04  3.38814E+05 -1.33224E+05  2.51563E+05
 -1.91074E+05  8.43713E+04 -1.12733E+05 -3.22027E+04  6.51938E+02 -5.06868E+04  5.42472E+04  4.24390E+02
  3.63783E+04  5.22938E+04 -1.61995E+04  7.67433E+04 -6.16142E+04  6.46215E+04 -8.53558E+04  3.19937E+04
 -8.34972E+04 -1.18147E+04 -5.80507E+04 -5.30741E+04 -1.51786E+04 -7.12243E+04  2.86295E+04 -4.80123E+04
  4.15697E+04  3.01679E+03  1.68822E+04  4.89526E+04 -3.47420E+04  4.78726E+04 -6.87723E+04 -1.09626E+03
 -5.47546E+04 -5.76449E+04 -6.18041E+03 -7.92677E+04  3.48577E+04 -5.71484E+04  5.06441E+04 -1.85665E+04
  4.55184E+04  1.21807E+04  3.37361E+04  2.60065E+04  1.64564E+04  3.03419E+04 -6.43550E+03  2.81335E+04
 -2.25278E+04  1.16085E+04 -1.87383E+04 -6.04330E+03  7.31093E+03 -6.99812E+03  2.41882E+04  1.35003E+04
  7.40979E+03  3.81566E+04 -3.43627E+04  3.64137E+04 -6.59097E+04  2.33381E+03 -5.88232E+04 -4.49901E+04
 -1.36213E+04 -6.54119E+04  4.13486E+04 -4.75983E+04  6.11703E+04 -2.87799E+03  3.69653E+04  3.48325E+04
 -5.99538E+03  4.09479E+04 -3.19668E+04  1.90253E+04 -3.33628E+04 -3.80211E+03 -1.94327E+04 -1.24483E+04
 -9.91095E+03 -1.59766E+04  2.45956E+01 -2.02303E+04  9.11570E+03 -2.43259E+04  1.60112E+04 -1.31233E+04
  1.18830E+04  6.24714E+03 -1.06402E+04  1.22474E+04 -2.46686E+04 -7.32061E+03 -8.32963E+03 -3.81690E+04
  2.61673E+04 -4.69875E+04  5.27000E+04 -2.11562E+04  4.96108E+04  2.09593E+04  1.67707E+04  4.73119E+04
 -1.68208E+04  3.64000E+04 -2.86986E+04  2.92240E+03 -1.19396E+04 -2.93324E+04  2.31888E+04 -3.81632E+04
  4.53840E+04 -1.11998E+04  4.14129E+04  2.52491E+04  2.21640E+04  5.18967E+04 -9.13003E+03  5.82632E+04
 -3.58113E+04  3.89718E+04 -4.87606E+04  1.10027E+04 -4.79983E+04 -1.86465E+04 -2.72082E+04 -4.33028E+04
  8.64639E+03 -4.27064E+04  3.53530E+04 -1.81391E+04  3.24495E+04  1.11166E+04  5.27282E+03  2.17459E+04
 -1.47571E+04  9.89445E+03 -1.11744E+04 -8.17481E+03  5.61867E+03 -1.14635E+04  1.90967E+04  6.02069E+03
  1.54758E+04  2.26918E+04 -5.33030E+03  2.74287E+04 -2.34824E+04  1.51935E+04 -3.20210E+04 -3.14222E+03
 -2.65069E+04 -1.85674E+04 -1.27000E+04 -2.64376E+04  4.22277E+03 -2.72451E+04  2.14266E+04 -2.37793E+04
  3.29796E+04 -1.44900E+04  3.96506E+04  5.54627E+03  2.74268E+04  2.47822E+04  5.15473E+03  4.29359E+04
 -2.07204E+04  3.52264E+04 -3.09844E+04  1.11445E+04 -2.25950E+04 -9.76776E+03 -4.77045E+03 -1.30683E+04
  1.77978E+03 -5.53235E+02 -6.92317E+03  9.21621E+03 -2.12480E+04  4.98372E+03 -2.14318E+04 -1.06389E+04
 -1.15857E+04 -2.46757E+04  6.48052E+03 -2.87420E+04  1.90831E+04 -2.03402E+04  2.40193E+04 -1.39826E+03
  1.51529E+04  1.62141E+04 -7.53847E+02  2.36035E+04 -1.85185E+04  1.39607E+04 -2.44327E+04 -4.78380E+03
 -1.81459E+04 -2.11595E+04 -2.33520E+03 -2.90086E+04  1.32304E+04 -2.43270E+04  2.39131E+04 -1.32578E+04
  2.26752E+04 -6.49935E+02  1.68778E+04  4.02802E+03  8.83954E+03  1.29840E+03  1.19492E+04 -2.05830E+03
  2.24940E+04  2.15347E+03  2.57876E+04  1.83428E+04  1.84438E+04  3.89995E+04 -2.77569E+03  4.66305E+04
 -2.73321E+04  3.88509E+04 -4.37495E+04  2.00585E+04 -4.69451E+04 -3.33517E+03 -3.78271E+04 -2.74169E+04
 -1.49826E+04 -3.87228E+04  1.39897E+04 -3.40571E+04  2.95045E+04 -1.64061E+04  2.52777E+04  8.35426E+03
  8.82970E+03  1.91169E+04 -1.20268E+04  1.57634E+04 -2.04201E+04  2.73453E+03 -1.64909E+04 -1.36195E+04
 -5.16926E+02 -2.00671E+04  1.11006E+04 -1.34058E+04  1.37062E+04 -1.81685E+03  3.25557E+03  8.41357E+03
 -8.75684E+03  4.23310E+03 -9.70341E+03 -7.21612E+03 -1.49384E+03 -1.91482E+04  1.29011E+04 -2.14642E+04
  2.46199E+04 -1.24283E+04  2.83981E+04  3.35144E+03  2.48511E+04  1.84739E+04  1.08528E+04  3.13604E+04
 -5.78636E+03  3.25495E+04 -2.16963E+04  2.09917E+04 -2.37744E+04  3.30433E+03 -1.62181E+04 -4.83972E+03
 -7.68098E+03 -8.24733E+03 -9.44080E+02  1.33710E+03 -3.60166E+03  3.40059E+03 -8.15259E+03  5.99201E+03
 -1.44787E+04 -1.85244E+03 -1.61537E+04 -1.24377E+04 -6.01563E+03 -2.06455E+04  7.00715E+03 -1.76752E+04
  1.40278E+04 -7.73498E+03  9.77523E+03  3.69422E+03 -4.46398E+02  7.12575E+03 -7.73402E+03 -4.63890E+02
 -8.08889E+03 -1.12478E+04 -1.58174E+03 -1.67598E+04  1.03824E+04 -1.75930E+04  2.24768E+04 -9.74249E+03
  2.56136E+04  2.44639E+03  1.82377E+04  1.59535E+04  3.18950E+03  2.01888E+04 -9.77232E+03  1.62800E+04
 -1.33531E+04  5.52904E+03 -7.02293E+03 -3.64015E+03  1.66259E+03 -5.02945E+03  9.35952E+03 -6.78707E+02
  8.63829E+03  7.92007E+03  1.60946E+03  1.43486E+04 -1.00185E+04  1.18967E+04 -1.69720E+04  3.82915E+03
 -1.09545E+04 -1.00562E+04 -4.31167E+02 -1.33428E+04  9.10800E+03 -7.25040E+03  1.00355E+04  3.76410E+03
  1.74082E+03  1.09892E+04 -8.54722E+03  1.27915E+04 -1.53985E+04  5.53918E+03 -1.55776E+04 -5.48599E+03
 -8.14563E+03 -1.70990E+04  4.47929E+03 -1.97313E+04  1.66665E+04 -1.14177E+04  1.85662E+04  3.38916E+03
  1.06593E+04  1.48974E+04 -2.00904E+03  1.74138E+04 -1.23288E+04  9.99437E+03 -1.46547E+04 -5.78026E+02
 -1.19857E+04 -1.11397E+04 -1.42622E+03 -1.28935E+04  7.62610E+03 -1.08724E+04  8.55605E+03 -3.58671E+03
  5.11333E+03  2.92503E+03 -5.84475E+02  2.43786E+03 -8.44944E+02 -3.57168E+03  3.28503E+03 -8.61001E+03
  1.23853E+04 -6.37836E+03  1.79877E+04  2.03633E+03  1.74365E+04  1.19291E+04  1.01034E+04  2.26557E+04
 -6.14870E+03  2.62088E+04 -2.20615E+04  1.94283E+04 -2.78787E+04  3.68332E+03 -2.28629E+04 -1.03815E+04
 -1.10501E+04 -1.84472E+04 -3.05123E+02 -1.51360E+04  6.08623E+03 -8.67642E+03  6.01690E+03 -5.39098E+03
  5.19424E+03 -3.44134E+03  3.42229E+03 -4.50592E+03  6.32562E+03 -4.14600E+03  8.39822E+03 -2.32263E+03
  1.15328E+04  2.95208E+03  7.39002E+03  1.03731E+04 -2.47778E+03  1.25623E+04 -1.24009E+04  9.66880E+03
 -1.58434E+04 -1.48211E+03 -1.09988E+04 -1.14559E+04 -7.30067E+02 -1.78548E+04  9.38648E+03 -1.82199E+04
  1.78049E+04 -9.70067E+03  2.15278E+04  1.69781E+03  1.57787E+04  1.61987E+04  1.54327E+03  2.00170E+04
 -9.20116E+03  1.61101E+04 -1.03318E+04  5.72834E+03 -8.58081E+03 -1.84010E+03 -3.44968E+03 -1.53058E+03
 -1.77508E+03 -5.81975E+02 -3.37521E+03  4.52522E+03 -6.52722E+03  3.96140E+03 -1.17953E+04 -1.49912E+03
 -8.34814E+03 -1.14094E+04  4.47762E+02 -1.66300E+04  1.01112E+04 -1.45544E+04  1.68046E+04 -4.11225E+03
  1.60121E+04  7.69236E+03  8.37400E+03  1.52638E+04 -3.78457E+03  1.59330E+04 -1.18070E+04  9.42083E+03
 -1.62861E+04  2.90528E+02 -1.17884E+04 -1.02581E+04 -8.12179E+02 -1.47478E+04  7.02795E+03 -9.92135E+03
  1.08862E+04 -3.22111E+03  7.46124E+03  3.22401E+03  2.53329E+03  4.89892E+03  1.81631E+03  1.94891E+03
  3.41483E+03  1.54706E+03  3.82447E+03  1.34079E+03  4.42831E+03  5.80802E+03  3.47069E+03  8.83273E+03
 -3.37356E+03  1.32875E+04 -1.22397E+04  1.28052E+04 -1.78619E+04  2.86037E+03 -1.71385E+04 -7.33763E+03
 -8.57441E+03 -1.69833E+04  2.40066E+03 -1.84078E+04  1.02240E+04 -1.26931E+04  1.43121E+04 -2.45339E+03
  1.11170E+04  6.16275E+03  3.03924E+03  1.00502E+04 -4.86873E+03  5.86442E+03 -7.08009E+03 -1.39457E+03
 -3.66491E+03 -6.87196E+03  3.35040E+03 -8.25411E+03  7.17104E+03 -3.07578E+03  7.25965E+03  1.74987E+03
  3.92310E+03  4.68344E+03  1.12146E+03  3.26820E+03 -7.04191E+02  2.28040E+03  1.73811E+03 -1.23957E+02
  2.47369E+03 -1.51660E+03  6.61217E+03  2.71975E+03  4.14177E+03  9.38217E+03 -1.35444E+03  1.23144E+04
 -7.85137E+03  8.24980E+03 -1.11804E+04  1.65953E+03 -1.01080E+04 -3.82999E+03 -4.27617E+03 -7.33640E+03
  5.41678E+02 -6.33753E+03  5.12787E+03 -2.96240E+03  3.22542E+03  2.88839E+03 -2.23678E+03  5.03292E+03
 -6.92453E+03  3.31534E+03 -8.56923E+03 -3.12954E+03 -5.00888E+03 -9.18793E+03  1.14079E+03 -9.21250E+03
  7.13643E+03 -6.48543E+03  6.41197E+03 -1.10783E+03  6.72488E+03  2.57919E+03  8.93256E+02  5.14879E+03
 -3.51289E+03  2.01446E+03 -4.91735E+03 -3.34671E+03  1.78663E+03 -7.40231E+03  9.51611E+03 -6.01251E+03
  1.17498E+04  5.28282E+02  1.08574E+04  8.18875E+03  3.52929E+03  1.17275E+04 -4.01371E+03  1.12466E+04
 -9.81664E+03  5.46881E+03 -1.05177E+04 -2.63015E+03 -5.79180E+03 -8.12156E+03  1.42409E+03 -7.66470E+03
  7.47238E+03 -3.26104E+03  6.50954E+03  2.42751E+03  2.08731E+03  6.15961E+03 -1.70759E+03  5.08229E+03
 -3.90728E+03  3.65567E+03 -3.75841E+03  1.41834E+03 -8.86258E+02  1.64770E+03 -1.48914E+03  3.13759E+03
 -2.85186E+03  4.89687E+03 -7.83788E+03  4.42668E+03 -1.13935E+04  3.59976E+02 -1.43467E+04 -7.41918E+03
 -7.61911E+03 -1.51385E+04  2.70016E+03 -1.71734E+04  1.11081E+04 -1.41996E+04  1.75099E+04 -5.05389E+03
  1.56560E+04  3.49687E+03  9.23796E+03  1.12768E+04  1.61954E+03  1.24028E+04 -4.42375E+03  8.61506E+03
 -6.61435E+03  2.63196E+03 -3.63917E+03 -1.42609E+03 -1.20589E+03 -1.59816E+03  1.03026E+02 -2.87318E+02
 -2.52271E+03  3.33494E+02 -2.16269E+03 -3.48300E+02 -8.57378E+02 -3.06193E+03 -6.58663E+01 -4.30803E+03
  6.21641E+03 -3.80367E+03  7.26801E+03 -2.05668E+02  8.80524E+03  7.21707E+03  2.76516E+03  1.18974E+04
 -6.17892E+03  1.39605E+04 -1.31417E+04  8.95151E+03 -1.53862E+04  6.55564E+02 -1.18614E+04 -8.62125E+03
 -5.27082E+03 -1.23185E+04  3.11641E+03 -1.20815E+04  8.71813E+03 -6.44674E+03  7.75432E+03 -2.63466E+02
  4.59154E+03  5.30475E+03 -1.03976E+03  3.94088E+03 -1.61980E+03 -8.39610E+01  7.90920E+02 -2.06425E+03
  4.45320E+03 -1.95495E+03  4.18364E+03  1.80806E+03  2.79597E+03  5.52876E+03 -6.96994E+02  7.34986E+03
 -5.58831E+03  5.65061E+03 -9.13282E+03  5.30058E+02 -7.45724E+03 -6.85614E+03 -8.85404E+02 -1.13051E+04
  6.58473E+03 -8.16281E+03  9.84343E+03 -3.11557E+03  1.02580E+04  3.01691E+03  5.70407E+03  7.22117E+03
  9.37712E+02  8.19824E+03 -2.82493E+03  5.96907E+03 -5.44993E+03  4.03369E+03 -4.06747E+03 -1.06004E+02
 -2.79058E+03 -2.13528E+02 -2.10028E+03  6.98534E+02 -4.85237E+03  1.27194E+03 -7.03802E+03 -1.12438E+03
 -6.90017E+03 -4.21942E+03 -1.76590E+03 -8.34218E+03  4.31197E+03 -9.57077E+03  7.81885E+03 -4.06127E+03
  8.77276E+03  8.97250E+02  4.29297E+03  6.20037E+03 -2.23915E+02  8.54476E+03 -6.66406E+03  5.41952E+03
