 $NMID ID='MM_0lb_SNR400_20hz_g40_32.RAW', FMTDAT='(8E13.5)'
 TRAMP=1., VOLUME=1. $END
  3.09374E+05  4.44282E+02  3.36716E+05  2.50085E+05  8.41056E+04  3.36676E+05 -1.32762E+05  2.49794E+05
 -1.89792E+05  8.21429E+04 -1.10655E+05 -3.27134E+04  1.63605E+03 -4.99002E+04  5.42944E+04  6.85942E+02
  3.51741E+04  5.28059E+04 -1.68436E+04  7.40038E+04 -5.96674E+04  6.21558E+04 -8.25933E+04  3.09960E+04
 -7.94652E+04 -1.07345E+04 -5.54286E+04 -4.96424E+04 -1.49014E+04 -6.71377E+04  2.61698E+04 -4.44296E+04
  3.84366E+04  3.62322E+03  1.51601E+04  4.62170E+04 -3.33422E+04  4.60415E+04 -6.47484E+04 -6.18228E+02
 -5.12755E+04 -5.58645E+04 -5.73651E+03 -7.36998E+04  3.24499E+04 -5.24428E+04  4.54159E+04 -1.59012E+04
  4.01761E+04  1.11105E+04  2.99293E+04  2.36975E+04  1.55916E+04  2.75890E+04 -4.52287E+03  2.66423E+04
 -2.15064E+04  1.31323E+04 -1.88188E+04 -3.92568E+03  3.81478E+03 -8.03146E+03  2.01113E+04  1.02710E+04
  7.42635E+03  3.21076E+04 -2.92606E+04  3.33042E+04 -6.01577E+04  2.23958E+03 -5.42459E+04 -4.04969E+04
 -1.21858E+04 -5.94155E+04  3.74735E+04 -4.25485E+04  5.39697E+04 -1.69060E+03  3.04510E+04  2.93870E+04
 -7.15152E+03  3.16979E+04 -2.69810E+04  1.18660E+04 -2.61547E+04 -5.70982E+03 -1.33869E+04 -9.83974E+03
 -6.87523E+03 -1.08508E+04 -1.31734E+03 -1.59125E+04  6.32823E+03 -2.20271E+04  1.51309E+04 -1.43292E+04
  1.28875E+04  3.37249E+03 -5.36302E+03  1.30231E+04 -1.80875E+04 -1.81009E+03 -7.83233E+03 -2.85393E+04
  1.98681E+04 -3.95790E+04  4.36125E+04 -1.81719E+04  4.06572E+04  1.75686E+04  1.34851E+04  4.00277E+04
 -1.46242E+04  3.03875E+04 -2.25890E+04  8.76908E+02 -7.76607E+03 -2.54562E+04  2.02086E+04 -2.99622E+04
  3.65347E+04 -6.37430E+03  2.93823E+04  2.22924E+04  1.38873E+04  4.07982E+04 -7.74525E+03  4.30055E+04
 -2.65737E+04  2.77515E+04 -3.49344E+04  7.82292E+03 -3.61572E+04 -1.41083E+04 -2.04057E+04 -3.29911E+04
  6.68967E+03 -3.23781E+04  2.75372E+04 -1.19106E+04  2.53611E+04  1.05337E+04  2.37649E+03  1.74833E+04
 -1.24253E+04  6.55515E+03 -9.20076E+03 -7.96070E+03  6.32329E+03 -9.32206E+03  1.68016E+04  6.52931E+03
  1.17103E+04  2.14669E+04 -6.94300E+03  2.24772E+04 -2.08282E+04  8.09810E+03 -2.34300E+04 -6.17157E+03
 -1.51105E+04 -1.57479E+04 -4.63120E+03 -1.48149E+04  3.28683E+03 -1.23770E+04  1.10322E+04 -1.29216E+04
  1.89761E+04 -1.13274E+04  2.63698E+04  5.38221E+02  1.97026E+04  1.46681E+04  4.09061E+03  3.05374E+04
 -1.52527E+04  2.62305E+04 -2.45173E+04  8.81283E+03 -1.90652E+04 -1.04154E+04 -3.97515E+03 -1.44469E+04
  2.76953E+03 -4.55677E+03 -1.76519E+03  4.43248E+03 -1.13444E+04  5.56231E+03 -1.18483E+04 -4.31789E+03
 -7.89943E+03 -1.41532E+04  4.65677E+03 -1.76611E+04  1.17880E+04 -1.27790E+04  1.30411E+04 -1.20278E+03
  7.83051E+03  9.87481E+03 -1.05362E+03  1.41035E+04 -8.96588E+03  7.80273E+03 -1.38853E+04 -3.03283E+03
 -1.07510E+04 -1.30504E+04 -1.41572E+03 -1.71846E+04  8.10691E+03 -1.44329E+04  1.47111E+04 -6.04705E+03
  1.33758E+04  8.01760E+02  8.90760E+03  3.39283E+03  4.57750E+03  2.67314E+02  7.26337E+03 -1.20876E+03
  1.22552E+04  2.59184E+03  1.26145E+04  1.19705E+04  7.33643E+03  2.23189E+04 -2.77622E+03  2.36357E+04
 -1.36208E+04  1.68727E+04 -2.15082E+04  7.75475E+03 -2.12187E+04 -1.32972E+03 -1.91741E+04 -1.19437E+04
 -9.16995E+03 -1.75412E+04  5.74538E+03 -1.69171E+04  1.47178E+04 -1.04789E+04  1.44112E+04  2.76664E+03
  6.28630E+03  9.70031E+03 -6.43787E+03  9.52878E+03 -1.19164E+04  2.44336E+03 -9.50563E+03 -7.55402E+03
 -3.27014E+02 -1.11923E+04  5.80423E+03 -8.68666E+03  6.77998E+03 -9.95675E+02  1.26841E+03  4.21367E+03
 -4.98955E+03  1.19794E+03 -3.24157E+03 -4.20728E+03  1.27506E+03 -8.84562E+03  6.93910E+03 -8.75602E+03
  1.06862E+04 -3.39892E+03  9.60594E+03  2.16917E+03  8.52442E+03  8.36389E+03  4.06671E+03  1.18483E+04
 -9.99210E+02  1.41008E+04 -8.51346E+03  8.94865E+03 -9.38031E+03  2.36146E+03 -7.25590E+03 -1.12905E+03
 -4.29573E+03 -2.69553E+03 -5.71106E+02  1.80320E+03 -2.01659E+03  1.47901E+03 -3.18218E+03  3.05277E+03
 -7.00298E+03 -3.20156E+02 -7.47510E+03 -6.51682E+03 -2.69493E+03 -1.11771E+04  2.56695E+03 -7.63612E+03
  6.43138E+03 -3.58259E+03  4.58541E+03  1.71578E+03  9.59132E+02  2.47277E+03 -2.77377E+03  1.28669E+01
 -2.54437E+03 -4.94402E+03 -9.81258E+02 -5.55478E+03  3.18500E+03 -6.18422E+03  8.90328E+03 -3.21301E+03
  9.74631E+03  1.31905E+02  7.51349E+03  4.65680E+03  1.52298E+03  7.05443E+03 -4.84910E+03  7.38995E+03
 -5.94543E+03  2.23198E+03 -3.55086E+03 -1.06804E+03  1.21707E+03 -1.07878E+03  4.48892E+03 -1.37059E+03
  3.24726E+03  2.48482E+03  1.23640E+03  5.29480E+03 -3.62849E+03  6.00071E+03 -6.67447E+03  2.14647E+03
 -3.91897E+03 -3.50930E+03  7.83292E+02 -5.66375E+03  3.28784E+03 -2.63947E+03  2.82058E+03  1.04173E+03
  8.98354E+01  2.68221E+03 -3.60130E+03  3.98118E+03 -3.40606E+03  1.98713E+03 -3.36916E+03 -1.11215E+03
 -2.22612E+03 -4.93793E+03  7.41850E+02 -6.06742E+03  5.56457E+03 -4.31534E+03  5.48273E+03  8.16187E+02
  3.78069E+03  4.46867E+03  3.56114E+02  6.07801E+03 -4.34811E+03  3.56749E+03 -3.94480E+03 -4.13452E+02
 -5.13329E+03 -4.58667E+03 -5.89036E+02 -3.92350E+03  1.96717E+03 -3.83819E+03  2.44746E+03 -3.27258E+03
  2.67245E+03  4.80983E+02  2.87982E+02  1.02005E+03  9.31735E+02  3.36795E+01 -2.01818E+02 -9.64967E+02
  2.14725E+03 -2.13674E+02  3.79125E+03  2.82460E+02  4.16621E+03  2.09658E+03  4.88810E+03  6.00189E+03
 -7.55952E+02  6.55976E+03 -5.94679E+03  5.64530E+03 -8.41492E+03  1.10584E+03 -6.19467E+03 -2.02395E+03
 -3.81929E+03 -5.20657E+03 -6.55507E+02 -4.26501E+03  2.01839E+03 -1.24392E+03  1.26856E+03 -1.67899E+03
  8.02109E+02 -1.46480E+03  1.67445E+03 -1.94105E+03  3.39194E+03 -1.07472E+03  2.81640E+03  1.15712E+02
  3.41048E+03  1.24400E+03  7.30879E+02  2.57568E+03 -1.31707E+03  2.39061E+03 -3.50002E+03  1.57494E+03
 -4.41921E+03 -1.35745E+03 -8.20908E+02 -2.78415E+03  6.95556E+02 -3.76989E+03  3.30003E+03 -4.45161E+03
  4.08075E+03 -1.95709E+03  5.59887E+03 -2.53829E+02  3.98134E+03  3.44584E+03  8.50687E+02  4.92516E+03
 -1.91751E+03  5.08777E+03 -2.80146E+03  1.60978E+03 -1.15794E+03 -9.35159E+02  1.53302E+02 -5.67577E+02
 -3.55517E+02  2.39351E+02 -9.47078E+02  1.32219E+03 -1.91763E+03  7.26234E+02 -3.80003E+03 -2.90671E+02
 -9.19418E+02 -3.75482E+03  6.48146E+02 -3.61589E+03  1.48438E+03 -3.55033E+03  2.61610E+03 -8.33889E+02
  2.80599E+03  2.03458E+03  1.62010E+03  2.76304E+03 -2.10345E+02  3.91530E+03 -2.10309E+03  1.99707E+03
 -3.22969E+03  8.06678E+02 -2.86900E+03 -2.20346E+03 -1.11196E+02 -2.17126E+03  1.41309E+03 -1.89187E+03
  2.37500E+03 -8.55946E+02  1.18585E+03  6.92868E+02  2.90722E+02  1.48433E+03  9.21697E+02  8.83182E+01
  1.14964E+03  5.46479E+02  1.30918E+03  9.44572E+02  1.20398E+03  2.04603E+03  1.25868E+03  1.32345E+03
 -1.38933E+03  1.96582E+03 -1.74734E+03  3.60554E+03 -2.50009E+03  9.84293E+02 -3.59597E+03  9.83142E+01
 -9.88393E+02 -2.86774E+03  4.22788E+02 -4.26450E+03  9.67255E+02 -1.83957E+03  2.52115E+03 -7.79873E+02
  2.13379E+03  1.64953E+03 -5.60710E+01  2.14486E+03 -3.22340E+02  1.20888E+03 -6.03306E+02 -1.23774E+02
 -3.71362E+02 -1.21763E+03  9.05174E+02 -1.20909E+03  6.55861E+02 -2.02871E+02  1.00724E+03  2.29643E+02
  5.36260E+02  3.53691E+02  7.95190E+02 -2.99081E+02 -1.52430E+02  6.55803E+02  1.21515E+03 -1.11005E+02
 -3.91897E+00 -1.79746E+02  1.20818E+03 -9.04908E+01  3.75557E+02  1.72154E+03 -1.38290E+02  2.90271E+03
 -1.50684E+03  5.43638E+02 -1.64016E+03  5.85464E+02 -1.74968E+03 -7.53464E+02 -5.19347E+02 -3.59892E+02
  5.48282E+02 -8.32551E+02  4.75554E+02 -1.01779E+03  1.80479E+02  8.31671E+02 -4.05017E+02  1.18730E+03
 -8.82345E+02  5.25973E+02 -4.03572E+02 -1.10623E+03 -3.73446E+02 -1.68401E+03  1.61372E+02 -1.07695E+03
 -2.70743E+02 -4.90386E+02  2.19423E+02 -1.04326E+02  1.21058E+03 -6.11461E+02  2.03795E+02  1.07651E+03
 -3.05007E+02  4.44620E+02 -6.39453E+02 -7.04129E+01  1.04633E+03 -9.82540E+02  1.12287E+03 -6.12135E+02
  7.50083E+02  2.24869E+02  2.12689E+03  2.57153E+02  1.21862E+03  3.53255E+02  4.21177E+01  1.48439E+03
 -9.81564E+02  5.48899E+01 -8.10886E+02 -2.17803E+01 -8.11548E+02 -1.48021E+03  1.13118E+02  4.64796E+01
  6.92503E+02 -2.81343E+02  4.84867E+02  6.75045E+02 -1.40016E+02  9.64728E+02  7.56852E+02  8.26356E+02
 -4.83057E+01  1.44170E+03 -7.78029E+01  3.73976E+02  2.17687E+01  5.98568E+02 -4.15774E+02  9.20483E+02
 -9.71404E+01  1.08601E+03 -1.13749E+03  5.01197E+02 -1.11842E+03 -2.48543E+02 -1.72053E+03 -4.73235E+02
 -5.08332E+02 -1.11760E+03  3.39939E+02 -2.31808E+03  7.95109E+02 -2.12758E+03  2.05127E+03 -7.65929E+02
  2.37191E+03 -2.09618E+02  1.05939E+03  1.22855E+03 -5.64396E+02  1.22684E+03 -2.13069E+02  1.36832E+03
 -6.82958E+02  4.48092E+02 -5.39353E+01  3.25648E+02 -3.22938E+02  7.09374E+02 -6.34764E+02 -4.36166E+02
 -1.36995E+03  3.55292E+02 -7.27761E+02  1.52266E+02 -4.67232E+01 -1.02721E+03 -5.62222E+02 -5.80087E+02
  1.40080E+03 -5.74348E+02 -4.64852E+02  8.67450E+01  5.36190E+02  1.17309E+03 -9.27476E+02  1.19204E+03
 -6.58443E+02  2.11839E+03 -1.00060E+03  1.06832E+03 -9.87910E+02  1.66690E+02 -1.04644E+03 -8.75894E+02
 -1.03194E+03 -9.13507E+02  3.72327E+02 -6.50546E+02  1.96008E+02 -4.96153E+02  7.04691E+02  3.05916E+02
  8.87227E+02 -4.94625E+02 -1.56333E+02  6.11561E+02 -4.87181E+02 -4.27115E+02 -1.95304E+02  1.54343E+02
  1.08409E+01 -7.95948E+01  4.20267E+02  4.46185E+02 -1.40677E+02  3.35294E+02  7.99351E+02 -2.85554E+02
 -5.84445E+02  8.33532E+02  7.87450E+01  4.79115E+02 -9.18693E+02 -6.17537E+02 -9.93869E+01 -1.19696E+03
  6.76690E+02 -4.13489E+02 -1.30513E+01  5.04178E+02  5.20102E+02 -8.11181E+02 -6.09207E+01  5.25799E+02
  2.70972E+02  2.34504E+02 -3.86490E+02  1.35909E+02 -3.99216E+02  8.00547E+01 -3.13856E+02  3.53108E+01
  2.17141E+02 -4.92416E+02  1.54269E+02  2.50923E+02 -8.88250E+02  1.30825E+02 -6.87840E+02 -4.45701E+02
 -9.26087E+02  6.18551E+02 -3.26234E+02 -1.52574E+03  5.22652E+02 -1.15505E+03  8.81107E+02 -2.79051E+01
  4.07176E+02  5.31851E+02 -3.91948E+00  1.41636E+02  3.52723E+01  4.78053E+02 -5.95546E+02  6.27136E+02
