 $NMID ID='MM_0lb_SNR400_9hz_g55_13.RAW', FMTDAT='(8E13.5)'
 TRAMP=1., VOLUME=1. $END
  3.10085E+05  4.31308E+02  3.37364E+05  2.50456E+05  8.46942E+04  3.38981E+05 -1.33692E+05  2.51703E+05
 -1.91348E+05  8.32226E+04 -1.12372E+05 -3.27167E+04  7.81256E+02 -5.12989E+04  5.36261E+04 -3.40847E+02
  3.50497E+04  5.29433E+04 -1.66906E+04  7.55448E+04 -6.10416E+04  6.45034E+04 -8.61496E+04  3.30071E+04
 -8.26857E+04 -1.13005E+04 -5.86102E+04 -5.22829E+04 -1.49689E+04 -7.15882E+04  2.87507E+04 -4.71913E+04
  4.11630E+04  3.03132E+03  1.66022E+04  4.91553E+04 -3.51232E+04  4.91883E+04 -6.83526E+04  3.07139E+02
 -5.54661E+04 -5.76637E+04 -6.44486E+03 -7.91743E+04  3.49864E+04 -5.71544E+04  5.05768E+04 -1.74732E+04
  4.60763E+04  1.15712E+04  3.30413E+04  2.62560E+04  1.54840E+04  3.00490E+04 -5.87372E+03  2.79996E+04
 -2.26674E+04  1.22153E+04 -1.73357E+04 -5.28849E+03  6.62642E+03 -7.25202E+03  2.37469E+04  1.41729E+04
  6.67612E+03  3.77450E+04 -3.39399E+04  3.70333E+04 -6.61977E+04  2.05082E+03 -5.93155E+04 -4.44753E+04
 -1.23468E+04 -6.63827E+04  4.18605E+04 -4.85918E+04  6.22901E+04 -2.33444E+03  3.72411E+04  3.51583E+04
 -4.78910E+03  3.91710E+04 -3.19570E+04  1.98366E+04 -3.40756E+04 -2.95641E+03 -1.90184E+04 -1.26825E+04
 -9.87598E+03 -1.50650E+04 -2.85046E+02 -2.00699E+04  8.51945E+03 -2.30254E+04  1.58605E+04 -1.23913E+04
  1.02195E+04  6.10861E+03 -1.08066E+04  1.29684E+04 -2.36710E+04 -6.46581E+03 -8.09831E+03 -3.72508E+04
  2.56240E+04 -4.79009E+04  5.21910E+04 -2.10340E+04  4.85864E+04  2.03603E+04  1.78094E+04  4.70144E+04
 -1.76302E+04  3.61174E+04 -2.71830E+04  2.86249E+03 -1.19968E+04 -2.88568E+04  2.23093E+04 -3.61849E+04
  4.55008E+04 -1.08782E+04  4.08740E+04  2.51187E+04  2.18258E+04  5.17258E+04 -8.80466E+03  5.66345E+04
 -3.61822E+04  3.91069E+04 -4.72312E+04  1.12365E+04 -4.83344E+04 -1.94724E+04 -2.68160E+04 -4.19357E+04
  7.69257E+03 -4.27162E+04  3.41562E+04 -1.68621E+04  3.24557E+04  1.12927E+04  5.10395E+03  2.07409E+04
 -1.40632E+04  1.03859E+04 -1.19200E+04 -8.02609E+03  5.23511E+03 -1.17602E+04  1.90222E+04  5.44344E+03
  1.55601E+04  2.38124E+04 -5.57566E+03  2.76899E+04 -2.40206E+04  1.46345E+04 -3.22659E+04 -3.47405E+03
 -2.58600E+04 -1.96423E+04 -1.17386E+04 -2.49983E+04  4.86975E+03 -2.59700E+04  2.06454E+04 -2.38373E+04
  3.33744E+04 -1.43804E+04  3.95444E+04  5.67742E+03  2.81816E+04  2.51863E+04  4.04451E+03  4.21606E+04
 -1.96589E+04  3.50650E+04 -2.97401E+04  1.24053E+04 -2.30318E+04 -1.02650E+04 -4.92333E+03 -1.22409E+04
  8.17085E+01 -5.90329E+02 -7.87906E+03  8.71294E+03 -2.07317E+04  5.63074E+03 -2.11987E+04 -9.79614E+03
 -1.24022E+04 -2.41978E+04  5.64737E+03 -2.85239E+04  1.94191E+04 -2.01124E+04  2.32775E+04 -1.80233E+03
  1.45254E+04  1.68569E+04 -1.24177E+03  2.35084E+04 -1.77569E+04  1.33631E+04 -2.38238E+04 -5.45512E+03
 -1.77071E+04 -2.02131E+04 -2.03291E+03 -2.86250E+04  1.27539E+04 -2.41726E+04  2.36004E+04 -1.28572E+04
  2.18113E+04 -8.04596E+02  1.53531E+04  5.54967E+03  9.11645E+03  1.67129E+03  1.27474E+04 -1.34899E+03
  2.19780E+04  3.39849E+03  2.65760E+04  1.90029E+04  1.80399E+04  3.95891E+04 -3.32203E+03  4.57117E+04
 -2.62833E+04  3.76460E+04 -4.32264E+04  1.99576E+04 -4.63523E+04 -3.41306E+03 -3.67938E+04 -2.63506E+04
 -1.50788E+04 -3.78350E+04  1.37377E+04 -3.27045E+04  2.90537E+04 -1.52007E+04  2.50167E+04  8.20031E+03
  8.49939E+03  1.96191E+04 -1.09064E+04  1.52242E+04 -2.05798E+04  3.22499E+03 -1.51028E+04 -1.37609E+04
  6.15536E+01 -1.94782E+04  1.09940E+04 -1.51136E+04  1.34680E+04 -5.76885E+02  3.26358E+03  9.35870E+03
 -8.15756E+03  4.57771E+03 -9.42886E+03 -6.17767E+03 -2.46508E+03 -1.84343E+04  1.29717E+04 -2.01034E+04
  2.34678E+04 -1.21834E+04  2.67035E+04  3.00735E+03  2.42896E+04  1.93539E+04  1.15423E+04  3.03037E+04
 -5.44950E+03  3.17169E+04 -2.11960E+04  2.01938E+04 -2.36549E+04  4.26040E+03 -1.56209E+04 -5.90020E+03
 -7.21142E+03 -7.75472E+03 -6.16546E+02  5.65456E+00 -3.24476E+03  3.12068E+03 -7.53800E+03  6.24614E+03
 -1.43033E+04 -1.15237E+03 -1.58391E+04 -1.16079E+04 -6.08341E+03 -1.97930E+04  6.53856E+03 -1.56147E+04
  1.36915E+04 -6.52411E+03  8.95169E+03  4.80946E+03  6.05509E+02  5.83721E+03 -8.07115E+03 -5.83677E+01
 -8.05920E+03 -1.00735E+04 -1.74124E+03 -1.62129E+04  9.14630E+03 -1.66156E+04  2.11437E+04 -8.99547E+03
  2.47810E+04  2.42338E+03  1.75610E+04  1.52978E+04  4.04354E+03  1.98541E+04 -9.57412E+03  1.58628E+04
 -1.33894E+04  4.72516E+03 -6.99081E+03 -3.96494E+03  2.55511E+03 -4.44597E+03  8.63627E+03 -1.64791E+03
  7.41713E+03  7.41667E+03  1.35167E+03  1.25019E+04 -9.17255E+03  1.26668E+04 -1.64797E+04  3.55098E+03
 -1.07135E+04 -7.98876E+03  9.29852E+02 -1.35096E+04  9.57155E+03 -6.74521E+03  1.01665E+04  2.77747E+03
  2.90396E+03  1.03372E+04 -7.90641E+03  1.24985E+04 -1.40704E+04  5.26914E+03 -1.53256E+04 -4.55712E+03
 -8.74509E+03 -1.60856E+04  4.49869E+03 -1.93444E+04  1.56971E+04 -1.08972E+04  1.78048E+04  3.32653E+03
  1.02844E+04  1.36961E+04 -1.80440E+03  1.61836E+04 -1.21166E+04  9.45784E+03 -1.31631E+04 -1.20556E+03
 -1.06861E+04 -1.06912E+04 -2.16390E+03 -1.23066E+04  6.33559E+03 -1.01832E+04  7.43646E+03 -3.85629E+03
  4.65138E+03  1.67895E+03 -1.89667E+03  1.74906E+03 -7.21818E+02 -3.49803E+03  2.44015E+03 -7.94385E+03
  1.19218E+04 -4.98307E+03  1.64839E+04  9.99974E+02  1.62351E+04  1.22797E+04  1.01036E+04  2.15033E+04
 -5.12447E+03  2.43159E+04 -2.03387E+04  1.84203E+04 -2.73222E+04  4.16650E+03 -2.21682E+04 -9.72255E+03
 -1.05749E+04 -1.76201E+04 -6.72817E+02 -1.48971E+04  5.34325E+03 -8.78965E+03  4.91882E+03 -5.31137E+03
  3.88673E+03 -2.81667E+03  2.89731E+03 -4.47119E+03  5.97106E+03 -3.16269E+03  8.74391E+03 -1.41784E+03
  1.10372E+04  2.18282E+03  5.77558E+03  9.69241E+03 -2.65434E+03  1.14556E+04 -1.13146E+04  8.76568E+03
 -1.45197E+04 -1.50529E+03 -1.00702E+04 -1.05480E+04 -1.50157E+03 -1.65687E+04  9.07750E+03 -1.63533E+04
  1.75561E+04 -9.47182E+03  1.99138E+04  2.70852E+03  1.38681E+04  1.36738E+04  1.99835E+03  1.90943E+04
 -7.93124E+03  1.57579E+04 -1.06209E+04  5.02414E+03 -7.42342E+03 -1.44585E+03 -3.48741E+03 -2.17529E+03
 -8.92879E+02 -1.16398E+02 -1.89610E+03  3.38538E+03 -6.02290E+03  2.89283E+03 -1.10133E+04 -9.97716E+02
 -7.06395E+03 -1.09727E+04  2.69098E+01 -1.48298E+04  9.14663E+03 -1.41038E+04  1.55666E+04 -4.15132E+03
  1.46125E+04  7.03255E+03  7.73368E+03  1.38879E+04 -2.95412E+03  1.59265E+04 -1.11142E+04  9.99987E+03
 -1.47339E+04 -5.99112E+02 -1.07442E+04 -1.02190E+04 -8.98007E+02 -1.30981E+04  7.09689E+03 -1.02402E+04
  9.66123E+03 -2.64059E+03  7.15165E+03  2.45380E+03  2.65483E+03  4.77927E+03  1.10393E+03  1.97265E+03
  2.31194E+03  1.37953E+03  3.76033E+03  2.16912E+03  4.52979E+03  5.61815E+03  3.80275E+03  8.80448E+03
 -3.86328E+03  1.27114E+04 -1.06890E+04  1.19659E+04 -1.56692E+04  3.63561E+03 -1.58936E+04 -6.62302E+03
 -8.24001E+03 -1.52289E+04  2.28007E+03 -1.76474E+04  1.00780E+04 -1.07467E+04  1.39327E+04 -2.74959E+03
  8.81021E+03  6.16735E+03  2.55705E+03  8.16666E+03 -4.87725E+03  5.90449E+03 -5.78877E+03 -1.31047E+03
 -3.13189E+03 -6.30242E+03  3.81860E+03 -6.54518E+03  6.17662E+03 -3.65044E+03  5.67544E+03  2.06574E+03
  4.55731E+03  3.54243E+03  1.52967E+03  2.51892E+03 -1.40334E+03  2.45127E+03  1.38661E+03 -8.37061E+02
  3.63115E+03 -1.32614E+03  6.95673E+03  1.07601E+03  4.57522E+03  8.94481E+03 -1.14379E+03  1.05890E+04
 -7.84904E+03  7.58221E+03 -1.02556E+04  1.21028E+03 -9.83112E+03 -4.01597E+03 -3.29706E+03 -6.19874E+03
  1.74036E+03 -7.04832E+03  3.42975E+03 -2.64241E+03  3.42055E+03  2.60566E+03 -1.62212E+03  5.16070E+03
 -6.15613E+03  3.21784E+03 -6.88987E+03 -3.88345E+03 -3.86680E+03 -8.57143E+03  1.38294E+03 -8.29524E+03
  4.76420E+03 -6.32982E+03  5.63242E+03 -1.00428E+03  5.23268E+03  2.71724E+03  1.59639E+02  4.53763E+03
 -2.48520E+03  1.38159E+03 -3.72513E+03 -2.91550E+03  1.33674E+03 -6.27794E+03  8.02134E+03 -5.13144E+03
  1.02019E+04  7.21472E+02  1.00981E+04  7.14877E+03  2.77224E+03  1.08345E+04 -4.18039E+03  9.61863E+03
 -8.78092E+03  4.77327E+03 -8.99340E+03 -3.16273E+03 -4.70590E+03 -6.37693E+03  2.15643E+03 -6.12888E+03
  6.64852E+03 -3.90444E+03  5.46383E+03  2.94480E+03  1.32792E+03  6.12068E+03 -1.87487E+03  6.27292E+03
 -1.77011E+03  3.22799E+03 -2.46774E+03  1.28425E+03 -1.95571E+03  1.66423E+03 -2.34712E+03  2.45037E+03
 -2.24941E+03  4.66872E+03 -7.50119E+03  2.60710E+03 -9.97221E+03  3.52742E+01 -1.18775E+04 -7.20508E+03
 -6.24015E+03 -1.46945E+04  2.75424E+03 -1.60933E+04  1.02610E+04 -1.24442E+04  1.49970E+04 -4.58838E+03
  1.46067E+04  2.96072E+03  9.22753E+03  9.67737E+03  4.78795E+02  1.05559E+04 -3.95324E+03  7.54300E+03
 -5.92586E+03  3.30397E+03 -3.70575E+03 -5.06575E+02 -2.13283E+03 -4.47093E+02 -7.31133E+02 -9.77650E+02
 -2.64799E+03  4.73563E+02 -2.01700E+03 -3.51168E+02 -6.78335E+02 -2.23284E+03  3.98728E+02 -3.88844E+03
  3.78151E+03 -3.45333E+03  6.43477E+03 -3.93895E+02  7.23840E+03  6.21222E+03  1.99440E+03  1.07351E+04
 -5.71372E+03  1.23746E+04 -1.12127E+04  6.85128E+03 -1.29845E+04 -1.57123E+03 -1.00581E+04 -8.68144E+03
 -4.73326E+03 -1.12891E+04  2.22507E+03 -1.01047E+04  7.35498E+03 -5.17450E+03  7.99528E+03  9.30883E+02
  4.47786E+03  2.72561E+03  6.89390E+01  2.53662E+03 -1.80863E+03 -6.03521E+02  7.70260E+02 -2.82811E+03
  4.00458E+03 -1.72144E+03  5.41630E+03  1.57120E+03  3.53913E+03  3.89593E+03 -2.90097E+02  5.74620E+03
 -4.30372E+03  4.88465E+03 -7.34110E+03  1.33779E+01 -6.76458E+03 -5.38915E+03 -1.14336E+03 -9.82289E+03
  5.03794E+03 -6.96184E+03  9.09657E+03 -2.15153E+03  8.30614E+03  1.89518E+03  5.32405E+03  7.30307E+03
  3.55946E+02  7.38662E+03 -3.05658E+03  6.63890E+03 -4.37269E+03  3.57308E+03 -4.34617E+03  2.49664E+02
 -1.89944E+03  1.47648E+01 -1.47565E+03  6.77304E+02 -3.03954E+03  1.15666E+03 -4.69981E+03 -1.52591E+03
 -4.65643E+03 -4.29669E+03 -1.90745E+03 -6.24187E+03  3.47487E+03 -7.29084E+03  6.18327E+03 -4.09385E+03
  6.90308E+03  5.97802E+02  3.47188E+03  4.46757E+03 -6.22844E+01  6.71807E+03 -5.25971E+03  5.21885E+03
