 $NMID ID='MM_0lb_SNR400_11hz_g45_92.RAW', FMTDAT='(8E13.5)'
 TRAMP=1., VOLUME=1. $END
  3.09353E+05  1.04893E+02  3.37539E+05  2.51347E+05  8.47022E+04  3.38002E+05 -1.32871E+05  2.51957E+05
 -1.90896E+05  8.27919E+04 -1.12170E+05 -3.22352E+04  4.41124E+02 -5.00687E+04  5.35230E+04 -1.51573E+02
  3.58116E+04  5.27746E+04 -1.68968E+04  7.57775E+04 -6.12698E+04  6.40963E+04 -8.42772E+04  3.21590E+04
 -8.17232E+04 -1.10121E+04 -5.68974E+04 -5.16314E+04 -1.57462E+04 -6.98649E+04  2.74001E+04 -4.67902E+04
  4.08458E+04  3.86474E+03  1.59459E+04  4.86056E+04 -3.45920E+04  4.85574E+04 -6.71188E+04 -4.87728E+02
 -5.44498E+04 -5.70797E+04 -7.74525E+03 -7.71734E+04  3.42208E+04 -5.57043E+04  4.89958E+04 -1.81094E+04
  4.44471E+04  1.13253E+04  3.27800E+04  2.59430E+04  1.58584E+04  2.97998E+04 -4.81653E+03  2.74296E+04
 -2.18863E+04  1.23344E+04 -1.81185E+04 -5.50406E+03  6.13660E+03 -6.98552E+03  2.38147E+04  1.36988E+04
  6.11865E+03  3.65112E+04 -3.30159E+04  3.58730E+04 -6.46517E+04  2.63149E+03 -5.82535E+04 -4.41539E+04
 -1.24311E+04 -6.47230E+04  4.07537E+04 -4.67910E+04  5.91679E+04 -2.27467E+03  3.57536E+04  3.33813E+04
 -5.68653E+03  3.76952E+04 -3.10639E+04  1.70473E+04 -3.21871E+04 -3.42699E+03 -1.80023E+04 -1.09136E+04
 -8.25794E+03 -1.44152E+04 -5.75679E+02 -1.89509E+04  7.57141E+03 -2.25664E+04  1.59543E+04 -1.27032E+04
  1.10383E+04  5.41250E+03 -9.79200E+03  1.28297E+04 -2.27745E+04 -5.43391E+03 -7.96323E+03 -3.56123E+04
  2.42771E+04 -4.52647E+04  5.03622E+04 -1.93735E+04  4.65225E+04  1.98719E+04  1.58633E+04  4.54932E+04
 -1.64020E+04  3.52328E+04 -2.62287E+04  2.42764E+03 -1.14661E+04 -2.88716E+04  2.18721E+04 -3.56177E+04
  4.23001E+04 -1.00163E+04  3.83852E+04  2.41255E+04  1.93181E+04  4.87772E+04 -7.93373E+03  5.27955E+04
 -3.36074E+04  3.60700E+04 -4.46405E+04  1.03435E+04 -4.53701E+04 -1.76894E+04 -2.50737E+04 -3.96204E+04
  7.48898E+03 -3.95142E+04  3.25487E+04 -1.58889E+04  3.12804E+04  1.11427E+04  4.95162E+03  1.97576E+04
 -1.38516E+04  8.66239E+03 -1.06181E+04 -6.94153E+03  5.39799E+03 -1.19919E+04  1.87378E+04  5.36576E+03
  1.45496E+04  2.25886E+04 -5.49469E+03  2.60542E+04 -2.28773E+04  1.26620E+04 -3.03010E+04 -3.82571E+03
 -2.29085E+04 -1.84909E+04 -9.87266E+03 -2.35734E+04  4.54021E+03 -2.24413E+04  1.83502E+04 -2.04259E+04
  2.86971E+04 -1.32315E+04  3.52003E+04  4.06465E+03  2.50939E+04  2.20198E+04  5.00954E+03  3.91497E+04
 -1.87677E+04  3.25555E+04 -2.96254E+04  1.15343E+04 -2.18624E+04 -1.02290E+04 -4.62996E+03 -1.38922E+04
  8.98955E+02 -1.24396E+03 -6.99699E+03  7.04632E+03 -1.73836E+04  5.25370E+03 -1.79851E+04 -8.07454E+03
 -1.08992E+04 -2.03992E+04  5.45382E+03 -2.50428E+04  1.69293E+04 -1.91453E+04  2.02659E+04 -1.91447E+03
  1.19750E+04  1.47830E+04 -1.43303E+03  2.16256E+04 -1.44013E+04  1.22588E+04 -2.14818E+04 -4.30320E+03
 -1.55557E+04 -1.87398E+04 -2.71952E+03 -2.48579E+04  1.18320E+04 -2.11461E+04  2.10156E+04 -1.08143E+04
  1.95416E+04  8.47412E+02  1.48095E+04  4.79089E+03  7.68286E+03  8.80996E+02  1.05989E+04 -2.58029E+03
  1.99569E+04  3.05350E+03  2.27944E+04  1.57844E+04  1.53116E+04  3.35582E+04 -3.02657E+03  3.87942E+04
 -2.22386E+04  3.18993E+04 -3.58871E+04  1.63606E+04 -3.89378E+04 -2.96568E+03 -3.11659E+04 -2.23740E+04
 -1.27117E+04 -3.21298E+04  1.12487E+04 -2.85832E+04  2.45094E+04 -1.36185E+04  2.14270E+04  6.65079E+03
  7.60874E+03  1.71425E+04 -9.58460E+03  1.40227E+04 -1.84717E+04  2.44049E+03 -1.41999E+04 -1.14734E+04
 -2.53778E+02 -1.70025E+04  1.00074E+04 -1.37404E+04  1.14987E+04 -1.60317E+03  2.64653E+03  7.49795E+03
 -8.55793E+03  2.92170E+03 -7.74213E+03 -6.06269E+03 -1.15711E+03 -1.53619E+04  1.07654E+04 -1.71191E+04
  1.93770E+04 -9.07117E+03  2.20679E+04  2.71860E+03  1.89324E+04  1.63288E+04  9.40956E+03  2.49223E+04
 -3.82940E+03  2.63924E+04 -1.69413E+04  1.59478E+04 -1.96124E+04  3.87700E+03 -1.38704E+04 -4.79713E+03
 -6.05552E+03 -5.98858E+03 -9.03222E+02  1.29782E+03 -2.75256E+03  3.09919E+03 -6.46155E+03  5.41363E+03
 -1.20260E+04 -4.52499E+02 -1.39911E+04 -1.04719E+04 -4.98789E+03 -1.73772E+04  5.27025E+03 -1.35617E+04
  1.09598E+04 -6.04261E+03  7.43351E+03  3.68405E+03  1.25494E+02  4.82535E+03 -6.78173E+03 -6.46627E+02
 -6.17778E+03 -8.40455E+03 -1.14732E+03 -1.28593E+04  8.18078E+03 -1.35736E+04  1.76882E+04 -7.30796E+03
  1.91581E+04  1.57705E+03  1.42768E+04  1.19355E+04  2.72633E+03  1.57825E+04 -8.86260E+03  1.35521E+04
 -1.07763E+04  3.83394E+03 -6.19629E+03 -2.76515E+03  1.45912E+03 -4.01720E+03  6.79760E+03 -8.50440E+02
  6.65982E+03  6.14302E+03  1.07030E+03  1.08205E+04 -7.28886E+03  1.03101E+04 -1.31431E+04  1.90121E+03
 -8.36085E+03 -6.67543E+03 -3.08404E+00 -1.05636E+04  7.59717E+03 -6.69567E+03  7.65372E+03  2.90655E+03
  1.36127E+03  7.63280E+03 -6.87032E+03  1.00722E+04 -1.08424E+04  4.12524E+03 -1.11687E+04 -3.95504E+03
 -6.71996E+03 -1.23492E+04  3.00084E+03 -1.51398E+04  1.21771E+04 -8.34176E+03  1.29100E+04  2.38450E+03
  8.46173E+03  1.07629E+04 -1.14699E+03  1.28035E+04 -1.00266E+04  7.24097E+03 -1.00129E+04 -1.09628E+03
 -9.03861E+03 -8.30204E+03 -1.10464E+03 -1.02398E+04  4.55882E+03 -8.04610E+03  7.02412E+03 -3.45566E+03
  3.68045E+03  2.17476E+03 -8.65430E+01  9.51996E+02 -5.24137E+02 -2.36560E+03  1.64085E+03 -6.11603E+03
  9.38359E+03 -3.02849E+03  1.24686E+04  1.27115E+03  1.24401E+04  8.21573E+03  9.13391E+03  1.69059E+04
 -3.85913E+03  1.84429E+04 -1.60059E+04  1.42184E+04 -2.06319E+04  2.96976E+03 -1.63461E+04 -6.93258E+03
 -8.70749E+03 -1.43628E+04 -2.69232E+02 -1.21537E+04  4.07967E+03 -6.42296E+03  4.22595E+03 -4.10321E+03
  3.22798E+03 -2.71700E+03  3.24727E+03 -3.53358E+03  4.67819E+03 -2.59804E+03  6.73914E+03 -8.02757E+01
  8.56591E+03  1.55397E+03  3.90616E+03  8.20877E+03 -2.21882E+03  8.40387E+03 -8.42556E+03  6.37245E+03
 -1.16705E+04 -1.22290E+03 -7.82328E+03 -7.47146E+03 -1.30762E+03 -1.27758E+04  7.25539E+03 -1.17282E+04
  1.35972E+04 -6.88767E+03  1.50764E+04  2.11600E+03  1.08900E+04  1.01481E+04  1.83903E+03  1.38056E+04
 -6.09313E+03  1.17718E+04 -8.45129E+03  3.48530E+03 -5.98463E+03 -1.11661E+03 -1.79785E+03 -2.03296E+03
 -1.61238E+03  1.13440E+03 -1.81172E+03  2.67835E+03 -4.73014E+03  2.29779E+03 -8.72248E+03 -8.15299E+02
 -5.62219E+03 -8.51216E+03  2.35064E+02 -1.16885E+04  6.81488E+03 -1.02489E+04  1.08717E+04 -3.42800E+03
  1.10444E+04  5.31523E+03  5.07786E+03  9.95490E+03 -1.46827E+03  1.12033E+04 -8.14366E+03  7.28518E+03
 -1.03201E+04  4.55904E+02 -8.45060E+03 -7.35988E+03 -1.00407E+03 -9.49412E+03  4.65343E+03 -6.93349E+03
  7.44451E+03 -2.01723E+03  4.60353E+03  1.30250E+03  1.97290E+03  2.97157E+03  1.21500E+03  1.68876E+03
  2.99485E+03  5.03424E+02  2.97397E+03  1.26081E+03  3.90055E+03  4.65010E+03  2.97495E+03  6.03377E+03
 -2.80776E+03  9.46448E+03 -7.45926E+03  9.28851E+03 -1.13065E+04  2.15319E+03 -1.12946E+04 -4.37435E+03
 -5.22250E+03 -1.13873E+04  1.66997E+03 -1.24154E+04  6.87639E+03 -8.18913E+03  8.82345E+03 -2.51131E+03
  7.75056E+03  4.85238E+03  1.76213E+03  6.45631E+03 -2.70396E+03  3.81847E+03 -4.86217E+03 -8.80295E+02
 -1.46895E+03 -4.42777E+03  2.54644E+03 -4.30590E+03  4.69779E+03 -2.55847E+03  3.80828E+03  1.62330E+03
  2.12475E+03  1.91233E+03  1.27974E+03  1.51272E+03 -1.47740E+02  2.30819E+03  1.81967E+03 -2.73966E+02
  1.39020E+03 -9.10242E+02  5.16381E+03  8.14362E+02  2.09111E+03  6.60458E+03 -1.15384E+03  7.44110E+03
 -4.68974E+03  4.80784E+03 -6.96656E+03  1.76405E+03 -6.50794E+03 -2.54705E+03 -2.18278E+03 -4.76168E+03
  6.11986E+02 -3.71670E+03  2.78677E+03 -1.66960E+03  2.11222E+03  2.93331E+03 -1.77385E+03  3.61760E+03
 -4.37537E+03  2.69241E+03 -4.98966E+03 -3.64579E+03 -3.54386E+03 -6.19957E+03  6.54562E+02 -6.44310E+03
  2.53735E+03 -3.68601E+03  4.48899E+03 -3.91954E+02  3.77777E+03  1.52022E+03  1.46408E+02  3.96281E+03
 -2.13541E+03  8.02990E+02 -2.50491E+03 -1.86848E+03  1.67701E+03 -4.39051E+03  5.02209E+03 -3.75127E+03
  6.58405E+03 -2.86968E+02  6.43092E+03  4.68476E+03  2.40437E+03  7.02928E+03 -2.45002E+03  5.98334E+03
 -6.03784E+03  2.75490E+03 -6.01432E+03 -1.29921E+03 -3.12866E+03 -4.93775E+03  8.07019E+02 -4.12950E+03
  3.77724E+03 -2.59690E+03  3.61591E+03  1.24528E+03  1.45409E+03  4.73457E+03 -1.48686E+03  3.11666E+03
 -1.70788E+03  2.59132E+03 -1.68730E+03  1.09067E+03  2.64903E+02  9.49932E+02 -1.57602E+03  1.74019E+03
 -1.84418E+03  2.33189E+03 -4.99665E+03  2.38215E+03 -7.19965E+03  7.11646E+02 -7.65769E+03 -4.26061E+03
 -4.02289E+03 -9.49454E+03  1.98329E+03 -1.08256E+04  6.02273E+03 -8.31214E+03  9.91173E+03 -2.62950E+03
  9.34902E+03  1.93572E+03  5.53348E+03  6.22636E+03  2.63239E+02  7.63214E+03 -2.31516E+03  4.91186E+03
 -4.22226E+03  1.92022E+03 -3.15128E+03 -1.09089E+03 -1.08392E+03 -4.00555E+02 -7.68114E+02  4.38570E+00
 -1.52197E+03  4.44769E+01 -2.18234E+03 -3.04265E+01 -1.05231E+03 -2.05327E+03 -1.01996E+03 -2.98940E+03
  3.65939E+03 -1.63267E+03  3.76200E+03 -3.41567E+02  5.00448E+03  3.71080E+03  1.28148E+03  6.10808E+03
 -3.20450E+03  8.30902E+03 -7.38767E+03  4.43949E+03 -8.42410E+03 -4.67403E+02 -6.48110E+03 -4.97859E+03
 -2.70828E+03 -7.21952E+03  1.68168E+03 -7.25579E+03  3.79273E+03 -3.29754E+03  4.07552E+03  2.37689E+02
  2.41698E+03  2.29277E+03 -4.56525E+02  2.54081E+03 -1.63995E+03 -2.12697E+02 -1.44133E+02 -1.79914E+03
  2.34659E+03 -4.44784E+02  2.45556E+03  9.87710E+02  2.12861E+03  1.80521E+03 -1.87689E+02  3.42268E+03
 -3.27915E+03  2.53429E+03 -4.45977E+03  1.60550E+02 -4.55014E+03 -3.43403E+03 -4.21258E+02 -5.75920E+03
  3.84376E+03 -5.12816E+03  5.10982E+03 -1.73422E+03  4.63980E+03  1.08348E+03  2.65611E+03  4.29557E+03
  3.02138E+02  4.40558E+03 -8.19219E+02  3.52358E+03 -3.12961E+03  2.56950E+03 -2.40014E+03  3.51354E+02
 -1.35170E+03 -8.00947E+02 -1.63398E+03  3.70284E+02 -2.24043E+03  1.48394E+03 -4.01843E+03 -1.12481E+03
 -3.63614E+03 -1.52382E+03 -1.29726E+01 -5.19435E+03  2.01442E+03 -5.21367E+03  3.78768E+03 -2.09750E+03
  4.17327E+03  5.48819E+02  2.59249E+03  3.11059E+03  9.01765E+02  4.48817E+03 -2.33081E+03  2.70963E+03
