 $NMID ID='MM_0lb_SNR400_12hz_g45_70.RAW', FMTDAT='(8E13.5)'
 TRAMP=1., VOLUME=1. $END
  3.09701E+05  2.21275E+02  3.37582E+05  2.51106E+05  8.48384E+04  3.38289E+05 -1.32346E+05  2.51502E+05
 -1.90520E+05  8.30032E+04 -1.12126E+05 -3.24497E+04  8.55203E+02 -5.09135E+04  5.36231E+04  4.82241E+02
  3.52052E+04  5.28093E+04 -1.70664E+04  7.60527E+04 -6.18204E+04  6.40302E+04 -8.43219E+04  3.22510E+04
 -8.14957E+04 -1.14907E+04 -5.80863E+04 -5.12910E+04 -1.46172E+04 -6.97793E+04  2.75920E+04 -4.53949E+04
  4.06447E+04  3.26115E+03  1.66292E+04  4.76417E+04 -3.49700E+04  4.72098E+04 -6.70157E+04 -1.05172E+02
 -5.36206E+04 -5.67660E+04 -6.96114E+03 -7.71610E+04  3.41357E+04 -5.58972E+04  4.85113E+04 -1.69709E+04
  4.41179E+04  1.06095E+04  3.26063E+04  2.61665E+04  1.61161E+04  2.99165E+04 -5.58194E+03  2.73942E+04
 -2.21058E+04  1.22550E+04 -1.88149E+04 -4.91788E+03  6.06159E+03 -7.60814E+03  2.27266E+04  1.29893E+04
  7.01659E+03  3.57977E+04 -3.24849E+04  3.57802E+04 -6.42145E+04  2.23729E+03 -5.77038E+04 -4.28877E+04
 -1.26158E+04 -6.41344E+04  4.05512E+04 -4.60016E+04  5.93161E+04 -1.85365E+03  3.45665E+04  3.30858E+04
 -5.49436E+03  3.72752E+04 -3.07750E+04  1.73815E+04 -3.12861E+04 -3.98724E+03 -1.79966E+04 -1.19664E+04
 -9.66806E+03 -1.40609E+04 -4.04154E+02 -1.88179E+04  7.80721E+03 -2.34884E+04  1.51091E+04 -1.31872E+04
  1.14104E+04  4.96150E+03 -8.99600E+03  1.33333E+04 -2.22196E+04 -4.76469E+03 -8.04037E+03 -3.47318E+04
  2.34736E+04 -4.41888E+04  4.90532E+04 -1.98883E+04  4.68059E+04  2.06901E+04  1.63590E+04  4.54597E+04
 -1.60606E+04  3.46838E+04 -2.63408E+04  2.56118E+03 -1.01831E+04 -2.83678E+04  2.12643E+04 -3.50258E+04
  4.18465E+04 -9.56984E+03  3.74012E+04  2.39885E+04  1.89567E+04  4.75337E+04 -8.01675E+03  5.21826E+04
 -3.34558E+04  3.52872E+04 -4.39104E+04  1.04178E+04 -4.40236E+04 -1.71992E+04 -2.39983E+04 -3.90227E+04
  7.66059E+03 -3.89147E+04  3.28726E+04 -1.63945E+04  2.99938E+04  1.08971E+04  5.25157E+03  1.97143E+04
 -1.24677E+04  9.25188E+03 -1.10154E+04 -7.53000E+03  6.14436E+03 -1.11769E+04  1.81767E+04  5.84439E+03
  1.39681E+04  2.27465E+04 -5.91678E+03  2.55599E+04 -2.25634E+04  1.22916E+04 -2.88141E+04 -4.37693E+03
 -2.23373E+04 -1.77000E+04 -9.43163E+03 -2.18955E+04  3.97036E+03 -2.10962E+04  1.63413E+04 -2.03894E+04
  2.79750E+04 -1.32355E+04  3.41976E+04  3.35961E+03  2.47080E+04  2.20618E+04  4.10586E+03  3.73168E+04
 -1.90107E+04  3.14714E+04 -2.83221E+04  1.10283E+04 -2.08874E+04 -1.02801E+04 -4.54458E+03 -1.30213E+04
  1.18970E+03 -2.30403E+03 -5.23255E+03  6.27049E+03 -1.76772E+04  5.09429E+03 -1.75568E+04 -7.40044E+03
 -1.03196E+04 -2.05780E+04  6.01675E+03 -2.44926E+04  1.62775E+04 -1.75287E+04  1.91018E+04 -1.69736E+03
  1.16708E+04  1.37712E+04 -6.85714E+02  2.02385E+04 -1.42247E+04  1.10967E+04 -2.05100E+04 -4.17944E+03
 -1.53915E+04 -1.88544E+04 -2.45813E+03 -2.42542E+04  1.05974E+04 -2.00638E+04  2.06903E+04 -9.89599E+03
  1.91862E+04 -3.18788E+02  1.39643E+04  4.28541E+03  7.49350E+03  1.32137E+03  9.73400E+03 -2.18423E+03
  1.83078E+04  2.94470E+03  2.12553E+04  1.50672E+04  1.38257E+04  3.26446E+04 -2.93138E+03  3.70980E+04
 -2.15660E+04  3.03397E+04 -3.44797E+04  1.53086E+04 -3.60004E+04 -2.26640E+03 -3.07024E+04 -2.15053E+04
 -1.28585E+04 -3.01114E+04  1.06829E+04 -2.72598E+04  2.38040E+04 -1.38079E+04  2.05405E+04  5.84369E+03
  7.43902E+03  1.66066E+04 -9.84589E+03  1.32634E+04 -1.77169E+04  3.08067E+03 -1.31902E+04 -1.15557E+04
 -3.58201E+02 -1.63564E+04  8.79246E+03 -1.20741E+04  1.11363E+04 -1.40833E+03  2.71673E+03  7.39151E+03
 -7.52290E+03  2.84475E+03 -7.07141E+03 -5.91847E+03 -1.01756E+03 -1.49911E+04  1.02093E+04 -1.60535E+04
  1.84027E+04 -8.28484E+03  2.00735E+04  2.47511E+03  1.80714E+04  1.48387E+04  8.22433E+03  2.28979E+04
 -3.91495E+03  2.41138E+04 -1.58551E+04  1.48617E+04 -1.76310E+04  3.75271E+03 -1.26918E+04 -4.29899E+03
 -5.52795E+03 -5.62523E+03 -8.56228E+02  1.33736E+02 -2.94951E+03  2.75464E+03 -6.39408E+03  4.43690E+03
 -1.20387E+04 -1.07454E+03 -1.21431E+04 -9.97308E+03 -5.06611E+03 -1.64792E+04  5.24489E+03 -1.24092E+04
  1.07590E+04 -5.86633E+03  7.10721E+03  3.72367E+03  6.33112E+01  4.84431E+03 -6.31087E+03  5.27184E+02
 -5.94494E+03 -7.97194E+03 -6.56465E+02 -1.21495E+04  6.54722E+03 -1.26649E+04  1.55242E+04 -7.15974E+03
  1.84382E+04  1.29143E+03  1.35707E+04  1.08257E+04  2.11802E+03  1.46346E+04 -7.84677E+03  1.24496E+04
 -9.99590E+03  3.29238E+03 -5.43235E+03 -2.53339E+03  1.87985E+03 -2.83356E+03  6.66281E+03 -6.16450E+02
  6.10282E+03  5.76283E+03  1.27411E+03  1.01627E+04 -6.88791E+03  9.95540E+03 -1.19549E+04  2.85978E+03
 -8.30675E+03 -6.50882E+03  1.15988E+02 -1.00287E+04  5.89818E+03 -5.16911E+03  7.30124E+03  2.50760E+03
  1.53976E+03  7.15782E+03 -6.70469E+03  8.08038E+03 -9.24757E+03  3.98864E+03 -9.24974E+03 -1.94325E+03
 -5.84755E+03 -1.15569E+04  2.45237E+03 -1.39379E+04  1.16725E+04 -7.84650E+03  1.26246E+04  2.59306E+03
  7.66279E+03  9.61858E+03 -6.17276E+02  1.24533E+04 -8.34836E+03  6.34478E+03 -9.91034E+03 -7.50399E+02
 -8.86666E+03 -8.26343E+03 -1.44537E+03 -9.27731E+03  4.45764E+03 -7.65962E+03  5.17883E+03 -3.48852E+03
  3.83016E+03  1.87616E+03 -6.74584E+02  1.34460E+03  3.48290E+02 -1.26391E+03  1.28087E+03 -4.90089E+03
  8.13756E+03 -3.44465E+03  1.18836E+04  1.63816E+03  1.11479E+04  7.73540E+03  7.41420E+03  1.44611E+04
 -2.89290E+03  1.67296E+04 -1.43917E+04  1.23657E+04 -1.88437E+04  2.36229E+03 -1.53307E+04 -6.38409E+03
 -7.82095E+03 -1.22499E+04 -8.04123E+02 -1.07032E+04  4.40468E+03 -5.54435E+03  3.81072E+03 -3.87727E+03
  3.11695E+03 -2.98845E+03  2.76796E+03 -3.67925E+03  5.08543E+03 -3.21755E+03  7.06533E+03 -5.61969E+02
  8.03515E+03  2.04975E+03  4.02053E+03  6.82162E+03 -1.94727E+03  7.39818E+03 -8.81428E+03  6.39240E+03
 -1.01993E+04 -1.42019E+03 -5.37986E+03 -7.20580E+03 -1.24489E+02 -1.03175E+04  5.87745E+03 -1.04635E+04
  1.12658E+04 -5.79237E+03  1.40185E+04  2.29043E+03  9.18249E+03  9.01990E+03  2.04719E+03  1.28302E+04
 -4.41438E+03  1.05083E+04 -7.16165E+03  4.13830E+03 -4.03600E+03 -1.31091E+03 -1.74727E+03 -1.81721E+03
 -8.55179E+02 -7.43950E+01 -1.43593E+03  2.90295E+03 -4.87080E+03  1.81879E+03 -7.41892E+03 -1.72095E+02
 -5.55435E+03 -7.42530E+03  9.37349E+01 -1.02591E+04  5.97453E+03 -9.00785E+03  1.00068E+04 -3.45175E+03
  9.68374E+03  5.02501E+03  4.92179E+03  8.91983E+03 -1.79475E+03  1.04251E+04 -7.00942E+03  6.14623E+03
 -9.50376E+03  8.77421E+01 -7.14704E+03 -6.26774E+03 -8.59029E+02 -9.19462E+03  3.75525E+03 -6.17547E+03
  6.38419E+03 -2.44638E+03  4.25991E+03  1.48343E+03  1.37090E+03  4.39488E+03  9.07267E+02  8.64303E+02
  2.21706E+03  1.11355E+03  1.90647E+03  1.72800E+03  3.21903E+03  3.97042E+03  2.91319E+03  5.27510E+03
 -2.48978E+03  7.13410E+03 -6.56044E+03  8.44519E+03 -9.12376E+03  2.18055E+03 -1.03557E+04 -4.10213E+03
 -4.69940E+03 -9.43518E+03  1.24252E+03 -1.05110E+04  6.60707E+03 -7.00733E+03  7.97100E+03 -1.91946E+03
  6.00099E+03  3.91592E+03  1.33006E+03  5.55918E+03 -2.23668E+03  3.44832E+03 -3.38222E+03 -2.45194E+02
 -1.42179E+03 -3.63140E+03  2.41269E+03 -3.87821E+03  4.26785E+03 -2.03388E+03  4.03760E+03  5.12633E+02
  2.41250E+03  1.87069E+03  1.18247E+03  1.30127E+03 -5.55792E+02  1.69521E+03  1.55835E+03  3.86644E+02
  7.51017E+02 -1.27021E+03  4.14304E+03  2.14338E+03  1.83498E+03  5.20027E+03 -1.57543E+03  7.06001E+03
 -4.13799E+03  4.27199E+03 -6.04408E+03  1.07689E+03 -5.46935E+03 -2.06537E+03 -1.99561E+03 -2.99340E+03
  2.08908E+02 -3.50611E+03  1.81760E+03 -1.98255E+03  1.89760E+03  2.19027E+03 -1.32592E+03  2.86897E+03
 -4.04100E+03  1.93026E+03 -3.49864E+03 -2.69893E+03 -2.16726E+03 -4.80559E+03  9.46188E+02 -5.15452E+03
  2.76756E+03 -2.74836E+03  3.72106E+03  2.73264E+02  3.62372E+03  7.76855E+02  5.23587E+02  3.10302E+03
 -1.54431E+03  1.15511E+03 -2.27312E+03 -1.53297E+03  1.09330E+03 -3.36435E+03  4.72874E+03 -2.77928E+03
  5.23181E+03 -4.15278E+01  6.19906E+03  3.15484E+03  2.35134E+03  5.74617E+03 -2.37033E+03  5.97749E+03
 -4.27959E+03  1.78225E+03 -5.70310E+03 -6.63539E+01 -2.44593E+03 -3.17602E+03  1.01352E+03 -3.80354E+03
  3.37398E+03 -1.99766E+03  2.74952E+03  1.97162E+03  1.18685E+03  3.73755E+03 -2.58460E+02  3.05187E+03
 -1.59297E+03  1.76051E+03 -1.01262E+03  3.73740E+00 -7.02069E+02  1.49250E+03 -1.61048E+03  2.17084E+03
 -1.41941E+03  1.88656E+03 -4.17649E+03  2.48371E+03 -6.04717E+03  2.09294E+02 -6.61286E+03 -3.15680E+03
 -3.09453E+03 -6.83322E+03  1.83796E+03 -8.94857E+03  5.33379E+03 -7.10496E+03  8.40856E+03 -2.82724E+03
  7.76578E+03  1.36638E+03  5.49090E+03  5.33689E+03  4.12414E+02  6.62339E+03 -3.14610E+03  4.39699E+03
 -3.37956E+03  1.43911E+03 -2.23764E+03 -2.40741E+02  1.94437E+01 -2.10406E+02 -1.50924E+03  7.90765E+01
 -1.43110E+03  3.85854E+02 -2.44222E+03 -5.94120E+02 -5.52402E+02 -9.49505E+02  3.51543E+02 -2.03581E+03
  2.85867E+03 -1.65000E+03  3.05329E+03  3.83905E+02  4.44210E+03  3.42758E+03  7.50013E+02  5.66033E+03
 -3.39782E+03  6.82090E+03 -6.36463E+03  3.94628E+03 -6.83766E+03 -3.68146E+02 -5.77510E+03 -4.38873E+03
 -2.92511E+03 -6.09444E+03  1.55171E+03 -5.40972E+03  4.16026E+03 -2.13663E+03  3.24947E+03 -2.36877E+02
  1.73232E+03  1.79267E+03 -5.75011E+02  1.52274E+03 -8.15739E+02  7.25267E+01  5.76537E+01 -1.11155E+03
  1.82849E+03 -6.74130E+02  2.60783E+03  3.79362E+02  1.30280E+03  2.09680E+03 -7.40957E+02  2.41679E+03
 -2.83183E+03  2.11092E+03 -3.75535E+03  7.79851E+02 -3.03098E+03 -2.17716E+03 -9.64069E+02 -4.40212E+03
  3.11604E+03 -4.22940E+03  4.10092E+03 -6.88689E+02  4.46490E+03  4.82442E+02  2.17697E+03  3.36124E+03
  1.01806E+03  3.52954E+03 -1.14733E+03  2.84440E+03 -2.84584E+03  1.79112E+03 -1.32320E+03 -2.75755E+02
 -1.08804E+03 -6.49322E+02 -1.34522E+03  1.56708E+02 -1.73283E+03  7.75131E+02 -2.78966E+03 -9.52528E+02
 -2.90070E+03 -1.39173E+03 -7.41313E+02 -3.95378E+03  1.53570E+03 -4.17393E+03  3.01900E+03 -1.83209E+03
  4.14437E+03  4.68087E+02  1.98823E+03  2.35231E+03 -6.26643E+02  3.76136E+03 -2.60236E+03  2.06585E+03
