 $NMID ID='MM_0lb_SNR400_16hz_g60_94.RAW', FMTDAT='(8E13.5)'
 TRAMP=1., VOLUME=1. $END
  3.09914E+05  9.62383E+02  3.37837E+05  2.51243E+05  8.49925E+04  3.37887E+05 -1.32364E+05  2.51480E+05
 -1.90331E+05  8.30368E+04 -1.11706E+05 -3.18050E+04  6.59589E+02 -5.05122E+04  5.42643E+04 -2.65159E+02
  3.53635E+04  5.29790E+04 -1.71722E+04  7.57210E+04 -6.03199E+04  6.42710E+04 -8.37948E+04  3.24753E+04
 -8.12418E+04 -1.15007E+04 -5.70329E+04 -5.11487E+04 -1.50489E+04 -6.94967E+04  2.70482E+04 -4.55192E+04
  4.02949E+04  3.92297E+03  1.58915E+04  4.79972E+04 -3.42761E+04  4.70772E+04 -6.69092E+04 -7.22930E+02
 -5.31543E+04 -5.69541E+04 -7.18550E+03 -7.75558E+04  3.40540E+04 -5.53202E+04  4.83720E+04 -1.70800E+04
  4.38456E+04  1.11735E+04  3.21159E+04  2.52908E+04  1.58583E+04  2.98412E+04 -5.33858E+03  2.71215E+04
 -2.25671E+04  1.20645E+04 -1.90793E+04 -5.17045E+03  6.25970E+03 -7.49510E+03  2.19011E+04  1.24875E+04
  7.17098E+03  3.48584E+04 -3.22921E+04  3.56305E+04 -6.33437E+04  2.75638E+03 -5.72832E+04 -4.27768E+04
 -1.22974E+04 -6.36547E+04  3.95602E+04 -4.55281E+04  5.82655E+04 -2.19556E+03  3.43155E+04  3.28846E+04
 -6.51414E+03  3.62560E+04 -2.98405E+04  1.54477E+04 -3.03459E+04 -4.66842E+03 -1.68403E+04 -1.05417E+04
 -8.02853E+03 -1.30429E+04 -8.61099E+02 -1.84473E+04  7.09516E+03 -2.31497E+04  1.53737E+04 -1.33870E+04
  1.18275E+04  5.51803E+03 -8.23901E+03  1.31424E+04 -2.12954E+04 -4.74878E+03 -8.04071E+03 -3.38922E+04
  2.24382E+04 -4.29183E+04  4.79400E+04 -2.02240E+04  4.46695E+04  1.97052E+04  1.60089E+04  4.45988E+04
 -1.60402E+04  3.35247E+04 -2.55248E+04  1.79767E+03 -1.00003E+04 -2.79687E+04  2.05856E+04 -3.39244E+04
  4.09081E+04 -9.15557E+03  3.51388E+04  2.40580E+04  1.79926E+04  4.62122E+04 -8.43286E+03  5.01721E+04
 -3.22170E+04  3.33420E+04 -4.24113E+04  1.01210E+04 -4.27446E+04 -1.64851E+04 -2.31254E+04 -3.79143E+04
  6.87456E+03 -3.77376E+04  3.13176E+04 -1.54860E+04  2.91442E+04  1.08698E+04  3.82182E+03  1.88354E+04
 -1.31804E+04  8.50147E+03 -1.09683E+04 -7.31137E+03  5.61128E+03 -1.10642E+04  1.75210E+04  6.22153E+03
  1.26523E+04  2.21114E+04 -6.55026E+03  2.51530E+04 -2.23232E+04  1.13643E+04 -2.78821E+04 -4.47188E+03
 -2.07446E+04 -1.70039E+04 -8.47586E+03 -2.00247E+04  3.95928E+03 -1.97295E+04  1.61779E+04 -1.76640E+04
  2.54062E+04 -1.29470E+04  3.23056E+04  3.09212E+03  2.38257E+04  2.04189E+04  4.13546E+03  3.54799E+04
 -1.77767E+04  2.96593E+04 -2.72193E+04  1.01134E+04 -2.05622E+04 -1.05581E+04 -4.71709E+03 -1.35358E+04
  1.74031E+03 -2.63144E+03 -5.34487E+03  7.02337E+03 -1.65895E+04  5.13525E+03 -1.59176E+04 -6.95384E+03
 -9.99459E+03 -1.87183E+04  5.25744E+03 -2.23829E+04  1.49835E+04 -1.64548E+04  1.76393E+04 -1.93024E+03
  1.11359E+04  1.26044E+04 -1.11526E+03  1.91722E+04 -1.25273E+04  1.06960E+04 -1.85557E+04 -3.74898E+03
 -1.41053E+04 -1.69938E+04 -1.69558E+03 -2.21073E+04  1.02871E+04 -1.82074E+04  1.94000E+04 -9.13044E+03
  1.74399E+04 -1.96962E+01  1.24346E+04  5.22416E+03  6.37724E+03  8.46312E+02  9.33459E+03 -1.51440E+03
  1.72392E+04  2.74260E+03  1.86503E+04  1.48566E+04  1.23964E+04  2.95113E+04 -3.09432E+03  3.31422E+04
 -1.92702E+04  2.59062E+04 -3.14664E+04  1.32737E+04 -3.22098E+04 -2.49783E+03 -2.74210E+04 -1.85554E+04
 -1.16230E+04 -2.66474E+04  9.29071E+03 -2.38438E+04  2.05115E+04 -1.29947E+04  1.92934E+04  4.89779E+03
  6.69447E+03  1.39020E+04 -8.76575E+03  1.15614E+04 -1.57963E+04  2.03378E+03 -1.23324E+04 -9.62741E+03
  1.61306E+02 -1.44910E+04  7.73036E+03 -1.11362E+04  9.99151E+03 -1.04440E+03  2.29263E+03  6.41571E+03
 -7.07267E+03  2.18308E+03 -5.85351E+03 -5.11284E+03 -4.64642E+02 -1.31116E+04  8.99731E+03 -1.33615E+04
  1.59647E+04 -7.19600E+03  1.75069E+04  3.06249E+03  1.42567E+04  1.20544E+04  6.63953E+03  1.92127E+04
 -2.73190E+03  2.14569E+04 -1.29899E+04  1.35343E+04 -1.45264E+04  3.77969E+03 -1.11231E+04 -3.50220E+03
 -5.75658E+03 -3.83872E+03 -7.68695E+02  1.16933E+03 -2.80789E+03  2.46068E+03 -5.03013E+03  3.80373E+03
 -1.00569E+04 -4.33388E+02 -1.04152E+04 -8.82322E+03 -5.10780E+03 -1.40985E+04  4.20633E+03 -1.01659E+04
  8.93063E+03 -4.35321E+03  6.60706E+03  2.66462E+03  4.64586E+02  4.22981E+03 -5.34661E+03  4.07216E+02
 -4.66201E+03 -6.42181E+03 -1.50881E+03 -9.85856E+03  6.24909E+03 -1.00660E+04  1.33116E+04 -5.65400E+03
  1.54720E+04  1.90088E+03  1.12763E+04  8.53890E+03  2.65112E+03  1.22466E+04 -6.54977E+03  1.05688E+04
 -8.69216E+03  3.43107E+03 -4.53411E+03 -2.36832E+03  1.63608E+03 -2.99074E+03  5.97961E+03 -1.21655E+03
  4.96202E+03  3.84629E+03  1.22730E+03  8.44940E+03 -5.71507E+03  8.52637E+03 -1.05035E+04  2.57421E+03
 -6.94002E+03 -5.64855E+03 -9.83759E+01 -8.64865E+03  5.31749E+03 -4.82391E+03  5.38795E+03  1.72497E+03
  9.26055E+02  4.85214E+03 -5.36966E+03  6.77620E+03 -7.18316E+03  3.22318E+03 -7.61776E+03 -2.05228E+03
 -4.76761E+03 -8.91871E+03  1.69354E+03 -1.03835E+04  8.43591E+03 -6.27077E+03  9.50328E+03  1.40142E+03
  6.23216E+03  7.15807E+03 -1.36198E+02  9.65176E+03 -7.56578E+03  5.52356E+03 -7.04651E+03 -6.58745E+02
 -7.18274E+03 -6.25258E+03 -1.24788E+03 -7.16637E+03  3.86796E+03 -5.40431E+03  4.07164E+03 -3.20583E+03
  3.11789E+03  4.67241E+02 -7.29977E+02  1.53385E+03  2.29939E+02 -1.05352E+03  1.19933E+03 -2.99154E+03
  6.39122E+03 -1.99882E+03  8.11517E+03  1.05232E+03  7.92616E+03  5.23603E+03  6.31034E+03  1.04234E+04
 -1.91194E+03  1.29591E+04 -1.09683E+04  9.47821E+03 -1.31878E+04  1.85974E+03 -1.10562E+04 -5.39168E+03
 -5.48196E+03 -9.77560E+03 -6.66459E+02 -7.45107E+03  2.67533E+03 -3.99918E+03  2.20709E+03 -2.53232E+03
  1.36386E+03 -1.79506E+03  2.20986E+03 -2.92266E+03  3.62055E+03 -1.84121E+03  4.85899E+03 -4.55070E+02
  5.79204E+03  1.45003E+03  2.44203E+03  5.34247E+03 -1.58138E+03  4.86635E+03 -6.37398E+03  4.11953E+03
 -7.50128E+03 -5.23431E+02 -3.82075E+03 -5.00065E+03  5.00506E+02 -7.29076E+03  4.92630E+03 -8.04628E+03
  8.51007E+03 -4.37750E+03  9.82513E+03  8.40385E+02  6.85789E+03  5.35117E+03  1.61620E+03  8.72870E+03
 -4.36339E+03  8.25764E+03 -4.91390E+03  2.91502E+03 -3.24614E+03 -1.23889E+03 -8.52269E+02 -3.71676E+02
 -1.17906E+03  6.54096E+02 -1.18805E+03  2.24482E+03 -2.78995E+03  1.14190E+03 -5.51791E+03 -7.77505E+02
 -2.59509E+03 -5.10392E+03  1.17069E+03 -7.09921E+03  4.26319E+03 -6.46664E+03  6.52099E+03 -1.49689E+03
  5.96847E+03  3.85354E+03  2.89666E+03  5.80031E+03 -1.38284E+03  6.54698E+03 -3.83227E+03  4.65102E+03
 -6.23413E+03  2.39165E+02 -4.99743E+03 -3.45371E+03 -8.61804E+01 -4.97296E+03  2.82278E+03 -3.75756E+03
  3.95899E+03 -1.97397E+03  3.38386E+03  7.20725E+02  7.14510E+02  2.00328E+03  8.70147E+02  4.98120E+02
  2.59461E+03  4.77990E+02  1.51238E+03  1.17376E+03  1.94688E+03  2.94605E+03  1.81279E+03  2.66438E+03
 -1.99912E+03  4.67308E+03 -4.07627E+03  5.75537E+03 -6.06293E+03  2.00513E+03 -5.96795E+03 -2.05033E+03
 -2.52720E+03 -6.13513E+03  1.18510E+03 -7.49439E+03  2.59052E+03 -3.97633E+03  4.31531E+03 -9.96298E+02
  3.46936E+03  2.88269E+03  1.69556E+02  3.37749E+03 -1.64414E+03  1.54418E+03 -2.01126E+03  9.88380E+01
 -1.31605E+03 -2.51790E+03  1.70600E+03 -3.17971E+03  1.85207E+03 -1.79720E+03  2.62276E+03  2.63524E+02
  1.62204E+03  6.66040E+02  1.07224E+03 -1.77976E+02 -8.93138E+02  1.14271E+03  1.37881E+03 -4.40269E+02
  1.63805E+02 -2.07829E+02  2.51800E+03  2.71740E+02  5.12821E+02  2.85838E+03 -7.18506E+02  4.22581E+03
 -2.84937E+03  2.10101E+03 -3.99841E+03  6.43563E+02 -3.05633E+03 -1.08306E+03 -9.18759E+02 -2.37109E+03
  7.61537E+02 -1.80490E+03  9.62497E+02 -8.57522E+02  9.35184E+02  1.70483E+03 -5.95988E+02  1.87257E+03
 -2.32267E+03  8.80265E+02 -2.38309E+03 -1.21991E+03 -7.71058E+02 -3.37531E+03 -5.46132E+01 -2.69502E+03
  1.81870E+03 -1.20720E+03  1.49963E+03 -5.85198E+02  2.28837E+03 -1.58925E+02 -4.60857E+02  1.09109E+03
 -1.44024E+03  1.15465E+01 -1.43704E+03 -7.18787E+02  4.83728E+02 -1.89197E+03  2.49041E+03 -1.53033E+03
  2.37030E+03  7.87859E+01  3.89704E+03  7.86099E+02  1.49784E+03  2.60963E+03 -1.09013E+03  2.84739E+03
 -2.47154E+03  5.26995E+02 -2.82809E+03 -7.82255E+02 -1.05716E+03 -2.34355E+03  6.53003E+02 -1.38830E+03
  2.17794E+03 -1.17389E+03  1.60977E+03  1.48627E+03  3.88360E+02  2.30303E+03  5.33347E+02  1.80855E+03
 -6.65226E+02  1.46488E+03 -4.12764E+02  1.00068E+03  6.11124E+02  2.53141E+02 -1.53717E+03  5.53480E+02
 -4.40432E+02  1.32108E+03 -2.88821E+03  8.91712E+02 -3.05822E+03  3.89388E+02 -3.20507E+03 -1.50316E+03
 -1.89033E+03 -4.01510E+03  5.16378E+02 -4.56581E+03  2.50335E+03 -3.38145E+03  4.87256E+03 -1.27406E+03
  3.56497E+03 -9.95408E+01  2.30634E+03  2.97212E+03 -3.66530E+02  2.42460E+03 -1.51171E+03  1.49452E+03
 -1.64984E+03  8.41034E+02 -2.12519E+03 -3.34093E+02  1.72123E+01  7.80375E+00 -6.21600E+02 -3.38344E+01
 -1.44104E+03  6.51554E+02 -9.55354E+02 -3.00561E+02 -3.24734E+02 -7.67691E+02 -6.26050E+02 -1.92175E+03
  1.38851E+03 -1.53573E+03  9.56291E+02  8.19834E+01  1.19060E+03  1.36513E+03 -2.83234E+02  1.65334E+03
 -1.50696E+03  3.61584E+03 -3.05244E+03  2.05990E+03 -2.93933E+03  1.97536E+02 -2.41232E+03 -2.23789E+03
 -1.63055E+03 -1.95260E+03  4.80902E+02 -2.33546E+03  1.17890E+03 -1.29391E+03  1.15963E+03  4.23903E+02
  6.13678E+02  6.85958E+02 -1.35826E+01  6.64068E+02 -6.65916E+02  8.37464E+01  1.91736E+02 -7.07812E+02
  5.29324E+02  1.00863E+02  9.41333E+02  5.75171E+02  3.03545E+02  8.82146E+02  1.04177E+03  8.19503E+02
 -1.09187E+03  1.31525E+03 -9.30637E+02 -2.76890E+02 -1.15025E+03 -1.56566E+03 -5.60259E+02 -2.12024E+03
  1.61177E+03 -1.78924E+03  1.07191E+03 -6.66092E+02  1.62476E+03  3.12978E+02  6.30953E+02  1.21766E+03
  7.20581E+02  6.91277E+02 -3.95655E+02  1.02603E+03 -8.81985E+02  6.98289E+02 -6.47603E+02 -6.90084E+01
 -3.56844E+02 -3.37055E+01 -3.62811E+02 -4.05630E+01 -9.14024E+02  6.89726E+02 -1.03343E+03 -4.55392E+02
 -1.92324E+03  9.79882E+01 -8.56018E+02 -1.90283E+03  1.47838E+03 -1.87620E+03  2.10760E+03 -1.09423E+02
  2.19552E+03 -6.77135E+01  1.75048E+02  5.74428E+02 -3.98332E+02  1.28250E+03 -1.32192E+03  1.77991E+03
