 $NMID ID='MM_0lb_SNR400_10hz_g45_4.RAW', FMTDAT='(8E13.5)'
 TRAMP=1., VOLUME=1. $END
  3.09485E+05 -5.75008E+02  3.37900E+05  2.50864E+05  8.43744E+04  3.38595E+05 -1.32389E+05  2.51888E+05
 -1.90486E+05  8.38239E+04 -1.13206E+05 -3.20692E+04  8.21573E+02 -5.08323E+04  5.33997E+04 -9.94384E+01
  3.49322E+04  5.32309E+04 -1.66442E+04  7.56311E+04 -6.13834E+04  6.36011E+04 -8.56735E+04  3.28843E+04
 -8.23055E+04 -1.18028E+04 -5.75196E+04 -5.13978E+04 -1.48254E+04 -7.02592E+04  2.86839E+04 -4.64301E+04
  4.08033E+04  3.94475E+03  1.59422E+04  4.76452E+04 -3.45418E+04  4.82428E+04 -6.80058E+04 -6.70958E+02
 -5.44427E+04 -5.69518E+04 -7.41575E+03 -7.83583E+04  3.39265E+04 -5.59962E+04  4.95712E+04 -1.85540E+04
  4.38295E+04  1.14349E+04  3.22813E+04  2.54103E+04  1.56460E+04  2.98835E+04 -5.33018E+03  2.75947E+04
 -2.17417E+04  1.18165E+04 -1.80010E+04 -5.39887E+03  6.45803E+03 -7.68464E+03  2.33073E+04  1.26159E+04
  6.99709E+03  3.67966E+04 -3.45543E+04  3.68530E+04 -6.57837E+04  2.30732E+03 -5.84032E+04 -4.41142E+04
 -1.31877E+04 -6.48747E+04  4.17584E+04 -4.61110E+04  5.97540E+04 -2.65189E+03  3.63542E+04  3.28372E+04
 -6.05814E+03  3.80243E+04 -3.20458E+04  1.75769E+04 -3.17214E+04 -3.76582E+03 -1.82968E+04 -1.20468E+04
 -8.89361E+03 -1.44619E+04 -2.87163E+01 -1.94969E+04  7.87760E+03 -2.35821E+04  1.57528E+04 -1.30070E+04
  1.11770E+04  5.72853E+03 -1.03751E+04  1.39053E+04 -2.24622E+04 -6.73073E+03 -8.45395E+03 -3.68413E+04
  2.43334E+04 -4.58787E+04  5.12028E+04 -2.02251E+04  4.78618E+04  1.99336E+04  1.73312E+04  4.62974E+04
 -1.66856E+04  3.59786E+04 -2.71086E+04  2.29768E+03 -1.11482E+04 -2.88042E+04  2.13455E+04 -3.63856E+04
  4.32961E+04 -1.05567E+04  3.91779E+04  2.46491E+04  2.00423E+04  4.97729E+04 -8.13872E+03  5.45648E+04
 -3.42141E+04  3.60758E+04 -4.59038E+04  1.13673E+04 -4.64151E+04 -1.79518E+04 -2.59936E+04 -4.07072E+04
  7.70004E+03 -3.97564E+04  3.37348E+04 -1.63169E+04  3.12733E+04  1.11198E+04  4.66402E+03  2.10152E+04
 -1.31362E+04  9.34300E+03 -1.08739E+04 -7.21434E+03  5.28029E+03 -1.17159E+04  1.88200E+04  5.88024E+03
  1.50152E+04  2.18787E+04 -5.66459E+03  2.71328E+04 -2.24144E+04  1.38608E+04 -3.03413E+04 -3.50837E+03
 -2.42860E+04 -1.81499E+04 -1.05588E+04 -2.35562E+04  4.26930E+03 -2.36204E+04  1.80318E+04 -2.16353E+04
  2.96756E+04 -1.38735E+04  3.65870E+04  3.55525E+03  2.60356E+04  2.36485E+04  4.23267E+03  3.95035E+04
 -1.85026E+04  3.37850E+04 -2.92686E+04  1.08271E+04 -2.17793E+04 -9.80344E+03 -4.68085E+03 -1.32802E+04
  1.32247E+03 -2.10920E+03 -6.59968E+03  8.04430E+03 -1.91736E+04  5.03902E+03 -1.92551E+04 -8.79750E+03
 -1.13517E+04 -2.19339E+04  6.08070E+03 -2.61962E+04  1.79892E+04 -1.85548E+04  2.16385E+04 -1.30635E+03
  1.34976E+04  1.50178E+04 -1.77749E+03  2.17652E+04 -1.48377E+04  1.28784E+04 -2.29844E+04 -4.23588E+03
 -1.60057E+04 -1.98782E+04 -1.70785E+03 -2.62297E+04  1.25701E+04 -2.20617E+04  2.17609E+04 -1.11970E+04
  2.09530E+04 -7.39657E+02  1.56130E+04  4.89621E+03  7.57609E+03  1.00029E+03  1.15938E+04 -2.23757E+03
  2.05173E+04  2.89447E+03  2.38729E+04  1.75570E+04  1.59057E+04  3.53766E+04 -2.23440E+03  4.18701E+04
 -2.23967E+04  3.32127E+04 -3.83198E+04  1.77293E+04 -4.07885E+04 -3.25721E+03 -3.38879E+04 -2.38079E+04
 -1.34606E+04 -3.36434E+04  1.22391E+04 -3.07561E+04  2.58639E+04 -1.43079E+04  2.26072E+04  7.22226E+03
  7.81932E+03  1.71873E+04 -1.08420E+04  1.52228E+04 -1.91671E+04  2.36828E+03 -1.49446E+04 -1.19833E+04
 -1.10490E+03 -1.83259E+04  9.92367E+03 -1.30949E+04  1.28348E+04 -1.21467E+03  3.13832E+03  7.92497E+03
 -8.57877E+03  3.84775E+03 -8.38276E+03 -6.64026E+03 -1.43432E+03 -1.69634E+04  1.15650E+04 -1.79914E+04
  2.04125E+04 -9.43250E+03  2.31160E+04  3.47432E+03  2.06711E+04  1.68936E+04  9.73930E+03  2.67118E+04
 -4.53875E+03  2.81583E+04 -1.84741E+04  1.71028E+04 -2.11041E+04  3.65531E+03 -1.45858E+04 -5.23230E+03
 -6.92576E+03 -6.92198E+03 -2.49688E+02  5.63443E+02 -2.68295E+03  3.28011E+03 -5.97093E+03  4.54798E+03
 -1.36338E+04 -8.33166E+02 -1.39498E+04 -1.07814E+04 -4.98142E+03 -1.86575E+04  6.11626E+03 -1.46447E+04
  1.18996E+04 -6.47322E+03  8.70355E+03  4.05175E+03  1.97265E+02  5.94522E+03 -6.98817E+03 -1.25116E+02
 -6.88346E+03 -9.56522E+03 -8.71889E+02 -1.37222E+04  8.24341E+03 -1.45640E+04  1.81196E+04 -7.92183E+03
  2.20702E+04  3.09196E+03  1.58809E+04  1.27055E+04  2.81937E+03  1.73486E+04 -8.63808E+03  1.43776E+04
 -1.12930E+04  4.58811E+03 -5.97799E+03 -3.52511E+03  1.73543E+03 -4.83986E+03  7.26321E+03 -1.93916E+02
  6.53936E+03  6.61756E+03  1.70984E+03  1.14067E+04 -8.46265E+03  1.10513E+04 -1.43445E+04  2.58498E+03
 -9.97925E+03 -6.85857E+03  2.63861E+02 -1.23135E+04  7.30087E+03 -6.48936E+03  8.67691E+03  2.38839E+03
  2.98736E+03  8.57748E+03 -6.82141E+03  1.03174E+04 -1.18724E+04  4.54932E+03 -1.28737E+04 -3.86132E+03
 -6.81700E+03 -1.35857E+04  3.26370E+03 -1.65321E+04  1.27693E+04 -8.94410E+03  1.44496E+04  2.89880E+03
  8.86905E+03  1.17686E+04 -8.65311E+02  1.35328E+04 -1.01464E+04  7.43794E+03 -1.17360E+04 -1.63001E+03
 -1.03274E+04 -9.36658E+03 -1.92704E+03 -1.05299E+04  5.76631E+03 -8.80069E+03  6.49291E+03 -3.26791E+03
  4.32151E+03  1.37663E+03 -3.78937E+02  2.07546E+03 -4.00274E+02 -2.27800E+03  1.58344E+03 -6.39901E+03
  9.83571E+03 -3.30022E+03  1.41683E+04  1.62607E+03  1.35191E+04  9.06140E+03  9.34591E+03  1.79120E+04
 -4.53157E+03  2.12012E+04 -1.82999E+04  1.58551E+04 -2.28980E+04  3.08240E+03 -1.82889E+04 -8.11950E+03
 -1.00181E+04 -1.46946E+04 -3.36891E+02 -1.27097E+04  4.72625E+03 -6.30615E+03  4.50182E+03 -4.24782E+03
  3.09036E+03 -3.06348E+03  3.05247E+03 -3.75717E+03  5.19686E+03 -3.13453E+03  6.82064E+03 -9.35346E+02
  9.49799E+03  2.39406E+03  4.50326E+03  7.33740E+03 -2.60599E+03  9.38255E+03 -1.02017E+04  7.43778E+03
 -1.30162E+04 -1.69591E+03 -8.39258E+03 -8.60059E+03 -8.99424E+02 -1.30174E+04  8.03968E+03 -1.33403E+04
  1.42013E+04 -7.82517E+03  1.73228E+04  1.92819E+03  1.22395E+04  1.19977E+04  1.62602E+03  1.50785E+04
 -6.86987E+03  1.27713E+04 -9.53258E+03  4.69792E+03 -6.57092E+03 -1.25178E+03 -2.04106E+03 -2.44131E+03
 -1.18828E+03 -2.02374E+02 -2.32648E+03  3.16714E+03 -5.16763E+03  2.19467E+03 -8.47425E+03 -1.42432E+03
 -6.45227E+03 -8.72145E+03  7.88507E+02 -1.21505E+04  7.42905E+03 -1.19775E+04  1.22189E+04 -4.08773E+03
  1.21775E+04  6.27647E+03  5.55804E+03  1.14956E+04 -2.64204E+03  1.25388E+04 -9.78211E+03  7.39739E+03
 -1.15550E+04  1.33990E+03 -9.49835E+03 -7.72288E+03 -9.23119E+02 -1.02410E+04  5.73074E+03 -7.70882E+03
  7.61147E+03 -2.26478E+03  5.49471E+03  2.06799E+03  2.04943E+03  3.54846E+03  1.64556E+03  2.06327E+03
  2.66182E+03  1.61612E+03  2.72301E+03  1.47691E+03  3.10744E+03  4.56930E+03  2.87515E+03  6.41942E+03
 -2.81769E+03  9.99437E+03 -8.35652E+03  1.02535E+04 -1.32740E+04  2.76750E+03 -1.35392E+04 -5.44087E+03
 -6.51193E+03 -1.30531E+04  1.98164E+03 -1.41214E+04  7.65095E+03 -9.21245E+03  1.08122E+04 -2.38200E+03
  8.41185E+03  4.69755E+03  1.38533E+03  7.38781E+03 -3.81526E+03  5.50285E+03 -4.53578E+03  7.96693E+01
 -2.34938E+03 -5.90806E+03  3.21280E+03 -5.61569E+03  5.12073E+03 -3.57621E+03  4.71859E+03  6.32887E+02
  3.43928E+03  1.99860E+03  1.28130E+03  1.22606E+03 -6.27990E+02  1.95424E+03  1.25172E+03 -5.91742E+02
  2.03061E+03 -3.89476E+02  5.26744E+03  2.02616E+03  2.80346E+03  6.58723E+03 -7.41378E+02  8.98797E+03
 -6.18953E+03  5.24236E+03 -8.14858E+03  2.07269E+03 -6.93926E+03 -2.42282E+03 -2.69938E+03 -5.17832E+03
  1.70279E+02 -5.03396E+03  3.94963E+03 -2.16700E+03  2.38957E+03  2.16772E+03 -1.93745E+03  4.31219E+03
 -5.14273E+03  2.69130E+03 -5.75341E+03 -3.60021E+03 -2.65390E+03 -6.98566E+03  9.00610E+02 -6.82072E+03
  4.68751E+03 -4.21311E+03  5.01656E+03 -5.22335E+02  4.34229E+03  1.41941E+03  4.89269E+02  4.02811E+03
 -2.85148E+03  1.20338E+03 -3.07725E+03 -2.38479E+03  5.40844E+02 -4.91876E+03  7.23514E+03 -3.65361E+03
  7.61950E+03  7.00091E+02  7.53455E+03  4.75672E+03  2.26242E+03  8.68329E+03 -2.26520E+03  8.02481E+03
 -7.36179E+03  3.35697E+03 -7.15063E+03 -1.19640E+03 -3.60129E+03 -5.62853E+03  8.73228E+02 -5.61718E+03
  5.55140E+03 -2.76568E+03  4.21416E+03  1.82648E+03  1.47604E+03  4.86860E+03 -8.11710E+02  4.51696E+03
 -2.27583E+03  2.35942E+03 -2.15657E+03  1.60023E+03 -1.18465E+03  6.83859E+02 -1.00871E+03  1.86016E+03
 -2.13098E+03  3.43014E+03 -5.36697E+03  2.53896E+03 -8.85014E+03  3.05266E+02 -8.93833E+03 -5.82263E+03
 -4.38843E+03 -1.05273E+04  2.27256E+03 -1.30587E+04  7.76646E+03 -9.18196E+03  1.18761E+04 -4.15319E+03
  1.03600E+04  1.27897E+03  6.59544E+03  7.64976E+03  2.17404E+02  8.24676E+03 -2.68519E+03  6.06534E+03
 -4.03414E+03  2.04454E+03 -2.37177E+03 -5.69838E+02 -1.27624E+03 -7.73037E+02 -5.23337E+02 -9.35543E+02
 -2.12753E+03 -8.22483E+00 -1.36051E+03 -6.88714E+02 -5.08801E+02 -2.81773E+03  5.84421E+02 -3.11066E+03
  3.89995E+03 -2.00105E+03  4.60480E+03 -2.45990E+02  5.95816E+03  4.81814E+03  1.16311E+03  9.24402E+03
 -3.32228E+03  9.30604E+03 -9.19426E+03  6.26715E+03 -1.12546E+04 -8.82795E+02 -7.52626E+03 -7.89725E+03
 -3.19229E+03 -8.80326E+03  1.88234E+03 -7.86254E+03  5.95126E+03 -4.66670E+03  6.15625E+03  4.78346E+02
  2.95600E+03  2.97006E+03 -3.55671E+02  1.84524E+03 -1.20790E+03 -2.21126E+02  2.87754E+02 -1.81502E+03
  2.61260E+03 -5.43318E+02  3.28038E+03  1.82447E+03  2.54770E+03  3.47090E+03  4.93360E+02  3.99166E+03
 -3.42077E+03  3.79366E+03 -5.64171E+03  3.36450E+02 -5.21666E+03 -3.66565E+03  8.70601E+01 -6.09470E+03
  4.20585E+03 -5.35194E+03  6.38580E+03 -2.06760E+03  6.96500E+03  5.94214E+02  3.76522E+03  4.77502E+03
 -4.18523E+02  6.09459E+03 -2.32261E+03  4.28445E+03 -3.59763E+03  2.81287E+03 -2.73615E+03 -6.49580E+02
 -2.07871E+03 -5.26295E+02 -1.38768E+03  7.40663E+02 -2.93819E+03  1.23059E+03 -4.36257E+03 -1.12075E+03
 -3.99474E+03 -3.35444E+03 -9.36762E+02 -5.63393E+03  2.51447E+03 -5.93800E+03  5.72895E+03 -2.37244E+03
  6.04277E+03  7.92524E+02  3.47066E+03  4.49110E+03 -4.07735E+02  5.39068E+03 -4.49923E+03  4.10467E+03
