 $NMID ID='MM_0lb_SNR400_9hz_g40_15.RAW', FMTDAT='(8E13.5)'
 TRAMP=1., VOLUME=1. $END
  3.10627E+05 -4.87320E+01  3.37970E+05  2.50268E+05  8.51394E+04  3.38809E+05 -1.32722E+05  2.51435E+05
 -1.90750E+05  8.32675E+04 -1.12829E+05 -3.21942E+04  4.31374E+02 -5.08206E+04  5.33937E+04  4.70897E+02
  3.58183E+04  5.31859E+04 -1.64375E+04  7.57581E+04 -6.03953E+04  6.41675E+04 -8.49796E+04  3.17203E+04
 -8.21049E+04 -1.09786E+04 -5.73522E+04 -5.16824E+04 -1.54552E+04 -7.07688E+04  2.79933E+04 -4.63734E+04
  4.13606E+04  3.94866E+03  1.65279E+04  4.86526E+04 -3.46231E+04  4.68633E+04 -6.72978E+04  1.40165E+03
 -5.42049E+04 -5.80316E+04 -5.47639E+03 -7.87913E+04  3.44999E+04 -5.70818E+04  4.94075E+04 -1.81974E+04
  4.49260E+04  1.12051E+04  3.23835E+04  2.64336E+04  1.62961E+04  3.07992E+04 -4.75852E+03  2.79540E+04
 -2.26068E+04  1.15977E+04 -1.79172E+04 -5.87223E+03  6.33715E+03 -7.62251E+03  2.32053E+04  1.36951E+04
  6.51321E+03  3.68946E+04 -3.37506E+04  3.64904E+04 -6.58406E+04  2.33253E+03 -5.81352E+04 -4.26804E+04
 -1.25946E+04 -6.48724E+04  4.14470E+04 -4.74878E+04  6.09312E+04 -2.83625E+03  3.60006E+04  3.38635E+04
 -5.53435E+03  3.85107E+04 -3.23975E+04  1.78642E+04 -3.34835E+04 -3.95773E+03 -1.91057E+04 -1.20760E+04
 -9.54849E+03 -1.43380E+04  2.09291E+02 -1.94694E+04  8.39370E+03 -2.30128E+04  1.59496E+04 -1.29867E+04
  1.07259E+04  6.31913E+03 -1.00419E+04  1.30097E+04 -2.31337E+04 -6.08288E+03 -8.38908E+03 -3.65286E+04
  2.47270E+04 -4.56410E+04  5.17622E+04 -2.03316E+04  4.82292E+04  2.06072E+04  1.73246E+04  4.58536E+04
 -1.61108E+04  3.64118E+04 -2.70451E+04  3.00315E+03 -1.10813E+04 -2.95737E+04  2.18139E+04 -3.62391E+04
  4.43644E+04 -1.04540E+04  3.93160E+04  2.49449E+04  2.05925E+04  5.06525E+04 -8.17890E+03  5.46555E+04
 -3.48614E+04  3.77469E+04 -4.67512E+04  1.10125E+04 -4.67372E+04 -1.86115E+04 -2.52028E+04 -4.10309E+04
  7.69544E+03 -4.12083E+04  3.37966E+04 -1.74638E+04  3.19637E+04  1.02816E+04  4.76676E+03  2.06454E+04
 -1.31491E+04  8.68557E+03 -1.06230E+04 -7.59223E+03  5.94773E+03 -1.07104E+04  1.83918E+04  6.24350E+03
  1.46459E+04  2.37422E+04 -5.80371E+03  2.66304E+04 -2.33322E+04  1.41602E+04 -3.09278E+04 -3.52477E+03
 -2.44086E+04 -1.81263E+04 -1.17525E+04 -2.37735E+04  3.73472E+03 -2.45379E+04  1.86982E+04 -2.30694E+04
  3.12156E+04 -1.35994E+04  3.70632E+04  4.94636E+03  2.67774E+04  2.41323E+04  4.50840E+03  4.08136E+04
 -1.96559E+04  3.29658E+04 -3.07344E+04  1.16606E+04 -2.17786E+04 -9.94022E+03 -4.54208E+03 -1.27600E+04
  9.90379E+02 -1.00746E+03 -7.47511E+03  8.21170E+03 -1.95758E+04  5.02781E+03 -1.98793E+04 -9.31384E+03
 -1.16821E+04 -2.21620E+04  6.33688E+03 -2.69748E+04  1.90311E+04 -1.96243E+04  2.09995E+04 -1.78834E+03
  1.29693E+04  1.56702E+04 -8.68254E+02  2.27787E+04 -1.61243E+04  1.26902E+04 -2.26915E+04 -4.67742E+03
 -1.66036E+04 -2.01173E+04 -2.80074E+03 -2.68045E+04  1.22749E+04 -2.25361E+04  2.25288E+04 -1.09348E+04
  2.22812E+04 -4.00904E+02  1.51759E+04  4.98069E+03  8.20457E+03  1.16632E+03  1.18512E+04 -1.32105E+03
  2.05488E+04  2.37901E+03  2.41167E+04  1.75404E+04  1.75514E+04  3.60802E+04 -2.38085E+03  4.26940E+04
 -2.52150E+04  3.52250E+04 -4.00845E+04  1.82539E+04 -4.20984E+04 -3.90674E+03 -3.52301E+04 -2.49388E+04
 -1.35025E+04 -3.53440E+04  1.22059E+04 -3.16373E+04  2.69552E+04 -1.46265E+04  2.33715E+04  8.28633E+03
  7.74126E+03  1.82142E+04 -1.08074E+04  1.50876E+04 -2.00274E+04  2.23034E+03 -1.48893E+04 -1.18072E+04
 -2.35885E+02 -1.79528E+04  9.98407E+03 -1.37448E+04  1.28247E+04 -1.07171E+03  3.74391E+03  8.68303E+03
 -8.33072E+03  3.79363E+03 -8.77113E+03 -6.77411E+03 -8.94120E+02 -1.78464E+04  1.21866E+04 -1.86965E+04
  2.21914E+04 -1.11895E+04  2.44643E+04  3.83454E+03  2.21814E+04  1.75016E+04  9.82670E+03  2.83451E+04
 -6.02021E+03  3.01413E+04 -1.87926E+04  1.82168E+04 -2.13728E+04  3.38330E+03 -1.44811E+04 -4.56818E+03
 -6.04046E+03 -6.65331E+03 -1.20753E+03  4.93854E+02 -2.02969E+03  3.53308E+03 -6.74976E+03  6.13333E+03
 -1.36847E+04 -1.98013E+02 -1.44173E+04 -1.12370E+04 -5.39238E+03 -1.84064E+04  6.51571E+03 -1.52345E+04
  1.29791E+04 -6.46181E+03  9.34981E+03  4.22212E+03  5.27932E+02  5.66974E+03 -7.68891E+03 -1.15172E+02
 -6.89298E+03 -9.78672E+03 -1.07535E+03 -1.52409E+04  9.29141E+03 -1.57620E+04  1.89410E+04 -8.81667E+03
  2.22717E+04  1.94468E+03  1.59795E+04  1.32154E+04  2.93024E+03  1.79427E+04 -8.71382E+03  1.47156E+04
 -1.24494E+04  3.99605E+03 -6.41127E+03 -3.49343E+03  1.75879E+03 -3.66381E+03  7.68871E+03 -1.43071E+03
  7.00443E+03  6.14944E+03  1.33849E+03  1.22185E+04 -8.36057E+03  1.05950E+04 -1.40232E+04  3.82527E+03
 -9.70201E+03 -7.65697E+03  5.11876E+02 -1.33134E+04  8.96213E+03 -7.50135E+03  8.33176E+03  2.77370E+03
  2.21965E+03  9.16435E+03 -7.05475E+03  1.09947E+04 -1.31853E+04  5.43346E+03 -1.25613E+04 -4.33037E+03
 -7.66171E+03 -1.52937E+04  3.78394E+03 -1.69781E+04  1.53097E+04 -1.03996E+04  1.56448E+04  2.41191E+03
  9.83922E+03  1.24873E+04 -1.31234E+03  1.48872E+04 -1.13178E+04  8.39212E+03 -1.24129E+04 -9.59451E+02
 -1.06488E+04 -1.01872E+04 -1.88145E+03 -1.10795E+04  6.16239E+03 -9.26154E+03  7.27304E+03 -3.10848E+03
  4.77252E+03  1.99762E+03 -1.32890E+03  2.50239E+03 -1.00614E+03 -3.54529E+03  2.92669E+03 -7.05480E+03
  1.05291E+04 -4.11836E+03  1.49760E+04  1.53687E+03  1.55285E+04  1.06967E+04  9.79996E+03  1.99293E+04
 -5.07595E+03  2.23899E+04 -1.91420E+04  1.64157E+04 -2.48780E+04  3.16990E+03 -2.05546E+04 -8.75561E+03
 -1.01103E+04 -1.71067E+04 -5.19455E+02 -1.41031E+04  4.75255E+03 -7.95398E+03  4.77677E+03 -4.87775E+03
  3.39951E+03 -2.33212E+03  3.08753E+03 -3.64151E+03  6.09545E+03 -3.63615E+03  7.53097E+03 -1.94020E+03
  9.59946E+03  2.33410E+03  5.61767E+03  9.15032E+03 -2.48656E+03  1.06422E+04 -1.10636E+04  7.92478E+03
 -1.45242E+04 -1.46747E+03 -8.73634E+03 -8.99709E+03 -1.37609E+03 -1.45558E+04  7.74808E+03 -1.43948E+04
  1.56066E+04 -8.84544E+03  1.78159E+04  2.33414E+03  1.30835E+04  1.31402E+04  1.81343E+03  1.70116E+04
 -7.05395E+03  1.42097E+04 -9.89896E+03  4.72636E+03 -6.49690E+03 -1.31942E+03 -2.85358E+03 -2.68717E+03
 -2.25109E+03 -5.44095E+02 -2.29814E+03  3.42110E+03 -5.97409E+03  2.88858E+03 -9.26051E+03 -4.46443E+02
 -7.36194E+03 -9.82893E+03 -4.58866E+02 -1.33945E+04  8.21283E+03 -1.30222E+04  1.36184E+04 -4.40127E+03
  1.32354E+04  6.99798E+03  7.22824E+03  1.27041E+04 -2.62714E+03  1.43917E+04 -9.95928E+03  8.94032E+03
 -1.29923E+04  5.55621E+02 -9.68072E+03 -8.08597E+03 -1.61206E+03 -1.20369E+04  6.34265E+03 -8.57556E+03
  8.83783E+03 -3.26230E+03  6.39606E+03  2.95374E+03  1.73707E+03  4.96768E+03  2.12992E+03  1.98177E+03
  2.29082E+03  7.70024E+02  3.72092E+03  2.13740E+03  3.33567E+03  4.74900E+03  3.80788E+03  6.72697E+03
 -3.67377E+03  1.19214E+04 -9.65098E+03  1.10644E+04 -1.50784E+04  3.70351E+03 -1.60361E+04 -5.84521E+03
 -7.33370E+03 -1.46411E+04  1.18664E+03 -1.52740E+04  8.54160E+03 -1.06873E+04  1.22938E+04 -2.61486E+03
  9.24740E+03  5.63467E+03  1.90464E+03  8.06209E+03 -4.28178E+03  4.73641E+03 -5.66964E+03 -1.59693E+03
 -2.81917E+03 -6.29116E+03  3.78841E+03 -6.38220E+03  6.72116E+03 -3.89832E+03  5.84449E+03  4.55637E+02
  3.16651E+03  2.95957E+03  1.53200E+03  2.37597E+03 -5.59927E+02  1.84717E+03  1.85429E+03 -8.98060E+02
  1.45251E+03 -1.23094E+03  5.26678E+03  2.17569E+03  4.23485E+03  8.06276E+03 -1.00200E+03  9.90006E+03
 -6.16276E+03  6.48899E+03 -8.82908E+03  1.42698E+03 -8.69722E+03 -2.96784E+03 -3.77714E+03 -5.86540E+03
  9.77083E+02 -5.52385E+03  4.27929E+03 -2.23288E+03  2.59631E+03  2.37294E+03 -1.08133E+03  5.31406E+03
 -5.46614E+03  3.18724E+03 -6.45940E+03 -3.42404E+03 -3.91037E+03 -7.96101E+03  4.06515E+02 -8.01768E+03
  5.33864E+03 -5.50142E+03  5.41336E+03 -1.18029E+03  5.71368E+03  2.00931E+03  1.64330E+02  4.11536E+03
 -2.72497E+03  1.22873E+03 -3.14892E+03 -3.16087E+03  1.34063E+03 -6.53433E+03  6.21755E+03 -4.78389E+03
  8.45791E+03  5.91669E+02  8.89213E+03  6.68015E+03  3.39787E+03  9.40490E+03 -2.85141E+03  9.53805E+03
 -8.15229E+03  4.14518E+03 -8.37160E+03 -6.35635E+02 -4.23415E+03 -5.74606E+03  1.39654E+03 -5.97409E+03
  6.19065E+03 -2.78997E+03  5.15027E+03  2.57472E+03  1.10802E+03  4.84913E+03 -3.97934E+02  4.41163E+03
 -2.48259E+03  2.92402E+03 -2.72067E+03  1.90037E+02 -8.14463E+02  1.11788E+03 -5.41057E+02  2.87414E+03
 -2.57085E+03  3.56631E+03 -6.62364E+03  2.95821E+03 -9.95175E+03  8.17272E+02 -1.08643E+04 -6.10295E+03
 -5.25787E+03 -1.24634E+04  2.04475E+03 -1.43230E+04  8.41400E+03 -1.13223E+04  1.39638E+04 -4.13199E+03
  1.26926E+04  1.39596E+03  7.98269E+03  8.30697E+03  1.27236E+03  1.00898E+04 -4.26746E+03  7.41086E+03
 -5.30417E+03  2.18047E+03 -3.92855E+03 -2.23517E+03 -1.10447E+03 -3.18410E+02 -9.57868E+02  3.43434E+02
 -1.57691E+03  4.58075E+02 -1.94519E+03 -1.16352E+03 -6.69703E+02 -2.25144E+03 -1.45577E+02 -4.48504E+03
  4.29758E+03 -2.38597E+03  6.40180E+03  1.12495E+03  6.77913E+03  5.35284E+03  1.62497E+03  1.03489E+04
 -4.74815E+03  1.14151E+04 -1.03606E+04  6.31642E+03 -1.23675E+04 -6.43708E+02 -8.32997E+03 -6.80347E+03
 -4.02127E+03 -8.97891E+03  2.56302E+03 -9.65632E+03  6.68026E+03 -4.53313E+03  5.80795E+03  8.24907E+02
  3.09790E+03  2.47738E+03 -8.93400E+01  3.33825E+03 -2.02213E+03 -8.90279E+01 -4.02533E+01 -2.63869E+03
  2.68334E+03 -1.06129E+03  3.41014E+03  1.34029E+03  3.28112E+03  3.42652E+03 -1.91616E+02  4.94881E+03
 -4.44771E+03  4.98327E+03 -7.15201E+03  1.05893E+03 -6.62256E+03 -4.80267E+03 -7.42162E+02 -8.22665E+03
  4.34132E+03 -6.63899E+03  7.61551E+03 -2.45006E+03  7.15624E+03  6.45370E+02  3.92629E+03  5.67768E+03
  1.05542E+03  6.50161E+03 -2.60870E+03  5.33978E+03 -4.30551E+03  3.00425E+03 -2.99197E+03  4.29889E+02
 -2.35048E+03  1.13993E+02 -3.07720E+03  1.09570E+03 -3.73470E+03  9.33501E+02 -5.16242E+03 -1.55826E+03
 -5.06653E+03 -3.79562E+03 -1.45593E+03 -6.07128E+03  3.45163E+03 -6.54243E+03  5.81505E+03 -3.28894E+03
  7.00886E+03  6.82168E+02  3.11960E+03  3.76854E+03 -1.04726E+03  6.22505E+03 -4.06543E+03  4.38426E+03
