 $NMID ID='MM_0lb_SNR400_13hz_g45_89.RAW', FMTDAT='(8E13.5)'
 TRAMP=1., VOLUME=1. $END
  3.10377E+05  7.94613E+02  3.37435E+05  2.51237E+05  8.51544E+04  3.37815E+05 -1.32346E+05  2.50735E+05
 -1.90384E+05  8.29160E+04 -1.11325E+05 -3.21429E+04  1.07115E+03 -5.05864E+04  5.36929E+04 -5.27480E+02
  3.56199E+04  5.32711E+04 -1.69607E+04  7.55048E+04 -6.04894E+04  6.36561E+04 -8.45606E+04  3.15481E+04
 -8.06101E+04 -1.11384E+04 -5.74792E+04 -5.16381E+04 -1.48532E+04 -6.99841E+04  2.79917E+04 -4.57937E+04
  4.04857E+04  4.33082E+03  1.66072E+04  4.76303E+04 -3.43168E+04  4.71200E+04 -6.73836E+04  2.00565E+02
 -5.32109E+04 -5.66587E+04 -6.66143E+03 -7.69818E+04  3.43063E+04 -5.48983E+04  4.81759E+04 -1.74699E+04
  4.38456E+04  1.16250E+04  3.17164E+04  2.57337E+04  1.58945E+04  2.97587E+04 -5.22303E+03  2.72258E+04
 -2.19902E+04  1.19583E+04 -1.84856E+04 -4.90475E+03  5.84095E+03 -7.69012E+03  2.28448E+04  1.25023E+04
  7.23773E+03  3.57617E+04 -3.21872E+04  3.63810E+04 -6.38260E+04  2.20895E+03 -5.75271E+04 -4.29327E+04
 -1.18727E+04 -6.28441E+04  3.96093E+04 -4.52245E+04  5.82628E+04 -1.88493E+03  3.39534E+04  3.28997E+04
 -6.29059E+03  3.67503E+04 -2.98008E+04  1.63780E+04 -3.08432E+04 -4.56649E+03 -1.67502E+04 -1.08378E+04
 -8.64737E+03 -1.37312E+04 -7.81808E+02 -1.83009E+04  6.98133E+03 -2.37421E+04  1.50795E+04 -1.33626E+04
  1.18884E+04  5.99672E+03 -8.58454E+03  1.28453E+04 -2.17600E+04 -4.47553E+03 -8.34930E+03 -3.41898E+04
  2.30221E+04 -4.36450E+04  4.84330E+04 -1.93151E+04  4.54286E+04  1.95622E+04  1.60000E+04  4.45071E+04
 -1.57096E+04  3.37989E+04 -2.50961E+04  2.21337E+03 -9.85147E+03 -2.84488E+04  2.12494E+04 -3.39613E+04
  4.15705E+04 -9.71485E+03  3.60955E+04  2.37626E+04  1.92678E+04  4.60526E+04 -7.92423E+03  5.04853E+04
 -3.19123E+04  3.37552E+04 -4.28624E+04  1.02309E+04 -4.32341E+04 -1.72315E+04 -2.27738E+04 -3.82750E+04
  7.03233E+03 -3.81579E+04  3.24692E+04 -1.56110E+04  2.88540E+04  1.09798E+04  3.72230E+03  1.90654E+04
 -1.31908E+04  8.54761E+03 -1.04839E+04 -7.40612E+03  5.22328E+03 -1.12330E+04  1.83082E+04  5.92312E+03
  1.35001E+04  2.18343E+04 -6.26321E+03  2.50885E+04 -2.25453E+04  1.17501E+04 -2.81028E+04 -4.37643E+03
 -2.12347E+04 -1.74593E+04 -8.18653E+03 -2.06392E+04  4.26329E+03 -2.04735E+04  1.62644E+04 -1.89147E+04
  2.70854E+04 -1.27529E+04  3.32588E+04  2.74556E+03  2.33170E+04  1.99012E+04  4.14459E+03  3.74386E+04
 -1.78418E+04  3.14131E+04 -2.81683E+04  1.13910E+04 -2.12699E+04 -1.02505E+04 -4.39116E+03 -1.36953E+04
  1.86589E+03 -2.97779E+03 -5.70179E+03  6.10736E+03 -1.64954E+04  5.50399E+03 -1.66376E+04 -6.71861E+03
 -1.02101E+04 -1.91041E+04  4.78508E+03 -2.35560E+04  1.52473E+04 -1.67090E+04  1.87215E+04 -8.94642E+02
  1.17942E+04  1.34337E+04 -1.18040E+03  1.93637E+04 -1.29690E+04  1.10486E+04 -1.90849E+04 -3.08048E+03
 -1.43123E+04 -1.70373E+04 -2.01353E+03 -2.31859E+04  1.05998E+04 -1.98525E+04  1.93833E+04 -9.78267E+03
  1.84909E+04  5.53752E+02  1.37812E+04  4.42261E+03  7.01115E+03  6.91917E+02  1.05121E+04 -1.23684E+03
  1.80520E+04  2.69459E+03  2.01440E+04  1.55348E+04  1.30205E+04  3.08216E+04 -3.04844E+03  3.51822E+04
 -2.07352E+04  2.88819E+04 -3.24763E+04  1.48801E+04 -3.42199E+04 -2.70734E+03 -2.87782E+04 -2.02801E+04
 -1.19365E+04 -2.81224E+04  1.03194E+04 -2.57578E+04  2.22236E+04 -1.28810E+04  1.92915E+04  5.82683E+03
  6.64786E+03  1.51422E+04 -8.95484E+03  1.31015E+04 -1.62826E+04  1.92443E+03 -1.26402E+04 -1.06132E+04
 -1.53557E+02 -1.58377E+04  8.55210E+03 -1.24162E+04  1.03542E+04 -1.72357E+03  2.20530E+03  6.54312E+03
 -7.06096E+03  2.60920E+03 -6.60410E+03 -5.87444E+03 -5.12176E+02 -1.36768E+04  9.87028E+03 -1.46348E+04
  1.73900E+04 -7.94524E+03  1.88743E+04  2.73709E+03  1.65996E+04  1.38150E+04  7.16045E+03  2.11237E+04
 -3.49234E+03  2.33890E+04 -1.52750E+04  1.46357E+04 -1.65657E+04  2.95004E+03 -1.14873E+04 -3.46084E+03
 -5.43504E+03 -5.44604E+03 -1.30334E+03  1.50443E+03 -2.25021E+03  2.54296E+03 -6.01864E+03  4.31112E+03
 -1.04395E+04 -1.15687E+03 -1.23822E+04 -1.00948E+04 -4.90890E+03 -1.58073E+04  4.09833E+03 -1.21003E+04
  9.85446E+03 -4.78582E+03  6.88393E+03  2.91154E+03 -5.20633E+01  4.41805E+03 -5.74604E+03 -3.55554E+02
 -4.84138E+03 -7.14299E+03 -7.45002E+02 -1.19601E+04  6.43830E+03 -1.13709E+04  1.46915E+04 -6.40593E+03
  1.75319E+04  1.41251E+03  1.27199E+04  9.97800E+03  2.78332E+03  1.36692E+04 -7.09137E+03  1.17078E+04
 -9.88089E+03  3.55964E+03 -5.01063E+03 -2.30224E+03  1.59905E+03 -3.00261E+03  6.80579E+03 -1.09544E+03
  5.79431E+03  5.34685E+03  1.03625E+03  9.30593E+03 -6.56569E+03  9.59162E+03 -1.19467E+04  2.79425E+03
 -7.26486E+03 -5.35818E+03  1.68036E+02 -9.68083E+03  6.31753E+03 -4.73755E+03  6.55779E+03  2.37275E+03
  1.03700E+03  6.58826E+03 -6.38788E+03  8.01059E+03 -8.93800E+03  2.77831E+03 -8.91104E+03 -2.52588E+03
 -5.37517E+03 -1.06037E+04  2.44401E+03 -1.19211E+04  1.06135E+04 -7.92609E+03  1.17535E+04  1.71763E+03
  7.11703E+03  8.20149E+03 -5.85368E+02  1.12004E+04 -7.99482E+03  7.00862E+03 -8.89423E+03 -9.77500E+02
 -7.85195E+03 -7.32544E+03 -1.84435E+03 -8.23363E+03  4.27463E+03 -7.05161E+03  5.18917E+03 -3.59811E+03
  4.19085E+03  9.40086E+02 -7.68687E+02  1.40445E+03 -4.83789E+02 -2.12977E+03  1.25240E+03 -4.17869E+03
  7.60419E+03 -2.63420E+03  1.04300E+04  9.41551E+02  1.08949E+04  6.67056E+03  7.30586E+03  1.28552E+04
 -3.22545E+03  1.50396E+04 -1.29472E+04  1.11355E+04 -1.71744E+04  2.10108E+03 -1.34453E+04 -5.35028E+03
 -6.98155E+03 -1.13992E+04 -6.90848E+02 -9.42659E+03  3.12882E+03 -4.61903E+03  3.71453E+03 -3.39808E+03
  2.84908E+03 -2.40549E+03  2.79096E+03 -3.04536E+03  4.71435E+03 -2.98637E+03  5.44099E+03 -3.19291E+02
  7.50103E+03  1.86505E+03  3.40053E+03  6.22580E+03 -2.38266E+03  6.00223E+03 -7.39778E+03  5.37460E+03
 -8.94651E+03 -1.31480E+03 -5.94595E+03 -6.81959E+03 -1.89427E+02 -9.25166E+03  5.31636E+03 -1.01571E+04
  9.36015E+03 -6.11259E+03  1.25551E+04  1.14556E+03  9.07250E+03  8.15260E+03  2.17133E+03  1.03501E+04
 -4.75922E+03  9.66236E+03 -6.02853E+03  2.75688E+03 -4.13097E+03 -1.52246E+03 -1.55263E+03 -1.55560E+03
 -1.08187E+03  1.74540E+02 -1.44754E+03  2.67343E+03 -4.08173E+03  1.46614E+03 -6.89429E+03 -6.10029E+02
 -4.27960E+03 -6.82995E+03  5.26280E+02 -8.85604E+03  5.83645E+03 -8.34697E+03  8.35543E+03 -2.16625E+03
  8.80977E+03  4.38008E+03  4.10534E+03  7.64964E+03 -1.24418E+03  8.74031E+03 -6.18536E+03  6.09307E+03
 -7.98336E+03  6.44287E+02 -5.89971E+03 -5.44316E+03 -9.46535E+02 -6.29490E+03  4.34906E+03 -5.63804E+03
  5.40841E+03 -1.78106E+03  3.69743E+03  7.14484E+02  1.30142E+03  2.09380E+03  1.50990E+03  4.29090E+02
  2.03057E+03  5.72521E+02  2.24317E+03  1.55831E+03  2.13712E+03  3.49508E+03  1.84778E+03  4.54701E+03
 -2.09538E+03  6.65185E+03 -6.18792E+03  6.99588E+03 -8.08853E+03  1.84651E+03 -8.82466E+03 -2.47683E+03
 -3.96579E+03 -8.54417E+03  1.14237E+03 -9.33693E+03  5.07065E+03 -6.39232E+03  7.39697E+03 -2.36769E+03
  5.00000E+03  3.50546E+03  1.42357E+03  4.96245E+03 -2.21390E+03  3.11775E+03 -2.79938E+03  2.39894E+02
 -1.07362E+03 -3.93231E+03  2.72940E+03 -3.99492E+03  3.57760E+03 -2.22516E+03  3.21602E+03  7.50868E+02
  1.25059E+03  1.88493E+03  7.25826E+02  7.04245E+02 -4.93807E+02  1.93445E+03  6.87507E+02 -2.54790E+02
  1.03336E+03 -4.71335E+02  3.46306E+03  1.93099E+03  1.79068E+03  4.42229E+03 -9.89850E+02  6.31097E+03
 -3.82533E+03  3.61167E+03 -5.56728E+03  1.29524E+03 -4.74957E+03 -1.04550E+03 -1.17113E+03 -2.84378E+03
  7.22621E+02 -3.87031E+03  1.70202E+03 -1.45729E+03  1.48058E+03  2.36501E+03 -6.29128E+02  2.85129E+03
 -2.91819E+03  1.59216E+03 -3.91347E+03 -2.39707E+03 -1.92893E+03 -5.40544E+03  5.29670E+02 -4.23633E+03
  2.66624E+03 -1.81311E+03  3.38254E+03 -2.98301E+01  3.59278E+03  1.37682E+03  3.78055E+02  3.05956E+03
 -1.21219E+03  3.33026E+02 -2.38553E+03 -1.39745E+03  3.27230E+02 -2.79482E+03  3.76663E+03 -3.05277E+03
  4.90677E+03  4.75613E+02  5.11227E+03  2.28558E+03  1.67610E+03  5.29908E+03 -1.82969E+03  4.57914E+03
 -3.75599E+03  1.67717E+03 -3.97874E+03 -2.35110E+02 -2.58601E+03 -3.11652E+03  9.66390E+02 -2.52216E+03
  2.62027E+03 -1.59360E+03  2.12607E+03  1.34961E+03  1.24337E+03  3.63795E+03 -1.18861E+02  1.66053E+03
 -1.39482E+03  1.96655E+03 -1.91011E+03  3.15738E+02 -4.00536E+02  3.83063E+02 -1.05033E+03  1.20998E+03
 -1.19662E+03  2.71330E+03 -3.41583E+03  2.18026E+03 -4.90415E+03  1.20889E+02 -5.60874E+03 -2.99709E+03
 -2.96467E+03 -6.37484E+03  1.22618E+03 -7.80687E+03  4.51667E+03 -6.16212E+03  7.21154E+03 -2.92217E+03
  6.56417E+03  9.43992E+02  3.32553E+03  4.17850E+03 -2.52358E+02  4.27680E+03 -2.44530E+03  4.57044E+03
 -2.56821E+03  1.80511E+03 -1.53695E+03 -5.31249E+02 -1.50722E+02  7.83046E+01 -5.94890E+02  3.98515E+02
 -1.34895E+03 -8.56202E+01 -1.46875E+03  1.80543E+01  3.51586E+01 -1.42110E+03  2.40922E+02 -2.08548E+03
  2.90601E+03 -1.51543E+03  2.58463E+03  3.29957E+02  3.72453E+03  2.50812E+03  3.58821E+02  5.55566E+03
 -2.37971E+03  6.00422E+03 -4.96571E+03  3.33967E+03 -4.95588E+03  9.05126E+01 -3.79806E+03 -4.03375E+03
 -1.77510E+03 -4.32518E+03  1.96410E+03 -3.92716E+03  2.98151E+03 -2.11797E+03  3.12748E+03  4.32081E+01
  2.46288E+03  1.69125E+03  4.95994E+02  9.34362E+02 -7.91136E+02 -1.65166E+02  1.90777E+02 -1.06380E+03
  1.90216E+03 -1.62880E+02  2.19563E+03  6.46511E+02  9.13723E+02  1.80080E+03 -2.26652E+02  1.95102E+03
 -2.01345E+03  2.77700E+03 -2.94833E+03 -3.38637E+02 -2.40474E+03 -2.22492E+03 -6.73774E+02 -4.17028E+03
  1.97768E+03 -2.76568E+03  3.59199E+03 -6.84996E+02  3.25509E+03  6.93673E+02  1.27929E+03  2.71593E+03
  5.13121E+02  2.94924E+03 -9.38616E+02  2.82324E+03 -1.80058E+03  1.90225E+03 -1.23147E+03  3.21003E+02
 -8.98992E+02 -1.84781E+02 -7.59695E+02  4.04764E+02 -1.77474E+03  1.03065E+03 -2.50311E+03 -5.01380E+02
 -2.66744E+03 -9.63425E+02 -1.25235E+03 -2.96873E+03  1.82969E+03 -3.75986E+03  2.13238E+03 -1.38240E+03
  3.48339E+03  1.11519E+03  3.66555E+02  2.01780E+03 -5.21636E+02  2.43092E+03 -1.85421E+03  2.20869E+03
