 $NMID ID='MM_0lb_SNR400_17hz_g40_26.RAW', FMTDAT='(8E13.5)'
 TRAMP=1., VOLUME=1. $END
  3.10333E+05  4.00440E+01  3.37275E+05  2.50128E+05  8.46290E+04  3.37120E+05 -1.32629E+05  2.49758E+05
 -1.89628E+05  8.25268E+04 -1.11819E+05 -3.30243E+04  1.97995E+03 -5.03347E+04  5.41374E+04  3.59474E+02
  3.52206E+04  5.24507E+04 -1.68546E+04  7.50636E+04 -6.02456E+04  6.26389E+04 -8.30892E+04  3.17622E+04
 -7.99167E+04 -1.11947E+04 -5.61536E+04 -5.03540E+04 -1.46640E+04 -6.82382E+04  2.69148E+04 -4.45005E+04
  3.86739E+04  4.12585E+03  1.56917E+04  4.67802E+04 -3.48085E+04  4.64105E+04 -6.51568E+04 -3.80045E+02
 -5.23003E+04 -5.59349E+04 -6.37813E+03 -7.53972E+04  3.29624E+04 -5.32062E+04  4.61596E+04 -1.61815E+04
  4.19892E+04  1.11215E+04  3.11691E+04  2.41912E+04  1.59274E+04  2.83709E+04 -4.94609E+03  2.59661E+04
 -2.11629E+04  1.35432E+04 -1.94212E+04 -4.80164E+03  4.27658E+03 -7.89940E+03  2.14978E+04  1.14367E+04
  6.68374E+03  3.33400E+04 -3.01339E+04  3.44790E+04 -6.18216E+04  2.42584E+03 -5.50662E+04 -4.16900E+04
 -1.21024E+04 -6.17445E+04  3.83685E+04 -4.32680E+04  5.57803E+04 -2.34949E+03  3.20874E+04  3.04095E+04
 -6.37364E+03  3.29533E+04 -2.89303E+04  1.36124E+04 -2.82068E+04 -5.49552E+03 -1.48956E+04 -1.07028E+04
 -7.71940E+03 -1.12113E+04 -6.38555E+02 -1.61720E+04  6.39858E+03 -2.22459E+04  1.54123E+04 -1.41139E+04
  1.18192E+04  4.49082E+03 -6.66416E+03  1.32188E+04 -1.92465E+04 -2.41768E+03 -7.83634E+03 -3.09009E+04
  2.13638E+04 -4.13725E+04  4.48202E+04 -1.84916E+04  4.25974E+04  1.83348E+04  1.46596E+04  4.18139E+04
 -1.52412E+04  3.17286E+04 -2.39720E+04  1.36888E+03 -7.90833E+03 -2.65415E+04  2.07561E+04 -3.18326E+04
  3.76235E+04 -7.28704E+03  3.19998E+04  2.23577E+04  1.60384E+04  4.31898E+04 -7.77804E+03  4.57554E+04
 -2.91820E+04  3.02256E+04 -3.80677E+04  8.76939E+03 -3.89408E+04 -1.51001E+04 -2.12589E+04 -3.50281E+04
  7.24414E+03 -3.46725E+04  2.96757E+04 -1.25700E+04  2.72578E+04  1.11271E+04  3.11985E+03  1.80136E+04
 -1.36876E+04  7.27480E+03 -9.06189E+03 -7.34691E+03  5.28061E+03 -9.90183E+03  1.69816E+04  6.58031E+03
  1.22198E+04  2.12517E+04 -6.26293E+03  2.36059E+04 -2.15544E+04  9.25335E+03 -2.52859E+04 -6.32372E+03
 -1.78033E+04 -1.64028E+04 -6.00478E+03 -1.73674E+04  3.61414E+03 -1.55345E+04  1.23555E+04 -1.47561E+04
  2.17739E+04 -1.14656E+04  2.91075E+04  1.39862E+03  2.13223E+04  1.71102E+04  3.87625E+03  3.29067E+04
 -1.64225E+04  2.76565E+04 -2.62868E+04  9.50836E+03 -1.97953E+04 -1.01345E+04 -3.71267E+03 -1.38828E+04
  2.25208E+03 -4.27638E+03 -2.84272E+03  5.50731E+03 -1.33380E+04  5.05513E+03 -1.40082E+04 -5.23599E+03
 -9.04926E+03 -1.58890E+04  5.54357E+03 -1.95022E+04  1.22725E+04 -1.39385E+04  1.51459E+04 -9.48471E+02
  9.16868E+03  1.17063E+04 -4.96113E+02  1.61573E+04 -1.09447E+04  9.18811E+03 -1.57182E+04 -3.30572E+03
 -1.16816E+04 -1.45675E+04 -1.22448E+03 -1.90527E+04  8.54186E+03 -1.57919E+04  1.69304E+04 -7.28192E+03
  1.48043E+04  6.49282E+02  1.08345E+04  4.08589E+03  5.51728E+03  3.19608E+02  7.91872E+03 -1.80463E+03
  1.43753E+04  3.15576E+03  1.56703E+04  1.30457E+04  9.78633E+03  2.59122E+04 -3.01868E+03  2.77599E+04
 -1.61588E+04  2.17103E+04 -2.55674E+04  1.01048E+04 -2.59851E+04 -2.11845E+03 -2.26486E+04 -1.57688E+04
 -1.04896E+04 -2.09965E+04  6.71701E+03 -1.97978E+04  1.79651E+04 -1.06508E+04  1.61422E+04  3.86844E+03
  6.98844E+03  1.13550E+04 -7.10998E+03  1.10453E+04 -1.36701E+04  2.66326E+03 -1.04693E+04 -8.01203E+03
 -5.31833E+02 -1.30135E+04  6.66594E+03 -9.83648E+03  8.60722E+03 -1.39103E+03  1.43913E+03  4.78966E+03
 -5.48776E+03  1.16708E+03 -3.66702E+03 -4.57533E+03  2.48024E+02 -1.09881E+04  8.43511E+03 -1.08853E+04
  1.32409E+04 -4.58075E+03  1.27989E+04  3.12699E+03  1.12377E+04  1.02181E+04  5.39870E+03  1.58884E+04
 -1.68267E+03  1.73127E+04 -9.62270E+03  1.07057E+04 -1.21135E+04  3.02301E+03 -9.28705E+03 -2.38127E+03
 -4.85661E+03 -3.54181E+03 -9.60035E+02  1.78261E+03 -1.74130E+03  2.34910E+03 -3.86115E+03  4.01843E+03
 -8.73590E+03 -7.79946E+02 -9.08640E+03 -7.61373E+03 -3.68200E+03 -1.20863E+04  4.21317E+03 -8.81755E+03
  7.63255E+03 -3.69517E+03  5.47058E+03  1.61329E+03  1.01565E+03  2.94064E+03 -3.33685E+03  1.92881E+02
 -3.85484E+03 -4.87747E+03 -8.27347E+02 -7.90121E+03  4.79393E+03 -8.04327E+03  1.05719E+04 -3.90789E+03
  1.24371E+04  6.52885E+02  9.17438E+03  6.55028E+03  1.88757E+03  9.12336E+03 -5.37813E+03  9.31744E+03
 -7.29803E+03  3.26184E+03 -4.31969E+03 -1.23785E+03  9.18175E+02 -2.03523E+03  4.97239E+03 -2.59111E+02
  4.78548E+03  4.05858E+03  1.16802E+03  6.72206E+03 -5.05780E+03  6.97776E+03 -7.75513E+03  1.90726E+03
 -5.33326E+03 -3.91015E+03  9.62214E+02 -7.49779E+03  4.22326E+03 -3.48272E+03  3.68252E+03  1.60501E+03
  5.98742E+02  3.80029E+03 -4.38202E+03  5.66130E+03 -5.47966E+03  2.79468E+03 -5.35555E+03 -1.40894E+03
 -3.11959E+03 -6.83069E+03  1.57437E+03 -7.77035E+03  6.52534E+03 -5.15933E+03  6.75064E+03  1.01647E+03
  4.64152E+03  5.66317E+03 -2.41302E+02  8.04638E+03 -5.28933E+03  4.97138E+03 -6.51687E+03 -5.83544E+02
 -5.94422E+03 -5.52615E+03 -4.57966E+02 -5.53276E+03  3.24229E+03 -5.01473E+03  3.26222E+03 -2.84980E+03
  2.50426E+03  2.20477E+02  1.03900E+02  1.33190E+03  4.04682E+02 -1.64857E+02  2.91136E+02 -2.15538E+03
  4.06722E+03 -1.19633E+03  5.92614E+03  8.01079E+02  6.34928E+03  3.48406E+03  5.66742E+03  8.11227E+03
 -1.18501E+03  9.37388E+03 -9.18222E+03  7.14500E+03 -1.13283E+04  1.42608E+03 -8.93825E+03 -3.01953E+03
 -4.51235E+03 -7.23140E+03 -4.82910E+02 -5.36268E+03  1.93779E+03 -2.74953E+03  2.43005E+03 -2.78892E+03
  1.37374E+03 -1.47540E+03  1.91286E+03 -2.71677E+03  3.68226E+03 -1.60323E+03  3.82135E+03  4.53621E+01
  5.27808E+03  3.58512E+02  1.58136E+03  3.24580E+03 -1.57098E+03  3.46358E+03 -4.92408E+03  3.31193E+03
 -5.69346E+03 -1.35683E+03 -2.32823E+03 -4.25161E+03  4.96753E+02 -5.96409E+03  4.06430E+03 -6.16333E+03
  5.92563E+03 -3.69321E+03  7.32379E+03  7.94889E+02  5.57531E+03  4.57881E+03  1.15212E+03  6.66339E+03
 -2.35119E+03  6.70411E+03 -3.84352E+03  1.93931E+03 -2.36371E+03 -8.18181E+02 -7.14188E+02 -8.36371E+02
 -5.27756E+02  2.01066E+02 -7.81824E+02  1.68114E+03 -2.85699E+03  1.67861E+03 -4.68837E+03 -5.73258E+02
 -2.09341E+03 -4.85903E+03  6.05359E+02 -5.69794E+03  2.78972E+03 -4.46058E+03  4.32776E+03 -1.38895E+03
  4.59922E+03  2.47627E+03  1.89141E+03  4.30377E+03 -1.12433E+03  5.15280E+03 -3.08486E+03  3.29144E+03
 -4.68771E+03  7.99640E+02 -4.28110E+03 -3.27752E+03 -4.14364E+02 -3.51791E+03  1.88544E+03 -3.09872E+03
  3.22797E+03 -1.05781E+03  2.12385E+03  8.33947E+02  3.55895E+02  1.72061E+03  1.05192E+03  8.94962E+02
  1.95723E+03  7.49422E+02  1.69637E+03  1.36131E+03  1.43869E+03  2.35243E+03  1.58054E+03  2.09434E+03
 -1.05978E+03  3.37865E+03 -3.00198E+03  4.58263E+03 -4.02231E+03  2.05210E+03 -4.52493E+03 -1.65545E+03
 -2.31391E+03 -4.63863E+03  9.23096E+02 -5.83108E+03  2.32330E+03 -3.69516E+03  3.43220E+03 -1.54303E+03
  3.03324E+03  2.09713E+03  3.39430E+02  2.70081E+03 -1.39145E+03  1.60572E+03 -9.80982E+02 -1.50940E+02
 -8.55830E+02 -1.46245E+03  1.19015E+03 -2.13869E+03  1.02951E+03 -8.43608E+02  2.08968E+03  4.09701E+02
  1.37846E+03  1.67913E+02  5.39781E+02 -9.77716E+01 -1.06734E+01  8.33584E+02  1.25554E+03  1.53013E+02
  1.13659E+02 -6.76458E+02  2.49027E+03  2.13052E+02  6.43310E+02  2.17953E+03 -6.07628E+01  3.55663E+03
 -2.33882E+03  1.50566E+03 -2.27326E+03 -8.17520E+01 -1.76895E+03 -9.36195E+02  2.32847E+02 -9.53705E+02
  4.04707E+02 -2.08791E+03  1.18855E+03 -1.40871E+03  1.16283E+03  9.06344E+02 -1.32169E+03  9.47012E+02
 -1.65885E+03  7.54924E+02 -2.01714E+03 -1.45343E+03 -1.29862E+03 -2.72685E+03  8.56692E+01 -1.62801E+03
  6.98879E+02 -1.09743E+03  1.63093E+03 -2.36998E+02  1.80181E+03  3.91183E+02  6.45805E+02  1.16652E+03
 -9.02609E+02  4.54211E+02 -9.53658E+02 -3.99565E+02  1.15774E+03 -1.46878E+03  2.59311E+03 -1.47897E+03
  1.83701E+03  2.27583E+02  3.77749E+03  1.67305E+03  1.24473E+03  2.00630E+03 -8.92964E+02  2.50984E+03
 -2.64462E+03  8.53563E+02 -1.96471E+03 -9.05008E+01 -1.03809E+03 -1.19710E+03  5.54311E+01 -5.87463E+02
  1.88765E+03 -7.55341E+02  1.28336E+03  5.84623E+02  4.33117E+02  1.62240E+03  8.76901E+00  1.09929E+03
 -8.28320E+02  1.59082E+03 -5.17536E+02  4.74720E+02  1.51946E+02  5.79123E+02 -1.67626E+03  8.01050E+02
 -2.32350E+02  9.05129E+02 -2.48182E+03  5.45789E+02 -2.15013E+03  1.57265E+02 -3.22314E+03 -1.37818E+03
 -1.01200E+03 -3.19263E+03  1.06298E+03 -3.40209E+03  1.69379E+03 -3.30524E+03  3.46795E+03 -1.01058E+03
  3.56549E+03  6.28090E+02  1.73456E+03  2.10081E+03 -2.77240E+02  1.48996E+03 -9.10152E+02  1.55531E+03
 -8.06280E+02  6.50471E+02 -6.60193E+02 -4.04987E+02 -3.10774E+02  1.85947E+02 -4.33481E+02 -5.38651E+02
 -1.34656E+03 -3.18889E+02 -7.19393E+02  5.92181E+02  3.72743E+02 -5.35248E+02  1.68391E+02 -6.81197E+02
  2.07343E+03 -6.06381E+02  8.53085E+02  1.48884E+02  1.89293E+03  1.30304E+03  1.00091E+02  1.49345E+03
 -8.61236E+02  2.49216E+03 -2.57993E+03  1.87247E+03 -1.99987E+03 -3.39539E+02 -1.96294E+03 -1.65833E+03
 -8.55417E+02 -1.28998E+03  4.49056E+02 -1.47141E+03  1.04080E+03 -8.32638E+02  8.48169E+02  1.22594E+02
  1.32360E+03  2.99104E+02  9.81061E+01  9.43441E+02 -8.71743E+02  1.11178E+02  3.00006E+02 -4.61843E+02
  3.12405E+02 -1.14918E+02  1.77230E+02  7.60837E+02  3.89158E+02  2.32675E+02  2.12454E+02  2.17269E+02
 -1.02319E+03  5.34908E+02 -7.68600E+02 -5.53802E+02 -1.37561E+03 -2.91709E+02 -2.66615E+01 -1.89086E+03
  7.42088E+02 -1.28398E+03  3.41619E+02  8.44953E+01  1.53006E+03 -3.14320E+02  6.92827E+02  8.67838E+02
  8.79204E+01  1.29525E+03 -5.17388E+02  5.70261E+02 -7.55549E+02  9.34444E+02 -7.58117E+02  6.10612E+01
  1.83126E+02 -5.80465E+02 -6.27005E+02 -2.64949E+01 -9.54521E+02  2.16240E+02 -1.19953E+03  4.71024E+01
 -1.30931E+03 -3.32505E+02 -6.63335E+02 -1.17986E+03  9.05867E+02 -2.45246E+03  9.98541E+02 -3.11252E+02
  1.16904E+03  7.03060E+01 -4.87639E+02  4.21540E+02  9.54740E+01  9.45482E+02 -1.29197E+03  1.04104E+03
