 $NMID ID='MM_0lb_SNR400_10hz_g60_86.RAW', FMTDAT='(8E13.5)'
 TRAMP=1., VOLUME=1. $END
  3.10305E+05  1.48440E+03  3.37943E+05  2.50625E+05  8.47907E+04  3.38366E+05 -1.32657E+05  2.51802E+05
 -1.90312E+05  8.36906E+04 -1.12680E+05 -3.28238E+04  5.58097E+02 -5.06418E+04  5.35975E+04  1.39910E+02
  3.57952E+04  5.20368E+04 -1.61216E+04  7.70276E+04 -6.10556E+04  6.44508E+04 -8.48346E+04  3.24307E+04
 -8.30296E+04 -1.21365E+04 -5.76549E+04 -5.27509E+04 -1.53393E+04 -7.02551E+04  2.83181E+04 -4.68244E+04
  4.13176E+04  3.43669E+03  1.69636E+04  4.83038E+04 -3.47191E+04  4.83299E+04 -6.77385E+04  5.03353E+02
 -5.46956E+04 -5.75370E+04 -7.40248E+03 -7.92363E+04  3.42718E+04 -5.70621E+04  5.01172E+04 -1.91400E+04
  4.58485E+04  1.14592E+04  3.31602E+04  2.65600E+04  1.66061E+04  3.04893E+04 -6.16366E+03  2.73608E+04
 -2.26193E+04  1.16989E+04 -1.78267E+04 -5.53859E+03  6.97597E+03 -7.66361E+03  2.36371E+04  1.39423E+04
  6.73184E+03  3.75384E+04 -3.31876E+04  3.74185E+04 -6.68311E+04  1.73362E+03 -5.87370E+04 -4.42748E+04
 -1.33412E+04 -6.62436E+04  4.19618E+04 -4.85268E+04  6.15031E+04 -2.15039E+03  3.71726E+04  3.47940E+04
 -5.17414E+03  3.91550E+04 -3.16448E+04  1.90456E+04 -3.34297E+04 -4.03859E+03 -1.90991E+04 -1.11925E+04
 -9.83661E+03 -1.53833E+04 -2.42694E+02 -2.03546E+04  8.53374E+03 -2.37533E+04  1.58970E+04 -1.27139E+04
  1.06744E+04  6.80677E+03 -1.03704E+04  1.27308E+04 -2.32467E+04 -6.32479E+03 -8.23842E+03 -3.81311E+04
  2.59492E+04 -4.73252E+04  5.25852E+04 -2.10479E+04  4.80188E+04  2.00639E+04  1.70129E+04  4.78453E+04
 -1.65802E+04  3.59655E+04 -2.76708E+04  2.66053E+03 -1.23092E+04 -2.98647E+04  2.12217E+04 -3.69073E+04
  4.52667E+04 -1.09318E+04  4.06784E+04  2.55476E+04  2.22244E+04  5.13900E+04 -8.38187E+03  5.62864E+04
 -3.50476E+04  3.89199E+04 -4.76213E+04  1.08192E+04 -4.76602E+04 -1.88734E+04 -2.65437E+04 -4.25337E+04
  7.48324E+03 -4.28612E+04  3.49291E+04 -1.70753E+04  3.23786E+04  1.17094E+04  5.31111E+03  2.11055E+04
 -1.44199E+04  9.28792E+03 -1.13751E+04 -6.67458E+03  6.13342E+03 -1.17699E+04  1.87488E+04  5.75316E+03
  1.50548E+04  2.24156E+04 -5.81008E+03  2.69733E+04 -2.37678E+04  1.42138E+04 -3.12204E+04 -2.66911E+03
 -2.54246E+04 -1.87787E+04 -1.19283E+04 -2.56447E+04  3.86614E+03 -2.67811E+04  2.04478E+04 -2.37329E+04
  3.14391E+04 -1.42701E+04  3.82304E+04  4.62687E+03  2.70802E+04  2.39428E+04  4.30659E+03  4.12448E+04
 -1.91184E+04  3.37521E+04 -3.09247E+04  1.17655E+04 -2.30403E+04 -1.08564E+04 -5.38882E+03 -1.23967E+04
  2.47389E+02 -8.20132E+02 -7.27233E+03  7.99934E+03 -2.03767E+04  5.12098E+03 -2.07522E+04 -9.64188E+03
 -1.17676E+04 -2.36949E+04  5.90726E+03 -2.69600E+04  1.93525E+04 -1.99741E+04  2.24509E+04 -1.62023E+03
  1.45102E+04  1.64208E+04 -1.19926E+03  2.28639E+04 -1.70361E+04  1.32728E+04 -2.36885E+04 -4.99611E+03
 -1.77153E+04 -2.13923E+04 -1.82856E+03 -2.82400E+04  1.31445E+04 -2.31056E+04  2.36130E+04 -1.16012E+04
  2.16580E+04 -1.10390E+03  1.64613E+04  5.13892E+03  9.48872E+03  1.69854E+03  1.26010E+04 -2.14024E+03
  2.12548E+04  2.84129E+03  2.54031E+04  1.87763E+04  1.73106E+04  3.74369E+04 -2.56118E+03  4.40824E+04
 -2.52754E+04  3.69385E+04 -4.20630E+04  1.96174E+04 -4.50506E+04 -3.30548E+03 -3.63568E+04 -2.64989E+04
 -1.44012E+04 -3.73277E+04  1.33288E+04 -3.24082E+04  2.80220E+04 -1.56611E+04  2.40220E+04  7.45948E+03
  8.16597E+03  1.90997E+04 -1.21219E+04  1.56753E+04 -2.01880E+04  2.41277E+03 -1.57503E+04 -1.24079E+04
 -4.13973E+02 -1.95725E+04  1.03159E+04 -1.41092E+04  1.34152E+04 -1.71427E+03  2.70439E+03  9.41969E+03
 -9.03248E+03  3.98776E+03 -9.44996E+03 -7.13619E+03 -2.07538E+03 -1.87967E+04  1.23515E+04 -1.94449E+04
  2.24577E+04 -1.15747E+04  2.64519E+04  2.69375E+03  2.23228E+04  1.87955E+04  1.01466E+04  2.96110E+04
 -5.85150E+03  3.13348E+04 -2.04413E+04  2.01551E+04 -2.26833E+04  3.47251E+03 -1.49621E+04 -5.76981E+03
 -6.55248E+03 -7.43227E+03 -4.25105E+02 -1.24118E+02 -3.33096E+03  3.12525E+03 -7.44184E+03  4.96740E+03
 -1.36406E+04 -1.01354E+03 -1.49756E+04 -1.14282E+04 -5.18470E+03 -1.88694E+04  7.19765E+03 -1.57217E+04
  1.28244E+04 -6.35005E+03  9.34573E+03  3.56406E+03 -3.62678E+02  5.99963E+03 -8.30064E+03 -5.56412E+02
 -7.04346E+03 -1.01758E+04 -1.46935E+03 -1.56445E+04  9.03433E+03 -1.58462E+04  2.01640E+04 -8.95217E+03
  2.28565E+04  1.92162E+03  1.66045E+04  1.39824E+04  3.27290E+03  1.96107E+04 -9.33515E+03  1.55043E+04
 -1.22111E+04  4.73109E+03 -6.19045E+03 -3.38475E+03  1.81597E+03 -4.42598E+03  7.82731E+03 -1.00579E+03
  7.33611E+03  7.54809E+03  6.34161E+02  1.20727E+04 -8.79679E+03  1.21659E+04 -1.56425E+04  1.04891E+03
 -1.11070E+04 -8.65110E+03 -2.09454E+02 -1.35123E+04  8.66460E+03 -6.75597E+03  9.36260E+03  3.14174E+03
  1.67058E+03  1.00325E+04 -7.63719E+03  1.18726E+04 -1.35309E+04  5.56685E+03 -1.38258E+04 -5.70827E+03
 -7.50756E+03 -1.63507E+04  3.94707E+03 -1.82644E+04  1.54559E+04 -1.23081E+04  1.64125E+04  2.74836E+03
  1.00748E+04  1.29964E+04 -7.83702E+02  1.53729E+04 -1.15336E+04  8.81972E+03 -1.23343E+04 -8.48680E+02
 -1.04898E+04 -1.05798E+04 -2.22098E+03 -1.18623E+04  5.77255E+03 -9.62187E+03  7.08732E+03 -3.96561E+03
  5.40082E+03  2.80149E+03 -1.43856E+03  1.44790E+03 -9.63276E+02 -3.93179E+03  3.56216E+03 -7.49013E+03
  1.19254E+04 -4.04327E+03  1.56810E+04  2.10213E+03  1.56607E+04  1.06674E+04  9.94863E+03  2.04112E+04
 -5.37595E+03  2.36318E+04 -1.98043E+04  1.68812E+04 -2.54699E+04  2.45780E+03 -2.05128E+04 -8.71281E+03
 -1.04318E+04 -1.61669E+04 -2.07833E+02 -1.34635E+04  5.45000E+03 -7.85252E+03  4.91103E+03 -5.89155E+03
  3.71170E+03 -3.48348E+03  4.14904E+03 -3.59076E+03  4.82915E+03 -3.97904E+03  6.48542E+03 -1.43414E+03
  1.03237E+04  2.47309E+03  5.10953E+03  9.03967E+03 -2.35972E+03  1.09290E+04 -1.06266E+04  9.04256E+03
 -1.38895E+04 -1.85098E+03 -8.69686E+03 -1.03810E+04 -1.48398E+03 -1.54748E+04  9.03337E+03 -1.56978E+04
  1.57681E+04 -7.96935E+03  1.87402E+04  2.65294E+03  1.34199E+04  1.33624E+04  1.52421E+03  1.72199E+04
 -6.79383E+03  1.39543E+04 -9.81113E+03  4.89682E+03 -6.56235E+03 -2.01003E+03 -3.39181E+03 -2.46189E+03
 -6.64613E+02 -1.24282E+02 -2.02237E+03  2.99918E+03 -5.87963E+03  1.77988E+03 -9.19375E+03 -2.72924E+01
 -7.31977E+03 -9.21649E+03  1.95850E+02 -1.41338E+04  8.15871E+03 -1.32039E+04  1.39983E+04 -4.31254E+03
  1.41210E+04  6.66164E+03  6.83732E+03  1.25084E+04 -2.45805E+03  1.43043E+04 -1.06226E+04  8.81772E+03
 -1.38378E+04  4.53794E+02 -1.00621E+04 -8.35759E+03 -1.86012E+03 -1.20102E+04  5.63045E+03 -8.57337E+03
  9.36224E+03 -2.28346E+03  6.68719E+03  1.69660E+03  2.77555E+03  4.06176E+03  1.70862E+03  1.88932E+03
  2.49910E+03  7.23957E+02  3.56303E+03  2.16475E+03  3.98940E+03  4.30591E+03  3.68726E+03  7.34326E+03
 -3.07081E+03  1.15713E+04 -1.09737E+04  1.13263E+04 -1.49472E+04  2.82576E+03 -1.42502E+04 -6.03812E+03
 -7.18920E+03 -1.43301E+04  2.78423E+03 -1.50708E+04  8.52781E+03 -9.90511E+03  1.15947E+04 -2.58243E+03
  8.86402E+03  5.72020E+03  2.22229E+03  8.61151E+03 -4.44320E+03  6.03619E+03 -5.77613E+03 -1.06839E+03
 -2.34505E+03 -6.86657E+03  2.79378E+03 -6.59464E+03  5.67220E+03 -3.14601E+03  6.99695E+03  1.22968E+03
  3.05506E+03  3.99440E+03  9.03909E+02  2.44274E+03 -9.38205E+02  1.52216E+03  1.84345E+03 -7.41809E+01
  2.13644E+03 -1.44308E+03  6.59057E+03  1.96136E+03  3.26820E+03  8.37444E+03 -1.59174E+03  9.78894E+03
 -6.31661E+03  6.58362E+03 -8.33113E+03  2.43951E+03 -9.25803E+03 -2.95179E+03 -3.11666E+03 -5.91472E+03
  8.19086E+02 -6.73469E+03  4.22137E+03 -2.79077E+03  2.91340E+03  2.72064E+03 -1.47431E+03  4.94747E+03
 -6.11340E+03  3.17213E+03 -6.54807E+03 -4.03876E+03 -4.11667E+03 -8.49734E+03  1.05464E+03 -7.75574E+03
  3.99322E+03 -4.75568E+03  6.54216E+03 -6.08180E+02  4.66139E+03  1.80252E+03  5.89891E+02  4.71506E+03
 -2.80963E+03  1.52429E+03 -3.01503E+03 -3.19240E+03  1.73095E+03 -5.82003E+03  6.31333E+03 -5.54831E+03
  8.92964E+03  1.16364E+01  8.58804E+03  6.54278E+03  2.60997E+03  8.84247E+03 -3.17184E+03  9.00718E+03
 -7.25768E+03  3.83057E+03 -8.06005E+03 -1.23474E+03 -4.24891E+03 -6.36091E+03  1.12371E+03 -6.15680E+03
  5.72671E+03 -2.83765E+03  5.31690E+03  2.40637E+03  1.85807E+03  4.94957E+03 -1.18431E+03  4.57553E+03
 -1.99030E+03  3.30989E+03 -1.63249E+03  7.64109E+02 -9.40872E+02  9.71270E+02 -1.88700E+03  2.56021E+03
 -2.08873E+03  3.54432E+03 -6.89983E+03  3.48542E+03 -9.26308E+03 -1.01366E+02 -9.88505E+03 -6.57773E+03
 -5.56902E+03 -1.19836E+04  2.67222E+03 -1.43620E+04  8.51466E+03 -1.03116E+04  1.23885E+04 -4.39532E+03
  1.27067E+04  1.57886E+03  7.63547E+03  8.98955E+03  1.84473E+02  1.01132E+04 -3.82875E+03  7.52948E+03
 -5.02532E+03  3.07196E+03 -2.74596E+03 -1.07485E+03 -9.70280E+02 -1.33751E+03  2.85666E+02 -5.71636E+02
 -1.68660E+03  2.31741E+02 -1.55660E+03 -1.11198E+03 -5.40747E+02 -2.19584E+03  7.59788E+01 -3.46823E+03
  4.12588E+03 -3.05903E+03  5.22912E+03  3.49340E+02  7.20171E+03  5.04060E+03  2.16614E+03  9.05936E+03
 -4.76853E+03  1.06952E+04 -1.01905E+04  6.67533E+03 -1.11208E+04 -9.46249E+02 -8.80402E+03 -6.15418E+03
 -3.66930E+03 -9.63154E+03  2.61905E+03 -7.92263E+03  6.43687E+03 -4.96562E+03  6.67363E+03  6.33865E+02
  3.58420E+03  3.45427E+03  7.61356E+02  2.67466E+03 -1.71981E+03 -4.74243E+02  3.94943E+02 -1.91491E+03
  2.60049E+03 -1.34787E+03  3.98390E+03  1.71691E+03  2.50237E+03  3.27850E+03  1.14251E+03  5.34267E+03
 -3.72092E+03  4.06576E+03 -5.86392E+03  4.89409E+02 -5.19434E+03 -4.78326E+03 -1.02355E+03 -7.93978E+03
  4.68577E+03 -6.35315E+03  7.05731E+03 -2.18865E+03  7.04051E+03  1.71623E+03  4.47971E+03  5.86526E+03
  8.32235E+02  5.75075E+03 -2.76419E+03  5.13672E+03 -4.55355E+03  3.18623E+03 -2.77807E+03  5.16752E+02
 -1.48819E+03 -1.69785E+02 -2.15414E+03  3.42840E+02 -3.10404E+03  8.31025E+02 -4.87027E+03 -1.28722E+03
 -4.50768E+03 -2.73551E+03 -1.57084E+03 -6.41260E+03  2.85437E+03 -6.91211E+03  6.17820E+03 -3.02681E+03
  6.59538E+03  5.95898E+02  3.02803E+03  3.73816E+03 -3.99703E+02  5.33935E+03 -5.32371E+03  3.61095E+03
