 $NMID ID='MM_0lb_SNR400_11hz_g45_11.RAW', FMTDAT='(8E13.5)'
 TRAMP=1., VOLUME=1. $END
  3.10155E+05  3.94049E+02  3.37822E+05  2.50903E+05  8.48824E+04  3.38660E+05 -1.32734E+05  2.51716E+05
 -1.91249E+05  8.38075E+04 -1.12019E+05 -3.19430E+04  4.69068E+02 -5.06149E+04  5.46841E+04 -7.63880E+02
  3.47757E+04  5.23844E+04 -1.70741E+04  7.51616E+04 -6.12408E+04  6.36495E+04 -8.45124E+04  3.18741E+04
 -8.16777E+04 -1.21096E+04 -5.71720E+04 -5.21447E+04 -1.46420E+04 -6.98541E+04  2.77729E+04 -4.63918E+04
  4.05736E+04  3.85839E+03  1.62879E+04  4.80734E+04 -3.36547E+04  4.71251E+04 -6.72972E+04  4.01769E+02
 -5.43444E+04 -5.74987E+04 -7.73972E+03 -7.85026E+04  3.42168E+04 -5.61785E+04  4.85554E+04 -1.74627E+04
  4.41212E+04  1.18759E+04  3.13683E+04  2.61157E+04  1.62830E+04  3.01087E+04 -5.46121E+03  2.75792E+04
 -2.26626E+04  1.22604E+04 -1.82177E+04 -5.02252E+03  6.58134E+03 -8.12740E+03  2.22850E+04  1.28118E+04
  7.31028E+03  3.65245E+04 -3.27972E+04  3.64305E+04 -6.47332E+04  1.93547E+03 -5.76446E+04 -4.34105E+04
 -1.23480E+04 -6.45266E+04  3.99880E+04 -4.61244E+04  5.96914E+04 -2.59594E+03  3.57471E+04  3.35954E+04
 -6.20758E+03  3.76551E+04 -3.14326E+04  1.69378E+04 -3.17197E+04 -3.64740E+03 -1.80715E+04 -1.13861E+04
 -9.36156E+03 -1.42164E+04 -1.71364E+02 -1.88940E+04  8.16929E+03 -2.23766E+04  1.62211E+04 -1.28460E+04
  1.04250E+04  5.95158E+03 -8.44342E+03  1.28977E+04 -2.20376E+04 -5.38031E+03 -7.88884E+03 -3.53571E+04
  2.40740E+04 -4.52186E+04  5.07667E+04 -2.00991E+04  4.68762E+04  1.97682E+04  1.60860E+04  4.57968E+04
 -1.64451E+04  3.44354E+04 -2.64569E+04  1.71759E+03 -1.06493E+04 -2.83713E+04  2.09694E+04 -3.49901E+04
  4.24944E+04 -1.01862E+04  3.74929E+04  2.50905E+04  1.97702E+04  4.80948E+04 -8.51363E+03  5.31120E+04
 -3.32804E+04  3.52653E+04 -4.52141E+04  1.04408E+04 -4.48453E+04 -1.67905E+04 -2.47098E+04 -4.03263E+04
  7.13074E+03 -3.95528E+04  3.28189E+04 -1.57050E+04  3.04810E+04  1.06839E+04  4.81236E+03  1.95928E+04
 -1.31444E+04  8.76132E+03 -1.13207E+04 -7.05153E+03  6.24581E+03 -1.08829E+04  1.81516E+04  6.15765E+03
  1.48449E+04  2.21170E+04 -4.97079E+03  2.54326E+04 -2.23060E+04  1.31413E+04 -2.95963E+04 -4.20632E+03
 -2.31654E+04 -1.81157E+04 -9.65200E+03 -2.22950E+04  3.63225E+03 -2.22440E+04  1.74136E+04 -2.02181E+04
  2.87416E+04 -1.33296E+04  3.48831E+04  4.02403E+03  2.59853E+04  2.24761E+04  4.76591E+03  3.93692E+04
 -1.92727E+04  3.19897E+04 -2.86178E+04  1.14523E+04 -2.13778E+04 -9.53063E+03 -4.56674E+03 -1.31749E+04
  1.07804E+03 -2.05745E+03 -5.78240E+03  7.91274E+03 -1.80796E+04  5.42703E+03 -1.90196E+04 -8.42934E+03
 -1.08155E+04 -2.05425E+04  5.61557E+03 -2.53605E+04  1.71178E+04 -1.75515E+04  2.05984E+04 -2.24104E+03
  1.31505E+04  1.43978E+04 -2.10739E+03  2.07724E+04 -1.43773E+04  1.19306E+04 -2.22420E+04 -3.75874E+03
 -1.56094E+04 -1.84801E+04 -1.83780E+03 -2.57528E+04  1.18549E+04 -2.10829E+04  2.21736E+04 -1.09280E+04
  1.97877E+04  1.44074E+02  1.41919E+04  4.68091E+03  7.64125E+03  1.39050E+03  1.11587E+04 -1.73005E+03
  2.00722E+04  2.62069E+03  2.20046E+04  1.67844E+04  1.47776E+04  3.40639E+04 -2.10622E+03  3.87414E+04
 -2.28667E+04  3.29974E+04 -3.71299E+04  1.66713E+04 -3.86995E+04 -2.49857E+03 -3.18660E+04 -2.22534E+04
 -1.25061E+04 -3.17895E+04  1.08792E+04 -2.83541E+04  2.38458E+04 -1.33772E+04  2.11933E+04  6.52652E+03
  7.56271E+03  1.71047E+04 -1.04235E+04  1.50697E+04 -1.88918E+04  2.34185E+03 -1.33882E+04 -1.15566E+04
 -1.19820E+02 -1.68081E+04  8.93153E+03 -1.30567E+04  1.20252E+04 -1.75931E+03  2.30332E+03  7.44522E+03
 -8.11243E+03  3.06108E+03 -7.98028E+03 -5.96660E+03 -8.33853E+02 -1.54297E+04  1.06682E+04 -1.70762E+04
  1.97323E+04 -9.15600E+03  2.20705E+04  2.75294E+03  1.92705E+04  1.57660E+04  8.44412E+03  2.48348E+04
 -4.47684E+03  2.66450E+04 -1.74964E+04  1.65898E+04 -1.97446E+04  3.84907E+03 -1.35815E+04 -4.42904E+03
 -5.49532E+03 -6.29638E+03 -1.04848E+03  2.47368E+02 -1.83954E+03  3.54144E+03 -5.90829E+03  4.49642E+03
 -1.26872E+04 -9.68361E+02 -1.29400E+04 -1.12687E+04 -4.10459E+03 -1.68520E+04  5.86144E+03 -1.37096E+04
  1.27279E+04 -5.94258E+03  7.82037E+03  3.43435E+03  1.98943E+02  4.98769E+03 -7.02471E+03 -6.04871E+02
 -6.62690E+03 -8.63701E+03 -1.40427E+03 -1.27520E+04  7.91187E+03 -1.33966E+04  1.70464E+04 -7.11970E+03
  1.99865E+04  2.41843E+03  1.48822E+04  1.11968E+04  2.90710E+03  1.57328E+04 -7.67614E+03  1.37513E+04
 -1.09786E+04  4.06567E+03 -5.11758E+03 -3.01848E+03  2.74755E+03 -4.10661E+03  6.54827E+03 -9.87372E+02
  6.03475E+03  6.35277E+03  6.93922E+02  1.03670E+04 -8.30397E+03  9.60628E+03 -1.32110E+04  2.70884E+03
 -8.77624E+03 -6.86923E+03  1.42842E+02 -1.13359E+04  6.49878E+03 -5.83565E+03  7.83925E+03  2.63921E+03
  2.00374E+03  8.10865E+03 -7.07424E+03  8.91719E+03 -1.08492E+04  3.66161E+03 -1.04977E+04 -3.76514E+03
 -6.86417E+03 -1.29683E+04  3.24637E+03 -1.44389E+04  1.18542E+04 -8.26780E+03  1.33246E+04  2.29214E+03
  8.08489E+03  1.08430E+04 -1.50444E+03  1.32484E+04 -9.74698E+03  7.36442E+03 -1.07139E+04 -1.20838E+03
 -9.06212E+03 -8.31450E+03 -2.28143E+03 -9.68781E+03  4.67902E+03 -7.31932E+03  6.35990E+03 -3.70300E+03
  4.17668E+03  9.60592E+02 -1.50964E+03  1.93060E+03  1.68958E+02 -2.09692E+03  1.66481E+03 -5.48647E+03
  9.62066E+03 -3.72704E+03  1.26247E+04  1.11712E+03  1.28009E+04  7.96319E+03  8.33263E+03  1.65553E+04
 -4.09069E+03  1.96717E+04 -1.58630E+04  1.37891E+04 -2.06281E+04  1.90746E+03 -1.63346E+04 -7.16186E+03
 -8.47821E+03 -1.39097E+04  2.63869E+02 -1.16602E+04  3.90883E+03 -6.03403E+03  4.58325E+03 -4.27737E+03
  3.75877E+03 -3.04323E+03  3.33295E+03 -3.16357E+03  5.54942E+03 -3.01434E+03  6.35519E+03 -6.22784E+02
  8.78782E+03  2.29358E+03  4.26835E+03  7.20218E+03 -2.13153E+03  9.16847E+03 -9.46440E+03  6.71782E+03
 -1.20481E+04 -8.02820E+02 -6.66179E+03 -8.18297E+03 -6.52675E+02 -1.30164E+04  6.70678E+03 -1.27563E+04
  1.28731E+04 -7.58645E+03  1.52167E+04  1.48968E+03  1.12032E+04  1.11089E+04  1.67988E+03  1.41199E+04
 -5.65804E+03  1.08240E+04 -7.89198E+03  4.06799E+03 -5.76155E+03 -1.13383E+03 -2.49304E+03 -1.86523E+03
 -1.68102E+03 -9.32012E+01 -3.05095E+03  2.51369E+03 -5.06181E+03  1.43478E+03 -7.93910E+03 -6.21966E+02
 -5.53515E+03 -8.77063E+03 -1.75559E+02 -1.05330E+04  6.93060E+03 -1.05781E+04  1.04500E+04 -2.39433E+03
  1.16550E+04  5.34048E+03  4.82771E+03  1.01332E+04 -2.80551E+03  1.17205E+04 -7.65295E+03  7.14576E+03
 -9.47629E+03  3.88575E+02 -7.96847E+03 -6.46662E+03 -1.10291E+03 -8.84220E+03  5.16400E+03 -6.80435E+03
  6.42882E+03 -2.26667E+03  4.85296E+03  1.44403E+03  1.77192E+03  3.09590E+03  1.00036E+03  1.44595E+03
  2.63631E+03  5.03373E+02  2.80181E+03  2.25833E+03  4.02827E+03  4.49691E+03  2.93471E+03  5.74811E+03
 -1.99659E+03  8.72879E+03 -7.60538E+03  8.88188E+03 -1.13253E+04  2.17701E+03 -1.19699E+04 -5.02646E+03
 -5.40992E+03 -1.05479E+04  1.86850E+03 -1.30227E+04  6.71649E+03 -7.68205E+03  9.24619E+03 -1.86069E+03
  7.09905E+03  4.78685E+03  1.62864E+03  6.82433E+03 -2.78043E+03  3.25961E+03 -3.70495E+03 -6.22733E+02
 -2.58553E+03 -4.81167E+03  3.09477E+03 -4.80787E+03  4.41373E+03 -1.98421E+03  4.16518E+03  1.06326E+03
  2.28472E+03  2.53142E+03  1.17285E+03  2.00411E+03 -9.83835E+02  1.28811E+03  1.91029E+03 -6.91875E+02
  1.55737E+03 -6.18467E+02  4.67080E+03  1.94022E+03  2.18666E+03  6.03754E+03 -1.57267E+03  7.66232E+03
 -5.52050E+03  4.72269E+03 -7.29467E+03  2.21329E+03 -7.09091E+03 -2.19854E+03 -1.96607E+03 -4.60872E+03
  1.00482E+03 -4.00641E+03  2.80885E+03 -2.42555E+03  2.76437E+03  2.70388E+03 -6.80667E+02  3.54406E+03
 -4.26540E+03  2.31346E+03 -4.97689E+03 -3.26817E+03 -3.04668E+03 -6.20215E+03  1.07918E+03 -6.22041E+03
  3.56755E+03 -3.51333E+03  4.14151E+03 -9.21978E+02  4.00925E+03  1.78178E+03  1.21016E+03  3.05846E+03
 -2.17986E+03  5.91193E+02 -2.70485E+03 -2.47865E+03  1.63844E+03 -4.24501E+03  5.64725E+03 -3.45806E+03
  6.34106E+03  2.88317E+02  6.58352E+03  4.74213E+03  2.46057E+03  6.60960E+03 -2.96056E+03  6.95016E+03
 -5.25801E+03  3.09557E+03 -6.60506E+03 -7.09693E+02 -3.06971E+03 -3.96775E+03  1.11249E+03 -4.29402E+03
  4.56953E+03 -2.23828E+03  3.64781E+03  2.08776E+03  1.63358E+03  4.04747E+03 -1.80576E+02  3.18008E+03
 -9.47395E+02  2.72356E+03 -2.07522E+03  3.25074E+02 -8.60571E+02  1.20823E+03 -1.12544E+03  1.81508E+03
 -1.82975E+03  2.38370E+03 -5.38445E+03  2.35989E+03 -6.91683E+03  1.20147E+02 -7.84213E+03 -5.22771E+03
 -3.73700E+03 -9.56373E+03  2.01168E+03 -1.11736E+04  6.12901E+03 -8.20779E+03  1.08555E+04 -4.06631E+03
  9.68208E+03  1.12552E+03  5.31469E+03  5.74658E+03  3.02329E+00  7.93418E+03 -2.81504E+03  5.61941E+03
 -3.94881E+03  1.80410E+03 -1.47446E+03 -1.30925E+03 -4.68772E+02 -6.65334E+02 -2.30723E+02 -8.88005E+02
 -1.56608E+03 -3.12294E+02 -1.07686E+03 -5.76264E+02 -7.69530E+02 -2.18526E+03  9.85405E+02 -1.50756E+03
  3.13999E+03 -2.47045E+03  4.19381E+03  8.38792E+01  5.10952E+03  4.48882E+03  1.47152E+03  7.22652E+03
 -3.24669E+03  7.68285E+03 -7.34177E+03  5.44394E+03 -8.05428E+03  3.37733E+01 -7.05719E+03 -5.46186E+03
 -2.68732E+03 -6.49086E+03  1.82682E+03 -6.77795E+03  3.74518E+03 -3.51056E+03  5.06789E+03  1.34979E+02
  2.37513E+03  2.48950E+03 -4.45010E+01  1.11487E+03 -8.19171E+02 -4.83129E+02  2.03667E+01 -1.58761E+03
  2.31795E+03 -5.14542E+02  2.61819E+03  6.94830E+02  1.84046E+03  2.67469E+03  5.45092E+02  3.68176E+03
 -4.22622E+03  3.25863E+03 -4.17424E+03 -1.11590E+02 -3.59578E+03 -3.48876E+03 -1.64019E+03 -5.64061E+03
  3.12698E+03 -4.51403E+03  5.07228E+03 -1.22809E+03  4.53947E+03  1.51398E+03  2.39239E+03  3.71014E+03
  1.86932E+02  4.20681E+03 -1.10680E+03  3.43129E+03 -3.17340E+03  2.58795E+03 -2.74507E+03  3.44831E+02
 -1.03460E+03  6.81067E+01 -1.86919E+03  5.41042E+02 -1.91906E+03  8.42539E+02 -3.56165E+03 -6.90580E+02
 -3.43968E+03 -2.01608E+03 -1.46835E+03 -5.07069E+03  2.36390E+03 -4.69015E+03  3.74263E+03 -2.15918E+03
  5.07917E+03  6.68319E+02  1.98718E+03  3.03141E+03 -3.31169E+02  4.55104E+03 -3.16338E+03  3.14508E+03
