 $NMID ID='MM_0lb_SNR400_12hz_g55_55.RAW', FMTDAT='(8E13.5)'
 TRAMP=1., VOLUME=1. $END
  3.09917E+05  8.18092E+02  3.37222E+05  2.51451E+05  8.46051E+04  3.38304E+05 -1.32726E+05  2.52232E+05
 -1.91174E+05  8.35541E+04 -1.12518E+05 -3.24004E+04  7.99961E+02 -5.03925E+04  5.41783E+04 -8.25430E+02
  3.52173E+04  5.19710E+04 -1.59868E+04  7.63140E+04 -6.07788E+04  6.44048E+04 -8.45476E+04  3.19830E+04
 -8.21020E+04 -1.16026E+04 -5.74852E+04 -5.20062E+04 -1.53277E+04 -6.98869E+04  2.80591E+04 -4.64404E+04
  4.02691E+04  3.96011E+03  1.65499E+04  4.84081E+04 -3.46610E+04  4.75046E+04 -6.75601E+04  6.26039E+02
 -5.46883E+04 -5.82100E+04 -7.58822E+03 -7.85477E+04  3.44980E+04 -5.60333E+04  4.89040E+04 -1.84920E+04
  4.49871E+04  1.11537E+04  3.26453E+04  2.60989E+04  1.54422E+04  2.98997E+04 -6.09670E+03  2.76163E+04
 -2.22285E+04  1.19781E+04 -1.84197E+04 -5.10691E+03  5.94441E+03 -6.38713E+03  2.26531E+04  1.29703E+04
  6.88121E+03  3.63559E+04 -3.29598E+04  3.67540E+04 -6.50539E+04  2.12381E+03 -5.81078E+04 -4.42152E+04
 -1.29970E+04 -6.51805E+04  4.07145E+04 -4.66564E+04  5.98832E+04 -2.43975E+03  3.59017E+04  3.39464E+04
 -5.76532E+03  3.81866E+04 -3.05031E+04  1.72415E+04 -3.20164E+04 -3.66712E+03 -1.77749E+04 -1.19800E+04
 -8.95387E+03 -1.39376E+04 -5.05204E+02 -1.87791E+04  8.02493E+03 -2.40947E+04  1.56104E+04 -1.22905E+04
  1.05691E+04  5.63448E+03 -9.11745E+03  1.28842E+04 -2.20183E+04 -5.31347E+03 -8.62086E+03 -3.57494E+04
  2.38489E+04 -4.52751E+04  5.02408E+04 -2.07510E+04  4.65365E+04  1.99691E+04  1.66805E+04  4.57106E+04
 -1.62224E+04  3.47615E+04 -2.62924E+04  1.87379E+03 -1.07824E+04 -2.92251E+04  2.11557E+04 -3.57963E+04
  4.30864E+04 -1.04768E+04  3.84355E+04  2.47526E+04  2.00934E+04  4.86126E+04 -8.04394E+03  5.38717E+04
 -3.39161E+04  3.54550E+04 -4.47307E+04  9.96884E+03 -4.53876E+04 -1.78855E+04 -2.45506E+04 -4.04085E+04
  7.27474E+03 -4.02682E+04  3.31922E+04 -1.60766E+04  3.08511E+04  1.11257E+04  4.36271E+03  1.93357E+04
 -1.39442E+04  8.95892E+03 -1.05853E+04 -7.85667E+03  6.03824E+03 -1.10522E+04  1.86287E+04  5.54863E+03
  1.44247E+04  2.24521E+04 -5.65150E+03  2.63814E+04 -2.27971E+04  1.31903E+04 -2.96844E+04 -3.68109E+03
 -2.31727E+04 -1.85404E+04 -9.77856E+03 -2.28291E+04  4.24611E+03 -2.27435E+04  1.80196E+04 -2.02053E+04
  2.93383E+04 -1.32709E+04  3.54413E+04  3.55021E+03  2.51728E+04  2.20577E+04  4.08258E+03  3.92734E+04
 -1.91789E+04  3.23315E+04 -2.91085E+04  1.10979E+04 -2.10464E+04 -1.00894E+04 -4.27953E+03 -1.32292E+04
  1.34556E+03 -2.79955E+03 -6.23749E+03  7.41745E+03 -1.89345E+04  4.73683E+03 -1.81155E+04 -8.57022E+03
 -1.09828E+04 -2.12791E+04  6.11643E+03 -2.54429E+04  1.74835E+04 -1.73815E+04  2.05039E+04 -2.40462E+03
  1.26847E+04  1.48228E+04 -1.27424E+03  2.12002E+04 -1.48819E+04  1.22167E+04 -2.13022E+04 -3.80339E+03
 -1.65681E+04 -1.86395E+04 -2.10600E+03 -2.56104E+04  1.15869E+04 -2.11908E+04  2.12863E+04 -1.06242E+04
  2.00848E+04  1.88332E+02  1.37175E+04  4.59263E+03  8.28798E+03  1.13080E+03  1.17697E+04 -1.67777E+03
  1.94526E+04  2.52623E+03  2.30094E+04  1.70452E+04  1.56566E+04  3.37699E+04 -1.99198E+03  3.97242E+04
 -2.28996E+04  3.19142E+04 -3.72424E+04  1.63944E+04 -3.89888E+04 -1.71826E+03 -3.16985E+04 -2.26779E+04
 -1.34766E+04 -3.23086E+04  1.11007E+04 -2.86493E+04  2.36919E+04 -1.37433E+04  2.14492E+04  6.45936E+03
  8.19707E+03  1.69932E+04 -1.05773E+04  1.35555E+04 -1.76670E+04  2.70829E+03 -1.40921E+04 -1.12552E+04
 -6.37553E+02 -1.69559E+04  8.84220E+03 -1.33441E+04  1.21916E+04 -1.59736E+03  3.13044E+03  7.53753E+03
 -7.85395E+03  3.01874E+03 -7.28571E+03 -5.80436E+03 -1.68180E+03 -1.55618E+04  1.05910E+04 -1.66392E+04
  1.98533E+04 -8.11779E+03  2.18808E+04  3.08624E+03  1.86573E+04  1.60238E+04  8.77404E+03  2.56661E+04
 -4.29729E+03  2.65353E+04 -1.69263E+04  1.66287E+04 -1.85706E+04  3.90056E+03 -1.36757E+04 -4.26616E+03
 -5.83116E+03 -5.68554E+03 -1.10541E+03  1.10655E+03 -2.46008E+03  3.15688E+03 -6.35967E+03  5.37307E+03
 -1.24825E+04 -8.68156E+02 -1.28973E+04 -1.08169E+04 -5.50859E+03 -1.63948E+04  5.73021E+03 -1.39201E+04
  1.18234E+04 -5.70560E+03  8.15864E+03  3.98555E+03  3.99685E+00  6.45345E+03 -6.52709E+03 -3.00354E+02
 -7.05697E+03 -9.14345E+03 -3.81437E+02 -1.28471E+04  6.88937E+03 -1.43934E+04  1.70649E+04 -7.36041E+03
  2.01460E+04  2.12794E+03  1.41353E+04  1.19797E+04  2.60657E+03  1.66289E+04 -7.79796E+03  1.31047E+04
 -1.11749E+04  3.43045E+03 -6.11479E+03 -2.31529E+03  1.82482E+03 -3.02987E+03  7.02939E+03 -8.13044E+02
  6.26874E+03  5.51442E+03  1.43042E+03  1.04817E+04 -7.87735E+03  1.02833E+04 -1.22609E+04  3.30688E+03
 -8.83038E+03 -7.22636E+03 -2.85206E+01 -1.11001E+04  7.13132E+03 -5.77956E+03  7.28585E+03  2.98049E+03
  1.91237E+03  7.84322E+03 -5.97279E+03  9.16124E+03 -1.04451E+04  4.27192E+03 -1.07072E+04 -3.06722E+03
 -6.50449E+03 -1.26846E+04  3.01622E+03 -1.44852E+04  1.19608E+04 -9.23639E+03  1.30856E+04  2.55638E+03
  8.33835E+03  1.06168E+04 -5.97000E+02  1.32158E+04 -9.74485E+03  6.66545E+03 -1.02888E+04 -9.21305E+02
 -8.24311E+03 -8.61195E+03 -1.44853E+03 -9.57443E+03  6.00436E+03 -8.55172E+03  5.78088E+03 -3.11542E+03
  4.40870E+03  1.05409E+03 -3.61577E+02  2.08672E+03 -1.71126E+02 -2.06895E+03  1.72169E+03 -5.62119E+03
  8.90898E+03 -4.02061E+03  1.21642E+04  1.40892E+03  1.16790E+04  8.22343E+03  7.45959E+03  1.59995E+04
 -3.37709E+03  1.85572E+04 -1.57495E+04  1.37391E+04 -2.04738E+04  2.70633E+03 -1.64239E+04 -6.61845E+03
 -8.54074E+03 -1.37627E+04 -5.15511E+02 -1.18973E+04  4.50356E+03 -6.14759E+03  4.56595E+03 -3.98131E+03
  2.99440E+03 -2.39406E+03  2.88017E+03 -2.95529E+03  4.90974E+03 -3.63702E+03  6.24711E+03 -1.91945E+02
  9.00115E+03  1.87961E+03  4.92621E+03  7.18533E+03 -2.37063E+03  8.67535E+03 -8.68220E+03  6.69359E+03
 -1.05004E+04 -1.47098E+03 -6.16012E+03 -7.58903E+03 -5.71114E+02 -1.20544E+04  7.10783E+03 -1.19136E+04
  1.18168E+04 -5.69177E+03  1.45299E+04  1.40280E+03  1.04689E+04  9.97331E+03  1.54455E+03  1.32173E+04
 -5.46294E+03  1.06020E+04 -7.67036E+03  3.65841E+03 -5.27521E+03 -1.34694E+03 -1.72436E+03 -9.85253E+02
 -5.31881E+02 -4.66257E+02 -1.73624E+03  2.44867E+03 -4.56815E+03  1.78250E+03 -7.87943E+03 -1.76929E+03
 -4.69871E+03 -7.63006E+03  2.64978E+01 -1.09275E+04  6.07235E+03 -1.01099E+04  1.02053E+04 -3.96303E+03
  1.09559E+04  5.78124E+03  4.67106E+03  9.09900E+03 -1.75846E+03  1.07988E+04 -8.39236E+03  6.84863E+03
 -1.03522E+04  1.55285E+03 -7.84097E+03 -6.43736E+03 -7.68069E+02 -8.79858E+03  4.83592E+03 -6.40572E+03
  6.24006E+03 -2.15968E+03  3.99679E+03  1.38646E+03  2.26164E+03  3.73355E+03  8.74977E+02  2.21300E+03
  2.32238E+03  5.11520E+02  3.61767E+03  1.30718E+03  3.41330E+03  4.03062E+03  3.39146E+03  5.15699E+03
 -2.83347E+03  8.58898E+03 -7.00526E+03  8.11434E+03 -1.06744E+04  2.68793E+03 -1.07129E+04 -3.25856E+03
 -5.41844E+03 -1.06519E+04  1.28553E+03 -1.18502E+04  5.43018E+03 -6.99097E+03  9.15384E+03 -2.84451E+03
  6.71851E+03  4.19513E+03  1.08233E+03  6.07028E+03 -2.83311E+03  3.51533E+03 -3.72866E+03 -3.56256E+02
 -2.39744E+03 -4.70601E+03  2.65380E+03 -4.61531E+03  4.03235E+03 -2.27929E+03  4.26940E+03  6.14257E+02
  2.97683E+03  1.74036E+03  8.10540E+02  1.06741E+03 -5.60909E+01  2.01777E+03  1.53252E+03 -3.86862E+02
  1.29615E+03 -2.58194E+02  4.49962E+03  2.11101E+03  2.36311E+03  5.94670E+03 -6.79446E+02  7.63188E+03
 -4.73441E+03  4.76420E+03 -6.47125E+03  1.27837E+03 -5.60465E+03 -2.57421E+03 -1.84957E+03 -3.85437E+03
  8.87478E+02 -3.89987E+03  2.49846E+03 -1.86884E+03  2.50564E+03  2.20841E+03 -1.46855E+03  3.36598E+03
 -4.50731E+03  2.38023E+03 -3.87186E+03 -3.10903E+03 -2.69688E+03 -5.93368E+03  5.42690E+02 -5.65228E+03
  3.16584E+03 -2.68825E+03  3.64289E+03  3.28151E+02  2.90094E+03  1.12368E+03  1.02857E+03  2.79933E+03
 -1.91306E+03  8.89431E+02 -2.51255E+03 -2.14420E+03  1.39009E+03 -4.02432E+03  4.66367E+03 -3.32803E+03
  5.81375E+03  1.75083E+02  6.51685E+03  4.22898E+03  1.93065E+03  5.89653E+03 -2.13539E+03  6.23016E+03
 -4.82167E+03  2.32858E+03 -5.16877E+03 -9.67506E+02 -2.82864E+03 -3.66555E+03  1.05463E+03 -4.13190E+03
  4.23122E+03 -1.44739E+03  3.42633E+03  2.64682E+03  1.21714E+03  4.08226E+03 -2.98530E+02  2.98887E+03
 -2.01737E+03  2.27246E+03 -1.69711E+03  9.39433E+02 -1.10335E+03  4.43065E+02 -1.43018E+03  1.65494E+03
 -2.02070E+03  2.35676E+03 -4.70588E+03  2.59711E+03 -6.30131E+03  3.69587E+02 -7.03228E+03 -4.19226E+03
 -3.08170E+03 -7.94917E+03  2.21453E+03 -9.31781E+03  5.87066E+03 -7.92141E+03  8.56668E+03 -3.24605E+03
  8.16487E+03  1.56373E+03  5.27760E+03  5.29377E+03 -2.93209E+02  5.68604E+03 -2.01947E+03  4.36893E+03
 -3.83891E+03  1.95173E+03 -2.01912E+03 -1.42404E+03 -9.72395E+02 -4.38172E+02 -6.93686E+02  1.64443E+02
 -1.43503E+03  4.59202E+01 -2.08840E+03  2.62549E+02 -4.35515E+01 -1.52988E+03 -2.34784E+02 -2.14554E+03
  3.52712E+03 -2.08973E+03  3.75752E+03 -7.43029E+02  3.77529E+03  3.01026E+03  1.07888E+03  5.95048E+03
 -2.93388E+03  6.84572E+03 -6.54227E+03  3.84010E+03 -7.71105E+03 -5.95865E+02 -5.86591E+03 -4.99420E+03
 -2.20468E+03 -6.64503E+03  1.33895E+03 -5.88093E+03  3.64339E+03 -2.56772E+03  3.51290E+03 -1.45600E+01
  1.89133E+03  2.32291E+03 -3.36349E+02  2.17213E+03 -1.34947E+03 -2.13872E+02  1.88714E+02 -1.03889E+03
  1.54232E+03 -1.32845E+02  2.08025E+03  9.71039E+02  1.37711E+03  2.42799E+03 -2.38788E+02  3.27861E+03
 -1.99366E+03  2.78128E+03 -4.30192E+03  7.21391E+02 -3.52932E+03 -3.39153E+03 -8.91277E+02 -4.78127E+03
  2.82737E+03 -3.79078E+03  4.80040E+03 -1.68782E+03  4.42850E+03  1.39312E+02  2.59908E+03  3.27791E+03
  1.62115E+03  3.30313E+03 -1.42219E+03  4.19333E+03 -2.76691E+03  1.60102E+03 -1.88611E+03 -3.97728E+01
 -9.78754E+02 -2.16051E+02 -9.82938E+02  5.98807E+02 -1.85447E+03  4.06408E+02 -2.85974E+03 -4.62123E+02
 -3.08710E+03 -1.81432E+03 -3.58641E+02 -3.74465E+03  1.90366E+03 -4.30120E+03  3.32701E+03 -1.88668E+03
  3.83194E+03  9.45535E+02  2.48706E+03  2.25406E+03 -1.64626E+02  4.08628E+03 -2.62039E+03  2.05866E+03
