 $NMID ID='MM_0lb_SNR400_17hz_g45_99.RAW', FMTDAT='(8E13.5)'
 TRAMP=1., VOLUME=1. $END
  3.09503E+05  1.65436E+02  3.36857E+05  2.50453E+05  8.49095E+04  3.37474E+05 -1.32206E+05  2.50888E+05
 -1.90141E+05  8.22708E+04 -1.11434E+05 -3.26095E+04  1.12946E+03 -4.99930E+04  5.41993E+04  5.61082E+02
  3.52783E+04  5.29588E+04 -1.71414E+04  7.53137E+04 -6.05958E+04  6.32185E+04 -8.28812E+04  3.12400E+04
 -7.95841E+04 -1.11238E+04 -5.66210E+04 -5.04221E+04 -1.56153E+04 -6.87320E+04  2.71809E+04 -4.48881E+04
  3.96165E+04  4.25223E+03  1.60973E+04  4.73883E+04 -3.41377E+04  4.59312E+04 -6.55239E+04 -7.74854E+02
 -5.19687E+04 -5.67339E+04 -6.75281E+03 -7.56289E+04  3.32092E+04 -5.39345E+04  4.62865E+04 -1.63682E+04
  4.21115E+04  1.13262E+04  3.14530E+04  2.40736E+04  1.57814E+04  2.85776E+04 -4.73287E+03  2.63088E+04
 -2.17840E+04  1.20730E+04 -1.90304E+04 -4.34768E+03  5.15690E+03 -7.72200E+03  2.14162E+04  1.15219E+04
  7.40585E+03  3.40403E+04 -3.10031E+04  3.43280E+04 -6.18323E+04  2.63043E+03 -5.58717E+04 -4.16014E+04
 -1.24865E+04 -6.17251E+04  3.81944E+04 -4.38000E+04  5.62700E+04 -1.79029E+03  3.24423E+04  3.09745E+04
 -6.12420E+03  3.33486E+04 -2.86270E+04  1.40666E+04 -2.80797E+04 -4.84383E+03 -1.53797E+04 -1.03664E+04
 -8.02620E+03 -1.20706E+04 -1.16538E+03 -1.73742E+04  6.22352E+03 -2.28673E+04  1.52702E+04 -1.40385E+04
  1.22076E+04  4.56646E+03 -7.24949E+03  1.31657E+04 -1.95790E+04 -2.78019E+03 -7.95173E+03 -3.12525E+04
  2.08402E+04 -4.16747E+04  4.56934E+04 -1.90592E+04  4.25303E+04  1.88973E+04  1.47423E+04  4.20199E+04
 -1.58331E+04  3.15403E+04 -2.41924E+04  7.33685E+02 -9.00957E+03 -2.72329E+04  2.07317E+04 -3.23988E+04
  3.85932E+04 -8.06953E+03  3.24473E+04  2.28707E+04  1.60861E+04  4.41300E+04 -7.92640E+03  4.64122E+04
 -2.87559E+04  3.11108E+04 -3.86789E+04  8.78725E+03 -3.95938E+04 -1.57102E+04 -2.16626E+04 -3.55627E+04
  6.90619E+03 -3.52865E+04  3.01664E+04 -1.30219E+04  2.72626E+04  1.09394E+04  2.97761E+03  1.80316E+04
 -1.27792E+04  7.82431E+03 -9.76377E+03 -7.84785E+03  5.26047E+03 -1.04062E+04  1.76292E+04  6.47418E+03
  1.27246E+04  2.19954E+04 -6.84904E+03  2.34883E+04 -2.16494E+04  1.03713E+04 -2.61864E+04 -5.83808E+03
 -1.76976E+04 -1.65283E+04 -6.99376E+03 -1.80652E+04  3.16665E+03 -1.56370E+04  1.33221E+04 -1.56869E+04
  2.22250E+04 -1.23283E+04  2.90759E+04  1.53379E+03  2.17332E+04  1.73013E+04  4.15407E+03  3.35647E+04
 -1.64003E+04  2.86747E+04 -2.67104E+04  9.88382E+03 -1.97613E+04 -1.04004E+04 -4.08178E+03 -1.41095E+04
  2.34956E+03 -3.14320E+03 -3.53774E+03  5.61689E+03 -1.37990E+04  4.97781E+03 -1.39441E+04 -5.54581E+03
 -9.04535E+03 -1.61375E+04  4.87703E+03 -2.03657E+04  1.34456E+04 -1.48959E+04  1.54996E+04 -1.38298E+03
  9.00122E+03  1.15090E+04 -1.29424E+03  1.65763E+04 -1.11647E+04  9.51111E+03 -1.61396E+04 -3.06067E+03
 -1.19311E+04 -1.49622E+04 -1.72539E+03 -2.02046E+04  8.44231E+03 -1.57365E+04  1.69980E+04 -7.65983E+03
  1.53542E+04  2.97153E+02  1.13908E+04  4.15583E+03  5.40549E+03  7.07049E+02  8.06688E+03 -1.33604E+03
  1.49772E+04  2.65943E+03  1.62747E+04  1.29049E+04  9.41099E+03  2.60806E+04 -3.36182E+03  2.77762E+04
 -1.63894E+04  2.19543E+04 -2.61128E+04  1.04083E+04 -2.77017E+04 -1.54164E+03 -2.31369E+04 -1.51590E+04
 -1.01762E+04 -2.22383E+04  7.26805E+03 -2.04447E+04  1.80521E+04 -1.17202E+04  1.67786E+04  4.10223E+03
  7.02946E+03  1.18343E+04 -7.12587E+03  1.07277E+04 -1.31928E+04  1.50438E+03 -1.11183E+04 -8.56262E+03
  1.35917E+02 -1.32019E+04  7.08757E+03 -9.74337E+03  8.39188E+03 -1.55096E+03  1.79389E+03  5.76137E+03
 -5.42230E+03  1.54951E+03 -4.30564E+03 -5.01204E+03  6.41062E+01 -1.04835E+04  7.75152E+03 -1.14549E+04
  1.35545E+04 -5.50204E+03  1.33077E+04  3.17116E+03  1.15525E+04  1.05783E+04  5.27238E+03  1.61510E+04
 -2.10521E+03  1.80151E+04 -1.06981E+04  1.10184E+04 -1.26342E+04  2.86764E+03 -9.14410E+03 -3.05134E+03
 -4.28915E+03 -4.10756E+03 -1.06391E+03  1.71713E+03 -1.80447E+03  2.30986E+03 -4.20790E+03  3.71119E+03
 -8.57050E+03 -5.11514E+01 -9.42913E+03 -7.57870E+03 -3.82111E+03 -1.15988E+04  3.63959E+03 -9.72528E+03
  8.17253E+03 -4.09135E+03  5.44390E+03  2.39873E+03  3.44247E+02  3.57310E+03 -4.12224E+03  1.30954E+02
 -3.99756E+03 -5.92762E+03 -7.21551E+02 -7.90548E+03  4.54999E+03 -8.70942E+03  1.12990E+04 -4.55248E+03
  1.26729E+04  9.12432E+02  1.00429E+04  7.02189E+03  1.65792E+03  9.48545E+03 -5.94917E+03  9.16644E+03
 -7.83574E+03  3.26751E+03 -3.72131E+03 -2.22114E+03  1.37911E+03 -2.21547E+03  4.67623E+03 -1.43652E+03
  4.30330E+03  4.57475E+03  1.53900E+03  6.92735E+03 -4.92578E+03  7.22034E+03 -8.31323E+03  1.94668E+03
 -5.32241E+03 -4.04531E+03 -7.08359E+02 -7.50254E+03  4.23295E+03 -4.13533E+03  4.21436E+03  1.44444E+03
  8.11442E+02  4.32256E+03 -4.35730E+03  5.08359E+03 -5.80514E+03  2.16755E+03 -4.90628E+03 -9.64525E+02
 -2.91929E+03 -6.77798E+03  1.84384E+03 -8.31653E+03  7.14011E+03 -5.55307E+03  7.67395E+03  1.42570E+03
  5.33738E+03  5.72445E+03 -3.81979E+02  7.98817E+03 -5.52450E+03  4.70450E+03 -6.18726E+03 -6.72144E+02
 -6.30335E+03 -5.65695E+03 -1.73331E+03 -5.57906E+03  3.08043E+03 -4.83008E+03  3.50007E+03 -2.85028E+03
  3.11080E+03  4.62373E+02 -2.27051E+02  1.34164E+03  3.42191E+02 -1.09885E+03  8.13187E+02 -2.07862E+03
  4.73554E+03 -4.76206E+02  6.29749E+03  3.45660E+02  6.66292E+03  3.50838E+03  5.78236E+03  8.38758E+03
 -1.54005E+03  1.00656E+04 -8.95566E+03  7.04297E+03 -1.03229E+04  6.44518E+02 -8.54362E+03 -3.37799E+03
 -5.14337E+03 -8.04603E+03  9.37771E+01 -6.48280E+03  2.23965E+03 -2.44209E+03  1.98279E+03 -2.31337E+03
  5.49300E+02 -2.22463E+03  2.25062E+03 -2.39358E+03  3.99436E+03 -1.22298E+03  4.09674E+03  2.30534E+02
  4.88513E+03  1.43568E+03  1.89222E+03  3.79702E+03 -1.44157E+03  3.40556E+03 -4.65981E+03  3.60127E+03
 -5.65395E+03 -1.17562E+03 -1.98845E+03 -3.96100E+03  2.94200E+02 -6.18274E+03  4.05399E+03 -6.23702E+03
  6.09458E+03 -4.24589E+03  7.59709E+03  5.46218E+02  5.16545E+03  5.49404E+03  1.69676E+03  6.88346E+03
 -2.22827E+03  7.25795E+03 -3.82706E+03  2.26373E+03 -2.37043E+03 -6.29050E+02  1.88558E+02 -8.93738E+02
 -3.71149E+02  3.70804E+02 -9.33699E+02  2.25811E+03 -2.52211E+03  1.23170E+03 -4.31708E+03 -6.68191E+02
 -1.95695E+03 -4.91515E+03  6.28211E+02 -5.38109E+03  2.65503E+03 -5.33191E+03  4.39994E+03 -1.33499E+03
  5.32829E+03  2.61152E+03  2.28065E+03  4.39824E+03 -1.03868E+03  6.00955E+03 -3.23481E+03  3.36266E+03
 -4.41489E+03  5.35358E+02 -4.16527E+03 -3.06569E+03  3.36252E+02 -4.24890E+03  2.37398E+03 -2.65463E+03
  2.98013E+03 -1.07447E+03  2.07711E+03  3.25468E+02  4.62584E+02  2.06664E+03  5.88822E+02  5.72925E+02
  1.88299E+03  6.31759E+02  1.52479E+03  9.12391E+02  1.29241E+03  2.67552E+03  1.15929E+03  2.91439E+03
 -1.36579E+03  4.14563E+03 -3.34421E+03  4.85532E+03 -3.79695E+03  1.25099E+03 -5.24472E+03 -7.25216E+02
 -1.79680E+03 -4.35820E+03  9.42683E+02 -5.65203E+03  2.73556E+03 -3.18986E+03  4.17011E+03 -6.48556E+02
  2.61461E+03  2.50870E+03  8.19892E+02  2.73930E+03 -1.00362E+03  1.95058E+03 -1.11086E+03 -1.72296E+02
 -9.21832E+02 -1.59983E+03  1.82068E+03 -2.52187E+03  1.77684E+03 -7.12468E+02  1.32467E+03  5.65581E+02
  8.70936E+02  5.94314E+02  1.16778E+02 -9.14560E+00 -6.46173E+00  9.81725E+02  1.92775E+03 -1.60267E+02
  1.67246E+02  3.81992E+02  1.92030E+03  8.33344E+02  3.19436E+02  2.95003E+03 -4.24241E+02  3.60001E+03
 -1.44598E+03  1.44155E+03 -2.25093E+03  1.12584E+03 -2.34940E+03 -9.87652E+02 -5.49151E+02 -1.30950E+03
  9.66297E+02 -1.52381E+03  8.36887E+02 -7.27884E+02  1.16610E+03  1.61379E+03 -6.85004E+02  1.23374E+03
 -1.83045E+03  3.76360E+02 -1.42538E+03 -1.42294E+03 -1.54953E+03 -3.12013E+03  2.95198E+02 -2.25259E+03
  1.20615E+03 -1.31655E+03  1.15768E+03  5.24417E+02  1.30002E+03  2.87902E+02  8.61472E+02  1.78837E+03
 -4.20862E+02  4.74389E+02 -1.13151E+03 -6.51958E+02  3.82285E+02 -1.27025E+03  2.09364E+03 -1.55754E+03
  2.50033E+03 -2.12794E+02  2.70967E+03  1.01980E+03  1.30626E+03  2.45957E+03 -5.12283E+01  2.65836E+03
 -1.94548E+03  5.05782E+02 -1.49546E+03 -2.91460E+02 -1.29404E+03 -1.72371E+03  3.41837E+02 -8.14669E+02
  1.47086E+03 -6.90904E+02  8.26952E+02  3.04881E+02  5.89941E+02  7.85563E+02  2.36076E+01  1.35899E+03
 -4.71546E+01  1.18040E+03 -5.12350E+02  1.75408E+02 -8.67193E+01  3.91872E+02 -8.06131E+02  5.42518E+02
 -1.05392E+03  1.32156E+03 -2.41919E+03  4.74928E+02 -2.42429E+03  3.16689E+02 -3.46499E+03 -1.05143E+03
 -1.60348E+03 -2.78117E+03  1.20854E+03 -3.72250E+03  1.47209E+03 -2.93823E+03  3.53600E+03 -1.49772E+03
  3.20916E+03  3.81733E+02  1.65829E+03  2.38454E+03  8.23534E+01  2.16271E+03 -4.45506E+02  1.17687E+03
 -1.33555E+03  1.04065E+03 -4.06571E+02 -5.15083E+02 -7.61452E+02  4.87995E+02 -2.52604E+02  6.21504E+01
 -7.44260E+02  3.09550E+02 -1.21118E+03  4.14958E+01  1.37794E+02 -9.21852E+01 -5.79024E+02 -1.39616E+03
  1.59174E+03 -8.93423E+02  1.06508E+03  2.64677E+02  1.41005E+03  1.56461E+03 -3.30406E+02  1.91809E+03
 -1.32717E+03  2.58147E+03 -1.83699E+03  1.81023E+03 -2.42642E+03  3.67611E+02 -2.11748E+03 -1.80680E+03
 -1.65242E+03 -1.66088E+03  9.05290E+02 -2.47377E+03  1.62209E+03 -7.40740E+02  1.16542E+03  7.33709E+02
  1.37934E+03  3.79744E+02  1.74137E+02  6.85614E+02 -6.34047E+02  2.52978E+02  6.16689E+01 -5.48815E+02
  4.56177E+02  1.95698E+02  3.97048E+02 -2.81319E+02  2.29044E+02  8.26171E+02  3.18484E+02  7.30005E+02
 -3.55137E+02  1.18543E+03 -9.60559E+02  8.76425E+01 -1.13838E+03 -1.00924E+03 -1.57920E+02 -1.11024E+03
  1.04047E+03 -1.06207E+03  1.37620E+03  1.35828E+02  1.37549E+03 -6.06344E+02  1.09589E+03  7.45797E+02
  6.09373E+02  1.25235E+03 -6.41233E+02  8.66748E+02 -4.75772E+02  8.15837E+02 -6.61587E+02 -2.95573E+02
 -1.53790E+02  2.40461E+02 -3.55208E+02  3.39482E+02 -5.83350E+02  5.36907E+02 -1.09208E+03 -3.81273E+01
 -6.82983E+02 -6.56831E+02 -7.13708E+02 -1.19732E+03  6.16670E+02 -2.08911E+03  1.47798E+03 -4.38143E+02
  6.11611E+02 -2.57122E+01 -4.20737E+02  8.45311E+02 -2.21066E+02  1.30858E+03 -6.46886E+02  8.81054E+02
