 $NMID ID='MM_0lb_SNR400_20hz_g55_32.RAW', FMTDAT='(8E13.5)'
 TRAMP=1., VOLUME=1. $END
  3.09994E+05  4.70590E+02  3.37587E+05  2.50473E+05  8.42671E+04  3.37011E+05 -1.32553E+05  2.50616E+05
 -1.89608E+05  8.23898E+04 -1.11238E+05 -3.23575E+04  1.49823E+03 -4.99898E+04  5.38542E+04  2.64345E+02
  3.51123E+04  5.24829E+04 -1.69336E+04  7.48470E+04 -6.06141E+04  6.26079E+04 -8.31271E+04  3.13653E+04
 -7.95658E+04 -1.11590E+04 -5.62090E+04 -5.06068E+04 -1.49634E+04 -6.85205E+04  2.69436E+04 -4.47740E+04
  3.98381E+04  3.84398E+03  1.54732E+04  4.73964E+04 -3.43211E+04  4.60859E+04 -6.57664E+04 -3.73380E+02
 -5.23518E+04 -5.57206E+04 -6.05252E+03 -7.52864E+04  3.34235E+04 -5.34689E+04  4.64237E+04 -1.62074E+04
  4.17962E+04  1.12066E+04  3.08607E+04  2.44947E+04  1.54383E+04  2.86665E+04 -4.06202E+03  2.73748E+04
 -2.13354E+04  1.27603E+04 -1.90678E+04 -4.39944E+03  4.72765E+03 -7.38516E+03  2.07855E+04  1.10824E+04
  7.38824E+03  3.35122E+04 -3.07112E+04  3.41502E+04 -6.13647E+04  2.56600E+03 -5.55484E+04 -4.19817E+04
 -1.27189E+04 -6.08441E+04  3.85680E+04 -4.30464E+04  5.53824E+04 -1.96614E+03  3.22288E+04  3.11257E+04
 -6.50911E+03  3.30877E+04 -2.88470E+04  1.33050E+04 -2.70285E+04 -4.92039E+03 -1.44788E+04 -1.02383E+04
 -7.70092E+03 -1.19353E+04 -1.40140E+03 -1.69259E+04  7.09391E+03 -2.27204E+04  1.48599E+04 -1.39040E+04
  1.18864E+04  3.70845E+03 -6.09148E+03  1.31059E+04 -1.92327E+04 -2.22187E+03 -7.92274E+03 -3.03855E+04
  2.03757E+04 -4.04026E+04  4.45150E+04 -1.87165E+04  4.20100E+04  1.84105E+04  1.45617E+04  4.23228E+04
 -1.52407E+04  3.13307E+04 -2.30154E+04  1.26079E+03 -8.21888E+03 -2.64141E+04  2.04492E+04 -3.14280E+04
  3.83284E+04 -7.58999E+03  3.14704E+04  2.24025E+04  1.48879E+04  4.29863E+04 -8.06425E+03  4.52441E+04
 -2.83972E+04  2.96365E+04 -3.78177E+04  8.51404E+03 -3.87040E+04 -1.50578E+04 -2.12332E+04 -3.43178E+04
  7.19733E+03 -3.46674E+04  2.99722E+04 -1.27060E+04  2.67774E+04  1.06920E+04  3.13555E+03  1.79582E+04
 -1.34187E+04  7.53415E+03 -9.91446E+03 -7.69220E+03  5.95696E+03 -9.88840E+03  1.67855E+04  6.11819E+03
  1.23513E+04  2.16016E+04 -6.81384E+03  2.34851E+04 -2.16554E+04  8.70997E+03 -2.53675E+04 -6.76800E+03
 -1.68481E+04 -1.59603E+04 -6.42767E+03 -1.68483E+04  3.29738E+03 -1.44952E+04  1.23711E+04 -1.42168E+04
  2.14262E+04 -1.18161E+04  2.79576E+04  1.34535E+03  2.15271E+04  1.60148E+04  4.47141E+03  3.22597E+04
 -1.56961E+04  2.75355E+04 -2.58974E+04  9.35797E+03 -1.92941E+04 -1.03519E+04 -3.48380E+03 -1.40135E+04
  2.48430E+03 -4.00010E+03 -2.89064E+03  4.70740E+03 -1.23210E+04  4.96315E+03 -1.31912E+04 -5.06526E+03
 -8.40333E+03 -1.50034E+04  4.27918E+03 -1.96057E+04  1.23596E+04 -1.40004E+04  1.41600E+04 -1.59401E+03
  8.67434E+03  1.05444E+04 -3.47809E+02  1.54950E+04 -9.81775E+03  8.74273E+03 -1.49781E+04 -3.48674E+03
 -1.10139E+04 -1.34328E+04 -2.10084E+03 -1.88275E+04  8.30272E+03 -1.50214E+04  1.53809E+04 -7.06841E+03
  1.43155E+04  8.68126E+02  9.86652E+03  3.81250E+03  4.79336E+03 -1.70706E+02  7.67265E+03 -1.54936E+03
  1.38933E+04  2.43708E+03  1.44291E+04  1.29513E+04  9.14001E+03  2.42678E+04 -2.56934E+03  2.61101E+04
 -1.51291E+04  2.01788E+04 -2.40753E+04  8.80762E+03 -2.44744E+04 -1.93284E+03 -2.06873E+04 -1.35554E+04
 -9.76388E+03 -1.96113E+04  6.80488E+03 -1.85588E+04  1.56121E+04 -1.03125E+04  1.56948E+04  3.23760E+03
  6.80893E+03  1.08647E+04 -6.68379E+03  1.01883E+04 -1.24122E+04  2.20670E+03 -1.02956E+04 -8.29020E+03
  2.52328E+02 -1.22687E+04  5.87300E+03 -9.21839E+03  7.24160E+03 -1.14318E+03  1.16486E+03  4.83700E+03
 -5.90740E+03  1.06939E+03 -3.54203E+03 -4.30990E+03  7.92540E+02 -9.67981E+03  7.55927E+03 -8.94767E+03
  1.16238E+04 -4.64135E+03  1.13798E+04  2.72417E+03  9.59439E+03  8.58256E+03  4.81061E+03  1.29004E+04
 -1.74119E+03  1.47433E+04 -9.13421E+03  9.47859E+03 -1.08563E+04  2.81308E+03 -8.26290E+03 -1.81968E+03
 -4.72741E+03 -3.36236E+03 -6.56306E+02  1.58793E+03 -1.88700E+03  1.76353E+03 -3.28217E+03  3.50032E+03
 -7.48522E+03 -4.59708E+02 -8.62106E+03 -7.21208E+03 -3.21995E+03 -1.13711E+04  3.57768E+03 -7.97181E+03
  6.56533E+03 -3.92889E+03  4.87486E+03  2.00436E+03  4.50526E+02  3.35528E+03 -3.06022E+03 -2.92235E+01
 -3.08020E+03 -4.39295E+03 -2.87353E+02 -6.78769E+03  3.35583E+03 -7.40505E+03  9.20289E+03 -3.90044E+03
  1.08165E+04  3.58993E+02  8.33818E+03  5.52017E+03  1.85275E+03  7.82744E+03 -5.38748E+03  7.95500E+03
 -7.31241E+03  2.84824E+03 -3.68987E+03 -7.41131E+02  5.88908E+02 -1.90360E+03  4.30788E+03 -1.07838E+03
  3.75159E+03  3.37033E+03  7.27209E+02  5.99129E+03 -3.97572E+03  6.20747E+03 -7.38959E+03  8.99081E+02
 -4.16396E+03 -2.75759E+03  5.43351E+02 -6.56101E+03  3.74920E+03 -2.53591E+03  3.06632E+03  8.95048E+02
  1.68360E+02  2.94242E+03 -3.80095E+03  4.05922E+03 -4.36718E+03  2.58123E+03 -3.41669E+03 -8.04770E+02
 -2.54083E+03 -5.76339E+03  9.01835E+02 -6.18716E+03  4.88146E+03 -3.98521E+03  5.82615E+03  6.81621E+02
  3.81297E+03  4.55336E+03  2.00488E+02  6.59594E+03 -4.57736E+03  3.99906E+03 -4.48409E+03 -4.35644E+01
 -5.25771E+03 -4.79016E+03 -1.19689E+03 -4.58431E+03  2.02850E+03 -4.54855E+03  2.43935E+03 -3.43747E+03
  2.60484E+03 -3.72338E+02  4.56083E+02  9.71460E+02  7.52501E+02  1.92120E+02  5.49574E+02 -9.59273E+02
  3.72863E+03 -6.25112E+02  4.44514E+03  6.54390E+02  4.76309E+03  2.09970E+03  4.85934E+03  6.26429E+03
 -9.39723E+02  7.31480E+03 -6.53584E+03  5.99273E+03 -8.62694E+03  1.25598E+03 -6.84264E+03 -2.00246E+03
 -4.01779E+03 -5.35734E+03 -4.63214E+02 -4.55093E+03  1.49427E+03 -1.44574E+03  1.34810E+03 -2.14274E+03
  6.41229E+02 -1.61695E+03  1.62136E+03 -2.62390E+03  3.31102E+03 -1.13606E+03  3.49650E+03  4.65565E+02
  3.89371E+03  1.04810E+03  9.32535E+02  2.54579E+03 -1.57996E+03  1.82851E+03 -3.91387E+03  2.01745E+03
 -4.32453E+03 -1.04656E+03 -1.30448E+03 -2.43908E+03  8.51208E+02 -4.17179E+03  2.65572E+03 -4.55799E+03
  3.85442E+03 -2.35403E+03  5.55379E+03  7.39606E+00  4.25630E+03  3.67672E+03  5.12680E+02  5.22694E+03
 -2.07194E+03  4.89293E+03 -2.98797E+03  1.62696E+03 -1.18643E+03 -5.62368E+02 -5.93001E+02 -7.12804E+02
 -5.08454E+02  6.02997E+02 -6.46971E+02  2.05217E+03 -1.76424E+03  1.49796E+03 -3.92930E+03 -2.79227E+02
 -1.87503E+03 -3.66519E+03  8.62164E+02 -4.33597E+03  2.39687E+03 -3.22211E+03  3.04748E+03 -9.80620E+02
  3.41455E+03  2.14706E+03  2.02006E+03  2.37898E+03 -8.90663E+02  3.97062E+03 -2.32116E+03  2.03219E+03
 -3.08645E+03  4.03622E+02 -3.31506E+03 -2.08416E+03  2.64389E+02 -3.00544E+03  1.35761E+03 -2.14722E+03
  2.51902E+03 -1.18648E+03  1.19667E+03 -1.21360E+02  6.28552E+02  7.49134E+02  7.07938E+02  5.57840E+02
  1.39670E+03  4.73792E+02  1.02079E+03  1.26584E+03  1.02501E+03  2.30099E+03  1.07767E+03  1.22467E+03
 -8.51705E+02  2.39926E+03 -1.95245E+03  4.19593E+03 -2.34812E+03  9.08159E+02 -3.16615E+03  2.26141E+02
 -1.46243E+03 -2.91058E+03  5.72400E+02 -3.42043E+03  1.64279E+03 -2.10365E+03  1.91798E+03 -9.83832E+02
  2.08908E+03  1.59493E+03  5.14965E+02  1.32462E+03 -1.64158E+02  6.50436E+02 -8.58729E+02 -2.92474E+02
 -4.11545E+02 -1.26235E+03  3.56871E+02 -5.83631E+02  1.22015E+03 -8.40506E+02  1.11602E+03  7.04713E+02
  7.14268E+02  2.16332E+02  5.67580E+02  4.01737E+02 -2.01107E+02  6.37496E+02  1.28536E+03  2.05920E+02
  4.72205E+01 -4.44775E+02  1.57825E+03  3.70721E+02 -9.74883E+01  2.15503E+03 -2.53047E+02  2.75779E+03
 -1.53315E+03  6.81623E+02 -9.41718E+02  9.83840E+01 -1.83650E+03 -7.61750E+02 -3.44876E+01 -5.53901E+02
  2.09905E+02 -7.99842E+02  6.34411E+02 -9.53129E+02  2.53338E+02  9.24930E+02 -2.73640E+02  8.66990E+02
 -9.48384E+02  1.09164E+03 -4.75022E+02 -5.56923E+02 -3.13881E+02 -2.39710E+03  4.02030E+02 -1.44336E+03
 -7.77047E+01 -2.18856E+02  7.40290E+02  9.20865E+00  1.37859E+03 -4.33571E+02 -1.41249E+02  7.11810E+02
 -2.85660E+02  4.37475E+02 -5.00255E+02  1.05978E+02  5.75387E+02 -7.18185E+02  1.41463E+03 -2.79342E+02
  1.41235E+03  5.20179E+02  2.02299E+03 -2.69995E+01  9.72289E+02  1.23306E+03 -1.79191E+02  1.14890E+03
 -1.04631E+03 -2.40038E+02 -9.92107E+02 -1.93764E+02 -4.90109E+02 -6.06597E+02  2.31969E+01  4.21629E+02
  1.19955E+03 -2.56112E+02  9.76355E+01  4.01860E+02  1.01074E+02  3.59754E+02  6.57129E+02  1.85966E+02
 -1.75335E+02  1.26593E+03 -7.22153E+02  8.05910E+01  8.32084E+01  5.26822E+02 -1.04624E+03  7.94411E+02
 -3.55936E+02  9.64948E+02 -1.94998E+03  5.08056E+02 -7.26372E+02 -1.48438E+02 -1.88195E+03 -3.82916E+02
 -9.63015E+02 -1.41541E+03  6.71127E+02 -2.31502E+03  4.65168E+02 -2.20839E+03  2.31521E+03 -1.10450E+03
  1.99502E+03 -1.25459E+02  7.83684E+02  3.67039E+02 -3.47394E+02  8.87235E+02 -4.60809E+02  7.46340E+02
 -9.69957E+02  7.10366E+02 -2.33471E+02 -1.27740E+02 -7.16673E+02  6.66886E+02 -3.47702E+02  5.94260E+02
 -1.13351E+03 -3.01412E+02 -1.00231E+03  2.73389E+02  4.95783E+02 -5.96917E+02 -4.81183E+02 -5.00163E+02
  9.17243E+02 -2.27523E+02 -3.26717E+02 -7.93322E+01  3.99204E+02  1.18097E+03 -1.04459E+03  7.99411E+02
 -9.78936E+02  1.50179E+03 -1.12202E+03  1.27154E+03 -1.34877E+03 -2.52951E+02 -5.94676E+02 -1.00579E+03
 -1.37928E+02 -8.80819E+02 -2.25191E+02 -8.61107E+02  7.51179E+02  1.23053E+02  1.56529E+02  8.19772E+01
  4.69258E+02  1.32899E+02 -3.91487E+02  4.31755E+02 -4.31728E+02 -2.66967E+02 -2.48068E+02 -3.43899E+02
  6.00187E+02  7.00324E+02  1.15942E+02  7.72563E+02  3.68370E+02  3.15171E+02  4.64761E+02 -9.47793E+01
 -7.94666E+02  6.48418E+02 -1.85594E+02  1.62150E+02 -9.91681E+01 -2.38804E+02  3.09536E+01 -5.58442E+02
  9.21712E+01 -5.35845E+02  1.01942E+02 -1.93496E+02  6.96355E+02 -6.66454E+02  4.09416E+02  2.95452E+02
  4.89598E+02  2.39149E+02  2.89002E+02 -4.57622E+02 -5.56476E+02  4.79860E+02 -1.08065E+03  5.28342E+02
 -4.51978E+02 -4.72684E+02  2.11776E+02 -9.45595E+00 -5.10686E+02  2.65924E+02 -3.97305E+02 -2.49524E+02
 -5.30445E+02  4.43765E+02 -5.75661E+02 -5.36319E+02  3.55391E+02 -9.58537E+02  4.45237E+02  9.94372E+01
  1.19291E+02  1.14407E+02 -7.65079E+02 -3.65749E+02  2.74171E+02  3.21481E+02  8.29199E+01  1.49474E+02
