 $NMID ID='MM_0lb_SNR400_9hz_g50_49.RAW', FMTDAT='(8E13.5)'
 TRAMP=1., VOLUME=1. $END
  3.09611E+05  4.52315E+02  3.37220E+05  2.50788E+05  8.53555E+04  3.38241E+05 -1.32787E+05  2.51422E+05
 -1.90218E+05  8.34020E+04 -1.13127E+05 -3.28060E+04  1.38847E+02 -5.04950E+04  5.32128E+04 -1.07114E+03
  3.50055E+04  5.34458E+04 -1.62978E+04  7.66225E+04 -6.17299E+04  6.47473E+04 -8.55646E+04  3.22140E+04
 -8.19913E+04 -1.09824E+04 -5.81793E+04 -5.17389E+04 -1.46180E+04 -7.02228E+04  2.74156E+04 -4.71598E+04
  4.07752E+04  4.10854E+03  1.59281E+04  4.88536E+04 -3.46506E+04  4.81570E+04 -6.75232E+04  7.72668E+02
 -5.52364E+04 -5.76184E+04 -7.61750E+03 -7.80981E+04  3.54353E+04 -5.65323E+04  4.97616E+04 -1.81943E+04
  4.50208E+04  1.17447E+04  3.28384E+04  2.70936E+04  1.62839E+04  3.04488E+04 -6.04499E+03  2.76771E+04
 -2.27247E+04  1.20643E+04 -1.76181E+04 -6.57727E+03  6.92349E+03 -7.52999E+03  2.39557E+04  1.38699E+04
  7.21228E+03  3.78377E+04 -3.37901E+04  3.69080E+04 -6.59223E+04  2.31279E+03 -5.88494E+04 -4.54441E+04
 -1.30553E+04 -6.56638E+04  4.19839E+04 -4.84645E+04  6.14101E+04 -3.34567E+03  3.65752E+04  3.43002E+04
 -6.43854E+03  3.93632E+04 -3.19444E+04  1.85883E+04 -3.26269E+04 -2.83631E+03 -1.97650E+04 -1.17760E+04
 -9.06624E+03 -1.52911E+04 -6.68672E+02 -1.94358E+04  8.41501E+03 -2.38027E+04  1.54325E+04 -1.27133E+04
  1.04462E+04  5.58908E+03 -9.60653E+03  1.28247E+04 -2.31710E+04 -7.05335E+03 -8.77172E+03 -3.75369E+04
  2.53907E+04 -4.67519E+04  5.22486E+04 -2.06792E+04  4.73030E+04  2.13296E+04  1.77592E+04  4.76840E+04
 -1.71735E+04  3.57636E+04 -2.76056E+04  1.98587E+03 -1.21982E+04 -2.94517E+04  2.15032E+04 -3.64705E+04
  4.50089E+04 -1.02651E+04  3.97801E+04  2.56331E+04  2.13073E+04  5.11045E+04 -8.34482E+03  5.56048E+04
 -3.50298E+04  3.86135E+04 -4.73677E+04  1.08557E+04 -4.84717E+04 -1.86595E+04 -2.60378E+04 -4.19005E+04
  7.74970E+03 -4.18209E+04  3.42170E+04 -1.72868E+04  3.14984E+04  1.11096E+04  4.62150E+03  2.13073E+04
 -1.40492E+04  9.20491E+03 -1.12290E+04 -7.68013E+03  5.87125E+03 -1.16909E+04  1.84595E+04  5.96444E+03
  1.47783E+04  2.30740E+04 -5.14564E+03  2.75739E+04 -2.30736E+04  1.48836E+04 -3.07767E+04 -3.28698E+03
 -2.54786E+04 -1.84467E+04 -1.06973E+04 -2.50535E+04  4.65321E+03 -2.55111E+04  1.96579E+04 -2.29497E+04
  3.19949E+04 -1.36841E+04  3.76024E+04  5.43514E+03  2.71488E+04  2.36543E+04  3.81532E+03  4.04943E+04
 -1.88545E+04  3.31457E+04 -3.05561E+04  1.20312E+04 -2.21189E+04 -1.01198E+04 -4.98824E+03 -1.31517E+04
  7.48501E+02 -8.79890E+02 -8.14402E+03  8.09665E+03 -2.00448E+04  4.80540E+03 -1.99259E+04 -9.89875E+03
 -1.15343E+04 -2.32546E+04  5.93115E+03 -2.78233E+04  1.87234E+04 -1.98212E+04  2.30405E+04 -1.27645E+03
  1.47738E+04  1.68470E+04 -1.23535E+03  2.30510E+04 -1.66149E+04  1.36870E+04 -2.26730E+04 -5.39496E+03
 -1.64331E+04 -2.09220E+04 -1.11544E+03 -2.75586E+04  1.27695E+04 -2.39883E+04  2.26602E+04 -1.23871E+04
  2.21524E+04 -6.32149E+01  1.62120E+04  5.04637E+03  9.27526E+03  1.46579E+03  1.28652E+04 -1.80539E+03
  2.19672E+04  2.99999E+03  2.60818E+04  1.82062E+04  1.70420E+04  3.71668E+04 -2.42665E+03  4.44540E+04
 -2.54325E+04  3.68779E+04 -4.15491E+04  1.89657E+04 -4.51379E+04 -4.07124E+03 -3.61702E+04 -2.58410E+04
 -1.44850E+04 -3.66739E+04  1.34252E+04 -3.25018E+04  2.87116E+04 -1.50837E+04  2.39823E+04  8.28073E+03
  8.15055E+03  1.86995E+04 -1.17506E+04  1.52040E+04 -2.02121E+04  3.00390E+03 -1.46923E+04 -1.25690E+04
 -2.26129E+02 -1.91127E+04  1.07739E+04 -1.42373E+04  1.30616E+04 -1.68561E+03  3.26796E+03  9.53261E+03
 -8.27139E+03  3.69556E+03 -8.93362E+03 -6.37823E+03 -1.93347E+03 -1.82389E+04  1.16154E+04 -1.94914E+04
  2.26154E+04 -1.03704E+04  2.68847E+04  3.63527E+03  2.16968E+04  1.81493E+04  1.04462E+04  2.87383E+04
 -5.97772E+03  3.19295E+04 -2.03510E+04  1.85879E+04 -2.28982E+04  3.86502E+03 -1.47405E+04 -5.98447E+03
 -5.97248E+03 -8.06795E+03 -1.36291E+03  4.68013E+02 -2.35976E+03  3.40794E+03 -7.56816E+03  5.63109E+03
 -1.40521E+04 -1.52992E+03 -1.39146E+04 -1.24620E+04 -5.28963E+03 -2.00346E+04  6.29030E+03 -1.60069E+04
  1.38493E+04 -5.73871E+03  9.20626E+03  3.97688E+03 -1.28579E+02  5.52648E+03 -7.63279E+03  4.11467E+02
 -6.68186E+03 -1.01202E+04 -9.04058E+02 -1.52289E+04  8.72025E+03 -1.67390E+04  2.03484E+04 -8.97364E+03
  2.31693E+04  1.95294E+03  1.70333E+04  1.41460E+04  3.52213E+03  1.89781E+04 -9.25576E+03  1.55138E+04
 -1.28494E+04  4.90747E+03 -5.92196E+03 -2.97973E+03  2.26333E+03 -4.79008E+03  7.94378E+03 -1.03352E+03
  7.48930E+03  7.06424E+03  1.54237E+03  1.29668E+04 -8.71130E+03  1.16009E+04 -1.60228E+04  2.80319E+03
 -1.08505E+04 -8.66462E+03  3.82003E+02 -1.29789E+04  9.29108E+03 -6.92960E+03  9.47752E+03  3.98116E+03
  2.54429E+03  1.01759E+04 -8.11608E+03  1.17016E+04 -1.35955E+04  5.90690E+03 -1.36894E+04 -5.06534E+03
 -7.63348E+03 -1.55919E+04  4.73385E+03 -1.80038E+04  1.54570E+04 -1.12618E+04  1.65187E+04  3.39799E+03
  9.42288E+03  1.30317E+04 -1.80460E+03  1.64510E+04 -1.13116E+04  8.68504E+03 -1.28641E+04 -1.05391E+03
 -1.09684E+04 -1.07708E+04 -1.62748E+03 -1.21029E+04  6.13517E+03 -8.88978E+03  7.34045E+03 -3.21109E+03
  4.44692E+03  1.45070E+03 -1.32201E+03  1.49500E+03 -5.24251E+02 -3.44460E+03  3.26620E+03 -7.62656E+03
  1.09808E+04 -5.11077E+03  1.68463E+04  2.67905E+03  1.53766E+04  1.11469E+04  1.09249E+04  2.10864E+04
 -4.75048E+03  2.37377E+04 -2.01169E+04  1.68061E+04 -2.57466E+04  2.66046E+03 -2.10176E+04 -9.29100E+03
 -1.01875E+04 -1.65302E+04 -7.21462E+02 -1.52192E+04  5.45398E+03 -8.45033E+03  5.63917E+03 -5.29071E+03
  3.21700E+03 -2.18690E+03  3.82917E+03 -3.63707E+03  5.99280E+03 -3.30064E+03  8.27043E+03 -1.69439E+03
  1.10074E+04  2.15030E+03  5.51975E+03  9.30093E+03 -2.00841E+03  1.23768E+04 -1.18868E+04  8.57188E+03
 -1.53835E+04 -1.28114E+03 -9.18968E+03 -1.06964E+04 -1.55733E+03 -1.61493E+04  8.32803E+03 -1.63472E+04
  1.63462E+04 -8.69145E+03  1.99430E+04  3.42848E+03  1.38685E+04  1.37954E+04  1.61891E+03  1.80591E+04
 -7.42544E+03  1.43816E+04 -1.00148E+04  5.00390E+03 -6.74150E+03 -1.66820E+03 -2.76621E+03 -1.66676E+03
 -1.57640E+03  4.79629E+02 -2.26439E+03  3.33256E+03 -6.18436E+03  2.70136E+03 -9.51719E+03 -5.40525E+02
 -6.75537E+03 -1.03599E+04 -2.36767E+02 -1.39807E+04  8.87313E+03 -1.32911E+04  1.50226E+04 -4.51217E+03
  1.40894E+04  7.38387E+03  6.44817E+03  1.33006E+04 -3.72001E+03  1.44147E+04 -1.06989E+04  9.16879E+03
 -1.35171E+04 -5.50126E+02 -1.18619E+04 -9.06256E+03 -1.64978E+03 -1.21707E+04  7.38079E+03 -9.29308E+03
  8.86771E+03 -3.26841E+03  5.87582E+03  2.55708E+03  2.79912E+03  3.63578E+03  1.54932E+03  2.57138E+03
  3.14025E+03  1.05840E+03  3.52134E+03  1.94676E+03  4.26937E+03  5.24172E+03  3.66290E+03  7.75922E+03
 -2.78749E+03  1.11782E+04 -1.03704E+04  1.13741E+04 -1.56413E+04  3.39501E+03 -1.57101E+04 -6.41827E+03
 -7.28699E+03 -1.58574E+04  2.64109E+03 -1.61911E+04  9.16679E+03 -9.94249E+03  1.15806E+04 -2.83536E+03
  1.05300E+04  6.38757E+03  2.11775E+03  8.37655E+03 -4.29476E+03  6.29659E+03 -6.11257E+03 -1.63333E+03
 -2.63325E+03 -6.56305E+03  3.68231E+03 -6.99620E+03  6.58835E+03 -4.05077E+03  5.80590E+03  1.51065E+03
  3.38036E+03  3.10162E+03  9.66918E+02  1.46346E+03 -1.28429E+03  2.35112E+03  2.10324E+03 -5.74881E+02
  2.14303E+03 -1.21448E+03  5.30659E+03  1.96719E+03  5.01093E+03  8.14172E+03 -1.78800E+03  1.10070E+04
 -7.94237E+03  6.90628E+03 -9.66062E+03  1.44385E+03 -8.76726E+03 -3.47495E+03 -3.26266E+03 -5.85584E+03
  6.40537E+02 -5.48236E+03  3.46334E+03 -2.55139E+03  3.28041E+03  2.95890E+03 -2.12882E+03  4.28881E+03
 -6.40271E+03  3.17346E+03 -7.27575E+03 -4.53243E+03 -4.05699E+03 -8.95488E+03  1.95474E+03 -8.47718E+03
  5.13527E+03 -5.20906E+03  6.98042E+03 -6.36828E+02  4.80066E+03  1.46708E+03  7.50357E+02  3.80906E+03
 -3.39832E+03  1.65639E+03 -3.83711E+03 -3.54502E+03  1.51179E+03 -6.91409E+03  7.52402E+03 -5.43678E+03
  9.81038E+03  7.32977E+02  9.68212E+03  6.37909E+03  3.17561E+03  9.87816E+03 -3.69021E+03  9.53727E+03
 -8.06946E+03  4.96761E+03 -8.07077E+03 -2.07204E+03 -4.83829E+03 -5.78361E+03  1.99421E+03 -5.88161E+03
  6.89388E+03 -3.32884E+03  5.39508E+03  2.47602E+03  1.62966E+03  4.86022E+03 -6.15429E+02  5.43958E+03
 -2.60226E+03  2.66104E+03 -1.95945E+03  1.43556E+03 -1.00247E+03  1.62503E+03 -1.70954E+03  1.40792E+03
 -2.64601E+03  4.32920E+03 -6.75397E+03  3.76076E+03 -9.78520E+03  1.95823E+02 -1.13030E+04 -6.61838E+03
 -5.82933E+03 -1.31180E+04  2.19938E+03 -1.62475E+04  9.59139E+03 -1.08739E+04  1.49796E+04 -5.21296E+03
  1.36986E+04  2.35131E+03  7.61086E+03  9.21845E+03  5.58108E+02  1.14136E+04 -4.44713E+03  8.23314E+03
 -6.30727E+03  3.26685E+03 -3.88762E+03 -1.53644E+03 -1.74381E+03 -1.02854E+03 -9.94605E+02  4.66004E+02
 -1.75776E+03 -6.65918E+01 -2.20348E+03  2.29669E+02 -9.64834E+02 -3.25118E+03 -4.50621E+02 -3.36796E+03
  4.94072E+03 -3.77205E+03  6.20317E+03  1.67022E+02  7.33870E+03  6.02501E+03  2.07719E+03  1.01072E+04
 -4.64253E+03  1.15335E+04 -1.10855E+04  6.73607E+03 -1.27654E+04 -9.46006E+02 -9.18460E+03 -8.06006E+03
 -3.76827E+03 -1.09332E+04  3.31493E+03 -1.02308E+04  6.62995E+03 -5.02108E+03  7.61487E+03  5.80778E+02
  3.74760E+03  3.33483E+03 -4.40736E+02  3.18678E+03 -1.72054E+03 -1.33966E+03  1.76321E+02 -2.92954E+03
  2.36961E+03 -2.18014E+03  4.09526E+03  1.54899E+03  3.38569E+03  4.27942E+03  3.17485E+02  5.59381E+03
 -5.19096E+03  4.96420E+03 -7.13782E+03 -2.77826E+02 -6.96927E+03 -4.82732E+03 -1.99583E+03 -8.57380E+03
  4.65242E+03 -6.82167E+03  8.15930E+03 -2.65411E+03  8.62750E+03  2.50522E+03  4.88923E+03  6.30372E+03
  1.03922E+03  7.21426E+03 -2.56326E+03  5.75237E+03 -4.65737E+03  3.47605E+03 -3.61790E+03  7.73688E+02
 -1.97895E+03  4.52750E+02 -2.22664E+03  6.93352E+02 -3.50704E+03  1.56108E+03 -4.58312E+03 -9.56375E+02
 -5.23126E+03 -3.13809E+03 -1.32129E+03 -6.41104E+03  2.59551E+03 -7.27857E+03  5.81092E+03 -4.32720E+03
  6.38889E+03  6.73152E+02  3.66595E+03  4.92338E+03 -6.96940E+02  6.94108E+03 -5.79182E+03  4.95682E+03
