 $NMID ID='MM_0lb_SNR400_17hz_g40_95.RAW', FMTDAT='(8E13.5)'
 TRAMP=1., VOLUME=1. $END
  3.09953E+05  1.03786E+02  3.37729E+05  2.50068E+05  8.45551E+04  3.36878E+05 -1.32976E+05  2.50471E+05
 -1.89783E+05  8.29476E+04 -1.10692E+05 -3.28579E+04  1.37449E+03 -5.00802E+04  5.37217E+04 -3.85852E+01
  3.47606E+04  5.26427E+04 -1.74474E+04  7.56388E+04 -5.98740E+04  6.26180E+04 -8.34528E+04  3.16099E+04
 -7.98263E+04 -1.08758E+04 -5.67482E+04 -5.02793E+04 -1.49067E+04 -6.85710E+04  2.68228E+04 -4.54494E+04
  3.93392E+04  4.11676E+03  1.53694E+04  4.71040E+04 -3.41234E+04  4.62776E+04 -6.56235E+04 -4.26867E+02
 -5.19825E+04 -5.59843E+04 -6.67617E+03 -7.57310E+04  3.35703E+04 -5.32759E+04  4.67924E+04 -1.65047E+04
  4.11680E+04  1.06420E+04  3.06763E+04  2.43264E+04  1.60352E+04  2.82964E+04 -4.62819E+03  2.67422E+04
 -2.15537E+04  1.29344E+04 -1.91728E+04 -4.47620E+03  4.40419E+03 -6.83864E+03  2.11449E+04  1.10081E+04
  7.23133E+03  3.34390E+04 -3.08786E+04  3.43529E+04 -6.10990E+04  2.55904E+03 -5.59016E+04 -4.11196E+04
 -1.26561E+04 -6.15464E+04  3.83920E+04 -4.30691E+04  5.57848E+04 -2.14366E+03  3.24007E+04  3.13635E+04
 -6.57430E+03  3.34151E+04 -2.80561E+04  1.34649E+04 -2.76659E+04 -5.56264E+03 -1.43885E+04 -1.04183E+04
 -7.19066E+03 -1.14534E+04 -8.51115E+02 -1.72274E+04  6.70961E+03 -2.26751E+04  1.47531E+04 -1.36365E+04
  1.17139E+04  4.94449E+03 -6.91392E+03  1.30454E+04 -1.96578E+04 -2.65781E+03 -8.10119E+03 -3.09702E+04
  2.05188E+04 -4.03035E+04  4.48852E+04 -1.85828E+04  4.18265E+04  1.85833E+04  1.45000E+04  4.23170E+04
 -1.48974E+04  3.12575E+04 -2.40360E+04  8.67295E+02 -8.06796E+03 -2.65607E+04  2.05362E+04 -3.12566E+04
  3.86710E+04 -7.77138E+03  3.16375E+04  2.31971E+04  1.58686E+04  4.26230E+04 -7.79461E+03  4.56802E+04
 -2.87401E+04  3.03193E+04 -3.77363E+04  8.65098E+03 -3.92745E+04 -1.57198E+04 -2.13413E+04 -3.52835E+04
  6.89415E+03 -3.45033E+04  2.94693E+04 -1.27737E+04  2.72024E+04  1.05749E+04  3.29337E+03  1.82855E+04
 -1.34494E+04  7.72433E+03 -9.91247E+03 -7.96411E+03  5.84253E+03 -1.01219E+04  1.70494E+04  6.50686E+03
  1.26070E+04  2.14668E+04 -6.34076E+03  2.33030E+04 -2.14500E+04  9.41145E+03 -2.55229E+04 -5.98506E+03
 -1.74085E+04 -1.62149E+04 -5.66864E+03 -1.71079E+04  4.63712E+03 -1.55561E+04  1.29091E+04 -1.49539E+04
  2.19421E+04 -1.13883E+04  2.82962E+04  1.50566E+03  2.17039E+04  1.73383E+04  3.90271E+03  3.28577E+04
 -1.64196E+04  2.82022E+04 -2.59536E+04  1.00434E+04 -1.99632E+04 -9.87385E+03 -4.56802E+03 -1.38626E+04
  2.50814E+03 -3.51405E+03 -3.04521E+03  5.20060E+03 -1.35919E+04  5.16925E+03 -1.38666E+04 -4.89882E+03
 -8.49794E+03 -1.55045E+04  4.49550E+03 -1.96140E+04  1.32731E+04 -1.35786E+04  1.49843E+04 -1.49406E+03
  9.21865E+03  1.11186E+04 -7.64441E+02  1.65901E+04 -1.09550E+04  8.79712E+03 -1.66344E+04 -3.65697E+03
 -1.18641E+04 -1.43977E+04 -1.85069E+03 -1.90885E+04  9.11357E+03 -1.59353E+04  1.64473E+04 -7.28461E+03
  1.51649E+04  7.37079E+02  1.06970E+04  3.43868E+03  5.56548E+03  2.38985E+02  8.33717E+03 -1.59037E+03
  1.45237E+04  2.73419E+03  1.56402E+04  1.28702E+04  9.52651E+03  2.54630E+04 -2.63619E+03  2.79719E+04
 -1.64348E+04  2.20620E+04 -2.56931E+04  1.00732E+04 -2.63941E+04 -1.66487E+03 -2.21378E+04 -1.47574E+04
 -1.05615E+04 -2.13819E+04  7.02120E+03 -1.94868E+04  1.70004E+04 -1.10918E+04  1.64898E+04  4.19221E+03
  6.75288E+03  1.22782E+04 -7.02679E+03  1.04480E+04 -1.36851E+04  2.35213E+03 -1.05396E+04 -8.32372E+03
 -2.93992E+02 -1.28013E+04  6.87225E+03 -9.61138E+03  8.84141E+03 -1.49995E+03  1.29780E+03  5.39607E+03
 -6.27170E+03  1.82736E+03 -3.91810E+03 -4.45391E+03  8.11982E+02 -1.03968E+04  8.18094E+03 -1.02925E+04
  1.35251E+04 -5.42777E+03  1.25803E+04  2.80489E+03  1.12402E+04  1.02295E+04  5.35223E+03  1.51096E+04
 -1.60529E+03  1.67427E+04 -1.01287E+04  1.10767E+04 -1.19274E+04  2.96407E+03 -8.54193E+03 -2.38211E+03
 -4.55402E+03 -3.84598E+03 -8.23812E+02  1.23608E+03 -1.92837E+03  2.02403E+03 -3.56067E+03  3.34812E+03
 -8.79193E+03 -1.26924E+02 -8.76252E+03 -7.22308E+03 -3.98563E+03 -1.23480E+04  3.27824E+03 -8.78902E+03
  7.32175E+03 -4.68868E+03  5.60739E+03  2.14859E+03  4.30334E+02  3.29306E+03 -3.71745E+03 -3.48466E+02
 -3.39097E+03 -5.56528E+03 -6.74998E+02 -8.08926E+03  4.23070E+03 -8.41978E+03  9.41353E+03 -4.19369E+03
  1.24722E+04  8.42559E+02  9.48986E+03  6.76504E+03  1.76760E+03  9.61928E+03 -5.53074E+03  8.83593E+03
 -7.47641E+03  3.19097E+03 -3.68162E+03 -1.75671E+03  1.46826E+03 -1.81963E+03  4.95139E+03 -7.40771E+02
  3.89808E+03  3.70471E+03  1.08713E+03  7.03896E+03 -4.93965E+03  6.58969E+03 -8.89230E+03  2.37987E+03
 -5.51444E+03 -4.11244E+03 -1.83411E+02 -7.35349E+03  3.98344E+03 -4.19035E+03  3.76106E+03  1.08209E+03
  7.24311E+02  4.02834E+03 -4.21033E+03  5.12515E+03 -5.35733E+03  2.35331E+03 -5.53730E+03 -1.13279E+03
 -2.91854E+03 -6.58110E+03  1.35520E+03 -7.87257E+03  6.04681E+03 -5.06142E+03  7.18360E+03  1.30440E+03
  4.59561E+03  5.29469E+03  2.00224E+02  7.98911E+03 -5.23812E+03  4.28382E+03 -5.65069E+03 -8.75867E-01
 -6.48706E+03 -5.41713E+03 -1.40468E+03 -5.18039E+03  2.84742E+03 -5.48201E+03  3.05263E+03 -2.78536E+03
  2.64010E+03 -7.94350E+01  3.33054E+02  1.58741E+03  1.43701E+02 -1.02892E+02  3.26299E+02 -1.83098E+03
  4.17072E+03 -8.96980E+02  5.67343E+03  1.23416E+03  6.01104E+03  3.76401E+03  6.06297E+03  8.48265E+03
 -1.59699E+03  9.77006E+03 -8.74617E+03  7.77766E+03 -1.11851E+04  1.54926E+03 -8.51676E+03 -3.23832E+03
 -5.10748E+03 -7.23145E+03 -9.10321E+02 -5.98193E+03  2.51814E+03 -2.64278E+03  1.68807E+03 -2.31423E+03
  1.72880E+03 -2.12102E+03  2.61812E+03 -2.11503E+03  3.76629E+03 -1.61853E+03  3.67370E+03  6.62375E+01
  5.25648E+03  8.93971E+02  1.66948E+03  3.74168E+03 -1.70094E+03  3.82476E+03 -4.53689E+03  2.43781E+03
 -5.13306E+03 -7.58165E+02 -2.66080E+03 -3.52983E+03  3.72941E+02 -6.33568E+03  3.37643E+03 -5.89329E+03
  6.35061E+03 -3.26178E+03  7.73046E+03  8.54806E+02  5.63438E+03  5.36199E+03  1.42206E+03  7.10719E+03
 -2.32486E+03  6.78759E+03 -3.66308E+03  3.08113E+03 -2.23578E+03 -1.01649E+03 -6.95666E+02 -7.30845E+02
 -7.69335E+02  6.76265E+02 -1.12523E+03  1.84373E+03 -2.51050E+03  1.11789E+03 -4.82652E+03 -3.78485E+01
 -2.10153E+03 -4.07587E+03  6.72084E+02 -5.35456E+03  3.37844E+03 -5.18452E+03  4.16064E+03 -1.06985E+03
  4.24798E+03  2.86558E+03  1.90343E+03  3.93640E+03 -7.74298E+02  4.78006E+03 -2.67058E+03  2.75412E+03
 -4.37986E+03  4.87189E+02 -3.58797E+03 -2.67505E+03 -1.18537E+02 -4.16194E+03  2.23221E+03 -3.57391E+03
  3.64110E+03 -1.50270E+03  2.50046E+03  5.51711E+02  2.96728E+02  1.88309E+03  5.58523E+02  4.34613E+02
  1.55260E+03  5.37477E+02  1.33833E+03  8.67633E+02  1.66089E+03  2.50660E+03  1.46866E+03  2.19518E+03
 -1.67555E+03  3.50712E+03 -3.17757E+03  4.77208E+03 -3.40529E+03  1.26894E+03 -4.76255E+03 -9.45438E+02
 -2.02003E+03 -4.53828E+03  1.03857E+03 -5.46344E+03  2.72244E+03 -3.12701E+03  3.84638E+03 -1.05265E+03
  3.03738E+03  2.26672E+03  5.85824E+02  3.37267E+03 -7.93411E+02  1.49992E+03 -1.39426E+03  2.83872E+02
 -3.59014E+02 -1.72117E+03  1.36425E+03 -2.13937E+03  1.66273E+03 -9.76553E+02  1.57910E+03  3.47933E+02
  8.24018E+02  4.35264E+02  1.38763E+03  6.03315E+01 -1.17073E+02  8.63603E+02  1.19572E+03 -2.61284E+02
  2.78038E+02 -4.36234E+02  1.63907E+03  5.79678E+02  1.17296E+03  3.23576E+03 -3.72928E+02  3.82465E+03
 -1.69431E+03  1.56297E+03 -2.61228E+03  7.15514E+02 -2.49784E+03 -1.25951E+03 -5.46310E+02 -8.43832E+02
  5.91091E+02 -1.05904E+03  5.48108E+02 -1.03317E+03  9.92969E+02  1.66723E+03 -3.59600E+02  1.37231E+03
 -2.06408E+03  8.61556E+02 -1.63557E+03 -1.28161E+03 -9.94462E+02 -2.56876E+03  2.56722E+02 -1.95048E+03
  8.18093E+02 -9.15229E+02  1.33327E+03  1.14583E+02  1.26576E+03 -1.20910E+01  3.66000E+02  8.32939E+02
 -1.84846E+02  1.03142E+02 -9.51024E+02  3.45386E+01  2.07674E+02 -9.61286E+02  2.16484E+03 -1.42362E+03
  1.97957E+03 -1.08904E+02  3.20911E+03  1.14905E+03  1.40055E+03  2.06071E+03 -3.26840E+02  2.39524E+03
 -1.92338E+03  1.32849E+03 -1.70508E+03  1.04469E+02 -1.07795E+03 -1.91347E+03  2.14953E+02 -1.70445E+03
  1.57989E+03 -6.86787E+02  1.18470E+03  6.22608E+02 -1.39465E+02  1.27172E+03  5.42408E+02  1.76340E+03
 -3.48801E+02  1.82665E+03 -5.76018E+02  5.60444E+02  2.98101E+02  2.27534E+02 -3.54497E+02  1.17136E+03
 -6.31396E+02  1.34959E+03 -2.08448E+03  1.04147E+03 -1.99349E+03  4.94090E+01 -2.90332E+03 -1.36002E+03
 -1.13867E+03 -3.43512E+03  3.27987E+02 -3.09569E+03  1.12666E+03 -2.85955E+03  3.39633E+03 -9.69228E+02
  3.34535E+03  3.93837E+02  1.65038E+03  1.85822E+03 -4.05070E+02  2.00221E+03 -8.57958E+02  1.43130E+03
 -8.95977E+02  1.01513E+03 -8.94635E+02 -5.28341E+02 -8.44643E+02  3.04531E+02 -3.34640E+02 -5.57718E+02
 -7.52963E+02 -6.29258E+02 -1.67921E+02 -1.03015E+01  5.62407E+02 -6.32174E+02 -3.30983E+02 -1.35881E+03
  1.48033E+03 -8.80489E+02  1.01286E+03  3.64361E+02  1.81978E+03  1.16113E+03 -3.42782E+01  2.28779E+03
 -1.75425E+03  3.03114E+03 -2.32728E+03  1.90490E+03 -2.29284E+03 -3.20065E+02 -1.92387E+03 -1.67424E+03
 -1.22046E+03 -1.83209E+03  2.09609E+02 -1.16604E+03  2.28312E+02 -1.23450E+03  5.25577E+02 -7.90015E+01
  1.08592E+03  7.96818E+02  1.50183E+01  9.35927E+02 -3.62357E+02  3.20895E+02  2.40626E+02 -9.59491E+01
  3.95520E+02  3.74394E+02  1.81936E+02  3.43019E+02  4.96341E+02  5.35386E+02  6.25250E+02  7.30426E+02
 -7.15629E+02  6.87983E+02 -1.16087E+03 -2.03249E+02 -7.20840E+02 -9.83190E+02 -5.83211E+02 -1.69839E+03
  5.60812E+02 -1.45314E+03  8.20246E+02 -2.48268E+02  1.08214E+03 -6.15823E+02  7.26394E+02  1.00083E+03
  6.48856E+02  6.60463E+02 -5.17394E+02  9.24379E+02 -4.36023E+02  8.71227E+02 -2.03959E+02 -2.45626E+02
 -1.76126E+02  1.17666E+02 -5.48256E+02  5.88116E+02 -9.32978E+02  4.29910E+02 -9.76268E+02 -4.40164E+02
 -1.13202E+03  1.11810E+02 -4.46676E+01 -1.14260E+03  1.40627E+03 -1.82474E+03  1.30629E+03 -3.19174E+02
  1.28468E+03  3.00461E+02 -2.32079E+02  2.37326E+02 -7.70838E+00  1.51529E+03 -9.28336E+02  1.38750E+03
