 $NMID ID='MM_0lb_SNR400_11hz_g50_12.RAW', FMTDAT='(8E13.5)'
 TRAMP=1., VOLUME=1. $END
  3.10086E+05  9.74492E+02  3.37642E+05  2.50890E+05  8.47460E+04  3.37888E+05 -1.32421E+05  2.51935E+05
 -1.91152E+05  8.37654E+04 -1.11947E+05 -3.29052E+04  2.65030E+01 -5.12155E+04  5.41708E+04 -5.58717E+02
  3.51448E+04  5.34524E+04 -1.62484E+04  7.56818E+04 -6.16829E+04  6.40776E+04 -8.48994E+04  3.26757E+04
 -8.14111E+04 -1.12827E+04 -5.84069E+04 -5.17444E+04 -1.51459E+04 -7.04760E+04  2.81072E+04 -4.62260E+04
  4.05061E+04  3.53176E+03  1.63481E+04  4.85278E+04 -3.43150E+04  4.78467E+04 -6.82030E+04  8.80751E+01
 -5.42252E+04 -5.75217E+04 -7.15426E+03 -7.85080E+04  3.37560E+04 -5.59127E+04  4.91187E+04 -1.74247E+04
  4.50944E+04  1.17439E+04  3.27059E+04  2.66199E+04  1.59441E+04  3.00544E+04 -5.07945E+03  2.76393E+04
 -2.28374E+04  1.22707E+04 -1.84132E+04 -5.16878E+03  6.54382E+03 -7.03687E+03  2.30499E+04  1.38877E+04
  6.48525E+03  3.63990E+04 -3.36356E+04  3.63658E+04 -6.54872E+04  2.26616E+03 -5.79232E+04 -4.38450E+04
 -1.24868E+04 -6.45805E+04  4.10913E+04 -4.66651E+04  6.05782E+04 -2.40052E+03  3.57233E+04  3.29684E+04
 -5.19615E+03  3.83423E+04 -3.11224E+04  1.84458E+04 -3.20920E+04 -3.91452E+03 -1.80224E+04 -1.09738E+04
 -8.81405E+03 -1.46788E+04 -3.41454E+02 -1.93055E+04  8.55203E+03 -2.35044E+04  1.58799E+04 -1.28008E+04
  1.05906E+04  5.28860E+03 -9.35024E+03  1.28398E+04 -2.15705E+04 -5.73445E+03 -7.77872E+03 -3.61619E+04
  2.45557E+04 -4.46218E+04  5.01822E+04 -2.04677E+04  4.69407E+04  2.00158E+04  1.67407E+04  4.60790E+04
 -1.60167E+04  3.51179E+04 -2.59946E+04  2.43107E+03 -1.13250E+04 -2.92117E+04  2.15624E+04 -3.53889E+04
  4.29278E+04 -1.02450E+04  3.82208E+04  2.42359E+04  1.96798E+04  4.95648E+04 -7.67711E+03  5.39214E+04
 -3.33532E+04  3.62738E+04 -4.49675E+04  1.05908E+04 -4.57177E+04 -1.74203E+04 -2.48255E+04 -4.09523E+04
  6.89119E+03 -4.02209E+04  3.32728E+04 -1.69075E+04  3.11749E+04  1.14806E+04  4.85316E+03  1.97638E+04
 -1.30973E+04  9.49831E+03 -1.08423E+04 -8.30383E+03  5.80292E+03 -1.04932E+04  1.83510E+04  5.46933E+03
  1.40815E+04  2.27123E+04 -5.61252E+03  2.59186E+04 -2.31505E+04  1.30033E+04 -2.97298E+04 -3.31752E+03
 -2.31771E+04 -1.82241E+04 -9.62819E+03 -2.35051E+04  3.59398E+03 -2.32431E+04  1.78480E+04 -2.11200E+04
  2.94207E+04 -1.36176E+04  3.57245E+04  4.07009E+03  2.60070E+04  2.34116E+04  4.48378E+03  3.92065E+04
 -1.87117E+04  3.26419E+04 -2.96485E+04  1.12567E+04 -2.18961E+04 -1.05624E+04 -4.80863E+03 -1.29760E+04
  1.61056E+03 -1.65296E+03 -5.47637E+03  7.81470E+03 -1.92848E+04  5.63471E+03 -1.89747E+04 -7.77365E+03
 -1.17974E+04 -2.08929E+04  5.66844E+03 -2.54770E+04  1.80563E+04 -1.84905E+04  2.11246E+04 -1.14083E+03
  1.32766E+04  1.52227E+04 -1.75500E+03  2.23419E+04 -1.52272E+04  1.21311E+04 -2.22465E+04 -4.43480E+03
 -1.55840E+04 -1.90091E+04 -2.87964E+03 -2.59847E+04  1.20524E+04 -2.13857E+04  2.11917E+04 -1.15567E+04
  2.06768E+04 -1.39862E+02  1.49257E+04  5.32946E+03  8.60189E+03  1.02878E+03  1.06481E+04 -2.23687E+03
  2.00053E+04  2.98259E+03  2.28785E+04  1.69082E+04  1.54492E+04  3.51432E+04 -3.20623E+03  3.97313E+04
 -2.23261E+04  3.28273E+04 -3.79970E+04  1.63470E+04 -3.99414E+04 -2.40088E+03 -3.28122E+04 -2.28946E+04
 -1.36002E+04 -3.34565E+04  1.19973E+04 -2.94521E+04  2.54117E+04 -1.39633E+04  2.21987E+04  6.45789E+03
  7.79401E+03  1.66606E+04 -1.04787E+04  1.46810E+04 -1.83684E+04  2.77503E+03 -1.35927E+04 -1.13151E+04
 -8.91915E+02 -1.73833E+04  9.51633E+03 -1.32710E+04  1.19961E+04 -6.88322E+02  2.65812E+03  7.61241E+03
 -8.09141E+03  3.93784E+03 -7.29684E+03 -6.68196E+03 -1.10635E+03 -1.58129E+04  1.06314E+04 -1.75396E+04
  1.97246E+04 -9.89746E+03  2.30905E+04  3.07137E+03  2.08020E+04  1.62440E+04  8.89897E+03  2.52529E+04
 -3.56382E+03  2.80791E+04 -1.73388E+04  1.75209E+04 -2.04708E+04  3.23335E+03 -1.37111E+04 -4.80725E+03
 -5.92305E+03 -6.29383E+03 -5.82666E+02  5.19578E+02 -2.43078E+03  3.04539E+03 -6.82643E+03  5.26235E+03
 -1.27634E+04 -6.13769E+02 -1.25905E+04 -1.20445E+04 -5.44366E+03 -1.76794E+04  5.25705E+03 -1.38499E+04
  1.15029E+04 -5.32001E+03  8.57128E+03  3.78293E+03  3.93727E+02  5.02559E+03 -7.15293E+03  2.67338E+02
 -6.47852E+03 -9.15838E+03 -7.79752E+02 -1.37828E+04  8.02483E+03 -1.41875E+04  1.77070E+04 -7.76351E+03
  1.99425E+04  1.67425E+03  1.53646E+04  1.22526E+04  2.87063E+03  1.57914E+04 -8.92103E+03  1.41494E+04
 -1.04547E+04  3.75263E+03 -5.52202E+03 -2.28527E+03  2.58849E+03 -4.40575E+03  7.04717E+03 -1.21221E+03
  6.36252E+03  5.69778E+03  3.63067E+02  1.16563E+04 -7.84695E+03  1.01520E+04 -1.31242E+04  2.64352E+03
 -8.86411E+03 -7.46425E+03 -8.97447E+01 -1.19235E+04  7.47546E+03 -6.00836E+03  7.90969E+03  2.33203E+03
  9.25487E+02  8.19259E+03 -7.33033E+03  9.98061E+03 -1.14190E+04  4.83979E+03 -1.11122E+04 -3.60033E+03
 -6.49680E+03 -1.33408E+04  2.64873E+03 -1.49284E+04  1.34221E+04 -9.73663E+03  1.39663E+04  1.90071E+03
  8.58138E+03  1.05173E+04 -1.19762E+03  1.37063E+04 -1.00259E+04  7.69741E+03 -1.07108E+04 -1.26488E+03
 -9.36647E+03 -9.03007E+03 -1.91310E+03 -9.84361E+03  5.04988E+03 -8.40015E+03  6.25016E+03 -2.69333E+03
  4.03756E+03  1.66500E+03 -4.82004E+02  2.51466E+03 -4.89288E+02 -2.70354E+03  1.96141E+03 -5.72552E+03
  9.67497E+03 -4.12484E+03  1.33852E+04  2.14674E+03  1.27359E+04  8.96980E+03  8.83083E+03  1.77259E+04
 -4.12718E+03  1.96547E+04 -1.64415E+04  1.50341E+04 -2.14198E+04  3.25432E+03 -1.73248E+04 -6.65553E+03
 -7.87484E+03 -1.40428E+04 -6.71388E+02 -1.22046E+04  3.71114E+03 -6.54974E+03  4.71791E+03 -4.11140E+03
  2.93786E+03 -2.89288E+03  3.51314E+03 -3.98628E+03  5.45818E+03 -2.25440E+03  7.33860E+03  1.04383E+01
  9.12786E+03  1.91649E+03  4.81709E+03  7.05917E+03 -1.06634E+03  9.64433E+03 -9.22402E+03  7.42164E+03
 -1.17254E+04 -9.99557E+02 -6.85597E+03 -8.03185E+03 -1.32267E+03 -1.30135E+04  6.91626E+03 -1.29405E+04
  1.31200E+04 -6.41899E+03  1.61494E+04  1.83402E+03  1.09247E+04  1.09875E+04  2.48457E+03  1.45924E+04
 -5.80087E+03  1.13881E+04 -8.47872E+03  3.89800E+03 -5.07400E+03 -2.41995E+03 -1.88694E+03 -2.33996E+03
 -1.29666E+03  5.02525E+01 -1.69274E+03  2.74817E+03 -4.99218E+03  1.74630E+03 -8.41166E+03 -1.24164E+03
 -4.97056E+03 -7.95569E+03  2.03338E+02 -1.15678E+04  6.73163E+03 -1.06107E+04  1.16601E+04 -3.67716E+03
  1.20793E+04  5.66635E+03  5.47352E+03  1.04122E+04 -2.81574E+03  1.20449E+04 -8.41271E+03  7.07854E+03
 -1.05803E+04  1.07566E+03 -7.93567E+03 -6.42473E+03 -1.14274E+03 -9.97215E+03  5.40472E+03 -6.45625E+03
  7.58872E+03 -1.94570E+03  4.76545E+03  1.75037E+03  2.60982E+03  3.47362E+03  1.33594E+03  1.52852E+03
  2.45890E+03  8.40930E+02  2.90922E+03  1.70038E+03  3.14118E+03  4.15448E+03  2.48929E+03  6.14166E+03
 -2.14917E+03  9.79616E+03 -7.46701E+03  9.64590E+03 -1.15664E+04  2.58449E+03 -1.24663E+04 -4.84521E+03
 -5.68003E+03 -1.22500E+04  1.92326E+03 -1.31277E+04  6.68240E+03 -7.32401E+03  8.25158E+03 -2.31766E+03
  7.01105E+03  4.43820E+03  8.00680E+02  7.01334E+03 -3.32241E+03  4.60968E+03 -5.34828E+03 -7.15223E+02
 -2.60231E+03 -4.54616E+03  3.19226E+03 -5.23467E+03  4.71945E+03 -2.00553E+03  4.85019E+03  6.17485E+02
  2.73755E+03  1.94861E+03  1.74366E+03  1.51525E+03 -3.49142E+02  1.88635E+03  1.48688E+03 -2.95840E+02
  1.67448E+03 -6.05004E+02  5.30729E+03  2.38410E+03  2.33967E+03  7.23413E+03 -1.15159E+03  8.72031E+03
 -6.05934E+03  5.13388E+03 -6.85933E+03  1.49414E+03 -7.33007E+03 -2.49730E+03 -2.40388E+03 -5.19299E+03
  1.16591E+03 -3.61903E+03  3.34264E+03 -2.48238E+03  2.68159E+03  2.46745E+03 -8.97402E+02  3.83763E+03
 -4.95466E+03  1.70765E+03 -4.78349E+03 -3.24094E+03 -3.06557E+03 -6.58776E+03  6.01035E+02 -6.93569E+03
  3.57031E+03 -3.78789E+03  4.42099E+03 -4.74320E+02  3.71333E+03  1.08148E+03  1.20620E+03  3.90829E+03
 -1.72912E+03  7.85163E+02 -2.82553E+03 -2.60600E+03  1.36990E+03 -4.63264E+03  6.15977E+03 -2.97932E+03
  6.28491E+03  6.50353E+02  6.75930E+03  5.07155E+03  2.50790E+03  7.45581E+03 -3.20024E+03  6.28041E+03
 -6.10338E+03  2.71026E+03 -6.11186E+03 -1.13518E+03 -3.75541E+03 -4.52774E+03  1.28161E+03 -4.76761E+03
  3.90334E+03 -1.88514E+03  4.11594E+03  1.51057E+03  1.53115E+03  3.50066E+03 -1.97413E+02  4.53472E+03
 -1.96949E+03  3.07599E+03 -1.47524E+03  1.16213E+03 -1.09952E+03  3.47641E+01 -7.93255E+02  2.52139E+03
 -1.37394E+03  3.17915E+03 -4.78030E+03  2.15435E+03 -7.15216E+03  5.40536E+02 -8.29706E+03 -4.48346E+03
 -4.24797E+03 -8.91055E+03  1.47383E+03 -1.07955E+04  6.24397E+03 -8.70866E+03  1.00609E+04 -3.31059E+03
  9.90528E+03  2.29126E+03  6.78208E+03  6.76715E+03  7.55213E+01  7.59601E+03 -3.16017E+03  5.24269E+03
 -4.63132E+03  2.79523E+03 -2.41056E+03 -1.02506E+03 -8.23572E+02 -4.01054E+02 -9.09420E+02 -2.00240E+02
 -1.14478E+03 -5.71257E+02 -2.20762E+03  1.30892E+02 -7.13096E+02 -2.42532E+03 -1.23613E+02 -2.56315E+03
  3.61311E+03 -2.72270E+03  3.46124E+03 -4.41047E+01  5.36908E+03  3.66396E+03  1.39284E+03  7.60857E+03
 -3.55598E+03  8.18649E+03 -7.67018E+03  5.16206E+03 -9.10290E+03 -1.18527E+02 -6.36801E+03 -5.43447E+03
 -3.30613E+03 -7.33563E+03  2.05794E+03 -7.14039E+03  4.22836E+03 -3.60531E+03  4.60613E+03 -4.32582E+02
  2.47504E+03  2.09498E+03  1.28241E+02  1.99595E+03 -1.58441E+03  7.19032E+02  9.01476E+01 -1.47128E+03
  1.99831E+03 -7.09455E+02  3.38338E+03  1.25052E+03  2.65820E+03  2.83394E+03 -5.25136E+01  2.74755E+03
 -3.46130E+03  3.25719E+03 -4.89036E+03 -1.89967E+02 -4.02516E+03 -2.96112E+03 -3.09771E+02 -5.71350E+03
  3.55101E+03 -5.12793E+03  5.15436E+03 -1.19188E+03  4.89941E+03  1.24988E+03  3.02632E+03  4.32319E+03
 -1.35775E+01  5.01344E+03 -2.11417E+03  3.26533E+03 -2.60753E+03  1.78448E+03 -2.65318E+03  4.92366E+02
 -1.28050E+03 -5.97423E+02 -1.40055E+03 -2.34571E+02 -2.04474E+03  1.06197E+03 -3.85751E+03 -4.48115E+02
 -3.70361E+03 -2.26748E+03 -7.57341E+02 -4.94760E+03  2.04637E+03 -5.57951E+03  3.87778E+03 -1.94977E+03
  3.98384E+03  4.14204E+02  2.60831E+03  3.52590E+03 -7.43097E+02  4.61862E+03 -3.79591E+03  3.41351E+03
