 $NMID ID='MM_0lb_SNR400_18hz_g60_93.RAW', FMTDAT='(8E13.5)'
 TRAMP=1., VOLUME=1. $END
  3.09720E+05  4.99208E+02  3.37127E+05  2.50331E+05  8.40285E+04  3.37553E+05 -1.32858E+05  2.50967E+05
 -1.90107E+05  8.21392E+04 -1.11921E+05 -3.28391E+04  1.31956E+03 -5.08146E+04  5.35621E+04 -6.29769E+02
  3.52653E+04  5.25218E+04 -1.68307E+04  7.50627E+04 -6.04543E+04  6.32216E+04 -8.41637E+04  3.20584E+04
 -8.01817E+04 -1.16805E+04 -5.68839E+04 -5.07380E+04 -1.53207E+04 -6.90767E+04  2.70016E+04 -4.57142E+04
  3.97841E+04  3.40332E+03  1.61983E+04  4.72360E+04 -3.47887E+04  4.66333E+04 -6.59221E+04 -1.83098E+01
 -5.30069E+04 -5.66965E+04 -7.03892E+03 -7.64019E+04  3.37889E+04 -5.47009E+04  4.76189E+04 -1.65095E+04
  4.28615E+04  1.09981E+04  3.15900E+04  2.50725E+04  1.58784E+04  2.94637E+04 -5.23609E+03  2.70769E+04
 -2.22543E+04  1.23526E+04 -1.83805E+04 -4.67982E+03  5.21768E+03 -7.88703E+03  2.18040E+04  1.20724E+04
  7.56225E+03  3.50960E+04 -3.15924E+04  3.50418E+04 -6.24809E+04  1.79050E+03 -5.64637E+04 -4.23397E+04
 -1.20696E+04 -6.22779E+04  3.95507E+04 -4.44381E+04  5.73771E+04 -2.58008E+03  3.33648E+04  3.20418E+04
 -5.64113E+03  3.54311E+04 -2.83325E+04  1.55443E+04 -2.99615E+04 -4.76486E+03 -1.63499E+04 -1.03386E+04
 -7.69700E+03 -1.20040E+04 -6.57977E+02 -1.75265E+04  7.30148E+03 -2.24180E+04  1.53654E+04 -1.32874E+04
  1.20552E+04  4.88593E+03 -7.33526E+03  1.29932E+04 -2.07373E+04 -3.77129E+03 -8.05668E+03 -3.22928E+04
  2.21417E+04 -4.24746E+04  4.67727E+04 -1.93185E+04  4.40503E+04  1.90454E+04  1.50087E+04  4.28322E+04
 -1.54832E+04  3.25715E+04 -2.41709E+04  1.48148E+03 -9.50869E+03 -2.68506E+04  2.10469E+04 -3.28412E+04
  3.97153E+04 -8.53324E+03  3.36775E+04  2.31796E+04  1.68932E+04  4.48148E+04 -8.17434E+03  4.80750E+04
 -3.02424E+04  3.19576E+04 -4.03185E+04  9.26066E+03 -4.05308E+04 -1.60038E+04 -2.20705E+04 -3.65411E+04
  7.23045E+03 -3.60476E+04  3.08913E+04 -1.36368E+04  2.86873E+04  1.10942E+04  3.39048E+03  1.83164E+04
 -1.35664E+04  7.44278E+03 -1.06221E+04 -7.53269E+03  5.89328E+03 -1.07124E+04  1.77536E+04  5.63180E+03
  1.30347E+04  2.20064E+04 -6.38433E+03  2.44672E+04 -2.16472E+04  1.03672E+04 -2.65001E+04 -5.42284E+03
 -1.87577E+04 -1.67954E+04 -7.30634E+03 -1.88402E+04  3.97522E+03 -1.76516E+04  1.42069E+04 -1.64729E+04
  2.35857E+04 -1.23723E+04  3.06819E+04  1.84655E+03  2.32248E+04  1.83912E+04  4.48063E+03  3.45729E+04
 -1.64335E+04  2.86999E+04 -2.67685E+04  1.01508E+04 -2.05155E+04 -1.04895E+04 -4.30767E+03 -1.36085E+04
  2.15105E+03 -3.16797E+03 -3.49651E+03  5.74300E+03 -1.42058E+04  5.10105E+03 -1.49092E+04 -6.50854E+03
 -8.99524E+03 -1.71970E+04  5.21218E+03 -2.13577E+04  1.41667E+04 -1.52376E+04  1.62824E+04 -1.54456E+03
  9.98755E+03  1.19345E+04 -9.76274E+02  1.70538E+04 -1.17770E+04  9.52257E+03 -1.74241E+04 -3.24905E+03
 -1.28789E+04 -1.56947E+04 -1.76665E+03 -2.16836E+04  9.42538E+03 -1.76667E+04  1.78371E+04 -8.27118E+03
  1.55404E+04  7.51819E+02  1.15455E+04  4.17182E+03  5.71455E+03  6.37919E+02  8.41562E+03 -1.36911E+03
  1.57419E+04  2.79038E+03  1.70641E+04  1.38403E+04  1.13001E+04  2.73761E+04 -2.75746E+03  2.97754E+04
 -1.68853E+04  2.37552E+04 -2.82804E+04  1.08283E+04 -2.83074E+04 -2.46055E+03 -2.42335E+04 -1.62911E+04
 -1.05998E+04 -2.34367E+04  8.29979E+03 -2.19171E+04  1.91339E+04 -1.15741E+04  1.67176E+04  4.87934E+03
  7.56438E+03  1.21269E+04 -7.52845E+03  1.11118E+04 -1.39565E+04  2.33892E+03 -1.12087E+04 -8.78566E+03
  6.88084E+01 -1.37902E+04  6.75210E+03 -1.01838E+04  8.93357E+03 -1.17387E+03  2.19074E+03  5.63261E+03
 -6.22911E+03  1.82167E+03 -4.33670E+03 -5.06517E+03  4.78826E+02 -1.16889E+04  7.97288E+03 -1.19110E+04
  1.38812E+04 -5.87926E+03  1.45004E+04  3.04258E+03  1.25464E+04  1.10274E+04  6.02946E+03  1.63504E+04
 -2.03897E+03  1.78911E+04 -1.15455E+04  1.19473E+04 -1.30971E+04  3.22037E+03 -9.21417E+03 -2.03059E+03
 -4.60355E+03 -3.99014E+03 -1.24832E+03  1.11346E+03 -1.94466E+03  1.99667E+03 -4.07050E+03  4.31411E+03
 -8.89324E+03 -7.61936E+02 -9.10686E+03 -8.06076E+03 -3.02278E+03 -1.27914E+04  4.27386E+03 -9.28002E+03
  7.85997E+03 -4.14771E+03  5.88850E+03  2.50600E+03  5.05600E+02  2.88050E+03 -3.88249E+03 -8.71570E+02
 -4.05289E+03 -6.39161E+03 -1.03262E+03 -7.61394E+03  4.34662E+03 -8.96809E+03  1.14676E+04 -4.49819E+03
  1.35965E+04  9.39345E+02  9.85678E+03  7.52701E+03  2.03115E+03  9.50883E+03 -6.31715E+03  8.60578E+03
 -7.86321E+03  3.13945E+03 -4.23204E+03 -1.38665E+03  1.76061E+03 -1.94720E+03  5.34560E+03 -1.56688E+03
  4.74871E+03  3.74796E+03  8.99326E+02  6.98105E+03 -5.02772E+03  6.87528E+03 -8.44719E+03  1.80511E+03
 -5.70151E+03 -3.83481E+03 -3.84750E+02 -7.33436E+03  4.46422E+03 -3.93424E+03  4.08788E+03  1.27952E+03
  6.86510E+02  4.22160E+03 -4.59486E+03  5.54258E+03 -5.98653E+03  2.55062E+03 -5.47484E+03 -1.65062E+03
 -3.72168E+03 -7.01051E+03  1.63707E+03 -7.98715E+03  6.69385E+03 -5.22299E+03  7.84778E+03  1.09187E+03
  5.01878E+03  5.94523E+03 -1.74017E+02  7.99838E+03 -5.23831E+03  4.74542E+03 -5.83128E+03 -8.83389E+01
 -6.48175E+03 -5.63435E+03 -1.50286E+03 -5.10306E+03  2.83467E+03 -5.55696E+03  3.60517E+03 -3.02998E+03
  2.95518E+03 -2.43927E+02 -2.36951E+02  1.37122E+03  3.26277E+01 -2.77712E+02  2.46813E+02 -1.96491E+03
  4.41338E+03 -9.24891E+02  6.14864E+03  9.07569E+02  5.68039E+03  3.96516E+03  5.13616E+03  8.15287E+03
 -1.49185E+03  9.84261E+03 -8.80754E+03  7.66038E+03 -1.09409E+04  1.02924E+03 -9.05032E+03 -3.61996E+03
 -5.22921E+03 -7.34690E+03 -5.66584E+01 -5.89437E+03  2.43807E+03 -2.85416E+03  2.04195E+03 -2.64407E+03
  1.76724E+03 -1.67705E+03  1.49400E+03 -2.56818E+03  3.83292E+03 -9.99889E+02  3.51644E+03  1.83273E+02
  4.60711E+03  1.09431E+03  1.84138E+03  4.05123E+03 -1.57649E+03  3.47594E+03 -4.95790E+03  3.04221E+03
 -6.03843E+03 -1.23436E+03 -2.56551E+03 -3.71811E+03  1.74789E+02 -6.13791E+03  3.65733E+03 -6.06451E+03
  6.09063E+03 -3.35444E+03  7.50512E+03  2.51358E+02  5.76720E+03  4.85253E+03  1.40935E+03  6.60259E+03
 -2.80635E+03  6.60101E+03 -3.96213E+03  2.36287E+03 -2.32254E+03 -1.22944E+03 -4.99201E+02 -6.80465E+02
 -3.98091E+02  3.27863E+02 -1.08702E+03  1.71035E+03 -3.53259E+03  6.12359E+02 -4.77790E+03 -5.18478E+02
 -2.29513E+03 -4.97710E+03  6.86812E+02 -5.42528E+03  2.72326E+03 -5.48479E+03  4.29040E+03 -7.59794E+02
  4.89282E+03  2.86177E+03  2.26388E+03  3.83342E+03 -8.03636E+02  4.73267E+03 -3.01908E+03  2.93294E+03
 -4.50395E+03  8.44966E+02 -3.56183E+03 -2.99364E+03 -4.17715E+02 -3.67020E+03  2.19201E+03 -2.79583E+03
  2.90245E+03 -1.07853E+03  2.35899E+03  4.57904E+02  1.10740E+03  1.88209E+03  7.13140E+02  8.48471E+02
  1.89274E+03  5.50328E+02  1.42210E+03  6.69096E+02  9.47551E+02  2.16699E+03  1.16421E+03  2.15740E+03
 -1.48796E+03  3.54153E+03 -3.28183E+03  4.25635E+03 -3.96175E+03  1.10103E+03 -5.22536E+03 -7.31144E+02
 -2.01369E+03 -3.85670E+03  1.47013E+03 -5.38790E+03  2.49757E+03 -2.95235E+03  4.01335E+03 -7.02478E+02
  2.72669E+03  2.01515E+03  3.74330E+02  2.20428E+03 -5.16968E+02  1.35156E+03 -8.40295E+02 -8.21442E+02
 -3.13606E+02 -1.61066E+03  8.33416E+02 -2.27610E+03  1.60183E+03 -1.37911E+03  1.39522E+03  4.20705E+02
  9.38628E+02  7.00427E+02  7.48905E+02 -1.49407E+02 -1.07940E+03  1.15864E+03  1.54010E+03 -1.50665E+02
 -8.14944E+01 -7.90348E+02  1.66239E+03  7.20965E+02  2.69763E+02  2.38817E+03 -5.74723E+02  3.12373E+03
 -9.66446E+02  1.49669E+03 -2.46658E+03  5.66480E+02 -2.64293E+03 -1.36583E+03 -5.56003E+02 -1.31935E+03
  7.00686E+02 -1.35932E+03  9.93298E+02 -8.77110E+02  4.76692E+02  1.29121E+03 -3.21940E+02  1.61001E+03
 -1.48946E+03  1.22979E+03 -1.01700E+03 -1.88024E+03 -7.40434E+02 -2.32365E+03  5.44680E+02 -1.74820E+03
  5.23872E+02 -9.01863E+02  1.07522E+03  2.86734E+01  1.45938E+03 -1.47835E+02  2.88681E+02  1.18773E+03
 -3.60925E+02  7.84587E+01 -1.00186E+03  2.54470E+01  2.47801E+02 -1.16309E+03  1.96735E+03 -1.03850E+03
  1.46903E+03  4.36000E+02  2.78510E+03  3.39262E+02  1.32929E+03  1.76496E+03 -1.91274E+02  2.08704E+03
 -1.67064E+03  3.40546E+02 -2.04423E+03 -3.26891E+02 -9.76644E+02 -2.06816E+03  1.08719E+03 -5.32929E+02
  1.46335E+03 -2.75414E+02  5.14507E+02  7.00628E+02 -2.87500E+01  1.22326E+03  3.89716E+02  1.15599E+03
 -6.50912E+02  1.37088E+03 -1.08550E+03  4.35013E+02  3.98017E+02  1.94132E+02 -1.42359E+03  6.79997E+02
 -5.06648E+02  1.43189E+03 -1.84235E+03  6.73105E+02 -1.74995E+03  2.50825E+02 -2.85799E+03 -1.10107E+03
 -1.09457E+03 -2.10299E+03  6.02816E+02 -3.23099E+03  1.04454E+03 -2.81686E+03  3.59898E+03 -1.59174E+03
  2.61824E+03 -5.62983E+02  1.57431E+03  1.58428E+03 -2.25500E+02  1.10608E+03 -8.11562E+02  1.41298E+03
 -1.48174E+03  5.83522E+02 -5.61166E+02 -2.64889E+02 -7.43551E+02  6.10937E+02 -7.29359E+02 -1.07377E+02
 -1.10887E+03 -3.44679E+02 -9.47334E+02  3.37756E+02  7.86105E+02 -5.96926E+02 -4.04375E+02 -7.98473E+02
  1.41158E+03 -3.48144E+02  1.01032E+03  4.17380E+02  1.01596E+03  1.14001E+03 -6.08640E+02  1.34407E+03
 -7.38710E+02  2.54145E+03 -8.64663E+02  1.54128E+03 -1.63657E+03 -9.84065E+01 -1.18289E+03 -1.16440E+03
 -1.20357E+03 -8.47306E+02 -9.88624E+00 -1.08919E+03  1.17754E+01 -7.87867E+02  5.34981E+02 -3.67906E+02
  1.03455E+03  6.09487E+02  5.07149E+02  3.32416E+02 -3.61556E+02 -5.59547E+02 -8.21134E+01 -7.07297E+02
  7.25064E+02  3.73550E+02  4.30530E+01  6.65282E+02  1.13553E+03  5.93410E+02  2.14009E+02 -4.53340E+01
 -5.74105E+02  8.62436E+02 -3.86513E+02  6.97345E+02 -8.28320E+02 -2.49569E+02 -3.35590E+02 -3.20258E+02
  7.04742E+02 -5.16898E+02 -2.80851E+01 -8.77608E+02  2.46941E+02 -7.65350E+02  6.02580E+02  4.56952E+02
  9.11759E+00  3.40346E+02 -3.73193E+01  3.43306E+01 -9.60159E+02  3.76704E+02 -2.04068E+01  2.91599E+02
 -1.92618E+02 -3.68382E+02 -6.68103E+02  2.14477E+01 -8.86583E+02  6.22798E+00 -1.03184E+03 -2.72360E+02
 -1.09603E+03  3.72735E+02 -3.79749E+02 -2.58687E+02  4.14468E+02 -1.63751E+03  5.40339E+02 -1.57392E+02
  2.35777E+02  2.26477E+02 -3.31223E+02  2.41276E+02  3.97563E+02  1.14367E+03 -6.46592E+02  9.08149E+02
