 $NMID ID='MM_0lb_SNR400_20hz_g40_62.RAW', FMTDAT='(8E13.5)'
 TRAMP=1., VOLUME=1. $END
  3.09485E+05 -2.63079E+02  3.37180E+05  2.50535E+05  8.46806E+04  3.37172E+05 -1.32264E+05  2.49604E+05
 -1.89309E+05  8.18440E+04 -1.10890E+05 -3.27006E+04  1.82138E+03 -4.96258E+04  5.41868E+04  9.04118E+01
  3.53468E+04  5.28822E+04 -1.74457E+04  7.43144E+04 -5.95930E+04  6.24161E+04 -8.25720E+04  3.10759E+04
 -7.91710E+04 -1.07933E+04 -5.62520E+04 -4.93468E+04 -1.48958E+04 -6.74451E+04  2.62820E+04 -4.41526E+04
  3.80715E+04  4.45175E+03  1.52705E+04  4.69855E+04 -3.37302E+04  4.55480E+04 -6.53085E+04 -1.04004E+03
 -5.14648E+04 -5.53231E+04 -5.38649E+03 -7.42135E+04  3.25072E+04 -5.21529E+04  4.53517E+04 -1.54715E+04
  4.06201E+04  1.05316E+04  3.01385E+04  2.37410E+04  1.53036E+04  2.71742E+04 -4.06918E+03  2.63261E+04
 -2.15618E+04  1.29101E+04 -1.93726E+04 -3.77775E+03  3.82358E+03 -7.55448E+03  2.06770E+04  1.00978E+04
  7.34679E+03  3.24261E+04 -2.94796E+04  3.33814E+04 -6.00176E+04  1.99448E+03 -5.43805E+04 -4.01178E+04
 -1.22581E+04 -5.95908E+04  3.75444E+04 -4.24625E+04  5.40697E+04 -1.76776E+03  3.07158E+04  2.94620E+04
 -6.84310E+03  3.18102E+04 -2.77918E+04  1.21755E+04 -2.56822E+04 -5.83784E+03 -1.32214E+04 -9.33261E+03
 -6.97216E+03 -1.10642E+04 -1.06470E+03 -1.58733E+04  6.20447E+03 -2.16447E+04  1.53291E+04 -1.41383E+04
  1.27296E+04  3.82392E+03 -5.51349E+03  1.35610E+04 -1.81845E+04 -1.39486E+03 -8.09873E+03 -2.90628E+04
  1.96877E+04 -3.91037E+04  4.35852E+04 -1.80449E+04  4.00055E+04  1.78373E+04  1.34582E+04  4.00628E+04
 -1.53339E+04  2.99119E+04 -2.22267E+04  8.77558E+02 -7.45820E+03 -2.58180E+04  2.04214E+04 -2.98218E+04
  3.71069E+04 -6.57044E+03  2.92381E+04  2.24504E+04  1.38874E+04  4.05356E+04 -7.99597E+03  4.27925E+04
 -2.71265E+04  2.73704E+04 -3.50450E+04  7.70267E+03 -3.65414E+04 -1.42728E+04 -2.00394E+04 -3.22383E+04
  6.92746E+03 -3.23794E+04  2.80136E+04 -1.15396E+04  2.56743E+04  1.05999E+04  2.16631E+03  1.72923E+04
 -1.26241E+04  7.05361E+03 -9.41905E+03 -8.25838E+03  5.95394E+03 -9.79475E+03  1.71933E+04  6.71052E+03
  1.16438E+04  2.13217E+04 -6.48035E+03  2.27094E+04 -2.11520E+04  7.68227E+03 -2.36567E+04 -7.27698E+03
 -1.48875E+04 -1.60886E+04 -3.82209E+03 -1.49656E+04  3.30857E+03 -1.28446E+04  1.07705E+04 -1.25498E+04
  1.94561E+04 -1.09103E+04  2.59299E+04  3.26213E+02  2.01828E+04  1.48119E+04  3.95833E+03  3.06503E+04
 -1.52560E+04  2.59590E+04 -2.50917E+04  9.02590E+03 -1.92319E+04 -1.05913E+04 -3.78310E+03 -1.42392E+04
  2.90484E+03 -4.89569E+03 -2.13377E+03  5.20334E+03 -1.17341E+04  5.28950E+03 -1.17409E+04 -4.39321E+03
 -8.26522E+03 -1.38240E+04  4.43862E+03 -1.73588E+04  1.15133E+04 -1.32716E+04  1.32051E+04 -1.38349E+03
  7.90536E+03  9.96950E+03 -1.22948E+03  1.43040E+04 -8.89089E+03  7.77774E+03 -1.34958E+04 -3.04509E+03
 -1.07721E+04 -1.31968E+04 -1.58718E+03 -1.69196E+04  8.21755E+03 -1.40687E+04  1.47700E+04 -7.04241E+03
  1.29723E+04  8.84727E+02  9.50734E+03  3.58481E+03  4.35644E+03  3.52580E+02  6.27483E+03 -1.22138E+03
  1.18529E+04  2.16629E+03  1.29455E+04  1.17438E+04  8.36971E+03  2.21296E+04 -3.27630E+03  2.37458E+04
 -1.42876E+04  1.76832E+04 -2.13835E+04  7.90075E+03 -2.14652E+04 -1.40988E+03 -1.86021E+04 -1.16866E+04
 -8.97852E+03 -1.73155E+04  6.19655E+03 -1.67485E+04  1.42959E+04 -1.01305E+04  1.39035E+04  3.08570E+03
  6.12888E+03  1.02590E+04 -6.55087E+03  9.87928E+03 -1.22083E+04  2.63799E+03 -9.45637E+03 -7.53296E+03
 -5.10757E+01 -1.11607E+04  4.80046E+03 -9.01521E+03  6.54752E+03 -1.79834E+03  1.14853E+03  3.99752E+03
 -4.70927E+03  8.72796E+02 -2.50291E+03 -4.04581E+03  1.31785E+03 -9.10610E+03  7.26221E+03 -8.64454E+03
  1.02415E+04 -3.55507E+03  9.98903E+03  2.44868E+03  8.27442E+03  7.98822E+03  4.05397E+03  1.17402E+04
 -1.20581E+03  1.39091E+04 -8.30540E+03  9.01053E+03 -9.24296E+03  3.18600E+03 -7.66703E+03 -1.57301E+03
 -4.04593E+03 -2.87205E+03 -4.49624E+02  1.60613E+03 -1.59973E+03  1.76258E+03 -3.92500E+03  3.94131E+03
 -7.15233E+03 -5.25863E+02 -8.11554E+03 -6.08619E+03 -3.21833E+03 -1.01113E+04  3.02519E+03 -7.49990E+03
  6.44523E+03 -3.47831E+03  4.62836E+03  1.87355E+03  6.09178E+02  2.43570E+03 -2.92379E+03  1.98534E+02
 -2.58671E+03 -4.14487E+03 -9.15376E+02 -5.84289E+03  3.36705E+03 -6.37747E+03  8.75994E+03 -3.14838E+03
  9.99251E+03  1.57274E+02  7.90241E+03  4.99724E+03  1.87669E+03  6.98273E+03 -4.69379E+03  7.24509E+03
 -6.36596E+03  2.21004E+03 -3.09021E+03 -1.39117E+03  1.36860E+03 -1.91543E+03  4.70856E+03 -1.17896E+03
  3.86350E+03  3.48809E+03  7.83803E+02  5.98206E+03 -3.99285E+03  5.24664E+03 -6.50209E+03  2.10545E+03
 -4.17921E+03 -2.97256E+03  6.13350E+02 -5.96097E+03  3.35969E+03 -2.93482E+03  2.92937E+03  5.25629E+02
  6.70471E+02  2.09442E+03 -3.63136E+03  3.64023E+03 -3.51444E+03  2.41198E+03 -3.21978E+03 -8.85317E+02
 -2.72770E+03 -5.19696E+03  8.30107E+02 -5.57186E+03  4.77947E+03 -3.60914E+03  5.31906E+03  7.50027E+02
  4.05908E+03  4.37606E+03  2.48834E+02  6.24298E+03 -4.25409E+03  3.97320E+03 -3.95775E+03 -8.58653E+02
 -5.24300E+03 -4.61462E+03 -1.66304E+03 -4.28084E+03  1.41075E+03 -4.91617E+03  2.46400E+03 -2.99249E+03
  2.59014E+03 -9.93873E+01  6.50891E+02  1.26533E+03  6.72930E+02  5.20150E+02 -1.26759E+02 -1.34337E+03
  3.11712E+03 -3.94664E+01  4.39230E+03  6.50115E+02  3.99661E+03  2.86823E+03  5.31893E+03  5.50715E+03
 -4.49417E+02  7.04111E+03 -6.33472E+03  5.06044E+03 -8.32758E+03  1.27003E+03 -5.99074E+03 -2.14388E+03
 -4.07832E+03 -5.20222E+03 -2.75404E+02 -4.42973E+03  1.92875E+03 -1.29695E+03  1.45794E+03 -1.95685E+03
  8.97442E+02 -1.15620E+03  1.48552E+03 -1.50182E+03  3.55432E+03 -6.09883E+02  3.37799E+03  9.43092E+02
  4.47136E+03  1.07659E+03  8.20365E+02  2.83257E+03 -1.44506E+03  1.66715E+03 -3.85429E+03  2.29133E+03
 -4.04993E+03 -1.07033E+03 -1.62118E+03 -3.18524E+03  9.24090E+02 -3.58508E+03  2.69800E+03 -3.62761E+03
  3.95253E+03 -2.97186E+03  5.63042E+03  5.00406E+01  4.10872E+03  3.51346E+03  1.07165E+03  4.46179E+03
 -1.54665E+03  5.67605E+03 -2.51448E+03  1.42083E+03 -1.63935E+03 -1.01908E+03 -3.34450E+02 -3.17302E+02
 -9.58873E+02  5.51077E+02 -8.57394E+02  1.34990E+03 -2.56224E+03  7.81782E+02 -3.54812E+03 -1.61060E+02
 -9.36536E+02 -3.27503E+03  9.90255E+02 -3.71898E+03  1.58413E+03 -4.03414E+03  2.54048E+03 -8.33235E+02
  3.58857E+03  1.83300E+03  1.79341E+03  2.58270E+03 -8.13880E+02  3.44735E+03 -1.74731E+03  2.08144E+03
 -2.00907E+03  1.22553E+03 -2.81120E+03 -2.03727E+03  3.29354E+02 -2.51650E+03  9.03809E+02 -2.52641E+03
  2.35630E+03 -1.27721E+03  1.76782E+03  4.86203E+02  2.02480E+02  1.37919E+03  7.74852E+02  1.34259E+02
  1.88259E+03  5.38652E+02  5.85286E+02  5.34394E+02  5.79433E+02  1.55076E+03  1.27161E+03  1.27769E+03
 -8.03848E+02  2.88581E+03 -1.79392E+03  3.51532E+03 -1.57984E+03  7.72036E+02 -3.32109E+03  7.91541E+01
 -1.64654E+03 -2.27476E+03  5.52960E+02 -3.62887E+03  1.40711E+03 -2.48729E+03  2.37252E+03 -8.14572E+02
  2.31567E+03  1.45094E+03  4.78686E+02  1.70790E+03 -9.33555E+00  1.09905E+03 -9.61770E+02  1.37660E+02
 -8.05677E+01 -1.51986E+03  1.00503E+03 -2.47580E+02  7.40608E+02 -1.45716E+03  8.86401E+02  3.77101E+02
  4.20780E+02  9.43575E+01  2.89491E+02 -7.65746E+02 -5.48624E+02  1.13397E+03  1.86115E+03 -5.67064E+02
 -3.08180E+02 -1.56798E+02  7.78564E+02  3.82646E+02 -3.24153E+02  2.13860E+03 -3.31676E+02  2.30452E+03
 -1.53339E+03  9.80514E+02 -1.90773E+03  5.51519E+01 -1.68033E+03 -3.98142E+02 -2.18543E+02 -1.04289E+02
  6.20528E+02 -7.62175E+02  7.92578E+02 -8.30927E+02  4.67965E+02  1.34922E+03 -8.64955E+02  9.87746E+02
 -1.14909E+03  7.67040E+02 -1.35930E+03 -1.60273E+03 -5.21358E+02 -2.11670E+03  3.72280E+02 -6.47781E+02
  2.43315E+02 -2.92375E+01  4.33776E+02  8.03854E+01  1.14069E+03 -1.45891E+02  3.06848E+02  1.37317E+03
 -6.85313E+02 -2.60750E+02 -7.03096E+02 -7.02009E+01  5.23853E+02 -8.44916E+02  1.45393E+03 -9.32126E+02
  7.18139E+02  1.85427E+02  1.97848E+03 -2.66242E+02  1.16449E+03  1.31429E+03  1.72530E+02  1.22788E+03
 -1.22678E+03  9.72147E+01 -1.33011E+03  3.34069E+02 -3.61051E+02 -1.46170E+03  9.54307E+01  1.48269E+01
  1.14776E+03 -7.96728E+02  6.01413E+02  4.01938E+02  4.52670E+01  9.77587E+02  2.98808E+02  1.40065E+03
 -5.57120E+02  8.43379E+02 -4.98205E+02 -2.58114E+01  2.28075E+02  2.54490E+02 -2.79669E+02  9.50248E+02
 -8.29336E+01  1.05773E+03 -1.02769E+03  2.14362E+02 -1.21045E+03  1.22922E+02 -1.99557E+03 -8.66442E+02
 -3.75772E+02 -1.76242E+03  4.93735E+02 -2.10777E+03  1.52633E+02 -2.08189E+03  2.20019E+03 -9.47976E+02
  1.92369E+03 -7.67862E+02  3.76406E+02  1.54249E+03 -3.89660E+02  7.65908E+02 -6.49858E+01  8.78861E+02
 -4.72001E+02  5.75440E+02 -5.59164E+02 -4.95193E+02 -7.41588E+02  3.02425E+02 -4.83732E+02  2.09380E+02
 -6.22183E+02  1.28664E+01 -3.04373E+02  3.23255E+02  5.47303E+02 -2.13181E+02 -2.43911E+02 -2.89991E+02
  1.00257E+03 -3.33773E+02  1.53089E+02  2.79604E+01  7.51069E+02  8.33256E+02 -6.87375E+02  1.47748E+03
 -5.05971E+02  2.05876E+03 -1.25582E+03  1.24804E+03 -1.35221E+03  3.52448E+02 -1.01385E+03 -9.81030E+02
 -5.62480E+02 -1.07387E+03  9.82633E+01 -1.04914E+03  3.40654E+02  2.53089E+02  5.20661E+02  2.57132E+02
  5.19138E+02  4.09169E+02  7.11046E+01  2.65459E+00 -5.32695E+02  3.17155E+02  2.80675E+01  4.82328E+02
  4.93773E+02  4.97349E+01  3.10148E+02  5.69989E+01  5.37280E+02  2.39693E+02  4.63974E+02 -1.16171E+02
 -6.79912E+02  5.36832E+02 -4.22896E+02  5.52498E+02 -8.64005E+02 -9.55356E+02  2.83478E+02 -7.67698E+02
  1.15324E+02 -2.48754E+02  6.18930E+02 -3.82398E+01  7.33582E+02 -5.04128E+02  6.89674E+02  5.58258E+02
  2.61818E+02  2.72414E+02  1.24794E+02  8.62959E+02 -7.59906E+02  3.07953E+02  1.35400E+02  4.78287E+02
 -1.36067E+02  3.30446E+01 -1.00651E+03 -2.53284E+02 -4.19711E+02  1.49847E+02 -1.01852E+03 -4.09924E+02
 -1.06936E+03  6.84686E+02  2.48960E+02 -8.44413E+02  6.46870E+02 -1.63303E+03  5.98561E+02 -2.46698E+01
  2.54587E+02  5.26554E+02 -4.30656E+02  2.50201E+02 -4.51436E+02  1.13211E+03 -1.77470E+02  3.96072E+02
