 $NMID ID='MM_0lb_SNR400_20hz_g45_47.RAW', FMTDAT='(8E13.5)'
 TRAMP=1., VOLUME=1. $END
  3.09863E+05  5.05846E+02  3.37553E+05  2.49798E+05  8.45109E+04  3.37165E+05 -1.31896E+05  2.49646E+05
 -1.89273E+05  8.22444E+04 -1.10858E+05 -3.26371E+04  2.02325E+03 -5.08659E+04  5.38217E+04  4.47832E+02
  3.48113E+04  5.27391E+04 -1.70390E+04  7.48465E+04 -6.04035E+04  6.23764E+04 -8.25377E+04  3.18970E+04
 -7.86600E+04 -1.06936E+04 -5.58028E+04 -4.98891E+04 -1.55641E+04 -6.76459E+04  2.68766E+04 -4.46805E+04
  3.85272E+04  4.10425E+03  1.52181E+04  4.68210E+04 -3.39820E+04  4.62008E+04 -6.50822E+04 -9.39584E+02
 -5.12124E+04 -5.64312E+04 -5.67157E+03 -7.42502E+04  3.26556E+04 -5.26329E+04  4.52025E+04 -1.57176E+04
  4.07567E+04  1.11018E+04  3.02969E+04  2.37287E+04  1.61571E+04  2.77254E+04 -3.96878E+03  2.60392E+04
 -2.09493E+04  1.32533E+04 -1.94278E+04 -4.12724E+03  3.89229E+03 -7.45413E+03  2.09291E+04  1.02390E+04
  7.69199E+03  3.22780E+04 -2.94137E+04  3.30804E+04 -6.07311E+04  1.69945E+03 -5.51619E+04 -4.08477E+04
 -1.21888E+04 -6.02717E+04  3.76363E+04 -4.24025E+04  5.44123E+04 -1.92505E+03  3.10016E+04  2.99072E+04
 -6.51372E+03  3.21966E+04 -2.82247E+04  1.17790E+04 -2.63329E+04 -5.67096E+03 -1.38994E+04 -9.68111E+03
 -6.48624E+03 -1.09681E+04 -9.48853E+02 -1.58292E+04  6.72642E+03 -2.27454E+04  1.48372E+04 -1.38187E+04
  1.25361E+04  3.90466E+03 -5.34053E+03  1.27477E+04 -1.89691E+04 -1.81947E+03 -7.99245E+03 -2.95336E+04
  1.98821E+04 -3.91783E+04  4.36590E+04 -1.84683E+04  4.10422E+04  1.73835E+04  1.37536E+04  4.06038E+04
 -1.46043E+04  3.03556E+04 -2.23129E+04  5.83789E+02 -7.70230E+03 -2.58248E+04  1.99543E+04 -3.07021E+04
  3.71694E+04 -7.06172E+03  3.01473E+04  2.21142E+04  1.44045E+04  4.10411E+04 -7.60480E+03  4.35469E+04
 -2.70509E+04  2.81822E+04 -3.57190E+04  7.51884E+03 -3.73725E+04 -1.43461E+04 -2.04373E+04 -3.30037E+04
  6.63900E+03 -3.24329E+04  2.86322E+04 -1.18225E+04  2.57789E+04  1.02978E+04  2.35753E+03  1.73831E+04
 -1.27219E+04  7.12189E+03 -9.57716E+03 -7.05610E+03  6.23060E+03 -9.91081E+03  1.70688E+04  6.50122E+03
  1.21051E+04  2.14997E+04 -6.47458E+03  2.29047E+04 -2.08295E+04  8.14197E+03 -2.39186E+04 -6.09949E+03
 -1.54992E+04 -1.62619E+04 -4.77919E+03 -1.54765E+04  3.15587E+03 -1.26504E+04  1.13798E+04 -1.30224E+04
  2.00359E+04 -1.15023E+04  2.67147E+04  5.44281E+02  2.01226E+04  1.54498E+04  3.99376E+03  3.10649E+04
 -1.55242E+04  2.63357E+04 -2.48810E+04  8.91374E+03 -1.95524E+04 -1.03089E+04 -3.48030E+03 -1.40149E+04
  3.00371E+03 -4.48406E+03 -2.25854E+03  4.60701E+03 -1.23237E+04  5.05016E+03 -1.29452E+04 -4.14540E+03
 -8.61582E+03 -1.46381E+04  4.38320E+03 -1.83549E+04  1.17418E+04 -1.28242E+04  1.39274E+04 -1.22834E+03
  8.07341E+03  9.93969E+03 -1.01629E+03  1.42701E+04 -9.72605E+03  8.42734E+03 -1.41841E+04 -3.62236E+03
 -1.07282E+04 -1.33029E+04 -1.49792E+03 -1.76170E+04  8.09458E+03 -1.43839E+04  1.47049E+04 -6.22047E+03
  1.32456E+04  1.42235E+03  9.48241E+03  4.11326E+03  5.43708E+03  7.63753E+02  6.80312E+03 -1.36458E+03
  1.23131E+04  2.30331E+03  1.35783E+04  1.19467E+04  7.55470E+03  2.26259E+04 -3.12735E+03  2.42871E+04
 -1.43950E+04  1.77925E+04 -2.19346E+04  8.36539E+03 -2.21705E+04 -1.46300E+03 -1.92529E+04 -1.26921E+04
 -9.39538E+03 -1.80940E+04  5.78884E+03 -1.72286E+04  1.49872E+04 -1.08036E+04  1.42081E+04  3.57947E+03
  6.27309E+03  1.08058E+04 -6.65109E+03  9.46317E+03 -1.24172E+04  2.37193E+03 -9.83064E+03 -7.52540E+03
 -3.50012E+01 -1.18550E+04  5.68536E+03 -9.04705E+03  7.12390E+03 -1.88110E+03  7.21952E+02  4.39429E+03
 -5.22917E+03  9.00804E+02 -3.31905E+03 -4.63080E+03  1.02027E+03 -9.22154E+03  7.37059E+03 -8.67742E+03
  1.11205E+04 -4.36134E+03  1.03697E+04  2.38773E+03  8.48891E+03  7.74561E+03  4.59411E+03  1.26464E+04
 -1.23608E+03  1.36334E+04 -8.48486E+03  8.67208E+03 -9.85889E+03  2.64942E+03 -7.77650E+03 -1.63453E+03
 -4.84693E+03 -2.56215E+03 -8.29019E+02  1.22689E+03 -2.22364E+03  1.85106E+03 -2.86663E+03  3.00759E+03
 -7.29678E+03 -5.47031E+02 -7.91242E+03 -7.05485E+03 -3.30546E+03 -1.07959E+04  2.80476E+03 -7.24381E+03
  6.41286E+03 -3.42655E+03  4.69228E+03  1.94119E+03  9.78274E+02  2.54006E+03 -2.84713E+03 -2.95793E+02
 -2.53706E+03 -4.75111E+03 -7.02625E+02 -6.06412E+03  3.26330E+03 -6.25570E+03  8.90547E+03 -3.39295E+03
  1.07899E+04  8.10922E+02  8.22707E+03  5.56838E+03  1.75288E+03  7.01940E+03 -4.97590E+03  8.00083E+03
 -6.57027E+03  2.42221E+03 -3.61116E+03 -6.95834E+02  9.49608E+02 -1.16222E+03  3.98322E+03 -1.73439E+03
  3.75519E+03  3.19069E+03  1.04909E+03  5.97132E+03 -4.01773E+03  5.36088E+03 -6.73569E+03  1.43013E+03
 -4.44549E+03 -2.95349E+03 -6.43863E+02 -6.01174E+03  3.01894E+03 -2.71703E+03  3.18723E+03  4.32515E+02
 -6.11787E+01  2.65685E+03 -3.86157E+03  4.04160E+03 -3.69227E+03  2.04113E+03 -3.62317E+03 -4.35140E+02
 -2.28141E+03 -5.25093E+03  1.12608E+03 -5.51576E+03  4.72256E+03 -3.48588E+03  5.19774E+03  1.00869E+03
  4.11397E+03  4.02622E+03  4.46052E+02  7.09987E+03 -3.62659E+03  3.63879E+03 -4.13707E+03 -1.64993E+02
 -5.30565E+03 -4.90591E+03 -1.74313E+03 -4.28778E+03  2.11275E+03 -4.04114E+03  2.40140E+03 -3.35186E+03
  2.96881E+03  3.23957E+01  5.11500E+02  1.39922E+03  9.30232E+02  3.17081E+02 -5.82151E+02 -9.94876E+02
  2.64122E+03 -6.04656E+02  4.10663E+03  6.36176E+02  4.34585E+03  2.22456E+03  4.65267E+03  5.55023E+03
 -9.21214E+02  6.90238E+03 -6.57440E+03  5.40877E+03 -8.50793E+03  8.31443E+02 -6.61889E+03 -2.10026E+03
 -3.44968E+03 -5.41677E+03 -7.55651E+02 -4.13545E+03  1.40706E+03 -1.39322E+03  1.59554E+03 -1.89477E+03
  9.70608E+02 -1.52668E+03  1.98609E+03 -2.06359E+03  3.56838E+03 -4.98024E+02  3.78532E+03 -4.98728E+01
  3.72338E+03  1.25169E+03  5.45192E+02  3.05738E+03 -1.45905E+03  1.85669E+03 -3.54233E+03  2.56896E+03
 -4.05916E+03 -1.14523E+03 -1.05268E+03 -2.47166E+03  3.69978E+02 -3.79636E+03  3.05548E+03 -4.78037E+03
  4.29400E+03 -3.01966E+03  5.76059E+03  6.18467E+02  4.21140E+03  3.53179E+03  9.85411E+02  5.56545E+03
 -1.58444E+03  5.01234E+03 -3.39401E+03  1.95996E+03 -1.55955E+03 -1.30485E+03  4.19762E+02 -5.66184E+02
 -8.46804E+02  4.83507E+02 -1.01775E+03  1.41957E+03 -2.23869E+03  5.95738E+02 -3.87628E+03  9.89020E+01
 -8.64253E+02 -4.14093E+03  1.51074E+03 -3.55811E+03  2.12100E+03 -4.06445E+03  2.73762E+03 -5.02612E+02
  3.26218E+03  1.57961E+03  1.40293E+03  2.27082E+03 -6.46972E+02  3.69702E+03 -2.22506E+03  2.11787E+03
 -2.57538E+03  3.50624E+02 -3.04385E+03 -2.38603E+03 -1.30996E+02 -2.18378E+03  1.19404E+03 -2.00187E+03
  1.85157E+03 -1.32997E+03  1.31239E+03  2.85305E+02  6.36202E+02  1.58156E+03  4.97967E+02 -1.68722E+02
  1.81000E+03  6.23203E+02  1.74296E+03  1.62621E+03  8.42992E+02  2.25373E+03  1.72123E+03  7.59525E+02
 -7.95898E+02  1.87763E+03 -1.87902E+03  3.31640E+03 -1.90575E+03  6.17038E+02 -2.99687E+03  4.00765E+01
 -1.28330E+03 -2.95382E+03  6.82633E+02 -3.81142E+03  1.23813E+03 -1.46966E+03  2.21075E+03 -8.41698E+02
  1.49942E+03  8.92049E+02  1.60124E+02  1.86993E+03 -7.75046E+02  9.51129E+02 -2.46864E+02 -4.68342E+02
 -6.24534E+02 -9.63929E+02  1.17258E+03 -6.38464E+02  8.86454E+02 -6.03488E+02  9.56233E+02  2.59687E+01
  3.15741E+02 -2.31093E+02  6.42043E+02 -3.98247E+02  5.53809E+01  7.42658E+02  1.55903E+03 -1.56714E+02
  3.23118E+02 -5.38214E+01  1.85949E+03  2.65692E+02 -2.66380E+02  2.28651E+03 -4.19119E+02  2.26025E+03
 -1.48730E+03  4.93321E+02 -1.18744E+03  5.57296E+02 -1.49415E+03 -2.09720E+02  7.75668E+01 -6.36605E+02
  4.09541E+02 -9.97091E+02  5.29344E+02 -6.22568E+02  2.29805E+02  1.11638E+03 -8.87845E+02  5.09253E+02
 -1.10934E+03  6.92274E+02 -9.33656E+02 -1.20219E+03 -7.42911E+02 -1.56595E+03  3.05850E+02 -1.02031E+03
  2.65531E+02 -1.84302E+02  4.76095E+02 -7.70517E+01  1.20013E+03 -4.18246E+02  4.10881E+02  4.99589E+02
 -6.56339E+02 -3.05263E+02 -9.93668E+02  8.51167E+01  3.46611E+02 -5.25931E+02  1.27467E+03 -9.37823E+02
  4.82009E+02 -1.56727E+02  2.02791E+03  4.79106E+02  1.77831E+03  1.26457E+03  3.68130E+01  1.67033E+03
 -1.01945E+03 -1.89482E+02 -6.86760E+02 -2.54627E+02 -1.93819E+02 -1.12368E+03  3.76100E+02 -3.44242E+02
  1.19972E+03 -9.17752E+02  7.38302E+02  9.21971E+02 -6.07002E+00  8.14599E+02  1.11012E+02  1.28169E+03
 -3.32180E+01  9.30229E+02 -8.05073E+01  2.82554E+02 -1.45138E+02  7.33023E+02 -5.53786E+02  2.58522E+02
 -5.12508E+02  9.86429E+02 -1.36558E+03 -5.26787E+02 -1.46514E+03  1.87406E+02 -2.17446E+03 -6.67088E+02
 -1.00816E+03 -1.67821E+03  2.53716E+02 -2.00285E+03  6.93244E+02 -2.21978E+03  1.89743E+03 -6.28215E+02
  1.98273E+03 -2.80314E+02  8.45779E+02  1.16431E+03 -6.89622E+02  1.47416E+03 -3.27236E+02  8.42231E+02
 -4.34704E+02  5.46214E+02 -8.06697E+02 -6.67412E+01 -7.47773E+02  6.70205E+02 -8.07520E+02  2.25548E+02
 -8.01371E+02 -4.07887E+02 -2.48459E+02 -2.60954E+01  6.24279E+02 -7.11395E+02 -2.80519E+02 -6.76966E+02
  8.48379E+02 -7.85637E+02 -1.48822E+02  1.79258E+02  8.40029E+02  3.13521E+02 -6.30231E+02  1.39164E+03
 -5.48052E+02  2.23629E+03 -1.26755E+03  1.16972E+03 -9.77415E+02 -3.54763E+02 -2.21555E+02 -7.57453E+02
 -5.61552E+02 -6.97539E+02  3.55569E+02 -1.10207E+03  4.99160E+02 -7.37009E+02  4.37085E+02  7.47083E+02
  8.52331E+02  1.95773E+02  2.26158E+00 -1.01759E+02 -5.96594E+02 -8.13902E+00 -2.78250E+02 -3.31425E+02
  3.39077E+02  6.66246E+02 -4.16109E+00  8.33802E+02 -2.26968E+02  6.21684E+02  4.72027E+02 -2.27567E+02
 -4.44519E+02  5.69683E+02 -9.91380E+01  8.48500E+02 -4.19325E+02  7.33572E+01 -2.91913E+02 -4.74363E+02
  6.20315E+02 -3.88438E+02  1.84933E+02  2.92388E+02  5.64617E+02 -3.32272E+02  5.31979E+02  2.73718E+02
  5.02367E+02  3.27413E+02  1.35485E+02  5.39903E+02 -6.62677E+02  1.18823E+02 -4.56854E+01 -5.72659E+01
 -2.83127E+02 -3.20541E+02 -4.17251E+02 -1.14237E+01 -1.00698E+03 -1.11544E+01 -6.39375E+02 -1.56478E+02
 -1.05731E+03  9.55929E+02 -5.60042E+02 -9.82211E+02  5.52264E+02 -9.80703E+02  5.84355E+02  2.88909E+02
  5.78009E+02  2.14917E+02 -3.31885E+02  9.43058E+01  4.74251E+01  6.00810E+02 -3.21735E+02 -1.31191E+01
