 $NMID ID='MM_0lb_SNR400_8hz_g40_51.RAW', FMTDAT='(8E13.5)'
 TRAMP=1., VOLUME=1. $END
  3.09349E+05  1.18382E+03  3.37768E+05  2.49893E+05  8.47601E+04  3.38224E+05 -1.32404E+05  2.51939E+05
 -1.90651E+05  8.38738E+04 -1.12851E+05 -3.28268E+04  3.70501E+02 -5.10241E+04  5.35472E+04 -1.13308E+03
  3.50359E+04  5.26881E+04 -1.72746E+04  7.60618E+04 -6.07783E+04  6.39026E+04 -8.43901E+04  3.23306E+04
 -8.16379E+04 -1.19647E+04 -5.80207E+04 -5.30514E+04 -1.58475E+04 -7.07094E+04  2.78030E+04 -4.67795E+04
  4.09305E+04  3.99250E+03  1.74521E+04  4.90506E+04 -3.51142E+04  4.73883E+04 -6.77937E+04  2.91768E+02
 -5.55793E+04 -5.84350E+04 -6.90443E+03 -7.85682E+04  3.47977E+04 -5.74881E+04  4.95985E+04 -1.80131E+04
  4.52590E+04  1.14607E+04  3.30738E+04  2.67754E+04  1.71891E+04  2.99345E+04 -5.48485E+03  2.78113E+04
 -2.17672E+04  1.17873E+04 -1.84959E+04 -6.04614E+03  6.32294E+03 -7.48302E+03  2.32310E+04  1.34237E+04
  6.79876E+03  3.73873E+04 -3.41726E+04  3.68463E+04 -6.59145E+04  1.99182E+03 -5.83675E+04 -4.49458E+04
 -1.15146E+04 -6.62039E+04  4.12519E+04 -4.63280E+04  6.16536E+04 -2.29502E+03  3.66877E+04  3.50106E+04
 -5.56482E+03  3.91140E+04 -3.17674E+04  1.94524E+04 -3.35803E+04 -3.24900E+03 -1.94020E+04 -1.19409E+04
 -9.64635E+03 -1.48271E+04  6.96287E+02 -1.98490E+04  8.41470E+03 -2.32353E+04  1.64314E+04 -1.31511E+04
  1.05697E+04  6.03327E+03 -1.03635E+04  1.29738E+04 -2.30623E+04 -6.18884E+03 -8.45876E+03 -3.80202E+04
  2.54070E+04 -4.70275E+04  5.17368E+04 -2.14869E+04  4.86739E+04  2.10486E+04  1.74142E+04  4.73139E+04
 -1.59909E+04  3.65237E+04 -2.75405E+04  2.59953E+03 -1.12709E+04 -2.96489E+04  2.07651E+04 -3.64236E+04
  4.43914E+04 -1.09243E+04  4.03861E+04  2.51038E+04  2.10543E+04  5.20631E+04 -8.46924E+03  5.63435E+04
 -3.52144E+04  3.75981E+04 -4.69378E+04  1.09739E+04 -4.74807E+04 -1.74154E+04 -2.63699E+04 -4.20904E+04
  8.80366E+03 -4.24028E+04  3.41533E+04 -1.73703E+04  3.24598E+04  1.15166E+04  5.22985E+03  2.05560E+04
 -1.40138E+04  9.27044E+03 -1.07887E+04 -7.32698E+03  5.09777E+03 -1.16046E+04  1.96743E+04  5.55053E+03
  1.46666E+04  2.30609E+04 -4.94798E+03  2.68594E+04 -2.32130E+04  1.43036E+04 -3.09309E+04 -2.75649E+03
 -2.53292E+04 -1.85501E+04 -1.16909E+04 -2.54907E+04  3.52314E+03 -2.52590E+04  2.02904E+04 -2.35592E+04
  3.22487E+04 -1.45567E+04  3.81371E+04  4.65409E+03  2.68760E+04  2.53835E+04  4.85189E+03  4.14849E+04
 -1.99535E+04  3.33184E+04 -3.07050E+04  1.21630E+04 -2.34004E+04 -1.01599E+04 -4.66927E+03 -1.30316E+04
  7.33354E+02 -6.62289E+02 -8.06770E+03  8.23124E+03 -1.99220E+04  5.53426E+03 -1.98317E+04 -8.62732E+03
 -1.17453E+04 -2.36817E+04  6.66556E+03 -2.80747E+04  1.89793E+04 -1.97195E+04  2.32594E+04 -2.61479E+03
  1.50716E+04  1.64573E+04 -1.09409E+03  2.39422E+04 -1.65784E+04  1.22581E+04 -2.40561E+04 -4.20231E+03
 -1.80841E+04 -2.17532E+04 -2.49671E+03 -2.82289E+04  1.34304E+04 -2.32452E+04  2.38687E+04 -1.27137E+04
  2.19515E+04 -9.25673E+02  1.60158E+04  5.17930E+03  9.37084E+03  1.68122E+03  1.16767E+04 -2.61942E+03
  2.24479E+04  2.57626E+03  2.66483E+04  1.80747E+04  1.77305E+04  3.79198E+04 -3.40220E+03  4.46228E+04
 -2.45461E+04  3.79523E+04 -4.30640E+04  1.93457E+04 -4.59725E+04 -3.77465E+03 -3.60047E+04 -2.67415E+04
 -1.44229E+04 -3.81169E+04  1.47422E+04 -3.22451E+04  2.79328E+04 -1.58151E+04  2.44161E+04  8.09754E+03
  8.30997E+03  1.89778E+04 -1.24258E+04  1.63918E+04 -2.06848E+04  1.75142E+03 -1.54337E+04 -1.30156E+04
 -5.44526E+02 -1.97497E+04  1.04516E+04 -1.40638E+04  1.41955E+04 -7.11211E+02  4.45087E+03  8.94189E+03
 -8.85996E+03  5.17261E+03 -1.01371E+04 -7.90971E+03 -2.31950E+03 -1.83170E+04  1.16100E+04 -1.96570E+04
  2.34637E+04 -1.08854E+04  2.70178E+04  3.59078E+03  2.40167E+04  1.89943E+04  1.13781E+04  3.00646E+04
 -6.00621E+03  3.15041E+04 -2.07378E+04  1.89885E+04 -2.34076E+04  4.36177E+03 -1.57748E+04 -6.33401E+03
 -6.54196E+03 -7.02856E+03 -6.65001E+02  3.98157E+02 -3.36653E+03  3.29679E+03 -8.74986E+03  5.59963E+03
 -1.46276E+04 -9.54588E+02 -1.48768E+04 -1.22543E+04 -5.88354E+03 -1.99343E+04  7.02589E+03 -1.58598E+04
  1.26733E+04 -5.92308E+03  9.28987E+03  3.85746E+03  1.59615E+01  5.97426E+03 -8.15454E+03  1.32177E+02
 -7.63877E+03 -1.04882E+04 -6.00578E+02 -1.57447E+04  9.97166E+03 -1.59666E+04  2.13130E+04 -9.00554E+03
  2.45883E+04  2.58087E+03  1.71546E+04  1.46441E+04  3.32831E+03  1.94379E+04 -9.12313E+03  1.65705E+04
 -1.23792E+04  4.54237E+03 -7.52638E+03 -3.12979E+03  2.19230E+03 -4.09209E+03  8.64363E+03 -9.99327E+02
  7.13560E+03  7.18667E+03  1.77286E+03  1.29195E+04 -9.34133E+03  1.26263E+04 -1.53722E+04  2.71302E+03
 -1.16672E+04 -8.05008E+03  4.63742E+02 -1.41813E+04  8.48683E+03 -7.52826E+03  1.00440E+04  3.38448E+03
  2.24174E+03  9.55996E+03 -9.08979E+03  1.15615E+04 -1.37534E+04  5.06852E+03 -1.50498E+04 -5.51887E+03
 -8.21204E+03 -1.61833E+04  3.90720E+03 -1.89288E+04  1.56536E+04 -1.10726E+04  1.73750E+04  2.81170E+03
  1.03870E+04  1.37792E+04 -1.43431E+03  1.68027E+04 -1.22415E+04  8.37812E+03 -1.27794E+04 -1.61728E+03
 -1.08598E+04 -1.09783E+04 -8.18617E+02 -1.20515E+04  5.77901E+03 -9.06556E+03  8.07806E+03 -3.55925E+03
  4.36572E+03  2.33235E+03 -1.35073E+03  1.91370E+03 -1.09763E+03 -3.54265E+03  2.82221E+03 -8.63624E+03
  1.22004E+04 -5.19826E+03  1.67836E+04  2.60783E+03  1.68228E+04  1.16727E+04  1.05403E+04  2.23159E+04
 -5.35291E+03  2.48107E+04 -2.04696E+04  1.80003E+04 -2.78803E+04  4.09499E+03 -2.21182E+04 -1.00741E+04
 -1.06936E+04 -1.70649E+04  3.87079E+02 -1.54275E+04  5.63439E+03 -8.91831E+03  5.29217E+03 -4.46559E+03
  3.92073E+03 -3.06879E+03  4.08565E+03 -3.05263E+03  6.16275E+03 -3.79234E+03  8.51278E+03 -1.54032E+03
  1.14313E+04  2.50121E+03  6.23208E+03  9.52238E+03 -2.50229E+03  1.19987E+04 -1.15752E+04  9.79217E+03
 -1.63348E+04 -2.36480E+03 -9.92857E+03 -1.10977E+04 -5.66636E+02 -1.65082E+04  7.61829E+03 -1.68248E+04
  1.72433E+04 -9.56102E+03  2.04686E+04  3.40804E+03  1.41593E+04  1.39832E+04  3.46959E+03  1.94527E+04
 -7.75417E+03  1.52489E+04 -1.05793E+04  5.91298E+03 -7.63571E+03 -1.62165E+03 -3.03588E+03 -2.51149E+03
 -1.39167E+03 -2.05386E+01 -2.85186E+03  3.63081E+03 -7.08480E+03  2.76513E+03 -1.07552E+04 -2.14883E+03
 -7.31281E+03 -1.13217E+04  5.38557E+02 -1.56510E+04  9.74593E+03 -1.46157E+04  1.53126E+04 -4.27354E+03
  1.53052E+04  8.16358E+03  7.45666E+03  1.32432E+04 -2.37605E+03  1.54690E+04 -1.14761E+04  1.02036E+04
 -1.53171E+04  1.23223E+03 -1.12706E+04 -9.54716E+03 -1.53948E+03 -1.31962E+04  6.72908E+03 -1.02250E+04
  8.72913E+03 -2.74990E+03  6.85585E+03  2.70873E+03  2.52218E+03  4.88598E+03  1.45306E+03  2.47882E+03
  3.46371E+03  1.03815E+03  2.91553E+03  2.41747E+03  3.93040E+03  5.10642E+03  3.69778E+03  8.95988E+03
 -3.08084E+03  1.31220E+04 -1.12704E+04  1.20296E+04 -1.68702E+04  2.98761E+03 -1.69602E+04 -7.48102E+03
 -8.01111E+03 -1.61979E+04  2.57698E+03 -1.73534E+04  1.04474E+04 -1.07981E+04  1.29527E+04 -2.58490E+03
  1.03288E+04  6.31482E+03  3.17350E+03  8.97659E+03 -4.47582E+03  5.65554E+03 -6.62121E+03 -8.58435E+02
 -2.66869E+03 -6.45446E+03  3.08924E+03 -7.10294E+03  6.07139E+03 -3.88894E+03  5.56859E+03  1.49859E+03
  4.13119E+03  3.27613E+03  1.54363E+03  2.55496E+03 -5.99666E+02  2.75140E+03  9.65481E+02 -1.15058E+03
  3.49781E+03 -4.71231E+02  6.17533E+03  2.59093E+03  4.45869E+03  8.63190E+03 -1.47617E+03  1.04447E+04
 -7.85861E+03  7.01602E+03 -1.01890E+04  2.03989E+03 -9.38007E+03 -3.32838E+03 -3.54580E+03 -6.42343E+03
  9.10291E+02 -5.76547E+03  4.89587E+03 -3.22541E+03  4.05680E+03  2.81962E+03 -1.51402E+03  4.87263E+03
 -6.41772E+03  3.37788E+03 -7.57561E+03 -3.63373E+03 -3.74518E+03 -8.83834E+03  1.16758E+03 -9.04402E+03
  4.99998E+03 -5.99993E+03  7.09770E+03 -8.97422E+02  5.79588E+03  2.20358E+03  2.53840E+02  4.76480E+03
 -3.06274E+03  2.17184E+03 -4.34310E+03 -3.13992E+03  1.89674E+03 -7.74569E+03  8.01673E+03 -5.44581E+03
  1.11114E+04  4.50543E+02  9.97086E+03  6.96552E+03  3.14513E+03  1.10421E+04 -4.11429E+03  1.03640E+04
 -8.90393E+03  4.68796E+03 -1.01781E+04 -2.54567E+03 -5.30010E+03 -7.06310E+03  7.76936E+02 -7.35690E+03
  6.46038E+03 -3.43601E+03  5.58554E+03  2.97923E+03  2.09183E+03  6.40000E+03 -2.01192E+03  5.75066E+03
 -3.17354E+03  2.85099E+03 -2.66439E+03  1.18523E+03 -3.47409E+02  9.81409E+02 -2.24692E+03  3.07495E+03
 -2.66405E+03  4.63781E+03 -8.02808E+03  3.46184E+03 -1.19597E+04  2.79255E+02 -1.29455E+04 -7.13482E+03
 -6.68299E+03 -1.44090E+04  2.69280E+03 -1.72677E+04  1.03132E+04 -1.26395E+04  1.61405E+04 -5.30218E+03
  1.53316E+04  3.35920E+03  9.72832E+03  1.11069E+04  9.18242E+02  1.13553E+04 -4.36907E+03  9.51092E+03
 -6.72022E+03  3.30213E+03 -4.38995E+03 -1.12946E+03 -6.42414E+02 -1.37750E+03 -8.05982E+02  5.24250E+02
 -2.68930E+03  4.28344E+01 -2.70646E+03 -9.56366E+02 -8.12147E+02 -2.27974E+03  8.40393E+02 -4.60653E+03
  4.83924E+03 -2.96008E+03  7.06163E+03 -2.71365E+02  8.01944E+03  5.98950E+03  2.44373E+03  1.19410E+04
 -4.71162E+03  1.34907E+04 -1.26410E+04  8.10183E+03 -1.50658E+04 -1.69740E+03 -1.10446E+04 -8.28375E+03
 -4.06623E+03 -1.23285E+04  3.08633E+03 -1.07188E+04  7.73151E+03 -6.18785E+03  6.89044E+03  1.17912E+03
  4.46987E+03  3.59185E+03 -5.90463E+02  3.92443E+03 -2.28136E+03 -1.18550E+02 -1.54714E+02 -3.14506E+03
  4.21795E+03 -1.22449E+03  5.43100E+03  1.44015E+03  3.52582E+03  4.08238E+03  5.87294E+02  6.40648E+03
 -5.15837E+03  5.48470E+03 -8.72654E+03  6.84180E+02 -6.61930E+03 -5.48297E+03 -1.24539E+03 -9.87201E+03
  6.39054E+03 -8.61021E+03  9.07645E+03 -2.75032E+03  9.00667E+03  3.22501E+03  5.28024E+03  7.29595E+03
  1.57803E+03  6.99682E+03 -2.21361E+03  6.20835E+03 -5.01535E+03  2.74057E+03 -4.66218E+03 -2.47679E+02
 -1.78320E+03 -4.05170E+02 -2.72101E+03  1.71130E+03 -4.35673E+03  1.57021E+03 -6.18757E+03 -1.17993E+03
 -5.72759E+03 -4.96050E+03 -1.79460E+03 -7.96447E+03  4.01410E+03 -8.01026E+03  6.88104E+03 -4.35502E+03
  7.73645E+03  1.58028E+03  4.87246E+03  5.81391E+03  1.65669E+02  8.49018E+03 -6.22948E+03  5.07503E+03
