 $NMID ID='MM_0lb_SNR400_16hz_g45_30.RAW', FMTDAT='(8E13.5)'
 TRAMP=1., VOLUME=1. $END
  3.10176E+05  4.63423E+02  3.38287E+05  2.50124E+05  8.44027E+04  3.37384E+05 -1.32910E+05  2.50550E+05
 -1.89989E+05  8.26668E+04 -1.10902E+05 -3.23306E+04  7.56604E+02 -5.01350E+04  5.39023E+04 -6.32739E+01
  3.51018E+04  5.24585E+04 -1.74616E+04  7.51501E+04 -6.08518E+04  6.29958E+04 -8.35916E+04  3.14501E+04
 -8.07976E+04 -1.13610E+04 -5.68969E+04 -5.07526E+04 -1.46219E+04 -6.91208E+04  2.65424E+04 -4.49681E+04
  3.96008E+04  4.06326E+03  1.58486E+04  4.75154E+04 -3.41997E+04  4.63129E+04 -6.61595E+04 -7.01967E+02
 -5.21491E+04 -5.64132E+04 -6.60731E+03 -7.65333E+04  3.34903E+04 -5.44204E+04  4.74875E+04 -1.64343E+04
  4.32355E+04  1.12179E+04  3.08511E+04  2.50541E+04  1.52491E+04  2.84846E+04 -5.25577E+03  2.62208E+04
 -2.19250E+04  1.31678E+04 -1.87743E+04 -4.35138E+03  4.73428E+03 -7.20258E+03  2.14666E+04  1.12469E+04
  6.91533E+03  3.41159E+04 -3.14887E+04  3.44915E+04 -6.22201E+04  2.16191E+03 -5.62431E+04 -4.18612E+04
 -1.25469E+04 -6.20061E+04  3.88775E+04 -4.44774E+04  5.68387E+04 -1.64991E+03  3.28880E+04  3.13550E+04
 -6.23454E+03  3.39611E+04 -2.94846E+04  1.46217E+04 -2.87008E+04 -4.95474E+03 -1.53916E+04 -1.00425E+04
 -7.66548E+03 -1.20253E+04 -1.02625E+03 -1.71236E+04  6.89805E+03 -2.30025E+04  1.59304E+04 -1.36356E+04
  1.27730E+04  4.88573E+03 -7.15047E+03  1.28029E+04 -2.03729E+04 -3.11384E+03 -7.91853E+03 -3.14341E+04
  2.15993E+04 -4.14983E+04  4.64708E+04 -1.92981E+04  4.38461E+04  1.87924E+04  1.51262E+04  4.20636E+04
 -1.55262E+04  3.19712E+04 -2.41515E+04  1.18554E+03 -9.12110E+03 -2.70037E+04  2.10079E+04 -3.21726E+04
  3.92529E+04 -8.18109E+03  3.38162E+04  2.36280E+04  1.64264E+04  4.46594E+04 -7.08406E+03  4.72085E+04
 -2.99582E+04  3.22419E+04 -3.96185E+04  8.48530E+03 -4.04373E+04 -1.61189E+04 -2.17240E+04 -3.61039E+04
  7.77736E+03 -3.59709E+04  3.04765E+04 -1.39419E+04  2.78614E+04  1.04928E+04  3.04131E+03  1.83847E+04
 -1.28573E+04  7.31759E+03 -9.92374E+03 -7.81719E+03  5.91725E+03 -1.00257E+04  1.76219E+04  6.17001E+03
  1.30166E+04  2.19262E+04 -6.52855E+03  2.39684E+04 -2.16259E+04  1.01742E+04 -2.63748E+04 -5.44172E+03
 -1.86353E+04 -1.68054E+04 -7.75818E+03 -1.78823E+04  3.34475E+03 -1.69542E+04  1.40055E+04 -1.66894E+04
  2.34206E+04 -1.21193E+04  3.04491E+04  1.91324E+03  2.27795E+04  1.77333E+04  4.05420E+03  3.50080E+04
 -1.71818E+04  2.84888E+04 -2.67120E+04  9.79842E+03 -2.02625E+04 -1.03943E+04 -4.18119E+03 -1.36689E+04
  2.32820E+03 -3.57890E+03 -3.30032E+03  5.95156E+03 -1.40578E+04  5.19918E+03 -1.46716E+04 -6.12074E+03
 -9.50325E+03 -1.67513E+04  5.30969E+03 -2.12664E+04  1.38504E+04 -1.52432E+04  1.58022E+04 -2.18635E+03
  1.06503E+04  1.23009E+04 -1.32076E+03  1.67208E+04 -1.13719E+04  1.00647E+04 -1.71903E+04 -4.17209E+03
 -1.30333E+04 -1.52851E+04 -1.92154E+03 -2.07544E+04  9.41675E+03 -1.66002E+04  1.76420E+04 -8.18781E+03
  1.58251E+04  6.13080E+02  1.15527E+04  4.09146E+03  6.04732E+03  7.99244E+02  8.82920E+03 -1.72000E+03
  1.50584E+04  3.01678E+03  1.66313E+04  1.34180E+04  1.12769E+04  2.73300E+04 -3.02386E+03  3.01195E+04
 -1.77520E+04  2.32625E+04 -2.77263E+04  1.11655E+04 -2.87552E+04 -1.92597E+03 -2.40949E+04 -1.66248E+04
 -1.15725E+04 -2.38062E+04  8.16323E+03 -2.14520E+04  1.92437E+04 -1.21878E+04  1.72600E+04  4.75677E+03
  6.33557E+03  1.23274E+04 -8.11210E+03  1.14235E+04 -1.50834E+04  3.15426E+03 -1.11803E+04 -8.88201E+03
 -2.28896E+02 -1.42737E+04  6.87497E+03 -1.05697E+04  8.97152E+03 -1.23971E+03  1.47328E+03  5.93258E+03
 -6.61964E+03  1.73457E+03 -5.38280E+03 -4.88365E+03  3.48277E+02 -1.19251E+04  9.15580E+03 -1.16308E+04
  1.44560E+04 -6.18736E+03  1.48518E+04  2.95643E+03  1.29317E+04  1.11336E+04  6.12008E+03  1.68952E+04
 -2.81035E+03  1.86267E+04 -1.18124E+04  1.20757E+04 -1.33152E+04  3.32187E+03 -1.02315E+04 -2.92943E+03
 -4.75156E+03 -3.83837E+03 -6.46136E+02  1.38349E+03 -2.16811E+03  2.05144E+03 -4.35502E+03  4.18202E+03
 -9.52589E+03 -1.01737E+03 -1.01196E+04 -8.11092E+03 -3.88038E+03 -1.30285E+04  4.17856E+03 -9.59454E+03
  8.27727E+03 -4.29775E+03  6.35608E+03  2.70250E+03  7.67524E+02  3.72907E+03 -4.39122E+03 -1.51660E+02
 -4.64053E+03 -5.87219E+03 -1.03049E+03 -8.97829E+03  5.17763E+03 -9.52015E+03  1.18476E+04 -4.57142E+03
  1.33231E+04  5.74483E+02  9.91802E+03  7.96989E+03  2.28622E+03  1.08051E+04 -6.27727E+03  9.08796E+03
 -8.20177E+03  2.75356E+03 -4.03047E+03 -1.59629E+03  1.30380E+03 -2.41120E+03  5.39074E+03 -6.33094E+02
  4.39567E+03  4.41594E+03  7.06683E+02  7.44684E+03 -5.20858E+03  7.36742E+03 -9.50401E+03  2.00122E+03
 -6.11667E+03 -4.77535E+03  3.34471E+02 -7.94820E+03  4.64693E+03 -3.67233E+03  4.24819E+03  9.40050E+02
  5.67925E+02  4.24619E+03 -4.30171E+03  6.08715E+03 -6.16528E+03  2.97787E+03 -6.15652E+03 -2.22154E+03
 -4.01514E+03 -7.91491E+03  1.51624E+03 -8.59554E+03  7.51886E+03 -5.90471E+03  8.01793E+03  1.27008E+03
  5.48967E+03  6.54576E+03 -1.73869E+01  9.09772E+03 -6.28781E+03  5.33309E+03 -6.74050E+03 -4.03108E+02
 -6.50444E+03 -6.36239E+03 -1.35739E+03 -6.51525E+03  3.26716E+03 -5.29049E+03  3.49134E+03 -3.06941E+03
  3.35125E+03  3.36691E+02 -5.88364E+02  1.49715E+03  8.16036E+02 -4.65770E+02  3.25012E+02 -2.80409E+03
  5.24688E+03 -1.32107E+03  7.58418E+03  9.73094E+02  7.39454E+03  4.04148E+03  6.02387E+03  9.05422E+03
 -1.56536E+03  1.13362E+04 -9.48780E+03  8.33086E+03 -1.30844E+04  1.36224E+03 -1.01943E+04 -3.66273E+03
 -4.75936E+03 -8.39968E+03  3.15089E+01 -6.60888E+03  2.64979E+03 -3.26687E+03  3.19914E+03 -2.85787E+03
  1.35775E+03 -1.57382E+03  2.55961E+03 -2.42465E+03  4.11412E+03 -2.25990E+03  4.10032E+03  4.15312E+02
  5.81314E+03  1.41906E+03  1.91141E+03  4.05258E+03 -1.65384E+03  4.01477E+03 -5.76723E+03  4.00206E+03
 -6.28059E+03 -6.39899E+02 -3.11238E+03 -4.77491E+03  5.51954E+02 -6.86572E+03  4.68263E+03 -7.24497E+03
  6.74652E+03 -4.00125E+03  8.93623E+03  5.00882E+02  7.03947E+03  6.07022E+03  1.45816E+03  7.65734E+03
 -2.28894E+03  7.27621E+03 -4.36657E+03  2.04959E+03 -3.01891E+03 -1.08855E+03 -1.19846E+03 -1.24446E+03
 -5.11078E+02  2.06850E+02 -1.29077E+03  2.02452E+03 -3.10542E+03  1.81056E+03 -4.90522E+03 -2.82202E+02
 -2.27241E+03 -4.82871E+03  7.58643E+02 -6.82409E+03  4.19931E+03 -6.38497E+03  5.54072E+03 -1.15280E+03
  5.53095E+03  2.81572E+03  2.50982E+03  4.19864E+03 -1.21574E+03  6.18445E+03 -3.64405E+03  3.59635E+03
 -5.35767E+03  8.22729E+02 -4.34391E+03 -3.24438E+03 -3.99987E+02 -4.78051E+03  2.62891E+03 -3.55263E+03
  3.70479E+03 -1.86112E+03  2.85812E+03  2.41079E+02  7.62083E+02  2.30381E+03  6.21430E+02  7.15636E+02
  1.82870E+03  8.56413E+02  1.87328E+03  1.40042E+03  8.59571E+02  2.34394E+03  1.77779E+03  2.30934E+03
 -1.23432E+03  4.20979E+03 -3.56734E+03  4.95289E+03 -4.72936E+03  1.57090E+03 -5.62230E+03 -1.60359E+03
 -2.84376E+03 -5.43795E+03  7.04745E+02 -6.25430E+03  2.85261E+03 -3.85296E+03  4.76246E+03 -1.18030E+03
  3.41903E+03  2.23061E+03  7.11010E+02  3.30130E+03 -1.10702E+03  1.77582E+03 -2.29676E+03 -1.14472E+02
 -9.58191E+02 -2.44210E+03  1.75912E+03 -2.42781E+03  1.83971E+03 -1.37978E+03  1.94505E+03  3.07684E+02
  1.65757E+03  8.19349E+02  1.18749E+03  5.02317E+02 -3.55401E+02  1.09380E+03  1.87272E+03 -4.81342E+02
  8.83974E+02  9.98261E+01  1.91154E+03  1.76204E+03  7.76414E+02  3.44534E+03 -3.19945E+02  4.00806E+03
 -2.64341E+03  2.16044E+03 -3.21859E+03  4.56581E+02 -3.24203E+03 -1.62221E+03 -5.50640E+02 -1.90881E+03
  2.14696E+02 -2.08087E+03  1.28749E+03 -1.20419E+03  3.05728E+02  1.36810E+03 -3.47494E+02  1.78726E+03
 -1.92805E+03  1.01858E+03 -1.95808E+03 -1.64210E+03 -1.21607E+03 -3.08627E+03 -8.18804E+01 -3.06587E+03
  1.59822E+03 -6.05106E+02  1.44292E+03  9.25561E+02  2.27936E+03  5.83302E+02  4.83720E+02  1.29702E+03
 -1.10841E+03 -9.53034E+01 -1.26524E+03 -2.28922E+02  5.83274E+02 -1.87428E+03  3.21736E+03 -1.63504E+03
  2.59027E+03  6.81692E+02  3.56432E+03  1.41872E+03  1.32168E+03  3.28572E+03 -1.00084E+03  3.15252E+03
 -2.22462E+03  5.74615E+02 -2.58654E+03 -2.70093E+02 -1.31879E+03 -1.77512E+03  5.06120E+02 -1.38095E+03
  2.51137E+03 -7.51026E+02  1.22286E+03  1.04271E+03  3.25029E+02  2.31261E+03  3.49065E+02  1.54609E+03
 -9.65304E+02  1.15106E+03 -1.39171E+02 -2.61256E+00 -4.40706E+02  1.30606E+03  9.18278E-01  1.01290E+03
 -1.17968E+03  9.99849E+02 -2.56347E+03  1.00668E+03 -2.45827E+03 -5.05784E+02 -3.21797E+03 -1.85585E+03
 -1.50004E+03 -4.13560E+03  2.64550E+02 -4.17954E+03  1.98115E+03 -3.90853E+03  3.71142E+03 -1.68644E+03
  3.82433E+03  4.34797E+02  2.06707E+03  2.95523E+03  1.27391E+02  2.45448E+03 -9.84954E+02  2.40864E+03
 -1.99276E+03  7.05327E+02 -1.28720E+03 -3.58487E+02 -8.17915E+02 -3.19828E+02 -8.71189E+02  8.27627E+01
 -9.45916E+02 -1.78964E+02 -1.24217E+03 -1.27745E+02  7.12803E+01 -8.73405E+02  5.63170E+01 -9.86285E+02
  1.53064E+03 -1.25244E+03  1.39104E+03  4.19969E+02  2.08461E+03  1.00801E+03  1.75267E+02  2.76095E+03
 -1.26669E+03  3.41996E+03 -2.81670E+03  1.89497E+03 -3.06075E+03 -9.30133E+01 -2.27387E+03 -1.70220E+03
 -1.63667E+03 -2.49298E+03  6.76437E+01 -2.25626E+03  6.59737E+02 -1.03304E+03  1.79708E+03  3.39213E+02
  1.22903E+03  4.87681E+02 -6.95368E+02  1.26660E+03 -6.38510E+02  4.05653E+02  1.90852E+02 -1.10788E+03
  4.77507E+02 -1.71357E+02  9.31236E+02  6.73491E+02  4.75543E+02  5.00674E+02  6.28826E+02  4.13054E+02
 -6.53075E+02  8.47904E+02 -1.52014E+03  2.63353E+02 -1.12825E+03 -1.07712E+03 -4.49336E+02 -2.07676E+03
  1.03515E+03 -1.61309E+03  1.59632E+03 -5.18514E+02  1.92829E+03 -1.49022E+02  8.89602E+02  1.29526E+03
  6.21898E+02  4.81201E+02 -1.09283E+03  6.91665E+02 -1.08057E+03  1.26706E+03 -3.80836E+02  1.28906E+02
 -4.17591E+02  8.63140E+01 -8.98957E+02  5.63634E+02 -7.76068E+02  3.52150E+02 -1.21487E+03 -1.41345E+01
 -1.46476E+03  9.17247E+01 -4.83240E+02 -1.87615E+03  6.52084E+02 -1.82771E+03  1.72545E+03 -1.21874E+03
  1.20949E+03  1.14725E+02 -1.31354E+02  6.70445E+02 -3.23820E+02  1.41632E+03 -6.58544E+02  1.06005E+03
