 $NMID ID='MM_0lb_SNR400_20hz_g60_11.RAW', FMTDAT='(8E13.5)'
 TRAMP=1., VOLUME=1. $END
  3.09733E+05  3.99107E+01  3.37920E+05  2.50861E+05  8.42172E+04  3.37519E+05 -1.32012E+05  2.50813E+05
 -1.89926E+05  8.26600E+04 -1.11222E+05 -3.27396E+04  1.23570E+03 -5.00064E+04  5.32239E+04  3.05453E+02
  3.55034E+04  5.25671E+04 -1.72692E+04  7.51167E+04 -6.03772E+04  6.33720E+04 -8.28892E+04  3.16630E+04
 -8.10947E+04 -1.12721E+04 -5.66309E+04 -5.05565E+04 -1.48963E+04 -6.87473E+04  2.62096E+04 -4.54337E+04
  3.95091E+04  3.82103E+03  1.59794E+04  4.72216E+04 -3.37202E+04  4.64043E+04 -6.56761E+04  2.79410E+01
 -5.22902E+04 -5.64201E+04 -6.27546E+03 -7.59692E+04  3.34630E+04 -5.39266E+04  4.73170E+04 -1.67136E+04
  4.22105E+04  1.09988E+04  3.13859E+04  2.48179E+04  1.56381E+04  2.86154E+04 -4.81595E+03  2.69113E+04
 -2.23383E+04  1.25140E+04 -1.86028E+04 -4.26259E+03  4.33009E+03 -7.25629E+03  2.14289E+04  1.14079E+04
  7.80647E+03  3.44329E+04 -3.05820E+04  3.39999E+04 -6.15058E+04  1.88439E+03 -5.55027E+04 -4.13108E+04
 -1.22535E+04 -6.16365E+04  3.80069E+04 -4.41860E+04  5.61857E+04 -1.76970E+03  3.23287E+04  3.10849E+04
 -6.50039E+03  3.41920E+04 -2.85865E+04  1.37947E+04 -2.82109E+04 -4.77304E+03 -1.56016E+04 -1.00825E+04
 -7.67853E+03 -1.19806E+04 -1.33465E+03 -1.70263E+04  6.60762E+03 -2.23140E+04  1.45262E+04 -1.37154E+04
  1.23006E+04  3.99171E+03 -6.88963E+03  1.28486E+04 -1.98910E+04 -3.11120E+03 -8.45565E+03 -3.14314E+04
  2.14557E+04 -4.13048E+04  4.56174E+04 -1.89194E+04  4.27505E+04  1.89262E+04  1.48719E+04  4.24211E+04
 -1.50318E+04  3.11836E+04 -2.36090E+04  8.36421E+02 -9.06104E+03 -2.71326E+04  2.01043E+04 -3.15345E+04
  3.91402E+04 -7.71815E+03  3.24351E+04  2.31191E+04  1.56722E+04  4.34833E+04 -7.95783E+03  4.65235E+04
 -2.91580E+04  3.05708E+04 -3.84223E+04  8.49174E+03 -3.90659E+04 -1.56156E+04 -2.18389E+04 -3.54582E+04
  6.96505E+03 -3.43803E+04  2.97682E+04 -1.32887E+04  2.74696E+04  1.09800E+04  3.26950E+03  1.79918E+04
 -1.34031E+04  7.67311E+03 -9.52823E+03 -7.93938E+03  5.78619E+03 -9.53843E+03  1.73574E+04  6.54357E+03
  1.25108E+04  2.20283E+04 -6.75542E+03  2.36208E+04 -2.20725E+04  9.04238E+03 -2.59466E+04 -5.93859E+03
 -1.71450E+04 -1.65081E+04 -5.70161E+03 -1.75743E+04  3.75648E+03 -1.52086E+04  1.27347E+04 -1.48481E+04
  2.25821E+04 -1.18288E+04  2.90218E+04  1.39942E+03  2.21105E+04  1.66822E+04  3.96070E+03  3.31227E+04
 -1.63005E+04  2.76511E+04 -2.57307E+04  9.49067E+03 -1.96047E+04 -1.02338E+04 -4.57941E+03 -1.32760E+04
  2.39675E+03 -4.03923E+03 -2.72705E+03  5.55726E+03 -1.31565E+04  5.33617E+03 -1.39338E+04 -4.69296E+03
 -8.62675E+03 -1.59187E+04  4.81154E+03 -1.95798E+04  1.31788E+04 -1.44662E+04  1.48152E+04 -1.57377E+03
  9.19142E+03  1.10859E+04 -7.37817E+02  1.59766E+04 -1.02684E+04  9.08514E+03 -1.56343E+04 -3.68900E+03
 -1.18042E+04 -1.42898E+04 -1.36518E+03 -1.93394E+04  8.65853E+03 -1.55985E+04  1.68155E+04 -7.27005E+03
  1.49289E+04  4.41439E+02  1.12357E+04  4.00605E+03  5.58989E+03  1.21086E+03  7.54476E+03 -1.31373E+03
  1.45347E+04  2.56688E+03  1.54868E+04  1.36090E+04  9.70154E+03  2.52236E+04 -2.86076E+03  2.73793E+04
 -1.61849E+04  2.11312E+04 -2.44088E+04  9.41019E+03 -2.51029E+04 -1.36182E+03 -2.16373E+04 -1.43761E+04
 -9.99133E+03 -2.06978E+04  6.77887E+03 -1.93029E+04  1.68531E+04 -1.10824E+04  1.51764E+04  4.21644E+03
  6.58571E+03  1.04716E+04 -7.06713E+03  1.05260E+04 -1.29848E+04  2.51057E+03 -1.04158E+04 -8.66702E+03
 -1.14136E+02 -1.24324E+04  6.29555E+03 -9.71003E+03  7.57649E+03 -1.22277E+03  1.11844E+03  4.71382E+03
 -5.20092E+03  1.54502E+03 -3.85052E+03 -4.76808E+03  8.52742E+02 -1.01109E+04  7.88889E+03 -9.92124E+03
  1.21410E+04 -5.01869E+03  1.21093E+04  2.51058E+03  1.00085E+04  9.42059E+03  4.79439E+03  1.41786E+04
 -1.17114E+03  1.55813E+04 -9.27753E+03  9.87174E+03 -1.09706E+04  3.19244E+03 -8.50934E+03 -1.56613E+03
 -4.71812E+03 -3.29485E+03 -6.96503E+02  1.46881E+03 -1.80737E+03  2.07244E+03 -3.65669E+03  3.17318E+03
 -8.35071E+03 -3.04124E+02 -8.90041E+03 -7.33842E+03 -3.59532E+03 -1.09602E+04  3.25456E+03 -8.04089E+03
  7.00712E+03 -3.52739E+03  5.21272E+03  2.08763E+03  7.19638E+02  2.75522E+03 -3.68821E+03  1.11973E+02
 -3.36596E+03 -5.61026E+03 -6.22739E+02 -6.67937E+03  3.62418E+03 -7.92749E+03  9.43589E+03 -3.79395E+03
  1.12495E+04  7.85769E+02  8.31358E+03  6.44610E+03  1.42769E+03  9.09820E+03 -4.88897E+03  8.17666E+03
 -7.09212E+03  2.90556E+03 -3.21079E+03 -1.41283E+03  1.15500E+03 -1.69937E+03  4.84147E+03 -1.02078E+03
  4.08649E+03  3.28698E+03  9.24705E+02  6.47558E+03 -4.69618E+03  6.15204E+03 -7.60181E+03  1.52769E+03
 -5.21293E+03 -2.87256E+03 -6.45333E-01 -6.22655E+03  2.99500E+03 -2.95562E+03  3.54434E+03  6.97986E+02
  4.68953E+02  3.00147E+03 -3.78658E+03  4.54164E+03 -3.77773E+03  1.98195E+03 -3.96251E+03 -1.11473E+03
 -2.05516E+03 -5.70597E+03  9.49893E+02 -6.58920E+03  5.45043E+03 -4.15825E+03  6.21402E+03  4.63507E+02
  4.23617E+03  4.59383E+03  2.93288E+02  7.01572E+03 -4.98765E+03  4.02410E+03 -4.65026E+03 -3.69082E+02
 -5.82065E+03 -5.21136E+03 -8.43015E+02 -4.07713E+03  3.13034E+03 -4.43913E+03  2.84066E+03 -3.02921E+03
  2.33561E+03  2.59863E+02  5.14392E+02  6.39337E+02  4.75002E+02 -4.18749E+02 -2.16093E+02 -2.28284E+03
  3.28622E+03 -8.83255E+02  4.48123E+03  6.65674E+02  4.87873E+03  2.95168E+03  4.84284E+03  6.45027E+03
 -9.35857E+02  7.74626E+03 -6.94670E+03  6.37864E+03 -9.06477E+03  9.19610E+02 -6.95145E+03 -2.65755E+03
 -3.15286E+03 -5.91594E+03 -6.91303E+02 -3.88500E+03  2.18605E+03 -1.57243E+03  1.03831E+03 -1.91582E+03
  1.27116E+03 -2.17586E+03  2.33562E+03 -2.42749E+03  3.14082E+03 -1.32350E+03  3.17485E+03  4.75257E+02
  4.10212E+03  9.35554E+02  9.07058E+02  3.30668E+03 -1.31424E+03  2.40164E+03 -4.17726E+03  2.29210E+03
 -3.92184E+03 -1.34409E+03 -1.81774E+03 -3.06799E+03  2.48057E+01 -4.45354E+03  2.56287E+03 -4.46612E+03
  4.36441E+03 -2.99387E+03  5.67646E+03  4.69525E+02  4.37987E+03  3.42111E+03  7.86153E+02  4.73966E+03
 -1.34825E+03  5.44197E+03 -2.79877E+03  2.01276E+03 -1.55496E+03 -5.78959E+02 -5.41206E+02 -2.79570E+02
 -2.58258E+02  6.06101E+02 -1.36345E+03  2.25034E+03 -1.42327E+03  8.75217E+02 -3.64744E+03 -2.13784E+02
 -1.73167E+03 -3.26414E+03  1.10150E+03 -4.20167E+03  2.60084E+03 -3.78332E+03  2.65716E+03 -9.28340E+02
  3.40306E+03  2.09120E+03  1.88961E+03  2.70493E+03 -4.90814E+02  3.36267E+03 -2.72567E+03  1.74861E+03
 -3.04670E+03  2.28456E+02 -2.58128E+03 -2.43634E+03 -3.86668E+01 -2.44704E+03  1.26934E+03 -2.00249E+03
  2.06582E+03 -1.57547E+03  1.14156E+03  6.22644E+02  5.96319E+02  1.23019E+03  1.16461E+03  1.20498E+02
  1.78202E+03  3.30107E+02  6.69688E+02  1.07503E+03  7.41833E+02  2.05305E+03  1.22397E+03  1.69538E+03
 -7.57480E+02  2.34350E+03 -1.75018E+03  3.58956E+03 -2.38544E+03  1.40459E+03 -3.50138E+03  7.11450E+02
 -1.56778E+03 -2.72847E+03  3.88877E+02 -4.09546E+03  1.46920E+03 -2.20062E+03  1.88347E+03 -1.26993E+03
  1.63712E+03  1.77590E+03  2.82597E+02  1.98363E+03 -7.12349E+02  9.56630E+02 -5.49501E+02 -1.31490E+02
  3.36779E+01 -7.33211E+02  1.16777E+03 -1.42615E+03  7.61229E+02 -9.96993E+02  9.58551E+02  5.19947E+02
  6.23222E+02 -1.69396E+02  5.29402E+02 -4.98933E+02 -1.05724E+03  6.34916E+02  1.73911E+03 -1.29941E+02
 -2.19148E+02  5.52140E+01  1.31241E+03  5.99999E+01  2.67669E+02  2.01407E+03 -6.10158E+02  2.06070E+03
 -1.47283E+03  5.39575E+02 -1.69126E+03  3.41596E+02 -2.05047E+03 -4.58513E+02 -1.76358E+02 -1.11160E+03
  1.10354E+02 -1.21701E+03  2.38797E+02 -7.01689E+02  1.81368E+02  1.11433E+03 -5.92065E+02  1.30364E+03
 -1.05371E+03  7.13958E+02 -8.30649E+02 -1.34936E+03 -2.00392E+02 -1.92274E+03  2.47114E+02 -9.14748E+02
 -2.87117E+02  8.74401E+01  1.94312E+02 -1.19677E+02  9.90351E+02 -2.88239E+02  5.74262E+01  6.85445E+02
 -4.78967E+02  1.33037E+02 -4.09506E+02  5.10713E+02  8.23107E+02 -3.06724E+02  1.52185E+03 -8.95873E+02
  4.29088E+02  3.41221E+02  2.56319E+03  3.91570E+02  5.55160E+02  1.07233E+03  1.40448E+02  1.59903E+03
 -8.54101E+02  1.16049E+02 -9.58536E+02  1.47952E+02 -4.09632E+02 -7.11929E+02  9.01457E+01 -5.12034E+02
  1.26081E+03 -3.91756E+02  6.34680E+02  3.38384E+02 -2.38624E+02  1.01090E+03  7.76090E+02  8.92822E+02
  1.23545E+02  1.01498E+03 -1.68336E+01  3.33669E+02  5.12536E+02  4.52371E+02 -5.87881E+02  4.30786E+02
 -5.22274E+02  6.71701E+02 -1.18393E+03  4.20160E+02 -7.14469E+02  1.31719E+02 -2.00929E+03 -8.11468E+00
 -2.16859E+02 -9.47973E+02  2.66903E+02 -1.81739E+03  3.44238E+02 -1.41029E+03  1.06067E+03 -8.00920E+02
  1.88619E+03  4.47104E+01  8.13290E+02  7.69463E+02 -3.39103E+02  7.19443E+02 -6.72479E+02  3.74940E+02
 -5.83442E+02  2.37427E+02 -5.60585E+02 -4.49450E+02 -4.31808E+02  5.01289E+02 -1.45593E+03  1.11599E+02
 -9.16326E+02 -3.58950E+02 -7.84102E+02  6.73375E+01  2.16035E+02 -2.82293E+02 -3.11091E+02 -1.07320E+03
  9.70828E+02 -6.22034E+02  4.57639E+00  2.15953E+02  5.03186E+02  6.24453E+02 -7.84549E+02  7.82266E+02
 -2.36150E+02  1.57162E+03 -1.57940E+03  1.26828E+03 -6.24609E+02 -4.64748E+02 -6.49617E+02 -7.16905E+02
 -6.61834E+02 -7.68706E+02  9.70699E+01 -7.77268E+02 -2.34605E+02 -4.06065E+02  4.18437E+02  5.21561E+02
  1.11135E+02  2.29331E+02  4.06819E+02  2.22161E+02  1.43589E+01 -5.85234E+01 -2.82397E+02 -2.68300E+02
  7.69356E+02  2.86498E+02  1.30564E+01  4.92578E+02 -2.16595E+02  2.31393E+02  7.54522E+02 -3.14352E+00
 -1.59124E+02  1.58623E+02 -1.67501E+02 -1.63432E+02 -4.79223E+02 -3.30504E+02  5.25295E+02 -6.53989E+02
 -1.15337E+02  1.92494E+02  3.10725E+02  1.88367E+02  7.25424E+02 -7.66137E+02  1.35389E+02  7.12114E+02
  4.54217E+02  3.28053E+02  6.34212E+01  3.77501E+02 -1.89239E+01  7.99473E+02 -3.90843E+02  1.76760E+02
 -8.52369E+01  4.42956E+02  3.51032E+02  4.31676E+01 -6.17405E+02  5.10648E+02 -2.70349E+02 -3.41195E+02
 -4.06749E+02  5.47459E+02 -4.24168E+02 -3.15742E+02  7.53203E+02 -1.23758E+03  2.91646E+02 -4.51589E+02
  2.94587E+02 -3.87602E+02 -1.01507E+03  2.25264E+02 -5.72935E+02  6.53465E+02  8.72613E+01  2.95511E+02
