 $NMID ID='MM_0lb_SNR400_9hz_g40_82.RAW', FMTDAT='(8E13.5)'
 TRAMP=1., VOLUME=1. $END
  3.09832E+05  1.77579E+02  3.38120E+05  2.51913E+05  8.46731E+04  3.38146E+05 -1.32960E+05  2.51497E+05
 -1.90650E+05  8.32432E+04 -1.12008E+05 -3.21727E+04  8.81858E+02 -5.02858E+04  5.32448E+04 -4.65379E+02
  3.55069E+04  5.29700E+04 -1.63132E+04  7.57621E+04 -6.19635E+04  6.40700E+04 -8.46533E+04  3.22209E+04
 -8.17623E+04 -1.20229E+04 -5.81248E+04 -5.20678E+04 -1.45152E+04 -7.12351E+04  2.80995E+04 -4.64086E+04
  4.14807E+04  3.41160E+03  1.77192E+04  4.88472E+04 -3.46972E+04  4.75136E+04 -6.79445E+04  3.06117E+02
 -5.45303E+04 -5.80756E+04 -7.62363E+03 -7.87018E+04  3.41388E+04 -5.61348E+04  4.87586E+04 -1.80592E+04
  4.37600E+04  1.15827E+04  3.30669E+04  2.68811E+04  1.64023E+04  3.02861E+04 -6.27168E+03  2.82537E+04
 -2.27019E+04  1.20352E+04 -1.76962E+04 -5.31507E+03  6.72420E+03 -7.45104E+03  2.30495E+04  1.33195E+04
  6.73108E+03  3.68037E+04 -3.35933E+04  3.68625E+04 -6.46526E+04  1.41874E+03 -5.83598E+04 -4.41002E+04
 -1.25489E+04 -6.48869E+04  4.16877E+04 -4.69330E+04  6.01328E+04 -2.50608E+03  3.62206E+04  3.37875E+04
 -5.72386E+03  3.82651E+04 -3.16228E+04  1.80715E+04 -3.23843E+04 -3.32422E+03 -1.82490E+04 -1.22705E+04
 -8.60386E+03 -1.48944E+04 -1.02652E+03 -1.97674E+04  8.07292E+03 -2.34709E+04  1.58467E+04 -1.32445E+04
  1.01459E+04  5.85494E+03 -9.58873E+03  1.34087E+04 -2.29189E+04 -6.58531E+03 -8.19005E+03 -3.70527E+04
  2.38732E+04 -4.60332E+04  5.14878E+04 -2.15383E+04  4.86243E+04  2.03269E+04  1.59173E+04  4.61547E+04
 -1.66175E+04  3.55371E+04 -2.76960E+04  1.39148E+03 -1.16555E+04 -2.94098E+04  2.11722E+04 -3.57555E+04
  4.34308E+04 -9.71659E+03  3.98988E+04  2.40049E+04  2.04250E+04  5.07471E+04 -7.83427E+03  5.57773E+04
 -3.47043E+04  3.69416E+04 -4.62538E+04  1.01622E+04 -4.62180E+04 -1.77697E+04 -2.50626E+04 -4.01357E+04
  7.57628E+03 -4.16713E+04  3.37072E+04 -1.61826E+04  3.07262E+04  1.07083E+04  4.71055E+03  2.05802E+04
 -1.47257E+04  9.64227E+03 -1.20103E+04 -7.59798E+03  5.93360E+03 -1.08940E+04  1.86053E+04  5.16712E+03
  1.42248E+04  2.31843E+04 -5.35104E+03  2.64890E+04 -2.37536E+04  1.39399E+04 -3.07662E+04 -3.13274E+03
 -2.47184E+04 -1.80704E+04 -1.10187E+04 -2.40850E+04  4.34255E+03 -2.45444E+04  1.88050E+04 -2.23913E+04
  3.05448E+04 -1.33149E+04  3.64378E+04  3.96085E+03  2.69107E+04  2.33121E+04  4.15557E+03  4.08147E+04
 -1.97309E+04  3.31944E+04 -3.02531E+04  1.20394E+04 -2.25125E+04 -1.02305E+04 -5.33011E+03 -1.26714E+04
  3.04684E+02 -8.62357E+02 -6.89687E+03  8.12806E+03 -1.92276E+04  6.02574E+03 -1.95617E+04 -8.71600E+03
 -1.20641E+04 -2.22647E+04  6.35878E+03 -2.72986E+04  1.74070E+04 -1.92124E+04  2.14408E+04 -1.82213E+03
  1.35690E+04  1.58532E+04 -1.61867E+03  2.20672E+04 -1.71737E+04  1.28602E+04 -2.27873E+04 -4.14553E+03
 -1.73548E+04 -2.06954E+04 -2.41756E+03 -2.74699E+04  1.19424E+04 -2.27117E+04  2.29956E+04 -1.19679E+04
  2.13484E+04 -2.97698E+02  1.58439E+04  5.18324E+03  8.67243E+03  2.45445E+03  1.12600E+04 -1.98104E+03
  2.12319E+04  3.59097E+03  2.37599E+04  1.78666E+04  1.62226E+04  3.69062E+04 -2.61191E+03  4.23726E+04
 -2.39273E+04  3.52684E+04 -4.08435E+04  1.84422E+04 -4.24941E+04 -3.11338E+03 -3.51280E+04 -2.50174E+04
 -1.35983E+04 -3.57565E+04  1.29065E+04 -3.07080E+04  2.69419E+04 -1.50111E+04  2.39003E+04  7.19683E+03
  7.86242E+03  1.74379E+04 -1.15836E+04  1.46424E+04 -1.94170E+04  2.69275E+03 -1.39761E+04 -1.25652E+04
  2.68866E+02 -1.79356E+04  9.14785E+03 -1.40531E+04  1.21151E+04 -1.16627E+03  2.93128E+03  8.09139E+03
 -8.07203E+03  4.65454E+03 -8.56610E+03 -7.00064E+03 -1.85344E+03 -1.72533E+04  1.15009E+04 -1.84292E+04
  2.23249E+04 -1.00506E+04  2.45001E+04  3.13146E+03  2.19263E+04  1.80756E+04  9.93780E+03  2.79520E+04
 -4.73174E+03  2.96470E+04 -1.92829E+04  1.85731E+04 -2.13199E+04  3.48852E+03 -1.51383E+04 -5.71488E+03
 -6.35896E+03 -6.48769E+03 -4.96679E+02  1.02941E+03 -2.98508E+03  2.88136E+03 -6.81566E+03  5.07391E+03
 -1.34316E+04 -1.05068E+03 -1.42259E+04 -1.22272E+04 -5.89123E+03 -1.89240E+04  6.35273E+03 -1.51242E+04
  1.17853E+04 -6.25141E+03  9.09314E+03  2.98711E+03 -5.51992E+01  6.62975E+03 -7.83538E+03  3.37368E+02
 -7.13868E+03 -1.00629E+04 -7.76200E+02 -1.47809E+04  8.92594E+03 -1.55792E+04  1.95020E+04 -8.53358E+03
  2.24664E+04  2.03037E+03  1.55608E+04  1.33597E+04  3.22564E+03  1.83028E+04 -9.48152E+03  1.46247E+04
 -1.14321E+04  4.71892E+03 -6.45737E+03 -3.20920E+03  2.19468E+03 -4.36438E+03  8.02003E+03 -1.54272E+03
  7.69279E+03  6.66035E+03  8.80751E+02  1.26404E+04 -9.06186E+03  1.16348E+04 -1.47234E+04  3.25797E+03
 -9.48925E+03 -8.00370E+03  1.24568E+01 -1.27102E+04  8.17016E+03 -6.76636E+03  8.79435E+03  3.76591E+03
  1.90732E+03  1.00086E+04 -7.93265E+03  1.12952E+04 -1.31604E+04  5.10851E+03 -1.32783E+04 -4.23331E+03
 -8.06932E+03 -1.48342E+04  4.12324E+03 -1.70256E+04  1.50383E+04 -1.01138E+04  1.60409E+04  2.81702E+03
  9.59340E+03  1.28845E+04 -1.10093E+03  1.45076E+04 -1.13437E+04  8.37346E+03 -1.23745E+04 -1.40409E+03
 -1.05500E+04 -1.09702E+04 -1.37961E+03 -1.14937E+04  6.25542E+03 -8.86392E+03  6.75411E+03 -3.48468E+03
  4.72061E+03  2.03164E+03 -1.61975E+03  2.60359E+03 -8.95750E+02 -2.96841E+03  3.04226E+03 -6.89005E+03
  1.15174E+04 -4.50865E+03  1.52799E+04  1.61358E+03  1.45131E+04  1.00835E+04  9.66803E+03  1.95353E+04
 -4.99788E+03  2.25225E+04 -1.82510E+04  1.62411E+04 -2.44410E+04  2.88161E+03 -1.98065E+04 -8.15143E+03
 -9.94994E+03 -1.58291E+04 -3.58205E+02 -1.32067E+04  4.57200E+03 -8.16514E+03  5.20974E+03 -4.53388E+03
  3.09810E+03 -3.21759E+03  4.61577E+03 -3.84116E+03  5.97437E+03 -4.58204E+03  7.72007E+03 -1.62600E+03
  9.75866E+03  2.86011E+03  5.73726E+03  7.96530E+03 -1.36002E+03  9.98103E+03 -1.07038E+04  8.36853E+03
 -1.41518E+04 -1.10803E+03 -8.51071E+03 -9.22339E+03 -1.32055E+03 -1.45689E+04  8.76971E+03 -1.52747E+04
  1.60914E+04 -8.09926E+03  1.88010E+04  2.08179E+03  1.32097E+04  1.34411E+04  1.73972E+03  1.65324E+04
 -7.57872E+03  1.41580E+04 -1.01319E+04  4.77130E+03 -6.60457E+03 -2.00277E+03 -2.57390E+03 -2.50714E+03
 -1.58450E+03  2.28813E+02 -2.77308E+03  2.99397E+03 -6.53023E+03  2.09459E+03 -9.70632E+03 -1.61318E+03
 -5.83409E+03 -9.75156E+03 -3.72429E+02 -1.38242E+04  8.14993E+03 -1.31244E+04  1.38183E+04 -3.90263E+03
  1.40243E+04  6.68476E+03  5.67154E+03  1.24206E+04 -2.67434E+03  1.40561E+04 -9.70858E+03  8.63175E+03
 -1.40482E+04 -2.72151E+02 -1.04675E+04 -8.73935E+03 -1.06175E+03 -1.16601E+04  5.97595E+03 -8.49889E+03
  8.63327E+03 -2.09979E+03  6.65426E+03  1.80672E+03  3.50525E+03  3.99146E+03  1.18306E+03  1.39127E+03
  2.49766E+03  7.44800E+02  3.29344E+03  2.16399E+03  4.48612E+03  5.17132E+03  4.28611E+03  7.94963E+03
 -3.04543E+03  1.05245E+04 -9.63722E+03  1.07680E+04 -1.43440E+04  3.15867E+03 -1.57778E+04 -4.96861E+03
 -6.78595E+03 -1.44797E+04  1.60409E+03 -1.63727E+04  8.65879E+03 -9.86080E+03  1.17246E+04 -2.62102E+03
  8.06001E+03  5.05842E+03  2.27028E+03  8.22913E+03 -4.11076E+03  3.81342E+03 -5.64322E+03 -1.39107E+03
 -2.34288E+03 -5.02655E+03  2.93766E+03 -5.66224E+03  6.38717E+03 -3.17656E+03  6.28380E+03  1.81677E+03
  3.63401E+03  2.41559E+03  1.11189E+03  2.70213E+03 -9.66561E+02  2.34605E+03  7.17808E+02 -5.65550E+02
  2.59065E+03 -1.11259E+03  6.61008E+03  2.70719E+03  3.61003E+03  7.82851E+03 -1.66805E+03  9.72916E+03
 -6.31813E+03  6.36686E+03 -8.79432E+03  2.78630E+03 -8.02676E+03 -3.00298E+03 -2.99764E+03 -5.31828E+03
  7.06048E+02 -5.85089E+03  3.17378E+03 -3.04492E+03  3.17396E+03  3.35749E+03 -2.03138E+03  4.89645E+03
 -5.88830E+03  2.19266E+03 -6.71848E+03 -3.56751E+03 -2.94554E+03 -8.32140E+03  9.08919E+02 -8.14035E+03
  5.55930E+03 -4.26146E+03  5.92969E+03 -2.21972E+02  4.69785E+03  1.48257E+03  4.21250E+02  4.68318E+03
 -2.88487E+03  1.17658E+03 -2.83839E+03 -2.59071E+03  1.66594E+03 -6.51209E+03  6.83535E+03 -4.32302E+03
  8.67729E+03  4.19919E+02  8.58966E+03  6.39583E+03  2.26549E+03  9.67940E+03 -3.81752E+03  9.10011E+03
 -7.73182E+03  2.99450E+03 -8.15696E+03 -2.89312E+02 -4.00852E+03 -6.32455E+03  1.37460E+03 -5.47421E+03
  5.91595E+03 -1.63961E+03  5.03130E+03  2.47396E+03  1.17224E+03  5.25343E+03 -1.12693E+03  3.44390E+03
 -3.58593E+03  3.35696E+03 -2.55417E+03  9.55066E+02 -3.87493E+02  6.93391E+02 -1.67573E+03  1.82489E+03
 -2.44866E+03  3.47878E+03 -6.59765E+03  3.95274E+03 -9.46879E+03 -2.07033E+02 -1.01594E+04 -6.56774E+03
 -5.36569E+03 -1.25606E+04  2.03908E+03 -1.48416E+04  9.26834E+03 -1.13557E+04  1.34688E+04 -4.08378E+03
  1.28086E+04  3.07590E+03  8.61935E+03  8.76698E+03  4.77819E+02  9.63159E+03 -4.62727E+03  7.94668E+03
 -4.97483E+03  2.92267E+03 -3.45615E+03 -2.01089E+03 -7.25291E+02 -1.10099E+03 -1.46857E+03 -4.17498E+02
 -1.40748E+03 -4.74808E+01 -2.13155E+03 -3.62641E+02 -1.08938E+03 -2.41950E+03 -1.75908E+02 -3.87378E+03
  4.09313E+03 -3.28190E+03  6.46594E+03 -1.03760E+02  7.05239E+03  4.69458E+03  1.83552E+03  1.00771E+04
 -4.72733E+03  1.11519E+04 -1.09710E+04  6.44280E+03 -1.20241E+04 -1.86558E+03 -8.65462E+03 -7.61911E+03
 -3.29049E+03 -9.34869E+03  2.54672E+03 -9.84521E+03  5.96894E+03 -4.58699E+03  7.06137E+03  3.33907E+02
  3.94099E+03  3.17906E+03 -1.16508E+03  2.92444E+03 -1.96779E+03 -1.90229E+02  5.44922E+02 -2.45767E+03
  4.18859E+03 -2.06151E+03  3.91069E+03  1.24612E+03  4.03003E+03  4.16400E+03  1.37802E+02  5.35395E+03
 -4.32364E+03  4.44451E+03 -6.34462E+03  7.90936E+02 -5.48118E+03 -4.06483E+03 -7.85888E+02 -7.83240E+03
  4.55756E+03 -6.27930E+03  7.40861E+03 -1.73646E+03  7.91854E+03  2.00061E+03  4.49655E+03  6.49299E+03
  1.00385E+03  6.58415E+03 -2.24496E+03  5.25914E+03 -4.94376E+03  2.35180E+03 -4.34991E+03  9.84987E+01
 -1.10094E+03  1.89652E+02 -2.23027E+03  9.60350E+02 -4.01420E+03  9.68248E+02 -4.81531E+03 -8.70594E+02
 -4.94331E+03 -3.70467E+03 -1.10447E+03 -7.33519E+03  3.59007E+03 -6.97275E+03  5.48975E+03 -3.73352E+03
  6.41691E+03  9.46662E+02  3.69610E+03  4.81923E+03 -5.24802E+02  6.54827E+03 -4.86175E+03  4.45970E+03
