 $NMID ID='MM_0lb_SNR400_10hz_g40_59.RAW', FMTDAT='(8E13.5)'
 TRAMP=1., VOLUME=1. $END
  3.10299E+05  6.61909E+02  3.38231E+05  2.51197E+05  8.44443E+04  3.38519E+05 -1.33369E+05  2.52003E+05
 -1.91126E+05  8.28863E+04 -1.11580E+05 -3.29950E+04  1.11085E+03 -5.11558E+04  5.41204E+04 -5.74722E+02
  3.60809E+04  5.33834E+04 -1.65107E+04  7.65553E+04 -6.14750E+04  6.34707E+04 -8.49387E+04  3.15953E+04
 -8.21468E+04 -1.18888E+04 -5.71778E+04 -5.19562E+04 -1.52029E+04 -7.03769E+04  2.78180E+04 -4.65456E+04
  4.03412E+04  4.20463E+03  1.70637E+04  4.84469E+04 -3.40475E+04  4.82429E+04 -6.76508E+04 -6.06173E+01
 -5.34479E+04 -5.73332E+04 -7.43403E+03 -7.77605E+04  3.45111E+04 -5.58694E+04  4.92573E+04 -1.86503E+04
  4.45065E+04  1.06381E+04  3.27973E+04  2.60720E+04  1.54740E+04  3.00136E+04 -5.44880E+03  2.73726E+04
 -2.27627E+04  1.21225E+04 -1.83479E+04 -6.47369E+03  6.25926E+03 -7.17441E+03  2.33385E+04  1.37663E+04
  6.90515E+03  3.67165E+04 -3.27770E+04  3.65450E+04 -6.50533E+04  1.55391E+03 -5.86440E+04 -4.36865E+04
 -1.27672E+04 -6.40522E+04  4.00143E+04 -4.68634E+04  6.00912E+04 -1.34749E+03  3.59781E+04  3.40326E+04
 -5.53362E+03  3.80925E+04 -3.13838E+04  1.81000E+04 -3.18154E+04 -4.18701E+03 -1.80873E+04 -1.18611E+04
 -9.41010E+03 -1.43964E+04 -7.96407E+02 -1.90087E+04  7.80833E+03 -2.25114E+04  1.60581E+04 -1.23286E+04
  1.10645E+04  6.19058E+03 -9.71078E+03  1.28512E+04 -2.24917E+04 -5.31238E+03 -7.63163E+03 -3.63229E+04
  2.46038E+04 -4.55902E+04  4.99580E+04 -2.06979E+04  4.68786E+04  2.08078E+04  1.63770E+04  4.59312E+04
 -1.61795E+04  3.50844E+04 -2.72376E+04  2.61189E+03 -1.16471E+04 -2.89207E+04  2.13981E+04 -3.46328E+04
  4.35127E+04 -9.64069E+03  3.83535E+04  2.44070E+04  2.00080E+04  4.85016E+04 -8.09957E+03  5.45118E+04
 -3.41771E+04  3.66195E+04 -4.51546E+04  1.06189E+04 -4.52462E+04 -1.73083E+04 -2.52390E+04 -4.06389E+04
  7.14187E+03 -4.02343E+04  3.32472E+04 -1.57284E+04  3.08810E+04  1.09199E+04  5.09928E+03  1.97575E+04
 -1.38923E+04  9.18856E+03 -1.12699E+04 -7.51298E+03  5.96731E+03 -1.06262E+04  1.82459E+04  5.54949E+03
  1.45590E+04  2.22690E+04 -4.97185E+03  2.61500E+04 -2.26535E+04  1.41622E+04 -3.07261E+04 -3.95937E+03
 -2.29656E+04 -1.87974E+04 -1.06682E+04 -2.42677E+04  4.10172E+03 -2.31789E+04  1.79266E+04 -2.06069E+04
  2.97188E+04 -1.36856E+04  3.56705E+04  3.43291E+03  2.60833E+04  2.23973E+04  4.65744E+03  4.01795E+04
 -1.94885E+04  3.21377E+04 -2.95264E+04  1.08098E+04 -2.20231E+04 -9.91432E+03 -5.20727E+03 -1.31116E+04
  1.13883E+03 -1.45349E+03 -6.67799E+03  7.61986E+03 -1.83007E+04  4.91338E+03 -1.86443E+04 -8.62140E+03
 -1.16088E+04 -2.16738E+04  5.97950E+03 -2.59908E+04  1.77063E+04 -1.85020E+04  2.08933E+04 -1.58194E+03
  1.31363E+04  1.51262E+04 -1.15232E+03  2.16423E+04 -1.51146E+04  1.32629E+04 -2.22148E+04 -4.71206E+03
 -1.61374E+04 -1.94361E+04 -2.32747E+03 -2.60044E+04  1.15146E+04 -2.22226E+04  2.13869E+04 -1.08781E+04
  2.01995E+04 -1.45156E+02  1.54738E+04  5.69957E+03  8.62746E+03  8.97800E+02  1.10930E+04 -2.27947E+03
  2.08569E+04  2.61750E+03  2.38926E+04  1.74772E+04  1.61741E+04  3.50002E+04 -2.76903E+03  4.07460E+04
 -2.33696E+04  3.33451E+04 -3.70680E+04  1.67684E+04 -4.04228E+04 -2.54957E+03 -3.34954E+04 -2.37097E+04
 -1.38686E+04 -3.33946E+04  1.16056E+04 -3.00875E+04  2.52944E+04 -1.47440E+04  2.23704E+04  7.09464E+03
  7.85377E+03  1.70043E+04 -1.02826E+04  1.42799E+04 -1.84334E+04  2.82520E+03 -1.49330E+04 -1.17035E+04
 -1.99187E+02 -1.80098E+04  9.88997E+03 -1.26406E+04  1.23481E+04 -1.46682E+03  3.45973E+03  8.14358E+03
 -7.89467E+03  3.31815E+03 -7.91518E+03 -5.84227E+03 -1.72784E+03 -1.65094E+04  1.10025E+04 -1.73809E+04
  2.03479E+04 -1.00662E+04  2.27231E+04  3.22438E+03  2.04485E+04  1.58098E+04  9.39322E+03  2.55735E+04
 -4.45771E+03  2.81679E+04 -1.83549E+04  1.67518E+04 -1.96904E+04  4.15977E+03 -1.46219E+04 -5.34279E+03
 -5.92431E+03 -6.91628E+03 -5.80073E+02  4.10884E+02 -3.09387E+03  2.83269E+03 -6.66545E+03  5.07412E+03
 -1.27276E+04 -3.59241E+02 -1.32723E+04 -1.09645E+04 -5.71958E+03 -1.75401E+04  5.46720E+03 -1.43549E+04
  1.18284E+04 -5.60828E+03  8.10143E+03  3.49797E+03 -4.52096E+02  5.08935E+03 -7.45478E+03  8.51880E+02
 -6.49956E+03 -8.99590E+03 -1.22414E+03 -1.39875E+04  7.90510E+03 -1.40951E+04  1.80321E+04 -8.26925E+03
  2.13021E+04  2.06395E+03  1.42575E+04  1.23711E+04  3.17580E+03  1.67261E+04 -8.38163E+03  1.42326E+04
 -1.14136E+04  4.58252E+03 -5.84423E+03 -2.95603E+03  2.44971E+03 -4.42573E+03  7.58802E+03 -1.71697E+03
  7.09583E+03  6.20389E+03  7.73142E+02  1.08829E+04 -7.97245E+03  9.86364E+03 -1.40856E+04  1.94083E+03
 -9.87287E+03 -8.07848E+03  2.53488E+01 -1.16089E+04  7.57880E+03 -6.42435E+03  8.09940E+03  2.74775E+03
  1.90755E+03  9.07437E+03 -7.17226E+03  1.06430E+04 -1.14547E+04  4.86672E+03 -1.13752E+04 -3.88707E+03
 -6.52812E+03 -1.29934E+04  3.92898E+03 -1.60970E+04  1.33439E+04 -9.32077E+03  1.47722E+04  2.70922E+03
  8.43463E+03  1.12667E+04 -9.74114E+02  1.38718E+04 -1.00073E+04  7.80748E+03 -1.09592E+04 -1.12494E+03
 -9.82627E+03 -9.19203E+03 -1.62540E+03 -1.04583E+04  6.05911E+03 -8.44577E+03  6.63939E+03 -3.47391E+03
  4.36211E+03  1.10522E+03 -1.32995E+03  1.45697E+03  2.68488E+02 -2.77108E+03  2.50890E+03 -6.68592E+03
  9.30658E+03 -3.40429E+03  1.40155E+04  1.75406E+03  1.36432E+04  9.36752E+03  8.44259E+03  1.82674E+04
 -3.77192E+03  2.02180E+04 -1.70366E+04  1.49325E+04 -2.21821E+04  3.06810E+03 -1.76403E+04 -7.72978E+03
 -9.23551E+03 -1.46176E+04  1.26330E+01 -1.33526E+04  4.34187E+03 -6.48602E+03  4.91970E+03 -4.20595E+03
  2.84771E+03 -3.19619E+03  3.78053E+03 -3.31491E+03  5.01213E+03 -3.02109E+03  7.06425E+03 -9.75627E+02
  8.84459E+03  2.28826E+03  4.56045E+03  8.05636E+03 -3.40529E+03  8.91856E+03 -9.87599E+03  7.08398E+03
 -1.28214E+04 -9.10820E+02 -7.52992E+03 -8.84042E+03 -6.02881E+02 -1.37656E+04  7.73736E+03 -1.32431E+04
  1.33304E+04 -7.23741E+03  1.63927E+04  2.84238E+03  1.15900E+04  1.13549E+04  1.86343E+03  1.46793E+04
 -6.47735E+03  1.29221E+04 -9.49192E+03  3.85683E+03 -5.36188E+03 -1.25058E+03 -2.39791E+03 -1.74092E+03
 -1.31603E+03  1.62272E+02 -1.69866E+03  2.61043E+03 -6.05307E+03  2.02348E+03 -8.57565E+03 -5.76503E+02
 -5.61175E+03 -8.71041E+03  3.67075E+02 -1.20116E+04  7.16712E+03 -1.18782E+04  1.23601E+04 -3.36920E+03
  1.21453E+04  6.31152E+03  5.86227E+03  1.07644E+04 -2.79395E+03  1.24514E+04 -9.12167E+03  7.79564E+03
 -1.15692E+04  7.35400E+02 -9.46929E+03 -7.31639E+03 -5.55243E+02 -9.90584E+03  5.75022E+03 -7.75798E+03
  7.42194E+03 -2.62732E+03  5.25520E+03  2.45564E+03  1.44203E+03  3.53165E+03  1.20019E+03  1.56412E+03
  2.35589E+03  8.83241E+02  2.83733E+03  1.53372E+03  3.86376E+03  4.94859E+03  3.28343E+03  6.93778E+03
 -2.65788E+03  9.16942E+03 -8.28286E+03  9.58076E+03 -1.23268E+04  2.06495E+03 -1.28267E+04 -5.10668E+03
 -6.56823E+03 -1.18688E+04  1.37961E+03 -1.41940E+04  7.38024E+03 -8.59781E+03  9.55234E+03 -2.05866E+03
  7.86479E+03  4.75357E+03  2.07548E+03  6.68086E+03 -3.72451E+03  4.96952E+03 -5.34784E+03 -1.13573E+03
 -1.68761E+03 -5.09767E+03  3.19737E+03 -5.98925E+03  4.59976E+03 -2.63491E+03  4.14267E+03  1.10432E+03
  3.06359E+03  2.64510E+03  1.04416E+03  1.78475E+03  1.09661E+01  1.69715E+03  1.04340E+03 -3.75067E+02
  1.89826E+03 -1.77148E+03  4.28250E+03  1.72092E+03  3.19267E+03  6.34008E+03 -9.07345E+02  8.29401E+03
 -5.67829E+03  5.55573E+03 -7.70043E+03  1.77649E+03 -6.53093E+03 -1.81136E+03 -2.84061E+03 -4.68510E+03
  6.14120E+02 -4.98593E+03  3.94692E+03 -2.26066E+03  3.19152E+03  2.93629E+03 -1.17247E+03  4.12263E+03
 -5.24707E+03  2.03178E+03 -5.63296E+03 -3.38149E+03 -3.23733E+03 -6.45229E+03  1.28789E+03 -6.31070E+03
  3.42894E+03 -4.10095E+03  4.36109E+03 -4.59691E+02  4.19906E+03  2.14637E+03  9.04249E+02  3.68779E+03
 -2.28652E+03  1.01402E+03 -2.77267E+03 -1.87249E+03  1.78252E+03 -5.70791E+03  6.32672E+03 -3.95781E+03
  7.09836E+03 -1.47836E+02  7.71385E+03  5.64591E+03  2.32451E+03  8.28127E+03 -2.36677E+03  8.02202E+03
 -6.78581E+03  3.59861E+03 -7.24360E+03 -1.24941E+03 -3.70927E+03 -5.32180E+03  1.45625E+03 -4.93180E+03
  4.67550E+03 -1.83080E+03  4.89787E+03  2.60949E+03  1.39786E+03  4.45733E+03 -6.79696E+02  4.09396E+03
 -1.85351E+03  3.07865E+03 -1.56433E+03  8.86706E+02 -2.67189E+02  7.13054E+02 -7.90268E+02  1.66656E+03
 -2.07865E+03  3.32946E+03 -5.85755E+03  2.10291E+03 -7.77011E+03 -8.61207E+00 -8.64422E+03 -6.04913E+03
 -4.65560E+03 -1.09353E+04  2.66042E+03 -1.23911E+04  7.27316E+03 -9.47020E+03  1.16744E+04 -3.79555E+03
  1.00588E+04  2.72719E+03  6.56540E+03  7.66912E+03  7.40411E+02  8.23604E+03 -3.80062E+03  6.37905E+03
 -4.97818E+03  2.24517E+03 -2.79194E+03 -1.58142E+03 -1.47062E+03 -6.61798E+02 -6.03556E+02  4.38074E+02
 -2.12967E+03 -2.36397E+02 -2.24541E+03 -6.29150E+02 -7.19413E+02 -1.89982E+03  1.89201E+02 -3.00415E+03
  3.21279E+03 -2.41920E+03  5.00648E+03 -2.01583E+02  5.32838E+03  4.55869E+03  1.68674E+03  7.94791E+03
 -4.22570E+03  9.67285E+03 -8.80798E+03  6.16272E+03 -1.06625E+04 -8.18205E+02 -7.53063E+03 -5.71542E+03
 -2.81142E+03 -8.59772E+03  2.28027E+03 -6.60533E+03  5.64116E+03 -4.05146E+03  4.33059E+03  2.70561E+02
  3.25363E+03  3.06695E+03 -3.51843E+00  2.35022E+03 -1.29996E+03 -1.48051E+02 -1.70753E+02 -1.42255E+03
  2.32407E+03 -1.36289E+03  3.21040E+03  1.65489E+03  2.61793E+03  2.48981E+03  5.82099E+01  4.68493E+03
 -3.91735E+03  3.79727E+03 -5.84803E+03  2.58533E+02 -4.83324E+03 -4.09719E+03 -6.55486E+02 -6.42077E+03
  4.56077E+03 -5.98177E+03  6.20076E+03 -1.72795E+03  6.67199E+03  1.44254E+03  4.22900E+03  5.76323E+03
  2.77074E+02  5.69768E+03 -2.69991E+03  4.58424E+03 -3.90412E+03  2.15696E+03 -3.29794E+03  3.90226E+02
 -1.83061E+03  8.88074E+01 -2.30261E+03  8.28218E+02 -3.20434E+03  4.40102E+02 -4.38780E+03 -4.30409E+02
 -4.17384E+03 -2.52048E+03 -5.55738E+02 -5.29726E+03  3.27740E+03 -5.09317E+03  5.23199E+03 -3.08333E+03
  5.16100E+03  1.16151E+03  3.40688E+03  4.17046E+03 -1.21932E+03  5.90204E+03 -3.33525E+03  4.40301E+03
