 $NMID ID='MM_0lb_SNR400_16hz_g60_92.RAW', FMTDAT='(8E13.5)'
 TRAMP=1., VOLUME=1. $END
  3.10025E+05  2.61521E+02  3.37488E+05  2.50302E+05  8.43750E+04  3.38492E+05 -1.32952E+05  2.51342E+05
 -1.90229E+05  8.30827E+04 -1.11834E+05 -3.27544E+04  1.03951E+03 -5.07157E+04  5.40078E+04 -2.45284E+01
  3.58910E+04  5.29165E+04 -1.69307E+04  7.55582E+04 -6.07262E+04  6.36400E+04 -8.41100E+04  3.16567E+04
 -8.18458E+04 -1.18128E+04 -5.68573E+04 -5.13485E+04 -1.50035E+04 -7.04076E+04  2.74185E+04 -4.65807E+04
  3.93965E+04  3.66352E+03  1.56136E+04  4.70654E+04 -3.42846E+04  4.65903E+04 -6.69951E+04 -5.03829E+02
 -5.35629E+04 -5.64701E+04 -7.29255E+03 -7.71188E+04  3.42441E+04 -5.56866E+04  4.84072E+04 -1.71515E+04
  4.33021E+04  1.14100E+04  3.18295E+04  2.55732E+04  1.60197E+04  2.92437E+04 -4.74185E+03  2.70744E+04
 -2.16749E+04  1.26653E+04 -1.86039E+04 -4.94576E+03  5.40898E+03 -7.57466E+03  2.14881E+04  1.25294E+04
  7.02309E+03  3.54011E+04 -3.25718E+04  3.58641E+04 -6.35543E+04  1.66832E+03 -5.73610E+04 -4.27509E+04
 -1.23366E+04 -6.28683E+04  4.00189E+04 -4.51554E+04  5.89958E+04 -2.36785E+03  3.46872E+04  3.26105E+04
 -5.71864E+03  3.60152E+04 -3.08765E+04  1.55580E+04 -3.04027E+04 -4.40744E+03 -1.69324E+04 -1.07341E+04
 -8.87336E+03 -1.35158E+04 -7.99330E+02 -1.85985E+04  7.26917E+03 -2.32245E+04  1.50946E+04 -1.34245E+04
  1.14068E+04  5.64855E+03 -8.29202E+03  1.29011E+04 -2.09084E+04 -4.85623E+03 -8.52065E+03 -3.35929E+04
  2.32628E+04 -4.32009E+04  4.80307E+04 -1.99944E+04  4.55640E+04  1.94515E+04  1.54305E+04  4.38139E+04
 -1.58109E+04  3.38249E+04 -2.50758E+04  1.77542E+03 -9.43360E+03 -2.76794E+04  2.13241E+04 -3.41674E+04
  4.07366E+04 -9.01051E+03  3.54721E+04  2.39010E+04  1.85993E+04  4.65258E+04 -7.61903E+03  5.00484E+04
 -3.11898E+04  3.42262E+04 -4.18663E+04  9.02841E+03 -4.24080E+04 -1.62885E+04 -2.30031E+04 -3.78471E+04
  7.26659E+03 -3.75696E+04  3.12877E+04 -1.48321E+04  2.83999E+04  1.10428E+04  4.15938E+03  1.87620E+04
 -1.34744E+04  8.14775E+03 -1.04980E+04 -7.34656E+03  5.89553E+03 -1.05887E+04  1.76822E+04  5.92037E+03
  1.33478E+04  2.21330E+04 -5.97327E+03  2.53759E+04 -2.22456E+04  1.09018E+04 -2.76717E+04 -4.38554E+03
 -2.04868E+04 -1.72856E+04 -8.20040E+03 -2.01196E+04  4.11873E+03 -1.97503E+04  1.59275E+04 -1.80842E+04
  2.60820E+04 -1.28421E+04  3.25075E+04  2.88675E+03  2.34219E+04  2.01700E+04  4.10560E+03  3.60114E+04
 -1.78460E+04  3.03207E+04 -2.82839E+04  1.04281E+04 -2.05088E+04 -9.99864E+03 -5.19314E+03 -1.40544E+04
  1.78395E+03 -3.28683E+03 -4.63925E+03  6.56583E+03 -1.59471E+04  5.35837E+03 -1.61493E+04 -6.87584E+03
 -1.00146E+04 -1.90371E+04  5.21616E+03 -2.29109E+04  1.54604E+04 -1.60162E+04  1.77173E+04 -1.20401E+03
  1.10770E+04  1.31530E+04 -1.09872E+03  1.88740E+04 -1.23869E+04  1.05627E+04 -1.91629E+04 -3.69406E+03
 -1.37829E+04 -1.67393E+04 -1.72342E+03 -2.19812E+04  1.01738E+04 -1.86903E+04  1.92598E+04 -9.67381E+03
  1.74766E+04  2.51916E+02  1.22910E+04  4.18180E+03  6.44781E+03  7.56662E+02  9.10466E+03 -1.18542E+03
  1.71490E+04  3.37996E+03  1.88899E+04  1.51808E+04  1.16311E+04  2.89241E+04 -3.17463E+03  3.35199E+04
 -2.00419E+04  2.63265E+04 -3.08879E+04  1.30449E+04 -3.24463E+04 -2.24110E+03 -2.65564E+04 -1.87816E+04
 -1.22886E+04 -2.66929E+04  9.15773E+03 -2.44340E+04  2.10142E+04 -1.27599E+04  1.88468E+04  4.57790E+03
  7.33518E+03  1.38965E+04 -9.14695E+03  1.20658E+04 -1.58826E+04  2.46621E+03 -1.26255E+04 -9.65746E+03
  5.00824E+01 -1.51778E+04  7.77962E+03 -1.15306E+04  1.03923E+04 -1.43874E+03  2.17914E+03  6.48457E+03
 -6.89211E+03  2.37517E+03 -5.16300E+03 -5.46337E+03 -1.51831E+02 -1.31137E+04  9.32009E+03 -1.37345E+04
  1.62117E+04 -7.09058E+03  1.65298E+04  2.79105E+03  1.49522E+04  1.26605E+04  7.29244E+03  1.88069E+04
 -3.23493E+03  2.10766E+04 -1.30062E+04  1.34034E+04 -1.54140E+04  3.66208E+03 -1.07374E+04 -2.77678E+03
 -4.75994E+03 -4.25704E+03 -1.13699E+03  1.10660E+03 -1.73524E+03  2.55176E+03 -5.16096E+03  4.18768E+03
 -9.54959E+03 -4.22162E+02 -1.12474E+04 -8.64007E+03 -4.45498E+03 -1.43376E+04  4.82913E+03 -1.05820E+04
  8.54060E+03 -4.33670E+03  6.28988E+03  2.96749E+03  2.94358E+01  4.31739E+03 -4.83179E+03 -2.87087E+02
 -4.97754E+03 -6.86167E+03 -7.41681E+02 -1.00991E+04  5.75941E+03 -1.07938E+04  1.32793E+04 -5.83982E+03
  1.55542E+04  1.63901E+03  1.14937E+04  9.60361E+03  2.00390E+03  1.21885E+04 -6.87501E+03  1.05368E+04
 -8.28632E+03  3.08659E+03 -4.36596E+03 -1.78372E+03  1.74405E+03 -2.89765E+03  5.71362E+03 -1.11919E+03
  4.98245E+03  4.38365E+03  1.28104E+03  8.17042E+03 -6.60892E+03  7.91899E+03 -9.84039E+03  1.66572E+03
 -6.77378E+03 -4.88268E+03  1.65833E+02 -8.91443E+03  5.20382E+03 -4.87716E+03  5.39207E+03  1.58247E+03
  9.72628E+02  5.28334E+03 -5.42829E+03  7.07143E+03 -7.25625E+03  2.68915E+03 -6.91083E+03 -1.95680E+03
 -4.10415E+03 -7.99402E+03  1.64337E+03 -9.92909E+03  9.17359E+03 -6.26490E+03  9.19096E+03  1.36469E+03
  6.19192E+03  7.50423E+03 -4.82674E+02  9.76857E+03 -7.05577E+03  5.58672E+03 -7.40995E+03 -4.88482E+02
 -7.31961E+03 -6.14984E+03 -1.48517E+03 -7.07262E+03  3.74993E+03 -5.99080E+03  4.23948E+03 -3.20999E+03
  3.61609E+03  6.55508E+02 -2.99840E+02  1.37298E+03  8.41953E+02 -1.28825E+03  1.29992E+02 -2.75764E+03
  5.88924E+03 -2.01370E+03  7.79468E+03  2.66471E+02  8.27508E+03  5.08258E+03  6.43954E+03  1.08695E+04
 -2.45767E+03  1.22897E+04 -1.09486E+04  8.92274E+03 -1.38505E+04  1.71982E+03 -1.16136E+04 -4.94933E+03
 -5.78753E+03 -8.97093E+03  1.99230E+01 -7.36873E+03  2.92210E+03 -4.57251E+03  2.97105E+03 -2.49583E+03
  1.35752E+03 -2.70935E+03  2.58318E+03 -2.48520E+03  4.60970E+03 -2.04539E+03  4.78239E+03  4.44181E+01
  5.51271E+03  1.54810E+03  1.94064E+03  4.27853E+03 -2.08596E+03  4.62353E+03 -6.29839E+03  3.99063E+03
 -7.05524E+03 -7.08324E+02 -3.80558E+03 -5.28557E+03  7.87534E+01 -7.57032E+03  4.68924E+03 -7.26397E+03
  8.10606E+03 -4.61438E+03  1.01508E+04  5.86679E+02  6.65996E+03  6.36928E+03  9.22066E+02  8.53539E+03
 -3.16552E+03  7.72189E+03 -5.09288E+03  2.55506E+03 -2.90378E+03 -1.48944E+03 -7.48376E+02 -9.24659E+02
 -8.30251E+02 -5.73205E+01 -1.56922E+03  1.77297E+03 -3.52215E+03  7.69112E+02 -5.34239E+03 -9.07192E+02
 -2.93335E+03 -5.46485E+03  8.34688E+02 -7.27849E+03  4.63352E+03 -6.06397E+03  6.02554E+03 -1.68633E+03
  6.64936E+03  3.58412E+03  3.31036E+03  5.50322E+03 -1.01115E+03  6.32058E+03 -4.45962E+03  4.22534E+03
 -6.01568E+03  5.94397E+02 -5.08383E+03 -3.73744E+03 -3.18250E+02 -5.07151E+03  2.88589E+03 -3.97251E+03
  4.29470E+03 -1.62022E+03  3.17121E+03  7.83254E+02  1.17596E+03  2.01474E+03  6.25932E+02  8.13181E+02
  9.42364E+02  9.36729E+02  1.64593E+03  1.59516E+03  2.30910E+03  3.01908E+03  1.90849E+03  3.29352E+03
 -1.55435E+03  4.81433E+03 -4.18428E+03  5.19036E+03 -5.59530E+03  9.96241E+02 -7.01448E+03 -1.96520E+03
 -2.38094E+03 -6.34476E+03  9.86222E+02 -6.66646E+03  3.39750E+03 -4.02069E+03  4.52406E+03 -1.36332E+03
  4.40291E+03  2.24867E+03  5.91773E+02  3.52087E+03 -1.59898E+03  1.93909E+03 -2.09104E+03 -2.71985E+02
 -1.15016E+03 -2.63259E+03  1.55088E+03 -2.94099E+03  2.39788E+03 -1.14409E+03  2.29710E+03  5.64360E+02
  1.61291E+03  6.02653E+02  1.28104E+03  3.25994E+02 -2.46981E+02  6.93340E+02  1.28616E+03  2.63318E+02
  9.44814E+02 -2.67130E+02  1.78854E+03  3.12553E+02  9.53482E+02  3.49660E+03 -1.11237E+03  4.25273E+03
 -2.42370E+03  2.42355E+03 -3.51480E+03  2.59558E+02 -2.93292E+03 -1.21266E+03 -7.60580E+02 -2.58212E+03
  1.41205E+02 -1.36114E+03  1.44446E+03 -1.14294E+03  1.67760E+03  1.40497E+03 -8.09195E+02  1.61002E+03
 -2.14450E+03  1.27871E+03 -2.44560E+03 -1.75434E+03 -9.94598E+02 -3.46856E+03  9.75191E+02 -1.76536E+03
  1.80784E+03 -9.37814E+02  2.15362E+03  1.46859E+02  2.24236E+03  1.14821E+02  3.10813E+02  1.48314E+03
 -7.97362E+02  3.47904E+02 -1.64061E+03 -9.70172E+02  7.79004E+02 -1.53285E+03  2.49418E+03 -9.99913E+02
  2.86940E+03  1.08896E+03  4.15624E+03  1.37186E+03  1.31171E+03  2.99275E+03 -6.40355E+02  3.04228E+03
 -2.71920E+03  9.93805E+02 -2.65879E+03 -4.82104E+01 -1.17125E+03 -1.71512E+03  1.46053E+02 -1.29519E+03
  1.91814E+03 -8.88862E+02  2.00423E+03  9.18105E+02  6.29834E+02  2.19920E+03  1.05172E+02  1.66434E+03
 -5.93354E+02  2.00396E+03 -8.19623E+02  9.26200E+02  4.05814E+02  6.41726E+02 -9.18071E+02  1.00083E+03
 -8.00456E+02  9.86008E+02 -2.76620E+03  8.93810E+02 -3.10245E+03 -5.03382E+02 -3.51705E+03 -1.57574E+03
 -1.94931E+03 -3.88806E+03  9.26201E+02 -4.49968E+03  2.25498E+03 -3.48930E+03  4.36941E+03 -1.38499E+03
  3.33239E+03  2.00856E+02  2.08784E+03  2.49326E+03 -8.98098E+02  2.46174E+03 -1.78131E+03  2.09386E+03
 -1.49436E+03  7.80256E+02 -5.78132E+02 -4.65699E+02 -1.51919E+02  3.09184E+02 -1.10384E+03 -8.17344E+02
 -1.37757E+03 -4.04326E+02 -5.82026E+02 -2.00662E+02  2.04764E+02 -8.21061E+02 -4.67173E+02 -9.20223E+02
  1.33336E+03 -6.61346E+02  5.13362E+02 -3.85083E+02  2.02502E+03  1.27751E+03 -2.20354E+02  2.98115E+03
 -1.14330E+03  3.83385E+03 -3.17220E+03  1.68585E+03 -3.18359E+03  2.26001E+02 -2.28345E+03 -2.21562E+03
 -1.64030E+03 -2.65194E+03  5.62783E+02 -2.13224E+03  1.53264E+03 -3.50296E+02  1.36270E+03  3.30264E+02
  1.31322E+03  8.28902E+02  9.97454E-01  5.39360E+02 -2.90159E+02  5.28516E+02  3.17851E+02 -5.56029E+02
  1.00747E+03  2.73241E+01  6.60778E+02  1.07558E+03  4.84765E+02  7.00834E+02  2.20287E+02  4.94867E+02
 -1.29654E+03  1.08544E+03 -1.36926E+03  1.39864E+02 -1.09021E+03 -5.56019E+02 -3.76485E+02 -1.46332E+03
  1.02577E+03 -1.98305E+03  1.13987E+03 -5.11817E+02  7.54854E+02 -4.04637E+02  6.57841E+02  1.13061E+03
  5.41478E+02  1.12183E+03 -3.35181E+02  1.11681E+03 -5.81953E+02  1.01916E+03 -6.40745E+02  1.10448E+02
 -8.40338E+02  1.14792E+02 -7.90246E+02 -4.43055E+02 -1.11152E+03  7.98667E+02 -1.26684E+03 -1.59285E+02
 -1.56983E+03 -5.84120E+02 -7.20380E+02 -1.30434E+03  9.60864E+02 -2.26699E+03  1.16465E+03 -6.12996E+02
  1.19120E+03  8.36767E+02 -3.99219E+02  8.50602E+02  1.27871E+02  1.17519E+03 -4.00284E+02  1.22694E+03
