 $NMID ID='MM_0lb_SNR400_14hz_g40_14.RAW', FMTDAT='(8E13.5)'
 TRAMP=1., VOLUME=1. $END
  3.09396E+05  1.07466E+02  3.37451E+05  2.50453E+05  8.47630E+04  3.37457E+05 -1.32544E+05  2.51514E+05
 -1.90187E+05  8.27930E+04 -1.11443E+05 -3.26134E+04  4.01095E+02 -5.12539E+04  5.36366E+04 -6.00069E+02
  3.52292E+04  5.24557E+04 -1.68852E+04  7.50964E+04 -6.07859E+04  6.25613E+04 -8.39019E+04  3.21809E+04
 -8.10028E+04 -1.18985E+04 -5.70871E+04 -5.07697E+04 -1.49959E+04 -6.97797E+04  2.76084E+04 -4.55800E+04
  4.00751E+04  4.19260E+03  1.64937E+04  4.77133E+04 -3.41555E+04  4.67412E+04 -6.65203E+04 -1.69906E+02
 -5.36196E+04 -5.63717E+04 -6.30858E+03 -7.65275E+04  3.32821E+04 -5.44331E+04  4.74426E+04 -1.65711E+04
  4.28093E+04  1.06828E+04  3.17146E+04  2.49191E+04  1.65259E+04  2.93672E+04 -4.79880E+03  2.67127E+04
 -2.24641E+04  1.28019E+04 -1.87279E+04 -5.09639E+03  5.29606E+03 -7.16218E+03  2.18499E+04  1.15741E+04
  7.50035E+03  3.42546E+04 -3.16041E+04  3.48460E+04 -6.27694E+04  2.16564E+03 -5.64683E+04 -4.19885E+04
 -1.23100E+04 -6.27552E+04  3.90686E+04 -4.41276E+04  5.75952E+04 -2.22207E+03  3.38008E+04  3.21186E+04
 -5.61958E+03  3.50621E+04 -2.96909E+04  1.51264E+04 -2.97915E+04 -5.28063E+03 -1.60583E+04 -1.07571E+04
 -8.32168E+03 -1.22294E+04 -1.04365E+02 -1.73282E+04  6.87105E+03 -2.29066E+04  1.58233E+04 -1.36625E+04
  1.14541E+04  4.62993E+03 -7.86274E+03  1.28634E+04 -2.08061E+04 -3.85873E+03 -8.15516E+03 -3.27553E+04
  2.25624E+04 -4.28285E+04  4.72059E+04 -1.92818E+04  4.36665E+04  1.91396E+04  1.51033E+04  4.40306E+04
 -1.53657E+04  3.26958E+04 -2.48979E+04  1.96496E+03 -9.31496E+03 -2.71135E+04  2.09304E+04 -3.33098E+04
  4.05894E+04 -8.24164E+03  3.47109E+04  2.31982E+04  1.76237E+04  4.54276E+04 -7.39200E+03  4.91962E+04
 -3.00714E+04  3.25405E+04 -4.07280E+04  9.14736E+03 -4.10977E+04 -1.63163E+04 -2.29652E+04 -3.76237E+04
  6.88938E+03 -3.66908E+04  3.14462E+04 -1.48089E+04  2.91099E+04  1.06450E+04  3.88199E+03  1.90200E+04
 -1.30712E+04  8.07880E+03 -1.05948E+04 -7.56947E+03  6.24786E+03 -1.07401E+04  1.72925E+04  6.19720E+03
  1.31896E+04  2.16797E+04 -6.24933E+03  2.44950E+04 -2.21191E+04  1.14115E+04 -2.73487E+04 -4.80491E+03
 -1.99275E+04 -1.63640E+04 -7.18891E+03 -1.92862E+04  3.93286E+03 -1.85974E+04  1.55081E+04 -1.79982E+04
  2.56139E+04 -1.21028E+04  3.16854E+04  2.16589E+03  2.38840E+04  1.88593E+04  4.41800E+03  3.48511E+04
 -1.76582E+04  2.98974E+04 -2.74152E+04  1.02324E+04 -2.04433E+04 -1.10092E+04 -3.86588E+03 -1.34274E+04
  1.97416E+03 -2.70909E+03 -4.62658E+03  6.62520E+03 -1.53588E+04  4.88344E+03 -1.56564E+04 -6.42288E+03
 -1.03569E+04 -1.77236E+04  4.94645E+03 -2.22102E+04  1.48742E+04 -1.57049E+04  1.72354E+04 -1.91149E+03
  1.10497E+04  1.30763E+04 -4.98785E+02  1.81772E+04 -1.27308E+04  1.01973E+04 -1.74037E+04 -4.10288E+03
 -1.34757E+04 -1.59342E+04 -1.56788E+03 -2.17398E+04  1.04329E+04 -1.77833E+04  1.86949E+04 -8.44619E+03
  1.70967E+04  2.51062E+02  1.28294E+04  5.10127E+03  6.72036E+03  1.02331E+03  9.24216E+03 -1.70520E+03
  1.71400E+04  2.31871E+03  1.82827E+04  1.48644E+04  1.23308E+04  2.91359E+04 -2.09608E+03  3.24709E+04
 -1.96991E+04  2.58110E+04 -3.06557E+04  1.25801E+04 -3.17967E+04 -2.25491E+03 -2.63964E+04 -1.79375E+04
 -1.13207E+04 -2.60968E+04  9.23804E+03 -2.30738E+04  2.04099E+04 -1.26075E+04  1.93269E+04  5.65549E+03
  7.43912E+03  1.43342E+04 -8.74462E+03  1.23485E+04 -1.60304E+04  2.58711E+03 -1.18966E+04 -9.68019E+03
  1.41064E+02 -1.53494E+04  7.26491E+03 -1.11041E+04  1.03159E+04 -1.19600E+03  2.86519E+03  6.65117E+03
 -6.65543E+03  2.03733E+03 -5.64148E+03 -6.24248E+03 -6.86055E+02 -1.25278E+04  8.99065E+03 -1.33136E+04
  1.62725E+04 -6.94566E+03  1.71553E+04  3.33652E+03  1.44739E+04  1.30467E+04  6.94965E+03  1.92867E+04
 -2.81635E+03  2.11578E+04 -1.31402E+04  1.36231E+04 -1.52181E+04  3.09112E+03 -1.00543E+04 -3.13473E+03
 -5.36910E+03 -4.66698E+03 -5.75235E+02  9.29605E+02 -2.21253E+03  2.42328E+03 -4.91147E+03  4.72500E+03
 -1.00740E+04 -2.87302E+02 -1.08033E+04 -8.48300E+03 -4.71111E+03 -1.42379E+04  4.30303E+03 -1.09465E+04
  9.23712E+03 -4.66830E+03  6.49258E+03  2.79048E+03  1.26411E+02  3.93818E+03 -5.31596E+03  9.47281E+02
 -5.27186E+03 -6.74095E+03 -4.90922E+02 -9.76491E+03  5.90430E+03 -1.03658E+04  1.37642E+04 -5.70261E+03
  1.56775E+04  1.31305E+03  1.13250E+04  9.24598E+03  1.91125E+03  1.20225E+04 -6.92331E+03  1.12884E+04
 -9.19989E+03  3.54197E+03 -3.93101E+03 -1.79264E+03  1.82911E+03 -2.74842E+03  5.94420E+03 -1.14494E+03
  5.08195E+03  4.54971E+03  1.03399E+03  8.29914E+03 -6.26874E+03  7.97949E+03 -1.06013E+04  2.14815E+03
 -6.95300E+03 -5.14428E+03  4.19633E+01 -8.39268E+03  5.44215E+03 -4.65847E+03  5.50527E+03  1.14343E+03
  8.75812E+02  5.19513E+03 -5.69637E+03  7.26726E+03 -7.96623E+03  3.13235E+03 -7.98692E+03 -2.77642E+03
 -4.54932E+03 -8.83346E+03  2.06957E+03 -1.07494E+04  8.57447E+03 -6.59782E+03  9.35102E+03  9.20931E+02
  6.68306E+03  7.75340E+03 -1.51843E+02  1.00818E+04 -6.75492E+03  6.06130E+03 -7.95583E+03 -7.38737E+02
 -7.56605E+03 -7.44835E+03 -1.29134E+03 -6.93495E+03  3.65112E+03 -6.57765E+03  3.95585E+03 -2.96362E+03
  3.63252E+03  1.52019E+02 -3.67003E+02  1.07742E+03  4.54749E+02 -1.66327E+03  8.46483E+02 -3.71807E+03
  6.46026E+03 -2.03144E+03  9.06994E+03  1.43447E+03  8.59368E+03  5.81128E+03  7.01340E+03  1.16014E+04
 -2.10183E+03  1.40599E+04 -1.13060E+04  1.02532E+04 -1.48255E+04  1.52240E+03 -1.19669E+04 -5.04407E+03
 -6.23422E+03 -9.45803E+03 -3.71359E+02 -7.86592E+03  2.76228E+03 -4.08545E+03  3.03970E+03 -2.96679E+03
  2.30818E+03 -1.72185E+03  2.35157E+03 -3.06935E+03  4.03378E+03 -1.93481E+03  4.58423E+03 -4.15796E+02
  6.36914E+03  2.37923E+03  2.93201E+03  5.20773E+03 -1.66496E+03  5.32087E+03 -7.00633E+03  4.14557E+03
 -7.69326E+03 -8.85805E+02 -4.69696E+03 -5.84309E+03  1.20988E+02 -9.01907E+03  4.93325E+03 -8.92355E+03
  8.72421E+03 -5.72597E+03  1.13160E+04  7.97921E+02  7.25463E+03  7.15847E+03  1.30995E+03  9.29318E+03
 -3.69002E+03  8.76289E+03 -5.40501E+03  2.84278E+03 -3.86092E+03 -1.13475E+03 -9.01419E+02 -7.49788E+02
 -6.80347E+02  1.63490E+01 -1.19948E+03  2.09684E+03 -3.63840E+03  1.39431E+03 -6.02169E+03 -2.25583E+02
 -3.54260E+03 -5.69473E+03  3.60239E+02 -7.74898E+03  4.85382E+03 -7.71049E+03  7.06373E+03 -2.88822E+03
  7.64210E+03  3.95421E+03  3.46396E+03  6.41472E+03 -1.11043E+03  7.82906E+03 -4.75595E+03  4.63856E+03
 -7.20292E+03  5.65427E+02 -5.58679E+03 -4.47986E+03 -1.65187E+02 -6.32921E+03  2.67206E+03 -4.05843E+03
  4.39638E+03 -1.82344E+03  3.42903E+03  8.55224E+02  1.61248E+03  2.28021E+03  1.71943E+02  8.78576E+02
  2.03002E+03  9.47499E+02  3.18110E+03  1.44562E+03  1.91344E+03  2.67774E+03  1.71850E+03  4.08479E+03
 -2.03144E+03  5.63374E+03 -4.64689E+03  5.89670E+03 -6.67674E+03  1.13303E+03 -7.33937E+03 -2.30137E+03
 -3.87081E+03 -7.01339E+03  1.32129E+03 -7.62270E+03  3.75595E+03 -5.05072E+03  5.38682E+03 -1.50345E+03
  4.07538E+03  2.74169E+03  1.20062E+03  4.14833E+03 -2.00407E+03  2.63250E+03 -2.90858E+03  1.52150E+02
 -1.66650E+03 -3.16400E+03  1.52089E+03 -2.95372E+03  2.69671E+03 -1.46096E+03  2.56815E+03  7.55324E+02
  1.63411E+03  1.31119E+03  8.49834E+02  2.23701E+02 -5.31596E+02  6.14509E+02  1.38005E+03 -4.60438E+02
  2.06403E+02 -1.64923E+02  2.99367E+03  1.31908E+03  1.69635E+03  4.00127E+03 -4.71604E+02  5.13756E+03
 -2.98504E+03  2.52568E+03 -3.65320E+03  6.43223E+02 -3.67903E+03 -2.37135E+03 -1.11095E+03 -2.27809E+03
  4.28215E+02 -1.97967E+03  1.71209E+03 -1.10742E+03  1.89884E+03  7.85467E+02 -4.41280E+02  2.80724E+03
 -2.43348E+03  1.07969E+03 -2.63411E+03 -2.01853E+03 -1.16986E+03 -4.00570E+03  9.69004E+01 -3.46145E+03
  1.26343E+03 -1.77712E+03  2.61891E+03  8.90163E+02  2.18945E+03  5.38617E+02 -1.06293E+02  1.98473E+03
 -8.07488E+02  4.13689E+02 -1.97403E+03 -5.30178E+02  8.30315E+02 -2.50492E+03  3.15826E+03 -1.94516E+03
  3.70468E+03  2.48453E+02  4.57134E+03  2.48990E+03  1.30826E+03  4.14770E+03 -1.35078E+03  4.76794E+03
 -3.80584E+03  1.15750E+03 -3.74168E+03 -4.68197E+02 -2.09811E+03 -2.74304E+03  5.17188E+02 -1.91643E+03
  3.00140E+03 -1.74148E+03  1.72971E+03  6.93140E+02  3.89414E+02  2.38268E+03 -2.34305E+02  1.92375E+03
 -6.92789E+02  1.75740E+03 -7.44921E+02  1.15588E+03 -4.69226E+02  3.53112E+02 -1.32559E+03  1.18217E+03
 -1.13803E+03  1.69802E+03 -3.17548E+03  1.36497E+03 -3.79244E+03 -4.61384E+01 -4.90811E+03 -2.38922E+03
 -1.89840E+03 -4.63546E+03  8.98370E+02 -5.93904E+03  3.45081E+03 -4.79175E+03  6.61774E+03 -2.18316E+03
  5.81260E+03  1.20525E+03  2.61432E+03  4.02572E+03  2.56962E+01  3.95548E+03 -1.47868E+03  3.31198E+03
 -2.53125E+03  1.44705E+03 -1.39742E+03 -3.08478E+01 -1.01280E+03 -2.87069E+02 -1.16527E+03  4.17655E+02
 -9.66041E+02 -1.37047E+02 -7.61645E+02  2.30123E+01 -2.64438E+02 -4.36335E+02 -4.15411E+02 -1.65759E+03
  1.94076E+03 -1.01801E+03  1.80121E+03  8.52865E+02  3.21612E+03  2.68878E+03  7.99150E+01  4.31186E+03
 -2.50534E+03  4.53668E+03 -4.24435E+03  2.43998E+03 -4.61930E+03 -8.76316E+02 -3.49527E+03 -3.09610E+03
 -1.64578E+03 -4.15447E+03  8.38926E+02 -3.50668E+03  2.39644E+03 -1.62688E+03  2.14639E+03 -5.34133E+02
  1.44609E+03  1.26737E+03 -5.36093E+02  7.19560E+02 -7.40677E+02  5.66471E+00  1.15026E+02 -8.31135E+02
  1.62360E+03  5.32480E+00  1.36229E+03  1.25577E+03  1.14307E+03  2.17661E+03  4.43300E+02  1.15081E+03
 -1.09663E+03  1.53762E+03 -2.00705E+03  1.04431E+02 -1.94332E+03 -7.90733E+02  8.09791E+01 -2.80702E+03
  2.00717E+03 -2.42785E+03  2.46077E+03 -3.14466E+02  2.23368E+03  3.01264E+02  1.61226E+03  2.33126E+03
  4.54761E+02  1.85548E+03 -5.57826E+02  1.80186E+03 -1.89483E+03  1.22041E+03 -1.50077E+03  5.76277E+02
 -8.81280E+02 -3.94575E+02 -9.28490E+02  9.38369E+01 -1.26153E+03  6.23331E+02 -2.18759E+03 -5.61935E+02
 -1.98129E+03 -5.41591E+02 -6.58620E+02 -2.46313E+03  9.33940E+02 -2.79203E+03  1.99007E+03 -1.01625E+03
  2.01774E+03  5.25573E+02  2.48137E+02  1.71822E+03  5.18524E+02  1.98588E+03 -1.79740E+03  1.15871E+03
