 $NMID ID='MM_0lb_SNR400_19hz_g50_19.RAW', FMTDAT='(8E13.5)'
 TRAMP=1., VOLUME=1. $END
  3.09747E+05  7.48779E+02  3.37531E+05  2.50397E+05  8.44460E+04  3.36805E+05 -1.33086E+05  2.49929E+05
 -1.89614E+05  8.27373E+04 -1.11247E+05 -3.30042E+04  1.20610E+03 -5.03239E+04  5.38410E+04  1.05090E+02
  3.50242E+04  5.27754E+04 -1.73025E+04  7.46452E+04 -6.05828E+04  6.23356E+04 -8.30119E+04  3.19702E+04
 -7.98418E+04 -1.10415E+04 -5.63930E+04 -4.98735E+04 -1.47636E+04 -6.84520E+04  2.69972E+04 -4.43496E+04
  3.96463E+04  3.67955E+03  1.56059E+04  4.70109E+04 -3.34092E+04  4.63906E+04 -6.57034E+04 -1.27812E+02
 -5.24976E+04 -5.57726E+04 -6.12598E+03 -7.49574E+04  3.30183E+04 -5.33512E+04  4.69519E+04 -1.63106E+04
  4.14784E+04  1.14854E+04  3.09170E+04  2.41364E+04  1.59024E+04  2.84857E+04 -4.52312E+03  2.66008E+04
 -2.20147E+04  1.27973E+04 -1.92590E+04 -3.70326E+03  4.92899E+03 -7.53304E+03  2.12651E+04  1.15002E+04
  8.12840E+03  3.34164E+04 -3.14375E+04  3.44116E+04 -6.11430E+04  2.60188E+03 -5.50538E+04 -4.13248E+04
 -1.27675E+04 -6.08297E+04  3.83385E+04 -4.36643E+04  5.55830E+04 -1.35055E+03  3.19363E+04  3.06352E+04
 -6.05272E+03  3.29933E+04 -2.79695E+04  1.37092E+04 -2.76496E+04 -5.39699E+03 -1.42450E+04 -1.02004E+04
 -7.13414E+03 -1.06979E+04 -7.76763E+02 -1.68559E+04  6.32659E+03 -2.29388E+04  1.51295E+04 -1.38519E+04
  1.20153E+04  4.55395E+03 -6.40000E+03  1.30211E+04 -1.89860E+04 -2.60035E+03 -7.81451E+03 -3.06293E+04
  2.09505E+04 -4.04238E+04  4.46880E+04 -1.85640E+04  4.21620E+04  1.79030E+04  1.39841E+04  4.20248E+04
 -1.52272E+04  3.10160E+04 -2.40483E+04  1.29772E+03 -8.82322E+03 -2.72262E+04  2.04991E+04 -3.14634E+04
  3.83957E+04 -7.06856E+03  3.17218E+04  2.27381E+04  1.51892E+04  4.22216E+04 -7.69791E+03  4.59153E+04
 -2.82974E+04  3.02209E+04 -3.72510E+04  8.42289E+03 -3.82594E+04 -1.50967E+04 -2.19730E+04 -3.41558E+04
  7.15359E+03 -3.42507E+04  2.91671E+04 -1.28358E+04  2.67183E+04  1.06973E+04  3.02704E+03  1.76032E+04
 -1.30995E+04  7.35945E+03 -9.28909E+03 -8.46876E+03  6.08650E+03 -1.02753E+04  1.69277E+04  6.09868E+03
  1.18774E+04  2.11444E+04 -6.83217E+03  2.33086E+04 -2.15954E+04  8.99127E+03 -2.52024E+04 -6.44142E+03
 -1.66655E+04 -1.57858E+04 -5.52815E+03 -1.69221E+04  3.87277E+03 -1.48042E+04  1.25600E+04 -1.44462E+04
  2.11051E+04 -1.18709E+04  2.85397E+04  9.24843E+02  2.15272E+04  1.59619E+04  4.32035E+03  3.27811E+04
 -1.53885E+04  2.75481E+04 -2.61971E+04  9.45690E+03 -1.91774E+04 -9.92225E+03 -4.12337E+03 -1.41179E+04
  3.00068E+03 -4.01078E+03 -2.74416E+03  5.10793E+03 -1.29255E+04  5.34080E+03 -1.33672E+04 -5.04931E+03
 -8.18295E+03 -1.52847E+04  4.38709E+03 -1.92896E+04  1.26861E+04 -1.41484E+04  1.41950E+04 -1.59989E+03
  8.73554E+03  1.07845E+04 -7.64778E+02  1.52170E+04 -1.02767E+04  8.86743E+03 -1.58817E+04 -3.19820E+03
 -1.17659E+04 -1.44473E+04 -1.18327E+03 -1.92019E+04  8.22755E+03 -1.48628E+04  1.58776E+04 -7.10982E+03
  1.45038E+04  4.54114E+02  1.06513E+04  3.54064E+03  5.14192E+03  5.16798E+02  7.60662E+03 -1.58718E+03
  1.37570E+04  2.63540E+03  1.44561E+04  1.26436E+04  8.56559E+03  2.47083E+04 -3.50784E+03  2.63204E+04
 -1.52048E+04  2.04724E+04 -2.40707E+04  9.29077E+03 -2.46236E+04 -1.77894E+03 -2.10130E+04 -1.43711E+04
 -1.02366E+04 -2.01770E+04  6.45836E+03 -1.89042E+04  1.74486E+04 -1.10225E+04  1.58780E+04  3.63876E+03
  6.25820E+03  1.13799E+04 -7.01491E+03  1.04533E+04 -1.37108E+04  2.62974E+03 -1.02926E+04 -7.90113E+03
 -1.60458E+02 -1.27559E+04  5.82583E+03 -9.41691E+03  7.75884E+03 -1.26762E+03  1.36481E+03  4.93335E+03
 -5.25688E+03  1.14948E+03 -3.73248E+03 -4.20870E+03  4.73658E+02 -1.02255E+04  7.38261E+03 -9.58757E+03
  1.23131E+04 -4.34605E+03  1.18399E+04  2.36919E+03  1.01643E+04  9.69579E+03  4.53079E+03  1.35610E+04
 -1.83424E+03  1.54481E+04 -9.78513E+03  9.79195E+03 -1.11512E+04  3.18479E+03 -8.57108E+03 -2.12768E+03
 -4.34867E+03 -3.41047E+03 -8.70672E+02  1.73589E+03 -1.71991E+03  2.03506E+03 -3.43089E+03  3.61492E+03
 -8.30293E+03 -3.51387E+02 -8.19627E+03 -6.90093E+03 -3.47310E+03 -1.11852E+04  3.72997E+03 -8.44171E+03
  7.23335E+03 -3.72635E+03  4.97685E+03  2.10888E+03  4.42425E+02  2.56702E+03 -3.32419E+03 -1.74495E+02
 -3.08659E+03 -5.36785E+03 -5.60606E+02 -7.22973E+03  3.83098E+03 -7.79503E+03  9.61574E+03 -3.58605E+03
  1.16030E+04  8.80690E+02  8.50542E+03  6.25509E+03  1.70045E+03  8.26700E+03 -5.57473E+03  8.54650E+03
 -6.85474E+03  3.36346E+03 -3.49917E+03 -1.46113E+03  1.18772E+03 -2.48635E+03  4.66127E+03 -1.42211E+03
  4.24222E+03  3.47930E+03  9.78236E+02  6.00014E+03 -4.44270E+03  6.53441E+03 -7.36446E+03  2.37545E+03
 -4.81715E+03 -3.53497E+03 -1.53609E+02 -6.55254E+03  3.49641E+03 -3.65996E+03  2.98619E+03  1.10231E+03
  6.75774E+01  3.40792E+03 -3.92603E+03  4.07269E+03 -4.68550E+03  2.50763E+03 -4.51664E+03 -1.27052E+03
 -2.97666E+03 -5.58367E+03  9.49949E+02 -7.10464E+03  5.86642E+03 -4.78521E+03  6.63847E+03  6.56360E+02
  4.17787E+03  5.10458E+03  4.89156E+02  7.26008E+03 -4.99543E+03  4.27044E+03 -4.74131E+03 -5.46055E+02
 -5.55454E+03 -4.44637E+03 -1.03978E+03 -4.81781E+03  2.31451E+03 -4.16533E+03  2.97830E+03 -3.33582E+03
  2.85228E+03  1.83995E+02 -4.45046E+01  1.16326E+03  4.51470E+02 -5.03218E+02 -4.34172E+01 -1.80869E+03
  3.49792E+03 -5.85160E+02  4.57094E+03  8.31652E+02  4.96115E+03  3.20845E+03  5.70325E+03  6.49723E+03
 -1.36495E+03  8.33473E+03 -7.43484E+03  6.15072E+03 -9.46459E+03  9.06864E+02 -7.09874E+03 -1.87796E+03
 -3.91477E+03 -6.22839E+03 -1.44735E+02 -4.81780E+03  1.90009E+03 -1.94996E+03  1.36744E+03 -2.03178E+03
  1.26911E+03 -1.57010E+03  2.47948E+03 -2.25074E+03  2.98563E+03 -1.26261E+03  3.46802E+03  1.81810E+02
  4.62945E+03  1.30420E+03  1.04375E+03  2.95899E+03 -1.69493E+03  2.39533E+03 -4.36643E+03  2.06511E+03
 -4.44958E+03 -1.00094E+03 -1.98718E+03 -3.48750E+03  3.85245E+02 -4.45954E+03  3.02958E+03 -5.22857E+03
  5.23786E+03 -3.35960E+03  5.93386E+03  1.59816E+02  4.37700E+03  3.94462E+03  1.20387E+03  5.80570E+03
 -2.17830E+03  5.79152E+03 -2.93799E+03  2.60643E+03 -1.67325E+03 -1.07208E+03 -3.37802E+02 -4.74015E+02
 -2.11351E+02  3.36619E+02 -6.11344E+02  2.24580E+03 -2.15647E+03  1.47768E+03 -3.99982E+03  5.66881E+01
 -1.11945E+03 -4.03516E+03  1.67909E+03 -4.11031E+03  2.32038E+03 -4.02796E+03  2.99369E+03 -5.85451E+02
  3.43077E+03  2.37775E+03  1.18911E+03  3.25470E+03 -9.88694E+02  4.19494E+03 -2.41055E+03  2.70446E+03
 -3.85386E+03  4.78218E+02 -3.15824E+03 -2.26620E+03 -1.69927E+02 -3.41513E+03  1.11547E+03 -2.45486E+03
  1.55916E+03 -9.99447E+02  1.57265E+03  5.46443E+02  7.63900E+02  1.06641E+03  2.52190E+02  3.63774E+02
  1.45750E+03  5.10891E+02  1.26473E+03  1.26451E+03  1.32967E+03  2.09607E+03  1.33366E+03  1.15353E+03
 -8.35486E+02  3.11006E+03 -1.99475E+03  3.77951E+03 -2.81507E+03  1.20675E+03 -4.13560E+03 -9.41601E+01
 -2.32922E+03 -3.23362E+03  1.76530E+02 -4.58436E+03  2.08753E+03 -2.44768E+03  3.50703E+03 -7.17369E+02
  2.21899E+03  1.49875E+03  6.96134E+02  2.07291E+03 -8.46444E+02  1.16390E+03 -1.39424E+03 -1.11831E+02
 -1.11949E+02 -9.89065E+02  9.11356E+02 -1.57905E+03  1.31766E+03 -1.03280E+03  1.96942E+03  1.90999E+02
  8.47388E+02  6.39362E+02  2.87458E+02  1.09200E+01  9.97398E+01  7.58798E+02  1.70855E+03  2.42790E+02
  4.15547E+02 -2.61544E+02  1.89959E+03  7.29372E+02 -1.33643E+02  2.30597E+03 -7.25068E+02  2.72192E+03
 -1.12605E+03  8.70089E+02 -1.76396E+03  1.94371E+02 -2.32890E+03 -5.64559E+02  2.51994E+02 -1.24116E+03
  9.38532E+02 -8.30895E+02  7.69336E+02 -5.20560E+02  3.51746E+02  1.73806E+03 -5.06124E+02  1.11015E+03
 -1.73973E+03  1.49539E+03 -9.33490E+02 -1.36247E+03 -8.77279E+02 -2.10053E+03 -2.95896E+02 -1.29773E+03
  6.76911E+02 -2.62432E+00  5.29462E+02  7.72780E+01  1.26647E+03 -3.63321E+02  5.26204E+02  1.35485E+03
 -2.02828E+02  5.00249E+02 -1.32357E+03 -4.45528E+01  7.92825E+02 -7.49739E+02  1.66836E+03 -8.55616E+02
  8.39189E+02  5.27576E+02  2.50252E+03  6.44558E+02  8.55451E+02  1.34647E+03 -4.83650E+02  1.63249E+03
 -1.57389E+03 -4.07949E+02 -1.25114E+03 -2.13917E+02 -6.78229E+02 -1.71030E+03  2.90798E+02 -3.01928E+02
  2.00672E+03 -6.56372E+02  1.53871E+02  1.04422E+03  2.69080E+02  1.46148E+03  6.52509E+02  1.34103E+03
 -5.00513E+02  8.52203E+02 -7.01502E+02  7.02611E+01 -3.35763E+02  1.01368E+02 -8.44447E+02  3.07784E+00
 -6.20326E+02  1.05166E+03 -1.80428E+03 -3.70630E+02 -1.50084E+03  1.59993E+02 -1.91777E+03 -7.22222E+02
 -1.17895E+03 -1.97613E+03  1.04487E+02 -2.35450E+03  3.98031E+02 -2.69538E+03  2.40181E+03 -6.13304E+02
  1.99459E+03 -4.73797E+02  1.19667E+03  1.37434E+03 -8.55554E+02  1.06394E+03 -7.67174E+02  1.40127E+03
 -7.87498E+02  8.00231E+02 -3.90367E+02 -4.41762E+02 -3.81308E+02 -8.48196E+01 -1.02827E+03 -2.32232E+02
 -8.96769E+02  2.19566E+00 -8.28350E+02  6.75151E+02  1.67982E+02 -5.90597E+02 -1.81967E+02 -1.11596E+03
  1.16521E+03 -7.34573E+02  4.25796E+02  4.16106E+02  1.04870E+03  1.23663E+03  6.37544E+01  1.24303E+03
 -1.18330E+03  2.21402E+03 -1.55019E+03  1.02598E+03 -1.90345E+03 -5.49482E+02 -1.15569E+03 -7.83680E+02
 -6.59743E+02 -8.74930E+02 -7.47916E+01 -7.79858E+02  2.43739E+02 -3.68745E+02  3.43830E+02 -1.85341E+02
  2.69018E+02 -1.45270E+02  2.98074E+02  2.03500E+02 -9.36241E+02  1.38494E+02  4.42959E+02  1.47850E+02
  3.82014E+02 -3.56393E+02  2.89108E+02  6.56635E+02 -4.01427E+02 -1.03449E+02  4.90849E+02  1.35910E+01
 -2.49027E+02  4.62070E+02 -1.01784E+02 -4.81728E+02 -8.39744E+02 -5.38671E+02  1.91871E+02 -7.38078E+02
  2.91989E+02 -9.69060E+02  1.79365E+02  5.78597E+01  5.87015E+02 -7.64377E+02  6.31364E+02  1.60467E+02
 -2.99086E+02  2.27435E+02 -2.13800E+02  6.05357E+02 -8.90492E+02  9.70276E+02 -4.47716E+02  8.63889E+01
  4.97395E+01  7.22131E+01 -5.19009E+02  2.17469E+02 -7.77035E+02  5.87996E+01 -7.23487E+02  2.26075E+02
 -8.31037E+02  6.53564E+02 -4.13675E+02 -5.78490E+02  8.60391E+02 -1.49471E+03  4.28500E+02 -4.63105E+01
  1.20946E+03  1.94687E+02 -6.51943E+02  4.09201E+02 -2.14832E+02  7.02235E+02 -3.33663E+02  1.04855E+03
