 $NMID ID='MM_0lb_SNR400_10hz_g40_14.RAW', FMTDAT='(8E13.5)'
 TRAMP=1., VOLUME=1. $END
  3.08374E+05 -3.26884E+02  3.37025E+05  2.50783E+05  8.45487E+04  3.38764E+05 -1.32249E+05  2.51611E+05
 -1.90475E+05  8.43649E+04 -1.12260E+05 -3.23571E+04  9.07195E+02 -5.07367E+04  5.30415E+04 -7.35542E+02
  3.53445E+04  5.32020E+04 -1.72813E+04  7.50085E+04 -6.06793E+04  6.38369E+04 -8.42699E+04  3.27350E+04
 -8.16040E+04 -1.11086E+04 -5.78127E+04 -5.20399E+04 -1.48983E+04 -7.03790E+04  2.63412E+04 -4.61859E+04
  4.02470E+04  4.41184E+03  1.55037E+04  4.85129E+04 -3.47838E+04  4.79764E+04 -6.70521E+04  3.19755E+02
 -5.37448E+04 -5.69294E+04 -8.05469E+03 -7.77354E+04  3.50086E+04 -5.54013E+04  4.89766E+04 -1.84981E+04
  4.39762E+04  1.16563E+04  3.25600E+04  2.63773E+04  1.55305E+04  3.02759E+04 -5.76726E+03  2.74721E+04
 -2.22491E+04  1.20295E+04 -1.80414E+04 -5.65530E+03  6.47403E+03 -7.47212E+03  2.37806E+04  1.36552E+04
  7.20055E+03  3.63508E+04 -3.27179E+04  3.65393E+04 -6.52511E+04  1.91885E+03 -5.79428E+04 -4.40021E+04
 -1.20233E+04 -6.47641E+04  4.05135E+04 -4.69896E+04  5.98968E+04 -2.39630E+03  3.62985E+04  3.34850E+04
 -6.89295E+03  3.78323E+04 -3.16903E+04  1.78494E+04 -3.17928E+04 -4.34431E+03 -1.82593E+04 -1.14368E+04
 -9.47601E+03 -1.41162E+04 -3.13394E+02 -1.93542E+04  8.29642E+03 -2.30136E+04  1.60855E+04 -1.28763E+04
  1.08145E+04  5.62342E+03 -9.14969E+03  1.24169E+04 -2.24408E+04 -6.46969E+03 -8.58941E+03 -3.56844E+04
  2.42955E+04 -4.57312E+04  4.97575E+04 -2.06311E+04  4.76570E+04  1.96906E+04  1.71637E+04  4.60626E+04
 -1.61463E+04  3.46705E+04 -2.65801E+04  2.94654E+03 -1.07745E+04 -2.80106E+04  2.21379E+04 -3.49356E+04
  4.31805E+04 -1.05911E+04  3.82789E+04  2.43658E+04  2.00849E+04  4.87714E+04 -8.40902E+03  5.39167E+04
 -3.39974E+04  3.69014E+04 -4.55602E+04  1.08320E+04 -4.43174E+04 -1.78188E+04 -2.47779E+04 -4.02806E+04
  7.54354E+03 -4.04347E+04  3.31040E+04 -1.53811E+04  3.05839E+04  1.05267E+04  4.90920E+03  2.06449E+04
 -1.31640E+04  8.63361E+03 -1.07796E+04 -7.73937E+03  6.16254E+03 -1.14025E+04  1.95111E+04  5.42451E+03
  1.39271E+04  2.25925E+04 -6.49323E+03  2.62397E+04 -2.36124E+04  1.38827E+04 -3.03485E+04 -4.21015E+03
 -2.33146E+04 -1.86652E+04 -1.04723E+04 -2.31572E+04  4.10304E+03 -2.31703E+04  1.87132E+04 -2.16738E+04
  2.98035E+04 -1.29762E+04  3.55644E+04  4.68256E+03  2.58666E+04  2.29146E+04  4.30394E+03  3.96549E+04
 -1.89550E+04  3.20068E+04 -2.97102E+04  1.02979E+04 -2.15539E+04 -1.03010E+04 -4.62859E+03 -1.29653E+04
  9.44828E+02 -2.14920E+03 -6.60561E+03  7.17282E+03 -1.87313E+04  5.21806E+03 -1.93014E+04 -8.22548E+03
 -1.11590E+04 -2.10669E+04  5.61154E+03 -2.57751E+04  1.73345E+04 -1.95634E+04  2.12447E+04 -1.86770E+03
  1.27909E+04  1.42803E+04 -1.25520E+03  2.10531E+04 -1.49670E+04  1.28590E+04 -2.16055E+04 -4.21107E+03
 -1.65965E+04 -1.87118E+04 -2.01211E+03 -2.61235E+04  1.10867E+04 -2.09096E+04  2.22796E+04 -1.11199E+04
  2.02503E+04  2.88901E+02  1.52514E+04  4.91962E+03  7.89073E+03  9.81497E+02  1.09939E+04 -2.04154E+03
  1.98621E+04  3.35767E+03  2.34375E+04  1.68034E+04  1.51024E+04  3.50579E+04 -2.85443E+03  4.04447E+04
 -2.26285E+04  3.23151E+04 -3.78521E+04  1.62310E+04 -4.00851E+04 -3.19466E+03 -3.26416E+04 -2.37827E+04
 -1.42838E+04 -3.34732E+04  1.14830E+04 -2.92106E+04  2.53138E+04 -1.47002E+04  2.16943E+04  6.79868E+03
  7.73806E+03  1.67496E+04 -1.02564E+04  1.46638E+04 -1.84045E+04  2.76954E+03 -1.42852E+04 -1.20585E+04
  6.37142E+02 -1.77949E+04  8.66350E+03 -1.29714E+04  1.22286E+04 -1.49831E+03  3.56862E+03  8.07564E+03
 -8.42147E+03  4.18926E+03 -7.28678E+03 -6.63560E+03 -8.30001E+02 -1.69402E+04  1.14988E+04 -1.75415E+04
  2.04784E+04 -9.67619E+03  2.30502E+04  2.82379E+03  2.01525E+04  1.63071E+04  9.25257E+03  2.53220E+04
 -4.84629E+03  2.82562E+04 -1.78380E+04  1.71395E+04 -1.95517E+04  2.81619E+03 -1.40664E+04 -5.04803E+03
 -6.05214E+03 -6.90575E+03 -8.58600E+02  6.01462E+02 -2.76084E+03  3.12228E+03 -6.32806E+03  5.28960E+03
 -1.23111E+04 -1.30327E+03 -1.32564E+04 -1.01342E+04 -5.11756E+03 -1.71381E+04  5.63527E+03 -1.46841E+04
  1.19813E+04 -6.20130E+03  8.28597E+03  4.54763E+03 -1.18298E+02  5.46571E+03 -7.53229E+03  1.54650E+02
 -6.47392E+03 -8.97741E+03 -1.40055E+03 -1.44198E+04  7.55823E+03 -1.47801E+04  1.83429E+04 -7.96640E+03
  2.14536E+04  2.26907E+03  1.55674E+04  1.22773E+04  2.68998E+03  1.65866E+04 -8.54605E+03  1.47202E+04
 -1.09309E+04  4.48615E+03 -6.10129E+03 -2.79940E+03  2.47760E+03 -3.56412E+03  7.61404E+03 -2.19554E+03
  6.68178E+03  5.86265E+03  1.49040E+03  1.20200E+04 -7.75319E+03  1.08939E+04 -1.44062E+04  2.03537E+03
 -9.16348E+03 -7.41869E+03  3.12132E+01 -1.23826E+04  7.66322E+03 -6.21893E+03  8.50683E+03  2.83326E+03
  1.93798E+03  8.76775E+03 -7.08576E+03  9.86335E+03 -1.08428E+04  4.22541E+03 -1.08653E+04 -4.55311E+03
 -7.39682E+03 -1.39848E+04  3.65587E+03 -1.53735E+04  1.37227E+04 -9.39691E+03  1.44817E+04  2.43981E+03
  8.18910E+03  1.12097E+04 -1.26081E+03  1.35052E+04 -1.06339E+04  7.79869E+03 -1.11596E+04 -1.14025E+03
 -8.98104E+03 -9.08916E+03 -1.38715E+03 -1.02749E+04  5.27407E+03 -8.15956E+03  6.03956E+03 -3.24230E+03
  4.30627E+03  2.11872E+03 -1.37572E+03  1.55219E+03  3.45385E+02 -2.91833E+03  1.65341E+03 -6.66585E+03
  9.69068E+03 -3.33238E+03  1.41033E+04  1.67901E+03  1.33125E+04  9.92014E+03  8.93065E+03  1.78527E+04
 -3.96540E+03  2.08317E+04 -1.70199E+04  1.51624E+04 -2.19376E+04  2.89510E+03 -1.82104E+04 -8.06255E+03
 -8.81010E+03 -1.49921E+04 -5.35977E+02 -1.21925E+04  4.57890E+03 -6.89844E+03  4.32706E+03 -4.18988E+03
  3.74135E+03 -3.05554E+03  4.06088E+03 -2.49921E+03  5.61239E+03 -3.14508E+03  7.63478E+03 -5.70822E+02
  9.42875E+03  1.79592E+03  4.78029E+03  8.46265E+03 -1.89177E+03  9.55086E+03 -1.01516E+04  7.28003E+03
 -1.20493E+04 -1.43907E+03 -7.51225E+03 -9.13891E+03 -1.44241E+02 -1.30908E+04  6.87081E+03 -1.34322E+04
  1.41988E+04 -7.12733E+03  1.68352E+04  1.95944E+03  1.04456E+04  1.14616E+04  1.70656E+03  1.47702E+04
 -6.85663E+03  1.27328E+04 -8.65216E+03  3.84237E+03 -6.20876E+03 -1.25278E+03 -2.66029E+03 -2.16491E+03
 -1.62765E+03 -2.43866E+02 -2.46800E+03  2.85668E+03 -5.03158E+03  1.81219E+03 -8.51805E+03 -7.50039E+02
 -5.68561E+03 -9.06162E+03  6.14419E+02 -1.19080E+04  8.08727E+03 -1.13913E+04  1.19041E+04 -4.52015E+03
  1.26262E+04  6.08931E+03  4.91356E+03  1.12628E+04 -2.36935E+03  1.23762E+04 -9.47453E+03  8.15806E+03
 -1.17692E+04  7.86282E+02 -8.99325E+03 -7.34556E+03 -8.42178E+02 -1.04322E+04  5.71574E+03 -7.38126E+03
  8.29022E+03 -2.86216E+03  5.75174E+03  1.84594E+03  9.36639E+02  4.46452E+03  8.96035E+02  1.88962E+03
  3.14421E+03  9.08002E+02  2.42690E+03  1.19265E+03  2.64192E+03  4.46609E+03  3.69757E+03  6.39579E+03
 -2.40701E+03  9.82113E+03 -9.16701E+03  9.53187E+03 -1.21465E+04  2.88876E+03 -1.35254E+04 -5.18745E+03
 -6.38412E+03 -1.32893E+04  1.34763E+03 -1.41919E+04  7.51415E+03 -8.64338E+03  1.05984E+04 -2.00717E+03
  7.58461E+03  4.63989E+03  1.51347E+03  7.36109E+03 -3.65537E+03  4.61632E+03 -5.27076E+03 -1.03093E+03
 -2.16562E+03 -5.52085E+03  2.48373E+03 -5.65525E+03  5.52881E+03 -3.32740E+03  5.15593E+03  1.03760E+03
  3.06019E+03  1.76488E+03  1.50853E+03  1.23836E+03 -7.57817E+02  1.89960E+03  1.57959E+03 -6.08757E+02
  1.76603E+03 -5.96863E+02  5.22917E+03  2.71114E+03  2.18344E+03  7.20216E+03 -1.15608E+03  8.42828E+03
 -6.32600E+03  5.99387E+03 -8.60188E+03  1.88967E+03 -6.76006E+03 -2.55713E+03 -2.85795E+03 -3.96707E+03
  4.01114E+02 -4.90453E+03  3.64817E+03 -1.91609E+03  3.24889E+03  3.35436E+03 -1.14491E+03  3.78687E+03
 -5.08733E+03  1.66594E+03 -5.44251E+03 -2.93526E+03 -3.18194E+03 -6.70383E+03  6.03697E+02 -6.38042E+03
  4.20959E+03 -4.20877E+03  5.04591E+03 -2.66977E+02  3.65028E+03  5.11339E+02  5.53143E+02  4.15641E+03
 -2.31214E+03  1.17416E+03 -3.24976E+03 -2.59400E+03  1.57863E+03 -5.12659E+03  6.30293E+03 -5.01148E+03
  7.73460E+03  7.76821E+02  8.07877E+03  4.89408E+03  3.21275E+03  7.88086E+03 -2.06671E+03  7.14270E+03
 -6.26889E+03  3.01459E+03 -6.75448E+03 -8.50429E+02 -3.96129E+03 -5.53292E+03  9.12484E+02 -4.12648E+03
  5.35681E+03 -1.97442E+03  4.16716E+03  2.54544E+03  1.97594E+03  4.37183E+03 -8.08030E+02  4.23733E+03
 -1.66058E+03  2.59223E+03 -1.85605E+03  9.28625E+02 -9.69124E+02  1.10837E+03 -1.39525E+03  1.69835E+03
 -2.02403E+03  3.39887E+03 -5.61807E+03  2.74086E+03 -7.99449E+03 -6.82323E+02 -9.02951E+03 -5.42529E+03
 -4.62364E+03 -1.07107E+04  2.65867E+03 -1.25640E+04  7.34826E+03 -9.79159E+03  1.11065E+04 -3.49822E+03
  1.06846E+04  2.39633E+03  6.82195E+03  7.19638E+03 -1.92407E+02  8.30718E+03 -3.61621E+03  6.19942E+03
 -4.29872E+03  2.57974E+03 -2.44307E+03 -8.48571E+02 -3.07441E+02 -7.17435E+02 -1.42619E+03 -5.15349E+01
 -8.41106E+02  4.58682E+02 -1.84994E+03 -4.20008E+02 -7.15328E+02 -2.47213E+03  2.95578E+02 -3.78610E+03
  3.57036E+03 -2.83591E+03  4.82748E+03 -1.25834E+02  6.01806E+03  4.48642E+03  6.81125E+02  7.98456E+03
 -4.04144E+03  1.01458E+04 -8.52815E+03  5.25326E+03 -1.05747E+04 -7.59333E+02 -7.03937E+03 -5.98605E+03
 -3.21827E+03 -8.45104E+03  2.79480E+03 -7.56090E+03  5.37612E+03 -4.36028E+03  5.50023E+03  7.55591E+02
  2.61587E+03  2.06485E+03 -1.38341E+02  3.29748E+03 -1.74194E+03 -2.42468E+02 -9.12641E+01 -1.87247E+03
  2.40200E+03 -7.79028E+02  3.05047E+03  1.37862E+03  2.08892E+03  2.63709E+03 -1.19673E+02  4.58708E+03
 -3.70999E+03  4.03811E+03 -5.68692E+03  5.08320E+02 -4.77558E+03 -3.56242E+03 -5.15234E+02 -6.65437E+03
  4.26246E+03 -5.71377E+03  6.09698E+03 -1.47530E+03  6.26836E+03  1.72633E+03  4.42232E+03  5.41205E+03
  7.22860E+02  5.32948E+03 -1.44908E+03  3.98203E+03 -2.83212E+03  1.84179E+03 -2.63863E+03  2.84303E+02
 -1.31656E+03 -7.17185E+02 -1.27894E+03  8.54536E+02 -3.38063E+03 -1.23092E+02 -4.07816E+03 -9.03597E+02
 -4.60755E+03 -2.56948E+03 -9.77560E+02 -5.75439E+03  2.50742E+03 -5.94633E+03  5.20053E+03 -2.10162E+03
  6.52915E+03  8.59721E+02  1.82774E+03  4.02799E+03 -1.63657E+02  5.26967E+03 -3.98768E+03  3.16508E+03
