 $NMID ID='MM_0lb_SNR400_10hz_g50_67.RAW', FMTDAT='(8E13.5)'
 TRAMP=1., VOLUME=1. $END
  3.09342E+05  8.63800E+02  3.38437E+05  2.50172E+05  8.54179E+04  3.38349E+05 -1.32937E+05  2.51859E+05
 -1.90890E+05  8.38486E+04 -1.12489E+05 -3.28795E+04 -5.71976E+02 -5.04305E+04  5.36313E+04 -3.51446E+02
  3.58320E+04  5.35095E+04 -1.63593E+04  7.55784E+04 -6.14059E+04  6.38691E+04 -8.56520E+04  3.22184E+04
 -8.22903E+04 -1.16449E+04 -5.88309E+04 -5.18201E+04 -1.55985E+04 -7.14644E+04  2.76271E+04 -4.70863E+04
  4.10312E+04  3.68731E+03  1.69564E+04  4.84072E+04 -3.45847E+04  4.79829E+04 -6.74897E+04  3.83816E+02
 -5.46652E+04 -5.72566E+04 -6.05122E+03 -7.86306E+04  3.58115E+04 -5.65000E+04  4.85732E+04 -1.81565E+04
  4.50110E+04  1.10351E+04  3.25912E+04  2.68910E+04  1.56376E+04  2.97639E+04 -5.99935E+03  2.77948E+04
 -2.21308E+04  1.27551E+04 -1.84093E+04 -6.28128E+03  6.94194E+03 -7.50921E+03  2.33136E+04  1.39942E+04
  6.94016E+03  3.71278E+04 -3.33343E+04  3.57770E+04 -6.48938E+04  2.29456E+03 -5.82350E+04 -4.43690E+04
 -1.26090E+04 -6.59864E+04  4.14611E+04 -4.73090E+04  6.04382E+04 -2.18085E+03  3.58927E+04  3.39457E+04
 -5.90413E+03  3.94190E+04 -3.10753E+04  1.83849E+04 -3.27816E+04 -3.60946E+03 -1.89264E+04 -1.16323E+04
 -9.92631E+03 -1.51110E+04 -4.63504E+01 -1.92529E+04  7.71699E+03 -2.37567E+04  1.59847E+04 -1.31163E+04
  1.02541E+04  6.51393E+03 -9.83961E+03  1.25429E+04 -2.26329E+04 -6.94403E+03 -8.48246E+03 -3.77141E+04
  2.42837E+04 -4.59700E+04  5.18829E+04 -2.08257E+04  4.76959E+04  2.02625E+04  1.70629E+04  4.61342E+04
 -1.72167E+04  3.55458E+04 -2.76240E+04  2.00316E+03 -1.14978E+04 -2.93035E+04  2.12106E+04 -3.62920E+04
  4.33527E+04 -1.03067E+04  3.96382E+04  2.48994E+04  2.09618E+04  4.99189E+04 -8.49162E+03  5.49442E+04
 -3.42594E+04  3.73872E+04 -4.67514E+04  1.10767E+04 -4.68108E+04 -1.92912E+04 -2.58230E+04 -4.10086E+04
  7.21470E+03 -4.17408E+04  3.35463E+04 -1.68773E+04  3.20019E+04  1.15822E+04  4.26148E+03  1.99508E+04
 -1.40241E+04  9.56960E+03 -1.07739E+04 -7.37117E+03  5.88840E+03 -1.13605E+04  1.89554E+04  5.49361E+03
  1.49492E+04  2.25616E+04 -5.58133E+03  2.61300E+04 -2.29662E+04  1.37268E+04 -3.12531E+04 -3.55585E+03
 -2.49382E+04 -1.75666E+04 -1.15481E+04 -2.37019E+04  4.62157E+03 -2.43225E+04  1.87152E+04 -2.16480E+04
  3.03759E+04 -1.42384E+04  3.72790E+04  5.15256E+03  2.65045E+04  2.39631E+04  4.50847E+03  4.06449E+04
 -1.95028E+04  3.38451E+04 -3.01343E+04  1.17929E+04 -2.14485E+04 -1.02147E+04 -4.00944E+03 -1.32407E+04
  1.15809E+03 -1.23614E+03 -6.79256E+03  8.14214E+03 -2.01300E+04  4.27225E+03 -1.98226E+04 -1.00451E+04
 -1.20179E+04 -2.20832E+04  6.03650E+03 -2.67033E+04  1.81554E+04 -1.96361E+04  2.14770E+04 -1.13592E+03
  1.35125E+04  1.55294E+04 -1.69794E+03  2.27227E+04 -1.60940E+04  1.24510E+04 -2.33039E+04 -4.27889E+03
 -1.61241E+04 -1.94598E+04 -2.71515E+03 -2.67287E+04  1.21290E+04 -2.23860E+04  2.17907E+04 -1.10018E+04
  2.09904E+04 -1.34315E+02  1.52055E+04  4.44846E+03  8.53846E+03  1.40151E+03  1.17688E+04 -1.62241E+03
  2.02995E+04  2.75120E+03  2.41833E+04  1.74483E+04  1.66930E+04  3.62253E+04 -3.11270E+03  4.21174E+04
 -2.49326E+04  3.55964E+04 -4.00153E+04  1.84720E+04 -4.22126E+04 -2.87281E+03 -3.41301E+04 -2.49560E+04
 -1.35213E+04 -3.48621E+04  1.27196E+04 -3.07629E+04  2.68153E+04 -1.50647E+04  2.30064E+04  7.33703E+03
  7.62704E+03  1.81243E+04 -1.09608E+04  1.44467E+04 -1.97409E+04  2.87298E+03 -1.50873E+04 -1.27755E+04
 -6.06627E+02 -1.83680E+04  8.94136E+03 -1.33876E+04  1.35326E+04 -8.20623E+02  2.82490E+03  7.95265E+03
 -8.85226E+03  3.50511E+03 -8.38576E+03 -6.46283E+03 -1.43151E+03 -1.67743E+04  1.08372E+04 -1.84999E+04
  2.12158E+04 -1.00525E+04  2.50299E+04  4.28901E+03  2.12142E+04  1.73106E+04  1.01882E+04  2.71787E+04
 -5.60972E+03  2.91944E+04 -1.86854E+04  1.74722E+04 -2.13303E+04  3.49309E+03 -1.46449E+04 -5.61624E+03
 -6.52748E+03 -6.37187E+03 -4.14278E+02  2.70792E+02 -1.97348E+03  2.40213E+03 -6.68508E+03  5.64964E+03
 -1.33833E+04 -6.73907E+02 -1.38817E+04 -1.13410E+04 -5.25167E+03 -1.78903E+04  6.62702E+03 -1.50100E+04
  1.26123E+04 -6.54344E+03  8.76629E+03  3.74705E+03 -4.56169E+02  6.02657E+03 -7.21292E+03 -4.14440E+02
 -6.92204E+03 -9.39868E+03 -1.04586E+03 -1.42708E+04  8.75428E+03 -1.49292E+04  1.84608E+04 -8.01957E+03
  2.15739E+04  2.72578E+03  1.51374E+04  1.32101E+04  3.36568E+03  1.80256E+04 -9.60108E+03  1.44342E+04
 -1.10884E+04  5.15114E+03 -5.54054E+03 -3.39597E+03  2.26975E+03 -4.12264E+03  8.07294E+03 -1.34357E+03
  7.59435E+03  6.01863E+03  1.01168E+03  1.23001E+04 -8.66582E+03  1.12692E+04 -1.43335E+04  2.59393E+03
 -1.00893E+04 -7.23006E+03  2.40247E+02 -1.20772E+04  7.70214E+03 -6.40448E+03  9.16940E+03  3.23417E+03
  2.33587E+03  9.46575E+03 -7.52655E+03  1.02356E+04 -1.25472E+04  4.35594E+03 -1.29975E+04 -4.41761E+03
 -7.15983E+03 -1.42701E+04  3.48442E+03 -1.69971E+04  1.41670E+04 -9.83588E+03  1.55955E+04  2.28829E+03
  9.21511E+03  1.16932E+04 -2.13923E+03  1.47860E+04 -1.08964E+04  8.15620E+03 -1.22287E+04 -1.33355E+03
 -1.02652E+04 -1.05750E+04 -1.43703E+03 -1.08520E+04  6.13956E+03 -8.80878E+03  6.78134E+03 -3.91113E+03
  4.58843E+03  2.31512E+03 -6.56456E+02  2.07640E+03 -6.21567E+02 -2.70223E+03  2.24980E+03 -6.25103E+03
  1.09805E+04 -4.37355E+03  1.47301E+04  1.92371E+03  1.43939E+04  9.97962E+03  9.59963E+03  1.93967E+04
 -5.07634E+03  2.14319E+04 -1.86721E+04  1.59331E+04 -2.30454E+04  3.05153E+03 -1.93590E+04 -8.34148E+03
 -9.61593E+03 -1.54106E+04 -1.22799E+02 -1.27962E+04  4.55238E+03 -7.06243E+03  5.19773E+03 -4.24434E+03
  3.31672E+03 -2.96166E+03  4.25026E+03 -3.64975E+03  6.36534E+03 -3.79821E+03  7.57642E+03 -1.07056E+03
  9.96983E+03  2.40736E+03  5.38120E+03  8.09162E+03 -2.20429E+03  1.04786E+04 -1.02592E+04  8.09854E+03
 -1.34388E+04 -1.34669E+03 -8.88312E+03 -9.53952E+03 -1.13454E+03 -1.44904E+04  7.72478E+03 -1.46206E+04
  1.59443E+04 -7.68485E+03  1.74619E+04  1.82098E+03  1.24211E+04  1.23372E+04  1.32765E+03  1.62332E+04
 -6.47791E+03  1.28488E+04 -9.72677E+03  4.68199E+03 -7.16533E+03 -1.27355E+03 -2.81648E+03 -1.34770E+03
 -1.20630E+03  7.67471E+02 -2.74578E+03  1.91783E+03 -5.78841E+03  2.69579E+03 -9.50901E+03 -1.71901E+03
 -6.68306E+03 -9.68261E+03 -2.40049E+02 -1.35724E+04  8.51968E+03 -1.20479E+04  1.32900E+04 -4.57677E+03
  1.32183E+04  6.43113E+03  5.97586E+03  1.09020E+04 -2.32194E+03  1.33065E+04 -8.59214E+03  8.20759E+03
 -1.26284E+04  4.88352E+02 -9.63477E+03 -8.08597E+03 -8.62238E+02 -1.13626E+04  5.53020E+03 -7.81242E+03
  8.39897E+03 -2.62382E+03  6.02730E+03  1.85414E+03  2.24628E+03  4.07338E+03  1.64724E+03  1.45029E+03
  3.11928E+03  1.38827E+03  2.92905E+03  1.44908E+03  3.66632E+03  4.59861E+03  3.36486E+03  7.12833E+03
 -2.68977E+03  1.05753E+04 -9.52680E+03  1.12273E+04 -1.32703E+04  2.29737E+03 -1.38137E+04 -5.22345E+03
 -6.98340E+03 -1.24504E+04  1.74023E+03 -1.39657E+04  7.26596E+03 -8.68658E+03  1.07792E+04 -2.22706E+03
  8.86241E+03  4.72871E+03  2.21082E+03  8.11431E+03 -3.71410E+03  5.17813E+03 -4.85760E+03 -1.05625E+03
 -2.15568E+03 -5.74219E+03  3.39241E+03 -5.51301E+03  5.32763E+03 -3.19970E+03  5.68142E+03  9.77677E+02
  2.84618E+03  2.62823E+03  9.95458E+02  1.48481E+03 -6.29924E+01  2.09735E+03  1.95537E+03 -1.02928E+03
  2.57239E+03 -8.17207E+02  6.11639E+03  2.08585E+03  2.82936E+03  6.37506E+03 -5.52316E+02  8.99980E+03
 -6.58080E+03  5.67845E+03 -8.59935E+03  1.76031E+03 -8.01942E+03 -2.38141E+03 -3.30167E+03 -4.37132E+03
  5.23436E+02 -5.14850E+03  2.83449E+03 -2.70679E+03  2.97604E+03  3.06192E+03 -1.45861E+03  4.72096E+03
 -5.64867E+03  1.97681E+03 -5.86506E+03 -3.04300E+03 -3.50237E+03 -6.74269E+03  8.75732E+02 -7.34828E+03
  4.73342E+03 -3.90836E+03  4.74705E+03 -1.38375E+01  4.67652E+03  1.41215E+03  7.89690E+02  4.26832E+03
 -2.44161E+03  1.08559E+03 -3.62747E+03 -2.94929E+03  8.80086E+02 -5.57208E+03  5.92704E+03 -4.01380E+03
  7.66527E+03  2.31238E+02  8.51043E+03  5.33500E+03  2.07754E+03  8.60251E+03 -2.64893E+03  8.18895E+03
 -6.29552E+03  3.43547E+03 -7.82911E+03 -4.35957E+02 -3.46329E+03 -5.81151E+03  1.87964E+03 -5.40856E+03
  5.16046E+03 -3.43468E+03  4.81410E+03  2.34133E+03  1.87627E+03  4.20276E+03 -4.24431E+02  4.26857E+03
 -2.48016E+03  2.43633E+03 -1.58383E+03  5.65214E+02 -9.23158E+02  1.06656E+03 -1.49866E+03  1.51272E+03
 -2.38760E+03  3.65368E+03 -5.32894E+03  2.31720E+03 -8.87455E+03  9.42193E+01 -9.57039E+03 -5.45530E+03
 -5.10807E+03 -1.21820E+04  2.48233E+03 -1.37750E+04  7.59927E+03 -9.72661E+03  1.23305E+04 -3.45596E+03
  1.16110E+04  1.70880E+03  7.80124E+03  8.39640E+03  1.35178E+03  8.55936E+03 -3.66274E+03  6.75703E+03
 -4.61912E+03  1.28712E+03 -2.43998E+03 -1.96558E+03 -1.55494E+03 -1.09127E+03 -1.01426E+03  3.19808E+02
 -2.10558E+03  6.35214E+02 -1.28780E+03  2.96151E+02  6.27835E+01 -2.20676E+03  6.39582E+01 -3.37870E+03
  3.82365E+03 -3.02726E+03  5.04591E+03 -3.49551E+01  5.92124E+03  5.32964E+03  1.30457E+03  8.09563E+03
 -5.00508E+03  1.02099E+04 -9.11431E+03  5.63600E+03 -1.06352E+04 -6.67833E+02 -8.24204E+03 -6.95931E+03
 -3.30908E+03 -9.33423E+03  2.44118E+03 -9.12787E+03  5.61792E+03 -4.34965E+03  5.46308E+03  5.83313E+02
  3.18728E+03  2.63426E+03 -6.37416E+02  2.62200E+03 -1.24130E+03 -3.99108E+00  5.54616E+02 -2.41264E+03
  3.03331E+03 -1.30829E+03  3.70526E+03  8.40216E+02  2.19880E+03  3.31018E+03 -5.07219E+02  4.22829E+03
 -3.23453E+03  5.03867E+03 -5.90276E+03  1.02930E+03 -4.65364E+03 -3.69025E+03 -7.87202E+01 -7.02680E+03
  3.46756E+03 -6.13906E+03  6.29364E+03 -1.12688E+03  6.56575E+03  1.68969E+03  4.25625E+03  5.74434E+03
  7.66106E+02  5.82141E+03 -1.98460E+03  4.96836E+03 -3.89555E+03  2.42181E+03 -2.88733E+03  5.98658E+02
 -1.48087E+03 -2.39197E+01 -1.46103E+03  8.50659E+02 -2.98999E+03  1.23977E+03 -3.53641E+03 -1.28016E+02
 -4.36633E+03 -3.46464E+03 -1.01362E+03 -5.32221E+03  2.67044E+03 -6.28744E+03  5.57518E+03 -3.29614E+03
  5.69448E+03  7.83947E+02  2.90564E+03  3.55899E+03 -8.21603E+02  5.72254E+03 -4.73830E+03  3.63211E+03
