 $NMID ID='MM_0lb_SNR400_11hz_g45_58.RAW', FMTDAT='(8E13.5)'
 TRAMP=1., VOLUME=1. $END
  3.10353E+05  3.22764E+02  3.37976E+05  2.50574E+05  8.43402E+04  3.37703E+05 -1.33417E+05  2.51466E+05
 -1.89972E+05  8.38382E+04 -1.11861E+05 -3.25144E+04  8.17280E+02 -5.03163E+04  5.34095E+04  7.73647E+01
  3.52361E+04  5.24136E+04 -1.68002E+04  7.58984E+04 -6.15190E+04  6.38051E+04 -8.55035E+04  3.20978E+04
 -8.17827E+04 -1.23328E+04 -5.78205E+04 -5.15984E+04 -1.43183E+04 -6.99539E+04  2.72700E+04 -4.66693E+04
  4.06920E+04  3.67419E+03  1.64035E+04  4.72964E+04 -3.42993E+04  4.83178E+04 -6.77696E+04 -5.33838E+02
 -5.38089E+04 -5.75911E+04 -6.92942E+03 -7.79344E+04  3.44477E+04 -5.60565E+04  4.90073E+04 -1.79138E+04
  4.40276E+04  1.12582E+04  3.27057E+04  2.60238E+04  1.56946E+04  3.03852E+04 -5.30795E+03  2.72308E+04
 -2.21065E+04  1.18026E+04 -1.74689E+04 -5.56220E+03  6.22633E+03 -7.84079E+03  2.21729E+04  1.23261E+04
  6.99288E+03  3.67289E+04 -3.35083E+04  3.65295E+04 -6.42845E+04  2.77428E+03 -5.82661E+04 -4.42288E+04
 -1.30545E+04 -6.46269E+04  4.08121E+04 -4.64598E+04  5.99445E+04 -2.54468E+03  3.58492E+04  3.30033E+04
 -5.69748E+03  3.69362E+04 -3.09028E+04  1.71047E+04 -3.22945E+04 -4.87669E+03 -1.75721E+04 -1.05353E+04
 -8.60495E+03 -1.36353E+04 -5.10204E+02 -1.83906E+04  7.92778E+03 -2.33989E+04  1.48541E+04 -1.22061E+04
  1.06345E+04  5.41130E+03 -1.00038E+04  1.30109E+04 -2.23934E+04 -5.38250E+03 -8.32887E+03 -3.60509E+04
  2.39863E+04 -4.47948E+04  4.99125E+04 -1.97762E+04  4.66369E+04  1.98106E+04  1.67172E+04  4.61479E+04
 -1.55571E+04  3.46158E+04 -2.64974E+04  2.00483E+03 -1.16074E+04 -2.83473E+04  2.14173E+04 -3.51203E+04
  4.26227E+04 -9.84837E+03  3.75988E+04  2.44742E+04  1.91951E+04  4.91066E+04 -8.42179E+03  5.34569E+04
 -3.35956E+04  3.59789E+04 -4.52109E+04  1.02143E+04 -4.52670E+04 -1.77822E+04 -2.45275E+04 -4.04898E+04
  8.23280E+03 -4.08124E+04  3.21570E+04 -1.59259E+04  3.09890E+04  1.19655E+04  4.90685E+03  2.04293E+04
 -1.35597E+04  9.57486E+03 -9.69788E+03 -8.29749E+03  5.70461E+03 -1.14361E+04  1.87728E+04  5.77773E+03
  1.39209E+04  2.22174E+04 -5.51096E+03  2.53498E+04 -2.26228E+04  1.29087E+04 -2.98571E+04 -3.65602E+03
 -2.26978E+04 -1.75220E+04 -1.06359E+04 -2.26648E+04  4.85594E+03 -2.22291E+04  1.79882E+04 -2.17868E+04
  2.88444E+04 -1.31266E+04  3.54567E+04  3.64658E+03  2.51708E+04  2.23174E+04  4.17014E+03  3.82923E+04
 -1.82711E+04  3.18733E+04 -2.91238E+04  1.12776E+04 -2.14694E+04 -1.04124E+04 -4.67038E+03 -1.29283E+04
  1.46851E+03 -1.82876E+03 -5.99477E+03  7.06375E+03 -1.78075E+04  5.27001E+03 -1.84020E+04 -7.89317E+03
 -1.12047E+04 -2.04895E+04  5.29855E+03 -2.54070E+04  1.72173E+04 -1.86873E+04  2.09211E+04 -2.29954E+03
  1.27417E+04  1.45497E+04 -7.29646E+02  2.13583E+04 -1.42433E+04  1.22672E+04 -2.16569E+04 -4.16646E+03
 -1.54354E+04 -1.87151E+04 -2.35915E+03 -2.56936E+04  1.15299E+04 -2.11560E+04  2.12950E+04 -1.07182E+04
  1.95959E+04 -2.64552E+02  1.43097E+04  4.64478E+03  7.84618E+03  1.11744E+03  1.06721E+04 -1.82948E+03
  1.98027E+04  1.93678E+03  2.20426E+04  1.71677E+04  1.50157E+04  3.46877E+04 -2.52803E+03  3.95311E+04
 -2.29119E+04  3.25652E+04 -3.64593E+04  1.65559E+04 -3.86152E+04 -3.14119E+03 -3.21886E+04 -2.28856E+04
 -1.29970E+04 -3.23474E+04  1.07715E+04 -2.88800E+04  2.43823E+04 -1.47451E+04  2.20858E+04  7.25736E+03
  7.44984E+03  1.64165E+04 -9.98816E+03  1.38339E+04 -1.79706E+04  1.69360E+03 -1.35451E+04 -1.13144E+04
 -1.86650E+02 -1.81277E+04  9.20011E+03 -1.29394E+04  1.12714E+04 -1.07033E+03  2.65662E+03  6.96606E+03
 -7.95734E+03  4.30751E+03 -6.96837E+03 -6.38155E+03 -1.46042E+03 -1.59609E+04  1.19072E+04 -1.75177E+04
  1.96460E+04 -9.27510E+03  2.26738E+04  3.27569E+03  1.97805E+04  1.56310E+04  9.17424E+03  2.44886E+04
 -4.17575E+03  2.67837E+04 -1.64223E+04  1.68042E+04 -1.88817E+04  3.22222E+03 -1.34640E+04 -4.91540E+03
 -6.07802E+03 -6.25399E+03 -6.47199E+02  1.22882E+03 -3.13564E+03  2.94238E+03 -6.02060E+03  4.77946E+03
 -1.17707E+04 -8.63726E+02 -1.34575E+04 -1.05816E+04 -5.14654E+03 -1.64898E+04  5.03166E+03 -1.36228E+04
  1.11247E+04 -5.64899E+03  7.54345E+03  3.94711E+03  4.61933E+02  4.95537E+03 -6.93046E+03  3.31262E+02
 -5.80684E+03 -8.79990E+03 -1.13351E+03 -1.30512E+04  7.22201E+03 -1.36553E+04  1.67263E+04 -7.78566E+03
  2.00690E+04  1.45352E+03  1.48857E+04  1.17571E+04  2.61548E+03  1.61502E+04 -7.98747E+03  1.31955E+04
 -1.11452E+04  4.98000E+03 -5.66297E+03 -2.55273E+03  1.55515E+03 -3.63776E+03  6.72271E+03 -3.87698E+02
  5.55459E+03  5.08965E+03  8.25986E+02  1.09797E+04 -7.70892E+03  1.01860E+04 -1.30990E+04  2.51616E+03
 -9.28741E+03 -7.27120E+03 -8.04114E+01 -1.15019E+04  7.20154E+03 -5.74027E+03  8.09708E+03  1.83522E+03
  1.57979E+03  9.01923E+03 -6.75455E+03  8.95074E+03 -1.15043E+04  4.17729E+03 -1.05621E+04 -3.74668E+03
 -6.03648E+03 -1.27423E+04  3.34065E+03 -1.46379E+04  1.21799E+04 -8.93699E+03  1.31689E+04  2.30801E+03
  7.81691E+03  1.08397E+04 -1.49008E+03  1.27418E+04 -1.00620E+04  7.34695E+03 -1.04618E+04 -1.06191E+03
 -9.36934E+03 -9.31953E+03 -1.71163E+03 -1.01603E+04  5.28948E+03 -8.35378E+03  6.46305E+03 -2.80636E+03
  4.23180E+03  1.17328E+03 -2.94963E+02  1.85697E+03 -5.30749E+02 -2.21680E+03  2.15793E+03 -5.09898E+03
  8.92993E+03 -4.12637E+03  1.23824E+04  1.33114E+03  1.21739E+04  8.30523E+03  8.68358E+03  1.62323E+04
 -3.27883E+03  1.92130E+04 -1.56617E+04  1.46524E+04 -2.05681E+04  2.34567E+03 -1.68669E+04 -7.41498E+03
 -8.18607E+03 -1.37545E+04 -1.74766E+01 -1.23708E+04  3.74996E+03 -6.43685E+03  4.04768E+03 -4.44532E+03
  3.72152E+03 -2.51855E+03  3.61867E+03 -3.07072E+03  5.66511E+03 -3.13350E+03  6.24966E+03 -7.18776E+02
  8.75070E+03  2.47321E+03  4.62214E+03  7.32229E+03 -1.82423E+03  9.01468E+03 -8.87399E+03  6.35953E+03
 -1.13436E+04 -1.50942E+03 -7.14954E+03 -7.91493E+03 -9.79037E+02 -1.22684E+04  7.12688E+03 -1.24360E+04
  1.26164E+04 -6.57066E+03  1.52150E+04  1.89914E+03  1.10000E+04  1.05493E+04  1.75750E+03  1.36883E+04
 -5.68023E+03  1.14999E+04 -8.46813E+03  4.02759E+03 -5.74926E+03 -1.91450E+03 -1.85234E+03 -1.44727E+03
 -1.08188E+03 -1.46682E+02 -2.39742E+03  3.07628E+03 -4.68638E+03  2.06768E+03 -7.84977E+03 -9.07092E+02
 -5.53567E+03 -8.44966E+03 -5.85017E+01 -1.11560E+04  7.23770E+03 -1.05618E+04  1.13218E+04 -3.47754E+03
  1.06116E+04  5.25213E+03  5.57810E+03  1.00320E+04 -2.73695E+03  1.10969E+04 -8.31571E+03  6.17646E+03
 -1.09117E+04  4.60822E+02 -8.70795E+03 -6.18267E+03 -1.16002E+03 -9.36076E+03  4.45396E+03 -7.03216E+03
  7.92571E+03 -2.87047E+03  4.51386E+03  2.26477E+03  1.74394E+03  3.89490E+03  1.38972E+03  8.26825E+02
  2.50527E+03  6.93044E+02  2.10590E+03  1.41462E+03  3.17617E+03  4.11419E+03  2.46958E+03  5.65805E+03
 -2.38563E+03  8.86223E+03 -7.46314E+03  9.52937E+03 -1.13097E+04  2.71357E+03 -1.18974E+04 -4.65190E+03
 -5.72813E+03 -1.14765E+04  1.48167E+03 -1.25244E+04  6.58245E+03 -7.36325E+03  9.16639E+03 -2.07419E+03
  6.78126E+03  4.09975E+03  1.74026E+03  6.76242E+03 -2.65621E+03  3.98651E+03 -3.88569E+03 -4.88732E+02
 -2.96004E+03 -4.69074E+03  2.90872E+03 -5.04920E+03  3.97510E+03 -2.33636E+03  4.35811E+03  1.69528E+03
  2.19367E+03  2.21844E+03  1.42079E+03  1.40543E+03 -5.07205E+02  1.50582E+03  1.24042E+03 -4.51120E+02
  1.73051E+03 -6.75227E+02  4.91812E+03  2.39003E+03  2.21030E+03  5.14350E+03 -1.50855E+03  7.97432E+03
 -5.13205E+03  5.87839E+03 -6.96076E+03  1.79654E+03 -6.58152E+03 -2.40768E+03 -1.87163E+03 -3.98183E+03
  9.65494E+02 -4.38701E+03  2.92117E+03 -1.34337E+03  2.10279E+03  2.68442E+03 -7.28085E+02  3.76086E+03
 -4.97975E+03  2.26210E+03 -5.57700E+03 -2.82513E+03 -3.16650E+03 -5.65437E+03  1.35022E+03 -5.83295E+03
  3.49852E+03 -3.57953E+03  3.57898E+03 -6.77422E+02  4.73324E+03  1.55197E+03  9.28539E+02  2.78750E+03
 -2.32566E+03  4.48334E+02 -3.33266E+03 -1.96989E+03  1.78583E+03 -4.93215E+03  5.65807E+03 -3.57174E+03
  6.86176E+03  6.75268E+02  6.99706E+03  4.42132E+03  1.73148E+03  7.26101E+03 -2.99955E+03  6.93358E+03
 -5.91246E+03  2.31128E+03 -5.33710E+03 -1.10912E+03 -2.99057E+03 -4.60383E+03  1.07594E+03 -5.21776E+03
  4.83470E+03 -1.35725E+03  3.68299E+03  2.13641E+03  4.51417E+02  4.27623E+03 -6.49062E+02  3.28141E+03
 -2.31501E+03  2.35692E+03 -1.85606E+03  3.10314E+02 -3.21102E+02  4.66087E+02 -8.69814E+02  1.49599E+03
 -2.21537E+03  2.34064E+03 -5.33248E+03  2.52599E+03 -6.58814E+03  4.60568E+02 -8.23179E+03 -4.86832E+03
 -4.27845E+03 -9.05322E+03  1.80639E+03 -1.02158E+04  6.41968E+03 -8.78320E+03  9.75510E+03 -2.99263E+03
  9.12756E+03  1.48507E+03  5.61903E+03  6.12478E+03 -2.70933E+02  7.27249E+03 -2.64061E+03  4.55515E+03
 -4.10505E+03  2.26925E+03 -1.79241E+03 -5.09313E+02 -1.11352E+03 -3.04415E+02 -2.04471E+02 -4.55370E+02
 -1.96018E+03 -3.55682E+02 -2.36530E+03 -7.74049E+02 -7.61606E+00 -1.63488E+03 -5.33187E+02 -3.17265E+03
  3.65457E+03 -2.18782E+03  4.78279E+03 -3.10522E+01  4.26541E+03  4.15879E+03  1.33362E+03  6.52044E+03
 -2.78314E+03  8.15622E+03 -7.03504E+03  4.63381E+03 -7.86740E+03 -1.58085E+02 -6.87847E+03 -5.87025E+03
 -2.81689E+03 -6.85310E+03  1.74862E+03 -5.75588E+03  3.97487E+03 -3.40236E+03  4.61085E+03  8.85453E+02
  2.43612E+03  2.09875E+03 -5.12888E+02  2.40662E+03 -1.59123E+03 -7.42081E+02 -4.64376E+02 -1.63118E+03
  1.81153E+03 -5.45617E+02  2.76165E+03  1.03188E+03  1.91757E+03  2.54518E+03  1.01075E+02  3.36697E+03
 -3.12388E+03  3.62712E+03 -5.01027E+03  1.93405E+02 -4.19468E+03 -3.07966E+03 -7.87047E+02 -5.96287E+03
  2.75452E+03 -4.87021E+03  4.84617E+03 -1.14811E+03  5.46247E+03  1.24320E+03  2.45009E+03  3.84448E+03
  1.00245E+03  5.15552E+03 -1.53105E+03  4.26412E+03 -3.06237E+03  2.28893E+03 -2.34014E+03  2.24526E+02
 -1.47249E+03 -4.80555E+02 -1.03886E+03  4.97378E+02 -2.66956E+03  9.80546E+02 -3.14150E+03 -8.66227E+02
 -3.48158E+03 -1.68983E+03 -1.36376E+03 -4.48246E+03  2.91874E+03 -4.42052E+03  3.98882E+03 -2.71315E+03
  4.57473E+03  9.96681E+02  2.04917E+03  2.87691E+03 -8.45179E+01  4.03811E+03 -3.03207E+03  3.38546E+03
