 $NMID ID='MM_0lb_SNR400_14hz_g40_43.RAW', FMTDAT='(8E13.5)'
 TRAMP=1., VOLUME=1. $END
  3.10327E+05  3.20394E+02  3.37490E+05  2.50711E+05  8.46852E+04  3.37595E+05 -1.32445E+05  2.50653E+05
 -1.90001E+05  8.28502E+04 -1.11823E+05 -3.30073E+04  1.00392E+03 -5.08397E+04  5.39377E+04  5.23389E+01
  3.56098E+04  5.31883E+04 -1.70746E+04  7.51973E+04 -6.03189E+04  6.36810E+04 -8.42172E+04  3.11191E+04
 -8.00199E+04 -1.09370E+04 -5.66247E+04 -5.07766E+04 -1.49076E+04 -6.93862E+04  2.72239E+04 -4.51591E+04
  3.99540E+04  3.82828E+03  1.55039E+04  4.74858E+04 -3.38969E+04  4.76540E+04 -6.60416E+04 -1.49082E+02
 -5.34397E+04 -5.50595E+04 -7.03125E+03 -7.62199E+04  3.40695E+04 -5.47423E+04  4.75714E+04 -1.70501E+04
  4.34024E+04  1.14721E+04  3.11695E+04  2.53166E+04  1.51462E+04  2.95980E+04 -5.95293E+03  2.71914E+04
 -2.15848E+04  1.24711E+04 -1.82593E+04 -4.91592E+03  5.41930E+03 -6.86543E+03  2.16382E+04  1.17242E+04
  7.37419E+03  3.44262E+04 -3.16528E+04  3.53909E+04 -6.28129E+04  2.00502E+03 -5.64352E+04 -4.25784E+04
 -1.25104E+04 -6.24994E+04  3.91725E+04 -4.50850E+04  5.70257E+04 -2.46395E+03  3.39236E+04  3.16488E+04
 -6.40928E+03  3.53801E+04 -2.95410E+04  1.53640E+04 -2.93620E+04 -4.48952E+03 -1.58851E+04 -1.09176E+04
 -7.85462E+03 -1.30335E+04 -1.15380E+03 -1.79112E+04  7.53841E+03 -2.31301E+04  1.53086E+04 -1.37254E+04
  1.12766E+04  5.14478E+03 -7.48324E+03  1.31789E+04 -2.04905E+04 -3.26623E+03 -8.12971E+03 -3.25363E+04
  2.31192E+04 -4.26888E+04  4.72886E+04 -1.91946E+04  4.42926E+04  1.89798E+04  1.53219E+04  4.36399E+04
 -1.58993E+04  3.25814E+04 -2.48265E+04  1.40938E+03 -9.42303E+03 -2.71760E+04  2.00541E+04 -3.26485E+04
  4.05279E+04 -8.40094E+03  3.46386E+04  2.40111E+04  1.68551E+04  4.60095E+04 -7.85134E+03  4.89827E+04
 -3.07257E+04  3.30970E+04 -4.06263E+04  9.76826E+03 -4.16750E+04 -1.64509E+04 -2.31062E+04 -3.70341E+04
  7.57283E+03 -3.75191E+04  3.10532E+04 -1.44443E+04  2.85404E+04  1.05078E+04  3.56828E+03  1.86411E+04
 -1.37118E+04  8.39820E+03 -9.87151E+03 -7.13609E+03  5.45799E+03 -1.06341E+04  1.78236E+04  6.15438E+03
  1.32599E+04  2.21205E+04 -6.22568E+03  2.49160E+04 -2.21010E+04  1.09632E+04 -2.73206E+04 -5.69543E+03
 -1.98108E+04 -1.70534E+04 -7.68679E+03 -1.96562E+04  3.82961E+03 -1.86084E+04  1.46965E+04 -1.75672E+04
  2.50939E+04 -1.20236E+04  3.18811E+04  2.31420E+03  2.29025E+04  1.95661E+04  4.78756E+03  3.54095E+04
 -1.66352E+04  3.04258E+04 -2.74853E+04  1.05156E+04 -2.08637E+04 -1.05850E+04 -4.12932E+03 -1.37827E+04
  2.02165E+03 -3.61075E+03 -4.42803E+03  6.40729E+03 -1.50985E+04  5.23878E+03 -1.58535E+04 -6.94283E+03
 -9.88562E+03 -1.85234E+04  5.23135E+03 -2.28025E+04  1.45424E+04 -1.55651E+04  1.77798E+04 -1.23255E+03
  1.08080E+04  1.35546E+04 -1.11218E+03  1.87311E+04 -1.31585E+04  9.55922E+03 -1.84847E+04 -3.77438E+03
 -1.31449E+04 -1.62706E+04 -1.69866E+03 -2.22744E+04  9.76790E+03 -1.83567E+04  1.86775E+04 -8.83908E+03
  1.66888E+04  6.98228E+02  1.30997E+04  4.74374E+03  6.59221E+03  8.82958E+02  8.90371E+03 -8.92210E+02
  1.72262E+04  2.79541E+03  1.87565E+04  1.42903E+04  1.15478E+04  2.91066E+04 -3.41346E+03  3.24315E+04
 -1.89290E+04  2.50445E+04 -2.98319E+04  1.31195E+04 -3.12076E+04 -2.10676E+03 -2.64508E+04 -1.82372E+04
 -1.21153E+04 -2.54467E+04  9.38746E+03 -2.34658E+04  2.06839E+04 -1.21501E+04  1.83055E+04  5.45969E+03
  6.50505E+03  1.39713E+04 -8.54833E+03  1.24388E+04 -1.58888E+04  2.37552E+03 -1.19880E+04 -9.45083E+03
 -3.17733E+01 -1.58719E+04  8.27311E+03 -1.12132E+04  9.77624E+03 -1.40851E+03  1.83990E+03  6.81028E+03
 -5.93504E+03  2.01125E+03 -5.20935E+03 -5.83838E+03 -5.55616E+02 -1.32493E+04  9.13479E+03 -1.36383E+04
  1.59373E+04 -6.62210E+03  1.68854E+04  2.87695E+03  1.46507E+04  1.27196E+04  6.69871E+03  1.91946E+04
 -2.98107E+03  2.09378E+04 -1.34414E+04  1.34700E+04 -1.45781E+04  4.21168E+03 -1.05144E+04 -3.08633E+03
 -5.63973E+03 -5.05374E+03 -8.74893E+02  1.47941E+03 -2.50209E+03  3.20818E+03 -5.36235E+03  3.87294E+03
 -9.28039E+03 -9.39165E+02 -1.09160E+04 -8.30124E+03 -4.72634E+03 -1.43301E+04  4.16678E+03 -1.07888E+04
  9.75993E+03 -5.10155E+03  5.99840E+03  2.40371E+03  3.68764E+02  4.31627E+03 -4.46983E+03  2.14536E+02
 -4.67094E+03 -6.84870E+03 -4.54581E+02 -9.52624E+03  5.31948E+03 -1.04958E+04  1.32858E+04 -5.92024E+03
  1.55692E+04  1.27825E+03  1.11223E+04  8.90545E+03  1.79108E+03  1.19943E+04 -7.09058E+03  1.06124E+04
 -8.77606E+03  3.95619E+03 -4.38718E+03 -2.09929E+03  2.33397E+03 -2.83132E+03  5.65690E+03 -3.79071E+02
  5.21949E+03  4.36018E+03  1.06776E+03  8.38981E+03 -5.43373E+03  8.02675E+03 -1.02557E+04  1.84783E+03
 -6.11832E+03 -5.39419E+03  2.69307E+02 -8.94167E+03  4.81020E+03 -4.24626E+03  5.72053E+03  1.43359E+03
  6.48983E+02  5.38174E+03 -5.22923E+03  6.72707E+03 -7.50925E+03  3.69359E+03 -7.35819E+03 -1.72146E+03
 -4.12701E+03 -9.78675E+03  1.85131E+03 -1.04548E+04  8.36665E+03 -6.72719E+03  1.04371E+04  1.75797E+03
  6.63971E+03  7.69714E+03  7.14240E+01  9.86265E+03 -7.45440E+03  5.61215E+03 -7.84388E+03 -6.94745E+02
 -7.63958E+03 -6.98314E+03 -1.57248E+03 -7.47482E+03  3.53456E+03 -6.60491E+03  4.28176E+03 -3.25226E+03
  3.77049E+03  3.30975E+02  2.28996E+02  1.37160E+03 -4.57762E+02 -9.37819E+02  6.48439E+02 -3.50216E+03
  5.82557E+03 -2.53762E+03  8.40644E+03  4.55919E+02  8.87617E+03  5.83228E+03  7.26267E+03  1.09106E+04
 -2.63660E+03  1.37333E+04 -1.12236E+04  1.01248E+04 -1.45993E+04  1.58868E+03 -1.24402E+04 -4.61594E+03
 -5.57138E+03 -1.00716E+04 -7.30729E+02 -8.72638E+03  2.43698E+03 -4.21176E+03  2.88541E+03 -3.23451E+03
  2.44095E+03 -1.95538E+03  2.46433E+03 -2.94211E+03  4.58899E+03 -2.13306E+03  4.47238E+03  1.44712E+02
  6.19266E+03  2.16723E+03  2.85524E+03  5.18291E+03 -1.95424E+03  5.24811E+03 -6.52272E+03  4.42988E+03
 -7.90554E+03 -1.82295E+03 -4.55957E+03 -5.09947E+03  2.27635E+02 -8.73364E+03  4.83189E+03 -8.89693E+03
  9.35303E+03 -5.26374E+03  1.09148E+04  1.53111E+03  7.25224E+03  7.50076E+03  1.02948E+03  9.88362E+03
 -3.64535E+03  8.92411E+03 -5.81279E+03  2.72782E+03 -3.57707E+03 -1.27499E+03 -1.00622E+03 -1.78311E+03
 -4.30995E+02 -1.40598E+02 -1.35299E+03  2.47322E+03 -3.43910E+03  1.42324E+03 -5.63100E+03 -1.23933E+03
 -3.13445E+03 -5.77777E+03  6.98557E+02 -7.94769E+03  4.77553E+03 -7.30335E+03  6.54903E+03 -2.32744E+03
  7.40866E+03  3.94639E+03  2.64973E+03  6.43352E+03 -1.59623E+03  7.40731E+03 -5.59724E+03  5.01614E+03
 -6.75654E+03  6.16729E+02 -5.59338E+03 -4.20123E+03 -2.96886E+02 -6.56313E+03  2.99242E+03 -4.62258E+03
  4.48828E+03 -1.92546E+03  3.35576E+03  1.82903E+03  7.35965E+02  2.58304E+03  1.41189E+03  7.45897E+02
  2.28816E+03  1.56014E+02  2.30328E+03  1.46886E+03  2.24419E+03  3.27180E+03  2.20046E+03  4.05720E+03
 -1.72552E+03  5.47164E+03 -4.94420E+03  6.48346E+03 -6.94704E+03  1.60204E+03 -7.36392E+03 -1.66246E+03
 -4.17538E+03 -7.34895E+03  1.46663E+03 -7.97407E+03  3.86741E+03 -4.52425E+03  5.90063E+03 -1.30420E+03
  4.84034E+03  3.41120E+03  1.24533E+03  3.87602E+03 -1.79723E+03  2.31697E+03 -2.07284E+03  2.65216E+02
 -1.18005E+03 -3.08400E+03  2.29230E+03 -2.79059E+03  2.47970E+03 -1.28620E+03  2.75737E+03  9.37391E+02
  1.92700E+03  9.53144E+02  1.68063E+03 -4.46440E+01 -8.52275E+02  1.48273E+03  1.30418E+03 -8.14872E+01
  5.01781E+02 -2.47803E+02  2.88553E+03  1.64961E+03  1.33556E+03  3.56083E+03 -9.11208E+02  5.51211E+03
 -3.61038E+03  2.84191E+03 -4.29607E+03  7.12232E+02 -4.09140E+03 -1.46179E+03 -5.06269E+02 -2.70178E+03
  6.65951E+02 -2.59074E+03  1.20323E+03 -1.20413E+03  1.89072E+03  1.57575E+03 -1.20311E+03  1.97432E+03
 -2.72180E+03  1.08167E+03 -3.34179E+03 -1.70982E+03 -1.64339E+03 -3.80702E+03  4.81531E+02 -3.08367E+03
  1.82017E+03 -1.34686E+03  2.07358E+03 -8.64070E+01  2.65577E+03  4.28290E+02  2.05487E+02  2.09769E+03
 -1.71420E+03 -4.26921E+01 -2.02654E+03 -9.30602E+02  6.78966E+02 -2.29864E+03  3.22137E+03 -2.69317E+03
  3.34211E+03  4.26306E+02  4.32879E+03  2.28648E+03  2.06060E+03  4.02415E+03 -1.35272E+03  3.98680E+03
 -3.58198E+03  1.94561E+03 -3.35836E+03 -5.06896E+02 -1.59807E+03 -2.91817E+03  1.14907E+03 -2.15755E+03
  3.07643E+03 -1.37519E+03  2.03129E+03  1.28964E+03  1.20717E+03  2.46872E+03  1.75398E+02  2.25914E+03
 -1.23391E+03  1.56972E+03 -9.57802E+02  2.71584E+02 -2.14963E+02  5.82019E+02 -1.11039E+03  1.15113E+03
 -1.45595E+03  2.39223E+03 -3.08337E+03  1.57307E+03 -4.44220E+03 -1.46151E+02 -4.48774E+03 -2.75235E+03
 -2.50166E+03 -5.35420E+03  8.48225E+02 -5.80877E+03  2.96124E+03 -4.64238E+03  5.67935E+03 -2.31163E+03
  5.29816E+03  5.99398E+02  3.18329E+03  4.46758E+03 -3.58255E+02  2.94860E+03 -1.53586E+03  2.97971E+03
 -2.42797E+03  1.49084E+03 -1.30783E+03 -9.37857E+02 -9.87261E+02  3.05709E+01 -6.24237E+02  2.40040E+01
 -1.48114E+03  8.05094E+02 -1.70678E+03 -3.30601E+02 -2.92362E+02 -1.79247E+03  6.36580E+01 -1.66182E+03
  2.24127E+03 -8.85191E+02  1.93034E+03  1.06002E+02  3.19851E+03  1.84620E+03  5.50840E+02  3.61094E+03
 -2.05755E+03  5.06406E+03 -4.13542E+03  3.33800E+03 -4.06586E+03 -1.39584E+02 -3.53585E+03 -3.72228E+03
 -1.74875E+03 -4.12779E+03  7.59227E+02 -3.57335E+03  2.21122E+03 -2.24368E+03  2.23755E+03 -6.15343E+02
  1.58875E+03  9.35121E+02  4.83016E+01  1.58255E+03 -1.18710E+03 -3.53752E+01 -3.89282E+02 -6.96664E+02
  1.48376E+03  2.65578E+02  1.19093E+03  9.09560E+02  4.87074E+02  1.74745E+03  4.34619E+02  1.14683E+03
 -1.04088E+03  1.69572E+03 -2.39350E+03  6.10546E+02 -1.91270E+03 -1.75444E+03 -1.37321E+02 -3.64277E+03
  2.19682E+03 -2.82967E+03  2.67414E+03 -4.54593E+02  3.10787E+03  1.08008E+02  2.11401E+03  1.68258E+03
  9.89018E+02  2.06680E+03 -6.93812E+02  2.61495E+03 -1.36891E+03  1.05894E+03 -9.18833E+02  7.97836E+02
 -8.77677E+02 -2.51497E+02 -6.40153E+02  3.50899E+02 -7.51126E+02  2.71495E+02 -2.29611E+03  3.43808E+02
 -1.99766E+03 -1.38364E+03  4.71411E+00 -2.58442E+03  8.72301E+02 -2.24909E+03  2.44882E+03 -6.88580E+02
  2.20742E+03  1.19268E+02  1.02144E+03  1.30345E+03 -2.90256E+02  2.22273E+03 -2.28895E+03  1.80167E+03
