 $NMID ID='MM_0lb_SNR400_20hz_g45_2.RAW', FMTDAT='(8E13.5)'
 TRAMP=1., VOLUME=1. $END
  3.09699E+05  1.01174E+03  3.37000E+05  2.50622E+05  8.45768E+04  3.37420E+05 -1.32009E+05  2.49197E+05
 -1.89522E+05  8.24487E+04 -1.10731E+05 -3.29767E+04  1.31104E+03 -4.99396E+04  5.34838E+04 -4.34690E+02
  3.45449E+04  5.28512E+04 -1.73900E+04  7.47875E+04 -6.05439E+04  6.23671E+04 -8.25130E+04  3.16649E+04
 -7.90152E+04 -1.10919E+04 -5.56975E+04 -5.00792E+04 -1.53637E+04 -6.79887E+04  2.62438E+04 -4.43945E+04
  3.88222E+04  4.29204E+03  1.52759E+04  4.67259E+04 -3.33494E+04  4.59547E+04 -6.48513E+04 -6.82129E+02
 -5.12739E+04 -5.55591E+04 -5.97188E+03 -7.40050E+04  3.29262E+04 -5.27447E+04  4.59696E+04 -1.64819E+04
  4.07852E+04  1.07084E+04  3.03438E+04  2.43931E+04  1.54777E+04  2.78286E+04 -4.74608E+03  2.63879E+04
 -2.16797E+04  1.25519E+04 -1.96664E+04 -3.78254E+03  3.78043E+03 -7.89378E+03  2.09968E+04  1.11722E+04
  6.72721E+03  3.20007E+04 -2.99629E+04  3.33891E+04 -6.06428E+04  2.29313E+03 -5.47100E+04 -4.08837E+04
 -1.28889E+04 -6.05359E+04  3.77072E+04 -4.25854E+04  5.45813E+04 -1.58467E+03  3.07591E+04  2.98802E+04
 -6.96842E+03  3.22959E+04 -2.75972E+04  1.26514E+04 -2.69363E+04 -5.37602E+03 -1.39468E+04 -1.01390E+04
 -6.89782E+03 -1.03135E+04 -1.37181E+03 -1.61889E+04  6.34535E+03 -2.26982E+04  1.45758E+04 -1.40228E+04
  1.24452E+04  3.76543E+03 -5.42062E+03  1.35273E+04 -1.85102E+04 -1.86614E+03 -7.77320E+03 -2.88140E+04
  1.99542E+04 -3.95491E+04  4.42947E+04 -1.81918E+04  4.09435E+04  1.81771E+04  1.32607E+04  4.08701E+04
 -1.47306E+04  3.04063E+04 -2.26401E+04  8.97775E+02 -8.00146E+03 -2.52821E+04  2.01380E+04 -3.06574E+04
  3.71478E+04 -7.37135E+03  3.02910E+04  2.26339E+04  1.47418E+04  4.14379E+04 -7.89000E+03  4.34428E+04
 -2.75910E+04  2.91811E+04 -3.56323E+04  8.25228E+03 -3.69781E+04 -1.44941E+04 -2.09994E+04 -3.36199E+04
  6.52617E+03 -3.27125E+04  2.77159E+04 -1.20077E+04  2.60231E+04  1.08021E+04  2.55959E+03  1.71129E+04
 -1.26983E+04  6.62263E+03 -9.18611E+03 -7.80957E+03  5.92786E+03 -9.82864E+03  1.72261E+04  6.68863E+03
  1.19195E+04  2.18949E+04 -6.87012E+03  2.31992E+04 -2.07188E+04  8.49425E+03 -2.43097E+04 -6.76137E+03
 -1.53952E+04 -1.60256E+04 -4.44173E+03 -1.54684E+04  3.68292E+03 -1.26824E+04  1.13925E+04 -1.34612E+04
  1.94139E+04 -1.12377E+04  2.62706E+04  9.21361E+02  2.07916E+04  1.51222E+04  3.87235E+03  3.12642E+04
 -1.50237E+04  2.63760E+04 -2.48740E+04  9.16025E+03 -1.93866E+04 -1.07360E+04 -3.89206E+03 -1.40630E+04
  3.28251E+03 -5.01122E+03 -2.02779E+03  4.79128E+03 -1.17317E+04  5.62296E+03 -1.25662E+04 -3.87739E+03
 -8.43341E+03 -1.46219E+04  4.10832E+03 -1.81090E+04  1.24352E+04 -1.34447E+04  1.34335E+04 -1.23668E+03
  8.10797E+03  1.00832E+04 -9.90138E+02  1.48849E+04 -9.75743E+03  8.61832E+03 -1.42783E+04 -3.61351E+03
 -1.08863E+04 -1.33360E+04 -1.38696E+03 -1.77960E+04  7.88271E+03 -1.45730E+04  1.49248E+04 -6.14462E+03
  1.34797E+04  8.43006E+02  1.00075E+04  3.83517E+03  4.55490E+03  6.37772E+02  6.18371E+03 -1.44537E+03
  1.27955E+04  2.56300E+03  1.30101E+04  1.23813E+04  7.63620E+03  2.30124E+04 -3.69197E+03  2.45566E+04
 -1.47505E+04  1.79373E+04 -2.17665E+04  8.75607E+03 -2.23027E+04 -2.20593E+03 -1.95079E+04 -1.26456E+04
 -9.60833E+03 -1.75278E+04  5.33964E+03 -1.76862E+04  1.49304E+04 -1.03030E+04  1.46565E+04  3.68055E+03
  6.58862E+03  1.04543E+04 -6.96104E+03  9.40895E+03 -1.23013E+04  2.72063E+03 -9.51476E+03 -7.19024E+03
  1.65180E+02 -1.15654E+04  5.57297E+03 -8.88616E+03  7.57204E+03 -1.85208E+03  9.35635E+02  4.56518E+03
 -5.02406E+03  1.35891E+03 -3.07645E+03 -3.60700E+03  1.37064E+03 -9.15615E+03  8.09825E+03 -8.68652E+03
  1.13512E+04 -3.89877E+03  1.02153E+04  2.70329E+03  8.76658E+03  8.72043E+03  4.35624E+03  1.20530E+04
 -1.02814E+03  1.38836E+04 -8.49693E+03  8.90888E+03 -9.51864E+03  3.38337E+03 -7.44720E+03 -1.44488E+03
 -4.43280E+03 -2.72856E+03 -8.00429E+02  1.51930E+03 -1.83244E+03  1.89091E+03 -3.04413E+03  2.91950E+03
 -7.18224E+03 -4.20999E+02 -8.15406E+03 -6.65854E+03 -3.48918E+03 -1.08551E+04  2.97744E+03 -8.02991E+03
  6.73656E+03 -3.49768E+03  4.59706E+03  1.72284E+03  6.34772E+02  2.78756E+03 -3.19652E+03 -2.18011E+02
 -3.07783E+03 -4.87624E+03 -8.37669E+02 -6.13270E+03  3.32523E+03 -7.03125E+03  8.98324E+03 -3.74524E+03
  1.07857E+04  7.51699E+02  7.87710E+03  5.48835E+03  1.56755E+03  7.28577E+03 -4.82286E+03  7.70185E+03
 -6.24586E+03  2.17046E+03 -3.06680E+03 -2.84059E+02  8.96944E+02 -1.10199E+03  4.48261E+03 -9.36239E+02
  4.19614E+03  3.37253E+03  1.09781E+03  5.90643E+03 -4.23754E+03  5.58960E+03 -7.07777E+03  2.04518E+03
 -4.81811E+03 -3.22887E+03  2.19359E+02 -6.15700E+03  3.07878E+03 -2.86842E+03  2.92931E+03  8.24643E+02
  2.19074E+02  2.38882E+03 -3.97454E+03  3.71451E+03 -3.84022E+03  1.12767E+03 -3.41688E+03 -1.16425E+03
 -2.60075E+03 -4.72457E+03  1.06799E+03 -5.22825E+03  4.74272E+03 -3.85715E+03  5.50114E+03  5.91472E+02
  4.33178E+03  4.33488E+03  7.86341E+01  5.97830E+03 -4.39156E+03  3.83999E+03 -4.24372E+03 -4.58133E+02
 -5.49133E+03 -4.36664E+03 -1.35260E+03 -4.03799E+03  1.88830E+03 -4.32264E+03  2.35877E+03 -2.74645E+03
  2.05158E+03  1.93550E+02  1.56397E+02  1.22405E+03  4.81163E+02  7.44260E+01 -1.86954E+01 -7.04423E+02
  3.05623E+03 -1.17078E+02  4.38022E+03  5.76959E+02  4.65929E+03  2.68665E+03  5.04597E+03  5.99269E+03
 -5.70535E+02  6.98439E+03 -6.25752E+03  5.43246E+03 -8.49107E+03  2.08642E+02 -6.33476E+03 -2.03567E+03
 -3.68883E+03 -5.11431E+03 -4.65216E+01 -3.99525E+03  1.81660E+03 -1.52196E+03  1.79223E+03 -1.52392E+03
  1.01260E+03 -1.11773E+03  2.12168E+03 -1.87295E+03  3.03865E+03 -1.17318E+03  3.47658E+03  7.04484E+02
  4.29343E+03  1.31550E+03  4.29383E+02  2.88559E+03 -1.72547E+03  2.06476E+03 -4.26129E+03  2.14019E+03
 -3.82432E+03 -1.17839E+03 -8.77271E+02 -2.19852E+03  4.73503E+02 -4.05729E+03  2.83567E+03 -4.15183E+03
  3.81673E+03 -2.74465E+03  5.88278E+03 -4.88324E+02  4.18111E+03  3.30016E+03  1.14075E+03  4.94515E+03
 -1.38161E+03  4.60288E+03 -3.07054E+03  1.52155E+03 -1.18541E+03 -1.19409E+03 -9.31776E+02 -3.12986E+02
 -3.14654E+02  4.07481E+02 -7.46971E+02  1.94782E+03 -2.36605E+03  1.12552E+03 -3.72985E+03 -1.45049E+02
 -1.26335E+03 -4.02289E+03  7.27912E+02 -4.04618E+03  2.10247E+03 -3.53156E+03  3.03861E+03 -1.39190E+03
  3.51886E+03  2.27586E+03  1.38631E+03  2.38040E+03 -3.55039E+02  3.60141E+03 -2.07967E+03  2.35346E+03
 -3.08535E+03  9.25584E+02 -2.77562E+03 -1.40580E+03 -2.18976E+02 -2.19908E+03  1.60318E+03 -2.09847E+03
  2.25894E+03 -8.30581E+02  1.42618E+03  6.26772E+01  2.82509E+02  1.44187E+03  6.89176E+02  7.93943E+02
  1.35424E+03  6.21936E+02  9.81384E+02  1.24449E+03  9.19702E+02  1.97491E+03  1.40782E+03  9.05032E+02
 -1.16702E+03  2.41837E+03 -1.77685E+03  3.55758E+03 -2.08478E+03  1.23246E+03 -3.45964E+03  7.68032E+02
 -6.30572E+02 -2.52212E+03  2.96619E+02 -3.79988E+03  7.74764E+02 -2.03635E+03  2.62773E+03 -7.69989E+02
  1.89234E+03  1.71975E+03  2.43863E+02  2.02393E+03 -7.17967E+02  9.11800E+02 -5.14430E+02  3.05859E+02
 -3.00486E+02 -1.03231E+03  6.80375E+02 -9.26145E+02  9.13926E+02 -1.10209E+03  1.37977E+03  1.51148E+02
  8.72466E+02  2.99293E+02  7.26140E+02 -7.93462E+02  1.12012E+02  7.02772E+02  1.25620E+03 -5.15541E+02
 -3.05717E+02 -4.63882E+02  1.75169E+03  6.94080E+02 -7.92275E+00  1.35739E+03 -1.23097E+02  2.43937E+03
 -1.18461E+03  8.17322E+02 -8.42145E+02  1.81786E+01 -1.61271E+03 -1.07655E+03  6.34109E+02 -4.42135E+02
  4.68530E+02 -1.38480E+03  1.21968E+03 -4.87022E+02  3.13577E+02  1.38347E+03 -9.76245E+02  1.32063E+03
 -1.29623E+03  1.03120E+03 -5.21963E+02 -6.77614E+02 -9.85258E+02 -1.65271E+03  2.39457E+02 -1.19819E+03
  4.31749E+02 -3.64314E+02  1.19236E+02  1.36313E+02  1.32154E+03 -7.32150E+02  7.72170E+01  1.09070E+03
 -3.28484E+01  2.66872E+02 -3.86934E+02 -1.61748E+02  7.57137E+02 -8.46861E+02  1.29608E+03 -6.15920E+02
  7.14352E+02  1.05132E+02  2.58281E+03  3.16637E+02  7.40389E+02  1.59795E+03 -1.51251E+01  1.55354E+03
 -1.26301E+03 -3.09220E+02 -1.46527E+03 -4.65241E+02 -9.20718E+02 -9.79185E+02 -2.14076E+02 -4.84974E+02
  1.20879E+03 -4.75868E+02  9.33980E+01  7.09278E+02  4.75221E+02  1.34501E+03 -1.04633E+02  8.19136E+02
 -1.96923E+02  4.29829E+02 -2.65313E+02  3.00029E+01  7.00513E+01  5.97147E+02 -1.02619E+03  9.25708E+02
 -5.80312E+02  9.89173E+02 -1.95078E+03  6.50962E+02 -8.53086E+02 -1.71683E+01 -1.78165E+03 -6.34665E+02
 -9.81780E+02 -1.64593E+03 -3.63983E+01 -2.16039E+03  5.14718E+02 -2.19957E+03  2.21672E+03 -2.73357E+02
  1.83872E+03  1.13071E+02  4.39966E+02  1.46509E+03 -7.43301E+02  4.43266E+02 -3.38983E+02  6.09458E+02
 -6.93263E+02  8.20188E+02 -4.58420E+02 -2.26567E+02 -3.21850E+02  2.73932E+02 -6.53969E+02  9.92075E+01
 -7.06732E+02 -1.68264E+02 -8.73680E+02 -6.84310E+02 -6.72263E+02  2.69160E+01 -3.24657E+02 -7.24308E+02
  9.41598E+02 -4.05223E+02  8.64472E+01  5.36041E+02  1.12470E+03  6.74959E+02 -7.77635E+02  1.03572E+03
 -1.22581E+03  1.45043E+03 -1.80183E+03  1.50321E+03 -1.82701E+03 -4.22969E+02 -7.70209E+02 -1.26496E+03
 -5.06250E+02 -5.31757E+02  2.87719E+02 -8.11299E+02  3.25626E+02 -1.12340E+02  4.75326E+01  6.45054E+02
  5.28779E+02  1.91059E+02  4.89210E+02  3.49339E+01 -3.38516E+02 -1.73783E+02  1.72446E+02 -6.65953E+02
  3.99674E+02  1.33134E+02  2.65832E+02  2.98365E+02  1.61351E+01  9.17685E+02  2.37863E+02 -4.15201E+01
 -5.88223E+02  1.52875E+02 -1.31164E+02  1.86746E+02 -8.26840E+02 -4.11310E+02  5.71715E+02 -1.01614E+03
  5.75407E+02 -6.12820E+02  2.43333E+02 -4.38817E+01  1.71506E+02 -8.41643E+02 -1.26480E+02  3.64397E+01
  4.53466E+02  7.83356E+01  8.47333E+01  5.62692E+02  1.58841E+02  4.62128E+02  5.61249E+01 -2.04612E+02
 -6.09129E+02 -2.08489E+02 -7.58430E+02 -8.86905E-01 -3.54981E+02  6.04719E+02 -2.64403E+02  1.80393E+02
 -7.93703E+02  7.49925E+02  1.24543E+02 -7.60609E+02  9.51650E+02 -1.11385E+03  8.44632E+02 -1.15142E+02
  1.01723E+02 -1.26241E+01 -8.41487E+02  9.04594E+01 -7.40597E+01  1.05966E+03 -1.31738E+02  8.83314E+01
