 $NMID ID='MM_0lb_SNR400_15hz_g50_50.RAW', FMTDAT='(8E13.5)'
 TRAMP=1., VOLUME=1. $END
  3.10002E+05  7.83348E+02  3.38083E+05  2.50480E+05  8.43767E+04  3.37728E+05 -1.32667E+05  2.50889E+05
 -1.89847E+05  8.27308E+04 -1.11736E+05 -3.31013E+04  1.28816E+03 -5.05312E+04  5.37295E+04  1.92855E+02
  3.46603E+04  5.19906E+04 -1.64111E+04  7.55314E+04 -6.06288E+04  6.26625E+04 -8.38661E+04  3.20076E+04
 -8.02253E+04 -1.13009E+04 -5.66432E+04 -5.11561E+04 -1.49723E+04 -6.93367E+04  2.72321E+04 -4.56083E+04
  3.98095E+04  4.16799E+03  1.66921E+04  4.75217E+04 -3.43213E+04  4.65267E+04 -6.67527E+04 -6.09028E+02
 -5.28490E+04 -5.67336E+04 -6.42329E+03 -7.66409E+04  3.38702E+04 -5.49312E+04  4.84414E+04 -1.68834E+04
  4.34523E+04  1.09334E+04  3.14952E+04  2.49471E+04  1.51717E+04  2.91710E+04 -4.69336E+03  2.68770E+04
 -2.23530E+04  1.22432E+04 -1.82139E+04 -4.95357E+03  5.61079E+03 -7.71713E+03  2.18888E+04  1.25922E+04
  6.91111E+03  3.51066E+04 -3.18114E+04  3.48326E+04 -6.32111E+04  1.56700E+03 -5.70714E+04 -4.26564E+04
 -1.23603E+04 -6.23991E+04  3.97473E+04 -4.52778E+04  5.75853E+04 -2.17687E+03  3.38504E+04  3.16865E+04
 -5.95569E+03  3.58657E+04 -2.99738E+04  1.52703E+04 -3.04039E+04 -4.21926E+03 -1.62015E+04 -1.04710E+04
 -7.82938E+03 -1.31044E+04 -1.15194E+03 -1.79934E+04  7.28228E+03 -2.33893E+04  1.55318E+04 -1.35514E+04
  1.16522E+04  4.78459E+03 -8.56734E+03  1.29474E+04 -2.12806E+04 -4.33671E+03 -8.38379E+03 -3.28983E+04
  2.26357E+04 -4.34620E+04  4.73718E+04 -1.97530E+04  4.48581E+04  1.92173E+04  1.57379E+04  4.37241E+04
 -1.57388E+04  3.28608E+04 -2.53186E+04  1.86508E+03 -9.66485E+03 -2.79045E+04  2.06349E+04 -3.31037E+04
  4.09713E+04 -9.12211E+03  3.46598E+04  2.35129E+04  1.74633E+04  4.58540E+04 -7.41230E+03  4.92546E+04
 -3.10872E+04  3.27811E+04 -4.12402E+04  9.79749E+03 -4.19902E+04 -1.63370E+04 -2.37187E+04 -3.75224E+04
  8.06902E+03 -3.67391E+04  3.13055E+04 -1.37453E+04  2.82795E+04  1.08225E+04  4.13067E+03  1.87749E+04
 -1.29416E+04  8.49270E+03 -1.01995E+04 -7.94210E+03  5.74487E+03 -1.09429E+04  1.81727E+04  6.23430E+03
  1.34999E+04  2.14833E+04 -6.10579E+03  2.46702E+04 -2.18326E+04  1.13009E+04 -2.77435E+04 -5.38981E+03
 -1.98527E+04 -1.68148E+04 -8.05407E+03 -1.98210E+04  3.71933E+03 -1.81928E+04  1.55291E+04 -1.74618E+04
  2.50327E+04 -1.32505E+04  3.22887E+04  2.70951E+03  2.35014E+04  1.96743E+04  3.97424E+03  3.56419E+04
 -1.74431E+04  2.96202E+04 -2.73629E+04  1.05655E+04 -2.10302E+04 -1.01337E+04 -4.11438E+03 -1.39285E+04
  1.78828E+03 -2.50144E+03 -4.61275E+03  6.45702E+03 -1.54554E+04  4.75737E+03 -1.56265E+04 -6.93551E+03
 -9.81616E+03 -1.81744E+04  5.30152E+03 -2.23643E+04  1.50448E+04 -1.64382E+04  1.78103E+04 -2.06077E+03
  1.10021E+04  1.30519E+04 -9.76863E+02  1.77474E+04 -1.23530E+04  9.62419E+03 -1.85621E+04 -3.12959E+03
 -1.35181E+04 -1.69037E+04 -1.67554E+03 -2.26125E+04  9.99740E+03 -1.86142E+04  1.81950E+04 -8.99945E+03
  1.76946E+04  3.88841E+01  1.23585E+04  4.20506E+03  6.71798E+03  2.25727E+02  9.29991E+03 -1.70688E+03
  1.66119E+04  1.99902E+03  1.82776E+04  1.49446E+04  1.24448E+04  2.95231E+04 -3.28793E+03  3.27556E+04
 -1.86512E+04  2.63145E+04 -3.07958E+04  1.31053E+04 -3.20916E+04 -1.80067E+03 -2.64357E+04 -1.80735E+04
 -1.13868E+04 -2.65109E+04  8.87954E+03 -2.38628E+04  2.04508E+04 -1.25025E+04  1.83600E+04  4.81403E+03
  6.84512E+03  1.43454E+04 -8.60384E+03  1.23866E+04 -1.59142E+04  2.64839E+03 -1.22546E+04 -1.02949E+04
  5.91838E+02 -1.45081E+04  7.60924E+03 -1.12740E+04  9.57153E+03 -1.32300E+03  1.83728E+03  5.63247E+03
 -6.89299E+03  2.66779E+03 -5.84155E+03 -5.57969E+03 -7.23477E+02 -1.28216E+04  9.19762E+03 -1.37768E+04
  1.55726E+04 -6.42731E+03  1.64945E+04  2.92375E+03  1.46953E+04  1.27272E+04  6.78008E+03  1.98096E+04
 -2.42561E+03  2.11022E+04 -1.31132E+04  1.23762E+04 -1.46033E+04  3.22187E+03 -1.06672E+04 -3.06751E+03
 -5.37954E+03 -4.37777E+03 -1.55437E+02  1.38609E+03 -1.79045E+03  1.94203E+03 -4.63635E+03  4.05484E+03
 -9.72489E+03 -8.85070E+02 -1.08270E+04 -8.84363E+03 -4.78369E+03 -1.46550E+04  4.49665E+03 -1.06373E+04
  9.76013E+03 -4.97176E+03  6.47517E+03  2.63222E+03 -8.94408E+01  3.73201E+03 -5.38616E+03 -5.58796E+02
 -4.94378E+03 -6.48000E+03 -6.13522E+02 -9.75859E+03  5.05021E+03 -1.05404E+04  1.22265E+04 -5.62511E+03
  1.60858E+04  1.18296E+03  1.11820E+04  8.14476E+03  2.54635E+03  1.27365E+04 -6.33419E+03  1.07837E+04
 -9.00779E+03  3.90035E+03 -4.35848E+03 -1.80168E+03  1.85941E+03 -2.91504E+03  5.79309E+03 -1.30278E+03
  4.90518E+03  4.52849E+03  7.46835E+02  8.94092E+03 -5.87953E+03  7.80609E+03 -9.90807E+03  1.94397E+03
 -6.38516E+03 -5.27358E+03  3.87333E+02 -8.74770E+03  5.73676E+03 -4.21227E+03  5.36301E+03  1.78057E+03
  6.83612E+02  5.23792E+03 -5.50397E+03  7.10120E+03 -7.18363E+03  3.54358E+03 -7.92852E+03 -2.34868E+03
 -4.79670E+03 -8.70142E+03  1.96272E+03 -1.02479E+04  9.13852E+03 -6.58022E+03  9.74197E+03  1.84063E+03
  6.20726E+03  7.60025E+03 -4.83164E+02  9.75792E+03 -6.62310E+03  5.40696E+03 -7.46320E+03 -5.69518E+02
 -7.19605E+03 -6.73509E+03 -1.79206E+03 -6.76424E+03  3.40055E+03 -5.76440E+03  4.89714E+03 -3.17225E+03
  3.75888E+03  4.17475E+02 -4.49393E+02  1.43898E+03  3.05846E+02 -1.55014E+03  1.55123E+03 -3.87094E+03
  6.33186E+03 -2.00174E+03  8.83844E+03  1.23783E+03  7.83502E+03  4.85560E+03  6.41140E+03  1.13039E+04
 -2.44216E+03  1.24887E+04 -1.12034E+04  9.97309E+03 -1.42311E+04  1.72034E+03 -1.11397E+04 -4.57404E+03
 -6.87802E+03 -9.53316E+03 -3.01999E+02 -7.26085E+03  3.24692E+03 -3.60677E+03  3.22352E+03 -3.14523E+03
  2.13933E+03 -1.78772E+03  2.73263E+03 -2.68768E+03  4.07721E+03 -1.86990E+03  4.85441E+03 -6.57620E+02
  6.06432E+03  1.27100E+03  2.29100E+03  5.03746E+03 -1.88373E+03  5.11571E+03 -6.57279E+03  4.08528E+03
 -7.86138E+03 -2.85362E+02 -4.42748E+03 -5.10704E+03  6.73118E+00 -7.86860E+03  4.36704E+03 -8.08170E+03
  8.54343E+03 -4.19012E+03  1.00159E+04  9.25166E+02  6.59239E+03  7.20266E+03  1.47499E+03  9.17580E+03
 -3.52537E+03  8.15452E+03 -5.15364E+03  3.22981E+03 -3.68729E+03 -1.07178E+03 -1.06008E+03 -1.50603E+03
 -8.34603E+02  4.49640E+02 -1.08684E+03  2.31421E+03 -3.61864E+03  1.23438E+03 -5.80456E+03 -1.75074E+03
 -2.97876E+03 -5.63819E+03  7.04870E+02 -7.12215E+03  4.19207E+03 -7.02090E+03  7.01931E+03 -2.33072E+03
  6.39222E+03  3.29654E+03  3.23729E+03  6.07777E+03 -1.21088E+03  6.77909E+03 -4.99885E+03  4.48265E+03
 -6.73936E+03  6.44499E+02 -5.49280E+03 -4.14175E+03 -1.46073E+03 -5.79162E+03  2.86422E+03 -4.34333E+03
  4.33209E+03 -1.35625E+03  3.25283E+03  9.41643E+02  7.34099E+02  2.15353E+03  8.29506E+02  9.40002E+02
  1.84428E+03  8.50596E+02  2.16244E+03  1.45207E+03  1.60427E+03  2.75401E+03  2.00044E+03  2.91174E+03
 -1.76895E+03  5.29647E+03 -4.05335E+03  6.36964E+03 -5.86633E+03  1.04969E+03 -7.28820E+03 -1.56041E+03
 -3.10823E+03 -6.73139E+03  1.84782E+03 -7.38971E+03  3.67020E+03 -4.73838E+03  5.65296E+03 -1.27992E+03
  3.78748E+03  2.44925E+03  1.11914E+03  3.43153E+03 -1.40515E+03  2.03115E+03 -1.92499E+03 -1.92279E+02
 -5.72940E+02 -2.49144E+03  1.81785E+03 -3.30937E+03  2.01202E+03 -1.01967E+03  1.76438E+03  4.24143E+02
  1.57803E+03  1.03274E+03  1.30432E+03  1.17138E+02 -7.24260E+02  1.02177E+03  8.76123E+02 -8.34940E+01
  3.38250E+02 -7.23624E+02  3.47578E+03  1.03449E+03  7.16972E+02  3.76989E+03 -8.71349E+02  5.38633E+03
 -3.16101E+03  2.46405E+03 -3.89161E+03  4.53409E+02 -3.90145E+03 -1.47882E+03 -1.45546E+03 -2.03331E+03
  1.92172E+02 -2.44037E+03  1.89415E+03 -1.22599E+03  1.74728E+03  7.94623E+02 -1.00235E+03  2.27393E+03
 -2.68878E+03  1.82996E+03 -2.94158E+03 -1.45532E+03 -1.30646E+03 -2.93114E+03  3.86642E+02 -3.17136E+03
  1.51744E+03 -1.86414E+03  1.88491E+03 -2.92122E+02  2.92652E+03  7.99927E+01  7.05476E+01  1.77128E+03
 -7.76224E+02  3.08185E+02 -2.03746E+03 -8.25015E+02  7.92989E+02 -1.72589E+03  3.16239E+03 -1.51861E+03
  2.98341E+03  1.76318E+02  4.61448E+03  1.99537E+03  1.41631E+03  3.28227E+03 -1.02508E+03  3.81258E+03
 -3.19805E+03  9.88350E+02 -3.18048E+03 -9.61666E+02 -1.93489E+03 -2.26303E+03  1.10539E+03 -1.47247E+03
  2.49378E+03 -1.52494E+03  2.33246E+03  1.66404E+03  4.69305E+02  2.08658E+03  1.85942E+02  1.40254E+03
 -6.66435E+02  8.45295E+02 -4.01849E+02  8.82068E+02 -3.00814E+02  4.74778E+01 -7.38320E+02  1.20437E+03
 -1.19824E+03  1.53119E+03 -2.98427E+03  1.17121E+03 -2.95424E+03  3.03772E+02 -3.86217E+03 -2.42287E+03
 -2.60918E+03 -4.78613E+03  6.44694E+02 -5.40457E+03  2.92756E+03 -3.93894E+03  4.91086E+03 -1.51336E+03
  4.34591E+03  2.27431E+02  2.44470E+03  2.83446E+03 -3.37070E+01  3.55513E+03 -1.12463E+03  2.50391E+03
 -2.21468E+03  8.40060E+02 -8.63372E+02  1.67645E+02 -3.44286E+02 -3.73475E+02 -6.66045E+02 -1.96168E+01
 -1.68860E+03  2.42290E+02 -9.11779E+02 -1.62194E+02  2.40299E+02 -9.00517E+02 -5.42848E+01 -1.58345E+03
  1.46702E+03 -1.71392E+03  1.49730E+03  2.63963E+02  2.66661E+03  1.89267E+03  7.55786E+01  2.85914E+03
 -1.95340E+03  4.47935E+03 -3.78176E+03  2.66151E+03 -3.46434E+03  1.80709E+02 -2.57450E+03 -2.44708E+03
 -1.72201E+03 -3.56926E+03  1.04431E+03 -2.55194E+03  1.69977E+03 -1.65994E+03  2.05496E+03 -4.12914E+02
  1.08030E+03  2.57502E+02  5.00050E+02  5.81347E+02 -5.42302E+02 -5.39703E+02 -5.12287E+02 -1.10718E+03
  1.19536E+03 -3.26845E+02  1.08486E+03  6.70760E+02  1.16784E+03  1.13596E+03  4.20263E+02  1.58560E+03
 -1.75638E+03  1.38775E+03 -1.88273E+03 -1.81039E+02 -1.78187E+03 -1.15818E+03  6.44260E+01 -2.35251E+03
  1.15114E+03 -1.91059E+03  1.35731E+03 -4.45930E+02  2.28311E+03 -1.10986E+02  1.58781E+03  2.01514E+03
  1.86570E+02  1.37383E+03 -9.16968E+02  9.41528E+02 -1.61544E+03  7.99572E+02 -1.12266E+03  1.54736E+02
 -3.93764E+02 -4.96797E+01 -5.96100E+02  2.37895E+02 -9.82962E+02 -8.85180E+01 -1.78261E+03 -2.18249E+01
 -1.75292E+03  1.92471E+02 -1.10128E+02 -2.24821E+03  7.33679E+02 -2.95103E+03  1.65628E+03 -6.97015E+02
  1.91346E+03  1.90295E+02 -3.52655E+01  8.20252E+02  6.89151E+01  2.10260E+03 -7.85000E+02  1.18552E+03
