 $NMID ID='MM_0lb_SNR400_9hz_g50_65.RAW', FMTDAT='(8E13.5)'
 TRAMP=1., VOLUME=1. $END
  3.09299E+05  2.70990E+02  3.37238E+05  2.50742E+05  8.50742E+04  3.38537E+05 -1.32805E+05  2.51892E+05
 -1.90505E+05  8.37655E+04 -1.12751E+05 -3.30463E+04  2.24904E+02 -5.10203E+04  5.39278E+04 -1.92481E+02
  3.53630E+04  5.34384E+04 -1.62712E+04  7.59031E+04 -6.10019E+04  6.50057E+04 -8.49987E+04  3.21595E+04
 -8.19929E+04 -1.12272E+04 -5.84446E+04 -5.22267E+04 -1.49939E+04 -7.05483E+04  2.86699E+04 -4.67542E+04
  4.18786E+04  3.34241E+03  1.61399E+04  4.84181E+04 -3.46925E+04  4.87375E+04 -6.75071E+04  1.33069E+03
 -5.50322E+04 -5.78144E+04 -7.53773E+03 -7.90369E+04  3.49694E+04 -5.61932E+04  4.97720E+04 -1.89100E+04
  4.46572E+04  1.12885E+04  3.34117E+04  2.70907E+04  1.63511E+04  3.05560E+04 -5.47501E+03  2.77562E+04
 -2.31231E+04  1.25761E+04 -1.80403E+04 -5.54769E+03  6.73604E+03 -6.78095E+03  2.35363E+04  1.34546E+04
  7.45983E+03  3.62840E+04 -3.41556E+04  3.72792E+04 -6.61641E+04  2.93564E+03 -5.97019E+04 -4.45980E+04
 -1.27325E+04 -6.56095E+04  4.16460E+04 -4.75897E+04  6.12504E+04 -2.00485E+03  3.75729E+04  3.40010E+04
 -6.65222E+03  4.01507E+04 -3.15883E+04  1.88007E+04 -3.27374E+04 -2.80157E+03 -1.90729E+04 -1.19749E+04
 -9.41921E+03 -1.60062E+04 -3.34524E+02 -1.94430E+04  8.21547E+03 -2.32772E+04  1.58680E+04 -1.22574E+04
  1.02222E+04  6.23908E+03 -9.43865E+03  1.25373E+04 -2.27346E+04 -6.89471E+03 -8.71348E+03 -3.68732E+04
  2.59789E+04 -4.62522E+04  5.17389E+04 -2.13218E+04  4.89705E+04  2.08160E+04  1.73624E+04  4.67568E+04
 -1.66869E+04  3.66031E+04 -2.72806E+04  3.07660E+03 -1.19675E+04 -2.91817E+04  2.17990E+04 -3.65752E+04
  4.42422E+04 -1.11096E+04  3.93008E+04  2.52101E+04  2.12738E+04  5.05021E+04 -7.59236E+03  5.69450E+04
 -3.50536E+04  3.78589E+04 -4.74328E+04  1.07830E+04 -4.77110E+04 -1.88334E+04 -2.57972E+04 -4.22205E+04
  8.22973E+03 -4.22147E+04  3.40294E+04 -1.71691E+04  3.27602E+04  1.12595E+04  5.09087E+03  2.05879E+04
 -1.43593E+04  9.35221E+03 -1.06617E+04 -7.42517E+03  5.44409E+03 -1.08699E+04  1.91831E+04  5.99937E+03
  1.39310E+04  2.27557E+04 -4.93637E+03  2.67952E+04 -2.35877E+04  1.47228E+04 -3.16238E+04 -3.53169E+03
 -2.55537E+04 -1.88599E+04 -1.12699E+04 -2.40432E+04  4.41181E+03 -2.56274E+04  1.89606E+04 -2.24587E+04
  3.22340E+04 -1.34615E+04  3.71339E+04  5.18122E+03  2.67134E+04  2.48095E+04  4.66287E+03  4.10975E+04
 -2.01973E+04  3.36445E+04 -3.10889E+04  1.16427E+04 -2.28774E+04 -1.00389E+04 -5.24860E+03 -1.30731E+04
  1.58617E+03 -1.19363E+03 -7.65713E+03  8.30423E+03 -2.06982E+04  4.18491E+03 -2.05701E+04 -9.28550E+03
 -1.08930E+04 -2.35794E+04  5.70718E+03 -2.67612E+04  1.88478E+04 -1.93454E+04  2.30028E+04 -1.75296E+03
  1.42880E+04  1.57500E+04 -1.00093E+03  2.27748E+04 -1.66330E+04  1.20211E+04 -2.36724E+04 -4.55856E+03
 -1.73379E+04 -2.04328E+04 -2.58243E+03 -2.76881E+04  1.30339E+04 -2.23229E+04  2.36096E+04 -1.16215E+04
  2.24840E+04 -7.48143E+02  1.55806E+04  4.24825E+03  8.85972E+03  1.34903E+03  1.21924E+04 -1.71145E+03
  2.19970E+04  3.02564E+03  2.63489E+04  1.81255E+04  1.73157E+04  3.77170E+04 -2.68298E+03  4.40426E+04
 -2.51610E+04  3.65349E+04 -4.10424E+04  1.89289E+04 -4.40491E+04 -3.49961E+03 -3.57525E+04 -2.56594E+04
 -1.42142E+04 -3.69713E+04  1.32635E+04 -3.24120E+04  2.76146E+04 -1.53446E+04  2.38287E+04  7.59140E+03
  7.62339E+03  1.88452E+04 -1.12235E+04  1.51507E+04 -2.06808E+04  2.68631E+03 -1.54469E+04 -1.34978E+04
 -6.05839E+02 -1.84763E+04  1.03234E+04 -1.38770E+04  1.30026E+04 -1.00951E+03  3.51983E+03  9.64739E+03
 -8.64136E+03  3.18490E+03 -9.31322E+03 -7.12358E+03 -1.42937E+03 -1.80157E+04  1.16578E+04 -2.01128E+04
  2.32245E+04 -1.13753E+04  2.66854E+04  3.27008E+03  2.26276E+04  1.82213E+04  1.10006E+04  3.01265E+04
 -5.73031E+03  3.03386E+04 -2.00050E+04  1.94043E+04 -2.33162E+04  4.50382E+03 -1.55110E+04 -6.21230E+03
 -6.50485E+03 -7.20570E+03 -2.79690E+02  3.77607E+02 -4.04424E+03  3.52496E+03 -7.26893E+03  5.95866E+03
 -1.44296E+04 -1.08257E+03 -1.50009E+04 -1.10459E+04 -6.57855E+03 -1.94374E+04  5.73122E+03 -1.57972E+04
  1.25038E+04 -6.61688E+03  9.55348E+03  3.71050E+03 -8.71407E+02  6.12573E+03 -7.24253E+03 -3.74592E+02
 -7.51444E+03 -1.02701E+04 -2.95935E+02 -1.59206E+04  9.52173E+03 -1.75272E+04  2.04079E+04 -8.35755E+03
  2.39354E+04  2.20311E+03  1.77984E+04  1.44400E+04  3.11540E+03  1.91302E+04 -9.41018E+03  1.55836E+04
 -1.26916E+04  3.56040E+03 -6.45289E+03 -4.06812E+03  2.89290E+03 -4.18123E+03  7.90339E+03 -1.29145E+03
  7.40293E+03  7.04819E+03  1.41974E+03  1.27500E+04 -8.80073E+03  1.21998E+04 -1.53715E+04  2.14612E+03
 -1.08870E+04 -8.17653E+03 -6.51000E+02 -1.38460E+04  9.41063E+03 -6.25348E+03  9.23560E+03  3.36258E+03
  2.72927E+03  1.07502E+04 -8.86477E+03  1.13478E+04 -1.34590E+04  5.47805E+03 -1.34541E+04 -5.05869E+03
 -8.28961E+03 -1.56195E+04  3.37054E+03 -1.77213E+04  1.49097E+04 -1.12490E+04  1.71196E+04  2.63578E+03
  9.43691E+03  1.30013E+04 -1.73704E+03  1.54316E+04 -1.14471E+04  8.84602E+03 -1.23356E+04 -8.82497E+01
 -1.11714E+04 -1.11417E+04 -2.17101E+03 -1.18455E+04  6.32000E+03 -9.51955E+03  7.69426E+03 -3.81086E+03
  4.41650E+03  2.40586E+03 -8.06497E+02  1.90387E+03 -1.04290E+03 -3.68934E+03  2.61675E+03 -6.57825E+03
  1.16702E+04 -5.18584E+03  1.56206E+04  2.05666E+03  1.57025E+04  1.11743E+04  1.04186E+04  2.04384E+04
 -5.57667E+03  2.40834E+04 -1.97760E+04  1.79198E+04 -2.57868E+04  3.32598E+03 -2.08216E+04 -8.87946E+03
 -1.08826E+04 -1.74321E+04  3.73341E+02 -1.45494E+04  4.66438E+03 -7.75660E+03  5.84390E+03 -5.64380E+03
  3.57410E+03 -2.35871E+03  4.17055E+03 -4.22271E+03  5.05838E+03 -2.95245E+03  8.16197E+03 -1.92029E+03
  1.09495E+04  2.72144E+03  5.76316E+03  9.43007E+03 -2.10418E+03  1.12917E+04 -1.17476E+04  9.87102E+03
 -1.44420E+04 -1.12346E+03 -9.59586E+03 -1.05975E+04 -9.84859E+02 -1.57062E+04  8.72736E+03 -1.58779E+04
  1.60684E+04 -9.02899E+03  2.00652E+04  2.93527E+03  1.29489E+04  1.32154E+04  2.71330E+03  1.79951E+04
 -7.74893E+03  1.43489E+04 -9.87627E+03  5.27247E+03 -7.46324E+03 -2.32947E+03 -2.34090E+03 -2.41643E+03
 -8.61173E+02 -7.19507E+02 -1.66109E+03  1.97213E+03 -6.78705E+03  1.75094E+03 -1.04858E+04 -1.61734E+03
 -7.59700E+03 -1.05458E+04 -4.55129E+02 -1.47308E+04  8.92243E+03 -1.35856E+04  1.47571E+04 -4.10757E+03
  1.49709E+04  7.04159E+03  7.05756E+03  1.32180E+04 -2.99426E+03  1.51781E+04 -1.08422E+04  9.32090E+03
 -1.41876E+04  5.56426E+02 -1.10365E+04 -9.14484E+03 -8.20999E+02 -1.25651E+04  5.95649E+03 -9.34843E+03
  8.52149E+03 -2.78899E+03  5.96851E+03  2.54592E+03  1.96983E+03  4.36759E+03  7.44045E+02  1.56914E+03
  2.83401E+03  1.12101E+03  3.31909E+03  1.30856E+03  3.89652E+03  4.47595E+03  3.81314E+03  7.69668E+03
 -2.11565E+03  1.13857E+04 -9.94240E+03  1.11727E+04 -1.50546E+04  2.75113E+03 -1.54246E+04 -6.22118E+03
 -7.60833E+03 -1.45266E+04  1.92407E+03 -1.74887E+04  9.42307E+03 -1.01998E+04  1.27538E+04 -3.48526E+03
  9.01269E+03  6.18904E+03  1.50139E+03  9.14647E+03 -3.70495E+03  4.23280E+03 -5.05280E+03 -1.28172E+03
 -3.31524E+03 -7.21319E+03  4.03708E+03 -6.59743E+03  6.01796E+03 -2.92290E+03  6.40420E+03  9.86220E+02
  4.19620E+03  3.15141E+03  1.63580E+03  2.20228E+03 -9.86204E+02  2.28485E+03  2.07480E+03 -1.05617E+03
  2.58208E+03 -1.03714E+03  6.02512E+03  2.37998E+03  3.09526E+03  8.71041E+03 -8.19314E+02  1.04738E+04
 -7.82481E+03  7.97252E+03 -9.47799E+03  2.27492E+03 -8.48466E+03 -3.73459E+03 -3.13798E+03 -5.61681E+03
  8.16783E+02 -6.05912E+03  3.08242E+03 -3.99191E+03  2.94529E+03  2.91704E+03 -1.19075E+03  4.69725E+03
 -6.54427E+03  2.91500E+03 -7.15951E+03 -3.10357E+03 -4.37331E+03 -8.19729E+03  1.40089E+03 -8.13703E+03
  4.37572E+03 -4.91527E+03  6.25361E+03 -6.70013E+02  4.14349E+03  1.38170E+03  1.27295E+03  3.52829E+03
 -3.47654E+03  8.56645E+02 -4.02739E+03 -3.03545E+03  9.12102E+02 -6.40630E+03  7.26682E+03 -5.07156E+03
  1.04175E+04  5.79084E+02  9.31512E+03  6.10198E+03  3.14688E+03  1.02406E+04 -2.96737E+03  9.49968E+03
 -7.02346E+03  4.28041E+03 -8.79753E+03 -1.42993E+03 -4.50173E+03 -6.90707E+03  1.29333E+03 -5.48697E+03
  6.38687E+03 -3.74859E+03  4.64475E+03  3.40392E+03  1.30135E+03  6.03645E+03 -1.13562E+03  5.22336E+03
 -3.60471E+03  2.73054E+03 -2.33095E+03  3.36971E+02 -1.44957E+03  1.83478E+03 -1.35919E+03  2.49648E+03
 -2.23598E+03  3.58456E+03 -7.51913E+03  3.85426E+03 -1.00080E+04  1.21952E+02 -1.14466E+04 -6.16359E+03
 -6.33109E+03 -1.33841E+04  1.94692E+03 -1.56564E+04  1.01830E+04 -1.16601E+04  1.37623E+04 -4.59124E+03
  1.32767E+04  2.21415E+03  8.42714E+03  9.34250E+03  1.31487E+03  1.08297E+04 -3.35381E+03  8.43666E+03
 -5.99851E+03  3.22224E+03 -3.14596E+03 -9.93669E+02 -1.36991E+03 -1.33289E+03 -8.90106E+02 -4.31891E+02
 -1.47267E+03  2.72701E+02 -2.17647E+03  1.24474E+02 -7.13593E+02 -2.79958E+03  5.29551E+02 -3.58125E+03
  4.61343E+03 -3.75642E+03  6.43249E+03  6.76335E+02  7.85545E+03  5.29384E+03  1.73051E+03  1.07107E+04
 -5.27680E+03  1.19195E+04 -1.08910E+04  6.35418E+03 -1.21311E+04 -1.03740E+03 -9.60357E+03 -8.28048E+03
 -4.78804E+03 -1.08496E+04  2.51354E+03 -1.05691E+04  6.62043E+03 -5.07159E+03  6.70020E+03 -2.26481E+02
  3.77332E+03  4.02020E+03 -8.46259E+02  2.57148E+03 -1.53564E+03 -9.08550E+02  1.06523E+02 -2.66370E+03
  2.28963E+03 -7.35332E+02  4.71735E+03  1.83543E+03  2.13096E+03  3.72927E+03  5.88950E+02  5.97329E+03
 -4.54651E+03  4.81594E+03 -7.46659E+03  7.84409E+02 -5.53106E+03 -4.10359E+03 -2.00500E+03 -9.90244E+03
  4.64560E+03 -7.74308E+03  8.08686E+03 -2.45575E+03  8.41007E+03  2.32881E+03  5.14003E+03  6.34437E+03
  1.03431E+03  6.16867E+03 -2.12058E+03  5.36897E+03 -4.34148E+03  3.08277E+03 -3.66204E+03  6.08783E+01
 -1.67760E+03 -3.99033E+02 -2.27548E+03  1.82315E+03 -3.94361E+03  6.02002E+02 -5.33354E+03 -1.37152E+03
 -5.04602E+03 -3.42006E+03 -1.63498E+03 -6.74237E+03  3.05295E+03 -7.96007E+03  5.58692E+03 -3.08089E+03
  6.16846E+03  1.11676E+03  4.30943E+03  4.96685E+03 -1.10692E+03  7.60339E+03 -4.99693E+03  4.33589E+03
