 $NMID ID='MM_0lb_SNR400_7hz_g55_33.RAW', FMTDAT='(8E13.5)'
 TRAMP=1., VOLUME=1. $END
  3.10565E+05  1.04601E+03  3.38487E+05  2.51223E+05  8.55083E+04  3.38155E+05 -1.32443E+05  2.52105E+05
 -1.91463E+05  8.39640E+04 -1.13200E+05 -3.20981E+04  1.84381E+02 -5.15341E+04  5.40173E+04 -4.72615E+02
  3.64226E+04  5.36028E+04 -1.71110E+04  7.69699E+04 -6.19475E+04  6.52457E+04 -8.62137E+04  3.23303E+04
 -8.25209E+04 -1.12747E+04 -5.89060E+04 -5.38421E+04 -1.46683E+04 -7.15880E+04  2.85521E+04 -4.62138E+04
  4.17725E+04  3.21053E+03  1.71708E+04  4.89414E+04 -3.47212E+04  4.87288E+04 -6.80037E+04  9.47475E+02
 -5.55862E+04 -5.83920E+04 -8.28343E+03 -8.02131E+04  3.49733E+04 -5.77299E+04  5.07256E+04 -1.76090E+04
  4.67203E+04  1.13354E+04  3.38562E+04  2.67258E+04  1.64233E+04  3.06739E+04 -5.92211E+03  2.82343E+04
 -2.22885E+04  1.20714E+04 -1.87172E+04 -5.07872E+03  8.03545E+03 -7.67350E+03  2.52475E+04  1.29104E+04
  6.56794E+03  3.90578E+04 -3.50142E+04  3.74463E+04 -6.74595E+04  1.23875E+03 -6.03652E+04 -4.50992E+04
 -1.26651E+04 -6.71225E+04  4.18945E+04 -4.85517E+04  6.34544E+04 -2.26421E+03  3.78288E+04  3.51782E+04
 -5.37821E+03  4.10723E+04 -3.31461E+04  2.04590E+04 -3.48110E+04 -2.80025E+03 -2.13019E+04 -1.27957E+04
 -1.06864E+04 -1.56810E+04  2.92947E+02 -2.08822E+04  9.07255E+03 -2.42259E+04  1.59209E+04 -1.14755E+04
  1.00077E+04  6.21743E+03 -1.10908E+04  1.27989E+04 -2.43647E+04 -7.12328E+03 -8.51010E+03 -4.06745E+04
  2.63630E+04 -4.78593E+04  5.39690E+04 -2.09658E+04  4.94889E+04  2.09126E+04  1.82663E+04  4.89013E+04
 -1.71265E+04  3.77184E+04 -2.92724E+04  2.84144E+03 -1.21293E+04 -2.98840E+04  2.21779E+04 -3.82879E+04
  4.60314E+04 -1.18217E+04  4.25994E+04  2.58892E+04  2.28576E+04  5.31693E+04 -8.41319E+03  5.98322E+04
 -3.74492E+04  4.10138E+04 -5.02795E+04  1.11420E+04 -4.96913E+04 -1.94224E+04 -2.70094E+04 -4.45962E+04
  8.47303E+03 -4.42534E+04  3.53025E+04 -1.88812E+04  3.34352E+04  1.09450E+04  5.44342E+03  2.23797E+04
 -1.39605E+04  1.06623E+04 -1.14942E+04 -7.68589E+03  4.97235E+03 -1.19004E+04  1.94790E+04  4.49092E+03
  1.55650E+04  2.30836E+04 -5.18992E+03  2.77720E+04 -2.40263E+04  1.59728E+04 -3.27533E+04 -2.51852E+03
 -2.81854E+04 -1.80355E+04 -1.42984E+04 -2.66395E+04  4.55596E+03 -2.86804E+04  2.15399E+04 -2.55312E+04
  3.52129E+04 -1.52198E+04  4.14481E+04  5.43117E+03  2.92018E+04  2.70948E+04  3.31981E+03  4.41737E+04
 -2.10033E+04  3.56038E+04 -3.14762E+04  1.23040E+04 -2.30877E+04 -1.06113E+04 -4.95326E+03 -1.23620E+04
  3.52302E+02 -5.48536E+02 -9.01938E+03  9.08437E+03 -2.28108E+04  4.31478E+03 -2.19827E+04 -1.11865E+04
 -1.26524E+04 -2.62137E+04  6.66175E+03 -2.96171E+04  2.00560E+04 -2.15145E+04  2.52624E+04 -2.68875E+03
  1.63221E+04  1.66494E+04 -1.24915E+03  2.52365E+04 -1.86028E+04  1.52678E+04 -2.62475E+04 -4.76871E+03
 -1.85059E+04 -2.33101E+04 -1.94740E+03 -3.13345E+04  1.39204E+04 -2.63808E+04  2.56906E+04 -1.37300E+04
  2.45397E+04 -8.90743E+02  1.66089E+04  6.46652E+03  9.24854E+03  2.51957E+03  1.34318E+04 -1.44911E+03
  2.57180E+04  2.51392E+03  2.88518E+04  2.03406E+04  1.96883E+04  4.14214E+04 -2.88851E+03  4.97132E+04
 -2.72199E+04  4.16075E+04 -4.71487E+04  2.18274E+04 -5.15772E+04 -4.10121E+03 -4.16225E+04 -2.96068E+04
 -1.54379E+04 -4.27589E+04  1.51180E+04 -3.67950E+04  3.21106E+04 -1.58422E+04  2.71362E+04  9.83616E+03
  8.57481E+03  2.04877E+04 -1.27275E+04  1.72183E+04 -2.23327E+04  2.53494E+03 -1.70760E+04 -1.48408E+04
 -1.73433E+02 -2.22865E+04  1.22411E+04 -1.57301E+04  1.45666E+04 -1.44674E+03  3.60271E+03  9.69248E+03
 -8.66312E+03  5.31314E+03 -1.04573E+04 -8.01631E+03 -2.05196E+03 -1.96252E+04  1.29431E+04 -2.25864E+04
  2.63239E+04 -1.40904E+04  3.17228E+04  4.10059E+03  2.71771E+04  2.14232E+04  1.21706E+04  3.33177E+04
 -7.13681E+03  3.60707E+04 -2.42265E+04  2.21708E+04 -2.59165E+04  4.05167E+03 -1.82956E+04 -7.44075E+03
 -7.84113E+03 -8.49943E+03  4.62920E+01 -5.11658E+02 -3.10556E+03  3.85880E+03 -9.38462E+03  6.97614E+03
 -1.64874E+04 -1.61026E+03 -1.71288E+04 -1.33286E+04 -7.57776E+03 -2.16107E+04  6.97462E+03 -1.80032E+04
  1.43981E+04 -7.62745E+03  1.04173E+04  5.26674E+03 -1.09714E+03  7.46006E+03 -1.06533E+04 -2.44063E+02
 -9.15378E+03 -1.17684E+04 -5.32731E+02 -1.79116E+04  1.13212E+04 -1.85436E+04  2.33695E+04 -1.05799E+04
  2.67410E+04  3.93777E+03  2.05687E+04  1.71640E+04  4.63288E+03  2.24660E+04 -1.08307E+04  1.76490E+04
 -1.52049E+04  4.66677E+03 -8.01100E+03 -4.57213E+03  2.88707E+03 -4.80079E+03  1.02805E+04 -1.10420E+03
  8.36793E+03  8.31931E+03  2.22296E+02  1.49341E+04 -1.07683E+04  1.38829E+04 -1.80951E+04  3.35543E+03
 -1.30315E+04 -9.59549E+03 -1.33014E+03 -1.56443E+04  1.08548E+04 -8.85200E+03  1.17876E+04  5.92652E+03
  2.73389E+03  1.25805E+04 -8.89018E+03  1.39198E+04 -1.71189E+04  5.66347E+03 -1.78896E+04 -6.61232E+03
 -9.67039E+03 -1.86384E+04  4.22377E+03 -2.28952E+04  1.86009E+04 -1.27655E+04  2.13873E+04  3.61101E+03
  1.13732E+04  1.65516E+04 -1.67927E+03  1.87688E+04 -1.45140E+04  1.08372E+04 -1.53560E+04 -2.48005E+03
 -1.19245E+04 -1.27335E+04 -1.49657E+03 -1.51169E+04  7.28787E+03 -1.18175E+04  8.35335E+03 -3.50317E+03
  5.45185E+03  2.61420E+03 -1.71299E+03  1.86572E+03 -5.19507E+02 -4.89131E+03  4.24035E+03 -9.27507E+03
  1.41045E+04 -5.90063E+03  2.11519E+04  1.96097E+03  2.02810E+04  1.39206E+04  1.20590E+04  2.57502E+04
 -5.57069E+03  3.04088E+04 -2.44956E+04  2.20147E+04 -3.06984E+04  4.39999E+03 -2.58298E+04 -1.14148E+04
 -1.32453E+04 -2.11086E+04 -8.50628E+02 -1.78504E+04  6.37875E+03 -1.10836E+04  6.78905E+03 -6.06736E+03
  4.86815E+03 -3.50273E+03  4.94278E+03 -4.60883E+03  6.43608E+03 -5.06831E+03  1.03076E+04 -2.10475E+03
  1.27022E+04  2.26376E+03  8.48682E+03  1.12595E+04 -1.69879E+03  1.45220E+04 -1.36797E+04  1.04575E+04
 -1.86394E+04 -8.35270E+02 -1.22528E+04 -1.34741E+04 -1.59607E+03 -2.06950E+04  1.09804E+04 -2.02455E+04
  2.16665E+04 -1.17227E+04  2.46068E+04  3.71723E+03  1.74983E+04  1.81356E+04  2.63714E+03  2.36508E+04
 -9.26149E+03  1.76862E+04 -1.30123E+04  6.02081E+03 -9.38193E+03 -3.30028E+03 -3.74886E+03 -4.04609E+03
 -2.12979E+03 -4.76171E+02 -2.42050E+03  3.64695E+03 -6.85144E+03  2.36204E+03 -1.25699E+04 -2.58178E+03
 -9.51575E+03 -1.24358E+04 -8.61974E+02 -1.98412E+04  1.30495E+04 -1.82774E+04  1.89533E+04 -6.28534E+03
  1.93983E+04  9.70481E+03  8.56249E+03  1.73529E+04 -3.91214E+03  1.89611E+04 -1.44079E+04  1.20674E+04
 -1.84727E+04  1.60960E+03 -1.38880E+04 -1.27147E+04 -2.78669E+03 -1.58929E+04  8.73355E+03 -1.20916E+04
  1.26696E+04 -3.14636E+03  8.36683E+03  4.24007E+03  2.82071E+03  4.88335E+03  2.06124E+03  2.15841E+03
  2.27413E+03  6.71476E+02  4.06329E+03  2.58889E+03  5.90721E+03  5.75280E+03  4.53459E+03  1.05232E+04
 -3.69694E+03  1.58118E+04 -1.37412E+04  1.49255E+04 -2.16257E+04  4.17952E+03 -2.12385E+04 -9.42576E+03
 -1.08583E+04 -2.03626E+04  3.06941E+03 -2.18504E+04  1.25638E+04 -1.43325E+04  1.67034E+04 -3.70110E+03
  1.22201E+04  6.77677E+03  3.24716E+03  1.19630E+04 -5.47384E+03  7.57936E+03 -8.36846E+03 -1.83227E+03
 -4.45268E+03 -8.61565E+03  4.08649E+03 -8.69631E+03  8.31562E+03 -3.84689E+03  8.01410E+03  2.11825E+03
  5.70027E+03  4.62418E+03  1.83922E+03  3.04420E+03 -3.74905E+02  2.37160E+03  8.37253E+02 -1.01249E+03
  3.27621E+03 -2.10017E+03  7.81577E+03  4.04401E+03  5.84596E+03  1.20295E+04 -2.26193E+03  1.46641E+04
 -9.04996E+03  1.00954E+04 -1.36100E+04  3.54158E+03 -1.20129E+04 -4.33212E+03 -4.54757E+03 -7.84578E+03
  1.53914E+03 -7.96603E+03  5.39076E+03 -3.84422E+03  4.78845E+03  4.05397E+03 -2.23124E+03  6.32020E+03
 -7.84298E+03  3.97304E+03 -1.05862E+04 -3.57415E+03 -5.35800E+03 -1.07690E+04  1.91160E+03 -1.21022E+04
  6.64097E+03 -6.06379E+03  8.94112E+03 -2.72592E+02  5.94521E+03  3.47358E+03  1.60664E+03  6.84862E+03
 -3.27939E+03  9.80723E+02 -5.26649E+03 -4.66530E+03  2.50344E+03 -8.48628E+03  1.02937E+04 -6.52068E+03
  1.31575E+04  1.85501E+02  1.25343E+04  9.95234E+03  3.51637E+03  1.41902E+04 -4.64702E+03  1.38348E+04
 -1.16896E+04  6.99843E+03 -1.12497E+04 -1.87758E+03 -7.64507E+03 -8.56525E+03  1.73436E+03 -9.04279E+03
  8.75123E+03 -4.24150E+03  7.21426E+03  3.64383E+03  1.68642E+03  7.27467E+03 -1.88605E+03  6.98474E+03
 -3.37371E+03  4.04377E+03 -3.21037E+03  1.26418E+03 -1.72041E+03  1.76132E+03 -2.69768E+03  3.09828E+03
 -3.86939E+03  4.98115E+03 -1.01887E+04  5.30014E+03 -1.39668E+04 -2.42656E+02 -1.57881E+04 -8.98346E+03
 -8.32089E+03 -1.89359E+04  3.47281E+03 -2.19907E+04  1.43504E+04 -1.70503E+04  2.06017E+04 -6.37797E+03
  1.96555E+04  4.57998E+03  1.25515E+04  1.25945E+04  2.15518E+03  1.52783E+04 -5.89685E+03  1.05324E+04
 -8.68227E+03  4.54908E+03 -6.12855E+03 -2.48590E+03 -1.85873E+03 -1.40998E+03 -7.75321E+02 -9.62174E+02
 -1.21891E+03  5.51974E+02 -2.77887E+03 -8.51507E+02 -1.04804E+03 -4.02514E+03  6.49117E+02 -4.59971E+03
  5.97482E+03 -4.32293E+03  9.34049E+03  2.51892E+02  1.05315E+04  8.19076E+03  2.84823E+03  1.44368E+04
 -7.04405E+03  1.77785E+04 -1.74083E+04  1.01284E+04 -1.88457E+04 -1.65508E+03 -1.41120E+04 -1.21398E+04
 -5.59540E+03 -1.60656E+04  4.55355E+03 -1.48014E+04  1.08144E+04 -8.36952E+03  9.50340E+03  7.35999E+02
  5.93935E+03  4.50880E+03 -7.16337E+02  5.18738E+03 -3.54392E+03 -7.14438E+02  3.42459E+02 -2.34037E+03
  5.46049E+03 -1.85552E+03  6.65198E+03  1.94906E+03  3.86159E+03  6.48349E+03  4.13021E+02  9.44476E+03
 -6.95060E+03  6.87312E+03 -1.10574E+04  6.31538E+02 -8.18098E+03 -7.11345E+03 -1.82770E+03 -1.32918E+04
  6.88397E+03 -1.13508E+04  1.24532E+04 -3.53617E+03  1.23345E+04  3.16549E+03  7.25328E+03  1.00521E+04
  1.04149E+03  1.01817E+04 -4.18858E+03  8.03978E+03 -6.29538E+03  5.22802E+03 -5.66704E+03  7.13357E+02
 -3.42232E+03 -7.40513E+02 -2.87717E+03  1.65116E+03 -5.86434E+03  1.21290E+03 -8.52240E+03 -1.53572E+03
 -7.35992E+03 -6.31427E+03 -2.19350E+03 -1.09463E+04  5.32408E+03 -1.12392E+04  9.42510E+03 -5.85580E+03
  1.12064E+04  1.86794E+03  6.60115E+03  8.78103E+03 -1.40286E+03  1.07378E+04 -9.11428E+03  6.21752E+03
