 $NMID ID='MM_0lb_SNR400_15hz_g55_88.RAW', FMTDAT='(8E13.5)'
 TRAMP=1., VOLUME=1. $END
  3.10562E+05  2.82733E+02  3.38191E+05  2.50078E+05  8.44868E+04  3.38216E+05 -1.32130E+05  2.50657E+05
 -1.90344E+05  8.27492E+04 -1.11918E+05 -3.26560E+04  7.72539E+02 -5.05926E+04  5.41384E+04 -3.94150E+02
  3.55148E+04  5.28623E+04 -1.69673E+04  7.59155E+04 -6.11301E+04  6.36998E+04 -8.44112E+04  3.19486E+04
 -8.11506E+04 -1.16513E+04 -5.72902E+04 -5.16633E+04 -1.46409E+04 -6.95998E+04  2.78517E+04 -4.58197E+04
  4.02962E+04  3.85893E+03  1.56117E+04  4.77456E+04 -3.44023E+04  4.76851E+04 -6.66350E+04 -5.20964E+02
 -5.40286E+04 -5.69442E+04 -6.48821E+03 -7.72677E+04  3.45420E+04 -5.53404E+04  4.76334E+04 -1.73081E+04
  4.36524E+04  1.17259E+04  3.22028E+04  2.57593E+04  1.57755E+04  2.94070E+04 -5.33451E+03  2.73539E+04
 -2.20253E+04  1.24928E+04 -1.81021E+04 -5.01394E+03  5.98297E+03 -7.56123E+03  2.29170E+04  1.24491E+04
  7.40479E+03  3.58523E+04 -3.18076E+04  3.58364E+04 -6.39650E+04  2.17848E+03 -5.62598E+04 -4.29773E+04
 -1.23451E+04 -6.32079E+04  3.96652E+04 -4.56638E+04  5.82447E+04 -1.87635E+03  3.38425E+04  3.24322E+04
 -6.06898E+03  3.58858E+04 -3.06042E+04  1.59182E+04 -3.06557E+04 -4.71698E+03 -1.69552E+04 -1.14154E+04
 -8.00283E+03 -1.35723E+04 -6.13045E+02 -1.81239E+04  7.03445E+03 -2.28001E+04  1.50373E+04 -1.31676E+04
  1.14165E+04  4.55075E+03 -8.11941E+03  1.30941E+04 -2.17177E+04 -4.52163E+03 -8.33536E+03 -3.36387E+04
  2.30593E+04 -4.34903E+04  4.83154E+04 -1.99328E+04  4.55157E+04  1.92777E+04  1.53630E+04  4.38102E+04
 -1.65050E+04  3.37363E+04 -2.52841E+04  1.80908E+03 -9.84875E+03 -2.77487E+04  2.15259E+04 -3.40683E+04
  4.15389E+04 -8.80905E+03  3.51736E+04  2.40873E+04  1.81246E+04  4.65805E+04 -7.96149E+03  5.05243E+04
 -3.14900E+04  3.39746E+04 -4.17050E+04  9.46587E+03 -4.21605E+04 -1.70345E+04 -2.36571E+04 -3.79070E+04
  7.56869E+03 -3.71868E+04  3.11835E+04 -1.48578E+04  2.95446E+04  1.10443E+04  3.70194E+03  1.95216E+04
 -1.31998E+04  8.38491E+03 -1.02822E+04 -6.95175E+03  6.20400E+03 -1.06074E+04  1.79971E+04  6.30903E+03
  1.33399E+04  2.20264E+04 -6.28373E+03  2.48125E+04 -2.21876E+04  1.16933E+04 -2.84489E+04 -4.35342E+03
 -2.02875E+04 -1.70778E+04 -8.57742E+03 -2.00051E+04  3.91592E+03 -1.94529E+04  1.53875E+04 -1.87759E+04
  2.58928E+04 -1.30586E+04  3.26184E+04  3.02551E+03  2.37496E+04  2.04008E+04  4.01240E+03  3.63522E+04
 -1.75797E+04  3.02233E+04 -2.75914E+04  1.05357E+04 -2.12994E+04 -1.05627E+04 -4.49668E+03 -1.38785E+04
  1.98775E+03 -2.64262E+03 -4.86152E+03  7.04990E+03 -1.63910E+04  5.02341E+03 -1.72803E+04 -7.22807E+03
 -9.74086E+03 -1.93339E+04  5.30283E+03 -2.23365E+04  1.51291E+04 -1.68276E+04  1.77509E+04 -1.52578E+03
  1.12550E+04  1.36358E+04 -6.78169E+02  1.88469E+04 -1.34939E+04  1.07763E+04 -1.89147E+04 -4.30381E+03
 -1.33546E+04 -1.69981E+04 -2.01747E+03 -2.32911E+04  1.04542E+04 -1.85192E+04  1.92775E+04 -9.11750E+03
  1.81388E+04  3.86457E+02  1.23645E+04  4.22843E+03  6.71464E+03  7.52150E+02  1.00586E+04 -1.15360E+03
  1.68943E+04  2.74929E+03  1.84812E+04  1.51033E+04  1.23313E+04  2.99518E+04 -2.60209E+03  3.32600E+04
 -1.95199E+04  2.72667E+04 -3.12649E+04  1.32181E+04 -3.35495E+04 -2.32972E+03 -2.70211E+04 -1.89099E+04
 -1.19892E+04 -2.67951E+04  9.84241E+03 -2.49634E+04  2.06255E+04 -1.29232E+04  1.88548E+04  5.82073E+03
  7.05778E+03  1.43473E+04 -8.77676E+03  1.25647E+04 -1.61901E+04  2.41618E+03 -1.26129E+04 -1.01329E+04
 -9.85919E+02 -1.53972E+04  7.98119E+03 -1.15788E+04  1.00966E+04 -1.52792E+03  2.56016E+03  6.52491E+03
 -6.64220E+03  2.94416E+03 -5.68363E+03 -5.02724E+03 -3.37433E+02 -1.35312E+04  9.67385E+03 -1.35716E+04
  1.61965E+04 -7.08753E+03  1.75192E+04  3.00751E+03  1.58782E+04  1.26834E+04  7.68247E+03  1.99671E+04
 -2.65270E+03  2.12585E+04 -1.43612E+04  1.35323E+04 -1.62697E+04  3.67358E+03 -1.12903E+04 -3.83465E+03
 -5.11607E+03 -4.74398E+03 -6.55702E+02  1.65588E+03 -2.70677E+03  2.28239E+03 -5.31811E+03  3.95592E+03
 -1.04207E+04 -7.64927E+02 -1.10790E+04 -8.77835E+03 -4.80843E+03 -1.43008E+04  5.20575E+03 -1.10250E+04
  9.27876E+03 -5.21540E+03  7.37938E+03  2.66551E+03  8.41618E+02  4.79594E+03 -5.13313E+03 -2.28782E+02
 -4.58240E+03 -7.24545E+03 -5.12320E+02 -9.54148E+03  6.36257E+03 -1.11046E+04  1.32881E+04 -5.68761E+03
  1.57329E+04  1.35989E+03  1.17104E+04  8.98316E+03  2.36938E+03  1.22887E+04 -6.27047E+03  1.08318E+04
 -9.38654E+03  3.12202E+03 -4.19742E+03 -1.89413E+03  1.11817E+03 -3.11070E+03  5.28807E+03 -8.29215E+02
  5.31757E+03  4.23865E+03  1.41832E+03  8.41858E+03 -6.24897E+03  7.91167E+03 -1.11927E+04  2.84116E+03
 -6.93961E+03 -4.96045E+03 -2.83171E+02 -9.12559E+03  6.18394E+03 -4.22493E+03  5.73749E+03  2.15139E+03
  1.14869E+03  5.90119E+03 -5.30940E+03  6.99788E+03 -7.83431E+03  3.18897E+03 -8.31988E+03 -2.27534E+03
 -4.71490E+03 -9.71433E+03  2.46024E+03 -1.14796E+04  9.35400E+03 -6.68513E+03  1.03789E+04  1.36291E+03
  6.36518E+03  7.56635E+03 -4.67472E+02  1.07625E+04 -7.55138E+03  5.80939E+03 -7.11681E+03 -7.92137E+01
 -7.17682E+03 -6.94521E+03 -1.02605E+03 -6.93837E+03  3.95756E+03 -6.04456E+03  5.10655E+03 -2.61253E+03
  3.85334E+03  7.42930E+02 -6.28773E+02  1.79016E+03  8.38445E+01 -1.07012E+03  7.05614E+02 -4.00029E+03
  6.14685E+03 -2.23626E+03  9.04882E+03  1.22561E+03  9.04866E+03  5.30800E+03  7.40155E+03  1.15447E+04
 -2.02911E+03  1.30758E+04 -1.14172E+04  1.00008E+04 -1.53760E+04  1.94488E+03 -1.18474E+04 -5.05346E+03
 -6.36550E+03 -9.64490E+03 -6.67929E+02 -7.73715E+03  3.00634E+03 -4.46053E+03  2.48946E+03 -3.22317E+03
  2.11162E+03 -1.49245E+03  2.32110E+03 -3.33679E+03  4.91772E+03 -1.74609E+03  5.18182E+03 -2.83135E+02
  6.14762E+03  1.57272E+03  2.76899E+03  5.34175E+03 -1.56749E+03  5.45527E+03 -5.99532E+03  4.25982E+03
 -7.91686E+03 -1.53437E+03 -4.02405E+03 -5.28596E+03 -6.68465E+02 -7.89469E+03  4.14580E+03 -8.89492E+03
  8.42675E+03 -5.27110E+03  1.00778E+04  1.25968E+03  7.45022E+03  7.59640E+03  1.76253E+03  9.23628E+03
 -4.10788E+03  8.25809E+03 -4.77981E+03  2.59162E+03 -3.25787E+03 -8.50318E+02 -1.00955E+03 -1.30487E+03
 -1.37599E+03  5.81823E+02 -1.25245E+03  2.11152E+03 -3.32963E+03  2.08553E+03 -6.30713E+03 -1.26151E+03
 -3.44287E+03 -5.35211E+03  1.91209E+02 -7.67603E+03  4.74276E+03 -7.04270E+03  6.87070E+03 -2.02459E+03
  7.12950E+03  3.45786E+03  4.08052E+03  6.04222E+03 -1.79614E+03  7.65749E+03 -5.47449E+03  4.60471E+03
 -6.50102E+03  9.28885E+02 -5.08366E+03 -4.73100E+03 -4.15598E+02 -5.44998E+03  3.22572E+03 -4.80281E+03
  4.67207E+03 -1.39808E+03  2.85536E+03  6.26012E+02  1.54951E+03  2.58263E+03  4.26823E+02  1.47393E+03
  1.91887E+03  4.54282E+02  2.26554E+03  1.23575E+03  1.98039E+03  2.93312E+03  1.47650E+03  3.22729E+03
 -2.03904E+03  5.15419E+03 -4.48719E+03  5.18281E+03 -6.40567E+03  1.34462E+03 -6.61437E+03 -2.08268E+03
 -3.03352E+03 -6.95316E+03  1.27985E+03 -8.35610E+03  3.69050E+03 -4.68698E+03  5.25143E+03 -7.60524E+02
  4.19050E+03  2.61682E+03  1.54385E+03  4.16434E+03 -1.49875E+03  2.70649E+03 -2.57299E+03  2.19870E+02
 -1.39866E+03 -2.64017E+03  1.82702E+03 -2.93559E+03  2.28188E+03 -1.80805E+03  2.26196E+03  6.71193E+02
  1.60257E+03  4.47539E+02  1.39051E+03  4.84399E+02 -3.88138E+02  1.46687E+03  1.74126E+03  2.30025E+02
  4.75412E+02 -9.23528E+02  2.48182E+03  1.19197E+03  1.97595E+03  4.29601E+03 -1.67289E+02  5.19877E+03
 -2.24594E+03  2.54473E+03 -4.18054E+03  7.66818E+02 -3.56410E+03 -1.30043E+03 -6.75323E+02 -2.41384E+03
  1.17010E+03 -2.29250E+03  1.66651E+03 -1.08816E+03  1.54949E+03  1.83606E+03 -8.69883E+02  2.37713E+03
 -2.76982E+03  1.35985E+03 -2.63845E+03 -2.15517E+03 -8.48086E+02 -3.25390E+03  2.36477E+02 -3.33915E+03
  1.53339E+03 -1.33592E+03  1.50671E+03 -3.26884E+02  1.92897E+03  1.30675E+02  5.01145E+02  2.08852E+03
 -9.19066E+02 -3.15796E+02 -1.68272E+03 -1.18601E+03  5.04309E+02 -2.34674E+03  3.19065E+03 -1.86349E+03
  3.23563E+03  1.71710E+02  3.98937E+03  1.82715E+03  1.38199E+03  4.14042E+03 -1.28484E+03  3.59535E+03
 -2.95305E+03  1.77886E+03 -2.71771E+03 -5.65704E+02 -1.55166E+03 -2.68852E+03  6.70560E+02 -2.02362E+03
  2.26993E+03 -1.13261E+03  2.24692E+03  7.62190E+02  6.83112E+02  2.63470E+03  6.95573E+02  2.09039E+03
 -1.00406E+03  8.61131E+02 -6.84889E+02  5.91779E+02  2.75913E+02  1.30798E+03 -6.64292E+02  5.00522E+02
 -1.44774E+03  2.08095E+03 -2.94241E+03  1.52746E+03 -3.72715E+03  1.53844E+02 -4.61036E+03 -1.96695E+03
 -2.20123E+03 -4.62502E+03  1.26654E+03 -5.85324E+03  2.98837E+03 -3.83232E+03  5.83724E+03 -1.56408E+03
  5.65239E+03  5.01801E+02  3.26521E+03  2.53015E+03 -7.17768E+02  3.65369E+03 -1.71926E+03  3.02003E+03
 -1.48026E+03  7.39629E+02 -6.62227E+02  1.42511E+02 -7.53893E+02  6.35088E+01 -1.71688E+03  4.48921E+01
 -1.88387E+03 -1.79852E+02 -1.10434E+03  1.32789E+02 -3.08084E+02 -5.59103E+02 -3.24036E+02 -1.71710E+03
  2.30533E+03 -7.91238E+02  1.87967E+03 -1.70193E+02  2.40721E+03  2.31457E+03  6.46076E+02  2.98249E+03
 -1.65623E+03  4.58045E+03 -3.35437E+03  2.40947E+03 -3.09736E+03  7.16385E+01 -2.57239E+03 -2.99293E+03
 -1.47302E+03 -2.99640E+03  5.50209E+02 -2.95127E+03  1.63979E+03 -5.96110E+02  1.77177E+03  7.08839E+02
  1.20275E+03  5.61967E+02  6.08182E+01  7.09058E+02 -1.37641E+03 -1.88196E+02 -1.07590E+02 -8.88309E+02
  7.06155E+02 -1.06130E+02  7.59373E+02  5.17003E+02  2.12142E+02  1.39767E+03  9.95168E+02  1.05330E+03
 -1.44208E+03  9.41832E+02 -8.52891E+02  2.93186E+02 -1.92370E+03 -1.17122E+03  1.51819E+02 -3.27800E+03
  1.50125E+03 -1.97764E+03  2.02541E+03 -5.02480E+02  2.06443E+03 -3.00304E+02  1.22190E+03  1.79736E+03
  3.28648E+02  1.23727E+03 -8.58094E+02  1.20920E+03 -1.34819E+03  1.58484E+03 -1.06885E+03  2.19418E+02
 -6.47284E+02 -3.20786E+02  4.84532E+01  1.22253E+02 -1.05226E+03  1.84239E+02 -1.44133E+03 -1.18697E+03
 -1.68830E+03 -1.11743E+03 -5.49621E+02 -2.64037E+03  8.28165E+02 -2.56542E+03  1.69100E+03 -1.31396E+03
  1.29906E+03 -5.40106E+02  4.56901E+02  8.82018E+02 -4.47039E+02  1.84627E+03 -1.52695E+03  1.51232E+03
