 $NMID ID='MM_0lb_SNR400_12hz_g40_90.RAW', FMTDAT='(8E13.5)'
 TRAMP=1., VOLUME=1. $END
  3.09455E+05  8.20405E+02  3.37569E+05  2.50600E+05  8.40026E+04  3.38036E+05 -1.32938E+05  2.52074E+05
 -1.90656E+05  8.29119E+04 -1.11737E+05 -3.29741E+04  1.80682E+02 -5.11668E+04  5.37858E+04  1.56927E+02
  3.55888E+04  5.30629E+04 -1.69565E+04  7.56999E+04 -6.13102E+04  6.38105E+04 -8.44196E+04  3.17432E+04
 -8.07330E+04 -1.17227E+04 -5.65368E+04 -5.10804E+04 -1.45062E+04 -7.01485E+04  2.72909E+04 -4.57689E+04
  4.01638E+04  3.83112E+03  1.62765E+04  4.79452E+04 -3.42505E+04  4.73428E+04 -6.72421E+04 -2.24263E+01
 -5.34714E+04 -5.64761E+04 -6.67142E+03 -7.78594E+04  3.40494E+04 -5.58094E+04  4.79275E+04 -1.71181E+04
  4.40150E+04  1.09486E+04  3.11825E+04  2.58615E+04  1.56621E+04  2.94633E+04 -5.45365E+03  2.77154E+04
 -2.24911E+04  1.14831E+04 -1.80287E+04 -4.86258E+03  6.13826E+03 -7.11067E+03  2.24794E+04  1.31754E+04
  6.72429E+03  3.54208E+04 -3.21302E+04  3.58921E+04 -6.38167E+04  2.50480E+03 -5.71230E+04 -4.31818E+04
 -1.24303E+04 -6.36307E+04  3.98915E+04 -4.59974E+04  5.81151E+04 -2.17698E+03  3.43232E+04  3.28675E+04
 -5.83693E+03  3.65566E+04 -3.05332E+04  1.57261E+04 -3.17057E+04 -4.33205E+03 -1.76063E+04 -1.11377E+04
 -8.73802E+03 -1.34902E+04 -4.45116E+02 -1.79462E+04  7.10456E+03 -2.23401E+04  1.52646E+04 -1.27940E+04
  1.14467E+04  5.02849E+03 -8.60978E+03  1.34660E+04 -2.16777E+04 -5.35149E+03 -8.55286E+03 -3.38863E+04
  2.31189E+04 -4.37038E+04  4.86156E+04 -2.00167E+04  4.50696E+04  1.99693E+04  1.61288E+04  4.47344E+04
 -1.64580E+04  3.36019E+04 -2.57653E+04  2.11275E+03 -1.00596E+04 -2.78041E+04  2.13074E+04 -3.51871E+04
  4.14850E+04 -8.76108E+03  3.61166E+04  2.36261E+04  1.92565E+04  4.72556E+04 -8.02917E+03  5.14962E+04
 -3.25470E+04  3.48621E+04 -4.34542E+04  9.60530E+03 -4.28112E+04 -1.66866E+04 -2.44000E+04 -3.88387E+04
  7.85894E+03 -3.83338E+04  3.15378E+04 -1.51674E+04  2.95457E+04  1.07479E+04  4.38258E+03  1.92968E+04
 -1.39695E+04  8.63138E+03 -1.05310E+04 -7.25942E+03  5.85204E+03 -1.04798E+04  1.78593E+04  5.89607E+03
  1.30950E+04  2.19413E+04 -5.75711E+03  2.51768E+04 -2.20277E+04  1.23185E+04 -2.92267E+04 -4.31096E+03
 -2.18608E+04 -1.76304E+04 -9.03781E+03 -2.14761E+04  3.45914E+03 -2.09460E+04  1.63737E+04 -1.89358E+04
  2.70532E+04 -1.32388E+04  3.37943E+04  2.97612E+03  2.48155E+04  2.15863E+04  4.34412E+03  3.68729E+04
 -1.78973E+04  3.10510E+04 -2.82552E+04  9.85861E+03 -2.08464E+04 -9.98874E+03 -4.35400E+03 -1.35430E+04
  1.29420E+03 -2.35478E+03 -5.90836E+03  6.54348E+03 -1.65563E+04  5.32362E+03 -1.66494E+04 -7.30336E+03
 -1.06583E+04 -2.02917E+04  5.26363E+03 -2.35581E+04  1.58788E+04 -1.69954E+04  1.90522E+04 -2.02425E+03
  1.22145E+04  1.43923E+04 -5.56330E+02  1.95275E+04 -1.45473E+04  1.14443E+04 -2.01069E+04 -3.50257E+03
 -1.45426E+04 -1.73804E+04 -2.20219E+03 -2.38270E+04  1.06569E+04 -1.92304E+04  1.98541E+04 -1.03412E+04
  1.88134E+04 -3.55382E+01  1.30637E+04  4.30099E+03  6.87082E+03  1.49653E+03  1.07377E+04 -2.07422E+03
  1.78163E+04  2.74305E+03  2.07809E+04  1.58864E+04  1.35412E+04  3.23249E+04 -2.44792E+03  3.67361E+04
 -2.14813E+04  3.00047E+04 -3.32744E+04  1.49301E+04 -3.52893E+04 -2.64836E+03 -2.96276E+04 -2.08235E+04
 -1.23296E+04 -2.93231E+04  1.04102E+04 -2.63781E+04  2.24980E+04 -1.31679E+04  1.96793E+04  6.33543E+03
  7.86550E+03  1.52720E+04 -9.37784E+03  1.33584E+04 -1.67408E+04  3.08360E+03 -1.29815E+04 -1.00878E+04
 -2.71812E+02 -1.61032E+04  8.34232E+03 -1.15348E+04  1.04120E+04 -9.47503E+02  2.96424E+03  6.92035E+03
 -7.38639E+03  2.70309E+03 -6.17080E+03 -5.89614E+03 -5.77542E+02 -1.41798E+04  1.05491E+04 -1.46761E+04
  1.84890E+04 -7.15147E+03  1.90499E+04  3.54950E+03  1.68102E+04  1.53448E+04  7.81498E+03  2.21630E+04
 -3.64319E+03  2.41902E+04 -1.51308E+04  1.55714E+04 -1.73488E+04  3.83723E+03 -1.23780E+04 -4.58526E+03
 -5.90855E+03 -5.52547E+03 -9.93408E+02  1.74455E+02 -2.24012E+03  2.49888E+03 -6.29537E+03  4.35096E+03
 -1.13620E+04 -9.01827E+02 -1.19635E+04 -9.56462E+03 -4.81245E+03 -1.57604E+04  5.10446E+03 -1.25544E+04
  1.14188E+04 -5.07834E+03  7.64547E+03  3.48369E+03  2.86225E+02  4.77076E+03 -5.57517E+03  2.12705E+02
 -5.61616E+03 -8.07165E+03 -7.86405E+02 -1.13987E+04  6.39581E+03 -1.23985E+04  1.46195E+04 -7.00248E+03
  1.76064E+04  1.42210E+03  1.30691E+04  1.08006E+04  1.98193E+03  1.40366E+04 -7.48977E+03  1.12967E+04
 -9.76762E+03  3.38949E+03 -5.25653E+03 -2.50902E+03  2.09693E+03 -3.73005E+03  6.43856E+03 -7.62357E+02
  6.12466E+03  5.24746E+03  8.49573E+02  9.38973E+03 -7.21929E+03  1.01184E+04 -1.18950E+04  2.93924E+03
 -7.71235E+03 -6.45632E+03  4.72948E+02 -9.83623E+03  6.15952E+03 -5.34334E+03  6.67374E+03  2.22949E+03
  4.08027E+02  6.86126E+03 -5.81072E+03  8.38456E+03 -9.47318E+03  3.62302E+03 -9.45211E+03 -2.29219E+03
 -5.51030E+03 -1.11662E+04  2.42341E+03 -1.29691E+04  1.05510E+04 -7.39262E+03  1.15009E+04  2.32750E+03
  7.42707E+03  9.51379E+03 -5.71253E+02  1.15974E+04 -8.32949E+03  6.14635E+03 -9.48871E+03 -1.04227E+03
 -8.37039E+03 -8.04497E+03 -1.26599E+03 -8.50849E+03  4.05710E+03 -7.45104E+03  5.63070E+03 -3.64229E+03
  3.57663E+03  1.02803E+03 -4.77366E+02  1.99298E+03  2.42044E+02 -2.62544E+03  1.05940E+03 -4.38744E+03
  7.60917E+03 -2.77105E+03  1.09673E+04  1.84999E+03  1.11913E+04  7.26188E+03  7.21115E+03  1.45950E+04
 -2.69847E+03  1.63535E+04 -1.40619E+04  1.23680E+04 -1.77937E+04  2.23109E+03 -1.53198E+04 -6.16855E+03
 -7.30308E+03 -1.14241E+04 -6.24593E+02 -1.00699E+04  4.07288E+03 -5.59593E+03  4.27835E+03 -3.80539E+03
  2.20340E+03 -2.65098E+03  2.75228E+03 -3.47100E+03  4.53876E+03 -2.21228E+03  6.25814E+03 -3.59375E+02
  7.78610E+03  2.49312E+03  3.37363E+03  5.70762E+03 -1.88571E+03  7.14848E+03 -8.47723E+03  5.14719E+03
 -9.37362E+03 -1.46241E+03 -5.85963E+03 -6.64890E+03 -8.50867E+02 -1.03145E+04  5.74177E+03 -1.11993E+04
  1.12959E+04 -5.89877E+03  1.30548E+04  1.65209E+03  9.09059E+03  9.02611E+03  1.64026E+03  1.18898E+04
 -4.76712E+03  1.00526E+04 -7.49721E+03  3.66353E+03 -4.77073E+03 -1.53422E+03 -1.56622E+03 -1.84439E+03
 -1.28082E+03 -4.87241E+02 -1.28834E+03  2.28297E+03 -4.14871E+03  1.50513E+03 -7.12183E+03 -4.91001E+02
 -4.47693E+03 -6.87447E+03 -1.12311E+02 -9.76549E+03  5.86275E+03 -9.13491E+03  8.95684E+03 -2.87552E+03
  8.90394E+03  4.89753E+03  4.27161E+03  7.76809E+03 -1.93371E+03  9.73232E+03 -7.10734E+03  6.64993E+03
 -8.80957E+03  7.31256E+02 -7.04577E+03 -5.44561E+03 -6.80716E+02 -7.21115E+03  3.80701E+03 -5.96826E+03
  6.00906E+03 -1.83341E+03  4.45640E+03  1.91284E+03  1.11858E+03  3.07649E+03  1.19132E+03  1.31252E+03
  2.86014E+03  1.41426E+03  2.12764E+03  1.22481E+03  2.47559E+03  3.51067E+03  1.60177E+03  5.34117E+03
 -1.95289E+03  7.71081E+03 -5.96196E+03  8.19576E+03 -9.52837E+03  2.29128E+03 -9.38494E+03 -3.64697E+03
 -4.26259E+03 -9.61878E+03  2.35546E+03 -1.12336E+04  5.35496E+03 -6.70565E+03  7.52561E+03 -2.03614E+03
  6.06423E+03  3.86705E+03  1.26118E+03  5.21386E+03 -1.95678E+03  3.50384E+03 -3.63170E+03 -2.66860E+02
 -1.55925E+03 -4.22194E+03  2.88628E+03 -4.16254E+03  3.97825E+03 -1.93964E+03  3.24162E+03  1.23445E+03
  1.82723E+03  1.19370E+03  1.55910E+03  1.71368E+03  1.08190E+02  1.80369E+03  1.37164E+03  2.11264E+02
  7.45559E+02 -4.79070E+02  3.75119E+03  1.20902E+03  1.46698E+03  4.66800E+03 -9.86690E+02  6.98819E+03
 -4.87617E+03  4.36056E+03 -5.95944E+03  1.42382E+03 -5.70743E+03 -2.51253E+03 -2.43755E+03 -3.65668E+03
  9.50282E+02 -3.40863E+03  2.11792E+03 -2.31923E+03  2.20249E+03  2.03539E+03 -1.09494E+03  2.45647E+03
 -3.99927E+03  1.78955E+03 -3.65590E+03 -2.59756E+03 -2.37336E+03 -5.44838E+03  6.97722E+02 -4.51802E+03
  2.90631E+03 -2.70633E+03  3.92902E+03 -9.30040E+02  2.67131E+03  1.01188E+03  2.96200E+02  3.46172E+03
 -1.46720E+03  5.73622E+02 -1.99635E+03 -1.24524E+03  1.38804E+03 -3.72872E+03  4.89618E+03 -3.64771E+03
  4.84276E+03 -5.92885E+01  5.89124E+03  4.20667E+03  1.63321E+03  6.47547E+03 -1.94273E+03  5.14975E+03
 -4.72292E+03  2.40471E+03 -5.36107E+03 -8.04194E+02 -2.98025E+03 -3.77480E+03  1.41476E+03 -3.44117E+03
  3.69086E+03 -1.11871E+03  2.81632E+03  1.19013E+03  9.29080E+02  3.32291E+03  7.74240E+01  3.03780E+03
 -1.15404E+03  2.24053E+03 -2.05613E+03  2.22639E+02 -6.93619E+02  7.53660E+02 -8.11410E+02  1.15776E+03
 -1.49295E+03  1.83548E+03 -4.56065E+03  1.95047E+03 -5.57921E+03  2.61301E+02 -6.10771E+03 -3.95881E+03
 -3.70072E+03 -7.88365E+03  1.65038E+03 -8.96972E+03  5.30218E+03 -7.13326E+03  9.03928E+03 -2.46867E+03
  7.23761E+03  1.38996E+03  4.79463E+03  5.79152E+03 -1.93844E+02  5.18135E+03 -1.48234E+03  3.95230E+03
 -3.49993E+03  1.40907E+03 -1.87350E+03 -7.64638E+02 -6.50702E+02  3.83776E+02 -5.82205E+01  2.55221E+02
 -1.59188E+03  4.42821E+02 -8.87233E+02  1.42592E+02 -1.50652E+02 -1.15119E+03 -1.83811E+02 -2.85012E+03
  2.91313E+03 -1.30073E+03  2.93125E+03 -1.49975E+02  4.02361E+03  3.50611E+03  7.45870E+02  5.60542E+03
 -1.97610E+03  7.26710E+03 -6.09424E+03  3.19969E+03 -7.04888E+03 -4.96205E+02 -4.64821E+03 -3.99923E+03
 -2.73375E+03 -5.34046E+03  1.72985E+03 -5.23835E+03  3.11527E+03 -2.67774E+03  3.56913E+03  6.68008E+02
  2.25096E+03  2.07119E+03  1.05744E+02  1.86711E+03 -1.10312E+03 -5.51246E+02 -1.20631E+02 -7.13825E+02
  1.85556E+03 -7.62864E+02  1.49607E+03  1.27813E+03  1.46166E+03  2.06844E+03  2.30785E+02  3.13596E+03
 -2.38444E+03  1.93913E+03 -3.97436E+03  6.28026E+02 -3.34184E+03 -2.39500E+03 -1.08360E+03 -4.95603E+03
  3.33152E+03 -3.10578E+03  4.31105E+03 -1.05562E+03  4.32134E+03  8.88151E+02  2.11608E+03  3.44038E+03
  3.39743E+02  3.36087E+03 -2.01270E+03  3.16761E+03 -2.33386E+03  1.99866E+03 -2.46639E+03  1.39468E+02
 -1.21858E+03 -3.49837E+02 -1.75188E+03  9.29970E+02 -2.47645E+03  7.98869E+02 -2.63961E+03 -4.21364E+02
 -2.90299E+03 -1.39525E+03 -9.06219E+02 -4.37016E+03  2.17807E+03 -4.83076E+03  3.27388E+03 -1.92372E+03
  3.89644E+03 -4.24315E+02  1.80846E+03  2.60160E+03 -8.94093E+02  3.05343E+03 -2.43061E+03  2.75772E+03
