 $NMID ID='MM_0lb_SNR400_20hz_g40_67.RAW', FMTDAT='(8E13.5)'
 TRAMP=1., VOLUME=1. $END
  3.09617E+05  3.19809E+02  3.37239E+05  2.50268E+05  8.37077E+04  3.36921E+05 -1.31616E+05  2.49912E+05
 -1.89362E+05  8.21569E+04 -1.10681E+05 -3.30420E+04  1.67265E+03 -4.97679E+04  5.36048E+04  3.40438E+02
  3.49314E+04  5.31504E+04 -1.74193E+04  7.40073E+04 -6.01225E+04  6.22262E+04 -8.19191E+04  3.14968E+04
 -7.88982E+04 -1.05077E+04 -5.53474E+04 -4.91212E+04 -1.47935E+04 -6.75003E+04  2.61712E+04 -4.41075E+04
  3.88915E+04  4.08212E+03  1.53716E+04  4.69825E+04 -3.39534E+04  4.55817E+04 -6.47040E+04 -6.56124E+02
 -5.08636E+04 -5.56708E+04 -6.29391E+03 -7.37525E+04  3.26138E+04 -5.23469E+04  4.51829E+04 -1.56916E+04
  4.06437E+04  1.08787E+04  2.98991E+04  2.42692E+04  1.51961E+04  2.73837E+04 -4.63495E+03  2.62346E+04
 -2.10672E+04  1.30613E+04 -1.95470E+04 -3.75808E+03  3.93755E+03 -7.82095E+03  2.01431E+04  1.00160E+04
  7.84277E+03  3.20500E+04 -2.97363E+04  3.34179E+04 -6.05068E+04  2.08951E+03 -5.45529E+04 -4.02094E+04
 -1.22098E+04 -5.96645E+04  3.68281E+04 -4.27001E+04  5.39378E+04 -2.20128E+03  3.08309E+04  2.96289E+04
 -7.05459E+03  3.13038E+04 -2.75344E+04  1.21200E+04 -2.60036E+04 -5.59242E+03 -1.34606E+04 -9.11251E+03
 -6.70563E+03 -1.00670E+04 -9.40402E+02 -1.58220E+04  6.05328E+03 -2.21094E+04  1.47182E+04 -1.44702E+04
  1.23120E+04  4.05179E+03 -4.96291E+03  1.30706E+04 -1.84798E+04 -1.50415E+03 -8.08834E+03 -2.89026E+04
  1.96157E+04 -3.90307E+04  4.29712E+04 -1.79226E+04  4.05448E+04  1.77088E+04  1.30946E+04  4.01366E+04
 -1.48952E+04  2.99030E+04 -2.27048E+04  1.99274E+02 -7.27598E+03 -2.56648E+04  2.00152E+04 -2.98611E+04
  3.68901E+04 -6.63488E+03  2.94607E+04  2.23910E+04  1.36788E+04  4.08207E+04 -7.43003E+03  4.29935E+04
 -2.67654E+04  2.77014E+04 -3.51317E+04  7.72493E+03 -3.62879E+04 -1.43008E+04 -2.00969E+04 -3.30892E+04
  6.42076E+03 -3.25209E+04  2.80375E+04 -1.13049E+04  2.56909E+04  1.10732E+04  2.35481E+03  1.76201E+04
 -1.24944E+04  6.86737E+03 -9.31543E+03 -8.31605E+03  6.09681E+03 -1.03307E+04  1.67738E+04  6.82197E+03
  1.17871E+04  2.10737E+04 -7.11297E+03  2.26553E+04 -2.09259E+04  8.05047E+03 -2.39320E+04 -6.79540E+03
 -1.50510E+04 -1.61004E+04 -4.72261E+03 -1.49872E+04  4.07722E+03 -1.22088E+04  1.12393E+04 -1.21104E+04
  1.89213E+04 -1.10889E+04  2.60401E+04  8.45268E+02  2.05553E+04  1.46421E+04  4.25892E+03  3.11274E+04
 -1.53674E+04  2.63459E+04 -2.48579E+04  9.12114E+03 -1.86366E+04 -1.00317E+04 -3.99012E+03 -1.39388E+04
  2.51782E+03 -4.48407E+03 -1.11020E+03  4.89419E+03 -1.09126E+04  5.44861E+03 -1.23406E+04 -4.14693E+03
 -8.28411E+03 -1.39637E+04  4.60629E+03 -1.80051E+04  1.16264E+04 -1.28478E+04  1.33048E+04 -1.59312E+03
  7.76457E+03  9.96433E+03 -2.82524E+02  1.43204E+04 -9.25986E+03  8.07401E+03 -1.32133E+04 -2.82338E+03
 -1.05048E+04 -1.28909E+04 -1.09902E+03 -1.70595E+04  7.53788E+03 -1.40170E+04  1.41231E+04 -6.20806E+03
  1.35108E+04  5.08404E+02  9.04349E+03  3.44107E+03  4.21651E+03  2.29671E+02  6.33499E+03 -1.20982E+03
  1.22716E+04  2.25957E+03  1.28222E+04  1.14511E+04  7.05053E+03  2.19927E+04 -3.27069E+03  2.34952E+04
 -1.42570E+04  1.76145E+04 -2.16904E+04  8.44018E+03 -2.13404E+04 -1.46792E+03 -1.88873E+04 -1.23189E+04
 -9.54628E+03 -1.78056E+04  5.44042E+03 -1.68460E+04  1.46124E+04 -9.90026E+03  1.36861E+04  3.30583E+03
  6.22666E+03  9.63702E+03 -6.03432E+03  9.36640E+03 -1.23952E+04  2.82845E+03 -9.41751E+03 -6.95519E+03
 -3.79030E+02 -1.09034E+04  5.60262E+03 -8.55331E+03  7.24893E+03 -1.55398E+03  7.94224E+02  4.58340E+03
 -4.95054E+03  4.96690E+02 -2.87417E+03 -3.89077E+03  7.28947E+02 -9.05577E+03  6.89056E+03 -8.40756E+03
  1.04069E+04 -3.72841E+03  9.90783E+03  2.71388E+03  8.55396E+03  8.52598E+03  3.24411E+03  1.15986E+04
 -9.84710E+02  1.37844E+04 -7.95858E+03  8.50284E+03 -9.93010E+03  2.98377E+03 -7.72799E+03 -1.14207E+03
 -3.83067E+03 -2.69285E+03 -5.34430E+02  1.60605E+03 -1.52270E+03  1.90189E+03 -3.17550E+03  3.19669E+03
 -7.05255E+03 -3.37229E+02 -8.00379E+03 -7.02845E+03 -2.48582E+03 -1.01540E+04  2.96332E+03 -7.01509E+03
  6.37574E+03 -3.29364E+03  4.35122E+03  1.90156E+03  9.43312E+02  2.02006E+03 -3.05265E+03  5.71291E+02
 -2.63104E+03 -4.63611E+03 -5.60157E+02 -6.25811E+03  3.04859E+03 -6.82220E+03  8.80755E+03 -3.43685E+03
  1.01802E+04  5.52644E+02  7.78083E+03  4.83390E+03  9.92800E+02  7.38743E+03 -4.64447E+03  7.45481E+03
 -6.09649E+03  2.52019E+03 -2.80169E+03 -1.11211E+03  1.04628E+03 -1.26963E+03  3.89715E+03 -7.10937E+02
  3.91448E+03  2.80883E+03  1.09957E+03  5.51399E+03 -3.89149E+03  5.86546E+03 -7.29427E+03  1.54963E+03
 -3.75060E+03 -2.01746E+03 -9.80086E+01 -5.56263E+03  2.65120E+03 -2.71716E+03  2.77648E+03  6.40182E+02
  2.16672E+02  2.38453E+03 -3.03055E+03  3.97606E+03 -4.12914E+03  1.85558E+03 -3.02177E+03 -6.33136E+02
 -2.56075E+03 -5.40940E+03  4.05434E+02 -6.08404E+03  4.63953E+03 -4.16862E+03  5.24057E+03  7.16615E+02
  3.82515E+03  4.35777E+03  1.93555E+02  6.21345E+03 -3.95800E+03  3.80253E+03 -3.84277E+03 -3.24600E+02
 -5.44043E+03 -4.19420E+03 -1.41184E+03 -3.81339E+03  2.45460E+03 -4.12622E+03  2.28231E+03 -2.73462E+03
  2.81188E+03  1.81645E+02  6.06779E+01  1.32568E+03  6.71607E+02  6.96094E+02  4.17828E+01 -9.88074E+02
  2.97463E+03 -5.22952E+02  3.94427E+03  7.32612E+02  4.58546E+03  2.36209E+03  4.91380E+03  5.33258E+03
 -5.98546E+02  6.72302E+03 -6.70798E+03  5.42560E+03 -8.27419E+03  1.09707E+03 -6.14630E+03 -1.75992E+03
 -3.27635E+03 -5.29911E+03  3.80554E+02 -3.94691E+03  1.98696E+03 -1.02538E+03  1.40589E+03 -2.06213E+03
  9.24226E+02 -9.49150E+02  2.29328E+03 -2.17639E+03  3.22894E+03 -1.14473E+03  3.00469E+03  6.27877E+02
  3.92741E+03  1.05960E+03  8.18322E+02  2.81790E+03 -1.38836E+03  1.60986E+03 -3.19339E+03  1.65296E+03
 -3.80923E+03 -1.11336E+03 -1.02729E+03 -2.01053E+03  5.92232E+02 -3.97839E+03  2.74774E+03 -3.82261E+03
  3.71639E+03 -2.80627E+03  5.66143E+03 -1.06462E+02  3.63300E+03  3.55999E+03  8.53803E+02  5.75614E+03
 -1.08528E+03  4.78080E+03 -2.80066E+03  1.33760E+03 -1.94995E+03 -7.75093E+02 -1.16498E+02 -3.64464E+02
  2.37554E+01  9.78719E+02 -1.12446E+03  1.79671E+03 -2.49192E+03  1.22724E+03 -3.05965E+03 -2.36635E+02
 -6.50988E+02 -3.35274E+03  6.94086E+02 -3.44631E+03  2.81899E+03 -3.39163E+03  2.44666E+03 -8.72745E+02
  3.04973E+03  2.04242E+03  1.52750E+03  2.40033E+03 -7.78125E+02  2.99730E+03 -1.91961E+03  1.89379E+03
 -2.78509E+03  4.97146E+02 -3.28617E+03 -1.46897E+03 -1.05831E+02 -2.67862E+03  1.16155E+03 -1.73287E+03
  2.07228E+03 -1.36821E+03  1.58922E+03  8.32574E+02  4.67052E+01  1.52497E+03  8.07004E+02 -4.23427E+02
  1.78385E+03  5.06271E+02  6.30116E+02  1.03641E+03  7.54576E+02  1.77923E+03  1.08802E+03  8.57016E+02
 -1.26595E+03  1.95909E+03 -1.81820E+03  3.82938E+03 -2.07431E+03  1.18342E+03 -3.48402E+03  1.63807E+02
 -1.24782E+03 -2.26770E+03  4.05722E+02 -3.62631E+03  1.21684E+03 -2.33039E+03  2.77506E+03 -5.53897E+02
  1.65292E+03  1.35378E+03  4.57082E+02  1.76861E+03 -5.61890E+02  1.16349E+03 -6.14956E+02 -7.28623E+01
 -4.10038E+02 -1.46543E+03  1.12868E+03 -1.11283E+03  9.89700E+02 -9.73208E+02  8.74330E+02 -2.20332E+02
  7.16029E+02  1.19997E+02  7.20365E+02 -5.79782E+02 -5.65733E+01  4.41850E+02  1.56179E+03 -3.09783E+02
 -4.61078E+02 -2.73914E+02  1.31084E+03  3.27463E+02  2.60208E+02  1.58923E+03 -1.10655E+02  2.78515E+03
 -1.43312E+03 -1.28669E+02 -1.99670E+03  2.93535E+02 -1.47785E+03 -1.25255E+03  1.02986E+02 -1.11843E+03
  2.81106E+02 -1.02134E+03  3.16056E+02 -6.35596E+02  1.24767E+03  1.34889E+03 -5.08232E+02  4.42364E+02
 -9.20031E+02  2.62685E+02 -7.24120E+02 -1.59873E+03 -9.05113E+02 -1.83205E+03  6.23851E+01 -1.77267E+03
  4.75961E+02 -5.75463E+02  2.68588E+02 -1.92413E+02  7.55393E+02 -2.18479E+02  1.57157E+02  5.07484E+02
 -6.18199E+02  4.88631E+01 -9.20944E+02 -2.52322E+00  7.54288E+02 -9.44427E+02  1.30650E+03 -9.92653E+02
  8.80015E+02 -1.38641E+02  2.54643E+03 -3.54111E+01  7.83128E+02  9.01402E+02  2.15340E+02  1.40043E+03
 -6.20379E+02  3.66767E+02 -1.93893E+03 -5.32218E+02 -7.67242E+02 -1.34845E+03  5.99599E+02 -2.93150E+02
  1.37806E+03 -6.22593E+02  5.61634E+02  1.13319E+03 -1.90939E+02  8.15217E+02 -9.32782E+01  1.02227E+03
 -4.43510E+02  9.44893E+02 -8.80205E+02  1.69986E+02 -2.76755E+01  1.00305E+03 -6.36559E+02  2.39576E+02
 -2.26508E+02  9.83136E+02 -1.74441E+03  1.84629E+02 -1.30737E+03  1.40826E+02 -2.49061E+03 -9.69587E+02
 -6.67614E+02 -1.68664E+03  6.54742E+02 -2.40126E+03  6.67807E+02 -1.67568E+03  2.72022E+03 -1.32290E+03
  2.14434E+03 -1.63228E+02  9.42243E+02  1.18590E+03 -1.13395E+03  8.12567E+02 -1.94852E+02  8.18664E+02
 -4.11067E+02  9.71459E+02 -1.73203E+02 -6.00487E+02 -2.32297E+02  7.13363E+02 -7.81789E+02 -1.79697E+02
 -9.76791E+02  3.30576E+01 -1.16266E+03  5.08748E+02 -4.64895E+00 -5.77816E+02 -2.05156E+02 -6.30968E+02
  2.05784E+03 -1.63685E+02  9.79296E+00 -3.29087E+02  1.00702E+03  5.05155E+02 -8.75212E+02  9.02760E+02
 -1.33381E+03  1.51235E+03 -1.41372E+03  1.26926E+03 -1.34722E+03 -3.26512E+02 -7.09446E+02 -5.95701E+02
 -6.88735E+02 -1.51659E+03  4.85516E+02 -1.16779E+03  5.57202E+02 -3.84842E+02  6.50516E+02  3.45747E+02
 -1.84194E+02  3.62023E+02  1.71657E+02  4.72326E+02  6.34483E+01  3.84083E+02 -8.43742E+01  2.54950E+02
  6.87115E+02  4.49841E+01 -3.73184E+00  3.75585E+02  1.53666E+02  3.63009E+02  9.10492E+02 -1.28036E+02
 -5.39810E+02  1.11881E+03 -4.60579E+02 -2.05080E+02 -5.96450E+02  9.37249E+01 -2.36241E+02 -6.49022E+02
  3.16254E+02 -2.50271E+02  4.24178E+02 -2.29728E+01  7.57428E+02 -1.03263E+03  2.08743E+02  6.83897E+02
  3.25903E+02 -1.59191E+02 -1.23199E+02  7.87533E+02 -1.48566E+02  2.86928E+02 -5.22939E+02 -3.94143E+02
  4.31014E+02 -1.09773E+02 -7.20132E+02  5.97492E+02 -6.73502E+02  2.97489E+01 -6.05136E+02 -1.99899E+02
 -8.38856E+02  4.44478E+02 -3.51657E+02 -9.18584E+02  7.01235E+02 -1.83798E+03  5.50408E+02 -2.19292E+02
  5.64068E+02 -1.77665E+02 -2.59802E+02 -2.05064E+02  1.57259E+02  4.61625E+02 -1.96579E+02  5.84688E+02
