 $NMID ID='MM_0lb_SNR400_8hz_g45_39.RAW', FMTDAT='(8E13.5)'
 TRAMP=1., VOLUME=1. $END
  3.09546E+05  3.58031E+02  3.37700E+05  2.50937E+05  8.50882E+04  3.38661E+05 -1.32145E+05  2.52922E+05
 -1.90770E+05  8.39783E+04 -1.12050E+05 -3.29737E+04  8.51894E+02 -5.13589E+04  5.35914E+04  1.40467E+02
  3.63686E+04  5.29312E+04 -1.65343E+04  7.58510E+04 -6.16105E+04  6.45679E+04 -8.52701E+04  3.23208E+04
 -8.26906E+04 -1.14339E+04 -5.87977E+04 -5.22619E+04 -1.55548E+04 -7.07200E+04  2.93444E+04 -4.71658E+04
  4.08276E+04  3.23331E+03  1.75804E+04  4.92526E+04 -3.47453E+04  4.79728E+04 -6.78397E+04  4.93630E+02
 -5.59195E+04 -5.86060E+04 -6.78526E+03 -7.99291E+04  3.58273E+04 -5.68667E+04  5.00742E+04 -1.89034E+04
  4.57076E+04  1.25209E+04  3.28446E+04  2.64457E+04  1.63420E+04  3.05011E+04 -5.95037E+03  2.76573E+04
 -2.23330E+04  1.14513E+04 -1.76450E+04 -6.53997E+03  6.24591E+03 -7.61965E+03  2.34597E+04  1.40572E+04
  7.74316E+03  3.78272E+04 -3.37641E+04  3.72805E+04 -6.70448E+04  1.50792E+03 -5.92653E+04 -4.47565E+04
 -1.19315E+04 -6.63012E+04  4.17343E+04 -4.74665E+04  6.10829E+04 -2.50192E+03  3.65824E+04  3.28043E+04
 -5.19355E+03  3.94384E+04 -3.25892E+04  1.87244E+04 -3.43796E+04 -2.81899E+03 -1.94398E+04 -1.29525E+04
 -9.95362E+03 -1.55292E+04 -1.69231E+02 -2.07138E+04  8.57997E+03 -2.31635E+04  1.55741E+04 -1.17769E+04
  1.02853E+04  6.21987E+03 -1.11453E+04  1.35765E+04 -2.35902E+04 -7.94918E+03 -8.85991E+03 -3.77421E+04
  2.50443E+04 -4.71369E+04  5.27657E+04 -2.12697E+04  4.81430E+04  2.17080E+04  1.80247E+04  4.76697E+04
 -1.80229E+04  3.73902E+04 -2.86319E+04  2.97759E+03 -1.16857E+04 -3.00772E+04  2.14293E+04 -3.75689E+04
  4.47302E+04 -1.21700E+04  4.10038E+04  2.50340E+04  2.17354E+04  5.16707E+04 -8.28563E+03  5.71194E+04
 -3.62978E+04  3.85065E+04 -4.78258E+04  1.14995E+04 -4.75215E+04 -1.84869E+04 -2.65409E+04 -4.27270E+04
  7.27669E+03 -4.21548E+04  3.43285E+04 -1.68472E+04  3.32248E+04  1.11754E+04  5.67804E+03  2.04929E+04
 -1.39692E+04  9.77732E+03 -1.03824E+04 -6.92628E+03  5.52698E+03 -1.08323E+04  1.90798E+04  5.67662E+03
  1.49099E+04  2.30812E+04 -4.53246E+03  2.74886E+04 -2.34583E+04  1.49080E+04 -3.25593E+04 -2.41906E+03
 -2.53463E+04 -1.81056E+04 -1.22127E+04 -2.54434E+04  4.86847E+03 -2.60913E+04  2.02675E+04 -2.37984E+04
  3.25041E+04 -1.42705E+04  3.87963E+04  5.49663E+03  2.76881E+04  2.55437E+04  5.09868E+03  4.17878E+04
 -2.01166E+04  3.42119E+04 -3.12878E+04  1.14836E+04 -2.23501E+04 -1.04996E+04 -4.68463E+03 -1.26087E+04
  2.89935E+02 -9.56983E+02 -8.33219E+03  8.57302E+03 -2.10690E+04  5.08372E+03 -2.07832E+04 -1.00321E+04
 -1.23598E+04 -2.43289E+04  4.93485E+03 -2.78152E+04  2.00897E+04 -2.07587E+04  2.35290E+04 -1.61367E+03
  1.48023E+04  1.57136E+04 -1.85360E+03  2.31946E+04 -1.75564E+04  1.41279E+04 -2.33309E+04 -4.79147E+03
 -1.70326E+04 -2.18341E+04 -2.14211E+03 -2.89351E+04  1.27847E+04 -2.35526E+04  2.37174E+04 -1.12181E+04
  2.18914E+04 -5.03636E+02  1.56409E+04  4.61863E+03  9.63363E+03  1.41844E+03  1.27861E+04 -2.14921E+03
  2.27461E+04  2.49786E+03  2.59970E+04  1.87093E+04  1.82847E+04  3.85049E+04 -2.52528E+03  4.56882E+04
 -2.66944E+04  3.80717E+04 -4.35160E+04  1.99583E+04 -4.52151E+04 -3.00441E+03 -3.75533E+04 -2.66786E+04
 -1.37947E+04 -3.82738E+04  1.34216E+04 -3.27906E+04  2.88267E+04 -1.56435E+04  2.46352E+04  7.73770E+03
  8.28290E+03  1.90583E+04 -1.13738E+04  1.57484E+04 -2.03666E+04  2.75938E+03 -1.60844E+04 -1.35934E+04
  2.46190E+02 -1.90650E+04  1.15655E+04 -1.46983E+04  1.31090E+04 -1.39412E+03  3.29145E+03  8.82927E+03
 -9.29809E+03  4.36609E+03 -9.15112E+03 -7.37733E+03 -2.35817E+03 -1.91509E+04  1.15291E+04 -2.03745E+04
  2.40590E+04 -1.24599E+04  2.79711E+04  3.57011E+03  2.40663E+04  1.95482E+04  1.09101E+04  2.99344E+04
 -4.74184E+03  3.25872E+04 -2.18012E+04  2.02117E+04 -2.34913E+04  3.71129E+03 -1.62922E+04 -5.99795E+03
 -6.05677E+03 -7.37325E+03 -1.02703E+03 -6.00387E+02 -3.04741E+03  3.68915E+03 -8.59819E+03  5.28836E+03
 -1.53389E+04 -4.16533E+02 -1.59876E+04 -1.28664E+04 -6.65162E+03 -2.07433E+04  6.17161E+03 -1.64743E+04
  1.33016E+04 -6.65990E+03  9.26913E+03  4.94431E+03 -3.05450E+02  6.75060E+03 -7.58120E+03 -6.35688E+02
 -8.36922E+03 -9.99177E+03 -1.10138E+03 -1.58941E+04  1.00440E+04 -1.71829E+04  2.08082E+04 -9.58751E+03
  2.40326E+04  2.00911E+03  1.81026E+04  1.45641E+04  3.84459E+03  2.06971E+04 -1.00890E+04  1.70287E+04
 -1.31213E+04  4.34315E+03 -6.72480E+03 -3.59055E+03  2.08618E+03 -3.61683E+03  9.43575E+03 -1.74201E+02
  7.82616E+03  7.34560E+03  2.05583E+03  1.20112E+04 -1.03425E+04  1.24664E+04 -1.62286E+04  3.10011E+03
 -1.13870E+04 -8.57301E+03  3.13753E+02 -1.40304E+04  8.26452E+03 -7.23428E+03  9.62816E+03  2.74714E+03
  1.73173E+03  1.00558E+04 -8.32415E+03  1.22465E+04 -1.45380E+04  5.14177E+03 -1.57466E+04 -5.72323E+03
 -8.61121E+03 -1.64068E+04  4.22538E+03 -2.04803E+04  1.69415E+04 -1.09482E+04  1.79882E+04  3.61683E+03
  1.10159E+04  1.34671E+04 -1.90707E+03  1.77527E+04 -1.18249E+04  9.04625E+03 -1.34658E+04 -1.32347E+03
 -1.19635E+04 -1.20159E+04 -1.35149E+03 -1.29517E+04  6.22046E+03 -9.85111E+03  8.33360E+03 -3.56591E+03
  5.64711E+03  1.46056E+03 -1.84601E+03  1.13081E+03 -6.37857E+02 -3.80184E+03  3.00296E+03 -8.24391E+03
  1.25967E+04 -4.88306E+03  1.67914E+04  1.59665E+03  1.64839E+04  1.23082E+04  1.02880E+04  2.17737E+04
 -6.03096E+03  2.58414E+04 -2.11157E+04  1.93330E+04 -2.74667E+04  3.55027E+03 -2.19038E+04 -9.85329E+03
 -1.12137E+04 -1.71011E+04 -1.71402E+01 -1.58820E+04  6.13822E+03 -8.43637E+03  6.31138E+03 -5.83629E+03
  3.99490E+03 -3.14181E+03  3.80798E+03 -3.00191E+03  5.83220E+03 -3.52973E+03  8.27765E+03 -1.61335E+03
  1.22968E+04  2.92819E+03  6.30449E+03  8.80368E+03 -2.87475E+03  1.29599E+04 -1.18164E+04  8.90972E+03
 -1.66097E+04 -7.52194E+02 -9.85399E+03 -1.06346E+04 -1.53044E+03 -1.76015E+04  9.46042E+03 -1.70972E+04
  1.77039E+04 -9.30874E+03  2.13846E+04  3.26358E+03  1.43879E+04  1.53227E+04  2.47652E+03  1.91891E+04
 -8.02006E+03  1.53120E+04 -1.13756E+04  5.21578E+03 -6.88044E+03 -2.13442E+03 -2.80321E+03 -2.06705E+03
 -9.72317E+02 -6.54256E+02 -2.28579E+03  3.07278E+03 -6.52250E+03  2.45829E+03 -1.05825E+04 -1.60930E+03
 -8.02244E+03 -1.10304E+04  3.39425E+02 -1.54733E+04  9.15080E+03 -1.46890E+04  1.56569E+04 -5.31520E+03
  1.55890E+04  7.58574E+03  7.18709E+03  1.34516E+04 -3.48487E+03  1.60455E+04 -1.15076E+04  9.69194E+03
 -1.62876E+04  5.66158E+02 -1.14904E+04 -9.98877E+03 -1.03170E+03 -1.32810E+04  7.22348E+03 -1.01240E+04
  1.06343E+04 -2.77224E+03  7.10905E+03  3.26806E+03  2.35302E+03  4.37316E+03  1.48585E+03  2.82917E+03
  3.03516E+03  1.04743E+03  4.06719E+03  2.68203E+03  4.18616E+03  5.37033E+03  4.09015E+03  8.84519E+03
 -3.57166E+03  1.29679E+04 -1.21952E+04  1.21750E+04 -1.76873E+04  3.87277E+03 -1.64130E+04 -6.76510E+03
 -8.10000E+03 -1.67285E+04  2.50343E+03 -1.90949E+04  9.29410E+03 -1.22080E+04  1.31009E+04 -3.16416E+03
  1.08570E+04  6.03100E+03  3.02451E+03  9.86218E+03 -4.84204E+03  6.04822E+03 -6.36026E+03 -1.00703E+03
 -2.82979E+03 -8.38906E+03  3.05127E+03 -7.13359E+03  6.31566E+03 -4.14690E+03  6.26315E+03  1.11434E+03
  4.16055E+03  3.23499E+03  1.59808E+03  3.59989E+03 -1.47407E+03  2.05994E+03  2.17915E+03 -1.10516E+02
  2.77915E+03 -1.04303E+03  6.72859E+03  2.09900E+03  3.66153E+03  8.46499E+03 -1.12025E+03  1.10162E+04
 -8.06633E+03  6.42613E+03 -1.13802E+04  1.60041E+03 -9.92953E+03 -3.41402E+03 -3.00536E+03 -6.78057E+03
  9.18567E+02 -6.90036E+03  4.47614E+03 -3.70247E+03  3.76900E+03  2.91924E+03 -1.35741E+03  5.40700E+03
 -6.77373E+03  3.03284E+03 -8.15729E+03 -3.72048E+03 -4.72585E+03 -8.81421E+03  2.08722E+03 -9.25471E+03
  5.69022E+03 -5.72586E+03  6.85793E+03 -1.40251E+03  6.08909E+03  2.55612E+03  1.19077E+03  4.46104E+03
 -2.95874E+03  1.30895E+03 -4.94163E+03 -3.73239E+03  1.37744E+03 -7.74237E+03  8.21464E+03 -6.27159E+03
  1.10521E+04  9.29864E+02  1.03374E+04  6.95975E+03  2.86408E+03  1.15987E+04 -3.66046E+03  1.03454E+04
 -9.79678E+03  5.29413E+03 -9.60510E+03 -2.12331E+03 -5.19343E+03 -7.21902E+03  1.43689E+03 -6.84990E+03
  6.92225E+03 -3.80283E+03  5.78399E+03  3.17660E+03  1.74820E+03  6.07942E+03 -1.00150E+03  4.93911E+03
 -3.74264E+03  2.78904E+03 -3.02899E+03  1.29627E+03 -1.45190E+03  3.10108E+01 -1.41643E+03  2.63482E+03
 -3.08148E+03  4.78640E+03 -8.64867E+03  3.21743E+03 -1.16424E+04 -3.87397E+02 -1.36980E+04 -7.19028E+03
 -6.59368E+03 -1.63036E+04  3.12968E+03 -1.70707E+04  1.01527E+04 -1.31490E+04  1.63707E+04 -5.58082E+03
  1.57660E+04  3.72373E+03  9.22090E+03  1.04392E+04  1.60513E+03  1.26295E+04 -4.83577E+03  8.58543E+03
 -7.11595E+03  2.77329E+03 -3.41780E+03 -1.30038E+03 -1.74598E+03 -1.25600E+03 -4.74785E+02  1.14205E+02
 -1.89286E+03  1.15637E+03 -3.27250E+03 -9.78742E+02 -1.21645E+03 -3.03593E+03  9.11423E+02 -3.96080E+03
  5.45043E+03 -4.81706E+03  6.82261E+03 -4.94555E+02  8.03322E+03  6.61094E+03  3.06619E+03  1.25385E+04
 -6.34218E+03  1.37247E+04 -1.22524E+04  8.39687E+03 -1.60740E+04 -1.60373E+03 -1.14837E+04 -9.19189E+03
 -4.11199E+03 -1.17861E+04  3.05392E+03 -1.05815E+04  7.45492E+03 -6.70256E+03  8.14520E+03 -1.47441E+02
  4.57240E+03  3.55043E+03 -1.27165E+03  3.55037E+03 -2.34376E+03  2.54385E+02 -2.74974E+02 -3.89128E+03
  4.11703E+03 -1.15015E+03  4.58114E+03  1.34742E+03  2.94531E+03  4.65172E+03  3.12246E+02  7.05496E+03
 -5.21202E+03  4.78422E+03 -8.60319E+03  4.07696E+02 -7.74168E+03 -5.96358E+03 -1.34336E+03 -1.04865E+04
  6.71195E+03 -9.01560E+03  9.74919E+03 -2.32956E+03  8.85580E+03  1.57349E+03  5.25755E+03  8.04264E+03
  7.78106E+02  8.46340E+03 -3.72528E+03  6.66772E+03 -5.66335E+03  3.65846E+03 -4.69823E+03  3.98098E+02
 -2.64658E+03 -4.09919E+02 -2.48960E+03  6.02784E+02 -3.60907E+03  1.09829E+03 -5.59709E+03 -9.12197E+02
 -6.45723E+03 -4.67222E+03 -1.31590E+03 -8.05723E+03  3.91289E+03 -7.42476E+03  7.92290E+03 -4.99544E+03
  7.24698E+03  1.22905E+03  5.28661E+03  5.35819E+03 -7.23854E+02  8.89454E+03 -5.85270E+03  5.82032E+03
