 $NMID ID='MM_0lb_SNR400_14hz_g40_38.RAW', FMTDAT='(8E13.5)'
 TRAMP=1., VOLUME=1. $END
  3.09852E+05 -2.05897E+02  3.37498E+05  2.50434E+05  8.48094E+04  3.37635E+05 -1.32083E+05  2.50533E+05
 -1.89265E+05  8.32127E+04 -1.11336E+05 -3.27724E+04  1.57404E+03 -5.05001E+04  5.38595E+04 -4.31814E+02
  3.47122E+04  5.26285E+04 -1.67097E+04  7.54816E+04 -6.04725E+04  6.25838E+04 -8.36165E+04  3.16374E+04
 -8.12461E+04 -1.12211E+04 -5.70796E+04 -5.08106E+04 -1.51358E+04 -6.92970E+04  2.70753E+04 -4.56890E+04
  3.93653E+04  4.00428E+03  1.60152E+04  4.78498E+04 -3.38441E+04  4.63198E+04 -6.65299E+04  2.72835E+01
 -5.26666E+04 -5.66933E+04 -6.49323E+03 -7.67259E+04  3.37266E+04 -5.48003E+04  4.74507E+04 -1.75896E+04
  4.33545E+04  1.11224E+04  3.18536E+04  2.54463E+04  1.53476E+04  2.92684E+04 -4.76429E+03  2.73187E+04
 -2.25382E+04  1.22057E+04 -1.85496E+04 -4.83701E+03  4.92254E+03 -7.07207E+03  2.26146E+04  1.22506E+04
  7.10351E+03  3.43464E+04 -3.16575E+04  3.47094E+04 -6.28490E+04  2.12834E+03 -5.70533E+04 -4.18539E+04
 -1.22355E+04 -6.26150E+04  3.89083E+04 -4.47096E+04  5.73733E+04 -2.17522E+03  3.33983E+04  3.17871E+04
 -6.11276E+03  3.46802E+04 -2.91578E+04  1.51188E+04 -2.91213E+04 -4.41004E+03 -1.55580E+04 -1.02579E+04
 -7.67602E+03 -1.32746E+04  2.70035E+02 -1.74759E+04  7.00013E+03 -2.31906E+04  1.54648E+04 -1.43162E+04
  1.13112E+04  5.07809E+03 -7.65112E+03  1.27750E+04 -2.11816E+04 -3.79134E+03 -8.20051E+03 -3.28340E+04
  2.24907E+04 -4.31279E+04  4.76269E+04 -1.98125E+04  4.39906E+04  1.90227E+04  1.51073E+04  4.33387E+04
 -1.58263E+04  3.29140E+04 -2.45388E+04  1.34128E+03 -1.01873E+04 -2.71978E+04  2.07943E+04 -3.33264E+04
  3.99828E+04 -8.41880E+03  3.43228E+04  2.41988E+04  1.73884E+04  4.51234E+04 -8.22468E+03  4.89743E+04
 -3.07202E+04  3.27189E+04 -4.07603E+04  9.52924E+03 -4.17774E+04 -1.63935E+04 -2.31069E+04 -3.74233E+04
  7.10110E+03 -3.66481E+04  3.09633E+04 -1.40688E+04  2.87177E+04  1.05032E+04  4.03599E+03  1.85655E+04
 -1.42027E+04  8.29711E+03 -9.99910E+03 -7.68312E+03  6.18653E+03 -1.06910E+04  1.78975E+04  6.09213E+03
  1.27609E+04  2.23307E+04 -6.40005E+03  2.47772E+04 -2.17211E+04  1.14191E+04 -2.72205E+04 -4.47944E+03
 -2.00067E+04 -1.72908E+04 -7.95878E+03 -1.96790E+04  4.30818E+03 -1.88910E+04  1.55150E+04 -1.75596E+04
  2.51383E+04 -1.21147E+04  3.15032E+04  2.43823E+03  2.30247E+04  1.90974E+04  4.27304E+03  3.53459E+04
 -1.70979E+04  2.94132E+04 -2.75156E+04  1.03613E+04 -2.03942E+04 -1.03329E+04 -3.55658E+03 -1.38208E+04
  2.01893E+03 -2.58582E+03 -4.87350E+03  7.06566E+03 -1.55685E+04  4.68638E+03 -1.59909E+04 -6.13651E+03
 -9.79635E+03 -1.81509E+04  5.24307E+03 -2.24170E+04  1.48219E+04 -1.62908E+04  1.70579E+04 -1.30406E+03
  1.05508E+04  1.25492E+04 -1.52701E+03  1.86907E+04 -1.25855E+04  1.04377E+04 -1.85656E+04 -4.37224E+03
 -1.30775E+04 -1.64499E+04 -2.07200E+03 -2.22463E+04  9.98995E+03 -1.83835E+04  1.82695E+04 -9.09905E+03
  1.70824E+04 -2.71130E+01  1.20965E+04  4.30673E+03  6.41346E+03  7.15227E+02  8.91236E+03 -1.86803E+03
  1.63478E+04  2.34632E+03  1.84170E+04  1.45723E+04  1.18436E+04  2.93110E+04 -2.93498E+03  3.28899E+04
 -1.90076E+04  2.61052E+04 -3.04712E+04  1.29209E+04 -3.13172E+04 -2.17303E+03 -2.64984E+04 -1.80945E+04
 -1.16352E+04 -2.64011E+04  8.99286E+03 -2.36005E+04  2.08391E+04 -1.22391E+04  1.87695E+04  4.74319E+03
  7.24853E+03  1.37204E+04 -8.64999E+03  1.22727E+04 -1.60303E+04  2.08171E+03 -1.19186E+04 -9.52739E+03
  4.13984E+01 -1.42922E+04  7.53561E+03 -1.12583E+04  9.48564E+03 -1.44784E+03  1.52978E+03  6.86695E+03
 -6.36749E+03  2.10178E+03 -4.95675E+03 -5.69767E+03 -4.37892E+02 -1.31980E+04  9.03061E+03 -1.37105E+04
  1.60204E+04 -6.48925E+03  1.64260E+04  2.36508E+03  1.48565E+04  1.26782E+04  7.04887E+03  1.90445E+04
 -3.18849E+03  2.11783E+04 -1.37055E+04  1.35931E+04 -1.49369E+04  2.67666E+03 -1.03848E+04 -3.14683E+03
 -5.57139E+03 -5.10354E+03 -9.66903E+02  1.27065E+03 -2.62144E+03  2.83877E+03 -4.90497E+03  4.37840E+03
 -1.03452E+04 -1.04216E+03 -1.09132E+04 -8.64804E+03 -4.38109E+03 -1.38403E+04  4.62476E+03 -1.04894E+04
  8.89831E+03 -4.51842E+03  6.76368E+03  2.70530E+03  9.50232E+02  4.34616E+03 -5.27457E+03  1.40198E+02
 -4.63435E+03 -7.24388E+03 -9.70296E+02 -9.97941E+03  5.57458E+03 -9.72969E+03  1.27233E+04 -5.25068E+03
  1.56220E+04  1.22023E+03  1.17441E+04  8.36658E+03  1.74132E+03  1.16810E+04 -6.73061E+03  1.05271E+04
 -8.47125E+03  3.87853E+03 -4.07796E+03 -2.23963E+03  9.68861E+02 -2.26882E+03  5.62496E+03 -1.05605E+03
  5.41426E+03  4.39274E+03  1.70721E+03  8.78962E+03 -6.33827E+03  8.23021E+03 -9.62104E+03  1.46303E+03
 -6.51151E+03 -4.98738E+03  1.03983E+03 -8.44554E+03  5.09935E+03 -4.31325E+03  6.16081E+03  1.24225E+03
  1.12544E+03  5.31807E+03 -5.43878E+03  7.29011E+03 -7.64458E+03  3.31789E+03 -7.16947E+03 -2.30376E+03
 -4.91165E+03 -8.68145E+03  2.25784E+03 -1.04947E+04  9.05923E+03 -6.97118E+03  1.01015E+04  1.93887E+03
  5.91019E+03  8.02127E+03 -3.27547E+02  9.91851E+03 -6.65016E+03  5.50624E+03 -7.75788E+03  2.49039E+02
 -7.00434E+03 -6.62385E+03 -1.63585E+03 -7.05952E+03  3.85256E+03 -6.55384E+03  4.48475E+03 -3.05999E+03
  3.81336E+03  4.94949E+02 -6.76019E+02  1.26471E+03 -1.64777E+02 -8.98611E+02  1.46901E+03 -4.13241E+03
  6.16607E+03 -1.36819E+03  9.06093E+03  1.32997E+03  8.97770E+03  5.60810E+03  6.88874E+03  1.15960E+04
 -2.78206E+03  1.32205E+04 -1.07144E+04  9.71596E+03 -1.49463E+04  1.56201E+03 -1.17335E+04 -4.86762E+03
 -5.97969E+03 -9.51197E+03 -5.50901E+02 -7.98186E+03  2.88944E+03 -3.93861E+03  2.16223E+03 -2.87243E+03
  2.13570E+03 -2.59045E+03  3.01404E+03 -2.65844E+03  3.87199E+03 -2.05548E+03  5.24217E+03 -5.58327E+02
  5.95378E+03  1.30470E+03  2.61977E+03  5.10734E+03 -2.39209E+03  5.60034E+03 -6.67920E+03  4.58143E+03
 -7.76942E+03 -1.03290E+03 -4.00760E+03 -5.57204E+03 -3.08203E+02 -7.96454E+03  4.68732E+03 -8.90041E+03
  9.02546E+03 -4.40776E+03  1.07765E+04  8.09825E+02  7.57308E+03  7.25782E+03  1.36354E+03  9.67524E+03
 -3.93387E+03  8.71005E+03 -5.53800E+03  2.81835E+03 -3.84039E+03 -1.37420E+03 -1.09111E+03 -1.16605E+03
 -5.32799E+02  9.69383E+01 -1.21170E+03  2.21693E+03 -3.94199E+03  1.22445E+03 -5.44052E+03 -7.91854E+01
 -3.37037E+03 -6.22436E+03  1.39547E+03 -7.88533E+03  4.80163E+03 -7.06592E+03  7.31983E+03 -2.40849E+03
  7.19714E+03  3.44843E+03  3.42229E+03  6.25750E+03 -1.35099E+03  8.01213E+03 -5.65781E+03  4.57174E+03
 -6.72941E+03  8.32564E+02 -5.49807E+03 -4.82829E+03 -5.22559E+02 -6.45071E+03  3.20013E+03 -4.72482E+03
  5.07773E+03 -2.15357E+03  2.83235E+03  1.26841E+03  7.95443E+02  2.51956E+03  1.26245E+03  8.29721E+02
  2.97215E+03  2.14362E+02  1.49734E+03  1.36177E+03  2.39503E+03  3.42621E+03  2.15253E+03  3.38668E+03
 -1.99250E+03  5.69770E+03 -5.06521E+03  6.91912E+03 -6.66341E+03  1.42036E+03 -7.81635E+03 -2.04841E+03
 -3.61182E+03 -7.38196E+03  9.93462E+02 -8.12840E+03  4.73552E+03 -4.67693E+03  5.58624E+03 -9.15721E+02
  4.35899E+03  2.26640E+03  1.35821E+03  4.45136E+03 -1.37101E+03  2.51089E+03 -2.96917E+03 -5.17921E+02
 -1.47303E+03 -3.04332E+03  2.01936E+03 -3.19293E+03  2.36495E+03 -1.85743E+03  2.22379E+03  5.65806E+02
  1.96316E+03  8.11608E+02  8.16262E+02  6.85471E+02 -2.34274E+02  1.48210E+03  1.86278E+03 -4.81155E+02
  5.22454E+02 -4.52158E+02  3.58229E+03  9.20421E+02  4.13434E+02  4.40183E+03 -7.88751E+02  5.74989E+03
 -3.58250E+03  3.04175E+03 -4.01975E+03  3.99743E+02 -4.16978E+03 -1.20853E+03 -9.68538E+02 -2.01644E+03
  1.53957E+02 -2.85976E+03  1.82381E+03 -1.35877E+03  1.69683E+03  1.88175E+03 -1.01337E+03  1.93939E+03
 -2.96246E+03  1.27497E+03 -3.37703E+03 -2.15542E+03 -1.82628E+03 -3.82553E+03  4.48445E+02 -3.89255E+03
  1.69645E+03 -2.09811E+03  1.83780E+03 -9.62419E+01  2.52088E+03  6.54962E+02  2.00991E+02  2.08566E+03
 -9.38484E+02  1.16594E+03 -1.78865E+03 -1.23284E+03  4.80226E+02 -2.42656E+03  2.98959E+03 -1.96099E+03
  4.48200E+03  3.41140E+02  4.82971E+03  2.39923E+03  1.61385E+03  3.21521E+03 -1.37766E+03  3.58867E+03
 -3.02438E+03  1.35684E+03 -3.33478E+03 -2.98684E+02 -1.89830E+03 -2.59128E+03  6.64338E+02 -2.07910E+03
  2.89284E+03 -1.19582E+03  2.19618E+03  7.78891E+02  6.17091E+02  2.35533E+03  3.58442E+02  1.98380E+03
 -8.03307E+02  1.51082E+03 -7.69789E+02  4.76561E+02 -3.32699E+02  1.15714E+03 -8.99516E+02  1.22788E+03
 -8.79133E+02  2.07051E+03 -3.00170E+03  1.02890E+03 -3.94207E+03 -3.88474E+02 -4.80276E+03 -2.70100E+03
 -2.49648E+03 -5.00114E+03  4.94719E+02 -6.46159E+03  3.45638E+03 -4.77683E+03  5.90560E+03 -1.83953E+03
  5.36115E+03  4.03464E+02  3.27693E+03  3.44996E+03 -1.11385E+02  4.20425E+03 -1.89389E+03  3.89752E+03
 -1.99651E+03  1.15749E+03 -1.26270E+03 -3.18536E+02 -8.22958E+02 -6.23159E+02 -1.33699E+03  5.05301E+02
 -1.30985E+03 -3.95380E+02 -1.09692E+03  4.18575E+02 -1.05647E+02 -7.66008E+02  7.79206E+01 -1.63506E+03
  1.78276E+03 -1.43269E+03  1.93364E+03  5.11950E+02  2.15268E+03  2.48300E+03  2.56573E+02  4.00464E+03
 -1.85647E+03  4.42331E+03 -3.55465E+03  2.90416E+03 -4.68002E+03 -6.21675E+02 -3.75953E+03 -2.83325E+03
 -1.71470E+03 -4.07128E+03  1.50576E+03 -3.24693E+03  2.33628E+03 -1.30237E+03  2.37918E+03 -4.68965E+02
  1.09949E+03  8.22496E+02 -1.21810E+02  1.36436E+03 -7.00855E+02  1.60625E+02 -7.04036E+02 -6.37896E+02
  7.56293E+02  2.16900E+02  1.30302E+03  7.57010E+02  9.58540E+02  1.45796E+03 -3.17779E+01  1.56792E+03
 -1.90199E+03  1.91667E+03 -2.50128E+03  3.41836E+02 -2.27440E+03 -1.64533E+03 -1.54980E+02 -3.81743E+03
  1.72755E+03 -2.17878E+03  2.55372E+03 -4.32680E+02  2.65591E+03 -3.28321E+01  1.45936E+03  1.56103E+03
  6.54682E+02  2.46077E+03 -1.14703E+03  1.73246E+03 -2.09716E+03  1.83715E+03 -1.14882E+03  2.52942E+02
 -1.92902E+02 -6.40336E+02 -9.04435E+02  8.42845E+02 -1.46232E+03  5.70109E+02 -2.16006E+03 -4.25050E+02
 -2.42481E+03 -8.39150E+02 -1.19010E+03 -2.42692E+03  1.37434E+03 -3.44702E+03  2.09058E+03 -1.27572E+03
  2.38875E+03 -1.42143E+02  5.19073E+00  1.16256E+03 -3.78462E+02  1.73563E+03 -1.11547E+03  1.22226E+03
