 $NMID ID='MM_0lb_SNR400_14hz_g45_94.RAW', FMTDAT='(8E13.5)'
 TRAMP=1., VOLUME=1. $END
  3.09801E+05  2.18336E+02  3.37318E+05  2.50083E+05  8.44056E+04  3.37596E+05 -1.33266E+05  2.51054E+05
 -1.90173E+05  8.33036E+04 -1.11541E+05 -3.28430E+04  4.82064E+02 -5.07827E+04  5.30292E+04 -6.71291E+02
  3.56177E+04  5.26103E+04 -1.69947E+04  7.49398E+04 -6.05363E+04  6.35700E+04 -8.41566E+04  3.14984E+04
 -8.06274E+04 -1.16256E+04 -5.69865E+04 -5.12220E+04 -1.54002E+04 -6.97253E+04  2.70831E+04 -4.59105E+04
  3.99389E+04  4.03955E+03  1.59654E+04  4.77384E+04 -3.41695E+04  4.72859E+04 -6.67832E+04 -1.59042E+02
 -5.31040E+04 -5.70515E+04 -6.54642E+03 -7.67836E+04  3.41583E+04 -5.47162E+04  4.76091E+04 -1.71128E+04
  4.38696E+04  1.15296E+04  3.20177E+04  2.53177E+04  1.55700E+04  2.91624E+04 -5.04892E+03  2.70193E+04
 -2.20436E+04  1.27218E+04 -1.81367E+04 -4.57120E+03  5.92689E+03 -6.86490E+03  2.24868E+04  1.23606E+04
  7.08372E+03  3.50633E+04 -3.15890E+04  3.54331E+04 -6.32263E+04  2.04043E+03 -5.67665E+04 -4.21660E+04
 -1.18967E+04 -6.29521E+04  3.94710E+04 -4.59483E+04  5.82550E+04 -1.94601E+03  3.39268E+04  3.24749E+04
 -6.41560E+03  3.58914E+04 -2.95690E+04  1.51272E+04 -2.94782E+04 -5.13734E+03 -1.65099E+04 -1.09834E+04
 -8.52959E+03 -1.31848E+04 -3.99926E+02 -1.74263E+04  7.15595E+03 -2.27337E+04  1.50165E+04 -1.40468E+04
  1.17044E+04  5.97138E+03 -7.95490E+03  1.30610E+04 -2.09932E+04 -4.45604E+03 -8.39163E+03 -3.29544E+04
  2.22732E+04 -4.27538E+04  4.76187E+04 -1.95607E+04  4.44623E+04  1.90895E+04  1.52666E+04  4.38764E+04
 -1.65047E+04  3.33784E+04 -2.44240E+04  1.64435E+03 -1.03350E+04 -2.78705E+04  2.13859E+04 -3.35782E+04
  4.04620E+04 -8.97086E+03  3.50014E+04  2.34818E+04  1.77535E+04  4.65684E+04 -8.47722E+03  5.00292E+04
 -3.09787E+04  3.33950E+04 -4.13266E+04  9.64850E+03 -4.18571E+04 -1.62483E+04 -2.33698E+04 -3.71966E+04
  7.49414E+03 -3.73277E+04  3.07640E+04 -1.41700E+04  2.80800E+04  1.05464E+04  4.09576E+03  1.85972E+04
 -1.29576E+04  7.99645E+03 -1.02335E+04 -7.55187E+03  6.67201E+03 -1.08234E+04  1.78780E+04  6.23216E+03
  1.35766E+04  2.19714E+04 -6.23556E+03  2.45720E+04 -2.16202E+04  1.09418E+04 -2.75986E+04 -5.02798E+03
 -2.01651E+04 -1.72411E+04 -8.81063E+03 -1.99245E+04  3.78334E+03 -1.86807E+04  1.55268E+04 -1.75939E+04
  2.59885E+04 -1.20951E+04  3.23077E+04  2.51116E+03  2.33266E+04  1.95641E+04  4.66243E+03  3.55540E+04
 -1.75121E+04  3.02677E+04 -2.73836E+04  1.06908E+04 -2.05395E+04 -9.93413E+03 -4.63941E+03 -1.32425E+04
  2.11433E+03 -3.04783E+03 -4.77038E+03  6.67030E+03 -1.55700E+04  5.26326E+03 -1.64553E+04 -6.85239E+03
 -9.18633E+03 -1.83873E+04  5.13706E+03 -2.26465E+04  1.50927E+04 -1.59512E+04  1.77078E+04 -1.66905E+03
  1.13166E+04  1.26640E+04 -1.37684E+03  1.80749E+04 -1.27646E+04  1.01613E+04 -1.80811E+04 -4.23641E+03
 -1.35261E+04 -1.72901E+04 -1.16135E+03 -2.27470E+04  1.07614E+04 -1.80505E+04  1.85551E+04 -8.99991E+03
  1.76119E+04  3.41894E+02  1.23822E+04  4.56258E+03  7.05719E+03  1.19970E+03  9.50372E+03 -2.04406E+03
  1.71262E+04  3.01617E+03  1.89867E+04  1.51514E+04  1.24421E+04  2.96367E+04 -3.32350E+03  3.37767E+04
 -1.94740E+04  2.67282E+04 -3.06978E+04  1.34099E+04 -3.25513E+04 -2.38849E+03 -2.69595E+04 -1.92131E+04
 -1.18952E+04 -2.65538E+04  9.24359E+03 -2.43559E+04  2.12470E+04 -1.24885E+04  1.90946E+04  5.51601E+03
  7.34087E+03  1.35251E+04 -8.85429E+03  1.29228E+04 -1.58642E+04  2.89757E+03 -1.18379E+04 -1.01368E+04
 -6.42222E+02 -1.44964E+04  7.79124E+03 -1.11164E+04  1.07774E+04 -1.13862E+03  2.37104E+03  6.16501E+03
 -6.97843E+03  2.70484E+03 -5.52173E+03 -5.35575E+03 -3.79827E+02 -1.28794E+04  1.00139E+04 -1.38655E+04
  1.63898E+04 -7.44419E+03  1.70266E+04  2.96150E+03  1.52354E+04  1.29033E+04  6.77255E+03  1.95675E+04
 -3.35241E+03  2.10375E+04 -1.34688E+04  1.40512E+04 -1.55961E+04  3.79915E+03 -1.15717E+04 -3.84256E+03
 -4.67675E+03 -4.68522E+03 -9.79296E+02  1.25940E+03 -2.64871E+03  2.52830E+03 -5.09234E+03  4.43367E+03
 -1.06095E+04 -4.03618E+02 -1.10515E+04 -8.76287E+03 -4.50637E+03 -1.45623E+04  3.84302E+03 -1.16875E+04
  9.78042E+03 -4.88394E+03  6.39595E+03  3.03665E+03  3.57394E+02  4.60696E+03 -4.97237E+03 -9.06886E+01
 -4.84051E+03 -6.80544E+03 -5.24642E+02 -9.78394E+03  6.46353E+03 -1.12848E+04  1.34955E+04 -5.40023E+03
  1.55076E+04  1.44633E+03  1.18787E+04  8.90366E+03  2.11863E+03  1.23748E+04 -7.04431E+03  1.04330E+04
 -9.18291E+03  3.23376E+03 -3.97695E+03 -1.98764E+03  1.77686E+03 -2.88223E+03  6.60505E+03 -1.05822E+03
  4.84620E+03  4.47930E+03  1.35467E+03  8.79739E+03 -6.49083E+03  8.28902E+03 -1.07505E+04  1.78098E+03
 -6.95853E+03 -5.15769E+03  2.99718E+02 -8.91165E+03  6.34045E+03 -4.53576E+03  5.42123E+03  2.23661E+03
  9.33134E+02  5.66694E+03 -5.44020E+03  6.51219E+03 -7.80840E+03  3.63954E+03 -7.64962E+03 -2.82521E+03
 -4.56332E+03 -9.43860E+03  2.07676E+03 -1.08037E+04  8.72009E+03 -6.63865E+03  1.04302E+04  1.51022E+03
  7.02767E+03  8.53929E+03 -5.64053E+02  1.04161E+04 -7.58910E+03  5.07664E+03 -8.46442E+03 -6.48969E+02
 -7.58925E+03 -6.98418E+03 -1.20938E+03 -7.69932E+03  4.64766E+03 -6.65362E+03  5.14314E+03 -2.52357E+03
  3.21620E+03  1.18275E+03 -2.34978E+02  1.39360E+03  1.26777E+02 -1.49481E+03  6.41501E+02 -3.44828E+03
  6.58658E+03 -2.41304E+03  9.34358E+03  1.02606E+03  8.81903E+03  6.24120E+03  6.70046E+03  1.21787E+04
 -2.17510E+03  1.38245E+04 -1.20609E+04  1.08021E+04 -1.51677E+04  2.05631E+03 -1.22950E+04 -5.14239E+03
 -5.87205E+03 -1.00556E+04 -1.13956E+02 -8.12674E+03  3.32310E+03 -4.78455E+03  3.72470E+03 -3.20752E+03
  2.07168E+03 -1.38387E+03  2.46794E+03 -2.39887E+03  4.12209E+03 -2.23997E+03  4.76126E+03 -1.35744E+01
  6.39470E+03  1.07719E+03  2.17660E+03  5.34149E+03 -2.03929E+03  6.05207E+03 -6.88490E+03  4.92235E+03
 -8.51748E+03 -7.40606E+02 -5.21350E+03 -5.23709E+03 -2.05925E+01 -9.45324E+03  4.91836E+03 -9.07317E+03
  8.78962E+03 -4.75156E+03  1.08984E+04  1.12943E+03  7.74897E+03  7.54019E+03  1.23500E+03  1.04433E+04
 -3.66921E+03  9.27481E+03 -6.16576E+03  2.93737E+03 -3.60149E+03 -1.72635E+03 -1.52825E+03 -8.70585E+02
 -1.52415E+03 -1.15346E+02 -1.21389E+03  2.23757E+03 -3.86368E+03  1.44926E+03 -6.00492E+03 -1.07561E+03
 -3.07223E+03 -5.62493E+03  1.94868E+02 -7.86295E+03  4.57340E+03 -7.27315E+03  7.13858E+03 -2.27757E+03
  7.36302E+03  3.74540E+03  3.24599E+03  7.06510E+03 -8.04682E+02  7.41014E+03 -5.07012E+03  4.83736E+03
 -6.65264E+03  1.22555E+03 -5.66097E+03 -4.36364E+03 -9.52423E+02 -6.21018E+03  2.63472E+03 -4.62320E+03
  5.04310E+03 -1.80648E+03  3.01188E+03  1.21221E+03  9.30886E+02  3.20423E+03  1.32340E+03  1.02438E+03
  2.31841E+03  9.59450E+02  1.87927E+03  1.35668E+03  2.38832E+03  3.51939E+03  1.86109E+03  3.91704E+03
 -2.13519E+03  6.13255E+03 -4.94489E+03  6.49061E+03 -6.30123E+03  1.87655E+03 -7.59788E+03 -2.66005E+03
 -3.46998E+03 -6.90376E+03  1.14547E+03 -8.51810E+03  4.37572E+03 -5.24837E+03  5.59712E+03 -1.91174E+03
  4.84266E+03  3.07173E+03  1.18775E+03  4.86979E+03 -2.05743E+03  2.90980E+03 -2.39131E+03  6.87758E+00
 -1.31353E+03 -2.72135E+03  1.79303E+03 -2.78684E+03  2.50859E+03 -1.87989E+03  2.43714E+03  3.91707E+02
  1.52965E+03  1.28901E+03  8.70061E+02  6.68867E+02  2.43040E+00  9.17409E+02  1.73058E+03 -3.14914E+02
  8.61630E+02 -6.66404E+02  3.01453E+03  1.54354E+03  1.16972E+03  3.23336E+03 -5.54280E+02  5.00370E+03
 -3.32354E+03  2.98725E+03 -4.34490E+03  2.14856E+02 -4.37810E+03 -1.62312E+03 -1.49303E+03 -1.73394E+03
  9.82087E+02 -3.04731E+03  1.48508E+03 -1.65218E+03  1.27881E+03  1.13593E+03 -1.46918E+03  2.30991E+03
 -3.09123E+03  1.46791E+03 -3.49753E+03 -2.44244E+03 -1.83915E+03 -4.10650E+03  2.87671E+02 -3.83878E+03
  1.54751E+03 -1.99283E+03  2.17635E+03 -8.41482E+00  2.17543E+03  7.09833E+02  7.89595E+02  2.49996E+03
 -1.39173E+03  3.92775E+01 -9.45896E+02 -1.45753E+03  6.70955E+02 -2.55674E+03  3.49386E+03 -2.52731E+03
  3.42202E+03  5.17846E+02  4.86686E+03  2.05112E+03  1.13534E+03  3.80848E+03 -1.05169E+03  4.25045E+03
 -3.75451E+03  1.87942E+03 -3.87968E+03 -6.60047E+02 -1.81018E+03 -2.50963E+03  7.82251E+02 -1.77494E+03
  2.79769E+03 -1.72500E+03  2.08233E+03  9.33119E+02  1.20894E+03  2.53944E+03 -1.55936E+02  2.27602E+03
 -1.17221E+03  1.40804E+03 -1.18816E+03  1.87264E+02  3.62421E+02  1.13390E+03 -1.02038E+03  6.56284E+02
 -1.35407E+03  2.05923E+03 -3.24299E+03  1.45424E+03 -4.11541E+03  6.01378E+02 -4.88750E+03 -2.32000E+03
 -1.82541E+03 -5.82997E+03  1.07792E+03 -6.06929E+03  3.10954E+03 -5.22742E+03  6.34368E+03 -2.04028E+03
  5.10914E+03  4.35218E+02  3.53811E+03  4.48526E+03 -4.33802E+02  3.99115E+03 -1.77557E+03  2.87070E+03
 -2.12818E+03  1.11834E+03 -1.18467E+03 -2.20062E+02 -1.00243E+03  1.59248E+02 -9.34710E+02  1.30750E+02
 -1.60719E+03  4.92117E+01 -1.33279E+03 -4.79111E+02 -2.50986E+02 -4.92601E+02 -3.69176E+02 -1.69345E+03
  2.78823E+03 -1.46713E+03  2.20463E+03  1.30223E+01  3.38927E+03  2.24076E+03  3.14577E+02  3.71162E+03
 -2.59396E+03  5.33509E+03 -4.57071E+03  2.41516E+03 -4.71750E+03 -5.66713E+02 -4.13901E+03 -2.88380E+03
 -2.40428E+03 -4.32505E+03  7.51856E+02 -3.68604E+03  2.14996E+03 -1.84061E+03  1.86673E+03 -6.97225E+01
  1.18770E+03  1.37631E+03  1.24076E+02  1.24212E+03 -1.43683E+02  4.41650E+01 -3.00883E+02 -1.15044E+03
  7.89909E+02 -5.42679E+01  1.00526E+03  9.27967E+02  8.78441E+02  1.38933E+03  3.47714E+02  2.01550E+03
 -1.57882E+03  1.93340E+03 -2.52892E+03  2.06594E+02 -2.26435E+03 -1.42503E+03 -3.05137E+02 -2.78589E+03
  1.90585E+03 -1.97470E+03  2.44987E+03 -5.46004E+02  2.86216E+03 -1.34568E+02  1.42827E+03  2.25278E+03
  3.72052E+02  2.31876E+03 -2.28870E+02  1.64711E+03 -1.42693E+03  1.46558E+03 -1.39680E+03 -2.80579E+01
 -5.14702E+02 -1.53484E+02 -1.18972E+03  2.70437E+02 -1.08936E+03  9.83384E+02 -2.36176E+03 -3.60048E+02
 -2.42413E+03 -6.87507E+02 -1.27963E+03 -3.14787E+03  1.21940E+03 -3.77776E+03  2.62580E+03 -9.85045E+02
  1.98595E+03  4.76818E+02  5.90830E+02  1.64832E+03 -7.34152E+01  2.74183E+03 -1.69349E+03  1.70405E+03
