 $NMID ID='MM_0lb_SNR400_13hz_g45_46.RAW', FMTDAT='(8E13.5)'
 TRAMP=1., VOLUME=1. $END
  3.10095E+05  5.43358E+02  3.37847E+05  2.50806E+05  8.43331E+04  3.37766E+05 -1.32807E+05  2.51034E+05
 -1.90422E+05  8.33824E+04 -1.11929E+05 -3.13935E+04  7.97250E+02 -5.01259E+04  5.35781E+04 -8.58917E+02
  3.48343E+04  5.26523E+04 -1.73739E+04  7.55690E+04 -6.09891E+04  6.29407E+04 -8.44481E+04  3.24501E+04
 -8.10821E+04 -1.13874E+04 -5.74907E+04 -5.12451E+04 -1.50783E+04 -6.97917E+04  2.74342E+04 -4.57245E+04
  4.01000E+04  3.58697E+03  1.62380E+04  4.80988E+04 -3.43839E+04  4.68155E+04 -6.70894E+04  2.95849E+02
 -5.37763E+04 -5.65065E+04 -7.14665E+03 -7.63838E+04  3.39671E+04 -5.53221E+04  4.74721E+04 -1.78911E+04
  4.30033E+04  1.16892E+04  3.20164E+04  2.56153E+04  1.63382E+04  2.92667E+04 -4.92895E+03  2.69883E+04
 -2.20727E+04  1.17520E+04 -1.79080E+04 -5.21001E+03  5.44243E+03 -8.02635E+03  2.26351E+04  1.22503E+04
  7.79184E+03  3.58628E+04 -3.21599E+04  3.51424E+04 -6.32728E+04  1.85347E+03 -5.73756E+04 -4.31511E+04
 -1.26264E+04 -6.39719E+04  4.01216E+04 -4.52026E+04  5.83040E+04 -2.39632E+03  3.45825E+04  3.29704E+04
 -6.79248E+03  3.57651E+04 -3.09710E+04  1.61771E+04 -3.03013E+04 -4.61637E+03 -1.63284E+04 -1.12339E+04
 -8.40045E+03 -1.32597E+04 -8.84133E+02 -1.77126E+04  7.65970E+03 -2.31824E+04  1.53827E+04 -1.33277E+04
  1.17182E+04  5.38328E+03 -8.32271E+03  1.35314E+04 -2.17631E+04 -4.42324E+03 -8.33586E+03 -3.39749E+04
  2.31397E+04 -4.36870E+04  4.80550E+04 -1.96361E+04  4.58139E+04  1.95652E+04  1.55147E+04  4.38419E+04
 -1.62372E+04  3.40602E+04 -2.56474E+04  2.16890E+03 -9.94818E+03 -2.75649E+04  2.09065E+04 -3.42797E+04
  4.17766E+04 -9.95699E+03  3.62899E+04  2.43151E+04  1.85055E+04  4.66333E+04 -8.30424E+03  5.09028E+04
 -3.20617E+04  3.40859E+04 -4.24154E+04  9.82400E+03 -4.28773E+04 -1.68048E+04 -2.36863E+04 -3.81086E+04
  7.69800E+03 -3.86514E+04  3.12839E+04 -1.47473E+04  3.00646E+04  1.10171E+04  4.34090E+03  1.95750E+04
 -1.34712E+04  8.82292E+03 -1.02462E+04 -7.75980E+03  6.09670E+03 -1.10510E+04  1.76108E+04  5.83729E+03
  1.40354E+04  2.20422E+04 -5.13610E+03  2.56387E+04 -2.19214E+04  1.14030E+04 -2.84219E+04 -4.76404E+03
 -2.11272E+04 -1.79700E+04 -8.54329E+03 -2.06144E+04  4.33608E+03 -2.01773E+04  1.63824E+04 -1.96557E+04
  2.65417E+04 -1.28665E+04  3.28505E+04  3.21115E+03  2.40079E+04  2.00679E+04  4.17528E+03  3.66485E+04
 -1.80794E+04  3.03620E+04 -2.87262E+04  1.03373E+04 -2.13839E+04 -1.02967E+04 -4.87567E+03 -1.31951E+04
  1.52057E+03 -2.33855E+03 -5.07633E+03  6.72556E+03 -1.67541E+04  4.99123E+03 -1.70022E+04 -7.06794E+03
 -1.04496E+04 -1.96507E+04  5.23689E+03 -2.31277E+04  1.58521E+04 -1.69576E+04  1.80953E+04 -1.67153E+03
  1.20389E+04  1.32654E+04 -1.01123E+03  1.92617E+04 -1.32137E+04  1.09677E+04 -1.94132E+04 -4.16926E+03
 -1.39975E+04 -1.78835E+04 -2.02071E+03 -2.33802E+04  1.06243E+04 -1.90226E+04  1.97709E+04 -9.54795E+03
  1.78768E+04  5.16659E+02  1.29116E+04  4.82156E+03  7.22041E+03  1.55651E+03  1.00561E+04 -2.27933E+03
  1.75447E+04  2.43996E+03  1.97082E+04  1.45563E+04  1.26243E+04  3.12160E+04 -2.72779E+03  3.45343E+04
 -2.00896E+04  2.84006E+04 -3.27883E+04  1.42252E+04 -3.45251E+04 -2.76861E+03 -2.78496E+04 -1.98172E+04
 -1.26735E+04 -2.85736E+04  1.06041E+04 -2.51885E+04  2.31613E+04 -1.29003E+04  1.99995E+04  5.86256E+03
  7.02734E+03  1.46624E+04 -9.35364E+03  1.28362E+04 -1.66215E+04  2.48978E+03 -1.22866E+04 -9.94077E+03
 -4.56055E+02 -1.58837E+04  7.98542E+03 -1.17200E+04  1.03944E+04 -2.01466E+03  1.84488E+03  6.75812E+03
 -7.38685E+03  2.61983E+03 -6.92103E+03 -5.94822E+03 -4.35137E+02 -1.42495E+04  9.64940E+03 -1.53633E+04
  1.73087E+04 -8.42546E+03  1.89052E+04  3.35480E+03  1.59078E+04  1.39071E+04  7.14497E+03  2.15799E+04
 -4.08310E+03  2.30147E+04 -1.50745E+04  1.43223E+04 -1.64543E+04  3.32385E+03 -1.17392E+04 -3.62519E+03
 -5.72075E+03 -4.79113E+03 -9.75619E+02  1.23740E+03 -2.10135E+03  2.73023E+03 -5.69138E+03  4.59661E+03
 -1.11270E+04 -5.71026E+02 -1.14385E+04 -9.40401E+03 -3.85659E+03 -1.48557E+04  4.88684E+03 -1.23215E+04
  1.02708E+04 -5.15725E+03  6.70291E+03  3.36617E+03 -1.29222E+02  3.98931E+03 -5.66333E+03 -1.81949E+02
 -5.05163E+03 -7.79357E+03 -1.08622E+03 -1.14817E+04  6.66664E+03 -1.25277E+04  1.43567E+04 -5.57358E+03
  1.73648E+04  1.62656E+03  1.25888E+04  1.04324E+04  2.75370E+03  1.34545E+04 -7.35332E+03  1.22139E+04
 -9.64763E+03  3.88577E+03 -4.90796E+03 -2.41517E+03  1.60198E+03 -2.66162E+03  5.71162E+03 -2.52861E+02
  6.02165E+03  5.08070E+03  1.64018E+03  9.55123E+03 -6.27443E+03  8.56418E+03 -1.11953E+04  1.83340E+03
 -7.97096E+03 -6.21784E+03  2.08428E+02 -1.01492E+04  6.33659E+03 -5.38816E+03  6.07242E+03  1.92445E+03
  1.31273E+03  6.55496E+03 -6.37708E+03  7.42842E+03 -9.00257E+03  3.60224E+03 -9.28441E+03 -3.13441E+03
 -5.53281E+03 -1.07367E+04  2.52373E+03 -1.22769E+04  9.97096E+03 -7.72343E+03  1.17432E+04  2.07868E+03
  7.20650E+03  8.73448E+03 -1.06944E+03  1.09937E+04 -8.43148E+03  6.54423E+03 -9.09455E+03 -5.59631E+02
 -7.99337E+03 -7.71162E+03 -1.91523E+03 -8.30230E+03  4.13912E+03 -6.30925E+03  5.78079E+03 -3.22896E+03
  3.68521E+03  8.37772E+02 -1.14206E+02  1.29301E+03  2.93185E+02 -1.53003E+03  1.37535E+03 -4.26599E+03
  7.76267E+03 -3.09924E+03  1.00737E+04  1.42818E+03  9.86582E+03  6.80055E+03  7.04670E+03  1.25651E+04
 -2.45088E+03  1.58203E+04 -1.34248E+04  1.21252E+04 -1.65430E+04  2.82910E+03 -1.45956E+04 -4.63469E+03
 -6.65159E+03 -1.05078E+04 -4.57832E+02 -9.39693E+03  3.38645E+03 -4.64028E+03  3.64102E+03 -3.68598E+03
  2.44069E+03 -2.47299E+03  2.19388E+03 -3.84309E+03  4.03954E+03 -1.83914E+03  5.74451E+03 -7.13106E+02
  7.26190E+03  1.50891E+03  2.93973E+03  6.44457E+03 -1.05213E+03  7.03416E+03 -7.82874E+03  5.18136E+03
 -9.12848E+03 -1.52027E+03 -5.40646E+03 -6.97671E+03 -2.54580E+02 -9.36813E+03  5.12037E+03 -1.00744E+04
  1.01889E+04 -5.55349E+03  1.19733E+04  1.01914E+03  8.76036E+03  8.31249E+03  1.19044E+03  1.13191E+04
 -4.34500E+03  9.51398E+03 -6.35216E+03  3.33662E+03 -4.65470E+03 -1.10301E+03 -1.61208E+03 -9.43096E+02
 -7.41412E+02  1.89856E+02 -1.49568E+03  2.53043E+03 -4.35207E+03  1.80015E+03 -6.64797E+03 -1.63160E+02
 -4.19854E+03 -7.09840E+03  1.15216E+03 -8.95043E+03  4.87534E+03 -8.34429E+03  8.80690E+03 -2.38234E+03
  9.10984E+03  4.78675E+03  3.75789E+03  7.97824E+03 -1.87103E+03  9.00522E+03 -5.87197E+03  5.16177E+03
 -8.38468E+03  7.55506E+02 -6.87508E+03 -5.73534E+03 -9.88763E+02 -7.02909E+03  3.37089E+03 -5.09764E+03
  5.38514E+03 -1.44659E+03  3.97538E+03  1.32229E+03  1.11890E+03  3.62638E+03  7.46005E+02  1.65836E+03
  2.39874E+03  1.03598E+03  2.65265E+03  1.63731E+03  2.60366E+03  3.63216E+03  2.70912E+03  4.31170E+03
 -2.06338E+03  6.71796E+03 -5.75148E+03  7.80807E+03 -8.58554E+03  2.58082E+03 -8.85817E+03 -3.56163E+03
 -4.12556E+03 -8.50437E+03  1.71078E+03 -1.00556E+04  5.50588E+03 -5.82549E+03  6.29856E+03 -1.74912E+03
  5.53624E+03  2.99580E+03  1.46368E+03  5.05944E+03 -1.88761E+03  3.18150E+03 -4.29353E+03 -4.17224E+02
 -2.11786E+03 -2.55413E+03  1.59806E+03 -3.43639E+03  3.44023E+03 -2.12168E+03  3.92281E+03  6.26990E+02
  1.87696E+03  1.86867E+03  2.94192E+02  7.35169E+02 -2.92933E+02  1.43655E+03  1.46336E+03 -2.22483E+01
  1.59356E+03 -1.66265E+02  4.00264E+03  1.32211E+03  1.52058E+03  5.48435E+03 -4.45659E+02  6.02254E+03
 -4.52379E+03  3.77351E+03 -4.99880E+03  1.20478E+03 -4.26395E+03 -1.78040E+03 -1.60208E+03 -3.02132E+03
  2.91969E+02 -3.62354E+03  2.28524E+03 -1.47726E+03  1.54255E+03  1.80703E+03 -9.15735E+02  2.46392E+03
 -2.71533E+03  1.93027E+03 -3.09780E+03 -2.54750E+03 -1.68884E+03 -4.53411E+03  3.17522E+02 -4.00140E+03
  2.18920E+03 -2.57959E+03  3.69549E+03 -3.82366E+02  2.96987E+03  9.21874E+02  1.05513E+01  1.82137E+03
 -1.77686E+03  8.42882E+02 -2.24755E+03 -1.58095E+03  1.83897E+03 -2.54889E+03  4.29295E+03 -2.55270E+03
  4.71461E+03  5.52486E+02  4.91579E+03  2.82451E+03  1.55213E+03  5.14541E+03 -2.03105E+03  4.74670E+03
 -4.43397E+03  1.28974E+03 -3.84024E+03 -2.82698E+02 -2.53465E+03 -3.43309E+03  8.28994E+02 -3.08926E+03
  2.84980E+03 -2.06717E+03  2.30044E+03  1.29534E+03  8.84205E+02  2.94752E+03 -4.53065E+02  2.39480E+03
 -8.82300E+02  1.48162E+03 -8.12013E+02  2.82557E+02 -7.87626E+02  6.25880E+02 -1.17483E+03  5.34655E+02
 -1.80813E+03  2.01296E+03 -3.73670E+03  1.79117E+03 -4.55953E+03  5.41789E+02 -6.05795E+03 -3.29968E+03
 -2.80801E+03 -6.02124E+03  1.32706E+03 -7.79512E+03  4.29866E+03 -5.84428E+03  7.59293E+03 -2.25805E+03
  6.72563E+03  1.54911E+03  3.24230E+03  4.19938E+03  1.86841E+01  3.95965E+03 -2.06393E+03  3.75490E+03
 -3.08933E+03  2.00979E+03 -1.24410E+03 -5.58064E+02 -8.16691E+02  5.58337E+02 -7.84223E+01  7.01555E+02
 -1.57482E+03 -2.43782E+02 -9.33478E+02  6.70765E+01  3.10671E+02 -1.18165E+03 -2.02908E+02 -2.16958E+03
  2.72663E+03 -1.83252E+03  2.76076E+03  1.19607E+02  2.86597E+03  2.33323E+03  3.99562E+02  4.39381E+03
 -2.33639E+03  6.27854E+03 -5.00055E+03  3.35607E+03 -5.29786E+03 -1.59354E+02 -4.50860E+03 -3.61906E+03
 -2.17322E+03 -4.27145E+03  6.52002E+02 -4.49068E+03  2.01520E+03 -2.47905E+03  3.18449E+03  1.96918E+02
  2.15580E+03  1.11279E+03  3.75294E+01  1.20875E+03 -1.09204E+03  2.04029E+02  7.32206E+02 -9.47012E+02
  1.31986E+03 -5.79932E+02  1.93765E+03  2.83218E+02  1.09709E+03  1.52606E+03  5.90787E+02  2.43807E+03
 -2.24289E+03  2.37701E+03 -2.89295E+03  4.87518E+02 -2.38475E+03 -2.14396E+03 -5.44952E+02 -4.20515E+03
  2.16795E+03 -3.54074E+03  2.94053E+03 -6.28178E+02  3.81376E+03  5.29313E+02  2.30851E+03  3.38636E+03
  5.11812E+02  2.80039E+03 -1.03171E+03  1.72438E+03 -1.72533E+03  2.24251E+03 -1.53156E+03  2.99413E+02
 -3.76363E+02  3.29142E+02 -4.74777E+02  3.38818E+02 -1.94864E+03  2.89142E+02 -2.17528E+03 -5.06251E+02
 -2.30525E+03 -1.52334E+03 -1.12181E+03 -2.93032E+03  1.66269E+03 -3.55593E+03  2.16357E+03 -1.31533E+03
  2.42545E+03  1.19888E+02  8.65402E+02  2.00587E+03 -4.56451E+02  3.38138E+03 -2.71421E+03  2.00186E+03
