 $NMID ID='MM_0lb_SNR400_18hz_g50_45.RAW', FMTDAT='(8E13.5)'
 TRAMP=1., VOLUME=1. $END
  3.09801E+05 -2.87332E+01  3.37251E+05  2.50510E+05  8.46836E+04  3.37571E+05 -1.32587E+05  2.50570E+05
 -1.89351E+05  8.21444E+04 -1.11380E+05 -3.27134E+04  7.95677E+02 -5.04193E+04  5.43165E+04 -1.42002E+02
  3.48127E+04  5.27499E+04 -1.72271E+04  7.44456E+04 -6.05785E+04  6.24926E+04 -8.32178E+04  3.22103E+04
 -8.03569E+04 -1.12310E+04 -5.64379E+04 -5.06651E+04 -1.48355E+04 -6.87660E+04  2.64041E+04 -4.51564E+04
  3.93994E+04  3.77152E+03  1.58952E+04  4.69638E+04 -3.40230E+04  4.70384E+04 -6.58915E+04 -4.82914E+02
 -5.25707E+04 -5.62621E+04 -6.31964E+03 -7.57879E+04  3.34673E+04 -5.35003E+04  4.67885E+04 -1.63363E+04
  4.21227E+04  1.10146E+04  3.14368E+04  2.46799E+04  1.56707E+04  2.83046E+04 -4.22962E+03  2.68751E+04
 -2.17572E+04  1.28563E+04 -1.86520E+04 -4.28168E+03  4.78060E+03 -7.75359E+03  2.11763E+04  1.14903E+04
  7.58914E+03  3.34293E+04 -3.11661E+04  3.45014E+04 -6.17665E+04  2.22970E+03 -5.56572E+04 -4.16133E+04
 -1.24702E+04 -6.07479E+04  3.82300E+04 -4.34841E+04  5.62012E+04 -2.13204E+03  3.24441E+04  3.16008E+04
 -6.43680E+03  3.32978E+04 -2.87909E+04  1.39690E+04 -2.84688E+04 -5.15099E+03 -1.42770E+04 -9.90190E+03
 -7.08492E+03 -1.10212E+04 -6.67520E+02 -1.72316E+04  7.10061E+03 -2.27368E+04  1.50527E+04 -1.38387E+04
  1.20773E+04  4.54357E+03 -7.11386E+03  1.27903E+04 -1.99037E+04 -2.89207E+03 -8.23999E+03 -3.13331E+04
  2.13927E+04 -4.05293E+04  4.60579E+04 -1.86227E+04  4.28922E+04  1.89189E+04  1.49741E+04  4.24161E+04
 -1.52974E+04  3.14566E+04 -2.37160E+04  9.97219E+02 -8.51249E+03 -2.70191E+04  2.06548E+04 -3.17920E+04
  3.85215E+04 -7.68083E+03  3.19577E+04  2.32580E+04  1.63045E+04  4.38459E+04 -7.79069E+03  4.64507E+04
 -2.86283E+04  3.07881E+04 -3.83555E+04  8.43458E+03 -3.90325E+04 -1.53714E+04 -2.17162E+04 -3.47327E+04
  7.25520E+03 -3.49798E+04  2.96829E+04 -1.32763E+04  2.72168E+04  1.11831E+04  3.50825E+03  1.85986E+04
 -1.33852E+04  7.38787E+03 -1.00094E+04 -7.38309E+03  5.71210E+03 -1.02936E+04  1.68649E+04  6.64434E+03
  1.24520E+04  2.16700E+04 -6.96018E+03  2.31387E+04 -2.15989E+04  9.63454E+03 -2.58331E+04 -5.47591E+03
 -1.74217E+04 -1.63966E+04 -6.13813E+03 -1.80129E+04  3.56381E+03 -1.61263E+04  1.29580E+04 -1.49558E+04
  2.31045E+04 -1.18189E+04  2.92861E+04  1.09989E+03  2.17025E+04  1.75116E+04  4.20742E+03  3.29451E+04
 -1.63504E+04  2.79511E+04 -2.57238E+04  9.08065E+03 -1.95171E+04 -1.04808E+04 -4.59963E+03 -1.38916E+04
  2.44196E+03 -4.11158E+03 -3.17456E+03  5.85128E+03 -1.30820E+04  5.78137E+03 -1.40693E+04 -5.66160E+03
 -9.12953E+03 -1.57742E+04  4.51463E+03 -1.99987E+04  1.30276E+04 -1.41666E+04  1.53766E+04 -1.31956E+03
  9.36228E+03  1.10827E+04 -5.99603E+02  1.61098E+04 -1.05566E+04  8.98211E+03 -1.59752E+04 -3.76096E+03
 -1.19986E+04 -1.44028E+04 -1.62674E+03 -2.01904E+04  9.28135E+03 -1.53212E+04  1.66157E+04 -8.11297E+03
  1.43327E+04  6.13457E+02  1.06197E+04  3.83717E+03  5.53952E+03  5.84434E+02  7.83143E+03 -1.01396E+03
  1.48383E+04  2.41847E+03  1.54354E+04  1.29470E+04  9.64574E+03  2.55025E+04 -3.73509E+03  2.77643E+04
 -1.69196E+04  2.11791E+04 -2.60184E+04  1.04471E+04 -2.64916E+04 -1.92210E+03 -2.24158E+04 -1.49851E+04
 -1.02496E+04 -2.15369E+04  7.48671E+03 -2.01237E+04  1.74238E+04 -1.17248E+04  1.56876E+04  4.20894E+03
  6.84222E+03  1.21768E+04 -7.33187E+03  1.07014E+04 -1.35618E+04  2.92738E+03 -1.04845E+04 -8.37924E+03
 -4.68390E+02 -1.31881E+04  6.10776E+03 -9.86425E+03  7.65794E+03 -1.45408E+03  1.05155E+03  5.31904E+03
 -5.85353E+03  1.65338E+03 -3.33946E+03 -5.20981E+03  3.50031E+02 -1.09253E+04  8.29977E+03 -1.05916E+04
  1.33862E+04 -5.38235E+03  1.27670E+04  2.94206E+03  1.11926E+04  9.78273E+03  5.04610E+03  1.50031E+04
 -1.65402E+03  1.61844E+04 -1.00522E+04  1.07274E+04 -1.13139E+04  3.16457E+03 -8.57113E+03 -1.77811E+03
 -4.29008E+03 -3.22052E+03 -1.33913E+03  2.03309E+03 -2.28184E+03  2.45451E+03 -3.88670E+03  3.01651E+03
 -8.23151E+03  3.14618E+01 -9.21295E+03 -7.78969E+03 -4.09194E+03 -1.16555E+04  3.72415E+03 -8.97736E+03
  7.52498E+03 -3.96918E+03  5.55638E+03  2.37421E+03 -1.41534E+02  3.51837E+03 -3.92330E+03  1.90374E+02
 -3.68553E+03 -5.68634E+03 -5.53368E+02 -7.98902E+03  4.40096E+03 -7.96003E+03  1.00621E+04 -4.24105E+03
  1.25688E+04  7.27816E+02  8.94915E+03  6.47371E+03  2.03023E+03  9.10473E+03 -5.08363E+03  9.11135E+03
 -7.14910E+03  3.34936E+03 -3.52743E+03 -1.27082E+03  1.47785E+03 -2.64858E+03  5.61092E+03 -7.25556E+02
  4.60541E+03  3.65132E+03  9.33148E+02  6.97132E+03 -4.80629E+03  6.54145E+03 -8.01432E+03  1.65572E+03
 -4.55450E+03 -3.33248E+03 -7.75385E+01 -7.20366E+03  4.24690E+03 -3.49384E+03  3.77766E+03  1.33689E+03
  4.45452E+02  3.73484E+03 -4.19542E+03  5.02294E+03 -5.44528E+03  2.24107E+03 -4.84488E+03 -1.44326E+03
 -3.53792E+03 -6.50757E+03  1.22249E+03 -7.78095E+03  6.37411E+03 -5.29451E+03  7.26045E+03  9.61660E+02
  5.18037E+03  5.85747E+03  1.74744E+00  7.69129E+03 -5.40597E+03  4.08461E+03 -5.84375E+03 -8.00220E+02
 -5.83776E+03 -5.74586E+03 -8.74338E+02 -5.56749E+03  2.79725E+03 -5.09053E+03  3.29543E+03 -2.46568E+03
  2.77059E+03 -2.55241E+02  4.00431E+02  9.80543E+02  7.80513E+02 -1.30790E+03 -9.29495E+01 -1.44060E+03
  4.40540E+03 -8.50459E+02  5.91488E+03  6.44004E+02  6.06159E+03  3.42494E+03  5.46454E+03  8.27289E+03
 -1.72815E+03  8.67783E+03 -7.85641E+03  7.12870E+03 -1.05244E+04  1.36568E+03 -8.26113E+03 -2.70387E+03
 -4.80248E+03 -6.96339E+03 -2.50435E+02 -5.46869E+03  1.83968E+03 -2.46622E+03  1.63917E+03 -2.69310E+03
  1.19908E+03 -2.07583E+03  1.72155E+03 -2.46383E+03  3.35810E+03 -8.41164E+02  3.56189E+03  8.80015E+02
  4.79994E+03  9.30670E+02  1.50621E+03  3.65937E+03 -2.27290E+03  2.86225E+03 -4.58319E+03  2.78519E+03
 -5.19316E+03 -8.88501E+02 -2.52043E+03 -3.36397E+03  2.45417E+02 -5.93719E+03  3.61265E+03 -5.61869E+03
  5.34291E+03 -3.22669E+03  7.23305E+03  4.14364E+02  5.19753E+03  4.58918E+03  5.85520E+02  6.03172E+03
 -2.64792E+03  6.18083E+03 -3.90596E+03  2.04395E+03 -1.65841E+03 -1.24544E+03  2.16406E+02 -7.58960E+02
  1.04387E+02  5.72279E+02 -7.98768E+02  1.33356E+03 -3.15398E+03  1.16004E+03 -4.45000E+03 -6.04312E+02
 -1.77684E+03 -3.97646E+03  6.41639E+02 -4.88100E+03  2.88662E+03 -4.74830E+03  4.27910E+03 -1.31119E+03
  4.29289E+03  2.80999E+03  2.22742E+03  3.25628E+03 -1.37118E+03  5.00718E+03 -3.12221E+03  2.74531E+03
 -4.53833E+03  8.62047E+02 -3.22471E+03 -2.66154E+03 -4.42920E+02 -3.22695E+03  1.43658E+03 -3.07794E+03
  3.49857E+03 -1.09570E+03  2.02112E+03 -1.52201E+01  5.07180E+02  1.58013E+03  1.08838E+03  4.52675E+02
  1.20916E+03  7.57246E+02  1.06123E+03  1.05056E+03  7.38299E+02  2.21010E+03  1.04232E+03  2.09278E+03
 -1.26761E+03  2.84655E+03 -2.94522E+03  4.70481E+03 -3.08269E+03  1.54560E+03 -4.57137E+03 -7.66957E+02
 -1.84013E+03 -4.17484E+03  1.04222E+03 -5.49472E+03  1.98749E+03 -3.40074E+03  3.95829E+03 -7.25868E+02
  2.40003E+03  1.70630E+03  6.72161E+02  1.95333E+03 -8.15763E+02  1.10321E+03 -6.40898E+02 -5.95665E+02
 -7.03359E+02 -1.31165E+03  1.08245E+03 -2.03504E+03  1.60864E+03 -1.27816E+03  1.35077E+03  4.36350E+02
  8.07168E+02  1.04650E+03  9.43490E+02  1.47975E+02 -2.93814E+02  9.17609E+02  1.02568E+03 -7.58637E+02
  5.02283E+02 -1.70325E+02  2.19775E+03  9.36538E+02  7.61867E+02  1.70632E+03 -4.82508E+02  2.70783E+03
 -2.23704E+03  1.63520E+03 -2.47793E+03  8.38148E+02 -2.41492E+03 -6.63834E+02 -6.49472E+02 -1.27836E+03
  8.07859E+02 -1.71635E+03  1.00124E+03 -1.09828E+03  6.43562E+02  1.28473E+03 -1.04556E+03  1.32995E+03
 -1.60585E+03  8.38797E+02 -1.05137E+03 -1.66500E+03 -1.27143E+03 -2.87393E+03  1.54297E+00 -1.62843E+03
  4.22547E+02 -9.06351E+02  4.60342E+02  3.36650E+02  1.04556E+03  7.12176E+02  3.76564E+02  1.10485E+03
 -2.94642E+02  2.41507E+02 -1.19642E+03 -4.01556E+01  8.83470E+02 -1.60877E+03  1.92252E+03 -1.21761E+03
  8.79637E+02  6.66744E+01  2.61054E+03  4.00215E+02  1.14679E+03  2.28237E+03 -8.15325E+02  1.52744E+03
 -1.41936E+03  4.47331E+02 -2.09655E+03 -1.59966E+02 -9.68535E+02 -1.48764E+03  3.09117E+02 -9.14966E+02
  1.64522E+03 -1.03023E+03  5.29646E+02  9.16424E+02 -1.34014E+02  1.55127E+03  9.49443E+02  1.08073E+03
 -7.76830E+02  8.12562E+02  3.44537E+02  5.81019E+02  1.46820E+02  4.74288E+02 -1.02936E+03  3.45519E+02
 -8.71127E+01  8.51238E+02 -2.22815E+03  2.96538E+02 -1.80474E+03  5.29529E+02 -2.07218E+03 -1.19303E+03
 -1.24383E+03 -1.81594E+03  4.22173E+02 -3.19182E+03  1.28182E+03 -2.65618E+03  2.91781E+03 -1.60926E+03
  2.78762E+03 -3.58661E+02  1.38470E+03  1.98204E+03 -1.24603E+02  1.75179E+03 -2.39957E+02  1.19099E+03
 -1.13321E+03  8.90997E+02 -2.36162E+02 -2.86400E+02 -5.01322E+02 -8.93185E+01 -5.00959E+02  4.04093E+02
 -1.18218E+03 -2.02770E+02 -4.06268E+02 -2.33162E+01  2.37752E+02 -7.61507E+02 -1.93667E+02 -4.68674E+02
  7.54026E+02 -4.62780E+02  5.07798E+02 -3.97050E+02  8.28493E+02  7.69252E+02 -6.30359E+01  1.84801E+03
 -9.06341E+02  3.25405E+03 -1.79103E+03  1.55910E+03 -1.78318E+03  1.68492E+02 -1.63208E+03 -1.25724E+03
 -1.06986E+03 -1.14284E+03 -1.08309E+02 -1.09111E+03  2.29372E+02 -3.35610E+02  1.39679E+03 -9.13680E+00
  9.74354E+02  5.63745E+02  7.91837E+01  3.77631E+02 -1.21985E+02 -1.76985E+02  1.76885E+02 -3.34757E+02
  2.00631E+02  1.94636E+02  6.76701E+02  6.27738E+02 -2.54975E+02  4.94468E+02 -1.51342E+02 -1.50620E+01
 -6.69987E+02  8.48255E+02 -3.72372E+02  4.41401E+02 -1.26912E+03 -7.23727E+02 -1.61249E+02 -7.16870E+02
  1.10736E+03 -7.07707E+02  4.41673E+02 -4.38947E+02  1.39469E+03 -3.98176E+02  5.02842E+02  8.70546E+02
 -4.65470E+01  7.13661E+02 -5.11860E+01  5.46415E+02 -9.27207E+02  8.24393E+02 -8.57901E+02  3.91906E+02
  1.19773E+02 -1.26332E+02  2.91051E+01  7.37205E+01 -6.37113E+02  3.90470E+02 -7.86980E+02 -1.69119E+02
 -5.62627E+02  1.24548E+01 -5.51344E+02 -9.38818E+02  8.44013E+02 -1.87545E+03  1.25465E+03 -4.99959E+02
  2.77423E+02  4.81451E+02 -7.17110E+02  3.22140E+02  4.09044E+01  1.18186E+03 -4.04360E+02  8.08622E+02
