 $NMID ID='MM_0lb_SNR400_12hz_g55_77.RAW', FMTDAT='(8E13.5)'
 TRAMP=1., VOLUME=1. $END
  3.10620E+05  1.09387E+03  3.37256E+05  2.51386E+05  8.48534E+04  3.38776E+05 -1.32596E+05  2.51535E+05
 -1.90137E+05  8.38509E+04 -1.12347E+05 -3.21111E+04  7.17661E+02 -5.14633E+04  5.35163E+04 -1.59856E+02
  3.51751E+04  5.25542E+04 -1.73976E+04  7.55976E+04 -6.14563E+04  6.35092E+04 -8.46627E+04  3.24733E+04
 -8.19140E+04 -1.13961E+04 -5.76954E+04 -5.21755E+04 -1.49680E+04 -7.02361E+04  2.78794E+04 -4.72076E+04
  4.03782E+04  3.39596E+03  1.73502E+04  4.84205E+04 -3.54198E+04  4.78612E+04 -6.69641E+04  1.62382E+02
 -5.41830E+04 -5.75654E+04 -7.07178E+03 -7.79445E+04  3.47348E+04 -5.61549E+04  4.95371E+04 -1.80385E+04
  4.43983E+04  1.15266E+04  3.19456E+04  2.68581E+04  1.60648E+04  2.98278E+04 -5.71382E+03  2.66906E+04
 -2.30895E+04  1.26338E+04 -1.83696E+04 -5.72978E+03  6.45754E+03 -6.88752E+03  2.25842E+04  1.36350E+04
  6.77030E+03  3.67413E+04 -3.31021E+04  3.65508E+04 -6.48747E+04  1.86316E+03 -5.84267E+04 -4.35096E+04
 -1.23640E+04 -6.49214E+04  4.07909E+04 -4.61500E+04  5.94002E+04 -2.32374E+03  3.54424E+04  3.34660E+04
 -5.98558E+03  3.84331E+04 -3.18416E+04  1.75456E+04 -3.23420E+04 -3.51193E+03 -1.92198E+04 -1.17188E+04
 -8.93590E+03 -1.39521E+04 -4.88512E+02 -1.95151E+04  7.98356E+03 -2.33771E+04  1.51083E+04 -1.28967E+04
  1.04101E+04  5.74833E+03 -9.47128E+03  1.29000E+04 -2.25697E+04 -6.08230E+03 -8.81215E+03 -3.58680E+04
  2.39659E+04 -4.49757E+04  5.02241E+04 -1.97884E+04  4.68473E+04  2.08854E+04  1.66811E+04  4.61509E+04
 -1.70996E+04  3.45979E+04 -2.65818E+04  2.09525E+03 -1.14755E+04 -2.87480E+04  2.10614E+04 -3.56390E+04
  4.28915E+04 -1.00445E+04  3.85575E+04  2.41064E+04  1.94891E+04  4.83711E+04 -7.93464E+03  5.40405E+04
 -3.37998E+04  3.58716E+04 -4.54180E+04  1.06628E+04 -4.46405E+04 -1.76542E+04 -2.50152E+04 -3.95283E+04
  7.75468E+03 -4.07909E+04  3.29498E+04 -1.62244E+04  3.05851E+04  1.09180E+04  4.64538E+03  1.96088E+04
 -1.47643E+04  8.77672E+03 -1.09376E+04 -7.31103E+03  5.55726E+03 -1.19502E+04  1.85778E+04  5.80946E+03
  1.47172E+04  2.28897E+04 -5.74734E+03  2.62142E+04 -2.25629E+04  1.26426E+04 -2.97384E+04 -3.89183E+03
 -2.30064E+04 -1.81501E+04 -9.75400E+03 -2.28008E+04  4.14839E+03 -2.38828E+04  1.77962E+04 -2.07861E+04
  2.92098E+04 -1.40207E+04  3.52911E+04  3.55628E+03  2.49133E+04  2.28074E+04  4.35983E+03  3.91084E+04
 -1.95941E+04  3.23783E+04 -2.88630E+04  1.18927E+04 -2.09103E+04 -9.89473E+03 -4.50559E+03 -1.29740E+04
  1.54087E+03 -1.82716E+03 -7.06156E+03  7.24103E+03 -1.79218E+04  5.24764E+03 -1.86340E+04 -8.45903E+03
 -1.13890E+04 -2.12503E+04  6.23694E+03 -2.52100E+04  1.72961E+04 -1.86017E+04  2.04618E+04 -1.86189E+03
  1.22471E+04  1.47052E+04 -1.24545E+03  2.10176E+04 -1.41619E+04  1.23920E+04 -2.18068E+04 -4.54093E+03
 -1.51234E+04 -1.92989E+04 -2.07969E+03 -2.59765E+04  1.11695E+04 -2.04167E+04  2.09550E+04 -1.07642E+04
  1.98679E+04  6.05005E+02  1.44347E+04  5.41946E+03  7.30743E+03  5.58690E+02  1.06519E+04 -1.56015E+03
  1.98614E+04  2.32517E+03  2.22148E+04  1.67878E+04  1.49640E+04  3.40615E+04 -1.88735E+03  3.85893E+04
 -2.24668E+04  3.25232E+04 -3.66132E+04  1.68946E+04 -3.88821E+04 -2.72746E+03 -3.23514E+04 -2.31191E+04
 -1.32377E+04 -3.25407E+04  1.10520E+04 -2.88069E+04  2.49643E+04 -1.34554E+04  2.17734E+04  6.53065E+03
  7.30388E+03  1.66395E+04 -1.05457E+04  1.48064E+04 -1.75108E+04  2.08406E+03 -1.35899E+04 -1.14814E+04
 -6.27596E+02 -1.77152E+04  9.15060E+03 -1.31631E+04  1.18839E+04 -5.37373E+02  2.42929E+03  7.22309E+03
 -7.80634E+03  3.53834E+03 -6.89902E+03 -5.67096E+03 -1.23110E+03 -1.54215E+04  1.07238E+04 -1.73369E+04
  1.92127E+04 -8.98304E+03  2.17201E+04  2.35947E+03  1.85670E+04  1.59182E+04  9.01975E+03  2.43859E+04
 -4.49417E+03  2.63977E+04 -1.72426E+04  1.66511E+04 -1.93981E+04  3.97187E+03 -1.35517E+04 -4.78235E+03
 -5.96301E+03 -6.09704E+03 -5.92514E+02  3.84915E+02 -2.72990E+03  3.59304E+03 -5.98399E+03  5.12963E+03
 -1.24854E+04 -1.41439E+03 -1.27133E+04 -1.04601E+04 -4.99154E+03 -1.74893E+04  5.46714E+03 -1.36752E+04
  1.12456E+04 -4.73290E+03  8.46439E+03  2.98577E+03  1.37514E+02  5.15522E+03 -6.12670E+03 -3.01717E+02
 -6.14518E+03 -8.37662E+03 -1.33211E+03 -1.32988E+04  7.20633E+03 -1.38734E+04  1.64586E+04 -7.77446E+03
  1.95296E+04  1.52122E+03  1.40821E+04  1.14215E+04  2.36182E+03  1.66459E+04 -8.77209E+03  1.36350E+04
 -1.09452E+04  3.94097E+03 -5.62380E+03 -3.26461E+03  2.42398E+03 -3.56407E+03  6.54251E+03 -4.30126E+02
  6.85043E+03  5.85948E+03  1.06851E+03  1.05413E+04 -8.01710E+03  1.06123E+04 -1.26610E+04  2.93287E+03
 -8.65962E+03 -6.73162E+03 -2.28886E+02 -1.15595E+04  6.72775E+03 -5.34307E+03  7.25185E+03  2.00931E+03
  1.52099E+03  7.54162E+03 -6.72049E+03  9.99791E+03 -1.07326E+04  4.08884E+03 -1.09568E+04 -3.22181E+03
 -6.33818E+03 -1.22876E+04  2.48229E+03 -1.49075E+04  1.19328E+04 -8.22658E+03  1.30096E+04  2.66316E+03
  7.82905E+03  1.08691E+04 -1.49101E+03  1.30012E+04 -9.84925E+03  7.23553E+03 -9.52463E+03 -5.32869E+02
 -9.11951E+03 -8.63104E+03 -1.41817E+03 -9.54715E+03  4.98563E+03 -7.77715E+03  6.31684E+03 -3.33279E+03
  4.07921E+03  1.14643E+03 -8.65056E+02  1.81942E+03 -3.67775E+02 -2.36917E+03  1.97606E+03 -6.15573E+03
  8.75486E+03 -3.14166E+03  1.29456E+04  1.88058E+03  1.27081E+04  8.54727E+03  8.28600E+03  1.62254E+04
 -3.71845E+03  1.92514E+04 -1.53733E+04  1.43465E+04 -2.03282E+04  2.48687E+03 -1.60158E+04 -6.51299E+03
 -7.96678E+03 -1.28439E+04 -7.54063E+02 -1.11180E+04  3.72282E+03 -6.78958E+03  3.58554E+03 -3.60787E+03
  2.03326E+03 -3.24892E+03  3.16724E+03 -3.09614E+03  4.35910E+03 -2.56284E+03  6.06743E+03 -4.53798E+02
  8.81012E+03  2.75447E+03  4.42939E+03  7.38335E+03 -1.57930E+03  7.96509E+03 -8.73001E+03  6.75720E+03
 -1.08487E+04 -1.73572E+03 -6.21466E+03 -7.23407E+03 -9.05208E+02 -1.18049E+04  6.27297E+03 -1.15329E+04
  1.19012E+04 -6.70488E+03  1.47681E+04  1.56825E+03  1.00636E+04  1.01108E+04  1.91456E+03  1.30754E+04
 -5.53759E+03  1.05112E+04 -8.01719E+03  3.94993E+03 -5.39207E+03 -1.27398E+03 -2.24651E+03 -1.60511E+03
 -9.73434E+02  3.62393E+02 -1.73623E+03  1.96154E+03 -4.92562E+03  2.17598E+03 -8.24453E+03 -7.61266E+02
 -4.53049E+03 -7.87306E+03  3.30191E+01 -1.06389E+04  6.34923E+03 -9.94025E+03  1.04737E+04 -3.56277E+03
  1.03866E+04  4.98485E+03  4.56239E+03  9.20923E+03 -1.85427E+03  1.11072E+04 -6.94045E+03  6.28082E+03
 -9.23981E+03  7.37122E+02 -7.44917E+03 -6.97875E+03 -1.02762E+03 -8.18494E+03  5.04497E+03 -6.79266E+03
  7.23725E+03 -1.36660E+03  4.21142E+03  1.41395E+03  1.70254E+03  3.70490E+03  1.11934E+03  1.57497E+03
  1.77195E+03  1.14612E+03  2.59103E+03  1.86196E+03  2.33607E+03  3.83234E+03  1.81650E+03  5.34623E+03
 -2.15897E+03  8.19284E+03 -7.36202E+03  8.90631E+03 -1.09100E+04  2.00950E+03 -1.06572E+04 -4.42733E+03
 -5.07803E+03 -1.03011E+04  1.62684E+03 -1.21280E+04  5.79922E+03 -7.29752E+03  8.89268E+03 -1.46259E+03
  6.46986E+03  3.80951E+03  2.19470E+03  6.06920E+03 -2.82391E+03  3.97277E+03 -4.04420E+03  1.91485E+01
 -2.59271E+03 -4.34183E+03  2.58837E+03 -3.75633E+03  4.58719E+03 -2.54419E+03  3.94241E+03  1.17391E+03
  1.73281E+03  2.44412E+03  1.16344E+03  1.56803E+03 -1.03095E+03  1.70482E+03  1.23174E+03 -1.07217E+03
  2.16239E+03 -2.56306E+02  4.29525E+03  2.05299E+03  1.78682E+03  5.62408E+03 -1.26667E+03  8.00207E+03
 -5.17096E+03  4.51570E+03 -5.72908E+03  1.08102E+03 -6.44504E+03 -2.42880E+03 -2.14248E+03 -3.77009E+03
  5.70307E+02 -3.51230E+03  3.05701E+03 -2.59886E+03  2.21165E+03  1.90924E+03 -1.12896E+03  3.46648E+03
 -4.54286E+03  1.79358E+03 -4.65576E+03 -2.36064E+03 -3.07577E+03 -6.18563E+03  9.24647E+02 -5.35620E+03
  3.35276E+03 -3.13610E+03  4.03719E+03  8.24566E+01  2.72646E+03  9.88940E+02  9.91130E+02  2.85000E+03
 -1.40125E+03  1.01057E+03 -2.49150E+03 -1.52247E+03  1.15374E+03 -4.50429E+03  4.26961E+03 -3.12114E+03
  6.13250E+03  7.48202E+02  6.32454E+03  4.15910E+03  1.90036E+03  7.07490E+03 -2.16569E+03  6.33813E+03
 -5.27617E+03  2.29280E+03 -5.23088E+03 -1.09016E+03 -2.69221E+03 -3.66305E+03  7.89363E+02 -4.25686E+03
  4.45634E+03 -1.99831E+03  3.96485E+03  1.12641E+03  1.80780E+03  3.36282E+03 -1.08286E+03  2.72046E+03
 -1.36363E+03  2.14232E+03 -2.07282E+03  5.56642E+02  2.38456E+02  2.75447E+02 -1.55785E+03  1.42952E+03
 -2.16005E+03  2.49658E+03 -4.62302E+03  2.14934E+03 -6.29733E+03  2.78481E+02 -7.51933E+03 -4.05798E+03
 -2.82409E+03 -8.64574E+03  1.54698E+03 -9.39625E+03  5.50690E+03 -7.36885E+03  9.01206E+03 -3.06929E+03
  8.33658E+03  8.73235E+02  5.00899E+03  5.68081E+03  9.40557E+01  5.47576E+03 -2.64557E+03  5.04935E+03
 -3.33139E+03  1.82430E+03 -2.16171E+03 -1.01940E+03 -1.60612E+03 -7.05263E+02 -2.26329E+02  3.02362E+02
 -1.73349E+03  8.31222E+01 -1.94043E+03 -1.00957E+02 -7.49091E+02 -1.34428E+03 -6.91127E+02 -2.94979E+03
  3.34592E+03 -2.08151E+03  3.23050E+03 -4.77357E+02  4.02695E+03  2.94906E+03  7.95306E+02  6.03314E+03
 -2.84571E+03  7.00937E+03 -6.10670E+03  4.57550E+03 -7.59845E+03 -2.95100E+02 -5.42070E+03 -5.13261E+03
 -2.73720E+03 -5.68604E+03  2.21720E+03 -4.77282E+03  3.65703E+03 -2.83936E+03  3.70758E+03  3.67963E+02
  3.13713E+03  2.29888E+03  7.62289E+00  1.75928E+03  1.64142E+02 -1.09180E+02 -2.66555E+02 -1.60459E+03
  1.69059E+03 -9.52565E+02  1.74511E+03  1.32697E+03  1.66056E+03  2.18120E+03  2.33430E+02  3.24489E+03
 -2.32342E+03  2.18086E+03 -4.21001E+03  3.01094E+02 -3.96943E+03 -3.00364E+03 -3.42379E+02 -5.25010E+03
  2.63544E+03 -4.10957E+03  4.69417E+03 -8.22211E+02  4.33541E+03  1.06096E+02  3.31618E+03  2.80755E+03
  6.71564E+02  3.84816E+03 -1.17575E+03  3.05750E+03 -2.52743E+03  1.84227E+03 -2.37811E+03  6.60230E+02
 -1.24233E+03  6.09697E+01 -9.75710E+02  8.05924E+02 -2.58614E+03  2.52365E+02 -3.55281E+03 -4.86815E+02
 -2.60445E+03 -1.63310E+03 -1.54210E+03 -4.35838E+03  2.38281E+03 -5.18350E+03  3.31505E+03 -1.59307E+03
  3.64811E+03  9.74311E+02  1.84517E+03  2.86860E+03 -4.67420E+01  3.90819E+03 -2.52856E+03  2.64599E+03
