 $NMID ID='MM_0lb_SNR400_19hz_g40_52.RAW', FMTDAT='(8E13.5)'
 TRAMP=1., VOLUME=1. $END
  3.09833E+05  5.54967E+02  3.37559E+05  2.50119E+05  8.42012E+04  3.37216E+05 -1.32208E+05  2.50127E+05
 -1.89515E+05  8.25006E+04 -1.10708E+05 -3.34157E+04  1.30345E+03 -5.00730E+04  5.41667E+04  8.08739E+02
  3.50122E+04  5.30271E+04 -1.64133E+04  7.51706E+04 -6.06713E+04  6.33247E+04 -8.27128E+04  3.18063E+04
 -7.89472E+04 -1.11598E+04 -5.55868E+04 -4.97003E+04 -1.50291E+04 -6.77375E+04  2.66368E+04 -4.46976E+04
  3.87284E+04  4.11846E+03  1.51034E+04  4.67981E+04 -3.36152E+04  4.56355E+04 -6.45669E+04 -4.93971E+02
 -5.15865E+04 -5.58476E+04 -6.18297E+03 -7.44862E+04  3.25236E+04 -5.26642E+04  4.55272E+04 -1.61441E+04
  4.08403E+04  1.12261E+04  3.00858E+04  2.47472E+04  1.58530E+04  2.74757E+04 -4.46630E+03  2.65078E+04
 -2.19067E+04  1.30568E+04 -1.95199E+04 -4.26830E+03  3.67263E+03 -7.58140E+03  2.10487E+04  1.00801E+04
  7.56378E+03  3.26423E+04 -3.00237E+04  3.38856E+04 -6.06323E+04  2.71207E+03 -5.50894E+04 -4.03326E+04
 -1.20222E+04 -5.94949E+04  3.78023E+04 -4.31808E+04  5.46035E+04 -1.86655E+03  3.09192E+04  2.98844E+04
 -7.11916E+03  3.20983E+04 -2.79930E+04  1.25501E+04 -2.68926E+04 -5.65267E+03 -1.35183E+04 -9.47460E+03
 -6.86264E+03 -1.10145E+04 -5.20011E+02 -1.59426E+04  6.36546E+03 -2.21926E+04  1.51315E+04 -1.41224E+04
  1.25008E+04  3.59354E+03 -6.06443E+03  1.31114E+04 -1.89840E+04 -1.22544E+03 -8.29872E+03 -2.91742E+04
  2.02255E+04 -3.94407E+04  4.35705E+04 -1.87379E+04  4.06450E+04  1.80497E+04  1.45773E+04  4.08527E+04
 -1.54328E+04  3.04478E+04 -2.30565E+04  8.14280E+02 -7.68040E+03 -2.60088E+04  2.05739E+04 -3.02371E+04
  3.68007E+04 -6.27620E+03  3.02358E+04  2.23618E+04  1.48672E+04  4.12579E+04 -7.71915E+03  4.34332E+04
 -2.74740E+04  2.89451E+04 -3.59563E+04  8.17149E+03 -3.73220E+04 -1.45767E+04 -2.05900E+04 -3.29982E+04
  6.02834E+03 -3.32201E+04  2.87307E+04 -1.24096E+04  2.62136E+04  1.06389E+04  3.02784E+03  1.76026E+04
 -1.24809E+04  6.69673E+03 -9.75735E+03 -7.93718E+03  5.94875E+03 -9.96989E+03  1.67759E+04  6.46298E+03
  1.18201E+04  2.12215E+04 -7.12097E+03  2.28706E+04 -2.10054E+04  9.16196E+03 -2.41439E+04 -6.79384E+03
 -1.56542E+04 -1.64530E+04 -4.73861E+03 -1.59694E+04  3.95253E+03 -1.30055E+04  1.19469E+04 -1.36833E+04
  1.99884E+04 -1.10083E+04  2.65833E+04  3.89404E+02  2.04416E+04  1.60536E+04  4.10406E+03  3.19948E+04
 -1.54828E+04  2.64560E+04 -2.52004E+04  9.50855E+03 -1.98056E+04 -1.01706E+04 -3.57366E+03 -1.36961E+04
  2.83862E+03 -4.14018E+03 -1.82010E+03  5.02944E+03 -1.25653E+04  5.32359E+03 -1.22927E+04 -4.33565E+03
 -7.84893E+03 -1.45991E+04  4.92112E+03 -1.84174E+04  1.24281E+04 -1.42265E+04  1.34203E+04 -1.22048E+03
  8.10572E+03  1.03874E+04 -1.05217E+03  1.53079E+04 -9.07515E+03  8.22078E+03 -1.46669E+04 -2.89633E+03
 -1.06302E+04 -1.37584E+04 -1.49097E+03 -1.78482E+04  7.88948E+03 -1.44683E+04  1.52146E+04 -6.95957E+03
  1.40529E+04  9.34253E+02  1.00268E+04  3.41694E+03  5.07579E+03  2.82815E+02  7.12190E+03 -1.58895E+03
  1.30451E+04  2.54757E+03  1.32529E+04  1.21501E+04  8.35782E+03  2.34038E+04 -3.50118E+03  2.46089E+04
 -1.46427E+04  1.85841E+04 -2.25810E+04  8.42422E+03 -2.32637E+04 -1.45352E+03 -1.98322E+04 -1.31883E+04
 -9.68725E+03 -1.86497E+04  5.87288E+03 -1.77852E+04  1.55526E+04 -1.03017E+04  1.49935E+04  3.11727E+03
  6.50251E+03  1.02713E+04 -7.03497E+03  1.00919E+04 -1.24997E+04  2.30126E+03 -9.91173E+03 -7.99201E+03
 -1.12302E+02 -1.22093E+04  5.71146E+03 -9.32187E+03  7.37262E+03 -1.05712E+03  1.13198E+03  4.57841E+03
 -5.50090E+03  9.96347E+02 -2.87294E+03 -4.49538E+03  1.22045E+03 -9.31825E+03  7.28648E+03 -9.00392E+03
  1.16083E+04 -3.60428E+03  1.11424E+04  2.68848E+03  9.77186E+03  8.83671E+03  4.54850E+03  1.27406E+04
 -1.71093E+03  1.47237E+04 -9.25200E+03  9.18604E+03 -1.00166E+04  3.11238E+03 -7.77353E+03 -1.33588E+03
 -4.80974E+03 -3.23436E+03 -7.94183E+02  1.96853E+03 -1.38022E+03  2.25064E+03 -3.35636E+03  3.35079E+03
 -7.47017E+03 -6.85520E+02 -8.00671E+03 -6.70026E+03 -3.26820E+03 -1.08295E+04  2.97884E+03 -7.87167E+03
  6.14382E+03 -3.24341E+03  4.32406E+03  2.60456E+03  7.92358E+02  2.46681E+03 -2.95784E+03  4.99593E+02
 -2.94549E+03 -5.04309E+03 -1.06918E+03 -6.74114E+03  3.16012E+03 -7.19068E+03  9.46292E+03 -3.60547E+03
  1.08104E+04  5.50247E+02  7.66466E+03  5.28256E+03  1.48169E+03  7.93267E+03 -4.90641E+03  7.58644E+03
 -6.46353E+03  2.72029E+03 -3.24398E+03 -1.17846E+03  1.12656E+03 -1.87786E+03  5.31828E+03 -1.19832E+03
  3.90549E+03  3.19545E+03  9.10123E+02  5.47280E+03 -3.59821E+03  6.38356E+03 -7.75114E+03  1.61398E+03
 -4.43673E+03 -3.54276E+03  5.72471E+02 -5.95825E+03  3.07625E+03 -3.11909E+03  2.76217E+03  7.04186E+02
  5.40249E+02  2.90320E+03 -3.89625E+03  4.21220E+03 -4.62295E+03  2.90108E+03 -4.16598E+03 -8.44536E+02
 -2.65474E+03 -5.83611E+03  6.69377E+02 -6.60349E+03  5.34261E+03 -4.72657E+03  5.82152E+03  8.89134E+02
  4.25918E+03  4.59930E+03  5.77400E+02  6.54982E+03 -4.69689E+03  3.78436E+03 -5.02123E+03 -3.01562E+02
 -5.36349E+03 -4.93410E+03 -1.45403E+03 -4.65465E+03  1.85051E+03 -4.18181E+03  2.41802E+03 -3.23663E+03
  2.86317E+03  1.07729E+02  2.90055E+02  1.26835E+03  9.28070E+02  2.13739E+02 -5.89806E+01 -1.74736E+03
  3.26819E+03 -5.58831E+02  4.94219E+03  7.17541E+02  4.92861E+03  2.56298E+03  4.66873E+03  6.73313E+03
 -7.75458E+02  7.33190E+03 -6.38570E+03  6.18498E+03 -9.26839E+03  1.18849E+03 -7.35547E+03 -1.98278E+03
 -3.57491E+03 -6.24348E+03 -5.61244E+02 -5.04355E+03  1.75923E+03 -1.59241E+03  2.01069E+03 -1.97481E+03
  1.07522E+03 -1.66393E+03  1.90126E+03 -2.17867E+03  3.25996E+03 -5.47758E+02  3.28941E+03  3.83540E+02
  4.58838E+03  1.14032E+03  1.04948E+03  2.95814E+03 -1.67880E+03  2.54142E+03 -4.14936E+03  1.79156E+03
 -4.32385E+03 -1.06329E+03 -1.44260E+03 -3.14464E+03  1.04091E+03 -4.39491E+03  3.00585E+03 -4.81899E+03
  4.79577E+03 -2.67197E+03  6.33382E+03  2.42011E+02  4.50853E+03  3.42911E+03  8.98578E+02  5.38460E+03
 -2.07385E+03  5.08942E+03 -2.89477E+03  2.10834E+03 -1.07657E+03 -2.81878E+02 -3.41844E+02 -6.35892E+02
 -4.43088E+02  4.47161E+02 -1.13020E+03  1.82833E+03 -2.84843E+03  1.29722E+03 -3.34168E+03  4.72604E+01
 -1.17426E+03 -3.54387E+03  2.47874E+02 -4.46747E+03  2.39897E+03 -3.69677E+03  3.20108E+03 -1.37065E+03
  3.38518E+03  1.56873E+03  1.07406E+03  3.04875E+03 -8.20961E+02  4.19120E+03 -2.32110E+03  3.04819E+03
 -3.40376E+03  6.82437E+02 -3.11313E+03 -2.24708E+03  1.11387E+02 -2.81768E+03  1.34530E+03 -2.42234E+03
  2.12839E+03 -1.18547E+03  1.86230E+03  4.11680E+02  2.71129E+02  1.67678E+03  8.75719E+02  2.84220E+02
  1.88020E+03  6.05901E+02  9.37871E+02  8.83883E+02  9.84893E+02  1.99125E+03  1.22833E+03  1.43527E+03
 -1.18332E+03  2.55959E+03 -1.57546E+03  3.70271E+03 -3.11739E+03  1.48773E+03 -3.88748E+03 -1.68689E+02
 -1.44690E+03 -3.16821E+03  4.37929E+02 -4.07367E+03  1.85524E+03 -2.39994E+03  2.56224E+03 -4.14393E+02
  2.19319E+03  1.32790E+03  2.51290E+02  1.99930E+03 -8.92411E+02  1.32857E+03 -8.39763E+02 -1.20339E+02
 -6.46916E+02 -1.51563E+03  1.02073E+03 -1.11667E+03  1.19795E+03 -6.82021E+02  1.64736E+03  5.80740E+02
  3.50948E+02  5.95886E+02  5.79020E+02 -2.00736E+02 -2.85490E+02  1.04995E+03  1.16525E+03 -9.61523E+01
  1.53482E+02 -4.12247E+02  9.80974E+02  5.86821E+02  2.26456E+02  2.24495E+03 -3.95584E+02  2.13172E+03
 -1.20481E+03  9.15115E+02 -2.41033E+03  8.57117E+02 -2.35631E+03 -3.37638E+02 -7.35437E+02 -4.38178E+02
  4.91868E+02 -9.76934E+02  4.81210E+01 -4.30181E+02  7.64344E+02  1.51210E+03 -3.40926E+02  1.51148E+03
 -1.05943E+03  8.07619E+02 -8.77005E+02 -1.62644E+03 -8.36380E+02 -2.34163E+03 -2.18705E+01 -1.69041E+03
  4.54392E+02 -5.90874E+02 -1.67996E+02  4.75710E+02  1.10478E+03 -6.72492E+02  7.82805E+01  9.17306E+02
 -3.39941E+02  1.43221E+02 -3.64557E+02 -2.60335E+02  6.72564E+02 -1.11665E+03  1.44318E+03 -9.25502E+02
  1.28642E+03  3.88019E+02  2.37728E+03  7.46424E+02  1.16185E+03  1.42242E+03  3.32760E+02  1.82611E+03
 -1.56543E+03 -4.81752E+02 -1.92858E+03 -7.95611E+02 -5.85437E+02 -1.33455E+03  2.22399E+02 -6.10374E+02
  1.24407E+03 -7.52307E+02  8.62638E+02  1.11200E+03 -1.22377E+02  1.44626E+03  3.96791E+02  1.00444E+03
 -1.11413E+03  1.17932E+03 -9.31214E+02  1.60077E+01 -3.25488E+02  2.08103E+02 -3.46658E+02  6.17551E+02
 -6.03075E+02  9.09151E+02 -1.52530E+03  3.84188E+02 -1.63600E+03  1.05345E+02 -2.41692E+03 -8.43864E+02
 -9.34409E+02 -1.70298E+03  3.56294E+02 -2.37851E+03  4.91134E+02 -2.49704E+03  2.97431E+03 -1.30695E+03
  1.78705E+03  7.74853E+01  1.39664E+03  1.85921E+03 -5.73612E+02  1.28278E+03 -1.03306E+03  1.25129E+03
 -9.23412E+02  9.52165E+02 -4.99679E+02 -3.84001E+02 -8.40790E+01  1.73977E+02 -6.51180E+02 -2.77689E+02
 -6.50969E+02  4.02317E+02 -5.19474E+02 -4.58913E+02  9.97787E+01 -3.69165E+02 -7.25583E+02 -9.34843E+02
  1.31279E+03 -5.96123E+02  1.88733E+02 -5.27076E+02  1.40344E+03  1.30552E+03 -5.99901E+02  1.18078E+03
 -1.11956E+03  2.05734E+03 -1.92777E+03  1.38299E+03 -1.48760E+03 -5.27679E+02 -6.90568E+02 -1.58961E+03
 -9.42272E+02 -1.33761E+03  3.90485E+02 -1.44606E+03  6.33207E+02 -9.72718E+02  2.65802E+02 -1.36188E+02
  1.13539E+03 -5.02094E+00  4.02878E+02  3.20718E+02 -1.67342E+02  3.07181E+02  4.26383E+02 -3.07545E+01
  2.25066E+02  2.13487E+02  2.12453E+02  5.47008E+02 -1.46490E+02  9.95623E+02  8.45350E+02  6.22241E+02
 -8.82291E+02  8.47677E+02 -4.06529E+02  1.11522E+02 -4.70726E+02 -2.64551E+02  6.41214E+02 -7.75284E+02
  6.50727E+02 -5.70126E+02  6.02498E+02  6.16670E+00  1.18185E+03 -8.60774E+02 -1.90786E+02  6.88537E+02
  4.36684E+02  6.82649E+02 -3.17738E+02  5.81989E+02 -4.35232E+02  7.30553E+02 -3.78165E+02  3.03150E+02
  2.40914E+02 -6.74913E+02 -8.04284E+02  6.85139E+02 -2.78575E+02 -8.31269E+01 -6.60365E+02 -5.96635E+02
 -1.06253E+03  3.14934E+02 -4.63791E+02 -9.07179E+02  6.88735E+02 -1.66470E+03  8.50193E+02 -1.65085E+02
  7.84315E+02 -2.97441E+02 -4.38508E+02  3.74741E+02  1.87524E+02  6.74827E+02 -6.83223E+02  4.87305E+02
