 $NMID ID='MM_0lb_SNR400_10hz_g50_49.RAW', FMTDAT='(8E13.5)'
 TRAMP=1., VOLUME=1. $END
  3.09865E+05  1.60939E+02  3.37822E+05  2.50896E+05  8.52142E+04  3.37856E+05 -1.32384E+05  2.51580E+05
 -1.90104E+05  8.43457E+04 -1.11957E+05 -3.21640E+04  3.46642E+01 -5.07625E+04  5.28959E+04 -6.12627E+02
  3.55304E+04  5.32976E+04 -1.68155E+04  7.61251E+04 -6.12158E+04  6.43869E+04 -8.52882E+04  3.19829E+04
 -8.18623E+04 -1.09606E+04 -5.84404E+04 -5.27024E+04 -1.48527E+04 -7.06949E+04  2.83280E+04 -4.64794E+04
  4.09200E+04  3.75414E+03  1.73072E+04  4.86853E+04 -3.44618E+04  4.75492E+04 -6.76024E+04 -5.14830E+02
 -5.49952E+04 -5.72210E+04 -6.80352E+03 -7.84981E+04  3.43605E+04 -5.69327E+04  4.92768E+04 -1.84256E+04
  4.49944E+04  1.08067E+04  3.28266E+04  2.69231E+04  1.66459E+04  3.06805E+04 -5.76377E+03  2.77483E+04
 -2.15756E+04  1.21033E+04 -1.69672E+04 -5.13859E+03  7.30192E+03 -6.82798E+03  2.30526E+04  1.33447E+04
  7.21163E+03  3.72683E+04 -3.38473E+04  3.74491E+04 -6.54476E+04  2.08427E+03 -5.84129E+04 -4.39585E+04
 -1.27599E+04 -6.50901E+04  4.19134E+04 -4.68719E+04  5.99292E+04 -1.75001E+03  3.59864E+04  3.41700E+04
 -5.36696E+03  3.93156E+04 -3.18576E+04  1.76693E+04 -3.28363E+04 -3.64039E+03 -1.83146E+04 -1.14546E+04
 -8.80706E+03 -1.41887E+04 -1.18906E+03 -1.89168E+04  7.97537E+03 -2.28220E+04  1.62859E+04 -1.25735E+04
  1.12881E+04  6.35505E+03 -9.85772E+03  1.25007E+04 -2.29855E+04 -5.79534E+03 -8.62795E+03 -3.67288E+04
  2.49281E+04 -4.58907E+04  5.22018E+04 -2.09165E+04  4.76028E+04  2.12305E+04  1.63618E+04  4.67132E+04
 -1.70680E+04  3.46902E+04 -2.65742E+04  2.56419E+03 -1.17741E+04 -2.85964E+04  2.18218E+04 -3.61195E+04
  4.31001E+04 -1.03315E+04  3.94323E+04  2.38921E+04  2.12211E+04  5.00212E+04 -8.26033E+03  5.48133E+04
 -3.48775E+04  3.67773E+04 -4.62731E+04  1.10651E+04 -4.69789E+04 -1.76511E+04 -2.55267E+04 -4.12917E+04
  8.18339E+03 -4.08052E+04  3.44211E+04 -1.69366E+04  3.16880E+04  1.05590E+04  4.57440E+03  2.05159E+04
 -1.37772E+04  9.34060E+03 -1.07739E+04 -7.26441E+03  5.85617E+03 -1.14057E+04  1.82976E+04  5.28744E+03
  1.42433E+04  2.24229E+04 -4.55695E+03  2.72081E+04 -2.30184E+04  1.38661E+04 -3.08561E+04 -3.33057E+03
 -2.40529E+04 -1.79627E+04 -1.09933E+04 -2.45783E+04  4.43800E+03 -2.40900E+04  1.84981E+04 -2.22197E+04
  3.06951E+04 -1.38486E+04  3.76681E+04  4.13038E+03  2.61844E+04  2.39192E+04  4.05092E+03  3.99582E+04
 -1.95189E+04  3.35065E+04 -3.02192E+04  1.18536E+04 -2.23246E+04 -1.10692E+04 -4.57556E+03 -1.26619E+04
  4.30737E+02 -1.59291E+03 -7.40609E+03  8.30384E+03 -1.97281E+04  5.12633E+03 -1.95458E+04 -9.41313E+03
 -1.12559E+04 -2.25856E+04  5.59769E+03 -2.63961E+04  1.73136E+04 -1.93551E+04  2.20452E+04 -1.51115E+03
  1.29744E+04  1.52002E+04 -1.09892E+03  2.28324E+04 -1.51785E+04  1.30628E+04 -2.20008E+04 -4.24889E+03
 -1.67906E+04 -2.05678E+04 -2.39266E+03 -2.70820E+04  1.19397E+04 -2.22385E+04  2.28056E+04 -1.24186E+04
  2.12024E+04 -2.53956E+02  1.56272E+04  4.83133E+03  9.01936E+03  1.92006E+03  1.13759E+04 -2.09324E+03
  2.08096E+04  3.12609E+03  2.37548E+04  1.76966E+04  1.55663E+04  3.61710E+04 -3.56709E+03  4.24281E+04
 -2.44649E+04  3.45106E+04 -3.99064E+04  1.88138E+04 -4.20509E+04 -3.66255E+03 -3.41137E+04 -2.47663E+04
 -1.42088E+04 -3.48409E+04  1.25059E+04 -3.13917E+04  2.64732E+04 -1.53536E+04  2.29202E+04  7.02702E+03
  8.59312E+03  1.79960E+04 -1.19046E+04  1.43888E+04 -1.94194E+04  2.32584E+03 -1.44326E+04 -1.20002E+04
  1.64330E+02 -1.78012E+04  9.98638E+03 -1.35339E+04  1.30976E+04 -1.92673E+03  3.64370E+03  8.03548E+03
 -7.84470E+03  2.90885E+03 -7.49793E+03 -6.18798E+03 -2.09165E+03 -1.74707E+04  1.15653E+04 -1.90669E+04
  2.18486E+04 -1.07624E+04  2.38919E+04  3.64598E+03  2.12538E+04  1.70143E+04  9.19176E+03  2.73144E+04
 -4.91924E+03  2.91761E+04 -1.93352E+04  1.80141E+04 -2.12067E+04  3.89927E+03 -1.47358E+04 -5.67065E+03
 -6.66709E+03 -7.14548E+03 -7.38203E+02  1.05896E+03 -2.37240E+03  3.22355E+03 -6.43968E+03  5.37125E+03
 -1.29752E+04 -1.74679E+03 -1.41372E+04 -1.05739E+04 -6.03965E+03 -1.85807E+04  6.98964E+03 -1.54753E+04
  1.18803E+04 -6.17020E+03  8.54205E+03  4.00481E+03 -2.56206E+02  5.76316E+03 -7.23027E+03 -5.17469E+02
 -6.74070E+03 -9.59173E+03 -1.50712E+03 -1.40379E+04  7.84646E+03 -1.56360E+04  1.88139E+04 -8.67526E+03
  2.23864E+04  2.23795E+03  1.58364E+04  1.36224E+04  2.64794E+03  1.80146E+04 -9.38585E+03  1.41960E+04
 -1.18324E+04  4.32381E+03 -6.40421E+03 -2.48736E+03  1.75815E+03 -4.66751E+03  7.23432E+03 -1.01092E+03
  6.49074E+03  6.43747E+03  1.08056E+03  1.15427E+04 -8.75299E+03  1.14643E+04 -1.50226E+04  2.82998E+03
 -1.05913E+04 -7.69660E+03  7.51330E+02 -1.18714E+04  8.23758E+03 -6.02783E+03  8.61284E+03  3.10279E+03
  2.37231E+03  9.02052E+03 -7.98326E+03  1.10608E+04 -1.28549E+04  4.95876E+03 -1.28200E+04 -4.46521E+03
 -6.51657E+03 -1.43148E+04  3.92987E+03 -1.62550E+04  1.35265E+04 -9.93644E+03  1.45887E+04  3.07366E+03
  9.05733E+03  1.25499E+04 -1.27717E+03  1.40552E+04 -1.10751E+04  7.58160E+03 -1.17441E+04 -6.90098E+02
 -9.68153E+03 -9.69576E+03 -1.77729E+03 -1.10378E+04  5.90096E+03 -8.55520E+03  7.77779E+03 -3.17647E+03
  4.38778E+03  1.56949E+03 -1.09061E+03  1.67750E+03 -3.50853E+02 -3.37044E+03  2.21788E+03 -6.79711E+03
  1.06755E+04 -5.29604E+03  1.50288E+04  1.38890E+03  1.39273E+04  1.00279E+04  9.28257E+03  1.83903E+04
 -4.19797E+03  2.18193E+04 -1.77949E+04  1.56399E+04 -2.34762E+04  2.73881E+03 -1.86531E+04 -7.75352E+03
 -9.84907E+03 -1.53214E+04 -7.37397E+02 -1.29679E+04  4.62681E+03 -7.19196E+03  5.09113E+03 -4.18589E+03
  3.90489E+03 -2.74833E+03  3.96227E+03 -3.62805E+03  5.35328E+03 -2.75325E+03  7.87969E+03 -1.95579E+03
  9.26119E+03  2.30522E+03  4.77152E+03  8.57798E+03 -1.66448E+03  1.05299E+04 -1.01617E+04  7.85232E+03
 -1.38935E+04 -7.92673E+02 -8.46687E+03 -9.52610E+03 -4.12525E+02 -1.47604E+04  8.39119E+03 -1.39074E+04
  1.44633E+04 -8.04388E+03  1.81161E+04  2.23806E+03  1.20241E+04  1.23702E+04  2.16796E+03  1.62201E+04
 -6.22607E+03  1.36860E+04 -9.23910E+03  4.31541E+03 -6.11148E+03 -1.24829E+03 -2.50853E+03 -1.67725E+03
 -1.58500E+03 -1.15449E+02 -2.13932E+03  3.22198E+03 -5.29012E+03  2.67105E+03 -9.81917E+03 -2.17671E+03
 -5.75897E+03 -9.25969E+03 -5.02652E+02 -1.30965E+04  7.03997E+03 -1.25094E+04  1.33648E+04 -3.73426E+03
  1.36574E+04  5.37128E+03  5.76341E+03  1.18415E+04 -1.89305E+03  1.27314E+04 -9.46246E+03  7.64368E+03
 -1.26102E+04 -5.35128E+01 -8.49022E+03 -7.59241E+03 -3.83042E+02 -1.02543E+04  5.77483E+03 -8.01943E+03
  8.66821E+03 -2.52772E+03  5.58186E+03  2.06191E+03  2.78797E+03  4.14267E+03  2.00202E+03  2.39791E+03
  2.81508E+03  1.90394E+03  3.43339E+03  1.85347E+03  3.27215E+03  4.02668E+03  2.69098E+03  6.86584E+03
 -2.14728E+03  1.08338E+04 -9.80927E+03  1.06264E+04 -1.36019E+04  2.26345E+03 -1.43159E+04 -5.37279E+03
 -6.72234E+03 -1.35497E+04  2.31742E+03 -1.48500E+04  8.50153E+03 -9.12315E+03  1.07502E+04 -2.59089E+03
  7.70764E+03  4.86105E+03  1.93483E+03  7.69087E+03 -3.32372E+03  4.75296E+03 -4.71656E+03 -6.80371E+01
 -3.54342E+03 -5.61315E+03  2.58941E+03 -6.12840E+03  5.02402E+03 -2.61598E+03  5.52001E+03  1.92147E+03
  2.37144E+03  2.25885E+03  1.91713E+03  2.18693E+03 -4.13317E+02  2.30190E+03  1.51636E+03 -1.04007E+03
  2.65101E+03 -2.98075E+02  4.30964E+03  2.93459E+03  3.12721E+03  6.84494E+03 -1.55383E+03  9.13359E+03
 -6.49345E+03  5.64562E+03 -8.73339E+03  1.84110E+03 -7.77652E+03 -3.96039E+03 -2.96895E+03 -5.03167E+03
  7.92387E+02 -5.48329E+03  2.73089E+03 -2.97662E+03  2.87004E+03  2.72756E+03 -1.37734E+03  4.59334E+03
 -5.19376E+03  2.97395E+03 -5.69344E+03 -3.14299E+03 -4.07113E+03 -7.31211E+03  1.00401E+03 -7.28004E+03
  4.32144E+03 -4.70784E+03  4.88556E+03 -7.71295E+02  4.51320E+03  1.67514E+03  8.79802E+02  3.18913E+03
 -2.50294E+03  1.30952E+03 -3.79685E+03 -2.79160E+03  2.07881E+03 -5.09029E+03  6.41241E+03 -4.24315E+03
  8.63328E+03  1.45749E+03  7.57375E+03  5.57457E+03  2.74294E+03  8.55075E+03 -3.20450E+03  8.35431E+03
 -7.46274E+03  3.82637E+03 -7.45977E+03 -1.27007E+03 -3.19840E+03 -5.62220E+03  2.02166E+03 -5.27796E+03
  4.68610E+03 -2.89631E+03  4.49793E+03  2.82647E+03  1.70409E+03  4.75208E+03 -7.73359E+02  4.10459E+03
 -2.54373E+03  2.79871E+03 -2.49211E+03 -8.85818E+01 -1.19366E+03  5.06178E+02 -1.22780E+03  2.16090E+03
 -1.55138E+03  3.00969E+03 -5.46319E+03  2.83560E+03 -8.89309E+03  9.37462E+02 -9.88541E+03 -5.65807E+03
 -5.68797E+03 -1.00298E+04  2.27092E+03 -1.29753E+04  7.89450E+03 -1.08383E+04  1.28899E+04 -4.11826E+03
  1.10933E+04  2.34590E+03  6.02744E+03  8.12105E+03 -4.02316E+01  8.55355E+03 -3.71405E+03  6.32089E+03
 -5.07195E+03  1.20944E+03 -3.05604E+03 -3.36535E+02 -5.01015E+02 -7.79026E+02 -7.61921E+02  4.53713E+02
 -1.59715E+03 -4.23230E+01 -1.85430E+03  5.05292E+02 -5.33275E+02 -2.79636E+03  8.62953E+01 -2.68862E+03
  4.13178E+03 -3.11377E+03  5.82428E+03  4.47790E+02  6.70159E+03  4.55156E+03  1.57950E+03  8.61665E+03
 -4.54640E+03  9.74793E+03 -8.81519E+03  6.05103E+03 -1.09224E+04 -5.96588E+02 -8.19063E+03 -6.13283E+03
 -3.21870E+03 -9.28737E+03  2.04463E+03 -7.73657E+03  5.62753E+03 -4.78875E+03  5.15519E+03  2.67902E+02
  3.89357E+03  2.67884E+03 -3.04107E+02  2.65836E+03 -1.07375E+03  3.94765E+01  3.81093E+02 -1.81058E+03
  2.23141E+03 -8.98752E+02  3.08753E+03  1.07547E+03  1.98987E+03  3.68471E+03 -7.04907E+00  4.19656E+03
 -3.72652E+03  4.48842E+03 -5.50023E+03 -3.08933E+02 -4.99362E+03 -4.48786E+03 -6.89508E+02 -7.74479E+03
  4.62740E+03 -6.61723E+03  6.47432E+03 -1.40173E+03  6.46484E+03  1.40191E+03  4.00051E+03  5.27723E+03
  7.69631E+02  5.16392E+03 -2.11089E+03  4.14185E+03 -3.74851E+03  2.78629E+03 -2.91969E+03  5.07891E+01
 -1.52767E+03 -2.09928E+02 -2.21149E+03  1.11564E+03 -3.90937E+03  1.43696E+03 -3.95153E+03 -9.20632E+02
 -4.03368E+03 -2.78488E+03 -1.77590E+03 -5.53201E+03  2.54528E+03 -6.64960E+03  5.50719E+03 -2.77243E+03
  6.25897E+03  8.56567E+02  2.61468E+03  4.21703E+03 -8.83589E+02  5.07492E+03 -4.23695E+03  3.44278E+03
