 $NMID ID='MM_0lb_SNR400_9hz_g50_76.RAW', FMTDAT='(8E13.5)'
 TRAMP=1., VOLUME=1. $END
  3.09927E+05 -1.33498E+02  3.37919E+05  2.50844E+05  8.51582E+04  3.38509E+05 -1.32839E+05  2.51400E+05
 -1.91219E+05  8.47187E+04 -1.12024E+05 -3.30421E+04 -2.22488E+02 -5.09743E+04  5.36966E+04  7.86693E+00
  3.54032E+04  5.28133E+04 -1.72659E+04  7.63846E+04 -6.16551E+04  6.45148E+04 -8.52958E+04  3.16388E+04
 -8.29751E+04 -1.20777E+04 -5.86976E+04 -5.25816E+04 -1.37229E+04 -7.12573E+04  2.74133E+04 -4.69962E+04
  4.13616E+04  3.68742E+03  1.63042E+04  4.89916E+04 -3.45630E+04  4.79530E+04 -6.79527E+04  1.26787E+02
 -5.44059E+04 -5.83499E+04 -8.01901E+03 -7.83878E+04  3.47020E+04 -5.67101E+04  4.90194E+04 -1.84375E+04
  4.55154E+04  1.13661E+04  3.32807E+04  2.67825E+04  1.57712E+04  3.02123E+04 -5.76486E+03  2.71702E+04
 -2.14983E+04  1.17608E+04 -1.80990E+04 -5.49916E+03  7.00255E+03 -6.99166E+03  2.33541E+04  1.34165E+04
  6.97441E+03  3.71127E+04 -3.30173E+04  3.71716E+04 -6.52656E+04  1.74302E+03 -5.92172E+04 -4.48331E+04
 -1.33526E+04 -6.60286E+04  4.17855E+04 -4.72408E+04  6.10768E+04 -2.21408E+03  3.73188E+04  3.39841E+04
 -5.41271E+03  3.94504E+04 -3.22019E+04  1.86195E+04 -3.34445E+04 -2.93559E+03 -1.87613E+04 -1.16331E+04
 -9.64843E+03 -1.43218E+04 -1.99235E+02 -2.00850E+04  8.38316E+03 -2.38222E+04  1.59339E+04 -1.23600E+04
  1.12377E+04  6.53204E+03 -1.03433E+04  1.24129E+04 -2.31744E+04 -6.81051E+03 -8.05371E+03 -3.70413E+04
  2.46654E+04 -4.62003E+04  5.24178E+04 -2.08575E+04  4.90147E+04  2.12655E+04  1.77954E+04  4.69774E+04
 -1.68747E+04  3.58337E+04 -2.71974E+04  2.04848E+03 -1.13734E+04 -2.99214E+04  2.16806E+04 -3.77946E+04
  4.54053E+04 -1.05973E+04  4.07787E+04  2.45746E+04  2.14229E+04  5.08653E+04 -7.80324E+03  5.61057E+04
 -3.50722E+04  3.76184E+04 -4.85281E+04  1.17414E+04 -4.70673E+04 -1.80862E+04 -2.63599E+04 -4.28526E+04
  7.97100E+03 -4.21804E+04  3.44193E+04 -1.74255E+04  3.23931E+04  1.07619E+04  5.47392E+03  2.01268E+04
 -1.38715E+04  9.97330E+03 -1.12468E+04 -7.39004E+03  5.40822E+03 -1.21215E+04  1.90356E+04  5.45012E+03
  1.41681E+04  2.22388E+04 -5.11063E+03  2.68059E+04 -2.32160E+04  1.43523E+04 -3.15542E+04 -3.60241E+03
 -2.52625E+04 -1.85220E+04 -1.19590E+04 -2.57133E+04  5.00770E+03 -2.58187E+04  1.96889E+04 -2.31599E+04
  3.26357E+04 -1.38733E+04  3.77347E+04  5.38466E+03  2.70468E+04  2.34912E+04  3.53604E+03  4.15248E+04
 -1.98308E+04  3.38764E+04 -3.11658E+04  1.14928E+04 -2.32590E+04 -1.07222E+04 -5.26992E+03 -1.25686E+04
  9.06348E+02 -1.58036E+03 -8.03485E+03  7.73026E+03 -2.07899E+04  5.61476E+03 -1.98558E+04 -8.98341E+03
 -1.13141E+04 -2.37470E+04  5.08790E+03 -2.78022E+04  1.83585E+04 -1.97230E+04  2.22593E+04 -2.15189E+03
  1.49451E+04  1.59240E+04 -2.19862E+03  2.38633E+04 -1.74573E+04  1.36767E+04 -2.28872E+04 -4.93275E+03
 -1.72115E+04 -2.10159E+04 -2.29985E+03 -2.86576E+04  1.29602E+04 -2.37549E+04  2.38487E+04 -1.25078E+04
  2.24799E+04 -5.39041E+02  1.59910E+04  6.18360E+03  9.20121E+03  8.83466E+02  1.21978E+04 -2.21976E+03
  2.25847E+04  2.61600E+03  2.53269E+04  1.81732E+04  1.80183E+04  3.74892E+04 -1.26738E+03  4.33067E+04
 -2.54532E+04  3.65338E+04 -4.13643E+04  1.90130E+04 -4.46766E+04 -2.90353E+03 -3.58237E+04 -2.72068E+04
 -1.50954E+04 -3.69221E+04  1.32167E+04 -3.34007E+04  2.78515E+04 -1.53421E+04  2.48408E+04  7.83792E+03
  8.47470E+03  1.94827E+04 -1.12327E+04  1.59503E+04 -1.98650E+04  2.49456E+03 -1.55639E+04 -1.32372E+04
 -2.65699E+02 -1.95941E+04  1.05493E+04 -1.36292E+04  1.30909E+04 -2.28316E+03  2.99594E+03  8.47504E+03
 -8.71198E+03  3.47373E+03 -8.79175E+03 -7.31575E+03 -1.67821E+03 -1.89746E+04  1.18691E+04 -2.03943E+04
  2.32091E+04 -1.13293E+04  2.63925E+04  2.39374E+03  2.31361E+04  1.90302E+04  1.14492E+04  2.97276E+04
 -5.43694E+03  3.11855E+04 -2.08484E+04  1.93392E+04 -2.33172E+04  3.32032E+03 -1.55592E+04 -5.47794E+03
 -6.67545E+03 -7.59195E+03 -9.71890E+02  2.83022E+02 -3.31809E+03  3.33857E+03 -7.72436E+03  5.53492E+03
 -1.49561E+04 -1.67841E+03 -1.48727E+04 -1.24046E+04 -6.36802E+03 -1.93933E+04  6.29297E+03 -1.55047E+04
  1.32278E+04 -6.58346E+03  9.13171E+03  4.10427E+03 -1.56639E+02  6.03605E+03 -8.12848E+03 -3.84732E+02
 -5.88955E+03 -1.00809E+04 -1.43741E+03 -1.52787E+04  8.87079E+03 -1.65846E+04  2.02210E+04 -8.57417E+03
  2.38825E+04  3.19475E+03  1.64606E+04  1.43653E+04  2.54824E+03  1.81664E+04 -1.01203E+04  1.58358E+04
 -1.28336E+04  4.74305E+03 -6.82201E+03 -3.03697E+03  2.88612E+03 -4.69150E+03  8.14249E+03 -1.22029E+03
  6.91293E+03  6.67826E+03  8.08215E+02  1.26449E+04 -9.22035E+03  1.19054E+04 -1.57503E+04  2.62489E+03
 -1.03877E+04 -8.87161E+03  2.74280E+02 -1.27836E+04  8.94809E+03 -6.05767E+03  8.87669E+03  3.91541E+03
  2.39029E+03  9.92266E+03 -7.53876E+03  1.21416E+04 -1.33646E+04  5.43708E+03 -1.37867E+04 -5.16706E+03
 -7.22000E+03 -1.60849E+04  3.99527E+03 -1.82443E+04  1.53997E+04 -1.14148E+04  1.69875E+04  3.67464E+03
  1.00748E+04  1.25885E+04 -1.98339E+03  1.58540E+04 -1.15868E+04  8.27300E+03 -1.32092E+04 -8.17253E+02
 -1.12764E+04 -1.04265E+04 -8.67009E+02 -1.18035E+04  7.07338E+03 -9.59637E+03  7.74154E+03 -3.48126E+03
  5.24523E+03  2.10597E+03 -1.60660E+03  1.54520E+03 -9.91719E+02 -3.57591E+03  3.12956E+03 -7.94615E+03
  1.10815E+04 -4.23336E+03  1.60125E+04  2.15850E+03  1.58043E+04  1.10629E+04  9.56842E+03  2.09302E+04
 -4.73575E+03  2.42212E+04 -2.04678E+04  1.79473E+04 -2.63707E+04  3.34216E+03 -2.09228E+04 -7.71734E+03
 -9.99535E+03 -1.68247E+04  1.87089E+02 -1.45652E+04  5.84973E+03 -8.12037E+03  5.09729E+03 -5.55629E+03
  4.08003E+03 -3.01965E+03  4.50210E+03 -3.45849E+03  5.73162E+03 -3.14029E+03  7.52043E+03 -1.37993E+03
  1.06065E+04  2.77672E+03  5.40425E+03  1.00250E+04 -2.24001E+03  1.15734E+04 -1.08896E+04  9.57350E+03
 -1.44181E+04 -9.39452E+02 -9.83513E+03 -1.02140E+04 -5.49057E+02 -1.64228E+04  9.52887E+03 -1.58429E+04
  1.70012E+04 -8.18191E+03  2.00777E+04  2.87767E+03  1.33575E+04  1.37551E+04  2.15989E+03  1.83998E+04
 -7.69438E+03  1.45871E+04 -1.06156E+04  5.13713E+03 -7.77585E+03 -2.24852E+03 -3.69046E+03 -1.20785E+03
 -7.73971E+02 -6.80829E+02 -2.85768E+03  2.99497E+03 -5.08428E+03  2.05625E+03 -1.02862E+04 -1.24641E+03
 -7.30772E+03 -1.05827E+04  5.37819E+02 -1.40437E+04  9.09618E+03 -1.30534E+04  1.48442E+04 -4.82084E+03
  1.44328E+04  7.89082E+03  7.39544E+03  1.33013E+04 -2.69836E+03  1.48513E+04 -1.07828E+04  9.95557E+03
 -1.42273E+04 -1.27372E+02 -1.08112E+04 -9.43297E+03 -1.08620E+03 -1.28144E+04  6.21228E+03 -9.88374E+03
  9.50971E+03 -3.18737E+03  5.95277E+03  1.87748E+03  2.53052E+03  4.03125E+03  1.27015E+03  2.37669E+03
  2.37112E+03  1.73612E+03  3.40377E+03  2.07368E+03  4.14488E+03  5.35944E+03  4.36125E+03  7.94594E+03
 -3.37901E+03  1.19421E+04 -9.86805E+03  1.10779E+04 -1.53385E+04  2.54998E+03 -1.65498E+04 -7.38935E+03
 -7.91266E+03 -1.51103E+04  2.43971E+03 -1.66587E+04  9.43625E+03 -9.80587E+03  1.26075E+04 -2.58492E+03
  9.01883E+03  5.46965E+03  2.09147E+03  8.42466E+03 -4.71101E+03  5.48786E+03 -6.18716E+03 -8.11450E+02
 -2.78179E+03 -6.88377E+03  4.24968E+03 -7.36489E+03  6.96802E+03 -2.91020E+03  6.05902E+03  1.98288E+03
  3.48566E+03  2.74613E+03  1.32282E+03  2.41415E+03 -5.29456E+02  2.14160E+03  1.09160E+03 -3.11539E+01
  1.95719E+03 -5.73062E+02  5.58654E+03  2.30927E+03  3.58769E+03  7.64311E+03 -2.07822E+03  1.05340E+04
 -6.84501E+03  6.63811E+03 -9.43935E+03  1.97183E+03 -8.55304E+03 -3.24744E+03 -2.27095E+03 -5.52199E+03
  6.72029E+02 -6.05021E+03  4.64745E+03 -3.24339E+03  3.34013E+03  2.79096E+03 -1.23988E+03  5.35149E+03
 -5.85429E+03  2.96584E+03 -6.83015E+03 -4.09911E+03 -3.90400E+03 -7.93945E+03  4.49422E+02 -8.39282E+03
  5.20285E+03 -5.02697E+03  6.52524E+03 -8.81088E+02  4.81109E+03  2.38744E+03  8.17453E+02  4.68451E+03
 -2.76672E+03  1.89027E+03 -2.94736E+03 -3.86466E+03  1.61913E+03 -7.72280E+03  7.81687E+03 -4.86613E+03
  9.64047E+03  7.41357E+02  9.10361E+03  6.10836E+03  3.39441E+03  1.01633E+04 -4.35749E+03  9.86711E+03
 -8.12159E+03  4.25859E+03 -9.10660E+03 -3.70511E+02 -5.10105E+03 -6.78863E+03  9.35302E+02 -6.20671E+03
  6.60630E+03 -3.07846E+03  4.93435E+03  2.84584E+03  1.71391E+03  5.49884E+03 -1.21668E+03  4.48531E+03
 -2.67659E+03  2.66822E+03 -2.75646E+03  9.76514E+02 -7.17372E+02  1.35188E+03 -1.56922E+03  1.41372E+03
 -3.46650E+03  3.26833E+03 -6.75152E+03  3.18893E+03 -9.88452E+03  4.99949E+02 -1.08972E+04 -6.84504E+03
 -4.76875E+03 -1.33585E+04  2.92304E+03 -1.48288E+04  9.86515E+03 -1.16752E+04  1.44318E+04 -4.15994E+03
  1.32758E+04  2.95434E+03  8.05918E+03  9.12895E+03  1.42359E+03  1.01450E+04 -4.34507E+03  7.89729E+03
 -5.80235E+03  3.12339E+03 -4.24262E+03 -1.29855E+03 -2.32351E+03 -1.44185E+03 -2.75071E+02 -9.54554E+02
 -1.06385E+03  9.66579E-01 -2.91425E+03 -7.79634E+02 -1.08915E+03 -2.24525E+03  4.07120E+02 -4.07242E+03
  4.38358E+03 -3.64112E+03  6.72331E+03 -6.56040E+02  7.52822E+03  5.82105E+03  2.40319E+03  1.14103E+04
 -4.66671E+03  1.21711E+04 -1.12548E+04  7.36419E+03 -1.30430E+04 -8.71726E+02 -9.81437E+03 -8.08207E+03
 -4.54665E+03 -1.08156E+04  2.81186E+03 -9.65343E+03  6.84294E+03 -4.16363E+03  6.98387E+03 -2.31765E+02
  3.71266E+03  3.87921E+03  6.46442E+01  3.15895E+03 -2.32512E+03 -1.34487E+02 -2.48622E+02 -3.43001E+03
  2.43792E+03 -1.50237E+03  4.69443E+03  1.54153E+03  2.74479E+03  3.95170E+03 -3.74849E+02  4.78210E+03
 -5.61862E+03  4.31239E+03 -7.03627E+03  4.29709E+02 -5.81730E+03 -4.83553E+03 -6.06077E+02 -8.16987E+03
  4.60969E+03 -6.83219E+03  7.77286E+03 -3.03733E+03  8.02510E+03  1.60054E+03  4.56258E+03  5.32957E+03
  1.33323E+03  7.13318E+03 -2.38982E+03  5.96323E+03 -4.25044E+03  2.72188E+03 -4.24304E+03  6.04667E+02
 -1.72515E+03 -5.71545E+01 -1.51172E+03  5.76598E+02 -3.52502E+03  8.07134E+02 -5.47469E+03 -1.42102E+03
 -5.35170E+03 -3.04503E+03 -8.65211E+02 -6.86129E+03  3.95267E+03 -7.03895E+03  6.02687E+03 -3.40835E+03
  6.88227E+03  8.65997E+02  4.48219E+03  5.33315E+03 -2.03362E+02  7.73971E+03 -6.09035E+03  4.96892E+03
