 $NMID ID='MM_0lb_SNR400_16hz_g40_15.RAW', FMTDAT='(8E13.5)'
 TRAMP=1., VOLUME=1. $END
  3.10292E+05  3.15582E+02  3.37246E+05  2.50683E+05  8.47546E+04  3.37689E+05 -1.32132E+05  2.50310E+05
 -1.89434E+05  8.25708E+04 -1.11324E+05 -3.25925E+04  9.59618E+02 -5.07610E+04  5.40933E+04  5.07002E+01
  3.49424E+04  5.27593E+04 -1.69916E+04  7.54623E+04 -5.97288E+04  6.29743E+04 -8.35959E+04  3.15645E+04
 -8.03618E+04 -1.10159E+04 -5.67016E+04 -5.07176E+04 -1.49238E+04 -6.88600E+04  2.69894E+04 -4.55319E+04
  3.94055E+04  3.57128E+03  1.60950E+04  4.73926E+04 -3.45704E+04  4.69709E+04 -6.61411E+04 -1.09251E+02
 -5.20448E+04 -5.56184E+04 -6.33984E+03 -7.56169E+04  3.30617E+04 -5.40057E+04  4.68749E+04 -1.64573E+04
  4.17801E+04  1.10434E+04  3.11598E+04  2.48793E+04  1.53598E+04  2.91176E+04 -5.10136E+03  2.70443E+04
 -2.22561E+04  1.23211E+04 -1.93951E+04 -5.06671E+03  4.57215E+03 -7.44364E+03  2.17923E+04  1.10116E+04
  7.63538E+03  3.39029E+04 -3.08334E+04  3.45880E+04 -6.15811E+04  1.78763E+03 -5.57911E+04 -4.18707E+04
 -1.22693E+04 -6.15898E+04  3.85034E+04 -4.37451E+04  5.65130E+04 -2.30166E+03  3.26150E+04  3.08481E+04
 -6.53694E+03  3.37633E+04 -2.88051E+04  1.36774E+04 -2.80531E+04 -5.28410E+03 -1.54108E+04 -1.01215E+04
 -7.72742E+03 -1.19954E+04 -1.59263E+03 -1.77356E+04  6.86908E+03 -2.24328E+04  1.54509E+04 -1.35390E+04
  1.16690E+04  4.40084E+03 -6.43149E+03  1.32175E+04 -1.99326E+04 -3.56740E+03 -8.33166E+03 -3.15525E+04
  2.09328E+04 -4.16290E+04  4.56674E+04 -1.89671E+04  4.27720E+04  1.84489E+04  1.53664E+04  4.25101E+04
 -1.59227E+04  3.19744E+04 -2.41842E+04  1.61290E+03 -8.94331E+03 -2.64090E+04  2.06831E+04 -3.22746E+04
  3.92182E+04 -7.77467E+03  3.30240E+04  2.29720E+04  1.64439E+04  4.35987E+04 -7.92964E+03  4.69239E+04
 -2.92183E+04  3.17473E+04 -3.87650E+04  8.65585E+03 -3.95286E+04 -1.60861E+04 -2.22616E+04 -3.62704E+04
  6.30413E+03 -3.51362E+04  2.97260E+04 -1.30507E+04  2.73984E+04  1.03869E+04  3.69902E+03  1.81271E+04
 -1.33803E+04  7.84454E+03 -1.00234E+04 -7.64408E+03  5.44338E+03 -1.02333E+04  1.77596E+04  6.46896E+03
  1.26615E+04  2.18223E+04 -6.48678E+03  2.35790E+04 -2.20962E+04  9.87661E+03 -2.56102E+04 -6.02726E+03
 -1.75464E+04 -1.72859E+04 -6.71505E+03 -1.85317E+04  3.47978E+03 -1.61169E+04  1.36721E+04 -1.57721E+04
  2.29617E+04 -1.21953E+04  2.95249E+04  1.41378E+03  2.19662E+04  1.74733E+04  4.17878E+03  3.37672E+04
 -1.66871E+04  2.77810E+04 -2.67151E+04  9.62257E+03 -2.02566E+04 -1.02012E+04 -4.08144E+03 -1.36883E+04
  2.89292E+03 -3.23719E+03 -3.14869E+03  5.67790E+03 -1.39863E+04  5.11867E+03 -1.51239E+04 -5.81448E+03
 -9.06421E+03 -1.72457E+04  4.65018E+03 -2.06384E+04  1.31757E+04 -1.45270E+04  1.61294E+04 -1.31501E+03
  8.83473E+03  1.14601E+04 -7.25319E+02  1.68367E+04 -1.12665E+04  1.00341E+04 -1.67298E+04 -3.85775E+03
 -1.23666E+04 -1.44792E+04 -1.26164E+03 -2.08080E+04  9.39488E+03 -1.63475E+04  1.64063E+04 -7.70521E+03
  1.52816E+04  5.63261E+02  1.10033E+04  4.36609E+03  6.12970E+03  6.57664E+02  8.29857E+03 -1.65856E+03
  1.51742E+04  2.49492E+03  1.68029E+04  1.38114E+04  1.01340E+04  2.65281E+04 -2.88475E+03  2.92078E+04
 -1.76703E+04  2.30322E+04 -2.62667E+04  1.14242E+04 -2.79473E+04 -1.81415E+03 -2.31562E+04 -1.60248E+04
 -1.08995E+04 -2.28682E+04  7.38274E+03 -2.12031E+04  1.85216E+04 -1.14341E+04  1.70364E+04  4.13348E+03
  6.49777E+03  1.20564E+04 -8.22854E+03  1.09513E+04 -1.45424E+04  3.06086E+03 -1.07908E+04 -8.48722E+03
 -4.35773E+02 -1.31176E+04  7.46313E+03 -1.05392E+04  8.22793E+03 -1.08535E+03  1.41952E+03  5.16638E+03
 -5.95349E+03  1.48167E+03 -4.33970E+03 -4.44704E+03  6.60219E+01 -1.13351E+04  9.22700E+03 -1.17418E+04
  1.31812E+04 -5.13685E+03  1.45551E+04  2.63037E+03  1.21682E+04  1.17349E+04  6.07174E+03  1.63716E+04
 -2.15114E+03  1.83592E+04 -1.15594E+04  1.13683E+04 -1.26040E+04  2.88930E+03 -8.96453E+03 -2.18373E+03
 -4.47761E+03 -3.34046E+03 -4.88398E+02  1.32012E+03 -2.46237E+03  1.88619E+03 -3.87985E+03  3.59606E+03
 -8.48905E+03 -8.35324E+02 -9.77329E+03 -8.43832E+03 -3.63144E+03 -1.26427E+04  3.67662E+03 -9.14622E+03
  8.10109E+03 -4.23969E+03  6.28009E+03  2.29185E+03  4.19052E+02  3.57554E+03 -3.79559E+03 -8.33140E+02
 -4.46908E+03 -5.83552E+03 -1.96688E+02 -8.78842E+03  4.76607E+03 -8.97550E+03  1.17300E+04 -5.03501E+03
  1.37851E+04  1.19367E+03  9.78410E+03  7.51803E+03  2.21644E+03  1.03153E+04 -5.83402E+03  9.32931E+03
 -8.24624E+03  2.66132E+03 -4.26575E+03 -1.91893E+03  1.62186E+03 -1.61004E+03  5.48226E+03 -1.29737E+03
  4.14202E+03  3.84320E+03  5.95060E+02  7.06791E+03 -5.35875E+03  7.48561E+03 -8.95862E+03  2.51660E+03
 -5.89441E+03 -4.15028E+03  5.94376E+02 -8.23840E+03  4.30624E+03 -4.10832E+03  4.06188E+03  1.82813E+03
  9.20632E+02  3.61786E+03 -4.75150E+03  5.70215E+03 -6.43498E+03  2.47590E+03 -5.84817E+03 -1.69106E+03
 -2.97084E+03 -7.36051E+03  1.49903E+03 -8.71081E+03  7.13966E+03 -5.11537E+03  7.56770E+03  1.94705E+03
  5.63917E+03  6.04137E+03  1.08901E+01  8.40137E+03 -6.01511E+03  5.04444E+03 -6.63192E+03 -9.17497E+02
 -6.72562E+03 -5.52732E+03 -1.31944E+03 -5.55667E+03  3.18665E+03 -5.31357E+03  4.22491E+03 -3.68956E+03
  3.40426E+03  4.07969E+02 -4.54839E+01  1.45426E+03  3.86250E+02 -1.10969E+02  1.15005E+03 -3.13070E+03
  4.62649E+03 -1.32822E+03  7.04148E+03  1.00333E+03  7.14407E+03  4.28421E+03  5.66029E+03  9.28602E+03
 -2.07045E+03  1.00945E+04 -9.07151E+03  8.21449E+03 -1.22556E+04  1.36828E+03 -9.90382E+03 -4.01151E+03
 -5.33804E+03 -7.93425E+03 -2.77969E+02 -6.20940E+03  2.49854E+03 -3.48981E+03  1.73945E+03 -2.98210E+03
  1.80526E+03 -1.69421E+03  2.32253E+03 -2.16722E+03  3.64649E+03 -1.95511E+03  4.59443E+03  5.63285E+02
  5.08387E+03  1.38891E+03  1.14425E+03  4.62521E+03 -1.44563E+03  4.18218E+03 -5.65137E+03  3.30966E+03
 -6.47668E+03 -1.03515E+03 -2.58616E+03 -4.07092E+03  3.32029E+02 -6.49730E+03  4.50566E+03 -6.90472E+03
  7.00310E+03 -4.16421E+03  8.72156E+03  1.32725E+03  6.38867E+03  6.05828E+03  1.49127E+03  7.63219E+03
 -2.85144E+03  6.78754E+03 -4.55186E+03  2.42576E+03 -3.10724E+03 -1.27900E+03 -1.61840E+03 -1.14168E+03
 -1.17759E+03  4.70209E+02 -1.48865E+03  2.26749E+03 -3.12886E+03  1.19660E+03 -5.09082E+03 -2.27727E+02
 -2.19420E+03 -5.28276E+03  2.88635E+02 -6.09823E+03  3.10877E+03 -6.13732E+03  5.83471E+03 -1.40391E+03
  5.98590E+03  2.88819E+03  3.38336E+03  4.54227E+03 -8.92450E+02  5.71331E+03 -4.06963E+03  3.83958E+03
 -5.09626E+03  6.83956E+02 -4.36515E+03 -3.47637E+03 -8.11538E+02 -4.20323E+03  2.45314E+03 -3.60010E+03
  3.89438E+03 -1.37280E+03  2.44760E+03  6.77743E+02  1.24238E+03  2.12045E+03  1.06382E+03  1.17868E+03
  1.99697E+03  6.06759E+02  1.43149E+03  1.62912E+03  9.56736E+02  2.46172E+03  2.02076E+03  2.15700E+03
 -1.29711E+03  4.10980E+03 -3.24172E+03  4.41517E+03 -4.62770E+03  1.64792E+03 -6.36525E+03 -1.04794E+03
 -2.17016E+03 -5.60823E+03  8.43925E+02 -5.86856E+03  3.60864E+03 -3.31671E+03  4.34366E+03 -1.30360E+03
  3.46206E+03  1.94664E+03  6.75791E+02  3.26696E+03 -1.65399E+03  2.28529E+03 -1.92645E+03  5.39662E+02
 -8.77773E+02 -1.94020E+03  1.64114E+03 -1.74368E+03  1.97201E+03 -1.11393E+03  2.60674E+03  3.52842E+02
  1.00001E+03  3.23662E+02  7.66435E+02  1.22238E+02 -4.49384E+02  9.66248E+02  1.58635E+03  1.08365E+02
  6.04379E+02 -6.49175E+02  2.54566E+03  7.31170E+02  1.15982E+03  3.08025E+03 -6.33619E+02  3.61090E+03
 -2.64475E+03  1.54619E+03 -3.32213E+03  6.77899E+02 -3.02289E+03 -9.29827E+02 -4.81126E+02 -1.48524E+03
  7.19551E+02 -1.92829E+03  1.20077E+03 -1.27515E+03  1.06209E+03  1.55261E+03 -4.50326E+02  1.55549E+03
 -2.63833E+03  3.88863E+02 -2.07666E+03 -1.59631E+03 -1.07454E+03 -2.97753E+03  2.47674E+02 -2.76099E+03
  1.09425E+03 -1.03596E+03  1.72516E+03 -1.55368E+02  1.51125E+03 -1.75472E+01  4.53192E+02  1.58515E+03
 -3.79207E+02 -3.20368E+02 -8.26478E+02 -6.56342E+02  6.71235E+02 -1.56997E+03  3.16285E+03 -1.55139E+03
  3.20566E+03  3.32313E+02  3.78011E+03  1.49582E+03  1.59583E+03  2.72645E+03 -2.57098E+02  2.02219E+03
 -2.04759E+03  6.64090E+02 -2.52071E+03 -2.43402E+02 -1.30611E+03 -1.81117E+03  6.61901E+02 -1.26227E+03
  1.99141E+03 -1.34151E+03  1.65815E+03  1.11419E+03  3.23217E+02  1.53162E+03 -1.01046E+02  1.58882E+03
 -3.01829E+02  1.34822E+03 -9.01946E+02  1.77261E+02 -5.12137E+02  3.42273E+02 -8.81291E+02  1.24438E+03
 -6.28551E+02  1.15498E+03 -2.66139E+03  1.33207E+03 -2.90706E+03  1.53263E+02 -3.68343E+03 -1.66784E+03
 -1.89936E+03 -3.08542E+03  6.74865E+02 -4.48445E+03  2.09562E+03 -3.89056E+03  3.77946E+03 -7.54804E+02
  3.83000E+03  7.05801E+01  2.66514E+03  2.91931E+03  4.96228E+01  2.52739E+03 -8.06127E+02  2.11726E+03
 -1.68629E+03  1.18218E+03 -4.94514E+02 -3.06278E+02 -7.40015E+01 -1.45799E+01 -4.33850E+02  3.78133E+02
 -1.11936E+03  1.10509E+02 -9.68144E+02  3.71802E+02  3.28349E+02 -8.49749E+02  2.74398E+02 -1.11504E+03
  1.47583E+03 -1.19757E+03  1.35942E+03 -1.49071E+02  1.87969E+03  1.38798E+03  1.84624E+02  2.25598E+03
 -1.49569E+03  3.82364E+03 -2.36654E+03  2.24330E+03 -3.61101E+03 -6.36746E+02 -2.15513E+03 -2.26174E+03
 -1.12654E+03 -2.17173E+03  5.69471E+02 -2.17413E+03  1.61012E+03 -1.62986E+02  1.43500E+03 -3.43095E+02
  1.10085E+03  1.28753E+03  2.58865E+01  7.90739E+02 -6.86422E+02 -4.01422E+02  2.35734E+02 -2.77920E+02
  7.79679E+02 -5.58738E+01  2.01817E+01  8.07838E+02 -1.97518E+02  1.06490E+03  4.41857E+02  1.03094E+03
 -6.98024E+02  1.35594E+03 -9.60771E+02  2.54253E+01 -1.29621E+03 -1.30420E+03 -2.81570E+01 -2.53233E+03
  4.38843E+02 -1.72937E+03  1.32619E+03  2.19126E+02  1.92276E+03  2.73885E+01  4.25266E+02  1.44291E+03
  5.29122E+02  1.67926E+03 -3.08848E+02  6.14915E+02 -1.44233E+03  1.01766E+03 -1.28377E+03  7.65968E+00
 -1.35142E+02  5.90984E+01 -7.35994E+02  1.78968E+02 -1.43768E+03 -2.25020E+02 -8.96566E+02 -4.62870E+02
 -1.65447E+03 -8.04627E+02 -1.00140E+03 -1.99766E+03  1.28259E+03 -2.39300E+03  1.13120E+03 -4.32893E+02
  1.46276E+03 -1.88338E+02  3.42990E+02  6.25923E+02  1.96110E+02  1.18986E+03 -6.34465E+02  1.63369E+03
