 $NMID ID='MM_0lb_SNR400_8hz_g40_71.RAW', FMTDAT='(8E13.5)'
 TRAMP=1., VOLUME=1. $END
  3.09577E+05  2.95282E+01  3.37552E+05  2.50743E+05  8.52193E+04  3.38773E+05 -1.33180E+05  2.51879E+05
 -1.91332E+05  8.40485E+04 -1.12268E+05 -3.23835E+04  2.64492E+02 -5.05035E+04  5.37007E+04 -4.42610E+02
  3.60559E+04  5.36910E+04 -1.61691E+04  7.70847E+04 -6.17866E+04  6.47363E+04 -8.55820E+04  3.25938E+04
 -8.30487E+04 -1.23898E+04 -5.76645E+04 -5.24936E+04 -1.49116E+04 -7.05807E+04  2.87998E+04 -4.68558E+04
  4.07073E+04  3.91961E+03  1.68124E+04  4.85443E+04 -3.44244E+04  4.74484E+04 -6.81848E+04  2.85635E+02
 -5.48688E+04 -5.77468E+04 -7.72286E+03 -7.87271E+04  3.44173E+04 -5.69996E+04  4.97604E+04 -1.82578E+04
  4.55066E+04  1.07793E+04  3.30837E+04  2.63970E+04  1.48193E+04  3.00009E+04 -5.53979E+03  2.77790E+04
 -2.27646E+04  1.21799E+04 -1.74022E+04 -5.95803E+03  7.24604E+03 -6.53503E+03  2.28091E+04  1.43249E+04
  7.55408E+03  3.76248E+04 -3.33192E+04  3.67244E+04 -6.61416E+04  1.62794E+03 -5.99375E+04 -4.45219E+04
 -1.20889E+04 -6.59945E+04  4.17546E+04 -4.76860E+04  6.08312E+04 -2.87696E+03  3.75721E+04  3.46847E+04
 -4.58343E+03  4.01536E+04 -3.25581E+04  1.87186E+04 -3.42845E+04 -3.84676E+03 -1.90606E+04 -1.10997E+04
 -9.62339E+03 -1.48532E+04 -8.93305E+02 -1.94168E+04  8.92739E+03 -2.33997E+04  1.51526E+04 -1.30674E+04
  1.05261E+04  6.62792E+03 -1.13366E+04  1.35098E+04 -2.31394E+04 -6.26978E+03 -8.42179E+03 -3.77982E+04
  2.49902E+04 -4.73072E+04  5.22548E+04 -2.07535E+04  4.88818E+04  2.07511E+04  1.72221E+04  4.77083E+04
 -1.72935E+04  3.51929E+04 -2.78826E+04  2.42533E+03 -1.18366E+04 -2.96126E+04  2.21583E+04 -3.71938E+04
  4.48932E+04 -1.13967E+04  4.02407E+04  2.55591E+04  2.27614E+04  5.22553E+04 -8.70046E+03  5.69520E+04
 -3.56317E+04  3.93615E+04 -4.81401E+04  1.08210E+04 -4.79855E+04 -1.91085E+04 -2.68288E+04 -4.17793E+04
  8.35299E+03 -4.19811E+04  3.46324E+04 -1.66511E+04  3.28737E+04  1.05621E+04  4.96590E+03  2.15837E+04
 -1.37834E+04  9.28305E+03 -1.12325E+04 -7.78898E+03  6.18695E+03 -1.15348E+04  1.89868E+04  5.12369E+03
  1.53935E+04  2.27260E+04 -4.63182E+03  2.67982E+04 -2.27330E+04  1.43095E+04 -3.13549E+04 -3.08965E+03
 -2.57167E+04 -1.83316E+04 -1.18233E+04 -2.46917E+04  4.76215E+03 -2.70133E+04  1.91382E+04 -2.32310E+04
  3.13335E+04 -1.32293E+04  3.83628E+04  5.31870E+03  2.73373E+04  2.38891E+04  4.31741E+03  4.24871E+04
 -1.96640E+04  3.42875E+04 -3.05280E+04  1.24414E+04 -2.32261E+04 -1.03053E+04 -5.09475E+03 -1.33997E+04
  1.38388E+03 -4.19574E+02 -8.17972E+03  9.19102E+03 -2.06914E+04  4.47491E+03 -2.04098E+04 -1.02073E+04
 -1.16177E+04 -2.36411E+04  6.37164E+03 -2.87757E+04  1.83797E+04 -2.00371E+04  2.27612E+04 -1.75494E+03
  1.52143E+04  1.61693E+04 -1.79545E+03  2.36967E+04 -1.67417E+04  1.32657E+04 -2.38437E+04 -4.51601E+03
 -1.75290E+04 -2.20527E+04 -1.82300E+03 -2.81702E+04  1.24978E+04 -2.28693E+04  2.28154E+04 -1.21504E+04
  2.20187E+04 -9.76732E+02  1.55096E+04  5.67715E+03  8.83229E+03  1.54887E+03  1.33991E+04 -2.10151E+03
  2.29564E+04  2.28607E+03  2.57530E+04  1.77076E+04  1.82155E+04  3.81746E+04 -2.98693E+03  4.42492E+04
 -2.50027E+04  3.78592E+04 -4.27675E+04  1.88589E+04 -4.46630E+04 -4.17087E+03 -3.66569E+04 -2.60042E+04
 -1.55805E+04 -3.73113E+04  1.29850E+04 -3.33240E+04  2.85219E+04 -1.56916E+04  2.42474E+04  7.46503E+03
  8.27641E+03  1.94392E+04 -1.15317E+04  1.54833E+04 -2.08948E+04  1.79407E+03 -1.60799E+04 -1.26200E+04
 -3.43453E+02 -1.96153E+04  1.04689E+04 -1.46405E+04  1.33094E+04 -3.14068E+02  3.84308E+03  8.82808E+03
 -9.06272E+03  4.90625E+03 -9.30393E+03 -6.98569E+03 -2.34674E+03 -1.95188E+04  1.14216E+04 -2.05151E+04
  2.25930E+04 -1.04434E+04  2.69027E+04  3.74144E+03  2.29984E+04  1.98078E+04  1.15219E+04  2.90147E+04
 -6.23117E+03  3.25032E+04 -2.10883E+04  1.93206E+04 -2.34970E+04  3.55479E+03 -1.57666E+04 -5.68455E+03
 -6.22260E+03 -7.00146E+03 -3.05016E+02  4.78210E+02 -3.26595E+03  3.73372E+03 -6.93040E+03  5.67481E+03
 -1.50591E+04 -1.14891E+03 -1.46708E+04 -1.14612E+04 -5.71423E+03 -1.91721E+04  5.97561E+03 -1.63269E+04
  1.30939E+04 -6.76777E+03  9.49642E+03  4.47718E+03 -3.99314E+02  6.74259E+03 -6.96705E+03  5.64601E+02
 -7.91909E+03 -1.04396E+04 -1.80428E+03 -1.62495E+04  8.76446E+03 -1.72138E+04  2.05976E+04 -9.83710E+03
  2.35359E+04  3.11507E+03  1.80006E+04  1.48628E+04  3.57141E+03  1.88606E+04 -9.98441E+03  1.54256E+04
 -1.24474E+04  4.37315E+03 -6.43870E+03 -2.95535E+03  1.63436E+03 -4.69145E+03  7.81208E+03 -1.54827E+03
  7.62593E+03  6.33445E+03  6.77919E+02  1.27377E+04 -9.98042E+03  1.22830E+04 -1.63754E+04  2.15734E+03
 -1.10897E+04 -9.27324E+03  1.07575E+03 -1.43868E+04  9.02694E+03 -7.04207E+03  9.62408E+03  3.55201E+03
  2.64654E+03  1.07209E+04 -8.95831E+03  1.28636E+04 -1.38878E+04  5.45473E+03 -1.42342E+04 -5.43201E+03
 -8.62557E+03 -1.69026E+04  3.98308E+03 -1.84762E+04  1.65442E+04 -1.19280E+04  1.76647E+04  2.72126E+03
  9.89524E+03  1.43517E+04 -2.36211E+03  1.68117E+04 -1.24346E+04  9.47487E+03 -1.45342E+04 -1.64932E+03
 -9.95939E+03 -1.03883E+04 -1.85478E+03 -1.23774E+04  6.88000E+03 -9.41694E+03  7.18778E+03 -4.02347E+03
  5.89260E+03  2.06008E+03 -1.50084E+03  2.21315E+03 -1.15223E+03 -4.08457E+03  2.27390E+03 -7.44871E+03
  1.26197E+04 -6.02800E+03  1.71405E+04  1.72959E+03  1.58860E+04  1.14636E+04  1.00258E+04  2.19739E+04
 -5.21798E+03  2.50165E+04 -2.05027E+04  1.75175E+04 -2.65860E+04  3.79918E+03 -2.13744E+04 -9.11080E+03
 -1.02033E+04 -1.78543E+04  2.14528E+02 -1.56100E+04  5.48676E+03 -8.55099E+03  5.62302E+03 -6.03618E+03
  4.82107E+03 -2.89727E+03  4.10351E+03 -3.80604E+03  5.75607E+03 -3.14924E+03  8.83757E+03 -1.50697E+03
  1.15397E+04  1.80754E+03  6.68043E+03  9.71337E+03 -2.54865E+03  1.28059E+04 -1.17928E+04  9.15728E+03
 -1.56431E+04 -2.12995E+03 -9.33428E+03 -1.04870E+04 -1.08850E+03 -1.63601E+04  8.68496E+03 -1.66979E+04
  1.73618E+04 -9.51978E+03  2.05096E+04  2.76513E+03  1.39036E+04  1.38116E+04  1.88713E+03  1.91418E+04
 -7.47653E+03  1.42259E+04 -1.13951E+04  5.38806E+03 -8.35940E+03 -3.05010E+03 -2.89434E+03 -2.49012E+03
 -1.59949E+03 -3.42511E+02 -2.59531E+03  3.85899E+03 -5.78937E+03  1.56455E+03 -9.87485E+03 -1.00203E+03
 -7.94848E+03 -1.05456E+04 -1.51568E+02 -1.65755E+04  9.26025E+03 -1.38567E+04  1.52010E+04 -4.86923E+03
  1.49296E+04  7.96085E+03  7.41783E+03  1.41650E+04 -2.73644E+03  1.53163E+04 -1.13801E+04  1.06969E+04
 -1.46708E+04  1.89349E+02 -1.09647E+04 -9.24404E+03 -7.92820E+02 -1.33750E+04  6.61541E+03 -9.35129E+03
  1.02696E+04 -2.82614E+03  7.55324E+03  2.81567E+03  3.21356E+03  5.47789E+03  2.12363E+03  2.32403E+03
  3.80478E+03  1.32652E+03  4.14054E+03  1.90280E+03  5.35074E+03  5.59030E+03  3.74430E+03  8.48329E+03
 -3.39190E+03  1.25262E+04 -1.16452E+04  1.27155E+04 -1.67243E+04  2.74203E+03 -1.72426E+04 -7.26189E+03
 -8.54038E+03 -1.63555E+04  2.09839E+03 -1.74639E+04  1.03612E+04 -1.07393E+04  1.32661E+04 -2.41369E+03
  9.23202E+03  6.01283E+03  1.99214E+03  9.81564E+03 -4.48148E+03  6.42298E+03 -6.57895E+03 -1.11734E+03
 -2.52711E+03 -7.23682E+03  3.59622E+03 -7.44974E+03  6.67778E+03 -4.20375E+03  7.45676E+03  9.00398E+02
  5.07852E+03  3.11001E+03  1.37191E+03  2.40886E+03 -4.15281E+02  2.49647E+03  1.03264E+03  2.26318E+02
  2.92425E+03 -8.49512E+02  6.35973E+03  2.16599E+03  3.99946E+03  8.83823E+03 -2.24153E+03  1.18794E+04
 -7.72898E+03  8.60853E+03 -1.01804E+04  1.64772E+03 -1.02578E+04 -3.05832E+03 -3.19153E+03 -6.47433E+03
  1.33211E+03 -6.30499E+03  4.59735E+03 -2.58530E+03  2.89756E+03  2.47416E+03 -1.60675E+03  5.42304E+03
 -6.49373E+03  3.16967E+03 -8.08772E+03 -4.58602E+03 -4.74287E+03 -9.66189E+03  1.73508E+03 -9.45837E+03
  5.28889E+03 -5.61480E+03  7.14167E+03 -3.34194E+02  5.45519E+03  2.67023E+03  3.50281E+02  4.68511E+03
 -3.54103E+03  1.90282E+03 -4.43493E+03 -3.36177E+03  7.94054E+02 -8.27003E+03  7.66168E+03 -5.43431E+03
  1.10297E+04  2.18244E+01  9.53181E+03  7.67498E+03  2.36364E+03  1.09734E+04 -4.06628E+03  1.01325E+04
 -8.30535E+03  3.90696E+03 -1.02509E+04 -1.35947E+03 -5.42347E+03 -6.98448E+03  5.46394E+02 -7.03835E+03
  6.65229E+03 -3.05991E+03  5.74369E+03  3.15912E+03  2.12168E+03  5.98104E+03 -1.23162E+03  4.79805E+03
 -3.54946E+03  3.69911E+03 -2.73926E+03  1.39320E+03 -2.15284E+03  1.13127E+03 -2.03976E+03  2.89323E+03
 -2.62342E+03  4.05707E+03 -7.50994E+03  3.31661E+03 -1.03120E+04  5.03360E+01 -1.27601E+04 -7.33704E+03
 -6.67750E+03 -1.45031E+04  2.36899E+03 -1.76045E+04  1.08494E+04 -1.31913E+04  1.62192E+04 -5.52535E+03
  1.48128E+04  3.32580E+03  9.38866E+03  1.01221E+04  1.13166E+03  1.11686E+04 -4.40721E+03  8.61629E+03
 -6.28122E+03  3.13873E+03 -3.56873E+03 -1.78954E+03 -1.70190E+03 -1.10932E+03 -3.96050E+02  5.19735E+02
 -1.75848E+03  2.65115E+02 -2.05650E+03 -8.04519E+02 -1.33902E+03 -2.82766E+03  1.03241E+02 -3.99356E+03
  4.68725E+03 -3.20423E+03  6.29884E+03  5.43432E+02  8.30805E+03  6.80280E+03  2.38473E+03  1.17121E+04
 -5.07727E+03  1.41166E+04 -1.30112E+04  8.02243E+03 -1.44587E+04 -2.36243E+03 -1.01057E+04 -8.77071E+03
 -3.97655E+03 -1.16645E+04  2.42703E+03 -1.08238E+04  7.14037E+03 -6.67177E+03  7.81023E+03 -1.46363E+03
  4.34203E+03  3.42702E+03 -4.53278E+02  3.60354E+03 -2.34945E+03 -6.11107E+02 -8.61211E+02 -2.79795E+03
  3.38590E+03 -2.35269E+03  4.52490E+03  1.90615E+03  3.06233E+03  5.41996E+03 -5.91343E+02  7.39785E+03
 -4.60119E+03  4.76353E+03 -8.22637E+03  1.37424E+02 -7.45120E+03 -5.74523E+03 -1.24675E+03 -1.02434E+04
  5.52179E+03 -8.82623E+03  8.72754E+03 -2.62710E+03  8.73904E+03  2.29827E+03  6.25959E+03  7.61489E+03
  2.79647E+02  8.22560E+03 -3.87353E+03  6.97539E+03 -4.71253E+03  3.29045E+03 -4.29495E+03  9.35201E+02
 -2.96409E+03 -1.04842E+02 -2.84221E+03  4.75870E+02 -4.84933E+03  1.85791E+03 -5.68265E+03 -6.34679E+02
 -5.16804E+03 -3.82735E+03 -1.90086E+03 -8.34226E+03  3.33046E+03 -8.72314E+03  7.05648E+03 -4.27902E+03
  8.16822E+03  7.55591E+02  5.20598E+03  5.68593E+03 -4.49521E+02  7.75709E+03 -6.40072E+03  5.28112E+03
