 $NMID ID='MM_0lb_SNR400_10hz_g40_28.RAW', FMTDAT='(8E13.5)'
 TRAMP=1., VOLUME=1. $END
  3.09713E+05  5.42027E+02  3.37535E+05  2.50405E+05  8.45243E+04  3.38801E+05 -1.33008E+05  2.52090E+05
 -1.90570E+05  8.39874E+04 -1.11990E+05 -3.21138E+04  6.01335E+02 -5.09080E+04  5.29649E+04  7.02206E+01
  3.53849E+04  5.26847E+04 -1.68286E+04  7.55255E+04 -6.06096E+04  6.46350E+04 -8.47452E+04  3.21860E+04
 -8.24069E+04 -1.18261E+04 -5.72770E+04 -5.15459E+04 -1.45041E+04 -7.02370E+04  2.76034E+04 -4.65765E+04
  4.05433E+04  3.17952E+03  1.68855E+04  4.81012E+04 -3.50702E+04  4.85272E+04 -6.79288E+04 -3.08286E+02
 -5.49177E+04 -5.72500E+04 -7.46303E+03 -7.81111E+04  3.45994E+04 -5.64485E+04  4.95440E+04 -1.79709E+04
  4.44489E+04  1.16562E+04  3.20704E+04  2.60334E+04  1.52025E+04  3.01401E+04 -5.69042E+03  2.76761E+04
 -2.20093E+04  1.22433E+04 -1.87275E+04 -5.13288E+03  6.09748E+03 -6.82193E+03  2.32489E+04  1.31710E+04
  7.09089E+03  3.69257E+04 -3.26883E+04  3.67620E+04 -6.47168E+04  1.54715E+03 -5.80170E+04 -4.37369E+04
 -1.21820E+04 -6.50543E+04  4.09976E+04 -4.59235E+04  5.98884E+04 -3.07364E+03  3.59697E+04  3.30919E+04
 -5.46396E+03  3.75610E+04 -3.14303E+04  1.80978E+04 -3.17611E+04 -4.75783E+03 -1.86091E+04 -1.15810E+04
 -9.07806E+03 -1.45499E+04 -1.33903E+03 -1.93624E+04  7.99561E+03 -2.28741E+04  1.58229E+04 -1.25393E+04
  1.08406E+04  5.87153E+03 -9.73875E+03  1.30810E+04 -2.28130E+04 -6.18490E+03 -7.78564E+03 -3.56018E+04
  2.48050E+04 -4.56676E+04  5.07025E+04 -2.04143E+04  4.68489E+04  2.01052E+04  1.65083E+04  4.61962E+04
 -1.73271E+04  3.51935E+04 -2.66373E+04  1.77016E+03 -1.10118E+04 -2.85769E+04  2.09933E+04 -3.54086E+04
  4.35617E+04 -1.07341E+04  3.82087E+04  2.43645E+04  1.97564E+04  4.91528E+04 -7.68704E+03  5.35022E+04
 -3.32796E+04  3.57309E+04 -4.54963E+04  1.05092E+04 -4.58726E+04 -1.82674E+04 -2.44573E+04 -4.05705E+04
  8.07640E+03 -3.98272E+04  3.33302E+04 -1.57141E+04  3.22004E+04  1.11634E+04  4.33738E+03  1.97710E+04
 -1.37844E+04  9.26189E+03 -1.11530E+04 -8.67582E+03  5.98162E+03 -1.08133E+04  1.90307E+04  5.55431E+03
  1.45727E+04  2.22345E+04 -5.44409E+03  2.63435E+04 -2.29637E+04  1.30089E+04 -3.03239E+04 -4.00933E+03
 -2.31196E+04 -1.74211E+04 -1.08122E+04 -2.32534E+04  3.67113E+03 -2.34910E+04  1.81503E+04 -2.04960E+04
  2.96068E+04 -1.40198E+04  3.52024E+04  3.58277E+03  2.60737E+04  2.15586E+04  4.27532E+03  3.88069E+04
 -1.93813E+04  3.20074E+04 -2.93054E+04  1.20407E+04 -2.19750E+04 -1.05902E+04 -4.36497E+03 -1.28526E+04
  1.49348E+03 -1.72160E+03 -6.74040E+03  8.54295E+03 -1.85471E+04  4.57299E+03 -1.91490E+04 -9.05169E+03
 -1.10377E+04 -2.11581E+04  5.65223E+03 -2.59330E+04  1.70071E+04 -1.87041E+04  2.16360E+04 -1.81468E+03
  1.28610E+04  1.56996E+04 -1.19270E+03  2.14622E+04 -1.53098E+04  1.23772E+04 -2.23928E+04 -3.76432E+03
 -1.55167E+04 -1.96856E+04 -1.74176E+03 -2.63583E+04  1.18172E+04 -2.15073E+04  2.12567E+04 -1.08539E+04
  2.02188E+04  2.10957E+02  1.45738E+04  5.30055E+03  7.15465E+03  1.28732E+03  1.13657E+04 -1.31067E+03
  2.01355E+04  2.48888E+03  2.24350E+04  1.71320E+04  1.53242E+04  3.46909E+04 -2.38428E+03  4.08186E+04
 -2.27826E+04  3.25585E+04 -3.82322E+04  1.76045E+04 -4.02768E+04 -3.20787E+03 -3.24303E+04 -2.32329E+04
 -1.42425E+04 -3.33034E+04  1.14764E+04 -2.98721E+04  2.60200E+04 -1.46639E+04  2.23557E+04  7.49923E+03
  7.94195E+03  1.66357E+04 -1.06177E+04  1.42201E+04 -1.89802E+04  2.47848E+03 -1.43209E+04 -1.13327E+04
 -7.35139E+02 -1.89410E+04  9.91231E+03 -1.33169E+04  1.16309E+04 -7.67660E+02  2.69918E+03  7.85796E+03
 -8.07213E+03  3.79888E+03 -7.55067E+03 -5.89292E+03 -1.14444E+03 -1.63722E+04  1.12484E+04 -1.80785E+04
  2.07857E+04 -1.00280E+04  2.27904E+04  3.04005E+03  2.07824E+04  1.69455E+04  9.58536E+03  2.63260E+04
 -4.67165E+03  2.74410E+04 -1.77072E+04  1.80163E+04 -2.04689E+04  2.97254E+03 -1.33995E+04 -5.32104E+03
 -6.42799E+03 -6.50764E+03 -6.26177E+02  5.76994E+02 -2.74834E+03  3.37744E+03 -6.07082E+03  5.27974E+03
 -1.29662E+04 -7.01055E+02 -1.35170E+04 -1.16800E+04 -5.63362E+03 -1.77868E+04  5.25089E+03 -1.42810E+04
  1.18804E+04 -5.27691E+03  7.36507E+03  3.62247E+03 -6.30548E+01  5.50916E+03 -7.33970E+03 -3.46892E+01
 -6.56416E+03 -8.79968E+03 -1.12934E+03 -1.44440E+04  7.90682E+03 -1.42742E+04  1.83785E+04 -8.05682E+03
  2.13927E+04  1.89027E+03  1.48827E+04  1.20447E+04  2.72365E+03  1.62499E+04 -9.27322E+03  1.43091E+04
 -1.14695E+04  3.68524E+03 -5.35004E+03 -2.37309E+03  1.77775E+03 -4.01409E+03  7.67758E+03 -1.64621E+03
  6.63732E+03  5.81409E+03  1.55354E+03  1.07533E+04 -8.06024E+03  1.08742E+04 -1.36365E+04  2.64722E+03
 -8.73601E+03 -7.22487E+03  9.68766E+02 -1.16553E+04  7.97999E+03 -6.15200E+03  7.48420E+03  2.85719E+03
  1.72584E+03  7.56946E+03 -6.29796E+03  1.02593E+04 -1.14449E+04  4.66198E+03 -1.16316E+04 -3.91186E+03
 -7.53557E+03 -1.39004E+04  3.08563E+03 -1.55456E+04  1.31951E+04 -1.02629E+04  1.44867E+04  2.96422E+03
  8.19453E+03  1.13352E+04 -1.52198E+03  1.40412E+04 -1.00724E+04  7.25909E+03 -1.10625E+04 -6.20550E+02
 -9.49560E+03 -9.35875E+03 -1.35548E+03 -1.01319E+04  5.21788E+03 -8.89330E+03  6.27066E+03 -3.29924E+03
  4.71615E+03  1.95273E+03 -6.79162E+02  1.71388E+03 -1.12232E+03 -2.84676E+03  1.88101E+03 -5.99045E+03
  9.15679E+03 -3.97679E+03  1.36621E+04  1.44880E+03  1.32803E+04  9.29003E+03  9.87756E+03  1.81804E+04
 -4.28533E+03  2.05163E+04 -1.69675E+04  1.50683E+04 -2.21066E+04  2.92748E+03 -1.80931E+04 -7.67134E+03
 -8.99731E+03 -1.45343E+04  3.76876E+02 -1.17402E+04  3.92466E+03 -7.29572E+03  4.13410E+03 -4.75151E+03
  2.98369E+03 -2.80795E+03  3.85258E+03 -4.28382E+03  4.74104E+03 -2.86753E+03  7.00565E+03 -1.45448E+03
  1.01374E+04  2.85825E+03  4.86232E+03  7.69593E+03 -2.41515E+03  8.69474E+03 -1.05194E+04  7.42027E+03
 -1.15856E+04 -1.29272E+03 -7.28133E+03 -8.45481E+03 -7.49823E+02 -1.28624E+04  7.54287E+03 -1.38193E+04
  1.40095E+04 -7.23974E+03  1.65849E+04  2.57632E+03  1.22267E+04  1.12981E+04  1.62622E+03  1.52495E+04
 -5.88167E+03  1.20403E+04 -8.95044E+03  3.90611E+03 -6.21473E+03 -1.74392E+03 -2.09467E+03 -1.58698E+03
 -1.44927E+03 -4.34520E+01 -2.86084E+03  3.26538E+03 -5.40038E+03  2.95407E+03 -8.61792E+03 -1.53348E+03
 -6.78572E+03 -8.97694E+03  4.50155E+02 -1.24543E+04  7.73734E+03 -1.22837E+04  1.18275E+04 -3.33494E+03
  1.21182E+04  5.58221E+03  5.86004E+03  1.08719E+04 -2.54680E+03  1.30247E+04 -8.38433E+03  8.23606E+03
 -1.24554E+04  1.14844E+03 -8.78185E+03 -6.94030E+03 -1.34829E+03 -9.73822E+03  5.61267E+03 -7.45590E+03
  7.39300E+03 -2.19897E+03  5.40435E+03  2.26068E+03  2.13808E+03  3.24094E+03  1.19031E+03  1.65014E+03
  3.06254E+03  1.02903E+03  3.72412E+03  1.45987E+03  4.04046E+03  4.42192E+03  4.05898E+03  6.48627E+03
 -3.29203E+03  9.43051E+03 -8.55067E+03  1.02293E+04 -1.17158E+04  2.68009E+03 -1.31852E+04 -5.66664E+03
 -6.28666E+03 -1.25933E+04  1.58098E+03 -1.39799E+04  7.58454E+03 -8.60134E+03  1.06706E+04 -2.25548E+03
  7.88555E+03  5.59980E+03  1.38539E+03  7.32111E+03 -3.93021E+03  5.04436E+03 -5.15513E+03 -2.32178E+02
 -2.17239E+03 -5.25590E+03  3.65663E+03 -5.94904E+03  5.44441E+03 -2.41184E+03  5.27366E+03  7.66716E+02
  3.48811E+03  2.14430E+03  1.13305E+03  2.12436E+03 -4.95519E+02  1.92051E+03  1.75866E+03  8.89845E+01
  2.11624E+03 -3.82855E+02  5.30818E+03  2.32872E+03  2.38627E+03  6.32013E+03 -1.25891E+03  8.45748E+03
 -5.75446E+03  4.95349E+03 -8.44274E+03  1.21260E+03 -6.77295E+03 -2.86816E+03 -2.68891E+03 -4.50040E+03
  8.08038E+02 -5.44445E+03  3.82043E+03 -2.61262E+03  2.57944E+03  2.26206E+03 -7.47919E+02  4.05417E+03
 -4.76405E+03  2.43008E+03 -5.58338E+03 -3.05096E+03 -3.88691E+03 -6.79120E+03  1.27120E+03 -6.74811E+03
  3.88548E+03 -3.27905E+03  5.35411E+03 -4.23813E+02  3.95911E+03  2.33599E+03  1.15880E+03  3.58136E+03
 -2.30830E+03  5.90024E+02 -2.78621E+03 -2.25811E+03  1.53016E+03 -4.66841E+03  5.90991E+03 -4.43146E+03
  7.50765E+03  3.06049E+02  7.77252E+03  5.13097E+03  2.90694E+03  7.75928E+03 -2.46562E+03  7.11960E+03
 -6.61917E+03  2.91219E+03 -6.81466E+03 -1.03004E+03 -3.68745E+03 -5.66167E+03  1.42546E+03 -4.97785E+03
  5.03599E+03 -2.79428E+03  4.47223E+03  2.39533E+03  8.77042E+02  5.05535E+03 -5.46329E+02  3.40358E+03
 -2.11246E+03  2.55659E+03 -1.99477E+03  1.52524E+02 -8.11821E+02  1.33466E+02 -1.93414E+03  1.58719E+03
 -1.90463E+03  3.18732E+03 -6.20255E+03  2.29337E+03 -7.63208E+03  5.18966E+02 -8.34487E+03 -5.42106E+03
 -4.18659E+03 -1.08523E+04  1.96945E+03 -1.24113E+04  7.68730E+03 -9.90901E+03  1.16176E+04 -3.82604E+03
  1.02181E+04  2.82962E+03  6.31995E+03  7.02843E+03  9.07381E+02  8.71890E+03 -2.72202E+03  6.23532E+03
 -4.01364E+03  1.74506E+03 -2.17747E+03 -1.09543E+03 -1.53540E+03 -3.74357E+02 -2.77133E+02 -5.65109E+02
 -2.31951E+03  7.19063E+02 -1.69528E+03 -8.02729E+02 -5.87216E+02 -1.78130E+03 -3.36388E+02 -3.07473E+03
  3.82154E+03 -3.20950E+03  4.88215E+03 -2.52593E+01  5.28236E+03  4.29798E+03  1.70422E+03  8.30880E+03
 -3.69544E+03  9.01142E+03 -8.55266E+03  5.30631E+03 -9.69354E+03 -1.08777E+03 -6.98151E+03 -6.48229E+03
 -3.55069E+03 -8.71530E+03  1.69229E+03 -7.74617E+03  5.28324E+03 -4.08558E+03  5.42090E+03  1.00471E+03
  3.93071E+03  2.75115E+03 -1.18283E+02  3.18538E+03 -1.62842E+03 -2.15062E+02  5.12750E+01 -2.42491E+03
  2.49772E+03 -8.85498E+02  3.37729E+03  1.00269E+03  2.93468E+03  2.76970E+03 -1.44184E+02  3.75142E+03
 -3.46777E+03  3.82455E+03 -5.90512E+03 -1.60956E+02 -5.29628E+03 -3.66594E+03 -4.68034E+02 -6.71480E+03
  4.47342E+03 -5.66492E+03  6.03055E+03 -2.35946E+03  5.64948E+03  1.53022E+03  3.84584E+03  5.50790E+03
  4.76885E+02  5.34038E+03 -1.40097E+03  5.06915E+03 -3.50849E+03  2.64918E+03 -3.40538E+03  3.08428E+02
 -1.38880E+03  2.02097E+02 -1.53928E+03  2.48710E+02 -2.99565E+03  1.14486E+03 -4.76755E+03 -4.63484E+02
 -4.93203E+03 -2.97408E+03 -1.57562E+03 -5.72009E+03  2.65844E+03 -6.25389E+03  4.95715E+03 -2.29308E+03
  5.53509E+03  3.58242E+02  3.14607E+03  3.65432E+03 -9.65242E+02  5.07132E+03 -4.06864E+03  3.04704E+03
