 $NMID ID='MM_0lb_SNR400_15hz_g40_83.RAW', FMTDAT='(8E13.5)'
 TRAMP=1., VOLUME=1. $END
  3.10184E+05 -1.92283E+02  3.37227E+05  2.50460E+05  8.46229E+04  3.37783E+05 -1.32799E+05  2.50800E+05
 -1.89793E+05  8.22525E+04 -1.11597E+05 -3.28459E+04  1.11431E+03 -4.98995E+04  5.33811E+04  1.60551E+02
  3.53531E+04  5.30390E+04 -1.61359E+04  7.49400E+04 -6.01741E+04  6.25976E+04 -8.39861E+04  3.15312E+04
 -8.06437E+04 -1.10428E+04 -5.73408E+04 -5.07152E+04 -1.43990E+04 -6.92920E+04  2.77516E+04 -4.51523E+04
  3.96559E+04  4.10197E+03  1.61057E+04  4.77641E+04 -3.43234E+04  4.63167E+04 -6.63359E+04 -9.41051E+02
 -5.28033E+04 -5.65520E+04 -6.19513E+03 -7.61643E+04  3.41191E+04 -5.37833E+04  4.76738E+04 -1.68340E+04
  4.26302E+04  1.12405E+04  3.11947E+04  2.47030E+04  1.60322E+04  2.90019E+04 -5.22908E+03  2.71075E+04
 -2.19450E+04  1.30225E+04 -1.92678E+04 -4.37504E+03  5.14328E+03 -7.84999E+03  2.17386E+04  1.20940E+04
  6.94004E+03  3.49330E+04 -3.15970E+04  3.48705E+04 -6.26276E+04  1.85460E+03 -5.62899E+04 -4.16862E+04
 -1.22027E+04 -6.17116E+04  3.92432E+04 -4.45791E+04  5.62398E+04 -2.08103E+03  3.32286E+04  3.18069E+04
 -6.66024E+03  3.45152E+04 -2.90601E+04  1.45982E+04 -2.92561E+04 -5.16466E+03 -1.60698E+04 -1.05647E+04
 -7.23550E+03 -1.22173E+04 -9.85531E+02 -1.77370E+04  6.76813E+03 -2.26946E+04  1.50189E+04 -1.38194E+04
  1.17013E+04  4.66182E+03 -7.76438E+03  1.31970E+04 -2.02179E+04 -3.63871E+03 -7.78617E+03 -3.21219E+04
  2.18801E+04 -4.19466E+04  4.60728E+04 -1.83951E+04  4.34712E+04  1.88352E+04  1.44170E+04  4.31892E+04
 -1.54323E+04  3.21397E+04 -2.50765E+04  1.87011E+03 -9.06943E+03 -2.73438E+04  2.03954E+04 -3.25960E+04
  3.97119E+04 -8.54009E+03  3.31808E+04  2.37923E+04  1.70090E+04  4.42868E+04 -7.86103E+03  4.75568E+04
 -3.05213E+04  3.20187E+04 -3.99567E+04  9.12739E+03 -4.08240E+04 -1.56803E+04 -2.21797E+04 -3.65885E+04
  7.23808E+03 -3.58703E+04  3.04119E+04 -1.40493E+04  2.78762E+04  1.11101E+04  3.15984E+03  1.81532E+04
 -1.31576E+04  7.50458E+03 -9.66393E+03 -7.14456E+03  5.70345E+03 -1.07197E+04  1.74285E+04  6.76535E+03
  1.31115E+04  2.16794E+04 -6.46214E+03  2.42783E+04 -2.23449E+04  1.06265E+04 -2.63730E+04 -5.54643E+03
 -1.91687E+04 -1.73287E+04 -7.14194E+03 -1.88924E+04  3.78058E+03 -1.72159E+04  1.43549E+04 -1.64448E+04
  2.34886E+04 -1.21074E+04  3.03508E+04  2.80784E+03  2.28439E+04  1.82212E+04  3.82935E+03  3.48057E+04
 -1.65949E+04  2.87013E+04 -2.77909E+04  1.00336E+04 -2.00204E+04 -1.05224E+04 -3.89983E+03 -1.37100E+04
  2.20963E+03 -3.33264E+03 -3.89910E+03  5.98578E+03 -1.41811E+04  4.86511E+03 -1.50105E+04 -6.07526E+03
 -8.98651E+03 -1.72353E+04  5.43652E+03 -2.17728E+04  1.40196E+04 -1.55120E+04  1.68499E+04 -1.71665E+03
  9.77951E+03  1.21359E+04 -1.03583E+03  1.73410E+04 -1.18105E+04  9.95857E+03 -1.72982E+04 -3.91693E+03
 -1.29696E+04 -1.60508E+04 -1.44748E+03 -2.13617E+04  9.32109E+03 -1.72281E+04  1.76873E+04 -8.64145E+03
  1.67397E+04  9.05999E+01  1.18749E+04  4.64792E+03  6.05733E+03  5.11439E+02  8.81295E+03 -1.79941E+03
  1.58381E+04  3.11674E+03  1.72203E+04  1.38779E+04  1.13493E+04  2.82271E+04 -2.77417E+03  3.06415E+04
 -1.81261E+04  2.43396E+04 -2.84757E+04  1.15230E+04 -2.99451E+04 -2.19630E+03 -2.51998E+04 -1.64468E+04
 -1.08319E+04 -2.48202E+04  8.01202E+03 -2.26890E+04  1.89049E+04 -1.22778E+04  1.76387E+04  4.36055E+03
  7.06788E+03  1.30925E+04 -8.11563E+03  1.17918E+04 -1.51673E+04  2.16895E+03 -1.13334E+04 -8.80838E+03
  8.66144E+01 -1.34348E+04  7.10359E+03 -9.65794E+03  8.78058E+03 -1.24761E+03  1.95549E+03  5.81624E+03
 -6.44233E+03  1.70949E+03 -4.56686E+03 -4.83916E+03  1.42822E+02 -1.21357E+04  8.94466E+03 -1.20363E+04
  1.53242E+04 -6.11920E+03  1.60159E+04  2.79768E+03  1.35599E+04  1.13090E+04  6.47166E+03  1.75692E+04
 -3.10530E+03  1.92402E+04 -1.20668E+04  1.21768E+04 -1.37213E+04  3.17938E+03 -9.98068E+03 -3.25675E+03
 -5.37143E+03 -4.36099E+03 -8.71438E+02  1.14905E+03 -1.74026E+03  2.06369E+03 -4.78596E+03  4.03472E+03
 -8.63715E+03 -4.01073E+02 -9.98097E+03 -7.84070E+03 -4.05912E+03 -1.34573E+04  3.66210E+03 -1.02169E+04
  8.37823E+03 -4.11809E+03  6.13869E+03  2.20690E+03  5.04732E+02  3.77332E+03 -5.12816E+03 -1.62411E+02
 -4.41978E+03 -6.79053E+03 -9.05177E+02 -9.58747E+03  4.68233E+03 -9.98825E+03  1.26400E+04 -5.80330E+03
  1.41592E+04  1.19431E+03  1.08876E+04  8.44603E+03  1.59027E+03  1.11973E+04 -6.55513E+03  9.67865E+03
 -7.98050E+03  3.69958E+03 -4.59664E+03 -2.18229E+03  1.04813E+03 -2.52931E+03  5.69628E+03 -1.36869E+03
  4.56067E+03  4.52542E+03  8.44517E+02  8.40515E+03 -5.57862E+03  7.50555E+03 -9.70877E+03  2.15408E+03
 -6.04189E+03 -4.63555E+03 -1.87501E+01 -8.18225E+03  4.85512E+03 -3.90865E+03  4.75333E+03  9.34800E+02
  1.03486E+03  4.91613E+03 -4.78833E+03  6.07638E+03 -6.73482E+03  3.34287E+03 -6.40771E+03 -2.42941E+03
 -4.35513E+03 -8.54103E+03  1.56257E+03 -9.98636E+03  8.78148E+03 -6.65457E+03  8.50223E+03  8.58185E+02
  6.35881E+03  6.73417E+03  3.36250E+02  9.22927E+03 -6.59533E+03  5.85447E+03 -6.86900E+03 -7.24463E+02
 -6.21791E+03 -6.71732E+03 -1.40235E+03 -6.71123E+03  3.33211E+03 -6.12564E+03  4.01258E+03 -3.29696E+03
  3.06323E+03  3.14855E+02 -3.91999E+02  1.43945E+03 -3.35903E+02 -9.40382E+02  1.18360E+03 -2.97312E+03
  5.00207E+03 -1.40796E+03  7.90940E+03  8.77229E+02  7.78136E+03  4.60643E+03  7.21942E+03  1.00005E+04
 -2.19977E+03  1.17246E+04 -1.03973E+04  9.64586E+03 -1.36508E+04  1.47459E+03 -1.06126E+04 -4.17817E+03
 -6.01499E+03 -8.53391E+03 -2.17456E+02 -7.06506E+03  2.24342E+03 -3.38319E+03  2.14759E+03 -3.12119E+03
  1.99364E+03 -1.89018E+03  2.17430E+03 -2.85328E+03  4.24888E+03 -1.81387E+03  4.33696E+03  1.10877E+02
  6.19757E+03  1.44731E+03  2.00228E+03  4.95835E+03 -1.81799E+03  4.92385E+03 -6.83504E+03  3.88830E+03
 -7.09740E+03 -9.93874E+02 -3.50967E+03 -4.90207E+03  2.06088E+02 -7.45941E+03  4.24249E+03 -7.84022E+03
  8.01157E+03 -5.27186E+03  9.11362E+03  5.12957E+02  6.39719E+03  6.55265E+03  1.22682E+03  8.83294E+03
 -2.63981E+03  7.49545E+03 -4.67719E+03  2.82922E+03 -2.86891E+03 -1.16761E+03 -1.06949E+03 -9.63033E+02
 -5.85132E+02 -1.69202E+02 -1.05203E+03  2.37581E+03 -3.07642E+03  1.90423E+03 -5.82773E+03 -8.53360E+02
 -2.79665E+03 -5.56176E+03  4.10303E+02 -6.91499E+03  3.57729E+03 -6.34120E+03  6.15322E+03 -1.57351E+03
  6.26272E+03  2.97304E+03  2.70901E+03  5.65770E+03 -1.30854E+03  6.34611E+03 -4.60006E+03  4.23194E+03
 -5.15442E+03  8.17984E+02 -5.46019E+03 -3.69564E+03 -5.32630E+02 -4.62667E+03  2.75812E+03 -3.92636E+03
  4.29504E+03 -1.81000E+03  2.59980E+03  1.14386E+03  7.25941E+02  2.04625E+03  1.10630E+03  8.00076E+02
  1.51675E+03  3.88637E+02  2.27677E+03  1.09807E+03  1.84087E+03  3.45398E+03  2.35825E+03  3.39086E+03
 -2.20719E+03  4.65585E+03 -4.33198E+03  5.62617E+03 -5.55750E+03  2.07131E+03 -6.43434E+03 -1.58982E+03
 -2.79151E+03 -6.11071E+03  7.33827E+02 -6.65546E+03  3.45620E+03 -4.13053E+03  4.70216E+03 -1.52100E+03
  3.43267E+03  2.98381E+03  1.45623E+03  3.21969E+03 -1.00385E+03  2.02625E+03 -2.16374E+03 -4.42830E+02
 -9.94664E+02 -2.30963E+03  1.73394E+03 -2.69535E+03  2.62846E+03 -1.08151E+03  2.03470E+03  4.03291E+02
  1.11567E+03  1.17984E+03  8.04144E+02 -2.14889E+02 -7.89426E+01  1.02671E+03  1.49682E+03 -6.77801E+02
  7.53188E+02 -3.31204E+01  3.05197E+03  2.21835E+02  1.05073E+03  3.67225E+03 -5.41341E+02  4.07799E+03
 -2.82289E+03  2.77620E+03 -4.01218E+03  8.57715E+02 -3.66652E+03 -1.70847E+03 -6.77097E+02 -2.01492E+03
  1.66941E+02 -2.44980E+03  1.65699E+03 -1.29989E+03  8.33743E+02  1.43113E+03 -1.53220E+03  2.01906E+03
 -2.10194E+03  7.56082E+02 -2.21386E+03 -1.99756E+03 -5.82129E+02 -3.29422E+03  2.03254E+02 -3.45417E+03
  1.55840E+03 -1.64417E+03  1.86524E+03 -7.44855E+02  2.43019E+03  3.04621E+02  7.08146E+02  1.70436E+03
 -1.51904E+03  1.19180E+02 -1.59743E+03 -6.36581E+02  9.61024E+02 -1.99191E+03  2.46801E+03 -2.13973E+03
  2.84601E+03  4.41982E+02  3.69702E+03  1.85967E+03  8.90444E+02  3.44719E+03 -7.09828E+02  3.23852E+03
 -3.16777E+03  6.75002E+02 -2.93767E+03 -5.43957E+02 -2.06594E+03 -2.03271E+03  6.27019E+02 -2.16724E+03
  2.69273E+03 -1.21951E+03  1.36659E+03  1.14444E+03  9.95244E+02  1.90980E+03  2.42184E+02  1.64062E+03
 -6.04111E+02  7.52343E+02 -2.14897E+02  3.82279E+01 -4.25128E+02  5.43879E+02 -2.79294E+02  1.21508E+03
 -9.16629E+02  1.98591E+03 -2.56477E+03  8.86355E+02 -2.99037E+03  2.25393E+02 -3.94012E+03 -1.86875E+03
 -2.15484E+03 -4.84329E+03  1.49239E+03 -5.10089E+03  2.57890E+03 -4.36492E+03  5.28325E+03 -1.76208E+03
  5.05821E+03  1.88283E+02  2.97032E+03  3.20599E+03 -6.76652E+02  3.09751E+03 -1.70300E+03  2.72669E+03
 -1.43408E+03  9.84784E+02 -5.98256E+02 -5.04314E+02 -3.48620E+02 -4.55945E+01 -4.72234E+02  1.76636E+02
 -1.18665E+03  4.40370E+02 -1.06682E+03 -4.50609E+02 -2.95716E+01 -1.08104E+03  2.48166E+02 -1.53440E+03
  2.59182E+03 -1.39773E+03  1.50458E+03  2.16303E+02  2.14625E+03  1.68122E+03  1.90491E+02  2.70251E+03
 -1.25822E+03  3.63822E+03 -3.30877E+03  2.15155E+03 -3.59474E+03 -7.22690E+02 -3.10344E+03 -2.34764E+03
 -1.46590E+03 -2.91563E+03  1.29361E+03 -3.03827E+03  1.80118E+03 -1.52486E+03  1.46335E+03  7.47059E+01
  8.81689E+02  6.11148E+02  3.76959E+02  5.35825E+02 -3.34351E+02  1.78933E+02 -1.51699E+02 -4.77773E+02
  1.03175E+03  6.19016E+01  1.55889E+03  5.81890E+02  5.81590E+02  4.81059E+02 -1.10614E+02  1.69004E+03
 -1.20805E+03  1.50902E+03 -1.45944E+03 -6.33576E+01 -2.12743E+03 -1.85145E+03  4.67834E+01 -2.30425E+03
  1.45449E+03 -1.89252E+03  1.98296E+03 -5.25075E+02  1.59255E+03  2.95032E+01  1.33653E+03  1.34455E+03
  6.70101E+02  1.02654E+03 -6.72965E+02  1.53395E+03 -1.06713E+03  7.70449E+02 -3.70680E+02  5.11214E+01
 -5.05588E+02  1.81292E+02 -5.98602E+02  5.74393E+02 -1.48204E+03  9.57336E+02 -1.71097E+03 -6.35419E+02
 -1.97470E+03 -1.36045E+02 -1.10892E+03 -1.81201E+03  1.35149E+03 -2.71338E+03  1.73323E+03 -6.23025E+02
  2.36811E+03 -3.13885E+02  8.13696E+02  1.04933E+03  3.76352E+02  1.80656E+03 -7.77496E+02  9.02057E+02
