 $NMID ID='MM_0lb_SNR400_17hz_g55_83.RAW', FMTDAT='(8E13.5)'
 TRAMP=1., VOLUME=1. $END
  3.09685E+05  3.80295E+02  3.37496E+05  2.50030E+05  8.49963E+04  3.38601E+05 -1.32114E+05  2.50514E+05
 -1.90562E+05  8.22904E+04 -1.11639E+05 -3.24053E+04  1.02794E+03 -5.04177E+04  5.39557E+04 -3.58513E+02
  3.52917E+04  5.19844E+04 -1.72855E+04  7.54039E+04 -6.06225E+04  6.38960E+04 -8.38693E+04  3.18705E+04
 -8.03417E+04 -1.07633E+04 -5.74579E+04 -5.05726E+04 -1.50203E+04 -6.90420E+04  2.73807E+04 -4.51311E+04
  3.95613E+04  3.78837E+03  1.57196E+04  4.75974E+04 -3.40421E+04  4.67755E+04 -6.68404E+04 -5.72092E+02
 -5.31981E+04 -5.59350E+04 -6.07258E+03 -7.64535E+04  3.36561E+04 -5.38615E+04  4.75797E+04 -1.65645E+04
  4.28389E+04  1.08890E+04  3.11569E+04  2.53640E+04  1.51440E+04  2.89155E+04 -5.31352E+03  2.65493E+04
 -2.12425E+04  1.26641E+04 -1.87748E+04 -4.97650E+03  5.20021E+03 -7.44974E+03  2.21650E+04  1.20169E+04
  7.14483E+03  3.45573E+04 -3.18002E+04  3.50614E+04 -6.26957E+04  1.91299E+03 -5.68888E+04 -4.20910E+04
 -1.20729E+04 -6.24195E+04  3.88060E+04 -4.45984E+04  5.71827E+04 -1.60113E+03  3.30165E+04  3.12414E+04
 -6.16447E+03  3.52596E+04 -2.92266E+04  1.52169E+04 -2.94108E+04 -5.23297E+03 -1.60771E+04 -1.06853E+04
 -7.85973E+03 -1.22480E+04 -1.12927E+03 -1.72600E+04  7.07197E+03 -2.32552E+04  1.49601E+04 -1.35592E+04
  1.15143E+04  4.66061E+03 -7.46197E+03  1.34087E+04 -2.08266E+04 -3.56072E+03 -8.33086E+03 -3.26282E+04
  2.19571E+04 -4.20544E+04  4.67411E+04 -1.93176E+04  4.38205E+04  1.88049E+04  1.53176E+04  4.34206E+04
 -1.63783E+04  3.24269E+04 -2.47843E+04  2.19185E+03 -9.17546E+03 -2.71500E+04  2.05339E+04 -3.30250E+04
  4.03975E+04 -7.93303E+03  3.38664E+04  2.34076E+04  1.66426E+04  4.44008E+04 -7.63513E+03  4.77694E+04
 -3.01341E+04  3.20783E+04 -3.97863E+04  9.60152E+03 -4.09683E+04 -1.63511E+04 -2.23872E+04 -3.63049E+04
  7.55675E+03 -3.66292E+04  3.03973E+04 -1.41434E+04  2.86334E+04  1.11030E+04  3.42354E+03  1.84127E+04
 -1.32456E+04  8.46213E+03 -1.00951E+04 -7.81115E+03  5.85881E+03 -1.04043E+04  1.74659E+04  6.60056E+03
  1.30081E+04  2.14139E+04 -5.77202E+03  2.46177E+04 -2.22736E+04  1.02465E+04 -2.66649E+04 -5.42537E+03
 -1.89295E+04 -1.64872E+04 -7.44184E+03 -1.90499E+04  3.57527E+03 -1.71805E+04  1.44960E+04 -1.69293E+04
  2.38080E+04 -1.27556E+04  3.04770E+04  2.24365E+03  2.25580E+04  1.88602E+04  3.89746E+03  3.47124E+04
 -1.66657E+04  2.90311E+04 -2.67219E+04  1.05324E+04 -2.05551E+04 -1.04720E+04 -4.95810E+03 -1.33205E+04
  2.05568E+03 -3.65359E+03 -3.94883E+03  5.66141E+03 -1.49555E+04  4.97861E+03 -1.51012E+04 -5.64393E+03
 -9.75727E+03 -1.76632E+04  5.55209E+03 -2.15847E+04  1.40612E+04 -1.55005E+04  1.67811E+04 -1.76142E+03
  1.04212E+04  1.18339E+04 -1.18424E+03  1.77558E+04 -1.16455E+04  1.01982E+04 -1.72270E+04 -3.33408E+03
 -1.34346E+04 -1.50369E+04 -1.72789E+03 -2.10996E+04  9.55405E+03 -1.70516E+04  1.78955E+04 -8.64530E+03
  1.64551E+04  5.97752E+02  1.14398E+04  3.67757E+03  6.20643E+03  8.94580E+02  8.72698E+03 -1.45809E+03
  1.58918E+04  2.40866E+03  1.65954E+04  1.43928E+04  1.16514E+04  2.77567E+04 -2.81148E+03  3.01042E+04
 -1.77972E+04  2.38532E+04 -2.85122E+04  1.17779E+04 -2.97454E+04 -2.63293E+03 -2.48581E+04 -1.65148E+04
 -1.07773E+04 -2.41505E+04  7.58776E+03 -2.19785E+04  1.86182E+04 -1.20334E+04  1.75092E+04  4.14428E+03
  7.45284E+03  1.24049E+04 -8.10102E+03  1.16711E+04 -1.48646E+04  2.27426E+03 -1.12214E+04 -9.03498E+03
 -2.81485E+02 -1.44438E+04  7.20948E+03 -1.00629E+04  9.58811E+03 -1.43580E+03  1.55142E+03  6.16903E+03
 -5.77179E+03  1.59619E+03 -4.83296E+03 -4.82937E+03  1.59748E+02 -1.18590E+04  9.19059E+03 -1.19343E+04
  1.43853E+04 -6.53909E+03  1.51759E+04  2.58951E+03  1.24592E+04  1.16346E+04  5.97309E+03  1.73568E+04
 -2.76435E+03  1.85493E+04 -1.14313E+04  1.20171E+04 -1.30929E+04  2.90591E+03 -9.64264E+03 -2.98988E+03
 -4.09232E+03 -4.11710E+03 -4.64297E+02  1.67200E+03 -2.22760E+03  2.30633E+03 -3.87852E+03  3.56017E+03
 -9.49154E+03 -1.82645E+02 -1.01287E+04 -8.22632E+03 -3.90409E+03 -1.32118E+04  4.20017E+03 -1.02359E+04
  7.84625E+03 -4.19028E+03  5.50890E+03  2.63116E+03  4.13440E+02  3.69684E+03 -3.74588E+03 -1.87570E+02
 -3.96345E+03 -6.01470E+03 -1.09568E+03 -8.46406E+03  4.27660E+03 -9.08505E+03  1.16500E+04 -4.97841E+03
  1.34555E+04  1.21210E+03  1.01435E+04  7.73593E+03  2.16125E+03  1.05550E+04 -5.74706E+03  9.66032E+03
 -7.53245E+03  3.31356E+03 -4.26365E+03 -1.81205E+03  1.27556E+03 -2.59119E+03  5.53572E+03 -1.03259E+03
  4.17146E+03  3.95760E+03  9.11799E+02  7.58440E+03 -5.11685E+03  7.03787E+03 -8.86144E+03  1.99769E+03
 -6.07019E+03 -4.25736E+03  3.86816E+02 -7.72383E+03  4.66457E+03 -4.16467E+03  4.53099E+03  1.13656E+03
  4.94908E+02  4.47745E+03 -5.22785E+03  5.95440E+03 -5.42462E+03  2.39206E+03 -6.41016E+03 -1.61577E+03
 -3.44316E+03 -7.11899E+03  1.29109E+03 -9.14529E+03  7.39690E+03 -5.94996E+03  8.10627E+03  1.54193E+03
  5.43800E+03  6.81698E+03 -1.61995E+02  8.73645E+03 -5.93804E+03  5.70093E+03 -6.43675E+03 -6.93245E+02
 -6.76783E+03 -6.40080E+03 -1.42668E+03 -6.00981E+03  3.08162E+03 -5.38283E+03  2.98988E+03 -2.71919E+03
  3.70113E+03  2.00648E+02  4.22466E+02  1.17507E+03  8.92928E+02 -1.95775E+02  5.52686E+02 -3.05398E+03
  5.41419E+03 -1.44873E+03  7.33023E+03  6.96833E+02  6.76857E+03  4.72640E+03  6.24551E+03  9.47303E+03
 -1.94108E+03  1.05970E+04 -8.76051E+03  8.04597E+03 -1.28001E+04  1.20809E+03 -9.58975E+03 -3.46426E+03
 -5.01318E+03 -8.12786E+03 -2.92558E+02 -6.45595E+03  2.66957E+03 -3.20097E+03  2.02022E+03 -3.06022E+03
  1.66739E+03 -1.96938E+03  2.71280E+03 -2.32827E+03  4.07090E+03 -1.72714E+03  4.24514E+03  1.93842E+02
  5.38930E+03  1.17608E+03  2.33183E+03  3.78905E+03 -1.62897E+03  3.75183E+03 -4.71004E+03  3.45617E+03
 -5.86715E+03 -1.40944E+03 -2.70717E+03 -4.47172E+03  1.69272E+02 -5.98742E+03  4.01450E+03 -6.68787E+03
  6.11619E+03 -3.46402E+03  8.44005E+03  5.17750E+02  6.08721E+03  4.96781E+03  1.37078E+03  7.87884E+03
 -2.84392E+03  7.36740E+03 -4.21507E+03  2.54611E+03 -2.29683E+03 -1.29773E+03 -1.04452E+03 -7.65690E+02
 -4.30367E+02  6.50459E+02 -1.25301E+03  1.80361E+03 -3.05415E+03  1.32159E+03 -5.04468E+03 -3.88267E+02
 -1.98535E+03 -4.66834E+03  7.69917E+02 -6.31001E+03  3.88106E+03 -5.28503E+03  4.79823E+03 -1.56951E+03
  5.58184E+03  3.22702E+03  2.39238E+03  4.73110E+03 -1.16142E+03  5.77428E+03 -3.65347E+03  3.05455E+03
 -5.02697E+03  7.36306E+02 -4.23733E+03 -2.93852E+03 -3.25438E+02 -3.90606E+03  1.93814E+03 -3.32346E+03
  2.93541E+03 -1.52909E+03  2.51863E+03  7.42852E+02  4.82253E+02  2.05263E+03  8.98454E+02  1.04972E+03
  1.98682E+03  1.18907E+03  1.56762E+03  1.75061E+03  1.02891E+03  2.37045E+03  1.81411E+03  2.68675E+03
 -1.53498E+03  4.16026E+03 -3.58657E+03  4.60026E+03 -4.22523E+03  1.40758E+03 -5.77191E+03 -1.25453E+03
 -2.38517E+03 -4.88011E+03  1.13973E+03 -5.98344E+03  2.29708E+03 -3.53825E+03  3.97627E+03 -6.35920E+02
  2.49385E+03  2.43047E+03  1.26006E+03  2.43016E+03 -9.27852E+02  1.44844E+03 -1.31748E+03 -2.94042E+02
 -1.04151E+03 -1.76519E+03  1.54101E+03 -2.80609E+03  1.93182E+03 -5.86201E+02  2.06394E+03  4.56682E+02
  9.84164E+02  2.07023E+02  1.06393E+03 -2.79818E+02 -7.29991E+02  1.19274E+03  1.84798E+03 -3.58868E+02
  6.84849E+01 -3.41736E+02  2.06046E+03  8.30489E+02  3.76266E+02  2.98903E+03 -2.52207E+02  3.86025E+03
 -1.72755E+03  1.99700E+03 -2.72350E+03  1.95525E+02 -2.20329E+03 -1.24888E+03 -4.22797E+02 -9.69268E+02
  1.13753E+02 -1.54188E+03  1.45862E+03 -9.56033E+02  3.80524E+02  1.71567E+03 -5.02391E+02  1.66871E+03
 -2.12094E+03  1.35997E+03 -9.71177E+02 -1.58488E+03 -9.64119E+02 -2.96991E+03  3.98656E+02 -1.92290E+03
  1.35433E+03 -1.19138E+03  1.09774E+03  2.46503E+02  1.74782E+03  5.39307E+02  2.17578E+02  1.55357E+03
 -7.64031E+02 -3.12138E+02 -7.24860E+02 -4.90630E+01  5.76491E+02 -1.09470E+03  1.55890E+03 -1.38624E+03
  1.56631E+03 -3.07475E+02  3.20266E+03  1.09099E+03  1.19064E+03  2.17548E+03 -7.16701E+02  2.24183E+03
 -2.00685E+03  1.06022E+03 -1.42740E+03 -6.79991E+02 -1.36769E+03 -1.72590E+03 -6.34335E+01 -1.58721E+03
  2.35912E+03 -7.89375E+02  1.43615E+03  1.01008E+03  3.62768E+02  1.50609E+03 -2.08458E+02  1.20150E+03
 -7.10170E+02  1.24133E+03 -6.65364E+02  4.84742E+02  7.31080E+01  6.10165E+02 -1.31085E+03  6.50813E+02
 -1.98877E+02  1.85366E+03 -2.43859E+03  4.09991E+01 -2.12857E+03  7.10742E+02 -2.56148E+03 -8.53494E+02
 -1.33103E+03 -2.75771E+03  5.13436E+02 -3.29051E+03  1.16702E+03 -2.81010E+03  3.70249E+03 -1.22178E+03
  3.13718E+03 -3.58869E+02  1.56283E+03  2.29486E+03 -8.47133E+02  1.69204E+03 -6.84817E+02  2.01375E+03
 -9.91171E+02  1.47025E+03 -1.48990E+03 -8.94590E+02 -4.07051E+02  5.71139E+02 -8.20396E+02 -3.47565E+02
 -1.38562E+03  3.26469E+02 -1.40024E+03  2.69521E+02 -1.27272E+02 -4.96192E+02 -4.53913E+02 -7.02839E+02
  1.39501E+03 -4.01553E+02  8.75337E+02  2.23028E+02  1.76956E+03  1.48691E+03 -1.62431E+02  1.10833E+03
 -1.11060E+03  2.60431E+03 -2.25167E+03  2.19791E+03 -2.43628E+03  4.21748E+02 -1.81842E+03 -1.62773E+03
 -9.11013E+02 -2.23989E+03 -1.43059E+02 -1.78919E+03  1.35500E+03 -9.24890E+02  1.05783E+03  5.66582E+01
  1.02290E+03  7.02748E+02  1.25615E+02  8.62928E+02 -4.37005E+02  2.36627E+02  9.44183E+01  2.66349E+02
  8.52296E+02  3.07622E+02  4.48684E+02  6.08217E+02  1.38160E+02  1.20978E+00  2.51678E+02  4.79253E+02
 -7.81400E+02  8.72584E+02 -5.89764E+02  1.41146E+02 -1.16177E+03 -7.58411E+02  9.64389E+01 -1.93396E+03
  6.55774E+02 -8.32734E+02  7.89812E+02 -1.59720E+01  1.22027E+03 -7.40427E+02  5.97299E+02  1.41271E+03
  4.99448E+02  2.29881E+02 -6.17551E+02  7.71633E+02 -9.79750E+02  2.03811E+01 -6.03592E+02  5.75485E+02
 -6.52087E+02 -2.34307E+02 -5.96578E+02 -1.62460E+02 -1.29629E+03  9.07598E+01 -5.83392E+02 -3.58216E+02
 -1.03904E+03 -3.08997E+02 -6.06599E+02 -1.29497E+03  1.23756E+03 -1.49264E+03  6.50854E+02 -6.29456E+01
  4.43929E+02 -4.60441E+02 -4.38599E+02  5.16269E+02 -1.30098E+02  5.96674E+02 -2.73447E+02  8.80277E+02
