 $NMID ID='MM_0lb_SNR400_11hz_g40_38.RAW', FMTDAT='(8E13.5)'
 TRAMP=1., VOLUME=1. $END
  3.09997E+05  2.49475E+02  3.37838E+05  2.51050E+05  8.42479E+04  3.38042E+05 -1.32555E+05  2.50930E+05
 -1.91352E+05  8.35719E+04 -1.12412E+05 -3.25478E+04  2.98195E+02 -5.09380E+04  5.42814E+04 -3.94694E+02
  3.52664E+04  5.35582E+04 -1.67518E+04  7.60832E+04 -6.13510E+04  6.35470E+04 -8.55208E+04  3.18056E+04
 -8.07060E+04 -1.08217E+04 -5.76395E+04 -5.13569E+04 -1.49316E+04 -7.00796E+04  2.80192E+04 -4.67081E+04
  4.09348E+04  3.42214E+03  1.56617E+04  4.77737E+04 -3.48781E+04  4.72356E+04 -6.75374E+04  1.21818E+02
 -5.36351E+04 -5.73808E+04 -6.91110E+03 -7.75432E+04  3.48961E+04 -5.56744E+04  4.91350E+04 -1.75582E+04
  4.42399E+04  1.10560E+04  3.27549E+04  2.57095E+04  1.60735E+04  2.92907E+04 -6.11380E+03  2.76978E+04
 -2.26180E+04  1.23973E+04 -1.86360E+04 -5.29507E+03  5.79380E+03 -7.04279E+03  2.26450E+04  1.25370E+04
  7.50379E+03  3.67706E+04 -3.26956E+04  3.63456E+04 -6.37927E+04  2.54166E+03 -5.75174E+04 -4.32481E+04
 -1.21617E+04 -6.38789E+04  4.05376E+04 -4.61488E+04  5.93060E+04 -2.24833E+03  3.57106E+04  3.28930E+04
 -5.74986E+03  3.71757E+04 -3.05837E+04  1.72863E+04 -3.13036E+04 -4.94967E+03 -1.80701E+04 -1.12973E+04
 -9.83519E+03 -1.36154E+04 -5.51258E+02 -1.90749E+04  7.88208E+03 -2.28149E+04  1.59457E+04 -1.25264E+04
  1.03511E+04  5.68610E+03 -9.44267E+03  1.29986E+04 -2.23476E+04 -5.63119E+03 -8.44561E+03 -3.49459E+04
  2.34499E+04 -4.47150E+04  5.04721E+04 -2.00247E+04  4.62450E+04  2.07685E+04  1.57332E+04  4.50214E+04
 -1.59121E+04  3.41924E+04 -2.61924E+04  1.74986E+03 -1.01839E+04 -2.77842E+04  2.16723E+04 -3.48804E+04
  4.18773E+04 -9.85142E+03  3.70402E+04  2.35053E+04  1.97405E+04  4.84647E+04 -8.58200E+03  5.28342E+04
 -3.33886E+04  3.58340E+04 -4.47079E+04  9.33832E+03 -4.41995E+04 -1.74943E+04 -2.41164E+04 -3.93375E+04
  7.93587E+03 -3.92717E+04  3.24900E+04 -1.58853E+04  3.05272E+04  1.09289E+04  4.40699E+03  1.94840E+04
 -1.38096E+04  9.64505E+03 -1.09989E+04 -7.17381E+03  5.33249E+03 -1.14588E+04  1.73319E+04  5.59568E+03
  1.41535E+04  2.23507E+04 -5.24100E+03  2.54056E+04 -2.26351E+04  1.27150E+04 -2.88021E+04 -3.85475E+03
 -2.23471E+04 -1.80971E+04 -9.87051E+03 -2.22914E+04  4.63745E+03 -2.19279E+04  1.73580E+04 -2.03904E+04
  2.82413E+04 -1.33239E+04  3.46141E+04  3.71546E+03  2.53484E+04  2.22784E+04  3.96776E+03  3.83448E+04
 -1.85493E+04  3.19470E+04 -2.90206E+04  1.12816E+04 -2.15296E+04 -1.04847E+04 -4.24038E+03 -1.41798E+04
  7.20317E+02 -1.66653E+03 -6.49806E+03  7.52730E+03 -1.73900E+04  5.07917E+03 -1.85996E+04 -7.82632E+03
 -1.02778E+04 -2.06843E+04  5.04702E+03 -2.51128E+04  1.62205E+04 -1.82796E+04  2.00938E+04 -1.86286E+03
  1.25062E+04  1.45919E+04 -1.13125E+03  2.03685E+04 -1.42492E+04  1.18686E+04 -2.14380E+04 -4.56899E+03
 -1.62179E+04 -1.89641E+04 -2.03066E+03 -2.50567E+04  1.13720E+04 -2.11083E+04  2.19970E+04 -1.06794E+04
  1.98254E+04  4.25992E+02  1.39823E+04  4.19347E+03  7.45790E+03  1.28099E+03  9.85444E+03 -1.49979E+03
  1.93379E+04  2.62735E+03  2.21601E+04  1.66727E+04  1.40192E+04  3.37055E+04 -1.98847E+03  3.81973E+04
 -2.27042E+04  3.08834E+04 -3.56226E+04  1.55535E+04 -3.80049E+04 -3.20756E+03 -3.07888E+04 -2.20798E+04
 -1.27334E+04 -3.09073E+04  1.05930E+04 -2.77367E+04  2.36288E+04 -1.39104E+04  2.14028E+04  6.66848E+03
  7.42907E+03  1.56609E+04 -1.01495E+04  1.39460E+04 -1.72866E+04  2.96182E+03 -1.33578E+04 -1.10270E+04
 -1.64600E+02 -1.68049E+04  8.49004E+03 -1.27741E+04  1.06740E+04 -4.46081E+02  2.99201E+03  7.03799E+03
 -7.02410E+03  3.47783E+03 -6.83232E+03 -6.61513E+03 -8.59429E+02 -1.49694E+04  1.05877E+04 -1.69137E+04
  1.91580E+04 -8.89903E+03  2.15257E+04  2.87052E+03  1.86400E+04  1.50619E+04  7.97830E+03  2.46420E+04
 -4.72363E+03  2.54252E+04 -1.73117E+04  1.63202E+04 -1.80291E+04  3.55894E+03 -1.29154E+04 -5.21131E+03
 -5.64366E+03 -5.42704E+03 -6.67602E+02  1.35807E+03 -3.15108E+03  2.50007E+03 -6.28007E+03  5.06936E+03
 -1.14855E+04 -1.01656E+03 -1.32559E+04 -1.02573E+04 -4.75000E+03 -1.68604E+04  5.71828E+03 -1.32630E+04
  1.11454E+04 -5.78278E+03  7.67705E+03  3.84162E+03  4.87290E+02  4.52532E+03 -6.43536E+03  3.84041E+02
 -6.18972E+03 -8.86771E+03 -3.44814E+02 -1.27944E+04  6.57384E+03 -1.34582E+04  1.63712E+04 -7.77527E+03
  1.99173E+04  1.37097E+03  1.47930E+04  1.06746E+04  3.28396E+03  1.55219E+04 -8.25849E+03  1.24113E+04
 -1.08206E+04  4.28433E+03 -5.30049E+03 -2.74797E+03  2.14579E+03 -3.38985E+03  7.25207E+03 -1.03810E+03
  6.35163E+03  5.55889E+03  1.09593E+03  1.00344E+04 -6.91890E+03  1.02129E+04 -1.32962E+04  1.59237E+03
 -8.97936E+03 -6.60548E+03 -3.08151E+02 -1.21743E+04  6.90974E+03 -5.72314E+03  8.50339E+03  2.89553E+03
  1.55836E+03  7.59136E+03 -6.49068E+03  9.34739E+03 -1.06026E+04  4.58646E+03 -1.10866E+04 -2.64775E+03
 -6.65107E+03 -1.23834E+04  1.64044E+03 -1.48554E+04  1.19626E+04 -8.71655E+03  1.34014E+04  2.68510E+03
  8.17235E+03  1.05536E+04 -7.67230E+02  1.29115E+04 -9.74598E+03  7.38337E+03 -1.00215E+04 -1.22135E+03
 -9.01792E+03 -8.35532E+03 -1.85952E+03 -1.04059E+04  4.70646E+03 -8.21412E+03  6.10437E+03 -3.86103E+03
  4.54954E+03  1.47913E+03 -9.06798E+02  2.02202E+03 -2.97565E+02 -2.23562E+03  2.29981E+03 -6.12875E+03
  9.03863E+03 -3.52604E+03  1.28637E+04  1.21219E+03  1.17997E+04  8.63990E+03  8.51940E+03  1.60553E+04
 -3.75746E+03  1.89454E+04 -1.64147E+04  1.35250E+04 -2.01314E+04  2.90706E+03 -1.62770E+04 -6.61713E+03
 -8.17781E+03 -1.34046E+04  3.62329E+02 -1.11071E+04  4.10603E+03 -6.16021E+03  4.24075E+03 -3.92338E+03
  3.28704E+03 -2.20974E+03  2.86615E+03 -2.93504E+03  4.66036E+03 -2.85185E+03  6.28834E+03 -9.58084E+02
  8.58834E+03  1.57184E+03  4.29455E+03  7.05740E+03 -9.78638E+02  8.00671E+03 -8.90437E+03  6.74808E+03
 -1.12116E+04 -1.58878E+03 -5.91638E+03 -7.47555E+03 -8.43524E+02 -1.19283E+04  6.83693E+03 -1.27654E+04
  1.22918E+04 -6.52847E+03  1.48186E+04  2.21094E+03  9.92157E+03  1.06639E+04  2.11328E+03  1.34793E+04
 -5.15002E+03  1.16109E+04 -7.67956E+03  3.45855E+03 -5.29592E+03 -1.46037E+03 -2.50672E+03 -1.39862E+03
 -1.39511E+03  5.06504E+02 -2.27984E+03  2.36061E+03 -5.25128E+03  1.52950E+03 -7.90463E+03 -1.41209E+03
 -5.88324E+03 -8.26840E+03  5.81143E+02 -1.10946E+04  6.33295E+03 -9.89299E+03  1.08205E+04 -2.78701E+03
  1.04881E+04  4.52159E+03  5.44311E+03  9.63344E+03 -1.51601E+03  1.16170E+04 -7.28678E+03  6.11904E+03
 -1.00446E+04 -1.69085E+02 -7.67980E+03 -6.05582E+03 -6.36078E+02 -8.99270E+03  3.97415E+03 -6.49303E+03
  7.42443E+03 -2.11544E+03  5.12624E+03  1.78460E+03  1.17707E+03  3.35244E+03  1.99444E+03  2.53924E+03
  2.22832E+03 -3.10332E+02  2.25752E+03  1.07861E+03  2.82914E+03  4.06806E+03  3.92608E+03  5.92723E+03
 -2.46034E+03  7.96655E+03 -7.75173E+03  8.90731E+03 -1.07091E+04  2.17736E+03 -1.13073E+04 -3.84997E+03
 -4.89539E+03 -1.06820E+04  1.40522E+03 -1.22358E+04  6.44381E+03 -8.27875E+03  9.12582E+03 -2.19231E+03
  7.04381E+03  4.25721E+03  2.38549E+03  5.67383E+03 -2.81847E+03  3.75003E+03 -4.55142E+03 -8.62666E+02
 -2.30413E+03 -4.26072E+03  3.13152E+03 -5.56600E+03  4.54943E+03 -2.46014E+03  4.61182E+03  1.23159E+03
  2.76250E+03  1.76107E+03  1.24930E+03  1.53797E+03 -8.76255E+02  1.86910E+03  1.06412E+03 -3.07842E+02
  1.49989E+03 -7.26071E+02  4.55314E+03  2.01453E+03  2.25994E+03  5.82305E+03 -9.90614E+02  8.07224E+03
 -4.59431E+03  4.30790E+03 -7.01240E+03  1.60753E+03 -5.90985E+03 -2.38969E+03 -1.45062E+03 -3.99309E+03
  5.53206E+02 -4.56887E+03  3.06629E+03 -1.77293E+03  2.37218E+03  2.45932E+03 -1.31686E+03  3.87488E+03
 -4.13211E+03  1.94594E+03 -4.73248E+03 -2.87164E+03 -3.21825E+03 -6.45175E+03  5.81131E+02 -6.28704E+03
  2.88074E+03 -3.36551E+03  4.31652E+03 -5.87245E+02  3.14916E+03  1.12810E+03  8.33741E+02  3.03337E+03
 -2.14133E+03  1.70556E+03 -2.76934E+03 -2.85642E+03  1.59200E+03 -4.53278E+03  5.49155E+03 -3.17656E+03
  6.35335E+03  2.23093E+02  6.74859E+03  4.23417E+03  2.14882E+03  7.09583E+03 -2.58657E+03  6.43690E+03
 -5.70386E+03  2.23825E+03 -5.87088E+03 -3.25022E+02 -2.83700E+03 -3.72052E+03  1.37879E+03 -4.05357E+03
  5.56901E+03 -1.99998E+03  4.50276E+03  1.32344E+03  1.38684E+03  4.48505E+03 -4.49746E+02  3.40670E+03
 -1.24030E+03  1.80108E+03 -2.41923E+03  1.31356E+03 -3.89913E+02  3.73857E+02 -4.35467E+02  2.04359E+03
 -1.85035E+03  2.75146E+03 -5.18943E+03  2.17238E+03 -7.05184E+03 -6.10615E+01 -7.71933E+03 -3.93310E+03
 -4.47517E+03 -8.87590E+03  2.13749E+03 -1.00761E+04  6.53429E+03 -7.87167E+03  9.61049E+03 -2.93576E+03
  9.32687E+03  1.97345E+03  5.24215E+03  5.99719E+03  6.21774E+01  7.13572E+03 -2.73869E+03  5.47588E+03
 -3.53989E+03  2.41994E+03 -2.10172E+03 -1.12703E+03 -6.07883E+02 -2.54556E+02 -4.90495E+02  9.60822E+02
 -1.48107E+03 -2.74713E+01 -2.42151E+03 -4.21453E+01 -7.10409E+02 -1.58448E+03  3.96253E+02 -2.58706E+03
  3.03651E+03 -1.41467E+03  4.33871E+03  3.79899E+02  4.40689E+03  3.59758E+03  1.03027E+03  5.80414E+03
 -3.54893E+03  7.33074E+03 -7.30792E+03  5.07142E+03 -8.28012E+03 -5.84019E+02 -6.13681E+03 -5.26539E+03
 -3.51386E+03 -6.79767E+03  1.64219E+03 -6.78569E+03  5.10420E+03 -3.41124E+03  4.18421E+03  7.12220E+02
  2.25375E+03  2.67463E+03  2.95645E+02  1.65692E+03 -2.05125E+03  6.76803E+02  3.36174E+02 -1.12278E+03
  1.98237E+03 -2.69521E+02  2.82374E+03  1.58615E+03  1.20621E+03  3.04097E+03  6.98716E+02  2.97496E+03
 -2.77016E+03  3.10629E+03 -4.50811E+03  1.98056E+02 -3.53751E+03 -2.85772E+03 -7.22279E+02 -5.10934E+03
  2.58423E+03 -5.14525E+03  5.83112E+03 -1.35830E+03  5.29767E+03  1.20950E+03  3.13416E+03  4.51803E+03
  5.14585E+02  4.46188E+03 -1.17600E+03  3.50466E+03 -2.69501E+03  1.88987E+03 -1.79391E+03  5.50125E+02
 -1.26063E+03  1.17827E+02 -1.90264E+03  1.86161E+02 -2.36142E+03  3.60748E+02 -3.32733E+03 -5.87445E+02
 -3.23998E+03 -2.34575E+03 -1.54392E+03 -4.71396E+03  2.05778E+03 -4.58700E+03  3.89270E+03 -2.11234E+03
  4.43617E+03  5.03199E+02  1.61033E+03  3.06492E+03 -1.69263E+02  4.80513E+03 -3.54069E+03  3.08023E+03
