 $NMID ID='MM_0lb_SNR400_8hz_g55_66.RAW', FMTDAT='(8E13.5)'
 TRAMP=1., VOLUME=1. $END
  3.09721E+05  5.91486E+02  3.37945E+05  2.51056E+05  8.51217E+04  3.38379E+05 -1.32489E+05  2.52233E+05
 -1.91205E+05  8.36420E+04 -1.12834E+05 -3.33436E+04  3.37188E+02 -5.03911E+04  5.37957E+04 -1.77606E+03
  3.64981E+04  5.27595E+04 -1.65072E+04  7.62934E+04 -6.17254E+04  6.52513E+04 -8.51414E+04  3.24102E+04
 -8.30574E+04 -1.17070E+04 -5.83209E+04 -5.29028E+04 -1.54342E+04 -7.16031E+04  2.78193E+04 -4.74741E+04
  4.20783E+04  3.19376E+03  1.69337E+04  4.82835E+04 -3.55170E+04  4.77259E+04 -6.87247E+04  1.51090E+03
 -5.62690E+04 -5.86908E+04 -7.96042E+03 -7.95547E+04  3.49787E+04 -5.78863E+04  5.05533E+04 -1.87556E+04
  4.53287E+04  1.11877E+04  3.33571E+04  2.72034E+04  1.59604E+04  3.03688E+04 -5.56078E+03  2.82301E+04
 -2.19224E+04  1.22025E+04 -1.79195E+04 -6.16558E+03  8.60329E+03 -8.43678E+03  2.26395E+04  1.48719E+04
  6.85084E+03  3.87755E+04 -3.45549E+04  3.69732E+04 -6.65354E+04  2.76930E+03 -5.97637E+04 -4.49115E+04
 -1.21082E+04 -6.64898E+04  4.18667E+04 -4.80668E+04  6.15282E+04 -1.95504E+03  3.81753E+04  3.52404E+04
 -4.97337E+03  3.98525E+04 -3.23858E+04  1.99516E+04 -3.41818E+04 -3.06217E+03 -1.98260E+04 -1.20966E+04
 -1.01886E+04 -1.64165E+04 -7.57996E+01 -1.98595E+04  8.74404E+03 -2.41211E+04  1.53899E+04 -1.28884E+04
  1.03046E+04  5.80242E+03 -1.09863E+04  1.35736E+04 -2.39057E+04 -6.71895E+03 -8.95814E+03 -3.84269E+04
  2.54591E+04 -4.82167E+04  5.32017E+04 -2.13333E+04  4.93341E+04  2.10398E+04  1.74825E+04  4.87299E+04
 -1.74398E+04  3.68883E+04 -2.77934E+04  3.32337E+03 -1.21241E+04 -3.01537E+04  2.19781E+04 -3.85096E+04
  4.45031E+04 -1.16306E+04  4.17251E+04  2.51506E+04  2.21212E+04  5.29687E+04 -8.65172E+03  5.76012E+04
 -3.61282E+04  3.90410E+04 -4.91354E+04  1.16255E+04 -4.93698E+04 -1.84773E+04 -2.67429E+04 -4.41481E+04
  8.06158E+03 -4.35287E+04  3.50952E+04 -1.75971E+04  3.30767E+04  1.08093E+04  5.37342E+03  2.15174E+04
 -1.37618E+04  1.01003E+04 -1.16241E+04 -6.89476E+03  5.88343E+03 -1.12167E+04  1.92191E+04  5.60017E+03
  1.62259E+04  2.35332E+04 -5.54966E+03  2.79947E+04 -2.34245E+04  1.52997E+04 -3.23510E+04 -2.92404E+03
 -2.73391E+04 -1.86328E+04 -1.27967E+04 -2.68176E+04  5.09406E+03 -2.81224E+04  2.16817E+04 -2.42794E+04
  3.35063E+04 -1.46282E+04  3.88760E+04  5.25461E+03  2.78631E+04  2.61065E+04  4.10041E+03  4.26534E+04
 -2.00255E+04  3.52310E+04 -3.16708E+04  1.19831E+04 -2.23513E+04 -1.11016E+04 -5.75000E+03 -1.26641E+04
  2.66717E+02 -2.16857E+02 -8.13529E+03  9.12680E+03 -2.14815E+04  5.54129E+03 -2.16676E+04 -9.79480E+03
 -1.20481E+04 -2.53289E+04  7.04085E+03 -2.89806E+04  2.01707E+04 -2.16780E+04  2.34864E+04 -1.56404E+03
  1.50890E+04  1.72758E+04 -1.27289E+03  2.53494E+04 -1.85062E+04  1.37303E+04 -2.45702E+04 -5.77429E+03
 -1.81999E+04 -2.22903E+04 -1.68410E+03 -2.94014E+04  1.24838E+04 -2.40939E+04  2.44739E+04 -1.28721E+04
  2.40768E+04 -2.57744E+02  1.62918E+04  5.63355E+03  9.81667E+03  1.05749E+03  1.26430E+04 -2.21484E+03
  2.35706E+04  2.97545E+03  2.67499E+04  1.96328E+04  1.84388E+04  3.94049E+04 -2.43884E+03  4.74015E+04
 -2.77905E+04  3.90863E+04 -4.52825E+04  2.00209E+04 -4.76648E+04 -3.64460E+03 -3.96303E+04 -2.82007E+04
 -1.47538E+04 -4.03840E+04  1.46632E+04 -3.51263E+04  2.98198E+04 -1.55701E+04  2.57339E+04  8.94824E+03
  8.69555E+03  1.93964E+04 -1.24946E+04  1.65322E+04 -2.20387E+04  1.98620E+03 -1.66492E+04 -1.37628E+04
 -1.52789E+02 -2.06416E+04  1.09771E+04 -1.55783E+04  1.45975E+04 -1.31589E+03  4.20640E+03  9.46581E+03
 -9.14347E+03  3.95030E+03 -1.04645E+04 -7.82801E+03 -2.43430E+03 -1.95863E+04  1.22914E+04 -2.13931E+04
  2.44686E+04 -1.16221E+04  2.89483E+04  3.20323E+03  2.44899E+04  2.03435E+04  1.14406E+04  3.22982E+04
 -5.72288E+03  3.37577E+04 -2.31908E+04  2.06998E+04 -2.46530E+04  4.33085E+03 -1.68257E+04 -6.16502E+03
 -7.04971E+03 -8.17955E+03 -9.77200E+02  8.16215E+02 -3.29076E+03  3.33049E+03 -7.59346E+03  5.10427E+03
 -1.54822E+04 -1.72975E+03 -1.67128E+04 -1.27007E+04 -6.00716E+03 -2.09501E+04  6.52658E+03 -1.77732E+04
  1.41880E+04 -7.71444E+03  9.23295E+03  5.39929E+03 -1.26358E+03  6.74883E+03 -8.98090E+03  7.26467E+02
 -8.30854E+03 -1.09440E+04 -4.24176E+02 -1.72039E+04  9.79608E+03 -1.89638E+04  2.19168E+04 -9.80099E+03
  2.61301E+04  3.36035E+03  1.91703E+04  1.60330E+04  2.78340E+03  2.10042E+04 -1.01109E+04  1.68189E+04
 -1.35527E+04  4.96309E+03 -6.68687E+03 -4.08713E+03  1.75841E+03 -4.91321E+03  8.73626E+03 -2.25413E+03
  7.80729E+03  8.13700E+03  1.43484E+03  1.41843E+04 -9.97729E+03  1.29656E+04 -1.75156E+04  3.66491E+03
 -1.26224E+04 -9.52871E+03  2.62942E+02 -1.51556E+04  9.35217E+03 -6.89599E+03  1.13953E+04  3.63970E+03
  2.64896E+03  1.14290E+04 -8.69799E+03  1.23978E+04 -1.57771E+04  5.63446E+03 -1.58745E+04 -6.27437E+03
 -8.66029E+03 -1.79800E+04  3.82855E+03 -1.97226E+04  1.73493E+04 -1.24629E+04  1.95935E+04  3.71660E+03
  1.12215E+04  1.52489E+04 -2.07027E+03  1.70833E+04 -1.26670E+04  9.07772E+03 -1.36577E+04 -1.61678E+03
 -1.16999E+04 -1.22568E+04 -1.45422E+03 -1.32937E+04  7.26542E+03 -1.14202E+04  8.68805E+03 -4.23907E+03
  4.89772E+03  2.40953E+03 -1.38832E+03  1.86980E+03 -1.56990E+03 -3.79442E+03  2.66572E+03 -8.75048E+03
  1.37315E+04 -5.98314E+03  1.88990E+04  2.14458E+03  1.75833E+04  1.32179E+04  1.11611E+04  2.34233E+04
 -5.90073E+03  2.76223E+04 -2.27309E+04  2.09476E+04 -2.93631E+04  4.03373E+03 -2.37673E+04 -1.04357E+04
 -1.18685E+04 -1.96674E+04 -6.85043E+02 -1.71848E+04  6.07100E+03 -9.74419E+03  5.69253E+03 -6.42816E+03
  4.55407E+03 -3.67248E+03  3.85953E+03 -4.12603E+03  5.87052E+03 -3.86208E+03  8.91078E+03 -2.57479E+03
  1.22250E+04  2.78268E+03  6.61398E+03  1.07608E+04 -2.37382E+03  1.30158E+04 -1.26730E+04  9.93784E+03
 -1.71956E+04 -1.31785E+03 -1.08894E+04 -1.13842E+04 -2.69203E+03 -1.90166E+04  9.38727E+03 -1.81288E+04
  1.92419E+04 -9.53513E+03  2.24402E+04  2.47927E+03  1.48784E+04  1.51761E+04  2.17882E+03  2.03736E+04
 -7.88452E+03  1.63676E+04 -1.29947E+04  5.80069E+03 -8.08990E+03 -1.93286E+03 -3.73715E+03 -1.99096E+03
 -1.87100E+03 -8.09738E+02 -2.63872E+03  2.79245E+03 -7.12696E+03  3.93035E+03 -1.21867E+04 -1.55021E+03
 -8.48614E+03 -1.13911E+04 -1.46391E+02 -1.59864E+04  1.03585E+04 -1.53880E+04  1.82257E+04 -5.04799E+03
  1.65630E+04  8.20190E+03  7.95277E+03  1.47517E+04 -3.55015E+03  1.68323E+04 -1.25340E+04  1.08609E+04
 -1.73727E+04  5.37133E+02 -1.27034E+04 -1.02877E+04 -1.55425E+03 -1.42221E+04  7.73883E+03 -9.44262E+03
  1.09524E+04 -3.20139E+03  7.01969E+03  2.64545E+03  1.59176E+03  5.55405E+03  1.23672E+03  2.59907E+03
  1.71304E+03  1.37866E+03  4.84412E+03  2.60990E+03  4.53379E+03  6.14765E+03  4.31452E+03  9.40053E+03
 -3.56087E+03  1.33331E+04 -1.29487E+04  1.27385E+04 -1.80633E+04  3.82750E+03 -1.83645E+04 -7.60809E+03
 -9.11459E+03 -1.74380E+04  2.90673E+03 -2.03188E+04  1.06739E+04 -1.25189E+04  1.37807E+04 -2.81883E+03
  1.18896E+04  6.87071E+03  3.72407E+03  9.92826E+03 -4.67933E+03  6.07567E+03 -8.01358E+03 -6.01790E+02
 -3.86839E+03 -7.45951E+03  3.85883E+03 -8.55506E+03  7.21266E+03 -3.14616E+03  7.53561E+03  1.42559E+03
  4.57988E+03  3.19884E+03  1.79285E+03  3.27154E+03 -1.33317E+03  2.08724E+03  1.66724E+03 -4.72489E+02
  3.52907E+03 -1.59168E+03  7.02909E+03  3.28422E+03  4.18421E+03  9.38436E+03 -1.31904E+03  1.23794E+04
 -1.01974E+04  8.31354E+03 -1.22397E+04  1.92695E+03 -1.01430E+04 -4.64867E+03 -4.48117E+03 -7.31032E+03
  1.24934E+03 -6.37987E+03  4.07878E+03 -3.72418E+03  3.81192E+03  4.42374E+03 -2.44015E+03  5.41963E+03
 -7.48051E+03  3.72940E+03 -8.79484E+03 -3.72107E+03 -5.10851E+03 -9.92141E+03  2.02876E+03 -1.05871E+04
  5.86417E+03 -6.31983E+03  7.74181E+03 -8.08693E+02  6.69790E+03  3.23169E+03  9.95950E+02  4.93433E+03
 -3.47356E+03  1.29272E+03 -4.23385E+03 -4.12238E+03  1.70419E+03 -7.58814E+03  8.79383E+03 -6.59840E+03
  1.17445E+04  1.74231E+03  1.10247E+04  8.80007E+03  3.42333E+03  1.27012E+04 -5.16658E+03  1.12464E+04
 -1.04765E+04  5.54391E+03 -9.90712E+03 -2.16081E+03 -4.91916E+03 -7.72104E+03  1.45360E+03 -8.15985E+03
  7.67622E+03 -3.64821E+03  6.33320E+03  3.44271E+03  1.64903E+03  6.49934E+03 -2.65234E+02  5.55977E+03
 -3.69219E+03  3.92045E+03 -2.64071E+03  1.85169E+03 -1.74288E+03  1.17459E+03 -1.58373E+03  2.43335E+03
 -2.76643E+03  4.36284E+03 -8.19248E+03  4.20469E+03 -1.17539E+04  1.13519E+03 -1.31753E+04 -8.37171E+03
 -7.49558E+03 -1.60922E+04  3.74303E+03 -1.89184E+04  1.15553E+04 -1.43952E+04  1.80824E+04 -5.23389E+03
  1.69779E+04  3.20483E+03  1.08369E+04  1.12377E+04  1.89581E+03  1.30729E+04 -5.49375E+03  1.03643E+04
 -7.51544E+03  3.34194E+03 -4.73123E+03 -1.65778E+03 -1.88996E+03 -2.15139E+03 -1.03645E+03  3.60137E+02
 -1.58250E+03  4.17713E+02 -2.79533E+03 -1.14417E+03 -2.18809E+03 -3.63787E+03  3.82436E+02 -4.18189E+03
  5.78834E+03 -3.93520E+03  9.18969E+03  2.10057E+02  8.22893E+03  6.45028E+03  1.55430E+03  1.26330E+04
 -6.60181E+03  1.41675E+04 -1.44241E+04  8.64277E+03 -1.53088E+04 -9.84136E+02 -1.15970E+04 -1.04053E+04
 -5.46717E+03 -1.35109E+04  3.15280E+03 -1.14567E+04  8.74454E+03 -6.12178E+03  9.15430E+03  3.18885E+02
  4.40113E+03  4.65762E+03 -6.24161E+02  3.46536E+03 -1.76821E+03 -4.24874E+02 -2.94889E+02 -3.75520E+03
  4.09536E+03 -2.27912E+03  5.81246E+03  1.21428E+03  2.50738E+03  5.83729E+03  6.74794E+02  5.78233E+03
 -5.29725E+03  5.27868E+03 -8.20255E+03  9.61877E+02 -7.55794E+03 -5.86533E+03 -1.90451E+03 -1.10852E+04
  6.75664E+03 -9.40402E+03  1.03973E+04 -3.39733E+03  9.88266E+03  2.13543E+03  5.54764E+03  8.38300E+03
  6.27191E+02  9.05782E+03 -3.24946E+03  7.41578E+03 -5.74274E+03  3.79464E+03 -4.86490E+03  9.53259E+02
 -2.62577E+03  3.92568E+02 -2.46687E+03  1.34650E+03 -4.19692E+03  1.75502E+03 -6.26632E+03 -2.34820E+02
 -6.86707E+03 -4.73419E+03 -1.80070E+03 -9.41620E+03  3.12506E+03 -9.28321E+03  8.34776E+03 -4.31446E+03
  8.39295E+03  1.42447E+03  4.73460E+03  6.50962E+03 -1.88176E+03  8.58696E+03 -6.88308E+03  5.66531E+03
