 $NMID ID='MM_0lb_SNR400_9hz_g60_42.RAW', FMTDAT='(8E13.5)'
 TRAMP=1., VOLUME=1. $END
  3.09496E+05  3.72633E+02  3.37923E+05  2.50960E+05  8.56139E+04  3.38582E+05 -1.32724E+05  2.51655E+05
 -1.91125E+05  8.38455E+04 -1.12200E+05 -3.24233E+04  5.06281E+02 -5.15191E+04  5.35372E+04 -8.34138E+02
  3.63799E+04  5.27877E+04 -1.69309E+04  7.61526E+04 -6.19872E+04  6.44063E+04 -8.51463E+04  3.31089E+04
 -8.29867E+04 -1.21837E+04 -5.80996E+04 -5.27157E+04 -1.43190E+04 -7.21303E+04  2.82022E+04 -4.65349E+04
  4.11601E+04  3.19467E+03  1.70584E+04  4.92898E+04 -3.53683E+04  4.87517E+04 -6.83554E+04  2.44558E+02
 -5.49514E+04 -5.82302E+04 -7.82221E+03 -7.90160E+04  3.55902E+04 -5.68662E+04  4.97769E+04 -1.75551E+04
  4.55502E+04  1.14219E+04  3.31118E+04  2.60133E+04  1.56917E+04  3.12638E+04 -5.83370E+03  2.77559E+04
 -2.27631E+04  1.15169E+04 -1.75208E+04 -6.19717E+03  6.85334E+03 -6.82862E+03  2.40815E+04  1.34361E+04
  6.74646E+03  3.79749E+04 -3.37682E+04  3.75947E+04 -6.56339E+04  1.72038E+03 -5.94235E+04 -4.53786E+04
 -1.26396E+04 -6.68094E+04  4.27800E+04 -4.76585E+04  6.21976E+04 -2.44227E+03  3.80339E+04  3.56548E+04
 -4.79822E+03  4.11261E+04 -3.29722E+04  1.93872E+04 -3.38616E+04 -2.75494E+03 -1.97377E+04 -1.22069E+04
 -9.86424E+03 -1.55953E+04 -4.39685E+02 -1.95134E+04  8.13400E+03 -2.34189E+04  1.61775E+04 -1.31465E+04
  1.03308E+04  6.66055E+03 -1.13352E+04  1.28456E+04 -2.25520E+04 -6.87783E+03 -8.64614E+03 -3.82623E+04
  2.54654E+04 -4.82386E+04  5.21747E+04 -2.16248E+04  4.98434E+04  2.11615E+04  1.72780E+04  4.76011E+04
 -1.71579E+04  3.65082E+04 -2.82093E+04  2.28030E+03 -1.17104E+04 -3.01540E+04  2.21005E+04 -3.74469E+04
  4.52877E+04 -1.15930E+04  4.24895E+04  2.56651E+04  2.25185E+04  5.11857E+04 -9.08702E+03  5.68482E+04
 -3.58247E+04  3.92669E+04 -4.87213E+04  1.17519E+04 -4.82383E+04 -1.89599E+04 -2.74200E+04 -4.30177E+04
  8.24951E+03 -4.29189E+04  3.47592E+04 -1.71637E+04  3.42275E+04  1.05732E+04  5.56158E+03  2.12243E+04
 -1.31187E+04  1.04404E+04 -1.20346E+04 -7.32649E+03  5.27650E+03 -1.25034E+04  1.94611E+04  5.88970E+03
  1.54697E+04  2.34953E+04 -4.23763E+03  2.80728E+04 -2.43794E+04  1.48568E+04 -3.26958E+04 -2.66361E+03
 -2.61713E+04 -1.93095E+04 -1.29848E+04 -2.53859E+04  4.42334E+03 -2.69728E+04  2.06373E+04 -2.45501E+04
  3.37445E+04 -1.41638E+04  3.93656E+04  5.59641E+03  2.78192E+04  2.52091E+04  4.27635E+03  4.15448E+04
 -2.06838E+04  3.52848E+04 -3.17379E+04  1.12719E+04 -2.24552E+04 -1.09049E+04 -5.12401E+03 -1.24951E+04
  2.13565E+02 -1.62645E+02 -8.07907E+03  9.07137E+03 -2.13104E+04  6.25553E+03 -2.06975E+04 -1.01053E+04
 -1.25557E+04 -2.40099E+04  5.88953E+03 -2.89669E+04  1.96131E+04 -2.06280E+04  2.40957E+04 -2.81787E+03
  1.50831E+04  1.68662E+04 -1.85104E+03  2.48047E+04 -1.73186E+04  1.41264E+04 -2.50708E+04 -5.13436E+03
 -1.84408E+04 -2.13041E+04 -2.41769E+03 -2.95329E+04  1.34735E+04 -2.48421E+04  2.35257E+04 -1.24633E+04
  2.33431E+04 -1.74276E+03  1.59165E+04  5.45506E+03  9.54918E+03  1.55671E+03  1.22981E+04 -2.39243E+03
  2.32232E+04  2.94573E+03  2.71475E+04  1.90878E+04  1.84328E+04  3.87807E+04 -1.97986E+03  4.67141E+04
 -2.64053E+04  3.89724E+04 -4.41256E+04  2.10048E+04 -4.66255E+04 -3.54883E+03 -3.73567E+04 -2.74725E+04
 -1.43927E+04 -3.92354E+04  1.35103E+04 -3.40580E+04  2.91628E+04 -1.59530E+04  2.60980E+04  7.32542E+03
  8.10498E+03  1.88241E+04 -1.17986E+04  1.55910E+04 -2.02824E+04  2.73984E+03 -1.67262E+04 -1.33317E+04
 -6.59953E+02 -2.03115E+04  1.13876E+04 -1.56777E+04  1.39036E+04 -8.14044E+02  3.75538E+03  9.15891E+03
 -9.38455E+03  4.90330E+03 -1.00146E+04 -6.65798E+03 -3.04261E+03 -1.96704E+04  1.22294E+04 -2.10764E+04
  2.37399E+04 -1.23497E+04  2.84223E+04  3.53500E+03  2.38598E+04  1.97202E+04  1.18237E+04  3.13735E+04
 -6.14611E+03  3.34119E+04 -2.14274E+04  2.04302E+04 -2.38963E+04  4.16790E+03 -1.62779E+04 -6.63744E+03
 -6.86273E+03 -7.76699E+03 -1.73160E+02 -3.66387E+02 -3.89715E+03  3.41276E+03 -8.52088E+03  5.79302E+03
 -1.43097E+04 -8.04944E+02 -1.53047E+04 -1.19210E+04 -7.04022E+03 -2.01663E+04  6.66833E+03 -1.61158E+04
  1.32663E+04 -6.88042E+03  9.44703E+03  4.84913E+03 -9.19467E+02  6.90194E+03 -8.12095E+03 -1.45255E+01
 -7.35621E+03 -1.06412E+04 -1.07584E+03 -1.69171E+04  9.91844E+03 -1.66793E+04  2.13834E+04 -9.84535E+03
  2.45838E+04  3.48670E+03  1.84499E+04  1.59833E+04  4.41327E+03  2.04772E+04 -1.03108E+04  1.69257E+04
 -1.26387E+04  4.72935E+03 -6.25384E+03 -2.66539E+03  1.63577E+03 -5.07652E+03  8.28943E+03 -5.85090E+02
  7.16015E+03  7.24177E+03  1.32797E+03  1.34074E+04 -9.92848E+03  1.31772E+04 -1.56882E+04  3.70938E+03
 -1.14432E+04 -8.90558E+03 -2.33045E+02 -1.44725E+04  9.47882E+03 -7.73483E+03  1.02649E+04  2.73700E+03
  2.07600E+03  1.07562E+04 -8.72837E+03  1.27867E+04 -1.49777E+04  5.25779E+03 -1.47133E+04 -5.09315E+03
 -9.14477E+03 -1.72434E+04  4.59184E+03 -1.99522E+04  1.67028E+04 -1.17551E+04  1.88591E+04  2.26691E+03
  9.89145E+03  1.47588E+04 -1.72586E+03  1.73081E+04 -1.33414E+04  9.85238E+03 -1.35408E+04 -1.91594E+03
 -1.07763E+04 -1.14278E+04 -1.37470E+03 -1.29506E+04  6.43580E+03 -1.00712E+04  8.34062E+03 -3.52632E+03
  5.42322E+03  2.54106E+03 -1.94331E+03  2.27628E+03 -6.48555E+02 -3.39200E+03  1.72569E+03 -8.27371E+03
  1.09221E+04 -5.33456E+03  1.71949E+04  2.54951E+03  1.75898E+04  1.16821E+04  1.05277E+04  2.23729E+04
 -5.05081E+03  2.57279E+04 -2.16409E+04  1.95675E+04 -2.72266E+04  3.87194E+03 -2.20156E+04 -1.02213E+04
 -1.09722E+04 -1.73581E+04 -7.29793E+02 -1.38324E+04  5.83565E+03 -9.10486E+03  5.93038E+03 -5.72547E+03
  4.29635E+03 -2.21435E+03  4.32748E+03 -4.60439E+03  6.13752E+03 -3.82919E+03  8.41529E+03 -1.81720E+03
  1.11737E+04  2.56924E+03  5.87975E+03  9.54277E+03 -2.57076E+03  1.24259E+04 -1.20800E+04  9.16718E+03
 -1.59182E+04 -7.03576E+02 -1.02287E+04 -1.13079E+04 -7.74594E+02 -1.77144E+04  9.37129E+03 -1.74889E+04
  1.76549E+04 -9.69735E+03  2.12652E+04  3.59465E+03  1.50786E+04  1.54962E+04  2.48763E+03  1.92335E+04
 -7.66073E+03  1.60950E+04 -1.15246E+04  5.61472E+03 -7.43888E+03 -1.52161E+03 -3.09729E+03 -2.97983E+03
 -1.21097E+03 -6.47991E+02 -3.18480E+03  2.44654E+03 -6.82638E+03  3.10566E+03 -1.08208E+04 -2.40233E+03
 -7.87265E+03 -1.13296E+04 -1.52084E+02 -1.61031E+04  1.08402E+04 -1.37994E+04  1.65582E+04 -4.28665E+03
  1.50660E+04  7.08461E+03  6.77760E+03  1.47255E+04 -3.01172E+03  1.66091E+04 -1.14068E+04  1.09128E+04
 -1.60248E+04 -2.95696E+02 -1.24258E+04 -9.73860E+03 -1.65902E+03 -1.45001E+04  7.48611E+03 -9.96263E+03
  1.03557E+04 -2.75350E+03  6.35716E+03  2.35347E+03  1.91473E+03  5.25073E+03  2.11364E+03  2.98116E+03
  2.83246E+03  1.64825E+03  4.18728E+03  2.89590E+03  3.94085E+03  5.19577E+03  4.07085E+03  8.45779E+03
 -3.44755E+03  1.29434E+04 -1.09326E+04  1.28881E+04 -1.69077E+04  3.06613E+03 -1.74048E+04 -7.21391E+03
 -8.16925E+03 -1.65165E+04  2.14463E+03 -1.75417E+04  1.00177E+04 -1.10067E+04  1.34726E+04 -2.97927E+03
  1.05246E+04  6.42006E+03  1.85715E+03  8.95886E+03 -4.33747E+03  6.14672E+03 -6.34713E+03 -1.07517E+03
 -3.23565E+03 -6.17965E+03  3.45100E+03 -7.47742E+03  6.73229E+03 -3.36802E+03  5.97345E+03  8.62476E+02
  3.67487E+03  3.82588E+03  1.48303E+03  2.93141E+03 -4.24023E+02  1.18311E+03  1.06584E+03  2.24028E+02
  2.63059E+03 -9.38536E+02  7.23808E+03  2.15527E+03  4.12656E+03  8.82501E+03 -1.49506E+03  1.10379E+04
 -8.85620E+03  7.25620E+03 -1.09938E+04  2.09023E+03 -1.05820E+04 -4.80459E+03 -3.93506E+03 -6.93543E+03
  7.44025E+02 -6.91986E+03  4.22502E+03 -2.53039E+03  3.71816E+03  2.87731E+03 -1.67677E+03  5.04213E+03
 -6.49812E+03  2.98087E+03 -7.87628E+03 -3.20954E+03 -4.50883E+03 -9.89312E+03  1.73437E+03 -9.27038E+03
  5.94908E+03 -6.04051E+03  6.92642E+03 -7.83717E+02  5.34735E+03  2.79320E+03  7.45731E+02  5.12777E+03
 -3.14152E+03  2.77779E+03 -3.54671E+03 -2.95751E+03  2.07626E+03 -7.10722E+03  8.35549E+03 -5.19477E+03
  1.13439E+04  1.22174E+03  1.02602E+04  7.18590E+03  4.09545E+03  1.07762E+04 -3.64169E+03  1.00672E+04
 -8.26155E+03  5.00861E+03 -9.04820E+03 -1.14548E+03 -3.93614E+03 -6.22801E+03  1.73213E+03 -7.30601E+03
  6.01650E+03 -3.35032E+03  6.51182E+03  3.43273E+03  2.25161E+03  5.34964E+03 -8.35785E+02  5.35816E+03
 -3.05097E+03  4.03653E+03 -2.77589E+03  1.14820E+03 -2.10470E+03  4.87869E+02 -1.04860E+03  1.70618E+03
 -3.22155E+03  4.59223E+03 -7.25479E+03  2.69243E+03 -1.09329E+04  4.72638E+02 -1.24658E+04 -6.33172E+03
 -6.43320E+03 -1.40620E+04  2.20406E+03 -1.69842E+04  1.00224E+04 -1.28909E+04  1.56450E+04 -5.09699E+03
  1.51027E+04  3.50646E+03  9.26685E+03  1.02945E+04  5.32724E+02  1.21114E+04 -4.10580E+03  8.49063E+03
 -6.48225E+03  2.80315E+03 -3.04047E+03 -1.23822E+03 -1.31037E+03 -7.02391E+02 -2.45407E+01 -1.66946E+03
 -2.07956E+03  8.64946E+02 -1.83467E+03 -6.08087E+02 -5.75832E+02 -3.06165E+03  4.70212E+02 -3.96078E+03
  4.68460E+03 -3.60113E+03  7.16130E+03 -2.03397E+02  8.35459E+03  5.93252E+03  2.49995E+03  1.11883E+04
 -5.88178E+03  1.22835E+04 -1.24289E+04  7.26933E+03 -1.46871E+04 -1.05993E+03 -1.01042E+04 -8.26790E+03
 -3.16916E+03 -1.10126E+04  3.30033E+03 -1.02027E+04  6.66581E+03 -5.49098E+03  7.52152E+03  3.86166E+02
  4.18896E+03  4.20762E+03  3.32604E+01  3.46956E+03 -1.83841E+03  4.73047E+02  6.22548E+02 -2.35223E+03
  3.80684E+03 -2.01387E+03  5.06669E+03  1.12002E+03  3.58798E+03  4.32421E+03  4.23929E+02  6.58138E+03
 -5.26156E+03  4.82367E+03 -7.20045E+03  1.15592E+03 -6.55227E+03 -4.55518E+03 -1.89397E+03 -9.33261E+03
  4.83112E+03 -8.11085E+03  9.47006E+03 -2.54083E+03  8.63301E+03  2.68424E+03  5.37671E+03  7.65492E+03
  1.09525E+03  7.02239E+03 -2.90084E+03  5.31978E+03 -4.69704E+03  3.66795E+03 -4.26712E+03  9.54543E+02
 -1.90027E+03 -3.75182E+02 -2.35245E+03  1.21174E+03 -3.66939E+03  8.09231E+02 -5.64200E+03 -1.09267E+03
 -5.84696E+03 -3.15429E+03 -2.17562E+03 -8.01077E+03  3.43797E+03 -8.17779E+03  6.95753E+03 -3.86240E+03
  6.83231E+03  7.72908E+02  4.58726E+03  6.20099E+03 -1.34070E+03  7.37404E+03 -5.88400E+03  4.51345E+03
