 $NMID ID='MM_0lb_SNR400_10hz_g60_58.RAW', FMTDAT='(8E13.5)'
 TRAMP=1., VOLUME=1. $END
  3.09935E+05 -2.44813E+02  3.38435E+05  2.51113E+05  8.43372E+04  3.37878E+05 -1.32331E+05  2.52086E+05
 -1.89711E+05  8.44079E+04 -1.12864E+05 -3.31383E+04  3.15360E+02 -5.15684E+04  5.33653E+04  1.89558E+02
  3.49562E+04  5.23329E+04 -1.67914E+04  7.65703E+04 -6.12766E+04  6.53189E+04 -8.57246E+04  3.23936E+04
 -8.29255E+04 -1.25405E+04 -5.84851E+04 -5.29316E+04 -1.56381E+04 -7.11087E+04  2.80714E+04 -4.65230E+04
  4.01560E+04  3.39590E+03  1.71463E+04  4.82964E+04 -3.54211E+04  4.84708E+04 -6.88278E+04  8.90820E+01
 -5.57036E+04 -5.78513E+04 -7.23656E+03 -7.81415E+04  3.48328E+04 -5.73738E+04  4.94306E+04 -1.93258E+04
  4.55495E+04  1.15589E+04  3.31286E+04  2.71069E+04  1.59465E+04  3.03068E+04 -6.11843E+03  2.83039E+04
 -2.20819E+04  1.20147E+04 -1.78725E+04 -6.02690E+03  6.96961E+03 -7.17540E+03  2.39113E+04  1.40669E+04
  7.47530E+03  3.74111E+04 -3.35894E+04  3.79532E+04 -6.58329E+04  1.52528E+03 -5.95374E+04 -4.48395E+04
 -1.25182E+04 -6.66281E+04  4.08949E+04 -4.77610E+04  6.13716E+04 -2.79088E+03  3.70141E+04  3.44821E+04
 -5.60972E+03  3.93502E+04 -3.18529E+04  1.86763E+04 -3.36998E+04 -2.47329E+03 -1.96464E+04 -1.25404E+04
 -9.55547E+03 -1.52513E+04 -2.27638E+02 -1.98587E+04  8.49063E+03 -2.32825E+04  1.56296E+04 -1.17667E+04
  1.00027E+04  6.86366E+03 -1.06814E+04  1.27088E+04 -2.24911E+04 -7.61441E+03 -8.15642E+03 -3.82821E+04
  2.47710E+04 -4.71765E+04  5.32993E+04 -2.07881E+04  4.90173E+04  2.10788E+04  1.73513E+04  4.64799E+04
 -1.67370E+04  3.63984E+04 -2.82576E+04  2.86903E+03 -1.17552E+04 -2.91835E+04  2.23335E+04 -3.69971E+04
  4.50255E+04 -1.07833E+04  4.09695E+04  2.45013E+04  2.10412E+04  5.21553E+04 -8.32901E+03  5.58755E+04
 -3.53203E+04  3.82541E+04 -4.75436E+04  1.13832E+04 -4.70199E+04 -1.98141E+04 -2.64046E+04 -4.27014E+04
  8.04682E+03 -4.20225E+04  3.42136E+04 -1.65925E+04  3.15706E+04  1.13697E+04  4.58361E+03  2.13772E+04
 -1.48542E+04  9.47165E+03 -1.13113E+04 -8.42952E+03  6.16206E+03 -1.20772E+04  1.94329E+04  5.22211E+03
  1.51159E+04  2.27590E+04 -4.79067E+03  2.65296E+04 -2.33382E+04  1.41862E+04 -3.15868E+04 -3.40610E+03
 -2.57676E+04 -1.88458E+04 -1.09251E+04 -2.47128E+04  4.15294E+03 -2.52754E+04  1.93127E+04 -2.31068E+04
  3.31107E+04 -1.42593E+04  3.91419E+04  4.34536E+03  2.71847E+04  2.48880E+04  4.50703E+03  4.14449E+04
 -1.94465E+04  3.39688E+04 -3.10653E+04  1.20074E+04 -2.22732E+04 -1.02149E+04 -5.63356E+03 -1.30702E+04
 -5.15033E+01 -2.30249E+03 -7.93978E+03  7.50795E+03 -1.99670E+04  5.29879E+03 -2.08431E+04 -1.05521E+04
 -1.22509E+04 -2.37481E+04  6.29057E+03 -2.78127E+04  1.89505E+04 -2.03024E+04  2.26929E+04 -1.24460E+03
  1.42483E+04  1.61441E+04 -1.70005E+03  2.38369E+04 -1.77407E+04  1.38624E+04 -2.39602E+04 -4.60238E+03
 -1.79673E+04 -2.02934E+04 -2.99393E+03 -2.80310E+04  1.25747E+04 -2.30267E+04  2.27612E+04 -1.18939E+04
  2.13167E+04 -1.64982E+02  1.63191E+04  5.51091E+03  9.10826E+03  1.51435E+03  1.27453E+04 -2.54551E+03
  2.22240E+04  2.22545E+03  2.54251E+04  1.86283E+04  1.73693E+04  3.74014E+04 -2.42165E+03  4.40775E+04
 -2.65279E+04  3.75986E+04 -4.18749E+04  1.87798E+04 -4.43413E+04 -3.58367E+03 -3.61255E+04 -2.67369E+04
 -1.40346E+04 -3.78054E+04  1.28365E+04 -3.21127E+04  2.68453E+04 -1.54186E+04  2.46074E+04  7.56460E+03
  8.87219E+03  1.83357E+04 -1.15799E+04  1.52988E+04 -2.06809E+04  3.07553E+03 -1.48350E+04 -1.26905E+04
 -5.96973E+02 -2.00768E+04  1.09661E+04 -1.46298E+04  1.28925E+04 -7.13514E+02  3.41957E+03  7.99778E+03
 -9.01968E+03  4.43731E+03 -9.43742E+03 -7.23055E+03 -1.04908E+03 -1.81454E+04  1.22797E+04 -1.98545E+04
  2.26170E+04 -1.11574E+04  2.58463E+04  3.29842E+03  2.26824E+04  1.83336E+04  1.09188E+04  2.96017E+04
 -5.77528E+03  3.09318E+04 -2.12583E+04  1.90658E+04 -2.29615E+04  3.61055E+03 -1.54904E+04 -5.72869E+03
 -6.28813E+03 -7.71144E+03 -1.46567E+03  3.99035E+02 -2.36945E+03  3.76371E+03 -7.75328E+03  4.53626E+03
 -1.46700E+04 -6.39723E+02 -1.49008E+04 -1.20378E+04 -5.96180E+03 -1.90603E+04  6.68301E+03 -1.61988E+04
  1.33508E+04 -7.11705E+03  9.01095E+03  4.70775E+03 -4.28908E+02  6.99301E+03 -7.94996E+03  5.10663E+01
 -7.19002E+03 -9.79132E+03 -6.94668E+02 -1.53865E+04  9.68292E+03 -1.67105E+04  1.93143E+04 -8.76111E+03
  2.42851E+04  1.90573E+03  1.65403E+04  1.39176E+04  2.65097E+03  1.91136E+04 -9.41147E+03  1.53247E+04
 -1.29456E+04  4.45903E+03 -6.79534E+03 -3.24891E+03  1.76450E+03 -4.37014E+03  8.26095E+03 -9.00044E+02
  7.84019E+03  7.21866E+03  5.77782E+02  1.24182E+04 -8.96841E+03  1.17093E+04 -1.50963E+04  3.70885E+03
 -9.70038E+03 -8.89422E+03  2.14011E+01 -1.39670E+04  9.01906E+03 -6.58938E+03  9.44053E+03  3.87137E+03
  2.14081E+03  9.96800E+03 -8.31590E+03  1.14444E+04 -1.34085E+04  4.90152E+03 -1.34885E+04 -5.03450E+03
 -7.75710E+03 -1.55973E+04  4.77256E+03 -1.82679E+04  1.51197E+04 -1.05496E+04  1.68535E+04  2.11610E+03
  1.02522E+04  1.29296E+04 -2.44236E+03  1.53416E+04 -1.14151E+04  8.55302E+03 -1.23431E+04 -1.48681E+03
 -1.09668E+04 -1.04430E+04 -2.59986E+03 -1.19462E+04  6.01188E+03 -8.99045E+03  7.36509E+03 -3.67137E+03
  4.60070E+03  2.63388E+03 -1.07151E+03  2.41661E+03 -3.72056E+02 -3.60406E+03  1.96271E+03 -6.79214E+03
  1.17006E+04 -4.46023E+03  1.61529E+04  9.58053E+02  1.60981E+04  1.08886E+04  1.02209E+04  2.11912E+04
 -5.30673E+03  2.32770E+04 -2.03044E+04  1.76568E+04 -2.51192E+04  3.01784E+03 -2.00616E+04 -9.55384E+03
 -1.07577E+04 -1.72593E+04 -1.66639E+02 -1.44575E+04  4.48356E+03 -8.29103E+03  5.32454E+03 -5.65244E+03
  3.66129E+03 -3.36595E+03  3.85556E+03 -4.23384E+03  5.89413E+03 -3.04055E+03  7.56407E+03 -1.66035E+03
  1.03315E+04  2.31086E+03  6.25467E+03  8.94093E+03 -2.34091E+03  1.06656E+04 -1.03868E+04  8.26629E+03
 -1.40106E+04 -2.00926E+03 -9.64104E+03 -9.67863E+03 -1.29429E+03 -1.55767E+04  7.86136E+03 -1.51843E+04
  1.60299E+04 -7.75334E+03  1.83254E+04  1.97760E+03  1.23799E+04  1.37168E+04  1.89576E+03  1.71776E+04
 -6.92636E+03  1.45353E+04 -8.87642E+03  5.58878E+03 -7.46288E+03 -1.92347E+03 -2.99452E+03 -2.05227E+03
 -1.52901E+03 -7.28215E+02 -2.77534E+03  2.97303E+03 -5.46639E+03  2.03259E+03 -1.02162E+04 -1.74069E+03
 -6.45681E+03 -1.04467E+04  4.99101E+01 -1.36357E+04  8.95417E+03 -1.27832E+04  1.43691E+04 -4.23075E+03
  1.39256E+04  7.03795E+03  6.66366E+03  1.32718E+04 -2.85909E+03  1.41763E+04 -9.93598E+03  8.96780E+03
 -1.39169E+04  8.53875E+02 -9.85540E+03 -9.05232E+03 -1.61130E+03 -1.18697E+04  5.56943E+03 -8.78540E+03
  9.05583E+03 -2.68321E+03  5.71650E+03  3.07163E+03  1.90243E+03  5.03247E+03  7.77334E+02  1.16540E+03
  2.88858E+03  1.49686E+03  3.31026E+03  1.45957E+03  4.31699E+03  5.34233E+03  3.79627E+03  8.33268E+03
 -3.49088E+03  1.22708E+04 -1.02864E+04  1.07019E+04 -1.53132E+04  2.97922E+03 -1.52226E+04 -5.79225E+03
 -7.24699E+03 -1.44340E+04  2.26937E+03 -1.58612E+04  7.74899E+03 -9.91956E+03  1.25261E+04 -2.66401E+03
  8.94707E+03  5.94595E+03  7.86746E+02  7.60415E+03 -4.89247E+03  5.19471E+03 -6.03225E+03 -4.20093E+02
 -2.72211E+03 -5.98304E+03  3.66996E+03 -6.21795E+03  5.80008E+03 -2.66612E+03  5.37758E+03  1.41551E+03
  3.46374E+03  2.59718E+03  1.30892E+03  2.65037E+03 -4.22042E+02  2.06733E+03  5.20246E+02 -6.70678E+02
  2.43157E+03 -1.13411E+03  6.35959E+03  1.23303E+03  3.05058E+03  8.22002E+03 -7.95298E+02  1.02725E+04
 -6.86320E+03  6.35539E+03 -8.28573E+03  1.65760E+03 -7.77910E+03 -3.81421E+03 -2.67480E+03 -5.40216E+03
  1.25324E+03 -6.02937E+03  3.45291E+03 -2.88373E+03  3.18868E+03  2.81149E+03 -1.70322E+03  5.02161E+03
 -5.86459E+03  2.59787E+03 -7.16051E+03 -3.36171E+03 -3.53930E+03 -9.22121E+03  7.93449E+02 -8.22664E+03
  4.17252E+03 -4.79287E+03  6.49117E+03  9.42971E+01  5.37694E+03  1.84255E+03  6.27067E+02  4.12416E+03
 -2.39226E+03  5.85416E+02 -3.59969E+03 -2.17967E+03  1.67592E+03 -5.99357E+03  6.82974E+03 -4.29611E+03
  8.74368E+03  1.09538E+01  8.29341E+03  6.51199E+03  3.26672E+03  9.35099E+03 -4.40885E+03  9.10521E+03
 -7.65136E+03  3.83416E+03 -7.64905E+03 -1.17169E+03 -4.74201E+03 -5.87300E+03  1.08104E+03 -5.97668E+03
  5.72988E+03 -2.16202E+03  5.11376E+03  2.56475E+03  1.46422E+03  5.42392E+03 -7.34232E+02  5.04996E+03
 -2.80985E+03  3.76170E+03 -1.89367E+03  3.86928E+02 -9.20334E+02  7.52665E+02 -1.05173E+03  1.82533E+03
 -2.73752E+03  2.93474E+03 -6.40536E+03  3.81259E+03 -9.30813E+03 -1.30007E+01 -1.07992E+04 -6.33980E+03
 -5.57228E+03 -1.20471E+04  1.83949E+03 -1.43828E+04  8.11587E+03 -1.14766E+04  1.34362E+04 -4.98820E+03
  1.27578E+04  2.22578E+03  7.09170E+03  8.62852E+03 -3.94426E+02  9.22974E+03 -3.74407E+03  7.12651E+03
 -5.06679E+03  3.02615E+03 -3.64058E+03 -8.37355E+02 -1.23393E+03 -1.44153E+03 -2.74815E+02  6.36089E+02
 -1.01867E+03  5.06039E+02 -1.43100E+03  2.07187E+02 -9.40385E+02 -2.08170E+03 -3.55109E+02 -3.37535E+03
  4.90742E+03 -3.01704E+03  5.60270E+03  6.72628E+01  7.37205E+03  4.95240E+03  1.08439E+03  9.35541E+03
 -4.61231E+03  1.05740E+04 -1.00814E+04  6.47125E+03 -1.24153E+04 -1.33514E+03 -7.83849E+03 -7.17090E+03
 -3.13851E+03 -9.34720E+03  2.77070E+03 -8.22340E+03  5.88861E+03 -4.29523E+03  5.76208E+03 -1.11792E+02
  3.28672E+03  2.82330E+03 -6.68751E+02  2.83226E+03 -2.19054E+03 -2.37802E+02 -9.04223E+00 -2.28715E+03
  2.93427E+03 -1.32437E+03  3.36046E+03  1.02054E+03  2.27257E+03  3.37281E+03  2.95900E+02  4.90192E+03
 -3.94609E+03  4.21087E+03 -5.69098E+03  3.60320E+02 -5.40306E+03 -4.25648E+03 -1.11940E+03 -8.21174E+03
  4.16558E+03 -6.60724E+03  6.99931E+03 -2.36353E+03  7.27558E+03  1.41161E+03  4.47879E+03  6.37366E+03
  4.91941E+02  6.60804E+03 -2.69921E+03  4.86287E+03 -4.72597E+03  2.72228E+03 -3.91148E+03 -3.32974E+02
 -1.88058E+03 -5.06675E+02 -1.31874E+03  2.51548E+02 -3.57469E+03  7.77421E+02 -4.19889E+03 -1.53215E+03
 -5.20419E+03 -2.74653E+03 -2.04324E+03 -6.77623E+03  3.18789E+03 -7.00116E+03  5.55157E+03 -2.82659E+03
  6.06079E+03  3.50920E+01  3.68278E+03  3.85546E+03 -1.82569E+02  5.76423E+03 -5.02964E+03  4.31092E+03
