 $NMID ID='MM_0lb_SNR400_8hz_g50_8.RAW', FMTDAT='(8E13.5)'
 TRAMP=1., VOLUME=1. $END
  3.09600E+05  4.44311E+02  3.37897E+05  2.50213E+05  8.49926E+04  3.38636E+05 -1.32575E+05  2.51902E+05
 -1.90150E+05  8.43328E+04 -1.13092E+05 -3.28871E+04 -1.90397E+02 -5.15066E+04  5.32697E+04 -2.22987E+02
  3.63535E+04  5.24637E+04 -1.56187E+04  7.51902E+04 -6.12731E+04  6.45639E+04 -8.51913E+04  3.27514E+04
 -8.32161E+04 -1.12315E+04 -5.86524E+04 -5.30335E+04 -1.45100E+04 -7.12873E+04  2.74339E+04 -4.71964E+04
  4.13539E+04  3.86903E+03  1.65419E+04  4.83529E+04 -3.56628E+04  4.84909E+04 -6.85951E+04  2.29481E+02
 -5.47868E+04 -5.81246E+04 -7.47914E+03 -7.89656E+04  3.54770E+04 -5.64384E+04  5.01879E+04 -1.84628E+04
  4.55288E+04  1.19136E+04  3.37222E+04  2.65089E+04  1.51556E+04  3.06328E+04 -5.55597E+03  2.77193E+04
 -2.28313E+04  1.19836E+04 -1.87655E+04 -6.54881E+03  7.99148E+03 -7.89761E+03  2.39666E+04  1.45401E+04
  7.16433E+03  3.78005E+04 -3.46415E+04  3.75939E+04 -6.59747E+04  2.49375E+03 -5.92676E+04 -4.45241E+04
 -1.29075E+04 -6.66852E+04  4.20747E+04 -4.80129E+04  6.22282E+04 -2.20229E+03  3.76905E+04  3.54885E+04
 -5.98975E+03  4.04615E+04 -3.15918E+04  1.90715E+04 -3.40532E+04 -4.71354E+03 -1.96256E+04 -1.13882E+04
 -9.27242E+03 -1.53354E+04 -5.26659E+02 -2.02928E+04  8.26741E+03 -2.27165E+04  1.60210E+04 -1.15755E+04
  9.65233E+03  6.39006E+03 -1.12159E+04  1.32697E+04 -2.35299E+04 -6.81232E+03 -8.29910E+03 -3.89650E+04
  2.45602E+04 -4.76593E+04  5.24091E+04 -2.07100E+04  4.95797E+04  2.10316E+04  1.77104E+04  4.74412E+04
 -1.68539E+04  3.63203E+04 -2.81953E+04  2.32864E+03 -1.10870E+04 -3.02129E+04  2.16284E+04 -3.73844E+04
  4.55150E+04 -1.21560E+04  4.07532E+04  2.60727E+04  2.24057E+04  5.28491E+04 -8.52056E+03  5.75981E+04
 -3.58546E+04  3.87885E+04 -4.88917E+04  1.19160E+04 -4.89013E+04 -1.81381E+04 -2.69619E+04 -4.26244E+04
  7.34272E+03 -4.37851E+04  3.40965E+04 -1.80909E+04  3.22965E+04  1.11242E+04  5.43972E+03  2.17683E+04
 -1.44654E+04  1.00170E+04 -1.13241E+04 -7.72955E+03  4.92015E+03 -1.12033E+04  1.91808E+04  5.45912E+03
  1.54544E+04  2.25708E+04 -4.97324E+03  2.74327E+04 -2.30735E+04  1.43413E+04 -3.25762E+04 -2.12817E+03
 -2.56493E+04 -1.78728E+04 -1.19702E+04 -2.55581E+04  4.68895E+03 -2.67027E+04  2.11158E+04 -2.43404E+04
  3.43664E+04 -1.40991E+04  3.85651E+04  5.17299E+03  2.83180E+04  2.45622E+04  5.10642E+03  4.23519E+04
 -2.01967E+04  3.48750E+04 -3.13619E+04  1.15718E+04 -2.34843E+04 -1.03690E+04 -4.94044E+03 -1.28953E+04
  4.29580E+02 -9.58816E+02 -8.13580E+03  9.08923E+03 -2.12862E+04  4.45093E+03 -2.11446E+04 -1.09167E+04
 -1.14396E+04 -2.35118E+04  5.84536E+03 -2.89510E+04  2.02029E+04 -2.12285E+04  2.39020E+04 -1.10265E+03
  1.55346E+04  1.73824E+04 -1.56228E+03  2.47926E+04 -1.75216E+04  1.42638E+04 -2.54152E+04 -5.15331E+03
 -1.77428E+04 -2.13963E+04 -2.18762E+03 -2.92140E+04  1.33698E+04 -2.38432E+04  2.33184E+04 -1.30833E+04
  2.29633E+04 -1.07616E+03  1.62532E+04  5.45269E+03  8.88266E+03  1.45726E+03  1.26302E+04 -2.39253E+03
  2.31069E+04  2.05809E+03  2.64076E+04  1.97581E+04  1.85800E+04  3.83526E+04 -3.75421E+03  4.57834E+04
 -2.61951E+04  3.82385E+04 -4.40664E+04  2.07606E+04 -4.68407E+04 -3.26965E+03 -3.80747E+04 -2.75289E+04
 -1.45131E+04 -3.96824E+04  1.34291E+04 -3.47513E+04  2.90126E+04 -1.55485E+04  2.54722E+04  8.31554E+03
  7.43111E+03  2.01565E+04 -1.27007E+04  1.63124E+04 -2.10307E+04  3.12216E+03 -1.64561E+04 -1.31883E+04
 -4.28810E+02 -2.06162E+04  1.16594E+04 -1.47906E+04  1.39960E+04 -1.80650E+02  3.69907E+03  9.09282E+03
 -9.01298E+03  4.77524E+03 -1.03660E+04 -7.35276E+03 -1.73959E+03 -1.91704E+04  1.24215E+04 -2.08715E+04
  2.37361E+04 -1.16930E+04  2.72720E+04  3.48942E+03  2.45568E+04  1.83576E+04  1.02909E+04  3.02829E+04
 -5.60198E+03  3.33451E+04 -2.23844E+04  2.03092E+04 -2.44534E+04  3.68519E+03 -1.55546E+04 -6.05428E+03
 -6.75039E+03 -7.61381E+03 -3.53612E+02 -2.10649E+02 -2.67943E+03  2.45252E+03 -8.15387E+03  6.18035E+03
 -1.46476E+04 -6.29593E+02 -1.50969E+04 -1.18733E+04 -6.52620E+03 -2.11370E+04  7.28154E+03 -1.67499E+04
  1.37520E+04 -6.26593E+03  9.52039E+03  3.48991E+03 -6.85870E+02  7.37763E+03 -8.31717E+03  2.63421E+01
 -8.95667E+03 -1.07355E+04 -9.69030E+02 -1.66764E+04  9.95630E+03 -1.75155E+04  2.20480E+04 -9.78739E+03
  2.56959E+04  2.51532E+03  1.82861E+04  1.54606E+04  3.92015E+03  2.03928E+04 -1.02082E+04  1.64542E+04
 -1.40274E+04  4.64623E+03 -6.85112E+03 -4.10202E+03  2.39759E+03 -5.14068E+03  8.36701E+03 -1.26914E+03
  7.96609E+03  7.70433E+03  1.48250E+03  1.30051E+04 -9.01285E+03  1.20806E+04 -1.67512E+04  2.41879E+03
 -1.17945E+04 -9.02933E+03  5.99469E+02 -1.40846E+04  1.00869E+04 -7.10527E+03  1.02233E+04  3.45021E+03
  2.91180E+03  1.02240E+04 -8.02837E+03  1.25209E+04 -1.46971E+04  5.59542E+03 -1.52610E+04 -6.21302E+03
 -8.83479E+03 -1.77074E+04  4.10935E+03 -2.00919E+04  1.61646E+04 -1.15071E+04  1.89205E+04  2.47194E+03
  1.01628E+04  1.45722E+04 -2.01518E+03  1.67487E+04 -1.28234E+04  9.46736E+03 -1.44251E+04 -1.52749E+03
 -1.15132E+04 -1.21878E+04 -1.71659E+03 -1.25099E+04  6.69438E+03 -1.00458E+04  8.75475E+03 -4.42509E+03
  6.06440E+03  1.55869E+03 -1.75301E+03  3.26434E+03 -6.91960E+02 -3.28490E+03  2.39796E+03 -7.94153E+03
  1.25444E+04 -5.20410E+03  1.83497E+04  1.59739E+03  1.63269E+04  1.15173E+04  1.09843E+04  2.35480E+04
 -5.24530E+03  2.66481E+04 -2.21969E+04  2.02322E+04 -2.77473E+04  4.27068E+03 -2.27631E+04 -9.79751E+03
 -1.07593E+04 -1.83759E+04 -3.82942E+01 -1.62173E+04  5.71908E+03 -9.30282E+03  5.77128E+03 -6.30431E+03
  4.48521E+03 -3.77648E+03  3.50196E+03 -4.34189E+03  6.48436E+03 -4.27842E+03  8.36429E+03 -1.67526E+03
  1.19575E+04  1.78381E+03  5.78245E+03  1.05858E+04 -2.49869E+03  1.29767E+04 -1.34089E+04  1.05944E+04
 -1.65495E+04 -1.16972E+03 -1.07390E+04 -1.18349E+04 -2.13032E+03 -1.81512E+04  9.90217E+03 -1.70708E+04
  1.90621E+04 -9.69659E+03  2.22661E+04  2.29671E+03  1.41470E+04  1.58077E+04  2.21799E+03  1.97441E+04
 -8.14521E+03  1.56751E+04 -1.26800E+04  5.79140E+03 -7.59302E+03 -2.21544E+03 -3.15151E+03 -3.04730E+03
 -1.92236E+03 -9.68236E+02 -2.51642E+03  3.55628E+03 -7.02770E+03  2.42807E+03 -1.15637E+04 -1.58392E+03
 -8.74568E+03 -1.12841E+04  2.64430E+02 -1.61764E+04  1.03190E+04 -1.48811E+04  1.68645E+04 -4.48728E+03
  1.64826E+04  7.74419E+03  7.55952E+03  1.50191E+04 -2.70607E+03  1.78280E+04 -1.15872E+04  1.06282E+04
 -1.62767E+04  1.44065E+03 -1.17140E+04 -9.89071E+03 -1.46911E+03 -1.39006E+04  8.14825E+03 -1.05377E+04
  1.03505E+04 -3.43547E+03  6.42378E+03  2.09623E+03  2.37747E+03  4.84893E+03  1.58070E+03  1.72231E+03
  3.44648E+03  1.18673E+03  3.92611E+03  1.92420E+03  4.87026E+03  5.91387E+03  4.65715E+03  9.18277E+03
 -3.32561E+03  1.39663E+04 -1.20949E+04  1.32812E+04 -1.75326E+04  4.12479E+03 -1.82671E+04 -7.86285E+03
 -8.61157E+03 -1.73623E+04  3.02263E+03 -1.81330E+04  1.04758E+04 -1.26037E+04  1.42674E+04 -3.38337E+03
  1.09691E+04  6.03053E+03  1.46476E+03  9.61271E+03 -5.16078E+03  6.72062E+03 -7.77475E+03 -1.85781E+03
 -2.73888E+03 -7.90426E+03  4.01214E+03 -7.22492E+03  6.96959E+03 -3.57100E+03  7.21434E+03  1.58365E+03
  3.71167E+03  3.65620E+03  1.33826E+03  3.10533E+03  1.25590E+02  3.23612E+03  1.88036E+03 -1.14067E+03
  2.43243E+03 -8.39683E+02  7.80315E+03  3.95844E+03  4.04968E+03  9.21545E+03 -1.24439E+03  1.21358E+04
 -8.03271E+03  7.42536E+03 -1.15232E+04  2.38112E+03 -9.84908E+03 -3.21799E+03 -4.55762E+03 -6.98276E+03
  1.51224E+03 -7.33037E+03  4.19424E+03 -3.12116E+03  4.05986E+03  3.20073E+03 -2.59391E+03  5.83127E+03
 -7.02189E+03  3.02056E+03 -8.48578E+03 -5.09807E+03 -4.44228E+03 -9.58094E+03  1.58435E+03 -9.26739E+03
  5.61994E+03 -6.37008E+03  7.43990E+03 -1.00671E+03  5.60334E+03  2.78008E+03  5.50353E+02  5.33762E+03
 -3.06311E+03  1.97075E+03 -4.47802E+03 -3.52812E+03  2.06438E+03 -8.13610E+03  8.63124E+03 -6.50018E+03
  1.20279E+04  2.77841E+01  1.07092E+04  8.13797E+03  3.33873E+03  1.28916E+04 -4.12139E+03  1.09687E+04
 -1.03789E+04  5.93713E+03 -1.04989E+04 -1.97237E+03 -5.04838E+03 -7.82911E+03  1.84729E+03 -7.04836E+03
  6.16378E+03 -3.97715E+03  5.90057E+03  3.01740E+03  2.44834E+03  6.55586E+03 -1.11247E+03  5.77336E+03
 -2.72078E+03  4.29343E+03 -2.46776E+03  1.58899E+03 -1.95966E+03  9.33447E+02 -8.09367E+02  2.75088E+03
 -3.00435E+03  4.58914E+03 -8.21009E+03  3.33311E+03 -1.14626E+04  7.38093E+02 -1.37886E+04 -7.77182E+03
 -7.35805E+03 -1.59012E+04  3.00827E+03 -1.88181E+04  1.12350E+04 -1.38950E+04  1.80005E+04 -4.82902E+03
  1.58078E+04  3.38452E+03  9.88825E+03  1.13171E+04  8.61225E+02  1.29664E+04 -4.88549E+03  1.00926E+04
 -7.21258E+03  3.89305E+03 -4.18420E+03 -1.97169E+03 -6.87999E+02 -1.02022E+03 -5.40073E+02  4.29333E+02
 -1.88650E+03  2.89175E+02 -2.62606E+03 -5.76128E+02 -1.30716E+03 -3.07570E+03  5.87624E+02 -4.77551E+03
  5.57406E+03 -3.53331E+03  8.74743E+03 -8.81748E+01  8.91906E+03  6.31794E+03  2.58526E+03  1.26462E+04
 -6.47788E+03  1.46766E+04 -1.32738E+04  8.37783E+03 -1.52351E+04 -1.95535E+02 -1.18667E+04 -8.25140E+03
 -4.87667E+03 -1.29993E+04  3.25873E+03 -1.26374E+04  8.80873E+03 -6.80256E+03  8.50279E+03  2.79206E+02
  5.00919E+03  4.24436E+03 -5.31219E+02  3.49926E+03 -2.41303E+03  2.85624E+02  1.58036E+02 -3.51845E+03
  3.45428E+03 -1.15114E+03  4.64205E+03  1.90274E+03  3.43132E+03  4.97465E+03  1.32065E+02  7.06590E+03
 -5.52784E+03  5.72134E+03 -8.23348E+03  1.06111E+03 -7.51811E+03 -6.65771E+03 -2.08524E+03 -1.02432E+04
  5.58160E+03 -9.31246E+03  1.05839E+04 -2.67739E+03  9.92169E+03  3.32898E+03  6.45710E+03  8.62838E+03
  8.17622E+02  8.66154E+03 -3.77506E+03  6.98380E+03 -5.68002E+03  4.70926E+03 -4.88146E+03  4.60414E+02
 -3.14556E+03 -5.22756E+02 -2.17009E+03  9.03270E+02 -4.24285E+03  1.21139E+03 -5.93633E+03 -2.12951E+03
 -6.06195E+03 -4.67725E+03 -2.55362E+03 -9.14796E+03  3.86731E+03 -9.04882E+03  8.11856E+03 -4.34396E+03
  8.95186E+03  1.09034E+03  4.50275E+03  5.96085E+03 -1.18513E+03  7.67533E+03 -7.00154E+03  5.81200E+03
