 $NMID ID='MM_0lb_SNR400_17hz_g60_92.RAW', FMTDAT='(8E13.5)'
 TRAMP=1., VOLUME=1. $END
  3.10195E+05  4.12683E+02  3.37587E+05  2.50490E+05  8.46408E+04  3.37789E+05 -1.32761E+05  2.50763E+05
 -1.90709E+05  8.31292E+04 -1.11401E+05 -3.30223E+04  1.00057E+03 -5.01954E+04  5.44284E+04  1.37377E+02
  3.55533E+04  5.23016E+04 -1.65300E+04  7.52234E+04 -6.09937E+04  6.32219E+04 -8.38693E+04  3.18759E+04
 -8.04081E+04 -1.18767E+04 -5.73306E+04 -5.11470E+04 -1.47631E+04 -6.94536E+04  2.75367E+04 -4.57798E+04
  3.99349E+04  4.14636E+03  1.59130E+04  4.77597E+04 -3.38852E+04  4.67532E+04 -6.71230E+04 -1.80063E+02
 -5.25228E+04 -5.67300E+04 -6.86338E+03 -7.74995E+04  3.34673E+04 -5.50440E+04  4.80245E+04 -1.79523E+04
  4.31510E+04  1.10910E+04  3.15995E+04  2.51080E+04  1.56177E+04  2.88631E+04 -4.71285E+03  2.69087E+04
 -2.19978E+04  1.27559E+04 -1.88115E+04 -4.61970E+03  5.33776E+03 -8.07881E+03  2.22880E+04  1.17666E+04
  7.41962E+03  3.52421E+04 -3.23549E+04  3.52389E+04 -6.31601E+04  2.71226E+03 -5.67433E+04 -4.29037E+04
 -1.27677E+04 -6.29828E+04  3.88629E+04 -4.52483E+04  5.77644E+04 -2.33417E+03  3.41991E+04  3.21601E+04
 -5.86223E+03  3.55655E+04 -2.97079E+04  1.52389E+04 -3.02300E+04 -4.45252E+03 -1.64947E+04 -1.11244E+04
 -8.49464E+03 -1.37220E+04 -1.07160E+03 -1.80258E+04  7.41724E+03 -2.29077E+04  1.54151E+04 -1.28389E+04
  1.19964E+04  5.15824E+03 -8.17917E+03  1.35809E+04 -2.09381E+04 -4.23517E+03 -8.06587E+03 -3.37399E+04
  2.26846E+04 -4.30370E+04  4.75496E+04 -2.01274E+04  4.44260E+04  1.95155E+04  1.55444E+04  4.38917E+04
 -1.65184E+04  3.29311E+04 -2.49232E+04  1.99897E+03 -9.60059E+03 -2.72216E+04  2.05795E+04 -3.35585E+04
  4.06140E+04 -8.81885E+03  3.52301E+04  2.33283E+04  1.77889E+04  4.54152E+04 -7.58836E+03  4.89546E+04
 -3.13037E+04  3.27214E+04 -4.09675E+04  9.06284E+03 -4.20457E+04 -1.61176E+04 -2.30136E+04 -3.69737E+04
  6.98448E+03 -3.66813E+04  3.08484E+04 -1.36867E+04  2.87264E+04  1.07858E+04  3.08045E+03  1.88621E+04
 -1.31136E+04  8.14940E+03 -1.03643E+04 -7.95290E+03  6.10802E+03 -1.03360E+04  1.87134E+04  6.15738E+03
  1.32559E+04  2.25347E+04 -5.94382E+03  2.51004E+04 -2.17747E+04  1.11483E+04 -2.75229E+04 -4.60481E+03
 -1.97213E+04 -1.69336E+04 -7.56731E+03 -1.97024E+04  3.70426E+03 -1.85949E+04  1.50741E+04 -1.76090E+04
  2.47282E+04 -1.24474E+04  3.17344E+04  2.00713E+03  2.34012E+04  1.92200E+04  4.14338E+03  3.56939E+04
 -1.73059E+04  2.96611E+04 -2.77558E+04  1.02926E+04 -2.05103E+04 -1.04355E+04 -4.43915E+03 -1.39675E+04
  1.74630E+03 -3.18086E+03 -5.01257E+03  6.64118E+03 -1.54848E+04  5.04288E+03 -1.54139E+04 -6.10922E+03
 -9.47557E+03 -1.82327E+04  4.28532E+03 -2.15005E+04  1.47939E+04 -1.56663E+04  1.72397E+04 -1.79640E+03
  1.04404E+04  1.23694E+04 -8.80781E+02  1.80784E+04 -1.18754E+04  1.00692E+04 -1.77932E+04 -4.04399E+03
 -1.35798E+04 -1.63967E+04 -2.04480E+03 -2.22822E+04  9.75496E+03 -1.82660E+04  1.75300E+04 -8.73053E+03
  1.71578E+04  4.06257E+02  1.19484E+04  4.61100E+03  6.10893E+03  9.49994E+02  8.68864E+03 -1.36861E+03
  1.59245E+04  3.25260E+03  1.80781E+04  1.43492E+04  1.11926E+04  2.79513E+04 -2.71547E+03  3.12704E+04
 -1.81774E+04  2.46730E+04 -2.94826E+04  1.24397E+04 -3.03160E+04 -1.90317E+03 -2.52367E+04 -1.77695E+04
 -1.12144E+04 -2.49549E+04  8.77935E+03 -2.28686E+04  2.03436E+04 -1.17606E+04  1.82099E+04  4.43335E+03
  6.95834E+03  1.35446E+04 -7.83119E+03  1.25677E+04 -1.53658E+04  2.48623E+03 -1.11906E+04 -9.33911E+03
  1.96933E+01 -1.41262E+04  7.80680E+03 -1.06043E+04  9.34855E+03 -1.72654E+03  2.22149E+03  6.02246E+03
 -6.79760E+03  1.77962E+03 -4.41063E+03 -5.49010E+03  1.11659E+02 -1.22609E+04  8.98924E+03 -1.22608E+04
  1.46162E+04 -6.69301E+03  1.56187E+04  2.73261E+03  1.36341E+04  1.22902E+04  6.08891E+03  1.78369E+04
 -2.92085E+03  1.98056E+04 -1.23774E+04  1.16629E+04 -1.34102E+04  3.54701E+03 -1.02058E+04 -3.23770E+03
 -5.28064E+03 -3.99655E+03 -2.05507E+02  1.15217E+03 -2.22927E+03  2.07811E+03 -5.07318E+03  3.60778E+03
 -9.32008E+03 -5.80797E+02 -9.50058E+03 -8.20261E+03 -4.41735E+03 -1.34523E+04  4.28829E+03 -1.01052E+04
  8.58755E+03 -3.97553E+03  6.39810E+03  3.02270E+03  2.09326E+02  3.48836E+03 -4.13633E+03 -2.19263E+02
 -4.22130E+03 -6.85573E+03 -5.14148E+02 -8.85971E+03  5.33398E+03 -9.27211E+03  1.16001E+04 -5.00568E+03
  1.43587E+04  7.88085E+02  1.04207E+04  7.83000E+03  1.72020E+03  1.05728E+04 -6.63170E+03  9.97688E+03
 -8.48098E+03  2.94166E+03 -4.24177E+03 -1.75830E+03  6.59433E+02 -2.85675E+03  5.80814E+03 -9.18925E+02
  4.82365E+03  4.09757E+03  7.74667E+02  7.86410E+03 -4.73547E+03  7.76334E+03 -1.00495E+04  1.78675E+03
 -5.70705E+03 -4.78412E+03  3.35246E+02 -7.99526E+03  4.64688E+03 -3.95296E+03  4.77020E+03  1.18986E+03
  4.71125E+02  5.19479E+03 -4.50522E+03  6.20305E+03 -6.91617E+03  1.94601E+03 -6.63238E+03 -2.23806E+03
 -3.83118E+03 -7.79112E+03  1.80261E+03 -8.95282E+03  7.85973E+03 -5.64129E+03  8.45502E+03  1.30925E+03
  5.81395E+03  6.75535E+03  2.33317E+02  8.76638E+03 -7.09119E+03  4.84698E+03 -7.17077E+03 -3.53854E+02
 -6.30012E+03 -5.64810E+03 -9.08056E+02 -6.96451E+03  3.38579E+03 -5.82547E+03  3.15058E+03 -2.78536E+03
  3.24885E+03  7.50394E+02 -1.29935E+02  1.34227E+03  3.32564E+02 -1.34295E+03  7.91009E+02 -2.74507E+03
  5.38631E+03 -1.18435E+03  7.17572E+03  3.38184E+02  6.92394E+03  4.31719E+03  6.48568E+03  1.00678E+04
 -2.16175E+03  1.05901E+04 -1.00846E+04  8.06122E+03 -1.25438E+04  1.83000E+03 -1.05158E+04 -4.07439E+03
 -5.53513E+03 -7.84924E+03 -6.05581E+02 -6.70522E+03  2.23317E+03 -2.72173E+03  2.66847E+03 -2.52201E+03
  1.02342E+03 -1.96566E+03  2.44535E+03 -2.87593E+03  4.53690E+03 -1.89486E+03  4.36044E+03 -1.83123E+02
  5.35871E+03  1.35824E+03  1.98579E+03  4.47516E+03 -1.89553E+03  3.88748E+03 -5.41180E+03  3.49450E+03
 -6.94453E+03 -1.85754E+03 -3.12833E+03 -4.46219E+03 -4.89084E+02 -6.12926E+03  3.74875E+03 -6.97387E+03
  6.81456E+03 -4.13385E+03  8.88479E+03  4.79073E+02  6.26343E+03  4.78528E+03  1.09466E+03  7.49899E+03
 -2.66050E+03  6.73941E+03 -4.09900E+03  1.94987E+03 -3.02194E+03 -8.96717E+02 -8.67922E+02 -1.13497E+03
 -9.37864E+02 -2.51022E+02 -1.53958E+03  2.60843E+03 -2.87175E+03  1.01288E+03 -4.32548E+03 -8.57330E+02
 -2.07474E+03 -5.07120E+03  8.99707E+02 -5.56533E+03  3.66355E+03 -5.61313E+03  5.24210E+03 -2.20000E+03
  5.53724E+03  2.89319E+03  2.74144E+03  4.17557E+03 -1.45236E+03  5.11226E+03 -3.49011E+03  3.89220E+03
 -4.82397E+03  9.42229E+02 -3.93778E+03 -3.35520E+03 -2.26349E+02 -4.03924E+03  2.16156E+03 -3.52820E+03
  3.51819E+03 -1.58796E+03  2.33539E+03  7.30217E+02  6.90970E+02  1.92148E+03  3.80345E+02  5.50704E+02
  2.46709E+03  4.95582E+02  1.54244E+03  6.81954E+02  1.63142E+03  2.29773E+03  2.05994E+03  2.25040E+03
 -1.49354E+03  4.08775E+03 -3.55131E+03  4.74151E+03 -4.87795E+03  1.19549E+03 -5.09557E+03 -4.78935E+02
 -2.30219E+03 -4.70666E+03  1.60596E+03 -6.17965E+03  3.05418E+03 -3.41298E+03  3.78350E+03 -1.09945E+03
  3.00512E+03  1.87089E+03  6.27163E+02  3.18252E+03 -1.07329E+03  1.87039E+03 -1.40688E+03 -8.79082E+01
 -1.32306E+03 -1.87002E+03  1.50192E+03 -2.12794E+03  1.61676E+03 -1.02368E+03  1.66947E+03  7.01733E+02
  6.93282E+02  1.64503E+02  7.61125E+02 -2.99744E+01  1.58227E+02  7.95299E+02  2.15174E+03 -3.81543E+02
  4.12577E+02 -8.99966E+02  2.88922E+03  8.55025E+02  6.01106E+02  3.05698E+03 -7.14070E+02  3.87542E+03
 -2.39728E+03  1.93823E+03 -3.11139E+03  2.13549E+02 -3.09545E+03 -7.31010E+02 -3.48483E+02 -1.48695E+03
  6.56723E+02 -1.69925E+03  1.67646E+03 -1.09356E+03  8.51141E+02  1.49274E+03 -9.00407E+02  1.27721E+03
 -1.78632E+03  1.29696E+03 -2.31740E+03 -1.66963E+03 -6.91316E+02 -2.86968E+03  2.10431E+02 -2.39379E+03
  8.32128E+02 -6.55092E+02  1.36087E+03  5.98395E+02  1.18891E+03  4.07060E+02  6.62353E+02  1.00641E+03
 -8.89002E+02 -1.37814E+02 -1.34905E+03 -2.28505E+01  1.04031E+03 -1.76836E+03  2.01289E+03 -9.77260E+02
  2.33411E+03  2.62291E+02  3.43986E+03  1.01092E+03  1.48181E+03  2.01420E+03 -6.97742E+02  2.13399E+03
 -1.83484E+03 -4.61605E+01 -1.92543E+03 -8.25556E+01 -1.56117E+03 -1.52314E+03 -1.61531E+02 -1.45075E+03
  2.04605E+03 -8.32966E+02  1.03987E+03  8.43681E+02 -5.37214E+01  1.63759E+03  5.94877E+02  1.61742E+03
 -3.51807E+02  1.09684E+03 -5.77890E+02  1.60354E+02 -2.05669E+02  3.91165E+02 -1.11952E+03  9.09718E+02
 -5.12714E+02  1.18679E+03 -1.98845E+03  5.94315E+02 -2.32688E+03 -2.19703E+02 -2.81173E+03 -1.37803E+03
 -1.75869E+03 -2.72942E+03  5.34098E+02 -3.54394E+03  1.53090E+03 -2.67313E+03  3.48478E+03 -1.16019E+03
  3.42543E+03  2.29590E+02  1.69734E+03  2.62709E+03 -4.92456E+02  1.54923E+03 -3.26150E+02  1.51161E+03
 -1.38852E+03  1.24407E+03 -3.54739E+02 -6.26553E+02 -2.53788E+02  6.23942E+01 -6.41024E+02  1.51626E+02
 -1.30476E+03 -2.14314E+02 -9.90454E+02 -7.14343E+01 -3.49478E+02 -4.02743E+02 -2.67205E+02 -1.09809E+03
  1.23445E+03 -3.78710E+02  5.32964E+02 -3.89948E+02  1.65311E+03  9.33618E+02  8.60195E+01  2.19333E+03
 -1.35792E+03  2.92931E+03 -1.99884E+03  1.13329E+03 -2.45495E+03  5.88854E+01 -1.20632E+03 -1.48675E+03
 -8.42093E+02 -2.12970E+03  2.81625E+02 -1.55260E+03  1.33016E+03 -1.97587E+02  1.39383E+03 -1.64884E+02
  7.07873E+02  2.20382E+02  7.76601E+01  4.36062E+02 -5.72361E+02  3.05064E+02  7.31141E+01 -5.74964E+01
  4.78938E+02  1.54049E+02  6.91364E+02  3.64871E+01  1.67466E+02  5.97116E+02  2.87818E+02  5.88812E+02
 -7.14307E+02  1.11007E+03 -1.35613E+03  1.20761E+02 -1.03121E+03 -2.42047E+02 -3.58404E+02 -1.90843E+03
  8.71466E+02 -1.19561E+03  6.73188E+02  3.57084E+02  6.96578E+02 -8.57356E+02  7.23706E+02  1.02520E+03
  2.17965E+02  1.09690E+03 -6.47124E+01  7.53410E+02 -6.17780E+02  7.64352E+02 -6.14612E+02 -7.73624E+01
 -1.75514E+02 -4.00023E+02  3.48643E+01  9.39623E+01 -8.71215E+02 -4.18817E+02 -1.33946E+03 -2.57693E+02
 -1.17950E+03 -1.79840E+02 -8.99121E+02 -1.33169E+03  7.75391E+02 -5.75391E+02  9.48919E+02 -9.36200E+02
  4.50888E+02 -1.19206E+02  1.21826E+02  1.19117E+02 -7.87937E+02  1.10275E+03 -1.09785E+03  8.77903E+02
