 $NMID ID='MM_0lb_SNR400_16hz_g50_80.RAW', FMTDAT='(8E13.5)'
 TRAMP=1., VOLUME=1. $END
  3.09815E+05  3.29960E+02  3.37485E+05  2.50637E+05  8.42414E+04  3.38118E+05 -1.32045E+05  2.50987E+05
 -1.90045E+05  8.25306E+04 -1.11357E+05 -3.24258E+04  1.17324E+03 -4.99269E+04  5.34324E+04 -4.10286E+01
  3.52786E+04  5.28248E+04 -1.72504E+04  7.55056E+04 -6.00935E+04  6.27997E+04 -8.32981E+04  3.13825E+04
 -8.02401E+04 -1.11147E+04 -5.68767E+04 -5.10461E+04 -1.50819E+04 -6.96197E+04  2.71896E+04 -4.55519E+04
  3.93769E+04  4.45384E+03  1.61651E+04  4.76640E+04 -3.46869E+04  4.67546E+04 -6.62119E+04 -1.25045E+02
 -5.30683E+04 -5.63045E+04 -6.75214E+03 -7.64937E+04  3.39166E+04 -5.34183E+04  4.69475E+04 -1.71170E+04
  4.31033E+04  1.04936E+04  3.18648E+04  2.57041E+04  1.59274E+04  2.92310E+04 -5.21837E+03  2.72659E+04
 -2.17815E+04  1.21618E+04 -1.88101E+04 -4.64616E+03  4.59275E+03 -6.55032E+03  2.18384E+04  1.24384E+04
  7.32317E+03  3.48980E+04 -3.15105E+04  3.44496E+04 -6.20406E+04  1.68083E+03 -5.62040E+04 -4.23402E+04
 -1.20238E+04 -6.21837E+04  3.88229E+04 -4.50989E+04  5.68641E+04 -2.42749E+03  3.36392E+04  3.10650E+04
 -6.79421E+03  3.52076E+04 -2.90989E+04  1.57181E+04 -2.92400E+04 -4.74335E+03 -1.58013E+04 -1.09845E+04
 -8.05910E+03 -1.19972E+04 -8.49763E+02 -1.78502E+04  7.00918E+03 -2.28827E+04  1.55424E+04 -1.36183E+04
  1.15757E+04  4.78597E+03 -8.07868E+03  1.26236E+04 -2.05614E+04 -3.52353E+03 -8.28781E+03 -3.21118E+04
  2.18799E+04 -4.27204E+04  4.64854E+04 -1.90914E+04  4.38847E+04  1.91355E+04  1.49672E+04  4.27316E+04
 -1.57260E+04  3.26396E+04 -2.46531E+04  1.50462E+03 -8.80169E+03 -2.73717E+04  2.05572E+04 -3.29220E+04
  4.00051E+04 -8.04996E+03  3.41149E+04  2.30905E+04  1.66781E+04  4.50490E+04 -8.30963E+03  4.85791E+04
 -3.04649E+04  3.16038E+04 -4.02549E+04  9.11439E+03 -4.08926E+04 -1.57156E+04 -2.25808E+04 -3.65488E+04
  7.34626E+03 -3.66578E+04  3.01671E+04 -1.41116E+04  2.85045E+04  1.09087E+04  3.36136E+03  1.86837E+04
 -1.28577E+04  8.68122E+03 -1.05839E+04 -7.46795E+03  6.33463E+03 -1.03228E+04  1.74632E+04  6.30537E+03
  1.25582E+04  2.21297E+04 -6.26731E+03  2.43286E+04 -2.20210E+04  9.90075E+03 -2.68320E+04 -6.05928E+03
 -1.91806E+04 -1.71542E+04 -7.16398E+03 -1.87266E+04  3.98780E+03 -1.77322E+04  1.42739E+04 -1.65098E+04
  2.45387E+04 -1.23265E+04  3.07877E+04  1.49464E+03  2.27067E+04  1.89861E+04  4.40620E+03  3.46878E+04
 -1.72195E+04  2.92578E+04 -2.75296E+04  1.01054E+04 -2.03310E+04 -9.90362E+03 -3.39081E+03 -1.37082E+04
  1.85599E+03 -3.23349E+03 -4.10753E+03  6.14327E+03 -1.52135E+04  5.69587E+03 -1.53227E+04 -5.75422E+03
 -8.67013E+03 -1.74564E+04  4.34682E+03 -2.11062E+04  1.43601E+04 -1.56650E+04  1.65031E+04 -1.40101E+03
  1.02911E+04  1.27689E+04 -1.01845E+03  1.71310E+04 -1.20171E+04  9.89868E+03 -1.78814E+04 -3.48755E+03
 -1.30561E+04 -1.55110E+04 -1.39080E+03 -2.14036E+04  9.76094E+03 -1.76244E+04  1.82763E+04 -8.47728E+03
  1.68288E+04  5.67098E+02  1.19708E+04  4.31261E+03  5.89056E+03  1.08422E+03  8.60055E+03 -1.40953E+03
  1.56842E+04  2.87145E+03  1.72057E+04  1.43372E+04  1.09406E+04  2.83833E+04 -2.91252E+03  3.13351E+04
 -1.83824E+04  2.49282E+04 -2.88091E+04  1.19962E+04 -2.98363E+04 -2.11816E+03 -2.42561E+04 -1.69168E+04
 -1.10841E+04 -2.43360E+04  8.28949E+03 -2.21741E+04  1.93197E+04 -1.14803E+04  1.68571E+04  4.51215E+03
  6.99533E+03  1.30531E+04 -8.05825E+03  1.21251E+04 -1.46098E+04  2.47206E+03 -1.15508E+04 -9.15837E+03
  4.95243E+01 -1.35187E+04  6.86379E+03 -1.06150E+04  9.63651E+03 -1.02102E+03  1.63012E+03  5.98640E+03
 -6.70315E+03  2.36864E+03 -4.93601E+03 -4.06410E+03 -4.55206E+02 -1.19234E+04  9.16344E+03 -1.26392E+04
  1.51187E+04 -6.16577E+03  1.53317E+04  2.90222E+03  1.29706E+04  1.21747E+04  6.47264E+03  1.77961E+04
 -2.69948E+03  1.88322E+04 -1.15278E+04  1.19676E+04 -1.36600E+04  3.00350E+03 -1.02005E+04 -2.90836E+03
 -5.00669E+03 -3.93577E+03 -1.14343E+03  1.01974E+03 -2.64174E+03  2.34563E+03 -4.16080E+03  5.07006E+03
 -8.91800E+03 -2.17523E+02 -9.98074E+03 -8.59329E+03 -3.72019E+03 -1.34814E+04  4.02703E+03 -1.00417E+04
  8.68212E+03 -4.13253E+03  6.68772E+03  2.26152E+03  6.47754E+02  3.93241E+03 -4.46761E+03 -2.57466E+02
 -4.47995E+03 -7.00545E+03 -1.27257E+03 -8.60858E+03  4.94813E+03 -1.04111E+04  1.24514E+04 -5.35071E+03
  1.39976E+04  7.15699E+02  9.98906E+03  7.79595E+03  2.19626E+03  1.11660E+04 -6.14976E+03  1.01436E+04
 -8.64582E+03  3.28556E+03 -4.22277E+03 -1.63216E+03  1.19533E+03 -2.82332E+03  5.21783E+03 -1.42802E+03
  4.63258E+03  3.99384E+03  6.62073E+02  7.78044E+03 -5.36524E+03  7.36856E+03 -9.70616E+03  1.65139E+03
 -5.74908E+03 -4.33288E+03  5.00175E+02 -8.09752E+03  4.84247E+03 -4.30404E+03  5.35590E+03  1.61421E+03
  8.83423E+02  4.19073E+03 -5.28748E+03  6.27716E+03 -6.54342E+03  3.20843E+03 -6.34545E+03 -2.13583E+03
 -3.53886E+03 -7.70581E+03  2.69988E+03 -8.99378E+03  7.90807E+03 -5.43180E+03  8.66313E+03  1.91748E+03
  5.73869E+03  6.47486E+03  1.14214E+02  8.95559E+03 -6.07077E+03  4.61607E+03 -6.16387E+03 -5.88101E+02
 -6.38332E+03 -6.15530E+03 -1.40799E+03 -6.19223E+03  3.14071E+03 -5.87228E+03  3.71344E+03 -2.95432E+03
  2.78766E+03  6.25062E+02 -2.11536E+01  1.25193E+03  1.89209E+02 -6.06747E+02  7.16562E+02 -3.00948E+03
  5.00539E+03 -1.49914E+03  7.71213E+03  9.25859E+02  7.80529E+03  4.56126E+03  5.60048E+03  9.65698E+03
 -2.01123E+03  1.14980E+04 -9.98756E+03  8.78161E+03 -1.29695E+04  1.50393E+03 -1.00734E+04 -3.83927E+03
 -5.29415E+03 -8.71757E+03 -6.06958E+02 -6.74372E+03  2.38946E+03 -3.57699E+03  2.70767E+03 -2.75746E+03
  1.95066E+03 -1.75021E+03  2.56225E+03 -2.17640E+03  3.46488E+03 -2.08143E+03  4.76066E+03 -3.90425E+02
  5.94643E+03  1.98747E+03  2.06075E+03  4.57689E+03 -1.84254E+03  4.68038E+03 -5.32608E+03  4.04128E+03
 -6.69131E+03 -1.56591E+03 -3.28835E+03 -4.48755E+03 -2.77387E+02 -7.20403E+03  4.20440E+03 -7.75238E+03
  7.32299E+03 -4.43603E+03  9.02982E+03  9.83214E+02  7.31943E+03  5.89578E+03  1.15563E+03  8.12443E+03
 -2.65026E+03  7.09671E+03 -4.39163E+03  1.63393E+03 -3.35441E+03 -7.59973E+02 -8.85417E+02 -1.21896E+03
 -1.06435E+03  4.58684E+02 -1.27283E+03  1.76529E+03 -2.75012E+03  2.05329E+03 -5.26166E+03 -6.39747E+02
 -2.61653E+03 -4.80616E+03  3.75498E+02 -5.87338E+03  4.11476E+03 -5.56096E+03  5.56733E+03 -1.18118E+03
  5.56361E+03  3.00016E+03  2.50491E+03  4.75394E+03 -3.47953E+02  5.57908E+03 -3.71012E+03  4.19666E+03
 -5.86127E+03  9.43049E+02 -4.29987E+03 -3.40803E+03  6.21896E+01 -4.46117E+03  3.02283E+03 -3.44501E+03
  3.61999E+03 -1.73675E+03  2.88974E+03  9.94724E+02  6.32639E+02  1.77879E+03  5.60860E+02  1.06611E+03
  1.68579E+03  7.55986E+02  1.27230E+03  9.81043E+02  1.96891E+03  3.00346E+03  1.42527E+03  3.07452E+03
 -1.41048E+03  4.42297E+03 -3.56864E+03  5.45693E+03 -4.99365E+03  1.44384E+03 -5.76549E+03 -1.40712E+03
 -2.69328E+03 -5.94731E+03  1.18541E+03 -6.70619E+03  3.61898E+03 -3.92785E+03  4.38691E+03 -1.17683E+03
  4.00093E+03  2.72419E+03  1.08502E+03  3.15274E+03 -1.22319E+03  2.40827E+03 -1.63386E+03 -7.08327E+00
 -1.24484E+03 -2.04176E+03  1.28487E+03 -2.31807E+03  1.71884E+03 -1.54723E+03  2.51499E+03  5.96171E+02
  1.30262E+03  4.10273E+02  9.07095E+01  9.64346E+01 -9.79160E+02  3.88012E+02  1.51710E+03 -4.07567E+02
  7.80468E+02 -5.11351E+02  1.62893E+03  8.63190E+02  1.18222E+03  3.49396E+03 -1.09581E+03  3.76473E+03
 -3.34266E+03  1.37524E+03 -3.20521E+03  7.27229E+02 -3.73886E+03 -1.16842E+03 -4.42363E+02 -1.77111E+03
  3.04948E+02 -2.15437E+03  7.66290E+02 -1.22575E+03  1.24782E+03  2.08650E+03 -9.31336E+02  9.85743E+02
 -2.25384E+03  1.79007E+03 -2.20811E+03 -1.54481E+03 -1.30330E+03 -3.09376E+03 -7.04695E+02 -1.97107E+03
  1.62661E+03 -1.52515E+03  1.85379E+03  2.40603E+02  2.06383E+03  3.57292E+02  5.25571E+02  1.35902E+03
 -9.89245E+02  1.85351E+01 -1.86147E+03 -1.54897E+03  7.94208E+02 -2.01629E+03  3.01116E+03 -1.75703E+03
  2.84974E+03  3.54172E+02  4.14049E+03  1.49669E+03  1.72081E+03  2.01053E+03 -6.11101E+02  3.14622E+03
 -2.66524E+03  5.92465E+02 -2.51274E+03 -4.10887E+02 -1.38555E+03 -2.44178E+03  1.01924E+03 -1.51170E+03
  2.19676E+03 -7.88976E+02  1.45471E+03  1.44085E+03  3.36051E+02  2.35883E+03 -4.06845E+02  1.63240E+03
 -5.15158E+02  1.30009E+03 -1.14835E+03  4.08869E+02 -3.15586E+02  7.04376E+02 -5.49497E+02  1.07811E+03
 -5.37177E+02  1.25528E+03 -2.57898E+03  8.20364E+02 -3.19623E+03  3.39217E+02 -3.91537E+03 -1.47618E+03
 -1.24168E+03 -3.55134E+03  1.24680E+03 -4.35878E+03  2.32437E+03 -3.10185E+03  3.75286E+03 -1.00410E+03
  3.50721E+03  5.57874E+02  2.15017E+03  2.60578E+03  3.52663E+02  2.38767E+03 -8.69066E+02  1.83266E+03
 -2.11867E+03  5.28779E+02 -9.01619E+02 -2.67746E+02 -1.00214E+03  5.43841E+02 -1.15525E+03  1.46568E+02
 -1.58043E+03 -1.82965E+02 -1.22873E+03 -9.70245E+01  3.59213E+01 -9.41705E+02 -3.97559E+02 -9.50732E+02
  1.32642E+03 -8.90848E+02  7.76479E+02  1.64417E+02  1.79860E+03  1.35986E+03 -1.26979E+02  2.71270E+03
 -1.06662E+03  3.11097E+03 -2.94062E+03  1.69654E+03 -3.34599E+03 -3.10404E+02 -2.24779E+03 -1.70608E+03
 -1.22578E+03 -2.32596E+03  1.08478E+03 -2.38329E+03  1.40115E+03 -1.39300E+03  1.15437E+03 -1.21970E+02
  1.03705E+03  6.43407E+02 -3.92833E+02  2.92808E+02 -1.39367E+02 -1.72522E+02  1.45609E+02 -3.30213E+02
  8.86680E+02  1.44630E+02  4.46555E+02  6.97691E+02  8.65640E+02  1.32571E+03  2.87331E+02  9.67702E+02
 -3.01702E+02  1.34408E+03 -1.58773E+03 -7.56332E+01 -1.59659E+03 -1.04913E+03  3.38251E+01 -2.27643E+03
  6.20296E+02 -1.47734E+03  1.68480E+03  1.29702E+02  1.34759E+03 -1.32963E+02  5.49227E+02  1.13371E+03
  6.61301E+02  8.15654E+02  4.39772E+01  1.76197E+03 -4.40507E+02  3.62924E+02 -1.06722E+03 -3.17704E+02
 -3.68321E+01  1.09161E+02 -1.60754E+02 -1.26949E+02 -7.96423E+02  1.31470E+02 -1.91895E+03 -1.53286E+02
 -1.93226E+03 -5.33728E+02 -7.80936E+02 -1.41412E+03  7.73750E+02 -2.05636E+03  1.38579E+03 -6.11556E+02
  1.60056E+03  1.79088E+02 -1.84158E+01  7.82195E+02  2.60273E+02  1.50478E+03 -1.00499E+03  1.85304E+03
