 $NMID ID='MM_0lb_SNR400_19hz_g50_24.RAW', FMTDAT='(8E13.5)'
 TRAMP=1., VOLUME=1. $END
  3.09457E+05  2.16515E+02  3.37442E+05  2.50873E+05  8.42714E+04  3.37566E+05 -1.31934E+05  2.50181E+05
 -1.90289E+05  8.24700E+04 -1.10872E+05 -3.31933E+04  1.60904E+03 -5.02014E+04  5.40739E+04  3.60385E+01
  3.53914E+04  5.27954E+04 -1.69524E+04  7.46945E+04 -6.03685E+04  6.31627E+04 -8.32435E+04  3.13429E+04
 -7.96956E+04 -1.14401E+04 -5.64100E+04 -4.99809E+04 -1.49968E+04 -6.83352E+04  2.66732E+04 -4.47877E+04
  3.91934E+04  4.24613E+03  1.55660E+04  4.63946E+04 -3.38372E+04  4.61133E+04 -6.53985E+04 -8.87724E+02
 -5.24598E+04 -5.56980E+04 -6.15912E+03 -7.50248E+04  3.27967E+04 -5.32401E+04  4.62019E+04 -1.61736E+04
  4.15337E+04  1.11332E+04  3.05220E+04  2.44224E+04  1.53796E+04  2.84118E+04 -5.01082E+03  2.69120E+04
 -2.19174E+04  1.29184E+04 -1.93915E+04 -4.28674E+03  4.56047E+03 -7.05785E+03  2.13013E+04  1.12676E+04
  7.34396E+03  3.31396E+04 -3.06386E+04  3.35245E+04 -6.19095E+04  2.28484E+03 -5.55514E+04 -4.18562E+04
 -1.21837E+04 -6.07052E+04  3.80154E+04 -4.32525E+04  5.49537E+04 -1.87182E+03  3.19752E+04  3.08045E+04
 -7.03296E+03  3.27938E+04 -2.85064E+04  1.32174E+04 -2.74103E+04 -5.11141E+03 -1.46636E+04 -9.84075E+03
 -7.78596E+03 -1.18580E+04 -1.22758E+03 -1.69168E+04  6.78839E+03 -2.26399E+04  1.52050E+04 -1.41974E+04
  1.18723E+04  4.00287E+03 -6.24856E+03  1.34787E+04 -1.91393E+04 -2.77015E+03 -8.07816E+03 -3.06032E+04
  2.12506E+04 -4.00768E+04  4.46004E+04 -1.87811E+04  4.20423E+04  1.85360E+04  1.45925E+04  4.17876E+04
 -1.55132E+04  3.08949E+04 -2.36512E+04  1.43358E+03 -9.01727E+03 -2.62421E+04  2.05598E+04 -3.08722E+04
  3.81939E+04 -7.39905E+03  3.15790E+04  2.27865E+04  1.55655E+04  4.22724E+04 -7.93611E+03  4.58143E+04
 -2.87612E+04  3.05965E+04 -3.72790E+04  8.29215E+03 -3.80005E+04 -1.49338E+04 -2.16693E+04 -3.47549E+04
  7.02688E+03 -3.43349E+04  2.91370E+04 -1.25407E+04  2.64355E+04  1.07229E+04  3.27364E+03  1.78573E+04
 -1.34527E+04  7.02293E+03 -9.71393E+03 -7.27516E+03  5.99061E+03 -1.00076E+04  1.72364E+04  5.80191E+03
  1.26522E+04  2.17034E+04 -6.89554E+03  2.35071E+04 -2.14343E+04  9.24233E+03 -2.50874E+04 -6.17091E+03
 -1.65501E+04 -1.63874E+04 -5.82465E+03 -1.69673E+04  3.62851E+03 -1.42397E+04  1.30246E+04 -1.46344E+04
  2.12988E+04 -1.07180E+04  2.83410E+04  1.53390E+03  2.06918E+04  1.59076E+04  3.73540E+03  3.21251E+04
 -1.60031E+04  2.72373E+04 -2.57324E+04  9.51182E+03 -1.90676E+04 -1.07015E+04 -4.04567E+03 -1.40940E+04
  2.84529E+03 -4.01424E+03 -2.51577E+03  5.39432E+03 -1.32329E+04  5.23200E+03 -1.31725E+04 -5.10174E+03
 -8.82672E+03 -1.54953E+04  4.58330E+03 -1.93423E+04  1.22785E+04 -1.39340E+04  1.47439E+04 -1.47403E+03
  8.48502E+03  1.06943E+04 -6.74524E+02  1.56074E+04 -1.02199E+04  8.61913E+03 -1.52187E+04 -2.98177E+03
 -1.15862E+04 -1.40075E+04 -1.51833E+03 -1.94369E+04  8.80216E+03 -1.53887E+04  1.60889E+04 -6.64913E+03
  1.45692E+04  3.12283E+02  1.03839E+04  3.21042E+03  5.16676E+03  5.95114E+02  7.26462E+03 -1.30946E+03
  1.40365E+04  3.04941E+03  1.48536E+04  1.27741E+04  9.08664E+03  2.46461E+04 -2.41580E+03  2.69999E+04
 -1.55981E+04  2.01945E+04 -2.40385E+04  9.99296E+03 -2.51034E+04 -1.79126E+03 -2.09091E+04 -1.39264E+04
 -9.83564E+03 -2.05148E+04  6.93734E+03 -1.97558E+04  1.62630E+04 -1.09817E+04  1.55144E+04  3.48296E+03
  6.63208E+03  1.14803E+04 -7.30995E+03  1.02308E+04 -1.31766E+04  2.87720E+03 -1.01249E+04 -7.99134E+03
 -4.72733E+02 -1.27100E+04  5.71417E+03 -9.31375E+03  7.62850E+03 -1.11654E+03  1.17043E+03  4.99695E+03
 -6.19032E+03  1.18546E+03 -3.57953E+03 -4.14645E+03  7.53374E+02 -9.93946E+03  8.97612E+03 -9.89123E+03
  1.18228E+04 -4.34790E+03  1.19621E+04  2.88154E+03  1.02681E+04  9.39895E+03  5.03954E+03  1.37849E+04
 -1.69285E+03  1.58779E+04 -9.55290E+03  9.99029E+03 -1.12205E+04  2.90478E+03 -7.88211E+03 -1.97451E+03
 -3.61897E+03 -3.61893E+03 -1.05280E+03  9.46005E+02 -2.27521E+03  1.85374E+03 -3.69985E+03  4.06186E+03
 -7.74666E+03 -9.05363E+01 -9.00517E+03 -7.17285E+03 -2.93849E+03 -1.16996E+04  3.81576E+03 -8.55544E+03
  6.84801E+03 -3.96853E+03  5.32693E+03  1.60702E+03  4.47086E+02  3.63226E+03 -3.71448E+03 -5.44300E+02
 -3.15241E+03 -4.95245E+03 -1.86306E+02 -7.60364E+03  4.32226E+03 -7.50012E+03  9.27166E+03 -3.63479E+03
  1.14822E+04  4.03194E+02  8.61195E+03  5.86830E+03  1.48046E+03  8.28502E+03 -4.80291E+03  8.68450E+03
 -7.15916E+03  2.14039E+03 -3.86936E+03 -1.29742E+03  8.88484E+02 -1.76687E+03  4.93025E+03 -7.90533E+02
  4.05330E+03  3.00188E+03  1.31270E+03  6.34211E+03 -4.12273E+03  6.11323E+03 -7.96615E+03  2.36045E+03
 -5.18032E+03 -3.66561E+03  7.04543E+02 -6.73676E+03  3.57815E+03 -3.18735E+03  3.63619E+03  1.44440E+03
  1.79748E+02  3.01892E+03 -3.82818E+03  4.62508E+03 -4.64412E+03  2.77045E+03 -3.98787E+03 -1.30415E+03
 -2.61668E+03 -5.36898E+03  1.04695E+03 -6.77350E+03  6.15795E+03 -4.08194E+03  6.24736E+03  1.11103E+03
  4.08240E+03  5.10598E+03  3.52019E+02  7.25376E+03 -4.78878E+03  4.04329E+03 -5.00118E+03 -2.37840E+02
 -5.72363E+03 -4.57587E+03 -1.54718E+03 -4.99079E+03  2.52998E+03 -4.64522E+03  2.68560E+03 -2.88801E+03
  2.48777E+03  3.17107E+02  1.54953E+02  8.80919E+02  5.84171E+02 -1.37096E+02  2.25774E+02 -1.39715E+03
  3.51030E+03 -8.08386E+02  5.22948E+03  8.06303E+02  5.53883E+03  2.61325E+03  5.38439E+03  7.19535E+03
 -9.14846E+02  8.02495E+03 -7.17168E+03  6.47914E+03 -8.91469E+03  1.39524E+03 -7.21272E+03 -2.41563E+03
 -4.26041E+03 -6.39615E+03 -7.20324E+01 -4.58682E+03  1.89688E+03 -1.86699E+03  1.61841E+03 -2.24387E+03
  1.38771E+03 -1.36428E+03  2.14419E+03 -2.37659E+03  3.07853E+03 -1.00119E+03  3.67204E+03  3.56807E+02
  4.23743E+03  1.25615E+03  8.67353E+02  2.99638E+03 -8.47697E+02  3.09728E+03 -3.76616E+03  2.09177E+03
 -4.69252E+03 -7.78015E+02 -1.70521E+03 -2.89809E+03  6.88195E+02 -4.45302E+03  3.01567E+03 -5.19216E+03
  4.55102E+03 -3.71356E+03  5.63159E+03  3.20274E+02  4.99940E+03  3.95784E+03  1.18415E+03  5.53670E+03
 -2.22858E+03  5.53207E+03 -3.17371E+03  1.97323E+03 -1.45263E+03 -9.97167E+02 -2.30399E+02 -4.28251E+02
 -5.61391E+02  1.64903E+02 -8.03959E+02  1.90903E+03 -2.72381E+03  8.73985E+02 -4.10150E+03 -4.28295E+02
 -1.90850E+03 -3.81966E+03  1.79011E+02 -4.20887E+03  2.26661E+03 -5.08247E+03  3.61877E+03 -8.20992E+02
  3.69338E+03  2.82342E+03  1.82582E+03  3.16738E+03 -1.05373E+03  3.81660E+03 -2.69291E+03  2.27887E+03
 -3.66063E+03  6.57823E+02 -3.28788E+03 -2.24175E+03 -1.19158E+02 -3.73709E+03  1.10572E+03 -2.03580E+03
  2.63108E+03 -8.30918E+02  2.08388E+03 -2.79438E+02  8.40664E+01  1.96558E+03  5.54954E+02  4.81274E+02
  1.66581E+03  6.18770E+01  1.11374E+03  7.01110E+02  8.31351E+02  1.69113E+03  1.25951E+03  1.45420E+03
 -1.30952E+03  2.44900E+03 -2.06501E+03  4.19480E+03 -2.61765E+03  1.54610E+03 -3.90228E+03 -3.46234E+02
 -2.21070E+03 -3.32804E+03  5.26661E+02 -4.44684E+03  1.94137E+03 -1.96589E+03  2.33119E+03 -1.34827E+03
  2.53012E+03  1.48491E+03  3.72124E+02  1.96323E+03 -1.64054E+02  7.95840E+02 -1.11622E+03 -5.57980E+02
 -3.99083E+02 -1.54922E+03  1.19134E+03 -1.40169E+03  1.04887E+03 -5.62425E+02  8.07850E+02  4.55326E+02
  6.64580E+02  3.68090E+02  8.52591E+02 -2.06602E+02 -8.18584E+02  8.48667E+02  1.55052E+03 -2.87717E+02
  3.26314E+02  5.97268E+01  1.61129E+03  4.38204E+02  8.66389E+01  2.25256E+03 -3.95287E+01  2.53472E+03
 -1.08254E+03  3.31900E+02 -1.74989E+03  7.34669E+02 -1.81848E+03 -3.16024E+02 -1.81900E+02 -6.97471E+02
  5.38556E+02 -6.43177E+02  8.60588E+02 -3.18966E+02  3.22047E+02  1.19090E+03 -6.27474E+02  1.07911E+03
 -9.48658E+02  9.51770E+02 -1.17336E+03 -1.58395E+03 -7.51802E+02 -2.22392E+03 -3.00737E+02 -1.93224E+03
  3.95195E+02 -8.47861E+01  3.45888E+02  6.97903E+01  1.23173E+03 -9.15996E+01  9.55805E+02  6.42673E+02
 -7.91845E+02 -9.49646E+01 -8.75292E+02 -3.71240E+01  5.24666E+02 -4.51904E+02  1.22353E+03 -7.16265E+02
  1.17228E+03  1.44494E+02  2.81797E+03  5.75107E+02  4.46474E+02  1.10339E+03 -1.05759E+02  1.24756E+03
 -1.82218E+03  1.01260E+02 -1.22200E+03 -2.61878E+02 -4.72984E+02 -9.64235E+02 -3.57613E+02 -5.20587E+01
  1.77695E+03 -5.43856E+02  4.44320E+02  6.27184E+02 -1.23575E+02  1.37229E+03  6.43035E+02  1.11126E+03
 -4.20038E+02  1.34187E+03 -3.78945E+02  5.36077E+01  1.74782E+02  1.24865E+02 -1.09681E+03  5.55086E+02
 -4.93680E+02  1.61355E+03 -1.36518E+03  5.82514E+02 -1.22181E+03  6.05539E+01 -2.20112E+03 -1.08437E+03
 -9.55528E+02 -1.81466E+03 -1.49838E+01 -2.12467E+03  1.24183E+03 -2.17359E+03  3.00178E+03 -1.04640E+03
  1.51928E+03 -2.86786E+02  7.30338E+02  1.51505E+03 -8.14286E+02  1.42264E+03 -1.45574E+03  6.58797E+02
 -9.31268E+02  8.10140E+02 -2.60126E+02 -2.41970E+02 -3.39833E+02  4.19614E+02 -2.96996E+02 -4.56641E+02
 -1.58726E+03  1.88836E+02 -8.80593E+02 -4.29885E+02 -1.75172E+01  1.37395E+02 -2.86964E+02 -9.31089E+02
  1.06655E+03 -1.08283E+03  7.26983E+02  4.91705E+01  8.68588E+02  8.79613E+02 -2.60099E+02  7.86720E+02
 -7.55002E+02  2.04203E+03 -1.64115E+03  1.09087E+03 -2.01925E+03 -1.39472E+02 -1.15985E+03 -5.06466E+02
 -1.28638E+03 -1.33459E+03  3.75083E+02 -7.72050E+02  8.26302E+02 -7.38869E+02  7.72510E+02  1.54102E+02
  9.53265E+02  9.63328E+02  3.51249E+02  1.99025E+02 -6.93655E+02 -3.41469E+01  1.79903E+02  1.74929E+02
  4.42065E+02  2.60977E+02  4.11094E+01  7.28468E+02 -1.08768E+02  2.08042E+02  2.98713E+02  2.39081E+02
 -3.61100E+02  6.04060E+02 -4.57665E+02 -1.36224E+02 -6.64886E+02 -1.68603E+02  8.02266E+01 -9.03044E+02
  5.22554E+02 -7.52376E+02  4.33246E+02  7.48442E+01  7.66028E+02 -9.96906E+02  1.64833E+02  7.58438E+02
  3.19068E+02  1.88886E+02 -5.30296E+02  7.94034E+02 -6.20494E+02  2.87196E+02 -3.91378E+02 -4.17815E+02
  5.61545E+01  1.54066E+02 -1.86468E+01  2.61454E+02 -1.12740E+03 -2.47380E+02 -6.14372E+02 -6.02793E+02
 -1.33196E+03  5.10578E+02 -5.72238E+02 -1.03480E+03  6.50128E+02 -8.93055E+02  3.40201E+02 -5.25517E+02
  2.27639E+02  2.36567E+02 -5.96909E+02  1.62902E+02 -2.72664E+02  1.05923E+03 -1.12280E+02  3.37375E+02
