 $NMID ID='MM_0lb_SNR400_8hz_g60_63.RAW', FMTDAT='(8E13.5)'
 TRAMP=1., VOLUME=1. $END
  3.09859E+05  7.25844E+02  3.37779E+05  2.50851E+05  8.55214E+04  3.39135E+05 -1.32455E+05  2.51907E+05
 -1.91194E+05  8.41151E+04 -1.12116E+05 -3.26889E+04  3.43769E+02 -5.09441E+04  5.38724E+04 -1.40612E+03
  3.52658E+04  5.32688E+04 -1.73326E+04  7.58161E+04 -6.20927E+04  6.51070E+04 -8.58288E+04  3.36635E+04
 -8.37085E+04 -1.20127E+04 -5.90640E+04 -5.29611E+04 -1.58350E+04 -7.15130E+04  2.76368E+04 -4.73809E+04
  4.03526E+04  3.20041E+03  1.78472E+04  4.87215E+04 -3.50759E+04  4.86170E+04 -6.85551E+04  1.23688E+03
 -5.63958E+04 -5.78398E+04 -7.20861E+03 -7.92315E+04  3.49410E+04 -5.78607E+04  4.99322E+04 -1.84282E+04
  4.62879E+04  1.14428E+04  3.32174E+04  2.58646E+04  1.56341E+04  3.12949E+04 -6.06469E+03  2.77657E+04
 -2.25702E+04  1.21916E+04 -1.78755E+04 -6.10679E+03  8.68305E+03 -7.17855E+03  2.34925E+04  1.40328E+04
  7.34868E+03  3.80121E+04 -3.50525E+04  3.80975E+04 -6.76160E+04  1.33377E+03 -5.94972E+04 -4.48971E+04
 -1.26836E+04 -6.79293E+04  4.17241E+04 -4.88594E+04  6.33234E+04 -1.70679E+03  3.84247E+04  3.53772E+04
 -5.58468E+03  4.06045E+04 -3.26554E+04  1.96429E+04 -3.44923E+04 -2.95659E+03 -2.01269E+04 -1.23253E+04
 -9.97060E+03 -1.56244E+04  4.23635E+02 -2.10266E+04  8.27534E+03 -2.38959E+04  1.54086E+04 -1.23601E+04
  9.88862E+03  6.16130E+03 -1.21647E+04  1.22571E+04 -2.46306E+04 -7.46487E+03 -9.17574E+03 -3.92701E+04
  2.62928E+04 -4.84997E+04  5.33731E+04 -2.11533E+04  4.98823E+04  2.15754E+04  1.84315E+04  4.74935E+04
 -1.72817E+04  3.74724E+04 -2.78947E+04  3.70832E+03 -1.25131E+04 -2.94630E+04  2.19044E+04 -3.83932E+04
  4.59471E+04 -1.20082E+04  4.31086E+04  2.55170E+04  2.32210E+04  5.27908E+04 -8.29537E+03  5.83711E+04
 -3.73742E+04  4.06820E+04 -4.90297E+04  1.19957E+04 -4.95101E+04 -1.90815E+04 -2.76107E+04 -4.40578E+04
  7.76259E+03 -4.43327E+04  3.50071E+04 -1.76974E+04  3.42017E+04  1.08026E+04  6.17372E+03  2.17908E+04
 -1.45135E+04  9.97126E+03 -1.08115E+04 -7.11369E+03  5.68560E+03 -1.16303E+04  1.90133E+04  5.79302E+03
  1.50424E+04  2.34960E+04 -4.53696E+03  2.73960E+04 -2.39047E+04  1.50842E+04 -3.36805E+04 -1.36263E+03
 -2.62208E+04 -1.85031E+04 -1.33428E+04 -2.69788E+04  3.96823E+03 -2.83321E+04  2.13590E+04 -2.47786E+04
  3.40249E+04 -1.49851E+04  3.91992E+04  6.03700E+03  2.83649E+04  2.64560E+04  4.41771E+03  4.27266E+04
 -2.05224E+04  3.48277E+04 -3.15828E+04  1.17719E+04 -2.37180E+04 -9.97286E+03 -5.10188E+03 -1.23220E+04
  2.22112E+02 -7.43254E+01 -8.65222E+03  8.51987E+03 -2.18733E+04  5.19123E+03 -2.17632E+04 -1.07872E+04
 -1.33637E+04 -2.49342E+04  7.22596E+03 -2.92144E+04  2.03304E+04 -2.14692E+04  2.47652E+04 -2.27574E+03
  1.55392E+04  1.77348E+04 -1.33757E+03  2.58110E+04 -1.80399E+04  1.46727E+04 -2.64264E+04 -4.74323E+03
 -1.76509E+04 -2.28231E+04 -2.58373E+03 -2.95089E+04  1.32586E+04 -2.57480E+04  2.52811E+04 -1.21174E+04
  2.27065E+04 -2.46069E+02  1.78330E+04  5.86014E+03  9.19683E+03  1.92329E+03  1.25988E+04 -1.41589E+03
  2.39094E+04  2.95823E+03  2.78943E+04  1.95833E+04  1.97472E+04  4.04599E+04 -2.33255E+03  4.78687E+04
 -2.70779E+04  4.08319E+04 -4.61011E+04  2.12547E+04 -4.86498E+04 -3.76908E+03 -3.90786E+04 -2.94866E+04
 -1.47096E+04 -4.13761E+04  1.40028E+04 -3.57129E+04  3.15674E+04 -1.69177E+04  2.65927E+04  8.81439E+03
  8.15993E+03  2.16945E+04 -1.24572E+04  1.70764E+04 -2.20296E+04  2.15676E+03 -1.64980E+04 -1.40739E+04
 -1.21457E+03 -2.04722E+04  1.05343E+04 -1.54838E+04  1.47149E+04 -1.07494E+03  3.48594E+03  9.68482E+03
 -9.56604E+03  4.74221E+03 -1.03834E+04 -7.44964E+03 -2.72511E+03 -1.97733E+04  1.37509E+04 -2.15688E+04
  2.61218E+04 -1.32202E+04  3.00525E+04  3.95591E+03  2.63747E+04  2.07633E+04  1.23498E+04  3.25969E+04
 -6.41139E+03  3.41652E+04 -2.30168E+04  2.12547E+04 -2.57137E+04  4.77660E+03 -1.70089E+04 -6.74899E+03
 -7.49765E+03 -8.10894E+03 -2.72618E+02 -9.53290E+02 -3.05152E+03  3.58419E+03 -9.68969E+03  5.30655E+03
 -1.48553E+04 -2.35575E+03 -1.65508E+04 -1.23325E+04 -5.81236E+03 -2.10576E+04  6.35768E+03 -1.72748E+04
  1.45316E+04 -7.26508E+03  9.41710E+03  4.05242E+03  5.78061E+01  6.19904E+03 -9.41619E+03 -5.66084E+02
 -8.63897E+03 -1.14001E+04 -1.31159E+03 -1.78423E+04  1.10254E+04 -1.89283E+04  2.16383E+04 -9.38481E+03
  2.72843E+04  2.98409E+03  1.90842E+04  1.59596E+04  3.85222E+03  2.16751E+04 -1.09097E+04  1.81640E+04
 -1.43554E+04  5.54609E+03 -7.01355E+03 -4.11640E+03  2.99550E+03 -5.48716E+03  9.12164E+03 -1.02674E+03
  8.26958E+03  7.95563E+03  5.97196E+02  1.41931E+04 -1.01665E+04  1.36468E+04 -1.87703E+04  3.29797E+03
 -1.29417E+04 -9.24746E+03  4.78417E+02 -1.52357E+04  1.02181E+04 -8.51818E+03  1.08225E+04  3.36115E+03
  3.66298E+03  1.09036E+04 -9.09945E+03  1.38347E+04 -1.60112E+04  6.02070E+03 -1.71201E+04 -6.53975E+03
 -9.26736E+03 -1.84516E+04  5.65297E+03 -2.17659E+04  1.83315E+04 -1.26362E+04  1.96658E+04  2.67566E+03
  1.14319E+04  1.50530E+04 -1.00466E+03  1.83916E+04 -1.28488E+04  1.03318E+04 -1.42493E+04 -1.51561E+03
 -1.21241E+04 -1.20186E+04 -2.07339E+03 -1.38821E+04  7.97365E+03 -1.18389E+04  9.19761E+03 -4.06443E+03
  6.58817E+03  3.33696E+03 -8.13301E+02  1.87318E+03 -1.14168E+03 -4.03705E+03  3.08049E+03 -8.28598E+03
  1.26926E+04 -4.84327E+03  1.90375E+04  2.09280E+03  1.86323E+04  1.30913E+04  1.13906E+04  2.51532E+04
 -6.47756E+03  2.87431E+04 -2.31431E+04  2.11764E+04 -3.03565E+04  4.27310E+03 -2.48136E+04 -1.06535E+04
 -1.19912E+04 -2.05270E+04 -1.25463E+01 -1.66955E+04  6.07012E+03 -1.03740E+04  7.00567E+03 -6.21801E+03
  4.37709E+03 -4.37767E+03  4.45947E+03 -4.39514E+03  6.59130E+03 -3.86125E+03  9.72329E+03 -2.41106E+03
  1.18304E+04  2.72050E+03  7.56752E+03  1.03830E+04 -2.21792E+03  1.46739E+04 -1.32693E+04  1.05607E+04
 -1.69513E+04 -1.40556E+03 -1.18995E+04 -1.26243E+04 -2.40895E+03 -1.92299E+04  9.30134E+03 -1.88422E+04
  1.89659E+04 -9.77499E+03  2.28303E+04  3.64943E+03  1.63663E+04  1.61773E+04  2.16846E+03  2.08730E+04
 -9.24953E+03  1.66081E+04 -1.19633E+04  6.05643E+03 -7.36653E+03 -1.68248E+03 -4.02483E+03 -2.70841E+03
 -1.45433E+03 -5.96445E+02 -1.94832E+03  3.42550E+03 -7.05070E+03  2.18842E+03 -1.15074E+04 -1.66057E+03
 -9.05061E+03 -1.18527E+04 -3.35042E+01 -1.74723E+04  1.01671E+04 -1.57536E+04  1.74519E+04 -5.54572E+03
  1.79849E+04  8.53829E+03  8.26913E+03  1.65941E+04 -3.28314E+03  1.73489E+04 -1.26237E+04  1.17328E+04
 -1.73669E+04  5.02050E+01 -1.29754E+04 -1.09438E+04 -9.11721E+02 -1.56719E+04  7.76126E+03 -1.14433E+04
  1.15674E+04 -3.41001E+03  8.38008E+03  3.78685E+03  3.26530E+03  5.03599E+03  1.08823E+03  2.61898E+03
  3.17320E+03  2.53838E+03  4.39942E+03  2.43930E+03  4.60868E+03  6.35088E+03  4.55725E+03  1.01605E+04
 -4.13121E+03  1.35234E+04 -1.26754E+04  1.35273E+04 -1.95307E+04  3.51994E+03 -1.98650E+04 -9.23029E+03
 -9.02210E+03 -1.79885E+04  3.63801E+03 -1.99190E+04  1.08370E+04 -1.34648E+04  1.54561E+04 -3.31753E+03
  1.14780E+04  6.20960E+03  3.56148E+03  1.02137E+04 -4.55926E+03  6.80591E+03 -7.20938E+03 -1.16799E+03
 -4.05753E+03 -7.53463E+03  4.89587E+03 -8.08535E+03  7.99870E+03 -3.16369E+03  7.38546E+03  1.66115E+03
  3.65407E+03  3.18301E+03  1.68734E+03  3.89506E+03 -1.50326E+03  1.87594E+03  1.14303E+03 -4.01038E+02
  5.02558E+03 -1.04703E+03  8.37822E+03  3.39667E+03  5.20644E+03  1.02709E+04 -2.42450E+03  1.32756E+04
 -9.09434E+03  8.08572E+03 -1.19454E+04  2.00547E+03 -1.02117E+04 -3.97767E+03 -4.78838E+03 -7.91064E+03
  7.55112E+02 -8.18064E+03  4.71578E+03 -3.92717E+03  3.85979E+03  3.47756E+03 -1.58155E+03  5.30197E+03
 -8.31052E+03  3.44914E+03 -9.13647E+03 -4.06676E+03 -4.16250E+03 -1.02108E+04  1.66855E+03 -9.86703E+03
  6.40834E+03 -5.98918E+03  7.85792E+03 -6.99057E+02  6.11781E+03  2.93335E+03  3.76700E+02  5.71033E+03
 -4.46673E+03  1.63297E+03 -4.58372E+03 -4.21521E+03  1.83171E+03 -7.60358E+03  9.34730E+03 -6.82653E+03
  1.26197E+04  1.68424E+03  1.14631E+04  9.00992E+03  4.29589E+03  1.25738E+04 -4.36323E+03  1.14988E+04
 -1.00916E+04  5.62804E+03 -1.11081E+04 -1.08885E+03 -6.22721E+03 -7.60524E+03  1.76713E+03 -8.04244E+03
  7.78988E+03 -2.98066E+03  6.20329E+03  2.73718E+03  2.69907E+03  6.93990E+03 -1.51613E+03  5.38100E+03
 -2.81628E+03  3.18100E+03 -3.13567E+03  7.14755E+02 -2.33213E+03  1.56545E+03 -1.82275E+03  2.64107E+03
 -3.10832E+03  4.98069E+03 -8.03775E+03  4.47574E+03 -1.35088E+04  4.28494E+02 -1.39600E+04 -8.31591E+03
 -7.87390E+03 -1.74880E+04  3.56395E+03 -1.99509E+04  1.22292E+04 -1.50859E+04  1.86358E+04 -5.79086E+03
  1.69621E+04  3.69245E+03  1.04104E+04  1.28554E+04  5.44480E+02  1.38786E+04 -5.01859E+03  9.48743E+03
 -8.30921E+03  3.37321E+03 -4.32113E+03 -2.19882E+03 -6.58711E+02 -1.16202E+03 -7.59479E+02 -7.12392E+02
 -1.83237E+03  7.69861E+02 -2.52472E+03 -1.86948E+02 -2.83846E+02 -3.08639E+03  5.58119E+02 -4.63847E+03
  5.91321E+03 -3.10002E+03  8.69472E+03  8.35165E+02  9.12215E+03  6.66856E+03  2.48393E+03  1.33704E+04
 -5.50045E+03  1.54935E+04 -1.42438E+04  9.58120E+03 -1.59619E+04 -1.30940E+03 -1.31532E+04 -1.00480E+04
 -4.77217E+03 -1.47072E+04  4.85459E+03 -1.29285E+04  9.77784E+03 -8.20527E+03  8.53142E+03 -4.54365E+02
  4.96432E+03  5.66589E+03  4.97999E+02  3.41340E+03 -2.46823E+03 -4.97663E+02  2.21804E+02 -3.47118E+03
  3.75619E+03 -2.87584E+03  5.61228E+03  2.39778E+03  2.60888E+03  5.16434E+03  1.58658E+02  8.07003E+03
 -6.26127E+03  6.96421E+03 -9.65432E+03  1.10312E+03 -7.61650E+03 -5.99323E+03 -1.69404E+03 -1.15976E+04
  6.56124E+03 -1.01106E+04  1.18418E+04 -3.61397E+03  1.14819E+04  2.71000E+03  7.06919E+03  9.54413E+03
  6.31864E+02  9.63317E+03 -3.57519E+03  7.89935E+03 -6.36995E+03  3.71562E+03 -4.88775E+03  6.06440E+02
 -2.39706E+03  1.41436E+02 -3.18554E+03  7.34603E+02 -4.84261E+03  1.00752E+03 -7.19971E+03 -1.62200E+03
 -7.19278E+03 -4.65927E+03 -2.22289E+03 -9.21057E+03  4.47087E+03 -1.05286E+04  9.03702E+03 -4.52507E+03
  9.27873E+03  1.39794E+03  5.12679E+03  6.49938E+03 -4.97996E+02  9.54822E+03 -7.24452E+03  4.86205E+03
