 $NMID ID='MM_0lb_SNR400_18hz_g40_82.RAW', FMTDAT='(8E13.5)'
 TRAMP=1., VOLUME=1. $END
  3.09637E+05  1.74201E+02  3.37474E+05  2.49955E+05  8.40288E+04  3.36912E+05 -1.32164E+05  2.50428E+05
 -1.89751E+05  8.26542E+04 -1.11095E+05 -3.27640E+04  1.36746E+03 -5.02271E+04  5.39026E+04  2.13714E+02
  3.47726E+04  5.25392E+04 -1.72082E+04  7.49887E+04 -6.00734E+04  6.26847E+04 -8.27009E+04  3.17337E+04
 -7.86617E+04 -1.11343E+04 -5.59641E+04 -4.99294E+04 -1.48702E+04 -6.77586E+04  2.61431E+04 -4.47301E+04
  3.90881E+04  3.86223E+03  1.54310E+04  4.68055E+04 -3.39403E+04  4.59825E+04 -6.52573E+04 -7.36326E+02
 -5.25711E+04 -5.60217E+04 -6.40557E+03 -7.44483E+04  3.30889E+04 -5.23392E+04  4.55190E+04 -1.60905E+04
  4.10455E+04  1.08854E+04  3.09155E+04  2.46203E+04  1.60750E+04  2.79298E+04 -4.25987E+03  2.65008E+04
 -2.14551E+04  1.33197E+04 -1.91159E+04 -4.03895E+03  4.18933E+03 -8.09468E+03  2.14195E+04  1.05690E+04
  7.85482E+03  3.31297E+04 -2.97021E+04  3.38702E+04 -6.07590E+04  1.67459E+03 -5.54560E+04 -4.06086E+04
 -1.26709E+04 -6.07150E+04  3.83606E+04 -4.29184E+04  5.57915E+04 -2.05481E+03  3.13963E+04  3.01603E+04
 -6.63399E+03  3.23218E+04 -2.82703E+04  1.30469E+04 -2.71222E+04 -5.24002E+03 -1.42664E+04 -1.00218E+04
 -7.23608E+03 -1.08282E+04 -1.14056E+03 -1.66289E+04  6.64396E+03 -2.27337E+04  1.50289E+04 -1.41318E+04
  1.23601E+04  4.57850E+03 -6.42637E+03  1.29837E+04 -1.85925E+04 -2.14955E+03 -8.33310E+03 -2.97223E+04
  2.06115E+04 -4.05151E+04  4.42744E+04 -1.84072E+04  4.09869E+04  1.81413E+04  1.44149E+04  4.15704E+04
 -1.54883E+04  3.10240E+04 -2.33445E+04  1.31331E+03 -8.20812E+03 -2.60440E+04  2.01615E+04 -3.08527E+04
  3.78561E+04 -7.06463E+03  3.04539E+04  2.23683E+04  1.54906E+04  4.24810E+04 -7.91292E+03  4.42993E+04
 -2.82586E+04  2.91420E+04 -3.71025E+04  8.30301E+03 -3.82311E+04 -1.52379E+04 -2.11117E+04 -3.45258E+04
  6.59793E+03 -3.39048E+04  2.91490E+04 -1.22444E+04  2.62111E+04  1.10043E+04  2.99258E+03  1.76517E+04
 -1.33996E+04  6.79950E+03 -9.52681E+03 -8.11945E+03  5.58343E+03 -9.70168E+03  1.74664E+04  6.46432E+03
  1.20123E+04  2.14329E+04 -7.11548E+03  2.31140E+04 -2.12942E+04  9.16527E+03 -2.53665E+04 -6.41788E+03
 -1.60035E+04 -1.64235E+04 -5.54149E+03 -1.63373E+04  3.82959E+03 -1.41296E+04  1.19712E+04 -1.38684E+04
  2.08239E+04 -1.13199E+04  2.74979E+04  1.25790E+03  2.14254E+04  1.61394E+04  4.60442E+03  3.21906E+04
 -1.62076E+04  2.70005E+04 -2.52490E+04  9.10346E+03 -1.96781E+04 -1.03874E+04 -3.67875E+03 -1.38142E+04
  3.06205E+03 -4.27148E+03 -2.70343E+03  5.19314E+03 -1.36339E+04  4.63333E+03 -1.26603E+04 -4.69906E+03
 -8.32605E+03 -1.51228E+04  4.53670E+03 -1.91537E+04  1.21992E+04 -1.40156E+04  1.44858E+04 -1.99889E+03
  9.10577E+03  1.09362E+04 -7.60423E+02  1.55981E+04 -1.02313E+04  8.44646E+03 -1.48872E+04 -3.17809E+03
 -1.08360E+04 -1.42223E+04 -1.25230E+03 -1.90252E+04  8.58117E+03 -1.46433E+04  1.59171E+04 -6.81379E+03
  1.43796E+04  1.45134E+03  1.07065E+04  3.62191E+03  4.98065E+03  8.34220E+02  7.71647E+03 -1.15155E+03
  1.38568E+04  2.45143E+03  1.54852E+04  1.25324E+04  8.84564E+03  2.41747E+04 -3.08802E+03  2.58978E+04
 -1.56463E+04  1.96470E+04 -2.39186E+04  9.79209E+03 -2.43914E+04 -1.62179E+03 -2.10590E+04 -1.43731E+04
 -9.95865E+03 -1.97031E+04  6.83533E+03 -1.85228E+04  1.62235E+04 -1.12330E+04  1.56583E+04  3.37246E+03
  6.25656E+03  1.09528E+04 -6.79380E+03  1.02320E+04 -1.32407E+04  2.62240E+03 -1.03812E+04 -7.88741E+03
 -1.37478E+02 -1.21612E+04  5.73299E+03 -8.86341E+03  7.90384E+03 -1.55967E+03  1.46199E+03  4.55507E+03
 -5.47288E+03  1.68822E+03 -3.82668E+03 -4.47229E+03  1.37680E+03 -9.75675E+03  7.90074E+03 -9.81740E+03
  1.18604E+04 -4.97186E+03  1.17747E+04  2.49511E+03  9.86571E+03  9.41484E+03  4.64811E+03  1.34075E+04
 -1.91211E+03  1.55617E+04 -9.38507E+03  9.58109E+03 -1.12824E+04  2.64440E+03 -8.90347E+03 -1.97970E+03
 -4.42487E+03 -3.72080E+03 -1.33432E+03  8.95284E+02 -2.19186E+03  1.81378E+03 -3.72937E+03  3.73329E+03
 -8.39320E+03 -1.10241E+03 -8.39008E+03 -7.49947E+03 -3.12966E+03 -1.18246E+04  3.42362E+03 -8.45874E+03
  7.36845E+03 -3.60272E+03  5.28676E+03  1.79520E+03  6.16759E+02  2.85562E+03 -3.34841E+03 -1.84597E+02
 -3.14689E+03 -4.43555E+03 -9.02933E+02 -6.79236E+03  4.43429E+03 -8.19630E+03  9.58574E+03 -3.80386E+03
  1.20282E+04  9.30941E+02  8.56773E+03  6.07227E+03  1.73959E+03  8.76613E+03 -5.31626E+03  7.89106E+03
 -6.98666E+03  2.66903E+03 -3.28897E+03 -1.42810E+03  1.10135E+03 -1.42276E+03  4.92122E+03 -1.40643E+03
  4.48595E+03  3.22841E+03  7.13729E+02  6.08177E+03 -4.22161E+03  5.98022E+03 -7.67532E+03  1.58365E+03
 -4.83303E+03 -3.35592E+03  2.19611E+02 -7.09291E+03  3.99798E+03 -3.44654E+03  3.75613E+03  4.98190E+02
  3.28708E+02  3.22494E+03 -4.31048E+03  4.10078E+03 -4.87157E+03  2.77902E+03 -3.88179E+03 -7.26750E+02
 -2.90156E+03 -5.69313E+03  1.03293E+03 -6.82301E+03  6.56254E+03 -4.34533E+03  6.31722E+03  8.27633E+02
  4.72965E+03  5.14633E+03  3.10398E+02  7.87321E+03 -5.10731E+03  4.02077E+03 -5.34457E+03 -1.12106E+02
 -5.75018E+03 -5.24157E+03 -1.70146E+03 -4.96176E+03  2.69370E+03 -4.92638E+03  2.69315E+03 -3.04145E+03
  3.46746E+03  3.34262E+02 -1.06136E+02  1.52635E+03  8.99752E+02 -3.38473E+02 -2.50693E+02 -1.64459E+03
  4.08910E+03 -3.58385E+02  5.38961E+03  6.53108E+02  5.50133E+03  2.65993E+03  5.11580E+03  7.41351E+03
 -1.04380E+03  8.99942E+03 -7.99904E+03  6.74256E+03 -1.00444E+04  1.21491E+03 -8.27017E+03 -2.80781E+03
 -5.07141E+03 -6.99543E+03 -2.89464E+02 -5.48054E+03  2.03950E+03 -2.19695E+03  1.85822E+03 -1.84346E+03
  1.26177E+03 -1.47253E+03  2.04469E+03 -2.58085E+03  3.65329E+03 -1.21280E+03  3.57071E+03  3.38253E+01
  4.39485E+03  1.16157E+03  1.77032E+03  3.78686E+03 -1.62448E+03  2.93158E+03 -4.68853E+03  2.66221E+03
 -4.53843E+03 -1.50475E+03 -2.26289E+03 -3.44795E+03  2.02737E+02 -5.26257E+03  3.73385E+03 -5.66152E+03
  4.87464E+03 -3.14563E+03  7.19971E+03 -1.81561E+02  4.89414E+03  3.98278E+03  1.20218E+03  5.56968E+03
 -2.15606E+03  6.22418E+03 -3.45743E+03  1.70334E+03 -2.05191E+03 -8.61402E+02 -7.43949E+02 -1.22175E+03
 -3.52797E+02  6.03708E+02 -7.05704E+02  2.02292E+03 -2.78975E+03  8.49731E+02 -4.47224E+03 -4.00713E+02
 -1.91854E+03 -4.28815E+03  1.01517E+03 -4.56866E+03  2.70750E+03 -4.64772E+03  3.91068E+03 -9.11755E+02
  4.58173E+03  2.48325E+03  1.76464E+03  4.11599E+03 -9.77836E+02  4.83896E+03 -2.65201E+03  2.77465E+03
 -3.56543E+03  3.72380E+02 -3.27802E+03 -2.05462E+03 -6.51438E+00 -3.41227E+03  1.32833E+03 -2.97464E+03
  2.56413E+03 -1.37483E+03  2.28583E+03  2.10190E+02  3.97862E+02  1.36561E+03  1.11292E+03  1.01875E+03
  1.78900E+03 -2.90588E+02  1.28390E+03  5.34974E+02  1.18532E+03  2.08877E+03  1.09170E+03  1.32016E+03
 -1.43609E+03  2.38623E+03 -2.79950E+03  4.30901E+03 -2.99020E+03  1.25851E+03 -4.45533E+03 -3.54471E+02
 -1.82015E+03 -3.52675E+03  3.33243E+02 -5.62638E+03  1.76710E+03 -2.95346E+03  3.30810E+03 -7.94539E+02
  2.79154E+03  1.95857E+03  4.19193E+02  2.42377E+03 -8.91734E+02  1.73889E+03 -5.43385E+02 -1.90206E+02
 -1.21462E+02 -1.46478E+03  1.50057E+03 -1.74467E+03  1.53739E+03 -9.55193E+02  1.97685E+03  7.82830E+02
  5.47892E+02  5.85912E+02  9.09518E+02 -5.91481E+02 -8.70550E+02  7.85252E+02  1.40201E+03 -3.41379E+02
 -1.78818E+02 -5.36994E+02  1.85274E+03  1.10331E+02  3.48654E+02  2.58510E+03  2.89958E+02  2.89102E+03
 -1.80761E+03  5.43075E+02 -1.73801E+03  4.67479E+02 -1.92554E+03 -6.13290E+02  2.80007E+02 -1.05317E+03
 -2.48145E+02 -1.12837E+03  8.99525E+02 -7.42941E+02  8.05327E+02  1.19750E+03 -8.15376E+02  1.16899E+03
 -1.75731E+03  9.37583E+02 -1.74827E+03 -1.84138E+03 -1.05596E+03 -2.52342E+03  6.40901E+02 -1.49564E+03
  9.62921E+02 -4.78073E+02  4.76635E+02  3.05422E+01  1.47658E+03  3.54993E+02  3.61187E+02  1.05808E+03
 -5.54410E+02 -5.60659E+01 -3.36967E+02 -3.83036E+02  8.56973E+02 -3.43482E+02  1.33038E+03 -1.12559E+03
  1.57454E+03  2.96920E+02  2.89328E+03  6.45193E+02  1.32506E+03  1.77141E+03 -4.63479E+02  2.13950E+03
 -1.59479E+03  3.12969E+02 -2.11864E+03 -3.56065E+02 -8.58287E+02 -1.71995E+03  2.36490E+02 -5.44543E+02
  1.32145E+03 -6.90163E+02  1.17778E+03  1.03565E+03  2.45730E+02  1.14275E+03  2.77147E+02  8.75489E+02
 -5.61900E+01  1.05998E+03 -4.65570E+02 -1.98392E+02  1.19298E+02  8.25879E+01 -9.87115E+02  4.33589E+01
 -1.21873E+02  1.18980E+03 -1.89797E+03  5.11412E+02 -1.63495E+03  2.98876E+02 -2.21691E+03 -9.54722E+02
 -1.21078E+03 -3.17876E+03  6.53938E+02 -3.44745E+03  1.80193E+03 -3.25544E+03  3.01815E+03 -9.62237E+02
  2.39607E+03 -4.32630E+02  1.00738E+03  2.00187E+03 -9.90605E+02  1.83787E+03 -6.95490E+02  1.25092E+03
 -1.03390E+03  8.57969E+02 -9.80464E+02 -1.21338E+02 -3.88397E+02  4.47471E+02 -5.74422E+02 -3.40879E+02
 -9.95847E+02 -1.70126E+02 -1.00335E+03  9.14542E+01 -3.62919E+02 -1.03650E+03 -4.94590E+01 -1.22608E+03
  1.21407E+03 -8.42007E+02  6.53671E+02  6.14625E+02  7.69897E+02  8.62016E+02  2.99499E+02  1.59340E+03
 -8.99740E+02  2.49519E+03 -1.99187E+03  1.59033E+03 -2.04092E+03 -3.25744E+02 -8.38110E+02 -1.37294E+03
 -7.04525E+02 -1.39070E+03  6.54517E+02 -9.38685E+02  6.69142E+02 -7.53357E+02  8.79692E+02  3.56670E+02
  3.22273E+02  3.31539E+01  2.41031E+02  5.85100E+02 -3.23096E+02  2.79121E+02  2.57102E+01 -3.34772E+02
  7.12856E+02  2.34853E+02  1.27311E+02  8.17744E+02  1.87763E+02 -2.61012E+02 -1.16610E+02  1.21637E+02
 -7.02700E+02  9.37359E+02 -3.47471E+02 -2.65013E+01 -9.12614E+02 -4.64770E+02 -3.77683E+02 -1.41262E+03
  1.71061E+02 -1.67892E+03  8.98061E+02  4.77476E+02  9.32189E+02 -8.33354E+02  3.86553E+02  1.02277E+03
  4.80759E+02  1.30990E+03 -2.49357E+02  7.98440E+02 -4.16177E+02  6.10233E+02 -8.60686E+02  1.51438E+01
  3.81800E+01 -2.43798E+02 -6.66009E+02  5.27532E+01 -1.04647E+03  6.43341E+02 -9.99137E+02 -4.83447E+02
 -1.49529E+03  2.96675E+02 -2.81891E+02 -1.24241E+03  6.56632E+02 -1.79337E+03  8.53899E+02 -3.11685E+02
  7.40703E+02  3.08604E+02 -2.01765E+02  1.19207E+02  1.29480E+02  9.28376E+02 -5.81354E+02  8.72809E+02
