 $NMID ID='MM_0lb_SNR400_20hz_g50_90.RAW', FMTDAT='(8E13.5)'
 TRAMP=1., VOLUME=1. $END
  3.09495E+05  3.24337E+02  3.37609E+05  2.49956E+05  8.41404E+04  3.37236E+05 -1.31481E+05  2.49675E+05
 -1.89464E+05  8.29098E+04 -1.10796E+05 -3.27063E+04  1.13702E+03 -5.02749E+04  5.40232E+04  1.66174E+02
  3.47493E+04  5.24842E+04 -1.65855E+04  7.51314E+04 -6.02764E+04  6.28567E+04 -8.21399E+04  3.10619E+04
 -7.97173E+04 -1.10076E+04 -5.60374E+04 -5.05926E+04 -1.44638E+04 -6.81485E+04  2.68637E+04 -4.51552E+04
  3.91283E+04  4.43469E+03  1.56887E+04  4.70458E+04 -3.36895E+04  4.65846E+04 -6.51522E+04 -4.53217E+02
 -5.18758E+04 -5.54162E+04 -6.11378E+03 -7.48348E+04  3.26383E+04 -5.24353E+04  4.60642E+04 -1.63639E+04
  4.15406E+04  1.12598E+04  3.05102E+04  2.43862E+04  1.64173E+04  2.78885E+04 -4.06864E+03  2.65112E+04
 -2.13943E+04  1.31248E+04 -1.92119E+04 -3.78446E+03  3.58177E+03 -7.92926E+03  2.09971E+04  1.09304E+04
  7.42124E+03  3.32161E+04 -3.05269E+04  3.41065E+04 -6.06337E+04  1.97334E+03 -5.47994E+04 -4.10042E+04
 -1.20596E+04 -6.00783E+04  3.81136E+04 -4.29361E+04  5.52314E+04 -1.96120E+03  3.18172E+04  3.06875E+04
 -6.45572E+03  3.26660E+04 -2.80634E+04  1.26251E+04 -2.78363E+04 -6.07928E+03 -1.44213E+04 -1.02067E+04
 -7.25601E+03 -1.15831E+04 -8.75560E+02 -1.64664E+04  6.38689E+03 -2.23137E+04  1.46126E+04 -1.43848E+04
  1.28295E+04  4.16718E+03 -5.96156E+03  1.32016E+04 -1.86447E+04 -2.16999E+03 -8.50969E+03 -3.02521E+04
  2.05431E+04 -4.00462E+04  4.40937E+04 -1.85699E+04  4.11503E+04  1.78944E+04  1.43224E+04  4.09784E+04
 -1.50012E+04  3.09674E+04 -2.36526E+04  1.02568E+03 -8.09236E+03 -2.55261E+04  2.10168E+04 -3.08567E+04
  3.74069E+04 -7.00220E+03  3.05718E+04  2.24676E+04  1.47466E+04  4.22157E+04 -7.67863E+03  4.48865E+04
 -2.76503E+04  2.88957E+04 -3.66967E+04  8.37061E+03 -3.73381E+04 -1.45710E+04 -2.09988E+04 -3.36165E+04
  6.96914E+03 -3.32311E+04  2.85058E+04 -1.18381E+04  2.64738E+04  1.03870E+04  2.33584E+03  1.77668E+04
 -1.31710E+04  7.57588E+03 -1.03669E+04 -7.26122E+03  5.50535E+03 -1.03322E+04  1.71080E+04  6.65155E+03
  1.21029E+04  2.13028E+04 -6.89566E+03  2.30473E+04 -2.09976E+04  8.06799E+03 -2.48380E+04 -6.62233E+03
 -1.56489E+04 -1.58550E+04 -4.74215E+03 -1.61454E+04  3.56138E+03 -1.36145E+04  1.19025E+04 -1.34469E+04
  2.02611E+04 -1.14303E+04  2.72731E+04  9.68442E+02  2.08292E+04  1.56881E+04  4.15061E+03  3.13452E+04
 -1.54516E+04  2.74222E+04 -2.46535E+04  8.42037E+03 -1.91762E+04 -1.01720E+04 -3.36317E+03 -1.37621E+04
  2.44004E+03 -4.41252E+03 -2.28321E+03  5.05669E+03 -1.24041E+04  5.33891E+03 -1.27162E+04 -4.25825E+03
 -8.59595E+03 -1.48917E+04  3.98634E+03 -1.83015E+04  1.21831E+04 -1.29883E+04  1.38706E+04 -1.19336E+03
  8.08336E+03  1.05847E+04 -7.11797E+02  1.51008E+04 -1.00411E+04  8.26944E+03 -1.48355E+04 -3.25132E+03
 -1.16615E+04 -1.34255E+04 -1.19071E+03 -1.82920E+04  7.59174E+03 -1.50970E+04  1.56090E+04 -6.64813E+03
  1.37247E+04  7.05214E+02  9.26181E+03  3.32669E+03  4.95298E+03  5.25377E+02  6.81704E+03 -1.27269E+03
  1.34021E+04  2.53813E+03  1.31429E+04  1.22209E+04  8.17584E+03  2.37936E+04 -3.11056E+03  2.53401E+04
 -1.49203E+04  1.89091E+04 -2.27253E+04  8.82142E+03 -2.32576E+04 -1.50015E+03 -2.02854E+04 -1.30239E+04
 -9.91455E+03 -1.83746E+04  6.57922E+03 -1.78429E+04  1.52036E+04 -1.04268E+04  1.51932E+04  2.93125E+03
  6.15851E+03  9.90529E+03 -6.77620E+03  9.85061E+03 -1.24572E+04  3.48059E+03 -9.72715E+03 -7.53105E+03
 -7.50008E+02 -1.11258E+04  5.61284E+03 -8.79968E+03  7.42780E+03 -1.30115E+03  1.58242E+03  4.62093E+03
 -5.38554E+03  6.75382E+02 -3.23435E+03 -4.66558E+03  5.31767E+02 -9.45594E+03  7.28969E+03 -9.46812E+03
  1.12937E+04 -4.10104E+03  1.10502E+04  2.53463E+03  8.97421E+03  8.72608E+03  4.49114E+03  1.30438E+04
 -1.34408E+03  1.46688E+04 -8.81435E+03  8.91617E+03 -9.83911E+03  2.75036E+03 -8.10469E+03 -1.72549E+03
 -4.17992E+03 -2.73151E+03 -7.12200E+02  1.48056E+03 -1.87534E+03  1.87175E+03 -4.23888E+03  3.35414E+03
 -7.45889E+03 -5.59948E+02 -8.37822E+03 -6.70418E+03 -3.49961E+03 -1.05226E+04  3.19326E+03 -7.69479E+03
  6.70588E+03 -3.63814E+03  5.24313E+03  1.96959E+03  1.28688E+02  2.57563E+03 -3.23901E+03 -5.32248E+02
 -3.15880E+03 -4.28608E+03 -1.15516E+03 -6.47292E+03  2.99177E+03 -6.87553E+03  9.34869E+03 -3.57402E+03
  1.07518E+04  4.80880E+02  7.96546E+03  5.17383E+03  1.94485E+03  7.23912E+03 -5.03722E+03  7.81669E+03
 -6.47869E+03  2.48397E+03 -3.23740E+03 -9.44942E+02  1.10126E+03 -2.28989E+03  4.48722E+03 -9.73899E+02
  3.34407E+03  3.09757E+03  8.06283E+02  6.12537E+03 -4.13205E+03  5.40556E+03 -6.41279E+03  2.31640E+03
 -4.22173E+03 -3.39170E+03  2.19121E+02 -5.84926E+03  3.72842E+03 -3.54099E+03  3.04269E+03  5.70755E+02
  1.14901E+02  2.70574E+03 -3.67307E+03  3.94781E+03 -4.63150E+03  2.33108E+03 -3.42529E+03 -6.59773E+02
 -2.10157E+03 -5.56582E+03  7.73455E+02 -6.44907E+03  4.81545E+03 -3.89736E+03  5.54179E+03  8.99510E+02
  4.09862E+03  4.50295E+03  4.32907E+02  6.23687E+03 -4.47726E+03  4.15157E+03 -4.55720E+03 -6.56806E+02
 -5.26250E+03 -4.94444E+03 -1.18304E+03 -4.64670E+03  2.24601E+03 -4.16533E+03  2.27036E+03 -2.91177E+03
  2.56349E+03 -1.26694E+02  3.47740E+02  1.28162E+03  4.54920E+02  3.77478E+02  9.93347E+01 -1.53411E+03
  3.07120E+03 -4.29070E+02  4.15583E+03  6.48693E+02  5.01364E+03  3.05033E+03  5.04519E+03  5.56016E+03
 -8.19318E+02  7.30999E+03 -6.42168E+03  5.32779E+03 -9.12019E+03  9.26140E+02 -6.50668E+03 -2.15663E+03
 -3.55820E+03 -5.66838E+03 -3.47035E+02 -4.40163E+03  1.82665E+03 -1.62783E+03  1.36896E+03 -1.60865E+03
  1.08317E+03 -7.13699E+02  1.69468E+03 -2.19921E+03  3.17733E+03 -1.40898E+03  2.92418E+03  8.90239E+02
  4.22186E+03  1.06490E+03  9.08418E+02  2.64620E+03 -1.68219E+03  2.10628E+03 -4.10244E+03  2.10859E+03
 -4.46197E+03 -1.06338E+03 -1.07944E+03 -2.45972E+03  4.99053E+02 -4.34715E+03  2.28930E+03 -4.65378E+03
  4.36371E+03 -2.65342E+03  6.24821E+03 -2.59325E+01  4.63877E+03  3.72540E+03  1.07723E+03  4.73125E+03
 -1.86278E+03  4.98237E+03 -2.75040E+03  1.40557E+03 -1.69725E+03 -1.04526E+03 -6.21765E+01 -1.97782E+02
 -2.81044E+02 -2.10007E+02 -6.24673E+02  2.18256E+03 -2.07444E+03  8.16909E+02 -4.18003E+03 -2.70298E+02
 -1.07725E+03 -3.30114E+03  1.21211E+03 -3.74751E+03  2.33200E+03 -3.71015E+03  2.23247E+03 -8.84862E+02
  3.95635E+03  2.23506E+03  1.71685E+03  2.49526E+03 -1.09249E+03  4.04847E+03 -2.14457E+03  2.29474E+03
 -2.67509E+03 -1.42084E+02 -2.95058E+03 -2.17249E+03  1.00778E+02 -2.55505E+03  1.81872E+03 -2.18758E+03
  2.38844E+03 -1.00915E+03  1.10538E+03  3.77811E+02  5.64630E+02  1.89695E+03  7.72950E+02 -3.86343E+02
  1.61040E+03  8.92410E+02  7.22633E+02  8.61707E+02  9.72001E+02  1.69776E+03  9.28373E+02  1.33062E+03
 -1.25041E+03  2.20928E+03 -1.65013E+03  3.64389E+03 -1.65605E+03  1.58591E+03 -2.90931E+03 -2.27506E+02
 -1.10472E+03 -2.80920E+03  1.23140E+02 -3.87600E+03  1.15772E+03 -1.77663E+03  2.33840E+03 -9.79407E+02
  2.00169E+03  1.82757E+03  3.72869E+02  1.33513E+03 -5.42960E+02  1.04895E+03 -7.46368E+02  8.64813E+01
 -6.68756E+02 -1.24881E+03  8.08604E+02 -7.50928E+02  1.14119E+03 -7.52149E+02  1.31708E+03  2.28070E+02
  6.33229E+02 -4.41254E+02  5.12600E+02 -6.48069E+02  2.65555E+02  3.37004E+02  1.24803E+03 -1.60216E+02
 -5.37655E+01 -6.74978E+02  1.47208E+03  6.14541E+02 -6.56234E+02  1.82260E+03 -2.26260E+02  2.07488E+03
 -9.60864E+02  6.05455E+02 -1.32303E+03  7.46838E+02 -1.74883E+03 -5.19685E+02  1.07751E+02 -8.14837E+02
  2.90123E+02 -1.37235E+03  2.89165E+02 -8.75796E+02  4.35359E+02  6.73979E+02 -6.47832E+02  1.02854E+03
 -1.34210E+03  4.47025E+02 -1.08784E+03 -1.22723E+03 -4.60958E+02 -1.46206E+03  7.37284E+02 -1.35967E+03
  6.40901E+02  3.34152E+01  7.38504E+02  5.41968E+02  1.06070E+03  1.03999E+02  2.24745E+02  3.18072E+02
 -7.91050E+01  1.14965E+02 -1.05534E+03 -4.36165E+02  8.88284E+02 -3.78679E+02  1.45320E+03 -5.98770E+02
  1.32223E+03  3.73708E+02  2.17979E+03  4.74707E+02  5.37953E+02  1.36692E+03  2.94395E+01  1.38278E+03
 -1.54230E+03  1.56142E+02 -1.11224E+03  1.25521E+02 -5.93421E+02 -1.09682E+03  1.25276E+02 -4.29913E+02
  1.37639E+03 -1.07238E+03  5.83133E+02  2.35764E+02 -9.80257E+01  5.82695E+02  4.37624E+02  9.46532E+02
  5.82119E+01  1.07630E+03  5.04638E+00  1.07231E+03  1.85181E+02 -1.15178E+02 -5.96419E+02  5.02780E+02
 -3.37482E+02  8.33416E+02 -1.72202E+03  2.07765E+02 -1.09931E+03  1.03809E+02 -1.75264E+03 -6.35665E+02
 -1.25986E+03 -1.39740E+03  8.34538E+02 -2.04415E+03  2.68397E+02 -2.03834E+03  1.87173E+03 -5.48887E+02
  1.64446E+03  9.92789E+01  3.67892E+02  1.17856E+03 -1.02450E+03  9.02865E+02 -6.23367E+02  1.38873E+03
 -3.56344E+02  2.40104E+02 -5.67271E+02 -7.02145E+01 -3.82459E+02  6.50941E+02 -9.10224E+02 -1.46454E+02
 -1.20719E+03  4.93230E+02 -1.15067E+03 -1.71113E+01  1.14599E+02 -7.37119E+02 -6.67464E+02 -1.02384E+03
  1.39960E+03  2.72167E+01  2.36536E+02  6.96551E+01  1.21950E+03  8.07225E+02 -7.35076E+01  1.17176E+03
 -1.49271E+03  1.46479E+03 -1.23223E+03  4.79168E+02 -1.24641E+03  1.26008E+02 -8.53355E+02 -1.48145E+03
 -7.77471E+02 -8.75658E+02  8.16108E+01 -9.52132E+02  1.03878E+02 -4.77948E+02  1.78403E+02  2.26731E+02
  6.59706E+02 -1.98488E+02  1.24153E+02  3.19441E+01 -2.42635E+02  2.81116E+02 -1.60552E+01 -4.06955E+02
  5.37450E+02  7.94896E+02  4.09978E+01  5.29768E+00  3.62211E+02  1.93673E+02  5.36388E+02  1.65749E+02
 -8.58090E+02  2.08322E+02 -7.74110E+01  1.65799E+02 -1.01883E+03  1.27194E+02 -1.31677E+02 -8.42852E+02
  4.49005E+02 -6.15527E+02  1.82402E+01  2.32831E+01  6.23363E+02 -7.06818E+02  5.42805E+02  4.95794E+02
  6.84915E+02  1.29942E+02 -2.63805E+02  3.68864E+02 -5.39778E+01  5.68873E+02 -1.62287E+02  4.53784E+02
 -1.72150E+02 -2.52240E+02 -7.64375E+02  1.27844E+02 -7.76693E+01 -2.21450E+02 -6.30330E+02 -2.61652E+02
 -1.09620E+03  7.10864E+02 -8.07845E+02 -7.50888E+02  5.43274E+02 -1.30991E+03  1.03481E+02 -7.00434E+02
  4.57747E+02 -4.42330E+02 -1.14341E+02  1.99108E+02 -5.38991E+02  4.69349E+01  3.84976E+01  3.41312E+02
