 $NMID ID='MM_0lb_SNR400_13hz_g50_80.RAW', FMTDAT='(8E13.5)'
 TRAMP=1., VOLUME=1. $END
  3.10325E+05 -1.08210E+02  3.37714E+05  2.50957E+05  8.46374E+04  3.38195E+05 -1.32903E+05  2.51427E+05
 -1.90165E+05  8.35053E+04 -1.11763E+05 -3.20051E+04  8.87802E+02 -5.04216E+04  5.40805E+04 -5.53195E+02
  3.55682E+04  5.28618E+04 -1.58870E+04  7.60443E+04 -6.09041E+04  6.43767E+04 -8.47434E+04  3.28552E+04
 -8.14957E+04 -1.11719E+04 -5.73423E+04 -5.18162E+04 -1.50509E+04 -6.95587E+04  2.75024E+04 -4.58954E+04
  4.03563E+04  3.78993E+03  1.62220E+04  4.75923E+04 -3.46382E+04  4.74607E+04 -6.68215E+04  4.25584E+02
 -5.37744E+04 -5.70195E+04 -7.34830E+03 -7.68838E+04  3.41365E+04 -5.60341E+04  4.77952E+04 -1.75481E+04
  4.42190E+04  1.09143E+04  3.18929E+04  2.54931E+04  1.63226E+04  2.94819E+04 -4.75653E+03  2.81174E+04
 -2.24928E+04  1.22065E+04 -1.79889E+04 -5.28245E+03  5.80737E+03 -7.56233E+03  2.23161E+04  1.27031E+04
  7.58644E+03  3.63859E+04 -3.29589E+04  3.59260E+04 -6.37782E+04  1.79990E+03 -5.75321E+04 -4.33958E+04
 -1.24206E+04 -6.41960E+04  4.03328E+04 -4.63029E+04  5.89732E+04 -2.28789E+03  3.47440E+04  3.29740E+04
 -6.23914E+03  3.68979E+04 -3.00931E+04  1.66361E+04 -3.12180E+04 -3.74643E+03 -1.69252E+04 -1.13326E+04
 -8.81186E+03 -1.36914E+04 -5.63458E+02 -1.87765E+04  8.03808E+03 -2.25618E+04  1.56076E+04 -1.32525E+04
  1.07232E+04  4.96914E+03 -8.39393E+03  1.30426E+04 -2.22065E+04 -5.32455E+03 -9.24240E+03 -3.49423E+04
  2.34301E+04 -4.44256E+04  4.94625E+04 -1.95810E+04  4.66177E+04  2.04093E+04  1.60856E+04  4.50563E+04
 -1.66381E+04  3.33842E+04 -2.59743E+04  1.88324E+03 -1.02425E+04 -2.81469E+04  2.08063E+04 -3.41966E+04
  4.15814E+04 -9.69077E+03  3.67668E+04  2.36809E+04  1.89529E+04  4.69501E+04 -8.19844E+03  5.12629E+04
 -3.26411E+04  3.48520E+04 -4.33102E+04  1.05228E+04 -4.33855E+04 -1.74374E+04 -2.43902E+04 -3.88291E+04
  7.35788E+03 -3.89820E+04  3.19466E+04 -1.44637E+04  2.96313E+04  1.13002E+04  4.29718E+03  2.00486E+04
 -1.34638E+04  7.75548E+03 -1.05139E+04 -7.49233E+03  6.03896E+03 -1.07854E+04  1.83313E+04  6.29556E+03
  1.38298E+04  2.19247E+04 -5.83920E+03  2.62570E+04 -2.26350E+04  1.21747E+04 -2.89948E+04 -4.66523E+03
 -2.20757E+04 -1.78134E+04 -8.20241E+03 -2.11940E+04  3.85543E+03 -2.15218E+04  1.63372E+04 -2.00149E+04
  2.73310E+04 -1.35138E+04  3.36718E+04  3.13885E+03  2.47953E+04  2.11300E+04  4.59450E+03  3.72127E+04
 -1.79272E+04  3.11827E+04 -2.88860E+04  1.07118E+04 -2.15722E+04 -1.02665E+04 -4.95968E+03 -1.29357E+04
  1.51769E+03 -2.50607E+03 -4.91265E+03  6.57452E+03 -1.68401E+04  5.03204E+03 -1.75234E+04 -8.09088E+03
 -1.04025E+04 -2.01609E+04  6.04217E+03 -2.39531E+04  1.58158E+04 -1.71599E+04  1.96233E+04 -2.06812E+03
  1.18900E+04  1.40923E+04 -1.39269E+03  1.97087E+04 -1.41011E+04  1.15170E+04 -1.98072E+04 -4.28397E+03
 -1.54208E+04 -1.74620E+04 -1.75548E+03 -2.39234E+04  1.08445E+04 -1.95691E+04  1.97706E+04 -1.03287E+04
  1.87521E+04  5.58553E+00  1.35108E+04  4.59326E+03  7.68781E+03  1.38959E+03  9.78812E+03 -2.06202E+03
  1.80424E+04  2.90397E+03  2.03066E+04  1.55405E+04  1.29046E+04  3.16581E+04 -3.15845E+03  3.60493E+04
 -2.03936E+04  2.96042E+04 -3.34561E+04  1.46422E+04 -3.55347E+04 -2.02316E+03 -2.89188E+04 -2.02511E+04
 -1.18704E+04 -2.95144E+04  1.06456E+04 -2.64105E+04  2.28154E+04 -1.32917E+04  2.03851E+04  6.46363E+03
  7.16065E+03  1.55636E+04 -8.82989E+03  1.37018E+04 -1.65871E+04  2.57607E+03 -1.31387E+04 -1.07550E+04
 -1.13216E+03 -1.65084E+04  8.75338E+03 -1.25781E+04  1.06527E+04 -1.01254E+03  2.56058E+03  6.58746E+03
 -7.55668E+03  3.09518E+03 -6.78406E+03 -5.82369E+03 -1.08297E+03 -1.43207E+04  1.04151E+04 -1.51869E+04
  1.85056E+04 -8.23100E+03  1.98524E+04  3.03921E+03  1.66249E+04  1.46775E+04  7.84843E+03  2.22561E+04
 -3.25322E+03  2.42272E+04 -1.50957E+04  1.50506E+04 -1.73810E+04  3.55357E+03 -1.22684E+04 -3.61199E+03
 -5.55729E+03 -5.68485E+03 -1.01507E+03  8.59744E+02 -2.61527E+03  2.33652E+03 -5.74614E+03  5.01790E+03
 -1.14820E+04 -2.12241E+02 -1.27412E+04 -9.25537E+03 -5.09466E+03 -1.57637E+04  5.11241E+03 -1.24560E+04
  1.03453E+04 -5.83216E+03  7.03619E+03  3.62694E+03  9.44408E+01  4.86168E+03 -6.00855E+03 -4.91367E+02
 -5.31175E+03 -7.78332E+03 -5.45463E+02 -1.20066E+04  6.39995E+03 -1.22878E+04  1.42043E+04 -6.32715E+03
  1.79309E+04  1.74257E+03  1.30919E+04  1.04727E+04  2.57087E+03  1.39872E+04 -7.24969E+03  1.18460E+04
 -9.73156E+03  3.33770E+03 -4.80789E+03 -1.85540E+03  1.74187E+03 -3.19593E+03  6.30849E+03 -1.10516E+03
  6.25885E+03  4.71232E+03  8.20635E+02  9.53647E+03 -6.96353E+03  9.01236E+03 -1.17650E+04  2.08213E+03
 -7.38871E+03 -6.57737E+03  2.88527E+02 -9.56308E+03  6.34987E+03 -4.89458E+03  6.55283E+03  2.46905E+03
  1.75641E+03  6.92636E+03 -6.04258E+03  7.81687E+03 -9.64367E+03  3.45947E+03 -9.37812E+03 -3.12416E+03
 -5.38430E+03 -1.08306E+04  2.51665E+03 -1.27768E+04  1.11256E+04 -8.10107E+03  1.10659E+04  2.18356E+03
  7.36995E+03  8.69834E+03 -6.87031E+02  1.12139E+04 -8.42322E+03  6.52992E+03 -9.19085E+03 -5.82377E+02
 -8.37685E+03 -8.18931E+03 -1.22958E+03 -7.72484E+03  5.48247E+03 -7.64683E+03  5.55452E+03 -2.81078E+03
  3.55696E+03  1.61328E+03 -5.92770E+02  2.26865E+03 -3.88118E+02 -1.83014E+03  1.26649E+03 -4.75331E+03
  7.71302E+03 -2.90196E+03  1.06536E+04  1.17577E+03  1.08705E+04  7.39454E+03  7.35632E+03  1.43553E+04
 -2.85073E+03  1.64201E+04 -1.35950E+04  1.24104E+04 -1.79724E+04  1.81816E+03 -1.40203E+04 -5.47058E+03
 -7.09342E+03 -1.14053E+04 -1.72956E+02 -9.84661E+03  3.59466E+03 -5.77217E+03  4.15135E+03 -3.73796E+03
  2.52259E+03 -1.81205E+03  3.00879E+03 -3.48037E+03  4.71629E+03 -2.32273E+03  6.29292E+03 -2.69874E+02
  6.91361E+03  1.57907E+03  2.98450E+03  6.71430E+03 -2.25092E+03  6.76129E+03 -7.29497E+03  5.46470E+03
 -1.06287E+04 -1.00718E+03 -5.57569E+03 -6.43676E+03  4.36983E+01 -1.05587E+04  5.50041E+03 -9.99335E+03
  1.00420E+04 -5.95229E+03  1.27360E+04  1.26316E+03  8.38999E+03  8.32006E+03  1.81739E+03  1.14516E+04
 -3.71232E+03  9.95268E+03 -7.03121E+03  3.40650E+03 -4.39590E+03 -1.34283E+03 -1.47017E+03 -9.11848E+02
 -7.69550E+02  6.49261E+02 -1.46771E+03  2.51836E+03 -4.16908E+03  1.68328E+03 -6.82877E+03 -7.29208E+02
 -4.31104E+03 -6.16429E+03  5.74851E+02 -9.24254E+03  5.77232E+03 -9.06554E+03  8.70421E+03 -3.05887E+03
  9.12450E+03  4.23073E+03  3.83990E+03  7.52926E+03 -2.11493E+03  9.19028E+03 -6.22715E+03  5.92009E+03
 -8.59820E+03  8.04090E+02 -6.45605E+03 -5.56607E+03 -6.69268E+02 -7.28457E+03  3.46486E+03 -5.66159E+03
  5.38254E+03 -1.62344E+03  4.07980E+03  1.94473E+03  1.50805E+03  2.72848E+03  1.52147E+03  1.56830E+03
  2.58690E+03  5.15973E+02  2.10000E+03  1.80672E+03  2.59091E+03  3.49824E+03  2.35418E+03  4.84856E+03
 -1.89444E+03  6.32393E+03 -6.06639E+03  7.27335E+03 -8.03705E+03  1.70827E+03 -8.89021E+03 -2.93023E+03
 -4.33717E+03 -8.34654E+03  1.82230E+03 -9.75567E+03  4.99593E+03 -6.00734E+03  7.51472E+03 -1.66305E+03
  5.44514E+03  3.40899E+03  1.30746E+03  4.98642E+03 -2.47549E+03  3.19308E+03 -3.44689E+03 -6.38459E+02
 -1.48073E+03 -3.57590E+03  2.30597E+03 -3.67944E+03  3.62117E+03 -1.94903E+03  3.43437E+03  7.54818E+02
  1.96947E+03  1.45438E+03  1.03626E+03  3.10642E+02 -5.46792E+02  1.44486E+03  1.68415E+03  1.78902E+02
  8.43311E+02 -5.08904E+02  3.47114E+03  1.23826E+03  1.63287E+03  4.68716E+03 -8.77591E+02  6.51900E+03
 -4.29954E+03  3.86816E+03 -5.54206E+03  5.32231E+02 -4.89939E+03 -1.40783E+03 -1.43097E+03 -3.97809E+03
  4.67236E+02 -3.20920E+03  2.38083E+03 -1.33900E+03  2.09263E+03  1.88494E+03 -1.07968E+03  3.01323E+03
 -3.27357E+03  1.58633E+03 -3.80538E+03 -2.56790E+03 -1.31518E+03 -4.83143E+03  5.41118E+02 -4.55990E+03
  2.89470E+03 -2.27821E+03  3.70462E+03  1.14623E+02  2.38717E+03  8.30133E+02  6.75156E+01  2.04057E+03
 -1.30691E+03  4.52544E+02 -2.31075E+03 -2.07859E+03  1.04235E+03 -3.52298E+03  3.86389E+03 -2.55179E+03
  4.26062E+03  4.29404E+02  5.87969E+03  2.74607E+03  2.11084E+03  4.57161E+03 -8.94689E+02  5.21399E+03
 -4.25733E+03  1.78105E+03 -4.48229E+03  4.71102E+01 -1.63676E+03 -3.05782E+03  3.20775E+02 -2.66780E+03
  3.48245E+03 -1.20100E+03  2.63295E+03  1.44270E+03  5.46654E+02  3.05201E+03 -7.21456E+02  3.16545E+03
 -1.04189E+03  2.45792E+03 -1.23028E+03  7.32553E+02 -6.66087E+02  9.74369E+02 -1.67162E+03  1.32738E+03
 -1.02541E+03  2.15387E+03 -3.82149E+03  1.47147E+03 -4.97148E+03  1.01917E+02 -5.94315E+03 -2.84644E+03
 -2.68364E+03 -6.70256E+03  1.65015E+03 -8.24054E+03  3.93051E+03 -5.99751E+03  7.41261E+03 -1.90001E+03
  6.66404E+03  9.32159E+02  3.43403E+03  5.01554E+03  9.89048E+01  4.92276E+03 -2.07608E+03  4.07719E+03
 -2.78464E+03  1.21478E+03 -1.68601E+03 -7.50243E+02 -1.74959E+03  4.83493E+02 -6.34803E+02  5.41323E+02
 -1.31767E+03 -1.68815E+02 -1.10669E+03 -5.45447E+02  4.65482E+02 -1.12613E+03 -6.56920E+01 -1.90044E+03
  2.29689E+03 -1.32131E+03  2.79186E+03  4.73017E+02  3.24297E+03  2.57663E+03  5.36488E+02  5.10548E+03
 -2.98065E+03  5.77153E+03 -4.88273E+03  2.91096E+03 -5.25921E+03 -6.61934E+02 -3.89044E+03 -3.47315E+03
 -1.88802E+03 -5.33276E+03  3.68047E+02 -4.33442E+03  2.68925E+03 -3.23929E+03  3.25187E+03 -3.40039E+01
  1.64023E+03  1.74190E+03 -4.84202E+02  1.30086E+03 -1.51909E+03 -4.52187E+02 -1.07194E+02 -6.45059E+02
  7.34365E+02 -5.53246E+02  1.09668E+03  8.59213E+02  1.13726E+03  1.91236E+03  6.65774E+02  2.41662E+03
 -2.28635E+03  1.79453E+03 -2.90985E+03  3.27785E+02 -2.28586E+03 -1.84402E+03 -8.11324E+02 -3.30784E+03
  1.95066E+03 -3.45268E+03  3.36406E+03 -9.74147E+02  3.78906E+03 -2.89119E+01  1.54994E+03  2.58194E+03
  1.17117E+02  2.89123E+03 -1.42302E+03  2.18017E+03 -1.83550E+03  1.70173E+03 -5.14053E+02  8.86781E+01
 -1.35861E+03  4.42143E+02 -1.22837E+03 -3.57006E+01 -1.62132E+03  3.76417E+02 -2.77204E+03 -1.24632E+03
 -2.82223E+03 -1.67697E+03 -1.12145E+03 -2.42041E+03  1.66224E+03 -3.76677E+03  2.78258E+03 -1.28448E+03
  3.04752E+03  2.71002E+02  5.99635E+02  2.12615E+03 -3.72720E+02  3.07665E+03 -2.46821E+03  2.18848E+03
