 $NMID ID='MM_0lb_SNR400_20hz_g55_92.RAW', FMTDAT='(8E13.5)'
 TRAMP=1., VOLUME=1. $END
  3.09372E+05  9.75817E+02  3.37316E+05  2.50443E+05  8.43440E+04  3.37106E+05 -1.33215E+05  2.49662E+05
 -1.89559E+05  8.22567E+04 -1.11160E+05 -3.30160E+04  1.70515E+03 -5.04269E+04  5.44776E+04  4.53767E+01
  3.54438E+04  5.28932E+04 -1.69169E+04  7.55936E+04 -6.04226E+04  6.25878E+04 -8.36227E+04  3.15220E+04
 -7.95029E+04 -1.13258E+04 -5.66823E+04 -4.99963E+04 -1.49589E+04 -6.88613E+04  2.66356E+04 -4.55371E+04
  3.96888E+04  4.10601E+03  1.57203E+04  4.72242E+04 -3.43534E+04  4.63037E+04 -6.58945E+04 -6.47147E+02
 -5.20400E+04 -5.59635E+04 -5.97801E+03 -7.51239E+04  3.30069E+04 -5.36184E+04  4.60946E+04 -1.63700E+04
  4.17155E+04  1.08514E+04  3.08399E+04  2.43014E+04  1.54490E+04  2.86355E+04 -4.96062E+03  2.70640E+04
 -2.16279E+04  1.29604E+04 -1.93431E+04 -4.13197E+03  4.24610E+03 -7.79271E+03  2.11526E+04  1.12801E+04
  7.24221E+03  3.28793E+04 -3.02688E+04  3.44493E+04 -6.13102E+04  2.50035E+03 -5.54611E+04 -4.13505E+04
 -1.23361E+04 -6.14472E+04  3.81304E+04 -4.32781E+04  5.57119E+04 -2.06501E+03  3.21371E+04  3.04232E+04
 -6.11313E+03  3.31237E+04 -2.82748E+04  1.38815E+04 -2.78832E+04 -5.11778E+03 -1.44393E+04 -1.00655E+04
 -7.46963E+03 -1.10074E+04 -1.08125E+03 -1.70314E+04  7.16791E+03 -2.28180E+04  1.52127E+04 -1.45923E+04
  1.21097E+04  4.05570E+03 -6.02390E+03  1.27407E+04 -1.94191E+04 -2.53594E+03 -7.55198E+03 -3.05329E+04
  2.06148E+04 -4.02579E+04  4.45074E+04 -1.86623E+04  4.21952E+04  1.83374E+04  1.46154E+04  4.19162E+04
 -1.56440E+04  3.13970E+04 -2.41690E+04  9.89642E+02 -8.40331E+03 -2.70813E+04  2.05114E+04 -3.10268E+04
  3.88420E+04 -7.70586E+03  3.19693E+04  2.24300E+04  1.52041E+04  4.25098E+04 -8.02483E+03  4.49604E+04
 -2.83386E+04  2.92946E+04 -3.70512E+04  8.28306E+03 -3.80609E+04 -1.51073E+04 -2.10583E+04 -3.39953E+04
  6.62235E+03 -3.41354E+04  2.96963E+04 -1.25977E+04  2.66892E+04  1.10019E+04  3.38600E+03  1.79048E+04
 -1.24739E+04  6.73239E+03 -9.47453E+03 -7.46371E+03  5.95151E+03 -1.01783E+04  1.70405E+04  5.92126E+03
  1.23920E+04  2.18016E+04 -6.74570E+03  2.35430E+04 -2.10011E+04  8.71347E+03 -2.55582E+04 -6.70457E+03
 -1.66833E+04 -1.64576E+04 -5.75335E+03 -1.64673E+04  3.51687E+03 -1.39307E+04  1.27938E+04 -1.38822E+04
  2.09113E+04 -1.13222E+04  2.79150E+04  1.26848E+03  2.12112E+04  1.64740E+04  4.06020E+03  3.21575E+04
 -1.59408E+04  2.76587E+04 -2.57464E+04  8.79762E+03 -1.95956E+04 -1.05177E+04 -3.98553E+03 -1.40038E+04
  2.18088E+03 -4.68748E+03 -2.30853E+03  6.23196E+03 -1.26872E+04  5.61427E+03 -1.33738E+04 -5.06687E+03
 -8.96008E+03 -1.59469E+04  4.17530E+03 -1.87973E+04  1.23366E+04 -1.31315E+04  1.45860E+04 -1.27067E+03
  9.18047E+03  1.09041E+04 -1.31224E+03  1.60002E+04 -9.51728E+03  8.79747E+03 -1.50218E+04 -3.41031E+03
 -1.15582E+04 -1.39173E+04 -1.36512E+03 -1.83417E+04  8.47229E+03 -1.51237E+04  1.56397E+04 -6.90212E+03
  1.38110E+04  7.70476E+02  1.03452E+04  3.83872E+03  4.55188E+03  1.00280E+03  7.82512E+03 -1.74361E+03
  1.36349E+04  2.28942E+03  1.42273E+04  1.26704E+04  8.99963E+03  2.40120E+04 -2.78367E+03  2.57058E+04
 -1.54057E+04  1.96490E+04 -2.42945E+04  9.57042E+03 -2.41299E+04 -1.95261E+03 -2.09344E+04 -1.38656E+04
 -1.00859E+04 -1.99780E+04  6.30936E+03 -1.87922E+04  1.60588E+04 -1.06241E+04  1.50212E+04  3.20159E+03
  6.21556E+03  1.08642E+04 -6.55052E+03  1.03028E+04 -1.29490E+04  2.58366E+03 -9.95530E+03 -7.89418E+03
 -4.06603E+02 -1.17891E+04  6.08846E+03 -9.18707E+03  7.34218E+03 -2.06887E+03  1.17125E+03  5.41983E+03
 -5.56784E+03  9.27277E+02 -3.63357E+03 -4.59118E+03  7.68248E+02 -9.83953E+03  7.00128E+03 -9.72920E+03
  1.18948E+04 -4.70049E+03  1.11378E+04  3.13819E+03  1.01314E+04  8.79937E+03  4.87286E+03  1.31540E+04
 -1.64607E+03  1.47901E+04 -8.88169E+03  9.90866E+03 -1.02504E+04  2.84258E+03 -7.85443E+03 -1.58312E+03
 -4.21612E+03 -3.39241E+03 -1.04437E+03  1.49851E+03 -1.81273E+03  1.77889E+03 -3.74681E+03  3.70151E+03
 -8.09774E+03 -2.40034E+02 -8.25803E+03 -6.44745E+03 -3.49535E+03 -1.13422E+04  3.14006E+03 -8.03914E+03
  7.30173E+03 -3.58192E+03  5.45611E+03  1.92272E+03  3.81182E+02  2.97329E+03 -3.19079E+03  2.11866E+02
 -3.58251E+03 -5.06041E+03 -1.24082E+03 -6.63103E+03  3.44469E+03 -7.68379E+03  9.21554E+03 -3.85625E+03
  1.06677E+04  4.61241E+02  8.54200E+03  5.37420E+03  1.25768E+03  8.34284E+03 -4.72084E+03  8.04844E+03
 -5.91713E+03  2.67744E+03 -2.94825E+03 -8.28978E+02  1.09190E+03 -1.88011E+03  5.01103E+03 -1.34330E+03
  4.09753E+03  3.27285E+03  9.13913E+02  6.20712E+03 -3.72901E+03  6.04084E+03 -7.25636E+03  1.97727E+03
 -4.31738E+03 -3.50522E+03  4.66578E+02 -6.14923E+03  3.65304E+03 -3.45523E+03  2.87202E+03  1.16760E+03
  1.92855E+02  3.20622E+03 -3.81704E+03  4.11477E+03 -4.66961E+03  2.16125E+03 -3.65746E+03 -3.82663E+02
 -2.80566E+03 -5.31957E+03  9.12071E+02 -6.65642E+03  5.11272E+03 -4.12221E+03  5.71405E+03  7.66214E+02
  3.93121E+03  4.71387E+03  7.59128E+02  6.65131E+03 -4.34555E+03  3.46997E+03 -4.88010E+03 -9.12890E+02
 -5.74370E+03 -5.01317E+03 -1.32998E+03 -3.94246E+03  2.57814E+03 -4.11421E+03  2.45037E+03 -2.71669E+03
  2.35477E+03 -1.78758E+02  3.50642E+02  1.42889E+03  7.09595E+02 -3.34679E+01 -1.85560E+02 -1.18887E+03
  2.92338E+03 -3.62870E+02  4.60409E+03  8.04911E+02  5.05029E+03  2.90632E+03  4.84434E+03  6.37227E+03
 -7.99263E+02  7.75039E+03 -6.48694E+03  5.66471E+03 -8.91465E+03  4.59020E+02 -6.77101E+03 -1.57014E+03
 -3.46093E+03 -5.89997E+03 -4.44093E+02 -4.45475E+03  1.49346E+03 -2.01427E+03  1.14356E+03 -2.13910E+03
  1.00066E+03 -1.87924E+03  1.38790E+03 -2.52600E+03  3.72681E+03 -1.13857E+03  3.16800E+03  2.12506E+02
  3.88375E+03  8.39891E+02  5.27356E+02  3.01705E+03 -1.68260E+03  2.04022E+03 -4.05794E+03  2.22697E+03
 -3.94331E+03 -7.28698E+02 -1.19209E+03 -2.68953E+03  7.90397E+02 -3.86035E+03  2.73211E+03 -4.24710E+03
  4.84997E+03 -3.49253E+03  6.08684E+03  1.05612E+02  4.18299E+03  3.47907E+03  9.36199E+02  5.64858E+03
 -2.16072E+03  4.75462E+03 -3.38619E+03  1.13257E+03 -2.01990E+03 -1.05689E+03 -6.50086E+02 -4.38918E+02
 -2.65663E+02  7.15354E+00 -1.05186E+03  1.94806E+03 -2.26389E+03  9.79458E+02 -3.95029E+03 -8.14573E+01
 -1.34814E+03 -3.55526E+03  5.84021E+02 -3.65242E+03  2.61637E+03 -3.37974E+03  2.95446E+03 -7.69163E+02
  2.98800E+03  2.14460E+03  1.42505E+03  2.76949E+03 -7.60769E+02  3.61300E+03 -1.81536E+03  2.52016E+03
 -2.91392E+03  1.03757E+03 -2.89674E+03 -1.72864E+03  2.11186E+02 -2.88733E+03  8.82470E+02 -2.10301E+03
  2.23424E+03 -1.28766E+03  1.69826E+03  7.15529E+01 -1.33163E+01  1.01650E+03  6.83986E+02  2.39554E+02
  1.56706E+03  4.53976E+02  8.26945E+02  6.92766E+02  4.29531E+02  1.85391E+03  1.23484E+03  1.49720E+03
 -7.49503E+02  2.12854E+03 -2.32273E+03  3.57011E+03 -1.99089E+03  6.10843E+02 -3.56220E+03  1.06329E+02
 -1.35698E+03 -3.50702E+03  4.08719E+02 -3.32026E+03  1.32831E+03 -1.55653E+03  2.49204E+03 -8.77696E+02
  2.20390E+03  1.74092E+03  2.87721E+02  2.14257E+03  7.42713E+01  1.66975E+03 -4.33585E+02 -2.48963E+02
 -4.03431E+02 -8.86716E+02  1.58040E+03 -1.31398E+03  8.18893E+02 -1.28974E+03  6.57084E+02  8.30973E+02
  4.84759E+02 -3.44074E+02  9.75756E+02 -1.90015E+01 -3.53010E+02  3.75642E+02  1.84991E+03 -2.01236E+02
 -4.88662E+02  1.98768E+02  1.73487E+03  4.45719E+02 -9.73223E+01  1.72736E+03 -3.21154E+02  2.27477E+03
 -1.37654E+03  6.00980E+02 -1.22873E+03  4.69475E+02 -1.54696E+03 -9.05119E+02  1.19485E+02 -7.56779E+02
  4.29902E+02 -1.04119E+03  1.16432E+03 -1.03910E+03  3.09263E+02  1.02800E+03 -9.11070E+02  3.00426E+02
 -9.71990E+02  8.80795E+02 -9.11683E+02 -1.15711E+03 -3.77969E+02 -1.94237E+03 -1.98272E+02 -1.00354E+03
  1.59124E+02  1.51176E+02 -6.61473E+00  3.74083E+02  1.32407E+03 -5.26024E+02  4.97589E+02  7.97475E+02
 -1.88383E+02 -4.82804E+02 -9.06658E+02  2.18902E+02  7.60201E+02 -7.41073E+02  1.58569E+03 -9.03547E+02
  7.00887E+02 -4.31675E+02  2.50244E+03  2.32807E+02  8.78165E+02  8.80638E+02  3.17975E+02  1.13929E+03
 -6.96156E+02 -3.46571E+02 -1.41853E+03 -2.19579E+01  2.30322E+01 -1.30608E+03 -1.43684E+02 -5.22159E+01
  1.00584E+03 -5.07425E+02  3.05011E+02  7.37335E+02  1.00173E+02  1.23125E+03  2.30052E+02  1.47802E+03
  5.18220E+01  8.51978E+02 -7.35298E+02  4.16931E+02  1.84998E+02  6.59704E+02 -7.12629E+02  4.59942E+02
 -6.00687E+02  8.10258E+02 -1.45364E+03 -4.37547E+00 -1.09303E+03  3.17432E+02 -1.57355E+03 -1.80379E+02
 -5.73104E+02 -1.20018E+03  1.12098E+02 -1.32019E+03  5.62538E+02 -1.75234E+03  2.06715E+03 -8.10504E+02
  1.82620E+03 -6.89623E+02  1.13665E+03  8.39843E+02 -8.26960E+02  1.23695E+03 -6.34626E+02  9.11554E+02
 -6.18783E+02  8.95960E+02 -6.66991E+01 -2.87006E+02 -5.10343E+02  4.97103E+02 -5.18590E+02  4.25118E+02
 -8.99240E+02  2.19109E+02 -8.17961E+02 -1.51396E+02  6.46182E+02 -5.29850E+02 -4.61910E+02 -1.95592E+02
  1.26570E+03  6.22133E+01 -4.21363E+02  7.53481E+01  9.52432E+02  8.89159E+02 -3.89501E+02  1.44397E+03
 -5.74409E+02  1.71283E+03 -4.87373E+02  1.29080E+03 -9.94475E+02 -1.04172E+02 -8.19219E+02 -5.99127E+02
 -9.87951E+02 -7.21417E+02 -4.06519E+02 -6.32422E+02  6.85971E+02 -4.27758E+02  4.23558E+02  5.05080E+02
  2.67835E+02 -2.81758E+01 -4.10137E+02  5.47066E+02 -1.52413E+02  8.22621E+01 -2.58340E+02 -1.66680E+02
  2.37649E+02  4.55281E+02  9.38203E+01  8.22275E+02  4.76431E+01  1.32263E+02  1.60639E+02  1.37959E+02
 -5.90762E+02  1.17447E+03 -4.78367E+02  3.88135E+02 -6.22280E+02 -3.44135E+02  3.27840E+02 -7.81623E+02
  2.15655E+02  9.43051E+01 -2.70614E+02  5.32808E+02  2.60522E+02 -7.83969E+02  4.76286E+01  6.22181E+02
  4.35553E+02  3.95587E+02 -2.20970E+02  1.16668E+02 -8.69676E+02  3.21981E+02 -2.69473E+02  3.97034E+02
 -7.82551E+01 -2.14722E+02 -5.11113E+02  1.82082E+02 -3.75190E+02 -5.63299E+02 -6.89846E+02 -5.41972E+02
 -7.48350E+02  1.40461E+02 -9.51881E+00 -1.25035E+03  4.24966E+02 -1.89782E+03  7.42051E+01 -2.64672E+02
  1.21364E+02 -2.17204E+01 -8.11543E+02  4.31786E+02  1.98070E+02 -9.38423E+01 -2.13616E+02  9.25668E+02
