 $NMID ID='MM_0lb_SNR400_7hz_g40_26.RAW', FMTDAT='(8E13.5)'
 TRAMP=1., VOLUME=1. $END
  3.09624E+05  3.78255E+02  3.37901E+05  2.50609E+05  8.52341E+04  3.39190E+05 -1.32555E+05  2.52514E+05
 -1.91580E+05  8.37820E+04 -1.12175E+05 -3.19766E+04  1.00238E+01 -4.97453E+04  5.41200E+04 -9.09610E+02
  3.50336E+04  5.33741E+04 -1.60793E+04  7.63108E+04 -6.11709E+04  6.48688E+04 -8.63039E+04  3.38293E+04
 -8.17172E+04 -1.22142E+04 -5.77105E+04 -5.20498E+04 -1.51187E+04 -7.16363E+04  2.70772E+04 -4.68579E+04
  4.10642E+04  4.01219E+03  1.66892E+04  4.86684E+04 -3.50317E+04  4.81080E+04 -6.83801E+04  6.30553E+01
 -5.57481E+04 -5.77966E+04 -7.10168E+03 -7.88113E+04  3.46985E+04 -5.71576E+04  5.02242E+04 -1.93189E+04
  4.56761E+04  1.13662E+04  3.32455E+04  2.65586E+04  1.60827E+04  3.05493E+04 -5.51765E+03  2.86587E+04
 -2.30106E+04  1.17429E+04 -1.79016E+04 -6.59264E+03  7.46093E+03 -7.45957E+03  2.35087E+04  1.45164E+04
  6.46592E+03  3.86571E+04 -3.37790E+04  3.74468E+04 -6.69878E+04  2.26703E+03 -5.95275E+04 -4.49493E+04
 -1.30659E+04 -6.63768E+04  4.25698E+04 -4.76531E+04  6.13552E+04 -2.19899E+03  3.70592E+04  3.47265E+04
 -5.37991E+03  4.02833E+04 -3.31436E+04  1.94943E+04 -3.47394E+04 -3.99222E+03 -1.95811E+04 -1.23935E+04
 -9.56463E+03 -1.56331E+04 -6.30240E+02 -1.99384E+04  8.25533E+03 -2.44880E+04  1.62273E+04 -1.25948E+04
  9.47230E+03  6.40512E+03 -1.08496E+04  1.27519E+04 -2.43743E+04 -6.61637E+03 -8.80736E+03 -3.87436E+04
  2.50040E+04 -4.78340E+04  5.32366E+04 -2.10753E+04  4.84920E+04  2.09549E+04  1.76013E+04  4.75527E+04
 -1.69300E+04  3.70310E+04 -2.92846E+04  3.76560E+03 -1.19698E+04 -2.96732E+04  2.10169E+04 -3.88047E+04
  4.44675E+04 -1.18149E+04  4.18395E+04  2.64648E+04  2.29804E+04  5.25676E+04 -7.90684E+03  5.80729E+04
 -3.71035E+04  3.92208E+04 -4.96826E+04  1.15672E+04 -4.88792E+04 -1.97866E+04 -2.66050E+04 -4.25121E+04
  8.85632E+03 -4.34472E+04  3.47974E+04 -1.73086E+04  3.23786E+04  1.00567E+04  5.85048E+03  2.09079E+04
 -1.37096E+04  1.08293E+04 -1.23146E+04 -7.54734E+03  5.79826E+03 -1.19751E+04  1.89126E+04  5.97299E+03
  1.50588E+04  2.27051E+04 -5.30099E+03  2.75344E+04 -2.42903E+04  1.46393E+04 -3.25063E+04 -1.72059E+03
 -2.54082E+04 -1.77025E+04 -1.26544E+04 -2.61225E+04  4.68015E+03 -2.59292E+04  2.04262E+04 -2.40083E+04
  3.35708E+04 -1.52215E+04  3.98244E+04  5.81186E+03  2.82755E+04  2.54409E+04  4.18777E+03  4.31812E+04
 -2.04945E+04  3.49095E+04 -3.09560E+04  1.32404E+04 -2.33560E+04 -1.00557E+04 -5.09023E+03 -1.21310E+04
  1.12068E+02 -6.87396E+02 -7.91577E+03  9.32756E+03 -2.11600E+04  5.49631E+03 -2.12379E+04 -9.69063E+03
 -1.29186E+04 -2.42145E+04  6.27040E+03 -2.82644E+04  1.96228E+04 -2.06028E+04  2.40914E+04 -9.76206E+02
  1.52640E+04  1.77889E+04 -1.17717E+03  2.39689E+04 -1.77468E+04  1.44827E+04 -2.44174E+04 -5.02394E+03
 -1.89719E+04 -2.17728E+04 -2.10847E+03 -2.92114E+04  1.25400E+04 -2.48882E+04  2.31126E+04 -1.34500E+04
  2.29860E+04 -4.54580E+02  1.70120E+04  5.43088E+03  9.90655E+03  1.86916E+03  1.33435E+04 -2.18003E+03
  2.33609E+04  2.41578E+03  2.82024E+04  1.97915E+04  1.89958E+04  3.89269E+04 -2.93093E+03  4.71494E+04
 -2.72017E+04  3.96459E+04 -4.43905E+04  2.03580E+04 -4.78193E+04 -2.74501E+03 -3.83018E+04 -2.79403E+04
 -1.47643E+04 -4.01010E+04  1.41687E+04 -3.44074E+04  2.91211E+04 -1.55910E+04  2.57592E+04  8.68297E+03
  7.96250E+03  2.07280E+04 -1.26121E+04  1.55900E+04 -2.09577E+04  2.45977E+03 -1.57525E+04 -1.29487E+04
 -4.50756E+02 -2.06754E+04  1.13108E+04 -1.54891E+04  1.40705E+04 -1.60506E+03  3.63843E+03  9.39006E+03
 -9.46817E+03  4.16454E+03 -1.05513E+04 -7.39029E+03 -2.26615E+03 -1.99898E+04  1.21611E+04 -2.22155E+04
  2.43807E+04 -1.22242E+04  2.89247E+04  3.51286E+03  2.49714E+04  1.96522E+04  1.17134E+04  3.28274E+04
 -7.55703E+03  3.43167E+04 -2.18789E+04  2.02086E+04 -2.46137E+04  4.67798E+03 -1.70169E+04 -7.14450E+03
 -7.26614E+03 -8.30413E+03 -6.60799E+02  5.06254E+01 -3.61346E+03  3.51210E+03 -8.33921E+03  5.66851E+03
 -1.64413E+04 -1.18314E+03 -1.60152E+04 -1.25778E+04 -6.02685E+03 -2.02964E+04  6.82466E+03 -1.70973E+04
  1.41346E+04 -6.83490E+03  1.00927E+04  5.11291E+03  4.16710E+02  6.96249E+03 -8.82812E+03 -4.25133E+02
 -8.10191E+03 -1.14704E+04 -1.40194E+03 -1.71812E+04  1.02324E+04 -1.84482E+04  2.30879E+04 -9.72173E+03
  2.65740E+04  2.40149E+03  1.83257E+04  1.53348E+04  3.27004E+03  2.16912E+04 -1.04792E+04  1.68541E+04
 -1.39173E+04  4.45054E+03 -7.60670E+03 -4.22146E+03  1.91684E+03 -4.61021E+03  8.69931E+03 -8.09890E+02
  7.68576E+03  7.08986E+03  2.06804E+03  1.43432E+04 -1.07251E+04  1.21613E+04 -1.75037E+04  2.59869E+03
 -1.18959E+04 -8.56536E+03 -6.50094E+02 -1.47941E+04  9.27636E+03 -8.19095E+03  1.09634E+04  4.69721E+03
  3.23801E+03  1.10278E+04 -9.50806E+03  1.24662E+04 -1.54231E+04  5.32605E+03 -1.61558E+04 -5.48780E+03
 -9.21536E+03 -1.81491E+04  4.97144E+03 -2.01339E+04  1.67835E+04 -1.20741E+04  2.00304E+04  2.74569E+03
  1.11025E+04  1.59864E+04 -2.37902E+03  1.74849E+04 -1.23649E+04  9.38370E+03 -1.50101E+04 -1.49215E+03
 -1.21815E+04 -1.15497E+04 -1.49850E+03 -1.34570E+04  6.74920E+03 -1.16411E+04  9.15430E+03 -4.14384E+03
  4.81807E+03  3.08626E+03 -1.63878E+03  1.78242E+03 -2.09601E+03 -3.50678E+03  3.55792E+03 -7.68213E+03
  1.20560E+04 -5.88303E+03  1.86961E+04  1.77358E+03  1.84496E+04  1.22546E+04  1.05984E+04  2.44137E+04
 -6.21980E+03  2.70187E+04 -2.23286E+04  1.95001E+04 -2.99906E+04  3.84720E+03 -2.41528E+04 -9.92164E+03
 -1.15223E+04 -1.85251E+04  2.11866E+02 -1.69128E+04  5.68975E+03 -9.46416E+03  5.27540E+03 -5.79051E+03
  4.44042E+03 -4.26559E+03  3.95441E+03 -4.38105E+03  6.33296E+03 -3.88852E+03  9.32600E+03 -1.64428E+03
  1.22683E+04  2.59283E+03  6.86406E+03  1.09628E+04 -2.83540E+03  1.35000E+04 -1.30968E+04  1.07010E+04
 -1.81571E+04 -1.95739E+03 -1.12633E+04 -1.19420E+04 -2.99228E+03 -1.83614E+04  1.03440E+04 -1.79968E+04
  1.97698E+04 -9.97718E+03  2.26211E+04  3.45020E+03  1.60586E+04  1.62589E+04  2.16366E+03  2.03951E+04
 -9.16604E+03  1.72466E+04 -1.24520E+04  5.43875E+03 -7.88894E+03 -1.04963E+03 -4.02471E+03 -3.32620E+03
 -1.58699E+03  4.43730E+01 -2.33733E+03  3.29910E+03 -7.26227E+03  3.40858E+03 -1.13723E+04 -2.52086E+03
 -9.50804E+03 -1.17233E+04  6.66748E+02 -1.71451E+04  1.05310E+04 -1.51465E+04  1.81059E+04 -4.62843E+03
  1.75789E+04  8.32859E+03  7.79943E+03  1.66712E+04 -3.26520E+03  1.85473E+04 -1.27039E+04  1.19113E+04
 -1.64727E+04  5.13784E+01 -1.28036E+04 -1.15423E+04 -1.88423E+03 -1.52407E+04  7.27149E+03 -1.15880E+04
  1.04992E+04 -2.94204E+03  7.79356E+03  3.57606E+03  3.15431E+03  5.72912E+03  1.83172E+03  2.91325E+03
  2.98738E+03  1.08782E+03  2.97621E+03  2.80510E+03  5.41386E+03  6.08150E+03  4.96832E+03  8.97274E+03
 -3.48286E+03  1.42904E+04 -1.33760E+04  1.41334E+04 -1.92136E+04  3.76031E+03 -1.92730E+04 -7.90195E+03
 -8.48302E+03 -1.82665E+04  2.74531E+03 -1.95471E+04  1.12403E+04 -1.32296E+04  1.49005E+04 -3.27563E+03
  1.09319E+04  7.03995E+03  2.71332E+03  1.06399E+04 -4.47771E+03  7.20771E+03 -7.73483E+03 -1.42317E+03
 -3.49752E+03 -6.84543E+03  4.31386E+03 -7.29145E+03  7.50548E+03 -4.43889E+03  7.38039E+03  1.52507E+03
  3.87586E+03  3.79288E+03  1.94622E+03  2.92131E+03 -5.10889E+02  2.69940E+03  1.18368E+03 -7.87408E+02
  3.28876E+03 -1.26654E+03  7.63751E+03  3.01319E+03  4.46458E+03  9.46745E+03 -1.93066E+03  1.27850E+04
 -8.44279E+03  8.24441E+03 -1.19107E+04  2.41951E+03 -1.05688E+04 -5.06809E+03 -3.40194E+03 -7.50379E+03
  7.22725E+02 -8.12475E+03  4.89803E+03 -3.64169E+03  3.94886E+03  3.24563E+03 -1.66913E+03  6.28748E+03
 -8.04143E+03  4.41327E+03 -8.36009E+03 -3.98172E+03 -4.93473E+03 -9.53519E+03  1.48394E+03 -9.86466E+03
  7.13527E+03 -6.53823E+03  7.59514E+03  3.25049E+01  7.73711E+03  3.22682E+03  9.22110E+02  5.78033E+03
 -2.97825E+03  1.45898E+03 -4.28185E+03 -3.77364E+03  1.80455E+03 -8.19574E+03  9.51469E+03 -6.93982E+03
  1.24115E+04  6.32432E+02  1.16688E+04  8.70875E+03  3.70516E+03  1.31159E+04 -5.33108E+03  1.21283E+04
 -1.06340E+04  5.44221E+03 -1.12046E+04 -9.24834E+02 -5.57759E+03 -8.45475E+03  2.57739E+03 -8.03081E+03
  7.67172E+03 -4.12236E+03  6.82745E+03  4.24662E+03  3.05871E+03  7.41103E+03 -2.16188E+03  6.50177E+03
 -3.76107E+03  4.14935E+03 -2.79419E+03  1.89969E+03 -1.45507E+03  1.51439E+03 -1.76803E+03  1.82292E+03
 -3.53413E+03  5.13140E+03 -8.68048E+03  4.74276E+03 -1.27048E+04  5.49233E+02 -1.53088E+04 -8.54143E+03
 -8.30019E+03 -1.87376E+04  3.58629E+03 -1.94883E+04  1.27171E+04 -1.46339E+04  1.92597E+04 -6.38975E+03
  1.75330E+04  4.35289E+03  1.14505E+04  1.21136E+04  1.81376E+03  1.37785E+04 -5.41122E+03  9.99785E+03
 -7.68420E+03  3.35047E+03 -5.80742E+03 -1.38869E+03 -1.71949E+03 -1.28788E+03 -1.20366E+03 -1.65560E+02
 -2.09359E+03 -3.41541E+02 -2.82977E+03 -3.63226E+02 -4.12855E+02 -3.50633E+03  1.03449E+03 -5.21913E+03
  5.83026E+03 -5.26310E+03  9.12766E+03  6.57819E+02  9.08404E+03  7.72703E+03  2.52465E+03  1.42442E+04
 -6.36191E+03  1.54170E+04 -1.43820E+04  8.75016E+03 -1.76719E+04 -9.61953E+02 -1.35912E+04 -1.02854E+04
 -5.21901E+03 -1.40095E+04  4.47928E+03 -1.26126E+04  8.83300E+03 -7.01192E+03  9.27475E+03 -7.93748E+02
  4.81079E+03  5.19963E+03 -6.93316E+02  3.38113E+03 -2.30330E+03 -8.38936E+02 -6.36743E+02 -3.18387E+03
  4.01457E+03 -2.10403E+03  6.10005E+03  2.29231E+03  3.97923E+03  5.20130E+03  8.06179E+01  8.05800E+03
 -6.63093E+03  6.70419E+03 -1.03242E+04  4.44921E+02 -8.74324E+03 -6.68433E+03 -2.58749E+03 -1.29904E+04
  6.72417E+03 -1.10533E+04  1.11282E+04 -3.15421E+03  1.14841E+04  3.26202E+03  6.55356E+03  8.98912E+03
  1.26606E+03  9.23863E+03 -4.36165E+03  8.85028E+03 -5.88948E+03  4.40349E+03 -5.05816E+03  1.75527E+02
 -2.22775E+03 -8.18943E+02 -1.99921E+03  2.13189E+03 -5.69500E+03  1.84915E+03 -8.03522E+03 -1.53554E+03
 -7.30091E+03 -5.75963E+03 -1.63172E+03 -9.79170E+03  4.29629E+03 -9.82656E+03  9.02089E+03 -4.74523E+03
  1.00168E+04  8.78659E+02  6.17320E+03  7.34945E+03 -8.96508E+02  9.72816E+03 -7.55836E+03  6.66107E+03
