 $NMID ID='MM_0lb_SNR400_15hz_g60_67.RAW', FMTDAT='(8E13.5)'
 TRAMP=1., VOLUME=1. $END
  3.09704E+05  5.43613E+02  3.37763E+05  2.50230E+05  8.45851E+04  3.38125E+05 -1.32593E+05  2.51344E+05
 -1.90519E+05  8.36570E+04 -1.11466E+05 -3.29475E+04  6.05173E+02 -5.05598E+04  5.41756E+04 -3.11290E+02
  3.49644E+04  5.24213E+04 -1.66163E+04  7.54871E+04 -6.07552E+04  6.39151E+04 -8.44882E+04  3.22118E+04
 -8.18147E+04 -1.17401E+04 -5.77315E+04 -5.11360E+04 -1.52089E+04 -7.00668E+04  2.70763E+04 -4.56836E+04
  4.05123E+04  3.88241E+03  1.57150E+04  4.83520E+04 -3.45895E+04  4.73723E+04 -6.61206E+04  3.11447E+02
 -5.36617E+04 -5.71507E+04 -6.79452E+03 -7.72505E+04  3.46021E+04 -5.56006E+04  4.91869E+04 -1.73649E+04
  4.39229E+04  1.14681E+04  3.16275E+04  2.53891E+04  1.58926E+04  2.95785E+04 -5.04944E+03  2.79573E+04
 -2.22338E+04  1.16059E+04 -1.89021E+04 -5.55548E+03  5.61274E+03 -6.88078E+03  2.28558E+04  1.32689E+04
  6.79111E+03  3.55839E+04 -3.27358E+04  3.58798E+04 -6.39866E+04  2.25473E+03 -5.74712E+04 -4.32344E+04
 -1.24715E+04 -6.32657E+04  3.95258E+04 -4.57250E+04  5.92057E+04 -1.90135E+03  3.47557E+04  3.27146E+04
 -5.90149E+03  3.64334E+04 -2.98526E+04  1.63591E+04 -3.05401E+04 -4.42077E+03 -1.72002E+04 -1.09355E+04
 -9.05870E+03 -1.30755E+04 -1.41654E+03 -1.85997E+04  7.32878E+03 -2.31129E+04  1.56480E+04 -1.27899E+04
  1.10992E+04  5.50500E+03 -8.29880E+03  1.28626E+04 -2.18552E+04 -4.82377E+03 -9.09799E+03 -3.49287E+04
  2.31885E+04 -4.39362E+04  4.87772E+04 -1.97443E+04  4.60458E+04  2.01387E+04  1.56855E+04  4.44110E+04
 -1.64400E+04  3.37543E+04 -2.53499E+04  1.75206E+03 -1.01074E+04 -2.85007E+04  2.12756E+04 -3.38802E+04
  4.13966E+04 -9.25208E+03  3.62644E+04  2.40773E+04  1.82694E+04  4.73716E+04 -8.79213E+03  5.06895E+04
 -3.20898E+04  3.44246E+04 -4.29893E+04  9.45837E+03 -4.35161E+04 -1.65467E+04 -2.40338E+04 -3.87579E+04
  7.33085E+03 -3.82922E+04  3.23368E+04 -1.52345E+04  2.95329E+04  1.08132E+04  4.35334E+03  1.95227E+04
 -1.34499E+04  8.44477E+03 -1.00345E+04 -8.08437E+03  4.92248E+03 -1.10728E+04  1.77089E+04  6.15231E+03
  1.30671E+04  2.20982E+04 -6.16700E+03  2.53159E+04 -2.23098E+04  1.16262E+04 -2.84285E+04 -4.70906E+03
 -2.13674E+04 -1.79650E+04 -8.74313E+03 -2.12010E+04  4.37024E+03 -2.04034E+04  1.61478E+04 -1.93082E+04
  2.66336E+04 -1.29478E+04  3.34155E+04  2.75008E+03  2.43561E+04  2.01545E+04  4.15347E+03  3.71716E+04
 -1.78232E+04  3.14918E+04 -2.77827E+04  1.04497E+04 -2.09373E+04 -1.00637E+04 -4.07380E+03 -1.30886E+04
  1.03997E+03 -2.89295E+03 -5.37758E+03  6.23468E+03 -1.64448E+04  5.40699E+03 -1.67657E+04 -7.14308E+03
 -1.02041E+04 -1.94513E+04  5.43235E+03 -2.35703E+04  1.62474E+04 -1.63097E+04  1.83218E+04 -1.63751E+03
  1.14822E+04  1.34508E+04 -9.90099E+02  1.93708E+04 -1.36575E+04  1.04347E+04 -1.95675E+04 -4.45705E+03
 -1.47018E+04 -1.70812E+04 -1.68438E+03 -2.29561E+04  1.03248E+04 -1.92769E+04  1.90653E+04 -1.02208E+04
  1.80885E+04  4.76052E+02  1.34401E+04  4.65148E+03  7.26671E+03  1.25513E+03  1.03533E+04 -1.22004E+03
  1.72025E+04  3.25666E+03  2.00272E+04  1.54088E+04  1.29019E+04  3.10899E+04 -2.91675E+03  3.51153E+04
 -2.07558E+04  2.80496E+04 -3.26378E+04  1.38315E+04 -3.40448E+04 -2.40195E+03 -2.82897E+04 -1.96933E+04
 -1.16050E+04 -2.83483E+04  1.01864E+04 -2.55260E+04  2.13057E+04 -1.27290E+04  1.97451E+04  6.04453E+03
  7.22283E+03  1.44173E+04 -9.10351E+03  1.29453E+04 -1.62588E+04  2.69580E+03 -1.25628E+04 -1.05650E+04
  9.47087E+01 -1.47464E+04  8.25941E+03 -1.12920E+04  1.01551E+04 -1.94658E+03  2.24350E+03  6.84176E+03
 -7.70736E+03  2.68829E+03 -6.07830E+03 -5.72740E+03 -4.80356E+02 -1.36714E+04  9.56127E+03 -1.44998E+04
  1.74294E+04 -7.42867E+03  1.82893E+04  3.30305E+03  1.60766E+04  1.33089E+04  7.30451E+03  2.07693E+04
 -2.64884E+03  2.26172E+04 -1.45306E+04  1.49195E+04 -1.60827E+04  3.44611E+03 -1.13254E+04 -3.51938E+03
 -4.89048E+03 -4.83458E+03 -3.70882E+02  9.69493E+02 -2.43550E+03  2.95106E+03 -4.78657E+03  3.96136E+03
 -1.05867E+04 -7.48710E+02 -1.02446E+04 -8.82060E+03 -4.79851E+03 -1.48649E+04  4.55294E+03 -1.11722E+04
  9.22471E+03 -4.51403E+03  7.01309E+03  3.08963E+03 -5.79582E+01  4.25430E+03 -5.81588E+03  3.48098E+02
 -5.22990E+03 -7.86934E+03 -8.46589E+02 -1.02527E+04  5.67963E+03 -1.12998E+04  1.39330E+04 -6.50744E+03
  1.66552E+04  1.45991E+03  1.21029E+04  9.59279E+03  1.84412E+03  1.20812E+04 -7.46166E+03  1.14758E+04
 -9.55821E+03  2.74962E+03 -4.36577E+03 -2.13762E+03  1.67859E+03 -2.87338E+03  5.67289E+03 -1.34679E+03
  5.69855E+03  4.83846E+03  7.22261E+02  8.84564E+03 -5.74928E+03  8.85515E+03 -1.12201E+04  2.29550E+03
 -7.37341E+03 -5.89039E+03 -1.92349E+02 -9.90247E+03  4.98040E+03 -5.10638E+03  4.78046E+03  1.99034E+03
  1.37967E+03  5.92825E+03 -6.19405E+03  7.88746E+03 -7.74272E+03  3.52555E+03 -7.81838E+03 -2.98884E+03
 -4.94301E+03 -9.82347E+03  2.89450E+03 -1.13119E+04  9.70129E+03 -7.34698E+03  1.01889E+04  1.38099E+03
  6.48564E+03  8.44436E+03 -6.36663E+02  1.00670E+04 -7.14842E+03  5.47228E+03 -7.86984E+03 -7.53742E+02
 -7.94701E+03 -7.04453E+03 -9.98674E+02 -7.86688E+03  3.60332E+03 -7.10366E+03  4.89661E+03 -2.98488E+03
  4.26361E+03  1.27291E+03 -2.64166E+02  1.91457E+03 -2.08405E+02 -9.49012E+02  1.09633E+03 -3.92134E+03
  6.61763E+03 -1.68026E+03  8.98543E+03  1.20261E+03  9.26551E+03  6.80819E+03  7.52232E+03  1.21491E+04
 -2.16760E+03  1.30010E+04 -1.20223E+04  1.01088E+04 -1.54515E+04  1.03260E+03 -1.19921E+04 -5.22059E+03
 -6.84518E+03 -1.02291E+04 -5.05036E+02 -8.91120E+03  3.86164E+03 -4.20574E+03  3.33572E+03 -3.05392E+03
  2.21431E+03 -2.22316E+03  2.66249E+03 -2.97011E+03  4.51207E+03 -1.35426E+03  5.46750E+03 -7.78257E+02
  6.72758E+03  1.44651E+03  2.68478E+03  5.58722E+03 -1.80445E+03  5.73783E+03 -6.38607E+03  4.27189E+03
 -8.11984E+03 -1.22805E+03 -4.37464E+03 -4.82406E+03 -9.69746E+01 -8.77605E+03  4.83528E+03 -8.77612E+03
  8.66189E+03 -5.68029E+03  1.09652E+04  8.29775E+02  7.37906E+03  7.56226E+03  1.47111E+03  9.74745E+03
 -3.71266E+03  8.24930E+03 -4.70187E+03  3.36531E+03 -3.64643E+03 -1.43596E+03 -1.21911E+03 -1.16225E+03
 -1.14393E+03 -1.40139E+02 -1.49149E+03  2.24696E+03 -3.97911E+03  1.98827E+03 -6.55798E+03 -9.11354E+02
 -2.85670E+03 -5.93877E+03  1.06228E+03 -7.26400E+03  4.13177E+03 -7.35830E+03  7.21316E+03 -2.08808E+03
  7.71745E+03  3.52937E+03  3.15392E+03  6.76127E+03 -1.65001E+03  7.47819E+03 -5.12665E+03  4.83863E+03
 -6.76873E+03  7.31346E+02 -5.47560E+03 -4.97527E+03 -7.93818E+02 -6.36773E+03  3.07750E+03 -4.53274E+03
  5.30003E+03 -2.04408E+03  2.91620E+03  9.16007E+02  1.32601E+03  3.05621E+03  1.07978E+03  1.03910E+03
  2.46053E+03  5.42036E+02  2.06854E+03  1.63525E+03  2.33361E+03  2.89592E+03  2.24989E+03  3.56835E+03
 -1.84115E+03  5.81943E+03 -4.68462E+03  6.24645E+03 -7.25054E+03  1.71089E+03 -6.97331E+03 -2.49260E+03
 -3.31387E+03 -7.85641E+03  7.26372E+02 -8.05212E+03  3.85511E+03 -5.07835E+03  5.66156E+03 -8.27037E+02
  4.47459E+03  2.74535E+03  6.63534E+02  4.03619E+03 -1.96645E+03  2.70510E+03 -1.80851E+03 -3.56970E+02
 -1.24509E+03 -2.39084E+03  1.85048E+03 -3.02238E+03  2.09499E+03 -1.20862E+03  2.50693E+03  6.21082E+02
  1.48900E+03  1.26422E+03  8.70877E+02  5.09374E+02 -3.89536E+01  1.04216E+03  2.03078E+03 -6.95926E+02
  5.82943E+02  3.87827E+02  3.13425E+03  5.95383E+02  1.47775E+03  3.81078E+03 -9.34280E+02  4.43421E+03
 -2.90213E+03  2.47217E+03 -4.36612E+03  8.59401E+02 -4.17637E+03 -1.21441E+03 -8.26571E+02 -1.73994E+03
  1.37256E+02 -2.79230E+03  1.92867E+03 -1.40746E+03  1.82080E+03  1.90572E+03 -4.96610E+02  1.80225E+03
 -2.35365E+03  1.49275E+03 -2.65026E+03 -1.99416E+03 -1.27350E+03 -3.33410E+03  5.99973E+02 -3.35680E+03
  2.15654E+03 -1.41105E+03  1.83072E+03  4.61397E+02  2.76048E+03 -3.29829E+02 -2.54920E+01  2.35894E+03
 -1.20807E+03  3.26384E+02 -1.51176E+03 -8.33417E+02  6.43365E+02 -1.88908E+03  3.47476E+03 -1.69216E+03
  2.92370E+03  3.55117E+02  3.72127E+03  2.52025E+03  1.15692E+03  3.56309E+03 -1.24442E+03  4.32469E+03
 -2.73356E+03  1.24844E+03 -2.61721E+03 -8.22096E+02 -1.37331E+03 -2.45373E+03  6.74388E+02 -1.45882E+03
  2.71765E+03 -1.61965E+03  1.76621E+03  1.24670E+03  7.34279E+02  2.08805E+03  6.12405E+02  2.51299E+03
 -1.40427E+03  1.50265E+03 -1.05091E+03  9.71715E+02 -4.03380E+02  6.41284E+02 -1.34698E+03  9.43352E+02
 -1.17109E+03  1.40348E+03 -3.02313E+03  8.21159E+02 -3.15689E+03 -1.62157E+02 -4.59447E+03 -1.82414E+03
 -1.60866E+03 -4.52281E+03  1.19775E+03 -5.42593E+03  2.54323E+03 -4.07902E+03  5.06007E+03 -1.96623E+03
  5.46345E+03  6.05090E+02  2.58974E+03  3.07522E+03  1.76265E+00  3.51720E+03 -1.94651E+03  2.71216E+03
 -2.20701E+03  1.10422E+03 -1.16644E+03 -8.77936E+02 -5.16021E+02  4.05368E+02 -3.39675E+01  9.88112E+00
 -2.51913E+03  3.26608E+02 -1.51616E+03  2.40426E+02 -3.59804E+01 -7.76169E+02 -5.41462E+02 -1.57695E+03
  1.72344E+03 -8.66516E+02  1.74969E+03 -2.92718E+02  1.97969E+03  2.14281E+03  6.01447E+02  3.09561E+03
 -1.43249E+03  4.03535E+03 -3.47882E+03  2.22313E+03 -3.18007E+03  1.32761E+02 -2.98454E+03 -3.47169E+03
 -1.19594E+03 -2.80410E+03  8.99057E+02 -3.21072E+03  1.78031E+03 -1.83557E+03  1.99762E+03 -7.43170E+01
  1.32768E+03  1.37196E+03 -6.12259E+02  5.84584E+02 -4.53084E+02 -2.61545E+02 -4.08247E+02  2.13765E+02
  9.58669E+02 -8.03103E+00  1.05399E+03  8.98889E+02  6.04232E+02  7.55948E+02  9.23312E+02  1.92360E+03
 -7.16164E+02  8.88441E+02 -2.05277E+03  6.43285E+02 -1.21377E+03 -1.36695E+03 -3.24210E+02 -2.57240E+03
  1.94542E+03 -2.01058E+03  1.82579E+03 -7.83957E+02  1.82294E+03 -8.49994E+01  1.09656E+03  1.88631E+03
  4.13986E+02  1.56468E+03 -5.98777E+02  1.30440E+03 -1.22424E+03  1.17951E+03 -7.24268E+02  4.86192E+02
 -3.74484E+02 -1.30512E+02 -1.25975E+03  2.95066E+02 -7.05561E+02 -3.06557E+02 -1.36750E+03 -2.52675E+00
 -1.66277E+03 -1.87401E+02 -1.02649E+03 -2.37807E+03  8.87872E+02 -2.69129E+03  1.72561E+03 -6.33749E+02
  1.62719E+03 -1.29060E+02 -7.11751E+00  5.08984E+02 -9.41793E+01  2.32074E+03 -9.21186E+02  1.44525E+03
