 $NMID ID='MM_0lb_SNR400_12hz_g55_68.RAW', FMTDAT='(8E13.5)'
 TRAMP=1., VOLUME=1. $END
  3.09200E+05 -3.19589E+02  3.37390E+05  2.50787E+05  8.45122E+04  3.38360E+05 -1.33279E+05  2.51677E+05
 -1.90799E+05  8.29776E+04 -1.12133E+05 -3.20470E+04  7.20234E+01 -5.05122E+04  5.37993E+04 -7.58724E+02
  3.53717E+04  5.29921E+04 -1.65684E+04  7.62015E+04 -6.11811E+04  6.41996E+04 -8.52323E+04  3.28614E+04
 -8.12681E+04 -1.11978E+04 -5.82701E+04 -5.21401E+04 -1.46317E+04 -6.99576E+04  2.81294E+04 -4.62267E+04
  4.02166E+04  3.57158E+03  1.64889E+04  4.75517E+04 -3.43787E+04  4.72714E+04 -6.76302E+04  1.06602E+02
 -5.47749E+04 -5.67443E+04 -7.32166E+03 -7.86412E+04  3.36783E+04 -5.66873E+04  4.85299E+04 -1.80529E+04
  4.42496E+04  1.23137E+04  3.20184E+04  2.60560E+04  1.64817E+04  3.00525E+04 -5.31695E+03  2.68749E+04
 -2.17314E+04  1.26447E+04 -1.79819E+04 -5.66533E+03  6.18414E+03 -7.62750E+03  2.38734E+04  1.33583E+04
  6.88214E+03  3.65904E+04 -3.28133E+04  3.63324E+04 -6.50840E+04  1.91640E+03 -5.75446E+04 -4.44152E+04
 -1.29533E+04 -6.41933E+04  4.09874E+04 -4.69759E+04  5.98474E+04 -2.07955E+03  3.52640E+04  3.37100E+04
 -5.37829E+03  3.76797E+04 -3.11593E+04  1.76261E+04 -3.21788E+04 -3.97663E+03 -1.84187E+04 -1.07970E+04
 -9.02722E+03 -1.40604E+04 -4.98503E+02 -1.91814E+04  7.85078E+03 -2.34417E+04  1.61756E+04 -1.29910E+04
  1.08421E+04  6.40763E+03 -9.36147E+03  1.31599E+04 -2.22940E+04 -5.60422E+03 -8.39842E+03 -3.62572E+04
  2.42067E+04 -4.55810E+04  5.09992E+04 -2.04373E+04  4.65935E+04  2.02227E+04  1.65620E+04  4.60128E+04
 -1.61857E+04  3.48826E+04 -2.66224E+04  2.61117E+03 -1.08286E+04 -2.89562E+04  2.10252E+04 -3.62000E+04
  4.28192E+04 -9.27648E+03  3.76982E+04  2.49453E+04  1.92463E+04  4.89428E+04 -8.44386E+03  5.36328E+04
 -3.36232E+04  3.60792E+04 -4.43902E+04  1.02055E+04 -4.55302E+04 -1.70603E+04 -2.52056E+04 -4.04099E+04
  7.36793E+03 -3.92992E+04  3.33582E+04 -1.64100E+04  3.08507E+04  1.11644E+04  4.82737E+03  2.00507E+04
 -1.36863E+04  9.53952E+03 -1.08018E+04 -7.97672E+03  5.52703E+03 -1.14852E+04  1.80965E+04  5.00192E+03
  1.37556E+04  2.17597E+04 -5.97199E+03  2.56564E+04 -2.35033E+04  1.42510E+04 -2.95848E+04 -3.66973E+03
 -2.35344E+04 -1.79531E+04 -9.76737E+03 -2.25832E+04  4.20912E+03 -2.28167E+04  1.83342E+04 -2.08558E+04
  2.90468E+04 -1.33343E+04  3.57712E+04  3.31765E+03  2.54913E+04  2.15681E+04  4.58581E+03  3.94796E+04
 -1.88320E+04  3.24036E+04 -2.89994E+04  1.10019E+04 -2.18618E+04 -1.03502E+04 -4.70214E+03 -1.34579E+04
  1.01989E+03 -2.25879E+03 -6.47745E+03  7.25664E+03 -1.87137E+04  4.65310E+03 -1.89046E+04 -8.47633E+03
 -1.11389E+04 -2.11405E+04  5.85328E+03 -2.52868E+04  1.68537E+04 -1.85294E+04  2.03883E+04 -1.62582E+03
  1.26839E+04  1.41778E+04 -1.33933E+03  2.10254E+04 -1.51458E+04  1.14810E+04 -2.09452E+04 -3.73873E+03
 -1.55892E+04 -1.90002E+04 -1.80224E+03 -2.48118E+04  1.15859E+04 -2.05538E+04  2.18727E+04 -1.02037E+04
  1.97037E+04  2.59955E+02  1.42638E+04  4.48706E+03  8.26225E+03  1.14668E+03  1.09776E+04 -1.61106E+03
  2.00459E+04  3.36049E+03  2.25580E+04  1.66267E+04  1.50783E+04  3.36805E+04 -2.64016E+03  3.96786E+04
 -2.24906E+04  3.21552E+04 -3.66607E+04  1.63367E+04 -3.90472E+04 -3.41012E+03 -3.20694E+04 -2.21379E+04
 -1.27286E+04 -3.19221E+04  1.10299E+04 -2.81553E+04  2.46183E+04 -1.41128E+04  2.16923E+04  6.74749E+03
  7.59643E+03  1.61337E+04 -9.86541E+03  1.41219E+04 -1.84642E+04  2.77935E+03 -1.38302E+04 -1.13131E+04
  4.62770E+01 -1.65711E+04  8.83387E+03 -1.31581E+04  1.19166E+04 -2.01522E+03  2.49983E+03  8.33044E+03
 -7.79181E+03  2.92910E+03 -7.16721E+03 -6.24384E+03 -2.45263E+02 -1.56399E+04  1.04243E+04 -1.67486E+04
  1.99437E+04 -9.40131E+03  2.27115E+04  2.62232E+03  1.91941E+04  1.56420E+04  9.09826E+03  2.47405E+04
 -4.98874E+03  2.70381E+04 -1.72742E+04  1.64023E+04 -1.87058E+04  3.61975E+03 -1.38138E+04 -4.95635E+03
 -5.31865E+03 -5.65737E+03 -1.44464E+03  2.95808E+02 -3.10875E+03  3.26819E+03 -6.08825E+03  5.42729E+03
 -1.28003E+04 -3.48795E+02 -1.31003E+04 -1.05747E+04 -4.36441E+03 -1.67819E+04  5.59187E+03 -1.30416E+04
  1.15653E+04 -5.11833E+03  7.51626E+03  3.47502E+03  5.74890E+02  6.15002E+03 -6.85706E+03  2.09928E+01
 -5.79058E+03 -8.24649E+03 -5.93601E+02 -1.29119E+04  7.59610E+03 -1.36974E+04  1.66175E+04 -7.03368E+03
  1.95646E+04  2.54306E+03  1.37335E+04  1.18741E+04  2.86897E+03  1.59390E+04 -8.79354E+03  1.31552E+04
 -1.06549E+04  3.42285E+03 -5.73060E+03 -2.30800E+03  1.07984E+03 -3.12065E+03  6.60793E+03 -1.62433E+03
  5.55826E+03  5.65216E+03  1.19783E+03  1.03414E+04 -7.96563E+03  9.95496E+03 -1.25158E+04  2.77496E+03
 -8.43147E+03 -6.88083E+03  7.15938E+02 -1.17885E+04  7.10247E+03 -4.94623E+03  6.87832E+03  2.54916E+03
  1.95560E+03  8.13566E+03 -6.59211E+03  9.37935E+03 -1.05915E+04  4.15441E+03 -1.12003E+04 -3.33405E+03
 -6.07810E+03 -1.27952E+04  2.64171E+03 -1.36704E+04  1.23414E+04 -9.00287E+03  1.33014E+04  2.13393E+03
  8.64243E+03  1.07133E+04 -6.14705E+02  1.28630E+04 -9.72907E+03  6.73475E+03 -1.05005E+04 -1.46066E+03
 -9.48570E+03 -8.92479E+03 -1.54186E+03 -9.41625E+03  4.72560E+03 -7.65204E+03  6.14396E+03 -3.35973E+03
  3.64990E+03  1.33587E+03  2.22706E+02  1.87911E+03 -6.01881E+02 -2.72687E+03  1.52829E+03 -6.05836E+03
  8.54516E+03 -3.45632E+03  1.18955E+04  1.50102E+03  1.24538E+04  8.07188E+03  8.54610E+03  1.58437E+04
 -3.56666E+03  1.91095E+04 -1.52422E+04  1.33735E+04 -2.08912E+04  2.27087E+03 -1.59257E+04 -6.78374E+03
 -8.06925E+03 -1.38375E+04 -3.12840E+02 -1.04994E+04  3.25845E+03 -5.75029E+03  3.95161E+03 -4.38459E+03
  3.27558E+03 -2.07721E+03  3.37409E+03 -3.38961E+03  4.26703E+03 -2.69519E+03  6.73193E+03 -7.34902E+02
  8.11954E+03  2.56621E+03  3.95608E+03  6.93293E+03 -2.28991E+03  8.43239E+03 -8.42392E+03  5.56880E+03
 -1.09911E+04 -1.69116E+03 -6.74139E+03 -7.64584E+03 -5.99734E+01 -1.11303E+04  6.92413E+03 -1.17856E+04
  1.22554E+04 -6.37346E+03  1.49014E+04  1.71436E+03  9.93754E+03  1.06002E+04  1.20320E+03  1.34931E+04
 -5.16038E+03  1.14770E+04 -8.01119E+03  3.82023E+03 -4.98955E+03 -1.03499E+03 -2.10057E+03 -2.09170E+03
 -1.06950E+03 -2.34099E+02 -1.62270E+03  2.48634E+03 -4.93686E+03  2.58069E+03 -8.24123E+03 -3.55242E+02
 -4.28222E+03 -8.25630E+03  2.82362E+02 -1.10809E+04  7.22400E+03 -1.02870E+04  9.64635E+03 -3.05720E+03
  1.01188E+04  5.66855E+03  5.26557E+03  8.81315E+03 -2.78935E+03  1.07012E+04 -6.97507E+03  6.85867E+03
 -9.75098E+03  9.19174E+02 -8.48314E+03 -5.79949E+03 -8.92503E+02 -8.73600E+03  4.63815E+03 -7.02622E+03
  6.73766E+03 -1.72568E+03  4.45306E+03  1.88902E+03  1.42328E+03  3.65362E+03  1.39900E+03  1.15075E+03
  2.16317E+03  9.15918E+02  2.41137E+03  2.28148E+03  2.97735E+03  3.84574E+03  3.11065E+03  5.71464E+03
 -2.90664E+03  8.06857E+03 -6.98618E+03  8.16841E+03 -1.01280E+04  2.30657E+03 -1.10880E+04 -4.21207E+03
 -5.23375E+03 -1.04705E+04  2.15186E+03 -1.20206E+04  5.91738E+03 -7.75601E+03  8.96948E+03 -1.71137E+03
  6.54291E+03  3.78423E+03  2.38175E+03  5.96252E+03 -2.20881E+03  4.08328E+03 -4.24728E+03 -6.39257E+02
 -1.90209E+03 -4.27010E+03  2.34055E+03 -4.78894E+03  4.12045E+03 -2.07416E+03  4.47453E+03  1.53300E+03
  2.10160E+03  1.68732E+03  1.62416E+03  1.18582E+03 -9.51406E+02  2.59878E+03  1.89052E+03 -2.43453E+02
  1.56110E+03 -1.71987E+02  4.37026E+03  1.00912E+03  2.16563E+03  5.61522E+03 -1.50639E+03  7.74132E+03
 -5.26881E+03  4.91852E+03 -6.76276E+03  1.04229E+03 -6.01388E+03 -1.52486E+03 -1.91301E+03 -3.53363E+03
  8.49413E+02 -3.61602E+03  2.19287E+03 -2.05627E+03  1.75910E+03  2.39951E+03 -9.29012E+02  3.27750E+03
 -4.95386E+03  1.31446E+03 -4.70327E+03 -3.48923E+03 -2.52253E+03 -5.58480E+03  6.15507E+02 -5.27637E+03
  2.67710E+03 -3.30136E+03  4.02834E+03 -5.12861E+01  3.08994E+03  1.09663E+03 -1.84529E+02  3.40279E+03
 -1.91996E+03  5.29344E+02 -2.37233E+03 -1.35953E+03  1.15922E+03 -3.70090E+03  4.66821E+03 -2.97389E+03
  6.02715E+03  1.13940E+03  6.16406E+03  3.79565E+03  1.85070E+03  6.49503E+03 -1.28445E+03  5.90924E+03
 -5.40372E+03  2.25689E+03 -4.68718E+03 -1.11562E+03 -2.48600E+03 -4.75649E+03  1.46217E+03 -3.43626E+03
  3.23089E+03 -2.16185E+03  2.77772E+03  1.71060E+03  9.46690E+02  3.88130E+03 -1.51623E+03  3.36148E+03
 -1.32769E+03  2.28848E+03 -2.04065E+03  9.65648E+02 -1.12514E+03  6.73136E+02 -5.75029E+02  1.13850E+03
 -1.41356E+03  2.76689E+03 -4.51805E+03  1.89786E+03 -5.97290E+03  4.57891E+02 -6.86492E+03 -4.50077E+03
 -3.28300E+03 -7.69947E+03  1.02195E+03 -9.73186E+03  5.31837E+03 -7.73697E+03  9.27986E+03 -2.72212E+03
  9.09858E+03  1.07068E+03  5.02840E+03  5.74936E+03  1.25765E+02  6.21753E+03 -2.53753E+03  4.16409E+03
 -3.58453E+03  1.81493E+03 -2.46762E+03 -7.52741E+02 -1.06054E+03 -1.81991E+02 -6.96788E+02  1.82159E+02
 -1.21865E+03  1.16669E+02 -1.74861E+03  5.13655E+00 -3.88380E+02 -2.48553E+03 -2.21221E+02 -2.70066E+03
  3.29617E+03 -1.99399E+03  3.49159E+03  6.02643E+02  3.96559E+03  3.13827E+03  2.32924E+02  6.12914E+03
 -2.56511E+03  7.50929E+03 -5.99586E+03  4.65173E+03 -7.64159E+03 -1.04179E+02 -5.50872E+03 -4.06367E+03
 -2.20187E+03 -5.84495E+03  1.07852E+03 -5.65870E+03  4.12343E+03 -3.01709E+03  4.14796E+03  7.08489E+01
  2.01377E+03  1.83835E+03 -3.58892E+00  2.17737E+03 -2.08189E+03  4.12352E+02  2.65341E+02 -8.31192E+02
  2.12509E+03 -6.03583E+02  2.43559E+03  1.52279E+03  1.77658E+03  2.46039E+03  2.42364E+02  2.74239E+03
 -2.88826E+03  2.83008E+03 -3.40070E+03  3.62726E+02 -3.85441E+03 -2.52266E+03 -1.31157E+02 -4.96702E+03
  1.91260E+03 -3.73788E+03  4.55902E+03 -1.32944E+03  4.09048E+03  1.07841E+03  2.17738E+03  4.14107E+03
  9.96869E+02  4.34911E+03 -1.30612E+03  2.31821E+03 -2.14722E+03  1.54073E+03 -1.92148E+03 -8.00248E+00
 -5.09839E+02 -3.37947E+02 -1.24820E+03  1.08768E+03 -2.23615E+03  5.21687E+02 -2.88611E+03 -1.00778E+03
 -2.77807E+03 -1.91912E+03 -5.79438E+01 -3.84320E+03  1.14982E+03 -3.95900E+03  3.53484E+03 -1.99297E+03
  3.61909E+03  7.50873E+02  1.69159E+03  2.86966E+03 -2.85268E+02  4.08953E+03 -2.46136E+03  3.64441E+03
