 $NMID ID='MM_0lb_SNR400_9hz_g55_2.RAW', FMTDAT='(8E13.5)'
 TRAMP=1., VOLUME=1. $END
  3.09046E+05  9.95971E+02  3.38459E+05  2.50797E+05  8.52152E+04  3.38989E+05 -1.33078E+05  2.51979E+05
 -1.91133E+05  8.37205E+04 -1.12886E+05 -3.22938E+04 -1.17649E+02 -5.10170E+04  5.47069E+04 -2.13826E+02
  3.54834E+04  5.19965E+04 -1.59187E+04  7.57873E+04 -6.20505E+04  6.43249E+04 -8.53249E+04  3.23457E+04
 -8.24466E+04 -1.12335E+04 -5.80965E+04 -5.33708E+04 -1.48232E+04 -7.16588E+04  2.75645E+04 -4.75401E+04
  4.13460E+04  4.25766E+03  1.72823E+04  4.93231E+04 -3.52424E+04  4.86589E+04 -6.87868E+04  4.87481E+02
 -5.44249E+04 -5.75837E+04 -7.78580E+03 -7.86553E+04  3.49861E+04 -5.77975E+04  4.97561E+04 -1.80335E+04
  4.53025E+04  1.18491E+04  3.35878E+04  2.67938E+04  1.60427E+04  3.09627E+04 -5.45050E+03  2.81263E+04
 -2.29387E+04  1.18338E+04 -1.82814E+04 -5.58506E+03  7.27989E+03 -7.37016E+03  2.32461E+04  1.40183E+04
  7.76139E+03  3.84737E+04 -3.42198E+04  3.72447E+04 -6.62817E+04  2.62731E+03 -5.96624E+04 -4.49710E+04
 -1.30399E+04 -6.64018E+04  4.22441E+04 -4.81258E+04  6.18248E+04 -2.11750E+03  3.62062E+04  3.48259E+04
 -5.17558E+03  4.03615E+04 -3.25577E+04  1.94171E+04 -3.34333E+04 -3.69952E+03 -1.88725E+04 -1.17070E+04
 -8.95582E+03 -1.53231E+04 -5.43408E+02 -1.97856E+04  8.60503E+03 -2.41187E+04  1.56497E+04 -1.23364E+04
  1.04311E+04  5.66408E+03 -1.03419E+04  1.25738E+04 -2.39464E+04 -5.94929E+03 -8.96904E+03 -3.70810E+04
  2.53155E+04 -4.71981E+04  5.23708E+04 -2.13943E+04  4.92162E+04  2.10633E+04  1.67911E+04  4.74933E+04
 -1.67333E+04  3.65676E+04 -2.72555E+04  2.52124E+03 -1.19054E+04 -2.99508E+04  2.19033E+04 -3.73661E+04
  4.49359E+04 -1.14504E+04  4.08212E+04  2.54567E+04  2.23249E+04  5.15639E+04 -9.08172E+03  5.67776E+04
 -3.55597E+04  3.83647E+04 -4.83433E+04  1.10500E+04 -4.84294E+04 -1.88827E+04 -2.58260E+04 -4.25360E+04
  8.32756E+03 -4.23857E+04  3.40337E+04 -1.76804E+04  3.35018E+04  1.18194E+04  4.80630E+03  2.12541E+04
 -1.41408E+04  9.40781E+03 -1.15378E+04 -8.24542E+03  5.87911E+03 -1.12241E+04  1.89746E+04  5.46575E+03
  1.44482E+04  2.36670E+04 -5.19969E+03  2.69316E+04 -2.44097E+04  1.41463E+04 -3.16117E+04 -2.75211E+03
 -2.59873E+04 -1.79890E+04 -1.21664E+04 -2.49004E+04  4.54479E+03 -2.56982E+04  2.07337E+04 -2.38973E+04
  3.26377E+04 -1.39214E+04  3.93505E+04  5.57741E+03  2.74792E+04  2.52151E+04  4.55283E+03  4.19179E+04
 -2.02548E+04  3.38186E+04 -3.10001E+04  1.22733E+04 -2.18610E+04 -9.94335E+03 -5.26304E+03 -1.30437E+04
 -2.66970E+02 -1.03279E+03 -7.33797E+03  8.38136E+03 -2.10948E+04  4.97810E+03 -1.95147E+04 -1.00808E+04
 -1.27157E+04 -2.37492E+04  6.95757E+03 -2.80367E+04  1.91530E+04 -2.05716E+04  2.35492E+04 -2.30852E+03
  1.47263E+04  1.65502E+04 -2.00392E+03  2.35201E+04 -1.66747E+04  1.41348E+04 -2.43675E+04 -5.12149E+03
 -1.58446E+04 -2.15341E+04 -2.46891E+03 -2.89084E+04  1.30738E+04 -2.36619E+04  2.34118E+04 -1.27616E+04
  2.21797E+04  3.04129E+01  1.67520E+04  5.43315E+03  8.78114E+03  1.27686E+03  1.20142E+04 -2.27802E+03
  2.27026E+04  1.69606E+03  2.52875E+04  1.85627E+04  1.75870E+04  3.78147E+04 -2.99654E+03  4.48764E+04
 -2.62706E+04  3.81382E+04 -4.32403E+04  1.98944E+04 -4.63538E+04 -3.97321E+03 -3.65322E+04 -2.62859E+04
 -1.48239E+04 -3.80242E+04  1.26408E+04 -3.32388E+04  2.80871E+04 -1.60880E+04  2.43643E+04  7.76987E+03
  8.57151E+03  1.92439E+04 -1.19598E+04  1.55452E+04 -2.10645E+04  2.07144E+03 -1.58383E+04 -1.30360E+04
  7.47612E+02 -1.94568E+04  1.09037E+04 -1.43980E+04  1.30941E+04 -1.91754E+03  3.84863E+03  9.86408E+03
 -8.99106E+03  5.01941E+03 -9.93319E+03 -6.74156E+03 -1.59563E+03 -1.87442E+04  1.17892E+04 -2.07043E+04
  2.33135E+04 -1.17678E+04  2.67738E+04  2.29210E+03  2.35511E+04  1.96065E+04  1.07431E+04  3.00894E+04
 -5.64721E+03  3.18431E+04 -2.07302E+04  2.00649E+04 -2.41839E+04  3.62705E+03 -1.58192E+04 -6.52318E+03
 -6.42091E+03 -7.41881E+03  2.82710E+02 -7.47429E+00 -3.57326E+03  3.48802E+03 -6.70897E+03  5.59002E+03
 -1.39709E+04 -6.30678E+02 -1.56079E+04 -1.26223E+04 -6.80337E+03 -1.95807E+04  6.13419E+03 -1.61038E+04
  1.31140E+04 -6.96807E+03  8.44180E+03  3.98035E+03 -2.54709E+02  6.30801E+03 -8.38387E+03 -2.32596E+02
 -8.33694E+03 -1.06439E+04 -1.60449E+03 -1.60687E+04  8.94647E+03 -1.65157E+04  2.16994E+04 -9.50995E+03
  2.36768E+04  3.03686E+03  1.65197E+04  1.45214E+04  3.30939E+03  1.89992E+04 -9.35865E+03  1.53721E+04
 -1.28891E+04  4.37181E+03 -6.24612E+03 -3.47324E+03  2.14037E+03 -4.34079E+03  9.61632E+03 -9.77943E+02
  7.54388E+03  6.73316E+03  1.77688E+03  1.36461E+04 -8.50490E+03  1.13804E+04 -1.69647E+04  3.62124E+03
 -1.17985E+04 -8.52970E+03  4.15860E+02 -1.28590E+04  9.51270E+03 -7.43794E+03  9.68957E+03  3.76749E+03
  2.47321E+03  1.01354E+04 -8.30071E+03  1.20066E+04 -1.47529E+04  5.96224E+03 -1.43668E+04 -5.73590E+03
 -7.96187E+03 -1.70567E+04  4.05523E+03 -1.90317E+04  1.60658E+04 -1.11844E+04  1.67488E+04  2.84043E+03
  1.00695E+04  1.38267E+04 -1.90465E+03  1.64143E+04 -1.22601E+04  8.84534E+03 -1.37070E+04 -6.66853E+02
 -1.07830E+04 -9.41949E+03 -1.42224E+03 -1.29147E+04  6.78657E+03 -9.82991E+03  8.08221E+03 -3.52929E+03
  3.80530E+03  1.99567E+03 -4.27216E+02  1.94612E+03 -1.80509E+03 -2.78691E+03  2.69213E+03 -7.98705E+03
  1.23432E+04 -6.19362E+03  1.76591E+04  1.45280E+03  1.59097E+04  1.14249E+04  1.04552E+04  2.21004E+04
 -5.16737E+03  2.44705E+04 -2.04761E+04  1.77572E+04 -2.66408E+04  3.43715E+03 -2.17110E+04 -9.05256E+03
 -1.09725E+04 -1.84778E+04  1.86657E+02 -1.50806E+04  5.42838E+03 -8.31652E+03  5.06083E+03 -5.94602E+03
  4.03932E+03 -3.27849E+03  3.42161E+03 -3.99207E+03  6.19832E+03 -3.26973E+03  8.55800E+03 -1.42133E+03
  1.19291E+04  2.18767E+03  6.16578E+03  9.81404E+03 -2.80974E+03  1.14399E+04 -1.17260E+04  9.20405E+03
 -1.59587E+04 -5.99736E+02 -9.25534E+03 -1.12923E+04 -2.06308E+03 -1.72544E+04  9.00716E+03 -1.56358E+04
  1.74941E+04 -8.49064E+03  1.95542E+04  2.81451E+03  1.42714E+04  1.44928E+04  2.42802E+03  1.87239E+04
 -6.93463E+03  1.53373E+04 -1.14852E+04  4.46749E+03 -7.42078E+03 -1.81986E+03 -3.14929E+03 -2.06877E+03
 -1.37489E+03 -8.57475E+02 -2.04935E+03  2.89540E+03 -5.96132E+03  2.37998E+03 -1.07741E+04 -1.88196E+03
 -7.82729E+03 -9.60169E+03  6.73093E+02 -1.54940E+04  9.64448E+03 -1.35470E+04  1.60074E+04 -3.92123E+03
  1.56922E+04  7.75014E+03  7.23720E+03  1.31742E+04 -3.52637E+03  1.58599E+04 -1.06694E+04  9.43079E+03
 -1.50646E+04  4.93918E+02 -1.12360E+04 -9.08311E+03 -1.21074E+03 -1.29648E+04  6.36450E+03 -9.33664E+03
  9.71158E+03 -2.50847E+03  7.28364E+03  3.07127E+03  2.30631E+03  4.43054E+03  1.50097E+03  2.62425E+03
  3.20160E+03  1.41111E+03  3.87320E+03  1.89548E+03  4.80343E+03  5.74466E+03  4.18147E+03  8.66765E+03
 -2.63930E+03  1.21182E+04 -1.07342E+04  1.25746E+04 -1.61376E+04  2.86423E+03 -1.58324E+04 -6.75063E+03
 -8.02431E+03 -1.53877E+04  2.50267E+03 -1.66210E+04  1.03461E+04 -1.01330E+04  1.32383E+04 -2.60466E+03
  9.50596E+03  6.24992E+03  1.68699E+03  9.85099E+03 -4.61923E+03  5.85781E+03 -7.00980E+03 -8.49463E+02
 -2.54637E+03 -6.64884E+03  2.76127E+03 -6.47408E+03  6.46869E+03 -3.59406E+03  6.89806E+03  1.69043E+03
  3.67076E+03  3.79361E+03  1.02950E+03  3.53846E+03 -1.26501E+03  2.57414E+03  1.78222E+03 -3.88114E+02
  1.95642E+03 -7.85021E+02  6.41355E+03  2.33587E+03  3.81405E+03  7.99575E+03 -1.55540E+03  1.17099E+04
 -7.49343E+03  8.16369E+03 -1.12720E+04  2.21554E+03 -8.85952E+03 -3.77996E+03 -3.17146E+03 -6.52713E+03
  1.13355E+03 -6.04852E+03  4.24759E+03 -2.26599E+03  4.21965E+03  2.95262E+03 -4.74001E+02  4.65720E+03
 -6.86731E+03  3.16004E+03 -8.03890E+03 -3.80933E+03 -3.95589E+03 -8.20586E+03  1.48646E+03 -8.52629E+03
  5.64414E+03 -6.19655E+03  6.69850E+03 -2.94944E+02  4.93423E+03  2.53464E+03  8.38343E+02  4.38823E+03
 -2.90760E+03  1.79697E+03 -4.26114E+03 -3.25278E+03  1.46396E+03 -7.11595E+03  8.13192E+03 -5.55170E+03
  1.04206E+04  3.33208E+02  9.69523E+03  7.27365E+03  2.18716E+03  1.05465E+04 -4.24186E+03  9.48390E+03
 -9.14410E+03  3.81066E+03 -8.85228E+03 -1.31729E+03 -4.36712E+03 -5.86836E+03  5.80757E+02 -6.55449E+03
  6.49774E+03 -3.69014E+03  5.68709E+03  2.89898E+03  1.75380E+03  5.94410E+03 -8.93452E+02  5.67808E+03
 -1.52251E+03  3.14028E+03 -2.90940E+03  4.82619E+02 -1.09868E+03  1.12269E+03 -1.48332E+03  2.17865E+03
 -3.06312E+03  4.19855E+03 -7.02354E+03  4.15092E+03 -1.10218E+04 -5.16878E+02 -1.17717E+04 -7.18200E+03
 -6.33175E+03 -1.37063E+04  2.71423E+03 -1.57528E+04  1.02429E+04 -1.19017E+04  1.54990E+04 -3.69246E+03
  1.37364E+04  2.57970E+03  9.04730E+03  1.04144E+04  8.68376E+02  1.09278E+04 -3.94173E+03  9.15576E+03
 -6.44908E+03  2.29825E+03 -3.52164E+03 -1.24563E+03 -1.60985E+03 -5.67682E+02 -8.05503E+02  3.40647E+02
 -1.61139E+03  9.02223E+02 -2.26393E+03 -1.09810E+02 -1.17120E+03 -2.41080E+03 -4.31599E+01 -4.50150E+03
  5.72636E+03 -3.44980E+03  6.73039E+03  3.37179E+02  8.20691E+03  6.35283E+03  2.36396E+03  1.10421E+04
 -5.23426E+03  1.18604E+04 -1.17252E+04  7.43964E+03 -1.36793E+04 -2.11938E+03 -1.00209E+04 -8.23481E+03
 -4.42633E+03 -1.04278E+04  3.77422E+03 -1.07011E+04  7.45118E+03 -5.23948E+03  7.07244E+03  4.96525E+02
  5.01919E+03  3.72302E+03 -5.47062E+02  2.83278E+03 -1.93973E+03 -3.03836E+02  1.01765E+03 -2.71452E+03
  3.54178E+03 -1.75200E+03  4.75902E+03  9.24538E+02  2.64956E+03  4.29621E+03  5.20375E+01  5.92313E+03
 -4.95440E+03  5.51263E+03 -6.73610E+03  2.83894E+02 -6.62378E+03 -5.50139E+03 -1.20468E+03 -9.85397E+03
  4.90877E+03 -7.59973E+03  8.55324E+03 -2.90049E+03  8.93252E+03  2.62322E+03  5.13235E+03  7.37215E+03
  7.65936E+02  7.12158E+03 -3.06537E+03  5.95567E+03 -4.38147E+03  2.93892E+03 -3.57212E+03  7.31147E+02
 -2.15965E+03 -2.05261E+02 -1.73713E+03  9.21940E+02 -4.09730E+03  1.13108E+03 -5.74279E+03 -1.22039E+03
 -5.64421E+03 -3.75902E+03 -1.15771E+03 -7.10806E+03  4.49702E+03 -7.83743E+03  6.59660E+03 -3.83000E+03
  7.46358E+03  1.46649E+03  4.58975E+03  5.73829E+03 -1.07261E+03  7.36320E+03 -5.30668E+03  5.45789E+03
