 $NMID ID='MM_0lb_SNR400_12hz_g50_19.RAW', FMTDAT='(8E13.5)'
 TRAMP=1., VOLUME=1. $END
  3.10169E+05  3.94212E+02  3.37629E+05  2.50548E+05  8.56316E+04  3.38874E+05 -1.32951E+05  2.51560E+05
 -1.89895E+05  8.35118E+04 -1.11857E+05 -3.20782E+04  9.55002E+02 -5.11667E+04  5.34293E+04 -6.01021E+02
  3.55326E+04  5.26956E+04 -1.65900E+04  7.57571E+04 -6.15727E+04  6.35630E+04 -8.41683E+04  3.21079E+04
 -8.17372E+04 -1.13755E+04 -5.77726E+04 -5.17494E+04 -1.51921E+04 -6.96142E+04  2.75592E+04 -4.67101E+04
  4.03151E+04  3.78418E+03  1.64504E+04  4.84061E+04 -3.42909E+04  4.72576E+04 -6.76344E+04 -3.82106E+01
 -5.32832E+04 -5.70743E+04 -7.00443E+03 -7.81135E+04  3.42108E+04 -5.65718E+04  4.94233E+04 -1.73365E+04
  4.43074E+04  1.08565E+04  3.32383E+04  2.61363E+04  1.61229E+04  3.00199E+04 -5.70692E+03  2.73602E+04
 -2.20121E+04  1.25011E+04 -1.89704E+04 -5.10309E+03  5.90651E+03 -7.07502E+03  2.26984E+04  1.33029E+04
  7.14209E+03  3.62071E+04 -3.31266E+04  3.60422E+04 -6.43622E+04  2.00698E+03 -5.72586E+04 -4.40563E+04
 -1.27258E+04 -6.39548E+04  4.11341E+04 -4.56865E+04  5.94804E+04 -2.19433E+03  3.47811E+04  3.33652E+04
 -6.26703E+03  3.71015E+04 -2.99976E+04  1.65800E+04 -3.19442E+04 -4.12875E+03 -1.78786E+04 -1.15508E+04
 -8.10256E+03 -1.39502E+04  1.08364E+02 -1.85706E+04  8.07566E+03 -2.37573E+04  1.56305E+04 -1.29377E+04
  1.08002E+04  5.86184E+03 -9.27687E+03  1.28711E+04 -2.16809E+04 -5.16160E+03 -8.10800E+03 -3.50953E+04
  2.35176E+04 -4.46367E+04  4.98757E+04 -2.03198E+04  4.65450E+04  2.02438E+04  1.65780E+04  4.55469E+04
 -1.61657E+04  3.34739E+04 -2.68752E+04  1.83828E+03 -1.06384E+04 -2.82932E+04  2.10923E+04 -3.51295E+04
  4.29496E+04 -1.05043E+04  3.76869E+04  2.40228E+04  1.95596E+04  4.82388E+04 -8.05970E+03  5.13401E+04
 -3.37412E+04  3.49267E+04 -4.46946E+04  1.06183E+04 -4.45264E+04 -1.67244E+04 -2.47748E+04 -3.96161E+04
  7.79313E+03 -3.88970E+04  3.30935E+04 -1.58505E+04  3.00690E+04  1.08704E+04  4.40237E+03  1.98858E+04
 -1.39997E+04  8.71607E+03 -1.11682E+04 -7.32263E+03  6.03347E+03 -1.15442E+04  1.83215E+04  5.68901E+03
  1.42211E+04  2.19220E+04 -6.27146E+03  2.55047E+04 -2.38922E+04  1.23249E+04 -2.92255E+04 -3.94639E+03
 -2.25939E+04 -1.79862E+04 -9.46529E+03 -2.20017E+04  4.81491E+03 -2.27482E+04  1.74786E+04 -2.04780E+04
  2.84476E+04 -1.33498E+04  3.46245E+04  3.40780E+03  2.54999E+04  2.21089E+04  4.17881E+03  3.89802E+04
 -1.83371E+04  3.19555E+04 -2.88680E+04  1.15138E+04 -2.15220E+04 -1.06002E+04 -4.63243E+03 -1.32261E+04
  1.78507E+03 -1.81439E+03 -5.58487E+03  7.70758E+03 -1.74793E+04  4.51455E+03 -1.82515E+04 -8.38902E+03
 -1.05835E+04 -2.11530E+04  5.65837E+03 -2.49996E+04  1.63900E+04 -1.80372E+04  1.94170E+04 -1.52495E+03
  1.25394E+04  1.42327E+04 -1.90108E+03  2.03681E+04 -1.52237E+04  1.13788E+04 -2.02408E+04 -3.95535E+03
 -1.57947E+04 -1.90067E+04 -1.74963E+03 -2.49264E+04  1.13717E+04 -2.05934E+04  2.08312E+04 -1.10091E+04
  1.98503E+04  2.07796E+02  1.37803E+04  5.43834E+03  7.63417E+03  1.41212E+03  1.10977E+04 -2.07931E+03
  1.89535E+04  2.31337E+03  2.19809E+04  1.56848E+04  1.40476E+04  3.32697E+04 -2.80849E+03  3.77835E+04
 -2.18857E+04  3.10487E+04 -3.59540E+04  1.56085E+04 -3.82041E+04 -3.00324E+03 -3.04459E+04 -2.20828E+04
 -1.26658E+04 -3.09007E+04  1.09212E+04 -2.78289E+04  2.43399E+04 -1.33805E+04  2.16410E+04  6.32790E+03
  8.24340E+03  1.63505E+04 -1.00533E+04  1.39592E+04 -1.79340E+04  2.54851E+03 -1.32654E+04 -1.13622E+04
 -1.37731E+02 -1.63893E+04  9.12875E+03 -1.24253E+04  1.14795E+04 -1.98604E+03  2.27414E+03  7.64396E+03
 -6.98738E+03  2.43377E+03 -7.60397E+03 -5.77700E+03 -6.97164E+02 -1.52399E+04  1.07342E+04 -1.66532E+04
  1.96744E+04 -9.01782E+03  2.06784E+04  2.33383E+03  1.90056E+04  1.53660E+04  8.68095E+03  2.47302E+04
 -4.01364E+03  2.60159E+04 -1.66262E+04  1.61070E+04 -1.91325E+04  3.57109E+03 -1.29061E+04 -4.44064E+03
 -5.50927E+03 -5.61370E+03 -3.16345E+02  1.69212E+02 -2.72656E+03  2.84398E+03 -6.39145E+03  3.94985E+03
 -1.21713E+04 -9.81980E+02 -1.20525E+04 -9.90443E+03 -5.42045E+03 -1.69688E+04  5.17364E+03 -1.27052E+04
  1.06006E+04 -5.93074E+03  8.15690E+03  4.22876E+03 -3.70425E+02  6.03670E+03 -5.79926E+03  4.50038E+02
 -5.64018E+03 -7.54927E+03 -4.82764E+02 -1.22052E+04  6.73593E+03 -1.30470E+04  1.60631E+04 -7.09222E+03
  1.90129E+04  1.14647E+03  1.34967E+04  1.11658E+04  2.71367E+03  1.52090E+04 -7.78457E+03  1.28015E+04
 -1.07512E+04  3.89642E+03 -5.39743E+03 -2.54568E+03  1.68267E+03 -3.58459E+03  7.05092E+03 -6.37121E+02
  6.32292E+03  5.76338E+03  4.88722E+02  1.02074E+04 -6.93355E+03  9.25881E+03 -1.31384E+04  3.06851E+03
 -7.98833E+03 -6.90036E+03 -2.66059E+02 -1.12453E+04  6.42117E+03 -5.38578E+03  7.42039E+03  2.60874E+03
  1.12829E+03  7.86600E+03 -5.87831E+03  8.85883E+03 -1.00416E+04  4.64779E+03 -1.09159E+04 -3.52266E+03
 -6.16747E+03 -1.22779E+04  2.79736E+03 -1.39537E+04  1.22799E+04 -8.65770E+03  1.27974E+04  1.84097E+03
  7.98632E+03  9.94024E+03 -8.60660E+02  1.25148E+04 -8.90578E+03  7.20217E+03 -1.04024E+04 -4.69719E+02
 -8.76476E+03 -8.56192E+03 -8.77808E+02 -1.00405E+04  4.91319E+03 -7.58300E+03  6.44079E+03 -3.45596E+03
  4.00516E+03  1.63481E+03 -1.84453E+02  1.45545E+03 -3.73237E+02 -1.91959E+03  1.75594E+03 -5.99752E+03
  8.31695E+03 -3.07531E+03  1.16134E+04  1.52810E+03  1.18626E+04  8.05391E+03  8.85311E+03  1.53626E+04
 -2.93070E+03  1.79672E+04 -1.53877E+04  1.34507E+04 -1.92916E+04  2.51739E+03 -1.54840E+04 -6.66592E+03
 -8.48197E+03 -1.19168E+04 -4.44841E+02 -1.12441E+04  3.94848E+03 -6.32375E+03  3.46499E+03 -4.17786E+03
  3.03560E+03 -2.79115E+03  3.19632E+03 -3.41833E+03  4.76153E+03 -2.47050E+03  6.01509E+03 -3.52553E+02
  8.15888E+03  1.77473E+03  4.10576E+03  6.98708E+03 -1.58246E+03  7.90763E+03 -8.33469E+03  6.25598E+03
 -1.09807E+04 -1.26050E+03 -7.03758E+03 -7.34521E+03 -1.05346E+03 -1.16307E+04  6.78207E+03 -1.19973E+04
  1.21567E+04 -6.93442E+03  1.39741E+04  1.40937E+03  9.88917E+03  9.72721E+03  1.85537E+03  1.29163E+04
 -5.10882E+03  1.06150E+04 -7.15591E+03  4.13160E+03 -4.92833E+03 -1.42180E+03 -2.41521E+03 -1.51540E+03
 -9.05973E+02 -5.18718E+02 -1.51107E+03  2.30074E+03 -5.21693E+03  1.30287E+03 -6.90505E+03 -6.34719E+02
 -5.15177E+03 -7.35831E+03  2.20171E+02 -1.10545E+04  6.10700E+03 -8.93418E+03  1.03011E+04 -2.51349E+03
  9.83446E+03  4.88908E+03  5.39037E+03  9.26146E+03 -2.42066E+03  1.01174E+04 -6.82053E+03  6.75061E+03
 -9.56202E+03  7.56744E+02 -7.49235E+03 -6.15632E+03 -1.16629E+03 -8.16042E+03  4.13277E+03 -6.55178E+03
  6.48166E+03 -2.26860E+03  4.55114E+03  1.12680E+03  8.71971E+02  2.37629E+03  1.34741E+03  1.67135E+03
  1.68489E+03  4.58163E+02  2.61634E+03  1.57216E+03  2.73568E+03  3.39056E+03  3.18610E+03  5.21322E+03
 -2.53835E+03  8.69742E+03 -6.57716E+03  7.87851E+03 -9.70015E+03  2.00884E+03 -1.07521E+04 -3.77566E+03
 -5.22748E+03 -1.05056E+04  1.55940E+03 -1.12048E+04  6.33813E+03 -7.34444E+03  7.80130E+03 -2.08305E+03
  6.46222E+03  3.97701E+03  1.46725E+03  6.19682E+03 -3.08717E+03  4.24963E+03 -4.04972E+03 -1.11582E+03
 -1.28384E+03 -4.67655E+03  2.25294E+03 -4.22128E+03  3.64293E+03 -2.07712E+03  3.54767E+03  2.16126E+03
  2.21599E+03  1.38252E+03  1.24740E+03  1.61700E+03 -7.24860E+02  1.65604E+03  1.64248E+03  1.22058E+02
  1.60569E+03 -9.67082E+02  4.46314E+03  2.08032E+03  1.85612E+03  5.53487E+03 -1.25768E+03  7.24311E+03
 -4.20379E+03  3.40716E+03 -5.83498E+03  7.58596E+02 -5.23297E+03 -2.01650E+03 -1.91876E+03 -3.13252E+03
  9.03611E+02 -2.96754E+03  3.19670E+03 -2.13885E+03  1.03005E+03  2.10700E+03 -1.75301E+03  3.49472E+03
 -4.13251E+03  2.03424E+03 -4.43069E+03 -2.46973E+03 -2.81771E+03 -5.13837E+03  6.92180E+02 -5.03611E+03
  1.97975E+03 -3.13200E+03  4.62219E+03 -6.33940E+02  3.55496E+03  1.52055E+03  1.07191E+01  2.38230E+03
 -2.08403E+03  9.13363E+02 -2.79827E+03 -2.07888E+03  8.16481E+02 -4.39987E+03  5.53133E+03 -3.50254E+03
  5.38873E+03  8.32235E+02  6.71703E+03  3.46089E+03  1.90864E+03  7.06925E+03 -2.47193E+03  6.00611E+03
 -4.70488E+03  2.02387E+03 -5.04234E+03 -4.46484E+02 -2.98892E+03 -4.10978E+03  1.41618E+03 -3.51452E+03
  3.92490E+03 -1.81052E+03  3.18785E+03  1.51383E+03  1.27064E+03  3.36784E+03 -8.74300E+02  3.46041E+03
 -1.91927E+03  2.04512E+03 -2.14221E+03  9.05401E+02 -7.89322E+02  6.30756E+02 -1.80613E+03  1.98142E+03
 -1.13978E+03  2.33770E+03 -4.73173E+03  2.07663E+03 -6.11250E+03  8.28947E+02 -6.19597E+03 -3.98884E+03
 -3.29165E+03 -8.10524E+03  1.65138E+03 -8.92246E+03  5.32080E+03 -7.10384E+03  8.78534E+03 -3.22984E+03
  8.30743E+03  1.33899E+03  4.69958E+03  5.53526E+03 -7.22173E+01  5.97093E+03 -2.62534E+03  4.89427E+03
 -4.09472E+03  2.08504E+03 -2.41661E+03 -8.99037E+02 -4.10700E+02  1.87327E+02  3.22726E+01  1.14365E+02
 -2.08215E+03  2.19221E+02 -1.72785E+03 -3.39934E+02 -3.53399E+02 -2.42731E+03 -2.99281E+02 -1.61156E+03
  2.95912E+03 -2.26704E+03  3.37814E+03 -3.35027E+02  4.05664E+03  2.93382E+03  1.33764E+03  6.09932E+03
 -2.99170E+03  7.67848E+03 -6.17178E+03  4.49959E+03 -7.22343E+03 -1.12669E+03 -4.75118E+03 -4.81649E+03
 -1.91756E+03 -5.41460E+03  1.84470E+03 -5.82820E+03  3.54986E+03 -2.54800E+03  3.69321E+03  3.56087E+02
  2.01804E+03  2.06440E+03 -3.19078E+02  2.30556E+03 -1.58487E+03 -5.35112E+02 -7.08352E+02 -4.85324E+02
  1.68196E+03 -1.14075E+03  2.71081E+03  1.22925E+03  1.85289E+03  1.66960E+03  3.81203E+02  2.90415E+03
 -2.63549E+03  2.38389E+03 -3.82915E+03  5.35555E+02 -3.38785E+03 -3.19465E+03 -1.92922E+02 -5.09767E+03
  2.89584E+03 -3.49077E+03  3.97579E+03 -1.53215E+03  4.24472E+03  7.09527E+02  3.27493E+03  3.08019E+03
  8.76435E+02  4.14284E+03 -1.22799E+03  3.24609E+03 -2.26415E+03  2.01515E+03 -1.73292E+03  4.67565E+01
 -8.30972E+02 -8.65914E+01 -5.34224E+02  8.14014E+02 -1.60954E+03  9.07301E+02 -3.01908E+03 -7.37135E+02
 -2.73382E+03 -2.19987E+03 -9.01631E+02 -3.92722E+03  2.02151E+03 -3.73543E+03  3.70721E+03 -1.44666E+03
  3.44014E+03  2.38828E+02  2.04829E+03  2.22009E+03 -3.80243E+02  3.77777E+03 -2.70667E+03  2.38010E+03
