 $NMID ID='MM_0lb_SNR400_19hz_g45_63.RAW', FMTDAT='(8E13.5)'
 TRAMP=1., VOLUME=1. $END
  3.09846E+05  8.11708E+01  3.37541E+05  2.50221E+05  8.48510E+04  3.37836E+05 -1.32071E+05  2.50063E+05
 -1.89829E+05  8.23238E+04 -1.10893E+05 -3.34800E+04  2.07646E+03 -4.98303E+04  5.33782E+04  1.81685E+02
  3.53528E+04  5.28092E+04 -1.70203E+04  7.50146E+04 -6.01112E+04  6.23864E+04 -8.28154E+04  3.17051E+04
 -7.94086E+04 -1.04891E+04 -5.60717E+04 -4.94333E+04 -1.42367E+04 -6.82429E+04  2.66954E+04 -4.44825E+04
  3.85945E+04  4.40016E+03  1.55618E+04  4.64899E+04 -3.43743E+04  4.62101E+04 -6.52257E+04 -8.46437E+02
 -5.17573E+04 -5.54623E+04 -5.99919E+03 -7.48294E+04  3.34706E+04 -5.24463E+04  4.59014E+04 -1.62828E+04
  4.14849E+04  1.12149E+04  3.06485E+04  2.44847E+04  1.62732E+04  2.78427E+04 -4.63022E+03  2.61383E+04
 -2.12578E+04  1.33629E+04 -1.88452E+04 -4.15486E+03  3.95464E+03 -7.97359E+03  2.08787E+04  1.07082E+04
  7.41537E+03  3.27295E+04 -3.07168E+04  3.35291E+04 -6.01300E+04  1.95994E+03 -5.50720E+04 -4.14487E+04
 -1.25611E+04 -6.03878E+04  3.81551E+04 -4.33221E+04  5.51125E+04 -2.22708E+03  3.15802E+04  3.05112E+04
 -7.07346E+03  3.24190E+04 -2.84432E+04  1.31660E+04 -2.71957E+04 -5.72633E+03 -1.37803E+04 -1.00683E+04
 -7.63292E+03 -1.12946E+04 -1.47033E+03 -1.64240E+04  6.13691E+03 -2.23610E+04  1.51888E+04 -1.43387E+04
  1.24282E+04  4.11523E+03 -5.85553E+03  1.32423E+04 -1.92520E+04 -1.69718E+03 -8.04001E+03 -2.98273E+04
  2.06056E+04 -4.02945E+04  4.37553E+04 -1.86317E+04  4.12494E+04  1.83853E+04  1.39942E+04  4.14046E+04
 -1.54443E+04  3.05408E+04 -2.33469E+04  8.76006E+02 -8.47866E+03 -2.62617E+04  2.00489E+04 -3.09265E+04
  3.71319E+04 -7.61197E+03  3.07156E+04  2.32683E+04  1.53663E+04  4.18508E+04 -7.61145E+03  4.48144E+04
 -2.82254E+04  2.88405E+04 -3.65814E+04  8.40677E+03 -3.77071E+04 -1.57920E+04 -2.08195E+04 -3.41533E+04
  6.90770E+03 -3.39052E+04  2.91742E+04 -1.26694E+04  2.67796E+04  1.08859E+04  2.57466E+03  1.73933E+04
 -1.30117E+04  7.46339E+03 -9.63642E+03 -7.66020E+03  6.38199E+03 -9.86069E+03  1.70444E+04  7.24982E+03
  1.24193E+04  2.20249E+04 -6.58884E+03  2.29491E+04 -2.16980E+04  8.93978E+03 -2.50747E+04 -7.35186E+03
 -1.57886E+04 -1.59876E+04 -5.56148E+03 -1.64293E+04  3.78045E+03 -1.38156E+04  1.13024E+04 -1.39092E+04
  2.07748E+04 -1.13023E+04  2.77157E+04  8.63525E+02  2.06640E+04  1.56931E+04  3.81839E+03  3.22913E+04
 -1.56870E+04  2.69059E+04 -2.55050E+04  9.29733E+03 -1.94635E+04 -1.03002E+04 -4.04435E+03 -1.40313E+04
  3.05511E+03 -4.65553E+03 -2.05187E+03  4.98436E+03 -1.26462E+04  6.09749E+03 -1.25601E+04 -4.29872E+03
 -8.29073E+03 -1.50761E+04  4.54556E+03 -1.89441E+04  1.19266E+04 -1.41167E+04  1.40791E+04 -1.21505E+03
  8.50062E+03  1.08685E+04 -4.89140E+02  1.54100E+04 -9.93250E+03  7.82752E+03 -1.52392E+04 -3.26884E+03
 -1.09556E+04 -1.32570E+04 -1.03473E+03 -1.88361E+04  8.67548E+03 -1.47787E+04  1.60031E+04 -6.55365E+03
  1.45853E+04  3.62560E+02  1.04781E+04  4.41331E+03  5.13605E+03  7.58196E+02  7.32420E+03 -1.23767E+03
  1.28410E+04  2.83736E+03  1.40418E+04  1.20580E+04  9.58124E+03  2.31600E+04 -3.11315E+03  2.53434E+04
 -1.53983E+04  1.94494E+04 -2.38893E+04  8.82485E+03 -2.36736E+04 -2.01276E+03 -2.05760E+04 -1.38126E+04
 -1.01497E+04 -1.92517E+04  6.67533E+03 -1.81964E+04  1.55942E+04 -1.00545E+04  1.47787E+04  3.83947E+03
  6.51971E+03  1.10998E+04 -6.78260E+03  1.05131E+04 -1.32529E+04  3.14112E+03 -9.74561E+03 -7.63026E+03
  4.04047E+02 -1.20849E+04  6.10459E+03 -9.59624E+03  7.77163E+03 -1.39944E+03  8.12301E+02  4.80734E+03
 -5.12130E+03  7.05066E+02 -3.74464E+03 -4.25969E+03  9.42642E+02 -9.69555E+03  7.47938E+03 -9.47607E+03
  1.13876E+04 -4.61955E+03  1.08793E+04  2.68899E+03  9.41492E+03  9.11732E+03  5.06691E+03  1.31983E+04
 -1.17644E+03  1.50282E+04 -8.84862E+03  9.66252E+03 -1.06885E+04  3.04619E+03 -7.93756E+03 -1.85264E+03
 -4.59596E+03 -3.01113E+03 -1.43118E+03  1.41438E+03 -2.06045E+03  1.88435E+03 -3.55073E+03  3.55880E+03
 -7.65354E+03 -4.22653E+02 -8.55806E+03 -6.51873E+03 -3.71400E+03 -1.14883E+04  3.33661E+03 -8.41926E+03
  7.32763E+03 -3.12583E+03  5.02461E+03  1.87187E+03  6.33811E+02  2.48355E+03 -3.41918E+03 -2.39316E+02
 -3.12280E+03 -4.67498E+03 -3.19403E+02 -6.45122E+03  3.83457E+03 -6.71261E+03  9.04431E+03 -3.86256E+03
  1.09704E+04  7.76510E+01  8.51279E+03  5.44916E+03  1.71758E+03  8.33276E+03 -5.10561E+03  7.93697E+03
 -6.23765E+03  2.53261E+03 -3.44197E+03 -1.25133E+03  1.56960E+03 -1.49533E+03  4.67067E+03 -1.74505E+03
  4.28722E+03  3.13366E+03  9.47469E+02  6.19608E+03 -4.27364E+03  5.91715E+03 -7.09457E+03  1.99732E+03
 -4.70138E+03 -3.34476E+03  7.55339E+02 -6.23055E+03  3.82819E+03 -3.40417E+03  3.41325E+03  1.17255E+03
 -7.56124E+01  3.01072E+03 -3.91739E+03  4.90829E+03 -4.59607E+03  2.12190E+03 -3.52750E+03 -7.84778E+02
 -2.98517E+03 -5.47985E+03  1.59441E+03 -7.49284E+03  5.52265E+03 -4.41278E+03  5.53717E+03  6.13544E+02
  4.65555E+03  5.08264E+03  1.65790E+01  6.48492E+03 -4.68613E+03  4.14843E+03 -4.75124E+03 -4.15251E+02
 -5.86416E+03 -4.96828E+03 -1.36080E+03 -4.93246E+03  2.30544E+03 -3.92893E+03  2.36186E+03 -3.23936E+03
  3.07388E+03 -1.26954E+02  3.17798E+02  9.18606E+02  3.00720E+01 -3.33415E+02 -9.92640E+01 -1.48274E+03
  3.32011E+03 -3.44821E+02  4.83669E+03  9.44764E+02  5.22394E+03  3.14121E+03  4.86376E+03  6.66068E+03
 -1.12966E+03  7.91004E+03 -6.94765E+03  6.32146E+03 -9.13251E+03  1.35944E+03 -7.58085E+03 -2.52185E+03
 -3.76033E+03 -6.01128E+03 -3.11659E+02 -4.51240E+03  1.50070E+03 -1.92142E+03  2.01563E+03 -2.03750E+03
  1.27252E+03 -1.78474E+03  2.06629E+03 -2.21435E+03  3.65641E+03 -1.14153E+03  3.62529E+03  8.55991E+02
  4.29296E+03  1.80279E+03  1.02463E+03  3.37586E+03 -1.88730E+03  2.30041E+03 -4.49768E+03  2.43060E+03
 -4.62186E+03 -1.38997E+03 -1.30845E+03 -2.99928E+03  4.96832E+02 -4.57051E+03  3.25570E+03 -4.35116E+03
  4.39946E+03 -3.24576E+03  6.10015E+03  6.37842E+02  4.39273E+03  3.27620E+03  8.88189E+02  5.50179E+03
 -2.17622E+03  5.45210E+03 -3.34958E+03  2.03542E+03 -9.84159E+02 -1.32567E+03 -5.71984E+02 -5.81471E+02
 -8.03009E+02  7.30043E+02 -9.50830E+02  2.15197E+03 -2.68125E+03  9.27194E+02 -3.87153E+03 -1.52533E+02
 -1.13417E+03 -4.20552E+03  5.79728E+02 -4.69064E+03  2.47260E+03 -4.11267E+03  2.75104E+03 -1.26801E+03
  3.92930E+03  2.01554E+03  1.43671E+03  2.84164E+03 -6.35776E+02  3.63841E+03 -2.38650E+03  2.30327E+03
 -3.82825E+03  7.85273E+02 -3.75015E+03 -2.17424E+03  1.01915E+02 -2.91891E+03  5.32809E+02 -2.42112E+03
  2.50220E+03 -1.31372E+03  7.87294E+02  2.16945E+02  5.30474E+02  1.70546E+03  7.90935E+02  9.09606E+02
  1.38587E+03  4.54009E+02  4.56329E+02  1.10010E+03  9.07375E+02  2.01463E+03  1.83328E+03  1.03973E+03
 -1.16940E+03  2.86053E+03 -2.42702E+03  3.93399E+03 -2.50894E+03  1.45225E+03 -4.10505E+03 -5.02878E+01
 -1.68107E+03 -3.03577E+03  1.58311E+02 -4.35756E+03  2.06310E+03 -2.21668E+03  2.61592E+03 -6.15105E+02
  1.68731E+03  1.44053E+03  2.84822E+02  2.15193E+03 -7.00193E+02  1.79197E+03 -7.28785E+02  1.26442E+01
 -8.01174E+02 -1.20037E+03  1.00179E+03 -1.38212E+03  1.21205E+03 -8.03519E+02  1.57966E+03  5.78727E+02
  1.15863E+03 -5.65503E+02  1.32996E+03 -6.96880E+02  1.49827E+02  2.40840E+02  1.76089E+03 -3.91730E+02
  8.16652E+01 -5.79584E+02  1.79118E+03  4.16294E+01  2.98665E+02  2.25427E+03  9.32189E+00  2.38911E+03
 -1.20479E+03  6.57590E+02 -1.81395E+03 -2.69418E+01 -1.99340E+03 -8.00309E+02  2.45239E+02 -7.83142E+02
  6.51507E+02 -4.73448E+02  1.11774E+03 -7.35476E+02  8.03777E+02  1.10018E+03  1.54641E+01  1.16502E+03
 -1.20475E+03  6.04939E+02 -1.12583E+03 -1.77265E+03 -7.20162E+02 -2.06954E+03  1.91431E+02 -1.12585E+03
  8.22067E+02  2.27791E+02  8.46408E+02  6.97899E+02  1.17547E+03  1.03674E+02  4.96076E+01  1.52175E+03
 -4.08207E+02  6.32908E+02 -1.40066E+03  7.96331E+01  7.79415E+02 -9.18663E+02  1.37696E+03 -1.78038E+02
  1.38863E+03  4.47831E+02  2.64446E+03  7.99637E+02  1.09071E+03  9.58196E+02 -4.66685E+02  1.81885E+03
 -1.72030E+03 -1.21100E+02 -1.07165E+03 -3.32071E+02 -4.99213E+02 -1.07102E+03  1.83755E+02 -2.12805E+02
  1.62569E+03 -1.03727E+03  4.10917E+02  4.71916E+02 -2.67642E+02  1.68390E+03  5.88523E+02  1.41453E+03
 -5.18016E+02  1.36132E+03 -1.69130E+01  7.11325E+02  3.58125E+01  4.32305E+02 -5.95660E+02 -1.11228E+02
 -4.96857E+02  1.52360E+03 -1.75483E+03  6.72524E+02 -1.99097E+03  2.71977E+02 -2.54297E+03 -1.02489E+03
 -5.12889E+02 -2.12750E+03  2.86980E+02 -3.01724E+03  1.08494E+03 -2.45515E+03  2.34031E+03 -1.55923E+03
  2.07130E+03 -1.86880E+02  9.92869E+02  1.10374E+03 -4.40092E+02  1.26944E+03 -5.76320E+02  7.98692E+02
 -7.47747E+02  8.04491E+02 -3.66086E+02 -4.29355E+02 -9.59398E+02  1.94936E+02 -4.31281E+02  3.95857E+02
 -1.12010E+03 -1.53587E+02 -1.19468E+03  2.76047E+02  2.09055E+02 -8.21555E+02  2.43865E+02 -1.09945E+03
  1.34986E+03 -2.91780E+02  4.15055E+02  5.12642E+02  1.05087E+03  7.65441E+02 -2.52305E+02  1.47548E+03
 -7.52310E+02  2.27846E+03 -1.52113E+03  1.23613E+03 -1.98805E+03 -7.48955E+01 -1.41226E+03 -7.09517E+02
 -1.21512E+03 -9.06790E+02  5.87356E+02 -9.64438E+02  8.56675E+02 -5.65229E+02  6.43471E+02  2.92800E+02
  9.72571E+02  3.96361E+02  3.64642E+02  6.44946E+02 -4.79024E+02 -5.27705E+02  2.04232E+02 -5.64502E+02
  2.28494E+02  4.07665E+02  4.02354E+01  7.75850E+02 -1.70778E+02  4.61882E+02  3.69524E+02  5.92520E+02
 -6.87368E+02  7.71780E+01 -5.83321E+02 -1.17824E+02 -3.71027E+02 -2.53270E+02  2.72401E+02 -9.46775E+02
  3.93732E+02 -3.85960E+02  3.29208E+02 -2.31326E+02  5.09427E+02 -7.46682E+02  5.28863E+02  4.95831E+02
  9.29087E+02  4.77700E+02 -3.15455E+02  1.58248E+02 -3.22131E+02  6.55437E+02 -3.88978E+02  2.74887E+02
 -2.25854E+02  6.77604E+02 -3.49208E+01  1.26762E+02 -1.43620E+02  9.33982E+01 -7.10756E+02 -4.92910E+02
 -1.28292E+03  2.11993E+02 -3.35932E+02 -5.87741E+02  5.00823E+02 -1.26769E+03  7.01642E+02 -2.57920E+01
  8.34995E+02 -8.63984E+01 -5.79740E+02  2.58677E+02  1.18195E+02  2.29219E+02 -1.64352E+02  5.23045E+02
