 $NMID ID='MM_0lb_SNR400_13hz_g60_83.RAW', FMTDAT='(8E13.5)'
 TRAMP=1., VOLUME=1. $END
  3.09993E+05  6.02423E+02  3.37564E+05  2.50648E+05  8.42144E+04  3.38292E+05 -1.32741E+05  2.51251E+05
 -1.91247E+05  8.38395E+04 -1.12197E+05 -3.25408E+04 -8.88640E+01 -5.04333E+04  5.41186E+04 -1.70387E+02
  3.61050E+04  5.27892E+04 -1.71454E+04  7.63236E+04 -6.10652E+04  6.36183E+04 -8.41326E+04  3.23881E+04
 -8.23011E+04 -1.15503E+04 -5.87971E+04 -5.16659E+04 -1.50595E+04 -6.99544E+04  2.81559E+04 -4.67212E+04
  4.07324E+04  3.82744E+03  1.62390E+04  4.79050E+04 -3.41261E+04  4.73522E+04 -6.70184E+04 -7.76209E+02
 -5.44973E+04 -5.75524E+04 -6.83848E+03 -7.77661E+04  3.42077E+04 -5.57266E+04  4.88189E+04 -1.85491E+04
  4.45965E+04  1.12374E+04  3.24478E+04  2.66318E+04  1.57426E+04  2.98923E+04 -5.54288E+03  2.71027E+04
 -2.21871E+04  1.22080E+04 -1.82801E+04 -5.43812E+03  7.37802E+03 -7.80266E+03  2.31611E+04  1.32829E+04
  7.36717E+03  3.65252E+04 -3.25839E+04  3.66031E+04 -6.44474E+04  2.45911E+03 -5.80146E+04 -4.33585E+04
 -1.26588E+04 -6.45289E+04  4.03018E+04 -4.66876E+04  5.96370E+04 -1.97528E+03  3.55783E+04  3.42820E+04
 -6.23334E+03  3.78990E+04 -3.09983E+04  1.76585E+04 -3.20752E+04 -3.70765E+03 -1.80988E+04 -1.18084E+04
 -9.47693E+03 -1.40521E+04 -5.39524E+02 -1.89934E+04  8.06854E+03 -2.33081E+04  1.54873E+04 -1.31624E+04
  1.07290E+04  5.60698E+03 -9.03932E+03  1.33926E+04 -2.23219E+04 -5.11224E+03 -8.70466E+03 -3.56009E+04
  2.46634E+04 -4.59339E+04  4.98591E+04 -2.01239E+04  4.73012E+04  1.96850E+04  1.66398E+04  4.52622E+04
 -1.59850E+04  3.49620E+04 -2.61102E+04  2.17454E+03 -1.12175E+04 -2.89563E+04  2.15124E+04 -3.49715E+04
  4.29955E+04 -9.89290E+03  3.80784E+04  2.44816E+04  1.97516E+04  4.83347E+04 -8.40839E+03  5.38740E+04
 -3.39576E+04  3.63022E+04 -4.47855E+04  1.03024E+04 -4.50028E+04 -1.78118E+04 -2.53928E+04 -4.04314E+04
  7.67671E+03 -3.99433E+04  3.35520E+04 -1.62039E+04  3.04626E+04  1.10144E+04  4.46125E+03  2.01920E+04
 -1.45174E+04  9.07781E+03 -1.13943E+04 -7.95292E+03  6.29938E+03 -1.14835E+04  1.88065E+04  5.36537E+03
  1.46808E+04  2.22669E+04 -5.82506E+03  2.63304E+04 -2.32094E+04  1.31396E+04 -2.98624E+04 -3.98318E+03
 -2.30620E+04 -1.78377E+04 -9.77444E+03 -2.28160E+04  4.29449E+03 -2.25592E+04  1.73407E+04 -2.02782E+04
  2.98917E+04 -1.33365E+04  3.42172E+04  4.06750E+03  2.50180E+04  2.22810E+04  4.88255E+03  3.78555E+04
 -1.89615E+04  3.22794E+04 -2.91401E+04  1.13482E+04 -2.19254E+04 -1.01122E+04 -4.47103E+03 -1.27090E+04
  1.05745E+03 -1.49106E+03 -6.06555E+03  7.69510E+03 -1.81269E+04  5.09109E+03 -1.77518E+04 -8.18738E+03
 -1.09833E+04 -2.12394E+04  5.76836E+03 -2.49912E+04  1.67747E+04 -1.81396E+04  1.99791E+04 -1.02310E+03
  1.29516E+04  1.43377E+04 -6.36838E+02  2.06355E+04 -1.45875E+04  1.22111E+04 -2.11433E+04 -4.16287E+03
 -1.57308E+04 -1.86630E+04 -1.82599E+03 -2.55650E+04  1.13911E+04 -2.09213E+04  2.13675E+04 -1.04820E+04
  2.00808E+04  1.27670E+02  1.43103E+04  5.07739E+03  7.52782E+03  7.32939E+02  1.04066E+04 -2.14933E+03
  1.91726E+04  3.18970E+03  2.21898E+04  1.61692E+04  1.47065E+04  3.33471E+04 -2.56501E+03  3.84300E+04
 -2.21794E+04  3.16289E+04 -3.60795E+04  1.61674E+04 -3.83125E+04 -2.52010E+03 -3.10417E+04 -2.23084E+04
 -1.34994E+04 -3.23219E+04  1.17514E+04 -2.77553E+04  2.42185E+04 -1.38632E+04  2.18384E+04  6.77335E+03
  7.72819E+03  1.63430E+04 -1.04039E+04  1.34669E+04 -1.78681E+04  1.98974E+03 -1.31740E+04 -1.10995E+04
 -1.34725E+02 -1.65530E+04  9.25946E+03 -1.29556E+04  1.13752E+04 -1.20108E+03  2.42397E+03  7.37249E+03
 -7.30336E+03  3.15030E+03 -7.10580E+03 -6.04042E+03 -1.27966E+03 -1.57018E+04  1.06423E+04 -1.66281E+04
  1.88964E+04 -8.61152E+03  2.11743E+04  2.94275E+03  1.85536E+04  1.47882E+04  8.11551E+03  2.31801E+04
 -4.04056E+03  2.65962E+04 -1.60622E+04  1.62313E+04 -1.90590E+04  3.11756E+03 -1.26713E+04 -3.65842E+03
 -6.00912E+03 -6.01125E+03 -4.80170E+02  3.95228E+02 -2.45058E+03  2.74842E+03 -6.76275E+03  4.51563E+03
 -1.17864E+04 -4.76785E+02 -1.31331E+04 -9.56648E+03 -5.18157E+03 -1.74023E+04  5.43764E+03 -1.34188E+04
  1.04099E+04 -5.94340E+03  7.70983E+03  3.61064E+03 -3.33828E+02  4.88086E+03 -5.58843E+03  5.01379E+02
 -6.54537E+03 -8.45207E+03 -6.65610E+02 -1.30202E+04  6.96396E+03 -1.28731E+04  1.62919E+04 -6.96337E+03
  1.91081E+04  2.18287E+03  1.45260E+04  1.12808E+04  2.04115E+03  1.51815E+04 -8.13923E+03  1.30109E+04
 -1.03122E+04  4.26303E+03 -5.49648E+03 -2.98335E+03  1.71479E+03 -3.06842E+03  7.17945E+03 -8.56466E+02
  6.80759E+03  5.27182E+03  1.03512E+03  1.05520E+04 -7.46194E+03  9.80581E+03 -1.29761E+04  2.55103E+03
 -8.14465E+03 -6.11654E+03  7.08624E+02 -1.09046E+04  6.49329E+03 -5.47235E+03  7.75387E+03  1.93108E+03
  1.49281E+03  6.96655E+03 -6.14454E+03  8.77421E+03 -1.00502E+04  3.71264E+03 -1.01151E+04 -3.68270E+03
 -5.98612E+03 -1.15766E+04  2.98527E+03 -1.40477E+04  1.17533E+04 -8.30548E+03  1.27986E+04  1.79972E+03
  8.07575E+03  1.02918E+04 -1.78537E+02  1.26247E+04 -9.35272E+03  7.18932E+03 -1.02622E+04 -1.52583E+03
 -8.75798E+03 -8.31037E+03 -1.89863E+03 -8.84550E+03  4.96806E+03 -7.29840E+03  5.52014E+03 -3.29995E+03
  3.76580E+03  1.45986E+03 -3.93218E+02  1.90110E+03 -1.13803E+01 -2.29378E+03  1.73887E+03 -5.24054E+03
  8.52395E+03 -2.98008E+03  1.20104E+04  1.63441E+03  1.14664E+04  7.46080E+03  8.19598E+03  1.51468E+04
 -3.12099E+03  1.75432E+04 -1.51164E+04  1.18919E+04 -1.90330E+04  2.77565E+03 -1.48600E+04 -6.08821E+03
 -8.09251E+03 -1.22923E+04 -1.44966E+02 -1.05771E+04  3.92007E+03 -5.70549E+03  3.48338E+03 -3.59958E+03
  2.84796E+03 -2.19811E+03  3.69292E+03 -3.20902E+03  4.52355E+03 -3.12328E+03  6.15762E+03 -4.80806E+02
  8.24910E+03  1.88837E+03  3.55301E+03  6.74282E+03 -2.06580E+03  7.91720E+03 -8.18394E+03  6.12959E+03
 -9.94457E+03 -5.79799E+02 -6.15226E+03 -7.41990E+03 -5.13677E+02 -1.10135E+04  5.88009E+03 -1.09872E+04
  1.11274E+04 -6.21413E+03  1.36260E+04  4.69508E+02  9.51304E+03  9.24808E+03  1.49967E+03  1.26452E+04
 -5.21166E+03  9.59174E+03 -7.87081E+03  3.33886E+03 -4.84804E+03 -1.51392E+03 -1.87265E+03 -1.44309E+03
 -8.41116E+02 -3.77176E+02 -1.62252E+03  2.37978E+03 -4.27681E+03  2.12295E+03 -7.09613E+03 -1.14374E+03
 -4.18132E+03 -7.06580E+03  8.95165E+02 -9.64799E+03  6.37163E+03 -8.85447E+03  1.05199E+04 -3.30379E+03
  9.31069E+03  4.49660E+03  3.94051E+03  8.22446E+03 -2.25213E+03  1.05726E+04 -6.86191E+03  5.76531E+03
 -9.43057E+03  9.47281E+02 -7.39001E+03 -5.89126E+03 -1.09575E+03 -8.36835E+03  3.94143E+03 -5.54555E+03
  6.07298E+03 -2.19434E+03  4.07410E+03  1.48181E+03  1.57436E+03  3.69113E+03  8.40463E+02  1.01144E+03
  3.07622E+03  7.83545E+02  2.84209E+03  1.33032E+03  3.75683E+03  3.24641E+03  2.51989E+03  5.21242E+03
 -2.10072E+03  7.44844E+03 -6.14223E+03  7.54689E+03 -9.78013E+03  2.87189E+03 -1.02647E+04 -4.05840E+03
 -4.00543E+03 -8.97190E+03  1.46233E+03 -1.12975E+04  5.09987E+03 -5.99379E+03  7.37721E+03 -1.42459E+03
  5.98761E+03  4.10281E+03  6.51089E+02  5.42912E+03 -2.26919E+03  2.69580E+03 -3.36417E+03 -9.93944E+02
 -1.63176E+03 -3.79865E+03  2.46902E+03 -4.03234E+03  3.73402E+03 -2.08066E+03  3.71420E+03  1.15749E+03
  2.76664E+03  1.56624E+03  1.66486E+03  1.40067E+03  5.50780E+02  1.93737E+03  1.53662E+03 -7.23657E+02
  1.43888E+03 -7.09227E+02  4.10555E+03  1.21982E+03  1.80061E+03  5.48234E+03 -4.52322E+02  6.08711E+03
 -4.04581E+03  4.01241E+03 -5.77809E+03  1.06128E+03 -5.58622E+03 -2.05456E+03 -1.58100E+03 -3.01774E+03
  4.44731E+02 -3.14714E+03  2.08464E+03 -1.14030E+03  1.56316E+03  1.49808E+03 -9.31596E+02  3.18492E+03
 -3.74045E+03  2.06856E+03 -3.72467E+03 -1.63801E+03 -2.17668E+03 -5.42167E+03  3.83910E+02 -4.86481E+03
  3.24816E+03 -2.94656E+03  3.42473E+03 -8.06310E+00  2.48798E+03  7.20512E+02  4.40962E+02  3.14333E+03
 -1.56268E+03  2.39039E+02 -2.46231E+03 -1.67125E+03  8.65919E+02 -3.02685E+03  4.03722E+03 -2.99217E+03
  5.54414E+03  5.22474E+02  6.54884E+03  3.48609E+03  2.14475E+03  5.49964E+03 -1.82605E+03  5.22290E+03
 -4.80462E+03  1.28920E+03 -4.64196E+03 -6.31908E+02 -2.27786E+03 -4.13233E+03  4.88268E+02 -2.75481E+03
  3.49525E+03 -1.67971E+03  3.64714E+03  1.71245E+03  8.39696E+02  3.01692E+03  2.97431E+01  2.74960E+03
 -9.15863E+02  1.87105E+03 -1.39095E+03  5.49537E+02 -3.10225E+02  1.01979E+03 -2.38343E+03  1.38665E+03
 -1.96091E+03  2.25130E+03 -3.81642E+03  2.17654E+03 -5.05339E+03  3.25947E+02 -6.91867E+03 -3.18945E+03
 -2.61378E+03 -6.99059E+03  1.70889E+03 -7.90043E+03  4.90871E+03 -6.93519E+03  7.45181E+03 -3.09480E+03
  7.12415E+03  1.58113E+03  4.82820E+03  4.36324E+03  2.71070E+02  5.42483E+03 -1.74831E+03  3.81850E+03
 -3.29170E+03  1.91894E+03 -1.22964E+03 -5.27187E+02 -9.18760E+02 -7.26736E+02 -8.55404E+02 -3.98147E+02
 -1.08063E+03  1.55367E+02 -1.85968E+03 -4.99900E+02 -5.40834E+02 -1.70521E+03 -1.79097E+02 -2.58671E+03
  2.26262E+03 -1.47848E+03  3.17188E+03  6.00800E+01  3.42055E+03  2.53428E+03  3.96049E+02  5.01475E+03
 -2.51168E+03  5.41618E+03 -5.25983E+03  3.06898E+03 -6.46529E+03 -4.01298E+02 -4.29975E+03 -4.08210E+03
 -1.99089E+03 -5.68890E+03  8.58800E+02 -4.98581E+03  2.46335E+03 -2.43289E+03  2.72296E+03  4.51911E+01
  2.33592E+03  1.51205E+03 -5.46281E+02  1.66703E+03 -8.94873E+01 -8.12725E+01  6.08507E+02 -4.14747E+02
  1.39308E+03 -3.29564E+02  2.06879E+03  1.27237E+02  1.05031E+03  1.91521E+03  4.24215E+02  2.24837E+03
 -2.35906E+03  1.96221E+03 -2.84201E+03  4.04456E+01 -2.99653E+03 -1.64406E+03 -4.96736E+02 -4.18923E+03
  1.93874E+03 -2.94140E+03  3.71536E+03 -1.42723E+03  3.55919E+03  3.37025E+02  1.94110E+03  3.30794E+03
  2.80561E+02  2.85681E+03 -1.30867E+03  1.58075E+03 -1.78463E+03  1.86535E+03 -1.26545E+03 -2.05673E+00
 -1.15601E+03  3.06952E+02 -8.76179E+02  8.94831E+02 -1.38795E+03  5.98663E+02 -2.40964E+03 -1.66173E+02
 -2.86665E+03 -1.93285E+03 -8.86556E+02 -3.24882E+03  1.52030E+03 -3.45191E+03  3.02595E+03 -1.10009E+03
  3.29944E+03  8.93886E+01  1.27301E+03  1.90974E+03 -5.38721E+02  3.07978E+03 -2.06240E+03  1.66334E+03
