 $NMID ID='MM_0lb_SNR400_14hz_g45_98.RAW', FMTDAT='(8E13.5)'
 TRAMP=1., VOLUME=1. $END
  3.10264E+05 -2.13982E+02  3.37039E+05  2.50156E+05  8.42286E+04  3.37829E+05 -1.32838E+05  2.51200E+05
 -1.90241E+05  8.25095E+04 -1.11356E+05 -3.25180E+04  1.33721E+03 -5.00681E+04  5.43620E+04  6.99030E+02
  3.51708E+04  5.29821E+04 -1.67213E+04  7.54204E+04 -6.11781E+04  6.32187E+04 -8.45435E+04  3.16697E+04
 -8.11528E+04 -1.10848E+04 -5.68022E+04 -5.12776E+04 -1.41675E+04 -6.91569E+04  2.72140E+04 -4.62321E+04
  4.07423E+04  4.00141E+03  1.59918E+04  4.77782E+04 -3.42405E+04  4.67247E+04 -6.58761E+04 -7.27185E+02
 -5.35370E+04 -5.63868E+04 -7.15409E+03 -7.72123E+04  3.35636E+04 -5.45399E+04  4.75500E+04 -1.66771E+04
  4.30827E+04  1.13686E+04  3.16438E+04  2.55891E+04  1.63262E+04  2.93261E+04 -4.83053E+03  2.74327E+04
 -2.21683E+04  1.25055E+04 -1.86157E+04 -4.79883E+03  5.97072E+03 -7.52708E+03  2.20032E+04  1.24460E+04
  7.58545E+03  3.46342E+04 -3.21455E+04  3.57986E+04 -6.37182E+04  2.58050E+03 -5.65857E+04 -4.26600E+04
 -1.22203E+04 -6.28726E+04  3.95991E+04 -4.50897E+04  5.76735E+04 -1.99355E+03  3.39770E+04  3.22576E+04
 -6.11804E+03  3.59339E+04 -2.95657E+04  1.58806E+04 -2.98076E+04 -4.81866E+03 -1.64566E+04 -1.13805E+04
 -8.07398E+03 -1.25808E+04 -1.04579E+03 -1.80760E+04  7.76139E+03 -2.29460E+04  1.48606E+04 -1.38679E+04
  1.11142E+04  4.99246E+03 -8.07296E+03  1.24168E+04 -2.14136E+04 -3.65152E+03 -8.25233E+03 -3.30753E+04
  2.23905E+04 -4.32561E+04  4.75449E+04 -1.90370E+04  4.47747E+04  1.95111E+04  1.52998E+04  4.31709E+04
 -1.65190E+04  3.29758E+04 -2.49760E+04  1.88132E+03 -9.74280E+03 -2.81015E+04  2.09151E+04 -3.34316E+04
  4.07039E+04 -9.30841E+03  3.47661E+04  2.32575E+04  1.75480E+04  4.58651E+04 -8.08095E+03  4.97935E+04
 -3.15429E+04  3.38574E+04 -4.13804E+04  9.36779E+03 -4.17035E+04 -1.67211E+04 -2.34347E+04 -3.76249E+04
  7.57299E+03 -3.67433E+04  3.14797E+04 -1.40907E+04  2.94100E+04  1.09894E+04  4.70196E+03  1.86143E+04
 -1.28806E+04  8.06500E+03 -9.89638E+03 -8.45610E+03  5.66558E+03 -1.07585E+04  1.78593E+04  6.17611E+03
  1.40959E+04  2.16693E+04 -5.90075E+03  2.50314E+04 -2.24715E+04  1.09764E+04 -2.74176E+04 -4.67745E+03
 -1.98965E+04 -1.73270E+04 -7.71923E+03 -1.95395E+04  3.49733E+03 -1.89024E+04  1.55743E+04 -1.79445E+04
  2.56623E+04 -1.28427E+04  3.14248E+04  2.62511E+03  2.33126E+04  1.97201E+04  4.14144E+03  3.61627E+04
 -1.76872E+04  3.00787E+04 -2.75924E+04  1.02674E+04 -2.11570E+04 -1.00268E+04 -4.17466E+03 -1.33862E+04
  1.93805E+03 -2.20547E+03 -4.85331E+03  7.11997E+03 -1.58180E+04  5.38346E+03 -1.57531E+04 -6.71025E+03
 -9.75060E+03 -1.88786E+04  5.57166E+03 -2.29873E+04  1.52764E+04 -1.64998E+04  1.79922E+04 -1.04018E+03
  1.10217E+04  1.29283E+04 -2.78392E+02  1.84811E+04 -1.18065E+04  1.07350E+04 -1.91037E+04 -3.63277E+03
 -1.32811E+04 -1.73196E+04 -1.54564E+03 -2.26354E+04  1.04842E+04 -1.88626E+04  1.85304E+04 -8.26380E+03
  1.75902E+04  8.42147E+01  1.25458E+04  4.63284E+03  6.67995E+03  1.36554E+03  9.41766E+03 -1.30773E+03
  1.68989E+04  2.99173E+03  1.91488E+04  1.50687E+04  1.20582E+04  3.02404E+04 -3.38372E+03  3.36175E+04
 -1.93695E+04  2.71454E+04 -3.07146E+04  1.32550E+04 -3.24584E+04 -2.89641E+03 -2.68381E+04 -1.89033E+04
 -1.23798E+04 -2.67342E+04  9.36825E+03 -2.41975E+04  2.10308E+04 -1.27408E+04  1.92097E+04  5.36313E+03
  6.93055E+03  1.40472E+04 -8.97674E+03  1.25151E+04 -1.56705E+04  2.67127E+03 -1.19738E+04 -9.81521E+03
  3.15568E+02 -1.53935E+04  8.10028E+03 -1.06766E+04  1.01697E+04 -1.80493E+03  1.97996E+03  6.51843E+03
 -7.12818E+03  2.54648E+03 -5.82311E+03 -5.60818E+03  1.17377E+02 -1.33967E+04  8.98929E+03 -1.42494E+04
  1.60591E+04 -7.15927E+03  1.75892E+04  2.89427E+03  1.48033E+04  1.24223E+04  7.57987E+03  1.95845E+04
 -3.46389E+03  2.16629E+04 -1.36631E+04  1.34209E+04 -1.55595E+04  3.52120E+03 -1.09223E+04 -3.30272E+03
 -5.24541E+03 -5.18011E+03 -2.83283E+02  1.03183E+03 -1.62547E+03  2.41051E+03 -4.98280E+03  3.72275E+03
 -9.88769E+03 -1.06692E+03 -1.13326E+04 -8.93036E+03 -4.10605E+03 -1.44938E+04  4.43987E+03 -1.14690E+04
  9.07468E+03 -4.83045E+03  7.04504E+03  3.06445E+03  7.58490E+02  4.37866E+03 -5.21429E+03 -3.79358E+02
 -4.98145E+03 -7.49498E+03 -1.04772E+03 -1.00378E+04  5.99392E+03 -1.10533E+04  1.39001E+04 -5.94641E+03
  1.55490E+04  1.49553E+03  1.17689E+04  8.99840E+03  2.30699E+03  1.28616E+04 -7.01557E+03  1.10803E+04
 -9.28544E+03  3.36743E+03 -4.85335E+03 -1.91804E+03  1.74153E+03 -2.87375E+03  5.86234E+03 -7.56528E+02
  5.57309E+03  4.63439E+03  1.67799E+03  8.82246E+03 -6.39288E+03  8.44022E+03 -1.06996E+04  1.73111E+03
 -6.79367E+03 -5.69480E+03  6.13263E+02 -9.40176E+03  5.76139E+03 -4.76610E+03  5.52591E+03  2.47924E+03
  1.13786E+03  5.68393E+03 -5.20278E+03  7.07878E+03 -8.06814E+03  4.34356E+03 -7.72229E+03 -2.64013E+03
 -4.91195E+03 -9.56383E+03  1.99756E+03 -1.13932E+04  9.77834E+03 -6.93981E+03  9.33010E+03  1.90430E+03
  6.17439E+03  7.47797E+03 -1.77449E+02  1.02951E+04 -7.06629E+03  6.12824E+03 -8.52723E+03 -4.76609E+02
 -7.74754E+03 -5.97499E+03 -1.65698E+03 -7.50293E+03  4.01541E+03 -6.69493E+03  4.21728E+03 -2.74115E+03
  3.35450E+03  8.43027E+02 -3.71485E+02  1.28979E+03 -5.60197E+01 -1.22638E+03  1.39298E+03 -3.17730E+03
  6.53241E+03 -1.81952E+03  9.06199E+03  1.06298E+03  8.98616E+03  6.17799E+03  7.14440E+03  1.18112E+04
 -2.57690E+03  1.32977E+04 -1.18687E+04  1.03021E+04 -1.58193E+04  1.70041E+03 -1.25625E+04 -5.19593E+03
 -6.43249E+03 -1.05580E+04 -1.85704E+02 -8.52515E+03  3.33952E+03 -3.49287E+03  3.54015E+03 -3.60158E+03
  2.10420E+03 -2.31021E+03  2.54044E+03 -2.63272E+03  4.16494E+03 -2.37948E+03  5.63291E+03  2.89090E+01
  6.24557E+03  1.97012E+03  3.10781E+03  5.30177E+03 -1.81542E+03  5.59104E+03 -6.35539E+03  4.96847E+03
 -8.33053E+03 -1.37687E+03 -4.88667E+03 -6.07164E+03 -6.82940E+02 -8.12266E+03  4.81504E+03 -9.40423E+03
  8.79596E+03 -4.43791E+03  1.10525E+04  1.06240E+03  7.85529E+03  7.36952E+03  1.29545E+03  1.00162E+04
 -4.03775E+03  9.05325E+03 -5.24062E+03  2.93350E+03 -2.94323E+03 -1.21286E+03 -1.20375E+03 -1.07140E+03
 -8.46987E+02 -3.00507E+02 -1.00982E+03  2.04281E+03 -3.50324E+03  1.30211E+03 -5.98398E+03 -5.07892E+02
 -3.92710E+03 -5.80829E+03  6.26998E+02 -8.97194E+03  4.21559E+03 -7.05542E+03  7.71827E+03 -2.16411E+03
  7.44956E+03  3.52693E+03  3.27082E+03  6.61337E+03 -1.16517E+03  8.11549E+03 -4.83212E+03  4.69218E+03
 -7.02136E+03  6.76796E+02 -5.63001E+03 -4.70324E+03 -3.18153E+02 -6.32580E+03  3.09798E+03 -4.69680E+03
  5.09735E+03 -2.09650E+03  3.20737E+03  1.37077E+03  1.29644E+03  2.13976E+03  1.26639E+03  1.32961E+03
  2.22586E+03  8.57908E+02  1.93219E+03  1.23574E+03  2.41375E+03  3.72719E+03  2.20206E+03  4.37943E+03
 -9.27564E+02  5.97746E+03 -5.19422E+03  6.96934E+03 -7.34469E+03  2.15755E+03 -8.13503E+03 -2.39915E+03
 -4.04601E+03 -7.29922E+03  1.13913E+03 -8.33371E+03  4.01116E+03 -4.99261E+03  5.98647E+03 -1.77823E+03
  4.31113E+03  2.61495E+03  1.15582E+03  4.00683E+03 -1.82228E+03  2.83888E+03 -2.86528E+03 -5.92040E+02
 -1.13407E+03 -3.31577E+03  1.96552E+03 -2.96481E+03  3.20606E+03 -1.96765E+03  2.84538E+03  7.59662E+02
  1.94126E+03  9.17764E+02  6.34579E+02  9.23362E+02 -8.70987E+02  1.23470E+03  1.56354E+03 -5.05151E+02
  2.69442E+02 -5.83563E+02  3.02384E+03  1.66667E+03  1.28231E+03  4.32742E+03 -1.87301E+02  6.05783E+03
 -3.96726E+03  2.88488E+03 -4.33066E+03  1.20909E+03 -3.98099E+03 -1.76646E+03 -7.99591E+02 -2.54474E+03
 -4.24296E+02 -2.66065E+03  1.57392E+03 -1.10792E+03  1.00645E+03  2.15391E+03 -7.46937E+02  1.74999E+03
 -2.20541E+03  5.74967E+02 -2.52911E+03 -1.89024E+03 -1.95243E+03 -4.09360E+03  2.67657E+02 -3.53563E+03
  1.72448E+03 -1.85444E+03  2.34047E+03  3.02978E+02  1.95482E+03  5.62826E+02  9.46062E+02  2.70288E+03
 -1.78921E+03  6.15482E+02 -1.39744E+03 -3.17618E+02  4.91804E+02 -3.12984E+03  3.00735E+03 -1.88052E+03
  4.16262E+03  1.37680E+03  5.48856E+03  2.12963E+03  1.80420E+03  3.69203E+03 -1.23436E+03  4.21912E+03
 -3.50799E+03  1.70077E+03 -3.34900E+03 -8.97798E+02 -2.05955E+03 -2.98115E+03  3.41041E+02 -2.22003E+03
  2.81493E+03 -1.70243E+03  2.33003E+03  1.38226E+03  1.01091E+03  2.58039E+03 -1.06614E+02  2.29627E+03
 -1.25591E+03  1.57844E+03 -7.76778E+02  5.54642E+02 -5.64041E+02  5.23627E+02 -1.11105E+03  9.55550E+02
 -1.04686E+03  1.62766E+03 -2.86644E+03  1.52232E+03 -4.46286E+03  4.02877E+02 -4.99718E+03 -3.06041E+03
 -2.52413E+03 -5.04716E+03  1.58431E+03 -5.88463E+03  3.79477E+03 -5.04093E+03  5.61145E+03 -2.51135E+03
  5.85763E+03  2.79015E+02  2.95598E+03  3.37262E+03  3.21229E+02  4.01787E+03 -2.35735E+03  2.95638E+03
 -2.91665E+03  7.92462E+02 -1.01259E+03 -7.88891E+02 -4.29380E+02 -8.19971E+01 -8.06402E+02  1.32704E+02
 -1.01468E+03  3.08099E+02 -1.37281E+03 -6.56340E+01  8.00997E+02 -1.20673E+03  1.40516E+02 -1.61257E+03
  1.86608E+03 -1.54356E+03  1.57922E+03  2.26146E+02  2.63200E+03  1.79956E+03  3.11143E+02  3.77352E+03
 -2.19878E+03  4.91407E+03 -4.81532E+03  2.26122E+03 -4.52087E+03 -8.20946E+02 -3.41589E+03 -2.80522E+03
 -2.27753E+03 -3.82679E+03  9.21704E+02 -3.53941E+03  1.65582E+03 -1.69450E+03  3.10978E+03  7.33529E+02
  1.53356E+03  7.75451E+02  4.26931E+02  1.15292E+03 -1.18310E+03 -5.42683E+02  6.19366E+01 -4.17927E+01
  7.41979E+02 -1.12498E+03  1.13129E+03  7.45167E+02  1.18516E+03  1.39713E+03  9.36540E+02  1.74297E+03
 -1.55754E+03  1.60426E+03 -2.09552E+03 -6.94255E+02 -1.93939E+03 -1.74192E+03  1.41030E+02 -2.53908E+03
  2.26222E+03 -1.69602E+03  2.21097E+03 -3.34000E+02  2.64649E+03  4.43799E+01  8.53664E+02  2.64953E+03
  6.70014E+02  1.58700E+03 -6.38084E+02  1.88132E+03 -1.94152E+03  1.01710E+03 -1.09679E+03  5.14500E+02
 -6.36841E+02 -5.83945E+01 -1.61017E+03  4.83597E+02 -9.13537E+02  4.04379E+02 -1.63280E+03 -4.08756E+02
 -2.11251E+03 -1.13904E+02 -4.41842E+02 -2.68846E+03  1.34160E+03 -2.73726E+03  2.26083E+03 -9.48480E+02
  2.03210E+03  3.57757E+02  2.16411E+02  1.41278E+03 -7.35739E+02  1.67701E+03 -1.52049E+03  2.11443E+03
