 $NMID ID='MM_0lb_SNR400_14hz_g40_66.RAW', FMTDAT='(8E13.5)'
 TRAMP=1., VOLUME=1. $END
  3.10158E+05 -1.86156E+02  3.37668E+05  2.50748E+05  8.43677E+04  3.37383E+05 -1.32741E+05  2.51057E+05
 -1.90293E+05  8.28265E+04 -1.11503E+05 -3.31147E+04  1.06657E+03 -5.02474E+04  5.38406E+04  2.77457E+02
  3.51836E+04  5.28427E+04 -1.76586E+04  7.57268E+04 -6.03207E+04  6.35177E+04 -8.39893E+04  3.14010E+04
 -8.09693E+04 -1.11767E+04 -5.66525E+04 -5.10879E+04 -1.51370E+04 -6.91233E+04  2.69442E+04 -4.52467E+04
  3.94359E+04  4.06294E+03  1.57666E+04  4.71722E+04 -3.42488E+04  4.67157E+04 -6.60421E+04 -1.05598E+03
 -5.27476E+04 -5.66317E+04 -6.93921E+03 -7.68894E+04  3.37814E+04 -5.49104E+04  4.70527E+04 -1.73627E+04
  4.29703E+04  1.10771E+04  3.09367E+04  2.54922E+04  1.56681E+04  2.97647E+04 -4.82455E+03  2.69007E+04
 -2.11304E+04  1.23230E+04 -1.92743E+04 -4.31867E+03  5.49555E+03 -8.36110E+03  2.09434E+04  1.24521E+04
  7.36757E+03  3.48762E+04 -3.19918E+04  3.50857E+04 -6.25641E+04  1.57007E+03 -5.64902E+04 -4.24539E+04
 -1.26790E+04 -6.24881E+04  3.90506E+04 -4.45914E+04  5.76871E+04 -2.34566E+03  3.43816E+04  3.19041E+04
 -6.31077E+03  3.48110E+04 -2.96243E+04  1.47742E+04 -2.98171E+04 -4.30097E+03 -1.59015E+04 -1.10598E+04
 -7.84571E+03 -1.31924E+04 -1.13449E+03 -1.72802E+04  6.89961E+03 -2.28044E+04  1.53122E+04 -1.35916E+04
  1.18639E+04  4.81119E+03 -7.65790E+03  1.27318E+04 -2.10355E+04 -4.13972E+03 -7.20395E+03 -3.26893E+04
  2.17698E+04 -4.32194E+04  4.67884E+04 -1.92670E+04  4.39555E+04  1.88141E+04  1.48867E+04  4.32152E+04
 -1.53445E+04  3.33800E+04 -2.46713E+04  1.39417E+03 -9.99115E+03 -2.76176E+04  2.09220E+04 -3.26400E+04
  4.00220E+04 -8.79719E+03  3.46172E+04  2.39072E+04  1.71761E+04  4.58977E+04 -7.09660E+03  4.89538E+04
 -3.11032E+04  3.26391E+04 -4.06446E+04  8.93283E+03 -4.15962E+04 -1.57603E+04 -2.30157E+04 -3.72482E+04
  7.41687E+03 -3.70436E+04  3.10247E+04 -1.42754E+04  2.85140E+04  1.08714E+04  3.71602E+03  1.89466E+04
 -1.39413E+04  7.52776E+03 -1.03719E+04 -7.80867E+03  5.72634E+03 -1.04106E+04  1.77214E+04  5.72531E+03
  1.31398E+04  2.25044E+04 -6.05101E+03  2.51403E+04 -2.18824E+04  1.07228E+04 -2.72697E+04 -5.25245E+03
 -1.93566E+04 -1.78449E+04 -7.63391E+03 -1.93265E+04  4.43744E+03 -1.83773E+04  1.54704E+04 -1.72289E+04
  2.47930E+04 -1.23707E+04  3.17833E+04  1.95155E+03  2.31012E+04  1.97749E+04  4.07251E+03  3.52094E+04
 -1.75822E+04  2.98452E+04 -2.75461E+04  1.07754E+04 -2.03008E+04 -1.06683E+04 -4.31940E+03 -1.39776E+04
  2.06536E+03 -2.94335E+03 -3.89752E+03  6.03871E+03 -1.54214E+04  5.35326E+03 -1.55340E+04 -6.94124E+03
 -9.73990E+03 -1.75311E+04  5.19207E+03 -2.21131E+04  1.44743E+04 -1.62160E+04  1.76447E+04 -1.56800E+03
  1.11346E+04  1.26141E+04 -8.94773E+02  1.85875E+04 -1.31372E+04  1.01237E+04 -1.81530E+04 -4.03421E+03
 -1.36002E+04 -1.62410E+04 -1.35857E+03 -2.15693E+04  1.00940E+04 -1.78088E+04  1.88105E+04 -8.89202E+03
  1.75233E+04  9.49621E+02  1.21746E+04  3.87641E+03  6.03007E+03  5.88793E+02  9.30878E+03 -1.79876E+03
  1.65558E+04  2.64752E+03  1.86305E+04  1.41601E+04  1.20277E+04  2.91317E+04 -3.06483E+03  3.23612E+04
 -1.88319E+04  2.60638E+04 -3.02593E+04  1.30809E+04 -3.13577E+04 -2.06460E+03 -2.67671E+04 -1.86565E+04
 -1.13568E+04 -2.63058E+04  8.70182E+03 -2.37400E+04  2.08289E+04 -1.24924E+04  1.89816E+04  5.25016E+03
  6.77133E+03  1.43262E+04 -8.62045E+03  1.20127E+04 -1.52881E+04  2.61885E+03 -1.18495E+04 -9.98915E+03
 -2.70858E+02 -1.45861E+04  7.29578E+03 -1.15188E+04  9.27057E+03 -1.06479E+03  1.22096E+03  6.16100E+03
 -6.42751E+03  2.42929E+03 -5.51079E+03 -5.34546E+03  1.85756E+02 -1.28755E+04  9.15666E+03 -1.27816E+04
  1.59656E+04 -6.79972E+03  1.60046E+04  3.51176E+03  1.49911E+04  1.30819E+04  6.55649E+03  1.88278E+04
 -2.44334E+03  2.05065E+04 -1.25041E+04  1.35556E+04 -1.51078E+04  2.87430E+03 -1.06700E+04 -3.18178E+03
 -5.02648E+03 -4.68355E+03  3.33788E+01  9.95641E+02 -2.40722E+03  2.71418E+03 -4.79532E+03  4.25987E+03
 -1.04762E+04 -4.89581E+02 -1.06953E+04 -8.97613E+03 -4.44815E+03 -1.39483E+04  4.30983E+03 -1.05480E+04
  9.12269E+03 -4.02940E+03  6.93029E+03  3.32210E+03  8.78110E+01  4.48327E+03 -4.56125E+03  1.43066E+02
 -4.26030E+03 -6.61808E+03 -6.58833E+02 -9.68277E+03  5.80201E+03 -1.03406E+04  1.30244E+04 -5.25254E+03
  1.50198E+04  1.67327E+03  1.16626E+04  9.01006E+03  2.48764E+03  1.24302E+04 -6.62197E+03  1.02546E+04
 -8.80677E+03  3.26398E+03 -4.48604E+03 -2.10337E+03  1.67678E+03 -2.63932E+03  5.96108E+03 -1.19806E+03
  4.77485E+03  3.66649E+03  1.09024E+03  8.30209E+03 -5.68229E+03  8.48453E+03 -1.06000E+04  2.66051E+03
 -6.59688E+03 -5.06723E+03  3.51535E+02 -9.16038E+03  5.26516E+03 -4.31348E+03  5.21467E+03  1.86161E+03
  1.28138E+03  5.60895E+03 -5.57038E+03  6.98273E+03 -7.93628E+03  3.42026E+03 -7.42334E+03 -1.70583E+03
 -4.56956E+03 -9.36988E+03  1.56352E+03 -1.07215E+04  8.78067E+03 -6.28460E+03  9.51805E+03  1.09004E+03
  6.33126E+03  7.72894E+03  5.16083E+02  1.02838E+04 -6.97202E+03  5.84126E+03 -7.33340E+03 -9.59461E+02
 -7.77806E+03 -7.62451E+03 -9.25378E+02 -7.41992E+03  3.78169E+03 -6.08957E+03  4.68242E+03 -2.58966E+03
  3.90046E+03  5.69699E+02 -5.58955E+02  1.60679E+03  2.32234E+02 -1.39648E+03  1.01185E+03 -3.74616E+03
  6.14984E+03 -2.15463E+03  8.34596E+03  7.40235E+02  8.31530E+03  5.90632E+03  6.49188E+03  1.18733E+04
 -2.20303E+03  1.38890E+04 -1.10379E+04  1.00786E+04 -1.52825E+04  1.69915E+03 -1.14841E+04 -4.29947E+03
 -6.57260E+03 -9.08395E+03 -4.25588E+02 -8.23404E+03  2.94383E+03 -3.39027E+03  3.08408E+03 -3.05638E+03
  1.84324E+03 -2.16812E+03  1.94631E+03 -2.38970E+03  4.67181E+03 -2.29295E+03  4.81267E+03 -5.43180E+02
  6.56482E+03  1.87572E+03  2.49410E+03  5.11911E+03 -1.72644E+03  5.01074E+03 -5.91752E+03  4.59851E+03
 -8.12523E+03 -1.55766E+03 -4.32677E+03 -5.34655E+03 -7.82588E+01 -8.20296E+03  4.84118E+03 -8.77829E+03
  8.25588E+03 -4.58001E+03  1.08646E+04  1.25323E+03  7.51282E+03  7.13292E+03  1.40256E+03  1.00044E+04
 -4.07171E+03  8.58250E+03 -5.31396E+03  2.65496E+03 -3.55800E+03 -8.77180E+02 -1.52670E+03 -6.17191E+02
 -1.02053E+03  5.20669E+02 -1.71716E+03  1.98328E+03 -3.40275E+03  1.62637E+03 -6.06363E+03 -3.95749E+02
 -2.77772E+03 -6.03623E+03  8.22538E+02 -8.17809E+03  4.34573E+03 -7.07072E+03  6.15995E+03 -1.73438E+03
  7.13221E+03  4.21390E+03  2.75668E+03  6.55922E+03 -2.31603E+03  7.11372E+03 -5.36913E+03  5.09604E+03
 -6.35544E+03  3.31748E+02 -5.75678E+03 -4.27828E+03 -3.53020E+02 -5.90992E+03  2.91030E+03 -4.21996E+03
  4.52708E+03 -1.20308E+03  2.69055E+03  1.72600E+03  8.94862E+02  2.60955E+03  1.20397E+03  1.20253E+03
  1.69001E+03  9.80064E+02  1.82632E+03  1.00609E+03  1.67818E+03  3.02035E+03  2.52491E+03  3.74805E+03
 -1.84709E+03  5.34218E+03 -5.04207E+03  5.91267E+03 -6.74480E+03  1.81573E+03 -7.91143E+03 -2.94543E+03
 -3.48560E+03 -7.30442E+03  1.64620E+03 -7.98363E+03  3.60759E+03 -5.43830E+03  6.01672E+03 -1.32239E+03
  4.44751E+03  2.79733E+03  1.29427E+03  4.24544E+03 -1.67234E+03  2.84196E+03 -2.77071E+03 -1.73153E+02
 -1.24535E+03 -2.82699E+03  1.62196E+03 -2.66792E+03  2.71917E+03 -1.65006E+03  2.82633E+03  6.79132E+02
  1.98016E+03  8.69355E+02  6.71718E+02  5.73696E+02 -3.01942E+02  1.26857E+03  1.82068E+03 -4.92355E+02
  6.05120E+02 -3.04382E+02  2.93309E+03  1.26595E+03  1.29104E+03  4.02415E+03 -8.67314E+02  5.09195E+03
 -3.53123E+03  2.70311E+03 -3.91650E+03  1.01195E+03 -3.70528E+03 -9.02671E+02 -1.92190E+03 -2.30051E+03
  5.42279E+02 -2.32732E+03  1.73859E+03 -1.60742E+03  1.20369E+03  1.73272E+03 -8.53016E+02  1.97480E+03
 -3.42929E+03  1.49990E+03 -2.36935E+03 -2.15404E+03 -1.99119E+03 -4.04569E+03  5.14794E+02 -3.92835E+03
  1.81506E+03 -1.91938E+03  2.49775E+03 -4.25438E+02  2.06599E+03 -4.97613E+01  9.67129E+02  2.29153E+03
 -1.11672E+03  1.19817E+02 -1.68538E+03 -1.08688E+03  1.02122E+03 -2.67932E+03  2.83743E+03 -1.99594E+03
  4.41170E+03  1.06468E+02  5.10285E+03  2.00797E+03  1.56974E+03  4.45602E+03 -1.04488E+03  4.32247E+03
 -3.37643E+03  1.11343E+03 -3.64182E+03 -5.24992E+02 -1.67642E+03 -3.22425E+03  1.42932E+03 -1.87516E+03
  2.97366E+03 -1.42020E+03  1.70907E+03  8.70821E+02  6.44770E+02  2.23797E+03 -2.32057E+02  2.40608E+03
 -9.36366E+02  1.92694E+03  6.02400E+01 -1.13844E+02 -5.02292E+02  5.02351E+02 -9.71260E+02  1.06103E+03
 -6.86144E+02  2.12888E+03 -3.13293E+03  1.85204E+03 -3.30717E+03  3.55564E+02 -4.05640E+03 -2.62501E+03
 -2.73140E+03 -5.85497E+03  1.08417E+03 -6.18653E+03  3.92226E+03 -5.18695E+03  5.64332E+03 -2.14572E+03
  5.17533E+03  7.08455E+02  3.32344E+03  3.69695E+03 -5.23724E+02  4.68503E+03 -1.51097E+03  2.94051E+03
 -2.08916E+03  1.75041E+03 -1.10568E+03 -1.20958E+02 -9.88097E+02  3.18418E+02 -6.74250E+02  3.73874E+02
 -1.66101E+03  5.78181E+02 -9.40153E+02 -1.69905E+02  5.67849E+02 -1.20732E+03 -1.51515E+02 -1.45163E+03
  1.76779E+03 -1.75084E+03  2.34827E+03 -3.74311E+02  3.21411E+03  2.29020E+03  4.03803E+02  3.92144E+03
 -2.03093E+03  4.81801E+03 -3.69854E+03  3.05763E+03 -4.15724E+03 -1.88631E+02 -3.30869E+03 -3.22117E+03
 -1.75446E+03 -3.74683E+03  8.72144E+02 -2.81440E+03  2.10723E+03 -1.52400E+03  2.28852E+03  1.99332E+02
  1.50142E+03  1.22558E+03 -3.30587E+02  1.41688E+03 -4.84426E+02  2.68678E+02 -1.43343E+02 -4.59054E+02
  9.90543E+02  2.07330E+02  9.37691E+02  9.17432E+02  6.36019E+02  1.22299E+03  4.93596E+02  1.64309E+03
 -1.66917E+03  1.72417E+03 -2.59318E+03  5.04548E+02 -1.54306E+03 -1.49766E+03 -6.47797E+02 -3.02758E+03
  1.57513E+03 -2.32618E+03  2.59706E+03 -3.52175E+02  2.88485E+03 -3.96279E+02  1.21550E+03  2.54002E+03
  6.86922E+02  2.05674E+03 -8.30324E+02  1.66901E+03 -1.68132E+03  1.01656E+03 -1.38621E+03  6.37619E+02
 -9.56961E+02  3.05368E+02 -3.72040E+02  4.04008E+02 -1.25933E+03  5.72458E+02 -1.69075E+03 -3.65951E+02
 -1.84313E+03 -8.60683E+02 -1.89125E+02 -2.18548E+03  1.26708E+03 -2.41140E+03  1.78783E+03 -1.05529E+03
  2.05222E+03  6.09247E+02  8.66585E+02  1.62776E+03 -4.77796E+02  2.22466E+03 -1.17581E+03  1.45927E+03
