 $NMID ID='MM_0lb_SNR400_20hz_g45_32.RAW', FMTDAT='(8E13.5)'
 TRAMP=1., VOLUME=1. $END
  3.09698E+05  8.34984E+02  3.36824E+05  2.50196E+05  8.44746E+04  3.37273E+05 -1.31913E+05  2.49632E+05
 -1.89605E+05  8.19863E+04 -1.10104E+05 -3.26556E+04  1.54360E+03 -5.01617E+04  5.37341E+04 -7.52493E+01
  3.51345E+04  5.26767E+04 -1.73174E+04  7.51102E+04 -6.01932E+04  6.24530E+04 -8.28533E+04  3.10269E+04
 -7.92785E+04 -1.15239E+04 -5.63564E+04 -4.98716E+04 -1.53659E+04 -6.79274E+04  2.66034E+04 -4.43779E+04
  3.81410E+04  3.82819E+03  1.53553E+04  4.69057E+04 -3.33399E+04  4.59471E+04 -6.46143E+04 -7.86827E+02
 -5.14371E+04 -5.54193E+04 -5.61595E+03 -7.42803E+04  3.30507E+04 -5.19306E+04  4.55349E+04 -1.54788E+04
  4.08149E+04  1.11743E+04  3.06945E+04  2.39288E+04  1.56769E+04  2.75920E+04 -4.22680E+03  2.67881E+04
 -2.13342E+04  1.32094E+04 -1.91058E+04 -3.83006E+03  3.85149E+03 -7.65588E+03  2.13729E+04  1.09167E+04
  7.54393E+03  3.18567E+04 -3.00958E+04  3.32147E+04 -6.06673E+04  2.04906E+03 -5.46268E+04 -4.05174E+04
 -1.24347E+04 -6.01289E+04  3.76121E+04 -4.28894E+04  5.44694E+04 -1.49913E+03  3.11217E+04  2.94920E+04
 -6.64187E+03  3.15888E+04 -2.78583E+04  1.26240E+04 -2.68857E+04 -5.74400E+03 -1.39678E+04 -1.00505E+04
 -6.85061E+03 -1.01432E+04 -8.94385E+02 -1.65389E+04  6.71560E+03 -2.26710E+04  1.45031E+04 -1.39851E+04
  1.28104E+04  4.14079E+03 -5.54391E+03  1.33981E+04 -1.84925E+04 -1.81929E+03 -7.77231E+03 -2.96617E+04
  2.01082E+04 -3.99555E+04  4.34328E+04 -1.82462E+04  4.06628E+04  1.76976E+04  1.37012E+04  4.06825E+04
 -1.51491E+04  3.03687E+04 -2.25188E+04  1.22184E+03 -7.74471E+03 -2.59054E+04  2.04481E+04 -3.04845E+04
  3.69021E+04 -7.05036E+03  3.02272E+04  2.24763E+04  1.49126E+04  4.13965E+04 -7.61501E+03  4.37138E+04
 -2.72295E+04  2.84631E+04 -3.55723E+04  8.43285E+03 -3.66982E+04 -1.44994E+04 -2.01651E+04 -3.28460E+04
  6.94449E+03 -3.26029E+04  2.83987E+04 -1.16565E+04  2.57606E+04  1.09060E+04  2.46581E+03  1.74814E+04
 -1.30731E+04  6.86994E+03 -9.38281E+03 -7.32515E+03  6.30161E+03 -1.00302E+04  1.68772E+04  6.85541E+03
  1.21117E+04  2.10419E+04 -6.89787E+03  2.31014E+04 -2.13505E+04  8.35458E+03 -2.37393E+04 -6.62673E+03
 -1.53736E+04 -1.59443E+04 -4.29916E+03 -1.56218E+04  3.99323E+03 -1.31917E+04  1.15632E+04 -1.28315E+04
  1.94511E+04 -1.14686E+04  2.69833E+04  2.79694E+02  2.01293E+04  1.49448E+04  3.99009E+03  3.12929E+04
 -1.54974E+04  2.70076E+04 -2.47552E+04  8.79478E+03 -1.89988E+04 -9.89701E+03 -3.67710E+03 -1.39288E+04
  2.63779E+03 -4.45609E+03 -1.82600E+03  4.99257E+03 -1.23613E+04  4.94219E+03 -1.20484E+04 -3.77054E+03
 -8.29794E+03 -1.45756E+04  3.92760E+03 -1.79455E+04  1.13171E+04 -1.33347E+04  1.35344E+04 -1.28520E+03
  8.03740E+03  1.02887E+04 -8.73039E+02  1.43984E+04 -9.82921E+03  7.96247E+03 -1.45654E+04 -3.04628E+03
 -1.06159E+04 -1.33534E+04 -1.12742E+03 -1.79308E+04  7.88710E+03 -1.37446E+04  1.48767E+04 -7.14056E+03
  1.38190E+04  1.12032E+03  9.26960E+03  3.85515E+03  4.59682E+03  1.61177E+02  6.67218E+03 -1.17409E+03
  1.32352E+04  2.48631E+03  1.30545E+04  1.23342E+04  8.06003E+03  2.29349E+04 -3.25142E+03  2.41464E+04
 -1.48325E+04  1.80372E+04 -2.17314E+04  8.40807E+03 -2.20665E+04 -1.60443E+03 -1.92563E+04 -1.24498E+04
 -9.42629E+03 -1.80426E+04  5.73840E+03 -1.66219E+04  1.53620E+04 -1.01730E+04  1.49131E+04  3.20896E+03
  6.54944E+03  1.02948E+04 -6.62518E+03  9.40325E+03 -1.23837E+04  3.02059E+03 -9.68675E+03 -7.67276E+03
  1.97254E+02 -1.17302E+04  5.81414E+03 -8.33385E+03  7.38343E+03 -1.36556E+03  9.68188E+02  4.00695E+03
 -4.65621E+03  8.77285E+02 -2.84651E+03 -4.44199E+03  1.26489E+03 -9.03808E+03  7.43421E+03 -9.06758E+03
  1.10829E+04 -3.66838E+03  1.03873E+04  2.38761E+03  8.22427E+03  7.85453E+03  4.23709E+03  1.20004E+04
 -1.22034E+03  1.41554E+04 -8.62127E+03  9.06864E+03 -9.57268E+03  2.78153E+03 -7.81721E+03 -1.58884E+03
 -4.57529E+03 -2.76821E+03 -7.39441E+02  1.91201E+03 -1.67375E+03  1.99327E+03 -2.92756E+03  3.16564E+03
 -7.84900E+03  1.58202E+02 -7.74159E+03 -6.81042E+03 -3.41190E+03 -1.09724E+04  3.39231E+03 -7.42446E+03
  6.23784E+03 -3.54627E+03  5.05738E+03  1.47521E+03  1.08106E+03  2.86458E+03 -2.48602E+03  9.06617E+01
 -2.69547E+03 -4.34305E+03 -4.48928E+02 -6.32724E+03  3.29735E+03 -7.20645E+03  8.83807E+03 -3.44957E+03
  1.02794E+04  3.21979E+02  7.79139E+03  4.99857E+03  1.40710E+03  7.27798E+03 -4.95004E+03  7.84499E+03
 -6.87985E+03  2.65828E+03 -3.49293E+03 -1.33603E+03  1.14351E+03 -1.94689E+03  4.35815E+03 -1.16052E+03
  3.84160E+03  2.86156E+03  6.91869E+02  5.70044E+03 -4.32055E+03  5.81434E+03 -6.90192E+03  1.70157E+03
 -4.45026E+03 -2.82808E+03  5.71368E+02 -5.63079E+03  3.16268E+03 -3.03466E+03  2.87041E+03  4.00812E+02
 -1.84685E+02  2.55185E+03 -3.36927E+03  4.26617E+03 -4.09412E+03  1.93478E+03 -3.72555E+03 -4.79074E+02
 -2.60930E+03 -5.12756E+03  7.76923E+02 -5.36951E+03  5.54880E+03 -3.62063E+03  5.40076E+03  8.05709E+02
  3.94052E+03  4.49915E+03  4.92377E+02  6.40102E+03 -4.69299E+03  3.76566E+03 -4.48012E+03 -5.73203E+02
 -4.99176E+03 -4.38090E+03 -1.58623E+03 -3.58555E+03  1.77103E+03 -4.15597E+03  2.15396E+03 -2.81463E+03
  2.94698E+03 -1.31947E+02  8.45679E+01  7.51057E+02  5.32968E+02  6.63744E+01 -6.01344E+00 -1.28029E+03
  3.68580E+03  2.84899E+01  4.27448E+03  3.90803E+02  4.58830E+03  1.72426E+03  4.52357E+03  5.97742E+03
 -7.83209E+02  7.15196E+03 -7.16505E+03  5.11960E+03 -8.14093E+03  9.90077E+02 -6.62246E+03 -1.96668E+03
 -3.91430E+03 -5.37105E+03 -5.54990E+01 -4.34575E+03  1.97324E+03 -1.40293E+03  1.80487E+03 -2.17413E+03
  8.71919E+02 -1.09245E+03  2.06162E+03 -2.16928E+03  3.56168E+03 -1.27670E+03  2.77402E+03  3.15524E+02
  3.97800E+03  9.61336E+02  6.31223E+02  2.54254E+03 -1.44732E+03  1.59120E+03 -3.93376E+03  1.71312E+03
 -3.61929E+03 -1.58185E+03 -1.10407E+03 -3.27109E+03  6.36729E+02 -3.93290E+03  2.37509E+03 -4.73978E+03
  4.15482E+03 -2.63494E+03  6.30106E+03  2.13558E+02  3.88739E+03  3.72165E+03  1.04298E+03  4.42369E+03
 -1.40391E+03  5.22208E+03 -2.74887E+03  1.49624E+03 -1.59401E+03 -7.99309E+02 -2.09758E+02 -7.51450E+02
 -3.02599E+01  3.75794E+02 -1.08414E+03  1.75254E+03 -2.47061E+03  8.94310E+02 -3.66186E+03  2.24212E+02
 -1.42048E+03 -3.96647E+03  7.01735E+02 -3.64267E+03  2.39083E+03 -3.92577E+03  2.34234E+03 -9.64938E+02
  3.07446E+03  2.47382E+03  1.22652E+03  2.44305E+03 -9.35102E+02  3.68596E+03 -2.27419E+03  1.84161E+03
 -3.26634E+03  6.39641E+02 -2.29635E+03 -2.00859E+03 -6.21674E+02 -2.45884E+03  1.28538E+03 -2.19436E+03
  2.08795E+03 -1.00491E+03  1.65828E+03  2.04405E+02  1.21386E+02  8.15556E+02  8.95702E+02  5.45253E+02
  1.62890E+03  3.52667E+02  1.16269E+03  9.23698E+02  6.64350E+02  1.85146E+03  1.18867E+03  8.51869E+02
 -1.09833E+03  2.12808E+03 -1.24741E+03  3.15623E+03 -2.07394E+03  1.86921E+03 -3.03611E+03  1.60604E+02
 -1.10380E+03 -2.95948E+03  5.14659E+02 -3.86509E+03  1.30000E+03 -1.94676E+03  2.70579E+03 -8.21572E+02
  2.19301E+03  9.20617E+02  2.81964E+02  2.33931E+03 -5.19737E+02  1.42827E+03 -1.01931E+03  2.30379E+02
 -2.67007E+02 -7.93270E+02  1.60543E+03 -1.28834E+03  1.48260E+03 -8.79598E+02  5.08298E+02  2.67874E+02
  4.73312E+02 -5.54457E+01  7.03307E+02 -6.58311E+02 -2.76344E+02  8.75310E+02  1.61682E+03  2.00774E+02
 -6.24295E+01  1.43644E+02  1.51127E+03  2.66660E+02 -2.03118E+01  1.96017E+03 -1.38911E+01  2.70109E+03
 -1.62995E+03  8.02034E+02 -9.55466E+02  6.78716E+02 -1.57305E+03 -4.04134E+02 -5.17929E+02 -8.37103E+02
  1.09003E+02 -5.70957E+02  4.96269E+02 -5.87782E+02  5.23084E+02  7.20678E+02 -9.27879E+02  9.03740E+02
 -9.84957E+02  6.59306E+02 -6.99236E+02 -1.17703E+03 -3.61170E+01 -1.90791E+03  2.16259E+02 -1.02242E+03
  1.40394E+02 -2.75925E+02  3.55533E+02  6.01258E+02  1.00710E+03  5.84017E+01  5.75539E+01  6.32461E+02
 -5.02459E+01  2.36880E+02 -1.01770E+03  5.15934E+00  7.08718E+02 -5.84197E+02  1.31050E+03 -6.50863E+02
  6.93507E+02  1.42462E+02  2.44542E+03  2.34008E+02  1.37014E+03  1.02391E+03  1.58370E+02  1.12350E+03
 -1.21382E+03  5.57701E+01 -7.27140E+02 -4.82640E+02 -5.06153E+02 -1.22595E+03  5.20623E+02  4.18184E+02
  1.23769E+03 -1.66432E+02  7.70195E+02  5.99588E+02 -2.73829E+01  6.38539E+02  7.42895E+02  6.00305E+02
 -2.36362E+01  1.33629E+03 -5.78395E+02  1.45415E+02 -3.76639E+02  6.32038E+02 -6.58925E+02  6.10341E+02
 -9.36784E+02  2.53049E+02 -1.08778E+03  6.67945E+02 -1.12450E+03  3.60449E+02 -2.09839E+03 -3.70370E+02
 -5.33325E+02 -1.32620E+03  2.87830E+02 -2.03033E+03  6.28131E+02 -1.53945E+03  2.51460E+03 -1.12813E+03
  2.09518E+03  4.79168E+02  3.47946E+02  1.38347E+03 -7.34432E+02  1.52238E+03 -9.02788E+02  8.37706E+02
 -1.07307E+03  4.52829E+02 -2.45906E+02 -4.68663E+02 -7.36190E+02  3.13899E+02 -5.89834E+02  3.77491E+02
 -9.66696E+02  2.76893E+02 -8.88699E+02 -2.08992E+02  3.71240E+02 -1.74693E+02 -3.40260E+02 -7.84616E+02
  1.11399E+03 -4.25815E+02  8.72851E+01  4.28366E+02  9.11935E+02  4.43873E+02 -5.99065E+02  1.12216E+03
 -1.03362E+03  1.73155E+03 -1.02825E+03  1.50367E+03 -1.80089E+03 -1.09869E+02 -1.22194E+03 -7.72547E+02
 -7.46573E+02 -1.33507E+03  5.08225E+01 -3.10439E+02  3.01427E+02 -8.16886E+02  7.46548E+02  3.62416E+02
  3.43503E+01  3.41641E+02  5.45721E+01  7.22003E+02 -5.26726E+02 -6.31106E+01  7.75986E+01 -3.12496E+02
  3.71123E+02  7.18296E+02  1.87105E+02  2.12173E+02 -4.28995E+02  3.70720E+02  4.21539E+02  2.31832E+02
 -2.21466E+02 -1.15068E+02 -1.72180E+02  3.82496E+01 -4.63389E+02 -7.67505E+01  1.73304E+02 -1.05835E+03
  7.65628E+02 -7.28879E+02 -5.82527E+01 -2.94886E+02  8.28863E+02 -7.32167E+02 -7.25625E+01  1.15228E+03
 -8.02921E+01  1.22639E+02 -2.36673E+01  9.53213E+01 -2.70405E+02  9.12024E+02 -5.58774E+02  3.00324E+01
  2.14083E+02 -6.15409E+00 -8.00661E+02  2.24968E+02 -7.35493E+02  5.28716E+02 -1.99350E+02 -2.33554E+02
 -9.29989E+02  1.08412E+02 -2.80545E+02 -1.18461E+03  2.78552E+02 -9.02735E+02  6.40204E+02  1.96185E+02
  1.04792E+03  5.72996E+00 -4.56178E+02 -1.20881E+02 -3.27480E+02  6.04182E+02 -2.67555E+01  3.47554E+02
