 $NMID ID='MM_0lb_SNR400_9hz_g40_88.RAW', FMTDAT='(8E13.5)'
 TRAMP=1., VOLUME=1. $END
  3.09260E+05  3.24029E+02  3.38667E+05  2.50948E+05  8.49028E+04  3.38703E+05 -1.31638E+05  2.51718E+05
 -1.90907E+05  8.31500E+04 -1.12391E+05 -3.26786E+04  6.65546E+02 -5.10326E+04  5.39125E+04 -5.15083E+02
  3.49037E+04  5.33418E+04 -1.64357E+04  7.64086E+04 -6.10840E+04  6.39092E+04 -8.56381E+04  3.12876E+04
 -8.15354E+04 -1.16125E+04 -5.83477E+04 -5.24028E+04 -1.54982E+04 -7.08706E+04  2.77543E+04 -4.72246E+04
  4.06361E+04  3.27989E+03  1.66742E+04  4.84219E+04 -3.46434E+04  4.82392E+04 -6.79384E+04 -2.82614E+02
 -5.48316E+04 -5.76349E+04 -6.74443E+03 -7.88326E+04  3.53832E+04 -5.68676E+04  4.96152E+04 -1.74691E+04
  4.53500E+04  1.11080E+04  3.30705E+04  2.62662E+04  1.61372E+04  2.99526E+04 -5.96619E+03  2.79906E+04
 -2.29144E+04  1.20518E+04 -1.87080E+04 -5.42069E+03  7.26098E+03 -7.57849E+03  2.37420E+04  1.40268E+04
  7.20170E+03  3.74438E+04 -3.28935E+04  3.70180E+04 -6.53561E+04  2.49768E+03 -5.75336E+04 -4.45171E+04
 -1.26952E+04 -6.58676E+04  4.13123E+04 -4.68572E+04  6.14941E+04 -1.69251E+03  3.59290E+04  3.45462E+04
 -5.99111E+03  3.89981E+04 -3.13929E+04  1.76661E+04 -3.31182E+04 -3.62445E+03 -1.86746E+04 -1.06195E+04
 -9.84240E+03 -1.51391E+04 -6.90420E+02 -1.95322E+04  8.24158E+03 -2.37688E+04  1.56829E+04 -1.30267E+04
  1.04921E+04  5.75682E+03 -1.00894E+04  1.29701E+04 -2.29201E+04 -5.56804E+03 -7.99689E+03 -3.67459E+04
  2.50518E+04 -4.62207E+04  5.12793E+04 -2.08665E+04  4.77097E+04  2.05837E+04  1.69405E+04  4.69878E+04
 -1.59633E+04  3.57915E+04 -2.70051E+04  2.66681E+03 -1.11113E+04 -2.93174E+04  2.11143E+04 -3.65037E+04
  4.38780E+04 -1.12213E+04  3.92622E+04  2.49137E+04  2.13000E+04  5.04403E+04 -7.90020E+03  5.46985E+04
 -3.50420E+04  3.73169E+04 -4.64401E+04  1.12107E+04 -4.67086E+04 -1.86123E+04 -2.53959E+04 -4.13592E+04
  7.91133E+03 -4.10783E+04  3.36019E+04 -1.64247E+04  3.08712E+04  1.07149E+04  5.35341E+03  2.03889E+04
 -1.33985E+04  9.59794E+03 -1.08969E+04 -7.98302E+03  5.40281E+03 -1.11040E+04  1.87155E+04  5.12171E+03
  1.46534E+04  2.26256E+04 -5.13311E+03  2.66764E+04 -2.28623E+04  1.28124E+04 -3.04678E+04 -3.07098E+03
 -2.44388E+04 -1.90256E+04 -1.12716E+04 -2.48141E+04  4.41929E+03 -2.44099E+04  1.87607E+04 -2.21808E+04
  3.13389E+04 -1.40933E+04  3.65965E+04  5.06969E+03  2.64898E+04  2.36792E+04  4.30680E+03  4.08838E+04
 -1.91642E+04  3.36323E+04 -2.99489E+04  1.14903E+04 -2.21920E+04 -1.05113E+04 -4.17817E+03 -1.34596E+04
  1.57560E+03 -4.97070E+02 -7.09694E+03  9.21361E+03 -2.00846E+04  4.94867E+03 -1.97816E+04 -9.42051E+03
 -1.18575E+04 -2.24728E+04  5.87730E+03 -2.73313E+04  1.79838E+04 -1.90185E+04  2.15922E+04 -1.56891E+03
  1.40033E+04  1.57394E+04 -1.61824E+03  2.28772E+04 -1.56117E+04  1.33666E+04 -2.27908E+04 -3.84462E+03
 -1.64744E+04 -2.09527E+04 -2.31492E+03 -2.78335E+04  1.25649E+04 -2.33005E+04  2.22555E+04 -1.07399E+04
  2.16692E+04 -3.85969E+02  1.53586E+04  5.34984E+03  8.32071E+03  1.45393E+03  1.17380E+04 -1.61127E+03
  2.12145E+04  3.67604E+03  2.48632E+04  1.79363E+04  1.66998E+04  3.65679E+04 -3.24456E+03  4.23680E+04
 -2.45162E+04  3.50587E+04 -4.04805E+04  1.87713E+04 -4.29510E+04 -2.98878E+03 -3.53193E+04 -2.48421E+04
 -1.43969E+04 -3.44723E+04  1.28249E+04 -3.19656E+04  2.58613E+04 -1.52061E+04  2.45054E+04  7.35008E+03
  7.78348E+03  1.82452E+04 -1.08367E+04  1.50232E+04 -1.88221E+04  2.44584E+03 -1.53088E+04 -1.21433E+04
  6.34275E+01 -1.85612E+04  9.62786E+03 -1.34493E+04  1.23781E+04 -1.70092E+03  3.09090E+03  8.43623E+03
 -8.55199E+03  3.41867E+03 -8.82062E+03 -7.42013E+03 -1.92444E+03 -1.74782E+04  1.15791E+04 -1.94139E+04
  2.13279E+04 -1.03540E+04  2.37442E+04  3.58046E+03  2.10740E+04  1.81859E+04  1.09021E+04  2.80424E+04
 -4.90783E+03  2.96756E+04 -1.87940E+04  1.81875E+04 -2.04435E+04  3.96794E+03 -1.38713E+04 -5.41073E+03
 -6.80325E+03 -6.65792E+03 -8.85285E+02  6.96459E+02 -3.03786E+03  3.27348E+03 -6.67995E+03  5.49580E+03
 -1.43821E+04 -1.74257E+03 -1.43575E+04 -1.11637E+04 -5.42268E+03 -1.76999E+04  5.88686E+03 -1.46915E+04
  1.21968E+04 -5.49290E+03  8.58897E+03  4.09270E+03 -2.55313E+02  6.60423E+03 -6.94294E+03  4.07180E+02
 -7.36093E+03 -1.03088E+04 -6.44227E+02 -1.50179E+04  8.09499E+03 -1.55634E+04  1.91382E+04 -8.37069E+03
  2.17659E+04  3.19178E+03  1.66175E+04  1.34445E+04  2.19438E+03  1.85261E+04 -8.61540E+03  1.56032E+04
 -1.22209E+04  3.69155E+03 -6.40190E+03 -3.12062E+03  2.20162E+03 -4.39833E+03  7.50824E+03 -8.36953E+01
  7.36100E+03  6.94576E+03  2.01074E+03  1.26353E+04 -8.39241E+03  1.22604E+04 -1.43211E+04  2.62856E+03
 -1.04722E+04 -7.56144E+03 -1.12067E+02 -1.29229E+04  8.98914E+03 -6.43484E+03  9.35517E+03  3.28516E+03
  2.40846E+03  9.12780E+03 -8.07768E+03  1.17748E+04 -1.24111E+04  4.11015E+03 -1.26847E+04 -4.13076E+03
 -7.41160E+03 -1.44599E+04  3.40718E+03 -1.70074E+04  1.43265E+04 -1.07425E+04  1.63593E+04  2.91335E+03
  8.81348E+03  1.26986E+04 -1.52646E+03  1.48599E+04 -1.15528E+04  8.27333E+03 -1.24656E+04 -1.42038E+03
 -1.08892E+04 -1.03033E+04 -1.46371E+03 -1.09930E+04  6.54949E+03 -9.12468E+03  7.85932E+03 -3.62543E+03
  4.70477E+03  2.22041E+03 -7.78999E+02  1.77368E+03 -1.07098E+03 -2.98267E+03  2.66599E+03 -7.24554E+03
  1.01921E+04 -4.15087E+03  1.60284E+04  1.55030E+03  1.49168E+04  1.03166E+04  1.00590E+04  1.94823E+04
 -5.07020E+03  2.33283E+04 -1.79279E+04  1.71591E+04 -2.46264E+04  3.49280E+03 -1.95522E+04 -8.60733E+03
 -9.67233E+03 -1.52185E+04  5.05789E+02 -1.33908E+04  4.66450E+03 -7.18893E+03  3.72491E+03 -5.15810E+03
  3.80365E+03 -3.41229E+03  4.13772E+03 -4.26831E+03  5.25991E+03 -3.07511E+03  7.85547E+03 -1.82752E+03
  9.86560E+03  2.13083E+03  5.57442E+03  8.57610E+03 -2.56831E+03  1.08895E+04 -1.07375E+04  8.71965E+03
 -1.40237E+04 -1.63204E+03 -8.95927E+03 -9.84586E+03 -1.30531E+03 -1.53390E+04  8.49638E+03 -1.53457E+04
  1.55123E+04 -8.41279E+03  1.81642E+04  2.99471E+03  1.19773E+04  1.27071E+04  1.90955E+03  1.73692E+04
 -6.70413E+03  1.34357E+04 -1.02969E+04  4.40729E+03 -7.33222E+03 -1.86600E+03 -2.66571E+03 -1.35451E+03
 -1.74638E+03 -2.16652E+02 -2.65713E+03  2.77153E+03 -5.55610E+03  2.16287E+03 -9.55719E+03 -5.61968E+02
 -6.73245E+03 -9.61770E+03 -6.06764E+02 -1.36868E+04  9.04245E+03 -1.26236E+04  1.33173E+04 -3.60861E+03
  1.35193E+04  6.26167E+03  6.32204E+03  1.35724E+04 -2.86407E+03  1.32119E+04 -9.41453E+03  8.40152E+03
 -1.31087E+04  9.41773E+02 -9.80975E+03 -8.91155E+03 -1.36086E+03 -1.20848E+04  6.24971E+03 -8.49181E+03
  8.60541E+03 -2.57550E+03  5.31388E+03  2.73406E+03  1.65623E+03  3.61024E+03  1.93635E+03  1.74712E+03
  2.54273E+03  9.00269E+02  3.03786E+03  1.27172E+03  3.84378E+03  4.91895E+03  3.14446E+03  7.50457E+03
 -3.38060E+03  1.03402E+04 -1.06247E+04  1.12344E+04 -1.48942E+04  3.19368E+03 -1.41925E+04 -6.11293E+03
 -6.78409E+03 -1.50438E+04  2.13170E+03 -1.58328E+04  9.61607E+03 -1.00474E+04  1.24968E+04 -2.79620E+03
  9.08101E+03  5.99574E+03  1.42266E+03  8.52489E+03 -4.19119E+03  4.19333E+03 -5.49863E+03 -9.57528E+02
 -2.60822E+03 -5.99238E+03  3.90242E+03 -5.97776E+03  6.13551E+03 -3.16934E+03  5.92336E+03  1.57285E+03
  3.25346E+03  2.75153E+03  1.89704E+03  2.90631E+03 -2.46489E+02  1.54006E+03  1.22707E+03 -7.41756E+02
  2.10011E+03 -1.53960E+03  5.38427E+03  2.83522E+03  4.20784E+03  7.79489E+03 -1.06719E+03  9.82549E+03
 -6.60735E+03  6.71790E+03 -9.14773E+03  1.89646E+03 -8.03191E+03 -3.16912E+03 -2.39078E+03 -5.76086E+03
  1.27899E+03 -5.58254E+03  3.06839E+03 -2.63264E+03  3.79466E+03  3.31792E+03 -1.29423E+03  4.39622E+03
 -6.40735E+03  2.00181E+03 -6.80935E+03 -3.03655E+03 -3.41605E+03 -7.97409E+03  1.05419E+03 -7.88454E+03
  4.95837E+03 -4.86635E+03  5.60817E+03 -9.47421E+02  5.09581E+03  1.90389E+03  1.16979E+02  3.95782E+03
 -3.40242E+03  1.40615E+03 -3.37098E+03 -3.07204E+03  1.38504E+03 -5.71150E+03  7.34988E+03 -4.87674E+03
  9.64051E+03  7.73692E+02  8.82298E+03  6.94456E+03  2.63126E+03  9.42059E+03 -3.66044E+03  8.57424E+03
 -7.50170E+03  4.19683E+03 -7.31867E+03 -1.39248E+03 -4.96468E+03 -6.50526E+03  9.50674E+02 -5.15409E+03
  6.36840E+03 -2.90898E+03  4.75477E+03  2.23052E+03  1.56546E+03  5.32606E+03 -5.66391E+02  3.70909E+03
 -3.05434E+03  3.66337E+03 -2.21790E+03  5.57295E+02 -1.54912E+03  5.78328E+02 -1.40023E+03  1.91620E+03
 -2.14819E+03  3.99397E+03 -5.62727E+03  2.72904E+03 -9.72102E+03  6.02644E+02 -1.05818E+04 -6.69084E+03
 -5.65638E+03 -1.22301E+04  1.97081E+03 -1.45143E+04  8.24258E+03 -1.08438E+04  1.39955E+04 -4.02443E+03
  1.27919E+04  2.90609E+03  6.82090E+03  8.61043E+03  1.09491E+03  9.73596E+03 -3.91160E+03  7.44356E+03
 -5.63154E+03  2.33128E+03 -2.67057E+03 -1.18373E+03 -1.67338E+03 -1.19105E+03 -6.45542E+02  6.93214E+02
 -1.53959E+03  9.92476E+02 -1.93535E+03 -1.24466E+03 -7.52656E+02 -2.26093E+03  4.28052E+02 -3.68703E+03
  3.76748E+03 -3.73916E+03  6.15033E+03 -4.32649E+02  6.38452E+03  6.15375E+03  1.42953E+03  9.46777E+03
 -4.20126E+03  1.07288E+04 -1.06061E+04  6.63608E+03 -1.13194E+04 -8.66221E+02 -8.74142E+03 -6.97128E+03
 -3.23041E+03 -1.07696E+04  1.88951E+03 -8.74381E+03  6.02548E+03 -5.16547E+03  6.22611E+03  7.53313E+02
  3.78032E+03  2.97613E+03 -5.42964E+02  2.52895E+03 -2.25920E+03 -1.86871E+02 -2.02649E+02 -1.86013E+03
  3.62647E+03 -1.39632E+03  3.53349E+03  1.41037E+03  2.68931E+03  4.49342E+03  2.36572E+02  5.37588E+03
 -3.77910E+03  4.38049E+03 -6.27090E+03  2.13248E+02 -5.78369E+03 -4.60317E+03 -5.57307E+02 -8.67256E+03
  3.97835E+03 -6.90693E+03  7.22893E+03 -2.09280E+03  8.67474E+03  2.14590E+03  4.24292E+03  5.78148E+03
  5.69580E+02  7.02038E+03 -2.53066E+03  5.24278E+03 -3.99819E+03  2.96589E+03 -3.48421E+03  8.65641E+02
 -1.83928E+03 -1.10646E+02 -1.87205E+03  1.31762E+03 -3.02735E+03  9.96318E+02 -5.24111E+03 -1.84306E+03
 -5.00144E+03 -3.18693E+03 -9.50743E+02 -6.18270E+03  3.25574E+03 -7.21385E+03  5.96160E+03 -3.45568E+03
  6.63838E+03  7.09201E+02  3.36983E+03  4.59101E+03 -1.45719E+03  6.54645E+03 -5.02051E+03  4.79521E+03
