 $NMID ID='MM_0lb_SNR400_18hz_g40_20.RAW', FMTDAT='(8E13.5)'
 TRAMP=1., VOLUME=1. $END
  3.09911E+05  9.38965E+02  3.36801E+05  2.50569E+05  8.44394E+04  3.37144E+05 -1.32641E+05  2.49897E+05
 -1.89733E+05  8.26784E+04 -1.11207E+05 -3.29501E+04  1.63544E+03 -5.01943E+04  5.42800E+04  6.64231E+02
  3.48177E+04  5.30473E+04 -1.63807E+04  7.52866E+04 -6.02685E+04  6.29752E+04 -8.25872E+04  3.17455E+04
 -7.92478E+04 -1.16029E+04 -5.55464E+04 -5.00184E+04 -1.52520E+04 -6.78824E+04  2.64090E+04 -4.49204E+04
  3.88708E+04  3.99880E+03  1.53154E+04  4.68870E+04 -3.43446E+04  4.56504E+04 -6.47099E+04 -2.34993E+02
 -5.11375E+04 -5.59382E+04 -6.29459E+03 -7.44897E+04  3.28556E+04 -5.34662E+04  4.56426E+04 -1.68040E+04
  4.11083E+04  1.12316E+04  3.07571E+04  2.44111E+04  1.59528E+04  2.77330E+04 -4.65706E+03  2.69187E+04
 -2.15690E+04  1.27482E+04 -1.91556E+04 -3.63325E+03  4.26183E+03 -7.90443E+03  2.13711E+04  1.08183E+04
  7.69018E+03  3.32890E+04 -3.04959E+04  3.33815E+04 -6.06896E+04  2.13932E+03 -5.53208E+04 -4.14784E+04
 -1.26284E+04 -5.99425E+04  3.75880E+04 -4.33568E+04  5.54485E+04 -1.47452E+03  3.19030E+04  3.07481E+04
 -6.58556E+03  3.31200E+04 -2.78101E+04  1.31167E+04 -2.73866E+04 -5.75118E+03 -1.39820E+04 -1.04282E+04
 -7.54958E+03 -1.14306E+04 -1.26851E+03 -1.64273E+04  7.09279E+03 -2.21733E+04  1.49923E+04 -1.39405E+04
  1.22967E+04  3.55258E+03 -6.55020E+03  1.32218E+04 -1.92555E+04 -2.14304E+03 -8.47921E+03 -3.02777E+04
  2.03316E+04 -3.99878E+04  4.45795E+04 -1.81513E+04  4.14719E+04  1.89144E+04  1.46232E+04  4.10248E+04
 -1.51803E+04  3.09936E+04 -2.29450E+04  7.65519E+02 -7.93073E+03 -2.63685E+04  2.01558E+04 -3.08564E+04
  3.73938E+04 -6.68785E+03  3.05008E+04  2.28147E+04  1.48079E+04  4.28311E+04 -7.67709E+03  4.45636E+04
 -2.75972E+04  2.96037E+04 -3.68173E+04  7.92828E+03 -3.79510E+04 -1.46261E+04 -2.09037E+04 -3.39942E+04
  6.85881E+03 -3.40385E+04  2.92110E+04 -1.21985E+04  2.62854E+04  1.05322E+04  2.36025E+03  1.70939E+04
 -1.31102E+04  7.15832E+03 -9.69819E+03 -8.21440E+03  6.09699E+03 -9.71353E+03  1.71589E+04  6.37352E+03
  1.23026E+04  2.13734E+04 -6.35676E+03  2.34429E+04 -2.15206E+04  8.59929E+03 -2.48403E+04 -6.13901E+03
 -1.63223E+04 -1.63431E+04 -5.70834E+03 -1.65468E+04  3.93094E+03 -1.40044E+04  1.19577E+04 -1.37647E+04
  2.09459E+04 -1.14318E+04  2.77617E+04  1.16382E+03  2.13559E+04  1.55154E+04  3.76767E+03  3.20824E+04
 -1.61379E+04  2.68938E+04 -2.53166E+04  9.50812E+03 -1.95929E+04 -1.03803E+04 -4.23969E+03 -1.41676E+04
  2.45354E+03 -4.08835E+03 -3.26981E+03  5.41063E+03 -1.27857E+04  5.41098E+03 -1.35070E+04 -4.85954E+03
 -8.71814E+03 -1.55415E+04  4.25720E+03 -1.90231E+04  1.22409E+04 -1.42063E+04  1.46420E+04 -9.33234E+02
  9.06688E+03  1.05081E+04 -7.52302E+02  1.57289E+04 -1.02104E+04  8.97824E+03 -1.52189E+04 -3.52717E+03
 -1.14508E+04 -1.34407E+04 -9.81194E+02 -1.89509E+04  8.53159E+03 -1.52779E+04  1.64278E+04 -7.52999E+03
  1.44584E+04  8.11780E+02  1.02836E+04  3.86419E+03  4.79902E+03  2.56345E+02  7.01383E+03 -1.06505E+03
  1.37585E+04  2.39536E+03  1.52434E+04  1.28544E+04  9.48120E+03  2.44787E+04 -3.30986E+03  2.64789E+04
 -1.55602E+04  1.94032E+04 -2.44794E+04  9.55053E+03 -2.45796E+04 -1.78324E+03 -2.11862E+04 -1.38603E+04
 -9.54126E+03 -1.95562E+04  6.15758E+03 -1.89683E+04  1.63090E+04 -1.09541E+04  1.55718E+04  3.30960E+03
  6.48564E+03  1.07817E+04 -6.99510E+03  1.06856E+04 -1.29939E+04  2.63123E+03 -9.75513E+03 -7.95963E+03
 -3.38297E+02 -1.24600E+04  5.84696E+03 -8.94448E+03  7.79653E+03 -1.53602E+03  1.12384E+03  4.68830E+03
 -5.68617E+03  1.83278E+03 -3.65089E+03 -4.44341E+03  4.53500E+02 -1.01644E+04  7.72608E+03 -1.02683E+04
  1.14383E+04 -3.74932E+03  1.20460E+04  2.18251E+03  9.95453E+03  9.33372E+03  4.63099E+03  1.42746E+04
 -1.68233E+03  1.55160E+04 -9.33821E+03  1.03262E+04 -1.10450E+04  3.13880E+03 -8.67654E+03 -1.79010E+03
 -5.10997E+03 -3.38736E+03 -9.64609E+02  1.57150E+03 -1.99136E+03  1.90612E+03 -3.78846E+03  3.65939E+03
 -7.85247E+03 -1.23941E+02 -8.86048E+03 -7.09582E+03 -3.93733E+03 -1.15213E+04  3.59886E+03 -8.98090E+03
  7.31141E+03 -3.65478E+03  5.32086E+03  1.84920E+03 -5.10467E+01  3.21459E+03 -3.86848E+03  1.94303E+01
 -3.13845E+03 -4.78032E+03 -4.51394E+02 -7.84761E+03  3.40184E+03 -7.51087E+03  9.36788E+03 -4.22065E+03
  1.18957E+04  6.32236E+02  8.59050E+03  6.63329E+03  1.41917E+03  8.46781E+03 -5.32827E+03  8.81378E+03
 -7.08111E+03  2.65383E+03 -3.80665E+03 -1.11558E+03  1.14453E+03 -2.06981E+03  4.59947E+03 -1.09887E+03
  3.93602E+03  2.77678E+03  8.19557E+02  7.26933E+03 -4.33847E+03  6.62678E+03 -7.75253E+03  1.99422E+03
 -5.05848E+03 -3.79803E+03  9.74007E+01 -6.78464E+03  3.00681E+03 -3.74479E+03  3.72477E+03  6.43360E+02
  2.40376E+02  3.55814E+03 -4.03491E+03  4.79432E+03 -5.09555E+03  2.96066E+03 -4.43056E+03 -1.45317E+03
 -2.49253E+03 -6.58974E+03  1.52118E+03 -6.94816E+03  5.72762E+03 -4.33321E+03  6.41928E+03  6.11524E+02
  4.70842E+03  5.75184E+03 -8.60158E+01  7.30896E+03 -5.28209E+03  4.19604E+03 -4.85166E+03 -6.64327E+02
 -5.69507E+03 -5.20151E+03 -1.92599E+03 -5.26495E+03  3.17265E+03 -4.61336E+03  3.00026E+03 -3.05993E+03
  2.78318E+03  6.81716E+02  7.37917E+02  1.01220E+03  7.33908E+02 -4.27137E+02  2.56948E+02 -2.20397E+03
  3.85765E+03 -5.71749E+02  5.39293E+03  4.10847E+02  5.97434E+03  3.31773E+03  5.17702E+03  7.68725E+03
 -1.11001E+03  8.63177E+03 -7.85480E+03  6.62800E+03 -9.68878E+03  9.76270E+02 -8.08679E+03 -2.84257E+03
 -4.42963E+03 -6.73038E+03 -4.95217E+02 -5.28325E+03  2.47432E+03 -2.63106E+03  1.87450E+03 -2.08383E+03
  1.35920E+03 -1.66679E+03  1.74457E+03 -2.18825E+03  3.74618E+03 -1.05827E+03  3.70540E+03  2.74261E+02
  4.32033E+03  2.30365E+03  1.15237E+03  3.55892E+03 -1.77073E+03  2.44437E+03 -4.44027E+03  2.71803E+03
 -4.88737E+03 -9.04664E+02 -2.27868E+03 -3.79508E+03  5.89474E+02 -4.87621E+03  3.16374E+03 -5.51523E+03
  5.27000E+03 -3.45133E+03  6.45651E+03 -1.17873E+02  5.43642E+03  3.72600E+03  1.31895E+03  5.42544E+03
 -1.69468E+03  5.38525E+03 -3.48628E+03  2.39963E+03 -1.76469E+03 -1.22235E+03 -4.87155E+02 -5.09372E+02
 -5.92773E+02  8.48508E+02 -1.16921E+03  2.07383E+03 -2.43219E+03  6.66792E+02 -3.99091E+03 -1.44708E+02
 -1.31190E+03 -4.41819E+03  9.81983E+02 -4.61137E+03  2.73810E+03 -4.48432E+03  3.72340E+03 -1.30556E+03
  4.58519E+03  2.06003E+03  1.63175E+03  2.98538E+03 -5.09367E+02  4.42689E+03 -2.91582E+03  2.18806E+03
 -4.26660E+03  7.80399E+02 -3.23674E+03 -2.48350E+03 -3.18415E+02 -3.43898E+03  1.69254E+03 -2.87014E+03
  2.74722E+03 -1.28473E+03  9.77912E+02  1.75391E+02  1.52976E+02  1.39808E+03  1.06418E+03  5.86133E+02
  1.71155E+03  8.69956E+02  1.23906E+03  8.69236E+02  9.66388E+02  2.25572E+03  1.80249E+03  1.35473E+03
 -1.38124E+03  2.81524E+03 -2.82736E+03  4.17935E+03 -3.38849E+03  8.89019E+02 -4.77664E+03 -3.03648E+02
 -2.14103E+03 -4.13903E+03  1.02995E+03 -4.78810E+03  2.31052E+03 -2.18383E+03  3.20089E+03 -1.03963E+03
  2.48158E+03  2.16573E+03  3.06834E+02  2.52164E+03 -8.10264E+02  1.09173E+03 -8.70375E+02 -1.17287E+02
 -2.72076E+02 -1.41490E+03  1.55191E+03 -1.61012E+03  2.00141E+03 -5.79978E+02  1.39478E+03  5.57630E+02
  6.91923E+02  7.05578E+02  7.85645E+02  1.86958E+02 -3.80138E+02  5.65135E+02  1.33345E+03 -1.01336E+02
  8.93797E+01 -3.55336E+02  2.14373E+03  4.75132E+02  1.29057E+01  2.91984E+03 -2.83519E+02  3.01530E+03
 -1.82806E+03  1.12394E+03 -1.88484E+03  5.35310E+02 -2.61131E+03 -4.72652E+02 -6.25724E+02 -1.28992E+03
  8.08824E+01 -1.96391E+03  7.93423E+02 -1.08119E+03  9.47208E+02  8.97092E+02 -4.93966E+02  1.44753E+03
 -1.88142E+03  6.08849E+02 -1.01015E+03 -1.35822E+03 -2.67323E+02 -2.26088E+03  1.35450E+01 -1.74735E+03
  1.09507E+03 -1.01687E+03  6.72812E+02  3.09647E+01  1.39528E+03  6.46036E+02 -1.92439E+02  1.09123E+03
  2.43975E+02 -1.03471E+02 -7.27308E+02 -4.49774E+02  7.49460E+02 -8.41058E+02  1.95466E+03 -1.08778E+03
  8.76733E+02  3.64270E+02  2.77007E+03  7.47846E+02  7.57466E+02  1.64800E+03 -3.04912E+02  2.77725E+03
 -1.90819E+03 -3.56746E+02 -1.58252E+03 -1.33515E+02 -1.18806E+03 -1.13871E+03  7.51749E+02 -8.03154E+02
  1.61131E+03 -5.70601E+02  2.09706E+02  4.50039E+02 -1.71667E+02  1.17631E+03  8.20465E+01  7.58721E+02
 -3.85490E+02  8.42264E+02 -8.91200E+02 -4.92246E+02  3.90706E+01  6.87506E+02 -1.15385E+03  6.44723E+02
  1.08379E+02  1.16056E+03 -1.44759E+03  1.11797E+03 -1.60968E+03 -6.42602E+01 -2.52166E+03 -9.74184E+02
 -1.09538E+03 -2.19699E+03  1.87795E+02 -2.88959E+03  1.52848E+03 -2.31206E+03  2.28797E+03 -1.15279E+03
  2.70525E+03  4.25615E+01  1.59923E+03  1.86116E+03 -1.00536E+03  1.63689E+03 -9.53552E+02  1.31972E+03
 -1.41081E+03  1.08476E+03 -5.67291E+02 -3.36199E+01 -8.52501E+02 -3.00439E+01 -6.94516E+02  7.71969E+01
 -8.94656E+02 -2.41879E+02 -5.68463E+02  7.22320E+01 -2.63638E+01 -2.65293E+02 -4.99106E+02 -8.12394E+02
  1.87098E+03 -5.40832E+02  5.10652E+02  5.46422E+02  1.62218E+03  1.45825E+03  1.13172E+02  1.05086E+03
 -1.07149E+03  2.20553E+03 -2.32862E+03  1.36738E+03 -1.63845E+03  1.55910E+02 -1.18953E+03 -1.62778E+03
 -1.08201E+03 -1.32328E+03  2.57321E+02 -1.06416E+03  9.67899E+02 -8.70118E+02  6.60625E+02  3.14006E+02
  6.46283E+02  1.06084E+02 -1.61128E+02  3.16809E+02 -2.01967E+02  3.10042E+02  4.12909E+02 -2.81931E+02
  6.57375E+02  3.58830E+02  4.00087E+01  3.43576E+02  1.22414E+02  6.00775E+02 -1.98490E+01  6.59869E+02
 -6.28856E+02  9.39415E+02 -4.12756E+02  6.10816E+00 -9.30987E+02 -3.48432E+02 -3.25303E+02 -1.35391E+03
  3.84835E+02 -9.59707E+02  1.88824E+02  1.53068E+02  8.26340E+02 -5.99205E+02  2.41001E+02  8.74054E+02
  3.17089E+02  3.04360E+02  1.88429E+02  8.34234E+02 -1.05385E+03  1.92070E+02 -7.79682E+02  3.77906E+02
 -3.57267E+01 -1.23210E+02 -9.39503E+02  8.03471E+01 -4.89518E+02  3.75727E+02 -9.11469E+02 -4.07851E+02
 -8.12669E+02  1.18626E+02 -4.69907E+02 -6.62953E+02  4.30616E+02 -1.87566E+03  5.21809E+02 -3.48236E+02
  1.12764E+03  1.03094E+02 -1.95671E+02 -2.74310E+02 -3.79160E+01  6.47893E+02 -3.84869E+02  6.08608E+02
