 $NMID ID='MM_0lb_SNR400_13hz_g60_88.RAW', FMTDAT='(8E13.5)'
 TRAMP=1., VOLUME=1. $END
  3.09441E+05  2.26170E+02  3.38538E+05  2.50811E+05  8.51016E+04  3.37758E+05 -1.32641E+05  2.52037E+05
 -1.90340E+05  8.36264E+04 -1.12323E+05 -3.20698E+04  2.76766E+02 -5.01324E+04  5.38180E+04 -7.92051E+02
  3.53401E+04  5.29215E+04 -1.72660E+04  7.55924E+04 -6.10095E+04  6.36119E+04 -8.54407E+04  3.21590E+04
 -8.19925E+04 -1.15956E+04 -5.85475E+04 -5.20412E+04 -1.53397E+04 -7.01767E+04  2.79284E+04 -4.69820E+04
  4.04429E+04  3.60725E+03  1.61892E+04  4.83067E+04 -3.48818E+04  4.77901E+04 -6.73359E+04 -2.21563E+01
 -5.42672E+04 -5.70431E+04 -7.27800E+03 -7.80416E+04  3.39493E+04 -5.57375E+04  4.88421E+04 -1.78927E+04
  4.44967E+04  1.16553E+04  3.20026E+04  2.58359E+04  1.60578E+04  3.07675E+04 -5.65396E+03  2.73137E+04
 -2.23579E+04  1.21557E+04 -1.78471E+04 -5.69488E+03  6.85375E+03 -7.12742E+03  2.31796E+04  1.30508E+04
  7.07256E+03  3.65765E+04 -3.22122E+04  3.69014E+04 -6.46030E+04  1.65222E+03 -5.85564E+04 -4.41555E+04
 -1.27138E+04 -6.39194E+04  4.13051E+04 -4.63773E+04  5.99430E+04 -2.00284E+03  3.54874E+04  3.30618E+04
 -5.33513E+03  3.82984E+04 -3.09616E+04  1.82044E+04 -3.12952E+04 -4.29082E+03 -1.80700E+04 -1.10688E+04
 -9.18608E+03 -1.35799E+04 -1.25865E+03 -1.87083E+04  8.20726E+03 -2.31056E+04  1.55245E+04 -1.29497E+04
  1.14477E+04  5.64380E+03 -9.60575E+03  1.30528E+04 -2.20213E+04 -5.42253E+03 -8.80147E+03 -3.50280E+04
  2.34548E+04 -4.57287E+04  5.01555E+04 -2.05848E+04  4.66318E+04  2.03953E+04  1.61069E+04  4.56175E+04
 -1.60978E+04  3.48138E+04 -2.67733E+04  2.03962E+03 -1.06897E+04 -2.89907E+04  2.13458E+04 -3.59550E+04
  4.33276E+04 -9.44558E+03  3.82043E+04  2.44249E+04  2.01531E+04  4.85019E+04 -7.82239E+03  5.38660E+04
 -3.34062E+04  3.61261E+04 -4.55271E+04  1.01154E+04 -4.50266E+04 -1.78871E+04 -2.50871E+04 -3.97116E+04
  7.60087E+03 -3.93628E+04  3.27378E+04 -1.56088E+04  3.08382E+04  1.07121E+04  4.97516E+03  2.00209E+04
 -1.33870E+04  8.66430E+03 -1.04929E+04 -7.53290E+03  5.89793E+03 -1.07171E+04  1.81455E+04  6.33878E+03
  1.41113E+04  2.23986E+04 -5.69253E+03  2.57584E+04 -2.26897E+04  1.29710E+04 -2.98455E+04 -3.75478E+03
 -2.33627E+04 -1.74515E+04 -9.96885E+03 -2.30336E+04  3.97283E+03 -2.19859E+04  1.78433E+04 -2.03783E+04
  2.87980E+04 -1.31925E+04  3.53056E+04  3.57495E+03  2.43389E+04  2.24894E+04  4.76023E+03  3.94336E+04
 -1.90302E+04  3.18106E+04 -2.89283E+04  1.15902E+04 -2.19533E+04 -1.01722E+04 -4.61374E+03 -1.31485E+04
  1.34502E+03 -1.89877E+03 -5.86147E+03  7.16685E+03 -1.85829E+04  5.99354E+03 -1.74887E+04 -8.06182E+03
 -1.02886E+04 -2.08467E+04  5.95978E+03 -2.43280E+04  1.71757E+04 -1.75969E+04  2.03974E+04 -1.42026E+03
  1.32236E+04  1.48646E+04 -1.72006E+03  2.06281E+04 -1.47207E+04  1.16491E+04 -2.12668E+04 -3.46177E+03
 -1.54872E+04 -1.91689E+04 -1.70567E+03 -2.48830E+04  1.11201E+04 -2.07022E+04  2.12479E+04 -1.12230E+04
  1.98032E+04 -4.59151E+01  1.36486E+04  4.30753E+03  7.87838E+03  4.53610E+02  1.13147E+04 -1.96940E+03
  1.96261E+04  2.74472E+03  2.18981E+04  1.74505E+04  1.51778E+04  3.34382E+04 -2.97476E+03  3.83489E+04
 -2.27170E+04  3.12996E+04 -3.60242E+04  1.60568E+04 -3.80752E+04 -3.13140E+03 -3.14545E+04 -2.26653E+04
 -1.25790E+04 -3.11791E+04  1.16030E+04 -2.78378E+04  2.40024E+04 -1.40034E+04  2.10831E+04  6.02781E+03
  7.85809E+03  1.62722E+04 -1.00098E+04  1.36515E+04 -1.76591E+04  2.12173E+03 -1.35488E+04 -1.06285E+04
  1.36249E+02 -1.76115E+04  9.07571E+03 -1.33873E+04  1.14665E+04 -1.24509E+03  2.92904E+03  7.44731E+03
 -7.05688E+03  2.68912E+03 -7.37610E+03 -5.55613E+03 -7.80211E+02 -1.47636E+04  1.02114E+04 -1.59157E+04
  1.98245E+04 -8.62138E+03  2.05578E+04  2.88316E+03  1.84985E+04  1.47659E+04  8.57610E+03  2.35415E+04
 -4.79426E+03  2.52998E+04 -1.73463E+04  1.60990E+04 -1.90393E+04  3.30072E+03 -1.30795E+04 -4.14975E+03
 -5.81689E+03 -5.90716E+03 -4.78682E+02  6.22409E+02 -2.32939E+03  3.40498E+03 -5.71810E+03  4.04390E+03
 -1.14889E+04 -7.87558E+02 -1.22189E+04 -1.04524E+04 -5.37128E+03 -1.67894E+04  4.90004E+03 -1.30741E+04
  1.09226E+04 -5.00291E+03  7.16269E+03  3.69201E+03 -4.15194E+02  4.96802E+03 -6.44077E+03 -8.68338E+02
 -5.27406E+03 -8.23480E+03 -3.57449E+02 -1.24212E+04  7.17643E+03 -1.30369E+04  1.65165E+04 -7.04450E+03
  1.91535E+04  2.23915E+03  1.44079E+04  1.07468E+04  3.28688E+03  1.53481E+04 -7.94773E+03  1.25865E+04
 -1.07665E+04  2.97769E+03 -5.07852E+03 -2.69056E+03  1.79153E+03 -3.58830E+03  7.22925E+03 -2.12366E+02
  6.14807E+03  5.90305E+03  1.06634E+03  9.56751E+03 -7.18881E+03  1.00767E+04 -1.26784E+04  2.69621E+03
 -8.70579E+03 -6.53992E+03 -1.59610E+02 -1.14070E+04  7.40731E+03 -5.79513E+03  6.71857E+03  2.54802E+03
  1.79482E+03  7.87848E+03 -6.23700E+03  9.04037E+03 -9.41996E+03  4.13011E+03 -1.00267E+04 -4.04067E+03
 -5.80613E+03 -1.18424E+04  2.36779E+03 -1.37299E+04  1.15778E+04 -8.24865E+03  1.34064E+04  1.97822E+03
  8.01956E+03  1.03040E+04 -8.44681E+02  1.25249E+04 -8.82733E+03  6.89724E+03 -9.49631E+03 -8.61236E+02
 -8.45647E+03 -8.59999E+03 -2.13654E+03 -8.60939E+03  5.46419E+03 -8.30704E+03  5.36175E+03 -3.21360E+03
  3.66903E+03  2.01445E+03 -5.41332E+02  1.34255E+03  2.81897E+02 -1.82749E+03  2.14807E+03 -4.47986E+03
  8.22493E+03 -2.93737E+03  1.19289E+04  1.51414E+03  1.18905E+04  7.32805E+03  7.85301E+03  1.50330E+04
 -3.75499E+03  1.73392E+04 -1.42972E+04  1.25052E+04 -1.93460E+04  2.27297E+03 -1.50117E+04 -7.16936E+03
 -7.44572E+03 -1.17495E+04 -4.72305E+02 -1.11768E+04  3.66604E+03 -5.61159E+03  3.69132E+03 -4.01720E+03
  2.65613E+03 -2.56004E+03  2.75875E+03 -2.81972E+03  4.16395E+03 -2.35659E+03  6.07596E+03 -8.94817E+02
  8.35327E+03  1.91661E+03  3.81869E+03  6.27015E+03 -1.91673E+03  7.63175E+03 -8.13788E+03  6.72508E+03
 -1.02764E+04 -1.30349E+03 -6.60078E+03 -7.58587E+03 -7.46046E+02 -1.08928E+04  6.44881E+03 -1.14466E+04
  1.13622E+04 -5.68377E+03  1.33904E+04  1.71472E+03  9.39279E+03  9.61476E+03  1.32681E+03  1.27606E+04
 -5.29842E+03  9.90076E+03 -7.73503E+03  3.47149E+03 -5.16591E+03 -1.35288E+03 -1.64231E+03 -9.65054E+02
 -6.32157E+02  7.05692E+02 -1.11497E+03  2.78732E+03 -4.67700E+03  1.82214E+03 -7.19655E+03 -1.13236E+03
 -4.55216E+03 -7.18135E+03 -2.58083E+02 -1.00128E+04  6.15730E+03 -8.96973E+03  9.63223E+03 -2.60238E+03
  9.29106E+03  4.53018E+03  4.48071E+03  8.05219E+03 -1.92826E+03  9.88894E+03 -6.79324E+03  6.50455E+03
 -8.66472E+03  7.40980E+02 -7.13161E+03 -5.93373E+03 -4.67223E+02 -8.03057E+03  4.10321E+03 -5.47504E+03
  6.46990E+03 -2.24511E+03  4.37420E+03  1.24712E+03  1.27592E+03  3.09971E+03  3.92717E+02  1.68812E+03
  1.91938E+03  8.56661E+02  2.45667E+03  1.61310E+03  3.32474E+03  3.88013E+03  2.96900E+03  4.51019E+03
 -1.67167E+03  8.32334E+03 -6.74168E+03  7.33046E+03 -9.38513E+03  1.81741E+03 -1.00421E+04 -3.04160E+03
 -4.30505E+03 -9.21196E+03  1.32727E+03 -1.06894E+04  5.77991E+03 -6.41516E+03  8.19718E+03 -2.05807E+03
  6.59530E+03  3.43654E+03  1.09715E+03  5.47627E+03 -2.25542E+03  3.05209E+03 -3.62175E+03 -4.49260E+02
 -1.35305E+03 -4.41437E+03  2.22462E+03 -3.29974E+03  3.42549E+03 -2.32711E+03  3.52061E+03  1.24797E+03
  2.26655E+03  4.03907E+02  1.20977E+03  1.24559E+03 -5.59292E+02  1.33925E+03  1.06278E+03 -5.07780E+02
  1.13828E+03 -2.94913E+02  4.11255E+03  1.24219E+03  2.30818E+03  4.75982E+03 -1.34900E+03  6.51183E+03
 -4.70446E+03  4.14057E+03 -6.44953E+03  1.21446E+03 -4.98708E+03 -2.46076E+03 -1.62449E+03 -3.29923E+03
  6.27146E+02 -3.91976E+03  2.07777E+03 -1.66347E+03  1.94633E+03  1.79628E+03 -1.54619E+03  2.07576E+03
 -3.82408E+03  1.99174E+03 -4.07014E+03 -1.91436E+03 -2.74833E+03 -5.11187E+03  5.53736E+02 -4.38067E+03
  3.14655E+03 -2.70800E+03  2.85980E+03 -2.53380E+02  2.87544E+03  6.65437E+02  9.06994E+02  2.31286E+03
 -1.28381E+03  4.71010E+02 -2.03128E+03 -1.53209E+03  1.52347E+03 -3.59177E+03  4.13972E+03 -2.24546E+03
  5.00120E+03  5.22384E+02  5.81359E+03  3.28910E+03  1.96311E+03  5.15435E+03 -1.19151E+03  5.67777E+03
 -4.30006E+03  2.41558E+03 -4.13498E+03 -9.16064E+02 -2.64273E+03 -3.09606E+03  9.49030E+02 -3.05654E+03
  3.15020E+03 -1.76016E+03  2.59624E+03  1.25487E+03  1.37474E+03  2.62955E+03  1.33882E+02  3.18879E+03
 -1.73412E+03  2.56301E+03 -1.06217E+03  4.80453E+02 -6.56916E+02  1.31508E+02 -9.27243E+02  1.20165E+03
 -1.17991E+03  2.29624E+03 -3.50180E+03  1.71805E+03 -5.24304E+03  1.35482E+01 -5.91266E+03 -3.17864E+03
 -3.78356E+03 -6.97927E+03  1.19687E+03 -8.16538E+03  4.59150E+03 -6.42610E+03  7.48299E+03 -2.35108E+03
  7.03485E+03  1.27995E+03  4.21697E+03  5.11136E+03  3.55767E+02  5.52871E+03 -2.18737E+03  3.32578E+03
 -2.99933E+03  1.50285E+03 -1.78756E+03 -8.59865E+02 -7.83988E+02  2.59345E+02 -2.90843E+02  2.08243E+02
 -1.19493E+03 -3.97218E+02 -1.49444E+03 -1.04045E+03 -4.63264E+02 -1.97962E+03 -9.05245E+01 -2.17280E+03
  2.98020E+03 -1.92300E+03  2.64957E+03  3.28090E+02  3.74869E+03  2.79399E+03  3.48394E+02  4.87022E+03
 -2.42068E+03  5.99474E+03 -4.81789E+03  4.23898E+03 -6.71092E+03 -7.91374E+02 -4.54791E+03 -3.89706E+03
 -2.62034E+03 -4.84124E+03  1.56021E+03 -5.13370E+03  3.53059E+03 -2.40318E+03  2.90747E+03  5.85696E+02
  2.16361E+03  1.76808E+03 -1.14050E+02  1.09667E+03 -5.21847E+02  1.55776E+02 -1.07027E+02 -9.56296E+02
  1.88304E+03 -7.72858E+02  1.85947E+03  6.29747E+02  1.40051E+03  1.68920E+03  4.70671E+01  2.23518E+03
 -3.04488E+03  2.16825E+03 -2.81059E+03  1.36621E+02 -3.01357E+03 -2.09167E+03 -4.36163E+02 -4.12219E+03
  1.98142E+03 -3.23392E+03  3.72333E+03 -1.53753E+03  3.86398E+03 -1.99265E+02  2.32164E+03  3.34802E+03
  9.37785E+02  3.11564E+03 -1.15400E+03  2.62605E+03 -2.37028E+03  1.06564E+03 -1.51150E+03  5.18010E+02
 -1.18569E+03  5.84849E+02 -9.89897E+02  4.31055E+02 -1.86604E+03  1.01005E+03 -2.09447E+03 -7.92913E+02
 -3.15625E+03 -1.32619E+03 -4.61666E+02 -2.61216E+03  1.07740E+03 -3.64321E+03  2.82180E+03 -1.11012E+03
  3.28111E+03  1.18053E+02  1.72453E+03  1.55820E+03 -8.78403E+02  2.96892E+03 -2.28333E+03  2.17629E+03
