 $NMID ID='MM_0lb_SNR400_13hz_g40_96.RAW', FMTDAT='(8E13.5)'
 TRAMP=1., VOLUME=1. $END
  3.09506E+05  3.14941E+02  3.37832E+05  2.50014E+05  8.46157E+04  3.37602E+05 -1.32161E+05  2.51256E+05
 -1.90095E+05  8.28348E+04 -1.11706E+05 -3.23045E+04  6.13029E+02 -5.06283E+04  5.36215E+04 -3.49656E+02
  3.56617E+04  5.29579E+04 -1.63680E+04  7.49511E+04 -6.02675E+04  6.35946E+04 -8.42193E+04  3.15016E+04
 -8.11433E+04 -1.11921E+04 -5.68332E+04 -5.16574E+04 -1.53659E+04 -6.94818E+04  2.69662E+04 -4.54747E+04
  3.98183E+04  3.72994E+03  1.65287E+04  4.76852E+04 -3.44012E+04  4.78287E+04 -6.71248E+04 -3.48097E+02
 -5.31277E+04 -5.67564E+04 -6.87494E+03 -7.71290E+04  3.38925E+04 -5.45122E+04  4.80278E+04 -1.69296E+04
  4.34098E+04  1.06926E+04  3.21921E+04  2.49511E+04  1.50299E+04  2.95202E+04 -5.06762E+03  2.72532E+04
 -2.25113E+04  1.27681E+04 -1.81825E+04 -4.66255E+03  5.72483E+03 -7.93406E+03  2.22621E+04  1.22746E+04
  7.69917E+03  3.52814E+04 -3.18968E+04  3.53622E+04 -6.29966E+04  2.13872E+03 -5.66627E+04 -4.33171E+04
 -1.28840E+04 -6.31902E+04  3.97007E+04 -4.52888E+04  5.77144E+04 -2.25419E+03  3.36385E+04  3.23960E+04
 -6.36161E+03  3.58261E+04 -2.94445E+04  1.56022E+04 -3.01378E+04 -4.57443E+03 -1.65869E+04 -1.11400E+04
 -8.22530E+03 -1.31986E+04 -9.87579E+02 -1.75559E+04  7.09130E+03 -2.27332E+04  1.55248E+04 -1.34086E+04
  1.16404E+04  5.05530E+03 -8.55443E+03  1.28767E+04 -2.10727E+04 -4.25572E+03 -7.70801E+03 -3.33122E+04
  2.23829E+04 -4.37606E+04  4.83534E+04 -1.98515E+04  4.47162E+04  1.90839E+04  1.57780E+04  4.40996E+04
 -1.62858E+04  3.38842E+04 -2.56933E+04  1.67153E+03 -1.00775E+04 -2.68818E+04  2.11578E+04 -3.44964E+04
  4.10357E+04 -9.13003E+03  3.56325E+04  2.38680E+04  1.84567E+04  4.66476E+04 -8.20296E+03  4.98988E+04
 -3.14850E+04  3.42528E+04 -4.20946E+04  9.58718E+03 -4.24822E+04 -1.70091E+04 -2.31000E+04 -3.77104E+04
  7.35193E+03 -3.78295E+04  3.14492E+04 -1.41568E+04  2.88639E+04  1.05839E+04  4.08947E+03  1.93377E+04
 -1.33367E+04  8.58754E+03 -1.03838E+04 -7.61520E+03  5.61450E+03 -1.09226E+04  1.78975E+04  6.27163E+03
  1.35433E+04  2.20922E+04 -5.58804E+03  2.50856E+04 -2.19398E+04  1.20234E+04 -2.77196E+04 -5.14819E+03
 -2.10819E+04 -1.73860E+04 -8.71481E+03 -1.99981E+04  4.21296E+03 -1.97696E+04  1.57308E+04 -1.82965E+04
  2.61379E+04 -1.29385E+04  3.25244E+04  2.88874E+03  2.42585E+04  2.05366E+04  4.42174E+03  3.62863E+04
 -1.75664E+04  3.00719E+04 -2.78112E+04  1.07638E+04 -2.08630E+04 -1.02079E+04 -4.54688E+03 -1.32559E+04
  1.63431E+03 -3.07782E+03 -4.55811E+03  6.81078E+03 -1.65102E+04  4.73506E+03 -1.67471E+04 -7.25113E+03
 -1.01932E+04 -1.96194E+04  5.34266E+03 -2.34372E+04  1.52247E+04 -1.63894E+04  1.81683E+04 -1.73196E+03
  1.16777E+04  1.24402E+04 -9.33588E+02  1.89857E+04 -1.35707E+04  1.07800E+04 -1.88771E+04 -3.75801E+03
 -1.35931E+04 -1.68463E+04 -1.30877E+03 -2.38311E+04  1.01090E+04 -1.95156E+04  1.89435E+04 -9.47175E+03
  1.79424E+04  7.29202E+02  1.25270E+04  4.27195E+03  6.17416E+03  1.01975E+03  9.18643E+03 -1.34436E+03
  1.77650E+04  2.31099E+03  1.91065E+04  1.55449E+04  1.30127E+04  3.08868E+04 -3.19637E+03  3.42871E+04
 -1.99302E+04  2.73906E+04 -3.17803E+04  1.34402E+04 -3.41922E+04 -2.02794E+03 -2.77269E+04 -1.87564E+04
 -1.28634E+04 -2.77587E+04  9.76710E+03 -2.54366E+04  2.16936E+04 -1.38799E+04  1.89260E+04  5.38731E+03
  7.16816E+03  1.45858E+04 -8.36456E+03  1.27480E+04 -1.63000E+04  2.35659E+03 -1.26571E+04 -9.41576E+03
  2.43328E+02 -1.52550E+04  7.96175E+03 -1.20019E+04  1.04308E+04 -1.26851E+03  2.48220E+03  6.59607E+03
 -7.13521E+03  3.14031E+03 -6.09442E+03 -5.34817E+03 -5.95562E+02 -1.35980E+04  1.01472E+04 -1.40578E+04
  1.67632E+04 -7.39413E+03  1.83487E+04  2.78501E+03  1.54978E+04  1.31050E+04  7.21983E+03  2.12358E+04
 -3.01356E+03  2.26094E+04 -1.41273E+04  1.44632E+04 -1.62270E+04  3.10854E+03 -1.11535E+04 -3.53672E+03
 -5.43448E+03 -4.86770E+03 -4.85759E+02  1.31805E+03 -2.27121E+03  2.69938E+03 -5.22317E+03  4.26100E+03
 -1.14630E+04 -5.92782E+02 -1.10365E+04 -8.86471E+03 -4.88522E+03 -1.48400E+04  4.61349E+03 -1.12313E+04
  9.80058E+03 -4.92360E+03  7.55881E+03  2.89162E+03 -4.68828E+02  4.16040E+03 -5.56959E+03  1.31611E+02
 -4.85845E+03 -7.42688E+03 -8.10456E+02 -1.10938E+04  6.40124E+03 -1.15612E+04  1.46153E+04 -6.40643E+03
  1.66340E+04  1.20455E+03  1.20909E+04  9.61658E+03  2.64951E+03  1.28127E+04 -7.24370E+03  1.16361E+04
 -8.71278E+03  3.62596E+03 -4.95224E+03 -2.08902E+03  1.44359E+03 -3.28334E+03  6.30740E+03 -7.06532E+02
  5.72044E+03  5.36688E+03  7.71686E+02  8.74197E+03 -5.57551E+03  8.56918E+03 -1.09618E+04  1.83362E+03
 -7.29714E+03 -5.70193E+03 -1.66389E+02 -9.76141E+03  5.54550E+03 -4.51314E+03  5.53975E+03  2.22874E+03
  1.02240E+03  6.70725E+03 -5.78575E+03  6.95939E+03 -8.36015E+03  3.58223E+03 -8.47644E+03 -3.50570E+03
 -5.25277E+03 -9.72664E+03  2.16667E+03 -1.14824E+04  9.66744E+03 -6.77965E+03  1.05934E+04  1.95515E+03
  7.16236E+03  8.38407E+03  1.86150E+02  1.05620E+04 -7.44237E+03  5.82620E+03 -8.42651E+03 -6.06512E+02
 -7.40408E+03 -7.31668E+03 -1.04702E+03 -7.57448E+03  3.95999E+03 -6.88393E+03  4.76102E+03 -3.10171E+03
  3.39618E+03  1.24755E+03 -2.79846E+02  1.12749E+03  4.30470E+02 -1.88175E+03  1.16244E+03 -4.33115E+03
  7.50339E+03 -2.22286E+03  1.01248E+04  1.21296E+03  9.31032E+03  6.20940E+03  6.96726E+03  1.29752E+04
 -3.16722E+03  1.46161E+04 -1.24066E+04  1.09113E+04 -1.71269E+04  2.07244E+03 -1.29691E+04 -4.19587E+03
 -6.74898E+03 -1.08105E+04 -9.68297E+02 -8.52979E+03  3.38635E+03 -4.51800E+03  3.42161E+03 -3.77715E+03
  2.10158E+03 -2.24290E+03  2.76689E+03 -2.62958E+03  4.49976E+03 -2.07272E+03  5.22381E+03 -4.10834E+02
  7.19839E+03  2.47027E+03  2.87357E+03  5.73333E+03 -1.81489E+03  6.38224E+03 -7.83225E+03  5.46267E+03
 -9.06428E+03 -1.77577E+03 -5.35539E+03 -6.04827E+03 -4.93765E+01 -9.60515E+03  5.20163E+03 -9.99423E+03
  9.80764E+03 -5.96976E+03  1.16204E+04  1.03051E+03  8.03079E+03  7.67940E+03  1.63549E+03  1.09229E+04
 -4.28368E+03  9.03831E+03 -6.00804E+03  3.16124E+03 -4.45178E+03 -7.04330E+02 -1.24087E+03 -1.37390E+03
 -1.49819E+03  5.21316E+02 -1.29586E+03  2.63670E+03 -3.87866E+03  1.11660E+03 -5.92221E+03 -7.22122E+02
 -4.11718E+03 -6.28043E+03  1.79557E+02 -8.85613E+03  5.09174E+03 -8.05050E+03  8.12123E+03 -2.28049E+03
  7.71581E+03  3.95555E+03  3.46677E+03  7.07279E+03 -7.06068E+02  8.33207E+03 -5.21596E+03  5.14734E+03
 -8.33045E+03  5.12091E+02 -6.40245E+03 -4.93880E+03 -9.22888E+02 -7.14025E+03  3.53305E+03 -5.22788E+03
  5.16935E+03 -2.23369E+03  3.45208E+03  1.05848E+03  1.62464E+03  2.87605E+03  1.48388E+03  1.32061E+03
  1.99448E+03  1.14288E+03  2.47837E+03  1.45603E+03  2.50693E+03  3.32273E+03  2.28802E+03  4.47961E+03
 -1.62600E+03  6.10864E+03 -5.67878E+03  6.75244E+03 -8.07000E+03  2.05705E+03 -8.77607E+03 -2.82523E+03
 -3.30262E+03 -8.60072E+03  9.75929E+02 -9.02728E+03  4.52973E+03 -6.05666E+03  6.53417E+03 -2.02749E+03
  5.60929E+03  2.98718E+03  9.19167E+02  5.22850E+03 -1.84499E+03  2.30054E+03 -2.61784E+03 -3.09321E+02
 -1.60931E+03 -3.26802E+03  2.68564E+03 -3.37887E+03  3.54872E+03 -1.49636E+03  3.56245E+03 -5.32439E+01
  1.67066E+03  9.27721E+02  9.62345E+02  9.58182E+02 -1.61792E+02  1.31753E+03  1.37935E+03 -2.10994E+02
  1.03482E+03 -1.32122E+03  3.37359E+03  1.51131E+03  1.67048E+03  4.21924E+03 -1.00895E+03  6.08745E+03
 -4.33087E+03  3.14323E+03 -4.98848E+03  1.56428E+03 -3.91645E+03 -1.46902E+03 -9.17006E+02 -2.63473E+03
  4.73903E+02 -2.71266E+03  2.20350E+03 -1.12656E+03  1.02229E+03  1.98333E+03 -6.89870E+02  3.09270E+03
 -3.04508E+03  1.96073E+03 -4.08867E+03 -2.40374E+03 -2.06527E+03 -4.08286E+03  7.05272E+02 -3.62051E+03
  2.58195E+03 -1.83599E+03  2.98456E+03 -5.10617E+02  2.41824E+03  3.07770E+02  4.60843E+02  2.02127E+03
 -1.22158E+03  1.15508E+03 -2.03973E+03 -1.47267E+03  9.49273E+02 -3.39723E+03  3.60757E+03 -3.33890E+03
  4.30947E+03  1.81692E+02  5.34217E+03  3.12972E+03  1.74257E+03  5.02708E+03 -1.15083E+03  4.40999E+03
 -3.78465E+03  1.87677E+03 -4.74753E+03 -9.14676E+02 -1.90867E+03 -2.76960E+03  5.97754E+02 -2.68813E+03
  2.80438E+03 -1.66429E+03  1.95253E+03  1.14403E+03  7.83148E+02  2.69131E+03 -4.85236E+02  3.31145E+03
 -1.39952E+03  1.69716E+03 -8.27943E+02  3.57146E+02 -8.17603E+01  9.10579E+02 -7.82711E+02  1.12138E+03
 -9.25976E+02  2.09671E+03 -3.93473E+03  1.03985E+03 -4.49695E+03  2.10097E+02 -5.96248E+03 -3.14894E+03
 -3.24283E+03 -6.68633E+03  1.42081E+03 -7.77652E+03  3.81259E+03 -6.15600E+03  6.64215E+03 -2.08425E+03
  6.66517E+03  8.90474E+02  4.13996E+03  4.45595E+03  2.63251E+02  4.83971E+03 -2.25327E+03  3.35420E+03
 -3.31953E+03  1.73457E+03 -2.54234E+03  1.56797E+02 -9.96587E+02 -5.79759E+02 -7.17751E+02  1.55044E+02
 -1.86626E+03 -3.45182E+02 -1.57996E+03 -1.36039E+02 -5.86217E+02 -1.43609E+03  6.76980E+02 -2.03611E+03
  1.87909E+03 -8.99161E+02  3.18720E+03  1.72345E+02  3.37665E+03  2.86356E+03  6.21607E+02  5.36044E+03
 -2.01548E+03  5.75521E+03 -5.09038E+03  3.32301E+03 -5.47993E+03 -6.75221E+02 -3.90782E+03 -4.03207E+03
 -1.49941E+03 -4.25388E+03  1.05989E+03 -4.19483E+03  2.90930E+03 -2.26005E+03  3.31080E+03 -6.10743E+02
  1.98351E+03  1.38188E+03 -5.22226E+01  1.23535E+03 -9.53509E+02  2.83836E+02 -5.00400E+02 -1.05592E+03
  1.79036E+03 -6.45503E+02  1.71667E+03  6.92248E+02  8.71810E+02  1.66899E+03  1.20194E+02  2.67499E+03
 -1.60035E+03  2.16193E+03 -2.35854E+03  5.02422E+02 -3.33575E+03 -1.83437E+03  1.74118E+02 -3.88170E+03
  1.31149E+03 -3.14381E+03  2.66404E+03 -3.44566E+02  3.29383E+03  4.96794E+02  1.94047E+03  3.43999E+03
  4.50076E+02  2.68472E+03 -1.06219E+03  2.37788E+03 -1.85775E+03  2.17769E+03 -1.33824E+03  3.86799E+02
 -6.57103E+02 -3.95451E+02 -1.11088E+03  5.37871E+02 -1.26427E+03  5.50520E+02 -2.63581E+03 -7.44031E+02
 -2.36223E+03 -8.68111E+02 -8.74246E+02 -3.02039E+03  1.51935E+03 -3.95275E+03  2.21710E+03 -1.58584E+03
  2.46273E+03  6.45928E+02  1.01535E+03  1.12505E+03 -1.78879E+02  2.73644E+03 -1.68075E+03  2.32697E+03
