 $NMID ID='MM_0lb_SNR400_10hz_g60_78.RAW', FMTDAT='(8E13.5)'
 TRAMP=1., VOLUME=1. $END
  3.09495E+05  1.02581E+03  3.37895E+05  2.50979E+05  8.49263E+04  3.38885E+05 -1.32906E+05  2.52172E+05
 -1.90166E+05  8.42898E+04 -1.12493E+05 -3.26788E+04  7.59008E+02 -5.10993E+04  5.35941E+04 -5.29099E+02
  3.60773E+04  5.30598E+04 -1.68031E+04  7.61139E+04 -6.11776E+04  6.43950E+04 -8.58001E+04  3.22548E+04
 -8.17871E+04 -1.11792E+04 -5.82689E+04 -5.17551E+04 -1.52907E+04 -7.14203E+04  2.83190E+04 -4.69562E+04
  4.12158E+04  4.64453E+03  1.60837E+04  4.83832E+04 -3.43136E+04  4.87358E+04 -6.72475E+04  1.74286E+02
 -5.50373E+04 -5.72844E+04 -8.29686E+03 -7.97499E+04  3.57179E+04 -5.69661E+04  4.97433E+04 -1.84330E+04
  4.55992E+04  1.20180E+04  3.36887E+04  2.67926E+04  1.60521E+04  3.00897E+04 -6.09835E+03  2.70401E+04
 -2.22056E+04  1.22124E+04 -1.82425E+04 -5.10035E+03  7.41279E+03 -7.53140E+03  2.28674E+04  1.44951E+04
  7.76862E+03  3.79932E+04 -3.38401E+04  3.75024E+04 -6.56021E+04  2.50596E+03 -5.91168E+04 -4.47258E+04
 -1.21294E+04 -6.61652E+04  4.22049E+04 -4.77491E+04  6.12998E+04 -1.89581E+03  3.70678E+04  3.41473E+04
 -5.44484E+03  3.97694E+04 -3.17617E+04  1.89641E+04 -3.37495E+04 -3.93075E+03 -1.93677E+04 -1.25746E+04
 -1.00054E+04 -1.51191E+04 -4.97746E+02 -1.99191E+04  8.88666E+03 -2.32605E+04  1.58657E+04 -1.25410E+04
  1.06576E+04  6.16805E+03 -1.01118E+04  1.30963E+04 -2.33074E+04 -6.19838E+03 -9.65734E+03 -3.78034E+04
  2.58442E+04 -4.66426E+04  5.28220E+04 -2.07543E+04  4.90109E+04  2.07295E+04  1.72232E+04  4.74212E+04
 -1.64561E+04  3.62491E+04 -2.76343E+04  2.06156E+03 -1.18849E+04 -2.96383E+04  2.11109E+04 -3.69842E+04
  4.47997E+04 -1.06612E+04  4.00958E+04  2.52666E+04  2.12803E+04  5.17766E+04 -8.33428E+03  5.64352E+04
 -3.53843E+04  3.85458E+04 -4.74851E+04  1.07845E+04 -4.80607E+04 -1.82957E+04 -2.61251E+04 -4.23352E+04
  8.04955E+03 -4.17207E+04  3.41874E+04 -1.69051E+04  3.24038E+04  1.09930E+04  5.10079E+03  2.11474E+04
 -1.26054E+04  9.54914E+03 -1.18731E+04 -7.36123E+03  5.51990E+03 -1.18712E+04  1.86769E+04  6.00778E+03
  1.45466E+04  2.29555E+04 -5.07245E+03  2.73565E+04 -2.34534E+04  1.42462E+04 -3.15983E+04 -3.10835E+03
 -2.54772E+04 -1.82166E+04 -1.07641E+04 -2.48359E+04  4.58680E+03 -2.67498E+04  1.96174E+04 -2.34592E+04
  3.23285E+04 -1.50323E+04  3.87831E+04  4.61178E+03  2.64908E+04  2.48804E+04  3.96418E+03  4.14075E+04
 -1.93634E+04  3.34783E+04 -3.10419E+04  1.21251E+04 -2.17873E+04 -9.87530E+03 -4.73451E+03 -1.20026E+04
  5.55297E+02 -1.16263E+03 -7.78408E+03  7.36950E+03 -2.00944E+04  5.26144E+03 -1.98015E+04 -9.55052E+03
 -1.08207E+04 -2.37199E+04  6.68728E+03 -2.82083E+04  1.81881E+04 -1.97933E+04  2.26543E+04 -1.74115E+03
  1.47491E+04  1.63106E+04 -1.03872E+03  2.25535E+04 -1.66417E+04  1.38029E+04 -2.34387E+04 -4.79930E+03
 -1.75281E+04 -2.14468E+04 -1.94625E+03 -2.85553E+04  1.19577E+04 -2.41804E+04  2.34469E+04 -1.22615E+04
  2.19133E+04 -1.59774E+02  1.63514E+04  5.14197E+03  8.41481E+03  1.64666E+03  1.17538E+04 -2.46272E+03
  2.24438E+04  2.67803E+03  2.58116E+04  1.86841E+04  1.82647E+04  3.77379E+04 -2.86010E+03  4.34670E+04
 -2.48691E+04  3.69409E+04 -4.10284E+04  1.86546E+04 -4.48626E+04 -2.56398E+03 -3.59017E+04 -2.67502E+04
 -1.47333E+04 -3.69632E+04  1.30939E+04 -3.25095E+04  2.91248E+04 -1.56898E+04  2.44153E+04  7.85026E+03
  8.47894E+03  1.94586E+04 -1.19426E+04  1.57133E+04 -2.00301E+04  3.59906E+03 -1.54967E+04 -1.26872E+04
 -6.87116E+02 -1.96687E+04  1.06346E+04 -1.45502E+04  1.28463E+04 -9.82725E+02  3.29775E+03  7.98985E+03
 -8.80350E+03  2.81166E+03 -9.15679E+03 -7.22246E+03 -1.83176E+03 -1.83772E+04  1.15679E+04 -1.96067E+04
  2.25752E+04 -1.11213E+04  2.59556E+04  3.37904E+03  2.27022E+04  1.88075E+04  1.09558E+04  2.93415E+04
 -4.92043E+03  3.06267E+04 -2.04166E+04  1.88709E+04 -2.25237E+04  3.14348E+03 -1.47875E+04 -5.92808E+03
 -7.07428E+03 -6.80113E+03 -1.50978E+03 -4.31849E+02 -2.69746E+03  3.04720E+03 -7.08062E+03  5.84843E+03
 -1.45514E+04 -1.06060E+03 -1.43610E+04 -1.19026E+04 -5.77209E+03 -1.91065E+04  5.97266E+03 -1.63360E+04
  1.29757E+04 -6.12049E+03  8.56048E+03  4.11597E+03 -2.08808E+02  5.67348E+03 -8.07671E+03 -2.09937E+02
 -7.97337E+03 -1.03934E+04 -1.23669E+03 -1.55784E+04  9.52072E+03 -1.67895E+04  1.93018E+04 -9.04829E+03
  2.30211E+04  2.52345E+03  1.68329E+04  1.44658E+04  3.42574E+03  1.90739E+04 -9.35941E+03  1.50990E+04
 -1.22512E+04  4.46737E+03 -6.69495E+03 -2.92691E+03  2.37304E+03 -3.75893E+03  8.41357E+03 -4.44351E+02
  6.60085E+03  7.18223E+03  7.33906E+02  1.27598E+04 -8.50103E+03  1.21225E+04 -1.48181E+04  2.62394E+03
 -1.03971E+04 -8.08155E+03 -1.02007E+02 -1.29850E+04  9.06317E+03 -7.16048E+03  9.68982E+03  3.76024E+03
  2.97431E+03  9.90550E+03 -7.91229E+03  1.24328E+04 -1.28651E+04  5.21042E+03 -1.33908E+04 -4.70270E+03
 -7.91433E+03 -1.47168E+04  3.43708E+03 -1.78633E+04  1.54906E+04 -1.11408E+04  1.63107E+04  3.31946E+03
  9.53626E+03  1.31505E+04 -1.73294E+03  1.55080E+04 -1.15067E+04  8.42033E+03 -1.20812E+04 -8.16782E+02
 -1.01126E+04 -9.97255E+03 -1.63975E+03 -1.16841E+04  7.24386E+03 -9.41154E+03  7.77615E+03 -4.22467E+03
  4.76712E+03  1.79399E+03 -1.25704E+03  1.73720E+03 -7.65018E+02 -3.49124E+03  2.24895E+03 -7.29580E+03
  1.10604E+04 -4.42671E+03  1.51128E+04  1.63014E+03  1.51640E+04  1.07422E+04  1.03946E+04  2.07628E+04
 -3.97123E+03  2.37973E+04 -1.92989E+04  1.70352E+04 -2.50279E+04  2.98280E+03 -2.05236E+04 -8.88778E+03
 -1.04268E+04 -1.64603E+04 -6.46617E+02 -1.40152E+04  5.09514E+03 -7.68338E+03  4.80828E+03 -5.69091E+03
  3.32376E+03 -3.38427E+03  4.49537E+03 -4.59181E+03  6.29739E+03 -2.98714E+03  7.93565E+03 -1.35398E+03
  1.10721E+04  2.82091E+03  6.04015E+03  9.21222E+03 -2.89202E+03  1.13418E+04 -1.07769E+04  8.36201E+03
 -1.47467E+04 -1.78922E+03 -8.12258E+03 -1.00767E+04 -1.07852E+03 -1.60911E+04  8.03996E+03 -1.57553E+04
  1.63618E+04 -7.95899E+03  1.87942E+04  2.95031E+03  1.29104E+04  1.34414E+04  2.41931E+03  1.76584E+04
 -6.67326E+03  1.46302E+04 -9.73994E+03  5.12033E+03 -7.12236E+03 -1.17488E+03 -3.38053E+03 -1.84235E+03
 -1.08462E+03  3.39371E+02 -2.50462E+03  2.93822E+03 -6.10779E+03  1.87977E+03 -1.02410E+04 -1.96065E+03
 -6.18854E+03 -9.78144E+03  3.66877E+02 -1.49776E+04  8.03767E+03 -1.30110E+04  1.43903E+04 -3.93563E+03
  1.41269E+04  7.30331E+03  6.42087E+03  1.35575E+04 -2.14178E+03  1.37769E+04 -1.04355E+04  8.66262E+03
 -1.37167E+04  4.87773E+02 -1.04713E+04 -8.76157E+03 -1.15277E+03 -1.15202E+04  6.23493E+03 -9.67016E+03
  9.75366E+03 -3.08260E+03  5.98439E+03  2.06792E+03  1.95383E+03  3.59478E+03  1.52962E+03  2.15282E+03
  2.60356E+03  1.44004E+03  3.57495E+03  1.74348E+03  3.99637E+03  4.27791E+03  4.30994E+03  7.37008E+03
 -2.49228E+03  1.07760E+04 -9.59420E+03  1.14036E+04 -1.46793E+04  3.25165E+03 -1.47329E+04 -6.01763E+03
 -7.13486E+03 -1.43548E+04  1.96173E+03 -1.59445E+04  8.52598E+03 -9.85049E+03  1.17167E+04 -2.30187E+03
  9.16238E+03  4.97844E+03  2.12907E+03  7.88763E+03 -4.34876E+03  5.49422E+03 -5.36141E+03 -1.10974E+03
 -2.49816E+03 -6.58102E+03  3.93487E+03 -6.00212E+03  5.33296E+03 -3.31531E+03  5.49969E+03  1.19990E+03
  3.45782E+03  2.52212E+03  1.44171E+03  2.19413E+03 -2.11168E+03  2.50497E+03  1.70870E+03  3.63469E+01
  2.65207E+03 -1.25302E+03  6.23168E+03  1.89635E+03  3.58494E+03  7.27247E+03 -1.34392E+03  1.04076E+04
 -6.50870E+03  6.22186E+03 -8.76713E+03  2.40901E+03 -7.73639E+03 -2.37985E+03 -3.37611E+03 -6.00680E+03
  8.09773E+02 -6.80349E+03  3.68527E+03 -2.43150E+03  2.82796E+03  3.18166E+03 -1.44115E+03  4.93856E+03
 -5.54449E+03  3.06264E+03 -6.27631E+03 -3.89004E+03 -4.01843E+03 -6.96958E+03  9.98793E+02 -7.56861E+03
  5.72630E+03 -4.99514E+03  5.39858E+03 -8.76321E+02  4.41852E+03  2.02131E+03  1.33491E+03  4.34331E+03
 -2.32669E+03  1.07022E+03 -2.99200E+03 -2.85291E+03  9.45672E+02 -6.61881E+03  7.76277E+03 -4.96665E+03
  9.08537E+03 -1.76212E+02  9.38279E+03  5.13650E+03  3.18458E+03  1.04120E+04 -3.41440E+03  8.91757E+03
 -6.91037E+03  3.71367E+03 -8.15841E+03 -1.48927E+03 -4.06417E+03 -6.23974E+03  1.63475E+03 -5.61258E+03
  6.49773E+03 -2.74953E+03  4.37093E+03  2.48815E+03  1.51366E+03  4.68265E+03  6.40083E-01  5.25551E+03
 -1.93709E+03  3.06176E+03 -1.85513E+03  6.74372E+02 -4.92223E+02  6.56536E+02 -8.91715E+02  2.24169E+03
 -2.30237E+03  3.63646E+03 -6.34845E+03  2.66004E+03 -9.89606E+03  5.12806E+01 -9.26641E+03 -6.41740E+03
 -4.89446E+03 -1.21571E+04  1.77232E+03 -1.47061E+04  9.32171E+03 -1.21685E+04  1.35074E+04 -4.74535E+03
  1.26026E+04  2.29438E+03  7.44048E+03  8.48645E+03  6.88559E+02  1.02866E+04 -4.11327E+03  6.95859E+03
 -4.98201E+03  2.48290E+03 -3.48434E+03 -5.85812E+02 -1.20664E+03 -6.60031E+01 -7.85670E+02  2.20775E+01
 -2.43790E+03 -5.30086E+01 -1.89359E+03 -8.91966E+02 -1.16757E+03 -2.49665E+03 -8.55171E+02 -4.19593E+03
  3.77244E+03 -3.41214E+03  5.40575E+03  2.21041E+02  5.67479E+03  4.74015E+03  2.05406E+03  9.62595E+03
 -4.65531E+03  1.09873E+04 -1.05761E+04  6.07687E+03 -1.15301E+04 -2.84873E+01 -8.89744E+03 -6.57947E+03
 -3.53936E+03 -9.48461E+03  2.70251E+03 -9.34443E+03  5.71330E+03 -4.71802E+03  6.49726E+03  6.30372E+02
  3.39278E+03  3.79924E+03 -4.78524E+02  2.96989E+03 -1.81618E+03  5.70773E+02 -4.44045E+02 -2.82494E+03
  2.82744E+03 -1.79456E+03  3.18033E+03  8.95937E+02  2.10743E+03  3.13210E+03  2.34904E+02  5.05258E+03
 -3.78064E+03  5.50357E+03 -6.46032E+03  6.96731E+02 -5.77926E+03 -4.69260E+03 -1.03549E+03 -7.96677E+03
  3.84232E+03 -6.80346E+03  6.89815E+03 -1.90453E+03  7.17897E+03  1.54750E+03  4.17309E+03  6.21260E+03
  1.57581E+03  6.36492E+03 -2.44799E+03  4.78796E+03 -3.83214E+03  3.22433E+03 -3.24068E+03  6.13615E+02
 -1.51632E+03 -5.77799E+02 -2.02380E+03  4.94744E+01 -3.33482E+03  1.23614E+03 -4.86034E+03 -1.07382E+03
 -4.16156E+03 -3.78418E+03 -2.19723E+02 -6.14999E+03  2.61120E+03 -7.38208E+03  5.49577E+03 -3.09442E+03
  6.32125E+03  1.99863E+03  2.73919E+03  4.52122E+03 -4.44780E+02  6.80376E+03 -4.93178E+03  4.25999E+03
