 $NMID ID='MM_0lb_SNR400_9hz_g50_71.RAW', FMTDAT='(8E13.5)'
 TRAMP=1., VOLUME=1. $END
  3.09976E+05  1.36441E+02  3.38505E+05  2.51900E+05  8.47737E+04  3.38130E+05 -1.32729E+05  2.51844E+05
 -1.91013E+05  8.42941E+04 -1.12369E+05 -3.22708E+04  8.03259E+02 -5.08337E+04  5.43025E+04 -6.55621E+02
  3.58752E+04  5.24064E+04 -1.69535E+04  7.58040E+04 -6.15485E+04  6.41418E+04 -8.49703E+04  3.33798E+04
 -8.28255E+04 -1.15440E+04 -5.87592E+04 -5.25028E+04 -1.53591E+04 -7.15223E+04  2.79660E+04 -4.65406E+04
  4.05789E+04  3.28508E+03  1.65223E+04  4.86764E+04 -3.52095E+04  4.87005E+04 -6.84943E+04 -3.53643E+02
 -5.50889E+04 -5.72915E+04 -7.26959E+03 -7.85002E+04  3.44231E+04 -5.82934E+04  5.02687E+04 -1.92951E+04
  4.60549E+04  1.11433E+04  3.19812E+04  2.75770E+04  1.55657E+04  2.99335E+04 -5.54252E+03  2.77532E+04
 -2.20290E+04  1.17394E+04 -1.79697E+04 -5.47858E+03  7.16541E+03 -6.25245E+03  2.32810E+04  1.36744E+04
  6.62669E+03  3.79417E+04 -3.36192E+04  3.76544E+04 -6.59444E+04  1.96382E+03 -5.92061E+04 -4.43770E+04
 -1.21596E+04 -6.59615E+04  4.08787E+04 -4.66588E+04  6.16797E+04 -2.51935E+03  3.66965E+04  3.37637E+04
 -5.23101E+03  3.87084E+04 -3.16600E+04  1.86349E+04 -3.28868E+04 -3.76535E+03 -1.80047E+04 -1.19221E+04
 -9.16319E+03 -1.55511E+04 -3.63082E+02 -1.90944E+04  8.43700E+03 -2.28759E+04  1.64528E+04 -1.25758E+04
  1.13653E+04  6.17007E+03 -1.02917E+04  1.25377E+04 -2.30841E+04 -5.82847E+03 -9.12468E+03 -3.72273E+04
  2.51634E+04 -4.65859E+04  5.16105E+04 -2.09961E+04  4.86775E+04  2.12758E+04  1.71565E+04  4.71978E+04
 -1.62915E+04  3.63405E+04 -2.75995E+04  2.30089E+03 -1.15627E+04 -2.95049E+04  2.13959E+04 -3.62765E+04
  4.47336E+04 -1.06277E+04  3.96607E+04  2.53063E+04  2.12760E+04  5.17699E+04 -9.27222E+03  5.62682E+04
 -3.52799E+04  3.93013E+04 -4.79796E+04  1.09341E+04 -4.75903E+04 -1.85802E+04 -2.59595E+04 -4.16719E+04
  7.77023E+03 -4.22334E+04  3.41861E+04 -1.76238E+04  3.17911E+04  1.14611E+04  5.18190E+03  2.13910E+04
 -1.50134E+04  9.35613E+03 -1.14301E+04 -7.57167E+03  6.09148E+03 -1.13540E+04  1.88552E+04  5.73905E+03
  1.47023E+04  2.33452E+04 -6.33266E+03  2.70104E+04 -2.36041E+04  1.46961E+04 -3.11793E+04 -3.39419E+03
 -2.51348E+04 -1.85489E+04 -1.25163E+04 -2.47338E+04  4.63600E+03 -2.64400E+04  1.99679E+04 -2.36012E+04
  3.23536E+04 -1.37083E+04  3.81729E+04  5.59274E+03  2.74895E+04  2.45761E+04  4.91723E+03  4.09450E+04
 -1.90383E+04  3.37852E+04 -3.12848E+04  1.22744E+04 -2.27898E+04 -1.02577E+04 -4.96950E+03 -1.27285E+04
  7.70875E+02 -1.18983E+03 -7.46529E+03  8.65497E+03 -2.03797E+04  4.91720E+03 -2.00454E+04 -1.04951E+04
 -1.21434E+04 -2.34604E+04  5.94180E+03 -2.76813E+04  1.85585E+04 -1.96017E+04  2.20467E+04 -1.51762E+03
  1.52528E+04  1.68228E+04 -7.32576E+02  2.30206E+04 -1.68910E+04  1.40563E+04 -2.34188E+04 -5.06278E+03
 -1.81190E+04 -2.09437E+04 -2.44477E+03 -2.76742E+04  1.20695E+04 -2.34497E+04  2.25418E+04 -1.21174E+04
  2.23561E+04 -4.98219E+02  1.58391E+04  4.97083E+03  9.01684E+03  1.44337E+03  1.28297E+04 -2.27010E+03
  2.13949E+04  1.89791E+03  2.55783E+04  1.73664E+04  1.62973E+04  3.84317E+04 -2.55506E+03  4.43465E+04
 -2.58569E+04  3.72637E+04 -4.11523E+04  1.90606E+04 -4.46917E+04 -2.57658E+03 -3.65642E+04 -2.62808E+04
 -1.42530E+04 -3.75188E+04  1.26849E+04 -3.26777E+04  2.77564E+04 -1.50408E+04  2.43274E+04  8.62708E+03
  8.52501E+03  1.83176E+04 -1.20605E+04  1.60125E+04 -2.10483E+04  2.81337E+03 -1.53269E+04 -1.27560E+04
 -3.72865E+02 -2.03920E+04  9.96470E+03 -1.34365E+04  1.35582E+04 -1.96251E+03  3.61826E+03  8.70245E+03
 -8.57231E+03  4.41256E+03 -9.59163E+03 -7.12046E+03 -2.63447E+03 -1.83728E+04  1.11605E+04 -1.93559E+04
  2.38845E+04 -1.12018E+04  2.66297E+04  3.31923E+03  2.29505E+04  1.92300E+04  1.08225E+04  3.02715E+04
 -4.27906E+03  3.06946E+04 -1.96580E+04  1.93934E+04 -2.27712E+04  4.34768E+03 -1.53844E+04 -6.31823E+03
 -6.36933E+03 -8.11335E+03 -1.21821E+03  1.03377E+03 -3.53570E+03  2.99820E+03 -7.79952E+03  4.94789E+03
 -1.40114E+04 -1.21647E+03 -1.48775E+04 -1.11219E+04 -6.36144E+03 -1.94026E+04  6.14948E+03 -1.51521E+04
  1.30677E+04 -6.72711E+03  9.55555E+03  4.43804E+03 -1.38118E+03  5.58462E+03 -8.19343E+03 -3.68532E+02
 -8.39769E+03 -9.24800E+03 -1.08964E+03 -1.55926E+04  9.58085E+03 -1.67556E+04  2.03009E+04 -8.43500E+03
  2.42030E+04  2.01564E+03  1.74494E+04  1.40288E+04  3.65077E+03  2.00645E+04 -1.00599E+04  1.51642E+04
 -1.27181E+04  4.64192E+03 -6.76716E+03 -3.90960E+03  1.92141E+03 -4.43196E+03  8.81874E+03 -1.41573E+03
  7.58263E+03  7.07967E+03  1.80750E+03  1.29935E+04 -9.61868E+03  1.22710E+04 -1.47631E+04  3.69731E+03
 -1.04196E+04 -8.91948E+03 -3.02077E+02 -1.25744E+04  8.84735E+03 -6.89233E+03  1.00563E+04  3.09949E+03
  2.36477E+03  1.03256E+04 -8.08079E+03  1.08074E+04 -1.33437E+04  4.96375E+03 -1.38082E+04 -5.06817E+03
 -8.00528E+03 -1.60577E+04  3.91745E+03 -1.83089E+04  1.56171E+04 -1.05030E+04  1.59952E+04  2.66668E+03
  9.99019E+03  1.32655E+04 -9.66370E+02  1.54650E+04 -1.14682E+04  8.90821E+03 -1.32482E+04 -9.66865E+02
 -1.08042E+04 -1.07304E+04 -1.87084E+03 -1.19795E+04  5.79732E+03 -9.57754E+03  7.41528E+03 -3.41739E+03
  4.06450E+03  2.90615E+03 -1.61133E+03  2.90489E+03 -6.36581E+02 -3.34931E+03  2.24833E+03 -7.41184E+03
  1.13421E+04 -5.05646E+03  1.66879E+04  1.43097E+03  1.58516E+04  1.18294E+04  1.00763E+04  2.17305E+04
 -5.12177E+03  2.45348E+04 -1.99107E+04  1.80294E+04 -2.64650E+04  3.45557E+03 -2.05148E+04 -8.98878E+03
 -1.07283E+04 -1.74050E+04 -1.13868E+03 -1.42643E+04  4.81704E+03 -8.70935E+03  5.41600E+03 -4.89309E+03
  4.10896E+03 -2.95999E+03  3.61740E+03 -2.61938E+03  5.59752E+03 -4.10238E+03  7.69494E+03 -2.16055E+03
  1.07887E+04  2.55689E+03  5.63677E+03  1.00909E+04 -1.99039E+03  1.09949E+04 -1.05364E+04  8.51515E+03
 -1.47495E+04 -1.07619E+03 -9.69537E+03 -1.09516E+04 -1.63084E+03 -1.61512E+04  8.14476E+03 -1.64090E+04
  1.64207E+04 -9.14191E+03  2.02645E+04  2.81697E+03  1.34529E+04  1.44934E+04  2.23518E+03  1.83380E+04
 -7.13361E+03  1.42911E+04 -1.03464E+04  4.97598E+03 -7.65759E+03 -1.78451E+03 -3.54815E+03 -1.89233E+03
 -1.49018E+03 -2.81986E+02 -1.84923E+03  3.15864E+03 -6.18496E+03  2.91761E+03 -1.00542E+04 -1.71468E+03
 -8.00550E+03 -9.44108E+03 -9.59107E+02 -1.48488E+04  8.74679E+03 -1.42823E+04  1.49871E+04 -4.41682E+03
  1.43765E+04  6.42401E+03  6.53082E+03  1.36263E+04 -3.68281E+03  1.41143E+04 -1.12469E+04  9.27965E+03
 -1.35967E+04  5.53765E+02 -1.07393E+04 -9.36846E+03 -1.25051E+03 -1.28783E+04  6.94238E+03 -8.79192E+03
  9.55935E+03 -3.08955E+03  6.71565E+03  2.51258E+03  2.73265E+03  4.57457E+03  1.52572E+03  1.96709E+03
  2.32112E+03  4.89567E+02  3.07879E+03  1.92906E+03  4.22991E+03  4.70291E+03  4.65891E+03  7.34241E+03
 -2.79479E+03  1.21537E+04 -1.00381E+04  1.21573E+04 -1.53717E+04  2.74280E+03 -1.55110E+04 -7.05134E+03
 -7.08597E+03 -1.55628E+04  2.37491E+03 -1.57719E+04  9.32660E+03 -1.06070E+04  1.24932E+04 -1.84938E+03
  8.67595E+03  5.13949E+03  2.11587E+03  8.24626E+03 -4.65050E+03  6.13914E+03 -5.47157E+03 -7.60563E+02
 -3.06900E+03 -7.18782E+03  3.87720E+03 -6.19915E+03  6.07992E+03 -3.07781E+03  5.78845E+03  9.39010E+02
  4.24599E+03  3.23313E+03  1.29071E+03  2.44850E+03 -7.03869E+02  2.13208E+03  1.87628E+03 -8.40978E+02
  2.19103E+03 -7.06560E+02  5.63556E+03  2.43979E+03  3.26085E+03  7.81508E+03 -9.50398E+02  1.03309E+04
 -7.14766E+03  7.19219E+03 -9.35363E+03  2.14205E+03 -9.43524E+03 -3.15901E+03 -3.85187E+03 -4.82505E+03
  6.93014E+02 -6.05291E+03  4.49458E+03 -2.74845E+03  3.16427E+03  3.02624E+03 -1.05212E+03  4.60043E+03
 -6.56122E+03  3.73339E+03 -7.19197E+03 -3.43587E+03 -4.53814E+03 -8.54626E+03  1.46433E+03 -7.73275E+03
  4.85173E+03 -4.57205E+03  6.41888E+03  3.67190E+02  4.73640E+03  1.70312E+03  8.07648E+02  4.90666E+03
 -2.19476E+03  2.40990E+03 -4.05809E+03 -3.77521E+03  1.46735E+03 -6.49093E+03  8.26565E+03 -5.39039E+03
  9.76356E+03  5.44449E+02  9.28697E+03  7.01572E+03  2.57517E+03  1.02188E+04 -3.92652E+03  8.62774E+03
 -8.76134E+03  4.77081E+03 -7.94406E+03 -1.82603E+03 -4.50322E+03 -6.45304E+03  1.38442E+03 -6.19510E+03
  6.18559E+03 -2.86385E+03  4.63630E+03  2.64346E+03  2.07773E+03  5.95983E+03 -9.27235E+01  5.19898E+03
 -2.23979E+03  3.00125E+03 -2.37993E+03  1.26890E+03 -1.41422E+03  1.01350E+03 -8.86462E+02  2.14047E+03
 -2.61518E+03  3.45717E+03 -6.18232E+03  3.78447E+03 -9.23476E+03  1.02963E+03 -1.12910E+04 -5.97923E+03
 -5.28104E+03 -1.39555E+04  2.46248E+03 -1.53007E+04  9.00374E+03 -1.24304E+04  1.49998E+04 -4.38246E+03
  1.35427E+04  3.43754E+03  8.16108E+03  9.45249E+03  1.00146E+03  1.07115E+04 -3.73154E+03  8.23059E+03
 -5.76240E+03  2.43324E+03 -3.68446E+03 -1.37010E+03 -1.64044E+03 -1.35153E+03 -7.90094E+01 -2.77216E+02
 -2.15246E+03  2.90947E+02 -2.80937E+03 -6.24946E+01 -4.85225E+02 -1.64639E+03  7.67711E+02 -3.26763E+03
  4.54291E+03 -4.38442E+03  6.41170E+03  3.11725E+02  7.45119E+03  6.16466E+03  2.39622E+03  9.84299E+03
 -5.52115E+03  1.28931E+04 -1.07202E+04  7.22137E+03 -1.20731E+04 -1.08360E+03 -8.92577E+03 -7.82576E+03
 -3.56904E+03 -1.11472E+04  2.17294E+03 -1.02506E+04  7.26694E+03 -5.09173E+03  6.70885E+03 -3.35852E+02
  3.86061E+03  4.27221E+03 -8.27360E+02  3.16423E+03 -2.07480E+03 -2.23090E+02  7.78890E+02 -2.54304E+03
  3.28501E+03 -1.19182E+03  4.63832E+03  1.51603E+03  3.07282E+03  4.42376E+03  2.49250E+02  5.45350E+03
 -5.11064E+03  5.03832E+03 -7.30407E+03  9.70702E+02 -6.55142E+03 -5.62881E+03 -1.46894E+03 -8.56401E+03
  4.37705E+03 -7.44736E+03  7.44124E+03 -2.51390E+03  7.90235E+03  2.00909E+03  4.77821E+03  6.32233E+03
  7.87237E+02  7.28723E+03 -2.50233E+03  5.46185E+03 -4.83918E+03  2.73958E+03 -4.18668E+03  2.34900E+02
 -6.83630E+02 -5.12313E+02 -1.37216E+03 -4.87635E+01 -4.36728E+03  2.17971E+03 -5.40836E+03 -1.13138E+03
 -5.25040E+03 -3.46517E+03 -1.76588E+03 -7.17361E+03  3.16710E+03 -7.35277E+03  6.14604E+03 -3.13387E+03
  7.00594E+03  7.22903E+02  4.49648E+03  4.84185E+03 -1.07981E+03  7.55960E+03 -5.28560E+03  4.47898E+03
