 $NMID ID='MM_0lb_SNR400_10hz_g60_37.RAW', FMTDAT='(8E13.5)'
 TRAMP=1., VOLUME=1. $END
  3.09391E+05  3.66037E+02  3.38450E+05  2.51400E+05  8.44307E+04  3.38705E+05 -1.32112E+05  2.52215E+05
 -1.90374E+05  8.43203E+04 -1.12587E+05 -3.17211E+04  6.94939E+02 -5.11500E+04  5.43023E+04 -6.39187E+02
  3.57005E+04  5.24314E+04 -1.71963E+04  7.63230E+04 -6.15057E+04  6.47019E+04 -8.53419E+04  3.27107E+04
 -8.16272E+04 -1.15151E+04 -5.79597E+04 -5.25707E+04 -1.49888E+04 -7.19994E+04  2.77758E+04 -4.69841E+04
  4.12223E+04  3.90514E+03  1.63618E+04  4.91181E+04 -3.46765E+04  4.82611E+04 -6.81598E+04 -5.52143E+01
 -5.45873E+04 -5.78368E+04 -7.10441E+03 -7.86587E+04  3.49502E+04 -5.72051E+04  4.98019E+04 -1.75454E+04
  4.63006E+04  1.11483E+04  3.27025E+04  2.70948E+04  1.64545E+04  3.03831E+04 -5.91864E+03  2.75756E+04
 -2.27620E+04  1.18722E+04 -1.78576E+04 -5.58719E+03  6.98985E+03 -6.89914E+03  2.32209E+04  1.31968E+04
  7.01819E+03  3.67278E+04 -3.38140E+04  3.70419E+04 -6.68881E+04  2.07398E+03 -5.94596E+04 -4.49230E+04
 -1.23208E+04 -6.60602E+04  4.23764E+04 -4.70173E+04  6.16859E+04 -3.57079E+03  3.64579E+04  3.38513E+04
 -5.74047E+03  3.97274E+04 -3.23829E+04  1.91418E+04 -3.37299E+04 -3.58668E+03 -1.90380E+04 -1.19090E+04
 -1.01834E+04 -1.52118E+04 -1.09454E+03 -1.95816E+04  8.88599E+03 -2.37073E+04  1.61631E+04 -1.21124E+04
  1.03922E+04  6.32582E+03 -1.02579E+04  1.24779E+04 -2.42642E+04 -6.78288E+03 -8.93492E+03 -3.82889E+04
  2.44721E+04 -4.74815E+04  5.21043E+04 -2.07079E+04  4.93810E+04  2.07263E+04  1.71076E+04  4.81168E+04
 -1.67393E+04  3.55002E+04 -2.67867E+04  3.74202E+03 -1.22340E+04 -2.95101E+04  2.11531E+04 -3.76057E+04
  4.43900E+04 -1.08054E+04  4.11911E+04  2.51842E+04  2.18828E+04  5.11637E+04 -7.80630E+03  5.66323E+04
 -3.58520E+04  3.82118E+04 -4.79415E+04  1.16258E+04 -4.86704E+04 -1.86744E+04 -2.61673E+04 -4.24490E+04
  6.98135E+03 -4.26218E+04  3.46036E+04 -1.68631E+04  3.26241E+04  1.12601E+04  5.86441E+03  2.09604E+04
 -1.30539E+04  9.96056E+03 -1.15727E+04 -7.75941E+03  5.50425E+03 -1.15395E+04  1.85344E+04  5.66432E+03
  1.52093E+04  2.24651E+04 -4.15775E+03  2.71805E+04 -2.39249E+04  1.47050E+04 -3.11218E+04 -2.85193E+03
 -2.54420E+04 -1.88049E+04 -1.27486E+04 -2.54559E+04  3.77886E+03 -2.57208E+04  1.98088E+04 -2.28052E+04
  3.19517E+04 -1.45261E+04  3.85698E+04  5.47457E+03  2.62790E+04  2.47469E+04  4.74525E+03  4.12520E+04
 -1.94465E+04  3.43242E+04 -3.01401E+04  1.13910E+04 -2.28403E+04 -1.00439E+04 -5.34887E+03 -1.29439E+04
  6.86690E+02 -7.99650E+02 -7.85541E+03  8.17225E+03 -2.05777E+04  4.32116E+03 -2.03461E+04 -1.01957E+04
 -1.15971E+04 -2.36222E+04  6.95867E+03 -2.76686E+04  1.87320E+04 -2.01817E+04  2.20436E+04 -1.49775E+03
  1.51777E+04  1.63026E+04 -1.39505E+03  2.39144E+04 -1.66040E+04  1.34220E+04 -2.34571E+04 -4.85252E+03
 -1.75481E+04 -2.06430E+04 -1.41938E+03 -2.75193E+04  1.27022E+04 -2.33142E+04  2.27515E+04 -1.17784E+04
  2.24436E+04  4.36386E+02  1.57745E+04  5.16828E+03  8.50248E+03  1.58489E+03  1.27372E+04 -2.16223E+03
  2.28339E+04  3.06048E+03  2.60335E+04  1.80419E+04  1.77430E+04  3.80769E+04 -3.30084E+03  4.47064E+04
 -2.45827E+04  3.72186E+04 -4.25988E+04  1.90749E+04 -4.45261E+04 -2.98127E+03 -3.64528E+04 -2.60732E+04
 -1.42641E+04 -3.67854E+04  1.32136E+04 -3.26211E+04  2.80836E+04 -1.50442E+04  2.52095E+04  8.39434E+03
  7.98525E+03  1.86442E+04 -1.05254E+04  1.58412E+04 -2.04254E+04  2.70647E+03 -1.53388E+04 -1.28008E+04
 -1.14190E+03 -1.84937E+04  1.00573E+04 -1.43742E+04  1.36570E+04 -3.98549E+02  3.75228E+03  9.20894E+03
 -8.89127E+03  4.14241E+03 -9.04587E+03 -7.10389E+03 -1.69307E+03 -1.83295E+04  1.23391E+04 -2.00344E+04
  2.26167E+04 -1.06536E+04  2.58221E+04  3.33539E+03  2.30052E+04  1.79308E+04  1.00648E+04  2.86997E+04
 -5.46699E+03  3.10154E+04 -2.02152E+04  1.90769E+04 -2.28970E+04  4.40217E+03 -1.51927E+04 -5.87724E+03
 -7.25988E+03 -7.13529E+03 -1.11142E+03  8.54029E+02 -2.90342E+03  4.31522E+03 -7.47265E+03  5.26811E+03
 -1.40938E+04 -4.10810E+02 -1.52061E+04 -1.18350E+04 -6.06882E+03 -1.93738E+04  6.80624E+03 -1.55035E+04
  1.30422E+04 -6.06946E+03  8.88197E+03  3.55026E+03 -5.22388E+02  5.67916E+03 -7.26048E+03 -8.97924E+02
 -7.04236E+03 -1.05916E+04 -1.55880E+03 -1.54153E+04  9.37002E+03 -1.63071E+04  1.94693E+04 -8.67131E+03
  2.30152E+04  2.49753E+03  1.65507E+04  1.35481E+04  2.74458E+03  1.93403E+04 -9.50276E+03  1.52682E+04
 -1.32436E+04  4.40711E+03 -5.92275E+03 -3.92534E+03  2.46092E+03 -3.77409E+03  8.14638E+03 -1.17551E+03
  7.54549E+03  7.41646E+03  1.00024E+03  1.22811E+04 -9.38805E+03  1.12603E+04 -1.51400E+04  3.02562E+03
 -1.10479E+04 -8.46013E+03 -1.23971E+02 -1.29854E+04  9.06718E+03 -7.61243E+03  8.89749E+03  2.49803E+03
  3.70068E+03  9.55787E+03 -8.26289E+03  1.11577E+04 -1.37793E+04  4.04381E+03 -1.28273E+04 -4.99700E+03
 -7.96334E+03 -1.53198E+04  3.43902E+03 -1.75019E+04  1.51360E+04 -9.99453E+03  1.67747E+04  3.21893E+03
  9.85323E+03  1.29775E+04 -1.29577E+03  1.59581E+04 -1.13005E+04  8.65855E+03 -1.36217E+04 -1.60979E+03
 -1.12747E+04 -9.57436E+03 -1.57031E+03 -1.21642E+04  6.71099E+03 -1.00532E+04  7.43203E+03 -3.61777E+03
  4.36641E+03  1.83922E+03 -1.20657E+03  2.16612E+03 -5.78567E+02 -2.54349E+03  2.64464E+03 -6.98974E+03
  1.20678E+04 -4.26331E+03  1.56548E+04  1.87911E+03  1.55515E+04  1.09277E+04  9.94329E+03  2.03445E+04
 -5.19275E+03  2.31024E+04 -1.90248E+04  1.70142E+04 -2.54121E+04  3.62786E+03 -2.07771E+04 -9.06344E+03
 -1.01095E+04 -1.62980E+04  4.07736E+02 -1.49863E+04  5.17639E+03 -7.80102E+03  4.56650E+03 -5.40217E+03
  3.43412E+03 -2.36140E+03  3.98177E+03 -3.44036E+03  6.26373E+03 -3.55153E+03  8.03078E+03 -1.73356E+03
  1.00302E+04  2.30025E+03  5.49490E+03  8.71353E+03 -1.44145E+03  1.09906E+04 -1.11361E+04  8.24475E+03
 -1.46609E+04 -1.17078E+03 -8.86453E+03 -1.02504E+04 -6.70764E+02 -1.56586E+04  8.40040E+03 -1.54879E+04
  1.53451E+04 -8.36367E+03  1.89560E+04  2.31334E+03  1.28706E+04  1.36202E+04  2.77777E+03  1.77228E+04
 -6.98899E+03  1.36101E+04 -1.06542E+04  4.94359E+03 -6.57293E+03 -1.65746E+03 -3.03735E+03 -1.59201E+03
 -1.22535E+03 -6.74123E+02 -1.95474E+03  3.64033E+03 -6.40135E+03  2.74758E+03 -9.71996E+03 -2.00027E+03
 -7.08741E+03 -1.05733E+04  4.71979E+02 -1.44051E+04  8.58237E+03 -1.24068E+04  1.38905E+04 -4.64880E+03
  1.35315E+04  6.71952E+03  6.40450E+03  1.23628E+04 -3.08745E+03  1.43360E+04 -1.04772E+04  9.29408E+03
 -1.37681E+04  1.40792E+03 -1.00469E+04 -8.84511E+03 -6.88445E+02 -1.24128E+04  6.56597E+03 -9.21455E+03
  9.05187E+03 -2.91973E+03  5.97840E+03  2.38126E+03  2.37647E+03  4.25614E+03  9.85280E+02  2.54608E+03
  1.55459E+03  5.04674E+02  3.12645E+03  2.26472E+03  4.45561E+03  5.07528E+03  3.48743E+03  7.55541E+03
 -2.66781E+03  1.08923E+04 -9.45389E+03  1.22767E+04 -1.42597E+04  3.41219E+03 -1.58577E+04 -5.91032E+03
 -6.85762E+03 -1.44603E+04  1.96096E+03 -1.58826E+04  9.03833E+03 -1.08246E+04  1.15997E+04 -2.31475E+03
  9.11799E+03  6.01817E+03  1.71142E+03  7.58382E+03 -3.80149E+03  5.67836E+03 -6.44227E+03 -8.30429E+02
 -3.35204E+03 -6.45295E+03  3.20807E+03 -6.26643E+03  6.05458E+03 -2.76915E+03  5.22976E+03  9.37158E+02
  3.18374E+03  2.48917E+03  9.84960E+02  2.08451E+03 -4.53876E+02  2.13811E+03  1.14995E+03 -1.06966E+03
  1.30651E+03 -4.99886E+02  5.80297E+03  1.90039E+03  3.18274E+03  8.17811E+03 -1.58122E+03  1.05362E+04
 -6.48845E+03  7.01966E+03 -8.81519E+03  1.10279E+03 -7.87306E+03 -3.28108E+03 -3.52627E+03 -6.49765E+03
  3.84675E+02 -6.46130E+03  4.20426E+03 -3.53764E+03  4.00571E+03  2.85630E+03 -1.11600E+03  3.94664E+03
 -5.83783E+03  3.08569E+03 -6.96896E+03 -3.08187E+03 -2.66595E+03 -7.94539E+03  1.02560E+03 -7.32959E+03
  3.79244E+03 -4.67498E+03  5.68323E+03  5.26167E+01  5.99864E+03  2.31240E+03  7.08264E+02  3.47892E+03
 -2.43827E+03  1.58971E+03 -3.36663E+03 -2.87085E+03  1.87891E+03 -6.21089E+03  6.66777E+03 -4.33916E+03
  9.76154E+03  5.86442E+02  8.46317E+03  6.30023E+03  2.43808E+03  9.38192E+03 -3.87451E+03  8.74015E+03
 -7.31403E+03  4.09490E+03 -7.91752E+03 -1.45625E+03 -4.00523E+03 -6.52290E+03  1.81270E+03 -6.15004E+03
  5.32279E+03 -2.90566E+03  4.93013E+03  2.24537E+03  1.97386E+03  4.80608E+03 -4.87256E+02  4.31791E+03
 -2.32568E+03  2.92697E+03 -2.48884E+03  9.95101E+02 -1.29021E+03  1.28078E+03 -2.08380E+03  1.62643E+03
 -2.16501E+03  3.53029E+03 -6.25891E+03  3.06220E+03 -8.95165E+03 -1.23260E+02 -1.02796E+04 -5.31014E+03
 -5.51490E+03 -1.20922E+04  2.21002E+03 -1.38880E+04  8.86853E+03 -1.14944E+04  1.31781E+04 -4.43120E+03
  1.30815E+04  2.59944E+03  7.40912E+03  9.01817E+03  4.66209E+02  9.51553E+03 -4.03426E+03  7.14244E+03
 -5.30578E+03  2.13520E+03 -3.65372E+03 -9.00745E+02 -1.21744E+03 -1.28165E+03 -7.05725E+02  3.87088E+02
 -1.65674E+03  7.33068E+02 -2.39950E+03 -6.40605E+02 -3.09820E+02 -1.97921E+03  2.22527E+02 -3.93701E+03
  3.95014E+03 -3.26806E+03  5.68570E+03  4.29218E+02  6.04630E+03  4.97977E+03  1.83099E+03  9.69078E+03
 -4.11491E+03  1.09900E+04 -9.95730E+03  5.73301E+03 -1.18618E+04 -7.16785E+02 -8.08861E+03 -6.18078E+03
 -3.93601E+03 -8.87807E+03  2.19673E+03 -8.49926E+03  6.33693E+03 -4.67868E+03  6.08516E+03  5.70158E+01
  3.04537E+03  2.45911E+03 -3.75255E+02  2.18344E+03 -1.74006E+03  1.72272E+01  9.29222E+01 -2.70442E+03
  3.01005E+03 -1.04545E+03  3.27926E+03  1.19553E+03  1.25953E+03  3.18822E+03  8.66725E+02  4.94758E+03
 -3.98821E+03  4.82090E+03 -5.59110E+03  2.10480E+02 -5.57199E+03 -4.27854E+03 -7.18535E+02 -8.21641E+03
  4.51487E+03 -5.94606E+03  7.03101E+03 -1.99729E+03  7.70180E+03  2.06870E+03  3.62121E+03  5.83621E+03
  6.62589E+02  6.33427E+03 -2.94769E+03  5.49581E+03 -3.72178E+03  2.47585E+03 -2.61691E+03  5.15898E+02
 -3.27426E+03 -6.25875E+02 -2.16816E+03  1.42898E+03 -3.27623E+03  6.76779E+01 -4.72319E+03 -7.05439E+02
 -4.57510E+03 -2.98548E+03 -7.53631E+02 -5.47423E+03  3.22728E+03 -7.01515E+03  5.05220E+03 -2.92091E+03
  5.74206E+03  1.07683E+03  2.35927E+03  4.49577E+03 -9.77042E+02  5.99443E+03 -5.17825E+03  3.21546E+03
