 $NMID ID='MM_0lb_SNR400_20hz_g50_15.RAW', FMTDAT='(8E13.5)'
 TRAMP=1., VOLUME=1. $END
  3.10094E+05  6.22627E+02  3.37007E+05  2.50162E+05  8.40120E+04  3.37490E+05 -1.32569E+05  2.50160E+05
 -1.89170E+05  8.25870E+04 -1.10850E+05 -3.31633E+04  2.01097E+03 -5.02368E+04  5.39558E+04 -8.34214E+01
  3.51862E+04  5.30104E+04 -1.75309E+04  7.47947E+04 -6.02318E+04  6.29751E+04 -8.25373E+04  3.13084E+04
 -7.95860E+04 -1.05783E+04 -5.60440E+04 -4.95090E+04 -1.49190E+04 -6.77823E+04  2.70885E+04 -4.44837E+04
  3.97265E+04  3.53256E+03  1.55698E+04  4.68452E+04 -3.36172E+04  4.61384E+04 -6.54807E+04 -5.34349E+02
 -5.15526E+04 -5.60805E+04 -5.95446E+03 -7.53318E+04  3.31512E+04 -5.27285E+04  4.61557E+04 -1.62614E+04
  4.16572E+04  1.10170E+04  3.05776E+04  2.39890E+04  1.55907E+04  2.80390E+04 -4.61653E+03  2.67183E+04
 -2.11904E+04  1.28655E+04 -1.91190E+04 -4.37704E+03  4.03725E+03 -7.78713E+03  2.08918E+04  1.07695E+04
  7.15071E+03  3.29998E+04 -3.10080E+04  3.41646E+04 -6.09783E+04  2.52961E+03 -5.48528E+04 -4.07743E+04
 -1.23866E+04 -6.04307E+04  3.80945E+04 -4.31226E+04  5.53179E+04 -2.06036E+03  3.14814E+04  2.99546E+04
 -6.02176E+03  3.25734E+04 -2.82096E+04  1.23725E+04 -2.71274E+04 -5.45330E+03 -1.41922E+04 -9.47365E+03
 -7.71099E+03 -1.06573E+04 -1.27796E+03 -1.66279E+04  6.32444E+03 -2.26563E+04  1.45989E+04 -1.40877E+04
  1.27562E+04  4.02409E+03 -5.68834E+03  1.33205E+04 -1.86178E+04 -1.81535E+03 -8.20175E+03 -2.99811E+04
  2.10059E+04 -3.99905E+04  4.42950E+04 -1.84779E+04  4.18399E+04  1.81356E+04  1.41868E+04  4.11902E+04
 -1.56379E+04  3.05584E+04 -2.31916E+04  5.93106E+02 -8.98195E+03 -2.61638E+04  2.06700E+04 -3.03667E+04
  3.72108E+04 -6.60171E+03  3.05441E+04  2.32434E+04  1.49454E+04  4.25063E+04 -7.71791E+03  4.41745E+04
 -2.78953E+04  2.86039E+04 -3.66970E+04  8.26040E+03 -3.77117E+04 -1.44121E+04 -2.04186E+04 -3.38176E+04
  6.85803E+03 -3.34633E+04  2.88242E+04 -1.19072E+04  2.70729E+04  1.05960E+04  3.20340E+03  1.78342E+04
 -1.27852E+04  7.04416E+03 -9.78431E+03 -7.77358E+03  5.76242E+03 -1.02273E+04  1.69140E+04  6.77501E+03
  1.19728E+04  2.14790E+04 -6.85603E+03  2.30786E+04 -2.09869E+04  8.18790E+03 -2.48014E+04 -7.12106E+03
 -1.60483E+04 -1.63024E+04 -5.69210E+03 -1.64113E+04  3.35030E+03 -1.37293E+04  1.17884E+04 -1.29564E+04
  2.02839E+04 -1.16297E+04  2.72146E+04  8.05528E+02  2.07832E+04  1.59454E+04  3.93196E+03  3.19853E+04
 -1.56342E+04  2.70503E+04 -2.54498E+04  9.30508E+03 -1.96800E+04 -1.03085E+04 -4.54665E+03 -1.44312E+04
  2.87730E+03 -4.07138E+03 -2.15918E+03  4.67141E+03 -1.17326E+04  5.17417E+03 -1.25794E+04 -4.73130E+03
 -8.16175E+03 -1.49738E+04  4.39926E+03 -1.87513E+04  1.15474E+04 -1.35611E+04  1.39684E+04 -1.74520E+03
  8.07946E+03  1.07041E+04 -7.99765E+02  1.48440E+04 -9.94844E+03  8.56149E+03 -1.50449E+04 -2.98528E+03
 -1.15322E+04 -1.34829E+04 -1.38899E+03 -1.77455E+04  8.37481E+03 -1.44923E+04  1.56253E+04 -6.82525E+03
  1.36479E+04  6.93756E+02  9.95356E+03  3.43869E+03  4.77431E+03  4.80666E+02  7.66974E+03 -1.20821E+03
  1.33788E+04  2.42104E+03  1.35934E+04  1.19917E+04  8.38064E+03  2.37983E+04 -3.23679E+03  2.52682E+04
 -1.50105E+04  1.89786E+04 -2.29540E+04  9.41228E+03 -2.30999E+04 -1.96212E+03 -1.98980E+04 -1.33257E+04
 -9.89298E+03 -1.86828E+04  6.23821E+03 -1.79145E+04  1.60047E+04 -1.03124E+04  1.47398E+04  3.11561E+03
  6.58919E+03  1.04716E+04 -6.27875E+03  1.01099E+04 -1.27921E+04  2.48161E+03 -9.67402E+03 -7.72315E+03
 -1.88427E+02 -1.18260E+04  6.01316E+03 -8.60945E+03  7.46773E+03 -1.33980E+03  1.57984E+03  4.53132E+03
 -5.11207E+03  1.11007E+03 -3.18006E+03 -4.18034E+03  1.08189E+03 -9.16601E+03  6.87821E+03 -9.25389E+03
  1.18932E+04 -3.95431E+03  1.06911E+04  2.48558E+03  9.25092E+03  8.41094E+03  4.55318E+03  1.25214E+04
 -1.43181E+03  1.40118E+04 -8.80248E+03  9.51626E+03 -9.80878E+03  2.85209E+03 -7.74758E+03 -2.03482E+03
 -4.38700E+03 -3.16366E+03 -7.80892E+02  1.74108E+03 -1.72026E+03  1.75349E+03 -3.23093E+03  3.17677E+03
 -7.26659E+03 -1.13741E+02 -8.12104E+03 -6.17888E+03 -3.01716E+03 -1.14649E+04  3.85417E+03 -8.16557E+03
  6.33171E+03 -3.59350E+03  5.20472E+03  1.65749E+03  7.04989E+02  2.63518E+03 -2.88229E+03 -6.61795E+01
 -2.83000E+03 -4.56024E+03 -7.63518E+02 -6.52526E+03  3.23686E+03 -7.41088E+03  8.93183E+03 -3.95028E+03
  1.02947E+04  9.12164E+02  7.78238E+03  5.01932E+03  1.05646E+03  7.78599E+03 -4.55594E+03  7.29594E+03
 -6.72577E+03  2.82532E+03 -3.35604E+03 -1.23562E+03  7.75534E+02 -2.15533E+03  4.32614E+03 -6.42462E+02
  4.27771E+03  3.10567E+03  1.36876E+03  6.07718E+03 -4.06834E+03  6.22627E+03 -7.05530E+03  1.07318E+03
 -4.48724E+03 -3.64620E+03  3.14051E+02 -5.12742E+03  3.16084E+03 -2.68987E+03  3.28623E+03  4.95063E+02
 -8.93443E+01  2.77555E+03 -3.77236E+03  3.99762E+03 -3.60325E+03  1.78687E+03 -3.17906E+03 -6.21450E+02
 -2.60663E+03 -4.95334E+03  7.32031E+02 -6.02738E+03  4.98347E+03 -4.37850E+03  5.96983E+03  1.13624E+03
  4.64171E+03  4.58829E+03  4.49079E+02  7.07873E+03 -4.33886E+03  3.72369E+03 -4.29546E+03 -2.11406E+02
 -5.39220E+03 -4.72948E+03 -1.06043E+03 -4.37245E+03  2.41226E+03 -4.14573E+03  2.74597E+03 -3.13056E+03
  2.78501E+03  9.49076E+01  5.40138E+02  8.29164E+02  6.00196E+02  2.21002E+02  2.80385E+02 -1.63896E+03
  3.39017E+03 -6.12046E+02  4.21252E+03  9.29133E+01  4.98088E+03  2.48198E+03  5.05609E+03  5.92346E+03
 -7.65600E+02  6.73363E+03 -6.73654E+03  5.56057E+03 -8.76302E+03  1.00957E+03 -6.42837E+03 -2.10440E+03
 -3.50326E+03 -5.35052E+03 -6.23479E+02 -4.59201E+03  2.05039E+03 -1.83781E+03  1.47193E+03 -1.83194E+03
  1.44143E+03 -1.66591E+03  1.59103E+03 -2.29531E+03  3.35070E+03 -1.08476E+03  3.17766E+03  5.96217E+02
  4.05789E+03  1.31884E+03  8.94991E+02  2.84975E+03 -1.37361E+03  1.48751E+03 -3.60676E+03  2.30122E+03
 -4.37032E+03 -6.22011E+02 -7.44892E+02 -3.00853E+03  3.02365E+02 -4.02826E+03  3.11829E+03 -4.62042E+03
  4.06934E+03 -3.22634E+03  5.86225E+03 -5.20067E+02  3.74899E+03  3.04446E+03  1.22518E+03  4.66075E+03
 -1.74325E+03  5.23286E+03 -2.58022E+03  1.97524E+03 -1.61914E+03 -5.60433E+02  2.70264E+02 -8.70402E+02
 -5.45362E+02  6.19014E+02 -8.40227E+02  2.66439E+03 -1.83595E+03  1.17505E+03 -3.53591E+03 -9.56389E+01
 -1.35941E+03 -3.42526E+03  9.82777E+02 -3.56638E+03  2.34208E+03 -3.69388E+03  3.15102E+03 -1.05504E+03
  3.13594E+03  1.68122E+03  9.60092E+02  2.71276E+03 -5.57822E+02  3.76603E+03 -1.88064E+03  2.27667E+03
 -3.39481E+03  4.18294E+02 -3.30692E+03 -2.20872E+03  1.35094E+02 -2.83046E+03  1.80225E+03 -1.90695E+03
  2.60879E+03 -1.38858E+03  1.53195E+03  6.27813E+02 -2.97786E+02  1.76545E+03  8.73276E+02  1.23917E+02
  1.56215E+03  7.77977E+02  6.93097E+02  1.00157E+03  1.10861E+03  2.12673E+03  1.01400E+03  2.03044E+03
 -8.60671E+02  2.40553E+03 -2.12874E+03  3.67778E+03 -2.27472E+03  9.26891E+02 -3.75077E+03 -3.33786E+02
 -1.38530E+03 -2.83225E+03  3.12379E+02 -3.67942E+03  1.01028E+03 -2.17743E+03  2.00293E+03 -1.05995E+03
  1.58841E+03  1.13674E+03 -6.98927E+01  1.55726E+03 -2.08287E+02  1.27031E+03 -4.41081E+02 -2.50569E+02
 -8.79951E+02 -7.39426E+02  9.26807E+02 -8.50551E+02  1.45058E+03 -1.05480E+03  1.28702E+03  3.12921E+02
  7.29829E+02  3.83414E+02  9.24712E+02 -6.24136E+02 -3.38102E+01  8.10400E+02  2.01603E+03  7.75405E+01
 -4.20593E+02 -1.55415E+02  1.80941E+03 -1.07287E+02  2.95187E+02  2.06780E+03 -1.10121E+02  2.71629E+03
 -6.63128E+02  3.65850E+02 -1.17534E+03 -4.10002E+02 -2.06684E+03 -6.51422E+02  3.13675E+02 -3.57506E+02
  2.25251E+02 -9.35737E+02  4.43006E+02 -8.57895E+02  7.61644E+02  1.43663E+03 -6.68942E+02  1.08790E+03
 -1.36095E+03  4.21203E+02 -5.63553E+02 -1.37236E+03 -5.47672E+02 -1.90357E+03 -3.19594E+02 -8.48956E+02
  3.19126E+02 -2.30336E+02  2.06418E+02  2.81819E+02  8.26181E+02  1.82336E+02  5.55798E+02  6.74245E+02
 -2.58185E+02  1.99142E+02 -4.98701E+02  2.27748E+02  6.40793E+02 -5.02080E+02  1.45521E+03 -7.37894E+02
  1.03111E+03  4.88450E+02  2.31897E+03  1.45506E+02  8.38242E+02  8.72449E+02  6.60852E+01  1.31311E+03
 -1.04706E+03 -3.07180E+02 -9.03997E+02 -8.83506E+01 -1.27115E+02 -1.68983E+03  6.21085E+02 -6.39888E-01
  8.84803E+02 -7.17163E+02  4.67705E+02  5.94273E+02  2.45879E+02  8.95713E+02 -9.18942E+01  6.22580E+02
 -1.58956E+02  8.95850E+02 -5.76460E+02 -6.84404E+02 -2.62402E+00  9.32676E+02 -8.05734E+02  4.96189E+02
 -6.39422E+02  5.09690E+02 -1.65581E+03  4.64157E+02 -1.11675E+03  4.54789E+02 -2.06713E+03 -5.93928E+02
 -1.53284E+03 -5.96293E+02  3.40084E+02 -2.22044E+03  7.86833E+02 -1.72753E+03  1.99750E+03 -6.04909E+02
  2.11562E+03 -7.54793E+02  8.34294E+02  1.84318E+03 -5.79480E+02  7.09263E+02 -4.70762E+02  1.01058E+03
 -1.06584E+03  4.14147E+02 -2.25735E+02 -1.93612E+02 -2.81673E+02  4.35291E+02 -7.00423E+02  5.88972E+02
 -7.87735E+02 -5.08831E+01 -3.42111E+02  1.59141E+02 -7.74293E+01 -1.29332E+02 -7.44088E+02 -6.30279E+02
  1.50992E+03 -3.54156E+02 -3.09542E+02 -5.31124E+00  7.84516E+02  6.90529E+02 -5.80697E+02  9.02029E+02
 -7.61330E+02  1.40190E+03 -9.63662E+02  7.31003E+02 -1.46706E+03 -5.75012E+00 -5.24231E+02 -8.67603E+02
 -9.07481E+02 -5.47168E+02  5.79060E+02 -9.17267E+02  1.99793E+01 -4.61853E+02  2.37364E+01  2.51843E+02
  9.33107E+02  1.50351E+02 -4.51218E+02  7.76618E+01 -6.96198E+02  1.82137E+02  1.67727E+02 -2.89419E+02
 -8.52107E+01  3.13617E+02  1.72728E+02  4.55644E+02  5.17866E+02  7.08558E+01  3.04798E+02  6.14320E+01
 -1.63089E+02  5.42743E+02  1.36083E+02  1.33006E+02 -9.74934E+02 -3.03156E+02 -1.42982E+02 -7.38846E+02
  6.68207E+01 -7.03925E+02  3.08249E+02  2.43570E+02  1.21420E+03 -9.59360E+02  1.80813E+01  7.88128E+02
  5.91483E+02  2.08197E+02 -2.07762E+02 -4.02789E+01 -1.03540E+02  1.18755E+03  2.10179E+02  6.95362E+01
  2.98404E+02 -1.30062E+02 -4.99052E+02 -3.34453E+02 -5.25788E+02 -1.78258E+02 -6.73476E+02 -2.04622E+02
 -8.30427E+02  6.09582E+02 -3.10233E+02 -8.26289E+02  5.28158E+02 -1.29922E+03  6.24729E+02 -3.64981E+02
  3.00677E+02  4.56201E+02 -6.68643E+02  6.83159E+02 -1.07729E+02  7.04361E+02 -1.21312E+02  1.50778E+02
