 $NMID ID='MM_0lb_SNR400_20hz_g45_22.RAW', FMTDAT='(8E13.5)'
 TRAMP=1., VOLUME=1. $END
  3.10256E+05  4.62704E+02  3.37472E+05  2.50537E+05  8.42475E+04  3.37910E+05 -1.32673E+05  2.49817E+05
 -1.89522E+05  8.16551E+04 -1.10754E+05 -3.26730E+04  1.94029E+03 -5.02964E+04  5.42298E+04  4.64357E+02
  3.47744E+04  5.31058E+04 -1.71900E+04  7.52640E+04 -6.03306E+04  6.22821E+04 -8.22584E+04  3.17327E+04
 -7.87639E+04 -1.12442E+04 -5.62805E+04 -4.93183E+04 -1.53101E+04 -6.77977E+04  2.62905E+04 -4.48211E+04
  3.86166E+04  3.81701E+03  1.59222E+04  4.62677E+04 -3.37707E+04  4.54139E+04 -6.50813E+04 -6.21766E+02
 -5.14529E+04 -5.53386E+04 -6.05413E+03 -7.42338E+04  3.35326E+04 -5.29519E+04  4.54638E+04 -1.58242E+04
  4.07804E+04  1.07196E+04  3.00902E+04  2.34656E+04  1.54217E+04  2.79820E+04 -4.71202E+03  2.65189E+04
 -2.12507E+04  1.30842E+04 -1.93247E+04 -4.08487E+03  3.88301E+03 -7.69977E+03  2.09204E+04  1.04284E+04
  7.29093E+03  3.25331E+04 -2.99039E+04  3.29799E+04 -6.00041E+04  2.39006E+03 -5.49810E+04 -4.05936E+04
 -1.26384E+04 -6.01233E+04  3.72157E+04 -4.26018E+04  5.44757E+04 -1.72499E+03  3.11191E+04  2.97998E+04
 -6.72891E+03  3.20449E+04 -2.80622E+04  1.23347E+04 -2.69930E+04 -6.14234E+03 -1.35325E+04 -9.61072E+03
 -6.68624E+03 -1.08943E+04 -9.36415E+02 -1.61034E+04  6.73587E+03 -2.21832E+04  1.49649E+04 -1.37191E+04
  1.24382E+04  4.17535E+03 -5.61491E+03  1.29710E+04 -1.87439E+04 -2.12697E+03 -8.03468E+03 -2.91097E+04
  2.03654E+04 -3.93175E+04  4.35593E+04 -1.84836E+04  4.11981E+04  1.81912E+04  1.42928E+04  4.07074E+04
 -1.53737E+04  3.11897E+04 -2.28585E+04  8.18177E+02 -7.84670E+03 -2.63553E+04  2.01608E+04 -2.99790E+04
  3.71037E+04 -6.52365E+03  2.97667E+04  2.23396E+04  1.47133E+04  4.07662E+04 -7.66611E+03  4.34426E+04
 -2.72330E+04  2.82485E+04 -3.56544E+04  7.87462E+03 -3.67972E+04 -1.47180E+04 -2.03775E+04 -3.39071E+04
  7.28559E+03 -3.27307E+04  2.82994E+04 -1.20766E+04  2.60046E+04  1.06085E+04  2.57122E+03  1.74193E+04
 -1.28119E+04  6.67715E+03 -9.58880E+03 -7.31276E+03  6.13917E+03 -9.91743E+03  1.67511E+04  6.64786E+03
  1.23541E+04  2.12514E+04 -6.96990E+03  2.29180E+04 -2.11291E+04  8.03537E+03 -2.44136E+04 -7.04461E+03
 -1.52571E+04 -1.57371E+04 -4.65841E+03 -1.57387E+04  3.63003E+03 -1.27580E+04  1.06250E+04 -1.27680E+04
  1.95328E+04 -1.14979E+04  2.66353E+04  5.84162E+02  2.05871E+04  1.49094E+04  4.46482E+03  3.11309E+04
 -1.53090E+04  2.66007E+04 -2.55797E+04  9.10265E+03 -1.91450E+04 -1.02071E+04 -3.84516E+03 -1.41123E+04
  2.72953E+03 -4.16661E+03 -1.64329E+03  4.65798E+03 -1.18930E+04  5.09307E+03 -1.19851E+04 -4.51295E+03
 -8.54847E+03 -1.45236E+04  4.30577E+03 -1.82690E+04  1.14827E+04 -1.28206E+04  1.36183E+04 -1.01417E+03
  8.16831E+03  9.55683E+03 -8.34129E+02  1.44331E+04 -9.34381E+03  8.15836E+03 -1.41494E+04 -3.15381E+03
 -1.11076E+04 -1.27058E+04 -1.22209E+03 -1.79058E+04  8.21722E+03 -1.46646E+04  1.51677E+04 -6.50963E+03
  1.29055E+04  6.98303E+02  9.87702E+03  3.80002E+03  4.31735E+03  2.65197E+02  7.02693E+03 -7.12809E+02
  1.27685E+04  3.28371E+03  1.30406E+04  1.15557E+04  8.32380E+03  2.30047E+04 -3.22457E+03  2.41671E+04
 -1.40890E+04  1.78654E+04 -2.19640E+04  8.92245E+03 -2.20485E+04 -1.53691E+03 -2.00399E+04 -1.23052E+04
 -9.33880E+03 -1.80219E+04  5.95726E+03 -1.75787E+04  1.46880E+04 -1.01708E+04  1.43758E+04  2.95838E+03
  6.16087E+03  1.03943E+04 -7.01662E+03  9.50014E+03 -1.22800E+04  2.63738E+03 -9.93922E+03 -6.96152E+03
 -1.55219E+02 -1.11203E+04  5.24292E+03 -8.62952E+03  6.70758E+03 -1.90360E+03  6.75535E+02  4.25986E+03
 -5.20613E+03  6.36540E+02 -2.97252E+03 -4.60548E+03  1.36852E+03 -9.37031E+03  7.22976E+03 -8.49072E+03
  1.09616E+04 -3.34222E+03  1.02318E+04  2.66326E+03  8.78904E+03  7.90911E+03  4.06737E+03  1.21129E+04
 -7.37090E+02  1.39415E+04 -8.45779E+03  9.11811E+03 -9.49007E+03  2.84331E+03 -7.01468E+03 -1.01215E+03
 -3.84172E+03 -2.61873E+03 -4.92672E+02  1.43205E+03 -2.08240E+03  2.05554E+03 -3.31265E+03  3.37956E+03
 -7.53217E+03 -5.34289E+02 -7.73283E+03 -6.48735E+03 -3.36328E+03 -1.04895E+04  2.74286E+03 -7.57450E+03
  6.51035E+03 -3.35679E+03  5.19066E+03  1.88100E+03  6.90749E+02  2.69323E+03 -2.60230E+03  1.52425E+02
 -2.80568E+03 -4.29397E+03 -6.08099E+02 -6.24403E+03  3.28913E+03 -6.96633E+03  8.12060E+03 -3.65746E+03
  1.02141E+04  2.82039E+02  7.97080E+03  5.17288E+03  1.66720E+03  7.44231E+03 -4.82596E+03  8.02651E+03
 -6.82713E+03  2.40216E+03 -3.33837E+03 -1.10634E+03  1.36528E+03 -2.16962E+03  4.63618E+03 -1.13375E+03
  4.15192E+03  2.89246E+03  1.16545E+03  5.13670E+03 -3.43362E+03  5.92036E+03 -6.77435E+03  1.34939E+03
 -4.71011E+03 -3.17356E+03  1.77985E+02 -5.77676E+03  3.04264E+03 -2.84385E+03  2.57075E+03  1.11306E+03
  4.59696E+02  2.91229E+03 -3.81055E+03  3.77237E+03 -4.10686E+03  2.04862E+03 -3.55984E+03 -1.09110E+03
 -2.03379E+03 -4.48604E+03  8.70644E+02 -5.42022E+03  5.00976E+03 -4.38248E+03  5.02710E+03  9.50878E+02
  4.19164E+03  4.60616E+03  1.53605E+02  6.98069E+03 -4.55041E+03  3.34414E+03 -4.31101E+03 -7.09907E+02
 -5.45064E+03 -4.51169E+03 -1.61660E+03 -4.05860E+03  2.74107E+03 -3.99090E+03  2.16648E+03 -2.87679E+03
  2.73784E+03  2.78541E+02 -2.30218E+02  1.21847E+03  3.14887E+02 -1.87903E+02  1.81843E+02 -8.99988E+02
  3.21235E+03 -4.38702E+02  4.22040E+03  4.98049E+02  4.81716E+03  1.81788E+03  4.66021E+03  6.22688E+03
 -6.83927E+02  6.62870E+03 -6.40483E+03  5.16059E+03 -8.55840E+03  1.64360E+02 -6.44836E+03 -2.05147E+03
 -3.39592E+03 -5.23045E+03 -2.80337E+02 -3.79049E+03  1.73351E+03 -1.91772E+03  1.37631E+03 -2.11059E+03
  9.76499E+02 -5.36802E+02  2.12188E+03 -2.40635E+03  3.55614E+03 -1.37581E+03  3.53471E+03  4.29064E+02
  4.22863E+03  1.09166E+03  4.47395E+02  2.65005E+03 -1.66066E+03  1.75768E+03 -4.13022E+03  2.49618E+03
 -3.92114E+03 -8.51559E+02 -1.09406E+03 -2.63325E+03  4.67718E+02 -4.59350E+03  2.89619E+03 -4.48468E+03
  3.95045E+03 -2.85282E+03  5.51867E+03  4.73737E+02  3.89471E+03  3.42562E+03  1.19082E+03  4.27253E+03
 -1.87201E+03  5.46407E+03 -2.64951E+03  1.74871E+03 -1.61167E+03 -1.29143E+03 -9.11381E+02 -5.81333E+02
 -4.88037E+01  2.66766E+02 -7.81288E+02  1.86931E+03 -2.57061E+03  4.53316E+02 -3.32221E+03 -2.67004E+02
 -1.18471E+03 -3.55159E+03  5.52225E+02 -4.04930E+03  2.06344E+03 -3.58211E+03  2.95634E+03 -7.85974E+02
  3.28278E+03  1.96778E+03  1.66688E+03  2.51131E+03 -1.01832E+03  3.47131E+03 -2.14978E+03  1.88892E+03
 -3.22361E+03  5.89258E+02 -2.82495E+03 -2.24081E+03 -2.84674E+02 -2.66403E+03  7.39681E+02 -2.32840E+03
  1.96290E+03 -1.37160E+03  8.25235E+02  4.71369E+02  2.59107E+02  1.57400E+03  7.71735E+02  1.78708E+02
  1.79510E+03  1.05447E+02  8.45875E+02  1.16166E+03  1.58611E+02  1.74326E+03  1.18433E+03  1.32046E+03
 -1.36211E+03  2.23525E+03 -2.09558E+03  3.72940E+03 -2.10116E+03  1.51258E+03 -2.50302E+03  2.29442E+01
 -1.02347E+03 -2.42907E+03  7.86320E+02 -4.05938E+03  1.19902E+03 -1.41298E+03  1.90969E+03 -1.21315E+03
  1.99277E+03  1.65660E+03 -4.69753E+02  1.56491E+03 -7.82561E+02  9.36058E+02 -3.70045E+02 -3.72950E+02
 -4.71092E+02 -1.09441E+03  1.21486E+03 -8.04086E+02  1.02257E+03 -9.31467E+02  1.47739E+03  5.65298E+02
  6.75800E+02 -2.30583E+02  1.05439E+03 -5.20401E+02  1.48734E+02  4.40109E+02  1.79698E+03 -2.74789E+02
  1.67872E+02 -2.48109E+02  1.59320E+03  7.18170E+02 -3.41574E+02  1.90737E+03 -4.58016E+02  2.45315E+03
 -1.39983E+03  2.16335E+02 -2.00367E+03  9.63235E+01 -2.14250E+03 -6.16576E+02  1.38017E+02 -5.29908E+02
  1.44638E+02 -6.64216E+02  3.62321E+02 -2.45756E+02  3.66796E+02  1.35372E+03 -5.76602E+02  1.01588E+03
 -1.14160E+03  7.27071E+02 -6.24429E+02 -1.43099E+03 -5.82819E+02 -1.62328E+03 -1.56136E+01 -1.39166E+03
  2.76720E+02 -7.68304E+01  7.04693E+02 -3.55173E+01  1.47229E+03 -5.34592E+02  5.52369E+02  6.95132E+02
 -4.88643E+02  7.38859E+01 -8.68099E+02  3.11841E+02  6.06874E+02 -6.80798E+02  1.22709E+03 -7.35716E+02
  3.53401E+02  5.55658E+02  2.12058E+03  6.64612E+02  1.38102E+03  1.38909E+03 -2.32264E+02  1.19840E+03
 -8.89477E+02  1.94304E+02 -9.00682E+02 -1.15300E+02 -9.94195E+02 -1.43722E+03  5.12958E+02 -8.07905E+01
  1.05019E+03 -4.89763E+02  4.09486E+02  8.01967E+02  4.61985E+02  1.21629E+03  3.05475E+02  8.83650E+02
 -1.67598E+02  7.28883E+02  8.88667E+01  3.80410E+02  1.22464E+02  1.23749E+02 -8.69146E+02  4.18748E+02
 -7.71748E+02  1.07393E+03 -1.52329E+03  2.66979E+02 -1.06273E+03  6.43634E+02 -1.76854E+03 -3.95510E+02
 -1.09552E+03 -1.58636E+03  3.30971E+02 -2.49041E+03  4.37236E+02 -1.55281E+03  1.96469E+03 -9.35436E+02
  1.52270E+03 -2.73667E+02  1.10319E+02  9.10122E+02 -6.99752E+02  8.84290E+02 -3.25152E+02  8.39245E+02
 -5.67412E+02  3.40237E+02 -3.49886E+01 -8.59298E+01 -6.99724E+02  3.11456E+02 -2.25867E+02 -1.94167E+02
 -1.36051E+03 -1.98838E+02 -4.09761E+02 -6.78395E+02  4.40355E+02 -3.28823E+02 -5.16692E+02 -4.20492E+02
  7.48420E+02 -6.03555E+02  2.41800E+02  6.37146E+02  1.01156E+03  6.99286E+02 -4.55473E+02  1.08500E+03
 -6.58366E+02  2.20733E+03 -1.87677E+03  1.01385E+03 -1.01699E+03 -6.35027E+02 -1.27967E+03 -1.39522E+03
 -9.11861E+02 -6.78157E+02 -1.83941E+02 -9.36949E+02  4.21461E+02 -7.92753E+02  3.66557E+02  2.18615E+02
  9.18728E+02 -1.82072E+02  1.90892E+02  1.36170E+02 -3.68500E+02 -3.40868E+02 -3.11565E+02 -5.10482E+02
  1.58694E+02  2.35704E+02 -1.15095E+02  1.04805E+03  6.33853E+02  3.75537E+02  8.39221E+02  1.79486E+01
 -4.32274E+02  5.84730E+02 -3.57579E+02  1.99126E+02 -6.77863E+02 -9.45574E+01 -9.61745E+01 -7.27402E+02
 -2.15175E+02 -4.98486E+02  1.51870E+02  7.90964E+01  9.92408E+02 -9.06973E+02  2.69812E+02  4.86674E+02
  6.54087E+02  2.78711E+02 -2.47459E+02  3.68198E+02 -7.32007E+02  5.64914E+02 -4.61770E+01  4.05242E+02
 -1.56283E+02 -3.42898E+02  4.96007E+02  1.01778E+02 -4.67712E+02  2.23345E+02 -9.01873E+02  1.36771E+02
 -4.10098E+02  4.38128E+02 -4.56162E+02 -6.58969E+02  1.65848E+02 -2.12280E+03  1.09219E+03 -8.18732E+02
  7.24890E+02 -2.80203E+02 -9.03246E+02 -8.61253E+02 -1.50940E+02  3.83265E+02 -4.21900E+02  4.07072E+02
