 $NMID ID='MM_0lb_SNR400_15hz_g45_18.RAW', FMTDAT='(8E13.5)'
 TRAMP=1., VOLUME=1. $END
  3.09934E+05  2.09601E+01  3.36948E+05  2.50261E+05  8.44083E+04  3.38124E+05 -1.32572E+05  2.50686E+05
 -1.90029E+05  8.26159E+04 -1.11183E+05 -3.25663E+04  8.68333E+02 -5.08288E+04  5.39016E+04 -1.78782E+02
  3.49420E+04  5.25288E+04 -1.68589E+04  7.53909E+04 -6.10096E+04  6.29545E+04 -8.35185E+04  3.20598E+04
 -8.07931E+04 -1.14254E+04 -5.73735E+04 -5.05122E+04 -1.53739E+04 -6.92382E+04  2.73926E+04 -4.52578E+04
  3.97687E+04  3.88246E+03  1.57847E+04  4.75706E+04 -3.41192E+04  4.71783E+04 -6.63882E+04 -3.80422E+02
 -5.26590E+04 -5.70082E+04 -5.92477E+03 -7.69944E+04  3.35929E+04 -5.42827E+04  4.70668E+04 -1.68275E+04
  4.30586E+04  1.13929E+04  3.10551E+04  2.48096E+04  1.60438E+04  2.89173E+04 -4.62004E+03  2.74113E+04
 -2.15150E+04  1.20603E+04 -1.91185E+04 -4.85272E+03  4.95521E+03 -7.78194E+03  2.14186E+04  1.22875E+04
  7.67143E+03  3.51677E+04 -3.16100E+04  3.51867E+04 -6.32491E+04  1.60791E+03 -5.68115E+04 -4.16099E+04
 -1.29760E+04 -6.21672E+04  3.94614E+04 -4.41229E+04  5.71123E+04 -1.73668E+03  3.34387E+04  3.15118E+04
 -6.27443E+03  3.46963E+04 -2.94832E+04  1.50056E+04 -2.97514E+04 -4.14413E+03 -1.58807E+04 -1.09771E+04
 -8.30766E+03 -1.26710E+04 -1.06125E+03 -1.74324E+04  6.81222E+03 -2.25595E+04  1.53239E+04 -1.35957E+04
  1.16863E+04  5.03147E+03 -7.05980E+03  1.28108E+04 -2.08324E+04 -4.41238E+03 -7.83482E+03 -3.26594E+04
  2.15478E+04 -4.24919E+04  4.74706E+04 -1.96765E+04  4.35247E+04  1.91689E+04  1.51221E+04  4.30853E+04
 -1.56892E+04  3.25798E+04 -2.45545E+04  1.57077E+03 -9.37624E+03 -2.69495E+04  2.10920E+04 -3.32613E+04
  4.03314E+04 -8.79681E+03  3.41146E+04  2.35254E+04  1.76066E+04  4.53199E+04 -7.94015E+03  4.83016E+04
 -3.08396E+04  3.28151E+04 -3.94414E+04  9.33110E+03 -4.10679E+04 -1.62859E+04 -2.23779E+04 -3.68771E+04
  7.51141E+03 -3.65305E+04  3.00718E+04 -1.40710E+04  2.80439E+04  1.07084E+04  3.61402E+03  1.92441E+04
 -1.35175E+04  7.62511E+03 -1.00777E+04 -7.60074E+03  6.10736E+03 -1.00685E+04  1.82167E+04  5.92310E+03
  1.26397E+04  2.16102E+04 -6.10392E+03  2.43680E+04 -2.23077E+04  1.01095E+04 -2.70484E+04 -5.23190E+03
 -1.97578E+04 -1.71964E+04 -7.64158E+03 -2.01327E+04  3.69026E+03 -1.82725E+04  1.47911E+04 -1.69546E+04
  2.46233E+04 -1.23600E+04  3.17148E+04  2.08713E+03  2.25218E+04  1.86584E+04  4.02840E+03  3.52455E+04
 -1.70592E+04  2.91070E+04 -2.72119E+04  9.87041E+03 -2.06838E+04 -1.05166E+04 -4.29484E+03 -1.38488E+04
  1.74931E+03 -3.08347E+03 -4.47212E+03  6.12746E+03 -1.60295E+04  5.28309E+03 -1.51436E+04 -6.36898E+03
 -9.79544E+03 -1.67951E+04  5.10654E+03 -2.18688E+04  1.37898E+04 -1.57213E+04  1.68838E+04 -1.59416E+03
  1.11016E+04  1.20994E+04 -6.01085E+02  1.78798E+04 -1.23298E+04  1.02395E+04 -1.77946E+04 -3.75018E+03
 -1.31359E+04 -1.59676E+04 -1.25030E+03 -2.20291E+04  9.73252E+03 -1.77308E+04  1.80793E+04 -8.32140E+03
  1.66776E+04  1.04112E+02  1.21310E+04  3.87716E+03  6.28695E+03  4.97625E+02  8.29628E+03 -1.49066E+03
  1.64277E+04  2.73575E+03  1.80413E+04  1.49535E+04  1.22137E+04  2.85771E+04 -2.96079E+03  3.21044E+04
 -1.86395E+04  2.53403E+04 -2.95979E+04  1.21118E+04 -3.03961E+04 -2.80220E+03 -2.59163E+04 -1.78674E+04
 -1.13743E+04 -2.51514E+04  7.88821E+03 -2.31854E+04  1.94635E+04 -1.29208E+04  1.77730E+04  5.18758E+03
  6.59112E+03  1.27410E+04 -8.26669E+03  1.17017E+04 -1.52323E+04  2.84120E+03 -1.19542E+04 -9.73114E+03
 -2.82257E+02 -1.41611E+04  6.88977E+03 -1.07988E+04  9.62187E+03 -1.80266E+03  1.63271E+03  6.57239E+03
 -6.97827E+03  1.61591E+03 -5.50348E+03 -5.32730E+03 -5.72504E+02 -1.26993E+04  8.80781E+03 -1.22381E+04
  1.51395E+04 -6.83068E+03  1.59823E+04  2.55809E+03  1.39329E+04  1.17529E+04  6.04994E+03  1.83144E+04
 -2.95174E+03  1.95438E+04 -1.24900E+04  1.28683E+04 -1.46679E+04  3.95336E+03 -1.06625E+04 -3.16678E+03
 -4.88810E+03 -4.30757E+03 -7.10141E+02  1.28523E+03 -2.29439E+03  2.71464E+03 -4.35324E+03  4.79710E+03
 -9.40794E+03 -4.66690E+02 -1.02752E+04 -8.19440E+03 -4.11708E+03 -1.35885E+04  4.49974E+03 -1.06010E+04
  8.44522E+03 -4.30167E+03  6.15890E+03  2.70530E+03  6.43878E+02  3.18912E+03 -4.97766E+03  2.52298E+02
 -4.55002E+03 -6.44431E+03 -1.47375E+03 -9.45625E+03  5.81611E+03 -9.99771E+03  1.29952E+04 -5.06565E+03
  1.46329E+04  9.81916E+02  1.08669E+04  8.29645E+03  2.35653E+03  1.11607E+04 -6.41361E+03  9.96805E+03
 -8.16058E+03  2.86967E+03 -4.03994E+03 -1.85532E+03  6.74016E+02 -2.85623E+03  5.56874E+03 -9.04927E+02
  5.09791E+03  4.40459E+03  9.32256E+02  8.09190E+03 -5.89443E+03  7.77515E+03 -9.62763E+03  1.75420E+03
 -6.15809E+03 -5.51024E+03  2.43852E+02 -8.11742E+03  5.09333E+03 -4.72991E+03  4.80749E+03  1.69387E+03
  1.68267E+03  5.26643E+03 -5.44024E+03  7.03299E+03 -7.39206E+03  3.32008E+03 -7.22851E+03 -2.02790E+03
 -4.37998E+03 -8.04686E+03  2.05990E+03 -9.72048E+03  8.56071E+03 -6.34368E+03  9.43326E+03  1.25570E+03
  5.81263E+03  7.41301E+03 -9.25224E+01  9.18505E+03 -6.89257E+03  5.68451E+03 -7.46379E+03 -1.98749E+02
 -6.58993E+03 -6.59299E+03 -1.73136E+03 -6.73134E+03  3.74046E+03 -5.89237E+03  3.76761E+03 -3.20933E+03
  3.32792E+03 -1.42733E+02 -9.13261E+02  1.95926E+03  7.88001E+01 -1.52118E+03  2.58691E+02 -3.14343E+03
  5.54855E+03 -1.80171E+03  8.61818E+03  1.13149E+03  8.39226E+03  4.52041E+03  6.88998E+03  1.07011E+04
 -2.26932E+03  1.26941E+04 -1.05053E+04  9.35258E+03 -1.39280E+04  1.87294E+03 -1.12178E+04 -4.79359E+03
 -6.42292E+03 -8.99778E+03 -5.72026E+02 -8.30020E+03  2.70139E+03 -4.24136E+03  2.55375E+03 -2.58835E+03
  1.59498E+03 -2.22329E+03  2.71038E+03 -3.10509E+03  4.16429E+03 -2.19751E+03  4.77481E+03  3.46173E+02
  6.08654E+03  1.74712E+03  1.96122E+03  4.45496E+03 -1.66283E+03  5.00824E+03 -6.23491E+03  3.75235E+03
 -7.73571E+03 -1.09358E+03 -3.63512E+03 -4.36297E+03 -4.48094E+02 -7.04701E+03  5.30633E+03 -8.12753E+03
  7.91914E+03 -4.70351E+03  9.98609E+03  6.79359E+02  6.61858E+03  7.12694E+03  1.92400E+03  8.51369E+03
 -3.65801E+03  7.96612E+03 -5.33043E+03  2.83032E+03 -3.02368E+03 -9.87540E+02 -1.13785E+03 -7.54516E+02
 -7.10926E+02  2.89681E+02 -1.24376E+03  2.11385E+03 -3.29576E+03  1.02224E+03 -6.00292E+03 -6.32562E+02
 -2.78993E+03 -5.09913E+03  5.41025E+02 -6.88456E+03  3.97515E+03 -6.50303E+03  6.16330E+03 -1.09979E+03
  6.75659E+03  3.35011E+03  3.35819E+03  5.71092E+03 -1.24387E+03  7.05550E+03 -4.86763E+03  4.39225E+03
 -6.73547E+03  1.73537E+02 -4.87000E+03 -4.30662E+03 -4.91549E+01 -4.81720E+03  2.74312E+03 -3.62245E+03
  3.60042E+03 -1.62738E+03  2.67860E+03  1.11603E+03  1.06907E+03  2.37033E+03  8.06625E+02  8.53307E+02
  1.74824E+03  8.36563E+02  1.52869E+03  1.92071E+03  1.92817E+03  2.77178E+03  2.11819E+03  3.34895E+03
 -1.65002E+03  4.87173E+03 -4.50972E+03  5.85832E+03 -6.11880E+03  1.80923E+03 -7.12201E+03 -2.34405E+03
 -3.25173E+03 -6.34013E+03  6.32614E+02 -7.30720E+03  3.82906E+03 -4.17605E+03  4.72952E+03 -1.11186E+03
  4.22826E+03  2.52394E+03  5.16560E+02  3.52647E+03 -1.21385E+03  1.97954E+03 -2.01814E+03  9.56834E+01
 -1.70713E+03 -2.52649E+03  1.99808E+03 -2.78579E+03  2.36577E+03 -1.19599E+03  2.42302E+03  8.56363E+02
  1.68423E+03  3.92145E+02  1.20095E+03  2.86942E+02 -4.92526E+02  1.15021E+03  1.29360E+03  2.93198E+02
  1.59983E+02 -2.88605E+01  2.48002E+03  1.28116E+03  4.63468E+02  3.35705E+03  4.25071E+01  4.49352E+03
 -2.37482E+03  2.69825E+03 -3.53893E+03  5.35846E+02 -3.30747E+03 -1.71334E+03 -1.38620E+03 -1.60847E+03
  1.13580E+03 -2.23657E+03  1.62687E+03 -9.69688E+02  6.99285E+02  1.77941E+03 -1.01052E+03  1.87191E+03
 -2.94548E+03  8.21565E+02 -3.04355E+03 -1.59827E+03 -1.56973E+03 -3.81017E+03  9.02901E+02 -3.18417E+03
  8.49376E+02 -1.87648E+03  2.20854E+03 -5.80703E+01  1.83959E+03  4.93695E+02  3.05860E+02  1.83315E+03
 -1.51121E+02  4.33120E+02 -1.04071E+03 -1.03452E+03  6.14326E+02 -2.10399E+03  2.63154E+03 -1.33098E+03
  2.87462E+03  3.17804E+02  4.06504E+03  2.25261E+03  1.73377E+03  3.58390E+03 -7.62923E+02  3.39307E+03
 -2.75520E+03  3.67951E+02 -2.96653E+03 -4.92350E+02 -1.90697E+03 -2.47998E+03  1.08867E+03 -1.63151E+03
  2.31717E+03 -2.27356E+02  1.02084E+03  1.12628E+03  4.09161E+02  2.10644E+03  8.83285E+01  1.56140E+03
 -3.53808E+02  1.34713E+03 -4.72922E+02  4.61789E+02  6.44721E+01  2.21568E+02 -8.41455E+01  1.07289E+03
 -1.67364E+03  1.76092E+03 -2.45001E+03  6.88652E+02 -3.80204E+03  4.44832E+02 -4.17716E+03 -1.91971E+03
 -2.02808E+03 -4.14165E+03  9.53836E+02 -4.90626E+03  3.10424E+03 -4.53797E+03  5.51777E+03 -1.58232E+03
  4.59758E+03  5.00363E+02  2.19106E+03  3.38146E+03  3.74342E+01  3.02003E+03 -1.88048E+03  2.77150E+03
 -2.15506E+03  1.24220E+03 -1.38952E+03 -3.40789E+02 -4.20657E+00  2.28527E+02 -4.66837E+02  4.75339E+02
 -1.19469E+03  5.75888E+02 -6.51432E+02  3.53724E+02  5.72829E+02 -1.47110E+03 -1.14230E+02 -1.45016E+03
  1.86879E+03 -1.48311E+03  1.64863E+03  1.22352E+02  2.20083E+03  1.54665E+03 -4.72278E+01  2.90337E+03
 -1.69627E+03  3.78436E+03 -3.92211E+03  2.13639E+03 -4.11318E+03 -2.89953E+02 -2.99038E+03 -2.60948E+03
 -1.49598E+03 -3.42818E+03  4.80998E+02 -2.69731E+03  1.83072E+03 -1.59747E+03  2.10473E+03  2.48613E+02
  1.35499E+03  7.40006E+02  7.60154E+02  4.05896E+02 -1.29413E+03 -3.28078E+02 -9.44538E+01 -4.42737E+02
  1.10004E+03 -3.88217E+02  7.13650E+02  5.16912E+02 -7.86595E+01  8.69248E+02  2.01971E+02  6.50496E+02
 -1.23761E+03  7.66156E+02 -1.61726E+03  7.22319E+01 -1.33764E+03 -1.01105E+03 -9.29517E+01 -2.76219E+03
  1.68043E+03 -2.07685E+03  1.85929E+03 -9.52699E+02  2.38833E+03  3.79193E+02  1.48088E+03  1.74726E+03
  6.82015E+02  1.89646E+03 -5.60300E+02  1.57974E+03 -1.34556E+03  6.64797E+02 -7.41013E+02  3.82958E+02
  2.70265E+02 -1.53975E+02 -4.25671E+02  4.45400E+02 -9.68561E+02  1.35777E+02 -1.68202E+03 -6.10347E+02
 -1.82319E+03 -7.10885E+02 -9.60856E+02 -1.65121E+03  9.94608E+02 -2.44069E+03  1.20831E+03 -5.52456E+02
  1.56153E+03  6.95540E+02  5.95544E+02  1.16178E+03  7.20493E+00  1.95482E+03 -8.77522E+02  1.14030E+03
