 $NMID ID='MM_0lb_SNR400_16hz_g45_13.RAW', FMTDAT='(8E13.5)'
 TRAMP=1., VOLUME=1. $END
  3.09973E+05  5.36208E+02  3.37448E+05  2.49908E+05  8.49084E+04  3.37416E+05 -1.32312E+05  2.50404E+05
 -1.89204E+05  8.30463E+04 -1.12126E+05 -3.29355E+04  1.01374E+03 -5.07042E+04  5.38430E+04 -2.24602E+02
  3.52983E+04  5.28621E+04 -1.68749E+04  7.54058E+04 -6.06807E+04  6.31700E+04 -8.36471E+04  3.19682E+04
 -8.04266E+04 -1.07462E+04 -5.66490E+04 -5.07418E+04 -1.49620E+04 -6.89249E+04  2.69121E+04 -4.56270E+04
  3.93534E+04  4.05323E+03  1.60707E+04  4.72710E+04 -3.42392E+04  4.68550E+04 -6.59410E+04 -2.43519E+02
 -5.29807E+04 -5.64902E+04 -6.62003E+03 -7.57755E+04  3.32146E+04 -5.46159E+04  4.72509E+04 -1.64007E+04
  4.25834E+04  1.10150E+04  3.12394E+04  2.43838E+04  1.52981E+04  2.86643E+04 -5.07991E+03  2.69790E+04
 -2.17802E+04  1.24490E+04 -1.90529E+04 -5.08106E+03  5.00475E+03 -7.90137E+03  2.22148E+04  1.17874E+04
  7.30328E+03  3.41205E+04 -3.07600E+04  3.42108E+04 -6.24699E+04  2.23539E+03 -5.61774E+04 -4.14253E+04
 -1.28735E+04 -6.19724E+04  3.88621E+04 -4.39760E+04  5.65841E+04 -2.40109E+03  3.29570E+04  3.18082E+04
 -6.11958E+03  3.44042E+04 -2.94535E+04  1.43738E+04 -2.93418E+04 -4.51627E+03 -1.54540E+04 -1.04670E+04
 -7.72313E+03 -1.18838E+04 -1.19742E+03 -1.73287E+04  7.25901E+03 -2.25866E+04  1.51383E+04 -1.39436E+04
  1.14880E+04  4.38767E+03 -7.25575E+03  1.36002E+04 -2.01198E+04 -3.26446E+03 -7.91575E+03 -3.15782E+04
  2.19330E+04 -4.12774E+04  4.67419E+04 -1.89390E+04  4.36617E+04  1.86890E+04  1.41835E+04  4.20166E+04
 -1.62690E+04  3.22705E+04 -2.43079E+04  1.45868E+03 -9.03399E+03 -2.70995E+04  2.05232E+04 -3.24981E+04
  3.95421E+04 -8.03210E+03  3.32396E+04  2.24071E+04  1.73314E+04  4.46730E+04 -7.99183E+03  4.79494E+04
 -2.98638E+04  3.11830E+04 -3.91074E+04  8.69561E+03 -4.05456E+04 -1.58331E+04 -2.23994E+04 -3.61589E+04
  6.82449E+03 -3.57091E+04  3.06163E+04 -1.38194E+04  2.79391E+04  1.02791E+04  3.40101E+03  1.80588E+04
 -1.27429E+04  8.39075E+03 -1.01640E+04 -7.85805E+03  6.35675E+03 -9.68092E+03  1.77807E+04  6.06813E+03
  1.32547E+04  2.16077E+04 -6.32859E+03  2.45638E+04 -2.21133E+04  1.03349E+04 -2.70430E+04 -5.60804E+03
 -1.93786E+04 -1.69717E+04 -7.18455E+03 -1.84054E+04  4.16544E+03 -1.65957E+04  1.41599E+04 -1.62119E+04
  2.30040E+04 -1.23022E+04  2.93845E+04  2.01767E+03  2.21462E+04  1.82954E+04  4.37604E+03  3.41458E+04
 -1.65917E+04  2.88172E+04 -2.66358E+04  9.62385E+03 -2.02569E+04 -1.08259E+04 -4.49233E+03 -1.32087E+04
  2.19866E+03 -3.32312E+03 -3.53032E+03  6.06108E+03 -1.46985E+04  5.29806E+03 -1.45195E+04 -6.19681E+03
 -9.48192E+03 -1.72188E+04  4.87762E+03 -2.09428E+04  1.38035E+04 -1.54279E+04  1.62359E+04 -1.45834E+03
  1.00919E+04  1.18394E+04 -1.31966E+03  1.78239E+04 -1.14808E+04  9.41689E+03 -1.69815E+04 -3.45094E+03
 -1.30513E+04 -1.51128E+04 -1.57028E+03 -2.11530E+04  9.75304E+03 -1.71347E+04  1.73699E+04 -7.99150E+03
  1.64571E+04  3.56675E+02  1.18457E+04  3.79928E+03  5.77155E+03  1.13115E+03  8.87618E+03 -1.12577E+03
  1.52064E+04  3.20545E+03  1.65860E+04  1.28447E+04  1.12479E+04  2.74279E+04 -3.45938E+03  2.96922E+04
 -1.78268E+04  2.39985E+04 -2.88367E+04  1.11867E+04 -2.88069E+04 -2.08883E+03 -2.47912E+04 -1.55109E+04
 -1.07621E+04 -2.43092E+04  8.22883E+03 -2.12532E+04  1.91839E+04 -1.21302E+04  1.72761E+04  4.86493E+03
  6.67401E+03  1.27114E+04 -7.62607E+03  1.14755E+04 -1.49440E+04  2.52887E+03 -1.10648E+04 -8.93488E+03
  3.03197E+02 -1.36996E+04  6.90052E+03 -9.89766E+03  8.61740E+03 -1.16541E+03  1.86208E+03  5.70604E+03
 -5.49976E+03  9.84842E+02 -4.30050E+03 -5.44842E+03  1.12209E+02 -1.21352E+04  8.40099E+03 -1.18107E+04
  1.45389E+04 -5.69232E+03  1.50885E+04  2.87771E+03  1.34204E+04  1.11558E+04  6.15035E+03  1.67671E+04
 -2.52539E+03  1.89665E+04 -1.21472E+04  1.17923E+04 -1.27973E+04  3.08034E+03 -9.21673E+03 -2.01758E+03
 -5.27055E+03 -3.19207E+03 -5.28274E+02  1.30763E+03 -1.91518E+03  1.95216E+03 -3.95067E+03  4.04724E+03
 -8.98374E+03 -7.55098E+02 -1.00136E+04 -8.36939E+03 -4.05122E+03 -1.28797E+04  3.75328E+03 -9.07468E+03
  7.92947E+03 -4.28781E+03  5.95325E+03  2.20776E+03  2.02877E+02  3.32731E+03 -4.61919E+03 -1.98187E+02
 -3.98370E+03 -6.38522E+03 -5.76565E+02 -8.37702E+03  4.95313E+03 -9.13724E+03  1.22071E+04 -4.91693E+03
  1.38776E+04  8.48033E+02  1.07640E+04  7.36940E+03  1.90117E+03  1.05136E+04 -5.93374E+03  9.13514E+03
 -7.43941E+03  3.66343E+03 -4.06541E+03 -1.51657E+03  1.79278E+03 -2.33723E+03  5.13284E+03 -3.95099E+02
  4.62082E+03  3.78776E+03  9.54457E+02  7.05515E+03 -5.85955E+03  7.51987E+03 -9.10843E+03  1.96900E+03
 -5.91189E+03 -5.58830E+03  2.50015E+02 -7.95023E+03  4.25761E+03 -4.28233E+03  4.85940E+03  1.50980E+03
  1.04028E+03  4.32692E+03 -4.83122E+03  6.19734E+03 -6.12650E+03  3.13049E+03 -5.99995E+03 -2.23736E+03
 -3.94647E+03 -7.44346E+03  1.44378E+03 -8.89708E+03  7.25570E+03 -6.03880E+03  7.63736E+03  1.16035E+03
  5.63800E+03  6.60703E+03 -5.97743E+02  8.75396E+03 -5.89440E+03  4.99517E+03 -6.48464E+03 -9.51775E+02
 -6.69037E+03 -5.87357E+03 -1.25064E+03 -5.99372E+03  2.80141E+03 -5.50209E+03  4.31811E+03 -2.95802E+03
  2.90351E+03 -6.98346E+01  4.29611E+02  9.47387E+02  5.87756E+02 -9.76396E+02  3.11963E+02 -2.48350E+03
  5.41703E+03 -1.10520E+03  7.79827E+03  6.34714E+02  7.70635E+03  4.59810E+03  5.51404E+03  9.29641E+03
 -1.56621E+03  1.08489E+04 -9.68776E+03  7.71761E+03 -1.30083E+04  1.00090E+03 -9.68779E+03 -3.62001E+03
 -4.80592E+03 -8.68497E+03 -4.39722E+02 -6.80759E+03  3.08929E+03 -2.86839E+03  2.55247E+03 -2.18316E+03
  2.29034E+03 -2.13548E+03  2.33188E+03 -2.62731E+03  4.15227E+03 -2.27908E+03  4.36390E+03 -2.75418E+01
  5.83988E+03  1.67401E+03  1.99521E+03  5.26017E+03 -2.14732E+03  4.04538E+03 -5.75738E+03  3.45656E+03
 -6.49179E+03 -1.01402E+03 -3.47053E+03 -4.60332E+03  7.77819E+02 -6.77462E+03  4.17737E+03 -6.85190E+03
  7.43182E+03 -3.88698E+03  8.68636E+03  2.93160E+00  6.24526E+03  5.90242E+03  9.55451E+02  7.51203E+03
 -2.30540E+03  7.82377E+03 -4.99472E+03  2.88243E+03 -2.69031E+03 -7.29116E+02 -8.44344E+02 -7.72997E+02
 -7.18798E+02  5.88796E+02 -1.30096E+03  2.65704E+03 -2.77820E+03  9.70811E+02 -5.53850E+03 -3.65940E+02
 -2.42604E+03 -5.10738E+03  9.43261E+02 -6.30471E+03  4.00693E+03 -5.41829E+03  5.03176E+03 -1.58734E+03
  5.87255E+03  3.17285E+03  3.11031E+03  4.76075E+03 -1.26603E+03  6.52948E+03 -3.76882E+03  4.25515E+03
 -5.03464E+03  2.22845E+02 -4.64845E+03 -3.50221E+03 -5.09144E+02 -4.47669E+03  2.55042E+03 -3.03935E+03
  4.49552E+03 -1.62373E+03  2.10604E+03  1.16031E+03  6.70934E+02  1.54842E+03  1.18622E+03  5.68290E+02
  1.95624E+03  9.99126E+01  1.46450E+03  9.15601E+02  1.95252E+03  2.18758E+03  1.49671E+03  2.96262E+03
 -1.88273E+03  4.30702E+03 -3.77700E+03  4.71973E+03 -5.24969E+03  1.28229E+03 -6.33619E+03 -1.29803E+03
 -2.71285E+03 -5.34775E+03  8.32393E+02 -6.58939E+03  2.79087E+03 -3.93961E+03  4.50633E+03 -1.09883E+03
  3.69074E+03  2.81970E+03 -6.42047E+01  3.70336E+03 -3.80890E+02  1.93160E+03 -1.76237E+03 -5.73118E+02
 -4.61918E+02 -2.20052E+03  1.40304E+03 -2.31821E+03  1.77139E+03 -1.19873E+03  2.13869E+03  8.79717E+02
  1.20575E+03 -1.06466E+02  1.34371E+03  3.85636E+02  3.87980E+00  4.80733E+02  9.14645E+02 -5.56330E+02
  1.43562E+02 -1.31927E+02  2.20245E+03  7.50344E+01  1.03291E+03  3.26525E+03 -9.94703E+02  4.20694E+03
 -2.21126E+03  2.24068E+03 -3.37119E+03  9.00096E+02 -2.97401E+03 -9.42674E+02 -2.92686E+02 -2.05156E+03
  1.89575E+02 -1.67678E+03  1.16949E+03 -6.29666E+02  1.07862E+03  1.17282E+03 -9.41138E+02  1.22587E+03
 -1.97116E+03  1.23566E+03 -2.07253E+03 -1.12400E+03 -1.14646E+03 -3.22916E+03  2.57455E+02 -2.67849E+03
  1.68756E+03 -1.45919E+03  1.00324E+03 -1.26247E+02  2.08309E+03  5.83900E+02  1.15194E+02  1.65779E+03
 -3.97703E+02  4.02409E+02 -1.62240E+03 -7.01084E+02  7.80570E+02 -1.36850E+03  2.75369E+03 -1.51228E+03
  1.97901E+03  6.10012E+02  3.61684E+03  2.01993E+03  1.27291E+03  2.26532E+03 -1.21714E+03  2.64782E+03
 -2.42808E+03  8.77014E+02 -2.78701E+03 -3.83534E+02 -1.70742E+03 -1.99488E+03 -1.83584E+02 -1.68977E+03
  2.05958E+03 -1.44967E+03  1.38619E+03  6.16546E+02  8.39413E+02  1.30191E+03  1.96023E+02  1.63313E+03
 -7.07209E+02  1.78348E+03  1.26611E+02  3.90795E+02 -1.14186E+02  1.22437E+03 -7.43438E+02  7.40842E+02
 -1.62076E+03  1.53263E+03 -2.31688E+03  7.90708E+02 -3.23312E+03  1.74680E+02 -3.46362E+03 -1.83415E+03
 -1.59648E+03 -3.55909E+03  3.67979E+02 -4.11464E+03  2.07583E+03 -3.87721E+03  4.76342E+03 -1.92104E+03
  4.07145E+03  5.62731E+02  1.82719E+03  2.17666E+03 -8.20473E+02  2.50728E+03 -1.55113E+03  2.08585E+03
 -1.87967E+03  9.23134E+02 -1.64855E+03 -7.84837E+02 -4.08190E+02  5.57242E+02 -5.49514E+02  8.29060E+02
 -1.15391E+03 -1.99954E+02 -1.25441E+03 -2.55807E+02 -1.74811E+02 -7.54491E+02 -3.92701E+02 -1.31365E+03
  1.43095E+03 -8.94597E+02  1.18734E+03  2.49211E+02  1.85120E+03  8.34634E+02  1.46211E+02  2.66468E+03
 -1.51940E+03  2.82401E+03 -2.37858E+03  2.03352E+03 -3.42977E+03 -3.44360E+02 -1.96656E+03 -1.33910E+03
 -1.69607E+03 -2.61920E+03  9.87008E+02 -2.63704E+03  1.13905E+03 -7.57251E+01  1.67700E+03  3.08818E+02
  9.52559E+02  1.05601E+03  3.98512E+02  6.84380E+02 -4.45129E+02  2.50269E+02  1.81769E+02 -5.60574E+02
  3.56393E+02  1.67649E+02  1.01450E+03  4.50777E+02  8.18458E+02  1.41210E+03  5.38149E+02  1.25365E+03
 -1.13698E+03  1.07244E+03 -1.26858E+03  3.09291E+02 -1.64596E+03 -7.26707E+02  1.14116E+02 -2.11251E+03
  1.05019E+03 -1.33027E+03  1.19187E+03 -7.56232E+02  2.15405E+03 -2.60486E+02  7.18763E+02  1.77033E+03
  4.79859E+02  1.36302E+03 -5.58556E+02  1.22728E+03 -1.22939E+03  9.24714E+02 -7.94068E+02 -4.10383E+01
 -2.24153E+02 -4.12517E+02 -6.96164E+02  2.54698E+02 -9.79854E+02  5.45156E+02 -9.42766E+02 -4.53940E+02
 -1.58464E+03 -2.88678E+02 -9.53188E+02 -1.62170E+03  5.00344E+02 -2.49901E+03  1.25738E+03 -6.87001E+02
  1.43635E+03  8.01813E+02  1.00885E+02  8.14961E+02 -3.75316E+02  1.42355E+03 -7.95847E+02  7.53028E+02
