 $NMID ID='MM_0lb_SNR400_18hz_g50_69.RAW', FMTDAT='(8E13.5)'
 TRAMP=1., VOLUME=1. $END
  3.10006E+05 -7.92107E+01  3.37038E+05  2.50486E+05  8.45073E+04  3.37283E+05 -1.32967E+05  2.50227E+05
 -1.89623E+05  8.29880E+04 -1.11133E+05 -3.28678E+04  1.28843E+03 -5.02116E+04  5.39091E+04 -3.80567E+01
  3.53766E+04  5.26336E+04 -1.65413E+04  7.47824E+04 -5.96475E+04  6.30152E+04 -8.28600E+04  3.19804E+04
 -8.02010E+04 -1.08249E+04 -5.66934E+04 -5.02798E+04 -1.47887E+04 -6.89892E+04  2.68630E+04 -4.50235E+04
  3.95841E+04  3.68163E+03  1.56829E+04  4.74794E+04 -3.41656E+04  4.66412E+04 -6.57322E+04 -3.06611E+02
 -5.20520E+04 -5.61615E+04 -6.68581E+03 -7.56170E+04  3.35875E+04 -5.38991E+04  4.69608E+04 -1.66674E+04
  4.20769E+04  1.14724E+04  3.09369E+04  2.42719E+04  1.55866E+04  2.86038E+04 -4.42543E+03  2.67715E+04
 -2.17156E+04  1.23083E+04 -1.94458E+04 -4.41186E+03  4.85953E+03 -7.52943E+03  2.16499E+04  1.10952E+04
  7.38102E+03  3.36319E+04 -3.12168E+04  3.41732E+04 -6.16360E+04  1.66380E+03 -5.60405E+04 -4.16209E+04
 -1.22846E+04 -6.16215E+04  3.86734E+04 -4.38281E+04  5.66574E+04 -2.17610E+03  3.19345E+04  3.07457E+04
 -7.18384E+03  3.33867E+04 -2.84052E+04  1.35988E+04 -2.81445E+04 -5.51698E+03 -1.50134E+04 -1.00602E+04
 -7.43343E+03 -1.12977E+04 -1.13151E+03 -1.65786E+04  7.04404E+03 -2.31851E+04  1.49697E+04 -1.36055E+04
  1.21949E+04  4.65314E+03 -7.07464E+03  1.29652E+04 -1.96346E+04 -3.21246E+03 -7.85042E+03 -3.12678E+04
  2.10268E+04 -4.12543E+04  4.50261E+04 -1.84930E+04  4.24940E+04  1.82394E+04  1.43470E+04  4.18258E+04
 -1.51532E+04  3.12334E+04 -2.32500E+04  1.36410E+03 -8.59623E+03 -2.63426E+04  2.09316E+04 -3.18055E+04
  3.92840E+04 -7.81114E+03  3.22822E+04  2.27553E+04  1.60216E+04  4.26773E+04 -7.64457E+03  4.58170E+04
 -2.91913E+04  3.08982E+04 -3.79335E+04  8.87150E+03 -3.86955E+04 -1.51242E+04 -2.22050E+04 -3.49167E+04
  6.47243E+03 -3.48665E+04  2.92609E+04 -1.32607E+04  2.71652E+04  1.09372E+04  3.88292E+03  1.80904E+04
 -1.34678E+04  7.39468E+03 -9.34766E+03 -7.77220E+03  6.09739E+03 -1.03938E+04  1.73632E+04  6.52445E+03
  1.30196E+04  2.19848E+04 -6.61992E+03  2.39258E+04 -2.13023E+04  9.54726E+03 -2.57057E+04 -6.18084E+03
 -1.78591E+04 -1.65500E+04 -6.39208E+03 -1.73252E+04  4.06632E+03 -1.56016E+04  1.31629E+04 -1.48663E+04
  2.25612E+04 -1.20176E+04  2.93454E+04  1.10308E+03  2.14462E+04  1.67721E+04  3.94635E+03  3.35756E+04
 -1.64209E+04  2.80416E+04 -2.57266E+04  9.46975E+03 -2.01823E+04 -1.03943E+04 -3.84643E+03 -1.37479E+04
  2.84385E+03 -3.53808E+03 -3.02297E+03  5.95226E+03 -1.36257E+04  4.89587E+03 -1.41920E+04 -5.85741E+03
 -8.27503E+03 -1.61790E+04  4.83976E+03 -1.99537E+04  1.29275E+04 -1.47454E+04  1.49684E+04 -1.39759E+03
  9.22202E+03  1.09883E+04 -6.59826E+02  1.62563E+04 -1.04407E+04  9.42091E+03 -1.62491E+04 -3.56932E+03
 -1.19992E+04 -1.43949E+04 -1.54425E+03 -2.02778E+04  9.20210E+03 -1.56616E+04  1.65632E+04 -7.68892E+03
  1.46899E+04  3.02243E+02  1.10618E+04  4.11495E+03  5.66455E+03  6.59746E+02  7.93509E+03 -1.50248E+03
  1.46418E+04  2.51523E+03  1.58014E+04  1.32025E+04  9.53719E+03  2.53692E+04 -3.17574E+03  2.81759E+04
 -1.63414E+04  2.15427E+04 -2.56777E+04  9.88673E+03 -2.63237E+04 -2.00228E+03 -2.22480E+04 -1.49573E+04
 -1.03262E+04 -2.15748E+04  6.98916E+03 -2.00980E+04  1.73415E+04 -1.09102E+04  1.60371E+04  4.19644E+03
  7.09965E+03  1.13494E+04 -7.68687E+03  1.06050E+04 -1.42151E+04  2.36764E+03 -1.04684E+04 -7.54496E+03
 -4.98719E+02 -1.33472E+04  6.48004E+03 -9.81243E+03  8.28934E+03 -1.09309E+03  1.75937E+03  5.54989E+03
 -5.94136E+03  1.19516E+03 -4.26522E+03 -4.30276E+03  5.16616E+02 -1.04440E+04  8.55875E+03 -1.06408E+04
  1.29684E+04 -5.55102E+03  1.27817E+04  2.83626E+03  1.10364E+04  1.00839E+04  5.54174E+03  1.57122E+04
 -2.41793E+03  1.72777E+04 -1.02533E+04  1.09295E+04 -1.15768E+04  3.29277E+03 -8.63004E+03 -2.01794E+03
 -5.04092E+03 -3.37269E+03 -3.64801E+02  1.63299E+03 -1.83500E+03  2.11712E+03 -3.84751E+03  3.81167E+03
 -8.46352E+03 -1.13041E+01 -9.24057E+03 -6.94343E+03 -3.88657E+03 -1.22961E+04  3.82971E+03 -9.24590E+03
  6.97263E+03 -4.29593E+03  5.65962E+03  2.26923E+03  5.04652E+02  2.96448E+03 -3.55850E+03 -1.66031E+02
 -3.78588E+03 -5.50567E+03 -1.21997E+03 -7.63316E+03  3.81276E+03 -9.07214E+03  1.03164E+04 -4.23971E+03
  1.24930E+04  1.13112E+03  9.29286E+03  6.74193E+03  1.91388E+03  9.19167E+03 -5.25151E+03  8.47321E+03
 -7.16870E+03  2.65639E+03 -3.62902E+03 -1.47858E+03  1.20117E+03 -1.89780E+03  4.69045E+03 -7.65275E+02
  4.17826E+03  3.66500E+03  8.16753E+02  6.53325E+03 -3.86172E+03  6.79522E+03 -8.09671E+03  1.28293E+03
 -4.86453E+03 -3.73612E+03  8.15492E+02 -7.08930E+03  3.83034E+03 -3.53459E+03  3.53317E+03  9.13498E+02
  7.57648E+02  3.68732E+03 -3.85194E+03  4.54412E+03 -5.02455E+03  3.07246E+03 -4.99574E+03 -1.51361E+03
 -2.91633E+03 -6.47286E+03  7.40428E+02 -7.87069E+03  5.57315E+03 -4.74360E+03  7.04169E+03  6.84947E+02
  4.92214E+03  5.44977E+03 -4.27611E+00  7.82186E+03 -4.82076E+03  4.10992E+03 -5.35685E+03 -1.02261E+02
 -6.37438E+03 -5.22828E+03 -1.57169E+03 -5.39435E+03  3.13661E+03 -4.87640E+03  3.42777E+03 -3.12919E+03
  3.10151E+03  3.34645E+02 -1.57258E+02  1.05587E+03 -4.82783E+00 -5.29231E+02 -1.42845E+01 -2.12843E+03
  4.11401E+03 -1.07834E+03  5.88401E+03  7.31139E+02  5.78845E+03  3.06823E+03  5.45822E+03  8.20909E+03
 -1.27956E+03  8.85113E+03 -7.93864E+03  6.81554E+03 -1.00617E+04  1.03209E+03 -8.51371E+03 -3.32204E+03
 -4.28047E+03 -6.82992E+03 -6.66837E+02 -5.90977E+03  2.17864E+03 -2.56107E+03  2.22479E+03 -2.03804E+03
  1.66026E+03 -1.67275E+03  2.61324E+03 -2.57218E+03  3.31536E+03 -7.10927E+02  3.70515E+03  3.36938E+02
  4.39951E+03  8.70812E+02  1.58145E+03  3.95387E+03 -1.32607E+03  3.41662E+03 -4.52715E+03  3.14093E+03
 -5.33111E+03 -9.88283E+02 -2.10775E+03 -3.86976E+03  5.67174E+02 -4.97960E+03  3.42218E+03 -5.66849E+03
  5.64893E+03 -3.14227E+03  6.85013E+03  3.33557E+02  5.25241E+03  4.04132E+03  9.30216E+02  6.05271E+03
 -2.89925E+03  6.14492E+03 -3.31464E+03  1.96535E+03 -2.00884E+03 -1.34471E+03 -6.26810E+02 -4.30459E+02
 -7.05112E+02  5.28797E+02 -6.27061E+02  2.33830E+03 -3.06539E+03  1.35178E+03 -4.08777E+03 -8.52512E+02
 -1.86251E+03 -4.28628E+03  1.23512E+03 -5.18710E+03  3.03897E+03 -4.36047E+03  4.02095E+03 -1.09723E+03
  4.24545E+03  2.51255E+03  1.83101E+03  3.78225E+03 -1.49284E+03  4.66155E+03 -3.08939E+03  3.04066E+03
 -3.99239E+03  3.90061E+02 -3.75308E+03 -2.71114E+03 -3.19524E+02 -4.06561E+03  1.84244E+03 -3.23075E+03
  2.65420E+03 -1.49907E+03  2.18702E+03  9.64545E+02  1.21207E+03  1.80088E+03  7.99005E+02  2.65946E+02
  1.74508E+03  2.89057E+02  1.83387E+03  1.17868E+03  5.68492E+02  2.28481E+03  1.42704E+03  2.05591E+03
 -1.37814E+03  3.01168E+03 -2.61478E+03  4.23573E+03 -3.31495E+03  1.25180E+03 -5.14113E+03 -5.54726E+02
 -1.83293E+03 -4.25644E+03  9.77257E+02 -4.61280E+03  2.46472E+03 -2.92632E+03  3.31802E+03 -7.93246E+02
  2.20927E+03  1.94380E+03  4.58899E+02  2.42063E+03 -6.39547E+02  1.72991E+03 -1.04977E+03 -4.15976E+02
 -5.46483E+02 -1.45919E+03  1.00820E+03 -1.63682E+03  1.21074E+03 -1.10731E+03  9.38447E+02  5.07797E+02
  7.87475E+02  3.83803E+02  1.39021E+03 -2.24199E+02 -6.39113E+01  1.10954E+03  1.76447E+03 -5.03651E+02
 -2.74102E+02 -4.23748E+02  2.32545E+03  9.23207E+02 -2.05063E+02  2.93081E+03 -5.61899E+02  3.43478E+03
 -1.74380E+03  1.64262E+03 -2.25907E+03  3.60210E+01 -2.48702E+03 -3.75356E+02 -4.81379E+02 -9.44802E+02
  8.17364E+02 -1.99054E+03  1.30861E+03 -7.18465E+02  8.18340E+02  1.33202E+03 -9.18298E+02  1.56329E+03
 -1.87525E+03  9.71064E+02 -7.75085E+02 -1.50750E+03 -1.19815E+03 -2.04997E+03  4.30736E+02 -2.02672E+03
  7.15075E+02 -3.80071E+02  1.02307E+03  1.34473E+02  1.35871E+03 -5.00546E+02  1.64981E+02  8.01368E+02
 -1.35482E+02  2.36454E+02 -1.60205E+03 -3.99052E+02  7.93429E+02 -4.83636E+02  1.02791E+03 -1.14826E+03
  1.61754E+03  2.16211E+02  2.64849E+03  5.29963E+02  1.08366E+03  2.18288E+03 -4.51282E+02  1.67235E+03
 -1.46877E+03  3.34587E+02 -1.56220E+03 -2.06023E+02 -9.89692E+02 -1.13740E+03  4.50817E+02 -9.18730E+02
  1.33892E+03 -9.17909E+02  1.36949E+03  2.23579E+02  1.90050E+02  1.61956E+03  6.10101E+02  9.63191E+02
 -5.49075E+01  7.58656E+02  4.44235E+01  4.21389E+02 -1.23487E+02 -2.00218E+02 -3.99648E+02  1.20249E+03
 -6.52123E+02  3.79268E+02 -2.36722E+03  3.37862E+02 -2.00593E+03  4.48088E+02 -2.56654E+03 -7.98716E+02
 -1.17461E+03 -2.42785E+03 -1.44151E+02 -2.98367E+03  8.10168E+02 -2.29180E+03  2.93740E+03 -9.47663E+02
  2.63014E+03  3.19240E+02  8.97325E+02  2.12813E+03 -6.84502E+02  1.38905E+03 -6.54161E+02  1.58772E+03
 -9.59443E+02  7.02214E+02 -3.31140E+02 -3.91766E+02 -7.74643E+02  3.57688E+02 -6.82973E+02  9.20535E+01
 -7.86293E+02 -2.78700E+02 -1.31289E+03  5.06591E+02  1.44578E+02 -4.56294E+02 -5.50915E+01 -7.74242E+02
  5.89842E+02 -1.09964E+03  5.30278E+02  3.11518E+02  1.37991E+03  1.64576E+03 -1.28584E+02  7.94203E+02
 -1.60814E+03  2.55867E+03 -1.30067E+03  8.98299E+02 -2.10640E+03  2.32264E+01 -1.17582E+03 -1.80492E+03
 -7.55322E+02 -9.25936E+02  5.85377E+02 -1.32888E+03  7.53525E+02 -2.07402E+02  1.46248E+03  1.35861E+01
  4.76990E+02  6.45033E+02 -3.32048E+02  1.42401E+02 -8.28512E+02  2.89861E+02  4.45323E+02 -9.41169E+01
  5.06384E+02  2.18704E+02  7.69173E+02  4.33556E+02  2.85938E+02  7.58783E+02  2.13232E+02  6.94290E+02
 -9.34002E+02  1.13544E+03 -8.92850E+02 -6.74762E+02 -1.19274E+03 -7.09899E+02 -3.14868E+02 -1.29267E+03
  1.85326E+02 -6.78900E+02  7.12782E+02 -2.29676E+01  1.55094E+03 -3.31036E+02  4.38424E+02  7.62991E+02
  1.19937E+02  7.98555E+02  3.89442E+02  3.12142E+02 -8.50003E+02  6.60439E+02  2.63429E+01  6.67144E+01
 -3.51423E+02 -3.41580E+02 -3.92089E+02  6.18097E+01 -8.98052E+02  7.56020E+02 -6.99358E+02 -1.17035E+02
 -1.26555E+03  2.79453E+02 -5.38544E+02 -1.32642E+03  7.09039E+02 -1.17845E+03  1.19560E+03 -4.44798E+02
  4.74117E+02  1.51994E+01 -2.00553E+02  4.33025E+02 -3.39005E+02  8.19610E+02 -2.69054E+02  6.41956E+02
