 $NMID ID='MM_0lb_SNR400_8hz_g55_23.RAW', FMTDAT='(8E13.5)'
 TRAMP=1., VOLUME=1. $END
  3.10227E+05  6.15715E+02  3.37663E+05  2.50919E+05  8.44616E+04  3.38503E+05 -1.32527E+05  2.51897E+05
 -1.92008E+05  8.38852E+04 -1.12754E+05 -3.28262E+04  1.60813E+02 -5.05055E+04  5.34765E+04 -7.00344E+02
  3.51638E+04  5.32399E+04 -1.66106E+04  7.57597E+04 -6.16972E+04  6.49567E+04 -8.66257E+04  3.30498E+04
 -8.26431E+04 -1.22898E+04 -5.78853E+04 -5.29249E+04 -1.48185E+04 -7.19701E+04  2.85967E+04 -4.75100E+04
  4.14280E+04  3.52109E+03  1.60363E+04  4.84051E+04 -3.46230E+04  4.94010E+04 -6.90689E+04  4.71475E+02
 -5.54236E+04 -5.75784E+04 -7.93233E+03 -7.96832E+04  3.57071E+04 -5.76850E+04  5.07181E+04 -1.90544E+04
  4.51419E+04  1.12316E+04  3.40594E+04  2.62296E+04  1.58005E+04  3.06889E+04 -6.51893E+03  2.80768E+04
 -2.24112E+04  1.25774E+04 -1.73405E+04 -6.06564E+03  7.19366E+03 -7.97650E+03  2.39294E+04  1.46483E+04
  7.70773E+03  3.79223E+04 -3.47676E+04  3.80104E+04 -6.60780E+04  2.37440E+03 -5.94424E+04 -4.49303E+04
 -1.23979E+04 -6.60769E+04  4.15985E+04 -4.81526E+04  6.18208E+04 -3.27728E+03  3.83999E+04  3.46586E+04
 -5.99131E+03  4.05854E+04 -3.31831E+04  2.00016E+04 -3.53711E+04 -3.00682E+03 -2.04150E+04 -1.13656E+04
 -9.96646E+03 -1.46506E+04 -4.42152E+02 -2.07848E+04  9.39506E+03 -2.44651E+04  1.56533E+04 -1.26305E+04
  9.83098E+03  6.26666E+03 -1.13351E+04  1.29683E+04 -2.40370E+04 -7.65709E+03 -7.84229E+03 -3.88866E+04
  2.54456E+04 -4.68256E+04  5.35761E+04 -2.18835E+04  4.96883E+04  2.13105E+04  1.85729E+04  4.79085E+04
 -1.75494E+04  3.72633E+04 -2.90199E+04  3.15217E+03 -1.23286E+04 -3.03589E+04  2.17425E+04 -3.79451E+04
  4.56664E+04 -1.11884E+04  4.18884E+04  2.57145E+04  2.21503E+04  5.23488E+04 -8.04924E+03  5.78639E+04
 -3.59849E+04  3.95540E+04 -5.00932E+04  1.15823E+04 -4.89072E+04 -1.87901E+04 -2.73728E+04 -4.39451E+04
  7.25068E+03 -4.35111E+04  3.42842E+04 -1.81339E+04  3.25312E+04  1.15670E+04  5.40731E+03  2.17919E+04
 -1.39058E+04  9.62633E+03 -1.10558E+04 -7.64647E+03  4.57651E+03 -1.20202E+04  1.96433E+04  5.07363E+03
  1.54632E+04  2.29614E+04 -4.72453E+03  2.82098E+04 -2.39378E+04  1.55818E+04 -3.28924E+04 -2.07675E+03
 -2.66887E+04 -1.89593E+04 -1.27383E+04 -2.59910E+04  4.97973E+03 -2.68463E+04  2.11315E+04 -2.52991E+04
  3.30317E+04 -1.54385E+04  3.93633E+04  5.76376E+03  2.77980E+04  2.58736E+04  4.70658E+03  4.34483E+04
 -2.00607E+04  3.46992E+04 -3.11967E+04  1.30446E+04 -2.38092E+04 -1.10377E+04 -5.03818E+03 -1.19699E+04
  1.15773E+03 -7.32706E+02 -8.23912E+03  8.57750E+03 -2.15875E+04  5.36788E+03 -2.14179E+04 -1.05987E+04
 -1.41819E+04 -2.43849E+04  5.31209E+03 -2.99101E+04  1.93966E+04 -2.07139E+04  2.38941E+04 -1.96924E+03
  1.51184E+04  1.74267E+04 -1.36615E+03  2.43542E+04 -1.79937E+04  1.45153E+04 -2.47806E+04 -6.55921E+03
 -1.73682E+04 -2.21580E+04 -3.95367E+03 -2.96749E+04  1.31873E+04 -2.44939E+04  2.42716E+04 -1.21956E+04
  2.28832E+04 -3.88973E+02  1.71347E+04  5.53684E+03  9.59243E+03  1.11808E+03  1.29309E+04 -1.75572E+03
  2.46463E+04  3.57369E+03  2.69430E+04  1.84687E+04  1.84213E+04  3.98285E+04 -2.32999E+03  4.67997E+04
 -2.66811E+04  3.96084E+04 -4.57413E+04  2.06590E+04 -4.96164E+04 -2.53042E+03 -3.89978E+04 -2.84880E+04
 -1.50947E+04 -4.03353E+04  1.47870E+04 -3.49927E+04  2.90217E+04 -1.63349E+04  2.61720E+04  8.44571E+03
  8.17908E+03  2.04837E+04 -1.21538E+04  1.75397E+04 -2.20661E+04  2.64653E+03 -1.61704E+04 -1.39926E+04
 -8.07391E+02 -1.97560E+04  1.12762E+04 -1.58283E+04  1.47769E+04 -1.45813E+03  3.96222E+03  9.64370E+03
 -9.42331E+03  3.45183E+03 -1.07001E+04 -7.83224E+03 -2.27865E+03 -2.02978E+04  1.19814E+04 -2.13644E+04
  2.53363E+04 -1.22642E+04  2.85147E+04  4.27790E+03  2.63383E+04  1.93826E+04  1.25443E+04  3.18809E+04
 -7.06610E+03  3.43834E+04 -2.30488E+04  2.12212E+04 -2.48466E+04  4.90426E+03 -1.67253E+04 -6.48990E+03
 -6.60859E+03 -8.54105E+03 -1.03982E+03  5.28944E+02 -2.63606E+03  4.38341E+03 -7.94856E+03  6.58342E+03
 -1.51845E+04 -8.89145E+02 -1.59368E+04 -1.30839E+04 -6.52194E+03 -2.13868E+04  6.80266E+03 -1.67626E+04
  1.46643E+04 -6.99243E+03  1.03973E+04  4.89511E+03 -1.54069E+03  6.41876E+03 -9.27307E+03 -3.08086E+02
 -7.59866E+03 -1.12694E+04 -9.79117E+02 -1.71751E+04  1.10834E+04 -1.89749E+04  2.11964E+04 -9.96351E+03
  2.58295E+04  2.95960E+03  1.91295E+04  1.63723E+04  3.73904E+03  2.13568E+04 -1.07093E+04  1.71212E+04
 -1.37304E+04  5.03264E+03 -7.59958E+03 -4.38553E+03  1.96565E+03 -4.64756E+03  9.64013E+03 -5.99722E+02
  7.73426E+03  7.23839E+03  1.72016E+03  1.37548E+04 -9.65368E+03  1.33470E+04 -1.68520E+04  3.55155E+03
 -1.22194E+04 -8.66417E+03  3.30331E+01 -1.48571E+04  9.80076E+03 -7.12156E+03  1.07200E+04  3.92055E+03
  2.07631E+03  1.05367E+04 -8.70994E+03  1.29050E+04 -1.48434E+04  6.05681E+03 -1.57883E+04 -6.06893E+03
 -8.35551E+03 -1.82576E+04  4.99676E+03 -2.11333E+04  1.76324E+04 -1.26070E+04  1.93275E+04  3.48173E+03
  1.13920E+04  1.58425E+04 -3.32140E+03  1.68246E+04 -1.34832E+04  9.73012E+03 -1.37970E+04 -2.24509E+03
 -1.22680E+04 -1.21394E+04 -2.35013E+03 -1.35576E+04  6.86743E+03 -1.03553E+04  9.19675E+03 -3.99835E+03
  5.86657E+03  2.05631E+03 -1.45315E+03  2.06897E+03 -1.34722E+03 -4.02968E+03  3.32735E+03 -8.89951E+03
  1.31725E+04 -5.98736E+03  1.90899E+04  2.12813E+03  1.78231E+04  1.22084E+04  1.18370E+04  2.30897E+04
 -5.04957E+03  2.69731E+04 -2.22373E+04  1.96481E+04 -2.84589E+04  3.38366E+03 -2.34545E+04 -1.09016E+04
 -1.18662E+04 -1.84421E+04 -3.87854E+02 -1.69558E+04  5.51362E+03 -9.63745E+03  6.16602E+03 -5.39596E+03
  5.01673E+03 -3.36770E+03  3.48051E+03 -4.87001E+03  6.58227E+03 -3.44212E+03  8.17557E+03 -2.80737E+03
  1.16714E+04  4.32034E+03  6.71315E+03  1.11740E+04 -2.69625E+03  1.24340E+04 -1.31030E+04  9.98656E+03
 -1.75877E+04 -1.86503E+03 -1.15672E+04 -1.22504E+04 -3.00381E+03 -1.87426E+04  9.05702E+03 -1.77838E+04
  1.90216E+04 -9.89116E+03  2.23961E+04  2.45573E+03  1.52088E+04  1.57139E+04  1.55906E+03  2.03125E+04
 -8.58908E+03  1.63296E+04 -1.15688E+04  5.40210E+03 -7.92271E+03 -1.42217E+03 -3.96547E+03 -1.93230E+03
 -1.81966E+03 -3.26709E+02 -2.50761E+03  3.45946E+03 -7.03030E+03  2.40053E+03 -1.13447E+04 -1.38705E+03
 -8.02600E+03 -1.22526E+04 -5.63457E+02 -1.65639E+04  1.01372E+04 -1.62593E+04  1.72377E+04 -5.11153E+03
  1.72403E+04  8.75707E+03  8.05763E+03  1.50287E+04 -3.17951E+03  1.70004E+04 -1.21591E+04  1.03903E+04
 -1.56466E+04  1.37339E+02 -1.27840E+04 -1.06176E+04 -1.68803E+03 -1.46895E+04  7.37462E+03 -1.06939E+04
  1.11624E+04 -3.26982E+03  7.89644E+03  3.08182E+03  2.49981E+03  4.66084E+03  2.48628E+03  2.67881E+03
  3.46912E+03  2.20490E+03  4.50503E+03  1.37874E+03  5.14719E+03  6.09414E+03  4.72199E+03  9.33503E+03
 -4.05669E+03  1.44718E+04 -1.24886E+04  1.42282E+04 -1.86813E+04  3.78520E+03 -1.92202E+04 -7.70054E+03
 -9.44277E+03 -1.81091E+04  2.66499E+03 -1.90629E+04  9.86253E+03 -1.32119E+04  1.53791E+04 -3.64056E+03
  1.18090E+04  6.31152E+03  2.44968E+03  1.01164E+04 -4.97634E+03  6.02982E+03 -7.40719E+03 -1.68903E+03
 -3.65789E+03 -7.17688E+03  3.53821E+03 -8.84599E+03  8.23768E+03 -3.93838E+03  7.57444E+03  1.52179E+03
  4.84873E+03  3.42838E+03  2.24973E+03  3.24592E+03 -1.18451E+03  1.79608E+03  1.73955E+03 -1.05045E+03
  3.15912E+03 -9.38394E+02  6.67487E+03  2.78173E+03  4.57932E+03  9.35690E+03 -1.46300E+03  1.25343E+04
 -9.32065E+03  8.49639E+03 -1.18978E+04  2.33473E+03 -1.02393E+04 -4.89629E+03 -3.54812E+03 -6.97438E+03
  8.60544E+02 -7.91414E+03  4.72316E+03 -3.41057E+03  3.22059E+03  3.65704E+03 -1.96847E+03  5.53423E+03
 -7.72384E+03  3.91098E+03 -9.01957E+03 -4.42183E+03 -5.21619E+03 -1.05846E+04  1.74286E+03 -1.07789E+04
  6.81406E+03 -5.76889E+03  7.90927E+03 -1.06566E+03  5.76292E+03  3.47426E+03  5.93776E+02  5.89296E+03
 -3.67045E+03  1.85314E+03 -3.67290E+03 -4.38817E+03  1.41671E+03 -7.88969E+03  8.46262E+03 -6.07345E+03
  1.23986E+04  5.99390E+02  1.16280E+04  8.82891E+03  3.23985E+03  1.30782E+04 -4.58304E+03  1.18149E+04
 -1.04340E+04  4.58311E+03 -9.91006E+03 -2.29060E+03 -5.91003E+03 -7.61390E+03  1.82214E+03 -7.70889E+03
  7.78601E+03 -2.90944E+03  6.34498E+03  3.32131E+03  1.09197E+03  6.39348E+03 -1.31788E+03  5.40907E+03
 -3.36777E+03  3.37383E+03 -3.43459E+03  8.86810E+02 -1.81026E+03  1.36501E+03 -2.17925E+03  2.32743E+03
 -2.87181E+03  4.72943E+03 -7.90173E+03  4.82304E+03 -1.22627E+04 -1.48329E+02 -1.33065E+04 -7.80984E+03
 -7.07405E+03 -1.68764E+04  2.20933E+03 -1.94361E+04  1.19753E+04 -1.39974E+04  1.78296E+04 -4.87766E+03
  1.68521E+04  3.82487E+03  1.02884E+04  1.12955E+04  1.87217E+03  1.30156E+04 -5.32370E+03  1.01831E+04
 -6.87087E+03  3.81393E+03 -4.10234E+03 -1.55776E+03 -2.01578E+03 -1.06829E+03 -1.15200E+03  4.81298E+02
 -2.60448E+03  5.04999E+02 -1.62648E+03 -1.51207E+02 -1.45621E+03 -3.18186E+03  6.71003E+02 -4.49251E+03
  4.93844E+03 -4.24111E+03  7.88482E+03 -1.88547E+02  9.56519E+03  7.14936E+03  3.11458E+03  1.22566E+04
 -6.22280E+03  1.45738E+04 -1.40900E+04  7.66728E+03 -1.55047E+04 -5.62667E+02 -1.34042E+04 -8.91744E+03
 -4.90443E+03 -1.33748E+04  3.16998E+03 -1.13977E+04  8.28647E+03 -6.61114E+03  9.69729E+03  2.40267E+02
  4.60953E+03  4.03515E+03 -3.35282E+02  4.11543E+03 -2.39879E+03 -5.00724E+02  1.55285E+03 -2.66357E+03
  5.38567E+03 -2.44171E+03  5.48750E+03  1.01877E+03  2.64188E+03  5.76951E+03 -8.94031E+02  6.80357E+03
 -5.38811E+03  5.95425E+03 -9.23599E+03  3.57918E+02 -8.42778E+03 -6.65196E+03 -1.43776E+03 -1.16555E+04
  6.03699E+03 -9.77526E+03  9.60483E+03 -2.40516E+03  1.01731E+04  3.18338E+03  6.34081E+03  9.26355E+03
  2.23445E+03  8.82422E+03 -4.41080E+03  7.44617E+03 -5.93525E+03  4.11150E+03 -4.17564E+03  9.84471E+00
 -1.77912E+03 -9.77189E+01 -3.03227E+03  1.24733E+03 -4.73795E+03  1.71270E+03 -6.70358E+03 -2.21021E+03
 -6.38279E+03 -4.33484E+03 -1.84095E+03 -8.65981E+03  4.85071E+03 -9.10458E+03  7.67350E+03 -4.96890E+03
  8.83259E+03  1.39077E+03  5.10818E+03  6.81746E+03 -1.24847E+03  8.70816E+03 -6.79546E+03  5.74458E+03
