 $NMID ID='MM_0lb_SNR400_18hz_g40_98.RAW', FMTDAT='(8E13.5)'
 TRAMP=1., VOLUME=1. $END
  3.10081E+05  5.14017E+02  3.37487E+05  2.50482E+05  8.47498E+04  3.37379E+05 -1.32513E+05  2.49971E+05
 -1.90060E+05  8.20379E+04 -1.10709E+05 -3.25981E+04  1.55797E+03 -5.01997E+04  5.33962E+04 -2.19745E+02
  3.53800E+04  5.27511E+04 -1.72240E+04  7.47334E+04 -6.01277E+04  6.26391E+04 -8.29328E+04  3.19009E+04
 -7.91087E+04 -1.12544E+04 -5.60513E+04 -5.01069E+04 -1.50145E+04 -6.77480E+04  2.69010E+04 -4.46970E+04
  3.91333E+04  3.85460E+03  1.52351E+04  4.69823E+04 -3.37921E+04  4.60705E+04 -6.51670E+04 -3.37453E+02
 -5.17011E+04 -5.59727E+04 -6.52860E+03 -7.51056E+04  3.28283E+04 -5.34320E+04  4.57446E+04 -1.62059E+04
  4.13477E+04  1.08466E+04  3.02044E+04  2.42854E+04  1.58780E+04  2.81083E+04 -4.69668E+03  2.67522E+04
 -2.17538E+04  1.26301E+04 -1.89215E+04 -3.96110E+03  3.84718E+03 -7.51222E+03  2.07070E+04  1.06624E+04
  7.49488E+03  3.30377E+04 -3.02761E+04  3.33827E+04 -6.04249E+04  1.52807E+03 -5.51015E+04 -4.09713E+04
 -1.24197E+04 -6.07955E+04  3.80010E+04 -4.29565E+04  5.52830E+04 -1.94537E+03  3.17965E+04  2.96221E+04
 -7.03511E+03  3.27237E+04 -2.90121E+04  1.35276E+04 -2.71869E+04 -5.51034E+03 -1.42587E+04 -9.64676E+03
 -7.53700E+03 -1.11368E+04 -1.18256E+03 -1.69666E+04  6.70303E+03 -2.25429E+04  1.50535E+04 -1.40739E+04
  1.25110E+04  4.74957E+03 -6.51937E+03  1.32379E+04 -1.91062E+04 -2.24372E+03 -8.12897E+03 -3.02188E+04
  2.09322E+04 -4.00435E+04  4.39504E+04 -1.85910E+04  4.12525E+04  1.82765E+04  1.40553E+04  4.14973E+04
 -1.55798E+04  3.07471E+04 -2.33588E+04  1.14671E+03 -8.24129E+03 -2.58571E+04  2.09675E+04 -3.09873E+04
  3.81185E+04 -7.46444E+03  3.09800E+04  2.23835E+04  1.52662E+04  4.22193E+04 -7.59090E+03  4.44421E+04
 -2.83369E+04  2.97133E+04 -3.65688E+04  7.83582E+03 -3.83712E+04 -1.49309E+04 -2.08060E+04 -3.42805E+04
  7.08680E+03 -3.39293E+04  2.89124E+04 -1.23643E+04  2.61969E+04  1.02064E+04  3.20564E+03  1.73498E+04
 -1.28506E+04  7.08146E+03 -9.84955E+03 -7.38893E+03  6.21305E+03 -9.55330E+03  1.68938E+04  6.68664E+03
  1.26982E+04  2.16204E+04 -6.74614E+03  2.33164E+04 -2.20127E+04  9.22186E+03 -2.52802E+04 -6.48132E+03
 -1.62713E+04 -1.61912E+04 -5.31519E+03 -1.63255E+04  3.69051E+03 -1.45290E+04  1.24035E+04 -1.36268E+04
  2.13772E+04 -1.15892E+04  2.79316E+04  8.76879E+02  2.14558E+04  1.64259E+04  4.14603E+03  3.20023E+04
 -1.56393E+04  2.70858E+04 -2.57071E+04  9.22907E+03 -1.89979E+04 -1.04827E+04 -3.60570E+03 -1.40830E+04
  2.93401E+03 -4.18367E+03 -2.46428E+03  5.01699E+03 -1.26463E+04  4.99897E+03 -1.30482E+04 -5.50591E+03
 -8.24471E+03 -1.52332E+04  4.14131E+03 -1.93841E+04  1.25731E+04 -1.41033E+04  1.43896E+04 -8.41972E+02
  8.68487E+03  1.05314E+04 -7.16478E+02  1.56067E+04 -9.88196E+03  8.80763E+03 -1.48172E+04 -2.92339E+03
 -1.12502E+04 -1.37601E+04 -1.96803E+03 -1.87741E+04  8.72907E+03 -1.48627E+04  1.62866E+04 -6.64137E+03
  1.40602E+04  7.71511E+02  1.04414E+04  3.69476E+03  5.08412E+03  1.08323E+03  7.86034E+03 -1.06744E+03
  1.36576E+04  2.21990E+03  1.42569E+04  1.24159E+04  8.86722E+03  2.40085E+04 -2.59774E+03  2.65222E+04
 -1.59898E+04  2.01508E+04 -2.36987E+04  9.89703E+03 -2.42531E+04 -1.17009E+03 -2.10491E+04 -1.45243E+04
 -1.02924E+04 -1.94643E+04  6.75926E+03 -1.88767E+04  1.62049E+04 -1.06282E+04  1.50615E+04  3.55832E+03
  6.68497E+03  1.12829E+04 -6.91876E+03  1.04093E+04 -1.33190E+04  2.91740E+03 -1.05238E+04 -7.92213E+03
 -3.12857E+02 -1.23886E+04  6.45707E+03 -8.71001E+03  7.49540E+03 -1.45902E+03  8.93220E+02  4.52504E+03
 -4.68710E+03  1.43947E+03 -3.30766E+03 -4.73351E+03  6.67725E+02 -9.97735E+03  7.80085E+03 -9.19975E+03
  1.25080E+04 -5.01439E+03  1.21225E+04  2.96984E+03  9.71235E+03  9.28392E+03  4.38792E+03  1.36444E+04
 -1.51849E+03  1.58945E+04 -9.29823E+03  1.02596E+04 -1.09757E+04  2.58609E+03 -8.85773E+03 -2.17359E+03
 -4.47377E+03 -3.06113E+03 -1.01518E+03  1.42365E+03 -1.73567E+03  1.85370E+03 -3.48066E+03  3.63116E+03
 -8.34267E+03 -7.29245E+02 -8.69068E+03 -7.19461E+03 -4.12787E+03 -1.17098E+04  3.49705E+03 -8.10856E+03
  7.70267E+03 -3.83191E+03  5.02672E+03  1.97225E+03  8.11522E+02  3.06390E+03 -2.96453E+03  3.89236E+02
 -3.03375E+03 -4.93128E+03 -1.09763E+03 -7.34371E+03  4.16100E+03 -7.56931E+03  9.64313E+03 -3.73580E+03
  1.10932E+04  5.94165E+02  8.45537E+03  6.53903E+03  1.62017E+03  8.48925E+03 -5.74492E+03  8.67720E+03
 -6.96236E+03  2.61136E+03 -3.41566E+03 -1.07383E+03  1.05625E+03 -2.67301E+03  4.12192E+03 -6.75284E+02
  4.30223E+03  3.09411E+03  1.05876E+03  6.12298E+03 -5.05951E+03  5.83121E+03 -7.18637E+03  1.51744E+03
 -4.83935E+03 -3.60704E+03  4.58492E+02 -6.58268E+03  4.28782E+03 -2.89462E+03  3.55104E+03  1.39200E+03
  3.69378E+02  3.35550E+03 -3.76903E+03  4.20805E+03 -4.81007E+03  2.27497E+03 -4.09516E+03 -1.85239E+03
 -3.22935E+03 -5.88739E+03  7.92206E+02 -6.81430E+03  5.90712E+03 -4.81340E+03  5.77402E+03  1.39471E+03
  4.83550E+03  5.46344E+03  1.92526E+02  7.29977E+03 -4.59510E+03  3.98866E+03 -5.49083E+03 -2.64773E+02
 -5.55139E+03 -5.65616E+03 -2.03780E+03 -4.95661E+03  2.35778E+03 -5.04325E+03  3.04623E+03 -2.59413E+03
  3.02632E+03 -1.79984E+02  4.41695E+01  1.25251E+03  2.88646E+02 -2.75181E+02  1.03120E+02 -1.32501E+03
  3.78704E+03 -6.89704E+02  5.14794E+03  6.33942E+02  6.09462E+03  3.23001E+03  5.52957E+03  7.00522E+03
 -1.31610E+03  8.43054E+03 -8.04526E+03  6.47454E+03 -9.96752E+03  1.18819E+03 -8.17113E+03 -2.67313E+03
 -4.29126E+03 -6.29253E+03 -3.20310E+02 -5.51137E+03  2.32903E+03 -1.85782E+03  1.55983E+03 -1.99400E+03
  8.42516E+02 -1.58763E+03  2.47621E+03 -2.16380E+03  3.39422E+03 -1.12348E+03  3.54342E+03  7.60922E+01
  4.37979E+03  1.13147E+03  1.53600E+03  3.48547E+03 -1.25250E+03  2.45475E+03 -4.89702E+03  2.40994E+03
 -4.29357E+03 -1.19793E+03 -2.49286E+03 -3.28805E+03  1.96828E+02 -5.55474E+03  3.21923E+03 -5.81520E+03
  5.40241E+03 -2.84795E+03  6.60304E+03  3.45463E+02  5.29936E+03  4.47592E+03  1.62159E+03  6.31180E+03
 -2.16228E+03  5.96578E+03 -3.85488E+03  2.18755E+03 -2.00509E+03 -4.49330E+02 -8.05045E+02 -6.99798E+02
 -7.24530E+01  1.08581E+03 -1.16158E+03  1.83610E+03 -2.36830E+03  1.17328E+03 -4.30142E+03 -4.56607E+02
 -1.98340E+03 -4.35488E+03  1.21107E+03 -4.53620E+03  2.26808E+03 -4.33379E+03  3.46962E+03 -9.63614E+02
  4.39460E+03  2.78304E+03  1.45154E+03  3.44737E+03 -7.04703E+02  4.67422E+03 -3.00059E+03  2.67029E+03
 -3.64116E+03  5.67884E+02 -3.31620E+03 -2.32015E+03  8.61162E+01 -2.81463E+03  1.87928E+03 -2.55090E+03
  2.87822E+03 -1.49634E+03  2.42913E+03  3.33820E+02  6.95984E+02  1.90632E+03  1.27626E+03  5.82072E+02
  1.70927E+03  7.66993E+01  1.18416E+03  6.97191E+02  9.83436E+02  1.81619E+03  1.50283E+03  1.87943E+03
 -1.28077E+03  3.50561E+03 -2.26330E+03  4.10935E+03 -3.46493E+03  1.12467E+03 -4.21096E+03 -6.12657E+02
 -1.80468E+03 -4.11869E+03  1.63841E+02 -5.26338E+03  2.02906E+03 -2.66432E+03  2.90738E+03 -1.10658E+03
  2.83606E+03  1.78712E+03  4.20922E+02  1.81167E+03 -4.22548E+02  1.93930E+03 -1.95266E+03 -6.22510E+02
 -7.25860E+02 -1.97566E+03  1.45550E+03 -1.46945E+03  1.26629E+03 -1.56773E+03  1.48615E+03  3.98456E+02
  1.20681E+03  7.25258E+02 -2.35752E+02  1.04912E+02 -1.17262E+02  6.01505E+02  1.39619E+03 -3.21255E+02
 -4.61608E+02  5.01199E+01  1.79776E+03  6.25612E+02 -1.13613E+02  2.66111E+03 -7.48611E+01  2.82211E+03
 -1.19206E+03  6.41481E+02 -2.39899E+03  6.40277E+02 -2.47586E+03 -2.99369E+02 -7.20972E+01 -5.64414E+02
  3.34865E+02 -1.48952E+03  9.02337E+02 -4.93797E+02  6.98111E+02  8.31777E+02 -5.61422E+02  1.64179E+03
 -1.16150E+03  4.29072E+02 -1.20156E+03 -1.33897E+03 -1.07445E+03 -1.83333E+03 -1.45614E+01 -1.14295E+03
  3.99718E+02 -9.23461E+02  5.25307E+02  2.65533E+02  7.98901E+02  2.14520E+02  1.12207E+02  8.01432E+02
  3.00906E+01 -1.66601E+02 -1.04527E+03  4.45977E+01  3.51594E+02 -6.59084E+02  1.81971E+03 -8.05406E+02
  1.86724E+03  6.44158E+02  2.63962E+03  7.81757E+02  9.98826E+02  1.40846E+03 -8.32558E+01  2.43688E+03
 -1.56449E+03  6.38784E+02 -1.76045E+03 -2.69509E+02 -5.26688E+02 -1.70681E+03  5.72935E+02 -9.30783E+02
  1.45601E+03 -6.19290E+02  1.02620E+03  7.02688E+02  1.01574E+03  9.32957E+02  9.59154E+02  1.59540E+03
 -3.54717E+02  9.84524E+02 -6.24062E+02  4.67396E+02  1.76582E+02  5.39648E+02 -9.77891E+02  8.18103E+02
 -5.37135E+02  1.10328E+03 -2.09656E+03  1.31580E+02 -1.19720E+03 -2.86050E+02 -2.52763E+03 -1.43112E+03
 -1.25257E+03 -2.22749E+03  7.55518E+02 -3.27103E+03  1.58881E+03 -2.39174E+03  2.95310E+03 -7.83540E+02
  2.83194E+03 -5.61374E+02  1.24043E+03  1.75552E+03 -5.56171E+02  1.69905E+03 -8.89158E+02  1.66595E+03
 -1.08086E+03  8.32919E+02 -4.18268E+02 -2.17222E+02 -6.56098E+02  7.50574E+01 -4.75835E+02  4.14432E+02
 -1.06454E+03 -1.49939E+02 -1.05631E+03 -2.02951E+02  3.13472E+02 -1.31895E+03 -2.02668E+02 -6.21315E+02
  1.63607E+03 -2.75817E+02  5.01906E+02  4.03606E+02  1.28747E+03  1.85450E+03 -2.39764E+02  1.38396E+03
 -1.03554E+03  2.43941E+03 -9.87299E+02  1.83112E+03 -2.06238E+03  2.76692E+01 -9.45830E+02 -1.78939E+03
 -1.21874E+03 -1.34208E+03  1.66066E+02 -1.80615E+03  6.23997E+02 -6.35941E+02  7.43388E+02 -3.12729E+02
  5.92124E+02  5.65423E+02  4.72803E+02  6.50524E+01 -1.59758E+02 -2.57995E+02  1.84232E+02 -2.23710E+02
  2.37549E+02 -2.23242E+02 -1.83597E+01  5.00893E+02  5.24104E+02  6.21278E+02  1.19179E+03  6.32000E+00
 -6.02669E+02  5.93809E+02 -6.87231E+02  3.66900E+02 -7.97074E+02 -9.03641E+02  5.38657E+02 -2.03625E+03
  5.81921E+02 -6.90611E+02  7.28270E+02  6.76458E+01  1.41283E+03 -7.54298E+02  7.75879E+02  4.51376E+02
  1.84608E+02  7.67100E+02 -6.96640E+02  1.24623E+03 -5.74496E+02  5.36281E+02 -8.45304E+02 -1.22053E+02
 -3.79408E+02  6.25380E+00  1.75692E+02  1.66277E+02 -4.36425E+02  6.29122E+02 -1.00895E+03 -4.01443E+02
 -1.29422E+03  1.05671E+02 -1.11026E+03 -9.19173E+02  4.83700E+02 -1.82524E+03  2.85961E+02 -4.65271E+02
  9.70001E+02  1.01444E+02 -4.23463E+02  3.77078E+01  8.40386E+01  5.75582E+02 -6.09595E+02  5.29539E+02
