 $NMID ID='MM_0lb_SNR400_12hz_g40_49.RAW', FMTDAT='(8E13.5)'
 TRAMP=1., VOLUME=1. $END
  3.09919E+05  4.77569E+02  3.37874E+05  2.50393E+05  8.44187E+04  3.38107E+05 -1.32328E+05  2.51371E+05
 -1.90323E+05  8.35241E+04 -1.11907E+05 -3.26312E+04  1.10207E+03 -5.05770E+04  5.42336E+04  1.69569E+01
  3.49805E+04  5.25517E+04 -1.64429E+04  7.58028E+04 -6.05386E+04  6.34598E+04 -8.39053E+04  3.25543E+04
 -8.12741E+04 -1.14237E+04 -5.71592E+04 -5.11804E+04 -1.49534E+04 -7.00429E+04  2.81749E+04 -4.56268E+04
  4.01934E+04  4.32062E+03  1.61552E+04  4.80567E+04 -3.45160E+04  4.71337E+04 -6.70269E+04 -1.18711E+02
 -5.39231E+04 -5.68070E+04 -7.07730E+03 -7.71296E+04  3.41759E+04 -5.53085E+04  4.83871E+04 -1.72651E+04
  4.35352E+04  1.11265E+04  3.21629E+04  2.48827E+04  1.65111E+04  2.96311E+04 -5.17148E+03  2.77109E+04
 -2.27247E+04  1.20843E+04 -1.85577E+04 -5.13417E+03  5.65393E+03 -7.81419E+03  2.21906E+04  1.22289E+04
  7.09419E+03  3.59373E+04 -3.22063E+04  3.59703E+04 -6.36511E+04  2.31817E+03 -5.82089E+04 -4.32449E+04
 -1.29292E+04 -6.37293E+04  3.95273E+04 -4.60835E+04  5.83856E+04 -2.33328E+03  3.48621E+04  3.31260E+04
 -6.84153E+03  3.64215E+04 -3.03306E+04  1.65299E+04 -3.03391E+04 -4.86699E+03 -1.71154E+04 -1.15875E+04
 -8.36058E+03 -1.33877E+04 -9.04268E+02 -1.84801E+04  6.99575E+03 -2.33061E+04  1.49054E+04 -1.25236E+04
  1.11203E+04  5.15142E+03 -8.78208E+03  1.37290E+04 -2.18013E+04 -4.73115E+03 -8.07438E+03 -3.45471E+04
  2.32607E+04 -4.44355E+04  4.89640E+04 -2.01246E+04  4.52185E+04  1.97649E+04  1.57741E+04  4.44914E+04
 -1.67126E+04  3.34698E+04 -2.59480E+04  2.64526E+03 -1.04826E+04 -2.79684E+04  2.11759E+04 -3.38909E+04
  4.10444E+04 -8.95948E+03  3.64662E+04  2.35082E+04  1.87210E+04  4.78729E+04 -7.81236E+03  5.14109E+04
 -3.18411E+04  3.40208E+04 -4.21760E+04  1.03329E+04 -4.36856E+04 -1.65051E+04 -2.40233E+04 -3.80968E+04
  7.35521E+03 -3.86845E+04  3.16977E+04 -1.61156E+04  2.96249E+04  1.07990E+04  4.30659E+03  1.97155E+04
 -1.40160E+04  8.84706E+03 -1.07295E+04 -6.91189E+03  5.78316E+03 -1.06278E+04  1.85186E+04  5.76813E+03
  1.38025E+04  2.27044E+04 -6.54516E+03  2.51189E+04 -2.27366E+04  1.16144E+04 -2.84526E+04 -4.40995E+03
 -2.13302E+04 -1.75008E+04 -9.10162E+03 -2.13426E+04  4.12712E+03 -2.08587E+04  1.60731E+04 -1.90674E+04
  2.74453E+04 -1.26671E+04  3.34199E+04  2.97695E+03  2.41376E+04  2.15103E+04  4.30656E+03  3.73101E+04
 -1.87205E+04  3.10347E+04 -2.88247E+04  1.08958E+04 -2.07349E+04 -1.07452E+04 -4.53523E+03 -1.33242E+04
  1.02642E+03 -2.40488E+03 -5.42481E+03  6.15024E+03 -1.75347E+04  4.94958E+03 -1.77033E+04 -8.04157E+03
 -1.08899E+04 -1.95683E+04  5.33710E+03 -2.44099E+04  1.64416E+04 -1.72901E+04  1.94201E+04 -1.41790E+03
  1.26436E+04  1.40037E+04 -1.27232E+03  1.99627E+04 -1.42512E+04  1.11330E+04 -2.02598E+04 -4.39291E+03
 -1.49350E+04 -1.78436E+04 -2.36773E+03 -2.38420E+04  1.04317E+04 -1.93145E+04  2.02048E+04 -9.39119E+03
  1.83284E+04  1.79786E+02  1.36931E+04  4.74929E+03  6.63838E+03  1.01163E+03  9.44220E+03 -2.08058E+03
  1.83543E+04  2.85953E+03  2.11568E+04  1.52264E+04  1.32066E+04  3.19716E+04 -2.69159E+03  3.61897E+04
 -2.08037E+04  2.95633E+04 -3.39775E+04  1.48466E+04 -3.57974E+04 -2.39922E+03 -2.94845E+04 -2.11269E+04
 -1.23587E+04 -3.00010E+04  9.89316E+03 -2.64292E+04  2.24468E+04 -1.36006E+04  2.10748E+04  6.14921E+03
  7.11467E+03  1.56865E+04 -9.57620E+03  1.34421E+04 -1.78395E+04  2.75446E+03 -1.26607E+04 -1.07064E+04
 -6.15701E+02 -1.61087E+04  8.35529E+03 -1.23659E+04  1.09034E+04 -1.18492E+03  3.14966E+03  7.03021E+03
 -7.74796E+03  3.01096E+03 -6.85013E+03 -5.81128E+03 -9.37332E+02 -1.42945E+04  1.06873E+04 -1.55566E+04
  1.81529E+04 -8.14351E+03  1.96757E+04  2.83083E+03  1.66331E+04  1.46696E+04  8.20147E+03  2.22738E+04
 -4.15132E+03  2.41185E+04 -1.47749E+04  1.52705E+04 -1.74182E+04  3.40670E+03 -1.26192E+04 -3.79597E+03
 -5.01628E+03 -5.53958E+03 -7.74401E+02  7.29341E+02 -2.24487E+03  2.68799E+03 -5.93901E+03  4.05693E+03
 -1.14401E+04 -7.16004E+02 -1.23899E+04 -9.29008E+03 -4.31993E+03 -1.55677E+04  4.83979E+03 -1.20556E+04
  1.05842E+04 -5.30884E+03  6.87727E+03  3.06734E+03  1.12005E+02  4.58378E+03 -5.41675E+03  6.41472E+00
 -5.47431E+03 -8.07543E+03 -7.18387E+02 -1.18403E+04  6.92147E+03 -1.27534E+04  1.55623E+04 -6.95590E+03
  1.80131E+04  1.19487E+03  1.32793E+04  1.09584E+04  3.12067E+03  1.34173E+04 -7.88812E+03  1.28422E+04
 -1.02792E+04  3.29666E+03 -5.61012E+03 -2.14295E+03  1.82542E+03 -3.57315E+03  6.36369E+03 -1.86889E+03
  5.91649E+03  5.06124E+03  9.92472E+02  9.68139E+03 -7.47252E+03  9.67282E+03 -1.15279E+04  2.55025E+03
 -7.45853E+03 -5.93959E+03 -2.12047E+02 -1.02710E+04  5.99618E+03 -5.23598E+03  6.33827E+03  2.28042E+03
  1.34203E+03  7.35048E+03 -6.78050E+03  9.01331E+03 -9.33861E+03  4.31320E+03 -9.49262E+03 -3.02052E+03
 -5.34113E+03 -1.06577E+04  2.96219E+03 -1.32139E+04  1.12031E+04 -8.07740E+03  1.20207E+04  1.79635E+03
  7.72752E+03  9.73109E+03 -4.71540E+02  1.17424E+04 -8.38167E+03  6.70815E+03 -9.56058E+03 -1.15345E+03
 -8.21952E+03 -7.35310E+03 -1.22712E+03 -8.83758E+03  4.30777E+03 -7.12460E+03  5.48806E+03 -3.01593E+03
  3.81459E+03  9.26171E+02 -6.43134E+02  1.80295E+03 -8.31330E+02 -2.08315E+03  1.73223E+03 -3.94532E+03
  7.84317E+03 -2.62827E+03  1.12565E+04  1.18198E+03  1.07510E+04  6.92622E+03  8.02824E+03  1.48890E+04
 -3.07516E+03  1.63236E+04 -1.41805E+04  1.26369E+04 -1.79902E+04  1.87193E+03 -1.46777E+04 -5.77953E+03
 -7.54749E+03 -1.22085E+04 -5.54646E+01 -9.71591E+03  4.08454E+03 -5.85148E+03  3.41531E+03 -3.49728E+03
  3.33673E+03 -1.96160E+03  3.42448E+03 -3.16237E+03  4.73991E+03 -3.21588E+03  5.98670E+03 -6.21648E+02
  7.97311E+03  1.67544E+03  3.39185E+03  6.65444E+03 -2.23084E+03  7.64048E+03 -7.91390E+03  6.07737E+03
 -9.75071E+03 -1.38467E+03 -5.69182E+03 -6.64347E+03 -6.10942E+02 -1.07139E+04  5.92565E+03 -1.09547E+04
  1.09109E+04 -5.86931E+03  1.35880E+04  1.11852E+03  9.37443E+03  8.43713E+03  1.32334E+03  1.16906E+04
 -4.72552E+03  1.02547E+04 -6.84835E+03  3.55620E+03 -4.21434E+03 -1.51525E+03 -2.09475E+03 -1.29032E+03
 -4.03408E+02  8.77140E+01 -1.66343E+03  2.33964E+03 -4.95118E+03  1.80905E+03 -6.94640E+03 -8.08073E+02
 -4.95126E+03 -7.24254E+03  1.38283E+03 -9.35625E+03  5.64231E+03 -8.82196E+03  9.09260E+03 -2.23904E+03
  9.56391E+03  4.36422E+03  4.29697E+03  8.83732E+03 -1.77280E+03  9.31011E+03 -6.99595E+03  6.43110E+03
 -8.76218E+03  5.28129E+02 -7.00591E+03 -6.26521E+03 -5.74423E+02 -8.61470E+03  3.06566E+03 -5.78716E+03
  5.89839E+03 -2.12809E+03  4.20485E+03  2.00290E+03  1.93116E+03  2.67728E+03  9.37417E+02  1.04861E+03
  2.79995E+03  1.62644E+03  2.33313E+03  1.41591E+03  2.92502E+03  3.81506E+03  2.38637E+03  4.71139E+03
 -1.57395E+03  7.76736E+03 -6.76801E+03  7.57577E+03 -8.62315E+03  2.79547E+03 -1.01733E+04 -2.70042E+03
 -3.91442E+03 -9.37830E+03  2.08914E+03 -1.06898E+04  5.16240E+03 -6.43841E+03  6.91049E+03 -1.70520E+03
  5.98167E+03  4.17937E+03  1.20688E+03  5.62465E+03 -2.40794E+03  3.58182E+03 -3.50464E+03 -5.33246E+02
 -1.64402E+03 -4.13117E+03  2.67569E+03 -3.83925E+03  3.64666E+03 -2.04810E+03  3.42953E+03  9.08389E+02
  2.01397E+03  1.58116E+03  1.45056E+03  1.16235E+03 -3.24490E+02  1.87022E+03  2.13913E+03 -7.10188E+02
  1.51523E+03 -3.69940E+02  3.80664E+03  1.13784E+03  2.15239E+03  4.86088E+03 -1.16136E+03  7.15483E+03
 -5.19523E+03  3.65367E+03 -5.65097E+03  7.51572E+02 -5.17949E+03 -1.90470E+03 -1.80713E+03 -3.42938E+03
  9.67967E+02 -3.80552E+03  2.85829E+03 -9.61823E+02  1.73878E+03  1.96394E+03 -1.26518E+03  2.80700E+03
 -3.69211E+03  1.79524E+03 -4.13475E+03 -2.44674E+03 -2.38096E+03 -5.03832E+03  3.83730E+02 -5.64354E+03
  2.31807E+03 -3.07352E+03  4.23845E+03 -2.44198E+02  2.99313E+03  1.58497E+03  1.22740E+03  2.47668E+03
 -1.54362E+03  7.70277E+02 -2.17566E+03 -1.35815E+03  1.14700E+03 -3.08775E+03  4.62804E+03 -2.91542E+03
  5.51062E+03  6.84391E+02  5.62229E+03  2.89927E+03  2.10051E+03  5.22881E+03 -2.43223E+03  5.60693E+03
 -4.34872E+03  1.96451E+03 -4.77753E+03 -3.15688E+02 -2.28884E+03 -3.71322E+03  5.63622E+02 -3.12060E+03
  4.10463E+03 -1.43470E+03  3.65454E+03  1.36297E+03  1.22188E+03  3.65836E+03 -3.08312E+02  2.64357E+03
 -9.99538E+02  2.15476E+03 -1.71846E+03  1.91985E+02 -8.86623E+01  8.36698E+02 -5.64683E+02  1.42453E+03
 -1.28336E+03  1.53419E+03 -4.02769E+03  2.27987E+03 -6.26043E+03 -6.55333E+01 -6.97006E+03 -3.73941E+03
 -3.98984E+03 -7.57156E+03  1.68381E+03 -8.59146E+03  5.22284E+03 -6.76292E+03  7.95518E+03 -2.82079E+03
  7.66950E+03  1.19838E+03  4.62894E+03  5.17092E+03 -1.22680E+02  6.18378E+03 -2.23292E+03  3.81588E+03
 -3.90494E+03  1.57855E+03 -1.58462E+03 -8.90453E+02 -8.93924E+02 -9.59511E+02 -4.02477E+02 -1.53045E+02
 -1.12900E+03  1.90111E+02 -1.78883E+03 -3.76596E+02 -2.40386E+02 -1.55142E+03  1.02135E+01 -2.24819E+03
  3.13938E+03 -2.05228E+03  3.15191E+03  3.01868E+02  3.64439E+03  2.97895E+03  8.40139E+02  5.60652E+03
 -2.48382E+03  7.38203E+03 -5.68829E+03  3.92936E+03 -6.65281E+03 -7.07722E+02 -5.01200E+03 -4.49988E+03
 -2.42586E+03 -6.25442E+03  1.42428E+03 -4.79064E+03  2.58481E+03 -3.07936E+03  4.23004E+03  6.14498E+02
  2.20880E+03  9.96804E+02 -6.74530E+02  1.82923E+03 -7.72772E+02 -1.18069E+02  7.77866E+02 -1.64325E+03
  2.06374E+03 -3.48644E+02  2.21302E+03  9.89241E+02  8.71718E+02  2.24108E+03  3.06626E+02  3.17730E+03
 -2.17867E+03  2.08644E+03 -3.20245E+03 -4.89807E+02 -3.42443E+03 -2.54479E+03 -6.65736E+02 -4.38423E+03
  2.08664E+03 -3.28681E+03  3.98690E+03 -7.41953E+02  4.16705E+03  1.64559E+03  2.50944E+03  3.35418E+03
  2.65669E+02  3.57396E+03 -1.30304E+03  2.93187E+03 -1.61495E+03  1.08448E+03 -1.61671E+03  6.23457E+02
 -1.14687E+03  7.11990E+01 -1.21687E+03  7.39371E+02 -2.05559E+03  4.66264E+02 -2.83151E+03 -8.57768E+02
 -2.91549E+03 -1.87205E+03 -5.03651E+02 -4.26074E+03  2.36247E+03 -4.50547E+03  4.16418E+03 -1.17161E+03
  3.27223E+03  1.70962E+02  2.19099E+03  2.60561E+03 -9.53378E+02  4.04702E+03 -2.17289E+03  2.55734E+03
