 $NMID ID='MM_0lb_SNR400_13hz_g40_99.RAW', FMTDAT='(8E13.5)'
 TRAMP=1., VOLUME=1. $END
  3.09584E+05  6.13150E+02  3.36990E+05  2.50673E+05  8.45769E+04  3.37297E+05 -1.33025E+05  2.51562E+05
 -1.90120E+05  8.37801E+04 -1.12089E+05 -3.32341E+04  1.35173E+03 -5.08643E+04  5.38568E+04 -7.45240E+00
  3.58221E+04  5.28406E+04 -1.74425E+04  7.56750E+04 -6.09355E+04  6.39660E+04 -8.40255E+04  3.24559E+04
 -8.12906E+04 -1.17726E+04 -5.69732E+04 -5.11168E+04 -1.48551E+04 -6.95609E+04  2.78750E+04 -4.59059E+04
  3.98548E+04  4.02772E+03  1.59127E+04  4.77300E+04 -3.35730E+04  4.69082E+04 -6.63738E+04  1.33190E+02
 -5.40216E+04 -5.62499E+04 -6.21096E+03 -7.73719E+04  3.38311E+04 -5.48266E+04  4.87348E+04 -1.66635E+04
  4.36562E+04  1.13149E+04  3.18835E+04  2.48132E+04  1.58845E+04  2.87392E+04 -5.61438E+03  2.69451E+04
 -2.15490E+04  1.17512E+04 -1.87898E+04 -4.77978E+03  5.70470E+03 -7.48486E+03  2.20993E+04  1.21400E+04
  7.07211E+03  3.50255E+04 -3.16074E+04  3.54815E+04 -6.34370E+04  1.97882E+03 -5.72588E+04 -4.25879E+04
 -1.22245E+04 -6.35463E+04  3.97174E+04 -4.52264E+04  5.79681E+04 -2.18135E+03  3.35568E+04  3.27068E+04
 -6.23503E+03  3.60821E+04 -2.91032E+04  1.59567E+04 -2.96043E+04 -4.29085E+03 -1.64407E+04 -1.10671E+04
 -8.58834E+03 -1.28428E+04 -1.20304E+03 -1.72953E+04  7.34169E+03 -2.27496E+04  1.57551E+04 -1.33367E+04
  1.12220E+04  5.14769E+03 -7.99401E+03  1.26255E+04 -2.17012E+04 -4.82796E+03 -8.48538E+03 -3.33696E+04
  2.31266E+04 -4.36870E+04  4.80775E+04 -1.94617E+04  4.48971E+04  1.90490E+04  1.53684E+04  4.44753E+04
 -1.58159E+04  3.32964E+04 -2.55201E+04  2.34758E+03 -1.02796E+04 -2.78290E+04  2.11314E+04 -3.40631E+04
  4.09909E+04 -8.51828E+03  3.57840E+04  2.42085E+04  1.79662E+04  4.67375E+04 -8.09415E+03  5.02831E+04
 -3.20710E+04  3.37347E+04 -4.22664E+04  9.52262E+03 -4.27078E+04 -1.65641E+04 -2.30506E+04 -3.80383E+04
  6.64636E+03 -3.80089E+04  3.06707E+04 -1.45981E+04  2.90302E+04  1.09496E+04  4.07777E+03  1.87586E+04
 -1.33089E+04  8.26990E+03 -1.08525E+04 -7.53582E+03  5.50169E+03 -1.14624E+04  1.82744E+04  6.01745E+03
  1.36177E+04  2.19989E+04 -5.30503E+03  2.51066E+04 -2.23322E+04  1.11428E+04 -2.80409E+04 -4.83610E+03
 -2.02879E+04 -1.76757E+04 -8.50942E+03 -2.05837E+04  3.93644E+03 -1.92362E+04  1.56358E+04 -1.84143E+04
  2.58463E+04 -1.25501E+04  3.31151E+04  3.07101E+03  2.39180E+04  2.01714E+04  4.50205E+03  3.62487E+04
 -1.78072E+04  2.99092E+04 -2.79778E+04  1.03274E+04 -2.07748E+04 -1.00475E+04 -4.56024E+03 -1.30297E+04
  1.93288E+03 -3.21127E+03 -4.83076E+03  6.62151E+03 -1.64931E+04  4.91481E+03 -1.63915E+04 -6.95746E+03
 -9.94101E+03 -1.89868E+04  5.06501E+03 -2.34058E+04  1.52430E+04 -1.62732E+04  1.85748E+04 -1.55233E+03
  1.13947E+04  1.30264E+04 -1.63941E+03  1.94593E+04 -1.29486E+04  1.10141E+04 -1.96039E+04 -3.94920E+03
 -1.38704E+04 -1.73934E+04 -1.46685E+03 -2.30043E+04  1.06222E+04 -1.94201E+04  1.93347E+04 -8.68446E+03
  1.78116E+04  6.45685E+02  1.31349E+04  4.03091E+03  6.57474E+03  9.38610E+02  1.01418E+04 -1.63990E+03
  1.71307E+04  2.58996E+03  1.90846E+04  1.52291E+04  1.28559E+04  3.10600E+04 -3.30105E+03  3.48149E+04
 -2.03404E+04  2.75211E+04 -3.18349E+04  1.36187E+04 -3.37787E+04 -2.65031E+03 -2.82899E+04 -1.94844E+04
 -1.19445E+04 -2.72991E+04  9.52736E+03 -2.51345E+04  2.15254E+04 -1.19487E+04  1.96138E+04  5.83538E+03
  6.76749E+03  1.41168E+04 -9.35985E+03  1.31343E+04 -1.64962E+04  2.07519E+03 -1.22949E+04 -9.76898E+03
 -5.46083E+02 -1.52255E+04  7.68857E+03 -1.21982E+04  1.01354E+04 -1.17021E+03  1.77771E+03  6.35338E+03
 -7.33613E+03  3.19863E+03 -5.59691E+03 -5.93336E+03 -6.71573E+02 -1.39240E+04  9.34484E+03 -1.45344E+04
  1.67727E+04 -7.21352E+03  1.83692E+04  3.57643E+03  1.59694E+04  1.33406E+04  7.55841E+03  2.08724E+04
 -3.12345E+03  2.20907E+04 -1.39855E+04  1.37650E+04 -1.56345E+04  3.49489E+03 -1.17679E+04 -3.36218E+03
 -5.67194E+03 -5.07487E+03 -5.05486E+02  1.00709E+03 -2.49686E+03  1.95708E+03 -5.59709E+03  4.30255E+03
 -1.07113E+04 -9.18968E+02 -1.15876E+04 -9.27425E+03 -4.44248E+03 -1.52109E+04  4.78247E+03 -1.17883E+04
  1.00366E+04 -4.91541E+03  6.92565E+03  2.84008E+03  1.98537E+02  4.02209E+03 -5.26158E+03 -4.36479E+02
 -5.35523E+03 -6.06574E+03 -8.66638E+02 -1.06834E+04  6.86074E+03 -1.17006E+04  1.45278E+04 -6.48702E+03
  1.67906E+04  1.20962E+03  1.20429E+04  9.97741E+03  3.15884E+03  1.29676E+04 -6.79962E+03  1.19209E+04
 -9.33271E+03  3.77845E+03 -5.12952E+03 -1.56597E+03  1.72218E+03 -2.88158E+03  6.08094E+03 -8.93342E+02
  5.59459E+03  5.38012E+03  1.54005E+03  8.67991E+03 -6.23464E+03  8.88956E+03 -1.06944E+04  1.47736E+03
 -7.06652E+03 -5.69327E+03  1.31822E+02 -9.71025E+03  6.13629E+03 -4.34741E+03  5.95236E+03  1.58559E+03
  1.12771E+03  6.42049E+03 -5.66165E+03  7.73780E+03 -8.30853E+03  3.52473E+03 -8.72264E+03 -3.15945E+03
 -4.44449E+03 -1.02381E+04  2.40669E+03 -1.17929E+04  9.90472E+03 -7.20589E+03  1.09332E+04  1.65828E+03
  6.64812E+03  8.76517E+03 -5.56207E+02  1.10968E+04 -7.21531E+03  6.44221E+03 -8.56599E+03 -1.30010E+03
 -7.41667E+03 -7.55687E+03 -9.56493E+02 -8.12507E+03  4.32504E+03 -7.39180E+03  4.72744E+03 -2.91404E+03
  3.32647E+03  8.97034E+02  8.05384E+01  1.65218E+03  5.19686E+02 -1.33172E+03  6.91487E+02 -4.94014E+03
  7.64303E+03 -2.57605E+03  1.01148E+04  1.17951E+03  9.75124E+03  6.45263E+03  6.83810E+03  1.25754E+04
 -2.84321E+03  1.57755E+04 -1.24910E+04  1.12642E+04 -1.62895E+04  2.94126E+03 -1.27456E+04 -5.47682E+03
 -6.87491E+03 -1.08831E+04 -4.61363E+02 -8.60683E+03  3.64232E+03 -5.06741E+03  3.38830E+03 -3.27449E+03
  2.20507E+03 -1.94489E+03  2.73046E+03 -2.83860E+03  4.76637E+03 -2.36636E+03  5.63084E+03 -4.26279E+02
  6.90295E+03  2.21908E+03  2.81235E+03  6.09215E+03 -2.92115E+03  6.17467E+03 -7.31750E+03  4.84632E+03
 -9.29985E+03 -1.14492E+03 -5.38615E+03 -5.55494E+03 -5.20322E+02 -9.17576E+03  4.93341E+03 -9.39312E+03
  9.54857E+03 -5.61996E+03  1.23386E+04  4.13868E+02  8.49490E+03  7.37311E+03  1.46898E+03  1.06686E+04
 -4.13033E+03  9.26549E+03 -6.00029E+03  3.01357E+03 -3.39210E+03 -9.54791E+02 -1.20197E+03 -1.94576E+03
 -8.71911E+02 -4.19317E+00 -1.40204E+03  2.63176E+03 -3.67127E+03  1.83362E+03 -6.66430E+03 -5.50337E+02
 -3.30235E+03 -6.76697E+03 -8.27286E+01 -8.58231E+03  5.26915E+03 -8.28809E+03  8.15554E+03 -2.55561E+03
  8.41830E+03  4.13994E+03  4.02425E+03  6.61199E+03 -1.49844E+03  8.30536E+03 -5.36348E+03  5.71877E+03
 -8.12490E+03  1.03566E+03 -6.24614E+03 -5.14710E+03 -7.96760E+02 -6.75342E+03  3.31827E+03 -4.94410E+03
  4.49622E+03 -1.83242E+03  3.45542E+03  1.10241E+03  9.78623E+02  2.91161E+03  6.82934E+02  1.21143E+03
  2.36131E+03  6.57297E+02  2.15138E+03  7.99698E+02  2.66380E+03  3.61249E+03  2.12652E+03  4.63920E+03
 -2.04881E+03  6.77817E+03 -5.59454E+03  7.44121E+03 -8.73679E+03  1.64623E+03 -8.95152E+03 -2.44553E+03
 -4.08183E+03 -7.91028E+03  1.29253E+03 -9.63188E+03  4.84418E+03 -5.89358E+03  6.73737E+03 -1.82699E+03
  6.14131E+03  3.46676E+03  1.53300E+03  4.45244E+03 -2.20666E+03  3.07995E+03 -2.89082E+03 -4.87419E+02
 -1.32369E+03 -4.37708E+03  2.93318E+03 -3.88437E+03  3.65681E+03 -2.23102E+03  3.54298E+03  8.76691E+02
  1.67108E+03  1.34081E+03  1.08848E+03  8.35574E+02 -5.56968E+02  1.42411E+03  1.73444E+03 -1.81476E+02
  1.46516E+03 -2.01181E+02  3.31216E+03  1.77399E+03  1.65524E+03  4.50659E+03 -4.05517E+02  5.40157E+03
 -4.17634E+03  3.48130E+03 -5.27499E+03  1.00779E+03 -4.11821E+03 -1.37738E+03 -1.30789E+03 -3.21825E+03
  3.53693E+02 -2.71131E+03  2.72769E+03 -1.00448E+03  1.94025E+03  1.67583E+03 -1.17995E+03  2.42949E+03
 -3.71681E+03  2.12057E+03 -3.79789E+03 -2.94405E+03 -1.80923E+03 -4.82313E+03  7.63378E+02 -4.36756E+03
  1.94696E+03 -2.81545E+03  3.00642E+03 -1.40388E+02  3.54552E+03  4.04377E+02  1.16224E+03  1.80616E+03
 -1.41586E+03  7.18633E+02 -2.18007E+03 -8.17937E+02  2.40832E+02 -2.11975E+03  4.22377E+03 -2.83007E+03
  3.76692E+03  5.45304E+02  4.90516E+03  3.41209E+03  1.08533E+03  5.13376E+03 -1.80092E+03  4.25048E+03
 -4.23306E+03  1.52749E+03 -4.25132E+03 -6.85762E+02 -2.40873E+03 -3.50702E+03  1.09217E+03 -2.34591E+03
  2.84331E+03 -1.68666E+03  3.06540E+03  1.49936E+03  1.35686E+03  2.23142E+03 -7.91161E+02  2.67705E+03
 -1.06716E+03  1.44780E+03 -1.21035E+03  4.65479E+02 -4.75375E+02  7.28049E+02 -1.15345E+03  1.24287E+03
 -1.41480E+03  2.56870E+03 -3.18339E+03  1.62855E+03 -4.41851E+03  1.39883E+02 -5.29617E+03 -2.93581E+03
 -2.73869E+03 -6.01576E+03  9.47252E+02 -7.32037E+03  3.44371E+03 -5.39508E+03  6.79902E+03 -2.66442E+03
  6.57257E+03  1.22063E+03  3.59125E+03  4.26966E+03 -4.35330E+02  5.64154E+03 -1.87332E+03  3.45393E+03
 -2.03244E+03  1.49184E+03 -1.39463E+03 -3.29727E+02 -5.09653E+02 -9.67316E+02 -9.81121E+02 -1.75447E+02
 -2.26491E+03 -3.00563E+02 -8.04592E+02  2.82389E+02  1.62841E+01 -9.60719E+02 -4.71877E+02 -1.88329E+03
  2.23704E+03 -1.17031E+03  2.28699E+03  1.92762E+02  3.58234E+03  3.09527E+03  6.43637E+02  4.59265E+03
 -2.60392E+03  5.61258E+03 -4.75332E+03  3.23179E+03 -6.72989E+03 -4.77501E+02 -4.56374E+03 -2.58731E+03
 -1.65943E+03 -4.93460E+03  1.32811E+03 -4.68393E+03  2.36374E+03 -1.37071E+03  2.95380E+03  5.56758E+02
  1.56412E+03  1.52174E+03 -2.29050E+01  1.23097E+03 -1.56345E+03  4.92471E+02  1.26521E+02 -1.68442E+03
  1.86445E+03 -4.26501E+02  1.30526E+03  8.29497E+02  8.60737E+02  1.29997E+03  4.98709E+02  1.90799E+03
 -2.43080E+03  2.36553E+03 -2.26789E+03  6.81341E+02 -3.05702E+03 -2.02864E+03 -9.24788E+02 -3.77032E+03
  1.97069E+03 -2.92096E+03  3.51395E+03 -2.86442E+02  3.54908E+03  1.47685E+02  2.18811E+03  2.93671E+03
  7.38998E+02  2.63033E+03 -1.12076E+03  1.93130E+03 -1.51168E+03  8.64433E+02 -1.52413E+03 -6.27678E+02
 -5.91667E+02  3.35967E+02 -1.14714E+03  8.98117E+02 -1.80306E+03  8.54158E+02 -2.31616E+03 -9.77830E+02
 -2.75766E+03 -1.10528E+03 -7.82481E+02 -2.77016E+03  1.80772E+03 -3.37951E+03  3.00009E+03 -1.71169E+03
  2.65315E+03  6.12984E+02  6.54694E+02  1.63206E+03 -1.17057E+01  2.84021E+03 -1.69310E+03  1.98531E+03
