 $NMID ID='MM_0lb_SNR400_11hz_g50_8.RAW', FMTDAT='(8E13.5)'
 TRAMP=1., VOLUME=1. $END
  3.09533E+05 -2.88218E+01  3.37670E+05  2.51290E+05  8.46467E+04  3.38535E+05 -1.31786E+05  2.51677E+05
 -1.91540E+05  8.38963E+04 -1.12450E+05 -3.19827E+04  2.43276E+02 -5.06155E+04  5.36136E+04 -7.95827E+02
  3.50076E+04  5.33316E+04 -1.69962E+04  7.57900E+04 -6.07541E+04  6.44212E+04 -8.47708E+04  3.19862E+04
 -8.19285E+04 -1.15919E+04 -5.77175E+04 -5.14914E+04 -1.49576E+04 -7.13965E+04  2.82089E+04 -4.58449E+04
  4.12870E+04  3.88085E+03  1.67509E+04  4.86673E+04 -3.45229E+04  4.79843E+04 -6.74160E+04 -2.30127E+02
 -5.37847E+04 -5.73434E+04 -7.21307E+03 -7.73596E+04  3.47090E+04 -5.57881E+04  4.87348E+04 -1.84742E+04
  4.43889E+04  1.14888E+04  3.20215E+04  2.55771E+04  1.59998E+04  2.94294E+04 -5.57204E+03  2.86522E+04
 -2.18096E+04  1.20515E+04 -1.80820E+04 -5.20186E+03  6.68291E+03 -8.00982E+03  2.27989E+04  1.30892E+04
  7.03212E+03  3.61660E+04 -3.29528E+04  3.57908E+04 -6.52102E+04  2.62951E+03 -5.87987E+04 -4.33679E+04
 -1.25234E+04 -6.44919E+04  4.13414E+04 -4.65272E+04  5.97042E+04 -2.76735E+03  3.57498E+04  3.38790E+04
 -5.28024E+03  3.85353E+04 -3.10090E+04  1.74808E+04 -3.19925E+04 -3.46255E+03 -1.74893E+04 -1.20701E+04
 -9.13720E+03 -1.39319E+04 -3.43698E+02 -1.89608E+04  8.14667E+03 -2.32982E+04  1.57460E+04 -1.35562E+04
  1.07348E+04  6.44526E+03 -9.75123E+03  1.27870E+04 -2.26681E+04 -6.13726E+03 -8.32232E+03 -3.63079E+04
  2.40659E+04 -4.52229E+04  5.03059E+04 -2.07166E+04  4.69521E+04  1.94709E+04  1.67121E+04  4.61271E+04
 -1.67300E+04  3.53416E+04 -2.67210E+04  2.71307E+03 -1.07420E+04 -2.85218E+04  2.14142E+04 -3.56270E+04
  4.18373E+04 -1.00881E+04  3.85168E+04  2.50512E+04  1.97508E+04  4.93197E+04 -8.15456E+03  5.31212E+04
 -3.37222E+04  3.69527E+04 -4.56861E+04  9.94799E+03 -4.57837E+04 -1.76599E+04 -2.44719E+04 -3.96983E+04
  7.74394E+03 -4.02497E+04  3.34006E+04 -1.60972E+04  3.09593E+04  1.14547E+04  4.94631E+03  2.08123E+04
 -1.34567E+04  9.35667E+03 -1.10190E+04 -8.30905E+03  5.57449E+03 -1.11617E+04  1.87070E+04  5.57006E+03
  1.48502E+04  2.24548E+04 -6.06763E+03  2.60307E+04 -2.32552E+04  1.30501E+04 -2.99126E+04 -3.70971E+03
 -2.33821E+04 -1.82677E+04 -1.06575E+04 -2.29040E+04  4.55292E+03 -2.29615E+04  1.91111E+04 -2.14062E+04
  2.94641E+04 -1.36737E+04  3.59199E+04  3.69957E+03  2.62405E+04  2.27685E+04  4.73610E+03  3.91520E+04
 -1.85502E+04  3.29931E+04 -2.89395E+04  1.09925E+04 -2.12472E+04 -1.05803E+04 -4.95642E+03 -1.22152E+04
  1.03987E+03 -1.12407E+03 -6.16621E+03  7.45040E+03 -1.85412E+04  5.28708E+03 -1.90061E+04 -8.31560E+03
 -1.13724E+04 -2.14421E+04  5.25952E+03 -2.52540E+04  1.70826E+04 -1.85281E+04  2.06783E+04 -2.32326E+03
  1.30270E+04  1.56660E+04 -7.28701E+02  2.17643E+04 -1.56590E+04  1.25319E+04 -2.14875E+04 -4.05489E+03
 -1.68359E+04 -1.97113E+04 -1.76072E+03 -2.58128E+04  1.14835E+04 -2.10636E+04  2.15567E+04 -1.15070E+04
  2.03187E+04  2.19386E+02  1.51506E+04  5.72894E+03  8.32134E+03  1.31432E+03  1.06221E+04 -1.58003E+03
  2.11485E+04  2.97505E+03  2.26457E+04  1.63877E+04  1.51265E+04  3.46301E+04 -2.38881E+03  3.96828E+04
 -2.33099E+04  3.32387E+04 -3.69772E+04  1.70680E+04 -3.99990E+04 -3.01118E+03 -3.24555E+04 -2.30122E+04
 -1.35895E+04 -3.32901E+04  1.11685E+04 -2.96056E+04  2.48443E+04 -1.43412E+04  2.26545E+04  7.49210E+03
  7.54882E+03  1.72453E+04 -1.07220E+04  1.45757E+04 -1.91274E+04  2.55398E+03 -1.44337E+04 -1.16471E+04
  1.88875E+02 -1.76631E+04  9.93227E+03 -1.30817E+04  1.17139E+04 -1.95524E+03  3.09150E+03  7.91400E+03
 -7.55573E+03  3.42257E+03 -8.56772E+03 -6.85646E+03 -1.64487E+03 -1.58195E+04  1.13034E+04 -1.75784E+04
  2.03265E+04 -9.31811E+03  2.31070E+04  2.53326E+03  2.00844E+04  1.62927E+04  9.10522E+03  2.47851E+04
 -5.07210E+03  2.73534E+04 -1.81927E+04  1.70014E+04 -2.05679E+04  4.23787E+03 -1.40310E+04 -4.97330E+03
 -5.63553E+03 -6.77789E+03 -7.07651E+02  4.04511E+02 -2.39335E+03  3.03602E+03 -6.72304E+03  4.55287E+03
 -1.28190E+04 -1.43012E+03 -1.32264E+04 -1.13525E+04 -5.34931E+03 -1.65712E+04  5.81964E+03 -1.34542E+04
  1.17218E+04 -5.17130E+03  8.28570E+03  3.08149E+03 -2.24407E+02  5.37920E+03 -6.75419E+03 -2.04287E+02
 -6.40078E+03 -9.81876E+03 -1.50594E+03 -1.37874E+04  7.18974E+03 -1.40312E+04  1.74661E+04 -7.71902E+03
  2.02955E+04  1.82176E+03  1.49354E+04  1.20236E+04  2.55782E+03  1.61378E+04 -8.82003E+03  1.37952E+04
 -1.05598E+04  4.55326E+03 -5.21017E+03 -2.50856E+03  2.22450E+03 -3.93220E+03  7.45134E+03 -1.26308E+03
  6.53529E+03  5.45454E+03  7.24246E+02  1.05198E+04 -7.92088E+03  1.08335E+04 -1.35170E+04  2.84157E+03
 -1.00125E+04 -7.13184E+03  2.15815E+02 -1.21473E+04  6.75726E+03 -6.30048E+03  7.18465E+03  2.20374E+03
  1.71605E+03  7.59337E+03 -6.76228E+03  1.03354E+04 -1.10714E+04  4.63842E+03 -1.14225E+04 -3.53858E+03
 -6.36756E+03 -1.29606E+04  3.51505E+03 -1.47143E+04  1.24757E+04 -8.83828E+03  1.44167E+04  2.48534E+03
  8.63440E+03  1.14455E+04 -1.58019E+03  1.37257E+04 -1.04047E+04  7.82793E+03 -1.05204E+04 -1.23755E+03
 -9.35949E+03 -9.26396E+03 -1.34469E+03 -1.00162E+04  5.57867E+03 -8.52738E+03  6.64929E+03 -2.89026E+03
  3.79041E+03  1.19505E+03 -1.01113E+03  1.28373E+03  5.18798E+01 -2.30864E+03  1.74598E+03 -5.76560E+03
  9.26919E+03 -4.19295E+03  1.31762E+04  1.36891E+03  1.24454E+04  8.94350E+03  8.20102E+03  1.72611E+04
 -3.86478E+03  1.91260E+04 -1.60461E+04  1.43187E+04 -2.11431E+04  2.96760E+03 -1.75151E+04 -6.40362E+03
 -9.30157E+03 -1.36879E+04 -8.04511E+02 -1.20813E+04  3.89193E+03 -6.59921E+03  4.28177E+03 -4.87351E+03
  3.89531E+03 -2.25179E+03  3.45781E+03 -3.13939E+03  5.34410E+03 -2.76970E+03  6.51641E+03 -1.39036E+03
  9.05884E+03  2.66354E+03  4.36167E+03  7.69189E+03 -2.49835E+03  8.82128E+03 -9.49507E+03  6.88425E+03
 -1.24593E+04 -1.15424E+03 -7.75779E+03 -8.07151E+03 -1.71055E+03 -1.32907E+04  7.64854E+03 -1.30338E+04
  1.35937E+04 -7.22693E+03  1.53315E+04  1.75497E+03  1.11940E+04  1.06419E+04  1.57214E+03  1.36842E+04
 -5.87774E+03  1.14327E+04 -8.94892E+03  4.00316E+03 -5.79268E+03 -1.17814E+03 -3.06261E+03 -1.93732E+03
 -6.54334E+02  2.55108E+02 -1.49671E+03  2.87657E+03 -5.37447E+03  1.88120E+03 -7.61121E+03 -5.49078E+02
 -5.42949E+03 -7.48562E+03  2.49913E+02 -1.22854E+04  6.59281E+03 -1.14391E+04  1.18997E+04 -3.38308E+03
  1.13711E+04  5.42180E+03  5.63512E+03  1.01502E+04 -2.22125E+03  1.23855E+04 -8.84590E+03  7.63623E+03
 -1.09394E+04  1.17921E+03 -8.32142E+03 -7.39377E+03 -1.21288E+03 -9.67095E+03  4.63089E+03 -7.13084E+03
  6.81361E+03 -3.41481E+03  4.43119E+03  2.21932E+03  1.59910E+03  3.34824E+03  8.71295E+02  1.87684E+03
  3.38919E+03  4.58976E+02  3.13427E+03  1.68266E+03  3.82612E+03  3.82599E+03  3.72922E+03  6.37537E+03
 -2.64794E+03  9.20774E+03 -8.50274E+03  9.93685E+03 -1.12998E+04  2.88259E+03 -1.27205E+04 -5.44441E+03
 -5.31986E+03 -1.24928E+04  1.58662E+03 -1.34352E+04  7.44275E+03 -8.42606E+03  9.78569E+03 -2.12100E+03
  7.01943E+03  4.12144E+03  2.05961E+03  6.34225E+03 -3.01079E+03  4.07996E+03 -4.50400E+03 -1.12520E+03
 -2.12309E+03 -5.17577E+03  3.28669E+03 -4.12272E+03  4.98827E+03 -3.35314E+03  4.80332E+03  1.17181E+03
  2.44993E+03  3.03339E+03  1.04117E+03  2.17124E+03 -5.90015E+02  1.42796E+03  1.95740E+03 -3.14600E+02
  2.24618E+03 -5.99101E+02  5.39926E+03  1.90377E+03  2.67412E+03  5.86381E+03 -4.74386E+02  8.10803E+03
 -5.30874E+03  5.33959E+03 -7.88260E+03  1.25447E+03 -6.23538E+03 -2.66231E+03 -2.34676E+03 -4.63585E+03
  2.60200E+02 -4.04532E+03  2.19949E+03 -2.37945E+03  2.72871E+03  2.82034E+03 -1.51940E+03  4.34596E+03
 -4.78922E+03  2.70636E+03 -4.60575E+03 -2.87343E+03 -3.18641E+03 -6.79841E+03  9.16057E+02 -6.24821E+03
  3.75037E+03 -3.16697E+03  4.74148E+03 -4.36670E+02  4.45868E+03  1.22936E+03  4.01351E+02  3.28473E+03
 -1.42232E+03  1.00308E+03 -3.28399E+03 -1.92184E+03  7.09902E+02 -4.83102E+03  6.39955E+03 -4.09857E+03
  6.01995E+03  9.26389E+02  7.50820E+03  4.33350E+03  3.13554E+03  7.62149E+03 -2.74617E+03  6.76131E+03
 -6.10479E+03  2.70786E+03 -6.82206E+03 -1.26114E+03 -2.87146E+03 -4.82173E+03  9.72556E+02 -4.61572E+03
  4.75416E+03 -2.08229E+03  4.15402E+03  1.96892E+03  1.71238E+03  4.00466E+03 -6.47636E+02  3.51529E+03
 -9.39155E+02  2.40866E+03 -1.85087E+03  6.56683E+02 -1.03883E+03  6.87662E+02 -1.38105E+03  7.19156E+02
 -2.23712E+03  3.29454E+03 -4.10714E+03  1.98922E+03 -7.53947E+03 -1.09960E+02 -7.82297E+03 -4.64072E+03
 -4.46438E+03 -9.42226E+03  2.74138E+03 -1.10900E+04  6.68725E+03 -9.28599E+03  1.06574E+04 -3.42023E+03
  9.42096E+03  1.18241E+03  6.04876E+03  6.73160E+03  1.03574E+02  7.05506E+03 -2.63520E+03  4.60416E+03
 -3.45166E+03  1.71007E+03 -2.30408E+03 -1.39594E+03 -1.39720E+03 -4.96766E+02 -3.57904E+02  2.35554E+02
 -1.26488E+03 -1.29051E+02 -2.21298E+03 -1.72852E+01 -2.33884E+02 -1.82010E+03 -2.88793E+02 -3.08568E+03
  2.63208E+03 -1.91689E+03  3.69851E+03 -2.84284E+02  5.40375E+03  4.08916E+03  1.03555E+03  8.11038E+03
 -3.17372E+03  8.09231E+03 -8.35142E+03  5.01790E+03 -8.58042E+03 -1.25732E+03 -6.39561E+03 -5.64908E+03
 -3.20479E+03 -7.33571E+03  1.63237E+03 -6.87199E+03  4.95011E+03 -3.41602E+03  4.71727E+03 -4.26883E+00
  2.69232E+03  2.29207E+03 -1.17077E+02  2.69589E+03 -6.76191E+02  1.54465E+02 -2.01533E+02 -1.54135E+03
  2.54705E+03 -1.12698E+03  1.96575E+03  1.32635E+03  2.29705E+03  2.57123E+03 -2.98365E+02  3.64237E+03
 -3.13200E+03  3.37311E+03 -4.79229E+03  5.22150E+02 -3.93388E+03 -3.50661E+03 -4.15666E+02 -6.56591E+03
  3.78262E+03 -4.87061E+03  5.10073E+03 -1.30719E+03  5.88285E+03  7.26630E+02  3.48566E+03  4.62445E+03
  2.46420E+02  4.50345E+03 -2.09821E+03  3.91944E+03 -3.45507E+03  2.41256E+03 -2.61688E+03  8.61996E+02
 -9.86922E+02  5.81981E+02 -2.09641E+03  1.14165E+03 -2.47921E+03  9.71671E+02 -2.90394E+03 -5.11619E+02
 -4.26069E+03 -2.30499E+03 -1.22327E+03 -5.50399E+03  1.35074E+03 -5.62918E+03  3.81324E+03 -1.73496E+03
  4.39103E+03  9.56786E+02  2.97198E+03  3.57070E+03 -2.91728E+02  4.63589E+03 -3.64979E+03  2.97639E+03
