 $NMID ID='MM_0lb_SNR400_20hz_g40_70.RAW', FMTDAT='(8E13.5)'
 TRAMP=1., VOLUME=1. $END
  3.09840E+05 -1.68208E+02  3.37118E+05  2.49825E+05  8.44494E+04  3.37436E+05 -1.32757E+05  2.50379E+05
 -1.89518E+05  8.14685E+04 -1.10473E+05 -3.26767E+04  1.91798E+03 -5.00688E+04  5.36855E+04  3.63303E+02
  3.49648E+04  5.25605E+04 -1.71097E+04  7.44878E+04 -6.00917E+04  6.21223E+04 -8.26563E+04  3.12703E+04
 -7.91387E+04 -1.11712E+04 -5.58179E+04 -4.94322E+04 -1.50731E+04 -6.70555E+04  2.64137E+04 -4.43325E+04
  3.80797E+04  3.75706E+03  1.51413E+04  4.69585E+04 -3.33536E+04  4.52960E+04 -6.50835E+04 -7.37576E+02
 -5.10248E+04 -5.55637E+04 -5.88368E+03 -7.42631E+04  3.27299E+04 -5.26132E+04  4.47353E+04 -1.59509E+04
  4.07152E+04  1.12082E+04  3.01812E+04  2.41759E+04  1.63259E+04  2.72956E+04 -4.48307E+03  2.61897E+04
 -2.16824E+04  1.30481E+04 -1.95396E+04 -3.93185E+03  4.01915E+03 -7.43077E+03  2.07339E+04  9.84512E+03
  7.57224E+03  3.25214E+04 -2.99172E+04  3.31361E+04 -6.00141E+04  2.51804E+03 -5.45060E+04 -4.00981E+04
 -1.24011E+04 -5.96454E+04  3.74959E+04 -4.22979E+04  5.34971E+04 -1.63574E+03  3.04146E+04  3.01247E+04
 -6.34243E+03  3.16548E+04 -2.80064E+04  1.24523E+04 -2.63037E+04 -5.87848E+03 -1.29618E+04 -9.69096E+03
 -6.73027E+03 -1.07805E+04 -7.96539E+02 -1.58318E+04  6.62942E+03 -2.23485E+04  1.43666E+04 -1.39200E+04
  1.27948E+04  3.93184E+03 -5.22872E+03  1.29859E+04 -1.86819E+04 -1.80267E+03 -7.59563E+03 -2.86261E+04
  1.97677E+04 -3.94190E+04  4.30218E+04 -1.80186E+04  4.06890E+04  1.76288E+04  1.36325E+04  3.99956E+04
 -1.48795E+04  2.98533E+04 -2.23420E+04 -1.65237E+02 -7.36490E+03 -2.58682E+04  1.99182E+04 -2.95359E+04
  3.66724E+04 -6.42163E+03  2.95539E+04  2.23525E+04  1.41695E+04  4.03975E+04 -7.81808E+03  4.28755E+04
 -2.71163E+04  2.80511E+04 -3.55522E+04  7.96876E+03 -3.60239E+04 -1.46232E+04 -2.04585E+04 -3.26483E+04
  7.07484E+03 -3.21238E+04  2.82774E+04 -1.18967E+04  2.56072E+04  1.11131E+04  2.13595E+03  1.72172E+04
 -1.29747E+04  6.50556E+03 -9.33400E+03 -7.82793E+03  6.29666E+03 -9.92201E+03  1.71425E+04  6.78271E+03
  1.15903E+04  2.12734E+04 -7.17290E+03  2.21136E+04 -2.09213E+04  8.09804E+03 -2.34515E+04 -7.10075E+03
 -1.49263E+04 -1.56237E+04 -4.59718E+03 -1.49449E+04  3.18636E+03 -1.24140E+04  1.08699E+04 -1.28713E+04
  1.91051E+04 -1.09103E+04  2.64908E+04  4.44505E+02  1.96424E+04  1.47666E+04  3.93658E+03  3.05877E+04
 -1.53115E+04  2.61842E+04 -2.48544E+04  8.95396E+03 -1.91933E+04 -1.08916E+04 -3.89946E+03 -1.40154E+04
  3.62441E+03 -4.71758E+03 -1.66261E+03  5.12670E+03 -1.13520E+04  5.49696E+03 -1.17958E+04 -4.04144E+03
 -8.05946E+03 -1.43105E+04  4.01565E+03 -1.72894E+04  1.16956E+04 -1.28812E+04  1.30404E+04 -1.58787E+03
  7.70645E+03  9.96814E+03 -1.14664E+03  1.39941E+04 -9.42776E+03  7.69285E+03 -1.35203E+04 -3.06890E+03
 -1.07362E+04 -1.28845E+04 -8.61414E+02 -1.70438E+04  8.17627E+03 -1.40258E+04  1.49109E+04 -6.52423E+03
  1.33682E+04  4.14367E+02  9.54436E+03  3.85390E+03  4.99626E+03  2.53357E+02  6.50102E+03 -1.57334E+03
  1.25428E+04  2.55511E+03  1.27003E+04  1.15568E+04  7.50482E+03  2.26443E+04 -2.48344E+03  2.31491E+04
 -1.40203E+04  1.76682E+04 -2.16342E+04  8.25273E+03 -2.13334E+04 -1.73516E+03 -1.87259E+04 -1.17881E+04
 -9.31604E+03 -1.77930E+04  5.32793E+03 -1.69668E+04  1.46849E+04 -9.93776E+03  1.43772E+04  3.68867E+03
  6.15743E+03  1.00432E+04 -6.25430E+03  1.03673E+04 -1.22794E+04  2.53623E+03 -9.31670E+03 -7.15507E+03
 -2.04319E+02 -1.11290E+04  5.34313E+03 -8.69448E+03  7.02973E+03 -9.23081E+02  8.88178E+02  4.49564E+03
 -5.18046E+03  1.17570E+03 -2.83711E+03 -4.92488E+03  1.14516E+03 -8.79947E+03  7.13904E+03 -8.24670E+03
  1.09039E+04 -3.96961E+03  9.58242E+03  2.99885E+03  8.54263E+03  7.92225E+03  3.85589E+03  1.13170E+04
 -8.91537E+02  1.38904E+04 -7.75238E+03  8.67593E+03 -9.47856E+03  3.05027E+03 -7.54293E+03 -1.04186E+03
 -4.16357E+03 -2.84905E+03 -8.59499E+02  1.69511E+03 -2.07998E+03  2.00433E+03 -2.65179E+03  3.58748E+03
 -7.39961E+03 -9.47892E+02 -7.60391E+03 -6.79138E+03 -3.56402E+03 -1.04064E+04  2.89650E+03 -7.77296E+03
  6.10926E+03 -3.50634E+03  4.81499E+03  1.64590E+03  9.48375E+02  2.37372E+03 -2.60777E+03 -2.56471E+01
 -2.97152E+03 -4.65920E+03 -1.11533E+03 -6.33306E+03  3.58995E+03 -6.39468E+03  8.83905E+03 -3.11904E+03
  1.03362E+04  6.92942E+02  7.37041E+03  5.21148E+03  1.74417E+03  7.59700E+03 -4.54477E+03  7.57623E+03
 -6.38681E+03  2.66131E+03 -2.94222E+03 -9.48812E+02  1.67534E+03 -1.54455E+03  3.87398E+03 -9.57898E+02
  3.73467E+03  3.09832E+03  1.21223E+03  5.51061E+03 -4.14168E+03  5.65834E+03 -6.92057E+03  2.09141E+03
 -4.02790E+03 -2.82783E+03  3.83502E+02 -5.29792E+03  3.42791E+03 -2.76497E+03  2.30578E+03  7.26674E+02
  2.62663E+02  2.57045E+03 -3.86519E+03  3.89810E+03 -3.43986E+03  2.59178E+03 -3.38609E+03 -7.31917E+02
 -2.31520E+03 -4.49181E+03  8.61309E+02 -5.25631E+03  4.41620E+03 -4.02845E+03  5.10034E+03  5.51233E+02
  3.85577E+03  4.37449E+03  4.50244E+02  5.83469E+03 -4.14609E+03  3.37752E+03 -4.75023E+03 -1.75042E+02
 -4.96953E+03 -4.62893E+03 -1.68274E+03 -4.21335E+03  2.39247E+03 -4.03122E+03  2.39409E+03 -2.75393E+03
  2.84412E+03 -4.29938E+02  2.68159E+02  9.73908E+02  3.54814E+02  2.89097E+02 -5.17073E+02 -1.28998E+03
  2.51672E+03 -5.65214E+02  4.18996E+03  5.46841E+02  3.94023E+03  2.31153E+03  4.82170E+03  5.40680E+03
 -1.12282E+03  7.09440E+03 -6.29316E+03  4.87916E+03 -7.92202E+03  1.02659E+03 -6.34635E+03 -1.74411E+03
 -3.44782E+03 -5.51893E+03 -4.04475E+02 -4.63407E+03  1.74002E+03 -1.20740E+03  1.38354E+03 -1.72633E+03
  9.78744E+02 -1.06842E+03  2.11607E+03 -2.05906E+03  3.57595E+03 -1.40751E+03  3.15855E+03  5.37999E+02
  3.95944E+03  1.14033E+03  5.02433E+02  3.41890E+03 -1.28138E+03  1.63825E+03 -3.66866E+03  1.98452E+03
 -3.78931E+03 -9.24969E+02 -1.23588E+03 -2.48487E+03  3.51190E+02 -4.00774E+03  2.76558E+03 -4.22203E+03
  4.22400E+03 -2.56875E+03  5.76445E+03 -1.84921E+02  3.76574E+03  3.21666E+03  1.20176E+03  4.38100E+03
 -2.01571E+03  4.91857E+03 -2.79834E+03  1.41657E+03 -1.25126E+03 -7.89905E+02 -9.27157E+02  8.44474E+01
 -6.76367E+02  3.64814E+02 -6.12915E+02  1.36929E+03 -2.37357E+03  6.57128E+02 -3.31916E+03 -3.97705E+02
 -8.15089E+02 -3.70281E+03  1.05165E+03 -4.45839E+03  1.85728E+03 -3.74155E+03  1.98199E+03 -8.07172E+02
  3.12186E+03  2.25306E+03  1.18143E+03  2.27380E+03 -8.83229E+02  3.60257E+03 -1.61389E+03  2.29502E+03
 -2.75741E+03 -1.45079E+02 -2.47807E+03 -1.52222E+03  1.54815E+02 -3.13852E+03  1.12470E+03 -1.82586E+03
  1.95886E+03 -1.53671E+03  1.31726E+03  9.33003E+01  3.56207E+02  1.30053E+03  8.62282E+02 -1.46723E+02
  1.76193E+03  4.60522E+02  1.07304E+03  3.26145E+02  8.68896E+02  2.18291E+03  1.30692E+03  9.02665E+02
 -9.30550E+02  2.17437E+03 -1.60753E+03  3.36430E+03 -1.86258E+03  9.42940E+02 -3.52244E+03  3.81349E+02
 -1.39952E+03 -2.72597E+03  8.62367E+02 -4.15384E+03  1.34413E+03 -1.61582E+03  2.94774E+03 -2.75924E+02
  2.26505E+03  1.16173E+03 -8.82665E+01  1.99946E+03 -4.42537E+02  1.22629E+03 -6.60967E+02  2.84553E+02
 -2.11502E+02 -6.05284E+02  8.88011E+02 -1.37845E+03  1.40050E+03 -7.43830E+02  1.27733E+03  1.01233E+02
 -5.72219E+01 -3.05834E+01  4.83030E+02  1.55157E+02 -6.96704E+02  1.81113E+02  1.15687E+03 -1.78959E+02
 -4.54660E+01  1.29080E+02  1.32152E+03  6.76090E+02  5.10054E+02  1.29156E+03 -4.02390E+02  2.40112E+03
 -1.54304E+03  1.02545E+03 -1.51791E+03  1.71364E+01 -2.04884E+03 -5.40374E+02  1.32133E+02 -1.05011E+03
  5.54264E+00 -5.54056E+02  3.28322E+02 -5.21710E+02  3.92972E+02  9.64627E+02 -4.62569E+02  8.02528E+02
 -1.33408E+03  3.84674E+02 -8.28775E+02 -1.37884E+03 -3.70095E+02 -1.83782E+03  2.04829E+02 -9.89236E+02
  3.72122E+02 -6.68833E+02  9.47257E+02  2.29254E+02  9.42370E+02 -4.36987E+02  1.67420E+02  7.94339E+02
 -3.69437E+02 -6.47067E+01 -5.21599E+02 -6.82395E+02  1.72079E+02 -2.55643E+01  2.11469E+03 -9.25566E+02
  1.05101E+03  3.95702E+01  2.30801E+03  6.29122E+02  1.11483E+03  1.17148E+03 -3.72339E+02  1.01153E+03
 -1.19133E+03 -1.43490E+02 -9.42006E+02  1.07123E+02 -9.75910E+02  5.57632E+01  2.92976E+02 -1.76927E+02
  1.85779E+03 -4.61091E+02  5.84156E+02  7.89826E+02  5.96054E+01  9.81688E+02 -1.25026E+02  5.63080E+02
 -3.16037E+01  7.59996E+02 -6.10588E+02  2.92830E+02 -2.34544E+01  1.67189E+02 -8.06260E+02  5.65112E+02
 -1.04478E+03  1.45650E+03 -1.14262E+03  2.03539E+02 -1.32318E+03  7.61820E+02 -1.77322E+03 -1.00355E+02
 -8.90246E+02 -1.25082E+03  6.12733E+02 -1.66571E+03  7.66160E+02 -2.10282E+03  2.03530E+03 -8.20688E+02
  1.69164E+03 -1.55948E+02  4.46900E+02  1.36782E+03 -5.13362E+02  7.57671E+02 -2.30153E+02  6.82356E+02
 -5.73205E+02  1.04401E+03 -2.57679E+02  4.56305E+02 -3.78739E+02  1.88853E+02 -1.19358E+03 -4.39251E+01
 -1.04146E+03 -3.79672E+01 -7.29683E+02 -1.03029E+02  3.36514E+02 -6.69107E+02 -9.32026E+01 -6.85822E+02
  1.29753E+03 -4.79350E+02  7.17055E+01 -8.67029E+00  8.96622E+02  1.06524E+03 -5.19478E+02  1.46019E+03
 -2.32727E+02  1.83363E+03 -1.35135E+03  7.04562E+02 -1.26780E+03  2.32983E+01 -6.47905E+02 -7.33394E+02
 -9.32255E+02 -1.05600E+03  3.95887E+02 -6.70409E+02 -3.44917E+02 -4.35021E+02  1.50408E+02  7.86645E+01
  6.30117E+02  1.66935E+02  2.00199E+02 -2.19243E+02 -3.48840E+01  1.95253E+02 -2.83088E+02 -3.40495E+01
  4.11959E+02  4.87479E+02 -3.70807E+02  5.78688E+02 -2.21639E+02  5.34602E+02  1.06475E+02  5.77560E+01
 -1.14279E+02  5.41467E+02 -1.48956E+02  1.89297E+02 -1.91478E+02 -4.18112E+02  2.59386E+02 -6.82695E+02
  4.35823E+02 -3.61037E+02  5.03536E+02 -5.81489E+01  3.51231E+02 -4.93377E+02  2.19769E+02  5.78215E+02
  3.46815E+02  3.90709E+02 -5.44264E+02  4.37342E+02 -2.52745E+02  6.93634E+02 -7.96758E+02  2.33930E+02
 -8.15702E+01 -1.22380E+02 -1.84089E+02 -3.16614E+02 -6.29955E+01 -5.79938E+01 -1.06023E+03 -1.38046E+01
 -3.86541E+02  5.97514E+02 -4.64018E+02 -6.19514E+02  4.80382E+02 -1.31759E+03 -6.17008E+01  1.72904E+02
  5.58275E+02  5.19517E+02 -6.13004E+02  5.53180E+02  8.97080E+01  3.05692E+02 -6.42040E+02  6.87391E+02
