 $NMID ID='MM_0lb_SNR400_17hz_g40_85.RAW', FMTDAT='(8E13.5)'
 TRAMP=1., VOLUME=1. $END
  3.10082E+05  2.68657E+02  3.37336E+05  2.50471E+05  8.49236E+04  3.37904E+05 -1.32244E+05  2.50200E+05
 -1.90225E+05  8.24055E+04 -1.11358E+05 -3.31563E+04  1.36147E+03 -5.01792E+04  5.41130E+04  1.75549E+02
  3.51168E+04  5.26964E+04 -1.72703E+04  7.59028E+04 -6.07603E+04  6.28970E+04 -8.34111E+04  3.20474E+04
 -7.94121E+04 -1.15513E+04 -5.55588E+04 -4.96798E+04 -1.48780E+04 -6.82346E+04  2.67368E+04 -4.50673E+04
  3.89780E+04  3.94068E+03  1.54230E+04  4.71509E+04 -3.41077E+04  4.65203E+04 -6.55631E+04 -7.33332E+02
 -5.22393E+04 -5.61215E+04 -5.99291E+03 -7.54534E+04  3.34590E+04 -5.32506E+04  4.61177E+04 -1.63492E+04
  4.18200E+04  1.14425E+04  3.12252E+04  2.50554E+04  1.58844E+04  2.82797E+04 -4.08085E+03  2.63595E+04
 -2.18490E+04  1.25897E+04 -1.91778E+04 -4.32073E+03  4.16754E+03 -7.66518E+03  2.13363E+04  1.07910E+04
  7.41031E+03  3.31521E+04 -3.05325E+04  3.46442E+04 -6.13872E+04  1.94336E+03 -5.57678E+04 -4.09554E+04
 -1.25966E+04 -6.14666E+04  3.78805E+04 -4.36502E+04  5.54358E+04 -1.85942E+03  3.25832E+04  3.06954E+04
 -6.43467E+03  3.41166E+04 -2.86992E+04  1.36546E+04 -2.83012E+04 -5.64444E+03 -1.47124E+04 -1.03749E+04
 -7.18960E+03 -1.15188E+04 -1.10794E+03 -1.71504E+04  6.51214E+03 -2.28638E+04  1.54064E+04 -1.41823E+04
  1.20258E+04  4.00599E+03 -6.56046E+03  1.29056E+04 -1.99785E+04 -2.80008E+03 -8.08375E+03 -3.06442E+04
  2.13371E+04 -4.03088E+04  4.48017E+04 -1.90179E+04  4.21959E+04  1.89094E+04  1.45272E+04  4.24710E+04
 -1.57862E+04  3.08286E+04 -2.32293E+04  9.27184E+02 -8.88124E+03 -2.65834E+04  2.03172E+04 -3.15873E+04
  3.83103E+04 -7.05853E+03  3.22967E+04  2.27560E+04  1.59943E+04  4.28237E+04 -8.51328E+03  4.58415E+04
 -2.87745E+04  3.04250E+04 -3.77759E+04  8.65097E+03 -3.89495E+04 -1.54973E+04 -2.18674E+04 -3.47851E+04
  6.73674E+03 -3.45767E+04  2.94630E+04 -1.32811E+04  2.71716E+04  1.09966E+04  3.11929E+03  1.77160E+04
 -1.33993E+04  7.76995E+03 -9.19760E+03 -7.38827E+03  6.56818E+03 -1.01670E+04  1.74521E+04  7.52008E+03
  1.25190E+04  2.15841E+04 -6.57954E+03  2.34151E+04 -2.16496E+04  9.54599E+03 -2.54097E+04 -5.92942E+03
 -1.71962E+04 -1.69205E+04 -5.68316E+03 -1.76457E+04  4.08512E+03 -1.52808E+04  1.27433E+04 -1.56453E+04
  2.16627E+04 -1.17864E+04  2.85548E+04  1.34725E+03  2.11814E+04  1.67622E+04  3.81438E+03  3.33099E+04
 -1.58999E+04  2.86663E+04 -2.66318E+04  9.92704E+03 -1.96478E+04 -1.00882E+04 -3.98456E+03 -1.30766E+04
  2.16123E+03 -3.57919E+03 -2.98996E+03  5.68723E+03 -1.32982E+04  4.78056E+03 -1.40919E+04 -4.91305E+03
 -8.61737E+03 -1.59976E+04  4.05356E+03 -2.03445E+04  1.37350E+04 -1.43714E+04  1.51391E+04 -1.52520E+03
  9.19584E+03  1.13231E+04 -4.09306E+02  1.62426E+04 -1.08603E+04  9.06800E+03 -1.57078E+04 -3.59831E+03
 -1.15473E+04 -1.43184E+04 -1.23719E+03 -1.96592E+04  8.27115E+03 -1.61437E+04  1.65075E+04 -7.41955E+03
  1.48094E+04  5.67795E+01  1.11300E+04  3.67911E+03  5.62356E+03  9.60271E+02  7.78029E+03 -1.29709E+03
  1.47392E+04  2.85288E+03  1.53723E+04  1.30893E+04  9.55510E+03  2.54012E+04 -3.31819E+03  2.81805E+04
 -1.64705E+04  2.14479E+04 -2.54855E+04  1.07756E+04 -2.63152E+04 -1.59224E+03 -2.24046E+04 -1.50272E+04
 -1.06486E+04 -2.16076E+04  7.32649E+03 -1.99918E+04  1.72513E+04 -1.15716E+04  1.59902E+04  3.66379E+03
  6.51778E+03  1.15960E+04 -7.45356E+03  1.08250E+04 -1.41113E+04  2.20168E+03 -1.04927E+04 -8.60828E+03
 -3.62866E+02 -1.28740E+04  6.28155E+03 -9.78181E+03  8.51677E+03 -2.55125E+03  1.72812E+03  5.24973E+03
 -6.11074E+03  8.63711E+02 -3.98420E+03 -4.58213E+03  1.77718E+02 -1.10220E+04  7.65837E+03 -1.09521E+04
  1.32353E+04 -5.28816E+03  1.28781E+04  2.68021E+03  1.13112E+04  9.90515E+03  5.68725E+03  1.57243E+04
 -2.20805E+03  1.70480E+04 -1.02724E+04  1.04360E+04 -1.16057E+04  3.50631E+03 -8.94908E+03 -1.68783E+03
 -4.99345E+03 -3.65046E+03 -7.05886E+02  1.67301E+03 -2.17933E+03  1.74945E+03 -3.91237E+03  4.00852E+03
 -8.79025E+03 -7.43543E+02 -9.21768E+03 -7.54045E+03 -3.65035E+03 -1.22202E+04  3.64058E+03 -9.27817E+03
  7.48416E+03 -4.07843E+03  5.64614E+03  2.06425E+03  1.20205E+03  3.13725E+03 -3.43282E+03  1.17124E+02
 -3.87961E+03 -5.50453E+03 -9.49891E+02 -7.88018E+03  3.77581E+03 -8.03050E+03  1.07331E+04 -4.10465E+03
  1.26506E+04  8.32662E+02  9.52124E+03  6.42741E+03  1.91419E+03  9.01881E+03 -5.31651E+03  8.63774E+03
 -7.88214E+03  2.81660E+03 -4.33316E+03 -1.40011E+03  1.11578E+03 -2.21028E+03  4.79269E+03 -1.02102E+03
  4.27370E+03  3.69428E+03  5.56648E+02  6.56467E+03 -4.84905E+03  6.55661E+03 -8.17120E+03  2.14085E+03
 -5.08377E+03 -4.33683E+03  6.79516E+02 -6.72660E+03  4.33762E+03 -3.75185E+03  4.00819E+03  1.26772E+03
  2.29970E+02  3.52841E+03 -4.48231E+03  5.11168E+03 -5.43336E+03  1.88590E+03 -5.52510E+03 -8.04061E+02
 -2.60562E+03 -6.61997E+03  1.55377E+03 -7.94093E+03  6.96140E+03 -5.07535E+03  7.12361E+03  8.88122E+02
  5.39265E+03  5.83058E+03  2.26245E+01  7.70375E+03 -5.54494E+03  4.45903E+03 -5.99434E+03 -3.26841E+02
 -5.89428E+03 -4.82659E+03 -1.06660E+03 -5.49540E+03  2.65732E+03 -4.87073E+03  3.29440E+03 -2.92486E+03
  3.36249E+03  3.48406E+02 -3.79159E+02  1.51801E+03  4.73064E+02 -1.13781E+02  8.92275E+01 -2.01950E+03
  4.89888E+03 -7.59594E+02  6.13721E+03  8.73580E+02  6.06765E+03  3.87753E+03  5.82689E+03  8.13915E+03
 -1.70227E+03  9.40655E+03 -8.97020E+03  7.81504E+03 -1.07153E+04  1.55089E+03 -9.07378E+03 -3.10414E+03
 -4.83958E+03 -7.14651E+03 -6.60533E+02 -5.07078E+03  2.26626E+03 -2.33992E+03  2.15345E+03 -2.16708E+03
  1.52753E+03 -1.13266E+03  2.39288E+03 -2.74559E+03  3.65182E+03 -2.09462E+03  4.15627E+03  1.39850E+02
  5.22973E+03  1.13667E+03  1.57636E+03  3.94150E+03 -2.06814E+03  2.78959E+03 -4.91813E+03  2.57247E+03
 -5.91997E+03 -8.52098E+02 -1.97822E+03 -3.34533E+03  9.39803E+02 -5.94743E+03  3.82690E+03 -6.20768E+03
  5.59922E+03 -3.89336E+03  7.87387E+03  4.11195E+02  5.58971E+03  4.44036E+03  2.14384E+03  6.81816E+03
 -2.56445E+03  6.36782E+03 -4.00069E+03  2.05193E+03 -2.61509E+03 -1.10701E+03 -8.42072E+02 -9.45595E+02
  2.65777E+01  8.23915E+02 -8.84966E+02  2.39087E+03 -2.89788E+03  1.50128E+03 -4.69379E+03 -4.69150E+02
 -2.07421E+03 -4.75108E+03  2.25415E+02 -5.29763E+03  3.38454E+03 -4.90659E+03  4.09932E+03 -1.62142E+03
  4.85562E+03  2.67271E+03  2.14634E+03  4.30381E+03 -1.21272E+03  5.06918E+03 -2.80396E+03  3.20807E+03
 -5.02757E+03  8.28706E+02 -4.33284E+03 -1.92801E+03 -1.77537E+02 -4.18265E+03  2.00648E+03 -2.65707E+03
  3.12763E+03 -1.04788E+03  2.37467E+03  1.34679E+03  7.60232E+02  2.53195E+03  1.24417E+03  9.44442E+02
  1.63558E+03  1.11178E+03  1.43511E+03  8.33222E+02  1.51433E+03  2.81939E+03  1.47169E+03  1.96142E+03
 -1.55964E+03  3.52383E+03 -2.73700E+03  4.20559E+03 -3.80068E+03  1.31049E+03 -5.48459E+03 -4.88227E+02
 -2.37262E+03 -4.70485E+03  7.66933E+02 -5.32387E+03  2.71085E+03 -3.18045E+03  4.29876E+03 -7.06697E+02
  3.48415E+03  2.12544E+03  5.04847E+02  2.88438E+03 -4.74788E+02  1.35856E+03 -2.14434E+03 -5.94812E+01
 -4.40380E+02 -1.72521E+03  1.47037E+03 -2.27539E+03  2.13184E+03 -1.32027E+03  2.08803E+03  7.97284E+02
  2.01003E+02  5.65290E+02  6.63755E+02  1.59511E+01 -3.82722E+02  1.41849E+03  1.76940E+03 -5.35723E+02
  4.03334E+02  4.16104E+01  1.97021E+03  2.68782E+02  2.23984E+02  3.09192E+03 -3.66646E+02  3.31212E+03
 -2.45393E+03  2.19404E+03 -2.68640E+03  3.17547E+02 -2.84870E+03 -1.15394E+03 -2.01462E+01 -1.09365E+03
  7.77007E+02 -1.72179E+03  8.48417E+02 -1.06392E+03  7.94839E+02  1.35977E+03 -7.82674E+02  1.71338E+03
 -2.23329E+03  7.21737E+02 -1.81515E+03 -1.31562E+03 -5.94556E+02 -2.81285E+03  2.75364E+02 -2.50022E+03
  7.16417E+02 -9.92744E+02  1.73878E+03  3.76008E+02  1.60260E+03  1.97005E+02  2.80012E+02  1.04965E+03
 -3.18034E+02  4.08949E+01 -1.02414E+03  7.29303E+01  9.18839E+02 -1.16062E+03  1.89807E+03 -9.14981E+02
  1.54140E+03 -1.44922E+02  3.53292E+03  1.08955E+03  1.29728E+03  1.98158E+03  1.80291E+01  1.79626E+03
 -1.94632E+03  1.08483E+02 -1.96262E+03 -4.74423E+02 -1.33171E+03 -1.29578E+03  3.90027E+02 -9.98592E+02
  1.92952E+03 -7.88154E+02  7.45674E+02  2.92808E+02  4.79898E+02  1.51296E+03  6.27369E+02  1.30468E+03
 -5.28702E+02  9.06156E+02 -1.12424E+03 -1.39765E+02  2.99055E+02  3.83336E+02 -9.60275E+02  7.73208E+02
 -6.25344E+02  1.07034E+03 -2.18834E+03  8.88181E+02 -2.07476E+03  2.07683E+01 -2.77551E+03 -1.38777E+03
 -1.16567E+03 -3.33832E+03  1.35707E+03 -3.86648E+03  2.34140E+03 -3.17626E+03  3.37778E+03 -1.40260E+03
  3.04777E+03 -2.46955E+02  1.83805E+03  1.90074E+03 -5.00620E+02  1.92344E+03 -6.53772E+02  1.34042E+03
 -1.14726E+03  1.24531E+03 -9.34776E+02  1.42477E+02 -2.03492E+02  5.48927E+02 -7.95205E+02  1.23403E+02
 -1.19169E+03 -6.36585E+01 -7.78911E+02  4.11821E+02 -1.39448E+02 -6.34386E+02 -1.48225E+02 -1.10900E+03
  1.87509E+03 -8.51132E+02  1.13201E+03  2.15778E+02  1.57374E+03  1.15835E+03  3.50514E+02  1.96359E+03
 -1.78381E+03  2.78233E+03 -2.64460E+03  1.86663E+03 -3.05009E+03 -7.39230E+02 -1.90639E+03 -1.31707E+03
 -7.37754E+02 -2.22541E+03 -3.25044E+02 -1.76866E+03  6.24448E+02 -8.15037E+02  1.36928E+03 -9.03068E+01
  6.81476E+02  4.76709E+01  1.80343E+02  8.77781E+02 -7.35718E+02 -4.29920E+01 -6.40529E+01 -2.75784E+02
  8.85284E+02 -4.43413E+02  6.15139E+02  6.19405E+02 -4.44122E+01  5.14651E+02  8.16378E+02  1.04682E+02
 -1.03598E+03  9.98768E+02 -3.07966E+02 -5.18194E+02 -1.57962E+03 -5.42833E+02  7.91422E+02 -1.91515E+03
  1.18986E+03 -1.17212E+03  9.18435E+02 -4.93160E+01  1.02106E+03 -4.37034E+02  3.95589E+02  8.76832E+02
  6.95494E+02  7.32271E+02  1.15159E+02  2.85665E+02 -1.41395E+02  1.35237E+02 -8.71999E+02  1.69116E+02
 -8.87973E+01  2.10812E+02 -8.09338E+02  1.17822E+02 -7.07307E+02  2.56471E+02 -5.37602E+02 -2.45271E+02
 -1.44414E+03 -1.86366E+02 -1.21090E+03 -1.61562E+03  7.81455E+02 -2.17250E+03  1.00757E+03 -5.12078E+02
  6.94994E+02  3.50503E+00  1.89922E+02  9.19617E+02 -2.98064E+02  1.15020E+03  2.25743E+02  1.17381E+03
