 $NMID ID='MM_0lb_SNR400_13hz_g40_10.RAW', FMTDAT='(8E13.5)'
 TRAMP=1., VOLUME=1. $END
  3.09697E+05  1.49202E+02  3.37360E+05  2.50064E+05  8.42001E+04  3.37480E+05 -1.31713E+05  2.50364E+05
 -1.90212E+05  8.29466E+04 -1.11480E+05 -3.25397E+04  7.11305E+02 -5.10447E+04  5.37575E+04 -5.86403E+02
  3.52825E+04  5.28609E+04 -1.70813E+04  7.52185E+04 -6.04105E+04  6.31934E+04 -8.44291E+04  3.18799E+04
 -8.11885E+04 -1.12589E+04 -5.70979E+04 -5.10902E+04 -1.53964E+04 -6.92934E+04  2.81553E+04 -4.56185E+04
  3.98438E+04  4.26270E+03  1.57077E+04  4.78574E+04 -3.48086E+04  4.71138E+04 -6.72741E+04 -9.54205E+01
 -5.37991E+04 -5.67249E+04 -6.97583E+03 -7.62297E+04  3.33487E+04 -5.47878E+04  4.73735E+04 -1.77257E+04
  4.31435E+04  1.10389E+04  3.15744E+04  2.50716E+04  1.58617E+04  2.93373E+04 -5.29855E+03  2.69283E+04
 -2.17748E+04  1.24393E+04 -1.84596E+04 -4.46698E+03  5.49213E+03 -7.98563E+03  2.24516E+04  1.23098E+04
  7.07614E+03  3.55805E+04 -3.14018E+04  3.52183E+04 -6.32202E+04  2.09461E+03 -5.68146E+04 -4.25964E+04
 -1.25440E+04 -6.37644E+04  3.96915E+04 -4.51428E+04  5.80559E+04 -1.86685E+03  3.39427E+04  3.26847E+04
 -6.24220E+03  3.57819E+04 -3.00770E+04  1.57155E+04 -2.95064E+04 -3.84375E+03 -1.66366E+04 -1.15469E+04
 -7.98751E+03 -1.33290E+04 -7.11380E+01 -1.78311E+04  7.83949E+03 -2.28054E+04  1.51437E+04 -1.31861E+04
  1.15208E+04  4.98810E+03 -8.32540E+03  1.31376E+04 -2.12355E+04 -4.24866E+03 -8.29337E+03 -3.34565E+04
  2.30822E+04 -4.32131E+04  4.82721E+04 -1.94258E+04  4.53932E+04  1.91239E+04  1.52166E+04  4.40358E+04
 -1.61519E+04  3.28400E+04 -2.58577E+04  1.96117E+03 -1.01537E+04 -2.78676E+04  2.12163E+04 -3.44546E+04
  4.15447E+04 -9.10598E+03  3.47024E+04  2.42569E+04  1.78115E+04  4.62674E+04 -8.34917E+03  5.03979E+04
 -3.16626E+04  3.38129E+04 -4.23390E+04  9.55355E+03 -4.25844E+04 -1.68773E+04 -2.33054E+04 -3.84483E+04
  6.90215E+03 -3.76468E+04  3.13391E+04 -1.50290E+04  2.90984E+04  1.05256E+04  3.94413E+03  1.91809E+04
 -1.31519E+04  8.18009E+03 -1.08490E+04 -7.26279E+03  5.29468E+03 -1.07709E+04  1.76485E+04  6.49442E+03
  1.29864E+04  2.22351E+04 -6.06455E+03  2.50956E+04 -2.29629E+04  1.20085E+04 -2.81615E+04 -5.08954E+03
 -2.02622E+04 -1.74393E+04 -8.28897E+03 -2.01786E+04  3.98587E+03 -1.94014E+04  1.55010E+04 -1.81728E+04
  2.62857E+04 -1.23323E+04  3.30279E+04  2.34111E+03  2.39953E+04  1.95342E+04  4.93003E+03  3.65667E+04
 -1.77070E+04  3.02835E+04 -2.80077E+04  1.05793E+04 -2.07127E+04 -1.06217E+04 -5.44906E+03 -1.36821E+04
  1.87607E+03 -2.65326E+03 -5.06788E+03  6.46348E+03 -1.62385E+04  5.10120E+03 -1.63240E+04 -6.72822E+03
 -1.04044E+04 -1.86466E+04  5.79933E+03 -2.28813E+04  1.52281E+04 -1.63468E+04  1.77996E+04 -1.64550E+03
  1.12206E+04  1.29774E+04 -1.97394E+03  1.92531E+04 -1.27540E+04  1.07057E+04 -1.87824E+04 -4.16975E+03
 -1.36249E+04 -1.70707E+04 -1.95629E+03 -2.34866E+04  9.99117E+03 -1.87005E+04  1.93411E+04 -9.15045E+03
  1.76945E+04  1.03888E+02  1.26736E+04  4.06250E+03  6.96976E+03  5.21783E+02  9.58159E+03 -1.35122E+03
  1.69236E+04  2.91269E+03  1.92430E+04  1.54639E+04  1.28236E+04  3.02663E+04 -2.64246E+03  3.46983E+04
 -2.00332E+04  2.75977E+04 -3.22511E+04  1.35399E+04 -3.39803E+04 -2.23223E+03 -2.77849E+04 -1.97455E+04
 -1.18755E+04 -2.77810E+04  8.93693E+03 -2.48050E+04  2.16919E+04 -1.27165E+04  1.95440E+04  4.97532E+03
  7.32373E+03  1.41748E+04 -9.63171E+03  1.25878E+04 -1.64638E+04  1.95817E+03 -1.24340E+04 -1.04124E+04
 -3.62227E+02 -1.52007E+04  7.74195E+03 -1.16428E+04  9.90620E+03 -1.78565E+03  3.13909E+03  6.36747E+03
 -6.64427E+03  2.69482E+03 -6.31055E+03 -5.44992E+03 -4.49841E+02 -1.37303E+04  9.21359E+03 -1.35987E+04
  1.71402E+04 -7.81800E+03  1.79798E+04  2.92830E+03  1.56628E+04  1.29304E+04  7.30213E+03  2.03343E+04
 -3.01341E+03  2.25390E+04 -1.44026E+04  1.35250E+04 -1.65287E+04  3.66666E+03 -1.16639E+04 -3.54945E+03
 -5.59806E+03 -4.82639E+03 -8.16511E+02  1.38364E+03 -2.12609E+03  2.42527E+03 -4.70888E+03  4.58665E+03
 -1.10725E+04 -4.37503E+02 -1.08523E+04 -9.16067E+03 -4.85347E+03 -1.51507E+04  5.05180E+03 -1.15255E+04
  9.65413E+03 -5.01881E+03  7.36299E+03  3.32213E+03  6.18032E+02  4.90559E+03 -4.98379E+03 -4.86354E+02
 -4.74982E+03 -7.11291E+03 -9.87753E+02 -1.08653E+04  6.02613E+03 -1.13732E+04  1.44650E+04 -6.34776E+03
  1.62023E+04  1.79305E+03  1.20461E+04  9.77567E+03  1.60498E+03  1.30879E+04 -6.65936E+03  1.11221E+04
 -8.81436E+03  3.25979E+03 -4.81676E+03 -2.25094E+03  1.18912E+03 -2.99413E+03  6.97560E+03 -1.26289E+03
  5.98863E+03  4.97562E+03  1.22453E+03  8.95683E+03 -6.10658E+03  9.30030E+03 -1.09182E+04  1.73290E+03
 -7.05802E+03 -5.65703E+03  5.96134E+02 -9.30749E+03  6.03181E+03 -5.36897E+03  5.44672E+03  1.64368E+03
  1.78989E+03  5.80738E+03 -6.06085E+03  7.95881E+03 -9.40636E+03  3.32815E+03 -8.25966E+03 -2.43852E+03
 -5.17471E+03 -1.02218E+04  1.84820E+03 -1.14091E+04  9.94432E+03 -6.92591E+03  1.06489E+04  1.61962E+03
  7.55368E+03  8.06713E+03 -2.37709E+02  1.08075E+04 -7.81331E+03  6.45742E+03 -8.77904E+03 -1.13078E+03
 -8.19429E+03 -7.09741E+03 -1.84893E+03 -7.71343E+03  3.54685E+03 -6.45343E+03  5.14356E+03 -3.20683E+03
  3.53677E+03  1.34198E+03 -1.23056E+02  1.91839E+03  2.06058E+02 -2.20196E+03  6.19211E+02 -4.12547E+03
  7.38220E+03 -3.18127E+03  9.30968E+03  1.23789E+03  1.00990E+04  5.85178E+03  7.64707E+03  1.22203E+04
 -3.07322E+03  1.45578E+04 -1.18710E+04  1.12052E+04 -1.69244E+04  2.68648E+03 -1.34007E+04 -4.67052E+03
 -6.95588E+03 -1.06020E+04 -3.71801E+02 -9.84205E+03  2.56752E+03 -4.83907E+03  2.50550E+03 -3.44507E+03
  1.98078E+03 -2.15442E+03  2.90401E+03 -3.12196E+03  4.24164E+03 -1.70038E+03  5.32456E+03 -7.36937E+02
  6.37466E+03  1.42329E+03  2.70712E+03  5.56438E+03 -2.13107E+03  6.59312E+03 -7.79235E+03  4.53891E+03
 -8.57041E+03 -1.48569E+03 -5.42740E+03 -6.13430E+03 -3.65790E+02 -9.23842E+03  5.54943E+03 -9.92710E+03
  9.86869E+03 -5.41415E+03  1.13074E+04  1.23099E+03  8.11279E+03  7.66427E+03  1.65143E+03  1.09750E+04
 -3.77320E+03  9.43594E+03 -6.24601E+03  2.70107E+03 -3.95682E+03 -1.35436E+03 -1.37709E+03 -8.06871E+02
 -1.22551E+03  2.59309E+02 -8.61760E+02  2.93677E+03 -4.51321E+03  1.54160E+03 -6.09752E+03  4.07270E+01
 -4.33195E+03 -6.72832E+03  2.48553E+02 -8.87697E+03  5.05434E+03 -8.50206E+03  8.49580E+03 -2.71838E+03
  7.62451E+03  4.04669E+03  3.73103E+03  7.18873E+03 -1.69507E+03  8.47241E+03 -6.12541E+03  4.54698E+03
 -7.49335E+03  4.29980E+02 -5.93128E+03 -5.58419E+03 -1.35701E+02 -7.03470E+03  3.35170E+03 -4.50964E+03
  4.97039E+03 -2.02140E+03  3.92557E+03  1.49877E+03  1.37096E+03  2.65243E+03  1.03282E+03  1.39729E+03
  2.84931E+03  1.26056E+03  2.12491E+03  9.18315E+02  1.80306E+03  3.48169E+03  2.63953E+03  3.96815E+03
 -2.44293E+03  6.30820E+03 -5.79089E+03  7.04535E+03 -8.14889E+03  1.49277E+03 -8.74362E+03 -3.27854E+03
 -4.46900E+03 -7.92059E+03  1.67983E+03 -9.10719E+03  4.42909E+03 -5.93527E+03  6.57967E+03 -1.86975E+03
  4.69349E+03  3.53135E+03  5.33620E+02  4.78917E+03 -1.37545E+03  2.90419E+03 -2.82525E+03 -7.86277E+02
 -1.43093E+03 -3.68737E+03  1.93749E+03 -3.30408E+03  3.64824E+03 -1.76082E+03  2.89258E+03  5.31113E+02
  1.74231E+03  1.18014E+03  1.22562E+03  6.50436E+02 -5.36115E+02  1.54281E+03  1.95380E+03  1.66389E+02
  1.05203E+03 -2.37010E+02  3.83437E+03  1.65284E+03  1.02869E+03  4.90791E+03 -1.00293E+03  5.43807E+03
 -3.77091E+03  3.63478E+03 -4.90331E+03  1.47700E+03 -4.86064E+03 -1.85494E+03 -1.96574E+03 -2.33166E+03
  8.72706E+02 -3.27894E+03  2.15297E+03 -2.44580E+03  2.30010E+03  1.26987E+03 -8.74372E+02  2.84684E+03
 -3.49197E+03  1.71881E+03 -4.37096E+03 -2.34129E+03 -2.19808E+03 -4.53457E+03  5.04294E+02 -4.80887E+03
  2.08305E+03 -1.98972E+03  2.83994E+03 -5.63733E+01  3.16550E+03  8.14979E+02  3.41827E+02  2.50038E+03
 -1.36032E+03 -3.00539E+02 -2.45827E+03 -1.21495E+03  7.27213E+02 -2.84958E+03  3.81147E+03 -2.77496E+03
  4.52324E+03  2.04751E+02  5.00044E+03  2.52476E+03  1.42673E+03  4.62551E+03 -1.31796E+03  4.94191E+03
 -4.20629E+03  1.97411E+03 -4.83950E+03 -4.66180E+02 -1.94300E+03 -3.54157E+03  8.86134E+02 -1.99916E+03
  3.28574E+03 -8.27364E+02  2.48706E+03  1.56911E+03  6.09790E+02  2.94332E+03 -9.01595E+01  3.43314E+03
 -1.48584E+03  1.83508E+03 -7.76448E+02  5.65486E+02 -4.32463E+02  9.98637E+02 -1.63420E+03  1.46295E+03
 -1.02617E+03  1.94498E+03 -4.03254E+03  1.57029E+03 -4.94862E+03  9.51754E+01 -5.56466E+03 -2.76493E+03
 -3.03350E+03 -6.23937E+03  1.86844E+03 -7.66728E+03  4.53784E+03 -6.14834E+03  7.34853E+03 -1.92916E+03
  6.30913E+03  1.11749E+03  3.90604E+03  4.59445E+03  5.02479E+01  4.90883E+03 -1.58604E+03  3.80838E+03
 -3.11070E+03  8.48147E+02 -1.90856E+03 -1.06597E+03 -7.43234E+02 -2.68538E+02 -5.40793E+02  7.69235E+01
 -1.20859E+03  4.25089E+02 -1.17047E+03 -5.06411E+02  1.41937E+02 -1.27037E+03 -1.26648E+02 -1.82050E+03
  2.75656E+03 -1.33756E+03  2.54114E+03  3.55766E+02  3.62150E+03  2.81453E+03  3.74233E+02  5.20262E+03
 -2.24580E+03  5.62193E+03 -4.49198E+03  2.71255E+03 -4.84161E+03 -1.20633E+02 -4.14787E+03 -3.43942E+03
 -2.08984E+03 -5.01248E+03  7.63183E+02 -3.96390E+03  3.10534E+03 -1.89480E+03  2.99603E+03 -2.58371E+01
  1.80053E+03  1.70910E+03 -2.42528E+02  1.21757E+03 -1.36882E+03  8.72496E+00 -1.45558E+02  8.92518E+01
  1.41497E+03 -1.06884E+02  1.65801E+03  7.88207E+02  1.09497E+03  2.37215E+03  4.58951E+02  2.14439E+03
 -2.20720E+03  1.66561E+03 -2.97043E+03 -3.91918E+02 -3.49594E+03 -1.59842E+03 -3.68042E+02 -3.73895E+03
  2.71958E+03 -2.90841E+03  3.26261E+03 -6.34848E+02  3.93370E+03  2.94216E+02  2.15039E+03  2.34964E+03
  9.28728E+01  2.64421E+03 -1.47796E+03  1.93944E+03 -1.79660E+03  1.34425E+03 -2.28400E+03  2.91830E+01
 -7.33196E+02  2.61162E+02 -5.30342E+02 -9.59399E+01 -1.84085E+03  3.98791E+02 -2.65067E+03 -8.20031E+02
 -2.80891E+03 -1.54051E+03 -1.56512E+03 -2.66720E+03  1.63806E+03 -3.87091E+03  3.04879E+03 -7.59979E+02
  2.27338E+03 -1.98029E+02  1.27954E+03  1.47733E+03 -1.91537E+02  2.78331E+03 -2.19244E+03  2.31551E+03
