 $NMID ID='MM_0lb_SNR400_7hz_g60_12.RAW', FMTDAT='(8E13.5)'
 TRAMP=1., VOLUME=1. $END
  3.09873E+05 -6.16620E+02  3.37693E+05  2.51685E+05  8.42745E+04  3.38442E+05 -1.33000E+05  2.51504E+05
 -1.90998E+05  8.44516E+04 -1.12656E+05 -3.21751E+04 -7.68499E+02 -5.16821E+04  5.52601E+04 -2.84706E+02
  3.63949E+04  5.35716E+04 -1.62663E+04  7.62913E+04 -6.18433E+04  6.52325E+04 -8.56789E+04  3.30127E+04
 -8.29868E+04 -1.07649E+04 -5.79571E+04 -5.25880E+04 -1.53451E+04 -7.20740E+04  2.84579E+04 -4.74559E+04
  4.16472E+04  4.27688E+03  1.71517E+04  4.91619E+04 -3.54939E+04  4.86307E+04 -6.96255E+04  2.28968E+01
 -5.74076E+04 -5.85981E+04 -7.72976E+03 -8.03205E+04  3.60750E+04 -5.81782E+04  5.09287E+04 -1.85618E+04
  4.67814E+04  1.17029E+04  3.39956E+04  2.65631E+04  1.61215E+04  3.20154E+04 -6.41978E+03  2.70151E+04
 -2.23008E+04  1.22400E+04 -1.77775E+04 -6.30663E+03  7.59351E+03 -8.27102E+03  2.43920E+04  1.38132E+04
  6.13618E+03  3.83690E+04 -3.55534E+04  3.81132E+04 -6.77764E+04  1.73171E+03 -5.93449E+04 -4.70367E+04
 -1.28574E+04 -6.75321E+04  4.31399E+04 -4.83312E+04  6.26380E+04 -1.93868E+03  3.72346E+04  3.47809E+04
 -5.44031E+03  4.10825E+04 -3.31022E+04  2.06062E+04 -3.57924E+04 -2.79145E+03 -2.09155E+04 -1.22730E+04
 -1.11656E+04 -1.69982E+04  1.44405E+02 -2.03613E+04  8.90285E+03 -2.39445E+04  1.60191E+04 -1.26603E+04
  1.03824E+04  7.42411E+03 -1.20196E+04  1.30942E+04 -2.49431E+04 -8.38326E+03 -9.60998E+03 -4.06869E+04
  2.61289E+04 -4.88277E+04  5.39078E+04 -2.26659E+04  5.17496E+04  2.10513E+04  1.81129E+04  4.85824E+04
 -1.67175E+04  3.80773E+04 -2.87766E+04  3.16623E+03 -1.30550E+04 -3.01876E+04  2.29775E+04 -3.91514E+04
  4.66449E+04 -1.22594E+04  4.33082E+04  2.54003E+04  2.28438E+04  5.39728E+04 -7.90737E+03  5.94599E+04
 -3.78838E+04  4.04625E+04 -5.17742E+04  1.08976E+04 -5.01547E+04 -1.89525E+04 -2.68622E+04 -4.48461E+04
  8.54575E+03 -4.43545E+04  3.63587E+04 -1.81281E+04  3.34668E+04  1.07723E+04  5.14236E+03  2.23714E+04
 -1.41534E+04  1.03558E+04 -1.13855E+04 -7.42933E+03  5.56496E+03 -1.14797E+04  1.94550E+04  4.36139E+03
  1.53918E+04  2.24490E+04 -5.44467E+03  2.86147E+04 -2.45973E+04  1.58683E+04 -3.35381E+04 -2.82284E+03
 -2.86886E+04 -1.88428E+04 -1.31360E+04 -2.80910E+04  4.21311E+03 -2.97608E+04  2.19530E+04 -2.63892E+04
  3.64412E+04 -1.55912E+04  4.15836E+04  6.40774E+03  2.91202E+04  2.68150E+04  5.59731E+03  4.49266E+04
 -2.10198E+04  3.57117E+04 -3.21004E+04  1.22683E+04 -2.38321E+04 -1.00418E+04 -5.80511E+03 -1.28098E+04
  3.18977E+02 -1.77401E+02 -8.82681E+03  8.83974E+03 -2.25400E+04  5.27476E+03 -2.22171E+04 -1.20236E+04
 -1.28800E+04 -2.55908E+04  6.70709E+03 -3.07750E+04  2.08358E+04 -2.25696E+04  2.57930E+04 -1.34666E+03
  1.66766E+04  1.75292E+04 -8.99468E+02  2.58069E+04 -1.90647E+04  1.51688E+04 -2.66265E+04 -6.05221E+03
 -1.86573E+04 -2.21390E+04 -2.40361E+03 -3.21961E+04  1.37627E+04 -2.65309E+04  2.55710E+04 -1.43998E+04
  2.53979E+04 -1.12566E+03  1.82598E+04  5.75424E+03  1.04397E+04  1.50718E+03  1.37124E+04 -1.52896E+03
  2.41056E+04  2.90386E+03  2.94416E+04  2.14942E+04  2.08726E+04  4.18928E+04 -2.60716E+03  4.96324E+04
 -2.85545E+04  4.32260E+04 -4.86368E+04  2.23746E+04 -5.12001E+04 -3.66076E+03 -4.13908E+04 -3.07449E+04
 -1.55428E+04 -4.35210E+04  1.62597E+04 -3.75294E+04  3.16299E+04 -1.70117E+04  2.60198E+04  1.00025E+04
  8.05527E+03  2.22407E+04 -1.23779E+04  1.74850E+04 -2.28005E+04  2.49652E+03 -1.79049E+04 -1.42436E+04
 -2.72891E+02 -2.18334E+04  1.15277E+04 -1.76565E+04  1.58271E+04 -1.27781E+03  5.00796E+03  1.01945E+04
 -1.02443E+04  5.96078E+03 -1.16854E+04 -7.92715E+03 -3.23239E+03 -2.07217E+04  1.25616E+04 -2.33313E+04
  2.74313E+04 -1.42654E+04  3.15925E+04  3.18708E+03  2.74712E+04  2.10148E+04  1.27994E+04  3.38692E+04
 -7.64398E+03  3.68859E+04 -2.48356E+04  2.29886E+04 -2.66779E+04  4.54249E+03 -1.83568E+04 -7.56496E+03
 -8.13012E+03 -9.33859E+03 -2.33551E+02 -3.48736E+02 -3.27710E+03  4.21539E+03 -7.80313E+03  6.61365E+03
 -1.63568E+04 -1.16522E+03 -1.73021E+04 -1.37531E+04 -7.56718E+03 -2.22473E+04  7.11723E+03 -1.88710E+04
  1.48602E+04 -7.71696E+03  1.11117E+04  5.61752E+03 -9.09551E+02  8.35247E+03 -9.39718E+03  6.38221E+02
 -9.41763E+03 -1.11437E+04 -3.84219E+02 -1.82144E+04  1.16659E+04 -1.98373E+04  2.37221E+04 -1.18421E+04
  2.82227E+04  3.82878E+03  2.10519E+04  1.75881E+04  2.92264E+03  2.34020E+04 -1.23366E+04  1.82080E+04
 -1.55181E+04  4.05490E+03 -8.29087E+03 -3.86363E+03  2.58151E+03 -6.51067E+03  8.71172E+03 -1.17285E+03
  8.39393E+03  7.48391E+03  1.05887E+03  1.57313E+04 -1.10188E+04  1.46232E+04 -1.81170E+04  3.89187E+03
 -1.26817E+04 -9.92451E+03  6.41706E+02 -1.65332E+04  1.10898E+04 -7.79753E+03  1.21136E+04  3.83117E+03
  3.48205E+03  1.29320E+04 -9.70477E+03  1.45843E+04 -1.70419E+04  6.28174E+03 -1.84984E+04 -7.44764E+03
 -9.57507E+03 -1.93323E+04  5.02910E+03 -2.23419E+04  1.92219E+04 -1.28351E+04  2.13285E+04  3.40632E+03
  1.16226E+04  1.68541E+04 -3.44018E+03  1.95681E+04 -1.39586E+04  1.03560E+04 -1.61036E+04 -2.39657E+03
 -1.23004E+04 -1.36194E+04 -2.04222E+03 -1.49105E+04  7.32560E+03 -1.13253E+04  9.93989E+03 -4.88499E+03
  6.05848E+03  3.50077E+03 -1.31199E+03  2.92755E+03 -1.25796E+03 -5.34232E+03  3.04574E+03 -9.71040E+03
  1.45253E+04 -7.19265E+03  2.08396E+04  2.63778E+03  2.00809E+04  1.40279E+04  1.29325E+04  2.73246E+04
 -6.89319E+03  3.05090E+04 -2.54539E+04  2.24002E+04 -3.25091E+04  4.03335E+03 -2.73279E+04 -1.17035E+04
 -1.38056E+04 -2.15310E+04 -4.49696E+02 -1.88781E+04  7.12414E+03 -1.10495E+04  7.29891E+03 -6.11939E+03
  4.67387E+03 -3.38732E+03  5.03921E+03 -4.74325E+03  6.87473E+03 -4.82513E+03  9.65842E+03 -1.44777E+03
  1.41546E+04  3.33107E+03  7.18268E+03  1.23782E+04 -2.13258E+03  1.54045E+04 -1.43840E+04  1.22424E+04
 -1.98815E+04 -1.26301E+03 -1.28704E+04 -1.38382E+04 -2.70019E+03 -2.09679E+04  1.13207E+04 -2.14073E+04
  2.12656E+04 -1.11765E+04  2.63335E+04  3.78938E+03  1.73451E+04  1.88282E+04  2.43167E+03  2.28977E+04
 -9.95028E+03  1.84953E+04 -1.41240E+04  7.74219E+03 -1.02382E+04 -2.39841E+03 -3.74183E+03 -3.07870E+03
 -1.54553E+03 -1.61163E+02 -3.11149E+03  3.39904E+03 -7.53433E+03  3.27431E+03 -1.34538E+04 -2.18510E+03
 -1.03432E+04 -1.36730E+04 -4.67311E+02 -1.97662E+04  1.26891E+04 -1.75887E+04  2.03170E+04 -6.00176E+03
  2.08521E+04  8.79166E+03  9.13935E+03  1.73942E+04 -4.19032E+03  2.00780E+04 -1.53984E+04  1.28353E+04
 -1.89447E+04  1.83352E+03 -1.46580E+04 -1.17923E+04 -1.87354E+03 -1.70774E+04  9.39840E+03 -1.28152E+04
  1.16591E+04 -3.47549E+03  7.67621E+03  3.64133E+03  2.75904E+03  4.69974E+03  1.25519E+03  3.31180E+03
  3.81613E+03  6.79967E+02  4.86112E+03  3.14435E+03  5.45930E+03  7.07431E+03  5.35903E+03  1.05937E+04
 -3.17782E+03  1.69325E+04 -1.51342E+04  1.54001E+04 -2.13663E+04  3.97911E+03 -2.12886E+04 -9.25253E+03
 -1.08739E+04 -2.19213E+04  3.51632E+03 -2.26576E+04  1.33175E+04 -1.46180E+04  1.75392E+04 -3.46477E+03
  1.34548E+04  7.96824E+03  4.05085E+03  1.15548E+04 -6.04942E+03  8.54678E+03 -8.24283E+03 -1.44857E+03
 -4.59128E+03 -8.74083E+03  4.60468E+03 -9.67521E+03  9.30548E+03 -4.03131E+03  8.51015E+03  1.32134E+02
  4.95190E+03  4.65472E+03  2.02208E+03  4.63305E+03 -7.82171E+02  3.41727E+03  2.21305E+03 -5.22140E+02
  3.49745E+03 -9.49821E+02  7.96465E+03  2.81863E+03  5.07788E+03  1.08528E+04 -1.00183E+03  1.52504E+04
 -1.00244E+04  9.40054E+03 -1.38998E+04  3.11536E+03 -1.15774E+04 -4.75661E+03 -5.09722E+03 -9.05862E+03
  1.75891E+02 -9.38638E+03  6.52627E+03 -3.79557E+03  4.60465E+03  3.65448E+03 -2.65678E+03  6.74900E+03
 -9.14281E+03  4.53092E+03 -1.02748E+04 -4.75104E+03 -6.48321E+03 -1.20765E+04  2.86515E+03 -1.23511E+04
  7.70403E+03 -7.23774E+03  8.68337E+03 -1.11935E+03  7.14061E+03  4.27811E+03  7.49490E+01  5.87810E+03
 -5.18150E+03  2.02616E+03 -5.83417E+03 -4.29779E+03  1.24626E+03 -9.78398E+03  1.13309E+04 -8.02441E+03
  1.33702E+04  1.76618E+03  1.39498E+04  1.06846E+04  4.21861E+03  1.55416E+04 -6.08218E+03  1.27073E+04
 -1.20885E+04  7.71104E+03 -1.29619E+04 -3.25483E+03 -6.63451E+03 -9.97088E+03  1.75417E+03 -8.77710E+03
  8.95454E+03 -4.92867E+03  7.97693E+03  3.89470E+03  3.27838E+03  7.85029E+03 -2.08831E+03  7.68666E+03
 -3.08854E+03  5.12270E+03 -3.53979E+03  2.02878E+03 -1.72277E+03  3.94634E+02 -2.39691E+03  2.33078E+03
 -2.94576E+03  5.78536E+03 -9.77157E+03  5.22710E+03 -1.52998E+04  1.70119E+02 -1.61647E+04 -9.54809E+03
 -8.67754E+03 -2.00163E+04  3.77996E+03 -2.22312E+04  1.35324E+04 -1.74760E+04  2.11447E+04 -5.40478E+03
  2.05185E+04  4.54144E+03  1.21560E+04  1.36282E+04  1.25746E+03  1.61875E+04 -6.13431E+03  1.29008E+04
 -8.72531E+03  4.38917E+03 -4.88607E+03 -2.14199E+03 -1.20105E+03 -1.06082E+03 -1.24135E+03 -8.59946E+02
 -2.27265E+03  1.18195E+03 -3.12219E+03 -9.62912E+02 -1.14254E+03 -3.27776E+03 -1.01450E+02 -6.37421E+03
  5.58652E+03 -4.24269E+03  9.69682E+03  7.93533E+01  1.15968E+04  8.03491E+03  3.59432E+03  1.53908E+04
 -8.05639E+03  1.80787E+04 -1.73083E+04  1.08754E+04 -1.93728E+04 -5.16218E+02 -1.50662E+04 -1.14783E+04
 -6.31893E+03 -1.63138E+04  4.43854E+03 -1.51504E+04  1.12384E+04 -7.74676E+03  1.10401E+04  2.93945E+02
  6.28787E+03  5.47966E+03 -1.07824E+03  5.05710E+03 -3.42273E+03  6.73092E+01  3.70425E+01 -4.30953E+03
  5.52141E+03 -3.52856E+03  7.30737E+03  2.04384E+03  4.41269E+03  6.24096E+03  4.63044E+01  9.41004E+03
 -7.27658E+03  8.12358E+03 -1.09398E+04  5.39397E+02 -1.02352E+04 -7.96474E+03 -1.02925E+03 -1.43466E+04
  7.75506E+03 -1.26915E+04  1.39471E+04 -4.40490E+03  1.29846E+04  3.76076E+03  7.87122E+03  1.04266E+04
  1.15727E+03  1.05376E+04 -2.80482E+03  9.64076E+03 -6.64139E+03  4.16681E+03 -6.31722E+03  1.32145E+03
 -3.14156E+03  2.23301E+02 -3.36607E+03  1.53449E+02 -5.09285E+03  1.85661E+03 -8.55027E+03 -1.67914E+03
 -7.73344E+03 -6.53217E+03 -3.00852E+03 -1.14322E+04  5.43549E+03 -1.19367E+04  9.69093E+03 -6.33463E+03
  1.13447E+04  1.65638E+03  5.99528E+03  8.75989E+03  2.25532E+02  1.21314E+04 -8.72457E+03  7.32031E+03
