 $NMID ID='MM_0lb_SNR400_9hz_g45_18.RAW', FMTDAT='(8E13.5)'
 TRAMP=1., VOLUME=1. $END
  3.10116E+05  3.15409E+02  3.38049E+05  2.50552E+05  8.47908E+04  3.38453E+05 -1.33153E+05  2.51504E+05
 -1.90613E+05  8.38619E+04 -1.12333E+05 -3.24459E+04 -5.01445E+01 -5.08059E+04  5.32575E+04 -5.53385E+02
  3.64861E+04  5.27503E+04 -1.73185E+04  7.65107E+04 -6.12254E+04  6.47797E+04 -8.51391E+04  3.21797E+04
 -8.29778E+04 -1.19679E+04 -5.83375E+04 -5.21299E+04 -1.53401E+04 -7.13566E+04  2.76017E+04 -4.66555E+04
  4.08229E+04  4.27520E+03  1.61871E+04  4.89758E+04 -3.52905E+04  4.79772E+04 -6.70194E+04  1.31790E+02
 -5.53805E+04 -5.78628E+04 -7.29804E+03 -7.84505E+04  3.43966E+04 -5.59290E+04  5.07096E+04 -1.73370E+04
  4.53708E+04  1.18596E+04  3.30346E+04  2.68878E+04  1.59612E+04  3.01043E+04 -5.36578E+03  2.74836E+04
 -2.26297E+04  1.15442E+04 -1.80034E+04 -5.64273E+03  6.93075E+03 -6.76443E+03  2.38814E+04  1.22303E+04
  7.43952E+03  3.80711E+04 -3.41142E+04  3.68790E+04 -6.54103E+04  2.36160E+03 -5.83252E+04 -4.48693E+04
 -1.27529E+04 -6.54097E+04  4.09240E+04 -4.74679E+04  6.04818E+04 -1.98977E+03  3.63729E+04  3.39216E+04
 -5.77880E+03  3.95863E+04 -3.21426E+04  1.87682E+04 -3.30931E+04 -2.41973E+03 -1.89898E+04 -1.21239E+04
 -8.68804E+03 -1.49061E+04  7.26931E+02 -1.98088E+04  8.56822E+03 -2.35895E+04  1.58454E+04 -1.28641E+04
  1.05608E+04  6.13288E+03 -1.00334E+04  1.34966E+04 -2.39453E+04 -6.07189E+03 -8.82793E+03 -3.61334E+04
  2.54650E+04 -4.63623E+04  5.22464E+04 -2.08463E+04  4.84517E+04  2.04515E+04  1.77249E+04  4.74083E+04
 -1.58839E+04  3.65607E+04 -2.75329E+04  2.85661E+03 -1.08374E+04 -2.84243E+04  2.17982E+04 -3.67379E+04
  4.53359E+04 -1.16474E+04  3.99505E+04  2.43656E+04  2.09111E+04  5.06508E+04 -8.17967E+03  5.60158E+04
 -3.56901E+04  3.72452E+04 -4.71631E+04  1.13026E+04 -4.74525E+04 -1.84282E+04 -2.62820E+04 -4.11507E+04
  8.47337E+03 -4.13221E+04  3.37620E+04 -1.63779E+04  3.17491E+04  1.11773E+04  5.57545E+03  2.07213E+04
 -1.34097E+04  1.00511E+04 -1.15044E+04 -6.99724E+03  5.77776E+03 -1.15907E+04  1.80477E+04  5.65261E+03
  1.42445E+04  2.18456E+04 -5.66664E+03  2.68802E+04 -2.37698E+04  1.41310E+04 -3.08514E+04 -3.13468E+03
 -2.46870E+04 -1.91225E+04 -1.20581E+04 -2.50116E+04  3.51816E+03 -2.49026E+04  1.95540E+04 -2.27300E+04
  3.14158E+04 -1.47184E+04  3.73904E+04  4.72647E+03  2.67554E+04  2.43928E+04  4.50768E+03  4.10029E+04
 -1.90513E+04  3.25005E+04 -3.02413E+04  1.18651E+04 -2.11982E+04 -1.03977E+04 -4.40838E+03 -1.25569E+04
  1.36793E+03 -1.57782E+03 -6.96996E+03  8.11201E+03 -2.01175E+04  4.41728E+03 -2.04420E+04 -8.45169E+03
 -1.17128E+04 -2.25333E+04  6.44600E+03 -2.77513E+04  1.79455E+04 -1.95353E+04  2.20933E+04 -1.29494E+03
  1.41626E+04  1.60402E+04 -1.53491E+03  2.35048E+04 -1.62542E+04  1.35436E+04 -2.35663E+04 -4.74253E+03
 -1.69698E+04 -2.00267E+04 -2.57163E+03 -2.76587E+04  1.20326E+04 -2.28937E+04  2.24523E+04 -1.16758E+04
  2.19038E+04 -4.20711E+02  1.63536E+04  5.49227E+03  8.39498E+03  1.69835E+03  1.27007E+04 -1.41316E+03
  2.16294E+04  2.71394E+03  2.42215E+04  1.78781E+04  1.69266E+04  3.66599E+04 -2.55380E+03  4.31399E+04
 -2.44263E+04  3.58450E+04 -4.09225E+04  1.89777E+04 -4.36474E+04 -3.76849E+03 -3.52369E+04 -2.55355E+04
 -1.38351E+04 -3.67021E+04  1.27938E+04 -3.25752E+04  2.70827E+04 -1.53212E+04  2.38812E+04  7.62762E+03
  8.10504E+03  1.85049E+04 -1.18850E+04  1.51027E+04 -1.98123E+04  2.49939E+03 -1.53696E+04 -1.28096E+04
  2.60426E-01 -1.94693E+04  9.54552E+03 -1.46304E+04  1.34472E+04 -1.94089E+03  3.30270E+03  8.66913E+03
 -8.27988E+03  4.65353E+03 -9.53816E+03 -7.16847E+03 -1.28597E+03 -1.75448E+04  1.21878E+04 -1.91285E+04
  2.23067E+04 -1.06596E+04  2.52667E+04  3.17817E+03  2.23421E+04  1.71576E+04  1.03767E+04  2.75779E+04
 -5.21926E+03  3.01216E+04 -1.96065E+04  1.85007E+04 -2.28152E+04  4.23497E+03 -1.54702E+04 -5.20084E+03
 -6.61179E+03 -6.62784E+03 -1.83474E+02 -3.82789E+02 -2.43113E+03  4.03950E+03 -7.09156E+03  5.56569E+03
 -1.31977E+04 -7.56488E+02 -1.41643E+04 -1.15293E+04 -5.78133E+03 -1.91165E+04  6.25796E+03 -1.53729E+04
  1.27012E+04 -6.35468E+03  8.96271E+03  3.38820E+03  4.52395E+01  6.14619E+03 -7.24928E+03  9.35586E+01
 -7.41795E+03 -9.97146E+03 -1.27045E+03 -1.53467E+04  8.78935E+03 -1.56343E+04  2.01649E+04 -8.21112E+03
  2.29176E+04  2.51330E+03  1.72348E+04  1.38889E+04  2.57065E+03  1.86086E+04 -9.12724E+03  1.48322E+04
 -1.17337E+04  4.92237E+03 -6.89041E+03 -2.92843E+03  2.26563E+03 -4.04286E+03  6.92313E+03 -7.42456E+02
  7.18051E+03  6.72352E+03  2.25946E+03  1.32016E+04 -9.10069E+03  1.11773E+04 -1.53758E+04  2.65945E+03
 -1.00836E+04 -7.13926E+03 -5.58323E+02 -1.23197E+04  8.65237E+03 -5.91789E+03  9.17234E+03  2.77665E+03
  2.69199E+03  8.94154E+03 -8.11216E+03  1.14005E+04 -1.31157E+04  5.57656E+03 -1.38022E+04 -4.53200E+03
 -7.41506E+03 -1.55311E+04  3.86032E+03 -1.79143E+04  1.57813E+04 -1.05298E+04  1.65688E+04  3.22984E+03
  1.06858E+04  1.33751E+04 -1.45549E+03  1.53416E+04 -1.17333E+04  8.88123E+03 -1.22972E+04 -1.18045E+03
 -1.09290E+04 -1.01978E+04 -1.09769E+03 -1.18348E+04  6.73090E+03 -9.37315E+03  7.83541E+03 -3.93368E+03
  4.88212E+03  1.60984E+03 -1.35032E+03  2.13948E+03 -6.95528E+02 -3.00696E+03  2.44947E+03 -6.91959E+03
  1.18214E+04 -4.49202E+03  1.59569E+04  1.59576E+03  1.55092E+04  1.01501E+04  9.90993E+03  2.06639E+04
 -4.17510E+03  2.27578E+04 -1.97336E+04  1.65391E+04 -2.49733E+04  2.85134E+03 -2.01329E+04 -9.24713E+03
 -1.05229E+04 -1.72214E+04 -9.34039E+02 -1.40689E+04  4.16044E+03 -8.06588E+03  5.35415E+03 -4.14876E+03
  4.09839E+03 -3.26404E+03  4.72085E+03 -3.37206E+03  5.06771E+03 -3.40525E+03  7.59902E+03 -1.27659E+03
  1.00070E+04  2.08396E+03  5.81628E+03  1.03520E+04 -2.24711E+03  1.04014E+04 -1.10333E+04  8.71934E+03
 -1.47233E+04 -1.30937E+03 -9.34633E+03 -1.00967E+04 -1.43545E+03 -1.55857E+04  8.49849E+03 -1.62241E+04
  1.62546E+04 -8.38063E+03  1.82573E+04  1.99423E+03  1.34909E+04  1.37526E+04  2.61370E+03  1.72242E+04
 -6.62164E+03  1.39219E+04 -1.06043E+04  4.99080E+03 -6.80250E+03 -1.29777E+03 -2.83691E+03 -2.24993E+03
 -1.46342E+03 -5.37690E+01 -2.02219E+03  2.71432E+03 -5.51846E+03  2.06360E+03 -9.13937E+03 -1.04311E+03
 -7.40625E+03 -9.66910E+03  1.63904E+02 -1.51703E+04  7.90581E+03 -1.25934E+04  1.44734E+04 -4.23745E+03
  1.32245E+04  6.32621E+03  6.85953E+03  1.26856E+04 -3.41870E+03  1.48053E+04 -1.10071E+04  9.32344E+03
 -1.37010E+04  7.08458E+02 -1.07186E+04 -9.20797E+03 -9.14558E+02 -1.18909E+04  5.87321E+03 -9.20346E+03
  9.21537E+03 -2.29016E+03  6.04864E+03  2.08772E+03  1.73268E+03  5.39347E+03  2.63194E+02  2.11832E+03
  2.11091E+03  7.40753E+02  4.01171E+03  2.06761E+03  3.85413E+03  5.60300E+03  3.01448E+03  7.44466E+03
 -2.30135E+03  1.03107E+04 -9.91386E+03  1.20370E+04 -1.46511E+04  3.48076E+03 -1.52791E+04 -6.54109E+03
 -7.18075E+03 -1.43518E+04  2.01471E+03 -1.64034E+04  8.48157E+03 -1.01076E+04  1.15936E+04 -3.28192E+03
  9.07081E+03  5.46664E+03  2.30368E+03  8.41673E+03 -3.85356E+03  5.72708E+03 -5.75619E+03 -1.08596E+03
 -2.56261E+03 -6.06422E+03  3.05988E+03 -6.15146E+03  6.07952E+03 -3.63607E+03  5.71998E+03  1.08257E+03
  3.67549E+03  3.25344E+03  1.31675E+03  1.85022E+03 -7.79177E+02  1.73376E+03  2.51119E+03 -8.80417E+02
  2.07362E+03 -1.35053E+03  5.27968E+03  2.30858E+03  3.70135E+03  8.38788E+03 -1.49539E+03  9.90665E+03
 -7.75471E+03  7.20132E+03 -9.52585E+03  2.33580E+03 -7.92970E+03 -3.64553E+03 -2.93231E+03 -5.50393E+03
  1.34162E+03 -5.42747E+03  3.27555E+03 -2.47737E+03  2.98980E+03  2.79825E+03 -1.41929E+03  4.95056E+03
 -5.69764E+03  2.92588E+03 -6.88523E+03 -3.53113E+03 -3.82268E+03 -8.04310E+03  2.00100E+03 -8.93352E+03
  5.05048E+03 -4.85116E+03  6.16452E+03 -6.73805E+02  5.38741E+03  2.05347E+03  1.25896E+03  4.87988E+03
 -2.77967E+03  1.12643E+03 -3.07946E+03 -2.94590E+03  9.94480E+02 -6.11737E+03  6.88341E+03 -5.25874E+03
  1.00560E+04  6.79445E+02  9.34972E+03  6.28819E+03  1.72829E+03  9.87274E+03 -3.49055E+03  9.31724E+03
 -8.57018E+03  4.18100E+03 -8.48134E+03 -7.51986E+02 -4.49934E+03 -6.44281E+03  1.87103E+03 -6.45482E+03
  6.34604E+03 -2.51045E+03  5.21516E+03  2.44462E+03  1.74210E+03  5.30876E+03 -6.11425E+02  4.35150E+03
 -2.92770E+03  2.79702E+03 -2.69889E+03  1.75837E+03 -8.52673E+02  1.32280E+03 -1.40891E+03  2.10429E+03
 -2.64464E+03  4.05610E+03 -7.53376E+03  3.40350E+03 -9.26706E+03  4.05963E+02 -9.85148E+03 -6.32006E+03
 -5.54431E+03 -1.24517E+04  2.83959E+03 -1.47968E+04  9.79093E+03 -1.13322E+04  1.45135E+04 -4.36053E+03
  1.32991E+04  1.69176E+03  7.44546E+03  9.73735E+03 -3.03697E+01  9.76933E+03 -4.13631E+03  8.18162E+03
 -6.11620E+03  3.72402E+03 -3.66962E+03 -5.92030E+02 -2.10327E+03 -2.46795E+02 -1.38496E+02 -2.09669E+02
 -1.86301E+03  7.04734E+02 -1.40409E+03 -5.19646E+02 -8.18062E+02 -3.21449E+03  8.47004E+02 -3.78193E+03
  4.82748E+03 -3.29216E+03  6.22066E+03  1.19770E+02  7.38179E+03  5.27808E+03  1.89420E+03  1.10466E+04
 -4.92645E+03  1.17079E+04 -1.12129E+04  6.92123E+03 -1.24518E+04 -1.47650E+03 -8.85186E+03 -8.03159E+03
 -3.72512E+03 -1.06366E+04  2.58678E+03 -9.72863E+03  7.05751E+03 -5.13228E+03  6.36461E+03 -1.08854E+02
  3.75415E+03  3.16156E+03 -3.52864E+02  2.89154E+03 -2.18222E+03 -9.87397E+02  3.32250E+02 -2.42078E+03
  3.94657E+03 -1.55363E+03  3.23266E+03  1.47447E+03  2.83111E+03  4.79294E+03 -2.40163E+01  5.70401E+03
 -3.76594E+03  5.06350E+03 -6.40807E+03  6.15621E+02 -6.19198E+03 -5.43081E+03 -1.10439E+03 -9.32102E+03
  3.88645E+03 -7.23245E+03  8.09070E+03 -2.59703E+03  6.66986E+03  1.95626E+03  4.04160E+03  6.02317E+03
  2.03284E+03  6.32020E+03 -2.77563E+03  4.98526E+03 -4.46498E+03  2.94488E+03 -3.23712E+03  9.87513E+02
 -1.39242E+03 -8.41119E+02 -2.41989E+03  7.84066E+02 -3.16554E+03  1.22200E+03 -5.35640E+03 -1.59641E+03
 -5.82541E+03 -3.74207E+03 -1.28720E+03 -6.57206E+03  3.75686E+03 -6.88073E+03  6.45797E+03 -3.34606E+03
  6.39974E+03  3.32127E+02  2.81913E+03  5.31170E+03  1.73047E+02  7.17197E+03 -5.06278E+03  4.18564E+03
