 $NMID ID='MM_0lb_SNR400_11hz_g60_56.RAW', FMTDAT='(8E13.5)'
 TRAMP=1., VOLUME=1. $END
  3.09524E+05  4.01529E+02  3.38393E+05  2.50201E+05  8.52340E+04  3.38466E+05 -1.33074E+05  2.52023E+05
 -1.90336E+05  8.48439E+04 -1.12421E+05 -3.23951E+04  2.45135E+02 -5.10427E+04  5.38377E+04 -8.83800E+02
  3.56015E+04  5.29095E+04 -1.68346E+04  7.56397E+04 -6.03340E+04  6.39013E+04 -8.58794E+04  3.26984E+04
 -8.24327E+04 -1.11270E+04 -5.80292E+04 -5.22662E+04 -1.55416E+04 -7.10775E+04  2.79780E+04 -4.71831E+04
  4.11627E+04  3.62041E+03  1.68790E+04  4.81710E+04 -3.43541E+04  4.79640E+04 -6.82062E+04  4.43505E+02
 -5.50165E+04 -5.71650E+04 -7.55733E+03 -7.85131E+04  3.56144E+04 -5.67757E+04  4.97114E+04 -1.81643E+04
  4.48798E+04  1.13156E+04  3.20354E+04  2.67423E+04  1.61441E+04  3.07703E+04 -5.34349E+03  2.75991E+04
 -2.19750E+04  1.26303E+04 -1.80377E+04 -5.52395E+03  7.41422E+03 -7.33928E+03  2.30012E+04  1.38191E+04
  6.96674E+03  3.76266E+04 -3.39978E+04  3.70897E+04 -6.54874E+04  2.20995E+03 -5.81762E+04 -4.49199E+04
 -1.20422E+04 -6.50027E+04  4.14488E+04 -4.72083E+04  6.08640E+04 -2.19912E+03  3.65459E+04  3.30854E+04
 -5.23056E+03  3.87860E+04 -3.16905E+04  1.85789E+04 -3.24649E+04 -2.92670E+03 -1.89434E+04 -1.27578E+04
 -9.50259E+03 -1.45166E+04 -3.42754E+02 -2.02402E+04  9.15269E+03 -2.45555E+04  1.65857E+04 -1.23198E+04
  1.05199E+04  6.11012E+03 -1.03419E+04  1.26441E+04 -2.33758E+04 -6.61141E+03 -8.32852E+03 -3.66811E+04
  2.45930E+04 -4.72255E+04  5.15794E+04 -2.02896E+04  4.88172E+04  2.02387E+04  1.63610E+04  4.66976E+04
 -1.68282E+04  3.58091E+04 -2.74440E+04  3.58136E+03 -1.13600E+04 -2.89980E+04  2.03861E+04 -3.61436E+04
  4.38261E+04 -1.05593E+04  3.96106E+04  2.50065E+04  2.11736E+04  5.04187E+04 -8.34758E+03  5.59518E+04
 -3.42625E+04  3.75026E+04 -4.59921E+04  1.11576E+04 -4.71473E+04 -1.82297E+04 -2.63555E+04 -4.07090E+04
  7.71681E+03 -4.16350E+04  3.32947E+04 -1.61496E+04  3.08312E+04  1.13518E+04  4.83880E+03  2.09524E+04
 -1.44734E+04  9.38775E+03 -1.11653E+04 -8.24587E+03  5.79727E+03 -1.10439E+04  1.83343E+04  5.80946E+03
  1.47246E+04  2.27522E+04 -4.86877E+03  2.69175E+04 -2.38179E+04  1.37760E+04 -3.08394E+04 -3.17172E+03
 -2.50232E+04 -1.84950E+04 -1.07725E+04 -2.44991E+04  4.22122E+03 -2.49707E+04  1.84411E+04 -2.25698E+04
  3.11602E+04 -1.42499E+04  3.71536E+04  4.42969E+03  2.70920E+04  2.40411E+04  5.02104E+03  4.05192E+04
 -1.95152E+04  3.36914E+04 -3.00493E+04  1.12708E+04 -2.22430E+04 -1.01796E+04 -5.12734E+03 -1.35624E+04
  5.93944E+02 -1.71689E+03 -7.28725E+03  7.51168E+03 -1.92120E+04  4.78960E+03 -1.98863E+04 -9.05627E+03
 -1.24710E+04 -2.26843E+04  5.57608E+03 -2.74080E+04  1.80264E+04 -1.87122E+04  2.20292E+04 -1.87797E+03
  1.41364E+04  1.60914E+04 -2.26911E+03  2.24710E+04 -1.61317E+04  1.32211E+04 -2.30309E+04 -4.82986E+03
 -1.66357E+04 -2.00661E+04 -1.94854E+03 -2.66477E+04  1.24337E+04 -2.24312E+04  2.25421E+04 -1.17310E+04
  2.08388E+04  8.75516E+02  1.51744E+04  4.48648E+03  8.94081E+03  1.58318E+03  1.15914E+04 -2.30818E+03
  2.15284E+04  2.46887E+03  2.36888E+04  1.75330E+04  1.61388E+04  3.67456E+04 -3.22937E+03  4.21112E+04
 -2.44060E+04  3.49685E+04 -4.00223E+04  1.81782E+04 -4.16209E+04 -3.32532E+03 -3.41587E+04 -2.50283E+04
 -1.43841E+04 -3.56125E+04  1.25618E+04 -3.16896E+04  2.63515E+04 -1.44365E+04  2.33786E+04  7.26054E+03
  7.81098E+03  1.81341E+04 -1.08060E+04  1.50622E+04 -1.95195E+04  1.92903E+03 -1.48473E+04 -1.25106E+04
 -9.44527E+02 -1.91984E+04  1.06375E+04 -1.44704E+04  1.23431E+04 -1.39911E+03  2.17685E+03  8.43411E+03
 -8.59657E+03  3.58970E+03 -8.47611E+03 -6.56063E+03 -1.44974E+03 -1.77156E+04  1.21615E+04 -1.93325E+04
  2.21073E+04 -1.14640E+04  2.45420E+04  4.15686E+03  2.15549E+04  1.78101E+04  9.86869E+03  2.73067E+04
 -4.95944E+03  2.94879E+04 -1.92009E+04  1.76813E+04 -2.17192E+04  3.55700E+03 -1.38873E+04 -4.85348E+03
 -6.78949E+03 -6.38337E+03 -5.14284E+02  7.90387E+02 -3.52671E+03  3.16380E+03 -7.03069E+03  5.67651E+03
 -1.39083E+04 -8.90407E+02 -1.38067E+04 -1.06897E+04 -5.81275E+03 -1.87071E+04  6.69643E+03 -1.45745E+04
  1.17253E+04 -5.52366E+03  8.74959E+03  4.15619E+03 -2.35961E+02  5.82190E+03 -7.02590E+03 -6.26925E+01
 -6.94072E+03 -8.91782E+03 -1.40477E+03 -1.42463E+04  8.28884E+03 -1.49243E+04  1.88183E+04 -8.58653E+03
  2.18838E+04  1.79616E+03  1.56830E+04  1.41141E+04  2.99984E+03  1.77112E+04 -9.38486E+03  1.46580E+04
 -1.09625E+04  4.99053E+03 -6.05258E+03 -2.96484E+03  1.91961E+03 -4.34537E+03  8.50847E+03 -1.05605E+03
  6.79473E+03  6.06600E+03  8.54425E+02  1.11054E+04 -8.18649E+03  1.14075E+04 -1.42552E+04  1.97064E+03
 -1.01191E+04 -7.82369E+03  1.97692E+02 -1.18287E+04  8.33152E+03 -6.64873E+03  8.03458E+03  2.69421E+03
  1.99944E+03  9.70100E+03 -7.45826E+03  1.06340E+04 -1.27135E+04  4.67098E+03 -1.23416E+04 -3.83679E+03
 -6.94865E+03 -1.41358E+04  3.68774E+03 -1.58519E+04  1.43901E+04 -9.36627E+03  1.50152E+04  3.50961E+03
  9.23939E+03  1.24769E+04 -1.16358E+03  1.45439E+04 -1.07299E+04  8.44529E+03 -1.11409E+04 -1.04904E+03
 -9.89502E+03 -9.87226E+03 -1.05431E+03 -1.05680E+04  6.32628E+03 -8.71254E+03  6.46475E+03 -3.07022E+03
  4.86661E+03  1.44649E+03 -1.14878E+03  2.03774E+03  3.42078E+02 -2.92228E+03  1.42128E+03 -6.83220E+03
  1.03873E+04 -4.57737E+03  1.45124E+04  1.22765E+03  1.29448E+04  9.70145E+03  9.07999E+03  1.91482E+04
 -3.78716E+03  2.12394E+04 -1.81475E+04  1.56486E+04 -2.30528E+04  2.73042E+03 -1.89361E+04 -8.19285E+03
 -9.69186E+03 -1.41295E+04 -3.52467E+02 -1.24548E+04  4.92300E+03 -7.17181E+03  4.62033E+03 -4.63545E+03
  3.70401E+03 -2.53751E+03  3.97380E+03 -3.23781E+03  5.72884E+03 -2.10262E+03  7.29652E+03 -1.29834E+03
  9.24712E+03  2.06171E+03  5.20668E+03  8.48241E+03 -2.00766E+03  9.74586E+03 -9.67930E+03  8.60955E+03
 -1.26716E+04 -1.52990E+03 -8.82907E+03 -9.16718E+03 -1.25538E+03 -1.37021E+04  7.83071E+03 -1.41503E+04
  1.38467E+04 -7.17662E+03  1.80172E+04  2.06455E+03  1.21013E+04  1.23075E+04  2.18444E+03  1.60222E+04
 -6.26459E+03  1.30393E+04 -9.34662E+03  4.83639E+03 -6.74991E+03 -6.31613E+02 -2.75122E+03 -2.14150E+03
 -1.74885E+03 -5.31708E+02 -2.76166E+03  2.39656E+03 -5.03870E+03  2.71554E+03 -9.17172E+03 -1.31116E+03
 -4.88608E+03 -9.44781E+03 -7.51361E+02 -1.29652E+04  7.51182E+03 -1.15768E+04  1.28098E+04 -3.64605E+03
  1.14928E+04  6.87370E+03  6.38802E+03  1.09187E+04 -2.32330E+03  1.22308E+04 -9.55003E+03  7.51922E+03
 -1.16296E+04  6.78579E+02 -9.06601E+03 -7.69554E+03 -7.39833E+02 -1.09199E+04  5.89163E+03 -8.02567E+03
  7.81019E+03 -2.38430E+03  5.53546E+03  1.84722E+03  1.60040E+03  3.63841E+03  1.15447E+03  1.66104E+03
  2.27983E+03  4.71423E+02  3.45195E+03  2.06654E+03  3.06379E+03  4.05768E+03  4.02733E+03  6.51952E+03
 -2.57359E+03  9.90176E+03 -8.08216E+03  1.00247E+04 -1.31511E+04  2.19512E+03 -1.30411E+04 -4.82302E+03
 -7.05514E+03 -1.27490E+04  2.07380E+03 -1.39035E+04  7.75842E+03 -9.05531E+03  9.88155E+03 -2.25112E+03
  8.08280E+03  4.37380E+03  2.01975E+03  6.96549E+03 -3.68344E+03  5.17193E+03 -5.60310E+03 -9.59157E+02
 -2.54745E+03 -4.35048E+03  2.47449E+03 -5.36194E+03  4.46188E+03 -3.01010E+03  5.15199E+03  7.09052E+02
  2.42214E+03  1.84611E+03  1.50008E+03  1.75279E+03 -7.66009E+02  1.66109E+03  1.81506E+03 -2.38628E+02
  2.45559E+03 -2.81934E+02  5.62454E+03  2.07923E+03  3.27661E+03  6.66173E+03 -1.23924E+03  8.94991E+03
 -6.80692E+03  5.73092E+03 -8.43792E+03  1.61653E+03 -6.37910E+03 -2.78670E+03 -2.41431E+03 -4.66610E+03
  6.85527E+02 -4.85897E+03  3.52939E+03 -2.40774E+03  2.38463E+03  2.81588E+03 -1.24432E+03  3.58551E+03
 -4.57427E+03  2.09245E+03 -5.82209E+03 -3.64327E+03 -2.37512E+03 -6.85517E+03  1.25789E+03 -6.15560E+03
  4.41223E+03 -3.00919E+03  4.81395E+03  4.37998E+02  4.18535E+03  1.61468E+03  1.09312E+02  3.35231E+03
 -2.84968E+03  1.40025E+03 -3.13698E+03 -1.45137E+03  5.02230E+02 -4.68521E+03  5.36297E+03 -4.51439E+03
  7.29498E+03  6.70999E+02  8.02693E+03  5.28425E+03  2.71876E+03  8.51955E+03 -3.01755E+03  8.24313E+03
 -6.62032E+03  3.19034E+03 -7.04029E+03 -1.30245E+03 -3.91291E+03 -5.25544E+03  6.37308E+02 -5.00788E+03
  4.50047E+03 -2.04129E+03  4.24494E+03  2.75912E+03  1.19028E+03  4.62568E+03 -1.38378E+03  3.74951E+03
 -1.85218E+03  2.42792E+03 -1.44745E+03  1.13805E+03 -8.01108E+02  1.19346E+03 -1.39166E+03  1.93736E+03
 -2.26354E+03  2.61953E+03 -4.86066E+03  3.20134E+03 -7.32810E+03 -9.35912E+01 -8.82146E+03 -5.57302E+03
 -4.53380E+03 -9.68095E+03  2.05371E+03 -1.12765E+04  7.32419E+03 -9.14953E+03  1.08920E+04 -3.80216E+03
  1.00167E+04  1.97724E+03  6.34705E+03  7.46257E+03  3.34711E+02  7.85522E+03 -3.17026E+03  5.74869E+03
 -4.21490E+03  2.57272E+03 -2.67244E+03 -1.05135E+03 -5.87154E+02 -6.65419E+02 -1.24727E+03 -1.19157E+02
 -1.69538E+03  3.98590E+02 -2.56322E+03 -6.46828E+02 -7.03200E+02 -1.61756E+03  6.26490E+02 -3.09566E+03
  3.84582E+03 -2.99151E+03  4.21756E+03 -2.34066E+02  5.54961E+03  3.85972E+03  1.49459E+03  8.36814E+03
 -4.07467E+03  8.94181E+03 -8.83636E+03  4.95485E+03 -9.43999E+03 -1.02364E+03 -6.83633E+03 -5.51346E+03
 -3.27535E+03 -7.82802E+03  2.31913E+03 -7.80580E+03  5.22874E+03 -3.68252E+03  4.27673E+03  4.48373E+02
  3.29032E+03  2.54176E+03 -8.09555E+02  1.56433E+03 -1.95314E+03 -2.47547E+02 -4.80018E+02 -2.11919E+03
  3.00879E+03 -1.65518E+03  2.46676E+03  1.08543E+03  1.72872E+03  2.80821E+03  4.04716E+02  2.99551E+03
 -4.29354E+03  3.63580E+03 -5.47841E+03 -1.44326E+02 -4.44895E+03 -3.13875E+03 -2.48230E+02 -6.55414E+03
  3.35704E+03 -6.11972E+03  5.73246E+03 -1.32470E+03  5.67183E+03  1.28401E+03  3.42435E+03  5.28014E+03
  9.22930E+02  4.90533E+03 -2.27705E+03  3.51684E+03 -3.24712E+03  2.62451E+03 -2.58008E+03  7.88278E+02
 -5.84101E+02  8.55986E+02 -1.08909E+03 -1.94643E+02 -2.15882E+03  5.07932E+02 -3.95093E+03 -1.35735E+03
 -3.86837E+03 -2.37546E+03 -1.39337E+03 -4.93143E+03  2.45501E+03 -5.37117E+03  4.08148E+03 -2.48802E+03
  5.00165E+03  1.16862E+03  2.25123E+03  2.35856E+03 -1.06793E+03  4.20232E+03 -3.56863E+03  2.98276E+03
