 $NMID ID='MM_0lb_SNR400_9hz_g45_90.RAW', FMTDAT='(8E13.5)'
 TRAMP=1., VOLUME=1. $END
  3.09655E+05  4.30370E+02  3.37534E+05  2.50348E+05  8.44502E+04  3.37881E+05 -1.33346E+05  2.51845E+05
 -1.90181E+05  8.40032E+04 -1.11857E+05 -3.20542E+04  5.27370E+02 -5.02014E+04  5.40676E+04 -3.90423E+02
  3.55235E+04  5.27651E+04 -1.65009E+04  7.56587E+04 -6.11718E+04  6.41321E+04 -8.53876E+04  3.28718E+04
 -8.16873E+04 -1.19889E+04 -5.79053E+04 -5.29226E+04 -1.45630E+04 -6.98584E+04  2.83963E+04 -4.66875E+04
  4.09516E+04  3.54487E+03  1.63606E+04  4.83399E+04 -3.46592E+04  4.76503E+04 -6.88744E+04 -2.42645E+02
 -5.40019E+04 -5.73389E+04 -7.12320E+03 -7.86065E+04  3.51254E+04 -5.67402E+04  4.97645E+04 -1.73854E+04
  4.46941E+04  1.15278E+04  3.30777E+04  2.71299E+04  1.58194E+04  3.01570E+04 -5.89813E+03  2.65052E+04
 -2.25106E+04  1.20335E+04 -1.78689E+04 -5.44326E+03  6.60205E+03 -7.34405E+03  2.32470E+04  1.33296E+04
  7.24601E+03  3.73622E+04 -3.33619E+04  3.61549E+04 -6.58930E+04  2.76917E+03 -5.78504E+04 -4.43492E+04
 -1.24214E+04 -6.58910E+04  4.17250E+04 -4.68721E+04  6.06372E+04 -2.33392E+03  3.59686E+04  3.42135E+04
 -6.50622E+03  3.91741E+04 -3.15468E+04  1.88624E+04 -3.22274E+04 -3.98959E+03 -1.92604E+04 -1.26590E+04
 -9.50751E+03 -1.51426E+04 -3.40477E+01 -1.94075E+04  8.78980E+03 -2.32681E+04  1.54598E+04 -1.29963E+04
  1.08541E+04  5.95524E+03 -1.00152E+04  1.32562E+04 -2.28924E+04 -5.56217E+03 -8.15266E+03 -3.66474E+04
  2.55237E+04 -4.70016E+04  5.08975E+04 -2.08750E+04  4.74040E+04  1.99989E+04  1.67556E+04  4.67499E+04
 -1.64286E+04  3.53528E+04 -2.70005E+04  2.76074E+03 -1.15256E+04 -2.90355E+04  2.17406E+04 -3.71759E+04
  4.44764E+04 -1.06953E+04  3.94695E+04  2.47808E+04  2.07663E+04  5.05349E+04 -9.52622E+03  5.49806E+04
 -3.48300E+04  3.78408E+04 -4.69871E+04  1.13148E+04 -4.69666E+04 -1.81571E+04 -2.58264E+04 -4.16841E+04
  7.72076E+03 -4.10091E+04  3.31209E+04 -1.67921E+04  3.16466E+04  1.15287E+04  4.57494E+03  2.02834E+04
 -1.39105E+04  9.76594E+03 -1.08142E+04 -7.07303E+03  5.51765E+03 -1.11885E+04  1.84050E+04  5.79130E+03
  1.46404E+04  2.36188E+04 -5.19946E+03  2.78742E+04 -2.33377E+04  1.40359E+04 -3.02988E+04 -2.79559E+03
 -2.52901E+04 -1.89409E+04 -1.21075E+04 -2.43485E+04  3.95997E+03 -2.47681E+04  1.92210E+04 -2.30508E+04
  3.15655E+04 -1.39004E+04  3.77230E+04  5.39888E+03  2.69436E+04  2.37356E+04  3.42525E+03  4.05993E+04
 -1.94482E+04  3.26483E+04 -2.99476E+04  1.19630E+04 -2.21121E+04 -1.01517E+04 -5.36213E+03 -1.29773E+04
  2.25055E+02 -1.75466E+03 -7.49711E+03  8.03681E+03 -1.99629E+04  5.22877E+03 -1.99964E+04 -8.77943E+03
 -1.10054E+04 -2.35515E+04  6.03331E+03 -2.72073E+04  1.83399E+04 -1.90659E+04  2.24223E+04 -1.63840E+03
  1.46746E+04  1.62287E+04 -1.13656E+03  2.26495E+04 -1.73649E+04  1.30356E+04 -2.31334E+04 -5.16514E+03
 -1.65202E+04 -2.05996E+04 -2.01441E+03 -2.70470E+04  1.20965E+04 -2.30022E+04  2.29955E+04 -1.13121E+04
  2.16675E+04 -1.75604E+01  1.60388E+04  5.31379E+03  8.46710E+03  7.89282E+02  1.14641E+04 -2.25456E+03
  2.14601E+04  3.05000E+03  2.44471E+04  1.76926E+04  1.71994E+04  3.70500E+04 -3.41956E+03  4.37464E+04
 -2.52654E+04  3.58630E+04 -4.16992E+04  1.88369E+04 -4.36604E+04 -3.04341E+03 -3.52818E+04 -2.57553E+04
 -1.44180E+04 -3.63276E+04  1.20817E+04 -3.15196E+04  2.75544E+04 -1.54172E+04  2.41371E+04  7.38992E+03
  8.49140E+03  1.85963E+04 -1.07885E+04  1.57481E+04 -2.04756E+04  1.99795E+03 -1.49215E+04 -1.34850E+04
 -3.10706E+02 -1.92189E+04  1.02102E+04 -1.46678E+04  1.35914E+04 -1.71041E+03  3.69698E+03  8.78821E+03
 -8.76820E+03  4.12540E+03 -8.63970E+03 -6.70898E+03 -1.90778E+03 -1.78044E+04  1.23622E+04 -1.92866E+04
  2.21944E+04 -1.12175E+04  2.58268E+04  3.12917E+03  2.18509E+04  1.85630E+04  1.05673E+04  2.85343E+04
 -6.05963E+03  2.92729E+04 -1.98487E+04  1.90286E+04 -2.12023E+04  3.89919E+03 -1.49815E+04 -5.31927E+03
 -6.92818E+03 -7.06937E+03 -9.99794E+02  8.42296E+02 -2.93913E+03  3.57708E+03 -7.54602E+03  5.27434E+03
 -1.34122E+04 -5.03422E+02 -1.45478E+04 -1.15471E+04 -5.77413E+03 -1.92898E+04  6.31880E+03 -1.56450E+04
  1.25477E+04 -6.84426E+03  8.93719E+03  3.21689E+03 -1.04161E+02  5.92728E+03 -7.28873E+03 -7.10953E+02
 -7.73034E+03 -1.01792E+04 -1.87775E+03 -1.56945E+04  9.14036E+03 -1.55688E+04  1.95556E+04 -9.24415E+03
  2.31912E+04  1.85913E+03  1.63410E+04  1.41352E+04  3.30765E+03  1.80184E+04 -9.35722E+03  1.52634E+04
 -1.23021E+04  4.80098E+03 -6.17068E+03 -3.29437E+03  1.46288E+03 -5.17908E+03  8.52254E+03 -1.39847E+03
  7.50985E+03  6.36171E+03  1.24120E+01  1.23950E+04 -9.08368E+03  1.10128E+04 -1.54529E+04  2.65861E+03
 -1.03652E+04 -8.22322E+03 -9.09285E+01 -1.28941E+04  8.87085E+03 -6.14614E+03  9.62171E+03  3.29578E+03
  1.37637E+03  9.35286E+03 -8.15457E+03  1.19160E+04 -1.33464E+04  5.07691E+03 -1.35738E+04 -4.71957E+03
 -7.77335E+03 -1.50371E+04  4.23178E+03 -1.82138E+04  1.44174E+04 -1.05908E+04  1.64786E+04  2.77797E+03
  1.03200E+04  1.34118E+04 -1.57972E+03  1.55126E+04 -1.07917E+04  8.67918E+03 -1.34506E+04 -1.45472E+03
 -1.07702E+04 -1.02406E+04 -2.04986E+03 -1.15411E+04  6.10408E+03 -9.33620E+03  7.77055E+03 -3.36840E+03
  4.56122E+03  2.69762E+03 -8.44137E+02  2.17477E+03 -5.80277E+01 -3.41300E+03  1.91900E+03 -8.16388E+03
  1.15922E+04 -4.76509E+03  1.57298E+04  1.69358E+03  1.51776E+04  1.07579E+04  9.89385E+03  1.97056E+04
 -5.46601E+03  2.31165E+04 -1.85869E+04  1.76894E+04 -2.53128E+04  2.53774E+03 -2.07863E+04 -8.38276E+03
 -9.70506E+03 -1.63070E+04 -6.25960E+02 -1.42547E+04  5.71181E+03 -8.66058E+03  4.91122E+03 -4.75030E+03
  3.60465E+03 -3.13308E+03  4.28689E+03 -3.52699E+03  5.06367E+03 -3.55859E+03  8.39329E+03 -1.31657E+03
  1.05289E+04  1.71866E+03  5.69200E+03  9.90696E+03 -1.73432E+03  1.12199E+04 -1.13537E+04  8.64148E+03
 -1.50640E+04 -5.63094E+02 -9.93839E+03 -1.02275E+04 -1.02483E+03 -1.51060E+04  8.39197E+03 -1.59129E+04
  1.56159E+04 -8.69020E+03  1.92969E+04  2.43470E+03  1.36778E+04  1.37083E+04  2.63095E+03  1.76459E+04
 -6.80697E+03  1.44047E+04 -9.92894E+03  4.80311E+03 -6.45623E+03 -1.04463E+03 -2.11975E+03 -1.94719E+03
 -9.04651E+02  6.46794E+01 -1.27281E+03  3.10559E+03 -6.45312E+03  3.06840E+03 -9.56150E+03 -1.66793E+03
 -6.51040E+03 -1.09482E+04 -2.15405E+02 -1.39743E+04  9.28651E+03 -1.33177E+04  1.44645E+04 -4.82268E+03
  1.38952E+04  6.53925E+03  6.48434E+03  1.23091E+04 -2.57778E+03  1.40923E+04 -1.00842E+04  8.87501E+03
 -1.41365E+04  1.45207E+02 -1.05540E+04 -9.08086E+03 -9.41364E+02 -1.20971E+04  5.94429E+03 -8.78125E+03
  8.91550E+03 -3.61302E+03  6.36050E+03  2.30275E+03  2.54026E+03  4.37467E+03  1.43537E+03  1.48197E+03
  2.18666E+03  1.05394E+03  2.95194E+03  2.09711E+03  3.20606E+03  4.79113E+03  3.72922E+03  7.47080E+03
 -2.92219E+03  1.17291E+04 -1.01673E+04  1.12272E+04 -1.48557E+04  2.68197E+03 -1.54565E+04 -6.97556E+03
 -7.79754E+03 -1.39882E+04  2.29497E+03 -1.67293E+04  8.76637E+03 -1.02783E+04  1.16206E+04 -2.40288E+03
  9.88622E+03  4.73193E+03  2.35622E+03  8.65472E+03 -4.25972E+03  5.25685E+03 -5.46589E+03 -6.98429E+02
 -2.99262E+03 -6.19927E+03  2.91235E+03 -6.34925E+03  6.44859E+03 -3.80077E+03  6.17636E+03  1.15187E+03
  3.32752E+03  2.88698E+03  1.05468E+03  2.41648E+03 -5.01476E+02  2.01537E+03  2.39361E+03 -9.37770E+02
  2.78884E+03 -1.14939E+03  6.37040E+03  2.69658E+03  3.42871E+03  8.47872E+03 -1.45312E+03  1.01929E+04
 -7.01773E+03  6.73545E+03 -9.55530E+03  2.52975E+03 -8.48115E+03 -4.07815E+03 -4.02998E+03 -6.23519E+03
  1.54729E+03 -5.24479E+03  4.14428E+03 -2.81723E+03  2.87825E+03  3.28516E+03 -1.51857E+03  4.81931E+03
 -6.79664E+03  3.22347E+03 -6.98406E+03 -3.41519E+03 -4.14583E+03 -8.15691E+03  1.09993E+03 -7.96311E+03
  5.20928E+03 -4.69653E+03  5.67240E+03 -4.46270E+02  5.28017E+03  1.87220E+03  3.89346E+02  4.41850E+03
 -3.09455E+03  9.33090E+02 -3.14893E+03 -2.81663E+03  1.37439E+03 -5.50448E+03  6.83738E+03 -4.24432E+03
  9.85459E+03  6.13428E+02  8.43842E+03  5.96858E+03  3.00221E+03  1.01999E+04 -3.31911E+03  9.80790E+03
 -7.41721E+03  4.33454E+03 -7.85777E+03 -6.12781E+02 -4.34596E+03 -6.80262E+03  1.76912E+03 -5.72795E+03
  6.31668E+03 -3.73865E+03  5.15308E+03  3.29485E+03  1.58856E+03  5.37954E+03 -7.01196E+02  4.83678E+03
 -2.48966E+03  3.01710E+03 -2.60549E+03  6.95123E+02 -9.69288E+02  9.24021E+02 -2.32532E+03  1.34117E+03
 -2.72843E+03  3.65363E+03 -6.81473E+03  3.15281E+03 -9.18015E+03 -8.21447E+01 -1.09116E+04 -7.16785E+03
 -5.70076E+03 -1.30744E+04  3.17729E+03 -1.47991E+04  8.52229E+03 -1.13921E+04  1.41738E+04 -4.55794E+03
  1.36372E+04  2.16478E+03  7.32032E+03  8.62300E+03  1.47444E+03  1.05333E+04 -3.74879E+03  8.08109E+03
 -5.61865E+03  3.11787E+03 -3.60049E+03 -1.43154E+03 -4.42458E+02 -9.61005E+02 -4.33147E+02 -7.22210E+02
 -8.75997E+02  3.65757E+02 -2.74219E+03  9.12971E+01 -5.99890E+02 -2.84908E+03  9.51937E+01 -3.78069E+03
  4.60759E+03 -3.36440E+03  6.77231E+03  1.76922E+02  7.43801E+03  4.68794E+03  2.17457E+03  1.05013E+04
 -4.83746E+03  1.05151E+04 -1.16950E+04  7.09722E+03 -1.20200E+04 -1.61033E+03 -8.83720E+03 -7.86969E+03
 -4.29779E+03 -1.00270E+04  3.12700E+03 -9.69374E+03  7.11493E+03 -5.52578E+03  7.23147E+03  5.98852E+02
  3.68298E+03  2.96984E+03 -9.11778E+02  2.61199E+03 -2.06157E+03 -1.54508E+02  6.84975E+02 -1.44819E+03
  3.66323E+03 -2.00930E+03  4.58401E+03  1.59107E+03  2.86059E+03  3.77114E+03 -2.03244E+02  4.79616E+03
 -4.74969E+03  4.53861E+03 -7.23451E+03  5.30771E+02 -5.64609E+03 -4.11908E+03 -3.53485E+02 -8.71789E+03
  5.59752E+03 -7.38037E+03  7.95547E+03 -2.59001E+03  7.68442E+03  1.70751E+03  3.79759E+03  6.15378E+03
  1.04950E+03  6.21901E+03 -2.10220E+03  4.73115E+03 -4.46457E+03  3.51042E+03 -3.61222E+03 -4.01732E+02
 -2.36213E+03 -9.79518E+02 -1.71846E+03  1.28161E+03 -3.55612E+03  1.23186E+03 -5.53110E+03 -8.72793E+02
 -5.03232E+03 -3.93470E+03 -9.78128E+02 -7.43182E+03  3.73563E+03 -6.43041E+03  5.35799E+03 -3.52504E+03
  7.00427E+03  3.92886E+02  3.21617E+03  4.64822E+03 -4.71881E+02  6.79641E+03 -5.73613E+03  3.87695E+03
