 $NMID ID='MM_0lb_SNR400_8hz_g45_11.RAW', FMTDAT='(8E13.5)'
 TRAMP=1., VOLUME=1. $END
  3.10550E+05  4.95376E+02  3.38236E+05  2.50611E+05  8.47615E+04  3.39042E+05 -1.32402E+05  2.52040E+05
 -1.91068E+05  8.41428E+04 -1.12479E+05 -3.25728E+04 -1.04046E+02 -5.03611E+04  5.34291E+04 -5.89654E+02
  3.51446E+04  5.29679E+04 -1.56904E+04  7.59106E+04 -6.09870E+04  6.47625E+04 -8.57371E+04  3.29093E+04
 -8.30366E+04 -1.08472E+04 -5.81129E+04 -5.24954E+04 -1.47805E+04 -7.11019E+04  2.78477E+04 -4.71875E+04
  4.16030E+04  3.63660E+03  1.74741E+04  4.90800E+04 -3.50227E+04  4.79097E+04 -6.85981E+04  5.17133E+02
 -5.51998E+04 -5.81812E+04 -7.43099E+03 -7.88615E+04  3.45889E+04 -5.73988E+04  4.97059E+04 -1.86976E+04
  4.55702E+04  1.12980E+04  3.24309E+04  2.73760E+04  1.51121E+04  2.98762E+04 -5.89745E+03  2.72124E+04
 -2.32091E+04  1.16111E+04 -1.82066E+04 -5.94105E+03  7.55869E+03 -6.94093E+03  2.38563E+04  1.37714E+04
  7.20153E+03  3.67218E+04 -3.39669E+04  3.73354E+04 -6.58563E+04  1.28338E+03 -5.89513E+04 -4.48728E+04
 -1.27314E+04 -6.58637E+04  4.05161E+04 -4.72299E+04  6.12736E+04 -2.32997E+03  3.57087E+04  3.49872E+04
 -4.85980E+03  3.99644E+04 -3.20632E+04  1.93323E+04 -3.33781E+04 -3.74420E+03 -1.93439E+04 -1.13253E+04
 -1.07008E+04 -1.55692E+04 -3.19767E+02 -1.96049E+04  8.25236E+03 -2.38091E+04  1.61796E+04 -1.24039E+04
  9.65213E+03  6.71616E+03 -1.06296E+04  1.27540E+04 -2.36216E+04 -7.02883E+03 -8.99137E+03 -3.77222E+04
  2.47120E+04 -4.75589E+04  5.17759E+04 -2.14496E+04  4.87839E+04  2.13124E+04  1.69873E+04  4.64894E+04
 -1.61357E+04  3.66979E+04 -2.73249E+04  2.39592E+03 -1.24919E+04 -2.91409E+04  2.26880E+04 -3.74770E+04
  4.50501E+04 -1.07405E+04  4.17315E+04  2.57773E+04  2.12159E+04  5.11092E+04 -8.27869E+03  5.71954E+04
 -3.61721E+04  3.87833E+04 -4.78458E+04  1.14154E+04 -4.79166E+04 -1.90142E+04 -2.66113E+04 -4.26185E+04
  7.71286E+03 -4.16895E+04  3.41603E+04 -1.75377E+04  3.29510E+04  1.12582E+04  4.98398E+03  2.04280E+04
 -1.33638E+04  1.05246E+04 -1.13389E+04 -7.46679E+03  5.19945E+03 -1.15578E+04  1.84764E+04  5.38201E+03
  1.48394E+04  2.19191E+04 -5.84695E+03  2.77178E+04 -2.37622E+04  1.48371E+04 -3.14092E+04 -2.80784E+03
 -2.60484E+04 -1.89959E+04 -1.14084E+04 -2.57173E+04  3.98215E+03 -2.66510E+04  1.99787E+04 -2.34713E+04
  3.20036E+04 -1.36926E+04  3.85124E+04  5.87548E+03  2.70280E+04  2.52196E+04  4.35775E+03  4.16688E+04
 -1.96581E+04  3.36777E+04 -3.06238E+04  1.20380E+04 -2.15662E+04 -1.04697E+04 -4.33359E+03 -1.38237E+04
  5.82894E+02 -1.29835E+03 -7.69257E+03  8.91314E+03 -2.01296E+04  6.07849E+03 -2.07753E+04 -9.91420E+03
 -1.26439E+04 -2.33006E+04  5.98722E+03 -2.81905E+04  1.90065E+04 -2.08972E+04  2.19203E+04 -1.10850E+03
  1.49631E+04  1.65931E+04 -1.16645E+03  2.34972E+04 -1.78429E+04  1.40376E+04 -2.37000E+04 -5.00425E+03
 -1.67528E+04 -2.10677E+04 -2.45150E+03 -2.89606E+04  1.24932E+04 -2.36740E+04  2.48903E+04 -1.31478E+04
  2.15280E+04 -7.65017E+02  1.66682E+04  5.66558E+03  8.61569E+03  6.84028E+02  1.27058E+04 -1.81041E+03
  2.17156E+04  3.28661E+03  2.60408E+04  1.92761E+04  1.86958E+04  3.88492E+04 -2.72578E+03  4.54743E+04
 -2.64017E+04  3.76000E+04 -4.15667E+04  2.00969E+04 -4.59848E+04 -3.21991E+03 -3.71472E+04 -2.69457E+04
 -1.49246E+04 -3.85525E+04  1.34022E+04 -3.45985E+04  2.83758E+04 -1.59883E+04  2.42394E+04  7.85179E+03
  9.03764E+03  1.95370E+04 -1.23076E+04  1.62333E+04 -2.04135E+04  1.97011E+03 -1.52907E+04 -1.29371E+04
 -2.83061E+02 -2.03037E+04  1.03839E+04 -1.42395E+04  1.40997E+04 -7.28029E+02  3.41532E+03  9.46511E+03
 -8.74374E+03  4.06829E+03 -1.00183E+04 -8.02400E+03 -1.51655E+03 -1.84390E+04  1.17474E+04 -2.00923E+04
  2.38991E+04 -1.16348E+04  2.82281E+04  4.17678E+03  2.42588E+04  1.88454E+04  1.10587E+04  2.97870E+04
 -6.04398E+03  3.13188E+04 -2.12042E+04  2.05235E+04 -2.41699E+04  3.95323E+03 -1.61545E+04 -6.04238E+03
 -7.12188E+03 -7.34714E+03 -1.33421E+03  1.23168E+03 -2.63356E+03  3.60371E+03 -6.86978E+03  5.17388E+03
 -1.51836E+04 -1.28154E+03 -1.52994E+04 -1.20875E+04 -6.23542E+03 -2.03580E+04  6.77623E+03 -1.65704E+04
  1.34564E+04 -5.51893E+03  9.33491E+03  4.37506E+03 -9.45769E+02  7.41651E+03 -8.87031E+03 -1.78819E+02
 -7.36104E+03 -9.67721E+03 -6.75972E+02 -1.65648E+04  9.97569E+03 -1.70681E+04  2.13817E+04 -9.64588E+03
  2.46734E+04  1.98284E+03  1.82549E+04  1.63608E+04  2.94421E+03  2.01173E+04 -9.77001E+03  1.60359E+04
 -1.34450E+04  4.41941E+03 -7.13548E+03 -3.10826E+03  2.20911E+03 -4.18989E+03  8.10170E+03 -1.09092E+03
  7.75381E+03  7.49560E+03  1.13721E+03  1.27240E+04 -9.38183E+03  1.30796E+04 -1.59665E+04  3.36026E+03
 -1.06170E+04 -8.44930E+03  3.61271E+02 -1.45266E+04  8.85230E+03 -6.74647E+03  1.01684E+04  4.20312E+03
  2.20316E+03  1.08973E+04 -8.54915E+03  1.23770E+04 -1.50756E+04  5.85464E+03 -1.47369E+04 -5.37100E+03
 -8.32614E+03 -1.69117E+04  3.84647E+03 -1.90961E+04  1.61089E+04 -1.09347E+04  1.86500E+04  3.35016E+03
  9.72139E+03  1.37586E+04 -1.85561E+03  1.69824E+04 -1.23565E+04  9.06691E+03 -1.35988E+04 -2.14442E+03
 -1.09796E+04 -1.10662E+04 -2.24697E+03 -1.32733E+04  7.31100E+03 -9.75345E+03  8.08194E+03 -4.26450E+03
  5.40812E+03  2.17429E+03 -1.07333E+03  2.25577E+03 -2.49554E+02 -3.43335E+03  2.80381E+03 -7.67037E+03
  1.17596E+04 -5.32816E+03  1.76391E+04  1.29956E+03  1.61939E+04  1.21757E+04  1.10560E+04  2.16227E+04
 -5.64345E+03  2.54887E+04 -2.11331E+04  1.89960E+04 -2.78585E+04  3.72999E+03 -2.17219E+04 -1.00748E+04
 -1.15656E+04 -1.84142E+04 -6.31797E+02 -1.51995E+04  4.73168E+03 -9.45356E+03  5.58854E+03 -5.70878E+03
  3.90842E+03 -4.07409E+03  4.08468E+03 -3.34505E+03  5.75477E+03 -3.82965E+03  9.29494E+03 -1.41111E+03
  1.13515E+04  2.24821E+03  5.37208E+03  1.04090E+04 -1.68688E+03  1.22198E+04 -1.23026E+04  8.39241E+03
 -1.62771E+04 -1.60895E+03 -1.05323E+04 -1.18293E+04 -2.43928E+03 -1.78879E+04  9.56192E+03 -1.72299E+04
  1.76800E+04 -9.72910E+03  2.04034E+04  2.87300E+03  1.43306E+04  1.48145E+04  2.23892E+03  1.91291E+04
 -8.47351E+03  1.59077E+04 -1.19768E+04  5.50029E+03 -7.47194E+03 -2.05563E+03 -3.78962E+03 -2.23305E+03
 -1.66161E+03  4.15642E+02 -2.30776E+03  2.00201E+03 -6.74031E+03  3.10001E+03 -1.14609E+04 -1.61624E+03
 -7.70131E+03 -1.07771E+04  1.87069E+02 -1.64923E+04  9.19928E+03 -1.45181E+04  1.56816E+04 -4.00085E+03
  1.62778E+04  7.02697E+03  7.01067E+03  1.43152E+04 -3.26405E+03  1.61796E+04 -1.10479E+04  9.50235E+03
 -1.48175E+04  6.21508E+02 -1.18372E+04 -9.55965E+03 -1.46277E+03 -1.40617E+04  6.92224E+03 -9.62053E+03
  1.00517E+04 -1.84206E+03  6.49475E+03  3.29519E+03  3.22784E+03  4.61373E+03  1.42692E+03  2.27367E+03
  3.53646E+03  1.24804E+03  3.65835E+03  1.95008E+03  4.81981E+03  5.25624E+03  4.45195E+03  9.31541E+03
 -3.18931E+03  1.28477E+04 -1.14863E+04  1.26111E+04 -1.65536E+04  3.78504E+03 -1.68652E+04 -8.56299E+03
 -8.19852E+03 -1.64967E+04  2.62291E+03 -1.85766E+04  9.88389E+03 -1.16282E+04  1.43439E+04 -3.19820E+03
  1.10028E+04  6.92629E+03  1.97652E+03  9.52140E+03 -4.56912E+03  5.58284E+03 -6.94160E+03 -5.84757E+02
 -3.28487E+03 -7.30773E+03  4.21866E+03 -7.51279E+03  6.12363E+03 -3.92501E+03  6.81999E+03  1.77294E+03
  3.87850E+03  3.06512E+03  1.80222E+03  3.90646E+03 -1.11169E+03  2.39299E+03  1.91940E+03 -5.55084E+02
  3.14900E+03 -2.88933E+02  6.97619E+03  2.74520E+03  4.10130E+03  8.71758E+03 -1.04356E+03  1.21757E+04
 -8.14197E+03  7.69592E+03 -1.10636E+04  1.50462E+03 -9.36372E+03 -4.13278E+03 -4.05503E+03 -6.68086E+03
  9.41165E+02 -7.30094E+03  4.44872E+03 -3.16524E+03  4.24835E+03  3.32187E+03 -1.86468E+03  6.30284E+03
 -6.90044E+03  2.93307E+03 -8.09563E+03 -4.08366E+03 -3.55799E+03 -8.88756E+03  1.28618E+03 -1.01906E+04
  5.99992E+03 -5.24780E+03  7.39247E+03 -1.40714E+03  6.37765E+03  3.20987E+03  1.27558E+03  4.59616E+03
 -4.27691E+03  1.24625E+03 -3.67902E+03 -3.18329E+03  1.68380E+03 -7.00837E+03  7.94398E+03 -6.45445E+03
  1.03876E+04  1.06622E+03  9.92299E+03  7.52801E+03  2.96512E+03  1.16313E+04 -4.33064E+03  1.05639E+04
 -9.72473E+03  4.56502E+03 -9.21049E+03 -1.96309E+03 -5.65104E+03 -7.39920E+03  1.97923E+03 -7.35710E+03
  6.90173E+03 -2.62890E+03  6.28704E+03  3.17758E+03  2.42578E+03  7.32497E+03 -7.64094E+02  5.32038E+03
 -2.16111E+03  3.50818E+03 -2.50742E+03  4.18518E+02 -1.30296E+03  9.14648E+02 -1.24215E+03  2.37457E+03
 -2.90516E+03  4.15857E+03 -7.12624E+03  3.48303E+03 -1.16708E+04 -3.50419E+02 -1.21441E+04 -7.27155E+03
 -6.46715E+03 -1.50794E+04  3.26109E+03 -1.73968E+04  1.14862E+04 -1.41376E+04  1.72838E+04 -5.54871E+03
  1.60038E+04  3.78848E+03  9.86816E+03  1.08595E+04 -2.20050E+02  1.20268E+04 -4.68833E+03  9.30691E+03
 -7.54795E+03  3.18863E+03 -4.43048E+03 -1.25440E+03 -2.03763E+03 -1.31649E+03 -1.04575E+03 -2.14165E+02
 -1.07910E+03  3.47957E+02 -2.38854E+03 -9.94345E+02 -3.21668E+02 -3.37846E+03  6.19572E+02 -4.74176E+03
  5.56991E+03 -4.74798E+03  7.49932E+03 -1.24112E+02  8.69468E+03  6.16390E+03  2.47118E+03  1.27955E+04
 -5.53799E+03  1.33655E+04 -1.23288E+04  8.55199E+03 -1.45439E+04 -9.14075E+02 -1.07499E+04 -9.34937E+03
 -4.39742E+03 -1.31329E+04  3.22253E+03 -1.13033E+04  7.47309E+03 -6.73714E+03  9.03244E+03  1.69644E+02
  4.95554E+03  4.38151E+03 -8.05895E+02  3.46026E+03 -2.64135E+03  8.23399E+01 -2.32489E+02 -2.83490E+03
  3.67635E+03 -1.88082E+03  4.79997E+03  1.32719E+03  3.22344E+03  3.86983E+03  4.85203E+02  6.80510E+03
 -5.54562E+03  5.43891E+03 -9.00197E+03  6.06189E+02 -7.20046E+03 -6.51056E+03 -8.49153E+02 -1.06944E+04
  5.54510E+03 -8.10934E+03  1.00632E+04 -2.09200E+03  9.49971E+03  2.42551E+03  5.06151E+03  7.67086E+03
  1.40505E+03  7.75101E+03 -3.18070E+03  6.80296E+03 -4.52849E+03  3.46954E+03 -4.09128E+03  7.97373E+02
 -2.26312E+03 -2.41309E+01 -2.58868E+03  1.06307E+03 -3.89430E+03  8.50669E+02 -6.44883E+03 -1.38005E+03
 -5.80193E+03 -4.59705E+03 -9.93144E+02 -8.32250E+03  4.03176E+03 -8.45281E+03  8.65643E+03 -4.18193E+03
  8.36508E+03  1.77130E+03  5.17967E+03  6.59363E+03 -6.84072E+02  8.49822E+03 -6.08484E+03  5.35833E+03
