 $NMID ID='MM_0lb_SNR400_14hz_g50_11.RAW', FMTDAT='(8E13.5)'
 TRAMP=1., VOLUME=1. $END
  3.09610E+05  7.23864E+02  3.37679E+05  2.50536E+05  8.46440E+04  3.37705E+05 -1.32751E+05  2.51018E+05
 -1.90109E+05  8.30358E+04 -1.11544E+05 -3.22443E+04  8.59408E+02 -5.07520E+04  5.38399E+04 -2.70466E+02
  3.53603E+04  5.30615E+04 -1.68043E+04  7.54772E+04 -6.11912E+04  6.38231E+04 -8.39587E+04  3.21398E+04
 -8.10540E+04 -1.19833E+04 -5.74725E+04 -5.11985E+04 -1.46305E+04 -6.95193E+04  2.75133E+04 -4.51479E+04
  3.98009E+04  4.26656E+03  1.62599E+04  4.76104E+04 -3.41298E+04  4.72115E+04 -6.61834E+04 -4.94208E+02
 -5.33553E+04 -5.68153E+04 -6.92404E+03 -7.63452E+04  3.43029E+04 -5.47085E+04  4.84722E+04 -1.77181E+04
  4.34403E+04  1.04795E+04  3.20766E+04  2.51815E+04  1.61246E+04  2.96003E+04 -5.01645E+03  2.72537E+04
 -2.16336E+04  1.25246E+04 -1.86367E+04 -4.95936E+03  5.98876E+03 -7.42770E+03  2.26527E+04  1.27376E+04
  6.87036E+03  3.47172E+04 -3.19278E+04  3.51811E+04 -6.32179E+04  2.05040E+03 -5.67931E+04 -4.32079E+04
 -1.18784E+04 -6.35341E+04  3.99653E+04 -4.56214E+04  5.79692E+04 -1.56667E+03  3.42642E+04  3.18940E+04
 -6.46572E+03  3.61337E+04 -2.99322E+04  1.63885E+04 -3.01800E+04 -4.24169E+03 -1.62407E+04 -1.05083E+04
 -7.93422E+03 -1.31880E+04 -6.45583E+02 -1.76335E+04  6.87423E+03 -2.39291E+04  1.58254E+04 -1.30159E+04
  1.17376E+04  5.34410E+03 -8.79813E+03  1.27606E+04 -2.06417E+04 -5.03508E+03 -8.85979E+03 -3.40786E+04
  2.27009E+04 -4.29185E+04  4.84441E+04 -1.91531E+04  4.47137E+04  1.95136E+04  1.56993E+04  4.47592E+04
 -1.61246E+04  3.34281E+04 -2.56076E+04  1.24426E+03 -1.02034E+04 -2.76017E+04  2.13282E+04 -3.43671E+04
  4.10576E+04 -9.43149E+03  3.61787E+04  2.31093E+04  1.78727E+04  4.67477E+04 -8.16404E+03  4.99173E+04
 -3.17914E+04  3.40615E+04 -4.16094E+04  9.59484E+03 -4.28703E+04 -1.69486E+04 -2.42330E+04 -3.83369E+04
  7.29131E+03 -3.79413E+04  3.19739E+04 -1.44540E+04  2.90046E+04  1.09458E+04  4.35938E+03  1.93944E+04
 -1.32647E+04  7.88957E+03 -1.05879E+04 -7.93266E+03  5.07630E+03 -1.03152E+04  1.82219E+04  5.77466E+03
  1.30302E+04  2.25286E+04 -5.66013E+03  2.50020E+04 -2.29005E+04  1.15841E+04 -2.81366E+04 -4.98062E+03
 -2.09709E+04 -1.71252E+04 -8.44875E+03 -2.02782E+04  4.48619E+03 -1.97525E+04  1.59477E+04 -1.87604E+04
  2.62812E+04 -1.32005E+04  3.20117E+04  2.69656E+03  2.39068E+04  2.02391E+04  3.98317E+03  3.63873E+04
 -1.78532E+04  3.04239E+04 -2.78886E+04  1.09224E+04 -2.09153E+04 -1.00220E+04 -4.68904E+03 -1.37287E+04
  2.24616E+03 -2.93713E+03 -5.02297E+03  6.40697E+03 -1.62788E+04  5.39367E+03 -1.71670E+04 -7.12200E+03
 -1.00777E+04 -1.86054E+04  5.32609E+03 -2.24006E+04  1.50241E+04 -1.67007E+04  1.79778E+04 -1.68541E+03
  1.05769E+04  1.36470E+04 -1.35895E+03  1.92202E+04 -1.31127E+04  1.02175E+04 -1.94806E+04 -4.07953E+03
 -1.38203E+04 -1.65704E+04 -1.46596E+03 -2.33998E+04  1.03302E+04 -1.89368E+04  1.91668E+04 -9.27482E+03
  1.70957E+04 -4.19656E+02  1.28939E+04  4.41573E+03  6.29404E+03  1.18761E+03  9.52230E+03 -1.16375E+03
  1.79175E+04  2.84324E+03  1.93921E+04  1.53983E+04  1.27479E+04  3.05527E+04 -2.41604E+03  3.45725E+04
 -1.99418E+04  2.74529E+04 -3.22923E+04  1.30224E+04 -3.39058E+04 -2.68313E+03 -2.71679E+04 -1.93629E+04
 -1.21765E+04 -2.76646E+04  8.94540E+03 -2.54787E+04  2.15001E+04 -1.26821E+04  1.89437E+04  5.90347E+03
  6.85505E+03  1.41034E+04 -8.91433E+03  1.26054E+04 -1.65797E+04  2.41633E+03 -1.26103E+04 -9.89063E+03
 -1.25164E+02 -1.50648E+04  8.18034E+03 -1.15037E+04  1.05505E+04 -1.69604E+03  2.51444E+03  6.32565E+03
 -6.41828E+03  2.63313E+03 -6.18251E+03 -5.33566E+03 -2.31725E+02 -1.32998E+04  9.32380E+03 -1.41339E+04
  1.60346E+04 -7.80498E+03  1.77715E+04  3.02035E+03  1.51722E+04  1.26462E+04  6.85281E+03  2.02820E+04
 -2.82659E+03  2.16582E+04 -1.41989E+04  1.33978E+04 -1.68428E+04  3.44228E+03 -1.14723E+04 -3.86655E+03
 -4.72653E+03 -5.22647E+03 -7.82172E+02  5.00998E+02 -1.98994E+03  2.64566E+03 -5.68847E+03  4.65994E+03
 -1.08156E+04 -7.34431E+02 -1.16690E+04 -9.08363E+03 -3.79453E+03 -1.52388E+04  4.13539E+03 -1.18398E+04
  1.02240E+04 -4.50021E+03  6.79234E+03  3.16276E+03  2.91669E+02  4.01935E+03 -5.54690E+03  2.56724E+02
 -5.37824E+03 -7.95475E+03 -8.44369E+02 -1.13179E+04  6.63031E+03 -1.16534E+04  1.40167E+04 -5.81802E+03
  1.62227E+04  5.28782E+02  1.21205E+04  9.26871E+03  2.31891E+03  1.34974E+04 -6.58797E+03  1.18123E+04
 -9.64591E+03  3.20368E+03 -4.71573E+03 -1.92875E+03  1.72464E+03 -2.60141E+03  6.03146E+03 -9.68670E+02
  5.93904E+03  4.57788E+03  1.33310E+03  8.88685E+03 -6.38342E+03  8.70632E+03 -1.15999E+04  2.09317E+03
 -7.25534E+03 -5.64741E+03  1.43519E+02 -9.63284E+03  5.58764E+03 -4.34856E+03  5.53730E+03  1.37692E+03
  1.26406E+03  5.61425E+03 -5.59412E+03  7.03816E+03 -8.66626E+03  3.52813E+03 -7.92589E+03 -3.14319E+03
 -4.61266E+03 -9.17728E+03  2.56021E+03 -1.15181E+04  9.60915E+03 -7.64271E+03  1.08042E+04  1.79020E+03
  6.97007E+03  8.19666E+03 -7.63517E+02  1.04956E+04 -8.30636E+03  5.85968E+03 -8.39203E+03 -7.99534E+02
 -8.20672E+03 -7.01770E+03 -1.36525E+03 -7.99773E+03  4.48469E+03 -6.07936E+03  4.65669E+03 -3.01526E+03
  3.86528E+03  1.11430E+03 -9.67440E+02  1.52324E+03 -6.45635E+01 -1.77690E+03  6.44486E+02 -4.09454E+03
  6.93943E+03 -2.14484E+03  9.12259E+03  8.36796E+02  9.53139E+03  6.63759E+03  7.17026E+03  1.30346E+04
 -2.69438E+03  1.40586E+04 -1.28045E+04  9.87728E+03 -1.58051E+04  2.36823E+03 -1.24265E+04 -5.34706E+03
 -6.63895E+03 -1.04719E+04 -2.90386E+02 -8.87998E+03  3.95720E+03 -4.30635E+03  2.51894E+03 -3.47758E+03
  2.27748E+03 -1.70873E+03  3.12594E+03 -3.25437E+03  5.19751E+03 -2.62062E+03  5.24759E+03  1.85804E+02
  6.69628E+03  1.61481E+03  2.88433E+03  5.41253E+03 -1.80459E+03  6.49742E+03 -6.67435E+03  4.65482E+03
 -8.36203E+03 -6.96972E+02 -4.94430E+03 -6.04595E+03 -7.76008E+02 -9.82052E+03  5.24859E+03 -9.42331E+03
  9.05230E+03 -5.02852E+03  1.06340E+04  1.54904E+03  7.98962E+03  7.47300E+03  1.37824E+03  1.04596E+04
 -4.04416E+03  8.84177E+03 -6.01872E+03  3.11923E+03 -3.97781E+03 -1.39631E+03 -1.51735E+03 -9.46808E+02
 -5.72070E+02 -1.69717E+02 -7.54692E+02  2.89635E+03 -3.68907E+03  1.43960E+03 -6.23754E+03 -7.26538E+02
 -3.74724E+03 -5.85409E+03  2.44889E+02 -7.98444E+03  5.08027E+03 -8.11043E+03  7.26526E+03 -2.08641E+03
  7.66410E+03  4.18046E+03  3.29916E+03  6.95760E+03 -1.87363E+03  8.30634E+03 -5.19728E+03  4.68151E+03
 -8.01195E+03  1.87066E+02 -5.78185E+03 -4.34360E+03 -8.12052E+01 -7.01197E+03  3.48828E+03 -4.91997E+03
  4.59646E+03 -2.08127E+03  3.19497E+03  1.34113E+03  1.26761E+03  2.29212E+03  7.52483E+02  9.78589E+02
  1.48728E+03  1.69776E+03  2.21479E+03  1.94867E+03  2.84077E+03  3.08578E+03  2.07537E+03  2.97114E+03
 -2.19663E+03  6.13273E+03 -5.27644E+03  6.31736E+03 -7.09281E+03  1.92346E+03 -7.88623E+03 -2.58510E+03
 -3.42526E+03 -8.58987E+03  3.44255E+02 -8.33591E+03  4.17877E+03 -5.47483E+03  5.76708E+03 -2.02767E+03
  5.20342E+03  3.24068E+03  9.23559E+02  4.46741E+03 -1.52978E+03  2.59858E+03 -2.75335E+03 -3.01711E+02
 -9.38991E+02 -3.11714E+03  1.53770E+03 -2.97144E+03  3.09709E+03 -1.52064E+03  3.39944E+03  6.34906E+02
  1.80149E+03  1.11554E+03  2.48799E+02  6.53961E+02 -4.93873E+02  1.35206E+03  1.51326E+03 -1.62002E+02
  1.10023E+03 -4.25328E+02  3.31288E+03  1.22366E+03  1.56997E+03  3.75328E+03 -5.83234E+02  5.58637E+03
 -3.70276E+03  2.72029E+03 -4.40900E+03  8.45124E+02 -4.68922E+03 -1.49047E+03 -1.01516E+03 -2.49124E+03
  9.82134E+01 -2.44636E+03  1.90959E+03 -1.83438E+03  1.40478E+03  2.51236E+03 -1.81998E+03  2.50480E+03
 -2.85169E+03  2.04620E+03 -3.17025E+03 -2.04337E+03 -1.89739E+03 -3.76328E+03  7.55024E+01 -3.80118E+03
  1.71932E+03 -2.22436E+03  2.60939E+03 -9.33070E+02  2.72396E+03  1.96246E+02  2.74322E+02  2.04515E+03
 -1.49684E+03  5.65385E+02 -1.89839E+03 -1.37389E+03  1.11453E+03 -2.34965E+03  3.28003E+03 -2.44242E+03
  3.88977E+03  1.05328E+02  4.91786E+03  2.79808E+03  2.16377E+03  3.41724E+03 -1.34571E+03  4.34843E+03
 -3.72184E+03  1.24051E+03 -3.87258E+03 -5.33121E+02 -1.71283E+03 -2.62127E+03  1.49237E+03 -2.70323E+03
  3.23401E+03 -1.28817E+03  2.02035E+03  9.55882E+02  4.00934E+02  2.68166E+03 -2.08285E+02  2.48331E+03
 -1.11138E+03  1.94676E+03 -8.72327E+02  9.59583E+02 -6.48923E+02  5.99466E+02 -1.05795E+03  1.31766E+03
 -9.54568E+02  2.44939E+03 -2.97688E+03  1.43364E+03 -5.06051E+03  3.73650E+02 -4.53536E+03 -2.72781E+03
 -1.42516E+03 -5.47848E+03  1.97749E+03 -6.38439E+03  4.21057E+03 -4.53927E+03  5.85600E+03 -2.02194E+03
  5.53918E+03  1.37781E+03  2.92215E+03  3.65554E+03 -3.46476E+02  4.18438E+03 -1.83200E+03  3.39629E+03
 -2.43584E+03  1.08400E+03 -1.59454E+03 -2.41424E+02 -1.11209E+03  5.85581E+01 -8.19519E+02 -3.05077E+02
 -1.45522E+03  5.95308E+02 -1.41481E+03 -1.66393E+02  2.21924E+02 -1.24175E+03 -4.15807E+02 -1.41723E+03
  2.87019E+03 -2.04814E+03  2.14700E+03  1.83966E+02  3.00593E+03  2.71688E+03  1.74134E+02  4.76247E+03
 -2.49073E+03  4.93984E+03 -4.53880E+03  2.38092E+03 -4.90079E+03 -9.45799E+01 -3.71671E+03 -3.27971E+03
 -2.05142E+03 -3.84363E+03  2.88372E+02 -3.63294E+03  2.67029E+03 -1.97470E+03  2.20635E+03 -3.08582E+02
  1.49535E+03  1.09604E+03 -5.77883E+02  1.27419E+03 -9.91858E+02 -1.81138E+02  1.84779E+02 -7.95779E+02
  1.49186E+03 -7.60316E+02  1.68872E+03  4.78659E+01  9.62778E+02  1.75450E+03  2.50327E+02  1.03688E+03
 -1.45041E+03  1.41304E+03 -2.03514E+03  4.76321E+02 -1.71804E+03 -1.03633E+03 -2.57345E+02 -3.17851E+03
  1.08961E+03 -2.14541E+03  2.17330E+03 -3.54128E+02  2.43471E+03  3.68001E+02  2.00178E+03  2.10251E+03
  7.38756E+02  2.05009E+03 -5.39410E+02  1.81994E+03 -1.35534E+03  1.21544E+03 -1.08147E+03  4.18585E+02
 -4.79590E+02  2.27216E+02 -1.23221E+03  2.24171E+02 -1.56134E+03  1.88276E+02 -1.68930E+03 -5.80922E+02
 -1.94762E+03 -5.75055E+02  1.50753E+02 -2.32327E+03  1.14102E+03 -3.36687E+03  1.98914E+03 -7.40301E+02
  2.52797E+03 -3.87547E+02  6.60334E+02  1.41328E+03 -3.28513E+02  2.26805E+03 -5.35464E+02  1.70801E+03
