 $NMID ID='MM_0lb_SNR400_16hz_g40_74.RAW', FMTDAT='(8E13.5)'
 TRAMP=1., VOLUME=1. $END
  3.09985E+05  4.98749E+02  3.37797E+05  2.50390E+05  8.45266E+04  3.37690E+05 -1.32113E+05  2.50329E+05
 -1.89856E+05  8.21842E+04 -1.11669E+05 -3.29178E+04  1.28592E+03 -5.04320E+04  5.40458E+04 -1.14735E+02
  3.53139E+04  5.33908E+04 -1.65123E+04  7.48303E+04 -6.07472E+04  6.25931E+04 -8.32979E+04  3.13396E+04
 -7.99466E+04 -1.13391E+04 -5.64592E+04 -5.08081E+04 -1.47835E+04 -6.85976E+04  2.70682E+04 -4.49006E+04
  3.92016E+04  3.60226E+03  1.57601E+04  4.73160E+04 -3.40624E+04  4.67835E+04 -6.60975E+04 -2.25126E+02
 -5.20252E+04 -5.59086E+04 -6.33575E+03 -7.53075E+04  3.34436E+04 -5.35504E+04  4.68145E+04 -1.63010E+04
  4.21513E+04  1.09184E+04  3.09557E+04  2.46255E+04  1.54796E+04  2.85317E+04 -4.45195E+03  2.62449E+04
 -2.16680E+04  1.23511E+04 -1.97303E+04 -5.04552E+03  4.70659E+03 -7.27628E+03  2.16811E+04  1.15152E+04
  7.52192E+03  3.36434E+04 -3.07247E+04  3.45480E+04 -6.13955E+04  2.06608E+03 -5.56508E+04 -4.18896E+04
 -1.24376E+04 -6.18981E+04  3.81351E+04 -4.35261E+04  5.58474E+04 -1.40712E+03  3.22585E+04  3.13604E+04
 -6.55743E+03  3.38557E+04 -2.92954E+04  1.41737E+04 -2.85224E+04 -4.91602E+03 -1.54504E+04 -1.09757E+04
 -7.41370E+03 -1.14417E+04 -9.05747E+02 -1.72465E+04  6.47876E+03 -2.25463E+04  1.50333E+04 -1.37947E+04
  1.20257E+04  4.21202E+03 -6.93108E+03  1.27342E+04 -2.01889E+04 -2.98285E+03 -8.37041E+03 -3.16552E+04
  2.18062E+04 -4.23807E+04  4.56226E+04 -1.85269E+04  4.32393E+04  1.88357E+04  1.48952E+04  4.25027E+04
 -1.50432E+04  3.17387E+04 -2.43898E+04  1.18863E+03 -9.07209E+03 -2.66531E+04  2.06923E+04 -3.20395E+04
  3.84154E+04 -7.82138E+03  3.23746E+04  2.29004E+04  1.62938E+04  4.40634E+04 -8.08297E+03  4.67415E+04
 -2.99013E+04  3.04920E+04 -3.85811E+04  8.72572E+03 -3.88908E+04 -1.57859E+04 -2.21669E+04 -3.55903E+04
  6.99333E+03 -3.53837E+04  2.98763E+04 -1.35080E+04  2.72224E+04  1.09716E+04  3.15902E+03  1.83303E+04
 -1.30676E+04  7.33807E+03 -9.59089E+03 -8.11866E+03  6.35822E+03 -1.02433E+04  1.73329E+04  6.65046E+03
  1.30778E+04  2.22056E+04 -6.55880E+03  2.45721E+04 -2.17523E+04  9.78392E+03 -2.61880E+04 -5.67956E+03
 -1.84009E+04 -1.72234E+04 -6.91229E+03 -1.85783E+04  3.61355E+03 -1.66523E+04  1.36573E+04 -1.55725E+04
  2.32290E+04 -1.20271E+04  2.96704E+04  1.83696E+03  2.20082E+04  1.79240E+04  4.04518E+03  3.31555E+04
 -1.64473E+04  2.85692E+04 -2.63029E+04  9.81226E+03 -2.02909E+04 -1.05014E+04 -4.65042E+03 -1.39324E+04
  2.93809E+03 -4.10350E+03 -3.69529E+03  5.76344E+03 -1.38856E+04  4.98001E+03 -1.40224E+04 -6.01006E+03
 -8.74530E+03 -1.67279E+04  4.55060E+03 -2.04964E+04  1.40161E+04 -1.49364E+04  1.56766E+04 -1.10257E+03
  1.00709E+04  1.13404E+04 -1.43242E+03  1.76972E+04 -1.12119E+04  9.67209E+03 -1.63423E+04 -3.58033E+03
 -1.22168E+04 -1.50570E+04 -1.16355E+03 -2.01445E+04  9.53706E+03 -1.70354E+04  1.76648E+04 -7.63056E+03
  1.60248E+04  3.40448E+02  1.11275E+04  4.14993E+03  5.86802E+03  8.40765E+02  7.77725E+03 -1.82980E+03
  1.51724E+04  2.68859E+03  1.61744E+04  1.37084E+04  1.02152E+04  2.63817E+04 -3.38708E+03  2.90683E+04
 -1.66826E+04  2.25176E+04 -2.71521E+04  1.07305E+04 -2.76402E+04 -2.06083E+03 -2.40205E+04 -1.56136E+04
 -1.04391E+04 -2.29685E+04  7.52036E+03 -2.11700E+04  1.83020E+04 -1.12168E+04  1.75774E+04  3.87494E+03
  6.17485E+03  1.18700E+04 -7.80902E+03  1.09148E+04 -1.42831E+04  2.89990E+03 -1.11920E+04 -8.82721E+03
  6.82683E+02 -1.31604E+04  6.91807E+03 -1.05477E+04  8.70664E+03 -1.45524E+03  1.45105E+03  5.13827E+03
 -5.74640E+03  1.37958E+03 -4.46978E+03 -5.27657E+03  3.64273E+02 -1.13899E+04  8.65661E+03 -1.13703E+04
  1.39795E+04 -5.26734E+03  1.41214E+04  2.25735E+03  1.19715E+04  1.12922E+04  5.51480E+03  1.62349E+04
 -1.80845E+03  1.81303E+04 -1.14632E+04  1.14923E+04 -1.27371E+04  3.59342E+03 -9.70293E+03 -2.21156E+03
 -4.45959E+03 -4.13921E+03 -6.91614E+02  1.27061E+03 -2.03535E+03  1.93289E+03 -3.95238E+03  4.01091E+03
 -9.28978E+03 -5.33591E+02 -9.59128E+03 -7.82869E+03 -4.32297E+03 -1.33870E+04  3.69621E+03 -9.63632E+03
  7.95958E+03 -4.30350E+03  5.53832E+03  2.74509E+03  4.74666E+02  3.57237E+03 -3.89458E+03 -3.66442E+02
 -3.89661E+03 -6.22967E+03 -7.62016E+02 -8.63518E+03  5.11978E+03 -9.00467E+03  1.17944E+04 -4.38033E+03
  1.28711E+04  1.04208E+03  1.00213E+04  8.12768E+03  2.38056E+03  1.02434E+04 -5.92797E+03  9.61716E+03
 -8.43320E+03  3.42417E+03 -3.10336E+03 -1.86994E+03  1.43756E+03 -2.76878E+03  5.44833E+03 -2.84329E+02
  4.63686E+03  3.38455E+03  7.40312E+02  6.94683E+03 -5.19979E+03  7.22587E+03 -9.37991E+03  1.88091E+03
 -5.64980E+03 -4.81917E+03  4.10754E+00 -7.63770E+03  4.62335E+03 -3.66468E+03  4.67850E+03  1.55652E+03
  6.64505E+02  4.71485E+03 -4.83457E+03  5.52580E+03 -5.97227E+03  3.26324E+03 -5.33407E+03 -1.76177E+03
 -3.41206E+03 -7.15706E+03  1.64876E+03 -8.58377E+03  7.50396E+03 -5.45162E+03  8.70309E+03  1.29758E+03
  5.31797E+03  6.50805E+03 -2.97532E+02  8.67733E+03 -6.14806E+03  5.49329E+03 -6.94174E+03 -2.52191E+02
 -5.97590E+03 -5.90637E+03 -1.44090E+03 -6.41288E+03  3.17875E+03 -5.22422E+03  3.82083E+03 -3.45933E+03
  3.45638E+03  7.78369E+02  2.26525E+02  1.13802E+03  3.72865E+02 -5.43515E+02  4.77599E+02 -2.28230E+03
  4.94833E+03 -1.41482E+03  6.87230E+03  1.65677E+03  7.09417E+03  4.07963E+03  6.75846E+03  9.26371E+03
 -1.38040E+03  1.09563E+04 -9.37398E+03  7.61331E+03 -1.22338E+04  1.42585E+03 -1.00947E+04 -3.70328E+03
 -5.00044E+03 -7.73301E+03 -6.43081E+01 -6.35493E+03  2.39589E+03 -3.67139E+03  2.42381E+03 -2.54902E+03
  1.86739E+03 -1.39570E+03  2.11938E+03 -2.47595E+03  4.32772E+03 -1.08512E+03  3.86605E+03  1.25126E+02
  5.25768E+03  1.42722E+03  9.45783E+02  3.79804E+03 -1.51571E+03  4.04833E+03 -6.11927E+03  3.14353E+03
 -6.19294E+03 -1.21161E+03 -2.71333E+03 -4.13848E+03 -1.77066E+02 -6.37492E+03  3.69954E+03 -6.63299E+03
  6.66747E+03 -3.98596E+03  8.38238E+03  1.01489E+03  6.32463E+03  5.54529E+03  1.45930E+03  7.17600E+03
 -2.58569E+03  7.40941E+03 -4.42448E+03  2.44525E+03 -2.20453E+03 -1.45934E+03 -1.02393E+03 -1.02746E+03
 -7.54039E+02  4.79550E+02 -9.65322E+02  2.12443E+03 -2.95649E+03  1.50634E+03 -4.61956E+03 -1.76278E+02
 -2.58893E+03 -5.34969E+03  1.02551E+03 -5.73614E+03  3.94464E+03 -5.51433E+03  5.70701E+03 -1.40343E+03
  5.15525E+03  2.89227E+03  2.60551E+03  4.95564E+03 -1.12530E+03  5.89706E+03 -3.95489E+03  3.22864E+03
 -5.48759E+03  2.82054E+02 -4.35894E+03 -2.95300E+03 -2.68989E+02 -4.29909E+03  1.98795E+03 -3.39125E+03
  3.19150E+03 -1.52441E+03  2.60489E+03  4.85027E+02  1.49539E+03  1.55394E+03  1.06940E+03  9.92155E+02
  1.59044E+03  8.36707E+02  1.43083E+03  1.06590E+03  1.59212E+03  2.68006E+03  1.79848E+03  2.80574E+03
 -1.36068E+03  4.55191E+03 -3.92911E+03  5.93637E+03 -4.98745E+03  1.65353E+03 -5.83918E+03 -1.44339E+03
 -2.03353E+03 -5.05969E+03  1.34612E+03 -5.84734E+03  2.91262E+03 -3.72297E+03  4.37765E+03 -1.31272E+03
  2.81289E+03  2.16899E+03  7.23816E+02  3.12934E+03 -1.31099E+03  1.70871E+03 -1.83790E+03  3.95930E+01
 -6.11674E+02 -2.20708E+03  1.31929E+03 -2.07311E+03  1.47491E+03 -8.55688E+02  1.98598E+03  7.50825E+02
  1.20493E+03  4.83940E+02  5.54953E+02  7.82054E+02 -1.55644E+02  6.48405E+02  1.38084E+03 -1.94287E+02
  3.24020E+02 -8.98244E+01  2.66917E+03  8.25093E+02  5.15710E+02  3.42481E+03 -6.30449E+02  3.71659E+03
 -2.77036E+03  1.89316E+03 -2.67366E+03  7.73397E+02 -2.73002E+03 -1.79226E+03 -7.35083E+02 -1.34812E+03
  8.83296E+02 -1.33683E+03  1.23489E+03 -1.13001E+03  1.39390E+03  1.73760E+03 -4.27193E+02  1.91838E+03
 -1.41301E+03  2.13178E+02 -2.35981E+03 -1.35326E+03 -1.19780E+03 -2.52731E+03  4.04346E+02 -2.66736E+03
  2.50711E+02 -1.05884E+03  1.72664E+03 -3.42351E+02  1.94835E+03  4.09641E+02  3.59640E+02  1.61925E+03
 -5.20642E+02  7.01824E+02 -8.26754E+02 -6.32626E+02  3.98024E+02 -2.05408E+03  2.77606E+03 -1.64064E+03
  2.56784E+03  3.09704E+02  3.43184E+03  6.29940E+02  1.18464E+03  2.22724E+03 -7.63788E+02  2.47375E+03
 -2.78815E+03  7.97597E+02 -2.51473E+03 -1.70691E+02 -1.19670E+03 -2.09369E+03  9.07660E+02 -6.39029E+02
  2.40183E+03 -1.61035E+03  2.08892E+03  1.31002E+03  5.87993E+02  2.07807E+03  4.18336E+01  1.61075E+03
 -2.19371E+02  1.45761E+03 -5.35765E+02  1.43963E+02 -1.98493E+02  7.45939E+02 -9.09337E+02  1.20550E+03
 -7.22201E+02  1.55387E+03 -2.67290E+03  1.25593E+03 -3.40144E+03  6.87641E+02 -3.60336E+03 -1.21739E+03
 -1.29464E+03 -3.69703E+03  4.26659E+02 -4.34223E+03  2.11517E+03 -3.76988E+03  3.78818E+03 -1.27637E+03
  3.54077E+03  7.60999E+02  1.80945E+03  2.21960E+03 -4.74826E+02  2.36685E+03 -1.41555E+03  2.44723E+03
 -1.50462E+03  8.50602E+02 -8.05596E+02 -6.92624E+02 -8.30489E+02 -6.57121E+01 -2.29305E+02  2.28501E+02
 -1.14627E+03  6.35824E+02 -1.11267E+03  3.93766E+02 -5.69605E+01 -1.17988E+03 -2.25557E+02 -1.44726E+03
  1.07908E+03 -1.11431E+03  1.11510E+03  2.09429E+02  2.16925E+03  1.24373E+03 -1.51098E+02  2.81496E+03
 -1.28639E+03  3.76562E+03 -3.06714E+03  2.30866E+03 -3.53162E+03 -7.47381E+02 -2.18205E+03 -2.28277E+03
 -9.70679E+02 -2.32171E+03  1.06222E+03 -1.73171E+03  1.13454E+03 -8.17506E+02  1.32422E+03  5.71317E+01
  5.36206E+02  5.15659E+02 -8.53311E+01  7.05810E+02 -8.74862E+02 -5.27138E+02 -3.48022E+02 -1.50409E+02
  3.01414E+02  1.09134E+02  7.76849E+02  7.12823E+02  5.20518E+02  4.90546E+02  9.44618E+02  7.56654E+02
 -1.62925E+03  6.79089E+02 -8.49567E+02  2.06302E+02 -1.90208E+03 -9.69201E+02  5.67358E+01 -2.28990E+03
  1.05582E+03 -9.49146E+02  9.03783E+02 -8.68705E+01  1.41385E+03  1.12041E+02  7.43698E+02  2.00613E+03
  2.16250E+02  6.11893E+02 -4.48607E+02  8.38328E+02 -1.24369E+03  9.34562E+02 -1.33183E+03  6.23647E+02
 -3.28805E+02  2.65241E+02 -8.64871E+02  6.11388E+02 -6.25103E+02  6.76307E+02 -1.68871E+03 -1.12228E+03
 -1.10911E+03 -1.02581E+02 -8.12974E+02 -2.18350E+03  1.13590E+03 -2.66750E+03  1.54715E+03 -8.11417E+02
  4.92352E+02  4.56254E+02  3.91323E+02  6.15565E+02  3.97823E+02  1.59092E+03 -8.82627E+02  8.62338E+02
