 $NMID ID='MM_0lb_SNR400_11hz_g50_28.RAW', FMTDAT='(8E13.5)'
 TRAMP=1., VOLUME=1. $END
  3.09726E+05  2.31997E+02  3.37783E+05  2.49836E+05  8.52235E+04  3.38151E+05 -1.32382E+05  2.51479E+05
 -1.90822E+05  8.30974E+04 -1.12263E+05 -3.19343E+04  2.45431E+02 -5.09237E+04  5.35950E+04 -8.81805E+02
  3.52479E+04  5.27339E+04 -1.66726E+04  7.56652E+04 -6.16644E+04  6.41654E+04 -8.51507E+04  3.24989E+04
 -8.17929E+04 -1.24256E+04 -5.83801E+04 -5.22820E+04 -1.54387E+04 -7.02361E+04  2.77195E+04 -4.66072E+04
  4.03268E+04  4.03770E+03  1.61679E+04  4.81265E+04 -3.51998E+04  4.76795E+04 -6.70819E+04 -1.01330E+03
 -5.48320E+04 -5.70776E+04 -7.29818E+03 -7.86654E+04  3.43643E+04 -5.62908E+04  4.92158E+04 -1.80548E+04
  4.50216E+04  1.18703E+04  3.28565E+04  2.63969E+04  1.64810E+04  2.97531E+04 -5.10175E+03  2.80343E+04
 -2.26946E+04  1.20246E+04 -1.83183E+04 -4.94086E+03  6.42207E+03 -6.93983E+03  2.35452E+04  1.30843E+04
  6.32469E+03  3.61601E+04 -3.29070E+04  3.67384E+04 -6.50382E+04  2.02751E+03 -5.80505E+04 -4.37827E+04
 -1.29925E+04 -6.53823E+04  4.11551E+04 -4.63252E+04  6.04201E+04 -2.37696E+03  3.54881E+04  3.35988E+04
 -5.30884E+03  3.81972E+04 -3.08463E+04  1.74549E+04 -3.17595E+04 -3.98361E+03 -1.77540E+04 -1.17200E+04
 -8.44346E+03 -1.50459E+04 -9.62131E+02 -1.85882E+04  7.46459E+03 -2.32747E+04  1.52042E+04 -1.29347E+04
  1.09125E+04  5.75217E+03 -8.25365E+03  1.26519E+04 -2.23925E+04 -5.64372E+03 -8.24204E+03 -3.57271E+04
  2.38670E+04 -4.56995E+04  5.03711E+04 -2.01938E+04  4.75579E+04  2.04294E+04  1.67967E+04  4.65628E+04
 -1.64863E+04  3.54171E+04 -2.65129E+04  1.88034E+03 -1.11510E+04 -2.95490E+04  2.19918E+04 -3.61428E+04
  4.37198E+04 -1.05511E+04  3.84557E+04  2.52638E+04  2.00153E+04  4.88040E+04 -8.10226E+03  5.40179E+04
 -3.43537E+04  3.61182E+04 -4.48511E+04  1.07599E+04 -4.56540E+04 -1.81360E+04 -2.44494E+04 -4.08824E+04
  7.29158E+03 -4.04128E+04  3.34416E+04 -1.70161E+04  3.01481E+04  1.06856E+04  4.55738E+03  2.01039E+04
 -1.40629E+04  8.73238E+03 -1.09599E+04 -7.24360E+03  5.83079E+03 -1.10988E+04  1.86097E+04  6.44774E+03
  1.40570E+04  2.28416E+04 -5.25917E+03  2.60174E+04 -2.28208E+04  1.34234E+04 -2.93331E+04 -3.61555E+03
 -2.34192E+04 -1.74279E+04 -1.03588E+04 -2.26495E+04  4.81432E+03 -2.34125E+04  1.81239E+04 -2.16149E+04
  2.90379E+04 -1.43702E+04  3.63283E+04  4.47949E+03  2.60324E+04  2.24612E+04  3.95019E+03  3.90848E+04
 -1.92756E+04  3.23685E+04 -2.95001E+04  1.14607E+04 -2.10827E+04 -1.02323E+04 -3.64638E+03 -1.30936E+04
  5.79826E+02 -1.52403E+03 -6.84679E+03  7.51064E+03 -1.87371E+04  4.32145E+03 -1.89580E+04 -8.67797E+03
 -1.16781E+04 -2.13013E+04  5.81353E+03 -2.64703E+04  1.72862E+04 -1.86565E+04  2.06553E+04 -2.13511E+03
  1.34773E+04  1.49260E+04 -1.34506E+03  2.13275E+04 -1.57880E+04  1.23556E+04 -2.18442E+04 -4.06073E+03
 -1.54506E+04 -1.97137E+04 -2.35737E+03 -2.62161E+04  1.14722E+04 -2.12667E+04  2.19322E+04 -1.05962E+04
  2.06228E+04 -1.91267E+02  1.46738E+04  4.82295E+03  7.59686E+03  1.39400E+03  1.09947E+04 -2.18594E+03
  1.98284E+04  2.69841E+03  2.38648E+04  1.73033E+04  1.52440E+04  3.47541E+04 -3.48076E+03  4.00083E+04
 -2.31631E+04  3.30090E+04 -3.74587E+04  1.69186E+04 -3.95777E+04 -3.53660E+03 -3.25483E+04 -2.30442E+04
 -1.30561E+04 -3.34713E+04  1.15466E+04 -2.90829E+04  2.57382E+04 -1.33944E+04  2.19601E+04  6.78723E+03
  6.64920E+03  1.66334E+04 -1.01925E+04  1.47497E+04 -1.94972E+04  2.80743E+03 -1.38689E+04 -1.20447E+04
 -2.11521E+02 -1.65809E+04  9.22991E+03 -1.31205E+04  1.16653E+04 -1.32931E+03  2.83584E+03  8.30837E+03
 -7.70849E+03  3.54027E+03 -7.76003E+03 -6.34263E+03 -1.33980E+03 -1.62804E+04  1.00877E+04 -1.77063E+04
  2.00489E+04 -1.00180E+04  2.28542E+04  2.94717E+03  1.91144E+04  1.64862E+04  8.82552E+03  2.50880E+04
 -4.82484E+03  2.78201E+04 -1.80516E+04  1.71797E+04 -1.97848E+04  3.97116E+03 -1.33191E+04 -4.68376E+03
 -5.53848E+03 -6.96038E+03 -1.12122E+03  7.15418E+02 -2.03218E+03  3.97940E+03 -6.83854E+03  5.65542E+03
 -1.25229E+04 -9.86064E+02 -1.36749E+04 -1.00134E+04 -4.93803E+03 -1.70785E+04  6.29537E+03 -1.38078E+04
  1.11354E+04 -6.60474E+03  8.66766E+03  3.63106E+03 -2.66553E+02  5.48667E+03 -7.03354E+03 -1.77540E+01
 -6.99738E+03 -8.81690E+03 -4.67346E+02 -1.34287E+04  6.74007E+03 -1.40349E+04  1.75849E+04 -7.26991E+03
  2.09502E+04  1.12562E+03  1.44885E+04  1.24939E+04  2.63749E+03  1.58184E+04 -8.41921E+03  1.42654E+04
 -1.05850E+04  4.59080E+03 -6.11468E+03 -3.09457E+03  2.21822E+03 -3.15092E+03  6.46150E+03 -8.99052E+02
  6.20622E+03  5.52076E+03  8.27205E+02  1.19832E+04 -7.57524E+03  1.09258E+04 -1.28480E+04  2.62105E+03
 -9.60773E+03 -7.25383E+03 -7.96341E+02 -1.19087E+04  7.52822E+03 -5.83098E+03  7.87223E+03  2.11643E+03
  2.01632E+03  8.14248E+03 -7.28457E+03  9.82871E+03 -1.20001E+04  4.34139E+03 -1.13023E+04 -4.32157E+03
 -6.18062E+03 -1.25824E+04  2.84583E+03 -1.51178E+04  1.28074E+04 -9.38761E+03  1.37269E+04  2.01206E+03
  8.60613E+03  1.08224E+04 -1.08954E+03  1.38095E+04 -1.00618E+04  6.99677E+03 -1.04453E+04 -3.29310E+02
 -9.27968E+03 -9.57450E+03 -1.56138E+03 -1.04215E+04  5.45561E+03 -8.29487E+03  6.54282E+03 -3.58526E+03
  4.47817E+03  1.73845E+03 -6.90717E+02  2.92251E+03 -2.15576E+02 -2.88021E+03  2.34086E+03 -6.58113E+03
  9.62512E+03 -4.04307E+03  1.30952E+04  1.66360E+03  1.31303E+04  9.36300E+03  9.21570E+03  1.67222E+04
 -4.77678E+03  1.93411E+04 -1.69896E+04  1.43718E+04 -2.15449E+04  2.63777E+03 -1.65673E+04 -6.76602E+03
 -8.90589E+03 -1.40601E+04 -1.27096E+02 -1.19781E+04  4.98487E+03 -6.71135E+03  4.39767E+03 -4.27047E+03
  3.03578E+03 -3.19968E+03  3.75013E+03 -3.33174E+03  5.07398E+03 -2.98140E+03  6.88782E+03 -5.01306E+02
  8.62716E+03  2.17703E+03  4.82711E+03  8.08308E+03 -2.12216E+03  8.32791E+03 -9.09903E+03  6.70815E+03
 -1.22658E+04 -1.13446E+03 -7.49965E+03 -8.41377E+03 -1.06252E+03 -1.23984E+04  6.89626E+03 -1.29553E+04
  1.27738E+04 -6.25449E+03  1.59407E+04  2.78700E+03  1.09655E+04  1.07807E+04  2.18770E+03  1.45075E+04
 -5.70679E+03  1.22531E+04 -8.51386E+03  3.44716E+03 -5.73216E+03 -1.52341E+03 -1.87498E+03 -1.99596E+03
 -1.28076E+03 -5.26561E+02 -1.81318E+03  2.66346E+03 -5.58441E+03  1.64349E+03 -7.56623E+03 -9.76744E+02
 -5.48439E+03 -8.37954E+03 -4.46033E+02 -1.19385E+04  6.77760E+03 -1.12888E+04  1.16629E+04 -2.66916E+03
  1.14081E+04  5.54400E+03  5.32297E+03  1.09746E+04 -2.18271E+03  1.17229E+04 -8.72680E+03  7.33979E+03
 -1.05632E+04  3.78505E+02 -8.61627E+03 -7.37235E+03 -4.97882E+02 -9.16001E+03  4.76986E+03 -7.35843E+03
  7.30534E+03 -2.55322E+03  5.92820E+03  1.89219E+03  1.59844E+03  2.75411E+03  1.51338E+03  1.70749E+03
  2.03580E+03  7.87196E+02  3.38945E+03  1.44949E+03  3.74325E+03  3.30489E+03  2.75852E+03  6.84818E+03
 -2.47052E+03  8.77715E+03 -8.14593E+03  8.27131E+03 -1.18517E+04  3.00472E+03 -1.20093E+04 -5.37538E+03
 -5.57852E+03 -1.23260E+04  1.89234E+03 -1.30451E+04  7.05205E+03 -7.85334E+03  9.98639E+03 -2.34811E+03
  7.09950E+03  4.62999E+03  1.51358E+03  7.19839E+03 -3.19804E+03  4.22624E+03 -4.48806E+03 -8.83352E+02
 -2.32707E+03 -4.76108E+03  3.01377E+03 -4.52595E+03  4.69020E+03 -2.91327E+03  4.14285E+03  3.18771E+02
  2.41743E+03  1.73692E+03  2.12181E+03  1.39983E+03 -9.24852E+02  1.70274E+03  1.02567E+03 -2.80352E+02
  1.78873E+03 -9.11159E+02  4.52111E+03  1.92769E+03  2.90393E+03  5.63727E+03 -3.76859E+02  8.84780E+03
 -4.96800E+03  5.99675E+03 -6.79629E+03  1.63594E+03 -5.92344E+03 -2.56120E+03 -3.14864E+03 -4.45021E+03
  2.91719E+02 -4.22315E+03  2.37453E+03 -2.66532E+03  2.27065E+03  2.31092E+03 -1.50802E+03  2.77268E+03
 -5.39140E+03  2.35747E+03 -5.26382E+03 -2.67361E+03 -3.72191E+03 -6.76452E+03  1.57556E+03 -6.44707E+03
  3.63292E+03 -3.62303E+03  4.45868E+03 -4.09959E+02  3.22715E+03  1.14413E+03  1.04912E+03  3.63158E+03
 -2.90705E+03  3.93610E+02 -2.66451E+03 -1.97880E+03  1.08971E+03 -4.11855E+03  5.97904E+03 -3.39693E+03
  6.55006E+03  9.24702E+02  7.42137E+03  4.21847E+03  2.52189E+03  7.29607E+03 -1.82417E+03  6.44633E+03
 -5.54655E+03  2.69541E+03 -5.70349E+03 -8.45372E+02 -4.05934E+03 -5.24427E+03  1.40613E+03 -4.65749E+03
  4.66578E+03 -1.99950E+03  3.92952E+03  2.19964E+03  1.11898E+03  3.90236E+03 -4.10824E+02  2.82870E+03
 -1.65849E+03  2.37121E+03 -1.49608E+03  9.48383E+02 -1.13932E+03  9.13425E+02 -1.08857E+03  1.35567E+03
 -1.81299E+03  2.48205E+03 -5.03229E+03  2.17886E+03 -7.67339E+03 -2.12449E+02 -8.42188E+03 -4.87874E+03
 -4.46458E+03 -1.00424E+04  1.59906E+03 -1.13422E+04  6.67911E+03 -8.59875E+03  1.04624E+04 -3.34919E+03
  1.00434E+04  2.38917E+03  5.94680E+03  6.65942E+03  8.63908E+01  7.18558E+03 -3.09845E+03  5.36308E+03
 -4.61259E+03  2.43946E+03 -3.30709E+03 -1.27404E+03 -8.02138E+02 -6.90206E+02 -2.19308E+02 -2.47392E+02
 -1.73053E+03 -4.26217E+02 -1.51666E+03 -5.20467E+02 -1.29707E+02 -1.90047E+03  2.38941E+02 -2.94481E+03
  3.89793E+03 -2.69636E+03  3.57679E+03  5.29678E+02  4.98251E+03  3.80755E+03  1.49728E+03  7.35385E+03
 -3.39560E+03  8.35158E+03 -7.76628E+03  4.97577E+03 -8.19652E+03 -3.18683E+02 -6.36061E+03 -5.03829E+03
 -2.84979E+03 -7.04170E+03  1.59019E+03 -6.93950E+03  5.12572E+03 -3.21007E+03  4.61689E+03 -2.24378E+02
  2.65379E+03  2.34026E+03 -1.26890E+02  2.54499E+03 -1.18057E+03 -2.14341E+02  3.22303E+02 -1.93333E+03
  2.31088E+03 -4.32042E+01  2.42902E+03  1.11359E+03  1.82570E+03  3.14182E+03  5.09707E+02  3.59585E+03
 -3.69295E+03  3.28370E+03 -4.57128E+03  1.55717E+01 -3.83072E+03 -3.56422E+03 -5.80193E+02 -6.28212E+03
  3.25014E+03 -3.93599E+03  5.47469E+03 -1.33329E+03  5.33448E+03  1.24223E+03  3.32031E+03  3.73562E+03
  1.03233E+03  4.85040E+03 -1.07088E+03  3.50277E+03 -2.41141E+03  2.10922E+03 -1.99052E+03 -1.46565E+02
 -1.18041E+03 -7.60972E+02 -1.93445E+03  1.18275E+03 -1.77408E+03  5.98967E+02 -3.26902E+03 -5.93046E+02
 -3.72156E+03 -2.76377E+03 -1.15450E+03 -5.20365E+03  2.07653E+03 -4.79606E+03  4.02371E+03 -1.87191E+03
  4.27197E+03  3.54076E+02  2.82090E+03  3.02064E+03  1.00016E+02  4.82546E+03 -3.05652E+03  3.29147E+03
