 $NMID ID='MM_0lb_SNR400_9hz_g50_45.RAW', FMTDAT='(8E13.5)'
 TRAMP=1., VOLUME=1. $END
  3.09505E+05  7.63435E+02  3.37521E+05  2.49655E+05  8.43598E+04  3.37355E+05 -1.33168E+05  2.51872E+05
 -1.90924E+05  8.37276E+04 -1.12242E+05 -3.33341E+04  1.49178E+02 -5.05305E+04  5.26845E+04 -1.02081E+03
  3.53144E+04  5.18579E+04 -1.71268E+04  7.59221E+04 -6.19253E+04  6.42010E+04 -8.51141E+04  3.34070E+04
 -8.23549E+04 -1.21078E+04 -5.89599E+04 -5.20568E+04 -1.55957E+04 -7.09689E+04  2.82568E+04 -4.69831E+04
  4.09977E+04  2.61476E+03  1.60868E+04  4.80319E+04 -3.47654E+04  4.80769E+04 -6.83006E+04 -1.75102E+02
 -5.46679E+04 -5.77633E+04 -6.11617E+03 -7.90025E+04  3.57407E+04 -5.67428E+04  4.92818E+04 -1.83039E+04
  4.52198E+04  1.19968E+04  3.38797E+04  2.71736E+04  1.54334E+04  3.02677E+04 -6.27087E+03  2.83428E+04
 -2.23101E+04  1.17425E+04 -1.80753E+04 -5.90854E+03  6.40640E+03 -7.45684E+03  2.40836E+04  1.39182E+04
  7.33617E+03  3.70462E+04 -3.30600E+04  3.68151E+04 -6.61179E+04  2.08266E+03 -5.93824E+04 -4.50266E+04
 -1.31551E+04 -6.50500E+04  4.15719E+04 -4.73903E+04  6.14500E+04 -3.00036E+03  3.70990E+04  3.47676E+04
 -5.89192E+03  3.93076E+04 -3.13845E+04  1.85035E+04 -3.36866E+04 -3.21393E+03 -1.90449E+04 -1.11614E+04
 -9.47587E+03 -1.53935E+04 -2.29678E+02 -2.00733E+04  8.14481E+03 -2.36789E+04  1.59343E+04 -1.24639E+04
  1.02479E+04  6.35135E+03 -1.16726E+04  1.24194E+04 -2.29785E+04 -6.39882E+03 -8.30120E+03 -3.73755E+04
  2.54104E+04 -4.60259E+04  5.17430E+04 -2.05809E+04  4.85815E+04  2.00967E+04  1.70660E+04  4.75719E+04
 -1.69818E+04  3.58498E+04 -2.77537E+04  2.18516E+03 -1.13562E+04 -2.94891E+04  2.15919E+04 -3.61442E+04
  4.48126E+04 -1.08033E+04  3.98444E+04  2.52917E+04  2.13727E+04  5.11701E+04 -8.67973E+03  5.64527E+04
 -3.57552E+04  3.83813E+04 -4.78079E+04  1.13535E+04 -4.82160E+04 -1.87169E+04 -2.66449E+04 -4.23249E+04
  7.86815E+03 -4.23125E+04  3.43845E+04 -1.70920E+04  3.20492E+04  1.12040E+04  4.75406E+03  2.02796E+04
 -1.37041E+04  1.00956E+04 -1.07412E+04 -6.87536E+03  5.90214E+03 -1.18658E+04  1.90434E+04  5.19751E+03
  1.42520E+04  2.16874E+04 -4.20065E+03  2.71101E+04 -2.30652E+04  1.48860E+04 -3.10550E+04 -2.72627E+03
 -2.54807E+04 -1.80749E+04 -1.18088E+04 -2.47941E+04  3.98392E+03 -2.60358E+04  2.02835E+04 -2.29252E+04
  3.21595E+04 -1.33941E+04  3.92461E+04  4.66580E+03  2.71397E+04  2.50639E+04  4.00115E+03  4.09702E+04
 -2.01881E+04  3.43687E+04 -3.05364E+04  1.24270E+04 -2.26677E+04 -1.04292E+04 -5.14873E+03 -1.28063E+04
  7.09461E+02 -1.49497E+03 -6.93094E+03  8.45092E+03 -2.04752E+04  5.00625E+03 -2.03860E+04 -9.13887E+03
 -1.09987E+04 -2.24949E+04  6.02379E+03 -2.79531E+04  1.86289E+04 -1.86888E+04  2.25366E+04 -5.50332E+02
  1.40104E+04  1.68313E+04 -1.15125E+03  2.31353E+04 -1.64553E+04  1.39483E+04 -2.35836E+04 -4.29825E+03
 -1.70931E+04 -2.09491E+04 -2.38381E+03 -2.83778E+04  1.18486E+04 -2.27448E+04  2.25357E+04 -1.16803E+04
  2.26622E+04 -6.32388E+02  1.53317E+04  4.79255E+03  8.77883E+03  2.10219E+03  1.16195E+04 -2.59464E+03
  2.19258E+04  2.83031E+03  2.58163E+04  1.85576E+04  1.77087E+04  3.75756E+04 -2.28191E+03  4.46981E+04
 -2.43700E+04  3.78294E+04 -4.16859E+04  1.91683E+04 -4.41867E+04 -2.56807E+03 -3.65726E+04 -2.64270E+04
 -1.42890E+04 -3.69016E+04  1.29608E+04 -3.32722E+04  2.76171E+04 -1.58352E+04  2.45013E+04  8.05715E+03
  7.92407E+03  1.88315E+04 -1.20295E+04  1.49292E+04 -2.09309E+04  2.32045E+03 -1.59749E+04 -1.27761E+04
 -2.82782E+02 -1.99360E+04  1.07999E+04 -1.41910E+04  1.33959E+04 -1.68850E+03  2.30224E+03  8.79217E+03
 -8.77264E+03  3.68527E+03 -9.52200E+03 -6.80917E+03 -2.53313E+03 -1.72262E+04  1.16275E+04 -1.96146E+04
  2.30155E+04 -1.19386E+04  2.58017E+04  3.08932E+03  2.26881E+04  1.81894E+04  1.08428E+04  2.84002E+04
 -5.94496E+03  3.07838E+04 -2.05645E+04  1.87381E+04 -2.29856E+04  4.24790E+03 -1.49057E+04 -5.64752E+03
 -6.65882E+03 -7.84918E+03 -6.75889E+02  1.10984E+03 -3.06188E+03  3.47215E+03 -7.24393E+03  5.55553E+03
 -1.36222E+04 -8.09905E+02 -1.43474E+04 -1.20877E+04 -6.21708E+03 -1.89802E+04  6.46364E+03 -1.53292E+04
  1.32313E+04 -6.36450E+03  9.54803E+03  4.41878E+03 -3.56869E+02  6.53912E+03 -7.60231E+03 -5.97383E+02
 -8.06607E+03 -1.09503E+04 -8.22697E+02 -1.51551E+04  8.62472E+03 -1.63170E+04  2.00055E+04 -8.94040E+03
  2.31651E+04  1.41188E+03  1.77346E+04  1.39641E+04  3.40107E+03  1.89205E+04 -9.07724E+03  1.52349E+04
 -1.23763E+04  4.09924E+03 -7.16904E+03 -3.46261E+03  2.77145E+03 -4.30133E+03  8.02146E+03 -1.93363E+03
  6.82087E+03  7.29498E+03  1.06583E+03  1.25410E+04 -8.68450E+03  1.15560E+04 -1.63541E+04  2.04750E+03
 -1.07372E+04 -8.05879E+03  9.05555E+02 -1.33121E+04  8.44868E+03 -7.35787E+03  8.87709E+03  4.48797E+03
  2.67668E+03  9.90726E+03 -8.63160E+03  1.20680E+04 -1.39276E+04  5.61464E+03 -1.44405E+04 -5.30405E+03
 -8.28276E+03 -1.58676E+04  4.05010E+03 -1.82349E+04  1.46089E+04 -1.13741E+04  1.64962E+04  3.19249E+03
  1.02014E+04  1.27565E+04 -1.94532E+03  1.58097E+04 -1.15190E+04  8.94732E+03 -1.29430E+04 -2.49364E+03
 -1.00409E+04 -9.65238E+03 -1.19865E+03 -1.17647E+04  5.85101E+03 -9.54903E+03  8.14986E+03 -4.36556E+03
  5.19186E+03  1.99645E+03 -1.02177E+03  2.06431E+03 -1.76870E+03 -3.13989E+03  2.64496E+03 -7.00766E+03
  1.12601E+04 -4.39299E+03  1.69603E+04  1.97789E+03  1.62677E+04  1.14391E+04  1.04172E+04  2.09560E+04
 -5.20773E+03  2.43884E+04 -1.97036E+04  1.76723E+04 -2.56212E+04  4.00149E+03 -2.13495E+04 -9.03657E+03
 -1.00818E+04 -1.75996E+04 -1.97169E+02 -1.54318E+04  4.92525E+03 -8.20470E+03  5.61975E+03 -5.38441E+03
  3.66619E+03 -4.19291E+03  4.10970E+03 -3.91530E+03  6.22264E+03 -4.34404E+03  8.46296E+03 -1.99653E+03
  1.08128E+04  3.35051E+03  6.10584E+03  9.89746E+03 -2.16882E+03  1.08839E+04 -1.18580E+04  9.06294E+03
 -1.51727E+04 -1.11162E+03 -9.11876E+03 -1.06763E+04 -1.75716E+03 -1.62600E+04  8.56887E+03 -1.54402E+04
  1.59407E+04 -8.71300E+03  1.97070E+04  3.12836E+03  1.40591E+04  1.41790E+04  2.77242E+03  1.70469E+04
 -6.98358E+03  1.44819E+04 -1.03083E+04  5.30180E+03 -7.75319E+03 -1.40059E+03 -3.49643E+03 -2.23023E+03
 -1.05291E+03  5.05597E+00 -3.24900E+03  3.09956E+03 -5.98758E+03  1.72840E+03 -1.01743E+04 -1.29450E+03
 -6.71851E+03 -1.11790E+04  3.15581E+01 -1.47525E+04  8.94632E+03 -1.38791E+04  1.43424E+04 -3.20395E+03
  1.48071E+04  7.00878E+03  7.10973E+03  1.33484E+04 -2.89638E+03  1.61199E+04 -1.07562E+04  9.64166E+03
 -1.45898E+04  1.08677E+03 -1.11406E+04 -8.72095E+03 -2.68400E+03 -1.25209E+04  6.45568E+03 -9.10325E+03
  8.89275E+03 -3.37429E+03  6.87936E+03  2.78398E+03  2.92031E+03  5.21000E+03  2.00730E+03  2.08796E+03
  2.85211E+03  1.06893E+03  4.74687E+03  1.37001E+03  4.90411E+03  5.55008E+03  3.14393E+03  7.96160E+03
 -2.00631E+03  1.21769E+04 -1.06759E+04  1.17431E+04 -1.53252E+04  3.10624E+03 -1.65258E+04 -6.51070E+03
 -7.41902E+03 -1.43163E+04  2.09738E+03 -1.63867E+04  9.05574E+03 -1.04166E+04  1.16340E+04 -2.51622E+03
  9.44041E+03  5.51686E+03  2.17955E+03  8.65276E+03 -4.00876E+03  6.28076E+03 -6.06581E+03 -6.26328E+02
 -3.01492E+03 -6.33172E+03  2.67578E+03 -6.01724E+03  6.40698E+03 -3.69650E+03  5.83049E+03  1.25782E+03
  3.28693E+03  2.27383E+03  1.88487E+03  2.31288E+03 -5.25881E+02  2.39407E+03  1.44507E+03  2.21322E+01
  1.81795E+03 -4.62921E+02  5.94236E+03  2.16570E+03  3.98236E+03  7.58505E+03 -1.13198E+03  1.07058E+04
 -8.20997E+03  7.09123E+03 -9.78423E+03  1.86172E+03 -8.68523E+03 -3.99107E+03 -3.37597E+03 -5.69956E+03
  1.70698E+02 -5.91041E+03  4.38956E+03 -3.47706E+03  3.06168E+03  2.39380E+03 -1.87049E+03  5.23531E+03
 -6.01603E+03  3.40093E+03 -6.57293E+03 -3.74737E+03 -3.29458E+03 -8.57485E+03  4.14256E+02 -8.16699E+03
  5.74448E+03 -5.28563E+03  5.78401E+03 -9.84826E+02  5.41916E+03  3.12526E+03  4.24334E+02  4.39132E+03
 -2.56190E+03  1.68914E+03 -3.16384E+03 -2.17685E+03  1.65719E+03 -6.29882E+03  8.12591E+03 -5.93385E+03
  1.03068E+04 -3.95441E+00  9.17829E+03  7.17476E+03  3.76285E+03  9.88674E+03 -3.80930E+03  9.85679E+03
 -7.45406E+03  4.46443E+03 -8.17979E+03 -1.09338E+03 -5.11481E+03 -6.45803E+03  1.26512E+03 -6.95429E+03
  6.84605E+03 -2.99871E+03  5.77060E+03  2.99512E+03  1.93345E+03  5.10048E+03 -1.44690E+03  5.10405E+03
 -2.98732E+03  2.79559E+03 -3.02119E+03  1.10897E+03 -9.30508E+02 -2.52294E+02 -1.26770E+03  6.83503E+02
 -2.75028E+03  4.31147E+03 -6.37022E+03  3.72991E+03 -1.05618E+04  1.04664E+02 -1.14315E+04 -6.85831E+03
 -6.27029E+03 -1.34177E+04  2.94330E+03 -1.45508E+04  9.75599E+03 -1.22229E+04  1.46580E+04 -4.57582E+03
  1.34712E+04  2.60351E+03  8.95841E+03  8.65312E+03  6.72665E+02  1.09225E+04 -3.90099E+03  8.04301E+03
 -6.38317E+03  3.58604E+03 -4.58463E+03 -2.33373E+03 -8.38594E+02 -1.40462E+03 -8.37601E+02 -3.52801E+02
 -2.03995E+03  1.13389E+03 -2.62834E+03 -7.47961E+02 -1.47554E+03 -1.83291E+03  5.53122E+02 -4.63154E+03
  5.59119E+03 -3.52385E+03  5.94566E+03 -2.78820E+02  7.50128E+03  5.93933E+03  2.82610E+03  1.07093E+04
 -6.41966E+03  1.08678E+04 -1.10649E+04  6.76812E+03 -1.30287E+04 -1.12103E+03 -9.02139E+03 -8.08253E+03
 -4.12344E+03 -1.08854E+04  2.46178E+03 -9.78095E+03  7.03636E+03 -5.95404E+03  6.91663E+03  3.86613E+01
  3.82159E+03  3.24489E+03  2.08649E+02  2.39174E+03 -1.48651E+03 -4.13317E+02  3.02453E+02 -1.76998E+03
  3.19493E+03 -6.05389E+02  4.71320E+03  1.73495E+03  3.74403E+03  4.35015E+03 -2.38536E+02  5.42761E+03
 -3.55236E+03  4.30778E+03 -7.32475E+03  1.41607E+01 -6.89389E+03 -4.92583E+03 -1.10176E+03 -8.66891E+03
  4.04557E+03 -7.44240E+03  8.14767E+03 -2.22762E+03  8.37346E+03  2.73309E+03  4.89898E+03  6.88284E+03
  1.08302E+01  7.37723E+03 -2.88354E+03  6.58249E+03 -3.82963E+03  3.06369E+03 -3.77504E+03  9.32171E+02
 -2.22525E+03  1.62887E+02 -1.63914E+03  1.39492E+03 -4.01030E+03  1.56995E+03 -5.57741E+03 -8.45839E+02
 -5.24715E+03 -4.09698E+03 -1.75857E+03 -7.06158E+03  3.62981E+03 -8.20423E+03  6.26447E+03 -3.52265E+03
  6.90349E+03  6.45105E+02  4.93906E+03  4.82583E+03 -7.47315E+02  7.59635E+03 -4.86326E+03  4.69088E+03
