 $NMID ID='MM_0lb_SNR400_16hz_g50_78.RAW', FMTDAT='(8E13.5)'
 TRAMP=1., VOLUME=1. $END
  3.10481E+05  2.61026E+02  3.37234E+05  2.50398E+05  8.47928E+04  3.37715E+05 -1.32625E+05  2.50651E+05
 -1.89678E+05  8.32787E+04 -1.12150E+05 -3.23919E+04  1.61923E+03 -5.03008E+04  5.33106E+04  1.48298E+02
  3.48023E+04  5.26080E+04 -1.70811E+04  7.49522E+04 -6.05385E+04  6.35257E+04 -8.38516E+04  3.23539E+04
 -8.02299E+04 -1.18162E+04 -5.65829E+04 -5.12755E+04 -1.47734E+04 -6.92815E+04  2.79255E+04 -4.52371E+04
  4.03465E+04  3.79174E+03  1.63611E+04  4.79385E+04 -3.42642E+04  4.68009E+04 -6.60369E+04 -1.09702E+03
 -5.25495E+04 -5.66027E+04 -6.41691E+03 -7.59624E+04  3.34979E+04 -5.39322E+04  4.70330E+04 -1.73170E+04
  4.22976E+04  1.11588E+04  3.19801E+04  2.56919E+04  1.64408E+04  2.91501E+04 -5.40822E+03  2.71560E+04
 -2.22081E+04  1.28821E+04 -1.85069E+04 -4.67526E+03  4.98871E+03 -7.51598E+03  2.19904E+04  1.18102E+04
  7.25553E+03  3.52830E+04 -3.14732E+04  3.51982E+04 -6.19971E+04  2.29100E+03 -5.67571E+04 -4.24123E+04
 -1.23342E+04 -6.25164E+04  3.84556E+04 -4.43858E+04  5.65384E+04 -1.89331E+03  3.27589E+04  3.13944E+04
 -6.19527E+03  3.45213E+04 -2.91118E+04  1.51765E+04 -2.94376E+04 -4.78359E+03 -1.56204E+04 -1.08441E+04
 -8.23748E+03 -1.30511E+04 -6.81475E+02 -1.74826E+04  7.00940E+03 -2.30535E+04  1.52573E+04 -1.34877E+04
  1.14040E+04  5.19553E+03 -7.55119E+03  1.34893E+04 -1.97726E+04 -3.22325E+03 -8.26733E+03 -3.23875E+04
  2.22566E+04 -4.18487E+04  4.65495E+04 -1.94710E+04  4.36892E+04  1.88138E+04  1.53439E+04  4.29158E+04
 -1.54528E+04  3.20441E+04 -2.48495E+04  1.11430E+03 -9.09689E+03 -2.77034E+04  2.05948E+04 -3.27598E+04
  3.97593E+04 -8.51966E+03  3.32986E+04  2.35215E+04  1.71425E+04  4.48644E+04 -7.58606E+03  4.84487E+04
 -2.95964E+04  3.16920E+04 -3.98094E+04  9.04426E+03 -4.02750E+04 -1.58060E+04 -2.33931E+04 -3.67151E+04
  7.21254E+03 -3.67956E+04  3.04103E+04 -1.38299E+04  2.81941E+04  1.11725E+04  3.51934E+03  1.89367E+04
 -1.35043E+04  7.41908E+03 -9.95853E+03 -7.76023E+03  6.52491E+03 -9.95747E+03  1.76963E+04  6.55002E+03
  1.26543E+04  2.14285E+04 -6.09075E+03  2.43401E+04 -2.21511E+04  1.05692E+04 -2.71698E+04 -5.25142E+03
 -1.89023E+04 -1.65861E+04 -7.72546E+03 -1.89042E+04  3.84662E+03 -1.72054E+04  1.50519E+04 -1.67575E+04
  2.40655E+04 -1.22173E+04  3.04369E+04  1.49570E+03  2.25501E+04  1.79505E+04  4.06270E+03  3.50887E+04
 -1.68673E+04  2.92750E+04 -2.66902E+04  9.53744E+03 -2.04624E+04 -1.05620E+04 -4.39487E+03 -1.37999E+04
  2.38028E+03 -3.02104E+03 -4.11916E+03  5.83032E+03 -1.49520E+04  5.46062E+03 -1.46762E+04 -5.96346E+03
 -9.70222E+03 -1.81691E+04  4.49832E+03 -2.11580E+04  1.42771E+04 -1.58344E+04  1.70256E+04 -1.22482E+03
  1.09516E+04  1.19532E+04 -9.69044E+02  1.75050E+04 -1.17613E+04  9.75155E+03 -1.76892E+04 -3.83624E+03
 -1.30032E+04 -1.60739E+04 -1.48078E+03 -2.15092E+04  9.72301E+03 -1.75288E+04  1.75516E+04 -8.81749E+03
  1.65254E+04  1.06163E+02  1.18935E+04  4.29196E+03  6.13420E+03  6.66956E+02  8.31116E+03 -1.83064E+03
  1.60668E+04  2.65969E+03  1.78824E+04  1.45716E+04  1.07929E+04  2.79998E+04 -3.09991E+03  3.13846E+04
 -1.85742E+04  2.42948E+04 -2.87383E+04  1.19221E+04 -2.97175E+04 -2.00880E+03 -2.54421E+04 -1.77050E+04
 -1.14126E+04 -2.50554E+04  8.56171E+03 -2.24760E+04  1.95497E+04 -1.25605E+04  1.74058E+04  4.51832E+03
  6.64318E+03  1.29688E+04 -7.84616E+03  1.14651E+04 -1.51622E+04  2.26042E+03 -1.13419E+04 -9.12515E+03
 -6.76897E+02 -1.41525E+04  6.95956E+03 -1.08441E+04  8.67098E+03 -1.27983E+03  2.04885E+03  5.93281E+03
 -6.23928E+03  2.13177E+03 -4.89921E+03 -5.10195E+03 -2.27555E+02 -1.25950E+04  9.02611E+03 -1.26841E+04
  1.46740E+04 -7.17046E+03  1.56553E+04  3.23605E+03  1.33292E+04  1.17836E+04  6.23896E+03  1.79790E+04
 -2.64973E+03  1.96523E+04 -1.17340E+04  1.25461E+04 -1.41320E+04  2.99614E+03 -9.76969E+03 -2.15892E+03
 -5.35828E+03 -4.71150E+03 -6.72645E+02  1.38547E+03 -2.25930E+03  2.20511E+03 -4.74500E+03  3.90956E+03
 -9.78870E+03 -7.84654E+02 -9.92964E+03 -7.90121E+03 -4.04036E+03 -1.29461E+04  3.98974E+03 -1.02039E+04
  8.82430E+03 -4.70242E+03  5.61843E+03  2.39871E+03  2.26094E+02  3.43939E+03 -4.25479E+03 -3.41667E+02
 -4.19801E+03 -6.59504E+03 -7.91474E+02 -9.42293E+03  4.82104E+03 -1.00747E+04  1.17093E+04 -5.00294E+03
  1.44764E+04  1.40628E+03  1.03653E+04  7.84033E+03  2.24049E+03  1.13352E+04 -6.06875E+03  9.35922E+03
 -8.73345E+03  2.95966E+03 -4.64227E+03 -2.29543E+03  1.75548E+03 -2.28851E+03  5.69151E+03 -1.41659E+03
  4.66102E+03  4.29276E+03  1.04243E+03  7.55277E+03 -5.69325E+03  7.08585E+03 -9.63583E+03  2.10673E+03
 -6.99308E+03 -4.79117E+03  1.72520E+02 -8.39222E+03  4.65198E+03 -4.91522E+03  4.87117E+03  1.50537E+03
  1.55589E+03  5.10469E+03 -4.48888E+03  6.06206E+03 -6.74656E+03  3.59167E+03 -6.13928E+03 -2.48086E+03
 -4.04816E+03 -7.88785E+03  1.50592E+03 -9.16905E+03  8.51916E+03 -6.05710E+03  8.51238E+03  1.64316E+03
  5.43302E+03  6.64112E+03 -4.99275E+02  9.31816E+03 -6.52891E+03  5.28582E+03 -7.09542E+03 -1.10388E+02
 -6.65194E+03 -6.05413E+03 -1.64538E+03 -6.35089E+03  3.39772E+03 -5.48250E+03  3.74114E+03 -3.30755E+03
  2.79878E+03  3.31078E+02  2.03785E+01  1.22036E+03  6.17978E+02 -6.60863E+02  1.92771E+02 -2.76774E+03
  5.56013E+03 -9.81009E+02  6.73040E+03  1.15416E+03  7.53626E+03  4.63580E+03  6.42543E+03  1.04032E+04
 -2.33841E+03  1.09450E+04 -1.01686E+04  8.82965E+03 -1.31862E+04  1.89065E+03 -9.95483E+03 -3.20697E+03
 -5.44007E+03 -8.32552E+03 -5.84585E+02 -6.77143E+03  2.74974E+03 -2.88088E+03  1.80809E+03 -2.82344E+03
  2.34580E+03 -1.67476E+03  2.53717E+03 -3.43934E+03  4.06873E+03 -1.59414E+03  4.58626E+03  5.92774E+02
  5.50834E+03  1.16609E+03  1.54306E+03  4.07158E+03 -1.26584E+03  4.46379E+03 -5.74963E+03  3.46100E+03
 -6.56971E+03 -1.49019E+03 -3.71841E+03 -4.82328E+03  4.43043E+02 -6.72079E+03  4.25951E+03 -7.63514E+03
  7.28702E+03 -4.38332E+03  9.21167E+03  3.36378E+02  6.80195E+03  6.20457E+03  9.55310E+02  8.21163E+03
 -2.93178E+03  7.74042E+03 -5.09029E+03  2.11971E+03 -2.78913E+03 -1.37461E+03 -1.08900E+03 -1.02004E+03
 -2.84118E+02  2.36278E+02 -1.38628E+03  2.50689E+03 -2.95622E+03  1.17219E+03 -5.13422E+03 -6.36863E+02
 -2.57041E+03 -4.93090E+03  6.21663E+02 -6.36500E+03  3.98432E+03 -5.71048E+03  5.68237E+03 -1.42028E+03
  5.76537E+03  3.60012E+03  2.86329E+03  5.01535E+03 -1.42221E+03  6.24900E+03 -3.94159E+03  3.90200E+03
 -5.29759E+03 -3.06282E+00 -4.42655E+03 -4.10927E+03 -4.44363E+02 -4.42112E+03  2.59635E+03 -3.63013E+03
  4.27942E+03 -1.56487E+03  2.35303E+03  8.54034E+02  1.06199E+03  1.76443E+03  1.54330E+03  1.21666E+03
  1.78075E+03  7.27805E+02  1.91065E+03  1.50251E+03  1.41416E+03  2.57329E+03  1.87369E+03  3.07376E+03
 -6.44920E+02  4.05038E+03 -3.46544E+03  5.08438E+03 -4.35163E+03  1.93748E+03 -6.03393E+03 -1.73313E+03
 -2.42784E+03 -5.26634E+03  6.03608E+02 -6.66212E+03  2.91460E+03 -4.35394E+03  4.37623E+03 -1.48320E+03
  3.33906E+03  2.65534E+03  1.35373E+02  2.93588E+03 -1.05883E+03  1.79060E+03 -1.86756E+03 -1.63742E+02
 -8.13538E+02 -1.90477E+03  1.38996E+03 -2.16185E+03  1.75910E+03 -1.55132E+03  2.59166E+03  2.21665E+02
  1.50962E+03  3.37896E+02  4.25111E+02  2.56317E+02 -4.04046E+02  1.15529E+03  1.50595E+03 -2.98259E+02
  2.82592E+02 -7.53076E+02  2.48982E+03  1.34485E+03  3.96991E+02  3.11975E+03 -1.17111E+03  4.29790E+03
 -2.59031E+03  2.27610E+03 -2.91833E+03  5.69854E+02 -2.82891E+03 -1.52611E+03 -5.59392E+02 -2.16536E+03
  8.03099E+02 -2.03661E+03  1.80193E+03 -6.84818E+02  6.65769E+02  9.97598E+02 -7.63444E+02  2.09284E+03
 -2.40296E+03  7.08645E+02 -1.67879E+03 -1.53569E+03 -7.50615E+02 -3.14733E+03  2.89936E+02 -3.01795E+03
  1.92104E+03 -6.00511E+02  1.30740E+03 -1.99735E+02  1.97116E+03  1.80531E+02  8.62072E+01  1.85305E+03
 -9.63374E+02 -9.69668E+01 -1.35978E+03 -5.08591E+02  1.39262E+03 -1.70891E+03  2.82550E+03 -1.50339E+03
  2.44792E+03  2.75112E+02  4.10602E+03  1.37660E+03  1.32239E+03  2.78977E+03 -4.67329E+02  2.78348E+03
 -1.94647E+03  8.10284E+02 -2.70107E+03 -4.91975E+01 -1.32576E+03 -2.11197E+03  9.83105E+02 -1.09163E+03
  1.95389E+03 -1.36633E+03  1.89789E+03  1.32767E+03  1.87747E+02  1.64057E+03  1.12996E+02  1.55818E+03
 -8.82307E+02  1.46931E+03 -8.47032E+02  9.42243E+01 -3.72099E+02  7.57418E+02 -6.37312E+02 -1.11822E+02
 -7.98297E+02  1.48036E+03 -2.16592E+03  1.02713E+03 -3.12489E+03  1.53267E+02 -3.45910E+03 -2.10123E+03
 -1.70150E+03 -3.92028E+03  7.10148E+02 -4.30630E+03  2.06965E+03 -3.49318E+03  4.27319E+03 -1.62169E+03
  3.68888E+03  3.24217E+02  2.78614E+03  2.95496E+03 -3.15356E+02  2.49474E+03 -6.20450E+02  1.54864E+03
 -1.67097E+03  1.14864E+03 -7.32171E+02 -4.62983E+02  4.12625E+01  4.97768E+02 -4.47397E+02  5.72896E+02
 -1.21801E+03 -1.74824E+02 -1.21827E+03  5.59845E+01  3.28277E+01 -7.18585E+02 -5.92662E+02 -1.18835E+03
  1.56795E+03 -1.27147E+03  5.55470E+02  4.21758E+02  1.88421E+03  1.11613E+03 -6.99820E+02  2.43720E+03
 -1.27469E+03  3.81401E+03 -2.70705E+03  2.58942E+03 -3.19313E+03  1.35466E+02 -2.42833E+03 -2.33185E+03
 -8.78211E+02 -2.17124E+03  7.90480E+02 -2.48226E+03  1.54393E+03 -9.58112E+02  7.44558E+02  3.54147E+02
  1.08213E+03  7.62987E+02  1.89278E+02  3.18985E+02 -1.08209E+03 -1.42220E+02 -3.26707E+02 -6.30817E+02
  1.07336E+03  4.63530E+02  7.84398E+02  7.07899E+02 -1.52519E+02  1.17836E+03  9.02148E+02  5.56999E+02
 -7.28977E+02  1.12263E+03 -1.41095E+03  1.11900E+02 -1.73784E+03 -8.40399E+02  9.93135E+01 -1.65547E+03
  1.00691E+03 -1.56558E+03  1.01307E+03  4.40103E+02  1.55958E+03 -5.92754E+02  9.94861E+02  9.41628E+02
  8.71380E+02  1.41529E+03  3.05294E+01  1.04603E+03 -1.21711E+03  8.34594E+02 -6.94829E+02  1.92630E+02
 -1.71385E+01  6.16515E+01 -7.80058E+02  1.02206E+03 -4.95393E+02  9.93612E+01 -1.81271E+03 -4.69089E+02
 -1.48304E+03 -9.96322E+01 -7.59933E+02 -1.59140E+03  1.37380E+03 -2.48666E+03  1.04962E+03 -2.82772E+02
  9.39822E+02  1.65881E+02  3.98928E+02  6.37657E+02  1.64908E+02  1.04741E+03 -6.20804E+02  1.29783E+03
