 $NMID ID='MM_0lb_SNR400_18hz_g45_83.RAW', FMTDAT='(8E13.5)'
 TRAMP=1., VOLUME=1. $END
  3.10407E+05  5.81643E+01  3.37782E+05  2.50376E+05  8.42758E+04  3.37811E+05 -1.33226E+05  2.50273E+05
 -1.90012E+05  8.22976E+04 -1.11078E+05 -3.28443E+04  1.54285E+03 -5.00280E+04  5.42083E+04  3.85099E+02
  3.53357E+04  5.27257E+04 -1.64447E+04  7.46243E+04 -6.04111E+04  6.25736E+04 -8.29933E+04  3.15496E+04
 -7.95947E+04 -1.08734E+04 -5.61362E+04 -4.99853E+04 -1.48737E+04 -6.82466E+04  2.71493E+04 -4.47290E+04
  3.88134E+04  3.42319E+03  1.53988E+04  4.68188E+04 -3.41292E+04  4.63661E+04 -6.60828E+04 -7.99051E+02
 -5.16900E+04 -5.55896E+04 -6.27898E+03 -7.53014E+04  3.29836E+04 -5.30665E+04  4.61902E+04 -1.61274E+04
  4.17794E+04  1.13959E+04  3.08675E+04  2.45930E+04  1.57674E+04  2.84258E+04 -5.09952E+03  2.63206E+04
 -2.14897E+04  1.27162E+04 -1.83793E+04 -4.39147E+03  4.04217E+03 -7.74878E+03  2.12044E+04  1.13427E+04
  7.44107E+03  3.30589E+04 -3.09836E+04  3.40240E+04 -6.13089E+04  2.40385E+03 -5.52741E+04 -4.17122E+04
 -1.26156E+04 -6.11378E+04  3.90079E+04 -4.35925E+04  5.60954E+04 -2.31936E+03  3.17357E+04  3.06660E+04
 -6.08114E+03  3.33335E+04 -2.88152E+04  1.32388E+04 -2.82309E+04 -5.69419E+03 -1.38461E+04 -1.02138E+04
 -7.60812E+03 -1.13093E+04 -1.58858E+03 -1.64317E+04  6.44449E+03 -2.24004E+04  1.49835E+04 -1.35595E+04
  1.20070E+04  4.54934E+03 -6.25757E+03  1.31627E+04 -1.90199E+04 -2.67427E+03 -7.67397E+03 -3.05761E+04
  2.08350E+04 -4.02550E+04  4.52436E+04 -1.88823E+04  4.27371E+04  1.87628E+04  1.46135E+04  4.16265E+04
 -1.54865E+04  3.10888E+04 -2.34319E+04  1.05339E+03 -8.59338E+03 -2.63986E+04  1.98865E+04 -3.12098E+04
  3.82540E+04 -8.07258E+03  3.20801E+04  2.28770E+04  1.56662E+04  4.28073E+04 -7.50964E+03  4.50973E+04
 -2.86908E+04  2.99197E+04 -3.81158E+04  8.87190E+03 -3.87966E+04 -1.49652E+04 -2.12338E+04 -3.43056E+04
  6.45368E+03 -3.49940E+04  2.93173E+04 -1.26992E+04  2.72114E+04  1.01797E+04  3.03976E+03  1.76560E+04
 -1.30589E+04  7.26839E+03 -1.00382E+04 -7.23568E+03  6.03398E+03 -1.02141E+04  1.72929E+04  6.26386E+03
  1.19463E+04  2.15225E+04 -6.43034E+03  2.33695E+04 -2.18355E+04  9.06167E+03 -2.53928E+04 -6.13901E+03
 -1.69901E+04 -1.66368E+04 -5.70972E+03 -1.71650E+04  3.03841E+03 -1.49927E+04  1.26668E+04 -1.46142E+04
  2.14096E+04 -1.16555E+04  2.81358E+04  1.23689E+03  2.14953E+04  1.68205E+04  4.06078E+03  3.24863E+04
 -1.58138E+04  2.79295E+04 -2.59180E+04  9.50995E+03 -1.97080E+04 -1.06731E+04 -4.46780E+03 -1.39349E+04
  2.41364E+03 -3.71421E+03 -2.75789E+03  5.61722E+03 -1.30130E+04  5.12760E+03 -1.33221E+04 -5.46448E+03
 -8.70000E+03 -1.52747E+04  5.06063E+03 -1.98712E+04  1.29991E+04 -1.45490E+04  1.50513E+04 -1.71481E+03
  9.23498E+03  1.06249E+04 -5.92995E+02  1.57517E+04 -1.05650E+04  8.81563E+03 -1.55581E+04 -3.31681E+03
 -1.21554E+04 -1.42390E+04 -1.11036E+03 -1.92276E+04  8.55937E+03 -1.55022E+04  1.67171E+04 -7.92425E+03
  1.49097E+04  9.19409E+02  1.04076E+04  4.06267E+03  5.42657E+03  2.21118E+02  7.83795E+03 -9.38846E+02
  1.37509E+04  3.16415E+03  1.51719E+04  1.23861E+04  9.74894E+03  2.43413E+04 -3.17066E+03  2.68301E+04
 -1.58263E+04  2.04315E+04 -2.47457E+04  1.04144E+04 -2.58833E+04 -1.67234E+03 -2.14468E+04 -1.49236E+04
 -1.01674E+04 -2.04023E+04  6.54803E+03 -1.92099E+04  1.68774E+04 -1.11775E+04  1.57141E+04  3.48846E+03
  6.76186E+03  1.12356E+04 -6.41330E+03  1.02009E+04 -1.33366E+04  2.58032E+03 -1.05395E+04 -8.87890E+03
 -1.64003E+02 -1.25236E+04  5.75872E+03 -9.18984E+03  8.62902E+03 -1.65915E+03  2.05178E+03  4.95083E+03
 -6.11832E+03  1.21473E+03 -3.62015E+03 -5.18473E+03  7.66623E+02 -1.06430E+04  7.93089E+03 -1.00446E+04
  1.23810E+04 -4.95128E+03  1.22690E+04  2.92786E+03  1.05081E+04  9.65208E+03  4.73481E+03  1.42146E+04
 -1.72096E+03  1.60683E+04 -9.54101E+03  1.08363E+04 -1.09316E+04  2.81348E+03 -8.63772E+03 -2.37236E+03
 -4.46162E+03 -3.45997E+03 -7.46227E+02  1.39816E+03 -1.57632E+03  2.03322E+03 -3.21127E+03  3.72837E+03
 -8.03482E+03 -2.56521E+02 -8.78458E+03 -7.62892E+03 -3.31042E+03 -1.16145E+04  3.14532E+03 -8.77243E+03
  7.46727E+03 -3.88376E+03  4.95344E+03  1.86704E+03  2.57451E+02  3.60432E+03 -3.28437E+03 -2.97336E+02
 -3.60769E+03 -5.15979E+03 -1.46029E+03 -7.75191E+03  4.02459E+03 -7.30305E+03  1.01825E+04 -3.54681E+03
  1.21339E+04  9.92915E+02  8.66993E+03  6.16304E+03  1.91650E+03  8.63493E+03 -5.42683E+03  8.07614E+03
 -7.06381E+03  3.40556E+03 -3.74242E+03 -1.61909E+03  1.70493E+03 -1.46474E+03  4.62592E+03 -1.20666E+03
  3.65824E+03  3.45994E+03  7.98983E+02  6.82087E+03 -4.78219E+03  6.36325E+03 -8.39373E+03  1.62418E+03
 -5.18424E+03 -3.95345E+03  2.98636E+02 -5.87255E+03  4.05032E+03 -3.67715E+03  3.23203E+03  1.02073E+03
  2.48470E+01  3.36277E+03 -4.19299E+03  4.59872E+03 -4.86888E+03  2.84821E+03 -4.75293E+03 -1.28176E+03
 -3.02457E+03 -6.62219E+03  1.05167E+03 -7.66160E+03  6.22136E+03 -5.43832E+03  6.75102E+03  1.07592E+03
  4.46558E+03  5.55038E+03 -7.88538E+01  7.60869E+03 -5.07861E+03  4.41013E+03 -5.85080E+03 -3.66957E+02
 -5.87366E+03 -4.69054E+03 -1.60636E+03 -5.40347E+03  2.34112E+03 -5.21580E+03  2.91141E+03 -2.71022E+03
  3.10494E+03 -6.05567E+01 -2.52740E+02  1.17611E+03  5.22233E+02 -4.63495E+02  8.82875E+01 -1.96332E+03
  4.26131E+03 -9.59310E+02  5.99856E+03  7.25848E+02  5.70245E+03  3.53642E+03  5.08263E+03  7.31856E+03
 -1.44557E+03  8.92247E+03 -7.95219E+03  6.90021E+03 -1.04146E+04  1.06314E+03 -8.03201E+03 -2.85118E+03
 -4.19547E+03 -6.74420E+03 -7.30417E+02 -5.52732E+03  2.05684E+03 -2.22085E+03  1.97416E+03 -2.79285E+03
  1.52857E+03 -1.75856E+03  2.35087E+03 -2.62265E+03  4.06204E+03 -1.50797E+03  3.50944E+03  5.97497E+02
  4.57841E+03  1.22864E+03  8.56152E+02  3.97062E+03 -1.34434E+03  3.08602E+03 -4.27125E+03  2.55853E+03
 -5.32626E+03 -7.48036E+02 -1.91861E+03 -3.55990E+03  7.33171E+02 -5.52707E+03  3.21745E+03 -5.53782E+03
  5.90651E+03 -2.76129E+03  7.42800E+03  1.13915E+02  5.08028E+03  4.42768E+03  1.25711E+03  6.28847E+03
 -1.89848E+03  6.28620E+03 -3.41304E+03  2.25396E+03 -1.66225E+03 -8.63751E+02 -4.35794E+02  3.01934E+02
 -3.04227E+02  3.09390E+02 -6.32725E+02  2.10483E+03 -2.53579E+03  1.08493E+03 -4.23455E+03 -1.23829E+02
 -1.99658E+03 -4.20070E+03  1.12169E+03 -4.94748E+03  3.16673E+03 -4.36172E+03  3.67209E+03 -1.13826E+03
  4.67096E+03  3.00895E+03  2.13040E+03  3.04741E+03 -2.11938E+02  4.48014E+03 -2.80559E+03  2.85930E+03
 -3.97784E+03  9.77159E+02 -3.38599E+03 -2.42583E+03 -7.76164E+02 -3.32960E+03  1.47359E+03 -2.27859E+03
  2.97646E+03 -1.47747E+03  2.45557E+03  5.88584E+02  6.82187E+02  1.30010E+03  8.23628E+02  4.28599E+02
  1.97705E+03  4.83319E+02  1.92651E+03  1.36140E+03  1.18256E+03  2.66005E+03  7.54099E+02  1.72893E+03
 -1.31264E+03  3.27586E+03 -2.88574E+03  4.78154E+03 -2.76209E+03  9.55380E+02 -4.69390E+03 -1.02354E+03
 -1.72522E+03 -3.89733E+03  1.27979E+03 -4.50653E+03  1.75020E+03 -3.12294E+03  3.52293E+03 -7.65687E+02
  2.57821E+03  2.40497E+03  4.33211E+02  2.05786E+03 -7.86137E+02  1.44073E+03 -8.11872E+02  3.01223E+01
 -4.79849E+02 -1.80224E+03  1.13268E+03 -1.65567E+03  8.98198E+02 -1.01142E+03  1.19060E+03  6.26055E+02
  9.02697E+02  5.99973E+02  7.30800E+02 -1.91977E+02 -4.75195E+02  1.28627E+03  1.46161E+03 -3.21565E+02
  2.06427E+02 -4.11879E+02  1.85656E+03  3.52208E+02  4.24825E+02  2.88361E+03 -2.18950E+02  2.95744E+03
 -1.33424E+03  1.13930E+03 -2.33275E+03  2.74301E+02 -1.99206E+03 -9.83169E+02 -2.47068E+02 -1.26312E+03
  5.41341E+02 -1.62359E+03  7.04149E+02 -1.08765E+03  5.58405E+02  6.34043E+02 -7.69742E+02  1.39062E+03
 -2.00436E+03  9.87080E+02 -1.81209E+03 -9.87029E+02 -4.79277E+02 -2.36605E+03  5.39649E+01 -2.18941E+03
  8.88284E+02 -7.80247E+02  5.14955E+02 -1.04920E+02  1.27070E+03 -1.18534E+02  2.15480E+02  1.14352E+03
 -4.53300E+02  3.10212E+02 -7.33716E+02 -1.73296E+02  4.64282E+02 -9.55035E+02  2.29061E+03 -1.01001E+03
  1.57779E+03  2.94452E+01  2.41674E+03  4.41649E+02  1.15951E+03  1.33084E+03 -2.49137E+02  2.32223E+03
 -1.62938E+03  3.48590E+02 -1.70166E+03 -8.40565E+01 -1.16766E+03 -1.43087E+03  2.33146E+02 -5.20195E+02
  1.56049E+03 -7.04594E+02  7.29234E+02  1.16730E+03  1.91240E+02  1.17373E+03  3.02582E+02  1.05506E+03
 -5.35814E+02  1.42816E+03 -7.08504E+02 -2.07502E+02 -1.68886E+02  5.23549E+02 -1.33580E+03  1.00991E+03
 -6.75819E+02  7.56376E+02 -2.17687E+03  6.50041E+02 -2.02357E+03  4.20773E+02 -2.56237E+03 -1.56868E+03
 -1.00922E+03 -2.47506E+03  5.24752E+02 -3.33782E+03  1.00034E+03 -2.86698E+03  3.18449E+03 -1.32406E+03
  2.51107E+03 -2.68909E+02  1.08687E+03  1.63634E+03 -2.65895E+02  1.42814E+03 -7.00639E+02  1.67590E+03
 -1.56652E+03  1.04824E+03 -1.11989E+03 -3.66959E+02 -5.81576E+01  4.52387E+02 -1.13855E+03 -2.36788E+02
 -1.46120E+03 -2.09339E+02 -9.63931E+01  6.10999E+02  1.74888E+02 -7.64422E+02 -3.03881E+02 -4.48091E+02
  1.27180E+03 -4.05185E+02  9.65191E+02  1.99139E+02  9.13252E+02  1.21776E+03 -9.55901E+02  1.74518E+03
 -6.75839E+02  2.06549E+03 -2.33062E+03  1.21769E+03 -1.96493E+03 -5.62766E+02 -1.98574E+03 -1.29108E+03
 -1.01915E+03 -1.68713E+03 -8.35716E+01 -1.87729E+03  7.50211E+02 -8.61491E+02  4.40424E+02  3.22318E+02
  4.27410E+02  5.25441E+02  1.90499E+02  2.20407E+02 -7.63907E+02  6.68475E+02  2.88060E+02 -2.91718E+02
  4.82901E+02  2.22869E+02  3.21993E+02  5.85659E+02  8.92676E+01  6.72910E+02 -3.64299E+01  1.28473E+02
 -4.00394E+02  6.80189E+02  3.36681E+02 -1.58885E+01 -1.13405E+03 -7.87206E+02 -5.29049E+01 -1.31908E+03
  7.17792E+02 -4.36594E+02  6.83162E+02 -1.55378E+02  1.12139E+03 -3.39679E+02  3.08012E+02  8.97605E+02
  4.89040E+02  1.69192E+03 -4.16178E+02  3.16380E+02 -7.27005E+02  1.19529E+02 -1.73696E+02  6.18188E+01
 -4.45729E+02 -5.86084E+02 -6.02410E+02  3.10814E+02 -8.54798E+02  3.70443E+02 -5.23990E+02 -3.75930E+02
 -8.25349E+02  3.42596E+02 -1.96721E+02 -1.18443E+03  1.22870E+02 -1.46676E+03  8.26642E+02 -9.29508E+01
  6.46584E+01  1.17304E+02  1.23420E+02  3.56504E+02 -7.33432E+02  9.42664E+02 -9.33936E+02  3.50975E+02
