 $NMID ID='MM_0lb_SNR400_11hz_g60_5.RAW', FMTDAT='(8E13.5)'
 TRAMP=1., VOLUME=1. $END
  3.10002E+05  1.26843E+01  3.37226E+05  2.50752E+05  8.42651E+04  3.38397E+05 -1.32465E+05  2.52092E+05
 -1.90925E+05  8.42526E+04 -1.12960E+05 -3.19778E+04 -1.83022E+02 -5.09325E+04  5.42125E+04 -1.24390E+03
  3.49826E+04  5.24186E+04 -1.67808E+04  7.60418E+04 -6.17659E+04  6.41006E+04 -8.49369E+04  3.21441E+04
 -8.24906E+04 -1.13524E+04 -5.75955E+04 -5.36187E+04 -1.50426E+04 -7.16216E+04  2.73886E+04 -4.65242E+04
  4.10447E+04  3.85878E+03  1.68960E+04  4.81065E+04 -3.53572E+04  4.84715E+04 -6.69152E+04 -7.94839E+02
 -5.51443E+04 -5.88090E+04 -8.15480E+03 -7.85859E+04  3.50863E+04 -5.62157E+04  5.01253E+04 -1.76553E+04
  4.55684E+04  1.10873E+04  3.28196E+04  2.63271E+04  1.55961E+04  3.04897E+04 -5.68402E+03  2.80568E+04
 -2.25018E+04  1.18637E+04 -1.77305E+04 -6.04353E+03  6.38684E+03 -7.41549E+03  2.38639E+04  1.31547E+04
  6.55886E+03  3.74382E+04 -3.38054E+04  3.68621E+04 -6.59942E+04  2.18235E+03 -5.91242E+04 -4.46808E+04
 -1.24544E+04 -6.51063E+04  4.16465E+04 -4.71230E+04  6.12694E+04 -2.94380E+03  3.68032E+04  3.40966E+04
 -5.85407E+03  3.82983E+04 -3.19810E+04  1.89196E+04 -3.31008E+04 -3.13318E+03 -1.93382E+04 -1.09045E+04
 -9.17799E+03 -1.50462E+04 -6.91849E+02 -1.94443E+04  8.37249E+03 -2.31835E+04  1.65334E+04 -1.28395E+04
  1.03171E+04  6.20910E+03 -1.00226E+04  1.25239E+04 -2.31615E+04 -6.49939E+03 -8.39144E+03 -3.71217E+04
  2.53047E+04 -4.59044E+04  5.16548E+04 -2.00999E+04  4.82291E+04  2.10461E+04  1.69013E+04  4.64465E+04
 -1.64985E+04  3.53281E+04 -2.73298E+04  2.33895E+03 -1.13095E+04 -2.92907E+04  2.11310E+04 -3.68404E+04
  4.39725E+04 -1.16702E+04  3.89921E+04  2.51038E+04  2.07199E+04  5.08830E+04 -8.44376E+03  5.54866E+04
 -3.48742E+04  3.76895E+04 -4.70956E+04  1.10387E+04 -4.72656E+04 -1.76843E+04 -2.56377E+04 -4.16727E+04
  6.74498E+03 -4.20351E+04  3.37230E+04 -1.62908E+04  3.17379E+04  1.11582E+04  4.70516E+03  2.01039E+04
 -1.39571E+04  9.78695E+03 -1.14891E+04 -7.69067E+03  5.26209E+03 -1.08345E+04  1.93044E+04  5.80640E+03
  1.49878E+04  2.26503E+04 -4.98208E+03  2.74446E+04 -2.30858E+04  1.40349E+04 -3.05188E+04 -3.38853E+03
 -2.46092E+04 -1.82554E+04 -1.07230E+04 -2.45091E+04  4.83016E+03 -2.45607E+04  1.89368E+04 -2.20547E+04
  3.09789E+04 -1.38614E+04  3.71819E+04  4.94117E+03  2.72730E+04  2.36657E+04  4.20034E+03  4.10780E+04
 -1.99133E+04  3.38459E+04 -2.99390E+04  1.19558E+04 -2.24135E+04 -9.72444E+03 -4.94676E+03 -1.22473E+04
  8.67870E+02 -2.16612E+03 -7.42479E+03  8.50233E+03 -1.99125E+04  5.24102E+03 -1.95210E+04 -8.57793E+03
 -1.17680E+04 -2.28350E+04  5.47029E+03 -2.71182E+04  1.76145E+04 -1.90027E+04  2.19268E+04 -1.40517E+03
  1.45031E+04  1.59044E+04 -1.28592E+03  2.22014E+04 -1.56322E+04  1.29175E+04 -2.26206E+04 -4.62865E+03
 -1.67514E+04 -2.04145E+04 -2.42369E+03 -2.70234E+04  1.22199E+04 -2.29079E+04  2.25079E+04 -1.14851E+04
  2.13247E+04 -1.07813E+03  1.54781E+04  4.46684E+03  8.94838E+03  1.67601E+03  1.20682E+04 -1.14740E+03
  2.17288E+04  2.33344E+03  2.43176E+04  1.75486E+04  1.67454E+04  3.60014E+04 -2.75033E+03  4.18377E+04
 -2.38492E+04  3.49400E+04 -4.10685E+04  1.85952E+04 -4.18718E+04 -2.81759E+03 -3.53967E+04 -2.52037E+04
 -1.38195E+04 -3.63030E+04  1.19863E+04 -3.07438E+04  2.57921E+04 -1.50568E+04  2.26366E+04  7.36795E+03
  7.22983E+03  1.79972E+04 -1.06606E+04  1.56570E+04 -1.92947E+04  2.71882E+03 -1.44943E+04 -1.18122E+04
 -5.75844E+02 -1.85678E+04  9.58357E+03 -1.36309E+04  1.20432E+04 -1.03230E+03  3.14836E+03  8.91918E+03
 -7.83519E+03  3.82611E+03 -9.67580E+03 -6.90940E+03 -6.14538E+02 -1.76973E+04  1.09635E+04 -1.85543E+04
  2.20606E+04 -1.06386E+04  2.41437E+04  3.79943E+03  2.12988E+04  1.77617E+04  9.60241E+03  2.72597E+04
 -4.79405E+03  2.86778E+04 -1.92703E+04  1.81056E+04 -2.10659E+04  3.95549E+03 -1.50912E+04 -5.48204E+03
 -6.18534E+03 -6.50466E+03 -2.68308E+02  3.54303E+02 -2.86107E+03  3.73745E+03 -6.59365E+03  5.74689E+03
 -1.35983E+04 -4.51086E+02 -1.44355E+04 -1.16561E+04 -5.57758E+03 -1.81494E+04  6.00891E+03 -1.47551E+04
  1.16639E+04 -6.14306E+03  8.46309E+03  4.01575E+03 -3.82999E+02  6.04421E+03 -7.22421E+03  4.92087E+02
 -7.20242E+03 -9.68427E+03 -1.72084E+03 -1.43476E+04  9.11450E+03 -1.51368E+04  1.79164E+04 -7.58693E+03
  2.19900E+04  1.65580E+03  1.64063E+04  1.31459E+04  3.19173E+03  1.75022E+04 -9.03882E+03  1.47636E+04
 -1.14741E+04  3.75078E+03 -5.94204E+03 -3.78087E+03  2.17935E+03 -4.13457E+03  7.76725E+03 -8.13007E+02
  6.78869E+03  6.34157E+03  1.94305E+03  1.15448E+04 -9.50529E+03  1.08064E+04 -1.49849E+04  3.25519E+03
 -9.64017E+03 -7.10477E+03  4.88836E+02 -1.23251E+04  7.94145E+03 -6.48077E+03  8.04546E+03  3.14525E+03
  1.36642E+03  8.93692E+03 -7.06276E+03  1.03426E+04 -1.28108E+04  5.59806E+03 -1.24969E+04 -4.57744E+03
 -8.09267E+03 -1.45656E+04  4.00473E+03 -1.64283E+04  1.39886E+04 -9.70040E+03  1.57292E+04  2.90742E+03
  9.38962E+03  1.23868E+04 -1.57436E+03  1.43325E+04 -1.05884E+04  7.93116E+03 -1.12042E+04 -1.68024E+03
 -1.02117E+04 -9.87674E+03 -1.68676E+03 -1.14899E+04  5.39366E+03 -8.67391E+03  5.67839E+03 -3.96923E+03
  4.82402E+03  1.56878E+03 -9.65744E+02  1.45668E+03 -1.10214E+03 -3.03391E+03  1.76863E+03 -6.17902E+03
  9.78200E+03 -4.06932E+03  1.38427E+04  2.04533E+03  1.49819E+04  1.02079E+04  9.67857E+03  1.86325E+04
 -4.05802E+03  2.11544E+04 -1.82234E+04  1.57187E+04 -2.33266E+04  2.92717E+03 -1.87989E+04 -7.53787E+03
 -9.28583E+03 -1.51666E+04 -8.57125E+02 -1.31106E+04  4.90639E+03 -7.71122E+03  4.65093E+03 -5.13403E+03
  3.32863E+03 -2.52708E+03  4.00365E+03 -3.39360E+03  5.21003E+03 -3.89148E+03  7.19762E+03 -5.05093E+02
  9.56494E+03  1.76708E+03  5.87156E+03  7.86351E+03 -2.33819E+03  1.01142E+04 -1.01618E+04  6.89990E+03
 -1.27694E+04 -1.50965E+03 -8.42681E+03 -1.00007E+04 -7.29046E+02 -1.37357E+04  8.19793E+03 -1.39522E+04
  1.42094E+04 -7.25913E+03  1.69780E+04  2.38889E+03  1.14701E+04  1.11723E+04  2.40423E+03  1.56766E+04
 -7.14140E+03  1.33275E+04 -9.07570E+03  4.72083E+03 -6.26720E+03 -2.76725E+02 -2.58835E+03 -1.11276E+03
 -1.40184E+03  1.27147E+02 -2.51102E+03  2.56891E+03 -5.93164E+03  2.41636E+03 -8.99558E+03 -1.13464E+03
 -5.98488E+03 -8.50359E+03  1.23959E+02 -1.26620E+04  7.11079E+03 -1.13314E+04  1.23348E+04 -3.22515E+03
  1.24265E+04  6.00140E+03  5.76350E+03  1.14300E+04 -2.70494E+03  1.26987E+04 -9.49857E+03  7.84536E+03
 -1.22999E+04  2.83042E+01 -9.40574E+03 -7.31438E+03 -7.92050E+02 -1.12347E+04  5.56154E+03 -7.47027E+03
  7.95304E+03 -2.90027E+03  5.99092E+03  2.20809E+03  2.32983E+03  4.14731E+03  9.32933E+02  2.24455E+03
  2.64462E+03  8.45171E+02  3.92062E+03  1.65715E+03  3.60727E+03  4.49218E+03  3.00901E+03  6.17285E+03
 -2.46163E+03  9.95527E+03 -9.06709E+03  1.03055E+04 -1.21094E+04  2.93201E+03 -1.30474E+04 -5.65337E+03
 -6.06190E+03 -1.21349E+04  1.65766E+03 -1.34427E+04  7.60368E+03 -9.36774E+03  1.02863E+04 -2.20566E+03
  7.94814E+03  4.67253E+03  1.75884E+03  7.03208E+03 -3.84511E+03  4.32026E+03 -4.83159E+03 -5.64133E+02
 -1.76676E+03 -5.46988E+03  3.00047E+03 -5.67600E+03  6.07418E+03 -3.18886E+03  4.82525E+03  1.11919E+03
  2.92650E+03  1.50312E+03  1.91147E+03  1.98344E+03 -7.75025E+02  1.32961E+03  1.19706E+03 -9.41402E+02
  1.47995E+03 -9.77103E+02  5.02966E+03  1.79386E+03  2.55635E+03  7.03130E+03 -7.15874E+02  8.82756E+03
 -5.87196E+03  5.40658E+03 -7.84188E+03  1.23993E+03 -6.82725E+03 -2.36145E+03 -3.17178E+03 -5.42452E+03
  1.03321E+03 -4.48706E+03  2.90723E+03 -1.92631E+03  2.94762E+03  2.70500E+03 -8.79271E+02  4.63426E+03
 -5.34219E+03  2.71669E+03 -6.27827E+03 -3.23288E+03 -3.13171E+03 -5.76307E+03  6.21329E+02 -6.74324E+03
  4.15930E+03 -4.03791E+03  4.98234E+03 -3.89606E+02  4.25405E+03  1.80936E+03  1.56675E+02  3.45788E+03
 -2.26349E+03  1.45056E+03 -2.62924E+03 -2.47208E+03  1.07242E+03 -4.51199E+03  6.36684E+03 -4.72488E+03
  7.23253E+03  2.19519E+02  8.24105E+03  4.91271E+03  2.18547E+03  7.38207E+03 -3.23017E+03  7.95770E+03
 -6.77592E+03  3.28317E+03 -6.79088E+03 -1.60041E+03 -3.80887E+03 -4.63244E+03  1.21691E+03 -4.80639E+03
  5.39010E+03 -2.04737E+03  4.06450E+03  1.87466E+03  9.83291E+02  4.53878E+03 -1.09395E+03  3.72159E+03
 -1.78601E+03  2.63183E+03 -1.94225E+03  6.46980E+02 -5.95878E+02  3.30451E+02 -1.28566E+03  2.12470E+03
 -2.44703E+03  3.29987E+03 -5.24775E+03  3.40681E+03 -7.67662E+03 -2.96396E+02 -9.05968E+03 -5.08403E+03
 -4.32681E+03 -9.82419E+03  2.20808E+03 -1.18638E+04  7.55642E+03 -9.12542E+03  1.18486E+04 -3.56328E+03
  1.06837E+04  1.80460E+03  6.20821E+03  7.24837E+03 -1.13245E+02  7.36034E+03 -3.37502E+03  6.05971E+03
 -5.08663E+03  1.75134E+03 -2.27443E+03 -6.63701E+02 -1.19453E+03 -5.94338E+02 -7.04872E+02  3.21870E+01
 -1.38205E+03  1.43993E+02 -1.84984E+03 -4.63706E+02 -1.03420E+03 -1.82027E+03  3.51275E+02 -2.81555E+03
  3.02549E+03 -2.47207E+03  4.67944E+03  5.55926E+02  6.33209E+03  4.15620E+03  1.66525E+03  7.12893E+03
 -3.21387E+03  9.31841E+03 -8.27329E+03  5.13899E+03 -9.35788E+03 -7.00391E+02 -6.75133E+03 -5.25522E+03
 -3.65399E+03 -7.64457E+03  2.52756E+03 -6.94053E+03  4.98885E+03 -3.66810E+03  5.41453E+03  1.04405E+02
  2.94637E+03  2.80117E+03 -6.24915E+02  2.12849E+03 -1.62467E+03  1.24742E+02  4.40246E+02 -2.00520E+03
  2.06754E+03 -1.16491E+03  2.43213E+03  9.61055E+02  1.74394E+03  2.93250E+03  5.52081E+02  3.92442E+03
 -2.82319E+03  3.58644E+03 -4.57197E+03  1.71042E+02 -4.38912E+03 -3.38544E+03 -5.60928E+02 -6.09048E+03
  3.56071E+03 -5.33942E+03  5.89627E+03 -1.68268E+03  5.62174E+03  1.02115E+03  2.82442E+03  4.34074E+03
  1.84578E+03  4.76932E+03 -1.57920E+03  3.78687E+03 -2.52254E+03  2.02189E+03 -2.65102E+03  9.13309E+02
 -2.01271E+03 -7.75036E+02 -1.38292E+03  2.04220E+02 -2.69405E+03  1.21539E+03 -3.71286E+03 -3.22847E+02
 -3.42800E+03 -2.75602E+03 -1.43776E+03 -5.00504E+03  2.93219E+03 -5.65782E+03  4.45632E+03 -2.11015E+03
  4.63430E+03 -5.43146E+01  2.37117E+03  3.06714E+03 -3.17708E+02  5.75449E+03 -3.57520E+03  2.83826E+03
