 $NMID ID='MM_0lb_SNR400_19hz_g60_79.RAW', FMTDAT='(8E13.5)'
 TRAMP=1., VOLUME=1. $END
  3.09872E+05  6.97289E+02  3.37496E+05  2.50140E+05  8.44502E+04  3.37630E+05 -1.32246E+05  2.50843E+05
 -1.89852E+05  8.27604E+04 -1.11385E+05 -3.29178E+04  7.67294E+02 -5.00237E+04  5.40742E+04  8.01970E+01
  3.53996E+04  5.28164E+04 -1.70398E+04  7.54722E+04 -6.08508E+04  6.33570E+04 -8.36300E+04  3.19519E+04
 -8.05487E+04 -1.09783E+04 -5.65282E+04 -5.08119E+04 -1.51180E+04 -6.94741E+04  2.66711E+04 -4.50618E+04
  3.92069E+04  3.76896E+03  1.56842E+04  4.77436E+04 -3.40476E+04  4.63050E+04 -6.59783E+04  3.49818E+02
 -5.30095E+04 -5.62866E+04 -6.77630E+03 -7.61636E+04  3.34536E+04 -5.45873E+04  4.67657E+04 -1.70009E+04
  4.28556E+04  1.13808E+04  3.17840E+04  2.51921E+04  1.55537E+04  2.92227E+04 -5.06080E+03  2.70268E+04
 -2.19645E+04  1.24431E+04 -1.87596E+04 -4.83941E+03  4.59853E+03 -8.41632E+03  2.21676E+04  1.17227E+04
  7.36092E+03  3.42070E+04 -3.14383E+04  3.48154E+04 -6.23874E+04  1.57881E+03 -5.59269E+04 -4.17199E+04
 -1.25739E+04 -6.19839E+04  3.82582E+04 -4.41839E+04  5.72937E+04 -1.92354E+03  3.32903E+04  3.16759E+04
 -6.72092E+03  3.45813E+04 -2.89909E+04  1.45333E+04 -2.91945E+04 -5.16209E+03 -1.55534E+04 -1.05718E+04
 -7.80624E+03 -1.21585E+04 -1.52960E+03 -1.75775E+04  6.72508E+03 -2.26466E+04  1.52832E+04 -1.39177E+04
  1.15436E+04  5.21047E+03 -7.23684E+03  1.25256E+04 -2.01286E+04 -3.48631E+03 -8.04267E+03 -3.23085E+04
  2.18497E+04 -4.20320E+04  4.61415E+04 -1.93763E+04  4.27650E+04  1.89842E+04  1.47448E+04  4.29103E+04
 -1.57838E+04  3.17144E+04 -2.42816E+04  1.46179E+03 -8.77534E+03 -2.69564E+04  2.05628E+04 -3.24813E+04
  3.96084E+04 -8.23730E+03  3.29813E+04  2.31000E+04  1.66883E+04  4.41945E+04 -7.81362E+03  4.69561E+04
 -2.96094E+04  3.13359E+04 -3.91704E+04  8.67467E+03 -4.04106E+04 -1.59699E+04 -2.20054E+04 -3.59850E+04
  6.93993E+03 -3.65140E+04  2.95204E+04 -1.32987E+04  2.80698E+04  1.06718E+04  3.40014E+03  1.85657E+04
 -1.32856E+04  8.22643E+03 -1.00777E+04 -7.70932E+03  6.11238E+03 -1.01097E+04  1.70527E+04  6.72516E+03
  1.24165E+04  2.17661E+04 -6.47060E+03  2.36640E+04 -2.18872E+04  1.02172E+04 -2.57366E+04 -6.07770E+03
 -1.81443E+04 -1.67064E+04 -6.91926E+03 -1.75430E+04  4.08370E+03 -1.61876E+04  1.39419E+04 -1.56534E+04
  2.27376E+04 -1.19022E+04  2.98001E+04  1.62303E+03  2.22576E+04  1.80712E+04  3.98465E+03  3.36613E+04
 -1.69396E+04  2.86420E+04 -2.65824E+04  9.42524E+03 -1.99575E+04 -1.04064E+04 -3.54695E+03 -1.37815E+04
  2.48721E+03 -4.13516E+03 -3.15322E+03  5.65004E+03 -1.43173E+04  5.38185E+03 -1.40911E+04 -5.71746E+03
 -9.14550E+03 -1.65443E+04  4.54323E+03 -2.07645E+04  1.37507E+04 -1.51484E+04  1.55038E+04 -1.52814E+03
  9.64687E+03  1.16379E+04 -7.69712E+01  1.63458E+04 -1.09394E+04  9.09216E+03 -1.64058E+04 -3.30536E+03
 -1.22844E+04 -1.49623E+04 -1.90920E+03 -2.04478E+04  9.37058E+03 -1.67498E+04  1.71091E+04 -7.45302E+03
  1.56875E+04  1.64513E+02  1.12371E+04  4.11533E+03  5.42912E+03  2.80637E+02  7.82650E+03 -1.42029E+03
  1.47768E+04  2.69739E+03  1.63367E+04  1.32726E+04  9.83098E+03  2.57635E+04 -2.72684E+03  2.81050E+04
 -1.71260E+04  2.22580E+04 -2.57439E+04  1.12740E+04 -2.66324E+04 -2.39265E+03 -2.27482E+04 -1.55367E+04
 -1.02115E+04 -2.16588E+04  7.40718E+03 -2.00321E+04  1.78159E+04 -1.10812E+04  1.59819E+04  4.16752E+03
  6.60271E+03  1.20941E+04 -7.65587E+03  1.09113E+04 -1.41961E+04  2.69344E+03 -1.05532E+04 -8.28186E+03
  1.21931E+02 -1.27794E+04  6.25494E+03 -9.81114E+03  8.09178E+03 -1.74404E+03  1.88277E+03  5.46066E+03
 -5.81656E+03  1.40905E+03 -4.76351E+03 -4.84570E+03  1.72345E+02 -1.09185E+04  8.08306E+03 -1.08898E+04
  1.27629E+04 -5.60047E+03  1.30586E+04  2.95522E+03  1.17842E+04  1.03606E+04  6.02153E+03  1.53097E+04
 -2.40963E+03  1.66369E+04 -1.02900E+04  1.04259E+04 -1.14888E+04  3.05289E+03 -9.30045E+03 -2.23098E+03
 -4.12832E+03 -3.76470E+03 -1.04336E+03  1.10629E+03 -2.19853E+03  1.50465E+03 -4.08874E+03  3.58371E+03
 -8.20677E+03 -8.04931E+02 -9.14740E+03 -8.04469E+03 -3.49169E+03 -1.25714E+04  3.43666E+03 -8.41363E+03
  7.61751E+03 -4.11409E+03  5.00845E+03  2.58668E+03  3.36981E+02  3.34769E+03 -3.89182E+03 -3.80743E+02
 -4.07158E+03 -5.89659E+03 -1.10615E+03 -7.31505E+03  4.39609E+03 -8.19269E+03  1.05486E+04 -4.46507E+03
  1.22165E+04  1.09806E+03  9.06713E+03  6.59470E+03  1.80437E+03  9.20676E+03 -5.17333E+03  8.67570E+03
 -7.33138E+03  3.04548E+03 -3.50021E+03 -9.77470E+02  2.09668E+03 -2.23251E+03  4.92687E+03 -7.50696E+02
  4.50912E+03  3.61516E+03  1.53608E+03  6.18787E+03 -4.74327E+03  6.57539E+03 -7.81199E+03  1.67664E+03
 -4.61332E+03 -3.71646E+03  3.26450E+02 -7.16475E+03  4.08162E+03 -4.18364E+03  3.70429E+03  1.28230E+03
  8.32435E+02  3.57376E+03 -3.93451E+03  4.74049E+03 -4.95910E+03  2.70087E+03 -5.33098E+03 -1.12285E+03
 -2.80468E+03 -6.38301E+03  1.81531E+03 -6.91758E+03  6.11504E+03 -4.88418E+03  6.43051E+03  6.33411E+02
  4.70898E+03  5.26159E+03  2.01533E+01  7.21698E+03 -4.81182E+03  4.54937E+03 -5.40087E+03 -2.11278E+02
 -6.24346E+03 -5.16568E+03 -1.41915E+03 -5.29954E+03  2.51867E+03 -4.66001E+03  3.04803E+03 -2.65297E+03
  2.70755E+03 -6.07980E+01  3.05702E+02  1.41306E+03  3.35490E+02 -2.26495E+02  4.36383E+02 -1.81731E+03
  3.86250E+03 -9.30706E+02  4.93600E+03  1.21102E+03  5.78964E+03  3.59732E+03  5.59253E+03  7.11094E+03
 -1.23414E+03  8.37677E+03 -7.42805E+03  6.50358E+03 -1.05999E+04  1.37466E+03 -7.72339E+03 -2.29081E+03
 -4.06487E+03 -7.37588E+03 -1.07788E+02 -5.07333E+03  1.67439E+03 -2.20056E+03  1.85085E+03 -2.36163E+03
  1.34279E+03 -1.40452E+03  1.78199E+03 -2.47778E+03  3.71642E+03 -1.79884E+03  4.30833E+03  1.33963E+02
  4.41081E+03  1.48587E+03  1.31018E+03  3.22819E+03 -1.80447E+03  2.76744E+03 -5.11193E+03  2.36678E+03
 -5.05563E+03 -1.02480E+03 -2.17486E+03 -3.16994E+03  7.43689E+02 -5.20818E+03  3.33302E+03 -5.13373E+03
  5.58875E+03 -3.23783E+03  6.75971E+03  2.71908E+02  5.05863E+03  4.38046E+03  1.67226E+03  6.25264E+03
 -2.00829E+03  6.07398E+03 -2.96078E+03  1.70249E+03 -2.16355E+03 -1.30950E+03  2.97879E+02 -3.15592E+02
 -6.53210E+02  2.10794E+02 -6.21676E+02  1.97086E+03 -2.60428E+03  9.53843E+02 -3.47495E+03 -5.91991E+02
 -1.40183E+03 -4.91063E+03  8.27792E+02 -4.61705E+03  2.49530E+03 -4.38337E+03  3.43052E+03 -1.35243E+03
  3.54064E+03  2.56240E+03  1.49928E+03  2.59543E+03 -4.49898E+02  4.52403E+03 -2.74361E+03  2.58756E+03
 -3.67968E+03  8.85092E+02 -3.28849E+03 -2.44639E+03 -3.94150E+02 -2.44085E+03  1.57785E+03 -2.62752E+03
  2.45089E+03 -1.24827E+03  1.57803E+03  8.23926E+02  6.57480E+02  1.72524E+03  7.95411E+02  7.56728E+02
  1.75173E+03  3.07450E+02  9.38184E+02  1.24694E+03  1.01128E+03  1.86453E+03  1.42558E+03  1.84212E+03
 -9.17495E+02  3.17134E+03 -2.63552E+03  3.99438E+03 -2.79403E+03  1.39806E+03 -4.06965E+03 -1.15968E+01
 -1.91675E+03 -3.12980E+03  1.70139E+02 -4.18968E+03  1.66944E+03 -2.08426E+03  2.83524E+03 -7.23740E+02
  2.48571E+03  1.51930E+03 -2.94153E+02  1.88851E+03 -7.14413E+00  1.27459E+03 -6.74600E+02  5.76156E+01
 -9.63234E+02 -1.78535E+03  1.16941E+03 -1.36852E+03  1.31681E+03 -1.00122E+03  1.55899E+03  1.91515E+02
 -1.37057E+02  1.73986E+02  7.94499E+02 -3.64920E+02 -4.85155E+01  6.44391E+02  1.36184E+03 -4.90166E+02
  6.80796E+01 -4.61238E+02  2.18021E+03  3.75783E+01  1.57302E+02  1.97613E+03 -2.16264E+02  2.98529E+03
 -1.63292E+03  2.15927E+02 -1.55142E+03  2.15539E+02 -2.10188E+03 -4.09235E+02 -6.81876E+01 -3.69317E+02
  5.26382E+02 -8.55183E+02  2.14231E+02 -7.54411E+02  3.12008E+02  9.33680E+02  3.13243E+02  9.94432E+02
 -1.35323E+03  8.66283E+02 -6.62561E+02 -1.21538E+03 -8.34486E+02 -1.19142E+03  2.67783E+02 -8.28386E+02
  5.15189E+02 -6.30856E+02  2.50056E+02 -7.52015E+01  6.14654E+02 -2.31466E+02  3.06884E+02  1.12156E+03
  5.50424E+01 -2.69052E+02 -1.35676E+03 -3.82955E+02  4.56143E+02 -3.89484E+02  1.50603E+03 -4.09272E+02
  1.19339E+03  4.80092E+02  2.64581E+03  2.81234E+02  1.24390E+03  1.66939E+03 -6.53626E+02  1.52290E+03
 -9.22041E+02  2.95257E+02 -1.68010E+03  6.54710E+01 -5.41844E+02 -1.22189E+03  1.23262E+02 -2.64331E+02
  1.46149E+03 -4.84108E+02  3.77457E+02  6.55524E+02  3.86459E+02  9.22660E+02 -1.48375E+02  9.90227E+02
 -2.12824E+02  1.36247E+03  3.98952E+02  1.85957E+02 -3.94212E+02  5.47577E+02 -5.89224E+02  8.03331E+02
  7.81863E+01  3.44748E+02 -1.36746E+03  8.33888E+02 -1.42709E+03  1.19810E+02 -2.45085E+03 -1.04327E+03
  1.61080E+02 -2.25149E+03  5.63409E+02 -2.39183E+03  9.55863E+02 -1.82370E+03  2.18989E+03 -1.00844E+03
  1.92467E+03 -1.04190E+02  5.60837E+02  1.38011E+03 -8.35853E+02  9.57287E+02 -8.79853E+01  1.33862E+03
 -7.73174E+02  5.73714E+01 -3.47125E+02 -2.63889E+02 -5.36313E+02  4.18275E+02 -1.93093E+01  6.15254E+02
 -8.36756E+02  2.36982E+02 -9.99889E+02 -1.40650E+02  2.88662E+02 -4.10385E+02 -5.76145E+02 -1.31823E+03
  1.18797E+03 -5.69539E+02  4.51035E+02 -9.32969E+01  5.82912E+02  9.20895E+02 -3.02326E+02  1.13424E+03
 -5.61260E+02  2.11446E+03 -1.26912E+03  1.13628E+03 -1.13622E+03 -3.97672E+02 -7.01269E+02 -1.11107E+03
 -5.99745E+02 -8.16155E+02  3.69332E+02 -1.17459E+03  3.91587E+01 -1.76913E+02  1.42493E+02  1.59516E+01
  4.51453E+02 -1.52005E+02 -7.02445E+01  2.16851E+02 -3.77101E+02  7.86880E+01 -4.60991E+02 -4.22196E+02
  4.27361E+02  7.45998E+02  3.59151E+02 -5.00129E+02  7.61657E+01 -1.23735E+02  4.98317E+02 -2.80803E+02
 -6.78254E+02  4.90429E+02  3.47697E+02  2.12683E+02 -6.59134E+02 -6.10745E+02  4.53459E+02 -1.11791E+03
  8.57171E+02 -4.50839E+02  6.36959E+02  2.26950E+02  7.37019E+02 -5.03763E+02  7.75764E+02  4.68203E+02
  5.39108E+02  5.32260E+02 -4.39482E+02  7.28891E+02 -4.14841E+02  5.89459E+02 -8.80559E+02  1.37475E+02
 -3.34172E+02 -4.38554E+02 -7.55755E+02  3.78022E+01  2.68671E+01  2.17997E+02 -4.91792E+02 -4.01118E+02
 -7.34416E+02  2.23009E+02  5.65270E+00 -1.14778E+03  2.22882E+02 -1.45161E+03  9.25893E+02  2.59158E+02
  6.57358E+02  4.55206E+00 -6.21674E+02  1.93617E+02  1.85810E+02 -1.05811E+02 -9.82917E+01  1.07462E+02
