 $NMID ID='MM_0lb_SNR400_20hz_g40_44.RAW', FMTDAT='(8E13.5)'
 TRAMP=1., VOLUME=1. $END
  3.09761E+05  6.21824E+02  3.37423E+05  2.49968E+05  8.42443E+04  3.37193E+05 -1.32543E+05  2.49466E+05
 -1.89428E+05  8.20895E+04 -1.10569E+05 -3.32848E+04  1.53273E+03 -5.01771E+04  5.40233E+04  8.69511E+02
  3.48960E+04  5.34071E+04 -1.73691E+04  7.45834E+04 -6.01636E+04  6.24033E+04 -8.26296E+04  3.15966E+04
 -7.85721E+04 -1.09536E+04 -5.57835E+04 -4.94658E+04 -1.51801E+04 -6.76930E+04  2.61861E+04 -4.45211E+04
  3.87990E+04  4.41643E+03  1.51564E+04  4.62716E+04 -3.37240E+04  4.59674E+04 -6.39510E+04 -6.07067E+02
 -5.11967E+04 -5.56184E+04 -5.72989E+03 -7.39554E+04  3.26937E+04 -5.26709E+04  4.51971E+04 -1.53563E+04
  4.06512E+04  1.07205E+04  3.03303E+04  2.41498E+04  1.61203E+04  2.76095E+04 -4.40041E+03  2.65256E+04
 -2.16280E+04  1.28212E+04 -2.00253E+04 -4.26422E+03  3.23921E+03 -7.62884E+03  2.10739E+04  9.64380E+03
  7.69167E+03  3.20935E+04 -2.97707E+04  3.35646E+04 -5.96012E+04  2.53599E+03 -5.48312E+04 -4.03072E+04
 -1.22261E+04 -5.96091E+04  3.73200E+04 -4.26878E+04  5.40947E+04 -1.60223E+03  3.04252E+04  2.96267E+04
 -6.60028E+03  3.15323E+04 -2.76237E+04  1.20636E+04 -2.62250E+04 -5.84334E+03 -1.31253E+04 -9.71554E+03
 -7.14818E+03 -1.00393E+04 -1.17579E+03 -1.55168E+04  6.15206E+03 -2.25930E+04  1.52891E+04 -1.42736E+04
  1.25812E+04  3.70108E+03 -5.40523E+03  1.31448E+04 -1.82122E+04 -8.51710E+02 -7.58947E+03 -2.85476E+04
  2.00156E+04 -3.85344E+04  4.32595E+04 -1.81887E+04  4.03679E+04  1.78444E+04  1.39185E+04  4.10545E+04
 -1.48243E+04  3.01018E+04 -2.25042E+04  9.32577E+02 -7.75815E+03 -2.54016E+04  2.04544E+04 -2.97094E+04
  3.60197E+04 -6.93773E+03  3.02688E+04  2.22697E+04  1.34628E+04  4.07567E+04 -7.92108E+03  4.26036E+04
 -2.70816E+04  2.79761E+04 -3.51342E+04  7.93195E+03 -3.66066E+04 -1.42752E+04 -2.03509E+04 -3.28844E+04
  6.90479E+03 -3.25663E+04  2.84421E+04 -1.16966E+04  2.58574E+04  1.07660E+04  2.37213E+03  1.70818E+04
 -1.30874E+04  6.82484E+03 -9.13285E+03 -7.88683E+03  5.55081E+03 -9.72486E+03  1.67922E+04  6.55067E+03
  1.19820E+04  2.11286E+04 -6.75246E+03  2.25428E+04 -2.16679E+04  8.44967E+03 -2.35707E+04 -7.31670E+03
 -1.49674E+04 -1.61353E+04 -4.18325E+03 -1.51536E+04  3.37478E+03 -1.22807E+04  1.06645E+04 -1.29028E+04
  1.94309E+04 -1.14481E+04  2.64750E+04  1.73027E+02  2.04470E+04  1.44896E+04  3.69836E+03  3.08575E+04
 -1.51143E+04  2.65873E+04 -2.47180E+04  8.48532E+03 -1.89019E+04 -1.03216E+04 -4.13707E+03 -1.42572E+04
  2.89722E+03 -5.41027E+03 -1.85915E+03  5.17550E+03 -1.19833E+04  5.81520E+03 -1.20913E+04 -4.34304E+03
 -8.17564E+03 -1.37003E+04  4.57948E+03 -1.78001E+04  1.15366E+04 -1.32743E+04  1.30265E+04 -1.31239E+03
  8.38570E+03  9.83370E+03 -1.14648E+03  1.43098E+04 -9.38522E+03  7.90747E+03 -1.41497E+04 -3.35031E+03
 -1.03462E+04 -1.27705E+04 -9.77303E+02 -1.73367E+04  8.33676E+03 -1.42335E+04  1.46626E+04 -6.92898E+03
  1.29145E+04  1.23049E+03  9.48587E+03  3.42347E+03  4.71063E+03  2.48978E+02  6.52502E+03 -1.32410E+03
  1.25627E+04  2.62280E+03  1.31921E+04  1.14368E+04  7.55790E+03  2.26357E+04 -3.11467E+03  2.33272E+04
 -1.42938E+04  1.78428E+04 -2.16181E+04  7.86408E+03 -2.14139E+04 -1.72959E+03 -1.84089E+04 -1.24964E+04
 -9.18431E+03 -1.73483E+04  5.18116E+03 -1.71965E+04  1.46650E+04 -9.64195E+03  1.47254E+04  2.88908E+03
  5.95429E+03  9.66938E+03 -6.38749E+03  9.51092E+03 -1.22257E+04  2.70729E+03 -9.22734E+03 -7.54619E+03
 -2.77573E+02 -1.09993E+04  5.23827E+03 -8.82170E+03  6.91203E+03 -1.34971E+03  1.31641E+03  3.98514E+03
 -5.05441E+03  4.67688E+02 -3.00846E+03 -4.16868E+03  8.87796E+02 -8.75682E+03  7.53298E+03 -8.78462E+03
  1.08113E+04 -3.36170E+03  9.67799E+03  3.08615E+03  7.84477E+03  8.47241E+03  3.63132E+03  1.14800E+04
 -6.75354E+02  1.30903E+04 -7.77471E+03  8.66565E+03 -9.32984E+03  2.51101E+03 -7.81542E+03 -1.14041E+03
 -3.94616E+03 -2.46849E+03 -6.76160E+02  1.38319E+03 -1.82850E+03  1.90360E+03 -2.95170E+03  3.43267E+03
 -6.80008E+03 -6.91844E+02 -7.56754E+03 -6.10936E+03 -3.35196E+03 -1.04872E+04  2.94330E+03 -7.22047E+03
  6.47010E+03 -3.44598E+03  5.09795E+03  2.03625E+03  3.59989E+02  2.92433E+03 -2.79473E+03  2.34816E+02
 -2.69278E+03 -4.51150E+03 -4.48686E+02 -6.39288E+03  3.35914E+03 -6.30333E+03  8.68363E+03 -3.53475E+03
  1.03507E+04  3.62170E+02  7.57799E+03  5.44220E+03  2.19053E+03  6.97800E+03 -4.68490E+03  7.54138E+03
 -6.42236E+03  2.63250E+03 -3.13854E+03 -6.56703E+02  1.12024E+03 -1.56907E+03  4.44303E+03 -1.02348E+03
  3.74306E+03  2.91126E+03  1.39529E+03  5.13132E+03 -3.88170E+03  5.96245E+03 -6.20953E+03  1.74751E+03
 -3.94391E+03 -2.59088E+03 -6.95717E+01 -5.88354E+03  3.20035E+03 -3.01663E+03  3.36987E+03 -9.12303E+01
 -7.40917E+00  2.52810E+03 -3.93108E+03  3.40430E+03 -3.64347E+03  2.31965E+03 -3.24224E+03 -4.78526E+02
 -2.53084E+03 -5.04168E+03  1.08490E+03 -5.70266E+03  4.57183E+03 -3.63458E+03  5.56354E+03  1.93520E+02
  4.17560E+03  4.20584E+03  1.48761E+02  6.73854E+03 -3.99197E+03  3.96978E+03 -4.98832E+03 -6.93574E+01
 -5.14550E+03 -4.58148E+03 -1.15361E+03 -4.80976E+03  2.19931E+03 -4.33594E+03  2.47470E+03 -2.61820E+03
  2.73315E+03 -5.64123E+01  6.67274E+01  7.87675E+02  7.23755E+02 -3.23721E+01 -7.13585E+02 -1.39593E+03
  3.30479E+03 -4.65312E+02  3.77250E+03  7.03654E+02  4.17726E+03  2.03360E+03  4.45033E+03  5.57309E+03
 -9.02189E+02  7.38453E+03 -6.57366E+03  5.41806E+03 -8.25679E+03  1.09804E+03 -6.32639E+03 -1.74293E+03
 -3.29869E+03 -5.44607E+03 -5.94810E+01 -4.38868E+03  1.75323E+03 -2.62771E+03  1.03125E+03 -1.73740E+03
  9.70112E+02 -1.13077E+03  2.02476E+03 -2.03664E+03  3.17791E+03 -1.15642E+03  2.77599E+03  1.37592E+03
  3.76473E+03  1.28024E+03  7.59850E+02  3.10249E+03 -1.50916E+03  2.06351E+03 -4.12892E+03  1.61082E+03
 -3.63817E+03 -7.48468E+02 -7.12171E+02 -2.58908E+03 -3.25811E+01 -3.84167E+03  2.80425E+03 -3.99365E+03
  4.43246E+03 -2.71262E+03  5.37359E+03  5.75340E+01  3.81239E+03  3.13304E+03  9.81790E+02  4.77673E+03
 -1.57869E+03  4.78159E+03 -2.78862E+03  1.46748E+03 -1.93199E+03 -1.00157E+03 -4.15890E+02 -7.17018E+02
 -1.01336E+03  7.61439E+02 -3.95059E+02  2.19896E+03 -2.07328E+03  1.39280E+03 -3.72414E+03 -1.35721E+02
 -5.36140E+02 -3.14864E+03  9.06508E+02 -4.04614E+03  2.03729E+03 -3.58858E+03  2.30728E+03 -4.06371E+02
  3.06822E+03  2.42266E+03  1.46201E+03  2.52539E+03 -2.77231E+02  2.95047E+03 -1.95338E+03  2.18781E+03
 -2.92051E+03  3.16240E+02 -2.59411E+03 -1.51208E+03 -3.34618E+02 -2.49056E+03  1.41010E+03 -1.79794E+03
  1.60745E+03 -1.45379E+03  1.27052E+03  1.50275E+02  3.41229E+02  1.31515E+03  4.66652E+02  1.92643E+02
  1.61739E+03  5.98203E+02  8.23397E+02  7.97496E+02  5.92631E+02  2.00147E+03  1.08953E+03  9.06144E+02
 -1.14493E+03  1.82503E+03 -2.18163E+03  3.97396E+03 -2.09894E+03  9.95218E+02 -2.72873E+03  4.15004E+01
 -1.45992E+03 -2.95760E+03  1.72452E+02 -3.54195E+03  1.86280E+03 -2.09336E+03  2.58076E+03 -5.50207E+02
  1.76940E+03  1.72288E+03  4.69742E+02  1.38267E+03 -3.91021E+02  3.43476E+02 -1.10203E+03  4.04583E+01
 -1.68273E+01 -1.36964E+03  8.53494E+02 -1.69915E+03  7.59495E+02 -7.31385E+02  4.46855E+02  3.66506E+02
  8.31880E+02  3.45985E+02  6.55304E+02  3.19689E+01 -2.99610E+02  3.87073E+02  1.48364E+03  1.32287E+02
 -5.09615E+02 -4.00464E+02  1.28322E+03  7.88467E+02 -5.25638E+02  1.80914E+03 -2.99720E+02  1.85831E+03
 -1.36857E+03  3.69926E+02 -2.01840E+03 -2.46362E+02 -1.28331E+03 -6.80817E+02 -2.75619E+02 -7.40397E+02
 -2.05612E+02 -9.14207E+02  8.75335E+02 -2.14342E+02  5.84696E+02  1.05923E+03 -5.33484E+02  8.28623E+02
 -1.35883E+03  3.56863E+02 -1.20034E+03 -1.09825E+03  8.68306E+01 -1.96341E+03 -3.71174E+02 -8.73169E+02
  2.22278E+02 -3.71366E+02  6.50618E+02  4.81008E+02  1.05056E+03 -1.49398E+01  2.97975E+02  4.97714E+02
 -1.49168E+02 -2.93519E+01 -9.63872E+02 -2.17303E+02  5.34926E+02 -3.98760E+02  9.27206E+02 -2.85696E+02
  1.12263E+03  6.81733E+02  2.50749E+03  9.71601E+02  7.26038E+02  7.08282E+02  5.32016E+02  1.29511E+03
 -8.62819E+02 -2.70565E+02 -9.40831E+02  1.58314E+01 -7.49385E+02 -1.14407E+03  1.03897E+02 -4.31357E+02
  1.24633E+03 -1.17006E+03  5.78795E+02  4.08341E+02 -2.06419E+02  8.65278E+02  1.28792E+03  9.32132E+02
 -7.33043E+02  1.10573E+03 -6.12977E+02  4.09331E+02 -4.33342E+02  9.57060E+01 -5.86865E+02  9.79518E+02
 -5.89708E+02  8.86162E+02 -1.38588E+03  1.95479E+02 -1.49848E+03  7.35522E+02 -1.85122E+03 -8.37248E+02
 -8.03568E+02 -1.83407E+03  6.20535E+02 -2.45897E+03  2.28242E+02 -1.45818E+03  2.05971E+03 -4.96933E+02
  1.79298E+03 -5.41343E+02  1.19162E+03  1.18274E+03 -4.69855E+02  9.26589E+02 -5.47688E+02  4.30033E+02
 -8.20456E+02  6.28924E+02 -4.06707E+02 -2.09900E+02 -4.51457E+02  3.92466E+02 -9.94243E+02 -3.54921E+01
 -1.31713E+03 -3.24173E+02 -5.99654E+02  3.55917E+02  2.67941E+02 -2.63141E+01 -4.06555E+02 -4.79370E+02
  1.08835E+03 -9.09834E+01  2.80420E+02  6.35636E+01  7.94123E+02  7.17305E+01 -5.08748E+02  9.93438E+02
 -8.17722E+02  1.68978E+03 -1.08358E+03  5.65336E+02 -1.00799E+03 -8.91380E+01 -7.77625E+02 -6.92304E+02
 -3.40523E+02 -9.11342E+02 -3.11597E+02 -1.38088E+03  9.65871E+01 -4.71581E+02  1.56639E+02  3.70362E+01
 -3.58623E+02  2.37002E+02  1.05944E+02  3.07326E+02 -7.86401E+02  1.90584E+02  8.29868E+01 -3.98778E+02
  4.26136E+02 -3.33047E+02 -2.99215E+02  6.06042E+02 -3.90966E+02  4.65269E+01  4.21408E+02  1.36461E+01
 -6.83543E+02  1.79708E+02 -5.13821E+02 -4.16448E+02 -6.41679E+02  2.36091E+02  1.47220E+02 -7.90805E+02
 -5.78834E+01 -6.00171E+02  4.95789E+02  5.04902E+02  5.85010E+02 -9.73701E+02  6.53343E+02  8.82461E+02
  4.24016E+02  5.04234E+02  1.28730E+02  6.14531E+02 -5.56296E+02  5.08802E+01 -2.43641E+02  3.82445E+02
 -1.74605E+02 -6.82361E+02 -6.67998E+02 -1.90026E+02 -1.21729E+02  6.87303E+01 -8.19654E+02 -6.41607E+02
 -9.58963E+02  6.59691E+02 -2.32702E+02 -4.40365E+02  4.20031E+02 -1.37016E+03  4.61627E+02  3.10789E+02
  5.05674E+02  1.91492E+02 -4.57296E+02  5.16747E+02 -4.18645E+02  7.19102E+02  2.64768E+00  4.42567E+02
