 $NMID ID='MM_0lb_SNR400_20hz_g60_5.RAW', FMTDAT='(8E13.5)'
 TRAMP=1., VOLUME=1. $END
  3.09642E+05 -2.66871E+02  3.37047E+05  2.51154E+05  8.45448E+04  3.37820E+05 -1.31970E+05  2.50974E+05
 -1.90121E+05  8.24074E+04 -1.11997E+05 -3.26738E+04  1.51507E+03 -5.06653E+04  5.35582E+04  3.62757E+02
  3.48068E+04  5.24573E+04 -1.65491E+04  7.42102E+04 -6.04376E+04  6.31760E+04 -8.33524E+04  3.18044E+04
 -7.97691E+04 -1.06720E+04 -5.69366E+04 -5.10028E+04 -1.48568E+04 -6.87008E+04  2.69113E+04 -4.53563E+04
  3.99143E+04  3.84352E+03  1.60931E+04  4.78334E+04 -3.40682E+04  4.65373E+04 -6.58043E+04 -7.51853E+02
 -5.18525E+04 -5.64888E+04 -6.18148E+03 -7.60178E+04  3.34652E+04 -5.35217E+04  4.71396E+04 -1.65440E+04
  4.21770E+04  1.09790E+04  3.08545E+04  2.50161E+04  1.58833E+04  2.89265E+04 -4.94996E+03  2.66974E+04
 -2.18239E+04  1.28192E+04 -1.87962E+04 -4.50650E+03  4.59695E+03 -7.39576E+03  2.15920E+04  1.13442E+04
  7.02639E+03  3.48147E+04 -3.08770E+04  3.46558E+04 -6.14592E+04  2.19520E+03 -5.62149E+04 -4.15600E+04
 -1.22509E+04 -6.17968E+04  3.84341E+04 -4.38064E+04  5.63486E+04 -2.17993E+03  3.20048E+04  3.15697E+04
 -6.28220E+03  3.42174E+04 -2.83532E+04  1.42324E+04 -2.84217E+04 -4.53425E+03 -1.49056E+04 -1.03987E+04
 -7.72328E+03 -1.22486E+04 -1.04986E+03 -1.71425E+04  6.82325E+03 -2.28086E+04  1.47245E+04 -1.39793E+04
  1.19075E+04  4.71882E+03 -7.14860E+03  1.34357E+04 -2.01521E+04 -2.90634E+03 -7.82459E+03 -3.13737E+04
  2.10460E+04 -4.15152E+04  4.60432E+04 -1.83062E+04  4.30514E+04  1.79903E+04  1.45454E+04  4.21182E+04
 -1.52590E+04  3.17830E+04 -2.34704E+04  1.36577E+03 -8.22698E+03 -2.69989E+04  2.08352E+04 -3.21312E+04
  3.87028E+04 -7.85776E+03  3.32374E+04  2.32206E+04  1.64334E+04  4.32169E+04 -8.25527E+03  4.61789E+04
 -2.89581E+04  3.05272E+04 -3.78272E+04  8.39071E+03 -3.98359E+04 -1.51575E+04 -2.10754E+04 -3.53976E+04
  6.85833E+03 -3.48700E+04  2.99579E+04 -1.33637E+04  2.73988E+04  1.14042E+04  3.21959E+03  1.79698E+04
 -1.34367E+04  7.58505E+03 -9.52384E+03 -7.63218E+03  6.54783E+03 -9.68952E+03  1.79374E+04  6.40402E+03
  1.26502E+04  2.18745E+04 -6.16547E+03  2.32527E+04 -2.13819E+04  9.60691E+03 -2.57733E+04 -6.21639E+03
 -1.73379E+04 -1.60259E+04 -6.39507E+03 -1.73027E+04  3.37131E+03 -1.53341E+04  1.31937E+04 -1.50158E+04
  2.18638E+04 -1.18829E+04  2.90797E+04  1.07705E+03  2.16519E+04  1.73641E+04  3.56746E+03  3.28471E+04
 -1.68526E+04  2.81537E+04 -2.60908E+04  9.45938E+03 -1.96883E+04 -9.93087E+03 -4.41410E+03 -1.39649E+04
  2.53657E+03 -4.27187E+03 -2.29010E+03  5.34554E+03 -1.35036E+04  4.90545E+03 -1.35326E+04 -4.97344E+03
 -8.55499E+03 -1.58810E+04  4.66151E+03 -2.01218E+04  1.27456E+04 -1.43124E+04  1.47046E+04 -1.67602E+03
  8.99244E+03  1.18060E+04 -5.26560E+02  1.62852E+04 -1.06373E+04  8.85615E+03 -1.58121E+04 -3.26529E+03
 -1.17313E+04 -1.36789E+04 -1.28284E+03 -1.93573E+04  8.95707E+03 -1.59565E+04  1.58164E+04 -7.82462E+03
  1.49528E+04  7.07964E+02  1.10737E+04  3.82321E+03  5.13653E+03  6.20988E+02  7.44604E+03 -1.33345E+03
  1.39165E+04  2.25369E+03  1.49808E+04  1.24829E+04  9.54149E+03  2.55853E+04 -2.88218E+03  2.71176E+04
 -1.59103E+04  2.03848E+04 -2.42225E+04  1.03866E+04 -2.51747E+04 -1.54699E+03 -2.13387E+04 -1.42176E+04
 -1.00953E+04 -2.05368E+04  6.66917E+03 -1.91925E+04  1.63525E+04 -1.04508E+04  1.59781E+04  3.79847E+03
  6.38865E+03  1.10804E+04 -7.61215E+03  1.03649E+04 -1.34800E+04  2.27398E+03 -1.04920E+04 -8.15406E+03
 -6.16224E+01 -1.22683E+04  5.67548E+03 -9.57006E+03  7.39933E+03 -1.16485E+03  1.12037E+03  5.58537E+03
 -5.17738E+03  1.65210E+03 -3.37374E+03 -4.39807E+03  4.21353E+02 -1.02134E+04  7.71946E+03 -9.78915E+03
  1.22171E+04 -4.94103E+03  1.19181E+04  2.47888E+03  1.02310E+04  9.26534E+03  4.74028E+03  1.37261E+04
 -2.14524E+03  1.59060E+04 -8.92883E+03  1.00104E+04 -1.09080E+04  2.83256E+03 -8.33051E+03 -1.67898E+03
 -4.70770E+03 -3.08263E+03 -6.70390E+02  1.90545E+03 -1.79995E+03  2.26356E+03 -3.54620E+03  3.69982E+03
 -8.19094E+03  4.46299E+01 -8.72682E+03 -7.18566E+03 -4.06758E+03 -1.12098E+04  3.67387E+03 -8.35708E+03
  7.09728E+03 -3.43131E+03  5.71297E+03  1.99668E+03  5.83886E+02  2.82307E+03 -3.69331E+03 -1.17263E+02
 -3.06935E+03 -4.76796E+03 -5.37401E+02 -7.48266E+03  4.07126E+03 -7.99336E+03  9.46149E+03 -3.86407E+03
  1.11707E+04  1.16667E+03  8.25192E+03  6.03927E+03  1.62857E+03  8.84754E+03 -4.88963E+03  8.16048E+03
 -6.65458E+03  2.61006E+03 -3.68766E+03 -1.07959E+03  1.72381E+03 -1.66530E+03  4.60391E+03 -1.04636E+03
  4.74460E+03  3.19039E+03  5.78686E+02  6.85424E+03 -4.16611E+03  5.80462E+03 -7.62199E+03  1.88935E+03
 -5.14665E+03 -2.95054E+03  2.93197E+02 -6.48087E+03  3.40874E+03 -3.02465E+03  3.65029E+03  4.43605E+02
  8.21881E+02  3.04047E+03 -4.40689E+03  3.72421E+03 -4.17925E+03  1.61499E+03 -4.15574E+03 -9.17325E+02
 -2.43835E+03 -6.36704E+03  1.06679E+03 -6.69871E+03  5.90142E+03 -4.61338E+03  6.23633E+03  1.05862E+03
  4.25481E+03  4.76975E+03  4.35454E+02  6.81872E+03 -4.76453E+03  4.49172E+03 -4.82980E+03 -3.91338E+02
 -5.30936E+03 -4.95945E+03 -8.33055E+02 -5.01590E+03  1.88093E+03 -4.43204E+03  2.68038E+03 -3.01898E+03
  2.68878E+03 -2.51521E+02  2.19263E+02  1.15389E+03  4.01734E+02  2.89684E+01  3.67643E+02 -1.33160E+03
  2.79661E+03 -3.39525E+02  4.47064E+03  1.89067E+02  4.49197E+03  2.34427E+03  5.33819E+03  6.73969E+03
 -9.35191E+02  7.46489E+03 -7.07592E+03  6.47735E+03 -9.16653E+03  1.03758E+03 -7.21347E+03 -2.16970E+03
 -3.97418E+03 -5.99439E+03 -5.92213E+02 -4.26623E+03  1.40047E+03 -1.87548E+03  1.58337E+03 -1.96589E+03
  1.19159E+03 -1.16456E+03  2.16464E+03 -2.77022E+03  3.39235E+03 -1.29057E+03  3.64525E+03  3.92449E+02
  4.01312E+03  9.26198E+02  6.71428E+02  3.03052E+03 -1.63768E+03  2.52240E+03 -4.40208E+03  1.91740E+03
 -4.39267E+03 -1.44366E+03 -1.35697E+03 -2.62261E+03  6.37839E+02 -4.43339E+03  2.80281E+03 -5.18692E+03
  4.44416E+03 -2.75471E+03  6.10846E+03  2.78059E+02  5.02565E+03  3.70518E+03  5.53581E+02  5.51585E+03
 -1.64904E+03  5.60226E+03 -2.53957E+03  1.79853E+03 -1.68919E+03 -1.06341E+03 -3.71709E+02 -8.96411E+02
 -2.78143E+02  2.80269E+02 -4.35605E+02  1.89191E+03 -2.06483E+03  6.07825E+02 -3.91023E+03 -7.15165E+01
 -7.57910E+02 -3.61699E+03  1.12858E+03 -4.29462E+03  2.59707E+03 -3.70069E+03  2.93547E+03 -1.33312E+03
  3.27390E+03  1.97848E+03  1.16635E+03  2.65230E+03 -7.15305E+02  3.74081E+03 -1.79210E+03  2.47668E+03
 -2.93206E+03  5.56606E+02 -2.72611E+03 -1.47081E+03  6.46042E+02 -2.83874E+03  1.54563E+03 -2.10018E+03
  1.89845E+03 -1.09444E+03  1.55057E+03  9.55097E+02  3.45728E+02  1.13112E+03  8.53112E+02  6.76908E+02
  1.45775E+03  6.96088E+02  1.20167E+03  1.61979E+03  6.19279E+02  1.87199E+03  1.32056E+03  1.53648E+03
 -1.25126E+03  2.62344E+03 -2.09390E+03  3.17240E+03 -2.20365E+03  1.08257E+03 -3.50676E+03 -3.51988E+02
 -1.64181E+03 -2.59714E+03  7.89340E+02 -4.26471E+03  1.38988E+03 -2.46476E+03  2.74419E+03 -7.68263E+02
  1.83667E+03  1.40050E+03 -1.68457E+02  1.90930E+03 -5.80964E+02  3.89584E+02 -1.03677E+03 -7.61494E+02
 -7.21639E+02 -8.69954E+02  1.22838E+03 -1.76789E+03  8.21891E+02 -1.31137E+03  1.41667E+03  3.04221E+02
  5.24389E+02  1.00660E+02  5.42695E+02 -2.04842E+02  1.19161E+01  1.12466E+03  1.36422E+03  8.82283E+01
  1.98673E+02 -3.84795E+02  1.71639E+03 -1.51969E+02 -2.12469E+02  1.66198E+03 -6.37072E+02  2.20548E+03
 -1.30041E+03  7.62287E+01 -2.06443E+03  1.78099E+02 -1.86997E+03 -5.20438E+02  2.80342E+02 -3.51389E+02
  3.53223E+02 -1.17547E+03  5.04386E+02 -4.51585E+02  7.82546E+02  1.72916E+03 -8.00270E+02  1.20367E+03
 -1.54417E+03  4.77755E+02 -1.98117E+02 -1.29301E+03  1.36328E+02 -1.51152E+03  9.15269E+02 -1.84427E+03
  2.06989E+02 -2.02398E+02  3.27711E+02  6.91339E+01  8.61408E+02 -4.96523E+02  1.05792E+02  5.89736E+02
  2.37350E+02  1.99121E+01 -5.12707E+02 -7.02412E+01  1.09999E+03 -8.99900E+02  1.39704E+03 -3.71695E+02
  5.65204E+02  2.42330E+02  1.97107E+03  2.65345E+02  8.74562E+02  1.06844E+03 -1.17076E+02  1.47726E+03
 -1.62406E+03  5.11486E+01 -7.36365E+02  4.20725E+02 -4.28669E+02 -9.57218E+02  2.56389E+02  2.58565E+02
  1.32074E+03 -2.81001E+02  3.63612E+02  4.55586E+02  3.77099E+02  1.13595E+03 -3.31547E+01  1.37786E+03
 -1.34716E+02  4.00518E+02 -5.80627E+02  4.76094E+02  7.02480E+02  8.10665E+02 -7.35120E+02  6.37013E+02
 -1.07782E+02  9.43637E+02 -1.11742E+03 -1.17861E+02 -1.18182E+03  3.34031E+02 -2.01323E+03 -2.26092E+02
 -1.23853E+03 -1.25211E+03  4.36374E+02 -2.09001E+03  5.84651E+02 -1.62254E+03  1.85888E+03 -6.82654E+02
  1.90007E+03 -3.77358E+01  1.29473E+03  4.91007E+02 -3.88670E+02  1.11906E+03 -5.13228E+02  4.86287E+02
 -3.66666E+02  6.80080E+02 -3.72323E+02 -1.86026E+02 -1.48529E+02  2.92124E+02 -8.62698E+02 -3.35180E+02
 -1.06471E+03 -3.74941E+02 -7.47646E+02  3.67707E+02 -3.95776E+01  8.28679E+01 -5.52371E+02 -5.57573E+02
  1.12929E+03 -1.90100E+02 -5.93826E+02  2.19341E+02  9.80888E+02  8.16395E+02 -6.83229E+02  3.75176E+02
 -8.69712E+02  1.42041E+03 -1.43564E+03  1.11351E+03 -1.33377E+03 -3.14390E+00 -6.96756E+02 -8.64429E+02
 -6.38883E+02 -1.10789E+03  9.16199E+01 -8.73603E+02  2.35949E+02 -2.98584E+02  2.77013E+02 -2.35429E+02
  4.64769E+02 -4.56840E+01  1.73388E+02  2.90431E+02 -2.78953E-01  1.00809E+02  1.30882E+02  2.92981E+02
 -1.52807E+02  9.95760E+02 -8.46225E+01  1.32021E+02 -1.92538E+02  4.85819E+02  4.25486E+02  1.65896E+02
 -7.59537E+02  5.18502E+01 -5.01833E+02  4.62234E+02 -3.72011E+02 -6.81757E+01  1.25540E+02 -3.13175E+02
  1.22587E+02  9.39488E+01  3.89156E+02  2.03838E+02  3.46842E+02 -6.56330E+02  2.15354E+01  4.38179E+02
  6.11221E+02  1.71888E+02 -3.34898E+02  3.61162E+02 -5.02381E+02  5.10983E+02 -2.94156E+02 -4.30692E+02
  2.86513E+02  2.32098E+00 -1.06342E+03  2.12413E+02 -6.11655E+02  5.01652E+01 -3.23754E+02 -5.86493E+02
 -8.86857E+02  6.36606E+02 -5.68117E+02  9.00498E+00  3.37032E+02 -4.49482E+02  4.77175E+02 -5.99192E+01
  6.80240E+02  5.44921E+02 -6.61575E+02  3.51022E+02 -3.65049E+02  9.48021E+01 -5.54054E+01  7.00737E+02
