 $NMID ID='MM_0lb_SNR400_13hz_g60_58.RAW', FMTDAT='(8E13.5)'
 TRAMP=1., VOLUME=1. $END
  3.10045E+05 -1.56575E+02  3.37025E+05  2.50096E+05  8.50581E+04  3.38084E+05 -1.32710E+05  2.51581E+05
 -1.90401E+05  8.36174E+04 -1.12640E+05 -3.26544E+04  7.66491E+02 -4.99828E+04  5.32681E+04 -8.35924E+02
  3.57433E+04  5.27407E+04 -1.62134E+04  7.60754E+04 -6.14071E+04  6.39793E+04 -8.48852E+04  3.24429E+04
 -8.17112E+04 -1.11080E+04 -5.74918E+04 -5.18983E+04 -1.55975E+04 -6.98344E+04  2.84426E+04 -4.69463E+04
  4.05756E+04  3.52513E+03  1.62753E+04  4.78574E+04 -3.42489E+04  4.78814E+04 -6.70448E+04 -5.76589E+02
 -5.45700E+04 -5.77336E+04 -7.03036E+03 -7.78843E+04  3.45340E+04 -5.62522E+04  4.86261E+04 -1.77281E+04
  4.39110E+04  1.17381E+04  3.23156E+04  2.56891E+04  1.64768E+04  3.02505E+04 -6.04835E+03  2.76254E+04
 -2.24965E+04  1.24851E+04 -1.88158E+04 -4.92629E+03  6.35120E+03 -8.04044E+03  2.33452E+04  1.33587E+04
  7.11309E+03  3.63148E+04 -3.29792E+04  3.69655E+04 -6.45319E+04  1.90386E+03 -5.83196E+04 -4.30954E+04
 -1.22399E+04 -6.48038E+04  4.07222E+04 -4.66004E+04  6.08551E+04 -2.44977E+03  3.58536E+04  3.39924E+04
 -6.25707E+03  3.78754E+04 -3.09464E+04  1.74806E+04 -3.21937E+04 -4.41827E+03 -1.79160E+04 -1.20147E+04
 -8.17534E+03 -1.44111E+04  2.71025E+01 -1.97496E+04  7.99416E+03 -2.37496E+04  1.50653E+04 -1.27811E+04
  1.07151E+04  6.26541E+03 -9.10450E+03  1.28825E+04 -2.23314E+04 -5.23342E+03 -9.10710E+03 -3.56106E+04
  2.40391E+04 -4.51530E+04  4.98729E+04 -2.06550E+04  4.68481E+04  2.05227E+04  1.58831E+04  4.54353E+04
 -1.61847E+04  3.45723E+04 -2.67408E+04  1.75273E+03 -1.10216E+04 -2.87734E+04  2.14025E+04 -3.54615E+04
  4.24578E+04 -1.03976E+04  3.80255E+04  2.40093E+04  1.99292E+04  4.88764E+04 -8.44119E+03  5.29125E+04
 -3.41808E+04  3.60023E+04 -4.49798E+04  1.01143E+04 -4.45063E+04 -1.70824E+04 -2.52766E+04 -3.98684E+04
  7.52029E+03 -3.96846E+04  3.29802E+04 -1.58186E+04  3.10295E+04  1.04018E+04  4.11611E+03  2.06375E+04
 -1.35156E+04  9.01245E+03 -1.08123E+04 -7.46201E+03  5.87308E+03 -1.06196E+04  1.81900E+04  6.07814E+03
  1.45085E+04  2.22500E+04 -5.65668E+03  2.58589E+04 -2.26370E+04  1.32582E+04 -3.01968E+04 -3.93797E+03
 -2.33145E+04 -1.70333E+04 -9.82066E+03 -2.22212E+04  4.15547E+03 -2.25774E+04  1.71331E+04 -2.07498E+04
  2.93294E+04 -1.36202E+04  3.53883E+04  4.94632E+03  2.49576E+04  2.16963E+04  3.93031E+03  3.83843E+04
 -1.88907E+04  3.27723E+04 -2.90978E+04  1.16381E+04 -2.12895E+04 -1.01605E+04 -4.21963E+03 -1.32973E+04
  1.54227E+03 -1.58277E+03 -6.36170E+03  6.98073E+03 -1.81901E+04  5.75780E+03 -1.84169E+04 -7.96011E+03
 -1.12162E+04 -2.12682E+04  6.00974E+03 -2.54098E+04  1.70531E+04 -1.80592E+04  2.00991E+04 -1.96141E+03
  1.25109E+04  1.49412E+04 -1.46759E+03  2.11254E+04 -1.47342E+04  1.25736E+04 -2.12865E+04 -4.02925E+03
 -1.56898E+04 -1.88486E+04 -1.44427E+03 -2.56752E+04  1.17152E+04 -2.09423E+04  2.11070E+04 -1.04508E+04
  1.98709E+04 -1.17752E+02  1.41366E+04  4.69169E+03  8.01865E+03  9.78675E+02  1.05891E+04 -1.45519E+03
  1.93232E+04  2.34709E+03  2.18136E+04  1.70061E+04  1.43419E+04  3.37610E+04 -3.22769E+03  3.86119E+04
 -2.19865E+04  3.14231E+04 -3.59014E+04  1.60657E+04 -3.85078E+04 -2.68251E+03 -3.11994E+04 -2.25027E+04
 -1.27085E+04 -3.17180E+04  1.10051E+04 -2.70569E+04  2.43483E+04 -1.31456E+04  2.11905E+04  6.31183E+03
  7.74669E+03  1.66178E+04 -1.01896E+04  1.41274E+04 -1.81594E+04  2.19654E+03 -1.36375E+04 -1.13919E+04
  1.89293E+02 -1.67877E+04  8.38078E+03 -1.25961E+04  1.17368E+04 -1.25030E+03  2.43718E+03  7.09664E+03
 -7.77738E+03  2.44611E+03 -7.29734E+03 -6.31155E+03 -8.26104E+02 -1.53622E+04  1.10882E+04 -1.71903E+04
  1.91280E+04 -9.09345E+03  2.18252E+04  3.13196E+03  1.82602E+04  1.53066E+04  8.46627E+03  2.42684E+04
 -3.93083E+03  2.56740E+04 -1.69201E+04  1.59105E+04 -1.83078E+04  4.02084E+03 -1.25581E+04 -4.99340E+03
 -6.05671E+03 -7.05968E+03 -2.75473E+02  1.97944E+02 -2.36041E+03  3.37272E+03 -5.63765E+03  4.48308E+03
 -1.23199E+04 -6.79400E+02 -1.28897E+04 -9.67660E+03 -4.87095E+03 -1.64696E+04  5.63775E+03 -1.29955E+04
  1.03969E+04 -5.30236E+03  7.32400E+03  3.97359E+03  2.80248E+02  4.55840E+03 -6.64238E+03  3.20540E+02
 -5.87179E+03 -8.35248E+03 -1.50982E+03 -1.22913E+04  6.56963E+03 -1.36221E+04  1.57318E+04 -6.93344E+03
  1.87530E+04  1.43250E+03  1.43650E+04  1.16295E+04  3.05504E+03  1.53726E+04 -8.21470E+03  1.31171E+04
 -1.03271E+04  4.41536E+03 -5.74759E+03 -2.93021E+03  1.73752E+03 -3.45316E+03  7.43445E+03 -1.12214E+03
  6.46135E+03  5.49611E+03  1.64615E+03  1.00935E+04 -7.65844E+03  1.00468E+04 -1.29198E+04  2.66571E+03
 -9.07816E+03 -6.95704E+03  3.61913E+02 -1.07881E+04  6.92284E+03 -5.49962E+03  7.40371E+03  1.99536E+03
  1.12368E+03  7.72526E+03 -6.18284E+03  8.88759E+03 -1.03871E+04  4.49733E+03 -1.00376E+04 -3.94165E+03
 -5.97592E+03 -1.18042E+04  3.48370E+03 -1.35661E+04  1.13130E+04 -8.32230E+03  1.20341E+04  1.85773E+03
  7.65532E+03  9.54502E+03 -1.37333E+03  1.19529E+04 -7.97089E+03  6.67873E+03 -9.52372E+03 -6.97526E+02
 -9.06716E+03 -8.25215E+03 -2.45354E+03 -9.56262E+03  5.17281E+03 -7.52991E+03  5.11836E+03 -3.51251E+03
  3.53421E+03  1.53912E+03 -5.41867E+02  1.30062E+03 -2.95996E+02 -1.38579E+03  1.40417E+03 -5.53929E+03
  8.59313E+03 -3.81142E+03  1.15891E+04  1.82204E+03  1.14930E+04  7.76627E+03  7.58440E+03  1.50264E+04
 -3.25015E+03  1.74271E+04 -1.50698E+04  1.29457E+04 -1.86032E+04  2.26844E+03 -1.52796E+04 -5.49371E+03
 -6.93730E+03 -1.28083E+04 -7.67866E+02 -1.11100E+04  3.88241E+03 -6.04814E+03  4.04461E+03 -4.79256E+03
  2.66500E+03 -2.58141E+03  2.83522E+03 -3.24025E+03  5.02154E+03 -2.31538E+03  6.54896E+03 -7.68152E+02
  7.47504E+03  1.41010E+03  3.59822E+03  6.69738E+03 -2.17052E+03  7.99114E+03 -9.00263E+03  5.82986E+03
 -1.06528E+04 -1.81506E+03 -5.71953E+03 -7.36707E+03 -9.96894E+02 -1.02604E+04  6.17563E+03 -1.13238E+04
  1.07220E+04 -5.80641E+03  1.35783E+04  2.04321E+03  9.15695E+03  9.66185E+03  1.14472E+03  1.25051E+04
 -5.89835E+03  1.06499E+04 -7.04696E+03  3.43714E+03 -4.04453E+03 -1.28271E+03 -1.31538E+03 -1.38576E+03
 -8.84517E+02 -5.62048E+02 -1.93238E+03  2.71622E+03 -5.15570E+03  1.78222E+03 -6.73746E+03 -8.14395E+02
 -4.93279E+03 -6.63814E+03  6.73361E+02 -9.71209E+03  6.14793E+03 -9.25242E+03  9.34892E+03 -2.52672E+03
  9.62616E+03  4.79565E+03  4.79256E+03  8.17108E+03 -2.28179E+03  9.31365E+03 -6.95187E+03  6.08221E+03
 -9.13773E+03  8.88119E+02 -7.19374E+03 -5.59933E+03 -4.56264E+02 -8.29082E+03  3.73104E+03 -6.28934E+03
  6.01628E+03 -2.26721E+03  4.06903E+03  1.39685E+03  1.69630E+03  2.95313E+03  1.08648E+03  1.21289E+03
  1.63862E+03  9.55320E+02  2.83273E+03  1.54723E+03  2.45738E+03  4.99184E+03  2.64509E+03  4.43887E+03
 -1.93819E+03  7.08653E+03 -6.04158E+03  8.04962E+03 -1.01053E+04  2.12103E+03 -9.66904E+03 -3.64245E+03
 -4.60317E+03 -9.89973E+03  1.40699E+03 -1.11175E+04  5.19749E+03 -6.59419E+03  8.37029E+03 -2.23376E+03
  6.22937E+03  3.95721E+03  1.40621E+03  5.81731E+03 -2.74541E+03  2.76257E+03 -3.79404E+03 -1.03799E+03
 -1.54840E+03 -3.83409E+03  2.60000E+03 -3.63012E+03  2.99520E+03 -2.34631E+03  3.59777E+03  1.09108E+03
  2.21983E+03  1.41637E+03  1.03320E+03  7.77869E+02 -1.23321E+03  1.71160E+03  1.67739E+03 -6.12480E+02
  1.83817E+03 -1.95643E+02  3.73588E+03  1.15910E+03  1.54640E+03  4.97298E+03 -6.53786E+02  6.06661E+03
 -4.92287E+03  3.91526E+03 -5.66226E+03  1.23581E+03 -4.87304E+03 -1.29211E+03 -1.92847E+03 -3.05171E+03
  6.06901E+02 -3.96645E+03  2.37847E+03 -2.09143E+03  2.29638E+03  1.90860E+03 -2.78033E+02  2.91487E+03
 -3.53057E+03  1.59402E+03 -4.07145E+03 -1.90634E+03 -2.50252E+03 -5.16434E+03  5.40396E+02 -4.15669E+03
  3.12395E+03 -3.14069E+03  2.71269E+03  2.89739E+02  2.91551E+03  1.20215E+03  8.71901E+02  2.78820E+03
 -1.48677E+03  7.90584E+02 -2.45309E+03 -1.52673E+03  8.79670E+02 -3.26193E+03  5.08694E+03 -2.78783E+03
  4.82388E+03  6.65542E+02  4.33756E+03  3.43600E+03  2.28894E+03  5.71522E+03 -1.64205E+03  5.99968E+03
 -5.17130E+03  1.40387E+03 -5.10693E+03  1.00743E+02 -2.24556E+03 -3.59295E+03  1.09373E+03 -2.88681E+03
  3.81936E+03 -2.02859E+03  2.62651E+03  1.44778E+03  9.83999E+02  3.16197E+03 -6.26269E+02  3.33241E+03
 -1.06263E+03  2.17407E+03 -1.38287E+03  6.03261E+02  7.84477E+00 -2.16613E+02 -1.49367E+03  9.86999E+02
 -1.85240E+03  2.65444E+03 -4.03140E+03  1.61385E+03 -5.55042E+03  5.39195E+02 -6.41358E+03 -3.48333E+03
 -3.29059E+03 -6.37429E+03  2.26419E+03 -7.91510E+03  4.15289E+03 -7.16799E+03  7.88293E+03 -2.76073E+03
  7.07913E+03  1.68742E+03  3.57796E+03  4.93480E+03 -2.27290E+02  4.90081E+03 -1.63181E+03  4.27640E+03
 -4.01603E+03  1.44459E+03 -1.90675E+03 -3.11097E+02 -6.49428E+02 -6.04232E+02 -1.30021E+03 -8.85995E+02
 -1.31611E+03  7.13328E+00 -1.53347E+03  7.04278E+02  1.58922E+02 -9.83181E+02 -5.52273E+01 -2.45967E+03
  2.51689E+03 -1.84669E+03  3.63816E+03 -1.97834E+02  3.88112E+03  2.60789E+03  5.75496E+02  5.17681E+03
 -2.68573E+03  6.81027E+03 -5.91928E+03  3.83675E+03 -6.06090E+03 -4.29956E+02 -4.51029E+03 -4.07591E+03
 -2.44927E+03 -4.94673E+03  6.19720E+02 -4.25909E+03  3.41567E+03 -2.56683E+03  3.27497E+03  2.12760E+02
  1.63457E+03  1.26602E+03  8.54054E+01  1.74049E+03 -1.78449E+03 -3.96901E+02  1.94998E+02 -8.99050E+02
  1.75719E+03 -1.30560E+03  2.84240E+03  7.91430E+02  1.52108E+03  2.34597E+03  6.55084E+02  2.00934E+03
 -2.74875E+03  2.13454E+03 -2.94522E+03  1.01625E+03 -2.82969E+03 -1.57856E+03 -1.33113E+02 -3.67035E+03
  1.84515E+03 -2.94225E+03  3.87467E+03 -3.74545E+02  3.02268E+03  2.91886E+02  2.63687E+03  2.92395E+03
  1.13085E+02  2.99205E+03 -1.58105E+03  2.82488E+03 -1.23379E+03  1.08913E+03 -2.38482E+03 -2.39832E+02
 -5.02855E+02 -7.13246E+02 -1.27630E+03  3.16533E+02 -1.45046E+03  5.33245E+02 -2.72975E+03 -9.38785E+02
 -2.21217E+03 -1.13113E+03 -1.12713E+03 -2.54110E+03  1.91416E+03 -3.84393E+03  2.83092E+03 -1.65914E+03
  2.93775E+03  1.96127E+02  1.20894E+03  2.48970E+03 -3.29655E+02  3.68022E+03 -2.06731E+03  2.01357E+03
