 $NMID ID='MM_0lb_SNR400_13hz_g55_31.RAW', FMTDAT='(8E13.5)'
 TRAMP=1., VOLUME=1. $END
  3.09444E+05  8.97466E+02  3.37670E+05  2.50776E+05  8.47740E+04  3.38123E+05 -1.31946E+05  2.51525E+05
 -1.90811E+05  8.33438E+04 -1.11885E+05 -3.31018E+04  7.03624E+02 -5.09326E+04  5.35660E+04 -1.83263E+02
  3.56535E+04  5.34727E+04 -1.72333E+04  7.60020E+04 -6.11264E+04  6.42377E+04 -8.44496E+04  3.24689E+04
 -8.15566E+04 -1.15790E+04 -5.75952E+04 -5.12093E+04 -1.51641E+04 -7.02564E+04  2.75256E+04 -4.58295E+04
  3.97348E+04  3.60415E+03  1.61859E+04  4.77444E+04 -3.40727E+04  4.74615E+04 -6.75644E+04  1.50354E-01
 -5.39373E+04 -5.74849E+04 -6.35212E+03 -7.82546E+04  3.38490E+04 -5.56423E+04  4.83302E+04 -1.72976E+04
  4.40772E+04  1.18328E+04  3.24118E+04  2.60645E+04  1.53769E+04  3.03872E+04 -5.17529E+03  2.72554E+04
 -2.21412E+04  1.21291E+04 -1.84286E+04 -5.68152E+03  5.87779E+03 -7.41802E+03  2.27053E+04  1.26942E+04
  7.01312E+03  3.54925E+04 -3.20495E+04  3.61283E+04 -6.43203E+04  2.52835E+03 -5.75736E+04 -4.34065E+04
 -1.19882E+04 -6.41653E+04  4.00985E+04 -4.67373E+04  5.93250E+04 -3.35302E+03  3.55305E+04  3.30950E+04
 -5.74318E+03  3.72135E+04 -3.13986E+04  1.76210E+04 -3.13127E+04 -3.78184E+03 -1.75999E+04 -1.16314E+04
 -8.71376E+03 -1.37792E+04 -1.31273E+03 -1.94926E+04  8.41578E+03 -2.33531E+04  1.53754E+04 -1.33550E+04
  1.11342E+04  5.40514E+03 -9.29001E+03  1.24331E+04 -2.20674E+04 -5.09308E+03 -8.08463E+03 -3.46257E+04
  2.36887E+04 -4.47039E+04  4.97305E+04 -1.99507E+04  4.63454E+04  2.02611E+04  1.58277E+04  4.49261E+04
 -1.55776E+04  3.36938E+04 -2.58568E+04  2.34121E+03 -1.07698E+04 -2.86677E+04  2.12973E+04 -3.45159E+04
  4.25272E+04 -9.83921E+03  3.69856E+04  2.41027E+04  1.93118E+04  4.76727E+04 -8.87127E+03  5.20093E+04
 -3.29359E+04  3.51261E+04 -4.36711E+04  1.03176E+04 -4.48968E+04 -1.68424E+04 -2.45397E+04 -3.87759E+04
  7.21883E+03 -3.96768E+04  3.25352E+04 -1.49568E+04  3.04254E+04  1.07728E+04  4.31770E+03  1.94140E+04
 -1.42371E+04  8.83996E+03 -1.06913E+04 -7.29127E+03  6.20596E+03 -1.09408E+04  1.83493E+04  6.09626E+03
  1.36784E+04  2.26880E+04 -5.86555E+03  2.55622E+04 -2.24836E+04  1.25052E+04 -2.91630E+04 -3.89755E+03
 -2.19356E+04 -1.75299E+04 -9.91374E+03 -2.13314E+04  3.80377E+03 -2.20511E+04  1.69725E+04 -2.02355E+04
  2.76561E+04 -1.35645E+04  3.47304E+04  3.02617E+03  2.44993E+04  2.11452E+04  4.15650E+03  3.86096E+04
 -1.82623E+04  3.15662E+04 -2.82702E+04  1.14235E+04 -2.14944E+04 -1.02363E+04 -4.13280E+03 -1.36890E+04
  1.61221E+03 -1.80792E+03 -6.23868E+03  6.97207E+03 -1.76382E+04  5.37699E+03 -1.71760E+04 -8.09624E+03
 -1.04999E+04 -2.02343E+04  5.36198E+03 -2.46034E+04  1.64565E+04 -1.80810E+04  1.96204E+04 -1.80050E+03
  1.26813E+04  1.40798E+04 -3.69012E+02  2.02826E+04 -1.39743E+04  1.11756E+04 -2.04669E+04 -4.95933E+03
 -1.51975E+04 -1.78599E+04 -1.95947E+03 -2.47888E+04  1.15303E+04 -2.05614E+04  2.05891E+04 -1.02208E+04
  1.93772E+04 -3.42654E+02  1.35934E+04  4.70693E+03  7.34791E+03  1.49673E+03  1.04025E+04 -2.20005E+03
  1.89067E+04  2.89283E+03  2.07947E+04  1.54739E+04  1.39102E+04  3.22611E+04 -2.45328E+03  3.73153E+04
 -2.18448E+04  3.05360E+04 -3.51644E+04  1.53225E+04 -3.71545E+04 -3.01602E+03 -2.98577E+04 -2.13821E+04
 -1.28188E+04 -3.01980E+04  1.08180E+04 -2.73576E+04  2.37057E+04 -1.35393E+04  2.06638E+04  6.43145E+03
  7.92016E+03  1.59630E+04 -9.66153E+03  1.36265E+04 -1.83779E+04  2.87793E+03 -1.40722E+04 -1.12423E+04
 -3.05761E+02 -1.64837E+04  8.48861E+03 -1.19452E+04  1.05602E+04 -1.61864E+03  2.80195E+03  7.11730E+03
 -7.46905E+03  3.24837E+03 -6.75011E+03 -5.68216E+03 -1.02061E+03 -1.42385E+04  1.01289E+04 -1.59456E+04
  1.85640E+04 -8.29948E+03  1.97589E+04  2.59035E+03  1.79297E+04  1.49950E+04  7.81267E+03  2.32899E+04
 -3.70856E+03  2.46042E+04 -1.64848E+04  1.53179E+04 -1.84324E+04  4.16798E+03 -1.21997E+04 -4.24111E+03
 -6.84303E+03 -5.93861E+03 -1.03987E+03  7.21718E+02 -2.51561E+03  2.55918E+03 -5.40385E+03  4.42160E+03
 -1.18858E+04 -7.03871E+02 -1.18374E+04 -9.92973E+03 -4.24168E+03 -1.56981E+04  4.78962E+03 -1.26164E+04
  1.07441E+04 -5.94572E+03  6.93725E+03  3.91450E+03 -1.16013E+02  5.14287E+03 -5.91785E+03 -3.20995E+02
 -5.37143E+03 -8.03729E+03 -8.47365E+02 -1.23668E+04  6.27756E+03 -1.30517E+04  1.52668E+04 -7.08733E+03
  1.91248E+04  1.98504E+03  1.35166E+04  1.09339E+04  2.33228E+03  1.37258E+04 -7.70393E+03  1.27483E+04
 -1.05633E+04  3.91510E+03 -5.07956E+03 -2.20086E+03  1.43108E+03 -3.07048E+03  6.93658E+03 -1.20543E+03
  5.56459E+03  5.06058E+03  1.00287E+03  9.52405E+03 -6.90368E+03  9.23863E+03 -1.26664E+04  2.19738E+03
 -8.52032E+03 -6.21126E+03 -2.22933E+02 -1.07371E+04  7.06839E+03 -5.24024E+03  6.78726E+03  2.38757E+03
  8.71830E+02  7.71889E+03 -5.75232E+03  8.43845E+03 -9.57990E+03  3.86857E+03 -9.26223E+03 -3.20710E+03
 -5.23656E+03 -1.16342E+04  2.98502E+03 -1.32817E+04  1.08595E+04 -7.92727E+03  1.17796E+04  2.61321E+03
  7.99308E+03  9.57432E+03 -8.69251E+02  1.23796E+04 -8.33482E+03  6.38708E+03 -9.82967E+03 -5.44396E+02
 -8.46894E+03 -8.15487E+03 -1.89859E+03 -8.40851E+03  4.50935E+03 -7.93875E+03  5.31041E+03 -3.27757E+03
  4.55354E+03  1.40334E+03 -3.23539E+02  1.16287E+03 -6.74426E+02 -2.08429E+03  1.80557E+03 -5.05177E+03
  8.40771E+03 -2.71560E+03  1.14035E+04  8.15555E+02  1.05377E+04  7.63555E+03  7.84646E+03  1.45334E+04
 -3.53817E+03  1.65338E+04 -1.43985E+04  1.20450E+04 -1.76946E+04  2.05616E+03 -1.43058E+04 -5.94026E+03
 -7.42057E+03 -1.18211E+04 -7.58137E+02 -9.89361E+03  3.69313E+03 -5.51143E+03  3.70437E+03 -4.64134E+03
  2.89393E+03 -2.57510E+03  2.73590E+03 -3.32408E+03  5.04567E+03 -2.20139E+03  5.77983E+03 -3.18374E+02
  8.33833E+03  2.20543E+03  3.51059E+03  6.90299E+03 -1.86783E+03  6.85036E+03 -8.22723E+03  5.13655E+03
 -9.35919E+03 -1.71787E+03 -5.23713E+03 -6.72904E+03 -2.52417E+02 -9.79001E+03  5.90573E+03 -1.04533E+04
  1.10614E+04 -5.62502E+03  1.35422E+04  9.42409E+02  9.02532E+03  8.30192E+03  1.92684E+03  1.17512E+04
 -4.43160E+03  1.08348E+04 -6.76981E+03  3.44413E+03 -4.63912E+03 -8.37190E+02 -1.83322E+03 -1.50732E+03
 -6.24802E+02 -1.49268E+01 -1.90845E+03  2.55946E+03 -4.23468E+03  2.04193E+03 -6.79117E+03 -5.76784E+02
 -4.65396E+03 -7.02460E+03  1.22198E+02 -9.60844E+03  5.82938E+03 -8.82288E+03  9.03226E+03 -2.82231E+03
  9.93749E+03  4.80678E+03  3.97640E+03  7.86737E+03 -1.76665E+03  9.29867E+03 -6.33069E+03  6.18092E+03
 -8.22878E+03  1.27650E+03 -7.39689E+03 -6.06631E+03 -6.20307E+02 -7.69608E+03  3.54383E+03 -5.00121E+03
  5.79099E+03 -1.88103E+03  3.49660E+03  1.00701E+03  1.50859E+03  3.86022E+03  9.32859E+02  1.89848E+03
  2.71447E+03  8.84016E+02  2.54368E+03  1.47986E+03  2.04384E+03  3.29418E+03  2.86740E+03  4.69026E+03
 -1.68708E+03  7.05633E+03 -6.34427E+03  7.81817E+03 -9.22898E+03  2.43273E+03 -9.83627E+03 -3.40457E+03
 -4.63024E+03 -8.60757E+03  1.90759E+03 -1.07355E+04  5.06807E+03 -6.57440E+03  7.57423E+03 -2.44248E+03
  6.16010E+03  3.74268E+03  5.46534E+02  5.34831E+03 -2.56483E+03  3.55863E+03 -3.11710E+03 -8.30895E+02
 -2.02575E+03 -3.82813E+03  1.82521E+03 -4.30509E+03  3.64097E+03 -2.18280E+03  3.87717E+03  1.40667E+03
  2.11887E+03  1.77713E+03  1.23212E+03  1.10800E+03 -3.53072E+02  1.58249E+03  1.81858E+03 -4.28136E+02
  8.84642E+02 -6.02567E+02  3.09759E+03  9.20397E+02  1.89793E+03  4.77951E+03 -2.01656E+02  6.13025E+03
 -4.11030E+03  3.91244E+03 -5.81540E+03  2.20782E+03 -5.13243E+03 -1.96026E+03 -1.34320E+03 -3.10292E+03
  9.94638E+02 -2.62626E+03  2.72784E+03 -1.54912E+03  2.17398E+03  1.50012E+03 -1.10952E+03  3.50991E+03
 -3.45784E+03  1.80550E+03 -4.46918E+03 -2.48651E+03 -2.23235E+03 -5.43201E+03  3.70582E+02 -5.15796E+03
  2.60286E+03 -3.05616E+03  2.61319E+03 -3.70648E+02  3.13346E+03  9.91059E+02  4.31647E+02  2.96470E+03
 -1.40679E+03  7.46632E+02 -2.33715E+03 -1.80241E+03  8.35972E+02 -3.02815E+03  4.24451E+03 -3.53481E+03
  5.39536E+03  4.54664E+02  5.92448E+03  3.42358E+03  1.67620E+03  4.78816E+03 -1.43314E+03  5.10200E+03
 -3.34087E+03  1.91266E+03 -4.53068E+03 -4.17501E+02 -2.65400E+03 -3.43196E+03  1.04679E+03 -3.36343E+03
  3.62693E+03 -1.47317E+03  2.96465E+03  2.07706E+03  6.21281E+02  3.36792E+03  6.45382E+01  3.44966E+03
 -1.34803E+03  1.51306E+03 -1.32699E+03  6.22051E+02 -3.26014E+02  3.32259E+02 -1.07369E+03  8.75852E+02
 -1.34840E+03  1.65261E+03 -3.43263E+03  1.65959E+03 -5.00685E+03 -3.03298E+02 -5.50818E+03 -3.86779E+03
 -3.56979E+03 -7.55286E+03  1.14181E+03 -8.22348E+03  4.41565E+03 -6.39395E+03  7.27623E+03 -1.78395E+03
  7.04745E+03  9.73186E+02  4.55126E+03  4.54002E+03 -4.84099E+02  5.08637E+03 -1.55405E+03  3.46679E+03
 -3.23924E+03  8.61453E+02 -1.04770E+03 -1.11135E+03 -1.05232E+03 -3.86159E+02 -6.71965E+02  5.08918E+02
 -1.27231E+03 -6.08553E+02 -1.65122E+03 -1.87803E+02  1.06289E+02 -1.74434E+03  1.69532E+02 -2.14398E+03
  2.74323E+03 -1.37865E+03  2.77019E+03  9.94045E+02  4.17527E+03  2.46720E+03  1.18017E+03  5.21886E+03
 -2.42909E+03  6.49390E+03 -5.74903E+03  3.25955E+03 -6.04156E+03 -5.52060E+02 -4.17645E+03 -3.71478E+03
 -1.72725E+03 -4.78976E+03  7.14965E+02 -4.23195E+03  2.72791E+03 -2.76167E+03  2.61824E+03 -1.33340E+02
  1.44398E+03  1.03864E+03  2.90382E+02  1.95087E+03 -7.52313E+02 -6.54970E+02  1.26224E+02 -1.66577E+03
  1.08867E+03 -7.68586E+02  2.00881E+03  5.66045E+02  1.22662E+03  8.08675E+02  3.38677E+02  2.75307E+03
 -2.07295E+03  2.91301E+03 -3.47217E+03 -2.48873E+02 -3.25327E+03 -2.57071E+03 -1.89179E+02 -3.46634E+03
  1.71593E+03 -2.56353E+03  2.56364E+03 -4.37104E+01  3.47865E+03  8.45693E+02  1.78751E+03  2.69334E+03
  9.32814E+02  2.55158E+03 -1.13605E+03  1.44700E+03 -1.60482E+03  1.93889E+03 -2.03102E+03  6.83570E+02
 -3.48881E+02  1.60495E+02 -1.03887E+03  1.60624E+02 -1.77383E+03  1.20473E+02 -2.12437E+03 -6.47487E+02
 -2.11420E+03 -1.18028E+03 -9.45285E+02 -2.72730E+03  1.72224E+03 -4.09891E+03  2.73746E+03 -9.19660E+02
  2.77684E+03  4.75841E+01  1.05765E+03  1.77780E+03  6.24449E+00  2.91598E+03 -2.18663E+03  2.22042E+03
