 $NMID ID='MM_0lb_SNR400_10hz_g40_62.RAW', FMTDAT='(8E13.5)'
 TRAMP=1., VOLUME=1. $END
  3.09250E+05 -1.77539E+02  3.37846E+05  2.50856E+05  8.48512E+04  3.37966E+05 -1.32620E+05  2.51593E+05
 -1.90935E+05  8.40544E+04 -1.12176E+05 -3.26175E+04  2.55382E+02 -5.09152E+04  5.34788E+04 -7.49952E+02
  3.56777E+04  5.28808E+04 -1.72873E+04  7.59812E+04 -6.10927E+04  6.40660E+04 -8.45637E+04  3.23358E+04
 -8.17317E+04 -1.08881E+04 -5.79817E+04 -5.18866E+04 -1.47238E+04 -6.94424E+04  2.87115E+04 -4.63157E+04
  4.08553E+04  4.36260E+03  1.66707E+04  4.85940E+04 -3.52480E+04  4.79088E+04 -6.67955E+04 -3.83670E+02
 -5.44681E+04 -5.76614E+04 -6.66892E+03 -7.76536E+04  3.39797E+04 -5.57936E+04  4.86981E+04 -1.83400E+04
  4.39042E+04  1.16896E+04  3.27923E+04  2.62764E+04  1.58154E+04  2.93181E+04 -4.92803E+03  2.78316E+04
 -2.23436E+04  1.23127E+04 -1.86131E+04 -4.85647E+03  6.85041E+03 -7.46925E+03  2.35239E+04  1.30296E+04
  7.02419E+03  3.60610E+04 -3.38389E+04  3.59645E+04 -6.50510E+04  2.11986E+03 -5.77470E+04 -4.34534E+04
 -1.21962E+04 -6.47799E+04  4.06803E+04 -4.69294E+04  6.05488E+04 -1.52258E+03  3.51655E+04  3.34289E+04
 -5.90348E+03  3.74343E+04 -3.14296E+04  1.73987E+04 -3.19119E+04 -3.56747E+03 -1.85520E+04 -1.17240E+04
 -8.63225E+03 -1.41987E+04  1.40181E+02 -1.96218E+04  8.03889E+03 -2.39376E+04  1.63912E+04 -1.26089E+04
  1.21549E+04  5.77321E+03 -9.53649E+03  1.29913E+04 -2.20859E+04 -6.14138E+03 -8.78188E+03 -3.55314E+04
  2.44777E+04 -4.50437E+04  5.02289E+04 -2.02940E+04  4.74850E+04  2.00056E+04  1.68150E+04  4.54348E+04
 -1.61197E+04  3.58167E+04 -2.67396E+04  2.65978E+03 -1.06339E+04 -2.94951E+04  2.24029E+04 -3.53920E+04
  4.33363E+04 -1.08936E+04  3.87858E+04  2.46573E+04  1.97945E+04  4.93098E+04 -8.11183E+03  5.37720E+04
 -3.40694E+04  3.63374E+04 -4.46367E+04  1.05147E+04 -4.60457E+04 -1.71562E+04 -2.52003E+04 -4.03659E+04
  6.87412E+03 -4.01633E+04  3.30879E+04 -1.60974E+04  3.07495E+04  1.12464E+04  5.64400E+03  2.00136E+04
 -1.31307E+04  9.44517E+03 -1.14515E+04 -7.44222E+03  5.32113E+03 -1.10096E+04  1.80451E+04  6.58434E+03
  1.45229E+04  2.26464E+04 -5.59493E+03  2.52262E+04 -2.31433E+04  1.27587E+04 -3.02901E+04 -3.74023E+03
 -2.35787E+04 -1.81091E+04 -1.03862E+04 -2.30483E+04  4.21526E+03 -2.26393E+04  1.79929E+04 -1.98118E+04
  2.98268E+04 -1.43128E+04  3.64759E+04  3.52624E+03  2.68680E+04  2.22433E+04  4.62509E+03  3.99049E+04
 -1.90038E+04  3.31174E+04 -2.94919E+04  1.14747E+04 -2.13798E+04 -1.11965E+04 -4.34284E+03 -1.32452E+04
  1.02950E+03 -1.99106E+03 -6.93400E+03  7.59909E+03 -1.86353E+04  4.66151E+03 -1.86303E+04 -8.41846E+03
 -1.14835E+04 -2.21693E+04  5.72927E+03 -2.63557E+04  1.67760E+04 -1.83303E+04  2.00934E+04 -1.41219E+03
  1.41688E+04  1.51420E+04 -1.39790E+03  2.10649E+04 -1.50978E+04  1.23321E+04 -2.19235E+04 -4.50055E+03
 -1.60451E+04 -1.93659E+04 -1.42237E+03 -2.61365E+04  1.12570E+04 -2.22009E+04  2.16881E+04 -1.14191E+04
  2.12565E+04  5.23739E+02  1.44070E+04  4.81991E+03  7.41839E+03  1.54307E+03  1.17508E+04 -1.67542E+03
  2.04735E+04  2.44603E+03  2.27139E+04  1.76429E+04  1.48038E+04  3.46822E+04 -2.92864E+03  4.02946E+04
 -2.31293E+04  3.34724E+04 -3.77883E+04  1.71041E+04 -4.02517E+04 -2.41828E+03 -3.29690E+04 -2.33755E+04
 -1.35383E+04 -3.25353E+04  1.19651E+04 -2.92887E+04  2.49887E+04 -1.38337E+04  2.20974E+04  7.20750E+03
  7.86049E+03  1.77617E+04 -1.09460E+04  1.43834E+04 -1.92377E+04  3.64505E+03 -1.42291E+04 -1.19725E+04
 -1.19857E+02 -1.80375E+04  9.55582E+03 -1.30879E+04  1.17974E+04 -8.32115E+02  2.66755E+03  8.34359E+03
 -8.55551E+03  3.34933E+03 -7.79477E+03 -6.59663E+03 -1.27473E+03 -1.57614E+04  1.04896E+04 -1.78055E+04
  2.08767E+04 -9.39146E+03  2.34278E+04  3.40297E+03  1.99437E+04  1.66757E+04  9.70506E+03  2.57029E+04
 -4.80522E+03  2.78213E+04 -1.76136E+04  1.71287E+04 -2.00794E+04  3.96892E+03 -1.34007E+04 -5.88229E+03
 -5.63686E+03 -6.99217E+03 -1.18061E+03  1.24525E+03 -2.58886E+03  2.41419E+03 -6.26868E+03  5.02498E+03
 -1.35417E+04 -1.03334E+03 -1.42379E+04 -1.11005E+04 -5.17725E+03 -1.74675E+04  5.49807E+03 -1.41228E+04
  1.09950E+04 -5.91957E+03  8.46450E+03  4.07575E+03  3.32166E+02  6.08327E+03 -7.27639E+03 -1.19904E+02
 -6.95037E+03 -9.20614E+03 -5.97797E+02 -1.35078E+04  8.08963E+03 -1.46871E+04  1.73766E+04 -8.54639E+03
  2.04801E+04  1.71470E+03  1.50598E+04  1.30184E+04  2.67489E+03  1.60754E+04 -8.12222E+03  1.44234E+04
 -1.15686E+04  3.56559E+03 -5.77660E+03 -3.23661E+03  1.65505E+03 -3.49600E+03  7.29879E+03 -1.69207E+03
  7.00413E+03  5.95699E+03  1.71795E+03  1.11793E+04 -8.44616E+03  1.04066E+04 -1.43963E+04  2.27676E+03
 -9.39253E+03 -6.99107E+03  9.40762E+02 -1.25357E+04  7.53483E+03 -6.49829E+03  7.87053E+03  2.47798E+03
  1.97256E+03  8.36227E+03 -7.32870E+03  9.76756E+03 -1.14790E+04  4.67627E+03 -1.23049E+04 -4.20674E+03
 -6.08734E+03 -1.31976E+04  3.07671E+03 -1.53560E+04  1.27906E+04 -9.20843E+03  1.46665E+04  1.95515E+03
  9.03685E+03  1.18234E+04 -1.07394E+03  1.40257E+04 -9.77536E+03  7.08352E+03 -1.15007E+04 -1.36031E+03
 -9.24072E+03 -9.00959E+03 -2.19585E+03 -1.06110E+04  5.48501E+03 -8.60733E+03  7.00345E+03 -3.91755E+03
  4.44364E+03  2.01509E+03 -8.71639E+02  1.88963E+03  2.17467E+02 -3.17541E+03  1.84112E+03 -6.00230E+03
  9.16131E+03 -3.66015E+03  1.44018E+04  2.08352E+03  1.41808E+04  9.75980E+03  9.16805E+03  1.78528E+04
 -4.20627E+03  2.04364E+04 -1.70945E+04  1.53992E+04 -2.15571E+04  2.05401E+03 -1.74681E+04 -7.02975E+03
 -8.96389E+03 -1.48745E+04  4.58028E+02 -1.25965E+04  4.84434E+03 -6.87843E+03  4.24318E+03 -5.10424E+03
  3.02815E+03 -2.25984E+03  3.70069E+03 -3.92939E+03  5.12911E+03 -2.96531E+03  7.62402E+03 -8.67894E+02
  9.56574E+03  1.99697E+03  3.87811E+03  8.96078E+03 -1.61253E+03  9.39003E+03 -1.04042E+04  6.85782E+03
 -1.27930E+04 -2.01572E+03 -7.87377E+03 -8.20054E+03 -4.04305E+02 -1.27576E+04  7.32303E+03 -1.36745E+04
  1.38365E+04 -7.50451E+03  1.70778E+04  2.32981E+03  1.11449E+04  1.11216E+04  1.38384E+03  1.56014E+04
 -6.53837E+03  1.20866E+04 -8.22994E+03  5.12796E+03 -6.30096E+03 -1.25801E+03 -3.11811E+03 -1.91736E+03
 -9.25021E+02  8.33232E+01 -1.97290E+03  2.82616E+03 -5.97199E+03  2.32601E+03 -9.12022E+03 -1.54360E+03
 -6.57112E+03 -8.96509E+03 -2.67535E+02 -1.23040E+04  8.06052E+03 -1.12584E+04  1.21759E+04 -4.12898E+03
  1.18435E+04  5.87610E+03  5.32782E+03  1.12039E+04 -2.35281E+03  1.20185E+04 -8.38126E+03  8.25319E+03
 -1.18703E+04  6.81154E+02 -9.13399E+03 -7.93307E+03 -8.27864E+02 -9.82411E+03  5.13843E+03 -7.80831E+03
  7.09233E+03 -2.31358E+03  5.33519E+03  2.03428E+03  1.18615E+03  3.91407E+03  1.70494E+03  1.83474E+03
  2.76420E+03  1.24232E+03  3.12801E+03  1.72224E+03  3.17489E+03  4.19226E+03  3.18638E+03  6.24149E+03
 -2.80044E+03  1.02099E+04 -8.59663E+03  1.00109E+04 -1.25301E+04  2.47444E+03 -1.23070E+04 -4.60119E+03
 -6.36203E+03 -1.21490E+04  2.05285E+03 -1.33165E+04  7.49275E+03 -8.79761E+03  9.72748E+03 -2.44591E+03
  8.31258E+03  4.53769E+03  1.81270E+03  6.72369E+03 -3.47496E+03  3.73780E+03 -5.26851E+03 -1.13005E+03
 -2.20074E+03 -5.07193E+03  3.10432E+03 -5.73510E+03  5.70574E+03 -2.57923E+03  4.95593E+03  7.29929E+02
  3.37949E+03  2.42182E+03  1.09800E+03  1.68848E+03  1.33653E+02  1.98110E+03  1.56583E+03 -4.59961E+02
  1.79395E+03 -2.98086E+02  5.35982E+03  1.54589E+03  3.20321E+03  6.26645E+03 -9.82284E+02  8.71938E+03
 -5.57840E+03  6.40818E+03 -7.52679E+03  2.17645E+03 -7.32576E+03 -1.82446E+03 -2.87507E+03 -4.36291E+03
  1.22599E+03 -4.37855E+03  3.32215E+03 -2.24230E+03  2.69684E+03  2.45537E+03 -1.33701E+03  3.80192E+03
 -5.60897E+03  2.36131E+03 -5.55005E+03 -3.52681E+03 -3.99446E+03 -6.47813E+03  1.21292E+03 -8.08453E+03
  3.95940E+03 -3.74333E+03  4.52758E+03 -2.82421E+02  4.08130E+03  1.66395E+03 -7.86514E+01  3.25634E+03
 -2.39787E+03  1.51183E+03 -3.71510E+03 -2.39804E+03  5.41140E+02 -5.57471E+03  6.13105E+03 -4.63253E+03
  7.66715E+03  9.29657E+02  7.58288E+03  4.66503E+03  2.52007E+03  8.36909E+03 -3.71772E+03  7.99952E+03
 -6.20836E+03  3.78546E+03 -6.89767E+03 -9.45829E+02 -3.80590E+03 -5.63907E+03  6.94520E+02 -4.76220E+03
  4.81706E+03 -2.19229E+03  3.87495E+03  1.85479E+03  1.45887E+03  4.72620E+03 -8.31745E+02  4.48298E+03
 -2.16823E+03  2.73518E+03 -1.71994E+03  8.00147E+02 -8.93871E+01  1.09319E+03 -1.20793E+03  2.29808E+03
 -2.17200E+03  3.47408E+03 -5.42332E+03  3.22676E+03 -7.40824E+03  1.85638E+02 -9.26981E+03 -5.18282E+03
 -4.61510E+03 -1.01790E+04  2.17106E+03 -1.22778E+04  8.17601E+03 -9.36200E+03  1.20307E+04 -3.63689E+03
  1.02739E+04  2.51212E+03  6.32631E+03  6.87774E+03 -8.05537E+01  8.20769E+03 -3.57734E+03  6.79219E+03
 -4.83353E+03  2.77302E+03 -2.81747E+03 -9.21718E+02 -8.15643E+02 -2.65421E+02 -1.30928E+03  6.02925E+01
 -1.77806E+03  4.80588E+02 -1.99204E+03 -8.71203E+02 -6.41291E+02 -2.56775E+03 -4.75318E+01 -3.09851E+03
  3.88590E+03 -2.96906E+03  4.75206E+03  2.34775E+02  6.16527E+03  4.33877E+03  1.25395E+03  8.76115E+03
 -4.00416E+03  9.57086E+03 -7.82683E+03  5.30330E+03 -1.02467E+04 -1.86128E+03 -7.47008E+03 -6.35899E+03
 -2.98270E+03 -8.03939E+03  2.92016E+03 -7.54292E+03  5.41394E+03 -4.41885E+03  4.64687E+03  5.23697E+02
  2.96771E+03  2.96755E+03 -2.03178E+02  2.41384E+03 -1.89900E+03 -8.07173E+02  4.50344E+02 -2.51999E+03
  1.91462E+03 -1.11162E+03  2.93710E+03  1.44660E+03  1.83438E+03  3.75888E+03 -2.52353E+01  4.25570E+03
 -3.85936E+03  3.61086E+03 -5.79063E+03  5.62660E+02 -5.15493E+03 -3.13999E+03 -1.15173E+03 -7.27701E+03
  3.75855E+03 -5.30215E+03  6.41054E+03 -1.13348E+03  6.35007E+03  7.88910E+02  3.52502E+03  4.90938E+03
  7.36032E+02  5.34633E+03 -1.69024E+03  4.65138E+03 -3.38754E+03  2.54712E+03 -3.29948E+03  8.99618E+02
 -1.33770E+03 -6.76028E+01 -1.31444E+03  1.42950E+02 -2.80843E+03  3.24060E+02 -4.12731E+03 -1.00158E+03
 -4.03446E+03 -2.07907E+03 -1.21046E+03 -5.20110E+03  2.50328E+03 -6.17120E+03  5.02517E+03 -2.54653E+03
  5.75113E+03  9.11238E+01  2.92580E+03  3.83437E+03 -6.44123E+02  5.76023E+03 -3.93645E+03  4.23574E+03
