 $NMID ID='MM_0lb_SNR400_12hz_g45_96.RAW', FMTDAT='(8E13.5)'
 TRAMP=1., VOLUME=1. $END
  3.09517E+05  8.11983E+02  3.37333E+05  2.50987E+05  8.47721E+04  3.39076E+05 -1.32466E+05  2.51008E+05
 -1.90463E+05  8.29533E+04 -1.12017E+05 -3.24590E+04  7.70581E+02 -5.05081E+04  5.41431E+04 -1.20414E+02
  3.56302E+04  5.25651E+04 -1.65941E+04  7.54418E+04 -6.02576E+04  6.31648E+04 -8.37885E+04  3.25417E+04
 -8.16271E+04 -1.13845E+04 -5.75316E+04 -5.17337E+04 -1.54839E+04 -7.01596E+04  2.74231E+04 -4.59474E+04
  4.07932E+04  3.94831E+03  1.61891E+04  4.79303E+04 -3.43133E+04  4.78520E+04 -6.76075E+04 -5.69402E+02
 -5.33631E+04 -5.73348E+04 -7.45551E+03 -7.78417E+04  3.44471E+04 -5.52626E+04  4.89064E+04 -1.77228E+04
  4.42005E+04  1.17310E+04  3.18155E+04  2.53457E+04  1.60129E+04  3.00833E+04 -5.02893E+03  2.73841E+04
 -2.26307E+04  1.24274E+04 -1.85391E+04 -5.39484E+03  5.60987E+03 -7.41449E+03  2.25264E+04  1.24968E+04
  7.84359E+03  3.56217E+04 -3.18486E+04  3.57038E+04 -6.44463E+04  2.33701E+03 -5.78574E+04 -4.31691E+04
 -1.22101E+04 -6.34840E+04  4.00639E+04 -4.55051E+04  5.86432E+04 -2.10865E+03  3.48312E+04  3.29096E+04
 -5.59589E+03  3.70730E+04 -3.06697E+04  1.65893E+04 -3.14464E+04 -4.74585E+03 -1.76431E+04 -1.12244E+04
 -8.66703E+03 -1.39871E+04 -1.29304E+03 -1.83529E+04  7.63921E+03 -2.31043E+04  1.50831E+04 -1.31818E+04
  1.06989E+04  5.52580E+03 -8.34267E+03  1.34932E+04 -2.18672E+04 -4.80262E+03 -8.32180E+03 -3.49903E+04
  2.34988E+04 -4.42073E+04  4.91304E+04 -1.99185E+04  4.62873E+04  1.91804E+04  1.69087E+04  4.53008E+04
 -1.64564E+04  3.40103E+04 -2.56491E+04  1.74163E+03 -1.01766E+04 -2.86226E+04  2.09808E+04 -3.48247E+04
  4.21276E+04 -9.34390E+03  3.72527E+04  2.41023E+04  1.97425E+04  4.71004E+04 -8.29689E+03  5.14149E+04
 -3.26967E+04  3.52882E+04 -4.44261E+04  9.77599E+03 -4.34574E+04 -1.70481E+04 -2.42392E+04 -3.94954E+04
  7.31493E+03 -3.87025E+04  3.20377E+04 -1.50670E+04  3.02578E+04  1.08582E+04  3.97289E+03  1.95081E+04
 -1.34231E+04  8.29906E+03 -1.06434E+04 -7.54504E+03  5.42624E+03 -1.07832E+04  1.81428E+04  5.26602E+03
  1.38572E+04  2.23982E+04 -6.23375E+03  2.53819E+04 -2.33667E+04  1.28718E+04 -2.90020E+04 -4.15392E+03
 -2.23898E+04 -1.79660E+04 -8.76073E+03 -2.19439E+04  3.75082E+03 -2.10203E+04  1.63291E+04 -1.89093E+04
  2.83691E+04 -1.31718E+04  3.38255E+04  3.64595E+03  2.49342E+04  2.07147E+04  4.55609E+03  3.75125E+04
 -1.85305E+04  3.14147E+04 -2.94084E+04  1.07122E+04 -2.17136E+04 -1.00778E+04 -3.93251E+03 -1.26161E+04
  1.12909E+03 -2.24461E+03 -5.88060E+03  7.51157E+03 -1.77338E+04  4.72331E+03 -1.76813E+04 -6.91410E+03
 -1.02547E+04 -2.07184E+04  5.28553E+03 -2.50304E+04  1.62689E+04 -1.79028E+04  1.98174E+04 -1.82874E+03
  1.23425E+04  1.41019E+04 -1.12468E+03  2.09490E+04 -1.38658E+04  1.12300E+04 -2.03673E+04 -4.34864E+03
 -1.47685E+04 -1.82988E+04 -2.15603E+03 -2.42842E+04  1.15125E+04 -1.97354E+04  2.07257E+04 -1.00657E+04
  1.94155E+04 -5.41211E+02  1.37723E+04  4.68306E+03  7.51393E+03  2.69643E+02  1.04935E+04 -1.35517E+03
  1.87356E+04  3.41612E+03  2.10695E+04  1.60483E+04  1.38136E+04  3.28103E+04 -3.27561E+03  3.69866E+04
 -2.01219E+04  3.02155E+04 -3.42042E+04  1.56899E+04 -3.69089E+04 -2.62707E+03 -3.16341E+04 -2.11664E+04
 -1.27423E+04 -2.91632E+04  1.02604E+04 -2.70579E+04  2.40124E+04 -1.34885E+04  1.99920E+04  6.08757E+03
  7.51522E+03  1.53054E+04 -9.84963E+03  1.31742E+04 -1.72617E+04  3.08192E+03 -1.34186E+04 -1.11253E+04
 -7.35878E+02 -1.61003E+04  7.98490E+03 -1.22747E+04  1.14764E+04 -8.00931E+02  1.77220E+03  6.69971E+03
 -7.45554E+03  3.30068E+03 -6.83226E+03 -5.29467E+03 -7.13372E+02 -1.50776E+04  1.04272E+04 -1.52749E+04
  1.84103E+04 -8.69912E+03  2.04372E+04  3.22763E+03  1.76853E+04  1.48699E+04  8.40164E+03  2.28526E+04
 -3.56013E+03  2.47567E+04 -1.60082E+04  1.54806E+04 -1.82491E+04  3.27595E+03 -1.28991E+04 -3.63432E+03
 -5.63504E+03 -5.54806E+03 -3.02024E+02  1.19154E+03 -2.84607E+03  2.97399E+03 -5.34739E+03  4.52836E+03
 -1.14119E+04 -1.26251E+03 -1.26429E+04 -9.21233E+03 -4.60900E+03 -1.64316E+04  5.07386E+03 -1.25713E+04
  1.07275E+04 -5.33631E+03  7.43162E+03  3.08482E+03  3.98694E+02  4.71952E+03 -5.40001E+03 -4.83135E+02
 -6.23896E+03 -7.32002E+03 -1.20465E+03 -1.15542E+04  7.02502E+03 -1.31405E+04  1.60328E+04 -6.43284E+03
  1.88811E+04  1.85425E+03  1.39554E+04  1.02059E+04  2.67225E+03  1.46505E+04 -7.34061E+03  1.25137E+04
 -1.03738E+04  3.89183E+03 -5.84807E+03 -2.36697E+03  1.73980E+03 -3.14480E+03  7.10929E+03 -1.28406E+03
  6.24384E+03  4.62479E+03  1.02064E+03  1.00296E+04 -6.78829E+03  9.66644E+03 -1.26089E+04  2.27493E+03
 -7.79832E+03 -6.41026E+03 -4.57216E+02 -1.05746E+04  6.46626E+03 -5.41603E+03  6.82769E+03  2.93693E+03
  1.33637E+03  8.03148E+03 -6.69428E+03  8.13166E+03 -9.85746E+03  3.32641E+03 -9.87113E+03 -3.36490E+03
 -5.46866E+03 -1.16113E+04  3.10604E+03 -1.31632E+04  1.11837E+04 -7.97406E+03  1.27452E+04  2.28309E+03
  7.55193E+03  9.66397E+03 -7.22352E+02  1.23365E+04 -9.53446E+03  6.87503E+03 -9.15270E+03 -7.70816E+02
 -8.79078E+03 -8.43024E+03 -1.49992E+03 -8.87707E+03  4.87188E+03 -7.50747E+03  5.34804E+03 -3.70225E+03
  4.58160E+03  1.18562E+03 -7.59729E+02  1.67795E+03 -6.38796E+01 -2.18783E+03  1.25374E+03 -4.43514E+03
  8.69454E+03 -3.03049E+03  1.15134E+04  7.79717E+02  1.12213E+04  7.23040E+03  7.86594E+03  1.48413E+04
 -2.92810E+03  1.76524E+04 -1.37895E+04  1.28828E+04 -1.91834E+04  2.04713E+03 -1.53567E+04 -6.28688E+03
 -7.93053E+03 -1.26116E+04 -6.02902E+01 -1.01749E+04  3.53993E+03 -5.29287E+03  3.65907E+03 -4.00273E+03
  2.92989E+03 -2.52268E+03  3.55995E+03 -2.91994E+03  4.50569E+03 -2.59119E+03  6.12570E+03 -1.09831E+03
  7.42389E+03  1.90735E+03  3.64155E+03  6.36872E+03 -2.46251E+03  7.44221E+03 -8.44205E+03  6.30114E+03
 -1.06938E+04 -1.00712E+03 -6.21273E+03 -6.84481E+03 -8.01167E+02 -1.05557E+04  6.34759E+03 -1.14627E+04
  1.14813E+04 -6.22959E+03  1.37458E+04  1.40083E+03  9.28153E+03  1.00284E+04  1.33146E+03  1.23775E+04
 -4.77991E+03  1.00653E+04 -7.31602E+03  3.67607E+03 -4.73249E+03 -2.06453E+03 -2.29995E+03 -1.52502E+03
 -8.23278E+02  2.20206E+02 -9.82296E+02  2.68957E+03 -5.13781E+03  2.17027E+03 -7.16442E+03 -6.52412E+02
 -5.70820E+03 -7.41422E+03 -6.88525E+01 -1.04388E+04  5.79558E+03 -9.60673E+03  1.01986E+04 -3.24645E+03
  9.45042E+03  5.40494E+03  4.78252E+03  8.13300E+03 -2.43103E+03  1.06553E+04 -6.45962E+03  6.17712E+03
 -9.80495E+03  2.69748E+02 -6.97529E+03 -5.99879E+03 -7.09035E+02 -8.00115E+03  4.04507E+03 -6.08403E+03
  6.57012E+03 -2.97271E+03  3.81513E+03  1.66229E+03  1.23017E+03  2.88311E+03  1.13781E+03  1.89988E+03
  2.60048E+03  9.54331E+02  2.20722E+03  9.47439E+02  2.52011E+03  3.23397E+03  3.14353E+03  5.38533E+03
 -2.22449E+03  7.66543E+03 -6.48873E+03  8.33897E+03 -9.54668E+03  2.31839E+03 -9.57761E+03 -3.56118E+03
 -4.84091E+03 -9.72804E+03  1.41232E+03 -1.07500E+04  5.40573E+03 -6.40464E+03  8.06765E+03 -1.64573E+03
  7.16490E+03  3.50344E+03  1.31361E+03  5.52762E+03 -2.35519E+03  3.55780E+03 -3.21443E+03 -1.25721E+02
 -1.85784E+03 -4.13046E+03  2.47387E+03 -4.04471E+03  3.68985E+03 -1.73118E+03  3.78200E+03  6.13665E+02
  2.29466E+03  1.42063E+03  1.18681E+03  9.32683E+02 -6.62564E+02  1.45875E+03  1.34883E+03 -5.90515E+02
  1.14889E+03 -6.36273E+02  3.79782E+03  1.89210E+03  2.61770E+03  5.65168E+03 -8.33838E+02  7.35132E+03
 -4.43640E+03  4.20837E+03 -6.07070E+03  1.60356E+03 -5.64507E+03 -2.03207E+03 -1.52040E+03 -3.56658E+03
  1.00821E+02 -3.77315E+03  2.22147E+03 -1.23789E+03  2.15648E+03  2.11556E+03 -1.06260E+03  2.88603E+03
 -4.57457E+03  1.87392E+03 -4.21859E+03 -2.51405E+03 -2.20433E+03 -5.18119E+03  8.23997E+02 -5.30120E+03
  2.44883E+03 -3.02426E+03  4.02659E+03  1.09508E+02  3.21116E+03  6.71501E+02  3.68586E+02  2.93133E+03
 -1.83718E+03  9.84643E+02 -2.79269E+03 -1.82543E+03  2.02622E+03 -3.40429E+03  5.03786E+03 -2.97194E+03
  5.04044E+03  8.22313E+02  6.66032E+03  3.93300E+03  1.68007E+03  5.88478E+03 -1.54428E+03  5.95460E+03
 -5.23451E+03  1.78129E+03 -5.20258E+03 -4.91222E+02 -2.32816E+03 -4.34903E+03  9.97894E+02 -3.71966E+03
  4.08234E+03 -1.65572E+03  3.11524E+03  1.97728E+03  8.54657E+02  3.34743E+03 -2.71602E+02  2.92489E+03
 -1.83247E+03  2.20284E+03 -1.42246E+03  5.68949E+02 -1.02780E+02 -1.11712E+02 -5.62365E+02  1.89754E+03
 -1.64428E+03  2.23240E+03 -3.87153E+03  2.71532E+03 -6.17377E+03  2.24523E+02 -6.77753E+03 -4.26240E+03
 -3.26135E+03 -7.91272E+03  1.50862E+03 -9.48583E+03  5.52309E+03 -7.26891E+03  8.06221E+03 -2.42201E+03
  8.42403E+03  1.52036E+03  4.66787E+03  6.03933E+03  4.05655E+02  6.15089E+03 -2.50202E+03  4.61824E+03
 -2.97814E+03  1.15510E+03 -2.48523E+03 -5.96227E+02 -7.91128E+02 -1.36743E+02  2.51361E+02  3.75599E+02
 -1.34826E+03  6.58764E+02 -2.10370E+03 -6.90893E+02 -5.16891E+02 -1.54137E+03 -5.47304E+02 -2.15765E+03
  2.11803E+03 -2.51982E+03  3.38459E+03  2.20537E+02  4.01736E+03  3.01895E+03  4.87240E+02  5.71527E+03
 -3.17145E+03  6.87090E+03 -5.72665E+03  3.90682E+03 -7.02727E+03 -4.11387E+02 -4.86880E+03 -4.44723E+03
 -2.97560E+03 -5.83105E+03  1.75460E+03 -5.92222E+03  3.93356E+03 -3.39642E+03  3.31956E+03 -1.11201E+02
  1.72732E+03  1.90582E+03  4.11125E+02  1.87944E+03 -6.88194E+02  4.31396E+01 -9.73499E+02 -5.97427E+02
  1.62099E+03 -5.50909E+02  1.46244E+03  9.35344E+02  1.70700E+03  2.57158E+03  2.22008E+02  2.72660E+03
 -2.26071E+03  3.11689E+03 -3.96347E+03 -4.68341E+02 -4.13630E+03 -2.37328E+03 -8.17015E+02 -4.83238E+03
  2.58705E+03 -4.03889E+03  4.51252E+03 -2.04827E+03  4.29663E+03  7.01704E+02  2.01350E+03  2.95314E+03
  6.79904E+02  3.18652E+03 -1.61346E+03  3.42821E+03 -2.51795E+03  1.81844E+03 -1.65561E+03  1.57386E+02
 -8.24114E+02  2.64894E+02 -1.65119E+03  2.68323E+02 -1.63214E+03  6.35058E+02 -2.84803E+03 -8.27397E+02
 -2.79594E+03 -1.39438E+03 -8.39937E+02 -3.67490E+03  1.35318E+03 -4.16412E+03  4.20300E+03 -1.94089E+03
  3.44282E+03  3.34703E+02  1.28657E+03  2.74810E+03 -7.93618E+02  3.64941E+03 -2.47246E+03  2.93267E+03
