 $NMID ID='MM_0lb_SNR400_15hz_g60_44.RAW', FMTDAT='(8E13.5)'
 TRAMP=1., VOLUME=1. $END
  3.09850E+05  3.71726E+02  3.37687E+05  2.50613E+05  8.49707E+04  3.38540E+05 -1.33008E+05  2.51540E+05
 -1.90682E+05  8.37032E+04 -1.11729E+05 -3.27267E+04  7.04113E+02 -5.05563E+04  5.36081E+04 -2.66964E+02
  3.56448E+04  5.26279E+04 -1.66933E+04  7.53919E+04 -6.11193E+04  6.37056E+04 -8.47585E+04  3.20950E+04
 -8.13565E+04 -1.16141E+04 -5.76133E+04 -5.13001E+04 -1.48398E+04 -6.97440E+04  2.76965E+04 -4.60276E+04
  4.02696E+04  4.14396E+03  1.65286E+04  4.79445E+04 -3.51331E+04  4.76252E+04 -6.72165E+04  1.38051E+02
 -5.37365E+04 -5.62764E+04 -6.94985E+03 -7.74823E+04  3.36525E+04 -5.51875E+04  4.87466E+04 -1.76548E+04
  4.35242E+04  1.11199E+04  3.22953E+04  2.56926E+04  1.57534E+04  2.96725E+04 -5.21033E+03  2.71664E+04
 -2.19182E+04  1.16705E+04 -1.88420E+04 -5.63758E+03  5.21778E+03 -7.45243E+03  2.32514E+04  1.29439E+04
  6.62884E+03  3.58980E+04 -3.24155E+04  3.58271E+04 -6.37542E+04  2.42003E+03 -5.74669E+04 -4.33255E+04
 -1.25437E+04 -6.37783E+04  4.07103E+04 -4.53290E+04  5.94026E+04 -1.94169E+03  3.41972E+04  3.34408E+04
 -6.13629E+03  3.64524E+04 -3.02534E+04  1.63235E+04 -3.12590E+04 -4.03417E+03 -1.70358E+04 -1.17154E+04
 -7.79094E+03 -1.34264E+04 -2.09621E+02 -1.81631E+04  7.50150E+03 -2.36285E+04  1.55076E+04 -1.30882E+04
  1.07240E+04  5.37748E+03 -9.08270E+03  1.22554E+04 -2.21063E+04 -4.64705E+03 -8.08555E+03 -3.43245E+04
  2.39914E+04 -4.45481E+04  4.91749E+04 -2.00260E+04  4.49759E+04  1.98445E+04  1.57493E+04  4.48123E+04
 -1.59996E+04  3.37259E+04 -2.55446E+04  1.82652E+03 -1.06633E+04 -2.81574E+04  2.11161E+04 -3.40298E+04
  4.17686E+04 -9.26142E+03  3.63314E+04  2.40255E+04  1.87771E+04  4.70501E+04 -8.19913E+03  5.17327E+04
 -3.24655E+04  3.43242E+04 -4.29646E+04  9.20247E+03 -4.34671E+04 -1.72427E+04 -2.40261E+04 -3.85043E+04
  7.12793E+03 -3.83661E+04  3.16610E+04 -1.52391E+04  2.98698E+04  1.09490E+04  3.92364E+03  1.99811E+04
 -1.41284E+04  8.58266E+03 -1.09577E+04 -6.97475E+03  5.92855E+03 -1.04246E+04  1.73648E+04  6.54827E+03
  1.36819E+04  2.17495E+04 -5.84877E+03  2.52222E+04 -2.22518E+04  1.19998E+04 -2.86557E+04 -4.66865E+03
 -2.13076E+04 -1.75183E+04 -8.66051E+03 -2.16820E+04  3.91795E+03 -2.10198E+04  1.69775E+04 -1.83404E+04
  2.68712E+04 -1.32587E+04  3.31632E+04  3.50551E+03  2.47445E+04  2.04662E+04  3.85575E+03  3.69037E+04
 -1.82418E+04  3.05116E+04 -2.82967E+04  1.06494E+04 -2.16196E+04 -1.00750E+04 -3.61250E+03 -1.33773E+04
  1.32551E+03 -2.42903E+03 -5.19659E+03  6.99577E+03 -1.62900E+04  4.91933E+03 -1.63924E+04 -7.01080E+03
 -1.11794E+04 -1.97942E+04  4.70145E+03 -2.30029E+04  1.56010E+04 -1.64998E+04  1.94828E+04 -1.45147E+03
  1.18726E+04  1.32106E+04 -5.49966E+02  1.93317E+04 -1.35102E+04  1.10741E+04 -1.94386E+04 -4.20152E+03
 -1.45001E+04 -1.73897E+04 -1.77486E+03 -2.25889E+04  1.05110E+04 -1.97479E+04  2.04520E+04 -9.75398E+03
  1.82599E+04  2.40400E+02  1.32322E+04  4.55355E+03  6.89301E+03  1.11312E+03  9.73820E+03 -9.56372E+02
  1.80514E+04  2.56737E+03  2.06316E+04  1.56577E+04  1.30753E+04  3.05990E+04 -2.56895E+03  3.50337E+04
 -2.01903E+04  2.80137E+04 -3.24155E+04  1.42284E+04 -3.46934E+04 -2.97820E+03 -2.81059E+04 -1.97117E+04
 -1.25542E+04 -2.87512E+04  9.97461E+03 -2.54351E+04  2.19681E+04 -1.30162E+04  1.97842E+04  5.63429E+03
  7.06951E+03  1.44240E+04 -9.03096E+03  1.30153E+04 -1.66733E+04  2.74836E+03 -1.29197E+04 -1.05595E+04
 -4.52302E+02 -1.49266E+04  7.98894E+03 -1.15984E+04  1.02270E+04 -1.46868E+03  2.67596E+03  6.11749E+03
 -7.02510E+03  2.02182E+03 -6.26496E+03 -5.55713E+03 -2.21812E+02 -1.36581E+04  9.21955E+03 -1.40128E+04
  1.69560E+04 -7.27042E+03  1.83984E+04  3.90361E+03  1.54408E+04  1.29756E+04  7.64316E+03  2.10993E+04
 -3.36833E+03  2.27451E+04 -1.41759E+04  1.47019E+04 -1.60199E+04  3.48799E+03 -1.17388E+04 -3.54911E+03
 -5.64488E+03 -4.73796E+03 -9.79070E+02  1.21886E+03 -2.16182E+03  2.19751E+03 -5.63602E+03  4.13097E+03
 -1.11678E+04 -3.55781E+02 -1.10348E+04 -9.48387E+03 -4.30143E+03 -1.43109E+04  4.03771E+03 -1.14160E+04
  9.19855E+03 -4.82020E+03  6.89274E+03  2.95102E+03 -4.14575E+02  4.93312E+03 -4.85823E+03  8.37061E+02
 -5.11171E+03 -6.88324E+03 -1.08499E+03 -1.08753E+04  6.23756E+03 -1.12737E+04  1.44721E+04 -6.01390E+03
  1.66840E+04  9.22322E+02  1.17084E+04  9.91653E+03  1.62874E+03  1.30545E+04 -6.42459E+03  1.08608E+04
 -9.24599E+03  3.70447E+03 -4.87543E+03 -1.88142E+03  1.53630E+03 -3.13606E+03  6.28276E+03 -6.62648E+02
  5.63411E+03  4.64812E+03  1.34632E+03  8.95408E+03 -6.71780E+03  8.94293E+03 -1.03096E+04  2.33720E+03
 -6.55056E+03 -5.02800E+03  1.37345E+02 -9.79797E+03  5.89132E+03 -4.06713E+03  5.38345E+03  1.56162E+03
  1.76867E+03  5.76977E+03 -5.66185E+03  7.31311E+03 -8.74996E+03  3.26108E+03 -8.33895E+03 -2.52981E+03
 -5.25790E+03 -9.56013E+03  2.03716E+03 -1.14479E+04  9.41387E+03 -6.01909E+03  1.04012E+04  1.58839E+03
  6.60235E+03  8.48739E+03 -1.83013E+02  1.04160E+04 -7.85112E+03  5.47314E+03 -7.85267E+03 -1.45237E+03
 -7.78461E+03 -7.44923E+03 -1.94076E+03 -7.75988E+03  4.18514E+03 -6.77027E+03  4.63759E+03 -2.68185E+03
  3.55632E+03  6.05031E+02 -3.13089E+02  1.77822E+03  2.53113E+02 -1.06781E+03  9.95417E+02 -3.60604E+03
  6.00063E+03 -1.77013E+03  9.26379E+03  2.07210E+03  9.37272E+03  5.62487E+03  6.93042E+03  1.14738E+04
 -2.80912E+03  1.40999E+04 -1.14549E+04  9.99645E+03 -1.50747E+04  1.84004E+03 -1.24404E+04 -5.11258E+03
 -7.05595E+03 -1.01415E+04 -3.28886E+02 -8.89178E+03  2.92725E+03 -4.50674E+03  3.34743E+03 -2.80197E+03
  2.65883E+03 -1.80202E+03  3.13452E+03 -2.81687E+03  4.48807E+03 -1.65323E+03  4.86142E+03 -5.44717E+01
  7.17818E+03  1.47578E+03  2.46386E+03  5.94432E+03 -2.24465E+03  6.09269E+03 -6.90056E+03  5.28152E+03
 -8.17046E+03 -1.06757E+03 -4.65620E+03 -6.45297E+03 -6.30090E+01 -8.74208E+03  4.83923E+03 -9.03918E+03
  8.82915E+03 -5.25041E+03  1.05467E+04  1.19213E+03  7.84279E+03  7.23346E+03  1.54565E+03  1.04411E+04
 -4.20687E+03  8.67978E+03 -5.28580E+03  3.38210E+03 -3.39464E+03 -1.08164E+03 -1.08287E+03 -1.38117E+03
 -1.15309E+03  3.84814E+02 -9.11642E+02  2.53329E+03 -4.03691E+03  1.50130E+03 -5.71416E+03 -7.11401E+02
 -3.53838E+03 -5.47455E+03  5.99356E+02 -8.39566E+03  4.21992E+03 -6.78640E+03  6.85701E+03 -1.59601E+03
  7.07430E+03  3.44011E+03  3.18158E+03  6.62060E+03 -1.50246E+03  7.37530E+03 -5.26508E+03  4.71925E+03
 -6.88171E+03  1.14237E+03 -5.99909E+03 -4.39027E+03 -2.86277E+02 -5.22103E+03  3.12925E+03 -4.71469E+03
  4.56290E+03 -1.52528E+03  3.02415E+03  1.64795E+03  1.33746E+03  2.27395E+03  8.76120E+02  5.28367E+02
  1.86202E+03  8.49236E+02  1.68994E+03  1.49486E+03  1.70975E+03  2.95543E+03  2.49860E+03  3.08714E+03
 -1.67503E+03  4.87463E+03 -4.83113E+03  6.13132E+03 -6.56685E+03  1.63619E+03 -7.51253E+03 -2.06411E+03
 -3.47359E+03 -7.73077E+03  6.93219E+02 -8.31044E+03  4.38094E+03 -4.79945E+03  5.89525E+03 -8.85198E+02
  4.37083E+03  2.45372E+03  1.05784E+03  3.51645E+03 -1.60368E+03  2.25063E+03 -2.01266E+03 -4.28376E+02
 -1.49185E+03 -2.30703E+03  1.81047E+03 -2.92641E+03  2.86796E+03 -1.49005E+03  2.76422E+03  1.01075E+03
  1.51555E+03  1.27342E+03  1.10806E+03  1.50738E+02 -7.25666E+02  1.10741E+03  1.95754E+03 -7.72436E+01
  1.10308E+03 -2.50381E+02  2.73404E+03  1.90896E+03  1.18144E+03  4.11911E+03 -5.90869E+02  5.52715E+03
 -3.03791E+03  2.87089E+03 -4.17824E+03  8.37636E+02 -3.77353E+03 -1.28318E+03 -1.24124E+03 -2.21649E+03
  3.51191E+02 -2.52600E+03  1.71283E+03 -1.02682E+03  1.62379E+03  1.67913E+03 -1.18093E+03  1.56212E+03
 -2.45501E+03  1.58260E+03 -3.35886E+03 -1.91639E+03 -1.66588E+03 -3.24585E+03  1.59741E+03 -3.58231E+03
  1.04560E+03 -1.51882E+03  2.18461E+03 -8.65037E+01  2.11890E+03  4.07166E+02  9.88158E+00  2.35979E+03
  2.94900E+01  6.61818E+02 -1.89296E+03 -1.33246E+02  5.35101E+02 -2.18450E+03  3.48713E+03 -2.54457E+03
  3.26820E+03  2.07477E+02  4.82872E+03  2.45911E+03  1.74819E+03  3.72778E+03 -9.47158E+02  4.33769E+03
 -2.93474E+03  9.72642E+02 -3.05164E+03 -5.20101E+02 -1.23125E+03 -2.79513E+03  7.43906E+02 -2.06971E+03
  2.37022E+03 -8.10465E+02  1.74547E+03  5.19828E+02  1.18206E+03  1.61337E+03 -2.47708E+02  2.25983E+03
 -1.13518E+03  1.54143E+03 -8.91485E+02  5.22170E+01 -5.19379E+02  3.86235E+02 -1.48151E+03  2.48909E+02
 -8.28493E+02  2.13517E+03 -2.74578E+03  8.68584E+02 -3.26273E+03 -2.69325E+02 -4.16243E+03 -1.90803E+03
 -1.82699E+03 -4.44380E+03  9.01561E+02 -5.78122E+03  2.68611E+03 -4.72581E+03  5.47654E+03 -1.72968E+03
  5.06546E+03  2.12698E+02  2.63687E+03  3.30138E+03 -5.98063E+02  3.93960E+03 -8.04207E+02  2.39814E+03
 -1.56562E+03  6.15719E+02 -8.60014E+02 -2.87407E+02 -5.94562E+02 -4.20370E+02 -1.01496E+03 -3.62353E+02
 -9.96028E+02  2.71766E+01 -8.16420E+02 -6.39389E+02 -5.53828E+02 -6.19733E+02 -4.88168E+02 -1.01660E+03
  1.66909E+03 -7.89256E+02  1.05517E+03  4.47073E+02  1.88251E+03  1.73464E+03  1.43592E+02  4.03299E+03
 -2.04628E+03  3.61689E+03 -3.59926E+03  2.84553E+03 -3.85307E+03 -2.99466E+02 -2.14587E+03 -2.18746E+03
 -1.58338E+03 -3.06662E+03  1.37038E+03 -2.90375E+03  2.22695E+03 -1.41863E+03  1.45386E+03  4.46037E+02
  1.25850E+03  1.54436E+03  4.19570E+02  1.08675E+03 -5.75510E+02 -1.58510E+02 -2.99710E+02 -8.88709E+02
  7.75427E+02  8.21733E+01  1.27446E+03  2.29208E+02  6.50671E+02  1.39732E+03  1.76532E+02  7.75038E+02
 -1.01322E+03  1.64866E+03 -1.75661E+03 -1.61882E+02 -2.02918E+03 -1.58256E+03 -1.16667E+02 -2.63803E+03
  1.36948E+03 -1.70934E+03  2.32012E+03 -7.70331E+02  2.40033E+03 -2.36699E+02  9.54750E+02  1.65868E+03
  7.20179E+02  1.97260E+03 -2.52862E+02  1.81080E+03 -9.32125E+02  1.50090E+03 -9.35043E+02  8.09283E+02
 -6.76012E+02  6.60003E+01 -9.36987E+02 -9.81701E+01 -4.13689E+02  3.87083E+02 -1.59917E+03 -1.79227E+02
 -1.46525E+03 -8.95605E+02  1.49328E+02 -1.70706E+03  9.28280E+02 -2.57212E+03  1.87611E+03 -7.86490E+02
  2.21625E+03  8.84563E+00  5.17246E+02  1.87343E+03  8.02047E+01  1.40654E+03 -1.33548E+03  1.08615E+03
