 $NMID ID='MM_0lb_SNR400_17hz_g45_78.RAW', FMTDAT='(8E13.5)'
 TRAMP=1., VOLUME=1. $END
  3.09709E+05 -5.84368E+01  3.37591E+05  2.50112E+05  8.37510E+04  3.37857E+05 -1.32519E+05  2.49775E+05
 -1.89519E+05  8.28255E+04 -1.11297E+05 -3.28927E+04  1.15057E+03 -5.00915E+04  5.33452E+04  2.31435E+02
  3.50925E+04  5.29920E+04 -1.66474E+04  7.50115E+04 -6.07461E+04  6.27300E+04 -8.33417E+04  3.18611E+04
 -8.04065E+04 -1.13249E+04 -5.63056E+04 -5.01685E+04 -1.51360E+04 -6.84652E+04  2.68938E+04 -4.51288E+04
  3.94655E+04  3.93648E+03  1.59123E+04  4.74120E+04 -3.37892E+04  4.65618E+04 -6.52962E+04 -6.23089E+02
 -5.29004E+04 -5.62105E+04 -6.20663E+03 -7.51302E+04  3.33304E+04 -5.35989E+04  4.68811E+04 -1.63091E+04
  4.22963E+04  1.09001E+04  3.07371E+04  2.40817E+04  1.57487E+04  2.82196E+04 -4.79237E+03  2.71743E+04
 -2.14281E+04  1.25517E+04 -1.91381E+04 -3.98234E+03  3.90702E+03 -7.61165E+03  2.12498E+04  1.14221E+04
  7.81509E+03  3.37279E+04 -3.09060E+04  3.48082E+04 -6.17933E+04  2.04357E+03 -5.56717E+04 -4.12449E+04
 -1.24241E+04 -6.19621E+04  3.80307E+04 -4.41725E+04  5.58341E+04 -1.48408E+03  3.20631E+04  3.09073E+04
 -6.63285E+03  3.37274E+04 -2.88276E+04  1.39046E+04 -2.79363E+04 -5.05595E+03 -1.50090E+04 -1.03880E+04
 -7.72293E+03 -1.19977E+04 -9.60412E+02 -1.69107E+04  7.23674E+03 -2.23767E+04  1.53961E+04 -1.40828E+04
  1.21680E+04  4.46717E+03 -6.90362E+03  1.26350E+04 -1.99014E+04 -3.01658E+03 -7.71372E+03 -3.09329E+04
  2.09445E+04 -4.16537E+04  4.55009E+04 -1.85567E+04  4.30742E+04  1.91575E+04  1.42042E+04  4.22320E+04
 -1.59831E+04  3.20944E+04 -2.40146E+04  1.31114E+03 -8.16903E+03 -2.67781E+04  2.06528E+04 -3.13742E+04
  3.85119E+04 -7.89255E+03  3.29090E+04  2.26212E+04  1.65962E+04  4.36005E+04 -7.37047E+03  4.62104E+04
 -2.94839E+04  3.02876E+04 -3.79839E+04  8.05090E+03 -3.91817E+04 -1.61363E+04 -2.17787E+04 -3.55174E+04
  7.04804E+03 -3.50639E+04  2.99100E+04 -1.30422E+04  2.74700E+04  1.08860E+04  3.57055E+03  1.80665E+04
 -1.35476E+04  8.01845E+03 -9.62141E+03 -7.82717E+03  5.86079E+03 -1.03298E+04  1.76999E+04  6.45563E+03
  1.25603E+04  2.14424E+04 -6.21336E+03  2.38441E+04 -2.16309E+04  9.83594E+03 -2.61101E+04 -5.92232E+03
 -1.76668E+04 -1.70886E+04 -6.43582E+03 -1.78228E+04  3.44099E+03 -1.62704E+04  1.38381E+04 -1.49950E+04
  2.22973E+04 -1.20251E+04  2.97578E+04  1.25744E+03  2.22113E+04  1.75793E+04  4.09678E+03  3.35086E+04
 -1.69967E+04  2.77872E+04 -2.58299E+04  9.91031E+03 -1.99570E+04 -1.00879E+04 -4.35528E+03 -1.38690E+04
  2.32849E+03 -4.08073E+03 -3.72626E+03  5.63365E+03 -1.35664E+04  5.25468E+03 -1.41746E+04 -5.37710E+03
 -8.58319E+03 -1.58721E+04  4.27065E+03 -2.03114E+04  1.28875E+04 -1.47331E+04  1.51622E+04 -1.01684E+03
  9.57358E+03  1.11660E+04 -3.70387E+02  1.66675E+04 -1.05291E+04  9.52092E+03 -1.62665E+04 -3.63940E+03
 -1.19841E+04 -1.49642E+04 -1.64121E+03 -1.99024E+04  8.79760E+03 -1.61833E+04  1.72451E+04 -8.30807E+03
  1.54996E+04  3.36493E+02  1.10724E+04  3.91410E+03  5.49145E+03  7.98381E+02  8.24909E+03 -1.19351E+03
  1.43149E+04  2.72399E+03  1.56880E+04  1.34096E+04  9.88253E+03  2.57352E+04 -3.10684E+03  2.87754E+04
 -1.66890E+04  2.22900E+04 -2.68315E+04  1.06874E+04 -2.74970E+04 -1.94311E+03 -2.30717E+04 -1.48328E+04
 -1.01209E+04 -2.24629E+04  7.79787E+03 -2.09219E+04  1.79971E+04 -1.11214E+04  1.68036E+04  3.97849E+03
  6.67585E+03  1.23123E+04 -7.60218E+03  1.12397E+04 -1.40834E+04  2.48311E+03 -1.11308E+04 -8.66632E+03
 -5.39588E+01 -1.31488E+04  6.89122E+03 -1.00036E+04  8.57218E+03 -9.83002E+02  1.49517E+03  5.47894E+03
 -5.71616E+03  1.74634E+03 -4.13840E+03 -4.77641E+03  3.63676E+02 -1.13201E+04  8.13614E+03 -1.12657E+04
  1.31217E+04 -5.78531E+03  1.40517E+04  3.13899E+03  1.17513E+04  1.04032E+04  5.08173E+03  1.54931E+04
 -1.56505E+03  1.75765E+04 -1.07566E+04  1.08245E+04 -1.27313E+04  3.67678E+03 -1.00362E+04 -2.29862E+03
 -5.07766E+03 -4.15353E+03 -4.31363E+02  9.76977E+02 -2.39734E+03  1.73439E+03 -4.48966E+03  3.74657E+03
 -8.68204E+03 -6.42642E+02 -8.71756E+03 -7.18039E+03 -4.01862E+03 -1.23949E+04  4.12158E+03 -9.05815E+03
  7.55717E+03 -3.94485E+03  5.43225E+03  2.17213E+03  2.87931E+02  3.62570E+03 -4.04372E+03 -2.51553E+02
 -4.07593E+03 -5.71265E+03 -9.36555E+02 -7.75156E+03  4.25605E+03 -8.76616E+03  1.09923E+04 -4.81002E+03
  1.28520E+04  5.20970E+02  8.94107E+03  7.23261E+03  1.82461E+03  9.80984E+03 -5.30894E+03  9.26424E+03
 -7.49995E+03  3.08703E+03 -3.87987E+03 -1.52379E+03  1.18443E+03 -2.01537E+03  5.10367E+03 -7.48481E+02
  4.40301E+03  3.21877E+03  1.20850E+03  6.88932E+03 -5.33380E+03  6.58722E+03 -9.07280E+03  1.47665E+03
 -5.09348E+03 -4.58023E+03 -8.42152E+01 -7.71703E+03  4.29318E+03 -3.72961E+03  4.17994E+03  1.30133E+03
  9.78156E+02  4.03043E+03 -4.38584E+03  5.51944E+03 -5.38595E+03  2.87440E+03 -5.17887E+03 -1.94808E+03
 -3.38481E+03 -6.68987E+03  1.52396E+03 -7.76699E+03  7.25473E+03 -5.59300E+03  7.46911E+03  5.30416E+02
  5.33248E+03  6.33162E+03  8.94419E+01  7.72490E+03 -5.16231E+03  4.60229E+03 -5.66703E+03 -6.47944E+02
 -5.73048E+03 -5.60387E+03 -8.11136E+02 -5.01300E+03  2.96228E+03 -5.26545E+03  3.08173E+03 -2.85378E+03
  2.75943E+03  9.74800E+02 -4.45388E+01  8.69820E+02  8.79693E+02 -5.73878E+02  5.39359E+02 -2.12353E+03
  5.14432E+03 -8.83005E+02  6.25878E+03  6.77810E+02  6.55502E+03  3.63522E+03  5.81873E+03  8.19347E+03
 -1.40771E+03  9.53629E+03 -8.85277E+03  7.48267E+03 -1.11626E+04  8.59085E+02 -9.15667E+03 -3.20597E+03
 -4.53417E+03 -7.19575E+03  2.20731E+02 -5.77738E+03  2.77241E+03 -3.11090E+03  1.82003E+03 -2.47393E+03
  1.72683E+03 -1.76613E+03  1.72269E+03 -2.60884E+03  3.83138E+03 -1.95436E+03  4.36474E+03  5.28460E+02
  4.56288E+03  1.24443E+03  1.44370E+03  4.06546E+03 -1.71412E+03  3.71499E+03 -4.68853E+03  3.38585E+03
 -5.48081E+03 -6.19489E+02 -2.31851E+03 -3.78168E+03  1.05560E+02 -5.99165E+03  4.28850E+03 -6.49540E+03
  6.05422E+03 -4.14325E+03  7.75612E+03 -5.80974E+01  5.16079E+03  4.72642E+03  9.91266E+02  6.75573E+03
 -3.14147E+03  6.92078E+03 -4.07373E+03  2.52403E+03 -2.54421E+03 -9.09010E+02 -9.04909E+02 -1.53849E+03
 -3.07668E+02  6.71230E+02 -1.15805E+03  2.39587E+03 -2.29813E+03  1.08097E+03 -5.01629E+03 -7.38354E+02
 -1.70952E+03 -4.48066E+03  4.28070E+02 -5.84178E+03  3.09036E+03 -5.22566E+03  4.08587E+03 -1.60738E+03
  5.08434E+03  2.32429E+03  2.13065E+03  4.38434E+03 -1.03654E+03  5.07171E+03 -3.07189E+03  3.69992E+03
 -4.40494E+03  1.16497E+03 -4.29307E+03 -2.48252E+03 -2.01917E+02 -3.82989E+03  1.71621E+03 -3.32649E+03
  3.14668E+03 -1.64445E+03  2.31762E+03  8.83587E+02  1.02177E+03  2.43001E+03  7.40985E+02  8.72399E+02
  1.89500E+03  5.03663E+02  1.73219E+03  1.05621E+03  1.08436E+03  2.50177E+03  1.36906E+03  2.16993E+03
 -1.13040E+03  3.67110E+03 -3.27337E+03  4.59109E+03 -4.11594E+03  1.35191E+03 -4.98301E+03 -1.03980E+03
 -2.58063E+03 -5.03853E+03  8.42867E+02 -5.62952E+03  2.89240E+03 -3.18447E+03  3.38275E+03 -1.35122E+03
  2.49882E+03  1.97108E+03  9.49752E+02  3.01866E+03 -1.02593E+03  9.39099E+02 -1.65245E+03 -5.92231E+01
 -4.95657E+02 -2.29873E+03  1.46018E+03 -2.07416E+03  1.73624E+03 -1.05241E+03  1.91705E+03  8.00789E+02
  9.78763E+02  4.26833E+02  7.74171E+02  2.30717E+02 -3.12503E+02  8.69664E+02  1.05045E+03  1.19186E+02
  5.86628E+02 -4.18701E+02  2.30216E+03  7.81300E+02  5.79667E+02  3.02282E+03 -6.61261E+02  3.47001E+03
 -2.44276E+03  1.81476E+03 -2.52920E+03  6.39268E+02 -2.25176E+03 -8.18993E+02 -6.31381E+02 -1.21513E+03
  4.54068E+02 -1.38585E+03  1.51166E+03 -9.64579E+02  8.86491E+02  1.66274E+03 -7.88147E+02  1.25332E+03
 -1.43732E+03  1.19055E+03 -2.06500E+03 -1.80047E+03 -9.86718E+02 -2.12821E+03  1.65832E+02 -2.27310E+03
  4.16696E+02 -1.22703E+03  7.26587E+02  6.07854E+01  1.61651E+03  3.53809E+02  8.14390E+02  1.62570E+03
 -5.37337E+02  1.21454E+02 -1.05378E+03 -4.82942E+02  5.40774E+02 -1.03206E+03  2.08100E+03 -1.65838E+03
  1.89862E+03  3.19661E+02  3.02070E+03  1.05463E+03  1.14701E+03  2.02547E+03 -9.36511E+02  2.00152E+03
 -1.84120E+03 -1.36242E+02 -1.95921E+03 -7.44566E+02 -1.29451E+03 -1.64517E+03  8.15251E+01 -9.52324E+02
  1.58700E+03 -7.40185E+02  1.07217E+03  9.32599E+02  6.38663E+02  1.55730E+03  5.59513E+02  1.81614E+03
 -8.92724E+02  1.20227E+03 -6.53997E+02  3.01873E+02  4.79122E+00  1.83257E+02 -1.10816E+03  8.61763E+02
 -3.01498E+02  1.45479E+03 -2.24955E+03  1.05858E+03 -2.08847E+03  1.38829E+02 -2.66085E+03 -1.67793E+03
 -1.41224E+03 -2.52055E+03  5.62054E+02 -3.32194E+03  1.62330E+03 -3.39082E+03  3.43292E+03 -1.16047E+03
  2.39360E+03  2.86755E+02  2.08164E+03  2.12582E+03 -1.27350E+02  2.04784E+03 -4.53979E+02  2.18674E+03
 -1.74832E+03  8.87174E+02 -8.67867E+02 -8.04235E+02 -7.81717E+02  2.11857E+02 -7.16056E+02  2.42735E+01
 -1.07671E+03  4.02767E+02 -1.35974E+03  8.35780E+02 -2.03928E+02 -5.37121E+02  1.36494E+02 -1.00588E+03
  1.24896E+03 -1.08566E+03  1.10016E+03  1.41076E+02  1.46130E+03  1.25550E+03 -4.78472E+02  1.82228E+03
 -6.86467E+02  2.97125E+03 -2.26873E+03  1.76799E+03 -2.21524E+03 -2.89384E+02 -1.86695E+03 -1.56263E+03
 -1.23161E+03 -1.60156E+03  1.76485E+02 -1.56143E+03  1.86429E+03 -1.12401E+03  8.37786E+02  4.10566E+02
  9.64683E+02  9.76430E+02  5.85539E+02  7.29230E+02 -2.49899E+02 -6.96069E+00 -2.92929E+02  1.68594E+02
  6.19515E+02  6.42663E+02  3.42597E+01  7.94487E+02  4.61125E+02  2.60816E+02  3.25955E+02  3.84435E+02
 -8.17121E+02  5.76813E+02 -1.37507E+03  1.14544E+01 -1.49082E+03 -1.16544E+03 -5.89575E+02 -2.00535E+03
  8.40912E+02 -1.01653E+03  6.78454E+02 -4.39298E+02  1.41393E+03 -3.90994E+02  5.99992E+02  1.14308E+03
  9.81448E+02  1.00342E+03 -4.88120E+01  1.06569E+03 -1.14695E+03  7.00681E+02 -7.54211E+02  6.74373E+02
 -4.44626E+02 -2.08949E+02 -2.32136E+02 -5.99783E+02 -8.51159E+01  6.16919E+02 -9.56130E+02 -4.97436E+02
 -1.45604E+03 -2.98359E+02 -3.32554E+02 -1.11008E+03  9.50961E+02 -2.36497E+03  7.01079E+02 -2.21230E+02
  1.16619E+03  3.46275E+02 -1.42237E+01  3.34980E+02 -3.42269E+02  9.62454E+02 -1.02076E+03  5.31794E+02
