 $NMID ID='MM_0lb_SNR400_9hz_g60_45.RAW', FMTDAT='(8E13.5)'
 TRAMP=1., VOLUME=1. $END
  3.10406E+05 -3.50934E+02  3.38100E+05  2.51555E+05  8.54948E+04  3.38499E+05 -1.32733E+05  2.51443E+05
 -1.91794E+05  8.45913E+04 -1.12284E+05 -3.16482E+04  2.25319E+02 -5.07628E+04  5.40924E+04 -3.19937E+02
  3.57488E+04  5.27450E+04 -1.64452E+04  7.63866E+04 -6.20767E+04  6.43457E+04 -8.55448E+04  3.27823E+04
 -8.20246E+04 -1.09116E+04 -5.90287E+04 -5.29892E+04 -1.41910E+04 -7.18110E+04  2.85265E+04 -4.70022E+04
  4.06101E+04  3.35439E+03  1.73092E+04  4.92289E+04 -3.53333E+04  4.89094E+04 -6.89207E+04 -1.23264E+02
 -5.48300E+04 -5.83640E+04 -8.41775E+03 -7.90300E+04  3.50787E+04 -5.72503E+04  5.05063E+04 -1.81802E+04
  4.61565E+04  1.17949E+04  3.24123E+04  2.75562E+04  1.51946E+04  3.15468E+04 -5.60401E+03  2.76335E+04
 -2.27857E+04  1.18813E+04 -1.93437E+04 -5.67807E+03  6.86768E+03 -6.93581E+03  2.38779E+04  1.39579E+04
  7.83144E+03  3.77815E+04 -3.45072E+04  3.73854E+04 -6.60995E+04  2.72522E+03 -5.92148E+04 -4.43988E+04
 -1.27263E+04 -6.55410E+04  4.16575E+04 -4.80066E+04  6.20953E+04 -2.95724E+03  3.76079E+04  3.46106E+04
 -5.23840E+03  4.07135E+04 -3.18759E+04  1.94816E+04 -3.34859E+04 -3.85005E+03 -1.99785E+04 -1.21193E+04
 -9.20401E+03 -1.55128E+04 -8.94686E+02 -2.06025E+04  8.52954E+03 -2.27441E+04  1.58474E+04 -1.16593E+04
  1.01613E+04  5.37959E+03 -1.16312E+04  1.33114E+04 -2.37762E+04 -7.23730E+03 -9.23335E+03 -3.80408E+04
  2.61179E+04 -4.72351E+04  5.23020E+04 -2.21201E+04  4.90432E+04  2.06860E+04  1.69422E+04  4.79125E+04
 -1.64180E+04  3.68363E+04 -2.86700E+04  2.98617E+03 -1.20015E+04 -3.07770E+04  2.16150E+04 -3.89531E+04
  4.54619E+04 -1.12223E+04  4.13722E+04  2.54291E+04  2.24238E+04  5.22405E+04 -8.72585E+03  5.69914E+04
 -3.68944E+04  3.96905E+04 -4.79776E+04  1.17918E+04 -4.87400E+04 -1.94778E+04 -2.63249E+04 -4.35544E+04
  7.62471E+03 -4.30032E+04  3.47977E+04 -1.73925E+04  3.28171E+04  1.20063E+04  4.87125E+03  2.17752E+04
 -1.40248E+04  1.00188E+04 -1.19425E+04 -7.59893E+03  5.70804E+03 -1.17986E+04  1.88183E+04  5.00315E+03
  1.55189E+04  2.23632E+04 -4.62307E+03  2.80991E+04 -2.40429E+04  1.63300E+04 -3.24142E+04 -2.56311E+03
 -2.60258E+04 -1.84733E+04 -1.24837E+04 -2.55916E+04  4.64378E+03 -2.66900E+04  2.04756E+04 -2.49933E+04
  3.36237E+04 -1.43006E+04  3.82240E+04  5.52467E+03  2.78493E+04  2.50852E+04  4.30191E+03  4.26841E+04
 -2.00220E+04  3.44216E+04 -3.18379E+04  1.24511E+04 -2.27337E+04 -1.02995E+04 -5.53093E+03 -1.24947E+04
  2.60334E+02 -1.54796E+03 -9.07812E+03  8.68265E+03 -2.10596E+04  5.41442E+03 -2.15284E+04 -9.45695E+03
 -1.20590E+04 -2.46541E+04  6.30241E+03 -2.90851E+04  1.92430E+04 -2.01505E+04  2.34538E+04 -1.48873E+03
  1.59670E+04  1.75265E+04 -8.41652E+02  2.42245E+04 -1.71585E+04  1.35444E+04 -2.40981E+04 -4.80639E+03
 -1.81028E+04 -2.16062E+04 -2.98906E+03 -2.95203E+04  1.30583E+04 -2.41842E+04  2.44406E+04 -1.23921E+04
  2.32777E+04 -5.75900E+02  1.62116E+04  5.42949E+03  9.17228E+03  1.32730E+03  1.39379E+04 -1.87006E+03
  2.31372E+04  2.59633E+03  2.71306E+04  1.84009E+04  1.80573E+04  3.95775E+04 -2.29248E+03  4.73272E+04
 -2.63234E+04  3.98223E+04 -4.38025E+04  1.98634E+04 -4.68083E+04 -3.91282E+03 -3.72479E+04 -2.75265E+04
 -1.45164E+04 -3.93151E+04  1.36247E+04 -3.45089E+04  2.81871E+04 -1.63903E+04  2.56435E+04  8.10396E+03
  8.76898E+03  2.00766E+04 -1.22663E+04  1.65943E+04 -2.04372E+04  2.66834E+03 -1.49804E+04 -1.35169E+04
 -6.61728E+02 -2.04418E+04  1.06089E+04 -1.47129E+04  1.36364E+04 -1.77454E+03  3.82698E+03  9.46608E+03
 -8.15333E+03  3.83729E+03 -1.02400E+04 -5.88179E+03 -1.66738E+03 -1.89920E+04  1.21223E+04 -2.11901E+04
  2.42293E+04 -1.22542E+04  2.86242E+04  3.59681E+03  2.52585E+04  1.94608E+04  1.10645E+04  3.16838E+04
 -6.05889E+03  3.36020E+04 -2.17986E+04  2.09259E+04 -2.36114E+04  3.91653E+03 -1.59305E+04 -6.39638E+03
 -6.78430E+03 -7.71089E+03 -2.69808E+02  6.96409E+02 -3.76254E+03  3.87803E+03 -8.85236E+03  5.19500E+03
 -1.45613E+04 -1.34163E+03 -1.59308E+04 -1.30915E+04 -7.15585E+03 -2.00718E+04  7.25913E+03 -1.66832E+04
  1.42385E+04 -6.69516E+03  8.80256E+03  4.29746E+03 -1.26793E+03  6.50906E+03 -8.23444E+03 -3.07674E+02
 -8.09169E+03 -1.09802E+04 -2.14812E+02 -1.63082E+04  9.35204E+03 -1.65512E+04  2.10927E+04 -9.50720E+03
  2.45319E+04  2.80431E+03  1.81093E+04  1.49754E+04  3.26759E+03  2.09376E+04 -1.01209E+04  1.57064E+04
 -1.30595E+04  3.96333E+03 -7.78184E+03 -3.69593E+03  3.01889E+03 -4.56151E+03  8.30529E+03 -9.85781E+02
  7.31635E+03  7.67341E+03  8.23821E+02  1.29676E+04 -9.15969E+03  1.21462E+04 -1.51604E+04  3.29484E+03
 -1.17639E+04 -7.93301E+03  8.20514E+01 -1.41928E+04  8.67652E+03 -7.12976E+03  8.96593E+03  2.57455E+03
  2.20424E+03  1.11023E+04 -9.15885E+03  1.30121E+04 -1.47355E+04  5.69265E+03 -1.54158E+04 -5.65742E+03
 -8.56888E+03 -1.73513E+04  4.46227E+03 -1.88741E+04  1.66373E+04 -1.14629E+04  1.81244E+04  4.11788E+03
  1.05150E+04  1.37914E+04 -2.24727E+03  1.69401E+04 -1.25609E+04  8.55355E+03 -1.38938E+04 -2.13725E+03
 -1.15743E+04 -1.10533E+04 -2.08401E+03 -1.26930E+04  6.88953E+03 -9.44917E+03  7.56310E+03 -3.28574E+03
  5.30382E+03  2.66092E+03 -1.73145E+03  2.21924E+03 -1.31588E+03 -4.02669E+03  2.89769E+03 -7.96236E+03
  1.25569E+04 -5.98045E+03  1.72387E+04  2.42769E+03  1.64215E+04  1.22704E+04  1.04969E+04  2.21449E+04
 -5.30556E+03  2.62659E+04 -2.14660E+04  1.85643E+04 -2.80865E+04  3.71869E+03 -2.22462E+04 -9.86412E+03
 -1.10986E+04 -1.79348E+04  4.13587E+02 -1.48569E+04  6.07195E+03 -8.78261E+03  5.27000E+03 -5.77752E+03
  4.19470E+03 -3.58121E+03  4.09490E+03 -4.64627E+03  5.75417E+03 -3.75381E+03  7.88778E+03 -2.38994E+03
  1.11460E+04  1.88374E+03  6.61105E+03  9.73437E+03 -2.34516E+03  1.25022E+04 -1.21318E+04  8.88486E+03
 -1.63652E+04 -9.86365E+02 -9.84978E+03 -1.16696E+04 -1.42240E+03 -1.74192E+04  9.26894E+03 -1.75424E+04
  1.82695E+04 -9.81899E+03  2.13432E+04  2.86021E+03  1.48972E+04  1.61473E+04  2.65464E+03  1.88749E+04
 -8.98854E+03  1.51494E+04 -1.19360E+04  5.33484E+03 -7.90443E+03 -1.95553E+03 -3.85135E+03 -1.41050E+03
 -1.36927E+03 -2.05322E+02 -2.56386E+03  2.70377E+03 -6.80178E+03  2.10403E+03 -1.08005E+04 -1.16564E+03
 -8.34771E+03 -1.08281E+04  3.26260E+01 -1.58386E+04  9.38019E+03 -1.48158E+04  1.58554E+04 -4.62700E+03
  1.67262E+04  8.15983E+03  6.76959E+03  1.41350E+04 -2.78348E+03  1.53245E+04 -1.21908E+04  1.07388E+04
 -1.44723E+04  3.77733E+02 -1.08982E+04 -9.96048E+03 -2.37838E+03 -1.31690E+04  6.94635E+03 -1.03599E+04
  9.91846E+03 -2.97764E+03  8.15804E+03  2.64906E+03  2.83410E+03  4.88866E+03  1.82615E+03  1.91225E+03
  2.54348E+03  6.53274E+02  4.33046E+03  1.95781E+03  3.85476E+03  5.96653E+03  2.93277E+03  8.49773E+03
 -3.72590E+03  1.36800E+04 -1.10344E+04  1.27220E+04 -1.74905E+04  2.77773E+03 -1.71201E+04 -7.09160E+03
 -8.00761E+03 -1.71277E+04  2.31614E+03 -1.80433E+04  1.01768E+04 -1.09993E+04  1.36887E+04 -3.28028E+03
  1.03326E+04  5.65906E+03  2.18039E+03  9.92885E+03 -4.55405E+03  5.82238E+03 -6.40944E+03 -1.16029E+03
 -4.15208E+03 -7.16990E+03  3.37562E+03 -7.30694E+03  6.61498E+03 -4.36858E+03  7.62107E+03  1.27006E+03
  3.95678E+03  3.21169E+03  2.14163E+03  2.54405E+03 -1.24558E+03  1.77457E+03  1.04652E+03 -8.11444E+02
  2.86745E+03 -1.42803E+03  5.80219E+03  1.95373E+03  3.68968E+03  8.64855E+03 -8.53651E+02  1.18671E+04
 -8.04140E+03  7.64571E+03 -1.07050E+04  2.06035E+03 -9.55521E+03 -4.57812E+03 -4.64749E+03 -6.78532E+03
  1.33109E+03 -6.38581E+03  4.49228E+03 -2.80986E+03  4.08571E+03  3.14542E+03 -1.15546E+03  5.12635E+03
 -6.48420E+03  3.20722E+03 -7.38879E+03 -3.49848E+03 -4.77034E+03 -8.67162E+03  1.45050E+03 -9.92283E+03
  5.40889E+03 -5.71871E+03  6.54152E+03 -6.55364E+02  5.14708E+03  1.69575E+03  4.22420E+02  4.80589E+03
 -4.50002E+03  1.18986E+03 -4.08341E+03 -3.67775E+03  1.52156E+03 -6.42480E+03  8.14307E+03 -6.50395E+03
  1.17192E+04  1.37475E+03  1.00098E+04  6.65135E+03  3.90330E+03  1.14217E+04 -2.98169E+03  9.89795E+03
 -8.75332E+03  5.39772E+03 -9.78582E+03 -1.42353E+03 -5.49188E+03 -6.56501E+03  2.25692E+03 -6.84676E+03
  5.98606E+03 -3.39408E+03  5.12854E+03  2.59050E+03  1.47370E+03  5.98050E+03 -1.10906E+03  4.95465E+03
 -2.19875E+03  2.61684E+03 -3.07218E+03  7.90877E+02 -1.47443E+03  7.41870E+02 -2.06795E+03  2.51515E+03
 -2.94354E+03  4.48080E+03 -7.52543E+03  3.56739E+03 -1.06099E+04 -8.46088E+02 -1.22870E+04 -7.48588E+03
 -6.80217E+03 -1.48985E+04  2.52152E+03 -1.68926E+04  1.08215E+04 -1.29502E+04  1.56816E+04 -5.55088E+03
  1.48904E+04  3.38208E+03  8.40621E+03  9.34596E+03  5.46077E+02  1.08592E+04 -4.09522E+03  8.68948E+03
 -6.60309E+03  3.60327E+03 -3.49992E+03 -9.05975E+02 -1.08199E+03 -9.32199E+02 -7.53286E+02  7.73132E+01
 -1.47182E+03 -3.21535E+02 -3.42186E+03 -8.37722E+02 -7.37781E+02 -2.54169E+03  3.60041E+01 -3.67914E+03
  5.21863E+03 -3.17165E+03  6.14924E+03 -2.92476E+02  7.43697E+03  6.49121E+03  1.86751E+03  1.10298E+04
 -5.67050E+03  1.32854E+04 -1.19801E+04  7.65435E+03 -1.38117E+04 -8.19991E+02 -1.02298E+04 -8.17739E+03
 -4.78540E+03 -1.19186E+04  3.06411E+03 -1.05422E+04  6.96486E+03 -5.63066E+03  7.51562E+03 -1.85960E+02
  4.09818E+03  3.81485E+03 -9.75234E+02  3.12555E+03 -2.01195E+03 -2.12387E+01 -3.42914E+02 -2.69546E+03
  3.47586E+03 -2.01313E+03  4.50592E+03  2.28441E+03  2.41225E+03  4.59273E+03 -8.35495E+02  6.41188E+03
 -5.07889E+03  4.91131E+03 -7.69984E+03  7.76598E+02 -6.54384E+03 -4.21111E+03 -6.79828E+02 -9.38993E+03
  4.58982E+03 -7.93111E+03  8.59421E+03 -2.34524E+03  8.66434E+03  1.50875E+03  4.57696E+03  7.42184E+03
  1.54354E+03  7.99984E+03 -2.98573E+03  6.27311E+03 -4.91986E+03  3.09877E+03 -4.02980E+03  3.30136E+02
 -2.73367E+03 -1.11866E+02 -2.15128E+03  1.24396E+03 -3.24006E+03  2.65642E+03 -5.50444E+03 -1.03668E+03
 -5.28294E+03 -2.54090E+03 -1.35382E+03 -7.90019E+03  4.28818E+03 -8.02890E+03  6.53276E+03 -3.87868E+03
  7.43182E+03  1.05674E+03  5.17008E+03  6.73137E+03 -6.09334E+02  7.58083E+03 -6.14035E+03  4.67418E+03
