 $NMID ID='MM_0lb_SNR400_16hz_g55_91.RAW', FMTDAT='(8E13.5)'
 TRAMP=1., VOLUME=1. $END
  3.10313E+05  3.48556E+02  3.37681E+05  2.50743E+05  8.48508E+04  3.37932E+05 -1.32879E+05  2.51021E+05
 -1.90468E+05  8.23998E+04 -1.11587E+05 -3.30629E+04  8.58786E+02 -5.06672E+04  5.42621E+04 -3.59124E+02
  3.52554E+04  5.31063E+04 -1.67167E+04  7.54084E+04 -6.05641E+04  6.32672E+04 -8.40015E+04  3.25554E+04
 -8.08979E+04 -1.16838E+04 -5.66950E+04 -5.08152E+04 -1.51967E+04 -6.93869E+04  2.66897E+04 -4.52395E+04
  3.97480E+04  3.18932E+03  1.60978E+04  4.79386E+04 -3.43546E+04  4.71480E+04 -6.63831E+04 -3.69733E+02
 -5.33033E+04 -5.68881E+04 -6.67324E+03 -7.69963E+04  3.34134E+04 -5.43506E+04  4.81155E+04 -1.72429E+04
  4.32058E+04  1.15791E+04  3.19981E+04  2.54066E+04  1.57588E+04  2.91579E+04 -5.10078E+03  2.67180E+04
 -2.21873E+04  1.26692E+04 -1.83476E+04 -4.11625E+03  5.33605E+03 -7.34866E+03  2.16810E+04  1.25077E+04
  7.06969E+03  3.52336E+04 -3.26443E+04  3.53096E+04 -6.26863E+04  1.89826E+03 -5.67358E+04 -4.26431E+04
 -1.23064E+04 -6.30807E+04  3.98368E+04 -4.46510E+04  5.79196E+04 -2.20509E+03  3.36716E+04  3.26704E+04
 -6.23804E+03  3.53861E+04 -3.02310E+04  1.46848E+04 -2.98824E+04 -4.52367E+03 -1.60085E+04 -1.08830E+04
 -8.69450E+03 -1.24761E+04 -6.63519E+02 -1.77954E+04  7.44361E+03 -2.26732E+04  1.50086E+04 -1.40051E+04
  1.16103E+04  5.11011E+03 -7.94138E+03  1.32321E+04 -2.09250E+04 -3.70014E+03 -7.60116E+03 -3.29358E+04
  2.22539E+04 -4.27813E+04  4.73906E+04 -1.99617E+04  4.47108E+04  1.93418E+04  1.55302E+04  4.42208E+04
 -1.57232E+04  3.34840E+04 -2.53618E+04  2.29618E+03 -9.33117E+03 -2.74604E+04  2.06774E+04 -3.32754E+04
  4.02373E+04 -8.60804E+03  3.44670E+04  2.38439E+04  1.75174E+04  4.63273E+04 -8.34641E+03  4.98279E+04
 -3.13905E+04  3.23296E+04 -4.07746E+04  9.43818E+03 -4.21658E+04 -1.61566E+04 -2.31979E+04 -3.71458E+04
  7.14264E+03 -3.69751E+04  3.11800E+04 -1.44856E+04  2.88117E+04  1.14306E+04  3.99296E+03  1.86211E+04
 -1.35343E+04  7.78345E+03 -1.00293E+04 -7.35170E+03  5.86666E+03 -9.80328E+03  1.79355E+04  6.34638E+03
  1.35172E+04  2.14939E+04 -5.80959E+03  2.47152E+04 -2.22616E+04  1.16241E+04 -2.69174E+04 -5.28968E+03
 -1.95756E+04 -1.69125E+04 -7.70855E+03 -1.94109E+04  4.04026E+03 -1.91460E+04  1.48087E+04 -1.74261E+04
  2.49267E+04 -1.24691E+04  3.09236E+04  2.53388E+03  2.29229E+04  1.93868E+04  4.35622E+03  3.56632E+04
 -1.71881E+04  2.95898E+04 -2.75305E+04  1.02611E+04 -2.06665E+04 -1.01055E+04 -4.31561E+03 -1.36102E+04
  1.51404E+03 -3.13201E+03 -4.52540E+03  6.21756E+03 -1.52606E+04  5.23021E+03 -1.57683E+04 -6.58825E+03
 -9.94504E+03 -1.79382E+04  5.39973E+03 -2.21925E+04  1.46514E+04 -1.61123E+04  1.71242E+04 -1.93440E+03
  1.06825E+04  1.22586E+04 -8.03049E+02  1.81603E+04 -1.18136E+04  1.01838E+04 -1.75287E+04 -4.04129E+03
 -1.35887E+04 -1.65403E+04 -1.82432E+03 -2.20368E+04  1.00711E+04 -1.78477E+04  1.86467E+04 -8.77971E+03
  1.69612E+04  3.48409E+01  1.19427E+04  4.07680E+03  6.03851E+03  6.66943E+02  8.97308E+03 -1.37789E+03
  1.68013E+04  2.85780E+03  1.80831E+04  1.39021E+04  1.16862E+04  2.83765E+04 -3.04889E+03  3.22213E+04
 -1.86883E+04  2.50810E+04 -2.91674E+04  1.26958E+04 -3.13693E+04 -1.79400E+03 -2.58310E+04 -1.79916E+04
 -1.17282E+04 -2.58046E+04  9.06965E+03 -2.34070E+04  1.91335E+04 -1.21783E+04  1.82892E+04  4.72116E+03
  7.38834E+03  1.32760E+04 -8.37960E+03  1.20539E+04 -1.54038E+04  2.69252E+03 -1.13892E+04 -9.23809E+03
  3.37816E+01 -1.46233E+04  7.33964E+03 -1.07254E+04  9.48743E+03 -8.35959E+02  2.30615E+03  6.46298E+03
 -6.56940E+03  1.43533E+03 -5.05179E+03 -5.44739E+03 -4.29742E+02 -1.26245E+04  9.12221E+03 -1.26680E+04
  1.54100E+04 -6.80918E+03  1.63406E+04  2.93723E+03  1.41335E+04  1.20189E+04  7.00528E+03  1.80637E+04
 -1.68469E+03  2.05061E+04 -1.26891E+04  1.27280E+04 -1.46882E+04  3.75558E+03 -1.03922E+04 -3.20015E+03
 -5.50067E+03 -5.08705E+03 -1.01324E+03  1.01439E+03 -2.18137E+03  2.06607E+03 -5.13416E+03  4.35101E+03
 -9.36358E+03 -3.15585E+02 -1.09237E+04 -8.41680E+03 -3.87950E+03 -1.37410E+04  4.00984E+03 -1.00109E+04
  8.78926E+03 -4.62809E+03  6.08238E+03  2.65046E+03  5.68629E+02  3.68500E+03 -4.79274E+03 -2.67716E+02
 -4.67541E+03 -6.45756E+03 -1.58689E+03 -8.92021E+03  5.25450E+03 -1.01555E+04  1.21230E+04 -5.80289E+03
  1.47527E+04  6.81831E+02  1.10547E+04  7.84127E+03  3.01739E+03  1.16016E+04 -6.39031E+03  9.84387E+03
 -8.14779E+03  3.13482E+03 -4.35789E+03 -1.84845E+03  1.76588E+03 -2.60863E+03  5.05091E+03 -9.44494E+02
  5.34696E+03  4.51922E+03  9.31361E+02  7.95888E+03 -5.66935E+03  8.03749E+03 -9.78799E+03  1.51617E+03
 -6.20638E+03 -4.89230E+03 -1.00735E+02 -8.17043E+03  5.37799E+03 -3.69532E+03  5.04356E+03  1.52389E+03
  7.38783E+02  5.29581E+03 -5.56081E+03  6.25010E+03 -6.84349E+03  2.96226E+03 -6.83513E+03 -2.21050E+03
 -4.15669E+03 -8.43307E+03  1.79033E+03 -9.20491E+03  8.55439E+03 -6.29126E+03  8.76667E+03  1.35033E+03
  5.65597E+03  7.20717E+03 -2.88287E+02  9.22423E+03 -6.37367E+03  5.17504E+03 -6.86792E+03 -1.82544E+02
 -6.91372E+03 -6.00612E+03 -7.59529E+02 -6.72819E+03  3.12719E+03 -5.83349E+03  4.52375E+03 -3.25861E+03
  3.46646E+03  6.86603E+01 -2.60979E+01  1.25155E+03  7.77206E+02 -4.30374E+02  6.70818E+02 -3.16187E+03
  5.53070E+03 -1.85102E+03  7.35555E+03  1.81617E+03  7.85932E+03  4.79153E+03  6.47445E+03  9.34999E+03
 -2.32905E+03  1.18590E+04 -1.07444E+04  8.89979E+03 -1.33487E+04  1.95307E+03 -1.12809E+04 -3.72938E+03
 -5.70407E+03 -9.25580E+03 -3.43028E+02 -7.48019E+03  3.24374E+03 -3.25104E+03  2.15658E+03 -3.05260E+03
  1.17784E+03 -1.74005E+03  2.34345E+03 -2.39390E+03  3.73691E+03 -1.74162E+03  5.61747E+03 -1.40514E+02
  5.87482E+03  1.22397E+03  2.30838E+03  4.26863E+03 -1.77638E+03  4.94384E+03 -5.87127E+03  4.11901E+03
 -7.13071E+03 -9.43563E+02 -3.33631E+03 -5.33636E+03  5.57704E+02 -7.64379E+03  4.21985E+03 -7.83112E+03
  7.72204E+03 -4.48172E+03  9.41410E+03  1.00592E+03  6.39049E+03  6.10504E+03  1.55634E+03  8.92021E+03
 -2.97216E+03  7.45168E+03 -4.85918E+03  2.76242E+03 -3.15166E+03 -1.08069E+03 -7.58920E+02 -6.68752E+02
 -5.49190E+02  6.23210E+02 -1.22224E+03  2.44805E+03 -2.65970E+03  1.46715E+03 -5.60738E+03 -6.03402E+02
 -2.72479E+03 -5.36270E+03  8.72245E+02 -6.36066E+03  4.39484E+03 -6.46988E+03  5.93255E+03 -2.35165E+03
  6.22620E+03  2.85753E+03  2.65617E+03  5.12181E+03 -1.06011E+03  6.88906E+03 -4.20057E+03  4.70650E+03
 -5.69929E+03  8.86803E+02 -5.06167E+03 -3.85615E+03 -7.80651E+02 -4.78531E+03  2.22572E+03 -3.58643E+03
  3.50750E+03 -1.81788E+03  2.31887E+03  5.56490E+02  1.44959E+03  2.25478E+03  7.86236E+02  1.36619E+03
  2.16786E+03  6.20380E+02  1.20902E+03  8.72206E+02  1.65171E+03  3.19208E+03  2.07894E+03  3.10083E+03
 -1.97387E+03  4.67685E+03 -4.04540E+03  6.23836E+03 -5.55353E+03  1.33629E+03 -6.07486E+03 -1.54331E+03
 -2.92366E+03 -5.10813E+03  7.60065E+02 -7.26513E+03  2.76331E+03 -4.04577E+03  4.99622E+03 -1.59698E+03
  3.41478E+03  2.25632E+03  6.91000E+02  3.06962E+03 -9.05138E+02  1.75130E+03 -2.31526E+03 -2.37077E+02
 -1.17185E+03 -2.32692E+03  1.68903E+03 -2.31028E+03  1.71601E+03 -1.70507E+03  2.45033E+03  2.59807E+02
  1.15448E+03  5.47061E+02  8.79765E+02  4.40237E+02 -4.83181E+02  9.57085E+02  8.41658E+02 -5.01713E+01
  3.75372E+02 -7.20080E+02  2.56795E+03  9.12689E+02  6.93172E+02  2.88608E+03 -7.67876E+02  3.91147E+03
 -2.81610E+03  2.11115E+03 -3.69937E+03  3.59638E+02 -3.08852E+03 -1.16249E+03 -9.33174E+02 -1.40402E+03
  6.00634E+02 -2.03394E+03  1.55484E+03 -6.97178E+02  9.45821E+02  1.33169E+03 -1.08502E+03  1.86962E+03
 -2.36701E+03  1.44971E+03 -1.85983E+03 -1.76848E+03 -1.41555E+03 -3.76734E+03  8.68210E+01 -2.41320E+03
  9.66155E+02 -1.65618E+03  1.55538E+03  1.66820E+02  2.36724E+03  5.56859E+02  6.47601E+01  1.93444E+03
 -7.70807E+02 -1.77538E+02 -1.33510E+03 -4.56313E+02  6.03323E+02 -1.59906E+03  3.36359E+03 -1.26463E+03
  2.35923E+03  5.64761E+02  3.67050E+03  1.15912E+03  8.23098E+02  2.36861E+03 -9.21179E+02  2.99049E+03
 -1.91323E+03  8.94969E+02 -2.93164E+03  3.54889E+01 -1.28608E+03 -2.05846E+03  4.76478E+02 -1.53450E+03
  2.15336E+03 -7.28274E+02  1.39556E+03  1.02680E+03  2.05774E+02  1.98319E+03 -4.49517E+02  1.64498E+03
 -6.72920E+02  9.46036E+02 -8.36583E+02  3.10424E+02  3.69598E+02  6.41925E+02 -1.02156E+03  1.12753E+03
 -1.23627E+03  9.88616E+02 -2.83604E+03  8.95196E+02 -2.96592E+03  4.15388E+02 -3.73925E+03 -2.01123E+03
 -1.91519E+03 -3.34435E+03  1.29916E+03 -4.36247E+03  1.99365E+03 -3.71099E+03  4.57932E+03 -9.33669E+02
  4.53303E+03  3.67591E+02  1.53460E+03  2.60656E+03 -3.07639E+02  2.35797E+03 -8.56182E+02  1.74956E+03
 -1.40139E+03  8.67584E+02 -8.09009E+02 -4.80873E+02 -3.17030E+02  2.58712E+02 -2.62603E+02 -2.39799E+01
 -1.08874E+03 -3.11575E+01 -1.42420E+03  7.25435E+02  3.75496E+02 -7.87020E+01  3.03567E+02 -1.50777E+03
  1.86435E+03 -1.08169E+03  1.08878E+03 -3.20241E+02  2.73857E+03  1.44328E+03  1.75833E+02  2.57405E+03
 -1.46877E+03  3.29519E+03 -2.94964E+03  2.11629E+03 -3.12725E+03  3.97211E+01 -2.03181E+03 -2.69642E+03
 -1.75153E+03 -2.93954E+03  4.31167E+02 -2.13959E+03  1.75678E+03 -5.99093E+02  1.53390E+03 -6.10956E+02
  1.57292E+03 -4.18603E+01 -1.46819E+01  5.90743E+02 -1.22992E+02 -4.37734E+01  1.17720E+02 -2.55308E+02
  4.45874E+02 -8.56863E+01  9.65878E+02  4.90863E+02  5.92775E+02  1.38773E+03  4.83585E+02  8.71628E+02
 -1.24568E+03  8.60158E+02 -1.34410E+03  6.48346E+02 -1.59107E+03 -8.04315E+02 -2.01729E+02 -1.86769E+03
  7.80938E+02 -1.25395E+03  1.08459E+03 -4.16681E+01  1.20281E+03 -1.09045E+02  1.08095E+03  1.37010E+03
  3.72607E+02  1.78673E+03 -1.95975E+02  1.50653E+03 -4.04259E+02  1.04193E+03 -8.26771E+02  3.08959E+02
 -2.55253E+02 -5.72768E+02 -7.36434E+02  4.07885E+02 -1.06887E+03  1.33981E+02 -1.30761E+03  4.80183E+01
 -1.24764E+03  7.69745E+01  4.73506E+02 -1.95732E+03  7.48961E+02 -2.16665E+03  7.87455E+02 -3.21028E+02
  9.17284E+02  2.05059E+02  1.71453E+02  6.03801E+02 -4.58666E+02  1.55742E+03 -1.19736E+03  1.72888E+03
