 $NMID ID='MM_0lb_SNR400_8hz_g60_30.RAW', FMTDAT='(8E13.5)'
 TRAMP=1., VOLUME=1. $END
  3.10155E+05  1.06156E+03  3.37184E+05  2.50642E+05  8.45260E+04  3.37515E+05 -1.32601E+05  2.52818E+05
 -1.91353E+05  8.35058E+04 -1.13139E+05 -3.25782E+04 -8.25660E+01 -5.06632E+04  5.45748E+04 -8.15990E+01
  3.55532E+04  5.24478E+04 -1.68944E+04  7.68236E+04 -6.07652E+04  6.53647E+04 -8.59572E+04  3.24633E+04
 -8.29257E+04 -1.08606E+04 -5.75110E+04 -5.15842E+04 -1.52141E+04 -7.14926E+04  2.81155E+04 -4.79740E+04
  4.20715E+04  4.32119E+03  1.68496E+04  4.92328E+04 -3.50724E+04  4.76088E+04 -6.82378E+04  8.85098E+02
 -5.58235E+04 -5.85464E+04 -8.93449E+03 -8.00669E+04  3.50046E+04 -5.79034E+04  5.13758E+04 -1.93336E+04
  4.64277E+04  1.14805E+04  3.44662E+04  2.70192E+04  1.57227E+04  3.14421E+04 -6.97510E+03  2.84229E+04
 -2.23019E+04  1.14795E+04 -1.76300E+04 -6.11677E+03  7.71541E+03 -6.97679E+03  2.32371E+04  1.48625E+04
  6.33793E+03  3.80678E+04 -3.38382E+04  3.71929E+04 -6.68384E+04  2.25437E+03 -5.98155E+04 -4.58972E+04
 -1.23135E+04 -6.71673E+04  4.23018E+04 -4.78036E+04  6.20955E+04 -3.07917E+03  3.77647E+04  3.45007E+04
 -5.40855E+03  4.25947E+04 -3.26400E+04  2.06875E+04 -3.45233E+04 -2.68093E+03 -2.02290E+04 -1.28708E+04
 -1.03407E+04 -1.56081E+04 -3.80372E+01 -2.05182E+04  8.86118E+03 -2.41306E+04  1.67860E+04 -1.19909E+04
  9.11274E+03  6.98463E+03 -1.10018E+04  1.31034E+04 -2.45224E+04 -7.24605E+03 -8.88049E+03 -3.89451E+04
  2.70412E+04 -4.78888E+04  5.39045E+04 -2.14276E+04  4.99479E+04  2.14421E+04  1.79261E+04  4.83198E+04
 -1.68489E+04  3.67591E+04 -2.84285E+04  3.40693E+03 -1.23483E+04 -2.98632E+04  2.15077E+04 -3.83260E+04
  4.59358E+04 -1.27190E+04  4.31494E+04  2.51333E+04  2.32277E+04  5.37746E+04 -8.13845E+03  5.79204E+04
 -3.71754E+04  4.01357E+04 -4.97743E+04  1.21378E+04 -5.05785E+04 -1.97130E+04 -2.73557E+04 -4.44892E+04
  7.97881E+03 -4.38293E+04  3.60341E+04 -1.79467E+04  3.34345E+04  1.18737E+04  5.58058E+03  2.12816E+04
 -1.32397E+04  9.87396E+03 -1.13742E+04 -8.04774E+03  5.60474E+03 -1.13878E+04  1.90315E+04  6.49047E+03
  1.54462E+04  2.31945E+04 -4.87976E+03  2.77468E+04 -2.42393E+04  1.47576E+04 -3.32858E+04 -1.93041E+03
 -2.84458E+04 -1.78216E+04 -1.29201E+04 -2.69120E+04  4.91213E+03 -2.76947E+04  2.10669E+04 -2.50785E+04
  3.40376E+04 -1.59270E+04  3.99854E+04  5.10642E+03  2.87414E+04  2.61625E+04  5.13215E+03  4.30281E+04
 -2.00919E+04  3.59974E+04 -3.13197E+04  1.27879E+04 -2.32874E+04 -1.00561E+04 -5.27993E+03 -1.30527E+04
 -3.27386E+01  2.02630E+02 -8.61006E+03  9.20766E+03 -2.28602E+04  4.64372E+03 -2.07397E+04 -1.13597E+04
 -1.34468E+04 -2.50935E+04  6.75180E+03 -3.00687E+04  1.92898E+04 -2.04242E+04  2.46476E+04 -1.13837E+03
  1.59281E+04  1.68872E+04 -2.23158E+03  2.52160E+04 -1.86161E+04  1.49544E+04 -2.49390E+04 -5.52246E+03
 -1.89825E+04 -2.32243E+04 -2.32976E+03 -3.00526E+04  1.42158E+04 -2.58487E+04  2.49412E+04 -1.37121E+04
  2.45356E+04  3.18214E+02  1.75707E+04  5.81447E+03  9.84409E+03  1.45114E+03  1.34724E+04 -2.15486E+03
  2.40642E+04  2.63816E+03  2.90029E+04  1.98169E+04  1.98830E+04  4.11452E+04 -2.73004E+03  4.82334E+04
 -2.63092E+04  4.06587E+04 -4.58064E+04  2.16901E+04 -4.93958E+04 -4.64328E+03 -3.98333E+04 -2.95178E+04
 -1.48218E+04 -4.15376E+04  1.41798E+04 -3.56505E+04  2.98942E+04 -1.57982E+04  2.61173E+04  7.70902E+03
  8.88044E+03  2.03441E+04 -1.38006E+04  1.58023E+04 -2.25691E+04  2.20835E+03 -1.65103E+04 -1.42980E+04
 -1.01853E+02 -2.11356E+04  1.16065E+04 -1.58661E+04  1.41981E+04 -6.16921E+02  3.61351E+03  9.98606E+03
 -9.65270E+03  5.14516E+03 -1.08436E+04 -7.01570E+03 -2.44912E+03 -1.96807E+04  1.41149E+04 -2.15613E+04
  2.50236E+04 -1.22654E+04  2.93155E+04  3.52329E+03  2.60394E+04  2.00225E+04  1.14732E+04  3.37701E+04
 -6.48817E+03  3.59319E+04 -2.26537E+04  2.09681E+04 -2.52541E+04  4.67327E+03 -1.77269E+04 -7.26600E+03
 -6.51437E+03 -8.36674E+03 -3.96811E+02  1.62934E+02 -3.15107E+03  4.21347E+03 -8.63451E+03  5.45510E+03
 -1.56703E+04 -3.63125E+02 -1.69272E+04 -1.28663E+04 -7.04789E+03 -2.07530E+04  7.10148E+03 -1.77444E+04
  1.51852E+04 -7.16713E+03  9.45015E+03  5.26252E+03  4.30914E+02  7.05764E+03 -9.33514E+03 -2.68427E+02
 -8.00688E+03 -1.13946E+04 -1.36420E+03 -1.72718E+04  9.77676E+03 -1.94577E+04  2.20635E+04 -1.03406E+04
  2.64187E+04  2.37383E+03  1.92136E+04  1.69700E+04  3.24329E+03  2.14949E+04 -1.11619E+04  1.69619E+04
 -1.38781E+04  5.26173E+03 -7.53082E+03 -4.58461E+03  2.02377E+03 -5.50782E+03  8.97635E+03 -1.53850E+03
  7.47448E+03  7.73260E+03  8.72442E+02  1.36119E+04 -1.03885E+04  1.33370E+04 -1.79035E+04  1.98193E+03
 -1.18247E+04 -1.00369E+04 -5.54438E+02 -1.55153E+04  9.90960E+03 -7.92052E+03  1.07799E+04  3.35025E+03
  2.93269E+03  1.16530E+04 -9.09989E+03  1.45431E+04 -1.63759E+04  5.72892E+03 -1.64976E+04 -5.72497E+03
 -9.62132E+03 -1.89936E+04  4.72134E+03 -2.11956E+04  1.79074E+04 -1.34271E+04  1.84783E+04  3.75032E+03
  1.07093E+04  1.52687E+04 -2.65529E+03  1.80498E+04 -1.32340E+04  9.77802E+03 -1.51763E+04 -2.40113E+03
 -1.18265E+04 -1.18259E+04 -2.14209E+03 -1.43908E+04  8.33885E+03 -1.19461E+04  8.97999E+03 -3.57041E+03
  5.57032E+03  2.13862E+03 -1.86864E+03  2.07428E+03 -1.14754E+03 -4.38046E+03  3.46128E+03 -9.06619E+03
  1.29703E+04 -5.23289E+03  1.93350E+04  2.64579E+03  1.82474E+04  1.39078E+04  1.19435E+04  2.42094E+04
 -6.08955E+03  2.83208E+04 -2.24645E+04  2.15581E+04 -3.02265E+04  3.97475E+03 -2.34655E+04 -1.08496E+04
 -1.17583E+04 -1.92215E+04  2.04737E+02 -1.66815E+04  6.09917E+03 -1.06504E+04  6.30663E+03 -6.18883E+03
  4.56086E+03 -4.42001E+03  3.89329E+03 -4.46844E+03  6.28036E+03 -3.54230E+03  9.54957E+03 -1.44978E+03
  1.23215E+04  3.07108E+03  7.25531E+03  1.04621E+04 -2.49985E+03  1.41271E+04 -1.38844E+04  9.28819E+03
 -1.79728E+04 -4.54751E+02 -1.15687E+04 -1.21942E+04 -1.99505E+03 -2.01651E+04  1.13420E+04 -1.90508E+04
  2.00386E+04 -1.12107E+04  2.36821E+04  3.06485E+03  1.65621E+04  1.67887E+04  1.62183E+03  2.04823E+04
 -8.99080E+03  1.71581E+04 -1.25785E+04  6.54057E+03 -9.09924E+03 -9.43724E+02 -3.86749E+03 -2.10198E+03
 -2.02153E+03  9.11700E+01 -2.62395E+03  3.58891E+03 -6.01267E+03  2.71652E+03 -1.13320E+04 -1.39611E+03
 -8.81466E+03 -1.18939E+04 -3.63361E+02 -1.74619E+04  1.02981E+04 -1.66397E+04  1.82751E+04 -4.78053E+03
  1.75014E+04  8.74934E+03  7.91664E+03  1.63318E+04 -3.13664E+03  1.75243E+04 -1.29126E+04  1.06711E+04
 -1.76882E+04  2.46941E+02 -1.40829E+04 -9.61839E+03 -1.54309E+03 -1.52498E+04  7.65544E+03 -1.14552E+04
  1.15874E+04 -3.71233E+03  7.89630E+03  3.12840E+03  2.80355E+03  4.92624E+03  1.80417E+03  2.08306E+03
  2.64962E+03  1.09919E+03  4.54452E+03  2.21365E+03  5.39941E+03  5.59028E+03  4.74040E+03  1.03334E+04
 -2.76948E+03  1.39630E+04 -1.34915E+04  1.42920E+04 -1.94564E+04  4.07357E+03 -1.98922E+04 -7.42542E+03
 -1.01563E+04 -1.81844E+04  2.67000E+03 -2.04225E+04  1.11859E+04 -1.33650E+04  1.51576E+04 -2.84633E+03
  1.19207E+04  6.99302E+03  2.42131E+03  9.97347E+03 -5.58754E+03  7.03374E+03 -7.84347E+03 -1.35658E+03
 -4.11984E+03 -8.21005E+03  3.72328E+03 -8.93458E+03  7.44263E+03 -4.15331E+03  8.07544E+03  1.00700E+03
  3.11118E+03  5.09190E+03  1.80114E+03  3.48897E+03 -1.61476E+03  2.42051E+03  1.82978E+03 -7.98443E+02
  2.82482E+03 -1.12366E+03  8.48918E+03  2.18424E+03  5.04372E+03  1.05897E+04 -1.43852E+03  1.29662E+04
 -8.86003E+03  8.68358E+03 -1.18796E+04  2.67818E+03 -1.15566E+04 -4.83018E+03 -4.19931E+03 -7.68497E+03
  2.06957E+03 -6.82371E+03  4.48557E+03 -4.37249E+03  4.11702E+03  4.00832E+03 -2.05646E+03  5.57527E+03
 -7.21899E+03  3.84089E+03 -9.38930E+03 -3.52340E+03 -5.05757E+03 -9.71230E+03  1.35764E+03 -1.12160E+04
  5.92379E+03 -6.40107E+03  7.55159E+03 -3.51985E+02  7.06263E+03  2.55247E+03  8.13089E+02  5.73284E+03
 -5.02683E+03  1.07636E+03 -4.79788E+03 -4.28616E+03  1.38386E+03 -8.04996E+03  9.58927E+03 -6.56574E+03
  1.24159E+04  1.14725E+03  1.15143E+04  9.06602E+03  4.30233E+03  1.25848E+04 -4.11183E+03  1.21961E+04
 -1.03012E+04  5.21313E+03 -1.06163E+04 -9.89083E+02 -6.36767E+03 -7.84805E+03  1.58285E+03 -8.21444E+03
  8.03803E+03 -3.98661E+03  6.48583E+03  4.08974E+03  1.92865E+03  7.50024E+03 -7.29427E+02  5.10004E+03
 -3.02447E+03  3.10926E+03 -2.46406E+03  1.58537E+03 -1.31715E+03  6.80733E+02 -2.29149E+03  2.99251E+03
 -3.10362E+03  5.25946E+03 -8.30725E+03  4.85089E+03 -1.27655E+04  4.50781E+02 -1.36495E+04 -8.04320E+03
 -7.92297E+03 -1.77607E+04  2.61949E+03 -2.01295E+04  1.31755E+04 -1.42817E+04  1.89007E+04 -5.12145E+03
  1.78381E+04  2.76293E+03  1.04159E+04  1.20994E+04  1.07708E+03  1.24505E+04 -5.73488E+03  9.82115E+03
 -7.91329E+03  3.55999E+03 -4.54590E+03 -9.00250E+02 -6.49296E+02 -1.75408E+03 -6.80301E+02 -2.99953E+02
 -1.98828E+03 -9.68451E+01 -3.35790E+03 -2.08436E+02 -1.56968E+03 -3.25681E+03 -5.25272E+02 -5.37209E+03
  5.89603E+03 -4.56635E+03  8.41660E+03 -6.87815E+01  8.94177E+03  7.38117E+03  2.38635E+03  1.41031E+04
 -7.52112E+03  1.60277E+04 -1.41650E+04  9.51934E+03 -1.65805E+04 -6.88123E+02 -1.15706E+04 -1.05297E+04
 -4.58343E+03 -1.44774E+04  3.59736E+03 -1.27954E+04  9.10523E+03 -7.43786E+03  9.57005E+03  1.69054E+02
  4.66595E+03  4.54987E+03 -1.40131E+03  4.33507E+03 -2.92702E+03 -5.14953E+02  3.76473E+02 -3.45775E+03
  3.97644E+03 -2.44395E+03  5.93025E+03  1.67906E+03  3.68621E+03  5.77143E+03 -1.23140E+02  7.73300E+03
 -5.94457E+03  5.54561E+03 -9.61451E+03  5.80736E+02 -8.47962E+03 -6.38552E+03 -1.27061E+03 -1.14514E+04
  7.56083E+03 -9.94998E+03  1.11599E+04 -2.80097E+03  1.04975E+04  2.84537E+03  6.38644E+03  7.91427E+03
  1.13580E+03  9.01507E+03 -3.71484E+03  8.87284E+03 -5.31165E+03  3.82310E+03 -4.70675E+03 -4.06387E+01
 -2.45139E+03 -3.88412E+00 -2.51300E+03  1.37652E+03 -4.77318E+03  1.42796E+03 -7.26460E+03 -1.10133E+03
 -6.44257E+03 -6.04577E+03 -1.48211E+03 -8.49183E+03  4.81762E+03 -1.01396E+04  7.48939E+03 -3.89994E+03
  9.85302E+03  6.22456E+02  5.05420E+03  7.05945E+03 -7.19340E+02  9.84313E+03 -8.13021E+03  6.57815E+03
