 $NMID ID='MM_0lb_SNR400_16hz_g50_37.RAW', FMTDAT='(8E13.5)'
 TRAMP=1., VOLUME=1. $END
  3.09617E+05  4.43593E+02  3.37707E+05  2.50042E+05  8.46929E+04  3.37968E+05 -1.32701E+05  2.51094E+05
 -1.90454E+05  8.29348E+04 -1.11606E+05 -3.24530E+04  1.18107E+03 -5.08771E+04  5.37788E+04  1.22948E+02
  3.57731E+04  5.29627E+04 -1.72154E+04  7.54123E+04 -6.07353E+04  6.32505E+04 -8.41845E+04  3.16925E+04
 -8.00205E+04 -1.10266E+04 -5.69803E+04 -5.05714E+04 -1.48174E+04 -6.95898E+04  2.74399E+04 -4.57270E+04
  3.96194E+04  3.92682E+03  1.55575E+04  4.73651E+04 -3.43316E+04  4.68107E+04 -6.60586E+04 -2.07158E+02
 -5.29971E+04 -5.67688E+04 -6.12017E+03 -7.63476E+04  3.34396E+04 -5.44087E+04  4.75714E+04 -1.69309E+04
  4.27988E+04  1.13045E+04  3.11647E+04  2.51591E+04  1.55830E+04  2.89768E+04 -4.63473E+03  2.75220E+04
 -2.17528E+04  1.26013E+04 -1.87872E+04 -4.49363E+03  5.28901E+03 -7.47867E+03  2.23708E+04  1.20065E+04
  7.56202E+03  3.43961E+04 -3.22880E+04  3.48513E+04 -6.25337E+04  2.21529E+03 -5.66654E+04 -4.22765E+04
 -1.21414E+04 -6.26641E+04  3.89689E+04 -4.46572E+04  5.72578E+04 -2.23725E+03  3.31457E+04  3.14309E+04
 -5.99329E+03  3.54913E+04 -2.97411E+04  1.53722E+04 -2.98438E+04 -5.13742E+03 -1.62141E+04 -1.00880E+04
 -7.68148E+03 -1.21510E+04 -8.84291E+02 -1.74649E+04  7.51907E+03 -2.30822E+04  1.48932E+04 -1.36346E+04
  1.16111E+04  4.50824E+03 -7.44024E+03  1.35058E+04 -2.08181E+04 -3.75652E+03 -8.40145E+03 -3.28174E+04
  2.20270E+04 -4.32158E+04  4.67520E+04 -1.93894E+04  4.43503E+04  1.94060E+04  1.49005E+04  4.30315E+04
 -1.55107E+04  3.26408E+04 -2.46492E+04  1.73805E+03 -9.58437E+03 -2.75123E+04  2.05213E+04 -3.29590E+04
  4.00455E+04 -8.18404E+03  3.36426E+04  2.33198E+04  1.72212E+04  4.52729E+04 -7.62463E+03  4.79938E+04
 -3.06759E+04  3.21755E+04 -4.03395E+04  9.84148E+03 -4.11531E+04 -1.58784E+04 -2.28729E+04 -3.68481E+04
  6.94867E+03 -3.62050E+04  3.02758E+04 -1.37211E+04  2.82560E+04  1.04899E+04  3.47308E+03  1.82418E+04
 -1.36740E+04  7.73933E+03 -1.04817E+04 -8.23664E+03  5.67036E+03 -1.05909E+04  1.73941E+04  6.17947E+03
  1.35542E+04  2.21381E+04 -6.09103E+03  2.40120E+04 -2.25345E+04  1.06690E+04 -2.70685E+04 -5.12674E+03
 -1.95552E+04 -1.64097E+04 -7.12416E+03 -1.89848E+04  4.25461E+03 -1.78935E+04  1.45452E+04 -1.69309E+04
  2.40334E+04 -1.22048E+04  3.09458E+04  2.46844E+03  2.31831E+04  1.88768E+04  3.76018E+03  3.46746E+04
 -1.71962E+04  2.94984E+04 -2.70171E+04  9.44676E+03 -2.04240E+04 -1.07397E+04 -4.56101E+03 -1.36803E+04
  2.07956E+03 -3.31738E+03 -4.48086E+03  6.16089E+03 -1.46671E+04  5.05522E+03 -1.53737E+04 -6.16456E+03
 -1.00431E+04 -1.77833E+04  4.68221E+03 -2.17839E+04  1.42603E+04 -1.55231E+04  1.69596E+04 -8.88866E+02
  1.08552E+04  1.18519E+04 -1.15171E+03  1.74632E+04 -1.20792E+04  9.43851E+03 -1.80270E+04 -3.77068E+03
 -1.28886E+04 -1.55288E+04 -1.55686E+03 -2.08244E+04  9.58799E+03 -1.73254E+04  1.79057E+04 -7.93229E+03
  1.69115E+04  9.39683E+02  1.17752E+04  4.53125E+03  5.50939E+03  1.11784E+03  8.43091E+03 -1.10796E+03
  1.60143E+04  2.72670E+03  1.72418E+04  1.43966E+04  1.10361E+04  2.79298E+04 -2.14498E+03  3.12116E+04
 -1.87396E+04  2.51105E+04 -2.81101E+04  1.23812E+04 -3.01480E+04 -1.54194E+03 -2.48873E+04 -1.73292E+04
 -1.16275E+04 -2.48105E+04  8.75952E+03 -2.24306E+04  1.91386E+04 -1.17613E+04  1.77293E+04  4.59338E+03
  7.14765E+03  1.32022E+04 -8.25685E+03  1.21537E+04 -1.54697E+04  2.51047E+03 -1.12530E+04 -9.24776E+03
  1.78038E+02 -1.39924E+04  7.23881E+03 -1.02780E+04  9.35263E+03 -1.12998E+03  1.78602E+03  5.45167E+03
 -6.40776E+03  2.30786E+03 -5.21483E+03 -4.94617E+03 -4.82088E+02 -1.21936E+04  9.00481E+03 -1.20720E+04
  1.42739E+04 -6.54483E+03  1.56020E+04  2.83028E+03  1.27855E+04  1.16150E+04  6.29983E+03  1.79680E+04
 -2.33256E+03  1.94591E+04 -1.25034E+04  1.25436E+04 -1.40702E+04  3.59127E+03 -1.00542E+04 -3.10773E+03
 -5.09401E+03 -4.23687E+03  1.44806E+02  1.13204E+03 -2.21379E+03  2.37597E+03 -4.69755E+03  4.29869E+03
 -9.43260E+03 -8.25976E+02 -1.03312E+04 -8.28845E+03 -3.64935E+03 -1.28649E+04  3.83544E+03 -1.06052E+04
  9.22658E+03 -4.56327E+03  6.12192E+03  2.67683E+03  5.49370E+02  3.96660E+03 -4.19271E+03  2.25012E+02
 -4.38053E+03 -6.05125E+03 -3.35105E+02 -9.51138E+03  4.65220E+03 -9.59455E+03  1.20470E+04 -5.08307E+03
  1.42022E+04  8.85152E+02  1.07937E+04  7.45624E+03  2.20362E+03  1.15014E+04 -5.72504E+03  9.62214E+03
 -8.53828E+03  2.60434E+03 -4.29307E+03 -2.04875E+03  1.42135E+03 -2.24992E+03  5.64877E+03 -1.30128E+03
  4.62092E+03  4.55213E+03  9.77941E+02  8.03847E+03 -5.73423E+03  7.50308E+03 -9.22042E+03  1.76647E+03
 -5.86297E+03 -4.21918E+03 -4.43675E+02 -8.27170E+03  5.24548E+03 -4.22573E+03  4.95609E+03  1.80118E+03
  9.49387E+02  4.68677E+03 -4.43678E+03  6.03306E+03 -6.65017E+03  2.66719E+03 -6.11353E+03 -1.82237E+03
 -3.96288E+03 -8.62884E+03  2.16458E+03 -9.34116E+03  7.73407E+03 -5.96485E+03  8.31768E+03  1.90222E+03
  5.49549E+03  6.80063E+03 -2.72912E+02  9.02904E+03 -6.73978E+03  4.99401E+03 -6.19349E+03 -5.65153E+02
 -6.77500E+03 -6.67491E+03 -1.67043E+03 -6.30156E+03  3.25823E+03 -5.07556E+03  4.28867E+03 -3.40251E+03
  3.27919E+03  6.66142E+02  1.83617E+02  1.35910E+03  4.37624E+02 -8.83123E+02  1.08362E+03 -3.35510E+03
  5.33165E+03 -1.45443E+03  7.58363E+03  1.45146E+03  7.60721E+03  4.67400E+03  6.32424E+03  9.89161E+03
 -2.10078E+03  1.14882E+04 -9.78595E+03  8.62585E+03 -1.31592E+04  1.44497E+03 -1.03355E+04 -3.24309E+03
 -5.73658E+03 -8.57624E+03  1.31807E+02 -6.76577E+03  2.71564E+03 -3.48695E+03  2.33392E+03 -2.09850E+03
  1.49692E+03 -1.68972E+03  2.49563E+03 -2.78018E+03  4.30738E+03 -2.07211E+03  4.37861E+03 -1.48759E+02
  5.69642E+03  1.31694E+03  2.02296E+03  5.03512E+03 -1.51187E+03  4.25135E+03 -5.46313E+03  3.73766E+03
 -6.38690E+03 -6.65335E+02 -3.01564E+03 -4.59599E+03  1.92290E+02 -7.55865E+03  4.07769E+03 -7.49102E+03
  7.09674E+03 -3.77617E+03  8.92313E+03  3.46918E+02  6.15103E+03  5.73859E+03  1.34503E+03  7.56411E+03
 -2.64300E+03  7.28915E+03 -4.67988E+03  1.91741E+03 -2.96845E+03 -8.03453E+02 -1.50332E+03 -2.62942E+02
 -5.82389E+02  1.40312E+02 -1.01467E+03  1.87661E+03 -3.44208E+03  9.88146E+02 -4.69595E+03 -3.06884E+02
 -2.72079E+03 -5.30106E+03  2.35191E+02 -6.56000E+03  3.69029E+03 -5.85231E+03  5.36944E+03 -1.79762E+03
  5.75495E+03  3.11653E+03  2.34276E+03  4.76427E+03 -6.88296E+02  6.44474E+03 -4.52838E+03  3.72879E+03
 -5.66393E+03  6.97091E+02 -4.80815E+03 -3.85013E+03 -2.16764E+02 -4.64050E+03  2.78356E+03 -3.24955E+03
  4.05110E+03 -1.49137E+03  2.17512E+03  8.11752E+02  5.29402E+02  1.85538E+03  1.31604E+03  6.58240E+02
  1.70012E+03  9.12336E+02  1.29820E+03  1.32880E+03  1.96979E+03  2.92936E+03  1.77665E+03  2.94080E+03
 -1.61085E+03  4.09914E+03 -3.18461E+03  5.76800E+03 -5.16637E+03  1.42726E+03 -6.04389E+03 -1.33880E+03
 -2.74125E+03 -5.64524E+03  1.11743E+03 -6.26929E+03  2.83311E+03 -4.11589E+03  4.57979E+03 -1.18254E+03
  3.95212E+03  2.02516E+03  1.23985E+03  2.90569E+03 -1.90632E+03  1.39977E+03 -1.78053E+03 -2.78466E+02
 -4.28201E+02 -2.25080E+03  1.94900E+03 -2.36290E+03  1.75532E+03 -9.50875E+02  2.23675E+03  7.94270E+02
  1.29718E+03  1.16971E+03  1.04732E+03  2.49517E+02 -6.02644E+02  1.14394E+03  1.78876E+03 -3.73011E+02
  4.68775E+02  1.86232E+02  2.47760E+03  7.69301E+02  8.66521E+02  2.88226E+03 -1.94783E+02  3.83811E+03
 -2.27709E+03  2.36525E+03 -3.66000E+03  1.06209E+01 -2.76265E+03 -1.12800E+03 -6.43097E+02 -2.06323E+03
  2.59411E+02 -2.27428E+03  9.39621E+02 -7.69263E+02  8.75913E+02  1.65143E+03 -1.10147E+03  1.49331E+03
 -1.55926E+03  8.66145E+02 -1.98983E+03 -1.52525E+03 -9.43159E+02 -3.10504E+03  2.11084E+02 -2.31603E+03
  1.41416E+03 -8.31987E+02  1.96471E+03  1.64227E+02  1.73465E+03  3.11074E+02  2.02794E+02  1.42619E+03
 -6.23481E+02  5.16539E+02 -1.20187E+03 -1.37232E+02  8.94035E+02 -1.88973E+03  2.69212E+03 -1.89623E+03
  2.29809E+03  4.66609E+02  3.84719E+03  1.58977E+03  1.25571E+03  3.19963E+03 -2.63556E+02  2.65824E+03
 -2.40100E+03  9.33367E+02 -2.56698E+03  3.59549E+02 -1.29405E+03 -1.98168E+03  1.56397E+02 -1.42505E+03
  2.09263E+03 -6.34630E+02  1.03389E+03  1.21509E+03  3.27873E+02  1.62583E+03  2.53047E+02  1.75714E+03
 -5.09738E+02  8.00036E+02 -3.52490E+02  8.45870E+01 -2.47517E+02  6.06002E+02 -3.52775E+02  9.34466E+02
 -1.24607E+03  1.29716E+03 -2.36895E+03  9.07598E+02 -2.91432E+03  3.53574E+02 -3.86477E+03 -1.71120E+03
 -1.44916E+03 -3.53040E+03  1.66828E+03 -4.95465E+03  2.17029E+03 -3.49451E+03  4.34346E+03 -1.26133E+03
  3.56700E+03  1.17377E+02  2.31450E+03  2.37835E+03 -1.28001E+03  2.55005E+03 -3.62992E+02  1.77786E+03
 -1.26460E+03  1.31988E+03 -6.79759E+02  7.37449E+00 -5.52550E+02  3.34809E+02 -1.52384E+02 -2.58016E+02
 -1.17548E+03 -3.65626E+02 -1.38579E+03 -1.17806E+02  3.98891E+02 -9.68252E+02  1.82148E+02 -1.51178E+03
  2.03072E+03 -8.32292E+02  9.83561E+02 -1.63149E+02  1.90115E+03  1.96658E+03  7.17416E+01  2.30063E+03
 -1.77605E+03  3.66687E+03 -2.68638E+03  1.68453E+03 -2.54331E+03 -6.18849E+02 -2.53263E+03 -1.80674E+03
 -1.46326E+03 -2.51031E+03  7.82541E+02 -2.15527E+03  1.42379E+03 -1.35159E+03  1.60309E+03 -2.94355E+01
  1.30914E+03  1.08265E+03  1.06376E+02  1.13232E+02 -1.68431E+02 -9.67714E+01  2.34699E+02 -6.12622E+02
  6.98781E+02  1.56860E+02  4.47189E+02  7.37017E+02  1.22179E+02  6.45688E+02  2.29833E+02  8.79097E+02
 -1.38154E+03  1.09423E+03 -1.14350E+03  6.94459E+02 -2.05233E+03 -8.21378E+02 -2.40311E+02 -2.40503E+03
  1.94034E+03 -1.49987E+03  9.32890E+02 -1.55142E+02  1.66996E+03 -5.53353E+02  5.15753E+02  1.61361E+03
  4.04290E+02  1.34949E+03 -9.50358E+02  1.41268E+03 -7.79935E+02  8.14655E+02 -2.84636E+02  1.25579E+02
 -8.82354E+02 -1.53613E+02 -7.01447E+02 -5.65723E+01 -7.99791E+02  7.33103E+01 -1.68614E+03 -3.35066E+02
 -2.00648E+03 -2.19141E+02 -6.26173E+02 -1.54320E+03  1.38135E+03 -2.21901E+03  1.60873E+03 -2.50293E+02
  1.80084E+03  1.48441E+02 -3.72571E+02  5.89570E+02 -3.06127E+01  1.58287E+03 -9.89166E+02  1.14103E+03
