 $NMID ID='MM_0lb_SNR400_17hz_g50_87.RAW', FMTDAT='(8E13.5)'
 TRAMP=1., VOLUME=1. $END
  3.09829E+05  3.49035E+02  3.37452E+05  2.50584E+05  8.48060E+04  3.37250E+05 -1.32520E+05  2.50350E+05
 -1.89590E+05  8.30938E+04 -1.11464E+05 -3.28290E+04  1.51105E+03 -4.97907E+04  5.30872E+04  6.28714E+00
  3.52451E+04  5.31980E+04 -1.67422E+04  7.48459E+04 -6.03894E+04  6.30009E+04 -8.29385E+04  3.21586E+04
 -8.01708E+04 -1.10935E+04 -5.68138E+04 -5.11330E+04 -1.46410E+04 -6.86901E+04  2.69194E+04 -4.49980E+04
  3.99308E+04  4.10543E+03  1.57684E+04  4.73284E+04 -3.43133E+04  4.70485E+04 -6.65343E+04 -9.49409E+02
 -5.26803E+04 -5.62901E+04 -6.19729E+03 -7.55937E+04  3.30250E+04 -5.43365E+04  4.74559E+04 -1.62542E+04
  4.22560E+04  1.07551E+04  3.11511E+04  2.52354E+04  1.55437E+04  2.86038E+04 -5.55458E+03  2.67973E+04
 -2.15995E+04  1.29119E+04 -1.91272E+04 -4.05215E+03  4.62501E+03 -7.26151E+03  2.14976E+04  1.18762E+04
  6.78502E+03  3.39588E+04 -3.15574E+04  3.47296E+04 -6.23802E+04  1.81526E+03 -5.62087E+04 -4.18157E+04
 -1.22901E+04 -6.15979E+04  3.87776E+04 -4.48602E+04  5.64318E+04 -2.17777E+03  3.30405E+04  3.12671E+04
 -6.22052E+03  3.47411E+04 -2.91003E+04  1.43636E+04 -2.89544E+04 -4.72963E+03 -1.51323E+04 -1.04962E+04
 -7.71003E+03 -1.18376E+04 -6.27057E+02 -1.75419E+04  7.12225E+03 -2.23661E+04  1.53439E+04 -1.36505E+04
  1.23715E+04  4.59807E+03 -6.51739E+03  1.25687E+04 -2.02771E+04 -3.66708E+03 -8.58321E+03 -3.18766E+04
  2.12451E+04 -4.22043E+04  4.62601E+04 -1.90395E+04  4.30179E+04  1.86817E+04  1.56381E+04  4.22244E+04
 -1.59217E+04  3.18315E+04 -2.40418E+04  1.14896E+03 -9.45746E+03 -2.65997E+04  2.06244E+04 -3.16446E+04
  3.92146E+04 -7.99301E+03  3.33483E+04  2.29814E+04  1.66630E+04  4.40747E+04 -8.73868E+03  4.67375E+04
 -2.98486E+04  3.14475E+04 -3.85992E+04  8.47163E+03 -3.96898E+04 -1.53357E+04 -2.23664E+04 -3.60083E+04
  6.71402E+03 -3.61809E+04  3.00084E+04 -1.38093E+04  2.82424E+04  1.08431E+04  3.28055E+03  1.83196E+04
 -1.33271E+04  7.43064E+03 -1.01705E+04 -7.04460E+03  6.29600E+03 -9.63609E+03  1.77781E+04  6.28700E+03
  1.25066E+04  2.20080E+04 -6.69056E+03  2.37543E+04 -2.16960E+04  1.01494E+04 -2.59719E+04 -5.32629E+03
 -1.84586E+04 -1.70768E+04 -6.39096E+03 -1.82299E+04  3.94703E+03 -1.59548E+04  1.39839E+04 -1.65966E+04
  2.33835E+04 -1.21137E+04  2.96862E+04  1.60492E+03  2.21716E+04  1.69557E+04  3.74968E+03  3.40793E+04
 -1.64444E+04  2.92823E+04 -2.68572E+04  9.89378E+03 -2.01783E+04 -9.91931E+03 -3.66246E+03 -1.35915E+04
  1.75481E+03 -3.29594E+03 -4.13802E+03  5.88702E+03 -1.44345E+04  5.25426E+03 -1.48388E+04 -5.85693E+03
 -9.08774E+03 -1.67322E+04  4.37602E+03 -2.07492E+04  1.38220E+04 -1.45899E+04  1.61705E+04 -1.36704E+03
  9.99360E+03  1.14505E+04 -1.05497E+03  1.73857E+04 -1.14931E+04  9.84585E+03 -1.69775E+04 -3.53990E+03
 -1.21079E+04 -1.53266E+04 -1.60804E+03 -2.05413E+04  9.28920E+03 -1.70951E+04  1.72272E+04 -7.98569E+03
  1.61427E+04  6.96294E+02  1.15955E+04  4.11496E+03  5.89026E+03  2.51393E+02  7.69615E+03 -1.45614E+03
  1.57482E+04  3.12424E+03  1.61628E+04  1.34362E+04  1.03826E+04  2.72515E+04 -2.99681E+03  2.92564E+04
 -1.69235E+04  2.30814E+04 -2.74815E+04  1.11744E+04 -2.76963E+04 -2.51707E+03 -2.38927E+04 -1.55432E+04
 -1.05437E+04 -2.25588E+04  7.97345E+03 -2.16942E+04  1.89050E+04 -1.10255E+04  1.68692E+04  4.19370E+03
  6.46289E+03  1.22107E+04 -7.27772E+03  1.16668E+04 -1.43093E+04  2.53275E+03 -1.10408E+04 -8.44921E+03
 -4.78615E+02 -1.29114E+04  6.63946E+03 -1.07135E+04  8.18763E+03 -1.29065E+03  2.15530E+03  5.70708E+03
 -5.93466E+03  2.08291E+03 -4.20677E+03 -4.28774E+03 -3.52581E+02 -1.15577E+04  8.26337E+03 -1.16392E+04
  1.36055E+04 -6.05930E+03  1.42913E+04  2.82187E+03  1.23211E+04  1.10805E+04  5.54157E+03  1.62416E+04
 -2.00613E+03  1.76131E+04 -1.08161E+04  1.16909E+04 -1.26136E+04  3.55168E+03 -9.21282E+03 -2.68258E+03
 -4.44472E+03 -4.43176E+03 -9.66332E+02  1.44719E+03 -1.65071E+03  2.41793E+03 -3.94609E+03  3.88361E+03
 -8.67228E+03 -1.84593E+02 -9.22433E+03 -7.81685E+03 -4.34493E+03 -1.26725E+04  3.92797E+03 -9.02488E+03
  7.85341E+03 -4.62308E+03  5.71590E+03  2.37626E+03  1.96588E+02  3.75779E+03 -4.48247E+03  5.25914E+01
 -4.06105E+03 -5.99228E+03 -1.21161E+03 -8.11850E+03  4.96057E+03 -9.31727E+03  1.13197E+04 -4.42467E+03
  1.34251E+04  9.54465E+02  9.72627E+03  7.33228E+03  1.65609E+03  1.01294E+04 -5.58632E+03  8.94719E+03
 -7.53465E+03  3.05824E+03 -3.87062E+03 -5.49517E+02  1.43299E+03 -1.85496E+03  4.75958E+03 -1.47835E+03
  4.74176E+03  3.25945E+03  4.55801E+02  7.34019E+03 -4.69360E+03  6.74483E+03 -9.44023E+03  2.25924E+03
 -5.61194E+03 -4.15827E+03 -2.14126E+01 -7.41993E+03  4.32810E+03 -3.81577E+03  3.68958E+03  1.74883E+03
  1.04282E+03  3.64992E+03 -4.80156E+03  5.71995E+03 -5.71873E+03  3.09730E+03 -5.79847E+03 -2.06924E+03
 -4.12735E+03 -7.42133E+03  1.40685E+03 -7.97414E+03  7.63039E+03 -5.31671E+03  7.84339E+03  1.59439E+03
  5.46553E+03  6.64561E+03  3.38176E+00  8.22885E+03 -6.31748E+03  4.90130E+03 -6.21855E+03 -9.81977E+02
 -6.78020E+03 -6.02039E+03 -1.53208E+03 -5.92807E+03  2.97052E+03 -5.23619E+03  3.78838E+03 -3.14940E+03
  2.59959E+03  4.59627E+02 -1.80516E+02  1.72435E+03  5.87305E+02 -7.22924E+02  2.14219E+02 -2.39437E+03
  5.34536E+03 -1.20428E+03  6.07842E+03  7.27428E+02  6.29700E+03  4.11011E+03  5.16235E+03  9.07725E+03
 -1.76449E+03  1.03805E+04 -8.73131E+03  7.82587E+03 -1.18197E+04  1.89566E+03 -9.38262E+03 -3.60429E+03
 -4.78365E+03 -7.74155E+03 -1.09592E+03 -6.14807E+03  2.23788E+03 -2.72329E+03  1.21457E+03 -2.30288E+03
  1.79745E+03 -1.77746E+03  2.96994E+03 -2.88215E+03  3.48890E+03 -1.77988E+03  3.37598E+03  1.03461E+02
  5.73110E+03  9.92451E+02  1.59343E+03  3.49755E+03 -1.81773E+03  3.69797E+03 -5.19238E+03  3.47035E+03
 -6.01147E+03 -2.90245E+02 -2.28027E+03 -3.82902E+03 -1.27323E+02 -6.59049E+03  3.57338E+03 -6.27928E+03
  6.66086E+03 -4.03689E+03  7.75011E+03  1.94777E+02  5.65665E+03  4.61631E+03  1.32027E+03  7.43147E+03
 -2.44737E+03  6.84316E+03 -4.04768E+03  2.26444E+03 -2.58179E+03 -9.30500E+02 -1.03047E+03 -8.15287E+01
 -4.63846E+02  2.83238E+02 -1.32120E+03  1.69766E+03 -3.14138E+03  1.52911E+03 -4.60301E+03 -5.78400E+02
 -2.27605E+03 -4.28945E+03  6.33409E+02 -5.79819E+03  3.68307E+03 -5.00979E+03  4.21349E+03 -1.31174E+03
  5.04402E+03  3.69164E+03  2.46169E+03  3.95914E+03 -7.09105E+02  5.35550E+03 -3.38408E+03  3.52180E+03
 -4.79120E+03  3.49819E+02 -3.68550E+03 -3.04939E+03 -2.87324E+02 -3.87644E+03  2.06058E+03 -2.89037E+03
  3.18974E+03 -1.78370E+03  1.99260E+03  7.65445E+02  7.76872E+02  2.01598E+03  1.33948E+03  6.45427E+02
  1.82445E+03  9.13681E+02  1.58506E+03  1.27589E+03  1.52349E+03  2.16630E+03  1.35871E+03  2.59878E+03
 -1.20880E+03  3.58182E+03 -3.23044E+03  4.74212E+03 -4.55097E+03  1.86907E+03 -5.19384E+03 -7.23180E+02
 -2.50706E+03 -5.02095E+03  1.14142E+03 -5.66229E+03  2.69794E+03 -3.09011E+03  3.62960E+03 -7.68068E+02
  3.41499E+03  2.14210E+03  3.79700E+02  2.60237E+03 -9.69180E+02  1.95734E+03 -1.48853E+03  4.73292E+01
 -2.99795E+02 -2.32872E+03  1.21821E+03 -2.39695E+03  1.31003E+03 -1.59071E+03  1.37061E+03  6.81360E+02
  1.31884E+03  5.01744E+02  4.29949E+02 -1.00478E+01 -2.63894E+02  5.25688E+02  2.00623E+03 -2.33420E+02
  3.94443E+02 -1.98564E+02  2.17368E+03  4.44941E+02  6.27448E+02  2.68671E+03 -1.09766E+03  3.41006E+03
 -1.80442E+03  1.10463E+03 -2.84682E+03  5.68206E+02 -2.50233E+03 -1.38581E+03 -7.83942E+02 -1.46491E+03
  4.38989E+02 -1.89589E+03  9.96772E+02 -1.14821E+03  1.27598E+03  1.41616E+03 -5.06970E+02  2.05963E+03
 -2.49798E+03  9.58274E+02 -2.48899E+03 -1.75952E+03 -1.19763E+03 -2.85364E+03  5.98270E+02 -1.95988E+03
  1.09091E+03 -7.68418E+02  1.35261E+03  6.09839E+02  1.63096E+03 -8.06608E+01 -3.36914E+02  1.08114E+03
 -3.53744E+02  4.55955E+02 -1.26952E+03 -2.91676E+02  3.81632E+02 -4.83577E+02  2.13547E+03 -1.53823E+03
  2.09137E+03  2.03693E+02  2.87408E+03  1.54859E+03  1.16431E+03  2.38571E+03 -4.68426E+02  2.17593E+03
 -1.74239E+03 -2.49985E+02 -1.96643E+03  1.06041E+02 -1.62196E+03 -1.58253E+03  5.68476E+02 -7.75378E+02
  1.95235E+03 -1.05747E+03  1.54894E+03  5.90553E+02  7.35001E+02  1.83658E+03  2.03564E+02  1.90730E+03
 -3.46445E+02  1.50037E+03 -1.25605E+03  8.61783E+02 -2.89773E+02  2.54247E+02 -6.41036E+02  5.14933E+02
 -1.12603E+03  1.37840E+03 -2.66470E+03  4.83620E+02 -1.97569E+03  8.40170E+01 -2.39489E+03 -9.97056E+02
 -8.03809E+02 -3.49796E+03 -4.37583E+02 -3.43690E+03  1.56866E+03 -2.89637E+03  3.29724E+03 -1.43189E+03
  3.33000E+03 -3.16623E+02  1.62373E+03  2.30865E+03 -4.81027E+02  2.31623E+03 -3.04301E+02  1.74950E+03
 -1.04097E+03  1.03214E+03 -7.37823E+02  3.07062E+02 -7.39037E+02  1.55420E+02 -6.27058E+02 -2.44609E+02
 -1.29533E+03  1.45901E+02 -1.26211E+03 -1.91262E+02 -1.42041E+01 -1.12011E+03 -2.45271E+02 -8.77364E+02
  1.09273E+03 -3.75069E+02  9.74716E+02  5.61957E+02  1.81223E+03  1.43423E+03 -1.01397E+02  2.31184E+03
 -1.52567E+03  2.79742E+03 -2.20291E+03  1.60580E+03 -2.49167E+03 -3.32172E+02 -1.66337E+03 -1.29200E+03
 -1.53318E+03 -1.75738E+03  4.50785E+02 -2.04567E+03  1.15200E+03 -9.21143E+02  1.14545E+03  3.07031E+02
  5.35351E+02  3.68101E+02  1.06864E+02  4.39826E+02 -6.23239E+02  1.85116E+02 -6.03863E+02 -4.11040E+02
  3.57463E+02 -3.38161E+02  1.16085E+03  1.85019E+02  1.60974E+02  6.30198E+02  2.97960E+02  8.02325E+02
 -1.66129E+03  7.33646E+02 -8.15842E+02  3.68969E+02 -1.22806E+03 -6.03829E+02  2.48152E+02 -1.85740E+03
  7.88791E+02 -7.52691E+02  5.19447E+02  5.72718E+02  1.42325E+03 -6.13222E+02  9.01800E+02  5.08679E+02
  2.33565E+01  1.00572E+03 -1.52128E+02  7.82937E+01 -6.99358E+02  9.35465E+02 -8.91439E+01  7.57880E+02
 -2.22708E+02  3.23912E+02 -1.79133E+02  2.40620E+02 -7.58360E+01 -5.20533E+01 -7.28071E+02 -1.96692E+02
 -1.02657E+03 -2.71145E+02 -1.13363E+03 -1.62789E+03  9.25354E+02 -2.36184E+03  1.11953E+03 -1.42141E+02
  4.10957E+02  3.56280E+02  1.34700E+02  2.21386E+02  7.22561E+01  2.04598E+03 -8.85717E+02  1.33168E+03
