 $NMID ID='MM_0lb_SNR400_19hz_g40_85.RAW', FMTDAT='(8E13.5)'
 TRAMP=1., VOLUME=1. $END
  3.10036E+05 -3.22468E+02  3.37213E+05  2.50129E+05  8.42507E+04  3.37512E+05 -1.32236E+05  2.50192E+05
 -1.89639E+05  8.23346E+04 -1.10836E+05 -3.24500E+04  1.98773E+03 -5.01589E+04  5.40491E+04  3.01946E+02
  3.46329E+04  5.28744E+04 -1.71481E+04  7.48581E+04 -6.00871E+04  6.20379E+04 -8.23475E+04  3.14734E+04
 -7.91178E+04 -1.08618E+04 -5.54464E+04 -5.00131E+04 -1.53491E+04 -6.76800E+04  2.67301E+04 -4.48300E+04
  3.91224E+04  3.65375E+03  1.54313E+04  4.69046E+04 -3.38283E+04  4.61582E+04 -6.52571E+04 -1.03917E+03
 -5.16434E+04 -5.58870E+04 -6.03637E+03 -7.45278E+04  3.26309E+04 -5.24644E+04  4.57613E+04 -1.60774E+04
  4.13157E+04  1.11422E+04  3.05921E+04  2.39173E+04  1.54134E+04  2.79551E+04 -4.40128E+03  2.67496E+04
 -2.16567E+04  1.26140E+04 -1.94800E+04 -4.00938E+03  3.51448E+03 -7.21316E+03  2.05176E+04  1.06407E+04
  7.50308E+03  3.27241E+04 -2.95964E+04  3.36942E+04 -6.07819E+04  1.55131E+03 -5.48041E+04 -4.03985E+04
 -1.29632E+04 -6.00852E+04  3.77422E+04 -4.28963E+04  5.41680E+04 -1.98225E+03  3.16710E+04  3.03416E+04
 -6.36753E+03  3.25329E+04 -2.83408E+04  1.24333E+04 -2.70808E+04 -5.86288E+03 -1.33896E+04 -9.60739E+03
 -7.42095E+03 -1.05259E+04 -1.18238E+03 -1.59272E+04  6.25278E+03 -2.29337E+04  1.51546E+04 -1.40928E+04
  1.25373E+04  4.28247E+03 -5.99290E+03  1.30727E+04 -1.91259E+04 -1.26419E+03 -7.88946E+03 -2.92521E+04
  1.99209E+04 -3.97255E+04  4.39819E+04 -1.85318E+04  4.10865E+04  1.74263E+04  1.43773E+04  4.03764E+04
 -1.51078E+04  3.04754E+04 -2.29678E+04  6.20004E+02 -8.09860E+03 -2.62771E+04  2.02629E+04 -3.04389E+04
  3.66321E+04 -7.02548E+03  3.08044E+04  2.19932E+04  1.45486E+04  4.15464E+04 -7.80261E+03  4.37314E+04
 -2.75438E+04  2.89268E+04 -3.59301E+04  7.49446E+03 -3.69367E+04 -1.41965E+04 -2.06350E+04 -3.36522E+04
  6.50953E+03 -3.26307E+04  2.90617E+04 -1.25010E+04  2.57594E+04  1.07099E+04  2.94259E+03  1.72239E+04
 -1.29288E+04  6.45122E+03 -9.24825E+03 -7.26853E+03  6.33586E+03 -9.99159E+03  1.70838E+04  6.31147E+03
  1.20077E+04  2.15996E+04 -6.92058E+03  2.31666E+04 -2.10275E+04  8.59735E+03 -2.41474E+04 -7.09852E+03
 -1.52469E+04 -1.58767E+04 -5.20844E+03 -1.57724E+04  3.83945E+03 -1.33053E+04  1.19467E+04 -1.31729E+04
  1.98090E+04 -1.13248E+04  2.72618E+04  8.37627E+02  2.03881E+04  1.52100E+04  3.66220E+03  3.11818E+04
 -1.59778E+04  2.69177E+04 -2.51002E+04  9.35967E+03 -1.98722E+04 -9.91889E+03 -3.57542E+03 -1.36948E+04
  2.74767E+03 -4.11695E+03 -1.53586E+03  4.98756E+03 -1.22522E+04  5.44878E+03 -1.26612E+04 -4.41168E+03
 -8.21639E+03 -1.44379E+04  4.23686E+03 -1.78719E+04  1.23457E+04 -1.35013E+04  1.37270E+04 -1.45610E+03
  8.31220E+03  1.06472E+04 -2.97927E+02  1.48116E+04 -9.34150E+03  8.81080E+03 -1.44054E+04 -3.41653E+03
 -1.08895E+04 -1.34809E+04 -1.40243E+03 -1.79982E+04  7.97191E+03 -1.44616E+04  1.54499E+04 -6.63129E+03
  1.37418E+04  3.08776E+02  1.03839E+04  3.52423E+03  4.75377E+03  2.13720E+02  6.96448E+03 -1.16729E+03
  1.28319E+04  2.18500E+03  1.35614E+04  1.23908E+04  8.88863E+03  2.30079E+04 -2.95888E+03  2.53442E+04
 -1.47019E+04  1.91300E+04 -2.27395E+04  8.87746E+03 -2.30122E+04 -1.84388E+03 -2.03590E+04 -1.30665E+04
 -9.76112E+03 -1.83296E+04  6.20312E+03 -1.72580E+04  1.54874E+04 -1.05592E+04  1.51537E+04  3.25515E+03
  6.73980E+03  1.06971E+04 -6.66393E+03  9.86592E+03 -1.28195E+04  2.44223E+03 -9.91927E+03 -6.92955E+03
  4.38908E+02 -1.15102E+04  5.76153E+03 -9.01707E+03  7.23833E+03 -7.58760E+02  8.12499E+02  4.46629E+03
 -4.98483E+03  1.46106E+03 -3.22123E+03 -4.29236E+03  9.07163E+02 -9.75390E+03  7.39152E+03 -8.84323E+03
  1.15920E+04 -4.19112E+03  1.08230E+04  2.06234E+03  8.79942E+03  8.78982E+03  4.77002E+03  1.31525E+04
 -1.37521E+03  1.44920E+04 -8.79297E+03  9.56838E+03 -1.04461E+04  2.64366E+03 -7.86067E+03 -1.25638E+03
 -4.30052E+03 -3.31203E+03 -4.00469E+02  9.90871E+02 -1.97339E+03  1.98302E+03 -3.16852E+03  3.23495E+03
 -8.42556E+03 -6.37000E+01 -8.31498E+03 -6.69453E+03 -3.07034E+03 -1.12900E+04  3.40445E+03 -7.96609E+03
  6.93495E+03 -3.53907E+03  5.49579E+03  2.31265E+03  6.22170E+02  2.59628E+03 -3.12874E+03 -3.34052E+02
 -3.07905E+03 -4.54933E+03 -1.29610E+03 -7.04598E+03  4.04562E+03 -7.33908E+03  9.29024E+03 -3.71299E+03
  1.07490E+04  1.60626E+02  8.10728E+03  5.02173E+03  1.34053E+03  7.65985E+03 -5.21258E+03  8.66098E+03
 -6.62037E+03  2.42235E+03 -3.38434E+03 -5.63022E+02  1.15036E+03 -1.78307E+03  4.03159E+03 -1.33652E+03
  3.99684E+03  3.08472E+03  9.66049E+02  5.76219E+03 -4.40737E+03  6.59382E+03 -7.19986E+03  1.40208E+03
 -4.52701E+03 -3.11145E+03  6.23335E+02 -5.99351E+03  3.15145E+03 -3.18455E+03  3.31518E+03  6.04037E+02
  2.92395E+02  2.98818E+03 -3.84238E+03  4.09929E+03 -3.95388E+03  2.32230E+03 -3.86900E+03 -8.42439E+02
 -3.06019E+03 -5.52923E+03  1.26414E+03 -6.39379E+03  5.20317E+03 -3.45570E+03  6.17030E+03  8.79845E+02
  4.47453E+03  4.52465E+03  2.55457E+02  6.64166E+03 -4.75065E+03  4.30192E+03 -4.69382E+03 -5.84804E+02
 -5.19296E+03 -4.87409E+03 -9.59048E+02 -4.48856E+03  2.39384E+03 -4.19066E+03  2.66563E+03 -3.31695E+03
  2.67558E+03 -7.56995E+01  1.94457E+02  1.15667E+03  5.63345E+02  2.05114E+01 -3.84901E+01 -1.74025E+03
  3.61543E+03 -4.79739E+02  4.65620E+03  4.23463E+02  5.07954E+03  2.32675E+03  5.71051E+03  6.43668E+03
 -1.04990E+03  8.10032E+03 -7.48885E+03  5.68378E+03 -9.35333E+03  6.62404E+02 -7.17442E+03 -2.54481E+03
 -3.75566E+03 -5.97462E+03 -3.88886E+02 -4.48773E+03  1.83731E+03 -2.46545E+03  9.35207E+02 -1.98434E+03
  1.15191E+03 -1.11234E+03  2.46626E+03 -2.06925E+03  3.35666E+03 -1.01893E+03  3.44015E+03  4.52986E+02
  4.36039E+03  7.51044E+02  1.25941E+03  3.18342E+03 -1.23275E+03  2.27199E+03 -3.52373E+03  2.53900E+03
 -4.32081E+03 -5.14468E+02 -1.78989E+03 -2.82042E+03  7.13761E+02 -4.86855E+03  3.13748E+03 -4.84181E+03
  4.60215E+03 -3.18389E+03  6.20285E+03 -2.00570E+02  4.66388E+03  4.35896E+03  9.92903E+02  5.51389E+03
 -1.73261E+03  5.31046E+03 -3.02544E+03  2.06651E+03 -9.41494E+02 -4.86708E+02 -6.24327E+02 -1.45287E+03
 -1.23792E+02  1.73585E+02 -1.03138E+03  1.90917E+03 -2.15700E+03  1.10979E+03 -3.95497E+03 -9.65737E+01
 -1.52364E+03 -3.93673E+03  1.10354E+03 -4.13294E+03  2.67300E+03 -3.79103E+03  3.04097E+03 -1.01502E+03
  3.97115E+03  2.88448E+03  1.60544E+03  2.79204E+03 -6.38085E+02  3.76936E+03 -2.68633E+03  2.73761E+03
 -3.59242E+03  9.03083E+02 -3.22560E+03 -1.87996E+03  3.41585E+02 -2.84522E+03  1.56701E+03 -1.89277E+03
  2.55129E+03 -1.85041E+03  1.86529E+03  2.83541E+02  5.17676E+02  1.43215E+03  6.42238E+02  5.41520E+02
  1.52308E+03  1.45291E+02  1.27637E+03  6.06993E+02  1.31221E+03  1.76541E+03  1.16434E+03  1.55138E+03
 -1.59793E+03  3.04611E+03 -2.30746E+03  4.19573E+03 -2.54399E+03  1.20522E+03 -3.14008E+03 -6.54970E+02
 -1.25392E+03 -3.34791E+03  5.68639E+02 -4.94469E+03  1.63776E+03 -1.98269E+03  2.29992E+03 -9.95552E+01
  2.14763E+03  1.90022E+03  3.97157E+02  1.73325E+03 -7.84303E+02  1.60430E+03 -1.02728E+03  2.12880E+02
 -7.65138E+02 -1.44399E+03  1.05304E+03 -1.36950E+03  1.25402E+03 -9.76984E+02  1.32707E+03  7.93207E+02
  8.55389E+02  3.22572E+02  9.13682E+02 -2.65594E+02 -2.91938E+01  1.07464E+03  1.69768E+03 -2.55302E+02
 -5.23855E+02 -3.07703E+02  1.93625E+03  7.24016E+02  6.40602E+02  2.41926E+03  8.95430E+01  2.62801E+03
 -1.64435E+03  9.44617E+02 -1.41610E+03  7.74638E+01 -1.98248E+03 -1.08003E+03  9.81305E+01 -3.49361E+02
  2.36131E+02 -1.05699E+03  1.12624E+03 -4.37259E+02  4.82358E+02  1.18424E+03 -9.53769E+02  1.50616E+03
 -1.50382E+03  5.86288E+02 -1.69094E+03 -1.01248E+03 -8.04533E+02 -1.54887E+03  2.05338E+02 -1.17626E+03
  4.71439E+02 -1.78533E+02  3.83843E+02  6.13052E+02  1.32438E+03 -3.29830E+02  2.64891E+01  1.00292E+03
 -3.95594E+02  1.11097E+02 -6.00610E+02 -7.60178E+02  6.13979E+02 -6.08958E+02  1.53361E+03 -4.40306E+02
  1.22368E+03 -1.03704E+02  2.62988E+03  3.50698E+02  1.27852E+03  1.09618E+03  1.67316E+02  1.46943E+03
 -8.29539E+02  3.69263E+02 -1.56415E+03 -3.18794E+01 -6.28421E+02 -1.21791E+03  2.67167E+02 -4.49471E+02
  1.71424E+03 -3.66954E+02  5.15334E+02  2.65470E+02  9.24134E+01  1.04470E+03  6.75827E+02  1.16306E+03
 -9.08448E+01  1.44117E+03 -1.07930E+02  1.85625E+02  6.02432E+02  6.91100E+02 -6.49219E+02  7.89480E+02
 -1.12223E+03  9.29423E+02 -1.28280E+03  8.13702E+02 -1.24128E+03  6.17412E+01 -2.36229E+03 -1.29793E+03
 -1.61761E+03 -1.90428E+03  6.35813E+02 -2.63205E+03  4.47063E+02 -2.08922E+03  2.39115E+03 -9.28962E+02
  2.33054E+03 -3.20836E+02  7.39965E+02  9.27822E+02 -1.63665E+02  1.46369E+03 -7.21984E+02  1.27589E+03
 -5.95075E+02  1.02795E+03 -9.26451E+01 -2.64828E+02 -4.01104E+02  6.48339E+02 -1.19991E+03 -4.68114E+02
 -1.10509E+03  5.52367E+02 -9.80578E+02 -5.40425E+02  4.26549E+02 -7.59078E+02 -2.26012E+02 -1.45515E+03
  1.04110E+03 -5.64561E+02 -1.54009E+02  2.62041E+02  1.36590E+03  1.49489E+03 -4.77496E+01  1.18537E+03
 -9.54295E+02  2.12583E+03 -1.40317E+03  1.28883E+03 -1.20072E+03 -5.53412E+01 -1.20990E+03 -1.73309E+03
 -8.44485E+02 -1.48569E+03 -3.95490E+01 -8.27917E+02  1.38249E+02 -8.65510E+02  8.65967E+02  4.13749E+02
  5.20830E+02  4.87330E+01  3.96140E+02  8.08654E+00 -2.36734E+02  2.26198E+02 -4.25246E+02  1.37073E+00
  7.64563E+02  1.42288E+02  5.66827E+02  9.17856E+02  4.69554E+02  3.24274E+02  9.59697E+02  6.27507E+02
 -4.75975E+02  2.25856E+02 -4.28477E+02 -5.18873E+01 -7.16971E+02 -6.96207E+02 -6.67348E+01 -1.03422E+03
  5.50817E+02 -5.76056E+02  8.07047E+02 -1.44603E+02  2.64520E+02 -1.76012E+02 -3.87757E+02  6.92355E+02
  6.99655E+02  3.63377E+02 -4.51325E+02  6.24733E+02 -5.24199E+02  6.07691E+02 -2.42974E+02 -1.96492E+02
 -1.13569E+02 -1.59314E+02 -4.76698E+02 -3.06389E+01 -5.08203E+02 -6.39565E+02 -9.65599E+02 -1.56621E+02
 -8.95060E+02 -1.64872E+02  2.64268E+02 -7.09450E+02  8.88852E+02 -1.34916E+03  1.21235E+03  1.90049E+02
  7.31262E+01  1.61485E+01 -5.93068E+02  8.68176E+01 -3.02623E+02  7.95689E+02 -5.67854E+02  9.29013E+02
