 $NMID ID='MM_0lb_SNR400_18hz_g50_89.RAW', FMTDAT='(8E13.5)'
 TRAMP=1., VOLUME=1. $END
  3.09001E+05  3.97358E+02  3.37097E+05  2.50634E+05  8.38376E+04  3.37747E+05 -1.32670E+05  2.50549E+05
 -1.90186E+05  8.27748E+04 -1.11403E+05 -3.25844E+04  1.47874E+03 -5.03146E+04  5.37626E+04 -4.51193E+02
  3.47131E+04  5.31742E+04 -1.64309E+04  7.53614E+04 -6.05624E+04  6.30402E+04 -8.37205E+04  3.14278E+04
 -8.01752E+04 -1.08844E+04 -5.65098E+04 -5.05853E+04 -1.49021E+04 -6.83766E+04  2.66998E+04 -4.48680E+04
  3.90566E+04  4.15651E+03  1.51921E+04  4.68939E+04 -3.38200E+04  4.63176E+04 -6.52456E+04  7.62846E+01
 -5.19546E+04 -5.48930E+04 -6.65550E+03 -7.58465E+04  3.31936E+04 -5.36260E+04  4.67385E+04 -1.64532E+04
  4.24755E+04  1.12260E+04  3.12397E+04  2.48734E+04  1.57365E+04  2.88782E+04 -4.87742E+03  2.73525E+04
 -2.19725E+04  1.29013E+04 -1.85400E+04 -4.37945E+03  4.21715E+03 -7.62996E+03  2.14331E+04  1.14775E+04
  7.31464E+03  3.40235E+04 -3.12528E+04  3.43249E+04 -6.17560E+04  1.99170E+03 -5.55610E+04 -4.13091E+04
 -1.20866E+04 -6.11743E+04  3.83632E+04 -4.32613E+04  5.56563E+04 -1.71614E+03  3.25782E+04  3.07192E+04
 -5.99861E+03  3.39874E+04 -2.88437E+04  1.43303E+04 -2.84174E+04 -4.91393E+03 -1.49303E+04 -1.00373E+04
 -7.76920E+03 -1.21908E+04 -1.66007E+03 -1.68672E+04  6.50049E+03 -2.25304E+04  1.50203E+04 -1.37306E+04
  1.20077E+04  3.93558E+03 -6.37000E+03  1.31136E+04 -1.97044E+04 -2.96294E+03 -8.55469E+03 -3.09353E+04
  2.11799E+04 -4.14280E+04  4.52103E+04 -1.85127E+04  4.23612E+04  1.84896E+04  1.46757E+04  4.19314E+04
 -1.50274E+04  3.18334E+04 -2.41113E+04  1.00602E+03 -8.61119E+03 -2.70067E+04  2.08836E+04 -3.16384E+04
  3.85367E+04 -7.82835E+03  3.23177E+04  2.31847E+04  1.62120E+04  4.29648E+04 -7.26732E+03  4.63948E+04
 -2.95014E+04  3.05885E+04 -3.87525E+04  8.21677E+03 -3.91475E+04 -1.50470E+04 -2.18844E+04 -3.49425E+04
  7.51021E+03 -3.46988E+04  2.98509E+04 -1.34310E+04  2.74996E+04  1.06215E+04  3.24194E+03  1.80710E+04
 -1.28082E+04  7.25255E+03 -9.31436E+03 -7.66118E+03  5.89718E+03 -1.03009E+04  1.72947E+04  6.35327E+03
  1.26128E+04  2.14942E+04 -6.44732E+03  2.34402E+04 -2.18256E+04  9.50553E+03 -2.52300E+04 -6.39735E+03
 -1.69516E+04 -1.64742E+04 -6.09975E+03 -1.77057E+04  3.18685E+03 -1.57665E+04  1.30811E+04 -1.52931E+04
  2.21432E+04 -1.21109E+04  2.89187E+04  1.59597E+03  2.21670E+04  1.70479E+04  4.86025E+03  3.37430E+04
 -1.59474E+04  2.80573E+04 -2.62029E+04  9.58420E+03 -2.00104E+04 -1.03766E+04 -4.01234E+03 -1.39041E+04
  2.42579E+03 -3.37739E+03 -3.01478E+03  5.65648E+03 -1.37844E+04  5.40724E+03 -1.36398E+04 -5.77649E+03
 -9.12565E+03 -1.58433E+04  4.41168E+03 -2.01536E+04  1.34958E+04 -1.44393E+04  1.60772E+04 -1.35630E+03
  9.04381E+03  1.13845E+04 -1.38216E+03  1.64764E+04 -1.13205E+04  9.23149E+03 -1.60102E+04 -3.73992E+03
 -1.21796E+04 -1.46203E+04 -1.67325E+03 -1.98106E+04  9.06660E+03 -1.63627E+04  1.69265E+04 -7.28828E+03
  1.54043E+04  4.78580E+02  1.03154E+04  3.11597E+03  5.23752E+03  7.75924E+02  8.10549E+03 -1.70924E+03
  1.45667E+04  3.25312E+03  1.55309E+04  1.33735E+04  9.51832E+03  2.57532E+04 -2.89507E+03  2.81938E+04
 -1.67520E+04  2.15255E+04 -2.54882E+04  1.10588E+04 -2.67082E+04 -1.59494E+03 -2.23795E+04 -1.51270E+04
 -1.09296E+04 -2.15738E+04  6.52177E+03 -1.99217E+04  1.76112E+04 -1.13884E+04  1.61002E+04  3.46395E+03
  6.69133E+03  1.19909E+04 -7.79610E+03  1.05335E+04 -1.36334E+04  3.06026E+03 -1.02132E+04 -8.50528E+03
  2.04837E+02 -1.35315E+04  6.40855E+03 -1.01070E+04  8.04436E+03 -1.04331E+03  1.66581E+03  5.10988E+03
 -5.71336E+03  1.44941E+03 -4.12124E+03 -4.92785E+03  8.54876E+02 -1.05665E+04  8.45503E+03 -9.74843E+03
  1.33921E+04 -5.64990E+03  1.32487E+04  3.40372E+03  1.14580E+04  9.92407E+03  5.41424E+03  1.48929E+04
 -1.94197E+03  1.71243E+04 -1.05910E+04  1.06415E+04 -1.17125E+04  2.92486E+03 -8.59435E+03 -1.95457E+03
 -4.50661E+03 -3.26340E+03 -7.55567E+02  1.28394E+03 -1.65594E+03  2.27534E+03 -3.82810E+03  3.91907E+03
 -8.49317E+03 -4.72764E+02 -8.98103E+03 -7.06743E+03 -3.43082E+03 -1.21546E+04  4.13452E+03 -8.41874E+03
  7.46149E+03 -4.03218E+03  5.37307E+03  1.38701E+03 -1.35013E+02  3.45710E+03 -3.40448E+03 -2.94270E+02
 -3.50260E+03 -5.38482E+03 -9.58280E+02 -7.92438E+03  4.28244E+03 -8.09223E+03  1.05168E+04 -4.85172E+03
  1.17626E+04  7.47370E+02  9.13538E+03  6.40783E+03  1.86856E+03  9.04174E+03 -5.12334E+03  8.65468E+03
 -7.15082E+03  2.53497E+03 -3.29376E+03 -1.52730E+03  1.41309E+03 -2.35007E+03  5.24212E+03 -1.37746E+03
  4.43211E+03  3.81712E+03  1.21482E+03  6.49916E+03 -5.07515E+03  6.75783E+03 -8.40168E+03  1.90804E+03
 -5.08514E+03 -4.18083E+03  3.61324E+02 -6.89166E+03  3.51585E+03 -4.07567E+03  3.58765E+03  1.13127E+03
  3.37448E+02  3.96975E+03 -4.03774E+03  5.12345E+03 -5.03691E+03  2.13953E+03 -5.37289E+03 -1.32279E+03
 -3.13025E+03 -6.48283E+03  1.43486E+03 -7.02181E+03  6.69994E+03 -5.11946E+03  6.79536E+03  1.04116E+03
  4.96232E+03  5.96633E+03  4.66787E+02  7.72416E+03 -5.58394E+03  4.99170E+03 -4.64971E+03 -5.99596E+02
 -5.91220E+03 -5.17834E+03 -1.81791E+03 -5.28890E+03  3.19029E+03 -4.83919E+03  2.97181E+03 -3.28045E+03
  2.65569E+03  5.55341E+02  1.93363E+02  7.76406E+02  4.37120E+02  6.94506E+01  2.32488E+02 -2.06946E+03
  4.45503E+03 -8.35959E+02  5.77279E+03  1.20493E+03  6.11430E+03  3.76459E+03  5.29225E+03  7.97404E+03
 -1.32647E+03  9.06371E+03 -7.96686E+03  6.88806E+03 -1.04311E+04  1.55036E+03 -8.24967E+03 -2.27716E+03
 -4.58183E+03 -6.64686E+03 -2.89958E+02 -5.42286E+03  2.64282E+03 -2.44911E+03  1.64437E+03 -2.27637E+03
  1.56690E+03 -1.73383E+03  2.45638E+03 -2.30650E+03  3.73673E+03 -2.15337E+03  3.98710E+03  1.42358E+02
  4.78300E+03  1.39737E+03  1.21773E+03  2.87870E+03 -1.23804E+03  3.59495E+03 -4.61869E+03  2.90489E+03
 -5.58379E+03 -1.20962E+03 -2.24040E+03 -3.37704E+03  5.51946E+02 -5.12436E+03  3.06435E+03 -5.32436E+03
  5.52264E+03 -3.27542E+03  6.84212E+03  1.59196E+02  4.98598E+03  4.59306E+03  6.90015E+02  6.46082E+03
 -1.80174E+03  5.96740E+03 -3.15343E+03  1.61271E+03 -1.91260E+03 -6.24448E+02 -2.85493E+02 -9.12227E+02
 -1.55108E+02  2.59497E+02 -9.31201E+02  2.03329E+03 -2.13164E+03  1.06322E+03 -4.29051E+03 -7.02988E+02
 -1.71649E+03 -3.98518E+03  6.99692E+02 -5.08409E+03  3.10503E+03 -4.54209E+03  3.87982E+03 -1.24455E+03
  3.95569E+03  2.94301E+03  2.41088E+03  3.15264E+03 -2.86247E+02  5.26066E+03 -2.85869E+03  2.70638E+03
 -4.23559E+03  1.17175E+03 -3.58156E+03 -2.51752E+03 -1.57005E+02 -3.08558E+03  2.14995E+03 -2.97393E+03
  2.91246E+03 -1.17260E+03  1.62912E+03  4.43828E+02  4.65217E+02  1.52404E+03  1.30840E+03  5.73623E+02
  1.57747E+03 -9.77698E+01  1.50553E+03  6.07138E+02  7.11265E+02  2.52751E+03  1.39318E+03  1.97788E+03
 -1.16061E+03  3.85860E+03 -2.89281E+03  4.50906E+03 -3.66357E+03  1.13379E+03 -4.39693E+03 -6.74719E+02
 -2.00057E+03 -4.39596E+03  7.40111E+02 -5.28722E+03  1.63770E+03 -2.88301E+03  2.84613E+03 -1.41491E+03
  2.26761E+03  1.86834E+03  5.87442E+02  2.03372E+03 -4.89993E+02  8.15211E+02 -9.66472E+02 -2.10033E+02
 -4.40488E+02 -1.48627E+03  1.25365E+03 -1.55838E+03  2.04623E+03 -1.43868E+03  1.50999E+03  3.82467E+02
  1.28732E+03  4.83380E+02  1.29603E+03 -1.56534E+02 -3.04223E+02  1.02217E+03  1.53297E+03 -8.01667E+01
 -6.72839E+02 -4.70340E+02  2.20174E+03  6.96964E+02  4.45402E+02  2.17397E+03 -7.76417E+02  3.25451E+03
 -1.89896E+03  1.11969E+03 -2.13453E+03  3.44331E+02 -2.35076E+03 -1.36919E+03  1.62145E+02 -8.64467E+02
  3.35419E+01 -7.85464E+02  1.05735E+03 -1.52022E+03  6.53969E+02  1.06320E+03 -1.22546E+03  1.41423E+03
 -1.27878E+03  7.31988E+02 -9.99929E+02 -9.72708E+02 -9.30198E+02 -2.18623E+03  2.74572E+02 -2.37782E+03
  5.75630E+02 -4.57328E+02  1.31188E+03  6.74746E+01  1.28165E+03 -2.20552E+02  3.00479E+02  1.65981E+03
 -4.51206E+02 -4.33681E+02 -5.30459E+02  8.79951E+01  1.85517E+02 -9.28895E+02  1.93468E+03 -1.10282E+03
  1.64098E+03 -3.15298E+01  2.62504E+03  7.90396E+02  1.41035E+03  1.88230E+03 -3.62116E+02  1.99732E+03
 -1.30156E+03  4.15096E+01 -1.73039E+03 -3.84469E+02 -4.71024E+02 -1.32137E+03  2.55586E+02 -9.07538E+02
  1.57886E+03 -3.75854E+02  6.96737E+02  6.06712E+02 -3.82408E+02  9.67752E+02  3.03673E+02  1.09862E+03
  1.52722E+02  7.38142E+02 -1.10110E+03  7.78801E+02 -4.86693E+02  3.03726E+02 -6.47748E+02  1.00729E+03
 -2.49919E+02  1.10338E+03 -1.67840E+03  4.82771E+02 -1.80871E+03 -6.52249E+01 -2.25801E+03 -1.19601E+03
 -1.21695E+03 -2.53287E+03  7.23571E+02 -3.26674E+03  1.31043E+03 -2.66490E+03  3.24962E+03 -4.81567E+02
  2.59741E+03 -3.02326E+02  1.34699E+03  1.73876E+03 -7.05343E+02  1.87363E+03 -4.60888E+02  1.13599E+03
 -1.46375E+03  8.74664E+02 -8.93974E+02 -1.27024E+02 -6.16081E+02 -9.66766E+01 -6.08616E+02 -2.66290E+02
 -1.20377E+03  1.39365E+02 -9.85805E+02  3.06899E+02  3.04017E+02 -8.67708E+02 -2.70097E+02 -7.80247E+02
  1.45463E+03 -3.47593E+02  8.43920E+02 -6.93047E+01  8.99859E+02  9.51839E+02  1.83745E+02  1.32685E+03
 -1.02390E+03  2.56132E+03 -1.78374E+03  1.50363E+03 -1.93884E+03 -1.74346E+02 -1.87071E+03 -1.35744E+03
 -9.07550E+02 -1.35543E+03  3.64731E+02 -1.13423E+03  9.30594E+02 -1.20836E+03  1.45490E+02  1.31930E+02
  2.63136E+02  1.27986E+02  2.02775E+02  2.10314E+01 -6.36784E+02 -1.07288E+02 -1.55468E+02  1.90019E+02
  6.04186E+02 -5.73335E+01  8.93763E+01 -1.06488E+02  3.02528E+02  5.76868E+02 -7.35542E+01  5.78450E+02
 -6.91017E+02  8.20542E+02 -7.27438E+02  3.83845E+02 -7.53157E+02 -7.94827E+02 -3.33921E+02 -1.04096E+03
  8.52181E+02 -1.05016E+03  2.09316E+02 -1.87146E+02  8.55206E+02 -9.86820E+02  7.28210E+02  7.45522E+02
  6.42755E+02  6.84712E+02 -8.07795E+01  1.09985E+03 -6.88734E+02  6.32255E+02 -5.50983E+02  1.85157E+02
 -1.43322E+02  4.08712E+02 -3.82982E+02 -2.23993E+02 -9.40712E+02  4.67151E+02 -8.46597E+02  2.01505E+02
 -8.25458E+02  8.39481E+01 -1.01408E+02 -6.67702E+02  9.23096E+01 -1.37689E+03  9.28933E+02 -2.57643E+02
  8.01565E+02 -1.27382E+02 -5.42066E+02  1.85653E+02 -4.25740E+02  1.01838E+03 -6.37860E+02  9.91797E+02
