 $NMID ID='MM_0lb_SNR400_19hz_g45_96.RAW', FMTDAT='(8E13.5)'
 TRAMP=1., VOLUME=1. $END
  3.09843E+05  4.64487E+02  3.37080E+05  2.50511E+05  8.42959E+04  3.37541E+05 -1.32387E+05  2.49813E+05
 -1.89314E+05  8.22093E+04 -1.11325E+05 -3.25027E+04  1.88897E+03 -5.03276E+04  5.41405E+04  1.82792E+02
  3.51449E+04  5.32706E+04 -1.68836E+04  7.52902E+04 -6.03601E+04  6.31064E+04 -8.26241E+04  3.22984E+04
 -7.92793E+04 -1.08793E+04 -5.63507E+04 -5.01071E+04 -1.49637E+04 -6.80236E+04  2.66835E+04 -4.43243E+04
  3.89164E+04  4.25247E+03  1.55190E+04  4.68756E+04 -3.43866E+04  4.60992E+04 -6.52733E+04 -3.64315E+02
 -5.20668E+04 -5.59186E+04 -6.06183E+03 -7.49398E+04  3.26956E+04 -5.28022E+04  4.64392E+04 -1.60504E+04
  4.13109E+04  1.11451E+04  3.10056E+04  2.46261E+04  1.62703E+04  2.76420E+04 -4.79708E+03  2.64643E+04
 -2.12488E+04  1.24917E+04 -1.88614E+04 -3.65031E+03  4.26848E+03 -7.85078E+03  2.12121E+04  1.08063E+04
  7.39495E+03  3.27781E+04 -3.03515E+04  3.33195E+04 -6.08176E+04  2.07959E+03 -5.52137E+04 -4.13047E+04
 -1.22611E+04 -6.02058E+04  3.78219E+04 -4.32234E+04  5.52523E+04 -2.15604E+03  3.18554E+04  3.02778E+04
 -6.93352E+03  3.21969E+04 -2.78855E+04  1.32136E+04 -2.76687E+04 -5.63496E+03 -1.39121E+04 -9.64072E+03
 -7.57812E+03 -1.14212E+04 -1.16583E+03 -1.65567E+04  6.18099E+03 -2.22913E+04  1.50279E+04 -1.39329E+04
  1.20743E+04  4.05260E+03 -6.17246E+03  1.30610E+04 -1.92155E+04 -2.49458E+03 -8.15859E+03 -2.96853E+04
  2.05355E+04 -4.03660E+04  4.38734E+04 -1.87969E+04  4.18344E+04  1.87529E+04  1.39745E+04  4.15771E+04
 -1.53661E+04  3.05808E+04 -2.29779E+04  9.99083E+02 -8.01692E+03 -2.68687E+04  2.06560E+04 -3.09525E+04
  3.77702E+04 -6.73807E+03  3.09300E+04  2.19519E+04  1.50574E+04  4.30002E+04 -7.70515E+03  4.47196E+04
 -2.77584E+04  2.97565E+04 -3.64111E+04  7.79561E+03 -3.77697E+04 -1.49273E+04 -2.06120E+04 -3.39199E+04
  6.65218E+03 -3.39976E+04  2.89761E+04 -1.20994E+04  2.69469E+04  1.10054E+04  2.78284E+03  1.84456E+04
 -1.32740E+04  6.69707E+03 -9.88101E+03 -7.43528E+03  5.72855E+03 -1.04036E+04  1.77848E+04  5.99476E+03
  1.26516E+04  2.14491E+04 -6.77494E+03  2.27969E+04 -2.13496E+04  8.80590E+03 -2.45735E+04 -6.40106E+03
 -1.59674E+04 -1.58968E+04 -5.18053E+03 -1.62114E+04  3.90429E+03 -1.37889E+04  1.17098E+04 -1.35318E+04
  2.06444E+04 -1.14730E+04  2.73308E+04  1.02825E+03  2.09314E+04  1.61325E+04  4.08686E+03  3.20498E+04
 -1.56141E+04  2.71274E+04 -2.57489E+04  9.44863E+03 -1.94426E+04 -1.04321E+04 -4.23553E+03 -1.40341E+04
  2.81435E+03 -4.68205E+03 -2.49340E+03  4.87516E+03 -1.26646E+04  5.15644E+03 -1.33895E+04 -5.12291E+03
 -8.87709E+03 -1.46885E+04  4.46729E+03 -1.93816E+04  1.19458E+04 -1.40158E+04  1.43170E+04 -1.16690E+03
  8.56442E+03  1.01948E+04 -8.48472E+02  1.53516E+04 -1.01297E+04  8.43024E+03 -1.46663E+04 -3.18133E+03
 -1.17800E+04 -1.37823E+04 -1.27728E+03 -1.84741E+04  8.59542E+03 -1.52012E+04  1.61252E+04 -7.04145E+03
  1.46662E+04  5.38286E+02  1.00313E+04  3.71394E+03  5.02727E+03  8.02809E+02  7.84832E+03 -1.69426E+03
  1.33588E+04  3.31280E+03  1.41212E+04  1.22196E+04  8.17105E+03  2.39635E+04 -3.35280E+03  2.55840E+04
 -1.50903E+04  1.97809E+04 -2.30453E+04  8.56570E+03 -2.35536E+04 -1.48726E+03 -2.04046E+04 -1.36058E+04
 -1.00128E+04 -1.94423E+04  6.68628E+03 -1.84163E+04  1.57660E+04 -1.02321E+04  1.51256E+04  3.53820E+03
  6.23714E+03  1.09230E+04 -7.20001E+03  1.01838E+04 -1.30308E+04  2.52593E+03 -1.04059E+04 -7.68966E+03
  1.19246E+02 -1.15668E+04  6.00752E+03 -9.18761E+03  7.88690E+03 -1.18361E+03  9.11083E+02  4.96381E+03
 -5.33085E+03  1.17629E+03 -3.46989E+03 -4.30784E+03  7.54822E+02 -9.73896E+03  7.33925E+03 -9.60047E+03
  1.16059E+04 -5.02282E+03  1.15895E+04  2.85164E+03  9.57113E+03  8.91540E+03  5.03011E+03  1.31766E+04
 -1.54768E+03  1.50946E+04 -9.19514E+03  1.01674E+04 -1.09999E+04  2.82333E+03 -8.26703E+03 -1.59435E+03
 -4.52381E+03 -3.35489E+03 -9.09072E+02  1.08480E+03 -2.32620E+03  1.87829E+03 -3.32568E+03  3.36769E+03
 -8.05320E+03 -3.68524E+02 -8.76175E+03 -7.32218E+03 -3.16436E+03 -1.04960E+04  3.96278E+03 -8.26985E+03
  6.53580E+03 -3.79003E+03  5.15677E+03  1.89209E+03  1.21513E+03  3.39440E+03 -3.45651E+03  1.66669E+02
 -3.14731E+03 -4.80372E+03 -2.03304E+02 -6.72787E+03  4.30972E+03 -7.56893E+03  9.31468E+03 -3.54268E+03
  1.15693E+04  3.70764E+02  8.52623E+03  5.68361E+03  1.60624E+03  8.02110E+03 -5.48609E+03  8.31006E+03
 -6.57080E+03  2.91583E+03 -3.59659E+03 -1.53390E+03  9.80465E+02 -1.82642E+03  4.80408E+03 -1.32337E+03
  3.78165E+03  3.34209E+03  1.58897E+03  6.28838E+03 -4.50406E+03  5.99719E+03 -7.35737E+03  1.64255E+03
 -4.73257E+03 -3.31712E+03  8.75531E+02 -6.15784E+03  3.21434E+03 -3.14116E+03  3.46952E+03  6.32309E+02
  6.16317E+02  2.43830E+03 -3.78484E+03  4.31099E+03 -4.21540E+03  1.95059E+03 -3.95706E+03 -9.97145E+02
 -2.86933E+03 -5.73620E+03  1.43495E+03 -6.13904E+03  5.46679E+03 -4.00977E+03  6.12971E+03  1.07374E+03
  5.03578E+03  4.98067E+03  3.33989E+01  7.24416E+03 -4.72105E+03  4.43559E+03 -4.56510E+03 -4.12228E+02
 -5.09961E+03 -4.84306E+03 -1.76358E+03 -5.41449E+03  2.41099E+03 -4.26809E+03  2.68670E+03 -2.89832E+03
  2.57649E+03  1.97819E+02  1.38402E+01  1.63716E+03  1.17391E+03 -3.31608E+02  5.08881E+02 -1.55331E+03
  3.30823E+03 -5.24502E+02  5.43567E+03  5.93311E+02  5.14214E+03  2.78783E+03  5.18766E+03  6.27007E+03
 -1.20627E+03  8.29959E+03 -7.16301E+03  5.80792E+03 -9.36942E+03  8.90040E+02 -7.05611E+03 -2.25528E+03
 -3.93071E+03 -6.42458E+03 -4.28878E+02 -4.55312E+03  1.73766E+03 -1.72142E+03  1.70766E+03 -2.02029E+03
  1.29225E+03 -1.50227E+03  1.88604E+03 -2.23894E+03  3.58811E+03 -1.51130E+03  3.37750E+03  1.20625E+02
  4.47356E+03  8.45000E+02  9.98398E+02  3.51414E+03 -1.31236E+03  3.12892E+03 -3.98208E+03  2.35745E+03
 -4.27276E+03 -1.27054E+03 -1.35135E+03 -3.19609E+03  1.14021E+03 -3.98138E+03  3.42643E+03 -4.89575E+03
  4.20893E+03 -3.33629E+03  6.18962E+03 -1.12976E+02  4.80369E+03  3.25222E+03  7.23067E+02  5.41032E+03
 -2.34717E+03  5.60457E+03 -2.99791E+03  2.26461E+03 -1.69512E+03 -1.02142E+03 -1.22746E+02 -4.61392E+02
 -8.35527E+02  3.84280E+02 -8.39682E+02  1.82613E+03 -1.85285E+03  1.39545E+03 -3.82135E+03 -2.94419E+02
 -1.33037E+03 -3.78307E+03  6.44613E+02 -4.30507E+03  2.26445E+03 -3.90033E+03  3.52174E+03 -1.01675E+03
  3.75458E+03  1.54460E+03  1.25796E+03  3.30314E+03 -7.82433E+02  4.08175E+03 -2.03071E+03  2.85936E+03
 -3.59087E+03  1.11108E+03 -2.79328E+03 -2.10160E+03 -3.16686E+02 -3.16610E+03  1.63568E+03 -2.45286E+03
  2.47007E+03 -6.62129E+02  1.37913E+03  3.60014E+02 -1.19867E+02  1.40831E+03  9.32850E+02  8.43349E+02
  2.08626E+03  3.44168E+02  1.45950E+03  6.52993E+02  6.62203E+02  1.69461E+03  1.66355E+03  1.97362E+03
 -1.47045E+03  2.40014E+03 -2.06491E+03  3.58886E+03 -2.59584E+03  1.24527E+03 -3.90454E+03  1.70312E+02
 -1.51784E+03 -3.35777E+03  6.38809E+02 -4.35219E+03  1.93562E+03 -2.14835E+03  2.61541E+03 -8.82041E+02
  2.50181E+03  1.45266E+03  9.26547E+01  1.68262E+03 -2.47987E+02  1.03197E+03 -1.18949E+03 -1.68814E+02
 -7.20989E+02 -1.47444E+03  1.71650E+03 -1.01192E+03  8.84342E+02 -1.06598E+03  1.36184E+03  3.05321E+02
  9.81527E+02 -1.60111E+02  1.43154E+03 -8.55504E+02 -3.07953E+02  5.55955E+02  1.33883E+03 -3.49692E+02
 -7.71799E+01 -5.45716E+02  1.18580E+03  4.14952E+02 -1.38987E+00  2.46784E+03 -3.58719E+02  2.93390E+03
 -1.35427E+03  7.35723E+02 -1.42448E+03  4.65593E+02 -1.78373E+03 -2.52697E+02  9.77239E+01 -4.98804E+02
  7.32714E+02 -1.37874E+03  1.14952E+03 -8.78191E+02  5.10657E+02  9.74827E+02 -3.54305E+02  8.99549E+02
 -1.38610E+03  2.33014E+02 -7.63590E+02 -1.37751E+03 -5.67817E+02 -1.88797E+03  1.41956E+02 -8.81102E+02
  4.18799E+01 -8.52968E+02  7.67553E+02  4.45281E+02  1.18632E+03 -3.07412E+02  1.66543E+02  6.74339E+02
 -7.22966E+02  1.86110E+02 -6.91551E+02 -6.11058E+01  6.72570E+02 -9.34302E+02  1.40193E+03 -6.96360E+02
  1.46908E+03  3.90304E+02  2.53999E+03  4.13444E+02  1.37712E+03  1.38160E+03 -3.60828E+02  1.53203E+03
 -1.54823E+03 -2.24664E+02 -1.04048E+03  8.90371E+01 -1.04094E+03 -1.34663E+03  1.16939E+03 -3.46286E+02
  1.78338E+03 -1.10811E+03  1.12245E+03  3.06994E+02  2.88660E+02  1.32635E+03  4.84263E+02  8.64752E+02
  2.55640E+01  1.47418E+03 -5.17374E+02  1.71289E+02  3.28232E+02  3.70102E+02 -6.88704E+02  5.69321E+02
 -6.23430E+02  9.26843E+02 -1.77289E+03  2.27834E+02 -9.30686E+02 -2.14571E+01 -2.04244E+03 -9.82766E+02
 -9.20429E+02 -1.93431E+03  6.02587E+02 -2.61499E+03  9.85526E+02 -2.28409E+03  2.47669E+03 -1.32313E+02
  2.25208E+03 -1.38876E+02  5.76700E+02  1.53425E+03 -1.05939E+03  1.52824E+03 -7.45953E+02  7.37405E+02
 -1.39171E+03  4.65802E+02 -2.80679E+02  5.37179E+02 -1.01204E+03  3.84835E+02 -3.38452E+02  2.03909E+02
 -1.64236E+03 -4.59317E+02 -1.37945E+03  1.75397E+01  3.15635E+02 -4.61618E+02 -8.13572E+02 -7.49455E+02
  1.07083E+03 -6.22454E+02  4.74092E+02  4.08233E+02  8.89554E+02  1.19013E+03 -5.53659E+02  1.48739E+03
 -8.46702E+02  2.79164E+03 -1.71275E+03  9.62441E+02 -1.95889E+03 -3.19654E+02 -1.26369E+03 -1.34142E+03
 -7.10897E+02 -1.22816E+03  2.79176E+02 -8.20438E+02 -6.72178E+01 -6.72114E+02  3.10738E+02  1.13652E+01
  3.33937E+02  4.38456E+02  1.99782E+02  4.51831E+02  6.30979E+01  2.63616E+02  7.44065E+00 -8.54258E+02
  4.04505E+02  2.33831E+01 -1.93748E+02  5.50236E+02 -2.62061E+02  9.80006E+02  9.38925E+02 -6.33372E+01
 -5.03033E+02  4.08497E+02 -2.69985E+02  6.26430E+02 -7.09268E+02 -2.81538E+02 -1.64337E+02 -9.54622E+02
  4.79763E+02 -5.70134E+02  3.84605E+02 -9.00304E+01  6.08726E+02 -5.00438E+02  4.02676E+02  8.87488E+02
  9.07021E+01  9.71706E+02 -1.47253E+02  3.36640E+02 -3.12360E+02  6.71110E+02 -3.20832E+02  8.07919E+01
 -2.38467E+02 -7.82302E+01 -4.84925E+02  3.16882E+02 -1.82256E+02  3.66594E+02 -1.00401E+03 -7.24495E+02
 -1.82308E+03  8.79962E+01  1.47941E+02 -1.38630E+03  3.50066E+02 -1.13671E+03  5.88620E+02 -3.67788E+02
  3.09497E+02 -6.52503E+02 -6.55357E+02  4.33659E+02 -4.95306E+02  1.18835E+03 -6.77285E+02  1.01188E+03
