 $NMID ID='MM_0lb_SNR400_20hz_g40_25.RAW', FMTDAT='(8E13.5)'
 TRAMP=1., VOLUME=1. $END
  3.09549E+05  4.74134E+02  3.37202E+05  2.50429E+05  8.42731E+04  3.37275E+05 -1.32372E+05  2.49612E+05
 -1.89704E+05  8.25351E+04 -1.10643E+05 -3.29815E+04  1.50844E+03 -4.99041E+04  5.40760E+04  6.09799E+02
  3.48231E+04  5.30487E+04 -1.66467E+04  7.45056E+04 -5.98993E+04  6.20618E+04 -8.19393E+04  3.14313E+04
 -7.85455E+04 -1.12055E+04 -5.57867E+04 -4.95593E+04 -1.48355E+04 -6.74796E+04  2.60369E+04 -4.42145E+04
  3.86903E+04  4.01997E+03  1.52608E+04  4.61888E+04 -3.34732E+04  4.57897E+04 -6.43926E+04 -6.76240E+02
 -5.10893E+04 -5.55020E+04 -5.80284E+03 -7.38882E+04  3.23609E+04 -5.20676E+04  4.57730E+04 -1.60311E+04
  4.06554E+04  1.10098E+04  3.00623E+04  2.41227E+04  1.54193E+04  2.74520E+04 -4.35002E+03  2.63974E+04
 -2.14091E+04  1.33499E+04 -1.93214E+04 -4.18975E+03  3.04750E+03 -7.78168E+03  2.09298E+04  1.00516E+04
  7.49266E+03  3.20457E+04 -2.94633E+04  3.30736E+04 -6.01910E+04  2.00354E+03 -5.42534E+04 -4.03041E+04
 -1.21432E+04 -5.97260E+04  3.70392E+04 -4.29350E+04  5.38567E+04 -1.89582E+03  3.04504E+04  2.90611E+04
 -6.84795E+03  3.14524E+04 -2.76529E+04  1.18386E+04 -2.62992E+04 -5.87349E+03 -1.33183E+04 -9.41982E+03
 -7.29891E+03 -1.04717E+04 -1.28404E+03 -1.55232E+04  5.97780E+03 -2.18695E+04  1.53099E+04 -1.44578E+04
  1.20852E+04  3.82937E+03 -5.36398E+03  1.25754E+04 -1.78244E+04 -1.12212E+03 -7.96805E+03 -2.88430E+04
  2.00278E+04 -3.91049E+04  4.29264E+04 -1.78467E+04  4.09061E+04  1.81398E+04  1.35450E+04  3.99868E+04
 -1.49971E+04  2.96094E+04 -2.26368E+04  7.10759E+02 -7.55378E+03 -2.56907E+04  2.03310E+04 -3.01181E+04
  3.66688E+04 -6.42779E+03  2.92994E+04  2.23018E+04  1.40263E+04  4.01040E+04 -7.94486E+03  4.30364E+04
 -2.69061E+04  2.76785E+04 -3.45956E+04  7.19349E+03 -3.61232E+04 -1.43705E+04 -2.01995E+04 -3.26996E+04
  6.64074E+03 -3.20610E+04  2.78888E+04 -1.13317E+04  2.56081E+04  1.01502E+04  2.03138E+03  1.75664E+04
 -1.21481E+04  6.96754E+03 -9.31855E+03 -7.88452E+03  6.06486E+03 -9.87086E+03  1.67293E+04  6.61411E+03
  1.15726E+04  2.14071E+04 -7.37098E+03  2.27302E+04 -2.12596E+04  8.00090E+03 -2.40236E+04 -7.13874E+03
 -1.48554E+04 -1.58308E+04 -4.61463E+03 -1.45975E+04  3.76827E+03 -1.25239E+04  1.05705E+04 -1.28405E+04
  1.85128E+04 -1.07717E+04  2.62202E+04  4.33577E+02  2.05273E+04  1.44869E+04  4.08538E+03  3.05845E+04
 -1.53280E+04  2.61900E+04 -2.47979E+04  9.23009E+03 -1.93698E+04 -1.04893E+04 -3.44356E+03 -1.45804E+04
  2.72831E+03 -4.95459E+03 -1.98520E+03  4.34498E+03 -1.14631E+04  5.21040E+03 -1.19179E+04 -3.77407E+03
 -7.76619E+03 -1.39843E+04  4.60107E+03 -1.82313E+04  1.15427E+04 -1.28475E+04  1.33316E+04 -1.31021E+03
  7.44504E+03  9.68857E+03 -9.23088E+02  1.43263E+04 -9.26950E+03  8.07980E+03 -1.38323E+04 -3.03094E+03
 -1.00238E+04 -1.28921E+04 -1.47321E+03 -1.79716E+04  8.15506E+03 -1.34210E+04  1.47235E+04 -6.44309E+03
  1.31862E+04  9.89647E+02  9.22845E+03  3.30199E+03  4.04293E+03  5.95394E+02  7.07021E+03 -1.16127E+03
  1.23460E+04  2.50789E+03  1.28213E+04  1.17696E+04  7.41895E+03  2.25603E+04 -2.94664E+03  2.29020E+04
 -1.40738E+04  1.76754E+04 -2.17643E+04  7.86433E+03 -2.13474E+04 -1.53728E+03 -1.86240E+04 -1.17656E+04
 -9.55250E+03 -1.74923E+04  5.63728E+03 -1.72248E+04  1.45926E+04 -9.98807E+03  1.42506E+04  2.47775E+03
  6.11778E+03  9.71391E+03 -6.39489E+03  9.30006E+03 -1.26963E+04  2.46833E+03 -9.67622E+03 -7.33859E+03
 -9.42155E+01 -1.13117E+04  5.16259E+03 -8.63734E+03  7.06234E+03 -1.86386E+03  1.02788E+03  4.41737E+03
 -5.11082E+03  1.28624E+03 -2.74940E+03 -4.55770E+03  1.17262E+03 -8.75553E+03  7.21275E+03 -7.93400E+03
  9.92557E+03 -4.05424E+03  9.45318E+03  2.70799E+03  8.00499E+03  8.20131E+03  4.18567E+03  1.16736E+04
 -1.20886E+03  1.38576E+04 -7.39513E+03  8.76981E+03 -9.52772E+03  2.71640E+03 -7.74584E+03 -1.05783E+03
 -4.32492E+03 -2.67590E+03 -1.13329E+03  1.32220E+03 -1.23437E+03  1.64053E+03 -2.65713E+03  2.88164E+03
 -7.37882E+03 -3.91331E+02 -7.14055E+03 -6.49499E+03 -2.75508E+03 -1.03673E+04  2.76694E+03 -7.48664E+03
  6.19812E+03 -3.35444E+03  4.79131E+03  1.99747E+03  9.29418E+02  2.12945E+03 -2.86791E+03 -4.34263E+01
 -3.23650E+03 -4.87023E+03 -5.17649E+02 -5.63451E+03  2.96544E+03 -6.51021E+03  8.59009E+03 -3.34082E+03
  1.03673E+04  2.34137E+02  7.19984E+03  5.65639E+03  1.36924E+03  7.14360E+03 -4.60642E+03  6.96386E+03
 -5.27065E+03  2.70790E+03 -3.26794E+03 -9.96673E+02  9.67689E+02 -1.35890E+03  4.13111E+03 -9.92909E+02
  3.29723E+03  2.55131E+03  7.27761E+02  5.22010E+03 -3.54746E+03  5.86083E+03 -6.93870E+03  1.28212E+03
 -3.82574E+03 -3.60216E+03  5.61049E+02 -5.87704E+03  3.29180E+03 -2.97125E+03  2.97493E+03  6.73462E+02
  8.34695E+02  2.82539E+03 -4.00835E+03  4.22162E+03 -3.74485E+03  2.00081E+03 -3.62983E+03 -1.31261E+03
 -2.13319E+03 -5.12460E+03  6.43228E+02 -5.85492E+03  4.86932E+03 -3.62297E+03  5.19522E+03  6.65000E+02
  3.83087E+03  4.47884E+03  6.09884E+02  5.64953E+03 -4.21726E+03  3.45735E+03 -4.24025E+03 -6.54228E+02
 -5.04808E+03 -4.52391E+03 -1.30226E+03 -4.53703E+03  1.49202E+03 -4.55642E+03  2.25748E+03 -2.54265E+03
  2.85082E+03 -7.40075E+01  5.01423E+01  1.03761E+03  4.77444E+02 -1.63128E+02 -1.03633E+01 -5.51414E+02
  3.50112E+03 -4.76152E+02  3.97350E+03  5.98774E+02  4.17801E+03  2.18200E+03  4.95012E+03  6.24336E+03
 -9.38206E+02  6.24319E+03 -6.07544E+03  5.00542E+03 -8.45338E+03  9.07273E+02 -6.46107E+03 -1.81749E+03
 -3.54313E+03 -5.45926E+03 -3.26770E+02 -3.96015E+03  2.41289E+03 -1.35313E+03  1.16849E+03 -1.84512E+03
  7.81922E+02 -1.63481E+03  2.11142E+03 -2.63447E+03  3.34754E+03 -1.04899E+03  3.07445E+03  3.05620E+02
  3.71779E+03  7.88973E+02  1.04117E+03  2.51447E+03 -1.55158E+03  2.04690E+03 -4.13497E+03  1.84570E+03
 -4.13932E+03 -1.18225E+03 -9.83460E+02 -3.14417E+03  2.71710E+02 -4.26686E+03  2.50706E+03 -4.28758E+03
  4.53277E+03 -2.58682E+03  5.74007E+03 -2.62956E+02  3.88105E+03  3.24554E+03  7.61572E+02  4.35860E+03
 -9.62373E+02  5.03731E+03 -2.37373E+03  1.75200E+03 -1.54255E+03 -8.49115E+02 -6.28159E+02 -2.18651E+02
 -5.77147E+02  1.06906E+02 -1.03555E+03  1.52187E+03 -2.24061E+03  7.94178E+02 -3.75048E+03  1.50561E+02
 -1.11312E+03 -3.32033E+03  1.03835E+03 -3.36729E+03  1.65125E+03 -3.25011E+03  2.13510E+03 -1.22882E+03
  3.40418E+03  2.32856E+03  1.44762E+03  2.21099E+03 -3.95111E+02  3.68178E+03 -2.07028E+03  2.15099E+03
 -2.94463E+03  1.02211E+03 -3.11688E+03 -1.49860E+03  3.37859E+02 -2.58574E+03  1.46172E+03 -1.97725E+03
  1.82488E+03 -9.39313E+02  9.87710E+02  1.91691E+02  6.15497E+02  1.30720E+03  6.92477E+02  6.06561E+02
  1.85691E+03  4.95558E+02  6.80371E+02  1.15914E+03  5.33783E+02  1.72883E+03  1.10059E+03  8.19375E+02
 -1.12314E+03  2.02528E+03 -1.94853E+03  3.54088E+03 -1.89392E+03  1.22621E+03 -3.24468E+03  4.46328E+01
 -1.55548E+03 -2.85637E+03  7.35426E+02 -3.06883E+03  1.69029E+03 -1.91877E+03  2.27342E+03 -4.82718E+02
  2.57771E+03  1.70763E+03  5.40642E+02  1.76287E+03 -6.34397E+02  1.31051E+03 -1.35532E+03 -6.64349E+01
 -1.73681E+02 -8.66458E+02  6.63188E+02 -9.53094E+02  6.18175E+02 -9.29593E+02  1.08148E+03  1.31089E+02
  5.26927E+02  1.34875E+02  1.25064E+03 -5.08202E+02 -4.27559E+02  4.07943E+02  1.81740E+03 -5.64376E+02
 -1.87273E+02 -6.48950E+01  1.88387E+03 -2.14706E+02  3.02051E+02  2.05292E+03 -4.08897E+02  2.03217E+03
 -9.50816E+02  1.02282E+03 -1.79910E+03 -5.45745E+02 -2.03708E+03 -7.92638E+02  1.46788E+02 -4.09142E+02
  6.07007E+02 -5.52082E+02  6.94153E+02 -6.86763E+02  7.16885E+02  1.59819E+03 -5.70512E+02  1.19193E+03
 -9.02213E+02  5.03182E+02 -1.05831E+03 -6.22150E+02 -3.92608E+02 -1.74747E+03  2.54915E+02 -8.46992E+02
  8.52067E+01  1.72981E+02  1.00368E+03  6.96908E+02  6.71255E+02 -1.49141E+02 -4.75325E+01  8.39079E+02
  1.53988E+02 -3.52439E+02 -4.54854E+02 -6.47421E+01  6.77643E+02 -6.80531E+02  1.50359E+03 -6.59825E+02
  8.68811E+02 -1.12381E+02  2.39722E+03  1.51087E+02  9.71335E+02  1.00572E+03 -2.42307E+02  1.46340E+03
 -1.34888E+03  1.15534E+02 -1.16634E+03 -4.51623E+01 -7.55320E+02 -6.16012E+02  5.72130E+02 -5.03193E+02
  1.53285E+03 -5.87848E+02  6.10053E+02  3.07001E+02 -4.75418E+01  1.19839E+03  3.42547E+02  1.19799E+03
 -6.70209E+02  8.94290E+02 -1.42754E+03  5.73146E+02 -1.84560E+02 -7.65285E+01 -6.35470E+02  4.22236E+02
 -4.95895E+02  9.78289E+02 -1.70235E+03  4.85132E+02 -1.16258E+03  4.40974E+02 -1.85894E+03 -9.33624E+02
 -1.06131E+03 -1.57854E+03  2.37034E+02 -1.92200E+03  4.57525E+02 -1.84425E+03  2.40796E+03 -6.94654E+02
  1.51554E+03 -2.19552E+01  8.12277E+02  8.47599E+02 -4.60280E+02  1.27808E+03 -7.26786E+02  6.56311E+02
 -7.77368E+02  9.46634E+02 -3.67481E+02 -2.17285E+02 -7.50046E+02  7.92453E+02 -1.13332E+03 -5.93243E+02
 -1.01658E+03  4.22759E+01 -1.03811E+03  6.04585E+02  4.65714E+02 -2.00214E+02 -6.65965E+02 -7.08643E+01
  1.07414E+03 -8.54303E+00  3.33817E+02  2.77885E+02  1.28647E+03  8.05385E+02 -1.08517E+03  1.33474E+03
 -6.15777E+02  1.58332E+03 -1.48092E+03  3.37125E+02 -1.44667E+03 -5.15228E+02 -7.43918E+02 -1.04738E+03
 -1.07399E+03 -8.61557E+02  2.63223E+02 -1.02413E+03  2.14867E+02  3.30137E+02 -6.82722E+00  8.32088E+01
  7.92140E+02  3.19232E+02  1.05733E+03  8.64922E+01 -1.82354E+02  1.36056E+02 -5.91095E+02 -2.45325E+02
  1.66482E+02 -5.76638E+01 -1.03684E+02 -3.77356E+01  1.03220E+02  2.77059E+02  4.95341E+02  3.15617E+02
 -2.32717E+02  4.54557E+01 -5.29772E+02  5.12863E+02 -8.11537E+02 -3.77498E+01 -4.10634E+02 -6.51371E+02
  1.50407E+02 -4.95755E+02  9.64849E+01 -1.77430E+02  1.18070E+03 -1.08466E+03  2.59686E+02  3.39494E+02
  9.72483E+02  4.85130E+01 -4.15483E+02  2.63453E+02 -2.43193E+02  4.04253E+02 -1.71046E+02  2.05340E+02
  1.37583E+02 -2.48723E+02 -5.28719E+02  5.23944E+02 -2.02983E+02  3.26427E+02 -1.07668E+03  1.50806E+01
 -8.53397E+02  2.70469E+02  2.65534E+02 -9.77525E+02  1.41940E+02 -1.27493E+03  1.03806E+03 -3.39725E+02
  1.74413E+02  2.25878E+02 -9.34762E+02 -1.96453E+02 -1.18544E+02  1.91608E+02 -9.18860E+02  5.13594E+02
