 $NMID ID='MM_0lb_SNR400_9hz_g55_9.RAW', FMTDAT='(8E13.5)'
 TRAMP=1., VOLUME=1. $END
  3.10449E+05 -7.61403E+01  3.37637E+05  2.50818E+05  8.42134E+04  3.38359E+05 -1.32405E+05  2.52142E+05
 -1.91004E+05  8.42018E+04 -1.12678E+05 -3.19079E+04  1.93425E+02 -5.08811E+04  5.28323E+04 -1.89367E+02
  3.60193E+04  5.22200E+04 -1.74432E+04  7.61984E+04 -6.15275E+04  6.43973E+04 -8.52914E+04  3.21376E+04
 -8.25219E+04 -1.16609E+04 -5.84499E+04 -5.27605E+04 -1.55153E+04 -7.21691E+04  2.75039E+04 -4.68904E+04
  4.11504E+04  3.41831E+03  1.66138E+04  4.80303E+04 -3.43605E+04  4.76231E+04 -6.80323E+04  1.58970E+02
 -5.53206E+04 -5.82467E+04 -7.30590E+03 -7.89437E+04  3.41302E+04 -5.74981E+04  4.89492E+04 -1.85949E+04
  4.51528E+04  1.22225E+04  3.31913E+04  2.61214E+04  1.61319E+04  3.16045E+04 -5.97945E+03  2.71330E+04
 -2.18787E+04  1.18862E+04 -1.75135E+04 -5.45787E+03  7.36626E+03 -7.18627E+03  2.32805E+04  1.41470E+04
  7.32980E+03  3.79004E+04 -3.42871E+04  3.76460E+04 -6.61296E+04  1.77060E+03 -5.85707E+04 -4.44023E+04
 -1.17788E+04 -6.62554E+04  4.16750E+04 -4.79651E+04  6.18994E+04 -2.28457E+03  3.76309E+04  3.51032E+04
 -5.27778E+03  3.92025E+04 -3.20192E+04  1.88576E+04 -3.36392E+04 -3.28601E+03 -1.90634E+04 -1.16828E+04
 -9.29588E+03 -1.58317E+04  6.44755E+02 -2.01732E+04  8.11348E+03 -2.35844E+04  1.54166E+04 -1.24861E+04
  1.06930E+04  5.97319E+03 -1.08433E+04  1.27286E+04 -2.32501E+04 -6.56089E+03 -9.03797E+03 -3.77506E+04
  2.57096E+04 -4.61055E+04  5.23060E+04 -2.12776E+04  4.89201E+04  2.08732E+04  1.68376E+04  4.79665E+04
 -1.68641E+04  3.62661E+04 -2.82235E+04  2.67734E+03 -1.16795E+04 -2.97351E+04  2.20935E+04 -3.75161E+04
  4.52187E+04 -1.12575E+04  4.07404E+04  2.62239E+04  2.14925E+04  5.18098E+04 -8.35143E+03  5.59439E+04
 -3.52274E+04  3.78303E+04 -4.85467E+04  1.07466E+04 -4.79820E+04 -1.83718E+04 -2.65116E+04 -4.27061E+04
  7.82439E+03 -4.24743E+04  3.41971E+04 -1.79332E+04  3.21185E+04  1.14513E+04  4.81932E+03  2.25035E+04
 -1.40739E+04  9.48639E+03 -1.04864E+04 -7.79129E+03  5.05312E+03 -1.18778E+04  1.91556E+04  5.51174E+03
  1.45390E+04  2.35010E+04 -5.53279E+03  2.73385E+04 -2.33673E+04  1.46118E+04 -3.21558E+04 -1.82260E+03
 -2.59826E+04 -1.88054E+04 -1.21149E+04 -2.53875E+04  4.63166E+03 -2.64252E+04  2.00940E+04 -2.43327E+04
  3.26166E+04 -1.39449E+04  3.94844E+04  5.53901E+03  2.82517E+04  2.58350E+04  4.09080E+03  4.17713E+04
 -2.01052E+04  3.46528E+04 -3.11015E+04  1.17665E+04 -2.31221E+04 -1.07255E+04 -4.49334E+03 -1.21101E+04
  3.17568E+02 -1.46352E+03 -7.60044E+03  8.69937E+03 -2.07595E+04  5.39448E+03 -2.08329E+04 -1.00891E+04
 -1.16330E+04 -2.39585E+04  6.35869E+03 -2.84819E+04  1.99438E+04 -1.97035E+04  2.29967E+04 -1.15184E+03
  1.44415E+04  1.61444E+04 -1.76963E+03  2.38573E+04 -1.64827E+04  1.37955E+04 -2.31918E+04 -5.23700E+03
 -1.73641E+04 -2.15699E+04 -2.22797E+03 -2.91557E+04  1.31524E+04 -2.32164E+04  2.37000E+04 -1.31566E+04
  2.29460E+04 -9.59241E+02  1.71088E+04  4.71802E+03  8.61306E+03  8.90951E+02  1.30816E+04 -2.06040E+03
  2.19481E+04  3.19946E+03  2.50933E+04  1.81633E+04  1.78637E+04  3.87441E+04 -2.65506E+03  4.50525E+04
 -2.59447E+04  3.72079E+04 -4.25953E+04  2.02589E+04 -4.54867E+04 -3.32683E+03 -3.70375E+04 -2.71089E+04
 -1.41639E+04 -3.77513E+04  1.33132E+04 -3.32804E+04  2.79749E+04 -1.56403E+04  2.43856E+04  7.99779E+03
  7.81741E+03  1.90601E+04 -1.17510E+04  1.68449E+04 -2.07027E+04  2.64238E+03 -1.51570E+04 -1.29149E+04
 -6.64888E+02 -1.98598E+04  1.04901E+04 -1.49109E+04  1.31319E+04 -6.13432E+02  2.96329E+03  9.35641E+03
 -8.84089E+03  4.12025E+03 -1.00381E+04 -7.84655E+03 -2.89519E+03 -1.91549E+04  1.24044E+04 -1.98232E+04
  2.31386E+04 -1.14189E+04  2.73254E+04  3.12595E+03  2.31545E+04  1.88944E+04  1.08782E+04  3.01413E+04
 -5.35117E+03  3.18160E+04 -2.10110E+04  2.03753E+04 -2.32123E+04  3.15060E+03 -1.60747E+04 -5.81197E+03
 -6.44232E+03 -7.30034E+03 -5.47497E+02  8.41827E+02 -3.05571E+03  3.71833E+03 -7.95177E+03  6.02080E+03
 -1.41124E+04 -1.39931E+03 -1.54091E+04 -1.23067E+04 -5.89714E+03 -1.99099E+04  6.89241E+03 -1.65349E+04
  1.34918E+04 -7.08908E+03  9.31639E+03  4.81993E+03 -3.52905E+01  5.80088E+03 -8.53739E+03 -1.17360E+02
 -7.70511E+03 -9.66562E+03 -9.92785E+02 -1.67768E+04  9.67829E+03 -1.69389E+04  2.04987E+04 -8.89471E+03
  2.44588E+04  2.58730E+03  1.79385E+04  1.44430E+04  3.28092E+03  1.97177E+04 -1.01672E+04  1.62870E+04
 -1.30861E+04  5.14236E+03 -6.21738E+03 -3.40304E+03  1.93241E+03 -4.26979E+03  8.12133E+03 -8.71284E+02
  6.74084E+03  7.38264E+03  4.06851E+02  1.33713E+04 -9.35359E+03  1.25319E+04 -1.62555E+04  2.87763E+03
 -1.10768E+04 -8.23360E+03  5.38523E+02 -1.42772E+04  8.61081E+03 -7.25403E+03  9.64369E+03  4.39565E+03
  2.67429E+03  1.07671E+04 -9.05783E+03  1.23834E+04 -1.40340E+04  5.57367E+03 -1.54033E+04 -6.11512E+03
 -8.44578E+03 -1.64281E+04  4.05842E+03 -1.85339E+04  1.53202E+04 -1.16127E+04  1.70491E+04  2.70651E+03
  1.02665E+04  1.30579E+04 -1.78309E+03  1.62563E+04 -1.29910E+04  8.84361E+03 -1.31291E+04 -1.06412E+03
 -1.01649E+04 -1.13028E+04 -1.75541E+03 -1.32344E+04  6.76073E+03 -9.93384E+03  7.38563E+03 -4.40425E+03
  5.23041E+03  2.55332E+03 -1.12493E+03  1.60133E+03 -1.35887E+03 -2.59652E+03  2.89450E+03 -8.24888E+03
  1.19335E+04 -5.71350E+03  1.63732E+04  2.86073E+03  1.62361E+04  1.23300E+04  1.05955E+04  2.12159E+04
 -5.44773E+03  2.46787E+04 -2.10715E+04  1.83066E+04 -2.67952E+04  4.51260E+03 -2.17440E+04 -9.67866E+03
 -1.05023E+04 -1.76078E+04 -1.23010E+02 -1.52645E+04  4.85098E+03 -9.01421E+03  5.80593E+03 -5.16617E+03
  3.39397E+03 -4.05141E+03  3.61291E+03 -4.39129E+03  5.87372E+03 -3.80740E+03  7.35056E+03 -9.11819E+02
  1.12231E+04  1.92162E+03  6.45827E+03  9.38594E+03 -2.25119E+03  1.22781E+04 -1.16015E+04  9.23473E+03
 -1.52702E+04 -1.73578E+03 -9.58410E+03 -1.02214E+04 -1.75085E+03 -1.72652E+04  8.72815E+03 -1.59023E+04
  1.71170E+04 -9.39734E+03  2.09919E+04  2.57523E+03  1.35622E+04  1.45417E+04  1.81734E+03  1.85228E+04
 -7.82449E+03  1.45130E+04 -1.04233E+04  5.13775E+03 -8.13365E+03 -2.44241E+03 -3.07867E+03 -1.78679E+03
 -1.50155E+03 -6.05901E+02 -2.51144E+03  3.19516E+03 -6.30157E+03  2.26626E+03 -1.04884E+04 -1.55345E+03
 -6.48117E+03 -9.95520E+03  7.10640E+02 -1.47312E+04  9.67632E+03 -1.42239E+04  1.62099E+04 -4.29713E+03
  1.54080E+04  7.43749E+03  7.59554E+03  1.36675E+04 -3.22172E+03  1.59178E+04 -1.06807E+04  9.62822E+03
 -1.47069E+04  8.15865E+02 -1.05160E+04 -9.00968E+03 -8.85586E+02 -1.32046E+04  6.56609E+03 -9.53370E+03
  1.02639E+04 -3.17395E+03  6.91831E+03  2.61418E+03  1.62249E+03  4.62982E+03  1.45457E+03  2.28845E+03
  2.70229E+03  8.22244E+02  3.45492E+03  1.14177E+03  4.85585E+03  4.86108E+03  3.86492E+03  8.32207E+03
 -2.53295E+03  1.24968E+04 -1.10904E+04  1.24080E+04 -1.67541E+04  3.60572E+03 -1.57451E+04 -6.45831E+03
 -8.13409E+03 -1.56421E+04  2.98889E+03 -1.65847E+04  9.80512E+03 -1.08728E+04  1.16304E+04 -2.89974E+03
  9.32386E+03  6.17668E+03  1.99434E+03  8.57713E+03 -4.56365E+03  5.40252E+03 -6.29646E+03 -4.45874E+02
 -2.49786E+03 -7.47039E+03  4.12793E+03 -7.36370E+03  6.35318E+03 -3.42903E+03  6.25837E+03  1.42577E+03
  3.99262E+03  2.89401E+03  2.03439E+03  2.31705E+03 -8.19499E+02  1.68212E+03  1.24421E+03 -2.69404E+02
  2.67383E+03  2.37242E+02  5.70749E+03  2.25394E+03  2.83973E+03  8.68173E+03 -1.06694E+03  1.13138E+04
 -7.29203E+03  7.69268E+03 -1.02467E+04  3.09215E+03 -9.67489E+03 -4.48246E+03 -3.24862E+03 -5.89356E+03
  1.31031E+03 -5.91350E+03  4.28477E+03 -1.83883E+03  2.33008E+03  2.69570E+03 -1.86789E+03  4.94747E+03
 -6.24255E+03  2.76076E+03 -7.47122E+03 -3.72121E+03 -4.88974E+03 -8.71986E+03  2.44973E+03 -9.43166E+03
  4.91611E+03 -5.82199E+03  5.82519E+03 -4.50532E+02  5.38129E+03  2.67622E+03  1.30334E+02  5.17326E+03
 -2.77654E+03  1.43004E+03 -3.35010E+03 -3.14056E+03  3.86825E+02 -5.68006E+03  7.54383E+03 -4.73771E+03
  1.05599E+04  2.95001E+02  8.74259E+03  6.37953E+03  2.20410E+03  1.05944E+04 -3.45056E+03  9.60821E+03
 -8.18500E+03  4.71525E+03 -9.00885E+03 -1.38985E+03 -4.70774E+03 -6.70400E+03  1.65010E+03 -6.11074E+03
  6.33159E+03 -2.93409E+03  5.14036E+03  3.08367E+03  1.51597E+03  5.25869E+03 -1.77227E+03  4.87976E+03
 -3.08482E+03  3.34408E+03 -2.43007E+03  6.49353E+02 -1.53709E+03  1.16399E+03 -1.81669E+03  2.64284E+03
 -2.77582E+03  4.49840E+03 -7.55862E+03  3.47741E+03 -1.08277E+04 -9.46781E+02 -1.14847E+04 -6.73987E+03
 -5.95278E+03 -1.45751E+04  2.92251E+03 -1.64204E+04  1.04133E+04 -1.21131E+04  1.54143E+04 -4.15050E+03
  1.39204E+04  2.66788E+03  8.44881E+03  9.18330E+03  8.62197E+02  1.06592E+04 -4.68085E+03  8.73287E+03
 -6.56068E+03  3.04411E+03 -3.54792E+03 -1.19748E+03 -9.38253E+02 -9.56411E+02 -3.74540E+02  3.60065E+02
 -2.45523E+03 -4.14091E+01 -3.47003E+03 -1.95992E+02 -1.54178E+03 -2.88730E+03 -4.52817E+02 -4.60330E+03
  4.94244E+03 -3.73022E+03  6.85681E+03  5.56376E+00  7.21195E+03  6.16208E+03  1.97101E+03  1.08156E+04
 -4.69130E+03  1.29907E+04 -1.09394E+04  6.80306E+03 -1.29737E+04 -1.29247E+03 -1.04052E+04 -7.99315E+03
 -3.91540E+03 -1.14349E+04  2.17994E+03 -1.03710E+04  7.24865E+03 -5.36837E+03  7.50491E+03  3.92014E+02
  4.39659E+03  3.20613E+03 -7.00794E+02  2.77358E+03 -1.61514E+03 -5.86136E+02 -3.36226E+02 -1.62816E+03
  3.48453E+03 -1.93983E+03  4.54743E+03  1.49597E+03  2.68849E+03  3.41174E+03  2.37185E+02  5.46983E+03
 -4.87168E+03  5.70700E+03 -7.13446E+03  5.50422E+02 -6.58106E+03 -4.93797E+03 -1.42301E+03 -8.64508E+03
  4.56025E+03 -7.12433E+03  9.14968E+03 -1.52768E+03  8.71237E+03  1.71267E+03  4.17777E+03  5.67774E+03
  1.03788E+03  7.23418E+03 -3.18539E+03  6.12318E+03 -4.23823E+03  3.43634E+03 -3.84998E+03 -1.32278E+01
 -1.85662E+03 -3.59603E+02 -2.45745E+03  8.34763E+02 -3.47161E+03  9.28255E+02 -5.63447E+03 -1.35384E+03
 -5.13490E+03 -2.70125E+03 -1.76859E+03 -7.75607E+03  2.98314E+03 -7.51454E+03  6.29347E+03 -4.22825E+03
  7.34683E+03  4.94256E+02  4.13300E+03  5.90554E+03 -7.72427E+02  6.86081E+03 -5.60810E+03  4.17427E+03
