 $NMID ID='MM_0lb_SNR400_17hz_g55_34.RAW', FMTDAT='(8E13.5)'
 TRAMP=1., VOLUME=1. $END
  3.09895E+05  8.81778E+02  3.37355E+05  2.50645E+05  8.46354E+04  3.37608E+05 -1.32335E+05  2.51029E+05
 -1.89976E+05  8.30706E+04 -1.11276E+05 -3.25252E+04  1.15410E+03 -5.04570E+04  5.45586E+04  3.31678E+02
  3.52657E+04  5.28230E+04 -1.64959E+04  7.53783E+04 -6.06381E+04  6.35190E+04 -8.39367E+04  3.14735E+04
 -8.05142E+04 -1.12628E+04 -5.71259E+04 -5.09117E+04 -1.53014E+04 -6.93740E+04  2.76695E+04 -4.53633E+04
  4.03023E+04  4.24018E+03  1.58950E+04  4.76927E+04 -3.46109E+04  4.73250E+04 -6.61239E+04 -7.32692E+02
 -5.33353E+04 -5.67336E+04 -6.74677E+03 -7.62715E+04  3.36763E+04 -5.46583E+04  4.74584E+04 -1.70134E+04
  4.28163E+04  1.10490E+04  3.12887E+04  2.45711E+04  1.58415E+04  2.85978E+04 -4.90747E+03  2.74225E+04
 -2.21924E+04  1.27458E+04 -1.92645E+04 -4.09004E+03  5.41056E+03 -7.57665E+03  2.19643E+04  1.15305E+04
  7.20661E+03  3.45042E+04 -3.12891E+04  3.44975E+04 -6.25239E+04  2.07417E+03 -5.63039E+04 -4.20123E+04
 -1.29444E+04 -6.23329E+04  3.89569E+04 -4.46627E+04  5.72216E+04 -2.40988E+03  3.34988E+04  3.22984E+04
 -5.94083E+03  3.47349E+04 -2.91271E+04  1.51530E+04 -2.94233E+04 -4.72369E+03 -1.57192E+04 -1.04168E+04
 -8.12844E+03 -1.25896E+04 -7.83342E+02 -1.73311E+04  6.92805E+03 -2.34537E+04  1.52347E+04 -1.37055E+04
  1.18152E+04  4.48408E+03 -7.20172E+03  1.22755E+04 -2.08333E+04 -3.99193E+03 -8.58924E+03 -3.29630E+04
  2.20588E+04 -4.23250E+04  4.62171E+04 -1.89343E+04  4.39523E+04  1.88148E+04  1.47832E+04  4.36804E+04
 -1.62967E+04  3.22051E+04 -2.47407E+04  1.47707E+03 -1.00105E+04 -2.65913E+04  2.11164E+04 -3.32189E+04
  4.04252E+04 -8.27767E+03  3.42617E+04  2.34057E+04  1.69272E+04  4.52583E+04 -8.03115E+03  4.88733E+04
 -3.04288E+04  3.20453E+04 -3.95361E+04  8.45551E+03 -4.11241E+04 -1.56134E+04 -2.21792E+04 -3.61794E+04
  7.13325E+03 -3.62727E+04  3.03270E+04 -1.41630E+04  2.83454E+04  1.06957E+04  3.69759E+03  1.83196E+04
 -1.28360E+04  8.35741E+03 -1.04001E+04 -7.97069E+03  5.67794E+03 -1.04849E+04  1.73152E+04  6.39550E+03
  1.33978E+04  2.20084E+04 -6.49679E+03  2.36387E+04 -2.21683E+04  1.03436E+04 -2.67905E+04 -5.12252E+03
 -1.88918E+04 -1.68988E+04 -7.42374E+03 -1.83175E+04  3.94792E+03 -1.75376E+04  1.44853E+04 -1.64763E+04
  2.37828E+04 -1.18879E+04  3.06611E+04  2.26627E+03  2.28443E+04  1.87893E+04  3.79218E+03  3.46802E+04
 -1.72677E+04  2.93137E+04 -2.72744E+04  1.00017E+04 -2.04573E+04 -1.02073E+04 -3.96939E+03 -1.40601E+04
  1.30789E+03 -3.43411E+03 -3.48608E+03  5.79263E+03 -1.48306E+04  5.07607E+03 -1.49021E+04 -5.95001E+03
 -9.27966E+03 -1.73237E+04  4.50097E+03 -2.09177E+04  1.36696E+04 -1.54872E+04  1.63056E+04 -1.85158E+03
  1.00319E+04  1.17556E+04 -1.08643E+03  1.76107E+04 -1.21669E+04  9.80147E+03 -1.71842E+04 -3.66581E+03
 -1.29822E+04 -1.58902E+04 -1.66583E+03 -2.10110E+04  9.56219E+03 -1.69375E+04  1.79203E+04 -8.32094E+03
  1.58037E+04  4.97951E+02  1.14089E+04  4.03544E+03  5.76355E+03  3.37449E+02  8.44534E+03 -1.40534E+03
  1.56606E+04  2.75136E+03  1.70971E+04  1.41589E+04  1.12809E+04  2.76038E+04 -3.37695E+03  2.96094E+04
 -1.80770E+04  2.38966E+04 -2.82465E+04  1.11530E+04 -2.93567E+04 -2.24742E+03 -2.50808E+04 -1.68468E+04
 -1.08506E+04 -2.40699E+04  7.90114E+03 -2.19005E+04  1.90415E+04 -1.18037E+04  1.69546E+04  5.08083E+03
  6.47571E+03  1.22967E+04 -7.84218E+03  1.20890E+04 -1.52017E+04  3.11902E+03 -1.09604E+04 -9.10746E+03
  2.20990E+00 -1.37715E+04  6.74667E+03 -1.05080E+04  8.84898E+03 -1.25097E+03  2.14374E+03  5.54397E+03
 -6.40878E+03  2.41836E+03 -5.44830E+03 -5.47518E+03  2.27981E+02 -1.21693E+04  8.48543E+03 -1.21642E+04
  1.39664E+04 -5.93438E+03  1.44686E+04  2.59591E+03  1.27496E+04  1.17931E+04  6.14325E+03  1.66342E+04
 -2.44165E+03  1.90893E+04 -1.14854E+04  1.23133E+04 -1.36394E+04  2.87941E+03 -9.85765E+03 -2.54957E+03
 -4.71521E+03 -3.69916E+03 -6.36384E+02  1.14384E+03 -2.09357E+03  1.54139E+03 -4.27553E+03  3.67842E+03
 -9.09853E+03 -1.02025E+03 -9.54718E+03 -7.84978E+03 -3.47105E+03 -1.30508E+04  3.92054E+03 -1.00217E+04
  8.22832E+03 -4.14648E+03  5.91504E+03  2.81328E+03  3.13937E+02  3.65108E+03 -4.47344E+03 -1.57314E+02
 -4.64905E+03 -6.14434E+03 -1.34261E+03 -8.77506E+03  4.64876E+03 -9.53845E+03  1.17741E+04 -5.29217E+03
  1.43957E+04  9.80649E+02  9.87805E+03  7.57564E+03  2.65133E+03  1.05978E+04 -5.69804E+03  9.15724E+03
 -7.98528E+03  2.33992E+03 -3.93819E+03 -1.36641E+03  8.85114E+02 -2.57228E+03  5.51731E+03 -1.49593E+03
  4.59990E+03  3.81488E+03  1.48586E+03  7.09872E+03 -6.25845E+03  7.05215E+03 -9.64210E+03  1.77501E+03
 -5.40216E+03 -4.46306E+03  6.15733E+02 -8.01023E+03  4.37905E+03 -3.88307E+03  4.45416E+03  1.82039E+03
  5.30273E+02  4.22221E+03 -5.12448E+03  5.75889E+03 -6.18653E+03  2.44321E+03 -5.94359E+03 -1.49445E+03
 -3.60860E+03 -7.38973E+03  1.57907E+03 -8.70607E+03  7.46358E+03 -5.72386E+03  8.52705E+03  1.05756E+03
  5.83407E+03  6.13263E+03 -2.46128E+02  8.55816E+03 -5.95723E+03  4.76919E+03 -6.00149E+03 -8.27826E+02
 -6.68419E+03 -6.16538E+03 -1.75812E+03 -6.65023E+03  3.97861E+03 -5.26852E+03  3.55663E+03 -2.56567E+03
  3.30081E+03  3.80566E+02 -2.21508E+02  1.68802E+03  1.78080E+02 -3.94132E+02  1.19973E+03 -2.87747E+03
  4.86964E+03 -1.39960E+03  7.33558E+03  1.36720E+03  6.80542E+03  4.45134E+03  6.35429E+03  9.42188E+03
 -1.58016E+03  1.07720E+04 -9.06169E+03  8.41912E+03 -1.23100E+04  1.22451E+03 -9.39067E+03 -3.77280E+03
 -4.67369E+03 -7.75558E+03 -1.01468E+03 -5.80915E+03  2.64147E+03 -3.22102E+03  2.34029E+03 -2.55110E+03
  1.25678E+03 -2.67026E+03  2.14273E+03 -2.37627E+03  3.74793E+03 -1.37145E+03  4.36062E+03  3.34503E+02
  5.36239E+03  1.18305E+03  1.51052E+03  4.17427E+03 -1.13369E+03  3.96228E+03 -5.12836E+03  3.73349E+03
 -6.77338E+03 -1.28056E+03 -2.13724E+03 -4.31278E+03  5.48675E+02 -6.04240E+03  4.44649E+03 -6.71771E+03
  6.87278E+03 -3.63782E+03  8.40419E+03  1.10927E+02  5.56407E+03  5.53843E+03  1.28715E+03  7.56892E+03
 -3.05645E+03  7.53752E+03 -3.63858E+03  2.22255E+03 -2.25997E+03 -1.58460E+03 -9.08822E+02 -1.19406E+03
 -5.96249E+02  5.03410E+02 -5.42171E+02  2.58185E+03 -3.52262E+03  9.87988E+02 -5.25159E+03 -5.98749E+02
 -2.24088E+03 -4.52966E+03  8.01434E+02 -5.79094E+03  3.28115E+03 -5.33076E+03  5.28965E+03 -1.51142E+03
  4.93239E+03  3.14793E+03  2.06870E+03  4.34931E+03 -9.54023E+02  6.08507E+03 -3.82842E+03  2.84163E+03
 -4.58152E+03  6.17050E+02 -4.31848E+03 -2.98626E+03 -3.02096E+02 -3.89568E+03  2.09772E+03 -3.53254E+03
  4.01493E+03 -1.60994E+03  2.07388E+03  6.14134E+02  8.02624E+02  1.64355E+03  9.55393E+02  1.04349E+03
  1.49477E+03  5.63836E+02  1.43311E+03  5.49308E+02  1.79292E+03  2.73722E+03  1.38019E+03  2.69129E+03
 -1.08309E+03  4.47805E+03 -3.19502E+03  4.70130E+03 -4.27133E+03  1.85380E+03 -5.41468E+03 -1.32270E+03
 -1.43119E+03 -3.94028E+03  1.19330E+03 -5.97228E+03  2.32553E+03 -3.31064E+03  3.61392E+03 -1.39649E+03
  3.05980E+03  1.58393E+03  4.52521E+02  2.50654E+03 -6.31469E+02  1.81166E+03 -1.65113E+03 -5.47089E+02
 -1.14172E+03 -2.28086E+03  1.91697E+03 -2.34031E+03  2.22769E+03 -1.36320E+03  1.87587E+03  2.56468E+02
  8.87426E+02  6.32122E+02  7.24295E+02  1.93415E+02 -1.94994E+02  6.45367E+02  1.39001E+03 -1.07956E+03
  1.37862E+02 -4.16775E+02  2.43568E+03  8.25333E+02  1.00663E+03  2.51634E+03 -4.63438E+02  3.30889E+03
 -1.72511E+03  1.38140E+03 -2.49249E+03  9.07891E+02 -3.22044E+03 -5.48336E+02 -2.43934E+02 -1.77178E+03
  5.77602E+02 -2.16000E+03  1.03039E+03 -2.80412E+02  8.41893E+02  1.37054E+03 -1.23847E+03  1.36043E+03
 -1.00494E+03  9.86567E+02 -1.38277E+03 -1.90083E+03 -8.88845E+02 -2.53573E+03 -3.17452E+00 -2.35369E+03
  1.12871E+03 -8.16657E+02  6.27962E+02  2.06000E+02  1.51110E+03  2.92103E+02 -6.31787E+02  1.35066E+03
 -4.66179E+02  7.19704E+02 -1.62016E+03  1.14289E+02  8.72674E+02 -1.64602E+03  2.50879E+03 -1.29005E+03
  1.53244E+03  9.85288E+02  3.47186E+03  9.73841E+02  1.70885E+03  2.81614E+03 -3.24190E+02  2.39143E+03
 -1.63761E+03  1.08896E+03 -1.94977E+03 -1.54461E+02 -7.74606E+02 -1.63940E+03  7.36142E+02 -1.62262E+03
  1.50190E+03 -1.20693E+03  1.50302E+03  7.57109E+02 -1.53592E+01  1.03797E+03  4.27121E+02  1.15318E+03
 -4.89647E+00  1.19522E+03 -1.07259E+03  4.96223E+02  1.87732E+02  1.00034E+03 -4.21934E+02  8.66169E+02
 -5.23198E+02  1.30444E+03 -2.32614E+03  8.37813E+02 -1.94233E+03  4.25476E+02 -2.88218E+03 -8.77782E+02
 -1.05930E+03 -3.00709E+03  6.29560E+02 -3.79217E+03  2.02955E+03 -3.40809E+03  3.03588E+03 -9.41120E+02
  2.45882E+03  1.25377E+02  1.35153E+03  2.66816E+03 -3.42046E+02  2.16424E+03 -6.87104E+02  1.56646E+03
 -1.00333E+03  9.37214E+02 -6.45804E+02 -4.71637E+02 -4.47945E+02  5.47052E+02 -1.05519E+03  1.01645E+02
 -9.87801E+02  9.25987E+02 -1.41666E+03 -1.06673E+02  4.50938E+02 -7.77105E+02 -1.89576E+02 -1.61275E+03
  1.66503E+03 -9.17193E+02  8.78016E+02  3.74348E+02  2.03521E+03  1.62302E+03 -4.79720E+02  2.61218E+03
 -1.04451E+03  2.69041E+03 -1.86496E+03  1.30265E+03 -2.74045E+03 -8.68057E+02 -2.09881E+03 -1.86928E+03
 -8.54421E+02 -2.20805E+03 -3.08779E+02 -1.92685E+03  1.56437E+03 -7.57068E+02  6.79222E+02 -3.90754E+02
  1.53163E+03  2.36601E+02 -2.12974E+02  6.28367E+02 -3.35351E+02  5.87514E+02  2.40752E+02 -3.54614E+02
  6.20816E+02  6.20729E+02  4.86226E+02  2.97483E+02  3.94321E+02  1.15095E+03  8.09099E+02  3.82881E+01
 -3.66541E+02  3.66260E+02 -1.10769E+03  1.75385E+02 -1.21798E+03  2.66090E+02 -1.94201E+02 -1.84196E+03
  8.80600E+02 -7.57376E+02  8.62434E+02 -2.45266E+02  9.49754E+02 -5.98413E+01  6.77385E+02  1.29218E+03
  7.48501E+02  6.91482E+02 -1.89713E+02  9.94290E+02 -1.43981E+03  1.01904E+03 -1.82227E+02  1.73809E+02
 -6.38845E+02  3.72393E+02 -4.53781E+02 -3.74221E+02 -1.06042E+03 -6.49250E+01 -1.30153E+03  3.92137E+01
 -1.50357E+03  1.99497E+02 -2.62310E+02 -4.63276E+02  1.38816E+03 -2.16737E+03  4.53087E+02 -6.09896E+02
  6.49010E+02 -1.94602E+02  4.33132E+02 -6.15673E+01  3.43170E+02  8.46340E+02 -1.88806E+02  8.84099E+02
