 $NMID ID='MM_0lb_SNR400_14hz_g50_46.RAW', FMTDAT='(8E13.5)'
 TRAMP=1., VOLUME=1. $END
  3.09273E+05  3.66071E+02  3.37749E+05  2.50640E+05  8.43848E+04  3.37801E+05 -1.33050E+05  2.51702E+05
 -1.90257E+05  8.30946E+04 -1.12064E+05 -3.22870E+04  1.02321E+03 -4.97198E+04  5.41038E+04 -4.62560E+02
  3.57103E+04  5.25101E+04 -1.70430E+04  7.57270E+04 -6.09352E+04  6.30586E+04 -8.39048E+04  3.23875E+04
 -8.10138E+04 -1.11158E+04 -5.71307E+04 -5.13008E+04 -1.51373E+04 -7.04607E+04  2.77951E+04 -4.61966E+04
  4.01612E+04  3.35466E+03  1.62784E+04  4.80242E+04 -3.39241E+04  4.72727E+04 -6.63817E+04 -7.01593E+00
 -5.31976E+04 -5.72810E+04 -7.13592E+03 -7.66781E+04  3.35089E+04 -5.52399E+04  4.82046E+04 -1.73735E+04
  4.39633E+04  1.17262E+04  3.17471E+04  2.57817E+04  1.53924E+04  2.93358E+04 -5.79199E+03  2.75943E+04
 -2.21214E+04  1.22826E+04 -1.86353E+04 -5.26210E+03  5.61068E+03 -7.69623E+03  2.19656E+04  1.26906E+04
  7.64520E+03  3.51912E+04 -3.18612E+04  3.56192E+04 -6.40740E+04  1.77242E+03 -5.71706E+04 -4.28809E+04
 -1.28602E+04 -6.31801E+04  3.98037E+04 -4.46079E+04  5.83950E+04 -2.73249E+03  3.40154E+04  3.24135E+04
 -5.85221E+03  3.54825E+04 -3.01831E+04  1.59772E+04 -3.03856E+04 -4.30902E+03 -1.68826E+04 -1.10302E+04
 -7.58562E+03 -1.29676E+04 -5.62175E+02 -1.81218E+04  8.06637E+03 -2.36010E+04  1.55359E+04 -1.32955E+04
  1.18257E+04  5.15330E+03 -7.57993E+03  1.21935E+04 -2.14340E+04 -4.64872E+03 -8.38337E+03 -3.45095E+04
  2.31155E+04 -4.30633E+04  4.74908E+04 -1.93758E+04  4.61150E+04  1.95447E+04  1.62013E+04  4.49970E+04
 -1.56293E+04  3.36962E+04 -2.58647E+04  1.46762E+03 -1.05968E+04 -2.79474E+04  2.05557E+04 -3.38950E+04
  4.10744E+04 -9.38965E+03  3.69194E+04  2.34147E+04  1.84675E+04  4.68871E+04 -8.78905E+03  5.04180E+04
 -3.21897E+04  3.42267E+04 -4.27019E+04  9.97561E+03 -4.26538E+04 -1.66833E+04 -2.35180E+04 -3.82391E+04
  6.87464E+03 -3.80352E+04  3.14542E+04 -1.50395E+04  2.94921E+04  1.06541E+04  4.05082E+03  1.94833E+04
 -1.37601E+04  8.17521E+03 -1.05900E+04 -7.27563E+03  5.63185E+03 -1.11863E+04  1.83168E+04  5.74602E+03
  1.32235E+04  2.20264E+04 -5.74428E+03  2.53360E+04 -2.20778E+04  1.14051E+04 -2.82829E+04 -5.20455E+03
 -2.02676E+04 -1.72880E+04 -7.80760E+03 -2.02534E+04  3.84024E+03 -1.95912E+04  1.56772E+04 -1.89984E+04
  2.66790E+04 -1.25159E+04  3.24210E+04  2.68311E+03  2.33946E+04  1.97046E+04  4.45394E+03  3.55661E+04
 -1.79148E+04  3.04950E+04 -2.79415E+04  1.10763E+04 -2.10012E+04 -1.03581E+04 -4.28850E+03 -1.45685E+04
  9.38201E+02 -2.23900E+03 -4.90035E+03  6.53290E+03 -1.59331E+04  5.78325E+03 -1.64156E+04 -7.09385E+03
 -1.03727E+04 -1.85647E+04  5.26552E+03 -2.31028E+04  1.56707E+04 -1.65444E+04  1.81549E+04 -1.28465E+03
  1.09858E+04  1.35731E+04 -1.33625E+03  1.92288E+04 -1.31992E+04  1.08225E+04 -1.94463E+04 -4.15350E+03
 -1.46389E+04 -1.74683E+04 -1.58334E+03 -2.31192E+04  1.08157E+04 -1.88698E+04  1.96187E+04 -9.18215E+03
  1.77981E+04  5.48730E+02  1.26492E+04  5.01048E+03  6.56741E+03  8.81057E+02  9.57739E+03 -2.02114E+03
  1.72926E+04  3.02540E+03  1.93782E+04  1.54439E+04  1.25568E+04  3.05214E+04 -2.80914E+03  3.47244E+04
 -2.04109E+04  2.74462E+04 -3.16381E+04  1.44363E+04 -3.32154E+04 -2.38013E+03 -2.81636E+04 -1.98925E+04
 -1.24438E+04 -2.78733E+04  9.61894E+03 -2.51411E+04  2.09598E+04 -1.31038E+04  1.91804E+04  5.50272E+03
  6.72730E+03  1.43178E+04 -8.36413E+03  1.28627E+04 -1.53751E+04  2.38171E+03 -1.23233E+04 -1.04865E+04
 -1.35467E+02 -1.52216E+04  8.51585E+03 -1.21048E+04  1.04505E+04 -8.47247E+02  2.31154E+03  6.68634E+03
 -6.80922E+03  2.36541E+03 -5.76216E+03 -5.35034E+03 -4.59833E+02 -1.32809E+04  9.81625E+03 -1.44780E+04
  1.68112E+04 -7.07198E+03  1.80390E+04  2.66976E+03  1.58876E+04  1.33967E+04  7.66235E+03  1.99406E+04
 -3.45535E+03  2.17106E+04 -1.45324E+04  1.39750E+04 -1.61471E+04  3.26792E+03 -1.11796E+04 -3.38598E+03
 -5.68398E+03 -5.05152E+03 -1.23451E+03  1.68871E+03 -2.38561E+03  2.34675E+03 -5.04718E+03  4.28113E+03
 -1.03809E+04 -6.47000E+02 -1.16677E+04 -8.74518E+03 -4.88914E+03 -1.46820E+04  4.50906E+03 -1.08432E+04
  9.68840E+03 -4.29473E+03  6.77569E+03  2.92094E+03  8.00321E+02  3.64715E+03 -5.87398E+03 -1.80899E+02
 -5.84164E+03 -6.85729E+03 -6.32633E+02 -1.05247E+04  5.58137E+03 -1.14144E+04  1.41079E+04 -6.03527E+03
  1.64563E+04  1.23350E+03  1.21022E+04  1.00351E+04  1.88158E+03  1.31807E+04 -7.13877E+03  1.13107E+04
 -9.00050E+03  3.60615E+03 -4.81013E+03 -1.94990E+03  1.38481E+03 -3.05864E+03  5.28683E+03 -7.73033E+02
  5.26225E+03  4.86193E+03  1.08820E+03  9.34728E+03 -6.34992E+03  9.01445E+03 -1.16257E+04  1.76265E+03
 -7.19133E+03 -5.16762E+03  6.07415E+02 -9.69599E+03  5.65185E+03 -4.28829E+03  6.46915E+03  2.09573E+03
  1.52053E+03  5.97419E+03 -5.52434E+03  7.74548E+03 -8.03092E+03  3.55686E+03 -8.44272E+03 -2.70395E+03
 -5.25550E+03 -9.62325E+03  2.49922E+03 -1.15825E+04  9.85071E+03 -6.49975E+03  1.04277E+04  1.33941E+03
  6.97292E+03  8.04941E+03 -6.37446E+02  1.06811E+04 -7.84748E+03  6.26169E+03 -8.52486E+03 -5.81743E+02
 -7.75719E+03 -7.34062E+03 -1.36698E+03 -7.84125E+03  3.59939E+03 -7.08275E+03  4.47584E+03 -3.07526E+03
  4.03710E+03  1.05936E+03 -2.58046E+02  1.41291E+03  3.34415E+02 -1.19717E+03  1.73897E+03 -4.05842E+03
  6.63295E+03 -2.16937E+03  9.12326E+03  1.34183E+03  8.74681E+03  6.58284E+03  7.47355E+03  1.28273E+04
 -2.51576E+03  1.42363E+04 -1.22485E+04  1.07503E+04 -1.50518E+04  2.56806E+03 -1.26116E+04 -5.00557E+03
 -6.46949E+03 -1.03526E+04 -2.97490E+01 -8.39793E+03  3.05190E+03 -4.83796E+03  3.38228E+03 -3.43924E+03
  2.34823E+03 -2.11918E+03  2.74847E+03 -2.63822E+03  4.84265E+03 -2.04764E+03  5.34295E+03 -6.46669E+02
  7.06507E+03  2.00691E+03  2.09528E+03  5.79132E+03 -1.37455E+03  6.28645E+03 -6.79375E+03  4.52523E+03
 -8.88425E+03 -1.49777E+03 -4.26432E+03 -6.23660E+03  1.63648E+02 -9.16354E+03  5.23538E+03 -9.53794E+03
  9.13480E+03 -5.17927E+03  1.15710E+04  1.68988E+03  8.92582E+03  8.15783E+03  1.47466E+03  1.00541E+04
 -4.08975E+03  8.72289E+03 -5.76513E+03  3.08963E+03 -3.55818E+03 -1.00004E+03 -1.32596E+03 -1.57655E+03
 -4.27038E+02  6.50899E+02 -8.17174E+02  2.85185E+03 -3.79261E+03  1.31596E+03 -6.36195E+03 -6.84179E+02
 -3.73681E+03 -6.39840E+03  1.57585E+02 -8.44292E+03  5.47325E+03 -7.73836E+03  8.38235E+03 -2.29895E+03
  8.00235E+03  4.62932E+03  3.17929E+03  7.23063E+03 -1.51934E+03  7.73902E+03 -5.81661E+03  4.63214E+03
 -7.04848E+03 -1.69713E+02 -5.40073E+03 -4.92931E+03 -3.48536E+02 -6.39043E+03  3.79761E+03 -4.33395E+03
  5.27671E+03 -1.63580E+03  3.32099E+03  1.50252E+03  9.01743E+02  2.60790E+03  7.95845E+02  9.44086E+02
  1.82634E+03  1.46595E+03  2.60502E+03  1.65071E+03  1.72702E+03  3.54175E+03  2.35478E+03  3.14916E+03
 -2.06733E+03  5.81205E+03 -4.92495E+03  6.38510E+03 -7.33443E+03  1.41544E+03 -8.11957E+03 -2.50674E+03
 -3.74830E+03 -7.37960E+03  1.51543E+03 -8.62049E+03  4.21148E+03 -4.84090E+03  5.84327E+03 -1.48378E+03
  4.89646E+03  2.62530E+03  8.08460E+02  4.57570E+03 -2.07907E+03  2.34571E+03 -2.80115E+03 -6.98253E+02
 -1.22995E+03 -2.98764E+03  2.08015E+03 -3.30392E+03  2.59712E+03 -1.40450E+03  2.69706E+03  6.44187E+02
  1.27475E+03  1.41634E+03  4.24015E+02  9.99776E+02 -4.20021E+02  1.73538E+03  1.64134E+03  3.46238E+02
  4.18871E+02 -3.74875E+02  3.47602E+03  1.48179E+03  9.78679E+02  3.99818E+03 -3.39003E+02  5.74294E+03
 -4.30510E+03  3.15048E+03 -4.33721E+03  5.64950E+02 -4.69063E+03 -1.87848E+03 -7.61024E+02 -2.50399E+03
  8.07305E+02 -3.16442E+03  1.58368E+03 -1.63706E+03  1.09703E+03  2.21726E+03 -6.35477E+02  2.32652E+03
 -3.00745E+03  1.15798E+03 -2.89566E+03 -1.81609E+03 -1.50333E+03 -3.98730E+03  4.90297E+02 -4.07585E+03
  2.41807E+03 -1.74826E+03  2.07573E+03 -5.87969E+02  2.33277E+03  7.28614E+02 -1.81400E+02  1.30841E+03
 -1.05103E+03  9.48827E+01 -1.83614E+03 -9.14051E+02  9.88811E+02 -2.62074E+03  3.42275E+03 -2.22358E+03
  4.05182E+03  3.88451E+02  4.84884E+03  3.23248E+03  2.14979E+03  4.34558E+03 -1.60864E+03  4.00196E+03
 -3.19607E+03  1.82302E+03 -3.26790E+03 -5.61619E+02 -1.65557E+03 -2.98269E+03  4.87207E+02 -2.42560E+03
  2.47152E+03 -1.80828E+03  2.31204E+03  1.31126E+03  7.24627E+02  3.02466E+03 -1.42322E+02  2.55462E+03
 -7.76997E+02  2.33456E+03 -1.60552E+03 -1.00389E+02  5.12281E+01  3.06097E+02 -1.02472E+03  1.31306E+03
 -9.27429E+02  2.72959E+03 -3.47429E+03  2.25204E+03 -4.42359E+03 -6.49073E+01 -5.11518E+03 -2.56536E+03
 -2.52688E+03 -6.04201E+03  1.00050E+03 -6.43262E+03  3.32092E+03 -4.95416E+03  5.99389E+03 -1.61214E+03
  5.80028E+03  7.35344E+02  3.73047E+03  3.67413E+03  1.34622E+02  4.55346E+03 -1.78709E+03  3.40013E+03
 -2.40372E+03  1.08635E+03 -1.23906E+03 -4.18954E+02 -1.08036E+03 -5.66282E+02 -6.32442E+02 -1.52421E+02
 -2.25486E+03  4.24310E+02 -1.48322E+03  6.13721E+02 -1.69902E+02 -1.26590E+03 -3.13264E+01 -1.88256E+03
  2.52789E+03 -1.04645E+03  2.04498E+03  8.75481E+00  2.63167E+03  2.03363E+03  1.64345E+02  3.99567E+03
 -2.35684E+03  4.86166E+03 -5.03015E+03  2.73100E+03 -4.81326E+03 -2.10557E+02 -3.47596E+03 -3.44108E+03
 -1.25929E+03 -3.88181E+03  1.47736E+03 -4.01349E+03  2.48353E+03 -1.69449E+03  2.61822E+03  2.34434E+02
  1.48695E+03  8.88683E+02  1.07285E+01  1.44874E+03 -5.62946E+02  8.51963E+02 -2.18194E+02 -9.32493E+02
  1.00405E+03 -4.66844E+02  8.98690E+02  6.96278E+01  9.90228E+02  1.14608E+03  7.90684E+02  1.80912E+03
 -1.21058E+03  1.17312E+03 -2.09464E+03  1.10522E+03 -2.27394E+03 -1.23827E+03  1.58703E+02 -3.87191E+03
  1.71380E+03 -2.40315E+03  2.94277E+03 -1.14450E+03  2.27467E+03  2.14332E+02  1.80016E+03  2.72814E+03
  3.16592E+02  2.61722E+03 -6.04847E+02  1.72971E+03 -1.20621E+03  1.72361E+03 -1.74231E+03 -2.51138E+02
 -6.06597E+02 -4.59038E+02 -7.01825E+02  2.10129E+02 -1.33242E+03  4.93355E+02 -2.22623E+03 -1.08632E+02
 -2.21787E+03 -6.43448E+02 -2.38915E+02 -1.83154E+03  6.83043E+02 -2.88291E+03  2.31760E+03 -1.06706E+03
  2.52390E+03  2.00029E+02  5.91481E+02  1.74099E+03 -9.52331E+01  1.91159E+03 -1.24551E+03  1.68587E+03
