 $NMID ID='MM_0lb_SNR400_12hz_g60_11.RAW', FMTDAT='(8E13.5)'
 TRAMP=1., VOLUME=1. $END
  3.09827E+05  1.75993E+02  3.37544E+05  2.51331E+05  8.53288E+04  3.38271E+05 -1.32329E+05  2.51455E+05
 -1.89643E+05  8.31925E+04 -1.13015E+05 -3.23674E+04  5.33059E+02 -5.06102E+04  5.36956E+04 -4.75860E+02
  3.53565E+04  5.30728E+04 -1.59638E+04  7.57483E+04 -6.11937E+04  6.43548E+04 -8.47338E+04  3.25392E+04
 -8.20249E+04 -1.17393E+04 -5.82721E+04 -5.19502E+04 -1.54284E+04 -6.97720E+04  2.86235E+04 -4.61570E+04
  4.08465E+04  3.76071E+03  1.69283E+04  4.87227E+04 -3.46613E+04  4.74995E+04 -6.78585E+04 -1.39691E+02
 -5.46033E+04 -5.74548E+04 -7.47890E+03 -7.92457E+04  3.43772E+04 -5.67534E+04  4.92015E+04 -1.84099E+04
  4.45308E+04  1.14624E+04  3.21701E+04  2.61637E+04  1.64932E+04  3.02881E+04 -5.93721E+03  2.75346E+04
 -2.24649E+04  1.26222E+04 -1.79072E+04 -5.45242E+03  5.70751E+03 -7.60951E+03  2.34192E+04  1.32176E+04
  7.51788E+03  3.71951E+04 -3.35767E+04  3.72808E+04 -6.43942E+04  2.38567E+03 -5.85207E+04 -4.43717E+04
 -1.26490E+04 -6.46623E+04  4.16564E+04 -4.71315E+04  6.07861E+04 -2.22990E+03  3.64006E+04  3.42503E+04
 -5.61848E+03  3.84663E+04 -3.15946E+04  1.80607E+04 -3.21615E+04 -4.10604E+03 -1.87519E+04 -1.20867E+04
 -9.38801E+03 -1.44992E+04  1.82539E+01 -1.95095E+04  8.39038E+03 -2.33536E+04  1.59773E+04 -1.28310E+04
  1.08657E+04  6.19286E+03 -9.67653E+03  1.26020E+04 -2.18460E+04 -5.71016E+03 -8.65787E+03 -3.59788E+04
  2.42854E+04 -4.60759E+04  5.09195E+04 -2.04675E+04  4.78751E+04  2.04107E+04  1.65880E+04  4.58133E+04
 -1.68688E+04  3.53927E+04 -2.67873E+04  2.69713E+03 -1.09343E+04 -2.91491E+04  2.10725E+04 -3.58388E+04
  4.30851E+04 -9.78378E+03  3.83682E+04  2.46205E+04  2.10533E+04  4.99136E+04 -8.53943E+03  5.41101E+04
 -3.40575E+04  3.62836E+04 -4.57839E+04  1.09440E+04 -4.58641E+04 -1.79716E+04 -2.53978E+04 -4.00991E+04
  7.34205E+03 -4.05010E+04  3.33791E+04 -1.65569E+04  3.17736E+04  1.05201E+04  4.30455E+03  2.03764E+04
 -1.43793E+04  9.51271E+03 -1.06468E+04 -7.14460E+03  6.25507E+03 -1.16831E+04  1.85420E+04  5.24566E+03
  1.42532E+04  2.23333E+04 -5.45434E+03  2.68006E+04 -2.30514E+04  1.32332E+04 -3.00965E+04 -3.95695E+03
 -2.39234E+04 -1.76928E+04 -1.04891E+04 -2.39326E+04  4.89788E+03 -2.33654E+04  1.76657E+04 -2.15893E+04
  2.98218E+04 -1.38741E+04  3.65111E+04  4.06602E+03  2.53609E+04  2.29559E+04  4.55771E+03  3.97779E+04
 -1.93709E+04  3.29037E+04 -2.98838E+04  1.14133E+04 -2.24533E+04 -1.02623E+04 -4.24339E+03 -1.27694E+04
  1.83715E+03 -2.16596E+03 -6.40461E+03  7.31922E+03 -1.85053E+04  4.85502E+03 -1.87695E+04 -8.17833E+03
 -1.12709E+04 -2.21835E+04  5.65610E+03 -2.55601E+04  1.82026E+04 -1.85031E+04  2.12615E+04 -1.63980E+03
  1.32900E+04  1.50397E+04 -1.18126E+03  2.16622E+04 -1.58263E+04  1.23151E+04 -2.14027E+04 -4.19009E+03
 -1.62494E+04 -1.95310E+04 -1.97652E+03 -2.62624E+04  1.12969E+04 -2.22523E+04  2.10565E+04 -1.05241E+04
  1.99793E+04  1.01558E+02  1.49004E+04  4.75852E+03  8.05835E+03  5.61412E+02  1.14007E+04 -2.10157E+03
  2.05960E+04  2.82960E+03  2.30410E+04  1.76272E+04  1.59718E+04  3.54740E+04 -3.28211E+03  4.05821E+04
 -2.28269E+04  3.31776E+04 -3.77500E+04  1.63721E+04 -4.03449E+04 -2.94570E+03 -3.31027E+04 -2.24017E+04
 -1.38133E+04 -3.37339E+04  1.16390E+04 -3.02498E+04  2.57302E+04 -1.41587E+04  2.15514E+04  6.72169E+03
  7.75331E+03  1.72769E+04 -1.12358E+04  1.37948E+04 -1.85657E+04  3.01049E+03 -1.38366E+04 -1.17225E+04
  1.98644E+02 -1.79751E+04  8.81622E+03 -1.33888E+04  1.17627E+04 -1.37937E+03  3.64334E+03  7.60730E+03
 -7.48138E+03  3.56599E+03 -7.83705E+03 -6.74706E+03 -1.36005E+03 -1.59206E+04  1.10471E+04 -1.70634E+04
  1.97460E+04 -1.04113E+04  2.23040E+04  2.94770E+03  1.98818E+04  1.65674E+04  9.58579E+03  2.55325E+04
 -4.73695E+03  2.77831E+04 -1.80503E+04  1.67063E+04 -1.94515E+04  3.95438E+03 -1.44196E+04 -4.70587E+03
 -5.51967E+03 -6.33621E+03 -1.18094E+03  1.25044E+03 -3.32329E+03  3.86497E+03 -7.07159E+03  4.79350E+03
 -1.24332E+04 -7.59956E+02 -1.27888E+04 -1.01711E+04 -5.65065E+03 -1.78958E+04  6.37197E+03 -1.42606E+04
  1.13129E+04 -5.50271E+03  7.75718E+03  3.66231E+03  4.37819E+02  5.83888E+03 -6.67051E+03 -2.49901E+02
 -5.77608E+03 -8.80162E+03 -1.29619E+03 -1.28970E+04  7.62236E+03 -1.41636E+04  1.81281E+04 -7.54445E+03
  2.14348E+04  2.08521E+03  1.50753E+04  1.23101E+04  3.03980E+03  1.64109E+04 -8.49302E+03  1.33747E+04
 -1.03772E+04  4.21979E+03 -6.02321E+03 -2.62270E+03  2.57896E+03 -3.89892E+03  7.11752E+03 -4.29346E+02
  6.63669E+03  6.26812E+03  9.18964E+02  1.09595E+04 -7.96287E+03  1.02859E+04 -1.33744E+04  2.68452E+03
 -8.72452E+03 -6.65238E+03  4.53727E+01 -1.15318E+04  7.55894E+03 -5.60266E+03  6.92711E+03  2.80439E+03
  2.27014E+03  7.96833E+03 -7.45485E+03  9.53673E+03 -1.11402E+04  3.94377E+03 -1.10470E+04 -3.94021E+03
 -6.21704E+03 -1.29085E+04  3.19352E+03 -1.55994E+04  1.24388E+04 -9.91901E+03  1.41392E+04  2.40715E+03
  8.05226E+03  1.12079E+04 -1.31773E+03  1.33246E+04 -1.04432E+04  7.16653E+03 -1.01434E+04 -1.26600E+03
 -9.04237E+03 -8.99406E+03 -1.61803E+03 -1.05338E+04  4.75293E+03 -8.32532E+03  6.30164E+03 -3.39905E+03
  3.91515E+03  1.31405E+03 -5.24660E+02  1.54946E+03  3.04429E+01 -2.41181E+03  1.74076E+03 -5.26765E+03
  8.47654E+03 -2.72755E+03  1.26511E+04  1.96264E+03  1.28838E+04  8.44510E+03  9.52815E+03  1.69334E+04
 -3.61241E+03  1.86102E+04 -1.56496E+04  1.40201E+04 -2.02534E+04  3.52535E+03 -1.70505E+04 -6.62475E+03
 -7.64901E+03 -1.38655E+04  4.18655E+02 -1.19582E+04  3.87193E+03 -6.28616E+03  3.91996E+03 -4.20790E+03
  2.36863E+03 -2.38556E+03  2.71592E+03 -3.81949E+03  5.59479E+03 -2.92216E+03  6.97504E+03  2.45476E+02
  8.64277E+03  1.89951E+03  4.48525E+03  7.89925E+03 -2.04633E+03  8.22814E+03 -8.95419E+03  7.10200E+03
 -1.16664E+04 -9.90999E+02 -7.46488E+03 -7.63095E+03 -1.16303E+03 -1.29819E+04  6.97880E+03 -1.23860E+04
  1.32332E+04 -7.41677E+03  1.50989E+04  1.57526E+03  1.09896E+04  1.10291E+04  2.08101E+03  1.41271E+04
 -6.42367E+03  1.16141E+04 -7.77479E+03  3.27694E+03 -6.09518E+03 -1.12422E+03 -1.36022E+03 -1.32400E+03
 -8.42155E+02  1.21187E+02 -1.98460E+03  2.73379E+03 -4.85362E+03  1.85107E+03 -8.23122E+03 -2.17462E+03
 -5.68811E+03 -8.16876E+03 -4.39748E+02 -1.14767E+04  7.35153E+03 -1.04870E+04  1.10982E+04 -2.80448E+03
  1.07559E+04  5.55157E+03  5.16371E+03  9.51518E+03 -2.90913E+03  1.20927E+04 -7.93128E+03  7.31620E+03
 -1.06828E+04  3.71710E+02 -7.96316E+03 -7.09712E+03 -7.49581E+02 -9.43414E+03  4.77375E+03 -7.15588E+03
  6.44882E+03 -2.35783E+03  4.84922E+03  1.79481E+03  2.17234E+03  3.46503E+03  1.94762E+03  1.88008E+03
  2.59961E+03  1.66945E+03  2.36649E+03  1.45697E+03  3.29005E+03  4.00654E+03  3.43976E+03  6.10818E+03
 -2.58668E+03  8.55001E+03 -7.25169E+03  9.48338E+03 -1.12289E+04  3.21420E+03 -1.21904E+04 -3.44948E+03
 -5.41783E+03 -1.10281E+04  1.17965E+03 -1.21400E+04  6.49816E+03 -7.35293E+03  9.34031E+03 -1.72243E+03
  7.27690E+03  3.95261E+03  1.43032E+03  6.39358E+03 -2.47917E+03  3.78475E+03 -4.69628E+03 -3.39137E+02
 -1.58655E+03 -5.04327E+03  2.93008E+03 -4.03567E+03  5.05976E+03 -2.38420E+03  4.88930E+03  5.50656E+02
  2.45885E+03  2.30578E+03  1.59983E+03  1.54755E+03 -9.86333E+02  1.04212E+03  1.99565E+03 -8.14507E+02
  1.12728E+03 -3.39277E+02  4.65262E+03  2.06476E+03  1.67514E+03  5.05217E+03 -6.09492E+02  7.44841E+03
 -4.80532E+03  4.69773E+03 -7.27478E+03  1.06205E+03 -6.14113E+03 -2.86484E+03 -2.14492E+03 -4.19365E+03
  1.48514E+03 -4.30446E+03  3.20355E+03 -2.35253E+03  2.48927E+03  2.55758E+03 -9.74072E+02  2.61663E+03
 -4.46776E+03  2.40473E+03 -4.29321E+03 -2.76101E+03 -2.42183E+03 -5.54097E+03  6.48916E+02 -5.62195E+03
  3.32696E+03 -3.54409E+03  4.54356E+03 -1.70666E+02  3.31693E+03  1.61912E+03  4.00973E+02  3.31097E+03
 -2.33065E+03  1.09458E+03 -2.48683E+03 -1.58496E+03  1.35729E+03 -3.92119E+03  5.23102E+03 -3.82835E+03
  6.01857E+03  5.18935E+02  6.92974E+03  4.36014E+03  2.67972E+03  6.38509E+03 -1.70045E+03  6.48641E+03
 -5.11667E+03  2.58263E+03 -5.29375E+03 -7.28727E+02 -2.99209E+03 -3.66139E+03  8.79164E+02 -2.74524E+03
  4.46155E+03 -1.96331E+03  3.78027E+03  1.26664E+03  8.22220E+02  3.38376E+03 -2.74574E+02  3.21932E+03
 -1.87223E+03  2.67587E+03 -1.42896E+03  5.81804E+02 -5.65240E+02  1.43037E+03 -8.68151E+02  1.47891E+03
 -1.43921E+03  2.48079E+03 -4.46658E+03  1.92390E+03 -6.50541E+03  5.28117E+02 -7.47336E+03 -4.22039E+03
 -3.90006E+03 -8.30094E+03  1.50526E+03 -1.00898E+04  5.88392E+03 -8.00471E+03  9.17709E+03 -3.37532E+03
  8.52480E+03  1.40384E+03  5.70766E+03  6.46948E+03  8.51598E+02  6.42742E+03 -2.85473E+03  5.29482E+03
 -4.06222E+03  1.26137E+03 -2.76277E+03 -1.17857E+03 -1.21441E+03 -5.44842E+02  1.17920E+02 -3.35720E+02
 -1.23259E+03  1.97405E+02 -1.17002E+03 -1.48097E+02 -6.93783E+02 -1.20933E+03  5.27976E+02 -2.57946E+03
  2.46099E+03 -2.46836E+03  3.75884E+03  2.27431E+01  4.75212E+03  3.20705E+03  6.08500E+02  6.36624E+03
 -3.31689E+03  7.33606E+03 -6.67267E+03  5.02981E+03 -7.57028E+03  4.93562E+01 -5.25488E+03 -4.64840E+03
 -3.07960E+03 -6.50144E+03  1.57411E+03 -5.32272E+03  4.19609E+03 -3.31063E+03  3.69392E+03  3.71927E+02
  2.57218E+03  2.49140E+03 -4.80554E+02  1.51526E+03 -1.20839E+03  1.72640E+02  3.65473E+02 -1.24955E+03
  1.82223E+03 -4.19522E+02  1.79321E+03  1.13615E+03  1.12739E+03  2.14472E+03  4.77781E+02  3.05961E+03
 -2.41758E+03  3.28324E+03 -4.62284E+03  5.12198E+02 -3.77092E+03 -2.86096E+03 -2.04991E+02 -5.01112E+03
  3.31533E+03 -4.13197E+03  4.54083E+03 -1.77595E+03  5.03733E+03  1.47324E+02  3.22794E+03  3.80177E+03
  7.16833E+02  3.64570E+03 -1.52549E+03  3.00635E+03 -2.50385E+03  1.76150E+03 -1.75721E+03  4.56270E+02
 -8.23670E+02 -8.28946E+02 -7.65390E+02  9.76812E+02 -2.25903E+03  9.66391E+02 -2.69406E+03 -1.01945E+03
 -3.50697E+03 -1.72255E+03 -8.62186E+02 -3.82231E+03  2.03160E+03 -4.49391E+03  3.83242E+03 -1.87951E+03
  3.91337E+03  8.63009E+02  2.23627E+03  2.16882E+03 -4.82467E+02  3.57531E+03 -2.14240E+03  2.71369E+03
