 $NMID ID='MM_0lb_SNR400_11hz_g60_92.RAW', FMTDAT='(8E13.5)'
 TRAMP=1., VOLUME=1. $END
  3.09658E+05  7.48927E+01  3.38298E+05  2.50209E+05  8.50215E+04  3.38554E+05 -1.32545E+05  2.50987E+05
 -1.90961E+05  8.40262E+04 -1.12544E+05 -3.23841E+04  3.81351E+02 -5.10734E+04  5.29348E+04 -2.33444E+02
  3.61478E+04  5.23584E+04 -1.67808E+04  7.55304E+04 -6.09320E+04  6.43403E+04 -8.52461E+04  3.28530E+04
 -8.12483E+04 -1.16168E+04 -5.78239E+04 -5.25199E+04 -1.53705E+04 -7.09075E+04  2.79621E+04 -4.65610E+04
  4.14725E+04  3.06381E+03  1.62907E+04  4.90788E+04 -3.39641E+04  4.84163E+04 -6.85564E+04  2.04508E+01
 -5.43703E+04 -5.79186E+04 -6.83526E+03 -7.88332E+04  3.44102E+04 -5.61655E+04  4.95475E+04 -1.80825E+04
  4.47800E+04  1.17396E+04  3.33025E+04  2.66220E+04  1.58124E+04  3.07896E+04 -5.38174E+03  2.76227E+04
 -2.15648E+04  1.15865E+04 -1.81596E+04 -4.88997E+03  7.70909E+03 -7.28039E+03  2.38430E+04  1.40082E+04
  6.98653E+03  3.61348E+04 -3.36476E+04  3.70759E+04 -6.48173E+04  1.61022E+03 -5.85874E+04 -4.44333E+04
 -1.28682E+04 -6.59285E+04  4.12303E+04 -4.62038E+04  6.16276E+04 -2.78900E+03  3.67549E+04  3.45101E+04
 -5.59317E+03  3.90093E+04 -3.19657E+04  1.84459E+04 -3.25527E+04 -3.11123E+03 -1.91883E+04 -1.17866E+04
 -8.96159E+03 -1.42171E+04 -1.07629E+03 -1.90137E+04  7.85844E+03 -2.37744E+04  1.55970E+04 -1.20897E+04
  1.12094E+04  6.11005E+03 -9.96162E+03  1.25142E+04 -2.34343E+04 -6.88416E+03 -8.34093E+03 -3.70383E+04
  2.43407E+04 -4.66417E+04  5.14637E+04 -1.95734E+04  4.87491E+04  2.01258E+04  1.75411E+04  4.64393E+04
 -1.63212E+04  3.56585E+04 -2.79396E+04  2.00610E+03 -1.14646E+04 -2.97964E+04  2.18562E+04 -3.68439E+04
  4.40736E+04 -1.11406E+04  3.89822E+04  2.52652E+04  2.05330E+04  5.04305E+04 -7.80714E+03  5.47121E+04
 -3.54107E+04  3.68942E+04 -4.65561E+04  1.01234E+04 -4.70092E+04 -1.84651E+04 -2.51878E+04 -4.11352E+04
  7.61200E+03 -4.16650E+04  3.39395E+04 -1.69135E+04  3.19604E+04  1.04883E+04  4.57802E+03  2.14731E+04
 -1.35302E+04  9.32527E+03 -1.12393E+04 -7.16069E+03  5.39200E+03 -1.13566E+04  1.83945E+04  5.51123E+03
  1.39985E+04  2.18965E+04 -5.54943E+03  2.70396E+04 -2.39771E+04  1.38210E+04 -3.16865E+04 -3.42146E+03
 -2.51634E+04 -1.78387E+04 -1.09187E+04 -2.43246E+04  3.90764E+03 -2.45772E+04  1.87243E+04 -2.20186E+04
  3.15232E+04 -1.43698E+04  3.72115E+04  5.60668E+03  2.68890E+04  2.39412E+04  4.50222E+03  4.06400E+04
 -1.96759E+04  3.36645E+04 -3.02990E+04  1.11940E+04 -2.22165E+04 -1.04930E+04 -4.74865E+03 -1.30360E+04
  8.60896E+02 -1.07881E+03 -7.17765E+03  9.10345E+03 -2.04473E+04  5.50172E+03 -1.93918E+04 -8.88887E+03
 -1.13365E+04 -2.29328E+04  5.71183E+03 -2.70524E+04  1.87056E+04 -1.93765E+04  2.24918E+04 -2.03433E+03
  1.39614E+04  1.58113E+04 -1.24321E+03  2.21317E+04 -1.54294E+04  1.34671E+04 -2.31471E+04 -4.47688E+03
 -1.64679E+04 -2.05703E+04 -1.50647E+03 -2.75858E+04  1.21866E+04 -2.24963E+04  2.19814E+04 -1.18280E+04
  2.19027E+04 -9.93948E+02  1.51083E+04  4.96863E+03  9.24012E+03  1.37451E+03  1.23243E+04 -2.57971E+03
  2.06785E+04  3.21060E+03  2.50170E+04  1.78556E+04  1.69060E+04  3.66852E+04 -2.84128E+03  4.23247E+04
 -2.40843E+04  3.49629E+04 -4.04728E+04  1.82573E+04 -4.17425E+04 -3.17694E+03 -3.49462E+04 -2.52118E+04
 -1.34905E+04 -3.64300E+04  1.30721E+04 -3.13419E+04  2.59919E+04 -1.50402E+04  2.16791E+04  7.54110E+03
  8.20993E+03  1.74490E+04 -1.14897E+04  1.49951E+04 -1.92961E+04  2.95806E+03 -1.40173E+04 -1.22157E+04
 -2.82037E+01 -1.78940E+04  9.93710E+03 -1.34491E+04  1.24250E+04 -1.80140E+03  3.75065E+03  8.89341E+03
 -8.53022E+03  3.95370E+03 -8.47759E+03 -6.59898E+03 -1.79127E+03 -1.64041E+04  1.18096E+04 -1.82086E+04
  2.15249E+04 -1.05190E+04  2.48716E+04  2.80126E+03  2.19169E+04  1.71966E+04  9.59962E+03  2.72134E+04
 -5.73567E+03  2.88490E+04 -1.95493E+04  1.90711E+04 -2.13206E+04  3.93385E+03 -1.36905E+04 -4.72802E+03
 -6.23057E+03 -6.45121E+03 -5.86788E+02  3.74236E+02 -2.44153E+03  3.74725E+03 -6.46789E+03  5.32431E+03
 -1.39257E+04 -1.86629E+02 -1.33625E+04 -1.03427E+04 -5.31006E+03 -1.85545E+04  5.57740E+03 -1.40346E+04
  1.20575E+04 -6.09304E+03  9.34618E+03  3.52235E+03  3.52639E+02  6.34009E+03 -7.44871E+03 -6.16129E+02
 -6.57041E+03 -9.74243E+03 -7.72877E+02 -1.42533E+04  8.27156E+03 -1.47243E+04  1.85648E+04 -7.57817E+03
  2.19336E+04  2.43176E+03  1.58833E+04  1.35623E+04  3.11074E+03  1.73204E+04 -8.79278E+03  1.52403E+04
 -1.20818E+04  4.13996E+03 -6.33959E+03 -2.58150E+03  2.73669E+03 -3.80329E+03  8.10014E+03 -1.49634E+03
  6.65606E+03  6.51300E+03  1.54167E+02  1.15925E+04 -8.24396E+03  1.16961E+04 -1.42989E+04  2.72741E+03
 -9.87271E+03 -8.12021E+03  8.77140E+01 -1.23686E+04  7.84953E+03 -6.23760E+03  8.45055E+03  3.37720E+03
  2.58300E+03  9.04242E+03 -7.55953E+03  1.10320E+04 -1.18561E+04  5.41421E+03 -1.29170E+04 -4.77604E+03
 -7.20137E+03 -1.40967E+04  3.20082E+03 -1.71123E+04  1.39147E+04 -9.92299E+03  1.50391E+04  2.85114E+03
  8.98302E+03  1.20474E+04 -1.07418E+03  1.45556E+04 -1.07368E+04  8.32979E+03 -1.19170E+04 -1.24350E+03
 -1.06840E+04 -9.20423E+03 -2.38704E+03 -1.13248E+04  5.82845E+03 -8.90740E+03  7.08248E+03 -3.86230E+03
  4.23093E+03  1.32480E+03 -6.48606E+02  2.44824E+03 -6.61193E+02 -2.71777E+03  2.15487E+03 -6.89672E+03
  1.03342E+04 -4.22060E+03  1.44836E+04  1.96095E+03  1.43197E+04  9.59083E+03  9.48812E+03  1.87765E+04
 -4.83517E+03  2.12400E+04 -1.80181E+04  1.55067E+04 -2.30097E+04  3.13409E+03 -1.84600E+04 -7.20274E+03
 -9.12507E+03 -1.54841E+04 -6.33412E+02 -1.26478E+04  5.47528E+03 -6.87561E+03  4.51169E+03 -4.38950E+03
  3.19189E+03 -2.91632E+03  3.49592E+03 -3.78537E+03  5.56192E+03 -2.80623E+03  6.48723E+03 -8.44167E+02
  9.81583E+03  1.82643E+03  4.96146E+03  7.40168E+03 -1.58880E+03  9.83751E+03 -1.00967E+04  7.30358E+03
 -1.26655E+04 -7.63364E+02 -8.77366E+03 -9.73537E+03 -9.95335E+02 -1.34849E+04  7.27523E+03 -1.37856E+04
  1.46449E+04 -7.54478E+03  1.74535E+04  2.47721E+03  1.17817E+04  1.18144E+04  2.79926E+03  1.62203E+04
 -5.81641E+03  1.29401E+04 -9.11822E+03  5.03899E+03 -6.40468E+03 -1.67108E+03 -2.06340E+03 -1.93257E+03
 -1.52614E+03  1.06215E+03 -2.51476E+03  2.58702E+03 -5.28581E+03  2.10844E+03 -9.17108E+03 -1.54281E+03
 -6.54819E+03 -8.70245E+03  4.27183E+02 -1.24919E+04  7.88005E+03 -1.17996E+04  1.30627E+04 -4.39905E+03
  1.21037E+04  6.22408E+03  6.17502E+03  1.14411E+04 -3.29034E+03  1.25825E+04 -8.94757E+03  8.11491E+03
 -1.20836E+04  4.06505E+02 -8.89478E+03 -6.78903E+03 -9.56563E+02 -1.05644E+04  5.94481E+03 -7.45511E+03
  7.88974E+03 -2.86633E+03  5.73665E+03  2.20043E+03  1.74942E+03  3.00992E+03  1.67415E+03  1.41749E+03
  1.93017E+03 -5.06716E+01  3.29151E+03  1.92206E+03  3.74465E+03  4.85539E+03  3.57966E+03  7.18326E+03
 -2.17139E+03  1.00965E+04 -8.41866E+03  9.50447E+03 -1.26213E+04  3.03606E+03 -1.31426E+04 -5.58284E+03
 -5.82402E+03 -1.25172E+04  2.23422E+03 -1.38965E+04  7.37114E+03 -8.15614E+03  1.06726E+04 -2.57952E+03
  7.91412E+03  3.82099E+03  1.95195E+03  7.02382E+03 -3.95991E+03  5.00753E+03 -5.46896E+03 -1.83210E+03
 -2.35102E+03 -5.59994E+03  3.96933E+03 -5.63955E+03  5.18639E+03 -2.49334E+03  5.30410E+03  1.27935E+03
  3.47744E+03  2.99449E+03  1.07449E+03  1.79486E+03 -9.97361E+02  1.67890E+03  1.07751E+03 -1.39181E+03
  2.41365E+03 -4.85994E+02  4.97401E+03  2.40438E+03  2.79509E+03  7.10139E+03 -8.24034E+02  9.06007E+03
 -5.32083E+03  5.71419E+03 -8.08540E+03  1.17841E+03 -6.82491E+03 -3.54761E+03 -2.69504E+03 -4.60865E+03
  7.89605E+02 -4.08742E+03  3.19049E+03 -2.47931E+03  2.47998E+03  2.17333E+03 -1.61540E+03  3.84828E+03
 -4.93989E+03  2.31828E+03 -6.15882E+03 -2.46127E+03 -2.33318E+03 -7.34892E+03  1.04217E+03 -5.82203E+03
  3.58406E+03 -3.59624E+03  5.15046E+03 -4.98964E+02  4.21451E+03  1.47670E+03  8.06762E+02  3.36843E+03
 -1.83937E+03  7.03711E+02 -3.16230E+03 -2.53058E+03  8.03398E+02 -4.75769E+03  5.75494E+03 -3.61834E+03
  7.27803E+03  8.51997E+02  7.41343E+03  4.54291E+03  2.18496E+03  7.08339E+03 -2.66046E+03  8.21314E+03
 -6.62140E+03  3.29851E+03 -7.27566E+03 -8.70279E+02 -2.80240E+03 -5.53613E+03  9.30238E+02 -4.09739E+03
  5.12244E+03 -2.86197E+03  4.00533E+03  2.13288E+03  1.43889E+03  5.24594E+03 -6.53381E+02  3.48369E+03
 -2.11712E+03  2.95376E+03 -2.17792E+03  7.64228E+02 -1.15038E+03  8.60874E+02 -2.07243E+03  1.86011E+03
 -1.91360E+03  2.95327E+03 -5.95554E+03  2.45150E+03 -7.73858E+03  1.85159E+02 -8.54373E+03 -5.39606E+03
 -4.16388E+03 -1.01933E+04  1.48251E+03 -1.17845E+04  7.53789E+03 -8.86041E+03  1.08106E+04 -3.64875E+03
  1.06963E+04  1.96607E+03  6.25025E+03  7.56927E+03  1.46190E+02  7.54253E+03 -3.70188E+03  6.06578E+03
 -4.73071E+03  2.33641E+03 -2.12440E+03 -1.40004E+03 -1.46797E+03 -1.06108E+03 -1.04817E+03 -1.15081E+02
 -2.23039E+03  8.23095E+02 -2.44018E+03 -8.76100E+02 -1.33462E+03 -2.14912E+03  2.27733E+02 -3.30005E+03
  4.18014E+03 -2.90302E+03  4.07048E+03 -5.24549E+02  5.02398E+03  4.70697E+03  1.08853E+03  7.65827E+03
 -4.14526E+03  9.12886E+03 -7.78239E+03  5.40245E+03 -9.78775E+03 -1.19654E+03 -7.10802E+03 -5.68478E+03
 -2.40466E+03 -7.78338E+03  2.46617E+03 -8.02830E+03  4.89159E+03 -3.16499E+03  5.02862E+03  1.74925E+02
  2.39578E+03  3.12045E+03 -4.39424E+02  1.78185E+03 -1.42731E+03 -1.79337E+02  1.05876E+02 -1.57277E+03
  3.11446E+03 -1.35666E+03  3.52968E+03  1.13284E+03  1.42860E+03  3.13092E+03 -4.20723E+02  3.73038E+03
 -3.68255E+03  3.53234E+03 -4.66037E+03  2.52148E+00 -4.74312E+03 -3.40193E+03 -1.09501E+03 -6.14478E+03
  3.67744E+03 -5.49789E+03  5.89696E+03 -1.69365E+03  5.29265E+03  1.13813E+03  3.35182E+03  4.32654E+03
  1.32725E+03  4.41620E+03 -1.86467E+03  3.93055E+03 -3.14791E+03  2.15570E+03 -2.31604E+03 -1.57978E+02
 -8.46799E+02 -3.42725E+02 -2.09578E+03  9.14227E+02 -2.46045E+03  1.09945E+03 -3.35823E+03 -4.49125E+02
 -3.87831E+03 -2.69498E+03 -7.99430E+02 -5.81398E+03  3.17357E+03 -5.07148E+03  4.71244E+03 -2.93049E+03
  5.52807E+03  5.63802E+02  1.62489E+03  3.12281E+03 -9.08631E+02  4.76590E+03 -3.90180E+03  3.35647E+03
