 $NMID ID='MM_0lb_SNR400_19hz_g55_85.RAW', FMTDAT='(8E13.5)'
 TRAMP=1., VOLUME=1. $END
  3.09683E+05  2.99921E+02  3.37607E+05  2.50216E+05  8.47057E+04  3.38008E+05 -1.32052E+05  2.50675E+05
 -1.89799E+05  8.30019E+04 -1.11092E+05 -3.25707E+04  1.10318E+03 -5.01317E+04  5.35268E+04  2.85492E+02
  3.51242E+04  5.26038E+04 -1.68213E+04  7.44988E+04 -6.02779E+04  6.30611E+04 -8.32860E+04  3.12774E+04
 -8.00242E+04 -1.10998E+04 -5.66265E+04 -5.02052E+04 -1.49223E+04 -6.85522E+04  2.67415E+04 -4.53426E+04
  3.89227E+04  4.06158E+03  1.56878E+04  4.71096E+04 -3.41234E+04  4.71415E+04 -6.62084E+04 -2.52071E+02
 -5.24499E+04 -5.58843E+04 -6.25416E+03 -7.52114E+04  3.38448E+04 -5.36941E+04  4.64180E+04 -1.61259E+04
  4.19778E+04  1.09762E+04  3.09684E+04  2.43749E+04  1.55721E+04  2.84267E+04 -5.31820E+03  2.67204E+04
 -2.17411E+04  1.25385E+04 -1.91324E+04 -4.29854E+03  4.77191E+03 -8.03396E+03  2.15383E+04  1.14608E+04
  7.55988E+03  3.31444E+04 -3.06110E+04  3.45132E+04 -6.19492E+04  2.43183E+03 -5.59339E+04 -4.16372E+04
 -1.29765E+04 -6.14092E+04  3.85492E+04 -4.40276E+04  5.57964E+04 -1.68980E+03  3.28349E+04  3.09629E+04
 -6.55377E+03  3.39342E+04 -2.93875E+04  1.35049E+04 -2.86748E+04 -5.01063E+03 -1.52440E+04 -1.03628E+04
 -7.29457E+03 -1.15926E+04 -5.63960E+02 -1.73944E+04  6.97049E+03 -2.29671E+04  1.53328E+04 -1.32727E+04
  1.20045E+04  4.49166E+03 -7.14932E+03  1.29764E+04 -1.96984E+04 -3.26728E+03 -7.79868E+03 -3.15749E+04
  2.15292E+04 -4.06120E+04  4.56204E+04 -1.88225E+04  4.27927E+04  1.83066E+04  1.45252E+04  4.17775E+04
 -1.49351E+04  3.21331E+04 -2.36511E+04  9.28905E+02 -8.90897E+03 -2.68902E+04  2.06952E+04 -3.18478E+04
  3.83783E+04 -7.45582E+03  3.24475E+04  2.27447E+04  1.64118E+04  4.33500E+04 -7.69892E+03  4.65606E+04
 -2.94983E+04  3.04894E+04 -3.82701E+04  9.13411E+03 -3.91205E+04 -1.55803E+04 -2.16657E+04 -3.47455E+04
  6.70053E+03 -3.50235E+04  2.99111E+04 -1.27704E+04  2.73072E+04  1.04795E+04  3.13052E+03  1.85302E+04
 -1.32782E+04  7.52134E+03 -1.03313E+04 -7.75380E+03  5.47519E+03 -1.02162E+04  1.79504E+04  6.37170E+03
  1.25218E+04  2.13569E+04 -6.13819E+03  2.40711E+04 -2.12503E+04  9.56174E+03 -2.57455E+04 -6.16357E+03
 -1.75990E+04 -1.59681E+04 -6.27341E+03 -1.76895E+04  3.86910E+03 -1.56218E+04  1.34269E+04 -1.53534E+04
  2.18224E+04 -1.13857E+04  2.87874E+04  1.56673E+03  2.20336E+04  1.73215E+04  3.99228E+03  3.32324E+04
 -1.65072E+04  2.68210E+04 -2.55361E+04  9.54990E+03 -1.94735E+04 -1.00854E+04 -4.30276E+03 -1.41996E+04
  2.16017E+03 -3.61640E+03 -2.90139E+03  5.45902E+03 -1.30159E+04  5.44382E+03 -1.41627E+04 -4.97517E+03
 -8.97254E+03 -1.63264E+04  4.59572E+03 -1.98019E+04  1.27627E+04 -1.41565E+04  1.56060E+04 -1.67706E+03
  9.32776E+03  1.12291E+04 -1.06658E+03  1.67009E+04 -1.06720E+04  8.93339E+03 -1.58805E+04 -3.53551E+03
 -1.20844E+04 -1.43748E+04 -2.00414E+03 -1.96416E+04  8.35382E+03 -1.57496E+04  1.65513E+04 -7.13465E+03
  1.50940E+04  7.29295E+02  1.07140E+04  4.16716E+03  5.53029E+03  2.21515E+02  7.44067E+03 -1.29936E+03
  1.42107E+04  3.05091E+03  1.49565E+04  1.29211E+04  9.51901E+03  2.55140E+04 -3.35775E+03  2.67392E+04
 -1.65606E+04  2.08004E+04 -2.53316E+04  1.03214E+04 -2.53239E+04 -1.80426E+03 -2.19510E+04 -1.44060E+04
 -1.01902E+04 -2.09333E+04  6.86418E+03 -2.00329E+04  1.67477E+04 -1.10803E+04  1.59879E+04  3.91172E+03
  6.54719E+03  1.18663E+04 -6.73413E+03  1.04859E+04 -1.34841E+04  2.71943E+03 -1.03724E+04 -8.76818E+03
 -4.36113E+01 -1.22189E+04  6.49518E+03 -9.68009E+03  8.09533E+03 -1.70066E+03  1.62248E+03  4.93072E+03
 -5.66450E+03  1.73580E+03 -3.82576E+03 -4.53386E+03  3.88497E+02 -1.09329E+04  7.96460E+03 -1.03685E+04
  1.26158E+04 -4.80725E+03  1.19607E+04  2.44525E+03  1.07011E+04  9.27889E+03  5.07585E+03  1.47021E+04
 -1.51530E+03  1.64221E+04 -1.04173E+04  1.04616E+04 -1.17308E+04  3.12766E+03 -9.22081E+03 -2.32915E+03
 -4.29037E+03 -2.72234E+03 -7.35416E+02  8.25907E+02 -2.13244E+03  1.79367E+03 -3.74475E+03  3.34454E+03
 -7.77840E+03 -4.88313E+02 -8.66230E+03 -7.53440E+03 -4.09396E+03 -1.12612E+04  3.41841E+03 -8.84006E+03
  7.45702E+03 -3.24284E+03  5.23002E+03  1.82808E+03  3.70251E+02  2.94423E+03 -3.64947E+03 -2.25611E+02
 -3.65226E+03 -5.56686E+03 -1.34828E+03 -7.89434E+03  3.81717E+03 -8.21839E+03  1.03020E+04 -4.84364E+03
  1.18232E+04  9.93514E+02  9.20438E+03  5.95316E+03  1.83538E+03  8.97992E+03 -5.45730E+03  8.40931E+03
 -6.87410E+03  2.85395E+03 -3.14863E+03 -8.56272E+02  1.50448E+03 -2.42101E+03  5.46310E+03 -8.79779E+02
  3.84422E+03  3.18116E+03  1.08667E+03  6.34361E+03 -4.87068E+03  5.61863E+03 -8.08652E+03  1.77601E+03
 -5.05262E+03 -4.28557E+03  2.95277E+02 -6.50973E+03  3.71485E+03 -3.08262E+03  3.36602E+03  1.03075E+03
  8.54931E+02  3.39590E+03 -4.10014E+03  5.56094E+03 -5.12100E+03  2.30713E+03 -4.51095E+03 -1.00383E+03
 -3.26604E+03 -5.77212E+03  1.79872E+03 -6.83280E+03  6.30327E+03 -4.35897E+03  6.64142E+03  3.17943E+02
  4.66623E+03  5.22263E+03  9.45324E+01  7.54768E+03 -5.44722E+03  4.23836E+03 -5.21555E+03 -5.19003E+02
 -5.51052E+03 -5.08925E+03 -1.00466E+03 -5.22834E+03  2.94103E+03 -4.50482E+03  2.67264E+03 -2.84528E+03
  2.71611E+03  2.12164E+02  3.47064E+02  1.28605E+03  1.39936E+02 -4.82308E+02 -4.85734E+02 -2.30435E+03
  3.99235E+03 -8.21249E+02  5.42341E+03  9.43632E+02  5.89297E+03  2.73379E+03  5.17015E+03  7.21808E+03
 -1.62641E+03  8.19962E+03 -7.18425E+03  6.64456E+03 -1.03827E+04  1.43080E+03 -7.08260E+03 -2.56095E+03
 -3.94305E+03 -6.55761E+03 -5.02768E+02 -5.37773E+03  1.94725E+03 -2.15300E+03  1.74993E+03 -1.93070E+03
  9.38885E+02 -1.73234E+03  1.84041E+03 -2.25895E+03  4.04272E+03 -1.55812E+03  3.85556E+03  5.82129E+02
  4.38797E+03  1.53842E+03  1.36022E+03  2.99696E+03 -1.97843E+03  3.11305E+03 -4.06280E+03  2.90369E+03
 -4.00045E+03 -7.70396E+02 -2.00374E+03 -3.18018E+03  2.92033E+02 -4.49331E+03  3.53405E+03 -4.93361E+03
  4.77497E+03 -3.31681E+03  6.96795E+03  2.62339E+02  4.99322E+03  3.68841E+03  1.71058E+03  6.23372E+03
 -2.26909E+03  5.50004E+03 -3.14781E+03  1.92861E+03 -1.92286E+03 -9.48588E+02 -5.79164E+02 -1.32533E+03
 -2.65144E+02  5.91904E+02 -1.04818E+03  1.82320E+03 -2.49216E+03  1.07812E+03 -3.91874E+03 -6.93173E+02
 -1.78463E+03 -3.90715E+03  7.00536E+02 -4.52287E+03  2.14566E+03 -4.68265E+03  2.89869E+03 -6.69131E+02
  3.48759E+03  2.52200E+03  1.23788E+03  3.41775E+03 -1.51671E+03  4.69562E+03 -2.47458E+03  2.30888E+03
 -3.78082E+03  4.93973E+02 -3.17780E+03 -2.49409E+03 -4.55669E+02 -2.83865E+03  1.07031E+03 -2.14506E+03
  2.82301E+03 -1.06182E+03  1.31262E+03 -3.03716E+01  8.32340E+01  1.26783E+03  8.44066E+02  7.33127E+02
  1.24201E+03  1.13687E+03  1.26378E+03  9.72147E+02  6.30693E+02  2.48737E+03  1.41625E+03  1.99714E+03
 -1.35139E+03  2.60140E+03 -2.25033E+03  3.76197E+03 -2.83643E+03  7.45251E+02 -3.78277E+03 -3.03848E+02
 -1.23804E+03 -3.41954E+03  5.19585E+02 -5.00682E+03  2.23366E+03 -2.49909E+03  2.61959E+03 -1.07791E+03
  2.36553E+03  1.97142E+03  3.49789E+02  1.66240E+03 -7.15987E+01  1.10320E+03 -1.18880E+03 -3.79343E+00
 -4.07314E+02 -2.15005E+03  1.00417E+03 -1.19870E+03  1.06922E+03 -1.12892E+03  1.31396E+03  7.45268E+02
  7.44420E+02  5.01123E+02  9.41544E+02 -5.56550E+02  1.25990E+02  6.33291E+02  1.59821E+03 -2.73398E+02
  7.14978E+01 -5.23001E+02  1.66159E+03  6.66624E+02  5.91771E+02  2.28494E+03 -1.06339E+02  2.29702E+03
 -1.26163E+03  1.15884E+03 -1.49037E+03  1.18278E+03 -1.98089E+03 -3.14702E+02 -2.56712E+02 -1.28217E+03
  1.50720E+02 -8.12196E+02  1.61057E+02 -4.47652E+02  1.20276E+03  9.96219E+02 -9.52079E+02  1.37584E+03
 -1.26875E+03  7.03183E+02 -1.33589E+03 -1.71021E+03 -9.27390E+02 -1.76739E+03  3.24727E+02 -1.04931E+03
  2.65000E+02  1.44409E+02  4.90712E+02 -7.75614E+01  9.81548E+02 -1.73301E+02  2.78359E+02  1.27963E+03
 -2.62387E+02  2.82008E+02 -1.14189E+03 -4.28080E+02  5.81916E+02 -6.31538E+02  1.46490E+03 -1.33142E+03
  1.30002E+03  8.82719E+02  2.52829E+03  5.84691E+02  1.27745E+03  1.10540E+03 -9.39251E+01  1.65336E+03
 -1.09393E+03  1.84515E+02 -1.25871E+03  5.56610E+01 -1.03541E+03 -9.68516E+02  1.69969E+02 -5.53631E+02
  8.95859E+02 -5.10614E+02  3.88215E+02  1.01988E+03  1.03423E+02  9.84831E+02  7.99808E+02  1.14509E+03
 -6.42332E+02  6.53980E+02 -2.65275E+02  5.88112E+02  4.21096E+02  7.72619E+02 -5.72744E+02  5.45674E+02
 -1.09474E+03  8.14083E+02 -1.65032E+03  9.97947E+01 -1.64806E+03 -2.69708E+02 -1.94935E+03 -5.64665E+02
 -6.95266E+02 -2.36590E+03  7.06434E+02 -1.56048E+03  3.34011E+02 -2.42298E+03  2.82677E+03 -1.21105E+03
  2.32134E+03  2.23995E+02  1.39701E+03  1.32456E+03 -3.98236E+02  1.97461E+03  1.24655E+01  1.13257E+03
 -1.08646E+03  8.11398E+02 -5.25367E+02 -5.64597E+02 -6.75577E+02  3.46099E+02 -1.08099E+03 -4.00886E+02
 -8.98942E+02  5.69538E+01 -7.89288E+02  1.91438E+00  2.00274E+02 -3.87753E+02 -5.51375E+02 -4.43981E+02
  1.52957E+03 -5.58929E+02  5.48128E+02  5.75317E+02  1.03534E+03  1.01910E+03  2.06544E+01  1.23869E+03
 -4.57717E+02  1.53230E+03 -1.17671E+03  6.53446E+02 -1.58722E+03 -1.23661E+02 -7.34963E+02 -1.21586E+03
 -1.14635E+03 -1.26719E+03  2.73136E+02 -7.91190E+02  3.18666E+02 -2.66500E+01 -3.93553E+02  3.95582E+02
  5.01157E+02  6.61879E+02  5.24064E+02  8.51753E+02 -1.47526E+02 -7.12343E+01 -2.59807E+02 -3.34528E+02
  2.86854E+02 -6.78606E+01 -8.40638E+01  7.88307E+02 -7.14820E+02  6.78270E+02  6.11201E+02  1.27733E+02
 -5.52908E+02  4.34506E+02 -7.33782E+02  1.49569E+02 -4.35917E+02 -2.98878E+02  2.93095E+02 -7.19727E+02
  8.80977E+02 -7.59144E+02  3.06612E+02  2.97075E+02  1.17812E+03 -7.73957E+02  3.90727E+02  7.23787E+02
  8.84804E+02  9.44311E+01 -3.63532E+00  5.12724E+02 -4.09667E+02  1.73477E+02 -2.62272E+02  3.75135E-01
  2.54230E+02 -6.12290E+02 -4.90921E+02 -2.19083E+02 -1.32674E+03  5.79500E+02 -7.38525E+02 -2.54961E+02
 -1.13074E+03  3.60889E+02  7.67672E+01 -3.48847E+02  6.23452E+02 -1.00442E+03  1.14689E+03 -1.55922E+02
  9.99095E+02 -3.63177E+02 -5.53331E+02  8.22703E+01 -1.07353E+02  2.18788E+02  3.08763E+02  2.88504E+02
