 $NMID ID='MM_0lb_SNR400_9hz_g45_32.RAW', FMTDAT='(8E13.5)'
 TRAMP=1., VOLUME=1. $END
  3.10124E+05  6.50625E+02  3.37499E+05  2.50421E+05  8.47769E+04  3.38208E+05 -1.32645E+05  2.51793E+05
 -1.89971E+05  8.36218E+04 -1.12302E+05 -3.21257E+04  6.17242E+01 -5.05680E+04  5.36688E+04 -2.16079E+02
  3.54841E+04  5.37632E+04 -1.69025E+04  7.60254E+04 -6.08914E+04  6.36237E+04 -8.52726E+04  3.25077E+04
 -8.09705E+04 -1.12385E+04 -5.72330E+04 -5.24586E+04 -1.54474E+04 -7.02002E+04  2.87233E+04 -4.67103E+04
  4.10623E+04  3.81531E+03  1.72751E+04  4.88079E+04 -3.55633E+04  4.74714E+04 -6.80639E+04 -1.06678E+02
 -5.42569E+04 -5.72406E+04 -7.26518E+03 -7.77918E+04  3.52258E+04 -5.73386E+04  4.90330E+04 -1.89767E+04
  4.52640E+04  1.16689E+04  3.23435E+04  2.70049E+04  1.52323E+04  2.99518E+04 -5.42376E+03  2.83692E+04
 -2.27902E+04  1.19754E+04 -1.77622E+04 -5.85831E+03  6.87252E+03 -7.66361E+03  2.29058E+04  1.34729E+04
  6.23101E+03  3.74962E+04 -3.37812E+04  3.74475E+04 -6.61979E+04  1.93178E+03 -5.88778E+04 -4.35893E+04
 -1.31218E+04 -6.59793E+04  4.15412E+04 -4.69187E+04  6.07726E+04 -2.22957E+03  3.60133E+04  3.45840E+04
 -5.93213E+03  3.94989E+04 -3.12349E+04  1.85732E+04 -3.30574E+04 -3.03840E+03 -1.86359E+04 -1.27806E+04
 -9.06289E+03 -1.46846E+04 -4.47877E+02 -1.97210E+04  8.52268E+03 -2.32950E+04  1.61639E+04 -1.31603E+04
  1.06074E+04  5.96413E+03 -1.04025E+04  1.25639E+04 -2.33618E+04 -5.83846E+03 -8.68318E+03 -3.72792E+04
  2.44780E+04 -4.68160E+04  5.16985E+04 -2.07267E+04  4.86828E+04  2.12001E+04  1.69597E+04  4.65855E+04
 -1.65053E+04  3.60175E+04 -2.76459E+04  1.58065E+03 -1.11682E+04 -2.94421E+04  2.16453E+04 -3.70828E+04
  4.43595E+04 -1.13583E+04  3.97797E+04  2.48073E+04  2.06522E+04  5.06931E+04 -8.39571E+03  5.55654E+04
 -3.45646E+04  3.76973E+04 -4.72811E+04  1.08580E+04 -4.73197E+04 -1.82809E+04 -2.59755E+04 -4.14583E+04
  7.42706E+03 -4.27040E+04  3.39453E+04 -1.67623E+04  3.12762E+04  1.11748E+04  5.26483E+03  2.07288E+04
 -1.38284E+04  9.76816E+03 -1.07709E+04 -7.46542E+03  5.79735E+03 -1.08209E+04  1.85383E+04  5.91358E+03
  1.41611E+04  2.31691E+04 -5.33774E+03  2.69215E+04 -2.32265E+04  1.43626E+04 -3.05858E+04 -4.26292E+03
 -2.50190E+04 -1.87494E+04 -1.17070E+04 -2.48907E+04  4.90709E+03 -2.46495E+04  1.93873E+04 -2.21367E+04
  3.18257E+04 -1.49434E+04  3.74579E+04  5.26551E+03  2.66974E+04  2.31573E+04  4.39946E+03  4.01453E+04
 -1.96109E+04  3.35295E+04 -2.97242E+04  1.22766E+04 -2.30192E+04 -1.04364E+04 -4.14307E+03 -1.30022E+04
  3.98108E+02 -1.27545E+03 -7.96892E+03  8.75904E+03 -2.02901E+04  4.97259E+03 -1.97829E+04 -9.69298E+03
 -1.19377E+04 -2.29943E+04  5.65835E+03 -2.77684E+04  1.81719E+04 -1.91168E+04  2.14671E+04 -1.34648E+03
  1.45804E+04  1.59008E+04 -1.06190E+03  2.25531E+04 -1.69405E+04  1.31486E+04 -2.30668E+04 -5.21321E+03
 -1.64105E+04 -2.05621E+04 -2.85291E+03 -2.65524E+04  1.19169E+04 -2.38191E+04  2.28744E+04 -1.18177E+04
  2.14014E+04 -3.68564E+02  1.50335E+04  4.75960E+03  8.78098E+03  1.01689E+03  1.21995E+04 -1.73117E+03
  2.16240E+04  2.65542E+03  2.37964E+04  1.81152E+04  1.72664E+04  3.70010E+04 -2.64795E+03  4.34987E+04
 -2.48216E+04  3.58192E+04 -4.06165E+04  1.86601E+04 -4.29565E+04 -2.83054E+03 -3.56946E+04 -2.56635E+04
 -1.52593E+04 -3.61948E+04  1.33233E+04 -3.17094E+04  2.75838E+04 -1.44035E+04  2.30553E+04  7.25631E+03
  8.17450E+03  1.91846E+04 -1.13332E+04  1.52933E+04 -1.98556E+04  2.65637E+03 -1.44472E+04 -1.22021E+04
  2.83462E+02 -1.91339E+04  1.07553E+04 -1.31059E+04  1.30318E+04 -1.31527E+03  3.47699E+03  8.31024E+03
 -9.03072E+03  4.52257E+03 -8.91339E+03 -7.26584E+03 -2.47674E+03 -1.66005E+04  1.14968E+04 -1.97370E+04
  2.28145E+04 -1.15769E+04  2.54653E+04  2.94900E+03  2.16044E+04  1.77199E+04  1.03752E+04  2.85077E+04
 -5.20607E+03  3.16135E+04 -1.96954E+04  1.80976E+04 -2.24256E+04  3.82008E+03 -1.50863E+04 -6.18543E+03
 -6.46177E+03 -6.60459E+03 -3.28632E+02  1.30700E+03 -2.49720E+03  3.51913E+03 -6.97446E+03  5.42356E+03
 -1.40694E+04 -1.77130E+02 -1.46387E+04 -1.09203E+04 -5.15498E+03 -1.93177E+04  6.42574E+03 -1.52528E+04
  1.29322E+04 -6.12565E+03  9.40218E+03  3.08933E+03 -4.05876E+02  5.85064E+03 -8.14547E+03  3.35600E+02
 -6.85334E+03 -9.38934E+03 -1.15474E+03 -1.48646E+04  8.91314E+03 -1.67530E+04  1.97799E+04 -7.99872E+03
  2.32366E+04  2.32165E+03  1.69088E+04  1.36367E+04  2.73591E+03  1.78290E+04 -9.19520E+03  1.54073E+04
 -1.28471E+04  3.78115E+03 -5.99261E+03 -3.39654E+03  1.78283E+03 -4.47370E+03  8.15651E+03 -1.50828E+03
  7.79303E+03  5.95086E+03  1.19069E+03  1.23690E+04 -7.96988E+03  1.22589E+04 -1.43345E+04  2.65310E+03
 -1.03201E+04 -7.93694E+03 -3.00160E+02 -1.29836E+04  9.22214E+03 -7.31131E+03  1.02795E+04  3.67547E+03
  2.09616E+03  1.05245E+04 -7.80228E+03  1.16411E+04 -1.32415E+04  5.31997E+03 -1.42481E+04 -4.84364E+03
 -7.40953E+03 -1.53523E+04  3.72051E+03 -1.79860E+04  1.51155E+04 -1.10396E+04  1.60740E+04  2.31239E+03
  1.01484E+04  1.23445E+04 -1.87764E+03  1.53240E+04 -1.18192E+04  7.84320E+03 -1.22297E+04 -1.40539E+03
 -1.01579E+04 -9.50367E+03 -1.24982E+03 -1.16616E+04  5.64138E+03 -9.54538E+03  7.92866E+03 -3.74326E+03
  5.56627E+03  1.23793E+03 -1.21689E+03  1.64382E+03 -9.97121E+02 -3.12913E+03  2.13943E+03 -7.81184E+03
  1.09163E+04 -4.58871E+03  1.53295E+04  2.31555E+03  1.55739E+04  1.01612E+04  9.71394E+03  1.94084E+04
 -5.51769E+03  2.34579E+04 -1.90841E+04  1.67303E+04 -2.48116E+04  3.00921E+03 -2.01342E+04 -8.93569E+03
 -9.94919E+03 -1.66098E+04 -7.92746E+02 -1.36761E+04  5.36675E+03 -8.60257E+03  5.70855E+03 -5.12905E+03
  3.75900E+03 -2.96057E+03  3.35904E+03 -4.41990E+03  5.46091E+03 -3.93794E+03  8.61967E+03 -1.79485E+03
  1.09147E+04  2.73641E+03  5.73908E+03  9.45906E+03 -2.17016E+03  1.09202E+04 -1.13734E+04  8.52520E+03
 -1.40997E+04 -1.48755E+03 -9.44198E+03 -9.56078E+03 -1.15883E+03 -1.57664E+04  9.13038E+03 -1.60108E+04
  1.56075E+04 -8.75141E+03  1.80617E+04  2.01242E+03  1.29347E+04  1.33759E+04  2.43266E+03  1.68150E+04
 -7.74319E+03  1.42325E+04 -1.03593E+04  5.03054E+03 -6.90487E+03 -1.40408E+03 -3.20251E+03 -1.66712E+03
 -2.20830E+03  7.33127E+01 -2.66902E+03  2.69774E+03 -6.16757E+03  2.94199E+03 -9.95858E+03 -1.38713E+03
 -7.41301E+03 -9.92550E+03 -3.56751E+02 -1.42803E+04  8.51168E+03 -1.28149E+04  1.38556E+04 -3.30814E+03
  1.36694E+04  7.01736E+03  6.38986E+03  1.21018E+04 -2.35285E+03  1.35021E+04 -9.91827E+03  9.41053E+03
 -1.36865E+04  2.16238E+02 -1.07928E+04 -8.61799E+03 -1.62803E+03 -1.17456E+04  5.53974E+03 -9.34358E+03
  8.78000E+03 -3.73259E+03  6.78450E+03  2.30989E+03  2.26273E+03  4.89573E+03  1.11980E+03  1.96541E+03
  2.35680E+03  1.15242E+03  4.09376E+03  1.52377E+03  4.87115E+03  5.03336E+03  3.71981E+03  7.45726E+03
 -2.88317E+03  1.04309E+04 -9.94581E+03  1.19025E+04 -1.51437E+04  3.25849E+03 -1.56121E+04 -6.88859E+03
 -6.91003E+03 -1.44372E+04  1.84443E+03 -1.55173E+04  9.42183E+03 -1.00431E+04  1.23544E+04 -2.93815E+03
  8.99324E+03  5.47906E+03  2.54488E+03  8.65561E+03 -4.29605E+03  5.42668E+03 -5.68805E+03 -1.81413E+03
 -2.32359E+03 -6.52544E+03  2.90094E+03 -7.29223E+03  6.28216E+03 -2.69272E+03  6.62478E+03  1.47419E+03
  4.13568E+03  3.39898E+03  2.11667E+03  2.22507E+03 -2.20316E+02  8.12633E+02  7.75463E+02 -6.40644E+02
  2.11527E+03 -9.14806E+02  5.56437E+03  2.59395E+03  2.66780E+03  8.00280E+03 -1.83154E+03  1.09826E+04
 -7.39538E+03  6.98431E+03 -9.28325E+03  1.22858E+03 -7.47736E+03 -3.29999E+03 -2.97229E+03 -5.15415E+03
  1.34871E+03 -5.42578E+03  4.03683E+03 -2.85620E+03  3.28746E+03  2.71580E+03 -1.90802E+03  4.56138E+03
 -5.92710E+03  2.39065E+03 -6.60536E+03 -3.72930E+03 -3.77276E+03 -8.83010E+03  1.76085E+03 -8.09166E+03
  5.81650E+03 -4.36844E+03  5.95815E+03 -1.98703E+02  5.45796E+03  1.91399E+03  6.93455E+02  5.81486E+03
 -2.61377E+03  1.61214E+03 -3.66563E+03 -2.77806E+03  1.88413E+03 -6.33671E+03  7.00325E+03 -4.62090E+03
  9.47064E+03  7.38813E+02  8.77517E+03  5.95292E+03  2.47063E+03  9.46440E+03 -3.41113E+03  1.00348E+04
 -8.44818E+03  4.36260E+03 -7.57463E+03 -1.38238E+03 -4.10765E+03 -5.99308E+03  8.33182E+02 -5.39125E+03
  6.41531E+03 -2.97671E+03  4.81261E+03  2.52623E+03  1.84926E+03  5.40607E+03 -6.60379E+02  4.54874E+03
 -3.01172E+03  3.36774E+03 -2.16928E+03  1.58670E+03 -1.05158E+03  6.68041E+02 -2.14304E+03  2.59357E+03
 -2.74271E+03  3.04709E+03 -7.32862E+03  3.85633E+03 -1.02290E+04 -6.03861E+01 -1.04633E+04 -6.49128E+03
 -4.98955E+03 -1.36452E+04  2.16936E+03 -1.39429E+04  9.66119E+03 -1.17206E+04  1.40772E+04 -4.67398E+03
  1.32322E+04  2.23363E+03  8.26183E+03  9.88668E+03  6.88446E+02  1.02438E+04 -4.13204E+03  6.87859E+03
 -4.43745E+03  2.84981E+03 -3.61389E+03 -1.49291E+03 -5.93424E+02 -1.57384E+03 -7.18468E+02 -3.00702E+02
 -1.10059E+03 -3.54054E+02 -1.52236E+03 -4.92139E+02 -5.52793E+02 -3.19629E+03  2.32580E+02 -3.60673E+03
  4.52026E+03 -3.95235E+03  6.40525E+03 -1.05888E+02  6.29721E+03  4.76626E+03  2.12627E+03  1.04344E+04
 -4.49087E+03  1.16884E+04 -1.06694E+04  5.59240E+03 -1.26820E+04 -2.55760E+01 -9.88990E+03 -7.07287E+03
 -3.64178E+03 -1.07337E+04  3.07237E+03 -9.49627E+03  6.51428E+03 -5.58993E+03  6.02024E+03  8.58731E+02
  4.25639E+03  2.63893E+03 -6.70540E+02  3.44846E+03 -1.91810E+03 -2.19961E+02 -2.65039E+02 -2.62833E+03
  3.21302E+03 -1.72506E+03  4.01056E+03  1.18668E+03  3.06323E+03  4.26095E+03  9.01909E+01  5.53100E+03
 -4.51514E+03  4.70627E+03 -7.05734E+03 -1.07087E+02 -6.19259E+03 -5.15267E+03 -1.12144E+03 -8.51827E+03
  5.80339E+03 -7.12263E+03  7.52851E+03 -2.16291E+03  7.24650E+03  1.93278E+03  3.78980E+03  6.53158E+03
  1.04488E+03  6.16405E+03 -2.49613E+03  5.60065E+03 -4.02932E+03  3.21563E+03 -3.83027E+03  1.60377E+03
 -2.32022E+03  8.76163E+01 -2.30980E+03  1.25764E+03 -3.82416E+03  6.69396E+02 -5.25893E+03 -8.60951E+02
 -5.71368E+03 -3.43735E+03 -1.35317E+03 -6.15270E+03  3.20395E+03 -7.84096E+03  6.98031E+03 -3.01607E+03
  6.29883E+03  8.96910E+02  4.02202E+03  5.15794E+03 -3.58950E+02  6.82303E+03 -5.48693E+03  5.00870E+03
