 $NMID ID='MM_0lb_SNR400_15hz_g60_60.RAW', FMTDAT='(8E13.5)'
 TRAMP=1., VOLUME=1. $END
  3.09826E+05  8.69690E+01  3.36907E+05  2.50657E+05  8.42509E+04  3.37376E+05 -1.33015E+05  2.51065E+05
 -1.90710E+05  8.30201E+04 -1.11574E+05 -3.33380E+04  6.87242E+02 -5.05616E+04  5.42184E+04 -1.28127E+02
  3.55191E+04  5.29131E+04 -1.64156E+04  7.56115E+04 -6.11228E+04  6.35979E+04 -8.35067E+04  3.21702E+04
 -8.07134E+04 -1.11707E+04 -5.77815E+04 -5.16124E+04 -1.56393E+04 -7.01273E+04  2.76085E+04 -4.56774E+04
  4.02547E+04  4.04949E+03  1.66682E+04  4.79831E+04 -3.46879E+04  4.77119E+04 -6.68675E+04 -4.74299E+02
 -5.35907E+04 -5.72458E+04 -6.76947E+03 -7.73601E+04  3.32993E+04 -5.60641E+04  4.86680E+04 -1.84507E+04
  4.40745E+04  1.13073E+04  3.18810E+04  2.59985E+04  1.55158E+04  2.97381E+04 -6.02337E+03  2.66972E+04
 -2.18253E+04  1.15092E+04 -1.85373E+04 -5.24908E+03  6.11698E+03 -7.31744E+03  2.27507E+04  1.31706E+04
  7.66370E+03  3.53161E+04 -3.27803E+04  3.58260E+04 -6.39274E+04  2.51768E+03 -5.76121E+04 -4.29426E+04
 -1.28190E+04 -6.36639E+04  4.03538E+04 -4.57646E+04  5.90171E+04 -2.63244E+03  3.53435E+04  3.24533E+04
 -6.49473E+03  3.65422E+04 -3.03393E+04  1.68226E+04 -3.09071E+04 -4.74294E+03 -1.68334E+04 -1.12847E+04
 -9.06997E+03 -1.34487E+04 -9.47043E+02 -1.86269E+04  7.97902E+03 -2.29480E+04  1.55862E+04 -1.31069E+04
  1.11356E+04  5.22180E+03 -8.66962E+03  1.30213E+04 -2.16044E+04 -4.76656E+03 -8.52642E+03 -3.48194E+04
  2.34910E+04 -4.43629E+04  4.87072E+04 -1.99425E+04  4.60563E+04  1.94399E+04  1.55605E+04  4.43765E+04
 -1.58032E+04  3.38900E+04 -2.56758E+04  2.66290E+03 -1.02795E+04 -2.85244E+04  2.12415E+04 -3.44736E+04
  4.12410E+04 -9.15603E+03  3.67101E+04  2.38138E+04  1.81453E+04  4.70564E+04 -7.24813E+03  5.15439E+04
 -3.22280E+04  3.43835E+04 -4.28091E+04  1.08361E+04 -4.32405E+04 -1.73443E+04 -2.37448E+04 -3.86935E+04
  7.39577E+03 -3.89498E+04  3.21628E+04 -1.55366E+04  2.92598E+04  1.12792E+04  3.78298E+03  1.89895E+04
 -1.28779E+04  8.05885E+03 -1.03867E+04 -8.10980E+03  5.73366E+03 -1.08812E+04  1.84931E+04  6.45208E+03
  1.37434E+04  2.18356E+04 -5.06131E+03  2.53561E+04 -2.26748E+04  1.19057E+04 -2.87421E+04 -4.31536E+03
 -2.13986E+04 -1.75859E+04 -8.24587E+03 -2.08909E+04  4.50794E+03 -2.03611E+04  1.61860E+04 -1.95279E+04
  2.67122E+04 -1.34869E+04  3.32453E+04  2.98045E+03  2.38066E+04  2.06591E+04  4.75635E+03  3.73708E+04
 -1.77782E+04  3.04024E+04 -2.84864E+04  1.08273E+04 -2.10946E+04 -1.00976E+04 -4.56317E+03 -1.40136E+04
  1.30190E+03 -2.51681E+03 -5.20036E+03  7.13586E+03 -1.61672E+04  4.90717E+03 -1.69203E+04 -7.67806E+03
 -1.00727E+04 -1.90609E+04  5.47805E+03 -2.33858E+04  1.60512E+04 -1.62557E+04  1.87577E+04 -1.76255E+03
  1.21092E+04  1.29173E+04 -7.93947E+02  1.95657E+04 -1.34995E+04  1.07910E+04 -1.94578E+04 -3.58125E+03
 -1.32488E+04 -1.77357E+04 -2.49722E+03 -2.35735E+04  1.03721E+04 -1.96563E+04  1.91911E+04 -1.00001E+04
  1.82820E+04  3.29223E+02  1.29140E+04  4.42576E+03  6.77264E+03  1.22539E+03  9.33361E+03 -1.81041E+03
  1.78446E+04  2.94607E+03  2.02460E+04  1.61284E+04  1.26731E+04  3.02129E+04 -2.92899E+03  3.48589E+04
 -2.03856E+04  2.78384E+04 -3.22634E+04  1.46083E+04 -3.44628E+04 -2.79588E+03 -2.80801E+04 -1.99497E+04
 -1.21114E+04 -2.82585E+04  9.86246E+03 -2.55092E+04  2.18951E+04 -1.29290E+04  1.93567E+04  5.56577E+03
  7.37234E+03  1.42229E+04 -9.48015E+03  1.26487E+04 -1.63558E+04  2.93591E+03 -1.23887E+04 -1.05741E+04
 -7.43885E+02 -1.61766E+04  8.34900E+03 -1.11586E+04  1.06268E+04 -1.54775E+03  2.85585E+03  6.78558E+03
 -6.75392E+03  2.36590E+03 -5.54204E+03 -5.04898E+03 -5.48913E+01 -1.38281E+04  9.47604E+03 -1.48712E+04
  1.73973E+04 -7.53598E+03  1.82495E+04  3.11266E+03  1.60948E+04  1.35220E+04  6.98881E+03  2.05061E+04
 -3.54602E+03  2.28099E+04 -1.44742E+04  1.37585E+04 -1.64769E+04  3.41372E+03 -1.12742E+04 -3.97749E+03
 -5.61160E+03 -4.74939E+03 -6.39909E+02  9.88735E+02 -2.87743E+03  2.58836E+03 -5.59822E+03  4.00176E+03
 -1.08360E+04 -4.95550E+02 -1.10825E+04 -8.42628E+03 -4.06333E+03 -1.46427E+04  4.56717E+03 -1.20101E+04
  9.88361E+03 -4.88786E+03  6.81599E+03  2.77412E+03 -1.57878E+02  4.43335E+03 -5.80539E+03  8.59812E+01
 -5.45959E+03 -8.33394E+03 -4.51212E+02 -1.05577E+04  6.20399E+03 -1.16647E+04  1.44347E+04 -5.96429E+03
  1.70687E+04  1.17215E+03  1.22219E+04  9.32284E+03  2.71293E+03  1.30491E+04 -7.50569E+03  1.11434E+04
 -9.09633E+03  3.59707E+03 -4.84999E+03 -2.22497E+03  1.35040E+03 -3.74585E+03  5.77863E+03 -6.67018E+02
  5.66502E+03  4.50308E+03  1.16052E+03  9.32518E+03 -6.94049E+03  8.80828E+03 -1.11584E+04  2.11255E+03
 -7.24919E+03 -5.37872E+03  1.22618E+03 -9.46717E+03  5.51029E+03 -4.85088E+03  6.02939E+03  1.47811E+03
  9.96615E+02  6.49325E+03 -6.12264E+03  7.10919E+03 -8.05625E+03  3.45539E+03 -7.58012E+03 -2.73032E+03
 -5.74007E+03 -9.53065E+03  1.77325E+03 -1.11679E+04  9.23699E+03 -7.22065E+03  1.03065E+04  1.79498E+03
  6.92438E+03  8.47519E+03 -1.04372E+03  1.08209E+04 -7.41355E+03  6.14806E+03 -7.67070E+03 -2.90367E+02
 -6.96057E+03 -6.77354E+03 -1.36948E+03 -7.12364E+03  4.03682E+03 -6.74029E+03  3.94135E+03 -2.83464E+03
  3.26839E+03  1.14519E+03 -5.20139E+02  1.50703E+03  2.80749E+02 -1.81831E+03  8.29417E+02 -4.52205E+03
  6.40018E+03 -2.09465E+03  9.45177E+03  1.15567E+03  9.07760E+03  6.71179E+03  7.26752E+03  1.17009E+04
 -2.43872E+03  1.39310E+04 -1.16657E+04  1.04083E+04 -1.51070E+04  2.66157E+03 -1.19963E+04 -5.14394E+03
 -6.19667E+03 -1.05836E+04  7.67018E+01 -8.66286E+03  3.17708E+03 -4.34555E+03  3.38155E+03 -3.08349E+03
  1.81227E+03 -1.95389E+03  3.40683E+03 -2.53724E+03  4.33574E+03 -1.67793E+03  4.73157E+03 -3.15151E+02
  6.49319E+03  1.82303E+03  3.03162E+03  5.66552E+03 -1.80694E+03  5.44889E+03 -7.10748E+03  4.76028E+03
 -7.59247E+03 -1.08988E+03 -3.51277E+03 -5.91316E+03 -2.00870E+02 -8.00414E+03  5.29886E+03 -8.63105E+03
  8.54542E+03 -5.13172E+03  1.05431E+04  7.28067E+02  7.92796E+03  7.76531E+03  1.94311E+03  9.87503E+03
 -3.83937E+03  8.49177E+03 -5.68393E+03  2.83812E+03 -3.14297E+03 -9.21550E+02 -1.21885E+03 -6.40259E+02
 -2.32303E+02  4.88782E+02 -9.73739E+02  2.86409E+03 -3.13529E+03  1.24719E+03 -5.38542E+03 -9.59912E+02
 -3.89316E+03 -6.24772E+03  1.29832E+02 -7.88336E+03  4.92698E+03 -7.97612E+03  6.80460E+03 -2.23285E+03
  6.85160E+03  4.13784E+03  3.09982E+03  6.27471E+03 -1.18353E+03  7.35756E+03 -4.70997E+03  4.56969E+03
 -6.45894E+03  3.28648E+02 -5.41685E+03 -4.80665E+03 -6.22415E+02 -6.10620E+03  3.16550E+03 -4.51374E+03
  4.41640E+03 -2.66448E+03  2.97081E+03  9.08106E+02  9.49226E+02  2.87431E+03  1.09807E+03  9.75337E+02
  2.51137E+03  7.12659E+02  2.35069E+03  1.33232E+03  1.46387E+03  3.60173E+03  2.07444E+03  3.15389E+03
 -1.38617E+03  5.23761E+03 -4.78263E+03  6.73564E+03 -7.19681E+03  1.90032E+03 -7.59223E+03 -2.29253E+03
 -3.17011E+03 -7.43385E+03  8.50817E+02 -7.72405E+03  4.07172E+03 -5.28833E+03  5.80970E+03 -1.89199E+03
  4.42407E+03  2.83161E+03  1.21643E+03  4.20839E+03 -1.38989E+03  3.08656E+03 -2.56735E+03 -8.04063E+02
 -1.49346E+03 -2.89321E+03  1.97932E+03 -2.56251E+03  2.69278E+03 -1.91237E+03  2.76148E+03  6.72305E+02
  2.08860E+03  1.12783E+03  8.27217E+02  3.88290E+02 -2.29419E+02  6.33528E+02  1.06053E+03  3.81737E+00
  5.55731E+02 -5.35925E+02  2.19023E+03  1.02540E+03  1.15935E+03  3.60556E+03 -9.05059E+02  5.51703E+03
 -3.09572E+03  2.62908E+03 -3.94604E+03  7.44612E+02 -4.56676E+03 -1.19868E+03 -9.28428E+02 -1.72528E+03
  8.98437E+02 -2.18510E+03  1.10087E+03 -5.87534E+02  8.02436E+02  1.86346E+03 -6.76095E+02  1.78095E+03
 -2.80659E+03  1.34368E+03 -2.24006E+03 -1.77847E+03 -1.85706E+03 -4.04835E+03  1.15406E+02 -3.70401E+03
  1.25964E+03 -2.06386E+03  1.99588E+03 -2.45424E+02  2.29200E+03  8.00558E+01  4.21625E+02  1.26283E+03
 -6.22365E+02  4.94206E+02 -1.50977E+03 -7.73239E+02  7.66598E+02 -2.64964E+03  2.89955E+03 -2.23720E+03
  3.52732E+03  1.05464E+03  4.13087E+03  1.58265E+03  1.40810E+03  3.85064E+03 -1.05471E+03  4.13106E+03
 -2.88588E+03  1.27590E+03 -3.33395E+03 -2.68272E+02 -1.74984E+03 -2.75326E+03  1.71201E+02 -1.59613E+03
  2.21553E+03 -1.06501E+03  1.40250E+03  7.69407E+02  4.13059E+02  2.30261E+03 -6.89341E+01  2.00208E+03
 -1.36170E+02  2.39267E+03 -9.70172E+02  4.95890E+02 -4.41932E+02  1.99257E+01 -1.37903E+03  1.18645E+03
 -8.09679E+02  1.85599E+03 -3.02321E+03  7.41422E+02 -3.52106E+03  1.04364E+02 -3.96595E+03 -2.11744E+03
 -2.32015E+03 -5.04254E+03  1.31892E+03 -5.09433E+03  3.34167E+03 -4.14441E+03  4.66158E+03 -1.38105E+03
  4.89291E+03  2.33241E+02  2.84906E+03  3.17027E+03 -2.79881E+02  3.10304E+03 -2.10203E+03  2.99370E+03
 -2.01574E+03  9.46311E+02 -1.83044E+03 -7.77487E+02 -1.12351E+03 -3.02299E+01 -1.02448E+03  4.02169E+01
 -1.35798E+03 -6.68242E+01 -1.15422E+03 -4.10458E+02  2.08096E+02 -1.25726E+03 -3.26427E+02 -1.80702E+03
  1.94897E+03 -1.05573E+03  1.43595E+03  1.85963E+02  2.72228E+03  2.12403E+03  6.38875E+02  2.54390E+03
 -2.05355E+03  3.96582E+03 -3.93009E+03  2.27125E+03 -2.93760E+03 -1.35064E+02 -3.15560E+03 -2.64414E+03
 -1.26396E+03 -3.28679E+03  5.24476E+02 -2.69893E+03  1.84329E+03 -1.43172E+03  2.05709E+03  7.76175E+02
  1.41988E+03  8.37211E+02  4.82615E+02  1.27738E+03 -3.50340E+02 -7.48562E+01  7.83714E+00 -6.01089E+02
  9.73898E+02  1.39250E+02  9.83811E+02  5.35860E+02  2.96251E+02  3.09716E+02  1.13853E+03  1.25917E+03
 -1.08646E+03  1.22451E+03 -1.20295E+03  3.94802E+01 -1.67969E+03 -6.32054E+02 -3.76398E+02 -2.54939E+03
  1.04704E+03 -1.76244E+03  1.65622E+03 -2.08328E+02  2.00554E+03 -6.08888E+02  1.67697E+03  1.48092E+03
  3.22932E+02  1.68770E+03 -1.01414E+03  1.37977E+03 -1.30746E+03  7.89470E+02 -1.07041E+03  7.96901E+02
 -2.71670E+02  3.12590E+02 -6.40865E+02  7.34813E+02 -9.58594E+02  4.43068E+02 -1.61990E+03 -1.98215E+02
 -1.85248E+03 -1.00652E+03 -6.47341E+02 -1.92560E+03  1.18078E+03 -2.62654E+03  1.51721E+03 -5.15713E+02
  1.50698E+03 -2.46802E+01  5.76638E+02  1.64619E+03 -4.55598E+02  2.07828E+03 -1.50722E+03  9.46615E+02
