 $NMID ID='MM_0lb_SNR400_14hz_g50_9.RAW', FMTDAT='(8E13.5)'
 TRAMP=1., VOLUME=1. $END
  3.10068E+05 -1.74532E+02  3.38027E+05  2.50061E+05  8.45181E+04  3.37517E+05 -1.33308E+05  2.50435E+05
 -1.90567E+05  8.38535E+04 -1.11978E+05 -3.22809E+04  1.41750E+03 -5.01231E+04  5.35752E+04  4.84802E+02
  3.53010E+04  5.33385E+04 -1.68761E+04  7.46799E+04 -6.04362E+04  6.31912E+04 -8.43123E+04  3.19940E+04
 -8.16463E+04 -1.14122E+04 -5.65782E+04 -5.15466E+04 -1.50869E+04 -6.97501E+04  2.71365E+04 -4.59585E+04
  3.96702E+04  3.00987E+03  1.67903E+04  4.74871E+04 -3.41476E+04  4.75932E+04 -6.70409E+04  1.41070E+02
 -5.32696E+04 -5.70586E+04 -6.65906E+03 -7.71492E+04  3.43638E+04 -5.51922E+04  4.78423E+04 -1.74548E+04
  4.35496E+04  1.15365E+04  3.21494E+04  2.62362E+04  1.54015E+04  2.82805E+04 -5.09016E+03  2.78112E+04
 -2.15882E+04  1.22265E+04 -1.88342E+04 -4.80572E+03  5.68149E+03 -7.38304E+03  2.26442E+04  1.29043E+04
  6.89176E+03  3.50302E+04 -3.22079E+04  3.53000E+04 -6.36970E+04  1.77589E+03 -5.70135E+04 -4.26308E+04
 -1.25233E+04 -6.40276E+04  4.01061E+04 -4.55541E+04  5.85615E+04 -2.20644E+03  3.42162E+04  3.26091E+04
 -5.60910E+03  3.61428E+04 -3.04091E+04  1.58690E+04 -3.11283E+04 -4.48572E+03 -1.68232E+04 -1.08923E+04
 -8.46536E+03 -1.29546E+04 -1.17656E+03 -1.76787E+04  7.89169E+03 -2.28624E+04  1.50673E+04 -1.33962E+04
  1.10798E+04  5.20202E+03 -7.85195E+03  1.31954E+04 -2.15053E+04 -4.07133E+03 -7.55380E+03 -3.42131E+04
  2.31071E+04 -4.37002E+04  4.78159E+04 -1.99013E+04  4.51147E+04  1.89431E+04  1.57179E+04  4.39777E+04
 -1.54579E+04  3.37158E+04 -2.54889E+04  1.93504E+03 -1.03055E+04 -2.74389E+04  2.03794E+04 -3.43115E+04
  4.06322E+04 -9.53558E+03  3.61533E+04  2.39256E+04  1.84157E+04  4.69831E+04 -7.57650E+03  5.07081E+04
 -3.20091E+04  3.37956E+04 -4.22821E+04  9.75145E+03 -4.25931E+04 -1.67425E+04 -2.41705E+04 -3.81707E+04
  7.32926E+03 -3.80497E+04  3.18671E+04 -1.50253E+04  2.92739E+04  1.09690E+04  4.10413E+03  1.96402E+04
 -1.35377E+04  8.82993E+03 -1.06450E+04 -7.45552E+03  5.53990E+03 -1.03148E+04  1.73878E+04  5.93653E+03
  1.31249E+04  2.18202E+04 -6.04063E+03  2.55228E+04 -2.26951E+04  1.15340E+04 -2.83504E+04 -4.92753E+03
 -2.07992E+04 -1.76973E+04 -8.77081E+03 -2.15460E+04  4.50849E+03 -2.01025E+04  1.66570E+04 -1.87471E+04
  2.62999E+04 -1.28966E+04  3.28031E+04  3.71773E+03  2.41543E+04  2.04245E+04  4.27716E+03  3.70460E+04
 -1.77114E+04  3.07149E+04 -2.79910E+04  1.10826E+04 -2.09700E+04 -1.04372E+04 -4.36683E+03 -1.39256E+04
  1.71880E+03 -2.08544E+03 -4.75801E+03  6.94506E+03 -1.62641E+04  5.08267E+03 -1.61510E+04 -7.15884E+03
 -9.99544E+03 -1.90460E+04  4.53197E+03 -2.27774E+04  1.58278E+04 -1.60240E+04  1.80169E+04 -2.13504E+03
  1.16014E+04  1.33017E+04 -1.19335E+03  1.94867E+04 -1.32615E+04  1.09413E+04 -1.91160E+04 -4.05096E+03
 -1.42770E+04 -1.75698E+04 -1.57796E+03 -2.31040E+04  1.01938E+04 -1.91227E+04  1.97127E+04 -9.60180E+03
  1.76320E+04  1.49886E+01  1.24678E+04  3.94415E+03  6.71571E+03  7.01566E+02  9.90844E+03 -1.53155E+03
  1.73305E+04  3.13284E+03  1.92514E+04  1.54390E+04  1.26591E+04  2.98484E+04 -2.96117E+03  3.46040E+04
 -1.96071E+04  2.80139E+04 -3.18082E+04  1.28718E+04 -3.39542E+04 -2.86844E+03 -2.83111E+04 -1.93447E+04
 -1.19756E+04 -2.77962E+04  9.43895E+03 -2.53448E+04  2.18444E+04 -1.28709E+04  1.90947E+04  4.89769E+03
  7.84468E+03  1.51348E+04 -9.65639E+03  1.23410E+04 -1.68366E+04  3.28095E+03 -1.22687E+04 -1.00817E+04
 -1.02292E+03 -1.54814E+04  7.69730E+03 -1.15784E+04  9.99664E+03 -1.52303E+03  1.88663E+03  6.34112E+03
 -6.41918E+03  2.46581E+03 -5.71846E+03 -5.85857E+03 -1.84918E+02 -1.37667E+04  9.74383E+03 -1.33440E+04
  1.64660E+04 -7.58184E+03  1.74350E+04  2.76731E+03  1.57359E+04  1.29466E+04  7.42633E+03  2.11095E+04
 -3.30505E+03  2.26551E+04 -1.47387E+04  1.43449E+04 -1.60485E+04  3.82286E+03 -1.12353E+04 -3.95809E+03
 -5.24781E+03 -4.75561E+03 -6.37108E+02  8.43756E+02 -2.29801E+03  2.02429E+03 -4.67307E+03  4.57515E+03
 -1.07113E+04 -9.71202E+02 -1.20043E+04 -9.35657E+03 -4.15059E+03 -1.51258E+04  4.85371E+03 -1.09421E+04
  9.68781E+03 -4.95327E+03  6.30222E+03  2.12830E+03  5.76951E+02  3.83214E+03 -5.21907E+03 -6.67355E+02
 -5.26273E+03 -6.67917E+03 -4.77144E+02 -1.12259E+04  6.22444E+03 -1.13310E+04  1.40579E+04 -6.40881E+03
  1.63649E+04  1.54491E+03  1.20132E+04  9.71351E+03  2.06759E+03  1.22514E+04 -7.06481E+03  1.14187E+04
 -8.69326E+03  3.21665E+03 -4.14559E+03 -2.09597E+03  1.18639E+03 -3.23287E+03  6.56947E+03 -4.22912E+02
  5.80242E+03  4.68682E+03  4.71244E+02  8.72096E+03 -6.29891E+03  8.03066E+03 -1.09826E+04  2.47719E+03
 -7.07458E+03 -5.64887E+03  5.90301E+01 -8.70451E+03  6.00295E+03 -4.84912E+03  5.58005E+03  1.88796E+03
  1.21159E+03  5.84296E+03 -5.58146E+03  7.24832E+03 -9.01747E+03  3.57713E+03 -8.47250E+03 -2.84369E+03
 -5.28215E+03 -1.03535E+04  2.39225E+03 -1.11146E+04  9.67326E+03 -7.36420E+03  1.06733E+04  1.41058E+03
  6.03024E+03  7.76690E+03 -9.18665E+02  1.07597E+04 -7.88026E+03  6.01910E+03 -8.03514E+03  3.06440E+02
 -7.29903E+03 -6.99696E+03 -1.10345E+03 -7.73355E+03  4.33098E+03 -6.78646E+03  5.30668E+03 -3.09611E+03
  3.73839E+03  8.13612E+02 -7.10619E+02  1.30533E+03 -1.55363E+02 -1.23729E+03  1.15401E+03 -4.28918E+03
  6.90662E+03 -2.24824E+03  9.68649E+03  9.87520E+02  8.83530E+03  6.19230E+03  6.71783E+03  1.25385E+04
 -2.30502E+03  1.43196E+04 -1.26488E+04  1.04317E+04 -1.55450E+04  1.95883E+03 -1.22587E+04 -5.06322E+03
 -6.03197E+03 -1.09123E+04 -3.04415E+02 -9.43440E+03  3.67104E+03 -4.38824E+03  3.32157E+03 -3.41231E+03
  2.71879E+03 -1.82970E+03  3.22612E+03 -3.21559E+03  4.08350E+03 -2.48334E+03  5.26671E+03 -6.12606E+02
  6.83781E+03  1.66653E+03  3.06864E+03  6.03267E+03 -1.38318E+03  6.10717E+03 -6.81472E+03  4.79937E+03
 -8.62506E+03 -1.51360E+03 -3.98063E+03 -6.01559E+03 -6.90074E+02 -9.31649E+03  5.18820E+03 -9.26690E+03
  9.14660E+03 -5.31713E+03  1.15619E+04  1.36962E+03  8.34696E+03  7.98348E+03  1.74181E+03  1.02499E+04
 -3.68282E+03  8.75209E+03 -5.54685E+03  3.26265E+03 -3.45817E+03 -1.17678E+03 -1.85452E+03 -8.39685E+02
 -9.94581E+02  2.74694E+02 -2.03599E+03  2.09733E+03 -3.40786E+03  1.52673E+03 -6.49922E+03 -1.20651E+03
 -3.11986E+03 -6.30721E+03  1.28043E+02 -7.89689E+03  5.08762E+03 -8.00878E+03  7.38419E+03 -2.28667E+03
  8.11894E+03  4.15845E+03  3.47552E+03  6.08524E+03 -1.77986E+03  8.10830E+03 -4.80725E+03  4.94513E+03
 -7.11742E+03 -2.66027E+01 -5.61298E+03 -4.58535E+03 -3.48812E+01 -7.00888E+03  3.59983E+03 -5.07029E+03
  5.40770E+03 -1.87551E+03  4.02384E+03  1.17923E+03  1.15953E+03  2.79799E+03  9.84176E+02  9.95189E+02
  1.69278E+03  8.76171E+02  2.31352E+03  9.65663E+02  2.28361E+03  3.88232E+03  2.30350E+03  3.09229E+03
 -1.50190E+03  6.23810E+03 -5.15888E+03  6.45555E+03 -7.84678E+03  2.20128E+03 -7.87283E+03 -2.23519E+03
 -3.27970E+03 -7.48403E+03  1.30552E+03 -9.28829E+03  4.44023E+03 -5.28138E+03  6.12785E+03 -9.75492E+02
  5.23833E+03  3.01862E+03  1.04382E+03  3.84158E+03 -1.84077E+03  2.94494E+03 -2.84994E+03 -4.12641E+02
 -1.85271E+03 -3.24924E+03  2.11729E+03 -3.74822E+03  2.86756E+03 -2.03708E+03  2.77084E+03  7.64825E+02
  1.95855E+03  8.21731E+02  1.24645E+03  5.74218E+02  6.47940E+01  1.38434E+03  1.91258E+03 -8.02406E+01
  1.30069E+03 -1.47409E+00  3.61228E+03  1.16738E+03  7.28174E+02  3.42155E+03 -8.92951E+01  5.38118E+03
 -3.13668E+03  2.93750E+03 -4.54155E+03  9.31663E+02 -4.08973E+03 -1.51052E+03 -1.50817E+03 -3.30278E+03
  7.18108E+02 -2.83007E+03  1.39182E+03 -1.40039E+03  7.01822E+02  1.18771E+03 -1.44029E+03  2.36169E+03
 -2.65403E+03  1.27267E+03 -3.36361E+03 -1.85635E+03 -2.06247E+03 -3.84047E+03  7.87885E+02 -3.31710E+03
  2.19888E+03 -2.15557E+03  3.16921E+03  1.33082E+02  2.63217E+03  4.89473E+02 -4.81087E+02  1.62498E+03
 -1.17175E+03  7.38725E+02 -1.60726E+03 -1.16521E+03  9.01744E+02 -3.04616E+03  3.19040E+03 -2.22445E+03
  4.05921E+03 -4.76167E+02  4.65161E+03  2.74366E+03  2.37211E+03  4.33323E+03 -1.86697E+03  4.42673E+03
 -3.28547E+03  1.21863E+03 -4.16654E+03 -3.80166E+02 -2.28592E+03 -2.52864E+03  1.12834E+03 -1.64940E+03
  3.20162E+03 -9.25185E+02  2.02009E+03  8.90785E+02  4.92292E+02  3.02265E+03  3.36073E+02  2.69361E+03
 -9.10805E+02  2.03949E+03 -7.46944E+02  2.04069E+02 -6.57770E+02  3.51752E+02 -5.28384E+02  1.00912E+03
 -1.32379E+03  2.09236E+03 -2.90884E+03  1.64973E+03 -4.14725E+03  2.91800E+02 -5.06085E+03 -2.75586E+03
 -2.37581E+03 -5.26703E+03  1.39239E+03 -7.08052E+03  3.54230E+03 -4.95610E+03  6.02091E+03 -1.86385E+03
  5.71631E+03  1.21683E+03  3.23090E+03  4.22125E+03 -1.11144E+02  3.82464E+03 -1.27107E+03  2.99886E+03
 -2.07315E+03  8.93179E+02 -1.80939E+03 -4.93045E+02 -1.45886E+02 -1.49759E+02  2.85511E+01 -2.75618E+02
 -8.66889E+02 -4.56833E+02 -1.21239E+03 -1.43511E+02 -4.08814E+02 -1.01727E+03 -2.61909E+02 -1.64495E+03
  2.15060E+03 -1.16281E+03  1.74835E+03  4.01360E+02  2.50149E+03  2.90784E+03 -3.23808E+01  3.96747E+03
 -2.10147E+03  5.41819E+03 -4.14323E+03  3.09119E+03 -4.86797E+03 -8.18892E+02 -3.40188E+03 -3.10836E+03
 -1.55403E+03 -3.17771E+03  1.19127E+03 -3.30017E+03  1.85471E+03 -1.69260E+03  2.64383E+03  2.23511E+02
  9.57301E+02  1.44047E+03  3.57022E+02  7.27358E+02 -9.17035E+02 -2.91435E+02  8.11517E+01 -1.12828E+03
  1.47176E+03  3.50038E+02  9.78137E+02  5.80058E+02  1.84952E+02  1.34133E+03  4.95587E+02  1.49880E+03
 -2.01033E+03  1.39726E+03 -2.17469E+03  4.01023E+02 -2.03108E+03 -1.89717E+03 -7.74485E+01 -2.86592E+03
  1.86098E+03 -2.30109E+03  2.84247E+03 -4.21409E+02  2.90862E+03  4.91601E+02  2.01932E+03  1.81647E+03
  3.54864E+02  2.84945E+03 -4.15492E+02  1.72112E+03 -2.18518E+03  1.33065E+03 -1.29691E+03  7.05387E+02
 -8.26102E+02 -1.36433E+02 -1.04999E+03  4.70430E+02 -1.44560E+03  2.62012E+02 -1.75073E+03 -1.81602E+02
 -1.56392E+03 -1.12188E+03 -7.39190E+02 -2.14764E+03  1.23241E+03 -3.32410E+03  2.06595E+03 -1.19528E+03
  2.00559E+03  4.10157E+02  3.67820E+02  6.26409E+02 -3.81506E+02  2.35377E+03 -2.43961E+03  1.44721E+03
