 $NMID ID='MM_0lb_SNR400_20hz_g50_23.RAW', FMTDAT='(8E13.5)'
 TRAMP=1., VOLUME=1. $END
  3.09804E+05  4.43098E+02  3.37238E+05  2.50081E+05  8.47948E+04  3.37079E+05 -1.32565E+05  2.50513E+05
 -1.89368E+05  8.20302E+04 -1.10476E+05 -3.29415E+04  1.80337E+03 -5.03063E+04  5.44766E+04  7.83363E+02
  3.52791E+04  5.26467E+04 -1.68120E+04  7.49688E+04 -6.06350E+04  6.24525E+04 -8.30248E+04  3.13639E+04
 -7.94349E+04 -1.09105E+04 -5.62626E+04 -5.06690E+04 -1.55450E+04 -6.80460E+04  2.71941E+04 -4.48895E+04
  3.90158E+04  3.68229E+03  1.48673E+04  4.69072E+04 -3.41545E+04  4.58217E+04 -6.46422E+04 -1.07722E+03
 -5.20148E+04 -5.53756E+04 -5.99115E+03 -7.45365E+04  3.30140E+04 -5.29757E+04  4.57746E+04 -1.64255E+04
  4.18884E+04  1.10872E+04  3.03150E+04  2.39044E+04  1.54685E+04  2.76863E+04 -4.80728E+03  2.69670E+04
 -2.17774E+04  1.33563E+04 -1.93708E+04 -4.10292E+03  3.67784E+03 -7.27834E+03  2.11011E+04  1.04888E+04
  7.47242E+03  3.27709E+04 -2.97738E+04  3.39081E+04 -6.06148E+04  1.99307E+03 -5.50987E+04 -4.05316E+04
 -1.21705E+04 -6.08017E+04  3.82878E+04 -4.28779E+04  5.47984E+04 -1.95548E+03  3.16758E+04  3.04146E+04
 -6.52179E+03  3.24042E+04 -2.78822E+04  1.34503E+04 -2.70898E+04 -5.76198E+03 -1.37182E+04 -9.55658E+03
 -7.21482E+03 -1.07767E+04 -1.20920E+03 -1.66120E+04  5.86096E+03 -2.27045E+04  1.49524E+04 -1.43386E+04
  1.26513E+04  4.03526E+03 -6.02939E+03  1.32631E+04 -1.91548E+04 -2.32906E+03 -8.05663E+03 -2.98725E+04
  2.05505E+04 -4.02735E+04  4.45340E+04 -1.85555E+04  4.16863E+04  1.84315E+04  1.40670E+04  4.13587E+04
 -1.45055E+04  3.05354E+04 -2.33197E+04  5.54277E+02 -7.85829E+03 -2.57789E+04  2.06773E+04 -3.06891E+04
  3.73036E+04 -6.98454E+03  3.04583E+04  2.23385E+04  1.47750E+04  4.20382E+04 -8.09090E+03  4.44141E+04
 -2.76773E+04  2.85743E+04 -3.63378E+04  7.97330E+03 -3.75666E+04 -1.43576E+04 -2.07970E+04 -3.35778E+04
  7.05587E+03 -3.36504E+04  2.88489E+04 -1.28340E+04  2.60304E+04  1.05641E+04  2.54998E+03  1.69932E+04
 -1.34588E+04  7.36913E+03 -9.47051E+03 -7.91548E+03  6.49094E+03 -9.52459E+03  1.71828E+04  6.47287E+03
  1.19819E+04  2.13989E+04 -6.76468E+03  2.27970E+04 -2.16378E+04  8.86163E+03 -2.45081E+04 -6.36325E+03
 -1.61805E+04 -1.58239E+04 -4.92514E+03 -1.65751E+04  3.34404E+03 -1.38801E+04  1.15263E+04 -1.42325E+04
  2.05615E+04 -1.16668E+04  2.69318E+04  4.35579E+02  2.04793E+04  1.53136E+04  3.59994E+03  3.16994E+04
 -1.56372E+04  2.70667E+04 -2.60030E+04  9.27225E+03 -1.96012E+04 -9.75381E+03 -4.20654E+03 -1.37575E+04
  3.03603E+03 -4.86110E+03 -2.29443E+03  4.49206E+03 -1.20590E+04  5.31745E+03 -1.27160E+04 -4.75603E+03
 -7.98827E+03 -1.42821E+04  4.20552E+03 -1.84588E+04  1.18335E+04 -1.34780E+04  1.40130E+04 -1.49352E+03
  8.85667E+03  1.04596E+04 -5.51924E+02  1.52721E+04 -9.77119E+03  7.96061E+03 -1.43534E+04 -3.44732E+03
 -1.10303E+04 -1.36346E+04 -1.47275E+03 -1.85990E+04  8.09994E+03 -1.47346E+04  1.55320E+04 -6.82941E+03
  1.33472E+04  7.08979E+02  1.01788E+04  3.81328E+03  5.02129E+03  4.42911E+02  7.47334E+03 -1.16800E+03
  1.28931E+04  2.79775E+03  1.34154E+04  1.21361E+04  8.60985E+03  2.30689E+04 -3.41977E+03  2.50687E+04
 -1.49174E+04  1.90129E+04 -2.32037E+04  8.34542E+03 -2.38083E+04 -1.70399E+03 -2.01305E+04 -1.30181E+04
 -9.56957E+03 -1.85300E+04  5.77348E+03 -1.79026E+04  1.56817E+04 -1.11230E+04  1.48212E+04  3.24662E+03
  6.66592E+03  1.01828E+04 -6.80757E+03  1.01765E+04 -1.24461E+04  2.62111E+03 -1.00337E+04 -7.08345E+03
 -1.30856E+02 -1.12361E+04  5.31161E+03 -9.01862E+03  7.28459E+03 -1.70760E+03  1.40723E+03  4.48112E+03
 -5.10528E+03  8.88920E+02 -3.30297E+03 -4.49331E+03  6.05149E+02 -9.58426E+03  6.76289E+03 -8.85252E+03
  1.11181E+04 -3.92130E+03  1.07536E+04  2.39054E+03  9.86719E+03  8.65328E+03  4.51352E+03  1.24291E+04
 -9.50740E+02  1.45116E+04 -8.57200E+03  9.09971E+03 -1.02603E+04  2.92669E+03 -7.78768E+03 -1.67311E+03
 -4.80244E+03 -3.06457E+03 -6.75372E+02  1.44993E+03 -1.57018E+03  1.92252E+03 -3.47921E+03  3.05286E+03
 -7.85607E+03 -2.24572E+02 -8.56059E+03 -6.66027E+03 -3.67396E+03 -1.05240E+04  3.25719E+03 -7.86722E+03
  6.95013E+03 -4.01935E+03  5.16372E+03  1.94680E+03  4.70531E+02  2.44723E+03 -2.82324E+03 -4.16079E+02
 -3.20387E+03 -4.75434E+03 -1.33739E+02 -6.30797E+03  3.38629E+03 -6.96809E+03  8.87648E+03 -3.75277E+03
  1.08658E+04  7.03690E+02  7.51642E+03  5.38285E+03  1.71907E+03  7.54296E+03 -4.60929E+03  7.26489E+03
 -6.88671E+03  3.01765E+03 -2.88348E+03 -1.18839E+03  1.36015E+03 -1.94020E+03  4.85951E+03 -7.55164E+02
  3.81380E+03  3.66594E+03  1.49960E+03  5.75223E+03 -4.49741E+03  5.97190E+03 -6.84822E+03  1.84042E+03
 -4.42524E+03 -2.88235E+03  1.82748E+01 -6.56144E+03  3.00263E+03 -2.64932E+03  2.39759E+03  1.36453E+03
  3.82577E+02  2.26418E+03 -3.80128E+03  4.19838E+03 -4.43596E+03  2.51404E+03 -3.72802E+03 -7.39466E+02
 -2.31902E+03 -4.71630E+03  9.47513E+02 -6.28003E+03  5.37538E+03 -3.74451E+03  4.93589E+03  1.18318E+03
  4.16226E+03  4.71044E+03  2.84450E+02  6.87864E+03 -4.28589E+03  4.07916E+03 -4.23094E+03 -5.87162E+02
 -5.58586E+03 -4.88224E+03 -1.35048E+03 -4.72618E+03  2.18015E+03 -4.23963E+03  2.40984E+03 -2.45970E+03
  2.80096E+03 -1.05629E+02  3.33358E+02  1.00212E+03  5.08770E+02 -1.85234E+02  3.12503E+02 -1.03337E+03
  3.04553E+03 -1.89625E+02  4.03439E+03  5.14086E+02  4.53291E+03  2.21189E+03  5.32613E+03  5.38095E+03
 -5.18908E+02  7.08569E+03 -7.11948E+03  5.55719E+03 -8.26682E+03  1.09311E+03 -6.60458E+03 -1.96276E+03
 -3.82734E+03 -5.41750E+03 -7.96011E+02 -4.52121E+03  1.87208E+03 -2.14099E+03  1.24812E+03 -2.10808E+03
  7.80210E+02 -1.21260E+03  2.03916E+03 -2.38388E+03  3.58633E+03 -8.39441E+02  3.23292E+03  4.94906E+02
  4.18576E+03  9.79081E+02  1.13557E+03  3.22796E+03 -2.02917E+03  2.19329E+03 -4.09793E+03  2.71628E+03
 -3.71290E+03 -1.05562E+03 -1.16780E+03 -2.11280E+03  1.17343E+03 -4.10532E+03  2.40234E+03 -4.57319E+03
  4.18205E+03 -2.83216E+03  5.72830E+03 -1.55233E+01  4.22520E+03  3.70907E+03  7.12928E+02  5.08587E+03
 -1.91717E+03  5.14232E+03 -3.17085E+03  2.07118E+03 -1.36648E+03 -7.75187E+02 -2.04348E+02 -7.02208E+02
 -1.03633E+03  3.46935E+02 -1.14366E+03  2.00840E+03 -2.07940E+03  1.15756E+03 -3.80017E+03  5.47023E+01
 -9.03682E+02 -3.61049E+03  1.43288E+03 -4.02485E+03  2.20727E+03 -3.55288E+03  2.73588E+03 -3.89395E+02
  3.65779E+03  2.04598E+03  1.45865E+03  2.40102E+03 -6.86076E+02  3.30587E+03 -1.70640E+03  2.58608E+03
 -3.34969E+03  5.26424E+02 -2.95564E+03 -1.97015E+03  1.73066E+02 -2.64393E+03  1.31651E+03 -1.84131E+03
  2.11937E+03 -9.36190E+02  1.42985E+03  3.69851E+02  3.59918E+02  1.70358E+03  1.82886E+02  2.70135E+02
  1.64133E+03  8.94774E+02  1.31398E+03  8.03817E+02  6.90651E+02  2.37119E+03  1.30780E+03  1.67511E+03
 -1.31784E+03  2.61235E+03 -1.62423E+03  3.18140E+03 -2.10504E+03  1.04111E+03 -3.43851E+03  2.48828E+01
 -1.09307E+03 -2.59842E+03  2.91579E+02 -3.45534E+03  1.28660E+03 -1.94224E+03  2.02387E+03 -9.78705E+02
  1.47543E+03  1.26672E+03  4.89309E+02  1.68613E+03 -1.05376E+02  1.44605E+03 -7.93996E+02 -1.05075E+02
 -2.52555E+02 -1.09225E+03  1.15909E+03 -9.42021E+02  1.08018E+03 -6.52361E+02  1.10429E+03  5.21656E+01
  2.30121E+02  2.95030E+02  5.47439E+02  7.94928E+01 -1.39536E+02  5.12283E+02  1.62676E+03 -2.04655E+02
 -1.07985E+02 -6.52340E+02  1.31531E+03  6.53875E+02  6.39722E+02  2.21652E+03 -3.77342E+02  2.40598E+03
 -1.32481E+03  6.62122E+02 -8.84731E+02  4.04007E+02 -2.21426E+03 -2.11769E+02 -2.15142E+02 -7.65708E+02
  7.67375E+02 -6.41110E+02  7.01362E+02 -3.26117E+02  7.61582E+02  5.33667E+02 -1.19406E+03  7.62115E+02
 -9.60112E+02  1.20590E+03 -8.85793E+02 -8.63264E+02 -3.18630E+02 -1.51637E+03 -2.13119E+02 -8.45039E+02
  5.41619E+02 -3.97279E+02  6.80364E+02  4.35775E+02  8.64738E+02 -5.33240E+02  1.94376E+00  8.89068E+02
 -1.80513E+02 -2.21790E+02 -1.25065E+03  1.78906E+02  5.06768E+02 -1.78196E+02  1.38346E+03 -5.03430E+02
  7.66406E+02 -6.73777E+01  2.03269E+03  1.99642E+02  8.81941E+02  7.29096E+02 -1.46761E+02  1.70620E+03
 -1.06485E+03 -2.79677E+02 -7.92285E+02  3.96070E+02 -4.17486E+02 -9.25942E+02  2.95662E+02 -3.57358E+02
  1.05390E+03 -4.01962E+02  3.00641E+02  8.89617E+02  1.93116E+02  1.03312E+03  1.78317E+02  1.21289E+03
 -2.80728E+02  1.64102E+03 -3.23718E+02 -1.36961E+02  7.67857E+01  4.19124E+02 -1.48232E+02  3.80100E+02
 -1.29889E+02  1.08368E+03 -1.46225E+03  6.79348E+01 -1.18305E+03  3.35059E+02 -2.03031E+03 -7.01456E+02
 -1.15329E+03 -1.85337E+03  2.99554E+02 -2.24552E+03  8.97193E+02 -2.31801E+03  1.80810E+03 -8.22846E+02
  1.70720E+03 -3.31698E+02  5.82533E+02  7.97554E+02 -1.45888E+02  9.52972E+02 -5.78610E+02  1.43578E+03
 -1.04231E+03  4.90410E+02 -1.45260E+02 -4.60184E+02 -4.24101E+02  3.19601E+02 -4.44680E+01  1.58589E+02
 -9.52477E+02 -7.29069E+02 -7.98660E+02  5.58223E+01  2.29590E+02 -6.94548E+02  1.31243E+02 -2.35249E+02
  1.07348E+03 -2.56563E+02  3.16465E+02  6.85594E+02  7.87895E+02  1.15080E+03 -4.89702E+02  1.19396E+03
 -6.58480E+02  1.44093E+03 -9.06747E+02  1.28004E+03 -9.00670E+02  2.37125E+00 -5.38470E+02 -1.32245E+03
 -3.59494E+02 -6.68210E+02  1.11012E+02 -8.16486E+02  3.50032E+02 -3.46517E+02 -9.47880E+01 -5.06918E+02
  9.09608E+01 -8.83815E+00  2.45128E+02  8.83971E+01 -2.78892E+02 -2.90650E+02 -1.98725E+02 -3.26902E+02
  1.14525E+02  4.81357E+02  4.35070E+01  1.47886E+02  3.66832E+01 -1.42789E+02  4.33839E+02 -2.56164E+02
 -1.12393E+02  5.78265E+02 -5.67504E+02  3.92181E+02 -3.24265E+02 -3.97981E+02  1.27722E+02 -1.09402E+03
  6.14262E+02 -4.52043E+02  3.72082E+02  4.63735E+02  2.91659E+02 -4.52686E+02  5.23148E+01  1.46657E+02
  5.27909E+02  3.91190E+01 -1.27436E+02  9.70842E+01 -2.33698E+02  2.05667E+02 -8.03059E+02  3.05116E+02
 -3.52498E+01 -3.14446E+02 -4.78044E+02  2.13269E+02 -3.50593E+02 -4.47499E+02 -8.21059E+02 -2.10493E+02
 -9.33579E+02  3.22186E+02 -1.23356E+02 -4.69090E+02  4.76897E+01 -1.56108E+03  4.99285E+02 -2.69823E+02
  3.30497E+02 -1.06388E+02 -3.41464E+02 -3.42363E+02  5.88904E+02 -1.19071E+00 -2.83952E+02  3.96970E+02
