 $NMID ID='MM_0lb_SNR400_16hz_g50_20.RAW', FMTDAT='(8E13.5)'
 TRAMP=1., VOLUME=1. $END
  3.09754E+05 -6.38124E+01  3.37318E+05  2.50042E+05  8.51495E+04  3.38222E+05 -1.32578E+05  2.50414E+05
 -1.89990E+05  8.35410E+04 -1.11537E+05 -3.31344E+04  1.61794E+03 -5.07900E+04  5.41962E+04 -2.70704E+01
  3.50208E+04  5.28446E+04 -1.65521E+04  7.55408E+04 -6.08864E+04  6.32980E+04 -8.37672E+04  3.21891E+04
 -8.09692E+04 -1.13919E+04 -5.69651E+04 -5.05506E+04 -1.52720E+04 -6.86373E+04  2.68807E+04 -4.55723E+04
  3.99805E+04  3.24074E+03  1.56837E+04  4.80262E+04 -3.45398E+04  4.64639E+04 -6.61297E+04 -5.19076E+02
 -5.29981E+04 -5.67737E+04 -6.38999E+03 -7.64744E+04  3.37988E+04 -5.40843E+04  4.79727E+04 -1.69270E+04
  4.30808E+04  1.15006E+04  3.15997E+04  2.53177E+04  1.56407E+04  2.88437E+04 -5.35270E+03  2.69655E+04
 -2.20054E+04  1.23190E+04 -1.90642E+04 -4.68868E+03  4.95643E+03 -7.97594E+03  2.25220E+04  1.20955E+04
  7.06934E+03  3.44600E+04 -3.15145E+04  3.50690E+04 -6.22957E+04  1.91539E+03 -5.64845E+04 -4.28555E+04
 -1.22080E+04 -6.27327E+04  3.89967E+04 -4.50460E+04  5.72652E+04 -2.43834E+03  3.34783E+04  3.17921E+04
 -6.06091E+03  3.52426E+04 -2.95282E+04  1.51904E+04 -2.95987E+04 -4.92652E+03 -1.56808E+04 -1.08762E+04
 -7.79376E+03 -1.24219E+04 -3.99574E+02 -1.76534E+04  7.41510E+03 -2.28128E+04  1.57142E+04 -1.32393E+04
  1.21018E+04  4.43748E+03 -7.26379E+03  1.21789E+04 -2.03506E+04 -3.77884E+03 -8.42995E+03 -3.22769E+04
  2.17233E+04 -4.16457E+04  4.66905E+04 -1.90655E+04  4.39548E+04  1.91670E+04  1.51191E+04  4.35118E+04
 -1.54725E+04  3.25790E+04 -2.45482E+04  1.50514E+03 -9.21212E+03 -2.74402E+04  2.05775E+04 -3.25560E+04
  3.96904E+04 -8.47508E+03  3.43353E+04  2.33075E+04  1.69767E+04  4.49706E+04 -7.81300E+03  4.82452E+04
 -3.02257E+04  3.20550E+04 -4.09946E+04  9.23301E+03 -4.05351E+04 -1.59637E+04 -2.29963E+04 -3.66580E+04
  7.41619E+03 -3.62744E+04  3.12539E+04 -1.45288E+04  2.84559E+04  1.05083E+04  3.76559E+03  1.88319E+04
 -1.37978E+04  7.98543E+03 -9.76829E+03 -8.31547E+03  5.67097E+03 -1.03791E+04  1.74170E+04  6.16944E+03
  1.30416E+04  2.22542E+04 -5.75281E+03  2.43688E+04 -2.20095E+04  1.06616E+04 -2.68880E+04 -5.35149E+03
 -1.88678E+04 -1.70153E+04 -7.42026E+03 -1.85690E+04  3.30287E+03 -1.74491E+04  1.43192E+04 -1.70260E+04
  2.44131E+04 -1.23765E+04  3.06186E+04  1.83715E+03  2.29814E+04  1.87322E+04  3.99109E+03  3.50288E+04
 -1.68075E+04  2.90287E+04 -2.70961E+04  1.01942E+04 -2.03764E+04 -1.05399E+04 -3.87519E+03 -1.35843E+04
  1.70961E+03 -3.12420E+03 -3.52164E+03  6.12375E+03 -1.45705E+04  5.08584E+03 -1.50992E+04 -6.22045E+03
 -1.02508E+04 -1.75791E+04  4.62731E+03 -2.16446E+04  1.43516E+04 -1.50601E+04  1.69243E+04 -1.08751E+03
  1.05369E+04  1.24295E+04 -1.20753E+03  1.68379E+04 -1.19202E+04  9.93355E+03 -1.73555E+04 -3.63322E+03
 -1.30499E+04 -1.60721E+04 -1.59396E+03 -2.10765E+04  9.59837E+03 -1.73077E+04  1.73704E+04 -9.26397E+03
  1.66258E+04  4.79399E+02  1.16975E+04  4.35884E+03  6.31487E+03  1.22382E+03  9.00357E+03 -1.56361E+03
  1.60177E+04  2.95029E+03  1.83090E+04  1.46749E+04  1.12316E+04  2.79961E+04 -3.38393E+03  3.10306E+04
 -1.83404E+04  2.45516E+04 -2.83477E+04  1.13944E+04 -2.94659E+04 -2.29732E+03 -2.52400E+04 -1.71271E+04
 -1.14690E+04 -2.46550E+04  8.88329E+03 -2.27210E+04  1.86857E+04 -1.17837E+04  1.71086E+04  4.45860E+03
  6.89536E+03  1.29707E+04 -8.33954E+03  1.13730E+04 -1.53192E+04  2.27722E+03 -1.10933E+04 -9.56926E+03
 -3.85494E+02 -1.45723E+04  7.04001E+03 -1.03635E+04  9.20947E+03 -1.54586E+03  2.03959E+03  6.01007E+03
 -6.67571E+03  1.35959E+03 -4.51272E+03 -5.41400E+03  4.28227E+02 -1.17823E+04  8.54826E+03 -1.25835E+04
  1.43996E+04 -5.96501E+03  1.54850E+04  2.63190E+03  1.30548E+04  1.20799E+04  6.38450E+03  1.76493E+04
 -2.01676E+03  1.93593E+04 -1.18939E+04  1.16526E+04 -1.34200E+04  3.33586E+03 -1.00272E+04 -3.22211E+03
 -5.23115E+03 -4.02622E+03 -6.32101E+02  1.73468E+03 -2.73995E+03  2.65387E+03 -4.34839E+03  4.80172E+03
 -9.24843E+03 -6.41406E+02 -1.02270E+04 -7.98125E+03 -3.95780E+03 -1.33017E+04  4.41399E+03 -1.06702E+04
  8.64843E+03 -4.35525E+03  5.74489E+03  2.43502E+03  1.13177E+01  3.73275E+03 -4.79801E+03  8.18873E+01
 -3.98438E+03 -6.43592E+03 -6.91483E+02 -9.28412E+03  4.85763E+03 -9.61914E+03  1.17715E+04 -4.73227E+03
  1.41772E+04  1.59697E+03  1.06215E+04  7.87439E+03  2.61086E+03  1.10203E+04 -6.12361E+03  9.70323E+03
 -7.83884E+03  3.32421E+03 -4.19681E+03 -1.75831E+03  1.50063E+03 -2.72721E+03  5.52415E+03 -1.42277E+03
  4.77161E+03  4.01667E+03  1.01334E+03  7.81777E+03 -5.48006E+03  8.24087E+03 -9.64011E+03  1.87033E+03
 -6.57263E+03 -4.83366E+03 -3.14147E+01 -8.38754E+03  4.65217E+03 -4.27936E+03  4.68986E+03  2.10734E+03
  6.64782E+02  4.87856E+03 -4.59632E+03  6.46604E+03 -6.15101E+03  2.60637E+03 -6.08293E+03 -2.23202E+03
 -4.10221E+03 -8.16610E+03  1.81829E+03 -9.27401E+03  8.06017E+03 -4.94400E+03  8.67742E+03  1.51677E+03
  5.96106E+03  6.99269E+03 -1.30827E+02  9.03477E+03 -6.10842E+03  5.32038E+03 -7.13377E+03 -2.12423E+02
 -7.14380E+03 -5.58117E+03 -1.45676E+03 -6.43914E+03  3.45432E+03 -5.71540E+03  3.34070E+03 -3.24741E+03
  2.79180E+03  6.45833E+02 -1.21122E+02  1.04939E+03  4.16418E+02 -4.14406E+02  5.84915E+02 -2.94632E+03
  5.28122E+03 -1.31915E+03  7.60319E+03  6.28390E+02  7.17228E+03  4.82550E+03  6.08023E+03  9.72189E+03
 -2.27263E+03  1.16418E+04 -1.03443E+04  9.00378E+03 -1.26635E+04  1.51442E+03 -1.07144E+04 -3.60117E+03
 -5.27381E+03 -8.71151E+03 -4.50705E+02 -6.99542E+03  2.23172E+03 -2.75679E+03  2.80089E+03 -3.18789E+03
  1.34021E+03 -2.09666E+03  2.60713E+03 -2.28774E+03  3.59479E+03 -1.67171E+03  4.28711E+03  2.01513E+02
  5.31012E+03  1.57589E+03  1.80031E+03  4.91694E+03 -2.12963E+03  4.65013E+03 -5.24627E+03  3.83308E+03
 -7.07780E+03 -1.21124E+03 -2.71614E+03 -4.57369E+03 -1.16825E+02 -6.94438E+03  4.42141E+03 -7.21195E+03
  7.16169E+03 -4.42053E+03  9.08813E+03  8.98123E+02  6.02339E+03  6.30879E+03  1.49707E+03  7.98813E+03
 -3.21088E+03  7.82406E+03 -4.59048E+03  3.07510E+03 -3.05475E+03 -1.67760E+03 -6.74248E+02 -1.41805E+03
 -9.18313E+02  3.38905E+02 -9.54115E+02  2.25450E+03 -2.81482E+03  1.06831E+03 -5.29611E+03 -5.14411E+02
 -2.53725E+03 -5.52793E+03  6.47337E+02 -6.96055E+03  3.66752E+03 -5.72908E+03  5.90183E+03 -1.78362E+03
  5.82262E+03  3.22516E+03  2.69611E+03  5.01240E+03 -1.03689E+03  6.51066E+03 -3.73046E+03  4.16172E+03
 -5.47383E+03  3.65972E+02 -4.15643E+03 -3.26157E+03 -5.55001E+02 -4.83508E+03  2.68732E+03 -3.23246E+03
  3.95820E+03 -1.67504E+03  2.91088E+03  1.13530E+03  4.10311E+02  2.33453E+03  1.14265E+03  1.03759E+03
  1.31820E+03  1.11418E+03  1.59872E+03  1.05977E+03  1.60577E+03  2.51607E+03  2.08170E+03  3.11239E+03
 -1.50161E+03  4.38971E+03 -3.55701E+03  4.98962E+03 -5.45665E+03  2.06517E+03 -6.28385E+03 -1.48917E+03
 -2.17580E+03 -5.43193E+03  7.96532E+02 -5.90141E+03  3.37949E+03 -4.45216E+03  4.67018E+03 -1.11168E+03
  3.80387E+03  2.57826E+03  6.25835E+02  3.08428E+03 -1.44165E+03  2.10152E+03 -2.29518E+03 -6.66871E+02
 -1.64466E+03 -2.12139E+03  1.92737E+03 -2.62210E+03  2.06729E+03 -1.12952E+03  2.22603E+03  7.61390E+02
  1.24859E+03  7.13265E+02  1.01781E+03 -1.96029E+01 -1.83680E+02  1.43608E+03  1.61134E+03 -8.11898E+02
  2.30242E+02 -4.20582E+02  2.53842E+03  1.10766E+03  8.94521E+02  3.38306E+03 -2.66026E+02  4.27091E+03
 -2.86316E+03  2.00853E+03 -3.47292E+03  6.46092E+02 -2.90286E+03 -3.47018E+02 -6.18404E+02 -1.74664E+03
  7.37691E+02 -1.98537E+03  1.82206E+03 -1.10606E+03  4.77248E+02  9.52018E+02 -8.66718E+02  2.33860E+03
 -2.42953E+03  1.14631E+03 -2.82277E+03 -1.79629E+03 -1.00165E+03 -3.70403E+03  3.71353E+02 -2.50637E+03
  1.50388E+03 -1.80597E+03  1.31675E+03  7.70601E+02  1.76622E+03 -2.60914E+01  5.80546E+01  1.77019E+03
 -9.26512E+02  3.15104E+02 -1.10681E+03 -3.87563E+02  9.57131E+02 -1.85251E+03  2.52196E+03 -1.51609E+03
  2.38809E+03  3.77105E+02  3.70379E+03  2.03653E+03  1.78439E+03  3.15049E+03 -9.42909E+02  2.44852E+03
 -1.96175E+03  1.07689E+03 -2.70861E+03 -3.57657E+02 -7.37575E+02 -1.98157E+03  3.81995E+02 -6.94677E+02
  2.11552E+03 -4.73649E+02  1.75197E+03  1.25723E+03  2.30718E+02  1.93026E+03  3.55503E+02  1.82923E+03
 -1.44248E+03  8.48593E+02 -1.15932E+03  2.86151E+02  2.50648E+02  1.37035E+02 -1.17093E+03  5.74605E+02
 -2.53757E+02  1.35387E+03 -2.14022E+03  7.26170E+02 -2.56318E+03  5.17091E+02 -3.07088E+03 -1.40980E+03
 -1.04542E+03 -3.78712E+03  8.28351E+02 -4.40780E+03  1.63139E+03 -3.52005E+03  4.13968E+03 -1.43643E+03
  4.30358E+03  1.65000E+02  1.96539E+03  2.72303E+03 -1.41688E+02  2.88634E+03 -9.83524E+02  2.01554E+03
 -1.37765E+03  1.13495E+03 -1.41815E+03 -5.75589E+02 -9.67440E+02  3.05396E+02 -5.51685E+02 -1.85440E+02
 -1.14049E+03 -2.54346E+02 -7.67156E+02 -4.59002E+02  3.72317E+02 -6.70359E+02 -8.79575E+01 -1.11757E+03
  1.46944E+03 -8.02385E+02  1.00083E+03  5.09442E+02  1.66441E+03  1.37440E+03  1.90936E+01  2.66105E+03
 -1.15138E+03  3.39567E+03 -2.98236E+03  1.95798E+03 -3.71046E+03 -2.95299E+02 -2.78750E+03 -2.10724E+03
 -1.43117E+03 -2.13083E+03  1.13065E+03 -2.72280E+03  1.25657E+03 -1.64615E+03  1.31725E+03  5.55244E+02
  8.87058E+02  1.37701E+02 -1.42138E+02  2.82871E+02 -9.45248E+02 -9.17774E+01 -3.34342E+01  2.16532E+02
  4.83844E+02 -1.61878E+02  9.00231E+02  7.61514E+02  4.02271E+02  4.43294E+02  4.42065E+02  7.82476E+02
 -1.66015E+03  1.26328E+03 -1.52200E+03 -2.36164E+02 -2.04442E+03 -8.45932E+02 -4.28477E+00 -1.78929E+03
  1.19793E+03 -1.22682E+03  1.52813E+03 -3.77416E+02  1.48176E+03  9.69935E+01  8.86813E+02  1.62725E+03
  5.19965E+02  1.26442E+03  2.86351E+02  1.29262E+03 -1.19223E+03  1.15993E+03 -8.10457E+02  3.69541E+02
 -7.11114E+02 -2.45155E+02 -3.80731E+02  5.24278E+02 -8.86787E+02 -4.74758E+01 -8.68997E+02 -6.98296E+02
 -1.60197E+03 -6.91015E+02 -5.50370E+01 -9.10714E+02  9.73437E+02 -1.79725E+03  1.17404E+03 -1.00803E+03
  1.47152E+03  8.19492E+01  6.04390E+02  9.70998E+02 -4.86802E+02  1.50218E+03 -1.01821E+03  1.01756E+03
