 $NMID ID='MM_0lb_SNR400_20hz_g60_14.RAW', FMTDAT='(8E13.5)'
 TRAMP=1., VOLUME=1. $END
  3.09300E+05  6.22985E+01  3.37395E+05  2.50510E+05  8.48271E+04  3.37861E+05 -1.32639E+05  2.50558E+05
 -1.90095E+05  8.24439E+04 -1.11614E+05 -3.24084E+04  1.49501E+03 -5.07794E+04  5.40099E+04 -1.69716E+02
  3.51473E+04  5.27284E+04 -1.72573E+04  7.50879E+04 -6.05133E+04  6.31982E+04 -8.35744E+04  3.16807E+04
 -8.12456E+04 -1.09601E+04 -5.65621E+04 -5.08475E+04 -1.48605E+04 -6.86714E+04  2.65078E+04 -4.58304E+04
  3.92762E+04  3.50830E+03  1.59965E+04  4.73164E+04 -3.42706E+04  4.69216E+04 -6.60061E+04 -2.95261E+02
 -5.28799E+04 -5.65895E+04 -5.75602E+03 -7.55660E+04  3.37892E+04 -5.36952E+04  4.66561E+04 -1.66423E+04
  4.25217E+04  1.14915E+04  3.07749E+04  2.50578E+04  1.59263E+04  2.91333E+04 -5.50722E+03  2.66848E+04
 -2.20145E+04  1.30591E+04 -1.88875E+04 -4.18868E+03  4.88342E+03 -7.64483E+03  2.13438E+04  1.19836E+04
  7.25149E+03  3.43485E+04 -3.14003E+04  3.45862E+04 -6.17181E+04  2.09019E+03 -5.57170E+04 -4.16228E+04
 -1.23909E+04 -6.14710E+04  3.85423E+04 -4.45133E+04  5.61543E+04 -2.46113E+03  3.22141E+04  3.07224E+04
 -5.93857E+03  3.41919E+04 -2.86935E+04  1.41764E+04 -2.85579E+04 -4.85833E+03 -1.52942E+04 -1.00217E+04
 -7.57362E+03 -1.22339E+04 -1.30945E+03 -1.69857E+04  6.68002E+03 -2.28640E+04  1.53707E+04 -1.36241E+04
  1.21086E+04  4.38169E+03 -6.37706E+03  1.28857E+04 -1.91130E+04 -2.89938E+03 -8.20537E+03 -3.15814E+04
  2.17526E+04 -4.18908E+04  4.55332E+04 -1.87675E+04  4.25673E+04  1.86104E+04  1.45258E+04  4.24832E+04
 -1.58823E+04  3.15506E+04 -2.38232E+04  1.37398E+03 -8.50038E+03 -2.63566E+04  2.01626E+04 -3.21470E+04
  3.81594E+04 -7.49297E+03  3.22832E+04  2.25714E+04  1.59686E+04  4.34288E+04 -7.80427E+03  4.66084E+04
 -2.92234E+04  3.08336E+04 -3.80784E+04  8.97986E+03 -3.90730E+04 -1.57765E+04 -2.23680E+04 -3.52309E+04
  7.40857E+03 -3.51633E+04  2.95104E+04 -1.37310E+04  2.72425E+04  1.02582E+04  3.11622E+03  1.80625E+04
 -1.34351E+04  7.47103E+03 -9.30491E+03 -7.68318E+03  6.63263E+03 -1.02568E+04  1.73960E+04  6.15739E+03
  1.21805E+04  2.15393E+04 -6.69478E+03  2.36231E+04 -2.16661E+04  9.25246E+03 -2.57330E+04 -6.22360E+03
 -1.74234E+04 -1.66121E+04 -5.74073E+03 -1.73927E+04  2.94074E+03 -1.47321E+04  1.30178E+04 -1.46165E+04
  2.24482E+04 -1.19402E+04  2.91541E+04  1.23944E+03  2.18442E+04  1.67294E+04  3.49845E+03  3.30112E+04
 -1.60173E+04  2.81399E+04 -2.64586E+04  9.47537E+03 -1.95711E+04 -1.02335E+04 -3.14263E+03 -1.41421E+04
  2.09355E+03 -4.36564E+03 -2.64308E+03  5.47990E+03 -1.36546E+04  4.96925E+03 -1.38407E+04 -5.00132E+03
 -8.82041E+03 -1.58093E+04  4.59948E+03 -1.97352E+04  1.28780E+04 -1.38007E+04  1.47480E+04 -1.93006E+03
  9.44046E+03  1.08022E+04 -9.64912E+02  1.60578E+04 -1.10888E+04  9.05101E+03 -1.55156E+04 -3.27197E+03
 -1.21615E+04 -1.44622E+04 -1.35763E+03 -1.92700E+04  8.49072E+03 -1.59738E+04  1.67463E+04 -7.75451E+03
  1.47649E+04  3.49442E+02  1.08811E+04  4.02038E+03  4.88442E+03  2.42727E+02  7.76270E+03 -1.28414E+03
  1.40294E+04  2.33342E+03  1.49105E+04  1.29020E+04  9.79223E+03  2.47503E+04 -3.33858E+03  2.65107E+04
 -1.61798E+04  2.08850E+04 -2.47654E+04  9.87360E+03 -2.52675E+04 -1.85075E+03 -2.16195E+04 -1.39767E+04
 -9.79743E+03 -2.07082E+04  6.62707E+03 -1.88686E+04  1.66787E+04 -1.10344E+04  1.58834E+04  3.65810E+03
  6.43662E+03  1.12221E+04 -7.27267E+03  1.04581E+04 -1.32652E+04  2.84667E+03 -1.06429E+04 -8.03063E+03
 -9.92994E-01 -1.24128E+04  5.72257E+03 -1.00063E+04  8.30850E+03 -1.58872E+03  1.27855E+03  4.15989E+03
 -5.51194E+03  1.31995E+03 -4.09546E+03 -4.61916E+03  1.01153E+03 -1.00307E+04  7.98276E+03 -1.02555E+04
  1.20052E+04 -5.22765E+03  1.15632E+04  3.03972E+03  1.03291E+04  9.19490E+03  4.90239E+03  1.38149E+04
 -1.56185E+03  1.57498E+04 -9.47539E+03  9.95814E+03 -1.06213E+04  2.87605E+03 -7.72912E+03 -1.24378E+03
 -4.80665E+03 -2.99389E+03 -4.66999E+02  1.55175E+03 -1.49578E+03  1.59627E+03 -3.41306E+03  3.48558E+03
 -7.93723E+03 -4.07323E+02 -8.45592E+03 -7.42745E+03 -3.45004E+03 -1.13428E+04  2.93744E+03 -7.95735E+03
  6.42726E+03 -3.87223E+03  5.23199E+03  1.93285E+03  3.83732E+02  2.91693E+03 -3.44839E+03 -4.93091E+02
 -3.35190E+03 -5.31491E+03 -8.09891E+02 -7.25416E+03  3.49611E+03 -7.98044E+03  9.89670E+03 -3.56203E+03
  1.12702E+04  7.23855E+02  8.59019E+03  5.75148E+03  2.00073E+03  7.97699E+03 -5.07677E+03  8.18783E+03
 -6.56964E+03  2.95478E+03 -3.87206E+03 -8.22332E+02  1.01846E+03 -1.23900E+03  5.00180E+03 -9.60401E+02
  3.66654E+03  3.59077E+03  1.37326E+03  6.52407E+03 -3.74903E+03  5.84285E+03 -7.91381E+03  1.09434E+03
 -4.73182E+03 -3.48260E+03  4.69623E+02 -6.70905E+03  3.48421E+03 -3.25606E+03  3.16613E+03  9.36355E+02
 -1.71565E+02  3.01149E+03 -3.75864E+03  4.10003E+03 -4.57510E+03  2.45753E+03 -3.94482E+03 -1.10324E+03
 -2.13419E+03 -5.44207E+03  3.19948E+02 -6.54542E+03  5.47461E+03 -4.33172E+03  5.96198E+03  9.87336E+02
  4.02878E+03  4.96641E+03  2.49576E+02  6.80211E+03 -4.92276E+03  4.14443E+03 -4.94705E+03 -8.19059E+02
 -5.73551E+03 -4.67050E+03 -1.71548E+03 -4.91841E+03  3.04607E+03 -4.53208E+03  2.47320E+03 -2.80152E+03
  2.63070E+03 -2.84515E+02  3.58348E+00  9.77301E+02 -1.12480E+02 -3.49348E+02  2.53235E+02 -1.95078E+03
  3.30024E+03 -3.64458E+02  4.50574E+03  1.29314E+03  5.03117E+03  3.04257E+03  4.76121E+03  6.57764E+03
 -9.29623E+02  7.44344E+03 -7.02719E+03  5.78510E+03 -8.88080E+03  9.63249E+02 -6.87815E+03 -2.23968E+03
 -4.05893E+03 -6.34278E+03 -6.68705E+02 -4.79957E+03  1.92616E+03 -1.73726E+03  1.54603E+03 -2.34582E+03
  1.01966E+03 -1.39319E+03  2.29587E+03 -2.57285E+03  3.18257E+03 -1.53655E+03  3.12246E+03  1.75802E+02
  3.83728E+03  1.11274E+03  1.01355E+03  3.73586E+03 -1.32432E+03  2.52325E+03 -4.23286E+03  2.47196E+03
 -4.53305E+03 -1.77142E+03 -1.42304E+03 -3.22739E+03  8.24901E+02 -4.39575E+03  2.77218E+03 -4.61329E+03
  3.83019E+03 -2.50737E+03  5.57039E+03 -2.77526E+02  4.02654E+03  3.46555E+03  1.50917E+03  5.66342E+03
 -2.01660E+03  5.26275E+03 -2.44192E+03  1.59562E+03 -2.05496E+03 -8.08152E+02  1.36123E+02 -7.55182E+02
 -3.84152E+02  6.74098E+01 -6.43238E+02  2.13876E+03 -1.96430E+03  1.06596E+03 -3.73001E+03  2.21194E+01
 -8.50145E+02 -3.77628E+03  1.26486E+03 -3.55208E+03  2.37128E+03 -4.02640E+03  2.77458E+03 -1.26366E+03
  3.32734E+03  2.59196E+03  1.61438E+03  2.53451E+03 -8.04066E+02  4.25796E+03 -1.64160E+03  2.36369E+03
 -2.72066E+03  5.07411E+02 -2.70373E+03 -1.97505E+03 -5.15199E+02 -2.00941E+03  9.18152E+02 -2.19784E+03
  2.00896E+03 -1.27982E+03  1.93072E+03  7.88403E+01 -1.90376E+02  1.71799E+03  5.65695E+02  4.44594E+02
  1.16828E+03  9.62097E+02  1.00034E+03  8.45870E+02  1.38637E+03  1.63097E+03  1.54284E+03  1.55011E+03
 -1.37032E+03  2.23258E+03 -1.88841E+03  3.35953E+03 -1.59989E+03  6.64078E+02 -2.97351E+03 -7.30527E+01
 -1.62059E+03 -3.15218E+03  7.92443E+02 -4.15381E+03  1.40228E+03 -2.35890E+03  2.77085E+03 -6.53306E+02
  1.53363E+03  1.76799E+03  6.71696E+02  1.92574E+03 -8.28381E+02  8.30478E+02 -6.14116E+02 -1.72626E+02
  4.63622E+01 -1.12025E+03  6.75349E+02 -1.40272E+03  9.61457E+02 -6.47224E+02  1.04497E+03  3.81015E+02
  2.85766E+02  3.18949E+02  6.14123E+02 -4.09179E+02 -1.94461E+02  8.78086E+02  1.57714E+03 -1.29779E+02
  6.26260E+01 -5.01629E+02  1.61658E+03  6.59333E+02  9.24249E+01  1.49893E+03 -5.66528E+02  2.46180E+03
 -5.26673E+02  5.66209E+02 -1.68884E+03  4.16293E+02 -1.49300E+03 -9.22182E+01  1.29442E+02 -4.59947E+02
  1.05814E+02 -1.27018E+03  7.30430E+02 -1.13805E+03  2.41935E+02  7.28440E+02 -2.28111E+02  8.35166E+02
 -1.46807E+03  4.88203E+02 -1.17473E+03 -1.80817E+03  8.91788E+00 -2.12086E+03  7.39595E+02 -7.24368E+02
 -3.72910E+01 -4.31571E+02  1.60628E+02  4.07273E+02  1.17890E+03 -7.02444E+02  8.40835E+02  5.90917E+02
 -9.08929E+01 -8.76317E+01 -6.39682E+02  1.33862E+02  2.83976E+02 -7.67739E+02  1.25831E+03 -8.17510E+02
  6.76749E+02  2.68227E+02  2.49386E+03  3.30942E+02  9.20863E+02  9.32781E+02 -1.28823E+02  8.36256E+02
 -8.17320E+02 -2.02624E+02 -8.86329E+02  4.24595E+02 -5.11815E+02 -1.04401E+03  1.70415E+02 -5.44612E+02
  9.63777E+02 -2.13106E+02  3.74426E+02  4.14247E+02  2.44327E+02  6.46897E+02  6.60576E+02 -6.48575E+00
 -4.27060E+02  1.03026E+03 -4.83488E+02  4.14971E+02  1.42337E+02  2.22266E+02 -8.36753E+02  6.30955E+02
 -4.87562E+02  7.42924E+02 -1.31082E+03  1.96669E+02 -1.29863E+03  4.96332E+02 -1.38094E+03 -4.93703E+02
 -7.39530E+02 -1.21662E+03  3.61761E+02 -1.94361E+03  3.95118E+02 -1.51204E+03  1.94325E+03 -2.98506E+02
  1.57576E+03 -4.32875E+02  5.63566E+02  1.24958E+03 -6.19895E+02  7.07900E+02 -1.20400E+02  7.17455E+02
 -1.12625E+03  3.04110E+02 -1.38508E+02 -8.26486E+01 -3.90025E+02  5.01241E+02 -5.35601E+02  1.56611E+02
 -1.03110E+03  2.55339E+02 -7.06303E+02  1.66560E+02 -1.57688E+02 -1.23697E+02  4.68709E+01 -5.85657E+02
  1.86174E+03 -5.56293E+00 -3.36203E+02  6.27558E+02  7.99412E+02  9.86789E+02 -6.73109E+02  1.10041E+03
 -7.02642E+02  8.36254E+02 -1.14859E+03  1.14077E+03 -1.52968E+03 -2.09183E+01 -6.33584E+02 -1.17041E+03
 -4.33289E+02 -8.35189E+02 -4.46413E+02 -3.32218E+02  4.21679E+01  7.16398E+01 -4.66278E+02  1.10511E+02
  3.34249E+02  2.95475E+02 -3.93953E+01  1.72850E+02 -2.20837E+02  2.33202E+02 -5.49174E+02  2.81365E+01
  8.90487E+01 -5.94157E+01 -7.17808E+02  6.72714E+02  6.43608E+01  3.85294E+02  1.06536E+02  1.57512E+02
 -6.74087E+02  1.33269E+02  2.51266E+02 -2.96453E+02 -9.91253E+02 -1.18222E+02 -1.91493E+02 -8.12921E+02
  3.62271E+02  8.10162E+01  7.05019E+02 -1.89957E+02  3.91766E+02 -2.75086E+02  4.22422E+01  7.47366E+02
  1.33150E+02  2.33827E+01  6.94886E+01 -2.56725E+02 -7.16293E+01  1.78561E+02 -1.95688E+02  2.25842E+02
  3.51124E+02  2.10724E+01 -6.28175E+02  1.47617E+00 -2.37770E+01 -3.75771E+02 -4.08368E+02 -4.58240E+02
 -3.78417E+02  4.05104E+02 -7.57214E+02 -9.77204E+02  5.48715E+02 -1.49561E+03  2.27865E+02  3.77041E+02
  6.13052E+02  1.09379E+02 -5.32804E+02 -3.14608E+02 -6.09384E+02 -1.50320E+02 -1.95198E+02  7.84027E+01
