 $NMID ID='MM_0lb_SNR400_13hz_g55_14.RAW', FMTDAT='(8E13.5)'
 TRAMP=1., VOLUME=1. $END
  3.10379E+05  3.28413E+02  3.37369E+05  2.50723E+05  8.44494E+04  3.37903E+05 -1.32713E+05  2.51212E+05
 -1.90757E+05  8.34609E+04 -1.11814E+05 -3.33210E+04  7.80809E+02 -4.99616E+04  5.35897E+04 -4.07668E+02
  3.59368E+04  5.29453E+04 -1.68328E+04  7.58150E+04 -6.14223E+04  6.39509E+04 -8.44729E+04  3.22254E+04
 -8.17330E+04 -1.12837E+04 -5.80629E+04 -5.17738E+04 -1.44718E+04 -6.98891E+04  2.78908E+04 -4.63552E+04
  4.09006E+04  3.90448E+03  1.64102E+04  4.73217E+04 -3.42526E+04  4.80068E+04 -6.76646E+04  2.95299E+02
 -5.37048E+04 -5.79963E+04 -6.67067E+03 -7.70973E+04  3.49105E+04 -5.59609E+04  4.88125E+04 -1.77258E+04
  4.43669E+04  1.16214E+04  3.22868E+04  2.55904E+04  1.59198E+04  2.99109E+04 -5.54284E+03  2.72394E+04
 -2.26250E+04  1.25115E+04 -1.84114E+04 -4.78709E+03  6.12702E+03 -7.43018E+03  2.26454E+04  1.26879E+04
  6.42370E+03  3.59164E+04 -3.27246E+04  3.60927E+04 -6.42754E+04  1.72219E+03 -5.75101E+04 -4.35827E+04
 -1.22911E+04 -6.42616E+04  4.04796E+04 -4.56013E+04  5.91846E+04 -2.14710E+03  3.53356E+04  3.38586E+04
 -6.51572E+03  3.81462E+04 -3.04783E+04  1.62900E+04 -3.04242E+04 -4.24467E+03 -1.75727E+04 -1.12051E+04
 -7.97970E+03 -1.36719E+04 -7.40197E+02 -1.88997E+04  8.33829E+03 -2.33089E+04  1.50680E+04 -1.24012E+04
  1.13599E+04  5.84696E+03 -9.13913E+03  1.28710E+04 -2.19452E+04 -4.16778E+03 -7.91615E+03 -3.55700E+04
  2.33625E+04 -4.45506E+04  4.99150E+04 -2.00801E+04  4.68819E+04  2.02400E+04  1.64812E+04  4.49689E+04
 -1.66059E+04  3.48854E+04 -2.57418E+04  2.59695E+03 -1.04106E+04 -2.86900E+04  2.14352E+04 -3.46352E+04
  4.24921E+04 -9.16091E+03  3.75387E+04  2.42800E+04  1.98268E+04  4.78550E+04 -8.90420E+03  5.20648E+04
 -3.31831E+04  3.45319E+04 -4.42471E+04  9.97655E+03 -4.45741E+04 -1.69205E+04 -2.47634E+04 -3.95085E+04
  8.24210E+03 -3.95456E+04  3.26689E+04 -1.56123E+04  3.00400E+04  1.16245E+04  4.60620E+03  1.99806E+04
 -1.37064E+04  8.15446E+03 -1.04320E+04 -7.26081E+03  5.58069E+03 -1.12527E+04  1.81996E+04  6.13868E+03
  1.39008E+04  2.23814E+04 -6.06596E+03  2.52245E+04 -2.30010E+04  1.21823E+04 -2.88973E+04 -4.18756E+03
 -2.29682E+04 -1.74808E+04 -9.50725E+03 -2.25895E+04  3.91759E+03 -2.19868E+04  1.71966E+04 -2.01643E+04
  2.84978E+04 -1.38925E+04  3.37229E+04  3.96969E+03  2.48175E+04  2.12649E+04  4.09078E+03  3.79384E+04
 -1.91417E+04  3.20544E+04 -2.90630E+04  1.10309E+04 -2.16765E+04 -1.02376E+04 -4.79150E+03 -1.31266E+04
  1.52594E+03 -2.62523E+03 -6.33997E+03  6.96320E+03 -1.70916E+04  4.87972E+03 -1.77006E+04 -7.82207E+03
 -1.11833E+04 -2.04234E+04  5.46429E+03 -2.48330E+04  1.60067E+04 -1.72830E+04  1.95383E+04 -1.95377E+03
  1.24716E+04  1.38816E+04 -9.20725E+02  2.07642E+04 -1.44276E+04  1.22066E+04 -2.01242E+04 -4.65580E+03
 -1.55171E+04 -1.82283E+04 -2.14522E+03 -2.47849E+04  1.09584E+04 -2.03499E+04  2.06498E+04 -9.61217E+03
  1.94198E+04  5.51766E+01  1.42318E+04  4.55304E+03  7.46228E+03  1.40105E+03  1.02701E+04 -1.87574E+03
  1.87676E+04  2.15967E+03  2.14837E+04  1.61523E+04  1.39477E+04  3.30874E+04 -2.74339E+03  3.74154E+04
 -2.11237E+04  3.02985E+04 -3.43653E+04  1.47218E+04 -3.73993E+04 -2.69348E+03 -3.05812E+04 -2.12725E+04
 -1.28905E+04 -3.10141E+04  1.12519E+04 -2.67836E+04  2.34375E+04 -1.41363E+04  2.07002E+04  6.06024E+03
  7.00895E+03  1.52569E+04 -8.95399E+03  1.38018E+04 -1.76917E+04  2.75376E+03 -1.31820E+04 -1.05254E+04
 -3.12950E+02 -1.59924E+04  8.93316E+03 -1.25956E+04  1.11503E+04 -1.33457E+03  3.51143E+03  7.20712E+03
 -7.80942E+03  3.31373E+03 -6.55977E+03 -6.07730E+03 -9.45245E+02 -1.51465E+04  1.04088E+04 -1.59346E+04
  1.79675E+04 -8.86211E+03  1.98867E+04  3.22192E+03  1.70719E+04  1.44133E+04  7.83364E+03  2.24420E+04
 -3.91791E+03  2.48636E+04 -1.62362E+04  1.57200E+04 -1.83976E+04  3.16333E+03 -1.15245E+04 -4.25749E+03
 -5.83712E+03 -6.06169E+03 -1.45847E+03  8.35921E+02 -3.06020E+03  2.76279E+03 -5.13089E+03  4.80251E+03
 -1.21141E+04 -8.11308E+02 -1.29123E+04 -1.00065E+04 -5.23185E+03 -1.62722E+04  4.59073E+03 -1.21280E+04
  1.05233E+04 -5.47800E+03  7.74133E+03  3.13724E+03 -1.23424E+02  4.51808E+03 -6.26603E+03 -5.75851E+02
 -6.20367E+03 -8.23736E+03 -9.86175E+02 -1.18854E+04  6.94534E+03 -1.28454E+04  1.58273E+04 -6.91451E+03
  1.81630E+04  1.12706E+03  1.38366E+04  1.06394E+04  3.06762E+03  1.41126E+04 -8.05086E+03  1.22238E+04
 -1.05537E+04  4.16256E+03 -5.44516E+03 -2.81214E+03  2.34518E+03 -3.39422E+03  6.95850E+03 -1.10595E+03
  5.31410E+03  5.76226E+03  9.56781E+02  1.04149E+04 -7.43028E+03  9.59210E+03 -1.21209E+04  2.20545E+03
 -7.77231E+03 -6.34213E+03  1.79102E+02 -1.07350E+04  6.42231E+03 -5.67571E+03  6.51744E+03  2.51257E+03
  1.13577E+03  7.17619E+03 -6.34832E+03  8.63491E+03 -1.00842E+04  4.48162E+03 -9.67911E+03 -3.33275E+03
 -5.13379E+03 -1.10014E+04  2.98813E+03 -1.28906E+04  1.13526E+04 -7.68547E+03  1.18741E+04  1.91192E+03
  7.91582E+03  9.72711E+03 -1.26859E+03  1.20319E+04 -8.30698E+03  6.19935E+03 -9.57832E+03 -5.02913E+02
 -9.17602E+03 -8.26106E+03 -1.46653E+03 -8.18160E+03  4.45190E+03 -7.32539E+03  5.59814E+03 -3.43884E+03
  4.27568E+03  1.45536E+03 -3.16653E+02  1.31078E+03  2.50120E+02 -2.43324E+03  1.70074E+03 -5.67728E+03
  8.15312E+03 -3.14743E+03  1.08402E+04  1.06300E+03  1.09481E+04  7.82029E+03  7.33099E+03  1.41735E+04
 -3.83279E+03  1.74939E+04 -1.39123E+04  1.12944E+04 -1.85035E+04  2.43875E+03 -1.49990E+04 -6.12355E+03
 -7.61570E+03 -1.22816E+04 -8.56158E+02 -1.06759E+04  3.97593E+03 -5.66494E+03  2.66374E+03 -3.28992E+03
  2.56919E+03 -2.23372E+03  2.74038E+03 -3.57650E+03  5.42717E+03 -2.66158E+03  5.81991E+03 -7.32460E+02
  8.06571E+03  1.31881E+03  2.95589E+03  6.33618E+03 -2.03662E+03  7.32952E+03 -7.42908E+03  5.62437E+03
 -9.61888E+03 -1.03280E+03 -5.31110E+03 -7.15835E+03 -1.17387E+03 -1.04968E+04  5.98885E+03 -1.05232E+04
  1.12349E+04 -5.96006E+03  1.28261E+04  1.06972E+03  9.74721E+03  9.91409E+03  1.74335E+03  1.18284E+04
 -4.12011E+03  1.01152E+04 -7.47836E+03  3.09765E+03 -4.87748E+03 -1.44185E+03 -1.50290E+03 -8.55507E+02
 -8.87299E+02  3.42813E+02 -1.59682E+03  2.97291E+03 -4.31057E+03  2.10372E+03 -6.52391E+03 -7.59301E+02
 -4.70918E+03 -7.35696E+03  9.72814E+02 -9.42442E+03  5.77152E+03 -8.97515E+03  8.75033E+03 -2.78825E+03
  9.10838E+03  5.20986E+03  4.96714E+03  7.89073E+03 -1.77685E+03  9.41048E+03 -6.40804E+03  6.21796E+03
 -8.63935E+03  9.36028E+02 -7.24257E+03 -4.77534E+03 -1.51406E+03 -7.32661E+03  4.32155E+03 -5.43917E+03
  5.87113E+03 -2.19683E+03  3.61390E+03  1.47156E+03  1.69113E+03  2.79516E+03  1.21467E+03  1.46976E+03
  1.62658E+03  3.30887E+01  2.42018E+03  2.10672E+03  2.36658E+03  4.11186E+03  3.04820E+03  4.97530E+03
 -1.66114E+03  7.53348E+03 -6.09955E+03  8.09552E+03 -8.05364E+03  2.62856E+03 -9.56139E+03 -3.77239E+03
 -5.04495E+03 -9.35754E+03  9.83872E+02 -9.80839E+03  5.18205E+03 -6.26355E+03  7.67963E+03 -2.10794E+03
  6.06083E+03  3.16122E+03  1.08977E+03  5.03453E+03 -2.78984E+03  3.52065E+03 -3.08527E+03 -1.56542E+02
 -1.67533E+03 -2.74984E+03  2.92636E+03 -4.21038E+03  2.54505E+03 -2.05694E+03  3.87258E+03  1.16058E+03
  2.14346E+03  1.91434E+03  1.19030E+03  2.07769E+02 -3.19631E+02  1.77746E+03  1.51938E+03 -2.07383E+02
  4.26012E+02 -8.97694E+02  4.57347E+03  1.16927E+03  2.13900E+03  5.02014E+03 -1.06587E+03  6.40870E+03
 -4.35763E+03  4.00515E+03 -5.20306E+03  9.42389E+02 -5.52299E+03 -1.47211E+03 -1.11110E+03 -2.97512E+03
  6.92889E+02 -2.63150E+03  2.04911E+03 -1.22546E+03  1.26534E+03  1.49003E+03 -1.51467E+03  3.23703E+03
 -3.35930E+03  1.82828E+03 -4.16535E+03 -2.18625E+03 -2.51387E+03 -4.55431E+03  4.09148E+02 -5.38591E+03
  2.51938E+03 -2.11438E+03  3.79347E+03 -1.43428E+02  3.41913E+03  6.58616E+02  6.25173E+00  2.50431E+03
 -1.41745E+03 -1.08831E+02 -2.57628E+03 -1.35329E+03  1.03533E+03 -3.07069E+03  3.96602E+03 -2.58272E+03
  4.67331E+03  4.18038E+02  5.65728E+03  2.65125E+03  2.05326E+03  5.30500E+03 -1.56369E+03  4.64334E+03
 -3.34125E+03  1.28813E+03 -5.24571E+03 -5.79785E+02 -2.58491E+03 -4.40510E+03  1.16388E+03 -2.87088E+03
  3.59228E+03 -1.85074E+03  3.24319E+03  1.83876E+03  1.04903E+03  3.00610E+03 -7.77475E+02  2.57277E+03
 -1.58120E+03  1.73618E+03 -9.89717E+02  8.65516E+02 -2.47635E+00  6.50225E+02 -1.00692E+03  1.89641E+03
 -2.43108E+03  2.16766E+03 -4.81670E+03  2.15650E+03 -4.76451E+03  2.16602E+02 -6.33264E+03 -3.21993E+03
 -2.76658E+03 -6.77130E+03  1.03036E+03 -8.43484E+03  4.26838E+03 -5.82666E+03  7.87060E+03 -2.70019E+03
  7.64720E+03  1.35764E+03  4.06485E+03  5.31527E+03 -9.42426E+01  5.47414E+03 -1.50123E+03  4.11018E+03
 -2.98995E+03  1.56356E+03 -1.68417E+03 -4.93127E+02 -8.04898E+02 -2.93294E+02 -6.86877E+02 -2.72913E+01
 -6.62865E+02  3.32332E+02 -1.44540E+03 -2.21811E+02  4.15107E+00 -1.34887E+03 -1.94743E+02 -2.18000E+03
  2.47295E+03 -2.07909E+03  2.19542E+03  3.28118E+02  3.20138E+03  2.93831E+03  5.89214E+02  4.85636E+03
 -2.71271E+03  6.26243E+03 -4.85541E+03  3.86750E+03 -6.31068E+03 -2.51379E+02 -4.18691E+03 -4.60003E+03
 -2.26491E+03 -5.18725E+03  1.29611E+03 -4.14370E+03  2.98571E+03 -2.51649E+03  2.82167E+03  1.35088E+02
  1.53006E+03  1.91677E+03 -2.53149E+01  1.23919E+03 -7.49573E+02  1.34861E+01 -4.98676E+01 -9.48510E+02
  1.87063E+03 -9.62791E+02  1.55644E+03  6.07764E+02  9.49313E+02  2.19351E+03  5.29476E+02  2.31299E+03
 -1.62140E+03  2.05618E+03 -2.48881E+03  1.03762E+02 -2.68602E+03 -2.13735E+03 -6.56325E+02 -3.99999E+03
  2.47776E+03 -3.28080E+03  3.04523E+03 -1.14403E+03  3.88904E+03 -3.38426E+02  1.55630E+03  3.18335E+03
  1.22389E+03  3.30906E+03 -6.02886E+02  1.59080E+03 -1.73033E+03  1.55998E+03 -1.55133E+03 -5.54329E+02
 -5.44712E+02  4.90630E+02 -1.69584E+03  6.94395E+01 -1.00617E+03  5.91512E+02 -2.34340E+03 -1.06280E+03
 -2.11576E+03 -1.37124E+03 -1.20171E+03 -2.73809E+03  1.56384E+03 -3.80095E+03  2.14691E+03 -1.54224E+03
  2.97384E+03  3.38470E+02  1.06247E+03  1.83820E+03 -1.93903E+02  3.01608E+03 -1.94366E+03  2.60721E+03
