 $NMID ID='MM_0lb_SNR400_18hz_g45_15.RAW', FMTDAT='(8E13.5)'
 TRAMP=1., VOLUME=1. $END
  3.10020E+05  5.18804E+02  3.37200E+05  2.50733E+05  8.44403E+04  3.37633E+05 -1.32388E+05  2.50346E+05
 -1.89642E+05  8.25108E+04 -1.10913E+05 -3.28468E+04  1.71810E+03 -5.03393E+04  5.38547E+04  1.87665E+02
  3.47314E+04  5.26306E+04 -1.69861E+04  7.46294E+04 -6.04553E+04  6.29984E+04 -8.28051E+04  3.16873E+04
 -7.91630E+04 -1.05214E+04 -5.59531E+04 -5.02490E+04 -1.47540E+04 -6.79685E+04  2.67418E+04 -4.50144E+04
  3.94091E+04  4.11781E+03  1.55958E+04  4.67265E+04 -3.39212E+04  4.61896E+04 -6.54290E+04 -2.36725E+02
 -5.18587E+04 -5.53342E+04 -6.18359E+03 -7.52087E+04  3.26472E+04 -5.29869E+04  4.61422E+04 -1.64757E+04
  4.18789E+04  1.11164E+04  3.06110E+04  2.42133E+04  1.52087E+04  2.83351E+04 -4.63467E+03  2.69629E+04
 -2.14487E+04  1.26548E+04 -1.88698E+04 -4.44519E+03  4.21831E+03 -7.40135E+03  2.11918E+04  1.10162E+04
  7.36725E+03  3.36597E+04 -3.04791E+04  3.42447E+04 -6.11843E+04  2.32874E+03 -5.61825E+04 -4.12273E+04
 -1.28815E+04 -6.08883E+04  3.76686E+04 -4.34049E+04  5.59298E+04 -2.55340E+03  3.17434E+04  3.10969E+04
 -6.53758E+03  3.28707E+04 -2.77380E+04  1.34753E+04 -2.75404E+04 -5.12575E+03 -1.43055E+04 -9.90708E+03
 -7.85658E+03 -1.18466E+04 -3.81606E+02 -1.64583E+04  6.49706E+03 -2.28579E+04  1.51800E+04 -1.36108E+04
  1.17613E+04  4.45118E+03 -6.29875E+03  1.33541E+04 -1.97676E+04 -2.64987E+03 -7.59107E+03 -3.05183E+04
  2.06239E+04 -4.09049E+04  4.51719E+04 -1.89390E+04  4.20212E+04  1.78418E+04  1.45830E+04  4.13926E+04
 -1.49976E+04  3.16597E+04 -2.34920E+04  5.76951E+02 -8.52683E+03 -2.63986E+04  2.02105E+04 -3.10035E+04
  3.82480E+04 -7.69504E+03  3.12266E+04  2.32625E+04  1.56355E+04  4.27883E+04 -8.07481E+03  4.52452E+04
 -2.83072E+04  3.03414E+04 -3.76577E+04  8.69941E+03 -3.85780E+04 -1.50616E+04 -2.13644E+04 -3.48872E+04
  7.23779E+03 -3.41287E+04  2.90011E+04 -1.28495E+04  2.69197E+04  1.09554E+04  3.13845E+03  1.78305E+04
 -1.26773E+04  7.56468E+03 -9.20463E+03 -7.30165E+03  5.77759E+03 -1.03120E+04  1.71431E+04  6.23775E+03
  1.20216E+04  2.14054E+04 -7.18464E+03  2.33026E+04 -2.10667E+04  9.12638E+03 -2.53419E+04 -6.43061E+03
 -1.68273E+04 -1.64741E+04 -5.91208E+03 -1.63960E+04  4.11503E+03 -1.51861E+04  1.28833E+04 -1.45665E+04
  2.17227E+04 -1.18306E+04  2.86174E+04  1.21341E+03  2.15930E+04  1.66200E+04  4.08516E+03  3.26228E+04
 -1.61676E+04  2.77737E+04 -2.63733E+04  9.00445E+03 -1.99529E+04 -1.08034E+04 -3.37667E+03 -1.42536E+04
  2.35965E+03 -3.83081E+03 -2.95985E+03  5.07399E+03 -1.31640E+04  5.07772E+03 -1.36019E+04 -5.48413E+03
 -8.93044E+03 -1.52582E+04  4.67200E+03 -1.97080E+04  1.26629E+04 -1.43436E+04  1.49424E+04 -2.37242E+03
  9.63015E+03  1.10006E+04 -6.66293E+02  1.56140E+04 -1.03992E+04  8.70611E+03 -1.61864E+04 -3.55204E+03
 -1.23228E+04 -1.45408E+04 -1.10121E+03 -1.93246E+04  8.15128E+03 -1.58838E+04  1.65992E+04 -6.83905E+03
  1.50624E+04  6.79519E+02  1.10086E+04  3.51249E+03  5.31127E+03  4.42629E+02  7.63821E+03 -6.54237E+02
  1.43429E+04  2.39140E+03  1.50302E+04  1.26170E+04  9.57047E+03  2.53794E+04 -2.77416E+03  2.71269E+04
 -1.67302E+04  2.00434E+04 -2.48097E+04  1.01137E+04 -2.53665E+04 -1.85596E+03 -2.18323E+04 -1.45891E+04
 -9.88224E+03 -2.09403E+04  7.59726E+03 -1.95093E+04  1.68324E+04 -1.06159E+04  1.62212E+04  3.55758E+03
  6.77915E+03  1.15210E+04 -7.26195E+03  1.04525E+04 -1.36679E+04  2.97764E+03 -1.06403E+04 -8.41689E+03
  1.41100E+02 -1.19411E+04  6.42842E+03 -9.53089E+03  7.09919E+03 -1.38427E+03  1.65713E+03  4.89033E+03
 -5.07622E+03  1.24325E+03 -4.20910E+03 -4.87254E+03  1.43791E+03 -1.05769E+04  7.68957E+03 -9.70817E+03
  1.24226E+04 -4.99737E+03  1.20069E+04  2.49278E+03  1.06556E+04  9.61260E+03  4.96895E+03  1.49589E+04
 -2.09076E+03  1.56494E+04 -1.03203E+04  1.06985E+04 -1.09803E+04  3.00247E+03 -8.71638E+03 -1.88270E+03
 -4.30259E+03 -3.58718E+03 -1.23919E+03  1.10855E+03 -2.22533E+03  1.93071E+03 -3.85332E+03  3.67111E+03
 -8.41791E+03 -9.07573E+02 -9.13705E+03 -7.08277E+03 -3.99554E+03 -1.08855E+04  3.72673E+03 -8.76691E+03
  6.69166E+03 -3.85563E+03  6.15940E+03  2.10566E+03  7.60109E+02  3.44146E+03 -3.76264E+03 -9.03679E+01
 -3.38347E+03 -4.94799E+03 -8.48004E+02 -7.40042E+03  4.33160E+03 -7.81769E+03  1.01582E+04 -3.82757E+03
  1.21141E+04  1.01885E+03  8.59210E+03  6.39085E+03  1.95285E+03  9.05499E+03 -5.77716E+03  8.11237E+03
 -6.48615E+03  3.11784E+03 -3.91242E+03 -1.23878E+03  1.27739E+03 -1.88571E+03  5.20854E+03 -9.37757E+02
  4.09074E+03  3.91048E+03  9.70752E+02  6.16865E+03 -4.71873E+03  6.80483E+03 -8.38832E+03  1.48309E+03
 -4.99614E+03 -3.96283E+03  2.89387E+02 -6.96442E+03  3.44941E+03 -3.65400E+03  3.74615E+03  8.18632E+02
  7.60217E+02  3.64123E+03 -3.84272E+03  4.41762E+03 -5.06692E+03  2.62592E+03 -5.04496E+03 -1.45117E+03
 -2.88296E+03 -6.50294E+03  9.95915E+02 -7.73613E+03  6.16933E+03 -4.79141E+03  6.93369E+03  1.02244E+03
  4.73451E+03  5.14536E+03 -3.16432E+02  6.99402E+03 -5.24258E+03  3.90729E+03 -5.49091E+03 -2.45793E+02
 -5.89609E+03 -5.12505E+03 -1.69461E+03 -5.15944E+03  1.61402E+03 -4.47769E+03  3.03693E+03 -2.82958E+03
  2.99179E+03 -1.41012E+02  2.69318E+02  8.72804E+02  3.51646E+02 -5.04542E+02  2.95101E+02 -1.52725E+03
  3.46574E+03 -1.07909E+03  5.38729E+03  6.16612E+02  6.32221E+03  3.43518E+03  5.43710E+03  7.55041E+03
 -1.25916E+03  8.53909E+03 -7.79195E+03  6.92438E+03 -1.02083E+04  1.52241E+03 -7.98619E+03 -2.59973E+03
 -4.33200E+03 -6.72364E+03 -4.23555E+02 -5.03608E+03  1.48759E+03 -1.93716E+03  2.29508E+03 -3.18016E+03
  1.52790E+03 -1.77243E+03  2.24420E+03 -2.57358E+03  3.43777E+03 -1.75657E+03  3.95106E+03  3.82164E+02
  4.45146E+03  1.19174E+03  1.12323E+03  3.66715E+03 -1.88791E+03  3.29721E+03 -4.35846E+03  2.86570E+03
 -5.40827E+03 -1.24930E+03 -2.51905E+03 -3.26280E+03  5.80931E+02 -5.21157E+03  2.96685E+03 -5.37930E+03
  5.59142E+03 -3.69566E+03  6.93470E+03 -2.34085E+02  5.04924E+03  3.94838E+03  6.94878E+02  5.75302E+03
 -1.90731E+03  5.88587E+03 -4.06885E+03  1.94912E+03 -2.45546E+03 -1.21815E+03 -5.26736E+02 -1.12636E+03
  1.70336E+01  5.31626E+02 -9.00115E+02  1.58486E+03 -2.62818E+03  5.10158E+02 -4.01484E+03 -5.81389E+02
 -1.57454E+03 -4.39315E+03  7.01626E+02 -5.32887E+03  2.44671E+03 -4.06355E+03  4.17500E+03 -1.43044E+03
  4.06013E+03  2.29127E+03  1.73487E+03  3.61703E+03 -7.28635E+02  4.43465E+03 -2.73387E+03  2.90793E+03
 -4.17254E+03  5.07616E+02 -3.74368E+03 -2.13537E+03 -1.24267E+02 -3.84592E+03  2.00497E+03 -2.65661E+03
  3.05650E+03 -1.25590E+03  2.30815E+03  2.04938E+02  7.29330E+02  1.54409E+03  8.81027E+02  4.72760E+02
  1.89421E+03  6.34075E+02  1.12739E+03  5.70106E+02  1.34911E+03  1.94187E+03  1.49722E+03  1.70351E+03
 -1.21505E+03  3.44999E+03 -2.91906E+03  4.33481E+03 -2.94007E+03  1.74106E+03 -4.30866E+03 -3.82954E+02
 -1.49240E+03 -3.99755E+03  2.81341E+02 -4.40613E+03  1.93380E+03 -2.70600E+03  2.96610E+03 -1.22126E+03
  2.73178E+03  1.67033E+03  9.05891E+02  2.14997E+03 -7.02143E+02  1.80237E+03 -6.77480E+02  2.21932E+00
 -4.23993E+02 -1.96275E+03  1.50324E+03 -1.67316E+03  1.17708E+03 -7.14800E+02  1.56092E+03  6.95171E+02
  1.30157E+03 -9.41255E+01  1.00575E+03 -3.31320E+02 -2.06297E+02  5.66192E+02  1.78627E+03 -1.59506E+02
  5.28240E+02 -5.15472E+02  2.06043E+03  2.15467E+02  4.06117E+02  2.36301E+03 -8.04239E+02  2.75419E+03
 -1.47537E+03  1.07202E+03 -1.54995E+03  6.83306E+02 -2.08917E+03 -1.10071E+03  4.98717E+01 -9.69795E+02
  9.18286E+02 -1.71094E+03  8.34573E+02 -2.23229E+02  9.63176E+02  1.16946E+03 -7.32308E+02  1.81527E+03
 -1.59787E+03  7.55501E+02 -1.52554E+03 -1.25064E+03 -1.02894E+03 -2.42207E+03 -2.94190E+01 -1.43803E+03
  2.84425E+02 -4.94673E+02  6.61349E+02  1.24682E+02  1.50084E+03  4.33086E+01  3.77767E+02  1.07510E+03
 -1.21219E+02  8.48351E+02 -9.62809E+02 -8.21581E+02  1.00195E+02 -1.11174E+03  1.80724E+03 -1.41972E+03
  1.20878E+03  2.47298E+00  2.63534E+03  8.68876E+02  1.42644E+03  1.50857E+03 -3.44974E+02  2.01756E+03
 -1.73157E+03  9.10527E+02 -1.63376E+03  1.13455E+02 -4.74294E+02 -1.01352E+03  8.34379E+02 -8.26416E+02
  9.53190E+02 -4.13701E+02  9.52300E+02  9.78330E+02  5.81019E+01  1.68501E+03  7.38815E+02  1.11932E+03
 -8.46820E+02  1.04214E+03 -4.97228E+02  1.17107E+02 -2.83550E+02  9.12875E+02 -8.11631E+02  5.44140E+02
 -6.57590E+02  5.92609E+02 -2.07357E+03  9.34301E+02 -1.66410E+03  8.49795E+01 -2.71502E+03 -1.42884E+03
 -6.18759E+02 -2.63892E+03  1.52564E+02 -2.81255E+03  9.11429E+02 -2.88098E+03  3.24010E+03 -1.25462E+03
  2.66630E+03 -3.03591E+02  1.64289E+03  1.40181E+03 -8.25757E+02  1.90447E+03 -1.26562E+03  1.68123E+03
 -9.10318E+02  1.21431E+03 -1.53408E+02 -3.84862E+02 -3.25789E+02  4.24110E+02 -5.50312E+02  2.12857E+02
 -1.15789E+03  2.41838E+02 -6.03942E+02  3.22683E+02  7.30444E+02 -8.27786E+02  1.30065E+02 -4.87849E+02
  1.26124E+03 -2.17422E+02  9.15431E+02 -1.20734E+02  1.47163E+03  1.24816E+03 -6.32460E+01  1.51523E+03
 -1.18836E+03  2.59140E+03 -1.85125E+03  1.27758E+03 -2.17718E+03  4.69952E+02 -1.88807E+03 -1.55286E+03
 -1.07321E+03 -1.29378E+03  2.87883E+02 -1.62903E+03  1.10453E+03 -5.76710E+02  1.09281E+03  9.12391E+01
  4.69346E+02  2.34085E+02  1.16816E+02  8.77322E+02 -7.42857E+02 -5.03654E+02  6.08109E+02 -1.77693E+02
  1.04952E+02  4.32532E+02  2.11330E+02  3.49310E+02 -4.03011E+02 -2.97518E+01 -4.38702E+00  3.52031E+02
 -1.08248E+03  4.10485E+02 -7.71065E+02  1.34995E+02 -6.62533E+02 -4.47297E+01 -9.47260E+01 -1.29599E+03
  8.14835E+02 -9.02069E+02  7.29499E+02  2.72494E+02  5.13880E+02 -1.01263E+03  7.88053E+02  9.75526E+02
  2.04318E+02  1.24843E+03  1.13269E+02  8.91066E+02 -4.43585E+02  3.56170E+02 -8.49775E+02  4.49001E+02
  5.38131E+01 -5.51790E+02 -8.30172E+02 -5.31870E+01 -1.04433E+03 -4.07574E+01 -1.04026E+03 -1.12781E+03
 -1.21709E+03  1.18737E+02 -2.79856E+02 -1.31921E+03  1.21559E+03 -1.78473E+03  1.91679E+03 -4.90199E+02
  9.25891E+02  3.94442E+02 -2.06187E+02  2.45989E+02  1.63534E+02  9.84139E+02 -7.33554E+02  9.07753E+02
