 $NMID ID='MM_0lb_SNR400_13hz_g55_64.RAW', FMTDAT='(8E13.5)'
 TRAMP=1., VOLUME=1. $END
  3.09799E+05  7.41641E+02  3.38127E+05  2.50359E+05  8.43197E+04  3.38303E+05 -1.32808E+05  2.51397E+05
 -1.90493E+05  8.39237E+04 -1.11972E+05 -3.25399E+04  1.75668E+02 -5.06363E+04  5.43511E+04 -3.58664E+02
  3.53113E+04  5.25015E+04 -1.76349E+04  7.56695E+04 -6.10601E+04  6.37860E+04 -8.51548E+04  3.20784E+04
 -8.16931E+04 -1.14493E+04 -5.75788E+04 -5.24951E+04 -1.44715E+04 -6.96146E+04  2.78594E+04 -4.59887E+04
  4.10141E+04  3.29427E+03  1.64774E+04  4.76875E+04 -3.50092E+04  4.70237E+04 -6.66748E+04 -3.26812E+02
 -5.40211E+04 -5.71391E+04 -7.07213E+03 -7.75180E+04  3.42426E+04 -5.57623E+04  4.83492E+04 -1.74292E+04
  4.40956E+04  1.11431E+04  3.26702E+04  2.59398E+04  1.52993E+04  2.98636E+04 -5.84915E+03  2.70022E+04
 -2.23739E+04  1.24092E+04 -1.86986E+04 -6.00053E+03  5.86670E+03 -7.81491E+03  2.31165E+04  1.27615E+04
  7.48621E+03  3.58423E+04 -3.19789E+04  3.66756E+04 -6.44438E+04  2.60455E+03 -5.77196E+04 -4.29042E+04
 -1.31628E+04 -6.38681E+04  4.02217E+04 -4.63590E+04  5.96852E+04 -2.43748E+03  3.56737E+04  3.32761E+04
 -5.41886E+03  3.77994E+04 -3.08074E+04  1.63774E+04 -3.19468E+04 -3.93526E+03 -1.74263E+04 -1.09671E+04
 -8.64891E+03 -1.34969E+04 -2.46480E+02 -1.89382E+04  8.04162E+03 -2.35292E+04  1.53444E+04 -1.24395E+04
  1.08072E+04  5.17391E+03 -9.71435E+03  1.31742E+04 -2.23295E+04 -6.02259E+03 -8.47515E+03 -3.50576E+04
  2.37506E+04 -4.52234E+04  4.96109E+04 -2.05051E+04  4.66023E+04  2.03447E+04  1.64224E+04  4.56467E+04
 -1.72200E+04  3.45350E+04 -2.63131E+04  2.10051E+03 -1.06311E+04 -2.83741E+04  2.11046E+04 -3.47332E+04
  4.18821E+04 -9.42620E+03  3.75129E+04  2.40307E+04  1.93919E+04  4.81574E+04 -8.67495E+03  5.25380E+04
 -3.26556E+04  3.52074E+04 -4.40396E+04  9.72208E+03 -4.42155E+04 -1.77547E+04 -2.41525E+04 -3.92436E+04
  7.70594E+03 -3.97991E+04  3.25761E+04 -1.54064E+04  3.10783E+04  1.12415E+04  4.10435E+03  1.96890E+04
 -1.36722E+04  8.88712E+03 -1.08461E+04 -7.85258E+03  5.55765E+03 -1.06865E+04  1.88585E+04  6.12411E+03
  1.42849E+04  2.17566E+04 -5.44398E+03  2.54824E+04 -2.24290E+04  1.26935E+04 -2.98491E+04 -3.49971E+03
 -2.18877E+04 -1.77017E+04 -1.02585E+04 -2.30063E+04  3.85450E+03 -2.11083E+04  1.70015E+04 -1.98452E+04
  2.82940E+04 -1.38920E+04  3.43671E+04  3.04042E+03  2.51013E+04  2.05769E+04  4.29609E+03  3.83093E+04
 -1.88090E+04  3.14650E+04 -2.84282E+04  1.09524E+04 -2.13516E+04 -9.41792E+03 -4.55145E+03 -1.37808E+04
  1.13350E+03 -1.94025E+03 -5.97115E+03  7.29479E+03 -1.72251E+04  4.92676E+03 -1.72760E+04 -8.14229E+03
 -1.04350E+04 -2.00529E+04  5.33867E+03 -2.43810E+04  1.61861E+04 -1.68540E+04  1.97212E+04 -1.86139E+03
  1.25196E+04  1.42143E+04 -1.04888E+03  2.04942E+04 -1.46158E+04  1.10465E+04 -2.01157E+04 -3.95439E+03
 -1.50409E+04 -1.86627E+04 -1.50762E+03 -2.45464E+04  1.08881E+04 -1.93083E+04  2.06891E+04 -1.01775E+04
  1.90284E+04 -1.98708E+02  1.33395E+04  5.42872E+03  7.10821E+03  9.13760E+02  1.09170E+04 -1.48617E+03
  1.88329E+04  2.58687E+03  2.11773E+04  1.57940E+04  1.39950E+04  3.19218E+04 -3.31460E+03  3.71378E+04
 -2.17227E+04  2.99539E+04 -3.50726E+04  1.53032E+04 -3.68495E+04 -3.06309E+03 -3.06735E+04 -2.08900E+04
 -1.30012E+04 -3.01485E+04  1.05467E+04 -2.74491E+04  2.38934E+04 -1.37311E+04  2.05422E+04  6.67381E+03
  7.53820E+03  1.57475E+04 -9.83038E+03  1.42550E+04 -1.69549E+04  2.14926E+03 -1.31091E+04 -1.17874E+04
  1.95761E+02 -1.62719E+04  8.42549E+03 -1.24541E+04  1.06681E+04 -1.15873E+03  2.43189E+03  6.97457E+03
 -7.74435E+03  3.28665E+03 -6.48896E+03 -5.66033E+03 -4.94637E+02 -1.47470E+04  1.00406E+04 -1.61931E+04
  1.83555E+04 -8.30048E+03  2.04020E+04  3.27311E+03  1.77041E+04  1.50632E+04  8.41231E+03  2.27946E+04
 -4.04825E+03  2.47453E+04 -1.60940E+04  1.54746E+04 -1.75950E+04  3.84185E+03 -1.25196E+04 -4.40913E+03
 -6.29096E+03 -5.62429E+03 -9.30543E+02  7.07425E+02 -2.20084E+03  2.94687E+03 -5.66622E+03  4.76031E+03
 -1.13690E+04 -9.01442E+02 -1.28260E+04 -9.87386E+03 -4.97082E+03 -1.61443E+04  4.81316E+03 -1.23319E+04
  1.01452E+04 -5.59940E+03  7.76310E+03  3.42846E+03 -5.16306E+02  4.99330E+03 -5.78429E+03 -1.19083E+02
 -5.76239E+03 -7.58487E+03 -1.18821E+03 -1.19656E+04  7.06691E+03 -1.20172E+04  1.55651E+04 -6.54167E+03
  1.86295E+04  1.67071E+03  1.27791E+04  1.11780E+04  2.67657E+03  1.47031E+04 -7.66157E+03  1.30258E+04
 -1.04439E+04  3.82728E+03 -5.26780E+03 -2.45849E+03  1.86905E+03 -4.31330E+03  6.42240E+03 -8.07601E+02
  5.83341E+03  6.00060E+03  1.11795E+03  9.53812E+03 -7.18122E+03  9.68392E+03 -1.18917E+04  2.89515E+03
 -7.27206E+03 -6.35259E+03  3.11726E+02 -1.05155E+04  6.08295E+03 -5.22699E+03  6.38101E+03  2.59563E+03
  2.26709E+03  7.13226E+03 -6.08788E+03  8.71736E+03 -1.00995E+04  3.12860E+03 -9.77554E+03 -3.18768E+03
 -5.41458E+03 -1.10538E+04  2.43983E+03 -1.25931E+04  1.08459E+04 -6.86169E+03  1.26633E+04  2.02399E+03
  7.54186E+03  9.41110E+03 -3.16965E+02  1.19569E+04 -8.23529E+03  6.29891E+03 -9.34817E+03 -6.09305E+02
 -8.42612E+03 -8.31834E+03 -2.08622E+03 -8.85883E+03  4.46092E+03 -7.91605E+03  5.82818E+03 -2.76859E+03
  4.52581E+03  1.51186E+03 -3.15003E+02  1.03787E+03 -3.86370E+02 -2.23928E+03  1.18538E+03 -5.11932E+03
  8.07603E+03 -3.08708E+03  1.11371E+04  1.43128E+03  1.12679E+04  7.68258E+03  7.35359E+03  1.52209E+04
 -3.11330E+03  1.70073E+04 -1.38567E+04  1.30889E+04 -1.79568E+04  2.39039E+03 -1.45618E+04 -6.25644E+03
 -7.40590E+03 -1.24984E+04 -4.74920E+02 -9.76117E+03  3.90212E+03 -5.05121E+03  3.54274E+03 -3.85939E+03
  2.58389E+03 -2.65211E+03  2.77220E+03 -2.21001E+03  5.00423E+03 -2.65677E+03  5.98027E+03 -1.09244E+03
  6.91449E+03  2.13012E+03  3.97978E+03  5.87389E+03 -1.90009E+03  7.86403E+03 -7.97848E+03  5.95959E+03
 -1.06140E+04 -7.57491E+02 -6.15625E+03 -6.76186E+03 -5.74911E+02 -1.05068E+04  5.86989E+03 -1.09113E+04
  1.10295E+04 -6.20878E+03  1.31223E+04  8.17220E+02  9.70586E+03  8.94142E+03  1.14031E+03  1.19525E+04
 -5.00363E+03  1.02042E+04 -7.29164E+03  4.23729E+03 -4.89691E+03 -1.57957E+03 -1.89543E+03 -1.53885E+03
 -1.54854E+03 -4.20345E+01 -1.34618E+03  2.04320E+03 -4.66956E+03  1.65047E+03 -7.42837E+03 -6.45337E+02
 -4.07973E+03 -7.18281E+03  9.52989E+02 -1.00142E+04  6.17039E+03 -9.10260E+03  9.15901E+03 -2.32561E+03
  9.13996E+03  4.35047E+03  4.61497E+03  8.20881E+03 -2.00225E+03  9.24612E+03 -6.63306E+03  5.82726E+03
 -8.43054E+03  1.12794E+03 -6.92766E+03 -5.59237E+03 -1.16372E+03 -7.79994E+03  3.44610E+03 -5.63126E+03
  5.89163E+03 -2.08896E+03  4.05743E+03  1.78433E+03  1.33607E+03  3.40096E+03  5.20231E+02  1.86359E+03
  2.44451E+03  7.14403E+02  2.09448E+03  2.36173E+03  2.82758E+03  3.92149E+03  2.92385E+03  4.85991E+03
 -2.66996E+03  7.16921E+03 -6.90323E+03  7.85551E+03 -8.87004E+03  2.25022E+03 -9.85298E+03 -3.66453E+03
 -4.57471E+03 -8.70241E+03  1.61935E+03 -9.86720E+03  5.56757E+03 -6.71108E+03  7.70793E+03 -1.47571E+03
  5.72758E+03  3.19812E+03  1.19019E+03  5.81836E+03 -2.27061E+03  3.05641E+03 -3.32384E+03 -1.14411E+03
 -1.60473E+03 -4.18837E+03  2.47749E+03 -4.38814E+03  3.45188E+03 -2.49082E+03  3.51912E+03  1.03518E+03
  2.58543E+03  1.44578E+03  1.03532E+03  1.28387E+03 -7.37823E+02  1.33969E+03  1.61621E+03 -8.14343E+02
  1.43878E+03 -3.68637E+02  4.10883E+03  1.12776E+03  1.83745E+03  4.63968E+03 -6.03916E+02  6.64065E+03
 -3.65723E+03  3.63996E+03 -5.39642E+03  1.29961E+03 -5.78112E+03 -2.02532E+03 -1.34283E+03 -3.09135E+03
  1.33299E+03 -2.76267E+03  2.59089E+03 -1.36746E+03  1.85898E+03  1.57592E+03 -1.36095E+03  2.72758E+03
 -3.34700E+03  1.68009E+03 -3.58919E+03 -2.24814E+03 -1.90156E+03 -4.58390E+03  1.17324E+03 -4.27965E+03
  2.56041E+03 -3.20820E+03  3.60050E+03  1.87538E+02  3.61816E+03  7.04415E+02  8.40648E+02  2.71637E+03
 -1.17462E+03  4.05848E+02 -1.83749E+03 -1.43109E+03  8.19460E+02 -3.06424E+03  4.13339E+03 -2.24019E+03
  4.64954E+03  1.15926E+02  6.45390E+03  3.93163E+03  1.19301E+03  5.64633E+03 -1.79462E+03  5.29540E+03
 -4.36541E+03  2.06013E+03 -4.29775E+03 -5.72694E+02 -2.05133E+03 -3.59787E+03  1.24544E+03 -3.16441E+03
  4.19119E+03 -2.38487E+03  3.45804E+03  1.85316E+03  9.95996E+02  2.88446E+03 -4.36406E+02  3.02445E+03
 -1.43139E+03  1.73186E+03 -1.50042E+03  1.25517E+03 -4.62213E+02  5.33488E+02 -1.50618E+03  1.49250E+03
 -1.20790E+03  2.38676E+03 -3.77991E+03  2.17863E+03 -5.30008E+03  8.97634E+01 -6.25418E+03 -2.91776E+03
 -3.32047E+03 -7.24978E+03  1.38740E+03 -7.48716E+03  4.67359E+03 -6.54806E+03  7.31311E+03 -2.21077E+03
  6.93314E+03  8.70908E+02  4.61641E+03  4.58643E+03  3.16832E+01  4.93775E+03 -2.75109E+03  4.22753E+03
 -2.47965E+03  1.31817E+03 -1.82868E+03 -1.24385E+02 -9.75257E+02 -8.06030E+02 -7.40984E+02 -6.65285E+01
 -8.51785E+02  4.63659E+02 -1.59833E+03 -9.72303E+02  2.09345E+02 -1.41015E+03 -2.10657E+02 -2.06037E+03
  2.42867E+03 -1.88243E+03  2.39950E+03  2.72193E+01  3.35330E+03  2.48538E+03  3.30784E+02  4.85125E+03
 -1.75045E+03  5.69586E+03 -5.93933E+03  4.24387E+03 -6.11832E+03 -5.68694E+02 -4.98711E+03 -3.42347E+03
 -2.22507E+03 -4.74021E+03  6.06143E+02 -4.14794E+03  3.16373E+03 -1.93130E+03  2.83673E+03  4.51650E+02
  2.44115E+03  1.31307E+03 -4.46796E+02  1.34472E+03 -8.14029E+02 -1.39249E+02  2.98076E+01 -3.82205E+02
  2.06107E+03 -1.68809E+02  1.52523E+03  2.54711E+01  7.32994E+02  1.35131E+03  6.04304E+02  2.30029E+03
 -2.38275E+03  1.68336E+03 -2.75752E+03  5.85796E+02 -2.49166E+03 -2.33851E+03 -1.51446E+02 -4.09540E+03
  2.28972E+03 -2.55309E+03  3.43478E+03 -1.11398E+03  3.96121E+03  6.52287E+02  2.04722E+03  3.28348E+03
  1.34076E+03  2.67251E+03 -5.98588E+02  1.74233E+03 -1.76192E+03  8.42580E+02 -1.86560E+03  3.05426E+01
 -1.18012E+03 -2.15633E+02 -1.10630E+03 -7.02873E+01 -1.39264E+03  1.27981E+03 -2.20681E+03 -4.72368E+02
 -2.03360E+03 -1.42199E+03 -1.17630E+03 -2.98123E+03  1.31699E+03 -3.63690E+03  2.50885E+03 -1.53266E+03
  2.68681E+03  2.06283E+02  9.41739E+02  1.66886E+03 -1.48887E+02  2.70791E+03 -2.12570E+03  1.86327E+03
