 $NMID ID='MM_0lb_SNR400_10hz_g60_54.RAW', FMTDAT='(8E13.5)'
 TRAMP=1., VOLUME=1. $END
  3.10384E+05  1.88251E+02  3.37907E+05  2.50704E+05  8.46459E+04  3.38643E+05 -1.33113E+05  2.51897E+05
 -1.91286E+05  8.41476E+04 -1.12199E+05 -3.21377E+04  5.77431E+02 -5.01025E+04  5.37651E+04 -1.38651E+03
  3.46616E+04  5.31024E+04 -1.68925E+04  7.64881E+04 -6.22307E+04  6.34751E+04 -8.53861E+04  3.33794E+04
 -8.23638E+04 -1.21929E+04 -5.80040E+04 -5.24770E+04 -1.50512E+04 -7.15826E+04  2.82830E+04 -4.63716E+04
  4.13554E+04  3.87674E+03  1.70178E+04  4.91178E+04 -3.46168E+04  4.94752E+04 -6.87933E+04  1.04422E+02
 -5.49917E+04 -5.79074E+04 -6.60518E+03 -7.95674E+04  3.47633E+04 -5.73733E+04  4.97682E+04 -1.93356E+04
  4.54563E+04  1.17248E+04  3.32655E+04  2.67814E+04  1.60422E+04  3.05501E+04 -5.68262E+03  2.79913E+04
 -2.22842E+04  1.30615E+04 -1.77743E+04 -5.03818E+03  7.20481E+03 -7.27826E+03  2.37993E+04  1.35778E+04
  6.49985E+03  3.75930E+04 -3.42188E+04  3.72012E+04 -6.64483E+04  1.86837E+03 -5.88657E+04 -4.44714E+04
 -1.27698E+04 -6.62885E+04  4.15771E+04 -4.78833E+04  6.14586E+04 -2.77713E+03  3.73644E+04  3.53679E+04
 -5.00925E+03  4.01636E+04 -3.18810E+04  1.90617E+04 -3.31615E+04 -3.92972E+03 -2.00665E+04 -1.21718E+04
 -9.77674E+03 -1.50420E+04 -6.66053E+02 -2.00786E+04  8.53248E+03 -2.29186E+04  1.64420E+04 -1.30260E+04
  1.07118E+04  7.21381E+03 -1.03837E+04  1.25139E+04 -2.36553E+04 -7.26978E+03 -9.03313E+03 -3.76392E+04
  2.59477E+04 -4.64567E+04  5.24428E+04 -2.08390E+04  4.75521E+04  2.16332E+04  1.69158E+04  4.72255E+04
 -1.66630E+04  3.64379E+04 -2.79119E+04  2.74535E+03 -1.17485E+04 -3.01037E+04  2.16713E+04 -3.63347E+04
  4.52948E+04 -1.14429E+04  4.00891E+04  2.49930E+04  2.16976E+04  5.12303E+04 -8.25344E+03  5.66313E+04
 -3.50793E+04  3.88560E+04 -4.79842E+04  1.19614E+04 -4.79601E+04 -1.88176E+04 -2.60295E+04 -4.27028E+04
  7.80365E+03 -4.24100E+04  3.43926E+04 -1.73032E+04  3.19746E+04  1.10513E+04  5.05775E+03  2.14185E+04
 -1.26238E+04  1.01723E+04 -1.05280E+04 -8.21625E+03  6.26097E+03 -1.19438E+04  1.85033E+04  5.32913E+03
  1.51511E+04  2.32365E+04 -5.35248E+03  2.80306E+04 -2.42602E+04  1.36010E+04 -3.16996E+04 -2.64676E+03
 -2.60592E+04 -1.86077E+04 -1.20528E+04 -2.50849E+04  4.35745E+03 -2.52495E+04  1.96011E+04 -2.29425E+04
  3.25484E+04 -1.41362E+04  3.76450E+04  5.12258E+03  2.57849E+04  2.39924E+04  5.25203E+03  4.12856E+04
 -2.00686E+04  3.45515E+04 -3.03497E+04  1.19401E+04 -2.23890E+04 -1.00977E+04 -4.70602E+03 -1.26544E+04
  1.14138E+03 -1.34782E+03 -8.13178E+03  8.42821E+03 -2.03528E+04  4.84023E+03 -2.05488E+04 -9.79963E+03
 -1.22931E+04 -2.38254E+04  5.89937E+03 -2.81034E+04  1.89966E+04 -1.90996E+04  2.23721E+04 -1.88951E+03
  1.43007E+04  1.69113E+04 -1.74685E+03  2.28544E+04 -1.69450E+04  1.30741E+04 -2.38335E+04 -4.81241E+03
 -1.71670E+04 -2.10605E+04 -1.43274E+03 -2.85414E+04  1.30802E+04 -2.38665E+04  2.32545E+04 -1.16279E+04
  2.14423E+04  8.79087E+01  1.62293E+04  5.69109E+03  9.61904E+03  1.17585E+03  1.23134E+04 -1.74460E+03
  2.24046E+04  2.52048E+03  2.54475E+04  1.84120E+04  1.72191E+04  3.78516E+04 -2.36722E+03  4.43765E+04
 -2.59682E+04  3.77296E+04 -4.18630E+04  1.82306E+04 -4.57301E+04 -2.79259E+03 -3.66871E+04 -2.67751E+04
 -1.36603E+04 -3.74646E+04  1.38035E+04 -3.19184E+04  2.77906E+04 -1.61975E+04  2.42852E+04  8.52039E+03
  7.63866E+03  1.87649E+04 -1.16231E+04  1.65479E+04 -1.96758E+04  2.31726E+03 -1.60628E+04 -1.29197E+04
 -2.79636E+02 -1.92730E+04  1.04226E+04 -1.43113E+04  1.34216E+04 -1.54584E+03  3.23862E+03  8.94964E+03
 -8.43822E+03  4.59995E+03 -9.23135E+03 -7.20368E+03 -1.91204E+03 -1.81422E+04  1.15926E+04 -1.90935E+04
  2.33757E+04 -1.02728E+04  2.66300E+04  3.96856E+03  2.31787E+04  1.86070E+04  1.08554E+04  2.93340E+04
 -5.60981E+03  3.10687E+04 -2.04817E+04  1.91994E+04 -2.26013E+04  4.25125E+03 -1.53808E+04 -5.53189E+03
 -6.88883E+03 -7.85408E+03 -1.53473E+03  5.50012E+01 -3.45639E+03  3.24972E+03 -7.73877E+03  5.17707E+03
 -1.45384E+04 -1.18046E+03 -1.52402E+04 -1.26464E+04 -5.59540E+03 -1.91180E+04  5.57048E+03 -1.60528E+04
  1.25682E+04 -7.35450E+03  8.49793E+03  4.71366E+03  7.11873E+02  6.02984E+03 -8.54543E+03 -2.72170E+02
 -7.57080E+03 -9.87564E+03 -1.89887E+03 -1.59006E+04  9.04462E+03 -1.64853E+04  2.00391E+04 -8.49013E+03
  2.34427E+04  3.24480E+03  1.68645E+04  1.41836E+04  3.34585E+03  1.91367E+04 -9.82925E+03  1.57526E+04
 -1.27773E+04  4.67619E+03 -6.24696E+03 -3.39839E+03  1.57385E+03 -3.77217E+03  7.96162E+03 -7.93778E+02
  7.17212E+03  7.61264E+03  9.09847E+02  1.25477E+04 -9.37117E+03  1.20224E+04 -1.55229E+04  2.59930E+03
 -1.10691E+04 -8.00004E+03  7.36649E+02 -1.34508E+04  8.99461E+03 -6.91114E+03  8.60487E+03  3.11263E+03
  2.23943E+03  9.93259E+03 -7.99501E+03  1.18350E+04 -1.36065E+04  5.21534E+03 -1.41149E+04 -4.82608E+03
 -8.24471E+03 -1.53887E+04  3.75380E+03 -1.83597E+04  1.56357E+04 -1.05422E+04  1.60019E+04  3.62260E+03
  9.99719E+03  1.36692E+04 -1.82926E+03  1.55675E+04 -1.15968E+04  7.84204E+03 -1.32552E+04 -1.80211E+03
 -9.57177E+03 -1.05014E+04 -1.62713E+03 -1.20656E+04  5.82094E+03 -9.52659E+03  7.68446E+03 -3.59324E+03
  5.34703E+03  2.44844E+03 -1.07694E+03  1.54133E+03 -1.29549E+03 -2.37774E+03  2.59298E+03 -7.52125E+03
  1.20192E+04 -4.41026E+03  1.56632E+04  1.34272E+03  1.47839E+04  1.06501E+04  9.64263E+03  2.06248E+04
 -4.79501E+03  2.38954E+04 -1.97310E+04  1.79870E+04 -2.59560E+04  3.54440E+03 -1.97240E+04 -8.97623E+03
 -9.36471E+03 -1.73970E+04 -7.70498E+02 -1.52646E+04  4.64927E+03 -8.69830E+03  5.29257E+03 -5.03835E+03
  3.42322E+03 -2.70217E+03  4.14920E+03 -4.02361E+03  5.69809E+03 -3.16116E+03  8.35396E+03 -9.38568E+02
  1.04629E+04  2.78562E+03  5.84694E+03  8.98546E+03 -1.34813E+03  1.10078E+04 -1.16840E+04  8.73636E+03
 -1.37963E+04 -2.85586E+03 -9.23595E+03 -9.05550E+03 -8.59110E+02 -1.60224E+04  8.49567E+03 -1.53592E+04
  1.63629E+04 -8.21872E+03  1.83426E+04  2.44988E+03  1.26655E+04  1.35685E+04  1.75444E+03  1.71596E+04
 -6.99610E+03  1.39420E+04 -1.02374E+04  5.18585E+03 -7.59165E+03 -8.96653E+02 -3.11324E+03 -2.83548E+03
 -1.43170E+03  1.25553E+02 -1.60636E+03  2.84756E+03 -6.01401E+03  2.93648E+03 -9.76354E+03 -1.62722E+03
 -6.45165E+03 -9.64353E+03 -4.94836E+02 -1.44689E+04  8.89724E+03 -1.31842E+04  1.39755E+04 -4.18428E+03
  1.48852E+04  6.74659E+03  5.95886E+03  1.23410E+04 -3.69527E+03  1.43319E+04 -1.03563E+04  8.66125E+03
 -1.29893E+04  6.14919E+02 -1.03775E+04 -8.31735E+03 -1.20226E+03 -1.18261E+04  5.81815E+03 -9.21300E+03
  9.22442E+03 -3.22737E+03  6.04112E+03  2.40305E+03  2.38683E+03  4.10879E+03  8.38039E+02  2.56713E+03
  2.93915E+03  1.17465E+03  3.91950E+03  1.35798E+03  3.79314E+03  5.21353E+03  3.80170E+03  7.09880E+03
 -2.96498E+03  1.06892E+04 -1.03453E+04  1.18680E+04 -1.44933E+04  3.16113E+03 -1.55561E+04 -6.37069E+03
 -7.22020E+03 -1.46578E+04  1.66341E+03 -1.60491E+04  8.40360E+03 -1.02110E+04  1.21469E+04 -2.75473E+03
  9.22750E+03  5.48327E+03  2.29761E+03  8.37821E+03 -3.30359E+03  5.10786E+03 -5.36002E+03 -9.54036E+02
 -2.76319E+03 -6.53455E+03  3.23090E+03 -5.81690E+03  5.85363E+03 -2.84090E+03  5.68354E+03  6.68420E+02
  3.30657E+03  2.86445E+03  2.41912E+03  2.00665E+03 -7.90337E+02  2.48806E+03  1.91256E+03 -1.04795E+03
  2.49887E+03 -3.48442E+02  5.80832E+03  1.74144E+03  3.40539E+03  7.27533E+03 -8.21518E+02  1.01813E+04
 -6.86524E+03  6.57895E+03 -9.04416E+03  1.97763E+03 -8.40686E+03 -2.86220E+03 -3.59571E+03 -6.34782E+03
  4.49721E+02 -5.88553E+03  3.85550E+03 -2.68634E+03  3.48212E+03  2.95727E+03 -8.73344E+02  4.32963E+03
 -5.82540E+03  2.79808E+03 -6.89333E+03 -3.60960E+03 -3.66323E+03 -7.66456E+03  3.25685E+02 -7.77349E+03
  4.42422E+03 -5.59813E+03  5.84279E+03 -7.73281E+02  4.35464E+03  2.18272E+03  1.28312E+03  4.53557E+03
 -2.64300E+03  1.44790E+03 -3.00752E+03 -1.92071E+03  1.65360E+03 -5.94427E+03  5.92673E+03 -5.07570E+03
  8.41794E+03  4.93690E+00  8.46752E+03  6.01938E+03  3.15378E+03  9.11782E+03 -4.36172E+03  8.93312E+03
 -7.12648E+03  3.17257E+03 -8.00682E+03 -1.29083E+03 -4.64691E+03 -5.83716E+03  1.09724E+03 -5.68934E+03
  5.92655E+03 -2.26594E+03  5.08988E+03  2.05856E+03  1.71089E+03  4.60881E+03 -1.23168E+03  4.70716E+03
 -2.29877E+03  3.31596E+03 -2.20512E+03  1.51943E+03 -1.13614E+03 -3.09288E+01 -1.42234E+03  2.07811E+03
 -2.36520E+03  3.73556E+03 -6.26075E+03  3.31009E+03 -8.58510E+03  1.45085E+01 -1.00197E+04 -5.20254E+03
 -5.64334E+03 -1.16923E+04  2.53084E+03 -1.38168E+04  8.97749E+03 -1.13428E+04  1.27623E+04 -3.46347E+03
  1.25896E+04  2.37306E+03  8.44383E+03  8.48849E+03  3.95138E+02  9.72318E+03 -2.96775E+03  7.35802E+03
 -5.38555E+03  3.55578E+03 -3.14682E+03 -1.34916E+03 -1.51347E+03 -1.85455E+02 -5.78093E+02 -6.03776E+02
 -2.25042E+03 -4.87524E+02 -2.93366E+03 -2.92460E+02 -8.49216E+02 -2.50069E+03  1.12874E+02 -3.27069E+03
  4.37033E+03 -2.88151E+03  4.88850E+03 -6.39240E+02  6.97997E+03  4.94726E+03  2.24476E+03  9.79483E+03
 -4.32807E+03  1.11877E+04 -9.77002E+03  7.43966E+03 -1.08240E+04 -9.47393E+02 -9.67046E+03 -7.29508E+03
 -3.52900E+03 -9.38973E+03  2.41146E+03 -8.36172E+03  7.39806E+03 -5.04147E+03  6.42089E+03  1.14070E+02
  4.22452E+03  3.52497E+03 -1.91780E+02  2.24150E+03 -1.66785E+03 -6.67603E+02 -5.08836E+02 -2.82935E+03
  2.89971E+03 -1.60686E+03  4.07631E+03  1.41313E+03  1.91670E+03  3.05793E+03  6.90500E+02  5.10739E+03
 -3.52268E+03  5.05397E+03 -6.61693E+03  7.21690E+02 -5.37273E+03 -4.30604E+03 -7.82322E+02 -7.55250E+03
  4.23955E+03 -6.83523E+03  7.26521E+03 -2.15067E+03  7.23006E+03  1.88749E+03  3.95721E+03  5.72294E+03
  8.32040E+02  6.53405E+03 -2.61551E+03  4.95893E+03 -4.06341E+03  2.48036E+03 -3.01319E+03  2.23785E+02
 -1.87252E+03 -9.97300E+01 -1.86920E+03  5.06437E+02 -3.92666E+03  8.09187E+02 -4.50400E+03 -1.81032E+03
 -4.95480E+03 -2.93275E+03 -1.45119E+03 -6.26955E+03  3.23846E+03 -6.49288E+03  5.60559E+03 -2.97360E+03
  5.93204E+03  6.88620E+02  3.22284E+03  4.50380E+03  4.41111E+01  6.51245E+03 -4.47813E+03  3.94244E+03
