 $NMID ID='MM_0lb_SNR400_16hz_g45_19.RAW', FMTDAT='(8E13.5)'
 TRAMP=1., VOLUME=1. $END
  3.09386E+05 -3.54202E+01  3.36918E+05  2.50020E+05  8.43775E+04  3.37156E+05 -1.32586E+05  2.50325E+05
 -1.89651E+05  8.26874E+04 -1.10785E+05 -3.28438E+04  1.12951E+03 -5.04580E+04  5.41181E+04  4.73186E+02
  3.49849E+04  5.26843E+04 -1.64545E+04  7.53048E+04 -6.09463E+04  6.32406E+04 -8.34524E+04  3.17570E+04
 -8.06863E+04 -1.12498E+04 -5.69376E+04 -5.01710E+04 -1.48608E+04 -6.86390E+04  2.71724E+04 -4.49112E+04
  3.90275E+04  3.53680E+03  1.62651E+04  4.72029E+04 -3.44102E+04  4.68363E+04 -6.60042E+04 -4.16314E+02
 -5.24633E+04 -5.63147E+04 -6.39175E+03 -7.60815E+04  3.31268E+04 -5.38855E+04  4.71370E+04 -1.71396E+04
  4.22952E+04  1.08936E+04  3.17540E+04  2.46478E+04  1.59646E+04  2.87254E+04 -5.11739E+03  2.70039E+04
 -2.22211E+04  1.27489E+04 -1.87207E+04 -4.38920E+03  4.80203E+03 -8.16247E+03  2.12957E+04  1.17897E+04
  7.33980E+03  3.43409E+04 -3.11957E+04  3.50252E+04 -6.19489E+04  2.34452E+03 -5.63855E+04 -4.22604E+04
 -1.19537E+04 -6.15527E+04  3.87511E+04 -4.43667E+04  5.66152E+04 -2.19745E+03  3.28290E+04  3.17286E+04
 -6.19478E+03  3.38574E+04 -2.97165E+04  1.43801E+04 -2.91186E+04 -4.86851E+03 -1.54499E+04 -1.08415E+04
 -8.01009E+03 -1.25007E+04 -6.14587E+02 -1.69896E+04  6.60874E+03 -2.30412E+04  1.54706E+04 -1.41520E+04
  1.15096E+04  4.44042E+03 -7.43645E+03  1.33699E+04 -1.99524E+04 -3.12442E+03 -7.99585E+03 -3.17160E+04
  2.16534E+04 -4.21570E+04  4.60547E+04 -1.89166E+04  4.36377E+04  1.88920E+04  1.53977E+04  4.27914E+04
 -1.51897E+04  3.21594E+04 -2.38999E+04  1.55017E+03 -9.37313E+03 -2.69015E+04  2.09003E+04 -3.24639E+04
  3.91942E+04 -7.90481E+03  3.36208E+04  2.29521E+04  1.63428E+04  4.41844E+04 -8.60417E+03  4.72525E+04
 -2.95826E+04  3.18147E+04 -3.93569E+04  9.09325E+03 -4.03795E+04 -1.56122E+04 -2.17562E+04 -3.58255E+04
  7.48149E+03 -3.57272E+04  3.01382E+04 -1.40939E+04  2.79459E+04  1.12168E+04  3.43441E+03  1.85189E+04
 -1.31152E+04  7.59584E+03 -9.66802E+03 -7.96539E+03  5.84130E+03 -1.05528E+04  1.78901E+04  6.54029E+03
  1.26409E+04  2.16989E+04 -6.00925E+03  2.41114E+04 -2.14656E+04  9.86932E+03 -2.65726E+04 -5.52839E+03
 -1.79779E+04 -1.63832E+04 -6.91639E+03 -1.87419E+04  4.00314E+03 -1.66892E+04  1.40720E+04 -1.63890E+04
  2.33963E+04 -1.18216E+04  3.03492E+04  1.95770E+03  2.23033E+04  1.83127E+04  3.73682E+03  3.42179E+04
 -1.64891E+04  2.90254E+04 -2.68687E+04  1.01327E+04 -2.09291E+04 -1.05683E+04 -3.85159E+03 -1.42550E+04
  2.59807E+03 -3.76534E+03 -3.73556E+03  6.06937E+03 -1.39249E+04  4.91045E+03 -1.46653E+04 -6.07630E+03
 -8.95387E+03 -1.71389E+04  5.28909E+03 -2.11914E+04  1.36613E+04 -1.49682E+04  1.59036E+04 -1.27900E+03
  9.81770E+03  1.25634E+04 -9.23052E+02  1.76115E+04 -1.09659E+04  9.66084E+03 -1.70759E+04 -3.45809E+03
 -1.29974E+04 -1.53784E+04 -1.74732E+03 -2.06048E+04  9.41006E+03 -1.70958E+04  1.80491E+04 -7.96289E+03
  1.57723E+04  4.29860E+02  1.21565E+04  4.14681E+03  5.38093E+03  8.63804E+02  8.42782E+03 -1.29946E+03
  1.56493E+04  2.29633E+03  1.70741E+04  1.37649E+04  1.08641E+04  2.73848E+04 -3.53767E+03  3.09029E+04
 -1.78338E+04  2.39351E+04 -2.75567E+04  1.11269E+04 -2.85049E+04 -2.17379E+03 -2.38063E+04 -1.65646E+04
 -1.10118E+04 -2.34317E+04  7.92879E+03 -2.19470E+04  1.88294E+04 -1.15340E+04  1.70359E+04  4.70124E+03
  7.07008E+03  1.28622E+04 -7.55978E+03  1.13484E+04 -1.47921E+04  2.26201E+03 -1.08130E+04 -8.88897E+03
  2.99616E+01 -1.36682E+04  7.06138E+03 -1.07080E+04  9.23198E+03 -1.76063E+03  1.76312E+03  5.94413E+03
 -6.21307E+03  1.57982E+03 -4.25965E+03 -4.65383E+03  5.01015E+02 -1.14037E+04  9.09196E+03 -1.14462E+04
  1.41836E+04 -5.50228E+03  1.48574E+04  2.84297E+03  1.28648E+04  1.09500E+04  6.52940E+03  1.62073E+04
 -2.00218E+03  1.87922E+04 -1.17149E+04  1.19784E+04 -1.27380E+04  2.99114E+03 -9.73836E+03 -2.34108E+03
 -4.85958E+03 -4.01683E+03 -8.54097E+02  9.99353E+02 -1.88483E+03  2.20641E+03 -4.14898E+03  4.16649E+03
 -9.13969E+03 -2.23218E+02 -1.04413E+04 -7.61042E+03 -3.50840E+03 -1.31922E+04  3.60516E+03 -9.42279E+03
  8.71248E+03 -4.36395E+03  6.35694E+03  1.91620E+03  6.32909E+00  3.40259E+03 -4.21671E+03 -4.75623E+02
 -4.06417E+03 -5.70920E+03 -7.86771E+02 -8.45022E+03  5.21311E+03 -9.39471E+03  1.21126E+04 -4.91329E+03
  1.35177E+04  1.09446E+03  1.02728E+04  7.72506E+03  1.41173E+03  1.11826E+04 -5.97599E+03  9.89267E+03
 -7.84090E+03  2.80360E+03 -4.13017E+03 -1.51003E+03  1.56839E+03 -2.53807E+03  5.28132E+03 -9.42055E+02
  4.35834E+03  4.40015E+03  8.23952E+02  7.35544E+03 -5.26452E+03  7.66277E+03 -9.13893E+03  1.47284E+03
 -6.28523E+03 -3.94439E+03  4.31225E+02 -8.09292E+03  4.15275E+03 -4.33426E+03  4.77685E+03  1.68948E+03
  7.96280E+02  4.83840E+03 -4.84704E+03  6.33863E+03 -6.12120E+03  2.80415E+03 -5.90245E+03 -1.81405E+03
 -3.56599E+03 -8.11241E+03  1.45398E+03 -9.23479E+03  8.04149E+03 -6.19227E+03  7.89370E+03  1.16436E+03
  5.67100E+03  6.99562E+03  1.82036E+02  8.41250E+03 -6.35321E+03  5.21278E+03 -7.35561E+03 -5.80845E+02
 -6.49817E+03 -5.60674E+03 -1.67027E+03 -6.24835E+03  3.26392E+03 -5.24723E+03  3.78809E+03 -3.06022E+03
  2.94242E+03  5.58529E+02  1.84233E+01  1.09656E+03  1.73431E+02 -5.13194E+02  5.39968E+02 -2.41405E+03
  4.95335E+03 -1.76946E+03  7.36963E+03  1.36990E+03  7.28258E+03  4.51829E+03  6.28074E+03  9.70172E+03
 -1.99329E+03  1.08683E+04 -1.00325E+04  8.01941E+03 -1.28143E+04  1.51985E+03 -9.65294E+03 -4.11466E+03
 -5.34148E+03 -8.17074E+03 -6.83697E+02 -6.53635E+03  2.65580E+03 -3.57036E+03  1.50334E+03 -2.84822E+03
  1.93459E+03 -1.81014E+03  2.40147E+03 -2.65194E+03  3.36268E+03 -1.52355E+03  4.56762E+03  6.99534E+01
  5.01928E+03  1.44466E+03  1.48191E+03  4.43886E+03 -2.18308E+03  3.98429E+03 -5.60291E+03  3.73741E+03
 -6.51619E+03 -3.35828E+02 -3.86552E+03 -5.17162E+03 -3.51085E+02 -7.12382E+03  4.26476E+03 -7.51844E+03
  6.64509E+03 -4.45117E+03  8.66882E+03  6.94350E+02  6.30092E+03  5.11422E+03  1.19124E+03  8.34719E+03
 -2.97746E+03  7.50297E+03 -4.32436E+03  2.10670E+03 -2.76029E+03 -1.16105E+03 -8.15980E+02 -8.40204E+02
 -3.15510E+02 -1.00336E+02 -1.71900E+03  1.92868E+03 -3.07893E+03  1.19370E+03 -4.86328E+03 -1.15822E+02
 -2.32199E+03 -5.07562E+03  5.12170E+02 -6.17227E+03  3.82559E+03 -5.46992E+03  5.38117E+03 -1.84048E+03
  5.86478E+03  3.54173E+03  2.85845E+03  5.40903E+03 -1.50595E+03  6.08438E+03 -3.20273E+03  3.71099E+03
 -5.07839E+03  8.95308E+02 -4.36250E+03 -3.28432E+03 -2.97045E+02 -4.53048E+03  2.46083E+03 -3.79240E+03
  4.27731E+03 -1.40344E+03  2.82698E+03  4.28460E+02  9.65120E+02  1.74871E+03  6.93870E+02  1.25677E+03
  2.03086E+03  2.91529E+02  1.55412E+03  1.16228E+03  1.46244E+03  2.88698E+03  1.90595E+03  2.24738E+03
 -1.25972E+03  4.43013E+03 -3.96576E+03  5.38617E+03 -4.64716E+03  1.32404E+03 -5.77436E+03 -1.43821E+03
 -2.48917E+03 -6.12460E+03  9.10981E+02 -6.38852E+03  2.75888E+03 -4.23893E+03  4.42207E+03 -1.10930E+03
  3.39555E+03  2.58842E+03  8.19511E+02  3.18636E+03 -1.19184E+03  2.27209E+03 -1.52536E+03 -5.96302E+02
 -8.10513E+02 -2.39241E+03  1.50485E+03 -2.44637E+03  1.84062E+03 -1.69071E+03  1.70721E+03  3.03329E+02
  1.56608E+03  9.92175E+02  9.77228E+02  5.18135E+01 -2.10873E+02  1.11132E+03  1.83740E+03  5.09379E+01
  3.86315E+02 -7.60358E+02  2.46391E+03  8.02985E+02  7.69662E+02  2.61307E+03 -5.23613E+02  4.35013E+03
 -2.53053E+03  2.17938E+03 -3.47544E+03  4.53474E+02 -2.68204E+03 -8.17468E+02 -3.92664E+02 -1.95305E+03
  3.31977E+02 -2.26361E+03  1.48933E+03 -1.06967E+03  8.53802E+02  1.31263E+03 -9.39351E+02  1.48024E+03
 -2.21894E+03  1.52889E+03 -1.89299E+03 -1.80526E+03 -9.67222E+02 -2.58762E+03  4.33623E+02 -2.32656E+03
  1.29908E+03 -1.47438E+03  1.47599E+03 -5.72681E+02  2.15385E+03  5.78901E+02  3.47059E+02  2.05253E+03
 -9.86234E+02  5.59237E+02 -1.24907E+03  2.23824E+02  5.31331E+02 -1.60286E+03  3.08364E+03 -9.07517E+02
  2.26012E+03  9.40328E+01  3.93250E+03  1.86296E+03  1.66402E+03  2.93572E+03 -7.80755E+02  2.32692E+03
 -2.39023E+03  7.49746E+02 -2.82509E+03 -3.18485E+02 -1.31599E+03 -1.81125E+03  6.42707E+02 -1.51975E+03
  1.49802E+03 -9.93869E+02  1.41133E+03  1.14881E+03  6.28210E+01  2.16241E+03 -3.31467E+01  1.37880E+03
 -4.18537E+02  1.47189E+03 -6.74728E+02  1.98507E+02 -3.51337E+00  1.50603E+02 -5.60707E+02  5.46006E+02
 -2.35595E+02  5.15836E+02 -2.01208E+03  4.39991E+02 -2.88458E+03 -5.92390E+01 -3.47920E+03 -2.09894E+03
 -1.28755E+03 -3.76027E+03  6.82903E+02 -4.35288E+03  1.68370E+03 -3.52208E+03  4.77795E+03 -1.21751E+03
  3.83422E+03  4.27810E+01  2.45052E+03  2.54659E+03 -6.49860E+02  2.79401E+03 -1.15590E+03  2.44975E+03
 -1.56246E+03  1.08804E+03 -1.26802E+03 -1.18163E+02 -9.69358E+02  1.80767E+01 -8.73468E+02 -2.00963E+02
 -1.67895E+03  3.27935E+02 -9.02787E+02 -4.28446E+02  1.49371E+02 -4.60601E+02 -1.92952E+02 -8.99427E+02
  1.92060E+03 -5.20795E+02  8.23155E+02  4.17114E+02  1.76025E+03  1.72467E+03 -5.80069E+02  2.63849E+03
 -1.96832E+03  3.30552E+03 -2.70269E+03  2.38297E+03 -3.92988E+03 -1.62078E+02 -2.11005E+03 -2.02024E+03
 -1.38336E+03 -2.08993E+03  7.85178E+02 -2.40436E+03  1.15340E+03 -9.78273E+02  1.49093E+03  5.18174E+02
  1.62114E+03  4.14025E+02 -2.35055E+02 -8.53266E+01 -7.12636E+02  5.08846E+02 -3.76781E+02 -5.28707E+02
  1.08264E+03 -2.47918E+01  8.39797E+02  8.13243E+02  5.12618E+02  1.02923E+03  5.31856E+02  1.14495E+03
 -1.28281E+03  1.33875E+03 -1.17257E+03  3.70176E+02 -1.32195E+03 -1.01260E+03  3.09808E+02 -2.47250E+03
  1.18863E+03 -1.70482E+03  1.02452E+03 -2.62736E+02  1.68010E+03 -6.40946E+02  9.18634E+02  1.74930E+03
  1.41660E+02  1.07940E+03 -3.90594E+02  1.38897E+03 -1.10187E+03  7.05059E+02 -1.30000E+03  2.05687E+02
 -2.92471E+02  5.93258E+01 -5.92164E+02  4.55194E+02 -1.03981E+03  1.27489E+02 -1.47539E+03 -5.85833E+02
 -1.37024E+03 -1.26444E+02  1.05609E+02 -1.56187E+03  1.16503E+03 -2.52393E+03  1.60271E+03 -8.64730E+02
  1.14491E+03  1.39357E+02  2.38380E+02  1.25852E+03  3.13150E+02  1.61933E+03 -1.47212E+03  1.01661E+03
