 $NMID ID='MM_0lb_SNR400_13hz_g60_90.RAW', FMTDAT='(8E13.5)'
 TRAMP=1., VOLUME=1. $END
  3.09699E+05  3.14952E+02  3.37379E+05  2.51390E+05  8.43320E+04  3.37648E+05 -1.32742E+05  2.51165E+05
 -1.90621E+05  8.37853E+04 -1.12400E+05 -3.25253E+04  3.45200E+02 -5.09172E+04  5.38581E+04 -3.00756E+02
  3.55980E+04  5.27269E+04 -1.64399E+04  7.65291E+04 -6.14494E+04  6.39197E+04 -8.45224E+04  3.24132E+04
 -8.20404E+04 -1.12198E+04 -5.76652E+04 -5.18065E+04 -1.57006E+04 -7.05502E+04  2.79968E+04 -4.68330E+04
  4.07401E+04  3.80007E+03  1.65889E+04  4.83241E+04 -3.40376E+04  4.74443E+04 -6.75129E+04 -4.77009E+02
 -5.45646E+04 -5.72920E+04 -7.46033E+03 -7.75977E+04  3.42650E+04 -5.62966E+04  4.96511E+04 -1.71239E+04
  4.46481E+04  1.11618E+04  3.24538E+04  2.63943E+04  1.64440E+04  2.98562E+04 -5.51647E+03  2.74040E+04
 -2.19327E+04  1.17123E+04 -1.80539E+04 -5.03552E+03  6.52660E+03 -6.90576E+03  2.33655E+04  1.32670E+04
  6.97844E+03  3.68556E+04 -3.29259E+04  3.67627E+04 -6.51351E+04  2.16872E+03 -5.80544E+04 -4.42263E+04
 -1.23499E+04 -6.50042E+04  4.03117E+04 -4.62613E+04  6.00339E+04 -2.38301E+03  3.56979E+04  3.31316E+04
 -5.62081E+03  3.78535E+04 -3.07677E+04  1.73525E+04 -3.20349E+04 -3.83573E+03 -1.75371E+04 -1.09652E+04
 -9.04014E+03 -1.40869E+04 -8.84874E+02 -1.91061E+04  8.48813E+03 -2.33754E+04  1.57627E+04 -1.25275E+04
  1.09302E+04  5.50176E+03 -9.50403E+03  1.21172E+04 -2.27557E+04 -5.48482E+03 -8.57502E+03 -3.55530E+04
  2.44566E+04 -4.49287E+04  4.97852E+04 -2.06866E+04  4.72771E+04  2.02370E+04  1.63400E+04  4.59946E+04
 -1.63866E+04  3.52102E+04 -2.65797E+04  2.29133E+03 -1.10539E+04 -2.89155E+04  2.14265E+04 -3.54253E+04
  4.23346E+04 -1.02772E+04  3.82633E+04  2.45076E+04  2.00305E+04  4.82217E+04 -8.06206E+03  5.33940E+04
 -3.38212E+04  3.59583E+04 -4.51184E+04  1.02390E+04 -4.56918E+04 -1.71752E+04 -2.43868E+04 -4.03275E+04
  7.89594E+03 -3.92955E+04  3.25053E+04 -1.60344E+04  3.12178E+04  1.10744E+04  4.73247E+03  2.00388E+04
 -1.35023E+04  9.12314E+03 -1.07043E+04 -7.65507E+03  5.28700E+03 -1.14284E+04  1.77189E+04  5.80440E+03
  1.39127E+04  2.15499E+04 -5.52704E+03  2.56073E+04 -2.32416E+04  1.23659E+04 -2.98935E+04 -4.17788E+03
 -2.33619E+04 -1.76453E+04 -9.66702E+03 -2.26822E+04  4.68436E+03 -2.27656E+04  1.74234E+04 -2.05101E+04
  2.94890E+04 -1.31845E+04  3.55239E+04  3.86837E+03  2.49898E+04  2.24959E+04  5.21136E+03  3.82265E+04
 -1.88246E+04  3.21283E+04 -2.88990E+04  1.09788E+04 -2.16408E+04 -9.52355E+03 -4.46494E+03 -1.30490E+04
  1.71659E+03 -2.30186E+03 -5.94553E+03  6.75589E+03 -1.77948E+04  5.22781E+03 -1.81876E+04 -7.98516E+03
 -1.05988E+04 -2.10346E+04  5.03311E+03 -2.58054E+04  1.66796E+04 -1.81575E+04  2.05364E+04 -1.13115E+03
  1.24954E+04  1.43551E+04 -1.22349E+03  2.02690E+04 -1.45420E+04  1.20389E+04 -2.11629E+04 -3.93948E+03
 -1.54366E+04 -1.89345E+04 -2.24366E+03 -2.49575E+04  1.18203E+04 -2.11296E+04  2.07093E+04 -1.07536E+04
  1.94832E+04 -3.03234E+02  1.47759E+04  5.74861E+03  8.01592E+03  1.30290E+03  1.14848E+04 -1.64563E+03
  1.96605E+04  3.02912E+03  2.22505E+04  1.65508E+04  1.42195E+04  3.32110E+04 -2.95576E+03  3.87588E+04
 -2.21953E+04  3.18510E+04 -3.61389E+04  1.54014E+04 -3.83148E+04 -2.76738E+03 -3.12694E+04 -2.23094E+04
 -1.24193E+04 -3.14816E+04  1.14261E+04 -2.74796E+04  2.36601E+04 -1.43216E+04  2.11052E+04  6.41722E+03
  7.02932E+03  1.56770E+04 -9.72187E+03  1.39414E+04 -1.79557E+04  2.96145E+03 -1.34369E+04 -1.10528E+04
  3.91284E+02 -1.67587E+04  9.15510E+03 -1.24596E+04  1.12023E+04 -1.19871E+03  2.43950E+03  7.05119E+03
 -8.04759E+03  3.93906E+03 -7.51244E+03 -5.50978E+03 -1.41028E+03 -1.48591E+04  1.02119E+04 -1.60401E+04
  1.93293E+04 -9.57086E+03  2.09345E+04  3.95507E+03  1.84899E+04  1.61051E+04  8.62582E+03  2.37903E+04
 -5.21015E+03  2.56503E+04 -1.62673E+04  1.57518E+04 -1.87945E+04  3.98533E+03 -1.32952E+04 -4.37938E+03
 -5.99836E+03 -6.04688E+03 -1.36081E+03  1.83783E+03 -2.80163E+03  3.38673E+03 -6.12895E+03  4.88685E+03
 -1.26483E+04 -1.90884E+03 -1.26054E+04 -1.03351E+04 -5.21102E+03 -1.64797E+04  5.16024E+03 -1.30637E+04
  1.04581E+04 -5.55453E+03  8.06709E+03  3.12114E+03 -5.37170E+02  5.42337E+03 -6.06570E+03 -4.94188E+02
 -6.14712E+03 -8.68196E+03 -7.06748E+02 -1.24958E+04  7.30184E+03 -1.31312E+04  1.60002E+04 -7.19559E+03
  1.89585E+04  1.98135E+03  1.34834E+04  1.18116E+04  2.56377E+03  1.49451E+04 -8.43243E+03  1.25118E+04
 -1.03533E+04  3.85161E+03 -5.39299E+03 -2.97258E+03  1.99264E+03 -3.84672E+03  7.03029E+03 -1.56732E+03
  6.53230E+03  5.70531E+03  1.74853E+03  9.72382E+03 -7.17041E+03  9.47386E+03 -1.23829E+04  2.80787E+03
 -8.10314E+03 -5.79012E+03  1.57283E+02 -1.06972E+04  6.89714E+03 -5.19150E+03  7.45586E+03  2.59095E+03
  1.36863E+03  6.82888E+03 -6.40574E+03  9.66858E+03 -9.88391E+03  4.09125E+03 -1.06413E+04 -4.01568E+03
 -5.86918E+03 -1.18930E+04  3.36013E+03 -1.37211E+04  1.21506E+04 -7.51850E+03  1.28922E+04  1.82679E+03
  8.21639E+03  9.59164E+03 -6.51739E+02  1.24982E+04 -9.27857E+03  7.27790E+03 -1.02836E+04 -1.59972E+03
 -9.06806E+03 -8.45400E+03 -9.32421E+02 -9.40146E+03  4.95155E+03 -7.68947E+03  5.90726E+03 -2.41808E+03
  3.90542E+03  1.78666E+03 -8.64787E+02  1.42152E+03  2.54313E+02 -2.00972E+03  1.78841E+03 -5.20028E+03
  8.32341E+03 -3.57303E+03  1.14147E+04  1.63223E+03  1.12066E+04  7.48398E+03  7.88161E+03  1.53022E+04
 -3.26363E+03  1.74720E+04 -1.43862E+04  1.33715E+04 -1.94681E+04  2.16317E+03 -1.52433E+04 -6.09330E+03
 -7.99081E+03 -1.24990E+04 -2.79183E+02 -1.04054E+04  4.30542E+03 -5.51794E+03  3.43679E+03 -3.86404E+03
  2.73064E+03 -2.49008E+03  3.45027E+03 -4.04489E+03  4.94428E+03 -3.17934E+03  6.47902E+03 -1.29665E+03
  7.71709E+03  1.52449E+03  3.70780E+03  6.96991E+03 -1.72172E+03  7.34668E+03 -7.98516E+03  6.71226E+03
 -1.02866E+04 -1.67304E+03 -6.52599E+03 -7.05341E+03 -9.03568E+02 -1.10364E+04  6.52691E+03 -1.06921E+04
  1.18107E+04 -5.84451E+03  1.37948E+04  1.77854E+03  9.54348E+03  9.19948E+03  8.09257E+02  1.28102E+04
 -5.09670E+03  1.05445E+04 -7.37088E+03  3.32560E+03 -5.45977E+03 -1.71034E+03 -2.00974E+03 -1.51006E+03
 -1.28612E+03 -3.76062E+02 -2.00395E+03  2.42370E+03 -4.64777E+03  1.63582E+03 -7.07394E+03 -1.08291E+03
 -5.71419E+03 -6.91649E+03  6.77244E+02 -9.86841E+03  5.71653E+03 -9.39941E+03  9.82189E+03 -2.79449E+03
  8.99096E+03  4.78398E+03  4.95693E+03  8.66353E+03 -2.22350E+03  1.01330E+04 -7.41592E+03  5.97871E+03
 -8.98934E+03  8.03106E+02 -6.67616E+03 -6.20911E+03 -5.43743E+02 -8.76698E+03  4.55524E+03 -5.24696E+03
  5.78269E+03 -2.75206E+03  4.58461E+03  1.31561E+03  1.46116E+03  3.49638E+03  1.29119E+03  1.44690E+03
  1.34121E+03  5.29533E+02  2.62256E+03  1.23699E+03  3.30781E+03  3.91811E+03  3.18474E+03  5.35608E+03
 -1.89365E+03  7.21026E+03 -7.49471E+03  7.71346E+03 -9.29000E+03  1.86306E+03 -1.03073E+04 -3.24255E+03
 -4.90049E+03 -9.87752E+03  1.78281E+03 -1.04413E+04  4.97022E+03 -6.30422E+03  7.30458E+03 -1.64969E+03
  7.29568E+03  3.63264E+03  1.03051E+03  4.94062E+03 -2.21312E+03  3.32184E+03 -4.03304E+03 -6.49918E+02
 -1.78421E+03 -4.35146E+03  2.20653E+03 -3.75101E+03  2.92682E+03 -1.36359E+03  3.71011E+03  1.32153E+03
  2.16629E+03  1.77134E+03  9.66146E+02  6.71073E+02 -3.33370E+02  1.37323E+03  1.66256E+03  7.57508E+01
  1.13949E+03 -2.75289E+02  3.96390E+03  1.81954E+03  1.37120E+03  5.06976E+03 -9.11607E+02  6.74882E+03
 -4.18975E+03  3.91195E+03 -5.96294E+03  9.29319E+02 -5.34361E+03 -2.04026E+03 -2.04919E+03 -2.94998E+03
  1.08215E+03 -3.82423E+03  2.62785E+03 -1.80131E+03  1.82643E+03  1.91140E+03 -9.09092E+02  2.62905E+03
 -3.88146E+03  1.76783E+03 -3.80326E+03 -2.53466E+03 -2.17987E+03 -5.04556E+03  9.69153E+01 -5.25224E+03
  3.04459E+03 -2.03266E+03  3.45837E+03  5.39284E+02  3.04422E+03  4.75656E+02  4.85181E+02  2.83847E+03
 -1.95371E+03  9.58863E+02 -2.18816E+03 -1.62898E+03  1.15668E+03 -3.46903E+03  4.47176E+03 -2.68389E+03
  4.96454E+03  1.68421E+02  5.66185E+03  3.49580E+03  1.69851E+03  5.07644E+03 -1.40074E+03  5.66640E+03
 -4.28084E+03  1.72764E+03 -4.74001E+03 -6.40870E+02 -2.86761E+03 -3.99672E+03  4.88930E+02 -2.57044E+03
  4.23857E+03 -2.31612E+03  3.43859E+03  1.28221E+03  8.08071E+02  3.42793E+03 -8.66849E+02  2.39383E+03
 -1.64834E+03  1.82162E+03 -1.12163E+03  7.59203E+02 -5.37513E+02  1.35746E+03 -9.01078E+02  1.48208E+03
 -1.65247E+03  2.88468E+03 -3.76956E+03  1.67484E+03 -4.96975E+03  4.84109E+02 -5.72414E+03 -3.59871E+03
 -2.16601E+03 -6.99630E+03  2.16704E+03 -8.10504E+03  4.93008E+03 -6.47228E+03  7.69356E+03 -2.55695E+03
  7.23092E+03  1.42352E+03  4.45358E+03  5.10313E+03  6.56691E+02  5.60908E+03 -2.32642E+03  4.11034E+03
 -2.65003E+03  1.81548E+03 -2.00522E+03 -6.37242E+02 -4.86120E+02 -3.16577E+02  9.43244E+01 -4.52153E+01
 -1.04199E+03  3.75434E+02 -1.64175E+03 -1.30776E+02  2.22435E+02 -1.67872E+03 -3.20174E+01 -2.41448E+03
  2.07646E+03 -1.79142E+03  3.34513E+03  2.47496E+02  4.04375E+03  3.13126E+03  3.54824E+02  5.97208E+03
 -2.94511E+03  6.37090E+03 -5.69340E+03  3.94563E+03 -6.77488E+03 -5.91097E+02 -4.46888E+03 -3.88812E+03
 -1.73247E+03 -5.00097E+03  1.66416E+03 -4.55266E+03  3.16220E+03 -3.32083E+03  2.65456E+03  4.73617E+01
  1.69397E+03  1.40797E+03  6.27757E+02  9.47902E+02 -1.18346E+03 -4.85083E+01 -3.02530E+02 -6.17580E+02
  1.65978E+03 -5.33855E+02  1.71032E+03  1.49059E+03  1.09554E+03  2.03125E+03 -3.72434E+02  2.54775E+03
 -2.22386E+03  2.39084E+03 -2.92243E+03  5.06867E+02 -2.82318E+03 -1.57429E+03 -2.05562E+02 -3.89269E+03
  2.07527E+03 -3.63671E+03  3.24308E+03 -1.05972E+03  3.64640E+03  3.52796E+02  2.29711E+03  2.92604E+03
  4.31996E+02  2.52226E+03 -1.07169E+03  2.22254E+03 -2.47890E+03  1.75616E+03 -2.04227E+03  5.74855E+02
 -4.65778E+02  2.63973E+02 -1.35099E+03  6.71373E+02 -1.36378E+03  7.14983E+02 -2.05138E+03 -8.28833E+02
 -2.38007E+03 -8.98453E+02 -1.11212E+03 -3.37764E+03  1.68673E+03 -3.14734E+03  2.50298E+03 -1.76472E+03
  3.14805E+03  4.50153E+02  1.48002E+03  2.14689E+03  3.81217E+02  2.37146E+03 -1.95870E+03  2.09437E+03
