 $NMID ID='MM_0lb_SNR400_10hz_g40_99.RAW', FMTDAT='(8E13.5)'
 TRAMP=1., VOLUME=1. $END
  3.09639E+05  4.24509E+02  3.37839E+05  2.50082E+05  8.47773E+04  3.38637E+05 -1.32402E+05  2.51102E+05
 -1.90517E+05  8.33649E+04 -1.11905E+05 -3.27389E+04  2.98669E+02 -5.01331E+04  5.46151E+04 -1.64630E+02
  3.54909E+04  5.31623E+04 -1.65865E+04  7.57360E+04 -6.11323E+04  6.36622E+04 -8.42835E+04  3.24867E+04
 -8.17721E+04 -1.14316E+04 -5.74435E+04 -5.24057E+04 -1.53985E+04 -7.04674E+04  2.82800E+04 -4.59990E+04
  3.99774E+04  3.33779E+03  1.64906E+04  4.78438E+04 -3.47613E+04  4.76489E+04 -6.79216E+04 -8.05230E+01
 -5.50615E+04 -5.71552E+04 -7.27870E+03 -7.77895E+04  3.41713E+04 -5.64736E+04  4.93254E+04 -1.77579E+04
  4.50285E+04  1.20800E+04  3.23663E+04  2.67588E+04  1.61563E+04  3.01832E+04 -5.31518E+03  2.79950E+04
 -2.24660E+04  1.23799E+04 -1.75315E+04 -5.78654E+03  6.90240E+03 -7.35584E+03  2.32410E+04  1.26654E+04
  6.77054E+03  3.61540E+04 -3.27119E+04  3.66298E+04 -6.48716E+04  1.53008E+03 -5.75365E+04 -4.40617E+04
 -1.26784E+04 -6.49350E+04  4.05985E+04 -4.68289E+04  5.99698E+04 -2.82796E+03  3.60298E+04  3.36085E+04
 -5.81570E+03  3.79354E+04 -3.16814E+04  1.75714E+04 -3.18575E+04 -4.33183E+03 -1.79391E+04 -1.15622E+04
 -8.66205E+03 -1.43333E+04 -9.29668E+02 -1.83262E+04  8.51696E+03 -2.35176E+04  1.58155E+04 -1.21118E+04
  1.12621E+04  5.17891E+03 -9.75911E+03  1.27378E+04 -2.25458E+04 -5.82859E+03 -8.45058E+03 -3.60566E+04
  2.41974E+04 -4.52188E+04  5.02929E+04 -2.03590E+04  4.68420E+04  2.08295E+04  1.69726E+04  4.63765E+04
 -1.64810E+04  3.47420E+04 -2.68043E+04  2.28697E+03 -1.01392E+04 -2.98958E+04  2.16365E+04 -3.51277E+04
  4.32450E+04 -9.87333E+03  3.81796E+04  2.40191E+04  2.02654E+04  4.95516E+04 -7.86805E+03  5.33824E+04
 -3.37328E+04  3.65062E+04 -4.48424E+04  1.06517E+04 -4.48784E+04 -1.76754E+04 -2.45683E+04 -4.01516E+04
  7.47094E+03 -4.07699E+04  3.34476E+04 -1.66369E+04  3.12643E+04  1.13714E+04  4.86266E+03  2.07276E+04
 -1.43243E+04  9.50551E+03 -1.07076E+04 -7.26089E+03  5.98936E+03 -1.09283E+04  1.89584E+04  5.78819E+03
  1.44754E+04  2.19668E+04 -5.07703E+03  2.62982E+04 -2.38137E+04  1.27169E+04 -3.01934E+04 -3.36272E+03
 -2.29165E+04 -1.76104E+04 -9.95896E+03 -2.29845E+04  4.21921E+03 -2.37521E+04  1.84913E+04 -2.11819E+04
  2.92858E+04 -1.40519E+04  3.59080E+04  4.01871E+03  2.57187E+04  2.32446E+04  5.12464E+03  3.86664E+04
 -1.93038E+04  3.26330E+04 -2.96712E+04  1.15871E+04 -2.21074E+04 -9.87415E+03 -4.62197E+03 -1.26046E+04
  9.61176E+02 -2.37116E+03 -6.59033E+03  6.96220E+03 -1.82809E+04  5.39688E+03 -1.91843E+04 -8.20899E+03
 -1.09681E+04 -2.11231E+04  5.25624E+03 -2.49638E+04  1.75181E+04 -1.92034E+04  2.03765E+04 -1.85346E+03
  1.30388E+04  1.48637E+04 -5.51414E+02  2.13791E+04 -1.49354E+04  1.29295E+04 -2.18219E+04 -5.18997E+03
 -1.60257E+04 -1.89286E+04 -1.69830E+03 -2.49174E+04  1.14805E+04 -2.08511E+04  2.12998E+04 -1.12939E+04
  2.06636E+04  2.60219E+02  1.49467E+04  5.34303E+03  8.27863E+03  8.43211E+02  1.15190E+04 -1.51777E+03
  2.04757E+04  3.20716E+03  2.30911E+04  1.73543E+04  1.59636E+04  3.44839E+04 -3.27297E+03  4.03312E+04
 -2.32957E+04  3.30376E+04 -3.76632E+04  1.70856E+04 -3.99557E+04 -3.04378E+03 -3.28765E+04 -2.32933E+04
 -1.36374E+04 -3.31608E+04  1.14296E+04 -2.96146E+04  2.51716E+04 -1.43755E+04  2.22711E+04  6.75580E+03
  8.30030E+03  1.63093E+04 -1.10907E+04  1.44223E+04 -1.83616E+04  2.30318E+03 -1.38185E+04 -1.23808E+04
  7.04459E+01 -1.73773E+04  9.78850E+03 -1.36113E+04  1.24578E+04 -8.87178E+02  3.03043E+03  7.82433E+03
 -8.00030E+03  4.08495E+03 -7.54760E+03 -5.87348E+03 -1.59548E+03 -1.66673E+04  1.09199E+04 -1.79213E+04
  2.10066E+04 -9.54550E+03  2.25690E+04  2.79564E+03  1.98996E+04  1.66598E+04  8.98069E+03  2.60378E+04
 -5.52715E+03  2.71849E+04 -1.75751E+04  1.78854E+04 -1.94042E+04  3.95885E+03 -1.42662E+04 -4.75661E+03
 -6.10071E+03 -6.30029E+03 -3.81231E+02  3.88152E+02 -2.18326E+03  2.57851E+03 -6.36995E+03  4.80598E+03
 -1.28454E+04 -4.84719E+02 -1.25330E+04 -1.03434E+04 -4.97177E+03 -1.79320E+04  5.89683E+03 -1.54270E+04
  1.19064E+04 -6.66656E+03  8.17802E+03  3.63157E+03  6.25412E+02  5.45221E+03 -6.86179E+03 -4.94368E+02
 -7.03133E+03 -8.87618E+03 -1.50333E+03 -1.37512E+04  7.65132E+03 -1.37817E+04  1.79029E+04 -7.99589E+03
  2.06944E+04  1.93478E+03  1.50820E+04  1.19937E+04  2.76859E+03  1.63785E+04 -8.38636E+03  1.39141E+04
 -1.13040E+04  2.89274E+03 -5.91269E+03 -3.02415E+03  2.20788E+03 -3.88284E+03  6.97391E+03 -8.59397E+02
  7.42416E+03  5.51495E+03  1.31064E+03  1.13440E+04 -8.43371E+03  1.09538E+04 -1.43875E+04  2.68448E+03
 -1.00035E+04 -7.50823E+03  3.24150E+02 -1.20237E+04  8.15278E+03 -5.76475E+03  7.39787E+03  2.41788E+03
  2.28836E+03  8.40850E+03 -8.03320E+03  1.04766E+04 -1.20787E+04  3.69798E+03 -1.20048E+04 -4.32102E+03
 -7.13517E+03 -1.32160E+04  3.22076E+03 -1.56954E+04  1.30863E+04 -8.72223E+03  1.40187E+04  2.94901E+03
  9.16114E+03  1.16667E+04 -1.77302E+03  1.32904E+04 -1.02594E+04  8.14676E+03 -1.06095E+04 -7.94215E+02
 -9.73930E+03 -8.89044E+03 -1.77836E+03 -1.05981E+04  4.76121E+03 -8.82371E+03  7.04010E+03 -4.31525E+03
  4.47231E+03  1.72277E+03 -6.99755E+02  2.23629E+03 -4.64755E+02 -2.82184E+03  1.85101E+03 -7.06108E+03
  9.91781E+03 -3.42863E+03  1.33888E+04  1.32756E+03  1.32631E+04  9.46948E+03  9.17895E+03  1.76761E+04
 -4.39118E+03  2.04125E+04 -1.72192E+04  1.55112E+04 -2.18356E+04  3.12578E+03 -1.75092E+04 -7.84754E+03
 -9.75291E+03 -1.46527E+04 -4.28227E+02 -1.24012E+04  4.41864E+03 -6.87572E+03  4.16545E+03 -4.17622E+03
  2.84680E+03 -2.68377E+03  4.12016E+03 -4.05588E+03  5.10237E+03 -3.11790E+03  6.95231E+03 -1.62862E+03
  9.87713E+03  2.61062E+03  4.81922E+03  7.45561E+03 -2.31580E+03  8.67725E+03 -9.00281E+03  6.83086E+03
 -1.28979E+04 -1.44285E+03 -8.07453E+03 -8.76201E+03 -1.34987E+03 -1.39616E+04  7.26827E+03 -1.35960E+04
  1.38925E+04 -8.05537E+03  1.65430E+04  1.91926E+03  1.15816E+04  1.21440E+04  1.90745E+03  1.53101E+04
 -6.31789E+03  1.26697E+04 -8.61372E+03  4.42614E+03 -6.55821E+03 -1.62041E+03 -3.49371E+03 -2.33648E+03
 -1.46985E+03  2.35207E+02 -1.58101E+03  1.55177E+03 -5.68418E+03  2.41671E+03 -8.37565E+03 -1.44501E+03
 -6.05132E+03 -8.71420E+03  4.67176E+02 -1.21592E+04  6.92029E+03 -1.14006E+04  1.19693E+04 -3.67540E+03
  1.18345E+04  5.85002E+03  5.68965E+03  1.00312E+04 -8.95529E+02  1.25332E+04 -7.89531E+03  7.38351E+03
 -1.13340E+04  4.29718E+02 -8.62486E+03 -7.97887E+03 -1.09056E+03 -1.08014E+04  4.73659E+03 -7.52834E+03
  7.46170E+03 -2.67035E+03  5.67065E+03  2.14990E+03  2.11488E+03  4.16561E+03  9.74080E+02  1.03068E+03
  2.05115E+03  9.52721E+02  3.07411E+03  1.14811E+03  3.32970E+03  3.91906E+03  2.77655E+03  5.38163E+03
 -2.61011E+03  1.05476E+04 -8.36510E+03  9.70901E+03 -1.17889E+04  2.81760E+03 -1.25941E+04 -4.99576E+03
 -6.00213E+03 -1.28348E+04  2.09708E+03 -1.35909E+04  7.75547E+03 -7.97237E+03  1.00421E+04 -2.07271E+03
  7.77255E+03  5.09447E+03  2.27416E+03  7.02351E+03 -3.58489E+03  4.47279E+03 -5.26699E+03 -3.88968E+02
 -2.67006E+03 -5.35415E+03  2.43636E+03 -5.82209E+03  5.21041E+03 -2.09678E+03  4.98504E+03  1.06318E+03
  3.23822E+03  2.42802E+03  1.55451E+03  2.03918E+03 -3.02210E+02  1.51409E+03  6.61294E+02 -4.75721E+02
  1.88122E+03 -1.11226E+03  5.45830E+03  2.76646E+03  2.80658E+03  6.13864E+03 -1.27997E+03  9.06815E+03
 -5.87658E+03  5.49129E+03 -7.65091E+03  2.20230E+03 -7.54414E+03 -2.41434E+03 -2.29872E+03 -5.18226E+03
  7.68400E+02 -5.26549E+03  3.47975E+03 -2.58223E+03  2.05453E+03  3.21153E+03 -1.28739E+03  4.16604E+03
 -5.17035E+03  2.30883E+03 -5.32504E+03 -3.42333E+03 -3.86144E+03 -7.33785E+03  7.64802E+02 -6.77759E+03
  3.46419E+03 -3.60464E+03  5.21985E+03 -6.89049E+02  3.86205E+03  1.04002E+03  3.51761E+02  3.48863E+03
 -2.08707E+03  7.52515E+02 -2.80543E+03 -1.88694E+03  1.86745E+03 -4.72135E+03  6.94023E+03 -4.46213E+03
  6.83824E+03  8.38144E+02  7.96811E+03  4.84722E+03  2.10476E+03  8.75299E+03 -2.67752E+03  7.10773E+03
 -6.79166E+03  2.98355E+03 -6.54012E+03 -1.60630E+03 -3.24047E+03 -5.43161E+03  4.75159E+02 -4.65950E+03
  5.14736E+03 -2.08263E+03  3.90305E+03  2.04595E+03  7.86043E+02  4.39681E+03 -9.11888E+02  4.26152E+03
 -1.97321E+03  2.43589E+03 -1.50832E+03  1.09595E+03 -3.96734E+02  6.79024E+02 -9.61654E+02  1.79779E+03
 -2.23667E+03  3.52912E+03 -4.83073E+03  2.73443E+03 -7.51132E+03 -2.13796E+01 -9.09765E+03 -5.24183E+03
 -4.29185E+03 -1.04253E+04  2.50783E+03 -1.23659E+04  7.30140E+03 -8.93274E+03  1.11791E+04 -3.35773E+03
  1.10957E+04  2.63088E+03  6.50417E+03  7.98699E+03  7.01409E+02  8.75658E+03 -3.04422E+03  6.46130E+03
 -4.24929E+03  2.70626E+03 -3.64915E+03 -1.08629E+03 -8.56061E+02 -1.10926E+03 -1.04271E+03  6.46744E+01
 -2.62999E+03 -3.54077E+02 -1.30120E+03 -7.58776E+02 -8.97562E+02 -1.66078E+03  7.14458E+02 -2.99993E+03
  3.57078E+03 -2.69183E+03  4.93246E+03  2.57858E+01  6.10026E+03  4.77756E+03  5.75618E+02  8.22490E+03
 -3.78883E+03  9.18437E+03 -8.66919E+03  5.11741E+03 -9.35340E+03 -5.29926E+02 -7.50604E+03 -5.59012E+03
 -3.02981E+03 -7.98341E+03  1.88297E+03 -7.85742E+03  5.37599E+03 -4.25512E+03  5.48586E+03  1.48925E+02
  2.45896E+03  2.70903E+03 -7.70760E+02  2.50132E+03 -1.84193E+03  2.21040E+02 -2.65470E+02 -1.72373E+03
  2.50890E+03 -5.77519E+02  3.32649E+03  1.24136E+03  2.56617E+03  2.55358E+03 -9.42118E+01  4.20919E+03
 -3.90700E+03  3.71509E+03 -5.92264E+03  1.24544E+03 -4.90416E+03 -3.08814E+03 -6.21025E+02 -6.97335E+03
  3.67199E+03 -5.83905E+03  5.61160E+03 -2.32030E+03  6.45262E+03  1.54104E+03  3.12633E+03  4.64633E+03
  1.19295E+03  4.44364E+03 -2.32118E+03  3.94927E+03 -3.32399E+03  2.32374E+03 -3.07869E+03  6.30687E+02
 -1.41815E+03  2.13972E+02 -1.25582E+03  5.84309E+02 -2.27705E+03  1.66379E+03 -4.84610E+03 -6.11193E+02
 -3.86267E+03 -2.48858E+03 -1.85446E+03 -5.19169E+03  2.16781E+03 -5.49802E+03  5.23283E+03 -2.39100E+03
  4.98242E+03  1.17584E+03  2.30041E+03  4.44021E+03 -4.92312E+02  4.82741E+03 -3.46405E+03  2.62755E+03
