 $NMID ID='MM_0lb_SNR400_18hz_g45_45.RAW', FMTDAT='(8E13.5)'
 TRAMP=1., VOLUME=1. $END
  3.09915E+05  4.09598E+02  3.37294E+05  2.50401E+05  8.42643E+04  3.37232E+05 -1.32123E+05  2.50615E+05
 -1.89170E+05  8.25473E+04 -1.11045E+05 -3.29403E+04  1.16945E+03 -5.06530E+04  5.39243E+04  6.67366E+02
  3.53731E+04  5.24191E+04 -1.72607E+04  7.46938E+04 -6.08505E+04  6.27326E+04 -8.28602E+04  3.15244E+04
 -8.01960E+04 -1.06656E+04 -5.62586E+04 -5.01850E+04 -1.49459E+04 -6.84527E+04  2.64983E+04 -4.51410E+04
  3.91631E+04  4.21172E+03  1.57245E+04  4.65662E+04 -3.40185E+04  4.58110E+04 -6.52134E+04 -9.74395E+02
 -5.23842E+04 -5.61811E+04 -5.89429E+03 -7.51985E+04  3.33158E+04 -5.34594E+04  4.66712E+04 -1.58150E+04
  4.16726E+04  1.07427E+04  3.08399E+04  2.51757E+04  1.60038E+04  2.84581E+04 -4.44592E+03  2.68724E+04
 -2.20033E+04  1.33198E+04 -1.94145E+04 -4.50798E+03  4.77765E+03 -8.24553E+03  2.11257E+04  1.08133E+04
  7.56748E+03  3.37637E+04 -3.08734E+04  3.42846E+04 -6.12456E+04  2.00988E+03 -5.54412E+04 -4.15245E+04
 -1.20481E+04 -6.05950E+04  3.82861E+04 -4.35259E+04  5.50147E+04 -1.49835E+03  3.23586E+04  3.05774E+04
 -6.88436E+03  3.33737E+04 -2.90560E+04  1.37114E+04 -2.77401E+04 -5.61190E+03 -1.43561E+04 -9.99374E+03
 -7.16928E+03 -1.19450E+04 -9.62949E+02 -1.66247E+04  6.93551E+03 -2.21180E+04  1.49837E+04 -1.44294E+04
  1.20660E+04  4.84234E+03 -6.53484E+03  1.30698E+04 -1.91379E+04 -2.90366E+03 -8.14299E+03 -3.02888E+04
  2.06499E+04 -4.03185E+04  4.45973E+04 -1.90608E+04  4.22100E+04  1.77612E+04  1.43863E+04  4.20292E+04
 -1.51706E+04  3.13481E+04 -2.34741E+04  1.25659E+03 -8.89528E+03 -2.63356E+04  1.94940E+04 -3.11314E+04
  3.85373E+04 -7.04611E+03  3.17144E+04  2.27531E+04  1.56627E+04  4.26460E+04 -8.29725E+03  4.54406E+04
 -2.84814E+04  2.97260E+04 -3.73279E+04  8.86469E+03 -3.81748E+04 -1.48670E+04 -2.19856E+04 -3.47313E+04
  6.28801E+03 -3.44831E+04  2.92495E+04 -1.32151E+04  2.70798E+04  1.10929E+04  2.86802E+03  1.75208E+04
 -1.31787E+04  6.83965E+03 -9.36316E+03 -8.38069E+03  6.11279E+03 -1.01638E+04  1.74018E+04  6.99201E+03
  1.22137E+04  2.14091E+04 -6.56326E+03  2.36044E+04 -2.12126E+04  9.72988E+03 -2.52490E+04 -6.97547E+03
 -1.75117E+04 -1.61057E+04 -5.49818E+03 -1.68252E+04  3.53288E+03 -1.48526E+04  1.26165E+04 -1.46360E+04
  2.15134E+04 -1.18357E+04  2.79693E+04  1.14963E+03  2.14817E+04  1.63769E+04  3.81840E+03  3.29019E+04
 -1.65789E+04  2.78561E+04 -2.61958E+04  9.88882E+03 -1.97484E+04 -1.03692E+04 -4.15212E+03 -1.37665E+04
  2.99999E+03 -3.87254E+03 -2.70496E+03  5.38545E+03 -1.33326E+04  4.73203E+03 -1.37748E+04 -5.22773E+03
 -8.93501E+03 -1.62385E+04  4.66841E+03 -1.94233E+04  1.26647E+04 -1.45273E+04  1.49773E+04 -1.41946E+03
  9.24634E+03  1.08749E+04 -8.61950E+02  1.61894E+04 -1.08851E+04  8.76977E+03 -1.58361E+04 -3.74074E+03
 -1.17036E+04 -1.40937E+04 -1.25612E+03 -1.88524E+04  8.90311E+03 -1.57570E+04  1.61162E+04 -7.52936E+03
  1.50022E+04  6.34732E+02  1.07078E+04  4.35990E+03  4.50913E+03  5.15059E+02  8.08454E+03 -1.63264E+03
  1.40956E+04  2.52984E+03  1.48978E+04  1.32853E+04  9.23804E+03  2.53381E+04 -2.86268E+03  2.71059E+04
 -1.58584E+04  2.05990E+04 -2.49099E+04  9.65184E+03 -2.54601E+04 -1.89544E+03 -2.19776E+04 -1.38132E+04
 -1.03433E+04 -2.09405E+04  6.36117E+03 -1.96075E+04  1.67314E+04 -1.00023E+04  1.63259E+04  3.61357E+03
  6.80087E+03  1.16392E+04 -7.35248E+03  1.06760E+04 -1.32334E+04  2.60847E+03 -9.87804E+03 -7.81741E+03
  1.81970E+02 -1.30406E+04  6.26625E+03 -9.86131E+03  7.78791E+03 -1.30215E+03  8.08315E+02  5.23197E+03
 -5.97454E+03  1.45041E+03 -3.85246E+03 -4.63687E+03  7.42433E+02 -1.06071E+04  7.75662E+03 -1.05779E+04
  1.25573E+04 -4.94701E+03  1.21627E+04  2.98208E+03  1.08492E+04  9.58709E+03  5.39795E+03  1.41809E+04
 -1.84976E+03  1.59914E+04 -9.93751E+03  1.05980E+04 -1.18446E+04  2.58759E+03 -8.90081E+03 -2.15459E+03
 -4.42570E+03 -3.52578E+03 -1.00055E+03  8.87815E+02 -2.06329E+03  2.01397E+03 -3.78435E+03  4.22962E+03
 -8.18329E+03 -9.52622E+02 -9.04676E+03 -7.33935E+03 -3.89536E+03 -1.13458E+04  3.91487E+03 -8.12917E+03
  7.50482E+03 -4.13777E+03  5.55246E+03  1.68536E+03  8.28681E+02  3.16904E+03 -3.27730E+03 -3.88622E+02
 -3.25758E+03 -4.93381E+03 -4.99180E+02 -7.38267E+03  4.12549E+03 -7.98567E+03  1.04134E+04 -3.89874E+03
  1.16643E+04  1.38077E+02  8.57009E+03  6.15642E+03  1.59738E+03  8.55101E+03 -5.63939E+03  8.65518E+03
 -6.79340E+03  2.58809E+03 -4.07663E+03 -1.54146E+03  9.82200E+02 -1.77795E+03  4.84590E+03 -6.89363E+02
  3.64463E+03  3.60839E+03  6.20722E+02  6.60251E+03 -4.53391E+03  6.69077E+03 -7.64293E+03  1.73901E+03
 -5.24306E+03 -3.77773E+03  6.27426E+02 -6.88820E+03  4.11244E+03 -3.28636E+03  3.59011E+03  1.03616E+03
  2.68122E+01  3.04990E+03 -4.15549E+03  4.94096E+03 -5.40776E+03  2.39154E+03 -4.91067E+03 -1.42155E+03
 -3.28977E+03 -6.40677E+03  1.23673E+03 -7.62171E+03  5.76253E+03 -5.57186E+03  6.77951E+03  9.90362E+02
  4.27788E+03  6.06381E+03  9.67192E+00  7.05348E+03 -5.36461E+03  3.56477E+03 -5.53533E+03 -9.27570E+01
 -5.93568E+03 -5.21188E+03 -1.23174E+03 -4.81016E+03  2.97731E+03 -5.01065E+03  2.94552E+03 -2.93828E+03
  2.65614E+03  4.87720E+02  3.41596E+02  1.01499E+03  3.61976E+02 -1.04190E+01  4.70161E+02 -1.94700E+03
  4.24356E+03 -1.17822E+03  5.55155E+03  8.39021E+02  6.20061E+03  3.32117E+03  5.25430E+03  7.43832E+03
 -1.54380E+03  8.51250E+03 -7.82231E+03  6.48603E+03 -1.04038E+04  8.58249E+02 -7.90949E+03 -3.56184E+03
 -3.99798E+03 -6.79274E+03 -6.53823E+02 -4.95830E+03  2.57593E+03 -2.58827E+03  1.44576E+03 -2.13324E+03
  1.15720E+03 -1.02445E+03  1.75518E+03 -2.36565E+03  3.81290E+03 -1.56827E+03  4.04434E+03  5.71975E+02
  4.67205E+03  1.28808E+03  1.26021E+03  3.40159E+03 -1.43323E+03  2.78900E+03 -4.41617E+03  2.19810E+03
 -4.92817E+03 -1.37552E+03 -1.94167E+03 -3.42522E+03 -2.37702E+02 -5.25947E+03  3.20114E+03 -5.57482E+03
  5.28814E+03 -3.09987E+03  7.00295E+03  2.66510E+02  4.97410E+03  4.26177E+03  8.36596E+02  6.19402E+03
 -1.94993E+03  5.71398E+03 -3.20921E+03  1.94972E+03 -1.95715E+03 -1.11483E+03 -3.44721E+02 -5.20834E+02
 -9.57853E+02  6.24282E+02 -9.65384E+02  2.19055E+03 -2.73663E+03  9.77581E+02 -4.35363E+03 -3.88339E+02
 -1.29836E+03 -4.48813E+03  9.19185E+02 -5.12652E+03  2.53320E+03 -4.44729E+03  3.61387E+03 -9.32333E+02
  4.41551E+03  2.87631E+03  2.15186E+03  3.54303E+03 -8.07431E+02  4.29550E+03 -3.04642E+03  2.44475E+03
 -4.35633E+03  2.14976E+02 -3.87977E+03 -2.10884E+03 -1.38272E+02 -3.45433E+03  1.59090E+03 -2.86038E+03
  3.23042E+03 -1.67778E+03  2.25317E+03  2.34054E+02  9.93762E+02  1.71325E+03  3.66367E+02  2.51696E+02
  2.43643E+03  7.02205E+02  7.77977E+02  1.04534E+03  1.28418E+03  2.63810E+03  1.82960E+03  2.14412E+03
 -7.30820E+02  3.65220E+03 -2.70695E+03  4.43956E+03 -3.15089E+03  1.38809E+03 -4.04801E+03 -9.35423E+02
 -2.01435E+03 -3.37676E+03  3.64671E+02 -5.26173E+03  1.88479E+03 -2.67425E+03  2.98001E+03 -1.16664E+03
  2.43698E+03  2.10321E+03  5.42864E+02  2.41016E+03 -9.36929E+02  1.54226E+03 -1.26741E+03 -1.10383E+03
 -1.17822E+03 -1.34666E+03  1.30196E+03 -1.74145E+03  1.09401E+03 -1.30856E+03  1.86237E+03  1.51406E+02
  7.01698E+02  5.54595E+02  9.37753E+02 -1.54038E+01 -9.22904E+01  8.36738E+02  8.13645E+02 -2.55043E+02
 -4.46760E+01 -5.92881E+02  1.27297E+03  4.40235E+02  7.73940E+01  2.39921E+03 -5.06315E+02  3.24557E+03
 -1.80962E+03  9.00850E+02 -1.92941E+03  6.70786E+02 -2.24777E+03 -1.23135E+03  2.26769E+02 -1.26605E+03
  4.78298E+02 -1.05298E+03  1.35651E+03 -1.10168E+03  4.82335E+02  1.15093E+03 -8.24667E+02  9.46441E+02
 -1.48065E+03  9.65378E+02 -1.54727E+03 -1.26928E+03 -6.29418E+02 -2.05102E+03  1.00139E+02 -1.97352E+03
  2.92200E+02 -8.24223E+02  9.40099E+02  4.69301E+02  1.02063E+03 -1.61427E+02  4.20930E+02  1.13464E+03
 -7.19562E+01  1.19446E+02 -1.03583E+03 -2.63094E+02  9.63964E+02 -1.02189E+03  1.09471E+03 -4.96018E+02
  1.46471E+03  2.53911E+02  3.14558E+03  1.10587E+03  8.84644E+02  1.88640E+03 -3.31986E+02  2.53119E+03
 -1.53622E+03  3.70099E+02 -1.34343E+03  2.99167E+02 -4.25239E+02 -1.44356E+03 -3.36690E+02 -9.14035E+02
  1.97038E+03 -6.13323E+02  5.73026E+02  8.95626E+02  1.06170E+02  1.30558E+03  4.97941E+02  9.49727E+02
 -3.21433E+02  8.79219E+02  2.83383E+02  1.43234E+01  3.36532E+01  6.22158E+02 -6.96847E+02  1.20703E+03
 -3.34780E+02  1.52644E+03 -1.75411E+03  7.85024E+02 -1.60978E+03 -2.33149E+02 -2.79409E+03 -6.37596E+02
 -1.33768E+03 -2.39769E+03  6.86870E+02 -3.31220E+03  1.46896E+03 -2.13128E+03  2.87903E+03 -9.62631E+02
  2.91232E+03  4.08581E+02  1.31871E+03  1.22851E+03 -4.52506E+02  1.70703E+03 -8.67558E+02  1.11349E+03
 -1.30171E+03  1.09242E+03 -3.03106E+02  4.10522E+02 -8.63614E+02  4.76957E+01 -1.09870E+03  3.82002E+02
 -1.36634E+03  6.03377E+02 -1.06643E+03 -1.32239E+02  3.88385E+02 -3.99633E+02 -5.61011E+02 -1.08702E+03
  1.13528E+03 -8.21141E+02  7.10807E+02  7.26763E+01  1.04963E+03  9.52558E+02 -4.64885E+02  1.71493E+03
 -8.92898E+02  2.12690E+03 -2.13399E+03  9.93823E+02 -1.98240E+03 -5.63960E+02 -1.24835E+03 -7.02308E+02
 -1.91950E+02 -1.10453E+03 -1.68534E+02 -1.48866E+03  5.61963E+02 -2.47793E+02  7.75673E+02 -4.34095E+02
  1.20714E+03  3.04761E+02 -9.00431E+01  3.06077E+02 -7.02372E+01 -1.25916E+01  1.00292E+02  7.73031E+01
  5.16345E+02  5.28292E+02  6.58093E+02  1.19741E+01  2.20988E+02  5.85454E+02  6.77838E+02  3.18268E+02
 -2.47821E+02  3.49931E+02 -8.52450E+02  2.60236E+02 -1.11063E+03 -8.26134E+02 -1.63872E+01 -1.33494E+03
  1.11660E+03 -7.95305E+02  4.37983E+02 -4.16051E+02  8.18128E+02  2.91233E+01 -8.47291E+01  6.66758E+02
  2.12315E+02  9.84492E+02 -1.28762E+03  5.85445E+02 -3.78781E+02  8.66359E+02 -5.06165E+02  4.22990E+02
 -3.05080E+02 -2.02162E+02 -8.15530E+02  2.32746E+02 -9.50707E+02  7.18937E+02 -8.63621E+02 -3.48524E+02
 -1.41015E+03  2.47543E+02 -2.80260E+02 -1.05098E+03  8.17233E+02 -2.24991E+03  5.11602E+02  6.06348E+01
  5.09151E+02  2.80151E+02 -7.86296E+02  4.12815E+02  4.99082E+01  1.01248E+03 -3.90398E+02  8.24175E+02
