 $NMID ID='MM_0lb_SNR400_7hz_g55_52.RAW', FMTDAT='(8E13.5)'
 TRAMP=1., VOLUME=1. $END
  3.10444E+05  8.91463E+02  3.37802E+05  2.50205E+05  8.41331E+04  3.37975E+05 -1.33025E+05  2.51969E+05
 -1.91629E+05  8.50315E+04 -1.13206E+05 -3.15092E+04  2.45534E+02 -5.02411E+04  5.28467E+04 -8.67264E+02
  3.67060E+04  5.22723E+04 -1.74248E+04  7.56836E+04 -6.13488E+04  6.53451E+04 -8.54341E+04  3.37018E+04
 -8.43054E+04 -1.26613E+04 -5.94382E+04 -5.35821E+04 -1.46169E+04 -7.10921E+04  2.76761E+04 -4.75078E+04
  4.17163E+04  4.18154E+03  1.77317E+04  4.92485E+04 -3.52633E+04  4.81183E+04 -6.93235E+04  3.02896E+02
 -5.62622E+04 -5.94200E+04 -7.73117E+03 -7.99416E+04  3.49929E+04 -5.78906E+04  5.03630E+04 -1.79650E+04
  4.57401E+04  1.08857E+04  3.44417E+04  2.65834E+04  1.62883E+04  3.12467E+04 -6.24684E+03  2.75731E+04
 -2.23837E+04  1.17958E+04 -1.82665E+04 -5.36852E+03  8.15158E+03 -7.25767E+03  2.40552E+04  1.36679E+04
  6.87466E+03  3.85547E+04 -3.46257E+04  3.81157E+04 -6.64445E+04  2.11010E+03 -6.02385E+04 -4.64459E+04
 -1.18571E+04 -6.70291E+04  4.22894E+04 -4.85647E+04  6.32144E+04 -2.08289E+03  3.80483E+04  3.54126E+04
 -6.32141E+03  4.08130E+04 -3.30828E+04  2.00146E+04 -3.47580E+04 -2.77880E+03 -2.11249E+04 -1.26880E+04
 -9.97696E+03 -1.60289E+04 -8.32343E+02 -2.06131E+04  8.35266E+03 -2.41049E+04  1.61877E+04 -1.28556E+04
  1.03602E+04  6.41847E+03 -1.05680E+04  1.18707E+04 -2.45066E+04 -8.48360E+03 -7.98978E+03 -3.86730E+04
  2.55550E+04 -4.86487E+04  5.37203E+04 -2.10657E+04  5.03696E+04  2.12877E+04  1.89150E+04  4.91826E+04
 -1.69513E+04  3.79125E+04 -2.88499E+04  3.41450E+03 -1.31406E+04 -3.07920E+04  2.18801E+04 -3.79166E+04
  4.65680E+04 -1.18697E+04  4.25874E+04  2.55130E+04  2.39402E+04  5.39426E+04 -8.90713E+03  5.90862E+04
 -3.78414E+04  4.10682E+04 -5.03783E+04  1.13522E+04 -4.96574E+04 -1.90571E+04 -2.65391E+04 -4.48442E+04
  8.37721E+03 -4.47429E+04  3.47083E+04 -1.80328E+04  3.37398E+04  1.20162E+04  5.79069E+03  2.21655E+04
 -1.36450E+04  1.12817E+04 -1.08972E+04 -7.85215E+03  5.27787E+03 -1.13716E+04  1.96545E+04  4.87372E+03
  1.64316E+04  2.30178E+04 -4.96646E+03  2.81231E+04 -2.42148E+04  1.53151E+04 -3.44900E+04 -2.43151E+03
 -2.89583E+04 -1.92268E+04 -1.34623E+04 -2.76029E+04  4.81067E+03 -2.89033E+04  2.18628E+04 -2.46484E+04
  3.50377E+04 -1.39269E+04  4.08406E+04  6.43363E+03  2.86761E+04  2.57721E+04  4.25313E+03  4.38345E+04
 -2.05773E+04  3.66964E+04 -3.26372E+04  1.31840E+04 -2.29383E+04 -9.83021E+03 -4.86573E+03 -1.24172E+04
  2.16281E+02 -2.44866E+02 -9.77368E+03  8.48696E+03 -2.19511E+04  4.94057E+03 -2.23359E+04 -1.05210E+04
 -1.33094E+04 -2.55410E+04  6.52899E+03 -3.09477E+04  2.09826E+04 -2.14032E+04  2.48242E+04 -1.54393E+03
  1.66950E+04  1.69953E+04 -2.75394E+03  2.53474E+04 -1.80797E+04  1.50196E+04 -2.56812E+04 -4.63875E+03
 -1.87677E+04 -2.32308E+04 -1.95914E+03 -3.18135E+04  1.41091E+04 -2.56685E+04  2.58259E+04 -1.41782E+04
  2.37511E+04 -7.50592E+02  1.78320E+04  5.55647E+03  1.03838E+04  1.96923E+03  1.39692E+04 -2.10670E+03
  2.57801E+04  3.71811E+03  2.89838E+04  2.01583E+04  1.94710E+04  4.16491E+04 -2.62765E+03  4.95538E+04
 -2.80766E+04  4.19706E+04 -4.71303E+04  2.17386E+04 -5.04647E+04 -4.00443E+03 -4.10134E+04 -2.97999E+04
 -1.60945E+04 -4.21923E+04  1.50148E+04 -3.62632E+04  3.14516E+04 -1.62620E+04  2.74384E+04  9.27856E+03
  8.26753E+03  2.15059E+04 -1.26018E+04  1.76591E+04 -2.20675E+04  2.40510E+03 -1.67722E+04 -1.47817E+04
 -2.16346E+02 -2.10100E+04  1.23909E+04 -1.54240E+04  1.46386E+04 -1.36860E+03  4.51946E+03  1.04072E+04
 -9.59391E+03  5.74681E+03 -1.04905E+04 -7.66191E+03 -1.75703E+03 -2.09118E+04  1.34977E+04 -2.23902E+04
  2.66812E+04 -1.28542E+04  3.08611E+04  3.31683E+03  2.66396E+04  2.14134E+04  1.19906E+04  3.44584E+04
 -5.83867E+03  3.60323E+04 -2.32306E+04  2.21720E+04 -2.71743E+04  4.70400E+03 -1.74402E+04 -6.89639E+03
 -7.31713E+03 -8.59782E+03 -8.33418E+02  2.62716E+02 -3.83626E+03  3.84419E+03 -8.58225E+03  6.65623E+03
 -1.54037E+04 -8.71068E+02 -1.64939E+04 -1.34017E+04 -6.34741E+03 -2.10946E+04  7.63961E+03 -1.80032E+04
  1.48819E+04 -6.82425E+03  1.04813E+04  5.19739E+03 -4.45922E+02  6.93333E+03 -9.07107E+03 -5.04992E+02
 -9.14954E+03 -1.28666E+04 -1.95785E+03 -1.85347E+04  1.04245E+04 -1.94962E+04  2.37843E+04 -1.06686E+04
  2.77339E+04  3.14636E+03  2.04110E+04  1.76712E+04  3.39364E+03  2.21637E+04 -1.10708E+04  1.83669E+04
 -1.38825E+04  4.89569E+03 -7.70503E+03 -4.65770E+03  2.64725E+03 -5.25177E+03  9.81490E+03 -3.21063E+02
  8.43658E+03  8.51014E+03  3.33110E+02  1.49908E+04 -1.17782E+04  1.36517E+04 -1.82446E+04  3.84558E+03
 -1.26920E+04 -1.01328E+04 -1.38223E+02 -1.54723E+04  1.09008E+04 -9.01654E+03  1.14121E+04  3.54202E+03
  3.56609E+03  1.17066E+04 -9.73736E+03  1.42661E+04 -1.52283E+04  5.72403E+03 -1.73135E+04 -6.12945E+03
 -1.00012E+04 -1.90906E+04  4.81382E+03 -2.25244E+04  1.95831E+04 -1.27218E+04  1.96310E+04  3.65761E+03
  1.18716E+04  1.56608E+04 -2.05270E+03  1.97433E+04 -1.41854E+04  1.09223E+04 -1.56035E+04 -1.35670E+03
 -1.31400E+04 -1.28514E+04 -1.27455E+03 -1.37984E+04  6.75221E+03 -1.12800E+04  9.73720E+03 -4.33053E+03
  5.44467E+03  3.25437E+03 -2.12135E+03  2.68152E+03 -1.73704E+03 -4.93424E+03  3.27782E+03 -9.19859E+03
  1.42857E+04 -6.81106E+03  2.17529E+04  1.68922E+03  1.86679E+04  1.41743E+04  1.31190E+04  2.61648E+04
 -6.72922E+03  3.01300E+04 -2.52558E+04  2.15006E+04 -3.15950E+04  3.57072E+03 -2.62420E+04 -1.19208E+04
 -1.19013E+04 -2.12387E+04  2.63106E+00 -1.83719E+04  6.72244E+03 -1.03024E+04  7.20118E+03 -5.62674E+03
  4.38288E+03 -3.78548E+03  4.10897E+03 -4.38006E+03  7.04092E+03 -3.63339E+03  1.00914E+04 -1.36827E+03
  1.31484E+04  3.59628E+03  7.63947E+03  1.11095E+04 -2.47768E+03  1.53814E+04 -1.52377E+04  1.18444E+04
 -1.94205E+04 -8.29760E+02 -1.23204E+04 -1.34493E+04 -2.60032E+03 -2.00486E+04  1.10260E+04 -2.05532E+04
  2.16478E+04 -1.03951E+04  2.46955E+04  3.04809E+03  1.68699E+04  1.76209E+04  3.41140E+03  2.23329E+04
 -1.11137E+04  1.86524E+04 -1.34905E+04  6.24073E+03 -9.16732E+03 -1.53150E+03 -4.00468E+03 -3.33966E+03
 -2.12958E+03 -7.95185E+02 -3.07340E+03  2.83963E+03 -8.05562E+03  3.36941E+03 -1.34503E+04 -2.05744E+03
 -1.00598E+04 -1.21186E+04 -5.45190E+02 -1.90375E+04  1.12732E+04 -1.74836E+04  1.98283E+04 -5.20194E+03
  1.92735E+04  9.14892E+03  8.74229E+03  1.67869E+04 -4.26059E+03  1.91355E+04 -1.37598E+04  1.23233E+04
 -1.85355E+04 -1.19375E+01 -1.38416E+04 -1.11145E+04 -1.29868E+03 -1.74302E+04  7.94156E+03 -1.28884E+04
  1.30220E+04 -4.97830E+03  7.97922E+03  3.28896E+03  3.18943E+03  6.74413E+03  2.19552E+03  3.17226E+03
  3.37627E+03  1.44465E+03  5.05366E+03  2.22045E+03  6.32451E+03  6.02754E+03  5.45567E+03  1.09927E+04
 -4.46325E+03  1.64007E+04 -1.38062E+04  1.50998E+04 -2.10729E+04  4.03275E+03 -2.02914E+04 -8.33243E+03
 -1.01905E+04 -1.98565E+04  2.71139E+03 -2.21985E+04  1.30243E+04 -1.42281E+04  1.63172E+04 -4.50552E+03
  1.31064E+04  6.76000E+03  2.79560E+03  1.18950E+04 -5.83272E+03  7.45356E+03 -8.68573E+03 -1.28302E+03
 -4.80003E+03 -8.53708E+03  4.14872E+03 -8.82368E+03  8.60639E+03 -4.44382E+03  8.52644E+03  2.12196E+03
  5.57405E+03  4.98708E+03  1.68032E+03  3.72310E+03 -2.71572E+01  2.76556E+03  1.94154E+03  4.85565E+02
  3.98250E+03 -8.83876E+02  9.34728E+03  4.52192E+03  6.05128E+03  1.10518E+04 -2.21962E+03  1.43615E+04
 -9.54894E+03  9.92125E+03 -1.25696E+04  2.30373E+03 -1.09981E+04 -4.89841E+03 -4.84506E+03 -8.85368E+03
  6.40224E+02 -9.66265E+03  6.39475E+03 -3.56699E+03  4.59430E+03  3.48899E+03 -2.07273E+03  7.35460E+03
 -7.96565E+03  3.94388E+03 -9.76327E+03 -5.31217E+03 -5.20115E+03 -1.10235E+04  1.81113E+03 -1.13025E+04
  7.64500E+03 -7.94999E+03  8.32870E+03 -7.86207E+02  6.18659E+03  3.53438E+03 -3.54376E+02  6.69739E+03
 -5.09583E+03  1.04449E+03 -5.30724E+03 -4.40582E+03  1.85430E+03 -9.07686E+03  1.00503E+04 -7.76340E+03
  1.38301E+04  1.59442E+03  1.27370E+04  9.29775E+03  4.36417E+03  1.43883E+04 -5.25861E+03  1.43643E+04
 -1.13970E+04  6.11203E+03 -1.23491E+04 -1.58468E+03 -6.79989E+03 -8.32079E+03  2.44503E+03 -8.66998E+03
  8.47922E+03 -3.73582E+03  7.44270E+03  3.24488E+03  1.66971E+03  6.76993E+03 -8.64635E+02  7.11680E+03
 -3.17475E+03  4.18661E+03 -3.27417E+03  1.14037E+03 -1.60848E+03  1.27846E+03 -2.21025E+03  2.57616E+03
 -4.17232E+03  5.13105E+03 -9.53322E+03  5.44208E+03 -1.46590E+04 -7.18422E+02 -1.66728E+04 -9.74941E+03
 -8.49918E+03 -2.02459E+04  3.73203E+03 -2.19594E+04  1.39015E+04 -1.68829E+04  2.08035E+04 -6.01451E+03
  1.89199E+04  4.28143E+03  1.21494E+04  1.30038E+04  7.95651E+02  1.51302E+04 -5.50354E+03  1.12958E+04
 -7.52875E+03  3.53343E+03 -5.57779E+03 -1.42013E+03 -1.95647E+03 -2.27371E+03 -6.43560E+02 -1.01851E+03
 -2.88474E+03  1.58160E+03 -3.08445E+03 -5.15618E+02 -1.25835E+03 -3.73193E+03  2.18860E+02 -4.85787E+03
  6.27202E+03 -5.14061E+03  9.20794E+03 -1.06331E+02  1.08546E+04  8.18069E+03  3.28820E+03  1.48806E+04
 -7.17628E+03  1.70524E+04 -1.59665E+04  1.04865E+04 -1.93893E+04 -1.68146E+03 -1.45573E+04 -1.09634E+04
 -5.47134E+03 -1.49564E+04  4.43610E+03 -1.43908E+04  1.06870E+04 -8.34809E+03  1.03702E+04  3.99862E+02
  5.41497E+03  4.63088E+03 -9.18611E+02  3.51378E+03 -2.20697E+03 -8.51808E+02  2.30037E+02 -4.25281E+03
  4.90340E+03 -2.66484E+03  6.26704E+03  2.04773E+03  3.78605E+03  5.97679E+03  2.52051E+02  7.86503E+03
 -6.48441E+03  7.56241E+03 -1.04123E+04 -1.62372E+01 -9.45711E+03 -7.92304E+03 -1.59833E+03 -1.34738E+04
  7.14276E+03 -1.16451E+04  1.26436E+04 -4.37022E+03  1.31424E+04  2.66539E+03  7.20929E+03  1.06378E+04
  8.49093E+02  1.07804E+04 -5.04513E+03  7.92363E+03 -6.92295E+03  4.85768E+03 -5.38657E+03  6.43123E+02
 -3.27585E+03 -7.48469E+02 -2.65058E+03  1.32469E+03 -5.36080E+03  2.07479E+03 -8.64029E+03 -1.27916E+03
 -8.27049E+03 -6.12947E+03 -2.41513E+03 -9.95507E+03  4.90674E+03 -1.18544E+04  9.84689E+03 -6.07847E+03
  1.07362E+04  1.24451E+03  5.87981E+03  8.51667E+03 -1.19084E+03  1.03322E+04 -9.59667E+03  6.47732E+03
