 $NMID ID='MM_0lb_SNR400_12hz_g50_33.RAW', FMTDAT='(8E13.5)'
 TRAMP=1., VOLUME=1. $END
  3.09446E+05  1.10056E+03  3.38154E+05  2.50485E+05  8.45605E+04  3.38079E+05 -1.32797E+05  2.51322E+05
 -1.91044E+05  8.33285E+04 -1.11189E+05 -3.23925E+04  1.21762E+03 -5.12921E+04  5.39800E+04 -1.50482E+02
  3.55188E+04  5.30925E+04 -1.68088E+04  7.56056E+04 -6.10666E+04  6.39916E+04 -8.44679E+04  3.22535E+04
 -8.24028E+04 -1.13363E+04 -5.79319E+04 -5.16891E+04 -1.48112E+04 -7.06399E+04  2.77058E+04 -4.60514E+04
  4.08583E+04  3.69125E+03  1.63262E+04  4.78921E+04 -3.48323E+04  4.70481E+04 -6.76234E+04  9.78236E+01
 -5.38457E+04 -5.67832E+04 -7.23888E+03 -7.74737E+04  3.38124E+04 -5.54073E+04  4.85115E+04 -1.79491E+04
  4.33907E+04  1.13527E+04  3.30549E+04  2.58240E+04  1.63024E+04  2.96237E+04 -5.90887E+03  2.66662E+04
 -2.24621E+04  1.25881E+04 -1.85272E+04 -5.03927E+03  6.61123E+03 -7.93716E+03  2.27660E+04  1.26119E+04
  6.96294E+03  3.68871E+04 -3.29797E+04  3.57351E+04 -6.39273E+04  1.53655E+03 -5.75057E+04 -4.32858E+04
 -1.27457E+04 -6.49990E+04  4.02440E+04 -4.62938E+04  5.98258E+04 -2.28166E+03  3.56111E+04  3.29422E+04
 -5.05583E+03  3.74671E+04 -3.06910E+04  1.71394E+04 -3.13902E+04 -4.81732E+03 -1.79925E+04 -1.18809E+04
 -9.00400E+03 -1.43279E+04 -7.57221E+02 -1.88447E+04  7.61908E+03 -2.30667E+04  1.56818E+04 -1.36512E+04
  1.13903E+04  5.19249E+03 -9.42039E+03  1.28247E+04 -2.18579E+04 -5.28862E+03 -7.52069E+03 -3.53835E+04
  2.36872E+04 -4.47680E+04  4.94365E+04 -1.97332E+04  4.56015E+04  2.05061E+04  1.68302E+04  4.58429E+04
 -1.60282E+04  3.43764E+04 -2.56967E+04  2.43800E+03 -1.01321E+04 -2.84309E+04  2.06119E+04 -3.49773E+04
  4.24778E+04 -9.72188E+03  3.65117E+04  2.42140E+04  1.92348E+04  4.82992E+04 -8.46701E+03  5.23572E+04
 -3.35269E+04  3.56672E+04 -4.46489E+04  1.03920E+04 -4.48959E+04 -1.69427E+04 -2.48963E+04 -3.96673E+04
  7.73140E+03 -3.98634E+04  3.27043E+04 -1.55619E+04  2.99783E+04  1.14990E+04  4.12920E+03  2.00511E+04
 -1.37299E+04  8.79212E+03 -1.05257E+04 -7.27619E+03  6.28092E+03 -1.07066E+04  1.83461E+04  5.73790E+03
  1.35953E+04  2.19304E+04 -5.40947E+03  2.54286E+04 -2.26135E+04  1.23744E+04 -2.91529E+04 -3.84300E+03
 -2.27758E+04 -1.73213E+04 -9.43107E+03 -2.28737E+04  4.18716E+03 -2.22146E+04  1.71844E+04 -2.03229E+04
  2.84425E+04 -1.36833E+04  3.47966E+04  3.72543E+03  2.51205E+04  2.17846E+04  4.26601E+03  3.79846E+04
 -1.80672E+04  3.17899E+04 -2.85838E+04  1.12366E+04 -2.19554E+04 -1.00940E+04 -4.49521E+03 -1.38205E+04
  1.38288E+03 -1.67375E+03 -5.86190E+03  7.41743E+03 -1.76107E+04  5.52415E+03 -1.79229E+04 -8.06716E+03
 -1.03871E+04 -2.02976E+04  4.80852E+03 -2.47123E+04  1.69869E+04 -1.76958E+04  2.00664E+04 -1.83898E+03
  1.29361E+04  1.46830E+04 -1.32215E+03  1.98323E+04 -1.43885E+04  1.21095E+04 -2.04875E+04 -4.93968E+03
 -1.51429E+04 -1.85161E+04 -1.72555E+03 -2.48108E+04  1.10418E+04 -2.01717E+04  2.03115E+04 -1.06541E+04
  1.96538E+04  1.11582E+02  1.39151E+04  4.17714E+03  7.68082E+03  1.16472E+03  1.06088E+04 -2.01132E+03
  1.96887E+04  2.82817E+03  2.20588E+04  1.66344E+04  1.51306E+04  3.34198E+04 -2.73588E+03  3.86912E+04
 -2.21874E+04  3.13336E+04 -3.56616E+04  1.56958E+04 -3.81996E+04 -2.53305E+03 -3.08871E+04 -2.26411E+04
 -1.31339E+04 -3.10435E+04  1.11780E+04 -2.77833E+04  2.37241E+04 -1.36366E+04  2.11825E+04  6.65630E+03
  7.66107E+03  1.60385E+04 -9.76958E+03  1.41892E+04 -1.83358E+04  2.21897E+03 -1.37165E+04 -1.13321E+04
 -3.55156E+02 -1.63544E+04  9.09513E+03 -1.25428E+04  1.21574E+04 -1.19497E+03  2.50471E+03  7.21486E+03
 -7.41858E+03  3.01993E+03 -7.03516E+03 -6.37994E+03 -4.54560E+02 -1.55553E+04  1.09714E+04 -1.67896E+04
  1.88134E+04 -8.57195E+03  2.13434E+04  3.18266E+03  1.81779E+04  1.58705E+04  8.52966E+03  2.42334E+04
 -3.66203E+03  2.62289E+04 -1.67334E+04  1.58079E+04 -1.89681E+04  3.55073E+03 -1.25962E+04 -4.46739E+03
 -6.12805E+03 -5.02578E+03 -4.02911E+01  1.30570E+03 -2.22287E+03  3.61315E+03 -6.33226E+03  4.99419E+03
 -1.18895E+04 -9.24433E+02 -1.27333E+04 -9.61174E+03 -4.91501E+03 -1.66834E+04  5.71537E+03 -1.30775E+04
  1.08144E+04 -5.56273E+03  6.84959E+03  3.63280E+03  8.08494E+01  4.82816E+03 -5.69972E+03 -1.92736E+01
 -6.27435E+03 -7.87574E+03 -6.92993E+02 -1.22394E+04  6.97707E+03 -1.31917E+04  1.57405E+04 -6.98520E+03
  1.91889E+04  2.05847E+03  1.40725E+04  1.08499E+04  2.26867E+03  1.50617E+04 -8.12523E+03  1.35573E+04
 -1.04795E+04  2.77603E+03 -4.97642E+03 -2.84863E+03  1.81464E+03 -3.54010E+03  6.44257E+03 -1.19360E+03
  5.69098E+03  5.67079E+03  1.46870E+03  1.03816E+04 -7.05181E+03  9.52000E+03 -1.28005E+04  2.50670E+03
 -8.50191E+03 -6.77644E+03  4.32077E+02 -1.13140E+04  7.20560E+03 -5.48400E+03  7.93112E+03  2.94029E+03
  2.14894E+03  7.70397E+03 -6.50973E+03  9.44140E+03 -1.08155E+04  4.14923E+03 -1.05806E+04 -3.66539E+03
 -5.85493E+03 -1.20121E+04  3.40369E+03 -1.41193E+04  1.13792E+04 -8.55243E+03  1.31502E+04  2.27351E+03
  7.64259E+03  1.08504E+04 -6.20756E+02  1.26532E+04 -9.65146E+03  7.26527E+03 -9.81850E+03 -3.48155E+02
 -8.90930E+03 -9.01114E+03 -1.42174E+03 -9.55136E+03  5.34737E+03 -7.69934E+03  5.98345E+03 -3.02356E+03
  3.63457E+03  1.76423E+03 -5.04446E+02  1.27734E+03 -1.55679E+02 -1.96800E+03  1.78787E+03 -5.46642E+03
  8.77086E+03 -3.39967E+03  1.15167E+04  1.00993E+03  1.08596E+04  8.61419E+03  8.28376E+03  1.51186E+04
 -2.98603E+03  1.73946E+04 -1.57580E+04  1.30247E+04 -1.94049E+04  2.82164E+03 -1.61731E+04 -6.57473E+03
 -7.94276E+03 -1.25203E+04 -6.36459E+02 -1.08140E+04  3.98060E+03 -5.39904E+03  3.71194E+03 -4.01495E+03
  2.81093E+03 -2.35570E+03  3.12297E+03 -3.09438E+03  5.01896E+03 -2.99339E+03  5.74107E+03 -8.69961E+02
  8.18842E+03  2.00372E+03  3.94268E+03  7.51265E+03 -2.43319E+03  7.58629E+03 -8.45964E+03  6.06029E+03
 -1.09167E+04 -1.59845E+03 -6.45924E+03 -7.84749E+03 -4.12200E+02 -1.14001E+04  7.09163E+03 -1.13611E+04
  1.15224E+04 -6.86367E+03  1.41555E+04  2.09215E+03  1.01377E+04  1.01292E+04  7.67313E+02  1.23391E+04
 -5.26110E+03  1.08506E+04 -7.24765E+03  4.18062E+03 -4.59103E+03 -1.00414E+03 -2.05844E+03 -1.52372E+03
 -1.47877E+03  9.31454E+01 -2.09174E+03  2.49263E+03 -4.19191E+03  1.24910E+03 -7.82846E+03 -3.93788E+02
 -4.82151E+03 -7.27702E+03  3.92973E+02 -1.05900E+04  6.51958E+03 -9.60604E+03  1.03832E+04 -3.23466E+03
  1.07210E+04  4.76666E+03  4.61228E+03  9.47760E+03 -1.79805E+03  1.15074E+04 -7.12295E+03  6.79921E+03
 -9.78032E+03  5.41116E+02 -7.04315E+03 -6.69295E+03 -7.21768E+02 -9.20250E+03  4.59017E+03 -6.35366E+03
  6.84858E+03 -2.63970E+03  4.56966E+03  1.89328E+03  2.11158E+03  2.80403E+03  1.17410E+03  1.76362E+03
  2.27808E+03  1.00028E+03  2.13713E+03  1.51010E+03  3.30398E+03  4.10114E+03  3.44264E+03  5.81256E+03
 -2.35412E+03  8.15488E+03 -7.11242E+03  8.55881E+03 -1.02392E+04  2.13231E+03 -1.15473E+04 -3.90626E+03
 -4.99739E+03 -1.07896E+04  1.02828E+03 -1.13202E+04  5.93176E+03 -6.85311E+03  8.34567E+03 -1.43788E+03
  6.27540E+03  3.83830E+03  1.60848E+03  5.70067E+03 -3.26042E+03  3.92970E+03 -4.10391E+03 -2.97279E+02
 -2.24622E+03 -4.38140E+03  2.07221E+03 -3.78831E+03  4.02268E+03 -2.59795E+03  4.39544E+03  5.16733E+02
  2.91358E+03  1.75022E+03  6.98175E+02  1.02630E+03 -5.62869E+02  1.58078E+03  1.09740E+03 -3.06959E+02
  1.91693E+03 -1.31817E+03  4.28257E+03  9.58014E+02  2.76119E+03  5.87141E+03 -7.02318E+02  7.36919E+03
 -4.78948E+03  4.41484E+03 -6.10094E+03  8.74248E+02 -5.80427E+03 -1.78838E+03 -2.26430E+03 -4.02286E+03
 -4.32070E+02 -3.79561E+03  2.94452E+03 -1.49370E+03  2.83829E+03  2.10030E+03 -4.77164E+02  3.18104E+03
 -3.89849E+03  1.91306E+03 -4.17260E+03 -2.37864E+03 -2.38251E+03 -5.89599E+03  3.13433E+02 -5.42780E+03
  3.17383E+03 -3.01377E+03  3.90221E+03  1.27054E+02  3.31946E+03  1.42106E+03  6.07381E+02  2.71588E+03
 -1.59163E+03  1.02451E+03 -2.54173E+03 -1.24289E+03  9.79652E+02 -3.45073E+03  5.49066E+03 -3.59894E+03
  5.32780E+03  6.71711E+02  6.33456E+03  4.15606E+03  1.88649E+03  5.99596E+03 -2.06960E+03  5.67220E+03
 -4.46982E+03  2.57435E+03 -5.12534E+03 -5.63309E+02 -3.14577E+03 -3.97274E+03  9.68825E+02 -4.01904E+03
  3.88518E+03 -1.36689E+03  3.32979E+03  1.57460E+03  4.92741E+02  2.99044E+03  4.65338E+02  3.60087E+03
 -1.56733E+03  2.40760E+03 -8.42897E+02  4.92341E+02 -3.89212E+02  7.81265E+02 -1.57708E+03  1.33833E+03
 -1.63622E+03  2.65884E+03 -4.17551E+03  1.95597E+03 -6.63538E+03  2.65760E+02 -6.73026E+03 -3.55715E+03
 -3.63187E+03 -7.69081E+03  1.30560E+03 -9.14844E+03  5.46411E+03 -7.37611E+03  9.20289E+03 -2.77876E+03
  7.81527E+03  1.48733E+03  4.56611E+03  6.03302E+03 -1.81944E+02  6.42979E+03 -2.45364E+03  4.66796E+03
 -3.42276E+03  1.57928E+03 -2.19328E+03 -1.19693E+03 -7.19576E+02 -1.12928E+02 -4.46715E+02  2.72956E+00
 -1.48727E+03  3.89771E+02 -1.31623E+03  1.66814E+02 -3.30257E+02 -1.27130E+03 -3.73456E+02 -1.96307E+03
  2.86372E+03 -1.90802E+03  2.95615E+03 -3.25478E+02  3.59533E+03  3.63922E+03  8.66863E+02  6.19954E+03
 -3.55179E+03  7.30879E+03 -6.66957E+03  3.76561E+03 -7.36901E+03 -4.12250E+02 -6.05777E+03 -4.48761E+03
 -2.22004E+03 -6.23355E+03  1.90728E+03 -5.76307E+03  4.17923E+03 -3.03224E+03  4.22159E+03  4.22528E+02
  2.37689E+03  1.19879E+03 -7.68594E+02  2.14972E+03 -6.41791E+02  5.58136E+01  2.75775E+02 -1.51305E+03
  2.19611E+03 -5.14912E+02  2.18144E+03  1.14678E+03  1.16569E+03  2.49402E+03  3.99264E+02  2.44117E+03
 -3.06075E+03  2.27415E+03 -3.53203E+03  2.72061E+02 -3.41399E+03 -3.13097E+03 -2.57387E+02 -4.29627E+03
  3.03400E+03 -3.87418E+03  4.36606E+03 -9.01122E+02  4.57992E+03  7.04861E+02  2.72880E+03  3.65654E+03
  8.90623E+02  3.83882E+03 -1.86550E+03  3.44453E+03 -2.89281E+03  2.23476E+03 -2.42656E+03 -9.81589E+01
 -6.65197E+02  9.45114E+01 -1.41658E+03  5.36804E+02 -2.26284E+03  5.71996E+02 -3.24459E+03 -3.83004E+02
 -2.92491E+03 -2.03345E+03 -6.61507E+02 -3.75953E+03  2.13275E+03 -4.52939E+03  3.66860E+03 -1.61421E+03
  4.09638E+03  4.79968E+02  1.70347E+03  2.72819E+03 -7.93286E+02  3.56792E+03 -2.82149E+03  2.79185E+03
