 $NMID ID='MM_0lb_SNR400_20hz_g60_51.RAW', FMTDAT='(8E13.5)'
 TRAMP=1., VOLUME=1. $END
  3.09940E+05  3.67448E+02  3.37445E+05  2.50607E+05  8.45873E+04  3.37804E+05 -1.32461E+05  2.50615E+05
 -1.89655E+05  8.29783E+04 -1.11522E+05 -3.26178E+04  1.15441E+03 -5.06979E+04  5.36671E+04  6.32386E+02
  3.53335E+04  5.28900E+04 -1.70254E+04  7.51156E+04 -6.04801E+04  6.28676E+04 -8.40841E+04  3.15385E+04
 -8.01994E+04 -1.13924E+04 -5.62209E+04 -5.01957E+04 -1.47856E+04 -6.91674E+04  2.72727E+04 -4.52737E+04
  3.92682E+04  3.38457E+03  1.56742E+04  4.79285E+04 -3.41720E+04  4.64598E+04 -6.56917E+04 -9.31277E+02
 -5.27862E+04 -5.69234E+04 -6.46872E+03 -7.60295E+04  3.32516E+04 -5.36206E+04  4.67584E+04 -1.63797E+04
  4.23348E+04  1.11803E+04  3.13183E+04  2.48502E+04  1.59807E+04  2.85997E+04 -4.80532E+03  2.66879E+04
 -2.21390E+04  1.29675E+04 -1.90819E+04 -4.52402E+03  4.52182E+03 -7.57971E+03  2.15889E+04  1.15242E+04
  7.98846E+03  3.42665E+04 -3.09402E+04  3.47989E+04 -6.17597E+04  2.24243E+03 -5.58607E+04 -4.20987E+04
 -1.25063E+04 -6.17206E+04  3.90915E+04 -4.42906E+04  5.64027E+04 -2.09441E+03  3.25942E+04  3.09815E+04
 -5.96173E+03  3.40198E+04 -2.90512E+04  1.38804E+04 -2.87715E+04 -4.61818E+03 -1.54548E+04 -1.03911E+04
 -7.65859E+03 -1.20352E+04 -1.13076E+03 -1.72644E+04  6.65068E+03 -2.27423E+04  1.45648E+04 -1.35416E+04
  1.16810E+04  4.69669E+03 -6.87228E+03  1.30014E+04 -1.96095E+04 -3.02407E+03 -8.64114E+03 -3.13473E+04
  2.15709E+04 -4.13399E+04  4.59118E+04 -1.89699E+04  4.22072E+04  1.84683E+04  1.45650E+04  4.15958E+04
 -1.52575E+04  3.16316E+04 -2.37023E+04  9.75080E+02 -8.86536E+03 -2.64323E+04  2.03291E+04 -3.18221E+04
  3.83469E+04 -8.14354E+03  3.22070E+04  2.33374E+04  1.62531E+04  4.32697E+04 -7.81443E+03  4.62900E+04
 -2.89985E+04  3.09083E+04 -3.76920E+04  8.98870E+03 -3.93998E+04 -1.54508E+04 -2.16019E+04 -3.50321E+04
  6.81692E+03 -3.48643E+04  3.00734E+04 -1.32028E+04  2.73640E+04  1.05807E+04  2.75096E+03  1.77302E+04
 -1.31908E+04  7.27543E+03 -1.01981E+04 -8.08414E+03  5.93606E+03 -1.03116E+04  1.69739E+04  5.95722E+03
  1.24256E+04  2.17479E+04 -6.71018E+03  2.39955E+04 -2.14562E+04  9.75749E+03 -2.53769E+04 -6.18815E+03
 -1.73489E+04 -1.67542E+04 -6.07622E+03 -1.76370E+04  3.74439E+03 -1.51580E+04  1.32329E+04 -1.49774E+04
  2.17970E+04 -1.17278E+04  2.85966E+04  1.40113E+03  2.17533E+04  1.72808E+04  3.20846E+03  3.27177E+04
 -1.61803E+04  2.80275E+04 -2.57618E+04  9.57151E+03 -1.98399E+04 -1.04243E+04 -4.06322E+03 -1.39787E+04
  2.57852E+03 -3.92333E+03 -2.92955E+03  5.76119E+03 -1.24723E+04  4.84795E+03 -1.33667E+04 -4.99877E+03
 -8.44817E+03 -1.58657E+04  3.67967E+03 -1.93528E+04  1.31291E+04 -1.44255E+04  1.48276E+04 -1.45331E+03
  9.16454E+03  9.97452E+03 -9.55443E+02  1.56635E+04 -1.06050E+04  9.16227E+03 -1.60108E+04 -3.71891E+03
 -1.17280E+04 -1.45306E+04 -1.81674E+03 -1.95769E+04  8.72759E+03 -1.59402E+04  1.64162E+04 -7.14789E+03
  1.48469E+04  5.14646E+02  1.07110E+04  4.53719E+03  5.16162E+03  2.18226E+02  7.92328E+03 -1.53944E+03
  1.40815E+04  2.85467E+03  1.49683E+04  1.25713E+04  9.49874E+03  2.50444E+04 -3.47335E+03  2.77949E+04
 -1.59989E+04  2.10191E+04 -2.51318E+04  9.61016E+03 -2.50616E+04 -2.33269E+03 -2.14762E+04 -1.40169E+04
 -9.82652E+03 -2.05553E+04  6.53819E+03 -1.92346E+04  1.68053E+04 -1.13921E+04  1.59837E+04  3.21407E+03
  6.38752E+03  1.15137E+04 -6.88052E+03  1.07696E+04 -1.34478E+04  2.55480E+03 -1.05183E+04 -7.98479E+03
 -2.61467E+01 -1.20612E+04  6.04022E+03 -9.38039E+03  7.55398E+03 -8.04878E+02  1.85886E+03  5.01676E+03
 -5.53829E+03  8.17474E+02 -3.98226E+03 -4.34420E+03  1.09490E+03 -9.69433E+03  7.37918E+03 -1.01998E+04
  1.20570E+04 -4.59448E+03  1.22226E+04  2.83946E+03  9.91488E+03  9.62881E+03  4.52127E+03  1.29247E+04
 -1.67029E+03  1.55862E+04 -9.63623E+03  1.01877E+04 -1.08040E+04  2.91772E+03 -8.45870E+03 -1.85788E+03
 -4.36419E+03 -3.09484E+03 -1.08219E+03  1.85615E+03 -2.19423E+03  2.12478E+03 -3.85144E+03  3.77517E+03
 -8.10857E+03 -5.03343E+02 -8.82326E+03 -6.81378E+03 -3.44824E+03 -1.10922E+04  3.64903E+03 -8.62511E+03
  6.89630E+03 -3.66471E+03  4.91828E+03  2.28146E+03  4.64618E+02  2.75514E+03 -3.97080E+03 -9.10371E+02
 -3.56820E+03 -5.25672E+03 -7.29874E+02 -6.61969E+03  3.69023E+03 -7.64562E+03  9.42290E+03 -3.65588E+03
  1.13185E+04  6.69495E+02  8.25245E+03  6.21920E+03  1.36880E+03  7.86944E+03 -5.31716E+03  8.21655E+03
 -7.15860E+03  2.33887E+03 -2.81790E+03 -9.08122E+02  1.53238E+03 -1.53058E+03  4.78064E+03 -9.99351E+02
  3.87857E+03  2.98962E+03  1.48352E+03  6.29382E+03 -4.40785E+03  6.32742E+03 -7.03892E+03  1.78067E+03
 -4.72959E+03 -3.13385E+03  6.30180E+02 -6.32441E+03  3.61376E+03 -3.13794E+03  3.56959E+03  1.12688E+03
 -1.30198E+02  3.53932E+03 -3.66039E+03  4.58244E+03 -4.71193E+03  2.57686E+03 -4.44324E+03 -1.05580E+03
 -2.97335E+03 -5.65386E+03  8.32990E+02 -6.97519E+03  5.78974E+03 -4.50708E+03  5.86239E+03  6.93931E+02
  4.44913E+03  4.84419E+03  1.57602E+02  6.84301E+03 -5.16077E+03  3.67769E+03 -5.11433E+03 -4.19829E+02
 -4.82213E+03 -5.14379E+03 -9.42750E+02 -4.54556E+03  2.32751E+03 -4.27630E+03  3.05440E+03 -2.69962E+03
  2.63801E+03  5.92804E+02  1.88543E+02  1.18032E+03  7.41280E+02  2.63938E+02  4.59323E+02 -1.65370E+03
  3.82787E+03 -5.35334E+02  4.59876E+03  7.21943E+02  4.95041E+03  2.52213E+03  5.00255E+03  5.91328E+03
 -8.02448E+02  7.85022E+03 -7.05835E+03  6.10671E+03 -9.09931E+03  6.89745E+02 -6.99700E+03 -2.79799E+03
 -3.93770E+03 -5.92102E+03 -3.34131E+02 -4.76991E+03  2.21736E+03 -1.60855E+03  1.12346E+03 -1.47651E+03
  9.42707E+02 -1.15312E+03  2.13144E+03 -2.34169E+03  3.00681E+03 -9.96510E+02  3.15738E+03  5.91178E+02
  4.51128E+03  1.06667E+03  5.65799E+02  2.64155E+03 -1.32912E+03  2.19112E+03 -3.82558E+03  2.30596E+03
 -3.64746E+03 -1.05586E+03 -1.50475E+03 -3.08524E+03  1.27657E+02 -3.25515E+03  2.82449E+03 -4.10802E+03
  4.48483E+03 -2.60970E+03  6.08517E+03  1.37418E+02  4.90062E+03  3.88309E+03  8.11183E+02  5.31015E+03
 -1.93228E+03  5.57626E+03 -2.78420E+03  1.90782E+03 -1.41495E+03 -9.37122E+02 -4.25397E+02 -5.75778E+02
 -6.89009E+02  1.07302E+02 -5.12856E+02  2.07741E+03 -1.91734E+03  1.02519E+03 -3.84543E+03 -2.86303E+01
 -1.38497E+03 -3.73277E+03  6.44564E+02 -3.96539E+03  2.68798E+03 -3.63089E+03  3.01836E+03 -6.94657E+02
  2.98230E+03  2.16391E+03  1.51427E+03  2.59340E+03 -8.01038E+02  3.37732E+03 -2.38633E+03  2.40209E+03
 -3.49889E+03  5.39030E+02 -2.63158E+03 -2.07470E+03 -7.58654E+02 -2.68569E+03  1.59444E+03 -2.12541E+03
  2.18979E+03 -8.35675E+02  1.89881E+03 -3.17941E+02  7.56688E+02  1.29349E+03  8.68977E+02  1.49753E+02
  1.65451E+03  3.87199E+02  1.25756E+03  1.23887E+03  9.52433E+02  1.58054E+03  1.49659E+03  1.16947E+03
 -1.03552E+03  1.87267E+03 -2.05616E+03  3.44552E+03 -2.13468E+03  1.47794E+03 -3.02261E+03  4.57281E+01
 -1.36924E+03 -3.36077E+03  2.29248E+02 -4.25856E+03  1.36204E+03 -1.98599E+03  2.51423E+03 -9.17485E+02
  1.84011E+03  1.55866E+03  5.65765E+02  1.84236E+03  2.13501E+02  1.03674E+03 -6.48192E+02 -5.93093E+02
 -6.76089E+02 -9.47930E+02  1.22537E+03 -8.45893E+02  4.78570E+02 -6.75765E+02  1.21866E+03  6.96200E+02
  7.44912E+02 -1.41900E+01  7.44532E+02 -4.74856E+02  6.69540E+01  1.00550E+03  1.22528E+03 -1.00695E+02
 -1.52032E+02  1.15564E+02  1.60511E+03 -4.31375E+02  6.08757E+02  1.42144E+03 -5.69094E+02  2.33631E+03
 -1.30220E+03  1.58972E+02 -1.23773E+03  2.61429E+02 -2.21320E+03 -9.07562E+02 -2.21734E+01 -2.07229E+02
  1.27130E+02 -9.67305E+02  2.43302E+02 -6.02018E+02  7.61544E+02  6.25483E+02 -4.00914E+02  3.05113E+02
 -7.69925E+02  3.33373E+02 -1.09100E+03 -1.59622E+03 -4.85325E+02 -1.41502E+03 -2.76834E+02 -5.81280E+02
  4.21417E+02 -1.51192E+02  7.50360E+02  2.36626E+02  6.15442E+02  4.66943E+02  5.70842E+02  7.37653E+02
 -6.39322E+02 -5.87624E+02 -9.99485E+02  1.53473E+02 -6.68064E+01 -3.27472E+02  1.79905E+03 -9.12176E+02
  5.98372E+02  3.22886E+02  2.39033E+03  1.31287E+02  1.44876E+03  8.34127E+02  1.91549E+02  8.06460E+02
 -1.64856E+03  4.60374E+02 -1.18757E+03 -2.51121E+02 -2.41216E+02 -1.17662E+03  6.97370E+02 -2.01553E+02
  1.83305E+03 -3.62792E+02  3.52245E+02  7.21030E+02 -1.38742E+02  1.22105E+03  4.85415E+02  9.00012E+02
 -4.62484E+02  9.64465E+02 -6.25740E+01 -3.30957E+02 -3.66987E+01  5.15029E+02 -8.41988E+02  6.87762E+02
  1.49432E+02  1.17626E+03 -1.17864E+03  3.80114E+02 -4.40046E+02 -2.60054E+01 -2.04474E+03 -2.46662E+02
 -1.07680E+03 -9.03037E+02  1.84944E+02 -1.57185E+03  6.40823E+02 -1.83935E+03  1.58070E+03 -8.43550E+02
  1.56574E+03 -2.28179E+02  1.29432E+01  8.48431E+02 -1.13526E+03  9.67102E+02 -1.00203E+02  9.26963E+02
 -4.42790E+02  4.43843E+02  2.67553E+02  2.78466E+01 -3.56534E+02  3.36531E+02 -8.59549E+02  1.39137E+02
 -1.17350E+03 -3.90201E+02 -6.99104E+02 -1.76532E+02  2.93662E+02 -3.08490E+01 -1.81328E+02 -5.97244E+02
  1.01098E+03  1.07023E+01  4.80777E+02  6.28119E+02  6.03187E+02  7.49412E+02 -8.30698E+02  7.49199E+02
 -6.27870E+01  1.79761E+03 -1.31573E+03  5.77089E+02 -1.10794E+03 -5.16501E+02 -6.29217E+02 -6.37356E+02
 -6.74279E+02 -6.70358E+02 -3.99840E+02 -3.51506E+02  4.30222E+02 -1.94262E+02 -1.65259E+02 -5.21687E+01
  1.00191E+02  1.50208E+02  4.33077E+02  5.51301E+02  1.30701E+02 -7.93496E+00  4.54735E+02 -2.19386E+02
  2.85821E+02  1.21579E+02  1.67805E+02  9.17219E+02 -3.75507E+02  2.66075E+02  3.13995E+02  5.17261E+02
 -1.89556E+02  4.35127E+02 -2.38722E+01  5.01558E+02  4.26460E+01  2.91164E+02  3.83997E+02 -7.86043E+02
 -6.84921E+01 -6.06602E+02  3.07331E+02 -1.19700E+02  4.61021E+02 -7.51995E+02  8.49689E+01  4.41850E+02
  6.87079E+02  1.14581E+02 -1.70288E+02  4.60692E+02 -3.13587E+02  1.41002E+02 -3.95510E+01  1.32866E+02
  8.05577E+01 -5.24971E+02 -1.99034E+02 -3.53950E+02 -1.10784E+03 -1.98811E+02 -1.59193E+02 -3.48898E+02
 -9.20571E+02  4.45633E+02 -6.71349E+01 -6.28419E+02  2.00042E+02 -1.10940E+03  4.76379E+02  1.06210E+02
  3.29405E+02 -2.65170E+02  7.71382E+01 -3.00349E+02  1.95252E+02  3.87192E+02  2.77327E+02  3.73636E+02
