 $NMID ID='MM_0lb_SNR400_8hz_g50_62.RAW', FMTDAT='(8E13.5)'
 TRAMP=1., VOLUME=1. $END
  3.09793E+05  3.53314E+02  3.38196E+05  2.51448E+05  8.48092E+04  3.38215E+05 -1.32912E+05  2.52032E+05
 -1.90569E+05  8.38556E+04 -1.12919E+05 -3.25965E+04  2.94065E+02 -4.99530E+04  5.28836E+04 -6.81929E+01
  3.58135E+04  5.26059E+04 -1.67757E+04  7.58412E+04 -6.14240E+04  6.44404E+04 -8.54231E+04  3.27958E+04
 -8.24949E+04 -1.19052E+04 -5.79594E+04 -5.35160E+04 -1.44815E+04 -7.05644E+04  2.75818E+04 -4.74079E+04
  4.15776E+04  3.23368E+03  1.74284E+04  4.92810E+04 -3.46760E+04  4.87588E+04 -6.85523E+04  4.99490E+02
 -5.45378E+04 -5.76007E+04 -7.47224E+03 -7.92932E+04  3.45906E+04 -5.74058E+04  5.06579E+04 -1.87376E+04
  4.60947E+04  1.12662E+04  3.22317E+04  2.66495E+04  1.55755E+04  3.06532E+04 -5.43388E+03  2.75680E+04
 -2.29364E+04  1.19734E+04 -1.78692E+04 -5.92909E+03  7.18422E+03 -7.61474E+03  2.37333E+04  1.44904E+04
  7.09367E+03  3.79499E+04 -3.36734E+04  3.76294E+04 -6.61208E+04  2.27750E+03 -5.92255E+04 -4.42008E+04
 -1.25602E+04 -6.66502E+04  4.16858E+04 -4.75244E+04  6.28849E+04 -2.89832E+03  3.82534E+04  3.46800E+04
 -5.57490E+03  3.96758E+04 -3.24091E+04  1.90369E+04 -3.40194E+04 -2.88902E+03 -2.09420E+04 -1.25044E+04
 -9.53692E+03 -1.55416E+04  9.65019E+01 -2.05449E+04  8.69217E+03 -2.38768E+04  1.56234E+04 -1.26057E+04
  1.06469E+04  6.57557E+03 -1.08513E+04  1.19358E+04 -2.36564E+04 -7.38133E+03 -8.21197E+03 -3.89325E+04
  2.49968E+04 -4.72257E+04  5.30101E+04 -2.03946E+04  4.92474E+04  2.14929E+04  1.67966E+04  4.73127E+04
 -1.71149E+04  3.66681E+04 -2.81310E+04  2.68581E+03 -1.21747E+04 -3.02206E+04  2.12685E+04 -3.76426E+04
  4.51377E+04 -1.13204E+04  4.07293E+04  2.52770E+04  2.21143E+04  5.17227E+04 -8.32303E+03  5.70006E+04
 -3.64193E+04  3.97239E+04 -4.82569E+04  1.13900E+04 -4.92075E+04 -1.84680E+04 -2.67081E+04 -4.32248E+04
  7.35312E+03 -4.25991E+04  3.49523E+04 -1.80424E+04  3.32042E+04  1.16152E+04  5.60618E+03  2.11822E+04
 -1.45174E+04  9.93244E+03 -1.09213E+04 -7.28972E+03  4.94760E+03 -1.20206E+04  1.90918E+04  5.93095E+03
  1.57407E+04  2.27943E+04 -5.32828E+03  2.70256E+04 -2.36103E+04  1.48895E+04 -3.25093E+04 -2.21973E+03
 -2.66918E+04 -1.88964E+04 -1.31847E+04 -2.59167E+04  3.94952E+03 -2.79641E+04  2.17982E+04 -2.41190E+04
  3.29863E+04 -1.48312E+04  3.89691E+04  5.65760E+03  2.74675E+04  2.55064E+04  4.13793E+03  4.20271E+04
 -2.03103E+04  3.44367E+04 -2.99805E+04  1.13181E+04 -2.30971E+04 -1.06470E+04 -5.59642E+03 -1.25988E+04
  9.11759E+02 -1.34377E+03 -8.06177E+03  8.38560E+03 -2.13594E+04  5.88965E+03 -2.07405E+04 -1.07312E+04
 -1.22324E+04 -2.36019E+04  5.83508E+03 -2.86799E+04  1.97782E+04 -2.02436E+04  2.43968E+04 -1.74036E+03
  1.58394E+04  1.62219E+04 -1.27922E+03  2.41935E+04 -1.71362E+04  1.34290E+04 -2.50136E+04 -4.85153E+03
 -1.80822E+04 -2.23490E+04 -2.59289E+03 -2.88394E+04  1.20103E+04 -2.48425E+04  2.39858E+04 -1.23191E+04
  2.38638E+04  2.56582E+02  1.63347E+04  5.43432E+03  9.65284E+03  9.91997E+02  1.22954E+04 -2.14246E+03
  2.33875E+04  3.09256E+03  2.63976E+04  1.97081E+04  1.86712E+04  3.93107E+04 -2.68204E+03  4.68118E+04
 -2.69184E+04  3.82682E+04 -4.37780E+04  1.98012E+04 -4.69818E+04 -3.72315E+03 -3.80889E+04 -2.85903E+04
 -1.43027E+04 -4.01309E+04  1.47817E+04 -3.52429E+04  2.98592E+04 -1.65853E+04  2.52480E+04  8.01500E+03
  8.64163E+03  1.95996E+04 -1.23449E+04  1.61971E+04 -2.07491E+04  2.51289E+03 -1.60379E+04 -1.35229E+04
 -1.56105E+02 -2.09599E+04  1.09185E+04 -1.45085E+04  1.54161E+04 -1.69785E+03  2.56688E+03  8.82446E+03
 -9.25872E+03  4.00258E+03 -1.05535E+04 -7.12807E+03 -1.55583E+03 -1.91279E+04  1.26954E+04 -2.13439E+04
  2.35555E+04 -1.22678E+04  2.81336E+04  2.58165E+03  2.52481E+04  2.01816E+04  1.17667E+04  3.19305E+04
 -6.38820E+03  3.35495E+04 -2.23173E+04  2.01947E+04 -2.47764E+04  3.38601E+03 -1.65044E+04 -6.83451E+03
 -5.95627E+03 -7.44688E+03 -1.26043E+02  4.22323E+02 -2.99230E+03  4.48728E+03 -8.90281E+03  6.13452E+03
 -1.50614E+04 -3.20833E+02 -1.61288E+04 -1.19546E+04 -6.65934E+03 -1.95482E+04  6.63612E+03 -1.66184E+04
  1.35089E+04 -7.71097E+03  1.00965E+04  4.58608E+03 -3.89456E+02  7.36365E+03 -8.19264E+03 -3.25370E+02
 -8.13524E+03 -1.08759E+04 -1.43641E+03 -1.53839E+04  1.04950E+04 -1.73071E+04  2.08842E+04 -9.89461E+03
  2.51903E+04  2.24887E+03  1.89962E+04  1.54044E+04  4.26255E+03  2.04846E+04 -9.82729E+03  1.69910E+04
 -1.29873E+04  5.05732E+03 -6.68524E+03 -4.16572E+03  2.82824E+03 -5.10532E+03  9.67982E+03 -3.14419E+02
  9.09917E+03  8.15300E+03  1.15991E+03  1.28125E+04 -9.64088E+03  1.26692E+04 -1.64293E+04  2.31657E+03
 -1.04148E+04 -8.54269E+03  3.11956E+02 -1.50338E+04  8.60133E+03 -7.42874E+03  9.99614E+03  3.80627E+03
  2.81889E+03  1.13437E+04 -8.71493E+03  1.24860E+04 -1.49604E+04  5.36658E+03 -1.57786E+04 -5.87664E+03
 -9.02722E+03 -1.82121E+04  5.37653E+03 -2.05828E+04  1.68770E+04 -1.23054E+04  1.82312E+04  2.90478E+03
  1.03342E+04  1.45053E+04 -2.71624E+03  1.74877E+04 -1.30656E+04  9.82336E+03 -1.36201E+04 -1.37529E+03
 -1.08695E+04 -1.13997E+04 -1.60242E+03 -1.31006E+04  6.69088E+03 -1.05510E+04  9.22586E+03 -3.48437E+03
  5.17295E+03  1.55497E+03 -1.08386E+03  2.25357E+03 -8.50789E+02 -3.64340E+03  2.94463E+03 -7.63971E+03
  1.28070E+04 -5.28652E+03  1.72309E+04  2.63149E+03  1.70042E+04  1.25565E+04  1.12284E+04  2.37356E+04
 -5.75643E+03  2.63172E+04 -2.19577E+04  1.90692E+04 -2.89389E+04  3.64588E+03 -2.36482E+04 -1.00390E+04
 -1.09220E+04 -1.83885E+04  5.55934E+02 -1.62480E+04  5.84171E+03 -9.33097E+03  5.69254E+03 -6.50709E+03
  3.97472E+03 -3.53411E+03  3.63304E+03 -3.66054E+03  6.38461E+03 -3.80981E+03  9.03295E+03 -1.46959E+03
  1.21040E+04  2.08972E+03  6.22736E+03  1.06336E+04 -2.46067E+03  1.21930E+04 -1.25125E+04  9.44677E+03
 -1.61127E+04 -1.86196E+03 -1.06112E+04 -1.15142E+04 -1.99719E+03 -1.74224E+04  9.56664E+03 -1.84142E+04
  1.79704E+04 -9.68736E+03  2.16994E+04  2.78112E+03  1.48438E+04  1.60497E+04  2.22710E+03  1.95395E+04
 -9.78034E+03  1.53232E+04 -1.13087E+04  5.55122E+03 -7.23856E+03 -1.00937E+03 -3.91804E+03 -3.15673E+03
 -1.90871E+03 -8.12184E+01 -1.87067E+03  3.58064E+03 -6.62886E+03  3.36321E+03 -1.18458E+04 -1.98359E+03
 -8.22130E+03 -1.13205E+04 -4.21299E+02 -1.64550E+04  1.05285E+04 -1.63322E+04  1.62342E+04 -6.09238E+03
  1.68797E+04  8.33058E+03  7.87300E+03  1.47285E+04 -3.76359E+03  1.67593E+04 -1.20717E+04  1.03707E+04
 -1.56474E+04  5.18096E+02 -1.29451E+04 -9.67130E+03 -1.80764E+03 -1.33613E+04  7.29727E+03 -1.15170E+04
  1.06314E+04 -3.44021E+03  7.67346E+03  3.17962E+03  2.59295E+03  5.51259E+03  1.96864E+03  1.94115E+03
  2.95658E+03  1.43512E+03  4.30058E+03  1.79474E+03  5.52377E+03  5.90555E+03  4.58766E+03  9.30622E+03
 -3.84646E+03  1.41239E+04 -1.17875E+04  1.34233E+04 -1.79078E+04  3.98782E+03 -1.81276E+04 -6.92465E+03
 -8.59377E+03 -1.76687E+04  2.26812E+03 -1.94716E+04  9.57238E+03 -1.26909E+04  1.35476E+04 -2.88180E+03
  1.05387E+04  5.13679E+03  1.87395E+03  9.45912E+03 -4.98499E+03  6.32501E+03 -6.89350E+03 -9.62318E+02
 -4.04365E+03 -6.80124E+03  3.62634E+03 -7.79761E+03  8.14809E+03 -4.70593E+03  6.63147E+03  1.46890E+03
  3.83911E+03  4.48272E+03  1.43419E+03  3.42955E+03 -1.94605E+02  2.89299E+03  1.74469E+03 -9.26790E+02
  2.99275E+03 -1.03408E+03  7.49386E+03  3.14294E+03  4.77356E+03  8.61241E+03 -6.73823E+02  1.17461E+04
 -8.10554E+03  8.69366E+03 -1.17334E+04  1.95930E+03 -9.56936E+03 -3.85010E+03 -4.03894E+03 -7.07521E+03
  4.52554E+02 -6.50417E+03  5.54369E+03 -2.78100E+03  4.24510E+03  3.18952E+03 -1.67883E+03  6.33032E+03
 -7.24819E+03  3.93367E+03 -8.31071E+03 -3.91497E+03 -4.70421E+03 -8.68087E+03  1.87330E+03 -8.95291E+03
  5.37841E+03 -6.06761E+03  7.24018E+03 -5.72580E+02  5.25520E+03  3.27556E+03  3.70811E+02  5.14659E+03
 -4.02227E+03  1.43178E+03 -3.60139E+03 -3.68893E+03  1.00713E+03 -7.93062E+03  9.00040E+03 -5.73777E+03
  1.21866E+04  2.42714E+02  1.08382E+04  7.85936E+03  2.44259E+03  1.16497E+04 -3.80260E+03  1.07342E+04
 -1.05801E+04  5.57154E+03 -9.20699E+03 -1.15550E+03 -5.08729E+03 -8.54454E+03  2.01990E+03 -8.06569E+03
  7.15636E+03 -3.45199E+03  6.58360E+03  3.17427E+03  2.09010E+03  6.13079E+03 -1.17421E+03  5.65820E+03
 -2.85557E+03  3.58117E+03 -2.78326E+03  1.17004E+03 -1.67950E+03  1.17903E+03 -1.92892E+03  2.23952E+03
 -2.80525E+03  4.77609E+03 -6.52643E+03  4.16651E+03 -1.19198E+04 -2.56778E+02 -1.32253E+04 -7.64186E+03
 -7.14275E+03 -1.54452E+04  3.25740E+03 -1.78958E+04  1.08781E+04 -1.37133E+04  1.76004E+04 -5.29921E+03
  1.73040E+04  3.50716E+03  9.24029E+03  1.08521E+04  1.12298E+03  1.24880E+04 -4.39556E+03  9.63192E+03
 -7.75922E+03  2.33896E+03 -5.39726E+03 -1.36245E+03 -7.94233E+02 -1.52660E+03 -1.23393E+03  5.60299E+02
 -2.03617E+03  1.71213E+02 -2.46324E+03 -1.06804E+03 -4.44412E+02 -2.13386E+03  1.55897E+02 -5.58837E+03
  5.58321E+03 -3.85578E+03  8.16649E+03  6.73058E+02  8.70663E+03  5.94463E+03  2.43475E+03  1.35017E+04
 -5.89510E+03  1.42456E+04 -1.33155E+04  8.79783E+03 -1.44897E+04 -1.93374E+03 -1.12005E+04 -9.42927E+03
 -4.68197E+03 -1.29976E+04  3.21655E+03 -1.23571E+04  8.20945E+03 -5.76070E+03  7.89609E+03  6.87526E+02
  3.48641E+03  4.63266E+03 -5.28674E+02  3.57614E+03 -2.18629E+03 -3.86908E+02 -5.48052E+02 -2.94480E+03
  4.66866E+03 -1.30160E+03  5.30864E+03  1.38480E+03  4.17490E+03  3.99781E+03 -1.59657E+02  7.32014E+03
 -5.43343E+03  6.11404E+03 -8.71341E+03  5.62047E+02 -7.72336E+03 -6.36141E+03 -1.12253E+03 -1.12482E+04
  6.96055E+03 -8.96054E+03  8.95685E+03 -1.88409E+03  1.00794E+04  2.93251E+03  5.71995E+03  8.04763E+03
  4.49971E+02  8.59222E+03 -3.54432E+03  6.39166E+03 -4.89015E+03  3.63101E+03 -4.68739E+03  5.03883E+02
 -2.63618E+03  1.13082E+03 -2.17459E+03  1.24112E+03 -4.78011E+03  2.09099E+03 -7.18409E+03 -7.64462E+02
 -6.34769E+03 -4.48867E+03 -1.87383E+03 -8.25896E+03  4.12946E+03 -9.56817E+03  8.71378E+03 -4.17581E+03
  8.84360E+03  5.72693E+02  3.95901E+03  6.97924E+03 -1.10014E+03  9.73953E+03 -6.62025E+03  5.94078E+03
