 $NMID ID='MM_0lb_SNR400_15hz_g40_9.RAW', FMTDAT='(8E13.5)'
 TRAMP=1., VOLUME=1. $END
  3.09612E+05  3.65541E+02  3.37548E+05  2.50482E+05  8.40430E+04  3.37923E+05 -1.32190E+05  2.50198E+05
 -1.89949E+05  8.32150E+04 -1.11113E+05 -3.34448E+04  1.51142E+03 -5.05279E+04  5.44090E+04  2.77513E+02
  3.54384E+04  5.27125E+04 -1.67962E+04  7.57012E+04 -6.03370E+04  6.34854E+04 -8.34819E+04  3.22104E+04
 -8.07206E+04 -1.07010E+04 -5.64037E+04 -5.13462E+04 -1.45077E+04 -6.92955E+04  2.71045E+04 -4.54709E+04
  3.96752E+04  3.74031E+03  1.60034E+04  4.75058E+04 -3.39417E+04  4.70912E+04 -6.63794E+04 -8.82629E+01
 -5.27272E+04 -5.60444E+04 -6.20490E+03 -7.63289E+04  3.35113E+04 -5.35126E+04  4.73024E+04 -1.66345E+04
  4.27960E+04  1.14832E+04  3.12944E+04  2.45653E+04  1.52836E+04  2.87242E+04 -5.03829E+03  2.75849E+04
 -2.13390E+04  1.23713E+04 -1.89456E+04 -4.65097E+03  5.21219E+03 -7.42066E+03  2.15195E+04  1.17867E+04
  6.93285E+03  3.42949E+04 -3.16647E+04  3.46782E+04 -6.23191E+04  2.11633E+03 -5.59648E+04 -4.20551E+04
 -1.28157E+04 -6.17763E+04  3.93160E+04 -4.45949E+04  5.63970E+04 -2.44441E+03  3.27531E+04  3.10478E+04
 -6.18212E+03  3.47159E+04 -2.93958E+04  1.51809E+04 -2.89676E+04 -4.94700E+03 -1.59996E+04 -9.89681E+03
 -7.60560E+03 -1.26711E+04 -6.00573E+02 -1.72735E+04  6.76148E+03 -2.25181E+04  1.55317E+04 -1.37792E+04
  1.12587E+04  5.06734E+03 -7.03377E+03  1.25735E+04 -2.06338E+04 -3.24770E+03 -8.28944E+03 -3.15323E+04
  2.17018E+04 -4.21328E+04  4.70680E+04 -1.88553E+04  4.35764E+04  1.90071E+04  1.51567E+04  4.27476E+04
 -1.57692E+04  3.22726E+04 -2.48187E+04  1.71211E+03 -9.33507E+03 -2.67692E+04  2.05760E+04 -3.25936E+04
  3.94758E+04 -8.10161E+03  3.34183E+04  2.32450E+04  1.70203E+04  4.43729E+04 -8.17221E+03  4.75149E+04
 -3.02751E+04  3.12749E+04 -4.00059E+04  9.44791E+03 -4.07861E+04 -1.58158E+04 -2.21526E+04 -3.63857E+04
  7.32008E+03 -3.60229E+04  3.05111E+04 -1.41958E+04  2.81204E+04  1.08123E+04  3.29643E+03  1.81218E+04
 -1.36123E+04  7.13506E+03 -9.58696E+03 -7.71915E+03  5.97245E+03 -1.11474E+04  1.78814E+04  5.86970E+03
  1.26253E+04  2.20232E+04 -6.41094E+03  2.45081E+04 -2.17328E+04  1.07289E+04 -2.67205E+04 -5.24689E+03
 -1.89002E+04 -1.70656E+04 -6.72767E+03 -1.87388E+04  4.12947E+03 -1.66133E+04  1.40852E+04 -1.62878E+04
  2.38458E+04 -1.21068E+04  3.06307E+04  1.93080E+03  2.31755E+04  1.81930E+04  4.06205E+03  3.46178E+04
 -1.74025E+04  2.88162E+04 -2.70744E+04  1.03431E+04 -1.99915E+04 -1.01638E+04 -4.32267E+03 -1.33927E+04
  2.32432E+03 -3.33351E+03 -3.82786E+03  6.09495E+03 -1.49398E+04  5.63095E+03 -1.47991E+04 -5.72355E+03
 -9.67530E+03 -1.73240E+04  4.90297E+03 -2.10930E+04  1.36439E+04 -1.55621E+04  1.68584E+04 -1.71373E+03
  1.04216E+04  1.22167E+04 -6.55266E+02  1.75202E+04 -1.20588E+04  9.78768E+03 -1.80140E+04 -3.85537E+03
 -1.27308E+04 -1.57390E+04 -2.09816E+03 -2.11507E+04  9.48595E+03 -1.71245E+04  1.78089E+04 -8.18354E+03
  1.61881E+04  7.91349E+02  1.20191E+04  4.13963E+03  5.86125E+03  6.36387E+02  8.62732E+03 -1.78980E+03
  1.57316E+04  2.62341E+03  1.72898E+04  1.41190E+04  1.14761E+04  2.77962E+04 -2.80567E+03  3.11185E+04
 -1.82639E+04  2.46804E+04 -2.88420E+04  1.15995E+04 -2.96434E+04 -1.98645E+03 -2.49461E+04 -1.73673E+04
 -1.13850E+04 -2.45365E+04  8.06295E+03 -2.17653E+04  1.91974E+04 -1.20435E+04  1.78449E+04  4.13846E+03
  7.26109E+03  1.32907E+04 -8.00906E+03  1.20495E+04 -1.52500E+04  1.86772E+03 -1.20641E+04 -9.55382E+03
  1.13543E+02 -1.45711E+04  6.89893E+03 -1.05839E+04  9.64405E+03 -9.44502E+02  1.75890E+03  6.14290E+03
 -5.82212E+03  2.62941E+03 -4.91603E+03 -5.19057E+03  2.70160E+02 -1.20567E+04  9.11512E+03 -1.27953E+04
  1.43154E+04 -6.28575E+03  1.54513E+04  2.97162E+03  1.28485E+04  1.17927E+04  6.90166E+03  1.71485E+04
 -1.95902E+03  1.98397E+04 -1.23148E+04  1.26108E+04 -1.42580E+04  3.24644E+03 -1.02115E+04 -2.75192E+03
 -5.16509E+03 -4.57094E+03 -8.06712E+02  1.13178E+03 -1.96116E+03  3.29103E+03 -4.50045E+03  4.09098E+03
 -9.37728E+03 -4.98674E+02 -1.00154E+04 -8.55072E+03 -3.80957E+03 -1.32105E+04  3.85557E+03 -9.70715E+03
  8.25052E+03 -4.57874E+03  6.05564E+03  2.52594E+03  3.53401E+02  4.09826E+03 -4.50493E+03  9.22431E+00
 -3.92089E+03 -6.42247E+03 -8.62284E+02 -9.17834E+03  5.19984E+03 -1.01820E+04  1.23367E+04 -5.14919E+03
  1.44480E+04  1.02661E+03  1.13221E+04  7.62703E+03  2.37945E+03  1.11585E+04 -6.07079E+03  1.02363E+04
 -8.23567E+03  2.57213E+03 -3.94174E+03 -1.69612E+03  1.76731E+03 -2.88681E+03  5.56156E+03 -1.07168E+03
  4.52444E+03  4.74070E+03  1.13081E+03  7.76489E+03 -5.81192E+03  7.74663E+03 -9.49202E+03  2.21868E+03
 -5.42973E+03 -4.74678E+03  6.58397E+02 -8.45626E+03  4.37122E+03 -4.51828E+03  5.54460E+03  1.59322E+03
  1.50533E+03  4.45537E+03 -5.06714E+03  6.16774E+03 -6.96991E+03  2.87370E+03 -6.56622E+03 -2.21020E+03
 -4.44074E+03 -8.37031E+03  1.94584E+03 -9.49197E+03  8.16370E+03 -6.33902E+03  9.20476E+03  1.52380E+03
  5.70429E+03  6.85667E+03  1.87115E+02  9.26043E+03 -6.72137E+03  5.38727E+03 -6.48475E+03 -5.39414E+02
 -7.16968E+03 -6.23525E+03 -1.37066E+03 -6.80911E+03  3.47919E+03 -5.58064E+03  3.90434E+03 -3.27276E+03
  3.30531E+03  5.69018E+02  2.26223E+01  1.26025E+03  2.34153E+02 -1.06175E+03  1.49868E+03 -3.22997E+03
  4.38124E+03 -1.73644E+03  7.63427E+03  7.23748E+02  8.36557E+03  5.07857E+03  6.00518E+03  1.03999E+04
 -2.46484E+03  1.23446E+04 -1.02066E+04  9.13533E+03 -1.33477E+04  1.35547E+03 -1.14890E+04 -4.79134E+03
 -5.54742E+03 -8.72385E+03 -2.25054E+02 -7.36907E+03  3.25581E+03 -4.01872E+03  2.22457E+03 -2.48467E+03
  1.49137E+03 -2.42148E+03  2.59653E+03 -2.00313E+03  4.54247E+03 -1.24432E+03  4.94498E+03  4.24990E+02
  6.14348E+03  1.28788E+03  2.39419E+03  4.65169E+03 -1.99173E+03  4.15244E+03 -6.25755E+03  3.79292E+03
 -7.15874E+03 -7.65123E+02 -3.05152E+03 -5.09721E+03  2.05892E+01 -7.41395E+03  4.77949E+03 -7.66013E+03
  7.20274E+03 -4.65603E+03  9.46240E+03  7.46573E+02  6.75928E+03  6.84094E+03  1.68186E+03  8.16921E+03
 -3.50949E+03  7.90223E+03 -5.25856E+03  2.77270E+03 -2.70478E+03 -9.18760E+02 -1.20111E+03 -1.06471E+03
 -1.18508E+03  1.06716E+02 -8.42505E+02  2.96741E+03 -3.27512E+03  1.73345E+03 -5.01052E+03 -6.19823E+02
 -3.14214E+03 -5.71365E+03  8.22820E+02 -7.66374E+03  4.26395E+03 -5.92413E+03  6.86222E+03 -1.82923E+03
  6.49814E+03  3.86739E+03  2.53755E+03  5.01457E+03 -1.54269E+03  6.93047E+03 -4.23737E+03  4.44131E+03
 -6.36893E+03  9.17053E+02 -4.60656E+03 -3.60559E+03 -5.77917E+02 -5.34924E+03  2.66736E+03 -4.07928E+03
  4.60226E+03 -1.68948E+03  2.85922E+03  6.66225E+02  7.52514E+02  2.27731E+03  1.11268E+03  7.14194E+02
  1.12876E+03  7.42464E+02  1.76101E+03  1.79111E+03  2.01468E+03  2.96124E+03  1.63912E+03  2.65041E+03
 -1.27671E+03  5.09688E+03 -4.65314E+03  5.48346E+03 -5.18151E+03  1.67475E+03 -6.47944E+03 -2.34344E+03
 -3.06788E+03 -6.59993E+03  8.68212E+02 -7.12518E+03  3.88208E+03 -5.11111E+03  5.30359E+03 -1.99017E+03
  3.70999E+03  2.15174E+03  1.26582E+03  3.83692E+03 -1.18126E+03  2.14512E+03 -2.06519E+03  2.19254E+02
 -5.16341E+02 -2.49900E+03  1.65701E+03 -2.76632E+03  2.82330E+03 -1.12299E+03  2.31081E+03  4.16472E+02
  1.37829E+03  5.97104E+02  5.25188E+02  2.83209E+02 -5.64947E+02  1.33024E+03  1.45848E+03 -4.36381E+02
  1.02111E+03 -3.26560E+02  2.67347E+03  1.16417E+03  7.66415E+02  3.54519E+03 -7.37662E+02  4.12032E+03
 -3.09084E+03  2.65513E+03 -3.48895E+03  5.72707E+02 -3.54821E+03 -9.17733E+02 -7.25288E+02 -1.93510E+03
  6.78479E+02 -2.69437E+03  1.64861E+03 -6.97706E+02  3.72674E+02  1.57429E+03 -7.18350E+02  1.93124E+03
 -2.74307E+03  1.22315E+03 -2.43740E+03 -1.73197E+03 -1.10775E+03 -3.24286E+03  2.41589E+02 -3.37462E+03
  1.46867E+03 -1.61192E+03  2.00415E+03 -2.46028E+02  2.32083E+03  9.46261E+02 -9.40390E+01  1.73165E+03
 -1.09103E+03 -2.61467E+00 -2.03149E+03 -9.98373E+02  1.25333E+03 -1.82727E+03  3.08683E+03 -1.84749E+03
  2.66309E+03  6.86281E+02  3.31043E+03  1.87810E+03  1.55886E+03  3.71322E+03 -1.14260E+03  3.65082E+03
 -3.22681E+03  9.27599E+02 -2.89280E+03 -4.51471E+02 -1.17297E+03 -2.36392E+03  5.43820E+02 -1.96336E+03
  2.40115E+03 -1.65704E+03  1.88731E+03  1.04242E+03  5.00574E+02  1.79229E+03  2.95877E+02  2.56033E+03
 -5.86292E+02  1.41356E+03 -7.92814E+02  5.92869E+02 -4.61469E+01  8.33034E+02 -3.83262E+02  5.32430E+02
 -1.02081E+03  1.14125E+03 -3.10482E+03  8.50891E+02 -3.44688E+03  2.65055E+02 -4.07186E+03 -1.43750E+03
 -2.05347E+03 -4.27231E+03  8.04248E+02 -5.21720E+03  2.42097E+03 -3.99197E+03  4.98153E+03 -1.56558E+03
  4.09616E+03 -4.10260E+02  2.44294E+03  2.82201E+03 -7.66542E+02  2.70349E+03 -1.13236E+03  3.02547E+03
 -2.09954E+03  1.23509E+03 -1.06728E+03 -6.47512E+02 -8.18090E+02 -3.42716E+02 -8.94606E+02 -1.89033E+02
 -1.67798E+03 -2.50554E+02 -1.91676E+03 -3.08207E+02 -3.52003E+02 -6.19228E+02 -4.11946E+02 -1.63752E+03
  2.20708E+03 -1.05009E+03  1.33093E+03  1.24456E+00  2.38089E+03  1.93753E+03 -6.45117E+02  2.90036E+03
 -2.17181E+03  3.99319E+03 -3.33899E+03  1.81270E+03 -3.49625E+03 -1.85575E+02 -2.65028E+03 -2.92987E+03
 -1.03366E+03 -3.01170E+03  2.63210E+02 -2.48600E+03  1.66006E+03 -1.40397E+03  1.93821E+03 -5.73563E+01
  1.58163E+03  1.53776E+02  2.97450E+02  8.98244E+02 -4.39023E+02 -4.27148E+02 -1.86148E+02 -6.19444E+02
  1.28344E+03 -5.20689E+02  1.01367E+03  5.97525E+02  1.29110E+03  7.02872E+02  5.13430E+02  1.39517E+03
 -1.60654E+03  1.12540E+03 -1.77146E+03  1.00406E+03 -2.42760E+03 -1.51229E+03  7.41026E+01 -2.18364E+03
  1.32691E+03 -2.00640E+03  1.90354E+03 -1.97722E+02  2.84748E+03 -4.56385E+02  1.22374E+03  1.29131E+03
  8.21403E+02  1.35774E+03 -2.39630E+02  1.66430E+03 -1.31614E+03  1.61680E+03 -9.94066E+02  5.27646E+02
  1.34321E+02 -3.81267E+02 -2.77595E+02  1.57181E+02 -7.44916E+02  8.97084E+02 -1.52554E+03 -2.35897E+02
 -1.62235E+03 -4.65802E+02  1.47661E+02 -2.34103E+03  7.64644E+02 -2.18081E+03  1.49416E+03 -9.80666E+02
  1.62793E+03 -3.04984E+02  6.97352E+01  1.28499E+03 -7.07460E+02  1.35492E+03 -1.44681E+03  1.11124E+03
