 $NMID ID='MM_0lb_SNR400_8hz_g55_99.RAW', FMTDAT='(8E13.5)'
 TRAMP=1., VOLUME=1. $END
  3.10200E+05  8.30338E+02  3.37168E+05  2.51441E+05  8.44214E+04  3.38357E+05 -1.32153E+05  2.52131E+05
 -1.90978E+05  8.37137E+04 -1.12383E+05 -3.22414E+04 -2.43032E+02 -5.07970E+04  5.39119E+04  2.16132E+02
  3.52700E+04  5.25993E+04 -1.65004E+04  7.60628E+04 -6.10871E+04  6.48916E+04 -8.59593E+04  3.29043E+04
 -8.35853E+04 -1.24613E+04 -5.89447E+04 -5.20495E+04 -1.55348E+04 -6.99663E+04  2.74893E+04 -4.60406E+04
  4.04443E+04  3.88518E+03  1.64423E+04  4.92931E+04 -3.50124E+04  4.79740E+04 -6.85326E+04  4.41242E+01
 -5.60954E+04 -5.80921E+04 -6.65443E+03 -7.92554E+04  3.52894E+04 -5.74186E+04  5.01910E+04 -1.96152E+04
  4.53644E+04  1.16042E+04  3.27599E+04  2.65047E+04  1.60423E+04  3.07824E+04 -5.26259E+03  2.78869E+04
 -2.21474E+04  1.20852E+04 -1.76322E+04 -5.90172E+03  7.56103E+03 -8.16123E+03  2.39861E+04  1.44703E+04
  7.54942E+03  3.82747E+04 -3.34909E+04  3.73012E+04 -6.60359E+04  3.06356E+03 -5.97826E+04 -4.47334E+04
 -1.28965E+04 -6.65389E+04  4.24445E+04 -4.81394E+04  6.27575E+04 -2.66851E+03  3.78792E+04  3.56811E+04
 -5.38149E+03  4.04266E+04 -3.28095E+04  1.94464E+04 -3.44104E+04 -3.10855E+03 -2.00897E+04 -1.23135E+04
 -9.78249E+03 -1.54537E+04 -7.51784E+02 -1.98838E+04  8.07864E+03 -2.31527E+04  1.64009E+04 -1.35678E+04
  1.00784E+04  6.71308E+03 -1.09508E+04  1.27896E+04 -2.46605E+04 -7.53243E+03 -7.60769E+03 -3.80574E+04
  2.54217E+04 -4.79606E+04  5.25559E+04 -2.16015E+04  5.00136E+04  2.12518E+04  1.83897E+04  4.81963E+04
 -1.71666E+04  3.73154E+04 -2.77051E+04  3.34923E+03 -1.28662E+04 -3.01192E+04  2.15592E+04 -3.84738E+04
  4.62506E+04 -1.16478E+04  4.16925E+04  2.51557E+04  2.20370E+04  5.22890E+04 -8.45545E+03  5.83300E+04
 -3.63158E+04  3.97435E+04 -4.81828E+04  1.07317E+04 -4.91925E+04 -1.95947E+04 -2.70662E+04 -4.34155E+04
  7.13443E+03 -4.34913E+04  3.54864E+04 -1.77019E+04  3.40577E+04  1.15153E+04  4.89637E+03  2.14408E+04
 -1.33315E+04  9.79380E+03 -1.12521E+04 -7.03616E+03  5.30209E+03 -1.15876E+04  2.00460E+04  4.73529E+03
  1.50320E+04  2.30620E+04 -5.43511E+03  2.86319E+04 -2.31375E+04  1.46728E+04 -3.15485E+04 -2.27680E+03
 -2.71026E+04 -1.90675E+04 -1.32917E+04 -2.62370E+04  4.32992E+03 -2.70125E+04  2.04135E+04 -2.35868E+04
  3.45583E+04 -1.50553E+04  4.03558E+04  6.38030E+03  2.80695E+04  2.56783E+04  4.94824E+03  4.28606E+04
 -2.03738E+04  3.54838E+04 -3.11692E+04  1.15294E+04 -2.25328E+04 -9.76806E+03 -4.72862E+03 -1.22338E+04
 -8.05234E+01 -9.10978E+02 -8.71258E+03  9.41866E+03 -2.13837E+04  4.46380E+03 -2.18044E+04 -1.02075E+04
 -1.25433E+04 -2.45539E+04  6.24803E+03 -2.89892E+04  1.97238E+04 -2.14970E+04  2.44165E+04 -1.50271E+03
  1.51955E+04  1.72528E+04 -1.61706E+03  2.51244E+04 -1.80274E+04  1.43173E+04 -2.60600E+04 -5.34455E+03
 -1.76101E+04 -2.13754E+04 -1.53906E+03 -2.93501E+04  1.33045E+04 -2.42484E+04  2.44025E+04 -1.23561E+04
  2.37585E+04 -1.94603E+02  1.69188E+04  4.84912E+03  9.68570E+03  2.00200E+03  1.30971E+04 -1.67535E+03
  2.33377E+04  2.05112E+03  2.80208E+04  1.80423E+04  1.85511E+04  3.99733E+04 -3.10452E+03  4.74486E+04
 -2.73119E+04  4.09273E+04 -4.49568E+04  2.06434E+04 -4.82240E+04 -3.69446E+03 -3.88696E+04 -2.75413E+04
 -1.58704E+04 -4.12621E+04  1.51280E+04 -3.49452E+04  3.09401E+04 -1.70118E+04  2.59316E+04  8.98799E+03
  8.14052E+03  2.00772E+04 -1.24503E+04  1.67973E+04 -2.11456E+04  2.16397E+03 -1.58991E+04 -1.29836E+04
 -1.90121E+03 -2.10548E+04  1.13805E+04 -1.57698E+04  1.47111E+04 -1.62245E+03  3.41914E+03  9.43885E+03
 -9.26865E+03  4.60881E+03 -1.04137E+04 -7.58189E+03 -2.35227E+03 -1.92274E+04  1.24770E+04 -2.05856E+04
  2.55622E+04 -1.22663E+04  2.85787E+04  2.53768E+03  2.64719E+04  2.03425E+04  1.19314E+04  3.23480E+04
 -5.78012E+03  3.42880E+04 -2.23617E+04  2.13783E+04 -2.43421E+04  3.50387E+03 -1.75925E+04 -5.97058E+03
 -7.04000E+03 -8.13837E+03 -1.04694E+03  4.12505E+02 -3.40149E+03  3.72895E+03 -7.47299E+03  4.99022E+03
 -1.58078E+04 -9.41908E+02 -1.59292E+04 -1.29813E+04 -7.43310E+03 -2.02687E+04  7.05108E+03 -1.77946E+04
  1.42613E+04 -7.32706E+03  9.53187E+03  5.09977E+03 -2.07790E+02  6.96677E+03 -9.25315E+03 -3.27462E+02
 -7.97660E+03 -1.03969E+04 -1.49112E+03 -1.69055E+04  9.48075E+03 -1.79692E+04  2.23869E+04 -9.52226E+03
  2.49230E+04  2.61381E+03  1.84489E+04  1.59716E+04  2.88792E+03  2.09143E+04 -1.06173E+04  1.75135E+04
 -1.46745E+04  4.88310E+03 -7.46249E+03 -4.81299E+03  2.90663E+03 -5.86148E+03  8.46527E+03 -1.10266E+03
  8.30065E+03  8.08364E+03  6.99944E+02  1.33875E+04 -9.46830E+03  1.26108E+04 -1.70482E+04  2.39077E+03
 -1.27773E+04 -9.69721E+03 -1.13285E+01 -1.51522E+04  9.80612E+03 -7.36918E+03  1.07394E+04  3.91609E+03
  3.00538E+03  1.19888E+04 -9.12054E+03  1.28658E+04 -1.61532E+04  5.64767E+03 -1.62049E+04 -5.77939E+03
 -9.17518E+03 -1.73765E+04  4.46035E+03 -1.92403E+04  1.80204E+04 -1.18383E+04  1.87409E+04  2.74062E+03
  1.08511E+04  1.54400E+04 -2.48177E+03  1.77443E+04 -1.38313E+04  1.02899E+04 -1.44787E+04 -7.18519E+02
 -1.23064E+04 -1.21314E+04 -1.93973E+03 -1.38330E+04  7.20911E+03 -1.05189E+04  8.39928E+03 -3.92735E+03
  5.69605E+03  2.72412E+03 -2.13875E+03  2.67555E+03 -1.89622E+03 -4.35006E+03  3.43615E+03 -9.24599E+03
  1.42515E+04 -5.91311E+03  1.82945E+04  2.96252E+03  1.69038E+04  1.20384E+04  1.07231E+04  2.35782E+04
 -6.26764E+03  2.78247E+04 -2.24149E+04  2.03472E+04 -2.92330E+04  3.44141E+03 -2.33244E+04 -1.00683E+04
 -1.04997E+04 -1.89571E+04 -9.03387E+01 -1.61711E+04  6.19675E+03 -9.05008E+03  5.83303E+03 -6.74420E+03
  4.90160E+03 -3.21137E+03  3.93131E+03 -5.32895E+03  5.34320E+03 -3.71754E+03  9.38905E+03 -1.95648E+03
  1.31365E+04  2.22203E+03  6.47031E+03  1.12034E+04 -3.85813E+03  1.24091E+04 -1.27611E+04  1.04096E+04
 -1.65040E+04 -1.70118E+03 -1.11133E+04 -1.22541E+04 -1.15790E+03 -1.84919E+04  1.01991E+04 -1.80831E+04
  1.90684E+04 -9.97519E+03  2.25901E+04  3.07813E+03  1.54513E+04  1.57702E+04  3.68321E+03  2.04490E+04
 -8.53704E+03  1.66060E+04 -1.22152E+04  5.79727E+03 -8.61444E+03 -1.76275E+03 -4.01074E+03 -2.92270E+03
 -1.33528E+03 -3.24945E+02 -3.61453E+03  3.32716E+03 -6.84232E+03  1.70165E+03 -1.08744E+04 -1.67162E+03
 -8.50484E+03 -1.12560E+04  3.54658E+02 -1.67949E+04  1.02969E+04 -1.64945E+04  1.70633E+04 -5.27251E+03
  1.70065E+04  8.61578E+03  8.01970E+03  1.55723E+04 -3.60744E+03  1.70089E+04 -1.20366E+04  1.11853E+04
 -1.69645E+04 -5.12742E+02 -1.24585E+04 -1.03541E+04 -9.94876E+02 -1.44600E+04  8.06023E+03 -1.09506E+04
  1.00159E+04 -3.87943E+03  7.86940E+03  3.32115E+03  2.91018E+03  6.27139E+03  1.56386E+03  2.89446E+03
  2.94456E+03  2.39239E+03  3.83609E+03  1.58872E+03  5.08647E+03  6.03124E+03  3.90212E+03  8.74359E+03
 -3.56641E+03  1.35078E+04 -1.18547E+04  1.47151E+04 -1.86417E+04  3.52112E+03 -1.88913E+04 -7.70547E+03
 -8.40202E+03 -1.78637E+04  3.06023E+03 -1.95887E+04  1.05205E+04 -1.22376E+04  1.53883E+04 -3.53028E+03
  1.11279E+04  6.24235E+03  2.78416E+03  1.04760E+04 -5.20163E+03  6.55332E+03 -6.99450E+03 -1.36829E+03
 -3.53758E+03 -8.17402E+03  3.51674E+03 -7.84073E+03  7.28031E+03 -4.30685E+03  7.15745E+03  1.06201E+03
  4.08300E+03  3.19453E+03  1.72612E+03  3.97345E+03 -6.05248E+02  2.88496E+03  1.59331E+03 -1.04443E+03
  2.72504E+03 -8.68852E+02  6.98105E+03  2.71674E+03  4.58655E+03  9.19086E+03 -1.02764E+03  1.24379E+04
 -9.03765E+03  8.34268E+03 -1.12370E+04  2.93417E+03 -9.73972E+03 -4.41102E+03 -3.33319E+03 -6.41707E+03
  1.51776E+03 -7.62102E+03  5.35439E+03 -3.46836E+03  3.91607E+03  2.64487E+03 -1.17008E+03  5.49625E+03
 -7.85334E+03  3.34159E+03 -8.69232E+03 -4.49065E+03 -4.74466E+03 -1.05875E+04  1.66358E+03 -1.08132E+04
  6.04844E+03 -6.86070E+03  8.27033E+03 -1.35095E+03  5.20717E+03  2.50193E+03  9.98146E+02  5.08771E+03
 -3.36610E+03  2.01762E+03 -5.45083E+03 -3.80274E+03  1.72182E+03 -8.50678E+03  9.99726E+03 -6.04216E+03
  1.16856E+04  8.50440E+02  1.06496E+04  8.20087E+03  2.84634E+03  1.22476E+04 -3.89331E+03  1.15475E+04
 -1.08564E+04  5.09001E+03 -1.10482E+04 -1.09861E+03 -5.53758E+03 -7.98956E+03  1.57857E+03 -7.06112E+03
  8.14852E+03 -3.87005E+03  6.31868E+03  2.92771E+03  2.30174E+03  7.19400E+03 -1.31170E+03  5.87433E+03
 -4.04475E+03  4.12559E+03 -3.16536E+03  1.12570E+03 -2.03348E+03  9.04009E+02 -1.92722E+03  1.89367E+03
 -3.67797E+03  5.17557E+03 -8.16785E+03  4.88683E+03 -1.21932E+04  1.52243E+02 -1.37697E+04 -9.06229E+03
 -6.27325E+03 -1.64886E+04  3.55357E+03 -1.94118E+04  1.28884E+04 -1.45382E+04  1.78763E+04 -6.04175E+03
  1.78511E+04  3.18042E+03  9.98010E+03  1.12857E+04  1.04019E+03  1.29201E+04 -5.52860E+03  9.89831E+03
 -6.67173E+03  3.80784E+03 -4.23171E+03 -9.37500E+02 -2.01553E+03 -8.90323E+02 -7.35616E+02 -1.25264E+03
 -1.86040E+03  2.37441E+02 -2.79911E+03 -8.41650E+02 -1.14698E+03 -2.47021E+03  4.37960E+02 -3.62756E+03
  5.32556E+03 -4.48975E+03  8.41487E+03  1.30124E+02  9.54759E+03  7.37295E+03  2.77878E+03  1.22682E+04
 -5.75062E+03  1.51588E+04 -1.33482E+04  8.45703E+03 -1.63581E+04 -9.02920E+02 -1.25687E+04 -1.04049E+04
 -5.31407E+03 -1.41824E+04  3.27200E+03 -1.27113E+04  8.74013E+03 -6.46896E+03  9.09720E+03  6.53370E+02
  4.94282E+03  3.74336E+03 -8.22422E+02  3.07820E+03 -2.99420E+03 -9.00546E+02 -1.50360E+02 -2.35598E+03
  4.07085E+03 -1.56255E+03  5.52164E+03  1.42618E+03  4.03790E+03  5.42174E+03  2.32781E+02  7.00667E+03
 -5.94431E+03  7.14565E+03 -8.93765E+03 -3.14473E+02 -7.81311E+03 -6.87509E+03 -2.15344E+03 -1.20418E+04
  6.04934E+03 -9.50626E+03  1.05195E+04 -2.96280E+03  9.89469E+03  2.85031E+03  6.31645E+03  8.42804E+03
  1.84733E+03  9.13616E+03 -4.14994E+03  6.75751E+03 -5.62783E+03  3.72300E+03 -3.98294E+03  5.61235E+02
 -2.31693E+03 -1.28610E+03 -1.72534E+03  1.47080E+03 -5.30145E+03  1.09649E+03 -6.57644E+03 -8.72040E+02
 -6.00744E+03 -4.32280E+03 -1.45251E+03 -9.22564E+03  3.99951E+03 -9.12108E+03  8.37575E+03 -4.10831E+03
  8.79419E+03  2.14612E+03  4.98700E+03  6.80029E+03 -1.34299E+03  9.25721E+03 -6.76693E+03  5.45844E+03
