 $NMID ID='MM_0lb_SNR400_15hz_g50_61.RAW', FMTDAT='(8E13.5)'
 TRAMP=1., VOLUME=1. $END
  3.09428E+05  2.25551E+02  3.37913E+05  2.50352E+05  8.46529E+04  3.37820E+05 -1.32740E+05  2.51347E+05
 -1.90361E+05  8.28093E+04 -1.11317E+05 -3.22815E+04  1.19119E+03 -5.03581E+04  5.38803E+04 -3.81586E+02
  3.57321E+04  5.24843E+04 -1.69568E+04  7.54194E+04 -6.09344E+04  6.37801E+04 -8.38220E+04  3.23457E+04
 -8.00241E+04 -1.11252E+04 -5.64311E+04 -5.10239E+04 -1.52046E+04 -6.95297E+04  2.68677E+04 -4.57019E+04
  4.02915E+04  4.27526E+03  1.62770E+04  4.75708E+04 -3.44219E+04  4.72157E+04 -6.59543E+04 -1.72710E+02
 -5.29307E+04 -5.67419E+04 -6.31621E+03 -7.68027E+04  3.38617E+04 -5.52850E+04  4.83621E+04 -1.70489E+04
  4.34050E+04  1.07921E+04  3.17772E+04  2.48222E+04  1.54887E+04  2.95159E+04 -5.28354E+03  2.78659E+04
 -2.24823E+04  1.22210E+04 -1.83941E+04 -4.91905E+03  5.56624E+03 -8.42417E+03  2.24447E+04  1.15042E+04
  7.10656E+03  3.51196E+04 -3.16739E+04  3.52293E+04 -6.32653E+04  2.41405E+03 -5.69568E+04 -4.25963E+04
 -1.26883E+04 -6.25185E+04  3.91607E+04 -4.47096E+04  5.79850E+04 -1.80546E+03  3.35409E+04  3.18479E+04
 -5.87772E+03  3.53973E+04 -2.94991E+04  1.53342E+04 -3.02833E+04 -4.34735E+03 -1.67556E+04 -1.09700E+04
 -7.55913E+03 -1.27981E+04 -1.46125E+03 -1.83173E+04  7.61936E+03 -2.29941E+04  1.58284E+04 -1.30533E+04
  1.20208E+04  4.95699E+03 -8.05110E+03  1.27205E+04 -2.16140E+04 -4.87201E+03 -8.05435E+03 -3.26416E+04
  2.21442E+04 -4.27270E+04  4.77901E+04 -1.90786E+04  4.40576E+04  1.87685E+04  1.53167E+04  4.32680E+04
 -1.62448E+04  3.26241E+04 -2.58204E+04  1.02001E+03 -9.24657E+03 -2.77507E+04  2.04977E+04 -3.29961E+04
  4.07732E+04 -8.85446E+03  3.49021E+04  2.35171E+04  1.65144E+04  4.55753E+04 -7.54609E+03  4.91918E+04
 -3.10716E+04  3.37094E+04 -4.09792E+04  9.58237E+03 -4.23281E+04 -1.65333E+04 -2.29316E+04 -3.75598E+04
  6.99928E+03 -3.77118E+04  3.12917E+04 -1.40627E+04  2.96031E+04  1.09579E+04  3.94079E+03  1.95698E+04
 -1.36049E+04  8.41946E+03 -1.06375E+04 -7.33360E+03  5.57780E+03 -1.01581E+04  1.78751E+04  6.43032E+03
  1.31453E+04  2.22369E+04 -6.16019E+03  2.43553E+04 -2.23538E+04  1.17179E+04 -2.75977E+04 -5.08247E+03
 -1.97599E+04 -1.63499E+04 -7.70554E+03 -1.99947E+04  3.81138E+03 -1.89650E+04  1.46690E+04 -1.74590E+04
  2.53807E+04 -1.27673E+04  3.19562E+04  2.30448E+03  2.28534E+04  1.90327E+04  4.57682E+03  3.53362E+04
 -1.72813E+04  2.99183E+04 -2.74445E+04  1.05579E+04 -1.97682E+04 -1.03091E+04 -4.76535E+03 -1.36447E+04
  1.94459E+03 -2.82335E+03 -4.14037E+03  6.91272E+03 -1.57722E+04  4.92690E+03 -1.53439E+04 -6.63795E+03
 -9.81421E+03 -1.85201E+04  5.54646E+03 -2.23408E+04  1.41758E+04 -1.55820E+04  1.73159E+04 -1.28052E+03
  1.08652E+04  1.24527E+04 -7.70636E+02  1.85884E+04 -1.30232E+04  1.04075E+04 -1.87573E+04 -3.74658E+03
 -1.34609E+04 -1.68022E+04 -1.27832E+03 -2.19467E+04  9.95045E+03 -1.81154E+04  1.81582E+04 -8.50684E+03
  1.70534E+04 -1.17050E+02  1.27646E+04  4.13608E+03  6.73720E+03  1.17736E+03  9.10192E+03 -1.84360E+03
  1.67475E+04  2.74675E+03  1.83793E+04  1.47310E+04  1.23102E+04  2.91890E+04 -3.49340E+03  3.27607E+04
 -1.88924E+04  2.57231E+04 -3.07320E+04  1.28139E+04 -3.20428E+04 -2.09587E+03 -2.64439E+04 -1.77461E+04
 -1.15200E+04 -2.61945E+04  8.87227E+03 -2.40160E+04  2.00781E+04 -1.20002E+04  1.77615E+04  5.25438E+03
  6.95972E+03  1.36170E+04 -9.00456E+03  1.24601E+04 -1.54533E+04  2.31983E+03 -1.22493E+04 -9.60745E+03
  1.93852E+02 -1.45768E+04  7.96344E+03 -1.11487E+04  9.34710E+03 -1.18304E+03  1.87390E+03  6.97327E+03
 -7.18546E+03  2.81305E+03 -5.24984E+03 -5.45536E+03 -2.07425E+02 -1.26334E+04  9.22434E+03 -1.33035E+04
  1.63131E+04 -6.51140E+03  1.70098E+04  3.45057E+03  1.45251E+04  1.26581E+04  7.35077E+03  1.94712E+04
 -3.02364E+03  2.08747E+04 -1.35273E+04  1.25259E+04 -1.48576E+04  3.11764E+03 -1.08540E+04 -3.98350E+03
 -4.94135E+03 -4.08017E+03 -4.71988E+02  1.55108E+03 -2.37957E+03  2.51973E+03 -4.48804E+03  3.55941E+03
 -9.56989E+03 -5.53576E+02 -1.09353E+04 -8.52199E+03 -4.56617E+03 -1.40779E+04  4.45975E+03 -1.05074E+04
  8.56625E+03 -4.77869E+03  5.91731E+03  2.51366E+03  1.42571E+02  4.45287E+03 -5.29513E+03 -8.65819E+02
 -4.00464E+03 -6.48237E+03 -1.57897E+03 -9.55984E+03  6.02359E+03 -1.02476E+04  1.31420E+04 -5.31525E+03
  1.55721E+04  9.23166E+02  1.15401E+04  9.23843E+03  2.06110E+03  1.22538E+04 -6.48566E+03  1.07693E+04
 -8.97477E+03  3.50742E+03 -4.68857E+03 -1.96664E+03  1.89736E+03 -2.97125E+03  5.81040E+03 -9.69297E+02
  4.63801E+03  4.42663E+03  9.34366E+02  7.46792E+03 -5.85727E+03  7.96691E+03 -9.95112E+03  2.84486E+03
 -6.72811E+03 -5.32258E+03  8.43282E+02 -8.58075E+03  5.23970E+03 -4.19661E+03  5.68614E+03  1.52574E+03
  7.84171E+02  5.09058E+03 -5.26739E+03  7.20229E+03 -7.26769E+03  3.44233E+03 -7.14782E+03 -2.61391E+03
 -4.43338E+03 -8.89318E+03  1.82493E+03 -1.03721E+04  8.73681E+03 -6.35956E+03  9.75078E+03  1.09682E+03
  5.85723E+03  8.07503E+03 -2.29845E+02  1.02238E+04 -6.48878E+03  5.43633E+03 -7.37929E+03 -8.36682E+02
 -7.43591E+03 -7.21434E+03 -1.59026E+03 -7.52160E+03  3.81085E+03 -5.73974E+03  4.44152E+03 -3.64209E+03
  2.95599E+03  6.68271E+02 -2.43831E+02  1.20502E+03 -2.12728E+02 -1.83655E+03  6.69358E+02 -3.82590E+03
  5.97058E+03 -1.97022E+03  8.48467E+03  1.24802E+03  8.33926E+03  5.49463E+03  6.63408E+03  1.14850E+04
 -2.03597E+03  1.35595E+04 -1.12778E+04  9.78054E+03 -1.41962E+04  1.51274E+03 -1.16590E+04 -4.33370E+03
 -6.25107E+03 -9.08318E+03  1.24444E+02 -7.51348E+03  3.27753E+03 -3.49710E+03  3.25965E+03 -3.12273E+03
  2.12308E+03 -2.32649E+03  2.53026E+03 -3.17916E+03  3.68821E+03 -2.38807E+03  5.06535E+03  8.81701E+01
  5.84348E+03  1.41761E+03  2.39677E+03  4.89773E+03 -2.14261E+03  5.30756E+03 -6.39771E+03  4.11981E+03
 -8.10521E+03 -1.23819E+03 -4.04851E+03 -4.78968E+03  8.74818E+01 -8.12813E+03  4.42901E+03 -7.99511E+03
  8.32015E+03 -5.23166E+03  1.00805E+04  5.87691E+02  7.10780E+03  6.42574E+03  1.09739E+03  9.05246E+03
 -3.92762E+03  8.07565E+03 -5.40504E+03  2.77053E+03 -4.39328E+03 -1.13665E+03 -1.04277E+03 -7.84789E+02
 -3.51942E+02  2.65142E+02 -1.85500E+03  2.07538E+03 -3.35559E+03  1.95378E+03 -5.66216E+03 -1.43306E+03
 -3.20722E+03 -5.39258E+03  5.21811E+02 -7.01122E+03  4.21440E+03 -7.06108E+03  6.37559E+03 -1.92323E+03
  6.49517E+03  2.92728E+03  2.81649E+03  6.75783E+03 -8.58940E+02  7.59585E+03 -4.77217E+03  4.86385E+03
 -6.29171E+03  3.82147E+02 -4.90748E+03 -4.09154E+03 -1.02929E+02 -5.76969E+03  2.44323E+03 -4.68786E+03
  4.06844E+03 -2.25340E+03  3.05607E+03  9.92413E+02  1.61908E+03  2.29009E+03  9.17871E+02  6.28420E+02
  1.89693E+03  1.67816E+02  1.94315E+03  1.20371E+03  2.26973E+03  2.93638E+03  1.92128E+03  2.57093E+03
 -1.74816E+03  4.77061E+03 -4.79007E+03  6.64627E+03 -6.31655E+03  2.12166E+03 -6.90275E+03 -2.22101E+03
 -3.17096E+03 -6.63223E+03  1.26554E+03 -7.91962E+03  4.05059E+03 -5.00227E+03  5.55810E+03 -1.03964E+03
  4.53682E+03  3.18522E+03  6.16425E+02  4.00928E+03 -1.78568E+03  1.82302E+03 -2.40367E+03 -2.62111E+02
 -1.26689E+03 -2.21867E+03  2.40679E+03 -2.48755E+03  2.66665E+03 -1.59902E+03  2.57262E+03  4.01048E+02
  1.28198E+03  9.00126E+02  3.41548E+02  6.85035E+02 -1.48952E+02  6.61034E+02  1.35941E+03 -1.99786E+02
  2.97303E+02 -7.56890E+02  2.85976E+03  1.41265E+03  5.07831E+02  3.18219E+03 -5.15797E+02  5.13470E+03
 -2.96133E+03  2.31560E+03 -4.00878E+03  4.84490E+02 -4.18575E+03 -1.17872E+03 -1.31113E+03 -1.61251E+03
  6.64158E+02 -2.54478E+03  1.12840E+03 -1.14288E+03  1.54096E+03  1.32959E+03 -7.71317E+02  2.05863E+03
 -2.30434E+03  7.22806E+02 -2.64292E+03 -2.24364E+03 -1.40936E+03 -4.00717E+03 -2.01450E+02 -3.33871E+03
  1.38948E+03 -1.43913E+03  1.73116E+03 -3.95088E+01  1.96627E+03  7.06895E+02  1.17713E+02  1.68752E+03
 -7.64804E+02  1.37204E+02 -1.08143E+03 -1.54495E+03  1.05129E+03 -2.24739E+03  2.49922E+03 -2.38512E+03
  3.10347E+03  2.34724E+02  4.65370E+03  2.26980E+03  1.49777E+03  3.53893E+03 -1.17860E+03  4.12558E+03
 -2.49331E+03  1.84464E+03 -2.97280E+03 -6.46222E+02 -9.74432E+02 -2.26450E+03  6.50654E+02 -1.59611E+03
  2.75472E+03 -1.23797E+03  1.42756E+03  1.60408E+03  1.82333E+02  1.97131E+03  2.53921E+02  1.41605E+03
 -1.32659E+03  1.71413E+03 -1.01363E+03  1.01196E+03  3.14634E+02  4.66950E+02 -9.00793E+02  6.45171E+02
 -7.77049E+02  1.50591E+03 -3.08368E+03  1.05871E+03 -2.64798E+03  4.80472E+02 -4.35151E+03 -1.74746E+03
 -1.99690E+03 -5.02497E+03  8.64815E+02 -5.28861E+03  3.02258E+03 -4.72538E+03  5.18865E+03 -1.57488E+03
  4.76694E+03  9.92884E+02  2.30984E+03  2.74553E+03 -5.65994E+02  3.04959E+03 -1.13783E+03  2.70524E+03
 -1.98441E+03  1.69391E+03 -1.06313E+03 -6.94799E+02 -8.13128E+02 -4.93880E+02 -9.91571E+02 -1.86693E+02
 -1.19108E+03 -1.01675E+02 -1.07011E+03 -2.20376E+02  2.86684E+02 -1.00689E+03  6.72988E+01 -1.53469E+03
  2.16069E+03 -1.31402E+03  1.19687E+03 -3.23797E+02  2.36371E+03  1.51805E+03  2.80952E+02  2.87057E+03
 -1.49403E+03  3.63085E+03 -3.52456E+03  2.66655E+03 -3.82570E+03  3.12535E+01 -2.22150E+03 -3.29275E+03
 -1.38828E+03 -3.31687E+03  8.65625E+02 -2.75149E+03  1.25981E+03 -1.83294E+03  2.20328E+03  2.31264E+02
  7.49791E+02  3.78843E+02 -9.01955E+01  7.64254E+02 -9.70262E+02  1.63881E+02 -2.12333E+02 -4.73723E+02
  1.16605E+03 -3.60186E+01  9.80440E+02  6.39571E+02  5.67525E+02  4.23995E+02 -5.62185E+02  1.25460E+03
 -1.48436E+03  1.86381E+03 -1.63450E+03 -2.56502E+02 -1.91624E+03 -1.20179E+03 -4.60497E+02 -2.80179E+03
  1.27099E+03 -2.17186E+03  2.23470E+03 -7.20509E+01  2.27654E+03 -3.58277E+01  1.30039E+03  1.78464E+03
  1.60425E+01  1.92943E+03 -1.36757E+03  1.46763E+03 -9.33132E+02  1.04089E+03 -9.11344E+02  2.39147E+01
 -4.32479E+02 -6.29114E+02 -7.59297E+02  6.35160E+02 -6.51293E+02  4.41896E+01 -1.75442E+03  1.84987E+02
 -2.00694E+03 -3.52720E+01  1.21129E+02 -2.37584E+03  9.89895E+02 -1.84289E+03  1.92282E+03 -1.04253E+03
  1.49782E+03 -2.56805E+02  3.40317E+02  1.01565E+03 -1.11270E+02  1.95096E+03 -1.61587E+03  7.49504E+02
