 $NMID ID='MM_0lb_SNR400_20hz_g45_55.RAW', FMTDAT='(8E13.5)'
 TRAMP=1., VOLUME=1. $END
  3.09558E+05  5.79171E+02  3.37211E+05  2.50609E+05  8.43579E+04  3.36953E+05 -1.32571E+05  2.49875E+05
 -1.89506E+05  8.25308E+04 -1.10648E+05 -3.30645E+04  1.74504E+03 -5.03731E+04  5.38404E+04  5.30989E+02
  3.50984E+04  5.29881E+04 -1.67927E+04  7.48015E+04 -5.98170E+04  6.20034E+04 -8.28602E+04  3.15993E+04
 -7.90521E+04 -1.13385E+04 -5.56872E+04 -4.96294E+04 -1.45771E+04 -6.76471E+04  2.68877E+04 -4.41579E+04
  3.86052E+04  4.04973E+03  1.52290E+04  4.74169E+04 -3.32450E+04  4.58618E+04 -6.49231E+04 -9.09222E+02
 -5.14132E+04 -5.55179E+04 -6.28411E+03 -7.45301E+04  3.25841E+04 -5.24962E+04  4.57322E+04 -1.58404E+04
  4.08666E+04  1.10062E+04  3.06659E+04  2.40283E+04  1.56440E+04  2.77025E+04 -4.64589E+03  2.67956E+04
 -2.18546E+04  1.27899E+04 -1.91384E+04 -4.03535E+03  3.53435E+03 -7.51602E+03  2.08666E+04  1.06247E+04
  7.55613E+03  3.27148E+04 -3.00474E+04  3.35548E+04 -6.05571E+04  1.59678E+03 -5.50699E+04 -4.05945E+04
 -1.25052E+04 -5.99727E+04  3.70591E+04 -4.28262E+04  5.41648E+04 -2.07801E+03  3.13961E+04  2.99678E+04
 -6.90064E+03  3.24907E+04 -2.74973E+04  1.22410E+04 -2.69284E+04 -5.28728E+03 -1.37092E+04 -9.42736E+03
 -7.52544E+03 -1.09881E+04 -9.87808E+02 -1.63175E+04  6.26904E+03 -2.27946E+04  1.52409E+04 -1.40839E+04
  1.26346E+04  4.00719E+03 -5.36437E+03  1.32010E+04 -1.85192E+04 -1.66497E+03 -7.75132E+03 -2.90116E+04
  2.03037E+04 -3.97507E+04  4.34395E+04 -1.80910E+04  4.09076E+04  1.80598E+04  1.39412E+04  4.07321E+04
 -1.48097E+04  3.04320E+04 -2.26690E+04  8.01088E+02 -7.01876E+03 -2.60301E+04  2.04566E+04 -3.00925E+04
  3.70767E+04 -6.91495E+03  2.99708E+04  2.24152E+04  1.44612E+04  4.08426E+04 -7.84303E+03  4.41649E+04
 -2.70352E+04  2.85696E+04 -3.60984E+04  7.69028E+03 -3.70031E+04 -1.45317E+04 -2.00090E+04 -3.34093E+04
  6.72262E+03 -3.30532E+04  2.80263E+04 -1.20658E+04  2.64359E+04  1.10760E+04  2.68294E+03  1.74229E+04
 -1.27503E+04  6.58297E+03 -8.51878E+03 -7.64439E+03  6.29792E+03 -9.68549E+03  1.70877E+04  7.06195E+03
  1.22350E+04  2.16324E+04 -6.58560E+03  2.22080E+04 -2.13158E+04  8.06852E+03 -2.42918E+04 -6.77907E+03
 -1.54893E+04 -1.59904E+04 -4.56140E+03 -1.53251E+04  3.76550E+03 -1.28967E+04  1.14745E+04 -1.36748E+04
  1.99362E+04 -1.12934E+04  2.66346E+04  1.11353E+03  2.04326E+04  1.46919E+04  3.75070E+03  3.11655E+04
 -1.57994E+04  2.64666E+04 -2.51238E+04  8.97647E+03 -1.93671E+04 -1.06691E+04 -4.03694E+03 -1.44147E+04
  2.54743E+03 -4.35654E+03 -2.02405E+03  4.97470E+03 -1.20875E+04  5.43882E+03 -1.28101E+04 -4.02378E+03
 -8.08283E+03 -1.48125E+04  4.20365E+03 -1.80820E+04  1.24560E+04 -1.33804E+04  1.32979E+04 -1.25392E+03
  8.28655E+03  9.87615E+03 -3.17653E+02  1.44433E+04 -9.74872E+03  8.57888E+03 -1.42534E+04 -2.72468E+03
 -1.04853E+04 -1.29040E+04 -6.48542E+02 -1.79828E+04  7.74620E+03 -1.43112E+04  1.57029E+04 -6.42884E+03
  1.31547E+04  1.26253E+03  9.86937E+03  3.54392E+03  4.82473E+03  8.12403E+01  7.10115E+03 -7.76726E+02
  1.23835E+04  2.32957E+03  1.32068E+04  1.20512E+04  7.98876E+03  2.30266E+04 -3.16324E+03  2.40854E+04
 -1.45345E+04  1.83521E+04 -2.21245E+04  8.48917E+03 -2.22284E+04 -1.82737E+03 -1.94550E+04 -1.30679E+04
 -9.51509E+03 -1.82513E+04  5.74272E+03 -1.75598E+04  1.53117E+04 -1.04971E+04  1.47380E+04  3.95775E+03
  6.26989E+03  1.01881E+04 -6.63763E+03  1.01120E+04 -1.21001E+04  2.81059E+03 -9.62202E+03 -7.10667E+03
 -2.92733E+02 -1.13841E+04  5.48552E+03 -8.89934E+03  6.96944E+03 -1.73926E+03  1.23878E+03  4.25333E+03
 -5.17050E+03  1.26194E+03 -2.89747E+03 -4.24289E+03  8.80469E+02 -9.26557E+03  7.12107E+03 -9.00499E+03
  1.10830E+04 -4.04323E+03  1.07591E+04  2.72354E+03  8.92339E+03  8.30544E+03  4.35349E+03  1.21598E+04
 -1.03020E+03  1.38828E+04 -8.35360E+03  8.73706E+03 -1.00815E+04  3.08956E+03 -7.69887E+03 -1.30804E+03
 -4.31215E+03 -2.58233E+03 -8.68171E+02  1.21308E+03 -1.36831E+03  1.81854E+03 -2.97983E+03  3.42424E+03
 -7.26678E+03 -3.01480E+02 -7.98363E+03 -6.71628E+03 -2.56996E+03 -1.03012E+04  3.27376E+03 -7.82784E+03
  6.56566E+03 -3.36950E+03  4.73320E+03  1.59643E+03  8.44617E+02  2.58684E+03 -3.18603E+03  2.68483E+02
 -3.05097E+03 -4.78549E+03 -4.95226E+02 -6.32213E+03  3.15183E+03 -7.29681E+03  8.76448E+03 -3.45643E+03
  1.03128E+04  1.17998E+02  7.96706E+03  5.28103E+03  1.54261E+03  7.40065E+03 -4.43878E+03  7.39678E+03
 -6.30402E+03  2.87630E+03 -3.04927E+03 -8.32791E+02  1.45445E+03 -2.04072E+03  3.98741E+03 -9.50193E+02
  3.64351E+03  2.81697E+03  1.30893E+03  5.86098E+03 -4.25646E+03  5.85178E+03 -7.20482E+03  1.78052E+03
 -4.43080E+03 -3.34443E+03 -6.16351E+02 -6.10538E+03  3.07303E+03 -3.12762E+03  2.16546E+03  9.81113E+02
 -1.27756E+00  2.95231E+03 -3.96777E+03  4.01376E+03 -4.27339E+03  2.04403E+03 -3.23127E+03 -9.74697E+02
 -2.73136E+03 -4.57089E+03  8.83106E+02 -6.01350E+03  5.28429E+03 -4.10167E+03  5.51131E+03  4.99285E+02
  3.93673E+03  4.23995E+03 -2.60411E+02  6.60628E+03 -4.30027E+03  4.09616E+03 -3.82596E+03 -8.96762E+02
 -5.48041E+03 -4.83482E+03 -8.05580E+02 -4.20117E+03  2.30769E+03 -4.11400E+03  2.44127E+03 -2.57603E+03
  2.51399E+03 -1.62355E+01  2.43912E+02  1.17398E+03  9.11858E+02 -2.11696E+02 -4.90956E+02 -1.02117E+03
  3.55494E+03 -1.27328E+02  4.38559E+03  5.00455E+02  4.82664E+03  2.36010E+03  4.98931E+03  5.85048E+03
 -1.04672E+03  6.85845E+03 -6.69297E+03  5.68069E+03 -8.19272E+03  7.20973E+02 -6.51220E+03 -1.69899E+03
 -3.40981E+03 -6.15120E+03 -5.47418E+02 -4.08691E+03  1.67017E+03 -1.42791E+03  1.14599E+03 -1.85919E+03
  4.73200E+02 -1.50772E+03  2.06839E+03 -2.05280E+03  2.82241E+03 -1.04189E+03  3.34196E+03  5.69451E+02
  3.81628E+03  1.23672E+03  5.33016E+02  2.87963E+03 -1.50991E+03  2.32052E+03 -3.88583E+03  2.40818E+03
 -4.49936E+03 -8.21953E+02 -9.10198E+02 -2.28679E+03  4.61398E+02 -4.32404E+03  2.56534E+03 -3.97955E+03
  4.35341E+03 -3.25777E+03  5.63998E+03  1.48745E+01  4.62719E+03  3.64992E+03  9.42637E+02  4.81612E+03
 -1.26704E+03  4.57221E+03 -2.54442E+03  1.49363E+03 -1.42960E+03 -9.30879E+02  2.87396E+02  9.98398E+01
 -1.90773E+02 -1.62561E+02 -4.16019E+02  2.02405E+03 -2.18193E+03  1.09690E+03 -2.91333E+03 -6.05049E+02
 -9.58730E+02 -3.54016E+03  1.19459E+03 -3.89902E+03  2.64393E+03 -3.14411E+03  2.98630E+03 -1.22396E+03
  3.47605E+03  1.88591E+03  1.80916E+03  2.45523E+03  1.78271E+02  3.99602E+03 -2.43114E+03  2.53236E+03
 -2.63977E+03  8.14802E+02 -2.69315E+03 -2.04559E+03  2.96986E+02 -2.27870E+03  8.89834E+02 -2.09651E+03
  2.55701E+03 -1.36060E+03  1.49281E+03 -1.48007E+02  3.05900E+02  1.36021E+03  1.90286E+02  5.98902E+02
  1.37079E+03  3.45135E+02  1.02496E+03  8.85046E+02  2.07409E+02  2.07347E+03  9.93218E+02  1.03029E+03
 -1.49378E+03  2.10991E+03 -2.19542E+03  3.47312E+03 -1.98227E+03  1.37553E+03 -2.81436E+03  5.60500E+01
 -9.02983E+02 -2.80392E+03  5.83243E+02 -3.51348E+03  2.04584E+03 -1.81431E+03  2.22418E+03 -8.64114E+02
  1.80822E+03  1.74565E+03  4.89764E+01  1.43829E+03 -4.63429E+02  1.20054E+03 -9.72577E+02  3.33345E+01
 -7.11896E+02 -1.41754E+03  1.56924E+03 -9.13820E+02  5.53707E+02 -2.75593E+02  7.57501E+02  6.83029E+02
  4.01781E+02  1.94379E+02  3.61540E+02 -4.60741E+02 -1.05312E+02  5.30315E+02  1.92077E+03 -3.64916E+02
  1.73759E+00 -4.06652E+02  1.32281E+03  3.42237E+02  1.62621E+02  1.94656E+03 -1.89315E+02  2.45850E+03
 -1.18112E+03 -3.81708E+02 -1.70012E+03  2.01370E+02 -2.03586E+03 -6.06200E+02 -3.08116E+02 -9.34344E+02
  4.94476E+02 -6.86525E+02  9.24836E+02 -6.72071E+02  4.78442E+02  6.89502E+02 -6.35769E+02  5.72257E+02
 -1.23394E+03  1.41070E+03 -2.71096E+02 -1.06910E+03 -6.42213E+02 -2.12390E+03  1.96551E+02 -1.08219E+03
  3.77291E+02 -2.02355E+02  5.30146E+02  1.03790E+02  5.17924E+02 -8.24784E+01  3.28338E+02  1.13539E+03
  3.92707E+01  2.07737E+02 -7.63164E+02 -8.80585E+01  7.85168E+02 -8.54168E+02  1.55086E+03 -8.52019E+02
  8.45591E+02  1.58308E+02  2.52959E+03  4.12152E+02  1.24585E+03  1.10702E+03 -5.39716E+02  1.42415E+03
 -8.10866E+02 -3.18889E+02 -1.26245E+03 -2.93282E+02 -7.25172E+02 -4.91123E+02  5.67608E+02 -7.88824E+01
  1.31552E+03 -6.39465E+02  2.90781E+02  4.17884E+02  4.00155E+02  1.11350E+03  1.52798E+02  7.46682E+02
  1.51164E+02  7.57573E+02 -7.73429E+02  3.23529E+02  1.62402E+02  7.44541E+02 -8.08724E+02  3.74617E+02
 -1.68379E+02  4.33106E+02 -1.45169E+03  3.34996E+02 -1.41600E+03  1.02861E+02 -1.43965E+03 -8.62054E+02
 -8.46319E+02 -1.53479E+03  3.75237E+02 -2.34113E+03  8.93700E+02 -1.71069E+03  2.06802E+03 -9.41176E+02
  1.82818E+03 -5.00189E+02  6.50180E+02  9.22940E+02 -7.34196E+02  1.04957E+03 -2.75452E+02  9.02062E+02
 -7.41772E+02  6.99105E+02 -1.52318E+02 -2.83105E+02 -5.77099E+02  2.81066E+02 -6.53129E+02 -2.19170E+02
 -1.32436E+03 -1.07066E+02 -9.71262E+02 -1.85711E+01  4.36619E+02 -5.60626E+02 -1.03204E+02 -6.26479E+02
  1.25582E+03 -9.37386E+01 -2.80365E+02  3.13229E+02  9.71639E+02  1.01407E+03  1.84448E+02  6.70895E+02
 -1.07922E+03  1.60420E+03 -9.62687E+02  1.32351E+03 -1.19836E+03 -1.24466E+02 -6.48073E+02 -8.73494E+02
 -1.00223E+03 -3.99382E+02  4.05582E+01 -4.77470E+02  9.63855E+01  2.28674E+02 -1.89196E+01 -2.24001E+02
  3.15691E+02  1.05703E+02  2.58057E+02  5.41732E+02 -3.69654E+02 -3.95047E+02  2.07274E+02 -1.95824E+02
  4.11181E+02  6.25572E+02  2.31785E+02  7.10406E+02 -3.80153E+02  2.66795E+02  1.15688E+03 -2.36070E+02
 -3.38806E+02  9.95485E+02 -3.75986E+02 -1.07603E+02 -8.02466E+02 -6.61796E+02  2.24042E+02 -4.80478E+02
  3.83408E+02 -4.85778E+02 -1.38792E+02  3.72813E+02  3.85816E+02 -8.83144E+02  4.86178E+02  7.20790E+02
  3.15174E+02  1.02272E+03  2.10397E+01  2.31831E+02 -2.92535E+02  6.08055E+02  9.49084E+01 -2.06466E+01
 -1.67454E+02 -3.44833E+02 -7.87678E+02 -2.68379E+02 -1.31958E+02  4.18323E+02 -6.99920E+02 -4.72365E+02
 -6.88140E+02  7.30366E+02 -1.61165E+01 -9.08481E+02  8.99166E+02 -7.01292E+02  6.04822E+02 -1.40207E+02
  4.24442E+02  1.93536E+02 -3.49757E+02 -3.40991E+02 -2.48044E+02  7.35462E+02  2.05085E+02  8.34267E+02
