 $NMID ID='MM_0lb_SNR400_11hz_g45_73.RAW', FMTDAT='(8E13.5)'
 TRAMP=1., VOLUME=1. $END
  3.09948E+05  4.87376E+02  3.37125E+05  2.50666E+05  8.48783E+04  3.38307E+05 -1.32189E+05  2.51287E+05
 -1.91324E+05  8.34749E+04 -1.12499E+05 -3.24094E+04  8.51935E+02 -5.06031E+04  5.42188E+04 -4.37095E+02
  3.57070E+04  5.32510E+04 -1.65421E+04  7.61000E+04 -6.10030E+04  6.41998E+04 -8.40468E+04  3.22367E+04
 -8.15720E+04 -1.14350E+04 -5.81499E+04 -5.19839E+04 -1.51062E+04 -7.00338E+04  2.77197E+04 -4.63625E+04
  4.08834E+04  2.82877E+03  1.69125E+04  4.83401E+04 -3.42123E+04  4.79893E+04 -6.73013E+04 -1.58981E+02
 -5.40777E+04 -5.78899E+04 -6.39261E+03 -7.79558E+04  3.35450E+04 -5.68019E+04  4.87288E+04 -1.81925E+04
  4.40403E+04  1.16077E+04  3.21376E+04  2.55984E+04  1.59785E+04  2.99075E+04 -5.74393E+03  2.72623E+04
 -2.21599E+04  1.23985E+04 -1.89059E+04 -5.83955E+03  7.03825E+03 -7.62690E+03  2.36860E+04  1.33541E+04
  8.26524E+03  3.62089E+04 -3.23455E+04  3.62516E+04 -6.47443E+04  2.10906E+03 -5.81457E+04 -4.37991E+04
 -1.28338E+04 -6.43187E+04  4.11380E+04 -4.63042E+04  5.96328E+04 -2.28258E+03  3.56219E+04  3.29604E+04
 -6.09839E+03  3.76166E+04 -3.12769E+04  1.70306E+04 -3.15952E+04 -3.75796E+03 -1.80833E+04 -1.09940E+04
 -9.13921E+03 -1.39967E+04 -1.26971E+01 -1.82449E+04  8.07684E+03 -2.32412E+04  1.54997E+04 -1.35505E+04
  1.14668E+04  5.99386E+03 -9.49401E+03  1.30083E+04 -2.21468E+04 -5.61026E+03 -8.42653E+03 -3.53878E+04
  2.37509E+04 -4.52461E+04  5.01700E+04 -2.04575E+04  4.63139E+04  2.00314E+04  1.67515E+04  4.57959E+04
 -1.59073E+04  3.47548E+04 -2.56555E+04  2.43665E+03 -1.09459E+04 -2.86106E+04  2.06681E+04 -3.57482E+04
  4.32606E+04 -1.01389E+04  3.84554E+04  2.42007E+04  2.00522E+04  4.87224E+04 -7.16280E+03  5.37822E+04
 -3.35018E+04  3.59621E+04 -4.48650E+04  1.06860E+04 -4.52766E+04 -1.75336E+04 -2.45889E+04 -4.03572E+04
  7.77437E+03 -3.97462E+04  3.26966E+04 -1.59615E+04  3.09236E+04  1.06259E+04  4.82084E+03  1.99102E+04
 -1.38105E+04  9.14320E+03 -1.08787E+04 -7.17724E+03  5.58744E+03 -1.12237E+04  1.83430E+04  5.45622E+03
  1.43699E+04  2.23223E+04 -5.25112E+03  2.60800E+04 -2.35153E+04  1.25716E+04 -2.92737E+04 -4.00090E+03
 -2.34160E+04 -1.71137E+04 -1.01852E+04 -2.22743E+04  4.39962E+03 -2.26655E+04  1.80199E+04 -2.06110E+04
  2.89449E+04 -1.33054E+04  3.55466E+04  4.03194E+03  2.50157E+04  2.20107E+04  4.69007E+03  3.85549E+04
 -1.91643E+04  3.15704E+04 -2.90875E+04  1.12278E+04 -2.22331E+04 -1.09901E+04 -4.51583E+03 -1.26875E+04
  1.00175E+03 -2.46731E+03 -6.19133E+03  7.14148E+03 -1.81308E+04  5.71414E+03 -1.86414E+04 -8.87446E+03
 -1.13861E+04 -2.21441E+04  4.67104E+03 -2.53222E+04  1.72159E+04 -1.84073E+04  1.99462E+04 -1.68127E+03
  1.30398E+04  1.41490E+04 -9.50715E+02  2.08891E+04 -1.55463E+04  1.24306E+04 -2.15316E+04 -4.30743E+03
 -1.57884E+04 -1.89852E+04 -2.13246E+03 -2.58337E+04  1.14210E+04 -2.06172E+04  2.10777E+04 -1.04064E+04
  1.98829E+04 -2.40820E+02  1.45838E+04  4.95548E+03  8.03560E+03  6.33620E+02  1.08711E+04 -2.63921E+03
  1.89342E+04  2.52567E+03  2.22601E+04  1.67119E+04  1.53040E+04  3.42909E+04 -2.45029E+03  3.92096E+04
 -2.21838E+04  3.21093E+04 -3.65211E+04  1.69957E+04 -3.89150E+04 -2.76163E+03 -3.15710E+04 -2.26291E+04
 -1.34263E+04 -3.23987E+04  1.18479E+04 -2.86841E+04  2.44070E+04 -1.39213E+04  2.13937E+04  6.63098E+03
  7.98918E+03  1.56409E+04 -1.04877E+04  1.39322E+04 -1.86177E+04  2.14224E+03 -1.38621E+04 -1.11444E+04
 -3.39111E+02 -1.72403E+04  9.78523E+03 -1.36282E+04  1.28064E+04 -1.51344E+03  2.83294E+03  7.54032E+03
 -8.02948E+03  3.26548E+03 -8.11577E+03 -5.78155E+03 -7.94223E+02 -1.51702E+04  1.03287E+04 -1.70899E+04
  2.01800E+04 -8.61469E+03  2.15876E+04  3.09803E+03  1.97131E+04  1.56169E+04  9.05888E+03  2.46331E+04
 -4.43096E+03  2.66786E+04 -1.72281E+04  1.58565E+04 -1.88282E+04  3.62316E+03 -1.38382E+04 -5.21925E+03
 -5.88853E+03 -6.40744E+03 -1.00394E+03  7.83996E+02 -2.39506E+03  2.93389E+03 -6.30873E+03  4.63060E+03
 -1.22685E+04 -7.59069E+02 -1.31723E+04 -1.06603E+04 -5.19040E+03 -1.64031E+04  5.11674E+03 -1.35029E+04
  1.12522E+04 -5.76297E+03  7.79688E+03  3.03073E+03  1.85729E+02  5.10473E+03 -7.04515E+03  4.69491E+02
 -6.29602E+03 -8.05088E+03 -8.64998E+02 -1.32778E+04  7.45684E+03 -1.37030E+04  1.70910E+04 -6.38958E+03
  1.96087E+04  1.42417E+03  1.45152E+04  1.10915E+04  3.26157E+03  1.62588E+04 -8.29232E+03  1.35135E+04
 -1.07871E+04  4.07250E+03 -5.36519E+03 -2.97734E+03  1.68458E+03 -3.57084E+03  6.45341E+03 -1.00824E+03
  6.97541E+03  4.95544E+03  1.41495E+03  1.02653E+04 -8.12294E+03  9.84135E+03 -1.28269E+04  2.68947E+03
 -8.76570E+03 -6.93033E+03 -1.06821E+02 -1.13582E+04  7.23357E+03 -5.36358E+03  8.29090E+03  1.43019E+03
  1.05858E+03  8.02718E+03 -7.00874E+03  1.02997E+04 -1.13639E+04  4.09512E+03 -1.15881E+04 -3.74468E+03
 -6.05269E+03 -1.27056E+04  3.16037E+03 -1.47209E+04  1.21944E+04 -9.56457E+03  1.35330E+04  2.13859E+03
  7.68366E+03  1.08413E+04 -4.63991E+02  1.31747E+04 -1.01970E+04  7.23966E+03 -1.07982E+04 -1.06328E+03
 -9.20300E+03 -8.71021E+03 -2.01770E+03 -1.05426E+04  4.88736E+03 -7.70516E+03  5.56399E+03 -3.38042E+03
  4.61248E+03  1.35854E+03 -5.56644E+02  1.21764E+03 -2.55377E+02 -2.20610E+03  1.45979E+03 -5.22110E+03
  9.38039E+03 -4.05896E+03  1.29626E+04  1.39691E+03  1.23581E+04  9.30128E+03  8.86630E+03  1.66066E+04
 -3.95205E+03  1.86655E+04 -1.59262E+04  1.45233E+04 -2.02875E+04  2.42849E+03 -1.68703E+04 -6.95152E+03
 -8.07648E+03 -1.32902E+04 -1.10152E+03 -1.18006E+04  3.86865E+03 -7.23336E+03  4.48987E+03 -3.77729E+03
  2.74049E+03 -2.27743E+03  3.27127E+03 -2.94533E+03  5.10802E+03 -2.15340E+03  6.17959E+03 -4.39736E+02
  9.48055E+03  2.53703E+03  5.27301E+03  7.62903E+03 -2.08414E+03  8.73760E+03 -9.30713E+03  6.50215E+03
 -1.18947E+04 -9.33510E+02 -6.24023E+03 -8.31826E+03 -1.28103E+03 -1.15676E+04  7.02331E+03 -1.20812E+04
  1.24668E+04 -7.03692E+03  1.54959E+04  1.69345E+03  1.05806E+04  1.06252E+04  2.60088E+03  1.36035E+04
 -6.04735E+03  1.13291E+04 -7.95776E+03  4.58857E+03 -5.38111E+03 -1.58578E+03 -3.03882E+03 -2.06400E+03
 -7.72022E+02  1.16921E+02 -1.74845E+03  2.85835E+03 -5.01655E+03  1.61419E+03 -7.92818E+03 -6.60890E+02
 -5.61015E+03 -8.46988E+03  9.16045E+02 -1.15390E+04  6.07691E+03 -1.10128E+04  1.11878E+04 -3.13780E+03
  1.13220E+04  5.56275E+03  5.68047E+03  1.00976E+04 -2.44039E+03  1.17590E+04 -7.85264E+03  7.13804E+03
 -1.07096E+04  8.98272E+02 -8.24500E+03 -6.03975E+03 -9.21504E+02 -9.23934E+03  4.84781E+03 -6.29347E+03
  6.68559E+03 -2.41674E+03  4.80307E+03  1.84511E+03  1.63702E+03  2.43370E+03  8.98865E+02  1.53837E+03
  2.68532E+03  1.09464E+03  2.63802E+03  1.55387E+03  3.10168E+03  4.16175E+03  2.28429E+03  5.50878E+03
 -1.60368E+03  8.98789E+03 -7.76643E+03  8.84677E+03 -1.10020E+04  3.37091E+03 -1.14208E+04 -3.62718E+03
 -4.60994E+03 -1.08900E+04  1.05133E+03 -1.31738E+04  6.63841E+03 -8.16045E+03  9.52336E+03 -2.14452E+03
  7.89377E+03  4.36811E+03  1.46839E+03  7.07458E+03 -2.46887E+03  4.39392E+03 -4.10452E+03 -3.86792E+02
 -1.98766E+03 -4.48662E+03  2.44915E+03 -5.15318E+03  5.64190E+03 -2.91835E+03  4.11868E+03  8.26231E+02
  2.57146E+03  2.37480E+03  1.14161E+03  1.39890E+03 -5.45266E+02  1.75209E+03  2.29465E+03 -6.56340E+02
  1.71302E+03 -7.10617E+02  4.60752E+03  1.30620E+03  2.59549E+03  5.76315E+03 -1.34091E+03  7.69953E+03
 -5.16576E+03  4.68428E+03 -7.25087E+03  1.43526E+03 -6.00132E+03 -2.44524E+03 -2.68280E+03 -3.67133E+03
  1.62787E+03 -4.15065E+03  3.03033E+03 -1.94390E+03  2.80920E+03  2.62182E+03 -1.78436E+03  3.19172E+03
 -4.50552E+03  2.37677E+03 -4.93441E+03 -2.19849E+03 -3.17725E+03 -6.21664E+03  9.63664E+02 -6.20177E+03
  3.30761E+03 -2.86032E+03  3.54632E+03  5.73985E+02  3.21141E+03  7.16298E+02  7.32737E+02  3.32166E+03
 -2.14609E+03  9.61909E+02 -3.18552E+03 -1.31128E+03  1.38656E+03 -4.76443E+03  4.86361E+03 -4.07666E+03
  6.82177E+03 -2.70225E+02  7.50642E+03  4.97803E+03  2.62705E+03  6.91052E+03 -2.38336E+03  6.08682E+03
 -5.98884E+03  3.00499E+03 -6.00180E+03 -4.44346E+02 -3.12440E+03 -4.77915E+03  1.59593E+03 -4.59986E+03
  5.23139E+03 -2.04574E+03  3.38070E+03  1.82365E+03  8.65005E+02  4.83309E+03  8.76406E+01  3.83663E+03
 -1.67051E+03  2.63389E+03 -1.55245E+03  2.58370E+02 -3.32407E+02  8.05557E+02 -1.51108E+03  1.95723E+03
 -1.60163E+03  2.43411E+03 -4.95376E+03  3.11971E+03 -6.33795E+03 -2.07341E+02 -7.97879E+03 -3.95710E+03
 -4.72901E+03 -9.53641E+03  1.77066E+03 -1.02502E+04  5.90173E+03 -8.72074E+03  9.69145E+03 -3.28848E+03
  9.21299E+03  1.14099E+03  5.04522E+03  6.09542E+03  2.55684E+02  6.66377E+03 -2.77482E+03  5.19862E+03
 -4.11008E+03  2.33614E+03 -2.87308E+03 -9.51958E+02 -9.34598E+02 -4.10093E+02  2.78514E+02  2.26557E+02
 -1.30203E+03  6.34440E+02 -1.38222E+03 -4.05219E+02 -4.42466E+02 -1.62983E+03  1.62831E+02 -2.56778E+03
  3.04410E+03 -1.95060E+03  3.54839E+03  5.13223E+02  5.26429E+03  3.94552E+03  9.46316E+02  6.15140E+03
 -3.37020E+03  8.30152E+03 -7.49469E+03  4.76691E+03 -9.06690E+03 -8.52591E+02 -5.99741E+03 -5.46691E+03
 -3.62607E+03 -6.69461E+03  2.39272E+03 -6.43739E+03  4.35696E+03 -3.28306E+03  4.65136E+03  3.04534E+02
  1.60613E+03  2.97846E+03  3.76338E+02  1.72675E+03 -1.75202E+03  2.82129E+02 -5.31550E+02 -2.19703E+03
  1.93736E+03 -1.22368E+03  3.30730E+03  5.72171E+02  2.32157E+03  2.97743E+03 -4.44072E+02  3.95110E+03
 -3.66308E+03  3.02201E+03 -4.85731E+03  5.88965E+02 -3.75867E+03 -3.01861E+03 -6.34735E+02 -5.97065E+03
  3.54892E+03 -5.37234E+03  5.22808E+03 -1.60784E+03  5.96137E+03  1.23724E+03  2.78105E+03  4.63063E+03
  7.50939E+02  4.32131E+03 -1.19771E+03  3.82923E+03 -3.14909E+03  1.25678E+03 -2.18125E+03 -3.47961E+02
 -1.41167E+03 -5.95734E+02 -1.60868E+03  7.42520E+02 -2.46997E+03  6.03240E+02 -2.98525E+03 -6.14598E+02
 -3.83775E+03 -1.82993E+03 -1.45587E+03 -4.19156E+03  2.06541E+03 -5.03882E+03  4.18272E+03 -2.19588E+03
  3.67381E+03  1.07122E+03  2.19180E+03  3.41667E+03 -1.83000E+02  5.44815E+03 -2.82160E+03  2.50398E+03
