 $NMID ID='MM_0lb_SNR400_16hz_g50_3.RAW', FMTDAT='(8E13.5)'
 TRAMP=1., VOLUME=1. $END
  3.09187E+05  8.92001E+02  3.37216E+05  2.51259E+05  8.43670E+04  3.37300E+05 -1.32221E+05  2.50819E+05
 -1.90285E+05  8.28799E+04 -1.11292E+05 -3.24795E+04  1.00570E+03 -4.99536E+04  5.35045E+04  2.23043E+02
  3.55788E+04  5.30108E+04 -1.67346E+04  7.50790E+04 -6.02806E+04  6.37491E+04 -8.40007E+04  3.16103E+04
 -8.12717E+04 -1.07980E+04 -5.66632E+04 -5.04425E+04 -1.50605E+04 -6.89066E+04  2.65190E+04 -4.52034E+04
  3.96870E+04  3.78725E+03  1.60993E+04  4.73709E+04 -3.47632E+04  4.66297E+04 -6.57370E+04 -2.37857E+02
 -5.29171E+04 -5.61449E+04 -6.32161E+03 -7.67440E+04  3.41529E+04 -5.42340E+04  4.73073E+04 -1.65891E+04
  4.26571E+04  1.13624E+04  3.13624E+04  2.53343E+04  1.53700E+04  2.90665E+04 -4.88472E+03  2.74587E+04
 -2.19915E+04  1.23466E+04 -1.85824E+04 -4.92066E+03  5.16348E+03 -8.11876E+03  2.17446E+04  1.16329E+04
  7.23708E+03  3.44086E+04 -3.13281E+04  3.44273E+04 -6.27360E+04  2.31153E+03 -5.63324E+04 -4.16669E+04
 -1.25974E+04 -6.23578E+04  3.95413E+04 -4.42696E+04  5.68690E+04 -2.18653E+03  3.33679E+04  3.21115E+04
 -6.41714E+03  3.53027E+04 -2.92173E+04  1.58473E+04 -2.89779E+04 -4.57828E+03 -1.63798E+04 -1.02282E+04
 -7.41474E+03 -1.28099E+04 -1.04331E+03 -1.71791E+04  7.48787E+03 -2.27804E+04  1.57312E+04 -1.29804E+04
  1.10034E+04  5.01799E+03 -7.44334E+03  1.27320E+04 -2.00868E+04 -3.75562E+03 -8.18110E+03 -3.25874E+04
  2.16860E+04 -4.23869E+04  4.70281E+04 -1.95166E+04  4.36633E+04  1.89422E+04  1.52602E+04  4.31594E+04
 -1.53226E+04  3.20587E+04 -2.46692E+04  1.98131E+03 -9.07577E+03 -2.73900E+04  2.09652E+04 -3.30004E+04
  3.97412E+04 -8.34068E+03  3.39884E+04  2.26781E+04  1.73543E+04  4.47156E+04 -7.84534E+03  4.86881E+04
 -3.06742E+04  3.18272E+04 -4.06397E+04  9.37453E+03 -4.10491E+04 -1.60884E+04 -2.15796E+04 -3.64877E+04
  7.65573E+03 -3.65126E+04  3.02039E+04 -1.39861E+04  2.86972E+04  1.07600E+04  3.48094E+03  1.85103E+04
 -1.31687E+04  8.04880E+03 -9.86100E+03 -8.00760E+03  6.34591E+03 -1.08992E+04  1.75417E+04  6.19692E+03
  1.31059E+04  2.13042E+04 -6.63686E+03  2.43486E+04 -2.09993E+04  1.07930E+04 -2.72283E+04 -5.15926E+03
 -1.91530E+04 -1.72984E+04 -7.01702E+03 -1.93912E+04  3.62435E+03 -1.75044E+04  1.45520E+04 -1.67227E+04
  2.45315E+04 -1.19466E+04  3.08997E+04  1.92042E+03  2.29104E+04  1.79085E+04  4.20125E+03  3.49089E+04
 -1.68483E+04  2.93111E+04 -2.72391E+04  1.01814E+04 -2.05363E+04 -1.01321E+04 -4.46340E+03 -1.38304E+04
  1.75085E+03 -3.25258E+03 -4.05862E+03  5.50543E+03 -1.48779E+04  5.04744E+03 -1.47862E+04 -5.90592E+03
 -9.61514E+03 -1.70955E+04  5.41148E+03 -2.13807E+04  1.44393E+04 -1.59527E+04  1.64348E+04 -1.21748E+03
  1.04807E+04  1.24604E+04 -8.81206E+02  1.79897E+04 -1.21934E+04  9.96258E+03 -1.73354E+04 -4.08100E+03
 -1.27259E+04 -1.52962E+04 -1.90541E+03 -2.12298E+04  9.30298E+03 -1.78111E+04  1.73166E+04 -7.90272E+03
  1.60055E+04  3.82033E+02  1.18207E+04  3.93265E+03  6.10987E+03  4.44135E+02  8.63600E+03 -1.27149E+03
  1.63414E+04  2.93726E+03  1.75537E+04  1.46256E+04  1.13219E+04  2.82622E+04 -3.23962E+03  3.14227E+04
 -1.78370E+04  2.40460E+04 -2.83546E+04  1.21012E+04 -2.99255E+04 -1.54451E+03 -2.55209E+04 -1.74323E+04
 -1.15886E+04 -2.46610E+04  8.28980E+03 -2.23399E+04  1.94131E+04 -1.24057E+04  1.78215E+04  4.82104E+03
  6.77192E+03  1.28181E+04 -8.05351E+03  1.16758E+04 -1.48800E+04  2.04856E+03 -1.19743E+04 -8.98848E+03
 -2.11843E+02 -1.40802E+04  7.34344E+03 -1.09620E+04  9.18936E+03 -1.64056E+03  1.83423E+03  5.80123E+03
 -6.38586E+03  2.28964E+03 -4.85450E+03 -5.33746E+03 -3.86890E+02 -1.16028E+04  8.68466E+03 -1.28656E+04
  1.45493E+04 -6.03170E+03  1.53870E+04  3.27001E+03  1.32232E+04  1.19342E+04  6.35088E+03  1.75556E+04
 -2.76276E+03  1.92041E+04 -1.19308E+04  1.20503E+04 -1.39566E+04  3.37954E+03 -9.85796E+03 -3.17892E+03
 -5.66253E+03 -4.26403E+03 -7.55018E+02  9.21312E+02 -1.93091E+03  2.82859E+03 -4.76466E+03  3.98083E+03
 -9.10697E+03 -3.40324E+02 -1.02004E+04 -8.93113E+03 -4.29448E+03 -1.26021E+04  3.65248E+03 -1.01609E+04
  8.37095E+03 -4.11351E+03  6.21533E+03  2.78831E+03  4.28389E+02  3.52171E+03 -4.29521E+03  2.40376E+02
 -4.12743E+03 -6.70683E+03 -2.83387E+02 -9.35630E+03  5.20727E+03 -1.00259E+04  1.17014E+04 -5.13411E+03
  1.41815E+04  1.18599E+03  9.86578E+03  8.15160E+03  2.66624E+03  1.08619E+04 -5.90438E+03  9.71795E+03
 -7.93566E+03  3.12217E+03 -3.50625E+03 -1.76524E+03  2.16104E+03 -1.91755E+03  5.10612E+03 -8.51895E+02
  4.64312E+03  3.89768E+03  1.37757E+03  7.36101E+03 -4.98115E+03  7.85020E+03 -9.62064E+03  1.35902E+03
 -5.80638E+03 -4.59626E+03 -1.79513E+02 -7.52016E+03  4.88723E+03 -3.92223E+03  5.00319E+03  1.89108E+03
  9.91603E+02  4.70211E+03 -4.42838E+03  6.18846E+03 -6.05030E+03  3.00588E+03 -6.88757E+03 -2.07470E+03
 -4.01389E+03 -7.95655E+03  1.53941E+03 -9.32673E+03  7.40180E+03 -5.98612E+03  8.45949E+03  1.42530E+03
  5.27948E+03  7.44311E+03 -9.98481E+02  8.77500E+03 -6.11520E+03  4.90135E+03 -7.13984E+03 -2.83767E+02
 -6.23952E+03 -6.59789E+03 -1.80863E+03 -6.51005E+03  2.97579E+03 -5.82635E+03  4.08252E+03 -2.86104E+03
  2.82410E+03  5.33362E+02 -3.88119E+02  1.44587E+03 -1.82395E+02 -1.10378E+03  1.25078E+03 -2.87016E+03
  5.20543E+03 -1.54998E+03  7.39678E+03  3.98363E+02  7.62079E+03  4.96932E+03  5.99665E+03  9.60428E+03
 -2.34352E+03  1.21701E+04 -9.77812E+03  9.36809E+03 -1.25539E+04  1.72520E+03 -1.08273E+04 -3.92358E+03
 -5.48323E+03 -8.62389E+03 -3.51610E+02 -6.88449E+03  2.41702E+03 -2.66777E+03  2.67542E+03 -2.40177E+03
  1.21254E+03 -2.23712E+03  2.68631E+03 -2.11589E+03  3.66906E+03 -1.35670E+03  4.28622E+03  7.19735E+02
  5.73153E+03  1.61154E+03  2.08666E+03  4.67990E+03 -1.73950E+03  4.20025E+03 -5.52979E+03  3.23035E+03
 -7.32694E+03 -1.23911E+03 -3.23803E+03 -4.78532E+03  4.91431E+02 -7.27328E+03  4.46527E+03 -7.04887E+03
  7.59053E+03 -4.37266E+03  8.83401E+03  5.92266E+02  6.28391E+03  5.59453E+03  1.10597E+03  8.18782E+03
 -3.29611E+03  7.18178E+03 -4.13169E+03  2.79317E+03 -2.95304E+03 -1.01291E+03 -5.00807E+02 -9.98113E+02
 -8.85218E+02  3.29075E+02 -1.40828E+03  2.41965E+03 -2.99240E+03  8.39136E+02 -5.37375E+03 -2.20735E+01
 -2.55045E+03 -5.29050E+03  5.12529E+02 -6.25111E+03  4.00358E+03 -5.59232E+03  4.93672E+03 -1.43639E+03
  5.48187E+03  2.75996E+03  2.63529E+03  5.27586E+03 -1.59090E+03  5.98146E+03 -4.45992E+03  4.03865E+03
 -5.49575E+03  8.80307E+02 -4.05377E+03 -4.30533E+03  1.63778E+02 -4.83637E+03  2.23977E+03 -4.17629E+03
  3.85971E+03 -1.94241E+03  2.58001E+03  6.87852E+02  9.58622E+02  2.06394E+03  5.20516E+02  7.70885E+02
  2.02773E+03  6.24200E+02  1.52604E+03  9.56852E+02  1.31637E+03  3.16780E+03  2.07384E+03  2.35592E+03
 -1.49718E+03  4.47421E+03 -3.67884E+03  5.03368E+03 -5.45492E+03  1.44595E+03 -6.15472E+03 -1.76318E+03
 -2.72667E+03 -4.94301E+03  9.16515E+02 -6.52831E+03  3.23196E+03 -4.36651E+03  4.77814E+03 -9.73236E+02
  3.09230E+03  2.14409E+03  7.04373E+02  3.45452E+03 -1.04537E+03  1.76310E+03 -1.98249E+03 -1.48765E+02
 -1.09461E+03 -2.47373E+03  1.20628E+03 -2.49655E+03  1.86965E+03 -1.93331E+03  1.84380E+03  1.09429E+03
  1.21284E+03  1.17013E+03  9.87548E+02 -3.04902E+02 -7.45740E+02  6.89250E+02  1.98419E+03 -8.15272E+01
  3.82141E+02 -2.35091E+02  2.39367E+03  1.27400E+03  1.08606E+03  3.53172E+03 -5.66737E+02  4.56204E+03
 -2.76956E+03  1.61111E+03 -3.02705E+03  5.84362E+02 -2.77543E+03 -1.14637E+03 -2.94965E+02 -1.55923E+03
  6.42379E+02 -1.68844E+03  1.13466E+03 -9.42636E+02  5.04601E+02  1.57688E+03 -8.62517E+02  2.25923E+03
 -1.90163E+03  5.21234E+02 -1.85748E+03 -2.13310E+03 -1.41562E+03 -3.59829E+03  1.97604E+02 -2.51989E+03
  1.61567E+03 -1.18576E+03  1.27846E+03  1.95718E+02  1.65690E+03 -3.88929E+01 -2.88238E+02  1.97131E+03
 -7.53431E+02  5.14270E+02 -1.95557E+03 -7.44072E+02  1.01102E+03 -1.38853E+03  2.55053E+03 -1.93923E+03
  2.15241E+03 -1.98128E+02  3.53438E+03  1.87276E+03  1.76422E+03  2.64727E+03 -7.99987E+02  2.19437E+03
 -3.25689E+03  1.51970E+02 -2.08227E+03 -1.54726E+02 -1.44888E+03 -2.26707E+03  1.33211E+02 -2.00143E+03
  2.31564E+03 -8.02586E+02  1.02856E+03  1.06331E+03  5.30941E+02  2.07774E+03  4.66340E+02  1.60698E+03
 -7.03028E+02  1.31782E+03 -7.26249E+02  7.39107E+02  1.36425E+02  6.77790E+02 -8.85667E+02  1.03204E+03
 -5.63792E+02  1.01332E+03 -2.37850E+03  1.53889E+03 -3.08899E+03  2.81748E+02 -3.42809E+03 -1.91423E+03
 -1.19195E+03 -3.78084E+03  1.19678E+03 -4.47384E+03  2.50103E+03 -3.86083E+03  4.34777E+03 -1.72983E+03
  2.97303E+03  1.02107E+03  2.37666E+03  2.64242E+03 -1.89954E+02  2.76175E+03 -1.30629E+03  1.97078E+03
 -1.79808E+03  1.57624E+03 -1.15782E+03 -4.67508E+02 -7.99957E+02  7.10735E+01 -1.11596E+02 -3.14118E+02
 -9.85160E+02 -3.32645E+02 -5.36214E+02  1.79485E+02 -1.17244E+01 -5.86219E+02  3.84362E+02 -1.27133E+03
  1.29844E+03 -9.15006E+02  1.15242E+03  5.01384E+02  1.51912E+03  1.08058E+03  1.31962E+02  2.59382E+03
 -1.77848E+03  3.66952E+03 -2.82154E+03  1.91495E+03 -2.94651E+03 -5.57973E+01 -3.12879E+03 -2.12629E+03
 -1.18168E+03 -2.85786E+03  9.12521E+02 -2.00665E+03  1.45234E+03 -1.27641E+03  1.61923E+03  1.87705E+02
  9.68115E+02  7.12376E+02 -4.36411E+02  2.82661E+02 -7.76840E+02  4.44727E+02 -1.74205E+02 -2.87003E+02
  5.93688E+02 -2.86972E+02  1.34904E+03  2.47387E+02  6.16201E+02  8.23470E+02  2.29533E+02  6.74062E+02
 -5.49779E+02  9.50748E+02 -1.64034E+03 -3.94349E+02 -1.46217E+03 -1.07750E+03 -3.64040E+02 -2.04211E+03
  1.54795E+03 -1.34098E+03  1.62116E+03  2.70642E+02  1.89074E+03 -1.89608E+02  1.30036E+03  1.23972E+03
  6.69905E+02  1.68089E+03 -1.88197E+02  8.89060E+02 -9.28343E+02  1.39148E+03 -5.69054E+02  9.06741E+02
 -2.92462E+02  3.65431E+02 -7.66668E+00  1.03721E+03 -8.76586E+02  3.34714E+02 -5.30029E+02 -1.54604E+02
 -1.27921E+03 -5.41239E+01 -9.25840E+02 -1.75823E+03  8.56030E+02 -1.79527E+03  1.07583E+03 -5.50670E+02
  8.61358E+02 -1.37650E+02  3.26305E+01  1.95504E+02  4.08089E+01  1.62144E+03 -1.01725E+03  8.84213E+02
