 $NMID ID='MM_0lb_SNR400_8hz_g60_92.RAW', FMTDAT='(8E13.5)'
 TRAMP=1., VOLUME=1. $END
  3.10025E+05  9.34909E+02  3.37652E+05  2.51484E+05  8.47061E+04  3.38143E+05 -1.32828E+05  2.52320E+05
 -1.91439E+05  8.43665E+04 -1.12694E+05 -3.24003E+04  2.11801E+02 -5.06710E+04  5.33924E+04 -1.06322E+03
  3.52034E+04  5.24415E+04 -1.56213E+04  7.69061E+04 -6.17020E+04  6.44140E+04 -8.61570E+04  3.26373E+04
 -8.26303E+04 -1.15650E+04 -5.81178E+04 -5.35792E+04 -1.46655E+04 -7.23429E+04  2.83244E+04 -4.69463E+04
  4.14497E+04  4.18879E+03  1.69551E+04  4.93789E+04 -3.53974E+04  4.86378E+04 -6.91251E+04  5.38436E+02
 -5.51535E+04 -5.83997E+04 -7.81787E+03 -7.96858E+04  3.50464E+04 -5.78042E+04  5.08599E+04 -1.90209E+04
  4.62827E+04  1.14993E+04  3.24863E+04  2.64531E+04  1.63498E+04  3.20595E+04 -6.34951E+03  2.83772E+04
 -2.26422E+04  1.19975E+04 -1.82617E+04 -6.17408E+03  6.73047E+03 -7.30732E+03  2.41523E+04  1.50249E+04
  6.65947E+03  3.86070E+04 -3.39499E+04  3.75262E+04 -6.74223E+04  1.65615E+03 -5.95746E+04 -4.52905E+04
 -1.19436E+04 -6.72334E+04  4.18770E+04 -4.84230E+04  6.31623E+04 -2.78655E+03  3.70964E+04  3.53971E+04
 -5.91123E+03  4.16055E+04 -3.34242E+04  1.98216E+04 -3.43767E+04 -3.55165E+03 -2.07886E+04 -1.23114E+04
 -9.10886E+03 -1.55048E+04 -8.71561E+02 -2.09028E+04  9.64758E+03 -2.37978E+04  1.58885E+04 -1.20294E+04
  1.05940E+04  6.70364E+03 -1.17739E+04  1.23255E+04 -2.46168E+04 -6.78809E+03 -8.77770E+03 -3.91216E+04
  2.58785E+04 -4.81466E+04  5.37247E+04 -2.06617E+04  5.00160E+04  2.09722E+04  1.83911E+04  4.84382E+04
 -1.73804E+04  3.77723E+04 -2.80175E+04  3.23659E+03 -1.25202E+04 -3.04627E+04  2.19340E+04 -3.86090E+04
  4.63569E+04 -1.11668E+04  4.24889E+04  2.58702E+04  2.27590E+04  5.40333E+04 -8.42228E+03  5.81678E+04
 -3.68437E+04  3.97627E+04 -5.01168E+04  1.20213E+04 -5.03356E+04 -1.90924E+04 -2.72054E+04 -4.40019E+04
  8.76104E+03 -4.41836E+04  3.58579E+04 -1.85083E+04  3.23745E+04  1.15566E+04  5.49896E+03  2.10827E+04
 -1.26953E+04  1.02278E+04 -1.16427E+04 -7.70114E+03  5.36784E+03 -1.16080E+04  1.95537E+04  5.04418E+03
  1.59050E+04  2.26297E+04 -4.76028E+03  2.77299E+04 -2.37120E+04  1.52151E+04 -3.33005E+04 -2.26654E+03
 -2.67299E+04 -1.76470E+04 -1.41806E+04 -2.65593E+04  4.37940E+03 -2.90878E+04  2.18779E+04 -2.45764E+04
  3.45561E+04 -1.46345E+04  3.99937E+04  5.66586E+03  2.87690E+04  2.57843E+04  4.12890E+03  4.33072E+04
 -2.04890E+04  3.54094E+04 -3.10046E+04  1.25790E+04 -2.31652E+04 -1.00274E+04 -4.19022E+03 -1.22238E+04
 -4.30578E+02 -4.93457E+02 -8.36770E+03  9.32495E+03 -2.18318E+04  4.90253E+03 -2.15899E+04 -1.09305E+04
 -1.25135E+04 -2.52718E+04  6.79401E+03 -2.88642E+04  2.01597E+04 -2.11994E+04  2.40992E+04 -1.05293E+03
  1.57307E+04  1.76828E+04 -9.72641E+02  2.49434E+04 -1.73751E+04  1.43269E+04 -2.44610E+04 -4.49897E+03
 -1.86695E+04 -2.23500E+04 -2.84337E+03 -3.09201E+04  1.30222E+04 -2.63059E+04  2.52750E+04 -1.32161E+04
  2.40955E+04 -7.18975E+02  1.60910E+04  5.70642E+03  9.14235E+03  1.86463E+03  1.33696E+04 -1.96049E+03
  2.36597E+04  2.38261E+03  2.83128E+04  1.88463E+04  1.89472E+04  4.09139E+04 -2.53642E+03  4.77966E+04
 -2.66364E+04  4.11032E+04 -4.58355E+04  2.18272E+04 -4.96108E+04 -3.63507E+03 -3.96467E+04 -2.88342E+04
 -1.54535E+04 -4.16215E+04  1.47085E+04 -3.65643E+04  3.02038E+04 -1.61694E+04  2.63140E+04  9.00952E+03
  8.99065E+03  2.11861E+04 -1.21638E+04  1.63312E+04 -2.21188E+04  1.66267E+03 -1.64625E+04 -1.38573E+04
 -5.50072E+02 -2.04369E+04  1.19247E+04 -1.55670E+04  1.49872E+04 -1.06555E+03  3.55885E+03  1.00598E+04
 -1.03518E+04  5.31302E+03 -9.81138E+03 -7.44928E+03 -2.59819E+03 -1.96737E+04  1.30697E+04 -2.22693E+04
  2.49389E+04 -1.29474E+04  3.01202E+04  3.54019E+03  2.63299E+04  2.05800E+04  1.18096E+04  3.24911E+04
 -6.74609E+03  3.44093E+04 -2.34275E+04  2.27822E+04 -2.53045E+04  4.66249E+03 -1.61746E+04 -6.82888E+03
 -7.38471E+03 -7.84211E+03 -7.14022E+01 -1.20699E+02 -2.36441E+03  4.13104E+03 -8.25454E+03  6.38491E+03
 -1.53459E+04 -1.25684E+03 -1.70930E+04 -1.30481E+04 -6.95366E+03 -2.09860E+04  7.84278E+03 -1.77861E+04
  1.35729E+04 -7.34158E+03  1.00828E+04  3.90616E+03 -1.67906E+03  6.51306E+03 -8.61232E+03  1.33255E+02
 -8.98291E+03 -1.08895E+04 -1.03447E+03 -1.76198E+04  1.05915E+04 -1.92264E+04  2.29296E+04 -9.92295E+03
  2.66182E+04  2.98621E+03  1.96256E+04  1.59239E+04  3.74257E+03  2.24596E+04 -1.10748E+04  1.79306E+04
 -1.50652E+04  4.60984E+03 -6.58314E+03 -4.40591E+03  2.14745E+03 -4.81345E+03  8.85274E+03 -8.95666E+02
  8.95979E+03  8.63377E+03  2.23803E+03  1.35122E+04 -1.05849E+04  1.47118E+04 -1.78187E+04  2.62834E+03
 -1.24498E+04 -1.04646E+04 -5.64952E+02 -1.52507E+04  9.76377E+03 -7.58030E+03  1.01308E+04  4.65886E+03
  1.77686E+03  1.18809E+04 -8.69317E+03  1.36225E+04 -1.59992E+04  5.68202E+03 -1.70293E+04 -5.83591E+03
 -9.61645E+03 -1.97319E+04  4.32429E+03 -2.17080E+04  1.77287E+04 -1.28240E+04  2.01832E+04  3.48056E+03
  1.12521E+04  1.47936E+04 -1.66211E+03  1.81064E+04 -1.35677E+04  1.10650E+04 -1.42910E+04 -2.14556E+03
 -1.22236E+04 -1.14461E+04 -1.64064E+03 -1.36088E+04  7.29079E+03 -1.03505E+04  9.19611E+03 -4.49399E+03
  5.68427E+03  2.22758E+03 -1.63165E+03  1.69725E+03 -1.41745E+03 -4.14555E+03  3.46467E+03 -8.71704E+03
  1.33313E+04 -5.14994E+03  1.92540E+04  2.97430E+03  1.82082E+04  1.28684E+04  1.15730E+04  2.42866E+04
 -6.47863E+03  2.81027E+04 -2.44328E+04  2.01569E+04 -2.89750E+04  3.99836E+03 -2.37699E+04 -1.09187E+04
 -1.23228E+04 -1.99752E+04 -5.79455E+02 -1.67532E+04  5.71804E+03 -1.02942E+04  6.46131E+03 -6.44728E+03
  4.80309E+03 -4.12970E+03  4.82423E+03 -4.91105E+03  6.16461E+03 -4.06760E+03  9.18162E+03 -1.98377E+03
  1.21162E+04  2.63272E+03  7.54047E+03  1.15748E+04 -3.09622E+03  1.31613E+04 -1.27970E+04  1.01185E+04
 -1.73568E+04 -1.05344E+03 -1.17184E+04 -1.27697E+04 -2.00892E+03 -1.81436E+04  9.67035E+03 -1.90572E+04
  1.90195E+04 -1.02352E+04  2.27248E+04  3.59115E+03  1.61468E+04  1.64939E+04  1.94641E+03  2.19031E+04
 -8.47692E+03  1.72662E+04 -1.25905E+04  6.06700E+03 -8.36671E+03 -2.08944E+03 -3.09769E+03 -2.62309E+03
 -1.19587E+03 -6.14827E+02 -2.02453E+03  2.94818E+03 -6.92094E+03  2.74125E+03 -1.23976E+04 -1.74053E+03
 -8.78691E+03 -1.22506E+04 -3.19321E+02 -1.73900E+04  1.03495E+04 -1.59500E+04  1.84140E+04 -5.87087E+03
  1.76057E+04  8.03249E+03  9.10524E+03  1.70495E+04 -3.18558E+03  1.77746E+04 -1.23163E+04  1.07927E+04
 -1.69492E+04  5.95025E+02 -1.40074E+04 -1.16084E+04 -1.71295E+03 -1.54249E+04  8.30714E+03 -1.19263E+04
  1.16384E+04 -3.66666E+03  7.94860E+03  2.96952E+03  2.66296E+03  5.09566E+03  1.19672E+03  2.64467E+03
  3.73806E+03  5.04740E+02  3.64415E+03  2.60668E+03  4.64866E+03  5.66016E+03  4.25266E+03  9.18110E+03
 -3.52286E+03  1.47365E+04 -1.23679E+04  1.40204E+04 -1.83877E+04  3.63178E+03 -1.90525E+04 -8.38104E+03
 -9.34653E+03 -1.85097E+04  3.00443E+03 -2.02452E+04  1.17398E+04 -1.24601E+04  1.54294E+04 -4.69020E+03
  1.20074E+04  6.59995E+03  2.69529E+03  1.13488E+04 -4.74546E+03  6.93885E+03 -7.77295E+03 -1.53657E+03
 -3.97436E+03 -8.16506E+03  4.05350E+03 -8.46810E+03  7.90586E+03 -3.97549E+03  7.88739E+03  1.73227E+03
  5.07536E+03  3.40100E+03  2.05422E+03  3.06094E+03 -4.82843E+02  2.86591E+03  1.73828E+03 -1.60848E+02
  4.10104E+03 -2.25277E+03  8.09600E+03  3.38715E+03  4.71101E+03  1.02937E+04 -2.04540E+03  1.29232E+04
 -9.30338E+03  7.82925E+03 -1.15924E+04  2.27311E+03 -1.02412E+04 -5.99135E+03 -4.37677E+03 -6.87047E+03
  9.86409E+02 -6.89026E+03  4.28003E+03 -3.66092E+03  4.64313E+03  2.34417E+03 -2.19070E+03  6.85839E+03
 -7.29895E+03  4.52524E+03 -8.53896E+03 -4.40588E+03 -4.19010E+03 -9.88555E+03  1.62676E+03 -1.06710E+04
  6.96544E+03 -7.03624E+03  7.40903E+03  1.10600E+02  6.35651E+03  3.17684E+03  2.51579E+02  5.76416E+03
 -3.23091E+03  1.66628E+03 -4.75020E+03 -3.85205E+03  2.56041E+03 -8.75999E+03  8.85222E+03 -7.13692E+03
  1.26157E+04  4.29945E+02  1.24551E+04  8.70271E+03  3.29973E+03  1.29567E+04 -4.74174E+03  1.24492E+04
 -1.09664E+04  5.27768E+03 -1.08582E+04 -1.86670E+03 -6.91531E+03 -8.00128E+03  1.65222E+03 -8.04849E+03
  7.00860E+03 -3.99378E+03  7.69037E+03  4.20923E+03  2.47028E+03  6.16860E+03 -1.05375E+03  6.84413E+03
 -2.43800E+03  3.30873E+03 -3.04213E+03  7.26934E+02 -1.00543E+03  1.55047E+03 -1.73127E+03  2.87326E+03
 -3.23598E+03  5.09205E+03 -8.07266E+03  4.77686E+03 -1.30123E+04 -3.14559E+02 -1.45448E+04 -8.41563E+03
 -7.15112E+03 -1.66139E+04  3.34670E+03 -2.01002E+04  1.26543E+04 -1.58085E+04  1.84044E+04 -5.45541E+03
  1.80352E+04  3.27492E+03  1.10445E+04  1.14474E+04  1.65864E+03  1.37159E+04 -5.23592E+03  1.02776E+04
 -8.34797E+03  3.66226E+03 -4.28419E+03 -6.40040E+02 -1.96950E+03 -1.26531E+03 -2.71348E+02 -1.59889E+00
 -1.84000E+03  7.72336E+02 -1.92222E+03 -8.53515E+02 -1.73729E+03 -2.98147E+03  7.40717E+02 -5.66645E+03
  7.05276E+03 -3.73367E+03  8.33433E+03 -1.31081E+02  9.45938E+03  7.03109E+03  3.41301E+03  1.40730E+04
 -7.06627E+03  1.62317E+04 -1.46576E+04  9.58363E+03 -1.70947E+04 -9.67466E+02 -1.26410E+04 -1.03679E+04
 -4.88228E+03 -1.39161E+04  4.56992E+03 -1.25623E+04  9.04329E+03 -6.75788E+03  9.07638E+03  6.51794E+02
  5.01893E+03  4.74532E+03  3.16113E+01  4.53491E+03 -2.29703E+03 -4.83571E+02  1.42940E+02 -3.29456E+03
  4.01964E+03 -3.02994E+03  6.24811E+03  2.35702E+03  3.83211E+03  4.84941E+03  4.57843E+02  7.18182E+03
 -5.98872E+03  5.66587E+03 -8.65485E+03  2.83882E+02 -9.13964E+03 -6.34222E+03 -1.88802E+03 -1.14355E+04
  7.46397E+03 -1.01167E+04  1.06909E+04 -2.06314E+03  1.03558E+04  3.37536E+03  5.90077E+03  8.85181E+03
  9.20959E+02  9.66986E+03 -3.79868E+03  7.06245E+03 -5.42883E+03  4.31444E+03 -5.48814E+03  9.28612E+02
 -2.93652E+03 -7.75032E+02 -2.19887E+03  2.28251E+03 -4.31938E+03  1.84249E+03 -6.83391E+03 -1.60920E+03
 -7.38368E+03 -5.55852E+03 -2.04028E+03 -9.75137E+03  3.35125E+03 -9.81299E+03  8.88903E+03 -5.21008E+03
  9.06457E+03  1.58706E+03  5.15498E+03  7.18953E+03 -8.89302E+02  9.55852E+03 -5.61115E+03  6.58948E+03
