 $NMID ID='MM_0lb_SNR400_10hz_g45_97.RAW', FMTDAT='(8E13.5)'
 TRAMP=1., VOLUME=1. $END
  3.10717E+05  4.49895E+02  3.37211E+05  2.50152E+05  8.44559E+04  3.37615E+05 -1.32637E+05  2.51524E+05
 -1.90219E+05  8.35584E+04 -1.12678E+05 -3.25737E+04  6.15323E+02 -5.03780E+04  5.44013E+04 -5.77921E+02
  3.54710E+04  5.30395E+04 -1.69909E+04  7.66197E+04 -6.10935E+04  6.39934E+04 -8.51537E+04  3.17444E+04
 -8.18021E+04 -1.14565E+04 -5.72000E+04 -5.18173E+04 -1.55649E+04 -7.11081E+04  2.81229E+04 -4.65078E+04
  4.05243E+04  3.76683E+03  1.73692E+04  4.88562E+04 -3.50934E+04  4.83616E+04 -6.84445E+04  7.36656E+02
 -5.47077E+04 -5.77459E+04 -7.30545E+03 -7.87336E+04  3.42000E+04 -5.66186E+04  4.94101E+04 -1.78926E+04
  4.48779E+04  1.12661E+04  3.27413E+04  2.54121E+04  1.59856E+04  3.02365E+04 -5.90586E+03  2.82577E+04
 -2.21015E+04  1.28914E+04 -1.82181E+04 -5.73830E+03  6.51972E+03 -7.71661E+03  2.33590E+04  1.30455E+04
  6.90385E+03  3.66952E+04 -3.30611E+04  3.63130E+04 -6.44601E+04  2.45942E+03 -5.76599E+04 -4.43062E+04
 -1.21120E+04 -6.48443E+04  4.09620E+04 -4.58788E+04  6.01184E+04 -2.31002E+03  3.53647E+04  3.39453E+04
 -5.85085E+03  3.88844E+04 -3.17614E+04  1.85528E+04 -3.27266E+04 -4.26853E+03 -1.86305E+04 -1.20077E+04
 -9.44010E+03 -1.52724E+04 -7.03497E+02 -1.82965E+04  7.82206E+03 -2.24412E+04  1.49787E+04 -1.30447E+04
  1.02952E+04  6.17069E+03 -9.69142E+03  1.23687E+04 -2.25130E+04 -5.65391E+03 -8.38492E+03 -3.62259E+04
  2.47864E+04 -4.61956E+04  5.10288E+04 -2.00143E+04  4.76650E+04  2.07024E+04  1.68342E+04  4.61407E+04
 -1.65369E+04  3.61971E+04 -2.68450E+04  2.17404E+03 -1.07161E+04 -2.88563E+04  2.12889E+04 -3.60516E+04
  4.29591E+04 -1.12227E+04  3.85607E+04  2.59987E+04  2.06340E+04  5.03768E+04 -8.16047E+03  5.42612E+04
 -3.41727E+04  3.65313E+04 -4.53119E+04  1.07388E+04 -4.58850E+04 -1.78296E+04 -2.54594E+04 -4.15035E+04
  7.69948E+03 -4.05284E+04  3.35491E+04 -1.60016E+04  3.13392E+04  1.13785E+04  5.09284E+03  2.04267E+04
 -1.38558E+04  9.68167E+03 -1.07540E+04 -8.08736E+03  5.77516E+03 -1.02802E+04  1.82784E+04  5.75529E+03
  1.46323E+04  2.27748E+04 -5.01228E+03  2.61280E+04 -2.26670E+04  1.30464E+04 -3.05606E+04 -3.45984E+03
 -2.42150E+04 -1.72422E+04 -1.12723E+04 -2.32046E+04  4.01827E+03 -2.42856E+04  1.82533E+04 -2.15407E+04
  3.03819E+04 -1.40465E+04  3.67238E+04  4.34149E+03  2.61563E+04  2.26084E+04  4.36035E+03  3.94478E+04
 -1.92497E+04  3.29061E+04 -3.00515E+04  1.02997E+04 -2.12523E+04 -1.03604E+04 -3.66042E+03 -1.33132E+04
  9.76599E+02 -6.73031E+02 -7.02457E+03  7.58628E+03 -1.86924E+04  5.26878E+03 -1.90362E+04 -8.81146E+03
 -1.15591E+04 -2.18518E+04  6.06690E+03 -2.63902E+04  1.82229E+04 -1.90689E+04  2.18017E+04 -1.46357E+03
  1.37682E+04  1.52436E+04 -1.06716E+03  2.20120E+04 -1.52616E+04  1.24686E+04 -2.24257E+04 -3.76070E+03
 -1.63052E+04 -1.96490E+04 -1.99331E+03 -2.62341E+04  1.14497E+04 -2.16519E+04  2.21810E+04 -1.08790E+04
  2.05012E+04 -2.41483E+02  1.48298E+04  4.57025E+03  8.62421E+03  1.45309E+03  1.15833E+04 -1.87706E+03
  2.07225E+04  2.35146E+03  2.32009E+04  1.70596E+04  1.59304E+04  3.49699E+04 -2.66174E+03  4.16153E+04
 -2.39333E+04  3.42877E+04 -3.88864E+04  1.73686E+04 -4.18370E+04 -3.15342E+03 -3.25961E+04 -2.44490E+04
 -1.37681E+04 -3.43201E+04  1.22866E+04 -3.08261E+04  2.58200E+04 -1.43015E+04  2.24817E+04  6.59298E+03
  7.68886E+03  1.73155E+04 -1.03349E+04  1.42384E+04 -1.88451E+04  2.56725E+03 -1.51507E+04 -1.16222E+04
 -1.66388E+02 -1.86236E+04  9.88914E+03 -1.30062E+04  1.32107E+04 -1.68993E+03  2.86488E+03  7.15433E+03
 -8.13431E+03  4.56431E+03 -7.77490E+03 -7.35122E+03 -1.50479E+03 -1.64664E+04  1.08590E+04 -1.80907E+04
  2.11956E+04 -9.89414E+03  2.33195E+04  2.72665E+03  2.12672E+04  1.71313E+04  8.88948E+03  2.63849E+04
 -5.38184E+03  2.80501E+04 -1.83260E+04  1.74516E+04 -2.06302E+04  3.45629E+03 -1.47166E+04 -4.91560E+03
 -6.09903E+03 -7.87100E+03 -1.05418E+03  4.99376E+02 -2.24779E+03  2.82722E+03 -6.24966E+03  4.91692E+03
 -1.33239E+04 -5.56091E+02 -1.31539E+04 -1.08739E+04 -5.38060E+03 -1.84836E+04  5.83935E+03 -1.42802E+04
  1.17970E+04 -6.30123E+03  8.26000E+03  4.48416E+03 -3.30258E+02  5.95795E+03 -7.17325E+03 -4.48196E+02
 -6.94774E+03 -9.60468E+03 -1.80600E+03 -1.41628E+04  8.25725E+03 -1.43534E+04  1.90813E+04 -8.28070E+03
  2.12727E+04  2.21936E+03  1.58379E+04  1.25251E+04  3.01646E+03  1.71793E+04 -9.39369E+03  1.41952E+04
 -1.18911E+04  3.74885E+03 -5.97690E+03 -2.92813E+03  2.23254E+03 -3.78581E+03  7.92441E+03 -7.47158E+02
  6.86619E+03  6.44849E+03  7.69480E+02  1.21637E+04 -8.63324E+03  1.08380E+04 -1.40832E+04  3.25053E+03
 -9.78498E+03 -7.35142E+03  1.87782E+02 -1.21085E+04  7.97563E+03 -5.54518E+03  8.28192E+03  2.46309E+03
  1.96339E+03  8.48671E+03 -8.16888E+03  9.40365E+03 -1.24265E+04  4.22464E+03 -1.15159E+04 -4.28979E+03
 -7.53286E+03 -1.41213E+04  3.39841E+03 -1.65408E+04  1.35219E+04 -9.09266E+03  1.50508E+04  2.77578E+03
  8.58589E+03  1.22719E+04 -9.73880E+02  1.40362E+04 -1.00206E+04  7.57570E+03 -1.15929E+04 -1.12542E+03
 -9.48459E+03 -9.62425E+03 -1.74915E+03 -1.09435E+04  5.43829E+03 -8.67247E+03  6.62712E+03 -3.84416E+03
  4.92458E+03  1.68825E+03 -9.39652E+02  1.71660E+03 -2.95938E+02 -2.72544E+03  2.20170E+03 -6.33286E+03
  1.01825E+04 -3.95314E+03  1.38020E+04  1.76615E+03  1.34812E+04  9.52288E+03  9.64935E+03  1.85242E+04
 -4.64562E+03  2.09491E+04 -1.76107E+04  1.52640E+04 -2.24678E+04  3.36566E+03 -1.84799E+04 -7.69849E+03
 -9.69579E+03 -1.53499E+04  2.71798E+02 -1.31664E+04  4.94804E+03 -7.39855E+03  4.89781E+03 -4.70112E+03
  3.75410E+03 -2.77544E+03  3.17109E+03 -4.11131E+03  5.28887E+03 -2.80103E+03  7.42869E+03 -1.32975E+03
  9.49184E+03  2.46000E+03  4.90661E+03  7.91470E+03 -3.07209E+03  9.72909E+03 -1.05042E+04  7.60666E+03
 -1.28216E+04 -1.03966E+03 -8.08430E+03 -8.99243E+03 -3.18855E+02 -1.36624E+04  7.40640E+03 -1.40733E+04
  1.42850E+04 -7.08346E+03  1.73243E+04  2.39766E+03  1.11537E+04  1.15262E+04  2.73440E+03  1.54540E+04
 -6.75952E+03  1.28183E+04 -9.72237E+03  4.45826E+03 -6.48886E+03 -2.14336E+03 -2.82850E+03 -1.13803E+03
 -1.03598E+03 -1.31975E+02 -2.19937E+03  3.27562E+03 -5.80115E+03  1.89981E+03 -9.15531E+03 -1.05001E+03
 -6.50536E+03 -8.64520E+03 -1.16198E+02 -1.24674E+04  7.78038E+03 -1.17705E+04  1.27853E+04 -3.09741E+03
  1.25915E+04  6.33929E+03  6.10465E+03  1.10321E+04 -2.10330E+03  1.29015E+04 -9.73226E+03  8.30978E+03
 -1.25055E+04  7.08211E+02 -9.21837E+03 -7.73178E+03 -1.31803E+03 -1.08970E+04  4.94480E+03 -8.64840E+03
  7.52796E+03 -2.28264E+03  5.01220E+03  2.11955E+03  2.25945E+03  3.77898E+03  8.99968E+02  1.56200E+03
  2.31518E+03  4.30830E+02  2.92132E+03  2.67486E+03  3.80787E+03  4.32173E+03  3.07509E+03  7.00853E+03
 -3.10328E+03  1.00491E+04 -8.88209E+03  9.52810E+03 -1.25316E+04  3.09361E+03 -1.38729E+04 -5.47104E+03
 -6.73604E+03 -1.31703E+04  1.81604E+03 -1.37706E+04  8.05846E+03 -8.80649E+03  1.03576E+04 -2.65974E+03
  8.21770E+03  4.89902E+03  2.24487E+03  7.34734E+03 -3.80526E+03  5.31650E+03 -4.51131E+03 -1.30356E+02
 -2.48552E+03 -5.72939E+03  2.78954E+03 -5.95043E+03  5.14448E+03 -3.18581E+03  5.55043E+03  1.25375E+03
  3.44878E+03  2.07681E+03  1.17046E+03  2.25592E+03 -3.22969E+02  1.63894E+03  1.33133E+03 -4.65722E+02
  1.95496E+03 -1.84272E+02  5.48457E+03  2.02273E+03  2.19838E+03  6.40454E+03 -2.12423E+03  8.85163E+03
 -6.26486E+03  5.67358E+03 -7.49046E+03  2.18206E+03 -7.68514E+03 -3.14296E+03 -2.67555E+03 -4.92139E+03
  8.37807E+02 -4.74347E+03  3.79722E+03 -2.95433E+03  3.42611E+03  2.24495E+03 -2.12639E+03  3.83725E+03
 -5.27018E+03  2.51787E+03 -5.97542E+03 -3.71271E+03 -3.26327E+03 -6.90751E+03  1.30557E+03 -6.57696E+03
  4.05083E+03 -4.42962E+03  5.16689E+03 -1.05995E+03  4.69519E+03  2.36871E+03  1.44632E+03  3.48987E+03
 -3.09003E+03  9.57113E+02 -3.49687E+03 -2.19058E+03  1.12134E+03 -5.35319E+03  6.44007E+03 -4.36710E+03
  8.38828E+03  8.81887E+02  8.07982E+03  4.56442E+03  3.43502E+03  8.48161E+03 -2.87312E+03  7.82396E+03
 -6.25846E+03  3.02395E+03 -6.76976E+03 -1.26843E+03 -3.80713E+03 -5.02349E+03  1.02882E+03 -4.86404E+03
  5.00758E+03 -2.66054E+03  3.81813E+03  1.96671E+03  1.76530E+03  4.32526E+03 -6.95390E+02  3.79569E+03
 -2.25046E+03  2.69181E+03 -1.87889E+03  8.19815E+02 -9.06752E+02  3.62911E+02 -1.14765E+03  1.95778E+03
 -3.06171E+03  2.74663E+03 -4.89033E+03  2.47918E+03 -7.91022E+03  2.18091E+02 -8.86740E+03 -6.04004E+03
 -5.60892E+03 -1.14060E+04  1.87107E+03 -1.24981E+04  7.16787E+03 -1.00028E+04  1.11598E+04 -3.43555E+03
  1.12079E+04  2.39131E+03  6.79105E+03  7.34779E+03  1.64891E+03  8.61893E+03 -3.11963E+03  5.96455E+03
 -5.18078E+03  2.41294E+03 -2.57310E+03 -1.41028E+03 -4.85810E+02 -8.63030E+02 -1.26322E+02  8.15490E+01
 -1.61645E+03  4.73587E+02 -2.24217E+03 -1.06821E+03 -2.01179E+02 -1.81124E+03  7.84638E+02 -3.30841E+03
  4.50342E+03 -2.58039E+03  5.22177E+03  4.19593E+01  5.79493E+03  5.69726E+03  7.99805E+02  8.58019E+03
 -4.08908E+03  1.00946E+04 -8.89932E+03  6.46356E+03 -1.04201E+04 -5.56180E+02 -8.17717E+03 -6.02080E+03
 -3.20855E+03 -9.02023E+03  2.66703E+03 -7.74384E+03  5.28259E+03 -4.61980E+03  5.53949E+03 -2.84192E+02
  3.58629E+03  2.68163E+03 -4.05044E+02  2.16294E+03 -1.84894E+03 -5.19734E+02 -3.39337E+02 -1.41590E+03
  2.45503E+03 -2.25265E+02  4.03694E+03  1.21082E+03  2.46628E+03  3.29549E+03  3.82458E+02  3.89614E+03
 -3.02534E+03  3.98116E+03 -5.79769E+03 -1.11469E+02 -4.40893E+03 -4.28838E+03 -8.65645E+02 -6.75325E+03
  3.24793E+03 -6.00577E+03  6.25942E+03 -1.94684E+03  6.28684E+03  2.45419E+03  2.99367E+03  4.97833E+03
  7.96731E+02  5.59739E+03 -2.05263E+03  4.56506E+03 -3.90315E+03  2.31233E+03 -2.97471E+03  6.84636E+01
 -1.46958E+03  7.55349E-01 -1.34698E+03  1.12174E+03 -3.49891E+03  2.64075E+02 -4.36091E+03 -6.96512E+02
 -4.48309E+03 -3.31863E+03 -2.15685E+03 -5.15423E+03  2.83045E+03 -5.70817E+03  5.31289E+03 -2.76036E+03
  4.83505E+03  1.08472E+03  3.00825E+03  3.64614E+03 -6.51140E+02  5.78732E+03 -4.49531E+03  3.91332E+03
