 $NMID ID='MM_0lb_SNR400_9hz_g40_49.RAW', FMTDAT='(8E13.5)'
 TRAMP=1., VOLUME=1. $END
  3.09641E+05  6.21695E+02  3.37595E+05  2.50343E+05  8.46195E+04  3.38774E+05 -1.32446E+05  2.51544E+05
 -1.90844E+05  8.36168E+04 -1.12956E+05 -3.23119E+04  4.77936E+02 -5.01997E+04  5.38332E+04 -4.72198E+02
  3.56691E+04  5.35893E+04 -1.64662E+04  7.58829E+04 -6.11132E+04  6.40583E+04 -8.47032E+04  3.21503E+04
 -8.20274E+04 -1.16648E+04 -5.75906E+04 -5.16183E+04 -1.56173E+04 -7.09890E+04  2.86356E+04 -4.67696E+04
  4.11388E+04  3.81356E+03  1.72595E+04  4.86776E+04 -3.48357E+04  4.80579E+04 -6.78210E+04 -6.33616E+02
 -5.48991E+04 -5.68879E+04 -7.64859E+03 -7.85271E+04  3.39444E+04 -5.69049E+04  5.00634E+04 -1.77354E+04
  4.55266E+04  1.13500E+04  3.22051E+04  2.65085E+04  1.62021E+04  3.09556E+04 -5.91208E+03  2.78626E+04
 -2.23300E+04  1.15997E+04 -1.85294E+04 -6.03842E+03  7.10184E+03 -7.05015E+03  2.28126E+04  1.36110E+04
  7.57308E+03  3.77293E+04 -3.40426E+04  3.60292E+04 -6.49452E+04  2.62827E+03 -5.82659E+04 -4.40169E+04
 -1.25476E+04 -6.51626E+04  4.12582E+04 -4.66244E+04  6.09328E+04 -1.85322E+03  3.63669E+04  3.40519E+04
 -5.04741E+03  3.94043E+04 -3.08203E+04  1.76751E+04 -3.27005E+04 -3.24551E+03 -1.82574E+04 -1.11535E+04
 -8.33885E+03 -1.49982E+04 -8.56998E+02 -2.01798E+04  8.29893E+03 -2.36008E+04  1.60835E+04 -1.38579E+04
  1.02845E+04  5.37316E+03 -1.00193E+04  1.31423E+04 -2.35908E+04 -5.75534E+03 -9.07897E+03 -3.66203E+04
  2.45237E+04 -4.61666E+04  5.13905E+04 -1.96058E+04  4.77608E+04  2.03337E+04  1.77469E+04  4.61145E+04
 -1.62349E+04  3.51467E+04 -2.72924E+04  2.33070E+03 -1.11474E+04 -2.93821E+04  2.10195E+04 -3.67132E+04
  4.44353E+04 -1.07291E+04  3.96454E+04  2.53073E+04  1.95786E+04  4.96752E+04 -8.95748E+03  5.49003E+04
 -3.53224E+04  3.68170E+04 -4.60573E+04  1.11448E+04 -4.68072E+04 -1.84270E+04 -2.57092E+04 -4.12997E+04
  7.54027E+03 -4.09498E+04  3.38744E+04 -1.66345E+04  3.14546E+04  1.12187E+04  5.63072E+03  2.10460E+04
 -1.36850E+04  9.04738E+03 -1.10665E+04 -7.31193E+03  6.08715E+03 -1.11493E+04  1.82068E+04  5.16640E+03
  1.46955E+04  2.27341E+04 -5.01385E+03  2.65375E+04 -2.39059E+04  1.38180E+04 -3.08776E+04 -2.95683E+03
 -2.39835E+04 -1.83559E+04 -1.13738E+04 -2.41380E+04  4.13924E+03 -2.50585E+04  1.89524E+04 -2.22334E+04
  3.10474E+04 -1.39550E+04  3.69168E+04  4.53662E+03  2.65825E+04  2.33552E+04  4.03544E+03  4.02537E+04
 -1.84327E+04  3.37113E+04 -3.05826E+04  1.21035E+04 -2.24903E+04 -9.66184E+03 -4.58626E+03 -1.20499E+04
  1.73941E+03 -1.46980E+03 -7.56953E+03  8.04094E+03 -1.99200E+04  5.00113E+03 -1.90155E+04 -8.83209E+03
 -1.14677E+04 -2.24173E+04  5.42109E+03 -2.66694E+04  1.78372E+04 -1.97450E+04  2.18082E+04 -2.51908E+03
  1.39263E+04  1.52290E+04 -1.17994E+03  2.26082E+04 -1.60916E+04  1.31847E+04 -2.31182E+04 -4.54084E+03
 -1.65286E+04 -1.96458E+04 -2.17018E+03 -2.76517E+04  1.24829E+04 -2.18633E+04  2.29690E+04 -1.14726E+04
  2.11947E+04 -4.66575E+02  1.56164E+04  5.26690E+03  8.11402E+03  1.47564E+03  1.15667E+04 -1.56942E+03
  2.10014E+04  3.00936E+03  2.41490E+04  1.84570E+04  1.64420E+04  3.67732E+04 -2.36499E+03  4.28592E+04
 -2.43909E+04  3.48068E+04 -3.99252E+04  1.80527E+04 -4.25874E+04 -3.26430E+03 -3.48090E+04 -2.48289E+04
 -1.45264E+04 -3.50583E+04  1.25572E+04 -3.07631E+04  2.65724E+04 -1.48910E+04  2.35141E+04  7.60918E+03
  8.21703E+03  1.81312E+04 -1.09790E+04  1.50967E+04 -2.06591E+04  2.73786E+03 -1.43105E+04 -1.28455E+04
 -3.56119E+02 -1.86332E+04  9.18504E+03 -1.34434E+04  1.24716E+04 -9.65343E+02  3.48556E+03  8.17706E+03
 -8.09202E+03  3.87755E+03 -8.53546E+03 -7.47109E+03 -1.56117E+03 -1.74973E+04  1.11755E+04 -1.85515E+04
  2.14412E+04 -1.12422E+04  2.40366E+04  1.97681E+03  2.16608E+04  1.75959E+04  1.00468E+04  2.73863E+04
 -5.34119E+03  2.94441E+04 -1.87796E+04  1.83773E+04 -2.11717E+04  3.12672E+03 -1.53757E+04 -5.01722E+03
 -6.30980E+03 -6.90130E+03 -6.00718E+02 -4.58084E+01 -3.23395E+03  2.68114E+03 -7.02898E+03  5.38718E+03
 -1.33821E+04 -6.09534E+02 -1.38989E+04 -1.17558E+04 -6.38934E+03 -1.87273E+04  6.26904E+03 -1.46614E+04
  1.22803E+04 -6.07313E+03  8.51186E+03  3.72000E+03 -2.73321E+02  6.41744E+03 -6.76351E+03  4.66398E+02
 -6.10800E+03 -9.42989E+03 -2.23874E+03 -1.44254E+04  8.76422E+03 -1.56669E+04  1.88946E+04 -8.65207E+03
  2.24421E+04  2.15943E+03  1.61515E+04  1.38608E+04  4.13465E+03  1.78599E+04 -9.03936E+03  1.49707E+04
 -1.20342E+04  4.27500E+03 -6.51722E+03 -3.59908E+03  1.98397E+03 -3.88571E+03  7.73204E+03 -1.60984E+03
  6.96307E+03  6.48939E+03  1.36925E+03  1.22272E+04 -9.00119E+03  1.12956E+04 -1.48447E+04  3.03226E+03
 -9.76148E+03 -8.08262E+03  4.65523E+02 -1.30777E+04  8.82916E+03 -6.70015E+03  9.12465E+03  3.06165E+03
  2.54609E+03  8.97544E+03 -7.84148E+03  1.15976E+04 -1.23070E+04  3.91469E+03 -1.22271E+04 -4.51263E+03
 -7.51762E+03 -1.52456E+04  3.87158E+03 -1.74709E+04  1.44464E+04 -1.11290E+04  1.61911E+04  2.89821E+03
  9.61894E+03  1.26842E+04 -9.75498E+02  1.46752E+04 -1.09286E+04  8.43803E+03 -1.13645E+04 -1.27410E+03
 -1.06102E+04 -9.75773E+03 -2.21050E+03 -1.12682E+04  5.76716E+03 -8.64643E+03  7.27701E+03 -3.64249E+03
  4.90006E+03  2.20115E+03 -9.02716E+02  1.30526E+03 -6.10668E+02 -3.06000E+03  2.22664E+03 -7.29542E+03
  1.12268E+04 -4.18696E+03  1.55832E+04  2.15801E+03  1.47036E+04  9.68520E+03  9.69424E+03  2.00385E+04
 -4.80509E+03  2.30195E+04 -1.87039E+04  1.64896E+04 -2.47721E+04  3.30410E+03 -2.01175E+04 -9.05291E+03
 -9.75702E+03 -1.62716E+04  2.81521E+01 -1.40917E+04  5.51277E+03 -7.31090E+03  5.17630E+03 -4.56828E+03
  3.36914E+03 -2.78980E+03  4.07720E+03 -3.70456E+03  4.87815E+03 -3.62349E+03  7.33418E+03 -1.03674E+03
  1.04015E+04  3.54526E+03  5.45838E+03  8.45669E+03 -1.38732E+03  1.08143E+04 -1.11458E+04  8.73059E+03
 -1.37133E+04 -8.11047E+02 -8.65001E+03 -1.04782E+04 -1.50446E+03 -1.48964E+04  8.78418E+03 -1.46234E+04
  1.57117E+04 -7.62316E+03  1.76948E+04  2.76181E+03  1.31653E+04  1.26319E+04  2.06881E+03  1.62790E+04
 -7.17608E+03  1.36880E+04 -9.42264E+03  4.56356E+03 -6.63710E+03 -6.24863E+02 -3.33945E+03 -2.51943E+03
 -1.25159E+03  1.38093E+02 -3.01560E+03  2.93680E+03 -5.34403E+03  2.05829E+03 -1.06130E+04 -1.93671E+03
 -6.51983E+03 -9.16601E+03  3.84328E+02 -1.43171E+04  8.39247E+03 -1.24676E+04  1.35136E+04 -3.18226E+03
  1.36901E+04  6.56800E+03  6.59345E+03  1.28808E+04 -2.46850E+03  1.38477E+04 -1.05733E+04  8.98358E+03
 -1.26808E+04  3.87636E+01 -1.02698E+04 -8.34144E+03 -1.39397E+03 -1.13994E+04  5.67170E+03 -8.48147E+03
  8.51244E+03 -2.46920E+03  5.77683E+03  2.65230E+03  1.65798E+03  4.06208E+03  1.56757E+03  1.68504E+03
  1.71938E+03  1.42031E+03  3.44667E+03  1.45910E+03  4.06826E+03  4.74974E+03  3.75891E+03  7.37401E+03
 -2.31697E+03  1.14515E+04 -9.44097E+03  1.12526E+04 -1.47999E+04  3.13570E+03 -1.55003E+04 -5.67428E+03
 -7.85900E+03 -1.42781E+04  2.19152E+03 -1.58959E+04  8.46584E+03 -1.00090E+04  1.16891E+04 -3.35768E+03
  8.28187E+03  5.04464E+03  1.99620E+03  8.23685E+03 -3.70693E+03  5.15599E+03 -5.49521E+03 -1.20567E+03
 -2.09500E+03 -6.30559E+03  3.70276E+03 -5.70080E+03  5.98312E+03 -2.87556E+03  5.64413E+03  2.16557E+03
  2.76838E+03  2.02256E+03  8.74023E+02  2.74032E+03 -1.57918E+02  2.71931E+03  1.28980E+03 -3.41132E+02
  2.81683E+03 -1.15129E+03  5.73434E+03  2.40433E+03  3.89861E+03  8.08203E+03 -1.11448E+03  9.86248E+03
 -6.86439E+03  6.26913E+03 -1.01270E+04  1.65326E+03 -7.66039E+03 -2.72101E+03 -3.23926E+03 -4.88180E+03
  1.03797E+03 -5.04403E+03  4.08675E+03 -3.35595E+03  3.33027E+03  2.79662E+03 -1.43500E+03  5.15147E+03
 -5.61411E+03  2.31357E+03 -6.27491E+03 -4.11470E+03 -3.62900E+03 -7.45103E+03  1.09957E+03 -7.83195E+03
  4.89518E+03 -5.19422E+03  5.80028E+03 -1.76506E+02  4.85788E+03  1.70002E+03  1.06147E+03  4.23188E+03
 -3.41008E+03  8.00967E+02 -4.05637E+03 -3.28011E+03  1.21595E+03 -5.75218E+03  6.93120E+03 -5.23821E+03
  9.13768E+03  4.42574E+02  8.75007E+03  5.69925E+03  3.22015E+03  9.53544E+03 -3.35368E+03  8.40463E+03
 -8.00431E+03  2.98293E+03 -8.03585E+03 -1.43155E+03 -4.15519E+03 -6.03122E+03  1.10284E+03 -5.38145E+03
  5.11283E+03 -3.19485E+03  4.41549E+03  2.39035E+03  1.71662E+03  4.45770E+03 -8.20516E+02  4.08367E+03
 -2.44914E+03  3.17584E+03 -2.67220E+03  1.73491E+03 -4.42742E+02  9.93389E+02 -2.10659E+03  1.99725E+03
 -2.82689E+03  3.50842E+03 -6.09112E+03  3.12804E+03 -9.12804E+03 -2.13401E+01 -1.04800E+04 -6.35118E+03
 -5.80705E+03 -1.20196E+04  1.82235E+03 -1.44268E+04  8.94816E+03 -1.08477E+04  1.32791E+04 -5.18854E+03
  1.32654E+04  2.33741E+03  7.86063E+03  8.63334E+03  8.44606E+02  9.90099E+03 -3.58383E+03  7.27310E+03
 -5.38739E+03  2.49756E+03 -3.48429E+03 -1.04321E+03 -7.62109E+02 -4.80242E+02 -1.02535E+03 -5.57895E+02
 -7.22720E+02  6.34844E+02 -2.39081E+03 -1.28765E+03 -1.42604E+02 -2.70242E+03  3.13472E+02 -4.09620E+03
  4.22850E+03 -3.39004E+03  6.09311E+03  4.80201E+02  7.01601E+03  5.35254E+03  2.00565E+03  9.98839E+03
 -4.55789E+03  1.04106E+04 -1.02734E+04  6.01799E+03 -1.22173E+04 -8.20823E+02 -9.10606E+03 -7.00739E+03
 -3.99236E+03 -9.73230E+03  1.83920E+03 -8.98038E+03  6.41417E+03 -5.43662E+03  6.03732E+03  3.32504E+02
  2.93241E+03  3.20293E+03 -3.78973E+02  3.23080E+03 -1.67291E+03 -7.80263E+02  7.28666E+02 -2.68282E+03
  3.14675E+03 -5.52132E+02  4.38605E+03  1.73507E+03  1.91888E+03  4.20928E+03 -5.76310E+02  5.01386E+03
 -4.26376E+03  4.80248E+03 -6.07287E+03  1.09741E+03 -5.70830E+03 -5.77763E+03 -7.19239E+02 -8.79333E+03
  4.66037E+03 -7.63369E+03  7.99227E+03 -2.09189E+03  7.77554E+03  2.56872E+03  4.85468E+03  5.69891E+03
  1.37674E+03  7.14323E+03 -2.53814E+03  4.81301E+03 -4.21316E+03  3.27105E+03 -3.43629E+03  8.98603E+02
 -2.64866E+03 -1.57656E+01 -1.39020E+03  1.46311E+03 -3.14233E+03  1.54126E+03 -5.35323E+03 -6.97322E+02
 -4.77956E+03 -3.97624E+03 -2.32317E+03 -7.01484E+03  2.90176E+03 -6.99174E+03  5.96915E+03 -2.72890E+03
  6.95763E+03  5.82903E+02  4.03043E+03  5.19682E+03 -6.14459E+02  6.67786E+03 -4.93648E+03  4.76484E+03
