 $NMID ID='MM_0lb_SNR400_20hz_g45_86.RAW', FMTDAT='(8E13.5)'
 TRAMP=1., VOLUME=1. $END
  3.09551E+05  8.64531E+02  3.37306E+05  2.49711E+05  8.42889E+04  3.36624E+05 -1.32299E+05  2.49745E+05
 -1.89891E+05  8.24027E+04 -1.11001E+05 -3.30809E+04  1.85330E+03 -5.01055E+04  5.38211E+04  4.58069E+02
  3.49590E+04  5.33110E+04 -1.70772E+04  7.46418E+04 -6.03040E+04  6.29269E+04 -8.25336E+04  3.14388E+04
 -7.92031E+04 -1.04773E+04 -5.56469E+04 -4.94629E+04 -1.47785E+04 -6.77948E+04  2.65536E+04 -4.46444E+04
  3.89630E+04  4.10764E+03  1.52913E+04  4.68395E+04 -3.38239E+04  4.58858E+04 -6.50188E+04 -2.55691E+02
 -5.13518E+04 -5.58256E+04 -6.54163E+03 -7.46825E+04  3.28072E+04 -5.24825E+04  4.54273E+04 -1.59482E+04
  4.08864E+04  1.05260E+04  3.03063E+04  2.41467E+04  1.58533E+04  2.81806E+04 -4.39915E+03  2.68224E+04
 -2.18458E+04  1.29021E+04 -1.87304E+04 -4.27228E+03  3.46228E+03 -7.12366E+03  2.08396E+04  1.05250E+04
  7.51379E+03  3.28936E+04 -3.00184E+04  3.36580E+04 -6.02756E+04  2.70312E+03 -5.43878E+04 -4.09034E+04
 -1.22194E+04 -5.97273E+04  3.76895E+04 -4.26322E+04  5.42458E+04 -1.87473E+03  3.13648E+04  2.95989E+04
 -7.22307E+03  3.17363E+04 -2.79275E+04  1.23810E+04 -2.64999E+04 -5.96681E+03 -1.35541E+04 -9.84685E+03
 -6.95163E+03 -1.09159E+04 -1.18381E+03 -1.62580E+04  5.57044E+03 -2.24321E+04  1.45850E+04 -1.40454E+04
  1.28132E+04  3.90023E+03 -5.31085E+03  1.31646E+04 -1.82768E+04 -2.28961E+03 -7.80028E+03 -2.89767E+04
  1.97179E+04 -3.92722E+04  4.31563E+04 -1.82728E+04  4.05352E+04  1.79180E+04  1.41370E+04  4.07027E+04
 -1.50166E+04  3.00643E+04 -2.29409E+04  5.54687E+02 -7.29030E+03 -2.60889E+04  2.10121E+04 -3.03887E+04
  3.67948E+04 -7.03041E+03  2.96152E+04  2.26382E+04  1.43238E+04  4.11247E+04 -7.43344E+03  4.36766E+04
 -2.75188E+04  2.86522E+04 -3.58753E+04  7.26116E+03 -3.66614E+04 -1.46156E+04 -2.03757E+04 -3.27316E+04
  6.75527E+03 -3.29379E+04  2.77856E+04 -1.19154E+04  2.60633E+04  1.06717E+04  2.84811E+03  1.75165E+04
 -1.25556E+04  7.48993E+03 -9.12565E+03 -7.44908E+03  6.51062E+03 -9.33632E+03  1.77045E+04  7.04654E+03
  1.13544E+04  2.15086E+04 -6.84626E+03  2.29001E+04 -2.10975E+04  8.56694E+03 -2.36322E+04 -7.13204E+03
 -1.52342E+04 -1.62299E+04 -5.02803E+03 -1.57510E+04  3.88121E+03 -1.30951E+04  1.12561E+04 -1.30814E+04
  1.94601E+04 -1.11781E+04  2.67259E+04  7.09967E+02  2.04855E+04  1.47660E+04  4.46987E+03  3.10060E+04
 -1.58941E+04  2.66064E+04 -2.48453E+04  9.07934E+03 -1.92736E+04 -1.09094E+04 -3.08820E+03 -1.41257E+04
  2.98347E+03 -4.67450E+03 -2.00878E+03  4.79601E+03 -1.21666E+04  5.73106E+03 -1.22835E+04 -3.27466E+03
 -8.11512E+03 -1.41842E+04  4.10198E+03 -1.82281E+04  1.16523E+04 -1.37037E+04  1.33654E+04 -1.15458E+03
  8.42491E+03  1.01937E+04 -1.14212E+03  1.47961E+04 -9.64088E+03  8.21497E+03 -1.41127E+04 -2.67828E+03
 -1.04030E+04 -1.31493E+04 -1.23242E+03 -1.71769E+04  7.71624E+03 -1.41175E+04  1.50359E+04 -6.31324E+03
  1.32806E+04  1.12130E+03  1.00436E+04  4.03887E+03  5.09006E+03  6.88037E+02  6.66545E+03 -9.57494E+02
  1.27302E+04  2.41903E+03  1.29427E+04  1.18119E+04  8.26946E+03  2.29547E+04 -3.22248E+03  2.46353E+04
 -1.50887E+04  1.84036E+04 -2.21767E+04  8.54498E+03 -2.22834E+04 -2.08454E+03 -1.92076E+04 -1.21809E+04
 -9.42084E+03 -1.79627E+04  5.86390E+03 -1.71334E+04  1.51458E+04 -1.01375E+04  1.43754E+04  3.11648E+03
  6.51767E+03  1.00349E+04 -6.67429E+03  9.35578E+03 -1.20909E+04  2.69123E+03 -9.80215E+03 -7.16746E+03
 -2.68332E+02 -1.16430E+04  5.44361E+03 -9.26614E+03  7.26803E+03 -1.25298E+03  1.03085E+03  4.30495E+03
 -4.66681E+03  9.55554E+02 -2.97423E+03 -4.73931E+03  1.00109E+03 -9.36241E+03  7.22326E+03 -8.89401E+03
  1.06539E+04 -3.86258E+03  1.03524E+04  2.97002E+03  8.98505E+03  8.09176E+03  4.36794E+03  1.20722E+04
 -1.01795E+03  1.38942E+04 -8.38354E+03  8.99898E+03 -9.91193E+03  3.06783E+03 -7.01024E+03 -1.71696E+03
 -4.14871E+03 -2.72038E+03 -4.78183E+02  1.90747E+03 -2.05743E+03  2.36050E+03 -3.45047E+03  3.19184E+03
 -7.23896E+03 -3.18811E+02 -7.80043E+03 -6.78508E+03 -3.26575E+03 -1.03405E+04  3.03481E+03 -7.65003E+03
  6.54530E+03 -3.36987E+03  5.00581E+03  1.52097E+03  4.55540E+02  2.30642E+03 -2.52755E+03 -5.03010E+02
 -2.98716E+03 -4.32919E+03 -6.17001E+02 -6.63284E+03  3.96008E+03 -6.74562E+03  8.71879E+03 -2.88747E+03
  1.03843E+04  9.31670E+02  7.69793E+03  5.53547E+03  1.58506E+03  7.16729E+03 -5.35322E+03  7.38104E+03
 -6.89125E+03  2.85814E+03 -3.47468E+03 -8.88045E+02  1.00497E+03 -1.45794E+03  4.18945E+03 -1.46841E+03
  3.97126E+03  3.00588E+03  1.09618E+03  5.60021E+03 -4.38431E+03  5.36761E+03 -7.23865E+03  1.42977E+03
 -4.35980E+03 -3.04339E+03  2.17988E+02 -5.86823E+03  2.92747E+03 -2.80072E+03  3.00009E+03  9.36206E+02
  6.05400E+02  2.60304E+03 -3.90910E+03  4.19906E+03 -3.86624E+03  1.64913E+03 -3.13825E+03 -1.08745E+03
 -2.78801E+03 -4.82990E+03  7.80134E+02 -5.72880E+03  5.29397E+03 -3.88931E+03  4.84982E+03  5.21501E+02
  3.99841E+03  3.79449E+03  3.18763E+02  6.42333E+03 -4.61785E+03  3.96919E+03 -4.27289E+03 -1.40491E+02
 -5.04607E+03 -4.79798E+03 -9.62258E+02 -4.33304E+03  2.31881E+03 -4.13376E+03  3.22921E+03 -3.12331E+03
  1.98328E+03  2.17680E+02 -6.38046E+01  6.07675E+02  8.65964E+02  1.09776E+02  1.99541E+02 -1.42017E+03
  2.79992E+03 -3.33700E+02  3.77586E+03  1.16366E+02  4.99551E+03  2.19109E+03  5.18945E+03  5.56106E+03
 -7.08507E+02  6.38171E+03 -6.62165E+03  5.71972E+03 -8.03738E+03  1.08685E+03 -6.60361E+03 -2.56311E+03
 -3.55332E+03 -5.27939E+03 -2.48953E+02 -4.58609E+03  1.62013E+03 -1.84207E+03  1.47718E+03 -1.98274E+03
  7.70314E+02 -1.54715E+03  1.41010E+03 -1.90322E+03  3.79008E+03 -1.28070E+03  3.44345E+03  5.02202E+02
  3.78145E+03  5.95781E+02  9.19056E+02  2.58371E+03 -1.00705E+03  2.30790E+03 -3.35032E+03  2.51321E+03
 -3.78483E+03 -9.74153E+02 -7.09057E+02 -2.99780E+03  4.42766E+02 -4.16564E+03  2.34496E+03 -4.51041E+03
  4.43942E+03 -2.76781E+03  5.19421E+03 -6.53374E+01  3.97757E+03  3.33826E+03  7.69553E+02  4.81276E+03
 -1.96162E+03  5.21158E+03 -2.77266E+03  2.16672E+03 -1.72028E+03 -9.25644E+02 -6.39849E+02 -5.58535E+02
 -2.51346E+02  7.24048E+02 -8.18263E+02  1.71521E+03 -2.25255E+03  1.29483E+03 -3.96957E+03  2.57133E+01
 -1.66795E+03 -3.54434E+03  5.81607E+02 -4.10018E+03  2.12866E+03 -3.82753E+03  2.08623E+03 -9.76433E+02
  2.84918E+03  1.60272E+03  1.16049E+03  2.82564E+03  5.85542E+01  3.59464E+03 -1.71886E+03  2.19987E+03
 -2.80787E+03  4.89963E+02 -3.02503E+03 -2.08971E+03 -2.66890E+02 -1.98819E+03  1.25623E+03 -2.42473E+03
  2.43999E+03 -7.53522E+02  1.63712E+03  1.72240E+02  6.20468E+01  8.95592E+02  5.98861E+02  8.53754E+02
  1.44944E+03  4.91440E+02  5.26175E+02  4.90104E+02  8.43373E+02  1.99083E+03  1.11839E+03  1.60942E+03
 -7.20148E+02  2.35223E+03 -1.41553E+03  3.93277E+03 -2.31598E+03  9.04581E+02 -3.60323E+03  6.22092E+00
 -1.47397E+03 -2.92970E+03  2.31079E+02 -3.91658E+03  1.04383E+03 -1.77868E+03  2.71441E+03 -5.58743E+02
  2.08132E+03  1.73648E+03  1.33238E+01  2.02121E+03 -7.75743E+02  4.47111E+02 -5.08505E+02 -3.11761E+02
 -8.32043E+02 -1.37575E+03  6.84297E+02 -1.28109E+03  1.14591E+03 -5.64660E+02  5.73514E+02  1.03535E+03
  1.15536E+03  2.19070E+02  1.38551E+01 -4.14956E+02 -6.51346E+02  1.03899E+03  2.08603E+03 -6.09756E+01
 -4.69843E+02  1.53417E+02  1.42439E+03  4.16721E+02 -1.21771E+02  2.26484E+03  6.22271E+01  2.10069E+03
 -1.72556E+03  3.17220E+02 -1.40053E+03  1.74392E+02 -1.41421E+03 -1.71221E+02  7.59074E+01 -9.69553E+02
  4.10389E+02 -8.85763E+02  9.53211E+02 -4.58381E+02  3.61020E+02  1.14119E+03 -4.22715E+02  1.03707E+03
 -7.43002E+02  5.95309E+02 -1.01115E+03 -1.02395E+03 -6.38814E+02 -1.43934E+03  2.02999E+01 -9.02655E+02
 -7.92505E+01 -3.90698E+02  4.77610E+02  1.50101E+02  1.00055E+03  1.92592E+01  3.68609E+02  1.26920E+03
  2.89930E+02  1.30807E+02 -6.54637E+02 -3.88891E+02  4.51285E+02 -3.75337E+02  1.16242E+03 -9.48270E+02
  6.10813E+02  5.62073E+02  2.51578E+03  3.49229E+02  1.03497E+03  8.80733E+02 -4.05051E+02  6.92455E+02
 -1.17242E+03 -1.23839E+02 -1.48171E+03 -9.62309E+00 -6.88177E+02 -1.08119E+03  5.18485E+02 -2.28890E+02
  7.89451E+02 -6.77202E+02  6.00836E+02  8.00126E+02  5.22899E+02  1.00800E+03  1.95965E+02  8.01094E+02
 -2.43187E+02  5.24668E+02 -9.09124E+02 -1.67320E+02  6.62110E+02  1.61451E+02 -1.00930E+03  3.69005E+02
 -1.86253E+02  5.43771E+02 -1.73642E+03  5.50811E+02 -1.24617E+03  8.84178E+01 -1.98647E+03 -1.08621E+03
 -6.48970E+02 -1.22998E+03  8.29663E+02 -2.62213E+03  8.15218E+02 -1.71371E+03  2.12579E+03 -2.15531E+02
  1.57569E+03 -3.99653E+02  4.40684E+02  1.03974E+03 -9.37386E+02  1.02129E+03 -5.52149E+02  7.24054E+02
 -1.01929E+03  7.32970E+02 -5.02239E+02 -1.29487E+02  2.25000E+01  4.47053E+01 -8.73048E+02  1.46757E+02
 -1.55537E+03  1.72623E+02 -1.15779E+03  3.83347E+02  8.58622E+01 -3.24007E+02 -7.40180E+02 -1.24845E+03
  1.08560E+03 -3.32913E+02 -6.46160E+02 -2.39504E+02  1.09210E+03  8.21384E+02 -7.32422E+02  1.29518E+03
 -5.66484E+02  1.49366E+03 -9.85026E+02  4.62443E+02 -1.25122E+03 -2.35760E+02 -7.76132E+02 -1.25898E+03
 -4.43309E+02 -5.16005E+02 -3.93654E+02 -1.30862E+03 -5.27730E+01 -2.96734E+02  1.01677E+03  4.86402E+02
  8.63164E+02  1.90392E+02  6.60307E+02 -3.50671E+02 -6.54176E+02  4.80607E+02 -2.64833E+02 -5.05869E+02
  2.27674E+02  5.71591E+02  7.68517E+01  9.55145E+02  2.18113E+02  2.89234E+02 -1.01729E+02 -2.21888E+01
 -5.72154E+02  1.53276E+02 -2.03896E+02  4.58932E+02 -7.86806E+02 -1.14084E+03  1.10949E+02 -1.06423E+03
  5.81986E+01 -6.29063E+02  4.08300E+02  1.45562E+01  7.86939E+02 -5.55274E+02 -9.56410E+01  6.85690E+02
  3.40465E+02  9.96922E+01  4.97140E+01  4.00948E+02 -7.86147E+02 -2.27689E+02 -3.43567E+02 -3.36221E+02
 -2.46027E+02 -2.35661E+01 -5.64333E+02 -5.98758E+01 -7.73559E+02  6.19463E+02 -8.22423E+02 -2.34757E+01
 -5.54953E+02  3.00445E+02 -6.97652E+02 -1.39678E+03  5.59542E+01 -1.06321E+03  1.91053E+02 -1.90077E+02
  4.14162E+02 -3.12742E+02 -6.68742E+02  8.08042E+01 -9.40560E+01 -1.75872E+01 -4.17026E+02  8.09818E+02
