 $NMID ID='MM_0lb_SNR400_17hz_g55_45.RAW', FMTDAT='(8E13.5)'
 TRAMP=1., VOLUME=1. $END
  3.10382E+05  5.30952E+02  3.37950E+05  2.50454E+05  8.47157E+04  3.37918E+05 -1.32464E+05  2.51273E+05
 -1.90282E+05  8.26880E+04 -1.11081E+05 -3.26982E+04  1.04425E+03 -5.00378E+04  5.35273E+04  3.47498E+02
  3.50457E+04  5.31104E+04 -1.71520E+04  7.57085E+04 -6.02030E+04  6.33442E+04 -8.36978E+04  3.14422E+04
 -8.09401E+04 -1.11367E+04 -5.66738E+04 -5.04760E+04 -1.51051E+04 -6.91568E+04  2.71045E+04 -4.57935E+04
  3.97200E+04  3.88006E+03  1.59952E+04  4.72508E+04 -3.42071E+04  4.70956E+04 -6.67944E+04 -4.16307E+02
 -5.31889E+04 -5.61380E+04 -6.63590E+03 -7.62060E+04  3.38659E+04 -5.48396E+04  4.75282E+04 -1.68283E+04
  4.25928E+04  1.06548E+04  3.14521E+04  2.51590E+04  1.64765E+04  2.92415E+04 -5.49275E+03  2.69736E+04
 -2.23029E+04  1.21296E+04 -1.88089E+04 -4.24034E+03  5.14629E+03 -7.12628E+03  2.18062E+04  1.18688E+04
  7.18169E+03  3.44028E+04 -3.13398E+04  3.46369E+04 -6.29294E+04  2.37328E+03 -5.64560E+04 -4.19593E+04
 -1.27730E+04 -6.22036E+04  3.94743E+04 -4.45340E+04  5.67591E+04 -2.19318E+03  3.32735E+04  3.19436E+04
 -5.78517E+03  3.49161E+04 -2.90543E+04  1.49166E+04 -2.96821E+04 -4.57840E+03 -1.58170E+04 -1.03206E+04
 -7.51845E+03 -1.29193E+04 -4.80565E+02 -1.77338E+04  7.57941E+03 -2.28034E+04  1.54452E+04 -1.36472E+04
  1.15441E+04  5.34353E+03 -7.29704E+03  1.25463E+04 -2.02449E+04 -3.40806E+03 -8.27461E+03 -3.24565E+04
  2.16641E+04 -4.21260E+04  4.71528E+04 -1.89364E+04  4.35570E+04  1.91237E+04  1.46549E+04  4.33719E+04
 -1.62341E+04  3.28092E+04 -2.43666E+04  1.48799E+03 -8.88007E+03 -2.71981E+04  2.06331E+04 -3.21333E+04
  3.98203E+04 -8.17650E+03  3.35923E+04  2.32361E+04  1.67441E+04  4.48380E+04 -8.17800E+03  4.78437E+04
 -3.02938E+04  3.20321E+04 -4.05338E+04  9.12595E+03 -4.07491E+04 -1.60191E+04 -2.27282E+04 -3.68796E+04
  7.33653E+03 -3.61889E+04  3.07531E+04 -1.38259E+04  2.84145E+04  1.08161E+04  4.09664E+03  1.85834E+04
 -1.37221E+04  8.04863E+03 -9.81721E+03 -8.09615E+03  6.08703E+03 -1.03883E+04  1.81419E+04  5.96790E+03
  1.28528E+04  2.18984E+04 -6.05281E+03  2.46525E+04 -2.22715E+04  1.13373E+04 -2.62049E+04 -5.58121E+03
 -1.86181E+04 -1.71942E+04 -6.45324E+03 -1.85935E+04  4.32724E+03 -1.77006E+04  1.39324E+04 -1.64901E+04
  2.42139E+04 -1.26202E+04  3.09469E+04  1.47577E+03  2.28054E+04  1.83333E+04  4.61018E+03  3.46465E+04
 -1.71364E+04  2.92769E+04 -2.72941E+04  9.74314E+03 -2.00922E+04 -9.91563E+03 -4.35365E+03 -1.34243E+04
  2.20827E+03 -3.54003E+03 -3.75822E+03  5.72806E+03 -1.42085E+04  5.00618E+03 -1.46821E+04 -6.25733E+03
 -9.59873E+03 -1.72578E+04  4.56948E+03 -2.17601E+04  1.39837E+04 -1.58524E+04  1.70251E+04 -1.80385E+03
  1.00891E+04  1.23287E+04 -1.24169E+03  1.71341E+04 -1.16468E+04  9.82023E+03 -1.76449E+04 -3.46496E+03
 -1.31317E+04 -1.55708E+04 -1.78560E+03 -2.20641E+04  9.67174E+03 -1.69682E+04  1.78728E+04 -8.78303E+03
  1.56838E+04  2.84680E+02  1.15322E+04  4.65251E+03  5.99249E+03  5.30654E+02  9.09651E+03 -1.56905E+03
  1.52416E+04  3.16638E+03  1.70808E+04  1.37755E+04  1.06792E+04  2.77136E+04 -3.56887E+03  3.08514E+04
 -1.80121E+04  2.41061E+04 -2.88612E+04  1.15124E+04 -2.95702E+04 -2.31926E+03 -2.49726E+04 -1.72335E+04
 -1.09549E+04 -2.42469E+04  7.71323E+03 -2.17266E+04  1.89965E+04 -1.17132E+04  1.72282E+04  4.22102E+03
  7.13353E+03  1.25689E+04 -8.15291E+03  1.17106E+04 -1.47830E+04  2.84165E+03 -1.14669E+04 -9.60006E+03
 -8.06980E+02 -1.37059E+04  7.07541E+03 -1.00675E+04  8.86465E+03 -1.92285E+03  2.26097E+03  5.50038E+03
 -6.20253E+03  1.46250E+03 -4.53278E+03 -4.86423E+03  6.59904E+01 -1.13817E+04  8.02144E+03 -1.23760E+04
  1.49585E+04 -6.18192E+03  1.48807E+04  3.35226E+03  1.27191E+04  1.14207E+04  5.98951E+03  1.67151E+04
 -1.90402E+03  1.90178E+04 -1.16199E+04  1.22339E+04 -1.38095E+04  3.25942E+03 -9.80446E+03 -3.01861E+03
 -4.85940E+03 -4.19673E+03 -1.18655E+03  1.21273E+03 -1.98559E+03  2.17578E+03 -4.18242E+03  4.29199E+03
 -9.59046E+03 -1.20614E+03 -9.71672E+03 -8.05546E+03 -4.40130E+03 -1.25982E+04  3.77822E+03 -9.53920E+03
  7.99951E+03 -4.48441E+03  5.57573E+03  2.55915E+03 -3.11903E+01  3.57118E+03 -4.19214E+03  2.13888E+02
 -4.29059E+03 -5.86411E+03 -1.33419E+03 -9.06681E+03  4.36684E+03 -9.06175E+03  1.18613E+04 -5.15727E+03
  1.37182E+04  1.14309E+03  9.94226E+03  7.66506E+03  1.02517E+03  1.02405E+04 -5.26327E+03  9.69164E+03
 -7.35280E+03  2.96595E+03 -3.70582E+03 -2.31717E+03  1.11777E+03 -2.10659E+03  5.79962E+03 -7.61678E+02
  4.82311E+03  4.28347E+03  1.01421E+03  7.72836E+03 -5.25033E+03  7.78275E+03 -8.86420E+03  1.67172E+03
 -6.16008E+03 -4.16127E+03 -9.53131E+01 -8.20786E+03  4.51238E+03 -4.14876E+03  4.68770E+03  1.53468E+03
  8.58743E+02  4.31319E+03 -5.12314E+03  5.46833E+03 -6.06720E+03  3.17837E+03 -6.48127E+03 -1.68512E+03
 -3.28346E+03 -7.98077E+03  1.38419E+03 -8.72726E+03  7.66479E+03 -5.17863E+03  8.48256E+03  1.00812E+03
  5.82161E+03  6.46671E+03 -5.15774E+02  8.66842E+03 -6.07925E+03  4.61204E+03 -6.75478E+03 -2.84757E+02
 -6.16256E+03 -5.02754E+03 -1.50363E+03 -5.95921E+03  2.63455E+03 -5.05248E+03  2.85852E+03 -2.93357E+03
  2.75648E+03  7.67521E+02  4.38167E+02  1.05863E+03  4.00443E+02 -7.99737E+02  8.98747E+02 -2.58243E+03
  4.98279E+03 -1.23484E+03  7.43683E+03  9.37054E+02  6.92417E+03  4.14253E+03  6.51530E+03  9.36597E+03
 -1.50579E+03  1.10049E+04 -1.01511E+04  7.49524E+03 -1.25154E+04  1.26750E+03 -9.42963E+03 -3.54563E+03
 -4.91329E+03 -8.17154E+03  8.43330E+00 -6.15395E+03  2.06875E+03 -3.40698E+03  2.12691E+03 -2.53136E+03
  2.00432E+03 -1.69089E+03  2.76471E+03 -2.39194E+03  3.89545E+03 -1.40127E+03  4.54466E+03 -3.07472E+02
  4.73289E+03  1.62958E+03  2.13307E+03  4.01947E+03 -1.83108E+03  4.56196E+03 -5.17148E+03  2.97786E+03
 -6.12995E+03 -1.32395E+03 -3.24785E+03 -4.26289E+03  2.60462E+02 -6.59650E+03  4.27116E+03 -6.88362E+03
  6.54567E+03 -4.08529E+03  8.12990E+03  5.22891E+02  6.35258E+03  5.73854E+03  9.05161E+02  7.53049E+03
 -2.66353E+03  6.49860E+03 -4.34788E+03  2.30022E+03 -2.73880E+03 -1.50862E+03 -9.76003E+02 -7.02382E+02
 -9.74103E+02  5.83448E+01 -1.05932E+03  1.94412E+03 -3.35532E+03  1.57598E+03 -4.64710E+03 -5.93734E+02
 -1.97873E+03 -4.24164E+03  7.99024E+02 -5.97209E+03  3.01454E+03 -5.85937E+03  4.48086E+03 -1.25330E+03
  5.42355E+03  2.40360E+03  2.89130E+03  4.58304E+03 -9.31516E+02  5.79256E+03 -3.57103E+03  3.26509E+03
 -5.69509E+03  7.87940E+02 -4.05738E+03 -3.17709E+03 -6.92979E+02 -4.08351E+03  2.08372E+03 -3.69197E+03
  3.31779E+03 -1.80559E+03  2.03531E+03  8.80460E+02  6.28465E+02  1.47600E+03  1.23552E+03  7.17631E+02
  1.73722E+03  5.10557E+02  1.61852E+03  1.17931E+03  1.58243E+03  2.86418E+03  1.50265E+03  2.45211E+03
 -1.38830E+03  3.45368E+03 -3.24498E+03  4.74976E+03 -3.89850E+03  1.52357E+03 -5.76603E+03 -1.10405E+03
 -2.20852E+03 -4.04405E+03  1.04048E+03 -5.72699E+03  2.42283E+03 -3.50667E+03  4.51801E+03 -5.92475E+02
  3.29392E+03  2.17656E+03  5.00555E+02  2.72055E+03 -6.05079E+02  1.31286E+03 -1.62743E+03 -3.85198E+01
 -2.48145E+02 -2.10440E+03  1.36982E+03 -1.25534E+03  1.75818E+03 -1.38677E+03  1.68580E+03  6.53242E+02
  8.66568E+02  5.80449E+02  1.19611E+03  1.53323E+02 -4.68423E+02  1.19472E+03  1.43573E+03 -1.30402E+02
  3.64929E+01 -6.36310E+02  2.30761E+03  1.11371E+03  1.99709E+02  2.96692E+03 -3.30924E+02  3.67164E+03
 -2.23228E+03  1.41068E+03 -2.79467E+03  3.84932E+02 -2.27324E+03 -5.75241E+02 -4.17841E+02 -8.21584E+02
 -1.29802E+02 -1.87162E+03  6.50321E+02 -7.39060E+02  8.63488E+02  1.73454E+03 -1.08827E+03  1.16496E+03
 -1.74012E+03  6.22742E+02 -2.01187E+03 -1.86829E+03 -1.07485E+03 -2.51948E+03  5.23486E+02 -2.10738E+03
  1.01873E+03 -9.31368E+02  1.38719E+03 -2.89163E+02  9.74534E+02  6.89353E+02  8.08773E+02  1.37173E+03
 -5.80837E+02  3.68525E+02 -1.31080E+03 -5.42356E+02  3.86474E+02 -1.49291E+03  1.86232E+03 -8.89071E+02
  2.04438E+03 -5.64888E+01  3.43251E+03  1.18100E+03  6.87170E+02  2.12591E+03 -4.16635E+02  2.38528E+03
 -1.69039E+03  5.10686E+02 -1.62856E+03 -2.70357E+02 -7.29891E+02 -1.82000E+03 -2.77556E+02 -6.16515E+02
  2.04299E+03 -8.10600E+02  9.79288E+02  1.39749E+03  4.04742E+02  1.83406E+03 -1.96727E+01  1.27270E+03
 -4.66726E+02  1.61350E+03 -3.77940E+02  4.60398E+02 -1.02574E+02  2.42563E+02 -7.38709E+02  1.31392E+03
 -3.50104E+02  1.55445E+03 -2.21060E+03  9.09031E+02 -2.12063E+03 -1.62387E+02 -2.51413E+03 -1.41870E+03
 -1.28852E+03 -3.24138E+03  1.24227E+02 -3.41276E+03  1.18672E+03 -3.05588E+03  3.63891E+03 -8.71439E+02
  2.73116E+03 -7.08920E+02  7.79882E+02  1.83693E+03 -2.88773E+02  1.87589E+03 -9.37351E+02  2.06318E+03
 -1.29960E+03  6.86112E+02 -1.19955E+03 -3.13239E+02 -2.30477E+02 -7.16125E+01 -6.81605E+02 -1.70402E+02
 -1.89277E+03 -1.93972E+02 -9.50660E+02  5.20210E+02  1.02515E+02 -1.28094E+03 -3.65807E+02 -9.60266E+02
  1.78505E+03 -5.73672E+02  3.82814E+02  1.95144E+02  1.36688E+03  7.11124E+02 -7.22005E+02  1.79699E+03
 -1.66605E+03  2.66722E+03 -1.92773E+03  2.14206E+03 -2.56180E+03  3.21973E+02 -2.32741E+03 -1.89907E+03
 -9.43650E+02 -2.23497E+03  7.32347E+02 -1.77508E+03  1.04993E+03 -6.90621E+02  1.16655E+03  1.17000E+02
  1.14543E+03 -1.62315E+01  6.99718E+02  6.97385E+02 -3.82672E+02  7.10311E+01 -7.63761E+02 -3.37521E+02
  6.30901E+02 -2.76615E+01  9.31387E+01  4.65650E+02  4.98836E+01  7.23604E+02  5.92617E+01  3.45956E+02
 -5.61393E+02  7.73034E+02 -6.77251E+02  1.37452E+02 -1.21607E+03 -1.79598E+02 -2.70739E+02 -1.81086E+03
  9.96223E+02 -1.41785E+03  8.77362E+02  1.68651E+02  8.10652E+02 -1.91141E+02  7.99635E+02  1.16903E+03
 -7.90339E+01  9.88955E+02 -3.79867E+01  1.14152E+03 -5.90298E+02  6.88359E+02 -4.91384E+02 -2.38647E+02
 -8.46254E+02  1.04855E+02 -5.40055E+02 -1.99267E+02 -4.17493E+02  6.77996E+01 -8.28937E+02 -3.03482E+02
 -1.48016E+03 -7.15592E+02 -4.77395E+02 -1.11178E+03  3.39741E+02 -1.76709E+03  7.75991E+02 -2.26982E+02
  9.53553E+02 -1.00065E+02 -6.96751E+02  5.84082E+02  2.39848E+02  1.19478E+03 -6.28932E+02  1.22428E+03
