 $NMID ID='MM_0lb_SNR400_8hz_g60_48.RAW', FMTDAT='(8E13.5)'
 TRAMP=1., VOLUME=1. $END
  3.10194E+05  6.66745E+02  3.37589E+05  2.50921E+05  8.46248E+04  3.39482E+05 -1.33018E+05  2.51769E+05
 -1.91380E+05  8.40850E+04 -1.12543E+05 -3.25839E+04  6.05816E+01 -5.11591E+04  5.32450E+04  7.90407E+02
  3.56901E+04  5.26685E+04 -1.63077E+04  7.67132E+04 -6.14176E+04  6.54917E+04 -8.59829E+04  3.25496E+04
 -8.28797E+04 -1.26329E+04 -5.93274E+04 -5.21134E+04 -1.54080E+04 -7.16394E+04  2.91190E+04 -4.72920E+04
  4.10366E+04  3.85345E+03  1.70525E+04  4.90675E+04 -3.45589E+04  4.87382E+04 -6.81386E+04  3.91599E+02
 -5.49625E+04 -5.83160E+04 -7.47759E+03 -8.01857E+04  3.55594E+04 -5.80687E+04  5.01433E+04 -2.02367E+04
  4.58507E+04  1.17301E+04  3.28558E+04  2.71253E+04  1.58848E+04  3.15523E+04 -6.64022E+03  2.86322E+04
 -2.25478E+04  1.09949E+04 -1.77985E+04 -6.16012E+03  7.27031E+03 -7.22315E+03  2.40536E+04  1.44794E+04
  7.08831E+03  3.91035E+04 -3.48784E+04  3.80323E+04 -6.66839E+04  2.08823E+03 -5.99191E+04 -4.48259E+04
 -1.18463E+04 -6.78431E+04  4.31819E+04 -4.80725E+04  6.19802E+04 -2.81380E+03  3.79946E+04  3.57693E+04
 -5.36870E+03  4.09787E+04 -3.27247E+04  2.04235E+04 -3.47589E+04 -3.93986E+03 -2.05208E+04 -1.19259E+04
 -1.00872E+04 -1.56136E+04 -5.19169E+02 -2.20098E+04  9.42473E+03 -2.36722E+04  1.63289E+04 -1.27030E+04
  9.77656E+03  6.71521E+03 -1.16766E+04  1.33345E+04 -2.45458E+04 -7.28869E+03 -9.00154E+03 -3.86937E+04
  2.62658E+04 -4.89134E+04  5.29963E+04 -2.11263E+04  5.05574E+04  2.18792E+04  1.78942E+04  4.76770E+04
 -1.75267E+04  3.77566E+04 -2.84244E+04  3.42989E+03 -1.25128E+04 -3.08993E+04  2.08077E+04 -3.75211E+04
  4.58146E+04 -1.22421E+04  4.36577E+04  2.48964E+04  2.32202E+04  5.31458E+04 -8.55156E+03  5.92604E+04
 -3.75495E+04  4.04054E+04 -4.93610E+04  1.18886E+04 -4.90685E+04 -1.88996E+04 -2.74598E+04 -4.48046E+04
  8.28127E+03 -4.35739E+04  3.55670E+04 -1.84275E+04  3.30654E+04  1.08730E+04  5.16773E+03  2.21066E+04
 -1.42851E+04  9.65313E+03 -1.17038E+04 -8.04653E+03  5.48145E+03 -1.21049E+04  1.94402E+04  5.05248E+03
  1.53075E+04  2.23158E+04 -4.49721E+03  2.79892E+04 -2.37019E+04  1.67904E+04 -3.34200E+04 -1.02340E+03
 -2.68966E+04 -1.91866E+04 -1.25910E+04 -2.67689E+04  4.68894E+03 -2.82076E+04  2.23714E+04 -2.50246E+04
  3.49856E+04 -1.45906E+04  3.93827E+04  6.15716E+03  2.76593E+04  2.65172E+04  4.21167E+03  4.33096E+04
 -2.07415E+04  3.48898E+04 -3.18645E+04  1.17076E+04 -2.30462E+04 -1.06064E+04 -5.31042E+03 -1.32749E+04
  1.00818E+03 -7.43291E+02 -8.48760E+03  8.95787E+03 -2.17367E+04  4.89419E+03 -2.14056E+04 -1.15022E+04
 -1.38404E+04 -2.46319E+04  6.40927E+03 -2.89684E+04  2.02227E+04 -2.14173E+04  2.32712E+04 -2.32026E+03
  1.58907E+04  1.65639E+04 -1.88772E+03  2.55852E+04 -1.83897E+04  1.43492E+04 -2.55340E+04 -4.75564E+03
 -1.91109E+04 -2.24044E+04 -2.11553E+03 -2.97493E+04  1.35147E+04 -2.53465E+04  2.43485E+04 -1.27950E+04
  2.35869E+04  3.09110E+02  1.73803E+04  5.62247E+03  8.92127E+03  1.45239E+03  1.28758E+04 -2.53096E+03
  2.40370E+04  3.76407E+03  2.86394E+04  1.93303E+04  1.94772E+04  4.06951E+04 -2.96203E+03  4.82840E+04
 -2.76716E+04  4.02501E+04 -4.66881E+04  2.10408E+04 -4.93881E+04 -3.59014E+03 -4.04004E+04 -2.83507E+04
 -1.46365E+04 -4.16568E+04  1.50465E+04 -3.63763E+04  3.05269E+04 -1.67219E+04  2.67950E+04  1.10328E+04
  9.77728E+03  2.07461E+04 -1.28086E+04  1.76621E+04 -2.23327E+04  2.24510E+03 -1.68746E+04 -1.47299E+04
 -1.58955E+02 -2.14474E+04  1.06221E+04 -1.51084E+04  1.41773E+04 -1.30581E+03  3.57287E+03  9.73357E+03
 -9.36711E+03  4.99407E+03 -1.04122E+04 -6.70719E+03 -2.49846E+03 -2.02409E+04  1.30089E+04 -2.19806E+04
  2.53187E+04 -1.28709E+04  2.97629E+04  3.20292E+03  2.56150E+04  2.00173E+04  1.17819E+04  3.33165E+04
 -7.48847E+03  3.58214E+04 -2.35412E+04  2.07628E+04 -2.49696E+04  4.70415E+03 -1.71650E+04 -7.44522E+03
 -7.19842E+03 -7.38644E+03 -9.44134E+02  4.03403E+02 -2.23679E+03  3.94568E+03 -8.45502E+03  5.65657E+03
 -1.56577E+04 -1.84709E+03 -1.64567E+04 -1.26305E+04 -6.57777E+03 -2.15536E+04  7.71474E+03 -1.83401E+04
  1.33053E+04 -7.01912E+03  1.05211E+04  4.80825E+03 -8.27503E+02  7.80122E+03 -8.86398E+03 -6.49736E+02
 -7.65748E+03 -1.15167E+04 -1.84672E+03 -1.77986E+04  9.59673E+03 -1.87876E+04  2.20496E+04 -9.97374E+03
  2.60894E+04  2.48254E+03  1.94032E+04  1.53428E+04  3.88449E+03  2.23282E+04 -1.09919E+04  1.82082E+04
 -1.33096E+04  4.81665E+03 -7.12891E+03 -3.25790E+03  2.86115E+03 -4.85409E+03  8.68070E+03 -1.13969E+03
  7.85903E+03  7.47343E+03  1.82570E+03  1.38634E+04 -1.05884E+04  1.43788E+04 -1.71695E+04  2.31981E+03
 -1.13698E+04 -9.49460E+03  8.00311E+02 -1.48918E+04  1.03209E+04 -7.64071E+03  1.13744E+04  3.96887E+03
  2.66945E+03  1.12695E+04 -1.07423E+04  1.34672E+04 -1.61992E+04  5.31299E+03 -1.61016E+04 -5.85725E+03
 -8.94865E+03 -1.85432E+04  4.42885E+03 -2.12325E+04  1.82455E+04 -1.23745E+04  1.94789E+04  3.29857E+03
  1.25162E+04  1.55570E+04 -1.99034E+03  1.83674E+04 -1.34162E+04  9.59073E+03 -1.46287E+04 -1.44790E+03
 -1.24159E+04 -1.19655E+04 -9.25713E+02 -1.38422E+04  6.80380E+03 -1.13279E+04  9.03569E+03 -3.87576E+03
  5.98285E+03  2.44985E+03 -1.71411E+03  2.91408E+03 -1.04444E+03 -3.93052E+03  2.98921E+03 -9.27106E+03
  1.31186E+04 -6.44766E+03  1.90318E+04  1.55505E+03  1.85415E+04  1.32339E+04  1.12412E+04  2.42285E+04
 -6.74896E+03  2.80666E+04 -2.38899E+04  2.09633E+04 -2.98749E+04  4.38452E+03 -2.43935E+04 -1.14835E+04
 -1.22546E+04 -2.05283E+04 -6.61959E+02 -1.61013E+04  5.99455E+03 -1.00157E+04  6.45916E+03 -6.11837E+03
  4.88500E+03 -3.22369E+03  4.12572E+03 -4.35873E+03  6.09041E+03 -4.48886E+03  8.51724E+03 -1.49798E+03
  1.24116E+04  2.89902E+03  5.96174E+03  1.09658E+04 -2.91386E+03  1.44335E+04 -1.29456E+04  1.07683E+04
 -1.63967E+04 -1.74881E+03 -1.21672E+04 -1.18638E+04 -1.64755E+03 -1.96982E+04  1.03544E+04 -1.86276E+04
  1.92180E+04 -1.02504E+04  2.33241E+04  3.78522E+03  1.61684E+04  1.74091E+04  1.79724E+03  2.08177E+04
 -9.64789E+03  1.68533E+04 -1.22469E+04  6.23418E+03 -8.06415E+03 -1.78984E+03 -4.60413E+03 -3.47827E+03
 -6.76120E+02  3.93596E+02 -1.85140E+03  2.99884E+03 -7.75819E+03  3.12317E+03 -1.20780E+04 -1.30188E+03
 -8.66844E+03 -1.30440E+04 -3.51439E+02 -1.84675E+04  1.01682E+04 -1.65447E+04  1.81493E+04 -4.70567E+03
  1.74943E+04  8.55358E+03  8.64825E+03  1.70957E+04 -4.01203E+03  1.83693E+04 -1.32646E+04  1.16317E+04
 -1.70569E+04  3.55855E+02 -1.34710E+04 -1.07335E+04 -9.10557E+02 -1.50448E+04  8.07342E+03 -1.11498E+04
  1.12136E+04 -3.56166E+03  8.06736E+03  3.80214E+03  3.80796E+03  4.40674E+03  1.24312E+03  2.38625E+03
  2.68178E+03  1.17850E+03  4.52306E+03  1.37147E+03  5.57733E+03  6.30253E+03  4.49968E+03  9.72967E+03
 -3.67753E+03  1.49111E+04 -1.34075E+04  1.37374E+04 -1.87113E+04  3.45594E+03 -1.87525E+04 -7.14241E+03
 -8.76929E+03 -1.91954E+04  3.55656E+03 -2.02349E+04  1.19131E+04 -1.28499E+04  1.49446E+04 -3.14720E+03
  1.15636E+04  6.66983E+03  2.32456E+03  1.08583E+04 -5.57670E+03  7.51344E+03 -7.02909E+03 -1.18360E+03
 -3.25036E+03 -7.91495E+03  2.91544E+03 -7.95006E+03  8.70225E+03 -4.81320E+03  7.30754E+03  1.63695E+03
  4.88231E+03  3.24837E+03  1.52989E+03  3.26249E+03 -2.81524E+02  3.10225E+03  1.13617E+03 -7.65849E+02
  3.29626E+03 -4.79327E+02  8.40248E+03  3.00980E+03  5.24891E+03  9.55793E+03 -2.67359E+03  1.33725E+04
 -9.09644E+03  9.01140E+03 -1.11086E+04  2.40592E+03 -1.05892E+04 -3.74389E+03 -3.41987E+03 -7.81210E+03
  1.55437E+03 -7.88887E+03  4.57631E+03 -3.68742E+03  4.51070E+03  3.57450E+03 -1.50617E+03  5.76345E+03
 -7.73726E+03  2.90205E+03 -9.90170E+03 -4.12860E+03 -5.14569E+03 -1.04487E+04  1.24935E+03 -1.14815E+04
  5.92391E+03 -7.33809E+03  7.81240E+03 -9.01295E+02  5.93994E+03  3.61691E+03  1.77018E+02  5.63895E+03
 -3.72833E+03  2.27720E+03 -4.79059E+03 -3.76632E+03  2.55766E+03 -8.48155E+03  9.52706E+03 -6.96352E+03
  1.33405E+04  5.36268E+02  1.13656E+04  8.36098E+03  3.27920E+03  1.26354E+04 -4.22962E+03  1.27401E+04
 -1.08709E+04  6.41989E+03 -1.04858E+04 -1.38174E+03 -7.06717E+03 -7.79847E+03  2.25553E+03 -8.26536E+03
  7.23651E+03 -3.70328E+03  7.35107E+03  3.95390E+03  1.20783E+03  7.31652E+03 -1.55195E+03  6.09360E+03
 -3.86733E+03  3.80531E+03 -2.98284E+03  2.03443E+03 -1.65700E+03  1.83230E+03 -1.49974E+03  2.85177E+03
 -2.48234E+03  3.90932E+03 -8.40674E+03  3.94153E+03 -1.26221E+04 -1.83868E+02 -1.43599E+04 -8.12560E+03
 -7.55788E+03 -1.75025E+04  3.26158E+03 -1.99823E+04  1.19737E+04 -1.49865E+04  1.85962E+04 -5.00244E+03
  1.74176E+04  4.17233E+03  1.04823E+04  1.17647E+04  9.85298E+02  1.43028E+04 -4.42528E+03  1.03519E+04
 -7.51455E+03  2.82171E+03 -5.57120E+03 -7.68958E+02 -1.05243E+03 -1.10101E+03 -8.79208E+02  1.02281E+02
 -1.42971E+03  1.21041E+03 -3.36212E+03 -1.36122E+03 -1.44081E+03 -3.18085E+03  2.70200E+02 -4.85123E+03
  6.22852E+03 -3.25454E+03  9.66478E+03 -1.16907E+02  1.01211E+04  7.59449E+03  2.93664E+03  1.32420E+04
 -6.50311E+03  1.58673E+04 -1.44484E+04  8.52943E+03 -1.63938E+04 -1.15968E+03 -1.23037E+04 -9.79072E+03
 -5.29724E+03 -1.44321E+04  3.30496E+03 -1.19975E+04  8.79331E+03 -6.62241E+03  8.78027E+03  7.64616E+02
  5.32410E+03  4.33567E+03  2.69046E+02  4.17329E+03 -2.49751E+03 -1.21149E+03  5.22505E+02 -3.37833E+03
  3.92040E+03 -2.82675E+03  4.97836E+03  9.84380E+02  4.53280E+03  5.26307E+03  3.33407E+02  6.95588E+03
 -5.67444E+03  6.26682E+03 -8.99973E+03 -4.27150E+02 -8.42392E+03 -5.62154E+03 -1.42461E+03 -1.14598E+04
  6.56983E+03 -9.63481E+03  1.18880E+04 -3.26784E+03  1.06963E+04  2.75363E+03  5.97243E+03  9.66713E+03
  1.17227E+03  9.10435E+03 -4.14725E+03  8.00459E+03 -6.66798E+03  3.36406E+03 -5.33042E+03  3.07565E+02
 -3.11403E+03 -2.20712E+02 -3.12481E+03  1.80384E+03 -4.64499E+03  1.51951E+03 -6.57307E+03 -1.52517E+03
 -6.66265E+03 -5.61346E+03 -2.50214E+03 -8.82005E+03  4.34613E+03 -1.04088E+04  8.05719E+03 -4.84319E+03
  9.61441E+03  1.81278E+03  5.39110E+03  7.16766E+03 -6.43362E+02  9.65724E+03 -7.37405E+03  6.66430E+03
