 $NMID ID='MM_0lb_SNR400_13hz_g40_41.RAW', FMTDAT='(8E13.5)'
 TRAMP=1., VOLUME=1. $END
  3.09481E+05  1.37102E+02  3.37860E+05  2.50864E+05  8.44135E+04  3.38288E+05 -1.32422E+05  2.50613E+05
 -1.89931E+05  8.27275E+04 -1.11548E+05 -3.23618E+04  5.57013E+02 -5.09381E+04  5.36292E+04 -4.81158E+01
  3.51011E+04  5.34910E+04 -1.65047E+04  7.57760E+04 -6.02687E+04  6.33158E+04 -8.41826E+04  3.17638E+04
 -8.05274E+04 -1.11609E+04 -5.70442E+04 -5.08662E+04 -1.50958E+04 -6.89855E+04  2.71396E+04 -4.56105E+04
  4.01777E+04  2.97247E+03  1.59063E+04  4.79758E+04 -3.40836E+04  4.75900E+04 -6.68189E+04 -5.55203E+02
 -5.37979E+04 -5.64602E+04 -6.91562E+03 -7.66915E+04  3.44688E+04 -5.49216E+04  4.77514E+04 -1.73469E+04
  4.27384E+04  1.10477E+04  3.11523E+04  2.53256E+04  1.59923E+04  2.90670E+04 -5.61994E+03  2.69669E+04
 -2.20755E+04  1.18480E+04 -1.82197E+04 -4.59035E+03  5.71234E+03 -7.46290E+03  2.25165E+04  1.20734E+04
  7.60097E+03  3.55628E+04 -3.18264E+04  3.51718E+04 -6.31770E+04  2.16735E+03 -5.64574E+04 -4.22884E+04
 -1.29499E+04 -6.25336E+04  3.95337E+04 -4.49363E+04  5.80420E+04 -2.24604E+03  3.47617E+04  3.25898E+04
 -6.13909E+03  3.58224E+04 -3.06377E+04  1.54058E+04 -3.01239E+04 -5.07903E+03 -1.65984E+04 -1.06292E+04
 -8.06909E+03 -1.25909E+04 -7.97824E+02 -1.81532E+04  7.62985E+03 -2.31077E+04  1.60710E+04 -1.36048E+04
  1.15866E+04  4.63401E+03 -7.92836E+03  1.34753E+04 -2.07299E+04 -4.61831E+03 -8.67320E+03 -3.36971E+04
  2.27484E+04 -4.35232E+04  4.86873E+04 -2.02767E+04  4.50520E+04  1.98019E+04  1.43651E+04  4.39310E+04
 -1.60303E+04  3.37213E+04 -2.51527E+04  1.11990E+03 -1.04293E+04 -2.74298E+04  2.13336E+04 -3.42169E+04
  4.13302E+04 -9.30924E+03  3.60473E+04  2.39150E+04  1.79895E+04  4.59711E+04 -7.64642E+03  4.97246E+04
 -3.17303E+04  3.36048E+04 -4.15760E+04  1.01303E+04 -4.25405E+04 -1.65889E+04 -2.32554E+04 -3.77548E+04
  8.38461E+03 -3.80531E+04  3.17103E+04 -1.50836E+04  2.88346E+04  1.05163E+04  4.01026E+03  1.91626E+04
 -1.36812E+04  8.31879E+03 -1.03202E+04 -7.46141E+03  6.07540E+03 -1.04728E+04  1.80995E+04  5.54985E+03
  1.32249E+04  2.17871E+04 -6.90468E+03  2.49048E+04 -2.20734E+04  1.12751E+04 -2.79752E+04 -4.56333E+03
 -2.01263E+04 -1.76598E+04 -8.41611E+03 -2.05759E+04  4.54681E+03 -2.01731E+04  1.60568E+04 -1.80328E+04
  2.53924E+04 -1.33126E+04  3.22134E+04  3.47411E+03  2.34836E+04  1.96946E+04  4.74021E+03  3.60270E+04
 -1.78008E+04  3.06275E+04 -2.79194E+04  1.00906E+04 -2.07631E+04 -9.83845E+03 -4.42097E+03 -1.34193E+04
  1.53098E+03 -3.41208E+03 -4.89126E+03  6.66662E+03 -1.60915E+04  5.51420E+03 -1.65066E+04 -7.47679E+03
 -1.04435E+04 -1.88946E+04  5.40005E+03 -2.32018E+04  1.54060E+04 -1.66935E+04  1.78286E+04 -2.30292E+03
  1.10030E+04  1.32236E+04 -5.83484E+02  1.93264E+04 -1.34856E+04  1.16046E+04 -1.91299E+04 -4.20371E+03
 -1.42555E+04 -1.74603E+04 -1.63191E+03 -2.31054E+04  1.05092E+04 -1.92952E+04  1.97130E+04 -9.76636E+03
  1.75115E+04  5.56015E+02  1.28941E+04  4.37855E+03  7.28544E+03  2.40202E+02  9.60658E+03 -1.77932E+03
  1.77006E+04  2.53964E+03  1.98234E+04  1.56398E+04  1.27056E+04  3.05012E+04 -2.93562E+03  3.45262E+04
 -1.95764E+04  2.74437E+04 -3.23490E+04  1.42748E+04 -3.40759E+04 -3.40891E+03 -2.79129E+04 -1.89070E+04
 -1.15432E+04 -2.79063E+04  9.02595E+03 -2.47468E+04  2.19017E+04 -1.24592E+04  1.94793E+04  4.48158E+03
  8.05316E+03  1.42339E+04 -9.66454E+03  1.26301E+04 -1.59027E+04  2.38438E+03 -1.25288E+04 -9.70045E+03
 -3.36111E+02 -1.54972E+04  8.36299E+03 -1.13423E+04  1.01956E+04 -1.23500E+03  2.12865E+03  6.71831E+03
 -7.00855E+03  3.06271E+03 -6.93065E+03 -5.22154E+03 -3.86685E+02 -1.37106E+04  9.33696E+03 -1.41467E+04
  1.73028E+04 -6.88560E+03  1.86727E+04  2.92270E+03  1.61095E+04  1.32753E+04  7.37242E+03  2.06047E+04
 -3.14252E+03  2.24637E+04 -1.48476E+04  1.45691E+04 -1.55553E+04  3.31171E+03 -1.07012E+04 -2.99675E+03
 -5.37889E+03 -4.84715E+03 -1.25919E+03  1.32465E+03 -2.14538E+03  2.25283E+03 -5.12001E+03  3.91935E+03
 -1.11824E+04 -6.70760E+02 -1.12081E+04 -9.11958E+03 -4.48256E+03 -1.45147E+04  5.05547E+03 -1.18771E+04
  9.43725E+03 -5.12971E+03  6.71781E+03  3.13444E+03  5.86737E+02  4.84892E+03 -5.15209E+03 -4.41288E+02
 -4.89939E+03 -6.60877E+03 -1.25119E+03 -1.10776E+04  6.29024E+03 -1.16209E+04  1.38941E+04 -6.24978E+03
  1.69556E+04  1.32854E+03  1.24961E+04  1.03061E+04  2.44485E+03  1.31915E+04 -6.90634E+03  1.14439E+04
 -9.68585E+03  3.71086E+03 -4.66256E+03 -2.75459E+03  1.72306E+03 -2.62412E+03  5.92941E+03 -1.21573E+03
  6.36310E+03  4.74515E+03  8.30347E+02  9.19794E+03 -6.13060E+03  9.19800E+03 -1.09148E+04  2.82638E+03
 -7.39044E+03 -5.43180E+03  1.66173E+02 -9.63700E+03  5.83285E+03 -4.25406E+03  5.99064E+03  1.93032E+03
  1.19134E+03  6.03491E+03 -6.07031E+03  7.64278E+03 -8.75072E+03  3.18377E+03 -8.17921E+03 -2.70502E+03
 -4.40700E+03 -1.02954E+04  2.26292E+03 -1.12728E+04  9.57253E+03 -7.27731E+03  1.05310E+04  1.95800E+03
  7.23350E+03  8.89469E+03 -5.44165E+02  1.04481E+04 -7.65015E+03  5.71789E+03 -8.60396E+03 -9.06951E+02
 -7.85857E+03 -6.78464E+03 -1.05650E+03 -7.42427E+03  4.80183E+03 -6.85264E+03  5.27412E+03 -3.12931E+03
  3.68258E+03  1.33062E+03 -7.55383E+02  1.46228E+03  2.64204E+02 -1.64919E+03  1.08053E+03 -4.15336E+03
  6.67031E+03 -2.52000E+03  9.77585E+03  1.44351E+03  9.25708E+03  6.73204E+03  7.24874E+03  1.28808E+04
 -2.50374E+03  1.54168E+04 -1.25532E+04  1.09475E+04 -1.67873E+04  1.46129E+03 -1.31027E+04 -4.64230E+03
 -6.19729E+03 -1.11512E+04 -3.99530E+02 -9.04310E+03  3.21460E+03 -4.94628E+03  3.91485E+03 -3.67896E+03
  1.64426E+03 -2.25247E+03  2.84874E+03 -3.31139E+03  4.55921E+03 -2.26039E+03  5.44688E+03 -3.57789E+02
  7.26066E+03  2.01598E+03  3.63440E+03  6.02673E+03 -1.76349E+03  6.60436E+03 -7.47503E+03  5.38913E+03
 -8.64925E+03 -1.22406E+03 -4.56022E+03 -6.51353E+03 -8.29874E+02 -9.45059E+03  5.19124E+03 -9.78188E+03
  9.75419E+03 -5.36958E+03  1.17091E+04  1.70236E+03  8.05891E+03  8.75816E+03  9.33220E+02  1.09046E+04
 -4.07967E+03  9.28518E+03 -6.30195E+03  3.21586E+03 -4.16445E+03 -1.20395E+03 -1.81886E+03 -1.64127E+03
 -8.47056E+02  5.49527E+02 -1.35054E+03  2.50307E+03 -4.19754E+03  1.93988E+03 -6.28738E+03 -1.00107E+03
 -3.42874E+03 -6.36469E+03  2.52534E+02 -8.57926E+03  5.12557E+03 -7.12898E+03  8.08270E+03 -2.55394E+03
  8.29833E+03  4.50367E+03  3.36881E+03  7.69132E+03 -1.30984E+03  8.32298E+03 -6.09459E+03  5.33949E+03
 -7.75960E+03  6.92215E+02 -5.90432E+03 -4.98840E+03 -1.15399E+03 -6.99350E+03  3.24888E+03 -4.80621E+03
  5.50327E+03 -2.00836E+03  3.52357E+03  1.63436E+03  1.33343E+03  2.40716E+03  1.12711E+03  1.03864E+03
  1.99740E+03  6.93133E+02  2.15903E+03  1.57087E+03  2.09840E+03  2.63937E+03  2.48011E+03  3.57275E+03
 -1.61527E+03  5.77031E+03 -6.25995E+03  6.01521E+03 -8.50382E+03  1.90594E+03 -8.94720E+03 -2.74287E+03
 -3.41668E+03 -7.42098E+03  1.11745E+03 -8.72813E+03  4.86677E+03 -5.34062E+03  6.88036E+03 -8.12864E+02
  5.32374E+03  3.36668E+03  1.04440E+03  4.82553E+03 -1.99358E+03  2.98212E+03 -2.85750E+03 -3.93606E+02
 -1.03754E+03 -3.52018E+03  2.68931E+03 -3.72216E+03  2.76604E+03 -2.13476E+03  3.71282E+03  9.30417E+02
  1.73201E+03  1.12101E+03  1.50957E+03  5.15658E+02 -5.53621E+02  1.31722E+03  1.65989E+03 -5.24999E+02
  1.19363E+03 -2.06747E+02  3.52520E+03  7.07461E+02  1.47920E+03  4.36787E+03 -1.49496E+03  6.44654E+03
 -3.13871E+03  3.16799E+03 -5.15234E+03  1.15152E+03 -4.46689E+03 -1.52721E+03 -1.37658E+03 -2.76670E+03
  6.24546E+02 -2.87275E+03  1.74852E+03 -2.04362E+03  1.37081E+03  1.66707E+03 -1.00789E+03  2.87020E+03
 -3.15823E+03  8.58962E+02 -3.97142E+03 -2.47190E+03 -1.79812E+03 -4.25242E+03  9.44590E+02 -4.50278E+03
  2.29296E+03 -2.23417E+03  2.48347E+03  6.57033E+01  2.40525E+03  8.30942E+02 -1.23554E+02  2.56639E+03
 -9.20074E+02  8.39820E+01 -1.60395E+03 -1.12053E+03  1.28142E+03 -2.61786E+03  4.44219E+03 -1.73935E+03
  3.74704E+03  5.02931E+01  5.49280E+03  2.82588E+03  2.09161E+03  4.80222E+03 -1.10092E+03  4.82508E+03
 -4.56207E+03  1.87023E+03 -3.72239E+03 -5.25439E+02 -2.73187E+03 -3.10307E+03  1.06395E+03 -2.60523E+03
  2.90556E+03 -1.59721E+03  2.46703E+03  1.12186E+03  9.65164E+02  3.34489E+03  4.40079E+01  3.13067E+03
 -1.36322E+03  1.74914E+03 -3.70056E+02  3.81967E+02 -2.84700E+02  8.48579E+02 -9.18152E+02  6.33212E+02
 -1.24517E+03  1.45074E+03 -3.22170E+03  1.65503E+03 -4.64857E+03 -6.17541E+01 -5.54320E+03 -2.84837E+03
 -2.17379E+03 -6.37194E+03  1.70486E+03 -7.34790E+03  4.49338E+03 -5.66739E+03  7.14514E+03 -1.77529E+03
  6.61391E+03  5.11149E+02  4.32354E+03  3.86124E+03  4.90103E+02  4.24043E+03 -1.46290E+03  3.59366E+03
 -2.29891E+03  1.71785E+03 -1.65620E+03 -3.83486E+02 -4.52030E+02 -1.91342E+02 -7.08567E+02  7.56156E+01
 -1.08551E+03  9.26950E+01 -1.50316E+03  2.85154E+02 -2.69361E+02 -1.19247E+03 -6.74260E+02 -1.86190E+03
  2.37265E+03 -1.55701E+03  2.64939E+03 -1.23863E+02  3.42716E+03  2.59037E+03  7.93147E+02  4.49747E+03
 -2.10020E+03  5.90838E+03 -4.46827E+03  3.22431E+03 -5.46166E+03 -6.04977E+02 -4.04152E+03 -3.66149E+03
 -1.49988E+03 -4.91010E+03  9.17110E+02 -3.89296E+03  2.95609E+03 -2.56868E+03  1.89033E+03 -6.86351E+01
  1.92400E+03  1.38180E+03 -4.14611E+02  1.28353E+03 -7.89444E+02 -2.66755E+02  1.49102E+02 -5.65643E+02
  1.88849E+03 -7.74172E+02  1.80740E+03  8.92023E+02  1.22845E+03  1.54704E+03  6.72721E+02  1.58649E+03
 -2.03646E+03  2.21748E+03 -3.24884E+03  3.21057E+02 -2.70054E+03 -2.84709E+03 -3.75742E+02 -3.12584E+03
  2.24075E+03 -3.52217E+03  2.93458E+03 -6.43004E+02  3.17236E+03  3.18845E+01  2.21903E+03  2.47124E+03
  1.03027E+03  2.68205E+03 -9.88236E+02  2.75703E+03 -2.22040E+03  1.86361E+03 -1.69601E+03 -7.38331E+01
 -1.15753E+03 -7.87336E+02 -9.37244E+02  7.98285E+01 -1.68028E+03  1.03705E+03 -2.29812E+03  5.87505E+01
 -2.23222E+03 -1.00042E+03 -9.82547E+02 -2.53187E+03  1.45028E+03 -3.46866E+03  2.46493E+03 -1.66854E+03
  3.40520E+03  4.72119E+02  1.22652E+03  2.08044E+03  8.70219E+01  2.59574E+03 -2.70169E+03  2.10761E+03
