 $NMID ID='MM_0lb_SNR400_9hz_g50_37.RAW', FMTDAT='(8E13.5)'
 TRAMP=1., VOLUME=1. $END
  3.09700E+05  1.08080E+03  3.37187E+05  2.51680E+05  8.49700E+04  3.38522E+05 -1.32462E+05  2.51907E+05
 -1.90341E+05  8.40021E+04 -1.13003E+05 -3.23094E+04  6.97949E+02 -5.06901E+04  5.35566E+04 -1.11968E+03
  3.53775E+04  5.27713E+04 -1.64020E+04  7.60372E+04 -6.11082E+04  6.43584E+04 -8.50639E+04  3.29099E+04
 -8.23932E+04 -1.17560E+04 -5.81927E+04 -5.24224E+04 -1.54283E+04 -7.08110E+04  2.82053E+04 -4.69677E+04
  4.11961E+04  3.69913E+03  1.66007E+04  4.89543E+04 -3.48252E+04  4.88681E+04 -6.84299E+04  1.06945E+03
 -5.49197E+04 -5.78564E+04 -7.35916E+03 -7.95032E+04  3.43100E+04 -5.64539E+04  5.04022E+04 -1.82941E+04
  4.50185E+04  1.15018E+04  3.26425E+04  2.59875E+04  1.58735E+04  3.02518E+04 -5.65387E+03  2.76911E+04
 -2.23090E+04  1.18402E+04 -1.79369E+04 -5.89011E+03  6.91944E+03 -7.55605E+03  2.39939E+04  1.42921E+04
  7.80874E+03  3.76962E+04 -3.37661E+04  3.71429E+04 -6.48826E+04  2.88331E+03 -5.93506E+04 -4.48141E+04
 -1.22650E+04 -6.55353E+04  4.16869E+04 -4.85452E+04  6.07658E+04 -2.77031E+03  3.74313E+04  3.46912E+04
 -6.14601E+03  3.93026E+04 -3.24990E+04  1.85170E+04 -3.33628E+04 -2.91702E+03 -1.96539E+04 -1.17965E+04
 -9.68828E+03 -1.47279E+04 -6.80144E+02 -1.93609E+04  8.12119E+03 -2.30309E+04  1.61257E+04 -1.31610E+04
  9.98350E+03  5.82695E+03 -1.12656E+04  1.29000E+04 -2.37433E+04 -7.34323E+03 -8.13202E+03 -3.76557E+04
  2.48906E+04 -4.65122E+04  5.20087E+04 -2.11084E+04  4.83241E+04  2.03455E+04  1.76426E+04  4.79126E+04
 -1.66952E+04  3.68871E+04 -2.76333E+04  2.03952E+03 -1.21776E+04 -2.89009E+04  2.14326E+04 -3.69537E+04
  4.44267E+04 -1.11148E+04  3.97821E+04  2.48829E+04  2.07171E+04  5.09699E+04 -8.34606E+03  5.61028E+04
 -3.56169E+04  3.80666E+04 -4.69304E+04  1.05108E+04 -4.72973E+04 -1.87072E+04 -2.63915E+04 -4.15729E+04
  7.49432E+03 -4.12969E+04  3.46060E+04 -1.71885E+04  3.21196E+04  1.06621E+04  5.16825E+03  2.05972E+04
 -1.48270E+04  8.97169E+03 -1.11057E+04 -7.17235E+03  5.31859E+03 -1.13942E+04  1.80269E+04  5.88134E+03
  1.48522E+04  2.34005E+04 -4.78839E+03  2.75591E+04 -2.32719E+04  1.46611E+04 -3.11476E+04 -3.31279E+03
 -2.52206E+04 -1.87759E+04 -1.15692E+04 -2.52671E+04  2.64197E+03 -2.55945E+04  2.05194E+04 -2.28061E+04
  3.14765E+04 -1.41390E+04  3.82249E+04  5.05563E+03  2.72742E+04  2.42417E+04  4.85530E+03  4.06451E+04
 -2.03289E+04  3.39361E+04 -3.10173E+04  1.21011E+04 -2.29296E+04 -1.04571E+04 -4.94449E+03 -1.26888E+04
  8.13952E+02 -1.64255E+03 -7.86855E+03  8.70943E+03 -2.03217E+04  5.34437E+03 -2.05609E+04 -8.48509E+03
 -1.15610E+04 -2.31325E+04  5.76071E+03 -2.74419E+04  1.88027E+04 -1.96348E+04  2.22218E+04 -1.71776E+03
  1.40884E+04  1.69247E+04 -2.03237E+03  2.39269E+04 -1.66557E+04  1.37073E+04 -2.28730E+04 -5.12530E+03
 -1.68502E+04 -2.01306E+04 -1.68180E+03 -2.84070E+04  1.18323E+04 -2.35120E+04  2.27310E+04 -1.27066E+04
  2.26427E+04  1.70388E+02  1.62101E+04  5.58241E+03  8.93203E+03  1.96716E+03  1.19234E+04 -2.45713E+03
  2.23896E+04  3.75633E+03  2.63079E+04  1.89234E+04  1.71075E+04  3.75146E+04 -2.84393E+03  4.46183E+04
 -2.51965E+04  3.78491E+04 -4.17587E+04  1.91031E+04 -4.42309E+04 -3.25994E+03 -3.69703E+04 -2.62305E+04
 -1.41163E+04 -3.65244E+04  1.28449E+04 -3.26475E+04  2.83281E+04 -1.49885E+04  2.42858E+04  7.79414E+03
  8.38423E+03  1.92080E+04 -1.17175E+04  1.58083E+04 -1.98615E+04  2.57162E+03 -1.54312E+04 -1.34488E+04
 -5.14648E+02 -1.97888E+04  1.09958E+04 -1.44281E+04  1.38744E+04 -1.61112E+03  3.75729E+03  7.60633E+03
 -8.92792E+03  4.43567E+03 -9.77395E+03 -7.20374E+03 -1.93628E+03 -1.87012E+04  1.18268E+04 -2.03635E+04
  2.38130E+04 -1.06883E+04  2.65810E+04  3.85191E+03  2.23449E+04  1.86122E+04  1.07395E+04  2.87037E+04
 -5.95936E+03  3.09771E+04 -2.03452E+04  1.96700E+04 -2.31293E+04  4.14169E+03 -1.56215E+04 -6.27834E+03
 -6.61321E+03 -6.80872E+03 -3.90678E+02 -1.91241E+02 -3.32484E+03  4.12442E+03 -7.30093E+03  4.95858E+03
 -1.38605E+04 -1.09850E+03 -1.51062E+04 -1.27224E+04 -5.52278E+03 -1.90426E+04  5.83418E+03 -1.55682E+04
  1.28501E+04 -6.26063E+03  9.11218E+03  4.23681E+03 -5.12940E+02  6.01980E+03 -7.34542E+03  3.97791E+02
 -7.97456E+03 -9.67545E+03 -7.98591E+02 -1.56714E+04  8.42596E+03 -1.61663E+04  2.01846E+04 -9.22715E+03
  2.32332E+04  1.94538E+03  1.70112E+04  1.36315E+04  3.10832E+03  1.87815E+04 -9.53083E+03  1.55381E+04
 -1.33027E+04  5.10309E+03 -6.73020E+03 -3.77565E+03  2.48579E+03 -5.21851E+03  8.47933E+03 -8.22108E+02
  7.47969E+03  6.84151E+03  1.31061E+03  1.29275E+04 -9.64559E+03  1.19301E+04 -1.46218E+04  3.26024E+03
 -1.02159E+04 -7.55713E+03  8.44069E+02 -1.38366E+04  8.82730E+03 -7.02648E+03  1.02091E+04  3.24390E+03
  1.25726E+03  9.88559E+03 -7.69900E+03  1.25628E+04 -1.35552E+04  5.64668E+03 -1.39697E+04 -4.66128E+03
 -8.62146E+03 -1.53611E+04  4.21337E+03 -1.88478E+04  1.57070E+04 -1.06765E+04  1.67694E+04  2.73276E+03
  9.81912E+03  1.25288E+04 -4.61913E+02  1.61377E+04 -1.18855E+04  9.00722E+03 -1.30243E+04 -1.34171E+03
 -1.04633E+04 -1.01644E+04 -2.00668E+03 -1.17438E+04  6.28230E+03 -9.79923E+03  7.60190E+03 -3.80687E+03
  4.67248E+03  2.40462E+03 -1.53708E+03  1.47071E+03 -7.73866E+02 -3.86296E+03  2.36056E+03 -7.63226E+03
  1.09197E+04 -5.11817E+03  1.62414E+04  1.45701E+03  1.53503E+04  1.08083E+04  1.03942E+04  2.04884E+04
 -5.32114E+03  2.32536E+04 -1.98308E+04  1.86791E+04 -2.63778E+04  4.08844E+03 -2.02190E+04 -9.04869E+03
 -1.00142E+04 -1.71999E+04 -7.79514E+02 -1.49135E+04  5.00660E+03 -7.86296E+03  4.32620E+03 -5.21680E+03
  3.89023E+03 -2.97579E+03  3.31107E+03 -3.89894E+03  6.43829E+03 -3.60653E+03  7.86483E+03 -1.30965E+03
  1.11223E+04  2.92899E+03  5.53078E+03  9.16560E+03 -2.32576E+03  1.17681E+04 -1.07790E+04  8.11743E+03
 -1.55071E+04 -1.69957E+03 -9.58202E+03 -1.01172E+04 -1.33548E+03 -1.58945E+04  9.12409E+03 -1.50546E+04
  1.64534E+04 -8.83508E+03  1.93843E+04  3.05392E+03  1.43589E+04  1.41029E+04  2.39410E+03  1.71597E+04
 -6.86689E+03  1.38325E+04 -1.09857E+04  4.90809E+03 -7.40050E+03 -1.02900E+03 -2.34090E+03 -1.81074E+03
 -1.58803E+03 -7.02391E+02 -3.43883E+03  2.85013E+03 -5.48346E+03  2.70092E+03 -1.07413E+04 -2.10931E+03
 -7.25920E+03 -1.05726E+04  1.89959E+02 -1.44260E+04  8.67481E+03 -1.37539E+04  1.46035E+04 -4.41057E+03
  1.52852E+04  7.98416E+03  7.36600E+03  1.37545E+04 -2.74538E+03  1.46541E+04 -1.08555E+04  9.24169E+03
 -1.47613E+04  6.47317E+02 -1.06509E+04 -9.54641E+03 -1.25627E+03 -1.19766E+04  7.21790E+03 -9.64169E+03
  8.69555E+03 -2.93672E+03  5.49362E+03  1.99161E+03  2.13244E+03  4.18715E+03  2.14326E+03  2.16449E+03
  2.83080E+03  1.65897E+03  4.41140E+03  2.65005E+03  4.25374E+03  5.18254E+03  3.90884E+03  7.38481E+03
 -2.64789E+03  1.17086E+04 -1.07139E+04  1.08464E+04 -1.46404E+04  3.08051E+03 -1.47465E+04 -5.93934E+03
 -7.73563E+03 -1.51753E+04  2.95610E+03 -1.62429E+04  1.03501E+04 -1.05724E+04  1.23147E+04 -2.66070E+03
  1.07668E+04  5.35281E+03  2.76644E+03  9.62695E+03 -4.66332E+03  4.99294E+03 -5.79219E+03 -5.90837E+02
 -2.73264E+03 -5.83385E+03  3.73517E+03 -6.53798E+03  6.49535E+03 -3.53876E+03  6.13233E+03  2.31303E+03
  3.65184E+03  3.10538E+03  9.66407E+02  2.24183E+03 -8.25590E+02  1.88855E+03  2.17877E+03 -1.14266E+03
  2.92841E+03 -1.23661E+03  5.49045E+03  2.52642E+03  4.56230E+03  7.98088E+03 -9.65396E+02  1.07984E+04
 -6.99247E+03  6.30624E+03 -9.71541E+03  7.76009E+02 -7.76362E+03 -3.18269E+03 -3.66807E+03 -5.53773E+03
  1.02656E+03 -5.92221E+03  3.74742E+03 -2.47757E+03  3.15258E+03  2.80359E+03 -1.25329E+03  5.21424E+03
 -5.72569E+03  2.19881E+03 -6.93011E+03 -3.09709E+03 -3.24244E+03 -8.42667E+03  1.69653E+03 -8.51290E+03
  4.55865E+03 -5.26122E+03  6.39148E+03 -6.96398E+02  5.38893E+03  1.41052E+03  3.34972E+02  4.49552E+03
 -3.12190E+03  1.10395E+03 -3.23409E+03 -2.88764E+03  1.50148E+03 -6.20695E+03  8.37278E+03 -4.92489E+03
  9.99993E+03  8.06521E+02  9.43014E+03  6.72842E+03  2.57180E+03  1.06310E+04 -3.79848E+03  9.06269E+03
 -8.48078E+03  4.70848E+03 -8.54884E+03 -1.42622E+03 -4.96269E+03 -6.07549E+03  1.66901E+03 -6.24313E+03
  5.90339E+03 -2.87916E+03  5.62534E+03  3.41080E+03  1.30435E+03  5.79502E+03 -5.27344E+02  5.06340E+03
 -2.36451E+03  3.33176E+03 -2.11945E+03  1.01906E+03 -8.64279E+02  1.46695E+03 -1.69507E+03  1.90534E+03
 -1.77840E+03  4.23174E+03 -7.39773E+03  3.36675E+03 -1.04573E+04 -1.30895E+02 -1.15108E+04 -6.50885E+03
 -5.45833E+03 -1.36587E+04  2.09578E+03 -1.59680E+04  1.01444E+04 -1.22213E+04  1.41007E+04 -4.82184E+03
  1.36616E+04  2.18288E+03  8.41120E+03  9.39667E+03  4.52902E+02  1.00167E+04 -4.15295E+03  7.57086E+03
 -5.90004E+03  2.39601E+03 -3.64183E+03 -9.07807E+02 -1.43901E+03 -1.39734E+03 -9.25680E+02  3.17321E+02
 -2.00935E+03  1.37766E+02 -2.43449E+03 -7.19764E+02 -1.30991E+03 -2.00850E+03  1.01798E+02 -3.94395E+03
  4.79597E+03 -3.81832E+03  7.35186E+03 -7.51323E+01  7.99618E+03  5.92186E+03  1.43824E+03  1.05766E+04
 -5.51664E+03  1.24242E+04 -1.05638E+04  6.28604E+03 -1.22561E+04 -8.36976E+02 -9.71509E+03 -7.19979E+03
 -4.91383E+03 -1.07698E+04  2.24865E+03 -9.88487E+03  6.77156E+03 -5.15639E+03  6.89302E+03  4.15192E+02
  3.22333E+03  3.41961E+03 -6.69335E+02  2.19927E+03 -2.25678E+03 -1.90629E+02  2.24616E+01 -2.32575E+03
  2.64637E+03 -1.78128E+03  3.58940E+03  1.48265E+03  2.84132E+03  4.72983E+03 -7.10477E+02  6.06518E+03
 -5.03493E+03  5.24368E+03 -6.72030E+03  3.08542E+02 -6.70933E+03 -4.56512E+03 -1.64528E+03 -8.77706E+03
  4.84841E+03 -7.25942E+03  7.74935E+03 -1.87321E+03  8.40867E+03  2.24474E+03  4.10488E+03  5.31359E+03
 -7.00577E+01  6.97479E+03 -2.23240E+03  5.57561E+03 -4.39833E+03  2.76931E+03 -3.67318E+03  3.71214E+02
 -2.37979E+03  5.32916E+01 -1.77111E+03  1.06064E+03 -3.56859E+03  1.77016E+03 -5.84325E+03 -2.07600E+03
 -5.95521E+03 -3.87331E+03 -1.61998E+03 -6.87794E+03  3.90083E+03 -7.50748E+03  6.31538E+03 -3.25967E+03
  6.40355E+03  1.04265E+03  3.84117E+03  4.91579E+03 -1.18547E+03  6.24898E+03 -4.69687E+03  4.43709E+03
