 $NMID ID='MM_0lb_SNR400_9hz_g40_13.RAW', FMTDAT='(8E13.5)'
 TRAMP=1., VOLUME=1. $END
  3.09024E+05  4.45341E+02  3.37491E+05  2.51069E+05  8.50404E+04  3.38499E+05 -1.32404E+05  2.51219E+05
 -1.91109E+05  8.32539E+04 -1.12786E+05 -3.15014E+04  3.86418E+02 -5.13367E+04  5.39874E+04 -4.24956E+02
  3.50588E+04  5.29454E+04 -1.62697E+04  7.56813E+04 -6.08996E+04  6.42703E+04 -8.57242E+04  3.21764E+04
 -8.25326E+04 -1.12201E+04 -5.75415E+04 -5.19236E+04 -1.46463E+04 -7.09686E+04  2.86448E+04 -4.66495E+04
  4.04799E+04  3.62357E+03  1.67101E+04  4.85106E+04 -3.43659E+04  4.80507E+04 -6.78080E+04  2.26461E+02
 -5.47341E+04 -5.71474E+04 -6.68202E+03 -7.85481E+04  3.44200E+04 -5.57156E+04  4.88532E+04 -1.80520E+04
  4.48366E+04  1.17593E+04  3.33093E+04  2.66551E+04  1.62112E+04  3.04790E+04 -4.86461E+03  2.83592E+04
 -2.21692E+04  1.22581E+04 -1.72772E+04 -6.09683E+03  6.42561E+03 -7.41266E+03  2.31263E+04  1.35000E+04
  7.14719E+03  3.71075E+04 -3.35104E+04  3.63207E+04 -6.49348E+04  2.26520E+03 -5.97933E+04 -4.44616E+04
 -1.23622E+04 -6.44302E+04  4.13232E+04 -4.67282E+04  6.06390E+04 -2.42437E+03  3.58806E+04  3.43417E+04
 -5.08465E+03  3.87394E+04 -3.15513E+04  1.86207E+04 -3.22520E+04 -3.38299E+03 -1.86462E+04 -1.22876E+04
 -9.37560E+03 -1.45525E+04 -7.56607E+02 -1.98394E+04  8.83200E+03 -2.36570E+04  1.58587E+04 -1.34256E+04
  1.08623E+04  6.44776E+03 -9.90673E+03  1.22166E+04 -2.31942E+04 -6.99976E+03 -8.69966E+03 -3.66131E+04
  2.49613E+04 -4.69154E+04  5.09239E+04 -2.08241E+04  4.81187E+04  2.03180E+04  1.70183E+04  4.74748E+04
 -1.67135E+04  3.52985E+04 -2.78842E+04  2.46527E+03 -1.12534E+04 -2.90290E+04  2.14276E+04 -3.66096E+04
  4.37416E+04 -1.00461E+04  3.86829E+04  2.39512E+04  2.05886E+04  5.01613E+04 -8.28526E+03  5.49121E+04
 -3.39449E+04  3.74265E+04 -4.60871E+04  1.04082E+04 -4.66325E+04 -1.85929E+04 -2.57944E+04 -4.12728E+04
  7.50732E+03 -4.13801E+04  3.34233E+04 -1.56998E+04  3.09477E+04  1.18204E+04  5.61205E+03  2.02966E+04
 -1.39008E+04  9.16037E+03 -1.16497E+04 -6.92807E+03  5.67373E+03 -1.16664E+04  1.85367E+04  5.09267E+03
  1.48646E+04  2.32730E+04 -5.74603E+03  2.73887E+04 -2.31513E+04  1.32303E+04 -3.12518E+04 -3.58352E+03
 -2.43984E+04 -1.86972E+04 -1.06059E+04 -2.42664E+04  5.00769E+03 -2.45206E+04  1.90811E+04 -2.25362E+04
  3.11782E+04 -1.42412E+04  3.79335E+04  4.49654E+03  2.62603E+04  2.32590E+04  4.84600E+03  4.02344E+04
 -1.94661E+04  3.27590E+04 -3.04504E+04  1.22205E+04 -2.16459E+04 -9.03628E+03 -4.56407E+03 -1.33774E+04
  5.84816E+02 -1.15116E+03 -7.95263E+03  8.52341E+03 -1.85281E+04  5.42688E+03 -1.97126E+04 -9.75833E+03
 -1.13767E+04 -2.21354E+04  6.44124E+03 -2.73042E+04  1.83028E+04 -1.90495E+04  2.14245E+04 -7.25496E+02
  1.38763E+04  1.54173E+04 -1.22851E+03  2.31574E+04 -1.57797E+04  1.37946E+04 -2.32157E+04 -5.38818E+03
 -1.67390E+04 -2.06590E+04 -2.27633E+03 -2.71988E+04  1.17209E+04 -2.25539E+04  2.13586E+04 -1.13254E+04
  2.10527E+04 -1.87784E+01  1.51859E+04  5.33993E+03  7.87558E+03  1.62510E+03  1.11075E+04 -2.18114E+03
  2.14569E+04  2.13888E+03  2.47567E+04  1.70479E+04  1.72482E+04  3.60358E+04 -2.82911E+03  4.24975E+04
 -2.41579E+04  3.55809E+04 -4.05126E+04  1.87752E+04 -4.31006E+04 -2.64374E+03 -3.42324E+04 -2.47343E+04
 -1.35207E+04 -3.44005E+04  1.34491E+04 -3.13295E+04  2.62654E+04 -1.51504E+04  2.32821E+04  7.09454E+03
  8.11204E+03  1.80574E+04 -1.11146E+04  1.57607E+04 -2.01493E+04  2.33776E+03 -1.46688E+04 -1.24181E+04
  8.65850E+00 -1.88276E+04  9.79683E+03 -1.49001E+04  1.30023E+04 -1.58562E+03  2.42840E+03  7.73230E+03
 -9.11258E+03  3.34667E+03 -8.52795E+03 -6.88411E+03 -1.75473E+03 -1.73473E+04  1.09705E+04 -1.84828E+04
  2.16975E+04 -1.12379E+04  2.45063E+04  3.77852E+03  2.22739E+04  1.78750E+04  1.01255E+04  2.76023E+04
 -4.99224E+03  2.99373E+04 -1.89119E+04  1.83690E+04 -2.13670E+04  3.94749E+03 -1.44647E+04 -6.20486E+03
 -5.91599E+03 -7.29506E+03 -8.27375E+02  1.61833E+02 -3.00683E+03  3.08890E+03 -6.49280E+03  5.27274E+03
 -1.35528E+04 -1.38565E+03 -1.47788E+04 -1.14415E+04 -5.23646E+03 -1.90412E+04  6.45144E+03 -1.56359E+04
  1.28157E+04 -5.81111E+03  9.57053E+03  3.57857E+03 -2.71776E+01  6.04701E+03 -7.84345E+03  2.62585E+02
 -7.24645E+03 -9.14080E+03 -9.95347E+02 -1.49578E+04  8.68578E+03 -1.52399E+04  1.91251E+04 -8.75556E+03
  2.17496E+04  1.35378E+03  1.54833E+04  1.34418E+04  2.28106E+03  1.88486E+04 -8.65350E+03  1.49416E+04
 -1.17661E+04  4.51933E+03 -6.17094E+03 -3.70506E+03  1.51622E+03 -4.13298E+03  8.33323E+03 -8.94736E+02
  7.11780E+03  6.90468E+03  1.13365E+03  1.21365E+04 -9.36627E+03  1.22388E+04 -1.56352E+04  2.16533E+03
 -9.66384E+03 -8.25305E+03  2.30904E+02 -1.25959E+04  8.69304E+03 -5.71540E+03  8.73452E+03  2.36592E+03
  1.75347E+03  9.57507E+03 -8.01700E+03  1.09553E+04 -1.32660E+04  4.63198E+03 -1.29863E+04 -5.05474E+03
 -7.36772E+03 -1.48158E+04  2.90084E+03 -1.67192E+04  1.50741E+04 -1.06353E+04  1.57135E+04  3.25391E+03
  1.02808E+04  1.22231E+04 -1.15425E+03  1.54121E+04 -1.09587E+04  8.12354E+03 -1.17518E+04 -1.04773E+03
 -1.05727E+04 -1.01961E+04 -1.88752E+03 -1.22569E+04  5.52086E+03 -9.52806E+03  6.64183E+03 -3.93289E+03
  4.83098E+03  1.91661E+03 -6.45141E+02  1.77491E+03 -3.32340E+02 -3.16484E+03  2.99014E+03 -7.07606E+03
  1.01860E+04 -4.27069E+03  1.46600E+04  2.01050E+03  1.42163E+04  1.07695E+04  9.63449E+03  1.95981E+04
 -4.05580E+03  2.33046E+04 -1.85483E+04  1.70845E+04 -2.40588E+04  2.95620E+03 -1.91050E+04 -8.85552E+03
 -9.34256E+03 -1.63610E+04  3.06321E+01 -1.31899E+04  5.10819E+03 -7.31511E+03  5.57306E+03 -5.01087E+03
  3.81810E+03 -3.16802E+03  4.03546E+03 -3.42574E+03  5.60452E+03 -3.70535E+03  7.66517E+03 -1.87090E+03
  1.03660E+04  1.79280E+03  5.43712E+03  8.65255E+03 -2.64762E+03  1.04882E+04 -1.02154E+04  8.21766E+03
 -1.47080E+04 -1.00612E+03 -9.35161E+03 -9.24763E+03 -1.48745E+03 -1.47823E+04  8.49847E+03 -1.45722E+04
  1.54969E+04 -8.45862E+03  1.86971E+04  2.58636E+03  1.21829E+04  1.33608E+04  1.79947E+03  1.69552E+04
 -7.62179E+03  1.37855E+04 -1.01753E+04  5.00172E+03 -7.00996E+03 -1.28392E+03 -2.85027E+03 -2.32421E+03
 -1.11269E+03  5.97821E+02 -2.86448E+03  2.17919E+03 -5.44851E+03  2.53304E+03 -1.08342E+04 -1.81527E+03
 -7.13134E+03 -9.27346E+03 -5.68911E+02 -1.33499E+04  8.81718E+03 -1.22673E+04  1.41953E+04 -3.69187E+03
  1.29627E+04  5.94620E+03  6.71565E+03  1.18211E+04 -3.36912E+03  1.47625E+04 -9.53895E+03  9.43071E+03
 -1.32152E+04  2.17405E+02 -1.04934E+04 -9.16472E+03 -1.37881E+03 -1.13502E+04  5.98443E+03 -8.17916E+03
  8.39067E+03 -2.43772E+03  6.07122E+03  1.73316E+03  2.16880E+03  3.97290E+03  1.46028E+03  9.57305E+02
  2.03010E+03  1.29518E+03  3.08466E+03  1.81766E+03  4.20238E+03  5.45919E+03  3.75405E+03  7.16102E+03
 -2.42554E+03  1.09344E+04 -9.80259E+03  1.14257E+04 -1.45701E+04  3.00724E+03 -1.46730E+04 -6.17485E+03
 -6.93333E+03 -1.43031E+04  2.12326E+03 -1.53951E+04  9.21276E+03 -1.06909E+04  1.19920E+04 -2.29744E+03
  8.83499E+03  6.02673E+03  1.72477E+03  8.86206E+03 -4.24244E+03  4.85111E+03 -5.29367E+03 -1.59108E+03
 -2.60382E+03 -5.99664E+03  3.46202E+03 -5.84563E+03  7.13762E+03 -3.20623E+03  5.83676E+03  1.63339E+03
  3.18416E+03  2.20867E+03  1.28845E+03  2.41653E+03 -6.75412E+02  1.82889E+03  1.66034E+03 -1.14066E+03
  2.54803E+03 -4.55505E+02  6.04858E+03  2.14611E+03  3.17827E+03  8.13727E+03 -8.00127E+02  9.49802E+03
 -6.19482E+03  6.51934E+03 -8.69480E+03  1.35193E+03 -7.40625E+03 -3.38509E+03 -2.84069E+03 -5.07041E+03
  7.26443E+02 -5.11540E+03  3.92704E+03 -2.36581E+03  2.64224E+03  2.76208E+03 -1.43561E+03  4.60116E+03
 -5.24898E+03  3.89278E+03 -6.70635E+03 -2.68292E+03 -4.15418E+03 -8.33165E+03  1.70439E+03 -7.75676E+03
  4.58745E+03 -4.66901E+03  5.33823E+03 -3.74804E+02  5.46083E+03  2.37351E+03  6.43656E+02  4.83027E+03
 -2.65633E+03  1.14940E+03 -4.14944E+03 -2.79813E+03  9.83844E+02 -6.26354E+03  7.08076E+03 -5.18741E+03
  9.02445E+03  4.24367E+02  9.00247E+03  5.75720E+03  3.25492E+03  9.64093E+03 -3.21582E+03  8.73065E+03
 -7.89612E+03  3.32549E+03 -7.85283E+03 -8.88522E+02 -3.84633E+03 -6.17597E+03  1.54287E+03 -5.78979E+03
  5.95508E+03 -3.49154E+03  4.97174E+03  2.72438E+03  1.79642E+03  4.76457E+03 -1.17414E+03  4.36340E+03
 -2.51507E+03  2.32286E+03 -2.37184E+03  2.54641E+02 -1.65829E+03  1.02834E+03 -1.61810E+03  1.62302E+03
 -2.62633E+03  3.76190E+03 -7.16496E+03  3.38671E+03 -8.80853E+03 -4.17411E+02 -1.12505E+04 -6.98164E+03
 -5.23833E+03 -1.23663E+04  2.27310E+03 -1.45026E+04  8.32296E+03 -1.08089E+04  1.35426E+04 -4.76271E+03
  1.21980E+04  2.42008E+03  7.88356E+03  8.31985E+03  1.84877E+02  9.88765E+03 -3.84051E+03  7.39117E+03
 -5.28015E+03  2.14309E+03 -3.85675E+03 -6.43549E+02 -1.54079E+03 -4.69330E+02 -1.30328E+03 -1.23857E+02
 -1.91330E+03  1.12829E+03 -2.59035E+03 -8.16463E+02 -1.12805E+03 -2.32827E+03  7.05555E+02 -3.39647E+03
  4.47963E+03 -3.04980E+03  5.76841E+03 -4.41952E+02  6.65717E+03  5.00048E+03  2.09052E+03  9.81278E+03
 -4.48166E+03  1.09128E+04 -1.02588E+04  6.83104E+03 -1.16496E+04 -4.43660E+02 -8.89401E+03 -7.40263E+03
 -3.47965E+03 -1.00593E+04  2.43121E+03 -9.05078E+03  6.92648E+03 -4.48172E+03  6.71310E+03  1.62944E+02
  3.31588E+03  3.20656E+03 -1.68255E+02  2.50042E+03 -1.15701E+03 -8.87207E+01  6.45618E+02 -2.19901E+03
  3.22320E+03 -1.09907E+03  4.40039E+03  1.41048E+03  3.13936E+03  4.06911E+03  3.89130E+02  4.97653E+03
 -4.81230E+03  4.39592E+03 -6.47883E+03  9.11129E+02 -5.37976E+03 -4.12201E+03 -1.49955E+03 -7.54183E+03
  4.83593E+03 -6.89600E+03  7.04899E+03 -2.12085E+03  7.41430E+03  1.99291E+03  3.94579E+03  5.70220E+03
  6.74915E+02  6.64469E+03 -2.32047E+03  4.44434E+03 -4.46067E+03  3.81147E+03 -2.50959E+03  2.88019E+02
 -2.29599E+03 -4.26478E+02 -1.91997E+03  6.89634E+02 -2.54223E+03  8.72607E+02 -4.91448E+03 -1.30184E+03
 -4.65415E+03 -3.22402E+03 -6.35171E+02 -6.74263E+03  2.98920E+03 -7.71279E+03  5.39068E+03 -3.25306E+03
  6.68609E+03  3.17523E+01  3.52816E+03  3.80365E+03 -6.32690E+01  5.53108E+03 -4.94787E+03  4.90947E+03
