 $NMID ID='MM_0lb_SNR400_15hz_g55_42.RAW', FMTDAT='(8E13.5)'
 TRAMP=1., VOLUME=1. $END
  3.09947E+05  6.63386E+02  3.38003E+05  2.50127E+05  8.49001E+04  3.37431E+05 -1.32404E+05  2.51564E+05
 -1.90328E+05  8.35189E+04 -1.11858E+05 -3.25245E+04  9.01457E+02 -5.04234E+04  5.38893E+04 -3.05808E+01
  3.54160E+04  5.24934E+04 -1.69438E+04  7.59531E+04 -6.03968E+04  6.36356E+04 -8.45840E+04  3.21809E+04
 -8.11804E+04 -1.12935E+04 -5.76701E+04 -5.10344E+04 -1.54350E+04 -6.99212E+04  2.69604E+04 -4.54687E+04
  4.07319E+04  4.12706E+03  1.64292E+04  4.78086E+04 -3.45796E+04  4.74117E+04 -6.66015E+04 -6.20758E+02
 -5.33420E+04 -5.68622E+04 -7.10993E+03 -7.69819E+04  3.38505E+04 -5.47584E+04  4.82619E+04 -1.73146E+04
  4.30646E+04  1.10731E+04  3.19899E+04  2.58609E+04  1.55392E+04  3.00569E+04 -6.04354E+03  2.68231E+04
 -2.23621E+04  1.26306E+04 -1.85387E+04 -4.98699E+03  5.58795E+03 -7.45982E+03  2.21420E+04  1.25257E+04
  7.18591E+03  3.52193E+04 -3.24500E+04  3.56828E+04 -6.33242E+04  2.15836E+03 -5.71013E+04 -4.27178E+04
 -1.28303E+04 -6.29692E+04  4.02954E+04 -4.57635E+04  5.79684E+04 -1.57914E+03  3.47363E+04  3.26675E+04
 -6.29735E+03  3.60585E+04 -3.03348E+04  1.60203E+04 -3.06387E+04 -4.57579E+03 -1.61545E+04 -1.06078E+04
 -7.97420E+03 -1.35211E+04 -6.49530E+02 -1.76513E+04  7.91731E+03 -2.29666E+04  1.63005E+04 -1.30726E+04
  1.10272E+04  5.34689E+03 -7.96292E+03  1.30031E+04 -2.15103E+04 -4.08230E+03 -8.14152E+03 -3.35982E+04
  2.33232E+04 -4.37203E+04  4.80970E+04 -1.97922E+04  4.52823E+04  1.87875E+04  1.60051E+04  4.43741E+04
 -1.62792E+04  3.31021E+04 -2.49506E+04  2.16638E+03 -9.46240E+03 -2.77462E+04  2.13344E+04 -3.38317E+04
  4.17107E+04 -9.01393E+03  3.52441E+04  2.38072E+04  1.85354E+04  4.60131E+04 -8.03960E+03  5.04643E+04
 -3.14739E+04  3.33475E+04 -4.19537E+04  9.87619E+03 -4.26113E+04 -1.66390E+04 -2.36582E+04 -3.81904E+04
  7.68234E+03 -3.75424E+04  3.17443E+04 -1.46205E+04  2.97607E+04  1.08329E+04  3.65967E+03  1.92267E+04
 -1.29573E+04  8.33212E+03 -9.64829E+03 -7.68466E+03  5.79893E+03 -1.08651E+04  1.77824E+04  5.99138E+03
  1.39886E+04  2.20254E+04 -6.04592E+03  2.51256E+04 -2.18422E+04  1.15115E+04 -2.79356E+04 -5.38165E+03
 -2.07179E+04 -1.71917E+04 -8.64101E+03 -2.07311E+04  4.45959E+03 -1.96632E+04  1.59359E+04 -1.79610E+04
  2.59312E+04 -1.26901E+04  3.25473E+04  2.87908E+03  2.37464E+04  1.96721E+04  4.59590E+03  3.61408E+04
 -1.75092E+04  2.99556E+04 -2.79215E+04  9.89442E+03 -2.14598E+04 -1.03624E+04 -4.92448E+03 -1.36985E+04
  2.02849E+03 -2.79476E+03 -4.46571E+03  6.33649E+03 -1.59928E+04  5.35299E+03 -1.64185E+04 -7.77528E+03
 -9.99488E+03 -1.90093E+04  5.36250E+03 -2.33968E+04  1.52428E+04 -1.67163E+04  1.82144E+04 -2.22122E+03
  1.15924E+04  1.28405E+04 -8.47986E+02  1.91479E+04 -1.28100E+04  1.05072E+04 -1.85722E+04 -4.15483E+03
 -1.40715E+04 -1.70766E+04 -1.88152E+03 -2.30091E+04  9.30783E+03 -1.80202E+04  1.86968E+04 -8.67809E+03
  1.80485E+04  4.47820E+02  1.22953E+04  4.70117E+03  6.39910E+03  6.72446E+02  9.45666E+03 -1.81320E+03
  1.73010E+04  2.66807E+03  1.79484E+04  1.48963E+04  1.29016E+04  3.02753E+04 -2.85490E+03  3.33649E+04
 -1.90643E+04  2.71360E+04 -3.17422E+04  1.38379E+04 -3.31233E+04 -2.16206E+03 -2.69976E+04 -1.90087E+04
 -1.17562E+04 -2.71076E+04  9.16438E+03 -2.37130E+04  2.01279E+04 -1.20983E+04  1.93798E+04  5.69842E+03
  7.15097E+03  1.40970E+04 -8.91129E+03  1.19151E+04 -1.59420E+04  2.28311E+03 -1.28038E+04 -9.19568E+03
 -1.67604E+02 -1.51501E+04  8.18266E+03 -1.11971E+04  9.49688E+03 -1.66138E+03  1.86454E+03  6.22160E+03
 -6.02699E+03  2.09343E+03 -5.63275E+03 -6.01343E+03  1.25867E+02 -1.29112E+04  1.01582E+04 -1.39737E+04
  1.60093E+04 -7.76683E+03  1.69966E+04  3.12295E+03  1.53096E+04  1.34676E+04  7.61514E+03  1.96055E+04
 -2.88561E+03  2.18417E+04 -1.37362E+04  1.34238E+04 -1.52807E+04  2.79566E+03 -1.09056E+04 -3.54089E+03
 -5.25410E+03 -4.50720E+03 -1.12688E+03  1.34243E+03 -2.12640E+03  2.59602E+03 -4.87937E+03  4.44711E+03
 -1.01206E+04 -9.39592E+02 -1.05621E+04 -9.41254E+03 -4.54675E+03 -1.48377E+04  4.11636E+03 -1.12393E+04
  9.79882E+03 -4.45851E+03  6.88247E+03  2.35314E+03  4.28401E+02  4.26107E+03 -5.33095E+03 -4.69158E+02
 -4.40980E+03 -6.85988E+03 -1.06993E+03 -1.01176E+04  6.26723E+03 -1.08269E+04  1.27079E+04 -5.99822E+03
  1.57894E+04  1.41219E+03  1.16909E+04  9.65409E+03  2.23009E+03  1.20366E+04 -6.63065E+03  1.15782E+04
 -8.78809E+03  3.36951E+03 -4.21385E+03 -2.43676E+03  1.41714E+03 -2.24631E+03  5.48759E+03 -8.91024E+02
  4.84041E+03  4.96046E+03  1.10085E+03  8.66947E+03 -5.88155E+03  8.03657E+03 -1.04318E+04  2.81786E+03
 -6.72645E+03 -5.00980E+03  4.43156E+02 -8.79943E+03  5.67637E+03 -4.63657E+03  5.84536E+03  1.38027E+03
  1.27402E+03  5.98760E+03 -6.04450E+03  7.29159E+03 -8.57486E+03  3.39709E+03 -7.45893E+03 -3.05163E+03
 -4.89331E+03 -8.82804E+03  2.00248E+03 -1.11560E+04  8.27597E+03 -6.93315E+03  9.74358E+03  1.51185E+03
  6.76696E+03  8.59668E+03  5.98457E+02  9.53798E+03 -7.18493E+03  5.74996E+03 -8.23771E+03 -1.23896E+03
 -7.74613E+03 -7.28942E+03 -1.07167E+03 -7.42179E+03  3.37849E+03 -6.24000E+03  4.61400E+03 -3.17361E+03
  3.74923E+03  5.37755E+02  7.77262E+01  1.04760E+03  4.07043E+01 -1.79456E+03  1.50489E+03 -3.87472E+03
  6.21251E+03 -2.03229E+03  8.67319E+03  1.19464E+03  8.86371E+03  5.04440E+03  6.90189E+03  1.13713E+04
 -2.52048E+03  1.34639E+04 -1.20855E+04  1.01965E+04 -1.44401E+04  1.90663E+03 -1.20849E+04 -4.39603E+03
 -6.28012E+03 -9.55161E+03 -5.64531E+02 -7.94530E+03  2.70715E+03 -4.23833E+03  2.99805E+03 -3.44747E+03
  1.81969E+03 -2.49795E+03  3.05504E+03 -2.94663E+03  4.18195E+03 -2.00670E+03  4.96203E+03 -2.56399E+02
  6.22136E+03  1.39517E+03  2.49761E+03  5.40935E+03 -1.86479E+03  4.67686E+03 -7.06572E+03  4.58145E+03
 -8.12534E+03 -1.50600E+03 -4.11568E+03 -5.42739E+03 -9.34639E+01 -8.26047E+03  5.23898E+03 -8.13575E+03
  8.68866E+03 -4.72294E+03  9.90516E+03  1.32645E+03  7.25694E+03  6.45956E+03  1.61636E+03  8.79558E+03
 -3.39577E+03  7.87800E+03 -5.72870E+03  3.08606E+03 -3.53502E+03 -1.07013E+03 -1.13318E+03 -1.20673E+03
 -3.67832E+02  4.28664E+02 -1.32325E+03  1.80631E+03 -3.11657E+03  1.27975E+03 -5.73149E+03 -8.09116E+02
 -3.04628E+03 -6.08660E+03  9.21104E+01 -7.62824E+03  4.82551E+03 -6.73522E+03  6.36199E+03 -1.88570E+03
  6.85543E+03  3.41632E+03  3.42678E+03  6.24471E+03 -1.37514E+03  6.83127E+03 -4.59358E+03  4.43551E+03
 -6.68750E+03  4.95056E+02 -4.57140E+03 -4.00498E+03 -7.50237E+02 -5.99539E+03  3.09545E+03 -4.03182E+03
  4.82251E+03 -1.38047E+03  2.71492E+03  1.22820E+03  9.03116E+02  2.01524E+03  1.05382E+03  1.14754E+03
  1.87923E+03  9.45853E+02  1.76825E+03  1.40001E+03  1.82447E+03  2.74471E+03  2.31982E+03  2.54960E+03
 -1.65609E+03  5.46143E+03 -3.88693E+03  6.06543E+03 -5.99077E+03  1.33363E+03 -7.77042E+03 -1.84769E+03
 -3.43900E+03 -7.32491E+03  1.61165E+03 -8.07749E+03  3.97080E+03 -4.52721E+03  6.00448E+03 -1.71820E+03
  4.77117E+03  3.32870E+03  6.80037E+02  4.12416E+03 -1.12892E+03  2.68189E+03 -3.02638E+03 -5.66018E+02
 -1.20153E+03 -3.27704E+03  1.94006E+03 -2.56290E+03  2.15361E+03 -1.71331E+03  2.39720E+03  1.00489E+03
  1.25649E+03  9.22763E+02  1.34610E+03  6.25980E+02 -4.68035E+02  5.44634E+02  1.68875E+03 -6.79303E+02
  8.51650E+02 -6.73654E+02  2.96064E+03  1.07399E+03  1.28582E+03  3.96942E+03 -6.46586E+02  5.08212E+03
 -3.51303E+03  2.27760E+03 -3.24769E+03  5.75355E+02 -2.95924E+03 -1.62357E+03 -3.95032E+02 -2.05714E+03
  5.52531E+02 -1.98822E+03  1.56722E+03 -1.65252E+03  9.01526E+02  1.94629E+03 -9.31727E+02  2.55139E+03
 -2.65309E+03  6.67520E+02 -1.90027E+03 -2.01601E+03 -1.72327E+03 -4.09426E+03  3.60333E+02 -3.19653E+03
  1.79839E+03 -1.16161E+03  1.63198E+03 -1.72125E+02  2.31001E+03  6.03256E+02  9.91871E+02  1.56219E+03
 -1.05610E+03  1.14616E+03 -2.02772E+03 -9.97044E+02  8.35047E+02 -1.99882E+03  2.65574E+03 -1.76078E+03
  2.86104E+03  6.69926E+01  4.60563E+03  2.49304E+03  1.45954E+03  3.24196E+03 -1.41721E+03  3.60442E+03
 -3.32160E+03  1.60338E+03 -3.04711E+03 -7.84575E+02 -2.20211E+03 -2.72477E+03  4.59239E+02 -1.94026E+03
  3.05227E+03 -1.22173E+03  1.74303E+03  9.47876E+02  6.82995E+02  2.52740E+03  4.45286E+01  1.81538E+03
 -6.39120E+02  1.26677E+03 -7.18470E+02  2.04413E+02  2.61002E+02  8.57563E+02 -9.73402E+02  9.30601E+02
 -1.10004E+03  2.16675E+03 -2.87761E+03  9.59083E+02 -3.72044E+03  2.00238E+02 -4.04160E+03 -2.47203E+03
 -2.59548E+03 -4.26509E+03  1.04622E+03 -6.01172E+03  2.60208E+03 -4.50320E+03  5.68899E+03 -1.96991E+03
  4.89599E+03  3.75072E+02  3.12010E+03  3.42173E+03 -5.88931E+02  3.06274E+03 -1.38293E+03  2.43965E+03
 -1.29211E+03  1.78595E+03 -1.44120E+03 -4.93790E+02 -8.09642E+02  2.87814E+02 -1.19032E+03  6.89889E+02
 -1.03871E+03  2.26847E+02 -1.01917E+03  2.97190E+02  1.02774E+02 -1.56771E+03 -3.96263E+02 -1.80704E+03
  2.17803E+03 -8.85307E+02  1.63168E+03 -2.67436E+02  1.36906E+03  1.13795E+03 -9.45823E+01  2.86732E+03
 -1.76009E+03  4.57998E+03 -3.33377E+03  2.24016E+03 -4.10646E+03 -4.89141E+02 -2.72673E+03 -2.28788E+03
 -1.44088E+03 -2.50155E+03  2.57338E+02 -3.56888E+03  1.22871E+03 -9.08007E+02  2.15665E+03  5.23308E+02
  6.37186E+02  2.14884E+02 -1.05211E+03  5.64277E+02 -3.51103E+02 -2.05180E+02 -1.54730E+01 -4.97550E+02
  8.87910E+02  1.96830E+01  1.11518E+03  8.71792E+02  7.85565E+02  1.79512E+03  6.55383E+02  1.45110E+03
 -1.04528E+03  2.48830E+02 -9.13390E+02  1.27553E+02 -1.99671E+03 -8.26150E+02 -8.94465E+01 -2.51462E+03
  1.23108E+03 -1.81913E+03  1.80534E+03 -2.49314E+02  2.14940E+03  2.00792E+02  1.29152E+03  1.77593E+03
  1.68297E+02  2.02050E+03 -1.13351E+03  1.81857E+03 -1.41378E+03  1.04700E+03 -1.25020E+03  3.43810E+02
  3.68021E+02  6.30154E+02 -6.65601E+02  4.31052E+02 -1.06959E+03  5.27830E+02 -1.64895E+03 -5.00576E+02
 -2.13658E+03 -2.07814E+02 -1.14870E+03 -2.18881E+03  1.16432E+03 -2.08940E+03  1.48350E+03 -3.02878E+02
  2.45409E+03 -1.19091E+02  9.72118E+01  7.34006E+02 -6.55302E+02  1.77688E+03 -5.15007E+02  1.66949E+03
