 $NMID ID='MM_0lb_SNR400_15hz_g60_98.RAW', FMTDAT='(8E13.5)'
 TRAMP=1., VOLUME=1. $END
  3.10466E+05  5.04331E+02  3.37544E+05  2.50831E+05  8.49428E+04  3.37449E+05 -1.32801E+05  2.51010E+05
 -1.90735E+05  8.31355E+04 -1.12212E+05 -3.29920E+04  7.08939E+02 -5.07733E+04  5.34306E+04 -1.44685E+02
  3.55634E+04  5.31582E+04 -1.63290E+04  7.52340E+04 -6.04654E+04  6.39801E+04 -8.43004E+04  3.13531E+04
 -8.12021E+04 -1.11535E+04 -5.76998E+04 -5.18419E+04 -1.44814E+04 -7.00146E+04  2.80722E+04 -4.58083E+04
  3.98285E+04  3.83762E+03  1.59590E+04  4.78867E+04 -3.45564E+04  4.75461E+04 -6.65158E+04 -2.74293E+01
 -5.34658E+04 -5.70810E+04 -7.45290E+03 -7.73274E+04  3.36316E+04 -5.51718E+04  4.85918E+04 -1.78346E+04
  4.31029E+04  1.18149E+04  3.21420E+04  2.58302E+04  1.65005E+04  2.99810E+04 -5.32659E+03  2.75682E+04
 -2.23200E+04  1.23984E+04 -1.89991E+04 -5.39657E+03  5.53905E+03 -7.32671E+03  2.24374E+04  1.30025E+04
  7.46481E+03  3.58676E+04 -3.31706E+04  3.55523E+04 -6.43219E+04  2.23761E+03 -5.75642E+04 -4.31560E+04
 -1.24699E+04 -6.37259E+04  4.07221E+04 -4.56504E+04  5.92197E+04 -2.14910E+03  3.53237E+04  3.27164E+04
 -5.87507E+03  3.67555E+04 -3.02434E+04  1.70987E+04 -3.13491E+04 -4.10786E+03 -1.69266E+04 -1.11862E+04
 -8.66011E+03 -1.39274E+04 -8.25208E+02 -1.79119E+04  7.55392E+03 -2.36577E+04  1.54062E+04 -1.28177E+04
  1.10014E+04  5.33064E+03 -8.76064E+03  1.25811E+04 -2.22845E+04 -5.04894E+03 -9.23326E+03 -3.46549E+04
  2.34886E+04 -4.41023E+04  4.85383E+04 -2.00051E+04  4.56918E+04  1.91152E+04  1.57984E+04  4.51058E+04
 -1.61243E+04  3.37604E+04 -2.56045E+04  2.17592E+03 -1.01014E+04 -2.76414E+04  2.07742E+04 -3.43041E+04
  4.23276E+04 -9.12065E+03  3.60525E+04  2.39137E+04  1.82966E+04  4.66612E+04 -7.71189E+03  5.06492E+04
 -3.20203E+04  3.45989E+04 -4.35300E+04  1.01807E+04 -4.30035E+04 -1.70097E+04 -2.35060E+04 -3.83537E+04
  7.18496E+03 -3.81999E+04  3.21433E+04 -1.46903E+04  2.96803E+04  1.06572E+04  3.82653E+03  1.94945E+04
 -1.37457E+04  8.73982E+03 -1.08078E+04 -7.66391E+03  4.71228E+03 -1.06438E+04  1.80128E+04  6.13076E+03
  1.36746E+04  2.23641E+04 -6.13904E+03  2.54320E+04 -2.23214E+04  1.21293E+04 -2.87954E+04 -4.13474E+03
 -2.10987E+04 -1.80471E+04 -8.95743E+03 -2.12490E+04  3.64934E+03 -2.02296E+04  1.71481E+04 -1.85492E+04
  2.66571E+04 -1.31523E+04  3.33516E+04  3.73935E+03  2.43568E+04  2.08231E+04  4.20989E+03  3.69260E+04
 -1.81099E+04  3.03871E+04 -2.83395E+04  1.08205E+04 -2.10694E+04 -1.03685E+04 -4.37343E+03 -1.35992E+04
  1.14631E+03 -2.75035E+03 -5.49764E+03  6.50820E+03 -1.63831E+04  5.60628E+03 -1.68858E+04 -6.97196E+03
 -1.04160E+04 -1.96883E+04  5.69240E+03 -2.34446E+04  1.51152E+04 -1.69852E+04  1.85876E+04 -1.78308E+03
  1.17958E+04  1.33533E+04 -1.10920E+03  1.93149E+04 -1.25482E+04  1.09657E+04 -1.93362E+04 -4.30718E+03
 -1.37010E+04 -1.73936E+04 -1.51876E+03 -2.39713E+04  1.06199E+04 -1.96411E+04  1.96375E+04 -9.83409E+03
  1.81840E+04 -1.22752E+02  1.37986E+04  5.02457E+03  6.84409E+03  1.12394E+03  9.75710E+03 -2.17648E+03
  1.70108E+04  3.16598E+03  1.98537E+04  1.63981E+04  1.29778E+04  3.09864E+04 -3.50789E+03  3.48233E+04
 -2.03697E+04  2.78750E+04 -3.29275E+04  1.34193E+04 -3.45393E+04 -2.74199E+03 -2.80148E+04 -2.00900E+04
 -1.18097E+04 -2.80604E+04  9.97540E+03 -2.50769E+04  2.15802E+04 -1.27125E+04  1.96701E+04  5.21484E+03
  7.74648E+03  1.50375E+04 -8.62921E+03  1.22225E+04 -1.65194E+04  2.69925E+03 -1.25541E+04 -1.02270E+04
 -1.29493E+02 -1.53965E+04  8.14847E+03 -1.10672E+04  1.02432E+04 -1.61587E+03  1.65788E+03  7.73399E+03
 -6.82270E+03  2.04976E+03 -6.32236E+03 -6.16299E+03 -1.10035E+03 -1.33269E+04  9.56086E+03 -1.50278E+04
  1.62487E+04 -7.63279E+03  1.85425E+04  3.55415E+03  1.61207E+04  1.38271E+04  7.64529E+03  2.00701E+04
 -3.41791E+03  2.24601E+04 -1.38420E+04  1.36550E+04 -1.62944E+04  3.32144E+03 -1.05892E+04 -3.63520E+03
 -5.13721E+03 -5.13233E+03 -1.88916E+03  5.78809E+02 -2.38723E+03  2.51752E+03 -5.40624E+03  4.16820E+03
 -1.05669E+04 -4.43353E+02 -1.11332E+04 -9.99898E+03 -4.18044E+03 -1.49558E+04  5.26789E+03 -1.17152E+04
  1.00046E+04 -5.13904E+03  6.61166E+03  3.07096E+03 -1.70161E+01  4.00053E+03 -5.22413E+03  5.50183E+02
 -5.16834E+03 -6.83671E+03 -3.95664E+02 -1.10910E+04  5.93549E+03 -1.08915E+04  1.39379E+04 -5.59804E+03
  1.68243E+04  8.54049E+02  1.16679E+04  9.58443E+03  2.19991E+03  1.28118E+04 -7.43049E+03  1.14069E+04
 -8.84946E+03  3.38691E+03 -4.61890E+03 -1.92689E+03  1.90285E+03 -3.35854E+03  6.11208E+03 -9.01338E+02
  5.30829E+03  4.90462E+03  9.55622E+02  9.29666E+03 -6.46440E+03  8.80957E+03 -1.11641E+04  1.84724E+03
 -7.33782E+03 -5.09624E+03  2.98831E+00 -9.89808E+03  5.78894E+03 -4.53711E+03  6.03344E+03  2.15284E+03
  1.52749E+03  5.88593E+03 -5.41194E+03  6.84595E+03 -8.17407E+03  3.29750E+03 -7.96112E+03 -2.69077E+03
 -4.77051E+03 -1.00456E+04  2.23214E+03 -1.10146E+04  9.55058E+03 -6.95886E+03  1.04043E+04  2.25687E+03
  6.94299E+03  8.21300E+03  3.96821E+01  1.07141E+04 -7.01551E+03  5.87025E+03 -7.83684E+03 -5.44762E+02
 -7.29611E+03 -6.37977E+03 -1.09202E+03 -8.00979E+03  4.21908E+03 -6.05136E+03  4.83418E+03 -3.37175E+03
  3.87543E+03  8.39071E+02 -7.46256E+02  1.53674E+03  3.80498E+02 -1.68834E+03  1.03579E+03 -4.31103E+03
  6.55479E+03 -2.40169E+03  9.74402E+03  1.46737E+03  9.58211E+03  5.93868E+03  6.99024E+03  1.20214E+04
 -2.35007E+03  1.37974E+04 -1.18981E+04  1.06743E+04 -1.55749E+04  1.97449E+03 -1.17656E+04 -4.74933E+03
 -5.90813E+03 -1.01565E+04 -6.28325E+02 -8.94475E+03  3.37177E+03 -4.75898E+03  3.03619E+03 -3.73622E+03
  2.04061E+03 -1.90215E+03  3.24630E+03 -3.32086E+03  4.61583E+03 -2.06339E+03  5.45374E+03  4.50064E+01
  6.30881E+03  1.78923E+03  2.85238E+03  5.73811E+03 -1.84127E+03  5.64503E+03 -6.76841E+03  4.72361E+03
 -8.35927E+03 -1.52791E+03 -4.03972E+03 -5.88527E+03  9.41690E+01 -8.19318E+03  4.87786E+03 -9.34367E+03
  9.28713E+03 -4.60588E+03  1.06942E+04  1.39279E+03  8.19654E+03  7.48486E+03  1.50651E+03  1.04289E+04
 -3.88676E+03  7.74173E+03 -4.29680E+03  3.13754E+03 -3.69209E+03 -1.89458E+03 -1.92013E+03 -1.28378E+03
 -1.49350E+03  6.85967E+02 -1.88655E+03  1.94498E+03 -3.50369E+03  1.60387E+03 -6.23004E+03 -8.89997E+02
 -3.24060E+03 -5.96446E+03  7.25242E+02 -8.37315E+03  5.00580E+03 -7.27755E+03  6.63473E+03 -1.63026E+03
  6.98622E+03  3.84632E+03  3.20438E+03  5.88167E+03 -6.57078E+02  7.27301E+03 -5.13999E+03  4.78905E+03
 -6.91022E+03  3.98514E+02 -5.91188E+03 -4.36912E+03 -6.10380E+02 -6.21300E+03  3.30714E+03 -4.43486E+03
  4.77567E+03 -1.54818E+03  3.45698E+03  1.71011E+03  7.75047E+02  2.07950E+03  1.43047E+03  3.56375E+02
  2.06632E+03  1.16386E+03  2.51316E+03  8.87647E+02  2.56421E+03  2.61826E+03  2.37480E+03  3.69903E+03
 -1.78953E+03  5.95022E+03 -5.03546E+03  6.23501E+03 -6.86388E+03  1.89692E+03 -7.17045E+03 -2.46281E+03
 -3.45797E+03 -7.09343E+03  1.23829E+03 -8.09786E+03  4.70298E+03 -4.73043E+03  5.47604E+03 -1.30112E+03
  5.16292E+03  3.24458E+03  5.25269E+02  3.99847E+03 -2.19617E+03  2.36936E+03 -2.39451E+03 -6.92775E+02
 -1.58595E+03 -3.30725E+03  1.70060E+03 -2.46054E+03  2.73871E+03 -1.43318E+03  2.66866E+03  7.35030E+02
  1.78373E+03  6.91056E+02  6.03902E+02  8.62416E+02 -7.96020E+02  1.02864E+03  1.86244E+03  2.66087E+02
  4.67891E+02  3.36434E+02  2.64047E+03  1.28491E+03  1.11074E+03  3.38218E+03 -8.36920E+02  4.33876E+03
 -3.87031E+03  2.81001E+03 -3.53131E+03  1.22851E+03 -4.12079E+03 -1.44666E+03 -7.68945E+02 -1.70279E+03
  3.49282E+02 -2.09151E+03  1.72392E+03 -1.22669E+03  1.67575E+03  1.90436E+03 -9.80505E+02  2.81469E+03
 -2.26391E+03  1.25362E+03 -3.34632E+03 -2.06810E+03 -1.15343E+03 -3.41946E+03  4.64536E+02 -2.85034E+03
  1.79573E+03 -1.06350E+03  1.96425E+03  6.03720E+01  2.06085E+03  3.00386E+01  7.50405E+02  2.02399E+03
 -5.69068E+02  1.53178E+03 -1.81471E+03 -1.17843E+03  9.23336E+02 -1.96080E+03  2.79130E+03 -2.48308E+03
  4.00363E+03  3.41133E+02  4.65741E+03  1.36017E+03  1.22349E+03  3.13414E+03 -1.41051E+03  3.78737E+03
 -3.31913E+03  1.30411E+03 -3.22447E+03 -4.70708E+02 -1.84411E+03 -2.56193E+03  6.20094E+02 -2.14160E+03
  2.80659E+03 -1.47036E+03  1.57941E+03  1.25742E+03  5.18742E+02  1.67418E+03  8.53238E+02  2.25515E+03
 -7.57721E+02  1.70235E+03 -7.03159E+02  4.05270E+02  3.81571E+01  5.62371E+02 -8.19940E+02  1.37332E+03
 -1.53798E+03  2.07552E+03 -3.15567E+03  1.27304E+03 -3.25449E+03  6.65540E+02 -4.55798E+03 -1.71577E+03
 -1.93582E+03 -4.03146E+03  9.32354E+02 -5.78952E+03  2.80006E+03 -4.30919E+03  5.09612E+03 -1.46225E+03
  4.93736E+03  7.98074E+02  2.38231E+03  2.73295E+03 -1.08666E+03  3.41663E+03 -1.03535E+03  3.10410E+03
 -2.20954E+03  1.34327E+03 -1.37376E+03 -1.04958E+03 -3.75166E+02  3.27023E+02 -1.00382E+03  7.61220E+02
 -1.17928E+03  2.68999E+01 -8.26568E+02  2.78418E+02  5.53169E+01 -1.16772E+03  2.68687E+02 -1.10301E+03
  1.80481E+03 -1.19516E+03  1.72636E+03  3.77714E+02  2.33702E+03  1.94755E+03  2.79826E+01  3.66600E+03
 -1.62289E+03  3.64066E+03 -3.36911E+03  2.65924E+03 -4.45095E+03 -2.43505E+02 -2.45852E+03 -2.66554E+03
 -1.70448E+03 -3.60360E+03  5.66349E+02 -2.75882E+03  1.13786E+03 -1.55991E+03  2.17832E+03  7.00315E+02
  1.38400E+03  1.16282E+03 -5.22546E+02  5.18360E+02 -5.86353E+02 -8.36279E+01  1.58368E+02 -8.41907E+02
  7.16831E+02  3.81981E+02  7.18132E+02  1.11844E+03  1.14479E+03  1.07137E+03  4.75385E+02  1.84160E+03
 -2.71121E+02  1.30179E+03 -2.17385E+03  5.41763E+02 -2.12449E+03 -1.34263E+03  1.09702E+02 -2.32332E+03
  8.67418E+02 -1.24468E+03  2.14537E+03 -1.07075E+03  2.18290E+03  9.30237E+01  7.13333E+02  1.49157E+03
  1.05232E+03  1.28532E+03 -9.30364E+02  1.16069E+03 -1.79193E+03  1.20947E+03 -5.18338E+02 -3.22392E+02
 -2.78841E+02 -4.65435E+02 -8.41407E+02  3.80979E+02 -1.13947E+03  3.03871E+02 -1.77379E+03 -5.16461E+02
 -2.09895E+03 -1.64139E+03 -2.25162E+02 -2.21902E+03  1.44025E+03 -3.40993E+03  1.60420E+03 -1.17044E+03
  1.39191E+03  6.99186E+01  3.20984E+02  1.10986E+03 -2.20317E+02  1.99879E+03 -7.50428E+02  9.63284E+02
