 $NMID ID='MM_0lb_SNR400_13hz_g40_51.RAW', FMTDAT='(8E13.5)'
 TRAMP=1., VOLUME=1. $END
  3.10346E+05  4.72309E+01  3.37306E+05  2.50995E+05  8.53292E+04  3.37908E+05 -1.32581E+05  2.51540E+05
 -1.89933E+05  8.30440E+04 -1.11716E+05 -3.28970E+04  9.05527E+02 -5.11621E+04  5.32746E+04  1.31918E+02
  3.51644E+04  5.32739E+04 -1.75374E+04  7.45709E+04 -6.05523E+04  6.34572E+04 -8.39189E+04  3.16957E+04
 -8.09965E+04 -1.12510E+04 -5.70732E+04 -5.16034E+04 -1.44992E+04 -6.95202E+04  2.79429E+04 -4.59707E+04
  4.02816E+04  3.53829E+03  1.59731E+04  4.76146E+04 -3.45316E+04  4.66602E+04 -6.63965E+04 -1.39335E+01
 -5.30364E+04 -5.70230E+04 -7.00832E+03 -7.67235E+04  3.37041E+04 -5.51186E+04  4.80203E+04 -1.73621E+04
  4.36926E+04  1.13519E+04  3.20125E+04  2.53356E+04  1.47719E+04  2.97324E+04 -5.18524E+03  2.72036E+04
 -2.22302E+04  1.30102E+04 -1.83137E+04 -4.51623E+03  5.39850E+03 -7.20878E+03  2.25905E+04  1.19441E+04
  7.06474E+03  3.41211E+04 -3.24739E+04  3.60672E+04 -6.28882E+04  2.24022E+03 -5.64011E+04 -4.33008E+04
 -1.28598E+04 -6.36528E+04  3.99295E+04 -4.49928E+04  5.86921E+04 -2.01175E+03  3.41109E+04  3.20183E+04
 -6.10175E+03  3.55457E+04 -2.95437E+04  1.61094E+04 -3.03914E+04 -4.24444E+03 -1.68358E+04 -1.12372E+04
 -7.74374E+03 -1.32560E+04 -6.56431E+02 -1.79092E+04  7.91114E+03 -2.29831E+04  1.55327E+04 -1.31399E+04
  1.09702E+04  5.68036E+03 -7.90225E+03  1.25471E+04 -2.13411E+04 -4.79874E+03 -8.62436E+03 -3.33159E+04
  2.35264E+04 -4.35777E+04  4.82554E+04 -1.97147E+04  4.44384E+04  1.90966E+04  1.62720E+04  4.43215E+04
 -1.60793E+04  3.31233E+04 -2.54843E+04  1.86829E+03 -9.69107E+03 -2.76591E+04  2.07092E+04 -3.35605E+04
  4.14724E+04 -8.27949E+03  3.55394E+04  2.40712E+04  1.74668E+04  4.65847E+04 -8.06018E+03  5.07215E+04
 -3.19064E+04  3.32320E+04 -4.18822E+04  9.57351E+03 -4.26481E+04 -1.62127E+04 -2.41675E+04 -3.83004E+04
  7.39480E+03 -3.80948E+04  3.09314E+04 -1.46288E+04  2.87907E+04  1.07705E+04  4.08838E+03  1.95204E+04
 -1.36372E+04  7.81198E+03 -1.06569E+04 -7.63341E+03  5.94732E+03 -1.09464E+04  1.81443E+04  5.17719E+03
  1.32926E+04  2.18848E+04 -5.67400E+03  2.50554E+04 -2.20250E+04  1.07779E+04 -2.80026E+04 -4.96780E+03
 -2.08440E+04 -1.77312E+04 -8.36077E+03 -1.97069E+04  4.16805E+03 -1.99726E+04  1.58717E+04 -1.85001E+04
  2.61703E+04 -1.32622E+04  3.21900E+04  2.92288E+03  2.31576E+04  2.05866E+04  4.64224E+03  3.62779E+04
 -1.73586E+04  3.02139E+04 -2.81432E+04  1.04115E+04 -2.06813E+04 -1.05792E+04 -4.45724E+03 -1.33729E+04
  2.17636E+03 -2.85765E+03 -4.67961E+03  6.25055E+03 -1.61298E+04  5.26097E+03 -1.60377E+04 -7.08394E+03
 -1.08462E+04 -1.86027E+04  5.35741E+03 -2.28164E+04  1.60072E+04 -1.72581E+04  1.82817E+04 -1.40102E+03
  1.21121E+04  1.25456E+04 -1.32436E+03  1.96908E+04 -1.28695E+04  9.92988E+03 -1.99567E+04 -4.07091E+03
 -1.37257E+04 -1.75305E+04 -2.00889E+03 -2.29743E+04  1.01633E+04 -1.89636E+04  1.88547E+04 -9.46760E+03
  1.75007E+04  3.75286E+02  1.34706E+04  4.25993E+03  7.02585E+03  1.25286E+03  9.60661E+03 -1.90130E+03
  1.70477E+04  2.99044E+03  1.95952E+04  1.53758E+04  1.28185E+04  2.94945E+04 -2.77572E+03  3.47136E+04
 -1.98898E+04  2.77638E+04 -3.23380E+04  1.48579E+04 -3.29257E+04 -2.12384E+03 -2.75821E+04 -1.92172E+04
 -1.17270E+04 -2.79697E+04  9.90850E+03 -2.46729E+04  2.17772E+04 -1.28126E+04  1.93408E+04  4.92541E+03
  7.26945E+03  1.46995E+04 -9.19193E+03  1.22302E+04 -1.64066E+04  2.20526E+03 -1.22858E+04 -9.65743E+03
 -7.43760E+02 -1.57881E+04  8.00435E+03 -1.13865E+04  9.66584E+03 -1.73131E+03  2.04962E+03  6.28138E+03
 -7.04460E+03  2.62938E+03 -5.36068E+03 -5.96202E+03 -1.24623E+02 -1.40102E+04  9.35172E+03 -1.38139E+04
  1.70710E+04 -7.43004E+03  1.83697E+04  3.50512E+03  1.52993E+04  1.31131E+04  7.47933E+03  2.07512E+04
 -4.00182E+03  2.20183E+04 -1.35962E+04  1.33880E+04 -1.72199E+04  3.13283E+03 -1.13356E+04 -3.41180E+03
 -5.33943E+03 -4.84523E+03 -6.09470E+02  7.82334E+02 -2.51687E+03  2.38698E+03 -5.21256E+03  4.33638E+03
 -1.06263E+04 -6.58117E+02 -1.09137E+04 -9.17271E+03 -4.50332E+03 -1.49140E+04  4.41443E+03 -1.15763E+04
  9.49147E+03 -4.41536E+03  6.70530E+03  3.25203E+03  6.39883E+01  4.85063E+03 -5.54200E+03 -8.72229E+02
 -4.85671E+03 -7.10436E+03 -5.67703E+02 -1.03336E+04  6.54947E+03 -1.19615E+04  1.43296E+04 -5.67707E+03
  1.67429E+04  1.22278E+03  1.28096E+04  9.42060E+03  2.79201E+03  1.33512E+04 -6.69131E+03  1.11495E+04
 -9.04557E+03  3.06338E+03 -4.29294E+03 -2.35296E+03  1.61114E+03 -2.63390E+03  6.21728E+03 -7.93011E+02
  5.40469E+03  4.99046E+03  1.82626E+03  8.18816E+03 -6.29274E+03  8.28154E+03 -1.09813E+04  2.53421E+03
 -7.51027E+03 -5.88327E+03  3.64712E+02 -9.26846E+03  5.94635E+03 -4.96529E+03  5.58918E+03  1.61261E+03
  1.29421E+03  6.33749E+03 -6.55877E+03  7.21500E+03 -8.84374E+03  3.54030E+03 -8.93928E+03 -2.67367E+03
 -4.65248E+03 -1.05371E+04  2.23638E+03 -1.19808E+04  9.93898E+03 -7.05825E+03  1.04067E+04  1.64373E+03
  7.22833E+03  8.32089E+03 -8.14835E+02  1.06928E+04 -8.36614E+03  6.58230E+03 -8.47613E+03 -1.77972E+02
 -8.42691E+03 -7.69491E+03 -1.77185E+03 -8.19240E+03  4.54438E+03 -6.52713E+03  5.06692E+03 -3.04879E+03
  3.87248E+03  8.30421E+02  8.25807E+01  1.60762E+03  2.06014E+02 -2.07514E+03  1.38201E+03 -4.33022E+03
  6.61808E+03 -2.17958E+03  1.00531E+04  1.10507E+03  9.36128E+03  6.70868E+03  7.59810E+03  1.23310E+04
 -2.50621E+03  1.50952E+04 -1.30110E+04  1.09815E+04 -1.67905E+04  1.24446E+03 -1.28681E+04 -5.02215E+03
 -6.57683E+03 -1.17414E+04 -5.46114E+02 -9.40629E+03  3.57139E+03 -4.58215E+03  3.24274E+03 -3.43653E+03
  2.49293E+03 -2.19206E+03  2.76802E+03 -3.37278E+03  4.28151E+03 -2.49466E+03  6.28196E+03  1.36230E+02
  7.32896E+03  1.75730E+03  3.94578E+03  5.22501E+03 -1.32085E+03  6.21320E+03 -6.95633E+03  4.71438E+03
 -9.39524E+03 -1.03341E+03 -4.82041E+03 -6.88531E+03 -6.54941E+02 -9.42609E+03  5.55634E+03 -9.61680E+03
  1.00606E+04 -4.93913E+03  1.20831E+04  1.73065E+03  8.24215E+03  8.10627E+03  2.21378E+03  1.04897E+04
 -4.23891E+03  8.73017E+03 -6.11835E+03  3.11342E+03 -3.76877E+03 -1.67307E+03 -1.67558E+03 -1.22788E+03
 -8.64712E+02  5.19431E+02 -1.19795E+03  2.89970E+03 -4.03010E+03  1.84276E+03 -6.49463E+03 -4.85054E+02
 -4.41293E+03 -6.75674E+03  9.13706E+02 -8.77296E+03  5.32081E+03 -8.47087E+03  7.44503E+03 -2.78904E+03
  8.11334E+03  3.95928E+03  4.30464E+03  7.08957E+03 -1.98609E+03  9.18981E+03 -5.53863E+03  5.38179E+03
 -7.92342E+03  6.67988E+02 -5.97570E+03 -4.72428E+03 -3.07644E+02 -7.18764E+03  3.90610E+03 -5.29799E+03
  5.83950E+03 -1.41848E+03  4.33263E+03  1.55192E+03  1.15054E+03  2.37636E+03  1.17149E+03  1.23121E+03
  1.90365E+03  9.23556E+02  1.94100E+03  1.48736E+03  1.79278E+03  3.04430E+03  2.30354E+03  3.86552E+03
 -1.71947E+03  6.24573E+03 -5.83260E+03  7.29608E+03 -7.51727E+03  1.99123E+03 -8.46035E+03 -2.49344E+03
 -4.10837E+03 -7.66192E+03  2.97126E+02 -9.30177E+03  5.16234E+03 -5.53007E+03  7.72091E+03 -1.86330E+03
  5.43754E+03  3.51929E+03  1.21511E+03  4.77406E+03 -2.25715E+03  2.77851E+03 -3.35181E+03 -3.34921E+02
 -1.62160E+03 -2.94288E+03  1.97836E+03 -3.43320E+03  2.15464E+03 -2.02349E+03  3.68230E+03  1.05865E+03
  1.85094E+03  1.08086E+03  1.62083E+03  6.41956E+02 -5.63358E+02  1.41598E+03  1.41028E+03 -7.96168E+02
  1.42643E+03 -3.10881E+02  3.98195E+03  1.76610E+03  1.58890E+03  4.58028E+03 -1.26851E+03  5.94237E+03
 -3.78643E+03  2.87320E+03 -5.20131E+03  6.07302E+02 -5.03400E+03 -1.91541E+03 -1.54677E+03 -2.45856E+03
  6.59131E+02 -3.15953E+03  2.30855E+03 -1.69392E+03  1.46925E+03  1.53529E+03 -1.19884E+03  2.16061E+03
 -3.44913E+03  1.98617E+03 -3.37502E+03 -2.49885E+03 -1.99631E+03 -4.82357E+03  9.81762E+02 -3.54495E+03
  2.11771E+03 -2.29603E+03  2.44248E+03  3.36499E+02  2.62184E+03  1.05392E+03  6.33918E+02  2.50453E+03
 -1.87391E+03  1.87701E+02 -2.22107E+03 -1.03976E+03  3.92986E+02 -3.43513E+03  3.60675E+03 -2.66501E+03
  3.87613E+03  5.30619E+02  4.65176E+03  3.33020E+03  2.71206E+03  4.89370E+03 -1.66281E+03  4.51501E+03
 -4.60750E+03  1.27741E+03 -4.23427E+03 -6.48811E+02 -2.35313E+03 -3.37367E+03  7.44974E+02 -2.31468E+03
  3.39437E+03 -1.17465E+03  1.82599E+03  2.06871E+03  1.28288E+03  3.05705E+03  2.58205E+02  2.15458E+03
 -1.01279E+03  1.59088E+03 -1.29994E+03  7.20893E+01 -2.36328E+02  4.00804E+02 -1.19681E+03  9.20987E+02
 -8.11335E+02  2.07203E+03 -3.41300E+03  2.32128E+03 -4.48248E+03 -1.26799E+02 -5.87766E+03 -3.23513E+03
 -2.73728E+03 -5.95992E+03  9.67251E+02 -7.08035E+03  4.35678E+03 -5.86976E+03  7.13391E+03 -2.71188E+03
  6.17187E+03  7.90564E+02  3.68032E+03  3.91777E+03 -3.87732E+02  4.77608E+03 -1.98707E+03  3.41723E+03
 -2.86983E+03  1.80675E+03 -1.11569E+03 -6.05321E+02 -2.72863E+02  7.15109E+02 -9.85320E+02 -2.84791E+02
 -1.23921E+03  5.43998E+02 -1.14841E+03  2.38674E+02 -2.15185E+02 -1.28520E+03 -7.57892E+01 -1.35504E+03
  2.32768E+03 -1.73348E+03  2.38340E+03 -2.80593E+02  3.07993E+03  2.60066E+03  9.89896E+02  4.19548E+03
 -2.21444E+03  6.09285E+03 -4.91655E+03  3.70486E+03 -6.06325E+03 -1.17768E+03 -3.60188E+03 -3.59881E+03
 -2.46122E+03 -4.64068E+03  2.01093E+03 -4.08767E+03  3.25631E+03 -2.00520E+03  3.04321E+03  1.34171E+02
  1.40230E+03  1.51567E+03 -2.43501E+02  9.03647E+02 -1.01798E+03  1.51531E+02 -3.59969E+02 -6.47839E+02
  1.07111E+03 -7.78292E+02  1.52223E+03  9.66143E+02  2.29462E+03  1.19313E+03  2.57501E+02  2.45815E+03
 -1.61198E+03  1.70788E+03 -2.46144E+03  7.43304E+02 -2.04422E+03 -2.03411E+03 -3.26868E+02 -3.35097E+03
  2.29564E+03 -3.10405E+03  3.43241E+03 -7.32480E+02  3.73938E+03  3.32905E+02  2.18952E+03  2.17497E+03
  1.65659E+02  2.98203E+03 -9.42948E+02  2.35131E+03 -2.24169E+03  1.40605E+03 -1.06055E+03  2.12692E+02
 -2.08710E+02  2.02711E+02 -5.70622E+02 -7.07403E+01 -1.15391E+03  5.29802E+02 -2.30555E+03 -7.17696E+02
 -2.56342E+03 -1.74560E+03 -4.76869E+02 -2.51001E+03  1.37495E+03 -3.85117E+03  3.04070E+03 -1.33958E+03
  2.85826E+03 -6.38119E+00  8.37573E+02  1.71968E+03 -8.61409E+01  2.00077E+03 -1.97683E+03  2.15521E+03
