 $NMID ID='MM_0lb_SNR400_15hz_g50_57.RAW', FMTDAT='(8E13.5)'
 TRAMP=1., VOLUME=1. $END
  3.09777E+05  4.60554E+02  3.37607E+05  2.50430E+05  8.44278E+04  3.37978E+05 -1.32594E+05  2.50186E+05
 -1.90141E+05  8.30880E+04 -1.11502E+05 -3.34746E+04  1.11853E+03 -5.08430E+04  5.32658E+04 -7.04287E+01
  3.52140E+04  5.23893E+04 -1.67693E+04  7.51427E+04 -6.08899E+04  6.34349E+04 -8.39468E+04  3.26183E+04
 -8.03518E+04 -1.14276E+04 -5.67681E+04 -5.12942E+04 -1.46869E+04 -6.93518E+04  2.73390E+04 -4.52320E+04
  4.01085E+04  3.59357E+03  1.54962E+04  4.78174E+04 -3.41037E+04  4.71219E+04 -6.59576E+04 -5.40344E+02
 -5.36831E+04 -5.62359E+04 -6.56294E+03 -7.70528E+04  3.30856E+04 -5.45743E+04  4.80410E+04 -1.72587E+04
  4.31563E+04  1.10250E+04  3.13928E+04  2.53323E+04  1.49443E+04  2.91069E+04 -5.32287E+03  2.74894E+04
 -2.25511E+04  1.30255E+04 -1.82031E+04 -4.58916E+03  5.16375E+03 -7.32481E+03  2.14197E+04  1.22979E+04
  7.84639E+03  3.48826E+04 -3.16728E+04  3.55977E+04 -6.26432E+04  1.84087E+03 -5.66431E+04 -4.30348E+04
 -1.26831E+04 -6.26963E+04  3.92676E+04 -4.48762E+04  5.77853E+04 -2.20154E+03  3.43174E+04  3.19046E+04
 -6.50337E+03  3.60228E+04 -2.94913E+04  1.54208E+04 -3.05851E+04 -4.59190E+03 -1.59108E+04 -1.09011E+04
 -8.65965E+03 -1.27585E+04 -7.74948E+02 -1.79740E+04  7.86141E+03 -2.28773E+04  1.55024E+04 -1.34221E+04
  1.21530E+04  5.06435E+03 -8.61571E+03  1.28621E+04 -2.07782E+04 -3.24085E+03 -8.69527E+03 -3.25204E+04
  2.27522E+04 -4.26530E+04  4.77860E+04 -1.95549E+04  4.42033E+04  1.93024E+04  1.51054E+04  4.44755E+04
 -1.54549E+04  3.25915E+04 -2.51840E+04  1.98984E+03 -9.39215E+03 -2.78284E+04  2.09419E+04 -3.35107E+04
  4.05383E+04 -8.38414E+03  3.46431E+04  2.40006E+04  1.75683E+04  4.58905E+04 -8.20466E+03  4.94402E+04
 -3.10423E+04  3.28669E+04 -4.10352E+04  9.95234E+03 -4.14968E+04 -1.60131E+04 -2.25881E+04 -3.79797E+04
  7.39443E+03 -3.72772E+04  3.08888E+04 -1.43028E+04  2.88365E+04  1.02612E+04  3.90088E+03  1.86157E+04
 -1.35154E+04  8.60476E+03 -9.88321E+03 -6.93637E+03  6.00702E+03 -1.03275E+04  1.76226E+04  6.09001E+03
  1.31290E+04  2.14893E+04 -6.20745E+03  2.52492E+04 -2.26682E+04  1.10155E+04 -2.72238E+04 -5.43452E+03
 -1.98886E+04 -1.70490E+04 -7.67941E+03 -2.00447E+04  3.72810E+03 -1.88743E+04  1.49726E+04 -1.74613E+04
  2.50632E+04 -1.28988E+04  3.18047E+04  2.67188E+03  2.28663E+04  1.92949E+04  4.49186E+03  3.65001E+04
 -1.67725E+04  2.99220E+04 -2.76784E+04  1.04433E+04 -2.09412E+04 -1.02721E+04 -4.28575E+03 -1.38116E+04
  1.68044E+03 -3.05471E+03 -4.53301E+03  6.34734E+03 -1.54200E+04  5.45305E+03 -1.56693E+04 -6.57273E+03
 -1.00418E+04 -1.83336E+04  5.16427E+03 -2.27411E+04  1.48263E+04 -1.58516E+04  1.74221E+04 -4.13677E+02
  1.12945E+04  1.22610E+04 -1.44773E+03  1.81861E+04 -1.25249E+04  1.09208E+04 -1.82071E+04 -3.89089E+03
 -1.37008E+04 -1.66136E+04 -1.63276E+03 -2.22815E+04  1.00366E+04 -1.82945E+04  1.82711E+04 -9.39590E+03
  1.66114E+04  6.94897E+02  1.25920E+04  3.55545E+03  6.12901E+03  6.65048E+02  9.51183E+03 -1.45156E+03
  1.75120E+04  2.93732E+03  1.85504E+04  1.46034E+04  1.17909E+04  2.91069E+04 -2.76096E+03  3.26119E+04
 -1.90117E+04  2.64411E+04 -3.06718E+04  1.29951E+04 -3.18042E+04 -2.33244E+03 -2.65893E+04 -1.82190E+04
 -1.11002E+04 -2.59938E+04  8.82922E+03 -2.36823E+04  2.06781E+04 -1.23780E+04  1.82971E+04  5.26539E+03
  7.05137E+03  1.42928E+04 -8.34007E+03  1.27820E+04 -1.58277E+04  3.19846E+03 -1.17137E+04 -1.03603E+04
 -3.30010E+02 -1.45509E+04  6.97211E+03 -1.09490E+04  9.11636E+03 -1.83823E+03  1.10481E+03  5.75659E+03
 -6.43966E+03  1.97923E+03 -5.37468E+03 -4.51020E+03 -3.91512E+02 -1.27593E+04  8.84198E+03 -1.37136E+04
  1.58037E+04 -6.56429E+03  1.67880E+04  2.54261E+03  1.49483E+04  1.27242E+04  7.01921E+03  1.93986E+04
 -2.92204E+03  2.07602E+04 -1.34524E+04  1.31035E+04 -1.56873E+04  3.44329E+03 -1.04452E+04 -3.41552E+03
 -5.30805E+03 -4.02754E+03 -8.61899E+02  6.10253E+02 -2.12711E+03  2.41628E+03 -5.48328E+03  4.11131E+03
 -1.05558E+04 -9.25336E+02 -1.07841E+04 -8.47327E+03 -4.53748E+03 -1.41853E+04  5.19563E+03 -1.08562E+04
  8.48531E+03 -4.24307E+03  6.65332E+03  2.46489E+03  6.31366E+02  3.77912E+03 -4.63694E+03 -3.12232E+02
 -4.25424E+03 -6.02443E+03 -1.22816E+03 -9.80955E+03  5.50910E+03 -1.02479E+04  1.32732E+04 -5.11536E+03
  1.56568E+04  1.10790E+03  1.17593E+04  8.83025E+03  2.36617E+03  1.17291E+04 -6.81528E+03  1.03780E+04
 -8.43440E+03  3.01357E+03 -4.18788E+03 -2.45487E+03  1.64681E+03 -2.17810E+03  5.57781E+03 -9.33298E+02
  5.29496E+03  4.56352E+03  8.43414E+02  7.99594E+03 -5.74799E+03  8.19801E+03 -9.75956E+03  2.06651E+03
 -6.43103E+03 -5.49479E+03  8.64901E+02 -8.26225E+03  5.17013E+03 -4.11624E+03  4.94238E+03  2.09799E+03
  1.38938E+03  5.61252E+03 -4.98720E+03  6.75776E+03 -7.25136E+03  3.41250E+03 -7.08945E+03 -1.47623E+03
 -3.78371E+03 -8.74676E+03  2.61789E+03 -9.99625E+03  8.38283E+03 -6.92678E+03  9.69350E+03  1.48288E+03
  6.35840E+03  7.70752E+03 -5.76829E+02  9.58601E+03 -6.95116E+03  5.50381E+03 -8.12910E+03 -8.58995E+02
 -7.78250E+03 -6.46828E+03 -1.84675E+03 -6.91906E+03  3.14468E+03 -6.13288E+03  4.30205E+03 -3.57264E+03
  2.73768E+03  1.00527E+03 -6.06360E+02  2.01055E+03  1.96950E+02 -1.20603E+03  1.12601E+03 -3.96505E+03
  5.80648E+03 -2.34762E+03  8.60727E+03  1.03500E+03  8.41260E+03  5.40856E+03  7.31418E+03  1.11483E+04
 -2.27103E+03  1.29621E+04 -1.09581E+04  9.68969E+03 -1.50708E+04  1.50994E+03 -1.14352E+04 -4.70447E+03
 -5.88098E+03 -9.66170E+03 -3.59086E+02 -8.43145E+03  2.94844E+03 -4.09675E+03  2.94905E+03 -2.66392E+03
  2.12729E+03 -2.27434E+03  2.92770E+03 -2.94914E+03  4.55115E+03 -1.30333E+03  4.99127E+03 -2.14601E+02
  6.35003E+03  1.67422E+03  2.85632E+03  5.41548E+03 -1.71639E+03  5.24608E+03 -7.03326E+03  3.99983E+03
 -8.02141E+03 -1.10781E+03 -3.70041E+03 -5.04268E+03  6.14452E+02 -7.73734E+03  5.07384E+03 -8.00160E+03
  8.03325E+03 -4.83651E+03  1.01946E+04  1.56151E+03  6.78084E+03  6.63411E+03  2.03946E+03  9.40476E+03
 -3.42089E+03  8.42105E+03 -5.12725E+03  2.83881E+03 -2.97712E+03 -1.56925E+03 -1.29376E+03 -1.14161E+03
 -7.25244E+02  3.36315E+02 -7.64568E+02  2.64158E+03 -3.77666E+03  1.14794E+03 -6.09660E+03  2.37747E+01
 -3.26770E+03 -5.50351E+03  9.70249E+02 -6.84792E+03  3.57166E+03 -7.21501E+03  6.87006E+03 -1.75242E+03
  6.89004E+03  3.30955E+03  3.40181E+03  6.03756E+03 -1.61711E+03  6.72389E+03 -4.31489E+03  4.31883E+03
 -6.65649E+03  8.00305E+02 -4.67169E+03 -4.58517E+03 -5.70059E+02 -5.84977E+03  2.95295E+03 -4.03554E+03
  4.04984E+03 -1.42836E+03  2.91939E+03  9.95328E+02  8.29909E+02  2.90888E+03  6.99290E+02  1.15891E+03
  1.55950E+03  9.09430E+02  1.67155E+03  1.33829E+03  1.45799E+03  3.13520E+03  1.65224E+03  3.04056E+03
 -1.52624E+03  5.32817E+03 -4.17529E+03  6.15733E+03 -5.99092E+03  1.74099E+03 -7.07518E+03 -1.86103E+03
 -3.18674E+03 -5.97816E+03  1.06273E+03 -7.99348E+03  3.77274E+03 -4.18623E+03  5.64811E+03 -1.64600E+03
  4.35033E+03  2.52791E+03  1.29262E+03  3.78336E+03 -1.20173E+03  2.37691E+03 -2.18347E+03  1.62854E+02
 -5.68471E+02 -3.14208E+03  1.29495E+03 -2.55105E+03  2.30597E+03 -1.50241E+03  2.44069E+03  9.74900E+02
  1.73720E+03  1.07656E+03  1.12799E+03  2.58839E+02 -2.27791E+02  9.47268E+02  1.57770E+03 -4.89099E+02
  8.30606E+02 -5.43406E+02  2.67686E+03  9.67655E+02  6.62236E+02  3.48795E+03  1.73713E+02  4.93255E+03
 -3.63808E+03  2.56075E+03 -3.50300E+03  8.43793E+02 -4.16140E+03 -1.32745E+03 -1.01219E+03 -2.44001E+03
  4.00630E+02 -2.52491E+03  1.76992E+03 -1.51341E+03  1.31124E+03  1.49135E+03 -1.31597E+03  1.84339E+03
 -2.41976E+03  9.50444E+02 -2.54386E+03 -1.15278E+03 -1.49879E+03 -3.58640E+03  8.58986E+02 -3.55363E+03
  8.49383E+02 -1.60272E+03  2.09537E+03 -5.04168E+01  1.93283E+03  8.76350E+02  6.72394E+02  1.60144E+03
 -9.56992E+02  8.82429E+02 -1.39033E+03 -1.04540E+02  1.16640E+03 -2.23836E+03  2.96756E+03 -2.46277E+03
  3.35654E+03  7.34716E+02  3.95251E+03  2.16207E+03  1.62737E+03  3.86359E+03 -1.28720E+03  3.76737E+03
 -3.00372E+03  1.33335E+03 -2.73473E+03 -4.45049E+02 -1.47540E+03 -2.42093E+03  5.13290E+02 -1.52198E+03
  2.19101E+03 -8.33743E+02  1.52117E+03  1.55383E+03  4.49253E+02  2.41320E+03  3.72525E+02  1.95182E+03
 -1.69193E+03  1.62914E+03 -1.27218E+03  7.70122E+02 -2.40815E+02  1.18931E+03 -5.56202E+02  1.27628E+03
 -8.94605E+02  1.51619E+03 -2.73074E+03  9.57187E+02 -3.09454E+03  3.25647E+02 -4.46400E+03 -2.20376E+03
 -2.08350E+03 -4.64333E+03  1.34526E+03 -5.47089E+03  2.58067E+03 -4.44228E+03  4.91571E+03 -1.94134E+03
  4.58435E+03 -1.53191E+02  2.88186E+03  3.02103E+03 -4.42965E+02  3.78674E+03 -1.14467E+03  2.14624E+03
 -2.68636E+03  1.08490E+03 -1.47661E+03 -3.94197E+02 -2.46512E+02 -2.83496E+02 -8.31012E+02 -3.43345E+02
 -1.47571E+03  1.63754E+02 -1.03267E+03  2.67454E+01  1.33852E+02 -9.56663E+02 -3.90162E+02 -1.81862E+03
  1.80727E+03 -1.20022E+03  1.15736E+03  1.76624E+02  2.13665E+03  1.53473E+03  1.92676E+02  2.77809E+03
 -1.75269E+03  3.89692E+03 -3.66437E+03  2.18537E+03 -3.49177E+03 -2.91809E+02 -2.45456E+03 -2.89642E+03
 -1.82821E+03 -3.31035E+03  5.57142E+02 -2.96425E+03  1.32515E+03 -1.72218E+03  2.05753E+03  2.10778E+02
  1.00067E+03  7.92930E+02  2.67322E+00  1.19697E+03 -9.41159E+02 -6.07297E+02 -5.56958E+02 -1.47705E+02
  6.02819E+02  8.64675E+01  8.75758E+02  4.28664E+02  5.12813E+02  8.71911E+02  5.03055E+02  1.46796E+03
 -9.88579E+02  1.04346E+03 -1.73438E+03  7.95918E+02 -1.12375E+03 -7.62907E+02  1.38649E+02 -3.01064E+03
  1.25408E+03 -1.65054E+03  2.29808E+03 -6.31795E+02  2.22038E+03 -4.75673E+02  8.49786E+02  1.46107E+03
  6.22181E+02  9.19527E+02 -4.26326E+02  1.37442E+03 -1.56510E+03  1.22921E+03 -5.83733E+02  2.02485E+02
 -5.52384E+02 -9.91153E+01 -1.10383E+03  1.39142E+02 -8.55553E+02  4.04069E+02 -1.74301E+03 -7.12928E+02
 -1.31642E+03  3.38776E+02 -3.07513E+02 -2.02070E+03  1.63812E+03 -2.71414E+03  1.81781E+03 -4.94279E+02
  2.00418E+03 -2.33207E+02  2.09433E+02  9.37209E+02 -2.44167E+02  1.91149E+03 -9.23650E+02  8.12678E+02
