 $NMID ID='MM_0lb_SNR400_8hz_g40_62.RAW', FMTDAT='(8E13.5)'
 TRAMP=1., VOLUME=1. $END
  3.09858E+05  3.51333E+02  3.37649E+05  2.50525E+05  8.46456E+04  3.37992E+05 -1.32512E+05  2.52501E+05
 -1.90680E+05  8.47098E+04 -1.11994E+05 -3.24168E+04  1.29253E+02 -5.15154E+04  5.34016E+04 -3.27825E+02
  3.62168E+04  5.29631E+04 -1.66380E+04  7.63602E+04 -6.08729E+04  6.47005E+04 -8.56450E+04  3.28853E+04
 -8.30100E+04 -1.16030E+04 -5.79487E+04 -5.21711E+04 -1.53712E+04 -7.07049E+04  2.89764E+04 -4.68999E+04
  4.05476E+04  3.14536E+03  1.66210E+04  4.83879E+04 -3.55987E+04  4.82067E+04 -6.83562E+04  2.46163E+02
 -5.52880E+04 -5.78949E+04 -7.57370E+03 -7.83354E+04  3.42198E+04 -5.57180E+04  5.02462E+04 -1.77433E+04
  4.55442E+04  1.05736E+04  3.26716E+04  2.68125E+04  1.56745E+04  2.98174E+04 -5.92918E+03  2.75246E+04
 -2.18192E+04  1.12827E+04 -1.74638E+04 -5.21919E+03  6.38891E+03 -7.88646E+03  2.31865E+04  1.37460E+04
  6.34467E+03  3.79050E+04 -3.36698E+04  3.77019E+04 -6.58539E+04  1.82149E+03 -5.84701E+04 -4.50397E+04
 -1.23436E+04 -6.57715E+04  4.14707E+04 -4.69623E+04  6.09898E+04 -2.45228E+03  3.66063E+04  3.50767E+04
 -5.73132E+03  3.93197E+04 -3.11673E+04  1.92340E+04 -3.30734E+04 -3.50998E+03 -1.93915E+04 -1.18571E+04
 -9.89500E+03 -1.65139E+04 -1.26812E+03 -1.97717E+04  8.29055E+03 -2.39314E+04  1.61972E+04 -1.18892E+04
  1.07397E+04  6.67468E+03 -1.00268E+04  1.26560E+04 -2.36147E+04 -5.95764E+03 -8.97194E+03 -3.69320E+04
  2.58127E+04 -4.66912E+04  5.29518E+04 -2.11433E+04  4.79455E+04  2.03910E+04  1.69830E+04  4.64914E+04
 -1.69084E+04  3.56424E+04 -2.73729E+04  2.55609E+03 -1.16646E+04 -2.99585E+04  2.22053E+04 -3.76001E+04
  4.43124E+04 -1.07587E+04  3.98208E+04  2.52840E+04  2.17798E+04  5.10075E+04 -7.90459E+03  5.64693E+04
 -3.59753E+04  3.72116E+04 -4.79457E+04  1.08522E+04 -4.78446E+04 -1.81989E+04 -2.61523E+04 -4.23059E+04
  7.98012E+03 -4.22947E+04  3.43488E+04 -1.72013E+04  3.21415E+04  1.15535E+04  5.32977E+03  2.07196E+04
 -1.37287E+04  1.01570E+04 -1.13807E+04 -8.38291E+03  4.91448E+03 -1.15313E+04  1.91811E+04  4.98982E+03
  1.50319E+04  2.19408E+04 -4.89076E+03  2.69195E+04 -2.33222E+04  1.50655E+04 -3.20303E+04 -3.12075E+03
 -2.53287E+04 -1.83707E+04 -1.13379E+04 -2.51375E+04  4.11209E+03 -2.60877E+04  2.05408E+04 -2.34771E+04
  3.23325E+04 -1.34492E+04  3.83694E+04  4.43964E+03  2.67432E+04  2.47870E+04  4.74625E+03  4.23965E+04
 -2.04994E+04  3.41860E+04 -3.05331E+04  1.23582E+04 -2.24859E+04 -9.68389E+03 -4.90092E+03 -1.33494E+04
  6.26073E+02 -8.12397E+02 -8.55099E+03  7.92760E+03 -1.94708E+04  4.88103E+03 -2.04947E+04 -9.24313E+03
 -1.22083E+04 -2.44342E+04  6.52502E+03 -2.77676E+04  1.87918E+04 -2.03716E+04  2.27819E+04 -1.75364E+03
  1.40063E+04  1.69741E+04 -1.34314E+03  2.40320E+04 -1.66582E+04  1.34137E+04 -2.40913E+04 -5.56967E+03
 -1.65712E+04 -2.18044E+04 -2.57873E+03 -2.80619E+04  1.27753E+04 -2.36735E+04  2.31221E+04 -1.24353E+04
  2.29603E+04 -8.73571E+02  1.51651E+04  4.21183E+03  8.96452E+03  1.54959E+03  1.19772E+04 -1.94282E+03
  2.34691E+04  3.51166E+03  2.53497E+04  1.81097E+04  1.74996E+04  3.83302E+04 -3.22992E+03  4.45205E+04
 -2.57965E+04  3.81543E+04 -4.27831E+04  1.82350E+04 -4.54948E+04 -3.60236E+03 -3.61496E+04 -2.65420E+04
 -1.46179E+04 -3.71088E+04  1.32351E+04 -3.33739E+04  2.87857E+04 -1.58690E+04  2.49310E+04  7.59105E+03
  8.08339E+03  1.90081E+04 -1.24428E+04  1.57935E+04 -2.06041E+04  2.48126E+03 -1.57893E+04 -1.31513E+04
 -2.03851E+02 -1.97893E+04  1.04980E+04 -1.42261E+04  1.29559E+04 -1.81956E+03  3.43046E+03  9.17224E+03
 -9.36613E+03  4.46215E+03 -9.45794E+03 -7.19727E+03 -1.77762E+03 -1.83171E+04  1.17470E+04 -1.96551E+04
  2.34301E+04 -1.09532E+04  2.61146E+04  3.23326E+03  2.37305E+04  1.83902E+04  1.04534E+04  2.96831E+04
 -5.30164E+03  3.17640E+04 -2.08992E+04  2.00047E+04 -2.28523E+04  3.00646E+03 -1.57114E+04 -6.77973E+03
 -6.31754E+03 -7.41765E+03 -4.12572E+02 -8.54816E+01 -2.51468E+03  3.20939E+03 -7.38065E+03  4.87423E+03
 -1.44418E+04 -2.02225E+02 -1.52632E+04 -1.20772E+04 -6.29610E+03 -1.97845E+04  7.37788E+03 -1.64088E+04
  1.31818E+04 -6.66075E+03  9.66850E+03  4.52840E+03 -9.52460E+02  5.74955E+03 -7.71144E+03 -5.50145E+01
 -7.78072E+03 -1.02612E+04 -1.25863E+03 -1.61109E+04  8.45642E+03 -1.68626E+04  2.05179E+04 -9.29991E+03
  2.41759E+04  3.47861E+03  1.73663E+04  1.38867E+04  2.85105E+03  1.98210E+04 -1.06190E+04  1.61235E+04
 -1.30569E+04  4.26083E+03 -6.71227E+03 -4.34274E+03  2.58852E+03 -4.65056E+03  8.91045E+03 -9.59413E+02
  8.63775E+03  6.88382E+03  2.05007E+03  1.33572E+04 -9.32515E+03  1.17666E+04 -1.64039E+04  2.43676E+03
 -1.12148E+04 -8.49000E+03  4.80524E+02 -1.34771E+04  8.71006E+03 -7.34303E+03  9.62895E+03  2.35181E+03
  2.41100E+03  9.69180E+03 -8.92137E+03  1.21583E+04 -1.37330E+04  4.77566E+03 -1.43085E+04 -4.98217E+03
 -9.68455E+03 -1.60161E+04  4.46872E+03 -1.82102E+04  1.55790E+04 -9.86985E+03  1.78232E+04  2.61118E+03
  1.06375E+04  1.37581E+04 -9.52207E+02  1.70109E+04 -1.19488E+04  9.03602E+03 -1.32253E+04 -1.90245E+03
 -1.17344E+04 -1.13223E+04 -1.55514E+03 -1.30370E+04  7.15517E+03 -1.02573E+04  8.22079E+03 -4.18106E+03
  5.23338E+03  2.22437E+03 -1.83655E+03  1.51960E+03 -6.63837E+02 -4.11686E+03  2.52954E+03 -7.43936E+03
  1.14440E+04 -4.90371E+03  1.73518E+04  1.63539E+03  1.61527E+04  1.14268E+04  1.04148E+04  2.12537E+04
 -5.43036E+03  2.51737E+04 -2.05846E+04  1.84183E+04 -2.65726E+04  3.69946E+03 -2.14048E+04 -9.67788E+03
 -1.12210E+04 -1.79794E+04 -4.87658E+02 -1.45309E+04  5.61689E+03 -7.89126E+03  5.39663E+03 -5.19344E+03
  4.39703E+03 -3.41602E+03  4.08287E+03 -4.96223E+03  6.21572E+03 -4.32697E+03  8.02240E+03 -1.17342E+03
  1.11974E+04  2.60367E+03  5.95583E+03  9.59590E+03 -1.97795E+03  1.18849E+04 -1.24839E+04  9.13946E+03
 -1.51950E+04 -1.25803E+03 -9.29080E+03 -1.03824E+04 -1.71009E+03 -1.63087E+04  9.04719E+03 -1.63735E+04
  1.73299E+04 -8.53768E+03  1.97756E+04  3.56176E+03  1.49739E+04  1.38637E+04  1.97095E+03  1.81680E+04
 -8.26292E+03  1.56481E+04 -1.06240E+04  5.15131E+03 -7.64519E+03 -1.73286E+03 -3.08516E+03 -2.94503E+03
 -7.04609E+02 -2.24791E+01 -2.08164E+03  3.00925E+03 -6.48909E+03  2.84678E+03 -1.06121E+04 -1.09200E+03
 -8.02528E+03 -1.07221E+04 -2.35539E+01 -1.61886E+04  9.81788E+03 -1.43383E+04  1.62354E+04 -4.97717E+03
  1.61733E+04  7.08578E+03  7.82955E+03  1.45954E+04 -2.65538E+03  1.59371E+04 -1.15798E+04  9.57056E+03
 -1.55064E+04  3.58114E+02 -1.05635E+04 -9.80364E+03 -7.12604E+02 -1.31113E+04  6.51284E+03 -9.95883E+03
  1.04139E+04 -3.88051E+03  7.09981E+03  2.71598E+03  2.67559E+03  4.50583E+03  1.88702E+03  2.56456E+03
  2.30540E+03  5.22232E+02  3.86190E+03  1.82462E+03  4.97363E+03  5.15517E+03  4.13844E+03  7.95517E+03
 -2.97275E+03  1.17444E+04 -1.08673E+04  1.25925E+04 -1.61650E+04  3.82374E+03 -1.79050E+04 -6.31489E+03
 -7.32633E+03 -1.62023E+04  2.15409E+03 -1.69512E+04  1.02452E+04 -1.21810E+04  1.35983E+04 -3.91854E+03
  1.00882E+04  5.73968E+03  2.09768E+03  8.57178E+03 -3.57888E+03  6.70176E+03 -7.03185E+03 -1.13661E+03
 -2.39080E+03 -7.31791E+03  3.14278E+03 -7.23785E+03  5.78414E+03 -3.19353E+03  6.66221E+03  1.30765E+03
  3.72116E+03  2.81662E+03  1.70717E+03  3.53302E+03 -4.13719E+02  2.18591E+03  1.73069E+03 -2.31788E+02
  2.79126E+03 -5.86825E+02  7.42655E+03  3.16593E+03  4.19586E+03  9.14479E+03 -1.40886E+03  1.12459E+04
 -8.16920E+03  7.97198E+03 -1.04535E+04  1.61869E+03 -1.02394E+04 -3.33369E+03 -3.28285E+03 -6.31135E+03
  9.41501E+02 -7.36628E+03  4.32016E+03 -2.53917E+03  3.62926E+03  2.67118E+03 -2.53219E+03  5.47197E+03
 -6.66128E+03  3.07486E+03 -7.70114E+03 -4.32510E+03 -4.74430E+03 -8.79258E+03  5.57865E+02 -8.66176E+03
  5.86480E+03 -5.43957E+03  6.16114E+03 -7.18510E+02  5.47080E+03  2.62002E+03  5.68029E+02  4.85337E+03
 -2.35077E+03  1.13198E+03 -3.84441E+03 -3.32830E+03  2.13761E+03 -7.79981E+03  8.31257E+03 -5.82488E+03
  1.13992E+04  4.85098E+02  9.72853E+03  6.81500E+03  2.89242E+03  1.09429E+04 -3.76559E+03  1.06140E+04
 -7.88672E+03  4.98349E+03 -9.61934E+03 -1.09036E+03 -5.19607E+03 -7.01641E+03  1.94007E+03 -7.71945E+03
  6.05116E+03 -4.03300E+03  5.82839E+03  2.90097E+03  2.18128E+03  6.33874E+03 -6.84913E+02  4.76372E+03
 -2.67395E+03  2.59764E+03 -2.60025E+03  1.30160E+03 -8.69988E+02  1.25289E+03 -2.78615E+03  2.35489E+03
 -3.26042E+03  4.36009E+03 -7.67923E+03  3.28011E+03 -1.05318E+04  3.57862E+02 -1.29622E+04 -7.20702E+03
 -6.67101E+03 -1.47803E+04  3.28070E+03 -1.66618E+04  1.02966E+04 -1.36012E+04  1.52830E+04 -4.64532E+03
  1.42752E+04  3.95142E+03  9.78410E+03  1.03495E+04  2.77133E+02  1.19847E+04 -5.27610E+03  7.92356E+03
 -6.98049E+03  3.23078E+03 -4.06282E+03 -1.69910E+03 -1.28827E+03 -1.37900E+03 -2.51406E+02  4.35106E+01
 -2.26241E+03  3.19408E+02 -1.94943E+03 -1.44485E+03 -8.21774E+02 -3.34116E+03  4.43590E+01 -4.16702E+03
  5.55890E+03 -4.07092E+03  7.50048E+03 -4.00108E+02  7.88858E+03  5.26922E+03  2.47513E+03  1.07948E+04
 -4.29722E+03  1.36557E+04 -1.26424E+04  7.99190E+03 -1.48483E+04 -1.28284E+03 -9.89398E+03 -8.33753E+03
 -4.84990E+03 -1.19085E+04  3.29611E+03 -1.09874E+04  6.89484E+03 -6.32424E+03  8.48173E+03  8.18647E+02
  4.40895E+03  4.40692E+03  1.22946E+02  3.79278E+03 -3.13791E+03 -5.76778E+02 -2.35496E+02 -2.23930E+03
  3.58710E+03 -2.17192E+03  4.94263E+03  2.59930E+03  3.44841E+03  5.41669E+03  5.98531E+02  6.06258E+03
 -5.60672E+03  5.56399E+03 -8.19837E+03  6.12629E+01 -6.42962E+03 -5.56722E+03 -8.09363E+02 -9.54328E+03
  6.57223E+03 -8.60541E+03  9.32358E+03 -2.21805E+03  9.38416E+03  1.61769E+03  5.05211E+03  7.38434E+03
  1.31037E+03  7.82794E+03 -3.19784E+03  6.03420E+03 -5.29512E+03  3.67423E+03 -4.23069E+03  6.42547E+02
 -2.12410E+03 -9.21584E+02 -1.70988E+03  1.33984E+03 -4.25217E+03  4.12741E+02 -5.98869E+03 -1.23948E+03
 -6.16920E+03 -4.76039E+03 -1.64690E+03 -7.75533E+03  4.65897E+03 -8.15546E+03  7.62775E+03 -4.22972E+03
  8.02158E+03  4.65921E+02  5.33847E+03  5.45140E+03 -8.55649E+02  8.44178E+03 -5.62767E+03  5.40831E+03
