 $NMID ID='MM_0lb_SNR400_12hz_g40_78.RAW', FMTDAT='(8E13.5)'
 TRAMP=1., VOLUME=1. $END
  3.09625E+05  8.49795E+01  3.37744E+05  2.50669E+05  8.47841E+04  3.37595E+05 -1.32729E+05  2.51290E+05
 -1.90937E+05  8.39083E+04 -1.12267E+05 -3.24600E+04  4.13572E+02 -5.03492E+04  5.29257E+04 -3.84019E+02
  3.49866E+04  5.25496E+04 -1.69454E+04  7.49648E+04 -6.14035E+04  6.37380E+04 -8.40673E+04  3.17887E+04
 -8.14438E+04 -1.17196E+04 -5.71256E+04 -5.15778E+04 -1.44755E+04 -6.98446E+04  2.75640E+04 -4.52927E+04
  4.05357E+04  3.27975E+03  1.60761E+04  4.83336E+04 -3.44195E+04  4.68044E+04 -6.65175E+04 -2.34875E+02
 -5.36169E+04 -5.67383E+04 -7.41243E+03 -7.72528E+04  3.36951E+04 -5.57005E+04  4.85001E+04 -1.79569E+04
  4.40951E+04  1.03748E+04  3.17929E+04  2.55524E+04  1.59896E+04  2.96619E+04 -5.86803E+03  2.68537E+04
 -2.17325E+04  1.24714E+04 -1.82108E+04 -5.15745E+03  5.50856E+03 -7.35283E+03  2.25186E+04  1.32476E+04
  7.43088E+03  3.59186E+04 -3.26619E+04  3.64270E+04 -6.31261E+04  1.61140E+03 -5.69293E+04 -4.33287E+04
 -1.26075E+04 -6.38382E+04  3.98977E+04 -4.56341E+04  5.89649E+04 -1.94070E+03  3.37583E+04  3.29033E+04
 -5.91977E+03  3.65891E+04 -3.00731E+04  1.63543E+04 -3.04782E+04 -3.92988E+03 -1.71358E+04 -1.15125E+04
 -9.34459E+03 -1.29095E+04 -1.07697E+03 -1.89011E+04  7.51290E+03 -2.31195E+04  1.60824E+04 -1.34177E+04
  1.09754E+04  4.65029E+03 -8.96509E+03  1.23220E+04 -2.17632E+04 -4.96610E+03 -7.76883E+03 -3.40051E+04
  2.27427E+04 -4.42119E+04  4.95009E+04 -1.94559E+04  4.57613E+04  1.94909E+04  1.58482E+04  4.43786E+04
 -1.58960E+04  3.45196E+04 -2.55279E+04  2.01798E+03 -9.72628E+03 -2.79976E+04  2.13086E+04 -3.46947E+04
  4.15068E+04 -8.88014E+03  3.62491E+04  2.38587E+04  1.84852E+04  4.77182E+04 -7.70094E+03  5.13352E+04
 -3.22532E+04  3.48622E+04 -4.31377E+04  1.00862E+04 -4.37496E+04 -1.68485E+04 -2.39355E+04 -3.89602E+04
  7.91979E+03 -3.93679E+04  3.24375E+04 -1.51199E+04  2.93156E+04  1.12107E+04  4.34520E+03  1.98966E+04
 -1.35055E+04  8.14366E+03 -1.02448E+04 -7.48781E+03  5.94788E+03 -1.12405E+04  1.89009E+04  5.71543E+03
  1.34095E+04  2.20198E+04 -5.75328E+03  2.54578E+04 -2.25275E+04  1.16358E+04 -2.83154E+04 -4.38176E+03
 -2.20959E+04 -1.78989E+04 -9.46597E+03 -2.10257E+04  3.79467E+03 -2.01906E+04  1.64810E+04 -1.95895E+04
  2.69714E+04 -1.30082E+04  3.38284E+04  2.66301E+03  2.42346E+04  2.09782E+04  4.50030E+03  3.75711E+04
 -1.77937E+04  3.11832E+04 -2.85211E+04  1.06341E+04 -2.11087E+04 -1.02199E+04 -4.91263E+03 -1.27319E+04
  2.17491E+03 -2.80003E+03 -5.63630E+03  6.85881E+03 -1.68206E+04  5.54237E+03 -1.76364E+04 -8.03595E+03
 -1.03871E+04 -1.98375E+04  5.52925E+03 -2.41684E+04  1.58695E+04 -1.76421E+04  1.96567E+04 -2.32073E+03
  1.22922E+04  1.39454E+04 -1.28479E+03  2.03017E+04 -1.35473E+04  1.11787E+04 -2.03235E+04 -3.85743E+03
 -1.40911E+04 -1.79737E+04 -2.30810E+03 -2.39516E+04  1.10836E+04 -1.91493E+04  2.03514E+04 -9.98781E+03
  1.85919E+04  3.28377E+02  1.36226E+04  4.48127E+03  6.57891E+03  8.42295E+02  9.70759E+03 -2.21238E+03
  1.85630E+04  2.12160E+03  2.05089E+04  1.55996E+04  1.32875E+04  3.19662E+04 -3.12457E+03  3.57104E+04
 -2.12571E+04  2.85434E+04 -3.45064E+04  1.46386E+04 -3.58884E+04 -2.80899E+03 -3.00684E+04 -2.02157E+04
 -1.22631E+04 -2.96520E+04  1.00184E+04 -2.62537E+04  2.25663E+04 -1.31893E+04  1.98156E+04  6.34008E+03
  7.52435E+03  1.56377E+04 -9.41352E+03  1.29587E+04 -1.65999E+04  2.42169E+03 -1.36884E+04 -1.06796E+04
 -5.29566E+02 -1.57064E+04  8.08342E+03 -1.25791E+04  1.04255E+04 -1.35201E+03  2.34674E+03  6.58601E+03
 -7.25306E+03  3.01209E+03 -6.38357E+03 -6.17783E+03 -5.57920E+02 -1.42036E+04  9.19682E+03 -1.50875E+04
  1.74768E+04 -8.25890E+03  1.95784E+04  2.96913E+03  1.62312E+04  1.48349E+04  8.62607E+03  2.15970E+04
 -3.38355E+03  2.47276E+04 -1.49199E+04  1.42379E+04 -1.75816E+04  3.70304E+03 -1.22124E+04 -4.37694E+03
 -5.95804E+03 -5.13333E+03 -1.16786E+03  5.28678E+02 -2.91976E+03  1.85999E+03 -6.00539E+03  4.57287E+03
 -1.18746E+04 -1.15069E+03 -1.25125E+04 -9.75555E+03 -5.14986E+03 -1.58649E+04  5.33229E+03 -1.26613E+04
  1.08754E+04 -4.76874E+03  7.69803E+03  3.69866E+03 -3.99175E+02  4.90583E+03 -6.35997E+03 -2.64066E+02
 -5.56201E+03 -8.02535E+03 -9.25222E+02 -1.20861E+04  6.43952E+03 -1.26051E+04  1.58033E+04 -6.28632E+03
  1.91523E+04  1.76425E+03  1.31071E+04  1.04987E+04  3.04839E+03  1.39518E+04 -7.44465E+03  1.20113E+04
 -9.72387E+03  3.32267E+03 -5.18844E+03 -2.07548E+03  1.83258E+03 -3.11421E+03  6.25637E+03 -8.88243E+02
  6.47438E+03  5.32270E+03  1.03455E+03  9.59030E+03 -6.88501E+03  8.70795E+03 -1.21479E+04  1.82940E+03
 -9.03826E+03 -6.95638E+03  2.11273E+02 -1.05857E+04  5.70015E+03 -5.12747E+03  6.02278E+03  1.95483E+03
  1.17650E+03  6.45655E+03 -6.30483E+03  7.96755E+03 -9.31423E+03  4.13922E+03 -9.95173E+03 -3.20904E+03
 -5.45307E+03 -1.16858E+04  2.33126E+03 -1.26039E+04  1.02564E+04 -7.88387E+03  1.19625E+04  2.08120E+03
  7.48756E+03  9.47327E+03 -6.59118E+02  1.15257E+04 -9.19788E+03  6.50698E+03 -9.23405E+03 -9.56071E+02
 -8.60956E+03 -8.77791E+03 -1.45776E+03 -9.09452E+03  3.97189E+03 -7.21543E+03  6.02528E+03 -3.38734E+03
  4.02517E+03  1.02502E+03 -2.62245E+02  1.89053E+03 -7.93111E+02 -1.42904E+03  2.32516E+03 -5.35553E+03
  7.79708E+03 -2.54567E+03  1.10937E+04  1.23431E+03  1.09025E+04  7.45283E+03  7.86404E+03  1.45030E+04
 -3.51300E+03  1.74067E+04 -1.41642E+04  1.23369E+04 -1.80603E+04  1.87210E+03 -1.44795E+04 -5.49084E+03
 -7.40554E+03 -1.18071E+04 -3.26373E+02 -1.01804E+04  3.43600E+03 -5.36805E+03  3.62421E+03 -4.02658E+03
  2.57884E+03 -2.45755E+03  3.18380E+03 -2.86976E+03  4.71338E+03 -2.62233E+03  6.06716E+03 -1.28803E+03
  7.64376E+03  1.93131E+03  3.30436E+03  6.55080E+03 -1.49660E+03  7.13713E+03 -7.83864E+03  5.58676E+03
 -1.03049E+04 -1.44698E+03 -5.24874E+03 -6.88691E+03 -8.70604E+02 -1.01077E+04  5.90517E+03 -1.08056E+04
  1.08249E+04 -6.28561E+03  1.36403E+04  1.15883E+03  9.34684E+03  9.44617E+03  1.92429E+03  1.24292E+04
 -4.65302E+03  1.03516E+04 -6.76427E+03  3.08834E+03 -4.09470E+03 -1.55042E+03 -2.37045E+03 -1.47826E+03
 -7.10316E+02  3.34367E+02 -1.62563E+03  2.13736E+03 -4.28078E+03  1.87191E+03 -7.29781E+03 -1.28614E+03
 -4.11038E+03 -7.21252E+03 -9.24180E+01 -9.77411E+03  5.76316E+03 -8.76388E+03  9.57537E+03 -3.24127E+03
  9.61867E+03  4.29504E+03  4.43523E+03  8.68076E+03 -1.47645E+03  9.82025E+03 -7.46503E+03  6.08489E+03
 -8.90690E+03  2.41921E+02 -6.93108E+03 -5.70712E+03 -1.09710E+03 -7.91073E+03  4.02366E+03 -6.15156E+03
  5.43882E+03 -2.21455E+03  4.36916E+03  1.19617E+03  1.91317E+03  3.60265E+03  1.43359E+03  7.75441E+02
  1.48553E+03  1.11128E+03  2.98180E+03  1.41767E+03  2.84039E+03  3.07812E+03  2.49934E+03  5.05885E+03
 -2.21132E+03  6.51086E+03 -6.80541E+03  7.37931E+03 -8.91632E+03  2.44541E+03 -1.00325E+04 -3.21333E+03
 -3.85017E+03 -9.50224E+03  1.76110E+03 -1.07854E+04  5.50252E+03 -6.09596E+03  7.53628E+03 -2.43490E+03
  5.65742E+03  3.83353E+03  1.49199E+03  5.63548E+03 -2.36448E+03  3.53929E+03 -3.41387E+03 -2.38566E+02
 -1.67616E+03 -3.48064E+03  2.85444E+03 -4.31134E+03  4.05468E+03 -1.98362E+03  3.83290E+03  1.33767E+03
  1.87275E+03  1.63713E+03  6.49457E+02  1.44323E+03 -6.13501E+02  1.58396E+03  1.63063E+03 -5.90201E+02
  1.41575E+03 -2.89438E+02  3.81565E+03  1.24838E+03  1.30000E+03  4.85058E+03 -5.82959E+02  6.04851E+03
 -4.62816E+03  3.82435E+03 -6.41696E+03  1.15155E+03 -5.54502E+03 -1.99156E+03 -1.75578E+03 -3.35534E+03
  4.33955E+02 -3.52004E+03  2.51216E+03 -1.70728E+03  1.50410E+03  2.09568E+03 -1.49000E+03  2.99813E+03
 -4.73756E+03  1.87654E+03 -4.58785E+03 -2.26021E+03 -2.01536E+03 -5.22855E+03  8.50693E+02 -5.45778E+03
  2.59660E+03 -3.12683E+03  4.08948E+03 -4.16195E+02  2.67673E+03  1.28357E+03  7.39295E+02  2.74526E+03
 -1.47988E+03  3.34203E+02 -2.02388E+03 -1.41615E+03  1.04722E+03 -4.19214E+03  4.65299E+03 -2.91725E+03
  5.56155E+03  1.27424E+03  6.15474E+03  4.13248E+03  1.82258E+03  5.93815E+03 -2.37360E+03  5.47482E+03
 -4.71187E+03  2.35185E+03 -4.84912E+03 -7.58193E+02 -2.86834E+03 -3.65215E+03  8.21007E+02 -3.05905E+03
  3.41497E+03 -1.85829E+03  3.14665E+03  1.21791E+03  3.29689E+02  3.48992E+03  3.57516E+02  3.33997E+03
 -2.05475E+03  1.94930E+03 -1.85325E+03  6.88951E+02 -7.26160E+02  8.93894E+02 -1.02223E+03  9.18551E+02
 -2.09705E+03  2.59421E+03 -4.37797E+03  1.78348E+03 -5.26308E+03  5.57821E+01 -6.57291E+03 -3.60668E+03
 -3.28355E+03 -7.20326E+03  1.27881E+03 -8.83823E+03  4.51477E+03 -7.49424E+03  8.04172E+03 -2.67062E+03
  7.28380E+03  1.32810E+03  4.74420E+03  5.16775E+03  6.46847E+02  5.97888E+03 -2.40658E+03  4.36795E+03
 -2.77111E+03  1.29524E+03 -9.76624E+02  1.68911E+02 -5.86299E+02 -9.03918E+02 -5.71169E+02  7.52212E+01
 -1.48114E+03  3.92696E+02 -8.76109E+02 -2.62977E+01 -1.71728E+02 -1.38518E+03  5.65730E+02 -2.34499E+03
  3.11321E+03 -1.89566E+03  3.16089E+03 -2.81995E+02  4.20182E+03  2.61892E+03  9.37517E+02  5.52687E+03
 -3.53489E+03  6.48489E+03 -6.32377E+03  3.30694E+03 -6.56226E+03 -8.19262E+02 -5.23606E+03 -4.49918E+03
 -2.09634E+03 -6.06194E+03  1.08093E+03 -5.24639E+03  3.14092E+03 -2.77985E+03  2.95184E+03 -8.46248E+01
  1.83854E+03  2.28203E+03 -1.00408E+01  1.99212E+03 -1.76600E+03 -6.80455E+02 -8.40404E+01 -1.01685E+03
  9.24597E+02 -1.00450E+02  2.07588E+03  1.25476E+03  1.72389E+03  1.72360E+03 -1.26427E+02  2.76028E+03
 -2.65637E+03  3.08566E+03 -3.11184E+03  9.89515E+02 -3.50588E+03 -2.98055E+03  4.21651E+02 -4.10752E+03
  3.02989E+03 -3.76034E+03  4.35491E+03 -1.56728E+03  3.92377E+03  3.86428E+02  2.80487E+03  3.24608E+03
  3.67016E+02  2.73922E+03 -1.25425E+03  2.70114E+03 -2.42577E+03  1.62875E+03 -2.18386E+03 -7.74853E+02
 -9.74211E+02 -2.76465E+02 -1.04722E+03  1.01025E+02 -2.37862E+03  1.13809E+03 -2.84317E+03 -4.45548E+02
 -2.87296E+03 -6.69752E+02 -1.29818E+03 -3.34743E+03  1.58036E+03 -4.12271E+03  2.90645E+03 -2.09374E+03
  4.07554E+03  1.32288E+02  1.78460E+03  2.82993E+03 -7.52588E+02  3.67356E+03 -2.62221E+03  2.63979E+03
