 $NMID ID='MM_0lb_SNR400_7hz_g60_6.RAW', FMTDAT='(8E13.5)'
 TRAMP=1., VOLUME=1. $END
  3.09660E+05  2.64400E+01  3.37670E+05  2.50502E+05  8.52685E+04  3.39025E+05 -1.32537E+05  2.53558E+05
 -1.91535E+05  8.43941E+04 -1.12211E+05 -3.22049E+04  2.37931E+02 -5.06212E+04  5.42641E+04 -8.63064E+02
  3.50557E+04  5.30181E+04 -1.63404E+04  7.65277E+04 -6.09778E+04  6.45874E+04 -8.67575E+04  3.34405E+04
 -8.30005E+04 -1.25311E+04 -5.83802E+04 -5.31305E+04 -1.51916E+04 -7.21426E+04  2.82705E+04 -4.73012E+04
  4.24508E+04  3.60259E+03  1.70865E+04  4.94039E+04 -3.48720E+04  4.77518E+04 -6.91953E+04 -2.18059E+01
 -5.59535E+04 -5.88509E+04 -7.52199E+03 -7.99846E+04  3.55858E+04 -5.87131E+04  5.12652E+04 -1.96029E+04
  4.75270E+04  1.07581E+04  3.35231E+04  2.66603E+04  1.59064E+04  3.07150E+04 -6.77421E+03  2.68571E+04
 -2.37565E+04  1.14911E+04 -1.73019E+04 -6.12649E+03  7.82595E+03 -6.95001E+03  2.34192E+04  1.52101E+04
  7.01267E+03  3.83927E+04 -3.39046E+04  3.79098E+04 -6.75745E+04  2.81848E+03 -5.99563E+04 -4.65654E+04
 -1.32134E+04 -6.70691E+04  4.26911E+04 -4.90277E+04  6.42559E+04 -2.92538E+03  3.79107E+04  3.60673E+04
 -5.52363E+03  4.21675E+04 -3.24123E+04  2.06516E+04 -3.63606E+04 -3.21131E+03 -2.10507E+04 -1.30957E+04
 -1.01714E+04 -1.57155E+04 -5.96059E+02 -1.99829E+04  8.81595E+03 -2.41577E+04  1.60284E+04 -1.08039E+04
  1.00930E+04  6.07417E+03 -1.17511E+04  1.29650E+04 -2.45518E+04 -7.87323E+03 -9.22232E+03 -3.93482E+04
  2.53049E+04 -4.93709E+04  5.47425E+04 -2.07959E+04  4.95357E+04  2.07944E+04  1.84182E+04  4.88347E+04
 -1.70052E+04  3.79257E+04 -2.82599E+04  3.04894E+03 -1.26229E+04 -3.08254E+04  2.26488E+04 -3.76165E+04
  4.71317E+04 -1.23369E+04  4.27862E+04  2.54094E+04  2.31271E+04  5.36432E+04 -8.73916E+03  5.96475E+04
 -3.83037E+04  4.13105E+04 -5.01389E+04  1.19042E+04 -5.05643E+04 -2.02477E+04 -2.69326E+04 -4.49250E+04
  8.40498E+03 -4.40424E+04  3.60403E+04 -1.92125E+04  3.45526E+04  1.04217E+04  6.00908E+03  2.23176E+04
 -1.34629E+04  1.13678E+04 -1.17232E+04 -8.11994E+03  5.35755E+03 -1.12658E+04  2.02587E+04  5.70431E+03
  1.50420E+04  2.25486E+04 -5.53197E+03  2.79776E+04 -2.35516E+04  1.56070E+04 -3.35045E+04 -2.55047E+03
 -2.78497E+04 -1.90146E+04 -1.26009E+04 -2.84169E+04  3.56152E+03 -2.96254E+04  2.15587E+04 -2.56867E+04
  3.59279E+04 -1.47002E+04  4.06116E+04  6.11887E+03  2.85970E+04  2.68858E+04  4.94971E+03  4.40719E+04
 -2.08578E+04  3.63796E+04 -3.25573E+04  1.19816E+04 -2.31278E+04 -9.47800E+03 -5.31266E+03 -1.30179E+04
  3.15149E+02 -6.32715E+02 -9.67508E+03  8.99625E+03 -2.29706E+04  5.79575E+03 -2.22907E+04 -1.10599E+04
 -1.35934E+04 -2.58505E+04  6.76348E+03 -3.10704E+04  2.05370E+04 -2.23329E+04  2.58855E+04 -1.59692E+03
  1.72647E+04  1.79859E+04 -2.14234E+03  2.63754E+04 -1.88463E+04  1.57897E+04 -2.65981E+04 -6.20671E+03
 -1.89808E+04 -2.34252E+04 -3.15825E+03 -3.15424E+04  1.37079E+04 -2.57283E+04  2.49282E+04 -1.46336E+04
  2.40273E+04 -9.65587E+02  1.68444E+04  5.48258E+03  1.03845E+04  1.80588E+03  1.37478E+04 -2.42260E+03
  2.47284E+04  3.16060E+03  2.95859E+04  1.97148E+04  2.07274E+04  4.22072E+04 -3.73827E+03  5.05472E+04
 -2.81304E+04  4.35112E+04 -4.75758E+04  2.26282E+04 -5.30008E+04 -4.24770E+03 -4.12033E+04 -3.03806E+04
 -1.57372E+04 -4.35687E+04  1.55973E+04 -3.69918E+04  3.23030E+04 -1.70492E+04  2.64255E+04  9.65331E+03
  9.17797E+03  2.16381E+04 -1.33672E+04  1.75954E+04 -2.23226E+04  2.50294E+03 -1.75292E+04 -1.32552E+04
 -9.34644E+01 -2.19391E+04  1.19024E+04 -1.62912E+04  1.47163E+04 -8.60912E+02  4.55208E+03  1.05830E+04
 -1.06796E+04  5.07867E+03 -1.16155E+04 -8.33008E+03 -3.47076E+03 -2.13310E+04  1.30114E+04 -2.37240E+04
  2.69158E+04 -1.32047E+04  3.19769E+04  2.77235E+03  2.69771E+04  2.14715E+04  1.33475E+04  3.56669E+04
 -6.62999E+03  3.78946E+04 -2.44483E+04  2.25904E+04 -2.61830E+04  5.45301E+03 -1.74359E+04 -7.50356E+03
 -6.86306E+03 -8.96397E+03 -8.00775E+02 -3.76084E+02 -2.91421E+03  5.07563E+03 -9.13961E+03  6.23755E+03
 -1.70864E+04 -1.73493E+03 -1.69936E+04 -1.43658E+04 -6.89580E+03 -2.26828E+04  7.13905E+03 -1.87404E+04
  1.50025E+04 -7.83256E+03  1.01539E+04  5.67227E+03 -1.39255E+03  7.53790E+03 -8.73832E+03  4.40682E+02
 -9.18820E+03 -1.23837E+04 -9.45476E+02 -1.83756E+04  1.00499E+04 -1.95616E+04  2.35973E+04 -1.06067E+04
  2.83226E+04  3.97519E+03  2.08996E+04  1.78149E+04  4.26524E+03  2.42791E+04 -1.13900E+04  1.87268E+04
 -1.50386E+04  4.84282E+03 -7.94862E+03 -4.02868E+03  2.56723E+03 -6.29478E+03  1.01768E+04 -1.36129E+03
  9.27624E+03  8.17299E+03  1.55644E+03  1.52874E+04 -1.19537E+04  1.34975E+04 -1.93814E+04  3.20774E+03
 -1.33090E+04 -9.87775E+03  4.58959E+02 -1.61637E+04  9.86461E+03 -8.03519E+03  1.15902E+04  4.60277E+03
  1.95815E+03  1.35304E+04 -9.97879E+03  1.37886E+04 -1.86127E+04  5.79086E+03 -1.78850E+04 -6.18499E+03
 -9.93380E+03 -2.02510E+04  5.09008E+03 -2.25406E+04  2.00459E+04 -1.30020E+04  2.00907E+04  4.34107E+03
  1.20623E+04  1.74504E+04 -2.22725E+03  1.98974E+04 -1.49509E+04  1.05929E+04 -1.63972E+04 -1.24719E+03
 -1.21033E+04 -1.36557E+04 -1.86781E+03 -1.45940E+04  7.54331E+03 -1.24115E+04  9.64969E+03 -3.82120E+03
  6.47477E+03  3.37407E+03 -1.72310E+03  2.96988E+03 -1.83369E+03 -5.06764E+03  4.18282E+03 -1.06194E+04
  1.40653E+04 -7.39168E+03  2.13232E+04  2.88198E+03  1.97171E+04  1.48684E+04  1.23388E+04  2.73683E+04
 -7.16048E+03  2.98902E+04 -2.48114E+04  2.26431E+04 -3.35687E+04  3.98626E+03 -2.63559E+04 -1.19249E+04
 -1.22504E+04 -2.24203E+04 -2.27631E+02 -1.85752E+04  6.39634E+03 -1.14554E+04  6.88278E+03 -7.16319E+03
  4.80479E+03 -3.51731E+03  4.76437E+03 -3.85087E+03  7.19137E+03 -5.45584E+03  1.00688E+04 -1.99389E+03
  1.40776E+04  2.54951E+03  8.02656E+03  1.22624E+04 -2.27136E+03  1.58473E+04 -1.44048E+04  1.17584E+04
 -1.95316E+04 -1.50184E+03 -1.31083E+04 -1.36497E+04 -2.95429E+03 -2.05543E+04  1.06696E+04 -1.96958E+04
  2.18633E+04 -1.14340E+04  2.67404E+04  3.21452E+03  1.71181E+04  1.85643E+04  1.43680E+03  2.38259E+04
 -9.24732E+03  1.95186E+04 -1.53278E+04  6.41892E+03 -1.05719E+04 -2.89992E+03 -3.82228E+03 -3.19675E+03
 -1.53548E+03  2.08905E+02 -2.01060E+03  4.38823E+03 -8.25502E+03  2.88243E+03 -1.33316E+04 -1.99643E+03
 -1.08542E+04 -1.20723E+04 -5.32796E+02 -1.91841E+04  1.15482E+04 -1.82562E+04  2.01455E+04 -5.31494E+03
  2.05086E+04  9.66911E+03  9.96024E+03  1.80355E+04 -2.75921E+03  1.97345E+04 -1.48057E+04  1.27899E+04
 -1.97763E+04  3.09022E+02 -1.42120E+04 -1.24404E+04 -1.58100E+03 -1.75680E+04  9.12592E+03 -1.30271E+04
  1.26447E+04 -4.53015E+03  8.28401E+03  3.17177E+03  3.04682E+03  5.65405E+03  1.33264E+03  2.37425E+03
  3.83934E+03  1.19063E+03  4.08152E+03  2.43148E+03  6.56801E+03  7.32652E+03  3.86607E+03  1.12417E+04
 -3.55847E+03  1.59351E+04 -1.47075E+04  1.52615E+04 -2.12793E+04  2.86855E+03 -2.13145E+04 -9.49901E+03
 -1.07523E+04 -2.08951E+04  2.98610E+03 -2.34447E+04  1.36942E+04 -1.38197E+04  1.69004E+04 -4.16717E+03
  1.32729E+04  7.67597E+03  2.63130E+03  1.21468E+04 -5.62369E+03  7.36930E+03 -8.75387E+03 -1.49136E+03
 -4.42833E+03 -9.41971E+03  5.09225E+03 -9.19336E+03  9.06034E+03 -5.14507E+03  8.48093E+03  1.75735E+03
  5.95974E+03  4.86694E+03  1.99056E+03  5.09006E+03 -3.92622E+02  3.32156E+03  1.80465E+03  1.30101E+02
  3.99542E+03 -1.72100E+03  8.72796E+03  4.52098E+03  5.48804E+03  1.16079E+04 -1.64589E+03  1.50550E+04
 -1.01535E+04  9.67298E+03 -1.35475E+04  2.36835E+03 -1.20189E+04 -4.39000E+03 -5.31440E+03 -8.38348E+03
  1.31978E+03 -8.37480E+03  5.22550E+03 -4.05924E+03  5.39840E+03  3.72058E+03 -8.70045E+02  7.18010E+03
 -9.06584E+03  4.18348E+03 -1.09543E+04 -4.24312E+03 -5.48710E+03 -1.29341E+04  1.66325E+03 -1.20621E+04
  7.85267E+03 -7.35123E+03  9.43324E+03 -1.04680E+03  7.10926E+03  3.77504E+03  4.72610E+02  7.05349E+03
 -5.01184E+03  1.87637E+03 -5.92919E+03 -3.93323E+03  1.30308E+03 -1.14168E+04  1.04815E+04 -7.72128E+03
  1.39166E+04  6.60607E+02  1.30472E+04  1.02771E+04  3.89720E+03  1.55607E+04 -4.93683E+03  1.41426E+04
 -1.23520E+04  6.38843E+03 -1.20882E+04 -1.94429E+03 -8.33808E+03 -8.76609E+03  1.63473E+03 -9.64521E+03
  7.70445E+03 -3.68580E+03  7.61654E+03  4.28318E+03  2.86477E+03  8.67200E+03 -1.71838E+03  7.59361E+03
 -2.75908E+03  4.23017E+03 -2.48069E+03  1.29276E+03 -1.25055E+03  1.50464E+03 -1.79271E+03  2.22258E+03
 -3.60319E+03  4.85511E+03 -9.53995E+03  5.64802E+03 -1.44780E+04  6.95829E+02 -1.74255E+04 -8.66583E+03
 -8.62719E+03 -1.98635E+04  3.01911E+03 -2.36046E+04  1.48320E+04 -1.90798E+04  2.14933E+04 -6.82436E+03
  2.10516E+04  4.44385E+03  1.29255E+04  1.42256E+04  1.30762E+03  1.55163E+04 -6.44071E+03  1.06847E+04
 -1.05070E+04  4.31143E+03 -5.39036E+03 -1.18407E+03 -7.83933E+02 -1.73252E+03 -1.37207E+03 -1.43803E+02
 -2.14097E+03  1.14738E+03 -3.49987E+03 -1.29362E+03 -8.38220E+02 -3.64503E+03  9.26610E+02 -6.64470E+03
  6.46130E+03 -5.16604E+03  1.04954E+04  1.06668E+03  1.07224E+04  8.50403E+03  4.21221E+03  1.68028E+04
 -7.40353E+03  1.83094E+04 -1.65976E+04  1.14680E+04 -1.94522E+04 -1.48486E+03 -1.46620E+04 -1.26224E+04
 -6.29550E+03 -1.64778E+04  3.54635E+03 -1.60314E+04  1.08273E+04 -8.39049E+03  1.20566E+04  6.83443E+02
  5.89462E+03  5.12368E+03 -5.33686E+02  5.01261E+03 -3.21068E+03 -2.89933E+02  8.63951E+01 -4.22270E+03
  5.91146E+03 -2.65211E+03  6.70627E+03  1.33264E+03  4.66464E+03  6.65686E+03  2.50954E+02  9.28331E+03
 -7.78355E+03  8.13367E+03 -1.24381E+04  8.47304E+01 -1.08485E+04 -8.30173E+03 -1.94024E+03 -1.37389E+04
  8.72879E+03 -1.10031E+04  1.30280E+04 -4.24855E+03  1.32654E+04  4.00020E+03  6.98298E+03  1.06709E+04
  2.01944E+03  1.14434E+04 -4.55691E+03  9.21645E+03 -7.84438E+03  5.10500E+03 -6.16996E+03  8.22212E+02
 -3.26300E+03 -7.39540E+02 -2.55324E+03  9.12071E+02 -4.99839E+03  1.27953E+03 -7.09697E+03 -1.45297E+03
 -8.13608E+03 -7.25851E+03 -1.87588E+03 -1.11222E+04  5.01194E+03 -1.23972E+04  1.04718E+04 -6.00463E+03
  1.12180E+04  1.01257E+03  7.33739E+03  7.65645E+03 -1.07924E+03  1.06902E+04 -8.78975E+03  7.02645E+03
