 $NMID ID='MM_0lb_SNR400_14hz_g50_91.RAW', FMTDAT='(8E13.5)'
 TRAMP=1., VOLUME=1. $END
  3.09718E+05  1.61090E+02  3.37413E+05  2.50486E+05  8.48636E+04  3.37948E+05 -1.32514E+05  2.50911E+05
 -1.90647E+05  8.25689E+04 -1.12189E+05 -3.23614E+04  1.31569E+03 -5.01313E+04  5.32982E+04 -3.08711E+02
  3.54892E+04  5.27443E+04 -1.70147E+04  7.61411E+04 -6.07292E+04  6.40988E+04 -8.39679E+04  3.12124E+04
 -8.09456E+04 -1.04409E+04 -5.69980E+04 -5.06900E+04 -1.49222E+04 -6.94854E+04  2.73297E+04 -4.59336E+04
  3.97776E+04  3.82716E+03  1.61893E+04  4.80158E+04 -3.45117E+04  4.76715E+04 -6.71352E+04 -3.86542E+02
 -5.38756E+04 -5.68536E+04 -6.89260E+03 -7.72463E+04  3.38052E+04 -5.48082E+04  4.80617E+04 -1.71495E+04
  4.31861E+04  1.17905E+04  3.17090E+04  2.55759E+04  1.61193E+04  2.90680E+04 -5.44197E+03  2.76224E+04
 -2.16155E+04  1.21980E+04 -1.85485E+04 -5.16025E+03  5.46028E+03 -7.48383E+03  2.20349E+04  1.23619E+04
  7.14946E+03  3.52775E+04 -3.22857E+04  3.53879E+04 -6.36532E+04  2.35499E+03 -5.72960E+04 -4.28459E+04
 -1.23155E+04 -6.32183E+04  3.97441E+04 -4.55326E+04  5.83226E+04 -2.71026E+03  3.40654E+04  3.23217E+04
 -6.04131E+03  3.58726E+04 -2.95708E+04  1.62318E+04 -3.03320E+04 -5.00512E+03 -1.66940E+04 -1.17531E+04
 -8.31597E+03 -1.33557E+04 -1.09303E+03 -1.89163E+04  7.74696E+03 -2.26703E+04  1.56370E+04 -1.29115E+04
  1.09254E+04  4.78139E+03 -8.67815E+03  1.26896E+04 -2.12571E+04 -4.93016E+03 -8.21504E+03 -3.40632E+04
  2.25698E+04 -4.34756E+04  4.83092E+04 -1.94859E+04  4.51027E+04  1.98008E+04  1.51119E+04  4.46115E+04
 -1.65647E+04  3.31053E+04 -2.48034E+04  1.87561E+03 -9.95531E+03 -2.77898E+04  2.13632E+04 -3.41341E+04
  4.14360E+04 -9.41154E+03  3.60277E+04  2.37701E+04  1.82270E+04  4.64551E+04 -8.62619E+03  5.09464E+04
 -3.19203E+04  3.42474E+04 -4.23399E+04  9.74677E+03 -4.27115E+04 -1.69639E+04 -2.43297E+04 -3.85485E+04
  7.21599E+03 -3.80778E+04  3.16660E+04 -1.46096E+04  2.92055E+04  1.09709E+04  4.29116E+03  1.89375E+04
 -1.31493E+04  8.84597E+03 -1.03296E+04 -7.54660E+03  5.70021E+03 -1.11917E+04  1.75671E+04  5.97720E+03
  1.33493E+04  2.23285E+04 -6.15590E+03  2.49466E+04 -2.19678E+04  1.20617E+04 -2.82056E+04 -4.84556E+03
 -2.06742E+04 -1.72141E+04 -8.66932E+03 -2.09422E+04  4.43562E+03 -1.93725E+04  1.58425E+04 -1.83681E+04
  2.62736E+04 -1.29350E+04  3.19127E+04  2.64191E+03  2.39502E+04  2.04963E+04  4.07474E+03  3.61725E+04
 -1.78225E+04  3.00997E+04 -2.84642E+04  1.08470E+04 -2.10353E+04 -1.02515E+04 -4.81251E+03 -1.36754E+04
  1.68670E+03 -3.28882E+03 -4.88124E+03  6.65377E+03 -1.65401E+04  5.75634E+03 -1.66854E+04 -7.10286E+03
 -1.00090E+04 -1.87491E+04  4.98209E+03 -2.37062E+04  1.55327E+04 -1.72502E+04  1.85623E+04 -1.74305E+03
  1.14884E+04  1.29825E+04 -1.10314E+03  1.91826E+04 -1.27567E+04  1.11193E+04 -1.98359E+04 -3.45947E+03
 -1.45967E+04 -1.68521E+04 -2.15387E+03 -2.34996E+04  1.05090E+04 -1.87452E+04  1.88709E+04 -9.90937E+03
  1.77315E+04  1.79059E+02  1.22934E+04  4.50953E+03  6.39849E+03  4.43051E+02  9.27412E+03 -1.68783E+03
  1.72368E+04  2.56707E+03  1.89799E+04  1.56439E+04  1.30250E+04  3.06434E+04 -3.17948E+03  3.42994E+04
 -2.03547E+04  2.74546E+04 -3.18698E+04  1.37399E+04 -3.33880E+04 -3.23335E+03 -2.78315E+04 -1.91969E+04
 -1.22434E+04 -2.79666E+04  9.25979E+03 -2.46432E+04  2.15996E+04 -1.33183E+04  1.92678E+04  5.27854E+03
  7.47970E+03  1.41096E+04 -9.19220E+03  1.27481E+04 -1.62023E+04  2.67973E+03 -1.26751E+04 -1.01106E+04
  7.14000E+01 -1.52268E+04  8.11000E+03 -1.19797E+04  1.01731E+04 -1.53699E+03  2.08307E+03  6.92723E+03
 -6.71263E+03  2.73809E+03 -5.96657E+03 -5.27232E+03 -3.82954E+02 -1.34979E+04  9.08244E+03 -1.46267E+04
  1.68450E+04 -7.03147E+03  1.80662E+04  2.71167E+03  1.59172E+04  1.30423E+04  7.16405E+03  2.05930E+04
 -3.46768E+03  2.23610E+04 -1.42645E+04  1.40660E+04 -1.59767E+04  3.29388E+03 -1.15007E+04 -3.67229E+03
 -4.86104E+03 -5.23064E+03 -2.12636E+02  9.44136E+02 -2.48215E+03  3.00891E+03 -5.29563E+03  4.22831E+03
 -1.05867E+04 -5.29992E+02 -1.13910E+04 -8.91176E+03 -4.28054E+03 -1.50865E+04  4.41973E+03 -1.10945E+04
  9.72578E+03 -5.09421E+03  6.37025E+03  3.13222E+03  2.16981E+02  4.37286E+03 -4.72687E+03  6.89937E+01
 -4.98783E+03 -7.07107E+03 -1.31213E+03 -1.04327E+04  6.01785E+03 -1.21303E+04  1.39463E+04 -5.58421E+03
  1.69687E+04  1.20764E+03  1.19755E+04  9.92354E+03  2.37679E+03  1.28150E+04 -7.28147E+03  1.09734E+04
 -9.37452E+03  3.60234E+03 -4.54537E+03 -2.61552E+03  1.67809E+03 -2.98182E+03  6.64145E+03 -1.33835E+03
  4.94154E+03  5.11661E+03  1.29217E+03  9.42756E+03 -6.58126E+03  9.00868E+03 -1.10995E+04  1.92694E+03
 -7.59300E+03 -5.31550E+03 -1.39916E+02 -8.91761E+03  5.83522E+03 -5.03572E+03  6.50902E+03  1.77612E+03
  1.13791E+03  5.91592E+03 -6.20551E+03  7.72617E+03 -8.71347E+03  3.59159E+03 -7.56929E+03 -3.09846E+03
 -5.05209E+03 -1.03772E+04  2.81507E+03 -1.16297E+04  9.63552E+03 -7.18302E+03  1.06800E+04  1.78725E+03
  6.30947E+03  8.58473E+03 -7.93353E+02  1.06847E+04 -7.16249E+03  6.50082E+03 -8.65087E+03 -1.04290E+03
 -8.10466E+03 -7.35885E+03 -1.78747E+03 -7.33769E+03  3.42929E+03 -6.74498E+03  4.86376E+03 -3.28797E+03
  3.85730E+03  7.07792E+02 -1.51888E+02  1.65116E+03  6.01621E+02 -1.76846E+03  7.97523E+02 -4.33755E+03
  6.75621E+03 -2.42111E+03  9.48042E+03  1.35324E+03  9.37888E+03  6.19329E+03  6.40529E+03  1.20076E+04
 -1.96855E+03  1.44335E+04 -1.20064E+04  1.10153E+04 -1.60213E+04  1.69806E+03 -1.22974E+04 -5.16992E+03
 -6.23802E+03 -1.05914E+04 -1.02051E+03 -8.58709E+03  2.97699E+03 -4.43732E+03  3.15158E+03 -2.96195E+03
  2.18282E+03 -2.53686E+03  2.79041E+03 -2.64287E+03  4.51419E+03 -1.92330E+03  5.38695E+03 -5.88542E+02
  6.92048E+03  2.23071E+03  3.36715E+03  5.68238E+03 -1.27499E+03  5.81804E+03 -7.15351E+03  5.10048E+03
 -8.21535E+03 -1.19143E+03 -4.83133E+03 -5.93279E+03 -2.36041E+02 -8.90768E+03  5.48004E+03 -9.68738E+03
  8.75736E+03 -5.92428E+03  1.11845E+04  1.27038E+03  7.81895E+03  7.51121E+03  1.29259E+03  1.07440E+04
 -4.33547E+03  9.41590E+03 -5.69157E+03  2.82549E+03 -3.81220E+03 -1.65247E+03 -1.38779E+03 -9.89033E+02
 -9.45723E+02  9.56406E+01 -1.49374E+03  2.66723E+03 -3.94799E+03  1.19971E+03 -5.83392E+03  5.11929E+00
 -3.59623E+03 -6.65165E+03  1.65610E+02 -8.61146E+03  5.03054E+03 -7.93907E+03  6.91480E+03 -1.66951E+03
  7.76927E+03  4.13905E+03  2.91473E+03  6.69453E+03 -1.22966E+03  8.10355E+03 -5.33064E+03  5.01784E+03
 -7.21667E+03  1.67286E+02 -5.88301E+03 -4.52713E+03 -1.26144E+03 -6.79594E+03  3.43786E+03 -4.66196E+03
  5.24653E+03 -2.20754E+03  3.71000E+03  8.14444E+02  1.52327E+03  1.94889E+03  1.60171E+03  1.20502E+03
  2.03294E+03  7.13474E+02  2.69322E+03  9.29764E+02  1.92690E+03  3.66709E+03  2.44220E+03  3.75450E+03
 -2.30737E+03  6.22342E+03 -5.54538E+03  6.64898E+03 -6.55150E+03  2.43290E+03 -8.51429E+03 -2.77867E+03
 -4.10231E+03 -7.81811E+03  9.49947E+02 -8.60619E+03  3.71889E+03 -5.53247E+03  5.83135E+03 -1.60924E+03
  4.69314E+03  3.00191E+03  8.30074E+02  4.60589E+03 -2.12905E+03  2.68465E+03 -2.46147E+03 -2.45327E+02
 -1.81146E+03 -2.86897E+03  1.64791E+03 -3.55072E+03  3.17546E+03 -1.78174E+03  2.69294E+03  1.01114E+03
  1.35073E+03  1.64720E+03  1.46524E+03  5.41648E+02 -7.43957E+02  1.02703E+03  1.58404E+03 -7.87736E+01
  1.01017E+03 -4.12748E+02  3.14050E+03  1.62348E+03  1.02323E+03  3.81236E+03 -9.48428E+02  5.61735E+03
 -3.59372E+03  3.12068E+03 -4.19687E+03  6.26350E+02 -4.18429E+03 -1.36169E+03 -1.01947E+03 -2.79928E+03
  5.53941E+02 -2.49593E+03  1.61851E+03 -1.49784E+03  1.40111E+03  1.85441E+03 -9.40382E+02  2.24688E+03
 -2.76020E+03  1.89136E+03 -2.79876E+03 -2.52784E+03 -1.77518E+03 -3.82763E+03  1.14229E+02 -3.68903E+03
  1.64043E+03 -1.61321E+03  2.72297E+03 -6.37399E+02  2.23037E+03  3.61657E+02  5.49547E+02  2.10521E+03
 -1.02745E+03  1.31791E+02 -2.34328E+03 -7.51405E+02  4.63688E+02 -2.47074E+03  3.58653E+03 -1.94661E+03
  3.48994E+03  4.61241E+02  4.96905E+03  1.72399E+03  2.38746E+03  4.21122E+03 -1.59311E+03  4.60227E+03
 -2.82246E+03  2.07496E+03 -4.11337E+03  2.09058E+02 -2.44050E+03 -2.84382E+03  5.33816E+02 -1.91259E+03
  3.55857E+03 -1.27154E+03  2.12919E+03  1.36509E+03  9.27051E+02  2.68555E+03 -2.19010E+02  2.19336E+03
 -1.17653E+03  2.00992E+03 -1.20883E+03  1.81343E+02 -7.87226E+01  1.15496E+03 -8.62350E+02  1.06571E+03
 -7.02129E+02  2.03587E+03 -2.54220E+03  1.17010E+03 -3.95010E+03  5.02879E+01 -4.59928E+03 -2.30287E+03
 -2.80779E+03 -6.60236E+03  8.08360E+02 -7.13102E+03  3.76736E+03 -5.52279E+03  6.25368E+03 -1.93162E+03
  5.83776E+03  8.52716E+02  2.78034E+03  4.50986E+03  3.63560E+01  4.21182E+03 -1.05031E+03  3.12384E+03
 -2.38853E+03  1.41649E+03 -1.53332E+03 -3.85471E+02 -2.64834E+02 -4.18615E+02 -6.95715E+02  1.98811E+02
 -9.79346E+02  2.75331E+02 -9.57153E+02 -5.79157E+02 -8.93161E+01 -1.00649E+03  7.35670E+01 -1.38338E+03
  2.14652E+03 -1.60333E+03  1.75300E+03 -2.63245E+02  2.19976E+03  1.66733E+03  2.97595E+02  4.04141E+03
 -2.65559E+03  4.34517E+03 -4.20048E+03  2.41843E+03 -4.13252E+03  4.82002E+01 -3.89833E+03 -3.74302E+03
 -1.44613E+03 -3.42575E+03  4.23596E+02 -3.40920E+03  2.35130E+03 -1.60749E+03  1.67215E+03 -2.22861E+02
  2.16224E+03  7.20896E+02 -4.24622E+02  1.32817E+03 -7.97491E+02 -1.81294E+02 -3.08462E+02 -2.73441E+02
  1.72743E+03 -1.25721E+02  1.16364E+03  2.80910E+02  1.40019E+03  1.35452E+03  2.07110E+02  1.71332E+03
 -1.87323E+03  2.53793E+03 -2.82158E+03  3.84589E+02 -2.04406E+03 -1.77045E+03 -1.02602E+02 -3.04658E+03
  1.54485E+03 -2.46494E+03  2.55351E+03 -5.47367E+02  2.80737E+03  3.58535E+02  1.60015E+03  2.18817E+03
  7.21184E+02  2.48533E+03 -1.67448E+03  1.88486E+03 -1.72583E+03  9.88197E+02 -2.10949E+03  5.01571E+02
 -5.71355E+02  2.10808E+01 -5.79622E+02  7.03908E+02 -8.22582E+02  1.35109E+02 -1.98082E+03 -5.19067E+02
 -2.55702E+03 -5.52604E+02 -5.90247E+02 -2.72954E+03  1.36538E+03 -3.48300E+03  1.86830E+03 -1.10044E+03
  1.77547E+03  5.64753E+02 -1.85474E+02  1.35891E+03 -1.11235E+03  2.86787E+03 -1.07150E+03  1.37129E+03
