 $NMID ID='MM_0lb_SNR400_14hz_g45_42.RAW', FMTDAT='(8E13.5)'
 TRAMP=1., VOLUME=1. $END
  3.09752E+05  6.63494E+02  3.37973E+05  2.50493E+05  8.49059E+04  3.37398E+05 -1.32837E+05  2.51189E+05
 -1.89875E+05  8.28051E+04 -1.11882E+05 -3.29789E+04  1.38021E+03 -5.04421E+04  5.37196E+04  5.82378E+02
  3.52972E+04  5.31315E+04 -1.63009E+04  7.52912E+04 -6.06614E+04  6.32961E+04 -8.40319E+04  3.20948E+04
 -8.06876E+04 -1.11735E+04 -5.70044E+04 -5.13645E+04 -1.45009E+04 -6.96388E+04  2.77948E+04 -4.56661E+04
  3.95444E+04  3.70838E+03  1.61346E+04  4.75016E+04 -3.45316E+04  4.65364E+04 -6.67569E+04 -4.39800E+02
 -5.31123E+04 -5.58611E+04 -6.88552E+03 -7.71584E+04  3.38266E+04 -5.47427E+04  4.81569E+04 -1.67515E+04
  4.33781E+04  1.08395E+04  3.18948E+04  2.53027E+04  1.55167E+04  2.95148E+04 -5.85420E+03  2.80518E+04
 -2.20819E+04  1.20711E+04 -1.91139E+04 -5.30413E+03  5.48292E+03 -7.01188E+03  2.25557E+04  1.21015E+04
  8.50723E+03  3.47985E+04 -3.21602E+04  3.48483E+04 -6.30068E+04  2.58060E+03 -5.68841E+04 -4.23930E+04
 -1.25894E+04 -6.28702E+04  3.96191E+04 -4.43343E+04  5.79982E+04 -2.39235E+03  3.34406E+04  3.14806E+04
 -6.05425E+03  3.50621E+04 -2.98614E+04  1.57139E+04 -2.96016E+04 -4.73565E+03 -1.62675E+04 -1.08306E+04
 -8.14865E+03 -1.31998E+04 -6.21307E+02 -1.81537E+04  7.59936E+03 -2.32395E+04  1.57846E+04 -1.30883E+04
  1.17307E+04  5.13708E+03 -7.71869E+03  1.31394E+04 -2.14342E+04 -3.71334E+03 -8.64183E+03 -3.35641E+04
  2.31704E+04 -4.24164E+04  4.79190E+04 -1.95165E+04  4.48370E+04  1.92737E+04  1.56992E+04  4.42038E+04
 -1.48627E+04  3.31758E+04 -2.52110E+04  2.17823E+03 -9.23050E+03 -2.72858E+04  2.07867E+04 -3.36006E+04
  4.17976E+04 -8.94522E+03  3.46672E+04  2.31413E+04  1.78258E+04  4.56305E+04 -7.77201E+03  5.01042E+04
 -3.13270E+04  3.29748E+04 -4.17556E+04  8.81517E+03 -4.15026E+04 -1.68263E+04 -2.38769E+04 -3.72218E+04
  7.68287E+03 -3.69531E+04  3.15849E+04 -1.44686E+04  2.85984E+04  1.05254E+04  3.76849E+03  1.93523E+04
 -1.38804E+04  8.21886E+03 -1.02774E+04 -7.60020E+03  6.29633E+03 -1.04667E+04  1.76933E+04  6.16889E+03
  1.31163E+04  2.22682E+04 -6.35758E+03  2.49134E+04 -2.18467E+04  1.10357E+04 -2.73822E+04 -4.62567E+03
 -2.00554E+04 -1.73932E+04 -8.36781E+03 -2.01579E+04  4.26703E+03 -1.85191E+04  1.50757E+04 -1.78815E+04
  2.53675E+04 -1.25752E+04  3.19966E+04  2.37741E+03  2.41804E+04  1.93057E+04  4.06256E+03  3.63302E+04
 -1.70502E+04  3.05094E+04 -2.75448E+04  1.03140E+04 -2.08574E+04 -1.04848E+04 -4.32490E+03 -1.37952E+04
  1.48475E+03 -3.31927E+03 -5.03361E+03  6.67835E+03 -1.62565E+04  4.89416E+03 -1.65337E+04 -6.36844E+03
 -9.83788E+03 -1.88523E+04  5.38431E+03 -2.28231E+04  1.44977E+04 -1.63673E+04  1.82040E+04 -1.81889E+03
  1.08943E+04  1.27924E+04 -1.14614E+03  1.87202E+04 -1.30871E+04  1.01615E+04 -1.82654E+04 -4.25331E+03
 -1.43420E+04 -1.64548E+04 -1.63365E+03 -2.21166E+04  1.10044E+04 -1.83531E+04  1.91071E+04 -9.31898E+03
  1.71411E+04  1.77741E+02  1.21171E+04  4.26866E+03  6.96034E+03  7.34492E+02  9.13906E+03 -1.87438E+03
  1.75606E+04  2.98300E+03  1.91965E+04  1.45330E+04  1.19022E+04  3.00067E+04 -2.85254E+03  3.35032E+04
 -1.96787E+04  2.66645E+04 -3.14442E+04  1.29449E+04 -3.23934E+04 -1.79294E+03 -2.72458E+04 -1.85880E+04
 -1.15413E+04 -2.69664E+04  8.54006E+03 -2.44341E+04  2.10635E+04 -1.19636E+04  1.96234E+04  6.00805E+03
  7.28473E+03  1.35689E+04 -8.16523E+03  1.29666E+04 -1.58276E+04  2.24488E+03 -1.21903E+04 -9.94041E+03
 -9.31051E+01 -1.54681E+04  7.62218E+03 -1.13379E+04  1.00458E+04 -1.36654E+03  2.13037E+03  6.33544E+03
 -6.39554E+03  2.21978E+03 -5.74722E+03 -5.95875E+03 -3.53896E+02 -1.36412E+04  9.29392E+03 -1.39127E+04
  1.63812E+04 -6.85110E+03  1.74780E+04  3.53984E+03  1.52814E+04  1.30651E+04  6.96368E+03  1.88720E+04
 -3.40239E+03  2.17148E+04 -1.33640E+04  1.32156E+04 -1.51968E+04  3.28466E+03 -1.18018E+04 -3.48371E+03
 -5.00979E+03 -4.43874E+03 -1.38508E+03  1.16856E+03 -2.44151E+03  2.53760E+03 -4.55194E+03  4.08879E+03
 -9.94923E+03 -6.80070E+02 -1.08325E+04 -9.10314E+03 -4.14904E+03 -1.45599E+04  4.33507E+03 -1.19033E+04
  8.97480E+03 -4.35231E+03  7.34851E+03  3.30008E+03 -3.11698E+02  4.31904E+03 -5.22694E+03 -3.19578E+02
 -4.68628E+03 -6.87848E+03 -1.61107E+03 -1.04289E+04  6.01183E+03 -1.12987E+04  1.35230E+04 -5.70308E+03
  1.60330E+04  1.90316E+03  1.15041E+04  8.71969E+03  2.46626E+03  1.23373E+04 -6.98443E+03  1.11115E+04
 -8.99006E+03  3.77066E+03 -4.58140E+03 -2.09290E+03  1.70544E+03 -3.28803E+03  5.95202E+03 -1.42164E+03
  5.14017E+03  4.10262E+03  7.44975E+02  8.16136E+03 -6.19991E+03  8.12850E+03 -1.05154E+04  1.69449E+03
 -6.80732E+03 -4.67741E+03  1.99795E+02 -9.38727E+03  5.51545E+03 -4.59181E+03  5.56052E+03  2.03253E+03
  9.78375E+02  5.51761E+03 -6.17826E+03  7.10688E+03 -7.58310E+03  3.28063E+03 -7.32654E+03 -2.50089E+03
 -4.21915E+03 -9.39849E+03  1.95315E+03 -1.07334E+04  9.38111E+03 -6.76227E+03  1.00197E+04  1.75424E+03
  5.95402E+03  7.95277E+03 -8.31609E+02  1.00278E+04 -7.56592E+03  5.72755E+03 -7.93760E+03 -6.74808E+02
 -7.62199E+03 -6.62104E+03 -9.99383E+02 -7.54587E+03  3.83922E+03 -6.62791E+03  4.61981E+03 -3.12801E+03
  3.75199E+03  1.58742E+03  1.62887E+01  1.58318E+03  7.75542E+01 -1.28193E+03  5.96222E+02 -3.57556E+03
  7.00877E+03 -2.27059E+03  9.32307E+03  6.20648E+02  9.15115E+03  5.95634E+03  7.78741E+03  1.18019E+04
 -2.76667E+03  1.33821E+04 -1.19216E+04  1.03908E+04 -1.51362E+04  2.39926E+03 -1.18096E+04 -4.76191E+03
 -6.42320E+03 -1.00984E+04 -4.08161E+02 -8.64304E+03  2.84142E+03 -4.65838E+03  2.73166E+03 -2.69237E+03
  2.55121E+03 -2.36385E+03  2.59738E+03 -2.36743E+03  3.77508E+03 -2.24069E+03  5.10043E+03 -2.22331E+02
  6.37865E+03  1.81167E+03  3.35847E+03  5.79836E+03 -1.86841E+03  5.23140E+03 -6.57651E+03  4.87776E+03
 -8.33031E+03 -1.96872E+03 -4.39737E+03 -6.16752E+03 -3.56089E+02 -8.93296E+03  5.12082E+03 -9.18083E+03
  8.86387E+03 -5.17126E+03  1.14555E+04  8.89920E+02  7.31195E+03  7.90600E+03  1.87365E+03  9.47502E+03
 -3.75808E+03  8.43613E+03 -5.45009E+03  2.35443E+03 -3.94633E+03 -1.47581E+03 -1.35143E+03 -1.16425E+03
 -6.97776E+02 -1.89053E+02 -1.16060E+03  2.34301E+03 -2.86586E+03  1.72528E+03 -6.05961E+03 -7.41288E+02
 -3.74230E+03 -6.12197E+03  5.26123E+02 -8.10628E+03  3.99864E+03 -7.87644E+03  7.21460E+03 -1.99981E+03
  8.12313E+03  3.71600E+03  2.84392E+03  6.70786E+03 -1.28644E+03  8.10651E+03 -5.33398E+03  5.54620E+03
 -6.45171E+03  7.35098E+02 -6.05277E+03 -4.44610E+03 -6.74696E+02 -6.13803E+03  3.03733E+03 -4.93009E+03
  4.90094E+03 -2.20404E+03  3.63987E+03  1.05410E+03  7.71000E+02  2.76139E+03  1.14532E+03  1.11715E+03
  1.95028E+03  7.23142E+02  2.18667E+03  1.36681E+03  1.70590E+03  3.05313E+03  1.98910E+03  3.54497E+03
 -2.03656E+03  5.32323E+03 -4.94214E+03  6.56507E+03 -7.13749E+03  1.93977E+03 -7.85436E+03 -2.52575E+03
 -3.27236E+03 -7.72287E+03  1.51272E+03 -8.45440E+03  3.75064E+03 -5.20077E+03  6.63070E+03 -1.40076E+03
  4.84691E+03  3.16326E+03  1.08089E+03  4.52309E+03 -1.73811E+03  2.78666E+03 -2.55934E+03 -4.03182E+02
 -1.14701E+03 -2.51771E+03  1.51833E+03 -2.24127E+03  2.65880E+03 -1.69977E+03  2.79954E+03  3.08813E+02
  1.41038E+03  2.20560E+03  1.03447E+03  8.68024E+02 -5.17524E+02  9.50401E+02  1.51486E+03 -3.82886E+02
  1.11765E+03 -2.68733E+02  3.37183E+03  1.14799E+03  1.35458E+03  4.37989E+03 -6.83404E+02  5.92341E+03
 -3.74555E+03  2.85425E+03 -4.29940E+03  8.31042E+02 -4.82995E+03 -2.18985E+03 -1.16436E+03 -2.23035E+03
  9.10707E+02 -2.91856E+03  1.69885E+03 -1.74429E+03  1.23692E+03  1.63759E+03 -9.88134E+02  2.88879E+03
 -2.76848E+03  1.28807E+03 -3.13241E+03 -1.97848E+03 -2.00837E+03 -4.33475E+03  3.19521E+02 -3.45463E+03
  2.06609E+03 -1.76618E+03  2.22492E+03 -5.77094E+02  3.04852E+03  1.35294E+03  6.38207E+01  2.13999E+03
 -5.86203E+02  9.32297E+02 -1.43156E+03 -8.44748E+02  7.13998E+02 -2.26150E+03  3.47377E+03 -1.75769E+03
  4.43653E+03  7.97740E+01  4.89232E+03  1.92953E+03  1.47686E+03  3.99023E+03 -1.04348E+03  4.04225E+03
 -3.55749E+03  1.39266E+03 -3.63088E+03 -2.89319E+01 -2.15125E+03 -2.97088E+03  1.91170E+02 -2.17461E+03
  2.58500E+03 -1.16083E+03  2.06654E+03  1.36959E+03  5.47068E+02  2.21392E+03 -2.78082E+02  2.08183E+03
 -1.17193E+03  1.52812E+03 -1.11241E+03  5.27258E+02 -4.52815E+02  4.67837E+02 -7.34575E+02  6.45242E+02
 -1.80039E+03  2.41120E+03 -3.77802E+03  1.26734E+03 -4.76831E+03 -3.73813E+02 -4.95253E+03 -2.20962E+03
 -2.55624E+03 -5.52508E+03  7.07239E+02 -5.98805E+03  2.90313E+03 -5.36217E+03  5.93335E+03 -2.47349E+03
  5.40454E+03  1.38148E+03  3.22803E+03  3.28686E+03  4.81514E+02  3.89624E+03 -1.62653E+03  3.52900E+03
 -2.57554E+03  8.12657E+02 -1.20559E+03 -5.58769E+00 -2.06124E+02  4.49111E+02 -8.89152E+02 -1.10519E+02
 -8.83949E+02  4.12637E+02 -8.76480E+02 -4.81911E+01  3.37493E+02 -1.11555E+03 -3.19486E+02 -1.35928E+03
  2.23873E+03 -1.48054E+03  2.82188E+03  1.59906E+02  2.63419E+03  2.02232E+03  5.19505E+02  4.19393E+03
 -2.45272E+03  5.15328E+03 -4.17026E+03  2.69367E+03 -4.52402E+03 -1.95846E+02 -3.58964E+03 -2.55888E+03
 -2.08009E+03 -3.78839E+03  1.30139E+03 -3.84836E+03  2.39610E+03 -2.26662E+03  2.56750E+03 -7.21436E+01
  1.74300E+03  7.82443E+02  4.99599E+02  9.49229E+02 -9.67224E+02 -2.56329E+02  3.56799E+02 -1.21341E+03
  6.51524E+02 -4.48977E+02  1.78573E+03  3.32589E+02  4.42435E+02  1.28899E+03  1.09807E+02  1.56468E+03
 -1.45164E+03  1.64062E+03 -2.26145E+03  5.73838E+02 -2.12479E+03 -1.47318E+03 -3.20486E+02 -3.30070E+03
  2.63197E+03 -2.32696E+03  1.88643E+03  1.88652E+02  3.02885E+03  1.86185E+02  1.88682E+03  2.58467E+03
  3.02201E+02  2.53182E+03 -3.43902E+02  1.93151E+03 -1.63706E+03  1.41263E+03 -1.42786E+03 -2.20719E+01
 -1.30846E+03 -6.26454E+02 -1.36292E+03  6.69588E+02 -2.26099E+03  6.44078E+02 -1.78496E+03 -7.78591E+02
 -2.48446E+03 -1.36233E+03 -6.26684E+02 -2.79415E+03  1.77577E+03 -2.82108E+03  2.40973E+03 -5.42040E+02
  1.93219E+03 -1.02319E+02  1.06541E+03  1.54047E+03 -6.95944E+02  2.16937E+03 -1.23655E+03  1.53759E+03
