 $NMID ID='MM_0lb_SNR400_8hz_g50_78.RAW', FMTDAT='(8E13.5)'
 TRAMP=1., VOLUME=1. $END
  3.10180E+05  4.44683E+02  3.38047E+05  2.51476E+05  8.45680E+04  3.38171E+05 -1.32858E+05  2.52092E+05
 -1.90622E+05  8.39149E+04 -1.12337E+05 -3.27035E+04  3.91124E+02 -5.15383E+04  5.31919E+04 -8.53665E+02
  3.56479E+04  5.30946E+04 -1.68249E+04  7.60717E+04 -6.09751E+04  6.39420E+04 -8.47367E+04  3.32660E+04
 -8.32771E+04 -1.15212E+04 -5.88979E+04 -5.28202E+04 -1.49129E+04 -7.10421E+04  2.80195E+04 -4.71831E+04
  4.14447E+04  3.13698E+03  1.65533E+04  4.85223E+04 -3.54631E+04  4.77988E+04 -6.82249E+04  7.58292E+01
 -5.52445E+04 -5.76656E+04 -7.63279E+03 -8.00777E+04  3.53361E+04 -5.74886E+04  5.07696E+04 -1.86594E+04
  4.58286E+04  1.15169E+04  3.24313E+04  2.77076E+04  1.69680E+04  3.11575E+04 -7.12384E+03  2.69131E+04
 -2.26812E+04  1.27329E+04 -1.85264E+04 -6.10555E+03  7.24906E+03 -7.37452E+03  2.31453E+04  1.40603E+04
  7.02010E+03  3.76552E+04 -3.42677E+04  3.69439E+04 -6.60405E+04  2.05621E+03 -5.95875E+04 -4.48358E+04
 -1.33869E+04 -6.64065E+04  4.23298E+04 -4.77565E+04  6.14361E+04 -1.87725E+03  3.81574E+04  3.44346E+04
 -5.02562E+03  4.05104E+04 -3.18942E+04  1.93118E+04 -3.44892E+04 -2.79654E+03 -1.96392E+04 -1.14278E+04
 -9.31352E+03 -1.52482E+04  1.52706E+01 -2.02556E+04  8.49478E+03 -2.39412E+04  1.61577E+04 -1.29331E+04
  1.06042E+04  6.47353E+03 -1.10796E+04  1.35209E+04 -2.37667E+04 -6.62272E+03 -9.23088E+03 -3.84142E+04
  2.56909E+04 -4.78006E+04  5.30869E+04 -2.06679E+04  4.97211E+04  2.10952E+04  1.76186E+04  4.77261E+04
 -1.73917E+04  3.71398E+04 -2.76565E+04  2.80044E+03 -1.29900E+04 -3.02245E+04  2.16301E+04 -3.78819E+04
  4.49121E+04 -1.10168E+04  4.14896E+04  2.50196E+04  2.18210E+04  5.24366E+04 -8.14735E+03  5.70109E+04
 -3.65150E+04  3.99458E+04 -4.76962E+04  1.09186E+04 -4.88361E+04 -1.90344E+04 -2.60975E+04 -4.34796E+04
  7.53686E+03 -4.35067E+04  3.51200E+04 -1.84549E+04  3.29084E+04  1.12955E+04  5.35717E+03  2.06721E+04
 -1.42592E+04  8.79405E+03 -1.15801E+04 -6.87268E+03  5.82001E+03 -1.16013E+04  1.88008E+04  5.14410E+03
  1.49134E+04  2.15414E+04 -5.25447E+03  2.81389E+04 -2.27938E+04  1.49398E+04 -3.19806E+04 -1.93659E+03
 -2.62212E+04 -1.96080E+04 -1.26064E+04 -2.59277E+04  4.37196E+03 -2.68947E+04  2.08751E+04 -2.35871E+04
  3.24939E+04 -1.41138E+04  3.92192E+04  5.51171E+03  2.77800E+04  2.53612E+04  4.56490E+03  4.18861E+04
 -2.01089E+04  3.45650E+04 -3.08870E+04  1.14206E+04 -2.33584E+04 -9.85838E+03 -4.96080E+03 -1.28409E+04
 -1.71425E+02 -9.03803E+02 -8.24598E+03  8.97747E+03 -2.08428E+04  5.69554E+03 -2.17315E+04 -1.01257E+04
 -1.16633E+04 -2.43682E+04  6.16096E+03 -2.96951E+04  1.94551E+04 -1.97528E+04  2.37882E+04 -2.32180E+03
  1.54943E+04  1.65122E+04 -1.47436E+03  2.41906E+04 -1.77225E+04  1.34441E+04 -2.46333E+04 -4.92999E+03
 -1.79084E+04 -2.21252E+04 -2.31522E+03 -2.99765E+04  1.31458E+04 -2.47106E+04  2.46371E+04 -1.34539E+04
  2.38051E+04  4.37530E+02  1.70281E+04  5.37844E+03  9.66848E+03  7.08536E+02  1.19792E+04 -2.28277E+03
  2.36436E+04  2.03838E+03  2.70463E+04  1.83864E+04  1.83698E+04  3.93982E+04 -2.70392E+03  4.60530E+04
 -2.72325E+04  3.89412E+04 -4.35944E+04  2.05813E+04 -4.61004E+04 -3.46089E+03 -3.76368E+04 -2.78721E+04
 -1.53210E+04 -3.88707E+04  1.38030E+04 -3.45261E+04  2.94667E+04 -1.62307E+04  2.45786E+04  9.00896E+03
  7.48864E+03  1.97602E+04 -1.12441E+04  1.62536E+04 -2.12404E+04  2.70825E+03 -1.61043E+04 -1.28713E+04
 -6.11241E+02 -2.01872E+04  1.10744E+04 -1.58220E+04  1.32214E+04 -5.90413E+02  4.13026E+03  8.80916E+03
 -7.90632E+03  5.25678E+03 -1.04435E+04 -7.19820E+03 -2.08695E+03 -1.93586E+04  1.25787E+04 -2.13602E+04
  2.31044E+04 -1.18631E+04  2.75268E+04  3.40067E+03  2.53120E+04  1.91333E+04  1.13979E+04  3.05994E+04
 -7.29244E+03  3.37028E+04 -2.20915E+04  2.03877E+04 -2.37637E+04  3.50424E+03 -1.68327E+04 -6.63201E+03
 -6.97962E+03 -7.53550E+03 -9.72327E+02  1.40092E+02 -3.64034E+03  4.09231E+03 -7.83111E+03  6.32263E+03
 -1.52909E+04 -9.24284E+02 -1.51893E+04 -1.17922E+04 -5.89877E+03 -2.03449E+04  5.71223E+03 -1.59068E+04
  1.35121E+04 -6.53230E+03  9.50879E+03  4.43263E+03 -4.21973E+02  6.71150E+03 -7.88860E+03 -6.31825E+02
 -8.04558E+03 -1.04722E+04 -8.46689E+02 -1.61159E+04  1.05135E+04 -1.72694E+04  2.20722E+04 -9.00365E+03
  2.51445E+04  2.23556E+03  1.83094E+04  1.60843E+04  3.57105E+03  2.05615E+04 -1.01973E+04  1.63942E+04
 -1.41883E+04  4.91146E+03 -7.18835E+03 -3.84208E+03  2.05816E+03 -4.54356E+03  7.33939E+03 -8.27390E+02
  8.90187E+03  8.37266E+03  6.39752E+02  1.33567E+04 -9.71122E+03  1.19370E+04 -1.59892E+04  3.36712E+03
 -1.16421E+04 -9.39934E+03  8.26056E+02 -1.42108E+04  8.98197E+03 -6.73769E+03  1.03000E+04  3.60687E+03
  2.10178E+03  1.14025E+04 -8.22256E+03  1.29796E+04 -1.50697E+04  5.22890E+03 -1.58252E+04 -5.97073E+03
 -9.00442E+03 -1.74440E+04  4.21095E+03 -2.00030E+04  1.60504E+04 -1.22822E+04  1.88791E+04  3.36499E+03
  1.01935E+04  1.45474E+04 -2.32818E+03  1.66027E+04 -1.20374E+04  8.71636E+03 -1.47477E+04 -1.57322E+03
 -1.13019E+04 -1.18329E+04 -1.39469E+03 -1.35015E+04  7.28808E+03 -1.10959E+04  9.33807E+03 -3.82407E+03
  5.26332E+03  3.27058E+03 -1.78917E+03  1.63009E+03 -9.67269E+02 -3.13133E+03  3.19128E+03 -9.48529E+03
  1.31886E+04 -4.94195E+03  1.75690E+04  2.06004E+03  1.64192E+04  1.24813E+04  1.16351E+04  2.32352E+04
 -5.79506E+03  2.70480E+04 -2.16962E+04  1.94767E+04 -2.86063E+04  4.16333E+03 -2.26811E+04 -9.99037E+03
 -1.17281E+04 -1.89457E+04  1.73454E+02 -1.62868E+04  5.67198E+03 -9.41242E+03  6.55227E+03 -5.02211E+03
  4.10134E+03 -3.35603E+03  4.65794E+03 -4.33418E+03  6.15183E+03 -3.78165E+03  8.57018E+03 -2.19464E+03
  1.09278E+04  2.03290E+03  6.05230E+03  1.04741E+04 -2.73573E+03  1.24309E+04 -1.29328E+04  8.93210E+03
 -1.62026E+04 -1.74561E+03 -1.08095E+04 -1.10530E+04 -1.67608E+03 -1.76759E+04  9.57953E+03 -1.68790E+04
  1.81466E+04 -1.02337E+04  2.20410E+04  3.27179E+03  1.53478E+04  1.56338E+04  2.67039E+03  1.98639E+04
 -7.93102E+03  1.63170E+04 -1.14701E+04  5.63581E+03 -7.99247E+03 -1.84272E+03 -3.64288E+03 -1.70573E+03
 -1.71662E+03 -2.78734E+02 -2.78114E+03  3.42414E+03 -6.61939E+03  3.32940E+03 -1.18983E+04 -1.71849E+03
 -7.90031E+03 -1.13664E+04  2.37803E+02 -1.60419E+04  9.86838E+03 -1.47033E+04  1.62184E+04 -4.43398E+03
  1.64945E+04  8.01334E+03  7.99372E+03  1.44805E+04 -2.38333E+03  1.69367E+04 -1.27642E+04  1.05837E+04
 -1.56344E+04  4.31700E+02 -1.16587E+04 -1.02984E+04 -1.00067E+03 -1.52347E+04  7.69168E+03 -1.04972E+04
  1.08170E+04 -2.81095E+03  7.18706E+03  3.15385E+03  2.39287E+03  4.83069E+03  1.82666E+03  2.68842E+03
  3.77787E+03  1.01045E+03  4.55167E+03  2.08431E+03  4.46997E+03  5.08061E+03  4.36569E+03  8.77926E+03
 -3.58040E+03  1.30262E+04 -1.21092E+04  1.26227E+04 -1.81562E+04  3.82743E+03 -1.74118E+04 -6.90934E+03
 -8.13077E+03 -1.73877E+04  2.12114E+03 -1.87840E+04  1.06436E+04 -1.25374E+04  1.39681E+04 -3.75835E+03
  1.11374E+04  6.66630E+03  1.57173E+03  9.81631E+03 -4.87949E+03  6.04975E+03 -6.56761E+03 -5.91321E+02
 -2.94891E+03 -7.80851E+03  4.45160E+03 -7.49397E+03  6.72719E+03 -4.22704E+03  7.61636E+03  4.68584E+02
  3.36737E+03  3.73681E+03  1.76382E+03  3.72609E+03 -1.15792E+03  2.74141E+03  1.25967E+03 -1.52113E+02
  3.00558E+03 -6.40784E+02  6.60436E+03  2.24531E+03  5.14963E+03  8.66577E+03 -1.91603E+03  1.16340E+04
 -8.29362E+03  7.90537E+03 -1.07252E+04  1.90716E+03 -9.37550E+03 -3.67342E+03 -3.27556E+03 -6.98248E+03
  1.12022E+03 -6.88786E+03  4.65534E+03 -3.85755E+03  4.13586E+03  3.43043E+03 -1.25677E+03  6.03018E+03
 -7.71400E+03  3.64367E+03 -8.77223E+03 -3.67536E+03 -4.45275E+03 -9.62733E+03  1.69590E+03 -1.01203E+04
  6.49840E+03 -6.56056E+03  7.75929E+03 -1.33988E+03  6.11085E+03  3.43051E+03  5.41108E+02  5.14161E+03
 -3.83350E+03  1.44480E+03 -3.62774E+03 -4.18608E+03  1.39286E+03 -8.37271E+03  9.19733E+03 -6.59737E+03
  1.11520E+04  7.41565E+01  1.08334E+04  7.00293E+03  3.62752E+03  1.13818E+04 -3.69029E+03  1.08799E+04
 -9.59555E+03  5.83018E+03 -1.05991E+04 -1.74112E+03 -5.88455E+03 -7.64819E+03  1.43831E+03 -7.27262E+03
  7.88541E+03 -3.36874E+03  6.21850E+03  2.95252E+03  2.61114E+03  5.45175E+03 -1.37072E+02  5.73120E+03
 -2.68342E+03  3.68999E+03 -1.79645E+03  6.99634E+02 -1.07708E+03  1.87825E+03 -1.89554E+03  2.34561E+03
 -3.69259E+03  4.12959E+03 -8.20291E+03  4.35427E+03 -1.17288E+04 -1.90931E+01 -1.32480E+04 -7.83216E+03
 -6.53144E+03 -1.52825E+04  3.36071E+03 -1.77386E+04  1.13085E+04 -1.37628E+04  1.68815E+04 -4.70222E+03
  1.49173E+04  3.31974E+03  9.81931E+03  1.07716E+04  1.03470E+03  1.24983E+04 -4.41099E+03  9.02428E+03
 -6.87292E+03  4.30443E+03 -4.06030E+03 -6.60592E+02 -1.80311E+03 -1.68369E+03 -1.11894E+03  4.41424E+02
 -1.72912E+03  2.52856E+02 -2.26103E+03 -3.77645E+02 -8.10880E+02 -2.71567E+03  9.72804E+02 -4.08973E+03
  5.45975E+03 -4.31865E+03  6.89386E+03  6.90519E+01  8.96075E+03  7.16131E+03  2.64731E+03  1.28186E+04
 -5.61252E+03  1.43867E+04 -1.39244E+04  9.00157E+03 -1.54533E+04 -1.50355E+03 -1.09851E+04 -9.48159E+03
 -5.11721E+03 -1.19712E+04  4.12031E+03 -1.15564E+04  7.70467E+03 -7.16390E+03  8.40898E+03  2.24546E+02
  3.88867E+03  5.33350E+03 -4.39163E+02  3.79325E+03 -3.29961E+03  2.37950E+02  4.36294E+02 -2.10141E+03
  3.69772E+03 -2.25546E+03  5.67106E+03  1.34303E+03  3.32363E+03  5.96996E+03  5.32165E+02  6.42240E+03
 -5.30090E+03  5.49747E+03 -9.07047E+03  2.98900E+02 -7.93272E+03 -5.87758E+03 -1.03174E+03 -1.05022E+04
  6.68159E+03 -8.64244E+03  9.30758E+03 -2.41323E+03  1.07660E+04  2.34731E+03  5.72771E+03  8.68375E+03
  1.22316E+03  8.32708E+03 -4.08667E+03  7.27616E+03 -5.76364E+03  5.08768E+03 -3.48271E+03  1.17184E+03
 -2.10808E+03 -9.53083E+01 -3.10098E+03  1.32720E+03 -4.61438E+03  2.27270E+03 -6.45247E+03 -9.23570E+02
 -6.33315E+03 -4.89321E+03 -1.17963E+03 -8.81848E+03  3.20452E+03 -9.18394E+03  8.09346E+03 -3.50718E+03
  8.35445E+03  9.36207E+02  5.05307E+03  5.44801E+03 -3.71099E+02  9.10759E+03 -7.02241E+03  6.29770E+03
