 $NMID ID='MM_0lb_SNR400_15hz_g40_86.RAW', FMTDAT='(8E13.5)'
 TRAMP=1., VOLUME=1. $END
  3.10032E+05  3.47553E+02  3.37829E+05  2.50207E+05  8.48045E+04  3.37175E+05 -1.32639E+05  2.50847E+05
 -1.90240E+05  8.28985E+04 -1.11236E+05 -3.23163E+04  9.69323E+02 -5.04683E+04  5.37823E+04  5.78689E+02
  3.53748E+04  5.26035E+04 -1.73447E+04  7.50166E+04 -6.03786E+04  6.30873E+04 -8.35874E+04  3.19469E+04
 -8.03504E+04 -1.13353E+04 -5.69327E+04 -5.04382E+04 -1.42907E+04 -6.86108E+04  2.70286E+04 -4.49157E+04
  3.95699E+04  3.67246E+03  1.57444E+04  4.80079E+04 -3.42239E+04  4.62783E+04 -6.65733E+04  4.96171E+01
 -5.26130E+04 -5.63639E+04 -6.68649E+03 -7.58852E+04  3.31614E+04 -5.43448E+04  4.75347E+04 -1.65660E+04
  4.25401E+04  1.14660E+04  3.09558E+04  2.50703E+04  1.58486E+04  2.93482E+04 -4.45748E+03  2.66756E+04
 -2.14775E+04  1.29177E+04 -1.87877E+04 -4.39213E+03  4.52797E+03 -7.68334E+03  2.15965E+04  1.18507E+04
  6.63180E+03  3.46123E+04 -3.03615E+04  3.50140E+04 -6.25743E+04  1.95910E+03 -5.64880E+04 -4.15241E+04
 -1.23704E+04 -6.17030E+04  3.88033E+04 -4.37691E+04  5.71900E+04 -2.09885E+03  3.29080E+04  3.13304E+04
 -6.07672E+03  3.49320E+04 -2.94836E+04  1.44802E+04 -2.91033E+04 -4.42602E+03 -1.57564E+04 -1.09430E+04
 -7.95068E+03 -1.27320E+04 -9.67682E+02 -1.76237E+04  7.21208E+03 -2.32050E+04  1.54147E+04 -1.30105E+04
  1.15501E+04  5.27380E+03 -7.06663E+03  1.25264E+04 -2.04518E+04 -3.29022E+03 -8.18515E+03 -3.22008E+04
  2.21593E+04 -4.18392E+04  4.66036E+04 -1.90017E+04  4.38661E+04  1.84597E+04  1.44838E+04  4.23999E+04
 -1.57141E+04  3.21021E+04 -2.43309E+04  1.42878E+03 -9.26599E+03 -2.72170E+04  2.04805E+04 -3.32022E+04
  3.97010E+04 -8.03117E+03  3.40941E+04  2.36260E+04  1.62560E+04  4.53183E+04 -8.04859E+03  4.79280E+04
 -3.00829E+04  3.23337E+04 -4.01199E+04  8.75880E+03 -4.10272E+04 -1.64044E+04 -2.25990E+04 -3.60366E+04
  7.41671E+03 -3.61002E+04  3.05138E+04 -1.37897E+04  2.81177E+04  1.05446E+04  3.47069E+03  1.84265E+04
 -1.29025E+04  8.49714E+03 -1.00076E+04 -7.57715E+03  5.86309E+03 -1.04843E+04  1.78125E+04  6.06705E+03
  1.30831E+04  2.19644E+04 -6.09426E+03  2.43427E+04 -2.23192E+04  1.02403E+04 -2.69532E+04 -5.70567E+03
 -1.91492E+04 -1.63258E+04 -7.45795E+03 -1.91923E+04  3.97312E+03 -1.80575E+04  1.39729E+04 -1.61955E+04
  2.44013E+04 -1.20700E+04  3.04518E+04  2.23576E+03  2.30683E+04  1.80721E+04  4.67597E+03  3.44369E+04
 -1.72363E+04  2.96523E+04 -2.63658E+04  1.01698E+04 -2.08250E+04 -1.05293E+04 -3.83369E+03 -1.34564E+04
  2.38829E+03 -3.17399E+03 -3.30921E+03  5.30473E+03 -1.47813E+04  5.34628E+03 -1.50185E+04 -5.92567E+03
 -9.06020E+03 -1.79613E+04  4.61204E+03 -2.17200E+04  1.39960E+04 -1.55613E+04  1.67376E+04 -1.00557E+03
  1.01903E+04  1.17125E+04 -1.18485E+03  1.73046E+04 -1.13531E+04  9.83294E+03 -1.80231E+04 -4.01405E+03
 -1.32904E+04 -1.56252E+04 -1.47924E+03 -2.12101E+04  9.82396E+03 -1.76790E+04  1.81432E+04 -7.26351E+03
  1.64198E+04  1.68910E+02  1.17869E+04  4.30086E+03  6.32873E+03  8.40923E+02  8.71829E+03 -2.00121E+03
  1.52372E+04  2.60263E+03  1.74206E+04  1.37018E+04  1.12899E+04  2.79248E+04 -2.88440E+03  3.08762E+04
 -1.79510E+04  2.43872E+04 -2.80187E+04  1.27198E+04 -2.99891E+04 -1.69097E+03 -2.50781E+04 -1.77699E+04
 -1.08995E+04 -2.42426E+04  8.10919E+03 -2.32746E+04  1.90808E+04 -1.20141E+04  1.77324E+04  5.30813E+03
  7.46732E+03  1.33417E+04 -8.30074E+03  1.20234E+04 -1.47253E+04  2.47580E+03 -1.17027E+04 -9.24827E+03
 -3.03267E+02 -1.42924E+04  7.10848E+03 -1.06320E+04  9.07250E+03 -1.01503E+03  2.25667E+03  5.92653E+03
 -6.28396E+03  2.20989E+03 -4.82883E+03 -5.38831E+03 -2.81527E+02 -1.19054E+04  9.31540E+03 -1.20752E+04
  1.48027E+04 -5.52852E+03  1.48590E+04  3.26593E+03  1.39635E+04  1.15703E+04  6.71961E+03  1.79699E+04
 -2.35471E+03  1.90813E+04 -1.22053E+04  1.28348E+04 -1.33620E+04  3.13403E+03 -9.56850E+03 -3.55252E+03
 -5.43874E+03 -4.02537E+03 -4.15127E+02  1.35863E+03 -2.21839E+03  2.08211E+03 -4.74637E+03  4.11797E+03
 -9.69669E+03 -9.33085E+02 -1.01306E+04 -8.35285E+03 -3.26620E+03 -1.39440E+04  3.82675E+03 -1.01085E+04
  8.61765E+03 -4.74518E+03  6.56645E+03  3.10033E+03  7.30084E+02  3.92218E+03 -4.58300E+03  1.26826E+02
 -4.84913E+03 -6.38244E+03 -7.22291E+02 -9.48056E+03  5.23974E+03 -1.00535E+04  1.26087E+04 -4.49237E+03
  1.49544E+04  8.68214E+02  1.08893E+04  8.00298E+03  2.20421E+03  1.10651E+04 -6.41679E+03  1.01200E+04
 -8.09485E+03  3.05256E+03 -3.53385E+03 -1.90136E+03  1.61594E+03 -2.05884E+03  5.03774E+03 -1.04863E+03
  5.04549E+03  4.27489E+03  1.15268E+03  8.12697E+03 -5.22374E+03  7.91900E+03 -9.97826E+03  1.69974E+03
 -6.30671E+03 -4.88698E+03  8.48072E+02 -7.84180E+03  5.22153E+03 -3.69727E+03  4.53094E+03  1.43278E+03
  6.78186E+02  5.00492E+03 -5.27273E+03  5.42244E+03 -6.90094E+03  3.23826E+03 -6.39361E+03 -2.22045E+03
 -4.31759E+03 -8.01458E+03  2.01774E+03 -9.18584E+03  8.41377E+03 -6.49787E+03  9.07528E+03  1.72200E+03
  5.63034E+03  7.08502E+03 -1.16722E+02  8.81109E+03 -6.61684E+03  5.50843E+03 -6.94296E+03 -1.10694E+03
 -7.11457E+03 -6.41336E+03 -1.40966E+03 -6.84018E+03  3.23666E+03 -5.42580E+03  4.28842E+03 -2.47730E+03
  3.17817E+03  1.36586E+03  2.75540E+02  1.29171E+03 -2.29193E+02 -7.20385E+02  9.05244E+02 -3.37953E+03
  5.72366E+03 -1.89028E+03  8.11204E+03  1.00664E+03  8.14028E+03  4.22794E+03  6.89011E+03  1.01306E+04
 -1.99715E+03  1.15397E+04 -1.06024E+04  9.09098E+03 -1.41181E+04  1.49182E+03 -1.04035E+04 -4.11377E+03
 -5.34579E+03 -8.95223E+03 -7.72094E+01 -7.36596E+03  2.83783E+03 -3.24128E+03  2.93417E+03 -3.34832E+03
  1.54339E+03 -1.42896E+03  2.26769E+03 -2.31140E+03  4.32669E+03 -1.64934E+03  4.82983E+03  1.34722E+02
  5.96826E+03  9.83140E+02  2.15589E+03  5.06658E+03 -2.22674E+03  4.44415E+03 -6.17083E+03  4.28071E+03
 -7.20357E+03 -8.13219E+02 -4.07415E+03 -4.59550E+03  8.91747E+02 -7.67072E+03  4.20988E+03 -7.51350E+03
  7.48251E+03 -4.45512E+03  1.00570E+04  1.26450E+03  6.46947E+03  5.60931E+03  7.35956E+02  8.91314E+03
 -3.12695E+03  7.47853E+03 -5.01313E+03  2.61584E+03 -3.02955E+03 -1.69210E+03 -1.06414E+03 -9.44049E+02
 -1.19280E+03  7.98457E+02 -1.03140E+03  2.39007E+03 -3.72928E+03  4.24844E+02 -4.95520E+03 -5.66486E+02
 -2.56060E+03 -5.78193E+03  4.45317E+02 -7.10583E+03  4.39345E+03 -6.33609E+03  6.14311E+03 -2.30201E+03
  6.52768E+03  3.54613E+03  2.71164E+03  5.31903E+03 -1.26903E+03  6.56508E+03 -3.93057E+03  3.65182E+03
 -5.88138E+03  2.12848E+02 -4.96412E+03 -3.65815E+03 -9.65443E+02 -4.77161E+03  2.22077E+03 -3.55298E+03
  4.12508E+03 -1.64333E+03  3.26530E+03  8.74609E+02  7.80971E+02  2.66917E+03  3.15995E+02  7.61231E+02
  1.65242E+03  3.16185E+02  1.79407E+03  6.37441E+02  2.05570E+03  3.23682E+03  1.39901E+03  3.15536E+03
 -2.20278E+03  4.88539E+03 -4.29887E+03  5.82647E+03 -5.79181E+03  1.80106E+03 -6.02542E+03 -1.76927E+03
 -3.36451E+03 -6.10222E+03  7.87538E+02 -6.92967E+03  3.85796E+03 -4.63971E+03  4.58736E+03 -1.24268E+03
  3.92481E+03  2.48773E+03  7.18489E+02  3.69453E+03 -1.55529E+03  2.14240E+03 -2.45056E+03 -1.63714E+02
 -1.01259E+03 -2.04157E+03  1.92336E+03 -1.67609E+03  2.20939E+03 -2.07438E+03  2.62737E+03  4.61200E+02
  1.61721E+03  1.06055E+03  9.17204E+02  6.74088E+02 -6.12109E+02  8.89753E+02  1.70653E+03 -3.69367E+02
  5.16771E+02 -4.25512E+02  2.92283E+03  1.60414E+03  1.01281E+03  3.89029E+03 -1.89883E+02  4.48341E+03
 -2.93201E+03  2.30589E+03 -3.97147E+03  3.98643E+02 -3.61961E+03 -1.20144E+03 -7.34103E+02 -1.65915E+03
  4.65587E+01 -1.94548E+03  8.62826E+02 -1.18202E+03  1.30263E+03  1.63462E+03 -7.65371E+02  1.84688E+03
 -2.48317E+03  6.57072E+02 -2.33151E+03 -1.96380E+03 -1.26207E+03 -4.17439E+03  4.73521E+02 -3.30897E+03
  1.32738E+03 -1.78678E+03  2.01595E+03  4.53931E+02  1.90075E+03 -2.83990E+01 -2.46271E+02  2.13218E+03
 -2.47508E-01  5.27345E+02 -1.51856E+03 -7.31802E+02  6.13381E+02 -1.76444E+03  3.31860E+03 -1.94806E+03
  3.15462E+03  7.22250E+02  4.43264E+03  1.84119E+03  1.80559E+03  3.42360E+03 -1.05546E+03  2.99793E+03
 -3.17561E+03  4.92564E+02 -2.61238E+03 -3.79626E+02 -1.52095E+03 -2.36078E+03  6.65689E+02 -1.44678E+03
  2.88153E+03 -8.35430E+02  1.60083E+03  1.08778E+03  3.75211E+02  1.14475E+03  2.27479E+02  1.85842E+03
 -9.75166E+02  6.86517E+02 -8.44957E+02  5.07596E+02 -4.83336E-01  8.49687E+02 -1.16474E+03  7.44712E+02
 -1.00034E+03  1.65806E+03 -2.92857E+03  1.10331E+03 -3.20065E+03 -4.48967E+01 -3.53085E+03 -1.44225E+03
 -1.65292E+03 -4.60643E+03  9.54354E+02 -5.29801E+03  2.35612E+03 -4.59586E+03  4.85324E+03 -1.74200E+03
  4.46061E+03  1.42215E+02  2.53205E+03  2.85830E+03 -1.00263E+03  3.03896E+03 -1.36631E+03  2.60504E+03
 -2.12532E+03  1.23711E+03 -1.61795E+03 -7.54683E+02 -1.25391E+03  1.61290E+02 -5.44723E+02  2.08950E+02
 -1.18426E+03  5.30701E+01 -9.58834E+02  5.26665E+02 -1.24014E+02 -1.03109E+03  4.44407E+01 -1.39505E+03
  1.91268E+03 -1.50642E+03  1.70581E+03 -8.16473E+01  2.36837E+03  2.34181E+03 -4.00504E+02  2.64088E+03
 -1.95133E+03  3.57583E+03 -3.69223E+03  2.19545E+03 -4.16579E+03 -6.33563E+02 -2.80330E+03 -2.14306E+03
 -1.11474E+03 -3.57184E+03  9.10039E+02 -3.44638E+03  1.70505E+03 -1.75908E+03  1.85149E+03  1.70797E+02
  5.72111E+02  5.16669E+02  3.73450E+02  1.36756E+03 -4.66588E+02  1.56578E+02 -3.28351E+02 -1.19914E+03
  5.92917E+02 -1.89997E+02  7.04928E+02  7.28804E+02  4.42493E+02  8.77875E+02  6.62076E+02  1.80633E+03
 -1.57488E+03  1.49537E+03 -1.76499E+03  1.21722E+03 -1.76439E+03 -1.16602E+03 -5.31719E+02 -1.94372E+03
  1.70917E+03 -1.55775E+03  1.60461E+03 -2.41281E+02  2.03068E+03 -3.77496E+02  8.98544E+02  1.69144E+03
  9.78647E+02  1.81663E+03 -7.80789E+02  1.77291E+03 -1.12530E+03  9.71085E+02 -1.33977E+03  5.47937E+02
 -3.90514E+02  3.65887E+02 -7.00763E+02  4.56522E+02 -1.31613E+03 -2.02602E+02 -1.34524E+03  4.34678E+02
 -2.26044E+03 -8.57992E+02 -8.65999E+02 -2.45418E+03  1.42701E+03 -3.20595E+03  1.69884E+03 -6.97706E+02
  1.75851E+03  3.89955E+02  2.87363E+02  4.77032E+02 -1.89823E+02  1.61371E+03 -8.81279E+02  1.52387E+03
