 $NMID ID='MM_0lb_SNR400_13hz_g45_45.RAW', FMTDAT='(8E13.5)'
 TRAMP=1., VOLUME=1. $END
  3.10092E+05 -4.78707E+02  3.38083E+05  2.50417E+05  8.39716E+04  3.37863E+05 -1.32219E+05  2.51503E+05
 -1.90108E+05  8.29567E+04 -1.11633E+05 -3.22693E+04  1.22492E+03 -5.03173E+04  5.33777E+04  4.97027E+01
  3.50575E+04  5.33736E+04 -1.66656E+04  7.51434E+04 -6.06587E+04  6.37022E+04 -8.46043E+04  3.28444E+04
 -8.13150E+04 -1.11304E+04 -5.79673E+04 -5.15297E+04 -1.48177E+04 -7.00994E+04  2.81080E+04 -4.59370E+04
  4.04845E+04  4.37013E+03  1.59322E+04  4.80368E+04 -3.46984E+04  4.69486E+04 -6.65375E+04  2.19606E+02
 -5.37409E+04 -5.74161E+04 -6.50657E+03 -7.69617E+04  3.40128E+04 -5.53098E+04  4.85538E+04 -1.75928E+04
  4.33511E+04  1.17754E+04  3.25540E+04  2.53818E+04  1.60494E+04  2.97663E+04 -5.48229E+03  2.69776E+04
 -2.14099E+04  1.28932E+04 -1.83866E+04 -4.69177E+03  5.42142E+03 -7.71505E+03  2.22372E+04  1.23763E+04
  6.95778E+03  3.54423E+04 -3.26703E+04  3.55768E+04 -6.30649E+04  2.17810E+03 -5.74337E+04 -4.29651E+04
 -1.26559E+04 -6.34117E+04  4.02973E+04 -4.54369E+04  5.86819E+04 -2.47195E+03  3.45737E+04  3.22942E+04
 -5.70761E+03  3.68394E+04 -3.03352E+04  1.61569E+04 -3.05339E+04 -4.43824E+03 -1.72091E+04 -1.14293E+04
 -8.67341E+03 -1.32606E+04 -4.90140E+02 -1.83523E+04  7.99346E+03 -2.22386E+04  1.55417E+04 -1.34621E+04
  1.18075E+04  4.57843E+03 -8.49329E+03  1.34209E+04 -2.18199E+04 -4.37241E+03 -7.46807E+03 -3.41810E+04
  2.29325E+04 -4.41340E+04  4.80626E+04 -2.03965E+04  4.54877E+04  1.95991E+04  1.56798E+04  4.40850E+04
 -1.65090E+04  3.33947E+04 -2.51098E+04  1.79542E+03 -9.55030E+03 -2.84660E+04  2.13681E+04 -3.41460E+04
  4.17034E+04 -9.40771E+03  3.61293E+04  2.40290E+04  1.86073E+04  4.69731E+04 -8.17520E+03  5.04789E+04
 -3.22156E+04  3.44413E+04 -4.31273E+04  9.74506E+03 -4.35081E+04 -1.68396E+04 -2.37690E+04 -3.77280E+04
  7.72985E+03 -3.80734E+04  3.19051E+04 -1.50164E+04  2.93205E+04  1.14037E+04  3.80917E+03  1.88027E+04
 -1.36050E+04  8.59700E+03 -1.07919E+04 -7.35221E+03  5.38579E+03 -1.08052E+04  1.86120E+04  6.09451E+03
  1.39243E+04  2.26142E+04 -5.65717E+03  2.51624E+04 -2.24780E+04  1.18243E+04 -2.84633E+04 -4.30834E+03
 -2.08237E+04 -1.75294E+04 -8.84001E+03 -2.09376E+04  3.94270E+03 -1.99979E+04  1.58292E+04 -1.82419E+04
  2.62625E+04 -1.27443E+04  3.34066E+04  3.02390E+03  2.39814E+04  2.05582E+04  3.87609E+03  3.69440E+04
 -1.84193E+04  3.08694E+04 -2.83608E+04  1.01868E+04 -2.14183E+04 -1.01761E+04 -4.60373E+03 -1.32995E+04
  1.80638E+03 -2.90972E+03 -5.18162E+03  6.84918E+03 -1.64797E+04  5.24966E+03 -1.60058E+04 -7.27732E+03
 -9.43312E+03 -1.95463E+04  5.24730E+03 -2.34520E+04  1.53922E+04 -1.71041E+04  1.80265E+04 -1.71515E+03
  1.14303E+04  1.28358E+04 -8.24198E+02  1.97073E+04 -1.27801E+04  1.11426E+04 -1.96853E+04 -3.71831E+03
 -1.42310E+04 -1.72467E+04 -2.19434E+03 -2.36547E+04  1.08037E+04 -1.92058E+04  1.95087E+04 -9.55379E+03
  1.79540E+04  1.04100E+02  1.29281E+04  4.64647E+03  7.45698E+03  8.09689E+02  9.41120E+03 -1.62105E+03
  1.80364E+04  3.04021E+03  1.95247E+04  1.54346E+04  1.34661E+04  3.10576E+04 -3.06253E+03  3.53445E+04
 -2.01277E+04  2.90168E+04 -3.31035E+04  1.40326E+04 -3.47862E+04 -2.07597E+03 -2.87078E+04 -1.99390E+04
 -1.22171E+04 -2.86726E+04  9.77214E+03 -2.52512E+04  2.17186E+04 -1.26454E+04  1.92436E+04  5.85021E+03
  7.87058E+03  1.46293E+04 -9.80190E+03  1.27918E+04 -1.69117E+04  2.89415E+03 -1.26622E+04 -1.08134E+04
 -6.66657E+02 -1.61605E+04  8.09794E+03 -1.24823E+04  1.08048E+04 -1.73948E+03  2.84206E+03  7.38949E+03
 -7.58684E+03  2.68912E+03 -6.42477E+03 -6.09330E+03 -3.00024E+02 -1.38479E+04  1.03855E+04 -1.40296E+04
  1.72203E+04 -7.92000E+03  1.88226E+04  2.70500E+03  1.61851E+04  1.47909E+04  7.92088E+03  2.14979E+04
 -3.49903E+03  2.28816E+04 -1.42912E+04  1.42916E+04 -1.60309E+04  3.60091E+03 -1.11675E+04 -3.32828E+03
 -5.44021E+03 -5.46140E+03 -7.77364E+02  2.82526E+02 -1.73313E+03  2.24626E+03 -5.54262E+03  5.15324E+03
 -1.11363E+04 -6.78952E+02 -1.13175E+04 -9.44090E+03 -4.60373E+03 -1.60201E+04  5.39135E+03 -1.21663E+04
  9.96908E+03 -5.36639E+03  6.67302E+03  3.34623E+03  3.85858E+01  4.11219E+03 -5.62115E+03 -5.78352E+02
 -5.59484E+03 -7.72681E+03 -5.46075E+02 -1.14393E+04  6.99869E+03 -1.14413E+04  1.47206E+04 -6.00278E+03
  1.76714E+04  2.15200E+03  1.23159E+04  1.00148E+04  1.75609E+03  1.34922E+04 -7.25327E+03  1.12442E+04
 -9.80941E+03  3.83301E+03 -5.82401E+03 -1.65057E+03  1.78527E+03 -2.42545E+03  6.67842E+03 -6.58655E+02
  5.82273E+03  4.98191E+03  1.36079E+03  8.89906E+03 -6.26590E+03  9.62421E+03 -1.15400E+04  2.38058E+03
 -7.29785E+03 -5.75971E+03  3.49374E+02 -9.40123E+03  6.89310E+03 -4.89266E+03  6.22278E+03  2.14807E+03
  1.37161E+03  6.71210E+03 -5.90326E+03  7.72002E+03 -8.70581E+03  3.53526E+03 -8.75376E+03 -2.73130E+03
 -4.88591E+03 -1.01382E+04  2.60754E+03 -1.26126E+04  1.01040E+04 -7.09652E+03  1.10687E+04  2.28486E+03
  7.80895E+03  9.34648E+03 -7.60331E+02  1.17625E+04 -7.75560E+03  6.05436E+03 -8.48427E+03 -4.05413E+02
 -8.19491E+03 -7.82661E+03 -1.17518E+03 -7.72484E+03  4.08674E+03 -7.46713E+03  4.28324E+03 -2.59740E+03
  3.81208E+03  1.22418E+03 -2.72526E+02  2.26161E+03  1.49506E+02 -1.39738E+03  1.22786E+03 -4.42025E+03
  7.16351E+03 -2.67041E+03  1.02863E+04  6.16815E+02  1.00427E+04  6.34567E+03  7.25454E+03  1.35108E+04
 -3.75126E+03  1.57273E+04 -1.36113E+04  1.11638E+04 -1.77418E+04  1.96392E+03 -1.36652E+04 -5.30460E+03
 -7.23384E+03 -1.12665E+04 -4.09921E+02 -9.71333E+03  3.08882E+03 -5.33785E+03  3.11546E+03 -3.71036E+03
  2.20804E+03 -2.73071E+03  3.12347E+03 -3.41523E+03  5.27698E+03 -2.07250E+03  5.33123E+03  2.21213E+02
  7.44863E+03  1.31202E+03  3.05705E+03  6.37026E+03 -1.54296E+03  6.57759E+03 -7.68573E+03  5.37191E+03
 -9.46550E+03 -1.13002E+03 -5.47410E+03 -6.22670E+03 -4.06239E+02 -9.75947E+03  5.39195E+03 -9.46487E+03
  1.07275E+04 -6.04290E+03  1.19802E+04  2.10562E+03  7.77309E+03  8.91028E+03  1.47899E+03  1.06385E+04
 -4.31560E+03  9.53861E+03 -6.57756E+03  3.14226E+03 -4.20130E+03 -1.39845E+03 -1.50932E+03 -1.85741E+03
 -7.15596E+02 -2.29444E+02 -1.89549E+03  2.89973E+03 -4.71139E+03  1.89867E+03 -6.20372E+03 -1.19620E+03
 -3.66619E+03 -6.65554E+03  1.08275E+03 -8.98885E+03  6.06124E+03 -8.20369E+03  8.49648E+03 -3.19424E+03
  8.57840E+03  4.07284E+03  4.15605E+03  7.32328E+03 -1.58481E+03  9.24153E+03 -6.24375E+03  5.30466E+03
 -8.73112E+03  8.49515E+02 -6.34778E+03 -5.32402E+03 -5.75344E+02 -7.46148E+03  2.99141E+03 -5.15434E+03
  4.65034E+03 -2.44250E+03  4.16899E+03  1.48403E+03  1.20972E+03  3.19474E+03  1.49677E+03  9.42142E+02
  2.21264E+03  6.60233E+02  1.87969E+03  1.39843E+03  3.00820E+03  3.66174E+03  2.27698E+03  4.23545E+03
 -1.21541E+03  6.98395E+03 -6.02682E+03  7.49034E+03 -8.44762E+03  2.14205E+03 -8.79149E+03 -3.02845E+03
 -3.99270E+03 -8.24825E+03  7.64447E+02 -9.40562E+03  5.07891E+03 -5.98266E+03  6.39723E+03 -1.38479E+03
  5.74765E+03  3.57691E+03  9.56310E+02  4.63978E+03 -2.64930E+03  2.33854E+03 -3.06867E+03 -2.97600E+02
 -1.39022E+03 -3.79189E+03  1.96781E+03 -4.05940E+03  3.25439E+03 -1.99543E+03  3.05527E+03  4.91770E+02
  1.67548E+03  1.61931E+03  8.78934E+02  9.06895E+02 -2.75405E+02  1.31494E+03  1.41386E+03 -4.12344E+02
  1.14099E+03 -7.68882E+02  3.42359E+03  1.63332E+03  1.77036E+03  4.56756E+03 -9.48023E+02  5.52568E+03
 -3.36421E+03  4.62763E+03 -4.85902E+03  8.68108E+02 -4.81344E+03 -2.02323E+03 -1.39858E+03 -2.69946E+03
  2.73519E+02 -3.48411E+03  1.59095E+03 -1.07112E+03  2.06242E+03  1.87359E+03 -1.21594E+03  2.84927E+03
 -3.79877E+03  7.74864E+02 -3.42418E+03 -2.48475E+03 -1.67506E+03 -4.83448E+03  7.78078E+02 -3.97754E+03
  2.09705E+03 -2.57556E+03  2.96306E+03 -8.04749E+02  2.26389E+03  1.12444E+03  6.34775E+02  2.35086E+03
 -1.72019E+03  4.36131E+02 -1.68725E+03 -1.79341E+03  1.05481E+03 -3.32130E+03  3.74988E+03 -3.34536E+03
  4.42128E+03  4.02116E+02  5.67747E+03  3.42198E+03  1.83832E+03  4.76635E+03 -1.04313E+03  5.44800E+03
 -3.84310E+03  1.60515E+03 -4.54731E+03 -4.59702E+02 -1.83190E+03 -3.61951E+03  9.39520E+02 -2.69134E+03
  3.11296E+03 -8.89833E+02  2.81251E+03  1.38134E+03  9.43958E+02  3.14849E+03 -1.20760E+02  2.40335E+03
 -1.12932E+03  2.12120E+03 -8.07912E+02  1.03362E+03 -5.97352E+02  5.76953E+01 -1.13964E+03  7.88946E+02
 -1.12192E+03  1.91177E+03 -3.87666E+03  1.34770E+03 -4.93771E+03  6.01294E+02 -6.02153E+03 -3.08840E+03
 -2.87035E+03 -6.46593E+03  9.52358E+02 -7.73191E+03  3.72939E+03 -6.39806E+03  7.45941E+03 -2.82010E+03
  6.34508E+03  1.16797E+03  4.21424E+03  4.20721E+03  4.95320E+02  4.91323E+03 -1.62275E+03  3.91552E+03
 -2.49200E+03  1.44366E+03 -1.60887E+03 -4.84012E+02 -5.28585E+02  6.59640E+01 -8.14100E+02 -1.59366E+02
 -2.14654E+03  8.53695E+02 -9.75915E+02  4.29853E+01  3.91208E+02 -1.67538E+03 -7.07205E+02 -1.69114E+03
  2.77697E+03 -1.97149E+03  2.51508E+03 -1.74194E+00  2.80460E+03  3.06550E+03 -4.82658E+01  4.33618E+03
 -2.35895E+03  5.72134E+03 -4.67753E+03  3.43239E+03 -5.61556E+03 -6.35708E+02 -4.22679E+03 -3.88027E+03
 -1.87391E+03 -4.82292E+03  1.02122E+03 -3.92499E+03  3.07087E+03 -2.76072E+03  2.85744E+03 -3.75172E+01
  2.10129E+03  1.48373E+03  5.26024E+02  1.21886E+03 -1.08802E+03 -2.74376E+01 -4.40719E+02 -1.74350E+03
  2.04769E+03 -1.26375E+03  1.48321E+03  5.61252E+02  1.13166E+03  1.69843E+03 -1.35976E+02  2.11320E+03
 -1.97494E+03  1.97492E+03 -2.90971E+03  5.73481E+02 -2.56347E+03 -2.42906E+03 -9.14678E+01 -3.37991E+03
  2.29300E+03 -2.98751E+03  2.43891E+03 -1.93971E+02  3.34735E+03  1.03030E+03  1.84734E+03  2.93671E+03
  6.55817E+02  2.73057E+03 -9.31742E+02  2.53965E+03 -2.12279E+03  1.47660E+03 -1.34549E+03  3.80194E+02
 -1.19828E+03 -7.24336E+01 -1.31407E+03  9.95295E+02 -1.70938E+03  5.58386E+02 -2.27143E+03 -1.93448E+02
 -1.75574E+03 -8.31579E+02 -8.73584E+02 -2.97540E+03  1.73011E+03 -3.66098E+03  3.26320E+03 -1.04491E+03
  2.79275E+03  4.78464E+02  1.20729E+03  1.59695E+03 -5.66057E+02  3.33596E+03 -2.19998E+03  1.57378E+03
