 $NMID ID='MM_0lb_SNR400_14hz_g60_76.RAW', FMTDAT='(8E13.5)'
 TRAMP=1., VOLUME=1. $END
  3.10292E+05  2.88626E+02  3.38159E+05  2.51165E+05  8.51441E+04  3.38706E+05 -1.32891E+05  2.51641E+05
 -1.90390E+05  8.31284E+04 -1.12469E+05 -3.24376E+04  8.41235E+02 -5.15096E+04  5.39921E+04 -4.28975E+02
  3.51059E+04  5.32161E+04 -1.65935E+04  7.54735E+04 -6.09631E+04  6.33850E+04 -8.37662E+04  3.24656E+04
 -8.12744E+04 -1.15615E+04 -5.73205E+04 -5.11534E+04 -1.48285E+04 -7.05952E+04  2.81828E+04 -4.53930E+04
  4.09239E+04  3.93119E+03  1.61485E+04  4.81485E+04 -3.38418E+04  4.73894E+04 -6.67542E+04 -6.93067E+01
 -5.42233E+04 -5.74057E+04 -6.77078E+03 -7.79404E+04  3.41933E+04 -5.53293E+04  4.86093E+04 -1.71822E+04
  4.43717E+04  1.11906E+04  3.21642E+04  2.58933E+04  1.62640E+04  2.97569E+04 -5.24923E+03  2.76228E+04
 -2.17115E+04  1.21728E+04 -1.91328E+04 -5.12931E+03  6.24774E+03 -7.82160E+03  2.26945E+04  1.23011E+04
  7.30141E+03  3.67915E+04 -3.27640E+04  3.63623E+04 -6.41764E+04  2.23741E+03 -5.77668E+04 -4.36551E+04
 -1.27737E+04 -6.40725E+04  4.09314E+04 -4.69722E+04  5.89954E+04 -2.14193E+03  3.51487E+04  3.35730E+04
 -6.10610E+03  3.75455E+04 -3.06839E+04  1.75491E+04 -3.04394E+04 -3.66641E+03 -1.80663E+04 -1.17286E+04
 -8.44899E+03 -1.39393E+04 -4.01121E+02 -1.81523E+04  7.75548E+03 -2.27546E+04  1.54506E+04 -1.24265E+04
  1.10725E+04  5.41508E+03 -9.08486E+03  1.28497E+04 -2.17167E+04 -5.28546E+03 -7.98124E+03 -3.53964E+04
  2.40039E+04 -4.43656E+04  4.95506E+04 -1.95993E+04  4.64712E+04  1.94475E+04  1.67008E+04  4.48368E+04
 -1.60868E+04  3.39272E+04 -2.62811E+04  1.65704E+03 -1.07386E+04 -2.83657E+04  2.10560E+04 -3.45765E+04
  4.22281E+04 -9.44742E+03  3.75548E+04  2.42566E+04  1.90876E+04  4.80792E+04 -8.02950E+03  5.21563E+04
 -3.30177E+04  3.56502E+04 -4.41454E+04  9.67118E+03 -4.37634E+04 -1.71029E+04 -2.37381E+04 -3.97264E+04
  7.47183E+03 -3.92517E+04  3.23059E+04 -1.57034E+04  3.03748E+04  1.08328E+04  4.21778E+03  1.98870E+04
 -1.34997E+04  9.22635E+03 -1.11485E+04 -7.71355E+03  6.34418E+03 -1.13584E+04  1.82794E+04  5.61395E+03
  1.36480E+04  2.19295E+04 -5.60711E+03  2.54076E+04 -2.29307E+04  1.18965E+04 -2.90844E+04 -4.39708E+03
 -2.20794E+04 -1.79553E+04 -9.86365E+03 -2.17823E+04  3.74126E+03 -2.07657E+04  1.70997E+04 -1.93584E+04
  2.76939E+04 -1.31648E+04  3.44953E+04  3.92997E+03  2.46189E+04  2.12324E+04  4.16969E+03  3.76432E+04
 -1.85716E+04  3.07752E+04 -2.89317E+04  1.06184E+04 -2.25563E+04 -1.03768E+04 -4.29538E+03 -1.36842E+04
  9.32062E+02 -2.67808E+03 -5.43351E+03  7.13061E+03 -1.78208E+04  5.44908E+03 -1.74198E+04 -8.30393E+03
 -1.06033E+04 -1.98554E+04  4.79056E+03 -2.43462E+04  1.66740E+04 -1.66980E+04  1.93162E+04 -1.02228E+03
  1.28326E+04  1.43674E+04 -1.50194E+03  2.08983E+04 -1.44786E+04  1.10943E+04 -2.06823E+04 -4.70476E+03
 -1.47931E+04 -1.79626E+04 -1.62380E+03 -2.37348E+04  1.12026E+04 -2.00077E+04  1.99948E+04 -9.98678E+03
  1.83850E+04 -5.75978E+01  1.35530E+04  4.52844E+03  6.70428E+03  1.04745E+03  1.07319E+04 -1.41275E+03
  1.86243E+04  2.40868E+03  2.08718E+04  1.58168E+04  1.45352E+04  3.19684E+04 -3.04668E+03  3.68424E+04
 -2.10826E+04  2.96355E+04 -3.49439E+04  1.54681E+04 -3.61163E+04 -3.07897E+03 -2.91610E+04 -2.17253E+04
 -1.25216E+04 -2.98797E+04  1.05474E+04 -2.70372E+04  2.30204E+04 -1.36739E+04  1.98345E+04  6.22195E+03
  7.70215E+03  1.50216E+04 -9.52089E+03  1.27499E+04 -1.74182E+04  2.68230E+03 -1.33371E+04 -1.08818E+04
 -6.38028E+02 -1.61501E+04  8.57903E+03 -1.15094E+04  1.06671E+04 -5.22407E+02  2.63555E+03  6.88751E+03
 -6.74590E+03  2.24632E+03 -6.09396E+03 -5.36782E+03 -5.56633E+02 -1.43329E+04  1.04088E+04 -1.58245E+04
  1.81144E+04 -7.87058E+03  1.94861E+04  2.76712E+03  1.67019E+04  1.43774E+04  7.96923E+03  2.28059E+04
 -3.78824E+03  2.40929E+04 -1.51095E+04  1.46912E+04 -1.76152E+04  3.79314E+03 -1.18542E+04 -4.16230E+03
 -5.40481E+03 -5.46137E+03 -3.80145E+02  1.02501E+03 -1.96197E+03  3.19434E+03 -5.62977E+03  4.49472E+03
 -1.18146E+04 -3.09948E+02 -1.22291E+04 -9.56267E+03 -4.65020E+03 -1.58600E+04  4.76633E+03 -1.21531E+04
  1.01721E+04 -4.75581E+03  6.59933E+03  3.46582E+03 -1.32173E+02  4.90914E+03 -6.17411E+03 -7.36511E+01
 -5.38646E+03 -7.89119E+03 -1.18263E+03 -1.17611E+04  6.24065E+03 -1.17040E+04  1.60830E+04 -6.42138E+03
  1.77013E+04  1.63377E+03  1.35987E+04  9.84493E+03  3.21540E+03  1.40589E+04 -7.44148E+03  1.17620E+04
 -9.84342E+03  4.01654E+03 -4.82611E+03 -2.93024E+03  2.21117E+03 -2.96770E+03  6.47113E+03 -7.75793E+02
  5.73309E+03  5.38373E+03  7.45590E+02  9.17115E+03 -7.07580E+03  8.93169E+03 -1.21286E+04  2.35342E+03
 -6.98722E+03 -5.90336E+03 -1.17315E+02 -1.00777E+04  6.49565E+03 -5.05885E+03  6.44861E+03  1.89816E+03
  5.07100E+02  7.03671E+03 -6.46295E+03  7.66532E+03 -9.23569E+03  3.41300E+03 -9.21027E+03 -3.38759E+03
 -5.92344E+03 -1.06283E+04  2.51439E+03 -1.28386E+04  1.03485E+04 -7.78655E+03  1.09076E+04  2.00367E+03
  6.96647E+03  9.06205E+03 -9.44678E+02  1.11750E+04 -8.31766E+03  6.79045E+03 -9.04105E+03 -8.55173E+02
 -7.99871E+03 -7.45972E+03 -1.12175E+03 -7.71797E+03  4.30192E+03 -7.57811E+03  4.92260E+03 -3.32939E+03
  4.09167E+03  1.23827E+03  7.23781E+01  1.62790E+03 -2.81522E+02 -1.68173E+03  1.64097E+03 -3.93452E+03
  6.81769E+03 -2.68511E+03  9.95332E+03  1.68458E+03  1.00034E+04  6.65185E+03  7.60962E+03  1.40074E+04
 -2.46400E+03  1.53411E+04 -1.40327E+04  1.18410E+04 -1.73719E+04  2.27293E+03 -1.42815E+04 -4.99820E+03
 -7.53070E+03 -1.12647E+04 -6.63067E+02 -9.25935E+03  3.68867E+03 -4.88517E+03  3.45968E+03 -3.64629E+03
  2.64251E+03 -2.37032E+03  2.92022E+03 -3.19876E+03  3.97932E+03 -3.16774E+03  5.71541E+03 -4.74952E+02
  6.88815E+03  1.79077E+03  3.72362E+03  6.44700E+03 -2.12196E+03  6.81403E+03 -6.87719E+03  5.23614E+03
 -9.13341E+03 -1.64733E+03 -5.48515E+03 -5.92703E+03 -5.38698E+02 -9.55584E+03  5.90771E+03 -9.70548E+03
  9.94848E+03 -5.25795E+03  1.23125E+04  1.34688E+03  8.65258E+03  8.65215E+03  8.77441E+02  1.11363E+04
 -4.10544E+03  9.43086E+03 -6.62475E+03  3.35203E+03 -3.97075E+03 -1.77034E+03 -1.58519E+03 -1.37105E+03
 -2.67833E+02 -2.12596E+02 -1.41002E+03  1.97786E+03 -4.66195E+03  2.21674E+03 -6.53327E+03 -1.28161E+03
 -4.21085E+03 -6.39918E+03 -4.98857E+01 -8.39611E+03  5.54968E+03 -8.09375E+03  8.84045E+03 -1.88962E+03
  8.95890E+03  4.77947E+03  4.45771E+03  7.25205E+03 -2.09497E+03  8.69997E+03 -5.68791E+03  5.56342E+03
 -8.10048E+03  9.80182E+02 -6.40395E+03 -4.86050E+03 -9.24721E+02 -6.74280E+03  3.07113E+03 -5.07512E+03
  5.79778E+03 -1.65108E+03  3.36943E+03  1.54291E+03  1.70374E+03  2.85011E+03  5.47403E+02  6.58363E+02
  1.92652E+03  2.80015E+02  1.61014E+03  1.25061E+03  2.57728E+03  4.03363E+03  2.08674E+03  3.68417E+03
 -2.28519E+03  6.48904E+03 -5.50174E+03  7.46063E+03 -7.93119E+03  1.19251E+03 -8.22732E+03 -2.49478E+03
 -4.20906E+03 -7.98152E+03  1.48007E+03 -9.01666E+03  4.91991E+03 -5.82406E+03  7.04941E+03 -1.27091E+03
  5.17193E+03  3.09805E+03  1.53534E+03  4.63490E+03 -2.19556E+03  2.84442E+03 -4.03676E+03  4.06752E+02
 -1.31193E+03 -2.91091E+03  2.34917E+03 -4.13774E+03  2.68728E+03 -1.81757E+03  3.07934E+03  2.41995E+02
  1.12630E+03  1.50675E+03  1.37698E+03  1.31434E+03 -4.29154E+02  1.78912E+03  1.82093E+03 -1.24236E+02
  9.59713E+02 -1.85185E+02  3.64429E+03  1.79283E+03  1.41621E+03  4.11435E+03 -5.96042E+02  5.53641E+03
 -3.40205E+03  3.21119E+03 -4.42046E+03  3.89433E+02 -4.23727E+03 -1.31635E+03 -1.02850E+03 -2.24135E+03
  3.88882E+02 -2.86384E+03  1.32862E+03 -1.40750E+03  1.05871E+03  1.22746E+03 -6.30967E+02  3.03840E+03
 -3.25376E+03  1.12499E+03 -3.63018E+03 -1.67948E+03 -1.54765E+03 -3.38579E+03  1.14630E+03 -4.26625E+03
  1.96822E+03 -2.01374E+03  2.31844E+03 -4.84484E+02  2.69365E+03  3.84336E+02  7.15881E+02  2.43732E+03
 -1.50694E+03  9.24004E+02 -1.66579E+03 -1.35390E+03  9.71599E+02 -3.67658E+03  3.70315E+03 -3.46853E+03
  4.16875E+03  3.94701E+02  5.50750E+03  2.46929E+03  1.28990E+03  4.41891E+03 -1.20183E+03  4.51782E+03
 -3.75878E+03  1.51603E+03 -4.77105E+03 -3.31024E+02 -1.92805E+03 -2.57321E+03  5.16683E+02 -2.03921E+03
  3.29148E+03 -8.56506E+02  1.97791E+03  2.28049E+03  5.57373E+02  2.88825E+03 -9.23171E+01  2.45759E+03
 -1.05432E+03  1.77291E+03 -1.08324E+03  1.09288E+03 -4.07078E+02  6.94549E+02 -8.19632E+02  1.33434E+03
 -1.64046E+03  2.06188E+03 -4.05968E+03  1.91751E+03 -4.65926E+03  5.10072E+01 -4.20842E+03 -2.80256E+03
 -2.59406E+03 -5.35966E+03  1.43624E+03 -6.58247E+03  3.48930E+03 -5.00969E+03  6.46445E+03 -2.38617E+03
  6.41584E+03  4.60573E+02  3.31246E+03  4.04762E+03  2.27504E+02  4.00854E+03 -1.26125E+03  3.46676E+03
 -2.19920E+03  1.39779E+03 -1.92873E+03 -9.46524E+02 -4.53190E+02 -9.00806E+02 -1.01260E+03 -1.66211E+02
 -9.97696E+02  7.34627E+01 -1.18036E+03 -1.25812E-01  6.72821E+02 -1.60497E+03 -1.40744E+02 -1.26060E+03
  2.37971E+03 -1.35587E+03  1.92830E+03 -3.74542E+02  3.23240E+03  2.47812E+03  5.43644E+02  4.25181E+03
 -2.65419E+03  5.00485E+03 -3.73665E+03  3.04061E+03 -4.98128E+03 -3.20949E+02 -4.08185E+03 -3.15617E+03
 -1.51117E+03 -3.49478E+03  1.27009E+03 -4.05959E+03  2.74398E+03 -2.32509E+03  2.45907E+03 -2.28427E+02
  1.20250E+03  1.36285E+03  2.14745E+02  1.78011E+03 -1.27314E+03 -3.55866E+02 -5.11763E+02 -7.56587E+02
  1.44399E+03 -4.48479E+02  1.08077E+03  7.07788E+02  1.22770E+03  1.31121E+03  6.46589E+02  1.88758E+03
 -1.33606E+03  1.44526E+03 -1.96139E+03  1.62389E+02 -2.29315E+03 -1.66781E+03 -4.54063E+02 -4.01228E+03
  1.92053E+03 -2.54281E+03  2.42009E+03 -8.77919E+02  3.07950E+03  9.48976E+02  1.92282E+03  2.65191E+03
  7.97742E+02  1.93246E+03 -4.97524E+02  1.61354E+03 -1.73702E+03  9.52889E+02 -1.71119E+03  4.95495E+02
 -6.56238E+02 -2.50095E+02 -7.38339E+02  5.71420E+02 -1.39690E+03  2.24640E+02 -2.33834E+03 -3.47739E+02
 -2.26885E+03 -4.11958E+02 -6.84478E+02 -2.61411E+03  1.08466E+03 -2.95662E+03  2.03392E+03 -8.75514E+02
  2.30588E+03  5.14360E+02  1.12502E+03  5.66351E+02 -6.71305E+02  2.60653E+03 -1.55025E+03  1.98088E+03
