 $NMID ID='MM_0lb_SNR400_11hz_g50_18.RAW', FMTDAT='(8E13.5)'
 TRAMP=1., VOLUME=1. $END
  3.09735E+05  9.26489E+02  3.38435E+05  2.50835E+05  8.47105E+04  3.38740E+05 -1.32201E+05  2.51622E+05
 -1.90947E+05  8.35922E+04 -1.11732E+05 -3.22569E+04  6.78059E+02 -5.05861E+04  5.37437E+04 -7.20893E+02
  3.57611E+04  5.24813E+04 -1.71605E+04  7.61929E+04 -6.05065E+04  6.44873E+04 -8.45530E+04  3.22961E+04
 -8.16620E+04 -1.14569E+04 -5.77471E+04 -5.18393E+04 -1.47407E+04 -7.10434E+04  2.69859E+04 -4.64029E+04
  4.08147E+04  3.97836E+03  1.66529E+04  4.82654E+04 -3.42607E+04  4.80622E+04 -6.69339E+04 -1.79426E+02
 -5.42143E+04 -5.74063E+04 -7.06257E+03 -7.78953E+04  3.46807E+04 -5.65044E+04  4.85739E+04 -1.72910E+04
  4.47686E+04  1.13179E+04  3.32330E+04  2.58832E+04  1.59338E+04  3.05791E+04 -6.31746E+03  2.73780E+04
 -2.20597E+04  1.18473E+04 -1.92091E+04 -4.98441E+03  6.44783E+03 -7.18990E+03  2.34563E+04  1.32574E+04
  6.58630E+03  3.71291E+04 -3.31431E+04  3.65298E+04 -6.48627E+04  1.69515E+03 -5.76128E+04 -4.40483E+04
 -1.26979E+04 -6.49487E+04  4.12007E+04 -4.60363E+04  6.01973E+04 -2.71769E+03  3.52556E+04  3.36275E+04
 -5.69087E+03  3.80453E+04 -3.08102E+04  1.76861E+04 -3.25746E+04 -3.90725E+03 -1.79809E+04 -1.18904E+04
 -9.04918E+03 -1.39542E+04 -6.98016E+02 -1.89194E+04  8.71921E+03 -2.29512E+04  1.61424E+04 -1.30132E+04
  1.10248E+04  5.66693E+03 -9.19389E+03  1.33474E+04 -2.27690E+04 -5.73799E+03 -8.45226E+03 -3.59623E+04
  2.42969E+04 -4.49835E+04  5.02543E+04 -2.03797E+04  4.69237E+04  2.02721E+04  1.63403E+04  4.59871E+04
 -1.68740E+04  3.54167E+04 -2.64685E+04  2.52262E+03 -1.10954E+04 -2.82565E+04  2.12489E+04 -3.62857E+04
  4.28585E+04 -9.90910E+03  3.85581E+04  2.47549E+04  1.96213E+04  4.87727E+04 -8.37398E+03  5.33514E+04
 -3.40627E+04  3.65607E+04 -4.54587E+04  1.00290E+04 -4.61974E+04 -1.83841E+04 -2.47202E+04 -3.99457E+04
  8.06073E+03 -4.02819E+04  3.35226E+04 -1.60218E+04  3.13841E+04  1.12495E+04  5.06871E+03  2.01608E+04
 -1.36256E+04  8.93918E+03 -1.10712E+04 -8.20657E+03  5.28974E+03 -1.06310E+04  1.90630E+04  5.82853E+03
  1.47541E+04  2.23348E+04 -5.69186E+03  2.70001E+04 -2.26316E+04  1.30406E+04 -2.95023E+04 -4.25128E+03
 -2.38310E+04 -1.81972E+04 -1.02547E+04 -2.35254E+04  4.27717E+03 -2.29444E+04  1.79141E+04 -2.08705E+04
  3.03588E+04 -1.37807E+04  3.55174E+04  4.16528E+03  2.60192E+04  2.25339E+04  3.62935E+03  3.88481E+04
 -1.94083E+04  3.29889E+04 -2.93155E+04  1.17218E+04 -2.19473E+04 -9.65323E+03 -5.41301E+03 -1.32378E+04
  1.33800E+03 -1.57788E+03 -6.32332E+03  7.46155E+03 -1.88348E+04  4.66062E+03 -1.91246E+04 -8.92538E+03
 -1.16119E+04 -2.14371E+04  5.77393E+03 -2.56926E+04  1.73829E+04 -1.79418E+04  2.19265E+04 -1.61867E+03
  1.41552E+04  1.44149E+04 -1.21569E+03  2.21071E+04 -1.50200E+04  1.27051E+04 -2.13255E+04 -4.33058E+03
 -1.62878E+04 -2.02265E+04 -2.18904E+03 -2.64159E+04  1.13681E+04 -2.15511E+04  2.21529E+04 -1.08931E+04
  2.04528E+04 -5.42256E+02  1.49029E+04  4.87194E+03  7.84532E+03  1.96706E+03  1.10691E+04 -1.82798E+03
  1.93257E+04  3.13774E+03  2.27781E+04  1.72601E+04  1.51039E+04  3.44381E+04 -2.75099E+03  3.92460E+04
 -2.25882E+04  3.29342E+04 -3.77286E+04  1.71155E+04 -4.01750E+04 -3.33781E+03 -3.23532E+04 -2.30210E+04
 -1.33545E+04 -3.27496E+04  1.16057E+04 -2.94277E+04  2.57591E+04 -1.41119E+04  2.22555E+04  7.60444E+03
  7.80602E+03  1.71236E+04 -1.10634E+04  1.41435E+04 -1.83714E+04  2.62379E+03 -1.39868E+04 -1.14387E+04
 -5.73148E+02 -1.75042E+04  9.85882E+03 -1.26830E+04  1.23569E+04 -1.67451E+03  2.99847E+03  7.44358E+03
 -7.48082E+03  3.32537E+03 -8.02567E+03 -6.52164E+03 -1.52065E+03 -1.54160E+04  1.10239E+04 -1.66273E+04
  2.04344E+04 -9.32526E+03  2.25604E+04  3.68992E+03  1.99774E+04  1.61065E+04  9.32355E+03  2.52948E+04
 -4.25024E+03  2.67837E+04 -1.81746E+04  1.64843E+04 -1.95184E+04  3.60687E+03 -1.43336E+04 -5.51239E+03
 -5.88218E+03 -6.81129E+03 -1.44877E+03  3.54624E+02 -2.95592E+03  2.83396E+03 -6.42892E+03  5.37815E+03
 -1.25970E+04 -6.87545E+02 -1.31354E+04 -1.06828E+04 -5.49618E+03 -1.70618E+04  6.57138E+03 -1.41438E+04
  1.10538E+04 -6.46413E+03  8.24699E+03  3.55445E+03 -2.12049E+02  5.49051E+03 -6.68957E+03 -3.55847E+02
 -6.77019E+03 -8.87590E+03 -8.79003E+02 -1.30939E+04  7.54432E+03 -1.44719E+04  1.72869E+04 -7.06034E+03
  2.00234E+04  1.64030E+03  1.45743E+04  1.24494E+04  2.83920E+03  1.56985E+04 -8.71990E+03  1.35369E+04
 -1.09845E+04  4.11433E+03 -5.62716E+03 -2.72170E+03  1.40602E+03 -3.75575E+03  6.82777E+03 -1.52997E+03
  6.61010E+03  5.78221E+03  8.13725E+02  1.09999E+04 -7.28614E+03  1.05920E+04 -1.34363E+04  2.06554E+03
 -9.78052E+03 -7.13609E+03 -1.11103E+02 -1.17160E+04  7.58566E+03 -5.90242E+03  7.85457E+03  2.79364E+03
  2.88476E+03  7.95440E+03 -6.60277E+03  1.03048E+04 -1.10166E+04  4.84106E+03 -1.18441E+04 -3.62792E+03
 -6.83943E+03 -1.28852E+04  3.39383E+03 -1.48617E+04  1.29990E+04 -8.97315E+03  1.43987E+04  2.52676E+03
  8.59081E+03  1.14706E+04 -1.31328E+03  1.41478E+04 -9.78810E+03  7.53475E+03 -1.06112E+04 -5.76219E+02
 -9.24052E+03 -9.18188E+03 -1.23252E+03 -1.03547E+04  5.31696E+03 -8.49553E+03  6.51674E+03 -2.72086E+03
  4.27337E+03  1.13900E+03 -1.27275E+03  1.70803E+03 -6.46583E+02 -3.25756E+03  2.38750E+03 -6.18563E+03
  9.29513E+03 -4.28819E+03  1.32493E+04  1.44579E+03  1.20878E+04  9.39853E+03  9.28343E+03  1.77509E+04
 -3.69089E+03  1.98046E+04 -1.68511E+04  1.47827E+04 -2.19907E+04  2.65769E+03 -1.73858E+04 -7.95444E+03
 -8.87040E+03 -1.38533E+04 -4.00379E+02 -1.13135E+04  3.41511E+03 -6.67321E+03  4.06550E+03 -4.59760E+03
  3.03970E+03 -2.95388E+03  3.62020E+03 -3.54811E+03  5.10198E+03 -3.48746E+03  6.92113E+03 -7.71454E+02
  9.16431E+03  2.22310E+03  4.59606E+03  7.95776E+03 -2.53401E+03  8.63022E+03 -9.97136E+03  6.88691E+03
 -1.20235E+04 -1.71734E+03 -6.95968E+03 -8.85415E+03 -1.10199E+02 -1.26500E+04  7.08875E+03 -1.29080E+04
  1.32897E+04 -7.17243E+03  1.57312E+04  1.98454E+03  1.08580E+04  1.08008E+04  1.77197E+03  1.49066E+04
 -5.76908E+03  1.15480E+04 -8.20058E+03  3.87015E+03 -6.34403E+03 -1.25450E+03 -2.19948E+03 -2.20660E+03
 -9.41982E+02  5.18690E+02 -2.10023E+03  2.83280E+03 -4.74684E+03  2.15561E+03 -8.55346E+03 -9.61299E+02
 -5.15682E+03 -8.25370E+03 -5.42411E+02 -1.21531E+04  7.15194E+03 -1.07308E+04  1.17028E+04 -3.47215E+03
  1.17195E+04  5.76981E+03  4.88614E+03  1.00299E+04 -3.22358E+03  1.18716E+04 -8.10295E+03  6.61576E+03
 -1.12596E+04  2.96687E+02 -8.87810E+03 -6.74359E+03 -1.51188E+03 -9.61387E+03  5.01502E+03 -7.24117E+03
  7.67949E+03 -2.60713E+03  5.23893E+03  2.12478E+03  1.90578E+03  3.01220E+03  1.20869E+03  1.74691E+03
  3.19905E+03  1.21615E+03  2.90022E+03  1.30539E+03  3.50893E+03  4.21439E+03  2.47613E+03  4.82375E+03
 -3.15617E+03  8.89467E+03 -7.62733E+03  9.32990E+03 -1.20996E+04  2.67556E+03 -1.16942E+04 -5.15108E+03
 -5.32086E+03 -1.20484E+04  1.01502E+03 -1.32929E+04  7.41670E+03 -8.05146E+03  9.90943E+03 -2.07502E+03
  7.22758E+03  4.32533E+03  1.14418E+03  7.02985E+03 -3.66731E+03  4.24782E+03 -4.92010E+03 -1.61321E+02
 -2.72215E+03 -4.65854E+03  2.89229E+03 -5.36639E+03  4.48071E+03 -1.89694E+03  4.21938E+03  1.21597E+03
  2.57526E+03  2.58388E+03  1.07518E+03  2.56061E+03  1.40377E+02  1.39089E+03  1.64277E+03 -2.32381E+02
  1.40059E+03 -4.11170E+02  4.24922E+03  2.31102E+03  1.67328E+03  6.03959E+03 -1.32840E+03  7.92146E+03
 -5.40091E+03  4.49348E+03 -6.64209E+03  1.28662E+03 -6.87261E+03 -2.48549E+03 -2.18614E+03 -5.09978E+03
  5.12936E+02 -4.86563E+03  2.91237E+03 -2.08803E+03  2.86632E+03  1.89002E+03 -1.33460E+03  3.62403E+03
 -4.67293E+03  1.54901E+03 -5.05330E+03 -3.01047E+03 -3.42858E+03 -5.99967E+03  3.19892E+02 -5.69673E+03
  3.82238E+03 -3.28225E+03  4.87747E+03 -5.74289E+02  3.54157E+03  2.04620E+03  6.61537E+02  3.21416E+03
 -1.85382E+03  8.95564E+02 -2.31000E+03 -1.93180E+03  6.58599E+02 -4.05045E+03  5.13490E+03 -3.37619E+03
  6.93158E+03  4.34160E+02  7.24142E+03  4.68411E+03  2.52704E+03  7.10157E+03 -2.86715E+03  7.09243E+03
 -5.59079E+03  2.37753E+03 -6.27592E+03 -9.57009E+02 -2.92175E+03 -5.16457E+03  1.75549E+03 -4.33166E+03
  4.38529E+03 -2.05561E+03  3.81533E+03  2.33080E+03  1.26918E+03  3.77230E+03 -5.10939E+02  3.41378E+03
 -1.88111E+03  2.72570E+03 -2.27321E+03  9.44982E+02 -5.10726E+02  1.01744E+03 -1.30681E+03  1.73319E+03
 -1.47978E+03  3.11026E+03 -5.49205E+03  2.90601E+03 -7.73213E+03 -1.06256E+02 -8.76469E+03 -3.85411E+03
 -3.95642E+03 -8.97674E+03  2.44489E+03 -1.06903E+04  6.82431E+03 -8.69479E+03  1.06110E+04 -3.39086E+03
  9.12243E+03  1.39658E+03  5.52491E+03  6.77870E+03  2.40098E+02  7.18836E+03 -3.52631E+03  5.23273E+03
 -3.99080E+03  1.67117E+03 -2.70706E+03 -8.11337E+02 -3.90632E+02 -7.94950E+02 -1.29094E+03  3.15316E+02
 -1.32001E+03  1.05004E+03 -1.55445E+03 -5.57184E+02 -1.28591E+02 -1.54862E+03 -4.98737E+02 -3.09733E+03
  3.75973E+03 -2.70314E+03  3.99109E+03  1.00044E+03  4.78392E+03  4.25914E+03  5.58855E+02  7.78702E+03
 -3.34504E+03  8.79788E+03 -8.11060E+03  4.63260E+03 -9.22957E+03 -5.96679E+02 -6.84216E+03 -5.86216E+03
 -2.14420E+03 -7.27157E+03  2.43438E+03 -7.55765E+03  4.98411E+03 -3.14084E+03  4.39125E+03  9.94158E+01
  2.97439E+03  1.99580E+03 -1.76170E+02  1.69425E+03 -1.45735E+03 -3.23291E+02 -1.56567E-02 -1.59802E+03
  1.79056E+03 -1.04661E+03  2.86380E+03  1.43927E+03  1.38845E+03  3.04527E+03  1.12161E+02  3.74370E+03
 -3.03471E+03  2.51061E+03 -4.38895E+03 -1.85365E+01 -4.46617E+03 -3.04705E+03 -4.40604E+02 -5.67003E+03
  3.50942E+03 -4.48345E+03  6.17528E+03 -1.42748E+03  5.33415E+03  1.60004E+03  3.41991E+03  4.12921E+03
  5.12782E+02  3.83290E+03 -1.41436E+03  3.34346E+03 -2.74561E+03  1.75790E+03 -2.67295E+03  2.77809E+02
 -1.43679E+03  2.57087E+01 -1.82429E+03  6.31054E+02 -2.45414E+03  9.60811E+02 -3.94861E+03 -2.79493E+02
 -3.25436E+03 -2.77961E+03 -1.14078E+03 -4.25677E+03  2.66456E+03 -5.19554E+03  3.91025E+03 -2.10051E+03
  4.80932E+03  6.06162E+02  2.15898E+03  2.75449E+03  2.65322E+02  4.89988E+03 -3.17435E+03  2.49584E+03
