 $NMID ID='MM_0lb_SNR400_12hz_g40_86.RAW', FMTDAT='(8E13.5)'
 TRAMP=1., VOLUME=1. $END
  3.10209E+05  7.83542E+02  3.37454E+05  2.50143E+05  8.42783E+04  3.38312E+05 -1.32213E+05  2.51638E+05
 -1.90447E+05  8.32228E+04 -1.12184E+05 -3.20676E+04  9.46363E+02 -5.02968E+04  5.40427E+04 -6.32663E+02
  3.55693E+04  5.28020E+04 -1.64664E+04  7.56532E+04 -6.06057E+04  6.37589E+04 -8.37290E+04  3.24858E+04
 -8.08212E+04 -1.21524E+04 -5.70291E+04 -5.18704E+04 -1.50851E+04 -7.02467E+04  2.69270E+04 -4.62231E+04
  4.03722E+04  4.25670E+03  1.64197E+04  4.73756E+04 -3.42783E+04  4.71275E+04 -6.64145E+04 -2.55521E+01
 -5.38533E+04 -5.74920E+04 -6.72194E+03 -7.77250E+04  3.31407E+04 -5.54798E+04  4.80895E+04 -1.70943E+04
  4.40858E+04  1.10669E+04  3.24920E+04  2.56237E+04  1.57435E+04  2.95651E+04 -5.46360E+03  2.69262E+04
 -2.27273E+04  1.26298E+04 -1.83629E+04 -4.39743E+03  5.99917E+03 -7.37210E+03  2.27548E+04  1.27278E+04
  7.22509E+03  3.55659E+04 -3.27184E+04  3.59419E+04 -6.41293E+04  1.93417E+03 -5.72915E+04 -4.37505E+04
 -1.31938E+04 -6.28115E+04  4.00744E+04 -4.54137E+04  5.85519E+04 -2.61811E+03  3.47133E+04  3.27866E+04
 -5.37457E+03  3.62111E+04 -3.04195E+04  1.59648E+04 -3.08399E+04 -4.10267E+03 -1.74136E+04 -1.08603E+04
 -9.20641E+03 -1.35576E+04  5.81873E+01 -1.82239E+04  7.84469E+03 -2.24335E+04  1.51950E+04 -1.29999E+04
  1.13531E+04  5.31963E+03 -8.34367E+03  1.33908E+04 -2.17116E+04 -5.46659E+03 -8.15986E+03 -3.48726E+04
  2.34170E+04 -4.40497E+04  4.86242E+04 -2.01667E+04  4.60096E+04  1.93926E+04  1.66323E+04  4.47223E+04
 -1.59904E+04  3.39960E+04 -2.61359E+04  1.42691E+03 -1.01849E+04 -2.79228E+04  2.10167E+04 -3.55292E+04
  4.13183E+04 -9.26348E+03  3.59866E+04  2.43477E+04  1.88300E+04  4.71900E+04 -7.84436E+03  5.15485E+04
 -3.25929E+04  3.40387E+04 -4.20987E+04  1.02710E+04 -4.29228E+04 -1.76278E+04 -2.42061E+04 -3.81071E+04
  7.36704E+03 -3.85446E+04  3.17879E+04 -1.54308E+04  3.00210E+04  1.05835E+04  4.04375E+03  1.90038E+04
 -1.33742E+04  9.03720E+03 -1.08275E+04 -7.34923E+03  5.34460E+03 -1.02573E+04  1.80009E+04  5.66364E+03
  1.32026E+04  2.22375E+04 -6.04674E+03  2.57594E+04 -2.26723E+04  1.22448E+04 -2.90698E+04 -4.94324E+03
 -2.18678E+04 -1.77770E+04 -9.04632E+03 -2.14456E+04  4.67195E+03 -2.13333E+04  1.63974E+04 -1.94875E+04
  2.73123E+04 -1.32846E+04  3.35757E+04  3.19195E+03  2.45266E+04  2.10019E+04  4.01160E+03  3.76591E+04
 -1.81723E+04  3.09665E+04 -2.93007E+04  1.02489E+04 -2.15034E+04 -1.01773E+04 -5.09494E+03 -1.30297E+04
  1.23574E+03 -2.47299E+03 -5.59477E+03  6.58408E+03 -1.65741E+04  5.17910E+03 -1.67383E+04 -7.94083E+03
 -1.06002E+04 -2.02894E+04  5.24193E+03 -2.34473E+04  1.60681E+04 -1.73062E+04  1.92158E+04 -1.78195E+03
  1.11092E+04  1.36121E+04 -1.04600E+03  2.01405E+04 -1.39721E+04  1.08281E+04 -1.99143E+04 -4.29819E+03
 -1.51742E+04 -1.76772E+04 -2.24615E+03 -2.41679E+04  1.16775E+04 -1.95990E+04  1.94627E+04 -1.04299E+04
  1.83641E+04 -2.88557E+02  1.46330E+04  4.73992E+03  7.52878E+03  5.38102E+02  9.98718E+03 -1.55197E+03
  1.86430E+04  2.54101E+03  2.02098E+04  1.59183E+04  1.37862E+04  3.21076E+04 -2.80629E+03  3.58747E+04
 -2.14590E+04  2.90889E+04 -3.37219E+04  1.45548E+04 -3.48741E+04 -2.61527E+03 -2.98561E+04 -2.05423E+04
 -1.27202E+04 -2.86538E+04  1.06590E+04 -2.65508E+04  2.14475E+04 -1.31099E+04  2.03167E+04  5.66035E+03
  7.65382E+03  1.56582E+04 -9.24550E+03  1.28492E+04 -1.64681E+04  2.91192E+03 -1.31304E+04 -1.08963E+04
 -7.61175E+02 -1.58509E+04  9.22107E+03 -1.16446E+04  1.05018E+04 -1.02994E+03  2.99282E+03  6.97085E+03
 -7.64548E+03  2.44193E+03 -6.69049E+03 -6.25247E+03 -1.26337E+03 -1.40611E+04  1.02847E+04 -1.58910E+04
  1.81734E+04 -8.14022E+03  1.92804E+04  3.37465E+03  1.73134E+04  1.42926E+04  8.21861E+03  2.18874E+04
 -3.71399E+03  2.42205E+04 -1.60548E+04  1.51397E+04 -1.73646E+04  3.47237E+03 -1.20163E+04 -4.35895E+03
 -5.01882E+03 -5.37130E+03 -8.20922E+02  3.47371E+02 -1.99739E+03  2.47019E+03 -5.73080E+03  4.40718E+03
 -1.13822E+04 -8.61260E+02 -1.21804E+04 -9.70984E+03 -5.45404E+03 -1.53411E+04  4.76416E+03 -1.21293E+04
  1.08429E+04 -5.07776E+03  7.96442E+03  2.72623E+03  3.41014E+00  4.94864E+03 -6.00194E+03  9.36125E+01
 -5.82687E+03 -8.52188E+03 -7.21331E+02 -1.10146E+04  7.23100E+03 -1.30574E+04  1.51100E+04 -7.27042E+03
  1.79378E+04  1.83940E+03  1.27953E+04  1.08180E+04  2.83759E+03  1.43766E+04 -7.88570E+03  1.26787E+04
 -9.60551E+03  3.66789E+03 -5.28993E+03 -2.68369E+03  1.41183E+03 -2.85745E+03  6.57436E+03 -1.11467E+03
  5.78500E+03  5.16599E+03  1.18230E+03  1.05052E+04 -7.14437E+03  8.78619E+03 -1.25128E+04  2.19746E+03
 -8.25832E+03 -6.39964E+03  7.47040E+02 -1.00971E+04  6.05255E+03 -4.89962E+03  6.61748E+03  2.31564E+03
  1.01279E+03  7.01143E+03 -5.92738E+03  8.38462E+03 -9.58833E+03  4.29913E+03 -9.93797E+03 -3.92520E+03
 -5.91942E+03 -1.09896E+04  1.90865E+03 -1.31897E+04  1.07395E+04 -7.77180E+03  1.15228E+04  1.68616E+03
  7.82466E+03  9.83546E+03 -1.30864E+03  1.15628E+04 -9.03229E+03  6.15172E+03 -8.55053E+03 -1.59360E+03
 -8.80200E+03 -7.72941E+03 -2.05457E+03 -9.07045E+03  4.71701E+03 -7.30406E+03  5.98154E+03 -3.03385E+03
  4.07296E+03  1.65783E+03 -1.19053E+03  1.71455E+03 -5.19505E+02 -1.73479E+03  7.21383E+02 -4.60825E+03
  7.81865E+03 -3.09379E+03  1.18012E+04  1.22074E+03  1.08020E+04  7.73236E+03  7.88101E+03  1.46464E+04
 -3.05150E+03  1.61949E+04 -1.43058E+04  1.28065E+04 -1.78152E+04  1.90273E+03 -1.47484E+04 -6.05631E+03
 -8.10185E+03 -1.25506E+04 -6.18937E+02 -9.71609E+03  4.15724E+03 -5.27182E+03  3.55249E+03 -3.12523E+03
  3.02918E+03 -2.13002E+03  3.20047E+03 -3.23490E+03  4.60904E+03 -2.31187E+03  5.60604E+03 -3.29765E+02
  7.82383E+03  1.76745E+03  3.10192E+03  7.09116E+03 -1.49602E+03  6.57290E+03 -7.82899E+03  5.51217E+03
 -9.81769E+03 -1.74653E+03 -5.47669E+03 -6.68848E+03 -5.84257E+02 -1.07934E+04  6.12158E+03 -1.05681E+04
  1.07299E+04 -6.34131E+03  1.32925E+04  1.37268E+03  9.27651E+03  8.83965E+03  1.78405E+03  1.21513E+04
 -4.72764E+03  9.21344E+03 -6.71927E+03  3.13824E+03 -4.26491E+03 -1.38038E+03 -1.84361E+03 -1.67590E+03
 -1.39531E+03  3.17679E+02 -1.49094E+03  3.23968E+03 -3.96537E+03  1.93337E+03 -7.64412E+03 -1.87260E+03
 -4.42093E+03 -6.51270E+03  4.01588E+02 -9.40583E+03  5.66106E+03 -8.75086E+03  9.59364E+03 -2.35372E+03
  9.40874E+03  4.79104E+03  5.18434E+03  8.45068E+03 -1.85020E+03  1.00198E+04 -6.32026E+03  5.91782E+03
 -8.45789E+03  8.61199E+02 -7.10370E+03 -5.38142E+03 -6.31741E+02 -7.73178E+03  3.59312E+03 -5.29364E+03
  5.94028E+03 -1.96940E+03  3.72451E+03  1.35167E+03  1.55332E+03  3.39785E+03  1.01351E+03  7.63439E+02
  2.85640E+03  7.32801E+01  2.05635E+03  1.91788E+03  3.66848E+03  3.64341E+03  2.63510E+03  4.89937E+03
 -2.00700E+03  7.93155E+03 -6.34131E+03  7.93995E+03 -8.98682E+03  1.92011E+03 -1.04720E+04 -3.26600E+03
 -4.59509E+03 -9.15657E+03  1.66500E+03 -1.08026E+04  5.07813E+03 -6.02687E+03  6.85474E+03 -2.01200E+03
  5.80548E+03  3.55924E+03  1.98464E+03  5.74430E+03 -2.56495E+03  3.29758E+03 -3.02290E+03 -5.44635E+02
 -1.06966E+03 -4.28256E+03  2.47303E+03 -4.36424E+03  3.60653E+03 -1.69051E+03  3.84452E+03  8.07396E+02
  2.07418E+03  2.00101E+03  1.23453E+03  3.86096E+02 -5.10000E+02  1.90578E+03  1.30704E+03 -6.72629E+01
  5.93106E+02 -5.08952E+02  4.49000E+03  1.84759E+03  1.34060E+03  5.87908E+03 -1.15849E+03  7.43920E+03
 -5.17150E+03  4.16207E+03 -5.93467E+03  8.06113E+02 -5.23442E+03 -1.95029E+03 -1.22901E+03 -3.21706E+03
  1.05140E+03 -3.58160E+03  2.92368E+03 -2.09162E+03  1.88817E+03  1.75564E+03 -5.00061E+02  3.02156E+03
 -4.18532E+03  1.55307E+03 -3.57994E+03 -1.99934E+03 -2.67045E+03 -5.20061E+03  1.85756E+02 -5.17571E+03
  2.94555E+03 -3.02433E+03  3.44749E+03 -7.20403E+02  2.81960E+03  7.49042E+02  1.66080E+02  2.71673E+03
 -1.84883E+03  6.59590E+02 -2.46426E+03 -1.18706E+03  6.89199E+02 -4.39813E+03  4.76179E+03 -2.93202E+03
  5.28713E+03  4.36008E+02  6.28637E+03  4.20996E+03  2.23783E+03  5.54756E+03 -1.60386E+03  5.21805E+03
 -4.77064E+03  2.72756E+03 -4.24886E+03 -4.27148E+02 -3.01374E+03 -3.62806E+03  3.87818E+02 -3.15809E+03
  3.72556E+03 -2.22287E+03  2.26699E+03  1.72285E+03  3.46087E+02  3.42027E+03  6.82027E+01  2.48617E+03
 -1.47975E+03  1.81072E+03 -1.33633E+03  5.56681E+02 -8.12173E+02  7.77767E+02 -1.37858E+03  1.17868E+03
 -1.01147E+03  2.70006E+03 -4.04011E+03  2.14364E+03 -4.99570E+03  1.85631E+02 -6.61291E+03 -3.65466E+03
 -3.10397E+03 -7.39431E+03  1.00174E+03 -8.79117E+03  4.79523E+03 -6.71003E+03  8.41147E+03 -3.04628E+03
  7.85488E+03  8.41891E+02  4.58124E+03  5.64476E+03  1.76999E+02  5.79317E+03 -2.18102E+03  3.99180E+03
 -3.68191E+03  1.48038E+03 -1.69065E+03 -6.30581E+02 -4.58763E+02 -1.35520E+02 -9.94105E+02  3.42715E+01
 -2.06404E+03  5.79580E+01 -1.58827E+03 -5.03040E+02 -3.57536E+02 -2.04945E+03 -2.65367E+02 -2.07041E+03
  2.56781E+03 -2.44216E+03  2.69180E+03  7.13153E+01  3.70099E+03  3.77775E+03  5.70836E+02  4.84181E+03
 -2.64105E+03  7.54506E+03 -6.07495E+03  3.71918E+03 -6.89434E+03 -7.17914E+02 -5.03347E+03 -4.37356E+03
 -2.45665E+03 -6.17036E+03  1.29390E+03 -5.02236E+03  3.75466E+03 -2.76687E+03  2.90288E+03  7.14219E+02
  2.18504E+03  1.43769E+03 -3.44976E+01  1.26875E+03 -1.05250E+03  4.07982E+02  1.52400E+01 -1.75187E+03
  1.60632E+03 -4.93626E+02  2.04055E+03  1.11323E+03  1.44989E+03  2.02001E+03  6.07397E+02  3.25885E+03
 -2.98210E+03  3.02548E+03 -3.52568E+03  8.75343E+02 -3.33239E+03 -2.12309E+03 -6.46636E+02 -5.15422E+03
  2.46211E+03 -3.96212E+03  3.59693E+03 -3.60816E+02  4.64104E+03  8.64142E+02  2.43292E+03  3.26114E+03
  9.44088E+02  3.82256E+03 -9.06627E+02  2.73133E+03 -2.13548E+03  2.30662E+03 -2.12110E+03  4.01604E+02
 -8.69768E+02  3.53386E+02 -1.55147E+03  6.58989E+02 -2.05946E+03  7.60941E+02 -2.73659E+03 -8.11781E+02
 -2.22875E+03 -1.45159E+03 -1.27905E+03 -4.06930E+03  1.86979E+03 -3.65686E+03  3.18918E+03 -2.15642E+03
  4.18677E+03  9.29302E+02  1.24122E+03  2.43856E+03  4.92788E+01  3.50073E+03 -2.17328E+03  2.41595E+03
