 $NMID ID='MM_0lb_SNR400_20hz_g60_24.RAW', FMTDAT='(8E13.5)'
 TRAMP=1., VOLUME=1. $END
  3.09627E+05  2.85044E+00  3.37249E+05  2.50491E+05  8.46972E+04  3.36961E+05 -1.32376E+05  2.50392E+05
 -1.89528E+05  8.25904E+04 -1.11494E+05 -3.30541E+04  1.14874E+03 -5.01843E+04  5.38743E+04  2.30752E+02
  3.50311E+04  5.28035E+04 -1.68546E+04  7.53091E+04 -6.03921E+04  6.34198E+04 -8.37145E+04  3.16545E+04
 -8.05034E+04 -1.12757E+04 -5.65740E+04 -5.04653E+04 -1.46314E+04 -6.92298E+04  2.70817E+04 -4.53924E+04
  3.97252E+04  3.75285E+03  1.62258E+04  4.73256E+04 -3.41673E+04  4.61245E+04 -6.58073E+04 -4.26659E+02
 -5.24031E+04 -5.61145E+04 -6.16925E+03 -7.59245E+04  3.40033E+04 -5.46637E+04  4.69088E+04 -1.65607E+04
  4.21763E+04  1.12733E+04  3.10924E+04  2.48523E+04  1.56234E+04  2.87317E+04 -5.26155E+03  2.68533E+04
 -2.17362E+04  1.30984E+04 -1.91342E+04 -4.45912E+03  4.17325E+03 -7.50636E+03  2.16048E+04  1.15011E+04
  7.07407E+03  3.38050E+04 -3.11760E+04  3.41175E+04 -6.15278E+04  2.27975E+03 -5.55929E+04 -4.15593E+04
 -1.21080E+04 -6.16228E+04  3.84678E+04 -4.36974E+04  5.65832E+04 -2.21785E+03  3.30346E+04  3.10384E+04
 -5.63950E+03  3.38257E+04 -2.92225E+04  1.41350E+04 -2.87387E+04 -4.87798E+03 -1.56395E+04 -1.07266E+04
 -8.01250E+03 -1.16084E+04 -5.80949E+02 -1.74730E+04  6.90640E+03 -2.22547E+04  1.48773E+04 -1.39425E+04
  1.19475E+04  4.65303E+03 -7.06032E+03  1.36807E+04 -2.04378E+04 -3.35220E+03 -7.86169E+03 -3.12067E+04
  2.09358E+04 -4.16955E+04  4.55660E+04 -1.90712E+04  4.26560E+04  1.86552E+04  1.42019E+04  4.26552E+04
 -1.57003E+04  3.16619E+04 -2.35403E+04  1.20108E+03 -8.02735E+03 -2.67411E+04  2.08138E+04 -3.18700E+04
  3.94051E+04 -7.89166E+03  3.21058E+04  2.29587E+04  1.55397E+04  4.34328E+04 -8.17649E+03  4.64871E+04
 -2.91347E+04  3.02949E+04 -3.82232E+04  8.89498E+03 -3.87426E+04 -1.49230E+04 -2.15122E+04 -3.50597E+04
  6.82570E+03 -3.48056E+04  3.01210E+04 -1.29167E+04  2.75154E+04  1.08082E+04  3.96527E+03  1.77893E+04
 -1.33106E+04  7.29579E+03 -9.58316E+03 -8.09764E+03  5.86342E+03 -1.01876E+04  1.72379E+04  6.25587E+03
  1.30169E+04  2.13700E+04 -6.49242E+03  2.37819E+04 -2.17338E+04  9.69993E+03 -2.56265E+04 -5.92359E+03
 -1.80050E+04 -1.60428E+04 -5.66076E+03 -1.71473E+04  3.82541E+03 -1.56285E+04  1.34245E+04 -1.51713E+04
  2.20735E+04 -1.12813E+04  2.84671E+04  1.24220E+03  2.13291E+04  1.68499E+04  3.83389E+03  3.29033E+04
 -1.61417E+04  2.81604E+04 -2.60108E+04  9.29280E+03 -1.99089E+04 -1.03588E+04 -3.89253E+03 -1.35891E+04
  2.68090E+03 -3.98748E+03 -3.17025E+03  5.41219E+03 -1.27688E+04  5.29078E+03 -1.36827E+04 -5.08266E+03
 -8.60529E+03 -1.62244E+04  4.02113E+03 -1.94369E+04  1.27647E+04 -1.45422E+04  1.45325E+04 -1.20860E+03
  9.20505E+03  1.08974E+04 -5.65969E+02  1.65124E+04 -1.05664E+04  8.76531E+03 -1.62773E+04 -3.49974E+03
 -1.22742E+04 -1.36293E+04 -1.23773E+03 -1.95668E+04  8.82694E+03 -1.54792E+04  1.63008E+04 -7.60754E+03
  1.46653E+04 -1.07773E+02  1.05218E+04  3.72310E+03  4.98940E+03  7.90800E+02  8.30162E+03 -1.07017E+03
  1.41501E+04  2.54874E+03  1.48991E+04  1.28119E+04  8.82827E+03  2.49331E+04 -3.14463E+03  2.72180E+04
 -1.59416E+04  2.04599E+04 -2.52877E+04  9.96160E+03 -2.53274E+04 -2.01339E+03 -2.10661E+04 -1.45595E+04
 -1.02878E+04 -2.02959E+04  6.05620E+03 -1.88252E+04  1.71340E+04 -1.07081E+04  1.54856E+04  3.24225E+03
  6.41076E+03  1.14958E+04 -7.44098E+03  1.06504E+04 -1.31621E+04  2.69936E+03 -1.08369E+04 -8.64923E+03
  3.16226E+02 -1.28125E+04  6.01299E+03 -9.76250E+03  7.84623E+03 -9.77167E+02  1.54225E+03  5.24502E+03
 -5.50609E+03  1.47878E+03 -3.43055E+03 -4.84418E+03  7.29178E+02 -1.03171E+04  7.74416E+03 -9.61908E+03
  1.18175E+04 -4.55921E+03  1.15296E+04  2.87311E+03  1.02894E+04  9.31812E+03  5.34143E+03  1.38616E+04
 -1.05702E+03  1.57694E+04 -9.38995E+03  1.01603E+04 -1.12600E+04  3.31363E+03 -8.52512E+03 -1.61087E+03
 -4.23413E+03 -2.73118E+03 -1.18997E+03  1.37452E+03 -1.19441E+03  2.47840E+03 -3.91363E+03  3.62234E+03
 -8.19159E+03 -1.49143E+02 -8.72089E+03 -7.40931E+03 -3.77715E+03 -1.12655E+04  3.39076E+03 -8.55017E+03
  7.34852E+03 -3.78256E+03  5.15617E+03  1.97567E+03  1.10054E+03  3.12589E+03 -3.01412E+03  3.91533E+01
 -3.11785E+03 -5.23185E+03 -7.22200E+02 -6.99125E+03  3.71343E+03 -7.64765E+03  9.71546E+03 -3.58506E+03
  1.17211E+04  2.84337E+02  8.24623E+03  6.24178E+03  1.81715E+03  8.79477E+03 -5.18771E+03  7.91135E+03
 -7.19188E+03  2.86086E+03 -3.61036E+03 -9.98947E+02  1.22161E+03 -1.72489E+03  4.69672E+03 -8.94779E+02
  3.83903E+03  3.36425E+03  6.93174E+02  6.04647E+03 -4.36439E+03  5.76681E+03 -7.88328E+03  1.29580E+03
 -5.30743E+03 -3.73161E+03  2.06802E+02 -6.44362E+03  3.70931E+03 -3.72294E+03  3.65784E+03  3.77992E+02
  1.93652E+02  3.36400E+03 -3.82063E+03  5.01131E+03 -4.23476E+03  2.42054E+03 -4.30617E+03 -6.66470E+02
 -2.42805E+03 -5.52051E+03  6.17389E+02 -6.92263E+03  4.63549E+03 -4.47527E+03  6.23688E+03  6.67137E+02
  4.58808E+03  5.11983E+03 -3.08395E+02  6.96316E+03 -4.62175E+03  3.70914E+03 -4.98256E+03 -1.24660E+02
 -5.30434E+03 -4.63989E+03 -1.69702E+03 -4.73860E+03  1.75769E+03 -4.36821E+03  2.51200E+03 -2.88783E+03
  2.83336E+03  4.50264E+02 -2.69772E+02  8.71425E+02  1.22718E+03 -1.66260E+02  2.36973E+02 -1.34451E+03
  3.23430E+03 -9.27655E+02  4.73024E+03  5.49499E+02  4.90772E+03  2.10567E+03  4.71742E+03  6.53310E+03
 -1.46321E+03  7.41803E+03 -6.96441E+03  6.11402E+03 -8.85862E+03  1.01231E+03 -7.28701E+03 -2.35326E+03
 -3.92109E+03 -5.86156E+03 -4.24969E+02 -4.28180E+03  1.86511E+03 -1.65159E+03  1.27361E+03 -2.57285E+03
  8.76371E+02 -1.17985E+03  2.13841E+03 -2.33647E+03  3.70218E+03 -1.22010E+03  3.27719E+03  7.13685E+02
  4.24139E+03  1.35219E+03  9.28043E+02  2.90663E+03 -7.78271E+02  2.05399E+03 -4.42726E+03  2.94045E+03
 -4.24191E+03 -9.96513E+02 -1.52841E+03 -3.07120E+03  3.06464E+02 -3.98795E+03  2.68955E+03 -4.91312E+03
  3.89494E+03 -3.22897E+03  5.97125E+03  4.63956E+02  4.05096E+03  3.77795E+03  1.18785E+03  5.42482E+03
 -1.42112E+03  5.60241E+03 -3.00634E+03  1.61870E+03 -1.34923E+03 -3.97363E+02 -3.06069E+02 -1.90668E+02
 -5.77210E+02  5.10822E+02 -7.90455E+02  2.57469E+03 -2.58235E+03  6.27527E+02 -3.59335E+03 -6.70687E+02
 -1.27387E+03 -3.90616E+03  2.82445E+02 -4.53506E+03  2.63965E+03 -4.13705E+03  2.41717E+03 -1.35356E+03
  3.19403E+03  1.91857E+03  6.79391E+02  2.47817E+03 -7.00338E+02  3.90803E+03 -2.55585E+03  2.32441E+03
 -2.97160E+03  5.04480E+02 -2.28791E+03 -1.86161E+03  4.74863E+02 -2.56686E+03  1.21636E+03 -2.62148E+03
  2.12608E+03 -1.21557E+03  1.41721E+03 -3.41320E+02  9.07587E+02  1.52726E+03  1.24341E+03  7.42170E+02
  1.65664E+03  8.28707E+02  8.37766E+02  8.82478E+02  1.31045E+03  1.88295E+03  1.38406E+03  1.53917E+03
 -9.62363E+02  2.70464E+03 -1.54439E+03  3.24979E+03 -2.04210E+03  7.53571E+02 -2.79624E+03  2.52153E+02
 -1.81072E+03 -2.98093E+03  3.13260E+02 -3.47593E+03  1.65570E+03 -2.24006E+03  2.41375E+03 -1.10135E+03
  2.48674E+03  1.49209E+03  1.90423E+02  2.14562E+03 -6.14718E+02  5.73164E+02 -5.48384E+02  4.75053E+01
 -6.20095E+02 -9.63051E+02  1.14688E+03 -1.41855E+03  1.32331E+03 -8.00268E+02  7.61502E+02  3.95638E+02
  3.33204E+02  1.20644E+02  8.95536E+02 -2.02845E+02 -2.25757E+02  8.80043E+02  1.49968E+03  3.31142E+02
 -1.80819E+02 -4.76198E+02  1.62792E+03  7.79522E+02  9.63783E+02  2.03885E+03 -2.25623E+02  2.66340E+03
 -8.97009E+02  4.20315E+02 -1.96261E+03  5.36060E+01 -1.98750E+03 -8.66131E+02  9.60648E+01 -6.86874E+02
 -1.69125E+02 -8.36756E+02  1.89784E+02 -2.37816E+02  4.24315E+02  1.00554E+03 -8.11087E+02  9.31032E+02
 -8.58837E+02  5.01519E+02 -1.11674E+03 -7.15993E+02  3.12218E+01 -1.33406E+03  6.74404E+01 -1.32967E+03
  2.16005E+02 -1.06783E+03  6.74865E+02  2.50857E+02  1.19352E+03  3.05938E+02  4.57133E+02  7.92018E+02
 -5.33510E+01 -3.33421E+02 -6.51345E+02 -1.54367E+01  6.94385E+02 -3.26988E+02  1.88158E+03 -2.38596E+02
  8.38828E+01  6.70216E+02  2.18767E+03  5.59231E+02  7.27953E+02  7.74199E+02  5.23966E+01  1.19369E+03
 -8.79136E+02  1.03852E+02 -7.82939E+02 -1.24080E+02 -6.80892E+02 -1.39436E+03  5.81721E+02 -6.77109E+02
  1.32891E+03 -7.07901E+02  3.98500E+02  7.42368E+02  2.79820E+02  1.31466E+03 -2.81055E+02  1.43243E+03
  1.27660E+02  1.07604E+03  1.95154E+01  2.42835E+02  1.04712E+02  5.45680E+02 -8.14186E+02  2.59693E+02
 -1.09136E+02  8.41347E+02 -1.77939E+03  4.88613E+02 -1.18395E+03  1.59840E+02 -1.92693E+03 -5.72298E+02
 -9.35533E+02 -1.14185E+03  4.37602E+02 -2.09213E+03  5.57341E+02 -1.63841E+03  2.15792E+03 -8.10261E+02
  1.34917E+03 -3.17676E+02  7.75382E+02  1.37359E+03 -8.77014E+02  1.09540E+03 -3.30120E+02  8.19077E+02
 -4.76884E+02  7.62362E+02 -3.16280E+02  3.89160E+02 -1.64405E+02  4.96321E+02 -3.65443E+02  2.95824E+02
 -1.26713E+03  6.96327E+00 -8.78979E+02  2.98603E+02  1.93811E+02 -5.42467E+02 -3.96952E+02 -5.60522E+02
  1.53103E+03 -2.17030E+02 -1.84112E+02  3.23666E+02  1.08529E+03  8.78146E+02 -6.73070E+02  1.09568E+03
 -4.43393E+02  2.17206E+03 -9.70905E+02  8.71475E+02 -1.30208E+03  6.10968E+01 -5.67164E+02 -3.69406E+02
  3.23220E+01 -6.28224E+02 -4.36344E+01 -4.00472E+02  2.43654E+02 -5.04157E+02 -2.07649E+02  1.89165E+02
  9.47651E+01 -5.92073E+01  3.68467E+02  4.23508E+02  1.83981E+02 -3.36550E+02 -6.68792E+02 -3.67916E+00
  5.47849E+02 -1.20159E+01 -4.06184E+02  4.18734E+02 -3.98905E+02  1.03127E+02  1.01559E+03  3.93362E+02
 -2.37115E+02  3.60128E+02 -5.75162E+02  1.78237E+02 -3.50070E+02 -1.74033E+02 -3.59298E+02 -7.54349E+02
  1.00310E+02 -6.85417E+02  2.43472E+01  3.01106E+02  3.75719E+02 -4.79850E+02  6.82545E+02  1.92926E+02
  4.50793E+02  9.98525E+01 -1.06241E+02  6.83068E+02  4.59205E+02  2.94832E+02 -4.45655E+02 -1.01332E+02
  2.26664E+02 -3.62581E+01 -1.01682E+03  7.24064E+02 -3.17256E+02  2.17113E+02 -9.27689E+02 -2.69947E+01
 -1.23075E+03  6.90696E+02  7.48032E+01 -6.78079E+02  1.11453E+03 -1.01783E+03  6.78687E+02 -4.44381E+02
  6.16745E+02 -5.35093E+01 -3.36703E+02  7.15614E+02  3.09627E+01  4.97086E+02  2.28804E+02  6.36323E+02
