 $NMID ID='MM_0lb_SNR400_15hz_g55_8.RAW', FMTDAT='(8E13.5)'
 TRAMP=1., VOLUME=1. $END
  3.09641E+05  9.58648E+02  3.37927E+05  2.50403E+05  8.47590E+04  3.37622E+05 -1.32714E+05  2.51436E+05
 -1.90478E+05  8.31088E+04 -1.11976E+05 -3.23594E+04  1.05495E+03 -5.07010E+04  5.30559E+04 -5.72496E+02
  3.49338E+04  5.24083E+04 -1.66260E+04  7.53010E+04 -6.10726E+04  6.38968E+04 -8.48732E+04  3.21074E+04
 -8.08967E+04 -1.14599E+04 -5.71156E+04 -5.10134E+04 -1.53399E+04 -6.94952E+04  2.76804E+04 -4.60978E+04
  4.00108E+04  4.00830E+03  1.58153E+04  4.78106E+04 -3.37636E+04  4.75665E+04 -6.68039E+04 -3.29967E+02
 -5.35195E+04 -5.71231E+04 -6.29977E+03 -7.69329E+04  3.45940E+04 -5.55018E+04  4.80176E+04 -1.67110E+04
  4.36182E+04  1.10131E+04  3.19434E+04  2.52382E+04  1.51788E+04  2.97668E+04 -5.76337E+03  2.70136E+04
 -2.24483E+04  1.17406E+04 -1.83844E+04 -5.54386E+03  5.17770E+03 -8.02063E+03  2.24874E+04  1.24351E+04
  6.99966E+03  3.52302E+04 -3.27907E+04  3.60688E+04 -6.30215E+04  1.70172E+03 -5.74428E+04 -4.35124E+04
 -1.24081E+04 -6.32989E+04  3.97488E+04 -4.55105E+04  5.82404E+04 -2.28367E+03  3.39073E+04  3.25046E+04
 -6.15987E+03  3.62719E+04 -2.99191E+04  1.65039E+04 -3.07735E+04 -4.64143E+03 -1.70552E+04 -1.12710E+04
 -8.95297E+03 -1.31268E+04 -1.12831E+03 -1.84163E+04  8.01839E+03 -2.31404E+04  1.52057E+04 -1.34865E+04
  1.15363E+04  4.93820E+03 -8.78970E+03  1.24933E+04 -2.00984E+04 -4.49011E+03 -8.68665E+03 -3.34494E+04
  2.31143E+04 -4.32229E+04  4.77965E+04 -2.02065E+04  4.48586E+04  1.97125E+04  1.60875E+04  4.36561E+04
 -1.59787E+04  3.33747E+04 -2.52506E+04  1.37215E+03 -1.00717E+04 -2.73957E+04  2.08235E+04 -3.33346E+04
  4.16575E+04 -9.09017E+03  3.49208E+04  2.32864E+04  1.80444E+04  4.69729E+04 -7.91561E+03  5.07995E+04
 -3.18039E+04  3.32556E+04 -4.13647E+04  9.72026E+03 -4.32326E+04 -1.68682E+04 -2.35714E+04 -3.79944E+04
  8.01688E+03 -3.79058E+04  3.14649E+04 -1.47945E+04  2.90081E+04  1.13027E+04  3.92208E+03  1.88313E+04
 -1.33187E+04  8.26591E+03 -1.04265E+04 -7.97802E+03  5.58577E+03 -1.09444E+04  1.80463E+04  5.76083E+03
  1.32663E+04  2.17228E+04 -5.45031E+03  2.46111E+04 -2.21690E+04  1.18487E+04 -2.74289E+04 -5.16285E+03
 -2.01442E+04 -1.73177E+04 -8.18644E+03 -2.03382E+04  3.75855E+03 -1.90693E+04  1.59792E+04 -1.82421E+04
  2.59831E+04 -1.23845E+04  3.22966E+04  2.99502E+03  2.35605E+04  1.97594E+04  4.24945E+03  3.62229E+04
 -1.81395E+04  3.01301E+04 -2.77925E+04  1.07950E+04 -2.08259E+04 -1.04359E+04 -4.37228E+03 -1.37183E+04
  1.98562E+03 -2.61255E+03 -4.69087E+03  6.75379E+03 -1.59084E+04  5.29454E+03 -1.62095E+04 -7.01034E+03
 -9.75100E+03 -1.90368E+04  5.36680E+03 -2.33907E+04  1.49469E+04 -1.61256E+04  1.80551E+04 -1.05278E+03
  1.08767E+04  1.24978E+04 -1.42798E+03  1.89406E+04 -1.26691E+04  1.03744E+04 -1.90906E+04 -4.03756E+03
 -1.37131E+04 -1.66758E+04 -1.48958E+03 -2.33765E+04  1.02847E+04 -1.82666E+04  1.91225E+04 -8.79511E+03
  1.75658E+04  5.71759E+02  1.26835E+04  4.96475E+03  6.68435E+03  5.46375E+02  9.21538E+03 -9.53055E+02
  1.75951E+04  2.38595E+03  1.87221E+04  1.45780E+04  1.22783E+04  2.98381E+04 -2.82508E+03  3.43585E+04
 -1.94556E+04  2.75317E+04 -3.12304E+04  1.31292E+04 -3.31883E+04 -2.95627E+03 -2.70970E+04 -1.91979E+04
 -1.09104E+04 -2.69872E+04  8.61038E+03 -2.45778E+04  2.12051E+04 -1.29524E+04  1.83187E+04  5.94188E+03
  7.38823E+03  1.37775E+04 -9.45961E+03  1.25803E+04 -1.55809E+04  2.31813E+03 -1.20214E+04 -1.00989E+04
 -2.10177E+02 -1.47532E+04  7.61172E+03 -1.18764E+04  1.02880E+04 -1.14278E+03  2.16303E+03  6.16274E+03
 -6.23903E+03  2.52808E+03 -5.41322E+03 -6.02165E+03 -5.39208E+02 -1.39361E+04  1.01422E+04 -1.38449E+04
  1.64563E+04 -7.18344E+03  1.78017E+04  2.80246E+03  1.49139E+04  1.24008E+04  7.03941E+03  2.00709E+04
 -3.02378E+03  2.18243E+04 -1.33881E+04  1.38988E+04 -1.56386E+04  3.08656E+03 -1.09282E+04 -3.44874E+03
 -4.91539E+03 -5.14889E+03 -3.86280E+02  9.32355E+02 -1.70149E+03  2.35288E+03 -5.15779E+03  4.67424E+03
 -1.04712E+04 -2.24840E+02 -1.08945E+04 -9.31973E+03 -4.71536E+03 -1.42846E+04  4.68586E+03 -1.08656E+04
  9.47231E+03 -4.59333E+03  6.38756E+03  3.04772E+03 -2.40690E+02  4.52193E+03 -5.29855E+03 -3.02887E+02
 -4.47735E+03 -6.99463E+03 -8.71169E+02 -1.05985E+04  5.65764E+03 -1.12907E+04  1.35395E+04 -5.57919E+03
  1.69908E+04  1.39362E+03  1.12158E+04  9.12211E+03  2.71863E+03  1.24975E+04 -7.12180E+03  1.14756E+04
 -9.02800E+03  3.52109E+03 -4.60278E+03 -1.98827E+03  2.07738E+03 -2.97374E+03  6.45095E+03 -1.12451E+03
  4.91981E+03  5.19694E+03  8.68961E+02  8.38692E+03 -6.27623E+03  8.70959E+03 -1.09857E+04  2.61344E+03
 -7.12783E+03 -5.33974E+03  3.78454E+02 -8.69705E+03  5.65862E+03 -4.24859E+03  5.57974E+03  1.62114E+03
  1.03203E+03  5.97005E+03 -5.67693E+03  6.91495E+03 -7.91138E+03  3.06505E+03 -7.65149E+03 -2.33495E+03
 -5.40458E+03 -9.84569E+03  2.22483E+03 -1.08014E+04  9.53651E+03 -6.66191E+03  9.54309E+03  1.47701E+03
  6.60456E+03  7.81398E+03 -1.13625E+03  1.01235E+04 -7.22844E+03  5.30886E+03 -7.96819E+03 -9.62812E+02
 -6.83336E+03 -6.83432E+03 -1.94556E+03 -7.29235E+03  3.80478E+03 -6.03320E+03  4.58104E+03 -3.18156E+03
  3.61546E+03  6.24103E+02 -9.56710E+02  1.83161E+03  3.29459E+01 -1.17600E+03  1.09061E+03 -3.35498E+03
  6.87049E+03 -1.61258E+03  8.89948E+03  9.60070E+02  8.67021E+03  5.26588E+03  7.21929E+03  1.18250E+04
 -2.72502E+03  1.28384E+04 -1.19504E+04  9.28799E+03 -1.50135E+04  2.00665E+03 -1.18172E+04 -4.63523E+03
 -6.67136E+03 -9.79662E+03  4.82438E+00 -8.55149E+03  3.18037E+03 -3.86978E+03  2.83795E+03 -2.97290E+03
  2.43490E+03 -1.71476E+03  2.37414E+03 -2.60880E+03  4.12729E+03 -2.05432E+03  4.63591E+03 -2.10357E+02
  6.15951E+03  2.01162E+03  2.51919E+03  5.03569E+03 -2.23720E+03  5.39463E+03 -6.82506E+03  4.41704E+03
 -7.60283E+03 -8.30227E+02 -4.08523E+03 -5.12583E+03 -2.42981E+02 -8.08179E+03  4.00893E+03 -8.81154E+03
  8.82358E+03 -4.45756E+03  1.04760E+04  1.03514E+03  7.37771E+03  6.83906E+03  1.39645E+03  9.23793E+03
 -3.60204E+03  8.71504E+03 -5.79025E+03  2.96025E+03 -3.26163E+03 -9.86057E+02 -1.88658E+03 -1.05584E+03
 -1.16672E+03  1.11600E+02 -8.37933E+02  2.66265E+03 -3.42238E+03  1.58517E+03 -6.09117E+03 -7.51740E+02
 -2.77984E+03 -5.81224E+03  1.33310E+02 -7.38890E+03  4.50580E+03 -7.59341E+03  6.79907E+03 -1.61676E+03
  6.86041E+03  3.91363E+03  3.16050E+03  6.29116E+03 -1.56652E+03  7.15544E+03 -5.02738E+03  4.37168E+03
 -6.81803E+03  3.44882E+02 -5.35579E+03 -4.52739E+03 -8.29443E+02 -5.93682E+03  2.75171E+03 -4.41711E+03
  4.39333E+03 -2.16194E+03  3.17423E+03  1.03324E+03  7.10277E+02  2.72618E+03  8.54519E+02  5.50544E+02
  2.08992E+03  5.53668E+02  1.78625E+03  1.35979E+03  2.09464E+03  2.63134E+03  1.95974E+03  3.46621E+03
 -2.16407E+03  4.98281E+03 -4.15506E+03  6.18340E+03 -6.19649E+03  2.01621E+03 -7.32996E+03 -2.10721E+03
 -3.17234E+03 -6.56941E+03  1.15774E+03 -8.00843E+03  3.81370E+03 -4.94373E+03  5.90006E+03 -1.18574E+03
  4.90734E+03  2.62293E+03  1.67214E+03  4.11808E+03 -1.43982E+03  2.56394E+03 -2.52512E+03 -5.43227E+02
 -1.24763E+03 -2.17445E+03  1.77839E+03 -2.52693E+03  2.83516E+03 -1.18333E+03  2.68013E+03  8.67332E+02
  1.58156E+03  4.86226E+02  1.17011E+03  1.64938E+02 -6.70244E+02  1.35064E+03  1.22502E+03 -3.19950E+02
  1.02562E+03 -4.41782E+02  3.10599E+03  5.45548E+02  9.34609E+02  3.95171E+03 -6.91729E+02  4.86817E+03
 -3.64872E+03  2.59217E+03 -4.24920E+03  6.86331E+02 -3.93998E+03 -1.18631E+03 -7.51364E+02 -2.61840E+03
  7.53350E+02 -2.50419E+03  1.83366E+03 -1.36383E+03  1.02390E+03  1.51583E+03 -1.02522E+03  1.96215E+03
 -2.56968E+03  1.41108E+03 -2.60885E+03 -1.85332E+03 -1.36740E+03 -3.58782E+03  3.44716E+02 -2.94004E+03
  1.34796E+03 -1.88259E+03  1.80394E+03 -5.44485E+02  1.64286E+03  9.47445E+02  1.13548E+03  1.62573E+03
 -9.62735E+02  6.02094E+02 -2.00316E+03 -1.46274E+03 -1.99124E+01 -1.92632E+03  3.27957E+03 -1.60473E+03
  3.14167E+03  1.08181E+03  3.99299E+03  1.79185E+03  1.69742E+03  3.41405E+03 -9.78335E+02  3.64154E+03
 -2.76844E+03  1.10666E+03 -2.13495E+03 -6.86259E+02 -1.82444E+03 -2.60249E+03  6.91531E+02 -1.97465E+03
  1.92393E+03 -3.91152E+02  1.12166E+03  1.00881E+03  6.07452E+02  2.53339E+03 -7.49831E+01  1.87902E+03
 -1.32925E+03  1.59475E+03 -1.11631E+03  7.44185E+02 -6.51217E+02  6.73135E+02 -1.36804E+03  1.80623E+03
 -8.97453E+02  1.62284E+03 -3.67275E+03  1.06385E+03 -3.62590E+03  2.74756E+02 -4.44378E+03 -2.58489E+03
 -2.33279E+03 -5.06986E+03  1.91444E+02 -5.00266E+03  2.78022E+03 -4.22607E+03  5.35738E+03 -1.82637E+03
  4.34840E+03  1.07748E+02  3.12520E+03  3.18044E+03 -6.02542E+02  3.33465E+03 -1.73212E+03  2.79569E+03
 -1.98616E+03  1.63195E+03 -1.05749E+03 -2.67870E+02 -9.58729E+01  1.21730E+02 -7.63808E+02 -4.90078E+02
 -1.28726E+03  4.69001E+02 -1.59267E+03 -1.90467E+02  1.18419E+02 -1.00572E+03 -5.45479E+02 -1.73899E+03
  2.33582E+03 -8.55532E+02  1.04066E+03 -2.15581E+02  2.32370E+03  2.07576E+03 -9.08625E+01  3.26841E+03
 -1.93572E+03  4.13639E+03 -3.31650E+03  2.29991E+03 -4.05403E+03  6.09303E+01 -2.76022E+03 -1.90739E+03
 -1.35179E+03 -3.39576E+03  4.10937E+02 -2.92301E+03  2.21121E+03 -1.19603E+03  1.53630E+03  4.47059E+02
  1.62479E+03  6.62218E+02  9.31166E+01  9.18343E+02 -5.36020E+02 -7.31750E+02  3.84360E+02 -2.42891E+02
  1.70408E+03  1.93830E+02  1.14352E+03  1.24334E+03  2.10535E+02  1.29624E+03  1.00180E+02  1.19117E+03
 -1.30143E+03  1.61476E+03 -1.58100E+03  3.03588E+02 -1.68164E+03 -1.49737E+03 -2.93198E+02 -2.43469E+03
  1.19390E+03 -2.44995E+03  1.77594E+03  3.69880E+01  1.97395E+03 -1.95095E+02  1.26998E+03  2.04460E+03
  6.58286E+02  1.55417E+03 -3.39638E+02  1.64390E+03 -1.52523E+03  7.77050E+02 -1.24363E+03  7.81821E+02
 -5.45953E+02 -1.62003E+02 -3.64757E+02  3.77962E+02 -1.63458E+03  3.72567E+02 -1.13903E+03 -4.74098E+02
 -1.83694E+03 -6.37125E+02 -4.63513E+02 -1.73908E+03  1.29239E+03 -2.48656E+03  1.07088E+03 -1.11347E+03
  1.72514E+03 -2.06357E+02  3.03163E+01  1.55152E+03 -5.60372E+00  1.71782E+03 -1.32921E+03  1.00526E+03
