 $NMID ID='MM_0lb_SNR400_9hz_g50_88.RAW', FMTDAT='(8E13.5)'
 TRAMP=1., VOLUME=1. $END
  3.10668E+05 -3.68465E+02  3.38070E+05  2.50446E+05  8.45337E+04  3.38888E+05 -1.32988E+05  2.51753E+05
 -1.91068E+05  8.35499E+04 -1.12345E+05 -3.29984E+04 -1.11453E+02 -5.02063E+04  5.37134E+04 -1.15983E+03
  3.53327E+04  5.31712E+04 -1.66402E+04  7.64754E+04 -6.13180E+04  6.38266E+04 -8.55857E+04  3.20227E+04
 -8.23432E+04 -1.09034E+04 -5.92249E+04 -5.18108E+04 -1.49022E+04 -7.14865E+04  2.81908E+04 -4.61067E+04
  4.07646E+04  3.85431E+03  1.77100E+04  4.84027E+04 -3.51334E+04  4.83891E+04 -6.81550E+04 -2.22702E+02
 -5.43988E+04 -5.78196E+04 -7.82075E+03 -7.90872E+04  3.46716E+04 -5.61573E+04  4.91651E+04 -1.86876E+04
  4.48667E+04  1.16604E+04  3.32101E+04  2.79526E+04  1.63938E+04  3.04467E+04 -6.04060E+03  2.76115E+04
 -2.21296E+04  1.17948E+04 -1.74340E+04 -5.95007E+03  6.32397E+03 -7.07826E+03  2.35517E+04  1.38037E+04
  5.97566E+03  3.72031E+04 -3.26292E+04  3.64820E+04 -6.55447E+04  2.49310E+03 -5.93506E+04 -4.41569E+04
 -1.29477E+04 -6.55510E+04  4.10991E+04 -4.73623E+04  6.06052E+04 -2.15092E+03  3.65385E+04  3.38604E+04
 -5.43000E+03  3.95956E+04 -3.18476E+04  1.92049E+04 -3.38041E+04 -3.75174E+03 -1.98152E+04 -1.14719E+04
 -9.51580E+03 -1.48833E+04 -1.23325E+03 -1.97980E+04  9.24125E+03 -2.26177E+04  1.60677E+04 -1.18311E+04
  1.03281E+04  7.09277E+03 -1.06726E+04  1.36151E+04 -2.33842E+04 -6.82383E+03 -9.54366E+03 -3.69341E+04
  2.55017E+04 -4.65648E+04  5.23256E+04 -2.12134E+04  4.94851E+04  2.06927E+04  1.74224E+04  4.66231E+04
 -1.70127E+04  3.53735E+04 -2.71193E+04  3.46404E+03 -1.11846E+04 -2.95376E+04  2.14374E+04 -3.69570E+04
  4.42837E+04 -1.09312E+04  4.10900E+04  2.50567E+04  2.11757E+04  5.08330E+04 -8.95034E+03  5.63095E+04
 -3.53524E+04  3.84494E+04 -4.66586E+04  1.09546E+04 -4.75029E+04 -1.87536E+04 -2.63309E+04 -4.27486E+04
  7.50565E+03 -4.22138E+04  3.41610E+04 -1.71935E+04  3.20469E+04  1.11001E+04  5.78011E+03  2.13108E+04
 -1.43415E+04  9.89263E+03 -1.17506E+04 -7.56999E+03  5.21752E+03 -1.11946E+04  1.84996E+04  5.59238E+03
  1.51292E+04  2.29924E+04 -5.23644E+03  2.65674E+04 -2.42567E+04  1.38304E+04 -3.18775E+04 -2.82361E+03
 -2.51528E+04 -1.77813E+04 -1.17146E+04 -2.46016E+04  4.95237E+03 -2.54666E+04  1.97466E+04 -2.21120E+04
  3.22102E+04 -1.48414E+04  3.89429E+04  5.70103E+03  2.73174E+04  2.40649E+04  4.77230E+03  4.15134E+04
 -1.93971E+04  3.35777E+04 -2.96782E+04  1.19056E+04 -2.27191E+04 -1.02802E+04 -4.82361E+03 -1.24869E+04
  9.45850E+02 -1.56083E+03 -7.78966E+03  8.59500E+03 -2.07786E+04  5.40510E+03 -1.98750E+04 -1.02909E+04
 -1.12946E+04 -2.39242E+04  6.71539E+03 -2.79191E+04  1.87677E+04 -1.96643E+04  2.28184E+04 -1.51400E+03
  1.44942E+04  1.61700E+04 -9.56186E+02  2.29542E+04 -1.55318E+04  1.32282E+04 -2.38160E+04 -5.17850E+03
 -1.71873E+04 -2.04173E+04 -2.37979E+03 -2.82127E+04  1.24818E+04 -2.35220E+04  2.22966E+04 -1.16682E+04
  2.28237E+04 -6.81632E+02  1.63413E+04  5.76194E+03  8.30568E+03  1.40697E+03  1.25205E+04 -1.87434E+03
  2.17775E+04  3.19789E+03  2.57763E+04  1.84502E+04  1.81024E+04  3.78936E+04 -2.16262E+03  4.40335E+04
 -2.54723E+04  3.70404E+04 -4.20224E+04  1.96904E+04 -4.53824E+04 -3.02354E+03 -3.60418E+04 -2.68661E+04
 -1.40380E+04 -3.71180E+04  1.29495E+04 -3.28190E+04  2.86163E+04 -1.54302E+04  2.45689E+04  8.18475E+03
  8.15074E+03  1.90310E+04 -1.10290E+04  1.59143E+04 -1.99773E+04  2.14140E+03 -1.48672E+04 -1.29635E+04
 -7.26567E+02 -1.90876E+04  1.01982E+04 -1.35306E+04  1.34141E+04 -8.05890E+02  3.73818E+03  9.97030E+03
 -8.45150E+03  3.71658E+03 -9.29407E+03 -7.70751E+03 -2.43879E+03 -1.81140E+04  1.16772E+04 -1.92661E+04
  2.28672E+04 -1.14145E+04  2.66342E+04  3.81493E+03  2.37242E+04  1.84889E+04  1.01359E+04  2.91903E+04
 -5.82411E+03  3.15591E+04 -2.01669E+04  1.86919E+04 -2.32700E+04  4.34559E+03 -1.49911E+04 -5.88384E+03
 -6.40451E+03 -6.11773E+03 -1.26776E+03  5.40088E+02 -3.54546E+03  2.68681E+03 -7.98343E+03  5.78890E+03
 -1.47441E+04 -9.89950E+02 -1.43281E+04 -1.10589E+04 -5.83915E+03 -1.97859E+04  6.73247E+03 -1.49578E+04
  1.28487E+04 -6.73650E+03  8.75235E+03  3.83454E+03  2.99808E+01  6.65213E+03 -8.15863E+03  3.32075E+02
 -7.78829E+03 -1.07156E+04 -8.77546E+02 -1.57837E+04  9.86679E+03 -1.65180E+04  1.96507E+04 -8.71287E+03
  2.43620E+04  2.43354E+03  1.72660E+04  1.41973E+04  3.00165E+03  1.94425E+04 -1.03451E+04  1.60320E+04
 -1.22695E+04  4.80040E+03 -6.66794E+03 -3.36307E+03  1.95926E+03 -3.60563E+03  8.48794E+03 -1.23094E+03
  6.92521E+03  6.48138E+03  3.48690E+02  1.23584E+04 -9.25820E+03  1.31008E+04 -1.65473E+04  3.09266E+03
 -1.03932E+04 -8.89147E+03 -1.44777E+02 -1.42793E+04  9.03633E+03 -7.15826E+03  9.84197E+03  3.49832E+03
  2.53820E+03  9.97573E+03 -7.65340E+03  1.23692E+04 -1.34686E+04  4.95439E+03 -1.41382E+04 -4.84087E+03
 -8.28205E+03 -1.56738E+04  3.79473E+03 -1.82244E+04  1.51502E+04 -1.07033E+04  1.71999E+04  3.02657E+03
  9.68450E+03  1.26007E+04 -1.55019E+03  1.64029E+04 -1.14199E+04  8.91758E+03 -1.32082E+04 -1.73995E+03
 -1.05586E+04 -1.02219E+04 -1.60997E+03 -1.18604E+04  6.09266E+03 -9.75497E+03  8.30727E+03 -4.07733E+03
  4.86816E+03  2.06012E+03 -1.11425E+03  2.00046E+03 -4.60038E+02 -2.81895E+03  2.01522E+03 -7.70547E+03
  1.19681E+04 -4.96143E+03  1.58272E+04  2.73168E+03  1.58709E+04  1.10911E+04  1.02582E+04  2.04500E+04
 -4.33939E+03  2.41500E+04 -1.95946E+04  1.80355E+04 -2.56318E+04  3.52110E+03 -2.11491E+04 -9.10297E+03
 -1.07346E+04 -1.74100E+04 -1.13013E+03 -1.43555E+04  5.46432E+03 -8.24120E+03  5.30543E+03 -4.18215E+03
  3.95855E+03 -3.30638E+03  2.96853E+03 -3.49507E+03  5.39098E+03 -2.06908E+03  8.15692E+03 -1.39362E+03
  1.11107E+04  2.14029E+03  6.10212E+03  9.45879E+03 -2.35268E+03  1.06424E+04 -1.18620E+04  8.75662E+03
 -1.56000E+04 -1.44364E+03 -9.68087E+03 -1.09912E+04 -1.01481E+03 -1.56167E+04  8.98998E+03 -1.52168E+04
  1.68660E+04 -9.68071E+03  2.03132E+04  2.13033E+03  1.34830E+04  1.39915E+04  2.17198E+03  1.71966E+04
 -7.05916E+03  1.51127E+04 -1.08693E+04  4.52297E+03 -7.43222E+03 -1.37950E+03 -3.72058E+03 -2.36033E+03
 -8.38785E+02 -4.64068E+02 -2.59711E+03  3.21260E+03 -5.85471E+03  2.64529E+03 -1.04052E+04 -1.65740E+03
 -7.77434E+03 -1.03296E+04 -6.20148E+02 -1.44958E+04  9.48356E+03 -1.35653E+04  1.53300E+04 -3.94564E+03
  1.47649E+04  7.30601E+03  6.16723E+03  1.36625E+04 -3.47124E+03  1.44884E+04 -1.11163E+04  9.85515E+03
 -1.41481E+04  9.62376E+02 -1.06291E+04 -8.11639E+03 -1.49168E+03 -1.33297E+04  5.95146E+03 -9.69118E+03
  1.00090E+04 -2.61686E+03  6.11180E+03  3.07277E+03  2.47224E+03  4.99333E+03  1.67423E+03  1.45124E+03
  2.87198E+03  1.86359E+03  3.63288E+03  1.57763E+03  4.30124E+03  5.21038E+03  4.01957E+03  8.33483E+03
 -3.66695E+03  1.19922E+04 -9.79843E+03  1.19158E+04 -1.60148E+04  2.12659E+03 -1.58729E+04 -6.58872E+03
 -7.64968E+03 -1.53415E+04  2.11349E+03 -1.59144E+04  8.38634E+03 -1.10323E+04  1.25424E+04 -2.81092E+03
  1.00702E+04  5.99860E+03  1.91097E+03  8.18324E+03 -4.19007E+03  5.07549E+03 -5.29550E+03 -7.92053E+02
 -3.33449E+03 -6.44333E+03  3.74615E+03 -6.74552E+03  6.62763E+03 -2.98465E+03  6.25962E+03  7.47627E+02
  3.68279E+03  2.81538E+03  1.91510E+03  3.03835E+03 -1.32897E+03  2.67134E+03  1.85329E+03 -1.39084E+03
  1.82978E+03 -6.09002E+02  7.12418E+03  1.56863E+03  3.07201E+03  7.37942E+03 -1.70230E+03  1.02499E+04
 -7.25485E+03  6.97781E+03 -1.06318E+04  2.26265E+03 -8.50335E+03 -3.44144E+03 -3.52448E+03 -5.99755E+03
  1.30889E+02 -6.03629E+03  4.52619E+03 -2.94731E+03  3.23154E+03  2.55587E+03 -1.59825E+03  4.16375E+03
 -5.94098E+03  2.81690E+03 -7.19916E+03 -3.09228E+03 -3.54117E+03 -7.83332E+03  1.32342E+03 -8.83364E+03
  4.83792E+03 -5.19906E+03  5.87995E+03 -9.76631E+02  5.90034E+03  1.90680E+03  4.75071E+02  4.70618E+03
 -2.62766E+03  1.43836E+03 -3.82903E+03 -3.43793E+03  8.06126E+02 -6.42603E+03  7.04273E+03 -5.16772E+03
  9.85825E+03  1.58895E+03  9.46814E+03  6.22830E+03  3.26940E+03  9.76547E+03 -4.05336E+03  9.71321E+03
 -8.12105E+03  4.42941E+03 -8.44826E+03 -8.89333E+02 -4.20061E+03 -6.63656E+03  1.68821E+03 -6.29677E+03
  5.51905E+03 -3.11190E+03  4.51550E+03  2.97220E+03  1.26137E+03  5.17099E+03 -8.74920E+02  5.17251E+03
 -1.91522E+03  3.70027E+03 -2.39150E+03  5.37573E+02 -8.57379E+02  4.80025E+02 -6.35778E+02  2.06027E+03
 -2.21657E+03  4.10729E+03 -7.31224E+03  4.59813E+03 -1.00123E+04 -8.98112E+02 -1.11654E+04 -6.63623E+03
 -5.93718E+03 -1.40071E+04  3.42483E+03 -1.53809E+04  9.55016E+03 -1.21022E+04  1.50424E+04 -4.31088E+03
  1.28879E+04  2.72051E+03  8.48762E+03  9.16131E+03  1.12348E+03  1.06672E+04 -4.29273E+03  7.47910E+03
 -6.27231E+03  2.19617E+03 -3.82350E+03 -1.05085E+03 -1.09253E+03 -1.11505E+03 -6.81308E+02  9.26269E+00
 -2.20085E+03 -1.98731E+02 -2.79481E+03  4.72348E+01 -9.88183E+02 -2.00586E+03 -4.74655E+02 -3.69925E+03
  4.28172E+03 -3.27673E+03  6.24382E+03 -5.31515E+02  7.59249E+03  5.59161E+03  2.40551E+03  1.01992E+04
 -5.67726E+03  1.20711E+04 -1.18069E+04  6.93115E+03 -1.33558E+04 -5.33233E+02 -9.68089E+03 -8.44542E+03
 -4.60853E+03 -1.12468E+04  2.42570E+03 -1.00174E+04  6.79868E+03 -5.46814E+03  7.26224E+03  4.89711E+01
  3.55954E+03  3.81571E+03 -1.98003E+02  2.76049E+03 -1.69276E+03 -6.66888E+02  1.09882E+02 -2.70642E+03
  3.01334E+03 -1.42534E+03  3.97586E+03  1.23976E+03  2.37962E+03  5.25539E+03 -6.18960E+02  5.57033E+03
 -4.49442E+03  5.66691E+03 -6.57329E+03  6.42675E+02 -5.88616E+03 -4.40716E+03 -1.18599E+03 -8.44340E+03
  5.78175E+03 -7.90740E+03  7.61603E+03 -2.00206E+03  8.02154E+03  1.79416E+03  4.81611E+03  6.65555E+03
  1.21548E+03  6.66154E+03 -2.69723E+03  4.78723E+03 -5.19553E+03  3.30626E+03 -3.88913E+03  4.96958E+02
 -2.30719E+03  3.41499E+02 -2.72907E+03  1.40591E+03 -3.83631E+03  1.31912E+03 -5.42030E+03 -7.60247E+02
 -5.09969E+03 -3.89699E+03 -7.75306E+02 -7.51770E+03  3.01531E+03 -7.30731E+03  5.84149E+03 -3.67736E+03
  6.50665E+03  8.10476E+02  3.83300E+03  5.05830E+03 -7.21243E+01  7.56749E+03 -5.73084E+03  5.07958E+03
