 $NMID ID='MM_0lb_SNR400_16hz_g40_39.RAW', FMTDAT='(8E13.5)'
 TRAMP=1., VOLUME=1. $END
  3.10238E+05 -3.66902E+02  3.37524E+05  2.50615E+05  8.46035E+04  3.37537E+05 -1.32543E+05  2.50349E+05
 -1.89815E+05  8.25143E+04 -1.11202E+05 -3.29122E+04  1.41630E+03 -5.06103E+04  5.39081E+04  1.91411E+02
  3.55209E+04  5.31187E+04 -1.68055E+04  7.58445E+04 -6.01888E+04  6.26221E+04 -8.34935E+04  3.11363E+04
 -7.96439E+04 -1.13344E+04 -5.66769E+04 -5.04672E+04 -1.43304E+04 -6.84618E+04  2.69941E+04 -4.53825E+04
  3.97004E+04  4.59235E+03  1.56601E+04  4.71903E+04 -3.37519E+04  4.57622E+04 -6.57973E+04 -4.93920E+02
 -5.26046E+04 -5.59182E+04 -6.51959E+03 -7.59253E+04  3.30939E+04 -5.36732E+04  4.68969E+04 -1.68261E+04
  4.27244E+04  1.09604E+04  3.15059E+04  2.50744E+04  1.58219E+04  2.87153E+04 -4.67931E+03  2.66546E+04
 -2.17714E+04  1.22795E+04 -1.91471E+04 -4.79647E+03  4.86654E+03 -7.94963E+03  2.15594E+04  1.15863E+04
  7.51947E+03  3.40501E+04 -3.10647E+04  3.47854E+04 -6.18736E+04  1.78437E+03 -5.55130E+04 -4.14425E+04
 -1.23772E+04 -6.16631E+04  3.83394E+04 -4.46859E+04  5.61691E+04 -2.44918E+03  3.22847E+04  3.07770E+04
 -6.70933E+03  3.37293E+04 -2.90910E+04  1.42401E+04 -2.86981E+04 -5.04569E+03 -1.51998E+04 -1.10604E+04
 -8.57640E+03 -1.20671E+04 -8.75964E+02 -1.72153E+04  7.14354E+03 -2.28687E+04  1.53210E+04 -1.37413E+04
  1.20570E+04  4.47220E+03 -6.61830E+03  1.31560E+04 -1.99629E+04 -2.72919E+03 -8.13090E+03 -3.14798E+04
  2.15252E+04 -4.13713E+04  4.54219E+04 -1.87285E+04  4.31202E+04  1.88872E+04  1.56044E+04  4.27734E+04
 -1.52950E+04  3.15506E+04 -2.38884E+04  1.20740E+03 -8.58757E+03 -2.65809E+04  2.09215E+04 -3.16288E+04
  3.88263E+04 -7.91581E+03  3.25608E+04  2.28989E+04  1.61617E+04  4.38331E+04 -8.10434E+03  4.70678E+04
 -2.96662E+04  3.14787E+04 -3.91522E+04  9.55501E+03 -3.97925E+04 -1.52938E+04 -2.27795E+04 -3.62246E+04
  6.60129E+03 -3.56392E+04  2.98218E+04 -1.29638E+04  2.75769E+04  1.03368E+04  2.89741E+03  1.84462E+04
 -1.32470E+04  7.70563E+03 -9.66062E+03 -7.51528E+03  6.21150E+03 -1.02688E+04  1.72130E+04  6.33435E+03
  1.31193E+04  2.19259E+04 -6.13963E+03  2.38845E+04 -2.17598E+04  1.06089E+04 -2.65176E+04 -4.93021E+03
 -1.80736E+04 -1.66867E+04 -6.96351E+03 -1.77960E+04  3.59709E+03 -1.60251E+04  1.35714E+04 -1.56325E+04
  2.28974E+04 -1.20896E+04  2.94594E+04  1.41502E+03  2.15273E+04  1.77348E+04  4.18110E+03  3.37257E+04
 -1.62176E+04  2.85420E+04 -2.69618E+04  9.99348E+03 -2.02882E+04 -1.04407E+04 -3.94853E+03 -1.35008E+04
  2.05804E+03 -3.86139E+03 -3.50710E+03  5.53662E+03 -1.45456E+04  5.43328E+03 -1.45866E+04 -6.26624E+03
 -8.84546E+03 -1.65877E+04  4.31487E+03 -2.03575E+04  1.39168E+04 -1.48901E+04  1.54108E+04 -1.16182E+03
  9.88584E+03  1.16805E+04 -1.09015E+03  1.71854E+04 -1.09498E+04  9.39881E+03 -1.64846E+04 -3.83669E+03
 -1.23957E+04 -1.49659E+04 -1.25738E+03 -2.05157E+04  9.14687E+03 -1.63844E+04  1.71742E+04 -7.71599E+03
  1.60752E+04  8.45610E+02  1.11064E+04  4.23183E+03  5.90044E+03  4.79862E+02  8.38413E+03 -1.79233E+03
  1.49434E+04  2.80990E+03  1.65418E+04  1.31440E+04  1.03323E+04  2.67300E+04 -2.86015E+03  2.98287E+04
 -1.73497E+04  2.34200E+04 -2.70412E+04  1.10446E+04 -2.82588E+04 -2.11488E+03 -2.28757E+04 -1.58430E+04
 -1.10431E+04 -2.35089E+04  7.84963E+03 -2.09121E+04  1.86091E+04 -1.15207E+04  1.74228E+04  4.57527E+03
  6.88995E+03  1.23089E+04 -7.95167E+03  1.08118E+04 -1.46337E+04  3.22949E+03 -1.08132E+04 -8.36927E+03
 -2.09321E+02 -1.29905E+04  6.76001E+03 -9.96403E+03  8.42761E+03 -1.24810E+03  1.82871E+03  5.52608E+03
 -6.13799E+03  2.01818E+03 -4.48278E+03 -5.41963E+03  3.13241E+02 -1.11038E+04  8.35774E+03 -1.16550E+04
  1.42874E+04 -6.13741E+03  1.45775E+04  2.93249E+03  1.24883E+04  1.10022E+04  5.61961E+03  1.67889E+04
 -2.08618E+03  1.80990E+04 -1.16090E+04  1.16955E+04 -1.31832E+04  3.00831E+03 -9.78910E+03 -2.27917E+03
 -4.78919E+03 -4.41449E+03 -1.44716E+03  1.94546E+03 -2.07436E+03  2.11435E+03 -4.83043E+03  3.88825E+03
 -9.09187E+03 -7.92592E+02 -9.46697E+03 -7.21248E+03 -3.95997E+03 -1.24755E+04  3.74091E+03 -9.78260E+03
  8.16203E+03 -3.95287E+03  5.91678E+03  3.07240E+03  5.83402E+02  3.66611E+03 -4.22561E+03 -5.75388E+02
 -4.41648E+03 -5.99289E+03 -1.21663E+03 -8.16080E+03  4.96619E+03 -9.01267E+03  1.12153E+04 -4.37164E+03
  1.34746E+04  9.85994E+02  9.83149E+03  7.91009E+03  1.91685E+03  1.06654E+04 -5.38133E+03  9.07519E+03
 -7.34201E+03  3.20481E+03 -4.24605E+03 -7.51054E+02  1.23104E+03 -2.79502E+03  5.25877E+03 -1.23079E+03
  4.59912E+03  3.48619E+03  1.23087E+03  7.21191E+03 -5.21611E+03  7.53610E+03 -9.21130E+03  2.92383E+03
 -5.58138E+03 -4.56320E+03  4.57327E+02 -7.36698E+03  4.04517E+03 -4.80056E+03  4.73861E+03  8.39784E+02
  6.49242E+02  4.24906E+03 -4.43543E+03  5.61684E+03 -5.68704E+03  2.91172E+03 -6.06964E+03 -2.07057E+03
 -3.17180E+03 -7.47732E+03  1.71348E+03 -8.48090E+03  7.23008E+03 -5.46804E+03  8.03533E+03  1.62964E+03
  5.71343E+03  6.30266E+03  4.39661E+02  8.86650E+03 -6.06065E+03  4.90710E+03 -6.36459E+03  2.51114E+02
 -6.20532E+03 -5.73633E+03 -1.83086E+03 -6.02325E+03  3.19129E+03 -5.57906E+03  3.35849E+03 -3.44626E+03
  3.54825E+03  3.18209E+02 -4.38148E+02  1.42665E+03  1.96573E+02 -6.58659E+02  5.68884E+02 -2.87643E+03
  4.55757E+03 -9.85999E+02  6.70013E+03  1.15297E+03  7.63835E+03  4.11090E+03  5.75127E+03  9.68145E+03
 -1.80324E+03  1.06542E+04 -9.12733E+03  8.51078E+03 -1.26940E+04  1.56796E+03 -1.00288E+04 -3.68075E+03
 -5.28348E+03 -7.94885E+03  1.34328E+02 -7.21023E+03  2.74003E+03 -3.13161E+03  1.89757E+03 -2.43437E+03
  1.91403E+03 -1.53632E+03  2.10410E+03 -2.72884E+03  4.24616E+03 -1.34216E+03  4.27401E+03  5.52181E+01
  5.82907E+03  1.73015E+03  2.07303E+03  4.16849E+03 -1.64107E+03  4.40121E+03 -5.60389E+03  3.32466E+03
 -6.69229E+03 -1.32887E+03 -2.46336E+03 -3.79909E+03  2.26359E+02 -6.58761E+03  4.06876E+03 -6.79523E+03
  6.35510E+03 -4.02498E+03  8.44976E+03  1.10189E+03  6.15342E+03  5.17518E+03  1.33094E+03  7.90646E+03
 -3.26283E+03  6.48604E+03 -4.48387E+03  2.75005E+03 -2.41263E+03 -1.10201E+03 -7.77439E+02 -4.31073E+02
 -5.52919E+02  3.63875E+02 -1.03237E+03  1.64334E+03 -3.07046E+03  1.44430E+03 -5.31414E+03 -1.66719E+02
 -2.89028E+03 -5.07493E+03  8.07792E+02 -6.24597E+03  3.93654E+03 -5.10233E+03  5.14413E+03 -1.59635E+03
  5.96549E+03  2.50333E+03  2.30732E+03  4.68764E+03 -8.53834E+02  5.96970E+03 -4.30392E+03  4.02029E+03
 -4.98817E+03  4.57334E+02 -4.84880E+03 -2.96781E+03 -4.21436E+01 -4.20938E+03  2.12671E+03 -3.61617E+03
  4.02746E+03 -1.71859E+03  2.92615E+03  5.34466E+02  5.85130E+02  2.19029E+03  9.77381E+02  6.99301E+02
  1.69750E+03  2.36067E+02  1.42249E+03  1.12104E+03  1.12726E+03  2.02200E+03  2.04900E+03  2.64684E+03
 -2.00287E+03  3.83580E+03 -3.50587E+03  5.44482E+03 -4.52707E+03  1.44837E+03 -6.07630E+03 -1.69707E+03
 -2.83207E+03 -5.16427E+03  7.51963E+02 -6.53540E+03  2.73763E+03 -4.80183E+03  4.20452E+03 -1.08657E+03
  3.23769E+03  2.50398E+03  7.40206E+02  2.82089E+03 -1.03337E+03  1.85645E+03 -1.65601E+03 -1.48128E+01
 -9.53026E+02 -1.96027E+03  1.93476E+03 -1.95920E+03  2.21784E+03 -1.52027E+03  2.02873E+03  6.86351E+02
  7.76019E+02  6.85941E+02  1.33107E+02  1.87941E+02 -9.78925E+01  9.53825E+02  1.80338E+03 -1.57843E+02
  3.87038E+02  2.80280E+02  2.27603E+03  2.15380E+02  5.43960E+02  2.30228E+03  8.73742E+01  4.14056E+03
 -2.41390E+03  1.40103E+03 -2.90139E+03  4.14930E+02 -3.12811E+03 -1.05053E+03 -7.16026E+02 -1.60800E+03
  3.82779E+02 -1.86270E+03  1.87090E+03 -1.39014E+03  3.71579E+02  1.52740E+03 -1.24127E+03  1.89941E+03
 -2.19952E+03  8.79558E+02 -2.10729E+03 -5.19431E+02 -9.82467E+02 -3.08975E+03  5.40160E+01 -2.37424E+03
  9.59286E+02 -1.04988E+03  1.27786E+03  2.86480E+02  2.18882E+03  8.81635E+01  2.63403E+02  1.21967E+03
 -7.18473E+02  2.30530E+02 -7.48231E+02 -6.79860E+02  2.86870E+02 -1.85719E+03  1.80076E+03 -1.73605E+03
  1.94348E+03  1.75625E-01  3.39180E+03  2.24785E+03  1.32097E+03  2.70717E+03 -7.74059E+02  3.26414E+03
 -2.67134E+03  2.54018E+02 -2.70584E+03 -1.93455E+02 -1.15093E+03 -1.47029E+03  1.06730E+03 -1.07654E+03
  2.22213E+03 -1.61623E+03  1.53943E+03  7.34612E+02 -1.93292E+01  1.89460E+03 -4.02472E+01  2.05807E+03
 -9.52157E+02  1.08248E+03 -6.28198E+02  9.60073E+02 -6.57598E+02  1.91345E+02 -8.56428E+02  5.52761E+02
 -7.93203E+02  1.49960E+03 -2.37396E+03  3.04467E+02 -2.97729E+03  2.94848E+02 -3.08467E+03 -2.20320E+03
 -2.07365E+03 -3.61079E+03  7.61547E+02 -4.19311E+03  2.21353E+03 -3.77561E+03  3.97015E+03 -1.80130E+03
  3.91398E+03  9.25205E+02  1.81411E+03  2.45201E+03 -4.48242E+02  2.55419E+03 -1.12526E+03  1.57584E+03
 -1.49676E+03  9.00844E+02 -9.59140E+02 -5.30439E+02 -1.00582E+03 -8.78515E+01 -6.77476E+02  1.69478E+01
 -9.53455E+02  4.95716E+02 -1.09538E+03 -1.68047E+02  1.01594E+02 -7.56820E+02 -8.18049E+02 -1.39798E+03
  1.43682E+03 -5.25918E+02  1.67676E+03  2.01543E+02  1.62652E+03  1.52413E+03  1.66610E+02  2.60981E+03
 -1.60275E+03  3.87663E+03 -2.75838E+03  1.90350E+03 -2.89321E+03 -2.68826E+02 -2.48431E+03 -1.62618E+03
 -1.37739E+03 -2.49668E+03  1.81734E+02 -2.21935E+03  8.99775E+02 -1.16053E+03  1.14789E+03 -1.47113E+02
  1.27384E+03  8.29997E+02 -1.11304E+02  7.46087E+02 -7.19889E+02  2.13234E+02 -3.57652E+00 -3.82637E+02
  1.27579E+03  5.27786E+02  4.15541E+02  9.46243E+02  5.94853E+02  7.71501E+02  8.41625E+02  1.08037E+03
 -5.10846E+02  1.11258E+03 -9.80955E+02 -1.35531E+02 -1.82504E+03 -8.36403E+02 -5.79818E+02 -1.87998E+03
  9.00775E+02 -1.52630E+03  1.08131E+03 -1.72408E+02  1.66647E+03 -2.89695E+02  9.33415E+02  1.18882E+03
  5.07708E+02  1.15574E+03 -3.41148E+02  1.31304E+03 -1.00634E+03  1.14751E+03 -1.15628E+03  1.05925E+02
 -7.24678E+02 -1.49382E+02 -1.43759E+03  2.31175E+01 -1.04172E+03  7.53388E+01 -1.15857E+03 -4.00523E+02
 -1.71474E+03 -7.03711E+02 -3.80138E+02 -1.35878E+03  8.28981E+02 -2.04325E+03  1.13465E+03 -4.00584E+02
  2.01832E+03  9.40846E+00  1.05573E+03  6.90030E+02 -9.96186E+01  1.19305E+03 -7.02038E+02  8.39285E+02
