 $NMID ID='MM_0lb_SNR400_17hz_g50_73.RAW', FMTDAT='(8E13.5)'
 TRAMP=1., VOLUME=1. $END
  3.09399E+05  8.90409E+01  3.37244E+05  2.50592E+05  8.48191E+04  3.37620E+05 -1.32497E+05  2.50347E+05
 -1.90132E+05  8.27196E+04 -1.11245E+05 -3.29055E+04  1.83012E+03 -5.03717E+04  5.35002E+04  5.18221E+02
  3.48798E+04  5.31152E+04 -1.68752E+04  7.54125E+04 -6.03477E+04  6.28712E+04 -8.34880E+04  3.16709E+04
 -8.10656E+04 -1.12924E+04 -5.63642E+04 -5.06387E+04 -1.48065E+04 -6.90442E+04  2.71794E+04 -4.47999E+04
  3.94997E+04  4.22120E+03  1.60249E+04  4.76430E+04 -3.40330E+04  4.62210E+04 -6.57668E+04 -1.97617E+02
 -5.20712E+04 -5.65473E+04 -6.29556E+03 -7.61640E+04  3.37185E+04 -5.38241E+04  4.73679E+04 -1.70331E+04
  4.28613E+04  1.12264E+04  3.17754E+04  2.51161E+04  1.54190E+04  2.88483E+04 -4.78630E+03  2.70108E+04
 -2.17862E+04  1.21765E+04 -1.89550E+04 -3.78140E+03  4.99351E+03 -7.37319E+03  2.19063E+04  1.16184E+04
  7.84867E+03  3.38648E+04 -3.08263E+04  3.49164E+04 -6.17875E+04  1.95462E+03 -5.58469E+04 -4.13650E+04
 -1.24444E+04 -6.17731E+04  3.93522E+04 -4.42216E+04  5.68793E+04 -1.20805E+03  3.24415E+04  3.07250E+04
 -6.10192E+03  3.44363E+04 -2.96271E+04  1.43187E+04 -2.89938E+04 -4.86984E+03 -1.52413E+04 -1.07940E+04
 -7.66682E+03 -1.23799E+04 -1.14883E+03 -1.76951E+04  6.92748E+03 -2.31324E+04  1.49773E+04 -1.41080E+04
  1.14736E+04  4.62814E+03 -7.27554E+03  1.23107E+04 -2.00279E+04 -3.22779E+03 -8.18381E+03 -3.18192E+04
  2.13712E+04 -4.15342E+04  4.58494E+04 -1.88041E+04  4.33384E+04  1.88744E+04  1.47215E+04  4.24152E+04
 -1.53531E+04  3.23502E+04 -2.42834E+04  1.00911E+03 -8.88646E+03 -2.66660E+04  2.04443E+04 -3.25312E+04
  3.90070E+04 -7.88047E+03  3.30388E+04  2.30601E+04  1.60544E+04  4.43835E+04 -7.59880E+03  4.64457E+04
 -2.99918E+04  3.09164E+04 -3.87494E+04  8.22842E+03 -4.00255E+04 -1.58586E+04 -2.24254E+04 -3.55760E+04
  6.76360E+03 -3.58957E+04  3.03851E+04 -1.33800E+04  2.77754E+04  1.10805E+04  3.35430E+03  1.83433E+04
 -1.33078E+04  7.38758E+03 -9.65074E+03 -7.50025E+03  5.76566E+03 -1.03682E+04  1.78623E+04  5.54446E+03
  1.27064E+04  2.20387E+04 -6.29338E+03  2.41557E+04 -2.17706E+04  9.49005E+03 -2.62402E+04 -5.37924E+03
 -1.87619E+04 -1.66766E+04 -6.47856E+03 -1.85944E+04  3.66023E+03 -1.64150E+04  1.38168E+04 -1.63976E+04
  2.33275E+04 -1.20749E+04  2.99752E+04  1.72381E+03  2.23610E+04  1.77647E+04  3.91143E+03  3.49465E+04
 -1.63641E+04  2.89788E+04 -2.67435E+04  1.00467E+04 -1.96876E+04 -1.03117E+04 -4.07131E+03 -1.37060E+04
  1.60249E+03 -3.35670E+03 -3.61034E+03  5.74369E+03 -1.44730E+04  5.17027E+03 -1.48661E+04 -5.58852E+03
 -9.15428E+03 -1.69038E+04  4.29578E+03 -2.13429E+04  1.36180E+04 -1.55554E+04  1.57848E+04 -1.52952E+03
  9.56083E+03  1.15819E+04 -1.22153E+03  1.75259E+04 -1.19643E+04  9.05886E+03 -1.70500E+04 -3.82063E+03
 -1.28054E+04 -1.57273E+04 -1.53947E+03 -2.04072E+04  9.32457E+03 -1.62596E+04  1.74761E+04 -8.05109E+03
  1.54823E+04  5.91070E+02  1.11910E+04  3.95379E+03  5.72443E+03  6.64212E+02  8.38880E+03 -1.67184E+03
  1.51275E+04  2.94544E+03  1.61633E+04  1.31140E+04  1.10590E+04  2.65552E+04 -3.07394E+03  2.96475E+04
 -1.73825E+04  2.33692E+04 -2.69606E+04  1.13270E+04 -2.81593E+04 -1.80090E+03 -2.37001E+04 -1.62870E+04
 -1.13601E+04 -2.22635E+04  8.03504E+03 -2.10993E+04  1.81614E+04 -1.12140E+04  1.67045E+04  4.66027E+03
  6.75326E+03  1.24460E+04 -7.60361E+03  1.12868E+04 -1.45149E+04  2.78062E+03 -1.15102E+04 -8.55716E+03
  1.47211E+02 -1.33848E+04  6.73991E+03 -9.88610E+03  9.23788E+03 -1.37963E+03  1.71296E+03  5.77848E+03
 -6.11934E+03  2.24224E+03 -4.70459E+03 -5.28773E+03  6.60807E+02 -1.14777E+04  8.27802E+03 -1.15434E+04
  1.39041E+04 -5.04927E+03  1.37479E+04  3.28426E+03  1.24136E+04  1.04530E+04  5.69590E+03  1.62965E+04
 -1.86274E+03  1.83467E+04 -1.09022E+04  1.18504E+04 -1.28641E+04  2.69528E+03 -9.60678E+03 -2.57858E+03
 -4.54962E+03 -3.41965E+03 -6.86905E+02  7.46119E+02 -1.78970E+03  2.10312E+03 -4.65684E+03  3.36149E+03
 -8.86956E+03 -9.17282E+02 -9.04680E+03 -7.20228E+03 -3.67484E+03 -1.26838E+04  3.74094E+03 -9.25955E+03
  7.79268E+03 -3.95333E+03  5.80905E+03  2.72167E+03  1.18295E+02  3.02476E+03 -3.55195E+03  1.69099E+02
 -3.63890E+03 -5.70265E+03 -9.31256E+02 -8.17056E+03  4.68373E+03 -8.95866E+03  1.10707E+04 -4.70827E+03
  1.33703E+04  8.87570E+02  1.00017E+04  7.98898E+03  2.17821E+03  1.00595E+04 -6.04890E+03  9.05564E+03
 -7.91911E+03  3.05538E+03 -4.19483E+03 -2.31598E+03  2.01435E+03 -1.57254E+03  5.00068E+03 -1.15925E+03
  4.34105E+03  3.90772E+03  1.26209E+03  7.14073E+03 -5.42811E+03  7.00586E+03 -9.32739E+03  1.84570E+03
 -6.16587E+03 -4.31580E+03  4.78527E+02 -7.29845E+03  4.73358E+03 -3.68437E+03  4.50334E+03  1.15111E+03
  7.95829E+02  3.50467E+03 -4.64866E+03  5.48966E+03 -5.76166E+03  2.90602E+03 -5.12721E+03 -1.31562E+03
 -3.38510E+03 -7.09074E+03  1.65557E+03 -8.34129E+03  7.82048E+03 -5.34916E+03  7.63192E+03  1.43526E+03
  5.27377E+03  5.84362E+03  3.46077E+02  7.93738E+03 -6.16650E+03  4.89022E+03 -6.63573E+03 -1.46194E+03
 -6.35213E+03 -5.67328E+03 -1.29770E+03 -5.96579E+03  3.46172E+03 -5.00528E+03  3.08153E+03 -3.03237E+03
  2.60333E+03  2.15053E+02  1.26864E+02  9.38300E+02  1.42251E+01 -7.37980E+02  8.04220E+02 -2.75829E+03
  4.96371E+03 -1.56724E+03  6.44073E+03  5.81353E+02  6.98333E+03  3.98940E+03  5.99845E+03  8.80711E+03
 -1.85437E+03  1.02423E+04 -9.06024E+03  7.88722E+03 -1.13983E+04  1.64704E+03 -9.36093E+03 -2.95537E+03
 -4.40841E+03 -7.61943E+03 -8.46614E+02 -5.74273E+03  2.74869E+03 -2.69025E+03  2.43346E+03 -2.74714E+03
  1.55274E+03 -1.16614E+03  2.41150E+03 -2.66778E+03  4.09508E+03 -1.66316E+03  4.16593E+03  1.93985E+02
  5.46044E+03  1.56012E+03  1.62769E+03  4.00349E+03 -1.71327E+03  3.38628E+03 -5.29163E+03  3.08818E+03
 -6.45243E+03 -5.78247E+02 -2.46656E+03 -4.06403E+03  8.31463E+01 -6.60173E+03  3.61048E+03 -6.62658E+03
  6.05216E+03 -3.86151E+03  7.78651E+03  4.01862E+01  5.43273E+03  5.29779E+03  1.18073E+03  7.51687E+03
 -2.30655E+03  6.65881E+03 -3.67614E+03  1.70759E+03 -2.99477E+03 -1.20350E+03 -2.95789E+02 -8.62292E+02
 -1.63950E+02  3.09865E+02 -1.76697E+03  1.92392E+03 -3.13519E+03  9.28040E+02 -4.23019E+03 -6.57319E+02
 -1.63289E+03 -5.35803E+03  4.88797E+02 -5.60441E+03  2.52635E+03 -5.24812E+03  4.55410E+03 -8.00692E+02
  5.13495E+03  3.13372E+03  2.47790E+03  3.82410E+03 -8.25863E+02  5.53340E+03 -3.40347E+03  3.14566E+03
 -4.53695E+03  6.47897E+02 -4.13915E+03 -3.21099E+03  1.80115E+02 -4.32990E+03  2.02270E+03 -2.49403E+03
  3.06719E+03 -1.67821E+03  1.98321E+03  1.34271E+03  7.82655E+02  1.56348E+03  4.22196E+02  9.94482E+02
  1.46595E+03  3.07572E+02  1.64840E+03  9.50193E+02  1.30266E+03  2.44491E+03  1.06920E+03  2.27157E+03
 -1.43808E+03  4.16270E+03 -3.44732E+03  4.15401E+03 -4.34727E+03  1.36983E+03 -5.18025E+03 -8.60955E+02
 -2.29269E+03 -4.68871E+03  6.20155E+02 -5.76261E+03  2.42500E+03 -3.03163E+03  3.28726E+03 -1.07082E+03
  3.09478E+03  2.36547E+03  5.09002E+02  3.05047E+03 -1.66792E+03  1.54129E+03 -1.91226E+03 -1.57255E+02
 -6.78971E+02 -1.95631E+03  2.11433E+03 -2.39714E+03  1.57886E+03 -1.28311E+03  1.87039E+03  5.50895E+02
  1.22513E+03  7.29170E+02  1.13332E+03  3.02628E+02 -6.97522E+02  4.97741E+02  1.68155E+03 -2.59641E+02
 -5.15194E+01 -2.95025E+02  1.96894E+03  9.61200E+02  8.17185E+01  2.72012E+03 -2.22446E+02  2.97450E+03
 -2.03396E+03  1.47803E+03 -3.30637E+03  5.99328E+02 -2.73178E+03 -1.13710E+03 -5.18918E+02 -1.42672E+03
  2.81810E+02 -1.67098E+03  1.18464E+03 -6.06797E+02  9.08880E+02  1.43604E+03 -6.90478E+02  1.39731E+03
 -1.98919E+03  1.34019E+03 -1.93976E+03 -1.65576E+03 -9.66743E+02 -2.54483E+03 -2.41077E+02 -1.80279E+03
  6.48543E+02 -1.03252E+03  1.18380E+03 -1.56192E+02  1.69730E+03 -1.90885E+02  3.20229E+02  1.51548E+03
 -5.31859E+02 -1.30783E+02 -1.54836E+03 -3.88022E+02  9.64306E+02 -1.02868E+03  2.09541E+03 -1.13759E+03
  1.37251E+03 -4.79076E+02  3.18787E+03  1.43702E+03  1.26016E+03  1.96498E+03 -5.03911E+02  2.36959E+03
 -2.29326E+03  9.37233E+02 -2.08100E+03 -1.29833E+02 -1.39445E+03 -1.44591E+03  4.36454E+02 -8.00777E+02
  2.24028E+03 -1.06569E+03  1.24998E+03  1.30300E+03  6.73881E+02  1.46912E+03 -1.17906E+02  1.08456E+03
 -6.94915E+02  7.49832E+02 -8.12561E+02 -2.87313E+01 -2.37761E+02  8.01171E+02 -9.06295E+02  9.94865E+02
 -1.33537E+03  1.58629E+03 -2.24239E+03  3.34384E+02 -2.22665E+03  1.73378E+02 -2.31429E+03 -1.83755E+03
 -1.02473E+03 -3.02813E+03  3.62741E+02 -4.05719E+03  2.25650E+03 -3.39185E+03  3.57079E+03 -5.44931E+02
  3.71074E+03 -1.46190E+02  1.90422E+03  2.15366E+03 -4.70401E+02  2.50859E+03 -1.14235E+03  2.07034E+03
 -1.41967E+03  9.95110E+02 -1.04443E+03 -7.78910E+02 -6.54670E+02 -3.82742E+01 -6.50197E+02 -4.73734E+01
 -1.18457E+03 -7.13630E+02 -9.06843E+02  8.30382E+01  1.38951E+02 -5.93628E+02  4.60482E+01 -8.05849E+02
  1.68108E+03 -5.86070E+02  5.76425E+02  8.27966E+01  1.31836E+03  1.45906E+03 -4.71667E+00  1.62650E+03
 -1.10616E+03  2.48886E+03 -2.10066E+03  1.69816E+03 -2.03312E+03  5.12775E+01 -1.67261E+03 -1.46655E+03
 -1.12579E+03 -2.07073E+03  6.18970E+02 -1.99240E+03  6.95792E+02 -1.42393E+03  1.07125E+03 -1.62225E+01
  8.47702E+01  1.05470E+02 -2.11386E+02  3.16946E+02 -1.65000E+02 -1.87847E+02  2.29743E+02 -5.02990E+02
  6.93887E+02  4.28466E+01  8.25900E+02  2.86495E+02 -4.79125E+01  4.77173E+02  8.90087E+02  2.78621E+02
 -1.12011E+03  8.04538E+02 -7.66710E+02  2.96007E+02 -1.20638E+03 -1.33445E+03 -3.36444E+02 -1.16227E+03
  9.11663E+02 -1.18535E+03  9.35891E+02 -5.18919E+02  9.22914E+02 -1.55598E+02  6.12848E+02  8.49993E+02
  9.67786E+02  8.39102E+02 -4.87065E+02  9.86754E+02 -1.11799E+03  1.39953E+03 -1.55533E+03  4.75385E+01
 -7.90139E+02  2.29689E+02 -6.53393E+02  3.25452E+02 -1.51805E+03  6.81035E+01 -5.60624E+02 -1.30834E+03
 -9.61358E+02  2.03711E+02 -4.72041E+02 -8.67354E+02  1.27323E+03 -1.65822E+03  1.05631E+03 -6.02329E+02
  1.06626E+03  6.94343E+01 -9.45172E+01  6.77110E+02 -4.11678E+02  9.34042E+02 -8.86209E+01  6.76656E+02
