 $NMID ID='MM_0lb_SNR400_9hz_g55_46.RAW', FMTDAT='(8E13.5)'
 TRAMP=1., VOLUME=1. $END
  3.09651E+05  7.96392E+02  3.37634E+05  2.50048E+05  8.49634E+04  3.39095E+05 -1.32459E+05  2.52415E+05
 -1.90706E+05  8.39157E+04 -1.12510E+05 -3.26012E+04  3.36190E+02 -5.08693E+04  5.34089E+04  2.27079E+01
  3.61789E+04  5.33183E+04 -1.66666E+04  7.62213E+04 -6.19343E+04  6.49584E+04 -8.46450E+04  3.25198E+04
 -8.24122E+04 -1.10442E+04 -5.91143E+04 -5.28073E+04 -1.58545E+04 -7.16044E+04  2.76920E+04 -4.72674E+04
  4.01625E+04  2.92296E+03  1.63449E+04  4.86856E+04 -3.51020E+04  4.84757E+04 -6.88301E+04 -2.73287E+02
 -5.48710E+04 -5.76216E+04 -7.05913E+03 -7.90923E+04  3.45434E+04 -5.75531E+04  4.90601E+04 -1.85605E+04
  4.61972E+04  1.13338E+04  3.30523E+04  2.68475E+04  1.55509E+04  3.07057E+04 -6.37709E+03  2.85363E+04
 -2.24100E+04  1.23003E+04 -1.76650E+04 -5.70084E+03  7.51212E+03 -7.30667E+03  2.35722E+04  1.46840E+04
  6.92503E+03  3.83711E+04 -3.46408E+04  3.74950E+04 -6.59622E+04  1.98865E+03 -5.90364E+04 -4.43903E+04
 -1.24412E+04 -6.65963E+04  4.19615E+04 -4.68101E+04  6.17985E+04 -1.70271E+03  3.64400E+04  3.48674E+04
 -4.61294E+03  3.92778E+04 -3.08135E+04  1.95906E+04 -3.38527E+04 -3.50366E+03 -1.89330E+04 -1.16988E+04
 -9.57061E+03 -1.53441E+04 -3.59860E+02 -1.93286E+04  8.39521E+03 -2.37144E+04  1.53506E+04 -1.21735E+04
  1.05360E+04  6.24291E+03 -1.06036E+04  1.27494E+04 -2.29646E+04 -6.65061E+03 -8.32152E+03 -3.76387E+04
  2.52180E+04 -4.71063E+04  5.20247E+04 -2.11657E+04  4.92395E+04  2.11856E+04  1.73628E+04  4.65700E+04
 -1.68315E+04  3.62079E+04 -2.78629E+04  3.07157E+03 -1.32157E+04 -2.95560E+04  2.09890E+04 -3.77581E+04
  4.59290E+04 -1.07087E+04  4.14072E+04  2.51368E+04  2.14029E+04  5.16001E+04 -8.60756E+03  5.73290E+04
 -3.60809E+04  3.89549E+04 -4.85284E+04  1.13019E+04 -4.88718E+04 -1.84070E+04 -2.61749E+04 -4.27000E+04
  7.60563E+03 -4.23632E+04  3.42733E+04 -1.73681E+04  3.28940E+04  1.05863E+04  5.08310E+03  2.08932E+04
 -1.42402E+04  1.03014E+04 -1.19119E+04 -7.46015E+03  5.93360E+03 -1.14698E+04  1.86828E+04  5.66532E+03
  1.48568E+04  2.31718E+04 -4.55281E+03  2.76337E+04 -2.42558E+04  1.43808E+04 -3.22555E+04 -2.96840E+03
 -2.56403E+04 -1.84713E+04 -1.23591E+04 -2.63384E+04  4.32058E+03 -2.64166E+04  2.11911E+04 -2.35535E+04
  3.23312E+04 -1.49643E+04  3.86397E+04  4.69984E+03  2.72605E+04  2.51155E+04  4.70446E+03  4.15587E+04
 -1.99495E+04  3.42038E+04 -3.03807E+04  1.18023E+04 -2.29555E+04 -1.06682E+04 -4.93336E+03 -1.37627E+04
  1.20058E+03 -9.09229E+02 -7.64403E+03  7.83430E+03 -2.08716E+04  6.24655E+03 -2.03589E+04 -9.85477E+03
 -1.23527E+04 -2.40712E+04  5.66083E+03 -2.87497E+04  1.98955E+04 -2.00042E+04  2.32249E+04 -2.24353E+03
  1.54738E+04  1.59938E+04 -1.27807E+03  2.41869E+04 -1.61844E+04  1.39244E+04 -2.47667E+04 -5.52067E+03
 -1.74286E+04 -2.13883E+04 -2.76537E+03 -2.89940E+04  1.31073E+04 -2.30794E+04  2.36463E+04 -1.28597E+04
  2.28678E+04 -5.18605E+02  1.57616E+04  5.56862E+03  7.94949E+03  1.31908E+03  1.31522E+04 -2.33710E+03
  2.26811E+04  2.51748E+03  2.64884E+04  1.90108E+04  1.81362E+04  3.86096E+04 -2.49043E+03  4.52872E+04
 -2.56578E+04  3.75158E+04 -4.25530E+04  2.02574E+04 -4.58666E+04 -3.01756E+03 -3.74287E+04 -2.76958E+04
 -1.50093E+04 -3.78012E+04  1.29816E+04 -3.39276E+04  2.81078E+04 -1.55919E+04  2.48216E+04  7.97128E+03
  8.54886E+03  1.90532E+04 -1.14763E+04  1.53965E+04 -2.13019E+04  2.91568E+03 -1.52901E+04 -1.41814E+04
 -9.89169E+02 -1.98087E+04  9.89988E+03 -1.44811E+04  1.34703E+04 -1.48232E+03  4.10806E+03  8.71769E+03
 -9.22039E+03  3.71147E+03 -9.73402E+03 -7.30967E+03 -2.44314E+03 -1.88450E+04  1.20753E+04 -2.08628E+04
  2.37710E+04 -1.20356E+04  2.70925E+04  3.69943E+03  2.38743E+04  1.87861E+04  1.18097E+04  3.03489E+04
 -5.85401E+03  3.19145E+04 -2.18476E+04  2.01518E+04 -2.27210E+04  3.56794E+03 -1.55400E+04 -5.63059E+03
 -6.38159E+03 -7.13920E+03 -4.33188E+02  7.27892E+02 -2.75765E+03  2.80195E+03 -8.12702E+03  5.81911E+03
 -1.47898E+04 -2.06864E+03 -1.53634E+04 -1.18646E+04 -5.98339E+03 -2.04740E+04  6.35844E+03 -1.58711E+04
  1.30542E+04 -7.09051E+03  9.73667E+03  4.74167E+03 -6.92644E+02  6.56188E+03 -8.06837E+03 -2.89445E+02
 -7.09514E+03 -1.06677E+04 -6.64731E+02 -1.58963E+04  9.57936E+03 -1.66025E+04  2.06309E+04 -8.73300E+03
  2.45115E+04  2.66352E+03  1.74698E+04  1.51303E+04  3.89516E+03  1.93317E+04 -9.76304E+03  1.58705E+04
 -1.24204E+04  4.45351E+03 -6.01486E+03 -3.50914E+03  2.50981E+03 -4.55070E+03  8.39442E+03 -9.09265E+02
  7.07607E+03  7.00989E+03  1.57722E+03  1.28959E+04 -8.79650E+03  1.14559E+04 -1.61860E+04  2.21937E+03
 -1.12801E+04 -8.20679E+03  3.85478E+02 -1.43262E+04  8.36322E+03 -6.12798E+03  9.27877E+03  3.61862E+03
  3.46536E+03  1.05103E+04 -8.09667E+03  1.22219E+04 -1.34543E+04  5.66884E+03 -1.43654E+04 -5.32341E+03
 -8.03051E+03 -1.67567E+04  3.52895E+03 -1.87058E+04  1.57994E+04 -1.14783E+04  1.77208E+04  4.18450E+03
  1.06877E+04  1.37801E+04 -1.82148E+03  1.61777E+04 -1.21319E+04  8.74677E+03 -1.26114E+04 -1.38022E+03
 -1.08925E+04 -1.10095E+04 -1.44559E+03 -1.29960E+04  6.92844E+03 -9.37324E+03  8.45388E+03 -3.84261E+03
  4.68536E+03  2.30742E+03 -1.33454E+03  1.82830E+03 -8.45576E+02 -3.47387E+03  3.24558E+03 -7.91798E+03
  1.11199E+04 -4.84547E+03  1.60140E+04  1.33406E+03  1.64711E+04  1.19911E+04  1.04632E+04  2.18351E+04
 -4.74822E+03  2.46383E+04 -2.03548E+04  1.85034E+04 -2.56344E+04  3.60629E+03 -2.16308E+04 -1.01470E+04
 -1.10241E+04 -1.72515E+04 -2.70826E+02 -1.51214E+04  5.63268E+03 -8.80701E+03  5.39355E+03 -5.24294E+03
  3.95993E+03 -3.32747E+03  4.10520E+03 -3.15070E+03  5.71131E+03 -4.40467E+03  8.71221E+03 -1.38255E+03
  1.13241E+04  2.47357E+03  6.19249E+03  1.04175E+04 -2.40234E+03  1.13711E+04 -1.22461E+04  8.49906E+03
 -1.54764E+04 -1.64739E+03 -9.79132E+03 -1.03455E+04 -1.64506E+03 -1.66967E+04  9.24375E+03 -1.56388E+04
  1.66667E+04 -8.83989E+03  2.09629E+04  2.61279E+03  1.41287E+04  1.46592E+04  2.62778E+03  1.88106E+04
 -7.53836E+03  1.47641E+04 -1.06057E+04  4.79582E+03 -8.08030E+03 -1.87848E+03 -2.68997E+03 -2.29880E+03
 -1.77597E+03 -2.49259E+02 -2.41600E+03  3.02000E+03 -6.78963E+03  2.71452E+03 -1.16508E+04 -2.11332E+03
 -8.06154E+03 -1.05317E+04 -4.22744E+02 -1.45403E+04  8.90261E+03 -1.35407E+04  1.55695E+04 -3.59881E+03
  1.47437E+04  7.34547E+03  7.02842E+03  1.44748E+04 -3.44621E+03  1.50991E+04 -1.09575E+04  1.01160E+04
 -1.44161E+04  7.42627E+02 -1.06919E+04 -1.07791E+04 -1.96280E+03 -1.26346E+04  7.66897E+03 -1.01744E+04
  9.42876E+03 -3.54331E+03  6.57518E+03  2.85504E+03  2.62211E+03  3.81662E+03  1.69150E+03  2.36583E+03
  2.63370E+03  4.41843E+02  3.46247E+03  1.98326E+03  4.03685E+03  5.68400E+03  3.37391E+03  7.56687E+03
 -2.78494E+03  1.20558E+04 -1.12898E+04  1.18605E+04 -1.55608E+04  3.03127E+03 -1.63655E+04 -6.61391E+03
 -8.69914E+03 -1.58607E+04  1.91197E+03 -1.84197E+04  9.43450E+03 -1.14439E+04  1.30381E+04 -2.61010E+03
  1.03171E+04  6.65247E+03  1.17410E+03  8.64986E+03 -4.18119E+03  5.05806E+03 -6.22962E+03 -1.06716E+03
 -2.46900E+03 -6.73428E+03  3.70305E+03 -6.21804E+03  6.33930E+03 -3.18591E+03  6.80540E+03  1.05921E+03
  4.44877E+03  3.16390E+03  1.36261E+03  2.20440E+03 -5.74725E+02  1.52610E+03  1.86552E+03 -6.50148E+02
  2.67509E+03 -1.51914E+03  5.76115E+03  1.76884E+03  3.45435E+03  7.73596E+03 -5.57946E+02  1.10970E+04
 -7.62842E+03  7.37042E+03 -1.03446E+04  1.77609E+03 -9.43553E+03 -4.01719E+03 -3.43197E+03 -6.28303E+03
  1.11947E+03 -6.08470E+03  3.59610E+03 -2.48240E+03  3.43040E+03  2.99372E+03 -1.14486E+03  5.73025E+03
 -6.78525E+03  3.07929E+03 -8.12641E+03 -4.16378E+03 -4.21338E+03 -8.36306E+03  1.12598E+03 -8.30908E+03
  5.93673E+03 -5.70601E+03  6.34487E+03  4.14770E+02  4.80891E+03  2.33481E+03  9.47636E+02  4.61092E+03
 -3.27082E+03  3.53016E+02 -4.42114E+03 -2.86157E+03  1.32330E+03 -5.89676E+03  7.47055E+03 -5.73270E+03
  9.70155E+03  1.59738E+03  9.77805E+03  6.64125E+03  3.58819E+03  1.07111E+04 -3.72212E+03  9.86830E+03
 -8.42013E+03  4.48881E+03 -9.40530E+03 -2.36013E+03 -4.52296E+03 -6.37457E+03  1.93565E+03 -6.77932E+03
  6.40811E+03 -3.71616E+03  6.39767E+03  3.45358E+03  2.03864E+03  5.94313E+03 -9.80335E+02  5.49299E+03
 -2.78155E+03  3.34011E+03 -2.05613E+03  9.44531E+02 -1.34243E+03  7.17915E+02 -1.83352E+03  2.37180E+03
 -2.80337E+03  3.86540E+03 -6.90233E+03  3.60926E+03 -1.03921E+04  5.12694E+01 -1.12572E+04 -6.69143E+03
 -6.01158E+03 -1.42415E+04  2.72608E+03 -1.61420E+04  9.68459E+03 -1.28294E+04  1.50029E+04 -5.16448E+03
  1.46093E+04  3.44482E+03  8.40004E+03  9.93107E+03  1.07185E+03  1.08128E+04 -4.75430E+03  8.06250E+03
 -6.32255E+03  3.13600E+03 -2.82738E+03 -9.42356E+02 -1.08374E+03 -6.19113E+02 -8.14666E+02  6.89375E+02
 -1.46550E+03  4.74604E+02 -2.43784E+03 -9.20982E+02 -9.07883E+02 -2.19278E+03 -1.29247E+02 -4.19868E+03
  4.67511E+03 -3.28372E+03  6.52730E+03 -2.49999E+02  7.53573E+03  5.27508E+03  2.45149E+03  1.02980E+04
 -5.34811E+03  1.24686E+04 -1.16223E+04  6.81044E+03 -1.34723E+04 -6.79917E+02 -9.70383E+03 -7.41243E+03
 -3.99989E+03 -1.10957E+04  2.61230E+03 -1.03921E+04  6.83916E+03 -5.97462E+03  7.03753E+03  3.71375E+02
  3.82633E+03  4.20229E+03  1.06411E+02  3.39371E+03 -2.23087E+03 -1.11317E+03  6.31396E+02 -2.76851E+03
  3.46620E+03 -1.31816E+03  4.62786E+03  1.70104E+03  2.74157E+03  4.83118E+03 -5.32028E+02  6.34711E+03
 -4.91809E+03  6.27886E+03 -7.79810E+03  1.50838E+02 -5.77707E+03 -4.83513E+03 -1.19167E+03 -1.00439E+04
  6.43758E+03 -7.65081E+03  8.80333E+03 -2.64393E+03  7.72505E+03  2.66477E+03  4.05420E+03  6.36899E+03
  8.58413E+02  6.98439E+03 -3.32697E+03  6.02014E+03 -4.61319E+03  2.88077E+03 -4.54780E+03  2.89486E+02
 -2.89127E+03 -3.25338E+02 -2.26817E+03  9.55838E+02 -3.67062E+03  9.92582E+02 -4.96072E+03 -2.02833E+03
 -5.41820E+03 -4.18879E+03 -1.65321E+03 -7.26366E+03  2.90036E+03 -8.69944E+03  6.34666E+03 -3.57467E+03
  7.75207E+03  1.10942E+03  3.76792E+03  6.37103E+03 -5.85404E+02  8.33819E+03 -6.23198E+03  4.35709E+03
