 $NMID ID='MM_0lb_SNR400_7hz_g40_7.RAW', FMTDAT='(8E13.5)'
 TRAMP=1., VOLUME=1. $END
  3.10096E+05  6.00757E+02  3.37795E+05  2.51574E+05  8.60199E+04  3.38581E+05 -1.31919E+05  2.52256E+05
 -1.91535E+05  8.40040E+04 -1.11801E+05 -3.23414E+04 -7.09320E+02 -4.99064E+04  5.37475E+04 -1.02810E+03
  3.63461E+04  5.35056E+04 -1.65416E+04  7.63386E+04 -6.06175E+04  6.45591E+04 -8.56286E+04  3.29197E+04
 -8.28012E+04 -1.17073E+04 -5.81898E+04 -5.16596E+04 -1.42106E+04 -7.14048E+04  2.87902E+04 -4.60856E+04
  4.10202E+04  3.63393E+03  1.70776E+04  4.89153E+04 -3.49422E+04  4.88224E+04 -6.79938E+04 -5.89265E+02
 -5.52241E+04 -5.79652E+04 -8.67535E+03 -7.96643E+04  3.46496E+04 -5.75447E+04  5.04926E+04 -1.86954E+04
  4.53086E+04  1.17310E+04  3.24236E+04  2.58609E+04  1.61713E+04  3.04732E+04 -4.86116E+03  2.83288E+04
 -2.25416E+04  1.14935E+04 -1.82323E+04 -6.13839E+03  6.72470E+03 -8.09046E+03  2.32874E+04  1.32062E+04
  7.05183E+03  3.71624E+04 -3.34986E+04  3.70197E+04 -6.61607E+04  2.59585E+03 -6.01424E+04 -4.42391E+04
 -1.30698E+04 -6.61755E+04  4.20052E+04 -4.91331E+04  6.20281E+04 -2.96219E+03  3.79529E+04  3.54037E+04
 -4.90335E+03  4.01145E+04 -3.23497E+04  1.91020E+04 -3.31393E+04 -3.45528E+03 -2.07170E+04 -1.16487E+04
 -1.04538E+04 -1.46787E+04 -4.46422E+02 -1.98043E+04  8.51009E+03 -2.33326E+04  1.62917E+04 -1.26918E+04
  1.09568E+04  5.76196E+03 -1.07124E+04  1.36427E+04 -2.47965E+04 -5.85565E+03 -9.79313E+03 -3.75592E+04
  2.53550E+04 -4.81215E+04  5.31251E+04 -2.15955E+04  4.90001E+04  2.09720E+04  1.85289E+04  4.77807E+04
 -1.64538E+04  3.66335E+04 -2.73916E+04  2.64384E+03 -1.19926E+04 -2.97642E+04  2.08542E+04 -3.71310E+04
  4.53135E+04 -1.15992E+04  4.16060E+04  2.47411E+04  2.27553E+04  5.13850E+04 -8.93435E+03  5.74388E+04
 -3.60888E+04  3.92295E+04 -4.92422E+04  1.16199E+04 -4.83240E+04 -1.79997E+04 -2.68396E+04 -4.28840E+04
  7.76747E+03 -4.22777E+04  3.44771E+04 -1.79557E+04  3.33737E+04  1.07074E+04  5.32225E+03  2.16950E+04
 -1.41152E+04  9.96840E+03 -1.07062E+04 -7.84487E+03  5.60325E+03 -1.15930E+04  1.94198E+04  5.85027E+03
  1.38299E+04  2.29092E+04 -5.86790E+03  2.73826E+04 -2.35648E+04  1.57255E+04 -3.31264E+04 -2.89193E+03
 -2.67905E+04 -1.87113E+04 -1.21720E+04 -2.67720E+04  5.09426E+03 -2.79383E+04  2.03268E+04 -2.33232E+04
  3.42800E+04 -1.54034E+04  3.95575E+04  5.07600E+03  2.84456E+04  2.65061E+04  4.34945E+03  4.25035E+04
 -2.07826E+04  3.46038E+04 -3.07148E+04  1.21741E+04 -2.31530E+04 -9.73832E+03 -5.49983E+03 -1.26365E+04
  8.62118E+02 -9.90783E+02 -8.09366E+03  9.06927E+03 -2.09328E+04  4.10774E+03 -2.09747E+04 -1.01953E+04
 -1.19838E+04 -2.41043E+04  5.96561E+03 -2.92627E+04  1.91853E+04 -2.13781E+04  2.45916E+04 -2.35226E+03
  1.59456E+04  1.71787E+04 -1.41523E+03  2.38246E+04 -1.82779E+04  1.40451E+04 -2.40992E+04 -5.02859E+03
 -1.84826E+04 -2.26855E+04 -1.33150E+03 -2.92202E+04  1.35555E+04 -2.32725E+04  2.41289E+04 -1.29250E+04
  2.28999E+04  9.23413E+01  1.56831E+04  4.96277E+03  8.55785E+03  1.87380E+03  1.34705E+04 -2.78333E+03
  2.37131E+04  3.19104E+03  2.83447E+04  1.95953E+04  1.78319E+04  3.95642E+04 -2.91042E+03  4.78970E+04
 -2.75897E+04  3.99955E+04 -4.45994E+04  2.03603E+04 -4.90770E+04 -3.91350E+03 -3.80171E+04 -2.75330E+04
 -1.49140E+04 -3.97437E+04  1.30922E+04 -3.54493E+04  3.11641E+04 -1.60753E+04  2.56276E+04  9.17732E+03
  8.77489E+03  2.00904E+04 -1.14170E+04  1.67590E+04 -2.17336E+04  2.70804E+03 -1.56110E+04 -1.31167E+04
 -3.02931E+02 -2.03351E+04  1.13484E+04 -1.47054E+04  1.49989E+04 -4.39836E+02  3.81504E+03  9.41318E+03
 -9.50528E+03  4.67611E+03 -1.06503E+04 -7.02989E+03 -2.68468E+03 -1.84966E+04  1.27295E+04 -2.14468E+04
  2.50782E+04 -1.21224E+04  2.89085E+04  4.08531E+03  2.56465E+04  1.93031E+04  1.20206E+04  3.17837E+04
 -5.40988E+03  3.35601E+04 -2.21778E+04  2.08314E+04 -2.39283E+04  3.96344E+03 -1.66994E+04 -7.20747E+03
 -5.87917E+03 -8.58614E+03 -6.18910E+01  6.41718E+02 -3.02203E+03  4.64218E+03 -8.41165E+03  6.34595E+03
 -1.50118E+04 -1.55176E+03 -1.49863E+04 -1.20274E+04 -5.78172E+03 -2.07219E+04  5.88855E+03 -1.67042E+04
  1.34738E+04 -6.07218E+03  1.00886E+04  4.60476E+03 -1.42992E+02  7.41870E+03 -8.48816E+03 -8.25672E+02
 -8.06249E+03 -1.08355E+04 -2.06296E+03 -1.66226E+04  1.00357E+04 -1.76331E+04  2.24991E+04 -9.13073E+03
  2.62332E+04  2.99305E+03  1.90648E+04  1.55334E+04  3.99443E+03  2.08880E+04 -1.01035E+04  1.70980E+04
 -1.37272E+04  5.02232E+03 -7.31231E+03 -3.80812E+03  2.39469E+03 -5.33787E+03  8.26154E+03 -1.93127E+03
  7.62593E+03  8.61720E+03  1.40707E+03  1.42613E+04 -1.13702E+04  1.28203E+04 -1.81710E+04  2.23131E+03
 -1.28986E+04 -9.01033E+03 -8.70404E+01 -1.54884E+04  9.63268E+03 -7.43645E+03  1.14040E+04  4.19543E+03
  2.37514E+03  1.18815E+04 -9.17210E+03  1.32424E+04 -1.48994E+04  5.58823E+03 -1.57561E+04 -5.56494E+03
 -8.86067E+03 -1.74921E+04  4.39388E+03 -2.05601E+04  1.65897E+04 -1.29815E+04  1.93186E+04  3.00100E+03
  1.11868E+04  1.49828E+04 -2.41483E+03  1.76938E+04 -1.33433E+04  9.91545E+03 -1.43335E+04 -1.98574E+03
 -1.13530E+04 -1.20771E+04 -2.35596E+03 -1.34559E+04  7.09444E+03 -1.06445E+04  9.44918E+03 -3.64085E+03
  5.55833E+03  2.36302E+03 -1.18305E+03  2.69551E+03 -1.51520E+03 -3.70619E+03  3.68883E+03 -8.76455E+03
  1.27709E+04 -6.03199E+03  1.93692E+04  1.30500E+03  1.83611E+04  1.30615E+04  1.11108E+04  2.37535E+04
 -5.22926E+03  2.72548E+04 -2.32722E+04  2.05826E+04 -2.90852E+04  3.69916E+03 -2.42839E+04 -1.08329E+04
 -1.10876E+04 -1.98605E+04  2.30927E+02 -1.68267E+04  6.04349E+03 -8.40904E+03  5.87581E+03 -5.75413E+03
  4.65274E+03 -3.45379E+03  4.32807E+03 -3.97381E+03  6.54563E+03 -3.61009E+03  9.09133E+03 -2.18789E+03
  1.22519E+04  3.20806E+03  7.73016E+03  1.04213E+04 -2.18214E+03  1.36195E+04 -1.37348E+04  9.71040E+03
 -1.65302E+04 -1.07927E+03 -1.19892E+04 -1.17632E+04 -2.59467E+03 -1.89773E+04  9.69548E+03 -1.87105E+04
  1.93729E+04 -1.00287E+04  2.32226E+04  3.54822E+03  1.50379E+04  1.51479E+04  2.54523E+03  2.04178E+04
 -9.24733E+03  1.60131E+04 -1.15202E+04  5.89300E+03 -7.83486E+03 -1.82094E+03 -4.01628E+03 -2.04952E+03
 -1.85186E+03 -1.00444E+03 -2.45892E+03  3.72238E+03 -6.97897E+03  2.47797E+03 -1.24618E+04 -2.17697E+03
 -9.80693E+03 -1.11335E+04 -2.19335E+02 -1.77130E+04  1.04517E+04 -1.63384E+04  1.69914E+04 -4.90935E+03
  1.71147E+04  8.03505E+03  7.50727E+03  1.58215E+04 -3.45313E+03  1.72910E+04 -1.36823E+04  1.14740E+04
 -1.69149E+04  4.61377E+02 -1.22234E+04 -1.12637E+04 -1.68717E+03 -1.42913E+04  7.45311E+03 -1.10037E+04
  1.16794E+04 -3.74822E+03  7.38584E+03  2.37459E+03  3.09044E+03  4.47980E+03  2.39562E+03  2.91453E+03
  3.71421E+03  1.31448E+03  3.87633E+03  1.83725E+03  5.35785E+03  5.83335E+03  5.10393E+03  9.41581E+03
 -3.16405E+03  1.47392E+04 -1.29686E+04  1.40703E+04 -1.89090E+04  3.17867E+03 -1.91508E+04 -7.97220E+03
 -9.28308E+03 -1.80470E+04  2.71659E+03 -1.97667E+04  1.12337E+04 -1.24085E+04  1.50393E+04 -2.92341E+03
  1.19906E+04  6.19188E+03  3.59906E+03  1.06967E+04 -6.18623E+03  6.96980E+03 -7.22933E+03 -5.62735E+02
 -2.77815E+03 -8.33953E+03  3.42604E+03 -7.47654E+03  7.77447E+03 -4.18991E+03  7.16386E+03  1.18190E+03
  4.66419E+03  3.25101E+03  1.79813E+03  3.34345E+03 -1.52726E+03  1.94879E+03  1.91140E+03 -4.08523E+02
  3.78348E+03 -4.38448E+02  7.76266E+03  3.27572E+03  4.73249E+03  1.01235E+04 -1.20581E+03  1.37409E+04
 -8.02938E+03  9.45527E+03 -1.24495E+04  3.13249E+03 -1.01164E+04 -4.24260E+03 -4.56175E+03 -7.35895E+03
  1.45029E+03 -6.49454E+03  4.90088E+03 -3.32094E+03  4.04068E+03  3.55812E+03 -2.00278E+03  5.46280E+03
 -7.09568E+03  3.60203E+03 -9.26165E+03 -3.87518E+03 -4.27857E+03 -9.70126E+03  1.26676E+03 -9.80456E+03
  6.08833E+03 -6.56522E+03  7.88174E+03 -6.45760E+02  6.82914E+03  3.47554E+03  1.11277E+03  5.96006E+03
 -3.86229E+03  1.46891E+03 -4.66508E+03 -3.86876E+03  2.19971E+03 -8.73788E+03  1.02320E+04 -6.19979E+03
  1.26274E+04  9.16068E+02  1.11414E+04  8.16825E+03  3.69310E+03  1.23013E+04 -5.81560E+03  1.17986E+04
 -1.06367E+04  5.43538E+03 -1.12863E+04 -2.30712E+03 -6.26423E+03 -7.94580E+03  2.51827E+03 -7.42979E+03
  7.40779E+03 -3.17903E+03  6.25808E+03  3.04849E+03  1.61436E+03  7.62840E+03 -1.24105E+02  4.73784E+03
 -2.83504E+03  4.14502E+03 -2.99811E+03  2.29970E+03 -1.79632E+03  9.46881E+02 -2.18328E+03  2.89991E+03
 -3.94715E+03  5.43003E+03 -8.95842E+03  4.50605E+03 -1.29600E+04  3.24613E+02 -1.45922E+04 -9.29362E+03
 -7.35120E+03 -1.79635E+04  3.66661E+03 -2.11452E+04  1.41956E+04 -1.49468E+04  1.92351E+04 -5.50955E+03
  1.72738E+04  4.11581E+03  1.14023E+04  1.19185E+04  1.13955E+03  1.42463E+04 -5.06633E+03  1.00070E+04
 -8.55095E+03  3.21456E+03 -4.71413E+03 -1.11465E+03 -8.93771E+02 -1.46668E+03 -7.92531E+02  4.12125E+01
 -2.33453E+03 -5.44550E+01 -3.02916E+03  2.09214E+02 -1.89168E+03 -3.53437E+03 -6.46723E+01 -5.12846E+03
  5.35501E+03 -3.89293E+03  8.88822E+03 -4.30262E+02  9.56338E+03  7.50218E+03  3.30167E+03  1.44619E+04
 -5.31991E+03  1.59235E+04 -1.53495E+04  9.38792E+03 -1.66483E+04 -7.45318E+02 -1.24325E+04 -1.09526E+04
 -3.66336E+03 -1.48622E+04  4.14430E+03 -1.33716E+04  9.13781E+03 -7.34682E+03  9.69356E+03  2.29704E+02
  5.68107E+03  5.13689E+03 -1.17827E+03  4.19855E+03 -3.27322E+03  2.71866E+02  1.24134E+03 -2.92555E+03
  3.68705E+03 -2.45026E+03  5.46749E+03  1.84034E+03  3.81139E+03  6.19998E+03 -3.89670E+02  7.73050E+03
 -6.60546E+03  7.21254E+03 -1.04880E+04  5.54557E+02 -9.32298E+03 -6.99942E+03 -2.01383E+03 -1.09798E+04
  7.04368E+03 -9.79420E+03  1.11059E+04 -3.61216E+03  1.06340E+04  3.38093E+03  6.58168E+03  9.66205E+03
  1.47898E+03  9.88095E+03 -3.86213E+03  7.57909E+03 -6.04837E+03  5.05623E+03 -5.65782E+03  4.23358E+02
 -2.28287E+03  2.67833E+01 -2.87035E+03  9.64240E+02 -5.01044E+03  1.80985E+03 -6.06333E+03 -1.12203E+03
 -6.30544E+03 -4.90640E+03 -2.51309E+03 -9.79025E+03  4.36318E+03 -9.89960E+03  8.35536E+03 -4.94420E+03
  9.42005E+03  1.88318E+03  5.99738E+03  8.36194E+03 -2.45671E+02  1.00022E+04 -7.62773E+03  6.77446E+03
