 $NMID ID='MM_0lb_SNR400_13hz_g40_32.RAW', FMTDAT='(8E13.5)'
 TRAMP=1., VOLUME=1. $END
  3.10453E+05  5.49298E+02  3.37667E+05  2.50873E+05  8.42859E+04  3.37952E+05 -1.32072E+05  2.50647E+05
 -1.89952E+05  8.27371E+04 -1.11527E+05 -3.27379E+04  4.80700E+02 -5.08536E+04  5.34075E+04 -2.91970E+02
  3.49363E+04  5.32120E+04 -1.70219E+04  7.55408E+04 -6.06997E+04  6.38525E+04 -8.43048E+04  3.16679E+04
 -8.05429E+04 -1.13466E+04 -5.67665E+04 -5.15547E+04 -1.54582E+04 -6.95583E+04  2.69520E+04 -4.60144E+04
  3.99019E+04  4.47069E+03  1.64738E+04  4.84169E+04 -3.43555E+04  4.67215E+04 -6.64321E+04 -3.04882E+02
 -5.31141E+04 -5.65328E+04 -6.63940E+03 -7.73555E+04  3.35437E+04 -5.47505E+04  4.76135E+04 -1.73699E+04
  4.34080E+04  1.14016E+04  3.18792E+04  2.50795E+04  1.58025E+04  2.88512E+04 -5.54630E+03  2.79237E+04
 -2.22417E+04  1.20668E+04 -1.92129E+04 -5.23637E+03  5.80485E+03 -7.33706E+03  2.20848E+04  1.21901E+04
  6.63928E+03  3.55934E+04 -3.24105E+04  3.56286E+04 -6.31190E+04  2.24904E+03 -5.67495E+04 -4.22844E+04
 -1.22439E+04 -6.26922E+04  4.00055E+04 -4.52064E+04  5.79082E+04 -2.68121E+03  3.41718E+04  3.24917E+04
 -6.58490E+03  3.61981E+04 -2.96667E+04  1.52314E+04 -3.01188E+04 -4.39986E+03 -1.66688E+04 -1.07680E+04
 -9.23278E+03 -1.32445E+04 -5.00823E+02 -1.82657E+04  8.31356E+03 -2.29089E+04  1.50709E+04 -1.40346E+04
  1.14711E+04  5.34706E+03 -8.31809E+03  1.27519E+04 -2.11113E+04 -4.47468E+03 -8.97970E+03 -3.32903E+04
  2.31749E+04 -4.27353E+04  4.82590E+04 -1.95185E+04  4.48430E+04  1.97294E+04  1.55641E+04  4.39216E+04
 -1.64302E+04  3.36166E+04 -2.52366E+04  1.40626E+03 -1.00272E+04 -2.75786E+04  2.13997E+04 -3.43251E+04
  4.10540E+04 -9.53202E+03  3.58444E+04  2.37794E+04  1.81449E+04  4.64224E+04 -7.74795E+03  5.00541E+04
 -3.16817E+04  3.31682E+04 -4.20320E+04  9.78127E+03 -4.25918E+04 -1.62898E+04 -2.29891E+04 -3.81824E+04
  7.15711E+03 -3.80341E+04  3.13269E+04 -1.45389E+04  2.92410E+04  1.07934E+04  3.68307E+03  1.99060E+04
 -1.36920E+04  8.78274E+03 -1.01579E+04 -7.82638E+03  6.13070E+03 -1.09329E+04  1.78956E+04  5.48273E+03
  1.40791E+04  2.16962E+04 -5.56893E+03  2.49071E+04 -2.22638E+04  1.11416E+04 -2.74403E+04 -5.00033E+03
 -2.01623E+04 -1.70064E+04 -8.36597E+03 -2.05283E+04  3.69693E+03 -2.00025E+04  1.57125E+04 -1.84631E+04
  2.60487E+04 -1.25301E+04  3.30167E+04  2.67394E+03  2.38937E+04  1.98608E+04  3.85778E+03  3.63268E+04
 -1.71973E+04  3.09109E+04 -2.76339E+04  1.09530E+04 -2.10896E+04 -9.87069E+03 -4.76685E+03 -1.37906E+04
  1.60025E+03 -2.63160E+03 -3.95549E+03  7.02514E+03 -1.63424E+04  5.51800E+03 -1.66101E+04 -7.21173E+03
 -9.54108E+03 -1.92479E+04  5.29410E+03 -2.34137E+04  1.59441E+04 -1.65177E+04  1.80039E+04 -9.88369E+02
  1.11023E+04  1.30363E+04 -1.18191E+03  1.90587E+04 -1.32900E+04  1.06967E+04 -1.88277E+04 -3.86179E+03
 -1.38500E+04 -1.66802E+04 -1.70670E+03 -2.24004E+04  1.08182E+04 -1.91878E+04  1.92442E+04 -9.41299E+03
  1.75639E+04  1.07982E+02  1.35268E+04  3.88521E+03  6.60154E+03  1.19528E+03  9.68283E+03 -1.68011E+03
  1.75797E+04  3.23847E+03  1.94152E+04  1.53638E+04  1.23801E+04  3.04826E+04 -2.56755E+03  3.43807E+04
 -2.02114E+04  2.78901E+04 -3.18439E+04  1.38154E+04 -3.33817E+04 -2.93027E+03 -2.82767E+04 -1.97034E+04
 -1.20214E+04 -2.81928E+04  9.41899E+03 -2.50225E+04  2.16350E+04 -1.26675E+04  1.91543E+04  5.76993E+03
  8.07429E+03  1.46763E+04 -9.15880E+03  1.29657E+04 -1.61888E+04  2.26813E+03 -1.26319E+04 -1.03878E+04
 -4.85159E+02 -1.57568E+04  8.37160E+03 -1.19949E+04  1.01388E+04 -1.16222E+03  2.20618E+03  6.59151E+03
 -6.75874E+03  1.94765E+03 -6.00435E+03 -5.45971E+03 -9.22756E+02 -1.41290E+04  1.00334E+04 -1.42451E+04
  1.71144E+04 -7.97133E+03  1.79766E+04  2.75945E+03  1.63733E+04  1.37901E+04  7.56066E+03  2.12627E+04
 -2.96338E+03  2.21629E+04 -1.40253E+04  1.38985E+04 -1.55310E+04  3.40916E+03 -1.22009E+04 -3.19799E+03
 -4.93883E+03 -5.51469E+03 -1.26039E+03  1.03001E+03 -2.61224E+03  2.33949E+03 -5.60672E+03  4.71289E+03
 -1.08031E+04 -8.90247E+02 -1.16643E+04 -9.31179E+03 -4.83105E+03 -1.54485E+04  5.02400E+03 -1.15510E+04
  1.02370E+04 -4.71120E+03  7.60962E+03  3.11487E+03  8.41586E+02  4.70296E+03 -5.27360E+03  2.87467E+02
 -5.34153E+03 -7.29805E+03 -7.90190E+02 -1.09172E+04  6.13613E+03 -1.13999E+04  1.46194E+04 -6.06483E+03
  1.63399E+04  1.29800E+03  1.20668E+04  9.40899E+03  2.50808E+03  1.35104E+04 -7.05149E+03  1.15765E+04
 -9.79382E+03  3.68443E+03 -4.87459E+03 -3.27338E+03  1.41788E+03 -3.09374E+03  5.21567E+03 -1.36184E+03
  5.54228E+03  4.81401E+03  1.00914E+03  9.19573E+03 -5.89578E+03  8.60345E+03 -1.12075E+04  1.86398E+03
 -7.03013E+03 -5.92941E+03  3.03161E+02 -9.80330E+03  6.08235E+03 -4.46074E+03  6.86308E+03  1.73241E+03
  1.80808E+03  6.56646E+03 -6.07898E+03  7.73305E+03 -8.06974E+03  3.39846E+03 -8.10692E+03 -3.16103E+03
 -5.42851E+03 -1.02781E+04  2.05475E+03 -1.25210E+04  9.52852E+03 -6.59163E+03  1.10112E+04  2.29605E+03
  7.48313E+03  8.43768E+03 -1.02531E+03  1.05421E+04 -8.41908E+03  6.51457E+03 -8.29348E+03 -7.21517E+02
 -8.13064E+03 -7.37859E+03 -1.56665E+03 -8.45967E+03  4.04043E+03 -6.88100E+03  4.72517E+03 -2.92389E+03
  3.97979E+03  1.10762E+03 -4.64198E+02  1.30140E+03 -3.97685E+01 -1.97918E+03  8.87645E+02 -4.36437E+03
  6.64976E+03 -2.54944E+03  1.00844E+04  9.03635E+02  9.70600E+03  6.41899E+03  6.91863E+03  1.35644E+04
 -2.63858E+03  1.49468E+04 -1.30503E+04  1.09048E+04 -1.67220E+04  2.44128E+03 -1.30371E+04 -5.77287E+03
 -6.74238E+03 -1.10591E+04 -3.63576E+02 -9.04106E+03  3.12600E+03 -4.02688E+03  3.19596E+03 -3.38730E+03
  2.57271E+03 -1.95808E+03  2.95339E+03 -2.61641E+03  3.98025E+03 -2.26936E+03  5.19879E+03 -4.64046E+02
  7.23476E+03  1.85618E+03  3.18606E+03  5.47602E+03 -1.89741E+03  6.51854E+03 -6.91859E+03  5.17613E+03
 -8.74664E+03 -1.45066E+03 -5.33684E+03 -5.82151E+03 -1.22144E+02 -8.86347E+03  5.17320E+03 -9.80886E+03
  1.03317E+04 -5.51741E+03  1.21700E+04  1.14469E+03  8.69707E+03  8.37517E+03  1.12932E+03  1.04953E+04
 -4.88818E+03  8.92232E+03 -6.12299E+03  4.35613E+03 -3.70079E+03 -1.50991E+03 -1.31247E+03 -8.93019E+02
 -1.43440E+03  6.85156E+02 -1.72626E+03  2.16322E+03 -3.42274E+03  1.77009E+03 -6.51085E+03 -7.72309E+02
 -3.33566E+03 -6.82492E+03 -1.06636E+00 -9.09940E+03  5.23032E+03 -7.71739E+03  8.07227E+03 -1.95106E+03
  8.02482E+03  4.06151E+03  4.09394E+03  6.91491E+03 -1.69651E+03  8.40063E+03 -6.25966E+03  4.87758E+03
 -8.11709E+03  4.71084E+02 -6.44279E+03 -5.18961E+03 -1.43559E+03 -7.39551E+03  3.25844E+03 -5.00919E+03
  5.16431E+03 -2.40613E+03  4.18494E+03  1.54192E+03  1.21650E+03  2.70625E+03  6.72814E+02  9.32661E+02
  2.42076E+03  4.69500E+02  1.62624E+03  1.27674E+03  2.71395E+03  3.61252E+03  2.69502E+03  3.94190E+03
 -1.81316E+03  6.31569E+03 -5.61473E+03  6.15863E+03 -8.05728E+03  2.04366E+03 -8.79873E+03 -3.05932E+03
 -3.51502E+03 -8.11963E+03  1.19371E+03 -9.08329E+03  4.28515E+03 -5.92386E+03  6.61290E+03 -1.68774E+03
  4.86835E+03  3.18467E+03  7.64702E+02  4.80614E+03 -1.95802E+03  2.89882E+03 -2.98046E+03 -2.55553E+02
 -1.39499E+03 -3.30614E+03  1.73922E+03 -3.29857E+03  3.17030E+03 -1.85938E+03  3.60870E+03  1.22577E+03
  1.45633E+03  1.28577E+03  1.23777E+03  1.12964E+02 -8.01068E+02  1.68478E+03  1.18078E+03 -3.82009E+02
  1.04908E+03 -1.80154E+02  3.53096E+03  1.31813E+03  2.02783E+03  4.66087E+03 -3.93159E+02  5.78725E+03
 -3.77064E+03  3.75245E+03 -4.63510E+03  7.91340E+02 -4.18646E+03 -1.87856E+03 -1.48119E+03 -2.50934E+03
 -1.57307E+01 -3.55377E+03  2.52700E+03 -1.73255E+03  2.39272E+03  2.32026E+03 -1.20433E+03  2.56146E+03
 -2.94711E+03  1.87482E+03 -3.49030E+03 -1.69305E+03 -2.36010E+03 -4.67968E+03  9.19088E+02 -4.10684E+03
  2.77168E+03 -2.16342E+03  2.72369E+03  8.65496E+01  2.60456E+03  7.70387E+02  7.06581E+02  2.47726E+03
 -1.10620E+03  4.34367E+02 -2.06379E+03 -1.40841E+03  9.03407E+02 -2.94981E+03  4.16465E+03 -2.63326E+03
  3.87287E+03  7.38551E+02  4.99667E+03  3.22184E+03  1.54778E+03  4.34357E+03 -9.78146E+02  4.19831E+03
 -4.07006E+03  1.38612E+03 -4.54080E+03  5.31179E+01 -2.34782E+03 -3.06098E+03  6.49800E+02 -2.76316E+03
  3.48812E+03 -1.54455E+03  2.76679E+03  1.66796E+03  9.38997E+01  2.28507E+03  5.01387E+01  2.45244E+03
 -1.26571E+03  2.33797E+03 -9.41666E+02  5.11476E+02 -3.28056E+02  3.99691E+02 -1.02698E+03  2.56811E+02
 -1.35136E+03  2.08226E+03 -3.67886E+03  1.41148E+03 -4.82355E+03  7.07863E+01 -5.78723E+03 -2.64581E+03
 -2.18657E+03 -6.33382E+03  1.41254E+03 -7.54787E+03  4.00368E+03 -5.32079E+03  7.19112E+03 -2.43008E+03
  6.89149E+03  4.31411E+02  3.72028E+03  4.58166E+03  1.98070E+01  4.23917E+03 -2.04569E+03  3.27816E+03
 -2.96495E+03  1.63070E+03 -1.82163E+03 -2.70069E+02 -8.37387E+02 -3.41617E+02 -2.64061E+02  1.35031E+02
 -1.06359E+03  6.87082E+02 -1.46514E+03 -3.14148E+02  4.87910E+02 -1.58520E+03 -1.47802E+02 -1.85074E+03
  2.19013E+03 -1.55851E+03  2.43535E+03 -4.01383E+01  3.39140E+03  2.40512E+03  5.64387E+02  4.36619E+03
 -1.96277E+03  5.64161E+03 -4.80478E+03  3.21461E+03 -5.93563E+03 -3.87295E+02 -3.86303E+03 -3.43125E+03
 -1.88222E+03 -5.17175E+03  8.60693E+02 -4.78594E+03  2.66726E+03 -2.12268E+03  2.43839E+03  4.19304E+02
  1.86752E+03  1.60193E+03 -5.43202E+02  1.26500E+03 -9.37516E+02 -2.15729E+02  3.54462E+02 -1.73086E+03
  1.86121E+03 -2.60868E+02  1.45402E+03  1.16179E+03  1.39000E+03  1.74938E+03  5.28450E+02  2.16303E+03
 -1.74712E+03  1.58172E+03 -3.49199E+03  8.80745E+02 -2.87135E+03 -2.45254E+03 -4.52065E+02 -3.75219E+03
  1.85795E+03 -2.55136E+03  3.51598E+03 -1.25193E+02  3.23826E+03  2.04785E+02  1.88548E+03  2.84358E+03
 -4.76437E+02  2.43874E+03 -1.08102E+03  1.65550E+03 -1.73962E+03  1.21890E+03 -1.25057E+03  2.83189E+02
 -1.17872E+03  1.71064E+02 -1.53272E+03  5.49431E+02 -1.73574E+03  1.31380E+03 -2.14096E+03 -1.39410E+03
 -2.18681E+03 -8.94337E+02 -7.42470E+02 -2.57101E+03  1.43852E+03 -3.29220E+03  2.89236E+03 -1.01992E+03
  3.26136E+03  2.47730E+02  1.90534E+03  1.67179E+03 -6.21086E+02  2.56826E+03 -2.05873E+03  2.71301E+03
