 $NMID ID='MM_0lb_SNR400_17hz_g50_77.RAW', FMTDAT='(8E13.5)'
 TRAMP=1., VOLUME=1. $END
  3.09722E+05 -2.16467E+02  3.37876E+05  2.50092E+05  8.44496E+04  3.37725E+05 -1.32791E+05  2.50284E+05
 -1.89838E+05  8.31906E+04 -1.11592E+05 -3.33498E+04  6.87086E+02 -5.08793E+04  5.36850E+04 -4.08282E+02
  3.53633E+04  5.28054E+04 -1.68117E+04  7.49976E+04 -6.07298E+04  6.25950E+04 -8.32617E+04  3.19985E+04
 -7.99796E+04 -1.16199E+04 -5.69244E+04 -5.03444E+04 -1.49687E+04 -6.92329E+04  2.69867E+04 -4.52774E+04
  3.98569E+04  3.78764E+03  1.56966E+04  4.69009E+04 -3.44242E+04  4.67114E+04 -6.63666E+04  2.56351E+02
 -5.26698E+04 -5.65206E+04 -6.63220E+03 -7.62293E+04  3.35817E+04 -5.37604E+04  4.76358E+04 -1.71305E+04
  4.23332E+04  1.12023E+04  3.09998E+04  2.47077E+04  1.63779E+04  2.87592E+04 -4.85071E+03  2.66413E+04
 -2.23182E+04  1.24092E+04 -1.85476E+04 -4.18977E+03  5.22217E+03 -7.90131E+03  2.16134E+04  1.13721E+04
  7.51351E+03  3.40898E+04 -3.12963E+04  3.43623E+04 -6.20881E+04  2.43239E+03 -5.63122E+04 -4.16305E+04
 -1.23763E+04 -6.15946E+04  3.90192E+04 -4.40108E+04  5.67994E+04 -1.77106E+03  3.24693E+04  3.13642E+04
 -7.16102E+03  3.46634E+04 -2.92410E+04  1.40777E+04 -2.86127E+04 -5.32812E+03 -1.56334E+04 -1.04887E+04
 -8.10199E+03 -1.20874E+04 -9.56164E+02 -1.68389E+04  6.86044E+03 -2.24603E+04  1.49592E+04 -1.36107E+04
  1.20065E+04  4.44361E+03 -6.93680E+03  1.29310E+04 -1.96115E+04 -3.29831E+03 -7.98799E+03 -3.17462E+04
  2.13541E+04 -4.21169E+04  4.58276E+04 -1.89552E+04  4.32282E+04  1.91440E+04  1.52147E+04  4.23509E+04
 -1.58625E+04  3.26888E+04 -2.40692E+04  1.77122E+03 -9.15241E+03 -2.70414E+04  2.10099E+04 -3.19631E+04
  3.92827E+04 -7.71240E+03  3.30288E+04  2.29316E+04  1.63359E+04  4.43404E+04 -8.16242E+03  4.77723E+04
 -3.02248E+04  3.11369E+04 -3.94305E+04  9.09958E+03 -4.06013E+04 -1.58122E+04 -2.20317E+04 -3.56534E+04
  7.76620E+03 -3.56828E+04  3.09548E+04 -1.38709E+04  2.74301E+04  1.09327E+04  3.68374E+03  1.79937E+04
 -1.33759E+04  7.96941E+03 -9.71459E+03 -7.55729E+03  5.70841E+03 -1.00814E+04  1.78009E+04  5.73381E+03
  1.31232E+04  2.19720E+04 -6.41526E+03  2.41494E+04 -2.13654E+04  1.05521E+04 -2.67894E+04 -6.42356E+03
 -1.80204E+04 -1.68677E+04 -6.83622E+03 -1.84754E+04  3.51705E+03 -1.65295E+04  1.35317E+04 -1.59304E+04
  2.34599E+04 -1.20654E+04  2.95490E+04  1.96241E+03  2.29695E+04  1.77728E+04  3.71712E+03  3.42431E+04
 -1.68919E+04  2.82870E+04 -2.70268E+04  9.97335E+03 -2.02366E+04 -1.05259E+04 -4.38378E+03 -1.32961E+04
  2.39364E+03 -3.72889E+03 -3.93535E+03  5.83100E+03 -1.42269E+04  5.28083E+03 -1.46358E+04 -5.74601E+03
 -9.49765E+03 -1.63645E+04  4.74016E+03 -2.07847E+04  1.42011E+04 -1.51905E+04  1.59206E+04 -1.53898E+03
  9.65108E+03  1.13642E+04 -1.04850E+03  1.75128E+04 -1.12746E+04  9.83108E+03 -1.66484E+04 -3.60546E+03
 -1.22876E+04 -1.51970E+04 -1.64460E+03 -2.02835E+04  9.13743E+03 -1.71020E+04  1.70377E+04 -8.26016E+03
  1.59152E+04  8.96995E+02  1.11309E+04  4.23283E+03  5.60897E+03  5.51206E+02  8.00882E+03 -1.36787E+03
  1.50820E+04  3.26759E+03  1.62003E+04  1.31323E+04  1.00756E+04  2.71946E+04 -2.59739E+03  2.93461E+04
 -1.68741E+04  2.32411E+04 -2.71350E+04  1.15550E+04 -2.80227E+04 -1.85328E+03 -2.40387E+04 -1.59620E+04
 -1.14455E+04 -2.31960E+04  7.29173E+03 -2.20550E+04  1.84340E+04 -1.19205E+04  1.63611E+04  4.14581E+03
  6.58264E+03  1.24597E+04 -6.95104E+03  1.10197E+04 -1.39856E+04  1.77426E+03 -1.08290E+04 -8.68268E+03
 -4.54728E+02 -1.36554E+04  6.45148E+03 -1.02809E+04  8.09803E+03 -1.35918E+03  1.47608E+03  5.41927E+03
 -6.19017E+03  1.55413E+03 -4.34303E+03 -5.10372E+03  3.24742E+02 -1.16952E+04  9.08339E+03 -1.17222E+04
  1.37230E+04 -5.70682E+03  1.38811E+04  2.94256E+03  1.24088E+04  1.07395E+04  5.57038E+03  1.67881E+04
 -1.78284E+03  1.81415E+04 -1.10398E+04  1.17563E+04 -1.30956E+04  2.73389E+03 -9.34767E+03 -2.37364E+03
 -4.61822E+03 -3.80541E+03 -1.09039E+03  1.41504E+03 -2.69526E+03  2.79822E+03 -4.56727E+03  3.99562E+03
 -9.02942E+03 -8.76040E+02 -9.59201E+03 -7.64605E+03 -3.69239E+03 -1.32274E+04  3.97699E+03 -9.61655E+03
  8.30328E+03 -4.38036E+03  6.02060E+03  2.26633E+03  3.69189E+02  3.30115E+03 -4.60385E+03 -4.69835E+02
 -3.35802E+03 -6.32886E+03 -5.60364E+02 -8.78118E+03  4.54010E+03 -9.34104E+03  1.11196E+04 -4.58411E+03
  1.32202E+04  1.00977E+03  1.04542E+04  7.31920E+03  1.98157E+03  9.76001E+03 -5.94138E+03  9.34363E+03
 -7.29400E+03  2.61364E+03 -4.07284E+03 -1.59170E+03  1.23235E+03 -1.92586E+03  5.19255E+03 -1.38661E+03
  4.41437E+03  3.36069E+03  6.86928E+02  6.73295E+03 -4.81213E+03  6.82456E+03 -8.71632E+03  1.65979E+03
 -5.22160E+03 -4.59120E+03  6.29167E+02 -7.75075E+03  4.00791E+03 -4.11612E+03  4.37765E+03  1.48406E+03
  7.05076E+02  4.19580E+03 -4.81682E+03  5.55356E+03 -6.25786E+03  3.08721E+03 -5.52732E+03 -1.44849E+03
 -3.30700E+03 -7.55127E+03  1.53819E+03 -8.58020E+03  6.83286E+03 -5.54582E+03  7.94433E+03  9.82724E+02
  5.48083E+03  6.72848E+03 -3.02375E+01  7.89395E+03 -5.51248E+03  4.79392E+03 -6.56111E+03 -3.95154E+02
 -7.05680E+03 -5.72043E+03 -1.83513E+03 -6.07640E+03  2.60348E+03 -5.10373E+03  3.13055E+03 -3.05487E+03
  2.91473E+03  1.07050E+03 -3.72405E+02  1.74255E+03  1.83135E+02 -1.10641E+03 -2.86585E+02 -2.28083E+03
  4.49880E+03 -8.97177E+02  6.51187E+03  6.86421E+02  6.47329E+03  3.97684E+03  5.65092E+03  8.74873E+03
 -1.60990E+03  1.06455E+04 -8.69770E+03  8.57205E+03 -1.14556E+04  1.38591E+03 -9.58277E+03 -3.10586E+03
 -5.14089E+03 -7.44375E+03 -4.28356E+02 -5.76459E+03  2.51735E+03 -2.88995E+03  1.47215E+03 -2.36169E+03
  1.09865E+03 -1.38045E+03  2.25315E+03 -2.45811E+03  3.38013E+03 -1.68679E+03  4.45700E+03 -2.17960E+02
  5.04397E+03  1.29925E+03  2.18692E+03  3.76631E+03 -1.22553E+03  3.98354E+03 -5.29821E+03  2.91222E+03
 -5.28024E+03 -1.03356E+03 -2.75633E+03 -4.69916E+03 -1.47292E+02 -6.18376E+03  3.65011E+03 -6.59865E+03
  6.60002E+03 -4.12760E+03  7.94663E+03  3.06329E+02  5.99268E+03  5.61882E+03  1.14729E+03  7.14061E+03
 -2.58601E+03  6.84842E+03 -4.14694E+03  1.92140E+03 -2.49336E+03 -1.30544E+03 -7.15314E+02 -4.66631E+02
 -1.02052E+03 -2.12826E-01 -1.90637E+03  1.80783E+03 -2.83347E+03  1.22540E+03 -5.26990E+03 -4.01915E+02
 -1.67739E+03 -5.02258E+03  7.13467E+02 -5.79673E+03  3.86776E+03 -5.11816E+03  4.68745E+03 -1.98120E+03
  5.01525E+03  2.87536E+03  2.12032E+03  4.11058E+03 -9.89259E+02  5.54755E+03 -3.22985E+03  3.45792E+03
 -4.41775E+03  1.70825E+02 -3.79255E+03 -2.58209E+03 -8.89811E+01 -3.92451E+03  1.70560E+03 -3.50787E+03
  3.47615E+03 -7.70287E+02  2.54924E+03  5.17463E+02  9.14620E+02  2.15238E+03  8.39201E+02  5.15831E+02
  2.48607E+03  9.39946E+02  1.33207E+03  1.21763E+03  1.19375E+03  2.35908E+03  1.29919E+03  2.31615E+03
 -1.35321E+03  3.70962E+03 -3.04763E+03  5.44765E+03 -4.23123E+03  1.35006E+03 -5.57374E+03 -1.03167E+03
 -1.89530E+03 -3.90480E+03  1.02141E+03 -5.31186E+03  2.00611E+03 -3.23169E+03  3.88516E+03 -4.87688E+02
  2.98000E+03  2.29440E+03 -1.40673E+02  2.79155E+03 -1.51010E+03  1.93568E+03 -1.50430E+03 -1.08187E+02
 -5.25822E+02 -1.52089E+03  1.68432E+03 -1.77227E+03  1.80402E+03 -1.12096E+03  1.68464E+03  6.02793E+02
  9.00748E+02  4.73822E+02  9.98271E+02 -4.94207E+01 -2.44391E+02  6.80249E+02  1.60543E+03  1.25778E+02
  4.19774E+02  2.87737E+02  2.50674E+03  6.53220E+02  1.18180E+03  2.98570E+03 -4.12828E+02  4.01907E+03
 -2.51313E+03  1.05590E+03 -2.47748E+03  7.85202E+02 -2.47853E+03 -1.19338E+03 -9.67605E+01 -1.29139E+03
  7.14399E+02 -1.55972E+03  4.05543E+02 -8.10378E+02  1.16051E+03  1.18571E+03 -6.05200E+02  8.58823E+02
 -1.70431E+03  9.30568E+02 -2.02359E+03 -1.02866E+03 -6.51187E+02 -2.94957E+03  1.09533E+01 -2.66788E+03
  5.70499E+02 -4.13917E+02  1.26465E+03  3.93277E+02  1.34562E+03  5.80747E+02  7.75405E+02  1.20613E+03
 -8.25926E+02  4.87381E+01 -1.58119E+03 -7.13010E+02  6.24145E+02 -1.36030E+03  2.09523E+03 -1.26607E+03
  1.94698E+03  4.37311E+02  3.30725E+03  6.49714E+02  1.25394E+03  1.93679E+03 -4.00159E+02  2.29731E+03
 -1.56817E+03 -1.17359E+02 -1.77279E+03 -3.05490E+02 -7.73310E+02 -1.97259E+03  2.81805E+02 -2.02218E+02
  1.76681E+03 -7.59300E+02  1.27147E+03  1.13732E+03  1.36530E+01  1.22087E+03  5.87474E+02  2.16194E+03
 -4.96184E+02  1.50411E+03 -7.02646E+02  7.10383E+02 -2.98857E+02  7.47632E+02 -9.04812E+02  7.71996E+02
 -4.55763E+02  1.32717E+03 -2.35866E+03  1.52987E+02 -2.64367E+03  2.16563E+02 -2.17624E+03 -1.37952E+03
 -1.39116E+03 -3.02093E+03  9.71725E+02 -3.57255E+03  1.91044E+03 -2.96541E+03  3.61937E+03 -1.39163E+03
  2.94340E+03 -1.11095E+02  1.85873E+03  2.19692E+03 -6.10527E+02  1.76007E+03 -5.75646E+02  2.16618E+03
 -1.19887E+03  1.45740E+03 -5.38048E+02 -4.36339E+02 -5.31271E+02  7.02317E+01 -7.49180E+02  4.70213E+01
 -1.16520E+03 -9.17079E+00 -1.11085E+03  3.47622E+02 -2.25134E+02 -6.79634E+02 -1.93399E+02 -7.93093E+02
  1.39453E+03 -7.00473E+02  8.24772E+02  9.04531E+01  1.28714E+03  1.64100E+03  5.22038E+01  2.29898E+03
 -1.53466E+03  2.91007E+03 -2.12140E+03  1.75721E+03 -2.96749E+03  2.93051E+02 -1.86451E+03 -1.54248E+03
 -1.25433E+03 -1.75844E+03 -1.33967E+02 -2.00429E+03  5.62087E+02 -6.76956E+02  1.30241E+03  1.75970E+01
  6.99419E+02 -2.55317E+02  1.65493E+01  9.54478E+02 -2.63816E+02  6.03564E+01  6.65222E+02 -5.27442E+02
  8.62928E+02  2.62267E+02  4.34102E+02  7.21663E+02  5.15336E+02  8.23680E+02 -4.78249E+02  3.05503E+02
 -1.20917E+03  1.07040E+03 -8.11715E+02  3.37291E+02 -1.05981E+03 -4.99552E+02 -2.75156E+02 -1.98803E+03
  8.43945E+02 -8.42584E+02  1.13614E+03  2.12820E+02  8.21290E+02 -5.45461E+02  1.12451E+03  9.50520E+02
  6.65229E+02  1.14705E+03 -4.84624E+02  5.63849E+02 -1.10102E+03  5.80096E+02 -3.01776E+02 -2.77039E+02
 -7.79718E+00  2.95672E+02 -8.00988E+02  3.23616E+02 -7.82550E+02  1.94731E+02 -1.09559E+03 -1.74220E+02
 -1.56792E+03  3.00843E+02 -6.51851E+02 -1.68232E+03  7.23540E+02 -1.59391E+03  1.29184E+03 -2.62826E+02
  4.17789E+02  1.14737E+02 -3.66069E+02  4.44309E+01  3.18129E+02  8.55026E+02 -3.26371E+02  9.12942E+02
