 $NMID ID='MM_0lb_SNR400_12hz_g40_22.RAW', FMTDAT='(8E13.5)'
 TRAMP=1., VOLUME=1. $END
  3.10202E+05  1.15583E+02  3.37995E+05  2.50961E+05  8.49888E+04  3.38308E+05 -1.33216E+05  2.51275E+05
 -1.90106E+05  8.34770E+04 -1.11261E+05 -3.25352E+04  4.38560E+02 -5.02615E+04  5.30894E+04 -3.05947E+02
  3.53725E+04  5.26888E+04 -1.64995E+04  7.51176E+04 -6.06969E+04  6.35041E+04 -8.52658E+04  3.22122E+04
 -8.12899E+04 -1.15868E+04 -5.70300E+04 -5.16825E+04 -1.42643E+04 -7.00411E+04  2.72207E+04 -4.54137E+04
  4.01189E+04  3.46900E+03  1.61114E+04  4.72123E+04 -3.47807E+04  4.75843E+04 -6.71633E+04 -8.33960E+02
 -5.30200E+04 -5.68023E+04 -6.49642E+03 -7.69192E+04  3.39428E+04 -5.54270E+04  4.78567E+04 -1.72517E+04
  4.38773E+04  1.10092E+04  3.21547E+04  2.55944E+04  1.58095E+04  2.98599E+04 -5.09461E+03  2.72461E+04
 -2.14700E+04  1.21045E+04 -1.80882E+04 -4.72060E+03  6.11460E+03 -6.92406E+03  2.23555E+04  1.28004E+04
  6.57140E+03  3.59123E+04 -3.20496E+04  3.53790E+04 -6.32051E+04  2.02189E+03 -5.72297E+04 -4.25276E+04
 -1.25203E+04 -6.30437E+04  3.96261E+04 -4.59326E+04  5.87186E+04 -2.48249E+03  3.47073E+04  3.28673E+04
 -6.24722E+03  3.68742E+04 -3.05143E+04  1.66563E+04 -3.01495E+04 -4.48901E+03 -1.72572E+04 -1.12452E+04
 -8.41791E+03 -1.29380E+04 -6.56938E+02 -1.84979E+04  6.49032E+03 -2.31186E+04  1.58792E+04 -1.26924E+04
  1.15071E+04  5.66593E+03 -8.51383E+03  1.26782E+04 -2.17738E+04 -4.70730E+03 -8.92786E+03 -3.44644E+04
  2.28398E+04 -4.38049E+04  4.94264E+04 -1.93607E+04  4.60266E+04  1.98713E+04  1.58284E+04  4.47166E+04
 -1.64485E+04  3.44225E+04 -2.59180E+04  2.38087E+03 -1.02539E+04 -2.78976E+04  2.16524E+04 -3.47824E+04
  4.19728E+04 -8.73189E+03  3.64589E+04  2.38580E+04  1.87791E+04  4.75087E+04 -8.16326E+03  5.20464E+04
 -3.30227E+04  3.45918E+04 -4.27913E+04  1.00873E+04 -4.36015E+04 -1.68987E+04 -2.42516E+04 -3.87392E+04
  7.72367E+03 -3.82688E+04  3.14400E+04 -1.42336E+04  2.94178E+04  1.03612E+04  4.24532E+03  1.97941E+04
 -1.31972E+04  8.37065E+03 -1.05744E+04 -7.59223E+03  5.50769E+03 -1.11468E+04  1.85630E+04  4.86752E+03
  1.35101E+04  2.28911E+04 -6.32226E+03  2.54201E+04 -2.24857E+04  1.19168E+04 -2.89318E+04 -4.01168E+03
 -2.15240E+04 -1.76995E+04 -9.14129E+03 -2.12868E+04  4.03089E+03 -2.03929E+04  1.65347E+04 -1.93497E+04
  2.75854E+04 -1.33137E+04  3.35113E+04  3.42536E+03  2.50522E+04  2.07596E+04  3.89912E+03  3.76813E+04
 -1.82647E+04  3.12923E+04 -2.86374E+04  1.02162E+04 -2.14885E+04 -1.05852E+04 -5.02632E+03 -1.26689E+04
  1.81536E+03 -2.89656E+03 -5.65971E+03  6.72564E+03 -1.71720E+04  5.11994E+03 -1.75439E+04 -7.32973E+03
 -1.00778E+04 -1.99588E+04  5.50306E+03 -2.38059E+04  1.59349E+04 -1.74589E+04  1.92143E+04 -1.59943E+03
  1.20984E+04  1.33704E+04 -9.96240E+02  1.96990E+04 -1.30836E+04  1.18056E+04 -1.94105E+04 -3.57859E+03
 -1.49287E+04 -1.78938E+04 -2.03783E+03 -2.35060E+04  1.04241E+04 -2.04123E+04  1.97943E+04 -9.87823E+03
  1.81569E+04  4.98043E+01  1.33313E+04  5.03739E+03  7.38230E+03  6.25846E+02  9.95430E+03 -1.69871E+03
  1.84683E+04  2.15579E+03  2.06929E+04  1.60266E+04  1.37767E+04  3.19681E+04 -2.59330E+03  3.60052E+04
 -2.04072E+04  2.96618E+04 -3.37497E+04  1.50939E+04 -3.61277E+04 -2.32523E+03 -3.00182E+04 -2.01518E+04
 -1.23054E+04 -2.95803E+04  1.04367E+04 -2.64166E+04  2.26461E+04 -1.32688E+04  1.99218E+04  5.53813E+03
  7.35389E+03  1.52264E+04 -9.36352E+03  1.35024E+04 -1.69152E+04  2.12910E+03 -1.30844E+04 -1.06249E+04
  2.21823E+02 -1.60801E+04  8.75460E+03 -1.21650E+04  1.13667E+04 -1.79232E+03  2.88918E+03  6.34014E+03
 -7.67175E+03  2.61609E+03 -6.56968E+03 -6.19492E+03 -8.02805E+02 -1.40914E+04  1.03369E+04 -1.55903E+04
  1.80083E+04 -8.30033E+03  2.02090E+04  3.05058E+03  1.76717E+04  1.44416E+04  7.70072E+03  2.25235E+04
 -4.21311E+03  2.36523E+04 -1.53634E+04  1.44251E+04 -1.71318E+04  3.38157E+03 -1.18687E+04 -4.88865E+03
 -5.75491E+03 -5.40244E+03 -8.58260E+02  6.01888E+02 -2.15959E+03  2.14868E+03 -5.08510E+03  4.29177E+03
 -1.11393E+04 -6.20064E+02 -1.16765E+04 -9.94521E+03 -4.77229E+03 -1.58562E+04  5.43328E+03 -1.22843E+04
  9.79994E+03 -4.86766E+03  7.80417E+03  2.97225E+03 -1.95585E+02  4.49751E+03 -5.95462E+03  2.65746E+02
 -4.92279E+03 -7.96499E+03 -8.09692E+02 -1.18754E+04  6.32510E+03 -1.25762E+04  1.47334E+04 -6.00850E+03
  1.82613E+04  1.58374E+03  1.29451E+04  1.07775E+04  2.05650E+03  1.45622E+04 -7.81876E+03  1.24815E+04
 -1.04779E+04  3.77375E+03 -5.70066E+03 -2.48529E+03  1.70520E+03 -3.76292E+03  6.84212E+03 -7.23497E+02
  6.27631E+03  5.02223E+03  9.35598E+02  9.72174E+03 -6.98081E+03  9.21065E+03 -1.21726E+04  2.46780E+03
 -7.78682E+03 -6.83745E+03  1.17261E+02 -1.00788E+04  6.23397E+03 -5.66247E+03  6.76880E+03  1.94738E+03
  1.33445E+03  7.05185E+03 -6.25748E+03  8.60408E+03 -1.01783E+04  3.45129E+03 -8.84501E+03 -3.48366E+03
 -5.80297E+03 -1.11115E+04  2.53625E+03 -1.28812E+04  1.09716E+04 -8.23976E+03  1.20382E+04  2.30238E+03
  7.28484E+03  1.00124E+04 -4.86043E+02  1.21066E+04 -8.55949E+03  7.01241E+03 -9.47050E+03 -9.90007E+02
 -8.11540E+03 -8.48855E+03 -1.60756E+03 -9.46060E+03  4.53038E+03 -7.39070E+03  5.44853E+03 -3.31312E+03
  4.41968E+03  1.08188E+03 -8.26421E+01  1.30088E+03  9.33375E+01 -2.12608E+03  2.13880E+03 -5.21570E+03
  7.78841E+03 -2.49799E+03  1.12790E+04  1.61581E+03  1.08373E+04  7.31992E+03  8.11367E+03  1.39529E+04
 -3.28255E+03  1.71315E+04 -1.37512E+04  1.25105E+04 -1.79383E+04  2.72683E+03 -1.50065E+04 -6.03999E+03
 -7.43980E+03 -1.30404E+04  3.70018E+02 -1.00595E+04  3.27164E+03 -5.14468E+03  3.72805E+03 -3.46716E+03
  2.55044E+03 -2.35522E+03  2.71231E+03 -2.90245E+03  4.38411E+03 -2.45355E+03  6.26566E+03 -4.54346E+02
  8.51006E+03  1.41217E+03  3.53627E+03  6.90496E+03 -1.28612E+03  7.12978E+03 -7.56101E+03  5.61013E+03
 -9.98807E+03 -1.45399E+03 -5.51502E+03 -6.97765E+03 -1.06951E+03 -1.05436E+04  6.09760E+03 -1.08651E+04
  1.12904E+04 -5.98903E+03  1.29726E+04  1.82697E+03  9.63580E+03  9.09023E+03  1.70847E+03  1.19746E+04
 -5.06411E+03  1.01332E+04 -6.79586E+03  3.24044E+03 -4.49849E+03 -1.43207E+03 -1.79307E+03 -1.08740E+03
 -7.76422E+02  1.60906E+00 -1.50517E+03  1.95662E+03 -4.51572E+03  2.01566E+03 -7.19924E+03 -7.45775E+02
 -4.83908E+03 -7.40386E+03  6.13782E+02 -9.46255E+03  6.73795E+03 -8.29917E+03  9.53574E+03 -1.76522E+03
  9.24487E+03  4.55958E+03  4.50515E+03  8.37053E+03 -1.46263E+03  9.96406E+03 -6.24305E+03  6.01767E+03
 -8.72851E+03  6.92013E+02 -6.94144E+03 -5.86330E+03 -1.09102E+03 -7.34653E+03  4.47049E+03 -5.48548E+03
  6.07263E+03 -1.73413E+03  4.59764E+03  1.19448E+03  1.25623E+03  3.40515E+03  7.60355E+02  1.27359E+03
  2.16742E+03  1.01172E+03  2.33023E+03  1.70901E+03  2.43432E+03  3.50104E+03  2.54762E+03  5.24423E+03
 -1.35832E+03  7.44910E+03 -6.81253E+03  7.80667E+03 -8.92483E+03  2.43801E+03 -9.87118E+03 -3.41617E+03
 -4.87512E+03 -9.31272E+03  1.63001E+03 -1.03954E+04  5.58783E+03 -6.92396E+03  7.48132E+03 -2.17389E+03
  6.27476E+03  3.13375E+03  1.15444E+03  5.92919E+03 -2.31308E+03  3.36455E+03 -3.86706E+03  1.97235E+02
 -1.57399E+03 -4.51382E+03  2.56528E+03 -4.32030E+03  4.08320E+03 -2.22564E+03  3.15932E+03  5.37592E+02
  2.06686E+03  1.31936E+03  1.05640E+03  5.63908E+02 -4.62231E+02  1.65408E+03  2.04411E+03  2.40143E+02
  1.45954E+03 -5.33549E+02  4.24025E+03  1.38123E+03  2.23735E+03  5.47640E+03 -4.84687E+02  7.33844E+03
 -4.35291E+03  3.65658E+03 -6.21912E+03  1.49100E+03 -5.83483E+03 -1.32393E+03 -1.79877E+03 -3.54474E+03
  7.38388E+02 -3.96357E+03  2.30536E+03 -2.33505E+03  1.86250E+03  2.39330E+03 -1.16894E+03  3.50060E+03
 -3.45036E+03  1.89193E+03 -4.18931E+03 -2.78475E+03 -2.12939E+03 -5.50671E+03  6.17963E+02 -4.68965E+03
  3.11183E+03 -2.48236E+03  4.05175E+03  2.83064E+02  2.98594E+03  1.22972E+03  7.00768E+02  2.20776E+03
 -1.52508E+03  7.94714E+02 -2.33180E+03 -1.63706E+03  1.45959E+03 -3.37937E+03  4.55474E+03 -2.96582E+03
  5.87223E+03  1.87519E+02  6.33645E+03  3.75702E+03  1.46676E+03  6.10186E+03 -2.00317E+03  5.22193E+03
 -4.82615E+03  1.63918E+03 -5.53128E+03 -2.65953E+02 -3.11301E+03 -3.80420E+03  1.42952E+03 -3.08934E+03
  3.49361E+03 -1.62531E+03  2.81010E+03  7.47007E+02  1.64990E+03  2.45638E+03 -2.09630E+02  2.90167E+03
 -2.19442E+03  2.16036E+03 -1.37677E+03  8.20322E+02  3.02108E+02  9.86840E+02 -1.38403E+03  1.44480E+03
 -2.02143E+03  2.06395E+03 -3.61436E+03  1.86909E+03 -5.22969E+03 -1.93426E+02 -6.67172E+03 -3.80972E+03
 -2.99882E+03 -7.72596E+03  1.52269E+03 -9.09852E+03  4.22088E+03 -6.89840E+03  8.19708E+03 -2.55482E+03
  7.84819E+03  1.85541E+03  4.23199E+03  4.40742E+03 -5.21828E+02  5.95778E+03 -1.49099E+03  3.84611E+03
 -3.15556E+03  1.83857E+03 -1.90563E+03 -5.10277E+02 -1.00789E+03 -3.52982E+02 -8.68015E+02 -2.35244E+02
 -1.79176E+03  4.70335E+02 -2.33146E+03 -4.57545E+02 -2.21330E+02 -6.69566E+02 -8.72664E+02 -1.81805E+03
  2.68049E+03 -2.54541E+03  2.74274E+03  1.31166E+02  4.71496E+03  3.67126E+03  1.29444E+03  5.88868E+03
 -2.80204E+03  7.30500E+03 -6.21293E+03  3.90645E+03 -6.38639E+03 -1.04690E+03 -5.45293E+03 -3.69845E+03
 -2.39587E+03 -5.76818E+03  1.12383E+03 -4.85337E+03  3.01469E+03 -3.03343E+03  4.05926E+03  2.38293E+02
  1.84291E+03  1.71292E+03  6.20183E+01  1.59219E+03 -1.86134E+03 -3.12480E+02 -6.39173E+01 -6.83568E+02
  1.86144E+03 -9.56922E+02  2.05310E+03  9.74706E+02  1.72736E+03  2.51916E+03  5.99139E+02  2.91080E+03
 -2.68608E+03  2.14676E+03 -3.78675E+03  2.72324E+02 -3.14334E+03 -3.50002E+03 -1.59884E+02 -4.58617E+03
  2.32754E+03 -3.74982E+03  4.26609E+03 -1.16243E+03  4.47392E+03  6.02642E+02  3.19156E+03  3.12015E+03
 -2.46977E+02  3.42404E+03 -1.92760E+03  3.03213E+03 -1.84670E+03  1.87714E+03 -2.06722E+03  4.40201E+02
 -9.20431E+02  5.82488E+02 -7.74344E+02  7.15731E+02 -1.67858E+03  6.58562E+02 -2.85414E+03 -2.28164E+02
 -2.56329E+03 -1.46713E+03 -9.60540E+02 -3.22868E+03  1.56248E+03 -4.49789E+03  3.04975E+03 -1.24972E+03
  3.28998E+03  3.82257E+02  1.19081E+03  1.84432E+03  3.28505E+02  4.13276E+03 -1.93856E+03  2.19557E+03
