 $NMID ID='MM_0lb_SNR400_18hz_g40_96.RAW', FMTDAT='(8E13.5)'
 TRAMP=1., VOLUME=1. $END
  3.09712E+05  1.89465E+02  3.37612E+05  2.50252E+05  8.42984E+04  3.37396E+05 -1.32702E+05  2.50147E+05
 -1.89426E+05  8.25338E+04 -1.11316E+05 -3.27048E+04  1.28394E+03 -5.03990E+04  5.41649E+04  5.81214E+02
  3.53587E+04  5.25550E+04 -1.64583E+04  7.50360E+04 -5.98426E+04  6.24803E+04 -8.29189E+04  3.09635E+04
 -7.90807E+04 -1.04234E+04 -5.63332E+04 -5.02677E+04 -1.49672E+04 -6.81590E+04  2.65825E+04 -4.51498E+04
  3.84062E+04  3.30227E+03  1.50846E+04  4.68627E+04 -3.37216E+04  4.60872E+04 -6.54844E+04 -3.80860E+02
 -5.18966E+04 -5.57524E+04 -6.51633E+03 -7.53446E+04  3.38548E+04 -5.26807E+04  4.61735E+04 -1.59910E+04
  4.19509E+04  1.09648E+04  3.05675E+04  2.38471E+04  1.55367E+04  2.79574E+04 -4.86959E+03  2.65960E+04
 -2.15887E+04  1.28644E+04 -1.88296E+04 -4.53386E+03  3.86534E+03 -7.84445E+03  2.13541E+04  1.09074E+04
  7.62924E+03  3.26261E+04 -3.02259E+04  3.37138E+04 -6.09768E+04  1.89668E+03 -5.53595E+04 -4.16215E+04
 -1.29735E+04 -6.00666E+04  3.83664E+04 -4.27198E+04  5.50052E+04 -1.98880E+03  3.19326E+04  3.09520E+04
 -6.18660E+03  3.26478E+04 -2.83975E+04  1.24920E+04 -2.68935E+04 -5.68031E+03 -1.41581E+04 -1.00567E+04
 -7.13686E+03 -1.09779E+04 -1.25747E+03 -1.63556E+04  6.36139E+03 -2.23632E+04  1.47098E+04 -1.41498E+04
  1.23448E+04  4.33657E+03 -5.88524E+03  1.35124E+04 -1.91798E+04 -2.44299E+03 -8.06926E+03 -3.03694E+04
  2.06649E+04 -4.03591E+04  4.45819E+04 -1.85603E+04  4.16516E+04  1.88745E+04  1.42026E+04  4.14420E+04
 -1.52363E+04  3.10537E+04 -2.29259E+04  1.11288E+03 -7.83465E+03 -2.58578E+04  2.02600E+04 -3.10246E+04
  3.76128E+04 -7.01375E+03  3.10369E+04  2.24797E+04  1.56872E+04  4.22625E+04 -8.14538E+03  4.51509E+04
 -2.79415E+04  2.90937E+04 -3.67473E+04  7.98812E+03 -3.81277E+04 -1.50880E+04 -2.11809E+04 -3.38728E+04
  6.56704E+03 -3.36421E+04  2.86369E+04 -1.24871E+04  2.69617E+04  1.09227E+04  2.67501E+03  1.80077E+04
 -1.26349E+04  7.39155E+03 -9.53612E+03 -7.16698E+03  5.89396E+03 -1.01577E+04  1.74285E+04  6.53562E+03
  1.18913E+04  2.15524E+04 -6.50652E+03  2.36246E+04 -2.17104E+04  8.39358E+03 -2.51007E+04 -6.39643E+03
 -1.60752E+04 -1.61355E+04 -5.35369E+03 -1.68620E+04  3.66570E+03 -1.46924E+04  1.20700E+04 -1.44707E+04
  2.11285E+04 -1.12420E+04  2.73271E+04  5.93357E+02  2.15913E+04  1.57757E+04  4.44350E+03  3.20276E+04
 -1.55535E+04  2.74664E+04 -2.57121E+04  9.31948E+03 -1.94902E+04 -1.07472E+04 -3.86449E+03 -1.41643E+04
  2.64951E+03 -4.81929E+03 -2.23003E+03  5.36166E+03 -1.31424E+04  5.31750E+03 -1.29215E+04 -5.28309E+03
 -8.33420E+03 -1.56865E+04  4.18536E+03 -1.89092E+04  1.26471E+04 -1.40360E+04  1.45617E+04 -2.08082E+03
  9.35543E+03  1.08609E+04 -1.08371E+03  1.52535E+04 -1.04214E+04  8.48881E+03 -1.49479E+04 -3.02467E+03
 -1.14413E+04 -1.34147E+04 -1.59757E+03 -1.93066E+04  8.54779E+03 -1.51956E+04  1.61409E+04 -7.21977E+03
  1.39133E+04  2.97867E+02  1.03187E+04  3.97303E+03  5.46197E+03  5.60188E+02  7.57001E+03 -1.15341E+03
  1.38634E+04  2.43752E+03  1.42823E+04  1.28163E+04  9.05083E+03  2.45235E+04 -3.60726E+03  2.66219E+04
 -1.58930E+04  1.98303E+04 -2.36416E+04  9.65357E+03 -2.41463E+04 -1.76174E+03 -2.10803E+04 -1.37004E+04
 -1.04053E+04 -2.00276E+04  6.80024E+03 -1.87682E+04  1.65289E+04 -1.10687E+04  1.59038E+04  3.57048E+03
  6.25456E+03  1.11487E+04 -7.82892E+03  1.08635E+04 -1.27569E+04  3.10902E+03 -1.02515E+04 -7.70150E+03
 -1.69442E+02 -1.24710E+04  5.89203E+03 -9.32904E+03  7.95967E+03 -1.34976E+03  1.20054E+03  5.36232E+03
 -5.37883E+03  1.34616E+03 -2.88555E+03 -4.50953E+03  1.12491E+03 -1.01515E+04  7.63698E+03 -1.00146E+04
  1.21322E+04 -4.48710E+03  1.17766E+04  2.55656E+03  1.02382E+04  9.47502E+03  4.84876E+03  1.41668E+04
 -1.90299E+03  1.56741E+04 -9.85013E+03  9.99131E+03 -1.06355E+04  2.53189E+03 -8.23499E+03 -1.86880E+03
 -4.11755E+03 -3.23173E+03 -7.09296E+02  1.80520E+03 -2.08693E+03  1.72552E+03 -3.66778E+03  3.15180E+03
 -7.70959E+03 -1.17300E+02 -8.78865E+03 -7.15787E+03 -3.78225E+03 -1.13483E+04  3.77826E+03 -8.58795E+03
  7.01628E+03 -3.79303E+03  4.98994E+03  1.70666E+03  6.24128E+02  3.30439E+03 -3.48406E+03  1.83814E+02
 -4.07510E+03 -5.20332E+03 -8.66001E+02 -6.78342E+03  3.61860E+03 -7.69469E+03  9.98819E+03 -3.81313E+03
  1.16121E+04  5.61536E+02  9.35326E+03  5.57046E+03  1.90650E+03  8.42928E+03 -5.23974E+03  8.32322E+03
 -6.65107E+03  2.71308E+03 -3.70702E+03 -1.10626E+03  1.00601E+03 -1.79500E+03  4.96936E+03 -9.27126E+02
  4.51334E+03  3.23186E+03  1.86902E+03  6.65953E+03 -4.01766E+03  5.67770E+03 -7.93943E+03  1.50552E+03
 -5.03234E+03 -3.73030E+03 -7.04921E+01 -6.69553E+03  3.75848E+03 -2.95172E+03  3.57738E+03  1.20033E+03
  6.01513E+02  3.61990E+03 -4.34014E+03  4.59187E+03 -5.03445E+03  2.91703E+03 -4.52283E+03 -6.63433E+02
 -2.49958E+03 -6.39557E+03  1.20119E+03 -7.15313E+03  5.46578E+03 -4.54903E+03  6.41978E+03  1.27505E+03
  4.76867E+03  4.99833E+03 -3.38617E+02  7.07666E+03 -5.36719E+03  4.24344E+03 -5.29419E+03 -6.59075E+02
 -5.40249E+03 -5.03042E+03 -1.58368E+03 -5.24692E+03  2.32845E+03 -4.95415E+03  2.33812E+03 -3.53354E+03
  3.07997E+03  5.44674E+01 -1.62954E+02  1.29976E+03  6.14934E+01 -3.21818E+02  4.89905E+02 -1.98677E+03
  3.93322E+03 -9.15898E+02  5.51093E+03  7.41580E+02  5.92479E+03  3.13203E+03  5.04282E+03  7.42182E+03
 -9.13685E+02  8.67148E+03 -7.41602E+03  6.48176E+03 -9.80379E+03  8.50486E+02 -7.95469E+03 -2.59154E+03
 -3.65212E+03 -6.74517E+03 -1.52204E+02 -5.06125E+03  1.84615E+03 -2.15005E+03  1.58548E+03 -1.47334E+03
  1.46986E+03 -1.25628E+03  1.79487E+03 -2.37949E+03  3.89554E+03 -1.18462E+03  3.74477E+03 -2.44791E+02
  4.75019E+03  1.16199E+03  9.15599E+02  3.27288E+03 -1.11497E+03  2.74633E+03 -4.45497E+03  2.80458E+03
 -5.19611E+03 -9.89513E+02 -1.51124E+03 -3.50454E+03  4.45008E+02 -4.85400E+03  3.40909E+03 -5.54419E+03
  5.26721E+03 -3.31240E+03  6.90824E+03  9.85072E+01  5.47061E+03  4.40360E+03  4.08238E+02  6.03856E+03
 -2.56776E+03  5.66769E+03 -3.77683E+03  9.96633E+02 -1.89278E+03 -6.88449E+02 -2.97879E+02 -7.32946E+02
 -5.25564E+02 -1.58862E+02 -1.23344E+03  1.95458E+03 -2.65775E+03  1.52377E+03 -3.87494E+03 -4.03715E+02
 -1.08619E+03 -3.74903E+03  3.96229E+02 -4.22727E+03  2.64043E+03 -4.60057E+03  3.92375E+03 -1.83305E+03
  3.70824E+03  2.15185E+03  1.95465E+03  3.58254E+03 -1.00524E+03  4.56058E+03 -3.04924E+03  2.64153E+03
 -3.57123E+03  5.61916E+02 -3.53094E+03 -2.67783E+03 -1.60949E+02 -3.63528E+03  1.52036E+03 -3.13183E+03
  2.61579E+03 -1.47004E+03  1.82359E+03  3.39919E+02  2.04370E+02  1.63607E+03  8.32110E+02  7.66359E+02
  1.68494E+03  7.39958E+02  1.56905E+03  1.30127E+03  1.17506E+03  2.30599E+03  1.54802E+03  1.88153E+03
 -1.29370E+03  2.75890E+03 -2.61175E+03  4.55007E+03 -2.80716E+03  1.36329E+03 -4.67293E+03 -2.53021E+02
 -1.29445E+03 -4.32513E+03  7.34575E+02 -4.76388E+03  1.92566E+03 -2.55138E+03  3.15868E+03 -3.02352E+02
  2.35071E+03  1.90610E+03  4.83153E+02  2.57756E+03 -3.42575E+02  1.33038E+03 -9.52792E+02 -1.77195E+02
 -6.61724E+02 -1.77555E+03  1.55656E+03 -1.77134E+03  1.62197E+03 -8.68290E+02  1.62297E+03  8.13495E+02
  9.82853E+02  2.83274E+02  4.76887E+02 -4.98797E+02 -3.34533E+02  1.29178E+03  1.71448E+03 -3.62012E+01
  4.31493E+02  1.58008E+02  1.94063E+03  8.89174E+02  8.66857E+01  2.42019E+03 -3.83501E+02  3.35552E+03
 -1.32637E+03  1.42855E+03 -1.97340E+03  3.65181E+02 -2.06655E+03 -8.99453E+02 -4.76813E+02 -1.30837E+03
  6.33225E+02 -1.38876E+03  6.43560E+02 -3.50361E+02  9.49851E+02  1.17882E+03 -1.12141E+03  1.19445E+03
 -1.23468E+03  7.83894E+02 -1.24530E+03 -1.16637E+03 -7.76551E+02 -2.81044E+03  1.16653E+02 -1.59404E+03
  8.69676E+02 -5.31067E+02  9.32021E+02  2.14354E+02  1.47851E+03 -5.63514E+01  2.78106E+02  1.35241E+03
 -6.77882E+02  5.14200E+02 -9.36638E+02 -3.67633E+02  7.58521E+02 -1.01096E+03  1.54878E+03 -9.74620E+02
  1.36148E+03  3.17216E+01  3.32896E+03  3.25924E+02  1.24472E+03  1.88869E+03 -1.39087E+02  1.75838E+03
 -1.61538E+03  4.48328E+02 -1.15378E+03 -5.29097E+02 -1.42907E+03 -1.59512E+03  5.80410E+02 -7.27563E+02
  1.35326E+03 -9.07299E+02  7.73408E+02  6.08943E+02  5.65857E+02  1.15260E+03  3.17372E+02  1.36517E+03
 -1.10131E+03  1.26624E+03 -2.01464E+02  1.10538E+02 -2.08991E+02  7.61147E+02 -7.24888E+02  4.00892E+02
 -3.32879E+02  1.42715E+03 -1.80230E+03  7.67808E+02 -1.70880E+03 -8.52493E+01 -2.57419E+03 -1.05207E+03
 -1.22088E+03 -2.36582E+03  1.13330E+03 -3.28053E+03  1.48192E+03 -2.94712E+03  2.60806E+03 -1.00002E+03
  2.84655E+03  9.34757E+01  1.35218E+03  1.61655E+03 -1.01279E+03  1.64069E+03 -1.04507E+03  1.78200E+03
 -6.73489E+02  1.57984E+03  2.14329E+02 -3.74446E+02 -6.02761E+02 -3.48797E+02 -7.97605E+02  1.25078E+02
 -8.87957E+02 -4.80894E+02 -6.68020E+02 -2.41211E+00  2.51629E+02 -2.12756E+02 -6.56119E+02 -1.41660E+03
  1.49131E+03 -1.02229E+03  5.91204E+02  1.58613E+02  1.36050E+03  1.47781E+03 -8.67863E+02  1.82277E+03
 -1.80323E+03  2.31762E+03 -1.45638E+03  1.43920E+03 -1.92576E+03 -6.73434E+02 -1.61119E+03 -1.79875E+03
 -1.26330E+03 -1.32850E+03  8.53259E+02 -1.22342E+03  7.07592E+02 -7.42045E+02  4.02230E+02  2.44753E+02
  8.62416E+02  3.20128E+01 -2.04326E+02  7.52474E+01 -4.96325E+02 -2.70169E+02  1.67393E+01 -2.10269E+02
  1.15454E+03  4.03598E+02  5.93425E+02  9.45893E+02 -2.09773E+02  2.81298E+02  5.41692E+02  2.78507E+02
 -4.93822E+02  9.81360E+02 -9.56382E+02 -3.46953E+02 -7.78539E+02 -6.18201E+02  4.47721E+01 -1.51714E+03
  6.83880E+02 -1.00668E+03  1.00329E+03  1.88061E+02  1.39789E+03 -7.28449E+02  5.74793E+02  9.07388E+02
  6.16972E+02  3.17514E+02 -1.63161E+02  9.43433E+02 -4.58940E+02  8.60102E+02 -2.97529E+02 -2.77635E+02
 -3.46142E+02 -3.38165E+01 -2.30758E+02  3.31795E+02 -1.19188E+03  2.03017E+02 -4.87692E+02  3.99499E+01
 -1.00687E+03  1.07431E+02 -4.52214E+02 -9.20138E+02  5.45961E+02 -1.43525E+03  5.96152E+02  2.99403E+02
  1.27350E+03 -2.05566E+02 -2.80839E+02  4.18790E+02  1.78225E+02  7.92193E+02 -2.33429E+02  1.07509E+03
