 $NMID ID='MM_0lb_SNR400_13hz_g40_22.RAW', FMTDAT='(8E13.5)'
 TRAMP=1., VOLUME=1. $END
  3.09809E+05  5.94714E+02  3.38242E+05  2.50316E+05  8.45847E+04  3.37794E+05 -1.32882E+05  2.51104E+05
 -1.89883E+05  8.31860E+04 -1.12079E+05 -3.23076E+04  7.99434E+02 -5.13379E+04  5.33749E+04  1.41474E+02
  3.54716E+04  5.26504E+04 -1.71969E+04  7.54588E+04 -6.07358E+04  6.38147E+04 -8.46384E+04  3.17541E+04
 -8.12831E+04 -1.14096E+04 -5.68861E+04 -5.13588E+04 -1.50242E+04 -7.00470E+04  2.74182E+04 -4.53250E+04
  3.99560E+04  3.37398E+03  1.58462E+04  4.73416E+04 -3.41217E+04  4.66727E+04 -6.76228E+04 -1.60060E+02
 -5.34520E+04 -5.68929E+04 -6.84681E+03 -7.68216E+04  3.37537E+04 -5.47350E+04  4.83856E+04 -1.68673E+04
  4.30094E+04  1.10354E+04  3.16408E+04  2.56196E+04  1.58825E+04  2.91553E+04 -4.68921E+03  2.66778E+04
 -2.23361E+04  1.23041E+04 -1.81412E+04 -5.07012E+03  5.91947E+03 -7.34708E+03  2.15673E+04  1.27160E+04
  7.69238E+03  3.51959E+04 -3.19130E+04  3.55916E+04 -6.29652E+04  2.22126E+03 -5.67774E+04 -4.24065E+04
 -1.24201E+04 -6.35667E+04  3.96888E+04 -4.49121E+04  5.87853E+04 -2.57519E+03  3.41042E+04  3.19275E+04
 -6.17987E+03  3.60688E+04 -2.97237E+04  1.60272E+04 -3.04320E+04 -4.43212E+03 -1.68252E+04 -1.08908E+04
 -8.35967E+03 -1.35321E+04 -7.33108E+02 -1.75627E+04  7.58519E+03 -2.28953E+04  1.51776E+04 -1.33760E+04
  1.11100E+04  5.34627E+03 -7.86756E+03  1.31125E+04 -2.12107E+04 -4.37662E+03 -8.83261E+03 -3.37726E+04
  2.30746E+04 -4.33822E+04  4.77182E+04 -1.95971E+04  4.52063E+04  1.93003E+04  1.50172E+04  4.39338E+04
 -1.61257E+04  3.32231E+04 -2.45847E+04  1.76258E+03 -1.02792E+04 -2.69876E+04  2.02408E+04 -3.32884E+04
  4.12580E+04 -8.27326E+03  3.56606E+04  2.34775E+04  1.86308E+04  4.66469E+04 -7.78086E+03  4.96407E+04
 -3.20018E+04  3.35116E+04 -4.21866E+04  1.00519E+04 -4.26127E+04 -1.65667E+04 -2.32156E+04 -3.77240E+04
  6.71026E+03 -3.76501E+04  3.14808E+04 -1.44095E+04  2.90487E+04  1.11752E+04  3.39983E+03  1.92295E+04
 -1.33469E+04  8.38718E+03 -1.00270E+04 -7.97419E+03  6.12003E+03 -1.10863E+04  1.77522E+04  6.35499E+03
  1.32290E+04  2.22339E+04 -5.51978E+03  2.49415E+04 -2.19658E+04  1.18757E+04 -2.80457E+04 -4.48121E+03
 -2.15709E+04 -1.73257E+04 -8.79018E+03 -2.04353E+04  3.96251E+03 -1.94038E+04  1.53760E+04 -1.87417E+04
  2.56090E+04 -1.29390E+04  3.29627E+04  3.41841E+03  2.36194E+04  2.00330E+04  4.12789E+03  3.64002E+04
 -1.75516E+04  3.03337E+04 -2.75516E+04  1.07405E+04 -2.09051E+04 -1.06735E+04 -4.88518E+03 -1.35705E+04
  2.15548E+03 -3.02678E+03 -5.21611E+03  6.06153E+03 -1.67311E+04  4.87296E+03 -1.61884E+04 -6.95409E+03
 -1.09078E+04 -1.90025E+04  5.55220E+03 -2.35162E+04  1.53548E+04 -1.63152E+04  1.83145E+04 -9.03752E+02
  1.14951E+04  1.31249E+04 -1.17717E+03  1.84564E+04 -1.30592E+04  1.10434E+04 -1.92413E+04 -3.73155E+03
 -1.43605E+04 -1.75632E+04 -1.70876E+03 -2.29378E+04  1.09365E+04 -1.93263E+04  1.90406E+04 -9.61077E+03
  1.79013E+04  1.77247E+02  1.32074E+04  4.25237E+03  6.75495E+03  8.56806E+02  9.57863E+03 -1.57354E+03
  1.77075E+04  2.27644E+03  2.00672E+04  1.52215E+04  1.31185E+04  3.04029E+04 -3.12202E+03  3.42029E+04
 -2.02012E+04  2.77433E+04 -3.25282E+04  1.43022E+04 -3.40748E+04 -2.57723E+03 -2.78618E+04 -1.96167E+04
 -1.14966E+04 -2.82974E+04  9.33757E+03 -2.57371E+04  2.17919E+04 -1.30403E+04  1.95578E+04  6.03914E+03
  7.35637E+03  1.44094E+04 -8.61826E+03  1.26812E+04 -1.61886E+04  2.96793E+03 -1.26773E+04 -9.66072E+03
 -8.53654E+02 -1.54482E+04  8.37342E+03 -1.12229E+04  9.95189E+03 -1.57018E+03  2.61835E+03  6.70870E+03
 -6.62892E+03  1.87147E+03 -5.81822E+03 -5.65312E+03 -3.67366E+02 -1.36263E+04  1.05119E+04 -1.43879E+04
  1.74460E+04 -7.68426E+03  1.81885E+04  2.96748E+03  1.54745E+04  1.34194E+04  7.29283E+03  2.00323E+04
 -4.03053E+03  2.30187E+04 -1.42378E+04  1.43908E+04 -1.62967E+04  3.40621E+03 -1.17428E+04 -3.84307E+03
 -4.94650E+03 -4.75823E+03 -4.64064E+02  1.69362E+03 -2.10768E+03  3.02507E+03 -5.62498E+03  4.58816E+03
 -1.05387E+04 -3.52318E+02 -1.05242E+04 -9.41088E+03 -4.46587E+03 -1.53145E+04  4.53459E+03 -1.15094E+04
  1.00331E+04 -4.85299E+03  7.00629E+03  2.77261E+03  1.73647E+02  4.18806E+03 -4.99023E+03 -2.34671E+02
 -4.54226E+03 -7.50264E+03 -7.22713E+02 -1.08276E+04  5.92045E+03 -1.17692E+04  1.41171E+04 -5.59846E+03
  1.72405E+04  1.73217E+03  1.25125E+04  1.00813E+04  2.13733E+03  1.26417E+04 -7.63763E+03  1.15584E+04
 -9.63675E+03  3.59591E+03 -4.06302E+03 -1.11677E+03  1.24274E+03 -3.22678E+03  6.49112E+03 -8.72496E+02
  5.65416E+03  4.69531E+03  9.41756E+02  9.41016E+03 -6.34632E+03  8.20277E+03 -1.10239E+04  2.59461E+03
 -6.66703E+03 -5.54272E+03  2.65077E+02 -1.01164E+04  5.72639E+03 -4.77867E+03  5.61697E+03  1.97445E+03
  9.02888E+02  6.14596E+03 -6.11531E+03  7.63785E+03 -8.39919E+03  3.44720E+03 -8.08610E+03 -2.45183E+03
 -4.78895E+03 -1.04831E+04  2.03357E+03 -1.16459E+04  9.82602E+03 -7.44513E+03  1.14144E+04  1.99180E+03
  6.94433E+03  8.62092E+03 -8.16765E+02  1.06427E+04 -8.42900E+03  5.95957E+03 -8.13546E+03 -8.92601E+02
 -7.91915E+03 -7.50184E+03 -1.45944E+03 -8.19199E+03  4.27996E+03 -6.55350E+03  4.83714E+03 -3.52477E+03
  3.19727E+03  1.24190E+03 -1.61792E+02  1.29773E+03 -1.81633E+02 -2.02868E+03  1.95090E+03 -4.50207E+03
  6.49676E+03 -2.64195E+03  9.76676E+03  1.40763E+03  8.93331E+03  6.27603E+03  7.67726E+03  1.31391E+04
 -3.23049E+03  1.45438E+04 -1.23613E+04  1.11277E+04 -1.64687E+04  2.46757E+03 -1.31273E+04 -5.40594E+03
 -6.93456E+03 -1.05501E+04 -2.96441E+02 -9.32953E+03  2.93685E+03 -4.45229E+03  3.02066E+03 -2.97289E+03
  2.41826E+03 -1.64090E+03  2.54240E+03 -2.72864E+03  4.17641E+03 -2.26800E+03  6.05074E+03 -8.60291E+02
  6.79569E+03  1.01618E+03  3.81292E+03  5.85614E+03 -2.34047E+03  5.82822E+03 -7.29342E+03  5.15080E+03
 -8.27262E+03 -1.35937E+03 -4.76235E+03 -5.49055E+03 -7.66444E+02 -9.13752E+03  6.02583E+03 -9.39678E+03
  9.68242E+03 -5.73197E+03  1.18414E+04  7.84124E+02  8.02022E+03  8.18875E+03  1.58498E+03  1.06050E+04
 -4.00324E+03  8.83570E+03 -5.72096E+03  3.10618E+03 -4.25726E+03 -1.70557E+03 -1.52008E+03 -1.25056E+03
 -2.71745E+02 -1.09742E+00 -1.67917E+03  3.05452E+03 -3.72952E+03  1.36042E+03 -6.57926E+03 -1.15849E+03
 -4.10140E+03 -6.63559E+03  4.07822E+02 -8.47011E+03  5.30462E+03 -8.09432E+03  8.42154E+03 -2.69411E+03
  7.73854E+03  4.03892E+03  3.74725E+03  7.45864E+03 -1.71892E+03  8.33647E+03 -6.29371E+03  4.55874E+03
 -7.51120E+03  7.80567E+02 -6.07704E+03 -4.95465E+03 -1.34461E+03 -6.44123E+03  3.49821E+03 -5.37837E+03
  5.61026E+03 -1.96529E+03  2.66679E+03  1.16769E+03  1.40511E+03  2.94223E+03  5.87121E+02  1.30766E+03
  2.84322E+03  1.07313E+03  2.63936E+03  1.53045E+03  3.05046E+03  3.64480E+03  2.22991E+03  3.97682E+03
 -1.54723E+03  6.69288E+03 -5.40408E+03  7.02528E+03 -8.28485E+03  1.82283E+03 -9.02825E+03 -2.65404E+03
 -3.94195E+03 -7.92603E+03  1.18155E+03 -9.42470E+03  4.70070E+03 -5.50218E+03  6.79586E+03 -1.61326E+03
  4.70709E+03  2.96482E+03  9.00839E+02  4.74509E+03 -1.69567E+03  3.26852E+03 -2.59043E+03 -5.92572E+02
 -1.11265E+03 -3.64732E+03  2.22581E+03 -3.54902E+03  3.24254E+03 -2.05074E+03  2.62217E+03  5.26509E+02
  1.31890E+03  1.64362E+03  9.24536E+02  8.01340E+02 -1.81559E+02  1.53119E+03  1.71270E+03  1.19448E+01
  1.09713E+03 -8.42260E+01  3.68654E+03  7.14800E+02  1.19395E+03  4.99860E+03 -6.31637E+02  6.23685E+03
 -4.18294E+03  3.58509E+03 -5.11641E+03  7.64439E+02 -4.79112E+03 -1.45180E+03 -1.57649E+03 -2.61536E+03
  3.13485E+01 -3.05136E+03  2.57976E+03 -1.10094E+03  1.88864E+03  1.25944E+03 -9.40214E+02  2.65139E+03
 -3.05139E+03  1.52958E+03 -3.39974E+03 -2.50128E+03 -2.39680E+03 -3.72420E+03  1.17510E+03 -4.74672E+03
  1.61254E+03 -2.40904E+03  2.42176E+03 -5.17135E+02  3.11053E+03  1.19856E+03  8.64583E+02  2.74367E+03
 -8.73311E+02  2.81686E+02 -1.90711E+03 -1.43498E+03  1.20938E+03 -3.41252E+03  3.62249E+03 -2.17445E+03
  3.98389E+03  2.60724E+02  5.11939E+03  2.62532E+03  1.75925E+03  4.31687E+03 -9.05613E+02  4.58165E+03
 -4.11279E+03  2.23381E+03 -4.53953E+03 -1.33320E+03 -2.28030E+03 -3.33176E+03  1.89033E+02 -2.66033E+03
  3.03637E+03 -1.35813E+03  1.83804E+03  1.29726E+03  5.96586E+02  2.51991E+03  2.53271E+02  2.47126E+03
 -1.41532E+03  1.64983E+03 -1.32892E+03  4.27058E+02 -4.44860E+02  3.01890E+02 -1.70921E+03  1.49207E+03
 -1.42660E+03  1.58211E+03 -3.72909E+03  1.38508E+03 -4.71575E+03  7.44729E+02 -5.65353E+03 -3.45571E+03
 -2.50151E+03 -5.84380E+03  1.41764E+03 -7.01903E+03  3.96601E+03 -5.90084E+03  7.35242E+03 -1.72623E+03
  5.69288E+03  1.12591E+03  3.46020E+03  4.69253E+03 -8.39459E+02  4.42292E+03 -1.83262E+03  3.07657E+03
 -3.25240E+03  1.12550E+03 -1.97259E+03 -3.13097E+02 -7.03985E+02 -2.57220E+02 -8.37505E+02  9.75777E+01
 -1.56468E+03  9.90654E+00 -7.23815E+02 -4.16207E+02 -4.38453E+02 -1.10270E+03 -2.22731E+02 -2.02501E+03
  2.04595E+03 -1.44361E+03  2.83372E+03  1.27705E+02  3.51841E+03  3.25449E+03  1.74845E+02  4.46945E+03
 -2.55374E+03  5.91537E+03 -5.35073E+03  3.25995E+03 -5.11326E+03 -6.79698E+02 -3.95275E+03 -3.81645E+03
 -2.63118E+03 -5.06327E+03  1.15739E+03 -4.20865E+03  2.86731E+03 -1.97337E+03  2.80408E+03  1.46416E+02
  1.63504E+03  1.51720E+03 -5.58516E+02  1.11024E+03 -8.87341E+01 -1.50002E+02  1.18081E+02 -6.39361E+02
  1.52359E+03 -8.87404E+02  1.67687E+03  8.53106E+02  1.67801E+03  1.73460E+03  9.98649E+01  1.65696E+03
 -1.71216E+03  2.28593E+03 -3.50467E+03  3.64790E+02 -2.56950E+03 -1.51111E+03 -3.87789E+02 -4.60609E+03
  1.95763E+03 -2.50248E+03  3.42267E+03 -3.07160E+02  2.88263E+03  4.45338E+02  2.13401E+03  2.52254E+03
  4.31385E+02  2.43931E+03 -1.64586E+03  1.96872E+03 -1.93713E+03  1.07637E+03 -1.24496E+03  1.41155E+02
 -7.54636E+02 -7.69653E+01 -8.85827E+02  6.01075E+02 -1.96388E+03  6.38199E+02 -1.85631E+03 -2.14069E+02
 -2.53338E+03 -1.20458E+03 -1.00996E+03 -3.77127E+03  9.57647E+02 -3.74851E+03  2.81968E+03 -1.34189E+03
  3.34159E+03 -8.19946E+01  1.22046E+03  1.50173E+03 -2.91488E+00  3.05356E+03 -1.76987E+03  1.60225E+03
