 $NMID ID='MM_0lb_SNR400_17hz_g60_39.RAW', FMTDAT='(8E13.5)'
 TRAMP=1., VOLUME=1. $END
  3.09814E+05  1.60130E+02  3.36465E+05  2.49743E+05  8.57096E+04  3.37980E+05 -1.32617E+05  2.51027E+05
 -1.90304E+05  8.23931E+04 -1.12170E+05 -3.24228E+04  1.30477E+03 -5.09501E+04  5.38521E+04 -5.83213E+01
  3.49199E+04  5.23134E+04 -1.66127E+04  7.57182E+04 -6.07362E+04  6.31006E+04 -8.33715E+04  3.22758E+04
 -8.06928E+04 -1.16315E+04 -5.74272E+04 -5.07087E+04 -1.49055E+04 -6.93058E+04  2.72777E+04 -4.61612E+04
  4.02730E+04  3.36748E+03  1.65379E+04  4.81506E+04 -3.45686E+04  4.71335E+04 -6.65536E+04 -2.44603E+02
 -5.32258E+04 -5.60297E+04 -6.78120E+03 -7.71619E+04  3.38003E+04 -5.54334E+04  4.75467E+04 -1.64836E+04
  4.31294E+04  1.12278E+04  3.16874E+04  2.55979E+04  1.63272E+04  2.89993E+04 -5.01267E+03  2.76050E+04
 -2.20491E+04  1.22748E+04 -1.86584E+04 -5.12930E+03  5.16570E+03 -7.49708E+03  2.23490E+04  1.17187E+04
  6.99448E+03  3.56050E+04 -3.24998E+04  3.51472E+04 -6.34110E+04  1.78351E+03 -5.62799E+04 -4.32076E+04
 -1.27059E+04 -6.31381E+04  3.90708E+04 -4.49389E+04  5.78015E+04 -2.83340E+03  3.36080E+04  3.22032E+04
 -5.60627E+03  3.56902E+04 -2.94192E+04  1.54263E+04 -3.02422E+04 -4.32443E+03 -1.59616E+04 -1.04369E+04
 -7.99425E+03 -1.28221E+04 -1.34254E+03 -1.81590E+04  7.16059E+03 -2.31273E+04  1.53451E+04 -1.33227E+04
  1.20039E+04  5.02235E+03 -8.08246E+03  1.33903E+04 -2.10641E+04 -3.93172E+03 -7.86415E+03 -3.33508E+04
  2.23580E+04 -4.26881E+04  4.77973E+04 -1.94559E+04  4.41726E+04  1.90909E+04  1.56429E+04  4.43611E+04
 -1.53209E+04  3.27631E+04 -2.37607E+04  1.61511E+03 -9.92134E+03 -2.70128E+04  2.08881E+04 -3.33669E+04
  4.10504E+04 -8.79576E+03  3.45918E+04  2.36816E+04  1.69874E+04  4.59449E+04 -7.97549E+03  4.88602E+04
 -3.09521E+04  3.29014E+04 -4.16445E+04  9.46089E+03 -4.15534E+04 -1.63207E+04 -2.24452E+04 -3.71336E+04
  7.30800E+03 -3.73723E+04  3.08302E+04 -1.42628E+04  2.86912E+04  1.09415E+04  4.35896E+03  1.90324E+04
 -1.29280E+04  8.70420E+03 -1.04411E+04 -7.79613E+03  5.64753E+03 -1.01066E+04  1.80228E+04  6.55853E+03
  1.37594E+04  2.16396E+04 -6.89134E+03  2.48035E+04 -2.16447E+04  1.11830E+04 -2.78185E+04 -5.33195E+03
 -1.95500E+04 -1.63893E+04 -7.87581E+03 -1.98190E+04  3.97209E+03 -1.81844E+04  1.46753E+04 -1.74960E+04
  2.52371E+04 -1.24176E+04  3.13204E+04  2.01598E+03  2.32677E+04  1.88941E+04  3.74816E+03  3.55198E+04
 -1.70701E+04  3.00054E+04 -2.75722E+04  1.03669E+04 -2.04243E+04 -1.09996E+04 -4.20897E+03 -1.44400E+04
  2.06866E+03 -2.57457E+03 -4.05066E+03  6.73184E+03 -1.50939E+04  5.11410E+03 -1.60024E+04 -6.32943E+03
 -9.84088E+03 -1.77991E+04  5.04799E+03 -2.11852E+04  1.42440E+04 -1.59733E+04  1.73061E+04 -1.54271E+03
  1.05636E+04  1.23205E+04 -1.00504E+03  1.82061E+04 -1.31295E+04  9.80179E+03 -1.79193E+04 -3.96519E+03
 -1.33253E+04 -1.62210E+04 -1.83690E+03 -2.11938E+04  1.00138E+04 -1.77184E+04  1.82452E+04 -8.75588E+03
  1.68084E+04  4.14834E+02  1.20725E+04  4.11273E+03  6.37410E+03  9.65767E+02  8.29060E+03 -1.24035E+03
  1.63962E+04  2.28501E+03  1.83911E+04  1.49925E+04  1.16607E+04  2.88124E+04 -2.89263E+03  3.14125E+04
 -1.82243E+04  2.44548E+04 -2.96019E+04  1.22795E+04 -3.04884E+04 -1.79516E+03 -2.53603E+04 -1.70305E+04
 -1.14208E+04 -2.52256E+04  8.94763E+03 -2.31098E+04  1.97822E+04 -1.20485E+04  1.83792E+04  5.08177E+03
  6.71274E+03  1.33927E+04 -8.63612E+03  1.12711E+04 -1.52651E+04  2.06082E+03 -1.19014E+04 -8.97790E+03
 -5.27822E+02 -1.44237E+04  7.11714E+03 -1.01234E+04  9.49808E+03 -1.17146E+03  2.02814E+03  5.70951E+03
 -6.41135E+03  2.25855E+03 -4.50870E+03 -5.22216E+03  1.76666E+02 -1.21589E+04  8.61678E+03 -1.22775E+04
  1.48452E+04 -5.90146E+03  1.58991E+04  2.51136E+03  1.30444E+04  1.16845E+04  5.92369E+03  1.80771E+04
 -2.99590E+03  1.97655E+04 -1.17865E+04  1.23000E+04 -1.42050E+04  3.30572E+03 -1.04715E+04 -2.72381E+03
 -4.99248E+03 -3.83232E+03 -8.41484E+02  1.26551E+03 -2.21387E+03  2.60964E+03 -4.35958E+03  4.24386E+03
 -9.00371E+03 -1.64999E+02 -1.05301E+04 -8.52943E+03 -3.77255E+03 -1.31269E+04  4.41905E+03 -1.04900E+04
  8.61406E+03 -3.91412E+03  6.64336E+03  2.50056E+03  1.22344E+02  4.24329E+03 -4.21697E+03 -6.52845E+02
 -4.30874E+03 -6.08115E+03 -6.77118E+02 -9.05954E+03  4.76375E+03 -9.46916E+03  1.20402E+04 -4.98547E+03
  1.43353E+04  1.57221E+03  1.05198E+04  8.12724E+03  2.15498E+03  1.00562E+04 -6.10516E+03  9.98560E+03
 -8.46776E+03  3.40716E+03 -4.68787E+03 -1.81923E+03  1.59116E+03 -2.76381E+03  5.47940E+03 -8.11159E+02
  5.29341E+03  3.92039E+03  8.71980E+02  7.59867E+03 -5.72616E+03  8.01230E+03 -9.24840E+03  2.26911E+03
 -5.67515E+03 -4.35179E+03  1.57411E+02 -7.91318E+03  4.69588E+03 -4.00584E+03  4.93536E+03  1.67836E+03
  1.27116E+03  4.62223E+03 -4.92390E+03  5.65700E+03 -6.30201E+03  2.50895E+03 -6.13381E+03 -1.83360E+03
 -3.66137E+03 -7.78516E+03  1.90518E+03 -9.72798E+03  7.41611E+03 -6.01943E+03  8.56591E+03  1.72934E+03
  5.67495E+03  6.97240E+03 -5.42837E+01  9.67483E+03 -6.29866E+03  5.54438E+03 -7.05754E+03 -3.71885E+02
 -6.72429E+03 -6.45803E+03 -1.53212E+03 -6.18258E+03  3.69848E+03 -5.15755E+03  3.44150E+03 -2.89109E+03
  2.99180E+03  5.68598E+02 -3.28671E+02  9.44214E+02  4.78244E+02 -4.69364E+02  1.06519E+03 -3.49514E+03
  5.03736E+03 -1.40626E+03  7.25923E+03  7.10148E+02  7.06685E+03  4.81001E+03  6.84416E+03  1.00654E+04
 -2.02158E+03  1.08869E+04 -1.04944E+04  8.58142E+03 -1.28884E+04  1.32768E+03 -9.86063E+03 -3.86672E+03
 -4.89961E+03 -8.12072E+03 -3.57908E+02 -6.69594E+03  2.46044E+03 -3.51942E+03  2.19431E+03 -2.94516E+03
  1.92454E+03 -1.84334E+03  2.58904E+03 -2.46040E+03  4.04481E+03 -1.68814E+03  4.40073E+03  4.14123E+02
  5.77972E+03  1.53366E+03  2.05695E+03  4.18607E+03 -1.91889E+03  3.85808E+03 -5.68557E+03  3.50282E+03
 -6.32591E+03 -1.01320E+03 -3.52247E+03 -4.76157E+03  3.58843E+02 -6.96717E+03  3.67041E+03 -6.78764E+03
  7.21468E+03 -4.05383E+03  8.92579E+03  6.88924E+02  6.22451E+03  5.09328E+03  8.33280E+02  7.59411E+03
 -3.50825E+03  7.02040E+03 -4.27163E+03  2.14532E+03 -2.74280E+03 -1.30520E+03 -8.30315E+02 -6.94092E+02
 -4.09923E+02 -2.65560E+01 -9.22673E+02  2.19815E+03 -2.81804E+03  9.47117E+02 -5.13392E+03 -8.60059E+02
 -2.36915E+03 -4.87065E+03  4.13642E+02 -5.69138E+03  3.60177E+03 -5.86319E+03  5.11654E+03 -1.44398E+03
  5.42908E+03  3.07096E+03  2.39759E+03  4.13266E+03 -1.23481E+03  6.24558E+03 -3.58204E+03  3.56253E+03
 -5.00973E+03  4.56583E+02 -3.59300E+03 -3.54796E+03 -2.82457E+02 -4.73268E+03  2.50496E+03 -3.50113E+03
  3.70730E+03 -1.25762E+03  2.53213E+03  4.81592E+02  9.29295E+02  2.15919E+03  1.18189E+03  1.14479E+03
  1.82036E+03  1.01986E+03  2.00910E+03  1.36178E+03  1.37821E+03  2.63329E+03  1.65790E+03  2.36483E+03
 -1.61491E+03  4.48755E+03 -3.16932E+03  5.53369E+03 -4.33858E+03  1.34034E+03 -5.57985E+03 -1.01142E+03
 -2.40340E+03 -4.89687E+03  4.86506E+02 -6.15591E+03  2.72618E+03 -2.71426E+03  3.80828E+03 -1.61903E+03
  3.04909E+03  1.85871E+03  6.23603E+02  2.40076E+03 -1.01669E+03  1.97092E+03 -1.45651E+03 -7.01283E+02
 -7.42913E+02 -1.75555E+03  1.38198E+03 -2.18957E+03  2.35245E+03 -1.22523E+03  1.71052E+03  3.91632E+02
  5.46191E+02  3.54757E+02  2.71655E+02 -1.08000E+02 -6.44831E+02  7.97790E+02  1.45853E+03 -3.32099E+01
 -1.19277E+02 -3.04613E+02  2.18899E+03  6.40909E+02  6.35749E+02  3.00011E+03 -1.04575E+03  3.32764E+03
 -1.36869E+03  1.76858E+03 -3.06575E+03 -2.67224E+02 -2.78177E+03 -9.79897E+02 -3.22612E+02 -1.32509E+03
  3.30297E+02 -1.44148E+03  1.27346E+03 -1.19083E+03  8.30445E+02  1.16789E+03 -7.12686E+02  1.07843E+03
 -2.36021E+03  6.58348E+02 -1.77035E+03 -1.39082E+03 -8.64274E+02 -2.66582E+03  6.12195E+02 -1.64970E+03
  7.23839E+02 -1.04252E+03  1.05630E+03  4.27827E+02  2.05858E+03 -1.65580E+02  7.62196E+02  1.72445E+03
 -1.81354E+01 -1.46379E+02 -8.88887E+02 -1.04417E+03  5.90918E+02 -1.34109E+03  2.36157E+03 -1.43286E+03
  1.62139E+03  3.59341E+02  3.03808E+03  8.36321E+02  1.30952E+03  2.75634E+03 -9.85411E+02  2.39871E+03
 -1.91564E+03  5.71086E+02 -2.79300E+03 -3.42655E+02 -1.43301E+03 -1.15809E+03  3.05549E+02 -7.48362E+02
  1.77305E+03 -4.41173E+02  7.62948E+02  9.31468E+02  1.10040E+01  1.38441E+03  1.27069E+02  1.97070E+03
 -6.01846E+02  1.10115E+03 -8.38656E+02  7.30693E+02  1.74171E+02  2.49781E+02 -4.75091E+02  7.89538E+02
 -7.43855E+02  1.04468E+03 -1.91382E+03  5.21041E+02 -2.04923E+03 -5.36591E+01 -2.64679E+03 -2.01599E+03
 -1.05759E+03 -2.96918E+03 -1.39025E+01 -3.67965E+03  1.45972E+03 -3.22650E+03  4.14560E+03 -1.17783E+03
  3.25488E+03 -2.05900E+00  1.26483E+03  1.84681E+03 -1.53243E+02  2.45494E+03 -6.62922E+02  1.36391E+03
 -1.04286E+03  6.22830E+02 -8.37177E+02 -6.75981E+02 -5.27794E+02 -1.04160E+02 -1.14885E+03  4.99161E+02
 -1.00633E+03 -1.81153E+02 -1.03882E+03  1.18965E+02 -5.45524E+01 -7.53752E+02 -6.32533E+02 -6.44924E+02
  1.68368E+03 -7.24733E+02  5.32387E+02  3.61773E+02  1.42953E+03  1.71321E+03 -2.41018E+02  1.88773E+03
 -9.93683E+02  2.59141E+03 -2.69416E+03  1.71217E+03 -2.83243E+03 -1.87752E+02 -1.84363E+03 -1.60754E+03
 -9.09567E+02 -1.88387E+03  4.17271E+02 -1.16298E+03  7.66808E+02 -1.10837E+03  1.23170E+03  4.04508E+02
  5.69445E+02  1.67165E+02 -2.51165E+02  3.94894E+02 -4.05433E+02 -2.98896E+02 -1.72153E+02 -1.77068E+02
  8.33449E+02  1.39843E+02  5.61630E+02  5.67045E+02  3.60135E+02  7.08084E+02  5.97457E+02  8.71203E+02
 -1.12702E+03  7.74930E+02 -7.22131E+02 -3.17432E+02 -1.35118E+03 -1.26229E+03 -4.70070E+02 -1.48912E+03
  1.06635E+03 -9.72689E+02  1.20952E+03 -9.23610E+01  1.10682E+03 -1.84531E+02  3.16548E+01  1.11806E+03
  7.57662E+02  8.77895E+02 -6.12190E+02  1.23197E+03 -1.43313E+02  7.00188E+02 -6.05801E+02  4.61731E+02
  2.50159E+02 -5.36819E+02 -8.64693E+02  2.62512E+02 -6.97079E+02  5.31470E+02 -5.71989E+02 -5.66320E+02
 -1.01586E+03  3.30647E+02 -6.40849E+02 -1.63830E+03  1.16193E+03 -1.68729E+03  8.26210E+02  1.57227E+02
  6.76615E+02 -8.32529E+02  1.68965E+02  1.08845E+01  1.21438E+02  1.13559E+03 -2.71463E+02  6.52330E+02
