 $NMID ID='MM_0lb_SNR400_10hz_g50_77.RAW', FMTDAT='(8E13.5)'
 TRAMP=1., VOLUME=1. $END
  3.10530E+05  8.40895E+02  3.37301E+05  2.50983E+05  8.54406E+04  3.38541E+05 -1.32461E+05  2.51450E+05
 -1.90767E+05  8.38614E+04 -1.12245E+05 -3.22655E+04  7.56155E+02 -5.13928E+04  5.34796E+04 -6.82708E+01
  3.53891E+04  5.27096E+04 -1.55956E+04  7.62871E+04 -6.13372E+04  6.31239E+04 -8.50140E+04  3.21602E+04
 -8.25056E+04 -1.17595E+04 -5.76997E+04 -5.27218E+04 -1.47413E+04 -7.05609E+04  2.77643E+04 -4.70697E+04
  4.10283E+04  3.12314E+03  1.57204E+04  4.81437E+04 -3.42538E+04  4.76402E+04 -6.75463E+04  2.52926E+02
 -5.53779E+04 -5.78870E+04 -6.93178E+03 -7.86387E+04  3.50298E+04 -5.61375E+04  4.88539E+04 -1.85494E+04
  4.48623E+04  1.07960E+04  3.25401E+04  2.68538E+04  1.58058E+04  3.02175E+04 -5.45557E+03  2.75650E+04
 -2.24428E+04  1.17415E+04 -1.82961E+04 -6.31051E+03  6.57595E+03 -7.40328E+03  2.32842E+04  1.28127E+04
  6.69630E+03  3.70298E+04 -3.33602E+04  3.67224E+04 -6.48679E+04  2.33439E+03 -5.76538E+04 -4.40574E+04
 -1.23578E+04 -6.54542E+04  4.14309E+04 -4.68456E+04  6.05582E+04 -2.33712E+03  3.63323E+04  3.39747E+04
 -5.34544E+03  3.81521E+04 -3.15005E+04  1.83411E+04 -3.25582E+04 -3.44374E+03 -1.86725E+04 -1.25076E+04
 -9.16422E+03 -1.55212E+04 -2.01383E+02 -1.97248E+04  8.04422E+03 -2.33471E+04  1.48746E+04 -1.27881E+04
  1.07444E+04  6.51667E+03 -1.00115E+04  1.28463E+04 -2.22435E+04 -6.27809E+03 -8.67168E+03 -3.68465E+04
  2.43503E+04 -4.60748E+04  5.18610E+04 -2.13857E+04  4.83131E+04  2.01338E+04  1.74887E+04  4.59881E+04
 -1.66573E+04  3.49473E+04 -2.73767E+04  2.58397E+03 -1.14795E+04 -2.91100E+04  2.04549E+04 -3.63021E+04
  4.37886E+04 -1.11128E+04  3.91536E+04  2.46652E+04  2.02412E+04  4.96451E+04 -7.78659E+03  5.41174E+04
 -3.42943E+04  3.74231E+04 -4.67381E+04  1.02444E+04 -4.66317E+04 -1.80402E+04 -2.51175E+04 -4.13934E+04
  7.60013E+03 -4.04262E+04  3.36764E+04 -1.64092E+04  3.17843E+04  1.01978E+04  5.22643E+03  2.10449E+04
 -1.35658E+04  9.97405E+03 -1.09017E+04 -7.47859E+03  5.49507E+03 -1.20243E+04  1.83212E+04  5.45302E+03
  1.47398E+04  2.31498E+04 -5.54946E+03  2.65263E+04 -2.27242E+04  1.35986E+04 -3.12123E+04 -3.38150E+03
 -2.42894E+04 -1.78190E+04 -1.14104E+04 -2.39733E+04  3.85477E+03 -2.45503E+04  1.90645E+04 -2.22290E+04
  3.05251E+04 -1.42859E+04  3.70161E+04  4.94044E+03  2.63643E+04  2.31215E+04  3.99029E+03  4.00782E+04
 -1.88117E+04  3.32921E+04 -3.00706E+04  1.19810E+04 -2.22360E+04 -1.02732E+04 -4.82856E+03 -1.25384E+04
  1.20847E+03 -1.47180E+03 -6.78586E+03  7.68275E+03 -1.91293E+04  5.28156E+03 -1.93697E+04 -9.19220E+03
 -1.10623E+04 -2.25942E+04  6.20071E+03 -2.67295E+04  1.71045E+04 -1.87917E+04  2.22741E+04 -2.29102E+03
  1.46563E+04  1.48927E+04 -9.53505E+02  2.22573E+04 -1.60617E+04  1.30200E+04 -2.25542E+04 -3.77519E+03
 -1.65065E+04 -1.96799E+04 -2.17907E+03 -2.71781E+04  1.17037E+04 -2.24046E+04  2.19844E+04 -1.13654E+04
  2.14309E+04 -3.91674E+02  1.52400E+04  5.19767E+03  8.95341E+03  1.50372E+03  1.18374E+04 -2.17133E+03
  2.13076E+04  3.07787E+03  2.37175E+04  1.76703E+04  1.67337E+04  3.62330E+04 -2.48273E+03  4.23442E+04
 -2.47111E+04  3.49388E+04 -3.96973E+04  1.83615E+04 -4.19692E+04 -2.45315E+03 -3.41769E+04 -2.55438E+04
 -1.38503E+04 -3.52149E+04  1.21880E+04 -3.12576E+04  2.61000E+04 -1.47605E+04  2.26328E+04  7.55466E+03
  7.80050E+03  1.78263E+04 -1.02528E+04  1.52692E+04 -1.92020E+04  2.39518E+03 -1.45728E+04 -1.23532E+04
  2.15220E+02 -1.90027E+04  9.33857E+03 -1.37758E+04  1.24128E+04 -9.10992E+02  2.96547E+03  8.63007E+03
 -7.64019E+03  3.48524E+03 -8.91451E+03 -6.04841E+03 -2.12017E+03 -1.68525E+04  1.06392E+04 -1.81123E+04
  2.24267E+04 -1.02827E+04  2.48065E+04  3.77029E+03  2.17323E+04  1.74261E+04  1.02197E+04  2.77307E+04
 -4.61152E+03  2.91969E+04 -1.90663E+04  1.83235E+04 -2.14920E+04  3.24065E+03 -1.40436E+04 -5.90725E+03
 -6.54981E+03 -6.91766E+03 -7.85421E+02  4.76483E+02 -2.38523E+03  3.00328E+03 -6.68740E+03  4.21536E+03
 -1.28786E+04 -6.89596E+02 -1.39596E+04 -1.13629E+04 -5.71635E+03 -1.79122E+04  6.87582E+03 -1.45924E+04
  1.24019E+04 -6.39920E+03  7.52273E+03  2.97918E+03 -2.33281E+02  6.23288E+03 -7.81198E+03 -1.29432E+03
 -7.62720E+03 -9.76254E+03 -1.58858E+03 -1.47429E+04  8.18226E+03 -1.51235E+04  1.76092E+04 -8.00281E+03
  2.18333E+04  2.20192E+03  1.54107E+04  1.37215E+04  3.01850E+03  1.81159E+04 -9.24024E+03  1.43712E+04
 -1.22357E+04  3.73182E+03 -6.32192E+03 -2.64940E+03  1.81165E+03 -3.39040E+03  7.71389E+03 -8.11225E+02
  7.48628E+03  7.01411E+03  1.01674E+03  1.15250E+04 -8.47700E+03  1.16427E+04 -1.48711E+04  3.15913E+03
 -1.02912E+04 -7.96290E+03  1.05495E+03 -1.29905E+04  7.63611E+03 -6.26675E+03  8.20338E+03  2.78262E+03
  3.13821E+03  9.03657E+03 -7.53554E+03  1.07273E+04 -1.35466E+04  4.19087E+03 -1.21858E+04 -3.92422E+03
 -7.36513E+03 -1.44882E+04  3.58139E+03 -1.65749E+04  1.45394E+04 -1.04152E+04  1.55118E+04  3.09047E+03
  9.38246E+03  1.16736E+04 -2.30145E+03  1.51267E+04 -9.92630E+03  7.53546E+03 -1.16860E+04 -7.31084E+02
 -1.00535E+04 -1.00097E+04 -1.11067E+03 -1.10415E+04  5.81349E+03 -9.04609E+03  7.29068E+03 -3.31883E+03
  4.50466E+03  1.91619E+03 -1.59475E+03  1.66254E+03 -1.03543E+03 -2.29062E+03  2.18764E+03 -6.42134E+03
  1.06558E+04 -4.16516E+03  1.46296E+04  1.34276E+03  1.45960E+04  9.70020E+03  9.06926E+03  1.95098E+04
 -4.67759E+03  2.17386E+04 -1.80253E+04  1.59432E+04 -2.31688E+04  2.12714E+03 -1.89403E+04 -7.44419E+03
 -9.73628E+03 -1.58686E+04  5.44552E+01 -1.37778E+04  5.00367E+03 -7.03526E+03  5.33447E+03 -4.45820E+03
  2.96406E+03 -3.38719E+03  3.72657E+03 -3.72121E+03  5.39969E+03 -2.94882E+03  6.81044E+03 -1.28216E+03
  9.73559E+03  2.12098E+03  5.00904E+03  8.19347E+03 -3.20996E+03  9.48909E+03 -9.52643E+03  7.10259E+03
 -1.30279E+04 -1.55865E+03 -8.17755E+03 -8.95028E+03 -1.10708E+03 -1.43396E+04  7.65978E+03 -1.42662E+04
  1.46393E+04 -7.85819E+03  1.81641E+04  2.55488E+03  1.32456E+04  1.26215E+04  2.02768E+03  1.62822E+04
 -6.60028E+03  1.27854E+04 -9.54083E+03  4.95359E+03 -6.23007E+03 -1.71437E+03 -3.09656E+03 -2.26702E+03
 -1.83088E+03 -4.82077E+02 -2.08417E+03  2.22454E+03 -5.28599E+03  2.72323E+03 -9.29698E+03 -1.73831E+03
 -6.27678E+03 -9.50426E+03  4.73267E+02 -1.36696E+04  8.16636E+03 -1.16318E+04  1.25093E+04 -3.97861E+03
  1.31165E+04  6.27633E+03  6.07798E+03  1.16908E+04 -3.17151E+03  1.32003E+04 -9.53098E+03  7.69851E+03
 -1.27000E+04  1.21430E+03 -9.44665E+03 -7.90475E+03 -1.22051E+03 -1.07751E+04  5.36150E+03 -8.15817E+03
  7.77687E+03 -2.86739E+03  5.10749E+03  2.41633E+03  1.42195E+03  3.60581E+03  1.02270E+03  1.53875E+03
  2.73423E+03  1.29850E+03  3.07747E+03  1.90999E+03  3.97467E+03  5.57537E+03  4.04730E+03  7.68857E+03
 -3.65165E+03  1.01479E+04 -9.44019E+03  1.03124E+04 -1.32281E+04  2.61203E+03 -1.31112E+04 -4.94173E+03
 -6.71779E+03 -1.28394E+04  1.61972E+03 -1.51967E+04  8.23442E+03 -8.94268E+03  1.10846E+04 -2.12724E+03
  7.99139E+03  5.53920E+03  1.33715E+03  8.23966E+03 -3.48890E+03  4.96378E+03 -5.84785E+03 -6.52150E+02
 -2.25499E+03 -5.38530E+03  3.19130E+03 -5.94866E+03  6.01583E+03 -2.38129E+03  5.48817E+03  1.34396E+03
  2.77765E+03  2.71470E+03  8.44099E+02  1.96760E+03 -8.26129E+02  2.08373E+03  1.32993E+03 -5.19126E+02
  1.74319E+03 -1.31372E+03  5.16216E+03  2.09955E+03  2.85968E+03  6.57889E+03 -1.30150E+03  9.78860E+03
 -5.71424E+03  5.47727E+03 -8.60025E+03  2.45070E+03 -7.47167E+03 -3.34339E+03 -2.16115E+03 -5.63203E+03
  3.93102E+02 -5.43788E+03  3.30441E+03 -1.56313E+03  2.32975E+03  2.99964E+03 -1.25272E+03  4.51618E+03
 -5.61029E+03  2.13998E+03 -6.30096E+03 -3.37604E+03 -3.55870E+03 -7.16787E+03  1.00781E+03 -6.82516E+03
  5.07035E+03 -3.49560E+03  4.98519E+03 -7.31290E+02  4.59330E+03  2.57877E+03  6.70092E+02  4.41063E+03
 -2.73712E+03  1.17665E+03 -3.11532E+03 -2.64930E+03  1.44366E+03 -5.75548E+03  6.18411E+03 -4.46340E+03
  7.93765E+03  1.13564E+03  7.35118E+03  5.68664E+03  2.99651E+03  8.57810E+03 -3.22581E+03  8.04506E+03
 -6.92238E+03  3.65571E+03 -6.66379E+03 -1.24353E+03 -3.72943E+03 -5.41271E+03  8.09315E+02 -5.82443E+03
  5.40169E+03 -3.07523E+03  4.40257E+03  1.74988E+03  1.93027E+03  5.09719E+03 -9.35140E+02  3.61198E+03
 -2.53045E+03  2.88493E+03 -1.98615E+03  1.02788E+03 -2.25268E+02  8.68308E+02 -7.08610E+02  1.25690E+03
 -2.02367E+03  2.79813E+03 -5.54841E+03  2.78288E+03 -8.79394E+03 -3.69401E+02 -9.40797E+03 -5.09419E+03
 -5.25893E+03 -1.10909E+04  2.67238E+03 -1.33413E+04  8.25051E+03 -1.03966E+04  1.28501E+04 -4.09882E+03
  1.14357E+04  1.70285E+03  7.57062E+03  7.50949E+03  1.55087E+02  8.77022E+03 -3.51810E+03  6.17371E+03
 -4.57725E+03  2.42939E+03 -3.46293E+03 -1.06008E+03 -8.39253E+02 -3.00204E+02 -6.53827E+02 -5.05469E+01
 -1.66394E+03 -1.75658E+02 -2.69908E+03 -1.72461E+02 -7.99752E+02 -1.75664E+03  2.48011E+00 -3.80858E+03
  3.72654E+03 -2.52946E+03  4.50505E+03 -1.40257E+02  6.14075E+03  4.55258E+03  1.66406E+03  8.60190E+03
 -3.81358E+03  1.00467E+04 -9.57930E+03  5.41893E+03 -1.03966E+04 -4.63663E+02 -7.64161E+03 -7.19343E+03
 -3.25805E+03 -8.79813E+03  1.88868E+03 -8.42887E+03  5.93477E+03 -4.23623E+03  5.83002E+03 -2.43767E+02
  2.85386E+03  2.74171E+03 -7.93559E+02  2.43036E+03 -1.28211E+03 -1.71394E+02 -4.06989E+02 -1.46496E+03
  2.17883E+03 -1.20856E+03  2.76497E+03  1.28661E+03  2.09896E+03  3.17527E+03  1.57589E+02  4.61363E+03
 -4.13145E+03  4.53183E+03 -6.07215E+03  6.48661E+02 -5.15268E+03 -4.43620E+03 -3.70866E+02 -6.67079E+03
  4.41955E+03 -6.17534E+03  5.86839E+03 -1.67790E+03  7.00846E+03  1.37044E+03  4.06878E+03  5.66347E+03
  7.74378E+02  5.08432E+03 -2.26872E+03  4.69359E+03 -3.55011E+03  2.35929E+03 -2.95181E+03  1.01792E+03
 -8.69975E+02 -2.84554E+01 -2.34036E+03  1.54643E+02 -3.66552E+03  6.83213E+02 -4.10668E+03 -1.44450E+02
 -4.25933E+03 -3.77270E+03 -9.99447E+02 -6.31438E+03  2.28473E+03 -6.55620E+03  5.86753E+03 -2.96033E+03
  5.70430E+03  6.44323E+02  2.99347E+03  3.85189E+03 -7.51820E+02  5.48483E+03 -4.43076E+03  4.40824E+03
