 $NMID ID='MM_0lb_SNR400_9hz_g45_28.RAW', FMTDAT='(8E13.5)'
 TRAMP=1., VOLUME=1. $END
  3.09313E+05  2.24018E+02  3.38324E+05  2.50602E+05  8.51259E+04  3.37567E+05 -1.32826E+05  2.50755E+05
 -1.91408E+05  8.36965E+04 -1.13287E+05 -3.22280E+04  3.45822E+02 -5.03515E+04  5.40001E+04 -2.71388E+02
  3.50304E+04  5.27622E+04 -1.66726E+04  7.58485E+04 -6.09260E+04  6.29415E+04 -8.48059E+04  3.19711E+04
 -8.20444E+04 -1.22992E+04 -5.81453E+04 -5.18963E+04 -1.57780E+04 -7.11219E+04  2.76780E+04 -4.69826E+04
  4.09637E+04  4.00868E+03  1.55268E+04  4.84947E+04 -3.50747E+04  4.76963E+04 -6.79038E+04  1.79108E+02
 -5.51163E+04 -5.77089E+04 -6.64074E+03 -7.91824E+04  3.48397E+04 -5.70588E+04  4.85590E+04 -1.82426E+04
  4.49547E+04  1.12257E+04  3.31137E+04  2.69416E+04  1.59060E+04  3.15162E+04 -5.78960E+03  2.79670E+04
 -2.19598E+04  1.22713E+04 -1.80702E+04 -4.77351E+03  6.63533E+03 -7.97573E+03  2.32185E+04  1.32383E+04
  6.74041E+03  3.70774E+04 -3.34457E+04  3.72562E+04 -6.59031E+04  1.61165E+03 -5.92873E+04 -4.39840E+04
 -1.28795E+04 -6.51469E+04  4.11333E+04 -4.74260E+04  6.15965E+04 -2.42740E+03  3.61651E+04  3.44721E+04
 -5.89500E+03  3.85525E+04 -3.15572E+04  1.86824E+04 -3.24417E+04 -4.10541E+03 -1.88837E+04 -1.23094E+04
 -9.59782E+03 -1.61787E+04 -6.49631E+02 -1.99807E+04  7.71668E+03 -2.33739E+04  1.60851E+04 -1.24870E+04
  1.04469E+04  6.26190E+03 -1.07922E+04  1.27211E+04 -2.39523E+04 -6.88996E+03 -9.27919E+03 -3.70491E+04
  2.50114E+04 -4.72355E+04  5.26611E+04 -2.01445E+04  4.76449E+04  1.99454E+04  1.65040E+04  4.60921E+04
 -1.62215E+04  3.61813E+04 -2.73632E+04  2.65501E+03 -1.10230E+04 -2.99542E+04  2.12695E+04 -3.57977E+04
  4.35716E+04 -1.10289E+04  3.98708E+04  2.44369E+04  2.18938E+04  5.09458E+04 -8.18336E+03  5.61068E+04
 -3.46019E+04  3.75973E+04 -4.59179E+04  1.05441E+04 -4.71348E+04 -1.81783E+04 -2.57223E+04 -4.19051E+04
  8.11865E+03 -4.14185E+04  3.35998E+04 -1.65878E+04  3.11722E+04  1.18239E+04  5.39817E+03  2.05744E+04
 -1.32031E+04  8.93840E+03 -1.15151E+04 -7.79183E+03  5.88853E+03 -1.21001E+04  1.85805E+04  5.50923E+03
  1.45389E+04  2.29511E+04 -5.11911E+03  2.67583E+04 -2.44993E+04  1.38430E+04 -3.14779E+04 -3.76914E+03
 -2.50540E+04 -1.80137E+04 -1.16810E+04 -2.38052E+04  3.60023E+03 -2.50025E+04  1.92757E+04 -2.29319E+04
  3.10548E+04 -1.36866E+04  3.72994E+04  5.04329E+03  2.69167E+04  2.38255E+04  3.46584E+03  4.05035E+04
 -1.93277E+04  3.34526E+04 -2.99395E+04  1.16822E+04 -2.15535E+04 -1.04772E+04 -4.99099E+03 -1.36253E+04
  9.39339E+02 -1.96461E+03 -7.27574E+03  8.82310E+03 -1.95026E+04  5.29391E+03 -1.99198E+04 -9.14813E+03
 -1.09976E+04 -2.32363E+04  6.32097E+03 -2.74372E+04  1.88920E+04 -1.91222E+04  2.17534E+04 -2.04168E+03
  1.36989E+04  1.57902E+04 -1.03283E+03  2.29167E+04 -1.61369E+04  1.28576E+04 -2.37493E+04 -4.35906E+03
 -1.72657E+04 -2.03985E+04 -2.64743E+03 -2.78916E+04  1.23288E+04 -2.36258E+04  2.33293E+04 -1.16318E+04
  2.13258E+04 -6.60683E+02  1.56633E+04  4.39996E+03  8.19149E+03  2.19916E+03  1.26507E+04 -1.18739E+03
  2.18524E+04  3.55286E+03  2.49957E+04  1.81335E+04  1.69769E+04  3.72304E+04 -2.21844E+03  4.34900E+04
 -2.47867E+04  3.67794E+04 -4.15787E+04  1.88667E+04 -4.42526E+04 -2.72477E+03 -3.48624E+04 -2.51850E+04
 -1.49187E+04 -3.61004E+04  1.22465E+04 -3.19235E+04  2.74746E+04 -1.41110E+04  2.34586E+04  7.17724E+03
  8.26646E+03  1.84251E+04 -1.15558E+04  1.59182E+04 -1.99169E+04  2.17930E+03 -1.42516E+04 -1.15462E+04
 -2.11818E+02 -1.93583E+04  1.02450E+04 -1.44184E+04  1.33515E+04 -2.06099E+03  2.79077E+03  9.02470E+03
 -7.73777E+03  3.28004E+03 -7.62992E+03 -6.25934E+03 -1.67603E+03 -1.74284E+04  1.16250E+04 -1.95551E+04
  2.23392E+04 -1.01308E+04  2.61198E+04  2.46726E+03  2.25894E+04  1.84229E+04  1.04609E+04  2.77349E+04
 -5.91550E+03  3.01961E+04 -1.96869E+04  1.86716E+04 -2.23131E+04  4.90241E+03 -1.49360E+04 -5.74278E+03
 -6.55039E+03 -7.14428E+03  5.90167E+02  8.33688E+02 -3.38716E+03  3.27237E+03 -7.77322E+03  5.25535E+03
 -1.38336E+04 -1.39974E+03 -1.43536E+04 -1.09573E+04 -6.33177E+03 -1.97877E+04  6.10833E+03 -1.60876E+04
  1.25194E+04 -6.61619E+03  1.01307E+04  4.43840E+03 -5.15901E+02  6.99796E+03 -7.54591E+03  2.58668E+02
 -7.19318E+03 -9.32022E+03 -5.15867E+01 -1.50903E+04  9.29747E+03 -1.58753E+04  2.00081E+04 -9.02999E+03
  2.33683E+04  2.52744E+03  1.65731E+04  1.33488E+04  3.00977E+03  1.86150E+04 -9.26632E+03  1.54170E+04
 -1.20474E+04  4.65190E+03 -5.94982E+03 -3.27614E+03  2.85371E+03 -4.16194E+03  7.87165E+03 -8.72061E+02
  7.26158E+03  6.93781E+03  1.52728E+03  1.24016E+04 -8.66682E+03  1.22585E+04 -1.50258E+04  2.98129E+03
 -1.05549E+04 -8.37412E+03  1.60613E+02 -1.32947E+04  9.22604E+03 -7.76767E+03  9.37127E+03  2.83471E+03
  2.20214E+03  9.70965E+03 -7.72113E+03  1.08146E+04 -1.31907E+04  5.80566E+03 -1.36510E+04 -4.47757E+03
 -8.24476E+03 -1.50872E+04  4.26599E+03 -1.80600E+04  1.47955E+04 -1.02044E+04  1.69988E+04  3.19565E+03
  1.01808E+04  1.32248E+04 -1.51666E+03  1.59844E+04 -1.13559E+04  8.02310E+03 -1.22115E+04 -1.61638E+03
 -1.12391E+04 -1.08667E+04 -2.48184E+03 -1.17115E+04  6.73016E+03 -8.78486E+03  8.66104E+03 -3.86188E+03
  5.28116E+03  1.96519E+03 -1.99340E+03  1.50456E+03 -9.74881E+02 -3.52697E+03  1.79607E+03 -7.41657E+03
  1.08814E+04 -4.94918E+03  1.54851E+04  1.60934E+03  1.55197E+04  1.16115E+04  9.88397E+03  2.03090E+04
 -4.79890E+03  2.37427E+04 -1.92014E+04  1.71933E+04 -2.46114E+04  2.83484E+03 -2.02124E+04 -8.79394E+03
 -9.59058E+03 -1.71206E+04 -2.07843E+02 -1.43186E+04  4.56120E+03 -8.44191E+03  5.26973E+03 -5.43215E+03
  4.33151E+03 -2.57463E+03  3.48690E+03 -4.33417E+03  6.04617E+03 -3.53675E+03  8.02209E+03 -1.37281E+03
  1.08277E+04  2.05527E+03  6.02991E+03  9.02677E+03 -2.33880E+03  1.06973E+04 -1.07396E+04  8.93595E+03
 -1.39674E+04 -9.30050E+02 -1.07179E+04 -1.01527E+04 -1.10912E+03 -1.52983E+04  8.50312E+03 -1.55979E+04
  1.66073E+04 -9.60354E+03  1.93864E+04  2.59888E+03  1.26334E+04  1.29895E+04  1.69159E+03  1.67181E+04
 -6.70734E+03  1.37776E+04 -9.78379E+03  3.94362E+03 -6.53870E+03 -2.32007E+03 -2.41636E+03 -1.73785E+03
 -1.39824E+03 -3.67993E+02 -1.88330E+03  2.63999E+03 -6.73947E+03  2.35745E+03 -1.01302E+04 -9.63269E+02
 -7.36875E+03 -9.94688E+03 -1.13466E+02 -1.39252E+04  8.85216E+03 -1.26170E+04  1.40548E+04 -3.25032E+03
  1.47748E+04  5.94919E+03  6.74861E+03  1.23412E+04 -3.14807E+03  1.42901E+04 -9.99507E+03  8.85303E+03
 -1.35515E+04  1.34476E+03 -9.50990E+03 -8.56593E+03 -6.89637E+02 -1.17774E+04  6.30501E+03 -8.85690E+03
  9.54552E+03 -2.94918E+03  5.40226E+03  2.44591E+03  1.89003E+03  4.41740E+03  1.57920E+03  2.34654E+03
  2.58613E+03  2.16566E+03  3.78742E+03  1.05034E+03  4.26028E+03  5.61381E+03  3.97140E+03  8.05645E+03
 -2.30413E+03  1.13074E+04 -1.05367E+04  1.11226E+04 -1.41361E+04  2.84694E+03 -1.52958E+04 -6.19518E+03
 -7.78890E+03 -1.45098E+04  2.34203E+03 -1.67043E+04  9.25388E+03 -9.82420E+03  1.24244E+04 -2.66427E+03
  9.00358E+03  5.32912E+03  2.29628E+03  7.54223E+03 -4.44729E+03  4.50909E+03 -6.05417E+03 -2.78111E+02
 -2.37255E+03 -6.04648E+03  4.16266E+03 -6.55668E+03  6.06072E+03 -2.78152E+03  6.07582E+03  9.57307E+02
  3.82284E+03  2.51876E+03  1.55799E+03  1.77824E+03 -9.76699E+02  1.70132E+03  1.57684E+03 -8.68425E+02
  2.21556E+03 -1.15165E+03  5.35226E+03  2.38448E+03  3.58660E+03  7.61428E+03 -1.45543E+03  1.01737E+04
 -6.94684E+03  6.53663E+03 -9.59420E+03  2.39507E+03 -8.13008E+03 -3.94452E+03 -3.13681E+03 -5.37373E+03
  1.16915E+03 -6.03549E+03  3.35406E+03 -2.76637E+03  2.51947E+03  2.07453E+03 -1.23657E+03  5.06871E+03
 -5.75046E+03  3.00586E+03 -6.33806E+03 -3.64324E+03 -4.11010E+03 -8.26259E+03  1.49376E+03 -8.70479E+03
  4.77724E+03 -5.41514E+03  5.79629E+03 -4.33712E+02  4.75795E+03  1.93244E+03  4.76998E+02  4.44420E+03
 -2.57479E+03  8.78809E+02 -4.37668E+03 -2.92839E+03  1.10893E+03 -5.76230E+03  7.66607E+03 -3.94598E+03
  9.88982E+03  1.29262E+03  9.23834E+03  6.24887E+03  3.63738E+03  9.74115E+03 -3.74622E+03  9.83704E+03
 -7.52236E+03  4.12926E+03 -8.88331E+03 -1.35677E+03 -4.27179E+03 -5.83467E+03  1.70965E+03 -5.19699E+03
  5.69292E+03 -3.67248E+03  5.42904E+03  3.04027E+03  1.58542E+03  5.56413E+03 -5.34914E+01  5.28097E+03
 -2.55624E+03  2.77447E+03 -2.66759E+03  1.69202E+03 -7.55684E+02  1.73647E+03 -1.71972E+03  2.21288E+03
 -2.37929E+03  3.81113E+03 -6.49695E+03  3.64449E+03 -9.52632E+03  1.71586E+02 -1.09204E+04 -6.10907E+03
 -6.32430E+03 -1.37814E+04  3.07058E+03 -1.60660E+04  8.41066E+03 -1.10149E+04  1.39565E+04 -4.30664E+03
  1.27361E+04  1.91109E+03  8.83982E+03  9.14620E+03  3.88632E+02  1.01038E+04 -4.36076E+03  7.70097E+03
 -6.01747E+03  2.78790E+03 -3.85648E+03 -8.62423E+02 -1.29335E+03 -6.30189E+02 -8.10307E+02  9.57131E+01
 -1.67028E+03 -8.01108E+01 -2.59456E+03 -6.29029E+01 -8.67358E+02 -3.03584E+03  2.46334E+02 -3.67632E+03
  4.27992E+03 -3.62828E+03  6.42519E+03  5.05014E+02  7.36385E+03  5.87082E+03  2.01169E+03  1.03281E+04
 -4.15928E+03  1.15343E+04 -1.07538E+04  6.05974E+03 -1.26331E+04 -5.43850E+02 -8.92481E+03 -7.34860E+03
 -4.23281E+03 -1.05233E+04  2.97801E+03 -9.16634E+03  6.00607E+03 -5.10155E+03  7.05755E+03  3.68205E+01
  2.78725E+03  3.39658E+03 -5.56956E+02  4.18396E+03 -2.26486E+03  2.62986E+02 -4.81726E+02 -1.67459E+03
  3.15188E+03 -1.32853E+03  4.09410E+03  8.77079E+02  2.82201E+03  3.23089E+03 -7.56105E+02  5.03022E+03
 -4.75247E+03  3.96140E+03 -6.95936E+03  4.68803E+02 -6.03824E+03 -5.81758E+03 -1.33803E+03 -8.53091E+03
  5.13377E+03 -6.50473E+03  8.88054E+03 -2.75558E+03  8.37174E+03  2.07961E+03  5.27661E+03  5.96500E+03
  1.42258E+03  6.48040E+03 -2.44452E+03  5.69407E+03 -4.77922E+03  2.51703E+03 -3.74039E+03  9.45933E+02
 -1.67250E+03  4.09154E+02 -1.34305E+03  4.39940E+02 -4.19870E+03  1.35624E+03 -5.26680E+03 -1.61176E+03
 -5.46120E+03 -3.91204E+03 -1.83116E+03 -7.38299E+03  3.20142E+03 -7.03962E+03  5.45727E+03 -2.50567E+03
  7.47684E+03  3.63021E+02  4.50455E+03  5.42897E+03 -4.49369E+02  6.62315E+03 -4.56512E+03  4.24020E+03
