 $NMID ID='MM_0lb_SNR400_20hz_g45_91.RAW', FMTDAT='(8E13.5)'
 TRAMP=1., VOLUME=1. $END
  3.09635E+05 -3.37577E+01  3.36841E+05  2.50193E+05  8.42015E+04  3.37321E+05 -1.32472E+05  2.49687E+05
 -1.89669E+05  8.21601E+04 -1.10623E+05 -3.27944E+04  1.71263E+03 -4.95909E+04  5.42145E+04  4.45007E+02
  3.49731E+04  5.23070E+04 -1.67147E+04  7.42423E+04 -6.04872E+04  6.29409E+04 -8.22040E+04  3.12244E+04
 -7.93923E+04 -1.07566E+04 -5.61516E+04 -4.95989E+04 -1.49362E+04 -6.77317E+04  2.65140E+04 -4.43779E+04
  3.83305E+04  4.06135E+03  1.58569E+04  4.66405E+04 -3.32786E+04  4.53653E+04 -6.49549E+04 -1.19050E+03
 -5.08834E+04 -5.55674E+04 -6.36042E+03 -7.45578E+04  3.30096E+04 -5.23654E+04  4.63100E+04 -1.60446E+04
  4.10673E+04  1.07709E+04  3.00561E+04  2.44587E+04  1.57027E+04  2.82481E+04 -4.11984E+03  2.69110E+04
 -2.11720E+04  1.31972E+04 -1.96822E+04 -4.43746E+03  3.24730E+03 -8.10086E+03  2.07360E+04  1.08573E+04
  7.06417E+03  3.20786E+04 -2.95764E+04  3.34051E+04 -6.05650E+04  2.00495E+03 -5.48154E+04 -4.06818E+04
 -1.24403E+04 -6.03409E+04  3.76168E+04 -4.21286E+04  5.46514E+04 -2.06266E+03  3.09499E+04  2.99845E+04
 -6.11928E+03  3.20763E+04 -2.85059E+04  1.27013E+04 -2.63375E+04 -5.80789E+03 -1.37375E+04 -9.96869E+03
 -7.21875E+03 -1.09180E+04 -1.14724E+03 -1.62928E+04  6.40416E+03 -2.25524E+04  1.50253E+04 -1.42392E+04
  1.24729E+04  3.87618E+03 -5.74949E+03  1.31764E+04 -1.86520E+04 -1.69848E+03 -7.86438E+03 -2.92149E+04
  2.01158E+04 -3.94859E+04  4.37978E+04 -1.83776E+04  4.10380E+04  1.71653E+04  1.36391E+04  4.09006E+04
 -1.56378E+04  3.00850E+04 -2.35663E+04  1.08831E+03 -8.10289E+03 -2.59695E+04  2.04472E+04 -3.01620E+04
  3.72771E+04 -7.00098E+03  3.03625E+04  2.26168E+04  1.43034E+04  4.17831E+04 -7.65305E+03  4.33685E+04
 -2.79169E+04  2.85388E+04 -3.58421E+04  7.82505E+03 -3.72956E+04 -1.43388E+04 -2.11093E+04 -3.33233E+04
  6.57246E+03 -3.29265E+04  2.78140E+04 -1.22727E+04  2.61823E+04  1.07316E+04  2.69686E+03  1.69773E+04
 -1.27617E+04  7.24667E+03 -9.34665E+03 -8.11624E+03  6.42135E+03 -9.80147E+03  1.66563E+04  6.77588E+03
  1.21381E+04  2.16025E+04 -6.59922E+03  2.25875E+04 -2.08797E+04  8.31481E+03 -2.44002E+04 -7.00306E+03
 -1.49471E+04 -1.58278E+04 -4.97932E+03 -1.57269E+04  3.91894E+03 -1.31138E+04  1.15194E+04 -1.33656E+04
  2.01374E+04 -1.16129E+04  2.65762E+04  3.59444E+02  2.02323E+04  1.50940E+04  4.17787E+03  3.05975E+04
 -1.54878E+04  2.66074E+04 -2.51645E+04  8.83305E+03 -1.91356E+04 -1.06833E+04 -3.39668E+03 -1.43617E+04
  3.32992E+03 -5.36974E+03 -1.62018E+03  4.81688E+03 -1.17975E+04  5.62412E+03 -1.22994E+04 -4.52718E+03
 -8.32788E+03 -1.48111E+04  4.29574E+03 -1.78492E+04  1.19823E+04 -1.31679E+04  1.31444E+04 -1.98625E+03
  8.21350E+03  9.89164E+03 -6.35522E+02  1.47386E+04 -9.54793E+03  8.65052E+03 -1.39676E+04 -2.91853E+03
 -1.03948E+04 -1.32473E+04 -1.15134E+03 -1.83872E+04  7.96405E+03 -1.41802E+04  1.54776E+04 -6.65598E+03
  1.35951E+04  5.56850E+02  9.51043E+03  3.68543E+03  5.25867E+03  1.16863E+03  7.02757E+03 -1.23879E+03
  1.23994E+04  2.39656E+03  1.33151E+04  1.18416E+04  8.09704E+03  2.29496E+04 -3.51853E+03  2.43859E+04
 -1.45496E+04  1.84094E+04 -2.21827E+04  7.97523E+03 -2.22704E+04 -1.04912E+03 -1.88241E+04 -1.25314E+04
 -9.10630E+03 -1.78898E+04  5.84888E+03 -1.71341E+04  1.52023E+04 -1.06697E+04  1.49280E+04  3.47970E+03
  5.97629E+03  1.02754E+04 -6.23072E+03  9.46301E+03 -1.25081E+04  2.79187E+03 -1.00285E+04 -7.82435E+03
 -2.40068E+02 -1.13303E+04  5.40023E+03 -8.92997E+03  7.95373E+03 -1.62870E+03  9.73780E+02  4.29593E+03
 -5.03099E+03  7.32131E+02 -3.18778E+03 -4.50909E+03  1.27324E+03 -9.13334E+03  7.19296E+03 -8.73025E+03
  1.07310E+04 -3.76836E+03  1.03944E+04  2.28138E+03  9.11994E+03  8.47361E+03  4.33088E+03  1.24983E+04
 -3.58347E+02  1.43808E+04 -8.24910E+03  9.04435E+03 -1.01303E+04  3.53228E+03 -7.27369E+03 -1.58312E+03
 -4.01663E+03 -2.37998E+03 -1.16860E+03  1.44176E+03 -1.67679E+03  1.58141E+03 -3.21846E+03  2.98212E+03
 -7.45034E+03 -2.45679E+02 -7.95000E+03 -6.42143E+03 -3.25543E+03 -1.04538E+04  3.00477E+03 -7.69430E+03
  6.24214E+03 -3.66563E+03  5.01576E+03  1.88192E+03  8.58711E+02  2.40631E+03 -3.02738E+03  5.02134E+02
 -2.93765E+03 -4.42810E+03 -9.03417E+02 -6.17745E+03  3.52593E+03 -7.17232E+03  8.96010E+03 -2.91801E+03
  1.02012E+04  8.21312E+02  8.18772E+03  5.47107E+03  1.38632E+03  7.55716E+03 -4.74233E+03  7.52483E+03
 -6.38833E+03  2.19176E+03 -3.36403E+03 -9.16160E+02  6.61156E+02 -1.35459E+03  4.42240E+03 -9.95767E+02
  4.17885E+03  3.07054E+03  1.06212E+03  5.45058E+03 -3.81554E+03  5.47160E+03 -6.53553E+03  1.84948E+03
 -3.87012E+03 -3.10394E+03  7.26071E+02 -5.97914E+03  2.33668E+03 -3.65704E+03  3.03882E+03  7.69241E+02
  5.20051E+02  2.21442E+03 -4.12500E+03  4.38427E+03 -3.79859E+03  1.57400E+03 -3.49766E+03 -4.69340E+02
 -2.43403E+03 -4.16135E+03  8.42633E+02 -5.15832E+03  5.18867E+03 -4.21639E+03  5.69181E+03  7.02817E+02
  4.27315E+03  4.37896E+03  6.19427E+02  6.39720E+03 -4.34564E+03  4.44023E+03 -4.43324E+03  3.45715E+02
 -4.92897E+03 -4.43312E+03 -1.55392E+03 -4.08960E+03  1.72483E+03 -4.30252E+03  2.57905E+03 -2.13488E+03
  2.72455E+03  1.67887E+02  3.37473E+02  9.38405E+02  3.34134E+02  7.65695E+02 -4.18966E+02 -9.19252E+02
  2.96856E+03 -3.47058E+02  4.11863E+03  8.61495E+02  4.39022E+03  2.26705E+03  4.94890E+03  5.91009E+03
 -6.88456E+02  7.27256E+03 -6.70181E+03  5.46284E+03 -8.27956E+03  8.82250E+02 -6.59055E+03 -1.80299E+03
 -3.47596E+03 -5.29520E+03 -1.77540E+02 -4.02256E+03  1.22380E+03 -1.23000E+03  8.37340E+02 -1.86849E+03
  7.46516E+02 -1.15997E+03  2.24074E+03 -1.85153E+03  3.12360E+03 -1.49863E+03  2.97110E+03  5.63944E+02
  3.69204E+03  1.22345E+03  6.75972E+02  2.54887E+03 -1.27405E+03  2.05399E+03 -3.72775E+03  2.23713E+03
 -4.12008E+03 -1.13496E+03 -1.23782E+03 -2.30521E+03  3.57481E+02 -4.14185E+03  3.08501E+03 -5.23992E+03
  4.21868E+03 -2.57468E+03  5.17426E+03  2.06874E+02  3.81377E+03  3.02219E+03  7.83377E+02  4.84047E+03
 -2.14995E+03  5.02021E+03 -2.81745E+03  1.72273E+03 -1.58971E+03 -5.28705E+02 -5.50638E+02 -4.79758E+02
 -3.28582E+02  1.15477E+02 -6.41844E+02  2.34050E+03 -2.36231E+03  1.14530E+03 -3.87532E+03  2.29475E+01
 -1.16737E+03 -2.92398E+03  8.99849E+02 -3.65785E+03  2.21026E+03 -3.71004E+03  2.23038E+03 -1.18288E+03
  3.76049E+03  1.75974E+03  1.32716E+03  3.23974E+03 -1.49426E+02  3.78926E+03 -2.21614E+03  2.02219E+03
 -2.88659E+03  4.34100E+02 -2.47491E+03 -1.76256E+03 -4.83352E+02 -2.53229E+03  1.45220E+03 -1.82261E+03
  2.11476E+03 -1.21772E+03  1.56241E+03  3.07983E+02  6.53314E+02  1.23079E+03  4.83015E+02  7.33437E+02
  1.19030E+03  1.73277E+02  1.55710E+03  6.50528E+02  1.28885E+03  2.10493E+03  1.27032E+03  1.14279E+03
 -1.67794E+03  2.96720E+03 -2.04004E+03  3.58016E+03 -2.40861E+03  6.16872E+02 -3.09436E+03 -4.01691E+01
 -1.09491E+03 -2.59111E+03  2.66836E+02 -3.06094E+03  9.74112E+02 -1.99170E+03  2.16990E+03 -8.04958E+02
  1.39858E+03  1.43635E+03 -5.28643E+01  1.57195E+03 -3.55504E+02  7.11500E+02 -3.44920E+02 -6.71585E+01
 -3.16628E+02 -1.47920E+03  7.85901E+02 -1.46528E+03  6.71968E+02 -4.89036E+02  8.57130E+02 -3.24913E+02
  3.92830E+02 -2.01686E+02  5.56530E+02 -4.30524E+02 -2.87350E+02  9.98191E+02  1.81901E+03 -2.37447E+02
 -4.64964E+01  2.85748E+02  1.68241E+03  3.62706E+02  3.78326E+02  2.41483E+03 -3.89897E+02  2.61727E+03
 -1.40490E+03  6.27790E+02 -1.71464E+03  2.12913E+02 -1.80992E+03 -4.78863E+02  9.69942E+01 -7.48606E+02
  5.76990E+02 -1.03321E+03  4.32216E+02 -2.48207E+02 -6.10494E+01  8.59260E+02 -6.49110E+02  9.47684E+02
 -1.04902E+03  3.77995E+02 -3.37113E+02 -1.37292E+03 -4.87111E+02 -1.81978E+03  2.26661E+02 -1.34986E+03
  1.32441E+02  1.17102E+01  6.06825E+02  1.04146E+02  1.00765E+03 -7.67676E+02  1.17021E+02  1.44556E+03
  2.00375E+02  3.41984E+02 -6.73004E+02  4.33519E+02  9.63884E+02 -7.40994E+02  1.26706E+03 -8.07302E+02
  3.75700E+02  5.13251E+02  2.65602E+03  7.17304E+01  1.06923E+03  6.50808E+02 -3.25018E+02  1.77698E+03
 -1.35411E+03  1.80413E+02 -1.16795E+03  1.20960E+02 -1.20600E+03 -1.69545E+03  5.92039E+02 -4.39057E+02
  1.18390E+03 -1.17891E+03  1.76933E+02  7.08546E+02 -4.89695E+02  1.03558E+03  2.73934E+02  1.21843E+03
 -5.14643E+02  1.17756E+03  2.19136E+01  2.56851E+02  3.02399E+02  1.59869E+02 -3.23518E+02  8.99556E+02
 -9.38502E+02  8.92260E+02 -1.27985E+03  1.37412E+02 -1.11733E+03  6.88728E+02 -1.88027E+03 -2.28533E+02
 -4.67048E+02 -1.43707E+03 -2.62702E+01 -1.87500E+03  6.75124E+02 -1.80287E+03  2.19780E+03 -8.77982E+02
  2.13901E+03 -4.89762E+02  8.02049E+02  6.76248E+02 -7.04138E+02  1.11853E+03 -1.81170E+02  8.56501E+02
 -5.17646E+02  6.08574E+02 -8.53452E+02 -1.17631E+02 -4.22213E+02  6.45240E+02 -3.28430E+02 -3.37236E+02
 -1.01770E+03  2.17310E+02 -5.24192E+02 -2.13535E+02  1.70036E+02 -3.81006E+02  2.62546E+02 -5.76120E+02
  1.65450E+03 -5.21743E+02  2.00983E+02 -2.16642E+02  6.24870E+02  7.22840E+02 -8.98311E+02  1.73799E+03
 -4.31204E+02  1.60121E+03 -1.26743E+03  5.90458E+02 -1.47416E+03 -1.26210E+01 -7.93814E+02 -1.06392E+03
 -5.02253E+02 -1.18605E+03  3.49067E+01 -1.09708E+03  2.28984E+02  1.17633E+02  2.81818E+02 -1.64230E+01
  1.05497E+03  1.59544E+02 -4.85479E+02  2.69319E+02 -3.38046E+02  6.85639E+02 -2.10167E+02 -3.84118E+02
  6.24948E+02 -1.79209E+01 -1.16154E+02  6.59270E+01 -2.12562E+02  5.09758E+01  7.78818E+02  5.04966E+02
 -6.98032E+02  8.51684E+02  1.66771E+02  2.38284E+02 -3.94562E+02 -7.03898E+02  4.92885E+02 -6.40925E+02
  5.01399E+02 -5.29931E+02  3.91684E+02  4.53119E+02  8.35466E+02 -6.50921E+02  4.07149E+02  2.12503E+02
 -6.96975E+01  2.13430E+02 -1.33803E+02  6.21643E+02 -2.50556E+02  6.86732E+02 -4.07703E+02  4.07111E+02
 -2.67861E+02  2.63257E+02 -2.71993E+02  1.23691E+02 -1.20835E+03 -1.99185E+02 -1.05446E+03 -3.32840E+02
 -7.40546E+02 -1.87632E+01 -4.98054E+02 -1.88482E+02  1.03847E+03 -1.63857E+03  4.38067E+02  1.41622E+02
  4.87583E+02 -2.62441E+02 -1.12901E+02  3.39173E+01 -1.87930E+02  8.75541E+02 -6.64325E+02  8.23709E+02
