 $NMID ID='MM_0lb_SNR400_20hz_g45_89.RAW', FMTDAT='(8E13.5)'
 TRAMP=1., VOLUME=1. $END
  3.09658E+05  6.87181E+02  3.37329E+05  2.50180E+05  8.39022E+04  3.37393E+05 -1.33010E+05  2.49819E+05
 -1.89221E+05  8.20191E+04 -1.10637E+05 -3.29918E+04  1.74220E+03 -5.00892E+04  5.38674E+04  5.19767E+02
  3.48483E+04  5.26977E+04 -1.72615E+04  7.42668E+04 -6.02427E+04  6.23536E+04 -8.20968E+04  3.14068E+04
 -7.94127E+04 -1.03744E+04 -5.61886E+04 -4.98713E+04 -1.49891E+04 -6.82938E+04  2.65295E+04 -4.48687E+04
  3.83306E+04  3.58496E+03  1.51334E+04  4.70505E+04 -3.35417E+04  4.56099E+04 -6.47192E+04 -2.81006E+02
 -5.18240E+04 -5.51328E+04 -6.05266E+03 -7.42569E+04  3.29029E+04 -5.27755E+04  4.55707E+04 -1.61008E+04
  4.14847E+04  1.08424E+04  3.06467E+04  2.42678E+04  1.60676E+04  2.76944E+04 -4.91820E+03  2.66777E+04
 -2.17416E+04  1.29460E+04 -1.94029E+04 -3.93033E+03  3.69400E+03 -7.21529E+03  2.06263E+04  1.04652E+04
  7.49947E+03  3.22920E+04 -3.00634E+04  3.38535E+04 -6.01582E+04  1.79301E+03 -5.45388E+04 -4.07604E+04
 -1.24591E+04 -6.01142E+04  3.75728E+04 -4.21146E+04  5.44854E+04 -1.73107E+03  3.08386E+04  2.99262E+04
 -6.49654E+03  3.17473E+04 -2.76816E+04  1.24379E+04 -2.67153E+04 -5.78570E+03 -1.31565E+04 -9.61157E+03
 -6.86024E+03 -1.10619E+04 -1.36842E+03 -1.61628E+04  6.63843E+03 -2.22611E+04  1.50691E+04 -1.40554E+04
  1.26501E+04  4.27982E+03 -5.58820E+03  1.31697E+04 -1.86503E+04 -1.75137E+03 -8.34746E+03 -2.92237E+04
  1.99968E+04 -3.92124E+04  4.38666E+04 -1.84742E+04  4.08738E+04  1.78449E+04  1.39341E+04  4.07551E+04
 -1.52940E+04  3.01831E+04 -2.19658E+04  6.61310E+02 -7.81120E+03 -2.58461E+04  2.04292E+04 -3.00915E+04
  3.71705E+04 -6.45200E+03  3.01783E+04  2.20582E+04  1.46057E+04  4.08381E+04 -7.70207E+03  4.35332E+04
 -2.75403E+04  2.85942E+04 -3.58111E+04  7.98368E+03 -3.69870E+04 -1.40596E+04 -2.04254E+04 -3.34171E+04
  6.51323E+03 -3.29858E+04  2.81667E+04 -1.19472E+04  2.62269E+04  1.04499E+04  3.08191E+03  1.68426E+04
 -1.26406E+04  7.12224E+03 -9.58423E+03 -7.79668E+03  6.09122E+03 -9.96842E+03  1.67622E+04  6.60622E+03
  1.21208E+04  2.16609E+04 -6.56228E+03  2.28991E+04 -2.11164E+04  8.01251E+03 -2.39822E+04 -6.60791E+03
 -1.50744E+04 -1.57241E+04 -4.10446E+03 -1.62278E+04  3.97186E+03 -1.30514E+04  1.12650E+04 -1.26661E+04
  1.94289E+04 -1.13745E+04  2.69862E+04  5.17814E+02  2.01453E+04  1.48080E+04  4.12977E+03  3.13096E+04
 -1.61244E+04  2.68287E+04 -2.55194E+04  8.91394E+03 -1.93648E+04 -1.05331E+04 -3.72685E+03 -1.46532E+04
  2.65402E+03 -4.35944E+03 -2.20732E+03  5.47344E+03 -1.16659E+04  5.13468E+03 -1.26878E+04 -4.97197E+03
 -8.29709E+03 -1.45057E+04  4.30731E+03 -1.76340E+04  1.21672E+04 -1.30706E+04  1.32845E+04 -1.72909E+03
  8.56131E+03  9.79170E+03 -8.04345E+02  1.43152E+04 -9.52225E+03  8.36382E+03 -1.42777E+04 -3.35224E+03
 -1.09663E+04 -1.29109E+04 -1.34339E+03 -1.80466E+04  8.11531E+03 -1.43048E+04  1.56741E+04 -5.94845E+03
  1.35380E+04  1.13475E+03  9.84839E+03  3.57766E+03  4.52798E+03  2.67715E+02  6.67023E+03 -1.35677E+03
  1.31408E+04  2.92712E+03  1.28547E+04  1.18999E+04  7.98915E+03  2.27517E+04 -3.21421E+03  2.37788E+04
 -1.40133E+04  1.78164E+04 -2.24394E+04  8.26079E+03 -2.25013E+04 -1.51900E+03 -1.93711E+04 -1.25776E+04
 -9.43913E+03 -1.79239E+04  5.93820E+03 -1.69065E+04  1.52907E+04 -1.03170E+04  1.48161E+04  3.10874E+03
  6.29520E+03  1.04539E+04 -7.18854E+03  1.02312E+04 -1.21159E+04  2.63404E+03 -9.94587E+03 -7.10549E+03
  4.02945E+02 -1.14693E+04  6.00229E+03 -8.46223E+03  7.30731E+03 -1.83048E+03  1.52416E+03  4.26329E+03
 -4.89793E+03  1.18764E+03 -3.33657E+03 -4.69745E+03  7.48207E+02 -8.95208E+03  7.58485E+03 -9.05936E+03
  1.01044E+04 -3.66862E+03  1.03375E+04  2.77538E+03  8.89928E+03  8.23952E+03  4.04281E+03  1.21208E+04
 -1.17615E+03  1.40760E+04 -8.38292E+03  8.76159E+03 -9.17606E+03  3.01408E+03 -7.41209E+03 -4.54862E+02
 -4.33489E+03 -2.56653E+03 -5.19333E+02  1.87148E+03 -1.67731E+03  2.07068E+03 -3.35312E+03  3.20024E+03
 -7.44709E+03 -1.90326E+02 -8.05026E+03 -6.46270E+03 -3.43755E+03 -1.01891E+04  3.13235E+03 -7.54457E+03
  6.22678E+03 -2.97585E+03  4.87709E+03  1.83821E+03  3.21262E+02  2.66071E+03 -2.97557E+03  4.85155E+02
 -2.74739E+03 -5.01716E+03 -2.51894E+02 -6.06404E+03  3.00214E+03 -6.68977E+03  9.19216E+03 -3.74901E+03
  1.05523E+04  2.70388E+02  7.55235E+03  5.01540E+03  1.26779E+03  7.43538E+03 -4.98737E+03  7.32906E+03
 -6.19738E+03  2.36192E+03 -2.94404E+03 -7.67006E+02  7.82633E+02 -2.25837E+03  4.55851E+03 -1.14126E+03
  3.80907E+03  3.14767E+03  1.00935E+03  5.86276E+03 -4.00724E+03  5.42942E+03 -6.96769E+03  1.91904E+03
 -4.59038E+03 -3.67435E+03 -1.88796E+02 -6.18534E+03  3.26805E+03 -3.34617E+03  2.87555E+03  8.76062E+02
  4.06411E+02  2.36917E+03 -3.98529E+03  4.20329E+03 -4.38426E+03  2.14996E+03 -3.91507E+03 -1.64132E+02
 -2.10863E+03 -5.22652E+03  3.99978E+02 -6.05483E+03  5.06522E+03 -4.37728E+03  5.75022E+03  5.50269E+02
  4.50959E+03  4.89965E+03 -2.65299E+02  6.23922E+03 -4.50715E+03  3.82936E+03 -5.04581E+03 -8.60171E+02
 -5.50335E+03 -4.18268E+03 -1.16807E+03 -4.52865E+03  2.28260E+03 -4.31212E+03  1.86791E+03 -2.57929E+03
  2.74177E+03 -8.81703E+01  2.47046E+02  1.31305E+03  7.04068E+02 -6.19669E+02 -5.78170E+01 -1.32628E+03
  2.80584E+03 -8.12623E+02  4.17117E+03  5.40669E+02  4.74408E+03  2.13026E+03  4.97822E+03  5.64326E+03
 -1.02773E+03  6.80535E+03 -6.53724E+03  5.13965E+03 -7.70669E+03  7.02657E+02 -6.73181E+03 -2.38231E+03
 -3.51438E+03 -4.83929E+03 -3.12051E+02 -4.48081E+03  1.37529E+03 -1.19688E+03  1.68243E+03 -1.45456E+03
  9.71027E+02 -1.19480E+03  2.48597E+03 -2.02679E+03  4.02035E+03 -1.07738E+03  3.23405E+03  3.29570E+02
  3.71746E+03  7.32710E+02  8.76031E+02  2.23672E+03 -1.92969E+03  1.68182E+03 -4.19854E+03  2.04931E+03
 -4.29773E+03 -6.96644E+02 -1.72629E+03 -2.88341E+03  4.71472E+02 -4.13151E+03  3.00798E+03 -4.77641E+03
  4.09383E+03 -2.91777E+03  5.49026E+03 -6.76788E+00  3.60905E+03  3.35092E+03  1.16833E+03  5.07251E+03
 -2.23870E+03  4.35947E+03 -2.99225E+03  1.21352E+03 -1.61525E+03 -6.55806E+02 -2.68906E+02 -7.92745E+02
 -5.25973E+02  5.02958E+02 -7.54632E+02  1.58803E+03 -2.32939E+03  1.25041E+03 -3.40963E+03 -7.91172E+01
 -1.20515E+03 -3.77680E+03  4.82968E+02 -3.87846E+03  2.01714E+03 -3.76424E+03  2.77152E+03 -9.48280E+02
  2.95165E+03  1.91010E+03  1.45827E+03  1.99021E+03 -1.11608E+03  3.13961E+03 -1.93230E+03  1.79883E+03
 -2.48163E+03  1.05328E+03 -2.90397E+03 -1.48885E+03 -2.76718E+02 -2.35386E+03  1.01007E+03 -2.20769E+03
  2.20611E+03 -1.33056E+03  1.67008E+03  7.89339E+00 -3.49704E+02  1.49968E+03  7.50999E+02  5.37120E+02
  1.47168E+03  2.40081E+01  1.04554E+03  9.84189E+02  9.54569E+02  1.27115E+03  1.29203E+03  1.25468E+03
 -8.31774E+02  2.21340E+03 -1.65095E+03  3.18101E+03 -1.88080E+03  1.13299E+03 -3.36294E+03  3.94323E+02
 -1.38441E+03 -2.66523E+03  4.60487E+02 -3.72739E+03  1.44524E+03 -2.34697E+03  2.20432E+03 -8.78153E+02
  1.67505E+03  1.53653E+03  3.98151E+02  1.56628E+03 -4.68531E+02  4.87534E+02 -8.63544E+02 -4.75668E+01
 -6.07171E+02 -1.31647E+03  7.22539E+02 -1.29028E+03  1.18440E+03 -8.32585E+02  7.26955E+02 -1.88861E-01
  1.87669E+02 -1.70862E+02  8.59707E+02 -2.03221E+02 -4.03617E+02  7.52176E+02  1.48190E+03 -3.73428E+02
 -4.77425E+02 -3.28564E+02  1.38526E+03  4.57404E+02 -1.96318E+02  2.17747E+03 -3.03649E+02  2.54180E+03
 -1.20833E+03  9.48376E+02 -1.78741E+03 -1.81328E+01 -2.04539E+03 -6.16235E+02  9.90996E+01 -8.60257E+01
  5.95975E+02 -5.33802E+02  1.03338E+03 -4.88811E+02  4.33154E+02  9.04747E+02 -2.96201E+02  1.14803E+03
 -1.14531E+03  5.43537E+02 -6.50620E+02 -1.09847E+03 -9.65846E+02 -2.12159E+03  8.80952E+01 -1.16769E+03
  7.93177E+02 -1.55724E+02  3.88722E+02 -1.14502E+01  1.60208E+03 -6.64522E+02  1.44352E+02  7.54890E+02
  3.47734E+01 -1.83679E+02 -1.18766E+03  4.85215E+02 -2.10610E+02 -5.88933E+02  1.16534E+03 -6.48696E+02
  7.22352E+02  5.24913E+02  2.43541E+03  4.54885E+02  1.12871E+03  1.15605E+03 -5.17228E+02  1.51350E+03
 -1.17932E+03  2.82578E+02 -8.85791E+02 -5.45163E+01 -2.56783E+02 -1.42727E+03  5.16578E+01 -2.21504E+02
  1.48646E+03 -8.98808E+02 -1.71267E+02  6.13595E+01 -3.80362E+02  6.96452E+02  5.91028E+02  5.95919E+02
  3.12147E+02  1.06441E+03 -1.31790E+02 -1.70804E+02  1.76827E+02  7.64540E+02 -8.30806E+02  6.01230E+02
 -7.52324E+02  9.44664E+02 -2.04626E+03  5.02530E+02 -1.14095E+03  3.97679E+02 -1.79036E+03 -5.94423E+02
 -8.44575E+02 -1.64851E+03  1.20361E+02 -2.20014E+03  4.87975E+02 -1.79982E+03  1.97219E+03 -9.72659E+02
  2.00758E+03 -1.03212E+02  9.50006E+02  1.21570E+03 -5.47602E+02  1.33507E+03 -6.13449E+02  1.11216E+03
 -3.36495E+02  1.26561E+03 -5.99980E+02 -4.69906E+02 -3.37900E+02  3.85672E+02 -7.57159E+02  1.63054E+02
 -1.59174E+03 -1.02720E+02 -9.99563E+02  1.03654E+02  4.55449E+02 -5.09791E+02 -6.58442E+02 -1.54102E+03
  1.01580E+03 -5.81070E+02  1.42095E+02  3.09915E+01  7.16005E+02  8.06820E+02 -1.99861E+02  8.33714E+02
 -6.73041E+02  1.42762E+03 -1.01918E+03  1.25431E+03 -1.07241E+03  9.87324E+01 -8.25287E+02 -1.18508E+03
 -8.72711E+02 -7.21290E+02  2.53763E+02 -8.50286E+02  4.65918E+02 -1.07800E+02  1.65769E+02  2.40325E+02
  5.24076E+02 -3.14355E+02 -2.00165E+02  3.31886E+02 -4.83943E+02 -5.32928E+02 -4.11680E+02  9.30724E+00
  6.10851E+02  6.00133E+02  5.99365E+01  6.08881E+02 -1.09072E+02  1.98502E+02  7.74428E+02  1.45398E+02
  4.46651E+01  7.48759E+02 -8.18691E+02 -4.86879E+01 -5.00339E+02 -5.15386E+02 -1.36789E+02 -6.91052E+02
  1.75540E+02 -1.12937E+03  1.43001E+02  5.04624E+02  9.79211E+02 -5.22708E+02 -1.68350E+02  5.02585E+02
  5.17347E+02  4.11114E+02 -1.83120E+02  4.07699E+02 -2.62492E+02  7.34022E+02 -1.66032E+02  1.51801E+02
  3.89949E+02 -9.59181E+01 -7.28736E+02  1.97438E+02 -2.28852E+02  1.61143E+02 -3.20977E+02 -2.90367E+02
 -5.62515E+02  4.45497E+02 -2.08569E+02 -8.28726E+02  2.92103E+02 -1.26603E+03  4.39306E+02 -4.29827E+02
  3.65916E+02  5.07734E+02 -3.02319E+01  1.99311E+02 -8.05548E+01  1.07183E+02  3.53786E+00  6.73948E+02
