 $NMID ID='MM_0lb_SNR400_19hz_g55_90.RAW', FMTDAT='(8E13.5)'
 TRAMP=1., VOLUME=1. $END
  3.09484E+05  3.64682E+02  3.37545E+05  2.50932E+05  8.46760E+04  3.37567E+05 -1.32442E+05  2.50446E+05
 -1.89795E+05  8.27078E+04 -1.11223E+05 -3.30241E+04  7.91648E+02 -5.05200E+04  5.33533E+04 -3.89856E+02
  3.54721E+04  5.34932E+04 -1.70939E+04  7.46755E+04 -6.08134E+04  6.26971E+04 -8.33537E+04  3.22312E+04
 -8.04784E+04 -1.08405E+04 -5.64506E+04 -5.02481E+04 -1.45392E+04 -6.86501E+04  2.68362E+04 -4.57803E+04
  3.90492E+04  3.86631E+03  1.55688E+04  4.71007E+04 -3.37037E+04  4.64247E+04 -6.58653E+04 -2.50772E+02
 -5.21165E+04 -5.63331E+04 -6.09138E+03 -7.57251E+04  3.32246E+04 -5.39179E+04  4.70263E+04 -1.65702E+04
  4.23219E+04  1.12934E+04  3.10452E+04  2.47371E+04  1.64648E+04  2.82618E+04 -4.35014E+03  2.68958E+04
 -2.16300E+04  1.26760E+04 -1.87632E+04 -4.46317E+03  4.73543E+03 -7.21648E+03  2.15417E+04  1.14324E+04
  7.83527E+03  3.33987E+04 -3.08528E+04  3.44832E+04 -6.19228E+04  2.01809E+03 -5.55097E+04 -4.16302E+04
 -1.27104E+04 -6.12163E+04  3.80678E+04 -4.41057E+04  5.56988E+04 -1.73828E+03  3.27842E+04  3.07156E+04
 -6.79384E+03  3.34123E+04 -2.85573E+04  1.39811E+04 -2.88102E+04 -5.40219E+03 -1.49833E+04 -1.10122E+04
 -7.88742E+03 -1.16919E+04 -1.31674E+03 -1.71253E+04  6.69512E+03 -2.29325E+04  1.56433E+04 -1.31481E+04
  1.15455E+04  4.57980E+03 -6.42759E+03  1.29024E+04 -1.98881E+04 -3.23725E+03 -8.07129E+03 -3.05750E+04
  2.06279E+04 -4.12588E+04  4.49789E+04 -1.89787E+04  4.23590E+04  1.83381E+04  1.45149E+04  4.22525E+04
 -1.53205E+04  3.20809E+04 -2.42599E+04  1.28303E+03 -8.03965E+03 -2.63776E+04  2.05917E+04 -3.20890E+04
  3.89983E+04 -7.29151E+03  3.21767E+04  2.25064E+04  1.59173E+04  4.29302E+04 -8.23041E+03  4.65243E+04
 -2.90972E+04  3.06233E+04 -3.83947E+04  8.62825E+03 -3.92168E+04 -1.52133E+04 -2.17240E+04 -3.49525E+04
  6.86343E+03 -3.49793E+04  3.02492E+04 -1.29510E+04  2.67628E+04  1.10607E+04  2.94296E+03  1.84351E+04
 -1.32599E+04  7.31194E+03 -9.48284E+03 -7.75320E+03  5.70260E+03 -1.00861E+04  1.77054E+04  6.60764E+03
  1.24524E+04  2.15769E+04 -6.53552E+03  2.33975E+04 -2.18149E+04  9.24446E+03 -2.56567E+04 -5.44943E+03
 -1.78264E+04 -1.72608E+04 -6.29274E+03 -1.72725E+04  3.47656E+03 -1.52677E+04  1.31402E+04 -1.56683E+04
  2.19035E+04 -1.18978E+04  2.85720E+04  1.08804E+03  2.19222E+04  1.77824E+04  3.55075E+03  3.29200E+04
 -1.58157E+04  2.79829E+04 -2.61412E+04  9.86997E+03 -1.99478E+04 -1.06433E+04 -4.16432E+03 -1.37740E+04
  2.58592E+03 -4.01265E+03 -3.08187E+03  5.55420E+03 -1.32762E+04  5.46426E+03 -1.32314E+04 -5.98808E+03
 -8.74264E+03 -1.54946E+04  4.42370E+03 -2.02117E+04  1.29115E+04 -1.42791E+04  1.51415E+04 -1.11390E+03
  9.01194E+03  1.08006E+04 -7.81935E+02  1.56054E+04 -1.09626E+04  9.06972E+03 -1.58845E+04 -3.80474E+03
 -1.26905E+04 -1.45832E+04 -1.18313E+03 -1.94068E+04  9.10794E+03 -1.58561E+04  1.68930E+04 -8.08169E+03
  1.49563E+04  3.77211E+02  1.06550E+04  3.76345E+03  5.04377E+03  1.75949E+02  7.84966E+03 -1.27831E+03
  1.43078E+04  2.26537E+03  1.52859E+04  1.30459E+04  9.34166E+03  2.53383E+04 -3.17354E+03  2.70535E+04
 -1.60928E+04  2.06477E+04 -2.53653E+04  1.00506E+04 -2.66210E+04 -1.22032E+03 -2.21175E+04 -1.49084E+04
 -1.02771E+04 -2.07896E+04  7.10071E+03 -1.94972E+04  1.68315E+04 -1.08023E+04  1.53088E+04  3.79704E+03
  6.40180E+03  1.12003E+04 -7.59625E+03  1.08492E+04 -1.32635E+04  2.84155E+03 -1.06682E+04 -8.43306E+03
  2.64493E+02 -1.30519E+04  5.83452E+03 -9.75437E+03  8.68943E+03 -1.01108E+03  1.31114E+03  5.13955E+03
 -5.43686E+03  1.14406E+03 -4.32784E+03 -5.03916E+03  6.26622E+02 -1.02703E+04  8.41273E+03 -1.04116E+04
  1.26445E+04 -4.74101E+03  1.19896E+04  2.59278E+03  1.02628E+04  1.00222E+04  5.20667E+03  1.46803E+04
 -1.78765E+03  1.63856E+04 -9.96537E+03  1.03595E+04 -1.17547E+04  2.89738E+03 -8.78070E+03 -1.87178E+03
 -5.29888E+03 -3.33245E+03 -8.54881E+02  1.26301E+03 -2.03028E+03  2.33936E+03 -3.52333E+03  3.62662E+03
 -8.17590E+03 -3.20939E+02 -9.45598E+03 -7.48368E+03 -3.56576E+03 -1.15707E+04  3.31917E+03 -8.94262E+03
  7.33196E+03 -4.53059E+03  4.97245E+03  2.39543E+03  8.94415E+02  2.30082E+03 -3.71229E+03 -5.33873E+02
 -3.01982E+03 -5.26922E+03 -4.85716E+02 -6.91608E+03  4.46096E+03 -8.01711E+03  9.63374E+03 -3.81555E+03
  1.16494E+04  9.07273E+02  8.78329E+03  6.25998E+03  2.00539E+03  8.70839E+03 -5.31475E+03  8.47162E+03
 -7.09984E+03  2.66339E+03 -2.96926E+03 -8.86860E+02  1.75942E+03 -2.60100E+03  4.61983E+03 -7.48503E+02
  3.89936E+03  3.58064E+03  1.12136E+03  6.77538E+03 -4.44024E+03  6.35841E+03 -7.03141E+03  1.80973E+03
 -4.71180E+03 -3.56129E+03  5.43504E+02 -6.39930E+03  3.07781E+03 -3.49259E+03  3.95188E+03  8.63399E+02
  4.37456E+02  3.31126E+03 -4.42514E+03  4.71187E+03 -4.07945E+03  2.38683E+03 -4.30734E+03 -6.28974E+02
 -3.15937E+03 -6.06387E+03  9.75869E+02 -6.69721E+03  5.72296E+03 -4.17350E+03  6.37918E+03  5.90432E+02
  4.52131E+03  5.43198E+03 -1.77504E+02  7.07587E+03 -5.57117E+03  4.29388E+03 -5.31779E+03 -7.65172E+02
 -5.80741E+03 -5.16440E+03 -8.82728E+02 -5.49043E+03  2.56100E+03 -4.61355E+03  2.25451E+03 -2.99058E+03
  2.63447E+03  1.19836E+02 -6.57680E+01  8.70879E+02  5.31870E+02 -6.84493E+02  4.01007E+02 -2.01748E+03
  3.80279E+03 -1.71857E+02  5.11216E+03  5.92600E+02  5.64067E+03  3.06679E+03  5.61101E+03  7.21981E+03
 -1.30632E+03  8.82404E+03 -7.59022E+03  6.13885E+03 -9.84988E+03  1.20521E+03 -7.14812E+03 -2.51983E+03
 -4.29473E+03 -6.32309E+03 -1.49011E+02 -4.89646E+03  1.68784E+03 -2.38368E+03  1.69446E+03 -1.96347E+03
  1.59611E+03 -1.37994E+03  2.09526E+03 -2.17602E+03  3.57881E+03 -1.22801E+03  3.66090E+03  9.12401E+02
  4.19354E+03  1.74456E+03  8.33747E+02  2.71621E+03 -1.29514E+03  2.65455E+03 -4.43030E+03  2.99372E+03
 -4.72685E+03 -1.32250E+03 -1.46722E+03 -3.00284E+03  2.93874E+02 -4.36958E+03  3.21595E+03 -5.32509E+03
  4.66537E+03 -3.03504E+03  6.73061E+03  4.70340E+02  4.43389E+03  4.13607E+03  1.43891E+03  5.61778E+03
 -1.82249E+03  5.70984E+03 -3.65004E+03  1.46983E+03 -1.89052E+03 -1.29966E+03 -1.45381E+02 -5.89496E+02
 -1.03163E+02  7.60814E+01 -8.16997E+02  2.00312E+03 -1.85619E+03  1.51721E+03 -3.81106E+03 -4.95288E+01
 -1.22480E+03 -4.01740E+03  4.92981E+02 -4.32295E+03  2.35272E+03 -4.63509E+03  3.47625E+03 -5.97043E+02
  4.00123E+03  1.90473E+03  1.89018E+03  3.03458E+03 -7.96453E+02  4.20903E+03 -2.36080E+03  2.72161E+03
 -3.40686E+03  1.00619E+03 -3.35031E+03 -2.58604E+03 -2.65405E+02 -2.39408E+03  1.73104E+03 -2.29594E+03
  2.36302E+03 -8.75613E+02  1.88936E+03  1.00258E+02  4.74330E+02  1.14689E+03  5.43509E+02  3.08310E+02
  1.58135E+03  3.24586E+02  1.26069E+03  1.25742E+03  4.81056E+02  1.95506E+03  1.70197E+03  1.45642E+03
 -7.77516E+02  2.88526E+03 -2.73910E+03  3.22016E+03 -2.34084E+03  1.50781E+03 -3.64328E+03  5.94040E+02
 -1.71447E+03 -3.97245E+03  5.87538E+02 -4.49041E+03  2.10443E+03 -2.30965E+03  2.73721E+03 -4.61910E+02
  2.24839E+03  1.76876E+03  3.02312E+02  2.16730E+03 -5.59955E+02  1.43753E+03 -1.19056E+03  1.65215E+02
 -9.49668E+02 -1.28162E+03  9.87072E+02 -1.19574E+03  1.14740E+03 -9.28907E+02  8.74286E+02  4.97905E+02
  6.90648E+02  1.43515E+02  7.43067E+02 -1.83461E+02 -1.30709E+02  1.63112E+02  2.20688E+03  5.39616E+00
 -3.07959E+02  9.84065E+01  1.31516E+03  3.76781E+02 -9.19553E+01  2.67252E+03 -9.37270E+01  2.66221E+03
 -1.88889E+03  9.43044E+02 -1.74099E+03 -2.60679E-01 -1.82744E+03 -5.28866E+02  5.16474E+02 -5.62470E+02
  7.10561E+02 -1.99407E+03  6.28827E+02 -5.32879E+02  8.67335E+02  1.50266E+03 -4.68257E+02  5.11511E+02
 -1.38926E+03  1.17811E+03 -7.18011E+02 -1.80561E+03 -1.03133E+03 -1.57512E+03  9.04491E+02 -1.74220E+03
  2.97440E+02 -6.31056E+02  3.40858E+02  1.72936E+02  1.67706E+03  1.64179E+02  6.10004E+02  9.93039E+02
 -3.94121E+02  1.27213E+02 -6.77453E+02 -3.51192E+02  6.94337E+02 -7.08266E+02  1.59724E+03 -9.58581E+02
  5.97745E+02 -2.24221E+02  2.07307E+03  5.73668E+02  7.79537E+02  1.08690E+03  1.31145E+02  1.36811E+03
 -9.56062E+02  3.76980E+02 -1.12291E+03 -3.28050E+02 -7.87818E+02 -1.15490E+03  2.39849E+02 -4.27557E+02
  1.06646E+03 -5.12094E+02  7.47332E+02  6.64123E+02  2.90124E+02  1.24206E+03  5.28641E+02  1.07458E+03
  1.88986E+02  1.01451E+03 -4.19281E+02 -5.94663E+01 -3.04705E+02 -3.61839E+02 -1.03632E+03  4.53124E+02
 -5.68653E+02  1.22448E+03 -1.40479E+03  3.64652E+02 -1.44211E+03  1.46276E+02 -2.02126E+03 -6.36387E+02
 -6.43663E+02 -2.11871E+03  6.65975E+02 -2.42969E+03  6.82290E+02 -1.61456E+03  2.55573E+03 -7.69962E+02
  2.70676E+03  7.51144E+00  8.49789E+02  1.38493E+03 -9.00062E+02  1.08188E+03 -8.38803E+02  8.32065E+02
 -4.73659E+02  8.01363E+02 -9.13428E+01  1.98661E+02 -5.78805E+02  4.06281E+02 -8.75264E+02 -1.68294E+02
 -1.66816E+03 -2.74620E+02 -1.09579E+03  6.23835E+01 -5.17970E+01 -6.14836E+02 -5.00571E+02 -8.54521E+02
  1.04203E+03 -2.15799E+02  2.87042E+02  1.70649E+02  9.96074E+02  8.68295E+02 -6.79155E+02  1.00438E+03
 -5.40348E+02  1.50294E+03 -1.08504E+03  1.12820E+03 -1.92325E+03 -4.19403E+02 -8.63862E+02 -9.75936E+02
 -7.04245E+02 -1.30210E+03 -3.48616E+02 -1.35685E+03  3.64808E+02 -7.18950E+02  1.84345E+02  3.10829E+02
  3.13132E+02  1.86599E+02  7.19412E+02  4.83521E+02 -4.21408E+02  1.69245E+01 -2.32280E+02 -2.95474E+02
  7.18644E+02  3.46979E+02  6.20978E+02  2.51863E+01 -4.64765E+02  1.23147E+03  7.56575E+02  1.34225E+02
 -1.12528E+03  9.69780E+02 -3.84043E+02  7.97639E+02 -1.22826E+03 -1.28144E+02  8.80231E+01 -1.01259E+03
  9.62344E+01 -4.61386E+02  1.17878E+02  3.50169E+02  6.11497E+02 -7.05391E+02  1.84832E+02  4.78139E+02
  8.34974E+02  2.74923E+02 -1.60461E+02  3.90965E+02  2.52023E+01  5.74812E+02 -9.67875E+01  2.35446E+02
 -1.98458E+02 -9.39403E+01 -6.80915E+02 -2.25097E+00 -9.90128E+02 -7.46479E+01 -8.96978E+02 -4.58510E+02
 -8.46801E+02  4.74955E+02 -1.92087E+02 -3.58268E+02 -7.66118E+01 -1.16215E+03  2.91043E+02 -4.94797E+02
  3.37956E+02 -1.35985E+02 -8.01559E+02  9.49518E+01 -1.61582E+02  5.77499E+02  2.29723E+02  1.62143E+02
