 $NMID ID='MM_0lb_SNR400_13hz_g60_80.RAW', FMTDAT='(8E13.5)'
 TRAMP=1., VOLUME=1. $END
  3.09807E+05  2.84461E+02  3.37543E+05  2.50473E+05  8.48919E+04  3.39308E+05 -1.32718E+05  2.51257E+05
 -1.90838E+05  8.40702E+04 -1.12243E+05 -3.19835E+04  8.31623E+02 -5.06392E+04  5.35827E+04 -8.46706E+01
  3.55653E+04  5.27673E+04 -1.68799E+04  7.54690E+04 -6.06754E+04  6.38807E+04 -8.49390E+04  3.23496E+04
 -8.16188E+04 -1.16812E+04 -5.76707E+04 -5.19795E+04 -1.58343E+04 -7.06526E+04  2.84515E+04 -4.65137E+04
  4.02798E+04  4.00406E+03  1.62788E+04  4.87247E+04 -3.50898E+04  4.78622E+04 -6.73245E+04 -2.77808E+02
 -5.46405E+04 -5.70843E+04 -6.83951E+03 -7.76269E+04  3.44456E+04 -5.67310E+04  4.86160E+04 -1.74575E+04
  4.52298E+04  1.13450E+04  3.22729E+04  2.60291E+04  1.59205E+04  2.99333E+04 -5.47154E+03  2.78259E+04
 -2.27740E+04  1.21709E+04 -1.71546E+04 -5.99721E+03  6.11008E+03 -7.06645E+03  2.42266E+04  1.36361E+04
  7.41380E+03  3.62422E+04 -3.31223E+04  3.66435E+04 -6.45124E+04  1.64255E+03 -5.83390E+04 -4.29232E+04
 -1.24705E+04 -6.50840E+04  4.05857E+04 -4.56896E+04  5.91104E+04 -2.14641E+03  3.54775E+04  3.38636E+04
 -6.43717E+03  3.89930E+04 -3.08777E+04  1.78065E+04 -3.17543E+04 -4.26483E+03 -1.85812E+04 -1.08617E+04
 -9.27913E+03 -1.45078E+04 -7.02571E+02 -1.90279E+04  8.50301E+03 -2.30882E+04  1.60183E+04 -1.22443E+04
  1.09348E+04  5.88202E+03 -9.08687E+03  1.23283E+04 -2.22979E+04 -4.79876E+03 -8.19576E+03 -3.57877E+04
  2.45165E+04 -4.51615E+04  5.06434E+04 -2.04167E+04  4.64918E+04  2.01928E+04  1.60733E+04  4.57971E+04
 -1.57782E+04  3.43609E+04 -2.55329E+04  1.83725E+03 -1.11340E+04 -2.89504E+04  2.13427E+04 -3.53757E+04
  4.20639E+04 -1.01740E+04  3.81727E+04  2.46763E+04  1.97513E+04  4.88485E+04 -7.98421E+03  5.26515E+04
 -3.33307E+04  3.57631E+04 -4.48037E+04  1.01302E+04 -4.49845E+04 -1.75356E+04 -2.46018E+04 -4.00647E+04
  7.40026E+03 -3.95093E+04  3.32558E+04 -1.53748E+04  3.10521E+04  1.10734E+04  4.07364E+03  2.06672E+04
 -1.38718E+04  9.34138E+03 -1.15018E+04 -7.66189E+03  5.56960E+03 -1.07582E+04  1.81304E+04  5.34914E+03
  1.39862E+04  2.17649E+04 -5.93958E+03  2.57870E+04 -2.30651E+04  1.33555E+04 -3.06589E+04 -3.42219E+03
 -2.31555E+04 -1.85508E+04 -9.81514E+03 -2.36103E+04  3.91583E+03 -2.30242E+04  1.80461E+04 -1.97285E+04
  2.95443E+04 -1.35874E+04  3.48491E+04  3.74940E+03  2.52775E+04  2.23568E+04  4.89397E+03  3.91310E+04
 -1.88365E+04  3.23494E+04 -2.88946E+04  1.11196E+04 -2.15591E+04 -9.88377E+03 -4.25994E+03 -1.33728E+04
  1.44875E+03 -2.05976E+03 -6.33389E+03  7.47273E+03 -1.81584E+04  4.61629E+03 -1.83426E+04 -8.14954E+03
 -1.15814E+04 -2.10782E+04  5.35566E+03 -2.53112E+04  1.67080E+04 -1.73900E+04  2.01534E+04 -1.63199E+03
  1.32613E+04  1.45124E+04 -1.31294E+03  2.10717E+04 -1.40173E+04  1.17772E+04 -2.13081E+04 -4.50975E+03
 -1.53162E+04 -1.94002E+04 -1.81246E+03 -2.52772E+04  1.13505E+04 -2.07158E+04  2.07463E+04 -1.09489E+04
  1.99063E+04 -3.74382E+02  1.37136E+04  4.65561E+03  7.47073E+03  1.55701E+03  1.04460E+04 -1.80549E+03
  1.94920E+04  2.61293E+03  2.26650E+04  1.65634E+04  1.50174E+04  3.35923E+04 -2.15056E+03  3.79464E+04
 -2.22556E+04  3.13860E+04 -3.61587E+04  1.64187E+04 -3.84939E+04 -2.93443E+03 -3.14984E+04 -2.21518E+04
 -1.23691E+04 -3.14950E+04  1.10349E+04 -2.83707E+04  2.47975E+04 -1.33175E+04  2.13968E+04  6.10569E+03
  7.56552E+03  1.65726E+04 -1.04770E+04  1.39659E+04 -1.74919E+04  2.41274E+03 -1.40897E+04 -1.15302E+04
 -7.05675E+02 -1.71541E+04  9.03739E+03 -1.23612E+04  1.16868E+04 -3.38412E+02  2.35689E+03  7.58651E+03
 -7.55108E+03  3.25183E+03 -6.92774E+03 -6.60548E+03 -4.08346E+02 -1.53703E+04  1.07475E+04 -1.64903E+04
  1.79864E+04 -8.43434E+03  2.05134E+04  3.67302E+03  1.85569E+04  1.58254E+04  8.70284E+03  2.37317E+04
 -3.80126E+03  2.56729E+04 -1.70343E+04  1.63836E+04 -1.84981E+04  4.18331E+03 -1.34918E+04 -4.21498E+03
 -5.56438E+03 -6.04707E+03 -3.85405E+02  4.83136E+02 -2.37278E+03  2.95906E+03 -5.39924E+03  4.73039E+03
 -1.17586E+04 -1.10597E+03 -1.25678E+04 -1.02598E+04 -5.45622E+03 -1.56669E+04  5.37061E+03 -1.42302E+04
  1.03293E+04 -5.26399E+03  7.51200E+03  4.07734E+03 -1.51239E+02  5.88387E+03 -6.05926E+03 -3.52891E+02
 -6.19152E+03 -8.46101E+03 -1.13439E+03 -1.25760E+04  7.53741E+03 -1.33702E+04  1.63448E+04 -7.19696E+03
  1.84726E+04  1.66366E+03  1.43997E+04  1.07036E+04  3.31297E+03  1.52363E+04 -8.48425E+03  1.26091E+04
 -1.01686E+04  4.53978E+03 -5.13454E+03 -2.35798E+03  1.40714E+03 -2.98917E+03  6.67978E+03 -2.56126E+02
  5.93826E+03  5.57352E+03  1.53740E+03  1.01530E+04 -6.76073E+03  1.00531E+04 -1.33867E+04  2.71727E+03
 -8.72697E+03 -6.90188E+03  2.15356E+02 -1.08863E+04  6.78447E+03 -5.75119E+03  6.93301E+03  1.73800E+03
  1.32591E+03  7.22121E+03 -6.71212E+03  8.84696E+03 -1.01011E+04  3.79383E+03 -9.89722E+03 -3.79367E+03
 -6.44427E+03 -1.16521E+04  2.90329E+03 -1.35510E+04  1.16176E+04 -8.53831E+03  1.20578E+04  2.57828E+03
  7.25250E+03  9.97921E+03 -1.33259E+03  1.23363E+04 -8.28798E+03  6.94391E+03 -1.04445E+04 -9.03766E+02
 -8.73220E+03 -8.23751E+03 -1.25545E+03 -9.05139E+03  5.42585E+03 -7.52709E+03  5.62799E+03 -3.27378E+03
  3.94471E+03  1.27402E+03 -2.94866E+02  1.62567E+03 -5.72120E+01 -1.74289E+03  2.16589E+03 -5.51631E+03
  8.22695E+03 -3.65828E+03  1.17690E+04  1.20591E+03  1.08506E+04  7.66906E+03  8.23658E+03  1.50726E+04
 -3.61014E+03  1.64637E+04 -1.47492E+04  1.27084E+04 -1.91693E+04  2.88264E+03 -1.44878E+04 -5.73588E+03
 -7.57395E+03 -1.27857E+04  6.97690E+01 -1.01666E+04  4.42449E+03 -5.74115E+03  3.93694E+03 -4.12082E+03
  2.51347E+03 -2.11470E+03  3.35017E+03 -2.81450E+03  4.75957E+03 -1.94774E+03  5.62053E+03  4.27190E+02
  8.22714E+03  1.80888E+03  4.19457E+03  6.71904E+03 -1.87063E+03  7.94475E+03 -8.47788E+03  5.75744E+03
 -1.03877E+04 -1.57250E+03 -5.69923E+03 -7.62065E+03 -4.35861E+02 -1.08926E+04  6.15567E+03 -1.09099E+04
  1.15586E+04 -6.25722E+03  1.40287E+04  1.28986E+03  9.75505E+03  8.88508E+03  1.08794E+03  1.30768E+04
 -5.20482E+03  1.10149E+04 -7.20942E+03  3.89296E+03 -4.57964E+03 -1.34317E+03 -1.50882E+03 -1.34500E+03
 -1.02766E+03 -3.54515E+02 -1.36090E+03  2.70032E+03 -4.95760E+03  1.68447E+03 -7.29180E+03 -1.20881E+03
 -4.94576E+03 -6.30731E+03 -5.45375E+00 -9.94495E+03  5.82954E+03 -9.41579E+03  9.46300E+03 -2.57369E+03
  1.00131E+04  5.44434E+03  4.16870E+03  9.02705E+03 -2.19687E+03  1.05811E+04 -7.04615E+03  6.50408E+03
 -8.74197E+03  6.56839E+02 -7.03919E+03 -6.16409E+03 -2.67474E+02 -7.47081E+03  4.25643E+03 -6.16273E+03
  6.48630E+03 -1.80226E+03  3.68546E+03  9.84905E+02  1.66083E+03  3.36322E+03  9.62205E+02  1.68525E+03
  1.72319E+03  2.42151E+02  1.99086E+03  1.73281E+03  2.61130E+03  3.89972E+03  2.65479E+03  4.74110E+03
 -2.45378E+03  6.90861E+03 -7.03714E+03  7.61298E+03 -9.40526E+03  2.33988E+03 -1.01920E+04 -2.96890E+03
 -4.79772E+03 -8.92173E+03  9.57763E+02 -1.09595E+04  6.11204E+03 -6.69032E+03  7.78274E+03 -1.94053E+03
  6.00452E+03  3.80158E+03  7.46431E+02  4.62056E+03 -2.28321E+03  2.79044E+03 -3.85540E+03  1.14652E+02
 -1.61617E+03 -3.39988E+03  2.31806E+03 -3.58698E+03  3.93292E+03 -2.41021E+03  3.86022E+03  9.62966E+02
  1.97015E+03  1.82691E+03  1.67102E+03  6.60771E+02 -7.74631E+02  6.79943E+02  1.49185E+03 -3.75969E+02
  9.64555E+02 -6.57284E+02  3.77096E+03  8.53897E+02  1.46448E+03  6.04823E+03 -1.30383E+03  6.93545E+03
 -3.89610E+03  4.29512E+03 -5.67029E+03  9.68807E+02 -5.11761E+03 -1.79100E+03 -1.56364E+03 -3.66017E+03
  1.37859E+03 -4.01761E+03  2.28935E+03 -1.69371E+03  1.99468E+03  1.86062E+03 -1.31987E+03  3.19381E+03
 -3.68303E+03  1.30727E+03 -3.78929E+03 -1.69471E+03 -1.99499E+03 -4.40983E+03  1.05606E+03 -4.55385E+03
  2.26459E+03 -2.84537E+03  3.19238E+03 -6.11187E+02  3.53620E+03  1.53117E+03  3.61124E+02  2.59082E+03
 -1.21407E+03  8.72298E+02 -1.58851E+03 -1.06283E+03  7.14314E+02 -3.45818E+03  4.64923E+03 -3.06793E+03
  5.08078E+03  2.09283E+02  6.29224E+03  3.44006E+03  2.00452E+03  5.38747E+03 -9.47942E+02  5.29058E+03
 -4.71073E+03  1.75902E+03 -4.36227E+03 -6.40845E+02 -2.37410E+03 -3.59416E+03  1.07014E+03 -2.54104E+03
  3.51302E+03 -1.36932E+03  2.94468E+03  1.10303E+03  1.15093E+03  3.26550E+03  4.53150E+02  3.33755E+03
 -1.13917E+03  2.00826E+03 -1.45342E+03  2.80267E+02 -1.73563E+02  6.37890E+02 -1.08730E+03  1.49088E+03
 -1.82984E+03  2.01085E+03 -4.12799E+03  1.87779E+03 -5.05820E+03  2.28182E+01 -5.88092E+03 -3.43458E+03
 -2.89894E+03 -6.79002E+03  1.11810E+03 -8.17333E+03  4.62833E+03 -6.09902E+03  7.56913E+03 -2.96898E+03
  7.09088E+03  7.60594E+02  4.21117E+03  4.76939E+03  2.55978E+02  4.89826E+03 -2.25344E+03  4.71762E+03
 -2.73059E+03  1.55345E+03 -1.43900E+03 -3.83434E+02 -9.18858E+02  1.59127E+02 -9.81292E+02 -3.42845E+02
 -1.30101E+03 -4.78929E+01 -7.65939E+02 -3.73534E+02  1.73831E+02 -1.16431E+03 -4.26476E+02 -2.11542E+03
  2.39843E+03 -1.85621E+03  2.95086E+03  5.91807E+02  3.71901E+03  2.71612E+03  8.01171E+02  5.74472E+03
 -1.65121E+03  5.72136E+03 -5.69276E+03  3.77168E+03 -6.12165E+03 -7.58372E+02 -4.15922E+03 -3.76200E+03
 -2.44727E+03 -4.82727E+03  1.30619E+03 -4.62550E+03  2.67121E+03 -2.54545E+03  3.04594E+03 -2.19096E+02
  1.77392E+03  1.22238E+03  1.70617E+02  1.32578E+03 -1.08790E+03  7.89805E+02 -3.59006E+02 -1.47047E+03
  2.23212E+03 -2.16318E+02  2.19445E+03  8.97790E+02  8.30569E+02  1.91476E+03  3.24097E+02  1.92753E+03
 -1.69427E+03  2.18357E+03 -3.04964E+03  4.04808E+02 -3.18350E+03 -2.37757E+03 -3.77421E+02 -4.50634E+03
  2.47128E+03 -2.72183E+03  2.91608E+03 -1.43964E+03  4.06216E+03  3.85050E+02  1.91583E+03  2.79039E+03
  5.81814E+02  3.01268E+03 -1.15240E+03  2.30093E+03 -2.04884E+03  1.56751E+03 -1.60820E+03  3.11750E+02
 -5.49588E+02 -2.82859E+02 -1.48449E+03  4.58745E+02 -2.33812E+03  9.85230E+02 -2.54911E+03 -7.24544E+02
 -2.26592E+03 -2.15817E+03 -6.61961E+02 -2.99194E+03  1.32872E+03 -3.61058E+03  2.29776E+03 -1.68888E+03
  2.39449E+03  2.58328E+02  1.23229E+03  1.98204E+03  3.66552E+01  2.82600E+03 -2.19636E+03  2.21828E+03
