 $NMID ID='MM_0lb_SNR400_16hz_g50_88.RAW', FMTDAT='(8E13.5)'
 TRAMP=1., VOLUME=1. $END
  3.09979E+05  3.40443E+02  3.37680E+05  2.50329E+05  8.46964E+04  3.37855E+05 -1.31861E+05  2.50799E+05
 -1.90051E+05  8.28938E+04 -1.11690E+05 -3.27863E+04  1.21345E+03 -5.00932E+04  5.40079E+04 -2.05851E+02
  3.57254E+04  5.27358E+04 -1.70583E+04  7.51639E+04 -6.06088E+04  6.33391E+04 -8.37768E+04  3.19436E+04
 -8.02632E+04 -1.13917E+04 -5.67542E+04 -5.05088E+04 -1.50984E+04 -6.85376E+04  2.69367E+04 -4.54495E+04
  3.98072E+04  3.86574E+03  1.63430E+04  4.73209E+04 -3.42917E+04  4.69868E+04 -6.58798E+04  1.87709E+02
 -5.33724E+04 -5.65637E+04 -6.80374E+03 -7.63764E+04  3.39235E+04 -5.41589E+04  4.77109E+04 -1.66276E+04
  4.29241E+04  1.09178E+04  3.11870E+04  2.54584E+04  1.57770E+04  2.86291E+04 -4.76766E+03  2.70250E+04
 -2.20922E+04  1.30115E+04 -1.86555E+04 -4.34936E+03  5.36932E+03 -8.09908E+03  2.18072E+04  1.14793E+04
  6.61202E+03  3.46793E+04 -3.12730E+04  3.51939E+04 -6.22877E+04  2.03598E+03 -5.61886E+04 -4.18922E+04
 -1.30339E+04 -6.21736E+04  3.92712E+04 -4.48232E+04  5.74240E+04 -2.01795E+03  3.30133E+04  3.15686E+04
 -6.31859E+03  3.51387E+04 -2.93354E+04  1.52784E+04 -2.99874E+04 -5.56491E+03 -1.56807E+04 -1.04840E+04
 -8.22974E+03 -1.23753E+04 -9.50404E+02 -1.79472E+04  7.20718E+03 -2.25363E+04  1.52721E+04 -1.38068E+04
  1.13483E+04  4.79365E+03 -7.16715E+03  1.30355E+04 -2.01058E+04 -3.74603E+03 -8.21475E+03 -3.25492E+04
  2.24571E+04 -4.22608E+04  4.72140E+04 -1.94146E+04  4.41628E+04  1.89998E+04  1.53721E+04  4.34300E+04
 -1.56047E+04  3.31350E+04 -2.41393E+04  1.23117E+03 -9.41791E+03 -2.71140E+04  2.04309E+04 -3.27975E+04
  3.99433E+04 -8.58141E+03  3.40037E+04  2.33229E+04  1.65577E+04  4.47687E+04 -7.46681E+03  4.78266E+04
 -3.06928E+04  3.28433E+04 -4.05697E+04  8.57318E+03 -4.13636E+04 -1.58605E+04 -2.22057E+04 -3.70236E+04
  7.02754E+03 -3.64844E+04  3.08260E+04 -1.46128E+04  2.85059E+04  1.06698E+04  3.83046E+03  1.85001E+04
 -1.34544E+04  7.33755E+03 -1.05702E+04 -7.28053E+03  5.88564E+03 -9.92398E+03  1.78528E+04  5.99744E+03
  1.35830E+04  2.17177E+04 -6.20299E+03  2.51833E+04 -2.25764E+04  1.02154E+04 -2.70319E+04 -5.31027E+03
 -1.92797E+04 -1.78232E+04 -7.54096E+03 -1.91324E+04  4.19032E+03 -1.78237E+04  1.42978E+04 -1.71374E+04
  2.46057E+04 -1.22116E+04  3.08970E+04  1.55305E+03  2.26256E+04  1.84141E+04  4.29485E+03  3.48113E+04
 -1.68059E+04  3.01326E+04 -2.72670E+04  9.71915E+03 -2.04934E+04 -1.07224E+04 -4.11559E+03 -1.35906E+04
  1.67647E+03 -3.42947E+03 -4.17047E+03  5.77378E+03 -1.46046E+04  5.22715E+03 -1.53706E+04 -6.23506E+03
 -1.03012E+04 -1.74651E+04  5.35334E+03 -2.10663E+04  1.36309E+04 -1.57533E+04  1.71323E+04 -1.25987E+03
  1.00545E+04  1.19410E+04 -7.88810E+02  1.72758E+04 -1.14577E+04  9.84344E+03 -1.76189E+04 -3.66464E+03
 -1.30943E+04 -1.63595E+04 -1.71771E+03 -2.10099E+04  9.84364E+03 -1.73909E+04  1.74309E+04 -8.37379E+03
  1.63015E+04 -3.18654E+02  1.21882E+04  3.76252E+03  5.81812E+03  1.21428E+03  9.22479E+03 -1.29622E+03
  1.59298E+04  2.79530E+03  1.74106E+04  1.39098E+04  1.03276E+04  2.83776E+04 -2.95750E+03  3.05573E+04
 -1.82534E+04  2.41637E+04 -2.88322E+04  1.13279E+04 -3.02481E+04 -2.53423E+03 -2.50579E+04 -1.70633E+04
 -1.11540E+04 -2.48598E+04  8.25803E+03 -2.19946E+04  1.92783E+04 -1.18294E+04  1.73202E+04  4.67292E+03
  6.93731E+03  1.24262E+04 -8.14909E+03  1.14860E+04 -1.47343E+04  2.47471E+03 -1.16561E+04 -9.14604E+03
  3.31870E+02 -1.37917E+04  6.93970E+03 -1.05986E+04  8.94298E+03 -1.10207E+03  2.01941E+03  5.71392E+03
 -6.72661E+03  1.88826E+03 -4.95828E+03 -5.40213E+03  1.62784E+02 -1.22726E+04  8.82861E+03 -1.22945E+04
  1.47880E+04 -6.28375E+03  1.51264E+04  2.21144E+03  1.37935E+04  1.16973E+04  7.25565E+03  1.82973E+04
 -2.52810E+03  1.93392E+04 -1.20618E+04  1.19225E+04 -1.36819E+04  3.57619E+03 -9.78170E+03 -2.14361E+03
 -4.34941E+03 -4.04124E+03 -2.98229E+02  1.46993E+03 -2.36193E+03  2.84913E+03 -5.15350E+03  4.05602E+03
 -9.63608E+03 -1.38385E+03 -9.71707E+03 -7.87872E+03 -3.87304E+03 -1.33540E+04  3.96935E+03 -9.20451E+03
  8.75379E+03 -4.49833E+03  5.90394E+03  2.30042E+03  8.27698E+02  4.22230E+03 -4.37914E+03 -1.71303E+02
 -4.79919E+03 -6.29463E+03 -4.03537E+02 -9.20374E+03  4.80119E+03 -1.00084E+04  1.20978E+04 -5.06937E+03
  1.41495E+04  1.31046E+03  1.01227E+04  8.37449E+03  1.88837E+03  1.03270E+04 -6.28314E+03  9.62391E+03
 -8.45886E+03  3.17364E+03 -3.85699E+03 -2.49191E+03  2.22550E+03 -2.36692E+03  5.36351E+03 -7.56294E+02
  5.00575E+03  4.22294E+03  9.27808E+02  7.70870E+03 -5.73618E+03  7.66348E+03 -9.29576E+03  2.12154E+03
 -6.44748E+03 -4.83010E+03  4.27404E+02 -8.30040E+03  4.91499E+03 -3.92482E+03  4.45456E+03  1.68774E+03
  1.30920E+03  4.76970E+03 -4.44315E+03  6.15655E+03 -6.86158E+03  2.93794E+03 -6.23073E+03 -2.39889E+03
 -4.06484E+03 -8.50735E+03  2.35314E+03 -9.26178E+03  7.67076E+03 -5.50795E+03  8.47993E+03  1.29475E+03
  5.50540E+03  6.54967E+03  6.63470E+01  8.43599E+03 -6.37931E+03  5.32481E+03 -6.91228E+03 -5.46081E+02
 -7.16863E+03 -6.23105E+03 -1.57565E+03 -6.98787E+03  3.33775E+03 -5.51946E+03  3.92421E+03 -2.98976E+03
  3.67872E+03  7.69273E+02  1.03161E+02  1.73478E+03 -4.67363E+02 -1.15996E+03  3.66368E+02 -2.85492E+03
  5.75594E+03 -1.36521E+03  7.10403E+03  5.80155E+02  7.22177E+03  4.62628E+03  6.25002E+03  9.59951E+03
 -1.87540E+03  1.16221E+04 -1.01628E+04  9.33711E+03 -1.29646E+04  1.98027E+03 -1.02258E+04 -4.07129E+03
 -5.42442E+03 -9.06359E+03 -3.56573E+02 -6.59051E+03  2.59839E+03 -2.67042E+03  2.53441E+03 -3.02722E+03
  1.68018E+03 -1.67001E+03  3.19225E+03 -2.38429E+03  4.33266E+03 -1.60085E+03  4.54438E+03 -9.16628E+01
  5.41145E+03  1.17714E+03  2.53712E+03  4.49673E+03 -1.90012E+03  4.61657E+03 -5.62189E+03  3.54753E+03
 -6.80462E+03 -1.74216E+03 -3.53251E+03 -4.47441E+03 -4.19992E+02 -7.20440E+03  4.59941E+03 -7.13105E+03
  7.05365E+03 -3.66425E+03  8.90668E+03  8.60213E+02  6.53146E+03  6.30450E+03  9.35910E+02  8.11546E+03
 -3.27752E+03  7.37766E+03 -4.72819E+03  2.07171E+03 -2.94409E+03 -1.18555E+03 -1.57686E+03 -1.11307E+03
  2.01046E+02 -4.73773E+02 -8.84180E+02  2.25024E+03 -3.01510E+03  7.75705E+02 -5.59843E+03 -4.52716E+02
 -2.49556E+03 -5.09869E+03  1.03182E+03 -6.81153E+03  3.72442E+03 -6.01290E+03  5.53201E+03 -1.96197E+03
  6.10617E+03  2.39997E+03  2.36517E+03  5.07167E+03 -1.47648E+03  6.39412E+03 -3.84387E+03  3.62577E+03
 -5.78281E+03  7.73051E+02 -4.41140E+03 -3.32619E+03 -2.37234E+02 -4.95796E+03  2.18548E+03 -3.59335E+03
  3.14569E+03 -1.46940E+03  2.34587E+03  6.92231E+02  8.78621E+02  2.12532E+03  8.22104E+02  5.10878E+02
  2.11012E+03  6.13383E+01  1.54251E+03  1.24561E+03  1.46766E+03  2.56261E+03  2.16366E+03  2.88082E+03
 -1.56686E+03  4.52771E+03 -3.60600E+03  5.66919E+03 -4.64749E+03  1.41846E+03 -5.89390E+03 -1.48492E+03
 -2.62239E+03 -4.96920E+03  7.13558E+02 -6.90858E+03  3.62315E+03 -3.74586E+03  4.62833E+03 -1.24472E+03
  3.75901E+03  2.03941E+03  1.10595E+03  3.50510E+03 -1.14298E+03  2.29567E+03 -1.90038E+03 -1.43059E+02
 -1.53355E+03 -1.95096E+03  2.36324E+03 -2.56702E+03  2.99931E+03 -1.84923E+03  2.59766E+03  6.64638E+02
  1.03512E+02  1.32843E+03  8.92702E+02  3.87445E+01 -5.62449E+02  1.06425E+03  1.20385E+03 -3.89668E+02
  5.84904E+01 -1.73108E+02  2.69078E+03  7.63092E+01  4.74755E+02  3.07437E+03 -1.08052E+02  4.05159E+03
 -2.20954E+03  2.46486E+03 -3.33462E+03  5.41479E+02 -3.12326E+03 -1.47409E+03 -4.05530E+02 -2.12250E+03
  3.07944E+02 -2.28426E+03  1.94727E+03 -1.03165E+03  1.49533E+03  1.10086E+03 -1.16904E+03  1.65893E+03
 -2.23560E+03  1.29994E+03 -2.21448E+03 -1.81543E+03 -9.38572E+02 -2.91114E+03  2.81532E+02 -2.23252E+03
  1.33442E+03 -1.23293E+03  1.93505E+03 -1.09642E+02  2.02188E+03  2.29127E+02  7.66889E+02  1.48271E+03
 -5.76495E+02  5.41830E+02 -1.28546E+03 -5.30086E+02  6.43352E+02 -1.52566E+03  2.66448E+03 -2.41479E+03
  2.40799E+03  8.39426E+02  3.88833E+03  1.67877E+03  1.41703E+03  2.48947E+03 -1.12153E+03  2.76960E+03
 -2.88324E+03  4.63869E+02 -2.41970E+03  2.02013E+02 -1.24790E+03 -1.75421E+03  8.58803E+02 -1.13628E+03
  2.01543E+03 -9.97952E+02  1.35100E+03  7.06851E+02  4.48468E+02  2.20257E+03 -4.19886E+02  1.49247E+03
 -9.12772E+02  1.20113E+03 -6.18405E+02  8.10419E+02  1.52134E+02  1.13658E+03 -2.18617E+02  1.28924E+03
 -6.04661E+02  1.74094E+03 -2.12702E+03  5.67029E+02 -2.80033E+03 -3.84456E+02 -3.58675E+03 -2.20493E+03
 -2.19979E+03 -3.57941E+03  2.81689E+02 -4.88566E+03  2.24518E+03 -3.75779E+03  4.20951E+03 -1.35889E+03
  3.61731E+03  7.02760E+02  2.63544E+03  2.71898E+03 -1.09812E+02  2.28883E+03 -1.04190E+03  2.10860E+03
 -1.46289E+03  1.19625E+03 -1.11053E+03 -6.32647E+02 -4.75245E+02 -2.18061E+02 -4.83402E+02 -3.54077E+02
 -6.87436E+02 -3.15238E+02 -7.02328E+02  3.38503E+01 -4.64539E+02 -3.83189E+02  3.37082E+02 -6.62029E+02
  1.77000E+03 -9.18626E+02  1.34194E+03  1.17148E+02  2.24967E+03  1.73048E+03  9.37742E+01  2.74127E+03
 -1.53341E+03  3.32712E+03 -2.26448E+03  1.91183E+03 -3.06908E+03 -3.91828E+02 -2.36255E+03 -1.99614E+03
 -6.46088E+02 -1.99819E+03  5.85290E+02 -2.20461E+03  1.47525E+03 -9.93409E+02  1.81448E+03  7.81412E+01
  1.21971E+03  3.77442E+02 -2.38976E+02  5.30099E+02 -1.22697E+02 -7.13890E+02  2.09929E+02 -7.12341E+02
  3.86139E+02 -1.95266E+02  1.04182E+03  4.74351E+02  7.55871E+02  1.25787E+03  2.59643E+02  1.31494E+03
 -6.86306E+02  1.10357E+03 -1.52786E+03  4.79940E+02 -1.46524E+03 -6.38047E+02 -4.95542E+02 -1.96651E+03
  9.80917E+02 -1.29936E+03  1.60027E+03 -6.78563E+02  1.60141E+03 -4.54976E+02  1.19749E+03  1.21962E+03
  1.56349E+02  1.06347E+03 -1.66896E+02  1.33843E+03 -1.30818E+03  1.26628E+03 -4.65741E+02 -1.51931E+02
 -8.49860E+02  4.59512E+01 -7.65821E+02 -1.73067E+01 -9.65241E+02  3.15539E+02 -6.00830E+02 -3.43411E+02
 -1.62550E+03  1.07412E+02 -5.13900E+02 -1.80101E+03  5.75418E+02 -1.89779E+03  1.05840E+03 -6.06475E+02
  1.28789E+03  3.50040E+02  3.92941E+01  6.10639E+02 -3.52236E+02  1.47855E+03 -1.46788E+03  1.20906E+03
