 $NMID ID='MM_0lb_SNR400_10hz_g50_56.RAW', FMTDAT='(8E13.5)'
 TRAMP=1., VOLUME=1. $END
  3.10337E+05  7.18428E+02  3.37686E+05  2.51047E+05  8.43808E+04  3.39097E+05 -1.32438E+05  2.52579E+05
 -1.90714E+05  8.39204E+04 -1.12731E+05 -3.22683E+04  4.68319E+02 -5.07650E+04  5.33412E+04 -8.33184E+02
  3.53006E+04  5.28932E+04 -1.65938E+04  7.63497E+04 -6.03088E+04  6.32550E+04 -8.52009E+04  3.25026E+04
 -8.21832E+04 -1.13709E+04 -5.83127E+04 -5.17988E+04 -1.47719E+04 -7.05828E+04  2.76301E+04 -4.65311E+04
  4.04792E+04  3.00501E+03  1.65151E+04  4.89652E+04 -3.46294E+04  4.74665E+04 -6.83323E+04  8.41790E+02
 -5.36324E+04 -5.75884E+04 -7.59801E+03 -7.80462E+04  3.59519E+04 -5.71770E+04  4.99594E+04 -1.85403E+04
  4.50470E+04  1.16535E+04  3.21177E+04  2.64833E+04  1.62806E+04  3.01628E+04 -5.88816E+03  2.85913E+04
 -2.20174E+04  1.18009E+04 -1.79300E+04 -6.16984E+03  5.81806E+03 -7.08905E+03  2.32974E+04  1.27878E+04
  6.49811E+03  3.69653E+04 -3.35785E+04  3.66555E+04 -6.52216E+04  2.45971E+03 -5.78037E+04 -4.44388E+04
 -1.33678E+04 -6.54961E+04  4.12604E+04 -4.73909E+04  6.11338E+04 -2.26086E+03  3.57548E+04  3.44993E+04
 -5.55750E+03  3.85817E+04 -3.10688E+04  1.84188E+04 -3.28719E+04 -4.02170E+03 -1.77489E+04 -1.15367E+04
 -8.95585E+03 -1.44481E+04  2.96316E+02 -1.99370E+04  9.08455E+03 -2.37732E+04  1.58004E+04 -1.30047E+04
  1.04376E+04  5.60749E+03 -1.02557E+04  1.23408E+04 -2.28728E+04 -5.85696E+03 -8.93021E+03 -3.68173E+04
  2.41923E+04 -4.60439E+04  5.10898E+04 -2.01056E+04  4.77905E+04  2.02215E+04  1.74759E+04  4.65807E+04
 -1.66788E+04  3.51433E+04 -2.68533E+04  2.34068E+03 -1.19859E+04 -2.87253E+04  2.11955E+04 -3.63971E+04
  4.39355E+04 -1.08406E+04  3.91579E+04  2.49276E+04  2.06819E+04  4.98725E+04 -7.87032E+03  5.45869E+04
 -3.44125E+04  3.77629E+04 -4.65862E+04  1.05636E+04 -4.61696E+04 -1.84568E+04 -2.54897E+04 -4.05726E+04
  8.04533E+03 -4.06612E+04  3.38523E+04 -1.61561E+04  3.16030E+04  1.17770E+04  4.53627E+03  2.08411E+04
 -1.44326E+04  1.01502E+04 -1.09730E+04 -7.41696E+03  5.87723E+03 -1.10156E+04  1.93196E+04  5.50594E+03
  1.44699E+04  2.20499E+04 -5.68202E+03  2.66114E+04 -2.29904E+04  1.33406E+04 -3.11417E+04 -3.19265E+03
 -2.51307E+04 -1.78629E+04 -1.04114E+04 -2.45591E+04  4.36705E+03 -2.40809E+04  1.85405E+04 -2.18303E+04
  3.06025E+04 -1.46063E+04  3.68448E+04  4.47282E+03  2.57780E+04  2.32584E+04  4.92556E+03  4.03620E+04
 -1.99902E+04  3.27137E+04 -3.02890E+04  1.13608E+04 -2.13344E+04 -1.08172E+04 -4.63396E+03 -1.33221E+04
  4.33822E+02 -1.44496E+03 -7.20772E+03  7.65464E+03 -1.97010E+04  4.48128E+03 -1.99298E+04 -9.00239E+03
 -1.08570E+04 -2.27196E+04  5.84266E+03 -2.64381E+04  1.91343E+04 -1.93499E+04  2.16901E+04 -1.25992E+03
  1.38638E+04  1.57961E+04 -1.19973E+03  2.15175E+04 -1.60117E+04  1.25334E+04 -2.24615E+04 -4.52813E+03
 -1.67990E+04 -2.03635E+04 -1.39850E+03 -2.68254E+04  1.21919E+04 -2.23235E+04  2.24236E+04 -1.17109E+04
  2.12571E+04 -2.62545E+02  1.58410E+04  4.77543E+03  8.31423E+03  1.29405E+03  1.18252E+04 -1.88847E+03
  2.13927E+04  2.40598E+03  2.35671E+04  1.71916E+04  1.62214E+04  3.58045E+04 -2.96830E+03  4.19218E+04
 -2.45310E+04  3.52870E+04 -3.98905E+04  1.75136E+04 -4.29325E+04 -2.54696E+03 -3.40372E+04 -2.51139E+04
 -1.35322E+04 -3.58576E+04  1.22957E+04 -3.07280E+04  2.66513E+04 -1.53366E+04  2.27896E+04  7.40638E+03
  7.68746E+03  1.81074E+04 -1.12477E+04  1.47202E+04 -1.90452E+04  2.37961E+03 -1.42824E+04 -1.22883E+04
 -8.52754E+01 -1.78268E+04  1.05426E+04 -1.32592E+04  1.23990E+04 -1.48919E+03  3.31956E+03  8.68133E+03
 -8.27804E+03  4.17561E+03 -8.18537E+03 -6.51622E+03 -1.11623E+03 -1.69113E+04  1.08383E+04 -1.90507E+04
  2.13044E+04 -1.01408E+04  2.47662E+04  2.90358E+03  2.08057E+04  1.72104E+04  9.35500E+03  2.74823E+04
 -4.88604E+03  2.93234E+04 -1.92748E+04  1.81025E+04 -2.11761E+04  4.37179E+03 -1.49390E+04 -5.24303E+03
 -6.87343E+03 -7.27369E+03  3.60088E+01 -5.14099E+01 -3.11381E+03  3.92660E+03 -6.68301E+03  4.91125E+03
 -1.31528E+04 -5.90671E+02 -1.35423E+04 -1.10376E+04 -5.48680E+03 -1.88158E+04  6.27600E+03 -1.45543E+04
  1.25065E+04 -5.95307E+03  9.21370E+03  4.30319E+03  3.49845E+02  5.48310E+03 -7.87539E+03  2.00129E+02
 -7.53372E+03 -9.77225E+03 -1.48691E+03 -1.45328E+04  7.83699E+03 -1.51128E+04  1.90765E+04 -7.88034E+03
  2.20483E+04  1.89946E+03  1.66201E+04  1.33541E+04  3.40771E+03  1.72750E+04 -8.46043E+03  1.43038E+04
 -1.10897E+04  4.37657E+03 -6.81124E+03 -2.89309E+03  1.42811E+03 -3.74972E+03  7.30980E+03 -9.27734E+02
  7.23584E+03  6.56739E+03  1.45808E+03  1.18500E+04 -7.88537E+03  1.20233E+04 -1.45987E+04  3.20451E+03
 -1.01123E+04 -8.86061E+03  9.51424E+01 -1.26349E+04  8.76427E+03 -6.14030E+03  8.29091E+03  3.31959E+03
  1.30037E+03  1.01085E+04 -7.58954E+03  1.00911E+04 -1.26020E+04  5.54603E+03 -1.23775E+04 -4.17228E+03
 -6.83810E+03 -1.44095E+04  2.37379E+03 -1.71751E+04  1.40714E+04 -1.02081E+04  1.51383E+04  2.79215E+03
  9.37002E+03  1.19233E+04 -1.67260E+03  1.48391E+04 -1.08384E+04  8.35598E+03 -1.19514E+04 -1.73475E+03
 -9.64817E+03 -9.75122E+03 -1.93297E+03 -1.05559E+04  5.39882E+03 -8.70929E+03  7.95505E+03 -3.82392E+03
  4.03405E+03  2.06843E+03 -8.63469E+02  2.31728E+03 -8.28072E+02 -3.02616E+03  1.90335E+03 -7.12587E+03
  1.03888E+04 -5.30571E+03  1.48016E+04  1.43887E+03  1.48604E+04  1.04949E+04  9.68018E+03  1.88141E+04
 -4.15841E+03  2.23210E+04 -1.77575E+04  1.61940E+04 -2.38173E+04  3.36857E+03 -1.88893E+04 -7.74219E+03
 -9.97203E+03 -1.53477E+04  1.03928E+02 -1.34019E+04  5.28920E+03 -7.90033E+03  4.45126E+03 -5.39744E+03
  3.49325E+03 -2.67021E+03  3.44610E+03 -3.77811E+03  5.25690E+03 -2.74451E+03  8.33610E+03 -1.34339E+03
  1.01732E+04  2.84069E+03  4.43635E+03  8.66364E+03 -2.52136E+03  9.91454E+03 -9.88075E+03  7.92794E+03
 -1.30204E+04 -1.88434E+03 -8.23528E+03 -9.80319E+03 -1.32177E+03 -1.33837E+04  7.81817E+03 -1.42270E+04
  1.44517E+04 -8.64047E+03  1.72473E+04  2.31998E+03  1.18964E+04  1.24121E+04  2.69324E+03  1.54945E+04
 -6.55058E+03  1.39765E+04 -9.68670E+03  4.53573E+03 -6.00003E+03 -1.56163E+03 -2.30053E+03 -1.24523E+03
 -6.86594E+02 -9.21046E+02 -2.08424E+03  2.91920E+03 -5.83889E+03  2.94764E+03 -9.39887E+03 -1.89263E+03
 -6.30252E+03 -9.34534E+03 -3.92861E+02 -1.37750E+04  8.16777E+03 -1.16886E+04  1.22843E+04 -3.49205E+03
  1.32531E+04  5.77345E+03  5.76662E+03  1.13519E+04 -2.37663E+03  1.40707E+04 -9.25214E+03  8.23474E+03
 -1.30296E+04  3.84101E+02 -9.51688E+03 -7.35825E+03 -8.63530E+02 -1.10599E+04  5.51898E+03 -8.06056E+03
  8.97363E+03 -2.48940E+03  5.07172E+03  2.18676E+03  2.14870E+03  3.75143E+03  1.79462E+03  1.29736E+03
  2.15346E+03  9.95080E+02  3.19457E+03  1.80023E+03  4.46681E+03  5.03614E+03  3.57660E+03  6.46270E+03
 -3.19872E+03  1.03216E+04 -9.42729E+03  1.12243E+04 -1.35857E+04  3.34614E+03 -1.34763E+04 -6.08786E+03
 -6.67480E+03 -1.23845E+04  2.25249E+03 -1.51448E+04  7.58273E+03 -9.09747E+03  1.05421E+04 -2.71103E+03
  8.80428E+03  5.95499E+03  2.18531E+03  7.62777E+03 -3.29972E+03  5.04714E+03 -5.45015E+03 -1.21625E+03
 -2.01828E+03 -5.52480E+03  2.28157E+03 -5.47386E+03  4.97235E+03 -2.64193E+03  5.42236E+03  1.78860E+03
  2.73968E+03  2.94144E+03  2.31363E+03  1.97589E+03 -4.80928E+02  1.87755E+03  1.73577E+03 -4.02821E+02
  1.95010E+03 -8.87475E+02  5.61931E+03  1.99367E+03  3.33095E+03  7.04683E+03 -1.22274E+03  9.84203E+03
 -6.27484E+03  6.38427E+03 -8.22033E+03  1.64320E+03 -6.93551E+03 -3.57616E+03 -3.26712E+03 -4.72468E+03
  5.08030E+02 -4.81723E+03  2.83739E+03 -2.22570E+03  3.86425E+03  2.62447E+03 -1.39867E+03  4.41392E+03
 -4.94631E+03  2.42615E+03 -6.08383E+03 -3.40822E+03 -3.73535E+03 -7.43578E+03  5.31726E+02 -8.01909E+03
  4.31056E+03 -3.60763E+03  5.45370E+03 -6.69750E+02  4.32729E+03  9.83720E+02  3.55689E+02  4.43722E+03
 -2.47046E+03  5.82289E+02 -3.61384E+03 -2.54602E+03  1.06097E+03 -5.79915E+03  5.93829E+03 -4.81350E+03
  8.35078E+03  1.14103E+03  7.74051E+03  5.54387E+03  2.21669E+03  8.93635E+03 -2.88500E+03  8.27162E+03
 -6.63058E+03  3.58907E+03 -6.33045E+03 -1.27353E+03 -3.80246E+03 -5.66218E+03  7.77182E+02 -5.03244E+03
  5.07382E+03 -3.65055E+03  4.40999E+03  2.02568E+03  1.02918E+03  5.02258E+03 -5.34149E+02  3.83498E+03
 -1.34186E+03  2.37420E+03 -1.70136E+03  7.75563E+02 -1.28411E+03  1.19324E+03 -1.72215E+03  1.93235E+03
 -2.35783E+03  3.50235E+03 -6.17736E+03  2.94163E+03 -8.44905E+03  5.86812E+02 -1.00728E+04 -5.55478E+03
 -4.82290E+03 -1.12493E+04  2.25705E+03 -1.21357E+04  7.78833E+03 -9.75216E+03  1.24037E+04 -3.82230E+03
  1.12966E+04  1.45204E+03  7.03677E+03  7.96720E+03  1.18841E+03  8.96128E+03 -3.49659E+03  6.66307E+03
 -5.10625E+03  2.50329E+03 -3.25001E+03 -1.34185E+03 -1.87536E+03 -1.28841E+03  3.71550E+02  4.62695E+02
 -1.10416E+03  5.09064E+02 -2.53680E+03  3.10281E+01 -9.43174E+02 -2.03274E+03  8.63477E+02 -3.55354E+03
  3.66299E+03 -2.79484E+03  5.49854E+03  1.14842E+03  6.24624E+03  3.79691E+03  9.73144E+02  8.32689E+03
 -3.70893E+03  9.82666E+03 -9.30881E+03  5.60059E+03 -1.07553E+04 -8.65456E+02 -7.50975E+03 -6.74752E+03
 -2.61004E+03 -8.98693E+03  1.86585E+03 -7.29011E+03  5.87578E+03 -3.70918E+03  5.60220E+03  3.39047E+02
  3.57815E+03  2.70898E+03 -7.56827E+02  2.76284E+03 -1.11513E+03 -7.96005E+01  3.14437E+02 -2.61568E+03
  3.20992E+03 -1.59017E+03  3.23513E+03  1.20685E+03  2.23380E+03  2.98418E+03 -5.72583E+01  4.16269E+03
 -4.11768E+03  4.26922E+03 -5.97484E+03  9.09912E+02 -5.26297E+03 -3.74084E+03 -4.43528E+02 -7.66148E+03
  4.18391E+03 -6.19115E+03  7.27762E+03 -1.96826E+03  6.38242E+03  1.59194E+03  4.45603E+03  5.38877E+03
  4.04603E+02  5.62110E+03 -2.02003E+03  4.88565E+03 -3.64826E+03  2.66847E+03 -3.06912E+03  8.88769E+01
 -2.29162E+03  1.47338E+02 -2.04431E+03  1.84683E+03 -3.01279E+03  1.18219E+03 -3.95034E+03 -4.27013E+02
 -3.86007E+03 -2.37824E+03 -1.24585E+03 -5.60100E+03  3.22720E+03 -5.71162E+03  5.34554E+03 -2.59609E+03
  6.12730E+03  1.06285E+03  2.62598E+03  3.54880E+03 -9.06065E+02  5.52857E+03 -4.06779E+03  4.24544E+03
