 $NMID ID='MM_0lb_SNR400_13hz_g60_4.RAW', FMTDAT='(8E13.5)'
 TRAMP=1., VOLUME=1. $END
  3.10090E+05  8.33360E+01  3.38800E+05  2.50535E+05  8.45452E+04  3.38227E+05 -1.32317E+05  2.51865E+05
 -1.91061E+05  8.37720E+04 -1.12447E+05 -3.23263E+04  3.69212E+02 -5.05791E+04  5.33362E+04 -4.40434E+02
  3.53268E+04  5.28708E+04 -1.67913E+04  7.57536E+04 -6.19386E+04  6.37985E+04 -8.48893E+04  3.19614E+04
 -8.23960E+04 -1.16812E+04 -5.78454E+04 -5.20839E+04 -1.49322E+04 -7.03775E+04  2.76182E+04 -4.66548E+04
  4.08110E+04  4.09049E+03  1.71867E+04  4.78452E+04 -3.45916E+04  4.78188E+04 -6.78100E+04 -3.82055E+02
 -5.40275E+04 -5.80837E+04 -6.49745E+03 -7.74036E+04  3.45486E+04 -5.61528E+04  5.00176E+04 -1.78663E+04
  4.42844E+04  1.17399E+04  3.20381E+04  2.62152E+04  1.56355E+04  3.01633E+04 -5.57443E+03  2.81671E+04
 -2.22397E+04  1.23453E+04 -1.84331E+04 -5.05835E+03  6.33832E+03 -7.97756E+03  2.29342E+04  1.31700E+04
  7.40986E+03  3.71080E+04 -3.31986E+04  3.72096E+04 -6.48274E+04  2.30897E+03 -5.81069E+04 -4.36864E+04
 -1.29248E+04 -6.44927E+04  4.04898E+04 -4.67318E+04  6.04417E+04 -2.00913E+03  3.59292E+04  3.33920E+04
 -6.00423E+03  3.80226E+04 -3.10267E+04  1.83121E+04 -3.15968E+04 -4.29413E+03 -1.83703E+04 -1.12425E+04
 -9.20931E+03 -1.40255E+04 -8.94731E+02 -1.87529E+04  8.10378E+03 -2.37765E+04  1.50792E+04 -1.24621E+04
  1.11848E+04  5.24202E+03 -8.86325E+03  1.30216E+04 -2.18823E+04 -6.18819E+03 -8.99893E+03 -3.55154E+04
  2.43255E+04 -4.52868E+04  4.97840E+04 -2.04544E+04  4.76058E+04  1.97985E+04  1.65520E+04  4.60338E+04
 -1.61408E+04  3.48715E+04 -2.67194E+04  2.09416E+03 -1.10437E+04 -2.89753E+04  2.14590E+04 -3.54455E+04
  4.32435E+04 -8.95122E+03  3.77680E+04  2.37319E+04  1.98433E+04  4.86462E+04 -7.80812E+03  5.33938E+04
 -3.39073E+04  3.64132E+04 -4.47597E+04  1.04895E+04 -4.48654E+04 -1.73478E+04 -2.41038E+04 -3.95475E+04
  7.44328E+03 -4.02744E+04  3.20888E+04 -1.53273E+04  3.04694E+04  1.11003E+04  4.07242E+03  1.92168E+04
 -1.33448E+04  8.55544E+03 -1.17251E+04 -7.43763E+03  6.06334E+03 -1.05423E+04  1.89872E+04  5.94930E+03
  1.40450E+04  2.21632E+04 -6.04994E+03  2.61500E+04 -2.30392E+04  1.28965E+04 -3.02159E+04 -3.74130E+03
 -2.30864E+04 -1.77124E+04 -1.01408E+04 -2.23607E+04  4.58339E+03 -2.32845E+04  1.80956E+04 -2.03289E+04
  2.94689E+04 -1.38171E+04  3.51733E+04  3.84718E+03  2.55696E+04  2.20193E+04  4.65408E+03  3.91562E+04
 -1.89419E+04  3.21362E+04 -2.87591E+04  1.07380E+04 -2.17172E+04 -1.00648E+04 -4.45397E+03 -1.32924E+04
  8.86491E+02 -2.51380E+03 -6.06149E+03  7.59642E+03 -1.75396E+04  5.74405E+03 -1.82950E+04 -7.50442E+03
 -1.11112E+04 -2.11234E+04  5.70347E+03 -2.53315E+04  1.70081E+04 -1.78854E+04  2.00589E+04 -2.31045E+03
  1.28044E+04  1.48182E+04 -7.96089E+02  2.05766E+04 -1.47877E+04  1.22152E+04 -2.08903E+04 -4.64329E+03
 -1.58187E+04 -1.92747E+04 -1.93806E+03 -2.59855E+04  1.16829E+04 -2.11506E+04  2.09157E+04 -1.13329E+04
  2.02510E+04 -3.23405E+01  1.36152E+04  4.31605E+03  7.69104E+03  7.56447E+02  1.01070E+04 -1.29396E+03
  1.95082E+04  3.02155E+03  2.22984E+04  1.64676E+04  1.42287E+04  3.36337E+04 -2.85762E+03  3.84860E+04
 -2.30706E+04  3.15687E+04 -3.61503E+04  1.60838E+04 -3.79548E+04 -2.78594E+03 -3.15769E+04 -2.19992E+04
 -1.27457E+04 -3.12221E+04  1.11356E+04 -2.79914E+04  2.42721E+04 -1.35227E+04  2.17834E+04  6.14988E+03
  6.80843E+03  1.67601E+04 -1.03512E+04  1.33322E+04 -1.84558E+04  2.50591E+03 -1.39857E+04 -1.13350E+04
  7.39309E+02 -1.67451E+04  9.11260E+03 -1.28254E+04  1.17626E+04 -1.33743E+03  2.84088E+03  7.18157E+03
 -7.83981E+03  2.80480E+03 -7.28567E+03 -6.59304E+03 -6.77813E+02 -1.49163E+04  1.07688E+04 -1.63307E+04
  1.89785E+04 -8.72871E+03  2.10630E+04  3.30782E+03  1.82622E+04  1.55382E+04  8.01869E+03  2.36556E+04
 -4.20525E+03  2.56163E+04 -1.67121E+04  1.57919E+04 -1.86186E+04  3.42026E+03 -1.31072E+04 -4.86711E+03
 -6.34699E+03 -5.72283E+03 -8.86117E+02  8.64839E+02 -2.57607E+03  3.29387E+03 -6.39710E+03  4.75112E+03
 -1.18455E+04 -1.34928E+03 -1.29852E+04 -1.00769E+04 -5.02843E+03 -1.67663E+04  5.43034E+03 -1.33532E+04
  1.04246E+04 -5.07987E+03  7.06750E+03  2.93045E+03  3.15955E+02  4.74663E+03 -6.33758E+03  2.60052E+02
 -5.70902E+03 -8.75365E+03 -6.96082E+02 -1.17576E+04  7.22114E+03 -1.29500E+04  1.65743E+04 -7.06618E+03
  1.89540E+04  2.07267E+03  1.42550E+04  1.18091E+04  3.22249E+03  1.44491E+04 -8.03597E+03  1.30611E+04
 -1.06363E+04  4.39560E+03 -5.58633E+03 -2.10608E+03  2.13482E+03 -3.01948E+03  7.31362E+03 -1.30525E+03
  6.55287E+03  5.49116E+03  1.18929E+03  9.94609E+03 -6.79807E+03  1.00745E+04 -1.24702E+04  2.71120E+03
 -8.79589E+03 -6.32664E+03  3.20220E+02 -1.04109E+04  7.05308E+03 -5.67030E+03  7.12403E+03  2.56131E+03
  1.07306E+03  7.60822E+03 -6.16742E+03  9.00110E+03 -9.97561E+03  4.05417E+03 -9.94958E+03 -3.16934E+03
 -6.00628E+03 -1.24381E+04  2.80295E+03 -1.34007E+04  1.21694E+04 -8.30648E+03  1.25853E+04  2.40327E+03
  8.23662E+03  1.00619E+04 -1.06355E+03  1.24353E+04 -9.52697E+03  7.29023E+03 -9.41619E+03 -1.44061E+03
 -8.72212E+03 -8.96845E+03 -1.64936E+03 -8.88311E+03  5.44084E+03 -7.55719E+03  5.72349E+03 -3.80666E+03
  3.87167E+03  7.25060E+02 -9.61850E+02  1.81478E+03 -8.40812E+02 -1.61433E+03  2.24199E+03 -4.96279E+03
  8.64847E+03 -2.48937E+03  1.18846E+04  1.36385E+03  1.22374E+04  7.51485E+03  7.71709E+03  1.49847E+04
 -3.01091E+03  1.73232E+04 -1.44441E+04  1.27411E+04 -1.90284E+04  2.25689E+03 -1.47980E+04 -6.09366E+03
 -7.52684E+03 -1.27835E+04 -6.13108E+01 -9.69456E+03  3.75823E+03 -5.49871E+03  3.14322E+03 -3.67139E+03
  2.20782E+03 -2.42854E+03  3.06358E+03 -3.11023E+03  5.21901E+03 -3.16174E+03  5.82537E+03 -1.69708E+02
  7.72938E+03  1.98943E+03  4.09106E+03  7.04489E+03 -2.10978E+03  6.88400E+03 -8.54427E+03  5.99876E+03
 -1.08158E+04 -1.17042E+03 -5.55402E+03 -6.95100E+03 -7.23814E+02 -1.06629E+04  6.20868E+03 -1.12826E+04
  1.10041E+04 -5.36147E+03  1.36660E+04  1.16477E+03  9.40909E+03  9.33301E+03  1.94199E+03  1.21328E+04
 -4.32431E+03  1.08382E+04 -7.43585E+03  4.07338E+03 -4.78305E+03 -1.55397E+03 -1.52227E+03 -1.08078E+03
 -8.78549E+02  2.21216E+02 -2.22744E+03  2.61544E+03 -4.33266E+03  2.41865E+03 -7.69386E+03 -8.90956E+02
 -4.38667E+03 -7.00331E+03  4.66834E+02 -9.41925E+03  5.74286E+03 -9.36794E+03  8.68161E+03 -3.35318E+03
  1.02152E+04  4.44835E+03  4.24229E+03  8.18975E+03 -2.43582E+03  1.00007E+04 -7.09376E+03  5.59442E+03
 -8.95517E+03  9.78309E+01 -6.94110E+03 -5.33063E+03 -4.83105E+02 -7.77417E+03  4.40081E+03 -6.50084E+03
  6.44740E+03 -1.87021E+03  4.79664E+03  1.66015E+03  1.57646E+03  3.15911E+03  7.93254E+02  1.65229E+03
  1.95255E+03  1.32854E+03  2.67509E+03  1.23593E+03  3.35623E+03  3.92720E+03  2.42795E+03  5.17492E+03
 -1.31345E+03  6.85670E+03 -6.55762E+03  7.70584E+03 -9.77120E+03  2.56295E+03 -9.89217E+03 -3.65446E+03
 -4.55010E+03 -8.73034E+03  1.85037E+03 -1.07277E+04  4.27007E+03 -6.53856E+03  7.78083E+03 -1.86908E+03
  6.19094E+03  4.35774E+03  1.66042E+03  5.21328E+03 -2.68554E+03  2.68808E+03 -3.06823E+03 -2.10056E+02
 -1.73658E+03 -4.44429E+03  2.92092E+03 -3.93604E+03  3.82448E+03 -1.90769E+03  3.20451E+03  4.95998E+02
  1.97585E+03  2.13309E+03  8.88509E+02  5.52096E+02 -5.66007E+02  1.64763E+03  2.29678E+03 -1.23831E+02
  1.32040E+03 -7.55799E+02  3.83581E+03  1.35470E+03  1.73827E+03  4.96168E+03 -1.20237E+03  6.67053E+03
 -4.36030E+03  4.01943E+03 -5.58219E+03  8.81922E+02 -4.77152E+03 -2.05632E+03 -2.30638E+03 -3.19637E+03
  6.89791E+02 -2.91661E+03  2.44565E+03 -1.71165E+03  2.08843E+03  1.65784E+03 -2.02189E+02  2.94717E+03
 -3.70811E+03  1.83248E+03 -4.39599E+03 -2.14523E+03 -2.06097E+03 -4.91016E+03  9.82201E+02 -4.95778E+03
  2.96414E+03 -2.47949E+03  2.97736E+03 -1.02684E+02  2.52315E+03  1.19760E+03  6.26924E+02  2.27876E+03
 -1.75579E+03  2.64035E+02 -1.89835E+03 -1.94534E+03  7.85272E+02 -3.71512E+03  3.99419E+03 -3.05927E+03
  5.33655E+03  8.08656E+02  6.53539E+03  3.74234E+03  1.93069E+03  5.85157E+03 -2.17994E+03  5.11020E+03
 -4.56626E+03  1.78429E+03 -4.61938E+03 -1.30425E+03 -2.51357E+03 -3.44728E+03  1.31394E+02 -3.43350E+03
  4.13417E+03 -1.86136E+03  2.62302E+03  1.29377E+03  9.69476E+02  3.37359E+03 -3.56646E+02  2.87126E+03
 -1.25605E+03  1.67143E+03 -1.15202E+03  1.05276E+03 -1.64649E+02 -1.40987E+02 -9.58210E+02  9.59970E+02
 -1.93739E+03  1.98215E+03 -3.71025E+03  1.79580E+03 -5.36510E+03  1.92256E+02 -6.53397E+03 -3.48377E+03
 -3.18330E+03 -7.18150E+03  1.97235E+03 -8.67841E+03  4.16419E+03 -6.81088E+03  7.14211E+03 -2.87758E+03
  7.10533E+03  1.19983E+03  4.17590E+03  5.70002E+03 -1.87183E+02  5.60324E+03 -1.93959E+03  3.89158E+03
 -2.85719E+03  1.51735E+03 -1.81200E+03 -4.62150E+02 -7.60574E+02  1.19314E+02 -6.70481E+01  1.07550E+01
 -1.19295E+03 -4.49887E+02 -1.20605E+03 -3.31990E+02  3.64965E+02 -1.32664E+03  1.47810E+02 -2.56488E+03
  3.06494E+03 -1.89100E+03  2.57224E+03  6.85460E+02  4.13977E+03  2.94417E+03  8.97757E+01  5.67836E+03
 -2.12236E+03  6.26548E+03 -5.71268E+03  3.32387E+03 -6.50196E+03 -9.49264E+02 -4.69280E+03 -3.96656E+03
 -2.41986E+03 -4.57701E+03  1.14903E+03 -5.27839E+03  3.54012E+03 -1.89554E+03  2.45377E+03  7.53931E+02
  2.12300E+03  1.45807E+03 -1.08723E+02  1.37629E+03 -7.79404E+02  4.70155E+01  5.67280E+01 -1.63654E+03
  1.48026E+03 -5.45187E+02  1.36140E+03  5.58679E+02  1.33455E+03  1.43647E+03  7.20614E+02  2.55455E+03
 -1.56049E+03  1.72398E+03 -2.62716E+03  3.33794E+01 -2.86850E+03 -1.97260E+03 -7.44817E+02 -4.20713E+03
  1.95414E+03 -4.23888E+03  3.20021E+03 -5.57282E+02  3.70166E+03  6.28645E+01  1.76032E+03  3.16614E+03
  4.61200E+02  3.06766E+03 -8.31505E+02  2.44119E+03 -1.81207E+03  2.16779E+03 -1.46398E+03  9.73353E+02
 -6.56011E+02  9.43657E+01 -7.16199E+02  7.42399E+02 -1.86374E+03  2.19785E+02 -2.38306E+03 -3.74426E+02
 -2.19832E+03 -1.51785E+03 -6.17538E+02 -3.32490E+03  1.89163E+03 -3.25798E+03  2.59021E+03 -1.23084E+03
  3.09962E+03  5.50886E+02  8.02522E+02  1.81895E+03  1.26863E+02  2.92439E+03 -3.16211E+03  1.39641E+03
