 $NMID ID='MM_0lb_SNR400_15hz_g60_48.RAW', FMTDAT='(8E13.5)'
 TRAMP=1., VOLUME=1. $END
  3.10082E+05  5.75504E+02  3.37670E+05  2.50785E+05  8.43795E+04  3.37971E+05 -1.32607E+05  2.51277E+05
 -1.90563E+05  8.28101E+04 -1.12362E+05 -3.28208E+04 -3.63314E+01 -5.04492E+04  5.38579E+04 -5.85866E+02
  3.48961E+04  5.24344E+04 -1.61843E+04  7.62547E+04 -6.16487E+04  6.34172E+04 -8.41578E+04  3.19950E+04
 -8.13765E+04 -1.21496E+04 -5.75796E+04 -5.21035E+04 -1.52887E+04 -6.97065E+04  2.70918E+04 -4.59700E+04
  4.04553E+04  3.53748E+03  1.60394E+04  4.77395E+04 -3.49802E+04  4.72867E+04 -6.65591E+04 -3.60998E+02
 -5.33370E+04 -5.74559E+04 -6.33053E+03 -7.70597E+04  3.41646E+04 -5.58175E+04  4.82482E+04 -1.77803E+04
  4.44153E+04  1.15627E+04  3.20317E+04  2.66126E+04  1.54828E+04  2.95663E+04 -5.77022E+03  2.76664E+04
 -2.19216E+04  1.28064E+04 -1.90741E+04 -5.10797E+03  6.24679E+03 -7.38711E+03  2.27127E+04  1.30675E+04
  7.09217E+03  3.57490E+04 -3.32510E+04  3.60308E+04 -6.38938E+04  1.87205E+03 -5.76708E+04 -4.27746E+04
 -1.24003E+04 -6.34701E+04  4.01831E+04 -4.60743E+04  5.89398E+04 -2.67420E+03  3.43051E+04  3.30716E+04
 -6.47595E+03  3.63619E+04 -2.98513E+04  1.66853E+04 -3.11353E+04 -4.18673E+03 -1.66544E+04 -1.03093E+04
 -8.02646E+03 -1.36507E+04 -7.88825E+02 -1.81804E+04  7.28026E+03 -2.29780E+04  1.60297E+04 -1.32822E+04
  1.04799E+04  4.99399E+03 -8.78134E+03  1.26175E+04 -2.16272E+04 -4.94343E+03 -8.05978E+03 -3.45717E+04
  2.34440E+04 -4.41158E+04  4.87313E+04 -1.97671E+04  4.66145E+04  1.96731E+04  1.63943E+04  4.48369E+04
 -1.60109E+04  3.28878E+04 -2.56548E+04  1.74482E+03 -1.03803E+04 -2.84177E+04  2.11751E+04 -3.42065E+04
  4.14800E+04 -9.92081E+03  3.66887E+04  2.35336E+04  1.87621E+04  4.71211E+04 -7.81997E+03  5.09266E+04
 -3.23194E+04  3.44020E+04 -4.30987E+04  1.03847E+04 -4.37853E+04 -1.66997E+04 -2.38970E+04 -3.85806E+04
  7.25907E+03 -3.80774E+04  3.17238E+04 -1.48360E+04  3.01811E+04  1.09832E+04  4.33389E+03  1.96676E+04
 -1.30522E+04  9.08987E+03 -1.07558E+04 -8.08317E+03  6.04489E+03 -1.05016E+04  1.82496E+04  6.14394E+03
  1.37958E+04  2.18701E+04 -6.07071E+03  2.53423E+04 -2.21938E+04  1.20212E+04 -2.88829E+04 -3.58627E+03
 -2.09507E+04 -1.70050E+04 -8.97400E+03 -2.11578E+04  3.71504E+03 -2.00401E+04  1.59145E+04 -1.91065E+04
  2.72149E+04 -1.33744E+04  3.33354E+04  3.37982E+03  2.41919E+04  2.07233E+04  4.48018E+03  3.64156E+04
 -1.79263E+04  3.01908E+04 -2.82278E+04  1.11114E+04 -2.08322E+04 -9.92140E+03 -4.80320E+03 -1.36032E+04
  1.47417E+03 -2.90880E+03 -5.02654E+03  6.38327E+03 -1.67861E+04  5.02233E+03 -1.67789E+04 -7.26187E+03
 -1.03145E+04 -1.89919E+04  4.97657E+03 -2.35521E+04  1.56828E+04 -1.65950E+04  1.84584E+04 -1.38061E+03
  1.18517E+04  1.33300E+04 -1.50043E+03  1.96195E+04 -1.33373E+04  1.12734E+04 -1.87272E+04 -3.72060E+03
 -1.46475E+04 -1.76685E+04 -2.25743E+03 -2.33187E+04  1.09963E+04 -1.90762E+04  1.91231E+04 -9.74079E+03
  1.78212E+04  4.37195E+01  1.27932E+04  4.71861E+03  7.27133E+03  1.52057E+03  1.01721E+04 -2.19458E+03
  1.85155E+04  2.44973E+03  2.02918E+04  1.54386E+04  1.31514E+04  3.03395E+04 -2.78890E+03  3.51261E+04
 -1.97332E+04  2.78939E+04 -3.34453E+04  1.43944E+04 -3.40236E+04 -2.38526E+03 -2.83078E+04 -1.94848E+04
 -1.16911E+04 -2.84258E+04  8.90094E+03 -2.55341E+04  2.20686E+04 -1.30403E+04  1.94457E+04  4.94219E+03
  7.49081E+03  1.43631E+04 -9.59159E+03  1.31208E+04 -1.67777E+04  2.69590E+03 -1.20224E+04 -9.65597E+03
  4.84706E+01 -1.61023E+04  8.15395E+03 -1.20264E+04  1.03856E+04 -1.82060E+03  2.05004E+03  6.83376E+03
 -6.90290E+03  2.17487E+03 -5.81845E+03 -5.98240E+03 -8.54511E+02 -1.38387E+04  9.36722E+03 -1.50383E+04
  1.70351E+04 -6.98456E+03  1.89621E+04  2.84778E+03  1.56776E+04  1.35229E+04  7.42944E+03  2.08521E+04
 -3.16459E+03  2.26740E+04 -1.40381E+04  1.42645E+04 -1.63148E+04  2.66192E+03 -1.16571E+04 -3.82382E+03
 -5.75422E+03 -4.79674E+03 -9.34918E+02  9.94944E+02 -2.24670E+03  2.93178E+03 -5.57562E+03  4.33451E+03
 -1.05615E+04 -8.04234E+01 -1.18667E+04 -9.30595E+03 -4.59481E+03 -1.56740E+04  4.50573E+03 -1.14894E+04
  9.93029E+03 -4.93091E+03  7.05294E+03  2.48447E+03  6.30279E+02  4.20462E+03 -4.75479E+03  2.02182E+01
 -4.24472E+03 -6.44036E+03 -1.07779E+03 -1.08014E+04  5.97204E+03 -1.15800E+04  1.38150E+04 -5.83062E+03
  1.63986E+04  1.27613E+03  1.16929E+04  9.51823E+03  2.46976E+03  1.26919E+04 -7.07228E+03  1.15756E+04
 -8.93279E+03  3.40661E+03 -4.29340E+03 -2.61473E+03  1.84049E+03 -3.06784E+03  5.68849E+03 -7.46475E+02
  5.77396E+03  4.77975E+03  1.70463E+03  9.50532E+03 -5.85978E+03  8.77285E+03 -1.08698E+04  2.35133E+03
 -7.62956E+03 -5.73023E+03 -1.42420E+02 -8.92165E+03  5.57237E+03 -5.07174E+03  5.50023E+03  2.09038E+03
  1.35000E+03  5.50460E+03 -5.29612E+03  7.53303E+03 -8.94588E+03  3.73330E+03 -7.97174E+03 -2.66403E+03
 -4.85269E+03 -9.66570E+03  2.08593E+03 -1.17783E+04  9.79079E+03 -7.18928E+03  1.01095E+04  1.76878E+03
  7.06489E+03  8.31028E+03 -4.50251E+02  1.04083E+04 -7.10819E+03  5.41543E+03 -8.34635E+03 -1.17188E+03
 -7.95837E+03 -7.04084E+03 -1.66946E+03 -8.00791E+03  4.35602E+03 -6.40160E+03  4.99182E+03 -2.80601E+03
  3.68018E+03  5.58454E+02 -9.69476E+02  9.22340E+02  3.55267E+02 -1.70161E+03  1.00241E+03 -3.99061E+03
  7.31164E+03 -2.68433E+03  9.06090E+03  1.16787E+03  1.01114E+04  5.71030E+03  7.69001E+03  1.16830E+04
 -2.79181E+03  1.39841E+04 -1.18050E+04  1.05264E+04 -1.56601E+04  2.05458E+03 -1.23701E+04 -4.90801E+03
 -6.81973E+03 -1.04236E+04 -2.94668E+02 -8.52141E+03  3.31470E+03 -4.29228E+03  2.70980E+03 -2.92190E+03
  2.23136E+03 -1.87883E+03  2.96264E+03 -2.94958E+03  3.99500E+03 -2.17906E+03  4.84882E+03 -6.34612E+02
  6.47425E+03  1.19008E+03  2.56408E+03  5.51514E+03 -2.14390E+03  5.12717E+03 -7.46195E+03  5.33019E+03
 -8.85835E+03 -1.70324E+03 -4.51717E+03 -5.14246E+03 -3.82118E+02 -8.28408E+03  4.83088E+03 -8.92445E+03
  8.63579E+03 -4.37944E+03  1.07989E+04  1.54047E+03  7.60322E+03  7.37662E+03  1.19534E+03  1.00436E+04
 -4.05805E+03  8.74443E+03 -5.62459E+03  2.89318E+03 -4.15678E+03 -2.07564E+03 -1.54444E+03 -1.15514E+03
 -9.21890E+02 -2.23798E+02 -1.29406E+03  2.52520E+03 -3.58349E+03  1.52752E+03 -5.75582E+03 -4.23108E+02
 -3.38914E+03 -5.43295E+03  6.37942E+02 -7.58969E+03  4.01803E+03 -7.08841E+03  6.65519E+03 -2.20394E+03
  6.46275E+03  3.80628E+03  3.68207E+03  6.13136E+03 -1.42976E+03  8.27925E+03 -4.63642E+03  5.55960E+03
 -6.75365E+03  9.82432E+02 -5.43820E+03 -4.75418E+03 -6.66826E+02 -6.03364E+03  2.21979E+03 -4.55201E+03
  4.11615E+03 -2.15332E+03  3.34782E+03  1.19447E+03  1.06562E+03  2.25118E+03  4.53929E+02  1.42567E+03
  1.90871E+03  3.85600E+02  1.96518E+03  1.00419E+03  1.56957E+03  3.20011E+03  2.48086E+03  3.82790E+03
 -1.62592E+03  5.89438E+03 -4.70228E+03  6.30956E+03 -6.44157E+03  1.89676E+03 -7.93037E+03 -1.88088E+03
 -3.66581E+03 -7.06506E+03  1.06219E+03 -7.96491E+03  3.91382E+03 -4.86737E+03  5.50466E+03 -1.51159E+03
  4.42090E+03  2.76920E+03  1.31496E+03  4.13593E+03 -1.84358E+03  2.55371E+03 -1.85202E+03 -2.57017E+02
 -1.20422E+03 -3.01566E+03  2.26853E+03 -3.66577E+03  2.05548E+03 -1.74849E+03  2.82476E+03  2.82388E+02
  1.53141E+03  4.62637E+02  7.85177E+02  5.52670E+02 -5.37352E+02  7.63902E+02  1.42591E+03 -1.18109E+02
  5.79232E+02 -7.22671E+02  2.90337E+03  1.39951E+03  1.32118E+03  3.55445E+03 -3.94373E+02  5.64403E+03
 -3.39511E+03  3.00254E+03 -5.02993E+03  7.10997E+02 -4.25750E+03 -1.40373E+03 -1.63629E+03 -2.34800E+03
  7.16602E+02 -2.77215E+03  2.22930E+03 -9.04544E+02  1.50452E+03  2.20413E+03 -8.45561E+02  1.85078E+03
 -2.43859E+03  1.36496E+03 -2.74022E+03 -2.30552E+03 -2.20452E+03 -3.85247E+03  1.15578E+02 -3.20626E+03
  1.92631E+03 -2.20065E+03  2.02890E+03 -1.66425E+02  1.64658E+03  7.65099E+02  1.40419E+02  1.62348E+03
 -9.93280E+02  1.10041E+03 -1.57890E+03 -7.78602E+02  9.14678E+02 -2.59631E+03  3.75379E+03 -2.64041E+03
  3.52200E+03  7.40609E+02  4.95496E+03  2.17978E+03  1.67637E+03  3.94416E+03 -1.40811E+03  3.83600E+03
 -3.16648E+03  8.32141E+02 -2.79019E+03 -1.09742E+03 -1.79466E+03 -2.73874E+03  8.62019E+02 -1.64126E+03
  2.59814E+03 -1.57949E+03  2.00722E+03  1.14080E+03  4.85108E+02  2.34501E+03  3.09570E+01  1.68473E+03
 -2.98397E+02  1.53879E+03 -1.02575E+03  6.98302E+02 -1.49813E+02  9.37169E+02 -5.71237E+02  6.91333E+02
 -1.05493E+03  1.47033E+03 -2.93238E+03  1.77268E+03 -3.56977E+03 -7.46145E+02 -4.56901E+03 -2.56818E+03
 -1.95797E+03 -5.00645E+03  1.34994E+03 -5.00902E+03  3.07048E+03 -3.79054E+03  5.32552E+03 -1.72093E+03
  4.63417E+03  1.21901E+02  2.64267E+03  2.94369E+03 -5.59899E+02  3.50489E+03 -1.04714E+03  2.64350E+03
 -1.84094E+03  5.41287E+02 -1.08527E+03 -6.00753E+02 -5.53942E+02  1.20262E+02 -8.05187E+02  3.13175E+01
 -1.61117E+03 -2.43473E+02 -1.40737E+03  1.74403E+02 -2.07519E+02 -1.25682E+03 -3.21650E+02 -1.81431E+03
  1.54687E+03 -1.14093E+03  1.58802E+03  3.31480E+02  1.57320E+03  1.95829E+03 -2.41825E+02  2.91960E+03
 -1.69415E+03  4.33520E+03 -3.28722E+03  2.59792E+03 -4.37141E+03 -5.90281E+02 -2.52264E+03 -2.10865E+03
 -1.80347E+03 -3.54611E+03  9.48181E+02 -2.77389E+03  1.94772E+03 -1.41843E+03  2.36211E+03  1.57099E+02
  1.62924E+03  9.91339E+02 -3.28002E+02  7.70280E+02 -6.49401E+02  2.85029E+02 -2.15485E+02 -6.67931E+02
  9.01683E+02  7.44489E+00  1.48432E+03  4.65557E+02  2.90145E+02  1.23982E+03  2.13689E+02  1.45290E+03
 -1.45037E+03  5.46668E+02 -1.56939E+03  4.59326E+02 -1.21921E+03 -1.00240E+03 -6.14360E+02 -2.74585E+03
  1.42004E+03 -1.86678E+03  1.67488E+03 -1.03514E+03  1.82967E+03 -1.32608E+02  1.20262E+03  2.04178E+03
  8.60929E+02  1.39807E+03 -6.54084E+02  8.96876E+02 -8.39232E+02  8.86565E+02 -1.20733E+03  2.52082E+02
 -7.83151E+01 -2.77447E+02 -6.89793E+02  3.93544E+02 -1.02825E+03  4.03963E+02 -1.66321E+03 -2.68469E+02
 -2.09772E+03 -8.75467E+01 -3.40950E+02 -2.43853E+03  8.36068E+02 -2.04569E+03  1.42761E+03 -4.92773E+02
  1.58293E+03 -1.65918E+02  2.52180E+02  1.14369E+03 -1.06658E+02  2.02526E+03 -1.21022E+03  1.33932E+03
