 $NMID ID='MM_0lb_SNR400_11hz_g55_13.RAW', FMTDAT='(8E13.5)'
 TRAMP=1., VOLUME=1. $END
  3.09990E+05  4.36808E+02  3.38287E+05  2.50470E+05  8.47413E+04  3.38328E+05 -1.32332E+05  2.52147E+05
 -1.91069E+05  8.28959E+04 -1.11746E+05 -3.29510E+04  1.07227E+03 -4.97289E+04  5.29861E+04 -3.23684E+02
  3.51467E+04  5.28393E+04 -1.67363E+04  7.59543E+04 -6.19679E+04  6.45272E+04 -8.49723E+04  3.31247E+04
 -8.17026E+04 -1.16524E+04 -5.84773E+04 -5.19409E+04 -1.57467E+04 -7.06427E+04  2.79984E+04 -4.69843E+04
  4.07946E+04  3.40071E+03  1.61995E+04  4.83120E+04 -3.47211E+04  4.79469E+04 -6.74998E+04 -3.34266E+02
 -5.49467E+04 -5.65060E+04 -6.96510E+03 -7.85915E+04  3.45631E+04 -5.64765E+04  4.96408E+04 -1.77916E+04
  4.48251E+04  1.15232E+04  3.23695E+04  2.61258E+04  1.61384E+04  3.07432E+04 -5.35941E+03  2.79296E+04
 -2.25657E+04  1.18125E+04 -1.81500E+04 -5.44819E+03  7.22703E+03 -7.53715E+03  2.30760E+04  1.37622E+04
  8.15042E+03  3.71672E+04 -3.35455E+04  3.65553E+04 -6.49152E+04  1.47604E+03 -5.82247E+04 -4.34087E+04
 -1.27086E+04 -6.47306E+04  4.15550E+04 -4.68023E+04  6.02604E+04 -2.80319E+03  3.59442E+04  3.36531E+04
 -5.64163E+03  3.82163E+04 -3.11606E+04  1.79338E+04 -3.30138E+04 -3.83703E+03 -1.84472E+04 -1.16579E+04
 -8.91401E+03 -1.44254E+04 -1.73073E+02 -1.95092E+04  7.73092E+03 -2.35017E+04  1.65322E+04 -1.23461E+04
  1.06263E+04  5.65916E+03 -9.57595E+03  1.31562E+04 -2.34720E+04 -5.64586E+03 -8.38278E+03 -3.58332E+04
  2.46816E+04 -4.62430E+04  5.15693E+04 -2.07004E+04  4.80371E+04  2.09365E+04  1.60643E+04  4.63374E+04
 -1.62556E+04  3.50483E+04 -2.78092E+04  2.16313E+03 -1.16977E+04 -2.80654E+04  2.09975E+04 -3.62222E+04
  4.36812E+04 -1.00729E+04  3.94322E+04  2.46383E+04  1.96774E+04  4.95934E+04 -7.74637E+03  5.41442E+04
 -3.42321E+04  3.65399E+04 -4.57538E+04  1.03148E+04 -4.63375E+04 -1.79501E+04 -2.57456E+04 -4.07539E+04
  6.72404E+03 -4.03796E+04  3.36833E+04 -1.60862E+04  3.17418E+04  1.18517E+04  4.61238E+03  2.01569E+04
 -1.38297E+04  8.77033E+03 -1.12849E+04 -7.92761E+03  6.21095E+03 -1.11741E+04  1.85201E+04  5.63147E+03
  1.46904E+04  2.31726E+04 -5.30797E+03  2.67932E+04 -2.33497E+04  1.37122E+04 -3.06630E+04 -3.39334E+03
 -2.42112E+04 -1.80659E+04 -1.07001E+04 -2.39511E+04  4.83208E+03 -2.40897E+04  1.89107E+04 -2.13494E+04
  3.10597E+04 -1.36933E+04  3.64403E+04  3.87651E+03  2.58596E+04  2.31229E+04  4.10454E+03  4.03660E+04
 -1.88649E+04  3.28545E+04 -2.94129E+04  1.07083E+04 -2.19469E+04 -9.85455E+03 -5.35514E+03 -1.31334E+04
  6.83119E+02 -1.44706E+03 -6.42397E+03  7.75217E+03 -1.87758E+04  4.77035E+03 -1.94864E+04 -8.84975E+03
 -1.02875E+04 -2.18614E+04  5.98270E+03 -2.60940E+04  1.77615E+04 -1.89100E+04  2.14542E+04 -1.22750E+03
  1.30738E+04  1.51492E+04 -1.69746E+03  2.20340E+04 -1.56643E+04  1.29002E+04 -2.28479E+04 -4.37104E+03
 -1.62892E+04 -2.00309E+04 -1.74014E+03 -2.60419E+04  1.24091E+04 -2.13348E+04  2.16685E+04 -1.20688E+04
  2.06651E+04  1.63779E+02  1.49969E+04  5.07245E+03  7.24324E+03  1.86907E+03  1.07373E+04 -1.76041E+03
  2.04147E+04  2.36256E+03  2.34205E+04  1.71646E+04  1.59263E+04  3.49272E+04 -2.79630E+03  4.09560E+04
 -2.38067E+04  3.47172E+04 -3.77718E+04  1.66752E+04 -4.17140E+04 -3.84806E+03 -3.37674E+04 -2.44602E+04
 -1.29782E+04 -3.38477E+04  1.16209E+04 -3.05973E+04  2.59145E+04 -1.48788E+04  2.24681E+04  7.77182E+03
  7.45766E+03  1.74998E+04 -1.00705E+04  1.45790E+04 -1.86532E+04  3.14704E+03 -1.42485E+04 -1.17778E+04
  1.19016E+02 -1.80335E+04  8.43245E+03 -1.43377E+04  1.29125E+04 -1.06008E+03  3.05351E+03  8.56507E+03
 -8.09221E+03  3.80521E+03 -8.53628E+03 -6.57445E+03 -9.88786E+02 -1.68903E+04  1.11921E+04 -1.81456E+04
  2.12302E+04 -9.91923E+03  2.38043E+04  3.48975E+03  2.02351E+04  1.62840E+04  1.00827E+04  2.66932E+04
 -4.45043E+03  2.78960E+04 -1.77180E+04  1.69344E+04 -1.95304E+04  3.69647E+03 -1.35520E+04 -5.59464E+03
 -5.76140E+03 -6.26584E+03 -6.31566E+02  5.79068E+01 -2.65200E+03  2.58751E+03 -6.71450E+03  5.00009E+03
 -1.28690E+04 -7.29784E+02 -1.30060E+04 -1.06636E+04 -5.36423E+03 -1.83198E+04  5.94125E+03 -1.34564E+04
  1.12724E+04 -5.70240E+03  8.13317E+03  3.41558E+03 -3.12644E+02  5.66100E+03 -6.99102E+03 -8.11535E+02
 -6.81995E+03 -9.46731E+03 -1.53819E+03 -1.38420E+04  8.23196E+03 -1.47206E+04  1.81050E+04 -8.19231E+03
  2.08955E+04  1.96693E+03  1.57598E+04  1.23336E+04  2.19940E+03  1.69877E+04 -8.40193E+03  1.42619E+04
 -1.20109E+04  4.48846E+03 -6.03036E+03 -2.78201E+03  2.12860E+03 -4.01141E+03  7.03134E+03 -9.20521E+02
  6.62333E+03  6.12832E+03  2.19393E+03  1.09679E+04 -9.08801E+03  1.11113E+04 -1.37606E+04  1.52745E+03
 -1.03077E+04 -7.44356E+03  1.53189E+02 -1.18552E+04  7.92870E+03 -6.21345E+03  8.71145E+03  2.63222E+03
  1.59671E+03  8.50490E+03 -7.62628E+03  1.02669E+04 -1.18691E+04  4.67678E+03 -1.25171E+04 -4.35062E+03
 -5.77079E+03 -1.39924E+04  2.85202E+03 -1.54567E+04  1.28462E+04 -1.00066E+04  1.48408E+04  2.38750E+03
  8.91111E+03  1.16559E+04 -7.28452E+02  1.41966E+04 -1.00683E+04  7.00143E+03 -1.13155E+04 -1.21653E+03
 -9.60253E+03 -9.54308E+03 -8.64572E+02 -1.06005E+04  5.53327E+03 -9.09540E+03  7.05875E+03 -3.56390E+03
  4.23191E+03  1.32529E+03 -7.77132E+02  1.10706E+03  5.61836E+01 -2.73269E+03  2.07087E+03 -6.63606E+03
  9.69062E+03 -3.06240E+03  1.38077E+04  1.41493E+03  1.34463E+04  8.77401E+03  9.64052E+03  1.76482E+04
 -4.44564E+03  2.04748E+04 -1.70961E+04  1.58020E+04 -2.17155E+04  2.68118E+03 -1.78770E+04 -7.83882E+03
 -9.50314E+03 -1.46629E+04 -7.37885E+02 -1.20422E+04  4.51949E+03 -6.98555E+03  3.95504E+03 -5.08736E+03
  3.53579E+03 -3.03548E+03  3.85483E+03 -3.55387E+03  5.22699E+03 -3.19174E+03  6.87925E+03 -8.62869E+02
  8.90381E+03  2.14504E+03  5.18220E+03  7.34147E+03 -2.27526E+03  8.84603E+03 -9.88751E+03  6.94521E+03
 -1.21783E+04 -1.49190E+03 -7.14198E+03 -8.32218E+03 -1.32601E+03 -1.30552E+04  7.52968E+03 -1.37030E+04
  1.30597E+04 -7.72274E+03  1.61777E+04  1.85425E+03  1.13051E+04  1.13374E+04  1.90577E+03  1.44241E+04
 -7.10424E+03  1.23448E+04 -8.50498E+03  4.60551E+03 -6.32400E+03 -1.59549E+03 -2.07968E+03 -1.67314E+03
 -1.57270E+03  3.09086E+02 -1.22622E+03  2.69321E+03 -5.16723E+03  1.77954E+03 -8.29843E+03 -1.42047E+03
 -5.63912E+03 -8.83785E+03 -1.00099E+03 -1.18914E+04  7.25066E+03 -1.08820E+04  1.22564E+04 -3.75989E+03
  1.22264E+04  5.58102E+03  6.19042E+03  1.07694E+04 -2.56699E+03  1.21743E+04 -8.64117E+03  7.31596E+03
 -1.18256E+04  2.79818E+02 -9.32488E+03 -7.75158E+03 -9.13522E+02 -9.47051E+03  5.09833E+03 -7.14413E+03
  7.63280E+03 -2.44247E+03  5.65376E+03  2.36725E+03  1.63903E+03  3.43623E+03  1.25717E+03  1.49498E+03
  3.04718E+03  9.80716E+02  3.57936E+03  1.83117E+03  2.78944E+03  4.80013E+03  3.88331E+03  6.98400E+03
 -2.39503E+03  1.03926E+04 -8.47641E+03  9.21067E+03 -1.25524E+04  2.36802E+03 -1.29480E+04 -4.99946E+03
 -5.99403E+03 -1.23898E+04  2.06856E+03 -1.35745E+04  7.51870E+03 -8.48094E+03  9.72991E+03 -3.03110E+03
  7.90712E+03  4.79738E+03  1.01521E+03  7.32419E+03 -2.69981E+03  4.90171E+03 -4.79300E+03 -1.02493E+03
 -2.57887E+03 -5.63422E+03  2.83800E+03 -5.48131E+03  4.87788E+03 -2.04597E+03  4.45465E+03  1.15848E+03
  2.80469E+03  2.16682E+03  1.03276E+03  1.19095E+03 -3.11730E+02  1.82590E+03  1.86254E+03  1.77839E+02
  1.22972E+03 -8.55889E+02  4.36273E+03  2.22961E+03  3.48010E+03  6.58872E+03 -5.80179E+02  8.70810E+03
 -5.43155E+03  5.16620E+03 -7.95450E+03  1.57938E+03 -6.69004E+03 -2.40588E+03 -2.39220E+03 -5.35454E+03
  7.55459E+02 -4.22758E+03  2.77323E+03 -2.42937E+03  2.72640E+03  2.65437E+03 -9.31187E+02  3.88822E+03
 -5.07979E+03  2.14105E+03 -5.44007E+03 -1.91512E+03 -2.71618E+03 -6.46832E+03  9.69174E+02 -6.55413E+03
  3.24692E+03 -3.49469E+03  5.06104E+03 -9.35792E+02  4.52542E+03  1.37873E+03  9.78432E+02  3.31948E+03
 -2.07512E+03  1.04462E+03 -2.60711E+03 -2.25324E+03  7.77711E+02 -4.54158E+03  5.76446E+03 -4.29170E+03
  6.74240E+03  2.58257E+02  7.96066E+03  4.60162E+03  2.55566E+03  8.12554E+03 -2.99743E+03  6.95051E+03
 -6.24373E+03  3.01934E+03 -6.30393E+03 -9.69997E+02 -3.98856E+03 -5.55850E+03  1.28259E+03 -3.79730E+03
  4.88164E+03 -2.62326E+03  4.29025E+03  2.00229E+03  1.42498E+03  4.66501E+03 -5.25187E+02  4.00226E+03
 -2.22433E+03  2.02709E+03 -1.95159E+03  8.14462E+02 -3.20684E+02  9.33866E+02 -1.02120E+03  1.48658E+03
 -2.80293E+03  3.20053E+03 -5.61575E+03  2.13639E+03 -6.71893E+03 -3.12624E+02 -8.61928E+03 -4.60163E+03
 -4.68550E+03 -9.95388E+03  2.04808E+03 -1.17010E+04  7.02847E+03 -9.59961E+03  1.06516E+04 -3.46041E+03
  1.04061E+04  1.94988E+03  6.23212E+03  6.89759E+03  6.70275E+02  7.69936E+03 -3.27315E+03  5.43215E+03
 -4.10190E+03  1.48126E+03 -2.68470E+03 -2.15240E+02 -9.73833E+02 -7.91948E+02 -4.84999E+02  1.93710E+02
 -2.28472E+03  7.62416E+02 -1.42071E+03 -2.34869E+02 -2.73908E+02 -2.22408E+03 -4.77395E+02 -2.51295E+03
  3.30181E+03 -2.25823E+03  4.52361E+03 -3.02725E+02  5.41396E+03  3.71313E+03  9.95898E+02  7.85274E+03
 -4.23552E+03  8.65684E+03 -7.69551E+03  4.84810E+03 -8.99717E+03 -1.36286E+03 -6.83678E+03 -5.47223E+03
 -3.46363E+03 -7.67234E+03  1.43599E+03 -6.82434E+03  4.91500E+03 -4.03326E+03  5.63862E+03  6.42215E+02
  2.15196E+03  2.92948E+03 -3.01425E+02  2.19739E+03 -1.09851E+03  2.82507E+02  3.68302E+02 -7.17043E+02
  1.89680E+03 -1.21012E+03  3.62644E+03  1.35589E+03  2.04749E+03  3.11461E+03  6.25081E+02  3.84631E+03
 -3.23394E+03  3.61406E+03 -5.03632E+03 -8.86213E+01 -4.42241E+03 -2.65399E+03 -9.51808E+02 -6.01345E+03
  3.87348E+03 -5.12696E+03  5.43176E+03 -5.78038E+02  5.27196E+03  1.24760E+03  3.70007E+03  4.18535E+03
  8.02708E+02  4.48332E+03 -1.16804E+03  3.63617E+03 -2.99547E+03  2.45938E+03 -2.01034E+03  6.39507E+02
 -1.18186E+03 -2.26115E+01 -8.89391E+02  4.94470E+02 -2.68478E+03  7.20386E+02 -3.92312E+03 -7.38771E+02
 -3.48394E+03 -1.84857E+03 -1.30348E+03 -4.96218E+03  1.84105E+03 -4.85569E+03  4.48846E+03 -2.24812E+03
  4.81581E+03  3.61471E+02  1.76948E+03  3.21328E+03 -4.55518E+02  4.93820E+03 -3.74669E+03  3.26581E+03
