 $NMID ID='MM_0lb_SNR400_12hz_g40_73.RAW', FMTDAT='(8E13.5)'
 TRAMP=1., VOLUME=1. $END
  3.09837E+05  3.09038E+02  3.38031E+05  2.50151E+05  8.46474E+04  3.37572E+05 -1.32581E+05  2.51280E+05
 -1.90012E+05  8.36315E+04 -1.11172E+05 -3.30644E+04  1.46889E+02 -5.06202E+04  5.43227E+04 -2.00570E+02
  3.54362E+04  5.34396E+04 -1.63316E+04  7.58252E+04 -6.03487E+04  6.36384E+04 -8.39751E+04  3.21150E+04
 -8.15256E+04 -1.13390E+04 -5.68077E+04 -5.10476E+04 -1.46704E+04 -7.02650E+04  2.72989E+04 -4.64116E+04
  4.06053E+04  3.34424E+03  1.57648E+04  4.78740E+04 -3.45892E+04  4.78999E+04 -6.65261E+04 -1.63691E+02
 -5.35753E+04 -5.70023E+04 -6.25952E+03 -7.77635E+04  3.47045E+04 -5.51435E+04  4.88263E+04 -1.72276E+04
  4.34872E+04  1.21593E+04  3.17867E+04  2.60100E+04  1.55649E+04  2.98122E+04 -5.59200E+03  2.72664E+04
 -2.19802E+04  1.20945E+04 -1.88489E+04 -5.11174E+03  5.57156E+03 -8.00490E+03  2.28506E+04  1.25692E+04
  7.25370E+03  3.56459E+04 -3.24896E+04  3.59817E+04 -6.42860E+04  2.35690E+03 -5.74073E+04 -4.31426E+04
 -1.22693E+04 -6.41462E+04  3.96665E+04 -4.56571E+04  5.87681E+04 -2.64848E+03  3.41994E+04  3.25364E+04
 -6.31009E+03  3.65754E+04 -3.05270E+04  1.70165E+04 -3.06432E+04 -4.78384E+03 -1.70104E+04 -1.12449E+04
 -9.07698E+03 -1.36623E+04  2.02440E+02 -1.83624E+04  7.64555E+03 -2.26434E+04  1.55980E+04 -1.39029E+04
  1.12294E+04  5.38730E+03 -8.98244E+03  1.30254E+04 -2.19203E+04 -5.06114E+03 -8.45124E+03 -3.44162E+04
  2.35855E+04 -4.38963E+04  4.87776E+04 -2.02188E+04  4.54615E+04  1.96788E+04  1.55712E+04  4.48924E+04
 -1.63726E+04  3.37075E+04 -2.59186E+04  2.27754E+03 -1.01950E+04 -2.81901E+04  2.12709E+04 -3.43900E+04
  4.13256E+04 -9.39381E+03  3.60876E+04  2.37961E+04  1.83126E+04  4.77233E+04 -7.93630E+03  5.06110E+04
 -3.22093E+04  3.45218E+04 -4.34117E+04  9.68285E+03 -4.35407E+04 -1.72287E+04 -2.39868E+04 -3.85304E+04
  7.76829E+03 -3.85833E+04  3.20275E+04 -1.59153E+04  2.96259E+04  1.10733E+04  4.08962E+03  1.97480E+04
 -1.38437E+04  8.66818E+03 -1.06183E+04 -8.10477E+03  5.80605E+03 -1.06792E+04  1.84127E+04  6.18126E+03
  1.42965E+04  2.21198E+04 -5.71103E+03  2.47487E+04 -2.17354E+04  1.25975E+04 -2.82125E+04 -4.52534E+03
 -2.16361E+04 -1.77685E+04 -8.80286E+03 -2.14427E+04  3.37195E+03 -2.17734E+04  1.67392E+04 -1.91895E+04
  2.69442E+04 -1.28729E+04  3.37230E+04  3.07904E+03  2.48392E+04  2.06250E+04  3.97970E+03  3.71752E+04
 -1.85917E+04  3.08199E+04 -2.86434E+04  1.08593E+04 -2.08323E+04 -1.02796E+04 -4.97842E+03 -1.28363E+04
  1.52506E+03 -3.27683E+03 -5.31736E+03  7.04387E+03 -1.72072E+04  5.04996E+03 -1.66698E+04 -7.93509E+03
 -1.04195E+04 -2.04342E+04  6.01839E+03 -2.42016E+04  1.60784E+04 -1.75289E+04  1.89280E+04 -8.75770E+02
  1.22796E+04  1.33179E+04 -1.28889E+03  1.96576E+04 -1.34805E+04  1.12333E+04 -2.01631E+04 -4.44161E+03
 -1.45435E+04 -1.72721E+04 -2.03358E+03 -2.36264E+04  1.08820E+04 -2.01298E+04  2.05650E+04 -9.32527E+03
  1.87014E+04 -2.08018E+02  1.30122E+04  4.52243E+03  6.67899E+03  1.63540E+03  1.02448E+04 -1.79187E+03
  1.82141E+04  2.76665E+03  2.04310E+04  1.57467E+04  1.41170E+04  3.14234E+04 -2.67522E+03  3.67926E+04
 -2.04409E+04  2.99963E+04 -3.43072E+04  1.51341E+04 -3.59369E+04 -3.25841E+03 -2.93497E+04 -2.04605E+04
 -1.22462E+04 -2.92005E+04  1.03089E+04 -2.62438E+04  2.27541E+04 -1.36519E+04  2.06357E+04  5.27619E+03
  7.56900E+03  1.61130E+04 -9.16921E+03  1.31140E+04 -1.71446E+04  2.58420E+03 -1.32559E+04 -1.06688E+04
  1.62159E+02 -1.61252E+04  8.20539E+03 -1.24694E+04  1.10956E+04 -1.85913E+03  2.58402E+03  6.98534E+03
 -7.35157E+03  3.28172E+03 -6.74302E+03 -6.38850E+03 -3.01296E+02 -1.47851E+04  1.00368E+04 -1.45643E+04
  1.82488E+04 -8.24402E+03  2.01237E+04  3.16501E+03  1.72826E+04  1.38222E+04  8.19959E+03  2.26098E+04
 -3.89254E+03  2.44046E+04 -1.50148E+04  1.44747E+04 -1.73504E+04  3.33412E+03 -1.15572E+04 -4.19298E+03
 -6.02278E+03 -5.70954E+03 -9.75885E+02  8.58485E+02 -2.42001E+03  3.24485E+03 -6.45426E+03  4.97686E+03
 -1.16784E+04 -6.29882E+02 -1.23004E+04 -1.01221E+04 -4.47003E+03 -1.58177E+04  5.73012E+03 -1.21241E+04
  1.02414E+04 -5.11956E+03  6.58141E+03  3.21077E+03 -1.70719E+02  3.64768E+03 -6.29743E+03 -5.57283E+02
 -5.44579E+03 -8.28366E+03 -1.07217E+03 -1.13168E+04  6.64820E+03 -1.24207E+04  1.51135E+04 -6.34246E+03
  1.82168E+04  1.83139E+03  1.38507E+04  1.06307E+04  2.64604E+03  1.37441E+04 -7.56599E+03  1.20640E+04
 -9.82263E+03  3.83352E+03 -4.88526E+03 -1.65334E+03  2.17308E+03 -3.44826E+03  6.62854E+03 -9.05083E+02
  5.65532E+03  5.31398E+03  1.53063E+03  9.88984E+03 -6.80422E+03  1.03467E+04 -1.25632E+04  2.34414E+03
 -7.86624E+03 -5.70885E+03  2.51831E+02 -1.04590E+04  6.43483E+03 -5.17655E+03  6.48880E+03  2.51327E+03
  2.28558E+03  6.88789E+03 -6.81727E+03  8.17542E+03 -9.78213E+03  3.99776E+03 -9.45254E+03 -3.51284E+03
 -5.97232E+03 -1.08103E+04  3.19108E+03 -1.27775E+04  1.08014E+04 -7.64725E+03  1.17485E+04  2.18970E+03
  7.37414E+03  9.05098E+03 -8.08271E+02  1.14117E+04 -8.71283E+03  6.17921E+03 -9.72813E+03 -9.67527E+02
 -7.25459E+03 -7.93366E+03 -1.52879E+03 -8.71342E+03  4.69762E+03 -7.07859E+03  5.95702E+03 -2.44432E+03
  3.72668E+03  1.06607E+03 -5.16755E+02  2.47658E+03 -4.02534E+02 -1.73968E+03  1.15347E+03 -5.02145E+03
  7.87844E+03 -3.44934E+03  1.06803E+04  1.62551E+03  1.05900E+04  6.94603E+03  7.66135E+03  1.44313E+04
 -3.79781E+03  1.68655E+04 -1.36201E+04  1.29607E+04 -1.83638E+04  2.68751E+03 -1.45111E+04 -6.40682E+03
 -7.63737E+03 -1.22325E+04 -3.49043E+02 -1.01425E+04  4.14678E+03 -5.47734E+03  3.02759E+03 -4.02610E+03
  2.53831E+03 -2.81863E+03  3.05474E+03 -3.73509E+03  4.44058E+03 -2.06287E+03  5.89400E+03 -6.10278E+02
  7.88279E+03  2.08038E+03  3.83372E+03  6.74330E+03 -2.86214E+03  7.44860E+03 -8.05177E+03  5.80643E+03
 -9.90364E+03 -1.61826E+03 -5.84608E+03 -6.55765E+03 -1.05432E+03 -1.04948E+04  6.67672E+03 -1.10539E+04
  1.04784E+04 -5.82339E+03  1.32107E+04  1.98512E+03  9.01832E+03  9.57479E+03  1.58511E+03  1.23224E+04
 -4.70457E+03  1.04826E+04 -6.97407E+03  3.01669E+03 -4.43965E+03 -1.23978E+03 -1.88862E+03 -9.54785E+02
 -7.50558E+02  5.15413E+02 -1.10978E+03  2.43616E+03 -4.40857E+03  1.82364E+03 -7.58412E+03 -1.29796E+03
 -4.05447E+03 -7.47226E+03  2.99668E+02 -1.01987E+04  6.08070E+03 -9.72400E+03  9.63737E+03 -2.42929E+03
  9.64879E+03  5.20152E+03  4.62774E+03  7.82227E+03 -1.87747E+03  9.23635E+03 -7.29017E+03  5.40486E+03
 -8.57548E+03  2.79216E+02 -7.35593E+03 -5.73825E+03  1.39109E+02 -7.82205E+03  3.73581E+03 -6.38279E+03
  6.07386E+03 -2.06168E+03  4.36608E+03  1.11990E+03  1.02603E+03  2.95839E+03  1.04636E+03  1.20912E+03
  2.34885E+03  6.96662E+02  2.06532E+03  1.27075E+03  2.31752E+03  3.08679E+03  3.10498E+03  5.49770E+03
 -2.36971E+03  8.41382E+03 -6.54157E+03  7.80643E+03 -9.20132E+03  1.56587E+03 -9.77979E+03 -3.04830E+03
 -4.40375E+03 -8.67454E+03  1.52411E+03 -1.08737E+04  5.26344E+03 -5.96350E+03  8.13531E+03 -1.98376E+03
  6.17054E+03  3.65208E+03  1.11044E+03  4.66766E+03 -3.07897E+03  3.56797E+03 -3.27972E+03 -7.38275E+02
 -9.36289E+02 -4.22123E+03  2.16043E+03 -3.75554E+03  3.80416E+03 -1.63374E+03  2.96105E+03  1.58309E+03
  2.31742E+03  1.80551E+03  7.78789E+02  1.35088E+03 -7.31176E+01  1.07342E+03  1.61787E+03 -4.41018E+02
  1.23803E+03 -5.54968E+02  3.56783E+03  8.54595E+02  1.47936E+03  5.28067E+03 -4.75912E+02  6.92082E+03
 -4.27420E+03  3.73807E+03 -5.75561E+03  1.52805E+03 -5.08645E+03 -2.22311E+03 -2.15049E+03 -3.69949E+03
  3.32999E+02 -3.78235E+03  2.95563E+03 -1.42715E+03  1.48812E+03  1.69055E+03 -1.06090E+03  3.36907E+03
 -3.35627E+03  2.20258E+03 -2.99801E+03 -2.76376E+03 -2.80226E+03 -5.58765E+03 -2.04428E+02 -5.29774E+03
  2.50812E+03 -2.97704E+03  3.65185E+03  4.00775E+02  3.06963E+03  1.72155E+03  1.29519E+02  2.85903E+03
 -2.08010E+03  4.61821E+02 -2.39491E+03 -1.70730E+03  1.46980E+03 -3.57905E+03  4.16607E+03 -2.93027E+03
  5.09450E+03  4.54051E+02  6.27767E+03  2.80975E+03  2.45011E+03  5.25477E+03 -1.76989E+03  5.45136E+03
 -4.67077E+03  2.37008E+03 -4.83390E+03 -8.02646E+02 -2.26126E+03 -3.92566E+03  4.54685E+02 -3.24612E+03
  3.81263E+03 -1.99932E+03  3.22075E+03  2.10504E+03  1.14968E+03  3.88930E+03 -4.24381E+02  3.33568E+03
 -1.79167E+03  2.41431E+03 -1.38018E+03  6.12779E+02 -6.63610E+01  1.22763E+03 -1.31212E+03  1.41004E+03
 -1.38669E+03  1.95307E+03 -3.91332E+03  2.40637E+03 -5.96776E+03  7.33863E+01 -6.66685E+03 -3.63622E+03
 -3.55335E+03 -8.32021E+03  2.32321E+03 -8.77399E+03  5.13043E+03 -7.76051E+03  8.24739E+03 -2.90236E+03
  7.23508E+03  1.40046E+03  4.38189E+03  5.29362E+03  6.72402E+01  5.65896E+03 -2.41921E+03  4.14412E+03
 -3.11224E+03  1.77069E+03 -1.51370E+03 -8.26435E+02 -1.56731E+03  4.44378E+01 -9.52732E+02 -3.19036E+02
 -1.41366E+03  5.97027E+02 -1.89706E+03  2.64345E+01 -3.16654E+01 -1.59481E+03  1.84172E+01 -2.27487E+03
  2.96138E+03 -1.57551E+03  3.14671E+03  6.13662E+02  4.56282E+03  3.30616E+03  8.15079E+02  5.64442E+03
 -2.88645E+03  7.40250E+03 -6.11111E+03  3.93947E+03 -6.40156E+03 -1.57564E+02 -5.31820E+03 -4.01489E+03
 -3.27838E+03 -5.99120E+03  6.72281E+02 -5.66842E+03  3.06927E+03 -2.99353E+03  3.42270E+03  9.67825E+01
  1.88454E+03  1.81228E+03  1.04520E+00  1.38080E+03 -1.22474E+03  6.58304E+02 -7.54924E+01 -1.78103E+03
  1.11130E+03 -2.86512E+02  2.25496E+03  4.48789E+02  8.76252E+02  2.05738E+03 -4.90509E+02  2.87849E+03
 -2.39217E+03  2.58975E+03 -3.14702E+03  1.81624E+02 -3.39740E+03 -2.47874E+03 -1.96709E+02 -4.83065E+03
  2.67659E+03 -3.71891E+03  4.28779E+03 -1.39470E+03  4.09816E+03  8.86598E+02  2.35797E+03  2.78608E+03
  7.19689E+02  3.60652E+03 -2.37465E+03  3.47773E+03 -2.25776E+03  1.90998E+03 -2.20308E+03  2.77832E+02
 -6.70989E+02 -1.36948E+01 -1.03652E+03  4.33687E+02 -1.86505E+03  4.11169E+02 -2.92963E+03 -5.19355E+02
 -2.70147E+03 -1.60845E+03 -6.71672E+02 -3.91686E+03  1.70694E+03 -3.83694E+03  2.96384E+03 -1.98437E+03
  2.87814E+03  5.95109E+02  8.90580E+02  2.85155E+03  2.94545E+02  3.66363E+03 -2.37078E+03  2.54365E+03
