 $NMID ID='MM_0lb_SNR400_12hz_g40_51.RAW', FMTDAT='(8E13.5)'
 TRAMP=1., VOLUME=1. $END
  3.09834E+05  4.83646E+02  3.37459E+05  2.49814E+05  8.46578E+04  3.37750E+05 -1.32304E+05  2.51509E+05
 -1.90088E+05  8.22007E+04 -1.11608E+05 -3.29417E+04  4.59612E+02 -5.08808E+04  5.38822E+04 -1.13002E+02
  3.55026E+04  5.27384E+04 -1.71062E+04  7.47635E+04 -6.07921E+04  6.37346E+04 -8.46403E+04  3.24546E+04
 -8.15306E+04 -1.12074E+04 -5.77930E+04 -5.12039E+04 -1.52278E+04 -6.99768E+04  2.78921E+04 -4.60874E+04
  4.03711E+04  3.95037E+03  1.63364E+04  4.77981E+04 -3.42754E+04  4.73039E+04 -6.74453E+04  3.81646E+02
 -5.43057E+04 -5.74777E+04 -7.46953E+03 -7.68348E+04  3.40336E+04 -5.55187E+04  4.84878E+04 -1.70349E+04
  4.35737E+04  1.12640E+04  3.21452E+04  2.55614E+04  1.53547E+04  2.91152E+04 -4.83499E+03  2.71131E+04
 -2.26775E+04  1.16762E+04 -1.81284E+04 -5.46301E+03  6.53359E+03 -6.79462E+03  2.26775E+04  1.19291E+04
  6.55864E+03  3.60652E+04 -3.20564E+04  3.52168E+04 -6.37784E+04  1.92147E+03 -5.74755E+04 -4.30469E+04
 -1.25000E+04 -6.31968E+04  3.98568E+04 -4.63267E+04  5.82948E+04 -1.95940E+03  3.44374E+04  3.22135E+04
 -5.20677E+03  3.62712E+04 -3.05446E+04  1.58375E+04 -3.10726E+04 -5.28479E+03 -1.68858E+04 -1.11934E+04
 -8.55459E+03 -1.39587E+04 -5.73850E+02 -1.87054E+04  7.40175E+03 -2.31629E+04  1.55106E+04 -1.32940E+04
  1.13043E+04  5.50684E+03 -8.37278E+03  1.31721E+04 -2.15962E+04 -4.82234E+03 -8.87417E+03 -3.46596E+04
  2.26984E+04 -4.47261E+04  4.88786E+04 -1.97037E+04  4.56078E+04  1.93933E+04  1.59172E+04  4.37961E+04
 -1.64814E+04  3.34254E+04 -2.62531E+04  1.31917E+03 -9.56428E+03 -2.82685E+04  2.14173E+04 -3.44079E+04
  4.12323E+04 -9.31927E+03  3.61882E+04  2.42809E+04  1.78037E+04  4.79525E+04 -8.54760E+03  5.13914E+04
 -3.21879E+04  3.37880E+04 -4.32626E+04  9.66730E+03 -4.42957E+04 -1.72309E+04 -2.43905E+04 -3.80303E+04
  7.13593E+03 -3.82746E+04  3.26224E+04 -1.52581E+04  3.01019E+04  1.09597E+04  4.68486E+03  1.90441E+04
 -1.35114E+04  9.30008E+03 -1.05397E+04 -7.58863E+03  5.10497E+03 -1.08106E+04  1.80046E+04  5.77620E+03
  1.31163E+04  2.20075E+04 -6.12793E+03  2.51920E+04 -2.25438E+04  1.27024E+04 -2.82460E+04 -4.65413E+03
 -2.08546E+04 -1.75172E+04 -8.62994E+03 -2.15081E+04  3.50807E+03 -2.08423E+04  1.67582E+04 -1.94124E+04
  2.74346E+04 -1.28110E+04  3.35358E+04  3.08150E+03  2.45645E+04  2.03816E+04  4.57851E+03  3.77687E+04
 -1.77712E+04  3.16968E+04 -2.87400E+04  1.06665E+04 -2.08802E+04 -9.92020E+03 -4.19397E+03 -1.35314E+04
  1.54884E+03 -2.69347E+03 -5.61644E+03  7.30002E+03 -1.66802E+04  4.95583E+03 -1.74757E+04 -7.33299E+03
 -1.09410E+04 -2.01025E+04  5.25138E+03 -2.41620E+04  1.59335E+04 -1.64427E+04  1.92057E+04 -1.55136E+03
  1.16890E+04  1.28284E+04 -7.80524E+02  1.99400E+04 -1.39393E+04  1.12588E+04 -1.93976E+04 -4.64529E+03
 -1.47130E+04 -1.75207E+04 -2.08622E+03 -2.37012E+04  1.08526E+04 -1.96096E+04  1.96941E+04 -1.04595E+04
  1.88050E+04 -5.95636E+01  1.32009E+04  4.58296E+03  7.50148E+03  1.31592E+03  1.07221E+04 -1.72300E+03
  1.79032E+04  2.60437E+03  2.06058E+04  1.60092E+04  1.39154E+04  3.19303E+04 -3.05503E+03  3.68855E+04
 -2.01482E+04  2.94955E+04 -3.33879E+04  1.49426E+04 -3.61937E+04 -2.37540E+03 -2.97613E+04 -2.06644E+04
 -1.22029E+04 -2.98537E+04  1.00190E+04 -2.62008E+04  2.28522E+04 -1.33735E+04  2.00078E+04  5.89032E+03
  7.48131E+03  1.51816E+04 -9.59638E+03  1.38172E+04 -1.71811E+04  2.44040E+03 -1.30697E+04 -1.05682E+04
 -6.06757E+01 -1.53280E+04  8.54023E+03 -1.16422E+04  1.07153E+04 -1.57308E+03  1.48624E+03  6.58130E+03
 -7.42817E+03  2.63708E+03 -6.22525E+03 -6.24036E+03 -9.93278E+02 -1.53913E+04  1.01508E+04 -1.59389E+04
  1.79738E+04 -8.19025E+03  2.03005E+04  3.19507E+03  1.76353E+04  1.42878E+04  7.31853E+03  2.21162E+04
 -3.03224E+03  2.49286E+04 -1.58370E+04  1.50891E+04 -1.75263E+04  3.99348E+03 -1.18689E+04 -3.83266E+03
 -5.52569E+03 -5.71253E+03 -4.02211E+02  1.27845E+03 -2.81993E+03  2.57582E+03 -5.39360E+03  5.10393E+03
 -1.17329E+04 -2.78274E+02 -1.19764E+04 -9.72365E+03 -3.96676E+03 -1.55274E+04  4.96328E+03 -1.20024E+04
  1.05125E+04 -5.87607E+03  6.75763E+03  3.25975E+03  8.17669E+01  4.35162E+03 -5.56021E+03  9.76650E+01
 -5.96962E+03 -7.45592E+03 -1.01984E+03 -1.17313E+04  6.63354E+03 -1.25705E+04  1.52291E+04 -7.01061E+03
  1.82694E+04  1.82619E+03  1.34385E+04  1.03188E+04  2.80044E+03  1.40319E+04 -7.76723E+03  1.20523E+04
 -1.05310E+04  3.21449E+03 -4.11964E+03 -2.57995E+03  1.39947E+03 -3.24361E+03  6.42882E+03 -9.86519E+02
  6.06189E+03  5.34543E+03  9.83751E+02  1.01262E+04 -7.91727E+03  9.35843E+03 -1.15274E+04  1.86014E+03
 -8.40915E+03 -6.55438E+03  5.21637E+02 -9.67776E+03  6.59965E+03 -5.51156E+03  6.24057E+03  2.77185E+03
  1.23485E+03  6.57044E+03 -6.40607E+03  8.38811E+03 -9.40029E+03  4.09017E+03 -1.01078E+04 -4.17679E+03
 -6.14715E+03 -1.07143E+04  2.27908E+03 -1.26695E+04  1.09354E+04 -8.14445E+03  1.13017E+04  1.98540E+03
  7.30117E+03  1.04153E+04 -7.43860E+02  1.17518E+04 -8.40981E+03  6.83395E+03 -9.81352E+03 -8.72125E+02
 -8.73199E+03 -8.21738E+03 -1.34953E+03 -8.60746E+03  4.25169E+03 -7.10277E+03  5.72841E+03 -3.35532E+03
  4.27555E+03  1.22772E+03 -1.02944E+03  1.87830E+03  2.48571E+02 -2.04638E+03  1.10181E+03 -5.03084E+03
  7.84031E+03 -3.39592E+03  1.10186E+04  1.50340E+03  1.13236E+04  7.83020E+03  7.72362E+03  1.45158E+04
 -3.05213E+03  1.69767E+04 -1.38567E+04  1.20588E+04 -1.76932E+04  2.12346E+03 -1.43398E+04 -5.82227E+03
 -7.47209E+03 -1.22010E+04 -5.95724E+02 -1.01841E+04  3.39991E+03 -5.31565E+03  3.62703E+03 -3.90632E+03
  2.37751E+03 -2.23814E+03  3.05321E+03 -3.03089E+03  4.07908E+03 -2.69013E+03  5.05239E+03 -9.57913E+02
  6.91704E+03  2.38187E+03  4.12621E+03  7.02984E+03 -2.28431E+03  6.80703E+03 -8.33311E+03  6.45557E+03
 -1.05047E+04 -1.63503E+03 -5.61995E+03 -6.97740E+03 -8.20307E+02 -1.02404E+04  5.72497E+03 -1.14076E+04
  1.12415E+04 -5.98095E+03  1.31226E+04  1.56409E+03  9.68651E+03  8.76769E+03  1.36243E+03  1.24871E+04
 -4.18409E+03  9.63605E+03 -6.80338E+03  3.80482E+03 -5.01813E+03 -1.29049E+03 -2.55688E+03 -1.00597E+03
 -5.42044E+02  1.27490E+02 -1.49681E+03  2.49754E+03 -4.36414E+03  1.91160E+03 -7.04635E+03 -9.28449E+02
 -4.51993E+03 -6.65709E+03 -4.08635E+02 -9.53658E+03  6.05504E+03 -9.35911E+03  9.68010E+03 -2.78774E+03
  9.95902E+03  5.53256E+03  4.29851E+03  8.80981E+03 -1.43973E+03  9.78243E+03 -6.61743E+03  6.16558E+03
 -8.84172E+03  7.02110E+02 -7.54052E+03 -5.58627E+03 -9.57580E+02 -7.98929E+03  4.05395E+03 -5.72385E+03
  6.82152E+03 -2.02680E+03  3.57708E+03  1.09905E+03  9.53972E+02  2.77167E+03  1.30194E+03  1.35654E+03
  2.69108E+03  1.22175E+03  2.32738E+03  1.51995E+03  2.67026E+03  3.43933E+03  3.01822E+03  4.89556E+03
 -1.98354E+03  7.34106E+03 -6.35680E+03  8.40333E+03 -9.57604E+03  1.93613E+03 -1.06912E+04 -3.40069E+03
 -4.21152E+03 -9.27482E+03  5.09340E+02 -1.08528E+04  5.90614E+03 -6.97318E+03  6.57993E+03 -1.95265E+03
  5.83862E+03  3.33590E+03  1.83250E+03  5.02339E+03 -2.85459E+03  3.01850E+03 -2.60735E+03 -4.41409E+02
 -1.00131E+03 -3.43395E+03  2.56181E+03 -4.52460E+03  4.07896E+03 -1.92813E+03  4.28989E+03  1.02019E+03
  2.11920E+03  2.32356E+03  1.68810E+03  1.59555E+03 -4.09039E+02  1.80628E+03  2.18975E+03 -6.50606E+02
  1.32938E+03 -7.23500E+02  3.76056E+03  9.02468E+02  1.56224E+03  5.17102E+03 -7.73963E+02  6.33734E+03
 -4.90401E+03  3.99279E+03 -5.69459E+03  1.20006E+03 -4.76349E+03 -1.99477E+03 -2.03246E+03 -2.67783E+03
  7.87352E+02 -3.67455E+03  2.38590E+03 -1.66048E+03  1.91285E+03  2.07939E+03 -9.43349E+02  3.64447E+03
 -3.34367E+03  2.05738E+03 -4.17591E+03 -2.80216E+03 -3.01752E+03 -5.10998E+03  1.74749E+02 -4.94184E+03
  2.44761E+03 -2.46421E+03  3.68230E+03 -3.33485E+02  2.73852E+03  7.51210E+02  6.59288E+02  2.42941E+03
 -1.63117E+03  7.87921E+02 -3.19685E+03 -1.87308E+03  8.20843E+02 -3.80717E+03  4.74535E+03 -3.07781E+03
  5.56518E+03 -1.98168E+02  6.33133E+03  3.18763E+03  2.64238E+03  5.28036E+03 -1.24386E+03  5.14229E+03
 -5.31303E+03  1.51108E+03 -4.87411E+03 -1.06627E+03 -2.92672E+03 -4.00383E+03  6.93000E+02 -3.71628E+03
  4.00288E+03 -1.84076E+03  2.59993E+03  1.43421E+03  7.61127E+02  3.76960E+03 -4.52181E+02  2.76178E+03
 -9.76764E+02  1.80455E+03 -8.00772E+02  4.89479E+02 -5.64195E+02  4.15660E+02 -7.60081E+02  8.25808E+02
 -2.34098E+03  2.89501E+03 -4.52022E+03  2.03635E+03 -5.40539E+03  6.57175E+02 -6.30831E+03 -3.71500E+03
 -2.85840E+03 -7.37283E+03  1.51253E+03 -8.75145E+03  4.44320E+03 -7.50787E+03  8.97923E+03 -2.65288E+03
  8.43050E+03  1.00669E+03  4.99377E+03  4.70008E+03  6.11032E+02  4.99721E+03 -2.28016E+03  4.65654E+03
 -3.04032E+03  1.28275E+03 -2.26195E+03 -4.24582E+02 -2.66928E+02  1.16198E+00 -8.22365E+02  5.61564E+01
 -1.08122E+03  7.11081E+01 -1.29370E+03 -2.88438E+02 -7.22011E+02 -1.57642E+03 -5.97600E+02 -2.12953E+03
  3.26496E+03 -1.01309E+03  3.10014E+03  9.00111E+01  3.83581E+03  2.64441E+03  4.31074E+02  5.25750E+03
 -3.38281E+03  6.24026E+03 -5.60344E+03  3.64103E+03 -6.90513E+03 -9.09835E+02 -5.44692E+03 -5.17474E+03
 -2.78834E+03 -5.26660E+03  1.19366E+03 -4.91304E+03  3.69890E+03 -2.27625E+03  3.97825E+03  4.18412E+02
  2.10206E+03  1.81614E+03  1.67566E+02  2.23358E+03 -5.12453E+02 -2.11085E+01  3.09584E+02 -1.17768E+03
  1.91359E+03 -3.33245E+02  1.78369E+03  6.90426E+02  8.34657E+02  2.17927E+03 -3.06489E+02  2.59615E+03
 -2.74301E+03  2.25391E+03 -3.75342E+03  5.72560E+01 -3.46144E+03 -2.23047E+03 -4.88600E+02 -5.44448E+03
  2.91448E+03 -3.53557E+03  3.86540E+03 -3.37805E+02  3.08617E+03  5.31860E+02  2.11099E+03  3.67766E+03
  1.33843E+03  3.29411E+03 -1.82324E+03  2.47813E+03 -2.03726E+03  1.93261E+03 -1.84751E+03  1.11083E+03
 -1.47270E+03 -4.69413E+02 -6.26090E+02 -4.81555E+00 -2.47054E+03  2.68533E+02 -2.80871E+03 -2.45583E+02
 -2.62650E+03 -1.67485E+03 -7.03550E+02 -4.19128E+03  2.01558E+03 -4.41523E+03  2.80841E+03 -1.39443E+03
  3.73911E+03  7.66905E+02  1.17753E+03  2.47384E+03 -9.61757E+02  3.47202E+03 -2.18752E+03  2.36663E+03
