 $NMID ID='MM_0lb_SNR400_7hz_g50_22.RAW', FMTDAT='(8E13.5)'
 TRAMP=1., VOLUME=1. $END
  3.09837E+05 -1.49701E+02  3.37998E+05  2.51139E+05  8.55825E+04  3.38529E+05 -1.32071E+05  2.52007E+05
 -1.90533E+05  8.27577E+04 -1.13383E+05 -3.23872E+04 -8.78962E+02 -5.07792E+04  5.38336E+04  1.64953E+02
  3.58295E+04  5.33432E+04 -1.61456E+04  7.56527E+04 -6.09474E+04  6.47533E+04 -8.65201E+04  3.34819E+04
 -8.33532E+04 -1.20727E+04 -5.86134E+04 -5.31326E+04 -1.51694E+04 -7.17982E+04  2.84514E+04 -4.71747E+04
  4.18957E+04  3.61477E+03  1.69578E+04  4.90075E+04 -3.47001E+04  4.89352E+04 -6.91477E+04  9.83935E+02
 -5.53168E+04 -5.78665E+04 -7.06350E+03 -7.97786E+04  3.46975E+04 -5.76703E+04  5.07484E+04 -1.82389E+04
  4.63562E+04  1.18971E+04  3.35453E+04  2.67524E+04  1.52968E+04  3.11047E+04 -5.84170E+03  2.81070E+04
 -2.21674E+04  1.16493E+04 -1.84592E+04 -5.45496E+03  8.07808E+03 -7.75770E+03  2.35289E+04  1.35171E+04
  6.82070E+03  3.73918E+04 -3.49307E+04  3.68846E+04 -6.68017E+04  2.42635E+03 -5.89858E+04 -4.46454E+04
 -1.31402E+04 -6.72035E+04  4.23705E+04 -4.82157E+04  6.21417E+04 -2.44872E+03  3.87737E+04  3.54632E+04
 -5.52890E+03  4.06467E+04 -3.31965E+04  1.87631E+04 -3.47766E+04 -2.97479E+03 -2.06358E+04 -1.25294E+04
 -1.00616E+04 -1.55136E+04 -4.70062E+02 -2.02342E+04  9.44848E+03 -2.36454E+04  1.63211E+04 -1.29268E+04
  1.07267E+04  7.38425E+03 -1.09858E+04  1.29845E+04 -2.56845E+04 -7.14526E+03 -8.64491E+03 -3.90829E+04
  2.69502E+04 -4.90795E+04  5.45298E+04 -2.12949E+04  5.09015E+04  2.02788E+04  1.85123E+04  4.80317E+04
 -1.65744E+04  3.78558E+04 -2.80656E+04  3.54351E+03 -1.18904E+04 -3.02020E+04  2.19319E+04 -3.83821E+04
  4.52472E+04 -1.19204E+04  4.28705E+04  2.59835E+04  2.33736E+04  5.27036E+04 -8.23162E+03  5.81341E+04
 -3.64337E+04  4.05481E+04 -4.93094E+04  1.12286E+04 -4.90581E+04 -1.92257E+04 -2.63019E+04 -4.38916E+04
  7.85111E+03 -4.38205E+04  3.56053E+04 -1.86373E+04  3.33611E+04  1.09054E+04  5.39209E+03  2.15350E+04
 -1.41119E+04  9.98480E+03 -1.18242E+04 -7.83149E+03  4.77025E+03 -1.18617E+04  1.88078E+04  4.98527E+03
  1.50073E+04  2.32855E+04 -5.12936E+03  2.73773E+04 -2.35625E+04  1.51846E+04 -3.28110E+04 -1.73301E+03
 -2.85200E+04 -1.85517E+04 -1.18832E+04 -2.70655E+04  4.81244E+03 -2.87203E+04  2.16951E+04 -2.49284E+04
  3.46417E+04 -1.46482E+04  3.98185E+04  6.25827E+03  2.72431E+04  2.59009E+04  4.21303E+03  4.26791E+04
 -2.01433E+04  3.47060E+04 -3.14078E+04  1.27024E+04 -2.26067E+04 -1.09479E+04 -5.62134E+03 -1.26471E+04
  5.18134E+02 -1.62910E+01 -8.73045E+03  9.35965E+03 -2.18647E+04  4.83033E+03 -2.06163E+04 -1.03652E+04
 -1.13080E+04 -2.60962E+04  7.52728E+03 -2.98280E+04  2.12387E+04 -1.97901E+04  2.52041E+04 -1.67812E+03
  1.47705E+04  1.64160E+04 -3.24023E+03  2.51641E+04 -1.80572E+04  1.45674E+04 -2.60760E+04 -5.41319E+03
 -1.82500E+04 -2.15913E+04 -2.81929E+03 -2.93849E+04  1.40313E+04 -2.53168E+04  2.45648E+04 -1.31308E+04
  2.39585E+04 -2.00416E+03  1.80863E+04  4.89183E+03  9.12008E+03  1.07973E+03  1.28970E+04 -2.42195E+03
  2.40721E+04  2.81777E+03  2.84635E+04  2.04986E+04  1.87540E+04  4.06971E+04 -3.13881E+03  4.88210E+04
 -2.75254E+04  4.04527E+04 -4.59442E+04  2.18425E+04 -5.03355E+04 -3.54043E+03 -4.02902E+04 -2.95307E+04
 -1.68845E+04 -4.22178E+04  1.45164E+04 -3.61174E+04  3.09160E+04 -1.72207E+04  2.66021E+04  8.40121E+03
  8.80428E+03  2.07595E+04 -1.29450E+04  1.76966E+04 -2.24447E+04  2.52982E+03 -1.58380E+04 -1.40991E+04
 -3.61852E+02 -2.12282E+04  1.20329E+04 -1.67608E+04  1.39561E+04 -1.15107E+03  3.48047E+03  9.73919E+03
 -9.57971E+03  4.99605E+03 -1.07119E+04 -7.64949E+03 -1.76725E+03 -2.10376E+04  1.24868E+04 -2.19572E+04
  2.60166E+04 -1.36475E+04  2.98620E+04  3.94927E+03  2.61890E+04  2.08342E+04  1.13680E+04  3.23948E+04
 -7.07972E+03  3.53460E+04 -2.35397E+04  2.24589E+04 -2.63922E+04  3.57805E+03 -1.69288E+04 -6.05730E+03
 -6.52314E+03 -8.57903E+03 -2.92566E+02  1.46427E+02 -2.80148E+03  4.45953E+03 -8.22748E+03  6.29387E+03
 -1.58221E+04 -2.00347E+03 -1.60308E+04 -1.42700E+04 -6.83527E+03 -2.24347E+04  8.26841E+03 -1.74478E+04
  1.36208E+04 -7.51611E+03  1.03134E+04  3.98561E+03 -9.86617E+02  6.34849E+03 -9.34242E+03  6.86621E+01
 -9.00347E+03 -1.12686E+04 -1.15789E+03 -1.77029E+04  1.03402E+04 -1.86517E+04  2.29735E+04 -9.59337E+03
  2.75891E+04  3.72337E+03  1.94243E+04  1.60757E+04  3.04521E+03  2.18301E+04 -1.08982E+04  1.73551E+04
 -1.45161E+04  4.89349E+03 -7.15276E+03 -4.51309E+03  2.28162E+03 -4.06304E+03  9.47000E+03 -1.59726E+03
  8.14023E+03  8.58419E+03  7.57605E+02  1.54179E+04 -1.03277E+04  1.37583E+04 -1.88317E+04  2.72560E+03
 -1.31664E+04 -9.88588E+03 -2.54431E+02 -1.60302E+04  1.00303E+04 -7.19269E+03  1.06249E+04  4.67198E+03
  2.90042E+03  1.17875E+04 -9.93654E+03  1.36057E+04 -1.60354E+04  6.97567E+03 -1.68772E+04 -5.05660E+03
 -8.54695E+03 -1.88231E+04  4.27727E+03 -2.20036E+04  1.88441E+04 -1.20921E+04  2.04890E+04  3.80368E+03
  1.16065E+04  1.62415E+04 -2.49989E+03  1.78894E+04 -1.46178E+04  1.03082E+04 -1.49536E+04 -1.40446E+03
 -1.24179E+04 -1.25868E+04 -1.39689E+03 -1.49319E+04  7.41154E+03 -1.20449E+04  8.46483E+03 -4.30666E+03
  5.00947E+03  3.35561E+03 -1.32661E+03  2.82645E+03 -1.24196E+03 -4.61720E+03  2.75229E+03 -8.71649E+03
  1.37259E+04 -6.26538E+03  2.07304E+04  2.08199E+03  1.84336E+04  1.36579E+04  1.15226E+04  2.52362E+04
 -6.32117E+03  2.93344E+04 -2.37427E+04  2.16661E+04 -3.08800E+04  3.29615E+03 -2.57876E+04 -1.14712E+04
 -1.26320E+04 -2.06306E+04 -6.13700E+01 -1.65648E+04  5.83523E+03 -1.06173E+04  6.48517E+03 -6.33089E+03
  5.36999E+03 -4.18607E+03  4.34192E+03 -3.63411E+03  7.15357E+03 -4.77674E+03  9.11109E+03 -1.33508E+03
  1.27827E+04  3.26596E+03  6.81471E+03  1.03326E+04 -3.01008E+03  1.40290E+04 -1.36255E+04  1.01394E+04
 -1.72467E+04 -8.76043E+02 -1.17431E+04 -1.19318E+04 -2.92928E+03 -2.03473E+04  1.07327E+04 -2.01187E+04
  2.03363E+04 -1.02887E+04  2.43301E+04  2.80619E+03  1.60756E+04  1.68004E+04  1.60995E+03  2.23244E+04
 -8.62794E+03  1.68027E+04 -1.29237E+04  6.71342E+03 -8.70767E+03 -2.02635E+03 -3.09372E+03 -3.44958E+03
 -1.26708E+03 -6.10175E+02 -3.04341E+03  2.43285E+03 -6.73336E+03  2.29562E+03 -1.25493E+04 -2.28132E+03
 -9.16255E+03 -1.24164E+04  2.97070E+02 -1.73097E+04  1.17901E+04 -1.74250E+04  1.91493E+04 -5.30287E+03
  1.86439E+04  8.85422E+03  8.25154E+03  1.58625E+04 -4.27870E+03  1.94401E+04 -1.40431E+04  1.06342E+04
 -1.71173E+04  2.95606E+02 -1.24574E+04 -1.14131E+04 -1.10593E+03 -1.67383E+04  7.29119E+03 -1.16642E+04
  1.18152E+04 -3.03944E+03  7.61612E+03  4.17022E+03  2.84841E+03  5.02395E+03  2.04384E+03  2.01566E+03
  3.26643E+03  1.46575E+03  4.75829E+03  2.19601E+03  6.53525E+03  6.91216E+03  3.73214E+03  9.40987E+03
 -4.66871E+03  1.49222E+04 -1.37928E+04  1.38309E+04 -2.11615E+04  3.90561E+03 -2.09159E+04 -8.12127E+03
 -9.95471E+03 -1.94031E+04  3.66591E+03 -2.11024E+04  1.18824E+04 -1.40641E+04  1.55429E+04 -4.13029E+03
  1.27900E+04  6.67624E+03  3.06976E+03  1.05627E+04 -5.83738E+03  7.62440E+03 -7.80743E+03 -1.71963E+03
 -3.02936E+03 -9.18295E+03  4.55542E+03 -9.46731E+03  8.05485E+03 -4.29739E+03  8.25955E+03  1.55366E+03
  5.23343E+03  4.63466E+03  9.98447E+02  2.20999E+03 -1.38614E+03  2.81257E+03  1.77314E+03 -1.70260E+03
  2.86599E+03 -1.72424E+03  8.09296E+03  2.63014E+03  4.89295E+03  9.66264E+03 -1.44991E+03  1.44028E+04
 -9.89187E+03  8.67437E+03 -1.28985E+04  3.12224E+03 -1.04419E+04 -4.76419E+03 -4.51763E+03 -8.37612E+03
  8.20511E+02 -7.88382E+03  5.01915E+03 -3.49884E+03  4.82012E+03  4.45984E+03 -2.35668E+03  6.39921E+03
 -9.46344E+03  3.85721E+03 -9.45106E+03 -4.45491E+03 -5.87351E+03 -1.02687E+04  9.02477E+02 -1.08098E+04
  6.22789E+03 -7.18268E+03  8.51721E+03 -2.00334E+03  6.40325E+03  3.98792E+03  1.14884E+03  6.59919E+03
 -3.68594E+03  1.86412E+03 -5.27169E+03 -3.87285E+03  1.76787E+03 -8.29414E+03  1.06727E+04 -6.84685E+03
  1.33751E+04  8.26672E+02  1.17369E+04  9.10910E+03  2.82912E+03  1.38537E+04 -5.49111E+03  1.40307E+04
 -9.88809E+03  5.85268E+03 -1.13984E+04 -1.24547E+03 -6.47980E+03 -8.46546E+03  1.58760E+03 -8.66701E+03
  8.77704E+03 -4.56983E+03  7.66195E+03  2.98811E+03  2.45558E+03  7.14619E+03 -1.53140E+03  5.82064E+03
 -3.77756E+03  4.43992E+03 -3.05437E+03  7.50569E+02 -1.63291E+03  4.50674E+02 -1.84103E+03  2.38338E+03
 -3.83773E+03  4.87996E+03 -9.16647E+03  5.62223E+03 -1.39793E+04  5.96910E+02 -1.56385E+04 -9.48794E+03
 -8.40572E+03 -1.81797E+04  3.36489E+03 -2.08360E+04  1.31535E+04 -1.64472E+04  1.95967E+04 -6.00661E+03
  1.89438E+04  5.04373E+03  1.06295E+04  1.28476E+04  2.21400E+03  1.53798E+04 -5.86562E+03  1.25146E+04
 -8.85085E+03  4.26426E+03 -4.88385E+03 -2.47054E+03 -1.47762E+03 -1.46969E+03 -1.05323E+03  1.75924E+02
 -2.28083E+03  5.57718E+02 -2.86398E+03 -7.81155E+02 -1.56263E+03 -2.63759E+03  7.48016E+02 -5.60922E+03
  5.83845E+03 -5.20066E+03  9.00396E+03  6.45041E+01  1.06436E+04  8.79952E+03  3.90159E+03  1.47722E+04
 -6.71385E+03  1.64478E+04 -1.60439E+04  1.02789E+04 -1.86361E+04 -1.34419E+03 -1.28554E+04 -1.06429E+04
 -5.69489E+03 -1.50282E+04  4.17379E+03 -1.38334E+04  1.05358E+04 -8.33890E+03  1.01786E+04  1.35029E+02
  5.46302E+03  4.63006E+03 -1.12574E+03  4.48658E+03 -3.50931E+03 -8.61018E+01 -1.36200E+02 -3.66428E+03
  4.73398E+03 -2.68272E+03  6.33181E+03  9.17908E+02  4.29767E+03  7.28638E+03  3.84409E+02  8.47140E+03
 -7.24757E+03  7.45171E+03 -1.01774E+04  9.48962E+02 -9.06097E+03 -6.95534E+03 -1.94734E+03 -1.20803E+04
  7.38849E+03 -1.05305E+04  1.26422E+04 -3.29389E+03  1.18496E+04  2.97193E+03  6.62121E+03  8.99360E+03
  1.07688E+03  1.08131E+04 -4.97464E+03  7.89243E+03 -7.86783E+03  4.69383E+03 -5.56341E+03  1.10654E+03
 -3.20843E+03  2.44353E+02 -3.06220E+03  1.06357E+03 -4.91971E+03  2.29945E+03 -7.06814E+03 -1.93903E+03
 -7.59692E+03 -6.39185E+03 -2.49559E+03 -1.03341E+04  4.70032E+03 -1.09902E+04  9.64747E+03 -4.97906E+03
  1.06579E+04  9.94281E+02  6.60227E+03  7.17978E+03 -2.83083E+02  1.02750E+04 -9.11527E+03  6.41216E+03
