 $NMID ID='MM_0lb_SNR400_17hz_g45_75.RAW', FMTDAT='(8E13.5)'
 TRAMP=1., VOLUME=1. $END
  3.09413E+05  4.00005E+01  3.37442E+05  2.50077E+05  8.42794E+04  3.37530E+05 -1.32883E+05  2.51097E+05
 -1.90374E+05  8.22142E+04 -1.11358E+05 -3.25554E+04  9.17392E+02 -4.99541E+04  5.39134E+04  5.39020E+02
  3.58347E+04  5.35128E+04 -1.67636E+04  7.45847E+04 -6.08742E+04  6.34900E+04 -8.30732E+04  3.20273E+04
 -7.97401E+04 -1.11521E+04 -5.68264E+04 -5.06099E+04 -1.49107E+04 -6.84242E+04  2.67346E+04 -4.51326E+04
  3.91955E+04  4.06351E+03  1.61614E+04  4.72187E+04 -3.40936E+04  4.68090E+04 -6.59202E+04 -5.37898E+02
 -5.24920E+04 -5.61308E+04 -6.70304E+03 -7.55536E+04  3.32957E+04 -5.35573E+04  4.71147E+04 -1.63900E+04
  4.22012E+04  1.09878E+04  3.11640E+04  2.46873E+04  1.60004E+04  2.87238E+04 -5.14922E+03  2.69537E+04
 -2.21135E+04  1.28812E+04 -1.91163E+04 -4.94382E+03  4.06781E+03 -7.54656E+03  2.14799E+04  1.10004E+04
  7.02311E+03  3.38599E+04 -3.11025E+04  3.42054E+04 -6.17543E+04  2.77934E+03 -5.53551E+04 -4.15296E+04
 -1.25023E+04 -6.10943E+04  3.86290E+04 -4.40355E+04  5.67875E+04 -2.56821E+03  3.26876E+04  3.13874E+04
 -7.07576E+03  3.34329E+04 -2.91523E+04  1.43373E+04 -2.81623E+04 -5.09107E+03 -1.50153E+04 -1.02503E+04
 -8.14936E+03 -1.18091E+04 -6.65553E+02 -1.74831E+04  7.00571E+03 -2.27604E+04  1.49739E+04 -1.36095E+04
  1.23011E+04  4.32472E+03 -6.64517E+03  1.33039E+04 -1.98055E+04 -3.17813E+03 -8.70200E+03 -3.08355E+04
  2.16686E+04 -4.19371E+04  4.59646E+04 -1.88422E+04  4.33300E+04  1.79732E+04  1.46743E+04  4.23088E+04
 -1.48857E+04  3.17901E+04 -2.33782E+04  1.44290E+03 -8.63933E+03 -2.66736E+04  2.03544E+04 -3.21799E+04
  3.86430E+04 -7.52152E+03  3.23806E+04  2.30017E+04  1.60273E+04  4.39200E+04 -7.66085E+03  4.65291E+04
 -2.93163E+04  3.05357E+04 -3.82955E+04  8.58757E+03 -3.94329E+04 -1.55257E+04 -2.17199E+04 -3.51996E+04
  7.07640E+03 -3.44192E+04  2.98334E+04 -1.30654E+04  2.75925E+04  9.91111E+03  3.40985E+03  1.81666E+04
 -1.35455E+04  7.22799E+03 -9.82397E+03 -7.69110E+03  6.26349E+03 -1.04326E+04  1.76785E+04  6.12623E+03
  1.24806E+04  2.14035E+04 -6.27846E+03  2.40040E+04 -2.19082E+04  1.01334E+04 -2.58598E+04 -5.40939E+03
 -1.77464E+04 -1.67843E+04 -6.21681E+03 -1.78831E+04  3.87966E+03 -1.59596E+04  1.29202E+04 -1.51804E+04
  2.26222E+04 -1.21519E+04  2.94321E+04  1.66035E+03  2.17826E+04  1.72180E+04  4.44877E+03  3.34507E+04
 -1.62670E+04  2.82088E+04 -2.60065E+04  9.70769E+03 -2.01539E+04 -1.01712E+04 -4.01335E+03 -1.37856E+04
  2.06921E+03 -3.53781E+03 -3.10290E+03  5.09081E+03 -1.35993E+04  5.19095E+03 -1.46523E+04 -5.22071E+03
 -8.56289E+03 -1.59485E+04  4.61310E+03 -2.01219E+04  1.26719E+04 -1.47100E+04  1.55717E+04 -1.14279E+03
  9.33841E+03  1.15967E+04 -7.98339E+02  1.64872E+04 -1.08952E+04  9.36650E+03 -1.62825E+04 -3.48259E+03
 -1.22567E+04 -1.48951E+04 -2.27115E+03 -2.02483E+04  9.38473E+03 -1.60022E+04  1.71654E+04 -7.79630E+03
  1.56318E+04  6.20044E+02  1.06389E+04  4.11883E+03  5.53946E+03  1.75653E+02  8.05018E+03 -1.29561E+03
  1.50856E+04  2.95292E+03  1.59770E+04  1.35077E+04  9.55644E+03  2.63055E+04 -3.01208E+03  2.89605E+04
 -1.64837E+04  2.21715E+04 -2.63526E+04  1.04824E+04 -2.77739E+04 -2.14524E+03 -2.32043E+04 -1.52904E+04
 -1.10166E+04 -2.24274E+04  7.46621E+03 -2.05618E+04  1.80012E+04 -1.16802E+04  1.62055E+04  4.07122E+03
  6.61594E+03  1.27015E+04 -7.51953E+03  1.11594E+04 -1.43501E+04  2.95345E+03 -1.07901E+04 -8.05643E+03
  2.74467E+02 -1.31847E+04  6.47244E+03 -9.75871E+03  8.70191E+03 -1.36847E+03  2.16278E+03  5.16512E+03
 -5.74443E+03  1.75759E+03 -4.24112E+03 -4.73533E+03  3.73508E+02 -1.13008E+04  7.48142E+03 -1.16941E+04
  1.34596E+04 -5.38758E+03  1.34348E+04  3.16500E+03  1.15177E+04  9.89478E+03  5.99183E+03  1.58536E+04
 -2.03997E+03  1.79181E+04 -1.06317E+04  1.15578E+04 -1.25448E+04  3.00531E+03 -8.68380E+03 -2.07596E+03
 -4.60416E+03 -3.66922E+03 -8.28890E+02  1.50674E+03 -1.70063E+03  1.80448E+03 -3.90594E+03  4.06087E+03
 -8.59316E+03 -4.19602E+02 -8.77484E+03 -8.15368E+03 -3.27554E+03 -1.20680E+04  3.59773E+03 -8.85522E+03
  7.81957E+03 -3.26575E+03  5.60679E+03  2.14167E+03  7.28263E+02  3.09137E+03 -3.80675E+03  2.15610E+02
 -3.55691E+03 -5.76878E+03 -1.78003E+03 -7.62904E+03  4.46429E+03 -8.82987E+03  1.07115E+04 -4.72957E+03
  1.35617E+04  4.16665E+02  9.45531E+03  6.96526E+03  1.84812E+03  9.53564E+03 -5.57968E+03  8.81629E+03
 -7.95536E+03  3.29622E+03 -4.46440E+03 -1.35936E+03  1.70950E+03 -2.39702E+03  4.91953E+03 -1.52154E+03
  4.94315E+03  3.14458E+03  1.15162E+03  6.70039E+03 -5.22111E+03  6.99858E+03 -8.31471E+03  1.90798E+03
 -5.15027E+03 -4.10317E+03  8.47260E+02 -7.48263E+03  4.02394E+03 -3.76035E+03  4.72730E+03  1.14441E+03
  7.77384E+02  4.72319E+03 -4.16678E+03  5.33730E+03 -5.29692E+03  3.08025E+03 -5.65953E+03 -9.90778E+02
 -4.01486E+03 -6.89275E+03  1.18278E+03 -8.45034E+03  6.56715E+03 -5.46194E+03  6.98418E+03  9.91868E+02
  5.23251E+03  5.98088E+03  2.52871E+02  8.76963E+03 -5.88190E+03  4.79030E+03 -5.79881E+03 -6.90645E+01
 -6.12685E+03 -5.96764E+03 -1.11423E+03 -5.61404E+03  3.22222E+03 -5.03227E+03  3.34507E+03 -3.42316E+03
  3.09360E+03  7.19402E+02 -1.42189E+02  1.81976E+03  3.31245E+02 -1.03182E+03  1.40201E+02 -2.38002E+03
  4.60270E+03 -1.38856E+03  6.06965E+03  7.25084E+02  5.99307E+03  4.03194E+03  5.11178E+03  9.43221E+03
 -1.66842E+03  1.04840E+04 -8.74354E+03  7.62956E+03 -1.13509E+04  1.26974E+03 -8.78855E+03 -3.42566E+03
 -4.26557E+03 -7.92279E+03 -2.91057E+02 -6.16578E+03  2.32714E+03 -3.02182E+03  2.69611E+03 -2.55013E+03
  1.58497E+03 -1.53831E+03  2.54596E+03 -2.63678E+03  3.68543E+03 -1.03128E+03  4.35713E+03  4.63908E+01
  4.94418E+03  1.22513E+03  2.09116E+03  3.92143E+03 -1.37003E+03  3.56286E+03 -4.89537E+03  3.01219E+03
 -6.67178E+03 -5.95151E+02 -2.56687E+03 -4.06957E+03  3.99818E+02 -5.81733E+03  3.80591E+03 -6.30009E+03
  6.05184E+03 -3.11934E+03  7.45615E+03  5.10647E+02  5.77277E+03  5.38204E+03  1.12014E+03  6.47061E+03
 -2.13583E+03  6.81386E+03 -4.07543E+03  2.19589E+03 -1.82013E+03 -1.26956E+03 -8.53853E+02 -4.36387E+02
 -1.29656E+02  6.22514E+02 -8.07750E+02  2.25300E+03 -3.26494E+03  1.23591E+03 -5.03615E+03 -5.02106E+02
 -2.21919E+03 -4.76239E+03  4.63218E+02 -5.29311E+03  3.35722E+03 -4.93151E+03  3.96140E+03 -1.14408E+03
  5.03128E+03  2.61928E+03  2.52608E+03  3.74801E+03 -1.42047E+03  5.51294E+03 -3.48730E+03  3.35872E+03
 -4.59192E+03  5.04611E+02 -3.62590E+03 -2.47629E+03 -3.01648E+02 -4.02843E+03  1.20169E+03 -2.76978E+03
  2.86711E+03 -1.43698E+03  2.42603E+03  8.04117E+02  1.40433E+03  2.14263E+03  9.54196E+02  5.30961E+02
  2.11468E+03  6.58796E+02  7.98411E+02  1.39296E+03  1.18646E+03  2.09461E+03  2.69728E+03  2.14487E+03
 -1.55570E+03  3.78566E+03 -3.23674E+03  5.11498E+03 -4.00155E+03  1.39115E+03 -5.01672E+03 -1.96130E+02
 -1.38345E+03 -4.74629E+03  1.06374E+03 -5.18511E+03  2.43548E+03 -3.65737E+03  3.84347E+03 -1.11389E+03
  3.30376E+03  1.61579E+03  6.06922E+02  2.35882E+03 -8.10398E+02  2.30108E+03 -1.44028E+03 -4.80729E+02
 -1.17220E+03 -1.90782E+03  1.13087E+03 -2.09877E+03  1.83439E+03 -1.27485E+03  1.32263E+03  2.17943E+02
  9.99714E+02  9.08384E+02  1.03383E+03 -3.11560E+02 -6.85960E+02  1.18949E+03  1.82012E+03 -2.82328E+02
  4.62791E+02  4.67859E+02  1.98822E+03  9.40694E+02  9.96948E+02  2.72234E+03 -4.27748E+02  2.91947E+03
 -2.20864E+03  1.45892E+03 -2.05406E+03  7.36298E+02 -2.70076E+03 -5.45301E+02 -6.01972E+02 -1.56440E+03
 -6.81398E+01 -2.00572E+03  1.33361E+03 -1.27995E+03  5.52094E+02  1.29906E+03 -6.25242E+02  1.69937E+03
 -1.27294E+03  9.31658E+02 -1.91691E+03 -1.44083E+03 -9.27996E+02 -2.38680E+03  1.52723E+02 -1.85016E+03
  1.17596E+03 -6.18934E+02  6.24097E+02  3.06358E+02  2.02202E+03 -2.28865E+01  2.46944E+02  7.97700E+02
 -3.40030E+02  1.96639E+02 -1.18099E+03 -5.02092E+02  7.50802E+02 -1.83431E+03  1.64456E+03 -1.39134E+03
  1.84470E+03  4.85356E+02  3.54909E+03  1.65382E+03  1.06170E+03  1.94161E+03 -5.19719E+02  2.71549E+03
 -2.24364E+03  7.66536E+02 -1.97555E+03 -5.88924E+02 -9.60024E+02 -1.66110E+03  7.01981E+02 -1.06945E+03
  1.28488E+03 -4.53632E+02  1.64565E+03  9.37347E+02 -3.53930E+02  8.07328E+02 -3.84761E+02  1.27867E+03
 -1.01990E+03  8.96812E+02 -8.57271E+02 -1.46138E+02 -5.25223E+01  4.74040E+02 -5.78532E+02  2.80374E+02
 -8.66412E+02  1.93819E+03 -2.10738E+03  3.31087E+02 -2.26540E+03 -1.89785E+01 -2.86783E+03 -1.60594E+03
 -1.77471E+03 -3.44458E+03  6.92482E+02 -3.81225E+03  1.79734E+03 -3.67268E+03  3.64529E+03 -7.90194E+02
  3.22419E+03 -2.88761E+02  1.61352E+03  1.59712E+03 -2.24047E+02  1.85756E+03 -9.12769E+02  2.25039E+03
 -1.66854E+03  1.04451E+03 -4.91537E+02 -3.12185E+02 -9.40826E+01  5.62994E+02 -8.05535E+02 -4.04025E+02
 -1.47240E+03  1.10735E+02 -1.05698E+03 -5.64429E+02 -1.14214E+02 -1.11368E+03 -1.59933E+02 -1.16099E+03
  1.38118E+03 -1.30901E+03  9.03795E+02 -1.00481E+02  1.27520E+03  1.40298E+03  2.65602E+02  1.98343E+03
 -1.21795E+03  3.05953E+03 -2.27455E+03  1.35654E+03 -2.94906E+03 -5.29179E+02 -2.10321E+03 -1.41543E+03
 -7.88810E+02 -1.19651E+03  4.62132E+02 -2.13063E+03  1.30157E+03 -5.25644E+02  1.88223E+03 -1.59503E+02
  1.03905E+03  6.01173E+02  3.99221E+02  9.06115E+01 -5.82764E+02 -1.17769E+02  2.36221E+02 -4.22543E+02
  1.37469E+02  1.42664E+02  7.25315E+02  8.79816E+02  4.72490E+02  4.20042E+02  8.01190E+02  8.61159E+02
 -8.20456E+02  8.24582E+02 -1.05010E+03  1.34139E+02 -9.65011E+02 -5.84459E+02 -8.26847E+01 -1.10361E+03
  9.96308E+02 -8.43762E+02  2.28222E+02  2.30919E+01  1.35968E+03 -8.38635E+02  8.38865E+02  3.65509E+02
  5.50186E+02  8.22878E+02 -9.18934E+02  8.42712E+02 -4.96094E+02  1.30479E+02 -5.37254E+01 -3.05635E+02
 -3.45640E+02 -1.61886E+02 -9.52575E+02  2.85059E+02 -2.55571E+02  3.28220E+02 -9.61857E+02 -2.65230E+02
 -9.80045E+02  8.49327E+02 -3.85505E+02 -1.42612E+03  8.76959E+02 -1.58969E+03  7.02622E+02 -2.37774E+02
  9.31802E+02 -7.27266E+02  7.60485E+00  6.39096E+02 -9.84673E+01  1.24862E+03 -1.05295E+03  1.32157E+03
