 $NMID ID='MM_0lb_SNR400_15hz_g40_60.RAW', FMTDAT='(8E13.5)'
 TRAMP=1., VOLUME=1. $END
  3.09471E+05 -6.44901E+01  3.38178E+05  2.49978E+05  8.45715E+04  3.37646E+05 -1.32367E+05  2.50874E+05
 -1.89981E+05  8.29361E+04 -1.11019E+05 -3.32348E+04  1.43023E+03 -5.05198E+04  5.42916E+04  6.95860E+01
  3.49680E+04  5.29706E+04 -1.67028E+04  7.51905E+04 -6.04434E+04  6.24475E+04 -8.28439E+04  3.14131E+04
 -7.99725E+04 -1.15778E+04 -5.71030E+04 -5.11247E+04 -1.55067E+04 -6.89083E+04  2.69102E+04 -4.49477E+04
  3.99903E+04  3.90377E+03  1.60539E+04  4.76130E+04 -3.39611E+04  4.70634E+04 -6.61490E+04 -1.46015E+02
 -5.30321E+04 -5.58922E+04 -6.36616E+03 -7.56254E+04  3.31345E+04 -5.39146E+04  4.70008E+04 -1.63820E+04
  4.29827E+04  1.11776E+04  3.13364E+04  2.54742E+04  1.59802E+04  2.83710E+04 -5.08211E+03  2.68361E+04
 -2.14458E+04  1.23300E+04 -1.93997E+04 -4.69670E+03  5.07883E+03 -7.77645E+03  2.17593E+04  1.13557E+04
  7.43896E+03  3.41516E+04 -3.12400E+04  3.47862E+04 -6.31234E+04  1.85658E+03 -5.54014E+04 -4.23919E+04
 -1.29760E+04 -6.18988E+04  3.92071E+04 -4.47354E+04  5.67459E+04 -2.25463E+03  3.29580E+04  3.14773E+04
 -5.79894E+03  3.44833E+04 -2.94668E+04  1.53257E+04 -2.86094E+04 -4.88884E+03 -1.54091E+04 -1.05943E+04
 -7.75974E+03 -1.17290E+04 -9.14585E+02 -1.74624E+04  7.27151E+03 -2.27960E+04  1.57687E+04 -1.37695E+04
  1.19253E+04  4.72463E+03 -7.67921E+03  1.24593E+04 -2.04520E+04 -3.73653E+03 -8.29589E+03 -3.20661E+04
  2.20930E+04 -4.18625E+04  4.63887E+04 -1.88165E+04  4.40053E+04  1.88799E+04  1.49351E+04  4.33182E+04
 -1.60557E+04  3.24978E+04 -2.36561E+04  1.36863E+03 -8.82551E+03 -2.73650E+04  2.02974E+04 -3.26395E+04
  3.95019E+04 -7.85436E+03  3.34226E+04  2.36032E+04  1.65050E+04  4.46049E+04 -7.53653E+03  4.77091E+04
 -3.06909E+04  3.20237E+04 -3.97623E+04  8.50771E+03 -4.07591E+04 -1.63885E+04 -2.20595E+04 -3.53771E+04
  7.06026E+03 -3.63055E+04  3.11566E+04 -1.39528E+04  2.79547E+04  1.05884E+04  3.51813E+03  1.87611E+04
 -1.31896E+04  7.92532E+03 -9.91050E+03 -7.69973E+03  5.98179E+03 -1.03436E+04  1.76801E+04  6.32389E+03
  1.29744E+04  2.21781E+04 -6.43620E+03  2.41090E+04 -2.18753E+04  1.10407E+04 -2.67013E+04 -4.79359E+03
 -1.88337E+04 -1.73914E+04 -6.73282E+03 -1.88423E+04  3.92912E+03 -1.69457E+04  1.36675E+04 -1.62555E+04
  2.41708E+04 -1.20416E+04  3.03890E+04  2.68940E+03  2.21024E+04  1.81612E+04  4.30756E+03  3.48410E+04
 -1.71309E+04  2.90671E+04 -2.71048E+04  9.39236E+03 -1.94442E+04 -1.08456E+04 -4.56593E+03 -1.36376E+04
  2.10778E+03 -2.91075E+03 -3.71203E+03  6.29857E+03 -1.50426E+04  5.19195E+03 -1.49417E+04 -5.94615E+03
 -9.27962E+03 -1.71223E+04  5.10103E+03 -2.17833E+04  1.40861E+04 -1.57024E+04  1.68787E+04 -1.30974E+03
  1.03474E+04  1.23189E+04 -9.95508E+02  1.80654E+04 -1.21026E+04  9.90163E+03 -1.76676E+04 -3.80920E+03
 -1.24045E+04 -1.52013E+04 -1.17385E+03 -2.14071E+04  9.47020E+03 -1.73809E+04  1.80303E+04 -8.12743E+03
  1.59356E+04  7.18758E+01  1.19014E+04  4.28225E+03  6.53736E+03  8.58376E+02  8.41042E+03 -1.86878E+03
  1.61363E+04  2.78083E+03  1.72826E+04  1.40998E+04  1.08191E+04  2.73198E+04 -2.44100E+03  3.07196E+04
 -1.85072E+04  2.42623E+04 -2.90543E+04  1.19733E+04 -2.94407E+04 -1.83961E+03 -2.49519E+04 -1.71444E+04
 -1.08763E+04 -2.45925E+04  8.94459E+03 -2.18871E+04  1.88862E+04 -1.20963E+04  1.74971E+04  4.63888E+03
  7.13950E+03  1.32097E+04 -7.81457E+03  1.19314E+04 -1.47473E+04  2.70984E+03 -1.15214E+04 -9.22027E+03
  5.31261E+01 -1.45321E+04  7.85663E+03 -1.07363E+04  9.76052E+03 -1.14265E+03  2.79113E+03  5.91291E+03
 -6.58878E+03  1.90518E+03 -4.77341E+03 -4.89367E+03  5.05192E+02 -1.20200E+04  8.84687E+03 -1.24617E+04
  1.46526E+04 -6.30278E+03  1.54811E+04  3.06759E+03  1.30420E+04  1.11282E+04  6.52288E+03  1.77569E+04
 -2.77549E+03  1.98784E+04 -1.19028E+04  1.26003E+04 -1.33842E+04  3.23565E+03 -1.01339E+04 -3.09111E+03
 -4.78846E+03 -3.93259E+03 -8.45837E+02  1.06088E+03 -2.47006E+03  2.04025E+03 -4.12162E+03  3.87266E+03
 -9.32956E+03 -4.51965E+02 -9.38815E+03 -7.89804E+03 -3.82225E+03 -1.29836E+04  4.15173E+03 -9.72911E+03
  8.44674E+03 -4.04899E+03  6.48514E+03  1.94043E+03  6.82414E+02  3.39379E+03 -4.45801E+03 -3.03699E+01
 -4.56997E+03 -6.23318E+03 -4.12340E+02 -9.42686E+03  5.88213E+03 -9.91304E+03  1.26412E+04 -5.56491E+03
  1.43112E+04  1.22590E+03  1.04577E+04  8.47171E+03  2.43932E+03  1.09490E+04 -6.30406E+03  1.02387E+04
 -8.55095E+03  3.00674E+03 -3.73095E+03 -1.56413E+03  1.37331E+03 -2.73932E+03  5.89317E+03 -5.76203E+02
  4.72685E+03  4.70444E+03  8.19969E+02  8.02010E+03 -5.53866E+03  7.31666E+03 -9.69028E+03  1.92161E+03
 -6.42597E+03 -4.54966E+03  4.11946E+02 -8.15672E+03  5.36360E+03 -4.06217E+03  4.90092E+03  1.44573E+03
  7.17792E+02  5.16200E+03 -4.61586E+03  6.42280E+03 -6.30085E+03  2.92046E+03 -7.07817E+03 -2.18237E+03
 -4.32009E+03 -8.60366E+03  2.01619E+03 -9.54384E+03  8.25059E+03 -5.74518E+03  8.70624E+03  1.02372E+03
  5.89740E+03  7.07487E+03 -2.60162E+02  9.23231E+03 -6.73930E+03  5.71350E+03 -7.80949E+03 -1.10472E+03
 -7.55360E+03 -6.15246E+03 -1.35892E+03 -6.56634E+03  4.05554E+03 -5.55301E+03  4.15032E+03 -3.60832E+03
  3.33898E+03  5.19679E+02 -2.02659E+02  1.04266E+03  4.94129E+02 -1.46366E+03  3.32423E+02 -3.15745E+03
  6.03099E+03 -1.49439E+03  7.80387E+03  9.16804E+02  7.87688E+03  5.27627E+03  7.23995E+03  1.02641E+04
 -1.87872E+03  1.16307E+04 -1.02969E+04  8.76629E+03 -1.37316E+04  2.10288E+03 -1.09369E+04 -3.95734E+03
 -6.04878E+03 -9.15898E+03 -3.37282E+02 -7.66444E+03  2.94227E+03 -3.64114E+03  2.68020E+03 -2.94025E+03
  1.60911E+03 -1.73624E+03  2.34559E+03 -2.09772E+03  3.93266E+03 -1.37405E+03  4.52637E+03  3.51068E+02
  5.96756E+03  1.28915E+03  2.41645E+03  5.03032E+03 -1.85888E+03  4.93602E+03 -5.69853E+03  4.31678E+03
 -6.87298E+03 -1.40180E+03 -3.55930E+03 -5.50242E+03  7.68690E+02 -7.30243E+03  4.36155E+03 -7.33603E+03
  7.30205E+03 -4.07326E+03  9.54178E+03  1.35803E+03  6.61541E+03  6.45674E+03  1.24985E+03  7.96186E+03
 -3.24042E+03  7.53103E+03 -5.41016E+03  2.48860E+03 -3.39502E+03 -1.72436E+03 -2.11320E+03 -7.77975E+02
 -4.34005E+02 -2.06366E+02 -6.79633E+02  1.54748E+03 -2.70468E+03  1.29916E+03 -5.81533E+03 -7.40831E+02
 -2.56841E+03 -5.22047E+03  4.54217E+02 -6.63797E+03  3.79192E+03 -5.92619E+03  5.94637E+03 -1.35111E+03
  6.15745E+03  3.46285E+03  3.18462E+03  5.71832E+03 -1.25550E+03  6.65209E+03 -4.12947E+03  3.81431E+03
 -5.83549E+03  9.25541E+02 -4.89025E+03 -3.63838E+03  6.96032E+01 -5.20642E+03  2.70434E+03 -4.17035E+03
  4.01583E+03 -1.73607E+03  3.47924E+03  1.66636E+03  1.16500E+03  2.53792E+03  1.75174E+03  4.32445E+02
  2.13431E+03  1.09716E+03  1.75029E+03  1.16043E+03  1.92018E+03  3.54553E+03  2.17812E+03  2.89052E+03
 -1.67541E+03  3.91514E+03 -3.86025E+03  5.54982E+03 -6.30393E+03  1.13269E+03 -6.10403E+03 -1.39521E+03
 -3.29524E+03 -6.25441E+03  1.17325E+03 -7.34135E+03  3.32354E+03 -4.57648E+03  4.85736E+03 -9.13887E+02
  4.06595E+03  2.24583E+03  5.61510E+02  3.60874E+03 -1.53802E+03  2.25233E+03 -1.89039E+03  2.69177E+02
 -7.24811E+02 -2.51263E+03  1.40080E+03 -2.13295E+03  2.32757E+03 -1.03695E+03  2.22891E+03  7.16800E+02
  1.40544E+03  8.00361E+02  9.70106E+02  6.89542E+01 -5.15631E+02  1.46649E+03  1.38226E+03 -6.13395E+02
  2.87981E+02 -4.68050E+02  2.70275E+03  1.30410E+03  8.38002E+02  3.40201E+03 -2.46051E+02  4.67126E+03
 -2.60771E+03  2.55016E+03 -3.54135E+03  5.30558E+02 -4.04681E+03 -1.40120E+03 -1.36361E+03 -1.59046E+03
  3.62008E+02 -1.91400E+03  1.06201E+03 -8.04574E+02  8.43127E+02  1.17198E+03 -4.36944E+02  1.94412E+03
 -2.33084E+03  9.93922E+02 -2.45797E+03 -1.49131E+03 -1.70060E+03 -3.10654E+03 -2.20145E+01 -3.21288E+03
  1.87417E+03 -1.64363E+03  1.27283E+03 -8.47485E+01  2.38777E+03  3.82557E+02  5.50442E+02  1.76142E+03
 -1.25949E+03  3.47246E+02 -1.65114E+03 -9.43938E+02  1.01976E+03 -2.35299E+03  3.61124E+03 -1.47768E+03
  3.28408E+03  5.98555E+02  4.29489E+03  2.32375E+03  1.19017E+03  3.05338E+03 -7.25080E+02  3.63695E+03
 -3.08078E+03  6.95113E+02 -2.79067E+03 -1.42313E+02 -1.83326E+03 -2.31881E+03  1.11245E+03 -1.72443E+03
  2.17702E+03 -1.18298E+03  1.58246E+03  9.19052E+02  5.25439E+02  1.99818E+03  1.82525E+02  1.91022E+03
 -1.35419E+03  2.20472E+03 -4.05296E+02  9.83107E+02 -4.87702E+01  7.36535E+02 -7.97913E+02  1.51465E+03
 -7.98855E+02  1.25219E+03 -3.08295E+03  6.88498E+02 -3.66445E+03  4.90512E+02 -4.08271E+03 -1.84929E+03
 -1.70870E+03 -4.39591E+03  5.25580E+02 -5.20224E+03  2.86501E+03 -4.05229E+03  4.48630E+03 -1.61268E+03
  5.29175E+03  1.39403E+03  2.81037E+03  2.68311E+03 -5.70953E+02  3.29275E+03 -1.27102E+03  2.26352E+03
 -2.01682E+03  1.04784E+03 -1.46560E+03 -5.62179E+00 -1.09045E+03 -2.15450E+02 -1.16698E+03 -1.18763E+01
 -1.23996E+03 -2.46658E+01 -6.66941E+02 -1.10622E+02  1.73336E+02 -1.58966E+03 -4.88066E+02 -9.95790E+02
  2.00455E+03 -1.23456E+03  1.36541E+03  3.00315E+02  2.18460E+03  1.64313E+03  3.29502E+02  2.91937E+03
 -1.69461E+03  3.88538E+03 -3.35996E+03  3.28758E+03 -3.77622E+03 -4.67885E+02 -2.69903E+03 -2.38843E+03
 -1.06230E+03 -3.48815E+03  7.00912E+02 -2.70074E+03  1.90684E+03 -1.64063E+03  1.87445E+03  1.36741E+02
  1.06187E+03  1.03678E+03 -1.55532E+01  1.00830E+03 -3.37111E+02  1.72615E+01 -1.21289E+02 -2.87081E+02
  7.26106E+02  1.89120E+02  3.28612E+02  3.10175E+02  2.73238E+02  1.46103E+03  3.71147E+02  4.82413E+02
 -1.38752E+03  1.07490E+03 -1.73606E+03 -1.88177E+02 -1.49007E+03 -1.29116E+03 -4.81670E+02 -2.56374E+03
  1.11188E+03 -1.71459E+03  2.01179E+03  2.86925E+02  2.17647E+03 -4.48529E+02  1.03793E+03  1.55703E+03
  7.61718E+02  1.44525E+03 -2.34196E+02  1.31079E+03 -1.09116E+03  5.89051E+02 -1.24556E+03  1.93716E+02
 -9.03326E+02  1.34425E+02 -9.04408E+02  5.00672E+02 -1.01402E+03  4.51898E+02 -9.99674E+02 -4.51067E+02
 -2.05848E+03 -7.94101E+02 -1.29096E+00 -1.33630E+03  1.52845E+03 -2.27576E+03  1.45591E+03 -9.17844E+02
  1.96012E+03  3.58977E+02  7.12648E+02  1.46127E+03 -4.97271E+02  1.69862E+03 -1.02856E+03  4.83240E+02
