 $NMID ID='MM_0lb_SNR400_13hz_g40_5.RAW', FMTDAT='(8E13.5)'
 TRAMP=1., VOLUME=1. $END
  3.10502E+05  7.46330E+02  3.37198E+05  2.50951E+05  8.38100E+04  3.37572E+05 -1.32381E+05  2.51207E+05
 -1.90360E+05  8.31340E+04 -1.11827E+05 -3.30246E+04  9.15680E+02 -5.04670E+04  5.36762E+04  1.77797E+02
  3.48739E+04  5.27551E+04 -1.66584E+04  7.51554E+04 -6.01784E+04  6.36000E+04 -8.42584E+04  3.25619E+04
 -8.05803E+04 -1.15155E+04 -5.68493E+04 -5.10389E+04 -1.55913E+04 -6.92922E+04  2.68489E+04 -4.58213E+04
  4.00210E+04  3.70370E+03  1.63020E+04  4.77000E+04 -3.42083E+04  4.75218E+04 -6.71900E+04 -8.77160E+02
 -5.32802E+04 -5.63105E+04 -7.09589E+03 -7.67427E+04  3.34465E+04 -5.48920E+04  4.74054E+04 -1.70453E+04
  4.34024E+04  1.21298E+04  3.16892E+04  2.57976E+04  1.58316E+04  2.96237E+04 -5.74525E+03  2.67811E+04
 -2.19551E+04  1.19157E+04 -1.83029E+04 -4.59187E+03  5.83853E+03 -6.82627E+03  2.20585E+04  1.19390E+04
  7.23361E+03  3.45494E+04 -3.23704E+04  3.57274E+04 -6.26037E+04  1.78793E+03 -5.77007E+04 -4.20201E+04
 -1.23421E+04 -6.34315E+04  3.98044E+04 -4.54855E+04  5.80189E+04 -2.08938E+03  3.37042E+04  3.24073E+04
 -6.51193E+03  3.66031E+04 -2.97481E+04  1.58006E+04 -3.05351E+04 -3.80497E+03 -1.70018E+04 -1.09754E+04
 -7.89705E+03 -1.32856E+04 -1.32182E+03 -1.80992E+04  8.00272E+03 -2.29688E+04  1.56913E+04 -1.29399E+04
  1.21439E+04  5.18037E+03 -8.04230E+03  1.22957E+04 -2.13531E+04 -3.97543E+03 -8.00924E+03 -3.36170E+04
  2.31900E+04 -4.41412E+04  4.85017E+04 -1.88365E+04  4.45828E+04  1.95687E+04  1.55566E+04  4.42789E+04
 -1.67232E+04  3.35529E+04 -2.57439E+04  1.88759E+03 -1.04770E+04 -2.73590E+04  2.16560E+04 -3.34487E+04
  4.12774E+04 -9.13773E+03  3.51620E+04  2.40123E+04  1.84667E+04  4.65344E+04 -8.01194E+03  4.99547E+04
 -3.08463E+04  3.38397E+04 -4.19401E+04  9.89918E+03 -4.29761E+04 -1.70021E+04 -2.36137E+04 -3.73216E+04
  6.48411E+03 -3.83482E+04  3.15392E+04 -1.42954E+04  2.94641E+04  1.06764E+04  3.86474E+03  1.87973E+04
 -1.34708E+04  8.70395E+03 -9.54896E+03 -7.20385E+03  6.10462E+03 -1.05523E+04  1.80372E+04  5.80538E+03
  1.38206E+04  2.19036E+04 -5.76541E+03  2.48570E+04 -2.25831E+04  1.14340E+04 -2.76396E+04 -4.87846E+03
 -2.02270E+04 -1.76973E+04 -8.23176E+03 -2.06413E+04  4.49357E+03 -1.99227E+04  1.58582E+04 -1.80319E+04
  2.60581E+04 -1.32477E+04  3.23866E+04  2.45257E+03  2.38770E+04  1.91440E+04  3.66661E+03  3.65201E+04
 -1.70915E+04  3.03601E+04 -2.76858E+04  1.05479E+04 -2.05658E+04 -9.66350E+03 -5.01538E+03 -1.27892E+04
  2.07484E+03 -2.79112E+03 -5.23846E+03  7.01575E+03 -1.61010E+04  5.29792E+03 -1.60978E+04 -7.11076E+03
 -1.04550E+04 -1.85774E+04  4.94608E+03 -2.30120E+04  1.55482E+04 -1.67420E+04  1.81790E+04 -1.26786E+03
  1.13634E+04  1.39556E+04 -1.29369E+03  1.86855E+04 -1.26722E+04  1.09407E+04 -1.93920E+04 -4.75358E+03
 -1.40516E+04 -1.73885E+04 -1.94568E+03 -2.26883E+04  1.07010E+04 -1.84973E+04  1.96595E+04 -9.74475E+03
  1.84284E+04  4.90955E+02  1.32396E+04  5.28425E+03  6.80586E+03  8.61301E+02  9.33496E+03 -1.80050E+03
  1.74018E+04  3.02045E+03  1.91679E+04  1.49087E+04  1.27261E+04  3.02590E+04 -2.63190E+03  3.42782E+04
 -2.01943E+04  2.83124E+04 -3.24868E+04  1.38899E+04 -3.38197E+04 -2.79436E+03 -2.74514E+04 -1.91498E+04
 -1.20388E+04 -2.76603E+04  1.01384E+04 -2.46647E+04  2.15078E+04 -1.30106E+04  1.87454E+04  5.25528E+03
  7.09684E+03  1.45166E+04 -8.64416E+03  1.28713E+04 -1.62453E+04  2.49958E+03 -1.22073E+04 -9.93847E+03
 -2.53781E+02 -1.52034E+04  8.54537E+03 -1.16747E+04  1.04162E+04 -1.00984E+03  2.35967E+03  6.63256E+03
 -6.99398E+03  3.03772E+03 -5.86617E+03 -5.41419E+03 -1.34350E+03 -1.31898E+04  9.71427E+03 -1.44359E+04
  1.71113E+04 -7.96137E+03  1.86936E+04  2.74198E+03  1.60434E+04  1.32939E+04  6.56846E+03  2.10556E+04
 -3.14428E+03  2.28546E+04 -1.47935E+04  1.45617E+04 -1.61176E+04  3.26774E+03 -1.18299E+04 -4.01761E+03
 -5.52540E+03 -5.04890E+03 -1.38736E+02  8.67032E+02 -2.40618E+03  2.99940E+03 -5.03305E+03  4.63797E+03
 -1.07800E+04 -5.50629E+02 -1.15814E+04 -8.86764E+03 -4.28157E+03 -1.48819E+04  4.62141E+03 -1.14305E+04
  1.02576E+04 -4.47539E+03  7.05944E+03  3.13958E+03  2.28660E+02  4.84385E+03 -5.70234E+03 -3.81280E+02
 -5.04039E+03 -7.47674E+03 -4.19979E+02 -1.08088E+04  6.43110E+03 -1.08858E+04  1.39357E+04 -5.54259E+03
  1.65814E+04  1.08014E+03  1.25300E+04  1.00675E+04  1.67936E+03  1.25369E+04 -6.67878E+03  1.13509E+04
 -9.26355E+03  3.75984E+03 -4.94405E+03 -2.03426E+03  2.11377E+03 -2.91946E+03  6.65022E+03 -9.88637E+02
  5.27427E+03  5.34828E+03  1.18424E+03  8.83492E+03 -6.18640E+03  8.67166E+03 -1.13695E+04  1.98570E+03
 -7.70600E+03 -5.49826E+03  2.30130E+02 -9.97355E+03  5.80517E+03 -4.78602E+03  5.57221E+03  1.98004E+03
  1.35797E+03  6.80592E+03 -6.19268E+03  7.64862E+03 -8.60945E+03  4.19622E+03 -8.78412E+03 -2.93675E+03
 -5.41530E+03 -1.02048E+04  1.67797E+03 -1.13996E+04  9.59468E+03 -8.15284E+03  1.06343E+04  2.04742E+03
  6.83371E+03  9.04006E+03 -1.67027E+02  1.10527E+04 -7.83161E+03  5.82051E+03 -7.90898E+03 -1.42782E+03
 -8.62641E+03 -7.26055E+03 -1.45402E+03 -7.92130E+03  4.44049E+03 -7.03254E+03  4.51768E+03 -4.05498E+03
  3.75674E+03  9.59534E+02 -6.39991E+02  1.87559E+03 -6.96741E+02 -2.06118E+03  1.43240E+03 -4.13348E+03
  6.39926E+03 -2.28993E+03  1.02410E+04  1.09037E+03  9.22975E+03  6.49094E+03  7.30794E+03  1.27767E+04
 -3.43042E+03  1.47450E+04 -1.26007E+04  1.10783E+04 -1.67206E+04  1.85713E+03 -1.38078E+04 -4.97864E+03
 -7.15846E+03 -1.05473E+04 -1.14401E+01 -9.41760E+03  3.36277E+03 -4.77727E+03  3.88931E+03 -3.82468E+03
  2.42604E+03 -2.78223E+03  3.00065E+03 -2.95223E+03  4.63200E+03 -1.77334E+03  5.57487E+03 -3.00166E+02
  7.05436E+03  1.16650E+03  3.00690E+03  6.11386E+03 -1.97729E+03  6.69965E+03 -7.59233E+03  5.13819E+03
 -8.83732E+03 -1.09208E+03 -4.85887E+03 -6.05657E+03 -4.62558E+01 -9.68660E+03  5.35751E+03 -9.78787E+03
  9.48126E+03 -5.68634E+03  1.25733E+04  1.55484E+03  8.39080E+03  8.41940E+03  1.46919E+03  1.03263E+04
 -3.94534E+03  9.00385E+03 -6.54545E+03  3.07853E+03 -4.31141E+03 -1.20529E+03 -1.69131E+03 -1.05469E+03
 -1.44186E+03  5.31272E+02 -1.02039E+03  1.54636E+03 -4.52130E+03  1.58445E+03 -6.89152E+03 -1.48355E+02
 -3.35916E+03 -6.49270E+03  3.47543E+02 -9.24162E+03  5.68834E+03 -8.27075E+03  7.83594E+03 -2.29185E+03
  8.50495E+03  4.31688E+03  4.19582E+03  7.03746E+03 -2.24133E+03  9.15639E+03 -6.17856E+03  5.14615E+03
 -7.65996E+03  9.11966E+02 -6.67466E+03 -5.06237E+03 -9.49966E+02 -7.00869E+03  3.31060E+03 -5.57554E+03
  5.81212E+03 -1.87196E+03  3.83211E+03  7.58209E+02  5.66287E+02  2.39886E+03  1.30955E+03  1.63559E+03
  2.50800E+03  8.58083E+02  2.40057E+03  8.26439E+02  1.92892E+03  3.25827E+03  2.68301E+03  3.88039E+03
 -1.64529E+03  6.61817E+03 -5.36779E+03  6.97459E+03 -7.68922E+03  2.67787E+03 -9.85019E+03 -2.33021E+03
 -4.20714E+03 -8.51357E+03  5.17886E+02 -8.88306E+03  4.72757E+03 -5.41599E+03  6.69129E+03 -1.75347E+03
  5.12350E+03  3.01729E+03  1.47870E+03  5.50363E+03 -1.60029E+03  3.52766E+03 -2.68221E+03  3.27278E+02
 -1.98152E+03 -3.70330E+03  2.80973E+03 -3.84013E+03  3.42815E+03 -2.22294E+03  3.26708E+03  5.37820E+02
  2.15384E+03  1.25382E+03  1.49049E+03  1.81698E+01 -6.99306E+02  1.58665E+03  1.69134E+03 -6.69863E+02
  6.67123E+02 -5.12359E+02  3.80868E+03  1.11978E+03  1.68676E+03  3.74287E+03 -7.01995E+02  5.80633E+03
 -4.03339E+03  2.96541E+03 -5.19700E+03  6.81947E+02 -4.68283E+03 -1.35838E+03 -1.90583E+03 -3.11313E+03
  2.56447E+02 -3.00392E+03  2.60621E+03 -1.22002E+03  1.17401E+03  1.49125E+03 -1.15262E+03  3.04319E+03
 -3.23180E+03  1.91557E+03 -3.53234E+03 -2.69190E+03 -2.30792E+03 -3.60895E+03  6.15390E+02 -3.95394E+03
  2.22917E+03 -2.21629E+03  2.78684E+03 -1.11290E+03  2.70925E+03  9.89624E+02  5.34206E+02  1.67298E+03
 -1.74066E+03  4.66196E+02 -2.21396E+03 -1.33132E+03  9.12034E+02 -2.83011E+03  3.99110E+03 -2.68496E+03
  4.69277E+03  1.81447E+02  4.90999E+03  3.08519E+03  1.88786E+03  5.14267E+03 -1.64416E+03  5.04406E+03
 -3.88254E+03  2.31338E+03 -3.56040E+03 -2.66064E+02 -2.12889E+03 -4.23448E+03  6.27816E+02 -2.70094E+03
  3.20152E+03 -1.75796E+03  2.08823E+03  9.59508E+02  4.36957E+02  2.87595E+03 -2.37079E+02  2.47103E+03
 -1.24328E+03  1.69717E+03 -1.17213E+03  5.94526E+02 -1.95885E+02  1.18634E+01 -1.03697E+03  1.26090E+03
 -1.35896E+03  2.03548E+03 -3.13290E+03  1.62852E+03 -4.95345E+03  2.20377E+02 -5.60487E+03 -3.46088E+03
 -2.57347E+03 -6.53148E+03  1.46745E+03 -7.05696E+03  4.07677E+03 -5.76481E+03  6.97144E+03 -2.18806E+03
  6.10236E+03  8.90393E+02  3.86116E+03  4.39973E+03 -5.83234E+01  4.16922E+03 -1.98860E+03  3.93548E+03
 -2.52253E+03  1.23185E+03 -1.45744E+03 -5.09143E+02 -4.75267E+02 -3.08010E+02 -8.29238E+01  1.59714E+02
 -1.74173E+03  3.50428E+02 -1.65491E+03  4.38109E+02  3.65752E+02 -1.21834E+03  1.27069E+02 -1.23584E+03
  2.76641E+03 -1.20593E+03  2.42631E+03  7.39807E+01  3.08420E+03  2.26675E+03  2.85883E+02  3.97646E+03
 -2.53458E+03  5.66515E+03 -5.05568E+03  3.43551E+03 -5.58242E+03 -2.38452E+02 -3.84851E+03 -3.01416E+03
 -2.35027E+03 -3.95610E+03  9.95546E+02 -4.44300E+03  2.89019E+03 -2.47866E+03  2.15833E+03 -6.21550E+02
  2.14965E+03  1.64594E+03  2.40746E+02  1.30984E+03 -6.80374E+02  6.58662E+01  6.09795E+01 -1.43707E+03
  9.02721E+02 -5.21364E+01  9.11003E+02  1.70661E+03  8.31072E+02  1.79156E+03 -1.66891E+02  2.29415E+03
 -2.62031E+03  2.14290E+03 -2.91248E+03  8.94672E+01 -3.03975E+03 -2.18389E+03  1.42673E+02 -3.60274E+03
  2.38909E+03 -3.59373E+03  3.00963E+03 -5.68531E+02  3.82882E+03  2.08113E+02  2.16592E+03  2.81286E+03
  2.51088E+02  2.35442E+03 -1.35424E+03  2.49979E+03 -2.20671E+03  1.17590E+03 -1.72804E+03 -6.38071E+02
 -1.29443E+03  3.19743E+02 -1.67372E+03  6.13306E+02 -1.37421E+03  5.17939E+00 -2.01784E+03 -7.33942E+02
 -1.90933E+03 -8.61100E+02 -7.90468E+02 -2.93681E+03  1.24936E+03 -3.35107E+03  2.86415E+03 -1.14144E+03
  2.19308E+03  6.76818E+02  1.74611E+02  1.71480E+03 -3.44399E+02  2.41557E+03 -2.37056E+03  1.89699E+03
