 $NMID ID='MM_0lb_SNR400_13hz_g40_86.RAW', FMTDAT='(8E13.5)'
 TRAMP=1., VOLUME=1. $END
  3.09885E+05  5.38163E+02  3.36855E+05  2.50327E+05  8.45820E+04  3.37480E+05 -1.32227E+05  2.51519E+05
 -1.89987E+05  8.20081E+04 -1.11762E+05 -3.30375E+04  7.91556E+02 -4.99743E+04  5.34431E+04 -7.61831E+02
  3.53137E+04  5.24334E+04 -1.66566E+04  7.58119E+04 -6.06585E+04  6.36296E+04 -8.38359E+04  3.21477E+04
 -8.17485E+04 -1.19177E+04 -5.71595E+04 -5.20672E+04 -1.47900E+04 -7.00797E+04  2.68218E+04 -4.57296E+04
  4.00445E+04  3.54103E+03  1.63874E+04  4.83382E+04 -3.44240E+04  4.70081E+04 -6.67049E+04 -5.34753E+02
 -5.33134E+04 -5.67000E+04 -6.56478E+03 -7.66736E+04  3.34874E+04 -5.45951E+04  4.74914E+04 -1.69722E+04
  4.28039E+04  1.07376E+04  3.19157E+04  2.61562E+04  1.54828E+04  2.94737E+04 -5.12475E+03  2.76107E+04
 -2.13031E+04  1.26896E+04 -1.88691E+04 -5.18584E+03  5.44286E+03 -6.91523E+03  2.26837E+04  1.19618E+04
  7.17718E+03  3.56678E+04 -3.26093E+04  3.55094E+04 -6.34702E+04  2.50680E+03 -5.67875E+04 -4.28091E+04
 -1.30283E+04 -6.37355E+04  3.96331E+04 -4.51958E+04  5.74853E+04 -2.18843E+03  3.41252E+04  3.25439E+04
 -5.48302E+03  3.56568E+04 -3.05577E+04  1.66328E+04 -3.01525E+04 -4.40220E+03 -1.68850E+04 -1.11852E+04
 -8.19931E+03 -1.36669E+04 -8.83437E+02 -1.79471E+04  7.45428E+03 -2.28334E+04  1.50197E+04 -1.31491E+04
  1.09428E+04  4.83410E+03 -8.34361E+03  1.26411E+04 -2.09953E+04 -4.16736E+03 -8.84383E+03 -3.35872E+04
  2.27716E+04 -4.33216E+04  4.84306E+04 -1.96777E+04  4.50297E+04  1.94378E+04  1.58177E+04  4.39221E+04
 -1.61765E+04  3.28521E+04 -2.47761E+04  1.11626E+03 -9.35296E+03 -2.79461E+04  2.13454E+04 -3.40727E+04
  4.14825E+04 -8.97507E+03  3.52872E+04  2.39492E+04  1.83764E+04  4.58344E+04 -7.96152E+03  5.03914E+04
 -3.15917E+04  3.40265E+04 -4.25280E+04  9.35957E+03 -4.22723E+04 -1.66983E+04 -2.36450E+04 -3.72368E+04
  7.25497E+03 -3.74358E+04  3.10802E+04 -1.53746E+04  2.93290E+04  1.08047E+04  4.00010E+03  1.84482E+04
 -1.38574E+04  7.86460E+03 -1.07477E+04 -7.64930E+03  5.79257E+03 -1.01846E+04  1.81267E+04  6.22808E+03
  1.33576E+04  2.26308E+04 -6.47909E+03  2.49945E+04 -2.26190E+04  1.13727E+04 -2.79671E+04 -5.07081E+03
 -2.03192E+04 -1.73927E+04 -8.91932E+03 -2.03693E+04  3.82053E+03 -1.97670E+04  1.59605E+04 -1.81261E+04
  2.57301E+04 -1.28419E+04  3.29811E+04  2.64893E+03  2.37828E+04  1.96900E+04  4.76358E+03  3.62379E+04
 -1.82289E+04  3.10222E+04 -2.82163E+04  1.05029E+04 -2.17610E+04 -9.83302E+03 -4.38282E+03 -1.40837E+04
  1.43196E+03 -2.94505E+03 -5.13192E+03  7.09221E+03 -1.59701E+04  5.28439E+03 -1.66181E+04 -7.03225E+03
 -1.08508E+04 -1.83900E+04  5.78231E+03 -2.33728E+04  1.52658E+04 -1.66979E+04  1.81626E+04 -1.60149E+03
  1.15631E+04  1.28454E+04 -1.06485E+03  1.89666E+04 -1.31844E+04  1.14349E+04 -1.92268E+04 -3.93804E+03
 -1.46719E+04 -1.63805E+04 -2.42979E+03 -2.34941E+04  1.14022E+04 -1.85441E+04  1.91720E+04 -8.41829E+03
  1.78930E+04  1.21363E+02  1.26869E+04  4.85177E+03  6.89175E+03  1.26017E+03  9.91723E+03 -1.53221E+03
  1.75609E+04  3.33561E+03  1.97508E+04  1.49937E+04  1.35369E+04  3.02943E+04 -2.74228E+03  3.46394E+04
 -2.01841E+04  2.79068E+04 -3.17527E+04  1.37512E+04 -3.37471E+04 -2.71576E+03 -2.77274E+04 -1.89944E+04
 -1.19933E+04 -2.76422E+04  9.41981E+03 -2.51178E+04  2.16776E+04 -1.24030E+04  1.88821E+04  5.49421E+03
  7.56485E+03  1.41629E+04 -9.42905E+03  1.30594E+04 -1.59659E+04  2.14484E+03 -1.25611E+04 -1.04875E+04
 -2.93972E+02 -1.58634E+04  7.65896E+03 -1.16079E+04  9.99541E+03 -1.32215E+03  2.06922E+03  6.79483E+03
 -6.53315E+03  2.70526E+03 -6.50003E+03 -5.50158E+03 -5.90211E+01 -1.31145E+04  9.37760E+03 -1.43161E+04
  1.71450E+04 -7.46260E+03  1.82737E+04  2.93261E+03  1.65141E+04  1.33817E+04  7.18518E+03  2.06451E+04
 -2.89108E+03  2.26300E+04 -1.48148E+04  1.44535E+04 -1.66018E+04  3.45111E+03 -1.15400E+04 -4.02705E+03
 -5.53751E+03 -5.46626E+03 -1.06437E+03  1.25496E+03 -1.61643E+03  2.99322E+03 -4.80034E+03  3.97432E+03
 -1.09105E+04 -8.92937E+02 -1.16558E+04 -8.61736E+03 -5.08474E+03 -1.42925E+04  5.02717E+03 -1.13689E+04
  9.83618E+03 -5.31859E+03  6.38141E+03  3.03563E+03 -6.28024E+01  3.89754E+03 -5.05932E+03 -6.21202E+01
 -5.11986E+03 -7.06685E+03 -7.83183E+02 -1.06788E+04  6.05632E+03 -1.14259E+04  1.41855E+04 -5.96613E+03
  1.62961E+04  8.40896E+02  1.23130E+04  9.92075E+03  2.45940E+03  1.34227E+04 -7.37088E+03  1.17230E+04
 -9.39484E+03  3.55801E+03 -4.62807E+03 -2.01799E+03  1.63979E+03 -3.10635E+03  6.37483E+03 -1.21602E+03
  5.84368E+03  5.02180E+03  9.54162E+02  8.67830E+03 -6.94973E+03  8.02570E+03 -1.09781E+04  2.10702E+03
 -7.21623E+03 -5.69277E+03  2.53487E+00 -9.76719E+03  5.71620E+03 -5.55233E+03  5.58375E+03  2.17502E+03
  1.32372E+03  6.31032E+03 -6.16880E+03  8.10862E+03 -8.51651E+03  3.65991E+03 -8.45961E+03 -3.14290E+03
 -4.76525E+03 -1.00989E+04  2.66407E+03 -1.18236E+04  1.03848E+04 -7.41300E+03  1.05605E+04  1.37529E+03
  7.19088E+03  8.29255E+03 -1.10653E+03  1.06408E+04 -7.89640E+03  6.53234E+03 -8.20015E+03 -6.20247E+02
 -7.92308E+03 -7.57315E+03 -1.69051E+03 -7.74683E+03  3.87584E+03 -6.23758E+03  5.34916E+03 -3.26576E+03
  3.77877E+03  6.26590E+02 -2.14616E+02  1.11097E+03  1.80883E+02 -2.22421E+03  1.06907E+03 -4.73167E+03
  6.48539E+03 -2.23140E+03  9.69324E+03  9.40351E+02  9.97772E+03  6.33763E+03  7.19825E+03  1.22632E+04
 -2.90491E+03  1.45941E+04 -1.24767E+04  1.05449E+04 -1.59169E+04  2.08513E+03 -1.32835E+04 -5.24333E+03
 -6.17247E+03 -1.08578E+04 -1.41267E+03 -8.53381E+03  3.31139E+03 -4.77396E+03  3.11702E+03 -2.92821E+03
  2.19330E+03 -2.41724E+03  3.66336E+03 -3.10138E+03  4.76117E+03 -2.76295E+03  5.37910E+03 -4.68649E+02
  7.43807E+03  2.17850E+03  2.78299E+03  5.78415E+03 -1.94523E+03  5.62854E+03 -6.54615E+03  4.96215E+03
 -8.95040E+03 -6.26259E+02 -5.67166E+03 -6.15978E+03 -2.46609E+02 -9.82169E+03  6.42355E+03 -9.73377E+03
  9.67143E+03 -5.33822E+03  1.20876E+04  1.77708E+03  8.43270E+03  8.23838E+03  1.65349E+03  1.01671E+04
 -4.32662E+03  9.38656E+03 -6.57356E+03  3.47032E+03 -4.62787E+03 -1.36941E+03 -1.54557E+03 -6.94860E+02
 -7.47152E+02 -3.88784E+02 -1.52569E+03  2.22671E+03 -3.60043E+03  1.63278E+03 -6.86394E+03 -1.04615E+03
 -3.22101E+03 -7.16404E+03  7.17233E+02 -9.00869E+03  4.84189E+03 -8.23808E+03  8.26217E+03 -2.31432E+03
  8.19319E+03  4.36818E+03  4.39885E+03  6.72477E+03 -2.03384E+03  8.60696E+03 -5.64914E+03  4.75341E+03
 -7.94575E+03  8.93343E+02 -6.62619E+03 -5.72036E+03  2.43676E+02 -6.51979E+03  3.39463E+03 -4.81517E+03
  5.57805E+03 -2.08475E+03  3.35306E+03  1.79253E+03  1.52917E+03  3.02257E+03  1.32373E+03  1.16221E+03
  2.34655E+03  1.19036E+03  2.62220E+03  1.15824E+03  2.52816E+03  3.53358E+03  2.20426E+03  3.37732E+03
 -2.29141E+03  6.95410E+03 -5.78371E+03  7.40289E+03 -8.10630E+03  1.65976E+03 -7.98578E+03 -3.26243E+03
 -4.38134E+03 -8.21003E+03  1.65403E+03 -9.50670E+03  5.20706E+03 -5.64491E+03  7.19172E+03 -1.96667E+03
  5.51380E+03  3.15399E+03  1.53385E+03  4.92700E+03 -2.40298E+03  3.48181E+03 -3.12414E+03 -3.55251E+02
 -9.00033E+02 -3.26424E+03  2.07764E+03 -3.57972E+03  3.16119E+03 -2.13419E+03  3.06042E+03  7.05910E+02
  2.16413E+03  2.30940E+03  1.47597E+03  4.31846E+02 -6.71689E+02  9.17988E+02  1.65541E+03 -1.78104E+02
  1.03889E+03 -1.74235E+02  3.76414E+03  1.19008E+03  1.59752E+03  4.13062E+03 -4.76961E+02  5.75424E+03
 -4.19994E+03  3.64414E+03 -5.44494E+03  4.98049E+02 -4.41191E+03 -2.17973E+03 -1.31763E+03 -2.94434E+03
  8.28845E+02 -2.79891E+03  2.27145E+03 -1.04808E+03  2.22341E+03  1.94997E+03 -1.13780E+03  2.55735E+03
 -3.76757E+03  2.35693E+03 -3.12227E+03 -1.69923E+03 -2.79528E+03 -4.99338E+03  5.01013E+01 -4.35402E+03
  1.98777E+03 -2.59005E+03  3.07028E+03  2.23849E+01  2.82760E+03  1.28997E+03  2.93165E+02  2.56396E+03
 -1.04138E+03  2.72881E+02 -1.69046E+03 -1.35782E+03  5.20945E+02 -2.54190E+03  4.20493E+03 -3.11698E+03
  4.42342E+03  5.28754E+02  5.45870E+03  2.83558E+03  1.57194E+03  4.57983E+03 -1.47596E+03  4.34442E+03
 -4.14448E+03  1.69852E+03 -3.96731E+03 -3.97840E+02 -1.66533E+03 -3.31456E+03  5.72043E+02 -2.38947E+03
  3.61422E+03 -1.84598E+03  2.58237E+03  1.42693E+03  6.92407E+02  3.09328E+03  3.09159E+02  2.29157E+03
 -1.32606E+03  1.90381E+03 -6.48233E+02  4.04954E+02 -5.27044E+02  5.09740E+02 -1.88453E+03  1.15936E+03
 -1.97159E+03  2.34982E+03 -3.68929E+03  1.49120E+03 -4.40319E+03 -2.20416E+02 -6.18368E+03 -3.18501E+03
 -2.66509E+03 -6.83942E+03  1.13597E+03 -7.23901E+03  4.66995E+03 -5.88384E+03  7.06494E+03 -1.94330E+03
  6.37696E+03  1.17797E+03  3.74814E+03  4.41861E+03 -6.79007E+02  5.15705E+03 -1.79888E+03  4.03658E+03
 -3.04979E+03  1.83921E+03 -2.27587E+03 -9.72552E+02 -9.53861E+02 -3.23040E+02 -3.05236E+02  8.60819E+02
 -1.28269E+03 -2.47828E+01 -9.81517E+02  4.16752E+02  4.99814E+01 -8.52551E+02 -4.54349E+02 -2.10052E+03
  2.55341E+03 -1.61024E+03  2.14588E+03  6.68606E+02  3.94078E+03  2.58902E+03  1.21688E+02  4.02029E+03
 -2.08883E+03  5.86438E+03 -4.96680E+03  3.42596E+03 -5.48168E+03 -3.89363E+02 -3.90711E+03 -3.74308E+03
 -2.12271E+03 -4.20166E+03  5.78870E+02 -4.30917E+03  2.38438E+03 -1.96345E+03  2.76975E+03 -4.29577E+02
  2.20229E+03  9.73659E+02 -5.06257E+01  1.65068E+03 -8.26374E+02 -1.36595E+02 -5.18390E+02 -8.49744E+02
  1.64637E+03 -5.86481E+02  2.12562E+03  6.91752E+02  1.42279E+03  1.17872E+03  9.04324E+00  1.92293E+03
 -1.57837E+03  2.11177E+03 -2.34974E+03 -1.40351E+02 -2.48348E+03 -1.94438E+03 -6.22206E+02 -3.74748E+03
  2.43812E+03 -3.20240E+03  3.18604E+03 -5.90040E+02  3.90828E+03  1.55720E+02  1.93085E+03  2.32859E+03
  4.01721E+02  2.69546E+03 -9.07354E+02  2.02458E+03 -1.98706E+03  1.54204E+03 -1.55721E+03  4.64674E+02
 -1.13929E+03  6.29995E+01 -3.67013E+02  9.61603E+02 -1.62408E+03  2.54035E+02 -2.12412E+03 -2.98187E+02
 -2.43447E+03 -6.67202E+02 -1.54098E+03 -3.42010E+03  1.39549E+03 -4.09265E+03  2.56305E+03 -1.33455E+03
  3.16997E+03 -1.13056E+02  1.00643E+03  1.75756E+03  3.96521E+02  2.21548E+03 -2.25321E+03  1.91804E+03
