 $NMID ID='MM_0lb_SNR400_13hz_g60_71.RAW', FMTDAT='(8E13.5)'
 TRAMP=1., VOLUME=1. $END
  3.09885E+05  5.99595E+02  3.38049E+05  2.51147E+05  8.51621E+04  3.38825E+05 -1.33235E+05  2.51316E+05
 -1.91020E+05  8.36941E+04 -1.11732E+05 -3.25481E+04  8.61639E+02 -5.11184E+04  5.42484E+04 -5.98913E+02
  3.62518E+04  5.29397E+04 -1.62849E+04  7.53239E+04 -6.02964E+04  6.43723E+04 -8.51688E+04  3.26495E+04
 -8.22848E+04 -1.19536E+04 -5.76686E+04 -5.16477E+04 -1.52919E+04 -7.07571E+04  2.84607E+04 -4.58941E+04
  4.09777E+04  3.16370E+03  1.63748E+04  4.89152E+04 -3.44376E+04  4.84933E+04 -6.72616E+04 -4.06787E+01
 -5.42649E+04 -5.71090E+04 -7.40423E+03 -7.79061E+04  3.43983E+04 -5.62029E+04  4.88878E+04 -1.75799E+04
  4.39285E+04  1.17157E+04  3.24631E+04  2.62051E+04  1.66322E+04  2.95253E+04 -5.41108E+03  2.72002E+04
 -2.19219E+04  1.21253E+04 -1.82299E+04 -5.50961E+03  5.94261E+03 -7.35468E+03  2.31186E+04  1.26274E+04
  7.68613E+03  3.61194E+04 -3.27942E+04  3.63652E+04 -6.49170E+04  2.47957E+03 -5.76290E+04 -4.36667E+04
 -1.32098E+04 -6.47281E+04  4.00021E+04 -4.59329E+04  5.98896E+04 -1.68058E+03  3.46538E+04  3.32145E+04
 -5.33226E+03  3.76605E+04 -3.15646E+04  1.73734E+04 -3.31570E+04 -3.90042E+03 -1.77908E+04 -1.16066E+04
 -9.25630E+03 -1.42236E+04 -1.06536E+03 -1.91822E+04  7.87019E+03 -2.32755E+04  1.61334E+04 -1.34462E+04
  1.06352E+04  5.68127E+03 -9.71046E+03  1.32815E+04 -2.17715E+04 -5.99232E+03 -8.50701E+03 -3.57968E+04
  2.44597E+04 -4.52725E+04  4.99302E+04 -1.98795E+04  4.70617E+04  1.98617E+04  1.64595E+04  4.64129E+04
 -1.57451E+04  3.41056E+04 -2.69899E+04  1.66985E+03 -1.07989E+04 -2.90236E+04  2.14592E+04 -3.56507E+04
  4.30891E+04 -1.01902E+04  3.81211E+04  2.52133E+04  1.99427E+04  4.85777E+04 -7.82928E+03  5.29424E+04
 -3.42364E+04  3.59904E+04 -4.46584E+04  1.02461E+04 -4.47704E+04 -1.71217E+04 -2.42186E+04 -3.97785E+04
  7.25355E+03 -3.98859E+04  3.29440E+04 -1.58038E+04  2.98927E+04  1.22460E+04  4.65809E+03  2.03875E+04
 -1.34710E+04  8.38446E+03 -1.12451E+04 -7.46974E+03  5.61565E+03 -1.12475E+04  1.82946E+04  4.89905E+03
  1.43138E+04  2.24003E+04 -6.20258E+03  2.61795E+04 -2.24218E+04  1.32189E+04 -2.98705E+04 -4.16086E+03
 -2.24869E+04 -1.77835E+04 -9.80534E+03 -2.22977E+04  3.75988E+03 -2.25870E+04  1.77041E+04 -2.07760E+04
  2.89641E+04 -1.30661E+04  3.52195E+04  3.57101E+03  2.51628E+04  2.15617E+04  4.27437E+03  3.83898E+04
 -1.85467E+04  3.25481E+04 -2.91524E+04  1.11622E+04 -2.16869E+04 -1.00534E+04 -4.53741E+03 -1.30941E+04
  1.48343E+03 -1.93147E+03 -6.64548E+03  7.32620E+03 -1.77069E+04  5.02646E+03 -1.77441E+04 -8.21041E+03
 -1.09290E+04 -2.03621E+04  5.22307E+03 -2.49237E+04  1.66835E+04 -1.87912E+04  2.06382E+04 -1.28809E+03
  1.29381E+04  1.53519E+04 -1.33257E+03  2.08059E+04 -1.47382E+04  1.21596E+04 -2.10904E+04 -4.71471E+03
 -1.50379E+04 -1.88616E+04 -1.39984E+03 -2.55307E+04  1.11499E+04 -2.07665E+04  2.10921E+04 -1.08727E+04
  2.02468E+04 -5.36991E+01  1.47464E+04  4.65330E+03  7.41468E+03  7.29995E+02  1.07703E+04 -1.66638E+03
  1.87356E+04  3.53119E+03  2.21396E+04  1.62521E+04  1.47959E+04  3.37315E+04 -2.94183E+03  3.82717E+04
 -2.20854E+04  3.15988E+04 -3.62329E+04  1.61952E+04 -3.82550E+04 -2.40927E+03 -3.15894E+04 -2.17384E+04
 -1.28635E+04 -3.15755E+04  1.13841E+04 -2.80142E+04  2.37025E+04 -1.43475E+04  2.22422E+04  6.22167E+03
  7.84638E+03  1.60099E+04 -1.05718E+04  1.41366E+04 -1.80209E+04  2.70587E+03 -1.40339E+04 -1.15424E+04
  3.01465E+02 -1.65569E+04  9.92743E+03 -1.28636E+04  1.08127E+04 -2.27745E+03  2.33039E+03  8.11956E+03
 -7.77115E+03  3.39640E+03 -6.78227E+03 -5.91795E+03 -1.07612E+03 -1.57895E+04  1.01979E+04 -1.63586E+04
  1.88738E+04 -8.73937E+03  2.14207E+04  3.57207E+03  1.84961E+04  1.54352E+04  9.01610E+03  2.40961E+04
 -3.53601E+03  2.52028E+04 -1.67564E+04  1.57078E+04 -1.78061E+04  4.04255E+03 -1.34868E+04 -4.92443E+03
 -5.79209E+03 -5.73223E+03 -3.27261E+02  8.15760E+02 -2.08735E+03  2.65235E+03 -6.18173E+03  5.26747E+03
 -1.16849E+04 -1.01954E+03 -1.21596E+04 -1.09614E+04 -5.13134E+03 -1.64426E+04  5.65398E+03 -1.33832E+04
  1.05699E+04 -5.59545E+03  7.24933E+03  2.96441E+03 -2.54713E+02  5.59541E+03 -6.24555E+03 -5.28480E+02
 -6.00937E+03 -7.94733E+03 -6.28125E+02 -1.23593E+04  6.79567E+03 -1.27302E+04  1.65252E+04 -6.46551E+03
  1.94550E+04  2.42220E+03  1.47227E+04  1.09332E+04  2.68726E+03  1.52668E+04 -7.86755E+03  1.25850E+04
 -1.06642E+04  4.67535E+03 -5.02708E+03 -3.15374E+03  1.96709E+03 -3.27914E+03  6.51074E+03 -1.14222E+03
  6.88641E+03  5.66722E+03  8.98753E+02  1.03948E+04 -6.68001E+03  9.63860E+03 -1.31435E+04  2.54187E+03
 -8.33028E+03 -6.40894E+03  2.72550E+01 -1.10549E+04  6.76699E+03 -6.05043E+03  7.13389E+03  2.58310E+03
  1.78514E+03  7.39192E+03 -6.12903E+03  9.08271E+03 -9.96599E+03  4.12335E+03 -1.00777E+04 -3.91960E+03
 -5.87728E+03 -1.10208E+04  2.87362E+03 -1.36219E+04  1.19236E+04 -8.28358E+03  1.28451E+04  1.81728E+03
  8.49800E+03  1.00276E+04 -1.30740E+03  1.20021E+04 -9.22931E+03  6.66832E+03 -9.26454E+03 -6.55518E+02
 -8.27361E+03 -8.64886E+03 -2.00215E+03 -9.15582E+03  4.38641E+03 -6.98732E+03  5.50135E+03 -3.79556E+03
  4.22892E+03  1.10194E+03 -1.31230E+03  1.20880E+03 -1.31625E+02 -1.83477E+03  1.14166E+03 -5.25921E+03
  7.98848E+03 -3.18529E+03  1.19052E+04  1.39533E+03  1.13215E+04  7.93259E+03  7.98400E+03  1.48805E+04
 -3.52038E+03  1.78005E+04 -1.53985E+04  1.31788E+04 -1.91073E+04  2.58241E+03 -1.56759E+04 -6.62242E+03
 -8.25528E+03 -1.26942E+04 -4.18161E+02 -1.03242E+04  4.00975E+03 -5.70057E+03  3.09636E+03 -3.57585E+03
  3.11170E+03 -2.36420E+03  4.04489E+03 -3.74461E+03  4.66811E+03 -2.19626E+03  6.18482E+03 -1.49328E+02
  8.22777E+03  2.20842E+03  3.64961E+03  7.34877E+03 -1.78631E+03  7.51967E+03 -8.08631E+03  6.33384E+03
 -1.08915E+04 -1.54272E+03 -6.15912E+03 -7.10896E+03 -8.78851E+02 -1.04730E+04  6.21500E+03 -1.11191E+04
  1.09216E+04 -6.07103E+03  1.39533E+04  1.94067E+03  9.93769E+03  9.20422E+03  1.72142E+03  1.24407E+04
 -5.10316E+03  1.05980E+04 -6.97101E+03  3.68338E+03 -4.46824E+03 -1.64953E+03 -2.23586E+03 -1.43549E+03
 -7.51742E+02 -2.62641E+02 -1.59952E+03  2.86980E+03 -4.74456E+03  2.10670E+03 -6.42098E+03 -1.44156E+03
 -4.80317E+03 -6.89236E+03  1.92036E+02 -9.64778E+03  6.22447E+03 -9.26325E+03  1.00290E+04 -2.57092E+03
  9.53607E+03  4.42531E+03  4.41003E+03  8.68128E+03 -2.75188E+03  1.00450E+04 -6.79009E+03  6.33907E+03
 -8.82059E+03  9.18002E+02 -7.12361E+03 -6.05195E+03 -8.88392E+02 -8.50893E+03  3.72200E+03 -6.90092E+03
  6.41289E+03 -2.53790E+03  3.57234E+03  1.52981E+03  1.10179E+03  2.35758E+03  8.12755E+02  1.92716E+03
  2.35627E+03  4.96694E+02  2.48076E+03  8.10278E+02  3.00810E+03  4.07982E+03  3.00367E+03  4.83942E+03
 -1.91565E+03  7.22164E+03 -6.54942E+03  7.86767E+03 -9.05801E+03  1.64279E+03 -1.04263E+04 -3.20727E+03
 -4.18322E+03 -9.94814E+03  1.77752E+03 -1.09797E+04  5.18117E+03 -6.65742E+03  7.72594E+03 -2.03620E+03
  5.87001E+03  3.08108E+03  9.97112E+02  5.64805E+03 -2.89153E+03  3.70501E+03 -3.75171E+03 -4.47278E+02
 -1.55767E+03 -4.64042E+03  2.72364E+03 -4.48253E+03  4.04808E+03 -1.82431E+03  3.80856E+03  8.05843E+02
  2.32291E+03  1.51692E+03  4.70028E+02  9.73105E+02 -1.03890E+03  6.37846E+02  1.34223E+03 -7.45885E+02
  6.76723E+02  1.05008E+02  3.55474E+03  1.43257E+03  1.95726E+03  4.56943E+03 -1.08831E+03  6.18407E+03
 -4.53864E+03  3.94244E+03 -5.40852E+03  1.89774E+03 -4.88458E+03 -1.75689E+03 -1.63344E+03 -4.15479E+03
  1.15267E+03 -3.83675E+03  2.25887E+03 -1.52916E+03  1.72394E+03  2.16401E+03 -6.54088E+02  3.00727E+03
 -4.11148E+03  2.13214E+03 -4.44168E+03 -2.57007E+03 -1.79497E+03 -4.19319E+03  1.13403E+03 -5.10789E+03
  2.61394E+03 -2.51829E+03  3.53683E+03 -5.46659E+02  2.88927E+03  9.29519E+02  5.81098E+02  2.20581E+03
 -1.20690E+03  7.95862E+02 -2.13202E+03 -1.39752E+03  7.17159E+02 -3.24559E+03  4.19603E+03 -2.53044E+03
  4.42898E+03  5.28240E+02  5.87237E+03  3.08883E+03  2.51508E+03  5.62543E+03 -1.19880E+03  5.17632E+03
 -4.56915E+03  1.88114E+03 -4.89144E+03 -8.12339E+02 -3.09480E+03 -3.37069E+03  1.35082E+03 -3.66406E+03
  2.94470E+03 -1.80780E+03  2.51117E+03  1.97461E+03  5.56073E+02  3.28863E+03 -2.98190E+02  3.03978E+03
 -1.18900E+03  1.50296E+03 -9.04897E+02  2.53416E+02 -7.56835E+02 -9.72847E+00 -1.83404E+03  1.10570E+03
 -1.55126E+03  3.08236E+03 -3.79505E+03  1.95198E+03 -6.15370E+03  9.56458E+01 -6.14360E+03 -3.16939E+03
 -2.79289E+03 -6.40752E+03  7.51629E+02 -7.54454E+03  5.16269E+03 -6.44704E+03  7.47770E+03 -2.25481E+03
  6.80711E+03  6.62103E+02  4.60520E+03  4.57074E+03  7.05079E+02  5.82895E+03 -2.51126E+03  4.16113E+03
 -2.66159E+03  1.85631E+03 -2.34211E+03 -9.61838E+02 -1.33196E+03 -2.02685E+01 -9.71371E+01  2.59474E+01
 -1.30928E+03 -1.02953E+02 -2.14322E+03 -2.88419E+02  2.36187E+02 -1.84000E+03 -1.83702E+02 -1.35074E+03
  2.12323E+03 -9.28804E+02  3.34446E+03  1.77212E+02  3.95283E+03  2.71844E+03  1.04088E+03  4.89302E+03
 -1.77457E+03  6.10318E+03 -5.02318E+03  3.45693E+03 -6.15553E+03 -1.24319E+02 -3.92839E+03 -4.20382E+03
 -2.33516E+03 -5.84458E+03  9.55857E+02 -4.68064E+03  2.49067E+03 -2.64324E+03  2.77590E+03  1.54145E+02
  1.83389E+03  1.56744E+03 -4.29766E+02  2.11704E+03 -1.14791E+03 -1.46581E+02 -2.98214E+02 -1.39424E+03
  1.88484E+03 -1.29095E+02  1.88750E+03  1.10094E+03  1.47800E+03  2.28279E+03  1.20965E+02  2.14752E+03
 -2.50966E+03  1.92786E+03 -3.00846E+03 -3.29429E+01 -3.36509E+03 -2.23344E+03 -4.98951E+02 -4.10432E+03
  2.10937E+03 -3.44338E+03  3.38481E+03 -6.37713E+02  3.33441E+03 -5.05104E+02  1.75307E+03  2.45621E+03
 -1.06130E+02  2.19166E+03 -1.24047E+03  2.23329E+03 -2.37470E+03  1.04079E+03 -1.81825E+03  5.69208E+02
 -1.22114E+03 -2.00586E+01 -1.05843E+03  1.02682E+03 -1.72876E+03  2.72193E+02 -1.84240E+03 -4.60220E+02
 -2.22888E+03 -1.45233E+03 -7.40994E+02 -3.78952E+03  1.85851E+03 -2.98637E+03  3.23811E+03 -1.36330E+03
  2.40970E+03 -1.98270E+02  1.46608E+03  1.57428E+03 -4.55234E+02  2.99845E+03 -2.91059E+03  1.85124E+03
