 $NMID ID='MM_0lb_SNR400_8hz_g55_69.RAW', FMTDAT='(8E13.5)'
 TRAMP=1., VOLUME=1. $END
  3.09354E+05  9.50315E+01  3.38791E+05  2.50989E+05  8.50061E+04  3.38180E+05 -1.32811E+05  2.52640E+05
 -1.90642E+05  8.41361E+04 -1.13076E+05 -3.22476E+04 -5.17887E+02 -5.08792E+04  5.38390E+04 -7.60296E+02
  3.58803E+04  5.31182E+04 -1.70465E+04  7.63356E+04 -6.18616E+04  6.53089E+04 -8.57233E+04  3.29771E+04
 -8.25334E+04 -1.11018E+04 -5.82651E+04 -5.25370E+04 -1.49275E+04 -7.16987E+04  2.98778E+04 -4.69082E+04
  4.09204E+04  3.91288E+03  1.72425E+04  4.90239E+04 -3.46095E+04  4.81042E+04 -6.84613E+04 -6.22308E+01
 -5.56190E+04 -5.85699E+04 -7.20763E+03 -7.90815E+04  3.46235E+04 -5.82739E+04  5.02885E+04 -1.88056E+04
  4.60234E+04  1.15035E+04  3.21874E+04  2.57040E+04  1.50886E+04  3.10231E+04 -6.78441E+03  2.83578E+04
 -2.23014E+04  1.28440E+04 -1.80927E+04 -5.11048E+03  7.83938E+03 -7.07183E+03  2.39237E+04  1.45934E+04
  6.52023E+03  3.74442E+04 -3.40344E+04  3.70883E+04 -6.57852E+04  2.34938E+03 -5.91609E+04 -4.53642E+04
 -1.21759E+04 -6.70808E+04  4.24852E+04 -4.72019E+04  6.25865E+04 -2.72491E+03  3.73627E+04  3.44857E+04
 -6.35480E+03  4.01147E+04 -3.22579E+04  1.96328E+04 -3.45984E+04 -3.85504E+03 -1.97650E+04 -1.21444E+04
 -1.00604E+04 -1.48242E+04 -8.20486E+02 -2.06445E+04  8.61631E+03 -2.35270E+04  1.55436E+04 -1.31909E+04
  1.07320E+04  6.89646E+03 -1.15382E+04  1.26400E+04 -2.35886E+04 -8.02878E+03 -8.30290E+03 -3.84072E+04
  2.50715E+04 -4.74883E+04  5.34166E+04 -2.19758E+04  4.96417E+04  2.11712E+04  1.77878E+04  4.78900E+04
 -1.68480E+04  3.68612E+04 -2.86089E+04  2.63593E+03 -1.24637E+04 -3.03468E+04  2.12641E+04 -3.74450E+04
  4.53000E+04 -1.18609E+04  4.16640E+04  2.47877E+04  2.15050E+04  5.24255E+04 -9.32358E+03  5.71294E+04
 -3.64824E+04  3.95072E+04 -4.84868E+04  1.18286E+04 -4.91850E+04 -1.95514E+04 -2.60816E+04 -4.34261E+04
  8.37555E+03 -4.41085E+04  3.52331E+04 -1.86862E+04  3.21031E+04  1.13774E+04  5.66561E+03  2.15009E+04
 -1.38391E+04  1.01236E+04 -1.16296E+04 -7.23736E+03  5.48825E+03 -1.10371E+04  1.95464E+04  5.32801E+03
  1.55205E+04  2.24486E+04 -4.97839E+03  2.84732E+04 -2.38052E+04  1.54983E+04 -3.23892E+04 -2.69467E+03
 -2.70087E+04 -1.93524E+04 -1.25941E+04 -2.67748E+04  3.61117E+03 -2.93145E+04  2.13540E+04 -2.44368E+04
  3.44218E+04 -1.53055E+04  3.95946E+04  4.77857E+03  2.85282E+04  2.49725E+04  3.74933E+03  4.31836E+04
 -2.02213E+04  3.49193E+04 -3.07946E+04  1.23210E+04 -2.30162E+04 -1.04970E+04 -5.56190E+03 -1.33304E+04
  1.82560E+02 -9.91663E+02 -8.88773E+03  8.17680E+03 -2.18276E+04  5.40549E+03 -2.11283E+04 -1.04583E+04
 -1.27960E+04 -2.42649E+04  6.69038E+03 -2.83676E+04  2.02286E+04 -2.05282E+04  2.39974E+04 -2.37189E+03
  1.59651E+04  1.67695E+04 -1.20538E+03  2.42014E+04 -1.75039E+04  1.40628E+04 -2.54568E+04 -4.71132E+03
 -1.88314E+04 -2.19697E+04 -2.21013E+03 -2.96991E+04  1.32114E+04 -2.45674E+04  2.46122E+04 -1.32597E+04
  2.36045E+04 -2.77544E+02  1.67994E+04  4.90485E+03  1.02977E+04  1.87644E+03  1.28783E+04 -2.44293E+03
  2.38603E+04  2.43708E+03  2.72585E+04  1.84171E+04  1.95446E+04  3.92003E+04 -1.71176E+03  4.78852E+04
 -2.66888E+04  3.97630E+04 -4.52868E+04  2.11887E+04 -4.88106E+04 -4.23010E+03 -3.86680E+04 -2.85324E+04
 -1.46697E+04 -4.08556E+04  1.45049E+04 -3.44845E+04  2.95032E+04 -1.61784E+04  2.64889E+04  8.97303E+03
  7.28729E+03  1.97465E+04 -1.21148E+04  1.73455E+04 -2.15284E+04  3.06983E+03 -1.63469E+04 -1.36248E+04
  7.13807E+02 -2.03998E+04  1.12878E+04 -1.59516E+04  1.44124E+04 -1.40038E+03  2.96498E+03  9.65795E+03
 -9.81552E+03  5.15579E+03 -9.76566E+03 -7.63411E+03 -1.79211E+03 -1.92668E+04  1.20439E+04 -2.15801E+04
  2.38268E+04 -1.19710E+04  2.88508E+04  3.95212E+03  2.51866E+04  2.02524E+04  1.22829E+04  3.21945E+04
 -6.02146E+03  3.40540E+04 -2.22260E+04  2.05252E+04 -2.45522E+04  4.53380E+03 -1.80179E+04 -5.68964E+03
 -7.23580E+03 -8.21220E+03  5.13708E+01 -1.11555E+00 -2.66125E+03  4.09617E+03 -8.56489E+03  6.50514E+03
 -1.51801E+04 -8.90432E+02 -1.49985E+04 -1.27419E+04 -5.67996E+03 -2.12350E+04  7.20107E+03 -1.74874E+04
  1.39785E+04 -6.86476E+03  1.04748E+04  5.04154E+03 -1.02612E+03  6.91270E+03 -8.37414E+03 -1.69077E+02
 -7.71707E+03 -1.20274E+04 -1.86981E+02 -1.78272E+04  1.07715E+04 -1.80914E+04  2.14329E+04 -9.08528E+03
  2.50780E+04  2.07062E+03  1.81173E+04  1.56537E+04  3.68367E+03  2.06074E+04 -1.10708E+04  1.62552E+04
 -1.37188E+04  5.13614E+03 -7.50486E+03 -4.85711E+03  2.65528E+03 -5.64177E+03  8.88568E+03 -1.65392E+03
  7.55568E+03  7.15091E+03  1.87834E+03  1.44805E+04 -9.77841E+03  1.31208E+04 -1.73628E+04  3.77558E+03
 -1.19501E+04 -9.33563E+03 -1.72257E+01 -1.45442E+04  9.41004E+03 -7.21554E+03  1.07333E+04  3.93089E+03
  3.77531E+03  1.23604E+04 -9.56165E+03  1.29936E+04 -1.48902E+04  6.11902E+03 -1.66690E+04 -5.74721E+03
 -9.25016E+03 -1.75503E+04  4.44953E+03 -2.02972E+04  1.74694E+04 -1.09569E+04  1.93792E+04  3.95453E+03
  1.19702E+04  1.46999E+04 -1.45329E+03  1.84335E+04 -1.28080E+04  1.07581E+04 -1.47304E+04 -1.20577E+03
 -1.19446E+04 -1.20979E+04 -1.99684E+03 -1.30406E+04  7.22252E+03 -1.15508E+04  8.97770E+03 -4.84884E+03
  4.95972E+03  3.47776E+03 -1.49855E+03  2.36783E+03 -1.43569E+03 -5.10132E+03  2.90567E+03 -8.08806E+03
  1.32000E+04 -6.09993E+03  1.89296E+04  1.69836E+03  1.76933E+04  1.28957E+04  1.11996E+04  2.34612E+04
 -6.60066E+03  2.70189E+04 -2.19472E+04  1.95273E+04 -2.85155E+04  4.49530E+03 -2.27678E+04 -9.53609E+03
 -1.18189E+04 -1.99784E+04 -1.46430E+02 -1.63835E+04  5.59509E+03 -9.60942E+03  6.44179E+03 -5.84611E+03
  4.12607E+03 -2.90900E+03  4.48768E+03 -4.73453E+03  6.21568E+03 -4.59828E+03  8.67511E+03 -1.98356E+03
  1.24754E+04  2.88421E+03  6.84290E+03  9.84681E+03 -2.04312E+03  1.32301E+04 -1.27180E+04  9.83590E+03
 -1.74709E+04 -2.14431E+03 -1.05624E+04 -1.16473E+04 -1.25791E+03 -1.88592E+04  1.01176E+04 -1.74738E+04
  1.89823E+04 -9.48285E+03  2.27059E+04  2.78609E+03  1.62638E+04  1.58356E+04  2.71846E+03  2.10516E+04
 -8.04625E+03  1.51262E+04 -1.28327E+04  5.75165E+03 -9.08095E+03 -1.52881E+03 -3.48297E+03 -3.02563E+03
 -6.67671E+02 -1.18835E+03 -2.24777E+03  3.79363E+03 -7.15323E+03  3.21342E+03 -1.09880E+04 -9.80983E+02
 -8.36063E+03 -1.22241E+04 -9.23010E+02 -1.71748E+04  1.04891E+04 -1.53702E+04  1.70595E+04 -4.90115E+03
  1.65317E+04  7.95915E+03  7.29214E+03  1.55691E+04 -2.50918E+03  1.82172E+04 -1.28329E+04  1.15858E+04
 -1.66358E+04  2.34624E+02 -1.24367E+04 -1.07074E+04 -1.78300E+03 -1.43954E+04  7.91031E+03 -1.09680E+04
  1.12397E+04 -2.82740E+03  7.11970E+03  2.87062E+03  2.13219E+03  4.74218E+03  1.80742E+03  2.12594E+03
  2.82159E+03  2.34811E+03  4.19601E+03  2.42378E+03  4.56870E+03  5.46921E+03  3.75428E+03  9.87640E+03
 -4.10092E+03  1.40205E+04 -1.26187E+04  1.34276E+04 -1.81309E+04  3.96805E+03 -1.82588E+04 -7.92577E+03
 -8.81346E+03 -1.69695E+04  3.06303E+03 -1.92767E+04  1.10247E+04 -1.20131E+04  1.49315E+04 -2.24648E+03
  1.14262E+04  6.27065E+03  2.54866E+03  1.02531E+04 -5.48543E+03  6.87228E+03 -7.30385E+03 -9.92414E+02
 -3.49301E+03 -7.29079E+03  4.01561E+03 -7.82544E+03  7.11034E+03 -4.50167E+03  6.73572E+03  1.39240E+03
  4.37991E+03  4.43340E+03  1.28636E+03  3.49052E+03 -1.04184E+03  2.83129E+03  1.13956E+03 -1.46297E+03
  2.93291E+03 -4.93224E+02  7.19305E+03  3.14338E+03  4.10038E+03  1.02995E+04 -2.02104E+03  1.29338E+04
 -8.42388E+03  8.25296E+03 -1.07890E+04  1.59022E+03 -1.06347E+04 -4.58317E+03 -3.64970E+03 -6.97008E+03
  6.22959E+02 -7.44183E+03  4.66994E+03 -2.96212E+03  5.04007E+03  3.12917E+03 -1.96447E+03  5.92642E+03
 -7.46497E+03  3.39622E+03 -8.97129E+03 -3.87098E+03 -4.41014E+03 -9.00133E+03  1.76422E+03 -1.07309E+04
  5.95269E+03 -5.53254E+03  7.85258E+03 -1.52808E+03  5.79041E+03  2.00873E+03  1.05980E+03  4.78826E+03
 -3.68326E+03  1.79848E+03 -5.15578E+03 -3.67312E+03  1.75626E+03 -8.06266E+03  8.76368E+03 -6.53453E+03
  1.16008E+04  3.06711E+02  1.06117E+04  8.54895E+03  3.69513E+03  1.32188E+04 -4.34438E+03  1.06114E+04
 -9.94881E+03  4.82821E+03 -1.10821E+04 -9.33964E+02 -5.59303E+03 -6.91732E+03  2.09887E+03 -6.83922E+03
  6.83276E+03 -4.44548E+03  6.06300E+03  3.96797E+03  2.05574E+03  7.23781E+03 -4.20423E+02  5.58824E+03
 -2.80482E+03  3.84247E+03 -2.65978E+03  1.07284E+03 -1.78669E+03  1.39098E+03 -1.65672E+03  3.19955E+03
 -2.64822E+03  4.15692E+03 -8.47949E+03  4.67257E+03 -1.20691E+04 -2.31294E+02 -1.41750E+04 -8.01733E+03
 -7.85432E+03 -1.68078E+04  3.75144E+03 -1.77544E+04  1.23833E+04 -1.44282E+04  1.78575E+04 -5.94820E+03
  1.62200E+04  4.16670E+03  9.37663E+03  1.11400E+04  7.58682E+02  1.35546E+04 -4.73346E+03  1.00148E+04
 -7.21344E+03  4.05474E+03 -4.86575E+03 -1.26271E+03 -1.27833E+03 -1.33316E+03 -9.96157E+02 -6.54153E+02
 -1.70672E+03  7.28123E+02 -2.53979E+03 -5.89956E+02 -2.21218E+03 -2.38828E+03  7.05877E+02 -4.64638E+03
  6.19193E+03 -3.60752E+03  7.78112E+03 -2.74445E+02  8.37447E+03  6.71611E+03  2.93792E+03  1.32874E+04
 -5.89475E+03  1.48084E+04 -1.38432E+04  9.05861E+03 -1.49012E+04 -1.32472E+03 -1.25959E+04 -9.46723E+03
 -5.07954E+03 -1.35957E+04  3.84897E+03 -1.19586E+04  8.63107E+03 -6.96872E+03  8.75229E+03  1.48499E+02
  4.47141E+03  5.45829E+03 -1.01172E+03  3.44858E+03 -2.78047E+03 -4.95049E+02  2.63933E+02 -3.81038E+03
  4.84351E+03 -7.37462E+02  4.89365E+03  1.91332E+03  3.79790E+03  5.65588E+03 -4.33691E+02  6.70703E+03
 -5.88103E+03  6.60547E+03 -9.13762E+03  7.26827E+02 -8.84234E+03 -6.84681E+03 -1.23623E+03 -1.14600E+04
  6.22930E+03 -8.45014E+03  1.06750E+04 -3.60166E+03  1.01566E+04  3.23727E+03  6.13045E+03  8.22965E+03
  5.22124E+02  8.95184E+03 -3.52192E+03  8.28122E+03 -5.59856E+03  3.98843E+03 -4.31383E+03  1.22811E+03
 -3.40469E+03 -2.16982E+02 -2.23889E+03  1.43247E+03 -4.01526E+03  1.85830E+03 -6.32092E+03 -1.51936E+03
 -6.99871E+03 -4.91567E+03 -2.61289E+03 -8.82609E+03  4.49333E+03 -9.07960E+03  6.83243E+03 -4.57463E+03
  8.86845E+03  8.59662E+02  4.31665E+03  5.42433E+03 -8.14341E+02  9.25516E+03 -6.37657E+03  5.63570E+03
