 $NMID ID='MM_0lb_SNR400_11hz_g40_71.RAW', FMTDAT='(8E13.5)'
 TRAMP=1., VOLUME=1. $END
  3.10379E+05  2.80587E+02  3.37444E+05  2.50927E+05  8.44958E+04  3.37749E+05 -1.32440E+05  2.51117E+05
 -1.90357E+05  8.32546E+04 -1.12430E+05 -3.17169E+04  6.63681E+02 -4.99067E+04  5.38491E+04 -1.56027E+02
  3.54339E+04  5.28097E+04 -1.66607E+04  7.49611E+04 -6.10552E+04  6.34913E+04 -8.45933E+04  3.23288E+04
 -8.15159E+04 -1.16036E+04 -5.79009E+04 -5.11016E+04 -1.58252E+04 -6.99679E+04  2.80975E+04 -4.63067E+04
  4.06327E+04  4.17205E+03  1.66801E+04  4.82931E+04 -3.49077E+04  4.74440E+04 -6.73108E+04  5.15228E+02
 -5.39406E+04 -5.75601E+04 -6.56835E+03 -7.83794E+04  3.39703E+04 -5.48760E+04  4.90367E+04 -1.82746E+04
  4.42562E+04  1.03306E+04  3.28460E+04  2.61130E+04  1.63497E+04  2.91166E+04 -4.56982E+03  2.70178E+04
 -2.20986E+04  1.13561E+04 -1.85331E+04 -4.88857E+03  6.82338E+03 -8.07842E+03  2.31055E+04  1.24429E+04
  7.61050E+03  3.68335E+04 -3.29805E+04  3.63160E+04 -6.39331E+04  2.33404E+03 -5.73849E+04 -4.35084E+04
 -1.27265E+04 -6.43321E+04  4.04950E+04 -4.63767E+04  5.95426E+04 -2.45030E+03  3.55758E+04  3.30353E+04
 -6.83928E+03  3.70536E+04 -3.09248E+04  1.69952E+04 -3.14026E+04 -3.92014E+03 -1.78696E+04 -1.11696E+04
 -8.21935E+03 -1.45588E+04 -3.06582E+02 -1.83146E+04  8.03924E+03 -2.33854E+04  1.50022E+04 -1.31025E+04
  1.11882E+04  5.12098E+03 -9.18334E+03  1.31813E+04 -2.23328E+04 -4.15297E+03 -8.42512E+03 -3.50747E+04
  2.36963E+04 -4.51654E+04  4.92846E+04 -2.06225E+04  4.63192E+04  2.01103E+04  1.62060E+04  4.46967E+04
 -1.60657E+04  3.45584E+04 -2.66897E+04  1.34175E+03 -1.01190E+04 -2.86037E+04  2.12219E+04 -3.46194E+04
  4.19002E+04 -1.01842E+04  3.74250E+04  2.38463E+04  1.92637E+04  4.83414E+04 -7.86488E+03  5.21245E+04
 -3.30846E+04  3.57848E+04 -4.49673E+04  9.96003E+03 -4.47335E+04 -1.75371E+04 -2.45481E+04 -3.99813E+04
  7.69123E+03 -3.99581E+04  3.29809E+04 -1.58881E+04  2.95082E+04  1.08378E+04  4.34434E+03  1.98656E+04
 -1.35709E+04  8.57513E+03 -1.04506E+04 -7.28217E+03  5.86255E+03 -1.11909E+04  1.82024E+04  6.27422E+03
  1.47677E+04  2.23237E+04 -6.06764E+03  2.60668E+04 -2.26864E+04  1.21932E+04 -2.96120E+04 -3.57405E+03
 -2.23615E+04 -1.78214E+04 -9.72925E+03 -2.23008E+04  4.31516E+03 -2.24855E+04  1.77960E+04 -1.99771E+04
  2.85578E+04 -1.35672E+04  3.48953E+04  3.12504E+03  2.55532E+04  2.13510E+04  4.06797E+03  3.80953E+04
 -1.85823E+04  3.22773E+04 -2.97699E+04  1.11481E+04 -2.18771E+04 -1.03531E+04 -4.62728E+03 -1.29654E+04
  1.05710E+03 -1.25643E+03 -5.41000E+03  6.99008E+03 -1.78651E+04  5.43988E+03 -1.83443E+04 -7.87378E+03
 -1.06521E+04 -2.05323E+04  5.60518E+03 -2.46799E+04  1.68266E+04 -1.79968E+04  2.01744E+04 -1.34240E+03
  1.34588E+04  1.37968E+04 -3.38894E+02  2.00959E+04 -1.50935E+04  1.19753E+04 -2.11348E+04 -3.98160E+03
 -1.47176E+04 -1.86968E+04 -2.66376E+03 -2.46611E+04  1.11257E+04 -2.03327E+04  2.06810E+04 -1.01726E+04
  1.93564E+04  8.57838E+01  1.44897E+04  4.73119E+03  7.97060E+03  2.27102E+03  1.03944E+04 -2.10857E+03
  1.92316E+04  3.43132E+03  2.15732E+04  1.62047E+04  1.43666E+04  3.33259E+04 -2.70416E+03  3.83419E+04
 -2.19022E+04  3.01815E+04 -3.58680E+04  1.57482E+04 -3.84006E+04 -2.68936E+03 -3.10731E+04 -2.24562E+04
 -1.29910E+04 -3.15545E+04  1.11063E+04 -2.74623E+04  2.43832E+04 -1.37104E+04  2.09205E+04  7.07776E+03
  7.75894E+03  1.63248E+04 -9.76450E+03  1.37250E+04 -1.74849E+04  2.70398E+03 -1.37380E+04 -1.09990E+04
 -3.76818E+02 -1.66057E+04  7.94680E+03 -1.34289E+04  1.05985E+04 -1.13396E+03  3.34974E+03  6.84858E+03
 -6.83169E+03  2.63295E+03 -6.77668E+03 -6.30667E+03 -1.21643E+03 -1.58923E+04  1.00774E+04 -1.67758E+04
  1.84966E+04 -8.76176E+03  2.09720E+04  3.03414E+03  1.89498E+04  1.47617E+04  8.41153E+03  2.39026E+04
 -3.88172E+03  2.60819E+04 -1.62067E+04  1.64500E+04 -1.89072E+04  3.88754E+03 -1.29643E+04 -3.37296E+03
 -6.22295E+03 -6.24440E+03 -9.39103E+02  4.70134E+02 -2.83363E+03  3.22554E+03 -6.41430E+03  5.36420E+03
 -1.22779E+04 -1.07783E+03 -1.26502E+04 -1.04568E+04 -5.00322E+03 -1.64663E+04  5.20324E+03 -1.30053E+04
  1.12191E+04 -4.70121E+03  7.87848E+03  3.62316E+03 -1.97352E+02  5.14812E+03 -5.84139E+03 -1.74440E+02
 -5.61036E+03 -8.00248E+03 -8.59149E+02 -1.27868E+04  6.50070E+03 -1.37209E+04  1.60903E+04 -6.58391E+03
  2.02402E+04  1.80401E+03  1.43597E+04  1.04653E+04  2.77840E+03  1.57169E+04 -8.45405E+03  1.29740E+04
 -1.10363E+04  4.05437E+03 -5.61643E+03 -3.25119E+03  2.11205E+03 -3.12434E+03  7.24203E+03 -1.33321E+03
  6.98877E+03  5.58486E+03  1.26723E+03  9.63798E+03 -7.26846E+03  9.38934E+03 -1.30179E+04  2.92672E+03
 -8.84399E+03 -6.28367E+03  5.58909E+02 -1.02816E+04  7.09751E+03 -4.94013E+03  7.23033E+03  2.40371E+03
  1.70163E+03  7.70743E+03 -6.66245E+03  8.99803E+03 -1.03568E+04  3.95215E+03 -1.05396E+04 -3.29920E+03
 -5.21596E+03 -1.25363E+04  2.99312E+03 -1.43629E+04  1.11922E+04 -9.18106E+03  1.31717E+04  2.29481E+03
  8.37281E+03  9.97786E+03 -7.10180E+02  1.25076E+04 -9.52577E+03  7.35441E+03 -9.93226E+03 -9.67969E+02
 -9.67606E+03 -8.42744E+03 -1.29975E+03 -9.30692E+03  5.21859E+03 -7.54253E+03  6.32625E+03 -3.58101E+03
  4.50285E+03  1.74878E+03 -5.26648E+02  9.76642E+02 -4.54539E+02 -2.23953E+03  2.07727E+03 -5.42761E+03
  8.82865E+03 -3.29787E+03  1.24575E+04  1.17829E+03  1.14800E+04  8.76125E+03  8.48115E+03  1.60579E+04
 -3.69065E+03  1.83730E+04 -1.51442E+04  1.43577E+04 -1.98957E+04  2.81322E+03 -1.68325E+04 -6.45351E+03
 -7.80922E+03 -1.25996E+04 -1.13619E+02 -1.17493E+04  4.03144E+03 -7.06931E+03  3.77138E+03 -3.35366E+03
  2.82023E+03 -2.56477E+03  3.45814E+03 -2.80489E+03  5.42933E+03 -2.50426E+03  6.07140E+03 -9.48208E+02
  8.40777E+03  2.51036E+03  4.24407E+03  7.52491E+03 -2.43982E+03  7.42081E+03 -9.04885E+03  7.11259E+03
 -1.07181E+04 -1.55755E+03 -6.71543E+03 -7.41090E+03 -3.17937E+02 -1.15094E+04  6.73282E+03 -1.18617E+04
  1.19957E+04 -6.81490E+03  1.50574E+04  1.13795E+03  1.03403E+04  1.02528E+04  1.60824E+03  1.33723E+04
 -5.64127E+03  1.18574E+04 -8.07391E+03  3.55475E+03 -5.60263E+03 -2.15608E+03 -1.84148E+03 -1.35873E+03
 -9.51408E+02 -2.04755E+02 -2.35249E+03  2.38150E+03 -4.52011E+03  2.58612E+03 -7.81315E+03 -1.53085E+03
 -5.48041E+03 -8.31325E+03  5.88458E+02 -1.09502E+04  6.68697E+03 -1.04033E+04  1.00937E+04 -2.98455E+03
  1.07519E+04  5.90485E+03  4.99339E+03  9.65308E+03 -1.75839E+03  1.05891E+04 -8.05719E+03  6.40001E+03
 -1.03917E+04  8.36239E+02 -7.47836E+03 -5.92875E+03 -9.37464E+02 -9.18710E+03  4.62306E+03 -6.57796E+03
  7.13801E+03 -2.06910E+03  4.92644E+03  1.97117E+03  9.99339E+02  3.15272E+03  1.03273E+03  1.91778E+03
  2.42073E+03  5.74655E+02  1.98028E+03  1.69208E+03  3.20182E+03  4.01717E+03  3.19796E+03  6.33413E+03
 -2.48689E+03  8.38705E+03 -7.82903E+03  9.43411E+03 -1.07380E+04  2.11171E+03 -1.18269E+04 -4.69836E+03
 -4.88947E+03 -1.05960E+04  1.87679E+03 -1.27723E+04  6.04884E+03 -7.47951E+03  8.70941E+03 -1.70219E+03
  7.11945E+03  4.29368E+03  2.06822E+03  6.01938E+03 -2.95601E+03  4.05762E+03 -4.64286E+03 -7.48097E+02
 -2.00284E+03 -5.09149E+03  2.46342E+03 -4.96310E+03  4.28089E+03 -2.76442E+03  4.29222E+03  9.10461E+02
  2.95071E+03  2.42265E+03  1.93893E+03  1.86069E+03 -1.25413E+02  1.12142E+03  1.51934E+03 -5.99797E+02
  4.88808E+02 -7.69035E+02  5.01261E+03  2.50630E+03  2.02796E+03  6.37144E+03 -1.26800E+03  7.46429E+03
 -5.50484E+03  4.77659E+03 -6.96249E+03  1.83330E+03 -6.32925E+03 -2.12990E+03 -2.56267E+03 -3.64545E+03
  7.19068E+02 -4.13556E+03  2.91266E+03 -2.07705E+03  2.83780E+03  2.56588E+03 -9.62470E+02  3.51822E+03
 -4.05431E+03  2.09264E+03 -4.36460E+03 -2.47887E+03 -2.16920E+03 -6.39361E+03  5.11151E+02 -5.74044E+03
  3.27597E+03 -3.10163E+03  4.83720E+03 -5.62421E+02  4.13536E+03  1.55550E+03  5.16919E+02  3.12233E+03
 -2.06674E+03  7.57873E+02 -2.71604E+03 -1.33922E+03  1.37489E+03 -4.07762E+03  5.30236E+03 -3.41368E+03
  5.72608E+03  7.82340E+02  6.96257E+03  4.22056E+03  1.96680E+03  7.35874E+03 -3.03650E+03  5.80361E+03
 -4.94413E+03  2.65660E+03 -5.84753E+03 -1.48475E+03 -2.73182E+03 -4.22854E+03  1.17915E+03 -4.12617E+03
  4.63872E+03 -2.03272E+03  3.61172E+03  2.13242E+03  6.70768E+02  4.39113E+03 -6.60876E+02  2.64080E+03
 -2.11449E+03  2.48230E+03 -1.98006E+03  4.91254E+02 -8.76122E+02  7.06082E+02 -1.81073E+03  1.74047E+03
 -1.77064E+03  2.07456E+03 -4.78984E+03  2.03175E+03 -7.10835E+03  1.33809E+02 -7.73495E+03 -4.52819E+03
 -4.36512E+03 -8.86559E+03  1.37158E+03 -1.01930E+04  6.32028E+03 -8.29135E+03  1.03575E+04 -3.05992E+03
  9.04681E+03  1.01043E+03  4.86975E+03  6.26743E+03  1.37622E+02  7.52027E+03 -3.24156E+03  4.97574E+03
 -3.74153E+03  2.49315E+03 -2.24693E+03 -1.75875E+02 -9.56837E+02 -3.79787E+02 -7.17842E+02  5.40984E+02
 -1.60034E+03 -5.68384E+01 -2.00814E+03  7.27701E+02 -2.81611E+02 -1.27915E+03 -2.36425E+02 -2.31760E+03
  3.01693E+03 -2.73670E+03  4.07775E+03 -3.77038E+02  4.52634E+03  3.82556E+03  1.06315E+03  6.21065E+03
 -3.74589E+03  8.06162E+03 -6.94008E+03  4.67310E+03 -8.31698E+03 -8.92877E+02 -5.36510E+03 -4.56697E+03
 -2.26154E+03 -6.91628E+03  1.64333E+03 -5.63246E+03  3.82976E+03 -3.03890E+03  4.96488E+03  2.17647E+02
  2.62504E+03  2.37704E+03 -1.62161E+02  2.03357E+03 -2.05909E+03 -5.89050E+02  2.48333E+02 -1.88031E+03
  2.37145E+03 -3.15838E+02  2.44398E+03  7.26134E+02  1.73149E+03  2.87256E+03  9.89486E+01  3.32629E+03
 -3.30211E+03  3.12008E+03 -3.87691E+03  4.51172E+02 -3.57213E+03 -3.22260E+03 -6.66852E+02 -5.97365E+03
  2.60401E+03 -4.32972E+03  4.62195E+03 -1.67347E+03  5.09750E+03  1.97748E+01  2.80135E+03  4.17242E+03
  5.91800E+02  4.44980E+03 -1.58476E+03  3.95436E+03 -3.27752E+03  1.96738E+03 -2.35075E+03  2.96954E+02
 -1.88778E+03 -2.54515E+02 -1.24779E+03 -9.45677E+01 -2.86043E+03  1.53953E+03 -3.32000E+03 -1.34786E+03
 -3.32253E+03 -2.19869E+03 -1.32028E+03 -4.74245E+03  2.33097E+03 -5.44001E+03  3.63586E+03 -2.39350E+03
  3.69187E+03  1.48963E+03  2.26658E+03  2.95790E+03  4.79494E+01  4.81404E+03 -3.34056E+03  2.78680E+03
