 $NMID ID='MM_0lb_SNR400_16hz_g45_88.RAW', FMTDAT='(8E13.5)'
 TRAMP=1., VOLUME=1. $END
  3.09737E+05  7.86903E+02  3.37254E+05  2.50425E+05  8.50152E+04  3.37607E+05 -1.32163E+05  2.50219E+05
 -1.90486E+05  8.28703E+04 -1.10884E+05 -3.31146E+04  1.21850E+03 -5.02420E+04  5.38226E+04  3.52608E+02
  3.49515E+04  5.30237E+04 -1.67114E+04  7.52040E+04 -6.04656E+04  6.34110E+04 -8.35877E+04  3.15866E+04
 -8.01700E+04 -1.17682E+04 -5.70810E+04 -5.07638E+04 -1.53642E+04 -6.88638E+04  2.74731E+04 -4.54689E+04
  3.97341E+04  3.85022E+03  1.57125E+04  4.66487E+04 -3.40249E+04  4.61733E+04 -6.59101E+04  1.37315E+01
 -5.21360E+04 -5.56484E+04 -6.95812E+03 -7.62017E+04  3.35799E+04 -5.43620E+04  4.72555E+04 -1.67587E+04
  4.14780E+04  1.09293E+04  3.13613E+04  2.48551E+04  1.52009E+04  2.82104E+04 -4.33503E+03  2.68410E+04
 -2.14860E+04  1.26828E+04 -1.86396E+04 -4.11855E+03  5.19739E+03 -7.56207E+03  2.18479E+04  1.16497E+04
  7.40136E+03  3.46939E+04 -3.15810E+04  3.49019E+04 -6.22796E+04  1.65088E+03 -5.59151E+04 -4.19018E+04
 -1.30389E+04 -6.19684E+04  3.88262E+04 -4.37355E+04  5.62722E+04 -2.13201E+03  3.29020E+04  3.14299E+04
 -5.83148E+03  3.45606E+04 -2.93027E+04  1.48045E+04 -2.90528E+04 -4.09919E+03 -1.53787E+04 -1.01801E+04
 -8.08721E+03 -1.26349E+04 -7.24899E+02 -1.76427E+04  6.94318E+03 -2.26474E+04  1.48573E+04 -1.38827E+04
  1.25102E+04  4.51850E+03 -7.23904E+03  1.33854E+04 -1.98064E+04 -3.08929E+03 -8.57448E+03 -3.18436E+04
  2.19808E+04 -4.17305E+04  4.59676E+04 -1.93830E+04  4.34457E+04  1.90766E+04  1.49923E+04  4.30405E+04
 -1.49826E+04  3.21928E+04 -2.41020E+04  1.28008E+03 -8.37911E+03 -2.69679E+04  2.04724E+04 -3.24296E+04
  3.91506E+04 -7.66793E+03  3.33236E+04  2.36377E+04  1.69312E+04  4.43069E+04 -7.29291E+03  4.71030E+04
 -3.02153E+04  3.15186E+04 -3.96547E+04  9.03355E+03 -3.97670E+04 -1.59787E+04 -2.20900E+04 -3.57539E+04
  6.89549E+03 -3.56283E+04  3.03758E+04 -1.35864E+04  2.77872E+04  1.04374E+04  3.86123E+03  1.80505E+04
 -1.34974E+04  7.52836E+03 -1.01461E+04 -7.46687E+03  6.54219E+03 -1.06802E+04  1.73708E+04  6.23329E+03
  1.29382E+04  2.11913E+04 -6.59791E+03  2.45135E+04 -2.16078E+04  9.72551E+03 -2.68829E+04 -5.30892E+03
 -1.86116E+04 -1.65144E+04 -7.69918E+03 -1.87349E+04  3.65553E+03 -1.67441E+04  1.41003E+04 -1.68657E+04
  2.31035E+04 -1.22914E+04  3.03074E+04  1.84816E+03  2.29576E+04  1.82704E+04  4.03015E+03  3.38460E+04
 -1.71199E+04  2.90357E+04 -2.68704E+04  9.83144E+03 -2.01664E+04 -1.03498E+04 -3.58699E+03 -1.41451E+04
  1.92216E+03 -3.28824E+03 -3.69118E+03  5.74263E+03 -1.43338E+04  4.82853E+03 -1.49987E+04 -5.82659E+03
 -9.82275E+03 -1.73478E+04  5.53878E+03 -2.15440E+04  1.30881E+04 -1.47711E+04  1.62559E+04 -1.47664E+03
  9.44338E+03  1.23607E+04 -2.27396E+02  1.74555E+04 -1.15261E+04  9.55162E+03 -1.79136E+04 -3.44247E+03
 -1.23456E+04 -1.55608E+04 -1.52869E+03 -2.09726E+04  9.86307E+03 -1.67972E+04  1.76797E+04 -8.69827E+03
  1.61835E+04  2.24899E+02  1.13301E+04  4.37313E+03  5.84905E+03  6.04011E+02  8.71605E+03 -1.02046E+03
  1.52872E+04  2.93671E+03  1.63945E+04  1.37987E+04  1.04045E+04  2.76835E+04 -2.45455E+03  3.03000E+04
 -1.75251E+04  2.35545E+04 -2.75835E+04  1.12089E+04 -2.90575E+04 -2.25176E+03 -2.42228E+04 -1.59230E+04
 -1.08672E+04 -2.34437E+04  7.91269E+03 -2.21517E+04  1.87629E+04 -1.17821E+04  1.73158E+04  4.60697E+03
  6.70087E+03  1.27766E+04 -7.95496E+03  1.16546E+04 -1.46539E+04  2.86802E+03 -1.10868E+04 -8.98433E+03
  4.93772E+02 -1.41143E+04  7.66279E+03 -1.08217E+04  8.95549E+03 -1.57653E+03  2.31904E+03  5.46570E+03
 -6.53378E+03  1.62637E+03 -4.83830E+03 -4.99324E+03  1.05216E+02 -1.18427E+04  8.30833E+03 -1.20688E+04
  1.41221E+04 -5.82788E+03  1.46690E+04  2.48304E+03  1.25244E+04  1.13344E+04  6.29684E+03  1.74212E+04
 -2.88604E+03  1.85583E+04 -1.20298E+04  1.21684E+04 -1.32855E+04  3.03384E+03 -1.01204E+04 -1.83788E+03
 -5.10574E+03 -3.55993E+03 -1.36180E+03  9.28924E+02 -1.96407E+03  2.11485E+03 -4.78271E+03  4.10282E+03
 -9.65951E+03 -8.94298E+01 -9.62554E+03 -7.87782E+03 -4.52209E+03 -1.32927E+04  3.59590E+03 -1.02133E+04
  7.77806E+03 -4.20991E+03  5.86661E+03  2.72754E+03  9.17716E+02  3.85324E+03 -4.56592E+03 -1.91896E+02
 -4.39748E+03 -6.25893E+03 -4.96015E+02 -8.64745E+03  4.69761E+03 -9.11531E+03  1.19357E+04 -4.77487E+03
  1.36299E+04  5.15977E+02  9.99043E+03  7.93801E+03  1.67878E+03  1.07312E+04 -5.76032E+03  9.97777E+03
 -8.25057E+03  2.94224E+03 -3.73131E+03 -1.93435E+03  8.32581E+02 -2.37239E+03  5.74916E+03 -9.46940E+02
  5.22922E+03  3.86279E+03  1.37240E+03  7.91153E+03 -5.44171E+03  7.41775E+03 -8.56300E+03  1.88650E+03
 -6.28056E+03 -4.36925E+03  1.19934E+02 -7.27011E+03  4.12350E+03 -3.71171E+03  4.12378E+03  1.18981E+03
  1.28136E+03  5.04447E+03 -4.88186E+03  5.78290E+03 -6.64862E+03  3.07447E+03 -6.66543E+03 -1.88404E+03
 -4.13564E+03 -7.81651E+03  1.80306E+03 -9.19536E+03  7.40022E+03 -5.97830E+03  7.82829E+03  1.48483E+03
  5.69829E+03  6.82671E+03  1.55941E+02  8.58698E+03 -6.38049E+03  5.04158E+03 -6.52063E+03 -3.56633E+02
 -6.42226E+03 -6.30776E+03 -1.51141E+03 -6.20519E+03  3.46286E+03 -5.37145E+03  4.03010E+03 -2.89062E+03
  3.27940E+03  5.13423E+02 -7.34855E+02  1.46508E+03 -3.45677E+02 -1.04208E+03  5.78207E+02 -2.56850E+03
  5.66960E+03 -1.41684E+03  7.46121E+03  1.25805E+03  7.19542E+03  4.08238E+03  6.69802E+03  9.41968E+03
 -1.66283E+03  1.14083E+04 -1.03303E+04  8.24979E+03 -1.24662E+04  1.23612E+03 -1.02070E+04 -3.55210E+03
 -5.66585E+03 -8.08651E+03 -3.48115E+02 -6.77993E+03  2.72984E+03 -2.94129E+03  1.76782E+03 -2.07766E+03
  1.74764E+03 -1.16585E+03  2.66749E+03 -2.37807E+03  4.41128E+03 -1.65770E+03  4.45234E+03  7.74326E+02
  5.52656E+03  1.32279E+03  1.50698E+03  4.58719E+03 -2.00328E+03  4.58074E+03 -5.47169E+03  2.89697E+03
 -7.04022E+03 -9.53691E+02 -2.76048E+03 -4.70031E+03 -1.47484E+02 -7.53670E+03  4.25003E+03 -7.74218E+03
  6.58483E+03 -4.28549E+03  9.17689E+03  6.14707E+02  5.91404E+03  6.02895E+03  1.24522E+03  8.52309E+03
 -2.79055E+03  7.20221E+03 -4.99854E+03  2.05951E+03 -2.54844E+03 -1.09233E+03 -6.72231E+02 -6.30894E+02
 -3.60178E+02  2.65676E+02 -1.52600E+03  1.99606E+03 -2.98458E+03  1.40105E+03 -5.00658E+03 -3.29901E+02
 -2.35205E+03 -4.99407E+03  9.62270E+02 -6.83558E+03  3.86821E+03 -5.51225E+03  4.87490E+03 -1.41919E+03
  5.45487E+03  3.25830E+03  2.73653E+03  5.48163E+03 -9.51636E+02  5.69000E+03 -3.70982E+03  3.84364E+03
 -6.09165E+03  2.59834E+02 -4.62343E+03 -3.49491E+03 -9.58826E+02 -4.29878E+03  2.19489E+03 -2.95702E+03
  3.34004E+03 -2.00915E+03  2.56586E+03  6.87002E+02  6.19565E+02  2.05201E+03  7.18019E+02  7.32749E+02
  1.79460E+03  6.04331E+02  1.36079E+03  1.15427E+03  1.66680E+03  3.30719E+03  2.13340E+03  2.41293E+03
 -1.71477E+03  4.27632E+03 -4.18363E+03  5.63074E+03 -5.07820E+03  1.43244E+03 -5.51143E+03 -1.29409E+03
 -2.80001E+03 -5.42126E+03  7.57171E+02 -6.64217E+03  2.87873E+03 -3.45693E+03  4.76348E+03 -9.59208E+02
  3.25467E+03  2.57314E+03  4.57111E+02  3.81432E+03 -1.58592E+03  2.25029E+03 -2.23837E+03  2.49623E+02
 -5.53935E+02 -2.27365E+03  1.70003E+03 -2.78312E+03  2.68607E+03 -1.45062E+03  2.14431E+03  5.06238E+02
  1.84926E+03  6.87817E+02  1.31863E+03 -1.11472E+02 -3.92359E+02  3.50034E+02  1.76519E+03 -3.11520E+02
 -3.00943E+02  1.68434E+01  2.33926E+03  8.95875E+02  2.15577E+02  3.27734E+03  3.10747E+00  3.95647E+03
 -2.19527E+03  2.33359E+03 -3.35467E+03  3.00762E+02 -3.57119E+03 -8.82646E+02 -7.30999E+02 -2.07647E+03
  1.85270E+01 -1.83275E+03  1.66394E+03 -1.05584E+03  8.84940E+02  1.27988E+03 -7.47823E+02  2.05283E+03
 -1.93532E+03  7.47519E+02 -2.15589E+03 -9.49809E+02 -9.07664E+02 -2.93010E+03  1.38240E+02 -3.28135E+03
  1.56167E+03 -1.72032E+03  1.37314E+03  2.10587E+02  1.82622E+03  5.80334E+02  6.40633E+02  1.92410E+03
 -7.83170E+02  4.20621E+01 -9.72766E+02 -6.90669E+02  7.27099E+02 -1.30931E+03  3.13425E+03 -1.75143E+03
  2.76172E+03  9.04377E+02  3.42796E+03  1.26384E+03  1.68770E+03  2.79065E+03 -6.89938E+02  2.49825E+03
 -2.37706E+03  1.43587E+03 -2.34993E+03 -4.82762E+02 -1.80452E+03 -2.09793E+03  7.18150E+02 -1.40995E+03
  2.08016E+03 -9.40316E+02  1.01357E+03  1.01913E+03  2.27122E+01  1.79422E+03 -2.32249E+02  1.83259E+03
 -5.82973E+02  1.54380E+03 -1.06879E+03 -2.40245E+02 -1.55477E+02  8.23132E+02 -1.01292E+03  5.49770E+02
 -5.84838E+01  1.08266E+03 -2.34643E+03  7.00935E+02 -2.77950E+03  4.76508E+02 -4.16270E+03 -2.15459E+03
 -1.49772E+03 -3.60642E+03  8.67833E+02 -4.19899E+03  2.87337E+03 -4.28877E+03  4.24681E+03 -1.10211E+03
  3.51141E+03  6.35654E+02  2.23688E+03  2.75215E+03 -6.61545E+02  2.63331E+03 -7.79233E+02  2.29585E+03
 -1.84899E+03  8.50823E+02 -1.13808E+03 -7.07949E+02 -8.27237E+02 -4.83782E+00 -6.69939E+02 -3.20675E+00
 -1.38925E+03 -8.76600E+01 -5.81034E+02 -6.60144E+01  2.89253E+02 -1.09191E+03 -2.92622E+02 -1.49534E+03
  1.31600E+03 -5.84771E+02  1.32997E+03  3.51121E+02  1.62829E+03  1.35518E+03  1.57848E+01  2.32228E+03
 -2.15478E+03  3.42979E+03 -3.12679E+03  1.15387E+03 -3.10010E+03 -3.35616E+02 -2.65452E+03 -1.86093E+03
 -1.81201E+03 -2.52105E+03  3.89214E+01 -1.94999E+03  1.33020E+03 -8.20914E+02  1.84700E+03 -3.80451E+02
  1.32129E+03  5.00224E+02 -3.79437E+02  3.11284E+02 -8.84446E+02 -2.46130E+02 -2.36433E+02 -4.45463E+02
  6.66642E+02  3.98682E+02  7.90622E+02  1.07826E+03  1.36339E+02  1.05776E+03  7.97233E+02  3.39573E+02
 -1.17482E+03  1.06586E+03 -1.20212E+03  5.98925E+02 -9.97620E+02 -8.36632E+02  3.03246E+01 -2.16765E+03
  1.73774E+03 -1.76918E+03  1.46056E+03  3.64919E+01  1.17675E+03 -4.24944E+02  1.03725E+03  1.56208E+03
  5.35979E+02  1.18136E+03 -5.67422E+02  1.03380E+03 -1.15592E+03  7.54553E+02 -8.29856E+02  2.32853E+02
 -6.55085E+02 -2.69933E+01 -8.92783E+02  2.80738E+02 -7.06068E+02  7.60374E+02 -1.46713E+03 -3.04571E+02
 -1.07801E+03  8.67100E+01 -1.26255E+03 -1.97603E+03  7.00877E+02 -1.49806E+03  1.59493E+03 -2.58961E+02
  1.41175E+03 -3.50759E+01  8.40592E+02  1.00384E+03  3.91099E+02  1.36923E+03 -7.40198E+02  1.23767E+03
