 $NMID ID='MM_0lb_SNR400_19hz_g55_47.RAW', FMTDAT='(8E13.5)'
 TRAMP=1., VOLUME=1. $END
  3.09936E+05  8.14998E+02  3.36814E+05  2.50362E+05  8.43236E+04  3.37390E+05 -1.32858E+05  2.50383E+05
 -1.89859E+05  8.26191E+04 -1.11501E+05 -3.29691E+04  1.12723E+03 -5.06937E+04  5.38405E+04 -1.61966E+02
  3.47266E+04  5.30910E+04 -1.67921E+04  7.46993E+04 -5.99322E+04  6.33005E+04 -8.35224E+04  3.13724E+04
 -7.99903E+04 -1.14094E+04 -5.64715E+04 -5.06463E+04 -1.48710E+04 -6.89421E+04  2.69045E+04 -4.50834E+04
  3.92590E+04  4.11331E+03  1.55426E+04  4.70967E+04 -3.43457E+04  4.63332E+04 -6.55936E+04 -2.95213E+02
 -5.23073E+04 -5.60107E+04 -6.36773E+03 -7.54699E+04  3.29107E+04 -5.36842E+04  4.65874E+04 -1.65513E+04
  4.17487E+04  1.11644E+04  3.08058E+04  2.44976E+04  1.60036E+04  2.82300E+04 -4.86318E+03  2.70035E+04
 -2.15333E+04  1.28072E+04 -1.90435E+04 -4.64331E+03  4.76709E+03 -7.69158E+03  2.18328E+04  1.11185E+04
  7.14637E+03  3.35417E+04 -3.07856E+04  3.45416E+04 -6.17111E+04  1.79219E+03 -5.58478E+04 -4.22967E+04
 -1.21063E+04 -6.15812E+04  3.80244E+04 -4.37852E+04  5.65137E+04 -1.91082E+03  3.21609E+04  3.10343E+04
 -5.86691E+03  3.39741E+04 -2.85764E+04  1.40052E+04 -2.92156E+04 -5.50404E+03 -1.49329E+04 -1.02288E+04
 -7.36242E+03 -1.20611E+04 -7.48920E+02 -1.66194E+04  6.44253E+03 -2.26786E+04  1.48171E+04 -1.38020E+04
  1.19995E+04  4.84099E+03 -6.51642E+03  1.28739E+04 -2.02840E+04 -2.71233E+03 -8.47088E+03 -3.10789E+04
  2.12030E+04 -4.15751E+04  4.56539E+04 -1.87638E+04  4.27296E+04  1.82641E+04  1.42574E+04  4.17337E+04
 -1.51906E+04  3.18914E+04 -2.35458E+04  1.41374E+03 -8.48262E+03 -2.66749E+04  2.05683E+04 -3.14513E+04
  3.85936E+04 -6.83876E+03  3.25098E+04  2.26182E+04  1.56993E+04  4.35016E+04 -8.25634E+03  4.61163E+04
 -2.88780E+04  3.04027E+04 -3.84908E+04  8.23227E+03 -3.88003E+04 -1.54642E+04 -2.20070E+04 -3.45656E+04
  6.70080E+03 -3.52307E+04  2.97771E+04 -1.27740E+04  2.77281E+04  1.04842E+04  3.02234E+03  1.78517E+04
 -1.36061E+04  7.87604E+03 -9.40057E+03 -7.33334E+03  6.01554E+03 -9.96150E+03  1.69567E+04  6.32473E+03
  1.27905E+04  2.17379E+04 -6.47298E+03  2.36148E+04 -2.12849E+04  9.82277E+03 -2.51953E+04 -6.20452E+03
 -1.73083E+04 -1.65025E+04 -6.30461E+03 -1.75042E+04  4.57276E+03 -1.54298E+04  1.31551E+04 -1.53996E+04
  2.23501E+04 -1.15563E+04  2.88204E+04  1.23840E+03  2.14890E+04  1.69585E+04  4.31044E+03  3.31653E+04
 -1.58802E+04  2.82729E+04 -2.58678E+04  9.97137E+03 -1.97186E+04 -1.02409E+04 -3.48595E+03 -1.41475E+04
  2.67760E+03 -3.94341E+03 -3.58991E+03  5.36078E+03 -1.35341E+04  5.08292E+03 -1.31372E+04 -5.05994E+03
 -8.95874E+03 -1.57026E+04  4.43641E+03 -1.96235E+04  1.25411E+04 -1.42145E+04  1.47979E+04 -1.13202E+03
  9.68319E+03  1.04367E+04 -1.17505E+03  1.58255E+04 -1.06801E+04  8.82167E+03 -1.59560E+04 -3.30275E+03
 -1.14783E+04 -1.44543E+04 -1.80896E+03 -1.99450E+04  9.01169E+03 -1.61870E+04  1.69526E+04 -7.16908E+03
  1.47809E+04  6.26272E+02  1.05493E+04  3.70533E+03  5.58529E+03  6.46360E+02  7.65010E+03 -1.05739E+03
  1.39759E+04  2.40600E+03  1.56992E+04  1.29567E+04  1.00121E+04  2.56746E+04 -3.30315E+03  2.72220E+04
 -1.65508E+04  2.12707E+04 -2.49639E+04  1.04182E+04 -2.57976E+04 -1.99099E+03 -2.21826E+04 -1.41487E+04
 -1.03504E+04 -2.09527E+04  6.84076E+03 -1.93246E+04  1.76926E+04 -1.08924E+04  1.56098E+04  3.67471E+03
  6.64854E+03  1.10836E+04 -7.00164E+03  1.07949E+04 -1.30225E+04  2.41795E+03 -1.04194E+04 -7.80119E+03
 -7.24374E+01 -1.23002E+04  6.28533E+03 -9.52609E+03  8.06828E+03 -1.25814E+03  9.44290E+02  4.92272E+03
 -6.05937E+03  1.35404E+03 -3.48569E+03 -4.54801E+03  3.17268E+02 -1.06004E+04  7.89660E+03 -1.03735E+04
  1.27721E+04 -4.83763E+03  1.29903E+04  2.50408E+03  1.03295E+04  9.26779E+03  4.58279E+03  1.42557E+04
 -1.81529E+03  1.65870E+04 -9.92846E+03  1.03001E+04 -1.18988E+04  3.05938E+03 -8.58989E+03 -1.95376E+03
 -4.30107E+03 -3.87245E+03 -1.03731E+03  1.50578E+03 -2.03695E+03  1.24683E+03 -3.73797E+03  3.52425E+03
 -8.58548E+03 -5.73824E+02 -9.18239E+03 -7.04905E+03 -2.96421E+03 -1.15043E+04  3.50532E+03 -9.15631E+03
  7.77268E+03 -3.39852E+03  5.28404E+03  1.77284E+03  1.02015E+03  2.62555E+03 -3.17098E+03  6.91291E+00
 -3.77477E+03 -4.81119E+03 -4.49677E+02 -7.30241E+03  3.98450E+03 -8.37069E+03  9.54172E+03 -4.33399E+03
  1.19097E+04  2.76833E+02  8.80276E+03  6.44478E+03  1.65014E+03  8.81791E+03 -5.31307E+03  8.37496E+03
 -7.18987E+03  3.26501E+03 -3.28805E+03 -1.31339E+03  1.69477E+03 -1.33999E+03  4.87273E+03 -6.13527E+02
  4.39962E+03  2.93894E+03  7.80551E+02  5.95822E+03 -4.13276E+03  6.19898E+03 -7.86314E+03  1.77037E+03
 -4.60006E+03 -3.86752E+03  2.27636E+02 -6.90199E+03  4.02018E+03 -3.93268E+03  3.34276E+03  8.49165E+02
  2.44276E+02  3.76511E+03 -3.84786E+03  4.68954E+03 -4.59851E+03  1.75136E+03 -4.85731E+03 -1.31355E+03
 -2.76807E+03 -6.33773E+03  6.98704E+02 -6.57357E+03  6.19259E+03 -4.56854E+03  6.20322E+03  1.30832E+03
  4.99298E+03  5.30549E+03 -2.15788E+02  6.95260E+03 -5.30408E+03  4.00533E+03 -5.00479E+03 -7.01452E+02
 -6.01347E+03 -4.77059E+03 -1.07679E+03 -4.97261E+03  2.72288E+03 -4.77195E+03  2.66538E+03 -3.26161E+03
  2.48503E+03  2.50423E+02  1.01750E+02  9.63904E+02  5.20060E+02 -5.91564E+02  4.46354E+02 -1.77510E+03
  4.33333E+03 -4.34831E+02  5.03331E+03  1.07651E+03  5.43640E+03  3.09017E+03  5.35960E+03  7.12798E+03
 -1.02623E+03  8.56447E+03 -7.91444E+03  6.70482E+03 -9.74679E+03  1.25934E+03 -7.87400E+03 -2.29776E+03
 -4.20627E+03 -6.49057E+03 -1.04189E+03 -4.86172E+03  2.49831E+03 -2.34629E+03  1.88266E+03 -2.32999E+03
  1.45275E+03 -1.33035E+03  2.31050E+03 -2.19635E+03  3.81672E+03 -1.98475E+03  3.63943E+03  2.00439E+02
  4.33673E+03  1.11565E+03  1.24941E+03  3.35920E+03 -1.67458E+03  2.78216E+03 -4.48426E+03  2.45720E+03
 -4.70042E+03 -1.31566E+03 -1.13572E+03 -3.09413E+03  4.27610E+02 -4.71216E+03  2.82164E+03 -5.03546E+03
  5.13012E+03 -3.61476E+03  6.12367E+03  4.46111E+02  4.64990E+03  4.74747E+03  7.43148E+02  5.99572E+03
 -2.02242E+03  6.36923E+03 -3.74795E+03  1.71481E+03 -1.85071E+03 -8.97263E+02 -4.99445E+02 -3.71847E+02
 -6.29210E+02  9.66175E+02 -1.04638E+03  2.14729E+03 -2.20684E+03  1.31800E+03 -3.71464E+03 -2.68863E+02
 -1.33555E+03 -3.94998E+03  2.67757E+02 -4.49323E+03  2.66162E+03 -4.19463E+03  3.44195E+03 -1.15409E+03
  4.18764E+03  2.16322E+03  2.29269E+03  2.81523E+03 -1.07719E+03  4.28248E+03 -2.91042E+03  1.85531E+03
 -3.65329E+03  6.27453E+02 -3.52551E+03 -2.71649E+03 -2.47920E+02 -2.39644E+03  1.47631E+03 -1.85509E+03
  1.90838E+03 -1.50492E+03  1.75281E+03 -4.18192E+01  4.62953E+02  1.43124E+03  6.52394E+02  9.10136E+02
  1.73694E+03  6.67000E+02  1.06257E+03  8.83296E+02  7.45008E+02  2.34703E+03  1.31030E+03  2.17694E+03
 -1.47516E+03  2.39091E+03 -2.53475E+03  3.84179E+03 -2.75623E+03  1.59855E+03 -3.73175E+03 -9.15598E+01
 -1.50396E+03 -3.71355E+03  5.89787E+02 -4.88333E+03  1.81904E+03 -2.44260E+03  3.23745E+03 -1.34922E+03
  2.14982E+03  1.80386E+03  5.53572E+02  1.82801E+03 -7.91823E+02  1.24349E+03 -5.93969E+02 -1.91390E+02
 -2.53548E+02 -1.75953E+03  1.50169E+03 -1.49803E+03  1.13447E+03 -8.45595E+02  1.93074E+03  1.24945E+02
  4.47232E+02  6.99237E+02  7.49157E+02  2.90110E+01 -3.28686E+02  7.72123E+02  1.93045E+03 -2.29656E+02
 -3.85010E+01 -1.16917E+03  1.94846E+03  8.60954E+02  4.30884E+02  1.26215E+03 -1.08438E+02  3.30565E+03
 -1.54280E+03  1.24487E+03 -1.73809E+03  3.03502E+02 -1.70593E+03 -7.80459E+02  7.82478E+00 -7.65868E+02
  2.43632E+02 -1.00445E+03  7.81659E+02 -6.61666E+02  5.96231E+02  1.42681E+03 -6.61306E+02  1.40550E+03
 -1.60888E+03  9.53077E+02 -9.73031E+02 -1.08280E+03 -4.93249E+02 -1.68970E+03 -2.09249E+02 -1.43993E+03
  6.50170E+01 -2.39446E+02 -2.38556E+02 -4.90981E+02  1.51967E+03 -1.27553E+02  3.36755E+02  1.31882E+03
 -6.77669E+01  3.12608E+02 -1.09632E+03  3.17529E+02  6.53854E+02 -9.74880E+02  1.12234E+03 -1.10283E+03
  8.56508E+02  7.20662E+02  2.76632E+03  5.74702E+02  8.52938E+02  1.44469E+03 -1.60051E+02  1.69252E+03
 -9.90364E+02  9.66892E+01 -1.46760E+03  2.66082E+01 -6.93363E+02 -9.46990E+02  5.29433E+02 -6.37224E+02
  1.04827E+03 -9.57922E+02 -1.22323E+02  4.17352E+02  2.04894E+02  1.14038E+03  3.40962E+02  9.55806E+02
 -7.29723E+02  5.55190E+02 -4.62811E+02  3.50643E+02  4.71196E+02  1.43181E+03 -5.14217E+02  3.13056E+02
 -4.11462E+02  1.01335E+03 -1.81402E+03  9.03361E+02 -1.48480E+03  4.14049E+02 -2.46267E+03 -8.14905E+02
 -1.02813E+03 -1.94611E+03  7.48819E+02 -2.11714E+03  7.98109E+02 -1.53313E+03  2.49943E+03 -3.95138E+02
  1.52057E+03 -2.41218E+02  1.91555E+03  1.58749E+03 -5.18529E+02  1.21512E+03 -2.86694E+02  1.42822E+03
 -1.03587E+03  3.78872E+02 -2.22626E+02 -2.30421E+02 -1.53924E+02  2.21855E+02 -2.85394E+02 -1.27791E+02
 -1.20799E+03  3.49343E+01 -1.19526E+03  1.14344E+02  3.55655E+02 -8.11627E+02 -8.38998E+02 -8.21348E+02
  2.12548E+03 -8.30001E+02  5.05695E+02  3.66220E+02  1.20470E+03  1.25250E+03 -6.31627E+02  1.72427E+03
 -8.33503E+02  2.25644E+03 -8.43168E+02  7.76644E+02 -1.57565E+03 -9.33837E+01 -1.12302E+03 -1.64827E+03
 -9.62229E+02 -9.27066E+02  1.49465E+02 -1.03190E+03 -1.67250E+02  1.30208E+02 -4.81546E+02 -4.74762E+01
  9.61325E+02  2.13446E+02  2.54136E+02  8.58690E+01 -1.08930E+02  7.63787E+02  9.86444E+00 -6.46661E+02
  8.77253E+02  2.85834E+02 -2.89028E+02  2.19428E+02  2.95330E+02 -5.72205E+02  4.07924E+02 -3.72539E+02
 -5.85139E+02  6.85845E+02 -3.70609E+02  2.61648E+02 -5.91202E+02 -5.79787E+02 -2.15165E+02 -9.52543E+02
  2.99220E+02 -5.06776E+02  2.10376E+02 -5.06880E+02  5.62320E+02 -1.19363E+03 -1.67999E+01  9.42011E+02
  4.40811E+02  3.12116E+02  1.74520E+01  5.19006E+02 -4.43505E+02  3.63666E+02 -1.20964E+02  9.91752E+01
  1.53857E+02  2.54393E+02 -1.29817E+01  2.39106E+02 -8.85591E+02 -6.49484E+00 -7.02673E+02 -6.39450E+01
 -5.89460E+02  3.99586E+02 -1.87628E+02 -1.04982E+03  1.41384E+02 -9.35095E+02  6.40167E+02 -7.10304E+02
  1.21360E+03 -3.28445E+02 -1.37962E+02 -1.11809E+02  7.69726E+01  3.24566E+02  1.90270E+01  7.83971E+02
