 $NMID ID='MM_0lb_SNR400_18hz_g40_69.RAW', FMTDAT='(8E13.5)'
 TRAMP=1., VOLUME=1. $END
  3.09516E+05  7.90806E+02  3.37134E+05  2.50290E+05  8.44896E+04  3.36760E+05 -1.32252E+05  2.49887E+05
 -1.89716E+05  8.27010E+04 -1.11201E+05 -3.28983E+04  1.68251E+03 -5.03972E+04  5.42479E+04  6.00672E+02
  3.46865E+04  5.27283E+04 -1.73522E+04  7.49059E+04 -5.98582E+04  6.23983E+04 -8.33077E+04  3.13678E+04
 -7.96762E+04 -1.09121E+04 -5.55742E+04 -4.96934E+04 -1.46715E+04 -6.83062E+04  2.67414E+04 -4.47914E+04
  3.89862E+04  4.11844E+03  1.55569E+04  4.69693E+04 -3.39414E+04  4.62786E+04 -6.47910E+04 -5.55247E+02
 -5.17719E+04 -5.58971E+04 -6.40657E+03 -7.44096E+04  3.32812E+04 -5.31535E+04  4.59130E+04 -1.62671E+04
  4.15731E+04  1.11816E+04  3.12814E+04  2.40138E+04  1.47543E+04  2.83869E+04 -4.66005E+03  2.67824E+04
 -2.17744E+04  1.34158E+04 -1.90175E+04 -3.96557E+03  3.92747E+03 -7.20958E+03  2.16095E+04  1.09972E+04
  6.87692E+03  3.28585E+04 -2.99955E+04  3.34799E+04 -6.06644E+04  2.29997E+03 -5.52778E+04 -4.09111E+04
 -1.24813E+04 -6.03976E+04  3.86567E+04 -4.33628E+04  5.53258E+04 -1.95911E+03  3.12467E+04  3.03920E+04
 -7.00587E+03  3.23343E+04 -2.80015E+04  1.26309E+04 -2.68849E+04 -5.82878E+03 -1.37275E+04 -1.00583E+04
 -6.70624E+03 -1.09172E+04 -1.33760E+03 -1.68279E+04  6.42058E+03 -2.24662E+04  1.55718E+04 -1.40779E+04
  1.24707E+04  4.33749E+03 -6.52395E+03  1.27443E+04 -1.89957E+04 -2.49327E+03 -7.79353E+03 -3.04649E+04
  2.05970E+04 -4.01155E+04  4.43987E+04 -1.80964E+04  4.14103E+04  1.82958E+04  1.41387E+04  4.16311E+04
 -1.50757E+04  3.08377E+04 -2.29360E+04  1.41226E+03 -7.63660E+03 -2.61395E+04  2.02925E+04 -3.08061E+04
  3.78371E+04 -7.38080E+03  3.12428E+04  2.26956E+04  1.48302E+04  4.20979E+04 -8.00479E+03  4.53900E+04
 -2.87884E+04  2.95032E+04 -3.67215E+04  8.23116E+03 -3.82323E+04 -1.46919E+04 -2.06581E+04 -3.44586E+04
  7.18975E+03 -3.36408E+04  2.93666E+04 -1.24299E+04  2.67430E+04  1.01763E+04  3.03772E+03  1.74453E+04
 -1.31620E+04  6.71392E+03 -9.46219E+03 -7.36835E+03  5.93395E+03 -1.05585E+04  1.68213E+04  6.48836E+03
  1.22688E+04  2.17621E+04 -6.81502E+03  2.29175E+04 -2.13617E+04  8.58484E+03 -2.49648E+04 -6.25854E+03
 -1.63121E+04 -1.62988E+04 -5.55449E+03 -1.64057E+04  3.64401E+03 -1.48784E+04  1.24724E+04 -1.42083E+04
  2.08683E+04 -1.19565E+04  2.76464E+04  9.20608E+02  2.11015E+04  1.67261E+04  4.94826E+03  3.24905E+04
 -1.62764E+04  2.73249E+04 -2.51946E+04  8.75339E+03 -1.91968E+04 -1.01821E+04 -3.64222E+03 -1.38152E+04
  2.77323E+03 -4.33500E+03 -2.58571E+03  4.65787E+03 -1.31072E+04  5.22613E+03 -1.35125E+04 -5.11070E+03
 -8.80521E+03 -1.52129E+04  4.25493E+03 -1.93114E+04  1.26689E+04 -1.41321E+04  1.46566E+04 -1.46809E+03
  9.60951E+03  9.94167E+03 -1.01185E+03  1.52844E+04 -9.87594E+03  8.36575E+03 -1.55058E+04 -3.25442E+03
 -1.12687E+04 -1.39245E+04 -1.55384E+03 -1.88682E+04  8.39665E+03 -1.53071E+04  1.62463E+04 -7.09371E+03
  1.41766E+04  6.04132E+02  1.02181E+04  3.63485E+03  4.71952E+03 -9.96035E+01  7.37600E+03 -1.57778E+03
  1.38166E+04  2.67457E+03  1.43927E+04  1.21873E+04  8.94228E+03  2.39138E+04 -2.86829E+03  2.62534E+04
 -1.59868E+04  1.95686E+04 -2.42716E+04  9.15169E+03 -2.45752E+04 -2.34069E+03 -2.10572E+04 -1.45566E+04
 -1.02805E+04 -1.96813E+04  6.06302E+03 -1.86906E+04  1.64657E+04 -1.07384E+04  1.58810E+04  3.11297E+03
  6.39201E+03  1.07514E+04 -6.85835E+03  1.02097E+04 -1.28991E+04  2.93462E+03 -1.02014E+04 -8.21389E+03
  1.93157E+02 -1.24038E+04  6.20530E+03 -8.85308E+03  7.94924E+03 -1.56277E+03  1.69350E+03  4.89625E+03
 -5.44714E+03  1.32700E+03 -3.30026E+03 -4.44683E+03  1.12870E+03 -9.67489E+03  8.48478E+03 -9.75388E+03
  1.20748E+04 -4.26960E+03  1.23572E+04  2.82351E+03  1.06149E+04  9.20676E+03  5.07669E+03  1.36354E+04
 -1.57917E+03  1.52474E+04 -9.08360E+03  9.54604E+03 -1.15448E+04  3.43779E+03 -8.45318E+03 -1.91637E+03
 -4.32825E+03 -3.01163E+03 -4.85237E+02  1.59570E+03 -2.40671E+03  1.77579E+03 -3.20838E+03  3.27924E+03
 -8.33310E+03 -3.05298E+02 -8.40314E+03 -7.39340E+03 -3.47186E+03 -1.14558E+04  4.07080E+03 -8.06416E+03
  7.07120E+03 -4.14155E+03  5.33502E+03  2.02884E+03  1.07041E+03  3.15086E+03 -2.87456E+03 -4.95260E+02
 -3.12487E+03 -5.63505E+03 -5.57924E+02 -7.13813E+03  3.74678E+03 -7.59542E+03  9.48267E+03 -3.83354E+03
  1.14149E+04  3.85579E+02  8.55656E+03  6.87520E+03  1.47873E+03  8.51923E+03 -5.28135E+03  8.44776E+03
 -6.89068E+03  3.09493E+03 -3.28605E+03 -1.41941E+03  1.18206E+03 -1.65620E+03  5.06274E+03 -1.05838E+03
  3.70944E+03  3.28855E+03  1.20938E+03  6.45488E+03 -4.63466E+03  6.33523E+03 -8.08723E+03  2.04417E+03
 -4.99191E+03 -3.56530E+03  1.02206E+02 -6.77493E+03  3.63032E+03 -4.00002E+03  3.24320E+03  8.08521E+02
  1.10076E+02  2.97321E+03 -4.00286E+03  4.43661E+03 -5.64365E+03  2.66303E+03 -4.52175E+03 -1.18230E+03
 -2.56245E+03 -5.50542E+03  1.79600E+03 -7.08515E+03  6.29166E+03 -4.52042E+03  7.08420E+03  6.92225E+02
  4.64401E+03  5.24040E+03  2.30663E+02  7.37290E+03 -4.94799E+03  4.18118E+03 -4.78614E+03 -5.21691E+02
 -5.53444E+03 -5.37518E+03 -1.15246E+03 -5.41571E+03  2.03004E+03 -4.39872E+03  2.32599E+03 -2.85984E+03
  2.99120E+03  5.12544E+02 -3.13661E+02  1.20426E+03  1.05839E+02 -2.44537E+02  6.80101E+01 -2.23499E+03
  3.65893E+03 -7.77296E+02  5.35519E+03  5.62037E+02  5.49441E+03  3.06591E+03  5.15143E+03  7.35771E+03
 -1.59324E+03  8.34676E+03 -7.41540E+03  7.02730E+03 -1.02176E+04  1.14728E+03 -8.04095E+03 -2.16053E+03
 -4.02359E+03 -6.32144E+03  6.04929E+01 -5.38088E+03  2.32832E+03 -2.00460E+03  1.99330E+03 -2.20496E+03
  9.00260E+02 -1.86720E+03  1.97756E+03 -2.71050E+03  3.35774E+03 -1.60604E+03  4.05252E+03  4.82671E+02
  4.31301E+03  1.45153E+03  1.03486E+03  3.37898E+03 -1.42622E+03  3.32699E+03 -4.70169E+03  2.61665E+03
 -5.38486E+03 -1.38761E+03 -1.87847E+03 -3.14324E+03  4.06718E+02 -5.16334E+03  2.70577E+03 -5.12340E+03
  5.47473E+03 -3.73815E+03  7.22398E+03  9.40227E+01  4.90003E+03  4.44853E+03  1.45263E+03  6.21705E+03
 -2.10760E+03  5.85762E+03 -3.38826E+03  2.31951E+03 -1.95562E+03 -8.83157E+02 -4.91588E+02 -6.53122E+02
 -3.50952E+02  5.38541E+02 -9.73563E+02  2.40978E+03 -2.27270E+03  1.04501E+03 -3.97689E+03 -3.86724E+02
 -1.28073E+03 -3.67171E+03  7.90250E+02 -4.23816E+03  2.98362E+03 -4.49277E+03  3.20614E+03 -1.66659E+03
  4.20425E+03  2.14555E+03  1.98274E+03  3.22098E+03 -1.98339E+02  3.70190E+03 -2.68582E+03  2.95652E+03
 -4.07465E+03  5.97995E+02 -2.95510E+03 -2.69965E+03 -3.86975E+02 -3.61527E+03  1.69253E+03 -3.08969E+03
  3.10713E+03 -1.46854E+03  1.64414E+03  1.21850E+02  1.90821E+02  1.51878E+03  8.79375E+02  1.99413E+02
  1.69605E+03  8.24071E+02  1.16769E+03  1.02551E+03  1.47428E+03  2.65955E+03  1.22412E+03  1.74647E+03
 -1.41786E+03  3.02242E+03 -2.63111E+03  4.24513E+03 -3.20482E+03  1.22440E+03 -4.14868E+03 -9.33815E+02
 -1.61941E+03 -3.94828E+03  7.76019E+02 -4.42781E+03  2.73163E+03 -2.45981E+03  3.52677E+03 -1.18038E+03
  2.79113E+03  1.69206E+03  3.14925E+02  2.44463E+03 -1.41860E+03  1.48776E+03 -8.22277E+02 -4.76911E+02
 -6.81216E+02 -1.07190E+03  9.64916E+02 -1.42954E+03  1.71197E+03 -8.64432E+02  1.80566E+03  9.52695E+02
  7.56681E+02  6.08690E+02  1.16800E+03 -5.69862E+01 -7.70809E+01  8.73809E+02  1.36285E+03  2.94595E+02
  6.36465E+02 -1.39908E+02  1.88264E+03  5.30534E+02  4.36155E+02  2.49176E+03 -1.44615E+02  3.05200E+03
 -1.93785E+03  1.67642E+03 -1.95117E+03  6.94435E+02 -2.24532E+03 -6.18584E+02 -6.88739E+02 -1.17972E+03
  1.21582E+03 -1.60198E+03  1.06684E+03 -6.65584E+02  7.99992E+01  9.91415E+02 -4.96748E+02  1.39036E+03
 -1.62896E+03  9.69177E+02 -1.14254E+03 -1.68783E+03 -5.06190E+02 -2.09518E+03  1.41577E+02 -1.93147E+03
  6.59464E+02 -8.56978E+02  6.61608E+02 -3.37487E+01  1.11974E+03 -2.86438E+02  5.74104E+01  1.53749E+03
 -2.39706E+02  2.31572E+02 -1.12473E+03  4.95426E+02  1.06609E+03 -7.05132E+02  1.93490E+03 -1.58028E+03
  1.19829E+03  3.23808E+02  3.52104E+03  6.51700E+02  8.65210E+02  1.63790E+03 -2.78302E+02  1.99765E+03
 -1.90670E+03  3.47253E+02 -1.81029E+03 -2.11122E+02 -5.75997E+02 -1.46815E+03 -1.92572E+02 -4.59384E+02
  1.38679E+03 -7.81280E+02  8.01896E+02  1.15543E+03  4.34784E+02  7.47240E+02  3.70141E+02  1.34863E+03
 -1.12945E+03  7.20869E+02 -8.69605E+02  1.11813E+02 -1.23557E+02  2.74018E+02 -7.07171E+02  1.04596E+03
 -3.48322E+02  8.84819E+02 -1.47361E+03  7.71079E+02 -1.92565E+03  4.61529E+02 -2.28310E+03 -9.08828E+02
 -1.25852E+03 -2.04463E+03  8.94991E+02 -2.74753E+03  9.52963E+02 -2.70943E+03  3.09606E+03 -6.08187E+02
  2.53822E+03 -1.46377E+02  8.69888E+02  1.94451E+03  6.23189E+01  1.47791E+03 -7.24899E+02  1.02005E+03
 -1.00465E+03  8.40442E+02 -6.45313E+02 -5.10287E+02 -1.95692E+02  2.36541E+02 -4.80258E+02  8.58239E+01
 -1.08571E+03  2.67106E+02 -1.09306E+03 -7.14695E+01  1.90038E+02 -9.45835E+02 -1.70170E+02 -6.11693E+02
  1.60666E+03 -6.98816E+02  7.74508E+02  2.50380E+02  1.12937E+03  6.61299E+02 -1.77118E+02  1.65615E+03
 -1.38636E+03  2.64878E+03 -2.34313E+03  1.81259E+03 -1.99548E+03 -3.89809E+02 -1.43540E+03 -1.03953E+03
 -8.02809E+02 -1.23632E+03  1.80984E+02 -1.62165E+03  2.59884E+02 -9.37774E+02  7.35845E+02 -6.50535E+01
  1.02802E+03  5.48727E+02 -9.27581E+01  4.97657E+02 -6.96016E+02 -4.01991E+01 -1.50991E+02 -1.91469E+02
  5.35250E+02  2.64421E+02  5.44963E+02  3.24608E+02  7.40337E+02  4.78549E+02  1.55697E+02  4.10677E+02
 -7.21441E+02  1.17263E+03 -7.56663E+02  5.14655E+02 -7.98588E+02 -9.23792E+02 -1.57744E+02 -2.02673E+03
  3.60561E+02 -1.06695E+03  7.04375E+02 -4.70755E+02  8.91448E+02 -3.24524E+02  3.50540E+02  1.19669E+03
  2.17124E+02  3.56475E+02  8.91373E+01  7.57281E+02 -1.15355E+02  7.65786E+02 -8.05447E+02  1.75013E+02
 -1.01682E+02 -3.21427E+02 -3.11413E+02 -3.76268E+02 -2.83542E+02  1.24879E+02 -1.19257E+03  1.25082E+02
 -9.61437E+02  3.73958E+02  6.29202E+01 -1.01204E+03  9.03451E+02 -1.62375E+03  1.35177E+03 -9.65870E+02
  1.14795E+03  2.44146E+02  1.75674E+02  4.08187E+02 -2.54485E+02  8.52394E+02 -3.33748E+02  5.83585E+02
