 $NMID ID='MM_0lb_SNR400_11hz_g60_96.RAW', FMTDAT='(8E13.5)'
 TRAMP=1., VOLUME=1. $END
  3.10268E+05  3.00828E+02  3.37954E+05  2.50629E+05  8.52137E+04  3.38120E+05 -1.32331E+05  2.51903E+05
 -1.90911E+05  8.38556E+04 -1.12262E+05 -3.17462E+04  7.34791E+02 -5.10707E+04  5.35532E+04 -1.93690E+02
  3.61021E+04  5.32623E+04 -1.64810E+04  7.58055E+04 -6.18135E+04  6.37929E+04 -8.59416E+04  3.26127E+04
 -8.23827E+04 -1.16481E+04 -5.83352E+04 -5.16674E+04 -1.51538E+04 -7.07775E+04  2.78604E+04 -4.67189E+04
  4.12968E+04  3.88590E+03  1.63447E+04  4.85374E+04 -3.42941E+04  4.81149E+04 -6.80170E+04 -8.42400E+01
 -5.41156E+04 -5.80166E+04 -7.29513E+03 -7.87380E+04  3.47495E+04 -5.62965E+04  4.99322E+04 -1.87643E+04
  4.46330E+04  1.08961E+04  3.29350E+04  2.68900E+04  1.57868E+04  3.02596E+04 -5.64381E+03  2.78489E+04
 -2.26613E+04  1.18795E+04 -1.84050E+04 -5.88057E+03  6.85806E+03 -7.02648E+03  2.35594E+04  1.40649E+04
  7.24177E+03  3.65474E+04 -3.39357E+04  3.66420E+04 -6.56754E+04  2.28173E+03 -5.86364E+04 -4.38325E+04
 -1.28126E+04 -6.56273E+04  4.12905E+04 -4.74840E+04  5.95164E+04 -2.83705E+03  3.60525E+04  3.45575E+04
 -5.40844E+03  3.99942E+04 -3.11966E+04  1.86991E+04 -3.30432E+04 -4.01840E+03 -1.93367E+04 -1.20393E+04
 -8.80846E+03 -1.46743E+04 -1.02256E+03 -1.99015E+04  7.91146E+03 -2.27455E+04  1.62973E+04 -1.25733E+04
  9.90581E+03  5.92081E+03 -1.06041E+04  1.30226E+04 -2.32449E+04 -6.11224E+03 -8.92230E+03 -3.67556E+04
  2.46151E+04 -4.72621E+04  5.15398E+04 -2.09531E+04  4.76384E+04  2.05424E+04  1.68433E+04  4.59648E+04
 -1.59575E+04  3.63204E+04 -2.69356E+04  2.22516E+03 -1.17939E+04 -2.98856E+04  2.08632E+04 -3.69257E+04
  4.54272E+04 -1.13419E+04  3.90640E+04  2.44444E+04  2.05348E+04  5.12907E+04 -8.64237E+03  5.50708E+04
 -3.48811E+04  3.78992E+04 -4.66528E+04  1.11338E+04 -4.66841E+04 -1.83424E+04 -2.62479E+04 -4.21558E+04
  8.19841E+03 -4.13867E+04  3.36004E+04 -1.76474E+04  3.16647E+04  1.09195E+04  5.06529E+03  2.06660E+04
 -1.37279E+04  8.90999E+03 -1.13653E+04 -8.32664E+03  5.34899E+03 -1.12835E+04  1.84783E+04  5.90910E+03
  1.51871E+04  2.28854E+04 -5.17284E+03  2.68203E+04 -2.41182E+04  1.36638E+04 -3.15478E+04 -2.97876E+03
 -2.55215E+04 -1.83395E+04 -1.03984E+04 -2.47782E+04  4.44130E+03 -2.42559E+04  1.94481E+04 -2.24045E+04
  3.00857E+04 -1.42330E+04  3.72039E+04  4.46354E+03  2.65599E+04  2.40452E+04  4.06848E+03  4.08098E+04
 -1.96421E+04  3.36671E+04 -3.04397E+04  1.11991E+04 -2.22494E+04 -1.02186E+04 -5.27763E+03 -1.29132E+04
  9.77729E+02 -2.00988E+03 -7.58081E+03  8.05366E+03 -1.99622E+04  5.28225E+03 -1.99445E+04 -8.95107E+03
 -1.15011E+04 -2.24572E+04  5.39281E+03 -2.70204E+04  1.77479E+04 -1.97239E+04  2.20428E+04 -2.26726E+03
  1.46868E+04  1.57980E+04 -1.44086E+03  2.23882E+04 -1.65483E+04  1.26231E+04 -2.30953E+04 -4.22245E+03
 -1.65366E+04 -2.02746E+04 -2.47821E+03 -2.81132E+04  1.29045E+04 -2.23628E+04  2.25007E+04 -1.18800E+04
  2.09537E+04  2.63559E+02  1.59743E+04  6.12677E+03  8.72064E+03  1.35589E+03  1.14304E+04 -1.60955E+03
  2.05377E+04  2.24119E+03  2.39885E+04  1.78227E+04  1.61045E+04  3.62549E+04 -2.63817E+03  4.24457E+04
 -2.35439E+04  3.51031E+04 -3.94774E+04  1.77028E+04 -4.28647E+04 -2.43474E+03 -3.44947E+04 -2.47686E+04
 -1.43274E+04 -3.49886E+04  1.28105E+04 -3.15159E+04  2.62345E+04 -1.51206E+04  2.23761E+04  7.43811E+03
  7.88626E+03  1.82864E+04 -1.13865E+04  1.52450E+04 -1.87451E+04  3.61802E+03 -1.42192E+04 -1.19243E+04
 -2.29737E+02 -1.90382E+04  9.98861E+03 -1.41753E+04  1.26547E+04 -2.02980E+03  3.01288E+03  8.37136E+03
 -8.01111E+03  3.69781E+03 -8.33124E+03 -6.28452E+03 -1.43920E+03 -1.72422E+04  1.10774E+04 -1.84866E+04
  2.10877E+04 -1.05153E+04  2.39992E+04  3.41513E+03  2.14547E+04  1.63611E+04  9.90617E+03  2.76942E+04
 -4.96136E+03  2.94991E+04 -1.85211E+04  1.76974E+04 -2.12051E+04  3.78136E+03 -1.44840E+04 -4.57828E+03
 -6.35298E+03 -7.54059E+03 -1.40574E+03  8.07004E+02 -3.73591E+03  3.77057E+03 -7.24157E+03  4.95373E+03
 -1.33402E+04 -1.13979E+03 -1.39472E+04 -1.21006E+04 -6.31233E+03 -1.77939E+04  5.56273E+03 -1.42794E+04
  1.23589E+04 -6.09245E+03  9.55563E+03  4.32852E+03 -3.36265E+02  6.11960E+03 -7.94577E+03 -3.99195E+01
 -6.73893E+03 -9.40598E+03 -1.03496E+03 -1.40099E+04  8.29811E+03 -1.50379E+04  1.89165E+04 -7.55136E+03
  2.15697E+04  2.16751E+03  1.62294E+04  1.32813E+04  3.52489E+03  1.76114E+04 -8.71011E+03  1.45040E+04
 -1.20316E+04  4.32014E+03 -6.35425E+03 -2.33112E+03  1.73424E+03 -4.22135E+03  7.90928E+03 -1.31849E+03
  5.86350E+03  6.93100E+03  1.37054E+03  1.20169E+04 -9.06049E+03  1.17693E+04 -1.44213E+04  2.30522E+03
 -1.06123E+04 -7.89180E+03  7.52230E+02 -1.22923E+04  8.12660E+03 -5.67072E+03  8.31437E+03  2.56259E+03
  2.28301E+03  9.40584E+03 -7.53060E+03  1.07714E+04 -1.27346E+04  4.65621E+03 -1.30807E+04 -4.56871E+03
 -7.15223E+03 -1.42918E+04  3.37421E+03 -1.60710E+04  1.36505E+04 -9.77039E+03  1.56350E+04  2.54581E+03
  9.11142E+03  1.23158E+04 -1.42077E+03  1.47808E+04 -1.08179E+04  8.87423E+03 -1.18778E+04 -1.49383E+03
 -9.44234E+03 -9.37974E+03 -1.66256E+03 -1.06577E+04  6.42576E+03 -8.44505E+03  7.42289E+03 -3.70754E+03
  4.31932E+03  1.94584E+03 -1.18397E+03  2.48505E+03 -9.59270E+02 -2.66140E+03  2.35941E+03 -6.62562E+03
  9.96946E+03 -4.30235E+03  1.45884E+04  1.87352E+03  1.39781E+04  9.31715E+03  9.63757E+03  1.85407E+04
 -4.47446E+03  2.15570E+04 -1.79987E+04  1.56946E+04 -2.21978E+04  3.66798E+03 -1.85663E+04 -7.98037E+03
 -9.31944E+03 -1.57067E+04 -1.11566E+02 -1.30915E+04  5.11828E+03 -7.47926E+03  4.45507E+03 -4.48443E+03
  3.67367E+03 -3.43777E+03  3.62877E+03 -4.30641E+03  5.89733E+03 -3.86126E+03  7.51046E+03 -1.11405E+03
  9.88953E+03  2.53224E+03  5.22297E+03  8.65212E+03 -2.69597E+03  1.00666E+04 -1.00184E+04  8.05003E+03
 -1.28657E+04 -1.25461E+03 -8.04834E+03 -8.22397E+03 -9.17153E+02 -1.37770E+04  8.03047E+03 -1.40141E+04
  1.52420E+04 -8.28622E+03  1.69229E+04  1.41862E+03  1.22577E+04  1.21209E+04  2.29509E+03  1.59190E+04
 -6.73648E+03  1.21571E+04 -9.36792E+03  4.15699E+03 -6.09276E+03 -1.74845E+03 -2.14106E+03 -1.27893E+03
 -1.07909E+03  5.56888E+02 -1.92620E+03  3.43764E+03 -5.46943E+03  3.02133E+03 -8.87095E+03 -1.06757E+03
 -6.27072E+03 -9.36766E+03  1.12528E+03 -1.22598E+04  7.28465E+03 -1.14030E+04  1.28202E+04 -3.88230E+03
  1.22954E+04  5.90108E+03  5.71862E+03  1.11932E+04 -2.49186E+03  1.30033E+04 -9.55028E+03  8.42578E+03
 -1.22192E+04 -1.27451E+02 -8.91116E+03 -7.59271E+03 -7.68452E+02 -1.05520E+04  5.19046E+03 -7.15977E+03
  7.92457E+03 -2.09376E+03  5.21997E+03  2.02066E+03  1.69472E+03  3.65691E+03  1.63011E+03  1.62401E+03
  2.33950E+03  1.00498E+03  3.37188E+03  1.83432E+03  3.57014E+03  4.37079E+03  3.80455E+03  6.11685E+03
 -3.20426E+03  9.78604E+03 -8.49128E+03  1.05077E+04 -1.25764E+04  2.76869E+03 -1.30526E+04 -5.14631E+03
 -5.89356E+03 -1.24702E+04  1.47312E+03 -1.39975E+04  7.71452E+03 -9.43427E+03  1.02830E+04 -2.29364E+03
  7.60139E+03  4.89407E+03  1.92247E+03  7.32686E+03 -3.40619E+03  4.42924E+03 -5.27652E+03 -9.28670E+02
 -1.58470E+03 -5.03312E+03  3.77142E+03 -5.69612E+03  5.61860E+03 -2.08717E+03  4.87885E+03  1.55414E+03
  2.48389E+03  2.41622E+03  1.20167E+03  2.51395E+03 -3.12087E+02  1.59910E+03  1.96755E+03 -6.86562E+02
  2.07943E+03 -9.91391E+02  4.87573E+03  2.62749E+03  3.07520E+03  6.51090E+03 -1.10792E+03  8.69842E+03
 -6.05435E+03  5.58914E+03 -8.30767E+03  1.82221E+03 -7.06258E+03 -2.93218E+03 -2.83403E+03 -4.71129E+03
  1.09063E+03 -5.57198E+03  3.45213E+03 -2.73271E+03  2.74588E+03  3.22169E+03 -1.33421E+03  4.23748E+03
 -4.75901E+03  2.77401E+03 -5.68581E+03 -3.17769E+03 -3.40454E+03 -7.11098E+03  9.39704E+02 -6.60044E+03
  3.71947E+03 -3.52424E+03  4.99879E+03  2.06248E+02  3.86900E+03  1.07403E+03  7.39854E+02  3.27614E+03
 -2.27541E+03  8.36191E+02 -3.40756E+03 -2.12453E+03  9.20319E+02 -4.94091E+03  6.15084E+03 -4.45794E+03
  7.39462E+03  5.33534E+02  7.68503E+03  4.35217E+03  2.38361E+03  8.30629E+03 -3.02477E+03  7.73729E+03
 -6.11286E+03  3.17605E+03 -6.28203E+03 -5.87531E+02 -3.64650E+03 -5.25664E+03  1.63456E+03 -4.81952E+03
  4.99867E+03 -2.32811E+03  4.92726E+03  2.06060E+03  1.65659E+03  3.96859E+03 -1.00380E+02  3.89485E+03
 -2.74367E+03  2.53519E+03 -2.25743E+03  9.20596E+02 -7.39944E+02  1.48763E+03 -1.82748E+03  1.65997E+03
 -1.79250E+03  2.77140E+03 -5.16025E+03  2.23058E+03 -7.78691E+03  7.61416E+02 -9.51788E+03 -5.38539E+03
 -4.45556E+03 -9.88442E+03  1.80332E+03 -1.19830E+04  7.42592E+03 -9.62238E+03  1.07807E+04 -3.56207E+03
  1.02732E+04  2.16734E+03  6.43887E+03  7.57762E+03  6.25727E+01  7.89627E+03 -3.18842E+03  6.04608E+03
 -4.68514E+03  2.42924E+03 -1.94310E+03 -7.80937E+02 -1.16442E+03 -5.49266E+02 -4.19107E+02 -8.80551E+01
 -1.71310E+03  7.89926E+02 -1.62482E+03  2.93097E+02 -1.54194E+01 -2.09484E+03  6.35110E+02 -2.56243E+03
  3.33525E+03 -2.65525E+03  4.02111E+03  3.19748E+02  5.03555E+03  4.53989E+03  1.12786E+03  7.47897E+03
 -3.63082E+03  9.23513E+03 -8.48713E+03  4.65447E+03 -9.65085E+03 -9.26054E+02 -6.72098E+03 -6.00659E+03
 -3.83421E+03 -7.34761E+03  1.53312E+03 -7.02154E+03  4.49840E+03 -3.36154E+03  5.55270E+03  6.88504E+02
  3.09443E+03  2.40587E+03  1.98781E+01  2.02787E+03 -1.31451E+03  1.37210E+02  2.12530E+02 -1.55306E+03
  2.95519E+03 -1.21771E+03  3.28731E+03  8.65130E+02  2.39759E+03  2.66928E+03  1.36380E+02  3.66090E+03
 -3.80195E+03  3.82027E+03 -4.54164E+03  8.69386E+02 -4.09501E+03 -2.61226E+03 -1.51759E+02 -5.92607E+03
  3.46175E+03 -5.31108E+03  5.26881E+03 -7.94403E+02  6.28897E+03  1.57295E+03  2.67603E+03  4.18806E+03
  1.07245E+03  4.31701E+03 -1.68935E+03  3.33466E+03 -4.02295E+03  1.92571E+03 -2.43746E+03  5.47054E+02
 -1.22102E+03  2.87590E+02 -2.25721E+03  6.73719E+02 -1.61353E+03  1.08729E+03 -3.99049E+03 -1.94734E+02
 -2.83920E+03 -2.11462E+03 -1.49024E+03 -4.79848E+03  2.15861E+03 -4.99821E+03  4.27243E+03 -2.52733E+03
  4.41963E+03 -3.81662E+02  2.40665E+03  3.42897E+03 -7.42322E+02  4.02230E+03 -3.70705E+03  2.93824E+03
