 $NMID ID='MM_0lb_SNR400_19hz_g50_7.RAW', FMTDAT='(8E13.5)'
 TRAMP=1., VOLUME=1. $END
  3.10437E+05  7.49200E+02  3.36445E+05  2.50272E+05  8.43472E+04  3.37264E+05 -1.32081E+05  2.50623E+05
 -1.90003E+05  8.29121E+04 -1.11574E+05 -3.31221E+04  1.46240E+03 -5.03381E+04  5.39359E+04  2.12416E+02
  3.54042E+04  5.28300E+04 -1.67716E+04  7.45975E+04 -6.02517E+04  6.24989E+04 -8.33566E+04  3.18354E+04
 -7.95988E+04 -1.16175E+04 -5.62019E+04 -4.98966E+04 -1.50280E+04 -6.81210E+04  2.67769E+04 -4.51335E+04
  3.91125E+04  3.86664E+03  1.57448E+04  4.69142E+04 -3.41605E+04  4.64324E+04 -6.56105E+04 -3.88194E+02
 -5.21174E+04 -5.62529E+04 -6.27731E+03 -7.54337E+04  3.30564E+04 -5.30590E+04  4.61738E+04 -1.61840E+04
  4.17822E+04  1.08623E+04  3.06666E+04  2.42003E+04  1.56907E+04  2.85699E+04 -4.99557E+03  2.65097E+04
 -2.19669E+04  1.26430E+04 -1.90962E+04 -3.91546E+03  4.18707E+03 -7.92830E+03  2.15964E+04  1.10099E+04
  7.59786E+03  3.31743E+04 -3.06155E+04  3.38562E+04 -6.12393E+04  2.36971E+03 -5.51833E+04 -4.07190E+04
 -1.16439E+04 -6.05876E+04  3.77598E+04 -4.40019E+04  5.57514E+04 -1.99574E+03  3.17255E+04  3.12320E+04
 -6.39343E+03  3.35297E+04 -2.83848E+04  1.34248E+04 -2.77236E+04 -5.03364E+03 -1.41745E+04 -1.00828E+04
 -7.65423E+03 -1.10952E+04 -1.26585E+03 -1.66047E+04  6.80355E+03 -2.21610E+04  1.47520E+04 -1.37898E+04
  1.23247E+04  4.19513E+03 -5.87437E+03  1.23783E+04 -1.84715E+04 -2.60620E+03 -8.09974E+03 -3.04219E+04
  2.08581E+04 -4.08338E+04  4.47838E+04 -1.92069E+04  4.16597E+04  1.79284E+04  1.42845E+04  4.20651E+04
 -1.50868E+04  3.08669E+04 -2.40118E+04  1.44658E+03 -8.30589E+03 -2.64215E+04  2.09335E+04 -3.10605E+04
  3.83989E+04 -7.36420E+03  3.19516E+04  2.25097E+04  1.54050E+04  4.34220E+04 -7.87671E+03  4.57233E+04
 -2.82554E+04  3.00404E+04 -3.80770E+04  7.77772E+03 -3.84852E+04 -1.51742E+04 -2.17165E+04 -3.40891E+04
  7.14723E+03 -3.39804E+04  2.94365E+04 -1.24265E+04  2.67809E+04  1.10679E+04  2.83462E+03  1.76797E+04
 -1.31503E+04  6.68896E+03 -9.34604E+03 -7.80747E+03  5.97505E+03 -1.05029E+04  1.77302E+04  6.29405E+03
  1.22113E+04  2.17248E+04 -7.06475E+03  2.37724E+04 -2.17469E+04  9.17518E+03 -2.51200E+04 -6.38376E+03
 -1.69610E+04 -1.64645E+04 -5.34544E+03 -1.73221E+04  3.44944E+03 -1.47920E+04  1.25595E+04 -1.45524E+04
  2.14537E+04 -1.14985E+04  2.86619E+04  1.41047E+03  2.11002E+04  1.67230E+04  3.58449E+03  3.21161E+04
 -1.61150E+04  2.73774E+04 -2.59020E+04  9.64867E+03 -1.98223E+04 -1.01158E+04 -3.56728E+03 -1.37363E+04
  2.58790E+03 -3.76577E+03 -2.63987E+03  5.39859E+03 -1.26267E+04  5.73818E+03 -1.33239E+04 -5.14566E+03
 -8.24138E+03 -1.54607E+04  4.42504E+03 -1.95548E+04  1.23700E+04 -1.45230E+04  1.48767E+04 -9.60463E+02
  8.84907E+03  1.09166E+04 -9.94177E+02  1.60658E+04 -1.05113E+04  8.37960E+03 -1.56764E+04 -3.21087E+03
 -1.12529E+04 -1.39645E+04 -1.52521E+03 -1.87827E+04  8.57229E+03 -1.53169E+04  1.65962E+04 -7.46544E+03
  1.46224E+04  9.46402E+02  1.05659E+04  3.64656E+03  4.99843E+03  7.15730E+02  7.88251E+03 -2.24409E+03
  1.41670E+04  2.94324E+03  1.45777E+04  1.24804E+04  9.05905E+03  2.42667E+04 -2.82105E+03  2.65065E+04
 -1.57979E+04  2.00538E+04 -2.47215E+04  9.30689E+03 -2.47421E+04 -1.49482E+03 -2.06348E+04 -1.46385E+04
 -9.92778E+03 -1.98807E+04  7.15215E+03 -1.90542E+04  1.61414E+04 -1.08411E+04  1.51979E+04  3.64424E+03
  6.40858E+03  1.09927E+04 -6.67398E+03  1.08626E+04 -1.30180E+04  2.16398E+03 -1.04109E+04 -7.76002E+03
  2.80725E+02 -1.23739E+04  6.43048E+03 -9.43378E+03  8.50122E+03 -1.37316E+03  1.53304E+03  5.38050E+03
 -5.47536E+03  9.38282E+02 -3.50860E+03 -4.62996E+03  5.39288E+02 -9.96077E+03  8.34539E+03 -9.87082E+03
  1.24888E+04 -4.51986E+03  1.19101E+04  2.43550E+03  1.02578E+04  9.29604E+03  4.70542E+03  1.37558E+04
 -1.56020E+03  1.56184E+04 -9.83194E+03  9.46395E+03 -1.09721E+04  3.05446E+03 -8.67260E+03 -1.38716E+03
 -4.50342E+03 -2.96037E+03 -6.23582E+02  1.27408E+03 -1.78469E+03  1.77300E+03 -4.04568E+03  3.74523E+03
 -8.35411E+03 -3.14188E+02 -9.27568E+03 -6.77730E+03 -3.59813E+03 -1.16143E+04  3.64497E+03 -8.13755E+03
  7.13086E+03 -3.95516E+03  4.92753E+03  1.82052E+03  7.07182E+02  2.41887E+03 -3.48261E+03 -1.27096E+02
 -3.44961E+03 -4.59267E+03 -4.54739E+02 -6.23695E+03  4.07071E+03 -7.23876E+03  9.34140E+03 -4.07314E+03
  1.16249E+04  5.36815E+02  8.36923E+03  5.79877E+03  1.80485E+03  8.30457E+03 -5.51546E+03  8.27974E+03
 -6.49527E+03  2.82382E+03 -3.13455E+03 -4.56104E+02  9.43284E+02 -2.07078E+03  4.73694E+03 -1.20982E+03
  4.17235E+03  3.49941E+03  6.41718E+02  6.19581E+03 -4.52485E+03  6.53529E+03 -7.60211E+03  2.25444E+03
 -4.54552E+03 -3.19572E+03 -5.18784E+01 -6.76337E+03  3.44647E+03 -2.97296E+03  3.30030E+03  8.34302E+02
  2.76351E+01  2.72997E+03 -3.44933E+03  5.11889E+03 -4.51751E+03  2.16339E+03 -3.91068E+03 -7.24987E+02
 -2.25375E+03 -5.75196E+03  9.90840E+02 -6.96618E+03  5.47489E+03 -4.36829E+03  5.86045E+03  2.15701E+02
  4.53349E+03  5.39436E+03  5.08355E+02  6.99876E+03 -4.54038E+03  3.66006E+03 -5.05355E+03 -3.99006E+02
 -4.70146E+03 -5.20655E+03 -1.14599E+03 -4.35192E+03  2.38607E+03 -4.48982E+03  2.99479E+03 -2.58331E+03
  2.58514E+03  3.77485E+02  3.98480E+01  1.27973E+03  1.09881E+03  1.66014E+02  1.84226E+02 -1.97763E+03
  4.14716E+03 -1.06221E+03  4.91782E+03  5.94903E+02  5.15196E+03  3.32325E+03  5.47009E+03  6.76252E+03
 -1.06916E+03  7.95933E+03 -7.47669E+03  6.17580E+03 -9.96747E+03  1.51100E+03 -7.62430E+03 -2.58129E+03
 -3.99201E+03 -6.06719E+03  1.60302E+02 -4.91118E+03  1.88803E+03 -1.77618E+03  1.80031E+03 -1.56302E+03
  1.06056E+03 -1.25513E+03  2.11696E+03 -2.25676E+03  3.76112E+03 -1.72107E+03  3.42264E+03 -1.39103E+02
  4.28175E+03  1.13720E+03  9.51878E+02  2.97757E+03 -1.53117E+03  2.64502E+03 -4.31655E+03  2.39632E+03
 -4.61301E+03 -5.23521E+02 -1.73216E+03 -3.38390E+03  9.47472E+00 -5.24620E+03  2.94706E+03 -4.37123E+03
  4.26019E+03 -3.16381E+03  6.61778E+03  4.35416E+02  5.38922E+03  4.35732E+03  5.56777E+02  5.17330E+03
 -2.15281E+03  5.68010E+03 -3.02021E+03  2.09746E+03 -2.15197E+03 -6.06999E+02 -6.91903E+02 -6.80375E+02
  5.62062E+01  8.45657E+02 -1.17339E+03  2.14927E+03 -2.86222E+03  6.38061E+02 -3.72234E+03 -1.64861E+02
 -1.13351E+03 -3.69180E+03  6.13634E+02 -4.31378E+03  3.09522E+03 -4.08043E+03  3.16843E+03 -1.38640E+03
  3.49713E+03  2.29521E+03  1.42319E+03  2.63129E+03 -1.00647E+03  3.83051E+03 -2.54633E+03  2.47097E+03
 -3.36586E+03  1.02860E+03 -3.12327E+03 -1.78945E+03  1.08976E+02 -2.89870E+03  1.20459E+03 -2.33118E+03
  2.54399E+03 -1.25311E+03  2.00145E+03  4.65820E+02  4.05351E+02  1.49525E+03  5.34678E+02  2.88026E+02
  1.67277E+03  1.05746E+02  1.54664E+03  8.19398E+02  1.17903E+03  2.42046E+03  1.67421E+03  2.35638E+03
 -1.12301E+03  2.96084E+03 -2.00696E+03  3.80116E+03 -2.59945E+03  1.32767E+03 -3.94429E+03 -3.92504E+02
 -1.61570E+03 -3.45724E+03  3.35766E+02 -4.41203E+03  1.78233E+03 -1.78501E+03  3.33870E+03 -7.62712E+02
  2.26552E+03  1.64967E+03  7.06086E+02  1.77095E+03 -2.50642E+02  1.58379E+03 -7.92699E+02 -3.40010E+02
 -3.78275E+02 -1.86551E+03  9.45801E+02 -1.60720E+03  9.59604E+02 -1.19296E+03  1.18403E+03  8.38582E+02
  6.47026E+02  4.81427E+02  3.96532E+02 -8.46807E+02 -1.00709E+03  8.01672E+02  1.76531E+03 -1.97288E+02
  2.66163E+01 -2.58087E+01  1.58505E+03  8.78989E+02  2.81790E+02  1.83467E+03 -6.26418E+01  2.35420E+03
 -8.30010E+02  7.76508E+02 -2.50295E+03  3.96842E+02 -2.03057E+03 -3.74252E+02 -3.30206E+02 -1.07778E+03
  3.62642E+02 -8.92345E+02  1.02033E+03 -7.90196E+02  4.27913E+02  4.90088E+02 -8.41396E+02  1.06022E+03
 -1.60721E+03  8.28830E+02 -1.25464E+03 -5.92579E+02 -1.87048E+02 -1.67104E+03  2.39286E+02 -1.12547E+03
  6.59387E+01 -5.07839E+02  4.78777E+02  2.53672E+02  1.16516E+03  1.97964E+02  6.33524E+02  9.40752E+02
 -6.48567E+02  4.84395E+02 -9.34821E+02 -4.30862E+02  2.98442E+02 -7.25168E+02  1.25218E+03 -4.35267E+02
  1.15331E+03  3.01080E+02  2.62158E+03 -9.70110E+01  1.21751E+03  1.29350E+03 -8.23747E+01  2.11417E+03
 -1.53713E+03 -8.67186E+01 -1.76701E+03  1.50528E+02 -6.47572E+02 -6.70640E+02  4.94755E+02  1.84521E+02
  1.42345E+03 -2.52976E+02  9.36307E+02  9.00623E+02 -3.85256E+02  1.44972E+03  1.20526E+02  1.01624E+03
  2.77646E+02  5.51917E+02 -2.36973E+02  3.22200E+02  2.18918E+01  7.22829E+02 -8.07245E+02  3.28068E+02
 -6.13032E+02  9.02455E+02 -2.41394E+03  7.44678E+02 -1.60496E+03 -1.54695E+01 -2.46218E+03 -9.94912E+02
 -1.18695E+03 -2.10702E+03  2.16428E+02 -2.65757E+03  1.48485E+03 -2.20945E+03  2.32374E+03 -6.28223E+02
  2.08737E+03 -6.51457E+02  1.30684E+03  1.78365E+03 -3.46570E+02  1.06603E+03 -1.03171E+03  1.04951E+03
 -1.07605E+03  7.10886E+02 -4.07416E+02 -6.42476E+02 -9.28908E+02 -3.23093E+02 -5.68403E+02  1.32505E+02
 -9.27116E+02  9.16246E+01 -1.46944E+03  3.99548E+02  1.94011E+02 -5.16284E+02 -3.68719E+02 -9.85982E+02
  9.52054E+02 -6.72579E+02  3.12968E+02  7.62339E+02  8.68662E+02  9.26747E+02 -2.05607E+02  1.60749E+03
 -8.24703E+02  2.60030E+03 -1.08166E+03  1.01742E+03 -1.49515E+03 -4.17521E+02 -1.45633E+03 -1.36431E+03
 -1.13698E+03 -1.41383E+03  4.27568E+01 -7.62003E+02  9.64524E+02 -4.99433E+02  3.73073E+02 -7.22330E+01
  5.07919E+02  2.43337E+02  5.01938E+02  5.34681E+02 -3.16474E+02  1.79479E+02 -4.04805E+02  1.00770E+02
  7.13577E+02  9.03164E+02  3.09529E+02  9.17089E+02  4.12782E+02  4.27443E+02  4.28612E+02  6.75714E+02
 -2.02260E+01  2.42080E+02 -5.09219E+02  3.92889E+02 -5.95353E+02 -4.20533E+02  2.09036E+02 -7.89503E+02
  6.61079E+02 -4.61393E+02  9.16732E+02  3.25213E+02  6.43655E+02 -9.56475E+02  2.39876E+02  8.25553E+02
  9.78145E+01  6.25871E+02 -1.00403E+02  9.36004E+02 -8.42524E+02  9.33147E+02 -3.55760E+02  4.07813E+02
  2.20951E+02 -1.87876E+02 -9.26536E+02  2.80722E+02 -9.02263E+02  7.90444E+01 -5.54463E+02 -7.05106E+02
 -9.23688E+02 -1.93665E+02  2.26282E-01 -8.11078E+02  5.89761E+02 -1.45554E+03  8.40185E+02 -3.42797E+01
  8.63911E+02  2.62719E+02 -1.63008E+02  4.64332E+02 -5.86045E+02  5.87861E+02 -4.41465E+02  1.04338E+03
