 $NMID ID='MM_0lb_SNR400_19hz_g50_54.RAW', FMTDAT='(8E13.5)'
 TRAMP=1., VOLUME=1. $END
  3.10107E+05  3.79324E+02  3.37030E+05  2.50839E+05  8.46827E+04  3.37310E+05 -1.32361E+05  2.50196E+05
 -1.89683E+05  8.25549E+04 -1.10914E+05 -3.28622E+04  1.30702E+03 -4.99152E+04  5.35788E+04  4.90263E+02
  3.50330E+04  5.24910E+04 -1.71801E+04  7.48353E+04 -6.01453E+04  6.30873E+04 -8.33055E+04  3.14815E+04
 -8.04699E+04 -1.12679E+04 -5.59252E+04 -5.03442E+04 -1.52737E+04 -6.86486E+04  2.68530E+04 -4.48733E+04
  3.96416E+04  4.12374E+03  1.55253E+04  4.69826E+04 -3.41472E+04  4.57931E+04 -6.50603E+04 -1.26151E+02
 -5.22448E+04 -5.57178E+04 -6.50617E+03 -7.56660E+04  3.30091E+04 -5.26318E+04  4.65506E+04 -1.67148E+04
  4.15305E+04  1.05560E+04  3.07443E+04  2.45314E+04  1.59750E+04  2.82315E+04 -4.67512E+03  2.61967E+04
 -2.14423E+04  1.24593E+04 -1.87383E+04 -4.36513E+03  4.51375E+03 -7.30636E+03  2.11458E+04  1.12522E+04
  8.15695E+03  3.32862E+04 -3.07485E+04  3.40330E+04 -6.03723E+04  2.27348E+03 -5.59257E+04 -4.12488E+04
 -1.22854E+04 -6.07852E+04  3.86374E+04 -4.36398E+04  5.54160E+04 -1.80912E+03  3.17669E+04  3.02654E+04
 -6.82967E+03  3.36088E+04 -2.89880E+04  1.31119E+04 -2.75361E+04 -5.61163E+03 -1.47019E+04 -1.04470E+04
 -7.68281E+03 -1.16911E+04 -1.31373E+03 -1.63131E+04  6.41977E+03 -2.27508E+04  1.48191E+04 -1.37686E+04
  1.27330E+04  4.57563E+03 -5.76961E+03  1.30676E+04 -1.94520E+04 -2.50013E+03 -8.03864E+03 -3.02281E+04
  2.09305E+04 -4.04889E+04  4.49243E+04 -1.89812E+04  4.21208E+04  1.81808E+04  1.43915E+04  4.20331E+04
 -1.54226E+04  3.13078E+04 -2.31200E+04  9.82648E+02 -8.31243E+03 -2.67916E+04  2.06089E+04 -3.07729E+04
  3.79379E+04 -7.50055E+03  3.15698E+04  2.26178E+04  1.57525E+04  4.27624E+04 -7.74069E+03  4.51347E+04
 -2.89147E+04  2.98843E+04 -3.71416E+04  8.46440E+03 -3.88549E+04 -1.51998E+04 -2.11921E+04 -3.41864E+04
  6.61624E+03 -3.45105E+04  2.92470E+04 -1.24084E+04  2.75450E+04  1.09738E+04  2.73683E+03  1.76031E+04
 -1.23549E+04  7.12513E+03 -9.38108E+03 -8.28244E+03  6.47803E+03 -9.86111E+03  1.70848E+04  6.03617E+03
  1.20019E+04  2.17058E+04 -5.90928E+03  2.36402E+04 -2.11662E+04  8.93691E+03 -2.54443E+04 -6.04926E+03
 -1.70147E+04 -1.63716E+04 -6.19494E+03 -1.72554E+04  4.09414E+03 -1.47649E+04  1.20007E+04 -1.51904E+04
  2.12273E+04 -1.19477E+04  2.80323E+04  1.02080E+03  2.15632E+04  1.61850E+04  4.16903E+03  3.21132E+04
 -1.61392E+04  2.75624E+04 -2.56572E+04  9.30280E+03 -1.93209E+04 -1.06504E+04 -4.24007E+03 -1.41174E+04
  2.99937E+03 -4.29294E+03 -2.50630E+03  5.22402E+03 -1.26572E+04  5.17988E+03 -1.32751E+04 -4.60311E+03
 -8.84074E+03 -1.53650E+04  4.56588E+03 -1.91696E+04  1.26494E+04 -1.45577E+04  1.42896E+04 -1.68314E+03
  9.17780E+03  1.07369E+04 -8.65686E+02  1.51389E+04 -1.02003E+04  8.03193E+03 -1.51876E+04 -3.40387E+03
 -1.11987E+04 -1.37451E+04 -1.96867E+03 -1.83650E+04  8.57292E+03 -1.60866E+04  1.60829E+04 -7.43147E+03
  1.45172E+04  7.41444E+02  1.00091E+04  4.49065E+03  5.38176E+03  6.51659E+02  7.38677E+03 -1.45480E+03
  1.33012E+04  2.97268E+03  1.47229E+04  1.25261E+04  9.10688E+03  2.39440E+04 -2.85763E+03  2.60565E+04
 -1.56280E+04  2.00585E+04 -2.37486E+04  9.66471E+03 -2.47117E+04 -1.55746E+03 -2.12321E+04 -1.41746E+04
 -1.03249E+04 -1.98227E+04  6.56039E+03 -1.90500E+04  1.65366E+04 -1.11494E+04  1.55286E+04  3.41118E+03
  6.34653E+03  1.12728E+04 -6.76566E+03  1.03020E+04 -1.29427E+04  2.73325E+03 -1.07189E+04 -7.85610E+03
 -2.72213E+02 -1.24212E+04  5.83126E+03 -9.36752E+03  7.98194E+03 -1.10271E+03  1.62985E+03  5.09844E+03
 -5.64945E+03  1.73242E+03 -3.34446E+03 -4.50956E+03  5.22781E+01 -1.01074E+04  8.05130E+03 -9.20681E+03
  1.16220E+04 -4.73919E+03  1.13005E+04  2.26286E+03  1.03266E+04  9.27578E+03  5.07513E+03  1.35947E+04
 -1.83170E+03  1.56445E+04 -9.32948E+03  9.99873E+03 -1.09487E+04  2.97705E+03 -8.35339E+03 -1.75069E+03
 -4.92193E+03 -2.99992E+03 -7.09056E+02  1.32390E+03 -1.92371E+03  1.38701E+03 -3.36530E+03  3.67561E+03
 -7.71335E+03 -4.85599E+01 -8.51781E+03 -6.44409E+03 -3.27844E+03 -1.14368E+04  3.49494E+03 -8.08875E+03
  6.78035E+03 -3.88044E+03  5.20516E+03  1.93596E+03  6.97941E+02  3.20992E+03 -3.75332E+03 -2.78603E+02
 -3.58077E+03 -4.84510E+03 -7.24806E+02 -7.20264E+03  3.53587E+03 -7.47913E+03  9.96189E+03 -3.82419E+03
  1.13123E+04  6.49332E+02  8.57064E+03  5.94647E+03  1.67472E+03  8.35273E+03 -4.82645E+03  8.40527E+03
 -6.89339E+03  2.85397E+03 -3.37199E+03 -1.05673E+03  1.31983E+03 -2.06920E+03  4.54496E+03 -7.66211E+02
  4.24287E+03  3.35918E+03  1.16935E+03  6.59497E+03 -4.16139E+03  6.31143E+03 -8.21650E+03  1.95709E+03
 -4.80487E+03 -3.19433E+03  7.17433E+02 -6.53896E+03  3.76625E+03 -2.74253E+03  3.67796E+03  1.14398E+03
  2.36146E+02  2.95175E+03 -3.92080E+03  4.53667E+03 -4.37314E+03  2.48496E+03 -4.52116E+03 -6.23095E+02
 -2.76943E+03 -5.35854E+03  1.23657E+03 -6.42916E+03  5.77896E+03 -4.68868E+03  6.45117E+03  1.25047E+03
  5.27231E+03  4.97805E+03  2.74463E+02  7.02907E+03 -5.21605E+03  3.58656E+03 -4.74554E+03 -4.14922E+02
 -5.47443E+03 -4.88558E+03 -1.63620E+03 -4.48665E+03  1.60398E+03 -4.17180E+03  2.68203E+03 -2.98554E+03
  2.77675E+03  1.03418E+02  6.14374E+01  1.55733E+03  3.82992E+02 -2.87172E+02 -6.25138E+02 -1.13782E+03
  3.94558E+03 -5.89248E+02  5.27494E+03  5.94415E+02  5.05667E+03  2.86726E+03  5.34883E+03  6.51144E+03
 -7.43542E+02  7.67253E+03 -7.10853E+03  6.55788E+03 -9.73098E+03  1.10514E+03 -6.96554E+03 -2.74861E+03
 -4.77273E+03 -6.15766E+03 -6.07266E+02 -4.98887E+03  2.15172E+03 -1.47529E+03  9.18638E+02 -1.63693E+03
  1.24817E+03 -1.53100E+03  2.02288E+03 -2.44641E+03  3.48923E+03 -1.13101E+03  3.26962E+03  4.63228E+02
  4.24711E+03  1.02846E+03  8.85793E+02  3.19262E+03 -1.86130E+03  2.35701E+03 -4.56401E+03  2.87243E+03
 -4.76879E+03 -1.21295E+03 -2.01200E+03 -2.95806E+03  2.99392E+02 -4.29624E+03  3.04838E+03 -5.40814E+03
  4.90212E+03 -2.94713E+03  6.43204E+03  3.74559E+02  4.82224E+03  3.59316E+03  1.49001E+03  5.59484E+03
 -1.71935E+03  5.43254E+03 -3.93942E+03  1.98634E+03 -1.75900E+03 -9.61212E+02 -4.22436E+02 -6.56814E+02
 -6.34416E+02  1.15987E+02 -9.56568E+02  1.46193E+03 -2.41192E+03  1.32137E+03 -4.30933E+03 -6.42111E+02
 -1.70226E+03 -3.98169E+03  6.59154E+02 -4.08299E+03  2.48084E+03 -4.14076E+03  3.59370E+03 -1.58529E+03
  3.20567E+03  2.55828E+03  1.37198E+03  3.62405E+03 -4.46253E+02  4.29174E+03 -2.66145E+03  2.75635E+03
 -3.39564E+03  4.63595E+02 -3.47285E+03 -2.31974E+03 -2.75816E+02 -3.07261E+03  1.50056E+03 -2.16972E+03
  2.64050E+03 -1.18696E+03  1.71511E+03 -6.58126E+01 -2.80563E+02  1.75419E+03  6.11458E+02  7.72012E+02
  1.78662E+03  3.78159E+02  1.47561E+03  3.13793E+02  1.10480E+03  2.29669E+03  1.25818E+03  1.99589E+03
 -1.40819E+03  2.46560E+03 -2.46301E+03  3.76641E+03 -2.71771E+03  1.44461E+03 -3.86972E+03 -1.33429E+02
 -1.19888E+03 -3.37595E+03  4.67921E+02 -4.45019E+03  1.49674E+03 -2.47094E+03  2.48209E+03 -7.68277E+02
  2.11754E+03  1.93387E+03  7.37934E+02  1.67074E+03 -6.21180E+02  8.73566E+02 -1.02422E+03 -1.68831E+01
 -4.31224E+02 -1.45896E+03  9.53028E+02 -1.62943E+03  1.08501E+03 -1.01784E+03  1.06392E+03  3.87869E+02
  9.30225E+02  6.48218E+01  8.63477E+02 -9.56267E+02 -3.62525E+02  4.87746E+02  2.33500E+03 -4.52385E+02
 -3.05363E+01  4.28928E+02  1.62556E+03  4.20231E+02  9.86585E+01  2.20510E+03 -2.41136E+02  2.87401E+03
 -1.84121E+03  1.05972E+03 -1.70278E+03  4.84943E+02 -1.99675E+03 -5.91862E+02 -9.49535E+01 -9.38178E+02
  3.55193E+02 -9.18098E+02  6.58229E+02 -8.74699E+02  5.01877E+02  1.49400E+03 -4.73951E+02  1.09687E+03
 -1.47094E+03  7.13015E+02 -6.04294E+02 -1.51996E+03 -2.46194E+02 -1.82897E+03 -1.73077E+02 -1.00796E+03
  4.25486E+02 -3.50316E+02  8.77151E+02  2.19654E+02  9.34771E+02 -9.95012E+01  2.78650E+02  1.07803E+03
 -5.84086E+02  2.54609E+02 -5.69208E+02  2.07005E+02  6.25229E+02 -9.10518E+02  9.80016E+02 -7.22890E+02
  1.26093E+03  3.99130E+02  2.59221E+03  1.02118E+03  1.06458E+03  1.64401E+03 -7.81641E+01  1.21224E+03
 -1.38840E+03  7.55579E+01 -1.24582E+03 -3.06943E+02 -1.18448E+03 -1.02738E+03  2.31877E+02 -6.05591E+02
  1.00037E+03 -6.14948E+02  5.07735E+02  4.42598E+02  4.56288E+02  1.99733E+03  4.43883E+02  1.05580E+03
 -1.09586E+02  7.73375E+02 -7.57784E+02  3.79200E+02 -3.49200E+01  3.18230E+02 -9.77771E+02  1.23607E+01
 -2.53780E+02  1.16871E+03 -1.13068E+03 -2.48114E+01 -1.55967E+03 -8.93287E+01 -2.31228E+03 -1.42062E+03
 -5.19302E+02 -1.89766E+03  5.47104E+02 -2.64974E+03  8.37099E+02 -2.02809E+03  2.84637E+03 -7.40355E+02
  2.08991E+03  3.11040E+02  8.16216E+02  1.78125E+03  4.00941E+01  1.14591E+03 -6.65346E+02  8.92501E+02
 -1.13696E+03  1.05487E+03 -4.71885E+02 -2.81485E+01 -5.92581E+02  1.04201E+02 -1.25576E+03 -2.25147E+02
 -1.38696E+03 -6.40122E+02 -7.53001E+02 -3.91433E+02  1.35839E+02 -1.03113E+02 -2.58823E+02 -1.12451E+03
  1.25057E+03 -5.35957E+02  5.30092E+02  4.97421E+02  1.39956E+03  6.53349E+02 -1.16415E+02  1.34839E+03
 -1.39697E+03  2.28300E+03 -1.87152E+03  6.97047E+02 -1.17811E+03 -3.10122E+02 -6.75306E+02 -1.20431E+03
 -1.31616E+03 -7.55032E+02  1.59043E+02 -1.62138E+03  6.62694E+02 -6.88964E+02  4.02476E+02  3.25846E+02
  4.73183E+02  7.36215E+01  6.42671E+01  3.79639E+02  1.05765E+02 -4.78533E+02 -5.48515E+01  1.72043E+02
  3.90957E+02 -1.84005E+02  4.46447E+02  2.49992E+01 -8.14130E+01  3.11667E+02  8.78323E+02  1.38263E+02
 -8.89084E+02  1.18064E+03 -6.13178E+02  8.70133E+01 -4.97487E+02 -8.13213E+01  9.57402E+01 -1.44352E+03
  2.10851E+02 -7.89286E+02  3.44599E+02  3.25134E+02  9.55916E+02 -7.73494E+02  8.77566E+02  4.92329E+02
  2.48947E+02  3.81735E+02 -1.97212E+01  6.31833E+02 -5.46393E+02  5.40689E+02 -1.07073E+01 -2.38814E+02
  7.87658E+01 -4.39205E+01 -6.99954E+02 -2.27976E+01 -6.68171E+02 -2.29308E+02 -1.25306E+03  1.92415E+02
 -1.19857E+03  1.87474E+02 -6.15296E+02 -8.16467E+02  6.13985E+02 -1.59232E+03  5.56006E+02  1.58633E+02
  8.10387E+02 -3.42388E+02 -5.55139E+02 -4.31060E+01  5.09642E+01  7.17438E+02 -4.83360E+02  5.66119E+02
