 $NMID ID='MM_0lb_SNR400_12hz_g40_74.RAW', FMTDAT='(8E13.5)'
 TRAMP=1., VOLUME=1. $END
  3.10000E+05 -1.61846E+02  3.37748E+05  2.50810E+05  8.47534E+04  3.37932E+05 -1.32731E+05  2.51052E+05
 -1.90699E+05  8.36500E+04 -1.12172E+05 -3.20637E+04  7.65082E+02 -5.08779E+04  5.41577E+04 -4.30768E+02
  3.59753E+04  5.24377E+04 -1.69089E+04  7.60441E+04 -6.11105E+04  6.44625E+04 -8.38748E+04  3.19562E+04
 -8.12225E+04 -1.13081E+04 -5.70805E+04 -5.16123E+04 -1.49600E+04 -7.00319E+04  2.75222E+04 -4.56547E+04
  3.99076E+04  4.32800E+03  1.61795E+04  4.78059E+04 -3.52200E+04  4.76474E+04 -6.61578E+04 -4.30860E+02
 -5.34542E+04 -5.68411E+04 -6.97923E+03 -7.71600E+04  3.37641E+04 -5.55794E+04  4.89535E+04 -1.65136E+04
  4.35408E+04  1.18475E+04  3.20043E+04  2.63010E+04  1.60863E+04  2.94507E+04 -6.33033E+03  2.71205E+04
 -2.23481E+04  1.23142E+04 -1.89684E+04 -5.13495E+03  6.68524E+03 -7.50314E+03  2.29596E+04  1.23620E+04
  7.09971E+03  3.55384E+04 -3.25327E+04  3.64124E+04 -6.42261E+04  2.22681E+03 -5.74685E+04 -4.22784E+04
 -1.30447E+04 -6.32681E+04  3.95411E+04 -4.63356E+04  5.90290E+04 -2.50958E+03  3.46041E+04  3.28199E+04
 -5.81894E+03  3.71229E+04 -3.06139E+04  1.57278E+04 -3.10733E+04 -4.54557E+03 -1.75011E+04 -1.09697E+04
 -7.98561E+03 -1.35129E+04 -1.14564E+03 -1.82179E+04  7.55428E+03 -2.28323E+04  1.58731E+04 -1.27117E+04
  1.14902E+04  6.16092E+03 -8.77491E+03  1.29702E+04 -2.15516E+04 -4.69254E+03 -8.29961E+03 -3.42619E+04
  2.39403E+04 -4.40428E+04  4.90246E+04 -2.03218E+04  4.60047E+04  1.98617E+04  1.60243E+04  4.49039E+04
 -1.56631E+04  3.37669E+04 -2.54484E+04  1.59005E+03 -1.06636E+04 -2.79152E+04  2.16618E+04 -3.46538E+04
  4.20812E+04 -9.62528E+03  3.68439E+04  2.37758E+04  1.92915E+04  4.72192E+04 -8.12343E+03  5.11675E+04
 -3.23002E+04  3.40015E+04 -4.34754E+04  9.91741E+03 -4.37426E+04 -1.66909E+04 -2.36069E+04 -3.88154E+04
  7.48840E+03 -3.90169E+04  3.23179E+04 -1.54063E+04  2.95080E+04  1.07942E+04  4.42522E+03  1.95358E+04
 -1.36401E+04  9.03135E+03 -1.01254E+04 -7.63191E+03  5.82348E+03 -1.08971E+04  1.88687E+04  6.34873E+03
  1.37219E+04  2.24600E+04 -5.17138E+03  2.53075E+04 -2.25894E+04  1.21481E+04 -2.90700E+04 -4.32991E+03
 -2.13306E+04 -1.77856E+04 -9.09905E+03 -2.21821E+04  3.59070E+03 -2.09077E+04  1.65420E+04 -1.92208E+04
  2.70193E+04 -1.27396E+04  3.37447E+04  3.42542E+03  2.45866E+04  2.02023E+04  4.68757E+03  3.75126E+04
 -1.84502E+04  3.03863E+04 -2.87215E+04  1.12105E+04 -2.13081E+04 -9.96663E+03 -4.98563E+03 -1.31844E+04
  1.38351E+03 -3.02495E+03 -5.81697E+03  7.31687E+03 -1.70215E+04  5.26688E+03 -1.70592E+04 -7.45469E+03
 -1.03871E+04 -2.02645E+04  4.98456E+03 -2.35704E+04  1.52517E+04 -1.71572E+04  1.84152E+04 -1.48828E+03
  1.22427E+04  1.36027E+04 -1.01704E+03  2.02374E+04 -1.42014E+04  1.13041E+04 -1.96488E+04 -3.86001E+03
 -1.56201E+04 -1.83699E+04 -1.27598E+03 -2.38779E+04  1.14765E+04 -1.90946E+04  1.97612E+04 -1.01336E+04
  1.89812E+04  1.25377E+02  1.39950E+04  4.94828E+03  8.15251E+03  7.92205E+02  1.00827E+04 -1.81880E+03
  1.84300E+04  2.91256E+03  2.06575E+04  1.61831E+04  1.39074E+04  3.20544E+04 -2.79759E+03  3.60544E+04
 -2.08211E+04  3.00729E+04 -3.38502E+04  1.48420E+04 -3.50603E+04 -3.00429E+03 -2.96601E+04 -2.12687E+04
 -1.24004E+04 -2.96287E+04  1.00248E+04 -2.64362E+04  2.26106E+04 -1.26370E+04  2.07299E+04  5.45866E+03
  6.82400E+03  1.48416E+04 -9.00845E+03  1.33850E+04 -1.73531E+04  2.30144E+03 -1.28735E+04 -1.06042E+04
  1.74323E+02 -1.64590E+04  8.25519E+03 -1.16626E+04  1.07330E+04 -7.44972E+02  2.05013E+03  7.12790E+03
 -7.73445E+03  3.03338E+03 -6.38173E+03 -6.09713E+03 -6.29981E+02 -1.35007E+04  9.39436E+03 -1.61031E+04
  1.75093E+04 -8.09415E+03  1.92706E+04  3.09356E+03  1.71867E+04  1.46309E+04  7.84132E+03  2.21322E+04
 -4.29061E+03  2.39826E+04 -1.52648E+04  1.50352E+04 -1.73319E+04  3.93910E+03 -1.26924E+04 -4.12452E+03
 -5.90850E+03 -5.41570E+03 -8.13512E+02  1.15991E+03 -2.31973E+03  3.23096E+03 -5.81849E+03  4.89307E+03
 -1.13533E+04 -1.27491E+03 -1.19986E+04 -9.28422E+03 -5.26348E+03 -1.55382E+04  5.55190E+03 -1.21193E+04
  9.77219E+03 -4.89893E+03  7.55544E+03  2.90465E+03  4.14897E+02  4.62294E+03 -6.12505E+03  6.61325E+01
 -5.35168E+03 -7.68142E+03 -1.39206E+03 -1.17825E+04  6.99729E+03 -1.20269E+04  1.56617E+04 -6.60149E+03
  1.78324E+04  2.41294E+03  1.31880E+04  1.09566E+04  2.57206E+03  1.43809E+04 -8.00060E+03  1.22528E+04
 -9.76159E+03  3.92740E+03 -5.64744E+03 -2.35214E+03  1.92796E+03 -3.68323E+03  6.26601E+03 -1.44157E+03
  6.27421E+03  5.39875E+03  9.20654E+02  9.35880E+03 -7.09743E+03  9.71861E+03 -1.22178E+04  2.28050E+03
 -8.28800E+03 -5.91607E+03 -1.94587E+02 -9.92536E+03  6.01964E+03 -5.14224E+03  6.20256E+03  2.53912E+03
  1.66257E+03  6.46574E+03 -6.67176E+03  8.52959E+03 -8.73557E+03  4.15126E+03 -9.30146E+03 -3.24377E+03
 -5.86688E+03 -1.09259E+04  2.52886E+03 -1.27597E+04  1.12944E+04 -8.33248E+03  1.17239E+04  1.74425E+03
  6.78492E+03  9.85336E+03 -7.70749E+02  1.20073E+04 -7.67528E+03  6.24992E+03 -9.27657E+03 -1.05852E+03
 -8.74814E+03 -7.95969E+03 -1.81211E+03 -7.51365E+03  5.16825E+03 -7.38842E+03  5.13952E+03 -4.16471E+03
  3.59517E+03  9.98201E+02 -3.80624E+02  1.49949E+03  1.01381E+02 -1.82649E+03  1.09220E+03 -4.79028E+03
  7.69039E+03 -2.50254E+03  1.11205E+04  7.29721E+02  1.10453E+04  7.06718E+03  7.74247E+03  1.40776E+04
 -2.86972E+03  1.63181E+04 -1.33151E+04  1.20875E+04 -1.83590E+04  2.34854E+03 -1.41451E+04 -5.63362E+03
 -7.28916E+03 -1.25371E+04 -1.24712E+03 -1.02900E+04  4.04684E+03 -5.29629E+03  3.89839E+03 -3.35982E+03
  2.10758E+03 -2.19694E+03  3.37297E+03 -3.06212E+03  4.74083E+03 -2.58419E+03  6.50366E+03 -5.60094E+02
  7.49911E+03  1.82855E+03  3.78285E+03  7.11145E+03 -2.45154E+03  6.96178E+03 -8.28024E+03  5.86167E+03
 -9.75716E+03 -1.16353E+03 -5.55105E+03 -6.84965E+03 -4.45284E+02 -1.05442E+04  6.53693E+03 -1.07133E+04
  1.09485E+04 -6.29294E+03  1.31068E+04  1.27575E+03  9.57788E+03  9.23156E+03  1.77682E+03  1.19187E+04
 -5.04301E+03  1.03793E+04 -6.43103E+03  2.94156E+03 -5.16046E+03 -1.48966E+03 -2.12620E+03 -9.39994E+02
 -1.06503E+03  2.63897E+02 -1.77522E+03  3.02464E+03 -5.18810E+03  1.65534E+03 -7.32921E+03 -1.26985E+03
 -4.41370E+03 -6.89497E+03 -2.22014E+02 -9.61227E+03  5.72526E+03 -9.32661E+03  9.68823E+03 -2.22355E+03
  9.27517E+03  4.82343E+03  4.55253E+03  8.48131E+03 -2.41036E+03  9.65528E+03 -6.80555E+03  5.76840E+03
 -9.08260E+03  4.92441E+02 -7.29450E+03 -5.79228E+03 -4.62092E+02 -7.87741E+03  4.18833E+03 -6.11073E+03
  5.80934E+03 -1.97372E+03  4.14567E+03  1.31110E+03  1.17528E+03  2.86553E+03  1.76274E+03  1.29515E+03
  2.08771E+03  8.97014E+02  2.27936E+03  1.36024E+03  2.78889E+03  3.73541E+03  2.77803E+03  5.22298E+03
 -2.56213E+03  7.40795E+03 -6.27296E+03  8.23051E+03 -9.18215E+03  2.53331E+03 -8.91765E+03 -2.86991E+03
 -4.95975E+03 -8.98373E+03  1.51642E+03 -1.03555E+04  5.71880E+03 -6.31887E+03  8.36540E+03 -2.07823E+03
  5.86530E+03  3.56557E+03  1.62976E+03  5.68133E+03 -3.08838E+03  3.16643E+03 -4.41035E+03 -2.21851E+02
 -1.80506E+03 -3.99177E+03  2.66314E+03 -4.17946E+03  3.59648E+03 -2.50805E+03  3.42693E+03  6.73625E+00
  2.06821E+03  1.51364E+03  1.39202E+03  1.03986E+03 -8.06774E+02  1.62384E+03  2.18359E+03  2.22598E+02
  1.56281E+03 -4.42448E+02  3.91005E+03  7.21130E+02  1.48593E+03  4.89178E+03 -7.94312E+02  6.79552E+03
 -4.63457E+03  4.17875E+03 -6.02293E+03  7.50482E+02 -5.87044E+03 -1.73425E+03 -1.92504E+03 -3.11660E+03
  6.12353E+02 -3.24747E+03  1.53183E+03 -1.59594E+03  1.74391E+03  2.11275E+03 -1.50446E+03  2.95541E+03
 -3.91477E+03  1.80169E+03 -4.07839E+03 -2.46395E+03 -2.16192E+03 -5.22240E+03  5.38942E+02 -4.66564E+03
  3.00683E+03 -2.32345E+03  3.54214E+03 -4.39530E+02  2.98765E+03  5.95304E+02  5.82690E+02  2.39565E+03
 -1.80723E+03  4.20395E+02 -2.40275E+03 -1.64632E+03  1.22536E+03 -3.36278E+03  4.76367E+03 -3.45416E+03
  4.71422E+03  5.77947E+02  6.01143E+03  3.36340E+03  1.98624E+03  5.87765E+03 -2.31196E+03  5.44619E+03
 -4.05770E+03  2.17404E+03 -4.87603E+03 -1.02648E+03 -2.93200E+03 -3.58322E+03  7.68498E+02 -3.34980E+03
  3.62582E+03 -1.48825E+03  2.77396E+03  1.60196E+03  5.04538E+02  2.89891E+03 -2.39862E+02  2.71576E+03
 -1.52685E+03  2.55495E+03 -1.84462E+03  6.81987E+02 -5.92663E+02  4.87504E+02 -1.44747E+03  1.21008E+03
 -1.03165E+03  2.33809E+03 -4.32077E+03  2.03279E+03 -6.13335E+03  2.80668E+02 -6.67283E+03 -3.75528E+03
 -3.40337E+03 -8.01088E+03  1.14857E+03 -8.30022E+03  5.43918E+03 -7.50435E+03  8.39024E+03 -2.48121E+03
  7.67905E+03  1.08673E+03  5.41229E+03  5.91593E+03 -2.38049E+02  5.66775E+03 -2.94163E+03  4.29071E+03
 -2.71252E+03  1.50769E+03 -1.69968E+03 -9.36527E+02 -5.18849E+02  5.27364E+01 -1.62776E+03  3.10201E+02
 -1.46559E+03 -1.57832E+02 -1.77162E+03 -2.08873E+02 -1.97485E+02 -1.41654E+03  3.63379E+02 -1.93367E+03
  2.12443E+03 -1.88598E+03  2.50358E+03 -2.00028E+02  3.96942E+03  2.80174E+03  1.53412E+02  5.38268E+03
 -3.41951E+03  7.17458E+03 -6.13570E+03  3.68963E+03 -6.44336E+03 -8.44751E+02 -5.40105E+03 -3.98588E+03
 -3.00539E+03 -5.71480E+03  1.72962E+03 -5.01843E+03  3.61797E+03 -2.48187E+03  3.94954E+03 -2.42565E+02
  1.70217E+03  1.53461E+03  4.17097E+02  1.06291E+03 -1.19752E+03 -3.95801E+02  5.52083E+02 -1.15960E+03
  2.11813E+03 -4.83670E+02  2.02512E+03  7.24385E+02  1.14104E+03  2.68113E+03  4.81258E+02  1.64705E+03
 -2.71295E+03  2.18473E+03 -3.39442E+03  7.95224E+02 -3.11234E+03 -2.79843E+03 -1.01890E+03 -4.41395E+03
  3.18847E+03 -3.47119E+03  3.53631E+03 -1.01184E+03  4.70226E+03  1.01996E+03  2.79159E+03  3.24472E+03
  4.98046E+02  3.64774E+03 -1.31052E+03  2.79525E+03 -1.94093E+03  1.67378E+03 -1.82297E+03  5.27605E+01
 -1.13769E+03  1.27892E+02 -8.49286E+02  1.20526E+03 -1.93241E+03  1.89274E+02 -3.35850E+03 -2.48566E+02
 -3.41003E+03 -1.15476E+03 -1.69365E+03 -3.18705E+03  2.37222E+03 -4.29949E+03  2.98549E+03 -2.16949E+03
  3.83677E+03 -3.63291E+02  2.05301E+03  2.43322E+03 -9.24167E+02  3.93527E+03 -2.72151E+03  2.26191E+03
