 $NMID ID='MM_0lb_SNR400_19hz_g50_26.RAW', FMTDAT='(8E13.5)'
 TRAMP=1., VOLUME=1. $END
  3.09474E+05  6.58221E+02  3.38292E+05  2.50429E+05  8.47207E+04  3.37309E+05 -1.32607E+05  2.50355E+05
 -1.89155E+05  8.25408E+04 -1.11074E+05 -3.35165E+04  1.62984E+03 -5.06041E+04  5.39460E+04  4.24179E+02
  3.48940E+04  5.24742E+04 -1.64834E+04  7.50889E+04 -6.06571E+04  6.24659E+04 -8.30523E+04  3.15108E+04
 -7.99039E+04 -1.13889E+04 -5.59857E+04 -4.99727E+04 -1.48498E+04 -6.83947E+04  2.65043E+04 -4.40428E+04
  3.91143E+04  4.00686E+03  1.56473E+04  4.65854E+04 -3.41263E+04  4.60862E+04 -6.50312E+04 -4.43380E+02
 -5.16606E+04 -5.58463E+04 -5.88045E+03 -7.57106E+04  3.32923E+04 -5.34745E+04  4.58364E+04 -1.60582E+04
  4.18531E+04  1.09154E+04  3.06205E+04  2.53448E+04  1.57185E+04  2.83038E+04 -4.75227E+03  2.69917E+04
 -2.15120E+04  1.27341E+04 -1.85730E+04 -3.64882E+03  4.26625E+03 -8.02897E+03  2.09909E+04  1.11354E+04
  7.13773E+03  3.27190E+04 -3.03295E+04  3.41448E+04 -6.11841E+04  2.03344E+03 -5.57628E+04 -4.06855E+04
 -1.26693E+04 -6.07364E+04  3.79508E+04 -4.34586E+04  5.55066E+04 -1.63970E+03  3.21280E+04  3.05648E+04
 -6.48349E+03  3.30793E+04 -2.81381E+04  1.36735E+04 -2.74787E+04 -5.17036E+03 -1.37656E+04 -1.04157E+04
 -7.99077E+03 -1.15740E+04 -1.00029E+03 -1.70031E+04  6.89271E+03 -2.19724E+04  1.50765E+04 -1.38970E+04
  1.25927E+04  3.89778E+03 -6.19622E+03  1.26293E+04 -1.90946E+04 -2.08611E+03 -8.00328E+03 -3.04680E+04
  2.07978E+04 -4.06122E+04  4.55367E+04 -1.84141E+04  4.21012E+04  1.79099E+04  1.47407E+04  4.17396E+04
 -1.53263E+04  3.08823E+04 -2.32957E+04  1.38654E+03 -7.85637E+03 -2.62494E+04  2.07400E+04 -3.17304E+04
  3.81177E+04 -7.59692E+03  3.19254E+04  2.26891E+04  1.56929E+04  4.24773E+04 -7.93590E+03  4.47319E+04
 -2.84508E+04  2.99051E+04 -3.74542E+04  8.34819E+03 -3.85867E+04 -1.51183E+04 -2.14484E+04 -3.43996E+04
  6.56084E+03 -3.40336E+04  2.91314E+04 -1.29237E+04  2.74394E+04  1.06135E+04  2.90009E+03  1.73284E+04
 -1.30573E+04  7.60518E+03 -1.02790E+04 -8.12783E+03  6.10881E+03 -1.00485E+04  1.69300E+04  6.50428E+03
  1.25161E+04  2.15984E+04 -7.02868E+03  2.32962E+04 -2.14777E+04  9.83417E+03 -2.52353E+04 -6.55445E+03
 -1.62249E+04 -1.63235E+04 -5.33700E+03 -1.65414E+04  3.74039E+03 -1.42062E+04  1.23970E+04 -1.43645E+04
  2.04780E+04 -1.13376E+04  2.83447E+04  1.36719E+03  2.13131E+04  1.61175E+04  3.90039E+03  3.20733E+04
 -1.65642E+04  2.80138E+04 -2.59231E+04  9.58244E+03 -1.95383E+04 -1.02653E+04 -4.10772E+03 -1.39728E+04
  2.42345E+03 -4.12646E+03 -2.99267E+03  5.00032E+03 -1.27428E+04  5.33891E+03 -1.35045E+04 -4.54602E+03
 -8.50539E+03 -1.55917E+04  4.24087E+03 -1.93949E+04  1.26939E+04 -1.40747E+04  1.50305E+04 -1.25717E+03
  8.92069E+03  1.06104E+04 -5.47437E+02  1.58093E+04 -1.02835E+04  8.72415E+03 -1.53871E+04 -3.32197E+03
 -1.17068E+04 -1.39657E+04 -1.53103E+03 -1.90348E+04  8.79245E+03 -1.53030E+04  1.60496E+04 -7.27184E+03
  1.45658E+04  8.65036E+02  1.03387E+04  3.98554E+03  4.89257E+03  6.05006E+02  7.57804E+03 -1.12505E+03
  1.34944E+04  2.52402E+03  1.49787E+04  1.28110E+04  9.22328E+03  2.47495E+04 -2.88174E+03  2.67141E+04
 -1.60123E+04  2.05517E+04 -2.43318E+04  9.75114E+03 -2.46722E+04 -1.77279E+03 -2.16252E+04 -1.40630E+04
 -1.02190E+04 -2.01716E+04  6.41489E+03 -1.88659E+04  1.65199E+04 -1.12670E+04  1.58970E+04  3.69235E+03
  6.94198E+03  1.15896E+04 -7.46003E+03  1.05827E+04 -1.26902E+04  2.57257E+03 -1.07883E+04 -7.98867E+03
 -1.18257E+02 -1.21692E+04  5.88558E+03 -9.35290E+03  7.70092E+03 -1.37453E+03  1.12429E+03  5.32182E+03
 -5.45451E+03  8.84164E+02 -3.62622E+03 -5.28645E+03  3.72603E+02 -9.56330E+03  7.78960E+03 -1.00392E+04
  1.23359E+04 -4.56184E+03  1.14873E+04  2.58030E+03  1.04029E+04  9.18601E+03  4.50546E+03  1.39441E+04
 -1.75183E+03  1.51706E+04 -9.41603E+03  9.95604E+03 -1.05070E+04  2.15633E+03 -8.58744E+03 -1.38512E+03
 -4.67274E+03 -3.34023E+03 -4.89763E+02  1.81630E+03 -2.00384E+03  2.29217E+03 -3.36125E+03  3.66436E+03
 -8.14241E+03 -5.21011E+02 -8.99002E+03 -7.00125E+03 -3.89438E+03 -1.12833E+04  3.52536E+03 -8.19878E+03
  7.27173E+03 -3.82415E+03  5.33710E+03  1.49443E+03  6.26075E+02  3.00031E+03 -2.94395E+03  2.09709E+01
 -3.77148E+03 -5.16021E+03 -4.64833E+02 -7.19128E+03  3.67431E+03 -7.71241E+03  9.89920E+03 -3.77263E+03
  1.17309E+04  1.15435E+03  8.46327E+03  5.65999E+03  1.84641E+03  8.56578E+03 -5.18793E+03  8.31861E+03
 -6.78793E+03  2.75839E+03 -3.28174E+03 -1.39540E+03  1.65310E+03 -1.38067E+03  4.63025E+03 -1.11662E+03
  4.29854E+03  3.65828E+03  9.36957E+02  5.90759E+03 -4.27322E+03  6.15303E+03 -7.95418E+03  1.43224E+03
 -5.09566E+03 -3.49175E+03  7.57091E+02 -6.47235E+03  3.48578E+03 -3.38381E+03  3.53326E+03  1.33847E+03
  6.50015E+02  3.63406E+03 -3.92477E+03  4.20653E+03 -4.47264E+03  2.09878E+03 -4.07404E+03 -1.09497E+03
 -3.21754E+03 -5.81158E+03  1.04030E+03 -6.67125E+03  5.46019E+03 -4.96643E+03  6.15003E+03  8.58850E+02
  4.52763E+03  5.18840E+03  5.05915E+00  7.06320E+03 -5.58000E+03  3.87186E+03 -5.74589E+03 -5.64141E+02
 -5.72912E+03 -5.07629E+03 -4.41092E+02 -4.71630E+03  2.24581E+03 -4.27549E+03  2.86455E+03 -2.88268E+03
  2.81108E+03  3.69535E+02  1.26821E+02  9.15199E+02  6.86869E+02  1.76975E+00  1.61692E+02 -1.77492E+03
  3.78500E+03 -4.17405E+02  4.94187E+03  7.11838E+02  5.24533E+03  3.08567E+03  5.09230E+03  6.68628E+03
 -1.65862E+03  8.11085E+03 -7.45858E+03  6.06910E+03 -9.48625E+03  1.48680E+03 -7.64872E+03 -2.53876E+03
 -4.33406E+03 -6.36996E+03 -3.35492E+02 -5.17027E+03  1.98085E+03 -2.15009E+03  1.54008E+03 -2.37129E+03
  1.13457E+03 -1.53126E+03  2.59804E+03 -2.01751E+03  3.33620E+03 -1.18672E+03  3.68098E+03  5.97154E+02
  4.58577E+03  1.20085E+03  8.00615E+02  3.16167E+03 -1.06691E+03  2.74717E+03 -3.65207E+03  2.59951E+03
 -4.88982E+03 -8.49125E+02 -1.85703E+03 -2.93826E+03  1.87607E+02 -4.71050E+03  2.97097E+03 -5.09873E+03
  4.36666E+03 -3.62980E+03  6.12156E+03  3.52533E+01  4.35669E+03  4.07098E+03  1.16484E+03  6.14036E+03
 -2.15912E+03  5.99471E+03 -2.88449E+03  1.63259E+03 -1.86666E+03 -7.19717E+02 -6.74354E+02 -2.83029E+02
 -2.65399E+02 -3.78898E+01 -1.01510E+03  1.62291E+03 -2.31150E+03  1.79087E+02 -4.05930E+03 -5.85236E+02
 -1.21625E+03 -4.34175E+03  7.27008E+02 -4.02447E+03  2.83773E+03 -4.18181E+03  3.22800E+03 -1.48355E+03
  3.19728E+03  2.58961E+03  2.06860E+03  2.59501E+03 -9.88687E+02  4.04532E+03 -2.53682E+03  2.93619E+03
 -3.73735E+03  3.78102E+02 -3.12911E+03 -1.83923E+03 -2.67569E+02 -2.95060E+03  1.41974E+03 -2.10412E+03
  2.64520E+03 -1.01108E+03  1.82410E+03  3.44456E+02  2.79103E+02  1.33052E+03  8.11279E+02  6.26600E+02
  1.23838E+03  1.16194E+02  9.66348E+02  9.06057E+02  4.78823E+02  1.74460E+03  1.46224E+03  1.22258E+03
 -1.19627E+03  3.09567E+03 -2.16281E+03  3.59042E+03 -2.59910E+03  1.26969E+03 -3.72528E+03 -9.38748E+02
 -1.46420E+03 -3.78139E+03  1.66951E+02 -4.43773E+03  1.64414E+03 -2.76571E+03  2.68796E+03 -4.40550E+02
  2.39075E+03  1.58680E+03  2.24892E+01  1.71753E+03 -3.25387E+02  1.37911E+03 -7.04167E+02 -3.03335E+00
 -7.01676E+02 -1.38369E+03  1.41674E+03 -1.73260E+03  1.32805E+03 -1.11091E+03  1.09052E+03  3.32976E+02
  8.98092E+02  3.36689E+02  7.19491E+02  3.32127E+02 -1.05070E+02  9.61328E+02  1.70107E+03 -5.24007E+02
 -1.11649E+02 -2.64999E+02  1.32265E+03  6.57084E+02  9.77808E+01  2.09327E+03 -4.81764E+02  3.16625E+03
 -2.09637E+03  3.90082E+02 -1.39878E+03  5.37855E+02 -2.15258E+03 -1.11820E+03 -3.34350E+02 -8.77857E+02
  2.88909E+02 -1.20559E+03  1.06666E+03 -6.86387E+02  9.25827E+02  1.34000E+03 -1.22856E+03  8.35338E+02
 -1.26573E+03  6.69240E+02 -9.69601E+02 -1.54609E+03 -3.66763E+02 -2.14750E+03  2.04312E+01 -1.37860E+03
  5.68588E+01 -1.27390E+02  8.24168E+02  2.03124E+02  9.05497E+02 -2.92385E+02  5.28842E+01  7.92766E+02
 -5.11884E+02  3.70368E+02 -7.25455E+02 -2.40319E+02  5.88500E+02 -5.66602E+02  1.52024E+03 -4.86694E+02
  8.71778E+02  1.89396E+02  2.42020E+03  3.64372E+02  1.52222E+03  1.69108E+03 -5.01952E+02  2.36472E+03
 -1.24931E+03 -3.22426E+02 -9.96049E+02 -5.68449E+02 -1.24459E+03 -1.27325E+03  2.85750E+02 -5.70702E+02
  9.88822E+02 -5.72964E+02  2.62106E+02  1.02873E+03  1.10910E+02  1.10572E+03 -3.20720E+02  5.08921E+02
 -1.21896E+02  1.12246E+03 -3.32764E+02 -3.90972E+02  3.06175E+02  5.12942E+02 -1.21392E+03  5.44751E+02
 -1.92526E+02  8.35978E+02 -1.70265E+03  6.36105E+01 -1.60005E+03  7.29245E+01 -2.10020E+03 -1.01900E+03
 -1.07782E+03 -2.18163E+03  9.81172E+01 -2.26842E+03  7.53545E+02 -2.04726E+03  2.76394E+03 -1.28857E+03
  1.91065E+03 -3.96618E+02  1.20901E+03  1.76412E+03 -7.49135E+02  5.15788E+02 -9.96920E+02  8.69535E+02
 -9.77594E+02  8.69499E+02 -9.66572E+02 -4.25128E+02 -4.99008E+02  1.42572E+02 -6.56664E+02 -2.82750E+00
 -1.26049E+03 -2.29348E+02 -7.18915E+02  4.14338E+02  3.75272E+02 -7.38246E+02 -6.33996E+02 -1.15638E+03
  1.25186E+03 -7.66970E+02  1.30967E+02  7.92833E+02  1.04892E+03  8.53854E+02 -6.72538E+02  1.55907E+03
 -1.17761E+03  1.82929E+03 -1.67817E+03  1.64597E+03 -1.68084E+03 -2.01013E+02 -8.37835E+02 -1.57907E+03
 -1.21126E+03 -8.77605E+02  3.89189E+02 -8.03527E+02  1.82432E+02 -3.54596E+02  7.40024E+02  4.89325E+02
  7.65926E+02  1.13400E+02 -4.79058E+01 -6.62479E+01 -1.61674E+02  3.02314E+02 -9.52195E+01  2.21070E+02
  3.78119E+02  2.69150E+02  7.95398E+02  5.34912E+02 -2.23425E+02 -3.09723E+02  3.07855E+02  3.26372E+02
 -8.03701E+02  4.31861E+01 -5.05701E+02  1.83443E+02 -3.45565E+02 -1.49034E+02  3.72528E+02 -9.02470E+02
  2.43548E+02 -5.83712E+02  1.59951E+02 -3.42589E+02  6.06045E+02 -5.15984E+02  5.26074E+02  1.07498E+03
  8.25273E+02  5.33169E+02  2.19348E+01  9.22908E+02 -4.19108E+02  6.50892E+02 -8.36447E+01  1.48946E+02
  1.51729E+02 -5.70737E+02 -1.32694E+02 -2.38854E+02 -7.61611E+02 -5.07799E+02 -3.85347E+02 -9.72183E+01
 -8.48063E+02  6.70331E+02 -2.89148E+02 -6.10936E+02  2.69760E+02 -1.27580E+03  7.20530E+02 -1.06197E+03
  6.42654E+02  1.83559E+02 -2.61330E+01  1.55985E+01  6.28468E+01  3.63412E+02 -1.83386E+02  2.71048E+02
