 $NMID ID='MM_0lb_SNR400_10hz_g50_72.RAW', FMTDAT='(8E13.5)'
 TRAMP=1., VOLUME=1. $END
  3.10161E+05  1.36123E+02  3.37158E+05  2.50368E+05  8.45876E+04  3.38908E+05 -1.32102E+05  2.51672E+05
 -1.90202E+05  8.35749E+04 -1.12506E+05 -3.25663E+04 -2.85280E+02 -5.01334E+04  5.36341E+04 -7.59985E+01
  3.62287E+04  5.30098E+04 -1.63278E+04  7.59150E+04 -6.21678E+04  6.40238E+04 -8.57888E+04  3.22560E+04
 -8.16640E+04 -1.16996E+04 -5.79275E+04 -5.25777E+04 -1.51782E+04 -7.11813E+04  2.78899E+04 -4.64665E+04
  4.04724E+04  3.90412E+03  1.65335E+04  4.76029E+04 -3.44161E+04  4.82687E+04 -6.79149E+04  2.52796E+02
 -5.42311E+04 -5.73411E+04 -7.39616E+03 -7.84779E+04  3.43402E+04 -5.68106E+04  4.96489E+04 -1.76506E+04
  4.45172E+04  1.08222E+04  3.24656E+04  2.65050E+04  1.59912E+04  2.94377E+04 -5.97285E+03  2.76253E+04
 -2.25602E+04  1.19224E+04 -1.85512E+04 -5.22238E+03  6.61662E+03 -8.16397E+03  2.28870E+04  1.39226E+04
  6.71924E+03  3.66828E+04 -3.31023E+04  3.69333E+04 -6.56150E+04  1.72433E+03 -5.85315E+04 -4.45196E+04
 -1.23869E+04 -6.56564E+04  4.10681E+04 -4.65101E+04  6.10037E+04 -1.81721E+03  3.62567E+04  3.39961E+04
 -4.54555E+03  3.90602E+04 -3.19932E+04  1.76535E+04 -3.32682E+04 -3.94395E+03 -1.92946E+04 -1.14601E+04
 -9.60706E+03 -1.46786E+04 -8.44975E+02 -1.95769E+04  8.81248E+03 -2.38392E+04  1.59105E+04 -1.35758E+04
  1.03963E+04  6.63490E+03 -9.97817E+03  1.31553E+04 -2.33208E+04 -5.88186E+03 -9.32021E+03 -3.70609E+04
  2.52049E+04 -4.60467E+04  5.19436E+04 -2.03049E+04  4.77827E+04  2.07366E+04  1.74946E+04  4.62667E+04
 -1.65188E+04  3.50342E+04 -2.70971E+04  2.03543E+03 -1.03590E+04 -2.86059E+04  2.17157E+04 -3.58948E+04
  4.37168E+04 -1.06490E+04  4.05696E+04  2.53783E+04  2.01766E+04  5.02524E+04 -7.80192E+03  5.51536E+04
 -3.52475E+04  3.77777E+04 -4.58000E+04  1.08575E+04 -4.62403E+04 -1.82155E+04 -2.60218E+04 -4.10239E+04
  8.40015E+03 -4.18432E+04  3.41794E+04 -1.69195E+04  3.17126E+04  1.13344E+04  5.18869E+03  2.06089E+04
 -1.34012E+04  1.03742E+04 -1.13388E+04 -7.31733E+03  5.53152E+03 -1.09563E+04  1.94901E+04  6.63758E+03
  1.46587E+04  2.27075E+04 -5.14994E+03  2.64683E+04 -2.31344E+04  1.39222E+04 -3.10480E+04 -3.32616E+03
 -2.41762E+04 -1.83685E+04 -1.04891E+04 -2.44715E+04  4.29340E+03 -2.44416E+04  1.91578E+04 -2.19556E+04
  3.09432E+04 -1.41210E+04  3.67786E+04  3.85387E+03  2.62975E+04  2.36860E+04  4.24998E+03  3.99533E+04
 -1.95693E+04  3.22260E+04 -3.04881E+04  1.20174E+04 -2.17600E+04 -1.04095E+04 -4.83679E+03 -1.25822E+04
  1.03616E+01 -1.63088E+03 -7.31067E+03  8.12720E+03 -1.91160E+04  4.63608E+03 -1.99307E+04 -8.65530E+03
 -1.15411E+04 -2.25274E+04  6.26820E+03 -2.66408E+04  1.85874E+04 -1.89107E+04  2.13822E+04 -1.57430E+03
  1.40033E+04  1.58593E+04 -1.39720E+03  2.11371E+04 -1.54748E+04  1.35503E+04 -2.21494E+04 -4.60693E+03
 -1.55997E+04 -1.99207E+04 -1.34008E+03 -2.73848E+04  1.22742E+04 -2.31401E+04  2.18617E+04 -1.13341E+04
  2.07036E+04 -5.24952E+02  1.55574E+04  4.78008E+03  7.50149E+03  1.36588E+03  1.18689E+04 -1.82311E+03
  2.12609E+04  2.94153E+03  2.37213E+04  1.72552E+04  1.70834E+04  3.65436E+04 -1.40024E+03  4.15236E+04
 -2.45584E+04  3.46112E+04 -3.96824E+04  1.81636E+04 -4.22138E+04 -3.24811E+03 -3.45997E+04 -2.53856E+04
 -1.31258E+04 -3.51716E+04  1.28110E+04 -3.09877E+04  2.68143E+04 -1.54143E+04  2.31844E+04  7.41187E+03
  8.36264E+03  1.83405E+04 -1.15385E+04  1.53962E+04 -1.95206E+04  2.78988E+03 -1.51634E+04 -1.21449E+04
 -9.79736E+02 -1.79415E+04  9.99445E+03 -1.40307E+04  1.20571E+04 -2.03398E+03  3.83230E+03  8.08582E+03
 -8.42221E+03  4.78335E+03 -8.59606E+03 -6.52907E+03 -1.49444E+03 -1.75109E+04  1.14873E+04 -1.84803E+04
  2.09415E+04 -9.83651E+03  2.46193E+04  3.44583E+03  2.13488E+04  1.75116E+04  9.84136E+03  2.69745E+04
 -5.96082E+03  2.92534E+04 -1.88185E+04  1.76635E+04 -2.09774E+04  4.82670E+03 -1.41157E+04 -4.84686E+03
 -5.83817E+03 -7.07716E+03 -1.21076E+03  6.16486E+01 -3.15022E+03  2.87293E+03 -6.99714E+03  5.86709E+03
 -1.36334E+04 -8.45867E+02 -1.33577E+04 -1.18559E+04 -4.56919E+03 -1.80332E+04  6.03726E+03 -1.45612E+04
  1.22410E+04 -6.10939E+03  8.52360E+03  3.43346E+03 -7.96461E+02  5.01222E+03 -6.96375E+03 -4.91585E+02
 -7.74554E+03 -9.05173E+03 -1.56899E+03 -1.50136E+04  8.85382E+03 -1.54730E+04  1.85834E+04 -8.38071E+03
  2.22207E+04  1.88022E+03  1.54215E+04  1.29614E+04  2.73793E+03  1.77093E+04 -9.24796E+03  1.47869E+04
 -1.19691E+04  4.00566E+03 -6.14990E+03 -2.96841E+03  2.15045E+03 -3.68444E+03  7.85991E+03 -1.26767E+03
  6.29852E+03  6.40744E+03  1.38102E+03  1.18718E+04 -8.48716E+03  1.05776E+04 -1.46407E+04  2.40989E+03
 -9.90813E+03 -7.87391E+03 -8.69268E+01 -1.24496E+04  8.14805E+03 -6.47453E+03  9.22752E+03  2.90011E+03
  1.85478E+03  9.60186E+03 -8.17059E+03  1.09045E+04 -1.27330E+04  4.35089E+03 -1.27573E+04 -5.32503E+03
 -7.24017E+03 -1.39334E+04  3.42575E+03 -1.69448E+04  1.40458E+04 -9.67796E+03  1.53715E+04  2.44592E+03
  8.78928E+03  1.23236E+04 -1.43501E+03  1.50959E+04 -1.06595E+04  7.98227E+03 -1.06013E+04 -2.13798E+03
 -1.02686E+04 -1.04245E+04 -1.62014E+03 -1.06920E+04  4.69778E+03 -9.18752E+03  7.15489E+03 -4.24206E+03
  5.32214E+03  1.50923E+03 -8.26534E+02  2.29331E+03 -4.84011E+02 -3.37550E+03  2.14172E+03 -7.68283E+03
  1.04971E+04 -4.11229E+03  1.42220E+04  2.06696E+03  1.49953E+04  1.01159E+04  1.02079E+04  1.96531E+04
 -4.41634E+03  2.17527E+04 -1.84027E+04  1.57568E+04 -2.34988E+04  2.80414E+03 -1.85204E+04 -8.83347E+03
 -8.68909E+03 -1.61731E+04 -1.87639E+02 -1.32573E+04  4.74811E+03 -8.53752E+03  5.29342E+03 -4.60364E+03
  3.31976E+03 -3.33561E+03  3.46351E+03 -3.71390E+03  5.90934E+03 -3.42172E+03  6.89623E+03 -1.44243E+03
  9.57420E+03  1.86521E+03  5.09309E+03  8.49193E+03 -1.89986E+03  1.02672E+04 -1.03977E+04  7.44404E+03
 -1.32013E+04 -1.74220E+03 -7.81451E+03 -1.01567E+04 -1.16080E+03 -1.39312E+04  7.67099E+03 -1.41809E+04
  1.44574E+04 -7.42968E+03  1.75615E+04  2.43087E+03  1.27603E+04  1.23376E+04  1.13616E+03  1.56958E+04
 -7.20614E+03  1.29310E+04 -9.34128E+03  4.59350E+03 -6.48093E+03 -1.70684E+03 -3.29266E+03 -1.78893E+03
 -1.51513E+03  8.58394E+02 -1.89496E+03  2.83926E+03 -6.54050E+03  2.01749E+03 -8.80390E+03 -1.25268E+03
 -6.99218E+03 -8.33905E+03  5.37110E+02 -1.33897E+04  8.38095E+03 -1.24477E+04  1.34410E+04 -4.21653E+03
  1.24665E+04  6.35355E+03  6.31937E+03  1.18903E+04 -3.13660E+03  1.26311E+04 -9.59561E+03  7.98459E+03
 -1.15813E+04  4.29594E+02 -9.99320E+03 -8.51199E+03 -1.30023E+03 -1.15366E+04  5.70135E+03 -8.42992E+03
  8.57979E+03 -1.98506E+03  5.69754E+03  1.36988E+03  1.83041E+03  4.35261E+03  1.10330E+03  1.82817E+03
  2.77033E+03  1.53723E+03  4.23769E+03  1.53950E+03  3.88188E+03  5.07926E+03  3.51590E+03  6.59658E+03
 -3.04079E+03  1.04455E+04 -9.63017E+03  1.08614E+04 -1.27435E+04  3.09296E+03 -1.41654E+04 -6.08754E+03
 -7.06944E+03 -1.34484E+04  1.97416E+03 -1.55049E+04  8.06291E+03 -8.96879E+03  1.06923E+04 -2.48727E+03
  8.63874E+03  4.37121E+03  1.11439E+03  8.26017E+03 -3.02754E+03  4.83707E+03 -5.58388E+03 -1.48433E+03
 -1.94948E+03 -5.90843E+03  3.68039E+03 -5.85000E+03  5.10851E+03 -2.72422E+03  5.67473E+03  1.04796E+03
  3.79915E+03  2.35805E+03  1.16308E+03  1.80357E+03 -4.46537E+02  1.90340E+03  1.77021E+03 -3.76156E+02
  1.37062E+03 -3.55094E+02  5.66667E+03  2.15136E+03  2.62753E+03  6.25253E+03 -1.28561E+03  1.02787E+04
 -5.84192E+03  6.27072E+03 -7.85148E+03  1.96045E+03 -7.73099E+03 -3.01475E+03 -3.10277E+03 -4.74488E+03
  5.98019E+02 -5.72696E+03  3.90465E+03 -2.22385E+03  2.63441E+03  2.59057E+03 -1.03451E+03  4.68780E+03
 -5.61487E+03  1.94610E+03 -6.33679E+03 -2.83985E+03 -3.73015E+03 -7.52270E+03  1.66326E+03 -7.50435E+03
  4.89991E+03 -3.53751E+03  5.24113E+03 -5.39869E+02  4.44290E+03  1.83999E+03  5.21875E+02  3.57149E+03
 -2.42167E+03  1.49435E+03 -2.85659E+03 -2.84791E+03  1.68101E+03 -5.91642E+03  7.05513E+03 -4.13998E+03
  7.99891E+03  6.49747E+02  8.18356E+03  5.66517E+03  2.45723E+03  9.31887E+03 -3.07224E+03  8.49965E+03
 -6.98291E+03  4.05097E+03 -7.63342E+03 -8.71001E+02 -4.60752E+03 -5.10166E+03  1.19541E+03 -5.75746E+03
  5.42942E+03 -2.16854E+03  3.47592E+03  2.27652E+03  7.45559E+02  4.17981E+03 -8.30780E+02  3.99609E+03
 -2.26257E+03  1.45153E+03 -1.53585E+03  5.14309E+02 -1.11466E+03  1.04378E+03 -1.57356E+03  1.63143E+03
 -2.05637E+03  3.57005E+03 -6.36920E+03  3.35443E+03 -8.74601E+03 -1.72204E+02 -9.12081E+03 -5.51071E+03
 -4.99998E+03 -1.10103E+04  2.08550E+03 -1.22719E+04  7.30840E+03 -9.97645E+03  1.32932E+04 -3.99208E+03
  1.14317E+04  2.29263E+03  6.58275E+03  7.51711E+03 -1.19303E+02  8.63525E+03 -3.29712E+03  6.27806E+03
 -4.75631E+03  2.47994E+03 -2.72053E+03 -9.83367E+02 -8.90817E+02 -4.51938E+02 -3.93666E+02  4.49850E+01
 -1.64233E+03 -7.10648E+01 -2.16504E+03  2.48716E+01 -1.70722E+02 -1.86850E+03 -2.46832E+00 -3.05490E+03
  3.72418E+03 -2.71692E+03  4.71907E+03  3.61699E+02  6.43206E+03  4.79192E+03  1.24242E+03  9.06757E+03
 -3.68567E+03  1.07741E+04 -8.74548E+03  6.79735E+03 -1.06172E+04 -1.25441E+03 -7.56396E+03 -6.51948E+03
 -3.44455E+03 -9.34701E+03  2.74339E+03 -8.74769E+03  5.52767E+03 -4.29652E+03  5.49297E+03 -6.18602E+01
  3.36391E+03  3.16632E+03  6.70925E+02  1.79748E+03 -1.28816E+03  5.86522E+00  3.63148E+02 -2.42489E+03
  2.56223E+03 -1.08025E+03  3.03353E+03  2.92249E+01  1.81479E+03  4.13811E+03 -1.55257E+02  4.20577E+03
 -3.41923E+03  4.51391E+03 -5.87996E+03  3.90840E+02 -4.93802E+03 -4.52695E+03 -9.72037E+02 -6.93281E+03
  4.05828E+03 -5.80110E+03  6.39644E+03 -2.35610E+03  7.24501E+03  1.20825E+03  3.24273E+03  4.50576E+03
  5.62569E+02  5.28871E+03 -2.38332E+03  5.02692E+03 -3.13044E+03  2.29625E+03 -2.59003E+03  2.15272E+02
 -1.84186E+03 -2.46472E+02 -1.90977E+03  1.65337E+03 -2.95660E+03  5.75099E+02 -5.12061E+03 -1.35315E+03
 -4.20905E+03 -3.71327E+03 -6.70904E+02 -5.56763E+03  2.19786E+03 -6.74825E+03  5.36957E+03 -2.84858E+03
  5.58111E+03  4.83876E+02  1.60913E+03  4.47573E+03 -6.61193E+02  6.27815E+03 -4.41279E+03  3.70398E+03
