 $NMID ID='MM_0lb_SNR400_20hz_g60_6.RAW', FMTDAT='(8E13.5)'
 TRAMP=1., VOLUME=1. $END
  3.10115E+05  3.47520E+02  3.37483E+05  2.49786E+05  8.50301E+04  3.37585E+05 -1.32553E+05  2.50892E+05
 -1.89564E+05  8.24107E+04 -1.11403E+05 -3.25753E+04  1.60327E+03 -5.03814E+04  5.36676E+04  6.12038E+02
  3.49866E+04  5.30502E+04 -1.69201E+04  7.50640E+04 -6.05484E+04  6.33870E+04 -8.36440E+04  3.15144E+04
 -8.01011E+04 -1.12242E+04 -5.64404E+04 -5.06524E+04 -1.43641E+04 -6.86235E+04  2.72118E+04 -4.50043E+04
  3.94070E+04  4.05498E+03  1.58848E+04  4.76125E+04 -3.40061E+04  4.69464E+04 -6.61943E+04 -7.44539E+02
 -5.22497E+04 -5.63017E+04 -6.19056E+03 -7.59384E+04  3.36036E+04 -5.37290E+04  4.69552E+04 -1.69258E+04
  4.26313E+04  1.13462E+04  3.07171E+04  2.50910E+04  1.53894E+04  2.84303E+04 -5.05534E+03  2.71103E+04
 -2.17930E+04  1.27924E+04 -1.90640E+04 -4.82410E+03  5.13578E+03 -7.37153E+03  2.15116E+04  1.13085E+04
  7.77032E+03  3.36602E+04 -3.13075E+04  3.41661E+04 -6.10040E+04  1.97924E+03 -5.59907E+04 -4.12512E+04
 -1.25653E+04 -6.13828E+04  3.84259E+04 -4.41185E+04  5.64813E+04 -2.21617E+03  3.25183E+04  3.10495E+04
 -6.12476E+03  3.41333E+04 -2.90730E+04  1.40272E+04 -2.80970E+04 -5.19661E+03 -1.50363E+04 -9.94104E+03
 -7.31237E+03 -1.22796E+04 -9.79574E+02 -1.70383E+04  7.38459E+03 -2.27957E+04  1.52913E+04 -1.40587E+04
  1.16624E+04  4.50622E+03 -6.72274E+03  1.32502E+04 -1.98293E+04 -3.21097E+03 -8.44848E+03 -3.14112E+04
  2.10841E+04 -4.11133E+04  4.53137E+04 -1.84959E+04  4.28719E+04  1.85730E+04  1.43368E+04  4.23745E+04
 -1.49493E+04  3.14910E+04 -2.32428E+04  9.68315E+02 -8.78921E+03 -2.61761E+04  2.08412E+04 -3.15706E+04
  3.84309E+04 -7.52477E+03  3.25015E+04  2.25038E+04  1.59981E+04  4.34040E+04 -7.78213E+03  4.61196E+04
 -2.97578E+04  3.09793E+04 -3.76154E+04  8.28554E+03 -3.90420E+04 -1.51461E+04 -2.18273E+04 -3.52792E+04
  6.91288E+03 -3.54863E+04  2.93148E+04 -1.29276E+04  2.73927E+04  1.11285E+04  3.06166E+03  1.78518E+04
 -1.29939E+04  7.57668E+03 -9.80487E+03 -7.96729E+03  6.04913E+03 -9.63991E+03  1.76120E+04  6.34340E+03
  1.24933E+04  2.11088E+04 -6.40583E+03  2.38208E+04 -2.17318E+04  9.23792E+03 -2.56625E+04 -6.07783E+03
 -1.75705E+04 -1.68271E+04 -6.18588E+03 -1.70396E+04  4.19044E+03 -1.54968E+04  1.27224E+04 -1.48543E+04
  2.17673E+04 -1.11086E+04  2.87902E+04  1.61061E+03  2.12314E+04  1.63650E+04  4.24501E+03  3.30607E+04
 -1.62141E+04  2.81656E+04 -2.60274E+04  9.88307E+03 -1.99118E+04 -1.02362E+04 -4.33679E+03 -1.43092E+04
  2.48535E+03 -4.60290E+03 -3.29920E+03  5.71085E+03 -1.31526E+04  5.51776E+03 -1.42260E+04 -5.24907E+03
 -9.00761E+03 -1.59154E+04  4.93823E+03 -1.95508E+04  1.30580E+04 -1.40086E+04  1.48395E+04 -1.68778E+03
  9.25028E+03  1.13196E+04 -3.93951E+02  1.62436E+04 -1.05933E+04  9.01454E+03 -1.56194E+04 -3.46988E+03
 -1.20258E+04 -1.45357E+04 -9.62793E+02 -1.91129E+04  8.63465E+03 -1.53642E+04  1.64176E+04 -7.97654E+03
  1.41658E+04  5.51046E+02  1.04241E+04  3.43226E+03  5.22338E+03  6.39049E+02  7.51781E+03 -1.60322E+03
  1.41963E+04  3.04999E+03  1.48139E+04  1.26733E+04  8.95751E+03  2.53628E+04 -3.37654E+03  2.69139E+04
 -1.64616E+04  2.07764E+04 -2.47206E+04  1.01040E+04 -2.45892E+04 -1.65185E+03 -2.20275E+04 -1.44444E+04
 -1.01183E+04 -2.01736E+04  6.72477E+03 -1.91995E+04  1.67658E+04 -1.09910E+04  1.52278E+04  3.81311E+03
  6.34514E+03  1.15114E+04 -7.25430E+03  1.09471E+04 -1.31547E+04  2.20839E+03 -1.09067E+04 -7.54638E+03
  1.38382E+01 -1.28717E+04  6.17598E+03 -9.40474E+03  7.88261E+03 -1.36878E+03  1.71440E+03  5.18774E+03
 -5.89117E+03  1.35102E+03 -3.93864E+03 -4.89103E+03  5.29354E+02 -1.01166E+04  7.60003E+03 -9.86102E+03
  1.21928E+04 -4.30126E+03  1.24560E+04  2.33187E+03  1.03412E+04  9.48716E+03  5.15735E+03  1.37244E+04
 -1.18925E+03  1.59957E+04 -9.70797E+03  9.33629E+03 -1.10786E+04  2.94399E+03 -8.49150E+03 -2.06545E+03
 -4.30878E+03 -3.51818E+03 -8.47014E+02  1.43837E+03 -2.15610E+03  2.23380E+03 -3.65804E+03  3.10221E+03
 -7.28912E+03 -9.43508E+02 -8.47528E+03 -6.95040E+03 -3.63729E+03 -1.07080E+04  3.02436E+03 -8.23008E+03
  7.18054E+03 -3.79131E+03  5.26639E+03  1.75880E+03  5.12292E+02  2.89114E+03 -2.94907E+03 -4.29726E+02
 -3.05344E+03 -4.93684E+03 -4.50170E+02 -7.27649E+03  3.83216E+03 -7.55454E+03  9.34335E+03 -3.91398E+03
  1.12019E+04  8.04995E+02  8.70151E+03  5.60993E+03  1.44831E+03  8.52603E+03 -5.17211E+03  7.90901E+03
 -6.52450E+03  2.45862E+03 -3.72528E+03 -1.55072E+03  1.27199E+03 -2.10873E+03  4.50950E+03 -5.19521E+02
  3.64723E+03  3.45609E+03  9.72106E+02  6.19496E+03 -4.33226E+03  6.68406E+03 -7.38612E+03  1.43270E+03
 -4.70810E+03 -3.68938E+03  4.95156E+02 -5.96251E+03  3.58055E+03 -3.11929E+03  3.41262E+03  1.14047E+03
  4.28537E+01  2.74192E+03 -3.48477E+03  4.48026E+03 -4.46327E+03  2.26666E+03 -3.96265E+03 -1.24445E+03
 -2.62223E+03 -5.47553E+03  1.45520E+03 -6.61332E+03  5.37082E+03 -4.17613E+03  6.04919E+03  1.11985E+03
  4.01521E+03  5.17191E+03  8.21204E+01  6.92123E+03 -4.26441E+03  3.65289E+03 -5.13475E+03 -4.08799E+02
 -5.81471E+03 -4.64803E+03 -9.96632E+02 -4.67167E+03  2.06234E+03 -3.95380E+03  2.46247E+03 -3.17276E+03
  2.86627E+03 -6.01522E+01  4.22385E+01  8.33927E+02  6.68632E+02  3.20336E+02  2.66596E+02 -1.27950E+03
  3.13954E+03 -3.26590E+02  4.32897E+03  7.60645E+02  5.35895E+03  2.30758E+03  4.75103E+03  6.38101E+03
 -6.22885E+02  7.36969E+03 -6.98217E+03  6.11366E+03 -9.08012E+03  6.25483E+02 -6.78474E+03 -2.34627E+03
 -3.54264E+03 -5.20977E+03 -2.10014E+02 -4.95734E+03  2.09666E+03 -1.83709E+03  1.49706E+03 -1.64884E+03
  1.23229E+03 -1.49313E+03  1.89680E+03 -2.02845E+03  3.94038E+03 -1.05807E+03  3.82059E+03  4.62817E+02
  4.18026E+03  1.63003E+03  1.85623E+02  2.83443E+03 -1.30607E+03  2.28797E+03 -4.04434E+03  2.81545E+03
 -4.37779E+03 -1.17727E+03 -1.09223E+03 -2.97656E+03  5.59773E+02 -4.24566E+03  3.10149E+03 -4.25391E+03
  4.85742E+03 -2.95185E+03  5.86295E+03 -1.28489E+02  4.64446E+03  3.30897E+03  8.76602E+02  5.09701E+03
 -2.51717E+03  4.75135E+03 -2.88371E+03  2.07701E+03 -1.55176E+03 -1.88735E+03 -8.86633E+02 -4.73121E+02
 -1.96587E+02  9.21235E+02 -8.48282E+02  1.67681E+03 -2.45699E+03  1.11026E+03 -3.44616E+03 -1.59551E+02
 -1.04203E+03 -3.52491E+03  1.05834E+03 -4.10093E+03  2.71277E+03 -3.78298E+03  3.11410E+03 -1.12108E+03
  3.94906E+03  2.35206E+03  1.33534E+03  2.91173E+03 -4.35147E+02  3.78533E+03 -1.51473E+03  2.28049E+03
 -3.17906E+03  2.99091E+02 -2.84803E+03 -1.95490E+03 -8.57347E+01 -2.63509E+03  1.45122E+03 -1.97865E+03
  2.80283E+03 -1.29254E+03  1.80002E+03  3.70063E+02  3.63128E+02  1.80808E+03  6.52911E+02  9.13917E+01
  1.43677E+03  3.52088E+02  1.13040E+03  8.49080E+02  6.23950E+02  1.69648E+03  1.37486E+03  9.03548E+02
 -1.16778E+03  2.52170E+03 -1.91787E+03  3.72584E+03 -2.27141E+03  1.45150E+03 -3.27378E+03 -4.10409E+02
 -1.14200E+03 -2.91689E+03  3.41322E+02 -4.26199E+03  1.69796E+03 -1.81583E+03  1.78613E+03 -7.62057E+02
  1.98001E+03  1.41951E+03 -1.42586E+02  1.87156E+03 -2.68648E+02  7.92576E+02 -6.88229E+02  3.82049E+02
 -3.01854E+02 -1.11155E+03  1.09628E+03 -9.20524E+02  7.02462E+02 -1.27930E+03  1.11839E+03  4.96557E+02
  4.67439E+02  1.32337E+02  8.57369E+02 -8.92977E+02 -7.32603E+01  3.60058E+02  8.97047E+02  1.01329E+01
 -9.07304E+01 -1.09624E+02  1.34473E+03  6.67474E+01  1.03459E+02  1.99539E+03 -2.46583E+02  2.37184E+03
 -1.19916E+03  2.91099E+02 -1.57493E+03  3.76660E+02 -1.47860E+03 -3.98825E+02  2.21094E+02 -1.10701E+03
  6.32273E+02 -6.64239E+02  4.16029E+02 -2.65741E+02  1.02577E+03  8.79867E+02 -6.73168E+02  9.74325E+02
 -9.90963E+02  1.25599E+03 -4.73842E+02 -1.05951E+03 -9.85854E+02 -2.17483E+03 -2.15158E+01 -1.30917E+03
  2.41346E+02  1.95991E+01  8.26601E+01 -6.94772E+01  9.06205E+02 -3.67472E+02  7.59371E+02  1.13992E+03
 -4.55377E+02  1.27472E+02 -2.96055E+02  6.28460E+02  6.40797E+02 -3.69864E+02  9.75825E+02 -8.14631E+02
  1.10918E+03  1.57055E+02  2.36615E+03  4.12503E+02  6.19421E+02  1.01262E+03  3.86270E+01  1.21019E+03
 -9.61610E+02  4.72734E+02 -1.04142E+03  6.78497E+01 -6.08732E+02 -1.40529E+03  8.19071E+02 -5.85553E+02
  1.28981E+03 -2.48187E+02  7.19483E+02  3.91437E+02  7.07458E+02  1.08039E+03  2.81058E+02  9.97385E+01
 -4.51803E+02  1.09847E+03 -4.16251E+02  3.72652E+02  6.88571E+02  1.09177E+03 -6.71215E+02  6.03100E+02
 -9.26282E+02  7.07512E+02 -1.48454E+03  4.25843E+02 -9.63199E+02  2.10222E+02 -2.00927E+03 -2.26240E+02
 -2.77356E+02 -1.30775E+03  3.46474E+02 -1.81965E+03  5.00847E+02 -2.24110E+03  1.56481E+03 -4.16899E+02
  1.72183E+03 -4.05062E+02  3.89182E+02  1.27814E+03 -6.91230E+02  8.82865E+02 -8.53102E+02  1.38561E+03
 -6.13053E+02  3.85088E+02  5.56001E+01 -3.89734E+02 -4.91992E+00  2.63853E+02 -9.28176E+02  4.46088E+02
 -7.31745E+02 -2.48329E+02 -7.20356E+02 -1.65334E+02  1.31864E+00 -6.08927E+02 -1.66411E+02 -1.07248E+03
  8.12272E+02 -4.18265E+02  3.42885E+01  2.83304E+02  9.76696E+02  6.20246E+02 -3.74060E+02  4.34284E+02
 -5.48062E+02  1.68537E+03 -1.07943E+03  6.25281E+02 -7.67275E+02 -4.66630E+02 -7.95481E+02 -9.30270E+02
 -6.78433E+02 -7.06795E+02 -5.65458E+01 -4.55279E+02 -1.08915E+02 -1.76353E+02  1.82592E+02 -3.46768E+01
  4.70412E+02 -6.36920E+00  2.35352E+02  8.16802E+02 -3.05339E+02  4.59817E+02 -1.95390E+02 -1.76309E+02
  6.93567E+02  4.33092E+02  2.68953E+02  6.43114E+02  2.53174E+02 -7.00355E+01  2.66230E+02 -6.35190E+02
 -2.63178E+02  7.63457E+02 -1.11928E+02  1.91019E+02 -1.43604E+02 -4.38515E+02 -4.45564E+02 -7.49358E+02
 -6.06488E+01 -4.94810E+02  2.04782E+02  3.85846E+02  3.04566E+02 -3.84021E+02  5.17457E+02  5.41003E+02
  4.32068E+02  4.73292E+02 -5.20496E+02 -1.34090E+02 -3.13530E+02  3.23380E+02 -3.81458E+02 -4.18342E+02
  1.13318E+02 -7.39060E+01 -1.66291E+02  8.93779E+01 -5.20979E+02 -1.13716E+02 -9.16389E+02 -1.15639E+02
 -4.95689E+02  8.09033E+02  2.03971E+02 -7.40221E+02  5.15287E+02 -6.23606E+02  6.96567E+02 -3.57471E+00
  3.47474E+02 -1.16987E+02 -1.69416E+02  2.95272E+02 -4.99034E+02  6.31530E+02  4.25226E+01  7.54122E+02
