 $NMID ID='MM_0lb_SNR400_12hz_g50_61.RAW', FMTDAT='(8E13.5)'
 TRAMP=1., VOLUME=1. $END
  3.09709E+05  6.32100E+02  3.38151E+05  2.50590E+05  8.45033E+04  3.37879E+05 -1.32678E+05  2.51841E+05
 -1.90939E+05  8.31070E+04 -1.11662E+05 -3.23254E+04  4.76678E+02 -5.05670E+04  5.30877E+04 -1.17181E+02
  3.59342E+04  5.26752E+04 -1.67507E+04  7.57331E+04 -6.06498E+04  6.37424E+04 -8.46234E+04  3.29377E+04
 -8.19283E+04 -1.15978E+04 -5.74934E+04 -5.19670E+04 -1.47892E+04 -7.08017E+04  2.79780E+04 -4.61548E+04
  4.00180E+04  3.20719E+03  1.63159E+04  4.80432E+04 -3.42188E+04  4.75855E+04 -6.75174E+04 -2.06175E+02
 -5.40042E+04 -5.74277E+04 -6.51530E+03 -7.78501E+04  3.40268E+04 -5.54195E+04  4.90239E+04 -1.77376E+04
  4.45307E+04  1.12366E+04  3.18595E+04  2.58442E+04  1.57933E+04  2.97663E+04 -5.38640E+03  2.71242E+04
 -2.24299E+04  1.21197E+04 -1.84923E+04 -5.21770E+03  6.35937E+03 -7.07498E+03  2.28394E+04  1.28925E+04
  6.80040E+03  3.63618E+04 -3.24295E+04  3.66602E+04 -6.43307E+04  2.11261E+03 -5.74859E+04 -4.40066E+04
 -1.30264E+04 -6.43282E+04  4.11117E+04 -4.60335E+04  5.99090E+04 -2.13059E+03  3.47195E+04  3.35483E+04
 -5.38229E+03  3.74801E+04 -3.06414E+04  1.70709E+04 -3.14034E+04 -4.60909E+03 -1.82538E+04 -1.18046E+04
 -9.29930E+03 -1.37803E+04 -7.30212E+02 -1.91605E+04  7.41587E+03 -2.35914E+04  1.56335E+04 -1.30482E+04
  1.11244E+04  5.15996E+03 -9.80455E+03  1.29649E+04 -2.19143E+04 -4.74779E+03 -7.74377E+03 -3.54925E+04
  2.36373E+04 -4.51939E+04  4.97858E+04 -1.98382E+04  4.66399E+04  2.02599E+04  1.69030E+04  4.55339E+04
 -1.65105E+04  3.37437E+04 -2.68063E+04  1.56968E+03 -1.03441E+04 -2.86545E+04  2.12596E+04 -3.53612E+04
  4.18693E+04 -9.67190E+03  3.71925E+04  2.45506E+04  1.95237E+04  4.83346E+04 -8.65862E+03  5.22029E+04
 -3.33612E+04  3.61553E+04 -4.42586E+04  1.00734E+04 -4.49948E+04 -1.76587E+04 -2.45682E+04 -4.01296E+04
  6.77877E+03 -3.94609E+04  3.24169E+04 -1.60430E+04  3.06238E+04  1.10369E+04  5.08365E+03  1.98277E+04
 -1.37993E+04  8.76028E+03 -1.08446E+04 -7.78209E+03  6.62896E+03 -1.09528E+04  1.84686E+04  6.53624E+03
  1.29858E+04  2.24149E+04 -5.88755E+03  2.51652E+04 -2.25175E+04  1.24122E+04 -2.94249E+04 -3.92710E+03
 -2.21103E+04 -1.74222E+04 -9.69417E+03 -2.24020E+04  4.77687E+03 -2.23329E+04  1.75202E+04 -2.03571E+04
  2.87095E+04 -1.28792E+04  3.50639E+04  3.42022E+03  2.49021E+04  2.13786E+04  3.83818E+03  3.89747E+04
 -1.87140E+04  3.21243E+04 -2.94627E+04  1.12028E+04 -2.06829E+04 -9.64556E+03 -4.26367E+03 -1.36769E+04
  1.79058E+03 -1.37561E+03 -5.90801E+03  7.47240E+03 -1.78190E+04  5.67693E+03 -1.79699E+04 -8.39053E+03
 -1.08032E+04 -2.12012E+04  5.37296E+03 -2.49554E+04  1.66146E+04 -1.80506E+04  1.98444E+04 -1.59557E+03
  1.24362E+04  1.46985E+04 -5.80528E+02  2.08054E+04 -1.39260E+04  1.17754E+04 -2.05999E+04 -4.15121E+03
 -1.55854E+04 -1.82568E+04 -1.70522E+03 -2.53748E+04  1.11769E+04 -2.06387E+04  2.04282E+04 -1.09360E+04
  1.94628E+04  1.38162E+02  1.38787E+04  4.70867E+03  6.91384E+03  8.76496E+02  1.09934E+04 -1.39497E+03
  1.97946E+04  2.13815E+03  2.18692E+04  1.73383E+04  1.45458E+04  3.34236E+04 -2.67332E+03  3.79533E+04
 -2.23824E+04  3.08847E+04 -3.54758E+04  1.53884E+04 -3.85177E+04 -2.87120E+03 -3.08097E+04 -2.26409E+04
 -1.34297E+04 -3.10084E+04  1.08089E+04 -2.76974E+04  2.37081E+04 -1.29850E+04  2.11595E+04  6.56303E+03
  7.36752E+03  1.57038E+04 -1.03914E+04  1.30262E+04 -1.77965E+04  3.07763E+03 -1.35138E+04 -1.11829E+04
 -2.36415E+01 -1.67267E+04  9.07287E+03 -1.28493E+04  1.19972E+04 -1.43786E+03  2.43071E+03  7.40660E+03
 -7.99393E+03  2.95681E+03 -7.37875E+03 -5.73845E+03 -8.93113E+02 -1.57326E+04  1.04572E+04 -1.63286E+04
  1.94020E+04 -9.38544E+03  2.07851E+04  3.26216E+03  1.79474E+04  1.51217E+04  9.45597E+03  2.41310E+04
 -4.22344E+03  2.56464E+04 -1.62627E+04  1.57586E+04 -1.78216E+04  3.34542E+03 -1.30190E+04 -4.00032E+03
 -5.72566E+03 -5.41245E+03 -1.05563E+03  1.10349E+03 -2.94052E+03  3.27021E+03 -6.51264E+03  4.85420E+03
 -1.21246E+04 -4.37826E+02 -1.18846E+04 -9.99481E+03 -5.11308E+03 -1.58994E+04  5.09236E+03 -1.34139E+04
  1.06342E+04 -6.15015E+03  7.72268E+03  3.39934E+03 -3.45496E+01  5.00060E+03 -6.43335E+03  1.81498E+01
 -6.25197E+03 -7.78708E+03 -1.07021E+03 -1.18861E+04  6.89158E+03 -1.26720E+04  1.67324E+04 -7.42318E+03
  1.88213E+04  1.74828E+03  1.42589E+04  1.16269E+04  2.86484E+03  1.57270E+04 -7.79092E+03  1.33423E+04
 -1.05737E+04  4.51275E+03 -5.83923E+03 -2.75902E+03  2.16328E+03 -3.64098E+03  6.62550E+03 -1.43935E+03
  5.60984E+03  6.02515E+03  1.66914E+03  1.07573E+04 -7.48952E+03  9.33853E+03 -1.25850E+04  2.31503E+03
 -8.18273E+03 -6.64702E+03  2.64064E+02 -1.11147E+04  6.22063E+03 -5.59048E+03  8.01790E+03  2.90712E+03
  1.71667E+03  7.98875E+03 -6.89784E+03  8.51286E+03 -9.93468E+03  4.37118E+03 -1.03813E+04 -2.70406E+03
 -5.78463E+03 -1.25777E+04  2.94763E+03 -1.38005E+04  1.20652E+04 -8.30828E+03  1.30637E+04  1.80073E+03
  8.68511E+03  1.07204E+04 -7.99306E+02  1.25784E+04 -9.05128E+03  6.67403E+03 -9.85163E+03 -4.72951E+01
 -9.33551E+03 -8.23286E+03 -1.88827E+03 -9.24058E+03  4.87626E+03 -7.66530E+03  6.05610E+03 -4.04953E+03
  4.17298E+03  1.34660E+03 -5.96318E+02  2.42196E+03 -6.15612E+02 -2.33257E+03  1.58503E+03 -5.45606E+03
  8.26779E+03 -2.93024E+03  1.22565E+04  1.97634E+03  1.20184E+04  7.62980E+03  7.76865E+03  1.53618E+04
 -3.02982E+03  1.69438E+04 -1.44917E+04  1.33554E+04 -1.98962E+04  1.73892E+03 -1.56833E+04 -6.26118E+03
 -8.03993E+03 -1.30327E+04 -3.66859E+02 -1.06132E+04  4.06989E+03 -5.72444E+03  3.26188E+03 -3.67153E+03
  2.78183E+03 -2.96671E+03  3.58819E+03 -3.28384E+03  5.37179E+03 -2.76621E+03  6.14172E+03 -6.61678E+02
  8.69569E+03  2.15778E+03  4.45320E+03  6.38253E+03 -2.16476E+03  7.49004E+03 -8.85433E+03  6.12913E+03
 -1.07094E+04 -9.44493E+02 -5.88181E+03 -7.12071E+03 -7.39233E+02 -1.14134E+04  6.59460E+03 -1.17535E+04
  1.19981E+04 -6.16417E+03  1.43720E+04  1.93567E+03  9.95933E+03  1.00598E+04  1.61326E+03  1.30024E+04
 -4.92279E+03  1.05857E+04 -7.04021E+03  3.92223E+03 -4.59895E+03 -1.19402E+03 -1.93202E+03 -1.08790E+03
 -1.57524E+03  7.19129E+02 -1.58948E+03  2.89936E+03 -4.36933E+03  1.91541E+03 -7.89712E+03 -1.02675E+03
 -5.44531E+03 -7.42039E+03  1.03150E+02 -1.01512E+04  6.37785E+03 -9.62035E+03  1.05508E+04 -3.53430E+03
  1.02621E+04  4.94522E+03  5.20082E+03  9.18358E+03 -1.58895E+03  1.04398E+04 -7.17235E+03  6.13892E+03
 -9.34453E+03  3.82845E+02 -7.53245E+03 -5.62663E+03 -8.29156E+02 -8.48645E+03  3.59937E+03 -6.84186E+03
  6.60106E+03 -2.75109E+03  4.41853E+03  8.84038E+02  1.67851E+03  3.83893E+03  1.45568E+03  1.50291E+03
  2.64574E+03  6.03639E+02  2.64521E+03  1.89455E+03  3.40843E+03  4.19329E+03  2.78503E+03  4.91060E+03
 -2.29415E+03  8.30467E+03 -6.87662E+03  8.05115E+03 -1.02208E+04  2.05430E+03 -1.07095E+04 -3.36351E+03
 -4.79099E+03 -1.04036E+04  1.58445E+03 -1.12325E+04  5.80705E+03 -8.17596E+03  8.44219E+03 -2.17750E+03
  6.39893E+03  3.52223E+03  1.88626E+03  5.90182E+03 -2.61950E+03  3.99803E+03 -4.79496E+03 -1.05735E+03
 -2.25013E+03 -3.30690E+03  2.98230E+03 -4.35892E+03  3.65664E+03 -2.14707E+03  4.32094E+03  1.03553E+03
  2.73547E+03  1.82442E+03  1.99082E+03  1.63637E+03 -2.54216E+02  1.28956E+03  1.25628E+03 -3.60967E+02
  1.10347E+03 -8.29139E+02  3.71335E+03  1.76378E+03  2.02438E+03  5.45233E+03 -8.97637E+02  6.57889E+03
 -5.24186E+03  3.58009E+03 -7.17944E+03  8.33268E+02 -6.09749E+03 -1.87655E+03 -1.28269E+03 -3.83221E+03
  4.46719E+02 -4.59067E+03  2.25968E+03 -2.09249E+03  2.65211E+03  1.84560E+03 -1.23985E+03  3.07078E+03
 -4.04871E+03  1.96267E+03 -4.59089E+03 -2.79959E+03 -2.41210E+03 -5.16956E+03  1.03305E+03 -5.84828E+03
  2.79304E+03 -3.28951E+03  3.83045E+03 -2.75498E+02  2.99000E+03  8.71831E+02  5.41157E+02  3.38336E+03
 -2.15075E+03  1.23756E+03 -2.70445E+03 -1.07764E+03  5.50672E+02 -3.63411E+03  5.36566E+03 -3.57186E+03
  5.43553E+03  7.10665E+02  6.41819E+03  3.58628E+03  2.83545E+03  5.68412E+03 -2.13208E+03  6.23656E+03
 -4.95474E+03  2.16192E+03 -4.41937E+03 -8.19985E+02 -1.96541E+03 -4.40036E+03  1.16823E+03 -4.23302E+03
  4.10112E+03 -2.22549E+03  2.96989E+03  1.39561E+03  1.87815E+03  3.32707E+03 -2.74560E+02  2.63471E+03
 -1.55769E+03  2.52538E+03 -1.70223E+03  1.48630E+02 -5.50798E+02  5.90843E+02 -8.63474E+02  1.45357E+03
 -1.08295E+03  2.96601E+03 -4.40608E+03  2.57346E+03 -5.29628E+03  1.61942E+02 -7.53900E+03 -3.74483E+03
 -3.65267E+03 -8.41066E+03  1.74668E+03 -8.51630E+03  6.46822E+03 -6.89441E+03  8.70961E+03 -2.64954E+03
  7.57578E+03  1.46337E+03  4.64439E+03  5.12270E+03 -1.15864E+02  6.38018E+03 -2.15698E+03  4.30206E+03
 -3.99375E+03  1.98834E+03 -1.68887E+03 -1.02147E+03 -8.03729E+02 -4.85076E+02 -8.41017E+02  7.18743E+01
 -1.25782E+03  3.24691E+02 -1.69967E+03 -1.46741E+02  2.45019E+02 -1.43102E+03  2.21798E+02 -2.86446E+03
  2.84886E+03 -1.74817E+03  3.25451E+03 -1.85412E+02  4.15096E+03  3.73693E+03  1.22706E+03  5.71725E+03
 -3.34943E+03  7.01743E+03 -6.62716E+03  4.68204E+03 -7.39592E+03 -4.11890E+02 -5.69354E+03 -4.39123E+03
 -2.65111E+03 -5.66338E+03  1.11901E+03 -5.44460E+03  3.29843E+03 -2.65457E+03  3.87202E+03  2.25755E+02
  1.91002E+03  1.64274E+03 -6.88045E+02  1.55426E+03 -1.46405E+03 -8.11421E+01 -3.09741E+02 -1.02308E+03
  1.76338E+03 -3.96466E+02  2.15716E+03  1.39065E+03  1.70722E+03  1.98888E+03 -9.09133E+01  2.49748E+03
 -2.61645E+03  3.32245E+03 -3.35685E+03 -1.49321E+02 -3.50230E+03 -2.78972E+03 -8.87290E+02 -4.67159E+03
  1.84154E+03 -4.13274E+03  3.89805E+03 -1.99957E+03  4.39649E+03  1.59190E+03  2.68923E+03  3.69137E+03
  2.86736E+02  3.97263E+03 -1.41437E+03  2.68114E+03 -1.86024E+03  2.09679E+03 -2.25733E+03  3.89831E+02
 -1.27942E+03 -4.25599E+02 -6.91473E+02  3.16361E+02 -1.94700E+03  1.07567E+03 -3.17890E+03 -3.44099E+02
 -3.33725E+03 -1.66512E+03 -1.24482E+03 -4.13883E+03  1.63047E+03 -4.29012E+03  2.65276E+03 -1.32601E+03
  3.77603E+03 -2.31933E+01  1.27689E+03  2.35483E+03 -1.98428E+01  3.86021E+03 -2.81056E+03  2.35816E+03
