 $NMID ID='MM_0lb_SNR400_10hz_g50_33.RAW', FMTDAT='(8E13.5)'
 TRAMP=1., VOLUME=1. $END
  3.09593E+05  1.02379E+03  3.38630E+05  2.50811E+05  8.48484E+04  3.38671E+05 -1.32544E+05  2.51466E+05
 -1.90738E+05  8.34954E+04 -1.12775E+05 -3.28645E+04  4.72983E+02 -5.00363E+04  5.34305E+04 -7.04401E+02
  3.52159E+04  5.30697E+04 -1.68027E+04  7.56489E+04 -6.13890E+04  6.47990E+04 -8.46043E+04  3.25038E+04
 -8.19393E+04 -1.17651E+04 -5.80169E+04 -5.23275E+04 -1.52404E+04 -7.08479E+04  2.79074E+04 -4.65848E+04
  4.12340E+04  3.56899E+03  1.61117E+04  4.88095E+04 -3.48787E+04  4.78444E+04 -6.77690E+04 -4.26769E+02
 -5.45632E+04 -5.78535E+04 -6.95071E+03 -7.86771E+04  3.38565E+04 -5.62739E+04  4.97664E+04 -1.80602E+04
  4.49788E+04  1.20964E+04  3.31592E+04  2.62888E+04  1.66003E+04  3.10364E+04 -5.21228E+03  2.85092E+04
 -2.14672E+04  1.17805E+04 -1.89526E+04 -5.49683E+03  6.97151E+03 -7.52196E+03  2.25018E+04  1.34100E+04
  7.20884E+03  3.72648E+04 -3.35232E+04  3.69986E+04 -6.54370E+04  1.86627E+03 -5.97742E+04 -4.42043E+04
 -1.25027E+04 -6.48090E+04  4.10674E+04 -4.64345E+04  6.09623E+04 -3.32490E+03  3.59795E+04  3.38466E+04
 -5.66865E+03  3.91024E+04 -3.18187E+04  1.83372E+04 -3.28691E+04 -3.95051E+03 -1.83666E+04 -1.18819E+04
 -8.72161E+03 -1.52556E+04 -1.12198E+03 -1.88753E+04  8.17350E+03 -2.42713E+04  1.54049E+04 -1.29132E+04
  1.03912E+04  5.84479E+03 -1.03594E+04  1.30558E+04 -2.30487E+04 -5.66991E+03 -7.94087E+03 -3.66824E+04
  2.50763E+04 -4.55900E+04  5.15942E+04 -2.04952E+04  4.78798E+04  2.05980E+04  1.69976E+04  4.65971E+04
 -1.59869E+04  3.68070E+04 -2.74394E+04  2.55435E+03 -1.14426E+04 -2.95334E+04  2.15685E+04 -3.57532E+04
  4.39268E+04 -1.06967E+04  3.89646E+04  2.50149E+04  2.06442E+04  4.94129E+04 -7.49921E+03  5.47258E+04
 -3.46124E+04  3.68011E+04 -4.63914E+04  1.11736E+04 -4.67113E+04 -1.89141E+04 -2.58104E+04 -4.09483E+04
  7.33753E+03 -4.09990E+04  3.38017E+04 -1.69117E+04  3.15835E+04  1.06302E+04  5.29294E+03  2.17952E+04
 -1.38890E+04  9.35700E+03 -1.09837E+04 -8.39883E+03  5.83235E+03 -1.15747E+04  1.83575E+04  5.90669E+03
  1.42799E+04  2.18374E+04 -5.14119E+03  2.59755E+04 -2.26660E+04  1.39806E+04 -3.07122E+04 -3.79006E+03
 -2.40201E+04 -1.81622E+04 -1.06816E+04 -2.45698E+04  4.65486E+03 -2.45450E+04  1.91552E+04 -2.18175E+04
  3.08043E+04 -1.33980E+04  3.64631E+04  4.73485E+03  2.73194E+04  2.31478E+04  4.06249E+03  4.04964E+04
 -1.96890E+04  3.28798E+04 -3.03768E+04  1.22010E+04 -2.24539E+04 -1.04871E+04 -4.42765E+03 -1.28317E+04
  4.61285E+02 -1.24670E+03 -6.39999E+03  7.78545E+03 -1.91464E+04  4.61483E+03 -1.90193E+04 -9.11365E+03
 -1.14541E+04 -2.23188E+04  6.54488E+03 -2.64335E+04  1.79419E+04 -1.93180E+04  2.19112E+04 -1.89649E+03
  1.33236E+04  1.52840E+04 -2.40607E+03  2.16353E+04 -1.60763E+04  1.33556E+04 -2.24259E+04 -4.61312E+03
 -1.65117E+04 -2.05315E+04 -2.08372E+03 -2.74638E+04  1.23268E+04 -2.15293E+04  2.22598E+04 -1.04962E+04
  2.12830E+04 -1.49273E+02  1.52120E+04  5.04220E+03  8.43541E+03  1.62579E+03  1.16094E+04 -1.63487E+03
  2.17432E+04  2.75912E+03  2.40614E+04  1.81738E+04  1.63570E+04  3.59731E+04 -3.44293E+03  4.17850E+04
 -2.31097E+04  3.50856E+04 -3.98961E+04  1.80566E+04 -4.18612E+04 -3.71674E+03 -3.49576E+04 -2.40227E+04
 -1.35923E+04 -3.54947E+04  1.18526E+04 -3.04364E+04  2.67574E+04 -1.53938E+04  2.21240E+04  7.37566E+03
  7.34325E+03  1.70836E+04 -1.09261E+04  1.48470E+04 -1.93177E+04  1.90719E+03 -1.43016E+04 -1.27654E+04
 -1.51021E+02 -1.82483E+04  9.55013E+03 -1.41505E+04  1.23054E+04 -1.99420E+03  3.76152E+03  8.03935E+03
 -9.19627E+03  3.76576E+03 -8.21923E+03 -6.85895E+03 -1.58314E+03 -1.69725E+04  1.08880E+04 -1.93481E+04
  2.13784E+04 -1.05422E+04  2.41091E+04  3.23204E+03  2.09810E+04  1.74899E+04  1.01219E+04  2.71177E+04
 -4.22585E+03  2.95570E+04 -1.90989E+04  1.85244E+04 -2.12964E+04  3.23225E+03 -1.51274E+04 -5.61766E+03
 -5.96799E+03 -6.93160E+03 -9.81962E+02  3.85691E+02 -2.75635E+03  3.41501E+03 -6.53108E+03  5.55287E+03
 -1.30695E+04 -1.49002E+03 -1.40953E+04 -1.13679E+04 -6.23435E+03 -1.77907E+04  5.76701E+03 -1.45082E+04
  1.16946E+04 -5.86933E+03  8.44510E+03  3.03884E+03 -3.57020E+02  5.65028E+03 -7.20483E+03  4.76093E+02
 -7.37733E+03 -9.67428E+03 -1.31312E+03 -1.42475E+04  8.79168E+03 -1.56053E+04  1.86441E+04 -7.90549E+03
  2.17622E+04  1.98823E+03  1.61493E+04  1.29434E+04  3.20177E+03  1.81431E+04 -8.84297E+03  1.45389E+04
 -1.13614E+04  4.47882E+03 -5.36844E+03 -3.45330E+03  1.78628E+03 -4.71685E+03  7.99208E+03 -1.01367E+03
  7.34946E+03  6.57664E+03  2.14697E+03  1.16796E+04 -8.48684E+03  1.21190E+04 -1.45312E+04  1.97938E+03
 -9.63473E+03 -6.70356E+03  1.55265E+02 -1.32000E+04  8.24059E+03 -6.20257E+03  7.91703E+03  2.96295E+03
  2.20941E+03  9.28360E+03 -7.21164E+03  1.00989E+04 -1.33283E+04  4.67023E+03 -1.28420E+04 -4.64769E+03
 -6.88891E+03 -1.43558E+04  3.40449E+03 -1.69603E+04  1.43808E+04 -1.07925E+04  1.48192E+04  3.29446E+03
  9.74205E+03  1.28718E+04 -1.10769E+03  1.45305E+04 -1.07087E+04  8.03543E+03 -1.23259E+04 -1.13860E+03
 -1.07043E+04 -9.46768E+03 -1.57464E+03 -1.17156E+04  6.28741E+03 -9.87970E+03  7.27452E+03 -3.90961E+03
  4.94443E+03  1.90937E+03 -7.43356E+02  1.62599E+03 -7.29310E+02 -3.97519E+03  2.11926E+03 -6.78742E+03
  1.14028E+04 -3.62914E+03  1.52481E+04  1.83250E+03  1.47476E+04  1.03005E+04  9.60999E+03  1.86383E+04
 -5.05133E+03  2.20923E+04 -1.87645E+04  1.66597E+04 -2.34433E+04  2.99254E+03 -1.93540E+04 -8.20876E+03
 -8.60838E+03 -1.54004E+04 -2.60478E+02 -1.29489E+04  5.24026E+03 -8.29075E+03  5.23521E+03 -5.15098E+03
  2.68159E+03 -3.08322E+03  4.02362E+03 -3.56165E+03  6.13653E+03 -3.69525E+03  7.63646E+03 -8.91248E+02
  9.60487E+03  2.29319E+03  5.09277E+03  8.53357E+03 -1.26898E+03  9.61324E+03 -9.70718E+03  8.18422E+03
 -1.28553E+04 -1.64998E+03 -7.91317E+03 -9.03420E+03 -1.15324E+03 -1.43998E+04  8.36362E+03 -1.45223E+04
  1.51271E+04 -8.00159E+03  1.72012E+04  1.75072E+03  1.16008E+04  1.26043E+04  1.95512E+03  1.56973E+04
 -6.41090E+03  1.28821E+04 -9.29339E+03  5.29218E+03 -6.50488E+03 -1.61436E+03 -2.51869E+03 -1.70150E+03
 -1.18568E+03 -3.23165E+02 -2.90134E+03  2.57449E+03 -6.21448E+03  2.66348E+03 -1.01528E+04 -8.33413E+02
 -6.25516E+03 -9.33708E+03  4.28655E+01 -1.34905E+04  8.20106E+03 -1.20483E+04  1.28807E+04 -3.99635E+03
  1.31226E+04  6.75654E+03  5.72993E+03  1.17444E+04 -2.95393E+03  1.31096E+04 -9.50364E+03  8.58870E+03
 -1.24613E+04  8.69802E+02 -9.30966E+03 -7.57812E+03 -4.87460E+02 -1.05306E+04  5.75294E+03 -8.22611E+03
  8.23924E+03 -2.63247E+03  5.64144E+03  2.29303E+03  2.25460E+03  3.84379E+03  1.23186E+03  1.82163E+03
  3.14546E+03  9.44221E+02  2.79910E+03  1.85740E+03  3.77737E+03  4.76522E+03  3.71184E+03  6.55482E+03
 -3.62458E+03  1.04870E+04 -9.46217E+03  1.10308E+04 -1.29684E+04  2.89859E+03 -1.36449E+04 -5.27542E+03
 -6.00040E+03 -1.37786E+04  1.42254E+03 -1.50611E+04  8.06370E+03 -9.41253E+03  1.11928E+04 -2.60393E+03
  8.39116E+03  4.69520E+03  1.38872E+03  7.72145E+03 -3.60403E+03  4.64523E+03 -4.66370E+03 -1.40094E+03
 -2.89845E+03 -5.77504E+03  2.42400E+03 -5.55418E+03  5.15743E+03 -2.80049E+03  4.69612E+03  7.57689E+02
  1.89874E+03  2.72480E+03  1.79775E+03  1.98656E+03 -9.56391E+02  1.60612E+03  1.76168E+03 -8.13205E+02
  1.91939E+03 -7.91912E+02  4.85409E+03  1.46803E+03  2.45163E+03  7.06250E+03 -1.09818E+03  9.14632E+03
 -7.15387E+03  6.11048E+03 -8.41548E+03  1.67544E+03 -7.19550E+03 -3.53085E+03 -2.98128E+03 -4.89049E+03
  1.15477E+03 -4.61658E+03  3.12877E+03 -3.36607E+03  2.47270E+03  2.59557E+03 -1.41218E+03  4.84757E+03
 -5.37710E+03  2.42594E+03 -6.61165E+03 -3.75855E+03 -3.77599E+03 -7.60089E+03  7.85908E+02 -6.90589E+03
  3.91341E+03 -4.08749E+03  5.22930E+03 -5.92735E+02  4.29470E+03  1.75177E+03  9.87489E+02  4.04127E+03
 -2.78740E+03  1.49363E+03 -3.62849E+03 -2.01355E+03  1.32048E+03 -4.93431E+03  6.25639E+03 -4.67376E+03
  8.82615E+03  2.05396E+02  8.40085E+03  5.21549E+03  2.92811E+03  8.22537E+03 -2.88977E+03  8.69002E+03
 -7.33698E+03  4.03390E+03 -7.48394E+03 -1.25658E+03 -3.05216E+03 -6.11702E+03  7.01141E+02 -5.77096E+03
  5.26919E+03 -2.94292E+03  3.64215E+03  1.87666E+03  1.54348E+03  4.31590E+03 -2.75194E+02  4.67918E+03
 -2.62042E+03  2.35613E+03 -2.16271E+03  7.60985E+02 -2.06148E+03  9.48114E+02 -1.30580E+03  1.49675E+03
 -2.40835E+03  3.26043E+03 -5.56730E+03  2.91565E+03 -7.88955E+03 -2.44918E+02 -9.92112E+03 -5.98832E+03
 -5.19112E+03 -1.10884E+04  2.43305E+03 -1.35109E+04  8.24917E+03 -1.05204E+04  1.24483E+04 -4.09853E+03
  1.14995E+04  1.95294E+03  6.95202E+03  7.59841E+03  5.34811E+02  8.55734E+03 -3.37058E+03  6.32082E+03
 -5.88914E+03  2.64459E+03 -3.28595E+03 -1.11560E+03 -4.73489E+02 -1.25740E+03 -5.57385E+02  1.17510E+02
 -1.67152E+03  3.25056E+02 -1.37711E+03  9.46672E+01 -2.92408E+02 -2.69372E+03  5.44783E+02 -3.46709E+03
  4.14885E+03 -2.81906E+03  6.25295E+03  2.60111E+02  6.41659E+03  4.93451E+03  2.68821E+03  8.31824E+03
 -4.02674E+03  1.00139E+04 -9.14950E+03  6.02611E+03 -1.08316E+04 -9.23204E+02 -8.51030E+03 -6.56700E+03
 -3.65984E+03 -8.52284E+03  1.90129E+03 -8.05920E+03  4.95577E+03 -4.52347E+03  5.95530E+03  1.69704E+02
  3.58345E+03  3.14775E+03 -6.07443E+02  2.27897E+03 -1.25383E+03 -6.63628E+02 -1.58257E+02 -2.64288E+03
  3.27368E+03 -1.78612E+03  3.14083E+03  1.46105E+03  2.49884E+03  3.52861E+03  9.83786E+02  4.21327E+03
 -3.48597E+03  4.29960E+03 -5.68452E+03 -9.47962E+01 -5.83517E+03 -4.05657E+03 -1.40370E+03 -7.70341E+03
  4.45171E+03 -6.09574E+03  6.86237E+03 -1.90583E+03  6.15373E+03  1.83701E+03  3.59238E+03  5.35631E+03
  5.48004E+02  5.34882E+03 -2.17567E+03  4.84588E+03 -3.13952E+03  2.89991E+03 -2.67694E+03  1.14559E+03
 -1.88052E+03 -2.85348E+02 -2.01818E+03  1.98376E+02 -2.54622E+03  1.40038E+02 -3.71972E+03 -9.94430E+02
 -4.65317E+03 -3.59420E+03 -1.11349E+03 -6.23051E+03  2.54440E+03 -6.04488E+03  4.61222E+03 -2.09068E+03
  5.84953E+03 -4.31912E+02  3.30508E+03  4.47696E+03  6.73964E+01  5.55290E+03 -3.62232E+03  3.79158E+03
