 $NMID ID='MM_0lb_SNR400_18hz_g45_11.RAW', FMTDAT='(8E13.5)'
 TRAMP=1., VOLUME=1. $END
  3.09655E+05  2.03996E+02  3.37475E+05  2.49902E+05  8.44886E+04  3.37270E+05 -1.32035E+05  2.50646E+05
 -1.90228E+05  8.20554E+04 -1.10749E+05 -3.24777E+04  1.81058E+03 -5.07408E+04  5.32841E+04  9.88903E+01
  3.43861E+04  5.26070E+04 -1.67886E+04  7.48802E+04 -6.08158E+04  6.22386E+04 -8.29143E+04  3.14559E+04
 -7.95944E+04 -1.06464E+04 -5.68514E+04 -5.00935E+04 -1.44902E+04 -6.80624E+04  2.65441E+04 -4.52573E+04
  3.93110E+04  4.17194E+03  1.54249E+04  4.75108E+04 -3.36597E+04  4.69310E+04 -6.54625E+04 -6.00252E+02
 -5.19564E+04 -5.57366E+04 -6.71875E+03 -7.51480E+04  3.34771E+04 -5.36397E+04  4.61593E+04 -1.66358E+04
  4.13119E+04  1.08154E+04  3.12201E+04  2.43786E+04  1.58695E+04  2.81503E+04 -4.21199E+03  2.68177E+04
 -2.17247E+04  1.27775E+04 -1.95900E+04 -4.37527E+03  4.50928E+03 -8.01155E+03  2.13029E+04  1.12140E+04
  7.08780E+03  3.34931E+04 -3.01115E+04  3.40587E+04 -6.16067E+04  2.01744E+03 -5.53051E+04 -4.06197E+04
 -1.18885E+04 -6.07522E+04  3.74708E+04 -4.31544E+04  5.53623E+04 -1.55870E+03  3.17819E+04  3.03895E+04
 -6.04088E+03  3.35786E+04 -2.83004E+04  1.35523E+04 -2.75226E+04 -5.60864E+03 -1.42975E+04 -9.87764E+03
 -7.62303E+03 -1.10890E+04 -8.63188E+02 -1.65211E+04  6.94381E+03 -2.21981E+04  1.51776E+04 -1.39936E+04
  1.27024E+04  3.92849E+03 -6.31439E+03  1.33826E+04 -1.97948E+04 -2.94692E+03 -8.47128E+03 -3.05753E+04
  2.07984E+04 -4.08316E+04  4.53009E+04 -1.90055E+04  4.21868E+04  1.87674E+04  1.45101E+04  4.18141E+04
 -1.51081E+04  3.15609E+04 -2.38254E+04  7.34077E+02 -8.28920E+03 -2.64492E+04  2.03247E+04 -3.14485E+04
  3.82423E+04 -7.41676E+03  3.20949E+04  2.21706E+04  1.54381E+04  4.27778E+04 -7.20167E+03  4.58142E+04
 -2.85036E+04  3.01799E+04 -3.73729E+04  8.01507E+03 -3.82551E+04 -1.51096E+04 -2.13063E+04 -3.48211E+04
  6.78206E+03 -3.41947E+04  2.91297E+04 -1.24680E+04  2.71141E+04  1.04833E+04  2.91597E+03  1.76997E+04
 -1.27609E+04  7.61258E+03 -9.43319E+03 -7.46658E+03  5.88303E+03 -9.97319E+03  1.73894E+04  6.60519E+03
  1.20104E+04  2.14509E+04 -6.73063E+03  2.34337E+04 -2.13088E+04  1.02106E+04 -2.55664E+04 -6.30465E+03
 -1.68987E+04 -1.62372E+04 -5.68455E+03 -1.66991E+04  3.77297E+03 -1.44106E+04  1.24479E+04 -1.46821E+04
  2.17131E+04 -1.18338E+04  2.82482E+04  7.98649E+02  2.15979E+04  1.66851E+04  4.20044E+03  3.24459E+04
 -1.55852E+04  2.83783E+04 -2.58543E+04  9.00862E+03 -1.99404E+04 -1.06340E+04 -3.84709E+03 -1.38814E+04
  3.08147E+03 -4.21738E+03 -2.62328E+03  5.23264E+03 -1.28779E+04  5.40989E+03 -1.34799E+04 -5.06570E+03
 -8.88908E+03 -1.56615E+04  4.43056E+03 -1.92246E+04  1.24851E+04 -1.43777E+04  1.55132E+04 -1.13931E+03
  9.24003E+03  1.09349E+04 -8.99090E+02  1.63716E+04 -1.05081E+04  9.40298E+03 -1.61352E+04 -3.14050E+03
 -1.15661E+04 -1.43294E+04 -1.67150E+03 -1.87475E+04  8.42933E+03 -1.57248E+04  1.59927E+04 -7.81698E+03
  1.42995E+04  1.16999E+03  1.06875E+04  3.96025E+03  5.14565E+03  7.32357E+02  8.04903E+03 -1.02694E+03
  1.43757E+04  2.54281E+03  1.44852E+04  1.30925E+04  9.58651E+03  2.48226E+04 -2.86046E+03  2.71118E+04
 -1.59947E+04  2.15781E+04 -2.50283E+04  1.00108E+04 -2.55815E+04 -1.94227E+03 -2.17713E+04 -1.44863E+04
 -1.03918E+04 -2.06312E+04  6.77254E+03 -1.95656E+04  1.67586E+04 -1.06832E+04  1.51725E+04  3.78247E+03
  6.51250E+03  1.18559E+04 -7.43256E+03  1.08451E+04 -1.34185E+04  2.81217E+03 -1.08170E+04 -8.31044E+03
 -4.69155E+02 -1.27459E+04  6.46714E+03 -9.26661E+03  8.13741E+03 -1.65068E+03  1.65207E+03  4.87780E+03
 -5.83148E+03  1.65115E+03 -3.43714E+03 -4.22575E+03  9.66838E+02 -1.02114E+04  7.96611E+03 -1.01939E+04
  1.24081E+04 -4.51460E+03  1.26262E+04  2.85977E+03  1.05689E+04  9.51143E+03  5.27934E+03  1.46841E+04
 -1.77364E+03  1.64800E+04 -9.92436E+03  1.04206E+04 -1.12701E+04  3.05261E+03 -8.88854E+03 -1.81164E+03
 -4.46529E+03 -3.40722E+03 -8.56944E+02  1.17145E+03 -1.92569E+03  2.17570E+03 -3.77438E+03  4.06150E+03
 -8.23963E+03 -8.21754E+01 -8.27686E+03 -7.49569E+03 -3.80490E+03 -1.18224E+04  3.38166E+03 -8.88615E+03
  7.25669E+03 -3.53756E+03  5.35427E+03  2.27964E+03  4.90683E+02  3.03233E+03 -3.78588E+03  1.09078E+01
 -2.81435E+03 -5.56000E+03 -1.22544E+03 -7.53386E+03  3.95270E+03 -7.60004E+03  1.00785E+04 -4.27907E+03
  1.17915E+04  1.20275E+03  9.22693E+03  6.52699E+03  1.88191E+03  8.71229E+03 -5.51596E+03  8.44659E+03
 -7.24049E+03  2.92435E+03 -3.68233E+03 -1.12962E+03  1.22566E+03 -2.54261E+03  5.18536E+03 -1.05103E+03
  3.55295E+03  3.37992E+03  1.11028E+03  6.42257E+03 -4.56480E+03  6.18475E+03 -8.15782E+03  1.68857E+03
 -5.08836E+03 -3.51036E+03  2.51464E+02 -7.08752E+03  3.52419E+03 -3.26241E+03  3.78562E+03  1.28273E+03
  6.46318E+02  3.47031E+03 -4.07176E+03  4.82744E+03 -4.84766E+03  2.60154E+03 -4.73347E+03 -9.60059E+02
 -2.94350E+03 -6.36100E+03  1.09914E+03 -7.09281E+03  5.85533E+03 -4.96642E+03  6.38443E+03  6.91112E+02
  4.80088E+03  5.20217E+03  3.96281E+02  7.58105E+03 -5.14866E+03  4.54874E+03 -5.18478E+03 -6.23360E+02
 -6.13920E+03 -5.49561E+03 -1.56148E+03 -4.81800E+03  2.71274E+03 -4.61596E+03  3.29692E+03 -3.05620E+03
  2.90915E+03  3.93631E+02  9.24125E+01  6.41756E+02  1.76805E+02 -1.90047E+02 -6.97735E+01 -1.72955E+03
  4.31901E+03 -5.50856E+02  5.63704E+03  1.12836E+03  5.84132E+03  3.18998E+03  5.41465E+03  6.91540E+03
 -1.07553E+03  8.76430E+03 -7.84336E+03  6.60721E+03 -1.03182E+04  1.89221E+03 -8.23426E+03 -2.61884E+03
 -4.35933E+03 -6.52581E+03  2.06070E+02 -5.73529E+03  2.29556E+03 -2.36880E+03  2.00653E+03 -1.95570E+03
  1.07096E+03 -1.81258E+03  2.03874E+03 -2.05863E+03  3.74413E+03 -1.49569E+03  3.66462E+03  2.22978E+02
  4.89673E+03  1.39431E+03  1.80881E+03  3.27142E+03 -1.86034E+03  3.43809E+03 -4.80064E+03  3.07791E+03
 -4.79116E+03 -1.29219E+03 -2.27414E+03 -3.38228E+03  1.72215E+02 -4.88783E+03  2.89828E+03 -5.74712E+03
  5.64959E+03 -2.84925E+03  6.68859E+03 -3.48485E+02  5.59049E+03  4.86274E+03  9.08418E+02  6.26946E+03
 -2.38835E+03  5.84323E+03 -3.55812E+03  1.92234E+03 -2.01667E+03 -1.28545E+03 -3.16050E+02 -5.55553E+02
 -1.03938E+02  8.83685E+02 -1.04638E+03  1.82904E+03 -2.97231E+03  1.02546E+03 -3.93384E+03 -3.63517E+02
 -1.40025E+03 -3.80438E+03  1.04640E+03 -4.43000E+03  2.84235E+03 -4.27722E+03  3.71033E+03 -2.10417E+02
  4.55348E+03  1.83783E+03  1.80720E+03  3.43183E+03 -8.91010E+02  4.87034E+03 -2.60621E+03  3.18978E+03
 -4.23370E+03  3.56645E+02 -3.47545E+03 -2.61884E+03  5.18078E+02 -3.53173E+03  1.61590E+03 -2.22303E+03
  2.85697E+03 -1.61311E+03  2.04109E+03  9.05977E+01  6.39548E+02  1.68924E+03  1.07174E+03 -1.88845E+01
  2.05936E+03  6.67153E+02  1.05793E+03  1.78336E+02  1.31133E+03  2.25579E+03  1.46770E+03  1.72557E+03
 -1.12917E+03  3.81384E+03 -2.10200E+03  3.64540E+03 -3.67246E+03  1.28588E+03 -4.50036E+03 -4.49866E+02
 -1.79394E+03 -3.54120E+03  1.00577E+03 -4.87325E+03  2.41814E+03 -2.51286E+03  3.51365E+03 -9.33691E+02
  2.54792E+03  1.74935E+03  1.10587E+03  2.98455E+03 -7.13309E+02  1.30768E+03 -1.20878E+03 -1.26637E+02
 -7.39836E+02 -1.79511E+03  1.62985E+03 -1.81952E+03  1.54967E+03 -1.37144E+03  1.62082E+03  4.10693E+02
  9.92021E+02  5.62896E+02  5.82033E+02 -3.26538E+02 -3.17222E+02  7.37141E+02  1.26939E+03  1.68199E+02
  1.61312E+01 -1.65589E+02  1.40057E+03  1.10767E+03  2.36462E+02  2.05463E+03 -6.18053E+02  3.12895E+03
 -1.54264E+03  1.36058E+03 -2.13388E+03  2.32617E+02 -1.98131E+03 -1.20516E+03 -7.74903E+02 -1.09975E+03
  4.36048E+02 -1.65384E+03  6.35023E+02 -6.98838E+02  7.79700E+02  1.29357E+03 -7.93993E+02  8.16169E+02
 -1.48768E+03  7.89475E+02 -9.40549E+02 -1.46018E+03 -2.41618E+02 -2.21991E+03  2.36857E+02 -1.49732E+03
  5.49794E+02 -4.40300E+02  4.57918E+02 -1.67878E+02  1.66971E+03  7.09343E+01  2.99246E+02  1.24162E+03
 -2.53407E+02  2.25411E+02 -1.56242E+03  2.48930E+01  1.80543E+02 -7.33280E+02  1.87371E+03 -1.24773E+03
  8.61658E+02  8.99769E+02  3.23874E+03  8.42813E+02  1.45579E+03  2.05917E+03  3.20345E+01  2.01179E+03
 -1.28230E+03  3.58403E+02 -1.20273E+03  2.13072E+01 -6.86249E+02 -1.56671E+03  4.86701E+02 -1.50898E+03
  1.44365E+03 -4.16700E+02  9.83929E+02  1.11998E+03 -2.28951E+02  1.36756E+03  8.71867E+02  1.18570E+03
 -4.18683E+02  1.06798E+03 -4.17145E+02 -4.87498E+01  2.80604E+02  7.54676E+02 -6.95632E+02  3.44609E+02
 -6.38552E+02  9.75506E+02 -1.89645E+03  6.11689E+02 -1.67419E+03  7.45075E+01 -2.66916E+03 -1.52267E+03
 -1.15093E+03 -2.47543E+03  6.35464E+02 -3.14747E+03  9.29494E+02 -2.68591E+03  2.68665E+03 -1.33796E+03
  2.24651E+03  2.27756E+02  1.44834E+03  1.75515E+03 -7.41115E+02  1.83128E+03 -6.96725E+02  1.11760E+03
 -8.52605E+02  5.33591E+02 -9.76097E+02 -1.17692E+01 -4.40312E+02  8.06920E+01 -7.08155E+02 -3.70555E+02
 -1.29153E+03 -2.01752E+02 -8.14705E+02  4.65329E+02  4.71328E+02  6.59694E+01 -2.17445E+02 -1.13358E+03
  1.36018E+03 -6.73481E+02  5.56197E+02  3.35490E+02  1.61808E+03  1.14971E+03 -1.58784E+02  1.99124E+03
 -9.16497E+02  2.68763E+03 -1.85862E+03  1.36227E+03 -1.54227E+03 -6.07517E+02 -1.34772E+03 -1.55536E+03
 -1.24741E+03 -1.41528E+03  5.74822E+02 -1.40779E+03  8.23953E+02 -1.17605E+03  5.13712E+02  4.60910E+02
  6.69826E+02  4.67731E+02  2.47413E+02  6.02862E+02  6.25476E+01 -5.20751E+01 -4.76837E+01 -5.46514E+02
  6.71687E+02  2.49560E+02  6.94820E+02  1.10472E+03  4.98564E+02  2.72950E+02  6.37926E+02  2.55835E+02
 -7.71985E+02  6.00296E+02 -7.11599E+02  5.65051E+02 -7.08097E+02 -4.67472E+02 -1.17347E+02 -1.27448E+03
  5.43065E+02 -8.85176E+02  5.60115E+02 -3.10378E+02  9.60413E+02 -6.19246E+02  6.59213E+02  2.52754E+02
  6.54142E+02  8.45158E+02 -5.57501E+02  1.01918E+03 -1.31578E+03  7.22641E+02 -7.75163E+02  1.06343E+02
 -2.60276E+02  2.57426E+02 -8.13997E+02  2.52901E+02 -5.77701E+02 -5.62164E-01 -7.98338E+02 -2.39296E+02
 -1.06575E+03  2.58165E+02 -5.51453E+02 -8.06881E+02  4.67813E+02 -1.98649E+03  6.68801E+02 -3.86348E+02
  1.14105E+03 -1.56054E+02 -1.08674E+02  1.58843E+02 -3.09378E+02  7.70086E+02 -6.32770E+02  8.70123E+02
