 $NMID ID='MM_0lb_SNR400_13hz_g60_56.RAW', FMTDAT='(8E13.5)'
 TRAMP=1., VOLUME=1. $END
  3.09681E+05  1.86966E+02  3.38102E+05  2.50388E+05  8.51793E+04  3.38456E+05 -1.32557E+05  2.51260E+05
 -1.90984E+05  8.31875E+04 -1.11878E+05 -3.25723E+04  1.18578E+03 -5.05136E+04  5.28733E+04 -1.01628E+03
  3.50983E+04  5.30051E+04 -1.71414E+04  7.59798E+04 -6.09831E+04  6.45492E+04 -8.47839E+04  3.27108E+04
 -8.14662E+04 -1.12986E+04 -5.73158E+04 -5.18331E+04 -1.47437E+04 -7.07563E+04  2.85884E+04 -4.67196E+04
  4.07208E+04  3.79339E+03  1.58145E+04  4.80440E+04 -3.36646E+04  4.75915E+04 -6.81507E+04 -9.32934E+01
 -5.45298E+04 -5.72906E+04 -7.51302E+03 -7.84142E+04  3.44904E+04 -5.57704E+04  4.91736E+04 -1.75553E+04
  4.46842E+04  1.12271E+04  3.25753E+04  2.62890E+04  1.59037E+04  3.05233E+04 -6.04230E+03  2.72955E+04
 -2.22460E+04  1.30158E+04 -1.82098E+04 -5.16530E+03  6.69238E+03 -7.20507E+03  2.25511E+04  1.29486E+04
  7.17927E+03  3.62995E+04 -3.28826E+04  3.60959E+04 -6.47893E+04  2.14703E+03 -5.82243E+04 -4.31930E+04
 -1.22692E+04 -6.52859E+04  4.05556E+04 -4.68590E+04  5.91898E+04 -2.40027E+03  3.56010E+04  3.24294E+04
 -6.06051E+03  3.78436E+04 -3.11459E+04  1.72346E+04 -3.21029E+04 -3.86429E+03 -1.79280E+04 -1.14240E+04
 -9.13053E+03 -1.39029E+04 -3.91398E+02 -1.91303E+04  7.42733E+03 -2.27902E+04  1.54867E+04 -1.30126E+04
  1.07400E+04  5.89296E+03 -9.90712E+03  1.26878E+04 -2.19581E+04 -5.93957E+03 -8.39371E+03 -3.53530E+04
  2.35726E+04 -4.48950E+04  5.00875E+04 -2.03359E+04  4.69354E+04  2.05139E+04  1.68748E+04  4.56304E+04
 -1.62898E+04  3.45252E+04 -2.65848E+04  2.32260E+03 -1.11768E+04 -2.82604E+04  2.12107E+04 -3.55053E+04
  4.31633E+04 -1.02978E+04  3.82000E+04  2.41391E+04  1.99054E+04  4.90309E+04 -8.21515E+03  5.32486E+04
 -3.37046E+04  3.63251E+04 -4.45816E+04  1.05129E+04 -4.52668E+04 -1.74427E+04 -2.46507E+04 -4.01567E+04
  7.50158E+03 -4.02703E+04  3.27657E+04 -1.61846E+04  3.08479E+04  1.05626E+04  4.10241E+03  1.97102E+04
 -1.38403E+04  8.98506E+03 -1.10145E+04 -7.61333E+03  5.82740E+03 -1.13594E+04  1.78676E+04  5.79147E+03
  1.45959E+04  2.21257E+04 -5.82238E+03  2.62437E+04 -2.26969E+04  1.30765E+04 -2.93698E+04 -3.79649E+03
 -2.32006E+04 -1.81865E+04 -1.06202E+04 -2.34375E+04  4.37320E+03 -2.25563E+04  1.76736E+04 -2.05845E+04
  2.90052E+04 -1.41006E+04  3.44690E+04  3.50848E+03  2.58093E+04  2.16820E+04  4.61807E+03  3.86883E+04
 -1.85977E+04  3.16355E+04 -2.92347E+04  1.10627E+04 -2.17590E+04 -1.05015E+04 -4.69007E+03 -1.37676E+04
  1.02576E+03 -2.30805E+03 -5.73867E+03  7.11226E+03 -1.83617E+04  4.78896E+03 -1.86016E+04 -8.37101E+03
 -1.05562E+04 -2.07595E+04  5.33572E+03 -2.52186E+04  1.70447E+04 -1.82161E+04  1.96799E+04 -1.67994E+03
  1.23032E+04  1.49291E+04 -1.10389E+03  2.09961E+04 -1.45398E+04  1.17160E+04 -2.15398E+04 -3.78886E+03
 -1.58252E+04 -1.85136E+04 -2.36469E+03 -2.57929E+04  1.09883E+04 -2.05412E+04  2.10816E+04 -1.08157E+04
  1.94503E+04  7.93445E+02  1.39184E+04  5.55205E+03  7.05064E+03  1.06146E+03  1.01530E+04 -1.58612E+03
  1.99413E+04  2.20259E+03  2.25506E+04  1.64639E+04  1.54022E+04  3.25241E+04 -3.03031E+03  3.82226E+04
 -2.27617E+04  3.12140E+04 -3.60651E+04  1.61023E+04 -3.78606E+04 -2.13733E+03 -3.11085E+04 -2.22597E+04
 -1.30285E+04 -3.16519E+04  1.13306E+04 -2.82646E+04  2.42934E+04 -1.41105E+04  2.04289E+04  6.46580E+03
  7.22522E+03  1.53265E+04 -1.04623E+04  1.32268E+04 -1.82407E+04  2.21240E+03 -1.37235E+04 -1.09230E+04
 -5.89653E+02 -1.74227E+04  9.92938E+03 -1.25272E+04  1.10266E+04 -8.96792E+02  2.06625E+03  7.23112E+03
 -7.88840E+03  3.43132E+03 -7.37558E+03 -5.74880E+03 -1.04444E+03 -1.56330E+04  1.01592E+04 -1.64171E+04
  1.87216E+04 -9.04143E+03  2.13714E+04  2.51001E+03  1.76666E+04  1.56077E+04  8.85562E+03  2.42346E+04
 -4.42500E+03  2.55559E+04 -1.69414E+04  1.57156E+04 -1.90605E+04  3.45387E+03 -1.28822E+04 -4.04472E+03
 -5.02956E+03 -6.30687E+03 -1.82552E+02  9.15995E+02 -2.47150E+03  3.03137E+03 -5.29543E+03  5.12174E+03
 -1.17079E+04 -6.60237E+02 -1.26384E+04 -1.04113E+04 -5.10832E+03 -1.69179E+04  5.30744E+03 -1.35078E+04
  1.01176E+04 -5.87280E+03  7.41754E+03  3.27359E+03  3.30854E+02  5.16117E+03 -6.46826E+03  2.83212E+02
 -6.03070E+03 -8.07374E+03 -6.36636E+02 -1.18495E+04  7.39789E+03 -1.33356E+04  1.62568E+04 -7.16866E+03
  1.91050E+04  2.63248E+03  1.40813E+04  1.12341E+04  2.63466E+03  1.52705E+04 -8.56816E+03  1.28150E+04
 -1.08681E+04  3.36569E+03 -5.24562E+03 -2.26881E+03  1.55218E+03 -3.74011E+03  7.47505E+03 -1.25710E+03
  5.42312E+03  5.51800E+03  6.32748E+02  9.86479E+03 -7.47450E+03  9.40806E+03 -1.25184E+04  2.60270E+03
 -8.41397E+03 -6.71922E+03  6.60095E+02 -1.12954E+04  6.58240E+03 -5.44794E+03  6.39921E+03  1.41609E+03
  1.53684E+03  7.41405E+03 -6.70334E+03  8.69345E+03 -1.03267E+04  4.71014E+03 -1.05114E+04 -3.27338E+03
 -6.44172E+03 -1.14120E+04  3.10574E+03 -1.38880E+04  1.17211E+04 -7.99645E+03  1.25735E+04  2.69058E+03
  7.73451E+03  1.06179E+04 -7.59684E+02  1.23274E+04 -9.50167E+03  6.62156E+03 -9.36788E+03 -1.17934E+03
 -8.44076E+03 -7.33804E+03 -1.31339E+03 -8.45180E+03  4.41119E+03 -7.46671E+03  5.58467E+03 -2.42988E+03
  3.82286E+03  1.15746E+03 -8.09766E+02  1.35474E+03  1.60143E+02 -1.85424E+03  1.68642E+03 -4.72174E+03
  7.33094E+03 -2.95822E+03  1.12329E+04  2.24915E+03  1.17999E+04  7.89633E+03  7.99281E+03  1.46303E+04
 -3.64676E+03  1.79835E+04 -1.46047E+04  1.30727E+04 -1.93099E+04  2.30145E+03 -1.55099E+04 -6.98306E+03
 -7.73309E+03 -1.21899E+04 -1.20367E+03 -1.02953E+04  3.62697E+03 -6.02201E+03  3.04200E+03 -4.47183E+03
  2.79891E+03 -2.53178E+03  3.11988E+03 -3.11300E+03  4.78053E+03 -2.40114E+03  6.06945E+03  2.82719E+02
  7.42738E+03  1.65692E+03  4.26950E+03  6.80352E+03 -1.43595E+03  7.73074E+03 -8.35260E+03  6.17889E+03
 -9.84279E+03 -1.16734E+03 -6.45717E+03 -7.13080E+03 -4.65426E+02 -1.07189E+04  5.53377E+03 -1.12696E+04
  1.12265E+04 -5.84329E+03  1.34427E+04  1.56054E+03  9.77958E+03  9.28519E+03  1.86745E+03  1.25379E+04
 -4.05803E+03  1.04620E+04 -7.09932E+03  3.91060E+03 -4.35331E+03 -1.12978E+03 -1.58263E+03 -1.65231E+03
 -3.57776E+02  2.34790E+01 -2.20641E+03  2.61741E+03 -4.01219E+03  1.82038E+03 -7.41199E+03 -1.45461E+03
 -4.64315E+03 -7.17598E+03 -2.49701E+02 -9.60528E+03  6.36558E+03 -8.85473E+03  9.41878E+03 -2.70281E+03
  1.02086E+04  4.58805E+03  4.31196E+03  9.21795E+03 -2.13964E+03  1.01502E+04 -6.38311E+03  6.62908E+03
 -8.99669E+03  5.50762E+02 -7.24431E+03 -6.01253E+03 -7.29469E+02 -7.42121E+03  4.24056E+03 -6.08248E+03
  5.79253E+03 -2.18885E+03  4.04209E+03  1.72826E+03  1.81300E+03  3.18041E+03  1.41601E+03  1.04793E+03
  1.99868E+03  1.09907E+02  2.62610E+03  2.04725E+03  2.93313E+03  3.76310E+03  2.55397E+03  5.01730E+03
 -1.94183E+03  7.37620E+03 -6.79707E+03  8.30726E+03 -9.33359E+03  2.43537E+03 -9.65618E+03 -2.99253E+03
 -5.08814E+03 -9.19406E+03  1.07506E+03 -1.09271E+04  5.42710E+03 -6.03457E+03  7.65818E+03 -1.94057E+03
  5.40741E+03  4.06480E+03  1.44898E+03  5.66951E+03 -2.17455E+03  3.62970E+03 -3.99700E+03 -5.40390E+02
 -2.49267E+03 -3.95012E+03  2.56389E+03 -4.19756E+03  3.35265E+03 -1.97471E+03  3.15122E+03  2.60490E+02
  2.12784E+03  1.16100E+03  1.15979E+03  7.69457E+02 -1.80691E+02  1.55181E+03  1.97155E+03 -9.29942E+02
  1.28267E+03 -2.65597E+02  4.51056E+03  1.53301E+03  2.21984E+03  4.92508E+03 -5.69408E+02  6.71435E+03
 -4.68203E+03  3.94003E+03 -5.69929E+03  1.17441E+03 -4.95556E+03 -1.54925E+03 -1.18655E+03 -3.53144E+03
  3.27827E+02 -3.09205E+03  2.40659E+03 -1.36204E+03  1.35695E+03  2.22319E+03 -1.10433E+03  2.26754E+03
 -3.65347E+03  2.29711E+03 -4.21776E+03 -2.99245E+03 -2.23809E+03 -4.84317E+03  8.06519E+02 -5.20005E+03
  3.11465E+03 -2.85774E+03  2.83901E+03 -3.20764E+02  3.84549E+03  5.28467E+02  5.73970E+02  2.07918E+03
 -1.55214E+03  1.63176E+03 -2.55594E+03 -1.83909E+03  9.48654E+02 -2.89341E+03  4.23802E+03 -3.26597E+03
  5.73748E+03  1.43125E+02  6.07476E+03  3.19665E+03  2.14136E+03  5.26605E+03 -1.81710E+03  5.48858E+03
 -4.77840E+03  2.05969E+03 -4.29873E+03 -1.26375E+03 -2.81752E+03 -3.90371E+03  1.68107E+03 -2.79984E+03
  3.82007E+03 -1.65905E+03  3.83671E+03  1.46354E+03  5.81007E+02  2.49297E+03 -5.88517E+02  2.05849E+03
 -1.01003E+03  2.53328E+03 -1.48820E+03  3.67796E+02 -3.67077E+02  8.40150E+02 -4.85371E+02  1.01614E+03
 -1.36502E+03  1.74277E+03 -4.04745E+03  2.09527E+03 -5.09118E+03  1.40020E+02 -6.24373E+03 -3.34065E+03
 -2.14067E+03 -7.40908E+03  1.61205E+03 -8.43454E+03  4.52898E+03 -6.43812E+03  8.49262E+03 -2.44445E+03
  7.48936E+03  6.77736E+02  4.87048E+03  4.83751E+03 -2.87578E+01  5.55659E+03 -1.63541E+03  3.86200E+03
 -2.83598E+03  2.00043E+03 -2.00748E+03 -9.94138E+02 -5.61445E+02 -7.24754E+01 -9.49614E+02 -5.49387E+02
 -1.48858E+03  8.38601E+02 -6.69300E+02  6.45562E+01 -3.74832E+02 -1.39835E+03  2.29450E+02 -1.82935E+03
  2.79969E+03 -1.76026E+03  3.75368E+03  5.26548E+02  4.35494E+03  2.33157E+03  3.79828E+02  4.33144E+03
 -2.45193E+03  6.09581E+03 -5.27625E+03  3.10604E+03 -6.39614E+03 -4.84361E+02 -4.42459E+03 -4.23438E+03
 -2.27529E+03 -4.78543E+03  1.14771E+03 -4.36148E+03  3.24551E+03 -2.33870E+03  2.88531E+03 -7.22876E+00
  1.46538E+03  1.41075E+03 -2.45521E+02  1.36083E+03 -1.21577E+03  2.57296E+02 -4.45020E+02 -1.50182E+03
  1.40375E+03 -8.37547E+02  1.63820E+03  6.88381E+02  1.29218E+03  1.17756E+03  3.29321E+02  2.42317E+03
 -2.56736E+03  2.08216E+03 -3.22471E+03  3.14912E+02 -3.30114E+03 -2.18816E+03  9.46826E+01 -4.07540E+03
  2.48205E+03 -3.86311E+03  3.88342E+03 -1.32746E+03  3.76208E+03  3.54623E+02  2.42240E+03  3.26590E+03
  9.03517E+02  2.59667E+03 -1.50682E+03  2.24487E+03 -1.30621E+03  1.88235E+03 -1.28672E+03  1.13907E+02
 -9.94902E+02 -7.60089E+02 -8.51105E+02  2.00823E+02 -2.10680E+03  3.81960E+02 -2.20401E+03 -8.96216E+02
 -3.38035E+03 -1.46468E+03 -1.33612E+03 -2.80449E+03  1.50606E+03 -3.53372E+03  2.53403E+03 -1.14395E+03
  2.24055E+03  2.04731E+02  1.06513E+03  1.57931E+03  2.95581E+02  3.51887E+03 -2.09578E+03  2.23642E+03
