 $NMID ID='MM_0lb_SNR400_14hz_g55_84.RAW', FMTDAT='(8E13.5)'
 TRAMP=1., VOLUME=1. $END
  3.09519E+05  3.31245E+02  3.37726E+05  2.50859E+05  8.43406E+04  3.38708E+05 -1.33014E+05  2.51634E+05
 -1.90291E+05  8.32460E+04 -1.12062E+05 -3.25531E+04  1.48804E+03 -5.06485E+04  5.37270E+04 -5.37392E+02
  3.54390E+04  5.36262E+04 -1.70276E+04  7.56337E+04 -6.08963E+04  6.34137E+04 -8.43562E+04  3.24152E+04
 -8.11229E+04 -1.11972E+04 -5.80900E+04 -5.17218E+04 -1.44730E+04 -6.97260E+04  2.75963E+04 -4.61787E+04
  3.96729E+04  3.58083E+03  1.60750E+04  4.77429E+04 -3.47179E+04  4.79036E+04 -6.68776E+04 -1.80535E+02
 -5.39645E+04 -5.75698E+04 -6.70296E+03 -7.70637E+04  3.39309E+04 -5.62785E+04  4.78581E+04 -1.79825E+04
  4.42392E+04  1.08721E+04  3.21791E+04  2.53962E+04  1.62411E+04  2.93717E+04 -5.02421E+03  2.79947E+04
 -2.16109E+04  1.18366E+04 -1.87738E+04 -5.32249E+03  6.49728E+03 -7.19858E+03  2.27714E+04  1.23007E+04
  6.90943E+03  3.54431E+04 -3.24801E+04  3.63820E+04 -6.39534E+04  2.30038E+03 -5.77265E+04 -4.28864E+04
 -1.25291E+04 -6.40848E+04  3.96803E+04 -4.59509E+04  5.87358E+04 -2.80648E+03  3.46781E+04  3.25758E+04
 -6.14163E+03  3.71279E+04 -3.03677E+04  1.66509E+04 -3.15301E+04 -4.89659E+03 -1.72904E+04 -1.09339E+04
 -8.48105E+03 -1.31282E+04 -8.44910E+02 -1.88510E+04  7.33412E+03 -2.27552E+04  1.58764E+04 -1.30248E+04
  1.10384E+04  5.53192E+03 -8.44791E+03  1.26684E+04 -2.19579E+04 -4.78477E+03 -8.64663E+03 -3.47022E+04
  2.35228E+04 -4.34655E+04  4.86112E+04 -1.97802E+04  4.53815E+04  2.00574E+04  1.55152E+04  4.45501E+04
 -1.52571E+04  3.39511E+04 -2.60879E+04  1.71697E+03 -9.98672E+03 -2.82148E+04  2.07217E+04 -3.40874E+04
  4.19157E+04 -9.82586E+03  3.62996E+04  2.42924E+04  1.88852E+04  4.74851E+04 -7.91713E+03  5.09145E+04
 -3.11464E+04  3.40897E+04 -4.35209E+04  9.85602E+03 -4.29253E+04 -1.70339E+04 -2.39380E+04 -3.84781E+04
  7.22195E+03 -3.80776E+04  3.20631E+04 -1.48739E+04  3.01713E+04  1.08418E+04  4.11435E+03  1.89164E+04
 -1.36522E+04  8.42638E+03 -1.05003E+04 -7.64447E+03  6.19925E+03 -1.08855E+04  1.76943E+04  5.79804E+03
  1.37493E+04  2.25737E+04 -4.67354E+03  2.54855E+04 -2.27713E+04  1.17322E+04 -2.91398E+04 -4.96418E+03
 -2.07876E+04 -1.74539E+04 -8.99866E+03 -2.12763E+04  4.02927E+03 -2.03447E+04  1.59648E+04 -1.95667E+04
  2.71409E+04 -1.32091E+04  3.30468E+04  3.11059E+03  2.43980E+04  2.06181E+04  4.46504E+03  3.68729E+04
 -1.80915E+04  3.06194E+04 -2.85395E+04  1.06407E+04 -2.14793E+04 -1.02836E+04 -3.86826E+03 -1.35038E+04
  9.19205E+02 -2.76829E+03 -4.99397E+03  7.18935E+03 -1.69843E+04  5.67489E+03 -1.69807E+04 -7.78457E+03
 -1.01230E+04 -1.94189E+04  5.37908E+03 -2.39761E+04  1.61784E+04 -1.70933E+04  1.90324E+04 -1.37553E+03
  1.23034E+04  1.32637E+04 -1.16886E+03  1.94900E+04 -1.37927E+04  1.18397E+04 -1.96616E+04 -4.04204E+03
 -1.38490E+04 -1.75761E+04 -2.54119E+03 -2.37676E+04  1.03852E+04 -1.93326E+04  1.99928E+04 -9.51254E+03
  1.89402E+04 -2.70684E+02  1.33031E+04  4.30331E+03  7.24561E+03  2.40160E+02  1.02924E+04 -2.08450E+03
  1.75228E+04  2.79837E+03  2.03005E+04  1.48766E+04  1.37982E+04  3.03888E+04 -2.69062E+03  3.56076E+04
 -2.06131E+04  2.88076E+04 -3.28557E+04  1.40652E+04 -3.43702E+04 -2.43145E+03 -2.86928E+04 -2.02236E+04
 -1.23374E+04 -2.96926E+04  9.41653E+03 -2.58864E+04  2.23649E+04 -1.28975E+04  2.00477E+04  6.07587E+03
  7.35258E+03  1.51088E+04 -9.91506E+03  1.34199E+04 -1.63943E+04  2.46951E+03 -1.24025E+04 -1.02718E+04
 -3.44807E+02 -1.63236E+04  7.73765E+03 -1.17489E+04  1.06688E+04 -1.13140E+03  2.71629E+03  6.69331E+03
 -6.83743E+03  2.88480E+03 -5.49216E+03 -5.78186E+03 -3.31530E+02 -1.38878E+04  9.46817E+03 -1.42571E+04
  1.67955E+04 -7.91203E+03  1.86715E+04  3.36933E+03  1.68399E+04  1.39007E+04  7.69940E+03  2.13714E+04
 -3.48450E+03  2.36552E+04 -1.44918E+04  1.40339E+04 -1.72317E+04  2.91494E+03 -1.13401E+04 -3.82812E+03
 -4.93299E+03 -5.49013E+03 -8.09628E+02  4.86951E+02 -1.98579E+03  2.85530E+03 -5.86250E+03  5.00072E+03
 -1.12250E+04 -3.09643E+02 -1.18916E+04 -9.12034E+03 -4.81712E+03 -1.55960E+04  4.48657E+03 -1.17123E+04
  1.00967E+04 -5.73255E+03  6.69752E+03  3.37025E+03  1.98973E+02  4.79562E+03 -5.38193E+03  1.47306E+02
 -5.16857E+03 -7.54977E+03 -5.30378E+02 -1.03247E+04  6.40561E+03 -1.11163E+04  1.45889E+04 -6.76882E+03
  1.70904E+04  1.72079E+03  1.26389E+04  9.91048E+03  2.91342E+03  1.32196E+04 -7.38461E+03  1.16334E+04
 -9.51350E+03  4.01482E+03 -5.09617E+03 -1.99467E+03  2.32080E+03 -3.30391E+03  6.38950E+03 -1.24324E+03
  5.11346E+03  5.50655E+03  5.82945E+02  9.03764E+03 -6.57270E+03  8.68562E+03 -1.15827E+04  1.92181E+03
 -7.83383E+03 -6.07099E+03 -1.47352E+02 -9.76626E+03  5.80877E+03 -4.94266E+03  5.76883E+03  1.69895E+03
  1.12075E+03  6.09603E+03 -5.72357E+03  7.39418E+03 -8.92851E+03  3.56664E+03 -8.78528E+03 -2.15570E+03
 -4.84503E+03 -1.01517E+04  2.42114E+03 -1.20686E+04  9.84595E+03 -7.92320E+03  1.03129E+04  2.24227E+03
  6.89885E+03  8.48270E+03 -2.62509E+02  1.15096E+04 -7.58513E+03  6.08418E+03 -8.07142E+03 -5.63116E+02
 -7.71866E+03 -7.26300E+03 -1.60934E+03 -7.66236E+03  4.39658E+03 -6.86777E+03  5.01862E+03 -2.97255E+03
  4.21624E+03  1.49234E+03 -4.82506E+02  1.92648E+03 -1.69744E+02 -1.51451E+03  7.64570E+02 -4.26632E+03
  6.69445E+03 -2.62999E+03  9.55209E+03  1.19853E+03  9.99515E+03  6.89508E+03  7.75341E+03  1.21523E+04
 -2.99824E+03  1.48449E+04 -1.28394E+04  1.15963E+04 -1.65015E+04  1.97044E+03 -1.36214E+04 -5.12032E+03
 -7.38043E+03 -1.09089E+04 -3.54383E+02 -9.60772E+03  3.21090E+03 -4.72762E+03  3.26015E+03 -3.67076E+03
  2.79504E+03 -2.04903E+03  3.31180E+03 -2.89311E+03  4.30347E+03 -2.04469E+03  5.49104E+03  3.51210E+01
  7.32437E+03  1.79554E+03  2.70545E+03  5.44675E+03 -2.24549E+03  6.81783E+03 -7.48842E+03  4.74048E+03
 -8.41569E+03 -1.48362E+03 -4.77965E+03 -6.52392E+03 -5.71645E+02 -9.42491E+03  5.30411E+03 -9.88497E+03
  9.60619E+03 -5.26792E+03  1.17118E+04  7.96702E+02  8.65543E+03  7.93382E+03  1.78432E+03  1.07326E+04
 -4.46687E+03  9.60835E+03 -6.68054E+03  2.70363E+03 -3.80604E+03 -1.05223E+03 -1.55234E+03 -1.41075E+03
 -1.26236E+03 -5.55567E+02 -1.51280E+03  2.93521E+03 -3.59560E+03  1.69259E+03 -6.22116E+03 -1.21940E+03
 -3.68059E+03 -6.81360E+03  4.35071E+02 -8.10880E+03  5.71694E+03 -7.95014E+03  7.74193E+03 -2.21913E+03
  7.58993E+03  4.87426E+03  3.23553E+03  7.05717E+03 -1.74462E+03  8.63489E+03 -5.48769E+03  5.41569E+03
 -7.97668E+03  2.73003E+02 -5.78929E+03 -4.96065E+03 -4.33019E+02 -6.19692E+03  3.19813E+03 -4.85965E+03
  5.56195E+03 -1.59847E+03  3.25413E+03  7.16924E+02  1.38170E+03  2.86951E+03  8.40234E+02  1.43955E+03
  2.28473E+03  2.21370E+02  1.90959E+03  1.66445E+03  2.21222E+03  3.09934E+03  2.28043E+03  3.86142E+03
 -2.26062E+03  6.36837E+03 -4.86749E+03  7.06208E+03 -7.73642E+03  1.75572E+03 -8.99679E+03 -2.57877E+03
 -3.73290E+03 -8.05256E+03  8.30482E+02 -9.08814E+03  4.41255E+03 -5.41649E+03  6.65366E+03 -1.06139E+03
  5.37665E+03  3.11971E+03  1.80666E+03  4.94919E+03 -1.83836E+03  2.43349E+03 -3.03269E+03 -3.85216E+02
 -1.35768E+03 -3.37284E+03  1.63516E+03 -3.19803E+03  2.80130E+03 -1.52044E+03  2.87044E+03  6.21846E+02
  2.17837E+03  9.80500E+02  1.14009E+03  6.89591E+02 -3.66122E+02  9.88900E+02  1.63015E+03 -1.03991E+02
  5.08240E+02 -3.06875E+02  3.37250E+03  1.40399E+03  1.50048E+03  4.50884E+03 -9.73623E+02  5.88365E+03
 -2.73590E+03  3.83477E+03 -4.91805E+03  6.96787E+02 -4.44515E+03 -1.44983E+03 -8.97294E+02 -2.97316E+03
  1.27417E+03 -3.14854E+03  1.84026E+03 -1.44574E+03  1.07824E+03  1.38564E+03 -1.01500E+03  2.37728E+03
 -3.30941E+03  1.27290E+03 -2.91377E+03 -2.04414E+03 -2.62956E+03 -3.99934E+03  3.52147E+02 -3.51131E+03
  2.39181E+03 -1.88214E+03  2.85710E+03 -4.62916E+02  2.69078E+03  1.08831E+03  6.30390E+02  1.81648E+03
 -1.35026E+03  7.30543E+02 -1.43620E+03 -1.25225E+03  1.06735E+03 -2.77813E+03  3.34743E+03 -2.24819E+03
  3.58210E+03  1.73963E+02  4.66269E+03  2.74417E+03  1.72620E+03  4.55141E+03 -1.47787E+03  4.33487E+03
 -4.22119E+03  1.58272E+03 -3.55318E+03 -1.71256E+02 -2.02771E+03 -2.57850E+03  8.83374E+02 -2.14263E+03
  3.65277E+03 -6.50721E+02  1.93732E+03  1.58673E+03  8.14436E+02  2.61426E+03 -2.49197E+02  2.05504E+03
 -1.00540E+03  1.85114E+03 -1.15610E+03  4.21589E+02 -1.45590E+02  8.37893E+02 -7.05721E+02  1.25428E+03
 -1.00285E+03  2.35093E+03 -4.00884E+03  1.14297E+03 -4.31083E+03  1.85361E+02 -5.36098E+03 -2.64169E+03
 -3.37215E+03 -6.12989E+03  1.45740E+03 -7.05617E+03  3.16316E+03 -5.26163E+03  6.52552E+03 -2.08820E+03
  6.55467E+03  8.30921E+02  3.36259E+03  3.29155E+03  1.89896E+01  4.38136E+03 -1.28973E+03  3.54699E+03
 -2.46416E+03  9.53626E+02 -1.31254E+03 -4.68008E+02 -7.42983E+02 -1.77417E+02 -1.06003E+03 -3.02838E+02
 -8.50322E+02 -1.98814E+02 -7.22647E+02  7.99262E+02  4.37113E+02 -8.25751E+02 -5.16386E+02 -1.31399E+03
  2.39547E+03 -9.47546E+02  2.35515E+03  6.03103E+02  3.23555E+03  2.14387E+03  1.84475E+02  3.55289E+03
 -1.87560E+03  4.43008E+03 -3.69106E+03  2.49815E+03 -5.72644E+03 -7.99705E+02 -3.18492E+03 -2.67628E+03
 -1.32848E+03 -3.76097E+03  1.05603E+03 -3.77696E+03  2.02688E+03 -1.54766E+03  2.95098E+03  2.84225E+02
  2.18033E+03  1.78146E+03 -3.58526E+02  1.26025E+03 -4.80541E+02  3.34533E+02 -3.24916E+02 -4.32711E+02
  1.38941E+03 -3.23557E+02  1.57200E+03  1.63305E+02  1.19329E+03  1.80331E+03  7.33398E+02  1.28424E+03
 -1.50809E+03  1.93675E+03 -2.63457E+03  4.61023E+02 -2.35558E+03 -2.00519E+03 -5.07885E+02 -2.82806E+03
  2.09553E+03 -2.11992E+03  1.82740E+03 -4.83743E+02  2.63312E+03  3.60416E+01  1.35462E+03  2.56111E+03
  5.32454E+02  2.53645E+03 -6.54368E+02  1.95273E+03 -1.83292E+03  1.37321E+03 -1.18921E+03  2.75873E+02
 -3.59753E+02  2.92554E+01 -8.26877E+02  2.80301E+02 -1.68941E+03  3.08043E+02 -2.06853E+03 -1.26542E+03
 -2.89549E+03 -9.17350E+02 -7.66528E+02 -2.35104E+03  1.33916E+03 -2.99968E+03  2.01119E+03 -8.01962E+02
  2.52312E+03  3.38115E+01  7.96577E+02  1.05509E+03 -1.11612E+02  3.09956E+03 -1.48736E+03  1.90718E+03
