 $NMID ID='MM_0lb_SNR400_14hz_g50_2.RAW', FMTDAT='(8E13.5)'
 TRAMP=1., VOLUME=1. $END
  3.09779E+05  4.19247E+02  3.37696E+05  2.50060E+05  8.44931E+04  3.37841E+05 -1.32673E+05  2.50772E+05
 -1.90741E+05  8.35166E+04 -1.11915E+05 -3.27195E+04  1.47345E+03 -5.07222E+04  5.41563E+04  1.80407E+01
  3.57334E+04  5.36255E+04 -1.73678E+04  7.58190E+04 -6.06459E+04  6.30138E+04 -8.44749E+04  3.29136E+04
 -8.07860E+04 -1.13228E+04 -5.73446E+04 -5.17656E+04 -1.52735E+04 -6.97052E+04  2.79596E+04 -4.57025E+04
  4.01105E+04  3.55702E+03  1.59049E+04  4.76582E+04 -3.44082E+04  4.66369E+04 -6.66435E+04 -3.63699E+02
 -5.34924E+04 -5.71400E+04 -6.82663E+03 -7.67264E+04  3.45054E+04 -5.50632E+04  4.85002E+04 -1.74869E+04
  4.34628E+04  1.09183E+04  3.19065E+04  2.55070E+04  1.59013E+04  2.90603E+04 -5.32123E+03  2.76838E+04
 -2.23941E+04  1.24746E+04 -1.86580E+04 -4.33539E+03  5.41854E+03 -7.70325E+03  2.23084E+04  1.27158E+04
  7.60205E+03  3.50193E+04 -3.28957E+04  3.49601E+04 -6.35534E+04  2.16465E+03 -5.66184E+04 -4.29556E+04
 -1.22540E+04 -6.33804E+04  3.94832E+04 -4.55526E+04  5.82961E+04 -2.02348E+03  3.40972E+04  3.23667E+04
 -6.57805E+03  3.66484E+04 -3.01422E+04  1.57617E+04 -3.07042E+04 -4.56087E+03 -1.72523E+04 -1.08686E+04
 -8.02696E+03 -1.33310E+04 -5.74245E+02 -1.74711E+04  7.59927E+03 -2.24188E+04  1.57008E+04 -1.32060E+04
  1.15609E+04  4.90464E+03 -8.57667E+03  1.28419E+04 -2.12571E+04 -3.95782E+03 -8.05901E+03 -3.39778E+04
  2.23493E+04 -4.36690E+04  4.86732E+04 -1.99259E+04  4.55803E+04  1.93821E+04  1.52649E+04  4.42726E+04
 -1.56677E+04  3.31352E+04 -2.55196E+04  1.73944E+03 -9.63244E+03 -2.85224E+04  2.14036E+04 -3.39415E+04
  4.06752E+04 -8.89017E+03  3.62932E+04  2.40368E+04  1.80393E+04  4.58565E+04 -8.27654E+03  5.02308E+04
 -3.17624E+04  3.36656E+04 -4.21728E+04  9.57264E+03 -4.21848E+04 -1.68795E+04 -2.34892E+04 -3.81708E+04
  7.48077E+03 -3.78414E+04  3.15735E+04 -1.47306E+04  2.94459E+04  1.06845E+04  3.79773E+03  1.97549E+04
 -1.38708E+04  8.10935E+03 -1.06846E+04 -7.76958E+03  6.14794E+03 -1.08291E+04  1.83176E+04  6.58344E+03
  1.30848E+04  2.17512E+04 -5.65195E+03  2.47567E+04 -2.28586E+04  1.20032E+04 -2.85770E+04 -4.60468E+03
 -1.97624E+04 -1.73315E+04 -8.67394E+03 -2.04200E+04  3.94313E+03 -1.95028E+04  1.53219E+04 -1.80719E+04
  2.63949E+04 -1.33368E+04  3.29290E+04  3.04194E+03  2.35095E+04  2.01944E+04  4.31075E+03  3.68118E+04
 -1.78744E+04  3.06194E+04 -2.76355E+04  1.07203E+04 -2.08363E+04 -1.00264E+04 -4.41155E+03 -1.38765E+04
  1.50520E+03 -2.59350E+03 -4.23131E+03  6.34559E+03 -1.64107E+04  4.96898E+03 -1.62621E+04 -7.28146E+03
 -9.89921E+03 -1.97133E+04  5.30564E+03 -2.31210E+04  1.53663E+04 -1.67950E+04  1.78791E+04 -1.36739E+03
  1.14535E+04  1.29517E+04 -9.23556E+02  1.92939E+04 -1.31400E+04  1.09243E+04 -1.89562E+04 -3.75880E+03
 -1.37252E+04 -1.75658E+04 -1.59463E+03 -2.32860E+04  1.05654E+04 -1.87694E+04  1.91029E+04 -9.51664E+03
  1.81941E+04  3.31426E+02  1.30849E+04  4.09204E+03  6.83492E+03  5.79473E+02  9.41930E+03 -2.06436E+03
  1.79867E+04  2.55494E+03  1.96951E+04  1.51250E+04  1.32443E+04  3.05245E+04 -3.26386E+03  3.41054E+04
 -1.93414E+04  2.77915E+04 -3.21193E+04  1.33128E+04 -3.32507E+04 -2.46573E+03 -2.73676E+04 -1.90409E+04
 -1.19745E+04 -2.82311E+04  9.73904E+03 -2.48651E+04  2.17211E+04 -1.25723E+04  1.93900E+04  5.48490E+03
  7.45851E+03  1.39857E+04 -8.37635E+03  1.29004E+04 -1.58214E+04  1.94199E+03 -1.22605E+04 -1.06418E+04
  2.51238E+02 -1.51412E+04  8.40349E+03 -1.17167E+04  1.02887E+04 -1.30103E+03  3.08601E+03  6.41881E+03
 -7.08521E+03  2.28012E+03 -6.06406E+03 -6.12970E+03 -8.04119E+02 -1.34424E+04  9.63437E+03 -1.44456E+04
  1.65045E+04 -8.29559E+03  1.83781E+04  2.81470E+03  1.58256E+04  1.35416E+04  7.42411E+03  2.03293E+04
 -3.25427E+03  2.17663E+04 -1.40456E+04  1.39836E+04 -1.57726E+04  3.46774E+03 -1.08067E+04 -2.86686E+03
 -5.14441E+03 -4.98973E+03 -3.33002E+02  1.08181E+03 -2.19406E+03  2.07581E+03 -4.56700E+03  4.28698E+03
 -1.04589E+04 -6.19949E+02 -1.11635E+04 -9.06939E+03 -4.56193E+03 -1.41703E+04  4.76932E+03 -1.18054E+04
  9.29560E+03 -4.51606E+03  7.04524E+03  2.91226E+03  3.68670E+02  3.57454E+03 -5.75679E+03 -3.91863E+02
 -4.80459E+03 -7.05554E+03 -7.89840E+02 -1.07046E+04  5.48700E+03 -1.15320E+04  1.39118E+04 -6.55195E+03
  1.63538E+04  8.32366E+02  1.28088E+04  9.84474E+03  2.10293E+03  1.31464E+04 -7.61159E+03  1.14042E+04
 -9.29704E+03  3.25227E+03 -4.51443E+03 -2.58712E+03  7.80918E+02 -3.17377E+03  5.92028E+03 -1.35757E+03
  5.73602E+03  5.28432E+03  1.16653E+03  8.58803E+03 -6.78938E+03  9.64478E+03 -1.12281E+04  2.01665E+03
 -7.32871E+03 -5.49098E+03  7.39070E+02 -9.35628E+03  5.14186E+03 -4.35517E+03  6.20297E+03  2.08648E+03
  1.27868E+03  6.37100E+03 -5.17096E+03  7.77984E+03 -9.00254E+03  3.49621E+03 -7.88531E+03 -2.44352E+03
 -5.28141E+03 -9.83591E+03  2.38703E+03 -1.09533E+04  1.02188E+04 -7.36042E+03  1.06892E+04  2.02082E+03
  7.14521E+03  8.06226E+03 -1.04981E+03  1.05640E+04 -7.38860E+03  5.63788E+03 -7.79693E+03 -9.13853E+02
 -8.32933E+03 -7.76545E+03 -8.78189E+02 -7.87463E+03  3.91164E+03 -6.73113E+03  5.15810E+03 -2.98021E+03
  2.94633E+03  3.13453E+01 -7.63351E+02  1.95622E+03  1.68810E+02 -1.21705E+03  1.38982E+03 -4.15696E+03
  6.33098E+03 -2.28481E+03  9.59734E+03  1.01956E+03  1.00460E+04  6.24570E+03  6.86706E+03  1.20646E+04
 -2.66251E+03  1.46697E+04 -1.24428E+04  1.10942E+04 -1.52555E+04  1.63386E+03 -1.23200E+04 -4.46895E+03
 -5.86456E+03 -1.02251E+04 -8.90675E+01 -8.18022E+03  3.21933E+03 -3.94520E+03  3.80078E+03 -3.74693E+03
  2.03780E+03 -1.91963E+03  2.57105E+03 -2.77394E+03  4.15667E+03 -1.96869E+03  5.41395E+03  3.21583E+02
  6.49721E+03  1.40270E+03  1.99450E+03  5.37127E+03 -1.61202E+03  6.58456E+03 -7.28995E+03  4.30034E+03
 -7.99174E+03 -1.64810E+03 -5.11756E+03 -6.21649E+03 -1.05813E+03 -9.12802E+03  5.46462E+03 -9.23553E+03
  9.23558E+03 -5.20934E+03  1.15588E+04  1.28593E+03  8.15872E+03  8.05146E+03  1.68398E+03  1.02673E+04
 -3.69749E+03  8.74785E+03 -5.66323E+03  3.36042E+03 -4.32765E+03 -1.36303E+03 -1.62449E+03 -1.02413E+03
 -1.78560E+02  5.25984E+02 -1.66221E+03  1.87747E+03 -3.80005E+03  1.29397E+03 -6.21978E+03 -3.15657E+02
 -3.23758E+03 -5.61879E+03  8.90356E+02 -7.96844E+03  4.79240E+03 -8.36152E+03  7.26096E+03 -2.38870E+03
  7.64382E+03  4.30636E+03  3.99323E+03  7.02799E+03 -1.69026E+03  7.94499E+03 -5.79594E+03  4.99071E+03
 -7.23267E+03  4.27440E+02 -5.73157E+03 -5.01085E+03 -3.94878E+02 -7.35259E+03  2.92210E+03 -4.92439E+03
  5.35490E+03 -1.57962E+03  3.28102E+03  1.33512E+03  1.19475E+03  2.53285E+03  1.10818E+03  1.11702E+03
  1.86087E+03  1.20693E+03  2.15204E+03  1.09052E+03  2.52197E+03  3.34134E+03  1.62738E+03  3.94358E+03
 -2.09807E+03  5.61292E+03 -5.46518E+03  6.40908E+03 -7.23494E+03  1.72339E+03 -8.03458E+03 -1.87108E+03
 -3.80628E+03 -7.36633E+03  1.09042E+03 -8.83907E+03  4.47269E+03 -5.66709E+03  5.66548E+03 -1.37109E+03
  4.74218E+03  3.11410E+03  8.72574E+02  4.90728E+03 -1.80307E+03  2.46586E+03 -2.92413E+03 -3.86697E+02
 -1.35763E+03 -2.76155E+03  1.82209E+03 -3.01871E+03  3.09914E+03 -1.38455E+03  3.72763E+03  7.58845E+02
  1.99341E+03  1.28590E+03  1.21765E+03  1.29394E+03 -2.65805E+02  1.03445E+03  1.44023E+03 -4.15471E+02
  9.80047E+01 -4.77996E+02  2.81289E+03  1.02622E+03  2.07368E+03  4.04964E+03 -8.14143E+02  5.75788E+03
 -3.78528E+03  2.79346E+03 -4.42367E+03  3.90536E+02 -3.68453E+03 -1.47533E+03 -4.96038E+02 -2.98153E+03
  8.23238E+02 -3.31942E+03  1.56278E+03 -1.14273E+03  1.42051E+03  2.39713E+03 -1.28952E+03  2.47785E+03
 -3.55879E+03  9.53234E+02 -2.36450E+03 -1.89106E+03 -1.76823E+03 -3.93679E+03  2.35059E+02 -3.79486E+03
  1.75653E+03 -1.56587E+03  2.97966E+03 -7.57883E+01  2.39728E+03  6.16180E+02  5.76452E+02  2.30916E+03
 -1.02748E+03  3.47950E+02 -1.73220E+03 -1.07056E+03  1.78636E+02 -2.72774E+03  3.46792E+03 -1.73448E+03
  3.55592E+03  7.01035E+02  4.72155E+03  2.53595E+03  1.52862E+03  3.83648E+03 -1.12409E+03  3.72358E+03
 -3.34911E+03  1.52155E+03 -3.50011E+03 -4.45282E+02 -1.65053E+03 -2.42940E+03  5.09281E+02 -2.15910E+03
  2.84577E+03 -1.95729E+03  1.88893E+03  6.54705E+02  3.92406E+02  2.65994E+03 -7.74387E+02  2.08240E+03
 -6.59213E+02  1.96155E+03 -1.26610E+03  7.11322E+01 -5.70352E+02  4.64965E+02 -1.19429E+03  1.04970E+03
 -9.29437E+02  2.06136E+03 -2.91043E+03  2.22241E+03 -4.49284E+03 -1.74549E+02 -5.22545E+03 -2.40174E+03
 -3.11507E+03 -5.41100E+03  1.45235E+03 -6.38570E+03  3.93696E+03 -4.74916E+03  5.70900E+03 -1.56453E+03
  5.54677E+03  6.25657E+02  3.27277E+03  3.96542E+03 -2.56435E+02  3.73880E+03 -1.50321E+03  3.91699E+03
 -2.36184E+03  1.14545E+03 -1.11696E+03 -5.91533E+02 -4.35135E+02 -2.06528E+02 -6.68432E+02  1.23161E+02
 -1.51506E+03 -5.89870E+02 -1.18659E+03 -4.28756E+02 -3.22800E+02 -7.48698E+02 -2.22208E+02 -1.61350E+03
  1.92555E+03 -1.62684E+03  1.93924E+03 -4.24440E+02  2.28565E+03  3.25609E+03  3.25345E+02  4.25751E+03
 -2.14822E+03  5.30279E+03 -4.25585E+03  2.10913E+03 -4.29057E+03 -4.42276E+02 -3.16049E+03 -1.98915E+03
 -1.34013E+03 -3.53829E+03  4.38912E+02 -3.52943E+03  1.93214E+03 -1.87546E+03  2.68940E+03  6.44390E+02
  1.19772E+03  6.52683E+02  2.75620E+02  1.05584E+03 -8.13339E+02  1.23813E+02 -9.23503E+01 -1.06885E+03
  9.70958E+02 -5.01932E+02  1.29604E+03  1.19956E+03  4.41575E+02  8.76287E+02  4.79370E+02  2.14340E+03
 -2.18702E+03  1.31529E+03 -1.91360E+03  5.75804E+02 -1.99715E+03 -1.42477E+03 -3.81522E+02 -3.28133E+03
  1.99483E+03 -2.47753E+03  2.45861E+03 -1.10895E+03  2.23394E+03  2.48110E+02  8.91366E+02  2.28480E+03
  4.97081E+02  1.65926E+03 -8.37417E+02  2.72606E+03 -1.16867E+03  9.88490E+02 -9.28983E+02  5.43703E+01
 -3.44838E+02 -6.14340E+02 -9.94666E+02  1.89517E+02 -1.66320E+03  8.20480E+02 -1.49967E+03 -4.45221E+02
 -1.89439E+03 -6.31857E+02 -2.31640E+02 -2.22611E+03  1.14370E+03 -3.26090E+03  2.26090E+03 -1.50331E+03
  2.07901E+03  6.27619E+01  6.68324E+02  1.27213E+03 -1.61824E+02  2.39713E+03 -1.47938E+03  1.33579E+03
