 $NMID ID='MM_0lb_SNR400_10hz_g45_20.RAW', FMTDAT='(8E13.5)'
 TRAMP=1., VOLUME=1. $END
  3.09894E+05 -9.14884E+02  3.37844E+05  2.50460E+05  8.52001E+04  3.37890E+05 -1.32338E+05  2.51795E+05
 -1.90440E+05  8.39737E+04 -1.12234E+05 -3.20328E+04  4.85657E+02 -5.05604E+04  5.37814E+04 -1.64875E+02
  3.53446E+04  5.30688E+04 -1.68857E+04  7.68589E+04 -6.13397E+04  6.37392E+04 -8.50051E+04  3.23476E+04
 -8.12575E+04 -1.15051E+04 -5.79616E+04 -5.25275E+04 -1.55765E+04 -7.01950E+04  2.80733E+04 -4.64618E+04
  4.10518E+04  3.95299E+03  1.57544E+04  4.83338E+04 -3.45985E+04  4.84498E+04 -6.73713E+04  3.35654E+02
 -5.42027E+04 -5.76321E+04 -7.73189E+03 -7.85501E+04  3.46764E+04 -5.59387E+04  4.95210E+04 -1.79695E+04
  4.42330E+04  1.08777E+04  3.24823E+04  2.57970E+04  1.58138E+04  3.05170E+04 -5.48180E+03  2.75509E+04
 -2.17306E+04  1.18370E+04 -1.85147E+04 -5.53431E+03  6.12808E+03 -7.32682E+03  2.32421E+04  1.31231E+04
  6.67588E+03  3.62537E+04 -3.30827E+04  3.68486E+04 -6.47120E+04  2.25039E+03 -5.79796E+04 -4.36847E+04
 -1.25149E+04 -6.45151E+04  4.11603E+04 -4.68377E+04  6.02999E+04 -2.54006E+03  3.51391E+04  3.39710E+04
 -5.59462E+03  3.81329E+04 -3.06537E+04  1.72671E+04 -3.27785E+04 -4.39603E+03 -1.90798E+04 -1.16909E+04
 -9.41617E+03 -1.49382E+04 -8.96593E+02 -1.89813E+04  8.31797E+03 -2.33009E+04  1.61091E+04 -1.27561E+04
  1.09890E+04  5.43413E+03 -9.75737E+03  1.31889E+04 -2.25913E+04 -6.26490E+03 -7.86538E+03 -3.65897E+04
  2.46876E+04 -4.55890E+04  5.13065E+04 -2.06495E+04  4.80085E+04  2.10184E+04  1.70515E+04  4.72165E+04
 -1.65950E+04  3.62633E+04 -2.71692E+04  1.87466E+03 -1.11728E+04 -2.86929E+04  2.08817E+04 -3.56961E+04
  4.41343E+04 -1.05233E+04  3.94258E+04  2.49985E+04  2.03492E+04  4.99685E+04 -8.26382E+03  5.47821E+04
 -3.39737E+04  3.70789E+04 -4.57702E+04  1.01038E+04 -4.60951E+04 -1.75034E+04 -2.57224E+04 -4.01120E+04
  6.98187E+03 -3.99664E+04  3.37362E+04 -1.59492E+04  3.10816E+04  1.13736E+04  4.99655E+03  1.97436E+04
 -1.30902E+04  9.09037E+03 -1.11461E+04 -6.81121E+03  5.18873E+03 -1.12541E+04  1.91734E+04  6.28687E+03
  1.40306E+04  2.32491E+04 -5.60390E+03  2.65695E+04 -2.31007E+04  1.32272E+04 -3.05331E+04 -3.63530E+03
 -2.42795E+04 -1.76208E+04 -1.10236E+04 -2.33991E+04  4.18107E+03 -2.29451E+04  1.90399E+04 -2.14326E+04
  3.04850E+04 -1.33809E+04  3.59690E+04  4.18408E+03  2.63776E+04  2.34081E+04  4.34254E+03  4.01163E+04
 -1.89224E+04  3.21685E+04 -2.93087E+04  1.12654E+04 -2.19087E+04 -1.04444E+04 -5.62810E+03 -1.33099E+04
  1.05578E+03 -1.10226E+03 -7.06458E+03  7.83428E+03 -1.89802E+04  5.73528E+03 -1.91012E+04 -9.27571E+03
 -1.11167E+04 -2.17465E+04  5.78664E+03 -2.60699E+04  1.76889E+04 -1.86092E+04  2.11839E+04 -2.22957E+03
  1.28644E+04  1.49516E+04 -8.28543E+02  2.18033E+04 -1.53562E+04  1.28660E+04 -2.20289E+04 -4.41533E+03
 -1.65226E+04 -1.98491E+04 -1.93715E+03 -2.64734E+04  1.20614E+04 -2.25468E+04  2.12733E+04 -1.07969E+04
  2.13194E+04 -5.69508E+02  1.51637E+04  4.58559E+03  7.49874E+03  3.69759E+02  1.08488E+04 -8.48563E+02
  2.10135E+04  3.49631E+03  2.36109E+04  1.66691E+04  1.55023E+04  3.52527E+04 -2.59070E+03  4.04767E+04
 -2.31412E+04  3.44549E+04 -3.92729E+04  1.72453E+04 -4.06063E+04 -2.46275E+03 -3.28565E+04 -2.39518E+04
 -1.40486E+04 -3.40799E+04  1.16822E+04 -2.98368E+04  2.62400E+04 -1.46404E+04  2.26404E+04  7.39781E+03
  8.05532E+03  1.76228E+04 -1.03225E+04  1.48043E+04 -1.81923E+04  2.56130E+03 -1.46994E+04 -1.17532E+04
 -4.31069E+02 -1.79518E+04  9.72534E+03 -1.34501E+04  1.23860E+04 -2.04704E+03  3.16691E+03  7.63923E+03
 -8.12421E+03  3.90637E+03 -7.79480E+03 -5.93948E+03 -9.90774E+02 -1.62024E+04  1.07006E+04 -1.84493E+04
  2.14992E+04 -1.02395E+04  2.35596E+04  3.02291E+03  2.08887E+04  1.68447E+04  9.22452E+03  2.53338E+04
 -5.26087E+03  2.86389E+04 -1.84745E+04  1.76212E+04 -2.10524E+04  4.52094E+03 -1.37047E+04 -4.74852E+03
 -6.11741E+03 -6.88775E+03 -7.89278E+02  4.31218E+02 -2.88860E+03  3.43510E+03 -6.47535E+03  5.56999E+03
 -1.29056E+04 -9.79258E+02 -1.31296E+04 -1.06751E+04 -5.61966E+03 -1.82580E+04  5.45132E+03 -1.41677E+04
  1.20937E+04 -5.86563E+03  8.86080E+03  4.20327E+03  2.10231E+02  5.81016E+03 -7.72325E+03 -1.99537E+02
 -6.52416E+03 -9.51543E+03 -4.63497E+02 -1.40059E+04  7.39840E+03 -1.56398E+04  1.80158E+04 -8.02403E+03
  2.11097E+04  1.65325E+03  1.58617E+04  1.31267E+04  2.57677E+03  1.70597E+04 -8.85003E+03  1.46493E+04
 -1.18585E+04  4.24913E+03 -6.60571E+03 -3.66643E+03  1.92628E+03 -3.73379E+03  7.62907E+03 -4.59587E+02
  6.52592E+03  7.04360E+03  1.91829E+03  1.27043E+04 -8.49945E+03  1.13296E+04 -1.43204E+04  2.54701E+03
 -1.00030E+04 -7.15787E+03  2.06083E+02 -1.26297E+04  7.28064E+03 -5.63381E+03  7.62923E+03  2.80050E+03
  2.10709E+03  8.31851E+03 -6.94482E+03  1.01144E+04 -1.22696E+04  5.15055E+03 -1.15480E+04 -4.44632E+03
 -7.03099E+03 -1.39540E+04  2.74152E+03 -1.65460E+04  1.39351E+04 -9.62789E+03  1.43532E+04  2.52583E+03
  9.74023E+03  1.09999E+04 -1.04411E+03  1.37443E+04 -1.10274E+04  7.87006E+03 -1.17512E+04 -4.70824E+02
 -1.04924E+04 -1.02195E+04 -1.45827E+03 -1.02168E+04  5.96963E+03 -8.21241E+03  7.71003E+03 -3.99551E+03
  4.84222E+03  1.84047E+03 -1.18812E+03  1.88910E+03 -3.91617E+02 -2.77915E+03  2.25083E+03 -6.65827E+03
  9.37705E+03 -4.69195E+03  1.39076E+04  1.00215E+03  1.38595E+04  9.36395E+03  9.54871E+03  1.84653E+04
 -3.96577E+03  2.10393E+04 -1.75898E+04  1.59192E+04 -2.31612E+04  2.44321E+03 -1.82068E+04 -8.46481E+03
 -9.38947E+03 -1.50267E+04  2.07348E+01 -1.23792E+04  5.67471E+03 -8.01196E+03  3.73092E+03 -4.54493E+03
  2.65219E+03 -2.65644E+03  2.76419E+03 -2.81483E+03  4.61378E+03 -3.15943E+03  7.22728E+03 -1.12662E+03
  8.76021E+03  1.52062E+03  5.25464E+03  7.98640E+03 -1.51869E+03  9.16717E+03 -9.93160E+03  7.68743E+03
 -1.23987E+04 -1.17270E+03 -8.27719E+03 -8.93635E+03 -1.12936E+03 -1.46455E+04  7.35354E+03 -1.43395E+04
  1.42756E+04 -7.45610E+03  1.68880E+04  1.67044E+03  1.14833E+04  1.15710E+04  1.95086E+03  1.50446E+04
 -6.17326E+03  1.29333E+04 -8.21102E+03  4.24063E+03 -6.35607E+03 -1.23047E+03 -2.60477E+03 -1.74060E+03
 -1.48087E+03 -6.58978E+01 -1.93692E+03  2.87374E+03 -5.01825E+03  2.18526E+03 -8.44310E+03 -6.41505E+02
 -6.54023E+03 -9.07374E+03 -1.18859E+02 -1.30908E+04  6.92429E+03 -1.16147E+04  1.30126E+04 -3.94671E+03
  1.26654E+04  5.37366E+03  6.31793E+03  1.05514E+04 -2.58113E+03  1.25439E+04 -9.32595E+03  8.61135E+03
 -1.24886E+04  3.28922E+02 -9.58498E+03 -7.58242E+03 -1.47306E+02 -1.00937E+04  5.48159E+03 -8.02198E+03
  8.34876E+03 -2.74062E+03  5.78447E+03  2.06223E+03  2.16350E+03  3.48680E+03  1.67958E+03  1.82961E+03
  2.88346E+03  1.17635E+03  3.56283E+03  1.46322E+03  4.77453E+03  4.36845E+03  3.24364E+03  7.08084E+03
 -3.08378E+03  1.02982E+04 -9.18646E+03  1.04465E+04 -1.25802E+04  2.13444E+03 -1.33108E+04 -5.46106E+03
 -5.76703E+03 -1.32897E+04  2.06265E+03 -1.41659E+04  8.47212E+03 -8.68899E+03  9.87619E+03 -3.43461E+03
  8.10512E+03  4.33533E+03  2.31293E+03  7.09795E+03 -2.92705E+03  4.61195E+03 -4.88532E+03 -1.25070E+03
 -2.37637E+03 -5.65807E+03  3.39145E+03 -5.80176E+03  5.30830E+03 -3.29916E+03  5.49510E+03  1.53832E+03
  3.15051E+03  2.44067E+03  1.07549E+03  2.01851E+03 -1.06637E+03  1.91583E+03  1.98765E+03 -5.85882E+02
  2.04043E+03 -1.92055E+02  5.35513E+03  2.81696E+03  3.23069E+03  7.45537E+03 -1.23325E+03  9.26634E+03
 -6.96187E+03  5.11214E+03 -8.08877E+03  1.58187E+03 -7.66254E+03 -2.74050E+03 -2.05674E+03 -3.99544E+03
  1.12902E+03 -5.73254E+03  2.84712E+03 -2.50922E+03  2.73003E+03  2.12774E+03 -1.67216E+03  3.61631E+03
 -5.60057E+03  2.84792E+03 -6.21203E+03 -3.88781E+03 -4.18138E+03 -7.78672E+03  1.45894E+03 -7.10594E+03
  3.64354E+03 -3.99221E+03  4.44263E+03 -1.24011E+03  4.44580E+03  1.36210E+03  1.30582E+03  3.01213E+03
 -2.66011E+03  5.18212E+02 -3.65529E+03 -2.03908E+03  1.03785E+03 -5.21371E+03  5.62254E+03 -4.50700E+03
  8.01820E+03  2.15550E+02  7.69688E+03  5.32934E+03  2.81931E+03  8.29089E+03 -3.94398E+03  8.02014E+03
 -7.12879E+03  3.32927E+03 -6.50347E+03 -7.80280E+02 -3.73298E+03 -5.12874E+03  1.59266E+03 -5.54273E+03
  5.56792E+03 -2.52105E+03  4.49205E+03  1.46187E+03  1.93312E+03  4.88972E+03 -1.32592E+02  4.19928E+03
 -1.54236E+03  2.59245E+03 -2.10282E+03  1.15229E+03 -1.19288E+03  7.44326E+02 -1.58519E+03  1.00901E+03
 -1.25004E+03  3.59791E+03 -5.78497E+03  2.50475E+03 -8.27680E+03 -1.32156E+02 -9.39629E+03 -5.36277E+03
 -4.73297E+03 -1.05491E+04  2.34572E+03 -1.29378E+04  7.48151E+03 -9.86562E+03  1.23063E+04 -4.39406E+03
  1.11489E+04  3.26022E+03  7.27655E+03  7.64213E+03  7.23574E+02  8.48401E+03 -3.50653E+03  5.84734E+03
 -4.56994E+03  3.20460E+03 -3.64387E+03 -5.42870E+02 -9.02813E+02 -5.49215E+02 -1.30049E+03 -3.14533E+02
 -1.24157E+03  6.45371E+02 -2.00025E+03 -7.88756E+02 -5.41988E+02 -2.83832E+03  4.21785E+02 -2.94419E+03
  4.28498E+03 -3.30988E+03  4.52876E+03 -5.13811E+01  5.39339E+03  4.17813E+03  2.07574E+03  9.02503E+03
 -4.55303E+03  9.52942E+03 -9.28329E+03  5.59551E+03 -1.12821E+04 -1.93098E+02 -7.80601E+03 -6.90424E+03
 -3.02462E+03 -8.70899E+03  2.00729E+03 -7.65067E+03  4.76010E+03 -4.77302E+03  5.52591E+03  3.54486E+02
  2.88166E+03  3.31353E+03 -3.61103E+02  2.80124E+03 -1.74252E+03 -3.14362E+02  4.80234E+02 -1.89756E+03
  2.08342E+03 -8.09378E+02  2.95834E+03  1.74108E+03  1.63473E+03  2.94824E+03  2.71888E+02  4.35525E+03
 -4.19896E+03  3.16987E+03 -5.10983E+03  2.07877E+02 -4.39477E+03 -4.55143E+03 -1.39141E+03 -7.18507E+03
  3.31813E+03 -6.23805E+03  6.59165E+03 -1.74928E+03  6.61645E+03  1.52957E+03  3.93822E+03  4.93894E+03
  1.14552E+03  4.75214E+03 -1.79923E+03  4.58158E+03 -4.23620E+03  2.41571E+03 -3.45172E+03 -4.64739E+01
 -1.62805E+03  7.26529E+01 -3.59823E+02  1.34624E+03 -2.64471E+03  1.30476E+03 -4.12497E+03 -1.71930E+03
 -3.99703E+03 -2.54564E+03 -1.59794E+03 -5.52688E+03  3.00027E+03 -5.64819E+03  4.39868E+03 -3.29112E+03
  4.69596E+03  5.47257E+02  3.41473E+03  3.89492E+03 -7.90348E+02  5.64074E+03 -4.06197E+03  4.28987E+03
