 $NMID ID='MM_0lb_SNR400_11hz_g50_36.RAW', FMTDAT='(8E13.5)'
 TRAMP=1., VOLUME=1. $END
  3.09685E+05  2.45925E+02  3.37533E+05  2.50042E+05  8.50312E+04  3.39081E+05 -1.32506E+05  2.51523E+05
 -1.90322E+05  8.42529E+04 -1.11820E+05 -3.26032E+04  2.63204E+02 -5.03229E+04  5.36555E+04 -9.17635E+02
  3.60427E+04  5.33007E+04 -1.67522E+04  7.56592E+04 -6.11173E+04  6.42838E+04 -8.44692E+04  3.26753E+04
 -8.16096E+04 -1.17495E+04 -5.78001E+04 -5.19845E+04 -1.47813E+04 -7.05462E+04  2.73411E+04 -4.62503E+04
  4.05731E+04  3.72775E+03  1.65518E+04  4.90517E+04 -3.48559E+04  4.82857E+04 -6.82048E+04 -2.65027E+02
 -5.41967E+04 -5.75137E+04 -7.32661E+03 -7.81408E+04  3.40672E+04 -5.61461E+04  4.88580E+04 -1.80118E+04
  4.44687E+04  1.12548E+04  3.29341E+04  2.61676E+04  1.55377E+04  3.03211E+04 -5.73653E+03  2.87587E+04
 -2.24423E+04  1.18530E+04 -1.77128E+04 -5.22254E+03  6.90102E+03 -7.50316E+03  2.23832E+04  1.34541E+04
  7.80560E+03  3.70080E+04 -3.32701E+04  3.65567E+04 -6.48076E+04  1.57851E+03 -5.81742E+04 -4.34106E+04
 -1.22646E+04 -6.44599E+04  4.09339E+04 -4.70962E+04  6.03148E+04 -2.04990E+03  3.55782E+04  3.30197E+04
 -5.24443E+03  3.78176E+04 -3.16066E+04  1.72825E+04 -3.20488E+04 -4.02087E+03 -1.88879E+04 -1.14214E+04
 -9.26698E+03 -1.44749E+04 -9.00733E+02 -2.00989E+04  8.02219E+03 -2.29630E+04  1.53619E+04 -1.30854E+04
  1.08324E+04  5.58535E+03 -9.69269E+03  1.30750E+04 -2.18919E+04 -6.20772E+03 -9.08223E+03 -3.64631E+04
  2.38387E+04 -4.51134E+04  5.03773E+04 -2.02399E+04  4.70386E+04  2.06058E+04  1.64793E+04  4.57336E+04
 -1.67719E+04  3.51586E+04 -2.68089E+04  1.76262E+03 -1.07601E+04 -2.86782E+04  2.07796E+04 -3.57216E+04
  4.28604E+04 -9.49675E+03  3.86414E+04  2.49520E+04  2.00575E+04  4.84646E+04 -7.65676E+03  5.34304E+04
 -3.44650E+04  3.68217E+04 -4.53133E+04  1.02124E+04 -4.60902E+04 -1.77441E+04 -2.53179E+04 -4.02164E+04
  7.44814E+03 -4.03155E+04  3.32547E+04 -1.64339E+04  3.08041E+04  1.09748E+04  3.96055E+03  2.02589E+04
 -1.40038E+04  8.55914E+03 -1.10526E+04 -7.58347E+03  5.52551E+03 -1.08660E+04  1.77346E+04  5.36493E+03
  1.43723E+04  2.22427E+04 -5.28968E+03  2.62974E+04 -2.32926E+04  1.29933E+04 -3.11141E+04 -2.73441E+03
 -2.35314E+04 -1.75764E+04 -1.05710E+04 -2.35309E+04  4.46737E+03 -2.32047E+04  1.77822E+04 -2.01961E+04
  2.98489E+04 -1.35976E+04  3.56428E+04  4.15723E+03  2.62880E+04  2.27431E+04  4.57066E+03  3.93833E+04
 -1.88581E+04  3.24821E+04 -2.99482E+04  1.15917E+04 -2.17343E+04 -1.02750E+04 -5.36408E+03 -1.30209E+04
  1.01487E+03 -1.67726E+03 -5.92363E+03  7.77497E+03 -1.80556E+04  5.47040E+03 -1.87202E+04 -9.01203E+03
 -1.07904E+04 -2.16815E+04  5.51023E+03 -2.55103E+04  1.72962E+04 -1.88516E+04  2.09798E+04 -1.99196E+03
  1.35566E+04  1.52713E+04 -7.05086E+02  2.13727E+04 -1.50312E+04  1.29224E+04 -2.22243E+04 -4.79084E+03
 -1.60600E+04 -1.92145E+04 -2.02582E+03 -2.57912E+04  1.15048E+04 -2.18854E+04  2.14515E+04 -1.10654E+04
  1.98575E+04 -1.38532E+02  1.42580E+04  5.02430E+03  8.05143E+03  1.39366E+03  1.14124E+04 -1.36558E+03
  1.99784E+04  2.21934E+03  2.29498E+04  1.71619E+04  1.51962E+04  3.46733E+04 -2.62052E+03  3.99959E+04
 -2.30619E+04  3.34538E+04 -3.83349E+04  1.61252E+04 -4.02538E+04 -3.12032E+03 -3.22627E+04 -2.30650E+04
 -1.36798E+04 -3.28986E+04  1.12266E+04 -2.99049E+04  2.54130E+04 -1.44197E+04  2.19854E+04  6.43475E+03
  6.97408E+03  1.76318E+04 -1.07752E+04  1.50206E+04 -1.81136E+04  3.12130E+03 -1.41094E+04 -1.17752E+04
 -4.94338E+02 -1.78642E+04  1.01772E+04 -1.33604E+04  1.19316E+04 -1.65957E+03  3.42873E+03  8.35508E+03
 -7.86617E+03  3.69160E+03 -7.68363E+03 -6.39677E+03 -9.37183E+02 -1.60532E+04  1.08124E+04 -1.75437E+04
  2.01308E+04 -1.01532E+04  2.19514E+04  3.56436E+03  1.96398E+04  1.67880E+04  8.61507E+03  2.54485E+04
 -4.95280E+03  2.79555E+04 -1.73862E+04  1.64158E+04 -1.96043E+04  4.15864E+03 -1.32801E+04 -4.53032E+03
 -6.08616E+03 -6.19276E+03 -3.66383E+02 -2.46982E+02 -2.57290E+03  2.99392E+03 -7.13004E+03  5.25241E+03
 -1.26857E+04 -1.28472E+03 -1.31977E+04 -1.03937E+04 -5.22190E+03 -1.69264E+04  6.41612E+03 -1.39279E+04
  1.15588E+04 -5.69456E+03  8.62464E+03  3.64051E+03  2.03494E+02  5.54285E+03 -6.96149E+03  7.45366E+02
 -6.02131E+03 -8.58955E+03 -1.34752E+03 -1.34524E+04  7.68473E+03 -1.45731E+04  1.80273E+04 -8.02916E+03
  2.02891E+04  2.10565E+03  1.51364E+04  1.21951E+04  3.40526E+03  1.74770E+04 -8.08629E+03  1.30274E+04
 -1.09798E+04  3.37053E+03 -5.81251E+03 -3.22862E+03  1.61947E+03 -4.15565E+03  7.07014E+03 -6.03252E+02
  6.38576E+03  6.74687E+03  1.07262E+03  1.09047E+04 -8.19367E+03  1.04101E+04 -1.39912E+04  3.21458E+03
 -9.21602E+03 -6.64121E+03  3.88502E+02 -1.11059E+04  6.75994E+03 -5.50589E+03  7.48115E+03  1.93373E+03
  2.08989E+03  8.98811E+03 -6.73575E+03  1.04944E+04 -1.15391E+04  3.65742E+03 -1.06440E+04 -4.06322E+03
 -7.29115E+03 -1.31376E+04  3.02334E+03 -1.55424E+04  1.40865E+04 -9.89105E+03  1.37162E+04  2.25172E+03
  8.91401E+03  1.09481E+04 -1.03554E+03  1.39198E+04 -9.88830E+03  7.26588E+03 -1.05073E+04 -1.11807E+03
 -9.13126E+03 -9.09588E+03 -1.79797E+03 -1.05577E+04  5.04237E+03 -8.58817E+03  6.86511E+03 -3.75490E+03
  4.50437E+03  7.13748E+02 -3.60030E+02  1.16911E+03 -9.11651E+02 -3.00606E+03  2.32929E+03 -6.02111E+03
  9.65485E+03 -4.03719E+03  1.33314E+04  1.41813E+03  1.30770E+04  9.21204E+03  8.66216E+03  1.67106E+04
 -4.33871E+03  1.98866E+04 -1.60262E+04  1.45540E+04 -2.12026E+04  2.99535E+03 -1.72964E+04 -8.37934E+03
 -9.29136E+03 -1.35968E+04 -1.02252E+03 -1.24971E+04  4.41872E+03 -6.57707E+03  4.19145E+03 -4.72545E+03
  2.93096E+03 -2.46722E+03  3.65924E+03 -3.63943E+03  5.89903E+03 -2.61769E+03  6.46635E+03 -1.57775E+03
  9.36002E+03  2.50982E+03  4.26713E+03  7.57129E+03 -2.49479E+03  8.86986E+03 -9.82693E+03  6.53842E+03
 -1.27967E+04 -1.76459E+03 -7.67403E+03 -7.99470E+03 -4.37793E+02 -1.27770E+04  7.74163E+03 -1.22875E+04
  1.32583E+04 -7.17349E+03  1.57626E+04  1.40114E+03  1.06943E+04  1.08912E+04  1.21345E+03  1.47358E+04
 -5.69685E+03  1.17404E+04 -8.10183E+03  3.63601E+03 -5.77103E+03 -1.30067E+03 -1.66320E+03 -1.91383E+03
 -1.04049E+03  2.63646E+02 -1.18924E+03  2.66839E+03 -5.68996E+03  2.18777E+03 -8.84717E+03 -7.46462E+02
 -6.65458E+03 -8.41269E+03  2.49853E+02 -1.22420E+04  7.58543E+03 -1.07603E+04  1.13498E+04 -2.62307E+03
  1.12255E+04  6.09517E+03  5.51719E+03  1.05077E+04 -2.53402E+03  1.23554E+04 -7.82192E+03  7.55417E+03
 -1.15875E+04  2.09359E+02 -8.02692E+03 -6.50609E+03 -1.21216E+03 -9.94278E+03  5.37779E+03 -6.88143E+03
  7.72434E+03 -2.91859E+03  5.13422E+03  1.74366E+03  1.68581E+03  3.96992E+03  1.18127E+03  1.00305E+03
  2.14334E+03  6.84993E+02  2.39466E+03  1.44474E+03  2.78477E+03  4.02894E+03  2.96125E+03  5.95986E+03
 -2.56507E+03  9.33828E+03 -7.67352E+03  9.62502E+03 -1.14781E+04  2.64820E+03 -1.24175E+04 -4.98802E+03
 -5.88647E+03 -1.21124E+04  1.55188E+03 -1.28812E+04  7.11190E+03 -7.62828E+03  9.00150E+03 -1.58897E+03
  7.48944E+03  4.47856E+03  1.50012E+03  6.75832E+03 -2.87618E+03  4.27511E+03 -4.64878E+03 -1.02365E+03
 -1.80107E+03 -4.46087E+03  2.77410E+03 -5.07080E+03  5.32795E+03 -2.95637E+03  4.95265E+03  5.24983E+02
  3.02891E+03  2.29795E+03  1.43918E+03  2.06131E+03 -4.64014E+02  1.92789E+03  1.57222E+03 -4.69482E+02
  1.73195E+03 -6.43921E+02  4.36288E+03  1.98400E+03  2.28203E+03  6.15438E+03 -1.46455E+03  8.70358E+03
 -5.26301E+03  4.49053E+03 -7.51640E+03  1.05082E+03 -6.44312E+03 -3.01739E+03 -1.92016E+03 -3.94112E+03
  4.85369E+02 -4.07230E+03  2.30501E+03 -1.66460E+03  2.07661E+03  2.46167E+03 -1.32811E+03  4.33749E+03
 -5.02045E+03  1.95925E+03 -5.46625E+03 -3.07269E+03 -3.27388E+03 -6.29721E+03  7.39786E+02 -6.44336E+03
  3.59093E+03 -4.21679E+03  4.00093E+03 -7.58580E+02  3.47652E+03  1.73702E+03  4.90052E+02  3.42995E+03
 -2.15585E+03  8.66167E+02 -2.79995E+03 -1.69992E+03  1.57730E+03 -4.38046E+03  6.39797E+03 -3.61616E+03
  6.44450E+03  2.76367E+02  6.67504E+03  5.10238E+03  2.80826E+03  7.40414E+03 -1.75383E+03  6.76012E+03
 -6.86863E+03  2.24434E+03 -5.59763E+03 -1.13071E+03 -4.13815E+03 -4.23998E+03  1.29247E+03 -4.08340E+03
  4.76172E+03 -2.19496E+03  3.43145E+03  2.02079E+03  7.59453E+02  4.52397E+03 -7.00588E+02  3.75546E+03
 -1.69857E+03  2.28133E+03 -1.97522E+03  4.81970E+02 -5.55288E+02  9.15675E+02 -1.36837E+03  1.05467E+03
 -1.99187E+03  4.01144E+03 -5.12411E+03  2.23926E+03 -7.01914E+03  9.14076E+01 -7.60127E+03 -4.55412E+03
 -4.26078E+03 -9.64150E+03  2.07863E+03 -1.03053E+04  6.67617E+03 -8.17993E+03  1.05668E+04 -2.84277E+03
  1.00063E+04  2.21762E+03  5.88102E+03  7.10858E+03  4.93154E+02  6.90636E+03 -3.35567E+03  4.74017E+03
 -4.20045E+03  2.16545E+03 -2.30665E+03 -1.39355E+03 -1.36144E+03 -2.51690E+02 -2.72398E+02  2.24302E+02
 -1.43405E+03 -1.00183E+02 -1.73959E+03 -3.76473E+02 -3.54564E+02 -2.10180E+03  4.91791E+02 -2.84978E+03
  3.37325E+03 -1.65513E+03  3.65849E+03  2.75470E+02  5.39120E+03  4.34011E+03  1.31503E+03  7.04780E+03
 -3.51188E+03  8.98615E+03 -7.58568E+03  4.56700E+03 -9.51410E+03 -8.04498E+02 -6.44674E+03 -5.15649E+03
 -2.67542E+03 -7.12799E+03  2.23350E+03 -6.46237E+03  4.25558E+03 -3.19778E+03  4.34820E+03  4.47111E+02
  2.16426E+03  2.08641E+03 -6.54462E+02  2.33600E+03 -1.49049E+03 -7.72853E+02  2.33165E+02 -1.67109E+03
  1.95431E+03 -9.21424E+02  2.97325E+03  6.18863E+02  1.92864E+03  3.14525E+03  2.30443E+02  3.20997E+03
 -2.76916E+03  3.03284E+03 -4.65039E+03  8.54040E+02 -4.27752E+03 -3.57549E+03 -5.65958E+02 -6.79617E+03
  3.11613E+03 -5.47265E+03  5.73029E+03 -1.48418E+03  5.90228E+03  9.92402E+02  3.38066E+03  4.00582E+03
  1.00680E+03  5.26684E+03 -1.63213E+03  3.10109E+03 -2.59026E+03  2.07011E+03 -1.83828E+03 -4.55203E+02
 -1.25400E+03 -1.77626E+02 -1.00368E+03  2.70122E+02 -2.22562E+03  1.37765E+03 -4.23795E+03 -1.85832E+02
 -3.67796E+03 -1.40221E+03 -7.49994E+02 -4.23044E+03  2.79200E+03 -4.98388E+03  3.74777E+03 -2.71366E+03
  4.98963E+03  1.83767E+02  2.79958E+03  3.13117E+03 -2.40630E+02  4.95687E+03 -3.08170E+03  2.48118E+03
