 $NMID ID='MM_0lb_SNR400_20hz_g60_82.RAW', FMTDAT='(8E13.5)'
 TRAMP=1., VOLUME=1. $END
  3.10055E+05  5.46270E+02  3.37168E+05  2.50771E+05  8.48475E+04  3.37352E+05 -1.32765E+05  2.50796E+05
 -1.90463E+05  8.23304E+04 -1.11228E+05 -3.31904E+04  1.07296E+03 -5.03981E+04  5.37577E+04 -3.96763E+02
  3.50564E+04  5.26612E+04 -1.62972E+04  7.54826E+04 -6.06470E+04  6.34248E+04 -8.34999E+04  3.16121E+04
 -7.99336E+04 -1.12918E+04 -5.67085E+04 -5.05606E+04 -1.49390E+04 -6.88557E+04  2.70150E+04 -4.54058E+04
  3.97322E+04  3.89367E+03  1.63550E+04  4.73359E+04 -3.46739E+04  4.64219E+04 -6.58564E+04 -1.23608E+02
 -5.23643E+04 -5.63615E+04 -6.13375E+03 -7.56279E+04  3.34176E+04 -5.38883E+04  4.67561E+04 -1.60278E+04
  4.21021E+04  1.09652E+04  3.12631E+04  2.55616E+04  1.60974E+04  2.85155E+04 -4.41661E+03  2.64440E+04
 -2.14599E+04  1.24217E+04 -1.87644E+04 -4.13901E+03  4.27905E+03 -7.72096E+03  2.12634E+04  1.10430E+04
  7.19850E+03  3.37370E+04 -3.02260E+04  3.46488E+04 -6.15173E+04  2.37149E+03 -5.58821E+04 -4.14559E+04
 -1.24929E+04 -6.18276E+04  3.88777E+04 -4.39594E+04  5.63006E+04 -1.89774E+03  3.26141E+04  3.13827E+04
 -6.45302E+03  3.40825E+04 -2.86760E+04  1.39665E+04 -2.86499E+04 -5.17041E+03 -1.51120E+04 -1.01076E+04
 -7.58256E+03 -1.19511E+04 -1.23451E+03 -1.66068E+04  7.37635E+03 -2.28414E+04  1.53081E+04 -1.41753E+04
  1.19232E+04  4.67903E+03 -6.80536E+03  1.31867E+04 -1.95196E+04 -3.41450E+03 -8.18579E+03 -3.12867E+04
  2.14351E+04 -4.10983E+04  4.55710E+04 -1.91867E+04  4.26951E+04  1.85179E+04  1.47212E+04  4.21388E+04
 -1.55809E+04  3.15128E+04 -2.36071E+04  9.84937E+02 -8.74149E+03 -2.63964E+04  2.03058E+04 -3.16407E+04
  3.82525E+04 -7.51924E+03  3.26624E+04  2.35070E+04  1.62579E+04  4.39070E+04 -7.54581E+03  4.60878E+04
 -2.91816E+04  3.06930E+04 -3.81906E+04  8.67522E+03 -3.95225E+04 -1.54653E+04 -2.14232E+04 -3.51722E+04
  7.53209E+03 -3.50472E+04  2.97166E+04 -1.34617E+04  2.74121E+04  9.83845E+03  3.24475E+03  1.73397E+04
 -1.32543E+04  8.01354E+03 -9.93045E+03 -7.51948E+03  5.99500E+03 -1.00621E+04  1.75950E+04  5.71587E+03
  1.22374E+04  2.17553E+04 -6.41220E+03  2.43549E+04 -2.12406E+04  9.34745E+03 -2.58109E+04 -5.95508E+03
 -1.77568E+04 -1.66297E+04 -5.50366E+03 -1.74123E+04  3.81198E+03 -1.54849E+04  1.29672E+04 -1.49400E+04
  2.23213E+04 -1.24589E+04  2.81945E+04  1.31902E+03  2.14755E+04  1.68030E+04  4.21804E+03  3.28292E+04
 -1.61229E+04  2.77359E+04 -2.59784E+04  9.39433E+03 -2.00242E+04 -1.02669E+04 -4.35260E+03 -1.37084E+04
  2.63807E+03 -4.29405E+03 -2.86409E+03  5.16595E+03 -1.30600E+04  5.25557E+03 -1.36527E+04 -5.03770E+03
 -8.38765E+03 -1.52383E+04  4.41776E+03 -1.94165E+04  1.27754E+04 -1.43990E+04  1.46527E+04 -1.46064E+03
  8.92782E+03  1.11319E+04 -1.33223E+03  1.58246E+04 -1.10714E+04  8.73666E+03 -1.59792E+04 -3.65624E+03
 -1.13475E+04 -1.43000E+04 -1.75692E+03 -1.93005E+04  8.76584E+03 -1.54989E+04  1.60501E+04 -7.32834E+03
  1.43129E+04  6.43976E+02  1.06972E+04  3.59427E+03  5.21158E+03  8.81483E+02  7.62264E+03 -1.45439E+03
  1.41979E+04  2.27815E+03  1.51348E+04  1.32627E+04  9.30557E+03  2.47342E+04 -3.54279E+03  2.70984E+04
 -1.56856E+04  2.10951E+04 -2.47859E+04  1.00247E+04 -2.56391E+04 -1.92762E+03 -2.18703E+04 -1.47855E+04
 -9.67814E+03 -2.08328E+04  7.07258E+03 -1.96103E+04  1.65618E+04 -1.14956E+04  1.51521E+04  4.35109E+03
  6.22121E+03  1.14731E+04 -7.38081E+03  1.08192E+04 -1.33497E+04  2.19219E+03 -1.01984E+04 -7.87270E+03
  2.75701E+02 -1.21024E+04  6.54811E+03 -9.69221E+03  7.59031E+03 -1.27706E+03  9.36439E+02  5.22636E+03
 -5.79884E+03  1.01866E+03 -3.80658E+03 -4.61268E+03  8.03120E+02 -9.98132E+03  7.94036E+03 -1.04183E+04
  1.21618E+04 -4.55077E+03  1.20968E+04  2.84117E+03  1.04433E+04  9.13139E+03  4.86593E+03  1.39544E+04
 -1.45728E+03  1.56333E+04 -9.71366E+03  9.65547E+03 -1.12248E+04  2.59330E+03 -8.00051E+03 -1.84346E+03
 -3.87449E+03 -2.84066E+03 -3.04613E+02  1.88816E+03 -2.05979E+03  1.75635E+03 -3.74334E+03  2.87514E+03
 -7.86021E+03 -2.97249E+02 -8.70148E+03 -7.38752E+03 -3.79777E+03 -1.10003E+04  3.42158E+03 -8.16615E+03
  7.22547E+03 -3.82377E+03  5.02663E+03  2.04777E+03  1.17240E+03  3.12380E+03 -3.03005E+03  7.12992E+02
 -3.62748E+03 -4.74226E+03 -7.11146E+02 -7.26814E+03  3.40204E+03 -7.61725E+03  9.90903E+03 -3.49570E+03
  1.16055E+04  7.70717E+02  8.82112E+03  5.64811E+03  2.23763E+03  8.66797E+03 -4.86447E+03  8.52163E+03
 -6.58816E+03  3.02524E+03 -3.41158E+03 -1.03831E+03  2.11349E+03 -1.95973E+03  4.73527E+03 -1.41780E+03
  4.11160E+03  3.48954E+03  1.01194E+03  6.08518E+03 -3.96193E+03  6.08027E+03 -8.13006E+03  1.58829E+03
 -4.68061E+03 -3.08760E+03  7.22901E+02 -6.53002E+03  3.27027E+03 -2.72369E+03  3.72377E+03  1.00846E+03
  2.36029E+02  3.24109E+03 -3.93094E+03  4.53667E+03 -4.18581E+03  2.27428E+03 -3.45392E+03 -1.00060E+03
 -2.88458E+03 -6.12489E+03  5.57735E+02 -6.28391E+03  5.75471E+03 -4.59158E+03  5.84935E+03  6.17319E+02
  4.33936E+03  4.85994E+03  7.10167E+02  6.76700E+03 -4.90932E+03  3.76000E+03 -5.28438E+03 -3.86756E+02
 -5.69131E+03 -5.01891E+03 -1.01411E+03 -4.18938E+03  1.98001E+03 -4.28333E+03  3.05809E+03 -3.04276E+03
  2.51318E+03 -2.40257E+02  6.44611E+02  1.07114E+03  4.99845E+02 -4.11540E+01 -4.92491E+02 -1.80122E+03
  3.38139E+03 -3.34934E+02  4.62682E+03  6.43314E+02  5.06985E+03  2.48984E+03  5.03225E+03  6.22572E+03
 -1.17328E+03  7.59272E+03 -7.01807E+03  5.99693E+03 -9.44033E+03  7.55984E+02 -6.92236E+03 -2.28468E+03
 -4.19276E+03 -5.58642E+03 -6.60457E+02 -4.29548E+03  2.08075E+03 -1.77984E+03  1.65803E+03 -1.96490E+03
  1.13486E+03 -9.95187E+02  2.03409E+03 -2.16383E+03  3.46544E+03 -1.03440E+03  3.69869E+03  7.81027E+02
  4.54047E+03  1.33967E+03  7.09082E+02  2.92484E+03 -1.13407E+03  2.45105E+03 -4.44678E+03  1.90718E+03
 -4.83183E+03 -6.92720E+02 -1.27646E+03 -2.79784E+03  7.98466E+02 -3.81907E+03  3.53982E+03 -5.64358E+03
  4.21594E+03 -2.87382E+03  5.97153E+03  8.92051E+01  4.15465E+03  4.00024E+03  1.37815E+03  5.04422E+03
 -2.03539E+03  5.37177E+03 -3.05447E+03  1.99013E+03 -1.48369E+03 -1.14545E+03 -1.86944E+02 -5.02650E+02
 -1.19949E+02  4.96670E+02 -9.53115E+02  2.10953E+03 -2.38103E+03  1.12285E+03 -3.72887E+03 -2.54833E+02
 -1.03716E+03 -3.50704E+03  9.19633E+02 -3.81357E+03  2.03896E+03 -4.28822E+03  2.64089E+03 -9.08864E+02
  3.56877E+03  1.75649E+03  1.66388E+03  3.20709E+03 -5.23995E+02  3.56005E+03 -2.03965E+03  2.50824E+03
 -3.09882E+03  1.89964E+02 -2.90302E+03 -1.67938E+03 -2.65573E+02 -2.83386E+03  1.60898E+03 -2.11672E+03
  2.27731E+03 -1.06062E+03  1.36589E+03  9.76282E+02  3.01067E+02  1.42091E+03  1.05433E+03  3.20797E+02
  1.06317E+03  3.93239E+02  1.18283E+03  1.28070E+03  8.84690E+02  2.11868E+03  1.37663E+03  1.22458E+03
 -1.06268E+03  2.33429E+03 -2.14733E+03  3.71570E+03 -2.20401E+03  1.38206E+03 -3.30232E+03 -3.82560E+02
 -7.69940E+02 -3.36300E+03  7.98441E+02 -3.61419E+03  1.49139E+03 -1.91612E+03  2.43829E+03 -7.90909E+02
  2.26696E+03  1.79540E+03  3.67475E+02  1.82481E+03  1.07665E+01  9.14781E+02 -5.53947E+02 -2.36015E+02
 -5.19919E+02 -1.76223E+03  1.03822E+03 -1.76643E+03  9.30258E+02 -9.44413E+02  1.55608E+03 -1.03329E+02
  7.09440E+02  3.84894E+01  4.48952E+02 -6.53950E+02 -1.19745E+02  6.60196E+02  1.53341E+03 -5.90709E+02
 -2.42269E+01 -2.67366E+02  1.58237E+03  7.12961E+01 -4.55999E+02  2.31820E+03 -5.92403E+02  2.23871E+03
 -1.00613E+03  4.78559E+02 -1.42992E+03 -2.96800E+02 -1.54234E+03 -4.50246E+02  1.67494E+02 -6.55630E+02
  6.61793E+02 -7.75385E+02  6.37144E+02  8.06385E+01  4.63340E+02  1.31175E+03 -3.11702E+02  5.71173E+02
 -1.11173E+03  8.24783E+02 -3.36881E+02 -1.60338E+03 -2.41049E+02 -1.53098E+03  4.80728E+02 -1.29638E+03
  4.74910E+02 -2.81062E+02  3.15955E+02  3.90644E+02  1.01032E+03 -6.00766E+02  4.74638E+02  7.56524E+02
 -5.17747E+02 -4.60726E+02 -6.52142E+02 -1.99348E+02  1.08126E+03 -5.95175E+02  1.75422E+03 -3.27843E+02
  3.98565E+02  2.64808E+02  1.93014E+03  7.39491E+01  1.10958E+03  7.30066E+02 -2.75939E+02  1.17708E+03
 -1.12985E+03  2.01401E+02 -1.02227E+03  3.37530E+01 -3.92009E+02 -4.76980E+02  2.91329E+02 -2.45690E+02
  1.27390E+03 -7.35643E+02  1.45884E+02  7.01069E+02 -2.34486E+02  1.17404E+03  2.78311E+02  1.00120E+03
 -6.33256E+02  1.12998E+03 -2.49749E+02  5.56708E+02 -2.74833E+02  3.18766E+02 -2.51434E+02  1.08421E+03
 -5.80852E+02  1.57129E+03 -1.65768E+03 -8.54837E+01 -8.83675E+02 -1.20456E+01 -2.08969E+03 -3.44106E+02
 -1.14190E+03 -1.05467E+03  5.32159E+01 -1.39860E+03  2.37637E+02 -2.45764E+03  1.97985E+03 -5.64112E+02
  1.61013E+03 -2.21463E+02  8.71706E+02  7.06725E+02 -8.55598E+02  4.48017E+02 -6.88064E+02  7.51929E+02
 -4.08841E+02  3.28442E+02 -2.41409E+02 -2.98593E+02 -3.08690E+02  1.21343E+02 -3.10713E+02  4.89094E+02
 -9.11952E+02  5.97506E+02 -1.14297E+03  1.29536E+02 -6.04336E+00 -7.38200E+01 -1.72452E+02 -6.32074E+02
  6.35157E+02 -4.46704E+02 -3.92681E+02  5.45831E+01  5.72835E+02  1.01959E+03 -3.29975E+02  1.00863E+03
 -5.64749E+02  1.05027E+03 -1.28257E+03  8.43261E+02 -9.23582E+02 -4.45686E+02 -7.52172E+02 -5.79316E+02
 -1.07432E+03 -6.59935E+02 -2.97582E+02 -1.11531E+03  6.23671E+02  5.37161E+00 -9.10836E+01 -4.38403E+01
  2.58297E+02  3.91269E+02 -1.58051E+02  2.57265E+02 -5.12218E+02  1.58991E+02  3.04998E+01  2.26619E+02
  3.09604E+02  3.32752E+02  1.38234E+02  6.79938E+02  4.36259E+00  9.27626E+01  8.68997E+02  5.90249E+01
 -1.75067E+01  4.70783E+02 -2.67054E+02  1.51274E+02 -5.04339E+02  5.32284E+02  3.20926E+02 -6.66463E+02
  4.06556E+02 -3.60604E+02  1.73876E+02  8.00178E+00  2.97436E+02 -5.87722E+02  1.60393E+02  5.43217E+02
  1.61408E+02  3.37031E+02 -1.69096E+02  1.48505E+02 -6.43858E+02  6.32900E+02 -3.72672E+02 -3.27135E+02
  1.87783E+02 -2.67011E+02 -4.84281E+02 -7.52154E+01 -3.49189E+02 -7.96946E+01 -3.00197E+02 -5.05644E+02
 -1.09504E+03  3.44355E+02 -5.88990E+01 -1.73180E+02  7.79458E+02 -8.71839E+02  7.97026E+02 -5.93762E+02
  7.22601E+02  6.11596E+02 -5.70864E+02 -3.66134E+01 -4.48132E+01  4.79401E+02  8.03004E+02 -1.65971E+02
