 $NMID ID='MM_0lb_SNR400_12hz_g55_58.RAW', FMTDAT='(8E13.5)'
 TRAMP=1., VOLUME=1. $END
  3.10476E+05  9.18379E+02  3.38088E+05  2.50237E+05  8.51107E+04  3.37662E+05 -1.32778E+05  2.51202E+05
 -1.90353E+05  8.36122E+04 -1.11630E+05 -3.24374E+04  4.56832E+02 -5.00690E+04  5.33226E+04  1.68297E+02
  3.58213E+04  5.23710E+04 -1.65284E+04  7.64781E+04 -6.09810E+04  6.35231E+04 -8.52839E+04  3.21829E+04
 -8.14793E+04 -1.11304E+04 -5.80024E+04 -5.20009E+04 -1.48768E+04 -7.02763E+04  2.81181E+04 -4.64398E+04
  4.02615E+04  3.97316E+03  1.69252E+04  4.85710E+04 -3.50052E+04  4.74231E+04 -6.74745E+04 -2.96963E+02
 -5.40593E+04 -5.66518E+04 -6.47037E+03 -7.89163E+04  3.47739E+04 -5.65396E+04  4.95483E+04 -1.83282E+04
  4.45999E+04  1.13983E+04  3.24104E+04  2.60889E+04  1.50179E+04  3.03092E+04 -6.08930E+03  2.72024E+04
 -2.27405E+04  1.21472E+04 -1.83235E+04 -5.77386E+03  6.59657E+03 -7.93658E+03  2.32425E+04  1.36254E+04
  6.80239E+03  3.68796E+04 -3.32069E+04  3.68803E+04 -6.47977E+04  2.11815E+03 -5.82752E+04 -4.37584E+04
 -1.30372E+04 -6.46531E+04  4.12381E+04 -4.61201E+04  5.97302E+04 -2.69708E+03  3.56409E+04  3.35662E+04
 -6.17700E+03  3.74609E+04 -3.09571E+04  1.79416E+04 -3.26352E+04 -2.74762E+03 -1.74836E+04 -1.14127E+04
 -9.63266E+03 -1.42784E+04 -4.05998E+02 -1.85430E+04  7.81949E+03 -2.37949E+04  1.62473E+04 -1.28286E+04
  1.09763E+04  5.45151E+03 -9.16504E+03  1.23180E+04 -2.26810E+04 -5.47653E+03 -8.41755E+03 -3.56927E+04
  2.42797E+04 -4.46885E+04  5.02284E+04 -2.00860E+04  4.72968E+04  1.97936E+04  1.68409E+04  4.52258E+04
 -1.61422E+04  3.52707E+04 -2.63226E+04  2.69454E+03 -1.06970E+04 -2.83624E+04  2.14445E+04 -3.51911E+04
  4.26083E+04 -9.77625E+03  3.83181E+04  2.43612E+04  1.95913E+04  4.85399E+04 -8.42306E+03  5.33520E+04
 -3.41733E+04  3.60711E+04 -4.50849E+04  9.88804E+03 -4.53402E+04 -1.79222E+04 -2.47493E+04 -4.05626E+04
  7.35842E+03 -3.98471E+04  3.30664E+04 -1.56900E+04  3.00512E+04  1.05962E+04  5.00149E+03  2.04466E+04
 -1.31178E+04  8.22720E+03 -1.08214E+04 -7.74355E+03  5.87761E+03 -1.08389E+04  1.87237E+04  6.08082E+03
  1.49732E+04  2.23484E+04 -5.47747E+03  2.65362E+04 -2.25741E+04  1.29042E+04 -3.04363E+04 -3.27262E+03
 -2.35033E+04 -1.82995E+04 -1.03916E+04 -2.36975E+04  3.95131E+03 -2.22405E+04  1.80424E+04 -2.02586E+04
  2.91011E+04 -1.35784E+04  3.64632E+04  3.72146E+03  2.60468E+04  2.22585E+04  4.12793E+03  3.84899E+04
 -1.85678E+04  3.23317E+04 -2.94514E+04  1.09962E+04 -2.14619E+04 -1.08390E+04 -4.68498E+03 -1.30985E+04
  1.74022E+03 -1.74690E+03 -6.63666E+03  7.52588E+03 -1.75401E+04  4.64883E+03 -1.86117E+04 -8.19084E+03
 -1.11293E+04 -2.05156E+04  5.59607E+03 -2.58133E+04  1.72658E+04 -1.79426E+04  1.98056E+04 -1.52009E+03
  1.35231E+04  1.46271E+04 -1.10485E+03  2.12135E+04 -1.51434E+04  1.24450E+04 -2.11133E+04 -4.69737E+03
 -1.53759E+04 -1.91174E+04 -1.91295E+03 -2.56544E+04  1.04700E+04 -2.12533E+04  2.13237E+04 -1.15358E+04
  1.94121E+04 -2.19509E+02  1.50859E+04  4.80468E+03  8.77899E+03  1.15248E+03  1.11754E+04 -1.12643E+03
  1.94869E+04  3.54682E+03  2.13188E+04  1.71522E+04  1.61634E+04  3.37327E+04 -2.02801E+03  3.89009E+04
 -2.28379E+04  3.20745E+04 -3.60150E+04  1.68239E+04 -3.90580E+04 -2.55657E+03 -3.19342E+04 -2.34717E+04
 -1.30594E+04 -3.27898E+04  1.17890E+04 -2.82255E+04  2.46202E+04 -1.43817E+04  2.17781E+04  6.59241E+03
  7.85240E+03  1.63496E+04 -1.05071E+04  1.42324E+04 -1.79981E+04  2.94544E+03 -1.38562E+04 -1.18163E+04
 -4.88399E+02 -1.74324E+04  9.42493E+03 -1.32993E+04  1.22943E+04 -1.66506E+03  3.04487E+03  8.12613E+03
 -8.53019E+03  2.97555E+03 -7.08487E+03 -5.78804E+03 -1.30497E+03 -1.55734E+04  1.08144E+04 -1.72949E+04
  1.95668E+04 -9.63710E+03  2.20804E+04  2.62885E+03  1.91464E+04  1.53247E+04  8.74971E+03  2.42618E+04
 -3.66835E+03  2.62520E+04 -1.71090E+04  1.60916E+04 -1.90602E+04  4.34291E+03 -1.28424E+04 -4.27318E+03
 -5.64900E+03 -6.29156E+03 -7.28900E+02  1.07177E+03 -2.34163E+03  2.66682E+03 -6.77621E+03  4.93431E+03
 -1.18407E+04 -6.49521E+02 -1.32426E+04 -1.07198E+04 -4.79286E+03 -1.69557E+04  5.52926E+03 -1.34257E+04
  1.12367E+04 -5.44572E+03  7.17605E+03  3.58316E+03 -2.27613E+02  5.40202E+03 -5.47763E+03 -9.67246E+01
 -6.27489E+03 -7.81284E+03 -1.11504E+03 -1.25348E+04  7.82239E+03 -1.33815E+04  1.74052E+04 -7.35042E+03
  1.94266E+04  2.26068E+03  1.40769E+04  1.14504E+04  2.95352E+03  1.51055E+04 -8.28842E+03  1.28800E+04
 -1.01232E+04  3.93949E+03 -5.91276E+03 -2.80996E+03  1.26401E+03 -3.98363E+03  6.94379E+03 -6.23547E+02
  6.25254E+03  5.67326E+03  9.96900E+02  1.12465E+04 -7.05452E+03  1.02331E+04 -1.29396E+04  2.15086E+03
 -8.60802E+03 -7.01905E+03  1.52729E+02 -1.08641E+04  7.06502E+03 -5.36437E+03  7.31574E+03  3.01738E+03
  1.55214E+03  7.74988E+03 -6.25685E+03  9.56087E+03 -1.07386E+04  4.37433E+03 -1.04973E+04 -3.70845E+03
 -6.33886E+03 -1.23158E+04  3.12693E+03 -1.40820E+04  1.23110E+04 -8.57142E+03  1.27833E+04  2.26425E+03
  8.16521E+03  9.99801E+03 -1.04605E+03  1.30012E+04 -9.79224E+03  8.23853E+03 -1.00646E+04 -1.49646E+03
 -8.56556E+03 -8.50761E+03 -2.18680E+03 -9.06040E+03  5.06462E+03 -7.21108E+03  6.31822E+03 -2.86015E+03
  3.94196E+03  2.33671E+03 -1.41843E+03  1.70867E+03  3.84350E+02 -1.38509E+03  1.43231E+03 -5.40185E+03
  8.64783E+03 -3.25862E+03  1.21295E+04  1.40349E+03  1.24822E+04  7.97108E+03  8.86155E+03  1.66936E+04
 -3.71382E+03  1.80862E+04 -1.53118E+04  1.34023E+04 -2.01432E+04  2.34799E+03 -1.55353E+04 -6.73795E+03
 -8.74406E+03 -1.32163E+04 -5.70748E+02 -1.15601E+04  4.24947E+03 -6.16235E+03  3.61839E+03 -4.53845E+03
  2.95676E+03 -1.88738E+03  3.08769E+03 -3.12341E+03  4.22714E+03 -3.17717E+03  6.33975E+03 -3.06347E+02
  8.63321E+03  1.87834E+03  4.91033E+03  7.79391E+03 -2.13491E+03  7.65861E+03 -8.12717E+03  5.74294E+03
 -1.06341E+04 -1.43001E+03 -7.01444E+03 -7.23259E+03 -1.07944E+03 -1.20055E+04  6.89690E+03 -1.13904E+04
  1.26899E+04 -6.61210E+03  1.44759E+04  1.33106E+03  1.11693E+04  9.95465E+03  2.11621E+03  1.34470E+04
 -5.77639E+03  1.13130E+04 -8.24642E+03  4.12286E+03 -5.56328E+03 -1.53772E+03 -2.11623E+03 -1.38782E+03
 -8.34969E+02 -3.85046E+02 -1.50936E+03  2.86474E+03 -4.18631E+03  1.60229E+03 -7.97873E+03 -1.41197E+03
 -5.25055E+03 -7.46191E+03 -3.30179E+02 -1.08118E+04  6.11166E+03 -1.00273E+04  1.03684E+04 -3.09714E+03
  9.96927E+03  5.19254E+03  5.82393E+03  9.87454E+03 -2.04924E+03  1.12416E+04 -7.32367E+03  7.03806E+03
 -1.00002E+04  2.90252E+02 -8.32791E+03 -6.76483E+03 -1.25918E+03 -8.53713E+03  4.54104E+03 -6.96397E+03
  6.55606E+03 -2.37223E+03  4.49154E+03  1.46519E+03  1.85589E+03  3.21606E+03  1.12018E+03  1.04430E+03
  2.92437E+03  1.04699E+03  2.51264E+03  1.73891E+03  3.60611E+03  3.91939E+03  3.37729E+03  5.70386E+03
 -3.03664E+03  8.92012E+03 -7.64437E+03  8.89393E+03 -1.06715E+04  1.79342E+03 -1.10745E+04 -4.56815E+03
 -4.51866E+03 -1.03036E+04  1.24029E+03 -1.20694E+04  6.13031E+03 -7.35836E+03  8.59405E+03 -1.90581E+03
  6.80325E+03  4.19848E+03  1.41878E+03  5.60641E+03 -2.79512E+03  4.27060E+03 -4.07128E+03  4.94974E+01
 -1.95087E+03 -3.49573E+03  2.96993E+03 -4.70167E+03  3.89423E+03 -2.29942E+03  4.73450E+03  1.54023E+03
  2.72211E+03  2.35431E+03  1.44016E+03  1.19976E+03 -9.20354E+02  1.08048E+03  1.10133E+03 -6.47521E+02
  1.33546E+03 -9.51615E+02  4.36174E+03  1.91227E+03  1.33466E+03  5.28738E+03 -4.77443E+02  7.48136E+03
 -5.03303E+03  4.14696E+03 -6.36627E+03  8.58060E+02 -6.11141E+03 -2.51363E+03 -2.19424E+03 -4.37399E+03
  9.86378E+02 -3.32138E+03  2.66110E+03 -1.88400E+03  2.31873E+03  2.36440E+03 -1.12774E+03  3.40364E+03
 -3.99486E+03  2.29336E+03 -4.87445E+03 -3.14207E+03 -2.69498E+03 -6.81365E+03  1.33521E+03 -5.98064E+03
  3.37137E+03 -2.75573E+03  3.67304E+03 -2.75000E+02  3.62595E+03  1.19496E+03  7.44534E+02  2.69736E+03
 -2.33423E+03  9.40732E+02 -2.07194E+03 -1.74120E+03  1.09969E+03 -4.11574E+03  5.27888E+03 -2.89056E+03
  5.68740E+03  4.12428E+02  6.63055E+03  4.09046E+03  2.24954E+03  5.90977E+03 -1.50276E+03  6.03307E+03
 -4.78293E+03  2.51298E+03 -4.76326E+03 -7.05534E+02 -2.96641E+03 -3.67812E+03  5.04555E+02 -4.10120E+03
  3.72989E+03 -2.11187E+03  2.95745E+03  2.09990E+03  6.93226E+02  3.38631E+03 -1.09449E+03  2.70104E+03
 -1.79665E+03  1.69148E+03 -1.42553E+03  3.19509E+02 -3.27814E+02  3.07020E+02 -1.33430E+03  1.08734E+03
 -1.51466E+03  2.59319E+03 -3.96894E+03  2.72302E+03 -6.35552E+03  1.56581E+02 -7.36469E+03 -4.19158E+03
 -4.31927E+03 -7.80864E+03  1.19490E+03 -1.00015E+04  5.94155E+03 -7.32601E+03  9.23101E+03 -2.56173E+03
  8.51269E+03  3.16007E+02  5.15963E+03  5.61775E+03  4.96706E+01  5.66538E+03 -2.52908E+03  4.06590E+03
 -3.65230E+03  1.29719E+03 -3.03703E+03 -5.26366E+02 -3.06833E+02 -4.98614E+02 -6.06125E+02  4.23899E+02
 -1.28718E+03  3.33452E+02 -1.06769E+03  1.49347E+02 -2.45545E+02 -1.47073E+03  5.14258E+02 -2.93939E+03
  4.11130E+03 -2.10302E+03  3.64218E+03 -2.10750E+02  4.40568E+03  2.82155E+03  2.37810E+02  6.25041E+03
 -3.18727E+03  7.37997E+03 -6.63501E+03  4.19516E+03 -7.60400E+03 -7.76678E+02 -5.05913E+03 -4.60897E+03
 -2.12017E+03 -6.14220E+03  2.01256E+03 -5.31263E+03  3.60744E+03 -3.34527E+03  4.30924E+03 -2.98059E+01
  2.35128E+03  1.52092E+03 -6.17630E+02  1.03403E+03 -6.81995E+02 -2.88348E+02 -2.79278E+01 -1.59640E+03
  2.02410E+03 -6.25453E+02  2.18128E+03  9.69730E+02  1.28560E+03  2.36648E+03  4.31644E+01  2.68971E+03
 -2.80696E+03  2.36435E+03 -3.84622E+03  3.37827E+02 -3.23047E+03 -2.09358E+03 -7.16476E+02 -4.75989E+03
  2.99355E+03 -3.49710E+03  3.79130E+03 -1.31629E+03  4.65578E+03  7.37966E+02  2.96059E+03  4.05094E+03
 -2.98602E+00  3.43053E+03 -1.78032E+03  3.69016E+03 -2.45408E+03  1.65126E+03 -2.19935E+03 -1.78628E+02
 -7.33653E+02 -4.34081E+02 -9.54606E+02  6.20972E+02 -2.14734E+03  1.52311E+03 -2.27883E+03 -3.12995E+02
 -3.55057E+03 -1.51328E+03 -1.52731E+03 -3.93244E+03  2.18652E+03 -4.64341E+03  2.64357E+03 -1.55342E+03
  3.68534E+03  1.94509E+02  2.34989E+03  1.84703E+03 -4.77612E+02  3.58548E+03 -2.75132E+03  2.44693E+03
