 $NMID ID='MM_0lb_SNR400_15hz_g40_97.RAW', FMTDAT='(8E13.5)'
 TRAMP=1., VOLUME=1. $END
  3.09655E+05  5.40415E+02  3.37623E+05  2.50771E+05  8.47344E+04  3.37295E+05 -1.31991E+05  2.50358E+05
 -1.89693E+05  8.30470E+04 -1.12037E+05 -3.33844E+04  1.01596E+03 -5.07635E+04  5.32971E+04  1.86986E+02
  3.49768E+04  5.30258E+04 -1.69731E+04  7.55847E+04 -6.07596E+04  6.32995E+04 -8.29443E+04  3.12937E+04
 -8.00506E+04 -1.15835E+04 -5.67925E+04 -5.15358E+04 -1.46867E+04 -6.97355E+04  2.69933E+04 -4.50830E+04
  3.96333E+04  4.25177E+03  1.57730E+04  4.74121E+04 -3.34817E+04  4.64719E+04 -6.58524E+04 -7.99414E+01
 -5.25766E+04 -5.66320E+04 -6.00794E+03 -7.60137E+04  3.37642E+04 -5.44137E+04  4.63381E+04 -1.71761E+04
  4.29368E+04  1.10824E+04  3.12655E+04  2.55070E+04  1.60664E+04  2.86576E+04 -5.10840E+03  2.71605E+04
 -2.14588E+04  1.24386E+04 -1.89553E+04 -5.10065E+03  5.23536E+03 -7.12802E+03  2.13954E+04  1.17941E+04
  7.61655E+03  3.45340E+04 -3.09971E+04  3.40528E+04 -6.26825E+04  2.32397E+03 -5.66675E+04 -4.18638E+04
 -1.26112E+04 -6.20689E+04  3.91467E+04 -4.45587E+04  5.71493E+04 -1.87977E+03  3.33469E+04  3.13030E+04
 -6.58545E+03  3.47348E+04 -2.89712E+04  1.41998E+04 -2.93771E+04 -5.13425E+03 -1.51372E+04 -1.02523E+04
 -7.72116E+03 -1.21860E+04 -9.65383E+02 -1.75324E+04  7.49767E+03 -2.25910E+04  1.52836E+04 -1.35549E+04
  1.17700E+04  4.77367E+03 -7.32104E+03  1.29100E+04 -1.91108E+04 -3.48902E+03 -7.86231E+03 -3.20015E+04
  2.14635E+04 -4.19787E+04  4.70865E+04 -1.91549E+04  4.34971E+04  1.89484E+04  1.48475E+04  4.27078E+04
 -1.58420E+04  3.28017E+04 -2.48468E+04  1.16212E+03 -8.75149E+03 -2.72959E+04  2.03072E+04 -3.26189E+04
  3.95297E+04 -7.82661E+03  3.41227E+04  2.34426E+04  1.66046E+04  4.46462E+04 -8.11087E+03  4.78880E+04
 -3.04121E+04  3.19695E+04 -3.93125E+04  8.52490E+03 -4.07979E+04 -1.56108E+04 -2.21461E+04 -3.63531E+04
  7.18249E+03 -3.53897E+04  3.05111E+04 -1.39053E+04  2.78209E+04  1.08474E+04  3.69487E+03  1.83320E+04
 -1.35515E+04  7.96177E+03 -9.92191E+03 -7.91370E+03  5.59945E+03 -1.05273E+04  1.69686E+04  6.14127E+03
  1.28700E+04  2.17071E+04 -6.28859E+03  2.36701E+04 -2.15866E+04  1.03010E+04 -2.68580E+04 -5.80767E+03
 -1.90114E+04 -1.74372E+04 -7.14051E+03 -1.85454E+04  3.66884E+03 -1.72081E+04  1.47326E+04 -1.66363E+04
  2.38735E+04 -1.23543E+04  3.05850E+04  2.17911E+03  2.28388E+04  1.83591E+04  3.76765E+03  3.41188E+04
 -1.62821E+04  2.95017E+04 -2.70647E+04  1.03036E+04 -2.01249E+04 -1.03939E+04 -4.76097E+03 -1.39600E+04
  1.94667E+03 -4.00583E+03 -3.72389E+03  6.04141E+03 -1.47641E+04  4.60272E+03 -1.49772E+04 -5.85829E+03
 -9.12652E+03 -1.74104E+04  4.63525E+03 -2.15310E+04  1.31883E+04 -1.52397E+04  1.62490E+04 -1.69521E+03
  1.01411E+04  1.19206E+04 -6.22383E+02  1.73901E+04 -1.20876E+04  9.87371E+03 -1.76076E+04 -3.75113E+03
 -1.28474E+04 -1.59237E+04 -1.76466E+03 -2.09391E+04  1.00782E+04 -1.71706E+04  1.81345E+04 -8.11973E+03
  1.67173E+04  6.04197E+02  1.16104E+04  4.12251E+03  6.57780E+03  3.36148E+02  8.52680E+03 -1.71914E+03
  1.54874E+04  2.88670E+03  1.77074E+04  1.43191E+04  1.11631E+04  2.79926E+04 -3.20844E+03  3.12060E+04
 -1.80803E+04  2.45733E+04 -2.87650E+04  1.22237E+04 -2.98947E+04 -2.41109E+03 -2.46844E+04 -1.75970E+04
 -1.06813E+04 -2.46628E+04  8.28441E+03 -2.24764E+04  1.93260E+04 -1.18157E+04  1.72698E+04  5.21479E+03
  7.05676E+03  1.23031E+04 -7.93865E+03  1.22589E+04 -1.48028E+04  2.09230E+03 -1.21728E+04 -8.84044E+03
 -1.54158E+01 -1.45661E+04  6.85973E+03 -1.12817E+04  9.34109E+03 -1.23741E+03  1.81707E+03  6.50144E+03
 -5.88598E+03  2.49780E+03 -4.75389E+03 -4.76699E+03  2.35855E+02 -1.17168E+04  8.87804E+03 -1.20421E+04
  1.48728E+04 -5.92755E+03  1.55508E+04  3.39169E+03  1.32244E+04  1.15915E+04  6.05957E+03  1.79722E+04
 -3.22738E+03  1.93920E+04 -1.25633E+04  1.23503E+04 -1.39047E+04  2.91428E+03 -1.00621E+04 -3.12917E+03
 -5.19253E+03 -3.92534E+03 -7.64754E+02  1.43719E+03 -2.51851E+03  1.77601E+03 -4.52715E+03  3.82396E+03
 -9.61169E+03 -4.55816E+02 -1.01760E+04 -8.52068E+03 -3.71415E+03 -1.31056E+04  4.31563E+03 -1.03683E+04
  8.56316E+03 -3.80177E+03  7.02646E+03  2.65338E+03  5.86264E+02  3.88817E+03 -4.96082E+03  2.46975E+01
 -4.35455E+03 -6.76666E+03 -1.18893E+03 -8.98156E+03  5.29133E+03 -9.65568E+03  1.20622E+04 -5.78903E+03
  1.42002E+04  1.22895E+03  1.07011E+04  8.16232E+03  2.37832E+03  1.14641E+04 -6.53641E+03  1.01531E+04
 -8.16301E+03  3.37555E+03 -4.84686E+03 -1.36422E+03  1.40093E+03 -2.67666E+03  6.08658E+03 -8.42499E+02
  4.68825E+03  3.73506E+03  9.62255E+02  8.71004E+03 -5.54855E+03  7.66824E+03 -9.94857E+03  2.01445E+03
 -6.17686E+03 -4.84873E+03  8.38475E+02 -8.21374E+03  5.42782E+03 -3.94598E+03  5.42630E+03  1.77212E+03
  1.06863E+03  5.41868E+03 -4.65950E+03  6.58447E+03 -6.84853E+03  2.86615E+03 -6.91183E+03 -1.99740E+03
 -3.60484E+03 -8.30805E+03  2.06898E+03 -1.00442E+04  8.05067E+03 -6.40404E+03  8.88492E+03  1.92656E+03
  5.83603E+03  7.45826E+03 -5.35306E+02  9.29840E+03 -6.35144E+03  4.79826E+03 -6.82509E+03 -3.24991E+02
 -7.03493E+03 -5.67050E+03 -1.54213E+03 -6.36786E+03  3.15252E+03 -5.10541E+03  3.81664E+03 -3.09899E+03
  3.18231E+03  4.11586E+02 -8.87762E+01  1.50458E+03  3.91987E+02 -9.79750E+02  8.61273E+02 -3.09430E+03
  5.69107E+03 -1.74036E+03  8.34345E+03  1.13491E+03  7.55293E+03  5.61982E+03  6.81661E+03  1.01844E+04
 -2.22120E+03  1.21807E+04 -1.07445E+04  8.38174E+03 -1.29474E+04  1.95229E+03 -1.09897E+04 -3.75431E+03
 -4.91921E+03 -9.18457E+03 -5.47216E+02 -7.34074E+03  3.01392E+03 -3.19593E+03  2.76625E+03 -2.78335E+03
  1.99801E+03 -1.55969E+03  1.95719E+03 -2.44863E+03  4.56544E+03 -1.43155E+03  4.91017E+03  6.01639E+01
  6.04320E+03  1.14619E+03  1.71807E+03  4.92087E+03 -1.64114E+03  4.76682E+03 -6.09736E+03  3.79910E+03
 -7.49844E+03 -1.69552E+02 -4.01135E+03 -4.60118E+03 -4.96768E+02 -7.45168E+03  4.43755E+03 -7.54429E+03
  7.48467E+03 -4.25899E+03  9.28125E+03  7.85143E+02  6.66286E+03  6.48066E+03  1.53805E+03  9.01894E+03
 -2.74722E+03  7.97297E+03 -4.83200E+03  2.23823E+03 -2.82987E+03 -1.09107E+03 -1.08116E+03 -5.90273E+02
 -1.13029E+03  8.68227E+01 -1.04020E+03  2.37099E+03 -3.06646E+03  1.76560E+03 -5.37119E+03 -7.36779E+02
 -3.03282E+03 -5.81689E+03  1.41402E+03 -6.68207E+03  4.37352E+03 -6.29215E+03  6.38195E+03 -1.86466E+03
  6.15698E+03  3.31037E+03  2.94407E+03  5.05445E+03 -5.01322E+02  7.21111E+03 -4.28405E+03  4.11488E+03
 -5.95127E+03  5.46400E+02 -4.79158E+03 -3.98799E+03 -3.90994E+02 -5.36033E+03  2.31321E+03 -4.07790E+03
  3.91211E+03 -1.34838E+03  2.45170E+03  4.05784E+02  7.16677E+02  2.79786E+03  1.55488E+03  9.27382E+02
  1.32759E+03  6.50003E+02  1.27983E+03  1.20326E+03  1.77750E+03  2.49859E+03  1.73205E+03  2.58515E+03
 -2.18553E+03  4.72707E+03 -3.73075E+03  5.28997E+03 -4.93280E+03  1.35752E+03 -6.88291E+03 -1.45273E+03
 -2.69365E+03 -5.44881E+03  1.14227E+03 -7.12822E+03  3.82232E+03 -4.18270E+03  4.65941E+03 -1.49761E+03
  4.41141E+03  2.19810E+03  1.29051E+03  4.34798E+03 -1.52580E+03  2.43702E+03 -2.50527E+03 -8.84885E+02
 -1.03944E+03 -2.79833E+03  1.91776E+03 -2.63425E+03  2.30904E+03 -2.14200E+03  2.71142E+03 -1.06885E+01
  8.45721E+02  9.25096E+02  7.80382E+02  3.57409E+02 -1.59156E+02  1.64215E+03  1.63947E+03 -1.03112E+01
  5.93997E+02 -2.70869E+02  2.90724E+03  8.84713E+02  1.03449E+03  3.48608E+03 -5.60314E+02  3.28318E+03
 -2.57509E+03  2.92844E+03 -3.25210E+03  6.46685E+02 -2.93201E+03 -1.15777E+03 -7.00600E+02 -1.82742E+03
  1.26578E+03 -2.22031E+03  1.36180E+03 -7.70799E+02  8.79985E+02  1.77254E+03 -1.11618E+03  1.04773E+03
 -2.08775E+03  1.16412E+03 -2.77613E+03 -1.17613E+03 -1.46145E+03 -3.87836E+03  4.47113E+02 -3.34596E+03
  1.36642E+03 -1.56686E+03  2.03743E+03  1.19410E+02  2.13181E+03 -1.36988E+02  4.00682E+02  1.53096E+03
 -3.88360E+02  7.05988E+02 -1.33273E+03 -7.18726E+02  8.13736E+02 -1.77101E+03  2.23056E+03 -1.81803E+03
  2.79959E+03  5.66793E+02  4.37654E+03  2.03575E+03  1.12112E+03  3.80065E+03 -6.49995E+02  4.10509E+03
 -3.15821E+03  1.22646E+03 -2.92870E+03 -1.18520E+02 -1.56049E+03 -2.36222E+03  1.11376E+03 -1.68784E+03
  2.18970E+03 -1.32887E+03  1.31259E+03  1.38840E+03  4.39399E+02  2.13504E+03  2.00869E+02  1.59593E+03
 -5.79355E+02  1.83968E+03 -3.65980E+02  8.84822E+02 -2.72129E+02  3.55184E+01 -1.08587E+03  5.32744E+02
 -8.90285E+02  1.27628E+03 -3.72015E+03  1.08872E+03 -3.52587E+03 -5.86482E+01 -4.51437E+03 -1.87578E+03
 -1.85387E+03 -4.58361E+03  6.70468E+02 -5.27770E+03  2.45068E+03 -4.06680E+03  5.11830E+03 -1.60730E+03
  4.35252E+03  5.79998E+02  2.43263E+03  3.01224E+03 -3.96093E+02  3.47900E+03 -1.41081E+03  2.35276E+03
 -1.97094E+03  1.71233E+03 -1.09927E+03 -4.23250E+02 -1.40074E+03  9.12280E+01 -1.88583E+02  2.29865E+02
 -1.23446E+03  3.93889E+01 -1.14746E+03  1.41068E+02  5.37131E+02 -9.11630E+02  3.12020E+02 -1.01258E+03
  1.52440E+03 -1.07197E+03  1.12470E+03 -1.85679E+02  2.33428E+03  1.95695E+03  1.18938E+01  3.56053E+03
 -2.15454E+03  3.75530E+03 -3.34477E+03  2.42723E+03 -3.48532E+03  1.26945E+02 -2.63186E+03 -2.67319E+03
 -1.33079E+03 -3.68964E+03  5.69972E+02 -2.45455E+03  2.03601E+03 -2.10783E+03  2.04582E+03  1.09970E+02
  1.08158E+03  9.17026E+02 -3.94267E+01  4.77213E+02 -4.71065E+02  7.27715E+02 -1.24139E+02 -5.03485E+02
  6.80376E+02 -1.10408E+02  1.02070E+03  9.66890E+02  9.61166E+02  8.77891E+02 -6.89088E+02  1.31543E+03
 -1.57577E+03  9.34096E+02 -2.23270E+03  1.20230E+01 -1.75604E+03 -1.54108E+03  9.78826E+01 -2.67174E+03
  1.21353E+03 -1.91384E+03  1.51800E+03 -6.10843E+02  2.38981E+03  2.06540E+02  5.25123E+02  2.23878E+03
  2.88466E+02  2.11392E+03 -4.04427E+02  1.98229E+03 -1.26581E+03  1.24094E+03 -1.13928E+03  3.49067E+02
 -7.56415E+02 -4.95228E+02 -8.91567E+02  1.81972E+02 -1.09989E+03  1.32417E+02 -1.63561E+03 -2.04869E+02
 -1.27311E+03 -4.16478E+02 -8.05732E+02 -1.97470E+03  1.20110E+03 -2.53097E+03  1.19317E+03 -1.38631E+02
  2.33551E+03  8.21706E+02 -3.90684E+02  9.49130E+02 -7.05772E+01  2.11297E+03 -9.38201E+02  1.25274E+03
