 $NMID ID='MM_0lb_SNR400_7hz_g50_88.RAW', FMTDAT='(8E13.5)'
 TRAMP=1., VOLUME=1. $END
  3.08916E+05  9.16530E+02  3.38399E+05  2.51188E+05  8.53811E+04  3.38445E+05 -1.32818E+05  2.52273E+05
 -1.90960E+05  8.47567E+04 -1.13922E+05 -3.24266E+04  3.95598E+02 -5.19838E+04  5.35582E+04 -1.20680E+03
  3.59906E+04  5.26484E+04 -1.64158E+04  7.64002E+04 -6.17585E+04  6.50793E+04 -8.50427E+04  3.25802E+04
 -8.28386E+04 -1.13502E+04 -5.82287E+04 -5.35561E+04 -1.46900E+04 -7.21240E+04  2.89680E+04 -4.67494E+04
  4.19772E+04  4.39297E+03  1.62497E+04  4.88905E+04 -3.41420E+04  4.85965E+04 -6.83624E+04  1.17335E+02
 -5.59972E+04 -5.84686E+04 -7.13890E+03 -8.04601E+04  3.52704E+04 -5.82040E+04  5.04791E+04 -1.90600E+04
  4.62885E+04  1.12628E+04  3.33943E+04  2.62940E+04  1.59908E+04  3.03839E+04 -5.56325E+03  2.82661E+04
 -2.18030E+04  1.18635E+04 -1.71744E+04 -6.17446E+03  7.67200E+03 -6.76432E+03  2.44210E+04  1.47784E+04
  7.23830E+03  3.93109E+04 -3.50030E+04  3.68567E+04 -6.72851E+04  2.24441E+03 -5.98809E+04 -4.55033E+04
 -1.32057E+04 -6.67941E+04  4.23050E+04 -4.83258E+04  6.20463E+04 -2.57687E+03  3.69699E+04  3.41769E+04
 -4.84780E+03  4.09800E+04 -3.22549E+04  1.92747E+04 -3.44307E+04 -4.01718E+03 -1.97090E+04 -1.28366E+04
 -9.87481E+03 -1.63840E+04 -3.38774E+02 -2.09888E+04  9.67377E+03 -2.27994E+04  1.58955E+04 -1.24520E+04
  9.87460E+03  6.39588E+03 -1.12620E+04  1.31558E+04 -2.47474E+04 -8.25953E+03 -9.15055E+03 -3.84226E+04
  2.61287E+04 -4.77533E+04  5.30992E+04 -2.19362E+04  5.01881E+04  2.12090E+04  1.72300E+04  4.73058E+04
 -1.68818E+04  3.75936E+04 -2.83095E+04  3.86057E+03 -1.29294E+04 -2.97967E+04  2.19094E+04 -3.87491E+04
  4.66490E+04 -1.08733E+04  4.24309E+04  2.58026E+04  2.28164E+04  5.33511E+04 -8.73358E+03  5.85738E+04
 -3.69903E+04  4.01560E+04 -4.97814E+04  1.18213E+04 -4.98627E+04 -1.92021E+04 -2.76047E+04 -4.37277E+04
  8.71837E+03 -4.42098E+04  3.47954E+04 -1.83595E+04  3.35891E+04  1.11033E+04  5.07524E+03  2.09719E+04
 -1.34855E+04  1.04949E+04 -1.12383E+04 -6.72000E+03  5.68717E+03 -1.15393E+04  1.92508E+04  4.99163E+03
  1.49682E+04  2.32700E+04 -4.34357E+03  2.76725E+04 -2.45736E+04  1.53428E+04 -3.27514E+04 -2.62034E+03
 -2.71495E+04 -1.90715E+04 -1.32353E+04 -2.64967E+04  4.53104E+03 -2.81427E+04  2.23413E+04 -2.54243E+04
  3.45762E+04 -1.42288E+04  4.09863E+04  5.91304E+03  2.76925E+04  2.61941E+04  4.63275E+03  4.36181E+04
 -2.13330E+04  3.49637E+04 -3.23203E+04  1.29691E+04 -2.31181E+04 -9.63548E+03 -4.79594E+03 -1.25741E+04
  2.42722E+02 -6.75336E+02 -8.65421E+03  8.69530E+03 -2.18225E+04  4.93290E+03 -2.16552E+04 -9.98292E+03
 -1.19366E+04 -2.49877E+04  6.63181E+03 -3.02714E+04  2.04682E+04 -2.08982E+04  2.41821E+04 -2.50352E+03
  1.58984E+04  1.74940E+04 -2.59490E+03  2.48226E+04 -1.86796E+04  1.44312E+04 -2.56384E+04 -6.02033E+03
 -1.92929E+04 -2.18148E+04 -2.19897E+03 -2.97388E+04  1.41384E+04 -2.52468E+04  2.44909E+04 -1.29450E+04
  2.33156E+04  4.02446E+02  1.76863E+04  5.35638E+03  9.95187E+03  6.96975E+02  1.30582E+04 -2.48957E+03
  2.46349E+04  3.84256E+03  2.89321E+04  1.95843E+04  1.87180E+04  4.12885E+04 -3.40479E+03  4.83939E+04
 -2.67315E+04  4.17123E+04 -4.63412E+04  2.24022E+04 -5.05074E+04 -3.29279E+03 -4.03457E+04 -2.90100E+04
 -1.63007E+04 -4.13306E+04  1.48747E+04 -3.55873E+04  3.07725E+04 -1.59711E+04  2.72062E+04  8.03645E+03
  9.05745E+03  2.03897E+04 -1.21007E+04  1.70728E+04 -2.10789E+04  2.70886E+03 -1.66411E+04 -1.36291E+04
 -5.54402E+02 -2.13019E+04  1.14676E+04 -1.57508E+04  1.44298E+04 -1.36769E+03  4.73186E+03  9.38720E+03
 -9.54518E+03  4.86353E+03 -1.05258E+04 -7.51400E+03 -3.35250E+03 -1.98242E+04  1.31022E+04 -2.25312E+04
  2.59814E+04 -1.22752E+04  3.01585E+04  3.10022E+03  2.51180E+04  2.06887E+04  1.21270E+04  3.36392E+04
 -7.01651E+03  3.48072E+04 -2.36792E+04  2.10098E+04 -2.57184E+04  3.42530E+03 -1.71805E+04 -5.75146E+03
 -6.74202E+03 -8.45135E+03 -1.09582E+03  5.18721E+02 -3.02352E+03  4.34884E+03 -8.75662E+03  6.74607E+03
 -1.55457E+04 -8.68121E+02 -1.66352E+04 -1.27880E+04 -6.65196E+03 -2.23662E+04  7.71098E+03 -1.70540E+04
  1.37877E+04 -6.99269E+03  1.06728E+04  4.83387E+03  8.73053E+02  7.06006E+03 -8.86347E+03  3.90307E+01
 -8.42312E+03 -1.14664E+04 -2.19884E+03 -1.75756E+04  1.06228E+04 -1.89166E+04  2.35731E+04 -9.76579E+03
  2.68100E+04  3.09615E+03  1.97243E+04  1.64125E+04  4.26066E+03  2.17989E+04 -1.07263E+04  1.75760E+04
 -1.40043E+04  3.74162E+03 -8.08817E+03 -3.37264E+03  2.37310E+03 -5.07854E+03  9.55831E+03 -1.77673E+03
  9.35566E+03  8.47716E+03  9.86553E+02  1.51184E+04 -1.05699E+04  1.40483E+04 -1.78208E+04  2.84788E+03
 -1.20604E+04 -9.92049E+03  4.83668E+02 -1.61873E+04  1.07344E+04 -8.19792E+03  1.07445E+04  3.94424E+03
  2.87439E+03  1.19233E+04 -9.73458E+03  1.43422E+04 -1.65081E+04  6.55622E+03 -1.72359E+04 -5.87143E+03
 -9.28572E+03 -1.99294E+04  4.15575E+03 -2.25099E+04  1.82279E+04 -1.23510E+04  2.08794E+04  3.38972E+03
  1.11153E+04  1.57930E+04 -2.48667E+03  1.77341E+04 -1.35746E+04  1.12247E+04 -1.41804E+04 -2.03254E+03
 -1.19506E+04 -1.18798E+04 -2.27725E+03 -1.54236E+04  7.36083E+03 -1.09633E+04  9.89380E+03 -3.07692E+03
  5.34617E+03  2.74052E+03 -7.26370E+02  1.17315E+03 -9.28699E+02 -4.50297E+03  3.26611E+03 -9.77204E+03
  1.42582E+04 -6.58929E+03  1.91243E+04  1.41183E+03  1.89786E+04  1.32192E+04  1.14009E+04  2.51621E+04
 -6.30753E+03  2.86158E+04 -2.40063E+04  2.04058E+04 -3.16961E+04  4.22190E+03 -2.46108E+04 -1.12862E+04
 -1.24765E+04 -1.99726E+04 -1.28852E+03 -1.76545E+04  5.65852E+03 -1.07118E+04  6.70844E+03 -6.97107E+03
  4.58244E+03 -3.55465E+03  4.10334E+03 -4.57271E+03  6.11020E+03 -4.17027E+03  9.02784E+03 -1.95253E+03
  1.27360E+04  2.98795E+03  7.55446E+03  1.09777E+04 -2.35138E+03  1.34310E+04 -1.37939E+04  1.10326E+04
 -1.88470E+04 -2.38281E+03 -1.14942E+04 -1.30044E+04 -2.36259E+03 -1.93406E+04  1.08270E+04 -2.01100E+04
  2.08946E+04 -1.11050E+04  2.29712E+04  4.36943E+03  1.66100E+04  1.68875E+04  1.59538E+03  2.22946E+04
 -9.35889E+03  1.77450E+04 -1.30504E+04  5.96448E+03 -8.87578E+03 -1.90515E+03 -2.81335E+03 -2.39344E+03
 -1.59863E+03 -9.99038E+02 -2.30367E+03  3.78328E+03 -8.16144E+03  3.00868E+03 -1.21878E+04 -1.94619E+03
 -8.98801E+03 -1.18288E+04 -8.35210E+02 -1.85254E+04  1.14825E+04 -1.69536E+04  1.91227E+04 -5.10423E+03
  1.82401E+04  9.00397E+03  9.68459E+03  1.79469E+04 -4.16166E+03  1.78782E+04 -1.36396E+04  1.14624E+04
 -1.69797E+04  1.01105E+03 -1.31516E+04 -1.10751E+04 -5.94984E+02 -1.59907E+04  7.45815E+03 -1.19337E+04
  1.12309E+04 -2.84883E+03  7.30516E+03  3.02152E+03  3.33212E+03  5.98719E+03  2.30740E+03  2.66334E+03
  3.23226E+03  1.99681E+03  5.12133E+03  2.43491E+03  5.85726E+03  6.66326E+03  4.94440E+03  9.61891E+03
 -3.72548E+03  1.55759E+04 -1.40502E+04  1.42288E+04 -2.06922E+04  3.85136E+03 -2.05929E+04 -9.20355E+03
 -9.81983E+03 -1.96086E+04  1.90640E+03 -2.09856E+04  1.19493E+04 -1.30907E+04  1.67611E+04 -3.76908E+03
  1.24881E+04  7.09311E+03  2.51740E+03  1.03590E+04 -4.61849E+03  7.46237E+03 -8.45918E+03 -1.52274E+03
 -4.00655E+03 -7.83895E+03  4.52153E+03 -9.58421E+03  8.29040E+03 -3.90762E+03  7.58421E+03  2.10848E+03
  4.75263E+03  4.41291E+03  1.91413E+03  3.09646E+03 -5.75758E+02  3.17590E+03  1.75441E+03 -7.09784E+02
  3.90367E+03 -1.20076E+03  7.26331E+03  2.31941E+03  3.96134E+03  1.03774E+04 -1.34236E+03  1.39347E+04
 -9.42040E+03  8.96309E+03 -1.24330E+04  3.69247E+03 -1.19945E+04 -5.02765E+03 -4.42435E+03 -8.38964E+03
  2.18112E+02 -7.32843E+03  4.80125E+03 -3.62596E+03  3.33632E+03  3.79395E+03 -1.83727E+03  6.57494E+03
 -8.36509E+03  4.11538E+03 -1.00492E+04 -4.34880E+03 -4.98266E+03 -1.15249E+04  1.82451E+03 -1.15119E+04
  8.06099E+03 -7.03103E+03  8.21866E+03 -1.24296E+03  7.21160E+03  2.94989E+03  1.20865E+02  5.80103E+03
 -4.00439E+03  1.78583E+03 -5.02772E+03 -4.18882E+03  2.36464E+03 -9.38721E+03  1.00558E+04 -7.45598E+03
  1.38654E+04  7.80097E+02  1.24676E+04  7.87635E+03  3.73375E+03  1.45662E+04 -4.37890E+03  1.33271E+04
 -1.03800E+04  5.10733E+03 -1.15812E+04 -1.91051E+03 -6.91060E+03 -8.05832E+03  2.37309E+03 -8.80023E+03
  8.70891E+03 -3.80492E+03  7.68695E+03  4.75135E+03  2.00074E+03  7.64276E+03 -1.51670E+03  6.70087E+03
 -4.24908E+03  4.24437E+03 -2.87992E+03  1.93261E+03 -1.93442E+03  1.39359E+03 -1.59422E+03  1.51336E+03
 -3.29446E+03  5.24460E+03 -9.54614E+03  4.83917E+03 -1.29184E+04  7.12998E+02 -1.55211E+04 -9.46042E+03
 -7.72669E+03 -1.90934E+04  4.11628E+03 -2.16923E+04  1.38618E+04 -1.64128E+04  2.00343E+04 -6.05415E+03
  1.87691E+04  4.62120E+03  1.18550E+04  1.28688E+04  1.74236E+03  1.42826E+04 -6.09119E+03  1.14473E+04
 -8.57501E+03  4.32856E+03 -4.83402E+03 -1.24554E+03 -1.92831E+03 -1.66475E+03 -5.23517E+02  3.74914E+02
 -1.89172E+03  7.20446E+02 -3.74188E+03 -8.94994E+02 -1.31281E+03 -3.84726E+03  9.19499E+00 -5.35449E+03
  5.75727E+03 -4.40975E+03  8.45422E+03  2.77936E+02  1.17100E+04  7.72039E+03  3.62056E+03  1.40874E+04
 -7.34734E+03  1.68730E+04 -1.54975E+04  9.11651E+03 -1.78766E+04 -1.56963E+03 -1.35454E+04 -1.09469E+04
 -5.16776E+03 -1.51627E+04  3.83645E+03 -1.46462E+04  9.75298E+03 -7.54327E+03  1.00754E+04  3.93532E+02
  6.14859E+03  5.54878E+03 -1.03909E+03  3.97367E+03 -2.90606E+03  7.02618E+01  9.35215E+02 -2.73391E+03
  4.68010E+03 -2.65221E+03  5.65963E+03  2.44101E+03  4.82236E+03  6.13326E+03  9.85708E+02  8.00607E+03
 -6.56166E+03  6.82775E+03 -1.08803E+04  9.31520E+02 -8.98411E+03 -7.13178E+03 -1.77587E+03 -1.35645E+04
  8.73909E+03 -1.05482E+04  1.13003E+04 -2.82452E+03  1.14250E+04  3.62105E+03  6.30331E+03  9.61602E+03
  4.10563E+02  9.60047E+03 -4.41851E+03  8.59189E+03 -6.11287E+03  3.93751E+03 -5.73668E+03  4.07244E+02
 -2.13712E+03  3.40066E+02 -2.52892E+03  1.06498E+03 -4.81925E+03  2.52983E+03 -8.76486E+03 -2.13808E+03
 -7.44669E+03 -5.63692E+03 -2.91959E+03 -1.07348E+04  5.81495E+03 -9.55398E+03  8.06188E+03 -4.89274E+03
  1.04354E+04  6.38865E+02  6.53117E+03  7.35611E+03  1.94296E+02  1.03956E+04 -8.67289E+03  7.48272E+03
