 $NMID ID='MM_0lb_SNR400_9hz_g60_57.RAW', FMTDAT='(8E13.5)'
 TRAMP=1., VOLUME=1. $END
  3.09755E+05  2.31565E+02  3.37612E+05  2.51080E+05  8.47039E+04  3.38351E+05 -1.33380E+05  2.52351E+05
 -1.91452E+05  8.45289E+04 -1.13007E+05 -3.28419E+04 -1.06749E+03 -5.08462E+04  5.40099E+04 -2.87270E+02
  3.51982E+04  5.25200E+04 -1.61356E+04  7.67549E+04 -6.19510E+04  6.38131E+04 -8.65043E+04  3.28777E+04
 -8.28938E+04 -1.18967E+04 -5.77717E+04 -5.35887E+04 -1.44369E+04 -7.13958E+04  2.89940E+04 -4.80554E+04
  4.01148E+04  3.38104E+03  1.73955E+04  4.92317E+04 -3.51226E+04  4.87161E+04 -6.86276E+04 -3.20343E+02
 -5.46848E+04 -5.85626E+04 -7.60371E+03 -7.93607E+04  3.51796E+04 -5.79430E+04  5.09272E+04 -1.81296E+04
  4.58432E+04  1.24437E+04  3.34694E+04  2.78008E+04  1.55414E+04  3.14397E+04 -5.93335E+03  2.72334E+04
 -2.32365E+04  1.21219E+04 -1.82112E+04 -5.88103E+03  7.29476E+03 -7.36831E+03  2.41784E+04  1.44268E+04
  6.61386E+03  3.80177E+04 -3.42971E+04  3.81899E+04 -6.62868E+04  2.96653E+03 -5.93094E+04 -4.44692E+04
 -1.26237E+04 -6.66037E+04  4.18430E+04 -4.81315E+04  6.20543E+04 -3.05295E+03  3.64355E+04  3.46776E+04
 -6.32742E+03  3.95950E+04 -3.27921E+04  1.96325E+04 -3.42926E+04 -2.68110E+03 -2.03333E+04 -1.14234E+04
 -9.73076E+03 -1.52835E+04 -4.61216E+02 -1.96227E+04  9.25345E+03 -2.35324E+04  1.62866E+04 -1.33388E+04
  1.03929E+04  6.15736E+03 -1.13591E+04  1.37066E+04 -2.45077E+04 -7.87711E+03 -8.86345E+03 -3.85271E+04
  2.50787E+04 -4.82271E+04  5.37313E+04 -2.11102E+04  4.94394E+04  2.04877E+04  1.73099E+04  4.81290E+04
 -1.73526E+04  3.61917E+04 -2.79004E+04  2.88439E+03 -1.13193E+04 -2.92115E+04  2.19133E+04 -3.74552E+04
  4.57385E+04 -1.14990E+04  4.14213E+04  2.56568E+04  2.27538E+04  5.13292E+04 -8.27910E+03  5.81709E+04
 -3.60957E+04  3.97763E+04 -4.85124E+04  1.08527E+04 -4.84839E+04 -1.84949E+04 -2.64372E+04 -4.36516E+04
  8.23673E+03 -4.36430E+04  3.56351E+04 -1.75991E+04  3.27030E+04  1.10427E+04  5.45506E+03  2.04537E+04
 -1.42316E+04  9.86435E+03 -1.12283E+04 -6.94150E+03  5.29150E+03 -1.19152E+04  1.85715E+04  5.14161E+03
  1.53387E+04  2.30895E+04 -5.78412E+03  2.74367E+04 -2.41055E+04  1.41838E+04 -3.23726E+04 -2.20172E+03
 -2.68158E+04 -1.89395E+04 -1.27184E+04 -2.66603E+04  4.16487E+03 -2.71098E+04  2.12104E+04 -2.46917E+04
  3.28489E+04 -1.43022E+04  4.00084E+04  5.67415E+03  2.71818E+04  2.61162E+04  4.56256E+03  4.24100E+04
 -2.12826E+04  3.51063E+04 -3.05181E+04  1.18460E+04 -2.29712E+04 -9.74138E+03 -5.94969E+03 -1.27138E+04
  1.05099E+03 -6.85003E+02 -8.05408E+03  8.80086E+03 -2.08097E+04  5.85195E+03 -2.08445E+04 -1.04497E+04
 -1.30416E+04 -2.42363E+04  6.71290E+03 -2.81733E+04  1.99700E+04 -2.09304E+04  2.29842E+04 -2.70370E+03
  1.46626E+04  1.64116E+04 -1.35376E+03  2.43772E+04 -1.77359E+04  1.48229E+04 -2.47285E+04 -5.61144E+03
 -1.78533E+04 -2.24072E+04 -1.56672E+03 -2.95802E+04  1.24395E+04 -2.47962E+04  2.36921E+04 -1.29596E+04
  2.37665E+04 -2.19233E+02  1.63004E+04  5.17619E+03  9.32312E+03  1.98395E+03  1.26890E+04 -1.99861E+03
  2.35859E+04  2.49958E+03  2.74587E+04  1.86295E+04  1.84105E+04  3.94863E+04 -2.76906E+03  4.68958E+04
 -2.61445E+04  3.93751E+04 -4.31391E+04  2.06674E+04 -4.72261E+04 -3.21214E+03 -3.76213E+04 -2.79705E+04
 -1.52851E+04 -3.97798E+04  1.46204E+04 -3.48080E+04  2.93704E+04 -1.58620E+04  2.53018E+04  8.60998E+03
  8.81168E+03  2.03671E+04 -1.26517E+04  1.62553E+04 -2.15893E+04  2.93048E+03 -1.59737E+04 -1.35135E+04
 -3.31200E+02 -2.03893E+04  1.08893E+04 -1.51603E+04  1.43659E+04 -1.46297E+03  4.01393E+03  9.02222E+03
 -9.33718E+03  4.34198E+03 -9.18520E+03 -7.34575E+03 -1.57726E+03 -1.92228E+04  1.25697E+04 -2.06905E+04
  2.41282E+04 -1.21056E+04  2.76380E+04  3.61245E+03  2.44862E+04  1.97101E+04  1.09907E+04  3.08867E+04
 -5.96613E+03  3.30982E+04 -2.19543E+04  2.07098E+04 -2.44038E+04  4.20904E+03 -1.63053E+04 -6.85081E+03
 -7.19040E+03 -7.31333E+03 -7.88007E+02 -2.57689E+02 -3.25585E+03  4.17675E+03 -7.48359E+03  6.20808E+03
 -1.45990E+04 -8.06585E+02 -1.59073E+04 -1.15607E+04 -5.76171E+03 -2.13765E+04  6.51305E+03 -1.64047E+04
  1.35772E+04 -6.93600E+03  9.52087E+03  4.47349E+03 -1.95611E+02  7.66076E+03 -7.84221E+03 -4.81675E+02
 -9.10164E+03 -1.07792E+04 -1.17882E+03 -1.71384E+04  9.88258E+03 -1.73344E+04  2.15105E+04 -9.64975E+03
  2.52282E+04  2.68189E+03  1.85244E+04  1.53649E+04  2.55704E+03  2.05843E+04 -1.06191E+04  1.60032E+04
 -1.34426E+04  3.98597E+03 -7.06699E+03 -4.50323E+03  2.51459E+03 -4.65230E+03  7.98394E+03 -6.80446E+02
  8.37454E+03  7.33104E+03  5.93854E+02  1.28597E+04 -1.05141E+04  1.24546E+04 -1.64869E+04  3.14487E+03
 -1.10127E+04 -9.26507E+03  1.79401E+01 -1.43974E+04  9.32510E+03 -7.26350E+03  1.04568E+04  4.23147E+03
  2.54650E+03  1.10228E+04 -7.59761E+03  1.16053E+04 -1.46007E+04  5.73093E+03 -1.51315E+04 -5.09479E+03
 -8.68159E+03 -1.61369E+04  4.86931E+03 -1.98850E+04  1.63914E+04 -1.07928E+04  1.85922E+04  3.54563E+03
  1.10765E+04  1.43096E+04 -2.19642E+03  1.67158E+04 -1.24580E+04  9.26016E+03 -1.35415E+04 -1.85529E+03
 -1.16951E+04 -1.12774E+04 -1.92943E+03 -1.31512E+04  7.15136E+03 -1.00999E+04  8.73396E+03 -3.79637E+03
  5.19744E+03  2.48918E+03 -7.51867E+02  1.91130E+03 -9.59768E+02 -4.87104E+03  3.37652E+03 -7.63967E+03
  1.13777E+04 -5.02185E+03  1.77200E+04  2.06152E+03  1.75264E+04  1.21389E+04  1.12700E+04  2.26427E+04
 -5.88912E+03  2.58631E+04 -2.11783E+04  1.92537E+04 -2.89000E+04  2.72491E+03 -2.15014E+04 -1.09344E+04
 -1.10813E+04 -1.84911E+04 -8.19858E+02 -1.56584E+04  4.91143E+03 -9.17523E+03  6.31269E+03 -5.19797E+03
  3.59365E+03 -4.20220E+03  4.57524E+03 -4.35553E+03  6.08992E+03 -4.37016E+03  9.33288E+03 -2.02337E+03
  1.09510E+04  2.61908E+03  7.27980E+03  1.01616E+04 -2.46372E+03  1.20882E+04 -1.25077E+04  9.03994E+03
 -1.58717E+04 -1.72796E+03 -1.06616E+04 -1.10949E+04 -2.12542E+03 -1.75904E+04  9.98513E+03 -1.73432E+04
  1.82032E+04 -1.02116E+04  2.09954E+04  2.70419E+03  1.47722E+04  1.52898E+04  1.85101E+03  1.96597E+04
 -8.00138E+03  1.57609E+04 -1.11753E+04  5.47166E+03 -7.84325E+03 -2.12545E+03 -2.65032E+03 -2.54000E+03
 -1.07318E+03 -6.23769E+01 -2.91180E+03  3.34264E+03 -6.83052E+03  2.47508E+03 -1.15913E+04 -1.63558E+03
 -8.12408E+03 -1.05855E+04  1.35241E+02 -1.55884E+04  9.53699E+03 -1.49940E+04  1.54726E+04 -5.09827E+03
  1.57519E+04  7.20288E+03  7.32581E+03  1.41711E+04 -3.23208E+03  1.69301E+04 -1.23418E+04  9.98285E+03
 -1.53565E+04  2.47554E+02 -1.22727E+04 -9.17801E+03 -1.12668E+03 -1.40082E+04  6.60605E+03 -9.70236E+03
  1.11948E+04 -3.70730E+03  7.10583E+03  2.62341E+03  2.55912E+03  5.03868E+03  8.70732E+02  1.92215E+03
  2.97643E+03  6.30547E+02  4.24162E+03  1.25201E+03  5.10050E+03  5.86829E+03  4.38045E+03  8.75201E+03
 -2.70626E+03  1.29677E+04 -1.05072E+04  1.33424E+04 -1.65879E+04  3.34348E+03 -1.72595E+04 -6.61000E+03
 -8.07320E+03 -1.68589E+04  1.66299E+03 -1.77276E+04  1.00149E+04 -1.13508E+04  1.38531E+04 -2.87521E+03
  1.10273E+04  5.56239E+03  2.79338E+03  9.91786E+03 -4.92575E+03  6.46343E+03 -7.23734E+03 -8.71028E+02
 -2.95999E+03 -6.71270E+03  4.04078E+03 -7.13661E+03  5.66841E+03 -3.27727E+03  6.64816E+03  7.22902E+02
  3.85698E+03  2.63928E+03  1.31269E+03  2.74269E+03  4.65018E+01  2.50573E+03  1.13397E+03 -4.57590E+02
  2.85986E+03 -5.31556E+02  6.41105E+03  2.27635E+03  3.26331E+03  9.54668E+03 -1.75964E+03  1.16870E+04
 -8.07861E+03  7.01126E+03 -1.07083E+04  1.61214E+03 -9.27451E+03 -3.06167E+03 -3.86509E+03 -6.60897E+03
  1.26830E+03 -6.62761E+03  4.17066E+03 -2.51711E+03  3.19844E+03  3.64202E+03 -1.09198E+03  5.63988E+03
 -6.55799E+03  3.85451E+03 -7.66002E+03 -4.05822E+03 -4.02642E+03 -8.90235E+03  1.06261E+03 -9.13285E+03
  5.30220E+03 -5.09521E+03  7.17858E+03 -3.04803E+01  5.67097E+03  2.56767E+03  1.05516E+03  4.96247E+03
 -3.14072E+03  1.71642E+03 -4.99418E+03 -3.17537E+03  1.91324E+03 -7.25013E+03  8.91552E+03 -5.73325E+03
  1.01297E+04  1.40411E+03  1.05141E+04  7.30994E+03  2.70650E+03  1.12090E+04 -3.80446E+03  1.04639E+04
 -9.00909E+03  5.21887E+03 -8.53140E+03 -2.15820E+03 -4.76312E+03 -6.23334E+03  1.91067E+03 -7.31648E+03
  6.43078E+03 -3.14496E+03  5.60546E+03  3.31227E+03  2.82645E+03  5.99117E+03 -2.15196E+03  4.38166E+03
 -2.48008E+03  3.41873E+03 -2.20843E+03  9.47786E+02 -1.65797E+03  1.77548E+03 -1.45705E+03  1.98594E+03
 -2.71046E+03  4.12406E+03 -7.25663E+03  4.12558E+03 -1.03331E+04 -3.10189E+02 -1.23647E+04 -6.79385E+03
 -5.70239E+03 -1.39942E+04  2.57856E+03 -1.65292E+04  1.06324E+04 -1.29335E+04  1.55769E+04 -5.31626E+03
  1.50198E+04  3.46527E+03  8.55666E+03  1.03675E+04  1.14354E+03  1.14411E+04 -4.09314E+03  8.29347E+03
 -6.28788E+03  3.12818E+03 -4.07462E+03 -1.22567E+03 -1.60311E+03 -1.10451E+03  2.20781E+02  5.34486E+01
 -1.66536E+03  6.10056E+02 -2.42178E+03 -4.50511E+02 -1.79767E+03 -1.84037E+03  7.17520E+02 -4.68409E+03
  5.60997E+03 -3.40685E+03  7.07952E+03 -3.99045E+02  9.02611E+03  5.90580E+03  1.59272E+03  1.13120E+04
 -5.27381E+03  1.28184E+04 -1.17006E+04  7.61625E+03 -1.40072E+04 -3.59069E+02 -1.07200E+04 -8.17406E+03
 -3.95608E+03 -1.11120E+04  2.95859E+03 -1.05988E+04  6.64528E+03 -4.67740E+03  7.30461E+03  7.16375E+02
  3.48209E+03  3.95752E+03 -6.00200E+02  2.65403E+03 -1.99525E+03  9.54627E+01  3.71857E+02 -3.07967E+03
  3.04637E+03 -1.40989E+03  3.81490E+03  7.20056E+02  2.59971E+03  5.04895E+03  1.53864E+02  6.08633E+03
 -4.99697E+03  4.77357E+03 -7.62872E+03  7.77145E+02 -6.24189E+03 -4.96086E+03 -3.30524E+02 -9.75982E+03
  5.57540E+03 -8.70811E+03  9.16481E+03 -2.12516E+03  7.81975E+03  1.52958E+03  5.33986E+03  7.37845E+03
  9.20100E+02  7.09441E+03 -2.91325E+03  6.09484E+03 -5.02614E+03  3.08401E+03 -4.50002E+03  4.44559E+02
 -2.07324E+03 -7.79054E+02 -2.28440E+03  1.19449E+03 -4.00093E+03  9.79172E+02 -6.11221E+03 -2.01541E+03
 -5.80916E+03 -4.02549E+03 -1.29876E+03 -7.22277E+03  4.09171E+03 -7.96451E+03  7.66518E+03 -3.87136E+03
  7.93967E+03  1.07753E+03  4.46089E+03  5.79944E+03 -5.50237E+02  7.97687E+03 -5.56635E+03  4.37708E+03
