 $NMID ID='MM_0lb_SNR400_8hz_g60_5.RAW', FMTDAT='(8E13.5)'
 TRAMP=1., VOLUME=1. $END
  3.10574E+05  6.25017E+02  3.37959E+05  2.50523E+05  8.51022E+04  3.37906E+05 -1.32989E+05  2.52627E+05
 -1.91378E+05  8.42271E+04 -1.13376E+05 -3.23584E+04  6.15396E+02 -5.13562E+04  5.32988E+04 -7.37584E+02
  3.62281E+04  5.39670E+04 -1.68525E+04  7.70293E+04 -6.07011E+04  6.46580E+04 -8.60834E+04  3.34112E+04
 -8.21304E+04 -1.23318E+04 -5.88970E+04 -5.44451E+04 -1.56257E+04 -7.07514E+04  2.78373E+04 -4.66853E+04
  4.22599E+04  3.71897E+03  1.66097E+04  4.89127E+04 -3.48370E+04  4.81778E+04 -6.82997E+04  1.92799E+02
 -5.42747E+04 -5.77962E+04 -8.73014E+03 -7.99428E+04  3.50657E+04 -5.74414E+04  5.07125E+04 -1.86064E+04
  4.64733E+04  1.17390E+04  3.34799E+04  2.70527E+04  1.63784E+04  3.11472E+04 -5.80285E+03  2.93701E+04
 -2.27142E+04  1.07828E+04 -1.76230E+04 -6.05355E+03  7.76790E+03 -7.57021E+03  2.44998E+04  1.41265E+04
  7.06262E+03  3.80779E+04 -3.43548E+04  3.74768E+04 -6.68313E+04  2.21288E+03 -5.98969E+04 -4.45246E+04
 -1.29154E+04 -6.69978E+04  4.20544E+04 -4.82177E+04  6.22653E+04 -2.01564E+03  3.80371E+04  3.53671E+04
 -6.61048E+03  4.04344E+04 -3.25011E+04  2.01337E+04 -3.42395E+04 -3.45319E+03 -2.11845E+04 -1.21538E+04
 -9.63842E+03 -1.57239E+04  2.84926E+02 -2.01187E+04  9.22901E+03 -2.40513E+04  1.68086E+04 -1.20259E+04
  1.08710E+04  6.53292E+03 -1.12598E+04  1.26071E+04 -2.39453E+04 -7.01659E+03 -8.61808E+03 -3.90372E+04
  2.62358E+04 -4.84950E+04  5.43584E+04 -2.18710E+04  5.07264E+04  1.99429E+04  1.78252E+04  4.79525E+04
 -1.74429E+04  3.75232E+04 -2.91336E+04  3.50096E+03 -1.21455E+04 -2.89861E+04  2.21887E+04 -3.78375E+04
  4.59165E+04 -1.13862E+04  4.23624E+04  2.67041E+04  2.27944E+04  5.29917E+04 -8.74671E+03  5.83821E+04
 -3.71514E+04  3.89627E+04 -4.90362E+04  1.11119E+04 -4.95444E+04 -1.92117E+04 -2.70956E+04 -4.32904E+04
  7.85019E+03 -4.41372E+04  3.56942E+04 -1.84698E+04  3.30758E+04  1.24134E+04  5.70804E+03  2.19800E+04
 -1.37754E+04  9.84842E+03 -1.13794E+04 -7.98435E+03  5.65479E+03 -1.12099E+04  1.85970E+04  5.36595E+03
  1.50601E+04  2.35658E+04 -4.18522E+03  2.73666E+04 -2.30064E+04  1.48055E+04 -3.20213E+04 -2.38854E+03
 -2.75097E+04 -1.95867E+04 -1.23882E+04 -2.65325E+04  4.90770E+03 -2.75455E+04  2.21127E+04 -2.49303E+04
  3.40479E+04 -1.43869E+04  3.99744E+04  5.56209E+03  2.81966E+04  2.70320E+04  3.87619E+03  4.34259E+04
 -2.02848E+04  3.56492E+04 -3.04061E+04  1.23500E+04 -2.26084E+04 -1.02553E+04 -4.41309E+03 -1.27760E+04
 -5.48341E+02 -8.33877E+02 -8.25830E+03  9.20826E+03 -2.30333E+04  4.80874E+03 -2.14217E+04 -1.06625E+04
 -1.37137E+04 -2.45876E+04  6.59726E+03 -3.03743E+04  2.00402E+04 -2.07679E+04  2.45934E+04 -9.69751E+02
  1.59095E+04  1.72569E+04 -2.51827E+03  2.42224E+04 -1.79648E+04  1.35563E+04 -2.53131E+04 -5.43613E+03
 -1.83277E+04 -2.19833E+04 -1.63951E+03 -2.95929E+04  1.32813E+04 -2.49449E+04  2.47182E+04 -1.24856E+04
  2.35787E+04 -5.74897E+02  1.64786E+04  5.69935E+03  9.89009E+03  1.00550E+03  1.29626E+04 -1.97449E+03
  2.41353E+04  3.56876E+03  2.71248E+04  1.95633E+04  1.96897E+04  4.07190E+04 -2.11341E+03  4.78079E+04
 -2.72516E+04  4.11976E+04 -4.57920E+04  2.23700E+04 -4.99429E+04 -3.91523E+03 -3.91400E+04 -2.89189E+04
 -1.58164E+04 -4.14773E+04  1.44217E+04 -3.68648E+04  3.10518E+04 -1.56765E+04  2.64772E+04  9.51221E+03
  8.38258E+03  2.07364E+04 -1.23742E+04  1.65712E+04 -2.23609E+04  2.55535E+03 -1.61485E+04 -1.37006E+04
 -6.12385E+02 -2.21090E+04  1.09253E+04 -1.50334E+04  1.54595E+04 -1.20640E+03  4.33373E+03  9.94927E+03
 -9.40010E+03  5.42152E+03 -1.01241E+04 -7.17193E+03 -2.94074E+03 -2.08545E+04  1.39203E+04 -2.16182E+04
  2.54926E+04 -1.19913E+04  3.08572E+04  3.42078E+03  2.57447E+04  2.11079E+04  1.26455E+04  3.23876E+04
 -7.50852E+03  3.42756E+04 -2.29961E+04  2.04580E+04 -2.53369E+04  4.21409E+03 -1.76436E+04 -6.84367E+03
 -6.14529E+03 -8.55243E+03 -3.28784E+02 -2.55357E+02 -3.36947E+03  4.05088E+03 -8.15784E+03  5.84373E+03
 -1.58496E+04 -1.25311E+03 -1.63604E+04 -1.37748E+04 -7.00078E+03 -2.20103E+04  7.00589E+03 -1.70436E+04
  1.46391E+04 -7.38925E+03  1.02094E+04  4.30216E+03 -1.78360E+03  6.99302E+03 -8.66260E+03  1.81662E+02
 -8.59063E+03 -1.11409E+04 -1.60468E+03 -1.77336E+04  1.08547E+04 -1.95301E+04  2.27414E+04 -1.05245E+04
  2.57926E+04  2.72399E+03  2.01787E+04  1.61197E+04  2.52126E+03  2.21466E+04 -1.15459E+04  1.79577E+04
 -1.41588E+04  4.53914E+03 -7.84323E+03 -3.76696E+03  2.63829E+03 -4.00419E+03  1.00793E+04 -8.20755E+02
  7.84713E+03  7.08872E+03  1.77842E+03  1.44492E+04 -1.05368E+04  1.40695E+04 -1.77592E+04  2.82960E+03
 -1.27153E+04 -8.88332E+03  6.67911E+01 -1.52272E+04  1.09258E+04 -8.45282E+03  9.83641E+03  3.75399E+03
  3.50942E+03  1.06095E+04 -9.63342E+03  1.30917E+04 -1.62511E+04  5.71604E+03 -1.72046E+04 -5.89917E+03
 -1.00019E+04 -1.70568E+04  4.96932E+03 -2.04058E+04  1.80136E+04 -1.33150E+04  1.96008E+04  4.54521E+03
  1.10555E+04  1.54771E+04 -1.15594E+03  1.78614E+04 -1.32401E+04  9.36575E+03 -1.49984E+04 -1.52484E+03
 -1.20324E+04 -1.20820E+04 -2.84283E+03 -1.43034E+04  7.10784E+03 -1.05874E+04  9.57436E+03 -3.75197E+03
  5.67483E+03  2.38347E+03 -1.10939E+03  1.57924E+03 -8.66026E+02 -3.69731E+03  2.09314E+03 -8.63285E+03
  1.34445E+04 -5.88936E+03  1.91975E+04  1.14836E+03  1.82037E+04  1.32406E+04  1.17747E+04  2.47615E+04
 -5.63396E+03  2.81730E+04 -2.47897E+04  2.04855E+04 -2.98772E+04  4.74719E+03 -2.45508E+04 -1.10076E+04
 -1.23803E+04 -2.02649E+04 -1.33033E+02 -1.70736E+04  5.95524E+03 -1.03762E+04  6.47915E+03 -6.50891E+03
  4.79241E+03 -3.80569E+03  4.34739E+03 -4.48702E+03  6.63714E+03 -4.38913E+03  9.90853E+03 -1.65194E+03
  1.29883E+04  2.82860E+03  7.72356E+03  1.15749E+04 -2.57137E+03  1.29414E+04 -1.39957E+04  1.04428E+04
 -1.77021E+04 -1.20499E+03 -1.21124E+04 -1.14448E+04 -2.08581E+03 -1.89571E+04  1.01626E+04 -1.90293E+04
  1.93803E+04 -1.05128E+04  2.35187E+04  3.60666E+03  1.53974E+04  1.64585E+04  2.43747E+03  2.15243E+04
 -8.39806E+03  1.68715E+04 -1.27188E+04  5.60993E+03 -9.20547E+03 -1.57178E+03 -3.43798E+03 -2.85238E+03
 -1.56740E+03 -3.06445E+02 -2.84227E+03  3.11643E+03 -7.21607E+03  3.49669E+03 -1.19978E+04 -1.78016E+03
 -9.50302E+03 -1.19801E+04 -8.54366E+02 -1.82484E+04  1.14040E+04 -1.63658E+04  1.81384E+04 -5.62268E+03
  1.80353E+04  9.81394E+03  8.39523E+03  1.60695E+04 -3.53352E+03  1.88414E+04 -1.23624E+04  1.21423E+04
 -1.68215E+04  1.06985E+03 -1.35930E+04 -1.09777E+04 -1.12196E+03 -1.50527E+04  8.29558E+03 -1.05192E+04
  1.15271E+04 -2.49130E+03  8.09744E+03  3.14375E+03  3.75093E+03  4.83781E+03  9.84214E+02  2.95257E+03
  3.73584E+03  1.00260E+03  4.55051E+03  2.16629E+03  5.46486E+03  4.37499E+03  3.35324E+03  9.43656E+03
 -3.35146E+03  1.45598E+04 -1.34549E+04  1.44162E+04 -1.90208E+04  3.03055E+03 -1.88896E+04 -9.43901E+03
 -8.95957E+03 -1.87407E+04  2.99451E+03 -2.06964E+04  1.20071E+04 -1.29324E+04  1.53436E+04 -2.70297E+03
  1.19216E+04  7.27424E+03  3.40378E+03  1.08494E+04 -4.89881E+03  7.20424E+03 -8.57119E+03 -7.96040E+02
 -2.75956E+03 -7.71296E+03  4.48927E+03 -8.70326E+03  7.98811E+03 -4.01495E+03  8.19280E+03  1.74801E+03
  4.36074E+03  3.05785E+03  1.28963E+03  3.51733E+03 -2.45836E+03  2.48707E+03  1.14004E+03 -7.05301E+02
  2.56522E+03 -6.04451E+02  5.85265E+03  2.64751E+03  3.60269E+03  9.29380E+03 -1.27065E+03  1.29381E+04
 -8.96579E+03  9.46445E+03 -1.29368E+04  2.28236E+03 -1.10075E+04 -5.06284E+03 -4.01089E+03 -7.36479E+03
  2.08959E+03 -7.82310E+03  5.28810E+03 -3.60888E+03  4.19995E+03  3.28044E+03 -1.65556E+03  5.84759E+03
 -7.98917E+03  3.48058E+03 -9.35168E+03 -5.19304E+03 -4.86083E+03 -1.03611E+04  9.97605E+02 -1.06072E+04
  6.79468E+03 -6.82111E+03  7.97142E+03 -8.01568E+02  6.25947E+03  2.71115E+03  7.83001E+02  6.36132E+03
 -4.33712E+03  1.92311E+03 -4.49958E+03 -4.11998E+03  1.28825E+03 -8.46876E+03  9.77039E+03 -6.69970E+03
  1.25036E+04  1.62859E+02  1.22525E+04  8.78480E+03  3.57654E+03  1.29914E+04 -3.51172E+03  1.17416E+04
 -9.85066E+03  6.09828E+03 -9.98178E+03 -2.20494E+03 -5.38625E+03 -7.63293E+03  3.16732E+03 -7.45125E+03
  7.70236E+03 -4.19184E+03  6.50196E+03  3.86001E+03  2.25893E+03  7.25685E+03 -1.06760E+03  6.09994E+03
 -3.55229E+03  3.41765E+03 -2.74773E+03  9.08348E+02 -1.10199E+03  1.79131E+03 -2.13272E+03  2.79242E+03
 -3.20990E+03  5.62379E+03 -7.91042E+03  3.08589E+03 -1.23693E+04  5.87875E+02 -1.48452E+04 -8.43840E+03
 -8.35970E+03 -1.71174E+04  3.76108E+03 -2.09325E+04  1.19562E+04 -1.53083E+04  1.76414E+04 -5.34232E+03
  1.75303E+04  4.53384E+03  1.06557E+04  1.22408E+04  2.02553E+03  1.36721E+04 -4.72126E+03  9.80154E+03
 -7.65130E+03  3.94481E+03 -4.53671E+03 -1.57321E+03 -1.57812E+03 -1.40758E+03 -1.24711E+03 -7.19626E+02
 -2.72854E+03  6.95104E+02 -2.64291E+03 -6.76124E+01 -9.11286E+02 -2.93809E+03  6.32507E+02 -5.29767E+03
  6.41775E+03 -3.56863E+03  8.10863E+03  4.66511E+02  8.96773E+03  7.82668E+03  3.34790E+03  1.28897E+04
 -6.69859E+03  1.48409E+04 -1.43265E+04  9.63939E+03 -1.69698E+04 -1.08663E+03 -1.22407E+04 -9.79238E+03
 -5.17258E+03 -1.44686E+04  3.19306E+03 -1.24505E+04  9.53938E+03 -6.83987E+03  9.58105E+03  8.05579E+01
  4.93337E+03  4.22936E+03 -3.59880E+02  4.30187E+03 -3.00846E+03 -2.37672E+02  1.38813E+03 -3.88253E+03
  3.64807E+03 -1.62389E+03  6.01982E+03  1.15224E+03  3.55664E+03  5.07310E+03  5.47115E+00  7.17792E+03
 -6.34494E+03  6.49848E+03 -8.83421E+03  9.55059E+02 -8.62531E+03 -6.48361E+03 -9.26955E+02 -1.13627E+04
  6.81187E+03 -9.50190E+03  1.05535E+04 -4.23478E+03  1.01686E+04  2.39942E+03  6.66325E+03  8.28549E+03
  7.54255E+02  9.97441E+03 -2.66226E+03  7.53002E+03 -5.20603E+03  3.87446E+03 -4.43710E+03  4.84566E+02
 -2.42509E+03 -4.18204E+00 -2.65588E+03  1.58174E+03 -5.76189E+03  8.63380E+02 -7.71950E+03 -7.13927E+02
 -7.02439E+03 -5.49009E+03 -2.16676E+03 -9.31677E+03  3.43049E+03 -9.01490E+03  9.00557E+03 -4.64364E+03
  9.29425E+03  1.22973E+03  5.48574E+03  6.99280E+03 -8.56136E+02  9.79606E+03 -7.42263E+03  6.50847E+03
