 $NMID ID='MM_0lb_SNR400_20hz_g45_95.RAW', FMTDAT='(8E13.5)'
 TRAMP=1., VOLUME=1. $END
  3.09973E+05  3.72274E+02  3.37130E+05  2.50379E+05  8.44327E+04  3.37082E+05 -1.32061E+05  2.49750E+05
 -1.89558E+05  8.25542E+04 -1.10191E+05 -3.31956E+04  1.40369E+03 -4.97744E+04  5.35794E+04 -1.83796E+02
  3.47636E+04  5.27069E+04 -1.71540E+04  7.45811E+04 -6.02293E+04  6.25490E+04 -8.22515E+04  3.14686E+04
 -7.90807E+04 -1.07590E+04 -5.61439E+04 -4.98475E+04 -1.53073E+04 -6.76792E+04  2.69350E+04 -4.42774E+04
  3.83108E+04  4.26646E+03  1.56909E+04  4.70277E+04 -3.37150E+04  4.61295E+04 -6.50709E+04 -8.98687E+02
 -5.15620E+04 -5.62035E+04 -6.33718E+03 -7.41896E+04  3.24689E+04 -5.20630E+04  4.56931E+04 -1.60208E+04
  4.15723E+04  1.09525E+04  3.02732E+04  2.40988E+04  1.57176E+04  2.84296E+04 -4.23580E+03  2.70607E+04
 -2.19509E+04  1.28641E+04 -1.89100E+04 -3.65598E+03  3.70855E+03 -7.30370E+03  2.09968E+04  1.04162E+04
  7.09601E+03  3.23009E+04 -2.92643E+04  3.36247E+04 -5.98604E+04  2.07853E+03 -5.51138E+04 -4.01030E+04
 -1.23769E+04 -6.01127E+04  3.75792E+04 -4.26840E+04  5.46873E+04 -2.08152E+03  3.10185E+04  3.01253E+04
 -6.29114E+03  3.15649E+04 -2.80345E+04  1.24361E+04 -2.64991E+04 -5.46802E+03 -1.33440E+04 -9.27609E+03
 -6.96278E+03 -1.11048E+04 -1.11791E+03 -1.55779E+04  6.44163E+03 -2.22673E+04  1.51379E+04 -1.38594E+04
  1.24182E+04  4.18714E+03 -5.49642E+03  1.26313E+04 -1.85488E+04 -1.26405E+03 -7.43283E+03 -2.93483E+04
  1.97965E+04 -3.95539E+04  4.31082E+04 -1.83691E+04  4.09179E+04  1.82474E+04  1.36787E+04  4.09687E+04
 -1.47876E+04  3.00183E+04 -2.27757E+04  5.62466E+02 -7.60282E+03 -2.57777E+04  2.08028E+04 -2.98973E+04
  3.71299E+04 -6.88353E+03  3.00710E+04  2.23505E+04  1.43886E+04  4.14608E+04 -7.35858E+03  4.35569E+04
 -2.74238E+04  2.88355E+04 -3.61504E+04  7.91259E+03 -3.65954E+04 -1.43814E+04 -2.07069E+04 -3.33850E+04
  6.50306E+03 -3.33754E+04  2.85963E+04 -1.19638E+04  2.57852E+04  1.05710E+04  2.73845E+03  1.73348E+04
 -1.30009E+04  6.94743E+03 -9.21419E+03 -7.63919E+03  6.23456E+03 -9.90393E+03  1.68523E+04  6.68037E+03
  1.18220E+04  2.14937E+04 -6.98486E+03  2.30388E+04 -2.14291E+04  8.09786E+03 -2.33816E+04 -6.90179E+03
 -1.57489E+04 -1.61610E+04 -4.05300E+03 -1.54900E+04  3.95772E+03 -1.29971E+04  1.12179E+04 -1.27454E+04
  1.94212E+04 -1.10625E+04  2.69179E+04 -4.28539E+02  2.04599E+04  1.51071E+04  4.01787E+03  3.07640E+04
 -1.47779E+04  2.63581E+04 -2.45061E+04  9.21668E+03 -1.90099E+04 -1.01844E+04 -3.94966E+03 -1.42723E+04
  2.70348E+03 -4.48414E+03 -2.33057E+03  5.11946E+03 -1.22588E+04  5.24959E+03 -1.19476E+04 -4.88578E+03
 -8.01480E+03 -1.43939E+04  4.37463E+03 -1.84007E+04  1.15060E+04 -1.35198E+04  1.32673E+04 -1.56498E+03
  7.75388E+03  1.00762E+04 -1.03497E+03  1.48693E+04 -9.69951E+03  8.34402E+03 -1.37171E+04 -3.24587E+03
 -1.08511E+04 -1.30630E+04 -1.36383E+03 -1.73827E+04  8.00332E+03 -1.43391E+04  1.48457E+04 -7.02559E+03
  1.28927E+04  4.00181E+02  9.56528E+03  3.61998E+03  5.18470E+03  6.87346E+02  6.56605E+03 -9.96437E+02
  1.22340E+04  2.41315E+03  1.37502E+04  1.22323E+04  8.03526E+03  2.33189E+04 -3.44810E+03  2.42948E+04
 -1.49150E+04  1.85042E+04 -2.25576E+04  8.49220E+03 -2.27549E+04 -1.88224E+03 -1.97688E+04 -1.25112E+04
 -9.49292E+03 -1.83487E+04  5.47853E+03 -1.78814E+04  1.55935E+04 -1.01363E+04  1.41273E+04  3.21752E+03
  6.39095E+03  1.01419E+04 -6.45412E+03  9.81044E+03 -1.21793E+04  2.73881E+03 -9.46048E+03 -7.16304E+03
 -9.60570E+01 -1.13577E+04  5.76996E+03 -8.87970E+03  7.33303E+03 -1.19179E+03  1.67491E+03  4.39545E+03
 -5.14938E+03  8.19691E+02 -3.28886E+03 -4.32028E+03  7.02813E+02 -9.10493E+03  7.86959E+03 -9.02877E+03
  1.09132E+04 -3.74346E+03  1.04989E+04  2.07025E+03  9.08517E+03  8.27993E+03  4.74426E+03  1.17227E+04
 -1.32456E+03  1.31078E+04 -8.81472E+03  9.61337E+03 -1.03297E+04  3.02021E+03 -7.45475E+03 -1.48230E+03
 -4.19347E+03 -3.03523E+03 -7.71884E+02  1.86284E+03 -1.72626E+03  1.42208E+03 -2.96985E+03  3.67975E+03
 -7.49818E+03 -7.34905E+02 -8.05517E+03 -6.40994E+03 -2.76659E+03 -1.04616E+04  3.32092E+03 -7.53821E+03
  6.83236E+03 -3.68442E+03  4.98370E+03  1.95298E+03  1.46915E+03  2.48794E+03 -2.96606E+03  3.76813E+01
 -2.32568E+03 -4.42210E+03 -2.98078E+02 -5.86842E+03  3.34679E+03 -7.32851E+03  8.84293E+03 -3.43353E+03
  1.02457E+04  7.20272E+02  7.98726E+03  4.76885E+03  1.40559E+03  6.63099E+03 -4.76551E+03  6.98860E+03
 -6.22881E+03  2.47016E+03 -3.03539E+03 -1.19399E+03  1.64284E+03 -1.55239E+03  4.15931E+03 -9.25025E+02
  3.03547E+03  2.86189E+03  1.03748E+03  5.26079E+03 -4.21271E+03  5.89654E+03 -6.82211E+03  2.21297E+03
 -4.30532E+03 -3.07060E+03  2.63195E+02 -6.42839E+03  2.82217E+03 -2.65758E+03  2.86560E+03  6.54674E+02
  2.59360E+02  2.21389E+03 -4.09859E+03  4.43804E+03 -3.44712E+03  2.02554E+03 -3.58655E+03 -8.54944E+02
 -2.23917E+03 -5.08262E+03  1.16709E+03 -5.67532E+03  5.28537E+03 -4.45724E+03  5.44162E+03  5.42948E+02
  3.56317E+03  4.81628E+03  6.71794E+01  6.27795E+03 -4.09306E+03  4.05266E+03 -4.34976E+03 -4.77484E+02
 -5.06016E+03 -4.60152E+03 -1.00938E+03 -4.35799E+03  2.14665E+03 -4.62412E+03  2.11468E+03 -2.61630E+03
  2.53680E+03 -4.05526E+01  4.03022E+02  1.16725E+03  4.40285E+02  1.78582E+02 -2.80013E+02 -1.15869E+03
  2.50602E+03 -2.97416E+02  4.36928E+03  7.67887E+02  4.50288E+03  1.96358E+03  4.38774E+03  6.22586E+03
 -8.82738E+02  6.43268E+03 -5.93086E+03  5.08703E+03 -8.00973E+03  1.05575E+03 -6.94867E+03 -2.10625E+03
 -3.90961E+03 -5.64552E+03 -7.88521E+02 -4.41878E+03  1.15025E+03 -1.90532E+03  8.92931E+02 -1.44903E+03
  1.09406E+03 -1.17784E+03  1.83864E+03 -2.36560E+03  3.37820E+03 -1.23126E+03  3.29990E+03  8.83330E+02
  4.12254E+03  1.47991E+03  9.67365E+02  2.95424E+03 -1.65303E+03  2.13507E+03 -3.50446E+03  1.92974E+03
 -4.16911E+03 -7.17345E+02 -1.58451E+03 -2.74036E+03  1.07195E+03 -3.94572E+03  2.55394E+03 -4.01414E+03
  3.74864E+03 -2.77030E+03  5.47201E+03 -2.69035E+02  4.36702E+03  3.64273E+03  1.12026E+03  4.84238E+03
 -1.81913E+03  4.75993E+03 -2.51432E+03  1.74948E+03 -1.40340E+03 -1.27310E+03 -3.86867E+01 -5.67368E+02
 -7.06078E+02  5.00418E+02 -7.98427E+02  2.11401E+03 -1.95859E+03  1.46040E+03 -3.00723E+03 -5.64992E+02
 -1.37633E+03 -3.62088E+03  8.86636E+02 -4.19388E+03  2.56236E+03 -3.71972E+03  2.96442E+03 -6.34426E+02
  2.79219E+03  2.24084E+03  1.51669E+03  2.49948E+03 -5.27682E+02  3.01870E+03 -2.05749E+03  2.28365E+03
 -3.12809E+03  2.50253E+02 -2.42827E+03 -1.81870E+03  1.00725E+02 -2.69443E+03  2.00702E+03 -1.43094E+03
  2.04684E+03 -1.23217E+03  1.41428E+03 -2.20143E+02  3.83455E+02  1.65901E+03  4.91919E+02  4.91418E+02
  1.43719E+03  5.47468E+02  5.57114E+02  4.11433E+02  7.63168E+02  1.50732E+03  1.41490E+03  1.32134E+03
 -1.10566E+03  2.34174E+03 -1.84087E+03  3.68886E+03 -2.20183E+03  1.06989E+03 -2.95340E+03  2.27983E+02
 -1.32765E+03 -2.99321E+03  7.66770E+02 -3.99883E+03  1.57904E+03 -1.51733E+03  1.98199E+03 -3.59304E+02
  1.67119E+03  1.89033E+03 -2.07348E+02  1.91530E+03 -5.62047E+02  8.88889E+02 -4.67812E+02 -2.53786E+02
 -5.43514E+02 -8.08160E+02  1.14232E+03 -1.33848E+03  1.35035E+03 -5.41559E+02  1.11931E+03  2.40401E+02
  8.89307E+02  1.31333E+02  8.94329E+02 -4.09465E+02 -1.39117E+02  8.92468E+02  2.09036E+03 -5.66498E+02
 -5.62319E+01 -1.47937E+02  1.26422E+03  1.60291E+02  3.80534E+02  1.63211E+03 -3.16137E+02  1.93907E+03
 -1.00604E+03  8.95962E+02 -1.63371E+03  3.12222E+02 -1.43312E+03 -1.08398E+03  2.44808E+02 -4.84198E+02
  2.76046E+02 -6.59033E+02  6.39637E+02 -4.79638E+02  7.25016E+01  7.31302E+02 -7.23147E+02  1.11517E+03
 -1.04043E+03  4.16508E+02 -1.18520E+03 -9.31375E+02 -1.47975E+02 -1.16607E+03  2.79347E+01 -6.40487E+02
  2.49767E+02 -4.44456E+02  2.24640E+02  5.61179E+02  1.07703E+03 -4.04867E+02  7.20574E+02  8.80241E+02
  2.00175E+02 -2.15917E+01 -4.21570E+02  4.10896E+02  4.28549E+02 -8.36472E+02  1.33544E+03 -4.22422E+02
  1.06534E+03  2.50034E+02  2.79658E+03  2.95148E+02  8.33752E+02  6.99580E+02 -1.34650E+02  1.50191E+03
 -1.26204E+03 -2.43093E+01 -1.01883E+03  3.59016E+02 -5.43634E+02 -1.17885E+03  3.02024E+02  7.31251E+01
  1.02686E+03 -6.53485E+02 -8.52342E+01 -2.45198E+02  4.02768E+02  1.19877E+03  1.85326E+02  1.06106E+03
 -4.01192E+02  9.65604E+02 -5.37001E+02  3.58543E+02  6.33686E+02  6.78234E+01 -1.29291E+03  2.87234E+02
 -2.24228E+02  1.07849E+03 -1.63148E+03  3.05772E+02 -1.13751E+03  3.39244E+02 -1.46201E+03 -8.07338E+02
 -4.01333E+02 -1.77281E+03  5.25640E+02 -2.41807E+03  3.28449E+02 -2.07345E+03  1.82079E+03 -9.26169E+02
  1.87658E+03  1.01089E+02  9.69766E+02  1.46470E+03 -8.73973E+02  1.50844E+03 -6.08017E+02  6.60949E+02
 -4.62311E+02  6.28721E+02 -4.55727E+02 -4.46516E+02 -4.47591E+02  5.91968E+02 -6.87250E+02 -1.99750E+02
 -1.26646E+03  1.10272E+02 -8.86122E+02 -3.18934E+02  9.30101E+02 -7.10533E+02 -4.19304E+02 -7.22989E+02
  1.37523E+03 -7.45122E+02  5.10527E+02  1.74683E+02  8.08668E+02  6.80584E+02 -9.35038E+02  6.95432E+02
 -1.05355E+03  2.53029E+03 -1.30006E+03  7.67876E+02 -1.03933E+03 -1.86735E+02 -7.80142E+02 -6.59628E+02
 -4.96418E+02 -1.05495E+03  7.00560E+02 -9.39086E+02  9.77142E+01  5.65069E+01  6.07208E+02  8.86793E+01
  6.37048E+02  2.30627E+02  2.54063E+02  8.23151E+02 -1.88909E+02  4.84110E+00 -3.42842E+02  2.09414E+02
  2.24270E+02 -2.16055E+01  5.24274E+02  8.73844E+02 -5.40015E+01 -3.93238E+00  7.66480E+02  3.68196E+02
 -4.35723E+02  3.11531E+02 -2.20331E+02 -2.87214E+02 -9.60489E+02 -5.43848E+02  1.71006E+02 -1.01537E+03
 -1.85206E+02 -2.95929E+02 -3.96530E+02  1.10318E+03  8.36102E+02 -8.00940E+02  7.73965E+01  1.26967E+03
  4.80992E+02  3.41647E+02  1.75888E+02  5.00617E+02 -3.15129E+02  3.62323E+02  6.10120E+01  2.13922E+02
 -1.36942E+02  3.41815E+01 -5.54252E+02  3.37741E+02 -5.88007E+02  3.12597E+02 -4.14494E+02 -5.87542E+02
 -6.55700E+02  6.76432E+02 -7.05557E+02 -3.33871E+02  7.02610E+02 -1.27705E+03  8.10253E+02 -4.16944E+02
  1.42488E+01  3.77850E+02 -1.01577E+03 -2.54791E+00  2.41051E+02  4.27007E+02 -2.60763E+02  5.68041E+02
