 $NMID ID='MM_0lb_SNR400_16hz_g60_54.RAW', FMTDAT='(8E13.5)'
 TRAMP=1., VOLUME=1. $END
  3.10188E+05  4.29772E+02  3.37414E+05  2.50581E+05  8.47629E+04  3.37983E+05 -1.32373E+05  2.50982E+05
 -1.90749E+05  8.33909E+04 -1.11258E+05 -3.22758E+04 -1.11753E+01 -5.07272E+04  5.39515E+04  1.48207E+02
  3.56651E+04  5.28328E+04 -1.63252E+04  7.51643E+04 -6.02623E+04  6.32919E+04 -8.42915E+04  3.16244E+04
 -8.10130E+04 -1.19141E+04 -5.70590E+04 -5.10669E+04 -1.44409E+04 -6.96083E+04  2.71693E+04 -4.61811E+04
  4.00398E+04  4.05421E+03  1.60719E+04  4.83354E+04 -3.40609E+04  4.71966E+04 -6.71688E+04 -2.51231E+02
 -5.34976E+04 -5.66529E+04 -6.31437E+03 -7.72853E+04  3.39837E+04 -5.53293E+04  4.80695E+04 -1.75051E+04
  4.35752E+04  1.11532E+04  3.16244E+04  2.55260E+04  1.55978E+04  2.95503E+04 -4.74576E+03  2.68875E+04
 -2.23237E+04  1.24655E+04 -1.80622E+04 -5.17590E+03  5.38108E+03 -7.82171E+03  2.29879E+04  1.24034E+04
  7.53405E+03  3.52050E+04 -3.20105E+04  3.54922E+04 -6.37166E+04  2.31299E+03 -5.65511E+04 -4.37399E+04
 -1.22049E+04 -6.39804E+04  3.95386E+04 -4.55955E+04  5.82021E+04 -2.00758E+03  3.48984E+04  3.24574E+04
 -5.53789E+03  3.57441E+04 -3.00163E+04  1.57882E+04 -3.00213E+04 -4.98744E+03 -1.69510E+04 -1.15491E+04
 -8.35420E+03 -1.35004E+04 -2.11537E+02 -1.76369E+04  7.57727E+03 -2.31378E+04  1.53903E+04 -1.33379E+04
  1.09818E+04  5.67838E+03 -7.81043E+03  1.28843E+04 -2.13006E+04 -4.28087E+03 -8.48297E+03 -3.39463E+04
  2.35193E+04 -4.33265E+04  4.87140E+04 -1.95274E+04  4.54345E+04  1.91597E+04  1.55969E+04  4.38869E+04
 -1.58772E+04  3.35343E+04 -2.61582E+04  1.56315E+03 -1.00111E+04 -2.72691E+04  2.07902E+04 -3.40476E+04
  4.13430E+04 -9.07825E+03  3.56996E+04  2.43806E+04  1.79990E+04  4.62673E+04 -8.61474E+03  5.00729E+04
 -3.16458E+04  3.37780E+04 -4.20153E+04  9.74720E+03 -4.25652E+04 -1.70265E+04 -2.36176E+04 -3.78892E+04
  7.45496E+03 -3.82651E+04  3.20647E+04 -1.51093E+04  2.87287E+04  1.05895E+04  4.13130E+03  1.93018E+04
 -1.30311E+04  8.41994E+03 -1.02560E+04 -8.44473E+03  5.46675E+03 -1.08275E+04  1.78089E+04  6.43409E+03
  1.25315E+04  2.23727E+04 -5.82740E+03  2.52199E+04 -2.28566E+04  1.20509E+04 -2.78726E+04 -5.07168E+03
 -2.10323E+04 -1.74498E+04 -8.36464E+03 -1.99144E+04  3.89837E+03 -1.92222E+04  1.56565E+04 -1.80831E+04
  2.57551E+04 -1.25954E+04  3.27241E+04  2.72303E+03  2.36780E+04  1.99567E+04  3.95014E+03  3.59115E+04
 -1.72845E+04  3.00968E+04 -2.80288E+04  1.08667E+04 -2.09981E+04 -1.03548E+04 -4.17466E+03 -1.38826E+04
  1.84587E+03 -2.79484E+03 -4.30885E+03  6.87378E+03 -1.59352E+04  5.15376E+03 -1.55797E+04 -7.59926E+03
 -1.08178E+04 -1.90850E+04  4.99578E+03 -2.28014E+04  1.47158E+04 -1.64613E+04  1.82825E+04 -1.33233E+03
  1.17445E+04  1.27455E+04 -1.39778E+03  1.80580E+04 -1.25337E+04  1.00343E+04 -1.83709E+04 -3.76320E+03
 -1.32600E+04 -1.66378E+04 -2.15907E+03 -2.30359E+04  1.00098E+04 -1.85086E+04  1.88161E+04 -9.40354E+03
  1.73164E+04  2.96114E+02  1.23849E+04  4.46518E+03  6.43753E+03  6.46921E+02  8.94400E+03 -2.19351E+03
  1.71112E+04  2.43608E+03  1.94961E+04  1.47787E+04  1.22967E+04  2.97689E+04 -3.22980E+03  3.29403E+04
 -1.93271E+04  2.63233E+04 -3.09034E+04  1.31054E+04 -3.24114E+04 -2.14957E+03 -2.67993E+04 -1.86777E+04
 -1.14468E+04 -2.62275E+04  9.01727E+03 -2.40538E+04  2.04262E+04 -1.21639E+04  1.84006E+04  5.02265E+03
  7.32346E+03  1.38206E+04 -8.59605E+03  1.21948E+04 -1.58692E+04  2.13086E+03 -1.23028E+04 -9.72073E+03
  4.14754E+02 -1.49492E+04  8.02632E+03 -1.07887E+04  9.97165E+03 -1.09419E+03  1.88630E+03  5.91839E+03
 -7.10911E+03  3.06951E+03 -5.90810E+03 -5.17166E+03  6.72741E+01 -1.28836E+04  9.00120E+03 -1.39521E+04
  1.60368E+04 -6.11354E+03  1.70408E+04  3.62809E+03  1.45429E+04  1.20482E+04  6.72480E+03  1.88296E+04
 -3.62075E+03  2.08860E+04 -1.32872E+04  1.33488E+04 -1.46680E+04  3.31247E+03 -1.01669E+04 -4.07065E+03
 -5.35320E+03 -5.23145E+03 -3.58008E+02  1.02546E+03 -2.81501E+03  1.98805E+03 -4.89408E+03  4.29909E+03
 -9.35520E+03 -1.42978E+02 -1.08569E+04 -9.01684E+03 -3.58530E+03 -1.44550E+04  4.45499E+03 -1.13100E+04
  9.20398E+03 -4.39188E+03  6.62978E+03  2.78284E+03  3.90131E+02  4.08258E+03 -4.77090E+03 -5.71568E+02
 -4.25184E+03 -6.81250E+03 -1.33007E+03 -9.55305E+03  5.44196E+03 -1.05491E+04  1.31629E+04 -5.96922E+03
  1.53629E+04  1.59397E+03  1.09014E+04  8.38069E+03  2.64875E+03  1.16413E+04 -6.48425E+03  1.07532E+04
 -8.76830E+03  3.02873E+03 -4.19121E+03 -2.44021E+03  1.45068E+03 -2.66184E+03  5.24394E+03 -7.63115E+02
  5.03301E+03  4.59984E+03  1.04382E+03  7.82244E+03 -6.05343E+03  7.95893E+03 -1.05884E+04  2.06722E+03
 -6.77167E+03 -5.37637E+03  2.12709E+02 -8.49596E+03  5.47202E+03 -4.42562E+03  5.21045E+03  1.62670E+03
  7.43124E+02  5.48306E+03 -4.59401E+03  6.56452E+03 -7.35853E+03  3.07481E+03 -7.03939E+03 -1.85038E+03
 -4.73456E+03 -8.70222E+03  1.88339E+03 -1.01542E+04  9.01094E+03 -6.57036E+03  9.14492E+03  1.60024E+03
  6.42589E+03  7.64265E+03 -7.18224E+02  9.21802E+03 -6.56925E+03  5.50907E+03 -7.52994E+03 -7.36208E+02
 -7.28918E+03 -6.31373E+03 -1.67331E+03 -7.14471E+03  2.88768E+03 -5.15289E+03  3.91118E+03 -2.85114E+03
  3.57082E+03  9.14365E+02 -3.88364E+02  1.77223E+03  2.65798E+02 -1.43429E+03  1.13721E+03 -3.24242E+03
  6.21438E+03 -2.18906E+03  7.69546E+03  1.14474E+03  8.45374E+03  5.16821E+03  6.41404E+03  1.13555E+04
 -2.37702E+03  1.24397E+04 -1.04448E+04  9.07690E+03 -1.40232E+04  1.65735E+03 -1.07926E+04 -3.67576E+03
 -6.51731E+03 -8.96275E+03 -7.98459E+02 -7.71841E+03  2.69550E+03 -4.20736E+03  3.23064E+03 -3.14091E+03
  1.85429E+03 -1.65012E+03  2.38893E+03 -2.76564E+03  3.74755E+03 -1.91678E+03  4.55229E+03  1.83615E+02
  6.42872E+03  1.29498E+03  2.31375E+03  4.70377E+03 -1.58720E+03  5.18095E+03 -6.45598E+03  4.47842E+03
 -7.26006E+03 -8.74313E+02 -3.34194E+03 -4.42709E+03  1.90126E+02 -7.24281E+03  4.56438E+03 -8.19916E+03
  7.20315E+03 -5.04275E+03  9.56298E+03  6.21672E+02  6.68468E+03  6.71862E+03  1.09605E+03  9.06571E+03
 -3.68871E+03  8.07290E+03 -5.36314E+03  2.84482E+03 -3.31388E+03 -1.65548E+03 -9.44891E+02 -1.29900E+03
 -6.46422E+02  3.50899E+02 -9.20288E+02  2.24916E+03 -3.43390E+03  1.26323E+03 -5.39212E+03 -1.04135E+03
 -2.74251E+03 -5.26221E+03  5.71298E+02 -7.07394E+03  4.07295E+03 -6.06028E+03  5.49139E+03 -1.57920E+03
  6.62031E+03  3.72865E+03  3.04483E+03  5.71803E+03 -1.88509E+03  6.59154E+03 -4.63499E+03  3.90082E+03
 -6.08649E+03  1.13004E+03 -4.23423E+03 -3.93418E+03 -2.99712E+02 -5.47401E+03  2.80911E+03 -3.52026E+03
  4.33525E+03 -1.74993E+03  2.71008E+03  6.76734E+02  1.28629E+03  2.44982E+03  1.32293E+03  8.36744E+02
  1.89172E+03  9.29401E+02  1.79965E+03  1.26052E+03  1.55757E+03  2.41854E+03  1.85925E+03  3.39452E+03
 -1.58674E+03  4.61042E+03 -4.19713E+03  5.31971E+03 -5.59581E+03  2.17340E+03 -6.51971E+03 -2.45101E+03
 -3.04224E+03 -5.38366E+03  6.73079E+02 -7.21864E+03  2.72116E+03 -3.86657E+03  5.02787E+03 -1.54939E+03
  3.85453E+03  2.53883E+03  1.06416E+03  3.41973E+03 -1.57834E+03  2.36226E+03 -2.03792E+03 -4.98452E+02
 -1.00446E+03 -1.97173E+03  1.41349E+03 -2.52170E+03  2.60960E+03 -1.54006E+03  2.27484E+03  6.94873E+02
  1.57141E+03  1.15891E+03  7.30827E+02  5.86208E+02 -6.10044E+02  1.44669E+03  1.41617E+03 -4.48535E+02
  5.66788E+02  2.54928E+02  2.05157E+03  5.04069E+02  2.96309E+02  3.62637E+03 -1.80170E+02  4.54497E+03
 -2.45141E+03  2.82977E+03 -3.27101E+03  9.10068E+02 -3.29995E+03 -1.01288E+03 -5.01797E+02 -1.85543E+03
  7.83769E+02 -2.60836E+03  1.56008E+03 -1.37715E+03  1.42216E+03  1.58596E+03 -1.35486E+03  1.59386E+03
 -1.96482E+03  1.22433E+03 -2.61119E+03 -2.31997E+03 -1.06947E+03 -3.36332E+03  5.92100E+02 -2.82000E+03
  8.21672E+02 -1.12127E+03  1.42722E+03 -2.95072E+02  2.41145E+03  1.17448E+03  5.88164E+02  1.36727E+03
 -8.50787E+02  4.43078E+02 -1.63282E+03 -2.38253E+02  1.14125E+03 -1.37695E+03  2.09101E+03 -1.50105E+03
  2.54652E+03  5.10550E+01  3.59538E+03  1.95384E+03  1.34439E+03  2.87820E+03 -1.51994E+03  3.21106E+03
 -2.55265E+03  6.67900E+02 -2.69485E+03 -3.04732E+02 -1.58419E+03 -1.97163E+03  6.28023E+02 -1.13039E+03
  2.52812E+03 -1.40691E+03  1.88628E+03  1.04701E+03  1.03808E+03  2.37078E+03 -8.11975E+00  1.70141E+03
 -2.47563E+02  1.53681E+03 -7.61128E+02  1.55374E+02 -6.37993E+02 -1.73673E+02 -1.27155E+03  3.32785E+02
 -9.88598E+02  1.72336E+03 -1.99843E+03  1.22809E+03 -2.41444E+03  6.34683E+02 -4.11727E+03 -1.22296E+03
 -1.17507E+03 -4.54150E+03  1.42487E+03 -5.05101E+03  1.83804E+03 -3.46524E+03  4.24886E+03 -1.72067E+03
  3.72560E+03  8.20733E+02  2.36165E+03  2.21709E+03 -2.17873E+02  2.38428E+03 -1.39602E+03  2.30245E+03
 -1.72888E+03  1.03081E+03 -9.67054E+02  1.31899E+02 -4.17533E+02  4.88183E+02 -2.01527E+02  5.23310E+02
 -1.15016E+03  2.38640E+02 -9.68456E+02 -2.87315E+02  6.22614E+02 -3.13832E+02 -6.15939E+02 -1.52417E+03
  1.66829E+03 -3.55449E+02  8.85723E+02  4.92509E+02  2.36847E+03  1.65337E+03 -3.27982E+01  2.57009E+03
 -1.43306E+03  3.22012E+03 -2.45124E+03  2.18531E+03 -3.30585E+03 -9.06554E+02 -1.93603E+03 -2.36597E+03
 -9.26564E+02 -1.91654E+03  3.13011E+02 -1.91357E+03  9.60020E+02 -1.04879E+03  1.09156E+03  1.85730E+02
  9.58456E+02  7.22056E+02 -2.84214E+02  7.67450E+02 -3.31636E+02 -6.50364E+02 -6.19823E+01 -9.27655E+02
  9.87552E+02 -2.72974E+02  9.22151E+02  5.45229E+02  8.11168E+02  7.52134E+02  3.11774E+02  7.62784E+02
 -1.37981E+03  1.18836E+03 -1.52670E+03  3.63442E+02 -1.69432E+03 -1.41741E+03 -4.45768E+02 -2.42997E+03
  7.86437E+02 -1.43815E+03  1.01734E+03 -1.98783E+02  1.82319E+03 -5.57369E+01  5.18616E+02  1.99281E+03
  8.41487E+02  7.92700E+02 -8.80406E+02  1.25564E+03 -7.65947E+02  1.33547E+03 -5.22712E+02  2.12375E+02
 -5.78426E+02 -1.33321E+02 -4.24689E+02  3.51691E+02 -1.08891E+03  3.35549E+02 -5.84762E+02  5.94107E+01
 -1.20676E+03 -2.67105E+02 -6.54439E+02 -1.38457E+03  8.21224E+02 -2.47793E+03  1.23678E+03 -3.23012E+02
  1.29376E+03  3.32177E+02  6.92360E+02  7.00407E+02 -1.83873E+02  1.14606E+03 -1.10124E+03  5.99541E+02
