 $NMID ID='MM_0lb_SNR400_10hz_g55_7.RAW', FMTDAT='(8E13.5)'
 TRAMP=1., VOLUME=1. $END
  3.10450E+05  2.85570E+02  3.37226E+05  2.50743E+05  8.46170E+04  3.38653E+05 -1.32726E+05  2.51724E+05
 -1.90470E+05  8.40821E+04 -1.12863E+05 -3.23511E+04 -2.27701E+02 -5.17810E+04  5.35202E+04 -1.32535E+02
  3.59872E+04  5.25295E+04 -1.60187E+04  7.63486E+04 -6.12945E+04  6.40001E+04 -8.47512E+04  3.24866E+04
 -8.20520E+04 -1.15349E+04 -5.82855E+04 -5.25647E+04 -1.50776E+04 -7.12416E+04  2.75995E+04 -4.68600E+04
  4.08639E+04  3.68943E+03  1.65076E+04  4.82911E+04 -3.51549E+04  4.86857E+04 -6.78927E+04  4.33600E+02
 -5.44357E+04 -5.75462E+04 -7.89000E+03 -7.76333E+04  3.51785E+04 -5.67343E+04  4.97466E+04 -1.86569E+04
  4.43128E+04  1.16139E+04  3.28455E+04  2.71012E+04  1.53056E+04  3.13753E+04 -6.33371E+03  2.77490E+04
 -2.30027E+04  1.26621E+04 -1.79377E+04 -5.29211E+03  7.42790E+03 -8.16922E+03  2.30316E+04  1.36471E+04
  6.21345E+03  3.73896E+04 -3.33553E+04  3.68701E+04 -6.56442E+04  2.01578E+03 -5.86934E+04 -4.50578E+04
 -1.26155E+04 -6.56345E+04  4.17840E+04 -4.81330E+04  6.05952E+04 -3.54584E+03  3.63517E+04  3.44255E+04
 -5.38498E+03  3.94038E+04 -3.22714E+04  1.84290E+04 -3.29944E+04 -3.55973E+03 -1.97586E+04 -1.21678E+04
 -9.43154E+03 -1.42406E+04 -9.48838E+02 -1.93344E+04  8.57197E+03 -2.28879E+04  1.57115E+04 -1.30140E+04
  1.08394E+04  5.61458E+03 -9.58112E+03  1.29491E+04 -2.40555E+04 -7.16061E+03 -8.38210E+03 -3.70191E+04
  2.45804E+04 -4.61918E+04  5.19717E+04 -2.03046E+04  4.84629E+04  2.06949E+04  1.72278E+04  4.61811E+04
 -1.64172E+04  3.57716E+04 -2.80907E+04  2.24874E+03 -1.16215E+04 -2.91949E+04  2.19298E+04 -3.67179E+04
  4.41121E+04 -1.03561E+04  4.05320E+04  2.47097E+04  2.14556E+04  5.04681E+04 -8.45503E+03  5.46117E+04
 -3.48947E+04  3.74161E+04 -4.69054E+04  1.08534E+04 -4.83331E+04 -1.87687E+04 -2.60981E+04 -4.22042E+04
  8.71865E+03 -4.24049E+04  3.50170E+04 -1.73000E+04  3.13350E+04  1.04341E+04  5.56689E+03  2.03488E+04
 -1.40614E+04  1.03336E+04 -1.16024E+04 -7.00447E+03  5.82520E+03 -1.06415E+04  1.88523E+04  6.27653E+03
  1.43326E+04  2.32117E+04 -5.66027E+03  2.61460E+04 -2.38389E+04  1.40453E+04 -3.11205E+04 -2.80291E+03
 -2.48026E+04 -1.89085E+04 -1.12714E+04 -2.52146E+04  4.64992E+03 -2.52064E+04  1.94386E+04 -2.15105E+04
  3.10671E+04 -1.41554E+04  3.86116E+04  4.51023E+03  2.66701E+04  2.38372E+04  4.04324E+03  4.00314E+04
 -1.96237E+04  3.34413E+04 -2.99883E+04  1.17948E+04 -2.26258E+04 -1.03195E+04 -4.72288E+03 -1.27751E+04
  1.19899E+03 -1.48675E+03 -6.56786E+03  8.27251E+03 -1.99518E+04  5.67069E+03 -1.94754E+04 -8.97247E+03
 -1.22408E+04 -2.26462E+04  6.29965E+03 -2.67523E+04  1.89882E+04 -1.96597E+04  2.21039E+04 -1.78210E+03
  1.39722E+04  1.59518E+04 -1.69154E+03  2.32628E+04 -1.55707E+04  1.31460E+04 -2.28424E+04 -4.32837E+03
 -1.64259E+04 -2.19975E+04 -1.85525E+03 -2.70484E+04  1.20842E+04 -2.33192E+04  2.25936E+04 -1.16684E+04
  2.12056E+04  1.79285E+02  1.53633E+04  5.19349E+03  7.74210E+03  1.89781E+03  1.20996E+04 -2.21718E+03
  2.13999E+04  3.27775E+03  2.50698E+04  1.85577E+04  1.74056E+04  3.68226E+04 -2.21587E+03  4.35714E+04
 -2.44351E+04  3.55391E+04 -4.08576E+04  1.83527E+04 -4.35618E+04 -2.57372E+03 -3.51499E+04 -2.57154E+04
 -1.47605E+04 -3.60584E+04  1.25814E+04 -3.18381E+04  2.63930E+04 -1.46671E+04  2.46420E+04  7.75923E+03
  7.70830E+03  1.77732E+04 -1.07462E+04  1.50602E+04 -1.99562E+04  2.58160E+03 -1.41371E+04 -1.20906E+04
 -2.13282E+02 -1.86069E+04  1.09062E+04 -1.36302E+04  1.28438E+04 -1.20220E+03  3.19661E+03  8.78892E+03
 -9.20502E+03  4.18752E+03 -9.08360E+03 -6.49156E+03 -9.88494E+02 -1.76268E+04  1.16058E+04 -1.92519E+04
  2.17269E+04 -1.01854E+04  2.47005E+04  3.04029E+03  2.16465E+04  1.79208E+04  1.09805E+04  2.83040E+04
 -5.41987E+03  3.01388E+04 -1.96077E+04  1.87735E+04 -2.25593E+04  4.67155E+03 -1.56139E+04 -5.20824E+03
 -5.88638E+03 -6.25503E+03 -7.26243E+02  1.03959E+02 -2.72395E+03  3.48085E+03 -7.10798E+03  5.40139E+03
 -1.35659E+04 -8.99014E+02 -1.39361E+04 -1.20306E+04 -5.61819E+03 -1.97267E+04  6.33086E+03 -1.54106E+04
  1.21662E+04 -6.93356E+03  8.95658E+03  4.34250E+03 -7.25562E+02  6.24599E+03 -7.76541E+03 -5.94613E+02
 -7.51837E+03 -9.22556E+03 -1.36786E+03 -1.49956E+04  8.32337E+03 -1.58366E+04  1.98577E+04 -9.05861E+03
  2.25365E+04  2.90152E+03  1.66778E+04  1.39160E+04  2.11975E+03  1.85798E+04 -8.97310E+03  1.49025E+04
 -1.23493E+04  4.55868E+03 -5.98834E+03 -2.43316E+03  2.51356E+03 -3.65632E+03  8.60940E+03 -9.49130E+02
  7.30334E+03  6.88869E+03  1.05686E+03  1.23568E+04 -8.90267E+03  1.15730E+04 -1.46620E+04  1.64838E+03
 -1.07418E+04 -7.60453E+03  2.20221E+02 -1.31544E+04  7.69154E+03 -6.76381E+03  9.14845E+03  2.97692E+03
  2.67529E+03  9.77853E+03 -8.71996E+03  1.18892E+04 -1.32806E+04  5.09121E+03 -1.28911E+04 -4.38002E+03
 -7.95197E+03 -1.45147E+04  4.20100E+03 -1.79466E+04  1.42102E+04 -9.96172E+03  1.53831E+04  2.67374E+03
  9.40248E+03  1.30499E+04 -1.76085E+03  1.52665E+04 -1.08152E+04  8.64481E+03 -1.17025E+04 -1.22689E+03
 -1.06019E+04 -1.05116E+04 -1.62564E+03 -1.16483E+04  6.72363E+03 -9.45435E+03  6.91750E+03 -3.14803E+03
  4.38172E+03  1.42875E+03 -3.25688E+02  1.25925E+03 -1.71918E+02 -2.82584E+03  1.83594E+03 -7.45657E+03
  1.13378E+04 -4.19980E+03  1.54524E+04  1.92597E+03  1.53692E+04  1.04352E+04  1.02264E+04  1.99159E+04
 -4.35386E+03  2.24396E+04 -1.92689E+04  1.70252E+04 -2.47963E+04  2.88075E+03 -1.96597E+04 -8.86570E+03
 -9.73983E+03 -1.57785E+04 -2.03359E+02 -1.35247E+04  5.23984E+03 -7.15049E+03  4.69145E+03 -4.61880E+03
  2.97627E+03 -2.71468E+03  3.49199E+03 -3.64114E+03  5.34245E+03 -3.32831E+03  7.73108E+03 -1.06048E+03
  1.04229E+04  2.69038E+03  5.30055E+03  8.61584E+03 -2.14537E+03  1.11413E+04 -1.11697E+04  8.51860E+03
 -1.36088E+04 -6.91393E+02 -8.57712E+03 -9.69752E+03 -8.59212E+02 -1.49554E+04  7.56950E+03 -1.46823E+04
  1.54749E+04 -8.83558E+03  1.77073E+04  2.24921E+03  1.24462E+04  1.26492E+04  2.18853E+03  1.67491E+04
 -7.04046E+03  1.37961E+04 -9.93762E+03  4.61972E+03 -6.67291E+03 -1.50999E+03 -2.45720E+03 -2.45606E+03
 -1.10906E+03 -6.45687E+02 -1.01162E+03  2.82254E+03 -5.75593E+03  2.08647E+03 -8.98266E+03 -8.56947E+02
 -6.95613E+03 -9.54797E+03 -3.10946E+01 -1.33143E+04  8.60536E+03 -1.29556E+04  1.36144E+04 -3.33834E+03
  1.31584E+04  6.49655E+03  5.88872E+03  1.24276E+04 -2.54912E+03  1.32906E+04 -9.98909E+03  9.15322E+03
 -1.32183E+04  1.01380E+03 -1.05498E+04 -7.86337E+03 -1.74680E+03 -1.17151E+04  5.72383E+03 -8.28195E+03
  8.61482E+03 -2.53707E+03  5.11949E+03  2.43343E+03  1.97815E+03  4.19784E+03  1.34950E+03  1.77900E+03
  2.83395E+03  1.55317E+03  3.63304E+03  1.34226E+03  3.62826E+03  5.15227E+03  3.33312E+03  7.17430E+03
 -2.81289E+03  1.04970E+04 -9.54667E+03  1.12026E+04 -1.47053E+04  2.62046E+03 -1.45893E+04 -5.07036E+03
 -8.00116E+03 -1.30571E+04  2.07592E+03 -1.48289E+04  8.66652E+03 -9.64052E+03  1.12113E+04 -2.27834E+03
  8.53540E+03  5.65099E+03  1.63997E+03  8.03905E+03 -3.83213E+03  5.40267E+03 -5.52641E+03 -2.43848E+01
 -2.79747E+03 -6.62052E+03  3.35397E+03 -6.22304E+03  6.41585E+03 -2.86782E+03  5.57652E+03  1.28745E+03
  3.29427E+03  2.00336E+03  1.26113E+03  1.71621E+03 -7.38455E+02  1.93355E+03  1.70479E+03 -8.38884E+01
  2.48425E+03 -7.43735E+02  5.14892E+03  1.22791E+03  2.58639E+03  6.72026E+03 -9.80261E+02  9.64824E+03
 -5.67903E+03  6.16515E+03 -9.13342E+03  1.10193E+03 -7.53033E+03 -3.75802E+03 -3.38939E+03 -5.61916E+03
  1.02470E+03 -6.18155E+03  3.44936E+03 -2.56763E+03  2.44307E+03  2.44653E+03 -1.51222E+03  4.60162E+03
 -6.32548E+03  2.62962E+03 -6.18699E+03 -2.74584E+03 -4.05546E+03 -7.51262E+03  1.02117E+03 -7.26491E+03
  4.20762E+03 -4.09216E+03  5.12685E+03 -5.99222E+02  4.98653E+03  1.78590E+03  5.14238E+02  4.31214E+03
 -2.83063E+03  1.90611E+03 -3.25094E+03 -3.38659E+03  1.26487E+03 -5.94958E+03  6.52701E+03 -4.83003E+03
  7.97873E+03  1.10604E+03  7.97763E+03  5.52367E+03  2.13746E+03  8.40043E+03 -3.95657E+03  8.32376E+03
 -7.02597E+03  3.27617E+03 -7.77966E+03 -6.06181E+02 -3.48418E+03 -5.74056E+03  1.85552E+03 -5.69802E+03
  5.88973E+03 -3.25432E+03  4.94162E+03  1.96481E+03  1.32111E+03  4.90157E+03 -6.64608E+02  4.40493E+03
 -2.01452E+03  2.77605E+03 -1.90404E+03  3.96464E+02 -1.16659E+03  3.17555E+02 -2.04586E+03  1.86433E+03
 -2.68006E+03  3.81227E+03 -5.98859E+03  4.02397E+03 -7.89552E+03 -7.71140E+01 -9.63302E+03 -6.73737E+03
 -5.74399E+03 -1.13131E+04  2.30184E+03 -1.34808E+04  8.11843E+03 -9.87891E+03  1.29175E+04 -4.29137E+03
  1.22212E+04  2.82281E+03  7.62880E+03  8.59579E+03  1.19562E+03  8.53645E+03 -3.81779E+03  7.12175E+03
 -4.92773E+03  2.84384E+03 -4.02348E+03 -1.26790E+03 -9.87999E+02 -1.03967E+03 -9.56789E+02 -1.01817E+02
 -1.73206E+03 -4.29483E+02 -1.51701E+03 -2.98434E+02 -3.11431E+02 -2.19732E+03  5.38288E+02 -3.51643E+03
  4.06107E+03 -3.26512E+03  4.94450E+03 -2.53801E+02  5.72383E+03  4.85450E+03  1.79711E+03  8.86898E+03
 -4.49772E+03  1.05870E+04 -8.90129E+03  6.09783E+03 -1.00110E+04 -7.89660E+02 -7.70611E+03 -6.50092E+03
 -2.90526E+03 -9.53018E+03  2.56419E+03 -8.14118E+03  5.83526E+03 -4.54166E+03  6.07528E+03 -1.35407E+02
  2.72012E+03  3.22677E+03 -7.74577E+00  2.45829E+03 -7.98036E+02 -2.63803E+01  1.42034E+02 -2.39900E+03
  2.61955E+03 -9.71571E+02  3.41085E+03  9.34351E+02  1.83767E+03  3.79355E+03  4.26313E+01  4.90370E+03
 -3.69457E+03  3.40857E+03 -5.73743E+03 -7.84737E+01 -6.29601E+03 -4.08395E+03 -1.22381E+03 -7.43063E+03
  4.04764E+03 -6.21404E+03  6.38982E+03 -2.49841E+03  7.06161E+03  2.12244E+03  4.40349E+03  5.10009E+03
  4.31394E+02  6.45942E+03 -2.62171E+03  4.52479E+03 -4.69222E+03  2.50542E+03 -3.26374E+03 -2.63878E+01
 -2.08118E+03  9.91784E+01 -1.97431E+03  1.32028E+03 -3.22004E+03  1.00039E+03 -5.03023E+03 -9.79127E+02
 -4.07153E+03 -3.42889E+03 -1.44011E+03 -5.70184E+03  2.84494E+03 -6.60502E+03  5.35004E+03 -2.27008E+03
  5.76018E+03  5.46426E+02  2.74368E+03  3.73053E+03 -3.51987E+02  6.37182E+03 -4.08816E+03  3.69239E+03
