 $NMID ID='MM_0lb_SNR400_18hz_g50_56.RAW', FMTDAT='(8E13.5)'
 TRAMP=1., VOLUME=1. $END
  3.10108E+05  3.76231E+02  3.37900E+05  2.50298E+05  8.43332E+04  3.37335E+05 -1.32485E+05  2.49934E+05
 -1.90070E+05  8.25216E+04 -1.10999E+05 -3.28752E+04  1.52996E+03 -5.02913E+04  5.37890E+04  3.10234E+02
  3.56802E+04  5.27809E+04 -1.69268E+04  7.52875E+04 -6.07606E+04  6.28422E+04 -8.36282E+04  3.19150E+04
 -8.00503E+04 -1.09161E+04 -5.69885E+04 -5.03183E+04 -1.56622E+04 -6.92412E+04  2.67087E+04 -4.51898E+04
  3.94022E+04  4.01451E+03  1.56617E+04  4.72714E+04 -3.44633E+04  4.68918E+04 -6.55510E+04 -9.53667E+02
 -5.21588E+04 -5.58807E+04 -6.58922E+03 -7.61117E+04  3.28968E+04 -5.38244E+04  4.69782E+04 -1.64655E+04
  4.20930E+04  1.11567E+04  3.10157E+04  2.52385E+04  1.62883E+04  2.85122E+04 -5.22298E+03  2.69699E+04
 -2.18774E+04  1.27762E+04 -1.86438E+04 -4.05070E+03  4.59643E+03 -7.30613E+03  2.17782E+04  1.16718E+04
  7.03106E+03  3.34046E+04 -3.07800E+04  3.40263E+04 -6.08943E+04  1.62980E+03 -5.60705E+04 -4.15275E+04
 -1.24896E+04 -6.09076E+04  3.80328E+04 -4.39246E+04  5.62774E+04 -2.25136E+03  3.17643E+04  3.05616E+04
 -6.29174E+03  3.38673E+04 -2.85323E+04  1.29859E+04 -2.85179E+04 -5.42457E+03 -1.48240E+04 -1.04140E+04
 -7.55992E+03 -1.18945E+04 -8.83486E+02 -1.66093E+04  7.39810E+03 -2.32540E+04  1.52744E+04 -1.41803E+04
  1.20660E+04  4.34881E+03 -6.78031E+03  1.27831E+04 -1.92342E+04 -2.83638E+03 -7.94777E+03 -3.16947E+04
  2.17792E+04 -4.10679E+04  4.53523E+04 -1.86476E+04  4.26116E+04  1.90690E+04  1.53757E+04  4.19983E+04
 -1.58160E+04  3.14113E+04 -2.38765E+04  1.13602E+03 -8.53015E+03 -2.62340E+04  2.02204E+04 -3.18487E+04
  3.82313E+04 -7.88595E+03  3.23431E+04  2.24294E+04  1.64818E+04  4.36468E+04 -7.41353E+03  4.61018E+04
 -2.88113E+04  3.03562E+04 -3.86576E+04  8.39121E+03 -3.96059E+04 -1.56643E+04 -2.16862E+04 -3.54998E+04
  7.28831E+03 -3.44968E+04  3.02103E+04 -1.31721E+04  2.80057E+04  1.06285E+04  3.27556E+03  1.80629E+04
 -1.39384E+04  7.64349E+03 -1.01294E+04 -8.18725E+03  5.49801E+03 -1.00989E+04  1.73496E+04  6.19222E+03
  1.22882E+04  2.16255E+04 -6.71457E+03  2.32006E+04 -2.16945E+04  9.39487E+03 -2.63477E+04 -6.61222E+03
 -1.77733E+04 -1.66121E+04 -6.19522E+03 -1.71484E+04  4.69240E+03 -1.57182E+04  1.32149E+04 -1.48602E+04
  2.26059E+04 -1.15182E+04  2.89296E+04  1.10110E+03  2.19214E+04  1.73358E+04  4.08499E+03  3.37577E+04
 -1.66659E+04  2.79285E+04 -2.59970E+04  9.34289E+03 -1.99782E+04 -1.00799E+04 -4.49132E+03 -1.37862E+04
  2.35118E+03 -3.96249E+03 -2.92285E+03  5.44580E+03 -1.33740E+04  5.24215E+03 -1.43802E+04 -4.70905E+03
 -9.11238E+03 -1.58301E+04  4.45632E+03 -2.01222E+04  1.31404E+04 -1.46825E+04  1.53125E+04 -1.23593E+03
  9.09566E+03  1.15260E+04 -1.09908E+03  1.60555E+04 -9.98300E+03  9.15854E+03 -1.64888E+04 -3.75689E+03
 -1.17672E+04 -1.46813E+04 -1.17325E+03 -1.97678E+04  8.71732E+03 -1.59932E+04  1.67674E+04 -7.25938E+03
  1.54455E+04  7.73757E+02  1.07215E+04  3.80808E+03  5.30501E+03  6.23101E+02  7.40916E+03 -1.16590E+03
  1.46198E+04  3.14010E+03  1.53657E+04  1.31571E+04  1.01185E+04  2.53623E+04 -3.58698E+03  2.79690E+04
 -1.63494E+04  2.14145E+04 -2.55738E+04  1.00404E+04 -2.63672E+04 -2.19444E+03 -2.32594E+04 -1.56659E+04
 -1.02546E+04 -2.16616E+04  7.41286E+03 -1.96243E+04  1.77056E+04 -1.12796E+04  1.64644E+04  4.35157E+03
  6.88937E+03  1.16840E+04 -7.24287E+03  1.11835E+04 -1.36180E+04  2.09134E+03 -1.04658E+04 -8.26341E+03
 -1.32933E+02 -1.31964E+04  6.16934E+03 -1.05702E+04  8.59204E+03 -1.53957E+03  1.59649E+03  5.46017E+03
 -5.62533E+03  1.04662E+03 -4.15052E+03 -4.71138E+03  2.88717E+02 -1.10351E+04  7.67031E+03 -1.11380E+04
  1.29064E+04 -4.54379E+03  1.29795E+04  2.86900E+03  1.09711E+04  9.89154E+03  5.55073E+03  1.47572E+04
 -1.86588E+03  1.65519E+04 -9.87365E+03  1.04568E+04 -1.21228E+04  2.87884E+03 -8.96890E+03 -2.50015E+03
 -4.15441E+03 -4.02519E+03 -7.33651E+02  1.13484E+03 -1.79339E+03  2.36967E+03 -4.50772E+03  3.79925E+03
 -8.32645E+03 -1.20335E+03 -9.19386E+03 -7.52189E+03 -4.14798E+03 -1.20100E+04  3.53692E+03 -8.98022E+03
  8.16145E+03 -3.97129E+03  5.59089E+03  2.22483E+03 -3.86653E+01  3.71279E+03 -3.69180E+03 -1.34138E+02
 -3.60024E+03 -5.15392E+03 -3.38120E+02 -6.97646E+03  3.80009E+03 -8.59676E+03  1.08287E+04 -3.69754E+03
  1.23014E+04  4.84176E+02  9.89224E+03  6.91894E+03  2.13851E+03  8.96176E+03 -5.13336E+03  9.04853E+03
 -6.50328E+03  2.67909E+03 -3.57406E+03 -1.26079E+03  9.99183E+02 -1.85860E+03  5.03824E+03 -5.82519E+02
  4.04697E+03  3.45489E+03  1.12307E+03  6.43719E+03 -4.35124E+03  6.67488E+03 -8.26733E+03  1.52235E+03
 -5.56525E+03 -2.98357E+03  2.59551E+01 -6.32428E+03  3.87928E+03 -3.56757E+03  4.45292E+03  8.59222E+02
  5.70829E+02  3.89015E+03 -3.66515E+03  5.12249E+03 -5.20708E+03  2.24986E+03 -4.79494E+03 -1.31775E+03
 -3.12847E+03 -5.74167E+03  1.24747E+03 -7.47107E+03  6.50868E+03 -4.68768E+03  6.93192E+03  1.50466E+03
  5.42492E+03  6.09901E+03  2.26365E+02  8.09229E+03 -5.33193E+03  4.09928E+03 -5.17515E+03 -6.97545E+02
 -5.92442E+03 -5.38068E+03 -9.61076E+02 -6.18183E+03  3.38031E+03 -4.84115E+03  3.34282E+03 -2.86186E+03
  2.96779E+03  2.06043E+02  2.75435E+02  1.85459E+03  2.57280E+02 -8.10603E+02  3.50995E+01 -1.95245E+03
  3.89377E+03 -1.04821E+03  5.75050E+03  3.02449E+02  5.77284E+03  3.63853E+03  5.36897E+03  7.86303E+03
 -1.02220E+03  9.15887E+03 -8.89550E+03  6.88187E+03 -1.04351E+04  1.44071E+03 -8.29979E+03 -2.71549E+03
 -4.59275E+03 -6.69175E+03 -4.59577E+02 -5.54515E+03  2.70881E+03 -2.20777E+03  1.75393E+03 -2.30303E+03
  1.36761E+03 -1.74505E+03  2.39224E+03 -2.11636E+03  3.86084E+03 -1.67509E+03  4.02343E+03  7.65534E+02
  4.59611E+03  1.10247E+03  1.61314E+03  3.57156E+03 -1.79178E+03  3.62666E+03 -4.48609E+03  2.43283E+03
 -5.41701E+03 -1.05387E+03 -2.66755E+03 -3.78930E+03  2.25184E+02 -5.18335E+03  3.33471E+03 -5.56415E+03
  5.35087E+03 -3.42584E+03  6.55395E+03  3.50220E+02  5.15704E+03  4.79708E+03  1.40928E+03  6.61407E+03
 -2.20152E+03  6.31235E+03 -3.49556E+03  2.64812E+03 -2.54073E+03 -1.02419E+03 -1.10759E+03 -8.62676E+02
 -6.01145E+02  1.09482E+03 -9.80997E+02  1.68162E+03 -2.80715E+03  1.28327E+03 -3.90297E+03 -4.44468E+02
 -8.78305E+02 -4.45804E+03  6.92124E+02 -5.20742E+03  2.33855E+03 -4.83811E+03  3.97557E+03 -1.75526E+03
  3.69556E+03  2.34504E+03  2.60858E+03  3.74223E+03 -7.24513E+02  4.46872E+03 -2.83588E+03  3.02583E+03
 -4.30489E+03  6.81792E+02 -3.39503E+03 -2.40393E+03 -5.95766E+02 -3.40079E+03  1.38714E+03 -2.80311E+03
  3.10732E+03 -1.38959E+03  2.04311E+03  4.06006E+02  2.13085E+02  1.92768E+03  1.36922E+03  7.95704E+02
  1.39076E+03  6.06809E+02  1.73996E+03  9.05882E+02  1.04895E+03  2.37169E+03  9.83176E+02  1.85403E+03
 -1.10325E+03  3.64263E+03 -2.58430E+03  4.31925E+03 -2.92501E+03  1.26717E+03 -3.86561E+03 -3.58155E+02
 -1.95949E+03 -3.76425E+03  5.32033E+02 -4.82665E+03  2.00084E+03 -2.05263E+03  3.33548E+03 -1.07739E+03
  2.46611E+03  2.15807E+03  7.23000E+02  1.95626E+03 -3.07539E+02  1.75379E+03 -1.65992E+03 -2.16502E+02
 -9.30883E+02 -1.26944E+03  1.40018E+03 -1.37382E+03  1.71148E+03 -3.06993E+02  1.47379E+03  1.66636E+02
  9.90088E+02  5.26240E+02  5.73937E+02 -3.78949E+02 -7.34377E+02  1.12913E+03  1.60751E+03 -3.02226E+02
  4.67790E+02 -1.36824E+02  1.90497E+03  1.35777E+03  1.04085E+02  2.79267E+03  6.85001E+01  2.26918E+03
 -1.44427E+03  1.67196E+03 -2.18337E+03  4.30142E+02 -2.06986E+03 -1.36515E+03  2.15725E+02 -8.49189E+02
  4.82338E+02 -1.10440E+03  7.97838E+02 -2.32378E+02  4.54230E+02  1.05317E+03 -7.15273E+02  1.07545E+03
 -1.52222E+03  1.02916E+03 -1.65755E+03 -1.14881E+03 -8.68459E+02 -2.72784E+03  4.11919E+02 -2.06791E+03
  6.52791E+01 -1.68699E+02  6.18450E+02 -4.67644E+02  1.93594E+03  1.56893E+02  1.66233E+02  1.00782E+03
 -2.20329E+02  6.55880E+02 -9.88811E+02 -1.49209E+02  4.30525E+02 -1.00293E+03  1.89462E+03 -8.25890E+02
  1.08563E+03  3.31088E+02  3.30746E+03  6.90692E+02  1.54394E+03  2.16357E+03 -1.15192E+03  1.85976E+03
 -1.72807E+03  2.79470E+02 -1.59627E+03 -3.60137E+02 -1.01966E+03 -5.94699E+02  4.64035E+01 -8.65337E+02
  1.85788E+03 -5.02773E+02  8.26691E+02  8.18519E+02  5.61189E+02  1.74370E+03  4.19657E+02  1.37523E+03
 -2.97280E+02  3.56470E+02  5.08342E+01  4.82747E+02  4.78626E+02  6.71442E+02 -5.27555E+02  7.95551E+02
 -1.96585E+02  1.41346E+03 -1.96895E+03  4.35601E+02 -2.42240E+03 -3.59464E+01 -2.61415E+03 -1.43535E+03
 -1.16559E+03 -2.66172E+03  2.30246E+02 -3.46917E+03  1.37136E+03 -2.92641E+03  3.07160E+03 -5.85331E+02
  2.76248E+03 -1.73713E+02  1.19262E+03  1.56804E+03 -5.16699E+02  6.37063E+02 -4.72573E+02  1.83906E+03
 -1.11339E+03  6.23843E+02 -8.95938E+02 -3.47253E+02 -1.07758E+02  2.15070E+02 -1.37517E+03 -4.56871E+00
 -1.30442E+03 -2.42275E+02 -1.15827E+03  1.76664E+02  4.63375E+02 -6.81226E+02 -6.24193E+02 -7.83305E+02
  1.85765E+03 -7.36807E+02  5.85655E+02  3.90513E+02  8.35875E+02  1.11155E+03 -3.46597E+02  9.61479E+02
 -9.16275E+02  2.09426E+03 -1.78084E+03  1.33316E+03 -1.70400E+03  3.47688E+02 -1.16140E+03 -1.71970E+03
 -1.40319E+03 -1.27617E+03  6.36992E+02 -9.35530E+02  5.59139E+02 -6.88592E+02  8.21380E+02 -1.27146E+02
  8.04870E+02  4.48405E+02  1.87158E+02 -2.58470E+02 -1.25254E+02  3.40498E+02  9.15524E+01 -1.58318E+02
  1.98404E+02  7.35511E+01  5.60568E+01  6.34693E+02  2.65693E+02  1.13578E+03  5.55451E+02  7.76836E+02
 -6.30561E+02  4.66192E+02 -4.68205E+02 -1.02294E+02 -9.28815E+02 -6.08928E+02  4.77403E+02 -1.39893E+03
  9.02576E+02 -4.32715E+02  2.11312E+02 -7.00284E+01  1.52468E+03 -4.84916E+02  4.98430E+02  6.50574E+02
  9.65544E+02  5.58197E+02 -9.62378E+02  1.08357E+03 -1.68619E+02  1.31333E+03 -9.39834E+02 -1.38852E-01
 -1.65221E+02  1.39522E+02 -3.30911E+02 -2.96141E+02 -8.54454E+02 -1.74361E+02 -5.44049E+02  1.62018E+02
 -1.21799E+03  7.70371E+02  3.77352E+01 -8.40792E+02  5.70884E+02 -1.60759E+03  8.38468E+02 -9.14103E+02
  7.36654E+02  2.65060E+02 -2.27554E+02  7.60554E+01 -5.40285E+01  4.28138E+02 -9.22978E+02  5.04263E+02
