 $NMID ID='MM_0lb_SNR400_8hz_g55_92.RAW', FMTDAT='(8E13.5)'
 TRAMP=1., VOLUME=1. $END
  3.10352E+05 -1.26673E+02  3.37526E+05  2.50333E+05  8.55519E+04  3.39051E+05 -1.32765E+05  2.53286E+05
 -1.90319E+05  8.40966E+04 -1.12740E+05 -3.21388E+04 -5.49744E+01 -5.17145E+04  5.30126E+04 -3.09181E+02
  3.59477E+04  5.21186E+04 -1.64458E+04  7.62501E+04 -6.12239E+04  6.43989E+04 -8.66192E+04  3.25738E+04
 -8.38081E+04 -1.16740E+04 -5.89821E+04 -5.30057E+04 -1.50014E+04 -7.13775E+04  2.86837E+04 -4.77455E+04
  4.09235E+04  3.16393E+03  1.68318E+04  4.86330E+04 -3.54826E+04  4.79821E+04 -6.91456E+04  4.50843E+02
 -5.48725E+04 -5.82639E+04 -7.71301E+03 -7.96916E+04  3.49952E+04 -5.72521E+04  5.08495E+04 -1.90094E+04
  4.60740E+04  1.11060E+04  3.35866E+04  2.75949E+04  1.55011E+04  3.13723E+04 -5.75937E+03  2.83146E+04
 -2.26416E+04  1.19703E+04 -1.74670E+04 -5.68615E+03  7.58096E+03 -7.36969E+03  2.45097E+04  1.43617E+04
  6.08116E+03  3.77349E+04 -3.47771E+04  3.71372E+04 -6.66603E+04  2.20383E+03 -5.96607E+04 -4.55105E+04
 -1.31028E+04 -6.69776E+04  4.19639E+04 -4.77962E+04  6.28778E+04 -2.75562E+03  3.78802E+04  3.46080E+04
 -4.66325E+03  4.02889E+04 -3.17905E+04  2.00935E+04 -3.46563E+04 -2.65261E+03 -1.96810E+04 -1.24422E+04
 -9.31394E+03 -1.61213E+04 -1.78598E+02 -1.98761E+04  8.05142E+03 -2.29865E+04  1.60264E+04 -1.24578E+04
  1.02277E+04  5.90754E+03 -1.14634E+04  1.21286E+04 -2.28294E+04 -8.28310E+03 -9.34052E+03 -3.90424E+04
  2.59534E+04 -4.74945E+04  5.34309E+04 -2.11543E+04  4.99645E+04  2.17582E+04  1.81988E+04  4.76104E+04
 -1.69492E+04  3.68356E+04 -2.88361E+04  2.41991E+03 -1.14397E+04 -2.94077E+04  2.20285E+04 -3.77852E+04
  4.51445E+04 -1.17843E+04  4.12593E+04  2.53623E+04  2.25343E+04  5.17965E+04 -7.72579E+03  5.77910E+04
 -3.61641E+04  3.91479E+04 -4.94179E+04  1.18339E+04 -4.84679E+04 -1.81540E+04 -2.68865E+04 -4.29693E+04
  8.64619E+03 -4.35757E+04  3.53430E+04 -1.74699E+04  3.32239E+04  1.17061E+04  5.32382E+03  2.12500E+04
 -1.39988E+04  1.05410E+04 -1.17050E+04 -6.88665E+03  5.74326E+03 -1.16213E+04  1.90397E+04  5.88123E+03
  1.53853E+04  2.25858E+04 -4.92264E+03  2.71537E+04 -2.36991E+04  1.52035E+04 -3.27140E+04 -2.69156E+03
 -2.67415E+04 -1.88070E+04 -1.27540E+04 -2.68520E+04  5.04001E+03 -2.74985E+04  2.19557E+04 -2.40491E+04
  3.31085E+04 -1.43733E+04  4.00265E+04  5.23457E+03  2.77708E+04  2.62370E+04  4.95250E+03  4.34659E+04
 -1.99010E+04  3.52224E+04 -3.14565E+04  1.21041E+04 -2.21241E+04 -1.01150E+04 -5.32776E+03 -1.25161E+04
  1.05772E+03 -7.13252E+01 -8.33050E+03  9.13048E+03 -2.17338E+04  5.32889E+03 -2.04704E+04 -1.07447E+04
 -1.25067E+04 -2.44431E+04  5.76455E+03 -2.84853E+04  1.98300E+04 -2.04634E+04  2.47655E+04 -1.54076E+03
  1.54168E+04  1.74595E+04 -2.14599E+03  2.39938E+04 -1.84161E+04  1.48258E+04 -2.50914E+04 -5.05771E+03
 -1.80738E+04 -2.25227E+04 -2.31725E+03 -2.92965E+04  1.22974E+04 -2.53191E+04  2.45402E+04 -1.29188E+04
  2.31576E+04 -2.83039E+02  1.70072E+04  5.79768E+03  9.23216E+03  1.41732E+03  1.20325E+04 -2.43473E+03
  2.25871E+04  1.85780E+03  2.76724E+04  2.00426E+04  1.89184E+04  4.00330E+04 -3.01880E+03  4.72902E+04
 -2.66585E+04  3.90624E+04 -4.49569E+04  2.03163E+04 -4.77319E+04 -3.41696E+03 -3.83304E+04 -2.79777E+04
 -1.43883E+04 -4.08644E+04  1.32690E+04 -3.52237E+04  3.02452E+04 -1.59003E+04  2.55780E+04  9.43390E+03
  8.65904E+03  1.97773E+04 -1.23415E+04  1.72057E+04 -2.03251E+04  2.90439E+03 -1.60421E+04 -1.34051E+04
 -8.13123E+02 -2.13821E+04  1.16918E+04 -1.49457E+04  1.40126E+04 -1.94845E+03  4.43587E+03  9.41301E+03
 -9.13484E+03  4.40604E+03 -1.05277E+04 -7.72748E+03 -2.22192E+03 -1.95522E+04  1.25694E+04 -2.13404E+04
  2.42071E+04 -1.29395E+04  2.94467E+04  3.02049E+03  2.52671E+04  1.97952E+04  1.09247E+04  3.16785E+04
 -7.12267E+03  3.37233E+04 -2.27341E+04  2.10769E+04 -2.46924E+04  3.85723E+03 -1.69126E+04 -6.60179E+03
 -7.10255E+03 -8.38639E+03  2.65058E+02 -1.60345E+01 -2.95362E+03  4.19750E+03 -7.43312E+03  5.04120E+03
 -1.57182E+04 -1.46097E+02 -1.67662E+04 -1.25167E+04 -6.31695E+03 -2.17572E+04  7.79197E+03 -1.74029E+04
  1.41841E+04 -6.84535E+03  9.51367E+03  4.70518E+03  8.53499E+02  6.95121E+03 -9.17205E+03  1.83146E+02
 -8.70711E+03 -1.09561E+04 -1.35991E+03 -1.71034E+04  9.94526E+03 -1.79585E+04  2.16977E+04 -9.80514E+03
  2.60190E+04  3.65672E+03  1.89292E+04  1.56863E+04  3.54398E+03  2.07141E+04 -1.06297E+04  1.66277E+04
 -1.46144E+04  4.91455E+03 -7.50838E+03 -4.30394E+03  3.03752E+03 -4.94210E+03  8.69328E+03 -7.50213E+02
  8.00606E+03  7.78653E+03  1.11797E+03  1.39280E+04 -9.77975E+03  1.29569E+04 -1.84859E+04  3.69582E+03
 -1.20388E+04 -9.31785E+03 -1.59290E+01 -1.45644E+04  1.07590E+04 -7.35827E+03  1.04644E+04  4.12245E+03
  1.00652E+03  1.18062E+04 -9.28370E+03  1.28491E+04 -1.55746E+04  5.62704E+03 -1.50806E+04 -5.30992E+03
 -9.28780E+03 -1.69374E+04  4.70400E+03 -2.09530E+04  1.71935E+04 -1.17732E+04  1.95798E+04  3.52256E+03
  1.24033E+04  1.47095E+04 -1.26397E+03  1.82892E+04 -1.35558E+04  9.55511E+03 -1.39391E+04 -1.36505E+03
 -1.10540E+04 -1.14888E+04 -1.70752E+03 -1.32341E+04  7.20429E+03 -9.52340E+03  8.48971E+03 -3.93362E+03
  4.52375E+03  2.51847E+03 -1.93902E+03  2.33771E+03 -1.49405E+03 -4.29555E+03  2.73267E+03 -8.89752E+03
  1.27327E+04 -6.14326E+03  1.92685E+04  2.00019E+03  1.79336E+04  1.28828E+04  1.15826E+04  2.41791E+04
 -6.01188E+03  2.76401E+04 -2.30546E+04  1.94099E+04 -2.93821E+04  3.42623E+03 -2.34619E+04 -1.02044E+04
 -1.19515E+04 -1.94841E+04 -3.65735E+02 -1.65937E+04  5.78093E+03 -9.61550E+03  6.19744E+03 -5.74386E+03
  4.81367E+03 -3.58308E+03  3.91456E+03 -4.70648E+03  6.43841E+03 -3.90097E+03  8.69915E+03 -9.95109E+02
  1.23600E+04  2.79893E+03  7.45867E+03  1.07152E+04 -2.62128E+03  1.30191E+04 -1.29896E+04  9.50969E+03
 -1.71193E+04 -1.86534E+03 -1.13266E+04 -1.13892E+04 -1.60328E+03 -1.78717E+04  9.60905E+03 -1.84309E+04
  1.82224E+04 -1.04729E+04  2.29652E+04  3.30408E+03  1.51372E+04  1.59387E+04  2.07017E+03  2.01147E+04
 -8.04046E+03  1.68876E+04 -1.19060E+04  5.24799E+03 -8.73329E+03 -2.53832E+03 -2.65403E+03 -2.70109E+03
 -1.65913E+03 -5.48593E+02 -4.06666E+03  2.38061E+03 -7.07409E+03  3.58640E+03 -1.12507E+04 -1.91072E+03
 -9.06593E+03 -1.13529E+04 -8.16593E+02 -1.69522E+04  9.48269E+03 -1.51689E+04  1.73196E+04 -4.46078E+03
  1.67158E+04  8.03357E+03  7.86491E+03  1.51785E+04 -3.07148E+03  1.76025E+04 -1.22184E+04  1.06766E+04
 -1.64963E+04  3.61938E+01 -1.22159E+04 -1.03934E+04 -1.32456E+03 -1.54096E+04  7.91136E+03 -9.48807E+03
  1.10480E+04 -4.14463E+03  7.66692E+03  3.41391E+03  2.20563E+03  5.17576E+03  1.70627E+03  3.15800E+03
  3.52826E+03  2.44359E+03  4.63298E+03  2.69189E+03  4.85319E+03  5.79458E+03  3.18197E+03  9.23474E+03
 -3.28031E+03  1.34910E+04 -1.25659E+04  1.30549E+04 -1.88315E+04  3.57923E+03 -1.82177E+04 -7.89152E+03
 -9.68309E+03 -1.80891E+04  2.17006E+03 -1.88077E+04  1.07708E+04 -1.24127E+04  1.46260E+04 -2.63203E+03
  1.13609E+04  5.63654E+03  2.94213E+03  1.04084E+04 -5.73565E+03  6.25394E+03 -8.51388E+03 -1.20141E+03
 -3.23995E+03 -7.70193E+03  3.45134E+03 -7.53459E+03  7.21872E+03 -3.15780E+03  7.08259E+03  1.08136E+03
  3.90849E+03  4.05162E+03  1.61199E+03  3.75630E+03 -3.86314E+02  1.91596E+03  2.30651E+03 -7.63385E+02
  3.66751E+03 -9.13919E+02  6.99520E+03  3.60825E+03  5.37278E+03  9.24127E+03 -1.57382E+03  1.23492E+04
 -8.40101E+03  8.53784E+03 -1.26431E+04  2.40246E+03 -1.09305E+04 -4.57712E+03 -3.70904E+03 -7.93059E+03
  4.65377E+02 -6.80512E+03  5.14816E+03 -3.40393E+03  4.13219E+03  3.63627E+03 -1.55964E+03  6.14436E+03
 -8.33853E+03  2.68924E+03 -7.89965E+03 -2.94214E+03 -5.03713E+03 -9.79389E+03  2.21336E+03 -1.01728E+04
  6.85128E+03 -6.24449E+03  7.87076E+03 -1.01623E+02  6.53440E+03  2.92051E+03  2.66163E+02  5.36159E+03
 -4.02964E+03  1.50381E+03 -5.07603E+03 -3.89536E+03  1.47292E+03 -7.55029E+03  9.31179E+03 -6.02861E+03
  1.17772E+04  6.78176E+02  1.09509E+04  8.70992E+03  2.89984E+03  1.24722E+04 -3.68683E+03  1.12461E+04
 -9.77770E+03  4.34627E+03 -1.03843E+04 -1.35327E+03 -5.16936E+03 -8.07786E+03  1.40310E+03 -8.04060E+03
  8.19154E+03 -3.56721E+03  5.97178E+03  3.93089E+03  1.75764E+03  6.90555E+03 -1.64707E+03  5.84876E+03
 -3.11738E+03  4.28397E+03 -2.48714E+03  9.74801E+02 -6.65716E+02  2.27518E+03 -1.46696E+03  2.29890E+03
 -2.68471E+03  4.07060E+03 -8.12494E+03  4.01303E+03 -1.26461E+04 -9.23564E+01 -1.40349E+04 -8.27552E+03
 -7.51791E+03 -1.57918E+04  3.30267E+03 -1.87224E+04  1.17475E+04 -1.38923E+04  1.77672E+04 -5.79622E+03
  1.71737E+04  3.32032E+03  1.12512E+04  1.17759E+04  1.13517E+03  1.15754E+04 -5.32202E+03  1.00515E+04
 -7.02139E+03  3.53658E+03 -4.94245E+03 -1.12358E+03 -7.48945E+02 -1.78753E+03 -7.28479E+02 -6.53963E+02
 -1.88703E+03  9.39204E+02 -3.27539E+03 -4.18316E+02 -1.07317E+03 -3.67117E+03  4.18150E+02 -5.55337E+03
  5.99249E+03 -5.01468E+03  7.43100E+03  1.78832E+02  9.35790E+03  6.36017E+03  2.06305E+03  1.30905E+04
 -5.20224E+03  1.47256E+04 -1.43107E+04  8.38371E+03 -1.63562E+04 -1.31048E+03 -1.13902E+04 -9.97149E+03
 -4.62790E+03 -1.36863E+04  3.09097E+03 -1.23379E+04  8.49605E+03 -7.03225E+03  9.23229E+03  4.10470E+02
  4.65994E+03  4.38045E+03  3.12955E+02  3.62298E+03 -2.33522E+03 -6.85448E+02  2.28563E+02 -2.87317E+03
  4.34940E+03 -2.14414E+03  5.97634E+03  6.78443E+02  3.17886E+03  4.81967E+03  3.25132E+02  6.67948E+03
 -5.80698E+03  6.41992E+03 -8.89565E+03  6.14407E+02 -7.15362E+03 -6.55910E+03 -1.56558E+03 -1.04955E+04
  6.39135E+03 -8.86818E+03  1.14133E+04 -3.64518E+03  8.91457E+03  2.47735E+03  5.32625E+03  9.38727E+03
  1.25089E+03  8.42849E+03 -3.63577E+03  7.09907E+03 -5.55689E+03  4.13853E+03 -5.07113E+03  1.33353E+03
 -2.56208E+03 -3.83218E+02 -2.74610E+03  7.73389E+02 -4.94135E+03  2.14382E+03 -7.10638E+03 -1.58742E+03
 -7.10095E+03 -4.79852E+03 -1.62369E+03 -9.44858E+03  3.65562E+03 -8.94380E+03  7.67067E+03 -4.73840E+03
  9.47911E+03  1.13943E+03  4.67997E+03  6.87831E+03 -2.74006E+02  9.20429E+03 -6.66505E+03  5.06109E+03
