 $NMID ID='MM_0lb_SNR400_12hz_g50_93.RAW', FMTDAT='(8E13.5)'
 TRAMP=1., VOLUME=1. $END
  3.09661E+05  3.06865E+02  3.37905E+05  2.50302E+05  8.45873E+04  3.37883E+05 -1.32468E+05  2.52158E+05
 -1.90139E+05  8.38554E+04 -1.12189E+05 -3.26129E+04  3.95981E+02 -5.06174E+04  5.36817E+04 -2.82714E+02
  3.55748E+04  5.23789E+04 -1.65900E+04  7.68350E+04 -6.09258E+04  6.45002E+04 -8.50385E+04  3.24571E+04
 -8.17530E+04 -1.11204E+04 -5.67386E+04 -5.22171E+04 -1.54671E+04 -6.98662E+04  2.83836E+04 -4.66490E+04
  4.01743E+04  3.55977E+03  1.59565E+04  4.82808E+04 -3.36981E+04  4.72426E+04 -6.71736E+04  3.10570E+02
 -5.41307E+04 -5.74828E+04 -7.41397E+03 -7.79732E+04  3.47166E+04 -5.56130E+04  4.89227E+04 -1.76686E+04
  4.50721E+04  1.12830E+04  3.22629E+04  2.65340E+04  1.57243E+04  2.92245E+04 -5.53100E+03  2.75963E+04
 -2.28506E+04  1.20239E+04 -1.77976E+04 -5.47493E+03  6.59147E+03 -7.08534E+03  2.30593E+04  1.29486E+04
  6.91939E+03  3.63088E+04 -3.26964E+04  3.61606E+04 -6.43008E+04  2.43298E+03 -5.81167E+04 -4.32871E+04
 -1.28751E+04 -6.41325E+04  4.07469E+04 -4.61322E+04  5.99948E+04 -2.84763E+03  3.56987E+04  3.38654E+04
 -5.76122E+03  3.76109E+04 -3.03125E+04  1.68975E+04 -3.05810E+04 -4.15961E+03 -1.75342E+04 -1.14665E+04
 -8.86118E+03 -1.35640E+04 -1.14334E+03 -1.94660E+04  8.12519E+03 -2.32728E+04  1.53357E+04 -1.30112E+04
  1.05248E+04  5.31457E+03 -9.55193E+03  1.33072E+04 -2.19343E+04 -5.11951E+03 -8.90328E+03 -3.51979E+04
  2.34857E+04 -4.49711E+04  4.97909E+04 -1.99340E+04  4.69904E+04  1.95694E+04  1.58609E+04  4.48074E+04
 -1.65370E+04  3.47475E+04 -2.61484E+04  2.28760E+03 -1.10303E+04 -2.82913E+04  2.11449E+04 -3.49372E+04
  4.24126E+04 -9.77777E+03  3.75889E+04  2.45699E+04  1.96996E+04  4.82836E+04 -8.18060E+03  5.31371E+04
 -3.32735E+04  3.52655E+04 -4.44831E+04  1.06042E+04 -4.48278E+04 -1.74894E+04 -2.39625E+04 -3.96323E+04
  7.30786E+03 -3.97769E+04  3.23161E+04 -1.54827E+04  3.02712E+04  1.06277E+04  4.78223E+03  2.07330E+04
 -1.35964E+04  9.05189E+03 -1.04135E+04 -7.29820E+03  6.20143E+03 -1.10404E+04  1.82772E+04  5.67207E+03
  1.44117E+04  2.26256E+04 -5.97795E+03  2.56322E+04 -2.30592E+04  1.15483E+04 -2.90195E+04 -3.82249E+03
 -2.28665E+04 -1.72567E+04 -1.03298E+04 -2.25464E+04  4.28551E+03 -2.17559E+04  1.71296E+04 -2.04922E+04
  2.87714E+04 -1.36354E+04  3.43455E+04  4.11170E+03  2.55049E+04  2.19338E+04  4.10472E+03  3.86154E+04
 -1.88659E+04  3.23421E+04 -2.93725E+04  1.13928E+04 -2.16161E+04 -1.03571E+04 -4.19161E+03 -1.36922E+04
  2.47553E+03 -1.60920E+03 -6.38241E+03  7.82767E+03 -1.67159E+04  4.69853E+03 -1.82344E+04 -8.10457E+03
 -1.02820E+04 -2.14224E+04  5.22768E+03 -2.54642E+04  1.61495E+04 -1.75051E+04  2.04793E+04 -1.36027E+03
  1.28345E+04  1.41761E+04 -5.08891E+02  1.98559E+04 -1.48503E+04  1.11999E+04 -2.13947E+04 -4.18952E+03
 -1.57794E+04 -1.90962E+04 -1.42326E+03 -2.52039E+04  1.11310E+04 -1.98612E+04  2.11443E+04 -1.02054E+04
  1.90580E+04  6.64027E+02  1.45714E+04  4.64054E+03  7.49645E+03  1.09218E+03  1.01064E+04 -1.63922E+03
  1.92224E+04  2.85217E+03  2.13597E+04  1.68787E+04  1.46618E+04  3.31089E+04 -2.56957E+03  3.80548E+04
 -2.22547E+04  3.16816E+04 -3.60401E+04  1.62299E+04 -3.79246E+04 -2.74494E+03 -3.10683E+04 -2.18835E+04
 -1.29782E+04 -3.15289E+04  1.07917E+04 -2.70550E+04  2.41097E+04 -1.36102E+04  2.16758E+04  6.36908E+03
  8.40133E+03  1.61639E+04 -9.90714E+03  1.38534E+04 -1.74580E+04  2.98173E+03 -1.39337E+04 -1.12456E+04
 -7.78390E+01 -1.67935E+04  8.94890E+03 -1.28657E+04  1.13759E+04 -1.91601E+03  3.17359E+03  7.39541E+03
 -7.52616E+03  3.05733E+03 -7.15222E+03 -6.19230E+03 -1.71115E+03 -1.50615E+04  1.01292E+04 -1.56795E+04
  1.88788E+04 -9.21788E+03  2.14599E+04  3.18235E+03  1.83036E+04  1.49243E+04  8.20570E+03  2.35706E+04
 -4.26997E+03  2.59402E+04 -1.66123E+04  1.56275E+04 -1.82636E+04  3.63354E+03 -1.34215E+04 -4.19935E+03
 -5.26261E+03 -6.07694E+03 -8.67626E+02  6.19166E+02 -2.87125E+03  2.83894E+03 -5.53549E+03  4.53694E+03
 -1.24668E+04 -1.13908E+03 -1.26120E+04 -1.02459E+04 -5.71671E+03 -1.61564E+04  6.14367E+03 -1.24687E+04
  1.09035E+04 -6.08941E+03  7.50914E+03  3.27124E+03 -1.66932E+02  4.71188E+03 -6.37662E+03 -6.60815E+02
 -6.55134E+03 -8.27641E+03 -9.95649E+02 -1.14626E+04  6.53778E+03 -1.29027E+04  1.61048E+04 -6.53784E+03
  2.01411E+04  2.22117E+03  1.37613E+04  1.10225E+04  2.71942E+03  1.54809E+04 -7.47659E+03  1.30983E+04
 -1.07083E+04  4.31275E+03 -5.27937E+03 -2.36424E+03  7.51042E+02 -3.37327E+03  7.32724E+03 -1.68627E+03
  6.83887E+03  4.64380E+03  1.04506E+03  9.76432E+03 -6.87628E+03  9.88316E+03 -1.17780E+04  2.01029E+03
 -8.99188E+03 -5.86318E+03  2.10579E+02 -1.06109E+04  7.10770E+03 -5.87677E+03  7.69727E+03  2.09550E+03
  1.38096E+03  7.66058E+03 -5.94804E+03  9.10351E+03 -9.74618E+03  4.19599E+03 -9.84178E+03 -3.63432E+03
 -6.26886E+03 -1.19098E+04  3.29571E+03 -1.31716E+04  1.20563E+04 -7.91721E+03  1.22897E+04  2.74309E+03
  8.69344E+03  1.06686E+04 -5.39728E+02  1.21897E+04 -7.91173E+03  7.96084E+03 -1.01014E+04 -3.70731E+02
 -8.36686E+03 -7.98385E+03 -1.73743E+03 -9.22391E+03  4.98394E+03 -7.79360E+03  5.61065E+03 -3.49211E+03
  4.61016E+03  1.03891E+03 -8.46092E+02  1.84481E+03 -3.18655E+02 -2.07300E+03  2.44404E+03 -4.77364E+03
  8.12826E+03 -2.61945E+03  1.17997E+04  1.50953E+03  1.23075E+04  8.17495E+03  8.03997E+03  1.53292E+04
 -3.20248E+03  1.76021E+04 -1.50569E+04  1.33551E+04 -1.92255E+04  2.59617E+03 -1.51624E+04 -6.62555E+03
 -7.93888E+03 -1.28621E+04 -5.97230E+02 -1.09984E+04  4.01806E+03 -5.34250E+03  3.79651E+03 -4.69821E+03
  2.31479E+03 -2.43200E+03  3.29497E+03 -3.34069E+03  4.54460E+03 -3.10141E+03  6.48147E+03  2.07463E+02
  8.36842E+03  1.97199E+03  4.16892E+03  6.94885E+03 -2.13886E+03  8.22227E+03 -8.44645E+03  5.18072E+03
 -1.09687E+04 -1.13629E+03 -6.19097E+03 -7.52534E+03 -6.66159E+02 -1.18749E+04  6.07585E+03 -1.05641E+04
  1.18468E+04 -6.21766E+03  1.45811E+04  1.70109E+03  1.00594E+04  9.69496E+03  1.83758E+03  1.21815E+04
 -4.95387E+03  1.07972E+04 -7.83224E+03  4.14115E+03 -4.91714E+03 -2.04353E+03 -1.67148E+03 -1.36481E+03
 -9.79021E+02 -1.10303E+02 -1.57409E+03  2.99724E+03 -4.39575E+03  2.09240E+03 -6.85240E+03 -6.13659E+02
 -4.67995E+03 -7.73938E+03  4.15843E+02 -1.11484E+04  6.36216E+03 -9.28581E+03  9.96937E+03 -3.46126E+03
  1.01391E+04  5.28080E+03  4.51684E+03  8.81530E+03 -2.11809E+03  9.98451E+03 -7.19680E+03  6.76255E+03
 -9.25474E+03  2.09461E+02 -7.62483E+03 -6.06581E+03 -8.88489E+02 -8.29896E+03  4.13774E+03 -5.98619E+03
  6.37697E+03 -2.12429E+03  4.50047E+03  1.89638E+03  1.99340E+03  3.05691E+03  2.41544E+03  1.25278E+03
  2.50931E+03  1.35583E+03  2.86117E+03  1.16753E+03  3.36618E+03  3.81191E+03  2.80980E+03  5.21953E+03
 -1.88888E+03  7.53125E+03 -6.84438E+03  7.93077E+03 -1.06554E+04  1.78737E+03 -1.06985E+04 -4.06495E+03
 -5.16324E+03 -1.02721E+04  1.30141E+03 -1.16733E+04  5.67186E+03 -6.52488E+03  7.87292E+03 -2.13146E+03
  6.23571E+03  4.10733E+03  1.53346E+03  5.18537E+03 -3.11849E+03  3.75291E+03 -4.40837E+03 -8.80358E+02
 -2.29732E+03 -3.73447E+03  2.35633E+03 -4.10695E+03  3.64547E+03 -2.77137E+03  4.52281E+03  1.05769E+03
  2.19021E+03  2.16813E+03  1.54769E+03  1.11644E+03 -4.09242E+02  1.27413E+03  1.84206E+03 -6.66090E-01
  1.12121E+03 -5.49321E+02  4.10606E+03  1.49768E+03  2.03179E+03  5.95970E+03 -1.12374E+03  7.72379E+03
 -4.35123E+03  4.54931E+03 -5.60916E+03  1.87849E+03 -5.25130E+03 -2.47079E+03 -2.04014E+03 -3.90189E+03
  5.50584E+02 -4.32531E+03  2.61769E+03 -1.81923E+03  1.71771E+03  2.00766E+03 -1.05864E+03  3.18639E+03
 -4.61176E+03  1.93603E+03 -4.27611E+03 -2.68201E+03 -2.54273E+03 -5.04432E+03  2.13982E+02 -5.06227E+03
  3.34500E+03 -3.29488E+03  3.94899E+03 -1.99518E+02  3.30772E+03  1.04679E+03  1.44525E+03  2.09892E+03
 -1.81696E+03  1.03403E+03 -1.95465E+03 -1.72657E+03  1.58438E+03 -3.69019E+03  4.92500E+03 -3.47192E+03
  5.56707E+03  3.87266E+02  6.54920E+03  4.54639E+03  2.03287E+03  5.83560E+03 -1.98150E+03  5.93452E+03
 -5.17961E+03  2.11475E+03 -5.18723E+03 -4.65780E+02 -2.99461E+03 -3.89796E+03  8.11934E+02 -3.42905E+03
  3.87633E+03 -1.30644E+03  2.67106E+03  2.58213E+03  1.14035E+03  3.74268E+03  5.24144E+01  3.14712E+03
 -1.07718E+03  1.79341E+03 -9.80642E+02  4.61818E+02 -3.39024E+02  1.11441E+02 -8.40334E+02  7.96910E+02
 -1.80191E+03  2.61545E+03 -4.01286E+03  2.43280E+03 -5.82311E+03  1.15979E+03 -6.60664E+03 -3.50321E+03
 -4.01559E+03 -8.09894E+03  2.17608E+03 -9.30236E+03  5.28140E+03 -7.78204E+03  8.15379E+03 -2.52092E+03
  7.94689E+03  1.31624E+03  4.93647E+03  5.67012E+03  1.15733E+03  6.40422E+03 -2.49845E+03  5.20812E+03
 -3.36455E+03  1.89255E+03 -2.29608E+03 -4.46691E+02 -7.26272E+02  3.52803E+02 -7.76732E+02 -5.91457E+02
 -1.72572E+03 -5.45869E+02 -1.43314E+03 -8.84788E+01 -6.52840E+02 -6.62511E+02  1.97042E+02 -2.49824E+03
  2.88224E+03 -2.39201E+03  3.01140E+03  6.08836E+02  4.44459E+03  3.40305E+03  1.07213E+03  6.31045E+03
 -3.02971E+03  6.69650E+03 -6.07865E+03  3.96105E+03 -6.92534E+03 -2.65347E+02 -5.11637E+03 -4.70859E+03
 -2.02832E+03 -5.80308E+03  1.80249E+03 -5.12161E+03  4.01356E+03 -2.48775E+03  3.45647E+03  4.95913E+02
  2.14949E+03  1.39337E+03 -1.00816E+02  1.87607E+03 -1.39726E+03  4.13916E+01 -4.16516E+02 -1.39230E+03
  1.87794E+03 -6.96187E+02  2.52372E+03  1.02090E+03  7.08600E+02  2.43772E+03  4.96270E+02  2.61695E+03
 -2.72732E+03  2.49544E+03 -4.42207E+03  7.63309E+02 -3.07024E+03 -2.49217E+03  1.29432E+01 -4.57567E+03
  2.24545E+03 -4.25061E+03  3.88224E+03 -1.63360E+03  4.08012E+03  7.46184E+02  2.99404E+03  3.53073E+03
  3.71464E+02  4.00191E+03 -1.95030E+03  3.14759E+03 -1.78439E+03  1.95499E+03 -1.72652E+03  1.42146E+02
 -1.17176E+03  6.03961E+01 -1.39273E+03  7.27812E+02 -2.47508E+03  5.74265E+02 -3.06370E+03 -2.27184E+02
 -3.14765E+03 -9.45369E+02 -1.19547E+03 -3.85183E+03  8.78155E+02 -4.60264E+03  3.17501E+03 -1.38024E+03
  3.72324E+03  2.18645E+02  1.33448E+03  2.31615E+03 -3.42942E+02  4.17585E+03 -2.38345E+03  2.07430E+03
