 $NMID ID='MM_0lb_SNR400_12hz_g50_22.RAW', FMTDAT='(8E13.5)'
 TRAMP=1., VOLUME=1. $END
  3.09900E+05  2.31339E+02  3.37061E+05  2.51042E+05  8.57544E+04  3.38706E+05 -1.32580E+05  2.51791E+05
 -1.90735E+05  8.34626E+04 -1.12589E+05 -3.21159E+04  9.03636E+02 -5.01919E+04  5.36119E+04 -4.33708E+02
  3.57751E+04  5.22264E+04 -1.69830E+04  7.58314E+04 -6.04683E+04  6.38422E+04 -8.45356E+04  3.30490E+04
 -8.13545E+04 -1.18385E+04 -5.74548E+04 -5.28109E+04 -1.46511E+04 -7.04692E+04  2.74400E+04 -4.60511E+04
  4.02950E+04  3.76997E+03  1.59946E+04  4.75604E+04 -3.45267E+04  4.80809E+04 -6.69176E+04  1.97309E+01
 -5.37373E+04 -5.66845E+04 -6.99086E+03 -7.79961E+04  3.45363E+04 -5.60190E+04  4.88399E+04 -1.69056E+04
  4.37801E+04  1.16992E+04  3.25083E+04  2.59737E+04  1.53551E+04  3.05796E+04 -5.04967E+03  2.83459E+04
 -2.22635E+04  1.20261E+04 -1.83033E+04 -5.80175E+03  5.99552E+03 -7.54909E+03  2.27876E+04  1.27611E+04
  8.21042E+03  3.65598E+04 -3.23493E+04  3.65529E+04 -6.45798E+04  2.22492E+03 -5.77966E+04 -4.36757E+04
 -1.19646E+04 -6.42202E+04  4.08399E+04 -4.54627E+04  5.92766E+04 -2.05956E+03  3.56449E+04  3.36207E+04
 -5.46257E+03  3.69970E+04 -3.04406E+04  1.66663E+04 -3.10920E+04 -3.96730E+03 -1.80384E+04 -1.16831E+04
 -8.24007E+03 -1.35087E+04 -6.34044E+02 -1.88991E+04  7.63992E+03 -2.41964E+04  1.64426E+04 -1.31886E+04
  1.12120E+04  5.44241E+03 -9.93793E+03  1.33151E+04 -2.20624E+04 -5.06966E+03 -8.61889E+03 -3.48692E+04
  2.40809E+04 -4.53546E+04  5.00211E+04 -1.98075E+04  4.65144E+04  1.97244E+04  1.67049E+04  4.61040E+04
 -1.58739E+04  3.41712E+04 -2.64162E+04  2.04132E+03 -1.05139E+04 -2.88317E+04  2.12546E+04 -3.55327E+04
  4.24100E+04 -9.73224E+03  3.73971E+04  2.44406E+04  1.93223E+04  4.84743E+04 -7.88695E+03  5.23488E+04
 -3.34051E+04  3.61662E+04 -4.44852E+04  1.00390E+04 -4.45163E+04 -1.74981E+04 -2.44952E+04 -3.98762E+04
  7.39344E+03 -3.86854E+04  3.21527E+04 -1.53890E+04  3.00178E+04  1.16887E+04  4.31166E+03  2.00466E+04
 -1.41442E+04  9.18307E+03 -1.02851E+04 -7.71030E+03  5.55659E+03 -1.02624E+04  1.87943E+04  6.12346E+03
  1.46864E+04  2.24115E+04 -5.79603E+03  2.56717E+04 -2.21320E+04  1.29924E+04 -2.92305E+04 -4.03761E+03
 -2.25938E+04 -1.78663E+04 -9.93129E+03 -2.32682E+04  3.49096E+03 -2.17765E+04  1.72708E+04 -2.08960E+04
  2.78915E+04 -1.31960E+04  3.46818E+04  3.48567E+03  2.49601E+04  2.15181E+04  4.14828E+03  3.84949E+04
 -1.83121E+04  3.16565E+04 -2.87308E+04  1.09239E+04 -2.20087E+04 -1.05193E+04 -4.63882E+03 -1.39276E+04
  1.25886E+03 -2.32673E+03 -6.26062E+03  7.21307E+03 -1.75895E+04  5.12742E+03 -1.78360E+04 -7.88524E+03
 -1.04226E+04 -2.02474E+04  5.84185E+03 -2.51443E+04  1.66411E+04 -1.79068E+04  1.95309E+04 -1.65895E+03
  1.20864E+04  1.39553E+04 -1.69110E+03  2.06219E+04 -1.50628E+04  1.20520E+04 -2.11768E+04 -5.03330E+03
 -1.51868E+04 -1.82944E+04 -1.63451E+03 -2.52947E+04  1.20559E+04 -2.08410E+04  2.07349E+04 -1.09300E+04
  1.92459E+04  3.74052E+02  1.35973E+04  4.89930E+03  7.34385E+03  1.53987E+03  1.06085E+04 -1.05027E+03
  1.88804E+04  2.83214E+03  2.14779E+04  1.58009E+04  1.45955E+04  3.26680E+04 -3.18077E+03  3.80370E+04
 -2.18546E+04  3.10604E+04 -3.58761E+04  1.57992E+04 -3.82776E+04 -3.74288E+03 -3.06032E+04 -2.26504E+04
 -1.28920E+04 -3.16665E+04  1.13286E+04 -2.73257E+04  2.38545E+04 -1.38137E+04  2.14168E+04  5.65664E+03
  8.31901E+03  1.62811E+04 -1.00875E+04  1.37369E+04 -1.78387E+04  2.64578E+03 -1.33866E+04 -1.05052E+04
 -8.84549E+02 -1.67864E+04  9.04249E+03 -1.29782E+04  1.14281E+04 -1.51641E+03  2.53845E+03  7.63876E+03
 -8.15455E+03  2.63071E+03 -7.58902E+03 -5.99104E+03 -9.56109E+02 -1.53560E+04  1.00127E+04 -1.70137E+04
  1.94228E+04 -8.79806E+03  2.07745E+04  3.14329E+03  1.80835E+04  1.56620E+04  8.66499E+03  2.34579E+04
 -4.16590E+03  2.54387E+04 -1.68915E+04  1.63855E+04 -1.80497E+04  3.34850E+03 -1.33666E+04 -4.78146E+03
 -5.91996E+03 -5.95232E+03 -1.29343E+03  1.34292E+03 -2.74874E+03  3.03954E+03 -5.60802E+03  4.75536E+03
 -1.24354E+04 -1.25931E+03 -1.35332E+04 -9.38906E+03 -5.38789E+03 -1.66449E+04  4.88111E+03 -1.27791E+04
  1.05492E+04 -5.20046E+03  7.64691E+03  3.59995E+03 -2.59985E+02  5.03549E+03 -6.13080E+03 -3.61510E+02
 -6.03962E+03 -8.43509E+03 -7.02911E+02 -1.25432E+04  7.16363E+03 -1.33879E+04  1.67200E+04 -6.40495E+03
  1.93156E+04  1.30446E+03  1.40295E+04  1.13398E+04  2.25271E+03  1.55821E+04 -8.52159E+03  1.29696E+04
 -1.00833E+04  4.47156E+03 -5.70185E+03 -2.69873E+03  1.05103E+03 -4.17355E+03  6.38440E+03 -2.75423E+02
  6.13458E+03  5.82774E+03  1.44511E+03  1.03022E+04 -7.98760E+03  9.84813E+03 -1.25284E+04  2.75767E+03
 -9.18288E+03 -5.96917E+03  1.94780E+02 -1.06373E+04  7.42545E+03 -6.00046E+03  7.22642E+03  2.03201E+03
  1.64721E+03  7.72265E+03 -6.83726E+03  8.69966E+03 -1.04264E+04  5.22829E+03 -9.95248E+03 -3.96634E+03
 -5.99434E+03 -1.17488E+04  2.78857E+03 -1.36902E+04  1.20104E+04 -9.17597E+03  1.30128E+04  1.51465E+03
  7.57314E+03  9.57716E+03 -1.08175E+03  1.20618E+04 -9.12228E+03  6.83314E+03 -9.77366E+03 -1.07202E+03
 -8.87225E+03 -8.01551E+03 -1.50310E+03 -9.14760E+03  5.10898E+03 -7.51147E+03  6.47870E+03 -2.65949E+03
  4.31816E+03  1.26313E+03 -8.44173E+02  1.18371E+03 -8.34855E+02 -2.18015E+03  1.38893E+03 -6.09553E+03
  8.66547E+03 -3.62414E+03  1.13204E+04  1.60300E+03  1.12514E+04  8.11014E+03  7.56017E+03  1.51954E+04
 -3.17298E+03  1.74917E+04 -1.48501E+04  1.35359E+04 -1.93033E+04  3.07897E+03 -1.55726E+04 -6.40703E+03
 -7.08978E+03 -1.29653E+04 -5.85826E+02 -1.15184E+04  3.77260E+03 -6.34883E+03  3.57431E+03 -4.17474E+03
  2.96540E+03 -2.38265E+03  2.97947E+03 -2.60420E+03  4.43148E+03 -2.37886E+03  5.86959E+03 -4.26024E+02
  7.83277E+03  2.28136E+03  4.21726E+03  7.51628E+03 -1.25194E+03  7.80205E+03 -9.08507E+03  6.24420E+03
 -1.10591E+04 -8.98346E+02 -6.45295E+03 -7.64670E+03 -1.08865E+03 -1.11505E+04  6.47468E+03 -1.19410E+04
  1.17012E+04 -6.15592E+03  1.44470E+04  1.34598E+03  8.99531E+03  9.90702E+03  1.44106E+03  1.31761E+04
 -5.60714E+03  1.07101E+04 -7.35456E+03  3.52055E+03 -4.80399E+03 -1.53648E+03 -1.75329E+03 -1.63288E+03
 -1.43054E+03 -2.46613E+02 -1.65299E+03  2.64850E+03 -4.38999E+03  2.04819E+03 -7.67388E+03 -8.35874E+02
 -5.42795E+03 -7.61292E+03  2.93594E+02 -1.09444E+04  5.89748E+03 -9.47127E+03  9.85736E+03 -3.23908E+03
  9.86027E+03  5.01508E+03  4.94652E+03  8.53602E+03 -1.59541E+03  1.04501E+04 -7.11823E+03  6.78323E+03
 -9.75191E+03  6.55509E+02 -7.95897E+03 -6.07500E+03 -7.90674E+02 -8.74709E+03  4.55425E+03 -6.03028E+03
  7.25575E+03 -2.41668E+03  4.52806E+03  1.82320E+03  1.72566E+03  3.21034E+03  5.06374E+02  1.42927E+03
  2.75882E+03  7.62490E+02  2.99527E+03  9.42128E+02  2.54836E+03  3.60586E+03  2.83828E+03  4.75979E+03
 -1.72546E+03  7.65376E+03 -6.98232E+03  8.37170E+03 -9.16194E+03  2.24841E+03 -1.07468E+04 -3.98936E+03
 -5.23280E+03 -9.78966E+03  2.38772E+03 -1.15191E+04  5.96578E+03 -6.61687E+03  7.83631E+03 -2.09919E+03
  6.85803E+03  3.79227E+03  1.62596E+03  5.82117E+03 -2.71525E+03  3.67376E+03 -4.34386E+03 -2.45593E+02
 -2.43159E+03 -4.35695E+03  2.76535E+03 -4.30436E+03  4.34417E+03 -2.46675E+03  4.67762E+03  1.32916E+03
  2.51918E+03  1.60723E+03  1.61329E+03  1.49798E+03 -9.55705E+02  1.46848E+03  1.59449E+03 -3.12233E+02
  1.01381E+03 -6.35897E+02  3.85520E+03  1.89471E+03  2.06856E+03  6.49143E+03 -1.07839E+03  7.26377E+03
 -4.69712E+03  4.20276E+03 -6.21335E+03  1.07630E+03 -5.37532E+03 -2.01449E+03 -2.06486E+03 -3.80685E+03
  1.16703E+03 -3.64978E+03  2.57285E+03 -1.83669E+03  1.95983E+03  1.55435E+03 -9.86596E+02  3.44232E+03
 -3.68657E+03  2.24821E+03 -4.37435E+03 -1.94719E+03 -2.41090E+03 -5.48519E+03  1.10341E+03 -5.18725E+03
  2.80079E+03 -3.26520E+03  3.62517E+03 -2.16004E+02  3.61363E+03  1.62465E+03  1.06915E+03  3.24350E+03
 -1.83629E+03 -3.83167E+01 -3.09060E+03 -1.87959E+03  1.34470E+03 -4.28993E+03  4.93325E+03 -3.22482E+03
  5.85000E+03  2.80270E+02  6.02115E+03  4.14974E+03  1.92326E+03  5.57156E+03 -1.82132E+03  6.04707E+03
 -5.14434E+03  2.41318E+03 -4.26113E+03 -6.58590E+02 -3.44078E+03 -4.09111E+03  5.45462E+02 -3.31646E+03
  3.28194E+03 -1.91412E+03  2.89005E+03  1.35121E+03  8.13211E+02  3.99906E+03 -6.74677E+02  3.49606E+03
 -1.61209E+03  2.66706E+03 -1.51080E+03  2.73355E+02 -3.37899E+02  7.22933E+02 -5.45882E+02  7.05818E+02
 -1.63460E+03  2.57956E+03 -4.79209E+03  1.71553E+03 -5.93108E+03  6.41540E+02 -6.50455E+03 -4.17111E+03
 -3.25356E+03 -7.77453E+03  1.40936E+03 -9.58276E+03  5.68071E+03 -7.08080E+03  8.94029E+03 -2.65365E+03
  7.70651E+03  1.55669E+03  4.73660E+03  5.29908E+03  4.52387E+02  6.26356E+03 -2.21810E+03  4.55259E+03
 -3.69880E+03  1.39690E+03 -1.49982E+03 -3.71612E+02 -8.53692E+02 -3.09989E+02  5.21303E+01  1.43415E+02
 -1.57588E+03 -1.23125E+02 -1.32943E+03  7.01729E+01  8.35643E+01 -1.23466E+03 -4.87459E+02 -2.16432E+03
  3.09159E+03 -1.77794E+03  3.93170E+03  4.45593E+02  4.40347E+03  3.55873E+03  6.65725E+02  6.71705E+03
 -3.32456E+03  6.60911E+03 -6.17603E+03  4.20842E+03 -6.78192E+03 -5.99616E+02 -5.29272E+03 -4.43970E+03
 -2.49030E+03 -6.12824E+03  9.46773E+02 -5.48758E+03  3.35374E+03 -3.47694E+03  3.99609E+03 -3.68094E+02
  2.18807E+03  1.48377E+03 -3.33029E+02  2.33681E+03 -8.36607E+02 -4.08060E+02 -1.10397E+02 -1.22369E+03
  1.73138E+03 -3.26762E+02  2.06585E+03  8.21824E+02  1.47294E+03  1.73142E+03  7.75337E+02  2.95153E+03
 -2.40235E+03  2.69887E+03 -3.84576E+03  3.63924E+02 -3.22657E+03 -2.55439E+03 -1.15203E+03 -5.46307E+03
  2.55421E+03 -3.70160E+03  4.15347E+03 -9.74338E+02  4.20888E+03  1.00356E+03  2.26770E+03  3.74837E+03
  7.06948E+02  4.31620E+03 -1.42357E+03  3.01973E+03 -2.27133E+03  1.82158E+03 -1.35039E+03  2.77164E+02
 -1.27614E+03 -4.10987E+02 -4.82374E+02  5.68817E+02 -1.79244E+03  5.89898E+02 -3.01772E+03 -3.57418E+02
 -3.02858E+03 -1.57649E+03 -1.05239E+03 -3.45701E+03  1.27742E+03 -3.93116E+03  2.93690E+03 -1.76006E+03
  3.89074E+03  5.63462E+02  2.22445E+03  2.22359E+03 -4.90525E+02  3.15189E+03 -3.10357E+03  2.26881E+03
