 $NMID ID='MM_0lb_SNR400_19hz_g40_51.RAW', FMTDAT='(8E13.5)'
 TRAMP=1., VOLUME=1. $END
  3.09762E+05  2.40785E+02  3.37305E+05  2.50364E+05  8.49264E+04  3.36744E+05 -1.32266E+05  2.49641E+05
 -1.88639E+05  8.24778E+04 -1.09861E+05 -3.30811E+04  1.46290E+03 -5.05101E+04  5.38498E+04  7.06610E+02
  3.48232E+04  5.24792E+04 -1.64650E+04  7.45021E+04 -5.99195E+04  6.27950E+04 -8.26750E+04  3.09109E+04
 -7.86620E+04 -1.06424E+04 -5.61409E+04 -4.97194E+04 -1.46536E+04 -6.74130E+04  2.68751E+04 -4.42660E+04
  3.91839E+04  3.61311E+03  1.51012E+04  4.66360E+04 -3.43922E+04  4.53034E+04 -6.50079E+04 -8.35972E+02
 -5.14527E+04 -5.58717E+04 -5.81265E+03 -7.45666E+04  3.28802E+04 -5.29239E+04  4.61602E+04 -1.56868E+04
  4.08348E+04  1.11257E+04  3.07439E+04  2.42091E+04  1.58049E+04  2.79016E+04 -4.10115E+03  2.64700E+04
 -2.13025E+04  1.27162E+04 -1.94657E+04 -4.43466E+03  4.14153E+03 -8.05476E+03  2.14639E+04  1.06793E+04
  7.83519E+03  3.28934E+04 -2.98172E+04  3.32830E+04 -6.03047E+04  1.87276E+03 -5.46494E+04 -4.09152E+04
 -1.26067E+04 -5.99709E+04  3.75625E+04 -4.30446E+04  5.45805E+04 -2.04083E+03  3.14663E+04  2.95963E+04
 -6.22385E+03  3.24596E+04 -2.77620E+04  1.30259E+04 -2.67626E+04 -5.63087E+03 -1.38872E+04 -9.78387E+03
 -7.04110E+03 -1.05999E+04 -1.24178E+03 -1.63441E+04  6.81963E+03 -2.24262E+04  1.46572E+04 -1.41688E+04
  1.19009E+04  3.71595E+03 -6.05316E+03  1.29252E+04 -1.83434E+04 -2.02075E+03 -7.64089E+03 -2.92063E+04
  2.00315E+04 -4.01202E+04  4.38559E+04 -1.83306E+04  4.09846E+04  1.79604E+04  1.41516E+04  4.11532E+04
 -1.54621E+04  3.04734E+04 -2.26888E+04  4.88194E+02 -7.68935E+03 -2.57716E+04  2.03095E+04 -3.05369E+04
  3.70747E+04 -6.73356E+03  3.02706E+04  2.25998E+04  1.44482E+04  4.18213E+04 -7.61639E+03  4.39035E+04
 -2.75399E+04  2.88349E+04 -3.63359E+04  8.44623E+03 -3.74880E+04 -1.45245E+04 -2.09769E+04 -3.36365E+04
  6.40075E+03 -3.28270E+04  2.79480E+04 -1.22592E+04  2.58162E+04  1.10686E+04  2.87259E+03  1.71562E+04
 -1.25034E+04  6.92128E+03 -9.50413E+03 -7.42963E+03  5.67909E+03 -1.00488E+04  1.70827E+04  6.25808E+03
  1.22852E+04  2.20607E+04 -6.64169E+03  2.27673E+04 -2.09962E+04  8.36273E+03 -2.42953E+04 -6.32432E+03
 -1.56223E+04 -1.61966E+04 -5.16220E+03 -1.59224E+04  3.47180E+03 -1.27934E+04  1.12216E+04 -1.33021E+04
  2.03613E+04 -1.15283E+04  2.68459E+04  1.00488E+03  2.07787E+04  1.54828E+04  3.77085E+03  3.14672E+04
 -1.56932E+04  2.69001E+04 -2.48700E+04  9.40164E+03 -1.98952E+04 -1.05376E+04 -3.71426E+03 -1.39931E+04
  3.20559E+03 -4.23274E+03 -1.84941E+03  4.67878E+03 -1.17884E+04  5.34923E+03 -1.29173E+04 -4.65974E+03
 -8.53872E+03 -1.47289E+04  4.10808E+03 -1.82937E+04  1.19937E+04 -1.33108E+04  1.33302E+04 -1.58265E+03
  8.57368E+03  1.05399E+04 -1.10119E+03  1.48506E+04 -1.02756E+04  7.88180E+03 -1.45353E+04 -3.08094E+03
 -1.10239E+04 -1.33731E+04 -1.61256E+03 -1.78788E+04  9.10465E+03 -1.47508E+04  1.56510E+04 -6.93318E+03
  1.36072E+04  8.67041E+02  1.00565E+04  4.30604E+03  5.14561E+03  1.02686E+03  7.39712E+03 -1.46074E+03
  1.29867E+04  2.40597E+03  1.33260E+04  1.21899E+04  8.17943E+03  2.36638E+04 -2.79049E+03  2.49688E+04
 -1.52302E+04  1.86109E+04 -2.27103E+04  8.34400E+03 -2.27860E+04 -1.03325E+03 -2.00674E+04 -1.31018E+04
 -9.82874E+03 -1.85420E+04  6.40665E+03 -1.77283E+04  1.59638E+04 -1.01150E+04  1.47687E+04  3.10248E+03
  6.22168E+03  1.05272E+04 -6.58392E+03  9.97577E+03 -1.28882E+04  2.90643E+03 -9.63382E+03 -7.52646E+03
 -9.03177E+00 -1.19670E+04  5.96090E+03 -8.80276E+03  7.18808E+03 -1.69536E+03  1.08049E+03  4.15878E+03
 -5.47874E+03  6.90412E+02 -3.32296E+03 -4.50890E+03  8.84592E+02 -9.14104E+03  7.48668E+03 -9.46100E+03
  1.14259E+04 -4.18527E+03  1.13799E+04  3.20270E+03  9.48893E+03  8.61545E+03  4.58487E+03  1.28682E+04
 -1.51906E+03  1.49042E+04 -8.95014E+03  9.25313E+03 -1.02143E+04  3.36067E+03 -8.11668E+03 -1.49966E+03
 -4.43509E+03 -2.51531E+03 -6.86748E+02  1.35251E+03 -2.18561E+03  1.58396E+03 -3.53899E+03  2.99348E+03
 -7.80149E+03 -2.41779E+02 -7.55058E+03 -6.40694E+03 -3.34164E+03 -1.08821E+04  2.79925E+03 -7.61498E+03
  6.93947E+03 -3.55688E+03  5.04622E+03  2.06535E+03  9.54853E+02  3.17704E+03 -3.07964E+03  2.21209E+00
 -2.72592E+03 -4.54515E+03 -5.65537E+02 -6.51024E+03  3.39329E+03 -7.06292E+03  9.14813E+03 -3.84997E+03
  1.07465E+04  5.29330E+02  7.96282E+03  5.66760E+03  1.30406E+03  7.70407E+03 -5.08212E+03  7.67320E+03
 -6.06488E+03  3.02236E+03 -3.13498E+03 -6.93832E+02  1.20859E+03 -1.56597E+03  4.10544E+03 -1.05087E+03
  3.69043E+03  2.75356E+03  9.21721E+02  6.43362E+03 -4.32392E+03  6.19038E+03 -7.43142E+03  1.92639E+03
 -4.52549E+03 -3.46482E+03  1.60741E+02 -6.18295E+03  4.13005E+03 -3.22737E+03  3.14287E+03  8.91736E+02
  5.72122E+02  2.64116E+03 -4.17230E+03  4.26085E+03 -4.33748E+03  2.33067E+03 -3.64709E+03 -1.01065E+03
 -2.89295E+03 -5.07631E+03  7.74837E+02 -6.60311E+03  5.09401E+03 -4.27170E+03  5.66455E+03  5.49223E+02
  4.62482E+03  4.46113E+03  1.97075E+02  7.28328E+03 -4.64262E+03  4.06787E+03 -4.75515E+03 -3.32151E+02
 -5.11199E+03 -4.91121E+03 -1.42648E+03 -4.88565E+03  2.45408E+03 -4.54945E+03  2.40816E+03 -2.87543E+03
  2.53759E+03 -2.68507E+02 -2.42797E+02  1.42398E+03  5.04117E+02 -2.36204E+02  7.94802E+01 -1.46516E+03
  3.64980E+03 -4.15526E+02  4.68645E+03  1.14224E+03  4.56040E+03  3.00791E+03  5.11174E+03  6.48264E+03
 -1.25948E+03  7.70078E+03 -7.22002E+03  6.00560E+03 -8.09541E+03  1.24048E+03 -6.77718E+03 -2.22030E+03
 -3.69571E+03 -5.90662E+03 -9.68627E+02 -4.80636E+03  1.94024E+03 -1.76743E+03  1.68359E+03 -2.16423E+03
  7.05288E+02 -1.62910E+03  2.33409E+03 -2.66502E+03  3.11870E+03 -1.43191E+03  3.46860E+03  2.31070E+02
  3.80969E+03  1.70305E+03  1.03724E+03  3.25147E+03 -1.42231E+03  2.23323E+03 -3.86701E+03  2.43433E+03
 -4.28405E+03 -6.26103E+02 -1.40561E+03 -3.14930E+03  3.24056E+02 -4.04491E+03  3.04766E+03 -4.92919E+03
  4.41997E+03 -2.89202E+03  6.39824E+03  6.63385E+02  4.81468E+03  3.68103E+03  8.64930E+02  5.62476E+03
 -1.75657E+03  5.22619E+03 -2.87385E+03  1.63787E+03 -1.68775E+03 -8.10989E+02 -2.23159E+02 -5.99211E+02
 -3.87931E+02  8.57883E+02 -8.21548E+02  1.53222E+03 -2.36746E+03  6.68796E+02 -3.80175E+03 -1.38140E+02
 -8.45893E+02 -4.02906E+03  6.60290E+02 -4.00306E+03  2.81977E+03 -3.44314E+03  3.33483E+03 -8.34443E+02
  3.31475E+03  1.95234E+03  1.51152E+03  2.86767E+03 -9.85663E+02  3.57201E+03 -2.61918E+03  2.39229E+03
 -3.34577E+03  5.31368E+02 -2.80002E+03 -2.00454E+03  5.51530E+01 -2.62761E+03  1.44446E+03 -2.92464E+03
  2.25547E+03 -1.49977E+03  1.09516E+03  3.28302E+02  1.03881E+03  7.58130E+02  5.95848E+02  2.93002E+02
  1.62915E+03  8.41783E+02  1.12961E+03  1.05297E+03  8.45459E+02  1.71504E+03  1.43889E+03  1.90965E+03
 -1.33644E+03  2.22856E+03 -2.27627E+03  3.29085E+03 -2.07551E+03  9.58659E+02 -3.40576E+03 -7.46571E+02
 -1.31877E+03 -2.52445E+03  3.84262E+02 -4.36059E+03  2.18223E+03 -1.66952E+03  2.80779E+03 -4.01555E+02
  2.30169E+03  1.43572E+03  5.97821E+02  1.99687E+03 -2.58102E+02  1.43973E+03 -1.07507E+03 -1.54507E+02
 -5.93759E+02 -1.09725E+03  1.45639E+03 -1.12176E+03  1.10721E+03 -7.26374E+02  9.17852E+02  2.97685E+02
  3.15065E+02  1.32035E+02  7.16953E+02 -1.94364E+02 -5.86069E+02  1.05157E+03  1.08697E+03 -5.59052E+02
 -1.70178E+02 -2.04138E+02  1.41529E+03  5.28230E+02  1.46174E+02  2.01382E+03 -1.03826E+03  3.04562E+03
 -1.75345E+03  8.57107E+02 -1.54629E+03  9.77128E+01 -1.78689E+03  9.55677E+01 -1.57126E+02 -1.04674E+03
  4.36402E+02 -9.54688E+02  6.00657E+02 -5.73672E+02  4.11361E+02  1.10116E+03 -5.96100E+02  8.76926E+02
 -1.47570E+03  1.11949E+03 -1.00439E+03 -1.19146E+03 -2.33334E+02 -2.24981E+03 -1.50076E+02 -1.34652E+03
 -8.98932E+01 -8.21401E+02  4.65777E+02  4.97471E+02  1.98041E+03  4.53133E+01  5.11379E+02  1.18255E+03
 -2.10834E+02 -5.00399E+01 -1.23010E+03  7.53998E+01  6.56625E+02 -3.89527E+02  1.30280E+03 -3.86826E+02
  9.76231E+02 -1.07000E+02  2.68965E+03  2.83134E+02  1.00225E+03  1.31013E+03 -8.09694E+02  1.71688E+03
 -1.66936E+03  2.12214E+01 -1.42332E+03  1.88900E+02 -7.38363E+02 -1.16873E+03  4.17159E+02 -2.51192E+02
  1.34442E+03 -7.18093E+02  7.40846E+02  6.62690E+02 -1.15543E+02  1.05582E+03  1.48376E+02  5.74852E+02
 -3.70349E+02  6.80350E+02  1.94577E+02  2.57397E+02 -9.98142E+01  1.38591E+02 -1.08674E+03  1.29646E+02
 -2.17012E+02  5.93626E+02 -1.20870E+03  9.60403E+02 -1.69019E+03  2.49514E+02 -2.39656E+03 -1.39902E+03
 -6.85348E+02 -1.94622E+03  6.27769E+02 -2.62870E+03  4.90652E+02 -2.30192E+03  2.23860E+03 -9.16706E+02
  1.83486E+03 -5.03984E+02  9.46780E+02  1.13631E+03 -6.08835E+01  1.15155E+03 -9.94919E+01  1.38785E+03
 -9.43934E+02  3.91635E+02 -5.16442E+02  2.53379E+02 -2.05267E+02  7.84145E+02 -1.74287E+02  4.95709E+02
 -9.39279E+02  2.13829E+02 -1.94118E+02  3.11653E+02 -2.50982E+02 -1.43171E+02 -3.84958E+02 -8.00630E+02
  1.46267E+03 -1.91388E+02  7.38067E+02  9.64878E+01  7.34715E+02  1.23839E+03 -6.76928E+02  1.19417E+03
 -1.47077E+03  2.27812E+03 -1.69344E+03  1.44010E+03 -1.88451E+03 -6.32237E+02 -8.76540E+02 -8.95397E+02
 -1.06035E+03 -1.43220E+03 -8.27725E+01 -4.35615E+02  5.00299E+01 -6.59399E+02  6.65981E+02  1.72152E+02
  4.30888E+02  1.38811E+02 -6.27664E+01  1.64761E+02 -6.88117E+02  4.55459E+01 -2.34701E+02 -1.25502E+02
  9.68590E+02  5.28777E+02  2.50213E+01  4.17707E+02  6.10436E+01  1.42864E+02  6.97884E+02 -6.85879E+01
 -4.75032E+02 -8.01085E+01 -6.89534E+02  6.07016E+01 -8.22244E+02 -8.66063E+02  3.50633E+02 -1.14731E+03
  6.05264E+02 -9.31197E+02 -3.90998E+01  1.85414E+02  7.75355E+02 -5.48392E+02  4.13323E+02  6.03147E+02
  8.29408E+02  3.24566E+02 -2.09945E+00  9.88340E+02 -1.31556E+02  4.92079E+02 -6.92879E+02 -2.33180E+02
  2.48575E+02  2.07150E+02 -5.04130E+02  3.65202E+00 -2.98126E+02  1.96678E+02 -1.12806E+03  1.71127E+02
 -1.17268E+03  1.00854E+03 -6.78977E+01 -1.46727E+03  3.66635E+02 -1.73571E+03  9.22088E+02  1.68938E+02
  6.30489E+02 -4.13985E+02 -4.21083E+02  2.44894E+00  8.35736E+01  1.12939E+03 -3.98092E+02  4.82748E+02
