 $NMID ID='MM_0lb_SNR400_20hz_g45_37.RAW', FMTDAT='(8E13.5)'
 TRAMP=1., VOLUME=1. $END
  3.10172E+05  6.86914E+02  3.37041E+05  2.50098E+05  8.40726E+04  3.37270E+05 -1.32383E+05  2.50258E+05
 -1.89431E+05  8.19613E+04 -1.10478E+05 -3.29735E+04  1.09824E+03 -5.02777E+04  5.36824E+04  4.11121E+02
  3.52217E+04  5.29324E+04 -1.70382E+04  7.41940E+04 -6.00921E+04  6.26517E+04 -8.27673E+04  3.12981E+04
 -7.91073E+04 -1.09667E+04 -5.58839E+04 -4.95618E+04 -1.44885E+04 -6.79820E+04  2.65175E+04 -4.46039E+04
  3.82747E+04  4.41891E+03  1.50462E+04  4.67299E+04 -3.34700E+04  4.60166E+04 -6.48840E+04 -7.90370E+02
 -5.10646E+04 -5.55186E+04 -6.00797E+03 -7.46507E+04  3.29367E+04 -5.25146E+04  4.53246E+04 -1.65584E+04
  4.10186E+04  1.11110E+04  3.05364E+04  2.43793E+04  1.58039E+04  2.86848E+04 -4.72503E+03  2.66312E+04
 -2.15989E+04  1.28830E+04 -1.91968E+04 -4.28158E+03  3.63284E+03 -7.17560E+03  2.05588E+04  1.02301E+04
  6.98303E+03  3.28591E+04 -3.02533E+04  3.34140E+04 -6.05877E+04  2.59750E+03 -5.46003E+04 -4.07067E+04
 -1.27731E+04 -5.97681E+04  3.73656E+04 -4.24767E+04  5.44979E+04 -2.12669E+03  3.12271E+04  2.95194E+04
 -6.70263E+03  3.25847E+04 -2.78641E+04  1.28335E+04 -2.66230E+04 -5.91276E+03 -1.36298E+04 -9.73447E+03
 -6.99483E+03 -1.05634E+04 -1.42489E+03 -1.56292E+04  6.17041E+03 -2.25817E+04  1.46269E+04 -1.42378E+04
  1.23019E+04  4.02731E+03 -5.48583E+03  1.26728E+04 -1.85465E+04 -1.77465E+03 -7.97403E+03 -2.88435E+04
  1.98679E+04 -3.90810E+04  4.35270E+04 -1.83061E+04  4.14035E+04  1.78259E+04  1.38957E+04  4.06151E+04
 -1.54878E+04  3.01879E+04 -2.23052E+04  1.22765E+03 -7.70668E+03 -2.60060E+04  2.06153E+04 -2.98501E+04
  3.70710E+04 -6.64310E+03  3.03311E+04  2.23255E+04  1.43950E+04  4.14070E+04 -7.44315E+03  4.35381E+04
 -2.76990E+04  2.86604E+04 -3.55897E+04  7.86127E+03 -3.67868E+04 -1.40218E+04 -2.04915E+04 -3.32450E+04
  7.12090E+03 -3.25508E+04  2.82544E+04 -1.16637E+04  2.61249E+04  1.06207E+04  3.04957E+03  1.71794E+04
 -1.28574E+04  7.10662E+03 -9.25099E+03 -7.81645E+03  6.10080E+03 -9.68294E+03  1.73143E+04  6.45817E+03
  1.17408E+04  2.14859E+04 -6.93576E+03  2.31628E+04 -2.10345E+04  8.56035E+03 -2.45017E+04 -6.93859E+03
 -1.52481E+04 -1.61260E+04 -5.06688E+03 -1.51351E+04  3.64669E+03 -1.30001E+04  1.12794E+04 -1.35242E+04
  1.94648E+04 -1.11402E+04  2.65339E+04  5.75399E+02  2.06450E+04  1.52589E+04  4.11652E+03  3.07980E+04
 -1.58939E+04  2.67375E+04 -2.51546E+04  8.68821E+03 -1.98211E+04 -1.05166E+04 -3.85194E+03 -1.38837E+04
  3.17048E+03 -4.66999E+03 -1.60225E+03  4.73254E+03 -1.16440E+04  5.36247E+03 -1.22998E+04 -3.93199E+03
 -8.33528E+03 -1.46644E+04  4.45303E+03 -1.80028E+04  1.19776E+04 -1.31501E+04  1.29305E+04 -1.79106E+03
  7.73966E+03  1.00588E+04 -6.16321E+02  1.48534E+04 -9.46907E+03  7.66733E+03 -1.47502E+04 -3.17984E+03
 -1.04304E+04 -1.27907E+04 -1.36737E+03 -1.71965E+04  8.12058E+03 -1.41421E+04  1.54007E+04 -6.60507E+03
  1.35124E+04  8.05616E+02  9.32001E+03  3.48982E+03  4.51861E+03  4.25408E+02  7.07853E+03 -1.65856E+03
  1.26735E+04  2.43035E+03  1.32910E+04  1.17414E+04  8.11339E+03  2.30201E+04 -3.23711E+03  2.41495E+04
 -1.44401E+04  1.77084E+04 -2.20593E+04  8.47289E+03 -2.23105E+04 -1.59920E+03 -1.92854E+04 -1.28232E+04
 -9.18238E+03 -1.77765E+04  5.56248E+03 -1.70462E+04  1.50334E+04 -9.94114E+03  1.40790E+04  3.35611E+03
  6.05283E+03  1.01223E+04 -6.76666E+03  9.92013E+03 -1.22113E+04  2.24474E+03 -9.59123E+03 -7.11665E+03
 -4.07038E+02 -1.15688E+04  5.30523E+03 -8.64163E+03  7.29371E+03 -1.25945E+03  1.13719E+03  4.20287E+03
 -5.15066E+03  1.16547E+03 -3.35783E+03 -3.68980E+03  1.22885E+03 -8.68874E+03  7.22742E+03 -8.73605E+03
  1.11126E+04 -3.58074E+03  1.02274E+04  3.15640E+03  8.75846E+03  8.70924E+03  4.25559E+03  1.23331E+04
 -1.29931E+03  1.48185E+04 -8.17037E+03  8.84702E+03 -9.38710E+03  2.69616E+03 -7.38185E+03 -1.34418E+03
 -4.16977E+03 -2.96875E+03 -1.51904E+03  1.77194E+03 -1.80941E+03  2.25832E+03 -3.40455E+03  3.39443E+03
 -7.14179E+03 -6.12330E+02 -7.56346E+03 -6.70302E+03 -3.45751E+03 -1.07694E+04  3.22097E+03 -7.66446E+03
  6.14051E+03 -3.04408E+03  4.70065E+03  2.13717E+03  9.69966E+02  2.72805E+03 -3.18916E+03  2.20256E+02
 -2.44127E+03 -4.31774E+03 -1.06664E+03 -5.96123E+03  2.59272E+03 -6.53528E+03  8.48440E+03 -3.67158E+03
  1.01952E+04  1.56514E+02  7.63984E+03  5.22777E+03  1.35015E+03  7.47441E+03 -4.73190E+03  7.14264E+03
 -6.25247E+03  2.37034E+03 -3.49791E+03 -8.45238E+02  1.19684E+03 -1.61677E+03  4.60391E+03 -1.16441E+03
  3.30901E+03  3.16900E+03  1.07138E+03  5.23715E+03 -3.79429E+03  5.49276E+03 -7.02819E+03  1.70678E+03
 -4.43941E+03 -3.53940E+03  8.51298E+01 -5.64627E+03  3.47759E+03 -2.60441E+03  2.55493E+03  3.40636E+02
 -3.01089E+02  2.31888E+03 -3.57812E+03  4.11414E+03 -3.76511E+03  2.20575E+03 -3.59157E+03 -6.46056E+02
 -2.19734E+03 -5.08263E+03  9.35774E+02 -6.03612E+03  4.54190E+03 -3.63092E+03  5.60415E+03  6.65007E+02
  4.38538E+03  4.69318E+03  5.19172E+02  6.40499E+03 -4.17944E+03  3.50619E+03 -4.46129E+03 -3.75846E+02
 -4.97892E+03 -4.12548E+03 -1.63632E+03 -5.05560E+03  1.97039E+03 -4.43858E+03  2.63206E+03 -2.33147E+03
  2.95381E+03  6.80319E+00  3.67846E+02  5.09724E+02  8.38521E+02  5.35764E+02 -9.98479E+02 -1.84068E+03
  3.14297E+03 -4.13548E+02  3.83944E+03  4.49681E+02  4.27547E+03  2.31324E+03  4.90636E+03  5.76594E+03
 -6.83985E+02  7.28395E+03 -6.82012E+03  5.43049E+03 -8.99715E+03  1.20205E+03 -6.56938E+03 -2.02298E+03
 -3.88759E+03 -5.25251E+03 -9.39434E+02 -4.12546E+03  2.23630E+03 -1.48400E+03  1.65017E+03 -1.71779E+03
  1.65982E+03 -9.86839E+02  1.69932E+03 -2.55151E+03  3.63671E+03 -8.55978E+02  2.80615E+03  8.25968E+02
  3.84114E+03  1.04062E+03  7.09915E+02  2.84282E+03 -1.89724E+03  1.74726E+03 -3.61328E+03  1.95123E+03
 -3.86381E+03 -1.23797E+03 -6.60195E+02 -2.69953E+03  9.45249E+02 -3.74764E+03  2.48323E+03 -4.44394E+03
  4.34534E+03 -2.69834E+03  5.59045E+03  4.41145E+02  4.73922E+03  3.51414E+03  8.55484E+02  5.14606E+03
 -1.48366E+03  4.39065E+03 -2.43955E+03  1.54788E+03 -1.40044E+03 -1.15783E+03 -9.55391E+01  3.90353E-01
 -4.01303E+02  3.31691E+02 -5.74547E+02  1.50038E+03 -2.36913E+03  1.25264E+03 -4.09687E+03  2.33983E+01
 -8.18104E+02 -3.73740E+03  7.33886E+02 -3.40839E+03  2.17932E+03 -3.80834E+03  2.89379E+03 -7.53140E+02
  2.77555E+03  1.68247E+03  1.50562E+03  2.38111E+03 -8.60733E+02  2.86921E+03 -2.10384E+03  2.24981E+03
 -2.43107E+03  7.55856E+02 -2.80714E+03 -2.13554E+03  3.02026E+01 -2.40283E+03  9.52961E+02 -1.58624E+03
  2.19771E+03 -1.28548E+03  2.04332E+03 -6.25945E+01  4.01692E+02  1.28800E+03  9.13666E+02  7.68246E+02
  1.21047E+03  6.06873E+02  1.21598E+03  5.14020E+02  1.23763E+03  1.96508E+03  9.90813E+02  9.54322E+02
 -1.34692E+03  2.49035E+03 -2.09559E+03  3.27931E+03 -1.71502E+03  8.36041E+02 -3.45438E+03  3.17629E+01
 -8.34628E+02 -3.13026E+03  5.74705E+02 -3.36529E+03  1.41748E+03 -1.91867E+03  2.03471E+03 -4.42451E+02
  2.44733E+03  1.82471E+03  2.95727E+02  1.79441E+03 -7.48162E+02  1.35259E+03 -8.99873E+02 -1.77855E+02
 -5.20417E+02 -9.71605E+02  1.48752E+03 -3.39455E+02  1.33338E+03 -9.44078E+02  8.26481E+02 -2.18429E+01
  3.13133E+02 -2.16567E+02  1.33500E+03 -6.97190E+02 -1.11242E+02  3.10151E+02  1.31196E+03 -6.68257E+00
 -5.52657E+01 -3.11950E+01  1.77570E+03  4.79629E+02  2.68869E+02  2.55534E+03 -7.44181E+02  2.58371E+03
 -1.29719E+03  1.15376E+03 -1.61053E+03  3.86855E+02 -1.53340E+03 -8.37069E+02 -2.06245E+02 -9.04837E+02
  1.05351E+03 -6.32752E+02  7.24563E+02 -6.87806E+02  3.51753E+02  1.18241E+03 -6.76563E+02  8.76288E+02
 -8.35711E+02  4.40658E+02 -8.10249E+02 -1.54030E+03 -4.01451E+02 -2.22809E+03  4.92419E+02 -1.22987E+03
  6.29980E+02  1.89956E+02  1.17567E+02  1.93166E+02  8.19412E+02 -7.06770E+02  1.33215E+01  1.55468E+03
  5.32379E+01 -6.52185E+02 -6.76260E+02 -3.22733E+02  3.89370E+02 -1.13894E+03  1.38248E+03 -1.13232E+03
  8.77372E+02 -3.16582E+02  2.25487E+03 -3.66076E+00  1.69818E+03  1.22109E+03 -1.52864E+02  1.48419E+03
 -8.45802E+02  3.61290E+01 -1.01099E+03  2.73171E+02 -2.99219E+02 -4.19163E+02  3.13685E+02 -2.01958E+01
  1.29329E+03 -1.45808E+02  3.46309E+02  4.07162E+02 -2.07611E+01  9.86825E+02 -4.48316E+00  8.32053E+02
 -6.19773E+02  1.21672E+03 -2.69275E+02  5.77690E+02 -8.22438E+01  7.05350E+02 -4.59622E+02  7.16638E+02
 -8.96080E+02  8.07526E+02 -1.28699E+03  7.62899E+02 -1.13884E+03  1.51426E+02 -1.93453E+03 -8.09067E+02
 -7.85342E+02 -1.94611E+03  1.44969E+02 -2.04039E+03  4.39241E+02 -1.65122E+03  1.97742E+03 -1.19612E+03
  2.09523E+03  5.33378E+01  1.36708E+03  1.17461E+03 -3.48686E+02  2.97945E+02 -2.15688E+02  7.17705E+02
 -6.89387E+02  4.23930E+02 -4.20846E+02 -3.63006E+02 -5.05177E+02  5.42539E+02 -6.18425E+02  4.45564E+01
 -9.73070E+02 -1.73660E+01 -3.75149E+02 -4.75331E+02  2.99380E+02 -2.46230E+02 -8.53013E+01 -7.17253E+02
  5.85220E+02 -3.35696E+02  4.45346E+02 -7.15009E+00  7.21811E+02  8.41886E+02 -5.21524E+01  8.28907E+02
 -7.82272E+02  1.78646E+03 -1.09642E+03  1.05992E+03 -1.32580E+03 -3.45443E+02 -7.80142E+02 -9.01343E+02
 -5.04565E+02 -8.29429E+02 -1.65909E+02 -1.07178E+03  4.63746E+02 -3.50814E+02  1.78116E+02  2.30612E+02
  4.41853E+02  3.13555E+02  5.34007E+02 -2.14168E+02 -8.17968E+02 -3.61588E+02 -3.38503E+02 -9.78638E+01
  2.28734E+02  1.60391E+02 -7.60632E+01 -2.40851E+02 -2.12542E+02  5.94445E+02  5.08542E+02 -5.95777E+00
 -1.59722E+02 -3.19993E+01 -6.78306E+02 -2.35553E+01 -4.30522E+02 -1.61036E+02  1.09029E+02 -7.78334E+02
  5.79232E+02 -3.96837E+02  3.87492E+02 -2.99052E+02  9.13446E+02 -4.00808E+02 -5.61959E+00  1.03490E+03
  6.36382E+02  1.46440E+02 -1.07838E+02  3.97533E+02 -3.89590E+02  6.42694E+02 -7.31786E+02  6.55024E+02
 -5.36036E+01 -1.56234E+02 -3.74589E+02 -6.03461E+01 -1.15983E+02 -5.39378E+00 -5.01332E+02 -6.12544E+02
 -9.05565E+02  6.76724E+02 -3.07381E+02 -9.19486E+02  8.25476E+02 -1.81973E+03  5.05997E+02 -4.57703E+01
  4.74232E+02  1.19390E+01 -5.15122E+02 -3.86880E+01 -2.63247E+01  7.90901E+02 -2.81669E+02  6.32375E+02
