 $NMID ID='MM_0lb_SNR400_11hz_g45_50.RAW', FMTDAT='(8E13.5)'
 TRAMP=1., VOLUME=1. $END
  3.09788E+05  6.23446E+02  3.38358E+05  2.50472E+05  8.44737E+04  3.37586E+05 -1.33267E+05  2.51300E+05
 -1.90021E+05  8.28771E+04 -1.11469E+05 -3.23089E+04  6.62860E+02 -5.06875E+04  5.34157E+04 -7.55634E+02
  3.59433E+04  5.26938E+04 -1.69535E+04  7.56577E+04 -6.08459E+04  6.41867E+04 -8.54306E+04  3.19816E+04
 -8.12306E+04 -1.15938E+04 -5.77791E+04 -5.13092E+04 -1.52024E+04 -7.01643E+04  2.76564E+04 -4.67398E+04
  4.06187E+04  3.56617E+03  1.62057E+04  4.82402E+04 -3.44183E+04  4.79410E+04 -6.73001E+04 -6.21197E+01
 -5.42322E+04 -5.76041E+04 -6.51939E+03 -7.79429E+04  3.40518E+04 -5.65051E+04  4.83914E+04 -1.71187E+04
  4.39420E+04  1.14683E+04  3.19597E+04  2.56861E+04  1.62422E+04  2.96954E+04 -5.54740E+03  2.76477E+04
 -2.26223E+04  1.21147E+04 -1.80190E+04 -4.57685E+03  6.52599E+03 -7.32549E+03  2.28600E+04  1.24295E+04
  7.32371E+03  3.66801E+04 -3.27509E+04  3.60215E+04 -6.47378E+04  2.47657E+03 -5.76209E+04 -4.38215E+04
 -1.28343E+04 -6.40121E+04  4.07612E+04 -4.59563E+04  5.92679E+04 -3.01880E+03  3.51041E+04  3.36422E+04
 -5.68954E+03  3.76284E+04 -3.07251E+04  1.74016E+04 -3.20339E+04 -4.33061E+03 -1.87132E+04 -1.20442E+04
 -8.75761E+03 -1.42795E+04 -1.02519E+03 -1.90121E+04  8.11697E+03 -2.27581E+04  1.52140E+04 -1.35043E+04
  1.12710E+04  5.30132E+03 -9.24327E+03  1.28743E+04 -2.23896E+04 -5.71001E+03 -7.62755E+03 -3.61085E+04
  2.39880E+04 -4.50702E+04  5.02420E+04 -2.04548E+04  4.63903E+04  2.02012E+04  1.71577E+04  4.58080E+04
 -1.65876E+04  3.45694E+04 -2.68170E+04  2.34360E+03 -1.09024E+04 -2.83405E+04  2.10525E+04 -3.54594E+04
  4.23402E+04 -1.01677E+04  3.79980E+04  2.41378E+04  1.95290E+04  4.88299E+04 -7.38800E+03  5.29831E+04
 -3.30758E+04  3.61919E+04 -4.49092E+04  1.03733E+04 -4.51468E+04 -1.80967E+04 -2.43488E+04 -3.97046E+04
  7.17969E+03 -4.00310E+04  3.28392E+04 -1.71186E+04  3.03250E+04  1.09699E+04  4.42501E+03  1.98034E+04
 -1.35584E+04  9.08017E+03 -1.10478E+04 -7.17346E+03  5.75168E+03 -1.12255E+04  1.79903E+04  5.80063E+03
  1.40732E+04  2.25167E+04 -6.07900E+03  2.68102E+04 -2.27855E+04  1.31935E+04 -3.05513E+04 -3.89446E+03
 -2.28982E+04 -1.78839E+04 -9.40959E+03 -2.32374E+04  3.72258E+03 -2.22491E+04  1.68394E+04 -2.05508E+04
  2.88530E+04 -1.34149E+04  3.52591E+04  4.30826E+03  2.51828E+04  2.23213E+04  4.27277E+03  3.94611E+04
 -1.87682E+04  3.26177E+04 -2.90325E+04  1.13325E+04 -2.15689E+04 -1.04478E+04 -4.12492E+03 -1.29396E+04
  1.81208E+03 -1.99818E+03 -6.40065E+03  7.26284E+03 -1.91241E+04  4.83569E+03 -1.80771E+04 -8.85026E+03
 -1.10411E+04 -2.15790E+04  5.37516E+03 -2.55971E+04  1.68897E+04 -1.83738E+04  2.00556E+04 -2.07834E+03
  1.28802E+04  1.47362E+04 -1.55139E+03  2.04566E+04 -1.52733E+04  1.25021E+04 -2.13925E+04 -4.07088E+03
 -1.57795E+04 -1.89684E+04 -2.27780E+03 -2.50034E+04  1.13853E+04 -2.03687E+04  2.12315E+04 -1.01509E+04
  1.93066E+04  1.53628E+02  1.41619E+04  4.99200E+03  7.76014E+03  9.01193E+02  1.06822E+04 -2.20531E+03
  1.94301E+04  3.37961E+03  2.20515E+04  1.66099E+04  1.54884E+04  3.40224E+04 -3.24644E+03  3.92929E+04
 -2.19335E+04  3.23371E+04 -3.66415E+04  1.62472E+04 -3.91256E+04 -2.92099E+03 -3.18754E+04 -2.20716E+04
 -1.31014E+04 -3.14268E+04  1.07389E+04 -2.89303E+04  2.46439E+04 -1.35041E+04  2.17940E+04  6.79400E+03
  7.62878E+03  1.66876E+04 -1.06147E+04  1.34007E+04 -1.82546E+04  2.00032E+03 -1.36420E+04 -1.20714E+04
  3.94349E+01 -1.75429E+04  9.05980E+03 -1.26959E+04  1.10959E+04 -1.60497E+03  2.79517E+03  7.41762E+03
 -7.86609E+03  3.47220E+03 -6.73385E+03 -5.62726E+03 -9.02275E+02 -1.58902E+04  1.06270E+04 -1.64711E+04
  1.95516E+04 -9.35158E+03  2.21245E+04  2.93100E+03  1.87838E+04  1.56267E+04  8.61728E+03  2.43715E+04
 -4.83376E+03  2.67058E+04 -1.71754E+04  1.58553E+04 -1.91362E+04  3.57681E+03 -1.30199E+04 -4.60619E+03
 -5.84110E+03 -6.03201E+03 -1.49916E+02  1.54189E+02 -3.30224E+03  2.98633E+03 -6.72603E+03  5.20273E+03
 -1.31548E+04 -6.14877E+02 -1.25576E+04 -9.92171E+03 -5.35290E+03 -1.73284E+04  5.44032E+03 -1.37775E+04
  1.14373E+04 -6.05836E+03  8.11014E+03  3.90329E+03 -2.24446E+02  5.47334E+03 -6.66013E+03  1.44466E+02
 -6.93865E+03 -8.94147E+03 -1.17649E+03 -1.27025E+04  7.42096E+03 -1.40519E+04  1.63524E+04 -7.40297E+03
  1.94491E+04  2.00222E+03  1.45041E+04  1.26323E+04  2.91861E+03  1.60915E+04 -8.95818E+03  1.33358E+04
 -1.09110E+04  3.77880E+03 -6.02908E+03 -2.61948E+03  1.63169E+03 -3.59690E+03  6.81241E+03 -1.21696E+03
  5.46878E+03  6.05577E+03  1.05645E+03  1.07197E+04 -7.93120E+03  1.00139E+04 -1.29315E+04  2.49552E+03
 -9.37107E+03 -6.70296E+03  2.84610E+02 -1.10043E+04  7.48670E+03 -5.78324E+03  7.94648E+03  2.87839E+03
  1.33463E+03  7.89094E+03 -6.46190E+03  9.95583E+03 -1.06669E+04  4.69934E+03 -1.12044E+04 -3.74476E+03
 -7.00218E+03 -1.31401E+04  3.59570E+03 -1.52441E+04  1.27384E+04 -8.75053E+03  1.38990E+04  2.77108E+03
  7.63389E+03  1.09841E+04 -5.60175E+02  1.35161E+04 -9.50335E+03  8.13762E+03 -1.01942E+04 -4.28353E+02
 -9.12371E+03 -8.27711E+03 -1.57411E+03 -9.87537E+03  5.20980E+03 -8.44165E+03  6.30432E+03 -3.50407E+03
  4.05405E+03  1.75560E+03 -1.02794E+03  2.50466E+03 -2.54683E+02 -2.54100E+03  2.24667E+03 -5.79668E+03
  8.61056E+03 -3.79439E+03  1.19590E+04  1.27224E+03  1.22613E+04  8.44594E+03  8.63976E+03  1.65040E+04
 -3.64851E+03  1.92066E+04 -1.57538E+04  1.40022E+04 -2.04271E+04  2.90758E+03 -1.64462E+04 -6.82868E+03
 -7.98457E+03 -1.38136E+04 -1.04275E+03 -1.18140E+04  3.81287E+03 -6.98230E+03  3.95259E+03 -4.47045E+03
  3.17569E+03 -2.64729E+03  3.79743E+03 -4.15120E+03  5.24484E+03 -3.07796E+03  6.33937E+03 -1.01376E+03
  9.34208E+03  2.51716E+03  4.60243E+03  7.22755E+03 -2.20940E+03  8.23389E+03 -9.51206E+03  6.78715E+03
 -1.14451E+04 -1.83027E+03 -7.29232E+03 -8.25137E+03 -1.20589E+03 -1.24847E+04  6.92783E+03 -1.19219E+04
  1.32285E+04 -6.86762E+03  1.52534E+04  1.45166E+03  1.04020E+04  1.10929E+04  1.42237E+03  1.48316E+04
 -5.25392E+03  1.13445E+04 -7.56577E+03  3.50160E+03 -4.96342E+03 -1.66612E+03 -1.71235E+03 -1.05503E+03
 -1.29368E+03  2.52384E+02 -1.91696E+03  2.55005E+03 -5.10530E+03  1.40484E+03 -7.88272E+03 -1.22587E+03
 -4.94093E+03 -7.58595E+03  5.63263E+02 -1.09341E+04  7.35591E+03 -1.06284E+04  1.11721E+04 -3.11937E+03
  1.07732E+04  5.41773E+03  5.32542E+03  9.82307E+03 -2.66906E+03  1.16604E+04 -7.51545E+03  7.59395E+03
 -1.05265E+04  5.65881E+02 -8.17377E+03 -6.23375E+03 -2.66441E+02 -9.06861E+03  3.89772E+03 -6.53734E+03
  7.00142E+03 -2.40077E+03  4.82959E+03  1.24728E+03  1.93097E+03  3.37516E+03  1.23110E+03  1.18042E+03
  2.81992E+03  6.27081E+02  2.28206E+03  1.89881E+03  3.30994E+03  3.57858E+03  3.60577E+03  6.23790E+03
 -2.24902E+03  9.11548E+03 -7.04362E+03  8.66335E+03 -1.13879E+04  2.36429E+03 -1.17190E+04 -4.48164E+03
 -5.52568E+03 -1.17559E+04  1.11619E+03 -1.31034E+04  6.89575E+03 -7.41873E+03  9.39616E+03 -2.03196E+03
  7.37786E+03  4.58115E+03  1.58592E+03  7.41031E+03 -2.96460E+03  3.83789E+03 -4.48413E+03 -4.96928E+02
 -2.03786E+03 -5.50996E+03  3.02030E+03 -4.79179E+03  4.63285E+03 -2.42291E+03  5.22252E+03  1.02487E+03
  2.58360E+03  2.19834E+03  1.19073E+03  1.81145E+03 -8.84563E+02  1.11564E+03  1.46152E+03 -4.91891E+02
  1.66146E+03 -4.79153E+02  4.95608E+03  1.82312E+03  2.14252E+03  5.67373E+03 -4.36169E+02  7.49466E+03
 -5.09715E+03  5.32561E+03 -6.56374E+03  1.45048E+03 -5.78471E+03 -2.20246E+03 -2.16145E+03 -4.93923E+03
  6.97419E+02 -5.09549E+03  2.59757E+03 -2.32156E+03  2.58268E+03  2.59215E+03 -1.16388E+03  3.44099E+03
 -4.94198E+03  2.12224E+03 -5.02588E+03 -2.50660E+03 -2.65398E+03 -5.36202E+03  4.51812E+02 -5.94741E+03
  3.34412E+03 -3.70761E+03  4.43871E+03 -7.43222E+01  3.30841E+03  1.24937E+03  3.19481E+02  3.43700E+03
 -1.39094E+03  1.07855E+03 -2.75532E+03 -2.38592E+03  1.13913E+03 -4.88282E+03  5.14040E+03 -3.88827E+03
  7.01344E+03  5.50557E+02  6.95985E+03  5.31849E+03  1.91092E+03  7.01549E+03 -2.39803E+03  6.57902E+03
 -5.54049E+03  2.53509E+03 -6.16005E+03 -1.58636E+03 -3.88480E+03 -4.26025E+03  1.11283E+03 -3.98365E+03
  4.56285E+03 -1.45753E+03  3.75015E+03  1.96738E+03  1.01306E+03  3.33936E+03 -3.23839E+02  3.96371E+03
 -2.04531E+03  2.76701E+03 -2.30739E+03 -5.85211E+02 -1.64529E+03  1.00348E+03 -1.16679E+03  9.37392E+02
 -2.01785E+03  3.27497E+03 -5.05511E+03  2.38207E+03 -7.26552E+03  7.56707E+02 -8.59683E+03 -4.49038E+03
 -4.32351E+03 -9.21485E+03  1.04193E+03 -1.08521E+04  6.22616E+03 -8.23396E+03  1.02773E+04 -3.54483E+03
  9.09174E+03  1.89330E+03  5.75184E+03  6.17838E+03 -2.51789E+02  6.62525E+03 -2.93767E+03  4.92170E+03
 -4.16172E+03  2.80655E+03 -2.83327E+03 -1.44429E+03 -4.78106E+02 -1.30107E+03 -6.98698E+02  2.64681E+01
 -9.14521E+02 -3.20525E+00 -1.54126E+03 -6.83205E+02 -3.20925E+02 -1.52417E+03 -1.95054E+02 -2.64722E+03
  3.83321E+03 -2.27869E+03  4.31870E+03  2.91294E+02  4.68998E+03  3.22845E+03  8.65963E+02  7.28513E+03
 -3.41673E+03  8.11859E+03 -7.53125E+03  5.16432E+03 -8.72477E+03 -4.73889E+02 -6.46483E+03 -5.85898E+03
 -2.89506E+03 -6.90503E+03  1.51920E+03 -6.45164E+03  4.17178E+03 -3.87531E+03  3.91266E+03  4.19986E+01
  1.96303E+03  2.48953E+03 -4.47652E+02  2.14147E+03 -1.43649E+03 -8.14814E+01  3.56170E+02 -1.96678E+03
  1.74574E+03 -5.98253E+02  2.73571E+03  8.41576E+02  1.23489E+03  2.92802E+03 -7.40960E+02  3.57495E+03
 -3.68787E+03  2.33693E+03 -4.72025E+03  4.15199E+02 -3.67000E+03 -3.13512E+03 -1.38876E+03 -4.98842E+03
  2.21605E+03 -5.03239E+03  4.43345E+03 -1.31535E+03  4.97590E+03  1.23149E+03  3.38212E+03  4.42306E+03
  1.01720E+03  4.48122E+03 -1.37861E+03  3.42452E+03 -3.02470E+03  2.80555E+03 -2.75836E+03  5.66577E+02
 -1.33196E+03  5.29678E+01 -1.06754E+03  2.42272E+02 -2.11604E+03  6.51709E+02 -3.51713E+03 -7.48732E+02
 -2.94487E+03 -1.71209E+03 -1.03809E+03 -4.38595E+03  2.32598E+03 -4.49322E+03  4.44555E+03 -2.20751E+03
  4.82485E+03  1.39259E+02  1.57701E+03  3.30864E+03 -1.17027E+03  3.86924E+03 -2.82468E+03  2.65480E+03
