 $NMID ID='MM_0lb_SNR400_15hz_g60_34.RAW', FMTDAT='(8E13.5)'
 TRAMP=1., VOLUME=1. $END
  3.10058E+05  8.61874E+02  3.37944E+05  2.50121E+05  8.51923E+04  3.39007E+05 -1.32230E+05  2.51031E+05
 -1.90576E+05  8.29871E+04 -1.11688E+05 -3.26016E+04  7.07142E+02 -5.06330E+04  5.36899E+04 -5.68383E+02
  3.50075E+04  5.25265E+04 -1.68178E+04  7.57503E+04 -6.09901E+04  6.37937E+04 -8.45800E+04  3.20629E+04
 -8.17285E+04 -1.13547E+04 -5.72381E+04 -5.06758E+04 -1.48207E+04 -7.01913E+04  2.79269E+04 -4.60901E+04
  4.01649E+04  3.74181E+03  1.63849E+04  4.78540E+04 -3.40027E+04  4.75137E+04 -6.74087E+04  2.34994E+01
 -5.35496E+04 -5.76901E+04 -6.28412E+03 -7.74275E+04  3.41165E+04 -5.51834E+04  4.82580E+04 -1.77454E+04
  4.39941E+04  1.18593E+04  3.31405E+04  2.55769E+04  1.56219E+04  2.92872E+04 -4.93745E+03  2.78521E+04
 -2.24700E+04  1.18383E+04 -1.86219E+04 -5.17794E+03  5.58242E+03 -7.95287E+03  2.26303E+04  1.21587E+04
  6.71517E+03  3.53251E+04 -3.26908E+04  3.56880E+04 -6.35779E+04  2.54677E+03 -5.72114E+04 -4.27047E+04
 -1.26432E+04 -6.38864E+04  4.04867E+04 -4.56477E+04  5.87941E+04 -2.34789E+03  3.52634E+04  3.29671E+04
 -6.18165E+03  3.62182E+04 -3.04282E+04  1.67211E+04 -3.08494E+04 -4.62819E+03 -1.75140E+04 -1.08468E+04
 -8.73854E+03 -1.31072E+04 -8.17589E+02 -1.80929E+04  6.51964E+03 -2.27961E+04  1.56801E+04 -1.31983E+04
  1.15134E+04  5.47317E+03 -8.41729E+03  1.26495E+04 -2.19464E+04 -5.07774E+03 -8.15461E+03 -3.49644E+04
  2.30312E+04 -4.44288E+04  4.90329E+04 -1.98441E+04  4.55482E+04  1.97879E+04  1.62186E+04  4.54573E+04
 -1.64440E+04  3.37565E+04 -2.57789E+04  2.03998E+03 -1.06022E+04 -2.82452E+04  2.12621E+04 -3.42418E+04
  4.19979E+04 -9.68496E+03  3.61378E+04  2.39981E+04  1.86356E+04  4.70398E+04 -7.88960E+03  5.15505E+04
 -3.14718E+04  3.45547E+04 -4.30660E+04  9.62374E+03 -4.31788E+04 -1.70338E+04 -2.42396E+04 -3.85763E+04
  8.04803E+03 -3.88918E+04  3.16224E+04 -1.46831E+04  2.93638E+04  1.06890E+04  4.02884E+03  1.98965E+04
 -1.33144E+04  8.52028E+03 -9.92566E+03 -7.64679E+03  6.45037E+03 -1.08217E+04  1.84834E+04  5.90037E+03
  1.32311E+04  2.28580E+04 -6.90810E+03  2.56908E+04 -2.18406E+04  1.24012E+04 -2.86117E+04 -4.22018E+03
 -2.10983E+04 -1.71530E+04 -8.89962E+03 -2.11611E+04  4.55352E+03 -1.99728E+04  1.60974E+04 -1.85535E+04
  2.70043E+04 -1.34637E+04  3.28646E+04  2.92492E+03  2.40045E+04  2.03027E+04  4.16908E+03  3.69986E+04
 -1.79268E+04  3.05440E+04 -2.84917E+04  1.03878E+04 -2.15293E+04 -1.07587E+04 -4.30603E+03 -1.39429E+04
  2.10370E+03 -2.48545E+03 -5.67868E+03  7.54096E+03 -1.71346E+04  4.77395E+03 -1.65967E+04 -7.76677E+03
 -1.05618E+04 -1.96046E+04  5.44994E+03 -2.30084E+04  1.55426E+04 -1.70527E+04  1.91157E+04 -1.78445E+03
  1.19764E+04  1.36966E+04 -1.03950E+03  1.95414E+04 -1.36513E+04  1.10360E+04 -1.88707E+04 -3.47453E+03
 -1.46269E+04 -1.75936E+04 -2.00902E+03 -2.30744E+04  1.02959E+04 -1.89700E+04  1.99442E+04 -9.63634E+03
  1.77982E+04  1.44830E+02  1.33787E+04  4.48836E+03  6.63612E+03  7.72650E+02  9.36615E+03 -1.73187E+03
  1.85756E+04  2.73008E+03  2.02187E+04  1.51542E+04  1.30767E+04  3.07772E+04 -2.75811E+03  3.50647E+04
 -1.98476E+04  2.82190E+04 -3.26841E+04  1.38401E+04 -3.44093E+04 -2.16298E+03 -2.90270E+04 -1.93555E+04
 -1.18884E+04 -2.86893E+04  9.47369E+03 -2.50982E+04  2.20327E+04 -1.33824E+04  1.93290E+04  5.25730E+03
  7.34098E+03  1.43961E+04 -9.72992E+03  1.24895E+04 -1.68187E+04  2.75766E+03 -1.27964E+04 -1.01739E+04
  8.47366E+01 -1.57948E+04  7.47417E+03 -1.17096E+04  1.02442E+04 -2.06818E+03  2.06247E+03  6.70035E+03
 -6.68223E+03  3.07748E+03 -6.38655E+03 -5.27174E+03 -9.89373E+02 -1.35805E+04  9.36890E+03 -1.47336E+04
  1.68810E+04 -7.65843E+03  1.84206E+04  3.05866E+03  1.54620E+04  1.28111E+04  7.39375E+03  2.02407E+04
 -3.34835E+03  2.27222E+04 -1.50393E+04  1.36709E+04 -1.62490E+04  3.00310E+03 -1.15464E+04 -3.30205E+03
 -5.19686E+03 -5.22777E+03 -9.31243E+02  1.45617E+03 -2.63776E+03  2.57792E+03 -5.28696E+03  5.05325E+03
 -1.06152E+04 -1.42700E+03 -1.10953E+04 -8.32845E+03 -5.17490E+03 -1.51654E+04  4.62099E+03 -1.16495E+04
  9.07351E+03 -4.99784E+03  6.79468E+03  2.90335E+03  3.60566E+02  4.84997E+03 -5.30266E+03  5.05837E+02
 -5.25499E+03 -7.07533E+03 -6.10586E+02 -1.12021E+04  6.12476E+03 -1.09794E+04  1.38744E+04 -5.79472E+03
  1.56314E+04  8.44449E+02  1.21355E+04  9.46965E+03  2.65791E+03  1.29810E+04 -7.08221E+03  1.04853E+04
 -1.00111E+04  3.84381E+03 -4.53363E+03 -1.84176E+03  1.90424E+03 -2.98014E+03  6.08863E+03 -1.27698E+03
  5.84888E+03  4.93066E+03  1.18929E+03  8.98716E+03 -6.14049E+03  8.73727E+03 -1.11498E+04  2.84609E+03
 -6.97540E+03 -6.14434E+03  3.24684E+02 -9.74306E+03  5.50814E+03 -4.37735E+03  5.91447E+03  2.47590E+03
  1.03345E+03  6.27328E+03 -6.25649E+03  7.15152E+03 -8.45254E+03  3.23326E+03 -8.10668E+03 -2.71083E+03
 -4.92526E+03 -9.56426E+03  2.45812E+03 -1.13311E+04  9.44340E+03 -6.99317E+03  9.96609E+03  2.25837E+03
  6.70072E+03  8.70152E+03  1.29889E+02  1.07190E+04 -6.61019E+03  5.74477E+03 -8.37752E+03 -7.79514E+02
 -7.31413E+03 -7.40440E+03 -1.20143E+03 -8.08377E+03  3.74323E+03 -6.17887E+03  4.60969E+03 -2.89297E+03
  3.68345E+03  6.15038E+02  2.98400E+02  1.91709E+03 -8.65981E+02 -8.79856E+02  1.45685E+03 -4.46945E+03
  7.03753E+03 -1.85096E+03  9.23408E+03  6.16317E+02  9.25050E+03  5.77541E+03  6.76157E+03  1.20887E+04
 -3.12034E+03  1.43236E+04 -1.19589E+04  1.04679E+04 -1.50763E+04  1.71943E+03 -1.23056E+04 -4.56317E+03
 -6.88548E+03 -9.37763E+03 -5.03648E+02 -8.48228E+03  3.14528E+03 -4.45878E+03  2.90643E+03 -3.07281E+03
  2.24878E+03 -2.06657E+03  2.60823E+03 -2.92866E+03  4.54190E+03 -1.94192E+03  4.99981E+03  8.03891E+00
  6.20739E+03  1.34024E+03  2.63677E+03  6.03747E+03 -1.73903E+03  5.82141E+03 -6.79543E+03  4.54020E+03
 -7.99981E+03 -1.36921E+03 -4.34705E+03 -5.80823E+03  5.53182E+02 -8.48248E+03  4.80315E+03 -9.46081E+03
  8.61742E+03 -5.53378E+03  1.11831E+04  1.17403E+03  7.95128E+03  7.60114E+03  1.20132E+03  9.71367E+03
 -4.06625E+03  8.54834E+03 -5.99391E+03  2.56016E+03 -4.11803E+03 -1.37292E+03 -1.02205E+03 -1.64272E+03
 -6.77374E+02  3.15911E+02 -1.95525E+03  2.53357E+03 -4.45389E+03  1.34384E+03 -5.96904E+03 -7.95168E+02
 -3.26193E+03 -6.03593E+03  4.73713E+02 -7.89936E+03  4.41570E+03 -7.14392E+03  6.36608E+03 -2.45385E+03
  6.53286E+03  3.21679E+03  3.38224E+03  6.56224E+03 -1.33040E+03  7.80551E+03 -4.82571E+03  5.06594E+03
 -6.70695E+03  4.19986E+02 -5.69320E+03 -4.86383E+03 -8.07866E+02 -6.53082E+03  3.46604E+03 -4.28059E+03
  4.86769E+03 -1.75864E+03  3.45069E+03  9.87307E+02  1.18886E+03  2.52272E+03  1.34129E+03  7.66302E+02
  2.31310E+03  3.86069E+02  1.85277E+03  6.94400E+02  1.60933E+03  2.95111E+03  1.87854E+03  2.97159E+03
 -1.94898E+03  5.40393E+03 -4.94777E+03  5.77931E+03 -6.25013E+03  1.58464E+03 -7.58278E+03 -1.98313E+03
 -3.73864E+03 -7.03068E+03  6.29791E+02 -7.67095E+03  3.80996E+03 -5.04933E+03  5.71395E+03 -1.84765E+03
  4.45862E+03  2.13031E+03  1.19142E+03  4.83266E+03 -1.43291E+03  2.33625E+03 -1.66151E+03 -2.66543E+02
 -1.20718E+03 -3.66639E+03  1.59779E+03 -3.09674E+03  2.70750E+03 -6.25313E+02  2.84161E+03  4.47121E+02
  1.30399E+03  1.29331E+03  1.33103E+03  7.81939E+02 -7.07180E+02  1.48169E+03  1.43016E+03 -7.56114E+02
  7.09043E+02 -2.05679E+02  3.31615E+03  4.51458E+02  1.25347E+03  3.94285E+03 -8.77006E+02  5.43419E+03
 -2.99157E+03  2.19682E+03 -4.07111E+03  9.10998E+02 -4.03478E+03 -6.48919E+02 -1.50987E+03 -2.38908E+03
  3.10792E+02 -2.78320E+03  1.61835E+03 -1.39749E+03  9.19392E+02  1.33751E+03 -9.32294E+02  1.48905E+03
 -2.29213E+03  1.67002E+03 -3.13113E+03 -2.79438E+03 -1.38663E+03 -3.77100E+03  1.54330E+02 -2.90859E+03
  2.04831E+03 -9.08393E+02  1.60327E+03 -2.98394E+02  2.28311E+03  4.77688E+02  4.16071E+02  1.49677E+03
 -1.27445E+03  4.47964E+02 -1.29706E+03 -1.09098E+03  7.06121E+02 -2.22697E+03  2.79999E+03 -1.93676E+03
  2.70139E+03 -2.14639E+02  4.14959E+03  2.22989E+03  1.57043E+03  3.45430E+03 -1.35739E+03  3.53754E+03
 -3.11582E+03  1.56718E+03 -3.04341E+03 -1.21590E+03 -1.89782E+03 -1.92356E+03  7.52110E+02 -1.52380E+03
  2.64524E+03 -1.43888E+03  1.56002E+03  1.06165E+03  7.81734E+02  2.44474E+03  6.15637E+00  1.38292E+03
 -3.36789E+02  1.89112E+03 -4.07499E+02  1.05263E+03 -6.22851E+02  7.93599E+02 -9.36628E+02  1.42004E+03
 -1.18822E+03  1.61616E+03 -2.84613E+03  8.06304E+02 -3.39226E+03  1.29253E+02 -4.39052E+03 -2.24558E+03
 -2.10845E+03 -4.94047E+03  1.43680E+03 -4.71981E+03  2.84453E+03 -4.56654E+03  5.48434E+03 -1.68422E+03
  4.94950E+03  3.94766E+02  2.67762E+03  3.76577E+03  5.45793E+01  3.18552E+03 -1.44591E+03  3.12451E+03
 -1.77240E+03  1.68076E+03 -1.40372E+03 -7.97876E+02 -2.85711E+02 -3.53612E+02 -4.41954E+02  8.29389E+02
 -1.59098E+03 -5.44950E+02 -1.40819E+03  4.36232E+02 -1.42453E+02 -1.09767E+03 -3.44408E+02 -9.91198E+02
  1.85947E+03 -8.40218E+02  1.59690E+03  9.43441E+01  2.66374E+03  1.44226E+03 -1.74780E+02  2.41734E+03
 -1.97012E+03  4.29869E+03 -4.28756E+03  2.70879E+03 -2.83135E+03  1.50304E+02 -2.55484E+03 -2.80354E+03
 -9.79224E+02 -2.65338E+03  1.18426E+03 -2.73802E+03  1.39355E+03 -9.53928E+02  1.55412E+03 -1.09929E+02
  1.24047E+03  8.85942E+02  3.16238E+01  2.79255E+02 -6.40009E+02 -3.55058E+02  5.33431E+02 -1.84820E+02
  8.25898E+02 -1.04008E+02  1.30419E+03  4.57384E+02  5.13773E+02  1.28205E+03 -4.78420E+01  1.72744E+03
 -1.09624E+03  1.23985E+03 -1.41461E+03 -3.93187E+02 -1.75795E+03 -1.23364E+03  5.66629E+01 -3.38716E+03
  1.77884E+03 -1.90809E+03  2.24385E+03 -3.78428E+02  2.11534E+03  1.92119E+02  1.38189E+03  1.36420E+03
  6.22022E+02  1.72330E+03 -7.58863E+02  1.45586E+03 -1.82798E+03  1.46555E+03 -4.62084E+02  3.29945E+02
 -2.23089E+02  9.27743E+02 -8.38878E+02  2.86600E+01 -4.89035E+02  6.58163E+02 -1.85596E+03 -6.09710E+02
 -1.58793E+03  6.08011E+01 -7.54405E+02 -1.94437E+03  4.05380E+02 -2.20936E+03  1.81576E+03 -6.65517E+02
  1.76211E+03  3.10090E+02  4.30437E+02  7.29227E+02 -1.10186E+03  1.65914E+03 -1.15340E+03  9.25961E+02
