 $NMID ID='MM_0lb_SNR400_15hz_g40_6.RAW', FMTDAT='(8E13.5)'
 TRAMP=1., VOLUME=1. $END
  3.09413E+05 -1.95409E+01  3.36882E+05  2.50535E+05  8.49353E+04  3.37846E+05 -1.31680E+05  2.51352E+05
 -1.89951E+05  8.29111E+04 -1.11941E+05 -3.28413E+04  1.31926E+03 -4.94875E+04  5.35620E+04 -2.14094E+02
  3.52312E+04  5.27776E+04 -1.71184E+04  7.49604E+04 -6.00699E+04  6.33278E+04 -8.37338E+04  3.20814E+04
 -8.01130E+04 -1.17726E+04 -5.66362E+04 -5.03969E+04 -1.46677E+04 -6.91614E+04  2.67086E+04 -4.55855E+04
  3.97061E+04  3.77899E+03  1.58630E+04  4.74979E+04 -3.40880E+04  4.69388E+04 -6.57685E+04  6.70117E+01
 -5.22304E+04 -5.61436E+04 -6.44499E+03 -7.58975E+04  3.37590E+04 -5.41249E+04  4.75293E+04 -1.69039E+04
  4.24006E+04  1.08983E+04  3.14845E+04  2.47852E+04  1.55329E+04  2.86672E+04 -5.08947E+03  2.73180E+04
 -2.22647E+04  1.27426E+04 -1.82208E+04 -4.65010E+03  4.95871E+03 -7.82370E+03  2.14308E+04  1.17825E+04
  7.50343E+03  3.40427E+04 -3.10665E+04  3.47490E+04 -6.17410E+04  2.02362E+03 -5.60970E+04 -4.17114E+04
 -1.24352E+04 -6.24054E+04  3.89691E+04 -4.43452E+04  5.76340E+04 -2.25100E+03  3.29159E+04  3.17974E+04
 -6.40316E+03  3.47644E+04 -2.90608E+04  1.46651E+04 -2.91791E+04 -4.95711E+03 -1.56429E+04 -1.09308E+04
 -7.82098E+03 -1.21492E+04 -7.64362E+02 -1.74280E+04  7.14949E+03 -2.30778E+04  1.58636E+04 -1.33667E+04
  1.19422E+04  5.32496E+03 -7.45439E+03  1.28215E+04 -2.03401E+04 -3.01938E+03 -8.12118E+03 -3.25922E+04
  2.13241E+04 -4.24859E+04  4.63647E+04 -1.83978E+04  4.35246E+04  1.82225E+04  1.45774E+04  4.23938E+04
 -1.59327E+04  3.24538E+04 -2.39039E+04  1.29569E+03 -8.83704E+03 -2.69316E+04  2.09564E+04 -3.29225E+04
  3.93071E+04 -8.57234E+03  3.32236E+04  2.31970E+04  1.69249E+04  4.50862E+04 -8.04483E+03  4.72966E+04
 -3.04597E+04  3.21011E+04 -3.98539E+04  9.31692E+03 -4.05607E+04 -1.55897E+04 -2.24767E+04 -3.65505E+04
  7.19624E+03 -3.65189E+04  3.04563E+04 -1.37052E+04  2.76050E+04  1.07462E+04  3.29099E+03  1.81927E+04
 -1.35376E+04  7.85799E+03 -1.01868E+04 -7.65765E+03  5.51431E+03 -1.03201E+04  1.77857E+04  6.33455E+03
  1.29842E+04  2.12819E+04 -6.19806E+03  2.41423E+04 -2.21111E+04  1.01263E+04 -2.71184E+04 -5.26470E+03
 -1.85952E+04 -1.65157E+04 -7.19621E+03 -1.89958E+04  3.64694E+03 -1.78878E+04  1.43088E+04 -1.65074E+04
  2.38929E+04 -1.23809E+04  3.09106E+04  1.94151E+03  2.25896E+04  1.82013E+04  4.71056E+03  3.52538E+04
 -1.71499E+04  2.92656E+04 -2.70910E+04  1.02322E+04 -1.99992E+04 -1.02396E+04 -3.98442E+03 -1.38120E+04
  2.40775E+03 -3.32652E+03 -4.14710E+03  6.45665E+03 -1.50700E+04  5.00676E+03 -1.45957E+04 -5.78377E+03
 -8.95401E+03 -1.74480E+04  5.07035E+03 -2.11360E+04  1.36313E+04 -1.56795E+04  1.66230E+04 -1.96758E+03
  1.09009E+04  1.22493E+04 -4.51897E+02  1.76696E+04 -1.19878E+04  1.03330E+04 -1.77992E+04 -4.01979E+03
 -1.30681E+04 -1.52010E+04 -1.52645E+03 -2.13494E+04  1.02349E+04 -1.72052E+04  1.81459E+04 -8.40268E+03
  1.65595E+04  1.22412E+02  1.18885E+04  4.27897E+03  6.65538E+03  8.98270E+02  8.83759E+03 -1.29451E+03
  1.62821E+04  2.43389E+03  1.76371E+04  1.38672E+04  1.13985E+04  2.76415E+04 -3.61513E+03  3.11418E+04
 -1.84874E+04  2.50495E+04 -2.90389E+04  1.16760E+04 -2.95374E+04 -1.81019E+03 -2.48457E+04 -1.68967E+04
 -1.12087E+04 -2.41640E+04  8.68074E+03 -2.27012E+04  1.91115E+04 -1.16505E+04  1.77975E+04  4.62481E+03
  7.19064E+03  1.30973E+04 -8.78913E+03  1.13513E+04 -1.51380E+04  2.25898E+03 -1.16665E+04 -9.49959E+03
  1.51048E+02 -1.39949E+04  6.82808E+03 -9.95493E+03  9.20759E+03 -1.82918E+03  1.42857E+03  6.27681E+03
 -6.86192E+03  2.04454E+03 -5.38380E+03 -5.07956E+03  4.07018E+02 -1.19807E+04  8.92183E+03 -1.21391E+04
  1.49010E+04 -6.40507E+03  1.48033E+04  3.06694E+03  1.37124E+04  1.10481E+04  6.78966E+03  1.75041E+04
 -2.62033E+03  1.95065E+04 -1.28149E+04  1.22836E+04 -1.35756E+04  2.85904E+03 -9.64586E+03 -2.99134E+03
 -5.19121E+03 -4.00374E+03 -5.51940E+02  1.11052E+03 -2.30732E+03  2.44278E+03 -4.02859E+03  3.72582E+03
 -9.55393E+03 -4.56168E+02 -9.82671E+03 -8.87312E+03 -3.06481E+03 -1.33381E+04  4.30601E+03 -1.09216E+04
  8.99620E+03 -4.27469E+03  6.18826E+03  2.83103E+03 -1.66052E+02  2.88010E+03 -4.84435E+03  1.17979E+02
 -4.57141E+03 -6.29626E+03 -1.53770E+03 -9.32204E+03  4.97901E+03 -9.95371E+03  1.27392E+04 -4.75451E+03
  1.41625E+04  1.63076E+03  1.10755E+04  8.32682E+03  2.41506E+03  1.10940E+04 -6.40861E+03  1.00236E+04
 -8.91606E+03  3.66583E+03 -4.21376E+03 -1.49931E+03  1.87128E+03 -2.18787E+03  5.10918E+03 -1.07902E+03
  4.97848E+03  4.72046E+03  9.69972E+02  7.81600E+03 -5.43681E+03  7.74653E+03 -1.00913E+04  1.92919E+03
 -6.46291E+03 -4.33550E+03  3.22770E+02 -8.13593E+03  5.46405E+03 -4.16016E+03  4.97366E+03  1.83490E+03
  1.24278E+02  4.87362E+03 -5.32651E+03  6.19460E+03 -6.79338E+03  3.00703E+03 -6.78275E+03 -2.73461E+03
 -3.77144E+03 -8.25910E+03  1.85088E+03 -9.26669E+03  8.17480E+03 -6.19131E+03  9.13316E+03  7.74175E+02
  5.47165E+03  7.03537E+03 -7.26884E+02  9.41806E+03 -6.42136E+03  5.02475E+03 -7.08687E+03 -8.67498E+02
 -7.38660E+03 -6.05575E+03 -1.64624E+03 -6.69331E+03  3.56703E+03 -6.13261E+03  4.09403E+03 -3.01925E+03
  3.16132E+03  6.43766E+02 -1.07207E+02  2.16271E+03 -1.76163E+02 -8.33813E+02  8.71904E+02 -2.80270E+03
  5.73249E+03 -1.34789E+03  7.51933E+03  8.36699E+02  7.79563E+03  4.44742E+03  6.86700E+03  1.03971E+04
 -1.81821E+03  1.16257E+04 -1.04990E+04  8.76277E+03 -1.31529E+04  1.37516E+03 -1.01432E+04 -4.53767E+03
 -5.14368E+03 -9.47125E+03 -4.39996E+02 -7.69144E+03  2.88347E+03 -3.34897E+03  2.61317E+03 -2.90881E+03
  2.07637E+03 -1.96594E+03  2.38654E+03 -2.37010E+03  4.21291E+03 -1.89615E+03  4.80086E+03  3.86121E+01
  5.50948E+03  9.87239E+02  2.26249E+03  4.94897E+03 -1.63651E+03  4.83615E+03 -6.30614E+03  3.82255E+03
 -6.94871E+03 -1.87852E+03 -3.65804E+03 -4.90373E+03  4.65466E+02 -6.57345E+03  4.69440E+03 -7.66309E+03
  8.09926E+03 -4.50074E+03  9.37809E+03  7.43681E+02  6.51111E+03  6.24051E+03  1.29844E+03  8.22942E+03
 -3.42133E+03  7.54901E+03 -5.07689E+03  2.60877E+03 -2.71138E+03 -1.55356E+03 -9.09614E+02 -1.07982E+03
 -6.90396E+02  2.47799E+02 -1.30173E+03  2.06809E+03 -3.21123E+03  7.31202E+02 -5.32123E+03 -3.17184E+02
 -2.82962E+03 -4.87105E+03  1.00899E+02 -7.28819E+03  4.11594E+03 -6.56374E+03  5.75555E+03 -1.55985E+03
  6.27093E+03  3.72073E+03  3.04215E+03  5.47177E+03 -1.41155E+03  6.98317E+03 -4.77956E+03  4.00050E+03
 -6.29941E+03  8.65783E+02 -4.78205E+03 -3.68791E+03 -6.31393E+02 -5.43354E+03  2.55201E+03 -3.97039E+03
  4.53095E+03 -1.27619E+03  2.83733E+03  3.41236E+02  7.80264E+02  2.55435E+03  8.52078E+02  5.74071E+02
  2.22531E+03  4.07097E+01  2.42731E+03  9.50670E+02  1.48369E+03  2.36295E+03  1.52231E+03  3.09449E+03
 -1.86142E+03  4.86097E+03 -3.74275E+03  5.63188E+03 -5.31963E+03  1.84397E+03 -6.88196E+03 -2.02293E+03
 -2.83859E+03 -6.32666E+03  7.77152E+02 -6.97068E+03  3.27523E+03 -3.93131E+03  4.46701E+03 -2.00233E+03
  3.91021E+03  2.27423E+03  5.57220E+02  3.60375E+03 -1.71059E+03  2.21671E+03 -2.52760E+03 -5.69761E+02
 -8.96363E+02 -2.92367E+03  1.80691E+03 -2.31323E+03  2.47745E+03 -1.38513E+03  1.83862E+03  1.20306E+03
  1.56454E+03  9.45454E+02  1.25111E+03  7.13390E+02 -2.20916E+02  1.42421E+03  1.54617E+03  2.41357E+02
  8.19398E+02 -5.68551E+02  2.90503E+03  7.52551E+02  9.47923E+02  3.07082E+03 -8.29298E+02  3.65421E+03
 -2.98288E+03  2.93163E+03 -3.51202E+03  5.59892E+02 -3.14237E+03 -8.90301E+02 -9.59395E+02 -1.83387E+03
  4.14104E+02 -2.60032E+03  1.70608E+03 -1.30103E+03  1.83523E+03  1.74120E+03  2.22611E+01  1.95654E+03
 -2.45674E+03  7.35982E+02 -2.39330E+03 -1.64031E+03 -1.57166E+03 -3.35904E+03  2.73033E+02 -2.72603E+03
  1.53219E+03 -1.52559E+03  2.04532E+03  4.94308E+00  2.94487E+03 -3.26152E+02  3.39388E+02  2.34430E+03
 -8.96178E+02  6.91361E+02 -2.27224E+03 -9.25393E+02  1.05277E+03 -1.64786E+03  3.02326E+03 -1.88326E+03
  3.23752E+03  1.43374E+02  4.01899E+03  1.84659E+03  1.33027E+03  2.87215E+03 -1.17910E+03  3.33431E+03
 -2.81454E+03  9.57367E+02 -2.39447E+03 -2.20328E+02 -1.81680E+03 -2.21889E+03  3.19998E+02 -1.14170E+03
  2.17521E+03 -1.24681E+03  1.83231E+03  9.43607E+02  1.72811E+02  1.78846E+03 -3.33374E+02  1.80456E+03
 -3.83882E+02  1.66019E+03 -1.34172E+03  3.30366E+02 -2.99363E+02  5.41320E+01 -3.15964E+02  8.67199E+02
 -7.76580E+02  1.15343E+03 -2.50681E+03  1.04490E+03 -3.05040E+03  7.28861E+02 -3.64935E+03 -2.77134E+03
 -1.26921E+03 -4.22987E+03  5.58937E+02 -5.37706E+03  2.24785E+03 -5.40321E+03  5.02225E+03 -2.05951E+03
  4.19999E+03 -1.04338E+02  2.57257E+03  2.68362E+03 -4.93081E+02  2.95721E+03 -1.27195E+03  2.07134E+03
 -2.26724E+03  1.15327E+03 -4.43204E+02 -6.21932E+02 -7.89115E+02 -3.01754E+02 -1.05281E+03 -2.00857E+02
 -1.29746E+03  2.53850E+02 -5.00070E+02 -3.34240E+02  4.10828E+02 -1.16460E+03  6.31822E+02 -1.22698E+03
  1.23336E+03 -1.09614E+03  1.78597E+03 -2.85129E+02  2.15092E+03  2.35354E+03  6.59083E+02  2.99685E+03
 -1.98724E+03  4.40428E+03 -3.29150E+03  2.43802E+03 -3.95316E+03 -7.15889E+02 -2.56709E+03 -2.57751E+03
 -1.66826E+03 -2.92618E+03  1.08097E+03 -2.69420E+03  2.28539E+03 -1.64041E+03  1.37190E+03  2.83918E+02
  1.48278E+03  8.50607E+02 -4.30716E+02  1.38685E+03 -7.30418E+02  3.61741E+02 -3.70632E+02 -3.80042E+02
  1.11665E+03 -8.18043E+01  6.51281E+02  5.55280E+02  6.73391E+02  1.16149E+03  2.87635E+02  1.04323E+03
 -1.52734E+03  9.57739E+02 -1.40042E+03  7.18868E+02 -1.85832E+03 -1.65420E+03  1.66381E+01 -2.65686E+03
  1.05236E+03 -1.46656E+03  1.64546E+03  7.67775E+01  1.42509E+03  3.23741E+02  1.08205E+03  1.04156E+03
  1.08847E+03  1.17085E+03 -5.63670E+02  1.35128E+03 -1.44728E+03  8.61215E+02 -1.02493E+03  8.08172E+01
 -7.03875E+02  1.87086E+01 -8.80162E+02  1.69429E+02 -1.00176E+03  2.52515E+02 -1.59473E+03 -5.71617E+02
 -1.96312E+03 -8.50426E+02 -9.23917E+02 -1.43290E+03  9.90850E+02 -2.69624E+03  1.82312E+03 -9.44914E+02
  1.68142E+03  1.47188E+01 -3.04124E+01  7.23634E+02 -2.04125E+02  1.74678E+03 -1.37560E+03  1.53687E+03
