 $NMID ID='MM_0lb_SNR400_9hz_g45_82.RAW', FMTDAT='(8E13.5)'
 TRAMP=1., VOLUME=1. $END
  3.08836E+05 -6.77372E+01  3.37618E+05  2.50801E+05  8.59182E+04  3.37641E+05 -1.33382E+05  2.52311E+05
 -1.90294E+05  8.40205E+04 -1.12672E+05 -3.31770E+04  1.24024E+02 -5.10768E+04  5.49661E+04 -2.03849E+02
  3.51658E+04  5.24959E+04 -1.59954E+04  7.60921E+04 -6.15774E+04  6.46653E+04 -8.54162E+04  3.22842E+04
 -8.18616E+04 -1.20269E+04 -5.82648E+04 -5.29247E+04 -1.53516E+04 -7.04867E+04  2.87560E+04 -4.63501E+04
  4.04101E+04  3.82540E+03  1.70566E+04  4.86614E+04 -3.46997E+04  4.78070E+04 -6.74901E+04  1.77140E+02
 -5.49310E+04 -5.77171E+04 -6.73199E+03 -7.84428E+04  3.48013E+04 -5.64015E+04  4.96175E+04 -1.76333E+04
  4.43676E+04  1.11006E+04  3.29986E+04  2.56654E+04  1.54955E+04  3.05391E+04 -5.93977E+03  2.72210E+04
 -2.20708E+04  1.16360E+04 -1.79244E+04 -5.56830E+03  6.81822E+03 -6.74582E+03  2.32161E+04  1.34565E+04
  6.50123E+03  3.77744E+04 -3.30527E+04  3.65030E+04 -6.52493E+04  2.32823E+03 -5.88523E+04 -4.47789E+04
 -1.25397E+04 -6.50085E+04  4.12862E+04 -4.70135E+04  6.14645E+04 -2.96691E+03  3.63593E+04  3.39886E+04
 -6.49570E+03  3.90117E+04 -3.15970E+04  1.83464E+04 -3.27908E+04 -3.53020E+03 -1.90040E+04 -1.20371E+04
 -8.82288E+03 -1.52068E+04 -8.93352E+02 -1.86041E+04  8.74817E+03 -2.40212E+04  1.57396E+04 -1.30081E+04
  9.81103E+03  6.05030E+03 -9.82224E+03  1.27332E+04 -2.35777E+04 -5.93226E+03 -7.95638E+03 -3.75559E+04
  2.51985E+04 -4.57817E+04  5.18187E+04 -2.06268E+04  4.78605E+04  2.05109E+04  1.67296E+04  4.59129E+04
 -1.71388E+04  3.61254E+04 -2.70438E+04  2.39650E+03 -1.17762E+04 -2.91458E+04  2.06368E+04 -3.69052E+04
  4.40874E+04 -1.08541E+04  3.99106E+04  2.49854E+04  2.16033E+04  5.04135E+04 -8.55265E+03  5.58722E+04
 -3.43979E+04  3.81942E+04 -4.66175E+04  1.15131E+04 -4.73073E+04 -1.80972E+04 -2.54588E+04 -4.19401E+04
  7.52597E+03 -4.09463E+04  3.35014E+04 -1.69769E+04  3.17851E+04  1.09070E+04  5.74543E+03  2.06356E+04
 -1.32736E+04  9.88722E+03 -1.08650E+04 -7.24595E+03  5.30917E+03 -1.12535E+04  1.85539E+04  4.41175E+03
  1.50292E+04  2.24950E+04 -4.91908E+03  2.61471E+04 -2.33211E+04  1.35535E+04 -3.09078E+04 -3.79484E+03
 -2.41202E+04 -1.74590E+04 -1.12921E+04 -2.47286E+04  4.63337E+03 -2.57562E+04  2.00866E+04 -2.30320E+04
  3.13012E+04 -1.41382E+04  3.75458E+04  4.50658E+03  2.69120E+04  2.33807E+04  4.50318E+03  3.97946E+04
 -1.95497E+04  3.39012E+04 -3.09059E+04  1.10833E+04 -2.19517E+04 -9.87835E+03 -4.53529E+03 -1.31209E+04
  1.12868E+03 -1.86380E+03 -6.63181E+03  8.41878E+03 -1.92717E+04  5.23983E+03 -2.00098E+04 -8.58980E+03
 -1.14048E+04 -2.33099E+04  6.05139E+03 -2.74071E+04  1.77146E+04 -1.94307E+04  2.26744E+04 -1.77503E+03
  1.43404E+04  1.62367E+04 -1.67000E+03  2.31664E+04 -1.57623E+04  1.29288E+04 -2.36925E+04 -5.05075E+03
 -1.60171E+04 -1.97106E+04 -2.06682E+03 -2.70802E+04  1.23498E+04 -2.26017E+04  2.31414E+04 -1.15601E+04
  2.20101E+04 -5.24016E+02  1.55653E+04  4.85099E+03  8.93383E+03  1.38945E+03  1.13155E+04 -2.41788E+03
  2.22567E+04  2.58131E+03  2.43007E+04  1.77366E+04  1.66167E+04  3.70022E+04 -2.95520E+03  4.36757E+04
 -2.46803E+04  3.59652E+04 -4.11753E+04  1.87971E+04 -4.36939E+04 -3.69600E+03 -3.59505E+04 -2.51931E+04
 -1.43620E+04 -3.66286E+04  1.27762E+04 -3.22616E+04  2.72048E+04 -1.51853E+04  2.39003E+04  7.30518E+03
  7.78796E+03  1.88425E+04 -1.21465E+04  1.59661E+04 -1.99402E+04  2.17158E+03 -1.62167E+04 -1.32176E+04
 -4.46505E+00 -1.97323E+04  9.32430E+03 -1.34884E+04  1.34428E+04 -6.28529E+02  3.29760E+03  8.52215E+03
 -8.00146E+03  4.34294E+03 -8.23300E+03 -6.23890E+03 -1.84824E+03 -1.76948E+04  1.16676E+04 -1.96686E+04
  2.27449E+04 -1.09414E+04  2.56177E+04  2.54159E+03  2.16557E+04  1.77203E+04  1.01218E+04  2.80550E+04
 -4.84706E+03  3.06411E+04 -2.01177E+04  1.84431E+04 -2.27262E+04  4.38903E+03 -1.55286E+04 -5.85583E+03
 -6.38823E+03 -7.18064E+03 -9.39703E+02  3.52931E+02 -2.74763E+03  2.66224E+03 -7.43742E+03  5.03052E+03
 -1.40431E+04 -1.24912E+03 -1.39219E+04 -1.24097E+04 -5.96206E+03 -1.80807E+04  5.27211E+03 -1.57120E+04
  1.35784E+04 -5.37192E+03  8.73749E+03  4.60880E+03 -1.24017E+02  6.54289E+03 -7.63842E+03 -2.59134E+02
 -7.24980E+03 -9.72048E+03 -4.48017E+02 -1.47401E+04  8.98570E+03 -1.58445E+04  1.98445E+04 -8.64902E+03
  2.31531E+04  2.53967E+03  1.67008E+04  1.46297E+04  2.92103E+03  1.86223E+04 -9.87676E+03  1.52902E+04
 -1.22599E+04  4.28917E+03 -6.05204E+03 -3.00463E+03  1.95208E+03 -3.84273E+03  8.24542E+03 -1.43985E+03
  7.27917E+03  7.02798E+03  1.30407E+03  1.25310E+04 -8.77804E+03  1.21952E+04 -1.47017E+04  3.39830E+03
 -1.08065E+04 -8.37121E+03  1.36822E+01 -1.31699E+04  9.25295E+03 -6.80672E+03  9.50376E+03  2.78888E+03
  2.32530E+03  1.01033E+04 -7.91852E+03  1.15137E+04 -1.29353E+04  5.77973E+03 -1.34030E+04 -5.10174E+03
 -7.92269E+03 -1.54787E+04  3.47966E+03 -1.79328E+04  1.53463E+04 -1.04524E+04  1.66876E+04  2.94483E+03
  1.05613E+04  1.25946E+04 -1.66862E+03  1.54326E+04 -1.17615E+04  8.17413E+03 -1.23515E+04 -1.85805E+03
 -1.05981E+04 -1.05514E+04 -1.45460E+03 -1.24223E+04  6.57350E+03 -9.84266E+03  6.95990E+03 -4.10000E+03
  4.46839E+03  2.27053E+03 -7.11570E+02  1.60031E+03 -2.36797E+02 -3.46654E+03  2.23334E+03 -7.63917E+03
  1.13951E+04 -4.38075E+03  1.55851E+04  1.90086E+03  1.53712E+04  1.05830E+04  9.40981E+03  2.04840E+04
 -4.94469E+03  2.33594E+04 -2.00800E+04  1.75604E+04 -2.46453E+04  3.57176E+03 -2.02205E+04 -8.67264E+03
 -1.03098E+04 -1.66023E+04 -1.64585E+02 -1.34298E+04  5.92228E+03 -7.96358E+03  5.76600E+03 -5.03481E+03
  4.57367E+03 -2.95414E+03  4.14109E+03 -3.11309E+03  6.35905E+03 -3.58024E+03  7.91769E+03 -1.49850E+03
  1.09472E+04  2.99215E+03  4.82905E+03  9.39122E+03 -2.56000E+03  1.12765E+04 -1.11727E+04  8.49037E+03
 -1.45752E+04 -1.31223E+03 -1.01555E+04 -9.91373E+03 -1.46948E+03 -1.58123E+04  8.80692E+03 -1.51642E+04
  1.59910E+04 -8.80515E+03  1.89967E+04  2.67019E+03  1.28834E+04  1.33850E+04  2.44296E+03  1.72581E+04
 -7.77367E+03  1.36636E+04 -9.78031E+03  5.12812E+03 -6.57916E+03 -1.65977E+03 -2.49253E+03 -2.22784E+03
 -6.76675E+02 -7.06929E+01 -1.88935E+03  2.86131E+03 -5.86357E+03  2.68856E+03 -9.73599E+03 -9.47100E+02
 -6.55396E+03 -9.33610E+03  4.63354E+02 -1.42768E+04  8.71481E+03 -1.34074E+04  1.44182E+04 -3.96520E+03
  1.40008E+04  7.50458E+03  6.56582E+03  1.32879E+04 -2.24811E+03  1.41151E+04 -1.05107E+04  9.10216E+03
 -1.40431E+04  4.45733E+02 -1.01521E+04 -9.75144E+03 -3.74561E+02 -1.14864E+04  6.26722E+03 -8.48374E+03
  9.45986E+03 -2.78153E+03  6.35092E+03  3.35125E+03  2.15455E+03  4.71886E+03  1.14039E+03  1.92811E+03
  2.60506E+03  1.03951E+03  3.83797E+03  2.28750E+03  3.97464E+03  5.29495E+03  3.38408E+03  8.55888E+03
 -3.23331E+03  1.16659E+04 -9.37150E+03  1.10473E+04 -1.49690E+04  2.97715E+03 -1.52164E+04 -6.58438E+03
 -7.86658E+03 -1.49333E+04  2.24121E+03 -1.63840E+04  8.95667E+03 -1.02786E+04  1.10090E+04 -2.38504E+03
  8.93884E+03  5.64478E+03  2.74361E+03  8.95148E+03 -4.21583E+03  6.12471E+03 -5.94043E+03 -8.28281E+02
 -3.10564E+03 -6.94889E+03  2.87170E+03 -5.77214E+03  6.43320E+03 -4.09334E+03  6.03146E+03  1.30655E+03
  3.42026E+03  3.02411E+03  1.82451E+03  2.75354E+03 -4.13460E+02  2.55261E+03  1.45543E+03 -2.17437E+02
  2.79374E+03 -9.65516E+02  5.34972E+03  2.53176E+03  3.59532E+03  8.03119E+03 -1.87747E+03  1.06053E+04
 -7.94618E+03  6.20123E+03 -9.72712E+03  2.45156E+03 -8.16717E+03 -3.69507E+03 -2.90070E+03 -5.11413E+03
  7.54947E+02 -6.81616E+03  4.14515E+03 -2.07115E+03  3.50611E+03  2.65999E+03 -1.69022E+03  5.39449E+03
 -6.17736E+03  3.38259E+03 -7.10988E+03 -3.95662E+03 -3.75159E+03 -8.19829E+03  7.79393E+02 -7.85729E+03
  4.17550E+03 -4.44576E+03  5.90553E+03 -6.85822E+02  5.19804E+03  2.26250E+03  1.60323E+02  4.47028E+03
 -2.92642E+03  1.55194E+03 -3.89878E+03 -3.12789E+03  1.50839E+03 -5.41840E+03  7.49569E+03 -4.96058E+03
  9.61405E+03  3.27221E+02  9.34755E+03  6.19463E+03  2.75387E+03  9.35748E+03 -3.21863E+03  9.07257E+03
 -7.49908E+03  3.86500E+03 -8.39011E+03 -1.33966E+03 -4.68106E+03 -6.05231E+03  1.77508E+03 -6.41910E+03
  5.85753E+03 -2.03057E+03  4.55069E+03  2.73273E+03  1.35722E+03  5.65687E+03 -3.44299E+02  5.17501E+03
 -2.50393E+03  2.63319E+03 -2.78029E+03  5.56931E+02 -1.46234E+03  1.29261E+03 -8.05066E+02  1.78612E+03
 -2.56132E+03  4.68289E+03 -6.62144E+03  4.48725E+03 -1.02057E+04 -1.54460E+02 -1.09623E+04 -5.80785E+03
 -5.71411E+03 -1.36448E+04  2.70958E+03 -1.47865E+04  9.81607E+03 -1.17545E+04  1.41202E+04 -4.44194E+03
  1.28315E+04  3.78605E+03  8.35186E+03  9.36330E+03  7.80869E+02  9.95964E+03 -4.38593E+03  7.81676E+03
 -5.44857E+03  2.67714E+03 -2.80354E+03 -1.30875E+03 -1.18116E+03 -9.97869E+02 -8.31357E+02  1.23921E+02
 -2.05195E+03  8.79017E+02 -2.70014E+03 -5.41289E+02 -5.92013E+02 -2.28701E+03 -1.52125E+02 -3.50657E+03
  4.24346E+03 -3.36557E+03  6.38520E+03 -2.85439E+02  6.02984E+03  5.94784E+03  2.96719E+03  1.08688E+04
 -3.88199E+03  1.14960E+04 -1.06138E+04  7.22506E+03 -1.22720E+04 -1.21035E+03 -8.68259E+03 -7.42003E+03
 -4.11968E+03 -1.03807E+04  2.93264E+03 -9.91592E+03  6.13827E+03 -4.44311E+03  6.77643E+03 -3.98587E+02
  4.53102E+03  2.75462E+03  6.18472E+00  2.49380E+03 -1.96158E+03 -1.61097E+02  2.83755E+02 -2.56890E+03
  3.05128E+03 -1.90253E+03  4.19019E+03  1.18722E+03  2.68432E+03  3.71261E+03  2.94769E+02  4.28768E+03
 -3.94445E+03  4.31410E+03 -6.91842E+03  7.80282E+02 -6.13788E+03 -5.16725E+03 -1.54905E+03 -8.73966E+03
  5.05768E+03 -7.74708E+03  8.31727E+03 -1.85983E+03  7.93479E+03  1.70297E+03  4.38657E+03  5.78045E+03
  8.06132E+02  6.52068E+03 -2.84997E+03  5.84139E+03 -4.34246E+03  2.65785E+03 -3.31002E+03  2.78530E+02
 -2.01198E+03 -4.98485E+02 -2.26563E+03  8.44472E+02 -3.96726E+03  1.18571E+03 -5.28634E+03 -1.11757E+03
 -5.37019E+03 -2.92149E+03 -2.03303E+03 -6.31284E+03  3.11051E+03 -7.11296E+03  5.86555E+03 -3.68628E+03
  6.70826E+03  1.49082E+03  3.55716E+03  4.55885E+03 -5.25150E+02  6.89368E+03 -5.48270E+03  4.32486E+03
