 $NMID ID='MM_0lb_SNR400_19hz_g55_28.RAW', FMTDAT='(8E13.5)'
 TRAMP=1., VOLUME=1. $END
  3.09950E+05  5.73231E+02  3.36842E+05  2.50477E+05  8.44107E+04  3.37402E+05 -1.32263E+05  2.50442E+05
 -1.89640E+05  8.30448E+04 -1.11653E+05 -3.29115E+04  1.15802E+03 -5.04636E+04  5.41195E+04 -1.22865E+02
  3.45443E+04  5.33393E+04 -1.68981E+04  7.50766E+04 -6.03830E+04  6.28348E+04 -8.34124E+04  3.17330E+04
 -8.07811E+04 -1.16610E+04 -5.65589E+04 -5.06923E+04 -1.49895E+04 -6.87839E+04  2.71082E+04 -4.50771E+04
  3.94303E+04  4.26190E+03  1.56647E+04  4.70884E+04 -3.48953E+04  4.62889E+04 -6.60238E+04 -9.68425E+02
 -5.23011E+04 -5.63107E+04 -6.57665E+03 -7.60127E+04  3.37361E+04 -5.43728E+04  4.64833E+04 -1.66931E+04
  4.22403E+04  1.13034E+04  3.12915E+04  2.50359E+04  1.58304E+04  2.84990E+04 -5.01190E+03  2.71555E+04
 -2.12407E+04  1.27725E+04 -1.85982E+04 -4.24620E+03  4.20791E+03 -7.62624E+03  2.10962E+04  1.14460E+04
  7.38292E+03  3.39374E+04 -3.08451E+04  3.40349E+04 -6.14831E+04  1.73571E+03 -5.56522E+04 -4.21310E+04
 -1.19962E+04 -6.14356E+04  3.93435E+04 -4.38851E+04  5.59089E+04 -1.51300E+03  3.22419E+04  3.11354E+04
 -6.63292E+03  3.38077E+04 -2.91433E+04  1.42258E+04 -2.80972E+04 -5.29801E+03 -1.48834E+04 -1.05176E+04
 -6.74609E+03 -1.21571E+04 -8.02427E+02 -1.67538E+04  7.24285E+03 -2.22474E+04  1.50486E+04 -1.38940E+04
  1.18121E+04  4.43193E+03 -6.98180E+03  1.31874E+04 -1.97948E+04 -2.59240E+03 -8.04789E+03 -3.09885E+04
  2.16711E+04 -4.12408E+04  4.50808E+04 -1.88417E+04  4.20505E+04  1.83327E+04  1.43454E+04  4.20876E+04
 -1.53586E+04  3.14544E+04 -2.36474E+04  1.30807E+03 -8.65782E+03 -2.68027E+04  2.02083E+04 -3.18126E+04
  3.88902E+04 -8.15341E+03  3.21051E+04  2.31475E+04  1.60825E+04  4.33322E+04 -8.04327E+03  4.61255E+04
 -2.88391E+04  2.99463E+04 -3.83597E+04  8.19749E+03 -3.91553E+04 -1.54455E+04 -2.17088E+04 -3.51182E+04
  7.29944E+03 -3.49385E+04  2.88806E+04 -1.30204E+04  2.73138E+04  1.08937E+04  2.93182E+03  1.74789E+04
 -1.35903E+04  7.31594E+03 -9.69177E+03 -7.62014E+03  6.16791E+03 -1.06690E+04  1.77291E+04  6.45563E+03
  1.24686E+04  2.21526E+04 -5.89107E+03  2.39852E+04 -2.16454E+04  9.53842E+03 -2.52511E+04 -6.16393E+03
 -1.75055E+04 -1.65285E+04 -6.42999E+03 -1.75762E+04  4.46197E+03 -1.59892E+04  1.29924E+04 -1.42112E+04
  2.16167E+04 -1.17282E+04  2.90745E+04  1.68557E+03  2.17617E+04  1.69174E+04  4.11333E+03  3.33291E+04
 -1.63642E+04  2.87189E+04 -2.59032E+04  9.90696E+03 -2.00371E+04 -1.00063E+04 -4.64625E+03 -1.44810E+04
  2.19135E+03 -4.31188E+03 -2.61192E+03  5.64970E+03 -1.30290E+04  5.02740E+03 -1.34727E+04 -5.18835E+03
 -8.95909E+03 -1.63084E+04  4.48110E+03 -1.95553E+04  1.28966E+04 -1.41300E+04  1.50490E+04 -1.49069E+03
  9.41547E+03  1.13186E+04 -1.34272E+03  1.64946E+04 -1.07015E+04  8.30340E+03 -1.61892E+04 -3.77999E+03
 -1.20077E+04 -1.50510E+04 -1.37868E+03 -1.94369E+04  8.94232E+03 -1.58986E+04  1.64707E+04 -7.79523E+03
  1.51446E+04  3.20619E+02  9.72874E+03  3.84472E+03  4.95590E+03  3.92967E+02  8.07458E+03 -1.26735E+03
  1.41592E+04  2.21812E+03  1.54773E+04  1.32203E+04  9.56894E+03  2.51471E+04 -3.07317E+03  2.70521E+04
 -1.60779E+04  2.02302E+04 -2.53394E+04  9.89616E+03 -2.54737E+04 -1.70740E+03 -2.19487E+04 -1.43964E+04
 -1.06467E+04 -2.15758E+04  7.36770E+03 -1.99052E+04  1.64177E+04 -1.12961E+04  1.58594E+04  4.18335E+03
  6.57076E+03  1.08075E+04 -7.62678E+03  1.04033E+04 -1.38827E+04  2.91741E+03 -1.07592E+04 -8.30762E+03
 -2.72890E+02 -1.23705E+04  6.65279E+03 -9.54121E+03  8.14982E+03 -1.89939E+03  1.44714E+03  4.85910E+03
 -5.70442E+03  1.84816E+03 -4.08104E+03 -4.69585E+03  8.56986E+02 -1.05366E+04  7.99900E+03 -1.03542E+04
  1.28756E+04 -5.33512E+03  1.21249E+04  2.90197E+03  1.05066E+04  9.51859E+03  5.22269E+03  1.49737E+04
 -2.13971E+03  1.63121E+04 -9.90434E+03  1.06219E+04 -1.15636E+04  3.61037E+03 -8.25713E+03 -1.96942E+03
 -4.40143E+03 -3.11214E+03 -1.09620E+03  1.30276E+03 -2.05747E+03  1.74512E+03 -4.06997E+03  3.35722E+03
 -7.60638E+03  1.73887E+02 -8.96494E+03 -7.81745E+03 -3.70065E+03 -1.17626E+04  3.37069E+03 -8.63906E+03
  7.17532E+03 -3.66689E+03  4.96859E+03  1.79184E+03  3.69334E+02  3.57160E+03 -3.25520E+03 -8.22529E+01
 -3.72744E+03 -5.32238E+03 -7.34325E+02 -7.37210E+03  4.01784E+03 -8.14815E+03  1.00665E+04 -3.95603E+03
  1.16739E+04  9.08682E+02  8.71847E+03  6.29405E+03  1.77169E+03  8.14385E+03 -5.28031E+03  8.24075E+03
 -7.08374E+03  2.84147E+03 -3.60530E+03 -1.92147E+03  1.55918E+03 -1.91422E+03  4.90005E+03 -7.96694E+02
  4.10381E+03  3.44226E+03  7.76013E+02  6.26661E+03 -4.34073E+03  6.18695E+03 -8.26719E+03  1.40229E+03
 -4.87921E+03 -3.81253E+03 -4.12968E+01 -7.20233E+03  3.97505E+03 -3.69281E+03  3.49124E+03  1.00820E+03
  3.41849E+02  3.10041E+03 -4.41260E+03  4.87294E+03 -4.53852E+03  2.62453E+03 -4.33657E+03 -1.12131E+03
 -2.70548E+03 -5.67160E+03  1.11174E+03 -6.74135E+03  5.89803E+03 -3.96320E+03  6.66495E+03  8.79344E+02
  4.71032E+03  5.35740E+03  4.12691E+02  7.18466E+03 -4.96774E+03  4.06063E+03 -4.59515E+03 -7.59250E+02
 -5.73269E+03 -5.33332E+03 -9.52414E+02 -4.57490E+03  2.35458E+03 -4.56552E+03  2.85446E+03 -3.38880E+03
  2.53449E+03  5.95333E+02  2.05837E+02  1.27712E+03  4.46726E+02  4.75921E+01  1.27888E+02 -1.30261E+03
  3.84058E+03 -2.70545E+02  4.97893E+03  1.06676E+03  5.31748E+03  2.92432E+03  5.40085E+03  7.16769E+03
 -1.33733E+03  8.62397E+03 -7.46355E+03  6.69757E+03 -9.98737E+03  6.19700E+02 -7.86339E+03 -1.80050E+03
 -4.05826E+03 -6.50443E+03 -4.72247E+02 -5.10210E+03  2.19293E+03 -2.67751E+03  2.08632E+03 -2.35455E+03
  1.55957E+03 -1.43628E+03  1.94555E+03 -2.35793E+03  4.04186E+03 -1.25258E+03  3.47386E+03 -6.16968E+01
  4.36056E+03  1.21200E+03  1.51509E+03  3.27041E+03 -1.35768E+03  2.79690E+03 -4.48263E+03  2.96202E+03
 -5.18788E+03 -1.29835E+03 -1.57452E+03 -2.79772E+03  1.14190E+03 -4.98520E+03  3.27039E+03 -4.73621E+03
  5.40607E+03 -3.47332E+03  7.38655E+03  2.61463E+02  4.45900E+03  3.97610E+03  8.33477E+02  6.18753E+03
 -1.88148E+03  5.73771E+03 -2.75647E+03  1.40136E+03 -1.73790E+03 -1.32118E+03 -4.91317E+02 -8.32517E+02
 -3.08704E+02  1.36806E+02 -1.01742E+03  2.55081E+03 -2.57606E+03  1.46067E+03 -3.62995E+03 -1.97047E+02
 -1.39442E+03 -4.07861E+03  1.01547E+03 -4.78619E+03  2.74943E+03 -4.38642E+03  2.94639E+03 -1.09091E+03
  4.15116E+03  2.09388E+03  1.89547E+03  3.16140E+03 -1.24193E+03  4.03412E+03 -2.61894E+03  2.71122E+03
 -4.31606E+03  8.65035E+02 -3.28770E+03 -2.36025E+03 -2.86488E+02 -3.10352E+03  1.91101E+03 -1.87272E+03
  2.29860E+03 -1.13645E+03  1.72384E+03  1.30095E+02  1.26960E+03  1.22797E+03  8.46700E+02  9.81136E+02
  1.54335E+03  7.04145E+02  1.65356E+03  1.43756E+03  1.20424E+03  2.03389E+03  1.52076E+03  2.08852E+03
 -8.34038E+02  2.99890E+03 -2.44772E+03  3.89762E+03 -2.74227E+03  1.82714E+03 -3.77465E+03 -3.75269E+02
 -1.87772E+03 -3.15127E+03  1.19246E+03 -4.34677E+03  1.53600E+03 -1.78987E+03  3.11551E+03 -5.83240E+02
  2.59040E+03  1.67747E+03 -1.22898E+02  1.98615E+03 -2.55405E+02  1.37412E+03 -4.64950E+02 -3.87250E+02
 -9.41172E+02 -7.04943E+02  1.66982E+03 -1.49590E+03  1.20796E+03 -1.48945E+03  1.55300E+03  1.46247E+02
  7.19903E+02 -1.78996E+02  9.18142E+02 -1.31322E+02 -4.67792E+02  3.43849E+02  1.95253E+03  1.50511E+02
  1.03939E+02  1.12422E+01  2.15631E+03  3.07906E+02  2.78107E+02  1.75316E+03  4.16270E+02  2.98261E+03
 -1.46643E+03  3.84651E+02 -2.25371E+03  3.04778E+02 -1.86346E+03 -7.03986E+02  9.77099E+01 -1.47946E+03
  1.01396E+03 -1.31513E+03  7.30600E+02 -6.04294E+02  2.89792E+01  1.02111E+03 -4.96621E+02  7.28860E+02
 -1.23453E+03  9.60329E+02 -1.52568E+03 -1.30753E+03 -6.68538E+02 -1.99641E+03 -1.95339E+02 -1.74158E+03
  3.77047E+02 -2.67842E+02  6.00496E+02 -1.29357E+02  1.40504E+03  1.50397E+02  1.90312E+02  1.47320E+03
 -1.89565E+02 -3.89854E+02 -1.32077E+03  4.87146E+01  1.04595E+03 -7.24620E+02  1.15658E+03 -1.30857E+03
  6.28944E+02 -5.70084E+02  2.54436E+03  6.01017E+02  3.76527E+02  1.56699E+03 -9.72393E+01  1.74498E+03
 -1.09587E+03  3.19579E+02 -9.32032E+02 -9.01481E+02 -6.02136E+02 -1.34799E+03  5.36991E+02 -7.80688E+02
  1.07506E+03 -5.69734E+02  1.54895E+02  7.58811E+02 -4.05250E+01  1.13978E+03  3.39197E+01  9.10950E+02
 -5.29923E+02  8.56791E+02 -7.52494E+02 -2.44474E+02 -2.77155E+02 -1.83376E+02 -1.02886E+03  9.11255E+02
 -6.44575E+02  9.10227E+02 -1.80809E+03 -2.74893E+02 -1.52145E+03  4.63665E+02 -2.34206E+03 -9.95847E+02
 -7.58256E+02 -2.00395E+03  7.33288E+02 -2.58288E+03  9.93714E+02 -1.87795E+03  2.35169E+03 -1.26251E+03
  1.45351E+03 -7.50549E+01  8.54282E+02  1.35408E+03 -5.89339E+02  8.16166E+02 -9.53054E+02  1.58491E+03
 -6.11355E+02  1.42903E+03 -5.01605E+02  6.88469E+01 -3.85751E+02  4.96733E+02 -1.21490E+03  3.53011E+02
 -9.42796E+02  3.29190E+00 -8.97440E+02  1.45982E+02  7.07286E+02 -4.70138E+02 -8.39735E+02 -6.52255E+02
  1.24582E+03 -1.86880E+02  7.55162E+02 -2.50539E+02  8.48972E+02  1.30016E+03 -2.34229E+02  1.27839E+03
 -7.62474E+02  1.95064E+03 -4.55775E+02  1.33814E+03 -1.40056E+03 -2.55721E+02 -9.13423E+02 -5.62849E+02
 -2.99574E+02 -7.39591E+02  8.94119E+01 -5.15727E+02  8.99584E+02 -6.34988E+02  2.96029E+02 -2.22714E+01
  1.00319E+03  1.26297E+02 -5.94067E+02  5.19717E+02 -3.59482E+02  6.62697E+01 -2.17386E+01 -5.34934E+02
  8.87099E+02  8.02779E+02  6.52810E+02  6.47231E+02  2.66171E+02  4.67980E+02  9.94562E+02 -1.41798E+02
 -8.39401E+02  2.73786E+02 -3.79208E+02  8.69545E+01 -5.87650E+02 -1.29256E+02 -1.90889E+02 -1.03929E+03
  1.86678E+02 -6.31948E+02  3.30223E+02  9.65557E+01  1.07647E+03 -3.74483E+02  5.86584E+02  8.06906E+02
  6.10005E+02  4.72521E+01 -3.81349E+02  5.10044E+02 -7.65322E+02  6.59282E+02 -5.00658E+02 -8.63994E+01
  5.00928E+00  1.75186E+02 -6.14505E+02  4.15307E+02 -1.15276E+03 -9.73338E+01  1.67283E+01  6.21915E+01
 -1.14550E+03  1.03446E+02 -4.12746E+02 -7.17761E+02  7.87449E+02 -1.17548E+03  9.38038E+02 -1.86129E+02
  1.86432E+02  2.54247E+01 -2.21679E+02 -3.96442E+02 -1.58034E+02  6.41066E+02 -5.70619E+02  6.07338E+02
