 $NMID ID='MM_0lb_SNR400_13hz_g45_14.RAW', FMTDAT='(8E13.5)'
 TRAMP=1., VOLUME=1. $END
  3.09793E+05  2.35319E+02  3.37624E+05  2.50676E+05  8.45469E+04  3.37926E+05 -1.32973E+05  2.51458E+05
 -1.90457E+05  8.30638E+04 -1.12206E+05 -3.28082E+04  8.78149E+02 -5.03311E+04  5.34055E+04 -1.61907E+01
  3.57690E+04  5.32988E+04 -1.59937E+04  7.53887E+04 -6.01665E+04  6.36725E+04 -8.36714E+04  3.22922E+04
 -8.08317E+04 -1.13553E+04 -5.76122E+04 -5.12414E+04 -1.51174E+04 -6.98533E+04  2.73384E+04 -4.59957E+04
  4.01929E+04  3.96473E+03  1.56703E+04  4.82673E+04 -3.44144E+04  4.70503E+04 -6.71472E+04 -2.17434E+02
 -5.36739E+04 -5.72824E+04 -7.09341E+03 -7.77746E+04  3.39009E+04 -5.50771E+04  4.81953E+04 -1.80746E+04
  4.38309E+04  1.15361E+04  3.22456E+04  2.57818E+04  1.62197E+04  2.92132E+04 -5.28236E+03  2.74252E+04
 -2.17562E+04  1.24998E+04 -1.86249E+04 -4.65551E+03  6.30368E+03 -7.01632E+03  2.27615E+04  1.21435E+04
  6.82619E+03  3.53589E+04 -3.22767E+04  3.57024E+04 -6.45268E+04  1.89649E+03 -5.71684E+04 -4.28243E+04
 -1.23391E+04 -6.35261E+04  4.01296E+04 -4.55130E+04  5.82638E+04 -1.96705E+03  3.40797E+04  3.23360E+04
 -6.08831E+03  3.65583E+04 -3.00993E+04  1.59262E+04 -3.01720E+04 -4.65426E+03 -1.67563E+04 -1.05522E+04
 -8.92372E+03 -1.35178E+04 -9.69880E+02 -1.75973E+04  7.54345E+03 -2.33818E+04  1.53996E+04 -1.32776E+04
  1.15258E+04  5.65756E+03 -8.39621E+03  1.29476E+04 -2.14755E+04 -4.31759E+03 -8.50533E+03 -3.40552E+04
  2.34526E+04 -4.44580E+04  4.80732E+04 -2.03020E+04  4.53575E+04  2.00505E+04  1.56545E+04  4.43818E+04
 -1.58873E+04  3.39305E+04 -2.49782E+04  2.37807E+03 -9.99170E+03 -2.84564E+04  2.05766E+04 -3.37533E+04
  4.16105E+04 -9.18085E+03  3.62032E+04  2.38404E+04  1.90046E+04  4.66130E+04 -7.88422E+03  5.11488E+04
 -3.16332E+04  3.39689E+04 -4.25387E+04  1.00669E+04 -4.26846E+04 -1.69121E+04 -2.32873E+04 -3.81566E+04
  7.81763E+03 -3.82841E+04  3.19276E+04 -1.50662E+04  2.99042E+04  1.04362E+04  3.74273E+03  1.90675E+04
 -1.38996E+04  8.48279E+03 -1.08897E+04 -7.19314E+03  5.72926E+03 -1.10981E+04  1.85329E+04  5.47500E+03
  1.36243E+04  2.22301E+04 -5.77509E+03  2.50769E+04 -2.25647E+04  1.18608E+04 -2.85726E+04 -4.90119E+03
 -2.09174E+04 -1.68193E+04 -8.90096E+03 -2.11566E+04  4.08301E+03 -2.04345E+04  1.59491E+04 -1.81022E+04
  2.67998E+04 -1.25364E+04  3.32481E+04  3.30734E+03  2.43123E+04  2.05266E+04  3.45149E+03  3.66316E+04
 -1.77131E+04  3.05040E+04 -2.85669E+04  1.07517E+04 -2.13718E+04 -1.01488E+04 -4.27285E+03 -1.32283E+04
  1.89298E+03 -2.54258E+03 -5.38720E+03  6.45122E+03 -1.72052E+04  4.98337E+03 -1.65763E+04 -8.02880E+03
 -1.06282E+04 -1.93604E+04  5.20952E+03 -2.39195E+04  1.54873E+04 -1.67319E+04  1.85203E+04 -1.35157E+03
  1.18893E+04  1.31241E+04 -9.01200E+02  1.94488E+04 -1.35271E+04  1.09103E+04 -1.94116E+04 -3.98754E+03
 -1.48779E+04 -1.74045E+04 -1.95128E+03 -2.30175E+04  1.02546E+04 -1.92974E+04  2.00309E+04 -1.02339E+04
  1.82046E+04  7.20447E+02  1.37571E+04  4.05547E+03  6.67413E+03  8.86018E+02  1.01500E+04 -1.85646E+03
  1.83742E+04  2.69620E+03  1.95039E+04  1.57887E+04  1.27401E+04  3.09684E+04 -2.56150E+03  3.47696E+04
 -2.04041E+04  2.84822E+04 -3.32966E+04  1.44296E+04 -3.45495E+04 -2.54805E+03 -2.93597E+04 -2.05530E+04
 -1.21270E+04 -2.89923E+04  1.05225E+04 -2.51388E+04  2.21683E+04 -1.37352E+04  1.90503E+04  5.66533E+03
  7.24578E+03  1.48992E+04 -9.24417E+03  1.29223E+04 -1.63814E+04  3.05146E+03 -1.23321E+04 -1.04750E+04
 -1.03655E+02 -1.57939E+04  7.90536E+03 -1.12294E+04  9.95331E+03 -1.10313E+03  2.33614E+03  7.27183E+03
 -7.00772E+03  2.78904E+03 -6.83829E+03 -6.01344E+03 -3.89538E+02 -1.41303E+04  9.85849E+03 -1.48848E+04
  1.76335E+04 -7.20015E+03  1.86914E+04  3.14053E+03  1.63131E+04  1.31133E+04  8.53266E+03  2.06697E+04
 -2.50974E+03  2.30883E+04 -1.48466E+04  1.43745E+04 -1.68321E+04  3.84485E+03 -1.18592E+04 -3.83137E+03
 -5.01291E+03 -4.83264E+03 -1.27669E+03  6.96774E+02 -2.90613E+03  2.76321E+03 -5.39320E+03  4.51512E+03
 -1.11053E+04 -7.70817E+02 -1.13160E+04 -9.01399E+03 -4.44492E+03 -1.55567E+04  4.67322E+03 -1.16201E+04
  9.35733E+03 -5.16886E+03  7.01376E+03  3.06724E+03 -4.09652E+01  4.84941E+03 -5.87534E+03 -1.05473E+02
 -5.75492E+03 -7.40598E+03 -5.57141E+02 -1.08755E+04  6.69433E+03 -1.17771E+04  1.45506E+04 -6.16180E+03
  1.72190E+04  1.31119E+03  1.25985E+04  1.00663E+04  2.11236E+03  1.38885E+04 -7.53079E+03  1.20389E+04
 -9.68686E+03  3.87868E+03 -5.50370E+03 -2.48615E+03  2.07929E+03 -3.54220E+03  6.27607E+03 -8.35021E+02
  6.26984E+03  4.99555E+03  7.02373E+02  9.21184E+03 -6.08771E+03  8.95221E+03 -1.11227E+04  2.31083E+03
 -7.60136E+03 -5.85242E+03  7.61607E+02 -1.01314E+04  5.74576E+03 -5.46611E+03  5.56079E+03  1.56534E+03
  1.08490E+03  5.90717E+03 -5.96820E+03  7.88606E+03 -8.57379E+03  3.56419E+03 -9.07053E+03 -2.66818E+03
 -5.72618E+03 -1.10438E+04  2.12543E+03 -1.18242E+04  1.00469E+04 -7.80225E+03  1.11493E+04  1.55452E+03
  7.33511E+03  8.82887E+03 -5.90168E+02  1.15880E+04 -7.75691E+03  6.64787E+03 -9.00177E+03 -1.23990E+03
 -8.54725E+03 -8.00706E+03 -1.94177E+03 -7.33093E+03  4.15259E+03 -6.82513E+03  5.08072E+03 -2.62524E+03
  3.74115E+03  1.02812E+03 -6.59150E+02  1.57579E+03  7.66281E+01 -1.45882E+03  1.55147E+03 -4.42250E+03
  7.01102E+03 -3.05056E+03  9.70661E+03  1.07802E+03  9.45594E+03  6.66155E+03  6.75729E+03  1.37970E+04
 -2.45370E+03  1.59480E+04 -1.28645E+04  1.17942E+04 -1.66210E+04  2.41355E+03 -1.37423E+04 -5.50444E+03
 -7.19284E+03 -1.13588E+04 -5.18547E+02 -8.80314E+03  2.96255E+03 -4.93108E+03  3.93902E+03 -3.50318E+03
  1.92817E+03 -2.48209E+03  3.45693E+03 -2.41334E+03  5.03328E+03 -1.70632E+03  5.78740E+03 -6.56725E+02
  7.38674E+03  1.98777E+03  3.16748E+03  6.04530E+03 -1.40604E+03  5.95413E+03 -7.60231E+03  5.50854E+03
 -9.30917E+03 -1.84139E+03 -4.92328E+03 -6.38633E+03 -4.21744E+02 -9.56088E+03  5.43215E+03 -9.85457E+03
  9.75710E+03 -6.14949E+03  1.27485E+04  1.31307E+03  9.24501E+03  8.46004E+03  1.62825E+03  1.06873E+04
 -4.28674E+03  9.60144E+03 -6.29909E+03  3.11209E+03 -3.92607E+03 -6.64204E+02 -1.60904E+03 -1.80087E+03
 -1.04788E+03 -1.16091E+02 -1.10227E+03  2.00612E+03 -4.09354E+03  1.95897E+03 -6.52721E+03 -1.10318E+03
 -4.16615E+03 -6.53728E+03  9.23882E+02 -9.22874E+03  5.64898E+03 -7.86846E+03  8.18976E+03 -2.19581E+03
  8.32768E+03  4.27739E+03  3.99703E+03  7.99310E+03 -1.05948E+03  9.35505E+03 -6.05690E+03  5.40625E+03
 -7.99404E+03  5.75996E+02 -6.09655E+03 -5.09514E+03 -1.01680E+03 -6.43168E+03  3.99338E+03 -5.18976E+03
  5.65975E+03 -1.36884E+03  3.88887E+03  9.87591E+02  1.51744E+03  2.74713E+03  1.56308E+03  8.87733E+02
  1.99685E+03  1.15121E+03  1.76152E+03  7.92783E+02  2.66515E+03  3.11076E+03  2.35191E+03  4.79114E+03
 -2.24477E+03  6.64436E+03 -6.23681E+03  7.20666E+03 -8.00142E+03  1.77543E+03 -9.34855E+03 -2.88167E+03
 -4.14358E+03 -8.20768E+03  1.79863E+03 -9.48774E+03  5.28262E+03 -5.95473E+03  7.12872E+03 -2.02187E+03
  5.88922E+03  3.36111E+03  1.30294E+03  5.23761E+03 -2.79596E+03  2.97298E+03 -3.49397E+03 -8.96601E+02
 -9.90416E+02 -3.53390E+03  1.70490E+03 -3.57915E+03  3.27759E+03 -1.57949E+03  3.34028E+03  1.38136E+03
  2.20745E+03  1.24192E+03  4.32153E+02  7.73564E+02 -5.37327E+02  1.25449E+03  1.84094E+03  5.70093E+01
  5.10103E+02 -1.20107E+03  3.03577E+03  1.85151E+03  2.11632E+03  4.80794E+03 -1.13523E+03  5.72028E+03
 -3.85695E+03  2.85292E+03 -5.33211E+03  1.40924E+03 -4.43817E+03 -2.26587E+03 -1.25453E+03 -3.73648E+03
 -1.92090E+02 -3.27035E+03  2.93004E+03 -1.76796E+03  1.43180E+03  1.63742E+03 -1.32772E+03  2.31995E+03
 -3.09222E+03  2.66882E+03 -3.60539E+03 -2.13053E+03 -2.36859E+03 -4.79293E+03  4.96991E+02 -4.51000E+03
  2.38211E+03 -2.86033E+03  2.47039E+03 -3.07338E+02  2.69240E+03  1.15641E+03  6.48443E+02  2.09266E+03
 -1.04390E+03  2.12694E+02 -1.81018E+03 -1.49531E+03  9.99332E+02 -3.04027E+03  4.29909E+03 -2.92960E+03
  4.68014E+03  1.24439E+02  4.90634E+03  3.52119E+03  1.12836E+03  5.28699E+03 -1.41802E+03  4.73420E+03
 -4.05938E+03  2.06780E+03 -3.71462E+03 -8.69755E+02 -2.38102E+03 -3.33534E+03  2.68034E+02 -3.02035E+03
  3.38889E+03 -1.80966E+03  2.40503E+03  1.85345E+03  3.95246E+02  3.26418E+03  6.13633E+01  2.47080E+03
 -1.44453E+03  2.31223E+03 -7.86648E+02  3.22862E+02 -7.53543E+02  8.93086E+02 -6.56866E+02  8.55648E+02
 -1.57790E+03  2.54121E+03 -3.95594E+03  1.58540E+03 -4.81349E+03  9.36289E+01 -6.25881E+03 -3.56408E+03
 -2.87557E+03 -6.15314E+03  1.02909E+03 -7.99398E+03  3.57135E+03 -6.04316E+03  7.07655E+03 -2.59453E+03
  6.65639E+03  6.98404E+02  3.80528E+03  4.54400E+03 -4.29563E+02  5.11185E+03 -2.73980E+03  3.84029E+03
 -3.18270E+03  1.31216E+03 -1.51532E+03 -4.47755E+02 -1.01575E+03 -7.81624E+02 -2.20744E+02 -3.84565E+01
 -1.02790E+03  8.40798E+02 -1.24187E+03 -9.82876E+01  4.94208E+02 -1.74817E+03 -2.04110E+02 -2.36217E+03
  2.01424E+03 -8.71455E+02  2.57688E+03 -5.71470E+02  2.76802E+03  2.54767E+03 -9.51949E+01  4.66203E+03
 -2.23556E+03  5.60488E+03 -5.28903E+03  3.37083E+03 -5.26127E+03  2.17405E+01 -4.52013E+03 -4.16762E+03
 -1.81874E+03 -4.73908E+03  1.28174E+03 -3.47222E+03  2.56685E+03 -2.13129E+03  2.41513E+03  2.84674E+02
  1.65641E+03  1.56653E+03 -5.78042E+02  1.11240E+03 -2.60219E+02 -2.75033E+02  2.12214E+02 -9.30580E+02
  8.97811E+02 -6.92672E+02  1.52482E+03  1.52077E+03  5.18167E+02  1.97491E+03 -6.15776E+01  2.38202E+03
 -1.75077E+03  1.86315E+03 -3.23826E+03 -5.31379E+02 -2.55131E+03 -2.59881E+03 -1.74290E+02 -3.81368E+03
  2.07959E+03 -3.21853E+03  3.08226E+03 -7.52583E+02  3.61485E+03  7.36476E+02  1.80731E+03  3.12060E+03
  1.74237E+02  2.78180E+03 -8.12364E+02  2.18288E+03 -2.13215E+03  1.50635E+03 -1.73519E+03  8.71509E+02
 -1.00862E+03 -3.30486E+02 -8.91542E+02  5.52476E+01 -1.36863E+03  1.37826E+02 -2.91670E+03 -1.05336E+03
 -2.72312E+03 -8.72361E+02 -2.89550E+02 -3.82424E+03  1.67599E+03 -3.47628E+03  2.85532E+03 -1.58729E+03
  2.45339E+03 -5.54021E+02  1.21777E+03  1.63716E+03 -4.47902E+02  2.84921E+03 -2.16803E+03  1.85989E+03
