 $NMID ID='MM_0lb_SNR400_14hz_g45_90.RAW', FMTDAT='(8E13.5)'
 TRAMP=1., VOLUME=1. $END
  3.09568E+05  4.39536E+02  3.37394E+05  2.50786E+05  8.43846E+04  3.37776E+05 -1.32599E+05  2.50725E+05
 -1.90282E+05  8.24511E+04 -1.11858E+05 -3.30959E+04  1.57148E+03 -5.02258E+04  5.35932E+04  2.41623E+02
  3.56430E+04  5.38223E+04 -1.77389E+04  7.52946E+04 -6.09812E+04  6.33849E+04 -8.41275E+04  3.16653E+04
 -8.06236E+04 -1.22758E+04 -5.70734E+04 -5.10649E+04 -1.53877E+04 -6.94044E+04  2.71786E+04 -4.56655E+04
  4.00135E+04  4.17770E+03  1.59644E+04  4.83968E+04 -3.48963E+04  4.73820E+04 -6.63568E+04 -1.62051E+02
 -5.36742E+04 -5.64885E+04 -6.32042E+03 -7.74223E+04  3.39515E+04 -5.52987E+04  4.80409E+04 -1.78224E+04
  4.32292E+04  1.12997E+04  3.17563E+04  2.48387E+04  1.54228E+04  2.89685E+04 -4.89110E+03  2.75723E+04
 -2.17242E+04  1.21480E+04 -1.88026E+04 -5.42135E+03  5.70716E+03 -6.94249E+03  2.26559E+04  1.20195E+04
  6.48437E+03  3.46819E+04 -3.20352E+04  3.50528E+04 -6.27440E+04  1.96007E+03 -5.64457E+04 -4.24487E+04
 -1.25268E+04 -6.30071E+04  3.98520E+04 -4.53086E+04  5.79568E+04 -2.29634E+03  3.37966E+04  3.19975E+04
 -6.12759E+03  3.60728E+04 -3.00566E+04  1.62521E+04 -3.02207E+04 -4.76193E+03 -1.64478E+04 -1.08727E+04
 -7.93058E+03 -1.28102E+04 -1.54844E+03 -1.77282E+04  7.25013E+03 -2.33328E+04  1.53858E+04 -1.32830E+04
  1.14094E+04  5.37352E+03 -7.57387E+03  1.27445E+04 -2.12898E+04 -4.13559E+03 -8.40960E+03 -3.33895E+04
  2.25937E+04 -4.33406E+04  4.72265E+04 -1.93300E+04  4.51850E+04  1.97420E+04  1.56314E+04  4.36627E+04
 -1.58099E+04  3.27760E+04 -2.47866E+04  2.14621E+03 -9.74950E+03 -2.70300E+04  2.09941E+04 -3.32552E+04
  4.07772E+04 -8.52070E+03  3.48942E+04  2.36381E+04  1.78470E+04  4.53747E+04 -8.49811E+03  4.96957E+04
 -3.13305E+04  3.30960E+04 -4.13168E+04  9.46444E+03 -4.18984E+04 -1.64703E+04 -2.28606E+04 -3.84135E+04
  7.70781E+03 -3.74451E+04  3.08540E+04 -1.46920E+04  2.90652E+04  1.08515E+04  3.61145E+03  1.89668E+04
 -1.37541E+04  8.61793E+03 -1.02242E+04 -7.42357E+03  5.53038E+03 -1.06477E+04  1.75851E+04  6.46454E+03
  1.32344E+04  2.22796E+04 -6.49263E+03  2.48250E+04 -2.23671E+04  1.12986E+04 -2.81090E+04 -4.59372E+03
 -1.99570E+04 -1.72126E+04 -7.73996E+03 -1.98978E+04  4.42896E+03 -1.95908E+04  1.50394E+04 -1.78247E+04
  2.54984E+04 -1.27330E+04  3.18107E+04  2.82082E+03  2.40019E+04  1.95566E+04  3.73807E+03  3.53393E+04
 -1.83150E+04  2.97144E+04 -2.73852E+04  9.89649E+03 -2.04645E+04 -1.03275E+04 -4.22671E+03 -1.28885E+04
  1.35532E+03 -2.50873E+03 -4.42432E+03  6.46446E+03 -1.56368E+04  4.83701E+03 -1.64847E+04 -6.40785E+03
 -1.00239E+04 -1.88139E+04  5.23169E+03 -2.22380E+04  1.55282E+04 -1.65789E+04  1.81137E+04 -1.96409E+03
  1.15367E+04  1.29398E+04 -1.74536E+03  1.84404E+04 -1.25654E+04  1.07228E+04 -1.89373E+04 -4.00652E+03
 -1.35773E+04 -1.69458E+04 -2.12528E+03 -2.22794E+04  1.02905E+04 -1.80648E+04  1.89166E+04 -8.47838E+03
  1.72070E+04  5.78173E+02  1.20142E+04  4.17331E+03  6.72376E+03  6.34952E+02  9.19399E+03 -2.36442E+03
  1.68826E+04  3.15648E+03  1.90011E+04  1.46139E+04  1.20845E+04  2.97991E+04 -2.54843E+03  3.30532E+04
 -1.96460E+04  2.69098E+04 -3.10294E+04  1.27946E+04 -3.26072E+04 -2.28877E+03 -2.68197E+04 -1.90032E+04
 -1.22990E+04 -2.74738E+04  9.15290E+03 -2.41912E+04  2.08283E+04 -1.22718E+04  1.88503E+04  5.73250E+03
  7.17606E+03  1.45586E+04 -8.25466E+03  1.20804E+04 -1.59115E+04  2.91292E+03 -1.23358E+04 -9.93837E+03
 -1.58172E+02 -1.55336E+04  7.48481E+03 -1.10006E+04  9.75549E+03 -1.36679E+03  2.23764E+03  6.57100E+03
 -6.62926E+03  3.01929E+03 -6.14539E+03 -5.46235E+03 -6.28300E+02 -1.27583E+04  9.06461E+03 -1.34950E+04
  1.69209E+04 -7.66973E+03  1.79595E+04  2.85474E+03  1.44798E+04  1.35199E+04  6.66124E+03  1.92496E+04
 -3.05844E+03  2.17782E+04 -1.37315E+04  1.37343E+04 -1.56759E+04  3.07520E+03 -1.12531E+04 -3.61058E+03
 -5.16377E+03 -4.71968E+03 -5.58283E+02  1.49354E+03 -2.97955E+03  2.59005E+03 -4.96876E+03  4.06045E+03
 -1.03404E+04  1.13631E+02 -1.08815E+04 -8.50689E+03 -4.18798E+03 -1.46063E+04  4.82991E+03 -1.12395E+04
  8.89648E+03 -4.58690E+03  6.76121E+03  2.72900E+03  1.49165E+02  4.31225E+03 -5.72676E+03 -5.68571E+02
 -4.72282E+03 -7.06690E+03 -9.10337E+02 -1.02665E+04  5.69856E+03 -1.08123E+04  1.37354E+04 -5.68089E+03
  1.58918E+04  1.28970E+03  1.25638E+04  8.89711E+03  2.09920E+03  1.25741E+04 -6.98884E+03  1.09217E+04
 -9.17291E+03  3.10021E+03 -4.78938E+03 -2.19263E+03  1.94231E+03 -3.41767E+03  6.28306E+03 -9.53097E+02
  5.41288E+03  4.31170E+03  1.41956E+03  8.71466E+03 -6.31949E+03  8.27988E+03 -1.03995E+04  2.16251E+03
 -6.78067E+03 -4.87860E+03  3.19507E+02 -8.93719E+03  5.08537E+03 -4.83338E+03  5.26976E+03  1.57308E+03
  1.14734E+03  5.84486E+03 -5.66158E+03  7.16075E+03 -7.95118E+03  3.12196E+03 -8.04815E+03 -1.92766E+03
 -4.37996E+03 -9.14852E+03  2.13353E+03 -1.10252E+04  9.38399E+03 -7.07373E+03  9.56509E+03  2.15687E+03
  7.45086E+03  8.15253E+03 -5.87000E+02  1.04796E+04 -7.71665E+03  5.93045E+03 -7.60492E+03 -5.57089E+02
 -8.06687E+03 -7.20616E+03 -1.81170E+03 -7.42115E+03  4.08887E+03 -6.67124E+03  4.74399E+03 -3.02173E+03
  3.75321E+03  7.10839E+02 -4.04491E+02  1.79881E+03  1.51290E+02 -1.27772E+03  7.12835E+02 -3.81342E+03
  7.31485E+03 -2.29374E+03  9.19575E+03  8.65833E+02  9.32739E+03  5.41925E+03  6.85066E+03  1.21939E+04
 -2.12156E+03  1.46500E+04 -1.16539E+04  1.04702E+04 -1.55631E+04  1.80054E+03 -1.22093E+04 -3.91465E+03
 -6.18520E+03 -9.77456E+03 -2.83982E+02 -8.64383E+03  4.06959E+03 -4.11987E+03  3.07012E+03 -3.02195E+03
  2.09340E+03 -1.76525E+03  2.28412E+03 -3.62040E+03  4.09303E+03 -2.22203E+03  4.82717E+03 -6.32581E+02
  6.78326E+03  2.01638E+03  2.09021E+03  5.49598E+03 -1.44751E+03  5.31281E+03 -7.05802E+03  4.74256E+03
 -7.94577E+03 -1.10433E+03 -4.17770E+03 -5.60907E+03  4.34350E+02 -9.17803E+03  5.13780E+03 -9.55776E+03
  8.49544E+03 -5.78319E+03  1.10240E+04  8.69899E+02  8.42790E+03  7.15264E+03  1.79891E+03  1.02228E+04
 -3.51747E+03  8.50311E+03 -5.70157E+03  3.29429E+03 -3.60283E+03 -1.65269E+03 -1.47594E+03 -1.07038E+03
 -1.04628E+03 -5.78898E+01 -9.39189E+02  2.72059E+03 -3.70540E+03  1.40462E+03 -5.53360E+03 -1.13997E+03
 -3.40671E+03 -5.30571E+03  5.46585E+02 -8.11622E+03  4.29861E+03 -7.33812E+03  7.31394E+03 -2.22956E+03
  7.59526E+03  3.91217E+03  3.47794E+03  6.85841E+03 -1.58370E+03  8.11226E+03 -5.64606E+03  4.40667E+03
 -7.10271E+03  6.09846E+02 -5.96655E+03 -4.10047E+03 -5.59559E+02 -6.15832E+03  2.86484E+03 -4.44925E+03
  4.80705E+03 -1.99535E+03  2.82556E+03  1.01968E+03  1.46529E+03  2.63250E+03  1.13230E+03  1.38317E+03
  2.95908E+03  6.96029E+02  1.12625E+03  1.24025E+03  2.17338E+03  2.95639E+03  2.11633E+03  3.34833E+03
 -2.03254E+03  5.75886E+03 -5.61809E+03  6.77202E+03 -7.43683E+03  1.87556E+03 -7.41051E+03 -2.43739E+03
 -3.40450E+03 -7.14838E+03  1.81915E+03 -8.34575E+03  3.46161E+03 -4.70996E+03  5.92248E+03 -1.52560E+03
  5.60708E+03  2.68914E+03  1.03451E+03  3.91085E+03 -1.81040E+03  2.56253E+03 -3.24238E+03 -1.85937E+00
 -1.20647E+03 -3.13798E+03  1.88352E+03 -3.38378E+03  2.72280E+03 -1.25426E+03  2.63344E+03  6.77972E+02
  1.45277E+03  1.21613E+03  9.97337E+02  4.22989E+02 -2.74864E+02  1.10420E+03  1.46793E+03 -6.42151E+02
  3.74683E+01 -5.82157E+02  2.76612E+03  9.06273E+02  1.53932E+03  4.42674E+03 -8.70790E+01  5.18631E+03
 -3.47918E+03  3.01770E+03 -4.60575E+03  8.82050E+02 -4.36661E+03 -9.05908E+02 -1.40539E+03 -2.47182E+03
  4.77660E+02 -2.34741E+03  1.79635E+03 -1.67717E+03  1.60724E+03  1.99224E+03 -9.81766E+02  2.36440E+03
 -3.12053E+03  1.52906E+03 -2.81634E+03 -1.82489E+03 -9.53559E+02 -4.40259E+03  1.66937E+02 -3.24100E+03
  1.64752E+03 -2.08106E+03  2.38001E+03  2.16692E+02  2.99922E+03  7.03508E+02  8.89049E+02  1.97129E+03
 -9.38646E+02  7.70565E+02 -1.45832E+03 -5.63684E+02  8.01792E+02 -2.53499E+03  3.68427E+03 -2.04417E+03
  3.99404E+03  2.82344E+02  5.27719E+03  2.78557E+03  1.37186E+03  3.25156E+03 -1.59088E+03  4.40192E+03
 -3.14556E+03  9.97428E+02 -3.61643E+03 -3.05046E+02 -3.11004E+03 -2.70296E+03  1.77525E+02 -2.17668E+03
  2.15414E+03 -1.67780E+03  1.79344E+03  9.87042E+02  6.40574E+02  2.28410E+03 -3.87974E+02  2.67497E+03
 -5.46678E+02  1.75700E+03 -1.47426E+03  3.91561E+02  4.36275E+02  6.00547E+02 -7.23712E+02  8.00073E+02
 -1.07275E+03  2.23282E+03 -3.72163E+03  1.03053E+03 -3.89402E+03  2.90398E+02 -5.02175E+03 -2.26532E+03
 -2.52896E+03 -5.34978E+03  1.25606E+03 -5.70692E+03  3.22857E+03 -5.02277E+03  5.81297E+03 -2.52540E+03
  6.39621E+03  3.44174E+02  3.15916E+03  3.72561E+03  7.52765E+01  3.76650E+03 -1.22569E+03  2.77521E+03
 -2.57031E+03  1.48305E+03 -1.73188E+03  1.64779E+02 -1.37224E+03  2.62296E+02 -7.57414E+02  4.23106E+02
 -8.39955E+02  2.25541E+02 -1.43078E+03 -7.35978E+02 -4.56749E+02 -1.16893E+03 -4.76306E+02 -2.07828E+03
  2.77304E+03 -1.37109E+03  1.80170E+03 -1.31273E+02  2.65834E+03  2.41398E+03  7.83269E+01  3.54686E+03
 -2.10418E+03  4.83109E+03 -4.09465E+03  2.68801E+03 -4.51082E+03 -8.38798E+02 -4.06366E+03 -2.92050E+03
 -1.73561E+03 -4.20650E+03  9.57437E+02 -3.54107E+03  2.14225E+03 -1.80240E+03  2.07750E+03  1.69181E+02
  1.91142E+03  1.07822E+03  4.94523E+01  3.29142E+02 -1.24540E+03 -5.11023E+02 -1.38655E+01 -4.31621E+02
  1.72300E+03 -7.07152E+02  7.03099E+02  6.71117E+02  1.26750E+03  1.46999E+03  4.27130E+02  2.00607E+03
 -1.76741E+03  1.82378E+03 -3.18176E+03  5.38052E+02 -2.22260E+03 -1.01282E+03 -2.78623E+02 -3.19606E+03
  1.97781E+03 -2.66846E+03  2.11460E+03 -3.54209E+02  3.27562E+03  3.71063E+02  2.30204E+03  2.27559E+03
  6.41400E+02  2.36130E+03 -2.24647E+02  2.76169E+03 -1.74928E+03  8.68597E+02 -1.64252E+03 -4.85656E+02
 -4.94383E+02 -6.78909E+02 -1.49830E+03  4.37048E+02 -1.60097E+03  4.07158E+02 -2.41305E+03 -9.78151E+01
 -2.62869E+03 -8.10792E+02 -1.36807E+03 -2.75693E+03  1.42879E+03 -3.06795E+03  2.56326E+03 -1.00155E+03
  1.51851E+03  4.54199E+02  9.35008E+02  1.34169E+03 -2.98960E+02  2.63671E+03 -1.67714E+03  1.85854E+03
