 $NMID ID='MM_0lb_SNR400_9hz_g40_17.RAW', FMTDAT='(8E13.5)'
 TRAMP=1., VOLUME=1. $END
  3.10039E+05  8.30454E+02  3.37908E+05  2.50708E+05  8.48382E+04  3.38405E+05 -1.32917E+05  2.51713E+05
 -1.91107E+05  8.37700E+04 -1.12505E+05 -3.29986E+04  1.10629E+03 -5.07859E+04  5.31274E+04 -6.55516E+02
  3.60193E+04  5.25216E+04 -1.64617E+04  7.56675E+04 -6.16857E+04  6.48626E+04 -8.55689E+04  3.23594E+04
 -8.23103E+04 -1.19501E+04 -5.82742E+04 -5.26076E+04 -1.52639E+04 -7.09002E+04  2.76272E+04 -4.65732E+04
  4.11968E+04  4.01268E+03  1.65242E+04  4.83510E+04 -3.49600E+04  4.84962E+04 -6.82194E+04 -9.30445E+02
 -5.47259E+04 -5.76864E+04 -6.80640E+03 -7.91498E+04  3.45854E+04 -5.63781E+04  4.81543E+04 -1.72992E+04
  4.53621E+04  1.12161E+04  3.25374E+04  2.56845E+04  1.63156E+04  3.05967E+04 -5.54332E+03  2.79953E+04
 -2.19643E+04  1.20004E+04 -1.81137E+04 -5.14158E+03  7.47633E+03 -7.90179E+03  2.30613E+04  1.34537E+04
  6.88281E+03  3.67100E+04 -3.35576E+04  3.72451E+04 -6.51240E+04  2.53894E+03 -5.84154E+04 -4.45663E+04
 -1.25811E+04 -6.53179E+04  4.07800E+04 -4.69141E+04  6.06755E+04 -2.53799E+03  3.71616E+04  3.43920E+04
 -5.82255E+03  3.82537E+04 -3.14163E+04  1.89319E+04 -3.24886E+04 -3.97276E+03 -1.83939E+04 -1.11875E+04
 -9.31260E+03 -1.48525E+04 -1.17701E+03 -1.95180E+04  8.48476E+03 -2.35568E+04  1.54180E+04 -1.27255E+04
  1.03623E+04  6.97341E+03 -9.67000E+03  1.28531E+04 -2.31112E+04 -6.10879E+03 -8.42131E+03 -3.64559E+04
  2.45997E+04 -4.59874E+04  5.12973E+04 -2.06835E+04  4.81995E+04  2.08054E+04  1.70993E+04  4.71454E+04
 -1.69141E+04  3.59797E+04 -2.66019E+04  2.90221E+03 -1.09340E+04 -2.94865E+04  2.20953E+04 -3.66957E+04
  4.42478E+04 -1.08082E+04  3.96621E+04  2.40703E+04  2.05172E+04  5.11846E+04 -8.34727E+03  5.41734E+04
 -3.55443E+04  3.67575E+04 -4.56376E+04  1.08631E+04 -4.71343E+04 -1.79501E+04 -2.61727E+04 -4.04317E+04
  8.26380E+03 -4.11955E+04  3.37335E+04 -1.66532E+04  3.16585E+04  1.09979E+04  4.96460E+03  2.10917E+04
 -1.41130E+04  9.47622E+03 -1.19584E+04 -7.19189E+03  5.69592E+03 -1.07719E+04  1.84171E+04  5.45449E+03
  1.45585E+04  2.31405E+04 -6.09966E+03  2.64675E+04 -2.32357E+04  1.34608E+04 -3.12063E+04 -2.75836E+03
 -2.46806E+04 -1.83327E+04 -1.10153E+04 -2.33954E+04  3.75365E+03 -2.46934E+04  1.89517E+04 -2.21329E+04
  3.07420E+04 -1.43512E+04  3.67586E+04  4.32139E+03  2.65631E+04  2.41013E+04  4.66373E+03  3.97391E+04
 -1.95588E+04  3.33470E+04 -2.97913E+04  1.21215E+04 -2.21585E+04 -1.00513E+04 -5.35659E+03 -1.28811E+04
  1.31537E+03 -1.52208E+03 -7.58302E+03  8.42427E+03 -1.94689E+04  4.12450E+03 -1.87248E+04 -9.67982E+03
 -1.15368E+04 -2.26268E+04  6.03625E+03 -2.74037E+04  1.81818E+04 -1.89261E+04  2.20050E+04 -1.67732E+03
  1.38547E+04  1.49433E+04 -9.04117E+02  2.29590E+04 -1.56367E+04  1.24217E+04 -2.26978E+04 -4.70287E+03
 -1.72857E+04 -2.08722E+04 -3.28475E+03 -2.68704E+04  1.19833E+04 -2.24407E+04  2.21235E+04 -1.13977E+04
  2.12360E+04 -5.06133E+01  1.51663E+04  5.68023E+03  9.47013E+03  1.69421E+03  1.14756E+04 -1.67570E+03
  2.11343E+04  2.99234E+03  2.51302E+04  1.80220E+04  1.63842E+04  3.64150E+04 -2.60815E+03  4.28333E+04
 -2.45813E+04  3.49956E+04 -3.97224E+04  1.83914E+04 -4.21550E+04 -2.86701E+03 -3.34503E+04 -2.45211E+04
 -1.42278E+04 -3.58831E+04  1.25530E+04 -3.15716E+04  2.68318E+04 -1.53302E+04  2.25711E+04  7.63836E+03
  8.25697E+03  1.73898E+04 -1.11950E+04  1.60511E+04 -1.93283E+04  2.13056E+03 -1.48672E+04 -1.22947E+04
  6.78137E+02 -1.75239E+04  1.02916E+04 -1.42222E+04  1.25542E+04 -1.64478E+03  3.60680E+03  8.90253E+03
 -8.46094E+03  3.26257E+03 -8.82845E+03 -5.88476E+03 -1.75791E+03 -1.69236E+04  1.17229E+04 -1.87444E+04
  2.17524E+04 -1.12738E+04  2.48536E+04  3.66692E+03  2.15751E+04  1.74048E+04  1.09424E+04  2.77587E+04
 -4.55002E+03  2.98793E+04 -1.88750E+04  1.80423E+04 -2.14453E+04  3.91485E+03 -1.44723E+04 -6.05455E+03
 -5.82780E+03 -7.56675E+03 -3.76826E+02  4.02489E+02 -2.34033E+03  2.78156E+03 -6.81913E+03  5.42686E+03
 -1.39866E+04 -1.38784E+03 -1.41888E+04 -1.18343E+04 -6.23738E+03 -1.86358E+04  5.90310E+03 -1.46484E+04
  1.23178E+04 -6.10140E+03  8.23673E+03  4.44515E+03 -4.40027E+02  5.58271E+03 -7.42826E+03 -2.30294E+02
 -6.75471E+03 -9.91083E+03 -1.42894E+03 -1.40515E+04  8.33415E+03 -1.63633E+04  1.90115E+04 -8.17737E+03
  2.24778E+04  2.83043E+03  1.56684E+04  1.43013E+04  2.87561E+03  1.73379E+04 -8.95959E+03  1.47428E+04
 -1.23689E+04  4.53806E+03 -6.69471E+03 -2.98628E+03  2.08539E+03 -4.53218E+03  7.79290E+03 -1.91132E+03
  6.99965E+03  6.94622E+03  1.35536E+03  1.15425E+04 -8.35003E+03  1.11103E+04 -1.48230E+04  2.66746E+03
 -1.05484E+04 -7.77336E+03  5.29764E+01 -1.28983E+04  7.60834E+03 -7.03127E+03  8.71960E+03  3.08974E+03
  2.63518E+03  8.99613E+03 -7.63534E+03  1.04007E+04 -1.29986E+04  5.46543E+03 -1.33556E+04 -4.89631E+03
 -7.10513E+03 -1.52671E+04  3.44674E+03 -1.70707E+04  1.47098E+04 -1.01597E+04  1.54802E+04  2.60420E+03
  9.71475E+03  1.34574E+04 -1.57111E+03  1.44317E+04 -1.10314E+04  8.62188E+03 -1.25935E+04 -1.78879E+03
 -1.01257E+04 -1.00715E+04 -2.10694E+03 -1.14111E+04  6.13834E+03 -9.43907E+03  7.11385E+03 -3.21990E+03
  4.87470E+03  1.47684E+03 -1.26151E+03  1.56012E+03 -4.76539E+02 -2.79209E+03  2.74575E+03 -7.44214E+03
  1.07152E+04 -5.17610E+03  1.49140E+04  1.04333E+03  1.46614E+04  9.94093E+03  9.88562E+03  1.93224E+04
 -4.45936E+03  2.22480E+04 -1.86569E+04  1.66294E+04 -2.52059E+04  3.36278E+03 -1.96605E+04 -8.86062E+03
 -1.02301E+04 -1.66819E+04 -3.91111E+02 -1.40210E+04  4.60715E+03 -7.24649E+03  4.96504E+03 -5.78338E+03
  3.27642E+03 -3.38546E+03  3.83823E+03 -3.56649E+03  5.33987E+03 -3.64333E+03  8.64897E+03 -1.99800E+03
  1.04522E+04  1.88955E+03  6.61103E+03  9.11023E+03 -1.49030E+03  1.02147E+04 -1.05794E+04  7.72014E+03
 -1.38471E+04 -1.09172E+03 -8.36928E+03 -9.43332E+03 -1.32504E+03 -1.48213E+04  8.55504E+03 -1.46006E+04
  1.47690E+04 -7.85630E+03  1.83102E+04  2.91747E+03  1.30718E+04  1.30228E+04  1.98959E+03  1.62163E+04
 -6.78390E+03  1.39656E+04 -9.30434E+03  5.20531E+03 -6.75271E+03 -2.70760E+03 -2.56230E+03 -1.79143E+03
 -1.33882E+03  4.27862E+02 -2.18576E+03  3.25396E+03 -6.41299E+03  2.91909E+03 -9.14060E+03 -1.68721E+03
 -6.52215E+03 -9.84221E+03  4.23651E+02 -1.34940E+04  8.83263E+03 -1.33443E+04  1.33621E+04 -3.74220E+03
  1.34965E+04  6.28045E+03  6.11717E+03  1.29927E+04 -3.10405E+03  1.44140E+04 -1.10949E+04  8.66207E+03
 -1.34502E+04  9.23559E+02 -9.49818E+03 -8.38005E+03 -1.29051E+03 -1.23108E+04  5.84335E+03 -8.53702E+03
  8.89412E+03 -2.58807E+03  6.09144E+03  2.72734E+03  1.92355E+03  2.99726E+03  1.44507E+03  2.33865E+03
  2.37499E+03  7.72967E+02  3.92842E+03  1.73848E+03  4.50172E+03  4.81089E+03  4.04046E+03  6.89796E+03
 -3.18327E+03  1.13089E+04 -1.00883E+04  1.08838E+04 -1.38344E+04  2.00444E+03 -1.49503E+04 -6.12166E+03
 -6.28320E+03 -1.38226E+04  1.45112E+03 -1.63918E+04  8.44416E+03 -1.04926E+04  1.04545E+04 -2.65060E+03
  8.65852E+03  4.72957E+03  1.49121E+03  8.28833E+03 -3.38192E+03  5.78286E+03 -5.98967E+03 -5.78013E+02
 -3.06542E+03 -6.83510E+03  3.44240E+03 -6.26279E+03  5.22378E+03 -3.26614E+03  6.02183E+03  1.85584E+03
  3.26272E+03  2.75123E+03  1.47218E+03  1.75667E+03 -4.55888E+02  1.35635E+03  2.52661E+03  2.22270E+02
  1.62067E+03 -3.56867E+02  6.36709E+03  2.68678E+03  3.30846E+03  7.63206E+03 -1.21102E+03  1.03848E+04
 -6.81734E+03  6.62960E+03 -8.97468E+03  2.46327E+03 -7.81347E+03 -3.08230E+03 -3.56831E+03 -5.46398E+03
  3.50590E+02 -6.34999E+03  3.55993E+03 -2.18907E+03  3.46548E+03  3.19254E+03 -2.00794E+03  4.78723E+03
 -5.58275E+03  3.46884E+03 -7.33362E+03 -3.09470E+03 -4.06257E+03 -7.89969E+03  1.33788E+03 -8.10790E+03
  4.59017E+03 -4.50984E+03  6.33817E+03 -1.84271E+03  4.19475E+03  2.25521E+03  4.78820E+02  4.45808E+03
 -2.81936E+03  1.05855E+03 -3.98606E+03 -2.38932E+03  8.22407E+02 -6.07763E+03  7.04638E+03 -4.79692E+03
  8.92339E+03  5.02705E+02  8.75793E+03  6.19121E+03  2.90737E+03  9.20101E+03 -3.30228E+03  8.88595E+03
 -7.89412E+03  3.34382E+03 -7.01587E+03 -1.09482E+03 -4.85516E+03 -6.20827E+03  1.50890E+03 -5.77546E+03
  5.84008E+03 -2.25206E+03  4.60041E+03  2.44367E+03  1.31436E+03  5.79117E+03 -2.96975E+02  4.59037E+03
 -2.93492E+03  2.92674E+03 -1.99334E+03 -2.39282E+01 -1.24595E+03  1.07389E+03 -1.21950E+03  1.84514E+03
 -1.12740E+03  2.92261E+03 -6.19274E+03  2.88131E+03 -8.80286E+03 -1.02495E+02 -1.05222E+04 -6.29928E+03
 -5.95865E+03 -1.22927E+04  2.80752E+03 -1.45675E+04  8.76838E+03 -1.14561E+04  1.35831E+04 -4.35447E+03
  1.22668E+04  2.01125E+03  7.63818E+03  7.72287E+03  1.31785E+03  9.95939E+03 -3.71308E+03  7.57177E+03
 -5.32262E+03  2.51136E+03 -3.58495E+03 -8.80178E+02 -1.07680E+03 -5.33014E+02 -9.24020E+02 -3.26592E+02
 -2.19867E+03  1.07076E+03 -1.91189E+03 -7.30346E+02 -7.54289E+02 -3.05772E+03  4.56089E+02 -3.60784E+03
  4.78683E+03 -3.66871E+03  5.60452E+03 -1.11165E+02  7.31894E+03  5.37428E+03  1.39185E+03  9.64246E+03
 -5.00860E+03  1.10320E+04 -1.06993E+04  6.78342E+03 -1.22562E+04 -8.76088E+02 -8.61419E+03 -8.27694E+03
 -3.35602E+03 -9.99178E+03  2.14987E+03 -9.86973E+03  6.08781E+03 -4.80972E+03  6.62072E+03  4.02115E+02
  3.21737E+03  3.20813E+03 -6.07111E+02  2.67168E+03 -1.66504E+03 -1.42162E+02  6.36469E+02 -2.49210E+03
  2.49392E+03 -1.42714E+03  4.52248E+03  8.53434E+02  1.96331E+03  4.29951E+03  9.02781E+00  4.93246E+03
 -4.83914E+03  4.48050E+03 -7.23259E+03  7.40311E+02 -5.37380E+03 -4.59061E+03 -8.12085E+02 -7.87810E+03
  5.29573E+03 -8.30658E+03  7.36422E+03 -2.63269E+03  7.95533E+03  2.08728E+03  3.71744E+03  6.81602E+03
  7.63761E+02  6.93494E+03 -2.34651E+03  4.72010E+03 -3.68390E+03  2.90320E+03 -2.81250E+03 -4.16157E+01
 -1.33620E+03 -2.88747E+01 -1.74879E+03  8.05647E+02 -3.84879E+03  9.30035E+02 -5.28650E+03 -5.88585E+02
 -4.40280E+03 -3.30431E+03 -9.72805E+02 -6.56618E+03  3.44247E+03 -7.06216E+03  5.77463E+03 -3.74984E+03
  6.47379E+03  5.29502E+02  3.43183E+03  4.61690E+03 -4.63764E+02  6.98682E+03 -5.07205E+03  4.66479E+03
