 $NMID ID='MM_0lb_SNR400_9hz_g40_18.RAW', FMTDAT='(8E13.5)'
 TRAMP=1., VOLUME=1. $END
  3.09975E+05  3.68956E+02  3.38029E+05  2.50683E+05  8.47465E+04  3.38964E+05 -1.32812E+05  2.51411E+05
 -1.90192E+05  8.30858E+04 -1.12402E+05 -3.30170E+04  8.49806E+02 -4.98262E+04  5.35604E+04  2.16667E+01
  3.54234E+04  5.35543E+04 -1.62973E+04  7.60199E+04 -6.17603E+04  6.45760E+04 -8.51658E+04  3.21610E+04
 -8.22115E+04 -1.24200E+04 -5.85309E+04 -5.23063E+04 -1.56281E+04 -7.05705E+04  2.85248E+04 -4.62633E+04
  4.07697E+04  3.29830E+03  1.68459E+04  4.89865E+04 -3.44721E+04  4.77822E+04 -6.78399E+04  6.28192E+00
 -5.44227E+04 -5.73678E+04 -6.99785E+03 -7.83317E+04  3.59468E+04 -5.67802E+04  4.95332E+04 -1.85842E+04
  4.44990E+04  1.20457E+04  3.24524E+04  2.61667E+04  1.57337E+04  3.08816E+04 -6.08984E+03  2.73893E+04
 -2.24679E+04  1.20587E+04 -1.88553E+04 -5.12964E+03  6.57799E+03 -7.02901E+03  2.36921E+04  1.36118E+04
  7.33705E+03  3.67737E+04 -3.41500E+04  3.72870E+04 -6.58028E+04  1.89792E+03 -5.75524E+04 -4.38213E+04
 -1.26418E+04 -6.52545E+04  4.06582E+04 -4.71833E+04  6.07509E+04 -2.79470E+03  3.59407E+04  3.30017E+04
 -5.09838E+03  3.87810E+04 -3.20603E+04  1.87631E+04 -3.24995E+04 -3.27963E+03 -1.86655E+04 -1.08337E+04
 -9.41206E+03 -1.48742E+04 -1.23697E+02 -1.89215E+04  7.95314E+03 -2.36613E+04  1.48454E+04 -1.26433E+04
  1.04772E+04  5.93016E+03 -1.04592E+04  1.24810E+04 -2.33469E+04 -6.08240E+03 -7.92149E+03 -3.70199E+04
  2.41869E+04 -4.64201E+04  5.16781E+04 -2.07556E+04  4.87559E+04  2.08755E+04  1.68475E+04  4.62402E+04
 -1.71822E+04  3.55748E+04 -2.70480E+04  2.84366E+03 -1.14920E+04 -2.91774E+04  2.12995E+04 -3.60784E+04
  4.39889E+04 -1.05950E+04  3.91232E+04  2.45216E+04  2.02778E+04  4.96057E+04 -8.18334E+03  5.52288E+04
 -3.47812E+04  3.70558E+04 -4.64625E+04  1.00156E+04 -4.64961E+04 -1.83673E+04 -2.53075E+04 -4.11896E+04
  8.01030E+03 -4.01883E+04  3.24169E+04 -1.65945E+04  3.08637E+04  1.22166E+04  5.23504E+03  2.09123E+04
 -1.42143E+04  8.23195E+03 -1.07881E+04 -7.19639E+03  6.34799E+03 -1.15421E+04  1.93090E+04  5.94374E+03
  1.47806E+04  2.23613E+04 -5.47249E+03  2.64695E+04 -2.33372E+04  1.41085E+04 -3.11474E+04 -2.99492E+03
 -2.40517E+04 -1.75370E+04 -1.12642E+04 -2.41429E+04  4.48862E+03 -2.49157E+04  1.88813E+04 -2.18491E+04
  2.98651E+04 -1.50354E+04  3.76615E+04  5.29006E+03  2.63762E+04  2.37823E+04  4.90016E+03  4.00234E+04
 -1.96235E+04  3.32477E+04 -3.01652E+04  1.22812E+04 -2.16492E+04 -1.02710E+04 -4.81658E+03 -1.31020E+04
  1.28819E+03 -1.07575E+03 -7.22575E+03  7.71121E+03 -1.94296E+04  5.03764E+03 -1.91927E+04 -8.66012E+03
 -1.16152E+04 -2.25106E+04  5.87966E+03 -2.69762E+04  1.79536E+04 -1.95481E+04  2.17054E+04 -1.54491E+03
  1.42614E+04  1.47699E+04 -1.00731E+03  2.22207E+04 -1.63509E+04  1.31835E+04 -2.25545E+04 -5.16598E+03
 -1.61917E+04 -2.09205E+04 -1.84510E+03 -2.70481E+04  1.24986E+04 -2.25676E+04  2.22187E+04 -1.17004E+04
  2.13121E+04  8.34061E+01  1.56747E+04  5.09647E+03  8.65289E+03  1.81481E+03  1.17251E+04 -1.80545E+03
  2.08015E+04  2.50933E+03  2.50865E+04  1.76352E+04  1.69159E+04  3.62354E+04 -2.78349E+03  4.31210E+04
 -2.34181E+04  3.63012E+04 -3.98237E+04  1.81077E+04 -4.26193E+04 -2.61839E+03 -3.47531E+04 -2.51620E+04
 -1.32463E+04 -3.53712E+04  1.27928E+04 -3.11429E+04  2.73746E+04 -1.49455E+04  2.33019E+04  7.63129E+03
  7.30018E+03  1.78967E+04 -1.05301E+04  1.49022E+04 -1.93613E+04  2.25156E+03 -1.44507E+04 -1.23773E+04
  5.35344E+02 -1.86253E+04  9.31905E+03 -1.36377E+04  1.31172E+04 -1.37688E+03  3.54005E+03  9.11301E+03
 -7.80503E+03  3.82221E+03 -8.96979E+03 -7.05571E+03 -2.19129E+03 -1.81887E+04  1.10682E+04 -1.87359E+04
  2.17758E+04 -1.05239E+04  2.43785E+04  3.22780E+03  2.12188E+04  1.78874E+04  1.00938E+04  2.84847E+04
 -5.15578E+03  2.92768E+04 -1.93439E+04  1.83197E+04 -2.21685E+04  3.60324E+03 -1.40843E+04 -6.26430E+03
 -6.41932E+03 -6.68274E+03 -6.80341E+02  1.96471E+01 -3.02310E+03  3.05441E+03 -7.30447E+03  5.25229E+03
 -1.33864E+04 -1.27689E+03 -1.44385E+04 -1.17203E+04 -6.38548E+03 -1.90032E+04  6.67575E+03 -1.51205E+04
  1.14649E+04 -6.74940E+03  8.70668E+03  4.06601E+03 -3.80862E+02  5.63532E+03 -6.76279E+03 -7.92921E+01
 -7.11870E+03 -1.02084E+04 -4.97720E+02 -1.47163E+04  8.25819E+03 -1.50561E+04  1.91270E+04 -7.53275E+03
  2.19785E+04  3.19946E+03  1.69427E+04  1.28858E+04  3.21952E+03  1.81262E+04 -8.60618E+03  1.43637E+04
 -1.18015E+04  4.59236E+03 -5.94676E+03 -3.25573E+03  1.84676E+03 -4.23952E+03  6.98955E+03 -7.60795E+02
  6.30270E+03  7.02187E+03  3.63197E+02  1.16976E+04 -9.19263E+03  1.13680E+04 -1.50199E+04  2.01086E+03
 -9.64780E+03 -7.79100E+03  4.85611E+02 -1.29447E+04  8.31116E+03 -6.00273E+03  8.55749E+03  3.44738E+03
  2.66092E+03  9.75168E+03 -8.00072E+03  1.05439E+04 -1.31887E+04  5.03616E+03 -1.34973E+04 -4.90004E+03
 -8.08041E+03 -1.52287E+04  3.59970E+03 -1.74761E+04  1.49998E+04 -1.11563E+04  1.60889E+04  2.08272E+03
  8.72501E+03  1.31149E+04 -1.97049E+03  1.57232E+04 -1.05531E+04  7.54214E+03 -1.19005E+04 -1.20751E+03
 -9.79004E+03 -9.79405E+03 -1.94874E+03 -1.16050E+04  6.52580E+03 -9.78095E+03  7.65953E+03 -3.55430E+03
  5.19693E+03  1.83781E+03 -5.46224E+02  1.83383E+03 -1.14325E+03 -3.58917E+03  2.01810E+03 -6.97945E+03
  1.04652E+04 -4.18966E+03  1.56069E+04  1.63500E+03  1.52668E+04  1.01661E+04  9.29451E+03  1.94505E+04
 -5.05931E+03  2.24937E+04 -1.82158E+04  1.74234E+04 -2.46794E+04  3.73872E+03 -1.93927E+04 -8.84389E+03
 -9.38790E+03 -1.59494E+04  2.10648E+02 -1.36522E+04  4.49426E+03 -7.64449E+03  5.02966E+03 -5.36028E+03
  3.89253E+03 -3.45336E+03  3.91470E+03 -4.41061E+03  6.07396E+03 -3.07460E+03  8.32626E+03 -1.61985E+03
  1.04536E+04  2.22621E+03  5.66741E+03  8.27641E+03 -2.41330E+03  1.09701E+04 -1.08981E+04  8.25144E+03
 -1.36686E+04 -7.00917E+02 -9.25900E+03 -9.70323E+03 -1.10247E+03 -1.49029E+04  7.63607E+03 -1.47984E+04
  1.54978E+04 -8.02452E+03  1.88770E+04  2.72439E+03  1.21485E+04  1.34391E+04  1.96690E+03  1.72586E+04
 -6.60175E+03  1.44342E+04 -9.42212E+03  4.26851E+03 -6.44393E+03 -1.48216E+03 -3.14079E+03 -1.36977E+03
 -1.23306E+03 -5.86099E+02 -2.57841E+03  2.60797E+03 -6.45296E+03  1.82315E+03 -9.30332E+03 -1.93750E+03
 -6.36914E+03 -1.00118E+04  2.16123E+02 -1.52130E+04  8.98911E+03 -1.25722E+04  1.38174E+04 -3.80053E+03
  1.45041E+04  6.59090E+03  6.60501E+03  1.19165E+04 -3.16554E+03  1.37312E+04 -9.90206E+03  8.55485E+03
 -1.31071E+04  7.48430E+02 -9.59354E+03 -8.62329E+03 -1.39699E+03 -1.07663E+04  5.62801E+03 -8.16272E+03
  9.14507E+03 -2.56031E+03  5.92227E+03  3.13808E+03  2.19266E+03  3.64927E+03  1.35940E+03  2.13713E+03
  2.31134E+03  1.15034E+03  3.02068E+03  2.38626E+03  4.31861E+03  5.10568E+03  2.70904E+03  6.64795E+03
 -2.59694E+03  1.11569E+04 -9.64371E+03  1.15339E+04 -1.38560E+04  2.88532E+03 -1.45731E+04 -5.16200E+03
 -6.84833E+03 -1.44731E+04  2.18683E+03 -1.57047E+04  8.39835E+03 -9.82763E+03  1.16403E+04 -3.30250E+03
  8.43276E+03  5.70868E+03  1.66404E+03  8.04579E+03 -4.03064E+03  5.36291E+03 -5.78620E+03 -7.58688E+02
 -2.34745E+03 -5.80458E+03  3.35028E+03 -6.29225E+03  5.53218E+03 -3.13114E+03  5.33100E+03  1.66910E+03
  3.60159E+03  3.54762E+03  1.31958E+03  1.94398E+03 -4.76751E+02  2.35177E+03  2.13104E+03 -6.20250E+02
  3.09637E+03 -4.24571E+02  6.39002E+03  2.53385E+03  3.59127E+03  7.92196E+03 -9.13516E+02  9.02612E+03
 -6.80149E+03  7.18560E+03 -9.19886E+03  1.43810E+03 -8.33786E+03 -2.93666E+03 -3.42611E+03 -5.90493E+03
  5.05502E+02 -4.90021E+03  3.80936E+03 -2.93927E+03  3.02927E+03  3.40234E+03 -9.71443E+02  4.09382E+03
 -5.80118E+03  1.89484E+03 -6.51143E+03 -3.20995E+03 -3.47796E+03 -7.64854E+03  8.95004E+02 -8.30251E+03
  4.43050E+03 -5.16432E+03  6.45021E+03 -8.54961E+01  5.24035E+03  2.13513E+03  1.27347E+03  4.48710E+03
 -2.36112E+03  1.34028E+03 -4.16633E+03 -2.43946E+03  8.41048E+02 -5.92466E+03  7.79722E+03 -5.40272E+03
  8.95054E+03  2.78696E+02  9.34072E+03  6.21809E+03  2.65234E+03  8.95623E+03 -2.74124E+03  9.30027E+03
 -7.71262E+03  3.26762E+03 -8.00116E+03 -1.06955E+03 -5.05244E+03 -5.83189E+03  1.10197E+03 -5.72562E+03
  5.47185E+03 -2.90190E+03  4.98248E+03  2.49461E+03  1.76289E+03  4.68493E+03 -3.59062E+02  5.17089E+03
 -2.50230E+03  2.75515E+03 -2.10168E+03  1.37529E+03 -1.35853E+03  8.23427E+02 -1.12700E+03  2.11413E+03
 -2.14477E+03  3.29064E+03 -6.40615E+03  3.01165E+03 -9.48096E+03 -2.28685E+02 -1.15661E+04 -5.72975E+03
 -4.73333E+03 -1.29726E+04  1.93277E+03 -1.44069E+04  8.40661E+03 -1.13497E+04  1.31581E+04 -5.16608E+03
  1.26891E+04  3.02578E+03  8.06159E+03  9.06345E+03  3.94196E+02  1.02869E+04 -4.49007E+03  7.26226E+03
 -5.98458E+03  2.70082E+03 -2.66125E+03 -1.40541E+03 -5.69154E+02 -6.93190E+02 -1.40967E+03 -2.79376E+02
 -1.55063E+03  1.28683E+02 -1.56791E+03 -1.37270E+03 -5.92798E+02 -2.90075E+03  6.91036E+01 -3.57292E+03
  4.41256E+03 -3.07116E+03  6.03475E+03 -2.16347E+02  7.39645E+03  4.76266E+03  1.72947E+03  9.83446E+03
 -5.05104E+03  1.15999E+04 -1.05614E+04  6.41457E+03 -1.23480E+04 -1.48513E+03 -8.46702E+03 -7.03422E+03
 -3.79228E+03 -9.46494E+03  3.19386E+03 -9.63240E+03  6.22378E+03 -4.77385E+03  6.55378E+03  6.09200E+02
  3.70590E+03  3.79334E+03 -7.04290E+02  2.20150E+03 -1.13998E+03 -8.62952E+02  7.21670E+02 -2.39190E+03
  3.30592E+03 -1.14619E+03  3.76193E+03  1.30860E+03  2.56668E+03  3.98550E+03 -1.96792E+01  4.60879E+03
 -5.12400E+03  4.39942E+03 -6.62197E+03  9.42541E+02 -5.86021E+03 -4.66250E+03 -8.10384E+02 -7.83201E+03
  4.85692E+03 -6.94276E+03  8.02077E+03 -2.02300E+03  7.81830E+03  1.82967E+03  4.56221E+03  6.21070E+03
  1.04564E+03  6.39704E+03 -3.05401E+03  5.70653E+03 -4.80406E+03  3.24422E+03 -2.96476E+03  5.27873E+02
 -2.14547E+03 -1.14736E+02 -2.47321E+03  6.91280E+02 -3.58792E+03  5.90105E+02 -5.04381E+03 -7.37805E+02
 -4.66051E+03 -3.37794E+03 -1.90526E+03 -6.35702E+03  2.98485E+03 -7.42088E+03  5.46390E+03 -3.65190E+03
  6.48459E+03  1.12398E+03  3.15997E+03  5.24380E+03 -7.59145E+02  6.44888E+03 -5.26645E+03  3.90145E+03
