 $NMID ID='MM_0lb_SNR400_17hz_g40_63.RAW', FMTDAT='(8E13.5)'
 TRAMP=1., VOLUME=1. $END
  3.10168E+05  6.12617E+02  3.37173E+05  2.50166E+05  8.45432E+04  3.37297E+05 -1.32276E+05  2.50624E+05
 -1.90166E+05  8.24459E+04 -1.10957E+05 -3.27841E+04  6.24883E+02 -5.03677E+04  5.38958E+04 -2.64084E+02
  3.51096E+04  5.24195E+04 -1.75867E+04  7.52541E+04 -5.98531E+04  6.28233E+04 -8.27232E+04  3.13989E+04
 -7.96649E+04 -1.11500E+04 -5.69688E+04 -5.04908E+04 -1.52454E+04 -6.85623E+04  2.68544E+04 -4.45622E+04
  3.91822E+04  4.02472E+03  1.54706E+04  4.70865E+04 -3.38691E+04  4.66832E+04 -6.55457E+04 -7.31323E+02
 -5.21385E+04 -5.60485E+04 -6.59834E+03 -7.56801E+04  3.31533E+04 -5.32672E+04  4.68274E+04 -1.57547E+04
  4.19592E+04  1.12338E+04  3.08018E+04  2.48956E+04  1.60891E+04  2.79458E+04 -4.80202E+03  2.68782E+04
 -2.17811E+04  1.27335E+04 -1.91316E+04 -4.56736E+03  4.21964E+03 -7.94590E+03  2.11574E+04  1.04089E+04
  7.46669E+03  3.36335E+04 -3.03594E+04  3.39771E+04 -6.11995E+04  2.18266E+03 -5.49813E+04 -4.16765E+04
 -1.24255E+04 -6.11130E+04  3.83339E+04 -4.31584E+04  5.58818E+04 -2.27051E+03  3.25357E+04  3.10075E+04
 -7.00304E+03  3.33680E+04 -2.80606E+04  1.34188E+04 -2.76017E+04 -4.33115E+03 -1.48074E+04 -9.76918E+03
 -7.47842E+03 -1.07607E+04 -1.03349E+03 -1.63580E+04  6.08537E+03 -2.23322E+04  1.47495E+04 -1.33270E+04
  1.16853E+04  4.78047E+03 -6.32183E+03  1.33088E+04 -1.97464E+04 -2.70541E+03 -7.82518E+03 -3.09767E+04
  2.07054E+04 -4.09167E+04  4.55376E+04 -1.85322E+04  4.21311E+04  1.82735E+04  1.45309E+04  4.17654E+04
 -1.58056E+04  3.10646E+04 -2.34782E+04  1.10492E+03 -8.46774E+03 -2.65352E+04  2.03680E+04 -3.19489E+04
  3.83124E+04 -7.20330E+03  3.16861E+04  2.30181E+04  1.52916E+04  4.28906E+04 -7.62152E+03  4.54612E+04
 -2.85306E+04  3.07169E+04 -3.77301E+04  8.81394E+03 -3.89077E+04 -1.52798E+04 -2.12897E+04 -3.50854E+04
  6.61141E+03 -3.43241E+04  3.02054E+04 -1.27399E+04  2.67485E+04  1.10491E+04  3.01134E+03  1.80034E+04
 -1.31623E+04  7.07922E+03 -9.74900E+03 -7.38452E+03  6.11806E+03 -1.01852E+04  1.70681E+04  6.21310E+03
  1.21124E+04  2.16803E+04 -6.25125E+03  2.37966E+04 -2.14540E+04  9.68821E+03 -2.55706E+04 -5.95171E+03
 -1.73534E+04 -1.69557E+04 -6.32994E+03 -1.75907E+04  3.76147E+03 -1.48128E+04  1.26952E+04 -1.53202E+04
  2.16209E+04 -1.17894E+04  2.88701E+04  1.39135E+03  2.17539E+04  1.65822E+04  3.91895E+03  3.31084E+04
 -1.70011E+04  2.78178E+04 -2.61201E+04  9.57327E+03 -2.00086E+04 -1.01320E+04 -4.26831E+03 -1.44680E+04
  2.62595E+03 -3.96983E+03 -2.96371E+03  5.40116E+03 -1.31718E+04  4.79621E+03 -1.33930E+04 -4.61307E+03
 -8.88501E+03 -1.61782E+04  4.57074E+03 -1.98772E+04  1.26042E+04 -1.36788E+04  1.51981E+04 -1.11583E+03
  9.36275E+03  1.13615E+04 -1.07936E+03  1.57832E+04 -1.08035E+04  9.50287E+03 -1.60476E+04 -3.49300E+03
 -1.21160E+04 -1.50791E+04 -1.39910E+03 -1.92324E+04  8.83338E+03 -1.58873E+04  1.63699E+04 -7.93329E+03
  1.54141E+04  3.72154E+02  1.11966E+04  4.48859E+03  5.50169E+03  8.54757E+02  7.66324E+03 -1.06556E+03
  1.40774E+04  2.63076E+03  1.58563E+04  1.33629E+04  1.01207E+04  2.54779E+04 -3.25852E+03  2.76679E+04
 -1.60275E+04  2.17255E+04 -2.52994E+04  1.03604E+04 -2.62188E+04 -1.70925E+03 -2.19586E+04 -1.52501E+04
 -1.02991E+04 -2.13818E+04  7.55210E+03 -2.03717E+04  1.71835E+04 -1.14912E+04  1.62907E+04  3.61078E+03
  6.59776E+03  1.13680E+04 -7.50124E+03  1.07983E+04 -1.39918E+04  2.34357E+03 -1.07694E+04 -8.68535E+03
  3.15827E+02 -1.31824E+04  6.43198E+03 -9.64018E+03  7.88230E+03 -1.27440E+03  1.50330E+03  4.96489E+03
 -5.93269E+03  1.42413E+03 -3.62611E+03 -4.74645E+03  4.27847E+02 -1.01249E+04  8.28126E+03 -1.08884E+04
  1.33234E+04 -4.61637E+03  1.35804E+04  2.61674E+03  1.13671E+04  1.02797E+04  5.52962E+03  1.54534E+04
 -1.33864E+03  1.69437E+04 -1.04652E+04  1.07022E+04 -1.20839E+04  3.81268E+03 -8.78674E+03 -2.39037E+03
 -4.83101E+03 -3.86874E+03 -1.22498E+03  1.90941E+03 -2.27450E+03  1.90238E+03 -4.16145E+03  3.33149E+03
 -8.60365E+03 -4.50818E+02 -8.61666E+03 -7.51111E+03 -3.38005E+03 -1.17204E+04  3.62752E+03 -8.67817E+03
  7.36756E+03 -3.60566E+03  5.67937E+03  1.98236E+03  5.40676E+02  3.25382E+03 -3.69897E+03 -3.52476E+02
 -3.68894E+03 -5.48205E+03 -1.01034E+03 -8.19360E+03  4.39018E+03 -8.16971E+03  1.04036E+04 -3.84260E+03
  1.30876E+04  4.75915E+02  9.45259E+03  6.95761E+03  1.64945E+03  9.49266E+03 -5.68988E+03  8.73608E+03
 -7.50898E+03  2.49858E+03 -4.00574E+03 -1.94098E+03  9.46837E+02 -1.74236E+03  5.23722E+03 -1.53687E+03
  4.56040E+03  3.45913E+03  1.79549E+03  6.95091E+03 -4.32148E+03  6.01991E+03 -8.39313E+03  2.04709E+03
 -4.95423E+03 -4.10061E+03 -1.43968E+02 -7.18277E+03  4.18031E+03 -3.63324E+03  4.12133E+03  7.01106E+02
  7.47633E+02  3.94345E+03 -4.13547E+03  5.39979E+03 -5.29156E+03  2.21331E+03 -4.58047E+03 -1.47213E+03
 -3.00862E+03 -6.41686E+03  1.37193E+03 -7.83205E+03  6.63676E+03 -5.07577E+03  7.11493E+03  1.10216E+03
  5.03415E+03  5.85258E+03 -2.22080E+02  7.75394E+03 -5.44145E+03  4.37501E+03 -6.32790E+03 -4.40909E+02
 -6.30276E+03 -5.55266E+03 -1.84023E+03 -5.87580E+03  2.63902E+03 -4.54072E+03  3.79421E+03 -2.27959E+03
  1.94041E+03  5.38468E+02  5.03763E+02  1.28802E+03  9.52484E+02 -5.57982E+02  4.29763E+02 -2.55735E+03
  4.19510E+03 -8.93720E+02  5.99452E+03  6.02560E+02  6.58669E+03  3.30430E+03  5.76817E+03  8.06603E+03
 -1.12673E+03  9.60767E+03 -8.87997E+03  7.35068E+03 -1.04749E+04  1.04371E+03 -8.62865E+03 -2.83970E+03
 -4.70549E+03 -6.72784E+03 -5.08329E+02 -6.21628E+03  2.31084E+03 -2.58204E+03  1.90253E+03 -2.67967E+03
  1.40432E+03 -8.22132E+02  2.71344E+03 -2.28974E+03  4.07391E+03 -1.16661E+03  3.69920E+03 -1.12408E+02
  4.53382E+03  6.10921E+02  1.60485E+03  3.56530E+03 -1.85978E+03  3.47388E+03 -4.77446E+03  2.67722E+03
 -6.08671E+03 -1.36378E+03 -2.37032E+03 -4.02742E+03 -3.56374E+02 -6.41826E+03  3.95009E+03 -6.19509E+03
  6.02465E+03 -3.66065E+03  7.35379E+03  4.12716E+02  5.64100E+03  4.92979E+03  1.90408E+03  7.46129E+03
 -2.55119E+03  6.60851E+03 -4.61292E+03  1.94899E+03 -2.40522E+03 -1.33701E+03 -3.74087E+02 -8.57984E+02
 -4.73663E+02  5.11420E+02 -1.24607E+03  2.16450E+03 -2.75090E+03  1.10329E+03 -4.65342E+03 -4.18889E+02
 -2.19067E+03 -4.67675E+03  6.04643E+02 -5.42006E+03  3.02588E+03 -5.41230E+03  4.49219E+03 -1.38857E+03
  5.14472E+03  2.52489E+03  2.27495E+03  4.42730E+03 -7.83819E+02  5.31263E+03 -3.46124E+03  2.86759E+03
 -4.84594E+03  6.07596E+02 -3.46892E+03 -2.31490E+03 -8.91942E+02 -3.55804E+03  1.96598E+03 -2.96730E+03
  3.14127E+03 -1.82251E+03  2.09357E+03  7.72801E+02  8.99475E+02  2.18696E+03  7.66808E+02  8.88407E+02
  1.57637E+03  9.63447E+02  1.17341E+03  1.11220E+03  1.78656E+03  2.59782E+03  1.63627E+03  2.46762E+03
 -1.07244E+03  3.03248E+03 -3.06497E+03  4.29982E+03 -3.64506E+03  1.29916E+03 -4.59443E+03 -1.14907E+03
 -1.75142E+03 -4.34635E+03  2.44378E+02 -5.63163E+03  2.83671E+03 -3.69477E+03  3.71758E+03 -9.90692E+02
  3.10920E+03  1.76710E+03  7.41485E+02  2.86949E+03 -4.17558E+02  1.47392E+03 -1.42264E+03 -1.38503E+01
 -3.35045E+02 -1.67551E+03  1.13996E+03 -1.88009E+03  1.83832E+03 -4.69425E+02  1.55224E+03  2.55705E+02
  1.26297E+03  4.23762E+02  8.84383E+02  1.18393E+02 -1.88767E+01  4.51493E+02  1.26093E+03 -2.42258E+02
  4.06307E+02 -6.10350E+02  1.81752E+03  1.44086E+03  7.13766E+02  2.62142E+03 -2.24932E+02  3.46783E+03
 -2.11114E+03  1.23758E+03 -2.31222E+03  6.92188E+02 -2.78816E+03 -1.06661E+03 -3.98364E+02 -1.32448E+03
  6.14394E+02 -1.72463E+03  1.64806E+03 -1.02656E+03  1.13248E+03  2.03713E+03 -9.65695E+02  1.47638E+03
 -1.53585E+03  9.89197E+02 -9.11874E+02 -1.36384E+03 -6.80272E+02 -2.55281E+03  6.21937E+02 -2.17145E+03
  8.40363E+02 -1.10872E+03  1.52733E+03  1.55125E+02  1.66561E+03 -5.38383E+02  4.20338E+02  7.90857E+02
 -1.23338E+03  6.35991E+02 -1.53304E+03 -6.05444E+02  7.45384E+02 -8.74582E+02  1.97436E+03 -1.49484E+03
  2.28104E+03 -1.15203E+02  3.35564E+03  1.31277E+03  1.19477E+03  1.54231E+03 -3.35719E+02  2.78723E+03
 -2.43127E+03  6.12446E+02 -2.27531E+03  3.92313E+02 -7.85713E+02 -2.01790E+03  3.45138E+02 -5.88847E+02
  2.09406E+03 -9.64839E+02  8.11452E+02  1.02759E+03  2.29890E+02  1.86964E+03  1.73561E+02  1.73336E+03
 -1.24468E+03  1.67186E+03 -4.75958E+02  7.13510E+02 -2.04537E+02  6.67234E+02 -7.68961E+02  5.46154E+02
 -9.22768E+02  9.63328E+02 -1.75643E+03  8.48222E+02 -2.23768E+03  7.84094E+02 -3.37878E+03 -1.43200E+03
 -1.65079E+03 -3.00447E+03  4.16720E+02 -3.71981E+03  1.87868E+03 -3.30166E+03  3.74192E+03 -8.74740E+02
  3.10298E+03 -6.43086E+02  1.28154E+03  1.37771E+03 -3.06416E+02  2.13520E+03 -1.20881E+03  1.31751E+03
 -9.05477E+02  8.66377E+02 -6.02766E+02 -7.42080E+02 -2.31533E+02 -6.81637E+01 -6.63067E+02 -1.85304E+02
 -1.36493E+03  1.79195E+02 -1.10657E+03  4.39382E+01  8.40626E+01 -8.74043E+02 -9.04641E+01 -1.29026E+03
  1.36681E+03 -8.15114E+02  3.87106E+02  2.20328E+02  1.47473E+03  8.12346E+02 -3.29699E+01  1.83752E+03
 -1.06841E+03  2.99131E+03 -1.64636E+03  1.91462E+03 -1.57730E+03 -5.97198E+02 -2.08680E+03 -2.03567E+03
 -9.33725E+02 -1.59537E+03  4.25053E+02 -1.88635E+03  1.29840E+03 -8.50527E+02  8.75272E+02 -2.35567E+02
  9.44430E+02  1.18387E+03  2.80573E+02  1.81655E+02 -7.94584E+02 -2.66487E+02  4.08653E+02 -1.22671E+03
  7.29882E+02  2.70828E+02  4.25863E+02  4.22974E+01 -4.08266E+02  1.30629E+03  4.72388E+02  4.11205E+02
 -6.51772E+02  1.52936E+03 -1.29290E+03 -9.71867E+01 -1.07229E+03 -9.91099E+02  4.33085E+02 -1.58131E+03
  6.01055E+02 -9.02129E+02  8.38264E+02 -4.23651E+02  1.38378E+03 -4.99407E+02  9.54267E+02  8.85546E+02
  5.90381E+02  4.44392E+02 -3.93841E+02  7.43118E+02 -1.39797E+03  2.02854E+02 -1.36245E+03 -1.39707E+01
 -8.07182E+01  4.40687E+02 -5.19390E+02  5.91348E+02 -1.57041E+03 -3.32006E+00 -8.14679E+02 -4.00542E+01
 -1.65966E+03 -1.32724E+02 -8.23905E+02 -5.90166E+02  8.50379E+02 -1.92713E+03  1.61624E+03 -2.28632E+02
  8.37290E+02  4.65300E+02 -1.06469E+02  9.65031E+02 -1.45078E+02  1.44902E+03 -2.47061E+02  6.60130E+02
