 $NMID ID='MM_0lb_SNR400_13hz_g50_74.RAW', FMTDAT='(8E13.5)'
 TRAMP=1., VOLUME=1. $END
  3.09961E+05  2.26704E+02  3.37447E+05  2.51174E+05  8.48886E+04  3.38206E+05 -1.32914E+05  2.50943E+05
 -1.90202E+05  8.29996E+04 -1.11762E+05 -3.23122E+04  1.14172E+03 -4.98801E+04  5.35668E+04 -2.96575E+02
  3.54491E+04  5.26948E+04 -1.66379E+04  7.49566E+04 -6.12923E+04  6.34234E+04 -8.46944E+04  3.23183E+04
 -8.11588E+04 -1.19368E+04 -5.79132E+04 -5.15737E+04 -1.46663E+04 -7.02101E+04  2.75535E+04 -4.66764E+04
  3.95757E+04  3.69357E+03  1.63943E+04  4.78577E+04 -3.43155E+04  4.71703E+04 -6.64272E+04 -2.20233E+02
 -5.43811E+04 -5.68124E+04 -6.86302E+03 -7.76254E+04  3.36817E+04 -5.55583E+04  4.81393E+04 -1.75960E+04
  4.33178E+04  1.11473E+04  3.17409E+04  2.60239E+04  1.59458E+04  2.97218E+04 -6.07047E+03  2.67025E+04
 -2.24000E+04  1.28661E+04 -1.83510E+04 -5.31220E+03  5.93944E+03 -7.25220E+03  2.23606E+04  1.21575E+04
  7.17195E+03  3.55586E+04 -3.23691E+04  3.58606E+04 -6.36770E+04  2.35480E+03 -5.62265E+04 -4.35754E+04
 -1.26471E+04 -6.39056E+04  4.01842E+04 -4.56582E+04  5.88264E+04 -2.18691E+03  3.45696E+04  3.25001E+04
 -6.16811E+03  3.69101E+04 -3.04937E+04  1.66670E+04 -3.08657E+04 -4.49546E+03 -1.74229E+04 -1.06359E+04
 -8.35281E+03 -1.39787E+04 -1.19507E+03 -1.85433E+04  8.06014E+03 -2.30927E+04  1.55882E+04 -1.33764E+04
  1.15988E+04  5.06323E+03 -8.92383E+03  1.28139E+04 -2.20551E+04 -4.84498E+03 -8.28699E+03 -3.42542E+04
  2.29841E+04 -4.43532E+04  4.89539E+04 -1.94708E+04  4.55859E+04  2.01416E+04  1.61018E+04  4.45665E+04
 -1.55536E+04  3.41843E+04 -2.56750E+04  2.29019E+03 -1.05186E+04 -2.75983E+04  2.13341E+04 -3.43028E+04
  4.14202E+04 -9.57219E+03  3.69133E+04  2.41524E+04  1.95148E+04  4.80428E+04 -7.73451E+03  5.10375E+04
 -3.29441E+04  3.51751E+04 -4.34130E+04  9.80025E+03 -4.38260E+04 -1.68090E+04 -2.39224E+04 -3.87621E+04
  7.07712E+03 -3.85747E+04  3.21166E+04 -1.51678E+04  3.01159E+04  1.07220E+04  4.30902E+03  1.99054E+04
 -1.36132E+04  8.08287E+03 -1.04249E+04 -7.13148E+03  5.68968E+03 -1.09128E+04  1.78927E+04  5.86124E+03
  1.32502E+04  2.16214E+04 -6.02352E+03  2.61673E+04 -2.31885E+04  1.24417E+04 -2.92340E+04 -4.84523E+03
 -2.21945E+04 -1.73679E+04 -8.66447E+03 -2.14617E+04  3.97359E+03 -2.08844E+04  1.67589E+04 -1.96499E+04
  2.69089E+04 -1.33925E+04  3.30766E+04  2.36796E+03  2.44935E+04  2.12959E+04  4.57411E+03  3.67756E+04
 -1.78887E+04  3.09579E+04 -2.86214E+04  1.06834E+04 -2.09290E+04 -1.08345E+04 -4.85903E+03 -1.32879E+04
  1.03598E+03 -1.91002E+03 -5.56461E+03  7.47327E+03 -1.77477E+04  6.06449E+03 -1.76806E+04 -7.15393E+03
 -1.04597E+04 -1.95587E+04  6.00284E+03 -2.41837E+04  1.62027E+04 -1.76242E+04  1.87732E+04 -1.66572E+03
  1.17927E+04  1.42942E+04 -1.37219E+03  1.98936E+04 -1.38581E+04  1.07378E+04 -2.01207E+04 -3.91588E+03
 -1.46949E+04 -1.75284E+04 -1.44437E+03 -2.39623E+04  1.10966E+04 -1.96761E+04  2.03292E+04 -1.05181E+04
  1.78155E+04 -5.55224E+02  1.30941E+04  4.29738E+03  6.93853E+03  7.34571E+02  1.02031E+04 -1.64411E+03
  1.87665E+04  2.71212E+03  2.02458E+04  1.61086E+04  1.37398E+04  3.16675E+04 -3.70811E+03  3.66114E+04
 -2.14182E+04  2.89922E+04 -3.34745E+04  1.47706E+04 -3.54990E+04 -2.88966E+03 -2.95137E+04 -2.05605E+04
 -1.29242E+04 -2.88958E+04  1.02439E+04 -2.68115E+04  2.24270E+04 -1.35731E+04  2.05129E+04  5.83058E+03
  7.65006E+03  1.53825E+04 -1.00185E+04  1.32824E+04 -1.66617E+04  2.83864E+03 -1.22928E+04 -1.01140E+04
 -6.92049E+02 -1.62300E+04  8.59630E+03 -1.25483E+04  1.02688E+04 -1.48889E+03  2.26638E+03  7.23653E+03
 -7.65811E+03  2.26251E+03 -6.50026E+03 -5.84260E+03 -1.05434E+03 -1.46211E+04  9.96998E+03 -1.52892E+04
  1.81015E+04 -8.56259E+03  1.93663E+04  2.75419E+03  1.70893E+04  1.47837E+04  8.23695E+03  2.20516E+04
 -3.02927E+03  2.40899E+04 -1.54923E+04  1.45716E+04 -1.71004E+04  3.22876E+03 -1.21208E+04 -3.86272E+03
 -5.71151E+03 -5.29741E+03 -4.85350E+02  5.18075E+02 -1.88869E+03  2.37572E+03 -5.64961E+03  4.36463E+03
 -1.12968E+04 -4.85722E+02 -1.15853E+04 -9.37075E+03 -4.83289E+03 -1.55703E+04  5.75573E+03 -1.23246E+04
  1.04223E+04 -5.15438E+03  7.14337E+03  2.88666E+03  7.91111E+02  4.71040E+03 -5.53893E+03  5.74248E+02
 -6.09844E+03 -8.05552E+03 -8.39758E+02 -1.16482E+04  6.60436E+03 -1.26742E+04  1.49837E+04 -6.67849E+03
  1.76599E+04  1.63193E+03  1.32537E+04  1.06593E+04  2.68301E+03  1.37312E+04 -7.32159E+03  1.24490E+04
 -9.87914E+03  3.12892E+03 -5.05709E+03 -2.34749E+03  2.28468E+03 -3.13507E+03  6.63171E+03 -9.20393E+02
  5.65343E+03  5.51373E+03  1.58455E+03  9.56703E+03 -5.73456E+03  9.58061E+03 -1.19128E+04  1.85131E+03
 -7.84637E+03 -5.84378E+03  4.75538E+02 -1.05127E+04  5.97015E+03 -5.12400E+03  7.19305E+03  2.32780E+03
  1.65018E+03  6.97643E+03 -6.40318E+03  7.76000E+03 -9.39142E+03  3.68238E+03 -8.97677E+03 -3.37961E+03
 -5.08349E+03 -1.07869E+04  3.37867E+03 -1.26662E+04  1.06690E+04 -7.45266E+03  1.12803E+04  1.84866E+03
  8.10569E+03  9.46013E+03 -9.70219E+02  1.17407E+04 -8.09940E+03  6.43304E+03 -8.38956E+03 -1.71207E+03
 -8.25704E+03 -7.78663E+03 -1.29150E+03 -8.98307E+03  4.77861E+03 -7.37207E+03  4.72523E+03 -3.37374E+03
  3.49677E+03  1.33390E+03 -8.36941E+02  1.33933E+03 -7.43045E+02 -1.91662E+03  1.93096E+03 -4.28644E+03
  8.06644E+03 -2.90002E+03  1.01881E+04  1.36650E+03  1.08590E+04  7.29462E+03  7.26783E+03  1.35711E+04
 -3.47461E+03  1.62912E+04 -1.32150E+04  1.20143E+04 -1.77939E+04  2.12523E+03 -1.42247E+04 -5.90656E+03
 -8.04340E+03 -1.08720E+04  2.77961E+02 -9.33437E+03  3.42474E+03 -5.30099E+03  3.62554E+03 -3.33051E+03
  2.30780E+03 -2.13525E+03  2.88758E+03 -2.72221E+03  4.38902E+03 -2.16979E+03  5.91276E+03 -4.25515E+02
  7.51183E+03  1.58931E+03  3.42094E+03  5.76206E+03 -1.39379E+03  6.76546E+03 -7.74189E+03  5.28102E+03
 -9.41719E+03 -1.18136E+03 -5.27260E+03 -6.29021E+03 -8.51728E+02 -1.03503E+04  5.38619E+03 -1.01102E+04
  1.02282E+04 -5.78893E+03  1.34577E+04  1.17812E+03  9.45865E+03  8.50100E+03  2.13844E+03  1.20632E+04
 -3.62255E+03  9.99996E+03 -6.66527E+03  3.21760E+03 -4.61695E+03 -1.08562E+03 -2.17697E+03 -1.57172E+03
 -4.52840E+02 -2.58986E+01 -1.62327E+03  2.17219E+03 -3.91708E+03  1.54550E+03 -6.47211E+03 -1.08046E+03
 -4.51804E+03 -6.83244E+03 -1.41080E+02 -9.21939E+03  5.29579E+03 -8.26284E+03  8.32280E+03 -2.08450E+03
  8.10502E+03  4.32690E+03  4.44392E+03  7.37270E+03 -1.90505E+03  9.08791E+03 -6.62645E+03  6.04997E+03
 -8.30936E+03 -4.06779E+01 -6.47767E+03 -5.59686E+03 -5.12695E+02 -7.49027E+03  3.39683E+03 -5.78620E+03
  5.22634E+03 -1.48802E+03  4.29969E+03  1.13710E+03  1.04730E+03  2.54768E+03  1.61039E+03  1.26937E+03
  2.91620E+03  1.45197E+02  2.46194E+03  1.31409E+03  2.24202E+03  3.44548E+03  1.87926E+03  4.13797E+03
 -1.70254E+03  7.21163E+03 -6.43522E+03  7.47819E+03 -7.86614E+03  1.92367E+03 -9.14457E+03 -2.58567E+03
 -4.42004E+03 -8.46249E+03  1.48870E+03 -9.82263E+03  5.08089E+03 -6.12130E+03  7.07624E+03 -1.89835E+03
  5.83530E+03  3.78927E+03  1.36265E+03  5.09309E+03 -1.81350E+03  3.91660E+03 -2.98847E+03  2.53173E+02
 -1.98609E+03 -4.21466E+03  2.59095E+03 -4.01208E+03  2.97733E+03 -2.09531E+03  3.38061E+03  8.24286E+02
  1.48408E+03  1.95095E+03  7.86779E+02  7.07970E+02 -4.56286E+02  1.22990E+03  1.56928E+03 -4.55693E+02
  1.24110E+03 -5.59704E+02  4.42494E+03  2.20022E+03  1.63734E+03  4.81027E+03 -1.40800E+02  5.91408E+03
 -3.98203E+03  3.49406E+03 -5.12922E+03  1.06563E+03 -5.83569E+03 -2.54391E+03 -1.69789E+03 -2.61891E+03
  2.34067E+01 -3.52275E+03  2.29744E+03 -1.31447E+03  1.88514E+03  2.00318E+03 -7.63751E+02  2.81778E+03
 -3.05832E+03  1.71705E+03 -4.05390E+03 -2.05995E+03 -1.62165E+03 -4.76633E+03  5.95990E+02 -4.66701E+03
  2.51628E+03 -2.11095E+03  2.74253E+03 -3.00352E+02  3.31514E+03  8.45848E+02  1.64230E+02  2.77589E+03
 -1.48160E+03  6.05781E+02 -2.45956E+03 -1.80299E+03  5.83315E+02 -3.65828E+03  4.03468E+03 -2.98969E+03
  4.67580E+03  7.80333E+02  4.92721E+03  2.74087E+03  1.76300E+03  5.38571E+03 -1.13225E+03  5.09429E+03
 -3.75789E+03  2.09796E+03 -4.12712E+03 -8.64087E+02 -2.06475E+03 -3.38742E+03  8.31342E+02 -2.11993E+03
  3.09038E+03 -2.00440E+03  1.77865E+03  1.09702E+03  9.71900E+02  3.12829E+03 -1.67676E+02  2.49312E+03
 -1.13096E+03  1.98126E+03 -1.79354E+03  5.19274E+02  1.67526E+02  7.38937E+00 -1.17833E+03  8.73527E+02
 -1.10718E+03  2.04280E+03 -3.05413E+03  2.12780E+03 -4.64632E+03  4.74924E+02 -6.09935E+03 -3.71616E+03
 -3.73293E+03 -6.78344E+03  9.12115E+02 -8.70566E+03  4.33898E+03 -6.54773E+03  7.69165E+03 -2.54406E+03
  6.86274E+03  6.16787E+02  3.85073E+03  4.56078E+03  1.36830E+02  5.09208E+03 -1.68271E+03  3.91039E+03
 -2.78483E+03  1.68914E+03 -2.18706E+03 -9.45162E+02 -1.09450E+03 -7.38393E+01 -1.41912E+03 -1.86489E+01
 -1.85344E+03  1.56414E+02 -9.63239E+02 -4.59621E+01  6.98430E+02 -1.06611E+03 -7.55614E+02 -2.16265E+03
  2.08627E+03 -1.22589E+03  2.97052E+03  1.95737E+02  3.66972E+03  2.41345E+03 -9.17893E+01  4.35538E+03
 -2.58869E+03  5.61168E+03 -5.33354E+03  3.13849E+03 -5.81408E+03 -5.24997E+02 -4.44314E+03 -2.97676E+03
 -1.93902E+03 -5.04452E+03  5.94151E+02 -4.05547E+03  2.74784E+03 -2.17260E+03  2.95154E+03  7.61167E+01
  2.33081E+03  1.78630E+03  9.63249E+01  1.73296E+03 -1.32624E+03 -3.75549E+01 -6.45362E+01 -7.01586E+02
  1.87013E+03 -3.11197E+01  1.51843E+03  4.45613E+02  4.54770E+02  1.39665E+03 -5.76028E+01  2.10496E+03
 -2.18741E+03  2.56408E+03 -2.31829E+03  7.67748E+02 -2.34753E+03 -1.98936E+03  2.78415E+01 -3.83959E+03
  1.76416E+03 -2.97147E+03  2.79076E+03 -8.67390E+02  3.66391E+03 -3.77490E+02  1.87931E+03  2.78093E+03
  3.81058E+01  3.15389E+03 -7.51516E+02  2.30968E+03 -2.45732E+03  1.21132E+03 -1.83209E+03 -2.12787E+02
 -7.62747E+02  6.61526E+01 -1.52372E+03  4.71199E+02 -1.91982E+03  7.41878E+02 -2.34006E+03  4.43700E+02
 -2.76893E+03 -9.52135E+02 -3.12759E+02 -3.38497E+03  1.51661E+03 -3.82168E+03  3.30623E+03 -1.59255E+03
  3.18945E+03  8.35358E+02  1.10209E+03  2.17775E+03  1.10101E+02  2.70757E+03 -2.34223E+03  1.84632E+03
