 $NMID ID='MM_0lb_SNR400_13hz_g40_85.RAW', FMTDAT='(8E13.5)'
 TRAMP=1., VOLUME=1. $END
  3.09587E+05  2.59286E+02  3.38359E+05  2.50792E+05  8.45662E+04  3.37570E+05 -1.32079E+05  2.50369E+05
 -1.89858E+05  8.30866E+04 -1.12095E+05 -3.22274E+04  1.04120E+03 -5.00758E+04  5.45775E+04 -2.89371E+02
  3.54416E+04  5.29560E+04 -1.70265E+04  7.55535E+04 -6.07135E+04  6.32463E+04 -8.47586E+04  3.16024E+04
 -8.11684E+04 -1.16364E+04 -5.68408E+04 -5.18906E+04 -1.51592E+04 -6.98322E+04  2.66177E+04 -4.59369E+04
  4.00753E+04  3.50163E+03  1.58271E+04  4.78871E+04 -3.43617E+04  4.73362E+04 -6.64989E+04 -3.48195E+02
 -5.34100E+04 -5.68766E+04 -6.44279E+03 -7.65695E+04  3.37423E+04 -5.53451E+04  4.78255E+04 -1.70312E+04
  4.35675E+04  1.06875E+04  3.13688E+04  2.51561E+04  1.51931E+04  2.91291E+04 -5.34655E+03  2.73425E+04
 -2.22861E+04  1.21697E+04 -1.85179E+04 -4.60968E+03  5.76500E+03 -7.50306E+03  2.27093E+04  1.24425E+04
  7.80135E+03  3.52923E+04 -3.18796E+04  3.55659E+04 -6.34664E+04  2.10965E+03 -5.71370E+04 -4.27805E+04
 -1.22385E+04 -6.29625E+04  3.95426E+04 -4.54863E+04  5.79385E+04 -2.10710E+03  3.45443E+04  3.28174E+04
 -5.93236E+03  3.56164E+04 -2.97325E+04  1.56749E+04 -3.05427E+04 -4.10535E+03 -1.64886E+04 -1.12383E+04
 -7.93419E+03 -1.31805E+04 -8.85914E+02 -1.84469E+04  7.22652E+03 -2.29688E+04  1.55644E+04 -1.33768E+04
  1.19084E+04  4.70161E+03 -7.99427E+03  1.29094E+04 -2.12139E+04 -4.43730E+03 -7.69668E+03 -3.39235E+04
  2.25992E+04 -4.37057E+04  4.84366E+04 -1.97716E+04  4.46192E+04  1.95008E+04  1.51857E+04  4.44705E+04
 -1.55795E+04  3.24535E+04 -2.51578E+04  1.27878E+03 -9.38257E+03 -2.76172E+04  2.09597E+04 -3.39737E+04
  4.06820E+04 -9.25269E+03  3.59659E+04  2.42103E+04  1.80943E+04  4.63421E+04 -7.70612E+03  5.08940E+04
 -3.15699E+04  3.37232E+04 -4.15457E+04  9.57997E+03 -4.22017E+04 -1.62031E+04 -2.34543E+04 -3.71200E+04
  7.66820E+03 -3.73971E+04  3.12477E+04 -1.43269E+04  2.94082E+04  1.00558E+04  4.44789E+03  1.91877E+04
 -1.34764E+04  7.34582E+03 -1.01902E+04 -7.60888E+03  6.21819E+03 -1.07923E+04  1.77350E+04  6.10974E+03
  1.39180E+04  2.20753E+04 -5.73919E+03  2.50098E+04 -2.22276E+04  1.12953E+04 -2.70912E+04 -4.77896E+03
 -2.09011E+04 -1.77136E+04 -8.25330E+03 -2.05816E+04  4.26716E+03 -1.96781E+04  1.58355E+04 -1.84508E+04
  2.64234E+04 -1.30403E+04  3.25310E+04  2.69510E+03  2.38963E+04  1.96574E+04  4.19887E+03  3.65781E+04
 -1.71673E+04  3.02760E+04 -2.86136E+04  1.09248E+04 -2.09857E+04 -1.04522E+04 -4.71472E+03 -1.37677E+04
  1.65859E+03 -3.09278E+03 -4.16523E+03  6.65003E+03 -1.63961E+04  5.40300E+03 -1.60085E+04 -6.75495E+03
 -9.78894E+03 -1.91070E+04  5.20863E+03 -2.30306E+04  1.56254E+04 -1.65881E+04  1.84413E+04 -2.27249E+03
  1.12199E+04  1.38553E+04 -1.07926E+03  1.87419E+04 -1.28833E+04  1.08348E+04 -1.85393E+04 -4.31090E+03
 -1.34145E+04 -1.73997E+04 -2.09067E+03 -2.24392E+04  1.05597E+04 -1.94199E+04  1.95401E+04 -9.61493E+03
  1.71835E+04  1.80236E+02  1.28253E+04  4.04404E+03  5.93474E+03  9.50056E+02  9.61892E+03 -1.55930E+03
  1.67494E+04  2.68001E+03  1.98258E+04  1.45662E+04  1.31697E+04  3.04477E+04 -2.51061E+03  3.40872E+04
 -1.99575E+04  2.76497E+04 -3.15820E+04  1.40035E+04 -3.40609E+04 -2.34680E+03 -2.80461E+04 -2.03968E+04
 -1.21016E+04 -2.79509E+04  1.00888E+04 -2.50768E+04  2.15274E+04 -1.31688E+04  1.92165E+04  5.45861E+03
  7.62869E+03  1.44218E+04 -8.84946E+03  1.26049E+04 -1.62489E+04  2.12351E+03 -1.27535E+04 -9.68825E+03
  5.75994E+02 -1.56804E+04  7.68332E+03 -1.19770E+04  1.06220E+04 -1.27696E+03  1.98762E+03  6.56678E+03
 -6.66338E+03  2.82702E+03 -6.29262E+03 -5.69988E+03  1.56912E+02 -1.37576E+04  9.94543E+03 -1.38229E+04
  1.69208E+04 -7.00920E+03  1.85495E+04  2.81301E+03  1.58003E+04  1.36855E+04  6.65428E+03  2.04119E+04
 -3.35035E+03  2.22649E+04 -1.41765E+04  1.43789E+04 -1.62805E+04  3.56838E+03 -1.08141E+04 -3.45765E+03
 -5.66302E+03 -4.83385E+03 -1.10846E+03  1.03055E+03 -2.53576E+03  2.61740E+03 -5.74212E+03  4.43693E+03
 -1.07294E+04 -5.03548E+02 -1.19054E+04 -9.31026E+03 -3.72638E+03 -1.50598E+04  4.86164E+03 -1.19433E+04
  9.31614E+03 -5.71187E+03  7.20837E+03  2.90540E+03  8.82456E+02  4.64698E+03 -4.85248E+03 -5.50369E+01
 -4.99785E+03 -7.14462E+03 -9.66548E+02 -1.08011E+04  5.99052E+03 -1.13945E+04  1.38687E+04 -6.05633E+03
  1.66952E+04  1.70964E+03  1.25178E+04  9.63148E+03  2.30626E+03  1.25245E+04 -6.77705E+03  1.16326E+04
 -9.89595E+03  3.57088E+03 -4.45532E+03 -2.41891E+03  1.53956E+03 -3.18843E+03  5.80662E+03 -1.86419E+03
  4.78641E+03  5.06747E+03  1.43515E+03  8.42209E+03 -6.25877E+03  8.96992E+03 -1.14285E+04  2.29888E+03
 -7.29240E+03 -5.80715E+03  4.58537E+02 -1.01187E+04  5.90123E+03 -4.46542E+03  5.96807E+03  2.07362E+03
  1.61642E+03  6.24061E+03 -5.46526E+03  7.90017E+03 -8.16546E+03  2.90778E+03 -8.87690E+03 -2.60411E+03
 -4.86152E+03 -1.05269E+04  2.43592E+03 -1.15549E+04  9.87387E+03 -7.36979E+03  1.07140E+04  1.52027E+03
  6.83373E+03  8.53366E+03 -3.46363E+02  1.07470E+04 -7.95402E+03  6.29885E+03 -7.99727E+03 -1.22377E+03
 -7.54836E+03 -7.15671E+03 -1.66078E+03 -8.45423E+03  4.76810E+03 -6.76758E+03  5.00291E+03 -3.13314E+03
  3.69643E+03  9.91192E+02 -9.98669E+02  1.54970E+03  3.64016E+02 -1.64387E+03  1.33675E+03 -4.92512E+03
  7.22120E+03 -2.47376E+03  9.29894E+03  1.23041E+03  9.24474E+03  5.78314E+03  7.07648E+03  1.35846E+04
 -2.53237E+03  1.54129E+04 -1.27012E+04  1.12396E+04 -1.74181E+04  1.68771E+03 -1.33286E+04 -5.84073E+03
 -6.00084E+03 -1.05266E+04 -6.24013E+02 -9.60544E+03  3.93112E+03 -3.99280E+03  3.06345E+03 -4.03030E+03
  2.94738E+03 -1.88619E+03  2.83134E+03 -2.97020E+03  4.27524E+03 -2.05658E+03  5.54461E+03 -4.05264E+02
  7.12520E+03  2.01716E+03  3.07879E+03  6.13975E+03 -1.72853E+03  6.65555E+03 -7.43770E+03  5.07296E+03
 -9.21862E+03 -1.10052E+03 -4.47300E+03 -6.57141E+03  2.84774E+02 -9.44822E+03  5.04198E+03 -9.86947E+03
  1.01513E+04 -5.67664E+03  1.16869E+04  1.07535E+03  8.04189E+03  8.06812E+03  1.12952E+03  1.08750E+04
 -4.32584E+03  9.76378E+03 -6.36462E+03  3.39030E+03 -4.37607E+03 -1.16751E+03 -1.71125E+03 -7.82032E+02
 -1.25553E+03  1.94422E+02 -1.48724E+03  2.41494E+03 -4.15543E+03  1.07040E+03 -7.16616E+03 -1.20917E+03
 -4.62171E+03 -7.01854E+03  5.12797E+02 -9.19272E+03  4.93927E+03 -8.29026E+03  8.16624E+03 -2.00805E+03
  8.45286E+03  4.30905E+03  3.86537E+03  7.50167E+03 -2.06241E+03  8.74641E+03 -5.94967E+03  4.92916E+03
 -7.63793E+03  3.62463E+02 -6.18519E+03 -5.06759E+03 -1.34214E+03 -6.65644E+03  3.41354E+03 -5.45122E+03
  5.72408E+03 -2.03410E+03  3.08436E+03  1.45319E+03  9.18568E+02  3.05913E+03  1.64640E+03  5.52530E+02
  2.20840E+03  1.45745E+02  1.60782E+03  1.33613E+03  2.54574E+03  3.38648E+03  2.76593E+03  4.28134E+03
 -2.11958E+03  6.46131E+03 -5.55391E+03  6.68558E+03 -8.41950E+03  1.08614E+03 -8.97068E+03 -2.52393E+03
 -3.99282E+03 -8.18731E+03  1.61260E+03 -9.01243E+03  4.92377E+03 -5.23035E+03  6.78151E+03 -1.40250E+03
  4.74291E+03  3.54964E+03  1.40276E+03  4.51182E+03 -1.94036E+03  2.84999E+03 -2.95347E+03 -3.29784E+02
 -1.36063E+03 -3.72936E+03  1.33856E+03 -3.33623E+03  3.16339E+03 -1.52421E+03  3.05311E+03  3.50959E+02
  1.83793E+03  1.00477E+03  1.76253E+03  9.34164E+02 -4.37930E+02  2.09826E+03  1.89099E+03 -3.97208E+02
  1.44089E+03 -1.88843E+02  3.57449E+03  1.49105E+03  1.32001E+03  4.38275E+03 -5.14888E+02  5.57855E+03
 -3.31622E+03  3.75990E+03 -5.30110E+03  1.84947E+03 -4.62098E+03 -1.59097E+03 -1.26912E+03 -2.91682E+03
  2.21070E+02 -2.93308E+03  2.21366E+03 -1.55629E+03  1.89920E+03  2.00147E+03 -1.31555E+03  2.71964E+03
 -3.59191E+03  1.38791E+03 -3.79555E+03 -2.32685E+03 -2.08155E+03 -4.72204E+03  5.17890E+02 -4.55559E+03
  1.75019E+03 -2.88996E+03  2.84940E+03 -7.22173E+02  3.17226E+03  7.71934E+02  5.84878E+02  3.44665E+03
 -1.98677E+03  3.93496E+02 -1.55093E+03 -7.92852E+02  7.93193E+02 -2.76395E+03  3.67900E+03 -2.39352E+03
  4.81342E+03  7.28932E+02  4.89668E+03  2.87112E+03  2.25489E+03  4.71760E+03 -1.93931E+03  3.80332E+03
 -4.25259E+03  1.63779E+03 -4.10705E+03 -9.61678E+02 -2.26089E+03 -3.99386E+03  2.60442E+02 -2.62294E+03
  3.75187E+03 -1.55069E+03  2.88999E+03  1.22460E+03  7.55311E+02  2.50139E+03 -1.15195E+02  2.53991E+03
 -9.74162E+02  2.12314E+03 -9.76409E+02  9.72773E+02  7.40180E-01  5.98224E+02 -9.28655E+02  8.45447E+02
 -1.28446E+03  2.21099E+03 -3.19634E+03  1.97461E+03 -4.64407E+03 -9.31797E+01 -5.30514E+03 -3.44681E+03
 -2.57828E+03 -6.28215E+03  1.01522E+03 -7.42218E+03  4.01946E+03 -6.17097E+03  7.00363E+03 -2.25696E+03
  6.45449E+03  1.31228E+03  3.41601E+03  4.24683E+03 -3.74926E+02  5.04221E+03 -2.29751E+03  3.30116E+03
 -2.68724E+03  1.69638E+03 -1.53674E+03 -1.01814E+03 -8.24681E+02 -6.89302E+02 -3.51484E+02 -3.18053E+01
 -5.93672E+02 -1.87507E+02 -1.75664E+03  4.64775E+02  4.89926E+02 -4.37477E+02  7.56382E+01 -1.81184E+03
  2.24293E+03 -1.06517E+03  3.20257E+03  7.70463E+02  3.24695E+03  2.60096E+03  3.61410E+01  4.97706E+03
 -2.40913E+03  5.31155E+03 -4.92147E+03  3.03259E+03 -4.96325E+03 -8.28734E+02 -4.36981E+03 -3.59271E+03
 -2.15248E+03 -5.07384E+03  1.23391E+03 -4.41509E+03  3.22663E+03 -1.49557E+03  2.38726E+03  4.06135E+02
  2.18825E+03  8.62313E+02  7.11934E+02  1.58795E+03 -1.09787E+03 -1.23246E+02  2.20286E+01 -1.45706E+03
  1.26175E+03 -3.34548E+02  1.96263E+03  8.54965E+02  7.42377E+02  1.81500E+03 -4.25863E+02  1.79094E+03
 -2.15092E+03  2.35901E+03 -2.73846E+03  4.93724E+02 -1.99886E+03 -1.61689E+03 -1.99580E+02 -3.91602E+03
  2.01234E+03 -3.27878E+03  2.91800E+03 -8.01224E+02  3.26457E+03 -9.53356E+01  1.84825E+03  2.89969E+03
  8.17541E+02  2.88553E+03 -1.41080E+03  2.11734E+03 -1.56633E+03  1.35100E+03 -1.69629E+03 -4.98418E+02
 -6.21597E+02  3.16531E+02 -6.01628E+02  6.29872E+02 -1.69949E+03  5.99418E+02 -2.42657E+03 -8.51212E+02
 -2.91473E+03 -1.73292E+03 -7.68578E+02 -3.17768E+03  1.42665E+03 -3.30913E+03  2.74174E+03 -1.97297E+03
  2.74185E+03  6.67462E+02  1.16357E+03  1.60537E+03 -3.93631E+02  2.50344E+03 -2.06699E+03  1.98800E+03
