 $NMID ID='MM_0lb_SNR400_15hz_g45_73.RAW', FMTDAT='(8E13.5)'
 TRAMP=1., VOLUME=1. $END
  3.10270E+05  4.38671E+02  3.38115E+05  2.50712E+05  8.44153E+04  3.37724E+05 -1.32103E+05  2.50840E+05
 -1.89454E+05  8.27579E+04 -1.10994E+05 -3.33861E+04  1.04769E+03 -5.00578E+04  5.29300E+04  7.85478E+01
  3.54768E+04  5.29270E+04 -1.64770E+04  7.61016E+04 -6.02253E+04  6.32830E+04 -8.35245E+04  3.18285E+04
 -8.01632E+04 -1.09221E+04 -5.59184E+04 -5.06361E+04 -1.46828E+04 -6.91173E+04  2.69661E+04 -4.56750E+04
  4.04455E+04  3.77232E+03  1.64390E+04  4.80141E+04 -3.48318E+04  4.70577E+04 -6.63681E+04 -3.49362E+02
 -5.27406E+04 -5.75424E+04 -6.45033E+03 -7.59984E+04  3.40264E+04 -5.40600E+04  4.74447E+04 -1.71585E+04
  4.29443E+04  1.14271E+04  3.19117E+04  2.50925E+04  1.60162E+04  2.93774E+04 -4.76256E+03  2.69542E+04
 -2.20265E+04  1.25438E+04 -1.85115E+04 -4.50723E+03  5.44891E+03 -7.29231E+03  2.17558E+04  1.19735E+04
  7.73649E+03  3.43694E+04 -3.17276E+04  3.50909E+04 -6.28744E+04  2.26024E+03 -5.65906E+04 -4.21562E+04
 -1.21578E+04 -6.23693E+04  3.90811E+04 -4.43403E+04  5.73095E+04 -2.43156E+03  3.35009E+04  3.16977E+04
 -6.03043E+03  3.52597E+04 -2.96566E+04  1.44619E+04 -2.90356E+04 -4.64441E+03 -1.54691E+04 -1.13182E+04
 -8.13950E+03 -1.26964E+04 -1.30453E+03 -1.74978E+04  7.10835E+03 -2.27620E+04  1.52066E+04 -1.33996E+04
  1.19306E+04  5.01550E+03 -8.01678E+03  1.30637E+04 -2.06540E+04 -4.13919E+03 -8.23508E+03 -3.25899E+04
  2.19166E+04 -4.21724E+04  4.70792E+04 -1.95540E+04  4.45466E+04  1.88054E+04  1.57747E+04  4.38022E+04
 -1.57962E+04  3.28324E+04 -2.48359E+04  1.32957E+03 -9.76291E+03 -2.76660E+04  2.04941E+04 -3.32297E+04
  4.00993E+04 -8.67269E+03  3.45536E+04  2.37414E+04  1.69360E+04  4.54704E+04 -8.59496E+03  4.89506E+04
 -3.05820E+04  3.24786E+04 -4.02698E+04  9.49039E+03 -4.12191E+04 -1.60049E+04 -2.29464E+04 -3.59739E+04
  7.18871E+03 -3.65294E+04  3.04900E+04 -1.36793E+04  2.84174E+04  1.04708E+04  3.12432E+03  1.91141E+04
 -1.32092E+04  8.35982E+03 -9.56234E+03 -8.11698E+03  6.41103E+03 -1.02201E+04  1.72868E+04  6.67642E+03
  1.30175E+04  2.16956E+04 -6.08699E+03  2.43140E+04 -2.25494E+04  1.08523E+04 -2.74560E+04 -5.37024E+03
 -1.90625E+04 -1.69800E+04 -7.64484E+03 -1.94379E+04  3.86085E+03 -1.77089E+04  1.48841E+04 -1.70252E+04
  2.45912E+04 -1.23639E+04  3.08260E+04  2.18018E+03  2.28420E+04  1.91291E+04  4.37947E+03  3.51128E+04
 -1.72894E+04  2.94973E+04 -2.68975E+04  1.00699E+04 -1.96911E+04 -1.06776E+04 -4.53402E+03 -1.32051E+04
  1.90837E+03 -3.11543E+03 -3.96054E+03  6.96394E+03 -1.49597E+04  4.94837E+03 -1.53485E+04 -6.88949E+03
 -9.59614E+03 -1.74568E+04  5.27341E+03 -2.20614E+04  1.51782E+04 -1.65293E+04  1.72836E+04 -1.08164E+03
  1.00981E+04  1.26061E+04 -1.07197E+03  1.80324E+04 -1.13397E+04  9.81193E+03 -1.73303E+04 -3.71300E+03
 -1.34793E+04 -1.64012E+04 -1.12780E+03 -2.14384E+04  9.78385E+03 -1.78881E+04  1.87366E+04 -8.85393E+03
  1.66817E+04  2.75040E+02  1.22762E+04  4.93055E+03  6.38610E+03  7.94720E+02  8.79346E+03 -9.94345E+02
  1.59250E+04  3.18161E+03  1.83895E+04  1.40761E+04  1.14460E+04  2.86302E+04 -2.83294E+03  3.19750E+04
 -1.90130E+04  2.49784E+04 -2.93039E+04  1.24735E+04 -3.04233E+04 -2.49477E+03 -2.58791E+04 -1.73620E+04
 -1.19830E+04 -2.52207E+04  8.47699E+03 -2.24595E+04  2.06889E+04 -1.22769E+04  1.80057E+04  4.95714E+03
  6.62105E+03  1.34869E+04 -7.62222E+03  1.19546E+04 -1.48472E+04  2.39333E+03 -1.18707E+04 -9.20093E+03
 -4.61393E+02 -1.45820E+04  7.56889E+03 -1.11264E+04  9.00278E+03 -1.19219E+03  2.19184E+03  6.65728E+03
 -5.95635E+03  2.48272E+03 -5.16111E+03 -4.86256E+03 -5.45050E+02 -1.25325E+04  9.18466E+03 -1.26408E+04
  1.49010E+04 -6.33300E+03  1.57311E+04  2.66487E+03  1.41387E+04  1.18985E+04  7.27254E+03  1.81401E+04
 -2.26647E+03  2.00895E+04 -1.26439E+04  1.27031E+04 -1.44903E+04  2.73927E+03 -1.02652E+04 -2.77032E+03
 -5.28205E+03 -4.18107E+03 -5.46000E+02  1.12149E+03 -1.71999E+03  2.46688E+03 -4.56477E+03  3.93171E+03
 -9.68230E+03 -1.42431E+02 -9.98375E+03 -9.05035E+03 -4.55557E+03 -1.36884E+04  4.18508E+03 -1.03709E+04
  8.78852E+03 -4.86216E+03  6.27607E+03  2.85921E+03  5.79442E+02  3.84975E+03 -4.03262E+03 -4.58100E+01
 -4.54534E+03 -6.58906E+03 -3.71906E+02 -8.90390E+03  5.47024E+03 -1.03193E+04  1.27160E+04 -5.45438E+03
  1.49376E+04  1.50892E+03  1.07725E+04  8.51151E+03  1.96961E+03  1.13553E+04 -6.33154E+03  1.05444E+04
 -8.45913E+03  3.55374E+03 -4.57183E+03 -2.03800E+03  1.58821E+03 -2.70701E+03  5.78469E+03 -9.71296E+02
  4.61713E+03  4.36896E+03  1.51711E+03  8.22313E+03 -5.17073E+03  7.68881E+03 -1.00506E+04  2.89974E+03
 -6.66109E+03 -4.40543E+03  2.89966E+02 -8.50593E+03  5.72284E+03 -4.51106E+03  5.02247E+03  1.89144E+03
  6.94620E+02  5.12909E+03 -5.11159E+03  5.69769E+03 -6.64929E+03  3.22935E+03 -7.15921E+03 -2.24194E+03
 -4.22383E+03 -8.66838E+03  1.75243E+03 -9.99454E+03  8.65177E+03 -5.88066E+03  8.64075E+03  1.64657E+03
  5.90824E+03  6.99615E+03 -1.85714E+02  9.86901E+03 -6.69203E+03  5.81989E+03 -7.13655E+03 -9.44333E+02
 -7.23658E+03 -7.08439E+03 -1.56229E+03 -7.33292E+03  3.21684E+03 -6.47301E+03  4.05083E+03 -3.30015E+03
  3.72806E+03 -8.71608E+01 -4.48554E+02  8.92791E+02  8.33423E+01 -6.76559E+02  3.40781E+02 -3.12665E+03
  5.59614E+03 -1.75663E+03  8.25412E+03  1.28783E+03  8.61116E+03  5.40474E+03  6.16927E+03  1.09457E+04
 -1.70694E+03  1.18329E+04 -1.11484E+04  8.88076E+03 -1.36515E+04  1.43200E+03 -1.10317E+04 -3.96490E+03
 -6.04193E+03 -9.78678E+03 -1.18879E+03 -7.75581E+03  3.13814E+03 -3.76801E+03  2.24236E+03 -2.39113E+03
  1.57240E+03 -1.99151E+03  2.79958E+03 -3.03272E+03  4.45179E+03 -2.46052E+03  4.25871E+03 -3.72740E+02
  6.33047E+03  1.57775E+03  2.65331E+03  5.30718E+03 -2.01602E+03  5.08481E+03 -6.09673E+03  4.09567E+03
 -7.90489E+03 -6.28532E+02 -4.25204E+03 -5.07171E+03  6.43807E+01 -7.44990E+03  4.25241E+03 -7.69280E+03
  7.67014E+03 -4.74796E+03  1.00527E+04  1.06033E+03  6.83138E+03  6.95307E+03  1.73782E+03  8.51992E+03
 -3.20946E+03  7.71226E+03 -5.36097E+03  3.58358E+03 -3.34122E+03 -1.32512E+03 -1.17843E+03 -1.08738E+03
 -1.08648E+03  3.24465E+02 -1.72220E+03  1.90338E+03 -3.65350E+03  1.75902E+03 -5.75826E+03 -5.97200E+02
 -2.90239E+03 -5.51355E+03  1.08761E+03 -7.18970E+03  4.03469E+03 -6.31642E+03  6.01563E+03 -1.75212E+03
  6.56917E+03  3.49796E+03  3.55954E+03  5.86495E+03 -1.55094E+03  7.05097E+03 -4.51708E+03  4.05912E+03
 -6.26092E+03  8.61576E+02 -5.28203E+03 -3.88985E+03 -2.41760E+02 -5.04241E+03  2.64942E+03 -3.82708E+03
  4.55108E+03 -1.68763E+03  2.49611E+03  8.86546E+02  5.94900E+02  2.70281E+03  9.48239E+02  9.50020E+02
  2.20397E+03  2.80828E+02  1.77444E+03  1.21597E+03  1.89618E+03  2.47894E+03  2.45213E+03  2.79185E+03
 -1.97028E+03  4.97655E+03 -3.73321E+03  5.50236E+03 -5.71872E+03  1.55316E+03 -7.03705E+03 -1.71232E+03
 -3.57800E+03 -6.79103E+03  9.05627E+02 -7.10500E+03  3.96352E+03 -4.08709E+03  5.33048E+03 -1.18101E+03
  3.86714E+03  2.85021E+03  5.78171E+02  3.38647E+03 -1.92308E+03  2.53727E+03 -2.15336E+03 -2.48089E+02
 -9.20597E+02 -2.48630E+03  1.95596E+03 -3.46084E+03  2.03134E+03 -1.61161E+03  2.20774E+03  8.55811E+02
  1.37346E+03  9.64323E+02  1.27630E+03  1.42009E+02 -9.83342E+02  4.80936E+02  2.04896E+03  3.21312E+01
  1.19788E+01 -3.65658E+02  2.52697E+03  1.25046E+03  8.40364E+02  3.41724E+03 -6.26132E+02  4.32659E+03
 -2.75870E+03  2.40229E+03 -4.20476E+03  7.90304E+02 -3.28297E+03 -1.24767E+03 -1.20781E+03 -1.66533E+03
  4.42106E+02 -2.08877E+03  7.90744E+02 -1.37430E+03  9.28063E+02  1.51714E+03 -2.57525E+02  2.14017E+03
 -2.73447E+03  1.29040E+03 -2.68374E+03 -1.79347E+03 -1.01953E+03 -3.53421E+03 -1.21306E+02 -3.01266E+03
  1.69996E+03 -1.70285E+03  1.89762E+03 -3.49491E+01  2.36046E+03  6.69016E+01  2.03015E+02  2.16417E+03
 -1.11751E+03  6.12857E+02 -1.48040E+03 -7.01078E+02  7.56935E+02 -1.75113E+03  3.26702E+03 -1.35558E+03
  2.83988E+03 -3.77250E+02  4.26133E+03  1.33675E+03  1.23705E+03  2.99116E+03 -1.10364E+03  3.64080E+03
 -2.99625E+03  1.50670E+03 -3.29619E+03 -5.36000E+02 -4.23422E+02 -2.67140E+03  3.45811E+02 -1.85275E+03
  2.68491E+03 -8.51471E+02  1.16485E+03  4.29027E+02  6.09250E+02  1.55148E+03  2.47985E+02  2.21743E+03
 -7.66248E+02  1.57723E+03 -6.68027E+02  2.85533E+02 -2.27737E+02  1.11914E+03 -6.17893E+02  1.18502E+03
 -1.36119E+03  1.72092E+03 -2.84950E+03  1.12647E+03 -3.51357E+03 -5.62321E+00 -4.13997E+03 -1.58803E+03
 -1.37246E+03 -4.58310E+03  1.04636E+03 -4.83446E+03  2.88260E+03 -4.67489E+03  4.91681E+03 -1.67113E+03
  4.63181E+03  7.36306E+02  2.27235E+03  3.35745E+03 -9.43669E+01  3.11883E+03 -1.04004E+03  2.29638E+03
 -2.25654E+03  1.23330E+03 -1.68719E+03 -5.07188E+02  3.03901E+02 -2.41014E+02 -1.88846E+02  1.31222E+02
 -1.52515E+03 -2.95551E+02 -7.56947E+02 -4.04214E+02  6.92342E+01 -9.02422E+02 -2.70017E+02 -1.40374E+03
  1.68238E+03 -1.21567E+03  2.06573E+03  2.36612E+02  2.37267E+03  1.37386E+03 -4.53307E+02  2.99577E+03
 -1.91601E+03  3.58925E+03 -3.38781E+03  2.27875E+03 -4.00799E+03 -5.90070E+02 -2.85612E+03 -2.43059E+03
 -1.88172E+03 -2.79752E+03  4.17527E+02 -3.04947E+03  1.91081E+03 -1.28394E+03  1.76485E+03  2.98374E+02
  1.47027E+03  1.36234E+03  5.00362E+02  1.44921E+03 -7.21181E+02  2.15851E+01  1.50786E+02 -3.27055E+02
  9.62664E+02  2.06539E+02  1.14588E+03  5.24911E+02  8.92061E+02  1.17874E+03  2.04553E+02  1.18219E+03
 -9.23267E+02  1.66697E+03 -1.84645E+03  4.68859E+02 -1.37394E+03 -1.07878E+03  8.59141E+00 -2.15376E+03
  1.38579E+03 -1.74350E+03  1.86998E+03 -3.96338E+02  2.30388E+03 -5.73559E+02  1.26993E+03  1.80023E+03
  1.11243E+03  2.32119E+03 -2.93379E+02  1.28641E+03 -1.13085E+03  6.89273E+02 -1.33606E+03  6.25090E+02
 -5.45532E+02 -4.46184E+01 -4.02938E+02  1.56592E+02 -1.13976E+03 -2.14536E+02 -1.00838E+03 -9.91422E+01
 -1.84793E+03 -6.13211E+02 -3.98510E+02 -1.09763E+03  1.09607E+03 -2.90646E+03  1.98803E+03 -1.58446E+03
  1.81110E+03  8.60077E+01  6.19238E+02  9.75616E+02 -2.20298E+02  2.47766E+03 -1.66202E+03  9.93184E+02
