 $NMID ID='MM_0lb_SNR400_19hz_g55_53.RAW', FMTDAT='(8E13.5)'
 TRAMP=1., VOLUME=1. $END
  3.09750E+05  3.25966E+01  3.37514E+05  2.50545E+05  8.38405E+04  3.37477E+05 -1.32573E+05  2.50942E+05
 -1.89906E+05  8.26862E+04 -1.11367E+05 -3.25020E+04  1.06712E+03 -5.00760E+04  5.34862E+04  4.29410E+02
  3.54365E+04  5.25603E+04 -1.73722E+04  7.48030E+04 -6.04965E+04  6.32859E+04 -8.31363E+04  3.18356E+04
 -7.97400E+04 -1.11004E+04 -5.62102E+04 -5.06402E+04 -1.52778E+04 -6.85084E+04  2.67450E+04 -4.47924E+04
  3.91091E+04  3.97939E+03  1.61032E+04  4.73715E+04 -3.40953E+04  4.68671E+04 -6.54338E+04 -7.43053E+02
 -5.24484E+04 -5.58347E+04 -6.16462E+03 -7.57243E+04  3.36033E+04 -5.33682E+04  4.68060E+04 -1.60096E+04
  4.22822E+04  1.08529E+04  3.10748E+04  2.50598E+04  1.56203E+04  2.91156E+04 -4.49291E+03  2.72903E+04
 -2.18208E+04  1.30881E+04 -1.87756E+04 -4.82078E+03  4.78156E+03 -7.29877E+03  2.17195E+04  1.13312E+04
  7.62622E+03  3.37349E+04 -3.09149E+04  3.43218E+04 -6.19431E+04  1.80729E+03 -5.63047E+04 -4.17972E+04
 -1.23521E+04 -6.10758E+04  3.87162E+04 -4.36760E+04  5.67994E+04 -1.61269E+03  3.28009E+04  3.09796E+04
 -5.78382E+03  3.37025E+04 -2.89003E+04  1.40300E+04 -2.89775E+04 -5.02623E+03 -1.48114E+04 -1.04116E+04
 -7.96258E+03 -1.22035E+04 -8.59609E+02 -1.63769E+04  7.37927E+03 -2.28211E+04  1.46674E+04 -1.34014E+04
  1.19529E+04  4.40104E+03 -6.69619E+03  1.26953E+04 -1.99176E+04 -2.80351E+03 -8.23602E+03 -3.07868E+04
  2.10268E+04 -4.13983E+04  4.52143E+04 -1.88771E+04  4.24827E+04  1.84904E+04  1.46969E+04  4.24447E+04
 -1.56791E+04  3.15494E+04 -2.32303E+04  1.14503E+03 -8.84876E+03 -2.60008E+04  2.04446E+04 -3.19061E+04
  3.84609E+04 -7.14717E+03  3.21644E+04  2.27001E+04  1.60987E+04  4.32550E+04 -7.80157E+03  4.66313E+04
 -2.96817E+04  3.05512E+04 -3.82064E+04  8.43834E+03 -3.94298E+04 -1.57382E+04 -2.16972E+04 -3.45632E+04
  7.13700E+03 -3.46216E+04  2.93263E+04 -1.31892E+04  2.70523E+04  1.08856E+04  2.41446E+03  1.86317E+04
 -1.31866E+04  7.23960E+03 -9.57815E+03 -7.63680E+03  6.02652E+03 -1.01646E+04  1.70305E+04  6.07913E+03
  1.26869E+04  2.15886E+04 -6.22104E+03  2.33521E+04 -2.18383E+04  9.37395E+03 -2.62764E+04 -5.98573E+03
 -1.71433E+04 -1.64898E+04 -6.02404E+03 -1.75482E+04  3.58312E+03 -1.53537E+04  1.27497E+04 -1.50615E+04
  2.22262E+04 -1.20808E+04  2.90881E+04  1.68623E+03  2.17460E+04  1.73756E+04  3.92943E+03  3.34052E+04
 -1.61633E+04  2.81895E+04 -2.57398E+04  9.35112E+03 -2.00574E+04 -1.10193E+04 -3.72784E+03 -1.32384E+04
  2.55364E+03 -4.04748E+03 -3.50841E+03  5.28009E+03 -1.37558E+04  5.52692E+03 -1.40661E+04 -5.49499E+03
 -8.85505E+03 -1.61143E+04  4.55973E+03 -1.94074E+04  1.28887E+04 -1.46214E+04  1.48146E+04 -1.69402E+03
  9.28111E+03  1.07411E+04 -3.40042E+02  1.65000E+04 -1.06435E+04  9.26956E+03 -1.57337E+04 -3.41285E+03
 -1.15880E+04 -1.46519E+04 -1.57319E+03 -1.92747E+04  9.03555E+03 -1.62644E+04  1.62528E+04 -6.90710E+03
  1.53455E+04  7.81432E+02  1.14076E+04  4.66327E+03  5.82377E+03 -1.40013E+02  7.66273E+03 -1.23550E+03
  1.43639E+04  2.49260E+03  1.56507E+04  1.31109E+04  9.45502E+03  2.59710E+04 -2.86742E+03  2.72189E+04
 -1.65015E+04  2.07685E+04 -2.54287E+04  1.00708E+04 -2.55901E+04 -2.05901E+03 -2.26259E+04 -1.45802E+04
 -1.01382E+04 -2.07075E+04  6.54192E+03 -1.96010E+04  1.65053E+04 -1.11782E+04  1.56883E+04  3.90904E+03
  6.68688E+03  1.13557E+04 -7.07681E+03  1.05336E+04 -1.38141E+04  2.41897E+03 -1.05447E+04 -8.26444E+03
 -5.56737E+00 -1.26339E+04  5.50028E+03 -9.79484E+03  8.77605E+03 -1.14289E+03  1.50214E+03  4.93362E+03
 -5.71702E+03  1.73580E+03 -3.45878E+03 -4.68315E+03  6.44209E+02 -1.09971E+04  7.60810E+03 -1.06854E+04
  1.25630E+04 -4.61251E+03  1.24810E+04  2.63773E+03  1.03755E+04  9.96062E+03  4.71460E+03  1.43941E+04
 -1.71181E+03  1.64718E+04 -1.02316E+04  1.09920E+04 -1.11193E+04  3.05430E+03 -8.30353E+03 -2.10702E+03
 -4.45863E+03 -3.34442E+03 -7.22890E+02  1.83385E+03 -1.68629E+03  1.67839E+03 -4.24372E+03  3.66558E+03
 -8.24092E+03 -4.36457E+02 -9.32591E+03 -7.05917E+03 -3.41288E+03 -1.16997E+04  3.63367E+03 -8.48061E+03
  6.98113E+03 -3.37746E+03  5.39857E+03  1.51834E+03  3.39744E+02  3.35650E+03 -3.44610E+03 -5.06939E+02
 -3.25659E+03 -5.20327E+03 -6.81626E+02 -7.85889E+03  3.98788E+03 -8.24753E+03  1.02156E+04 -3.96354E+03
  1.21325E+04  1.09620E+03  8.81563E+03  6.18762E+03  1.78311E+03  8.54503E+03 -5.35264E+03  8.35108E+03
 -6.31471E+03  2.74766E+03 -4.14762E+03 -1.08259E+03  1.21922E+03 -1.63435E+03  5.02798E+03 -6.73618E+02
  4.40187E+03  3.30696E+03  7.23280E+02  6.35141E+03 -4.72881E+03  6.06911E+03 -7.94803E+03  1.38520E+03
 -4.92579E+03 -3.45009E+03  3.92619E+02 -6.93809E+03  4.08782E+03 -3.36630E+03  3.80180E+03  9.80538E+02
  3.40023E+02  3.05517E+03 -3.71618E+03  5.01455E+03 -4.66116E+03  1.82821E+03 -4.16878E+03 -8.47187E+02
 -2.73788E+03 -6.57456E+03  1.19107E+03 -7.16988E+03  5.84501E+03 -4.52064E+03  6.30764E+03  9.05913E+02
  4.39658E+03  5.51402E+03  5.71539E+02  6.72321E+03 -4.45422E+03  4.08032E+03 -5.11471E+03 -2.58934E+02
 -6.27350E+03 -5.18148E+03 -1.21224E+03 -5.06669E+03  2.63499E+03 -4.62905E+03  3.48775E+03 -3.26872E+03
  2.98601E+03  2.56642E+02  2.67273E+02  1.44806E+03  4.29530E+02 -7.76012E+01  1.88604E+02 -1.80124E+03
  3.60466E+03 -4.26973E+02  5.37280E+03  7.65355E+02  5.40467E+03  2.94215E+03  5.02114E+03  7.03492E+03
 -8.89005E+02  9.05231E+03 -7.48063E+03  6.17454E+03 -9.54225E+03  1.28919E+03 -7.90928E+03 -2.51667E+03
 -4.41770E+03 -6.50633E+03 -1.55212E+02 -4.89943E+03  1.49701E+03 -2.06917E+03  1.91896E+03 -2.20693E+03
  1.38870E+03 -1.33297E+03  2.23071E+03 -2.17505E+03  3.47572E+03 -1.33964E+03  3.42490E+03  6.24094E+01
  4.84594E+03  1.29367E+03  1.40028E+03  3.29906E+03 -1.93020E+03  2.75846E+03 -4.54357E+03  2.81192E+03
 -4.68348E+03 -1.26034E+03 -1.53336E+03 -3.32259E+03  4.93022E+02 -4.94793E+03  2.53965E+03 -5.29885E+03
  5.25505E+03 -3.28217E+03  5.96304E+03 -4.47423E+02  4.65035E+03  3.99309E+03  1.38978E+03  6.00044E+03
 -1.88445E+03  5.36143E+03 -3.49313E+03  1.86916E+03 -2.00549E+03 -4.20873E+02 -6.88024E+01 -1.50658E+02
 -2.05131E+02  5.77765E+02 -6.95066E+02  2.03060E+03 -2.72073E+03  7.60576E+02 -4.20784E+03 -3.44182E+02
 -1.54723E+03 -3.96972E+03  8.50266E+02 -4.56089E+03  3.00983E+03 -3.73160E+03  3.30612E+03 -7.36320E+02
  3.75776E+03  2.17488E+03  1.85493E+03  3.19963E+03 -1.16810E+03  3.95250E+03 -2.33578E+03  2.60764E+03
 -3.42567E+03  5.41248E+02 -3.11102E+03 -2.30852E+03 -5.59500E+02 -3.32184E+03  1.84078E+03 -2.44445E+03
  1.73120E+03 -9.79517E+02  1.54656E+03  1.52234E+03  7.21943E+02  1.55963E+03  1.11844E+02  4.34374E+02
  1.75029E+03  4.30199E+02  1.29545E+03  8.01294E+02  1.01593E+03  1.92953E+03  7.35944E+02  1.94769E+03
 -1.17058E+03  2.98057E+03 -2.56126E+03  3.90463E+03 -2.34295E+03  1.13901E+03 -4.29612E+03 -3.47746E+02
 -1.79557E+03 -3.64864E+03  8.06414E+02 -4.05007E+03  1.55961E+03 -2.07946E+03  3.02010E+03 -1.22714E+03
  2.36721E+03  1.15129E+03  1.73080E+02  2.36366E+03 -5.51011E+02  1.32549E+03 -7.35562E+02 -3.65050E+02
 -7.26004E+02 -1.99945E+03  1.73648E+03 -1.28160E+03  1.17020E+03 -8.23784E+02  8.36302E+02  3.05038E+02
  5.62553E+02 -3.57041E+02  7.78270E+02 -2.50898E+02 -3.56843E+02  5.44008E+02  1.36347E+03 -7.40833E+02
 -1.16918E+02 -4.24990E+02  1.77353E+03  6.43579E+02  3.74270E+01  2.17666E+03 -1.20341E+02  2.50245E+03
 -1.72454E+03  1.12271E+03 -1.80167E+03  2.47846E+02 -2.05232E+03 -8.53527E+02 -3.73137E+02 -1.05446E+03
  5.41074E+02 -1.43511E+03  9.80020E+02 -5.11438E+02  5.99568E+02  7.05902E+02 -6.85301E+02  1.31415E+03
 -1.89809E+03  1.16025E+03 -1.01854E+03 -8.16566E+02 -5.34988E+02 -1.74401E+03  1.39461E+01 -1.49899E+03
  3.69839E+02 -3.91872E+02  4.75017E+02  1.46213E+02  1.13359E+03 -7.35933E+01 -1.23309E+02  1.40447E+03
 -9.58706E+01  2.32521E+02 -3.42978E+02 -4.56412E+02  5.18430E+02 -1.51830E+03  1.58125E+03 -1.13350E+03
  1.08060E+03  2.72636E+02  2.34902E+03  2.18813E+02  1.03937E+03  1.39499E+03  2.49368E+02  1.55650E+03
 -1.34527E+03  6.10493E+02 -1.18506E+03 -6.91872E+00 -1.43674E+03 -1.24766E+03  2.59826E+02 -3.29334E+02
  1.40123E+03 -3.77068E+02  7.24547E+02  4.68340E+02  2.85251E+02  1.58649E+03 -1.67439E+02  1.50689E+03
 -7.29169E+02  8.81537E+02 -5.56125E+02  2.16599E+02 -5.78198E+01 -7.04269E+01 -3.75628E+02  3.41183E+02
  9.40409E+01  7.41535E+02 -1.54314E+03  2.58139E+02 -1.36789E+03  2.91187E+02 -2.24189E+03 -6.74017E+02
 -5.43577E+02 -2.15229E+03  4.84423E+02 -2.42739E+03  1.06254E+03 -2.03884E+03  1.87626E+03 -7.88548E+02
  1.79952E+03  2.71876E+02  6.53193E+02  1.19242E+03 -7.48924E+02  1.50012E+03 -5.51105E+02  1.08374E+03
 -1.29760E+03  6.71715E+02 -3.53516E+02  7.45005E+01 -9.54507E+02 -4.25533E+01  1.35874E+02  1.70454E+02
 -1.11103E+03 -1.87535E+02 -1.21818E+03  1.71963E+02 -1.71351E+02 -4.90009E+02 -6.78234E+02 -1.13299E+03
  1.54613E+03 -2.18702E+02 -1.50562E+02 -2.06590E+02  6.37158E+02  6.58968E+02 -3.07052E+02  1.21518E+03
 -5.65472E+02  2.33382E+03 -1.09031E+03  7.54184E+02 -1.67392E+03 -2.45443E+02 -7.44218E+02 -1.54846E+03
 -8.17039E+02 -9.46960E+02  1.03704E+02 -9.04139E+02  7.50616E+02 -1.00935E+03  3.62459E+02  2.21692E+02
  3.86103E+02  4.97936E+01  1.52309E+02  2.28244E+02 -5.95675E-01  6.89774E+02 -5.44106E+02 -4.25924E+02
  7.54394E+02  1.76506E+01 -1.46595E+01  7.78461E+02  3.46808E+02  4.67579E+02  7.18751E+01  5.82078E+02
 -2.56012E+02  2.51297E+02 -1.50378E+01 -3.86962E+02 -9.21719E+02 -1.79252E+02  5.34326E+02 -7.99999E+02
  4.64935E+02 -6.78526E+02  1.46147E+01  5.07373E+01  8.06515E+02 -6.55784E+02  3.11545E+02  1.08872E+03
  6.73090E+02  6.28353E+02 -1.39668E+02 -9.70308E+01 -1.67791E+02  5.05471E+02 -2.17604E+02  2.89639E+02
 -1.50866E+02 -1.72489E+02 -4.51472E+02  2.93875E+02 -6.07584E+02  6.70660E+02 -3.18368E+02  4.52677E+02
 -8.33646E+02  4.50167E+02 -1.18986E+02 -3.11848E+02 -3.50610E+02 -1.98261E+03  7.47692E+02 -8.09658E+01
  7.76135E+02 -3.00912E+02 -2.28616E+02  3.57644E+02  5.17000E+01  4.66163E+02 -3.36234E+02  2.37999E+02
