 $NMID ID='MM_0lb_SNR400_16hz_g50_36.RAW', FMTDAT='(8E13.5)'
 TRAMP=1., VOLUME=1. $END
  3.10121E+05  4.21100E+02  3.36822E+05  2.49930E+05  8.39104E+04  3.37294E+05 -1.32932E+05  2.50206E+05
 -1.90450E+05  8.34036E+04 -1.11293E+05 -3.26806E+04  1.08500E+03 -5.04828E+04  5.35579E+04  1.36157E+02
  3.50967E+04  5.30433E+04 -1.72567E+04  7.48902E+04 -6.06550E+04  6.29425E+04 -8.36403E+04  3.19523E+04
 -8.09403E+04 -1.15454E+04 -5.71644E+04 -5.11778E+04 -1.52706E+04 -6.91619E+04  2.72772E+04 -4.57689E+04
  3.96037E+04  3.65189E+03  1.62548E+04  4.75829E+04 -3.40020E+04  4.70814E+04 -6.58941E+04 -2.17315E+02
 -5.32766E+04 -5.65688E+04 -6.60231E+03 -7.63771E+04  3.37061E+04 -5.47305E+04  4.73570E+04 -1.73821E+04
  4.26158E+04  1.07310E+04  3.14008E+04  2.52319E+04  1.58355E+04  2.85681E+04 -4.86600E+03  2.66596E+04
 -2.20975E+04  1.26547E+04 -1.92245E+04 -4.58881E+03  4.71405E+03 -7.13800E+03  2.16713E+04  1.15568E+04
  7.45432E+03  3.44779E+04 -3.15070E+04  3.53305E+04 -6.29863E+04  2.08623E+03 -5.65641E+04 -4.21964E+04
 -1.23604E+04 -6.20930E+04  3.90075E+04 -4.49572E+04  5.70930E+04 -2.65338E+03  3.35446E+04  3.19029E+04
 -6.11563E+03  3.53335E+04 -2.99628E+04  1.51801E+04 -2.91452E+04 -5.19083E+03 -1.60477E+04 -1.07256E+04
 -7.63096E+03 -1.19977E+04 -9.02037E+02 -1.72766E+04  7.34089E+03 -2.28460E+04  1.52173E+04 -1.37411E+04
  1.15499E+04  4.89249E+03 -7.68980E+03  1.29718E+04 -2.00021E+04 -3.69635E+03 -9.36650E+03 -3.27711E+04
  2.22309E+04 -4.30825E+04  4.68372E+04 -1.87206E+04  4.37745E+04  1.86526E+04  1.48713E+04  4.31939E+04
 -1.60056E+04  3.24025E+04 -2.42655E+04  9.85558E+02 -8.83505E+03 -2.72610E+04  2.04740E+04 -3.26644E+04
  3.97240E+04 -8.44415E+03  3.38509E+04  2.32505E+04  1.69754E+04  4.53488E+04 -8.14612E+03  4.89584E+04
 -3.09067E+04  3.20749E+04 -4.04099E+04  9.44802E+03 -4.06388E+04 -1.60107E+04 -2.29693E+04 -3.63118E+04
  7.27049E+03 -3.61014E+04  3.03197E+04 -1.38232E+04  2.84668E+04  1.11086E+04  4.04966E+03  1.83296E+04
 -1.31597E+04  8.22372E+03 -9.67114E+03 -7.52781E+03  5.69290E+03 -1.08321E+04  1.80102E+04  6.58812E+03
  1.30497E+04  2.15086E+04 -6.11959E+03  2.39865E+04 -2.19114E+04  1.06120E+04 -2.72071E+04 -5.39772E+03
 -1.93381E+04 -1.70352E+04 -7.19217E+03 -1.88715E+04  3.89313E+03 -1.76453E+04  1.49228E+04 -1.67662E+04
  2.47823E+04 -1.20126E+04  3.11718E+04  2.37499E+03  2.26634E+04  1.89666E+04  4.53827E+03  3.45704E+04
 -1.71700E+04  2.91942E+04 -2.68538E+04  9.66767E+03 -2.07312E+04 -1.00194E+04 -3.77742E+03 -1.37210E+04
  2.22416E+03 -3.88118E+03 -4.27653E+03  6.03922E+03 -1.46521E+04  4.98368E+03 -1.50403E+04 -6.22676E+03
 -9.51065E+03 -1.78982E+04  4.86698E+03 -2.08712E+04  1.43660E+04 -1.58192E+04  1.71529E+04 -1.54070E+03
  1.03631E+04  1.26981E+04 -9.30044E+02  1.75472E+04 -1.21269E+04  1.00856E+04 -1.75857E+04 -4.17918E+03
 -1.30182E+04 -1.63960E+04 -1.48946E+03 -2.18922E+04  9.52267E+03 -1.76267E+04  1.79468E+04 -8.35036E+03
  1.70654E+04  4.86074E+02  1.18719E+04  4.10577E+03  6.08179E+03  7.79730E+02  8.28295E+03 -1.49057E+03
  1.60305E+04  3.04203E+03  1.74200E+04  1.41640E+04  1.12857E+04  2.84127E+04 -3.12897E+03  3.04359E+04
 -1.76201E+04  2.50938E+04 -2.85279E+04  1.19310E+04 -3.02532E+04 -1.92820E+03 -2.54842E+04 -1.73768E+04
 -1.06208E+04 -2.53829E+04  8.11064E+03 -2.22739E+04  1.92858E+04 -1.27782E+04  1.78925E+04  4.57393E+03
  6.78325E+03  1.29371E+04 -8.12111E+03  1.12828E+04 -1.50016E+04  2.63303E+03 -1.14841E+04 -9.71296E+03
 -4.02766E+01 -1.42358E+04  6.92947E+03 -1.06350E+04  9.32359E+03 -1.98800E+03  2.24587E+03  5.90989E+03
 -6.33901E+03  1.81768E+03 -5.07036E+03 -4.97874E+03 -1.15029E+02 -1.19243E+04  8.74681E+03 -1.24031E+04
  1.49404E+04 -6.80075E+03  1.53225E+04  3.10645E+03  1.32582E+04  1.10080E+04  5.94325E+03  1.71794E+04
 -2.89365E+03  1.99823E+04 -1.23398E+04  1.22643E+04 -1.38322E+04  3.06053E+03 -9.68425E+03 -2.34463E+03
 -4.96710E+03 -4.52821E+03 -7.29788E+02  1.58323E+03 -2.27307E+03  2.02504E+03 -3.92646E+03  3.92254E+03
 -9.69586E+03 -5.22572E+02 -1.02992E+04 -8.43102E+03 -3.58108E+03 -1.33793E+04  4.41634E+03 -1.05507E+04
  8.17266E+03 -3.88530E+03  5.96350E+03  2.83468E+03  5.05279E+02  3.86373E+03 -4.11153E+03  4.20697E+02
 -4.73429E+03 -5.88121E+03 -1.00296E+03 -9.06237E+03  4.99607E+03 -9.71819E+03  1.21285E+04 -5.00629E+03
  1.45226E+04  1.12988E+03  1.06943E+04  8.14739E+03  1.81417E+03  1.07109E+04 -6.04607E+03  9.65475E+03
 -7.84165E+03  3.20407E+03 -3.99971E+03 -1.98314E+03  1.41776E+03 -2.49300E+03  5.50361E+03 -1.13891E+03
  4.95095E+03  4.42217E+03  1.22263E+03  7.77168E+03 -5.52830E+03  7.88348E+03 -8.96476E+03  2.02467E+03
 -6.12877E+03 -5.14320E+03  1.71536E+02 -8.32346E+03  4.89546E+03 -3.73590E+03  5.27056E+03  1.20662E+03
  1.24790E+03  4.54492E+03 -5.09284E+03  6.24073E+03 -6.72915E+03  3.36463E+03 -6.39880E+03 -2.59392E+03
 -3.71985E+03 -7.79960E+03  1.39106E+03 -9.53325E+03  7.55600E+03 -6.09441E+03  8.64410E+03  1.64858E+03
  5.91037E+03  7.10165E+03 -4.30668E+02  9.68029E+03 -6.08581E+03  4.41464E+03 -6.86061E+03 -1.77755E+02
 -5.99990E+03 -6.45834E+03 -1.46383E+03 -6.44680E+03  3.18322E+03 -5.85371E+03  3.57931E+03 -2.91988E+03
  3.22193E+03  2.41796E+02 -6.42791E+02  8.31696E+02  3.31597E+02 -1.01710E+03  9.50891E+02 -2.69895E+03
  5.73095E+03 -1.55803E+03  7.47645E+03  1.97434E+02  7.76550E+03  4.46317E+03  6.08788E+03  9.83812E+03
 -1.94226E+03  1.08869E+04 -1.06806E+04  8.66617E+03 -1.30997E+04  1.40644E+03 -1.05584E+04 -3.79051E+03
 -5.59488E+03 -8.39342E+03 -4.37316E+02 -7.34100E+03  2.75229E+03 -3.40483E+03  2.73328E+03 -2.33893E+03
  2.16839E+03 -2.03430E+03  2.09664E+03 -2.71795E+03  4.03149E+03 -1.85941E+03  4.19701E+03  7.11631E+02
  6.05718E+03  1.89064E+03  1.50928E+03  4.66175E+03 -1.42560E+03  4.41123E+03 -5.33684E+03  3.86596E+03
 -6.54077E+03 -9.82130E+02 -2.60964E+03 -4.66756E+03  1.69321E+02 -6.88405E+03  4.25655E+03 -6.83010E+03
  7.33025E+03 -4.20326E+03  8.45726E+03  7.33587E+02  6.52422E+03  6.03301E+03  1.53627E+03  7.98172E+03
 -2.92676E+03  7.37953E+03 -4.81523E+03  2.38132E+03 -2.76097E+03 -1.37054E+03 -1.10944E+03 -2.66854E+02
 -4.60602E+02  4.21180E+02 -1.88722E+03  1.30904E+03 -2.86125E+03  1.37506E+03 -5.41336E+03 -9.34523E+02
 -2.74479E+03 -5.00472E+03  3.78941E+02 -6.77622E+03  4.21437E+03 -5.96321E+03  5.34889E+03 -1.61158E+03
  5.46573E+03  2.78449E+03  2.56291E+03  4.52479E+03 -1.64525E+03  5.85233E+03 -4.17029E+03  3.74372E+03
 -5.73474E+03  3.88378E+02 -4.43325E+03 -3.89880E+03 -2.97349E+02 -4.60736E+03  2.44572E+03 -3.46361E+03
  3.76482E+03 -1.70930E+03  2.92443E+03  6.46145E+02  6.67018E+02  2.03716E+03  9.19701E+02  8.96361E+02
  1.49642E+03  1.06035E+03  1.48878E+03  1.41306E+03  1.45323E+03  2.89475E+03  1.94133E+03  2.55098E+03
 -1.44832E+03  4.61851E+03 -3.75130E+03  5.75375E+03 -4.97303E+03  1.11145E+03 -5.22102E+03 -1.17806E+03
 -2.89444E+03 -5.59981E+03  8.27072E+02 -6.64165E+03  3.09493E+03 -3.58553E+03  5.13521E+03 -1.43225E+03
  3.95639E+03  2.54096E+03  1.18143E+03  2.97174E+03 -1.48601E+03  1.60183E+03 -2.09208E+03 -1.25023E+02
 -1.32621E+03 -2.08862E+03  1.51993E+03 -1.96201E+03  2.51609E+03 -9.78627E+02  1.83173E+03  7.71554E+02
  1.03065E+03  5.87716E+02  1.01141E+03  8.20316E+02 -6.19554E+02  7.64545E+02  1.85119E+03  1.95221E+02
  2.73349E+02  3.36684E+01  1.71899E+03  6.21231E+02  4.24126E+02  2.86667E+03 -4.41187E+02  4.62450E+03
 -2.60207E+03  2.52543E+03 -2.79995E+03  5.85190E+02 -3.56652E+03 -7.29393E+02 -6.85080E+02 -1.65276E+03
  4.23019E+02 -2.29240E+03  1.52622E+03 -6.95004E+02  1.04199E+03  1.73783E+03 -3.77415E+02  2.16529E+03
 -2.07193E+03  7.35697E+02 -1.83478E+03 -9.54657E+02 -1.19697E+03 -3.17938E+03  5.45531E+01 -2.58564E+03
  1.67785E+03 -1.25738E+03  1.39022E+03 -1.15443E+02  2.61508E+03  2.61846E+02  2.43251E+02  1.58354E+03
 -7.68247E+02  3.99097E+02 -1.53828E+03 -7.24870E+02  8.99157E+02 -1.64729E+03  2.73289E+03 -1.92772E+03
  1.98680E+03  1.85487E+02  3.64090E+03  1.43356E+03  2.00130E+03  2.67039E+03 -5.42277E+02  3.43281E+03
 -2.32084E+03  2.92374E+02 -2.50919E+03 -5.48793E+02 -1.42427E+03 -2.45129E+03  1.21470E+02 -1.87423E+03
  1.90321E+03 -1.12223E+03  1.32294E+03  1.44505E+03 -2.33424E+02  1.54667E+03  2.19444E+02  1.49948E+03
 -9.33206E+02  1.46301E+03 -5.08217E+02  3.72066E+02  1.24989E+02  9.49209E+02 -6.66180E+02  4.21309E+02
 -5.88849E+02  1.69831E+03 -2.81661E+03  9.87098E+02 -2.90193E+03  2.88698E+02 -3.22285E+03 -2.42760E+03
 -2.15950E+03 -4.12285E+03  6.51251E+02 -4.65366E+03  1.70705E+03 -3.77665E+03  4.61894E+03 -1.42669E+03
  3.67249E+03  3.22161E+02  2.31659E+03  2.43257E+03  1.69791E+01  2.93223E+03 -8.81626E+02  1.89650E+03
 -1.98835E+03  1.21010E+03 -4.31341E+02  1.21921E+02 -8.92296E+02 -1.50167E+02 -6.89591E+02  4.44567E+02
 -1.32316E+03 -2.17361E+02 -1.21618E+03  1.42026E+02  4.10143E+02 -1.25867E+03 -4.27787E+02 -8.20964E+02
  1.20738E+03 -1.21175E+03  6.56569E+02  2.61371E+02  9.35358E+02  1.10744E+03  1.55096E+02  2.61369E+03
 -1.69322E+03  3.93731E+03 -3.06711E+03  1.93700E+03 -2.77793E+03 -5.87381E+02 -2.16460E+03 -1.99211E+03
 -7.93398E+02 -1.85938E+03  4.63251E+02 -2.19090E+03  1.72150E+03 -1.22302E+03  1.60526E+03  1.78795E+01
  8.29381E+02  6.39072E+02  3.09029E+02  6.85019E+02 -7.06591E+02  2.70675E+02  1.58528E+02 -4.42069E+02
  5.60733E+02  4.37864E+02  5.39367E+02  1.01017E+03  2.54655E+02  7.61931E+02  1.89319E+02  9.68527E+02
 -1.12910E+03  9.65095E+02 -1.28757E+03  6.78128E+02 -1.78537E+03 -5.78832E+02 -8.09146E+01 -1.90588E+03
  1.36231E+03 -1.76012E+03  1.47610E+03 -6.34155E+02  1.32310E+03 -4.32617E+02  1.22276E+03  1.27514E+03
  5.57804E+02  1.12021E+03 -9.13512E+02  1.29866E+03 -6.96893E+02  8.71852E+02 -6.96682E+02  1.61085E+02
 -4.90825E+02 -5.03113E+01  1.08290E+02 -4.98772E+01 -1.24303E+03  3.01153E+02 -6.20598E+02  1.56502E+02
 -1.55675E+03 -6.12191E+02  1.68330E+02 -1.90208E+03  8.43918E+02 -2.29861E+03  9.32412E+02 -5.66284E+02
  1.32513E+03  2.63634E+02  5.64502E+02  7.86877E+02 -5.10599E+02  7.15521E+02 -6.56048E+02  1.15257E+03
