 $NMID ID='MM_0lb_SNR400_17hz_g60_35.RAW', FMTDAT='(8E13.5)'
 TRAMP=1., VOLUME=1. $END
  3.10113E+05  2.98377E+02  3.37543E+05  2.51393E+05  8.46654E+04  3.37864E+05 -1.32870E+05  2.51012E+05
 -1.90260E+05  8.29955E+04 -1.11591E+05 -3.24192E+04  4.12672E+02 -5.08069E+04  5.34156E+04 -2.60258E+02
  3.53105E+04  5.31095E+04 -1.64949E+04  7.52133E+04 -6.09905E+04  6.36830E+04 -8.41142E+04  3.27159E+04
 -8.03282E+04 -1.09635E+04 -5.70893E+04 -5.14076E+04 -1.46207E+04 -6.94297E+04  2.70172E+04 -4.55299E+04
  4.00087E+04  4.12427E+03  1.59262E+04  4.76552E+04 -3.37842E+04  4.66719E+04 -6.63233E+04 -4.83251E+01
 -5.24309E+04 -5.69067E+04 -6.91327E+03 -7.66320E+04  3.44438E+04 -5.49945E+04  4.78224E+04 -1.69643E+04
  4.35019E+04  1.10299E+04  3.15480E+04  2.53729E+04  1.62066E+04  2.88720E+04 -5.26121E+03  2.67470E+04
 -2.26315E+04  1.22866E+04 -1.87657E+04 -4.69148E+03  5.79658E+03 -7.64893E+03  2.26838E+04  1.17854E+04
  7.71890E+03  3.52388E+04 -3.18795E+04  3.43734E+04 -6.24798E+04  2.42264E+03 -5.69597E+04 -4.25223E+04
 -1.27288E+04 -6.26844E+04  3.92138E+04 -4.53264E+04  5.74110E+04 -2.44694E+03  3.44675E+04  3.13902E+04
 -6.09036E+03  3.56772E+04 -2.96744E+04  1.62713E+04 -3.02210E+04 -5.11721E+03 -1.62194E+04 -1.06223E+04
 -8.25634E+03 -1.25743E+04 -1.23330E+03 -1.77043E+04  7.71217E+03 -2.31834E+04  1.56323E+04 -1.27877E+04
  1.13634E+04  5.01365E+03 -7.70515E+03  1.33846E+04 -2.08000E+04 -4.17166E+03 -8.64276E+03 -3.38089E+04
  2.30453E+04 -4.30453E+04  4.77142E+04 -1.91797E+04  4.42326E+04  1.91849E+04  1.53111E+04  4.41090E+04
 -1.63183E+04  3.24438E+04 -2.49294E+04  1.80026E+03 -9.73852E+03 -2.71503E+04  2.09687E+04 -3.34420E+04
  4.02262E+04 -8.47153E+03  3.43698E+04  2.40080E+04  1.77801E+04  4.55139E+04 -7.81402E+03  4.95370E+04
 -3.06836E+04  3.27582E+04 -4.18087E+04  9.06041E+03 -4.12289E+04 -1.59829E+04 -2.29762E+04 -3.69105E+04
  7.41510E+03 -3.69563E+04  3.10354E+04 -1.41568E+04  2.89876E+04  1.13924E+04  3.02153E+03  1.89971E+04
 -1.33303E+04  8.21219E+03 -9.65030E+03 -8.29904E+03  5.99423E+03 -1.01304E+04  1.75322E+04  6.31854E+03
  1.32337E+04  2.15497E+04 -5.99306E+03  2.41539E+04 -2.25582E+04  1.03752E+04 -2.75372E+04 -4.96197E+03
 -1.91867E+04 -1.70748E+04 -7.59950E+03 -1.94697E+04  3.75009E+03 -1.82017E+04  1.49611E+04 -1.69841E+04
  2.52321E+04 -1.27636E+04  3.14192E+04  2.64387E+03  2.33429E+04  1.83907E+04  4.37730E+03  3.52771E+04
 -1.75043E+04  2.97018E+04 -2.76911E+04  1.02718E+04 -2.04589E+04 -1.00593E+04 -4.60071E+03 -1.36150E+04
  2.12466E+03 -3.72014E+03 -4.63755E+03  6.10946E+03 -1.51256E+04  5.95183E+03 -1.55439E+04 -6.44746E+03
 -9.85156E+03 -1.77694E+04  5.66468E+03 -2.20713E+04  1.46847E+04 -1.62437E+04  1.68164E+04 -1.92502E+03
  1.11817E+04  1.13078E+04  1.56749E+02  1.82717E+04 -1.24153E+04  1.00740E+04 -1.81558E+04 -3.61948E+03
 -1.37872E+04 -1.66588E+04 -1.44465E+03 -2.12766E+04  1.01435E+04 -1.76366E+04  1.83453E+04 -8.38879E+03
  1.66677E+04  4.83396E+02  1.18860E+04  4.75526E+03  6.00726E+03  1.16264E+03  9.07977E+03 -1.17310E+03
  1.60940E+04  2.81029E+03  1.76727E+04  1.45659E+04  1.14521E+04  2.85198E+04 -2.85564E+03  3.17419E+04
 -1.88896E+04  2.51803E+04 -2.94408E+04  1.20791E+04 -3.02472E+04 -2.12831E+03 -2.55720E+04 -1.74273E+04
 -1.12388E+04 -2.48678E+04  9.25192E+03 -2.30944E+04  1.98893E+04 -1.17882E+04  1.77451E+04  4.41675E+03
  6.90256E+03  1.29261E+04 -8.43143E+03  1.22841E+04 -1.46852E+04  2.25052E+03 -1.18922E+04 -8.82875E+03
  4.69520E+02 -1.41012E+04  7.51405E+03 -1.04325E+04  9.43849E+03 -9.70302E+02  1.64405E+03  5.73617E+03
 -6.02158E+03  2.08612E+03 -5.36404E+03 -4.70374E+03 -2.83029E+02 -1.18446E+04  8.72779E+03 -1.27206E+04
  1.55687E+04 -6.51342E+03  1.56321E+04  2.79581E+03  1.37361E+04  1.20831E+04  6.11948E+03  1.82536E+04
 -3.09068E+03  1.98472E+04 -1.21634E+04  1.23853E+04 -1.41991E+04  3.13457E+03 -1.03965E+04 -2.88019E+03
 -4.74855E+03 -4.50931E+03 -9.67899E+02  2.03282E+03 -1.78150E+03  1.57407E+03 -5.00752E+03  3.76505E+03
 -9.45376E+03 -9.91078E+02 -1.00671E+04 -8.87527E+03 -3.34440E+03 -1.33796E+04  4.08928E+03 -9.81924E+03
  8.80449E+03 -4.28486E+03  6.53047E+03  2.19662E+03  2.40181E+02  3.39505E+03 -4.16411E+03 -1.35633E+01
 -4.58372E+03 -6.13448E+03 -6.51333E+02 -8.88003E+03  5.07493E+03 -9.54501E+03  1.25045E+04 -5.01221E+03
  1.41123E+04  1.74981E+03  1.06554E+04  7.78431E+03  2.23934E+03  1.08731E+04 -6.26404E+03  9.95208E+03
 -8.34263E+03  3.30674E+03 -4.66235E+03 -1.93472E+03  1.38152E+03 -2.15209E+03  5.31039E+03 -1.11661E+03
  5.11297E+03  4.53947E+03  1.10086E+03  7.77343E+03 -5.61708E+03  7.48903E+03 -9.87773E+03  2.42835E+03
 -5.27248E+03 -4.34631E+03  4.57926E+01 -7.93551E+03  4.17232E+03 -4.01112E+03  4.69530E+03  1.41518E+03
  7.06335E+02  4.99373E+03 -5.20679E+03  6.19622E+03 -6.55558E+03  3.00734E+03 -6.50451E+03 -1.70813E+03
 -3.63585E+03 -7.77356E+03  1.80197E+03 -8.51896E+03  7.75270E+03 -6.21446E+03  8.33098E+03  1.07063E+03
  5.46890E+03  7.10582E+03 -5.00018E+02  9.48212E+03 -6.71004E+03  4.82456E+03 -6.56924E+03  1.97667E+02
 -6.02865E+03 -6.24335E+03 -1.25648E+03 -6.49536E+03  3.27586E+03 -5.38233E+03  4.36600E+03 -3.29785E+03
  2.72295E+03  4.13652E+02 -1.03702E+01  1.57567E+03  5.30892E+01 -7.91705E+02  6.06665E+02 -2.75897E+03
  4.67268E+03 -2.38404E+03  7.07541E+03  1.00040E+03  6.65066E+03  4.96104E+03  6.28108E+03  9.60499E+03
 -2.15488E+03  1.12766E+04 -9.64913E+03  8.33283E+03 -1.26536E+04  1.62265E+03 -9.88929E+03 -4.04329E+03
 -5.35206E+03 -8.37826E+03 -3.35963E+02 -6.53660E+03  2.62015E+03 -2.61582E+03  2.43004E+03 -2.39750E+03
  1.46157E+03 -1.70037E+03  2.48651E+03 -2.64156E+03  3.95988E+03 -1.90734E+03  4.35147E+03  1.07363E+02
  5.86293E+03  1.33432E+03  1.71722E+03  4.92736E+03 -1.55772E+03  4.06284E+03 -5.40614E+03  3.34550E+03
 -6.26930E+03 -4.03200E+02 -3.48164E+03 -3.73667E+03  6.52088E+02 -6.04678E+03  4.16840E+03 -7.26228E+03
  7.21400E+03 -4.27551E+03  8.60246E+03  8.02344E+02  6.18542E+03  5.94862E+03  1.66046E+03  7.34940E+03
 -2.82096E+03  6.96455E+03 -4.24356E+03  2.08329E+03 -2.98316E+03 -1.13493E+03 -3.84428E+02 -8.65023E+02
 -5.98114E+02  2.72132E+02 -9.98586E+02  2.00492E+03 -3.18178E+03  1.41715E+03 -4.41762E+03 -5.11001E+01
 -2.14099E+03 -5.05169E+03  4.73307E+02 -5.76928E+03  3.73344E+03 -5.75717E+03  5.07913E+03 -1.79590E+03
  5.37478E+03  2.73014E+03  2.41347E+03  4.33174E+03 -3.46124E+02  6.03772E+03 -3.13611E+03  3.34689E+03
 -4.90253E+03  3.50957E+02 -3.66535E+03 -3.26456E+03 -4.21264E+02 -4.61192E+03  2.06362E+03 -3.06175E+03
  3.66289E+03 -1.47058E+03  2.07107E+03  7.87698E+02  5.66761E+02  1.95515E+03  1.06574E+03  8.80839E+02
  2.08937E+03  5.19165E+02  6.50906E+02  4.95251E+02  9.45138E+02  2.73313E+03  1.42511E+03  2.56768E+03
 -1.30732E+03  4.10213E+03 -3.59187E+03  5.04368E+03 -4.36030E+03  1.17398E+03 -5.30420E+03 -8.85731E+02
 -2.05755E+03 -4.53999E+03  7.17096E+02 -5.96909E+03  3.30284E+03 -3.15215E+03  3.68530E+03 -1.20007E+03
  3.77233E+03  2.68095E+03  6.08758E+02  3.03653E+03 -1.16764E+03  1.71202E+03 -1.38546E+03  6.20079E+01
 -1.21312E+03 -1.58978E+03  1.69297E+03 -1.81748E+03  1.95180E+03 -1.10439E+03  2.21752E+03  9.30767E+02
  1.40099E+03  8.88500E+02  1.08143E+03  4.91266E+02  6.54762E+01  1.01306E+03  1.13233E+03 -3.45444E+01
  5.13354E+02 -3.34209E+02  2.34065E+03  6.28309E+02  4.99532E+02  3.19751E+03 -1.01897E+02  3.59174E+03
 -1.94105E+03  1.50256E+03 -2.69966E+03  5.21299E+02 -2.83747E+03 -9.44151E+02 -3.69705E+02 -1.55072E+03
  1.77705E+01 -2.22025E+03  1.27105E+03 -1.54437E+03  5.08093E+02  1.36609E+03 -4.29352E+02  1.30506E+03
 -2.18589E+03  1.03971E+03 -2.10565E+03 -1.55737E+03 -1.32051E+03 -2.66491E+03 -2.03339E+02 -1.77708E+03
  1.09360E+03 -1.03917E+03  9.73891E+02  3.28213E+02  1.75563E+03  3.37278E+02  2.12603E+02  1.60950E+03
 -6.46402E+02  4.64633E+02 -1.28264E+03 -5.27973E+01  1.69768E+03 -1.43508E+03  2.19180E+03 -1.53301E+03
  1.84382E+03  1.34043E+03  3.23072E+03  8.68992E+02  1.58541E+03  2.41743E+03 -6.06977E+02  2.55362E+03
 -1.72311E+03  6.38260E+02 -1.33793E+03 -6.79677E+02 -1.15377E+03 -1.05899E+03 -1.13612E+00 -1.12833E+03
  1.72571E+03 -6.72410E+02  5.10361E+02  8.58600E+02  5.47420E+02  1.62238E+03  9.41860E+01  1.09943E+03
 -3.09653E+02  1.41778E+03 -1.41070E+03  7.02576E+02  5.44531E+02  4.97231E+02 -5.79280E+02  6.93942E+02
 -8.00241E+02  1.19550E+03 -2.14282E+03  5.14484E+02 -1.70386E+03  2.56976E+01 -2.69634E+03 -1.51975E+03
 -1.42278E+03 -3.31743E+03  3.48858E+02 -3.94967E+03  1.76043E+03 -3.13292E+03  3.10931E+03 -1.07541E+03
  2.85449E+03  6.28387E+02  1.39280E+03  2.14888E+03 -1.02252E+03  2.01447E+03 -1.04755E+03  1.57174E+03
 -8.58093E+02  9.34983E+02 -8.30363E+02 -2.28896E+02 -4.00956E+02  2.98349E+01 -1.01710E+03  2.93023E+02
 -1.43183E+03 -1.67809E+02 -7.57975E+02 -2.69793E+02  5.22949E+02 -6.32884E+02 -1.91621E+02 -1.16763E+03
  1.71306E+03 -1.18388E+03  9.17544E+02  2.84756E+02  1.95890E+03  1.21926E+03  1.37343E+02  1.11527E+03
 -6.29042E+02  3.02144E+03 -2.36376E+03  1.46584E+03 -2.89033E+03 -5.22450E+02 -1.54134E+03 -1.60917E+03
 -6.14454E+02 -2.10295E+03  1.03838E+02 -2.17229E+03  1.50475E+03 -1.24929E+03  1.29779E+03 -2.35393E+02
  8.04630E+02  8.11100E+02 -1.40043E+02  5.85266E+02 -4.75632E+02  8.88353E+01  5.63266E+02 -2.67953E+02
  5.05321E+02  1.77332E+02  5.96418E+02  3.17852E+02  1.40068E+02  1.77736E+03  5.50467E+02  8.11798E+02
 -1.25136E+03  4.28752E+02 -4.34944E+02  8.40993E+02 -8.88514E+02 -9.19126E+02  1.88405E+02 -1.37395E+03
  7.93235E+02 -7.05455E+02  5.13377E+02 -3.32991E+02  9.61493E+02 -4.41895E+02  5.02770E+02  8.34748E+02
  5.61155E+02  6.94908E+02 -4.65657E+02  1.18225E+03 -1.00015E+03  9.66212E+02 -1.11217E+03  3.53634E+02
 -2.53565E+02  2.12976E+02 -2.32739E+02  7.03268E+02 -4.65578E+02 -2.88415E+02 -1.04147E+03 -5.04779E+02
 -1.11366E+03 -2.85425E+01 -3.96593E+02 -1.36376E+03 -2.04854E+01 -1.98832E+03  1.10092E+03 -3.02433E+02
  9.15145E+02  4.86471E+02  3.59486E+02  6.92625E+02 -1.49198E+02  1.05999E+03 -3.56875E+02  9.48531E+02
