 $NMID ID='MM_0lb_SNR400_9hz_g45_84.RAW', FMTDAT='(8E13.5)'
 TRAMP=1., VOLUME=1. $END
  3.11095E+05  3.55269E+02  3.37816E+05  2.50956E+05  8.43386E+04  3.38413E+05 -1.32500E+05  2.51746E+05
 -1.91106E+05  8.39138E+04 -1.12275E+05 -3.27519E+04 -1.04747E+01 -5.08347E+04  5.43353E+04 -5.02974E+02
  3.62197E+04  5.25644E+04 -1.60551E+04  7.62731E+04 -6.08328E+04  6.43217E+04 -8.49228E+04  3.22053E+04
 -8.24034E+04 -1.14778E+04 -5.80910E+04 -5.24899E+04 -1.61109E+04 -7.08685E+04  2.85034E+04 -4.65778E+04
  4.17859E+04  3.71183E+03  1.68631E+04  4.85502E+04 -3.52718E+04  4.92724E+04 -6.77643E+04  1.54651E+02
 -5.50322E+04 -5.72083E+04 -7.83238E+03 -7.81877E+04  3.47040E+04 -5.73034E+04  4.90612E+04 -1.81598E+04
  4.46699E+04  1.14454E+04  3.29738E+04  2.62791E+04  1.54500E+04  3.06779E+04 -6.22369E+03  2.80833E+04
 -2.23535E+04  1.16534E+04 -1.87475E+04 -5.44899E+03  6.71615E+03 -8.23572E+03  2.30305E+04  1.35112E+04
  6.75323E+03  3.72626E+04 -3.40902E+04  3.64989E+04 -6.45297E+04  2.29062E+03 -5.85702E+04 -4.40818E+04
 -1.24088E+04 -6.62330E+04  4.18364E+04 -4.69410E+04  6.04234E+04 -2.88327E+03  3.64281E+04  3.43936E+04
 -5.62467E+03  3.92274E+04 -3.16773E+04  1.76699E+04 -3.24662E+04 -3.24119E+03 -1.88935E+04 -1.12681E+04
 -9.59113E+03 -1.49922E+04  6.80734E+01 -1.87417E+04  8.03419E+03 -2.39067E+04  1.58787E+04 -1.31619E+04
  1.04898E+04  5.52110E+03 -1.07220E+04  1.27312E+04 -2.33115E+04 -6.56427E+03 -8.97637E+03 -3.71571E+04
  2.48839E+04 -4.67208E+04  5.15891E+04 -2.09418E+04  4.81244E+04  2.08391E+04  1.62652E+04  4.65009E+04
 -1.68844E+04  3.53596E+04 -2.72454E+04  2.10469E+03 -1.14795E+04 -2.95185E+04  2.13355E+04 -3.74878E+04
  4.42063E+04 -1.08696E+04  4.02445E+04  2.47646E+04  2.10484E+04  5.02255E+04 -8.23298E+03  5.54398E+04
 -3.46520E+04  3.82888E+04 -4.66319E+04  1.10728E+04 -4.70168E+04 -1.85268E+04 -2.54182E+04 -4.18532E+04
  7.66326E+03 -4.12755E+04  3.41242E+04 -1.67028E+04  3.06635E+04  1.19667E+04  5.52692E+03  2.09852E+04
 -1.32738E+04  1.00341E+04 -1.18126E+04 -7.75179E+03  5.51091E+03 -1.09223E+04  1.94693E+04  5.11229E+03
  1.44900E+04  2.24498E+04 -5.83739E+03  2.61376E+04 -2.39261E+04  1.43721E+04 -3.12467E+04 -2.84555E+03
 -2.51764E+04 -1.87444E+04 -1.17546E+04 -2.51368E+04  4.52313E+03 -2.49581E+04  1.96980E+04 -2.24175E+04
  3.06396E+04 -1.40784E+04  3.73274E+04  4.30164E+03  2.70380E+04  2.40214E+04  4.90309E+03  4.18656E+04
 -1.96629E+04  3.36866E+04 -3.04961E+04  1.21125E+04 -2.19941E+04 -1.02344E+04 -5.56897E+03 -1.26398E+04
  2.02581E+03 -2.03536E+03 -7.39168E+03  7.70696E+03 -1.94142E+04  4.81478E+03 -1.95706E+04 -9.36621E+03
 -1.23873E+04 -2.29592E+04  6.35006E+03 -2.75133E+04  1.85340E+04 -1.97874E+04  2.25141E+04 -1.78875E+03
  1.38062E+04  1.64301E+04 -1.63192E+03  2.30941E+04 -1.67986E+04  1.31229E+04 -2.30887E+04 -5.40091E+03
 -1.68121E+04 -2.03554E+04 -1.59073E+03 -2.83478E+04  1.29669E+04 -2.26936E+04  2.31349E+04 -1.19766E+04
  2.15115E+04  1.31293E+02  1.58912E+04  4.79623E+03  9.29629E+03  1.27417E+03  1.21693E+04 -2.10682E+03
  2.19184E+04  3.00820E+03  2.55186E+04  1.81553E+04  1.77454E+04  3.66437E+04 -2.32997E+03  4.26213E+04
 -2.58000E+04  3.51482E+04 -4.12441E+04  1.83648E+04 -4.37001E+04 -2.75969E+03 -3.50179E+04 -2.49868E+04
 -1.34131E+04 -3.60268E+04  1.23494E+04 -3.09697E+04  2.67076E+04 -1.52362E+04  2.44640E+04  8.10262E+03
  7.68747E+03  1.82016E+04 -1.14384E+04  1.56477E+04 -1.95816E+04  2.84910E+03 -1.50403E+04 -1.22232E+04
 -7.01311E+02 -1.90397E+04  1.04859E+04 -1.41518E+04  1.30339E+04 -2.20897E+03  3.19489E+03  9.24176E+03
 -7.94197E+03  3.70616E+03 -8.15672E+03 -7.26812E+03 -1.24003E+03 -1.79512E+04  1.17286E+04 -1.93459E+04
  2.17316E+04 -1.05686E+04  2.49114E+04  3.40166E+03  2.24762E+04  1.82247E+04  9.55846E+03  2.81752E+04
 -5.13789E+03  3.01023E+04 -1.97481E+04  1.96530E+04 -2.21611E+04  3.59416E+03 -1.61207E+04 -5.10998E+03
 -6.75742E+03 -7.58651E+03  4.36887E+01  5.43045E+02 -2.52387E+03  3.46717E+03 -6.51423E+03  5.38780E+03
 -1.42361E+04 -7.10756E+02 -1.48978E+04 -1.25582E+04 -6.01999E+03 -1.88151E+04  5.97225E+03 -1.54258E+04
  1.24889E+04 -6.18394E+03  9.28137E+03  3.60266E+03 -1.46760E+02  6.77439E+03 -6.84638E+03 -4.29816E+02
 -7.37066E+03 -8.63370E+03 -1.87738E+03 -1.48597E+04  8.16931E+03 -1.72690E+04  1.89650E+04 -8.77202E+03
  2.36060E+04  2.62197E+03  1.59368E+04  1.38248E+04  2.60443E+03  1.87494E+04 -9.65076E+03  1.51896E+04
 -1.20381E+04  3.51432E+03 -6.53905E+03 -3.69547E+03  2.04054E+03 -4.84870E+03  8.73993E+03 -9.77965E+02
  7.51415E+03  7.09808E+03  1.59057E+03  1.20933E+04 -9.43218E+03  1.20025E+04 -1.52451E+04  2.47893E+03
 -1.08343E+04 -7.99821E+03  2.74776E+02 -1.38619E+04  8.86384E+03 -6.65957E+03  8.54469E+03  3.60272E+03
  2.72422E+03  9.89293E+03 -8.04620E+03  1.19879E+04 -1.36018E+04  4.67249E+03 -1.34673E+04 -5.34439E+03
 -7.46274E+03 -1.57287E+04  3.44787E+03 -1.76371E+04  1.50196E+04 -1.12269E+04  1.56216E+04  2.68771E+03
  9.10018E+03  1.32112E+04 -1.10101E+03  1.46459E+04 -1.04525E+04  8.00536E+03 -1.21630E+04 -1.66591E+03
 -1.07247E+04 -9.44425E+03 -2.19642E+03 -1.12175E+04  6.54697E+03 -9.42899E+03  7.20210E+03 -3.18968E+03
  4.43454E+03  1.66016E+03 -8.98152E+02  1.82983E+03  2.44226E+02 -3.38546E+03  2.51868E+03 -7.72361E+03
  1.06252E+04 -5.17511E+03  1.52177E+04  2.26632E+03  1.52496E+04  1.05857E+04  1.03745E+04  2.02942E+04
 -5.66059E+03  2.34535E+04 -1.89234E+04  1.71688E+04 -2.50822E+04  3.31194E+03 -1.99779E+04 -8.56388E+03
 -1.05222E+04 -1.63385E+04 -2.94396E+02 -1.48637E+04  5.44332E+03 -6.99541E+03  4.34214E+03 -5.40251E+03
  2.51756E+03 -3.10899E+03  3.78911E+03 -4.08199E+03  6.15838E+03 -4.27915E+03  7.37858E+03 -1.02216E+03
  1.00920E+04  2.76256E+03  5.70252E+03  8.61915E+03 -2.25023E+03  1.11114E+04 -1.07953E+04  8.91702E+03
 -1.44494E+04 -1.22477E+03 -9.39445E+03 -1.01667E+04 -7.52547E+02 -1.55130E+04  8.66724E+03 -1.46802E+04
  1.54334E+04 -8.68920E+03  1.85458E+04  2.72621E+03  1.25423E+04  1.36368E+04  1.85058E+03  1.81424E+04
 -7.59803E+03  1.27850E+04 -1.04509E+04  5.76171E+03 -6.72984E+03 -1.81240E+03 -2.95340E+03 -2.61146E+03
 -1.05396E+03  1.47256E+02 -1.51524E+03  3.22857E+03 -5.41356E+03  3.02774E+03 -9.34156E+03 -1.54834E+03
 -7.38344E+03 -9.71670E+03 -1.93784E+02 -1.43904E+04  8.78595E+03 -1.30179E+04  1.46187E+04 -4.44109E+03
  1.36714E+04  6.81161E+03  6.90261E+03  1.33200E+04 -2.79527E+03  1.46611E+04 -1.19698E+04  9.31696E+03
 -1.32379E+04  1.05837E+03 -9.19322E+03 -9.49541E+03 -4.55365E+02 -1.24039E+04  6.30182E+03 -8.95998E+03
  9.44262E+03 -2.67949E+03  6.84370E+03  1.27951E+03  2.04559E+03  4.90168E+03  1.51678E+03  1.94365E+03
  3.03473E+03  9.28283E+02  3.75856E+03  2.58844E+03  4.05012E+03  6.14109E+03  4.47262E+03  8.10207E+03
 -2.85677E+03  1.21225E+04 -9.61991E+03  1.16695E+04 -1.50216E+04  2.85242E+03 -1.51534E+04 -6.49297E+03
 -7.18298E+03 -1.42179E+04  2.53055E+03 -1.61333E+04  8.37360E+03 -9.48440E+03  1.16411E+04 -3.45959E+03
  9.31522E+03  5.49301E+03  1.56983E+03  8.49610E+03 -3.46772E+03  6.03629E+03 -5.89335E+03 -8.79300E+02
 -2.18186E+03 -6.58549E+03  4.02260E+03 -6.62697E+03  5.93690E+03 -3.12877E+03  6.21571E+03  9.59007E+02
  3.65944E+03  3.45937E+03  1.67009E+03  2.57210E+03 -1.32834E+03  2.29457E+03  1.35143E+03 -1.95671E+02
  2.51066E+03 -1.06140E+03  5.67223E+03  2.25842E+03  3.82152E+03  8.35880E+03 -5.22186E+02  9.60314E+03
 -6.52879E+03  7.13818E+03 -9.27814E+03  1.67925E+03 -8.02713E+03 -3.37595E+03 -2.93474E+03 -5.96451E+03
  5.53913E+02 -5.89041E+03  3.69788E+03 -3.11590E+03  3.66252E+03  3.04619E+03 -2.05419E+03  4.80867E+03
 -6.34424E+03  3.43986E+03 -6.62072E+03 -3.24018E+03 -3.77316E+03 -8.41987E+03  6.26218E+02 -7.87403E+03
  5.52381E+03 -4.81523E+03  5.67138E+03 -1.23429E+02  5.19113E+03  2.46653E+03  8.01018E+02  3.90436E+03
 -3.04032E+03  9.63830E+02 -2.80269E+03 -3.01568E+03  1.35314E+03 -6.61358E+03  7.12727E+03 -5.23549E+03
  9.19320E+03  1.40209E+03  9.49633E+03  6.16858E+03  3.44609E+03  8.96261E+03 -3.10117E+03  8.95509E+03
 -7.55979E+03  3.93517E+03 -8.46551E+03 -9.48717E+02 -4.94901E+03 -5.60716E+03  1.53544E+03 -6.12921E+03
  6.36979E+03 -2.03918E+03  5.27136E+03  2.23524E+03  1.50021E+03  5.26313E+03 -2.69947E+02  3.96540E+03
 -2.14059E+03  3.53417E+03 -3.10574E+03  5.61662E+02 -1.27664E+03  5.96126E+02 -1.30598E+03  1.75998E+03
 -2.44224E+03  3.74733E+03 -7.02579E+03  2.72314E+03 -9.06410E+03  4.02131E+02 -1.13175E+04 -6.45219E+03
 -6.22412E+03 -1.22794E+04  2.76669E+03 -1.46277E+04  9.10459E+03 -1.11286E+04  1.46537E+04 -4.43787E+03
  1.31341E+04  3.00387E+03  8.07158E+03  8.88419E+03  8.06385E+02  9.28535E+03 -4.56895E+03  7.33154E+03
 -5.77639E+03  3.20288E+03 -4.09506E+03 -9.37978E+02 -1.12418E+03 -1.50062E+03 -7.03481E+02 -1.33860E+01
 -1.77826E+03  6.06552E+02 -1.69973E+03 -8.70442E+02 -4.10977E+02 -2.26354E+03  1.32504E+03 -3.73363E+03
  4.64192E+03 -3.09851E+03  6.28321E+03 -6.34366E+02  6.99172E+03  5.22887E+03  1.90593E+03  1.02173E+04
 -5.58646E+03  1.17854E+04 -1.04983E+04  6.90911E+03 -1.20378E+04 -7.40425E+02 -8.99122E+03 -7.54409E+03
 -3.65318E+03 -1.14724E+04  2.06706E+03 -9.55138E+03  6.61675E+03 -5.26843E+03  6.84125E+03  4.07159E+01
  3.64716E+03  3.66371E+03 -6.39024E+02  2.79091E+03 -2.35448E+03 -1.76011E+02 -4.39958E+02 -2.71431E+03
  2.73509E+03 -1.56748E+03  3.63142E+03  7.13310E+02  3.29945E+03  3.97753E+03  1.16953E+01  5.67839E+03
 -4.27152E+03  4.21518E+03 -7.01808E+03  4.76705E+02 -7.32010E+03 -5.07977E+03 -1.25056E+03 -8.70167E+03
  4.40326E+03 -8.08849E+03  8.33745E+03 -2.02471E+03  6.82564E+03  2.42903E+03  3.77728E+03  6.60258E+03
  1.32265E+03  7.33067E+03 -3.12200E+03  4.80532E+03 -3.96103E+03  3.65625E+03 -3.67953E+03 -2.49150E+02
 -1.23060E+03 -1.17769E+02 -1.47691E+03 -5.50800E+01 -4.03076E+03  1.42398E+03 -5.13181E+03 -6.80541E+02
 -4.86635E+03 -4.18277E+03 -1.59241E+03 -6.54965E+03  3.49893E+03 -8.24773E+03  6.17988E+03 -3.28979E+03
  6.38846E+03  9.51710E+02  3.35544E+03  4.98749E+03 -5.96237E+02  6.66410E+03 -5.68139E+03  4.63931E+03
