 $NMID ID='MM_0lb_SNR400_8hz_g60_17.RAW', FMTDAT='(8E13.5)'
 TRAMP=1., VOLUME=1. $END
  3.10410E+05  1.41333E+03  3.37866E+05  2.50513E+05  8.51083E+04  3.38750E+05 -1.32650E+05  2.52163E+05
 -1.91082E+05  8.41966E+04 -1.12936E+05 -3.12851E+04  1.94036E+01 -5.05476E+04  5.28500E+04 -2.75275E+02
  3.45397E+04  5.25580E+04 -1.63931E+04  7.59727E+04 -6.16512E+04  6.47530E+04 -8.53932E+04  3.18453E+04
 -8.37010E+04 -1.16878E+04 -5.78771E+04 -5.31224E+04 -1.52353E+04 -7.14363E+04  2.78321E+04 -4.63258E+04
  4.14801E+04  3.84896E+03  1.66656E+04  4.94049E+04 -3.49353E+04  4.92414E+04 -6.77570E+04  5.36547E+02
 -5.55336E+04 -5.85258E+04 -6.94963E+03 -8.05234E+04  3.54600E+04 -5.77797E+04  5.10472E+04 -1.88265E+04
  4.63205E+04  1.16949E+04  3.32476E+04  2.68618E+04  1.59399E+04  3.09317E+04 -5.78388E+03  2.74418E+04
 -2.23892E+04  1.16600E+04 -1.73947E+04 -4.69922E+03  7.49555E+03 -6.40189E+03  2.36454E+04  1.43738E+04
  7.23448E+03  3.81101E+04 -3.43686E+04  3.76786E+04 -6.65094E+04  2.89768E+03 -5.97897E+04 -4.44590E+04
 -1.28234E+04 -6.63240E+04  4.34192E+04 -4.95748E+04  6.20349E+04 -2.56922E+03  3.70140E+04  3.57976E+04
 -5.54587E+03  4.11402E+04 -3.26919E+04  1.98777E+04 -3.40677E+04 -3.59838E+03 -2.05775E+04 -1.26206E+04
 -1.01692E+04 -1.50208E+04 -3.20875E+01 -1.93673E+04  8.50725E+03 -2.39289E+04  1.51163E+04 -1.17097E+04
  1.05588E+04  6.99085E+03 -1.11579E+04  1.30370E+04 -2.38844E+04 -7.50045E+03 -8.28707E+03 -3.90779E+04
  2.62357E+04 -4.89351E+04  5.40497E+04 -2.10836E+04  4.95551E+04  2.21710E+04  1.81894E+04  4.84805E+04
 -1.71130E+04  3.71800E+04 -2.83545E+04  3.07737E+03 -1.27936E+04 -2.94364E+04  2.20868E+04 -3.75282E+04
  4.57536E+04 -1.20192E+04  4.25041E+04  2.49332E+04  2.29483E+04  5.25388E+04 -8.11942E+03  5.86173E+04
 -3.67910E+04  4.05983E+04 -5.01927E+04  1.25906E+04 -4.91653E+04 -1.96080E+04 -2.75725E+04 -4.38852E+04
  8.61816E+03 -4.33299E+04  3.50215E+04 -1.81747E+04  3.37778E+04  1.17231E+04  6.05945E+03  2.14526E+04
 -1.43783E+04  1.05061E+04 -1.19608E+04 -7.90424E+03  5.16401E+03 -1.21582E+04  1.90023E+04  5.96284E+03
  1.60388E+04  2.24507E+04 -5.25272E+03  2.70108E+04 -2.43998E+04  1.66623E+04 -3.22054E+04 -1.59722E+03
 -2.69175E+04 -1.92424E+04 -1.37178E+04 -2.58569E+04  5.33497E+03 -2.79180E+04  2.13191E+04 -2.49131E+04
  3.37046E+04 -1.46377E+04  4.06080E+04  5.39396E+03  2.87552E+04  2.60492E+04  4.63181E+03  4.30220E+04
 -2.09761E+04  3.44626E+04 -3.11054E+04  1.27738E+04 -2.32248E+04 -1.03513E+04 -4.49373E+03 -1.17533E+04
  3.42573E+02  2.66030E+02 -9.52545E+03  9.14962E+03 -2.12816E+04  4.55339E+03 -2.11973E+04 -1.04422E+04
 -1.22575E+04 -2.54949E+04  6.00253E+03 -2.89271E+04  2.04954E+04 -2.12671E+04  2.57579E+04 -2.27553E+03
  1.54220E+04  1.70154E+04 -1.22386E+03  2.48934E+04 -1.77382E+04  1.45434E+04 -2.58347E+04 -4.97114E+03
 -1.86413E+04 -2.27139E+04 -2.08744E+03 -3.03559E+04  1.31841E+04 -2.54172E+04  2.45057E+04 -1.34480E+04
  2.27763E+04 -7.12695E+02  1.68316E+04  5.80221E+03  1.01915E+04  1.53197E+03  1.29921E+04 -2.66304E+03
  2.37926E+04  2.71443E+03  2.80112E+04  1.99168E+04  1.98822E+04  4.10405E+04 -2.24352E+03  4.82381E+04
 -2.80013E+04  4.02522E+04 -4.57955E+04  2.13446E+04 -4.92631E+04 -3.32479E+03 -3.94840E+04 -3.01624E+04
 -1.46740E+04 -4.10435E+04  1.46980E+04 -3.55303E+04  3.09764E+04 -1.67628E+04  2.68503E+04  8.77305E+03
  8.28767E+03  1.96612E+04 -1.21845E+04  1.74299E+04 -2.14021E+04  2.95069E+03 -1.71219E+04 -1.44938E+04
 -1.37956E+03 -2.12504E+04  1.17151E+04 -1.57848E+04  1.49552E+04 -9.17764E+02  3.04411E+03  9.50887E+03
 -9.83902E+03  4.88343E+03 -9.89481E+03 -6.56302E+03 -3.25656E+03 -1.96762E+04  1.31145E+04 -2.17453E+04
  2.58806E+04 -1.25994E+04  3.00412E+04  3.50305E+03  2.59489E+04  2.01396E+04  1.23623E+04  3.29148E+04
 -6.89258E+03  3.53776E+04 -2.22337E+04  2.13283E+04 -2.54459E+04  3.74506E+03 -1.65699E+04 -7.35147E+03
 -6.88158E+03 -8.51066E+03 -2.73562E+02  2.72097E+02 -3.81793E+03  3.09499E+03 -7.56266E+03  5.85961E+03
 -1.58087E+04 -1.34534E+03 -1.64732E+04 -1.31702E+04 -6.30702E+03 -2.07616E+04  6.99586E+03 -1.80883E+04
  1.51004E+04 -6.55338E+03  1.05158E+04  4.99892E+03 -8.66915E+02  7.15864E+03 -9.23850E+03  1.03284E+03
 -8.21539E+03 -1.19468E+04 -7.34756E+02 -1.73039E+04  1.00264E+04 -1.86912E+04  2.37456E+04 -9.82524E+03
  2.66309E+04  2.37138E+03  1.97778E+04  1.67271E+04  4.01488E+03  2.16137E+04 -1.11555E+04  1.74205E+04
 -1.39157E+04  4.84816E+03 -6.47579E+03 -3.70082E+03  3.02451E+03 -5.06363E+03  1.04084E+04 -4.30773E+02
  8.50238E+03  8.49167E+03  8.70008E+02  1.35172E+04 -1.02206E+04  1.42198E+04 -1.76424E+04  3.75935E+03
 -1.21259E+04 -9.00598E+03  1.21339E+03 -1.56576E+04  9.89033E+03 -7.68989E+03  1.17712E+04  4.55213E+03
  2.15294E+03  1.10030E+04 -9.31395E+03  1.33576E+04 -1.54602E+04  6.31496E+03 -1.57553E+04 -5.70071E+03
 -9.10858E+03 -1.77547E+04  4.25638E+03 -2.08685E+04  1.79356E+04 -1.26283E+04  1.92262E+04  4.00196E+03
  1.09477E+04  1.55646E+04 -2.08091E+03  1.80454E+04 -1.36428E+04  9.82782E+03 -1.48403E+04 -2.12876E+03
 -1.18407E+04 -1.13149E+04 -2.12832E+03 -1.45042E+04  6.91202E+03 -1.03937E+04  9.60553E+03 -3.84475E+03
  5.31779E+03  2.50952E+03 -1.07195E+03  2.65828E+03 -6.64440E+01 -3.86212E+03  4.15906E+03 -9.36135E+03
  1.33977E+04 -5.67427E+03  1.93887E+04  1.74856E+03  1.80394E+04  1.35049E+04  1.11704E+04  2.49339E+04
 -5.57380E+03  2.87766E+04 -2.31603E+04  2.02985E+04 -2.99348E+04  4.22977E+03 -2.50515E+04 -1.03199E+04
 -1.23086E+04 -1.94651E+04 -3.99484E+02 -1.67911E+04  6.25238E+03 -1.01523E+04  6.20335E+03 -6.29102E+03
  4.23263E+03 -3.91689E+03  5.07882E+03 -4.84799E+03  6.37109E+03 -3.32735E+03  9.02598E+03 -1.61102E+03
  1.22968E+04  3.73535E+03  7.68691E+03  1.13097E+04 -1.77754E+03  1.27540E+04 -1.32479E+04  9.97702E+03
 -1.76838E+04 -1.34017E+03 -1.23226E+04 -1.24165E+04 -2.35436E+03 -1.91025E+04  1.08090E+04 -1.81487E+04
  2.11532E+04 -1.03122E+04  2.37409E+04  3.31093E+03  1.60577E+04  1.65092E+04  1.98983E+03  2.10357E+04
 -8.98575E+03  1.68889E+04 -1.31791E+04  6.42978E+03 -8.87231E+03 -2.04826E+03 -4.19164E+03 -2.22278E+03
 -1.87922E+03 -3.96886E+02 -2.39473E+03  3.30906E+03 -7.36308E+03  2.55293E+03 -1.14989E+04 -2.40902E+03
 -9.27900E+03 -1.17395E+04 -7.94596E+02 -1.72294E+04  1.03551E+04 -1.63373E+04  1.81288E+04 -5.98680E+03
  1.75990E+04  8.10651E+03  7.33476E+03  1.62438E+04 -2.80726E+03  1.76753E+04 -1.35475E+04  1.18256E+04
 -1.67928E+04  2.80829E+02 -1.35691E+04 -1.09349E+04 -1.50775E+03 -1.45915E+04  7.53094E+03 -1.11190E+04
  1.12209E+04 -3.50644E+03  7.61073E+03  2.56262E+03  2.85782E+03  6.22907E+03  1.47752E+03  2.19950E+03
  3.23024E+03  1.46750E+03  5.22306E+03  3.14841E+03  5.28494E+03  5.22752E+03  4.49193E+03  1.08384E+04
 -2.73344E+03  1.35956E+04 -1.27381E+04  1.42997E+04 -1.87463E+04  3.27863E+03 -1.91755E+04 -7.82798E+03
 -9.76588E+03 -1.88163E+04  3.19125E+03 -1.96699E+04  1.12469E+04 -1.34198E+04  1.64683E+04 -4.09971E+03
  1.16820E+04  6.79506E+03  2.52778E+03  1.04707E+04 -5.55544E+03  6.81010E+03 -8.22432E+03 -2.38402E+03
 -3.28348E+03 -7.94395E+03  3.51720E+03 -8.47498E+03  6.93092E+03 -4.12706E+03  8.10460E+03  1.32290E+03
  4.94893E+03  3.60212E+03  1.78078E+03  4.18311E+03 -1.12547E+03  3.07259E+03  5.35503E+02 -3.30740E+02
  2.80001E+03 -5.87632E+02  7.05043E+03  3.29162E+03  3.99394E+03  9.34885E+03 -2.61125E+03  1.33628E+04
 -8.15728E+03  8.63257E+03 -1.18157E+04  2.70908E+03 -1.09676E+04 -4.40229E+03 -4.54508E+03 -6.97915E+03
  8.13564E+02 -7.45767E+03  4.73096E+03 -4.08065E+03  5.11907E+03  3.14981E+03 -1.80052E+03  6.92959E+03
 -8.05126E+03  4.02999E+03 -8.95387E+03 -5.42790E+03 -4.89134E+03 -1.04198E+04  2.38553E+03 -1.05102E+04
  6.91490E+03 -6.85221E+03  8.48461E+03 -6.92285E+02  6.18219E+03  2.88160E+03  1.23150E+03  5.36921E+03
 -3.65159E+03  1.40977E+03 -4.89080E+03 -4.24803E+03  2.20195E+03 -8.80218E+03  9.55244E+03 -6.81461E+03
  1.28224E+04  1.21558E+03  1.09124E+04  8.85604E+03  4.42285E+03  1.16672E+04 -4.44099E+03  1.19259E+04
 -9.96480E+03  5.75544E+03 -1.08631E+04 -1.38770E+03 -5.70881E+03 -8.18031E+03  2.09815E+03 -8.36446E+03
  6.80689E+03 -3.73726E+03  8.32721E+03  3.35042E+03  1.75159E+03  7.45502E+03 -1.12152E+03  5.99869E+03
 -3.06254E+03  4.39225E+03 -2.32419E+03  9.34836E+02 -1.40858E+03  7.99828E+02 -2.10225E+03  3.63742E+03
 -3.95612E+03  4.71524E+03 -8.72311E+03  4.78121E+03 -1.30793E+04  2.13729E+02 -1.36151E+04 -8.34571E+03
 -7.48764E+03 -1.63106E+04  3.16062E+03 -1.81750E+04  1.21798E+04 -1.48525E+04  1.84130E+04 -5.95145E+03
  1.84144E+04  4.13569E+03  1.08064E+04  1.15373E+04  1.54927E+03  1.34064E+04 -4.95371E+03  9.53930E+03
 -6.90352E+03  3.86280E+03 -4.90114E+03 -1.03529E+03 -8.56732E+02 -1.24170E+03 -4.94898E+02  6.02983E+02
 -1.82070E+03  3.05269E+02 -3.21320E+03 -4.01828E+02 -1.59220E+03 -3.44395E+03  3.34528E+02 -5.61966E+03
  5.70255E+03 -4.29775E+03  8.44669E+03 -4.68751E+02  9.70162E+03  6.50745E+03  1.93847E+03  1.33203E+04
 -6.87755E+03  1.52455E+04 -1.44431E+04  8.78113E+03 -1.63145E+04 -1.06616E+03 -1.27671E+04 -9.50689E+03
 -5.21032E+03 -1.32140E+04  3.70851E+03 -1.28764E+04  9.00786E+03 -6.89516E+03  9.49267E+03  5.83245E+02
  4.59471E+03  3.74097E+03 -2.77174E+02  4.44141E+03 -2.05161E+03 -4.19504E+02  3.59057E+02 -2.87928E+03
  4.40830E+03 -2.96055E+03  5.28494E+03  2.14822E+03  3.36876E+03  5.57715E+03  1.08183E+02  7.57704E+03
 -6.47154E+03  6.66546E+03 -9.99754E+03  1.32323E+03 -7.72294E+03 -6.39188E+03 -1.22628E+03 -1.13812E+04
  6.61178E+03 -9.98836E+03  1.12440E+04 -3.09643E+03  1.07222E+04  3.41922E+03  6.80138E+03  8.91169E+03
  9.40068E+02  9.51108E+03 -2.48069E+03  7.27496E+03 -5.39004E+03  4.27414E+03 -4.35143E+03  1.06419E+03
 -3.43916E+03 -1.04936E+02 -2.80310E+03  1.35966E+03 -5.38869E+03  1.73307E+03 -6.65897E+03 -1.00902E+03
 -6.92009E+03 -4.73097E+03 -1.85021E+03 -9.20642E+03  4.63556E+03 -1.02834E+04  8.60074E+03 -3.80668E+03
  8.32591E+03  7.40368E+02  5.87070E+03  7.13136E+03 -1.36697E+03  9.80501E+03 -7.27619E+03  5.96918E+03
