 $NMID ID='MM_0lb_SNR400_17hz_g55_67.RAW', FMTDAT='(8E13.5)'
 TRAMP=1., VOLUME=1. $END
  3.10322E+05  4.58496E+02  3.37114E+05  2.50412E+05  8.48095E+04  3.37597E+05 -1.32880E+05  2.50893E+05
 -1.90229E+05  8.25215E+04 -1.10997E+05 -3.24161E+04  6.92372E+02 -5.04267E+04  5.33898E+04 -4.88685E+01
  3.52380E+04  5.28889E+04 -1.68538E+04  7.52232E+04 -6.00753E+04  6.35909E+04 -8.38497E+04  3.14444E+04
 -8.08170E+04 -1.19709E+04 -5.67251E+04 -5.07026E+04 -1.49913E+04 -6.92348E+04  2.66802E+04 -4.54335E+04
  3.98204E+04  3.43466E+03  1.60679E+04  4.76988E+04 -3.44898E+04  4.66863E+04 -6.64151E+04  2.67700E+01
 -5.33566E+04 -5.69621E+04 -6.62764E+03 -7.58413E+04  3.35253E+04 -5.45716E+04  4.73832E+04 -1.70809E+04
  4.21046E+04  1.11362E+04  3.18982E+04  2.53190E+04  1.58490E+04  2.89143E+04 -4.64584E+03  2.69306E+04
 -2.20612E+04  1.26501E+04 -1.90769E+04 -4.53322E+03  5.25997E+03 -7.74903E+03  2.15792E+04  1.24466E+04
  7.54159E+03  3.45638E+04 -3.19097E+04  3.49109E+04 -6.25163E+04  1.98277E+03 -5.70095E+04 -4.22103E+04
 -1.22837E+04 -6.18856E+04  3.93395E+04 -4.43631E+04  5.71175E+04 -2.10549E+03  3.35828E+04  3.22282E+04
 -5.84807E+03  3.53301E+04 -2.98711E+04  1.48379E+04 -2.93412E+04 -5.14556E+03 -1.59160E+04 -1.04931E+04
 -7.78542E+03 -1.25227E+04 -6.28647E+02 -1.73491E+04  7.40750E+03 -2.20116E+04  1.49498E+04 -1.35597E+04
  1.16340E+04  4.69189E+03 -7.39679E+03  1.33152E+04 -2.07761E+04 -4.31323E+03 -8.14217E+03 -3.21398E+04
  2.18352E+04 -4.27167E+04  4.62875E+04 -1.89998E+04  4.36830E+04  1.85813E+04  1.47136E+04  4.31613E+04
 -1.56350E+04  3.22840E+04 -2.47905E+04  1.72544E+03 -9.11511E+03 -2.66679E+04  2.04749E+04 -3.28797E+04
  4.04232E+04 -8.69220E+03  3.37655E+04  2.34502E+04  1.70317E+04  4.50616E+04 -7.71606E+03  4.85103E+04
 -3.04262E+04  3.19287E+04 -4.01862E+04  8.36088E+03 -4.07505E+04 -1.59662E+04 -2.24974E+04 -3.68428E+04
  7.23853E+03 -3.63656E+04  3.03958E+04 -1.39026E+04  2.84688E+04  1.08834E+04  3.90260E+03  1.85845E+04
 -1.30724E+04  7.68595E+03 -1.02118E+04 -7.37460E+03  6.14300E+03 -1.05023E+04  1.78155E+04  6.64777E+03
  1.30542E+04  2.14471E+04 -6.08926E+03  2.39550E+04 -2.17704E+04  1.02625E+04 -2.65399E+04 -5.30926E+03
 -1.87785E+04 -1.65704E+04 -7.65331E+03 -1.93849E+04  3.52063E+03 -1.72979E+04  1.45990E+04 -1.65525E+04
  2.40423E+04 -1.25640E+04  3.03700E+04  2.18590E+03  2.28149E+04  1.78978E+04  4.22563E+03  3.42179E+04
 -1.73670E+04  2.92115E+04 -2.74685E+04  9.89269E+03 -1.98828E+04 -9.98867E+03 -3.90010E+03 -1.34226E+04
  2.34939E+03 -3.90339E+03 -3.61329E+03  6.02097E+03 -1.50783E+04  5.20026E+03 -1.53897E+04 -6.62788E+03
 -9.31167E+03 -1.73245E+04  5.06061E+03 -2.11529E+04  1.45338E+04 -1.48102E+04  1.65066E+04 -1.38086E+03
  1.03279E+04  1.20694E+04 -1.18995E+03  1.75513E+04 -1.19417E+04  9.68856E+03 -1.66424E+04 -3.24387E+03
 -1.30996E+04 -1.54842E+04 -1.60523E+03 -2.15619E+04  9.40215E+03 -1.71396E+04  1.82060E+04 -8.07162E+03
  1.60026E+04  7.18759E+02  1.19275E+04  4.29648E+03  6.35374E+03  1.01520E+03  9.50604E+03 -2.20317E+03
  1.56116E+04  2.81616E+03  1.73552E+04  1.33133E+04  1.04934E+04  2.75698E+04 -2.82248E+03  3.05914E+04
 -1.74254E+04  2.45799E+04 -2.82365E+04  1.18610E+04 -2.94654E+04 -2.53514E+03 -2.48955E+04 -1.67521E+04
 -1.06779E+04 -2.32677E+04  8.32113E+03 -2.23247E+04  1.83343E+04 -1.21706E+04  1.71298E+04  5.15382E+03
  6.95107E+03  1.24147E+04 -8.24710E+03  1.19387E+04 -1.47385E+04  3.42330E+03 -1.10009E+04 -9.28684E+03
 -4.00533E+02 -1.39839E+04  7.68859E+03 -1.00344E+04  8.44380E+03 -1.80420E+03  1.79778E+03  5.94634E+03
 -6.08184E+03  2.31193E+03 -5.49636E+03 -4.84104E+03  6.60244E+02 -1.15958E+04  8.57638E+03 -1.21939E+04
  1.42433E+04 -5.52306E+03  1.50919E+04  3.16291E+03  1.28981E+04  1.10205E+04  5.90762E+03  1.74998E+04
 -2.17315E+03  1.90601E+04 -1.18108E+04  1.14736E+04 -1.34713E+04  3.60568E+03 -9.86795E+03 -3.25980E+03
 -5.20875E+03 -4.45690E+03 -1.01392E+03  1.52952E+03 -2.25575E+03  2.17094E+03 -4.48993E+03  4.01434E+03
 -9.31265E+03 -4.42568E+02 -9.62170E+03 -7.92824E+03 -4.16974E+03 -1.34710E+04  3.51741E+03 -9.64421E+03
  7.95228E+03 -4.53013E+03  6.11339E+03  2.28988E+03  3.81370E+02  3.95006E+03 -4.23339E+03 -6.16845E+02
 -3.49875E+03 -5.82894E+03 -1.33386E+03 -8.28766E+03  5.06601E+03 -8.94701E+03  1.13103E+04 -5.10198E+03
  1.38152E+04  1.35865E+03  9.75987E+03  7.64935E+03  2.03456E+03  1.04105E+04 -5.88758E+03  9.92943E+03
 -8.05630E+03  2.90283E+03 -4.32338E+03 -1.33014E+03  1.48281E+03 -3.00249E+03  5.43922E+03 -1.40871E+03
  4.36731E+03  4.33949E+03  1.60008E+03  7.30576E+03 -5.00606E+03  7.39123E+03 -9.23486E+03  1.73182E+03
 -5.48532E+03 -4.66601E+03  6.07776E+02 -7.93497E+03  4.55323E+03 -3.95214E+03  3.98595E+03  1.83702E+03
  5.43324E+02  4.15711E+03 -4.82540E+03  5.96809E+03 -6.76022E+03  2.92679E+03 -6.09792E+03 -1.71756E+03
 -3.61896E+03 -6.77553E+03  2.14022E+03 -9.25755E+03  7.63095E+03 -6.07304E+03  8.05374E+03  1.68741E+03
  4.94936E+03  6.59238E+03  1.77141E+02  7.78576E+03 -5.70876E+03  5.07800E+03 -6.64497E+03 -5.14677E+02
 -6.60645E+03 -5.89336E+03 -1.12070E+03 -6.51744E+03  2.86070E+03 -5.45013E+03  3.44784E+03 -2.58729E+03
  3.12864E+03  2.42180E+02 -7.12859E+01  1.12104E+03  1.30023E+02 -3.06949E+02  2.91904E+02 -3.07300E+03
  5.24281E+03 -1.07513E+03  6.34080E+03  1.23473E+03  7.54470E+03  4.29947E+03  6.12660E+03  9.32440E+03
 -1.52418E+03  1.02817E+04 -9.65022E+03  7.80905E+03 -1.22508E+04  1.43638E+03 -9.27375E+03 -3.43510E+03
 -4.60394E+03 -8.00554E+03 -2.98487E+02 -6.24585E+03  2.93452E+03 -3.32549E+03  2.04252E+03 -2.40284E+03
  1.57060E+03 -1.57278E+03  2.08972E+03 -2.78112E+03  3.70653E+03 -1.33353E+03  4.50396E+03 -1.45015E+02
  5.11057E+03  1.62317E+03  2.23781E+03  4.25839E+03 -1.58089E+03  4.02201E+03 -5.37204E+03  3.49979E+03
 -6.07501E+03 -7.77309E+02 -2.94566E+03 -4.28094E+03 -2.35015E+01 -6.22186E+03  3.63357E+03 -6.51108E+03
  6.59595E+03 -3.88670E+03  8.64294E+03  9.72754E+02  5.70280E+03  5.62689E+03  1.69504E+03  6.83611E+03
 -2.69804E+03  7.39234E+03 -4.03683E+03  2.48958E+03 -2.93978E+03 -7.94062E+02 -9.47150E+02 -1.04691E+03
 -9.63673E+02  4.05121E+02 -9.35152E+02  2.01876E+03 -2.87308E+03  8.71676E+02 -4.87353E+03 -3.04686E+02
 -2.01029E+03 -4.86023E+03  4.08477E+02 -5.64095E+03  3.80362E+03 -5.67345E+03  4.56668E+03 -1.75953E+03
  5.40642E+03  3.25777E+03  2.87225E+03  3.95486E+03 -3.35474E+02  6.19823E+03 -3.65864E+03  3.19353E+03
 -4.86972E+03  9.46075E+02 -4.20991E+03 -3.04687E+03  3.01448E+02 -3.95125E+03  2.35669E+03 -3.57252E+03
  3.14773E+03 -1.54518E+03  2.41214E+03  1.46848E+03  7.02495E+02  1.47507E+03  9.81079E+02  8.57670E+02
  1.63659E+03  5.11907E+02  2.01587E+03  8.33809E+02  1.03511E+03  2.95673E+03  1.96341E+03  2.19515E+03
 -1.65550E+03  3.31583E+03 -3.34323E+03  4.52081E+03 -4.35102E+03  1.40677E+03 -5.08394E+03 -1.05115E+03
 -2.69524E+03 -4.93499E+03  8.00046E+02 -6.16077E+03  3.15969E+03 -3.05478E+03  4.14897E+03 -1.72345E+03
  3.36648E+03  2.43201E+03  8.73567E+02  2.62288E+03 -1.09200E+03  1.84357E+03 -1.35617E+03  5.80594E+01
 -8.81043E+02 -1.88900E+03  1.92162E+03 -1.79944E+03  1.93929E+03 -1.08599E+03  1.73640E+03  8.76778E+02
  1.18901E+03  7.71885E+02  7.66492E+02  2.73173E+02 -2.03293E+02  6.01631E+02  1.87357E+03 -2.96644E+02
  6.33376E+01 -4.01052E+02  2.05993E+03  1.28011E+03  4.87629E+02  2.59761E+03 -5.13449E+02  3.62731E+03
 -2.39977E+03  1.21753E+03 -2.93660E+03  8.37117E+02 -2.76750E+03 -1.07339E+03 -7.22638E+02 -1.40516E+03
  4.97865E+02 -1.57741E+03  1.49584E+03 -5.03854E+02  9.75208E+02  1.24850E+03 -8.66606E+02  1.09515E+03
 -1.77399E+03  7.15033E+02 -1.70303E+03 -9.84597E+02 -2.75235E+02 -3.05330E+03  4.37782E+02 -2.74468E+03
  1.13763E+03 -5.51030E+02  1.61233E+03  4.52251E+02  1.36846E+03 -9.83034E+01  1.05244E+03  1.63636E+03
 -7.13300E+02 -6.64326E+01 -9.29757E+02 -2.17852E+02  9.55539E+02 -1.44282E+03  2.05895E+03 -1.36729E+03
  1.93092E+03  6.83157E+02  3.03605E+03  1.06725E+03  9.75518E+02  1.93430E+03 -9.70061E+02  3.01576E+03
 -2.03000E+03  2.96492E+02 -2.01233E+03 -4.15878E+01 -1.17853E+03 -1.88443E+03  7.17415E+02 -1.30253E+03
  1.87049E+03 -1.09753E+03  1.22174E+03  7.32396E+02  2.23116E+01  1.78066E+03  5.78985E+02  1.23770E+03
 -4.28393E+02  5.14484E+02 -1.15018E+03  5.97637E+02  2.34538E+02  2.19649E+02 -8.69324E+02  5.39429E+02
 -3.04651E+02  1.87470E+03 -2.03672E+03  8.71326E+02 -2.08870E+03  2.82573E+02 -3.33225E+03 -1.15050E+03
 -1.24810E+03 -2.97217E+03  8.34890E+02 -4.52415E+03  1.41141E+03 -2.59012E+03  3.38062E+03 -1.81201E+03
  3.33185E+03 -1.02678E+02  1.54578E+03  1.84369E+03 -5.35873E+01  1.87240E+03 -6.77237E+02  1.32113E+03
 -1.36499E+03  1.21761E+03 -6.10151E+02 -2.72620E+02 -4.00036E+02 -3.87568E+02 -1.00358E+03  1.43138E+02
 -9.66683E+02 -3.31540E+02 -1.16544E+03  4.17889E+01  1.89463E+02 -7.51244E+02 -4.23355E+02 -1.59183E+03
  1.27012E+03 -1.06669E+03  6.12351E+02  4.35626E+00  1.38564E+03  1.58415E+03  2.14933E+02  1.74590E+03
 -1.46219E+03  2.77918E+03 -2.15821E+03  1.31143E+03 -2.35101E+03 -5.04175E+02 -1.85928E+03 -1.49608E+03
 -8.38349E+02 -1.58426E+03 -6.40808E+01 -1.35964E+03  9.70916E+02 -9.59316E+02  1.18382E+03 -8.21974E+01
  1.12400E+03  2.41225E+02  1.61607E+02  3.12668E+02 -4.86918E+02 -5.29580E+00 -3.25267E+02 -5.05174E+02
  6.53285E+02  3.96577E+02  3.57805E+02  8.62519E+02 -1.43450E+02  1.03739E+02  1.02352E+02  9.67728E+02
 -4.13645E+02  1.26722E+03 -9.54163E+02 -7.03476E+00 -1.12739E+03 -5.56100E+02 -3.15530E+02 -1.69613E+03
  1.08406E+03 -9.81523E+02  1.02516E+03 -8.24281E+01  1.25712E+03 -4.13141E+02  9.28860E+02  8.78336E+02
  8.84073E+02  5.98092E+02 -7.71746E+02  9.63298E+02 -7.58740E+02  9.49205E+02 -3.25568E+01 -3.53557E+02
 -1.98925E+02 -5.88836E+02 -3.40167E+02  1.63658E+02 -8.96199E+02  2.87765E+02 -1.42970E+03 -9.30904E+02
 -1.75834E+03  3.82232E+02 -3.74647E+02 -1.27109E+03  6.11903E+02 -1.71540E+03  1.73230E+03 -6.54812E+02
  9.03045E+02  5.29960E+01 -1.94215E+02  4.67826E+02 -3.21664E+02  1.01920E+03 -8.62402E+02  8.24724E+02
