 $NMID ID='MM_0lb_SNR400_14hz_g40_63.RAW', FMTDAT='(8E13.5)'
 TRAMP=1., VOLUME=1. $END
  3.09219E+05  8.47822E+02  3.37758E+05  2.50177E+05  8.47790E+04  3.37610E+05 -1.32799E+05  2.50763E+05
 -1.90082E+05  8.33465E+04 -1.11311E+05 -3.26826E+04  4.76666E+02 -5.06890E+04  5.42106E+04 -2.07728E+02
  3.51684E+04  5.29019E+04 -1.64756E+04  7.53417E+04 -6.08537E+04  6.38047E+04 -8.28191E+04  3.24440E+04
 -8.11191E+04 -1.10347E+04 -5.72010E+04 -5.10009E+04 -1.53669E+04 -6.91497E+04  2.66360E+04 -4.51620E+04
  3.96919E+04  4.16437E+03  1.60502E+04  4.75770E+04 -3.43224E+04  4.68611E+04 -6.64090E+04 -2.55915E+02
 -5.31979E+04 -5.68630E+04 -6.60975E+03 -7.68303E+04  3.38289E+04 -5.38299E+04  4.78052E+04 -1.67869E+04
  4.27703E+04  1.11380E+04  3.15739E+04  2.52021E+04  1.55473E+04  2.98034E+04 -4.88103E+03  2.69900E+04
 -2.20432E+04  1.23663E+04 -1.91388E+04 -4.68830E+03  5.49372E+03 -7.86867E+03  2.20457E+04  1.20047E+04
  7.62994E+03  3.47557E+04 -3.10313E+04  3.47643E+04 -6.26934E+04  2.11459E+03 -5.58903E+04 -4.23910E+04
 -1.34058E+04 -6.26953E+04  3.93520E+04 -4.47539E+04  5.74329E+04 -2.27224E+03  3.35871E+04  3.24232E+04
 -6.32527E+03  3.49308E+04 -2.96520E+04  1.57848E+04 -2.92606E+04 -4.32119E+03 -1.65164E+04 -1.04433E+04
 -8.30910E+03 -1.31353E+04 -1.17636E+03 -1.74811E+04  7.46397E+03 -2.28549E+04  1.50857E+04 -1.38170E+04
  1.18852E+04  4.55271E+03 -7.26282E+03  1.29538E+04 -2.09250E+04 -3.42492E+03 -8.23093E+03 -3.27617E+04
  2.25706E+04 -4.29975E+04  4.73359E+04 -1.87686E+04  4.42698E+04  1.92592E+04  1.54125E+04  4.35849E+04
 -1.59513E+04  3.24345E+04 -2.50661E+04  2.10468E+03 -9.52464E+03 -2.75149E+04  2.08744E+04 -3.36052E+04
  4.00795E+04 -9.28463E+03  3.48109E+04  2.35763E+04  1.75456E+04  4.57024E+04 -8.22321E+03  4.90223E+04
 -3.07040E+04  3.28427E+04 -4.09298E+04  8.70424E+03 -4.12928E+04 -1.72274E+04 -2.28980E+04 -3.73442E+04
  6.96113E+03 -3.71583E+04  3.12717E+04 -1.44964E+04  2.86771E+04  1.07423E+04  3.99777E+03  1.81957E+04
 -1.36524E+04  7.46014E+03 -1.06754E+04 -7.54316E+03  5.08140E+03 -1.03802E+04  1.78149E+04  6.26659E+03
  1.32429E+04  2.20766E+04 -5.98431E+03  2.47311E+04 -2.21436E+04  1.09249E+04 -2.77491E+04 -5.17922E+03
 -2.00256E+04 -1.72888E+04 -8.07799E+03 -1.96939E+04  4.37660E+03 -1.85304E+04  1.46217E+04 -1.72104E+04
  2.54605E+04 -1.25711E+04  3.11424E+04  2.12499E+03  2.34161E+04  1.92952E+04  4.55684E+03  3.56543E+04
 -1.70485E+04  2.97764E+04 -2.75989E+04  1.06318E+04 -2.10405E+04 -9.92063E+03 -4.51710E+03 -1.38549E+04
  1.26072E+03 -3.18698E+03 -4.34003E+03  6.94798E+03 -1.56622E+04  5.46628E+03 -1.52941E+04 -6.21145E+03
 -9.68669E+03 -1.82387E+04  5.77766E+03 -2.18485E+04  1.44173E+04 -1.62491E+04  1.74985E+04 -1.58743E+03
  1.06358E+04  1.26828E+04 -5.42222E+02  1.85129E+04 -1.22339E+04  1.04699E+04 -1.80573E+04 -4.10399E+03
 -1.34454E+04 -1.59572E+04 -2.16497E+03 -2.25684E+04  9.39924E+03 -1.78300E+04  1.84149E+04 -9.07750E+03
  1.70941E+04 -9.08674E+01  1.22416E+04  4.79442E+03  6.23047E+03  4.17687E+02  8.86035E+03 -2.09559E+03
  1.65547E+04  2.58403E+03  1.86148E+04  1.48152E+04  1.23848E+04  2.86305E+04 -2.95824E+03  3.28682E+04
 -1.91465E+04  2.60761E+04 -3.09996E+04  1.30017E+04 -3.18010E+04 -1.84806E+03 -2.68508E+04 -1.75334E+04
 -1.21073E+04 -2.60460E+04  9.14153E+03 -2.36138E+04  1.99194E+04 -1.21840E+04  1.83033E+04  5.19260E+03
  7.22588E+03  1.33427E+04 -7.74131E+03  1.20477E+04 -1.54892E+04  2.50395E+03 -1.18649E+04 -1.00805E+04
 -1.75043E+02 -1.45880E+04  7.99885E+03 -1.10333E+04  9.11202E+03 -1.34475E+03  2.69057E+03  6.20570E+03
 -6.72113E+03  2.42749E+03 -5.20363E+03 -5.48066E+03  1.18504E+02 -1.28620E+04  8.61318E+03 -1.31556E+04
  1.56717E+04 -6.94905E+03  1.71902E+04  2.75817E+03  1.45729E+04  1.22357E+04  6.33352E+03  1.92351E+04
 -3.20030E+03  2.08202E+04 -1.31605E+04  1.33787E+04 -1.49556E+04  3.21320E+03 -1.03038E+04 -3.29993E+03
 -5.57020E+03 -4.66821E+03 -2.51249E+02  1.45269E+03 -2.16463E+03  2.95089E+03 -4.79910E+03  4.50454E+03
 -1.04195E+04 -9.68217E+02 -1.05899E+04 -8.56564E+03 -4.55218E+03 -1.38445E+04  4.69986E+03 -1.07615E+04
  8.87540E+03 -5.12109E+03  6.74511E+03  3.31830E+03 -3.95529E+01  4.07842E+03 -4.78026E+03  3.42793E+02
 -4.46861E+03 -6.92417E+03 -6.69407E+02 -9.83827E+03  5.75434E+03 -1.03409E+04  1.29645E+04 -5.82116E+03
  1.57776E+04  7.72280E+02  1.13686E+04  8.73048E+03  2.09534E+03  1.20206E+04 -6.38719E+03  1.08615E+04
 -9.52798E+03  3.26377E+03 -4.65505E+03 -2.00130E+03  1.65970E+03 -2.80995E+03  5.82011E+03 -1.08204E+03
  4.86073E+03  4.65203E+03  1.57785E+03  8.02506E+03 -5.72919E+03  8.49892E+03 -9.72332E+03  2.37870E+03
 -6.79959E+03 -4.73603E+03  4.48105E+02 -8.87717E+03  5.38022E+03 -4.45995E+03  5.55337E+03  1.99014E+03
  1.39716E+03  4.79686E+03 -5.33061E+03  7.18876E+03 -7.81172E+03  3.42677E+03 -7.53496E+03 -2.61992E+03
 -4.39917E+03 -9.18130E+03  2.18150E+03 -1.11345E+04  9.56928E+03 -6.55506E+03  9.73332E+03  2.39976E+03
  6.16403E+03  8.58689E+03 -3.68641E+02  1.00991E+04 -7.60883E+03  5.43305E+03 -7.85157E+03 -1.14374E+03
 -7.71748E+03 -6.96912E+03 -1.85360E+03 -7.13376E+03  3.26480E+03 -6.36317E+03  4.59697E+03 -3.28297E+03
  3.87348E+03  8.36843E+02 -2.08271E+02  8.87616E+02  1.22356E+02 -7.45708E+02  9.94569E+02 -3.84673E+03
  5.85304E+03 -1.97094E+03  8.84925E+03  1.63836E+03  8.51319E+03  5.37132E+03  7.23185E+03  1.14653E+04
 -2.26229E+03  1.31464E+04 -1.16679E+04  9.66647E+03 -1.54837E+04  1.97211E+03 -1.17812E+04 -4.64522E+03
 -6.76769E+03 -1.02080E+04  8.34204E+02 -7.61616E+03  3.76812E+03 -3.41044E+03  2.52430E+03 -3.02532E+03
  1.83695E+03 -2.70742E+03  2.31065E+03 -2.84360E+03  4.50178E+03 -2.50208E+03  5.40136E+03  1.24436E+02
  5.80686E+03  1.51358E+03  3.49151E+03  5.24896E+03 -1.59452E+03  5.77666E+03 -6.86375E+03  4.31704E+03
 -7.79901E+03 -9.64416E+02 -4.08237E+03 -5.82030E+03  5.34301E+02 -8.22015E+03  4.86779E+03 -8.72130E+03
  8.51433E+03 -5.01961E+03  1.04317E+04  1.18004E+03  7.75962E+03  7.38766E+03  1.40020E+03  9.74789E+03
 -4.16121E+03  8.37666E+03 -6.38519E+03  2.68044E+03 -4.08834E+03 -1.10483E+03 -9.64978E+02 -6.73429E+02
 -6.44324E+02  2.93283E+02 -1.31012E+03  1.89318E+03 -3.25162E+03  1.41608E+03 -5.59573E+03 -3.71691E+02
 -3.35627E+03 -5.45075E+03  7.94757E+02 -7.80847E+03  3.99776E+03 -7.15654E+03  7.10837E+03 -1.99205E+03
  7.42026E+03  3.84167E+03  3.00967E+03  6.83971E+03 -1.58718E+03  7.52304E+03 -5.03654E+03  4.92262E+03
 -7.38834E+03  8.20267E+02 -5.60830E+03 -4.20519E+03 -5.24781E+02 -5.71072E+03  3.15816E+03 -4.02665E+03
  4.97132E+03 -1.52648E+03  3.08070E+03  7.69756E+02  6.32545E+02  3.26397E+03  3.85056E+02  9.33842E+02
  1.61378E+03  7.61736E+02  2.18124E+03  8.81024E+02  2.12236E+03  2.58801E+03  2.33627E+03  3.47100E+03
 -1.87195E+03  6.18152E+03 -5.05126E+03  6.09214E+03 -6.15680E+03  1.62160E+03 -7.36674E+03 -2.02662E+03
 -3.52014E+03 -7.36385E+03  9.26722E+02 -7.84639E+03  3.65840E+03 -5.44935E+03  5.78394E+03 -1.86260E+03
  4.75250E+03  2.80782E+03  7.87508E+02  4.34218E+03 -1.45222E+03  2.55889E+03 -2.63904E+03 -3.75793E+02
 -1.12442E+03 -3.06948E+03  2.41620E+03 -3.62641E+03  2.56332E+03 -1.56621E+03  2.45224E+03  7.04116E+02
  1.48528E+03  1.05276E+03  9.80635E+02  9.45567E+02 -2.06115E+02  1.91602E+03  1.65408E+03 -1.06042E+03
  1.29211E+03 -5.01207E+02  3.27782E+03  1.32113E+03  1.29144E+03  3.78535E+03 -3.82464E+02  5.19902E+03
 -2.93782E+03  2.40540E+03 -4.91982E+03  1.44448E+03 -4.35314E+03 -1.83084E+03 -7.75728E+02 -2.54647E+03
  7.66407E+02 -2.74571E+03  2.20982E+03 -1.54751E+03  1.44922E+03  2.00220E+03 -6.99392E+02  1.66982E+03
 -3.68596E+03  1.43125E+03 -3.43048E+03 -1.84747E+03 -1.51311E+03 -4.02158E+03  5.00608E+02 -3.44360E+03
  1.55686E+03 -1.53984E+03  2.51672E+03  5.10956E+02  2.54648E+03  3.99248E+02  4.16366E+02  1.88134E+03
 -9.83293E+02  8.52230E+02 -1.93375E+03 -1.26833E+03  9.36183E+02 -1.87020E+03  3.17263E+03 -1.56703E+03
  3.64885E+03  2.43255E+00  4.31264E+03  2.99907E+03  1.55559E+03  4.12325E+03 -8.30556E+02  4.32098E+03
 -3.05199E+03  1.94027E+03 -3.61518E+03 -8.12064E+02 -1.86805E+03 -2.69251E+03  1.24651E+03 -1.98961E+03
  2.86749E+03 -1.01645E+03  1.78714E+03  9.09290E+02  5.86129E+02  2.49841E+03  1.95781E+02  2.31048E+03
 -6.25199E+02  8.47993E+02 -1.25211E+03  3.15380E+01 -4.42850E+02  6.70836E+02 -5.24458E+02  9.31903E+02
 -1.15915E+03  1.76418E+03 -3.38491E+03  1.07173E+03 -4.38842E+03 -9.90295E+01 -5.02368E+03 -2.45698E+03
 -1.78826E+03 -5.13122E+03  9.25519E+02 -6.40916E+03  3.09015E+03 -4.39117E+03  5.98939E+03 -1.91304E+03
  5.60200E+03  6.81200E+02  3.46472E+03  3.60773E+03 -1.63047E+02  4.24863E+03 -1.70402E+03  2.80043E+03
 -1.96397E+03  1.23674E+03 -1.52735E+03 -1.04708E+03 -8.76913E+02 -1.11306E+02 -7.28182E+02 -2.83511E+02
 -1.25459E+03  2.91602E+02 -1.06674E+03 -1.63990E+02  2.13297E+02 -1.41225E+03  2.17428E+02 -1.33146E+03
  2.75410E+03 -1.32312E+03  1.85904E+03  3.63923E+02  2.45347E+03  2.51796E+03  3.55431E+02  3.74650E+03
 -2.12182E+03  4.08331E+03 -4.43936E+03  2.42606E+03 -4.46933E+03 -5.79920E+02 -3.02733E+03 -3.11950E+03
 -1.24346E+03 -3.68586E+03  8.90286E+02 -3.45389E+03  2.32349E+03 -2.03655E+03  2.03882E+03  2.66188E+02
  2.22323E+03  9.78821E+02 -3.05372E+02  7.97731E+02 -3.01517E+02 -6.35309E+02  7.79820E+01 -2.21095E+02
  1.12661E+03 -2.53363E+01  1.57325E+03  1.16464E+03  7.65843E+02  1.70723E+03  5.35994E+02  2.13776E+03
 -2.19844E+03  1.61887E+03 -2.07533E+03  4.42943E+02 -2.35004E+03 -1.48832E+03 -1.63895E+02 -3.08519E+03
  1.68086E+03 -2.37811E+03  2.45619E+03 -5.10957E+02  2.47040E+03  2.80858E+02  1.65050E+03  1.88056E+03
  3.47431E+02  2.28777E+03 -4.68036E+02  1.97676E+03 -2.05984E+03  1.20308E+03 -1.38452E+03  9.00085E+01
 -8.15166E+02 -2.91552E+02 -9.00615E+02 -1.69250E+02 -1.10565E+03  1.44011E+02 -2.00499E+03 -5.80757E+02
 -2.16329E+03 -9.73126E+02 -6.83923E+02 -2.08879E+03  7.88613E+02 -2.94492E+03  2.25459E+03 -1.22736E+03
  2.27338E+03 -3.68028E+01  9.54070E+02  1.27531E+03 -5.25041E+02  2.91505E+03 -1.50051E+03  1.84775E+03
