 $NMID ID='MM_0lb_SNR400_9hz_g50_90.RAW', FMTDAT='(8E13.5)'
 TRAMP=1., VOLUME=1. $END
  3.09286E+05  1.12493E+03  3.38350E+05  2.50480E+05  8.52288E+04  3.38155E+05 -1.32039E+05  2.52089E+05
 -1.91016E+05  8.37465E+04 -1.12046E+05 -3.23837E+04  4.95033E+02 -5.04690E+04  5.37397E+04 -4.64381E+02
  3.48656E+04  5.31762E+04 -1.71323E+04  7.64326E+04 -6.18096E+04  6.43811E+04 -8.49393E+04  3.30771E+04
 -8.23994E+04 -1.16727E+04 -5.80528E+04 -5.20340E+04 -1.42595E+04 -7.03425E+04  2.84689E+04 -4.72176E+04
  4.12841E+04  3.31779E+03  1.68075E+04  4.86231E+04 -3.48775E+04  4.83664E+04 -6.90792E+04  5.26092E+02
 -5.51488E+04 -5.82683E+04 -7.85919E+03 -7.94980E+04  3.42868E+04 -5.67195E+04  4.94822E+04 -1.90297E+04
  4.55267E+04  1.09750E+04  3.32617E+04  2.66918E+04  1.64909E+04  3.03064E+04 -5.89254E+03  2.76440E+04
 -2.26597E+04  1.14361E+04 -1.76694E+04 -6.10703E+03  7.01863E+03 -7.69558E+03  2.38844E+04  1.32008E+04
  7.18354E+03  3.73185E+04 -3.40273E+04  3.66665E+04 -6.52567E+04  1.97957E+03 -5.93141E+04 -4.48059E+04
 -1.24938E+04 -6.56394E+04  4.16982E+04 -4.73478E+04  6.13090E+04 -2.63608E+03  3.65811E+04  3.45471E+04
 -5.81021E+03  3.92783E+04 -3.21917E+04  1.85909E+04 -3.24915E+04 -3.51799E+03 -1.93891E+04 -1.22425E+04
 -9.87993E+03 -1.49731E+04 -8.10651E+02 -2.00394E+04  8.95043E+03 -2.34323E+04  1.65172E+04 -1.21390E+04
  1.14227E+04  5.96395E+03 -1.00639E+04  1.22259E+04 -2.28592E+04 -7.08163E+03 -8.91401E+03 -3.69777E+04
  2.43195E+04 -4.68072E+04  5.22195E+04 -2.14250E+04  4.90484E+04  2.07731E+04  1.76613E+04  4.78377E+04
 -1.63778E+04  3.57551E+04 -2.79914E+04  2.66272E+03 -1.21796E+04 -3.02397E+04  2.10952E+04 -3.73607E+04
  4.50188E+04 -1.03210E+04  3.98569E+04  2.55607E+04  2.09478E+04  5.07974E+04 -8.52673E+03  5.63126E+04
 -3.59206E+04  3.78127E+04 -4.75492E+04  1.10580E+04 -4.70188E+04 -1.84961E+04 -2.61258E+04 -4.21170E+04
  7.75296E+03 -4.21724E+04  3.43421E+04 -1.79302E+04  3.22210E+04  1.08175E+04  5.16787E+03  2.08526E+04
 -1.38122E+04  9.12506E+03 -1.20839E+04 -8.17694E+03  6.10756E+03 -1.15040E+04  1.92911E+04  5.78771E+03
  1.46907E+04  2.25150E+04 -6.03303E+03  2.74626E+04 -2.33853E+04  1.39132E+04 -3.19486E+04 -2.29469E+03
 -2.53860E+04 -1.90774E+04 -1.15614E+04 -2.52321E+04  4.18580E+03 -2.56972E+04  2.07003E+04 -2.30516E+04
  3.18507E+04 -1.38825E+04  3.75275E+04  5.11199E+03  2.75668E+04  2.35147E+04  4.18283E+03  4.16246E+04
 -1.91510E+04  3.38839E+04 -3.04211E+04  1.18506E+04 -2.29459E+04 -9.87956E+03 -4.97445E+03 -1.24767E+04
  8.36198E+02 -1.31403E+03 -7.66000E+03  8.50192E+03 -2.07511E+04  5.13740E+03 -2.01005E+04 -9.10727E+03
 -1.16855E+04 -2.28371E+04  6.57478E+03 -2.79382E+04  1.91634E+04 -2.02053E+04  2.26639E+04 -1.42197E+03
  1.49509E+04  1.59771E+04 -1.20822E+03  2.33668E+04 -1.71691E+04  1.39903E+04 -2.36258E+04 -5.30498E+03
 -1.75351E+04 -2.08016E+04 -2.15297E+03 -2.81602E+04  1.27515E+04 -2.35561E+04  2.39632E+04 -1.21001E+04
  2.12050E+04  2.35686E+02  1.44030E+04  4.42303E+03  9.11821E+03  1.92026E+03  1.18388E+04 -2.59660E+03
  2.15317E+04  3.28972E+03  2.52342E+04  1.81734E+04  1.69712E+04  3.74090E+04 -2.94062E+03  4.38855E+04
 -2.53873E+04  3.66735E+04 -4.19977E+04  1.93877E+04 -4.49349E+04 -3.68627E+03 -3.63504E+04 -2.57097E+04
 -1.38506E+04 -3.71899E+04  1.32343E+04 -3.23728E+04  2.81412E+04 -1.51470E+04  2.45235E+04  7.59427E+03
  7.76245E+03  1.89736E+04 -1.13769E+04  1.59841E+04 -2.04402E+04  2.92788E+03 -1.59312E+04 -1.32738E+04
 -5.35724E+02 -1.93902E+04  1.11181E+04 -1.42333E+04  1.31841E+04 -5.45814E+02  2.94662E+03  9.22413E+03
 -7.91013E+03  4.73494E+03 -8.84262E+03 -6.61327E+03 -1.17106E+03 -1.80019E+04  1.17828E+04 -1.85729E+04
  2.28929E+04 -1.12806E+04  2.62347E+04  2.91055E+03  2.33317E+04  1.73212E+04  1.00140E+04  2.90342E+04
 -5.78422E+03  3.05648E+04 -2.09000E+04  1.96467E+04 -2.19178E+04  3.39674E+03 -1.48352E+04 -4.27721E+03
 -7.53337E+03 -7.45209E+03 -3.59637E+02  6.26588E+02 -3.38679E+03  3.70425E+03 -7.13249E+03  5.53183E+03
 -1.40158E+04 -9.33474E+02 -1.46336E+04 -1.16706E+04 -5.17671E+03 -1.89907E+04  6.31450E+03 -1.53935E+04
  1.26578E+04 -6.30080E+03  8.38830E+03  3.83730E+03 -9.40205E+01  5.76281E+03 -8.10874E+03 -9.46928E+01
 -8.04659E+03 -1.04686E+04 -7.46409E+02 -1.51750E+04  9.69441E+03 -1.70148E+04  2.05755E+04 -8.72379E+03
  2.35750E+04  2.18545E+03  1.62809E+04  1.47429E+04  4.00300E+03  1.97115E+04 -9.77995E+03  1.56455E+04
 -1.24285E+04  4.86425E+03 -5.97028E+03 -3.42037E+03  2.38222E+03 -4.79978E+03  8.98877E+03 -1.29093E+03
  7.31236E+03  6.57775E+03  1.17208E+03  1.21873E+04 -9.05793E+03  1.24691E+04 -1.55008E+04  2.69059E+03
 -1.06262E+04 -8.27882E+03  3.37660E+02 -1.35602E+04  9.02869E+03 -6.96686E+03  8.55727E+03  3.07989E+03
  1.78044E+03  1.07082E+04 -7.85251E+03  1.20539E+04 -1.38237E+04  5.17645E+03 -1.54050E+04 -4.62731E+03
 -8.06095E+03 -1.54921E+04  4.21665E+03 -1.87251E+04  1.55562E+04 -1.13899E+04  1.72864E+04  3.16124E+03
  1.04249E+04  1.32874E+04 -1.62019E+03  1.65319E+04 -1.13678E+04  8.59822E+03 -1.35544E+04 -1.51625E+03
 -1.09534E+04 -1.04665E+04 -1.95516E+03 -1.24489E+04  6.71148E+03 -9.17942E+03  7.80022E+03 -3.90716E+03
  4.66899E+03  1.68547E+03 -1.08335E+03  2.28643E+03 -1.36200E+03 -3.44527E+03  2.80168E+03 -7.25556E+03
  1.18216E+04 -5.67811E+03  1.59362E+04  1.97303E+03  1.56150E+04  1.08749E+04  9.95355E+03  2.08768E+04
 -4.99935E+03  2.44409E+04 -1.91477E+04  1.78286E+04 -2.63139E+04  2.95318E+03 -2.14676E+04 -9.10393E+03
 -9.51275E+03 -1.72213E+04 -1.28842E+03 -1.38667E+04  4.50135E+03 -8.19892E+03  5.10613E+03 -5.55009E+03
  4.22132E+03 -2.61929E+03  4.39184E+03 -3.80605E+03  5.56515E+03 -3.77120E+03  7.67346E+03 -1.58121E+03
  1.11961E+04  2.64164E+03  5.06204E+03  9.92727E+03 -1.98731E+03  1.10508E+04 -1.18275E+04  8.52281E+03
 -1.57219E+04 -1.19724E+03 -9.51693E+03 -1.05462E+04 -1.35450E+03 -1.60901E+04  8.93371E+03 -1.63178E+04
  1.69555E+04 -8.12138E+03  1.88436E+04  3.13284E+03  1.33660E+04  1.38788E+04  2.27842E+03  1.81037E+04
 -6.99926E+03  1.44395E+04 -9.72047E+03  4.92441E+03 -7.12492E+03 -1.64772E+03 -2.25483E+03 -2.82964E+03
 -3.99286E+02 -1.44818E+02 -2.13433E+03  3.69970E+03 -6.37373E+03  1.96417E+03 -9.96351E+03 -1.29958E+03
 -7.15673E+03 -9.26607E+03 -3.33317E+02 -1.42636E+04  8.82495E+03 -1.34864E+04  1.48293E+04 -3.58665E+03
  1.45928E+04  7.75359E+03  6.53806E+03  1.37326E+04 -3.07478E+03  1.47259E+04 -1.05568E+04  9.02077E+03
 -1.32564E+04 -1.51256E+02 -1.10988E+04 -8.77359E+03 -2.18027E+02 -1.28209E+04  6.18256E+03 -9.03849E+03
  8.71424E+03 -3.07720E+03  6.38658E+03  2.60355E+03  2.38445E+03  3.99945E+03  1.98326E+03  1.83756E+03
  2.68385E+03  8.55458E+02  2.98143E+03  2.08047E+03  3.82349E+03  5.91137E+03  3.19171E+03  7.79021E+03
 -2.79508E+03  1.20459E+04 -1.06540E+04  1.17756E+04 -1.55538E+04  3.22289E+03 -1.58732E+04 -6.86282E+03
 -8.00142E+03 -1.54788E+04  2.38011E+03 -1.58495E+04  9.13302E+03 -1.01407E+04  1.25242E+04 -4.00916E+03
  9.95497E+03  5.27114E+03  2.15116E+03  8.52668E+03 -5.06329E+03  5.85771E+03 -6.65670E+03 -9.08755E+02
 -2.75815E+03 -6.83910E+03  3.26962E+03 -6.45805E+03  6.91019E+03 -2.78965E+03  6.19996E+03  1.20331E+03
  4.36569E+03  2.82777E+03  1.20902E+03  1.92260E+03 -4.89768E+02  1.35593E+03  1.68734E+03 -9.40580E+02
  2.56657E+03 -6.69116E+02  6.18268E+03  2.23650E+03  3.01979E+03  7.20233E+03 -9.26773E+02  1.10799E+04
 -6.48682E+03  6.74701E+03 -9.81105E+03  2.53296E+03 -8.23458E+03 -3.57001E+03 -3.33515E+03 -6.15185E+03
  5.18596E+02 -6.42932E+03  4.41593E+03 -2.36163E+03  3.34921E+03  3.75379E+03 -1.45587E+03  5.00647E+03
 -5.92777E+03  2.85097E+03 -7.23340E+03 -4.14204E+03 -3.94145E+03 -8.20546E+03  1.21030E+03 -7.97760E+03
  4.69984E+03 -6.07504E+03  6.09314E+03 -4.78113E+02  5.28289E+03  2.02256E+03  9.16446E+02  4.04953E+03
 -2.47434E+03  9.54447E+02 -3.55923E+03 -3.16140E+03  1.44876E+03 -6.13929E+03  8.09355E+03 -5.21286E+03
  9.23798E+03  1.03875E+03  9.76588E+03  6.12278E+03  3.13480E+03  1.04567E+04 -3.84519E+03  8.79611E+03
 -8.57293E+03  3.90524E+03 -8.49930E+03 -6.16994E+02 -3.99290E+03 -6.95245E+03  1.68082E+03 -5.99770E+03
  6.09705E+03 -2.72017E+03  5.00634E+03  2.69348E+03  2.10982E+03  5.42706E+03 -9.98574E+02  5.35885E+03
 -2.89008E+03  2.00742E+03 -1.38929E+03  2.00526E+03 -9.90554E+02  1.08054E+03 -1.28531E+03  2.46887E+03
 -2.43132E+03  3.39012E+03 -7.40584E+03  3.64582E+03 -1.00189E+04  2.29950E+02 -1.06958E+04 -6.61234E+03
 -5.55684E+03 -1.32639E+04  2.41692E+03 -1.57954E+04  1.02759E+04 -1.11005E+04  1.43186E+04 -3.91235E+03
  1.32364E+04  2.80328E+03  8.77863E+03  8.88463E+03  1.40430E+03  1.07121E+04 -4.10959E+03  7.60791E+03
 -5.67472E+03  2.57228E+03 -3.56948E+03 -8.76637E+02 -8.89645E+02 -6.29371E+02 -6.79433E+02 -7.89155E+02
 -2.18635E+03 -9.68494E+01 -2.41073E+03 -4.58162E+02 -5.22174E+02 -2.23268E+03  6.31188E+01 -4.13137E+03
  4.59317E+03 -3.12676E+03  7.20539E+03  5.78947E+02  7.60379E+03  5.56214E+03  1.92190E+03  1.10088E+04
 -4.52183E+03  1.13786E+04 -1.06664E+04  7.08482E+03 -1.25965E+04 -8.45343E+02 -9.84018E+03 -7.82992E+03
 -4.30617E+03 -1.12842E+04  3.25621E+03 -9.65931E+03  7.16144E+03 -5.57159E+03  7.23039E+03 -3.05498E+02
  3.66831E+03  3.36561E+03 -4.71391E+02  3.06087E+03 -1.60482E+03  7.19245E+01  5.37459E+02 -2.42839E+03
  2.96299E+03 -1.20427E+03  4.26652E+03  1.41259E+03  2.49310E+03  3.72548E+03  4.10731E+02  5.52159E+03
 -4.67848E+03  5.18104E+03 -6.76346E+03  3.29253E+02 -6.79965E+03 -5.68909E+03 -6.91965E+02 -8.08539E+03
  4.09714E+03 -7.50866E+03  8.41252E+03 -3.29952E+03  8.04945E+03  2.24955E+03  4.36319E+03  6.20971E+03
  4.76321E+02  5.99406E+03 -3.49009E+03  5.73681E+03 -4.05345E+03  3.06841E+03 -3.65068E+03  7.66060E+02
 -2.19182E+03 -1.33457E+02 -1.74567E+03  9.00791E+02 -4.08800E+03  2.23759E+03 -5.78926E+03 -1.15334E+03
 -5.36487E+03 -4.39089E+03 -1.28389E+03 -6.46614E+03  3.48816E+03 -8.09922E+03  7.42902E+03 -3.84891E+03
  6.53293E+03  9.37868E+02  3.23993E+03  4.42505E+03 -8.07491E+02  7.76475E+03 -4.90618E+03  4.62655E+03
