 $NMID ID='MM_0lb_SNR400_12hz_g50_64.RAW', FMTDAT='(8E13.5)'
 TRAMP=1., VOLUME=1. $END
  3.09999E+05 -6.41967E+02  3.37077E+05  2.50398E+05  8.53073E+04  3.38870E+05 -1.31755E+05  2.51502E+05
 -1.90470E+05  8.33343E+04 -1.11688E+05 -3.29980E+04  6.80298E+02 -5.06153E+04  5.43145E+04 -1.03936E+03
  3.52173E+04  5.31617E+04 -1.67297E+04  7.55209E+04 -6.11857E+04  6.40825E+04 -8.39950E+04  3.22301E+04
 -8.20133E+04 -1.12414E+04 -5.72201E+04 -5.09971E+04 -1.51115E+04 -7.03341E+04  2.72372E+04 -4.57879E+04
  4.03125E+04  3.78313E+03  1.58511E+04  4.82816E+04 -3.48354E+04  4.81548E+04 -6.71500E+04  7.27782E+02
 -5.35073E+04 -5.77104E+04 -7.00324E+03 -7.73902E+04  3.41607E+04 -5.55584E+04  4.84746E+04 -1.80710E+04
  4.41783E+04  1.15342E+04  3.22317E+04  2.57938E+04  1.59455E+04  2.96727E+04 -5.91256E+03  2.73060E+04
 -2.26769E+04  1.24767E+04 -1.84068E+04 -5.93057E+03  6.05339E+03 -7.30120E+03  2.34718E+04  1.25686E+04
  6.97608E+03  3.61062E+04 -3.30373E+04  3.62124E+04 -6.53241E+04  2.01649E+03 -5.76099E+04 -4.41199E+04
 -1.33508E+04 -6.45293E+04  4.07215E+04 -4.62291E+04  5.90470E+04 -2.62869E+03  3.41617E+04  3.29712E+04
 -5.61610E+03  3.73816E+04 -3.09602E+04  1.74448E+04 -3.11222E+04 -4.18356E+03 -1.75511E+04 -1.12222E+04
 -8.93919E+03 -1.37248E+04 -5.87523E+02 -1.93409E+04  7.91405E+03 -2.30342E+04  1.58522E+04 -1.24800E+04
  1.05877E+04  5.57089E+03 -8.52850E+03  1.33338E+04 -2.16422E+04 -5.91596E+03 -8.79140E+03 -3.45155E+04
  2.37692E+04 -4.53516E+04  5.01246E+04 -1.97882E+04  4.65681E+04  1.98290E+04  1.59140E+04  4.58676E+04
 -1.64744E+04  3.47934E+04 -2.62913E+04  1.38341E+03 -1.07790E+04 -2.82216E+04  2.07569E+04 -3.50556E+04
  4.22239E+04 -9.61796E+03  3.73825E+04  2.44436E+04  1.93569E+04  4.79981E+04 -8.48791E+03  5.25942E+04
 -3.30839E+04  3.56932E+04 -4.40127E+04  1.01047E+04 -4.49653E+04 -1.74734E+04 -2.44036E+04 -4.02495E+04
  7.95263E+03 -3.96416E+04  3.19502E+04 -1.54066E+04  2.98812E+04  1.13656E+04  4.73978E+03  1.97469E+04
 -1.33489E+04  9.51610E+03 -1.09927E+04 -7.72912E+03  5.15065E+03 -9.83460E+03  1.79479E+04  5.65678E+03
  1.33133E+04  2.22795E+04 -5.51376E+03  2.63960E+04 -2.25458E+04  1.20901E+04 -2.90171E+04 -4.32108E+03
 -2.33271E+04 -1.69288E+04 -1.00272E+04 -2.27679E+04  4.08716E+03 -2.20655E+04  1.74999E+04 -1.96149E+04
  2.89170E+04 -1.34478E+04  3.43069E+04  3.52695E+03  2.52547E+04  2.09356E+04  4.17913E+03  3.81877E+04
 -1.89540E+04  3.13140E+04 -2.90152E+04  1.16768E+04 -2.13158E+04 -1.01019E+04 -4.73753E+03 -1.28438E+04
  1.50343E+03 -2.35941E+03 -5.61193E+03  7.82840E+03 -1.79694E+04  4.66260E+03 -1.81119E+04 -7.75373E+03
 -1.02938E+04 -2.11301E+04  5.09528E+03 -2.53759E+04  1.64560E+04 -1.75134E+04  1.98494E+04 -1.57904E+03
  1.24662E+04  1.39835E+04 -1.18476E+03  2.07218E+04 -1.47644E+04  1.16465E+04 -2.05224E+04 -4.57929E+03
 -1.55011E+04 -1.84219E+04 -1.76522E+03 -2.57243E+04  1.08981E+04 -2.08814E+04  2.02035E+04 -9.89799E+03
  1.92071E+04  2.25742E+01  1.42513E+04  4.66066E+03  7.25958E+03  3.34745E+02  1.03568E+04 -2.05844E+03
  1.90591E+04  2.73671E+03  2.13614E+04  1.59266E+04  1.48060E+04  3.32976E+04 -2.73810E+03  3.78921E+04
 -2.24169E+04  3.13459E+04 -3.61138E+04  1.57766E+04 -3.76367E+04 -2.87622E+03 -3.13071E+04 -2.22646E+04
 -1.25350E+04 -3.13610E+04  1.09213E+04 -2.81262E+04  2.44237E+04 -1.38740E+04  2.16334E+04  7.16613E+03
  7.75190E+03  1.57645E+04 -1.00892E+04  1.39265E+04 -1.77402E+04  2.37562E+03 -1.31418E+04 -1.19801E+04
 -3.72729E+02 -1.70597E+04  8.87262E+03 -1.22811E+04  1.10458E+04 -1.54058E+03  3.15137E+03  7.69480E+03
 -7.44495E+03  3.66225E+03 -6.71250E+03 -6.27684E+03 -9.78889E+02 -1.58625E+04  9.60610E+03 -1.63131E+04
  1.91287E+04 -9.33824E+03  2.09743E+04  3.75554E+03  1.89186E+04  1.59671E+04  8.21782E+03  2.38520E+04
 -4.21597E+03  2.63944E+04 -1.65026E+04  1.60754E+04 -1.84951E+04  4.01729E+03 -1.30446E+04 -4.00275E+03
 -5.85187E+03 -5.45545E+03 -1.20171E+03  1.10240E+03 -3.10022E+03  2.59739E+03 -5.30347E+03  4.17960E+03
 -1.18633E+04 -8.92327E+02 -1.27572E+04 -9.97220E+03 -5.31329E+03 -1.71186E+04  5.25040E+03 -1.28413E+04
  1.07638E+04 -5.69955E+03  7.85707E+03  3.19678E+03 -2.58755E+02  4.85914E+03 -6.34572E+03 -5.63635E+02
 -5.76557E+03 -8.68915E+03 -3.36945E+02 -1.20923E+04  6.45984E+03 -1.36101E+04  1.63177E+04 -7.42164E+03
  1.91774E+04  1.69533E+03  1.40916E+04  1.12103E+04  2.21547E+03  1.54771E+04 -7.91046E+03  1.31252E+04
 -1.02443E+04  2.99526E+03 -5.35846E+03 -2.21143E+03  2.12043E+03 -4.07617E+03  6.57744E+03 -6.76006E+02
  6.88544E+03  6.06050E+03  6.99109E+02  1.04560E+04 -7.19891E+03  1.02647E+04 -1.28593E+04  1.91485E+03
 -8.03874E+03 -6.28001E+03 -2.40686E+02 -1.11151E+04  6.34542E+03 -5.21199E+03  6.91036E+03  2.60263E+03
  2.09738E+03  7.38572E+03 -6.29365E+03  9.07060E+03 -9.84728E+03  4.29780E+03 -1.07022E+04 -3.33494E+03
 -6.61077E+03 -1.18375E+04  3.20285E+03 -1.38510E+04  1.18934E+04 -8.76705E+03  1.26897E+04  2.10079E+03
  7.65876E+03  1.01253E+04 -8.24185E+02  1.26254E+04 -9.69362E+03  7.07370E+03 -9.67474E+03 -7.05952E+02
 -8.58707E+03 -8.61025E+03 -1.01667E+03 -9.44848E+03  4.82137E+03 -6.94514E+03  5.58518E+03 -3.27285E+03
  3.44131E+03  1.78270E+03 -7.04913E+02  1.27016E+03  2.26868E+01 -2.08373E+03  1.29959E+03 -5.61824E+03
  7.69895E+03 -3.54243E+03  1.25760E+04  1.67949E+03  1.18322E+04  8.18175E+03  7.64798E+03  1.49330E+04
 -3.41738E+03  1.79603E+04 -1.48595E+04  1.27892E+04 -1.98148E+04  2.03290E+03 -1.48224E+04 -6.10927E+03
 -7.69543E+03 -1.26187E+04 -6.41283E+01 -1.10860E+04  4.36867E+03 -5.97586E+03  3.98222E+03 -4.01259E+03
  3.42065E+03 -2.21207E+03  2.99556E+03 -2.69928E+03  5.15222E+03 -1.85040E+03  5.90763E+03 -2.54929E+02
  8.08237E+03  1.60721E+03  3.77666E+03  7.64136E+03 -2.29521E+03  7.44604E+03 -8.49046E+03  4.86414E+03
 -1.04060E+04 -9.57239E+02 -5.86230E+03 -7.39852E+03 -8.50374E+02 -1.15086E+04  6.11008E+03 -1.08236E+04
  1.20819E+04 -6.20803E+03  1.44465E+04  1.75407E+03  9.70889E+03  1.01946E+04  1.38889E+03  1.26960E+04
 -4.75098E+03  1.12598E+04 -7.12900E+03  3.54755E+03 -4.92435E+03 -1.17575E+03 -1.86678E+03 -1.01743E+03
 -1.10552E+03  7.20889E+02 -1.47996E+03  2.28852E+03 -5.10536E+03  2.27865E+03 -7.91806E+03 -7.69726E+02
 -4.88773E+03 -8.33052E+03  5.91644E+02 -1.07342E+04  6.30212E+03 -1.00848E+04  9.66226E+03 -3.00428E+03
  1.06676E+04  4.40301E+03  4.68387E+03  8.87149E+03 -2.32553E+03  1.06904E+04 -7.59771E+03  6.78199E+03
 -9.65954E+03  7.99074E+02 -7.15916E+03 -5.74935E+03 -6.57796E+02 -7.71202E+03  4.22589E+03 -6.20326E+03
  6.86063E+03 -2.73092E+03  4.54163E+03  1.35983E+03  9.13482E+02  3.65742E+03  1.45935E+03  1.04185E+03
  2.54151E+03  6.47408E+02  2.14064E+03  2.32217E+03  2.94692E+03  4.69309E+03  2.17480E+03  5.67805E+03
 -3.48761E+03  7.63214E+03 -6.91154E+03  8.56441E+03 -9.74794E+03  2.37900E+03 -1.11380E+04 -3.84491E+03
 -4.96770E+03 -9.84274E+03  1.99626E+03 -1.15641E+04  5.96177E+03 -6.79383E+03  8.55140E+03 -2.03426E+03
  6.01525E+03  4.48515E+03  1.64895E+03  6.22804E+03 -2.25432E+03  3.58206E+03 -4.28929E+03 -3.06616E+02
 -1.41475E+03 -4.29450E+03  2.37592E+03 -4.38219E+03  4.12179E+03 -2.13691E+03  3.64198E+03  3.38676E+02
  2.51227E+03  1.89463E+03  1.11927E+03  1.54183E+03 -9.02918E+02  2.14905E+03  1.79311E+03 -1.54979E+01
  1.60293E+03 -5.32527E+02  3.48389E+03  1.67552E+03  2.33538E+03  4.90362E+03 -8.76822E+02  7.04594E+03
 -5.09449E+03  3.95402E+03 -5.94856E+03  8.32197E+02 -5.33947E+03 -2.14474E+03 -1.81781E+03 -3.11807E+03
  1.84162E+02 -4.30089E+03  2.37754E+03 -1.27090E+03  2.61988E+03  2.66042E+03 -9.30604E+02  3.39865E+03
 -3.92563E+03  1.16225E+03 -4.48719E+03 -2.48040E+03 -2.69100E+03 -5.59900E+03  6.00006E+02 -5.27230E+03
  3.14788E+03 -2.61895E+03  3.19925E+03  7.49033E+00  3.56749E+03  1.10902E+03  4.04065E+02  3.04335E+03
 -1.10007E+03  6.32866E+02 -2.11770E+03 -1.55799E+03  8.90905E+02 -4.31302E+03  4.65347E+03 -3.28419E+03
  5.31398E+03  2.89795E+02  6.70545E+03  3.76966E+03  1.77624E+03  6.31077E+03 -1.83314E+03  5.92051E+03
 -4.94053E+03  2.65679E+03 -4.63453E+03  3.01079E+01 -2.67651E+03 -4.38298E+03  1.51285E+03 -2.61494E+03
  3.74468E+03 -2.69797E+03  2.25199E+03  1.72056E+03  1.26311E+03  2.91551E+03 -5.43600E+02  3.40067E+03
 -9.68674E+02  2.25282E+03 -1.69247E+03  5.07731E+02 -4.13120E+02  5.74574E+02 -1.52414E+03  9.88744E+02
 -1.35695E+03  2.43964E+03 -3.93006E+03  2.12620E+03 -6.11554E+03  9.71987E+02 -7.03907E+03 -3.75461E+03
 -3.37615E+03 -7.55760E+03  1.00126E+03 -9.56284E+03  5.17291E+03 -6.82771E+03  8.19818E+03 -2.77610E+03
  8.22590E+03  1.22966E+03  4.94395E+03  5.83666E+03  5.68261E+02  5.73063E+03 -2.39933E+03  4.50255E+03
 -3.52520E+03  2.23320E+03 -1.83816E+03 -1.42090E+03 -9.97945E+02 -1.54887E+02  1.37961E+01  1.37386E+02
 -9.61542E+02 -1.34281E+02 -2.39366E+03 -9.11039E+01 -1.29691E+02 -1.88993E+03 -4.41308E+02 -2.05513E+03
  3.40702E+03 -2.00057E+03  3.78739E+03 -1.10790E+01  4.08796E+03  3.83359E+03  9.17228E+02  5.15013E+03
 -2.81746E+03  7.86670E+03 -6.43751E+03  4.18906E+03 -6.96600E+03 -2.33668E+02 -4.80897E+03 -4.18181E+03
 -1.84356E+03 -6.23270E+03  1.41001E+03 -6.00292E+03  3.11504E+03 -2.60031E+03  3.22585E+03  4.87554E+02
  3.10537E+03  1.52402E+03 -2.13913E+01  1.27740E+03 -1.59290E+03 -3.29518E+02 -1.18710E+02 -8.77586E+02
  1.45302E+03 -1.14187E+03  1.98517E+03  6.43531E+02  1.44682E+03  2.16084E+03  1.30743E+02  2.66866E+03
 -2.87152E+03  2.88679E+03 -3.79745E+03 -2.69023E+02 -3.30107E+03 -2.23748E+03 -1.17239E+03 -5.13786E+03
  2.48542E+03 -4.03371E+03  4.15474E+03 -6.09529E+02  4.87085E+03  1.00434E+03  3.00319E+03  3.59879E+03
  1.12421E+03  3.74967E+03 -1.44041E+03  3.12633E+03 -2.87742E+03  1.68510E+03 -1.64219E+03 -1.11893E+02
 -1.32207E+03  4.37255E+02 -1.21891E+03  1.72550E+02 -1.32771E+03  4.21372E+02 -2.55182E+03 -3.33959E+02
 -2.93736E+03 -1.23170E+03 -8.78308E+02 -4.03428E+03  2.10356E+03 -4.38011E+03  3.30382E+03 -1.87813E+03
  3.77472E+03  5.57233E+02  1.49237E+03  2.08733E+03 -3.32779E+02  3.01686E+03 -2.76189E+03  1.84191E+03
