 $NMID ID='MM_0lb_SNR400_16hz_g45_97.RAW', FMTDAT='(8E13.5)'
 TRAMP=1., VOLUME=1. $END
  3.10070E+05  7.56495E+02  3.37353E+05  2.50273E+05  8.46644E+04  3.37570E+05 -1.32479E+05  2.50344E+05
 -1.90199E+05  8.29394E+04 -1.11357E+05 -3.34998E+04  1.19340E+03 -5.05270E+04  5.38581E+04  5.09459E+02
  3.51896E+04  5.27690E+04 -1.72237E+04  7.51394E+04 -6.04564E+04  6.25338E+04 -8.35537E+04  3.15799E+04
 -7.99262E+04 -1.08553E+04 -5.64152E+04 -5.03662E+04 -1.49880E+04 -6.81769E+04  2.69993E+04 -4.48519E+04
  3.94081E+04  3.46808E+03  1.63981E+04  4.80598E+04 -3.40197E+04  4.58796E+04 -6.63927E+04 -1.47507E+02
 -5.31712E+04 -5.63714E+04 -6.94768E+03 -7.58467E+04  3.31375E+04 -5.38405E+04  4.69830E+04 -1.60568E+04
  4.27457E+04  1.12110E+04  3.10073E+04  2.58238E+04  1.53184E+04  2.90760E+04 -4.26148E+03  2.67920E+04
 -2.26089E+04  1.22306E+04 -1.88290E+04 -3.78389E+03  5.31560E+03 -7.83358E+03  2.20791E+04  1.18432E+04
  7.53764E+03  3.42620E+04 -3.12867E+04  3.48762E+04 -6.24101E+04  1.93833E+03 -5.63734E+04 -4.22659E+04
 -1.27672E+04 -6.16923E+04  3.89703E+04 -4.41168E+04  5.67023E+04 -2.04176E+03  3.31530E+04  3.13910E+04
 -5.94048E+03  3.46817E+04 -2.90380E+04  1.47064E+04 -2.88351E+04 -5.30421E+03 -1.54547E+04 -1.02709E+04
 -7.95387E+03 -1.16407E+04 -1.21172E+03 -1.75348E+04  6.90568E+03 -2.26556E+04  1.49235E+04 -1.36563E+04
  1.16432E+04  4.57624E+03 -6.99218E+03  1.32352E+04 -1.98173E+04 -3.05039E+03 -8.48623E+03 -3.15243E+04
  2.18566E+04 -4.17882E+04  4.64378E+04 -1.83881E+04  4.32046E+04  1.89123E+04  1.48511E+04  4.26894E+04
 -1.55628E+04  3.19493E+04 -2.43533E+04  7.72863E+02 -9.21891E+03 -2.70435E+04  2.10094E+04 -3.19335E+04
  3.94257E+04 -8.45049E+03  3.32218E+04  2.29141E+04  1.65785E+04  4.42223E+04 -7.42867E+03  4.75781E+04
 -3.01749E+04  3.11904E+04 -3.94845E+04  8.70957E+03 -4.01907E+04 -1.60008E+04 -2.16849E+04 -3.56622E+04
  6.54564E+03 -3.55085E+04  3.01948E+04 -1.33546E+04  2.79912E+04  1.04936E+04  3.39009E+03  1.90226E+04
 -1.29206E+04  7.57026E+03 -1.04139E+04 -7.83083E+03  6.32765E+03 -1.01078E+04  1.74732E+04  6.05265E+03
  1.32654E+04  2.18884E+04 -6.16107E+03  2.47674E+04 -2.16024E+04  1.07596E+04 -2.63834E+04 -5.40082E+03
 -1.90577E+04 -1.70165E+04 -6.67346E+03 -1.83775E+04  4.15007E+03 -1.73396E+04  1.35625E+04 -1.64350E+04
  2.34346E+04 -1.23886E+04  3.01930E+04  2.08066E+03  2.19162E+04  1.83727E+04  4.52612E+03  3.41328E+04
 -1.69841E+04  2.88009E+04 -2.61299E+04  9.82252E+03 -2.01528E+04 -1.03098E+04 -4.33183E+03 -1.37197E+04
  1.86864E+03 -3.59480E+03 -3.64109E+03  5.94032E+03 -1.48710E+04  5.56263E+03 -1.45482E+04 -5.65300E+03
 -9.08226E+03 -1.72130E+04  4.62048E+03 -2.11434E+04  1.45053E+04 -1.49641E+04  1.62996E+04 -2.10649E+03
  1.03154E+04  1.17553E+04 -1.32770E+03  1.71340E+04 -1.13197E+04  9.45763E+03 -1.75029E+04 -3.93289E+03
 -1.29572E+04 -1.55079E+04 -1.64751E+03 -2.05636E+04  9.26761E+03 -1.66465E+04  1.72768E+04 -8.59072E+03
  1.60925E+04  4.38693E+02  1.12428E+04  4.38470E+03  6.15392E+03  9.13216E+02  8.22523E+03 -1.12084E+03
  1.53699E+04  2.65229E+03  1.66185E+04  1.33001E+04  1.10448E+04  2.70663E+04 -3.36946E+03  3.00679E+04
 -1.77375E+04  2.34819E+04 -2.83066E+04  1.17614E+04 -2.87900E+04 -1.99104E+03 -2.40913E+04 -1.66339E+04
 -1.05937E+04 -2.31588E+04  8.45463E+03 -2.15335E+04  1.98362E+04 -1.20148E+04  1.74615E+04  4.41347E+03
  7.26546E+03  1.29267E+04 -7.74889E+03  1.17708E+04 -1.44005E+04  2.95061E+03 -1.09920E+04 -8.88533E+03
  4.70578E+01 -1.38142E+04  7.28411E+03 -1.00655E+04  8.88121E+03 -1.09075E+03  1.42334E+03  5.64403E+03
 -6.34045E+03  2.21677E+03 -5.32492E+03 -4.65410E+03 -1.30931E+02 -1.17409E+04  8.61169E+03 -1.19314E+04
  1.43206E+04 -5.88543E+03  1.46941E+04  3.47537E+03  1.25952E+04  1.17044E+04  5.86713E+03  1.73395E+04
 -2.39337E+03  1.87562E+04 -1.14729E+04  1.17714E+04 -1.34327E+04  2.91609E+03 -9.75232E+03 -3.13415E+03
 -5.03500E+03 -4.28697E+03 -8.07390E+02  9.20973E+02 -1.59529E+03  2.23777E+03 -3.77114E+03  4.11829E+03
 -9.41022E+03 -1.05593E+02 -1.01012E+04 -7.70371E+03 -3.78627E+03 -1.25810E+04  3.48076E+03 -9.13996E+03
  8.37636E+03 -4.49996E+03  5.85304E+03  2.64709E+03  8.67594E+01  3.43382E+03 -4.25276E+03 -6.00922E+02
 -4.05603E+03 -6.13986E+03 -7.99361E+02 -8.88248E+03  4.88817E+03 -9.40277E+03  1.18042E+04 -5.16589E+03
  1.40353E+04  8.13352E+02  1.00265E+04  7.94901E+03  2.37023E+03  1.07400E+04 -6.23523E+03  9.78096E+03
 -8.23912E+03  3.08785E+03 -4.01119E+03 -1.46590E+03  1.46912E+03 -2.34686E+03  5.48762E+03 -1.03835E+03
  4.86901E+03  3.81956E+03  5.08949E+02  7.84398E+03 -5.65977E+03  7.11933E+03 -9.48480E+03  1.99752E+03
 -5.68017E+03 -4.78027E+03  5.05057E+02 -7.65632E+03  4.43813E+03 -4.04748E+03  3.99518E+03  1.28853E+03
  1.06526E+03  4.36367E+03 -4.92127E+03  5.70518E+03 -5.94240E+03  2.99640E+03 -6.15093E+03 -2.07971E+03
 -3.90123E+03 -7.98526E+03  2.30421E+03 -8.54925E+03  7.54342E+03 -5.73613E+03  8.89532E+03  1.48542E+03
  5.16490E+03  6.48073E+03 -2.45435E+02  8.82204E+03 -6.01702E+03  4.85283E+03 -6.59855E+03 -3.43549E+02
 -6.55777E+03 -5.97453E+03 -1.56620E+03 -6.52409E+03  3.07231E+03 -5.48777E+03  3.95194E+03 -3.34860E+03
  3.42925E+03  4.10186E+02 -7.40961E+02  1.66802E+03 -4.19750E+00 -6.57718E+02  5.85924E+02 -2.88741E+03
  4.86526E+03 -1.66063E+03  6.56809E+03  1.10746E+03  7.41961E+03  3.88425E+03  5.56751E+03  9.43247E+03
 -2.38615E+03  1.11439E+04 -9.90356E+03  8.47046E+03 -1.23569E+04  1.38564E+03 -9.83316E+03 -3.72911E+03
 -5.43771E+03 -8.28856E+03  2.73126E+01 -6.80149E+03  2.55497E+03 -2.66887E+03  2.70337E+03 -3.04601E+03
  1.65525E+03 -1.58500E+03  2.44984E+03 -2.39398E+03  3.69210E+03 -1.75354E+03  3.83666E+03  7.97104E+02
  5.30961E+03  2.03807E+03  1.81732E+03  4.40584E+03 -2.17045E+03  4.57851E+03 -5.94752E+03  4.02022E+03
 -6.47837E+03 -1.39215E+03 -3.40240E+03 -3.96361E+03  1.56891E+01 -6.63990E+03  3.82622E+03 -7.38771E+03
  6.88602E+03 -3.53020E+03  8.65269E+03  5.60547E+02  6.16127E+03  5.42759E+03  1.34936E+03  8.00537E+03
 -3.12486E+03  7.42357E+03 -4.70276E+03  1.90419E+03 -2.42768E+03 -1.24467E+03 -7.95649E+02 -8.28479E+02
 -6.21589E+02 -4.42582E+00 -1.33803E+03  2.40748E+03 -3.65459E+03  1.62502E+03 -4.91008E+03 -7.44140E+02
 -2.25146E+03 -5.33798E+03  5.87907E+02 -6.14778E+03  3.79131E+03 -6.24355E+03  5.40491E+03 -1.79483E+03
  5.41975E+03  2.69152E+03  2.71471E+03  4.71202E+03 -8.77289E+02  5.94674E+03 -4.47907E+03  2.99893E+03
 -5.72179E+03  9.23309E+02 -4.37747E+03 -3.57957E+03  2.55688E+02 -4.86608E+03  2.46330E+03 -3.37871E+03
  3.94630E+03 -1.96777E+03  2.75145E+03  1.20750E+03  1.10619E+03  1.82293E+03  5.61509E+02  1.26260E+03
  2.11253E+03  8.23505E+01  1.78010E+03  1.04872E+03  1.60297E+03  3.27280E+03  2.10918E+03  3.08543E+03
 -1.20115E+03  4.05386E+03 -3.85568E+03  4.44639E+03 -4.77107E+03  1.42118E+03 -5.85185E+03 -1.99972E+03
 -2.94446E+03 -4.73657E+03  9.13195E+02 -6.66469E+03  2.69973E+03 -3.65976E+03  4.29193E+03 -1.07611E+03
  3.16253E+03  1.67846E+03  6.27774E+02  3.41259E+03 -1.29842E+03  2.42659E+03 -1.80705E+03 -3.94739E+02
 -7.49405E+02 -2.60405E+03  1.85471E+03 -2.44548E+03  1.80950E+03 -1.13713E+03  2.26315E+03  3.88379E+02
  1.60422E+03  9.07048E+02  7.18411E+02  3.99810E+02 -4.96357E+02  5.95310E+02  1.57771E+03 -7.70462E+02
  1.12933E+03 -3.37717E+02  2.69764E+03  8.74689E+02  7.75721E+02  3.26204E+03 -3.02988E+02  4.47233E+03
 -2.52543E+03  1.75475E+03 -3.26452E+03  9.38712E+02 -3.37955E+03 -1.27556E+03 -6.42719E+02 -1.49533E+03
  6.79337E+02 -2.03750E+03  3.81693E+02 -4.47651E+02  1.07789E+03  1.92757E+03 -1.50613E+03  1.77080E+03
 -2.08223E+03  1.36293E+03 -2.06979E+03 -2.29002E+03 -1.25774E+03 -3.82629E+03  3.68533E+02 -2.38013E+03
  1.25996E+03 -1.20265E+03  9.95913E+02  3.11298E+02  1.77428E+03 -1.25126E+01  3.73452E+02  1.82766E+03
 -5.76266E+01  2.51002E+02 -1.65847E+03 -5.09268E+01  1.04593E+03 -1.71357E+03  2.29572E+03 -1.63935E+03
  2.00104E+03  5.68514E+02  3.41520E+03  1.26528E+03  1.39055E+03  2.67727E+03 -8.12581E+02  2.99741E+03
 -2.20857E+03 -1.52758E+01 -2.41418E+03 -1.80414E+02 -1.82686E+03 -2.60344E+03  7.03187E+02 -1.02668E+03
  2.23632E+03 -1.16994E+03  1.75813E+03  1.18801E+03  1.23211E+02  2.33185E+03  1.16758E+02  1.29966E+03
 -1.36231E+03  1.75809E+03 -4.85497E+02  2.70886E+02 -6.30364E+02  7.84668E+02 -1.11219E+03  1.16719E+03
 -1.39572E+03  1.24591E+03 -2.55964E+03  8.03662E+02 -2.85281E+03 -1.98712E+02 -4.14769E+03 -1.51483E+03
 -1.94689E+03 -3.46241E+03  7.03438E+02 -3.56380E+03  2.48561E+03 -3.17084E+03  4.20667E+03 -1.52157E+03
  3.79716E+03  5.24504E+02  2.15700E+03  3.28064E+03 -5.36591E+01  2.23106E+03 -1.69758E+03  2.49069E+03
 -1.24296E+03  8.37966E+02 -8.83028E+02 -7.69567E+02 -3.52299E+02 -1.57103E+02 -1.49878E+03  1.28685E+02
 -1.13760E+03 -8.99154E+01 -7.62273E+02  1.37744E+02  3.65422E+02 -1.23671E+03 -4.23103E+02 -7.69905E+02
  1.90854E+03 -6.62265E+02  5.09014E+02  2.06410E+02  1.61288E+03  1.78246E+03 -7.98937E+01  2.42472E+03
 -1.58455E+03  3.27768E+03 -3.48487E+03  2.25687E+03 -3.12389E+03 -5.95007E+02 -2.28975E+03 -1.67798E+03
 -1.70769E+03 -1.97035E+03  1.09998E+03 -2.14371E+03  1.86417E+03 -1.50189E+03  1.68384E+03  2.42323E+02
  1.14070E+03  3.85586E+02 -3.73445E+02  5.36801E+02 -1.54120E+02  3.07850E+02 -4.89694E+01 -1.30075E+02
  8.50513E+02  1.71695E+02  2.40949E+02  1.18435E+03  6.46179E+02  1.82627E+02  1.38406E+02  6.01716E+02
 -1.43117E+03  2.13345E+03 -1.41766E+03 -1.36720E+01 -1.77194E+03 -8.59381E+02 -2.74577E+01 -2.17712E+03
  1.39060E+03 -2.28902E+03  1.41747E+03 -2.23176E+02  1.61433E+03 -1.46967E+02  1.46172E+03  1.62269E+03
  1.22168E+02  1.32921E+03 -2.56171E+02  1.46877E+03 -7.23247E+02  1.08422E+03 -5.78474E+01  2.19377E+02
 -3.05893E+02 -2.46795E+02 -5.49807E+02 -1.30208E+02 -9.16222E+02  1.98929E+01 -9.48209E+02 -2.58716E+02
 -1.55398E+03  3.82492E+01  5.45869E+01 -1.60291E+03  6.41227E+02 -1.84314E+03  1.38800E+03 -4.08128E+02
  1.10434E+03  1.32446E+01  5.56465E+02  5.95965E+02  4.12575E+02  1.76567E+03 -9.37142E+02  1.27985E+03
