 $NMID ID='MM_0lb_SNR400_20hz_g45_99.RAW', FMTDAT='(8E13.5)'
 TRAMP=1., VOLUME=1. $END
  3.09573E+05  5.79943E+01  3.36846E+05  2.50372E+05  8.44287E+04  3.37189E+05 -1.32543E+05  2.50671E+05
 -1.89716E+05  8.25045E+04 -1.10982E+05 -3.29338E+04  2.08776E+03 -5.07230E+04  5.36568E+04  8.08050E+01
  3.46498E+04  5.26534E+04 -1.70439E+04  7.40985E+04 -5.99550E+04  6.21887E+04 -8.24415E+04  3.18183E+04
 -7.92635E+04 -1.03260E+04 -5.53510E+04 -4.92465E+04 -1.52944E+04 -6.81998E+04  2.69758E+04 -4.43575E+04
  3.83381E+04  3.20526E+03  1.54925E+04  4.66353E+04 -3.39362E+04  4.56878E+04 -6.49431E+04 -8.16679E+02
 -5.14019E+04 -5.54888E+04 -5.97441E+03 -7.44080E+04  3.24333E+04 -5.25624E+04  4.52444E+04 -1.56917E+04
  4.09065E+04  1.10685E+04  3.06175E+04  2.43315E+04  1.57809E+04  2.76803E+04 -4.62461E+03  2.64308E+04
 -2.12442E+04  1.28564E+04 -1.96134E+04 -3.71972E+03  3.78974E+03 -8.18129E+03  2.05273E+04  1.04148E+04
  7.02732E+03  3.29909E+04 -2.97809E+04  3.35667E+04 -6.05501E+04  1.47453E+03 -5.43088E+04 -4.12022E+04
 -1.26599E+04 -5.98033E+04  3.81139E+04 -4.23148E+04  5.49717E+04 -1.98313E+03  3.14423E+04  3.05433E+04
 -6.87760E+03  3.21462E+04 -2.73058E+04  1.23195E+04 -2.67660E+04 -5.74547E+03 -1.37252E+04 -9.72106E+03
 -6.90627E+03 -1.09077E+04 -1.42516E+03 -1.58988E+04  6.04250E+03 -2.28788E+04  1.46696E+04 -1.37622E+04
  1.24274E+04  3.79473E+03 -5.69174E+03  1.29897E+04 -1.88116E+04 -1.75960E+03 -7.64176E+03 -2.93490E+04
  2.05134E+04 -3.90728E+04  4.38491E+04 -1.87618E+04  4.10545E+04  1.80646E+04  1.31606E+04  4.12340E+04
 -1.50652E+04  3.02146E+04 -2.28747E+04  8.31824E+02 -7.74565E+03 -2.55512E+04  2.03795E+04 -3.03383E+04
  3.72732E+04 -6.53116E+03  3.04270E+04  2.24622E+04  1.47945E+04  4.16667E+04 -7.57532E+03  4.34144E+04
 -2.76666E+04  2.84311E+04 -3.64426E+04  7.88333E+03 -3.68595E+04 -1.43401E+04 -2.04808E+04 -3.31770E+04
  6.93309E+03 -3.27239E+04  2.87850E+04 -1.17807E+04  2.57507E+04  1.09591E+04  2.42272E+03  1.70020E+04
 -1.28150E+04  6.60495E+03 -8.86160E+03 -8.07382E+03  6.08379E+03 -9.56130E+03  1.68688E+04  6.44569E+03
  1.20555E+04  2.16963E+04 -6.61233E+03  2.30565E+04 -2.10308E+04  8.19360E+03 -2.40874E+04 -6.77513E+03
 -1.52171E+04 -1.60899E+04 -5.03811E+03 -1.52417E+04  3.50332E+03 -1.32804E+04  1.14160E+04 -1.29229E+04
  1.92622E+04 -1.16362E+04  2.67848E+04  7.65202E+02  2.03182E+04  1.52733E+04  3.72154E+03  3.06568E+04
 -1.55983E+04  2.67413E+04 -2.53051E+04  9.40076E+03 -1.92385E+04 -1.02644E+04 -3.39940E+03 -1.38326E+04
  2.56138E+03 -4.59259E+03 -1.93308E+03  5.65903E+03 -1.16843E+04  5.68950E+03 -1.16909E+04 -4.03697E+03
 -7.97197E+03 -1.48185E+04  4.12844E+03 -1.82674E+04  1.18160E+04 -1.30039E+04  1.35125E+04 -1.75563E+03
  8.18739E+03  1.02623E+04 -2.20597E+02  1.45862E+04 -9.43500E+03  8.34209E+03 -1.44932E+04 -2.68177E+03
 -1.09598E+04 -1.39071E+04 -1.66737E+03 -1.74792E+04  7.96222E+03 -1.40885E+04  1.49362E+04 -6.54545E+03
  1.34024E+04  8.76982E+02  9.81991E+03  3.72418E+03  4.49504E+03  8.10807E+02  6.78014E+03 -1.28559E+03
  1.30158E+04  2.46755E+03  1.35388E+04  1.19094E+04  8.11368E+03  2.32946E+04 -3.43800E+03  2.41053E+04
 -1.46630E+04  1.81094E+04 -2.18970E+04  8.26456E+03 -2.25699E+04 -1.62841E+03 -1.95699E+04 -1.29450E+04
 -9.37383E+03 -1.77657E+04  5.69297E+03 -1.73826E+04  1.46242E+04 -1.01866E+04  1.50155E+04  2.90074E+03
  6.28807E+03  1.04720E+04 -7.08982E+03  9.63671E+03 -1.27329E+04  2.65339E+03 -9.87882E+03 -7.26907E+03
 -4.06504E+02 -1.18479E+04  5.79702E+03 -9.24160E+03  7.16549E+03 -1.14117E+03  1.33615E+03  4.56279E+03
 -5.47052E+03  1.14341E+03 -3.03982E+03 -4.34192E+03  6.74296E+02 -9.53664E+03  7.58755E+03 -8.86873E+03
  1.08155E+04 -3.61395E+03  1.04893E+04  2.21189E+03  8.91503E+03  8.54082E+03  4.43213E+03  1.26077E+04
 -1.07572E+03  1.39670E+04 -8.73396E+03  8.95309E+03 -9.93169E+03  2.86435E+03 -8.24794E+03 -1.21644E+03
 -4.01222E+03 -3.27645E+03 -8.46251E+02  1.42245E+03 -1.48831E+03  1.73346E+03 -2.91486E+03  3.15232E+03
 -7.00434E+03 -9.74911E+02 -7.81451E+03 -6.09325E+03 -3.57882E+03 -1.07840E+04  3.11715E+03 -7.23639E+03
  6.06373E+03 -3.80471E+03  4.82519E+03  2.14928E+03  5.56077E+02  2.01776E+03 -3.34015E+03 -1.18892E+02
 -3.11177E+03 -4.61827E+03 -9.07477E+02 -6.34211E+03  3.50017E+03 -6.45127E+03  8.39863E+03 -3.23763E+03
  1.02596E+04  4.68253E+02  8.16530E+03  4.75504E+03  1.75463E+03  8.06319E+03 -5.25565E+03  7.61954E+03
 -6.03832E+03  2.52307E+03 -3.56287E+03 -8.98847E+02  1.19607E+03 -1.75510E+03  4.79450E+03 -1.51006E+03
  3.94399E+03  2.65779E+03  1.15779E+03  5.56285E+03 -3.71902E+03  5.88069E+03 -7.30912E+03  1.42648E+03
 -4.36417E+03 -2.96023E+03  4.13669E+02 -5.73565E+03  3.11667E+03 -2.37192E+03  2.96292E+03  9.32704E+02
  3.68920E+02  2.53013E+03 -3.53116E+03  4.18808E+03 -4.03638E+03  2.22938E+03 -3.27775E+03 -2.54178E+02
 -2.17554E+03 -4.59903E+03  7.80089E+02 -5.80736E+03  4.87871E+03 -4.55668E+03  5.08128E+03  8.51241E+02
  4.33844E+03  4.28795E+03  3.86000E+01  6.44378E+03 -4.28514E+03  4.10200E+03 -4.85992E+03 -6.33479E+02
 -5.36624E+03 -4.21232E+03 -1.65955E+03 -4.88171E+03  2.18081E+03 -4.57636E+03  2.18396E+03 -2.65683E+03
  2.50842E+03  3.64583E+01 -2.89000E+02  1.12267E+03  1.22781E+03 -2.62840E+02 -3.21263E+02 -1.48032E+03
  2.97323E+03 -3.15040E+02  4.08082E+03  1.76396E+02  4.00272E+03  2.94816E+03  4.89614E+03  5.42788E+03
 -8.04319E+02  6.36827E+03 -6.42673E+03  5.14244E+03 -8.28580E+03  9.32459E+02 -6.22798E+03 -2.43491E+03
 -4.25603E+03 -5.15922E+03 -8.91194E+02 -4.36310E+03  1.92651E+03 -1.72208E+03  1.74139E+03 -1.83150E+03
  1.34560E+03 -1.56703E+03  1.64315E+03 -2.04114E+03  3.45160E+03 -1.20569E+03  3.01980E+03  6.30092E+02
  3.72531E+03  9.68394E+02  1.65047E+02  3.06661E+03 -9.44344E+02  1.78916E+03 -3.92764E+03  1.77281E+03
 -4.22610E+03 -9.14210E+02 -1.02009E+03 -2.68891E+03  6.60218E+02 -3.99008E+03  2.28805E+03 -4.69420E+03
  3.99281E+03 -2.61769E+03  5.75159E+03  7.31559E+01  4.11711E+03  3.12395E+03  1.49055E+03  5.08720E+03
 -1.39094E+03  4.44542E+03 -2.83853E+03  1.66183E+03 -1.50605E+03 -7.74026E+02 -3.19616E+02 -4.54903E+02
  1.39033E+02  5.60589E+02 -8.33026E+02  1.70445E+03 -2.39399E+03  1.44357E+03 -3.26329E+03  7.89194E+01
 -1.04888E+03 -3.48215E+03  1.25120E+03 -4.18497E+03  1.82866E+03 -3.25807E+03  2.76262E+03 -4.97320E+02
  2.96179E+03  1.47413E+03  1.30276E+03  2.30700E+03 -1.09085E+03  3.66310E+03 -2.06771E+03  2.09968E+03
 -3.32987E+03  6.69653E+02 -2.47070E+03 -1.61775E+03  1.74590E+02 -2.36924E+03  1.25725E+03 -2.22279E+03
  1.99381E+03 -1.05244E+03  1.35825E+03  2.08074E+02  4.00836E+02  1.79699E+03  9.53870E+02  9.06787E+02
  1.10237E+03  4.91215E+02  1.09168E+03  1.05546E+03  9.94553E+02  2.07530E+03  1.32199E+03  1.35249E+03
 -7.37032E+02  2.05234E+03 -1.60224E+03  3.79952E+03 -2.02584E+03  6.82390E+02 -3.21135E+03 -3.06093E+02
 -1.42637E+03 -2.84764E+03  5.19162E+02 -3.91985E+03  1.14777E+03 -1.98844E+03  2.44220E+03 -8.50331E+02
  2.36041E+03  1.99148E+03  8.48751E+02  2.22229E+03 -2.25923E+02  1.58035E+03 -5.47615E+02  2.13980E+00
 -5.70817E+02 -9.26305E+02  1.17272E+03 -9.48192E+02  6.40897E+02 -6.51657E+02  1.23865E+03  5.02759E+02
  5.61898E+02 -2.08877E+01  9.75202E+02  5.34534E+00 -6.09288E+02  1.99706E+02  1.36008E+03 -4.57473E+02
  7.43559E+01 -6.58822E+02  1.49270E+03  3.01573E+02 -5.71514E+02  2.43025E+03 -5.14350E+02  2.83787E+03
 -1.65102E+03  7.34520E+02 -1.10585E+03  1.06521E+03 -1.59424E+03 -8.25451E+02 -5.23022E+02 -1.00317E+03
  6.74194E+02 -7.55020E+02  7.96002E+02 -2.73362E+02  8.48663E+02  1.32192E+03 -5.51088E+02  8.57079E+02
 -1.30731E+03  5.49617E+02 -7.81793E+02 -1.23483E+03 -9.22089E+02 -1.18450E+03  2.09784E+02 -8.95151E+02
 -2.73564E+02  4.90616E+01  6.22517E+02  2.91733E+02  1.38197E+03 -2.34984E+02  6.12141E+02  5.14005E+02
 -3.90304E+02 -1.64439E+02 -1.24425E+03 -5.19560E+01  7.09213E+02  1.35730E+01  1.68727E+03 -6.79708E+02
  9.67180E+02  2.47128E+02  1.84655E+03  3.08157E+02  9.80431E+02  7.60843E+02 -9.92721E+01  1.81094E+03
 -6.97432E+02 -1.27685E+02 -1.18013E+03 -1.95774E+02 -3.03237E+02 -1.14563E+03  3.36242E+02 -5.42325E+02
  1.49617E+03 -5.98896E+02  5.65402E+02  3.48006E+02  4.17508E+01  8.92390E+02  2.63633E+02  4.46304E+02
  5.03191E+01  1.10028E+03 -2.32463E+02 -4.54378E+02 -2.68428E+02  4.14809E+01 -7.44446E+02  2.67206E+02
 -5.56283E+01  1.12905E+03 -2.05108E+03  3.92826E+02 -9.05694E+02  2.05957E+02 -2.42611E+03 -8.68664E+02
 -9.94154E+02 -2.16277E+03  4.63630E+02 -1.97470E+03  5.54044E+02 -1.74250E+03  2.34391E+03 -1.33253E+02
  1.90560E+03 -2.10725E+02  1.21923E+03  1.49846E+03 -7.77620E+02  1.08989E+03 -8.14235E+02  1.41453E+03
 -6.50152E+02  4.71573E+02 -4.13272E+02  1.49670E+02 -2.36951E+02  4.72892E+02 -2.60474E+02  2.69619E+02
 -7.84834E+02 -1.02047E+02 -3.16004E+02 -2.02146E+02  7.40560E+02 -7.07099E+02 -5.04768E+02 -1.22620E+03
  6.32108E+02 -3.63321E+01 -7.64846E+01 -6.31636E+01  8.66041E+02  6.56175E+02 -7.13015E+02  1.07560E+03
 -1.21839E+03  2.06771E+03 -1.25963E+03  1.00030E+03 -1.02988E+03  5.19298E+01 -1.26949E+03 -9.47593E+02
 -9.88181E+02 -1.10233E+03  3.02304E+01 -6.99840E+02  4.86566E+01 -2.92421E+02 -2.05614E+01  8.87579E+01
  4.87613E+02  1.76682E+02  1.63586E+02  5.99558E+02 -1.48583E+02 -1.46951E+02 -3.59432E+02 -6.53593E+02
  2.73092E+02  7.36795E+02  2.08593E+02  4.49887E+02 -9.58809E+01  5.30440E+02  5.52562E+02 -3.03442E+02
  3.31465E+02  6.06226E+02 -3.25274E+02  1.58378E+02 -5.54318E+02 -3.54024E+02  5.05491E+02 -5.30658E+02
 -1.62359E+02 -4.18119E+02  1.13181E+02  4.18160E+01  6.87741E+02 -1.05762E+03  3.28651E+02  6.24240E+02
  5.03228E+02  4.44030E+02 -6.28625E+01 -2.69029E+02 -2.40829E+02  5.57263E+02 -3.60018E+02 -2.09710E+01
 -1.88245E+02  6.34700E+00 -2.39162E+02 -5.86450E+02 -6.45262E+02  3.41430E+02 -2.46418E+02 -4.51997E+02
 -9.28868E+02  6.38190E+02  1.81827E+02 -9.05449E+02 -7.90625E+01 -1.57536E+03  2.73180E+02 -3.06445E+02
  1.07736E+03  1.88081E+02 -8.35479E+01  3.76916E+02  3.48744E+02  7.69179E+02 -2.24228E+01  5.90969E+02
