 $NMID ID='MM_0lb_SNR400_10hz_g50_48.RAW', FMTDAT='(8E13.5)'
 TRAMP=1., VOLUME=1. $END
  3.09358E+05  3.85845E+02  3.37027E+05  2.50657E+05  8.43102E+04  3.38248E+05 -1.32639E+05  2.51417E+05
 -1.90501E+05  8.41663E+04 -1.12202E+05 -3.20549E+04  2.57347E+02 -5.08508E+04  5.34835E+04 -5.38762E+02
  3.61010E+04  5.28539E+04 -1.65071E+04  7.58027E+04 -6.10480E+04  6.41586E+04 -8.60007E+04  3.23599E+04
 -8.14504E+04 -1.11888E+04 -5.87306E+04 -5.18738E+04 -1.49238E+04 -7.05930E+04  2.81533E+04 -4.62594E+04
  4.07649E+04  4.15293E+03  1.73216E+04  4.84804E+04 -3.43533E+04  4.92317E+04 -6.73662E+04  3.90325E+02
 -5.50108E+04 -5.74770E+04 -7.66538E+03 -7.87262E+04  3.39283E+04 -5.63630E+04  4.92860E+04 -1.83063E+04
  4.46578E+04  1.21983E+04  3.25193E+04  2.57868E+04  1.58057E+04  3.09828E+04 -6.25000E+03  2.77369E+04
 -2.29567E+04  1.21784E+04 -1.83406E+04 -5.10757E+03  6.39170E+03 -6.77320E+03  2.29902E+04  1.33254E+04
  7.02997E+03  3.69257E+04 -3.42688E+04  3.64158E+04 -6.55052E+04  1.96159E+03 -5.85503E+04 -4.42846E+04
 -1.27386E+04 -6.52336E+04  4.10608E+04 -4.71112E+04  6.01094E+04 -2.47533E+03  3.57970E+04  3.37963E+04
 -6.14968E+03  3.82380E+04 -3.12443E+04  1.74714E+04 -3.21406E+04 -3.88665E+03 -1.88860E+04 -1.19275E+04
 -9.97121E+03 -1.43345E+04 -6.97229E+02 -1.97745E+04  8.02628E+03 -2.32569E+04  1.54859E+04 -1.27373E+04
  1.09327E+04  6.12793E+03 -1.00339E+04  1.23563E+04 -2.21796E+04 -6.65162E+03 -8.51304E+03 -3.65684E+04
  2.45289E+04 -4.62469E+04  5.19947E+04 -2.01154E+04  4.79120E+04  2.07562E+04  1.68828E+04  4.64675E+04
 -1.63692E+04  3.54508E+04 -2.73457E+04  2.60273E+03 -1.10894E+04 -2.91324E+04  2.20489E+04 -3.61110E+04
  4.34375E+04 -1.05348E+04  3.90755E+04  2.52840E+04  2.08170E+04  4.99081E+04 -8.16407E+03  5.43565E+04
 -3.49266E+04  3.74852E+04 -4.65456E+04  1.04033E+04 -4.60806E+04 -1.79540E+04 -2.54834E+04 -4.14559E+04
  7.71124E+03 -4.14550E+04  3.39191E+04 -1.66540E+04  3.13991E+04  1.13670E+04  5.62331E+03  2.04039E+04
 -1.32387E+04  8.99899E+03 -1.07417E+04 -7.83870E+03  6.04454E+03 -1.17880E+04  1.90831E+04  4.81898E+03
  1.51159E+04  2.24592E+04 -5.25749E+03  2.63752E+04 -2.30464E+04  1.30185E+04 -3.08322E+04 -3.23687E+03
 -2.43177E+04 -1.89482E+04 -1.17195E+04 -2.40828E+04  4.11541E+03 -2.45712E+04  1.90479E+04 -2.22981E+04
  3.07382E+04 -1.36077E+04  3.78886E+04  4.92978E+03  2.59357E+04  2.29322E+04  5.18092E+03  4.04487E+04
 -1.88708E+04  3.36366E+04 -2.98879E+04  1.15404E+04 -2.23708E+04 -1.00062E+04 -4.99192E+03 -1.26609E+04
  2.02645E+03 -1.38795E+03 -7.01009E+03  7.80183E+03 -1.89734E+04  4.82527E+03 -1.94768E+04 -8.07704E+03
 -1.12493E+04 -2.23539E+04  5.88814E+03 -2.65986E+04  1.74397E+04 -1.84025E+04  2.20940E+04 -1.60470E+03
  1.32454E+04  1.56379E+04 -7.43135E+02  2.27688E+04 -1.58793E+04  1.29428E+04 -2.30367E+04 -4.38263E+03
 -1.61507E+04 -1.97134E+04 -1.88922E+03 -2.77205E+04  1.28602E+04 -2.19136E+04  2.28349E+04 -1.11665E+04
  2.10452E+04 -2.36257E+02  1.57598E+04  5.54480E+03  7.91888E+03  1.23674E+03  1.15937E+04 -2.10075E+03
  2.09052E+04  3.33946E+03  2.38274E+04  1.75052E+04  1.68658E+04  3.58468E+04 -2.99814E+03  4.18277E+04
 -2.45296E+04  3.56051E+04 -3.98067E+04  1.86019E+04 -4.18867E+04 -2.89275E+03 -3.42802E+04 -2.50234E+04
 -1.29941E+04 -3.53125E+04  1.30568E+04 -3.14264E+04  2.66208E+04 -1.41449E+04  2.29965E+04  7.76283E+03
  7.57100E+03  1.75853E+04 -1.06243E+04  1.47138E+04 -1.94659E+04  1.57974E+03 -1.47388E+04 -1.22648E+04
 -3.03033E+02 -1.79567E+04  1.04872E+04 -1.35659E+04  1.28003E+04 -1.35059E+03  3.15760E+03  7.45130E+03
 -8.73857E+03  3.49354E+03 -8.29630E+03 -6.99202E+03 -1.71977E+03 -1.71544E+04  1.10479E+04 -1.84336E+04
  2.25819E+04 -1.06943E+04  2.45290E+04  3.14234E+03  2.11060E+04  1.79162E+04  9.36649E+03  2.73806E+04
 -5.02833E+03  2.89395E+04 -1.88746E+04  1.79341E+04 -2.17149E+04  3.82553E+03 -1.45533E+04 -5.01380E+03
 -6.43424E+03 -6.32609E+03 -1.53755E+03  1.20536E+02 -3.04457E+03  3.70432E+03 -6.99156E+03  5.29648E+03
 -1.36363E+04 -1.95962E+03 -1.34301E+04 -1.13174E+04 -5.53913E+03 -1.85558E+04  5.95540E+03 -1.46343E+04
  1.22810E+04 -6.48211E+03  8.49623E+03  3.29911E+03 -9.26526E+02  6.88304E+03 -6.95471E+03 -2.72240E+02
 -6.95738E+03 -9.17013E+03 -8.55969E+02 -1.47334E+04  8.49161E+03 -1.51177E+04  1.90539E+04 -8.11774E+03
  2.21486E+04  2.64322E+03  1.61509E+04  1.34236E+04  3.78669E+03  1.74239E+04 -9.82105E+03  1.46967E+04
 -1.20536E+04  4.38330E+03 -6.17225E+03 -3.67070E+03  2.45864E+03 -4.23657E+03  7.36030E+03 -1.26757E+03
  7.24405E+03  6.95077E+03  6.82676E+02  1.13221E+04 -8.86279E+03  1.10241E+04 -1.51134E+04  2.96383E+03
 -1.01898E+04 -8.09141E+03 -1.99989E+02 -1.26854E+04  8.47758E+03 -5.91278E+03  8.86964E+03  3.59527E+03
  1.60411E+03  8.68131E+03 -7.67778E+03  1.05238E+04 -1.15670E+04  5.37652E+03 -1.27609E+04 -4.56352E+03
 -6.98876E+03 -1.45961E+04  3.59255E+03 -1.64715E+04  1.39995E+04 -1.02123E+04  1.54582E+04  2.34566E+03
  9.39000E+03  1.22290E+04 -1.42906E+03  1.46954E+04 -1.07096E+04  8.07340E+03 -1.13631E+04 -1.70361E+03
 -8.95448E+03 -9.27420E+03 -2.12193E+03 -1.09218E+04  5.86497E+03 -9.59224E+03  7.55772E+03 -3.69769E+03
  4.83567E+03  1.57715E+03 -1.66137E+03  1.53094E+03 -1.00366E+03 -3.32754E+03  2.41374E+03 -6.33989E+03
  1.03185E+04 -4.24091E+03  1.43842E+04  1.54242E+03  1.42630E+04  1.01324E+04  9.48748E+03  1.90773E+04
 -4.81123E+03  2.15079E+04 -1.83337E+04  1.69517E+04 -2.29647E+04  3.09790E+03 -1.87495E+04 -7.68529E+03
 -9.45080E+03 -1.60374E+04 -4.26747E+02 -1.27430E+04  4.70372E+03 -7.43111E+03  4.94593E+03 -4.81461E+03
  3.80419E+03 -2.95991E+03  4.13105E+03 -3.32059E+03  4.87225E+03 -3.08814E+03  6.89006E+03 -7.56988E+02
  9.48803E+03  3.27354E+03  4.86459E+03  9.17989E+03 -1.93729E+03  1.06447E+04 -1.04259E+04  7.83645E+03
 -1.32709E+04 -1.08532E+03 -8.35372E+03 -9.68340E+03 -5.01597E+02 -1.42454E+04  6.98636E+03 -1.50848E+04
  1.41641E+04 -8.07437E+03  1.80020E+04  2.13252E+03  1.28747E+04  1.18762E+04  1.71144E+03  1.62782E+04
 -6.63218E+03  1.29833E+04 -9.08688E+03  4.46649E+03 -6.18904E+03 -8.31946E+02 -2.84823E+03 -2.37389E+03
 -1.78694E+03 -5.25266E+02 -1.87713E+03  3.86729E+03 -5.56022E+03  2.54018E+03 -9.44259E+03 -1.47195E+03
 -6.50774E+03 -9.31376E+03  1.79082E+02 -1.31664E+04  8.73606E+03 -1.20605E+04  1.33236E+04 -3.38814E+03
  1.26742E+04  6.15154E+03  5.37828E+03  1.15561E+04 -2.31509E+03  1.41127E+04 -9.02434E+03  8.06365E+03
 -1.28144E+04  2.38664E+02 -9.36571E+03 -7.72070E+03 -8.50493E+02 -1.10595E+04  5.02791E+03 -7.57823E+03
  8.07374E+03 -2.79321E+03  6.01202E+03  2.48527E+03  2.02350E+03  4.25575E+03  1.16419E+03  1.70288E+03
  2.05473E+03  7.32961E+02  2.88582E+03  1.76134E+03  3.90828E+03  4.16995E+03  3.30496E+03  7.07016E+03
 -3.26893E+03  9.79430E+03 -8.94200E+03  1.02506E+04 -1.37142E+04  3.58299E+03 -1.42125E+04 -5.17278E+03
 -7.10858E+03 -1.32365E+04  1.91545E+03 -1.45319E+04  7.51918E+03 -8.96326E+03  1.05656E+04 -3.10249E+03
  8.35832E+03  5.78026E+03  2.35683E+03  7.99491E+03 -3.87890E+03  4.91257E+03 -5.50445E+03 -8.24181E+02
 -2.57377E+03 -6.41207E+03  2.97407E+03 -6.01170E+03  5.40997E+03 -2.66277E+03  5.34898E+03  9.33927E+02
  3.55794E+03  2.40428E+03  1.35338E+03  2.65359E+03 -4.71035E+02  2.20842E+03  1.81500E+03 -7.38559E+02
  2.22700E+03 -1.29946E+02  5.42508E+03  1.64962E+03  3.28498E+03  6.85642E+03 -1.03175E+03  9.84230E+03
 -6.85286E+03  5.72456E+03 -8.51529E+03  2.20373E+03 -8.03037E+03 -3.25331E+03 -2.88760E+03 -4.55477E+03
  1.06160E+03 -4.76957E+03  3.17055E+03 -3.45824E+03  3.10449E+03  3.12839E+03 -2.40062E+03  4.94518E+03
 -5.76768E+03  2.87081E+03 -6.49249E+03 -2.43910E+03 -3.21470E+03 -6.27538E+03  6.17523E+02 -7.57365E+03
  3.66260E+03 -4.19634E+03  4.91395E+03 -3.49792E+02  4.05954E+03  2.46969E+03 -9.02201E+01  3.80160E+03
 -2.91147E+03  1.34565E+03 -3.11534E+03 -2.28219E+03  1.14651E+03 -5.44073E+03  6.05353E+03 -4.10881E+03
  7.66174E+03  8.74154E+02  8.72474E+03  5.23569E+03  3.03790E+03  8.98933E+03 -3.01571E+03  8.33085E+03
 -6.08701E+03  3.08550E+03 -7.55583E+03 -9.10374E+02 -4.44832E+03 -5.26686E+03  1.68280E+03 -4.88305E+03
  5.40016E+03 -2.20104E+03  4.17239E+03  2.45065E+03  1.35205E+03  5.03108E+03 -8.52094E+02  4.64713E+03
 -2.29355E+03  2.80748E+03 -2.31486E+03  5.56947E+02 -8.68228E+02  1.15616E+03 -1.23455E+03  1.65116E+03
 -1.99539E+03  3.50367E+03 -6.11397E+03  2.26371E+03 -8.59077E+03  4.03877E+01 -8.74903E+03 -5.62009E+03
 -4.86107E+03 -1.10097E+04  2.05108E+03 -1.26411E+04  7.97496E+03 -9.86614E+03  1.21658E+04 -3.26505E+03
  1.12369E+04  2.11945E+03  7.08949E+03  7.83895E+03  6.62770E+02  9.21590E+03 -3.56213E+03  6.71569E+03
 -5.02846E+03  2.80511E+03 -2.90702E+03 -1.14361E+03 -8.72127E+02 -7.92210E+02 -5.25679E+02 -9.10515E+02
 -1.22335E+03  8.75103E+02 -2.61606E+03 -5.56144E+02 -6.68250E+02 -2.66312E+03  1.28991E+02 -2.66141E+03
  3.64416E+03 -2.63940E+03  4.95316E+03 -8.06446E+02  5.64482E+03  4.90869E+03  9.11089E+02  8.13856E+03
 -3.68498E+03  1.01304E+04 -9.81686E+03  5.59646E+03 -1.05242E+04 -1.04640E+03 -8.22433E+03 -6.56405E+03
 -3.04917E+03 -8.72476E+03  2.87597E+03 -8.48819E+03  5.26793E+03 -4.81280E+03  5.95161E+03  9.18127E+02
  3.25438E+03  3.40415E+03 -2.76154E+01  2.00646E+03 -1.61152E+03 -4.16624E+02  3.67774E+02 -1.75956E+03
  3.08439E+03 -1.73085E+03  3.17527E+03  1.06662E+03  2.04898E+03  2.86473E+03 -2.63744E+02  5.08425E+03
 -3.21278E+03  4.27975E+03 -5.27221E+03 -2.22592E+02 -4.85077E+03 -3.52670E+03 -8.54330E+02 -7.54438E+03
  3.80323E+03 -6.02335E+03  6.98662E+03 -2.65077E+03  6.06802E+03  1.61339E+03  3.03025E+03  4.94407E+03
  8.88482E+02  6.03310E+03 -2.85276E+03  4.31282E+03 -3.25536E+03  2.53407E+03 -3.21982E+03  9.24669E+01
 -1.45975E+03 -8.43216E+02 -1.22990E+03  1.06816E+03 -3.01871E+03  9.58344E+02 -3.95127E+03 -3.37183E+02
 -3.87265E+03 -2.60744E+03 -1.37637E+03 -5.43890E+03  3.30484E+03 -6.48491E+03  5.22443E+03 -3.17919E+03
  5.68600E+03  1.06914E+03  2.43941E+03  4.29217E+03 -5.93206E+02  5.85649E+03 -3.70086E+03  3.53468E+03
