 $NMID ID='MM_0lb_SNR400_19hz_g40_63.RAW', FMTDAT='(8E13.5)'
 TRAMP=1., VOLUME=1. $END
  3.09676E+05  6.74005E+02  3.37611E+05  2.50331E+05  8.46403E+04  3.36956E+05 -1.32485E+05  2.49981E+05
 -1.89673E+05  8.22618E+04 -1.10555E+05 -3.35348E+04  1.70420E+03 -5.01480E+04  5.40059E+04  6.74412E+02
  3.48026E+04  5.28310E+04 -1.69924E+04  7.46113E+04 -6.09408E+04  6.22435E+04 -8.22626E+04  3.18996E+04
 -7.91528E+04 -1.08773E+04 -5.55372E+04 -4.96160E+04 -1.49555E+04 -6.77804E+04  2.64507E+04 -4.44077E+04
  3.87259E+04  3.87317E+03  1.49271E+04  4.68965E+04 -3.39066E+04  4.54733E+04 -6.49006E+04 -6.81363E+02
 -5.07903E+04 -5.51697E+04 -5.96812E+03 -7.46557E+04  3.31067E+04 -5.19957E+04  4.57440E+04 -1.64709E+04
  4.11578E+04  1.12431E+04  2.99506E+04  2.36698E+04  1.59861E+04  2.75698E+04 -4.63924E+03  2.69621E+04
 -2.21706E+04  1.29135E+04 -1.91079E+04 -4.45343E+03  3.32806E+03 -7.99814E+03  2.12700E+04  1.03180E+04
  7.62360E+03  3.27722E+04 -2.99561E+04  3.34168E+04 -5.98076E+04  2.25608E+03 -5.52845E+04 -4.10063E+04
 -1.24890E+04 -5.96474E+04  3.78654E+04 -4.28072E+04  5.41655E+04 -1.92560E+03  3.07485E+04  3.00830E+04
 -6.19549E+03  3.20970E+04 -2.77551E+04  1.25642E+04 -2.63809E+04 -5.68694E+03 -1.36730E+04 -9.83717E+03
 -6.72390E+03 -1.07894E+04 -1.09470E+03 -1.61676E+04  6.09884E+03 -2.23576E+04  1.49271E+04 -1.42147E+04
  1.21687E+04  4.27215E+03 -5.55727E+03  1.26795E+04 -1.90325E+04 -2.09729E+03 -7.69232E+03 -2.96146E+04
  2.00008E+04 -3.97112E+04  4.39730E+04 -1.79734E+04  4.08986E+04  1.73449E+04  1.38361E+04  4.10009E+04
 -1.47126E+04  3.02564E+04 -2.24576E+04  9.78622E+02 -7.85639E+03 -2.60029E+04  2.01252E+04 -3.05240E+04
  3.72649E+04 -6.98026E+03  3.05995E+04  2.26541E+04  1.47832E+04  4.10108E+04 -7.77686E+03  4.36228E+04
 -2.75094E+04  2.87907E+04 -3.62339E+04  8.10218E+03 -3.71082E+04 -1.43869E+04 -2.05644E+04 -3.37796E+04
  6.92793E+03 -3.29107E+04  2.85007E+04 -1.18827E+04  2.62465E+04  1.06548E+04  2.55412E+03  1.79501E+04
 -1.30844E+04  7.24336E+03 -9.69202E+03 -7.97006E+03  5.87786E+03 -1.01600E+04  1.62485E+04  6.41296E+03
  1.19155E+04  2.13073E+04 -6.13327E+03  2.27379E+04 -2.11192E+04  8.27577E+03 -2.41040E+04 -6.62773E+03
 -1.57911E+04 -1.63558E+04 -4.85106E+03 -1.58044E+04  3.99723E+03 -1.29252E+04  1.13858E+04 -1.37936E+04
  1.98581E+04 -1.08382E+04  2.72805E+04  7.02999E+02  2.06505E+04  1.58157E+04  4.41196E+03  3.14236E+04
 -1.58696E+04  2.68268E+04 -2.55965E+04  9.13041E+03 -1.87478E+04 -1.04382E+04 -3.41141E+03 -1.40068E+04
  3.03592E+03 -4.12386E+03 -1.80330E+03  4.99056E+03 -1.19698E+04  5.21513E+03 -1.28237E+04 -4.16626E+03
 -8.16564E+03 -1.43084E+04  4.37344E+03 -1.84855E+04  1.22546E+04 -1.37917E+04  1.37272E+04 -1.54649E+03
  8.58930E+03  1.02526E+04 -5.78178E+02  1.53940E+04 -9.23444E+03  7.89825E+03 -1.47335E+04 -3.44440E+03
 -1.11680E+04 -1.36978E+04 -1.29708E+03 -1.81118E+04  8.42288E+03 -1.48138E+04  1.55480E+04 -7.24154E+03
  1.40164E+04  8.26553E+02  9.64020E+03  4.01970E+03  5.22938E+03  2.59954E+02  6.58237E+03 -1.48604E+03
  1.32623E+04  2.67841E+03  1.37672E+04  1.23109E+04  8.27618E+03  2.31741E+04 -3.40043E+03  2.52282E+04
 -1.51149E+04  1.82674E+04 -2.24541E+04  8.19252E+03 -2.33584E+04 -1.63304E+03 -1.96128E+04 -1.30871E+04
 -9.27256E+03 -1.88904E+04  7.10185E+03 -1.73649E+04  1.59596E+04 -1.00951E+04  1.47043E+04  3.29426E+03
  6.42895E+03  1.07450E+04 -6.47720E+03  1.00378E+04 -1.26202E+04  2.74499E+03 -9.37097E+03 -7.56507E+03
 -1.09539E+01 -1.18488E+04  5.92300E+03 -9.10843E+03  7.03320E+03 -1.07037E+03  8.40415E+02  4.41309E+03
 -5.22951E+03  8.90512E+02 -3.10557E+03 -4.50042E+03  1.46857E+03 -9.83974E+03  7.50948E+03 -9.76140E+03
  1.14792E+04 -3.94830E+03  1.07802E+04  2.63384E+03  9.46955E+03  8.72339E+03  4.58110E+03  1.27057E+04
 -1.47083E+03  1.46902E+04 -8.82499E+03  9.29733E+03 -1.06767E+04  2.96758E+03 -7.76236E+03 -2.18989E+03
 -4.18725E+03 -3.16694E+03 -5.61864E+02  1.49366E+03 -2.06779E+03  1.62185E+03 -3.80894E+03  4.14143E+03
 -7.29710E+03 -1.90932E+02 -8.62610E+03 -6.72917E+03 -3.08889E+03 -1.08184E+04  3.19556E+03 -8.07871E+03
  6.38987E+03 -3.64501E+03  4.90826E+03  1.68535E+03  5.66678E+02  3.09253E+03 -3.33895E+03 -2.52697E+01
 -2.81113E+03 -4.96299E+03 -9.65252E+02 -7.02467E+03  3.76470E+03 -7.17457E+03  9.18729E+03 -3.54568E+03
  1.09274E+04  3.16634E+02  8.15880E+03  5.60112E+03  2.09686E+03  7.81593E+03 -5.34419E+03  8.11523E+03
 -6.53870E+03  2.97488E+03 -3.57253E+03 -1.33815E+03  1.28725E+03 -1.60452E+03  4.53458E+03 -7.94018E+02
  4.35734E+03  3.57631E+03  6.96577E+02  5.84877E+03 -4.21726E+03  6.43536E+03 -7.09733E+03  1.67551E+03
 -4.14670E+03 -3.19737E+03 -3.03462E+02 -5.80976E+03  3.90302E+03 -2.76199E+03  2.94906E+03  9.86865E+02
  2.99935E+02  2.79270E+03 -3.12884E+03  3.69463E+03 -4.40764E+03  2.42372E+03 -3.81572E+03 -8.07840E+02
 -2.18760E+03 -5.24331E+03  1.00591E+03 -6.25889E+03  4.89390E+03 -4.08039E+03  5.54704E+03  1.26251E+03
  4.46683E+03  4.71725E+03 -2.04074E+02  6.80707E+03 -4.29305E+03  3.56008E+03 -4.65234E+03  2.39505E+01
 -5.65395E+03 -4.88388E+03 -9.00224E+02 -4.33842E+03  2.26727E+03 -4.82942E+03  2.64939E+03 -2.93182E+03
  2.67193E+03  1.09084E+02  2.75570E+01  1.20806E+03  6.69299E+02 -2.16825E+02 -2.99694E+02 -1.74642E+03
  3.10693E+03 -6.13631E+02  4.51289E+03  9.09903E+02  5.03547E+03  2.94812E+03  4.91004E+03  6.82231E+03
 -1.15341E+03  7.38514E+03 -6.90759E+03  5.39718E+03 -8.60564E+03  4.65731E+02 -7.10507E+03 -1.99697E+03
 -3.54894E+03 -5.63623E+03 -3.72598E+02 -4.99918E+03  2.21900E+03 -1.98027E+03  1.48577E+03 -2.17064E+03
  6.10711E+02 -1.27736E+03  2.06381E+03 -1.76907E+03  3.81175E+03 -1.28587E+03  3.20010E+03 -2.50430E+00
  4.14269E+03  8.65100E+02  1.36565E+03  3.03473E+03 -1.70466E+03  2.38151E+03 -4.33354E+03  2.58580E+03
 -4.51741E+03 -1.30301E+03 -1.75939E+03 -3.18877E+03 -5.29159E+01 -4.25765E+03  3.06331E+03 -4.88865E+03
  4.33980E+03 -2.86317E+03  6.05220E+03 -5.19519E+02  4.58822E+03  3.65984E+03  1.12200E+03  5.44032E+03
 -1.98152E+03  5.82046E+03 -3.20517E+03  1.73616E+03 -1.89886E+03 -1.31859E+03 -4.25933E+02 -7.66059E+02
 -7.90941E+02  2.67205E+02 -1.38954E+03  1.47130E+03 -2.38877E+03  9.78935E+02 -4.01278E+03  1.72262E+02
 -1.30411E+03 -3.83041E+03  1.17628E+03 -4.37932E+03  2.28415E+03 -3.76789E+03  2.94835E+03 -8.98461E+02
  3.60144E+03  2.42695E+03  1.96168E+03  2.61766E+03 -5.35056E+02  3.61318E+03 -2.15848E+03  2.48670E+03
 -2.94703E+03  7.02988E+02 -3.00031E+03 -2.60281E+03 -3.43075E+02 -3.21480E+03  1.06005E+03 -2.14111E+03
  2.21476E+03 -9.73300E+02  1.20267E+03  1.35990E+02  3.45352E+02  1.48589E+03  1.10352E+03  3.26518E+02
  1.29750E+03  4.14573E+02  1.56784E+03  1.33879E+03  1.40019E+03  2.10658E+03  1.22217E+03  1.55944E+03
 -1.78743E+03  2.11578E+03 -2.11369E+03  3.87108E+03 -2.81477E+03  1.19630E+03 -3.44389E+03 -6.80817E+02
 -1.83446E+03 -3.27270E+03  5.85652E+02 -4.62655E+03  1.54570E+03 -1.77807E+03  2.72441E+03 -1.32803E+03
  2.59373E+03  1.37555E+03  5.71931E+02  2.56331E+03 -5.81387E+02  8.49534E+02 -1.04730E+03 -7.69101E+02
 -3.96129E+02 -1.70109E+03  1.17176E+03 -1.26492E+03  1.14764E+03 -2.66568E+02  1.48511E+03  7.16047E+01
  8.85375E+02  1.57893E+02  7.17618E+02 -3.67768E+02 -2.92081E+02  4.57846E+02  1.64626E+03  1.05025E+01
  3.21006E+01 -7.17146E+01  1.50807E+03  1.00727E+03  3.52019E+02  2.36551E+03 -6.21095E+02  2.56713E+03
 -1.52383E+03  1.17424E+03 -1.89781E+03  4.95918E+02 -1.45565E+03 -8.65431E+02 -2.27999E+02 -5.16183E+02
  1.80578E+01 -1.16711E+03  4.86703E+02 -4.01741E+02  2.54366E+02  1.39582E+03 -7.70254E+02  8.58567E+02
 -1.30637E+03  4.23934E+02 -1.30802E+03 -1.29577E+03 -6.42756E+02 -1.90411E+03  3.91110E+02 -1.30953E+03
  1.12802E+03 -2.56754E+02  5.33611E+02  2.44369E+02  1.49397E+03  3.34887E+01 -9.57168E+01  8.00358E+02
 -3.29559E+02 -3.91981E+02 -5.34261E+02  2.42599E+01  3.86546E+02 -6.09507E+02  1.27728E+03 -8.62588E+02
  8.89244E+02  3.45652E+02  2.75074E+03  1.00489E+03  1.12132E+03  1.80695E+03 -2.25630E+02  1.47188E+03
 -1.64208E+03  3.43009E+01 -1.10732E+03  1.22997E+02 -3.21802E+02 -1.33607E+03  2.35244E+02 -4.16271E+02
  1.58890E+03 -5.97658E+02  6.66628E+02  3.24582E+02 -2.57419E+02  1.03653E+03  2.43633E+02  1.26240E+03
 -5.09390E+02  1.06252E+03 -2.19258E+02  1.30083E+02  6.94396E+01  3.20897E+02 -4.82716E+02  6.04085E+02
 -1.09303E+03  1.83667E+03 -2.01495E+03  9.58825E+02 -1.75045E+03  3.36271E+02 -2.14482E+03 -8.45635E+02
 -6.96125E+02 -2.68283E+03  9.59854E+02 -2.76868E+03  9.89629E+02 -2.15335E+03  2.36187E+03 -1.06672E+03
  2.64332E+03  5.16934E+00  8.15628E+02  1.22047E+03 -6.09454E+02  8.33570E+02 -7.05667E+02  1.31868E+03
 -6.91251E+02  8.67700E+02 -4.79151E+02  2.87345E+02 -5.15353E+02  7.78380E+02 -5.50550E+02 -2.56107E+02
 -1.10230E+03  1.62184E+02 -9.22095E+02  5.62726E+02  4.29480E+02 -3.47457E+02  1.78919E+02 -7.42919E+02
  8.76453E+02 -2.13061E+02 -1.48756E+02  2.54014E+02  8.95316E+02  4.86354E+02 -5.88297E+02  9.49879E+02
 -9.29482E+02  1.84728E+03 -1.46884E+03  1.44812E+03 -1.61862E+03 -8.00612E+01 -1.14489E+03 -1.69512E+03
 -5.02795E+02 -1.07064E+03  3.39013E+01 -8.30937E+02  7.46739E+02 -7.65114E+02  5.76871E+02  5.80231E+02
  3.62351E+02  4.33297E+02  3.33472E+02  4.21519E+02 -6.63873E+02 -7.36797E+01  2.69771E+02 -2.24554E+02
  9.05898E+02  7.58167E+02  8.82422E+02 -3.98497E+02 -1.18282E+02 -3.96475E+01  3.43928E+02  1.12033E+02
 -3.74140E+02  4.28923E+02 -6.57676E+02 -1.33996E+02 -7.38528E+02 -2.69929E+02  3.48342E+02 -7.23905E+02
  5.87369E+02 -1.56885E+02  5.94275E+02  5.36076E+02  9.60633E+02 -6.11794E+02 -1.17509E+02  9.61060E+02
  4.68132E+02  2.51568E+02 -6.89636E+02  4.52984E+02 -8.11657E+02  4.16832E+02 -1.27542E+02 -1.29522E+01
 -2.43161E+02 -2.37997E+02 -3.44456E+02 -9.16910E-01 -6.62161E+02  2.34141E+02 -1.02772E+03 -3.68559E+02
 -5.02294E+02  6.04658E+01 -8.94496E+01 -9.12915E+02  6.11666E+02 -1.48547E+03  6.96684E+02  4.21466E+01
  4.04322E+02  2.64440E+01 -6.37324E+02  9.98158E+01 -1.25960E+02  8.41899E+02 -1.36208E+02  5.27192E+02
