 $NMID ID='MM_0lb_SNR400_9hz_g40_50.RAW', FMTDAT='(8E13.5)'
 TRAMP=1., VOLUME=1. $END
  3.10109E+05  1.95110E+02  3.37971E+05  2.51598E+05  8.45963E+04  3.38563E+05 -1.33255E+05  2.51524E+05
 -1.90422E+05  8.42464E+04 -1.12695E+05 -3.22847E+04  3.56343E+02 -5.06042E+04  5.40245E+04 -4.67273E+02
  3.62490E+04  5.38049E+04 -1.70472E+04  7.68040E+04 -6.17888E+04  6.44445E+04 -8.53049E+04  3.24407E+04
 -8.21110E+04 -1.20338E+04 -5.74598E+04 -5.17676E+04 -1.52919E+04 -7.08628E+04  2.80731E+04 -4.65856E+04
  4.17089E+04  3.15250E+03  1.64654E+04  4.91535E+04 -3.45173E+04  4.80508E+04 -6.74487E+04  3.84628E+02
 -5.44882E+04 -5.74878E+04 -7.86196E+03 -7.74734E+04  3.50395E+04 -5.70997E+04  4.95346E+04 -1.85170E+04
  4.50301E+04  1.16478E+04  3.33154E+04  2.65927E+04  1.65263E+04  3.07218E+04 -5.72149E+03  2.77260E+04
 -2.23407E+04  1.17020E+04 -1.80997E+04 -5.28589E+03  6.43152E+03 -7.52099E+03  2.37358E+04  1.37810E+04
  6.41178E+03  3.66516E+04 -3.36423E+04  3.59800E+04 -6.52651E+04  2.59201E+03 -5.87443E+04 -4.42721E+04
 -1.21583E+04 -6.44123E+04  4.04794E+04 -4.76785E+04  6.09983E+04 -1.59894E+03  3.57300E+04  3.42992E+04
 -5.89154E+03  3.86221E+04 -3.19447E+04  1.85096E+04 -3.29337E+04 -3.99372E+03 -1.94396E+04 -1.20830E+04
 -9.34278E+03 -1.45464E+04  3.91820E+02 -1.97024E+04  7.40146E+03 -2.21602E+04  1.61543E+04 -1.27420E+04
  1.08789E+04  5.70361E+03 -1.00214E+04  1.22122E+04 -2.26466E+04 -6.66488E+03 -8.85837E+03 -3.64321E+04
  2.46673E+04 -4.59001E+04  5.03719E+04 -2.09105E+04  4.76366E+04  1.98810E+04  1.72833E+04  4.68330E+04
 -1.61187E+04  3.54951E+04 -2.71428E+04  1.67064E+03 -1.13889E+04 -2.88801E+04  2.18950E+04 -3.67555E+04
  4.40965E+04 -1.05331E+04  3.97327E+04  2.53918E+04  2.02909E+04  5.02694E+04 -8.30778E+03  5.47013E+04
 -3.49681E+04  3.76520E+04 -4.61255E+04  1.02157E+04 -4.63583E+04 -1.84148E+04 -2.58354E+04 -4.10154E+04
  7.71527E+03 -4.12161E+04  3.27778E+04 -1.66947E+04  3.13698E+04  1.07111E+04  5.66804E+03  2.08979E+04
 -1.41614E+04  9.10236E+03 -1.07245E+04 -6.91722E+03  5.15620E+03 -1.04402E+04  1.86028E+04  5.07764E+03
  1.48782E+04  2.24944E+04 -5.50243E+03  2.67444E+04 -2.32647E+04  1.34629E+04 -3.05851E+04 -3.05449E+03
 -2.49614E+04 -1.74936E+04 -1.03465E+04 -2.38627E+04  4.18612E+03 -2.47309E+04  1.93540E+04 -2.16008E+04
  3.13689E+04 -1.38278E+04  3.78440E+04  5.44383E+03  2.66297E+04  2.33707E+04  4.39580E+03  4.06706E+04
 -1.95221E+04  3.27946E+04 -3.05082E+04  1.16030E+04 -2.20145E+04 -1.01668E+04 -4.92526E+03 -1.35019E+04
  1.41640E+03 -1.59548E+03 -6.79784E+03  8.11044E+03 -1.86090E+04  5.59972E+03 -1.91019E+04 -9.18163E+03
 -1.21914E+04 -2.24451E+04  5.46278E+03 -2.65091E+04  1.82469E+04 -1.84289E+04  2.16259E+04 -1.82369E+03
  1.38914E+04  1.55205E+04 -1.24973E+03  2.28833E+04 -1.55253E+04  1.31245E+04 -2.30398E+04 -4.29528E+03
 -1.66794E+04 -2.00797E+04 -2.30974E+03 -2.64155E+04  1.20866E+04 -2.22352E+04  2.18776E+04 -1.19253E+04
  2.17481E+04 -4.90131E+02  1.53971E+04  5.40081E+03  8.33669E+03  1.27896E+03  1.16359E+04 -2.24227E+03
  2.14292E+04  2.91101E+03  2.44484E+04  1.77010E+04  1.69949E+04  3.57971E+04 -2.51674E+03  4.37600E+04
 -2.42413E+04  3.57971E+04 -3.96596E+04  1.82363E+04 -4.32607E+04 -2.74648E+03 -3.49424E+04 -2.50054E+04
 -1.37449E+04 -3.57337E+04  1.21442E+04 -3.04190E+04  2.66769E+04 -1.47694E+04  2.37564E+04  7.04352E+03
  7.98228E+03  1.87913E+04 -1.11148E+04  1.56369E+04 -1.92581E+04  2.62096E+03 -1.49192E+04 -1.17132E+04
 -3.82160E+01 -1.87284E+04  1.02061E+04 -1.38879E+04  1.21589E+04 -9.32859E+02  2.86808E+03  8.14685E+03
 -8.97477E+03  3.80445E+03 -8.97664E+03 -6.86074E+03 -2.24830E+03 -1.74360E+04  1.10858E+04 -1.89511E+04
  2.15098E+04 -1.08515E+04  2.52566E+04  3.12349E+03  2.24985E+04  1.78386E+04  9.79433E+03  2.76459E+04
 -5.26644E+03  2.97094E+04 -1.91277E+04  1.81240E+04 -2.15752E+04  3.86744E+03 -1.44951E+04 -5.74364E+03
 -6.16168E+03 -7.39201E+03 -3.93331E+02  7.22170E+02 -3.16245E+03  4.46689E+03 -5.95971E+03  5.51345E+03
 -1.35883E+04 -5.33776E+02 -1.41494E+04 -1.09512E+04 -5.29359E+03 -1.87491E+04  6.21886E+03 -1.49417E+04
  1.28450E+04 -5.86498E+03  9.13252E+03  4.40042E+03 -2.01537E+02  6.14589E+03 -7.64481E+03 -6.06232E+02
 -7.48887E+03 -9.23494E+03 -2.42905E+02 -1.48158E+04  8.63877E+03 -1.52333E+04  1.88937E+04 -7.27822E+03
  2.19880E+04  2.39824E+03  1.63744E+04  1.30077E+04  3.05882E+03  1.78221E+04 -9.53495E+03  1.53041E+04
 -1.26764E+04  4.46622E+03 -6.77603E+03 -3.35466E+03  2.06739E+03 -4.85016E+03  7.67999E+03 -1.39588E+03
  7.79918E+03  7.43016E+03  9.88838E+02  1.27569E+04 -8.85389E+03  1.12143E+04 -1.47477E+04  2.42030E+03
 -1.04414E+04 -7.92059E+03  6.64500E+02 -1.35978E+04  9.28918E+03 -6.70378E+03  8.57295E+03  2.66555E+03
  2.08798E+03  1.06575E+04 -8.04536E+03  1.12974E+04 -1.29737E+04  4.65934E+03 -1.34001E+04 -4.25181E+03
 -7.51033E+03 -1.46142E+04  3.73586E+03 -1.73710E+04  1.48309E+04 -1.05011E+04  1.63484E+04  3.12033E+03
  9.43053E+03  1.26302E+04 -1.28746E+03  1.48965E+04 -1.19266E+04  8.09973E+03 -1.22280E+04 -1.76904E+03
 -1.08570E+04 -1.04697E+04 -1.80255E+03 -1.16736E+04  5.63159E+03 -9.03408E+03  7.43436E+03 -4.53925E+03
  3.97961E+03  1.68210E+03 -2.01583E+03  1.80829E+03  8.02238E+02 -2.88668E+03  2.49076E+03 -6.14670E+03
  1.12774E+04 -4.06171E+03  1.51280E+04  2.26858E+03  1.54779E+04  9.44194E+03  1.01455E+04  2.01852E+04
 -4.37435E+03  2.24859E+04 -1.88462E+04  1.64168E+04 -2.48844E+04  2.44842E+03 -1.87983E+04 -8.42630E+03
 -1.01762E+04 -1.57546E+04 -1.05066E+03 -1.46271E+04  4.78142E+03 -7.38430E+03  4.69691E+03 -5.46408E+03
  4.19048E+03 -3.12119E+03  4.19459E+03 -3.78781E+03  6.49530E+03 -2.49471E+03  7.44837E+03 -1.46328E+03
  1.02435E+04  2.29303E+03  5.08114E+03  8.99759E+03 -2.06370E+03  1.05447E+04 -1.00236E+04  9.20012E+03
 -1.33789E+04 -1.20226E+03 -9.12984E+03 -1.03701E+04 -1.45779E+03 -1.53390E+04  8.47433E+03 -1.47960E+04
  1.57780E+04 -8.26378E+03  1.78790E+04  2.54984E+03  1.28352E+04  1.36713E+04  1.95125E+03  1.68759E+04
 -7.39859E+03  1.35940E+04 -1.01257E+04  4.91394E+03 -6.30367E+03 -1.62849E+03 -2.82651E+03 -1.82963E+03
 -2.16657E+02  7.67075E+02 -2.11186E+03  2.86775E+03 -5.61018E+03  2.19894E+03 -9.53316E+03 -8.87453E+02
 -6.72770E+03 -8.96012E+03 -4.52549E+02 -1.41971E+04  8.58774E+03 -1.27650E+04  1.37758E+04 -4.02796E+03
  1.36707E+04  6.04656E+03  6.01477E+03  1.20963E+04 -3.15721E+03  1.43635E+04 -9.99083E+03  9.17030E+03
 -1.34535E+04  7.13740E+02 -9.85763E+03 -8.51966E+03 -1.04367E+03 -1.11610E+04  5.69484E+03 -8.59979E+03
  9.04609E+03 -3.14225E+03  5.96827E+03  1.95301E+03  1.91542E+03  3.55616E+03  1.72238E+03  2.66746E+03
  3.44231E+03  1.06918E+03  3.28593E+03  1.73253E+03  4.39304E+03  4.97937E+03  3.30131E+03  7.38316E+03
 -3.25525E+03  1.10409E+04 -1.03228E+04  1.03752E+04 -1.40184E+04  2.78013E+03 -1.46423E+04 -6.77625E+03
 -7.27077E+03 -1.44820E+04  2.54927E+03 -1.56264E+04  8.70791E+03 -1.01532E+04  1.21844E+04 -2.74234E+03
  8.23290E+03  5.18037E+03  2.38548E+03  7.90402E+03 -4.67479E+03  4.72576E+03 -6.24270E+03 -4.46542E+02
 -3.07686E+03 -6.25273E+03  2.98795E+03 -5.69464E+03  6.67424E+03 -3.12365E+03  6.16629E+03  1.62883E+03
  3.29037E+03  2.87910E+03  1.60842E+03  1.74096E+03 -5.64408E+02  1.81250E+03  9.37309E+02 -1.54396E+03
  3.03258E+03 -7.85472E+02  6.27530E+03  1.80451E+03  2.97959E+03  8.01231E+03 -8.65153E+02  9.81469E+03
 -6.64023E+03  6.59873E+03 -9.37457E+03  1.98150E+03 -7.57273E+03 -3.89027E+03 -2.90446E+03 -5.67701E+03
  1.25478E+03 -5.99375E+03  4.08468E+03 -2.33563E+03  3.08435E+03  3.08910E+03 -7.01016E+02  5.43365E+03
 -6.46963E+03  2.39055E+03 -6.72490E+03 -3.38655E+03 -4.07372E+03 -7.96397E+03  9.15799E+02 -7.88869E+03
  4.60300E+03 -5.52998E+03  5.54768E+03 -1.20214E+02  4.88399E+03  2.58727E+03  6.25950E+02  4.10790E+03
 -3.59181E+03  1.64127E+03 -3.74065E+03 -3.35665E+03  6.64376E+02 -6.32779E+03  6.64881E+03 -4.70652E+03
  8.91297E+03  3.28669E+02  9.28659E+03  5.36681E+03  2.85101E+03  1.04666E+04 -2.94951E+03  8.31383E+03
 -7.22955E+03  3.49910E+03 -8.46567E+03 -1.01564E+03 -5.10563E+03 -6.00230E+03  1.90688E+03 -5.44453E+03
  5.38886E+03 -2.42533E+03  5.44721E+03  3.21396E+03  1.58495E+03  5.37562E+03 -1.96668E+02  5.02471E+03
 -2.07571E+03  2.64382E+03 -3.08783E+03  2.34780E+03 -8.95777E+02  6.41660E+02 -1.89760E+03  2.36309E+03
 -3.13703E+03  4.12984E+03 -6.98743E+03  3.26222E+03 -8.65888E+03  5.01057E+01 -1.03530E+04 -7.05902E+03
 -5.07794E+03 -1.27278E+04  2.38531E+03 -1.40343E+04  8.69000E+03 -1.06564E+04  1.40922E+04 -4.61537E+03
  1.25298E+04  3.27621E+03  7.81872E+03  8.98882E+03  9.45430E+02  9.52398E+03 -4.04700E+03  7.24300E+03
 -5.24025E+03  2.55471E+03 -2.76555E+03 -9.50786E+02 -6.82815E+02 -8.84930E+02 -3.86178E+02 -2.32662E+02
 -9.26655E+02  1.27550E+03 -2.03750E+03 -6.86646E+02 -2.44785E+02 -2.19618E+03  3.36271E+02 -3.46850E+03
  3.69198E+03 -3.84464E+03  5.63121E+03  7.29547E+02  7.21832E+03  5.54394E+03  1.52436E+03  9.21874E+03
 -4.34030E+03  1.13675E+04 -1.02555E+04  6.18546E+03 -1.18729E+04 -1.52267E+02 -8.14444E+03 -7.28533E+03
 -4.44364E+03 -9.65495E+03  2.94010E+03 -8.89009E+03  6.72076E+03 -5.60339E+03  6.43525E+03  7.31130E+02
  3.39507E+03  3.22725E+03 -5.21657E+02  3.92149E+03 -2.24241E+03 -7.95681E+02  3.79463E+02 -2.50135E+03
  2.89567E+03 -1.26245E+03  3.94811E+03  1.08748E+03  3.00388E+03  3.04189E+03  4.53411E+02  5.30682E+03
 -3.35119E+03  5.35002E+03 -6.75969E+03  4.46921E+02 -6.03269E+03 -4.24600E+03 -7.00647E+02 -8.01848E+03
  4.80322E+03 -7.04789E+03  7.34457E+03 -2.11578E+03  7.14095E+03  1.35635E+03  4.38891E+03  6.34161E+03
  2.33504E+02  5.78132E+03 -3.27981E+03  4.62098E+03 -3.84703E+03  2.99300E+03 -3.62069E+03  7.70233E+02
 -2.00604E+03 -5.97075E+02 -2.23577E+03  1.06764E+03 -3.23532E+03  1.99704E+03 -5.36623E+03 -1.70613E+03
 -4.62233E+03 -3.07289E+03 -1.20291E+03 -7.46539E+03  3.13417E+03 -7.69280E+03  6.92053E+03 -3.71775E+03
  6.17747E+03  1.21478E+03  4.15787E+03  4.55049E+03 -2.50323E+02  6.56555E+03 -4.33570E+03  4.97920E+03
