 $NMID ID='MM_0lb_SNR400_7hz_g45_82.RAW', FMTDAT='(8E13.5)'
 TRAMP=1., VOLUME=1. $END
  3.09543E+05  4.70471E+02  3.38488E+05  2.51441E+05  8.57476E+04  3.38308E+05 -1.33068E+05  2.52610E+05
 -1.90849E+05  8.37435E+04 -1.12944E+05 -3.12730E+04  7.68751E+02 -5.15779E+04  5.32342E+04  1.51273E+02
  3.64681E+04  5.28189E+04 -1.60409E+04  7.62830E+04 -6.10916E+04  6.48081E+04 -8.59763E+04  3.36637E+04
 -8.30972E+04 -1.11336E+04 -5.88377E+04 -5.21701E+04 -1.52291E+04 -7.14042E+04  2.81597E+04 -4.69177E+04
  4.14395E+04  2.94528E+03  1.68655E+04  4.94175E+04 -3.38212E+04  4.86352E+04 -6.82745E+04  2.90252E+02
 -5.44735E+04 -5.83679E+04 -7.76633E+03 -7.94832E+04  3.51672E+04 -5.74314E+04  5.03616E+04 -1.81259E+04
  4.60425E+04  1.11552E+04  3.40974E+04  2.68217E+04  1.55883E+04  3.14230E+04 -6.56294E+03  2.89157E+04
 -2.29789E+04  1.22760E+04 -1.84698E+04 -5.48374E+03  8.09142E+03 -7.70384E+03  2.34989E+04  1.47499E+04
  6.15081E+03  3.82467E+04 -3.53532E+04  3.66273E+04 -6.66090E+04  2.07128E+03 -5.91809E+04 -4.47495E+04
 -1.26654E+04 -6.60670E+04  4.22787E+04 -4.78175E+04  6.16389E+04 -3.27951E+03  3.78912E+04  3.48149E+04
 -6.04679E+03  4.01869E+04 -3.33945E+04  1.99754E+04 -3.43499E+04 -4.11870E+03 -2.05739E+04 -1.27705E+04
 -9.91358E+03 -1.50964E+04 -3.90893E+02 -1.97720E+04  8.68988E+03 -2.41215E+04  1.59206E+04 -1.21261E+04
  1.08101E+04  7.66192E+03 -1.07168E+04  1.27777E+04 -2.48990E+04 -8.21465E+03 -1.00910E+04 -3.79282E+04
  2.47783E+04 -4.90014E+04  5.30675E+04 -2.10950E+04  4.86914E+04  2.16320E+04  1.77650E+04  4.72784E+04
 -1.71239E+04  3.72588E+04 -2.84937E+04  2.49386E+03 -1.22107E+04 -2.97953E+04  2.15667E+04 -3.81842E+04
  4.55267E+04 -1.15793E+04  4.17823E+04  2.56822E+04  2.19392E+04  5.27570E+04 -8.25932E+03  5.73558E+04
 -3.76090E+04  3.92204E+04 -4.88631E+04  1.20077E+04 -4.87604E+04 -1.92938E+04 -2.69599E+04 -4.30668E+04
  8.02330E+03 -4.38753E+04  3.53873E+04 -1.84214E+04  3.26358E+04  1.04490E+04  5.31798E+03  2.12188E+04
 -1.44687E+04  9.91724E+03 -1.13393E+04 -7.89762E+03  5.27091E+03 -1.08718E+04  1.95682E+04  5.66984E+03
  1.51099E+04  2.33879E+04 -4.84174E+03  2.83355E+04 -2.34463E+04  1.43530E+04 -3.28128E+04 -2.39453E+03
 -2.73971E+04 -1.88951E+04 -1.23332E+04 -2.60398E+04  4.13489E+03 -2.84850E+04  2.07461E+04 -2.39533E+04
  3.52152E+04 -1.45517E+04  4.01995E+04  5.60785E+03  2.86624E+04  2.67649E+04  4.49234E+03  4.41097E+04
 -2.05225E+04  3.52072E+04 -3.16515E+04  1.17063E+04 -2.33048E+04 -9.89416E+03 -5.25950E+03 -1.29196E+04
  1.25929E+02  1.56335E+02 -8.64575E+03  8.57123E+03 -2.20043E+04  5.20348E+03 -2.18905E+04 -1.04534E+04
 -1.22571E+04 -2.53310E+04  6.75339E+03 -2.91919E+04  2.00236E+04 -2.07058E+04  2.33575E+04 -2.14120E+03
  1.49075E+04  1.63641E+04 -1.49159E+03  2.50738E+04 -1.82806E+04  1.44100E+04 -2.49329E+04 -5.52172E+03
 -1.83629E+04 -2.18741E+04 -2.43972E+03 -3.04374E+04  1.26910E+04 -2.44108E+04  2.38723E+04 -1.29424E+04
  2.41865E+04 -2.06041E+02  1.68325E+04  5.42227E+03  9.38812E+03  1.75420E+03  1.30098E+04 -2.11710E+03
  2.34677E+04  2.73965E+03  2.66771E+04  1.91404E+04  1.95655E+04  4.01610E+04 -3.09304E+03  4.71209E+04
 -2.69104E+04  4.10946E+04 -4.53393E+04  2.07989E+04 -4.85414E+04 -3.50466E+03 -3.87027E+04 -2.86781E+04
 -1.54579E+04 -4.09675E+04  1.45825E+04 -3.54006E+04  3.09792E+04 -1.66031E+04  2.69534E+04  9.45840E+03
  8.61150E+03  2.03615E+04 -1.25308E+04  1.68831E+04 -2.13443E+04  2.03974E+03 -1.67283E+04 -1.50900E+04
 -1.04707E+03 -2.06156E+04  1.15792E+04 -1.48470E+04  1.45296E+04 -9.85326E+02  4.71817E+03  9.30706E+03
 -1.03027E+04  4.03879E+03 -9.72732E+03 -8.40663E+03 -1.74643E+03 -1.97966E+04  1.35045E+04 -2.15817E+04
  2.55805E+04 -1.20752E+04  2.96879E+04  3.20447E+03  2.60534E+04  2.07912E+04  1.24220E+04  3.26433E+04
 -6.14710E+03  3.42852E+04 -2.26628E+04  2.11807E+04 -2.51367E+04  4.42459E+03 -1.75460E+04 -6.55759E+03
 -6.12888E+03 -7.97085E+03 -3.04445E+02 -4.94642E+02 -3.29779E+03  4.23732E+03 -7.86059E+03  6.13192E+03
 -1.59198E+04 -8.43755E+02 -1.61513E+04 -1.25976E+04 -7.47488E+03 -2.13710E+04  7.06062E+03 -1.76090E+04
  1.41215E+04 -7.23370E+03  9.90985E+03  4.27124E+03 -1.11294E+03  7.47231E+03 -9.11226E+03 -2.54718E+02
 -8.29928E+03 -1.17893E+04 -6.16822E+02 -1.75857E+04  9.87400E+03 -1.80173E+04  2.28766E+04 -9.12080E+03
  2.56095E+04  3.35724E+03  1.98062E+04  1.77336E+04  2.82115E+03  2.13347E+04 -1.03976E+04  1.76133E+04
 -1.39811E+04  4.89429E+03 -7.30928E+03 -4.13763E+03  2.44879E+03 -5.83017E+03  9.77621E+03 -6.86711E+02
  8.35037E+03  8.12062E+03  1.46085E+03  1.38723E+04 -9.90819E+03  1.36112E+04 -1.76278E+04  2.86063E+03
 -1.23028E+04 -9.16522E+03 -2.58834E+01 -1.53368E+04  9.69062E+03 -7.79070E+03  1.04960E+04  4.65488E+03
  3.56227E+03  1.12018E+04 -9.53403E+03  1.27982E+04 -1.63930E+04  5.09761E+03 -1.61120E+04 -6.32039E+03
 -9.13157E+03 -1.80605E+04  4.89802E+03 -2.06548E+04  1.74279E+04 -1.27570E+04  2.00255E+04  2.72962E+03
  1.20159E+04  1.55473E+04 -2.76547E+03  1.82329E+04 -1.37889E+04  1.04422E+04 -1.56588E+04 -1.71133E+03
 -1.15696E+04 -1.20185E+04 -1.97144E+03 -1.41895E+04  7.10524E+03 -1.06875E+04  8.77393E+03 -4.08133E+03
  5.72050E+03  2.34164E+03 -1.23518E+03  2.95773E+03 -1.05777E+03 -3.23640E+03  2.98687E+03 -9.39512E+03
  1.33545E+04 -6.39311E+03  1.90080E+04  2.00483E+03  1.86277E+04  1.37931E+04  1.23687E+04  2.41844E+04
 -6.01707E+03  2.85840E+04 -2.30696E+04  2.14051E+04 -2.95157E+04  4.68915E+03 -2.41619E+04 -1.04816E+04
 -1.15866E+04 -2.08407E+04 -1.89937E+02 -1.72373E+04  6.39013E+03 -9.74697E+03  6.39100E+03 -5.69275E+03
  4.25525E+03 -3.75851E+03  4.97824E+03 -4.12690E+03  5.46438E+03 -4.24759E+03  9.96310E+03 -1.62727E+03
  1.33107E+04  2.52743E+03  6.75213E+03  1.15277E+04 -1.89021E+03  1.32648E+04 -1.46456E+04  9.80766E+03
 -1.71884E+04 -6.99605E+02 -1.17329E+04 -1.21991E+04 -2.27150E+03 -1.90472E+04  1.10474E+04 -1.82018E+04
  2.04409E+04 -1.04369E+04  2.34843E+04  4.05582E+03  1.60675E+04  1.71558E+04  2.42925E+03  2.15840E+04
 -9.97423E+03  1.84175E+04 -1.21761E+04  6.56064E+03 -9.08540E+03 -1.92623E+03 -3.82156E+03 -2.80712E+03
 -2.08811E+03 -4.89558E+02 -2.76007E+03  3.51132E+03 -7.37485E+03  3.67312E+03 -1.20125E+04 -1.58343E+03
 -9.35205E+03 -1.19709E+04 -7.77418E+02 -1.75931E+04  1.09142E+04 -1.69829E+04  1.90383E+04 -5.49701E+03
  1.68238E+04  8.74190E+03  7.64769E+03  1.59127E+04 -3.82714E+03  1.86092E+04 -1.37411E+04  1.17235E+04
 -1.65749E+04  5.07411E+02 -1.27201E+04 -1.06579E+04 -1.77160E+03 -1.48464E+04  8.51365E+03 -1.19042E+04
  1.09350E+04 -3.71680E+03  8.45515E+03  2.93750E+03  3.77400E+03  5.05691E+03  1.31811E+03  2.11669E+03
  2.74396E+03  1.62845E+03  4.80988E+03  1.96176E+03  5.31542E+03  6.40273E+03  4.51562E+03  9.56206E+03
 -3.96829E+03  1.54503E+04 -1.31562E+04  1.47916E+04 -1.87975E+04  3.06991E+03 -1.86515E+04 -8.44476E+03
 -9.93648E+03 -1.82252E+04  3.50640E+03 -2.02164E+04  1.20216E+04 -1.22647E+04  1.62299E+04 -3.10737E+03
  1.13565E+04  6.06687E+03  2.34807E+03  1.21919E+04 -5.48579E+03  6.51965E+03 -8.49412E+03 -9.25895E+02
 -3.59821E+03 -8.12994E+03  4.34222E+03 -9.07399E+03  8.04619E+03 -4.45074E+03  8.03876E+03  2.19607E+03
  5.09015E+03  3.33940E+03  1.82806E+03  2.74474E+03 -1.72395E+03  2.59282E+03  1.80909E+03 -1.08280E+03
  3.24974E+03 -1.17055E+03  7.80088E+03  2.78339E+03  4.14104E+03  8.52982E+03 -2.03049E+03  1.40029E+04
 -9.66668E+03  1.04530E+04 -1.25066E+04  2.88824E+03 -1.24718E+04 -4.48158E+03 -4.65275E+03 -7.41794E+03
  5.08572E+02 -8.76788E+03  5.64733E+03 -3.25365E+03  4.29102E+03  4.49589E+03 -7.23484E+02  6.09590E+03
 -8.70422E+03  2.82574E+03 -9.96289E+03 -4.10356E+03 -5.24863E+03 -1.09957E+04  1.32406E+03 -1.16855E+04
  6.05277E+03 -7.46601E+03  7.95149E+03 -1.25003E+03  6.38981E+03  2.79780E+03  5.26782E+02  5.34118E+03
 -4.17927E+03  2.02368E+03 -4.66699E+03 -3.64038E+03  1.52336E+03 -8.13073E+03  9.30250E+03 -7.34043E+03
  1.21404E+04  1.99545E+01  1.24815E+04  8.79933E+03  3.75928E+03  1.36872E+04 -4.66013E+03  1.25535E+04
 -1.08567E+04  5.21191E+03 -1.01785E+04 -2.36947E+03 -5.97457E+03 -7.83555E+03  1.40659E+03 -8.27860E+03
  7.92872E+03 -3.41570E+03  7.18215E+03  4.15311E+03  2.88433E+03  7.59472E+03 -1.28877E+03  6.15322E+03
 -3.29902E+03  3.83394E+03 -3.34361E+03  1.79572E+03 -2.00575E+03  1.62547E+03 -2.03854E+03  2.09022E+03
 -3.74166E+03  4.19481E+03 -9.07929E+03  5.35440E+03 -1.28517E+04 -2.24994E+02 -1.51697E+04 -8.77022E+03
 -8.28181E+03 -1.78166E+04  2.94107E+03 -2.12698E+04  1.30192E+04 -1.59880E+04  1.89753E+04 -5.79229E+03
  1.77358E+04  3.20340E+03  1.09269E+04  1.28780E+04  1.57400E+03  1.49407E+04 -6.36712E+03  1.06607E+04
 -8.22461E+03  3.78820E+03 -4.35047E+03 -1.01297E+03 -1.44928E+03 -1.22540E+03 -1.37232E+02  2.51939E+02
 -3.23969E+03  8.86999E+02 -2.75692E+03 -9.36425E+02 -4.40073E+02 -3.14096E+03  6.21245E+02 -5.15124E+03
  6.17822E+03 -3.29589E+03  8.73025E+03  6.87381E+02  9.35888E+03  7.35351E+03  2.88915E+03  1.45761E+04
 -6.89247E+03  1.50444E+04 -1.51618E+04  1.02352E+04 -1.76255E+04 -1.17500E+03 -1.23228E+04 -1.02343E+04
 -5.61288E+03 -1.50579E+04  3.48894E+03 -1.27051E+04  9.24104E+03 -8.12088E+03  1.11181E+04  4.49899E+02
  4.50638E+03  4.45806E+03 -6.93652E+01  3.44376E+03 -3.78589E+03  1.67361E+02 -4.23564E+02 -3.87312E+03
  3.93771E+03 -3.10439E+03  5.43492E+03  1.43193E+03  4.71432E+03  5.73978E+03 -5.23923E+01  8.06375E+03
 -5.95507E+03  6.65937E+03 -9.67666E+03  4.31438E+02 -8.78248E+03 -7.94578E+03 -1.38932E+03 -1.28837E+04
  6.55740E+03 -1.07594E+04  1.15844E+04 -3.91113E+03  1.04720E+04  3.86876E+03  6.88132E+03  9.99009E+03
  1.43770E+03  1.01105E+04 -4.55047E+03  8.24340E+03 -6.83545E+03  4.06702E+03 -6.04026E+03  4.65864E+02
 -3.28609E+03  7.17797E+02 -3.13598E+03  1.01925E+03 -4.06661E+03  2.10416E+03 -7.83764E+03 -1.29967E+03
 -8.24952E+03 -5.37230E+03 -2.34044E+03 -1.03098E+04  4.42020E+03 -1.04196E+04  9.88637E+03 -4.56205E+03
  9.81285E+03  8.73412E+01  5.60217E+03  7.38321E+03 -9.67069E+02  9.88009E+03 -6.81991E+03  6.16796E+03
