 $NMID ID='MM_0lb_SNR400_8hz_g45_30.RAW', FMTDAT='(8E13.5)'
 TRAMP=1., VOLUME=1. $END
  3.09698E+05  2.82524E+02  3.37941E+05  2.50286E+05  8.44803E+04  3.39102E+05 -1.32751E+05  2.52647E+05
 -1.91478E+05  8.37706E+04 -1.12722E+05 -3.22628E+04  2.59531E+02 -5.07804E+04  5.32526E+04 -7.49187E+02
  3.55822E+04  5.26996E+04 -1.70742E+04  7.55720E+04 -6.06187E+04  6.42303E+04 -8.51122E+04  3.11957E+04
 -8.24289E+04 -1.17690E+04 -5.84807E+04 -5.27695E+04 -1.43134E+04 -7.04846E+04  2.83094E+04 -4.61057E+04
  4.10251E+04  4.21351E+03  1.73506E+04  4.88734E+04 -3.44833E+04  4.81967E+04 -6.90984E+04  2.02440E+02
 -5.53474E+04 -5.79677E+04 -6.85777E+03 -7.97547E+04  3.48333E+04 -5.74824E+04  4.97866E+04 -1.77293E+04
  4.43816E+04  1.15301E+04  3.35070E+04  2.67536E+04  1.57090E+04  2.98525E+04 -6.03874E+03  2.82257E+04
 -2.24521E+04  1.20563E+04 -1.81626E+04 -5.60812E+03  6.35381E+03 -7.57675E+03  2.35560E+04  1.35276E+04
  7.80295E+03  3.75592E+04 -3.44248E+04  3.71809E+04 -6.61090E+04  2.22508E+03 -5.80462E+04 -4.43900E+04
 -1.29642E+04 -6.60567E+04  4.21898E+04 -4.71593E+04  6.18303E+04 -3.02956E+03  3.71201E+04  3.40597E+04
 -4.99365E+03  3.95746E+04 -3.17697E+04  1.93559E+04 -3.30721E+04 -2.69040E+03 -1.91061E+04 -1.27740E+04
 -8.82124E+03 -1.53655E+04  3.53112E+02 -1.92905E+04  8.60455E+03 -2.34857E+04  1.54369E+04 -1.26348E+04
  1.04160E+04  6.15370E+03 -1.07368E+04  1.29738E+04 -2.34486E+04 -6.81246E+03 -8.95642E+03 -3.81060E+04
  2.47281E+04 -4.69143E+04  5.22564E+04 -2.11348E+04  4.92614E+04  2.02255E+04  1.79413E+04  4.72426E+04
 -1.70300E+04  3.55026E+04 -2.82999E+04  1.81174E+03 -1.22768E+04 -2.89397E+04  2.23722E+04 -3.71746E+04
  4.55266E+04 -1.22188E+04  4.17681E+04  2.37044E+04  2.11784E+04  5.09968E+04 -8.81685E+03  5.70152E+04
 -3.53393E+04  3.79100E+04 -4.82871E+04  1.14463E+04 -4.77665E+04 -1.80691E+04 -2.64357E+04 -4.12630E+04
  7.84066E+03 -4.25841E+04  3.45392E+04 -1.70917E+04  3.26127E+04  1.15432E+04  5.68630E+03  2.08427E+04
 -1.39578E+04  1.05448E+04 -1.12261E+04 -7.41530E+03  6.01479E+03 -1.14191E+04  1.94269E+04  5.66190E+03
  1.51247E+04  2.34852E+04 -5.38298E+03  2.75917E+04 -2.38067E+04  1.46106E+04 -3.18608E+04 -3.32107E+03
 -2.59007E+04 -1.91436E+04 -1.14793E+04 -2.45850E+04  4.94079E+03 -2.61545E+04  2.01689E+04 -2.29867E+04
  3.33805E+04 -1.49629E+04  3.94007E+04  3.99139E+03  2.76514E+04  2.46033E+04  4.79866E+03  4.13830E+04
 -1.96291E+04  3.49498E+04 -3.13196E+04  1.24765E+04 -2.25203E+04 -1.09717E+04 -4.89221E+03 -1.27287E+04
  1.30948E+03 -4.16783E+02 -7.98360E+03  8.40028E+03 -2.04681E+04  5.24836E+03 -2.01889E+04 -9.40218E+03
 -1.16694E+04 -2.36638E+04  5.88696E+03 -2.82556E+04  1.91270E+04 -2.02201E+04  2.30419E+04 -2.36306E+03
  1.49893E+04  1.64299E+04 -1.19735E+03  2.38671E+04 -1.67696E+04  1.35181E+04 -2.39582E+04 -5.14243E+03
 -1.75924E+04 -2.09225E+04 -2.39862E+03 -2.83208E+04  1.35999E+04 -2.42525E+04  2.37121E+04 -1.19197E+04
  2.31504E+04 -9.36853E+02  1.62875E+04  4.91683E+03  9.08478E+03  1.27242E+03  1.25119E+04 -1.60213E+03
  2.30610E+04  3.41742E+03  2.59269E+04  1.83135E+04  1.76578E+04  3.93263E+04 -2.43167E+03  4.47485E+04
 -2.54594E+04  3.85905E+04 -4.24207E+04  1.97257E+04 -4.62633E+04 -3.82796E+03 -3.67422E+04 -2.62565E+04
 -1.52868E+04 -3.82680E+04  1.36586E+04 -3.36505E+04  2.90652E+04 -1.59633E+04  2.34841E+04  7.88239E+03
  8.49519E+03  1.96616E+04 -1.21902E+04  1.56628E+04 -2.04171E+04  2.31628E+03 -1.48080E+04 -1.27370E+04
 -7.35367E+02 -2.03130E+04  1.00778E+04 -1.48016E+04  1.35031E+04 -1.32104E+03  3.94382E+03  8.61883E+03
 -8.46328E+03  4.38994E+03 -9.52520E+03 -6.88508E+03 -1.76122E+03 -1.85152E+04  1.21102E+04 -2.06220E+04
  2.35200E+04 -1.15995E+04  2.76469E+04  4.07395E+03  2.40033E+04  1.88532E+04  1.03064E+04  3.08179E+04
 -5.91074E+03  3.25747E+04 -2.10725E+04  2.08894E+04 -2.29885E+04  3.89476E+03 -1.63683E+04 -6.42636E+03
 -6.86760E+03 -7.34522E+03 -1.63985E+03 -1.77894E+02 -3.26691E+03  3.34784E+03 -7.59970E+03  5.95254E+03
 -1.45583E+04 -1.31458E+03 -1.52927E+04 -1.16957E+04 -5.70302E+03 -2.06029E+04  7.40793E+03 -1.59799E+04
  1.33556E+04 -7.28074E+03  9.78874E+03  4.71996E+03 -6.65892E+02  5.56364E+03 -8.52981E+03  1.41258E+02
 -7.98855E+03 -1.06700E+04 -1.42161E+03 -1.62838E+04  9.95260E+03 -1.67964E+04  2.09396E+04 -9.44933E+03
  2.51710E+04  3.06494E+03  1.80667E+04  1.58089E+04  3.28446E+03  1.98053E+04 -9.40021E+03  1.66746E+04
 -1.29155E+04  4.54609E+03 -6.42151E+03 -3.03555E+03  2.44171E+03 -4.47675E+03  8.19028E+03 -2.00597E+03
  7.59569E+03  6.37490E+03  9.66274E+02  1.41130E+04 -9.67416E+03  1.33220E+04 -1.63531E+04  2.40083E+03
 -1.08751E+04 -8.62673E+03 -1.54779E+02 -1.38833E+04  9.14931E+03 -6.93138E+03  1.02973E+04  3.37581E+03
  2.64346E+03  1.08934E+04 -8.73077E+03  1.28599E+04 -1.48185E+04  5.98773E+03 -1.52543E+04 -5.07268E+03
 -8.36555E+03 -1.67760E+04  3.66659E+03 -1.96667E+04  1.62186E+04 -1.14617E+04  1.79434E+04  3.09215E+03
  9.73263E+03  1.42396E+04 -7.82566E+02  1.65549E+04 -1.27208E+04  9.52671E+03 -1.44812E+04 -1.79872E+03
 -1.16086E+04 -1.05573E+04 -2.89179E+03 -1.27253E+04  7.26084E+03 -9.93934E+03  8.33493E+03 -3.40814E+03
  5.73044E+03  1.87623E+03 -1.66244E+03  2.31818E+03 -1.16460E+03 -3.95538E+03  3.18385E+03 -7.60984E+03
  1.21223E+04 -5.13340E+03  1.67619E+04  1.94776E+03  1.66177E+04  1.22437E+04  1.07332E+04  2.17546E+04
 -5.47225E+03  2.58357E+04 -2.12725E+04  1.89678E+04 -2.75720E+04  3.37318E+03 -2.26894E+04 -9.16411E+03
 -1.14861E+04 -1.83126E+04  1.01614E+02 -1.58455E+04  5.60441E+03 -9.00920E+03  5.84660E+03 -5.05905E+03
  4.55102E+03 -2.89707E+03  3.68665E+03 -3.95650E+03  6.16496E+03 -4.06426E+03  7.83566E+03 -1.87400E+03
  1.23485E+04  3.16702E+03  6.39892E+03  1.05700E+04 -2.53066E+03  1.26155E+04 -1.24263E+04  9.33489E+03
 -1.60423E+04 -9.14620E+02 -1.10162E+04 -1.14017E+04 -1.17320E+03 -1.74816E+04  9.41481E+03 -1.65694E+04
  1.75547E+04 -1.00482E+04  2.06317E+04  3.15038E+03  1.43561E+04  1.47778E+04  1.80847E+03  1.92842E+04
 -7.61893E+03  1.61411E+04 -1.14850E+04  6.06434E+03 -8.24581E+03 -1.19052E+03 -3.31130E+03 -2.58734E+03
 -1.15380E+03 -1.02897E+02 -3.16746E+03  2.99543E+03 -5.74988E+03  2.70168E+03 -1.11134E+04 -2.09311E+03
 -8.03716E+03 -1.11027E+04  1.67515E+02 -1.63106E+04  9.90951E+03 -1.47756E+04  1.63183E+04 -4.71299E+03
  1.65203E+04  7.75651E+03  7.23780E+03  1.58609E+04 -4.12506E+03  1.60256E+04 -1.13730E+04  1.01476E+04
 -1.43999E+04 -4.31708E+01 -1.07878E+04 -9.74065E+03 -1.07593E+03 -1.22263E+04  6.67836E+03 -9.64691E+03
  9.86011E+03 -3.37110E+03  6.90468E+03  3.33413E+03  3.11240E+03  5.39961E+03  1.39909E+03  1.79607E+03
  3.40569E+03  1.51219E+03  3.32123E+03  1.96169E+03  5.14320E+03  5.00070E+03  3.94606E+03  8.88065E+03
 -3.45017E+03  1.30154E+04 -1.12651E+04  1.30561E+04 -1.76953E+04  3.56329E+03 -1.72818E+04 -6.85088E+03
 -8.47498E+03 -1.65537E+04  2.38892E+03 -1.75296E+04  9.96578E+03 -1.20249E+04  1.36804E+04 -3.01066E+03
  1.02692E+04  6.05389E+03  1.77272E+03  1.00422E+04 -4.51624E+03  5.83821E+03 -6.93374E+03 -1.26465E+03
 -3.87538E+03 -6.80244E+03  4.04423E+03 -6.92964E+03  6.50110E+03 -4.03623E+03  5.63429E+03  1.23567E+03
  3.87375E+03  3.25066E+03  1.57678E+03  3.71100E+03 -1.02306E+03  1.90871E+03  2.25452E+03 -4.01881E+02
  2.95459E+03 -8.82286E+02  7.26910E+03  2.53055E+03  3.80840E+03  8.44799E+03 -1.11228E+03  1.15209E+04
 -7.61218E+03  7.58847E+03 -1.12492E+04  2.59035E+03 -9.64435E+03 -3.81193E+03 -4.74886E+03 -6.12313E+03
  1.33769E+03 -7.65546E+03  4.31018E+03 -3.76946E+03  2.94202E+03  2.82404E+03 -1.13630E+03  5.28661E+03
 -7.97237E+03  2.91497E+03 -7.88046E+03 -3.56918E+03 -4.63326E+03 -1.00516E+04  8.02331E+02 -9.70203E+03
  5.53487E+03 -5.34323E+03  7.33225E+03 -9.05766E+02  5.26752E+03  3.08745E+03  3.27591E+00  4.85551E+03
 -3.58295E+03  1.28943E+03 -4.55092E+03 -3.64680E+03  2.32996E+03 -6.93008E+03  8.31472E+03 -5.64238E+03
  1.10816E+04  7.60640E+02  1.02752E+04  7.70352E+03  2.53540E+03  1.22870E+04 -3.92639E+03  1.10807E+04
 -9.31294E+03  5.17205E+03 -9.57790E+03 -1.61963E+03 -5.01378E+03 -6.68400E+03  1.11751E+03 -7.08485E+03
  6.21512E+03 -3.28187E+03  6.50510E+03  3.02690E+03  1.66423E+03  7.00375E+03 -1.50418E+03  4.52715E+03
 -2.34309E+03  2.50961E+03 -1.66067E+03  1.44773E+03 -1.66724E+03  1.76504E+03 -2.03061E+03  2.24260E+03
 -2.58057E+03  4.09393E+03 -7.69935E+03  3.95940E+03 -1.13863E+04  4.96137E+02 -1.23863E+04 -7.10542E+03
 -7.25480E+03 -1.51223E+04  3.39565E+03 -1.71713E+04  1.11706E+04 -1.36310E+04  1.58319E+04 -6.65146E+03
  1.56774E+04  3.07886E+03  9.28806E+03  1.15001E+04  1.82334E+02  1.19032E+04 -4.78189E+03  7.82367E+03
 -7.09764E+03  3.33538E+03 -4.48505E+03 -1.30963E+03 -2.81930E+03 -9.00641E+02 -8.37680E+02  7.25030E+01
 -1.74203E+03  1.46866E+01 -2.52267E+03  1.22690E+02 -6.28928E+02 -2.75240E+03  4.05099E+02 -5.30178E+03
  4.52879E+03 -3.63914E+03  6.33193E+03  1.18256E+02  9.05196E+03  6.55000E+03  2.44158E+03  1.18501E+04
 -5.68643E+03  1.31680E+04 -1.31545E+04  7.96242E+03 -1.43781E+04 -1.04689E+03 -1.23277E+04 -8.25295E+03
 -4.98668E+03 -1.23424E+04  3.20311E+03 -1.11453E+04  8.83876E+03 -6.31264E+03  7.88054E+03 -1.04746E+02
  4.24707E+03  4.24833E+03 -7.03704E+02  3.32364E+03 -3.21889E+03  3.44103E+02  9.76708E+02 -2.70390E+03
  3.25151E+03 -2.40076E+03  5.10597E+03  1.85327E+03  3.02501E+03  5.15636E+03  6.33536E+01  7.29086E+03
 -5.40181E+03  5.66277E+03 -8.68541E+03  9.84412E+02 -7.01208E+03 -5.53070E+03 -1.74507E+03 -1.00490E+04
  5.41901E+03 -8.96749E+03  9.55240E+03 -2.47498E+03  9.31911E+03  2.89921E+03  4.80391E+03  7.98477E+03
  1.96152E+03  9.15810E+03 -3.34763E+03  5.70860E+03 -4.55797E+03  3.02874E+03 -4.79870E+03  2.90071E+02
 -2.24904E+03  1.56363E+02 -2.19696E+03  1.05093E+03 -4.30056E+03  1.79198E+03 -5.35630E+03 -7.27820E+02
 -6.52911E+03 -4.52963E+03 -9.26240E+02 -7.74124E+03  4.18911E+03 -8.88898E+03  6.81360E+03 -3.52083E+03
  8.30179E+03  1.41134E+03  4.01996E+03  6.21898E+03 -1.53151E+03  8.74608E+03 -6.64856E+03  5.41010E+03
