 $NMID ID='MM_0lb_SNR400_14hz_g55_24.RAW', FMTDAT='(8E13.5)'
 TRAMP=1., VOLUME=1. $END
  3.09323E+05  7.30336E+02  3.37841E+05  2.50447E+05  8.49059E+04  3.38040E+05 -1.32733E+05  2.51283E+05
 -1.90142E+05  8.38543E+04 -1.11765E+05 -3.17171E+04  1.20451E+03 -4.98777E+04  5.36793E+04 -7.80540E+01
  3.46250E+04  5.30196E+04 -1.70294E+04  7.56010E+04 -6.08802E+04  6.36000E+04 -8.45958E+04  3.16933E+04
 -8.12723E+04 -1.11510E+04 -5.73523E+04 -5.14001E+04 -1.50220E+04 -6.98257E+04  2.83330E+04 -4.61951E+04
  4.01580E+04  4.03360E+03  1.60689E+04  4.82959E+04 -3.47151E+04  4.74960E+04 -6.67004E+04 -2.72275E+02
 -5.32401E+04 -5.61049E+04 -6.26041E+03 -7.78152E+04  3.42070E+04 -5.50968E+04  4.86225E+04 -1.72487E+04
  4.35896E+04  1.08106E+04  3.21975E+04  2.48660E+04  1.58429E+04  2.95974E+04 -5.06060E+03  2.76410E+04
 -2.14227E+04  1.18754E+04 -1.81469E+04 -5.39329E+03  6.63829E+03 -7.19732E+03  2.25872E+04  1.24957E+04
  7.69771E+03  3.59061E+04 -3.28758E+04  3.58340E+04 -6.36748E+04  1.81946E+03 -5.66607E+04 -4.35127E+04
 -1.22227E+04 -6.36217E+04  4.01334E+04 -4.55614E+04  5.99068E+04 -2.63245E+03  3.43094E+04  3.22470E+04
 -6.46638E+03  3.66592E+04 -3.02602E+04  1.60191E+04 -3.13913E+04 -4.61234E+03 -1.72549E+04 -1.09685E+04
 -8.57433E+03 -1.35751E+04 -7.05944E+02 -1.83762E+04  8.09606E+03 -2.34552E+04  1.53175E+04 -1.27806E+04
  1.16814E+04  5.45905E+03 -8.64054E+03  1.29499E+04 -2.17948E+04 -4.95033E+03 -8.27525E+03 -3.44827E+04
  2.26923E+04 -4.38783E+04  4.85696E+04 -2.00092E+04  4.59751E+04  1.98457E+04  1.61970E+04  4.45738E+04
 -1.54933E+04  3.40849E+04 -2.52126E+04  2.10545E+03 -1.09022E+04 -2.79434E+04  2.07534E+04 -3.39319E+04
  4.18368E+04 -9.82113E+03  3.67727E+04  2.43143E+04  1.85660E+04  4.74708E+04 -8.37334E+03  5.14750E+04
 -3.21935E+04  3.48658E+04 -4.28755E+04  9.47249E+03 -4.43191E+04 -1.69695E+04 -2.37426E+04 -3.82989E+04
  7.45952E+03 -3.85450E+04  3.22589E+04 -1.53912E+04  2.95762E+04  1.09005E+04  3.80913E+03  1.95886E+04
 -1.34346E+04  8.60866E+03 -9.94372E+03 -7.61248E+03  6.15136E+03 -1.13243E+04  1.85635E+04  5.81168E+03
  1.30871E+04  2.13669E+04 -6.41259E+03  2.62188E+04 -2.25071E+04  1.19141E+04 -2.86312E+04 -4.39249E+03
 -2.09188E+04 -1.74153E+04 -9.09982E+03 -2.11559E+04  3.47852E+03 -2.07394E+04  1.66679E+04 -1.90946E+04
  2.68017E+04 -1.38492E+04  3.28709E+04  3.24431E+03  2.45519E+04  2.04805E+04  4.97739E+03  3.75346E+04
 -1.85405E+04  3.10770E+04 -2.81220E+04  1.06629E+04 -2.17613E+04 -1.08085E+04 -4.10889E+03 -1.35384E+04
  1.85530E+03 -2.50229E+03 -5.79798E+03  7.03032E+03 -1.69675E+04  5.00072E+03 -1.70363E+04 -7.61438E+03
 -1.07046E+04 -1.90531E+04  5.89352E+03 -2.38454E+04  1.57572E+04 -1.76091E+04  1.88790E+04 -1.84905E+03
  1.19844E+04  1.40030E+04 -1.18949E+03  1.91092E+04 -1.36370E+04  1.07216E+04 -1.93973E+04 -4.28258E+03
 -1.44951E+04 -1.80616E+04 -1.56155E+03 -2.37794E+04  1.04664E+04 -1.95157E+04  1.98475E+04 -1.01380E+04
  1.79924E+04  1.31634E+02  1.26354E+04  4.94399E+03  6.84378E+03  1.16692E+03  9.51667E+03 -5.46189E+02
  1.89224E+04  2.94782E+03  2.04790E+04  1.52835E+04  1.27927E+04  3.14373E+04 -2.13546E+03  3.58480E+04
 -2.04423E+04  2.83484E+04 -3.27561E+04  1.51509E+04 -3.46039E+04 -2.38286E+03 -2.88408E+04 -1.99001E+04
 -1.21639E+04 -2.84743E+04  1.01269E+04 -2.59870E+04  2.23410E+04 -1.28946E+04  1.97693E+04  5.93502E+03
  7.02221E+03  1.54213E+04 -9.25988E+03  1.27722E+04 -1.66029E+04  2.89075E+03 -1.25664E+04 -1.02070E+04
 -4.12668E+02 -1.57796E+04  8.13646E+03 -1.14261E+04  1.03773E+04 -1.98557E+03  2.24889E+03  6.60358E+03
 -7.50152E+03  2.95982E+03 -6.75049E+03 -5.19868E+03  2.68624E+02 -1.33971E+04  9.24808E+03 -1.49907E+04
  1.75562E+04 -8.69673E+03  1.89784E+04  3.05648E+03  1.63584E+04  1.37422E+04  8.12188E+03  2.13600E+04
 -3.26347E+03  2.29846E+04 -1.45165E+04  1.42844E+04 -1.72994E+04  3.15414E+03 -1.19132E+04 -3.41120E+03
 -4.94011E+03 -5.16960E+03 -1.09185E+03  6.84501E+02 -2.64103E+03  2.13993E+03 -5.26671E+03  4.17647E+03
 -1.11592E+04 -1.07073E+03 -1.18315E+04 -9.50898E+03 -5.07065E+03 -1.46795E+04  4.91001E+03 -1.23049E+04
  1.02584E+04 -5.24580E+03  6.77032E+03  3.12765E+03 -1.05019E+02  4.30939E+03 -5.57916E+03 -4.50646E+02
 -4.92660E+03 -7.78746E+03 -5.67930E+02 -1.10794E+04  6.48814E+03 -1.14939E+04  1.49422E+04 -6.73820E+03
  1.73512E+04  1.28902E+03  1.24881E+04  9.73153E+03  3.05244E+03  1.33700E+04 -7.32352E+03  1.18765E+04
 -1.00175E+04  3.87590E+03 -5.50242E+03 -2.06093E+03  1.83623E+03 -3.50818E+03  6.23640E+03 -1.52458E+03
  5.11018E+03  5.32812E+03  1.11113E+03  8.83985E+03 -6.82314E+03  8.62534E+03 -1.19672E+04  2.30289E+03
 -6.82099E+03 -5.70695E+03  1.01141E+02 -9.58013E+03  6.50625E+03 -5.04475E+03  5.96953E+03  2.22361E+03
  1.28135E+03  6.43166E+03 -6.26307E+03  7.98041E+03 -9.13755E+03  3.17932E+03 -8.76353E+03 -2.19678E+03
 -4.55280E+03 -1.05640E+04  2.31360E+03 -1.18744E+04  1.00751E+04 -7.09152E+03  1.11211E+04  1.62422E+03
  6.64460E+03  8.67593E+03 -1.57119E+02  1.05965E+04 -7.90315E+03  5.92634E+03 -8.90916E+03 -7.63454E+02
 -7.73938E+03 -7.23204E+03 -1.24532E+03 -7.83493E+03  4.11985E+03 -6.41844E+03  4.96037E+03 -3.70136E+03
  3.14368E+03  1.49639E+03 -8.32804E+02  1.94520E+03 -5.15003E+01 -1.44218E+03  1.59389E+03 -4.31063E+03
  7.31926E+03 -2.29201E+03  9.10816E+03  6.95871E+02  9.67534E+03  6.71735E+03  7.34551E+03  1.30919E+04
 -2.53661E+03  1.52645E+04 -1.27871E+04  1.11851E+04 -1.66638E+04  1.48746E+03 -1.32577E+04 -5.20128E+03
 -6.85482E+03 -1.07001E+04 -1.55369E+02 -8.87019E+03  4.02141E+03 -4.13217E+03  3.03452E+03 -3.70062E+03
  2.54396E+03 -1.60375E+03  2.22521E+03 -2.83028E+03  4.26390E+03 -2.21258E+03  5.53374E+03 -4.65320E+02
  7.01006E+03  1.28022E+03  3.34216E+03  5.59432E+03 -2.00333E+03  5.99219E+03 -6.85129E+03  4.85866E+03
 -9.36585E+03 -6.81351E+02 -4.75958E+03 -5.81166E+03 -4.60873E+02 -9.59633E+03  5.52156E+03 -9.52832E+03
  9.27467E+03 -5.54832E+03  1.18564E+04  1.34044E+03  8.41872E+03  8.02683E+03  1.98898E+03  1.07609E+04
 -3.83021E+03  9.01428E+03 -6.37153E+03  2.81496E+03 -4.19031E+03 -1.30516E+03 -1.76182E+03 -9.95511E+02
 -3.36784E+02 -3.81236E+01 -1.00017E+03  2.32237E+03 -3.48090E+03  1.47690E+03 -6.49343E+03 -5.78335E+02
 -3.82891E+03 -6.15423E+03  7.61865E+01 -8.63105E+03  5.29362E+03 -7.48738E+03  8.27304E+03 -2.18837E+03
  7.88739E+03  4.34348E+03  4.09207E+03  7.69589E+03 -1.68219E+03  8.71377E+03 -5.29554E+03  4.96564E+03
 -7.31612E+03  8.13965E+02 -6.36596E+03 -4.94480E+03 -8.34189E+02 -6.69249E+03  3.75536E+03 -5.36681E+03
  4.67570E+03 -1.93718E+03  3.31222E+03  1.12185E+03  1.23640E+03  2.89328E+03  1.06745E+03  1.20783E+03
  1.85488E+03  8.61212E+02  2.28793E+03  1.14527E+03  1.92662E+03  3.28622E+03  2.72198E+03  3.80102E+03
 -1.44986E+03  6.68780E+03 -5.81097E+03  6.96067E+03 -7.40387E+03  1.95417E+03 -8.13977E+03 -2.27677E+03
 -3.83945E+03 -8.31873E+03  1.23292E+03 -9.47422E+03  4.43536E+03 -5.79999E+03  5.47877E+03 -2.12576E+03
  5.73980E+03  3.13896E+03  5.61875E+02  4.43578E+03 -2.10786E+03  2.27566E+03 -3.02809E+03 -4.66688E+02
 -1.37018E+03 -3.61361E+03  1.74368E+03 -3.03639E+03  2.64357E+03 -1.56775E+03  2.76147E+03  1.11490E+03
  1.50797E+03  1.13423E+03  1.27446E+03  1.12039E+03 -7.08113E+02  1.17083E+03  1.41790E+03 -5.21834E+02
  1.25540E+03 -4.82942E+02  4.08696E+03  1.44908E+03  1.75464E+03  4.04104E+03 -1.83870E+02  5.03892E+03
 -3.06366E+03  3.65255E+03 -5.01328E+03  5.23730E+02 -3.84620E+03 -1.72786E+03 -1.50731E+03 -2.97571E+03
  1.31931E+03 -2.78748E+03  2.39405E+03 -1.76234E+03  1.46761E+03  2.24252E+03 -1.34164E+03  2.22661E+03
 -2.98697E+03  1.00172E+03 -3.60391E+03 -1.23575E+03 -1.93166E+03 -3.83928E+03  6.82149E+02 -3.78271E+03
  1.51674E+03 -2.54470E+03  2.17661E+03 -2.92894E+02  2.78598E+03  5.03851E+02  4.70028E+02  2.02872E+03
 -9.90133E+02  4.52902E+02 -2.47531E+03 -8.64863E+02  6.59531E+02 -2.83245E+03  3.14320E+03 -2.51084E+03
  4.81255E+03 -2.91939E-01  4.63932E+03  2.88555E+03  2.06962E+03  4.05476E+03 -4.03262E+02  4.32904E+03
 -3.18303E+03  1.65993E+03 -3.66129E+03 -6.32606E+02 -1.98160E+03 -2.88649E+03  1.00211E+03 -2.53310E+03
  3.52851E+03 -1.23444E+03  2.71750E+03  1.11155E+03  9.49197E+02  2.50948E+03  8.12271E+01  2.39813E+03
 -1.19662E+03  2.44518E+03 -1.92303E+03  4.83369E+02 -4.04111E+02  2.33027E+02 -5.07718E+02  2.80207E+02
 -1.59853E+03  1.86332E+03 -3.90337E+03  9.40656E+02 -4.30783E+03  5.25295E+02 -5.22719E+03 -2.69779E+03
 -2.22998E+03 -5.62656E+03  1.12934E+03 -6.68748E+03  3.43808E+03 -5.30404E+03  6.61515E+03 -1.74717E+03
  5.94532E+03  6.10590E+02  3.37729E+03  4.16769E+03  8.65795E+01  3.74415E+03 -1.18318E+03  2.89766E+03
 -2.42142E+03  9.06107E+02 -8.69007E+02 -4.30091E+02 -6.08712E+02  9.13703E+02 -1.97424E+02  8.31293E+02
 -7.15901E+02  1.71320E+02 -1.13656E+03  2.47218E+02  1.47766E+01 -1.49295E+03 -1.34480E+02 -1.52622E+03
  2.03772E+03 -1.49950E+03  2.37095E+03  2.89906E+02  3.31526E+03  2.48968E+03  6.33866E+02  4.30054E+03
 -2.18469E+03  4.87926E+03 -3.93602E+03  3.01869E+03 -4.81872E+03 -3.53449E+02 -4.29980E+03 -3.58697E+03
 -1.81868E+03 -3.95373E+03  8.60501E+02 -3.69128E+03  2.19270E+03 -1.92514E+03  1.90913E+03  7.71021E+02
  1.30876E+03  1.21420E+03 -4.28633E+01  2.64638E+02 -3.99943E+02 -1.09705E+02 -1.89878E+02 -9.75392E+02
  1.34110E+03 -8.30393E+02  1.40412E+03  8.55258E+02  1.05680E+03  1.05166E+03  5.23446E+02  2.07906E+03
 -1.48061E+03  1.82702E+03 -2.78031E+03  1.87669E+02 -2.64073E+03 -1.34367E+03 -1.13989E+02 -3.09990E+03
  1.23313E+03 -2.72154E+03  2.51855E+03 -6.40353E+02  2.59920E+03  4.52320E+02  1.00792E+03  2.20884E+03
  3.56311E+02  2.14022E+03 -5.70633E+02  1.76033E+03 -1.97628E+03  1.42658E+03 -9.58785E+02  1.63105E+02
 -4.32130E+02 -1.55036E+02 -1.28848E+03  2.02416E+02 -1.54699E+03 -2.40158E+02 -1.76962E+03 -7.68893E+02
 -2.15480E+03 -1.06361E+03 -9.01166E+02 -2.77042E+03  7.41368E+02 -3.42706E+03  2.03543E+03 -1.56650E+03
  2.85114E+03  1.97921E+02  9.63675E+02  1.71904E+03  4.33174E+01  1.86234E+03 -1.26825E+03  2.25217E+03
