 $NMID ID='MM_0lb_SNR400_20hz_g60_39.RAW', FMTDAT='(8E13.5)'
 TRAMP=1., VOLUME=1. $END
  3.10232E+05  7.21467E+02  3.36912E+05  2.50473E+05  8.43207E+04  3.37552E+05 -1.32331E+05  2.51011E+05
 -1.90280E+05  8.28322E+04 -1.11347E+05 -3.26133E+04  1.28749E+03 -5.03035E+04  5.36098E+04 -4.56243E+01
  3.50811E+04  5.31396E+04 -1.69158E+04  7.53998E+04 -6.05670E+04  6.23532E+04 -8.31404E+04  3.17803E+04
 -8.04293E+04 -1.05680E+04 -5.67865E+04 -4.98124E+04 -1.51372E+04 -6.93060E+04  2.74200E+04 -4.48416E+04
  3.96456E+04  3.84916E+03  1.59249E+04  4.72432E+04 -3.46265E+04  4.68869E+04 -6.58505E+04 -7.35350E+02
 -5.27540E+04 -5.61701E+04 -5.98836E+03 -7.55395E+04  3.30710E+04 -5.37186E+04  4.71963E+04 -1.70229E+04
  4.17244E+04  1.17209E+04  3.09078E+04  2.53313E+04  1.60706E+04  2.90610E+04 -5.13529E+03  2.69275E+04
 -2.15089E+04  1.26478E+04 -1.90604E+04 -4.36361E+03  4.99621E+03 -7.53798E+03  2.15537E+04  1.12072E+04
  7.32045E+03  3.40248E+04 -3.10612E+04  3.42150E+04 -6.22682E+04  1.79973E+03 -5.62133E+04 -4.13133E+04
 -1.27465E+04 -6.14248E+04  3.86352E+04 -4.44440E+04  5.61423E+04 -2.24352E+03  3.20647E+04  3.14480E+04
 -6.37247E+03  3.40038E+04 -2.94738E+04  1.47405E+04 -2.87762E+04 -4.94446E+03 -1.50291E+04 -1.06249E+04
 -7.95114E+03 -1.23262E+04 -1.49700E+03 -1.73896E+04  6.94183E+03 -2.28320E+04  1.49940E+04 -1.35746E+04
  1.26507E+04  4.60989E+03 -7.03561E+03  1.29094E+04 -2.02412E+04 -3.14138E+03 -8.04889E+03 -3.12799E+04
  2.11934E+04 -4.12211E+04  4.54871E+04 -1.93626E+04  4.27728E+04  1.83630E+04  1.44654E+04  4.23675E+04
 -1.49081E+04  3.18362E+04 -2.35704E+04  1.30860E+03 -8.96256E+03 -2.67285E+04  2.07401E+04 -3.16628E+04
  3.87668E+04 -7.61304E+03  3.28071E+04  2.30896E+04  1.57841E+04  4.35312E+04 -7.53276E+03  4.58893E+04
 -2.93121E+04  3.05113E+04 -3.86832E+04  8.66018E+03 -3.91206E+04 -1.54813E+04 -2.18151E+04 -3.52453E+04
  6.62918E+03 -3.49048E+04  3.00727E+04 -1.30342E+04  2.73218E+04  1.09580E+04  3.08484E+03  1.80729E+04
 -1.33044E+04  7.46431E+03 -9.66059E+03 -7.92834E+03  6.40288E+03 -9.72987E+03  1.72625E+04  6.80881E+03
  1.25982E+04  2.18756E+04 -6.31895E+03  2.38419E+04 -2.15377E+04  9.57088E+03 -2.57791E+04 -5.98692E+03
 -1.73029E+04 -1.63421E+04 -6.07276E+03 -1.73690E+04  3.58534E+03 -1.57188E+04  1.37668E+04 -1.50402E+04
  2.18124E+04 -1.16250E+04  2.85952E+04  1.27279E+03  2.16922E+04  1.71282E+04  3.88150E+03  3.26910E+04
 -1.61835E+04  2.80722E+04 -2.60762E+04  9.38394E+03 -2.00690E+04 -1.04831E+04 -4.55757E+03 -1.40116E+04
  2.86581E+03 -3.78503E+03 -3.00267E+03  5.34546E+03 -1.34739E+04  5.57795E+03 -1.37382E+04 -5.25503E+03
 -8.89231E+03 -1.57784E+04  4.49213E+03 -1.95269E+04  1.28441E+04 -1.46910E+04  1.52709E+04 -1.50343E+03
  9.60334E+03  1.17218E+04 -1.67696E+03  1.58583E+04 -1.06380E+04  9.03088E+03 -1.56503E+04 -3.19879E+03
 -1.17295E+04 -1.44070E+04 -1.50260E+03 -1.91342E+04  8.61588E+03 -1.56304E+04  1.65237E+04 -7.05819E+03
  1.39772E+04  1.02169E+03  1.08407E+04  3.94428E+03  5.37470E+03  5.73590E+02  7.90783E+03 -1.03577E+03
  1.43075E+04  2.65632E+03  1.48822E+04  1.29748E+04  9.32506E+03  2.47421E+04 -3.12477E+03  2.69402E+04
 -1.66122E+04  2.04648E+04 -2.46863E+04  9.83853E+03 -2.52087E+04 -2.07492E+03 -2.15057E+04 -1.41521E+04
 -1.05584E+04 -2.07767E+04  7.05236E+03 -1.95022E+04  1.71238E+04 -1.10398E+04  1.55047E+04  3.34244E+03
  6.75291E+03  1.15199E+04 -6.86911E+03  1.02663E+04 -1.31922E+04  2.23121E+03 -1.03609E+04 -8.20495E+03
 -2.47277E+02 -1.24263E+04  5.63646E+03 -9.33302E+03  7.87363E+03 -1.53090E+03  1.56313E+03  4.67045E+03
 -5.53995E+03  9.32453E+02 -3.80108E+03 -3.61424E+03  7.39163E+02 -1.04027E+04  7.75625E+03 -1.04265E+04
  1.19814E+04 -4.21422E+03  1.19589E+04  2.67558E+03  1.02429E+04  9.62651E+03  4.71762E+03  1.37243E+04
 -1.38684E+03  1.58326E+04 -9.62983E+03  9.79883E+03 -1.13838E+04  2.65159E+03 -8.34194E+03 -1.91103E+03
 -4.47475E+03 -2.80607E+03 -9.96970E+02  1.32735E+03 -1.66157E+03  2.32162E+03 -3.33368E+03  3.88157E+03
 -8.04868E+03 -7.21840E+01 -8.86941E+03 -7.16944E+03 -3.21872E+03 -1.11862E+04  3.48990E+03 -8.14906E+03
  7.11259E+03 -3.59056E+03  5.13567E+03  2.26869E+03  5.43417E+02  2.83660E+03 -3.43182E+03 -2.50733E+02
 -3.18482E+03 -4.81155E+03 -5.25559E+02 -7.18179E+03  3.92627E+03 -7.32984E+03  9.66687E+03 -3.73060E+03
  1.09410E+04  5.63662E+02  8.54994E+03  5.46928E+03  1.53960E+03  8.46768E+03 -5.05938E+03  8.08019E+03
 -6.34878E+03  2.93537E+03 -3.93747E+03 -1.01174E+03  1.43995E+03 -1.88899E+03  4.84251E+03 -9.31230E+02
  4.22331E+03  3.39615E+03  1.16013E+03  6.22937E+03 -4.40169E+03  5.92727E+03 -7.52789E+03  1.80038E+03
 -4.81781E+03 -3.60833E+03  4.53916E+02 -6.28335E+03  3.19513E+03 -2.99687E+03  3.42832E+03  6.25714E+02
  8.78050E+02  3.11769E+03 -3.85080E+03  4.21558E+03 -4.61601E+03  2.86988E+03 -4.26546E+03 -5.09383E+02
 -2.75133E+03 -5.19826E+03  8.49650E+02 -6.13069E+03  5.74074E+03 -4.63061E+03  6.17597E+03  1.23987E+03
  4.50286E+03  5.14934E+03  3.15425E+02  7.10549E+03 -4.54654E+03  4.19880E+03 -5.03204E+03 -2.01528E+02
 -4.88416E+03 -5.01910E+03 -1.70010E+03 -5.30672E+03  2.61444E+03 -4.11389E+03  2.81847E+03 -2.43063E+03
  2.72898E+03  2.79538E+01  6.21427E+02  1.98228E+03  1.09483E+03  6.14863E+02  8.47251E+01 -1.64550E+03
  3.06275E+03 -3.53313E+02  4.76681E+03  6.44524E+02  4.69959E+03  2.28840E+03  5.29881E+03  6.24335E+03
 -1.46418E+03  7.66425E+03 -6.77560E+03  5.83609E+03 -8.90527E+03  1.22723E+03 -7.24528E+03 -1.94674E+03
 -3.85513E+03 -5.60167E+03 -6.47928E+01 -4.30010E+03  1.74714E+03 -2.05378E+03  9.19851E+02 -1.93111E+03
  1.29803E+03 -1.57182E+03  1.63010E+03 -2.07037E+03  3.81409E+03 -1.25635E+03  3.87831E+03  2.04760E+02
  4.37056E+03  6.77899E+02  1.33631E+03  2.34287E+03 -1.55202E+03  2.87203E+03 -3.82760E+03  1.82470E+03
 -4.26660E+03 -1.38109E+03 -1.52930E+03 -2.83216E+03  9.46609E+02 -3.92933E+03  2.76576E+03 -5.04923E+03
  4.63560E+03 -2.86798E+03  5.44898E+03 -1.35875E+02  4.52042E+03  3.17954E+03  1.16571E+03  5.07597E+03
 -1.81771E+03  5.17864E+03 -2.91384E+03  1.49294E+03 -1.60837E+03 -6.41506E+02 -7.24897E+01 -1.84663E+02
 -5.40812E+02  5.82877E+02 -7.65211E+02  1.91171E+03 -1.96492E+03  8.79301E+02 -4.05587E+03 -3.28597E+02
 -1.07770E+03 -3.86981E+03  1.44333E+03 -4.22121E+03  2.70095E+03 -3.87825E+03  3.16381E+03 -7.66120E+02
  3.20797E+03  2.22590E+03  1.21761E+03  2.28821E+03 -9.11333E+02  3.90043E+03 -2.25848E+03  2.44213E+03
 -3.19995E+03  6.47695E+02 -2.69159E+03 -2.06673E+03  6.64522E+00 -2.89462E+03  1.10303E+03 -2.33745E+03
  2.14489E+03 -1.02403E+03  1.32670E+03  2.08486E+02  5.68891E+02  1.03566E+03  4.91822E+02  4.41552E+02
  1.64791E+03  6.63471E+02  8.70228E+02  6.33015E+02  1.46721E+03  1.28959E+03  1.38493E+03  1.33774E+03
 -1.53762E+03  2.30592E+03 -1.61732E+03  3.31770E+03 -2.29835E+03  1.35343E+03 -3.71661E+03  9.76934E+01
 -1.22052E+03 -3.11942E+03  8.68726E+02 -3.90814E+03  1.39165E+03 -2.30002E+03  2.19644E+03 -1.09055E+03
  2.25794E+03  1.41924E+03 -3.65347E+02  1.57010E+03 -5.27186E+02  1.19416E+03 -6.63642E+02  3.63017E+02
 -6.03158E+02 -1.26441E+03  1.03882E+03 -1.23976E+03  4.62626E+02 -8.89825E+02  1.40613E+03  5.50836E+02
  4.62111E+02  5.18159E+02  9.92285E+02 -4.95075E+02 -2.23715E+02  8.19519E+02  1.31924E+03 -1.39044E+02
  1.04457E+02 -5.88035E+02  1.63123E+03  8.09041E+02 -1.38752E+02  1.60327E+03 -2.63437E+02  1.97556E+03
 -1.23308E+03  3.86096E+02 -1.26673E+03  5.84675E+02 -1.63247E+03 -8.24886E+02 -1.93200E+02 -8.50249E+02
  7.05875E+02 -1.10227E+03  7.83971E+02 -8.93161E+02  1.00102E+03  1.70023E+03 -8.44090E+02  3.72329E+02
 -6.20385E+02  2.30106E+02 -1.17282E+03 -8.17208E+02 -1.37121E+02 -1.50899E+03 -1.56072E+02 -1.49736E+03
 -1.21206E+02 -5.69530E+02  4.14470E+02  4.04581E+01  1.06400E+03  1.18887E+02  7.62072E+00  3.61139E+02
  1.73554E+02 -4.99629E+02 -5.35784E+02  4.33877E+02  5.30205E+02 -1.00355E+03  1.49824E+03 -6.09658E+02
  5.60427E+02  2.14921E+01  2.40623E+03  1.68962E+01  7.56426E+02  4.54430E+02 -4.70871E+01  1.80094E+03
 -8.87236E+02  2.02256E+02 -9.29563E+02 -2.47497E+01 -5.89020E+02 -1.22824E+03  5.67341E+02  1.92871E+02
  8.69949E+02 -1.83472E+02 -5.64086E+00  5.34785E+02  6.23323E+02  1.06531E+03  1.17021E+02  7.43066E+02
 -2.57949E+02  5.29117E+02  3.26915E+02  6.74715E+01 -1.43853E+01  5.83208E+02 -8.33474E+02  3.38258E+02
 -5.80469E+02  8.99007E+02 -1.60867E+03  2.55099E+02 -9.49693E+02  1.05559E+02 -1.39733E+03 -4.02630E+02
 -4.97840E+02 -1.55840E+03  1.36549E+02 -2.05393E+03  3.77142E+02 -2.57599E+03  1.67342E+03 -8.64225E+02
  2.05427E+03 -1.62018E+02  3.09116E+02  5.82448E+02 -7.87283E+02  6.29740E+02 -6.46822E+02  1.04627E+03
 -9.87234E+02  5.56898E+02 -1.22883E+02  4.65664E+01 -6.84303E+02  5.76869E+02 -5.41790E+02  2.00548E+01
 -9.95313E+02 -3.41930E+02 -5.70944E+02  2.32930E+02  2.57923E+02 -4.31622E+02  1.86407E+02 -1.04702E+03
  1.33555E+03 -6.60243E+02  2.95225E+02  3.22924E+02  1.13208E+03  7.16196E+02 -5.75843E+01  8.23450E+02
 -6.51219E+02  1.49612E+03 -1.02788E+03  5.67484E+02 -1.31903E+03 -3.94916E+02 -4.66352E+02 -4.56508E+02
 -7.33283E+02 -8.75322E+02  6.95548E+02 -9.88419E+02  6.17555E+01 -3.78681E+02  4.62461E+02 -3.07464E+02
  2.44662E+02  9.41694E+01  1.59276E+02  3.29299E+02 -7.02743E+02  6.74575E+02  9.56762E+01 -6.89639E+01
 -8.68259E+01  3.56168E+02  4.16387E+02  2.22952E+02 -8.85748E+01  2.73801E+02  3.13150E+01 -4.22436E+02
 -2.94058E+02  2.04485E+02 -3.36208E+02  2.57672E+02 -5.14550E+02 -2.44156E+02  2.22077E+02 -4.08232E+02
  5.07500E+02 -8.02875E+02 -1.03882E+02 -7.71079E+01  3.83833E+02 -1.00759E+03  4.77049E+02  1.12144E+03
  4.95686E+02  1.78705E+02  1.44696E+01  2.43535E+01  1.82877E+02  6.40460E+02 -3.69800E+02  4.74187E+02
 -2.90103E+02 -3.77969E+02  2.48517E+02  4.43484E+01 -4.73834E+02 -3.03547E+02 -3.65588E+02 -6.02934E+02
 -6.01137E+02  1.07078E+02 -5.00615E+02 -5.95466E+02  5.34902E+02 -1.62497E+03  4.06516E+02 -4.59568E+02
  3.43965E+02  1.69312E+02 -1.44456E+02 -1.82047E+01  7.88508E+01  2.25387E+02  2.63184E+02  1.05997E+03
