 $NMID ID='MM_0lb_SNR400_13hz_g45_63.RAW', FMTDAT='(8E13.5)'
 TRAMP=1., VOLUME=1. $END
  3.10028E+05  7.23676E+02  3.37775E+05  2.51078E+05  8.44546E+04  3.38118E+05 -1.32484E+05  2.51063E+05
 -1.90262E+05  8.32164E+04 -1.11989E+05 -3.27810E+04  8.27770E+02 -5.04932E+04  5.38108E+04  1.05869E+02
  3.50753E+04  5.28644E+04 -1.68391E+04  7.59680E+04 -6.06891E+04  6.35558E+04 -8.41979E+04  3.25162E+04
 -8.05943E+04 -1.14793E+04 -5.70190E+04 -5.13413E+04 -1.50183E+04 -6.94183E+04  2.78448E+04 -4.54118E+04
  4.02866E+04  4.30059E+03  1.56103E+04  4.74879E+04 -3.47664E+04  4.76418E+04 -6.66215E+04 -3.50737E+02
 -5.36769E+04 -5.73966E+04 -6.55854E+03 -7.71155E+04  3.41267E+04 -5.60500E+04  4.83059E+04 -1.75994E+04
  4.37173E+04  1.13402E+04  3.14552E+04  2.53183E+04  1.58916E+04  3.02803E+04 -5.29192E+03  2.73359E+04
 -2.15747E+04  1.24292E+04 -1.89452E+04 -5.00429E+03  6.28528E+03 -6.99989E+03  2.21184E+04  1.23936E+04
  7.08947E+03  3.54745E+04 -3.22593E+04  3.58995E+04 -6.33993E+04  1.90669E+03 -5.77165E+04 -4.32855E+04
 -1.24631E+04 -6.34834E+04  4.01563E+04 -4.54732E+04  5.89709E+04 -2.30885E+03  3.43098E+04  3.21115E+04
 -5.85667E+03  3.61710E+04 -3.07214E+04  1.67467E+04 -3.04799E+04 -4.40139E+03 -1.69333E+04 -1.11432E+04
 -8.63996E+03 -1.39275E+04 -1.03601E+03 -1.87496E+04  7.72678E+03 -2.26875E+04  1.60330E+04 -1.33858E+04
  1.11260E+04  5.10981E+03 -8.36814E+03  1.33389E+04 -2.12994E+04 -5.02786E+03 -8.29013E+03 -3.36802E+04
  2.25749E+04 -4.37837E+04  4.82712E+04 -1.93442E+04  4.51454E+04  1.98957E+04  1.56508E+04  4.43610E+04
 -1.57619E+04  3.35880E+04 -2.51379E+04  2.15410E+03 -1.01554E+04 -2.76431E+04  2.09557E+04 -3.42313E+04
  4.15753E+04 -9.15804E+03  3.54411E+04  2.37752E+04  1.84679E+04  4.63345E+04 -8.27697E+03  5.01818E+04
 -3.18749E+04  3.45253E+04 -4.25776E+04  9.90732E+03 -4.28377E+04 -1.68217E+04 -2.39664E+04 -3.83238E+04
  7.77512E+03 -3.77307E+04  3.21672E+04 -1.50543E+04  2.99333E+04  1.10110E+04  4.11985E+03  1.92303E+04
 -1.44575E+04  7.94894E+03 -1.03247E+04 -7.21030E+03  5.63808E+03 -1.04247E+04  1.78275E+04  5.96825E+03
  1.37574E+04  2.23706E+04 -6.05182E+03  2.55010E+04 -2.27017E+04  1.14756E+04 -2.88207E+04 -4.64089E+03
 -2.09662E+04 -1.67022E+04 -8.30299E+03 -2.02786E+04  3.70013E+03 -2.01389E+04  1.62802E+04 -1.94743E+04
  2.60372E+04 -1.29765E+04  3.29233E+04  2.57700E+03  2.42847E+04  2.03310E+04  3.96561E+03  3.74288E+04
 -1.78335E+04  3.09226E+04 -2.82213E+04  1.08373E+04 -2.09689E+04 -1.02200E+04 -4.42265E+03 -1.34348E+04
  1.83948E+03 -2.55713E+03 -5.45931E+03  6.54002E+03 -1.70403E+04  5.14283E+03 -1.71417E+04 -7.00172E+03
 -1.02229E+04 -1.93345E+04  5.11675E+03 -2.33244E+04  1.44204E+04 -1.68122E+04  1.88741E+04 -1.56091E+03
  1.17092E+04  1.32918E+04 -6.44980E+02  1.91783E+04 -1.37291E+04  1.13214E+04 -1.97151E+04 -3.39966E+03
 -1.46178E+04 -1.73862E+04 -1.45189E+03 -2.35994E+04  1.05899E+04 -1.93708E+04  1.95392E+04 -9.48835E+03
  1.85646E+04  2.19545E+02  1.30936E+04  4.55505E+03  7.32743E+03  1.22087E+03  1.00282E+04 -1.74484E+03
  1.77473E+04  2.40317E+03  2.00418E+04  1.56863E+04  1.35158E+04  3.08743E+04 -3.28322E+03  3.54743E+04
 -2.02975E+04  2.85836E+04 -3.32882E+04  1.40298E+04 -3.53239E+04 -2.57892E+03 -2.80749E+04 -1.99944E+04
 -1.18885E+04 -2.89102E+04  9.75122E+03 -2.56576E+04  2.23555E+04 -1.29778E+04  1.99873E+04  6.46626E+03
  7.21572E+03  1.46149E+04 -9.38945E+03  1.25848E+04 -1.66837E+04  2.84159E+03 -1.23121E+04 -1.05225E+04
  2.74882E+01 -1.55048E+04  8.60403E+03 -1.16179E+04  1.00616E+04 -8.79178E+02  2.46437E+03  7.30161E+03
 -7.71333E+03  2.95628E+03 -6.12815E+03 -5.95858E+03 -2.56635E+02 -1.47857E+04  9.36430E+03 -1.44266E+04
  1.78526E+04 -7.15852E+03  1.91629E+04  2.89418E+03  1.65531E+04  1.34236E+04  7.47082E+03  2.15996E+04
 -4.10763E+03  2.32408E+04 -1.39513E+04  1.49953E+04 -1.65416E+04  3.70674E+03 -1.17255E+04 -3.76302E+03
 -5.76772E+03 -5.06911E+03 -3.07674E+02  1.76302E+03 -2.60812E+03  3.35028E+03 -5.69009E+03  4.88975E+03
 -1.12677E+04 -8.78720E+02 -1.15006E+04 -9.11667E+03 -4.82895E+03 -1.57510E+04  4.80032E+03 -1.26515E+04
  9.84454E+03 -4.87737E+03  7.66371E+03  2.92687E+03 -1.70229E+02  4.65539E+03 -5.02092E+03  3.92221E+02
 -5.83045E+03 -7.13739E+03 -1.57898E+03 -1.10609E+04  6.25220E+03 -1.16974E+04  1.44806E+04 -5.69121E+03
  1.78621E+04  2.24540E+03  1.26649E+04  9.92655E+03  1.85519E+03  1.35678E+04 -7.60620E+03  1.15970E+04
 -9.60580E+03  3.98141E+03 -4.48773E+03 -1.97553E+03  2.41051E+03 -2.93922E+03  6.34451E+03 -1.47741E+03
  5.59632E+03  4.36487E+03  9.20717E+02  8.99634E+03 -6.02608E+03  8.99644E+03 -1.16731E+04  1.90428E+03
 -7.84963E+03 -6.18013E+03  2.43480E+02 -9.19932E+03  5.99831E+03 -4.68233E+03  5.96786E+03  2.14174E+03
  1.26216E+03  6.72797E+03 -6.20041E+03  8.21127E+03 -8.58431E+03  3.10183E+03 -8.55248E+03 -2.31890E+03
 -5.44423E+03 -1.07940E+04  2.19127E+03 -1.22941E+04  1.06705E+04 -7.69293E+03  1.14461E+04  1.76076E+03
  6.98803E+03  8.38359E+03 -9.33509E+02  1.15726E+04 -8.26592E+03  5.70957E+03 -8.44350E+03 -9.32635E+02
 -7.63503E+03 -7.74799E+03 -1.75746E+03 -8.31724E+03  4.54058E+03 -7.50867E+03  5.26060E+03 -2.76127E+03
  3.67397E+03  1.35013E+03 -6.21975E+02  1.51068E+03  2.84655E+02 -1.22380E+03  1.12467E+03 -4.58918E+03
  7.01359E+03 -2.51135E+03  1.03644E+04  1.03765E+03  1.03025E+04  6.42584E+03  6.59688E+03  1.36905E+04
 -2.98693E+03  1.50063E+04 -1.30809E+04  1.17345E+04 -1.63452E+04  1.28458E+03 -1.31810E+04 -5.26010E+03
 -6.49729E+03 -1.13931E+04 -3.62181E+01 -9.18294E+03  3.78658E+03 -4.86700E+03  2.44466E+03 -4.19093E+03
  2.48326E+03 -2.17967E+03  3.29959E+03 -3.14070E+03  4.62896E+03 -2.37539E+03  5.29588E+03 -7.97303E+02
  8.00275E+03  1.83159E+03  3.19409E+03  6.12473E+03 -2.18410E+03  6.53225E+03 -8.07866E+03  4.94612E+03
 -9.16838E+03 -6.52675E+02 -5.15221E+03 -6.67316E+03 -4.80465E+02 -9.83274E+03  5.99837E+03 -1.01963E+04
  1.00456E+04 -5.80273E+03  1.25935E+04  1.19715E+03  8.55862E+03  7.84771E+03  2.07570E+03  1.14094E+04
 -4.90511E+03  1.00475E+04 -6.70012E+03  3.21963E+03 -4.99317E+03 -1.46965E+03 -1.08662E+03 -1.41357E+03
 -6.35360E+02  2.04454E+02 -1.23624E+03  2.32107E+03 -4.54539E+03  1.50348E+03 -6.15872E+03 -4.61596E+02
 -4.04712E+03 -6.90344E+03  5.18518E+02 -8.68958E+03  5.46003E+03 -8.14140E+03  8.07297E+03 -1.97461E+03
  8.44967E+03  4.51008E+03  4.58399E+03  7.46080E+03 -1.76507E+03  8.79613E+03 -6.04055E+03  5.22903E+03
 -8.49832E+03 -2.87430E+02 -6.33443E+03 -5.42704E+03 -2.27518E+02 -6.95593E+03  3.34135E+03 -5.98149E+03
  5.62470E+03 -1.97194E+03  3.69857E+03  7.42281E+02  1.48106E+03  2.36274E+03  1.04010E+03  1.19221E+03
  1.88273E+03  7.26823E+02  2.55992E+03  1.27791E+03  3.06729E+03  3.00581E+03  2.60425E+03  4.26551E+03
 -1.90771E+03  6.18651E+03 -6.50112E+03  7.32289E+03 -7.85128E+03  1.41709E+03 -8.98344E+03 -2.34953E+03
 -4.27914E+03 -8.55143E+03  1.77291E+03 -9.16093E+03  4.54595E+03 -6.11314E+03  7.28826E+03 -1.53600E+03
  4.78594E+03  3.12381E+03  1.39860E+03  4.67469E+03 -2.19941E+03  3.22452E+03 -3.35707E+03 -4.32680E+02
 -1.54397E+03 -3.83313E+03  2.12103E+03 -3.97576E+03  3.61969E+03 -1.49252E+03  2.20733E+03  8.81723E+02
  1.44460E+03  1.27488E+03  8.01311E+02  3.74282E+02 -8.48044E+02  8.44016E+02  1.38977E+03 -2.42205E+02
  1.07444E+03 -7.10112E+02  3.16553E+03  8.91873E+02  1.35230E+03  4.57226E+03 -5.85367E+02  6.60169E+03
 -4.34409E+03  2.79610E+03 -4.51344E+03  6.76093E+02 -4.70473E+03 -2.15455E+03 -1.36988E+03 -2.83765E+03
  9.17183E+02 -3.55626E+03  2.40807E+03 -2.01391E+03  1.87382E+03  2.26747E+03 -1.34904E+03  2.87430E+03
 -3.41343E+03  2.20623E+03 -3.53582E+03 -2.40228E+03 -2.16657E+03 -4.77826E+03  1.09288E+02 -4.33658E+03
  2.05503E+03 -2.86801E+03  2.38086E+03 -2.50721E+02  2.69741E+03  8.32108E+02  5.13773E+02  2.44714E+03
 -1.60074E+03  7.90460E+02 -2.29365E+03 -1.27816E+03  1.10449E+03 -2.72505E+03  3.80540E+03 -1.90991E+03
  4.69720E+03  1.31813E+02  5.40097E+03  3.07489E+03  1.99538E+03  5.15299E+03 -2.18325E+03  5.03697E+03
 -3.73510E+03  1.70953E+03 -4.36329E+03 -3.29001E+02 -2.43985E+03 -3.56670E+03  9.87706E+02 -2.84408E+03
  3.40236E+03 -1.73971E+03  2.42592E+03  1.45152E+03  9.97936E+02  3.44390E+03 -8.45210E+01  3.01665E+03
 -8.21990E+02  2.47213E+03 -7.19203E+02  7.22984E+01 -1.30858E+03  4.66758E+02 -1.80598E+03  7.68464E+02
 -8.49478E+02  2.87339E+03 -3.29965E+03  2.17532E+03 -4.74253E+03  2.01919E+02 -5.90576E+03 -2.99938E+03
 -2.92043E+03 -6.66514E+03  9.25424E+02 -7.93770E+03  3.29611E+03 -5.82975E+03  7.36065E+03 -2.50813E+03
  6.60677E+03  7.32543E+02  4.00973E+03  4.80881E+03 -5.09799E+02  4.81780E+03 -1.47950E+03  3.97219E+03
 -3.22976E+03  1.38676E+03 -1.73982E+03 -2.62876E+02 -1.47891E+03 -8.70658E+02 -4.53744E+02 -8.70128E+02
 -1.68689E+03  1.04965E+02 -1.13354E+03  3.95607E+02 -4.46008E+02 -1.36450E+03 -3.04006E+02 -2.60805E+03
  2.64296E+03 -1.51133E+03  2.45872E+03  5.31335E+02  2.95155E+03  2.54561E+03  6.12972E+02  4.88027E+03
 -2.17866E+03  5.55449E+03 -5.06292E+03  3.43009E+03 -5.15723E+03 -3.99864E+02 -4.64268E+03 -3.32504E+03
 -2.25287E+03 -4.95342E+03  6.86571E+02 -4.44751E+03  2.54534E+03 -2.12591E+03  2.86463E+03 -5.69353E+02
  2.00837E+03  1.48312E+03 -5.25803E+02  1.48105E+03 -1.27127E+03 -2.47824E+02  1.74935E+02 -9.13777E+02
  1.44130E+03 -1.46676E+02  1.47526E+03  4.55984E+02  1.31754E+03  1.93381E+03  6.31278E+02  2.61724E+03
 -2.50599E+03  2.00005E+03 -3.10198E+03  5.75410E+02 -2.97495E+03 -2.31038E+03 -3.89024E+02 -3.74271E+03
  2.65636E+03 -2.83965E+03  2.83452E+03 -3.53036E+02  3.28051E+03  4.09255E+02  2.07738E+03  3.00758E+03
  4.82997E+02  3.25422E+03 -1.44297E+03  1.86828E+03 -2.57605E+03  1.61753E+03 -1.51181E+03  1.08993E+02
 -5.45449E+02 -2.80711E+02 -3.82367E+02  3.23529E+02 -1.45084E+03  4.25903E+02 -2.45256E+03 -9.50968E+02
 -2.25313E+03 -1.41102E+03 -6.23399E+02 -3.52225E+03  1.56863E+03 -3.49533E+03  2.58958E+03 -9.18200E+02
  2.30753E+03 -2.56263E+01  1.05404E+03  2.56098E+03 -4.30764E+02  3.27448E+03 -2.30777E+03  2.18657E+03
