 $NMID ID='MM_0lb_SNR400_10hz_g60_45.RAW', FMTDAT='(8E13.5)'
 TRAMP=1., VOLUME=1. $END
  3.09751E+05 -1.61417E+02  3.38101E+05  2.50591E+05  8.47842E+04  3.38530E+05 -1.32602E+05  2.51917E+05
 -1.90810E+05  8.40939E+04 -1.12886E+05 -3.24271E+04  3.31849E+02 -5.12697E+04  5.46782E+04  5.84736E+02
  3.57039E+04  5.27996E+04 -1.67410E+04  7.59801E+04 -6.16629E+04  6.44379E+04 -8.51524E+04  3.27845E+04
 -8.17684E+04 -1.15908E+04 -5.73422E+04 -5.20519E+04 -1.53532E+04 -7.20326E+04  2.84066E+04 -4.71019E+04
  4.09538E+04  3.17776E+03  1.74516E+04  4.92367E+04 -3.53498E+04  4.79199E+04 -6.77749E+04 -3.58254E+02
 -5.52320E+04 -5.74756E+04 -7.37429E+03 -7.96947E+04  3.45737E+04 -5.66185E+04  4.94052E+04 -1.81916E+04
  4.44233E+04  1.17159E+04  3.31410E+04  2.73144E+04  1.58750E+04  3.02332E+04 -5.54797E+03  2.78251E+04
 -2.30921E+04  1.19276E+04 -1.87561E+04 -6.04502E+03  6.54345E+03 -7.65684E+03  2.39872E+04  1.47328E+04
  7.07384E+03  3.77200E+04 -3.47067E+04  3.79417E+04 -6.64442E+04  2.34474E+03 -5.85853E+04 -4.53103E+04
 -1.25640E+04 -6.62513E+04  4.13654E+04 -4.74082E+04  6.10050E+04 -2.29239E+03  3.70723E+04  3.46534E+04
 -5.56437E+03  3.91418E+04 -3.19944E+04  1.87306E+04 -3.34233E+04 -3.44533E+03 -1.86579E+04 -1.18730E+04
 -8.90632E+03 -1.49957E+04  6.87131E+01 -2.00248E+04  7.86749E+03 -2.36794E+04  1.57926E+04 -1.25923E+04
  9.47970E+03  6.12377E+03 -1.06475E+04  1.32611E+04 -2.37460E+04 -7.51798E+03 -8.60393E+03 -3.79449E+04
  2.60299E+04 -4.72784E+04  5.28149E+04 -2.07215E+04  4.88903E+04  2.07042E+04  1.75904E+04  4.69697E+04
 -1.68981E+04  3.62274E+04 -2.78250E+04  2.32653E+03 -1.23049E+04 -2.92462E+04  2.09830E+04 -3.72454E+04
  4.48026E+04 -1.08670E+04  4.01927E+04  2.48809E+04  2.19256E+04  5.16092E+04 -8.17485E+03  5.67793E+04
 -3.55041E+04  3.84856E+04 -4.71163E+04  1.05228E+04 -4.77361E+04 -1.85246E+04 -2.60369E+04 -4.15048E+04
  7.48397E+03 -4.15073E+04  3.47261E+04 -1.71368E+04  3.24629E+04  1.18807E+04  4.66281E+03  2.03679E+04
 -1.46392E+04  9.92561E+03 -1.10435E+04 -6.90898E+03  5.21854E+03 -1.16190E+04  1.83126E+04  5.15721E+03
  1.49478E+04  2.30143E+04 -5.14021E+03  2.74101E+04 -2.25594E+04  1.49547E+04 -3.28320E+04 -3.15060E+03
 -2.52568E+04 -1.82752E+04 -1.12329E+04 -2.55912E+04  4.59037E+03 -2.54966E+04  2.00526E+04 -2.27333E+04
  3.20975E+04 -1.45463E+04  3.85826E+04  5.34513E+03  2.67865E+04  2.46383E+04  5.10885E+03  4.13375E+04
 -2.03299E+04  3.43974E+04 -3.04804E+04  1.16537E+04 -2.33227E+04 -1.00215E+04 -4.86398E+03 -1.43278E+04
  9.30716E+02 -9.60570E+02 -8.26533E+03  8.22626E+03 -2.04199E+04  5.57274E+03 -2.02837E+04 -9.34283E+03
 -1.23019E+04 -2.33295E+04  6.22176E+03 -2.85170E+04  1.93080E+04 -1.86006E+04  2.28684E+04 -1.95158E+03
  1.47026E+04  1.67436E+04 -1.33936E+03  2.31498E+04 -1.67818E+04  1.34486E+04 -2.40006E+04 -5.16527E+03
 -1.74572E+04 -2.07916E+04 -2.64542E+03 -2.75108E+04  1.28440E+04 -2.25045E+04  2.30393E+04 -1.18491E+04
  2.26124E+04 -7.14795E+02  1.58788E+04  5.32470E+03  7.61800E+03  8.90785E+02  1.26125E+04 -1.45673E+03
  2.16390E+04  2.37115E+03  2.59044E+04  1.82837E+04  1.80521E+04  3.81061E+04 -2.80502E+03  4.46497E+04
 -2.49289E+04  3.64262E+04 -4.23658E+04  1.98116E+04 -4.51948E+04 -3.94751E+03 -3.57601E+04 -2.65023E+04
 -1.41067E+04 -3.72019E+04  1.33220E+04 -3.24730E+04  2.82131E+04 -1.51370E+04  2.39833E+04  7.50301E+03
  8.19050E+03  1.89609E+04 -1.13596E+04  1.55265E+04 -1.98275E+04  1.66269E+03 -1.50670E+04 -1.27539E+04
 -3.67119E+02 -1.87139E+04  9.57817E+03 -1.46226E+04  1.40988E+04 -1.77119E+03  2.99753E+03  8.95070E+03
 -8.08959E+03  3.28125E+03 -9.16607E+03 -7.05007E+03 -2.33188E+03 -1.82864E+04  1.16753E+04 -1.92911E+04
  2.24991E+04 -1.18315E+04  2.50781E+04  4.00316E+03  2.28622E+04  1.79341E+04  9.79411E+03  2.96274E+04
 -5.38225E+03  3.16545E+04 -2.05589E+04  1.89769E+04 -2.30490E+04  4.25877E+03 -1.57779E+04 -6.00546E+03
 -6.32603E+03 -7.44476E+03 -5.49595E+02  1.14978E+03 -2.68718E+03  3.53352E+03 -7.57887E+03  6.37831E+03
 -1.46169E+04 -6.89001E+02 -1.38465E+04 -1.19748E+04 -5.99661E+03 -1.93210E+04  6.82160E+03 -1.56255E+04
  1.28200E+04 -5.99642E+03  8.64559E+03  4.22458E+03 -3.60561E+02  5.99138E+03 -7.85612E+03 -6.98445E+02
 -7.35161E+03 -9.75407E+03 -1.25110E+03 -1.58537E+04  9.63593E+03 -1.57182E+04  2.05241E+04 -8.94420E+03
  2.34059E+04  2.09068E+03  1.68972E+04  1.46162E+04  3.73305E+03  1.88053E+04 -9.91901E+03  1.53483E+04
 -1.24550E+04  4.79436E+03 -6.32318E+03 -2.89152E+03  2.26200E+03 -3.93494E+03  7.81394E+03 -1.39938E+03
  7.04369E+03  7.34023E+03  9.67814E+02  1.23597E+04 -8.84402E+03  1.21845E+04 -1.46352E+04  2.98747E+03
 -1.08507E+04 -8.13817E+03  1.52465E+03 -1.29945E+04  8.83990E+03 -6.58319E+03  8.75251E+03  2.65429E+03
  1.77830E+03  1.03213E+04 -8.25830E+03  1.15287E+04 -1.36899E+04  4.73132E+03 -1.32502E+04 -4.95003E+03
 -7.76385E+03 -1.60399E+04  3.55097E+03 -1.80505E+04  1.53692E+04 -1.06783E+04  1.63433E+04  3.17175E+03
  9.66722E+03  1.28471E+04 -1.63710E+03  1.55725E+04 -1.19096E+04  9.03845E+03 -1.26976E+04 -8.99318E+02
 -1.02046E+04 -1.05541E+04 -1.83823E+03 -1.18358E+04  6.90325E+03 -1.00973E+04  7.74084E+03 -2.84171E+03
  4.91317E+03  2.05235E+03 -9.96615E+02  1.72081E+03 -4.66118E+02 -2.45276E+03  2.82631E+03 -7.48420E+03
  1.15959E+04 -5.40965E+03  1.60504E+04  1.06273E+03  1.47929E+04  1.05257E+04  1.02946E+04  2.08006E+04
 -4.18210E+03  2.31234E+04 -1.99416E+04  1.82773E+04 -2.57671E+04  3.24830E+03 -2.09593E+04 -8.39167E+03
 -1.03533E+04 -1.67549E+04  2.59101E+02 -1.40358E+04  5.41824E+03 -8.56665E+03  4.48164E+03 -5.13821E+03
  3.14369E+03 -2.45715E+03  3.70940E+03 -4.02231E+03  5.65452E+03 -2.84675E+03  8.62577E+03 -6.01273E+02
  1.02532E+04  2.66725E+03  5.56799E+03  9.31368E+03 -1.62131E+03  1.11956E+04 -1.21815E+04  8.21249E+03
 -1.39620E+04 -2.07534E+03 -9.33035E+03 -1.07758E+04 -1.12205E+03 -1.57116E+04  8.00913E+03 -1.53556E+04
  1.58769E+04 -9.22417E+03  1.80845E+04  2.48482E+03  1.37684E+04  1.35159E+04  2.67522E+03  1.69378E+04
 -7.12189E+03  1.34657E+04 -8.87663E+03  4.72260E+03 -7.06331E+03 -1.80116E+03 -3.12526E+03 -2.46743E+03
 -2.54247E+02 -1.11826E+02 -2.45270E+03  2.90918E+03 -6.26811E+03  2.47634E+03 -1.01326E+04 -7.74672E+02
 -6.59307E+03 -9.85424E+03  3.34596E+02 -1.37729E+04  8.47584E+03 -1.26850E+04  1.47447E+04 -4.32923E+03
  1.35500E+04  6.58733E+03  6.47657E+03  1.28346E+04 -2.98713E+03  1.34461E+04 -1.07437E+04  8.47851E+03
 -1.39874E+04 -1.87886E+02 -1.08112E+04 -8.74114E+03 -4.04515E+02 -1.18095E+04  6.08707E+03 -9.22021E+03
  9.01296E+03 -3.13088E+03  5.61819E+03  2.71934E+03  1.65713E+03  4.16241E+03  1.70356E+03  1.38063E+03
  2.27150E+03  1.67771E+03  2.71237E+03  1.40515E+03  4.61605E+03  3.98216E+03  4.48855E+03  8.02451E+03
 -2.87495E+03  1.12555E+04 -9.80437E+03  1.13944E+04 -1.37708E+04  3.40079E+03 -1.55661E+04 -6.37140E+03
 -6.59938E+03 -1.43992E+04  2.74246E+03 -1.61277E+04  9.23264E+03 -9.59045E+03  1.13461E+04 -3.03297E+03
  8.63063E+03  5.89651E+03  2.35166E+03  9.20329E+03 -4.39949E+03  5.53354E+03 -5.56800E+03 -1.26313E+03
 -2.32236E+03 -6.75331E+03  2.62417E+03 -6.25199E+03  6.48770E+03 -2.79190E+03  5.81592E+03  1.60419E+03
  3.16718E+03  2.94182E+03  1.55396E+03  1.78669E+03 -9.28510E+02  2.08612E+03  1.58984E+03 -7.98368E+02
  2.22479E+03 -3.20326E+02  5.49810E+03  2.28287E+03  3.08964E+03  8.07081E+03 -1.12535E+03  1.04001E+04
 -7.61486E+03  7.06981E+03 -9.53347E+03  1.58752E+03 -7.94079E+03 -3.68191E+03 -2.79390E+03 -5.61649E+03
  2.74821E+02 -5.97363E+03  4.28768E+03 -2.68594E+03  2.39186E+03  2.78289E+03 -1.55894E+03  4.84456E+03
 -5.86190E+03  2.72754E+03 -6.85452E+03 -3.16486E+03 -3.53285E+03 -7.58791E+03  1.39587E+03 -7.69666E+03
  5.39223E+03 -4.45408E+03  5.84697E+03 -5.30484E+02  4.66457E+03  1.96330E+03  3.15245E+02  3.75731E+03
 -2.51420E+03  1.27338E+03 -3.03935E+03 -2.58201E+03  2.07344E+03 -6.15432E+03  7.63277E+03 -5.00945E+03
  8.73816E+03  5.35292E+02  8.11611E+03  5.98786E+03  2.99614E+03  9.63220E+03 -3.59451E+03  8.94089E+03
 -8.03668E+03  4.19085E+03 -8.09102E+03 -9.89870E+02 -4.11686E+03 -5.75039E+03  1.36754E+03 -4.82707E+03
  5.56792E+03 -2.38088E+03  5.21718E+03  3.32682E+03  9.54347E+02  5.42715E+03 -1.61373E+03  4.48673E+03
 -1.81732E+03  3.64731E+03 -2.32150E+03  1.05946E+03 -1.28228E+03  1.03880E+03 -1.49792E+03  1.61655E+03
 -2.74069E+03  3.72388E+03 -6.12180E+03  3.59911E+03 -9.56707E+03 -2.78942E+02 -1.02359E+04 -6.49718E+03
 -5.84644E+03 -1.24670E+04  1.84151E+03 -1.45474E+04  9.69286E+03 -1.08393E+04  1.35409E+04 -4.75367E+03
  1.22263E+04  2.30904E+03  7.00113E+03  8.78016E+03  6.33590E+02  9.68089E+03 -3.67012E+03  7.03311E+03
 -4.89805E+03  2.97544E+03 -3.31089E+03 -1.83017E+03 -6.17699E+02 -3.62871E+02 -8.31843E+02  6.87850E+01
 -2.12633E+03 -5.06288E+02 -2.47716E+03 -2.62532E+02 -3.04211E+02 -2.21516E+03 -1.01609E+03 -4.03345E+03
  3.95580E+03 -3.19539E+03  6.21640E+03  2.38302E+02  5.75174E+03  5.23961E+03  1.92659E+03  9.76169E+03
 -5.10720E+03  1.00809E+04 -1.02984E+04  6.35880E+03 -1.11231E+04 -8.54013E+02 -7.77770E+03 -7.41801E+03
 -4.39818E+03 -9.64960E+03  2.53730E+03 -9.16241E+03  6.58353E+03 -4.64050E+03  5.81514E+03  7.40445E+02
  3.51971E+03  3.34821E+03 -4.02716E+02  2.49398E+03 -1.38132E+03 -2.24208E+02  2.37707E+02 -2.31884E+03
  2.36449E+03 -1.29058E+03  3.63044E+03  1.65258E+03  2.73240E+03  3.96050E+03  5.47775E+02  5.02962E+03
 -4.27612E+03  4.20505E+03 -6.08785E+03  3.31754E+02 -5.47080E+03 -5.03666E+03 -5.37100E+02 -7.96003E+03
  4.74199E+03 -6.04434E+03  7.15695E+03 -1.45808E+03  7.30076E+03  1.01193E+03  4.52510E+03  5.78863E+03
  1.42039E+03  6.61073E+03 -2.45567E+03  4.92786E+03 -4.34300E+03  2.75138E+03 -4.46243E+03  1.32028E+02
 -2.70165E+03  2.78535E+02 -2.13506E+03  9.23951E+02 -3.32334E+03  7.39405E+02 -5.49043E+03 -4.68953E+02
 -4.57162E+03 -2.96406E+03 -1.28907E+03 -5.98435E+03  2.31715E+03 -6.55101E+03  5.03172E+03 -3.51013E+03
  6.09225E+03  6.25771E+02  3.60490E+03  3.85731E+03 -5.20565E+02  6.21306E+03 -4.64037E+03  4.49235E+03
