 $NMID ID='MM_0lb_SNR400_9hz_g45_70.RAW', FMTDAT='(8E13.5)'
 TRAMP=1., VOLUME=1. $END
  3.09500E+05  8.24512E+02  3.37645E+05  2.50579E+05  8.52531E+04  3.38992E+05 -1.33170E+05  2.51460E+05
 -1.90850E+05  8.41973E+04 -1.12452E+05 -3.18837E+04 -8.82310E+00 -5.07372E+04  5.40622E+04 -7.30568E+02
  3.54112E+04  5.23883E+04 -1.60517E+04  7.56324E+04 -6.10625E+04  6.37926E+04 -8.53160E+04  3.26724E+04
 -8.23352E+04 -1.14970E+04 -5.85070E+04 -5.21128E+04 -1.58467E+04 -7.01531E+04  2.83750E+04 -4.59105E+04
  4.06262E+04  4.22110E+03  1.69535E+04  4.84763E+04 -3.42585E+04  4.82300E+04 -6.70880E+04  8.15450E+01
 -5.50219E+04 -5.73120E+04 -7.91558E+03 -7.85265E+04  3.42868E+04 -5.66728E+04  4.92171E+04 -1.78647E+04
  4.47253E+04  1.16860E+04  3.31417E+04  2.63920E+04  1.60476E+04  3.02441E+04 -5.82458E+03  2.75890E+04
 -2.16989E+04  1.13682E+04 -1.83341E+04 -5.94548E+03  7.57184E+03 -7.44236E+03  2.35752E+04  1.29238E+04
  7.31305E+03  3.79242E+04 -3.35722E+04  3.71572E+04 -6.60260E+04  2.37470E+03 -5.86858E+04 -4.39806E+04
 -1.18064E+04 -6.58613E+04  4.08403E+04 -4.63967E+04  6.08268E+04 -2.47441E+03  3.60821E+04  3.36644E+04
 -5.88227E+03  3.91353E+04 -3.11428E+04  1.81576E+04 -3.28352E+04 -3.37376E+03 -1.88381E+04 -1.22169E+04
 -9.33853E+03 -1.49598E+04  6.77981E+02 -1.93128E+04  8.60087E+03 -2.31126E+04  1.60788E+04 -1.26766E+04
  1.04261E+04  6.57143E+03 -9.98062E+03  1.27818E+04 -2.30512E+04 -6.39601E+03 -8.96770E+03 -3.74896E+04
  2.49460E+04 -4.66758E+04  5.23002E+04 -2.12774E+04  4.75513E+04  2.11533E+04  1.69327E+04  4.69465E+04
 -1.67290E+04  3.63410E+04 -2.68291E+04  2.53792E+03 -1.20563E+04 -2.87944E+04  2.10084E+04 -3.71159E+04
  4.48449E+04 -1.13709E+04  3.93240E+04  2.42167E+04  2.18417E+04  5.06917E+04 -8.10560E+03  5.54173E+04
 -3.46458E+04  3.85331E+04 -4.72819E+04  1.03219E+04 -4.69847E+04 -1.83333E+04 -2.59759E+04 -4.06805E+04
  7.51762E+03 -4.14613E+04  3.38945E+04 -1.67292E+04  3.27683E+04  1.15230E+04  5.32569E+03  1.99465E+04
 -1.38234E+04  8.94184E+03 -1.14189E+04 -7.46754E+03  7.20590E+03 -1.12036E+04  1.75040E+04  6.15824E+03
  1.49496E+04  2.26691E+04 -5.26448E+03  2.68654E+04 -2.33815E+04  1.42373E+04 -3.13469E+04 -3.37131E+03
 -2.45845E+04 -1.79222E+04 -1.24130E+04 -2.45337E+04  3.59288E+03 -2.45497E+04  1.93063E+04 -2.31711E+04
  3.11328E+04 -1.41405E+04  3.70296E+04  5.09647E+03  2.66564E+04  2.36492E+04  4.34773E+03  4.09305E+04
 -1.95766E+04  3.29835E+04 -3.00675E+04  1.11729E+04 -2.28492E+04 -1.05286E+04 -5.87483E+03 -1.25285E+04
  6.59281E+02 -1.58023E+03 -7.49791E+03  7.95672E+03 -2.08373E+04  4.64626E+03 -1.99116E+04 -9.65458E+03
 -1.15564E+04 -2.31312E+04  5.64893E+03 -2.78076E+04  1.82987E+04 -1.89236E+04  2.24748E+04 -1.39061E+03
  1.42438E+04  1.58764E+04 -1.34391E+03  2.28231E+04 -1.61431E+04  1.37455E+04 -2.30428E+04 -4.25177E+03
 -1.69071E+04 -2.00541E+04 -2.39751E+03 -2.69553E+04  1.21851E+04 -2.36828E+04  2.30352E+04 -1.22197E+04
  2.16015E+04  2.70218E+02  1.55807E+04  5.58293E+03  8.69053E+03  1.25872E+03  1.19413E+04 -2.25081E+03
  2.12732E+04  3.14442E+03  2.50282E+04  1.75120E+04  1.73035E+04  3.60874E+04 -3.09611E+03  4.40062E+04
 -2.42467E+04  3.61909E+04 -4.09456E+04  1.75360E+04 -4.32006E+04 -3.21933E+03 -3.54377E+04 -2.54641E+04
 -1.35704E+04 -3.60223E+04  1.30430E+04 -3.19808E+04  2.76232E+04 -1.46463E+04  2.37275E+04  7.75606E+03
  7.91652E+03  1.86000E+04 -1.13027E+04  1.50479E+04 -1.94432E+04  3.03051E+03 -1.50585E+04 -1.28634E+04
 -7.92976E+02 -1.86614E+04  1.04363E+04 -1.46148E+04  1.30919E+04 -1.65155E+03  2.33746E+03  8.86213E+03
 -8.60298E+03  4.24465E+03 -9.38305E+03 -6.91432E+03 -1.77270E+03 -1.80865E+04  1.17698E+04 -1.91002E+04
  2.25442E+04 -1.03049E+04  2.53566E+04  2.95845E+03  2.17510E+04  1.78197E+04  1.03577E+04  2.83969E+04
 -5.80922E+03  3.03966E+04 -2.02863E+04  1.86576E+04 -2.07447E+04  3.56573E+03 -1.51885E+04 -5.32405E+03
 -6.81842E+03 -6.99249E+03 -5.88126E+02  5.77844E+02 -2.79733E+03  3.73581E+03 -8.13517E+03  5.10152E+03
 -1.40586E+04 -5.42242E+02 -1.46202E+04 -1.23861E+04 -6.94588E+03 -1.94254E+04  6.05454E+03 -1.60124E+04
  1.22453E+04 -6.56393E+03  8.77152E+03  3.99882E+03 -3.27179E+02  5.88198E+03 -7.23143E+03 -2.79629E+02
 -7.51944E+03 -9.43389E+03 -6.24889E+02 -1.48218E+04  8.89269E+03 -1.52416E+04  1.94631E+04 -8.42780E+03
  2.25076E+04  1.74573E+03  1.60293E+04  1.42289E+04  2.38267E+03  1.89917E+04 -9.92533E+03  1.52206E+04
 -1.24861E+04  4.44223E+03 -6.55733E+03 -3.34106E+03  2.27691E+03 -4.61632E+03  8.02682E+03 -3.84971E+02
  6.92614E+03  6.37952E+03  1.68664E+03  1.28789E+04 -8.69076E+03  1.15834E+04 -1.60746E+04  2.83197E+03
 -1.05804E+04 -7.72239E+03  7.95852E+02 -1.26841E+04  9.24886E+03 -6.52061E+03  9.09368E+03  3.83068E+03
  2.32673E+03  9.69283E+03 -7.75332E+03  1.11600E+04 -1.29823E+04  4.68354E+03 -1.31915E+04 -4.95852E+03
 -7.06628E+03 -1.53244E+04  3.40887E+03 -1.73464E+04  1.46616E+04 -1.09250E+04  1.67755E+04  2.75732E+03
  9.34980E+03  1.26540E+04 -1.40532E+03  1.54490E+04 -1.13759E+04  8.21750E+03 -1.27554E+04 -1.93557E+03
 -1.01866E+04 -1.07081E+04 -2.35509E+03 -1.14504E+04  6.15311E+03 -9.14540E+03  7.89304E+03 -3.68015E+03
  4.24938E+03  2.09184E+03 -2.23404E+03  1.86577E+03 -8.75188E+02 -3.56840E+03  2.66978E+03 -6.94710E+03
  1.08782E+04 -4.85285E+03  1.58884E+04  1.94568E+03  1.55485E+04  1.11417E+04  9.62236E+03  2.00594E+04
 -4.12531E+03  2.30883E+04 -1.89101E+04  1.72485E+04 -2.50068E+04  3.14130E+03 -2.04676E+04 -8.25274E+03
 -9.89274E+03 -1.71704E+04 -3.38026E+02 -1.45054E+04  5.07356E+03 -8.41157E+03  5.24601E+03 -4.98520E+03
  3.57577E+03 -2.52203E+03  4.06868E+03 -4.15287E+03  5.81474E+03 -3.98852E+03  8.49912E+03 -7.81918E+02
  1.02543E+04  2.43228E+03  5.06084E+03  9.50242E+03 -2.76501E+03  1.14404E+04 -1.12684E+04  8.40222E+03
 -1.41207E+04 -1.00089E+03 -8.06987E+03 -9.82031E+03 -1.37314E+03 -1.56757E+04  8.42805E+03 -1.55351E+04
  1.66638E+04 -8.61022E+03  1.92849E+04  3.12957E+03  1.41683E+04  1.37277E+04  2.26811E+03  1.63294E+04
 -7.03816E+03  1.50000E+04 -1.07752E+04  4.54266E+03 -6.73594E+03 -1.59425E+03 -3.22924E+03 -1.98404E+03
 -1.78592E+03  1.35724E+02 -2.07115E+03  2.93709E+03 -6.29891E+03  1.85150E+03 -1.00053E+04 -6.73729E+02
 -6.97755E+03 -9.72166E+03  2.60239E+00 -1.48080E+04  8.43649E+03 -1.34302E+04  1.42985E+04 -3.93377E+03
  1.50717E+04  7.41463E+03  7.18775E+03  1.33903E+04 -2.72424E+03  1.42091E+04 -1.01274E+04  9.46274E+03
 -1.35508E+04  4.29195E+02 -9.78621E+03 -8.58385E+03 -1.39074E+03 -1.20344E+04  5.61071E+03 -9.37050E+03
  8.71837E+03 -2.04514E+03  6.33814E+03  2.42708E+03  2.30673E+03  4.82377E+03  1.79772E+03  2.09244E+03
  3.21914E+03  1.48008E+03  3.21348E+03  1.68793E+03  4.34063E+03  4.92168E+03  3.96747E+03  8.20435E+03
 -3.12157E+03  1.16053E+04 -1.02211E+04  1.10537E+04 -1.44285E+04  3.45795E+03 -1.51015E+04 -6.08414E+03
 -7.04932E+03 -1.41370E+04  2.91066E+03 -1.54872E+04  8.99519E+03 -9.51320E+03  1.20690E+04 -3.55266E+03
  8.88368E+03  4.91903E+03  2.02716E+03  9.10331E+03 -4.13382E+03  5.20565E+03 -5.91790E+03 -6.92317E+02
 -3.12075E+03 -5.97742E+03  3.14606E+03 -6.91853E+03  7.01180E+03 -3.15841E+03  6.23008E+03  1.59448E+03
  2.56006E+03  3.15445E+03  1.74956E+03  2.33955E+03 -1.15284E+03  2.42831E+03  2.01675E+03 -7.00139E+02
  2.81762E+03 -1.16786E+03  5.67738E+03  2.21811E+03  3.52118E+03  7.74324E+03 -1.01094E+03  1.03844E+04
 -7.26011E+03  6.66362E+03 -8.63695E+03  3.04941E+03 -8.91220E+03 -3.78903E+03 -2.52328E+03 -5.62314E+03
  1.03880E+03 -5.22168E+03  3.06469E+03 -3.03731E+03  2.66603E+03  2.69338E+03 -1.52858E+03  5.27403E+03
 -6.35073E+03  2.51755E+03 -6.86689E+03 -3.12012E+03 -4.70891E+03 -7.64661E+03  1.21723E+03 -7.56276E+03
  5.02575E+03 -4.99031E+03  6.52350E+03 -1.22144E+02  5.11809E+03  2.18418E+03  1.54736E+03  4.00178E+03
 -2.38406E+03  1.10179E+03 -3.97645E+03 -2.78845E+03  1.38236E+03 -6.79281E+03  8.03263E+03 -5.66457E+03
  9.23453E+03  6.07886E+02  9.68962E+03  5.95805E+03  2.68088E+03  1.01154E+04 -3.64611E+03  9.07638E+03
 -7.96092E+03  3.94421E+03 -8.40556E+03 -1.67643E+03 -3.86216E+03 -6.14070E+03  1.65484E+03 -5.76130E+03
  6.36092E+03 -2.52725E+03  4.89907E+03  2.62904E+03  1.97951E+03  5.25491E+03 -1.18183E+03  4.53367E+03
 -3.09675E+03  3.28607E+03 -2.69304E+03  1.03133E+03 -9.76810E+02  3.54648E+02 -4.87789E+02  2.73182E+03
 -2.65823E+03  3.62604E+03 -6.11136E+03  2.75919E+03 -9.42029E+03  5.53609E+02 -1.09828E+04 -6.19738E+03
 -4.91304E+03 -1.28917E+04  2.77431E+03 -1.48883E+04  8.75851E+03 -1.12495E+04  1.48369E+04 -5.43386E+03
  1.28486E+04  2.49291E+03  7.37204E+03  8.54041E+03  3.45184E+02  9.78850E+03 -3.95017E+03  7.08967E+03
 -5.39200E+03  2.60108E+03 -2.36161E+03 -1.17437E+03 -7.60884E+02 -1.08425E+03 -6.72481E+01  2.21898E+02
 -2.21242E+03  3.49530E+02 -1.95965E+03 -2.45637E+02 -6.92536E+02 -1.14386E+03  3.64736E+02 -3.20929E+03
  4.33279E+03 -3.57438E+03  6.63336E+03  5.92284E+00  7.27891E+03  5.47935E+03  2.23492E+03  9.76990E+03
 -4.82709E+03  1.12750E+04 -9.82858E+03  6.24889E+03 -1.31093E+04 -1.29792E+03 -9.40551E+03 -8.84780E+03
 -3.80030E+03 -1.02957E+04  2.69862E+03 -9.54433E+03  7.42262E+03 -5.94938E+03  6.84644E+03 -1.25839E+03
  3.95478E+03  3.88351E+03 -1.73176E+02  3.28740E+03 -2.01129E+03 -4.26004E+02  4.00996E+02 -1.85016E+03
  3.19581E+03 -1.18279E+03  3.82948E+03  1.09413E+03  1.73325E+03  3.37312E+03  2.50671E+02  4.75324E+03
 -4.59132E+03  5.30912E+03 -6.02967E+03  2.78829E+02 -6.65869E+03 -5.28795E+03 -1.60857E+03 -8.59432E+03
  4.79784E+03 -6.73538E+03  7.79151E+03 -2.05217E+03  7.62452E+03  1.31336E+03  4.45900E+03  6.92132E+03
  7.27969E+02  7.63842E+03 -3.16000E+03  5.20976E+03 -4.33198E+03  3.17739E+03 -4.01256E+03  3.38912E+02
 -1.59667E+03 -9.69740E+02 -9.64740E+02  1.22555E+03 -3.85192E+03  8.27622E+02 -5.28309E+03 -1.46293E+03
 -5.06598E+03 -3.59134E+03 -1.51665E+03 -6.89377E+03  2.91758E+03 -7.21799E+03  5.70367E+03 -2.77062E+03
  6.75431E+03  1.36699E+03  3.73804E+03  5.64789E+03 -6.74704E+02  7.56379E+03 -5.10065E+03  4.39569E+03
