 $NMID ID='MM_0lb_SNR400_11hz_g50_27.RAW', FMTDAT='(8E13.5)'
 TRAMP=1., VOLUME=1. $END
  3.09907E+05  5.32298E+02  3.38215E+05  2.50966E+05  8.51229E+04  3.38956E+05 -1.31917E+05  2.51433E+05
 -1.89963E+05  8.36873E+04 -1.12359E+05 -3.29628E+04 -4.16505E+01 -5.03739E+04  5.40770E+04 -1.47953E+01
  3.61453E+04  5.29383E+04 -1.62887E+04  7.60230E+04 -6.12154E+04  6.42116E+04 -8.49849E+04  3.22744E+04
 -8.24589E+04 -1.22907E+04 -5.78746E+04 -5.21547E+04 -1.46818E+04 -7.00844E+04  2.77851E+04 -4.59686E+04
  4.09590E+04  3.17272E+03  1.73852E+04  4.82807E+04 -3.42818E+04  4.73351E+04 -6.78784E+04  5.43504E+01
 -5.44048E+04 -5.72131E+04 -7.27749E+03 -7.81268E+04  3.48094E+04 -5.64020E+04  4.88170E+04 -1.81415E+04
  4.40718E+04  1.19138E+04  3.28522E+04  2.62483E+04  1.65122E+04  3.05404E+04 -5.57197E+03  2.75459E+04
 -2.24324E+04  1.18838E+04 -1.86293E+04 -5.11538E+03  7.09267E+03 -6.72623E+03  2.26969E+04  1.33365E+04
  7.06930E+03  3.61753E+04 -3.37469E+04  3.63282E+04 -6.50106E+04  2.00791E+03 -5.76383E+04 -4.40151E+04
 -1.28742E+04 -6.47429E+04  4.05721E+04 -4.65317E+04  6.01794E+04 -2.10483E+03  3.55704E+04  3.34350E+04
 -5.75613E+03  3.79780E+04 -3.13189E+04  1.75984E+04 -3.28196E+04 -3.07470E+03 -1.81976E+04 -1.12773E+04
 -9.30754E+03 -1.41197E+04 -1.05273E+03 -1.90295E+04  8.28797E+03 -2.37213E+04  1.53262E+04 -1.27687E+04
  1.12257E+04  5.88280E+03 -9.40670E+03  1.32757E+04 -2.27845E+04 -5.78527E+03 -8.56941E+03 -3.62813E+04
  2.40994E+04 -4.52427E+04  5.00548E+04 -2.00942E+04  4.72429E+04  2.03071E+04  1.60380E+04  4.62022E+04
 -1.64175E+04  3.55777E+04 -2.64999E+04  1.66569E+03 -1.10428E+04 -2.91222E+04  2.11710E+04 -3.58488E+04
  4.33896E+04 -9.60507E+03  3.84787E+04  2.45191E+04  1.96197E+04  4.97933E+04 -7.86560E+03  5.35584E+04
 -3.33345E+04  3.63577E+04 -4.50464E+04  1.06000E+04 -4.55942E+04 -1.74158E+04 -2.53851E+04 -4.04419E+04
  7.92547E+03 -3.99733E+04  3.29036E+04 -1.58969E+04  3.17724E+04  1.12371E+04  4.82014E+03  2.02955E+04
 -1.36770E+04  9.49611E+03 -1.11768E+04 -7.41651E+03  5.47499E+03 -1.11818E+04  1.85222E+04  6.26799E+03
  1.40509E+04  2.25757E+04 -5.42658E+03  2.66622E+04 -2.28577E+04  1.29711E+04 -2.95311E+04 -3.28198E+03
 -2.38853E+04 -1.81538E+04 -1.03756E+04 -2.31479E+04  3.98894E+03 -2.36761E+04  1.83980E+04 -2.06442E+04
  2.86909E+04 -1.34934E+04  3.62167E+04  3.98345E+03  2.61210E+04  2.27269E+04  4.07411E+03  3.97415E+04
 -1.87859E+04  3.24276E+04 -2.88713E+04  1.17652E+04 -2.17402E+04 -1.00682E+04 -3.61547E+03 -1.27480E+04
  9.94269E+02 -1.16280E+03 -6.81784E+03  8.38506E+03 -1.90108E+04  4.90053E+03 -1.87675E+04 -7.86860E+03
 -1.10172E+04 -2.18378E+04  6.11671E+03 -2.52141E+04  1.68512E+04 -1.86227E+04  2.13081E+04 -1.89491E+03
  1.37227E+04  1.54077E+04 -1.07611E+03  2.21237E+04 -1.59554E+04  1.20962E+04 -2.13367E+04 -4.95229E+03
 -1.63609E+04 -1.94907E+04 -1.36573E+03 -2.65990E+04  1.12928E+04 -2.11275E+04  2.18502E+04 -1.00311E+04
  2.00364E+04  3.77807E+02  1.45237E+04  4.31473E+03  7.57303E+03  4.39839E+02  1.17128E+04 -2.09131E+03
  1.97985E+04  2.35560E+03  2.26707E+04  1.73390E+04  1.52607E+04  3.44290E+04 -3.52592E+03  4.03111E+04
 -2.24307E+04  3.25110E+04 -3.78812E+04  1.68401E+04 -4.03435E+04 -2.92948E+03 -3.20536E+04 -2.37530E+04
 -1.36006E+04 -3.37025E+04  1.15556E+04 -2.95982E+04  2.52190E+04 -1.46470E+04  2.15918E+04  6.45978E+03
  7.76175E+03  1.67708E+04 -1.05529E+04  1.42749E+04 -1.86836E+04  2.34570E+03 -1.39850E+04 -1.13413E+04
  5.25403E+02 -1.77857E+04  9.36631E+03 -1.31164E+04  1.16200E+04 -8.45336E+02  3.73464E+03  7.57857E+03
 -7.62148E+03  3.34260E+03 -7.99337E+03 -6.36430E+03 -1.21561E+03 -1.61404E+04  1.16197E+04 -1.68465E+04
  2.08580E+04 -9.79485E+03  2.34998E+04  2.91484E+03  1.98635E+04  1.62252E+04  8.71039E+03  2.47919E+04
 -5.07189E+03  2.71041E+04 -1.81352E+04  1.68353E+04 -1.89624E+04  3.88527E+03 -1.31670E+04 -5.55737E+03
 -6.30139E+03 -6.15020E+03 -4.22691E+02  1.15742E+03 -3.04904E+03  3.39795E+03 -6.46797E+03  5.15533E+03
 -1.24961E+04 -1.02080E+03 -1.26326E+04 -1.03100E+04 -5.00171E+03 -1.70316E+04  5.51273E+03 -1.35892E+04
  1.16893E+04 -5.69462E+03  8.54966E+03  3.20623E+03 -3.77702E+02  5.92869E+03 -6.64812E+03  2.28654E+02
 -6.41902E+03 -9.22045E+03 -3.13191E+02 -1.39642E+04  7.85129E+03 -1.44895E+04  1.73324E+04 -7.31676E+03
  2.10481E+04  2.17470E+03  1.48124E+04  1.20175E+04  3.77519E+03  1.63785E+04 -7.91323E+03  1.36353E+04
 -1.13108E+04  3.97844E+03 -6.38981E+03 -2.98149E+03  2.27770E+03 -2.83668E+03  7.87334E+03 -1.97463E+03
  7.17447E+03  6.41710E+03  1.37044E+03  9.90964E+03 -7.90931E+03  1.03371E+04 -1.36292E+04  2.22215E+03
 -8.51629E+03 -7.84203E+03 -3.85008E+02 -1.15498E+04  8.07563E+03 -5.87879E+03  8.24474E+03  1.42504E+03
  2.23531E+03  7.68506E+03 -6.88003E+03  9.49639E+03 -1.10967E+04  4.32111E+03 -1.11259E+04 -3.59951E+03
 -7.07099E+03 -1.33981E+04  3.20647E+03 -1.48644E+04  1.29857E+04 -9.53081E+03  1.43075E+04  2.38177E+03
  8.06954E+03  1.06840E+04 -6.93607E+02  1.35210E+04 -9.75100E+03  7.96200E+03 -1.10027E+04 -5.55562E+02
 -9.33721E+03 -9.16629E+03 -1.52822E+03 -1.05629E+04  5.99502E+03 -8.14587E+03  6.22671E+03 -3.29958E+03
  4.88459E+03  1.43891E+03 -9.62026E+02  1.59187E+03 -7.47799E+02 -2.53603E+03  1.51399E+03 -6.01567E+03
  9.26995E+03 -3.41669E+03  1.35152E+04  1.47371E+03  1.30392E+04  9.11016E+03  9.44801E+03  1.68382E+04
 -4.04790E+03  1.96466E+04 -1.68330E+04  1.45831E+04 -2.12414E+04  2.75315E+03 -1.69777E+04 -6.96070E+03
 -8.01458E+03 -1.43562E+04 -1.13783E+03 -1.15913E+04  3.88116E+03 -7.21013E+03  4.08951E+03 -4.01000E+03
  2.52873E+03 -2.42694E+03  3.18629E+03 -3.17129E+03  5.50436E+03 -2.69596E+03  6.41894E+03 -1.15887E+03
  9.42069E+03  2.24944E+03  4.03803E+03  7.43375E+03 -1.87717E+03  8.94473E+03 -9.74659E+03  6.56361E+03
 -1.17095E+04 -1.46640E+03 -6.78480E+03 -8.49133E+03 -5.94672E+02 -1.25937E+04  6.83129E+03 -1.24587E+04
  1.37261E+04 -7.51229E+03  1.58464E+04  2.07700E+03  1.17218E+04  1.16708E+04  2.06133E+03  1.46676E+04
 -5.82616E+03  1.17412E+04 -8.24179E+03  4.26912E+03 -5.14317E+03 -1.74019E+03 -1.94785E+03 -1.33184E+03
 -9.48114E+02  5.01021E+02 -1.51053E+03  2.08890E+03 -4.52211E+03  2.84451E+03 -8.21446E+03 -6.46729E+02
 -5.57475E+03 -8.77865E+03  5.24509E+02 -1.21369E+04  7.10653E+03 -1.11329E+04  1.14553E+04 -2.83208E+03
  1.14581E+04  5.50789E+03  5.18946E+03  1.04649E+04 -3.10208E+03  1.18286E+04 -8.39320E+03  7.56770E+03
 -1.04281E+04  3.54336E+02 -8.95915E+03 -7.23242E+03 -3.53274E+02 -9.68814E+03  3.86695E+03 -6.79269E+03
  7.13822E+03 -2.00443E+03  4.86487E+03  1.55429E+03  2.17510E+03  2.58189E+03  1.32688E+03  1.40391E+03
  2.43833E+03  9.85323E+02  2.60736E+03  1.66934E+03  4.11707E+03  4.79323E+03  3.31497E+03  6.12855E+03
 -2.19548E+03  9.10796E+03 -8.13467E+03  9.44840E+03 -1.12989E+04  1.98552E+03 -1.19068E+04 -4.77131E+03
 -5.57819E+03 -1.20388E+04  1.79298E+03 -1.35617E+04  6.91058E+03 -7.75464E+03  9.55842E+03 -2.40015E+03
  7.52398E+03  4.98409E+03  1.51060E+03  7.54680E+03 -3.70420E+03  4.79538E+03 -5.02123E+03 -1.37373E+03
 -2.03786E+03 -5.42577E+03  3.01171E+03 -5.19256E+03  4.33817E+03 -2.63926E+03  4.86218E+03  8.26451E+02
  3.10977E+03  2.37294E+03  1.31105E+03  1.68226E+03 -6.76804E+02  2.00956E+03  1.65875E+03 -2.78886E+02
  1.18219E+03 -9.66449E+02  4.44487E+03  1.77338E+03  1.95443E+03  6.24953E+03 -5.27671E+02  8.48672E+03
 -5.44766E+03  5.11186E+03 -7.19420E+03  8.71500E+02 -6.21199E+03 -2.62510E+03 -1.57245E+03 -4.64898E+03
  8.17054E+02 -4.58065E+03  3.82281E+03 -2.48230E+03  1.51750E+03  2.40413E+03 -1.57589E+03  4.21635E+03
 -4.31020E+03  2.11769E+03 -5.17806E+03 -3.14598E+03 -3.20225E+03 -6.56513E+03  4.92683E+02 -6.38726E+03
  3.04460E+03 -2.80587E+03  4.32871E+03 -9.02101E+02  3.45444E+03  1.91696E+03  1.61117E+01  2.93916E+03
 -1.87122E+03  8.66251E+02 -2.82093E+03 -2.04825E+03  1.23071E+03 -4.75926E+03  5.27512E+03 -4.02942E+03
  6.71193E+03  7.90612E+02  6.66901E+03  4.80902E+03  2.93645E+03  7.72467E+03 -2.48858E+03  7.30369E+03
 -5.72545E+03  2.33953E+03 -5.60375E+03 -1.25073E+03 -3.81078E+03 -4.95671E+03  1.91734E+03 -4.36827E+03
  4.95121E+03 -2.33212E+03  4.39676E+03  1.98414E+03  7.12827E+02  4.31540E+03 -1.04237E+03  3.48468E+03
 -2.43696E+03  2.87194E+03 -1.51578E+03  1.30705E+03 -8.65957E+02  5.95772E+02 -1.27699E+03  1.69323E+03
 -1.63369E+03  3.36725E+03 -6.02853E+03  2.17213E+03 -7.03424E+03  4.94556E+02 -8.16395E+03 -4.57447E+03
 -4.50235E+03 -9.13379E+03  1.88930E+03 -1.06940E+04  7.15511E+03 -8.35306E+03  1.04392E+04 -3.52302E+03
  9.14973E+03  1.86313E+03  5.54520E+03  6.17605E+03  7.57978E+02  6.72286E+03 -2.48094E+03  5.88876E+03
 -3.89376E+03  1.70865E+03 -2.43861E+03 -1.23818E+03 -1.07529E+03 -5.38734E+02 -2.56489E+02 -4.23413E+02
 -1.65997E+03  5.80392E+01 -1.50891E+03 -1.50012E+03 -4.42904E+02 -2.08841E+03  2.02170E+02 -2.67865E+03
  3.07896E+03 -2.54703E+03  4.43066E+03  1.96447E+02  4.98338E+03  4.21842E+03  1.56833E+03  6.91521E+03
 -3.91456E+03  8.30623E+03 -7.36979E+03  4.26396E+03 -8.75084E+03 -2.37499E+02 -6.71820E+03 -5.50963E+03
 -2.07662E+03 -7.27770E+03  1.19445E+03 -6.67588E+03  4.57064E+03 -3.53460E+03  4.15988E+03  4.50480E+01
  2.75134E+03  2.34182E+03  3.95595E+02  2.13670E+03 -1.15591E+03 -2.65540E+02  3.33100E+02 -2.07962E+03
  2.73529E+03 -7.02489E+02  2.52868E+03  8.26058E+02  1.51176E+03  3.13653E+03 -1.32652E+00  3.66154E+03
 -3.68345E+03  3.94119E+03 -4.93121E+03 -2.21669E+02 -4.63211E+03 -3.87264E+03 -1.56933E+03 -5.42198E+03
  3.49938E+03 -4.48345E+03  5.08047E+03 -1.55287E+03  4.97895E+03  3.97398E+02  2.77187E+03  4.50222E+03
  1.64214E+03  4.43014E+03 -1.68540E+03  2.73356E+03 -3.20693E+03  2.39829E+03 -2.18808E+03  6.57004E+02
 -1.37978E+03  4.35837E+02 -1.22222E+03  9.21995E+02 -2.48024E+03  1.49548E+03 -3.89956E+03 -1.43043E+03
 -3.18107E+03 -2.47067E+03 -1.47692E+03 -5.02773E+03  2.62442E+03 -4.61401E+03  3.93608E+03 -2.04823E+03
  5.21465E+03  3.83308E+02  2.29854E+03  3.76303E+03 -5.12128E+02  4.32137E+03 -2.65197E+03  3.18921E+03
