 $NMID ID='MM_0lb_SNR400_10hz_g40_95.RAW', FMTDAT='(8E13.5)'
 TRAMP=1., VOLUME=1. $END
  3.09812E+05  6.91456E+02  3.37231E+05  2.50834E+05  8.47224E+04  3.38622E+05 -1.32887E+05  2.50927E+05
 -1.90744E+05  8.28365E+04 -1.12364E+05 -3.21497E+04  8.06415E+02 -5.13271E+04  5.41031E+04 -5.95528E+02
  3.60447E+04  5.27017E+04 -1.68050E+04  7.63599E+04 -6.11329E+04  6.49666E+04 -8.50995E+04  3.22682E+04
 -8.16708E+04 -1.12457E+04 -5.79527E+04 -5.21825E+04 -1.50154E+04 -7.08572E+04  2.79169E+04 -4.63299E+04
  4.04585E+04  3.21572E+03  1.64592E+04  4.91304E+04 -3.43998E+04  4.71611E+04 -6.77291E+04  4.51140E+01
 -5.40434E+04 -5.81245E+04 -7.35375E+03 -7.76072E+04  3.38448E+04 -5.55679E+04  4.89892E+04 -1.82314E+04
  4.43898E+04  1.19456E+04  3.25927E+04  2.57761E+04  1.59798E+04  3.05434E+04 -5.23156E+03  2.77762E+04
 -2.25582E+04  1.24887E+04 -1.91099E+04 -4.58350E+03  6.19927E+03 -6.97169E+03  2.31530E+04  1.33095E+04
  7.47603E+03  3.72309E+04 -3.24735E+04  3.67530E+04 -6.45164E+04  1.65837E+03 -5.78728E+04 -4.36551E+04
 -1.24585E+04 -6.45231E+04  4.05598E+04 -4.65615E+04  5.90848E+04 -2.50369E+03  3.57194E+04  3.45554E+04
 -5.92122E+03  3.78303E+04 -3.05149E+04  1.73301E+04 -3.26122E+04 -4.15509E+03 -1.85403E+04 -1.12644E+04
 -9.89458E+03 -1.44619E+04 -5.55683E+02 -1.86304E+04  8.35773E+03 -2.30009E+04  1.56906E+04 -1.31210E+04
  1.09772E+04  5.56571E+03 -9.47818E+03  1.30237E+04 -2.19941E+04 -6.85095E+03 -8.61900E+03 -3.51189E+04
  2.40718E+04 -4.54460E+04  4.99744E+04 -2.05204E+04  4.68978E+04  2.12424E+04  1.66161E+04  4.56236E+04
 -1.66093E+04  3.41405E+04 -2.68552E+04  2.01235E+03 -1.10503E+04 -2.90257E+04  2.15343E+04 -3.54332E+04
  4.33870E+04 -1.09923E+04  3.84477E+04  2.47375E+04  1.90900E+04  4.90227E+04 -8.34483E+03  5.40443E+04
 -3.36630E+04  3.61065E+04 -4.53390E+04  9.07739E+03 -4.56867E+04 -1.78127E+04 -2.50835E+04 -4.06772E+04
  7.17648E+03 -4.04352E+04  3.30934E+04 -1.56355E+04  3.09780E+04  1.01363E+04  4.74108E+03  2.04656E+04
 -1.48082E+04  8.94562E+03 -1.05809E+04 -7.39303E+03  5.54805E+03 -1.09949E+04  1.82809E+04  5.22775E+03
  1.45275E+04  2.24416E+04 -5.93388E+03  2.68476E+04 -2.29358E+04  1.38380E+04 -2.98496E+04 -3.60739E+03
 -2.27366E+04 -1.81984E+04 -9.95769E+03 -2.36052E+04  4.47622E+03 -2.26696E+04  1.84860E+04 -2.13342E+04
  2.95322E+04 -1.38928E+04  3.60388E+04  3.68028E+03  2.54394E+04  2.25930E+04  5.10112E+03  3.92269E+04
 -1.90517E+04  3.23627E+04 -2.96843E+04  1.16314E+04 -2.27575E+04 -9.00689E+03 -4.25536E+03 -1.26098E+04
  1.72168E+03 -2.76862E+03 -6.72280E+03  7.77990E+03 -1.85794E+04  4.69011E+03 -1.86276E+04 -8.74709E+03
 -1.14098E+04 -2.20540E+04  5.59832E+03 -2.59633E+04  1.78465E+04 -1.87539E+04  2.09517E+04 -1.50477E+03
  1.36595E+04  1.55023E+04 -1.38919E+03  2.18915E+04 -1.54710E+04  1.20537E+04 -2.21084E+04 -3.98047E+03
 -1.54693E+04 -1.92902E+04 -2.22856E+03 -2.61010E+04  1.18431E+04 -2.08705E+04  2.18856E+04 -1.10602E+04
  1.99410E+04 -2.03559E+02  1.42735E+04  4.75108E+03  7.63973E+03  1.30896E+03  1.18126E+04 -1.96815E+03
  2.05338E+04  2.78197E+03  2.26881E+04  1.72840E+04  1.55436E+04  3.38719E+04 -2.17219E+03  4.04005E+04
 -2.33008E+04  3.34242E+04 -3.81169E+04  1.72739E+04 -4.08783E+04 -2.31321E+03 -3.27899E+04 -2.31244E+04
 -1.35796E+04 -3.31142E+04  1.18015E+04 -2.97575E+04  2.55579E+04 -1.40266E+04  2.25671E+04  6.89189E+03
  7.49284E+03  1.67894E+04 -1.05560E+04  1.43436E+04 -1.81394E+04  3.15767E+03 -1.42915E+04 -1.13446E+04
 -6.87091E+02 -1.78109E+04  9.30176E+03 -1.24978E+04  1.14938E+04 -1.01159E+03  2.78749E+03  7.47786E+03
 -7.55131E+03  3.68653E+03 -8.14014E+03 -6.43989E+03 -1.82402E+03 -1.59759E+04  1.04560E+04 -1.79303E+04
  2.04838E+04 -9.64874E+03  2.36341E+04  3.53381E+03  2.00097E+04  1.60847E+04  9.83185E+03  2.61621E+04
 -4.63794E+03  2.76383E+04 -1.87002E+04  1.70277E+04 -2.00062E+04  3.88779E+03 -1.41482E+04 -4.81317E+03
 -5.88103E+03 -6.52223E+03 -1.04950E+03  1.06712E+03 -2.72954E+03  3.43880E+03 -6.17378E+03  5.57119E+03
 -1.27321E+04 -6.08568E+02 -1.39282E+04 -1.08074E+04 -4.81116E+03 -1.75883E+04  6.03750E+03 -1.42023E+04
  1.15006E+04 -5.45814E+03  8.61863E+03  4.24769E+03  5.05367E+02  5.88062E+03 -6.87921E+03  1.15063E+01
 -6.90902E+03 -8.76714E+03 -1.65608E+03 -1.33953E+04  7.79023E+03 -1.49712E+04  1.77855E+04 -7.30948E+03
  2.10465E+04  1.83588E+03  1.58980E+04  1.24057E+04  2.94240E+03  1.63972E+04 -9.31023E+03  1.37793E+04
 -1.16812E+04  3.99708E+03 -5.63408E+03 -2.27673E+03  1.84678E+03 -3.87865E+03  7.67101E+03 -1.13170E+03
  6.76655E+03  5.72630E+03  1.41564E+03  1.13622E+04 -7.79019E+03  1.16133E+04 -1.39281E+04  2.07368E+03
 -9.65288E+03 -7.45865E+03  1.09195E+02 -1.22514E+04  7.57930E+03 -6.16270E+03  8.05426E+03  2.60746E+03
  1.81253E+03  8.41502E+03 -7.33132E+03  1.00872E+04 -1.10588E+04  4.59235E+03 -1.12874E+04 -3.46193E+03
 -6.52712E+03 -1.38609E+04  4.20347E+03 -1.54991E+04  1.39868E+04 -1.00147E+04  1.48694E+04  2.21945E+03
  8.21458E+03  1.13915E+04 -7.78141E+02  1.40406E+04 -1.00586E+04  8.03448E+03 -1.09725E+04 -1.52856E+03
 -9.12969E+03 -9.22020E+03 -2.05425E+03 -1.08281E+04  5.10989E+03 -8.82626E+03  6.27497E+03 -3.34227E+03
  4.89852E+03  1.43035E+03 -1.29868E+03  1.79912E+03  2.09497E+02 -2.51612E+03  2.09996E+03 -6.19290E+03
  9.31785E+03 -4.46154E+03  1.37781E+04  1.16814E+03  1.30939E+04  9.88302E+03  9.63756E+03  1.80050E+04
 -5.00932E+03  2.10999E+04 -1.71838E+04  1.48734E+04 -2.21840E+04  4.11275E+03 -1.69319E+04 -7.66499E+03
 -8.56821E+03 -1.44004E+04 -2.15662E+02 -1.20976E+04  4.97393E+03 -6.64837E+03  4.59015E+03 -4.96837E+03
  2.76710E+03 -3.45415E+03  3.63095E+03 -3.44328E+03  4.80552E+03 -2.99554E+03  6.32815E+03 -1.63207E+03
  1.04527E+04  1.99782E+03  4.68403E+03  8.53182E+03 -2.07053E+03  9.43153E+03 -8.80569E+03  7.20159E+03
 -1.30213E+04 -1.93126E+03 -7.84423E+03 -8.69092E+03 -9.99940E+02 -1.31584E+04  7.77253E+03 -1.32735E+04
  1.33504E+04 -7.17714E+03  1.70305E+04  1.83389E+03  1.08139E+04  1.10017E+04  2.11316E+03  1.54664E+04
 -5.89611E+03  1.24772E+04 -9.38662E+03  6.01277E+03 -5.51194E+03 -1.07657E+03 -2.65170E+03 -1.76335E+03
 -6.59430E+02  1.96574E+02 -1.47329E+03  2.86600E+03 -6.13690E+03  2.25948E+03 -8.60494E+03 -1.02964E+03
 -5.72780E+03 -9.11111E+03  1.40127E+02 -1.15575E+04  7.50130E+03 -1.12965E+04  1.20381E+04 -2.94527E+03
  1.29107E+04  5.93628E+03  5.54834E+03  1.12880E+04 -2.64344E+03  1.26726E+04 -8.67772E+03  7.95372E+03
 -1.17198E+04  4.75728E+02 -1.02108E+04 -8.10919E+03 -1.15849E+03 -1.02536E+04  5.82393E+03 -7.57520E+03
  7.95628E+03 -2.56760E+03  5.27505E+03  2.11722E+03  1.58381E+03  4.06659E+03  2.44269E+02  1.12550E+03
  1.62869E+03  1.44136E+03  3.60097E+03  1.45443E+03  3.43368E+03  4.86025E+03  3.28677E+03  6.40840E+03
 -1.82174E+03  9.52702E+03 -8.60332E+03  1.02381E+04 -1.26743E+04  2.90779E+03 -1.22963E+04 -4.79866E+03
 -6.20067E+03 -1.20949E+04  1.70670E+03 -1.40212E+04  7.19316E+03 -8.71629E+03  1.06279E+04 -2.19053E+03
  6.76076E+03  4.00276E+03  2.06803E+03  7.11762E+03 -3.41344E+03  4.22929E+03 -4.75453E+03 -1.39169E+03
 -1.87941E+03 -5.01791E+03  3.27454E+03 -4.88953E+03  5.41904E+03 -2.44449E+03  4.99041E+03  1.29505E+03
  3.19487E+03  2.05410E+03  1.91390E+03  2.39107E+03 -1.12397E+03  1.43165E+03  2.37195E+03 -5.87717E+02
  1.88979E+03 -9.09354E+02  5.67021E+03  1.83473E+03  2.29736E+03  6.87603E+03 -1.79510E+03  8.21568E+03
 -5.48011E+03  5.41777E+03 -9.20963E+03  1.71565E+03 -7.24035E+03 -3.14286E+03 -4.11719E+03 -5.55277E+03
  3.39539E+02 -5.24105E+03  3.42265E+03 -2.44237E+03  2.70242E+03  1.70314E+03 -1.56101E+03  4.51312E+03
 -5.41285E+03  1.91626E+03 -5.28577E+03 -3.00932E+03 -3.26202E+03 -6.91426E+03  5.66763E+02 -7.11070E+03
  4.50766E+03 -4.03641E+03  4.60604E+03 -7.84877E+02  3.81645E+03  2.40124E+03  8.82144E+02  3.75134E+03
 -1.86714E+03  4.45267E+02 -2.95376E+03 -1.54477E+03  1.21456E+03 -5.32266E+03  6.23433E+03 -4.08492E+03
  7.55686E+03  8.53670E+02  7.37845E+03  5.15425E+03  2.89344E+03  8.54243E+03 -3.44603E+03  7.02393E+03
 -6.47152E+03  3.28044E+03 -7.17184E+03 -1.18725E+03 -3.21211E+03 -4.05399E+03  1.25171E+03 -4.43732E+03
  4.84053E+03 -2.83009E+03  4.18543E+03  1.86767E+03  9.21305E+02  4.70794E+03 -6.52749E+02  3.63015E+03
 -2.16253E+03  2.92016E+03 -1.61869E+03  1.55425E+02 -1.06477E+03  1.16793E+03 -1.69608E+03  7.99729E+02
 -1.98737E+03  3.55917E+03 -5.75393E+03  2.79921E+03 -7.25184E+03  6.32344E+01 -8.99118E+03 -5.51342E+03
 -5.22428E+03 -1.02567E+04  1.85322E+03 -1.18997E+04  7.77618E+03 -9.30811E+03  1.06734E+04 -3.59385E+03
  1.08851E+04  2.58954E+03  6.08770E+03  7.45681E+03  6.95332E+02  8.06839E+03 -3.97490E+03  6.15426E+03
 -4.80273E+03  2.95681E+03 -2.31205E+03 -9.54763E+02 -5.08471E+02 -4.65189E+02 -7.36619E+02  6.15070E+02
 -1.73257E+03  7.76559E+02 -1.80110E+03 -2.12603E+02  3.22397E+02 -2.29208E+03  1.51345E+01 -3.62921E+03
  4.27927E+03 -1.21081E+03  4.18530E+03 -2.25821E+01  6.16389E+03  5.14507E+03  1.29746E+03  7.97976E+03
 -3.73044E+03  9.74339E+03 -8.66367E+03  4.88542E+03 -1.02782E+04 -1.86712E+01 -7.48945E+03 -6.34305E+03
 -3.58577E+03 -8.17951E+03  2.49868E+03 -7.32184E+03  5.65336E+03 -4.25412E+03  4.85629E+03  3.01396E+02
  3.21283E+03  2.47004E+03  2.66811E+02  2.34815E+03 -1.58580E+03  7.54134E+02 -7.71015E+02 -2.11454E+03
  1.72136E+03 -9.14885E+02  3.37794E+03  1.58752E+03  1.40887E+03  3.44432E+03  2.94136E+02  5.06065E+03
 -3.44745E+03  3.51573E+03 -5.66019E+03  2.01976E+02 -4.57256E+03 -3.07896E+03 -7.43762E+02 -6.54573E+03
  3.66495E+03 -5.51582E+03  5.86588E+03 -1.20596E+03  5.56313E+03  1.81143E+03  3.39792E+03  5.33910E+03
  8.74061E+02  5.44077E+03 -2.25737E+03  4.39237E+03 -3.81427E+03  2.22461E+03 -2.89342E+03  1.22823E+02
 -1.63709E+03 -3.94865E+02 -2.07640E+03  7.85656E+02 -3.05035E+03  7.28069E+02 -4.40865E+03 -1.19005E+03
 -4.22917E+03 -3.27070E+03 -1.04200E+03 -6.00795E+03  2.35623E+03 -6.23290E+03  5.17957E+03 -2.55323E+03
  5.59468E+03  2.70383E+02  2.71273E+03  3.46470E+03 -1.66482E+02  4.68670E+03 -4.29738E+03  3.38599E+03
