 $NMID ID='MM_0lb_SNR400_16hz_g60_7.RAW', FMTDAT='(8E13.5)'
 TRAMP=1., VOLUME=1. $END
  3.09538E+05  2.56497E+02  3.37859E+05  2.50268E+05  8.50035E+04  3.37853E+05 -1.32900E+05  2.51101E+05
 -1.90481E+05  8.33067E+04 -1.12307E+05 -3.26390E+04  4.90624E+02 -5.07978E+04  5.36824E+04 -5.35702E+01
  3.51768E+04  5.29737E+04 -1.70368E+04  7.54941E+04 -6.07205E+04  6.44785E+04 -8.42503E+04  3.21644E+04
 -8.15672E+04 -1.15779E+04 -5.77610E+04 -5.17376E+04 -1.43914E+04 -6.93676E+04  2.77506E+04 -4.62019E+04
  3.95706E+04  3.88579E+03  1.59252E+04  4.79399E+04 -3.44792E+04  4.73415E+04 -6.70253E+04 -4.70857E+02
 -5.37174E+04 -5.69436E+04 -7.12956E+03 -7.71398E+04  3.34137E+04 -5.54897E+04  4.72063E+04 -1.78463E+04
  4.33532E+04  1.15785E+04  3.15934E+04  2.54192E+04  1.50377E+04  2.95687E+04 -5.49471E+03  2.73934E+04
 -2.27029E+04  1.25908E+04 -1.91662E+04 -5.21970E+03  5.55641E+03 -7.22942E+03  2.24207E+04  1.21207E+04
  7.10420E+03  3.54266E+04 -3.26188E+04  3.56522E+04 -6.35867E+04  1.94669E+03 -5.71379E+04 -4.36337E+04
 -1.29714E+04 -6.26743E+04  3.96341E+04 -4.58654E+04  5.85048E+04 -2.24244E+03  3.38699E+04  3.26228E+04
 -6.27282E+03  3.56988E+04 -3.00246E+04  1.56548E+04 -2.99394E+04 -4.35622E+03 -1.76637E+04 -1.13042E+04
 -8.79511E+03 -1.36853E+04 -9.01867E+02 -1.81884E+04  7.21857E+03 -2.30033E+04  1.55617E+04 -1.32910E+04
  1.15775E+04  4.80238E+03 -8.52070E+03  1.29710E+04 -2.09822E+04 -4.26181E+03 -8.24220E+03 -3.37054E+04
  2.25288E+04 -4.31983E+04  4.84504E+04 -1.94669E+04  4.51139E+04  1.95712E+04  1.53784E+04  4.39323E+04
 -1.55158E+04  3.33518E+04 -2.51192E+04  1.69177E+03 -9.70377E+03 -2.79487E+04  2.13610E+04 -3.39269E+04
  4.10722E+04 -8.69161E+03  3.55887E+04  2.35795E+04  1.83739E+04  4.56916E+04 -7.58484E+03  5.02045E+04
 -3.15920E+04  3.32170E+04 -4.24048E+04  9.88206E+03 -4.23134E+04 -1.58651E+04 -2.28279E+04 -3.79254E+04
  7.22514E+03 -3.76785E+04  3.15327E+04 -1.46601E+04  2.92116E+04  1.06868E+04  3.85508E+03  1.87987E+04
 -1.30765E+04  8.47389E+03 -1.05152E+04 -7.02337E+03  6.24186E+03 -1.10716E+04  1.83640E+04  5.99352E+03
  1.34167E+04  2.20629E+04 -6.27398E+03  2.40508E+04 -2.19602E+04  1.16544E+04 -2.79136E+04 -5.06762E+03
 -2.01487E+04 -1.74133E+04 -8.22300E+03 -1.96668E+04  4.34438E+03 -1.88776E+04  1.61581E+04 -1.79092E+04
  2.58270E+04 -1.35156E+04  3.22389E+04  2.40549E+03  2.38873E+04  1.92541E+04  3.85331E+03  3.59057E+04
 -1.74173E+04  2.97858E+04 -2.80631E+04  1.01727E+04 -2.07085E+04 -1.06638E+04 -3.93522E+03 -1.34438E+04
  2.08218E+03 -3.05744E+03 -5.07357E+03  6.35746E+03 -1.57115E+04  4.80799E+03 -1.65640E+04 -6.25563E+03
 -9.80551E+03 -1.80804E+04  5.31949E+03 -2.31194E+04  1.50215E+04 -1.60432E+04  1.81230E+04 -1.66779E+03
  1.04283E+04  1.30095E+04 -8.89394E+02  1.87295E+04 -1.21991E+04  1.07296E+04 -1.90951E+04 -3.73486E+03
 -1.39016E+04 -1.64537E+04 -1.88128E+03 -2.24399E+04  1.05675E+04 -1.82044E+04  1.87399E+04 -8.84655E+03
  1.83236E+04 -4.33327E+02  1.23534E+04  4.65146E+03  6.65022E+03  1.42042E+03  9.20821E+03 -1.55971E+03
  1.67071E+04  2.80284E+03  1.85053E+04  1.50143E+04  1.25834E+04  2.94555E+04 -2.84415E+03  3.33866E+04
 -1.93648E+04  2.67498E+04 -3.10222E+04  1.29963E+04 -3.16664E+04 -2.67982E+03 -2.73494E+04 -1.90691E+04
 -1.19937E+04 -2.65728E+04  9.82513E+03 -2.41349E+04  2.06608E+04 -1.25190E+04  1.92850E+04  5.17361E+03
  6.81649E+03  1.33419E+04 -8.19612E+03  1.18271E+04 -1.54044E+04  2.68714E+03 -1.22027E+04 -1.00754E+04
  2.17774E+02 -1.50974E+04  7.80883E+03 -1.14453E+04  9.72340E+03 -1.43289E+03  1.72440E+03  6.06466E+03
 -6.83219E+03  2.32307E+03 -5.37718E+03 -5.53434E+03 -5.51210E+02 -1.22681E+04  9.09124E+03 -1.40792E+04
  1.62701E+04 -6.94232E+03  1.69265E+04  2.48006E+03  1.49139E+04  1.27521E+04  6.90626E+03  1.94502E+04
 -3.07094E+03  2.08848E+04 -1.35766E+04  1.37041E+04 -1.56508E+04  3.33418E+03 -1.14616E+04 -2.99638E+03
 -5.10582E+03 -3.95413E+03 -3.73605E+02  1.63332E+03 -2.24390E+03  2.03910E+03 -5.34780E+03  4.10661E+03
 -1.01211E+04 -4.13185E+02 -1.04356E+04 -8.26978E+03 -4.70017E+03 -1.36494E+04  4.07400E+03 -1.10356E+04
  8.84212E+03 -4.64795E+03  6.82281E+03  3.17184E+03  6.25716E+02  3.93512E+03 -4.53743E+03 -2.26239E+02
 -5.13535E+03 -6.84681E+03 -8.74412E+02 -9.79749E+03  5.40460E+03 -1.11701E+04  1.30130E+04 -5.71718E+03
  1.56541E+04  1.64117E+03  1.12331E+04  8.43513E+03  1.75762E+03  1.22797E+04 -6.53381E+03  1.05534E+04
 -8.65567E+03  3.11995E+03 -4.21287E+03 -2.30044E+03  1.65337E+03 -2.57865E+03  5.38681E+03 -1.21089E+03
  5.24234E+03  4.81212E+03  1.19086E+03  8.37113E+03 -5.79724E+03  8.12393E+03 -9.98930E+03  2.30201E+03
 -6.38818E+03 -5.11155E+03  2.65996E+02 -8.66983E+03  5.15838E+03 -4.27192E+03  5.52083E+03  2.25399E+03
  1.26224E+03  5.20420E+03 -5.60527E+03  6.48269E+03 -7.58683E+03  2.81738E+03 -7.43722E+03 -2.57842E+03
 -4.60002E+03 -8.36296E+03  1.64934E+03 -9.83259E+03  8.66446E+03 -6.54309E+03  9.62077E+03  1.53467E+03
  5.92985E+03  7.57585E+03 -2.34182E+02  9.75922E+03 -7.29955E+03  5.36512E+03 -6.88803E+03 -7.24711E+02
 -7.04479E+03 -6.58393E+03 -1.48494E+03 -6.54497E+03  4.11943E+03 -5.47786E+03  4.03330E+03 -2.90351E+03
  3.23285E+03  7.27727E+02  1.69744E+02  1.24867E+03  5.67781E+02 -6.52292E+02  4.14830E+02 -3.60294E+03
  6.22924E+03 -1.39072E+03  8.64206E+03  1.36370E+03  8.15935E+03  5.37406E+03  6.18866E+03  1.08391E+04
 -2.10612E+03  1.25533E+04 -1.11172E+04  9.20591E+03 -1.35294E+04  2.00024E+03 -1.14495E+04 -3.63808E+03
 -5.86541E+03 -8.86622E+03 -2.16136E+02 -7.00078E+03  3.41455E+03 -3.74755E+03  2.59379E+03 -2.79922E+03
  1.97933E+03 -1.78890E+03  2.74727E+03 -2.37938E+03  3.30741E+03 -1.74121E+03  5.00174E+03  1.08256E+02
  5.72907E+03  1.55716E+03  2.52532E+03  5.11588E+03 -1.59378E+03  5.16407E+03 -5.84862E+03  4.19081E+03
 -7.85867E+03 -7.36714E+02 -3.49727E+03 -4.71994E+03  1.02392E+02 -7.14877E+03  4.26119E+03 -7.38618E+03
  7.68303E+03 -4.62550E+03  1.04793E+04  6.45196E+02  6.76169E+03  6.58130E+03  1.50896E+03  8.81769E+03
 -3.21935E+03  7.71040E+03 -5.08675E+03  3.02754E+03 -2.97178E+03 -1.37407E+03 -1.11425E+03 -1.75596E+03
 -3.33927E+02  3.94765E+02 -1.05145E+03  1.79159E+03 -3.72262E+03  1.49885E+03 -6.31009E+03 -6.67968E+02
 -2.53080E+03 -5.16023E+03  8.40570E+02 -6.77518E+03  4.09169E+03 -6.69877E+03  6.04778E+03 -2.31643E+03
  6.47259E+03  2.90328E+03  2.58083E+03  5.81535E+03 -1.19790E+03  7.09395E+03 -4.14000E+03  4.03324E+03
 -6.43796E+03  2.16826E+02 -4.69743E+03 -3.51419E+03 -8.48239E+02 -4.87753E+03  2.63282E+03 -3.69079E+03
  4.00452E+03 -1.88075E+03  2.44030E+03  8.71451E+02  3.06586E+02  2.03831E+03  7.71298E+02  6.99146E+02
  1.79130E+03  8.43154E+02  1.31019E+03  1.39044E+03  1.99931E+03  2.64232E+03  2.50559E+03  3.26770E+03
 -8.37885E+02  5.36981E+03 -3.84563E+03  5.89041E+03 -5.88778E+03  1.70348E+03 -6.96724E+03 -1.51086E+03
 -3.56083E+03 -5.83091E+03  1.21401E+03 -6.43621E+03  3.25409E+03 -4.01511E+03  5.34758E+03 -1.68319E+03
  3.81123E+03  2.86296E+03  7.53710E+02  3.30681E+03 -1.83995E+03  2.29023E+03 -2.03956E+03 -1.27184E+02
 -1.18556E+03 -2.14544E+03  1.76989E+03 -2.36976E+03  2.06573E+03 -2.09613E+03  2.06824E+03  1.96060E+01
  1.69431E+03  7.12571E+02  1.10643E+03  1.35605E+01 -1.12745E+02  8.45892E+02  1.53397E+03 -1.40061E+02
  8.57831E+02 -3.86215E+02  2.78516E+03  1.35192E+03  8.83213E+02  3.15472E+03 -7.21783E+02  3.88810E+03
 -2.97796E+03  2.13320E+03 -3.42631E+03  3.21302E+02 -3.08374E+03 -1.44271E+03 -7.65077E+02 -1.11605E+03
  6.58994E+02 -2.45299E+03  8.24337E+02 -1.48114E+03  1.54736E+03  1.08280E+03 -7.42924E+02  1.64942E+03
 -1.76668E+03  1.20664E+03 -2.55308E+03 -1.82909E+03 -1.31586E+03 -2.90415E+03  5.02792E+02 -2.47090E+03
  1.41400E+03 -7.16180E+02  1.39047E+03  4.26681E+02  1.66124E+03  3.59853E+02  9.09513E+02  2.19983E+03
 -1.53554E+02  3.41255E+02 -1.21603E+03 -5.19221E+02  4.23392E+02 -1.76502E+03  3.07392E+03 -1.50658E+03
  2.41699E+03  1.54576E+02  3.58752E+03  1.67794E+03  1.39666E+03  3.06809E+03 -8.03686E+02  2.18948E+03
 -2.32319E+03  9.09984E+02 -2.98464E+03 -8.00738E+02 -1.50964E+03 -2.12354E+03  4.98928E+02 -1.59635E+03
  2.44931E+03 -5.69698E+02  1.18701E+03  3.08740E+02  1.55535E+02  2.27942E+03 -5.59881E+01  1.13557E+03
 -7.52102E+02  1.82937E+03 -1.03094E+03  4.86982E+02  7.87820E+01  4.58643E+02 -2.28764E+02  2.35340E+02
 -8.21302E+02  1.27346E+03 -2.51185E+03  3.20909E+01 -2.35591E+03  1.58695E+02 -3.02165E+03 -1.97719E+03
 -1.75790E+03 -4.19438E+03  1.04145E+03 -4.44631E+03  2.25437E+03 -3.54861E+03  4.24952E+03 -1.60437E+03
  4.26172E+03 -4.35986E+02  1.85899E+03  2.50448E+03 -7.55645E+02  2.79269E+03 -1.25631E+03  2.65018E+03
 -1.68275E+03  1.21731E+03 -9.07236E+02 -8.02205E+02 -3.49731E+02  5.57395E+02 -4.81835E+01  1.09221E+02
 -1.45683E+03  3.44329E+02 -1.02542E+03  4.23819E+02 -2.06992E+02 -4.53216E+02 -3.19996E+02 -1.34506E+03
  1.86325E+03 -6.27882E+01  1.47945E+03 -5.41855E+00  2.08553E+03  7.37636E+02 -3.64260E+00  2.54628E+03
 -1.02895E+03  3.54267E+03 -2.62037E+03  1.49627E+03 -3.45334E+03 -8.10813E+02 -1.91954E+03 -2.67428E+03
 -9.20693E+02 -1.62319E+03  6.33055E+02 -1.97070E+03  1.29227E+03 -1.05633E+03  1.38456E+03  2.97882E+02
  1.04254E+03  4.26018E+02  2.16405E+02  1.42652E+03 -9.86018E+02 -2.51484E+02  2.55293E+02 -3.36025E+02
  6.46684E+02 -1.02224E+02  5.95247E+02  8.47312E+02  3.31952E+02  3.04486E+02  5.78783E+02  7.48608E+02
 -9.11573E+02  1.12108E+03 -1.50801E+03  7.41251E+02 -1.49235E+03 -8.13177E+02 -5.86150E+02 -1.62376E+03
  9.44531E+02 -1.25119E+03  1.24854E+03 -2.54203E+02  2.00874E+03 -9.21796E+02  6.83062E+02  9.55897E+02
  6.13100E+02  9.73543E+02 -3.03881E+02  1.44183E+03 -9.47681E+02  1.05228E+03 -1.25975E+03 -2.38302E+02
 -9.64755E+01  1.10624E+02 -1.08287E+03  2.27688E+02 -1.02952E+03 -4.62879E+01 -1.61584E+03 -1.33936E+02
 -1.69688E+03 -3.04415E+02 -7.82353E+02 -8.16017E+02  1.22361E+03 -2.10607E+03  1.04342E+03 -8.02137E+02
  4.92147E+02  2.25384E+01  5.17729E+01  7.93089E+02 -7.72123E+02  1.41524E+03 -2.21724E+02  6.26243E+02
