 $NMID ID='MM_0lb_SNR400_11hz_g60_84.RAW', FMTDAT='(8E13.5)'
 TRAMP=1., VOLUME=1. $END
  3.09714E+05 -3.31026E+02  3.38595E+05  2.50469E+05  8.52817E+04  3.39417E+05 -1.32903E+05  2.52125E+05
 -1.90580E+05  8.37575E+04 -1.12132E+05 -3.23497E+04  4.86714E+02 -5.13315E+04  5.38464E+04 -6.26343E+02
  3.50355E+04  5.26204E+04 -1.57991E+04  7.59796E+04 -6.13916E+04  6.42372E+04 -8.57039E+04  3.24869E+04
 -8.30440E+04 -1.17249E+04 -5.83258E+04 -5.27672E+04 -1.45806E+04 -7.14386E+04  2.82305E+04 -4.69289E+04
  4.02536E+04  3.96235E+03  1.67474E+04  4.88420E+04 -3.45762E+04  4.78399E+04 -6.81827E+04 -1.24118E+02
 -5.48512E+04 -5.72685E+04 -7.64291E+03 -7.81916E+04  3.46192E+04 -5.67180E+04  4.91009E+04 -1.79656E+04
  4.46090E+04  1.09961E+04  3.31612E+04  2.59398E+04  1.59568E+04  3.13876E+04 -6.12291E+03  2.81076E+04
 -2.24744E+04  1.20976E+04 -1.80999E+04 -5.63275E+03  6.64233E+03 -7.14459E+03  2.27471E+04  1.32486E+04
  6.52429E+03  3.74432E+04 -3.39793E+04  3.68372E+04 -6.56709E+04  1.76187E+03 -5.85830E+04 -4.39533E+04
 -1.24576E+04 -6.55090E+04  4.07902E+04 -4.68864E+04  6.06079E+04 -2.39234E+03  3.64183E+04  3.35507E+04
 -5.26084E+03  3.88877E+04 -3.18557E+04  1.78011E+04 -3.33153E+04 -3.77209E+03 -1.90698E+04 -1.26953E+04
 -9.39552E+03 -1.43828E+04 -1.74699E+02 -1.88140E+04  8.64584E+03 -2.40890E+04  1.64242E+04 -1.31597E+04
  1.08591E+04  6.04352E+03 -1.00078E+04  1.26861E+04 -2.31357E+04 -6.03712E+03 -8.24654E+03 -3.72352E+04
  2.39404E+04 -4.65776E+04  5.12313E+04 -2.15501E+04  4.81172E+04  2.08780E+04  1.78173E+04  4.65569E+04
 -1.77109E+04  3.57268E+04 -2.71798E+04  3.49921E+03 -1.23900E+04 -2.92461E+04  2.11302E+04 -3.62605E+04
  4.45231E+04 -1.08857E+04  3.95781E+04  2.48108E+04  2.15188E+04  4.97767E+04 -7.96659E+03  5.57215E+04
 -3.44981E+04  3.82047E+04 -4.66104E+04  1.10786E+04 -4.67714E+04 -1.84806E+04 -2.55444E+04 -4.10599E+04
  7.51367E+03 -4.15205E+04  3.40652E+04 -1.62464E+04  3.19671E+04  1.08270E+04  4.94586E+03  2.11155E+04
 -1.42203E+04  9.56808E+03 -1.12568E+04 -7.66654E+03  5.71956E+03 -1.23795E+04  1.88516E+04  5.60145E+03
  1.44940E+04  2.24094E+04 -4.62678E+03  2.70290E+04 -2.36111E+04  1.37996E+04 -3.20152E+04 -3.15756E+03
 -2.45839E+04 -1.81984E+04 -1.10467E+04 -2.45393E+04  4.63117E+03 -2.45256E+04  1.95140E+04 -2.26385E+04
  3.10786E+04 -1.48654E+04  3.68164E+04  3.84387E+03  2.63186E+04  2.39623E+04  5.07089E+03  4.00779E+04
 -1.94964E+04  3.27563E+04 -3.02819E+04  1.16578E+04 -2.21973E+04 -9.95717E+03 -4.69271E+03 -1.38886E+04
  3.71144E+02 -2.01638E+03 -6.75272E+03  8.40931E+03 -1.93325E+04  5.13504E+03 -1.99349E+04 -9.07090E+03
 -1.19067E+04 -2.31485E+04  5.47299E+03 -2.66686E+04  1.76067E+04 -1.89200E+04  2.19597E+04 -1.14586E+03
  1.47010E+04  1.52344E+04 -2.06552E+03  2.19098E+04 -1.55053E+04  1.31398E+04 -2.29491E+04 -4.19676E+03
 -1.74000E+04 -2.05732E+04 -2.59402E+03 -2.71977E+04  1.30225E+04 -2.25889E+04  2.24393E+04 -1.13711E+04
  2.15612E+04  1.67296E+02  1.50142E+04  5.25412E+03  8.94778E+03  1.31598E+03  1.16221E+04 -2.04985E+03
  2.14197E+04  3.06639E+03  2.46712E+04  1.71478E+04  1.65564E+04  3.60688E+04 -2.33381E+03  4.22426E+04
 -2.46154E+04  3.51608E+04 -4.03297E+04  1.87690E+04 -4.23880E+04 -3.11384E+03 -3.44328E+04 -2.54052E+04
 -1.42346E+04 -3.51602E+04  1.28172E+04 -3.08214E+04  2.67037E+04 -1.46701E+04  2.31740E+04  7.55845E+03
  7.88087E+03  1.79505E+04 -1.05966E+04  1.50485E+04 -1.96901E+04  2.63003E+03 -1.51015E+04 -1.26446E+04
  4.15548E+02 -1.83765E+04  9.43420E+03 -1.42637E+04  1.25971E+04 -1.32868E+03  2.60990E+03  8.58373E+03
 -8.62468E+03  4.11382E+03 -8.56581E+03 -6.47636E+03 -9.76787E+02 -1.71586E+04  1.13379E+04 -1.84006E+04
  2.22820E+04 -1.06695E+04  2.48057E+04  3.68499E+03  2.21065E+04  1.76040E+04  9.33463E+03  2.69404E+04
 -5.49917E+03  2.87359E+04 -1.87132E+04  1.75566E+04 -2.07101E+04  3.39421E+03 -1.49420E+04 -5.13868E+03
 -5.68934E+03 -6.17620E+03 -4.48020E+02  8.00650E+02 -3.49078E+03  3.58361E+03 -6.69709E+03  5.41058E+03
 -1.33607E+04 -1.06121E+03 -1.38982E+04 -1.11008E+04 -5.88037E+03 -1.80688E+04  6.31772E+03 -1.47236E+04
  1.17266E+04 -6.24321E+03  8.60874E+03  3.45498E+03 -2.02562E+01  5.77832E+03 -7.95719E+03 -4.29388E+02
 -6.88244E+03 -9.36344E+03 -1.19730E+03 -1.37318E+04  7.98053E+03 -1.50648E+04  1.90260E+04 -7.37548E+03
  2.26522E+04  2.32219E+03  1.64600E+04  1.27129E+04  3.03206E+03  1.71028E+04 -8.35359E+03  1.45649E+04
 -1.20800E+04  4.32197E+03 -6.69880E+03 -3.22723E+03  2.84491E+03 -4.16064E+03  8.17485E+03 -8.00129E+02
  7.18156E+03  6.37975E+03  1.15953E+03  1.20573E+04 -8.73431E+03  1.12020E+04 -1.44214E+04  2.67112E+03
 -9.73762E+03 -7.25790E+03  3.54344E+02 -1.26708E+04  8.41599E+03 -6.16317E+03  7.79145E+03  2.60888E+03
  1.91771E+03  9.46981E+03 -7.41259E+03  1.04441E+04 -1.25495E+04  4.88488E+03 -1.24734E+04 -4.22952E+03
 -7.42711E+03 -1.33773E+04  3.27565E+03 -1.59301E+04  1.41841E+04 -1.03694E+04  1.49598E+04  2.76669E+03
  9.26076E+03  1.09966E+04 -1.27964E+03  1.41148E+04 -1.04710E+04  8.32278E+03 -1.16601E+04 -8.63568E+02
 -1.01840E+04 -1.04561E+04 -2.63238E+03 -1.02804E+04  5.15687E+03 -8.72343E+03  6.41079E+03 -3.91531E+03
  4.81702E+03  2.13335E+03 -5.42859E+02  1.78495E+03  5.89021E+02 -2.59388E+03  2.44049E+03 -6.76512E+03
  1.04579E+04 -4.69158E+03  1.43618E+04  1.30918E+03  1.36336E+04  9.61124E+03  1.04190E+04  1.83641E+04
 -4.23862E+03  2.08524E+04 -1.73405E+04  1.59062E+04 -2.30102E+04  3.28673E+03 -1.84865E+04 -7.62565E+03
 -9.28141E+03 -1.48032E+04 -3.70022E+02 -1.20128E+04  4.36333E+03 -7.59424E+03  4.27318E+03 -5.09035E+03
  3.12898E+03 -2.50619E+03  4.02659E+03 -3.77694E+03  5.38620E+03 -2.62671E+03  6.97607E+03 -2.43285E+02
  9.23647E+03  1.99846E+03  4.72387E+03  7.77332E+03 -2.53338E+03  9.71582E+03 -9.68233E+03  7.79233E+03
 -1.36411E+04 -1.31353E+03 -7.35184E+03 -9.10820E+03 -5.89584E+02 -1.34697E+04  7.46622E+03 -1.40516E+04
  1.40005E+04 -7.23595E+03  1.70270E+04  2.08891E+03  1.20016E+04  1.15827E+04  2.12108E+03  1.49745E+04
 -6.01424E+03  1.28046E+04 -8.87383E+03  4.45624E+03 -6.71568E+03 -2.04809E+03 -3.50237E+03 -1.58374E+03
 -1.64658E+03  5.97298E+01 -2.69124E+03  3.11800E+03 -5.30163E+03  2.23525E+03 -8.34208E+03 -1.66695E+03
 -6.78163E+03 -9.25141E+03 -1.21668E+02 -1.32291E+04  7.83976E+03 -1.15759E+04  1.20403E+04 -3.47730E+03
  1.30549E+04  6.23659E+03  6.23777E+03  1.09085E+04 -2.23695E+03  1.29705E+04 -9.75742E+03  8.28083E+03
 -1.15710E+04  8.06653E+02 -9.39111E+03 -7.00045E+03 -6.02095E+02 -1.00032E+04  5.52371E+03 -7.89124E+03
  8.34137E+03 -2.38933E+03  5.86068E+03  2.64068E+03  2.19070E+03  3.29514E+03  1.26427E+03  1.29155E+03
  2.71429E+03  1.25928E+02  2.90986E+03  1.95165E+03  3.59127E+03  4.42381E+03  3.34085E+03  6.83806E+03
 -2.80359E+03  1.00149E+04 -8.04369E+03  1.01142E+04 -1.26729E+04  2.79931E+03 -1.36688E+04 -5.12131E+03
 -5.65482E+03 -1.28681E+04  2.58181E+03 -1.40941E+04  7.52449E+03 -8.61602E+03  1.03926E+04 -2.80236E+03
  7.39927E+03  4.50692E+03  1.80582E+03  7.24418E+03 -4.02290E+03  4.75777E+03 -5.99702E+03 -3.71257E+02
 -2.34517E+03 -5.98015E+03  3.31742E+03 -5.44116E+03  5.36118E+03 -2.43353E+03  4.79219E+03  1.24436E+03
  2.95128E+03  2.87895E+03  1.31136E+03  2.50258E+03 -6.98678E+02  1.70537E+03  2.31487E+03 -1.66160E+03
  1.90837E+03 -1.04442E+03  5.19209E+03  1.22889E+03  2.62499E+03  6.22082E+03 -1.31473E+03  9.00801E+03
 -6.29212E+03  5.50266E+03 -7.67807E+03  2.05987E+03 -7.68112E+03 -2.38371E+03 -2.82787E+03 -4.73088E+03
  5.12706E+02 -4.94485E+03  3.29422E+03 -2.91280E+03  3.28670E+03  2.54640E+03 -1.30878E+03  3.91588E+03
 -4.80179E+03  1.49902E+03 -5.35985E+03 -3.42798E+03 -3.04563E+03 -7.31993E+03  9.66049E+02 -6.58233E+03
  4.24951E+03 -2.75318E+03  4.23761E+03 -5.12092E+02  4.06722E+03  1.52942E+03  8.83996E+02  4.13521E+03
 -2.41537E+03  7.45250E+02 -3.75239E+03 -2.19518E+03  8.31478E+00 -5.08148E+03  6.24469E+03 -4.25877E+03
  7.92582E+03  6.11938E+02  7.06066E+03  4.98750E+03  2.36168E+03  7.76027E+03 -2.89809E+03  7.57412E+03
 -6.42641E+03  2.80747E+03 -6.58474E+03 -2.88295E+02 -3.00851E+03 -4.41793E+03  1.06903E+03 -4.10481E+03
  4.82863E+03 -2.44315E+03  4.74974E+03  1.74429E+03  1.96306E+03  4.49870E+03 -1.10145E+03  4.28113E+03
 -1.38083E+03  2.99398E+03 -1.60455E+03 -9.80829E+01 -7.98637E+02  1.06023E+03 -1.37165E+03  1.92132E+03
 -1.39532E+03  2.17455E+03 -5.68929E+03  2.56131E+03 -7.27756E+03  4.68787E+02 -9.24038E+03 -4.70602E+03
 -4.65383E+03 -1.07712E+04  2.24883E+03 -1.17007E+04  7.67256E+03 -8.96926E+03  1.01858E+04 -4.12616E+03
  1.04850E+04  1.39841E+03  6.20680E+03  7.07164E+03 -8.17394E+02  7.98413E+03 -3.20627E+03  6.09699E+03
 -5.31949E+03  2.06902E+03 -2.57513E+03 -1.30197E+03 -1.30974E+03 -5.42789E+02 -5.36986E+02  2.42850E+02
 -1.69731E+03  3.10034E+02 -2.01748E+03 -6.33321E+02 -1.25601E+03 -2.36848E+03  1.02269E+02 -3.75940E+03
  3.76993E+03 -2.65891E+03  4.58313E+03 -1.47989E+02  5.66414E+03  4.18023E+03  6.53388E+02  7.65575E+03
 -3.56488E+03  8.75805E+03 -8.74171E+03  4.86976E+03 -9.37262E+03 -7.64628E+02 -6.85578E+03 -6.16100E+03
 -3.53900E+03 -7.25609E+03  2.91594E+03 -7.57125E+03  5.14377E+03 -3.79764E+03  5.22358E+03  3.95978E+02
  3.44225E+03  2.72285E+03 -1.38542E+02  2.18552E+03 -1.35748E+03 -4.69975E+02  5.65830E+01 -1.98306E+03
  2.49448E+03 -9.12572E+02  3.29032E+03  1.21671E+03  2.37060E+03  2.94719E+03  4.13470E+02  4.00646E+03
 -3.41405E+03  3.14517E+03 -5.09862E+03  6.40806E+02 -4.26434E+03 -3.49735E+03 -2.93137E+02 -6.88972E+03
  3.73833E+03 -4.77416E+03  5.86313E+03 -1.25744E+03  5.35090E+03  1.81689E+03  3.51015E+03  4.43125E+03
  9.22478E+02  4.77279E+03 -1.68098E+03  3.63393E+03 -3.26724E+03  2.12599E+03 -3.52924E+03  3.91350E+02
 -1.88839E+03 -5.66726E+02 -1.24734E+03  1.27593E+03 -3.35428E+03  9.24808E+02 -2.98515E+03 -9.43024E+02
 -4.31157E+03 -2.84167E+03 -1.37500E+03 -4.26038E+03  2.54841E+03 -5.18745E+03  4.89965E+03 -2.21032E+03
  4.84502E+03  9.00326E+02  2.81546E+03  3.77852E+03 -6.46955E+02  5.34855E+03 -4.13644E+03  3.31366E+03
