 $NMID ID='MM_0lb_SNR400_16hz_g50_51.RAW', FMTDAT='(8E13.5)'
 TRAMP=1., VOLUME=1. $END
  3.10249E+05  8.61915E+01  3.36932E+05  2.50302E+05  8.38537E+04  3.37883E+05 -1.32827E+05  2.51233E+05
 -1.89933E+05  8.28597E+04 -1.11497E+05 -3.21986E+04  1.27591E+03 -5.00191E+04  5.32472E+04  2.57298E+02
  3.48831E+04  5.24346E+04 -1.67792E+04  7.55623E+04 -6.11698E+04  6.30910E+04 -8.41218E+04  3.15473E+04
 -8.00402E+04 -1.15038E+04 -5.73951E+04 -5.11536E+04 -1.48009E+04 -6.93453E+04  2.73855E+04 -4.55106E+04
  3.98053E+04  3.16464E+03  1.57945E+04  4.78541E+04 -3.38315E+04  4.73532E+04 -6.61386E+04  2.53962E+02
 -5.30063E+04 -5.64284E+04 -6.25146E+03 -7.64130E+04  3.36502E+04 -5.39117E+04  4.77278E+04 -1.71581E+04
  4.26402E+04  1.13420E+04  3.19584E+04  2.52614E+04  1.55090E+04  2.90175E+04 -4.87036E+03  2.74360E+04
 -2.18949E+04  1.24177E+04 -1.81000E+04 -4.49073E+03  5.08521E+03 -7.01758E+03  2.17205E+04  1.21614E+04
  6.63782E+03  3.44984E+04 -3.16337E+04  3.49568E+04 -6.24905E+04  2.46623E+03 -5.54435E+04 -4.15086E+04
 -1.25049E+04 -6.22096E+04  3.91623E+04 -4.46876E+04  5.75228E+04 -2.52294E+03  3.32489E+04  3.16655E+04
 -6.19429E+03  3.53932E+04 -2.90158E+04  1.44349E+04 -2.96245E+04 -4.11996E+03 -1.59104E+04 -1.06648E+04
 -7.55972E+03 -1.27150E+04 -3.82957E+02 -1.72831E+04  7.48095E+03 -2.32036E+04  1.56676E+04 -1.36993E+04
  1.21433E+04  4.64061E+03 -7.18453E+03  1.19462E+04 -2.04283E+04 -3.90221E+03 -7.99590E+03 -3.19254E+04
  2.20770E+04 -4.27749E+04  4.67436E+04 -1.95590E+04  4.43234E+04  1.88861E+04  1.59137E+04  4.35311E+04
 -1.55607E+04  3.24974E+04 -2.44824E+04  1.70714E+03 -8.58287E+03 -2.68024E+04  2.02666E+04 -3.26550E+04
  4.01006E+04 -8.17743E+03  3.37123E+04  2.38951E+04  1.69918E+04  4.50691E+04 -7.99165E+03  4.84112E+04
 -3.09145E+04  3.21456E+04 -3.98243E+04  8.78816E+03 -4.11847E+04 -1.61976E+04 -2.28690E+04 -3.69339E+04
  7.17410E+03 -3.66826E+04  3.04523E+04 -1.41873E+04  2.87418E+04  1.02456E+04  4.08359E+03  1.84415E+04
 -1.31356E+04  7.58187E+03 -1.04218E+04 -7.54982E+03  6.21619E+03 -1.04287E+04  1.77607E+04  5.76985E+03
  1.27138E+04  2.21675E+04 -5.73399E+03  2.41702E+04 -2.13812E+04  1.12698E+04 -2.69555E+04 -5.57379E+03
 -1.86618E+04 -1.72412E+04 -7.32335E+03 -1.97134E+04  3.88270E+03 -1.74023E+04  1.45175E+04 -1.69231E+04
  2.37837E+04 -1.21923E+04  3.12899E+04  2.04970E+03  2.34332E+04  1.85109E+04  4.04985E+03  3.45843E+04
 -1.72888E+04  2.96567E+04 -2.69213E+04  1.01669E+04 -2.01033E+04 -1.04665E+04 -4.14367E+03 -1.32248E+04
  1.79116E+03 -2.74952E+03 -4.29287E+03  5.68842E+03 -1.48848E+04  5.49801E+03 -1.50972E+04 -6.58274E+03
 -9.57541E+03 -1.74697E+04  4.96438E+03 -2.21427E+04  1.36322E+04 -1.50299E+04  1.63857E+04 -1.19664E+03
  1.02129E+04  1.23649E+04 -5.80629E+02  1.77461E+04 -1.20930E+04  1.04485E+04 -1.75839E+04 -3.49496E+03
 -1.28378E+04 -1.62081E+04 -1.61018E+03 -2.11527E+04  9.48634E+03 -1.76180E+04  1.78730E+04 -8.65803E+03
  1.68916E+04  2.67367E+02  1.18128E+04  3.95951E+03  5.80639E+03  7.33711E+02  8.95872E+03 -1.85170E+03
  1.57961E+04  2.43644E+03  1.71687E+04  1.41125E+04  1.11224E+04  2.84052E+04 -2.88098E+03  3.11717E+04
 -1.83853E+04  2.50056E+04 -2.89756E+04  1.16196E+04 -2.99390E+04 -1.51245E+03 -2.51524E+04 -1.75115E+04
 -1.10645E+04 -2.48550E+04  7.99374E+03 -2.25435E+04  1.95571E+04 -1.20006E+04  1.74307E+04  4.51811E+03
  6.78681E+03  1.29320E+04 -8.19255E+03  1.15292E+04 -1.51601E+04  2.40314E+03 -1.21077E+04 -8.68968E+03
 -2.70518E+02 -1.47980E+04  6.96342E+03 -1.03966E+04  9.09596E+03 -1.20506E+03  1.93802E+03  6.02843E+03
 -5.97455E+03  2.09382E+03 -4.99440E+03 -5.16410E+03  3.31414E+02 -1.24842E+04  8.84436E+03 -1.20809E+04
  1.42652E+04 -6.05509E+03  1.49737E+04  3.47529E+03  1.32152E+04  1.15395E+04  6.49281E+03  1.82170E+04
 -3.12383E+03  1.98992E+04 -1.15557E+04  1.22960E+04 -1.40527E+04  3.22234E+03 -1.00532E+04 -2.87617E+03
 -4.68868E+03 -3.95675E+03 -1.21122E+03  1.30192E+03 -1.53501E+03  2.53548E+03 -4.97697E+03  3.98944E+03
 -9.22455E+03 -9.32412E+02 -1.07009E+04 -8.01871E+03 -3.93203E+03 -1.34995E+04  4.12144E+03 -1.03255E+04
  8.70494E+03 -4.84394E+03  6.38354E+03  2.43814E+03  3.66467E+02  3.40476E+03 -4.37268E+03 -1.12384E+02
 -4.59508E+03 -6.28959E+03 -1.03731E+03 -9.14791E+03  4.99835E+03 -9.83003E+03  1.19530E+04 -5.31146E+03
  1.43994E+04  7.41055E+02  1.06343E+04  7.78220E+03  2.00350E+03  1.05834E+04 -5.65818E+03  9.83699E+03
 -8.21890E+03  3.65801E+03 -3.88713E+03 -2.31996E+03  1.94613E+03 -2.49205E+03  5.09533E+03 -1.22017E+03
  5.20804E+03  3.89056E+03  1.87571E+03  7.51564E+03 -5.31437E+03  7.68853E+03 -9.33648E+03  1.73982E+03
 -6.12914E+03 -4.52325E+03  4.02071E+02 -8.42453E+03  4.80732E+03 -4.09879E+03  5.09558E+03  1.02781E+03
  9.01667E+02  4.63608E+03 -4.78175E+03  6.90901E+03 -6.18276E+03  2.81911E+03 -6.52908E+03 -1.47179E+03
 -3.78788E+03 -8.31071E+03  2.15921E+03 -9.40599E+03  8.23189E+03 -5.81515E+03  8.43679E+03  1.12733E+03
  5.72379E+03  6.96496E+03 -1.41375E+02  9.39418E+03 -6.82052E+03  5.37439E+03 -6.77692E+03 -5.65010E+02
 -7.08313E+03 -6.45662E+03 -1.74845E+03 -6.53613E+03  3.74541E+03 -5.60619E+03  3.96894E+03 -2.55076E+03
  2.23396E+03  6.30241E+02  7.34529E+01  1.08656E+03  1.54995E+02 -7.33747E+02  5.70185E+02 -2.82614E+03
  5.52375E+03 -1.69315E+03  7.69648E+03  6.85572E+02  7.54669E+03  4.30887E+03  5.97995E+03  9.98952E+03
 -2.15902E+03  1.14357E+04 -1.00295E+04  9.13274E+03 -1.30197E+04  1.55667E+03 -1.03790E+04 -3.72475E+03
 -5.46804E+03 -8.91550E+03 -6.82402E+01 -6.54178E+03  3.07104E+03 -3.74293E+03  2.90237E+03 -2.77749E+03
  2.22006E+03 -1.46515E+03  2.55292E+03 -2.92652E+03  3.63819E+03 -1.60597E+03  4.73024E+03 -1.69373E+02
  5.82997E+03  1.51227E+03  2.11689E+03  4.34971E+03 -2.01486E+03  4.36221E+03 -5.42326E+03  3.97090E+03
 -6.88827E+03 -1.42661E+03 -3.33185E+03 -4.92176E+03 -3.56480E+02 -6.69319E+03  4.18630E+03 -7.23382E+03
  6.93289E+03 -4.37851E+03  9.18087E+03  1.03061E+03  6.38431E+03  5.71188E+03  1.17564E+03  8.25551E+03
 -3.00970E+03  7.89652E+03 -4.97450E+03  2.57705E+03 -2.29151E+03 -1.25162E+03 -6.28351E+02 -9.16326E+02
 -4.57411E+02 -1.75268E+02 -1.62955E+03  1.88981E+03 -3.13882E+03  1.76191E+03 -4.93247E+03 -8.20327E+02
 -2.24231E+03 -4.80856E+03  5.05089E+02 -5.95664E+03  4.25375E+03 -6.04350E+03  5.27981E+03 -1.65147E+03
  5.46296E+03  2.97822E+03  3.00056E+03  5.07670E+03 -8.26831E+02  6.40016E+03 -2.89547E+03  3.35661E+03
 -5.29683E+03  4.78972E+02 -4.74057E+03 -3.44352E+03 -1.87311E+02 -4.31966E+03  2.66724E+03 -3.52206E+03
  3.92740E+03 -1.48877E+03  2.74591E+03  8.60226E+02  5.17939E+02  2.49387E+03  1.05197E+03  8.16203E+02
  1.81791E+03  7.25634E+02  1.43852E+03  1.11299E+03  1.72027E+03  2.42235E+03  1.71331E+03  2.47359E+03
 -1.40052E+03  3.85534E+03 -3.78241E+03  5.05603E+03 -4.76850E+03  1.44238E+03 -6.00608E+03 -2.05559E+03
 -2.61725E+03 -5.18524E+03  6.90074E+02 -6.46507E+03  2.82674E+03 -3.34113E+03  4.52715E+03 -7.55275E+02
  3.88373E+03  2.68865E+03  3.11764E+02  3.34928E+03 -1.38909E+03  1.86019E+03 -1.47598E+03 -1.86670E+02
 -1.29228E+03 -2.35172E+03  1.58531E+03 -2.24397E+03  1.67116E+03 -1.23405E+03  2.40883E+03  4.63784E+02
  1.73317E+03  9.73144E+02  6.43169E+02  2.05644E+02 -2.79869E+02  8.21617E+02  1.70204E+03 -3.10841E+02
 -6.55440E+02 -4.93815E+02  2.59693E+03  7.29946E+02  8.10690E+02  3.14015E+03 -3.79142E+02  4.23878E+03
 -2.59309E+03  1.94677E+03 -3.19495E+03  8.48249E+02 -3.61168E+03 -9.50476E+02 -7.13070E+02 -1.20752E+03
  2.10077E+02 -1.62924E+03  1.19847E+03 -1.33916E+03  1.24792E+03  9.87821E+02 -1.37459E+03  1.59994E+03
 -2.70357E+03  1.16680E+03 -2.17988E+03 -1.71023E+03 -1.40555E+03 -2.73842E+03  2.98747E+02 -2.46913E+03
  1.15524E+03 -1.04171E+03  1.60855E+03 -1.61207E+02  1.84139E+03  2.79149E+02  7.19207E+02  1.75033E+03
 -4.16526E+02  3.82349E+02 -1.60344E+03 -2.31534E+02  1.02749E+03 -1.74649E+03  3.00046E+03 -1.45529E+03
  2.56778E+03  7.19310E+02  3.53969E+03  1.58497E+03  2.31336E+03  2.78935E+03 -7.51914E+02  2.91079E+03
 -2.80719E+03  9.60209E+02 -2.41626E+03 -4.86888E+02 -1.13733E+03 -1.86571E+03  4.29679E+02 -8.34112E+02
  2.50992E+03 -7.48212E+02  1.26145E+03  1.27117E+03  4.70353E+02  1.75339E+03  7.21327E+01  1.38881E+03
 -4.65379E+02  1.71063E+03 -3.25426E+02 -1.03607E+01 -2.98338E+02  6.46996E+02 -1.63239E+03  7.49941E+02
 -8.08851E+02  1.26086E+03 -2.02785E+03  7.68419E+02 -2.42330E+03  6.30280E+02 -3.58838E+03 -1.63965E+03
 -1.98657E+03 -3.57237E+03  8.72485E+02 -5.14158E+03  1.67662E+03 -3.38570E+03  3.76039E+03 -1.38245E+03
  3.87430E+03  3.88580E+02  1.51132E+03  2.69476E+03  3.58195E+01  2.48164E+03 -9.55415E+02  2.09921E+03
 -1.37067E+03  8.94770E+02 -9.59371E+02 -5.17882E+02 -3.43773E+01  1.66979E+02 -8.77665E+02  1.07000E+03
 -9.68758E+02 -5.91312E+01 -5.24289E+02 -6.96689E+02  2.37946E+02 -7.26224E+02 -2.59016E+02 -1.21253E+03
  1.57709E+03 -9.95029E+02  9.85142E+02 -1.45918E+02  1.90482E+03  1.36072E+03  1.45343E+02  2.37508E+03
 -1.44446E+03  3.67012E+03 -2.10344E+03  2.26415E+03 -2.80502E+03  1.34046E+02 -2.06277E+03 -1.94944E+03
 -1.57357E+03 -2.12252E+03  4.06176E+02 -2.28986E+03  1.19279E+03 -5.73799E+02  1.17604E+03  8.65620E+01
  1.44650E+03  6.08480E+02 -2.64820E+02  6.05613E+02 -6.82777E+02  2.15740E+02 -3.49404E+02 -3.66828E+02
  1.21657E+03  7.11814E+01  9.08792E+02 -1.95882E+01  2.18670E+02  7.57222E+02  6.29865E+02  1.23510E+03
 -9.77869E+02  1.51898E+03 -1.51900E+03 -8.41654E+01 -8.21701E+02 -1.07277E+03  1.01584E+02 -1.65822E+03
  6.91961E+02 -1.17358E+03  1.11121E+03 -2.14218E+02  1.90073E+03 -2.89728E+02  6.72568E+02  1.74806E+03
  5.55397E+02  1.02010E+03 -5.05843E+02  6.21365E+02 -1.23098E+03  1.06561E+03 -3.00612E+02 -2.48068E+02
 -7.54722E+01  6.48355E+02 -8.03449E+02 -3.00316E+02 -6.59692E+02  4.16426E+02 -9.99436E+02 -1.84367E+02
 -9.42286E+02 -5.18720E+02 -7.63132E+02 -1.51450E+03  9.58523E+02 -1.91947E+03  1.22799E+03 -5.21236E+02
  1.01728E+03  6.02831E+02  3.93516E+01  6.38736E+02 -3.36852E+02  1.81702E+03 -1.10204E+03  8.31738E+02
