 $NMID ID='MM_0lb_SNR400_10hz_g45_2.RAW', FMTDAT='(8E13.5)'
 TRAMP=1., VOLUME=1. $END
  3.09484E+05  3.21398E+02  3.38290E+05  2.51051E+05  8.45833E+04  3.38540E+05 -1.32705E+05  2.51149E+05
 -1.90580E+05  8.27242E+04 -1.12143E+05 -3.30210E+04  2.79090E+02 -5.05026E+04  5.36903E+04 -3.15424E+02
  3.54547E+04  5.29944E+04 -1.64600E+04  7.56139E+04 -6.11442E+04  6.40049E+04 -8.50057E+04  3.28466E+04
 -8.16661E+04 -1.17386E+04 -5.77656E+04 -5.22235E+04 -1.54461E+04 -7.10517E+04  2.77630E+04 -4.64430E+04
  4.08425E+04  3.88650E+03  1.70636E+04  4.77261E+04 -3.52461E+04  4.74638E+04 -6.75927E+04 -4.56943E+02
 -5.41954E+04 -5.74509E+04 -6.85511E+03 -7.84020E+04  3.52821E+04 -5.63422E+04  4.90601E+04 -1.83547E+04
  4.46498E+04  1.14067E+04  3.30098E+04  2.61899E+04  1.64308E+04  3.03378E+04 -5.06802E+03  2.77438E+04
 -2.25371E+04  1.15353E+04 -1.86780E+04 -5.24156E+03  6.35184E+03 -7.75506E+03  2.30135E+04  1.38753E+04
  7.23688E+03  3.68990E+04 -3.33072E+04  3.72868E+04 -6.54794E+04  1.98618E+03 -5.79640E+04 -4.41774E+04
 -1.26335E+04 -6.49695E+04  4.02506E+04 -4.71869E+04  6.06318E+04 -2.49279E+03  3.61446E+04  3.35943E+04
 -5.78818E+03  3.80174E+04 -3.15362E+04  1.78894E+04 -3.22805E+04 -3.33088E+03 -1.90416E+04 -1.10280E+04
 -8.99564E+03 -1.49302E+04 -1.61283E+03 -2.02231E+04  7.58649E+03 -2.28144E+04  1.58890E+04 -1.33455E+04
  1.04401E+04  5.83182E+03 -9.70449E+03  1.25824E+04 -2.18929E+04 -6.26389E+03 -8.99756E+03 -3.59584E+04
  2.46473E+04 -4.65563E+04  5.13579E+04 -2.07699E+04  4.78469E+04  2.04580E+04  1.73199E+04  4.55548E+04
 -1.59973E+04  3.48835E+04 -2.60802E+04  2.36942E+03 -1.11872E+04 -2.90438E+04  2.12964E+04 -3.57374E+04
  4.34568E+04 -9.21079E+03  3.80079E+04  2.45835E+04  2.05057E+04  5.01131E+04 -8.64182E+03  5.43234E+04
 -3.47754E+04  3.64231E+04 -4.61034E+04  1.05366E+04 -4.58189E+04 -1.78094E+04 -2.55030E+04 -4.13175E+04
  7.96042E+03 -4.05102E+04  3.30882E+04 -1.64275E+04  3.13183E+04  1.03813E+04  4.77387E+03  2.13896E+04
 -1.44723E+04  9.19242E+03 -1.16564E+04 -7.08048E+03  5.50618E+03 -1.10835E+04  1.83738E+04  5.68545E+03
  1.43062E+04  2.28208E+04 -4.61148E+03  2.64022E+04 -2.38870E+04  1.35490E+04 -3.05957E+04 -3.23233E+03
 -2.39036E+04 -1.83704E+04 -1.18830E+04 -2.36744E+04  3.89701E+03 -2.39718E+04  1.80164E+04 -2.15401E+04
  3.00999E+04 -1.35696E+04  3.56664E+04  4.59300E+03  2.63302E+04  2.22556E+04  4.41128E+03  3.93550E+04
 -1.90623E+04  3.23063E+04 -2.97972E+04  1.07654E+04 -2.19010E+04 -1.08134E+04 -4.43129E+03 -1.22517E+04
  7.18749E+02 -1.75502E+03 -6.81883E+03  8.12081E+03 -1.87476E+04  4.22067E+03 -1.88009E+04 -8.49407E+03
 -1.13535E+04 -2.30174E+04  5.45000E+03 -2.63671E+04  1.74944E+04 -1.93697E+04  2.12495E+04 -2.17852E+03
  1.35628E+04  1.55923E+04 -2.24019E+03  2.21997E+04 -1.55763E+04  1.29857E+04 -2.21206E+04 -3.97565E+03
 -1.66876E+04 -1.98671E+04 -1.91833E+03 -2.64568E+04  1.15462E+04 -2.26233E+04  2.23441E+04 -1.11205E+04
  2.06313E+04 -1.03340E+02  1.46978E+04  4.97175E+03  8.25743E+03  1.39924E+03  1.11736E+04 -2.15004E+03
  2.12352E+04  2.50915E+03  2.34658E+04  1.80043E+04  1.67716E+04  3.52652E+04 -2.50974E+03  4.15294E+04
 -2.34154E+04  3.38714E+04 -3.84856E+04  1.80048E+04 -4.09433E+04 -3.16779E+03 -3.28573E+04 -2.39761E+04
 -1.35710E+04 -3.45842E+04  1.18585E+04 -3.04810E+04  2.57864E+04 -1.43753E+04  2.31371E+04  7.56769E+03
  7.55915E+03  1.73997E+04 -1.06082E+04  1.41157E+04 -1.98513E+04  1.95552E+03 -1.40784E+04 -1.21903E+04
  1.79488E+02 -1.77879E+04  9.47765E+03 -1.27033E+04  1.25336E+04 -9.97957E+02  2.73116E+03  7.63630E+03
 -7.65135E+03  4.12053E+03 -8.43351E+03 -7.22329E+03 -1.80610E+03 -1.61126E+04  1.16298E+04 -1.87984E+04
  2.06106E+04 -1.04551E+04  2.40887E+04  3.10885E+03  2.10138E+04  1.68165E+04  9.79128E+03  2.65671E+04
 -4.64544E+03  2.82892E+04 -1.81025E+04  1.73514E+04 -2.09898E+04  4.17560E+03 -1.42970E+04 -5.66159E+03
 -5.66371E+03 -6.61693E+03 -4.50823E+02  6.40145E+02 -2.84473E+03  3.32102E+03 -6.19338E+03  5.33818E+03
 -1.33076E+04 -8.00881E+02 -1.33066E+04 -1.13768E+04 -5.99205E+03 -1.78310E+04  6.08030E+03 -1.47631E+04
  1.13248E+04 -6.95931E+03  8.82969E+03  4.94938E+03 -1.63507E+02  5.80620E+03 -6.28099E+03  4.88625E+02
 -5.98451E+03 -9.33697E+03 -1.12260E+03 -1.40487E+04  8.07210E+03 -1.45935E+04  1.84984E+04 -7.77361E+03
  2.12696E+04  2.14522E+03  1.60064E+04  1.29141E+04  2.91109E+03  1.68492E+04 -9.09359E+03  1.37134E+04
 -1.11152E+04  5.13192E+03 -5.92707E+03 -2.40397E+03  2.26754E+03 -3.42397E+03  7.27746E+03 -5.72232E+02
  7.60801E+03  6.09551E+03  1.23836E+03  1.16415E+04 -8.29736E+03  1.13632E+04 -1.43772E+04  2.98266E+03
 -9.56667E+03 -7.83310E+03  3.55683E+02 -1.19078E+04  7.52137E+03 -6.23583E+03  7.75399E+03  3.93110E+03
  1.87072E+03  9.21836E+03 -7.54171E+03  9.79126E+03 -1.19727E+04  4.51897E+03 -1.22922E+04 -4.78381E+03
 -6.80142E+03 -1.41511E+04  3.85474E+03 -1.65098E+04  1.38237E+04 -9.60558E+03  1.52061E+04  2.86140E+03
  9.43138E+03  1.17762E+04 -1.35209E+03  1.46199E+04 -9.83320E+03  8.11273E+03 -1.15863E+04 -7.37270E+02
 -9.19394E+03 -9.33879E+03 -8.17899E+02 -1.14672E+04  6.22461E+03 -9.04575E+03  6.54682E+03 -3.91243E+03
  4.24538E+03  2.09904E+03 -2.47303E+02  1.78337E+03 -4.59904E+02 -3.38671E+03  2.39443E+03 -6.58207E+03
  9.69223E+03 -4.00307E+03  1.44800E+04  8.57447E+02  1.38048E+04  9.66285E+03  8.76777E+03  1.80531E+04
 -4.19708E+03  2.05391E+04 -1.77282E+04  1.50766E+04 -2.19319E+04  2.68908E+03 -1.87756E+04 -7.67000E+03
 -9.13882E+03 -1.52819E+04 -6.62232E+02 -1.31604E+04  4.52147E+03 -7.50427E+03  4.73894E+03 -5.39302E+03
  3.54968E+03 -3.04058E+03  4.16467E+03 -3.07696E+03  5.64762E+03 -3.03258E+03  7.58534E+03 -1.49414E+03
  9.38021E+03  1.99693E+03  4.83096E+03  7.97894E+03 -2.38760E+03  9.75664E+03 -1.09384E+04  6.78078E+03
 -1.28187E+04 -5.15724E+02 -7.92794E+03 -8.47734E+03 -1.30695E+03 -1.33423E+04  7.85833E+03 -1.32669E+04
  1.34581E+04 -7.28871E+03  1.66071E+04  2.90551E+03  1.22110E+04  1.18363E+04  1.09736E+03  1.52032E+04
 -6.64847E+03  1.27887E+04 -9.00369E+03  4.63340E+03 -5.99807E+03 -1.08064E+03 -2.79356E+03 -1.23172E+03
 -1.09259E+03  3.72546E+02 -1.77378E+03  3.10998E+03 -4.73929E+03  2.42523E+03 -8.56280E+03 -5.84139E+02
 -5.98053E+03 -8.62526E+03 -3.64726E+01 -1.19484E+04  7.17358E+03 -1.14136E+04  1.20660E+04 -3.84211E+03
  1.18556E+04  6.75911E+03  5.62696E+03  1.11072E+04 -2.38032E+03  1.20109E+04 -9.29429E+03  8.02376E+03
 -1.18614E+04  9.21791E+02 -8.19335E+03 -7.17293E+03 -6.96111E+02 -1.09329E+04  4.44542E+03 -8.22350E+03
  7.99896E+03 -2.56253E+03  5.39264E+03  2.51774E+03  1.12844E+03  3.96417E+03  7.74559E+02  1.42620E+03
  2.38900E+03  1.22041E+03  2.48888E+03  1.89550E+03  4.63576E+03  5.06195E+03  3.03181E+03  6.41458E+03
 -3.00294E+03  1.05803E+04 -9.06076E+03  1.02255E+04 -1.27560E+04  2.39937E+03 -1.28270E+04 -4.92116E+03
 -6.12478E+03 -1.24346E+04  1.48873E+03 -1.42008E+04  7.40932E+03 -9.43527E+03  1.10301E+04 -2.13545E+03
  8.63430E+03  5.14419E+03  1.52236E+03  7.46053E+03 -3.69618E+03  4.46452E+03 -5.13448E+03 -7.86037E+02
 -2.34251E+03 -5.05348E+03  3.12749E+03 -5.76387E+03  5.01592E+03 -3.35362E+03  5.82710E+03  1.50791E+03
  2.99579E+03  3.28039E+03  1.91772E+03  1.90759E+03 -7.86040E+02  1.73027E+03  1.30916E+03 -5.67540E+02
  2.34120E+03 -8.02075E+02  5.90765E+03  1.84580E+03  3.01459E+03  7.59290E+03 -1.25291E+03  9.14929E+03
 -5.61480E+03  5.77993E+03 -7.61527E+03  2.10064E+03 -7.35772E+03 -2.66423E+03 -3.43675E+03 -4.94162E+03
  3.26835E+02 -5.03822E+03  3.33254E+03 -2.25236E+03  2.30638E+03  2.27700E+03 -1.75624E+03  4.12840E+03
 -5.13485E+03  2.31130E+03 -5.47696E+03 -2.39123E+03 -4.18960E+03 -7.03003E+03  7.09387E+02 -7.21689E+03
  4.67147E+03 -3.66022E+03  5.13203E+03 -1.14353E+03  4.43238E+03  1.63107E+03  9.36408E+02  3.85191E+03
 -3.15484E+03  5.02967E+02 -3.27734E+03 -2.45477E+03  1.10471E+03 -6.10042E+03  5.97623E+03 -4.50572E+03
  7.60236E+03  5.81703E+02  8.09121E+03  5.39116E+03  2.99699E+03  8.28354E+03 -2.51483E+03  7.31893E+03
 -6.63746E+03  3.72944E+03 -6.47678E+03 -3.40472E+02 -3.73667E+03 -5.59211E+03  1.03193E+03 -5.36903E+03
  5.59995E+03 -3.19657E+03  4.16108E+03  2.09886E+03  1.80772E+03  4.46256E+03 -1.18078E+03  4.27834E+03
 -2.37524E+03  2.19890E+03 -2.42275E+03  1.29474E+03 -1.46855E+03  4.54950E+02 -1.57660E+03  2.35661E+03
 -1.64512E+03  3.75415E+03 -5.24888E+03  3.23483E+03 -8.36385E+03  7.03707E+02 -8.85771E+03 -6.03041E+03
 -4.92822E+03 -1.09223E+04  2.13195E+03 -1.31259E+04  7.00939E+03 -1.04125E+04  1.18501E+04 -2.94461E+03
  1.14833E+04  1.80777E+03  6.89243E+03  7.45012E+03  5.29199E+02  8.84684E+03 -2.55966E+03  6.22792E+03
 -4.53694E+03  2.75680E+03 -3.18458E+03 -6.37203E+02 -9.06231E+02 -8.77624E+02 -7.26357E+02  1.15809E+02
 -1.34963E+03  4.46986E+02 -2.55254E+03 -3.07678E+02 -1.03288E+03 -2.18424E+03  1.80957E+02 -2.74581E+03
  4.26086E+03 -2.64316E+03  5.20502E+03 -9.27007E+01  5.60674E+03  4.88423E+03  1.18965E+03  8.33382E+03
 -4.20371E+03  9.84030E+03 -8.96544E+03  5.74571E+03 -1.13102E+04 -1.09195E+03 -8.48788E+03 -6.32352E+03
 -3.56249E+03 -7.80550E+03  2.31750E+03 -8.08196E+03  5.54867E+03 -4.06862E+03  6.03729E+03  1.28582E+02
  3.44100E+03  3.43120E+03  8.46265E+01  1.87611E+03 -1.57107E+03 -1.32452E+02  4.02682E+02 -2.74434E+03
  3.05777E+03 -9.16792E+02  2.82575E+03  1.20574E+03  1.58710E+03  3.13469E+03  2.69380E+02  4.34343E+03
 -3.55362E+03  3.95662E+03 -5.53179E+03  3.60349E+02 -4.85791E+03 -4.06186E+03 -1.15443E+03 -7.13647E+03
  3.61793E+03 -5.11005E+03  6.23280E+03 -2.26478E+03  5.48889E+03  2.11238E+03  3.55070E+03  4.81170E+03
  1.18327E+03  4.65817E+03 -2.14226E+03  3.96891E+03 -3.26630E+03  2.60216E+03 -2.54326E+03  1.01771E+03
 -1.48419E+03 -3.69251E+02 -2.44530E+03  6.81607E+02 -2.84264E+03  5.70947E+02 -5.20341E+03 -7.66603E+02
 -4.61943E+03 -2.91887E+03 -1.58211E+03 -5.89649E+03  2.56438E+03 -5.45413E+03  4.87769E+03 -2.72443E+03
  4.90992E+03 -2.46289E+01  2.94419E+03  4.39154E+03 -7.79606E+02  5.02633E+03 -4.95509E+03  3.82322E+03
