 $NMID ID='MM_0lb_SNR400_8hz_g40_47.RAW', FMTDAT='(8E13.5)'
 TRAMP=1., VOLUME=1. $END
  3.10349E+05  1.40801E+02  3.37565E+05  2.51033E+05  8.50838E+04  3.38596E+05 -1.32852E+05  2.50957E+05
 -1.89845E+05  8.38399E+04 -1.13040E+05 -3.24159E+04 -4.40125E+02 -5.03000E+04  5.39551E+04 -7.56436E+01
  3.53828E+04  5.28680E+04 -1.69458E+04  7.60524E+04 -6.16073E+04  6.44468E+04 -8.49647E+04  3.22119E+04
 -8.21113E+04 -1.16973E+04 -5.77155E+04 -5.30260E+04 -1.46397E+04 -7.07416E+04  2.84475E+04 -4.64939E+04
  4.10465E+04  3.85831E+03  1.70023E+04  4.83179E+04 -3.43480E+04  4.83310E+04 -6.68924E+04  3.71177E+02
 -5.49587E+04 -5.80143E+04 -7.17174E+03 -7.95038E+04  3.50677E+04 -5.73956E+04  4.99939E+04 -1.90522E+04
  4.52319E+04  1.16566E+04  3.29362E+04  2.69151E+04  1.61890E+04  3.14347E+04 -6.03051E+03  2.80185E+04
 -2.23789E+04  1.24537E+04 -1.78291E+04 -5.48227E+03  6.57146E+03 -7.05446E+03  2.36355E+04  1.38313E+04
  6.68312E+03  3.83654E+04 -3.39110E+04  3.61551E+04 -6.57151E+04  2.27706E+03 -5.91533E+04 -4.48370E+04
 -1.26764E+04 -6.61865E+04  4.16327E+04 -4.78068E+04  6.15404E+04 -2.38072E+03  3.71950E+04  3.45484E+04
 -5.54240E+03  3.93114E+04 -3.24230E+04  1.90645E+04 -3.38548E+04 -3.30783E+03 -1.81858E+04 -1.19640E+04
 -8.46300E+03 -1.57812E+04 -6.66387E+02 -2.03602E+04  9.66445E+03 -2.33739E+04  1.60860E+04 -1.25153E+04
  1.04431E+04  6.38688E+03 -1.05193E+04  1.25145E+04 -2.22810E+04 -6.66692E+03 -9.02386E+03 -3.71455E+04
  2.56085E+04 -4.62501E+04  5.22881E+04 -2.09896E+04  4.81861E+04  2.14259E+04  1.81619E+04  4.73586E+04
 -1.65611E+04  3.61780E+04 -2.72754E+04  2.40571E+03 -1.14904E+04 -2.96956E+04  2.16788E+04 -3.76116E+04
  4.44926E+04 -1.10363E+04  4.02559E+04  2.55422E+04  2.19904E+04  5.08440E+04 -8.41175E+03  5.67447E+04
 -3.61248E+04  3.82751E+04 -4.77760E+04  1.16831E+04 -4.77919E+04 -1.80424E+04 -2.52606E+04 -4.23179E+04
  7.83917E+03 -4.16153E+04  3.42676E+04 -1.71951E+04  3.30107E+04  1.12101E+04  4.46414E+03  2.09809E+04
 -1.38927E+04  9.40987E+03 -1.12574E+04 -7.72630E+03  5.79953E+03 -1.15633E+04  1.92096E+04  6.07243E+03
  1.48865E+04  2.28127E+04 -5.35727E+03  2.77999E+04 -2.31734E+04  1.44467E+04 -3.20378E+04 -2.82025E+03
 -2.57630E+04 -1.81383E+04 -1.12225E+04 -2.44804E+04  4.40401E+03 -2.68138E+04  1.93674E+04 -2.32531E+04
  3.26359E+04 -1.48476E+04  3.81436E+04  5.38820E+03  2.75424E+04  2.43411E+04  5.03957E+03  4.17465E+04
 -2.07257E+04  3.40586E+04 -3.07386E+04  1.18187E+04 -2.28248E+04 -1.08170E+04 -4.76154E+03 -1.34867E+04
  8.30947E+02 -6.20032E+02 -7.44854E+03  8.92810E+03 -2.10646E+04  5.83317E+03 -2.04895E+04 -1.01817E+04
 -1.23369E+04 -2.36157E+04  6.03893E+03 -2.72033E+04  1.93269E+04 -1.94400E+04  2.28844E+04 -2.16879E+03
  1.45225E+04  1.64236E+04 -2.28086E+03  2.32633E+04 -1.63156E+04  1.36368E+04 -2.35551E+04 -5.17517E+03
 -1.74918E+04 -2.11978E+04 -1.73729E+03 -2.81712E+04  1.27444E+04 -2.35441E+04  2.25961E+04 -1.17207E+04
  2.18877E+04 -1.82949E+02  1.52967E+04  5.31619E+03  9.28448E+03  8.60559E+02  1.09576E+04 -2.14868E+03
  2.15684E+04  3.20911E+03  2.60344E+04  1.73903E+04  1.71787E+04  3.81159E+04 -2.90330E+03  4.51525E+04
 -2.56535E+04  3.68481E+04 -4.23686E+04  1.92017E+04 -4.55264E+04 -3.74904E+03 -3.66528E+04 -2.73277E+04
 -1.52040E+04 -3.83092E+04  1.31425E+04 -3.21567E+04  2.82049E+04 -1.55119E+04  2.47157E+04  7.43694E+03
  8.91727E+03  1.92038E+04 -1.17122E+04  1.56095E+04 -2.01706E+04  3.05704E+03 -1.51710E+04 -1.29424E+04
 -1.49468E+02 -1.96798E+04  1.13848E+04 -1.41493E+04  1.42449E+04 -1.77012E+03  3.51948E+03  8.82006E+03
 -8.55744E+03  5.05237E+03 -9.07024E+03 -7.64079E+03 -2.10127E+03 -1.85953E+04  1.23963E+04 -2.02760E+04
  2.26516E+04 -1.17042E+04  2.74037E+04  3.24167E+03  2.31424E+04  1.91197E+04  1.21553E+04  2.92883E+04
 -4.78752E+03  3.12416E+04 -2.08039E+04  1.96527E+04 -2.34431E+04  3.65356E+03 -1.64371E+04 -6.50429E+03
 -6.84477E+03 -7.41666E+03 -1.33164E+03  7.67062E+01 -3.08770E+03  3.85558E+03 -7.55549E+03  5.62855E+03
 -1.36988E+04 -1.00459E+03 -1.46874E+04 -1.12789E+04 -5.45219E+03 -1.88189E+04  6.89638E+03 -1.69468E+04
  1.33256E+04 -6.85307E+03  8.88386E+03  4.55571E+03  2.53230E+02  6.09153E+03 -7.92926E+03 -2.78418E+02
 -7.43602E+03 -1.01496E+04 -1.04006E+03 -1.61298E+04  9.19644E+03 -1.64203E+04  2.14876E+04 -9.12719E+03
  2.46096E+04  2.16014E+03  1.74810E+04  1.43757E+04  2.77695E+03  1.84821E+04 -9.50256E+03  1.59887E+04
 -1.26362E+04  5.42924E+03 -6.99461E+03 -3.85149E+03  1.72683E+03 -4.85853E+03  9.20337E+03 -1.48502E+03
  8.23122E+03  7.71500E+03  1.48149E+03  1.29324E+04 -8.89785E+03  1.22189E+04 -1.60646E+04  2.23861E+03
 -1.17917E+04 -9.32005E+03  6.13153E+01 -1.40794E+04  9.08286E+03 -7.58137E+03  9.34038E+03  2.62979E+03
  2.07343E+03  1.00063E+04 -8.05590E+03  1.27968E+04 -1.39731E+04  5.39388E+03 -1.52024E+04 -5.23874E+03
 -8.15960E+03 -1.60130E+04  4.54969E+03 -1.87867E+04  1.64700E+04 -1.14676E+04  1.73787E+04  2.68110E+03
  1.07862E+04  1.38944E+04 -1.02583E+03  1.68140E+04 -1.15396E+04  8.53635E+03 -1.33917E+04 -8.93421E+02
 -1.05987E+04 -1.07286E+04 -9.73304E+02 -1.21283E+04  7.11645E+03 -9.80861E+03  7.42969E+03 -3.72454E+03
  6.03158E+03  2.71001E+03 -9.27840E+02  1.92946E+03 -8.95301E+02 -2.74786E+03  2.45367E+03 -7.55093E+03
  1.19126E+04 -5.08259E+03  1.65849E+04  1.95697E+03  1.71082E+04  1.18177E+04  1.09610E+04  2.18223E+04
 -5.26827E+03  2.52929E+04 -2.11176E+04  1.92260E+04 -2.68637E+04  2.97926E+03 -2.19183E+04 -9.53588E+03
 -1.11741E+04 -1.78481E+04 -5.82200E+02 -1.49097E+04  4.93072E+03 -8.69926E+03  5.36840E+03 -5.08940E+03
  3.56157E+03 -3.39968E+03  4.45055E+03 -3.45747E+03  6.72626E+03 -3.87829E+03  8.37070E+03 -1.02598E+03
  1.09933E+04  2.07066E+03  6.45604E+03  9.82008E+03 -3.29416E+03  1.19233E+04 -1.04612E+04  9.15427E+03
 -1.47977E+04 -1.24096E+03 -9.60669E+03 -1.06714E+04 -8.62107E+02 -1.61800E+04  8.55491E+03 -1.69078E+04
  1.72501E+04 -8.92725E+03  2.08009E+04  3.48045E+03  1.38966E+04  1.43611E+04  2.83753E+03  1.88989E+04
 -7.22857E+03  1.41930E+04 -1.15223E+04  5.61342E+03 -7.30754E+03 -1.83755E+03 -3.75139E+03 -3.22594E+03
 -7.11297E+02 -7.61180E+02 -2.60652E+03  3.69625E+03 -7.34971E+03  3.36560E+03 -1.04675E+04 -1.64667E+03
 -7.25721E+03 -1.06120E+04  1.43426E+02 -1.58534E+04  8.87414E+03 -1.43589E+04  1.54151E+04 -4.86043E+03
  1.52742E+04  7.83878E+03  7.60054E+03  1.40897E+04 -3.66032E+03  1.50468E+04 -1.18760E+04  1.00730E+04
 -1.41928E+04  3.17979E+02 -1.17809E+04 -9.11316E+03 -1.78214E+03 -1.34310E+04  5.99396E+03 -9.64828E+03
  1.00195E+04 -2.78284E+03  6.45910E+03  2.44286E+03  2.54043E+03  3.12895E+03  1.40182E+03  2.13339E+03
  2.44839E+03  2.15329E+03  3.54749E+03  1.56255E+03  4.68078E+03  5.51422E+03  4.28346E+03  8.42462E+03
 -2.97413E+03  1.34896E+04 -1.12649E+04  1.29478E+04 -1.59577E+04  3.24179E+03 -1.62276E+04 -6.76677E+03
 -8.53689E+03 -1.62341E+04  2.33485E+03 -1.79287E+04  1.02388E+04 -1.13187E+04  1.38368E+04 -3.64816E+03
  1.01272E+04  5.73556E+03  3.01679E+03  9.23208E+03 -4.55974E+03  5.86428E+03 -7.12871E+03 -4.64135E+02
 -3.15887E+03 -6.73059E+03  3.81854E+03 -7.24644E+03  6.78768E+03 -2.66934E+03  6.49488E+03  1.22688E+03
  4.54584E+03  3.50238E+03  1.07629E+03  3.02469E+03 -1.39508E+03  1.93315E+03  2.31675E+03 -2.29185E+02
  2.20003E+03 -9.49985E+02  7.17771E+03  3.18536E+03  3.19528E+03  8.54619E+03 -1.24295E+03  1.14328E+04
 -7.91498E+03  7.47956E+03 -1.01632E+04  1.71038E+03 -9.33589E+03 -3.12459E+03 -4.65788E+03 -6.36668E+03
  1.34052E+03 -6.66303E+03  3.56718E+03 -2.29509E+03  3.80998E+03  3.03181E+03 -1.12541E+03  4.99678E+03
 -6.59367E+03  3.72096E+03 -7.60066E+03 -4.36471E+03 -4.19228E+03 -8.62059E+03  9.86042E+02 -8.71389E+03
  5.36421E+03 -5.77138E+03  7.19117E+03 -1.14400E+03  5.63087E+03  2.79195E+03  7.81568E+02  4.34703E+03
 -3.89663E+03  1.14913E+03 -3.80118E+03 -2.97957E+03  1.50764E+03 -7.02821E+03  7.58068E+03 -6.16921E+03
  1.11547E+04  6.39939E+02  1.08087E+04  7.43081E+03  3.27770E+03  1.14753E+04 -3.93339E+03  1.08977E+04
 -9.12370E+03  4.93215E+03 -9.17648E+03 -1.81982E+03 -5.52437E+03 -7.20731E+03  1.54759E+03 -7.38795E+03
  6.17765E+03 -3.84262E+03  5.59296E+03  2.19317E+03  2.27079E+03  7.37225E+03 -4.00880E+02  5.51982E+03
 -2.96715E+03  3.91362E+03 -1.38201E+03  1.80132E+03 -1.32244E+03  1.44582E+03 -1.01275E+03  2.36464E+03
 -1.47668E+03  4.36598E+03 -8.13974E+03  2.91567E+03 -1.04440E+04 -1.91927E+01 -1.25187E+04 -6.99560E+03
 -6.18109E+03 -1.51801E+04  3.15235E+03 -1.74237E+04  9.70176E+03 -1.36404E+04  1.62457E+04 -5.47361E+03
  1.58161E+04  3.31881E+03  8.99840E+03  1.01032E+04  1.37356E+03  1.13405E+04 -4.60502E+03  8.59451E+03
 -7.05837E+03  3.39659E+03 -3.75934E+03 -1.09884E+03 -7.34198E+02 -1.12290E+03 -1.42436E+03 -1.16259E+02
 -2.18004E+03  3.95872E+02 -3.17981E+03 -1.06651E+03 -1.04670E+03 -2.78569E+03  7.13248E+02 -4.61733E+03
  5.71751E+03 -3.93605E+03  6.87801E+03  1.41071E+02  7.90699E+03  5.76061E+03  3.45955E+03  1.13304E+04
 -5.42491E+03  1.26901E+04 -1.25629E+04  7.87573E+03 -1.49165E+04 -1.34495E+03 -1.06925E+04 -8.57302E+03
 -4.25411E+03 -1.23608E+04  3.30229E+03 -1.11430E+04  7.83012E+03 -5.99196E+03  7.73979E+03  8.22196E+02
  4.03155E+03  2.99041E+03 -3.85545E+02  3.32822E+03 -2.07446E+03  3.93905E+02  2.50542E+02 -2.75253E+03
  3.81042E+03 -1.65667E+03  5.02405E+03  1.29949E+03  3.18066E+03  4.75833E+03  1.67932E+02  6.00829E+03
 -4.83921E+03  4.52021E+03 -8.08683E+03  1.16386E+03 -6.47598E+03 -6.45056E+03 -2.02521E+03 -9.69607E+03
  5.59451E+03 -8.17843E+03  9.75952E+03 -2.82031E+03  9.02875E+03  2.71850E+03  5.36977E+03  8.12235E+03
  8.18116E+02  7.97114E+03 -4.10721E+03  6.79618E+03 -5.14112E+03  3.70979E+03 -3.59171E+03  8.46061E+02
 -2.60329E+03 -9.00621E+02 -1.62596E+03  1.50995E+03 -3.61588E+03  1.65207E+03 -6.39370E+03 -3.80467E+02
 -6.30942E+03 -4.12423E+03 -1.17500E+03 -7.29114E+03  3.75996E+03 -8.52651E+03  6.53598E+03 -3.51316E+03
  8.17515E+03  1.13706E+03  4.55819E+03  5.68090E+03 -6.37859E+02  8.10941E+03 -6.60365E+03  4.96496E+03
