 $NMID ID='MM_0lb_SNR400_19hz_g55_51.RAW', FMTDAT='(8E13.5)'
 TRAMP=1., VOLUME=1. $END
  3.09993E+05  8.24446E+02  3.37815E+05  2.50416E+05  8.45742E+04  3.37411E+05 -1.32269E+05  2.50519E+05
 -1.89946E+05  8.28763E+04 -1.11050E+05 -3.24534E+04  6.81140E+02 -5.03661E+04  5.37560E+04  5.16232E+02
  3.52888E+04  5.28735E+04 -1.65585E+04  7.42861E+04 -5.99486E+04  6.30590E+04 -8.34605E+04  3.16485E+04
 -8.01887E+04 -1.08855E+04 -5.63618E+04 -5.09060E+04 -1.49608E+04 -6.87660E+04  2.73881E+04 -4.53606E+04
  3.97918E+04  3.71036E+03  1.59602E+04  4.79680E+04 -3.40731E+04  4.61497E+04 -6.60391E+04 -3.22663E+02
 -5.23852E+04 -5.62358E+04 -6.36436E+03 -7.59733E+04  3.28189E+04 -5.35406E+04  4.72404E+04 -1.71827E+04
  4.25017E+04  1.11438E+04  3.08499E+04  2.45177E+04  1.62258E+04  2.86103E+04 -4.41977E+03  2.72345E+04
 -2.17195E+04  1.24204E+04 -1.88715E+04 -4.81066E+03  4.95928E+03 -7.85836E+03  2.16145E+04  1.12703E+04
  7.96412E+03  3.31156E+04 -3.13955E+04  3.45127E+04 -6.25891E+04  2.86005E+03 -5.57250E+04 -4.16267E+04
 -1.24078E+04 -6.10454E+04  3.86525E+04 -4.39645E+04  5.63737E+04 -1.93248E+03  3.22760E+04  3.13386E+04
 -6.36666E+03  3.39332E+04 -2.83073E+04  1.44157E+04 -2.83062E+04 -5.14485E+03 -1.52523E+04 -1.01663E+04
 -7.49884E+03 -1.18872E+04 -9.04585E+02 -1.68683E+04  6.89548E+03 -2.25795E+04  1.47867E+04 -1.41862E+04
  1.21849E+04  4.65140E+03 -6.43508E+03  1.28226E+04 -1.94727E+04 -2.75880E+03 -7.46680E+03 -3.10727E+04
  2.15290E+04 -4.18945E+04  4.49517E+04 -1.83148E+04  4.31143E+04  1.82823E+04  1.42509E+04  4.27452E+04
 -1.55500E+04  3.17569E+04 -2.41506E+04  1.50508E+03 -8.68248E+03 -2.66205E+04  2.12352E+04 -3.21008E+04
  3.84066E+04 -7.96051E+03  3.25228E+04  2.24320E+04  1.58294E+04  4.32382E+04 -7.87587E+03  4.65642E+04
 -2.89078E+04  3.05074E+04 -3.81368E+04  8.34787E+03 -3.88325E+04 -1.54996E+04 -2.14292E+04 -3.53054E+04
  7.02742E+03 -3.50746E+04  3.00906E+04 -1.30565E+04  2.73251E+04  1.07213E+04  2.60432E+03  1.75998E+04
 -1.31795E+04  6.94883E+03 -9.45486E+03 -7.99344E+03  6.09932E+03 -1.00413E+04  1.78212E+04  6.27692E+03
  1.25622E+04  2.16933E+04 -6.24839E+03  2.40154E+04 -2.16093E+04  9.53352E+03 -2.50102E+04 -5.93927E+03
 -1.76349E+04 -1.65640E+04 -5.42619E+03 -1.74689E+04  4.09400E+03 -1.59879E+04  1.32825E+04 -1.47211E+04
  2.19635E+04 -1.20226E+04  2.89366E+04  1.32158E+03  2.16632E+04  1.68443E+04  3.81955E+03  3.33240E+04
 -1.59618E+04  2.82753E+04 -2.63891E+04  9.32252E+03 -2.01044E+04 -1.05539E+04 -3.79521E+03 -1.31864E+04
  2.52960E+03 -4.30243E+03 -3.07538E+03  5.77700E+03 -1.31768E+04  5.30124E+03 -1.36570E+04 -4.73794E+03
 -9.10222E+03 -1.56140E+04  5.08563E+03 -1.96178E+04  1.26557E+04 -1.41047E+04  1.54297E+04 -1.52953E+03
  9.00552E+03  1.11509E+04 -9.59353E+02  1.58633E+04 -1.08773E+04  8.67790E+03 -1.58527E+04 -3.59352E+03
 -1.23638E+04 -1.48015E+04 -1.54925E+03 -1.94357E+04  8.80184E+03 -1.61482E+04  1.64417E+04 -7.33868E+03
  1.47237E+04  7.16114E+02  1.05916E+04  4.20920E+03  4.84843E+03  6.16170E+02  8.29874E+03 -1.19333E+03
  1.45629E+04  2.46542E+03  1.53146E+04  1.33744E+04  9.96798E+03  2.45919E+04 -3.12062E+03  2.78138E+04
 -1.56622E+04  2.14136E+04 -2.54377E+04  9.89437E+03 -2.59316E+04 -1.74523E+03 -2.13201E+04 -1.40377E+04
 -1.01504E+04 -2.12836E+04  7.56901E+03 -1.95357E+04  1.74358E+04 -1.12278E+04  1.57333E+04  4.08727E+03
  6.41561E+03  1.08499E+04 -7.81577E+03  1.02050E+04 -1.34187E+04  2.55535E+03 -1.06883E+04 -8.37031E+03
  2.86914E+02 -1.26994E+04  6.22613E+03 -9.27704E+03  7.70904E+03 -9.80026E+02  1.73623E+03  4.66143E+03
 -5.71532E+03  1.53210E+03 -3.51543E+03 -4.82993E+03  1.01358E+03 -1.01958E+04  8.05563E+03 -1.02317E+04
  1.27352E+04 -5.08316E+03  1.27765E+04  2.97291E+03  1.07627E+04  9.42639E+03  4.71316E+03  1.40520E+04
 -1.94889E+03  1.62137E+04 -9.52292E+03  1.00402E+04 -1.21446E+04  2.58605E+03 -8.83038E+03 -1.99420E+03
 -4.40703E+03 -3.59050E+03 -2.85703E+02  1.95209E+03 -2.28610E+03  2.35280E+03 -3.71846E+03  3.78635E+03
 -8.61728E+03 -5.38741E+02 -8.67072E+03 -7.54856E+03 -3.21155E+03 -1.20276E+04  3.72913E+03 -9.04421E+03
  8.07583E+03 -4.27418E+03  5.27167E+03  1.89175E+03  4.56454E+01  3.37489E+03 -3.50239E+03  4.19203E+02
 -2.50151E+03 -5.29351E+03 -1.02230E+03 -7.28354E+03  3.75062E+03 -8.06275E+03  9.55666E+03 -3.82386E+03
  1.20364E+04  9.53047E+02  8.50955E+03  6.64828E+03  1.69736E+03  9.11665E+03 -5.01228E+03  8.31480E+03
 -6.49872E+03  2.44551E+03 -3.70405E+03 -1.25799E+03  1.13921E+03 -2.11448E+03  4.77387E+03 -7.13379E+02
  4.60794E+03  3.54814E+03  8.34100E+02  6.29441E+03 -4.61051E+03  6.32716E+03 -8.19256E+03  1.74162E+03
 -4.94716E+03 -3.35372E+03 -2.35753E+02 -6.84976E+03  3.90897E+03 -3.18909E+03  3.81276E+03  8.66338E+02
  4.05988E+02  2.92748E+03 -4.37787E+03  4.66659E+03 -4.83544E+03  2.09783E+03 -4.65504E+03 -1.70159E+03
 -2.68293E+03 -5.49494E+03  1.28290E+03 -6.66954E+03  5.85421E+03 -4.90742E+03  6.40036E+03  9.53254E+02
  4.20755E+03  4.95373E+03  7.04369E+01  7.43813E+03 -5.27946E+03  3.81038E+03 -5.13011E+03  5.19719E+01
 -5.15484E+03 -4.58687E+03 -1.70899E+03 -4.50800E+03  1.97156E+03 -4.34093E+03  3.37447E+03 -2.81652E+03
  2.50759E+03 -1.56218E+02  2.78459E+02  8.10530E+02  6.18484E+02 -4.79130E+02  2.05368E+02 -1.54676E+03
  3.88073E+03 -2.29294E+02  4.78800E+03  4.28870E+02  5.28704E+03  2.96577E+03  5.48800E+03  7.05363E+03
 -1.27157E+03  8.36690E+03 -7.02328E+03  6.55486E+03 -1.01074E+04  1.69046E+03 -7.70057E+03 -2.95011E+03
 -4.42428E+03 -6.63647E+03 -8.12984E+02 -5.00738E+03  1.37992E+03 -1.91469E+03  1.76907E+03 -2.41332E+03
  1.25449E+03 -1.98572E+03  2.43545E+03 -2.08437E+03  3.63516E+03 -1.24643E+03  3.60183E+03  1.69165E+02
  3.95248E+03  1.46167E+03  7.31111E+02  3.33251E+03 -1.66461E+03  2.86494E+03 -4.07371E+03  2.43453E+03
 -4.48057E+03 -1.84007E+03 -1.58751E+03 -3.21095E+03  4.09288E+02 -4.44447E+03  2.79777E+03 -4.60803E+03
  5.17408E+03 -3.35168E+03  6.52172E+03 -9.39649E+01  4.15746E+03  3.89538E+03  5.32215E+02  5.91588E+03
 -1.67813E+03  5.79109E+03 -3.16915E+03  1.55682E+03 -1.96729E+03 -7.35839E+02 -1.01752E+03 -3.35328E+02
 -5.74253E+02  5.96792E+02 -9.63649E+02  2.28860E+03 -2.23909E+03  8.27612E+02 -3.98293E+03 -3.39456E+02
 -1.38117E+03 -3.86188E+03  1.06141E+03 -4.90749E+03  2.59406E+03 -4.08518E+03  3.96726E+03 -8.18232E+02
  3.88471E+03  2.35808E+03  2.18460E+03  2.99890E+03 -8.96802E+02  4.26386E+03 -2.72351E+03  2.80085E+03
 -3.75544E+03  8.42755E+02 -2.87618E+03 -2.04816E+03 -1.58008E+02 -3.37519E+03  1.56075E+03 -1.78742E+03
  2.93369E+03 -9.75146E+02  1.49490E+03  6.38238E+02  9.36428E+02  1.64300E+03  1.89219E+02  9.33922E+01
  1.69867E+03  6.92189E+02  1.33758E+03  9.41249E+02  8.69232E+02  2.71176E+03  1.40954E+03  1.56332E+03
 -7.52660E+02  2.51247E+03 -1.65836E+03  3.58638E+03 -2.95097E+03  8.44634E+02 -3.64747E+03 -5.30615E+02
 -1.75396E+03 -3.54658E+03  7.07297E+02 -4.17308E+03  2.39363E+03 -2.37012E+03  3.40233E+03 -7.90870E+02
  2.54157E+03  1.28179E+03  3.69841E+02  1.76804E+03 -7.98973E+02  1.04864E+03 -1.26570E+03  2.64800E+01
 -9.72924E+02 -1.18159E+03  1.01020E+03 -8.88754E+02  1.00492E+03 -1.07147E+03  1.42862E+03  6.84648E+01
  4.47873E+01  6.51437E+02  7.78210E+02 -3.64572E+02 -4.87617E+02  5.59113E+02  1.87576E+03 -4.63282E+02
 -3.87363E+02  6.15189E+02  1.66628E+03  5.00053E+02  4.03747E+02  3.23539E+03 -4.32024E+02  2.37517E+03
 -1.60261E+03  1.10507E+03 -1.69041E+03  1.28860E+02 -1.77872E+03 -2.58667E+02 -1.05441E+02 -9.52630E+02
  3.00842E+02 -1.38643E+03  9.18259E+02 -4.03825E+02  4.25414E+02  1.24671E+03 -1.34286E+03  1.21823E+03
 -8.54557E+02  5.45608E+02 -1.30756E+03 -1.03759E+03 -5.86642E+00 -2.08346E+03  4.26994E+02 -1.68635E+03
  4.41448E+02 -8.27047E+02  1.13449E+03 -2.41776E+01  8.92902E+02 -1.31199E+02  4.55587E+02  1.56205E+03
 -3.25609E+02 -1.63183E+02 -7.12152E+02  1.43591E+02  9.50767E+02 -2.65871E+02  1.71312E+03 -5.33788E+02
  1.04656E+03  4.62822E+02  2.93883E+03  8.22604E+02  1.18828E+03  1.19247E+03  1.73559E+02  1.66799E+03
 -1.69167E+03  9.28400E+01 -1.53113E+03 -2.07042E+02 -1.04278E+03 -1.06319E+03  1.49341E+02 -2.24639E+02
  1.71706E+03 -9.30937E+02  3.78003E+02  7.08005E+02  2.71798E+02  9.77159E+02  1.15772E+03  1.68592E+03
  3.50290E+02  7.65778E+02 -4.30588E+02  3.16825E+02 -5.93914E+01 -4.80184E+01 -7.19878E+02  1.15312E+03
 -5.18237E+02  9.48036E+02 -1.33641E+03  8.35855E+02 -1.83686E+03 -6.47552E+01 -1.64282E+03 -7.15338E+02
 -6.50020E+02 -1.96681E+03  8.42952E+02 -2.69177E+03  9.13096E+02 -2.66520E+03  2.33678E+03 -9.09317E+02
  1.57590E+03  7.21508E+01  1.12459E+03  1.88809E+03 -7.64999E+02  1.20700E+03 -1.12813E+02  8.11332E+02
 -4.76407E+02  4.35427E+02 -1.02571E+03  3.40847E+01 -6.96049E+02  3.84868E+02 -5.85360E+02  1.69319E+02
 -1.37676E+03 -3.43492E+01 -1.08797E+03  5.55005E+02  1.20703E+02 -3.71612E+02 -4.62465E+02 -5.97803E+02
  1.04881E+03 -2.87708E+02  1.45237E+02  1.83241E+02  9.74642E+02  7.20973E+02 -5.62142E+02  1.39225E+03
 -1.38204E+03  2.06665E+03 -1.30907E+03  1.25019E+03 -1.95864E+03  2.07271E+02 -1.19236E+03 -8.88422E+02
 -5.67465E+02 -1.50859E+03  1.03629E+02 -8.10274E+02  4.59488E+02  1.02904E+02  6.93937E+02  1.14755E+02
  6.74516E+02  6.84380E+02 -4.63769E+02  2.88672E+02 -3.65583E+02  1.46414E+02  1.07750E+02 -5.94908E+01
  4.08757E+02  2.02448E+02  1.67589E+02  7.76800E+02 -4.79996E+02  4.46360E+02  9.08540E+02 -1.06117E+02
 -1.94101E+02  3.16121E+02 -2.87954E+02 -7.51459E+00 -3.26133E+02 -3.49987E+02 -6.83053E+01 -4.73753E+02
  9.93106E+00 -2.03736E+02  6.05001E+02  5.57927E+01  3.17923E+02 -9.26313E+02 -3.32890E+02  9.15718E+02
 -2.78240E+01  3.74874E+02 -1.31040E+02  8.03358E+02 -6.66727E+02  7.86600E+02 -2.61890E+02 -1.47476E+01
  7.07915E+01 -9.69328E+01 -7.00166E+02  3.30203E+02 -3.83941E+02  1.08764E+02 -3.93199E+02 -1.72121E+02
 -3.81381E+02  8.14675E+02 -4.11014E+02 -9.61527E+02  9.44513E+02 -1.40480E+03  9.29541E+01  9.12319E+01
  8.79415E+01 -4.89179E+02 -1.08670E+02  1.98706E+02 -2.32402E+02  1.24083E+03 -2.11194E+02  4.78940E+02
