 $NMID ID='MM_0lb_SNR400_10hz_g60_84.RAW', FMTDAT='(8E13.5)'
 TRAMP=1., VOLUME=1. $END
  3.10500E+05  8.13441E+02  3.37703E+05  2.49917E+05  8.50359E+04  3.38554E+05 -1.31956E+05  2.52709E+05
 -1.91511E+05  8.39961E+04 -1.13034E+05 -3.20834E+04  8.56779E+02 -5.06894E+04  5.35376E+04 -8.48819E+02
  3.66622E+04  5.31541E+04 -1.60665E+04  7.57803E+04 -6.17589E+04  6.55443E+04 -8.51744E+04  3.28404E+04
 -8.22814E+04 -1.18582E+04 -5.82448E+04 -5.27583E+04 -1.58453E+04 -7.12139E+04  2.85288E+04 -4.61657E+04
  4.15091E+04  3.68440E+03  1.62772E+04  4.84317E+04 -3.43407E+04  4.86408E+04 -6.90169E+04 -4.00077E+02
 -5.37861E+04 -5.70152E+04 -7.49452E+03 -7.86758E+04  3.44622E+04 -5.72907E+04  4.97702E+04 -1.95255E+04
  4.54617E+04  1.07321E+04  3.30998E+04  2.74301E+04  1.48284E+04  3.16124E+04 -5.93969E+03  2.84250E+04
 -2.24313E+04  1.13268E+04 -1.80950E+04 -5.53211E+03  7.84559E+03 -6.62461E+03  2.37646E+04  1.41903E+04
  7.71399E+03  3.70768E+04 -3.43027E+04  3.74311E+04 -6.65829E+04  1.84571E+03 -5.87502E+04 -4.44648E+04
 -1.23274E+04 -6.55735E+04  4.17903E+04 -4.70085E+04  6.09958E+04 -2.74389E+03  3.71500E+04  3.43463E+04
 -5.26653E+03  3.94217E+04 -3.14574E+04  1.87622E+04 -3.31511E+04 -3.65434E+03 -1.93973E+04 -1.25214E+04
 -9.39042E+03 -1.44920E+04 -2.08321E+02 -1.93503E+04  8.94522E+03 -2.31380E+04  1.56480E+04 -1.27292E+04
  9.91251E+03  6.44897E+03 -1.04402E+04  1.33991E+04 -2.37258E+04 -6.67492E+03 -8.38079E+03 -3.82422E+04
  2.50316E+04 -4.76139E+04  5.23382E+04 -2.10924E+04  4.86300E+04  2.04820E+04  1.75490E+04  4.62593E+04
 -1.62613E+04  3.60038E+04 -2.73719E+04  2.29043E+03 -1.22469E+04 -3.00473E+04  2.16541E+04 -3.78585E+04
  4.48188E+04 -1.06593E+04  3.97381E+04  2.50301E+04  2.16108E+04  5.11701E+04 -7.84549E+03  5.69531E+04
 -3.59156E+04  3.88856E+04 -4.77183E+04  1.18346E+04 -4.80289E+04 -1.85579E+04 -2.58805E+04 -4.24031E+04
  7.99207E+03 -4.20585E+04  3.48912E+04 -1.73356E+04  3.21614E+04  1.14339E+04  5.35351E+03  2.07928E+04
 -1.44030E+04  9.24692E+03 -1.12271E+04 -8.38822E+03  6.67135E+03 -1.12610E+04  1.89977E+04  5.66933E+03
  1.55992E+04  2.22295E+04 -4.79293E+03  2.69424E+04 -2.34999E+04  1.51610E+04 -3.13992E+04 -3.26974E+03
 -2.57813E+04 -1.92858E+04 -1.20928E+04 -2.50501E+04  4.63962E+03 -2.63441E+04  2.00252E+04 -2.34816E+04
  3.21073E+04 -1.45136E+04  3.75601E+04  5.43610E+03  2.69185E+04  2.41378E+04  4.71944E+03  4.20372E+04
 -2.02599E+04  3.41859E+04 -3.08490E+04  1.21277E+04 -2.27744E+04 -1.01023E+04 -5.08380E+03 -1.33029E+04
  9.89087E+02 -6.70804E+02 -9.09871E+03  9.11279E+03 -2.08269E+04  5.06353E+03 -2.00585E+04 -9.82884E+03
 -1.19813E+04 -2.33310E+04  5.57980E+03 -2.81197E+04  1.88328E+04 -1.99974E+04  2.31156E+04 -1.97754E+03
  1.48135E+04  1.61842E+04 -1.01221E+03  2.31910E+04 -1.64869E+04  1.42664E+04 -2.42315E+04 -4.63083E+03
 -1.79997E+04 -2.11572E+04 -2.77935E+03 -2.87299E+04  1.23822E+04 -2.28961E+04  2.35180E+04 -1.20830E+04
  2.22339E+04 -1.09717E+02  1.63668E+04  5.36222E+03  9.12335E+03  1.60462E+03  1.28395E+04 -3.17639E+03
  2.25038E+04  2.99191E+03  2.59637E+04  1.86668E+04  1.72002E+04  3.78996E+04 -2.64506E+03  4.48868E+04
 -2.56403E+04  3.76969E+04 -4.20473E+04  1.96505E+04 -4.41042E+04 -2.88029E+03 -3.67362E+04 -2.64492E+04
 -1.39960E+04 -3.81354E+04  1.35384E+04 -3.18809E+04  2.80087E+04 -1.56266E+04  2.49491E+04  7.94726E+03
  7.88577E+03  1.82240E+04 -1.14473E+04  1.56650E+04 -1.97270E+04  2.55026E+03 -1.54010E+04 -1.23261E+04
 -2.89757E+02 -1.89173E+04  1.00295E+04 -1.46185E+04  1.33458E+04 -1.58119E+03  3.70827E+03  8.20388E+03
 -8.32327E+03  4.51637E+03 -8.82799E+03 -7.14035E+03 -1.61569E+03 -1.82978E+04  1.15799E+04 -1.92385E+04
  2.29961E+04 -1.10895E+04  2.63417E+04  3.50816E+03  2.31734E+04  1.86261E+04  1.09762E+04  2.90985E+04
 -5.85689E+03  3.14624E+04 -2.08264E+04  1.97653E+04 -2.21810E+04  3.50148E+03 -1.53326E+04 -6.35090E+03
 -6.16986E+03 -6.85625E+03 -1.35942E+02  5.84473E+02 -2.31789E+03  3.50326E+03 -7.27580E+03  6.20839E+03
 -1.40907E+04 -6.18149E+02 -1.52688E+04 -1.16595E+04 -6.76662E+03 -1.90138E+04  6.98696E+03 -1.59562E+04
  1.32409E+04 -5.89391E+03  8.63686E+03  4.09304E+03  2.01060E+02  5.57927E+03 -7.77405E+03 -1.04099E+03
 -7.11979E+03 -1.03738E+04 -1.28540E+03 -1.62742E+04  8.53511E+03 -1.62934E+04  1.95782E+04 -9.43239E+03
  2.37046E+04  2.89649E+03  1.67856E+04  1.36936E+04  2.14502E+03  1.88076E+04 -9.04337E+03  1.43845E+04
 -1.23432E+04  5.06400E+03 -6.99422E+03 -2.97218E+03  2.90714E+03 -4.25636E+03  7.86831E+03 -4.65597E+02
  7.61776E+03  7.03408E+03  1.86410E+03  1.23995E+04 -8.82775E+03  1.16335E+04 -1.51457E+04  2.67938E+03
 -1.09412E+04 -7.73233E+03 -2.91726E+02 -1.33859E+04  9.06025E+03 -6.71878E+03  9.20749E+03  3.15501E+03
  1.90328E+03  1.00435E+04 -8.14855E+03  1.08757E+04 -1.34441E+04  5.22469E+03 -1.30195E+04 -5.23183E+03
 -8.03113E+03 -1.57276E+04  3.86780E+03 -1.83617E+04  1.50062E+04 -1.07019E+04  1.65240E+04  3.17122E+03
  1.01094E+04  1.35304E+04 -1.29216E+03  1.49691E+04 -1.14237E+04  8.62605E+03 -1.26947E+04 -1.55717E+03
 -1.00788E+04 -1.06024E+04 -2.05753E+03 -1.24735E+04  6.34330E+03 -9.55873E+03  8.35913E+03 -3.68830E+03
  4.75942E+03  1.75309E+03 -1.29709E+03  1.28069E+03 -9.48924E+02 -3.79753E+03  3.17915E+03 -8.25805E+03
  1.17586E+04 -4.76968E+03  1.51913E+04  1.31602E+03  1.57329E+04  1.02744E+04  1.02261E+04  2.07464E+04
 -5.36108E+03  2.27796E+04 -1.97347E+04  1.70490E+04 -2.51595E+04  4.07644E+03 -2.10056E+04 -9.19972E+03
 -9.79141E+03 -1.64507E+04 -1.71007E+02 -1.54859E+04  5.39951E+03 -7.70051E+03  4.43189E+03 -5.85693E+03
  4.18469E+03 -3.80662E+03  4.34262E+03 -3.38936E+03  5.51607E+03 -3.56168E+03  7.93289E+03 -1.18255E+03
  1.05410E+04  2.29461E+03  5.24432E+03  9.58227E+03 -1.95307E+03  1.15843E+04 -1.13338E+04  8.78304E+03
 -1.35611E+04 -2.07497E+03 -8.53839E+03 -1.03192E+04 -1.15609E+03 -1.51563E+04  8.30052E+03 -1.53654E+04
  1.60299E+04 -7.36419E+03  1.91250E+04  1.77291E+03  1.23682E+04  1.29506E+04  2.14757E+03  1.75607E+04
 -7.59606E+03  1.37700E+04 -1.00287E+04  5.27421E+03 -6.09197E+03 -1.63115E+03 -2.47977E+03 -2.77969E+03
 -1.76633E+03 -1.10079E+02 -2.74637E+03  2.95127E+03 -6.61481E+03  2.56869E+03 -9.91149E+03 -1.06824E+03
 -7.03109E+03 -1.08036E+04 -8.15764E+02 -1.43740E+04  8.99502E+03 -1.29229E+04  1.41740E+04 -3.97172E+03
  1.34689E+04  6.78083E+03  6.33379E+03  1.32249E+04 -3.12348E+03  1.47148E+04 -1.02517E+04  8.67240E+03
 -1.40797E+04  6.30247E+02 -1.01871E+04 -8.57135E+03 -1.07078E+03 -1.10532E+04  6.50790E+03 -8.94159E+03
  8.93024E+03 -3.13750E+03  7.03030E+03  2.65647E+03  2.26587E+03  3.98528E+03  1.85745E+03  1.91574E+03
  2.35615E+03  1.54368E+03  3.85076E+03  1.51875E+03  4.33106E+03  4.38333E+03  3.35213E+03  7.72142E+03
 -2.14009E+03  1.19059E+04 -1.01319E+04  1.10371E+04 -1.48712E+04  3.13399E+03 -1.54184E+04 -6.43373E+03
 -7.27385E+03 -1.43262E+04  1.96216E+03 -1.58720E+04  8.98331E+03 -1.03482E+04  1.11378E+04 -2.39953E+03
  9.57926E+03  5.43706E+03  1.57759E+03  7.43062E+03 -4.25837E+03  5.36768E+03 -5.84718E+03 -8.02530E+02
 -3.01934E+03 -5.34537E+03  3.54939E+03 -6.10505E+03  6.65880E+03 -2.76165E+03  6.20722E+03  1.21802E+03
  3.88383E+03  2.53060E+03  1.74120E+03  3.36908E+03 -1.29797E+03  1.79378E+03  1.44540E+03 -6.56898E+02
  1.91007E+03 -9.04446E+02  5.59574E+03  2.50876E+03  3.14485E+03  7.96326E+03 -7.20226E+02  1.01762E+04
 -6.90100E+03  6.82223E+03 -9.24754E+03  1.35336E+03 -7.79106E+03 -3.75000E+03 -3.39764E+03 -5.48251E+03
  7.63588E+02 -5.57175E+03  4.47651E+03 -1.71874E+03  2.79165E+03  2.31682E+03 -7.91901E+02  4.82233E+03
 -6.25266E+03  2.49475E+03 -6.49838E+03 -3.71001E+03 -3.69274E+03 -7.88732E+03  1.35223E+03 -8.13322E+03
  4.83718E+03 -4.25705E+03  6.18151E+03 -5.61950E+02  5.24923E+03  1.89260E+03  1.02927E+03  4.18652E+03
 -2.89755E+03  6.48820E+02 -3.68215E+03 -2.51755E+03  8.13959E+02 -6.02907E+03  6.65994E+03 -4.46670E+03
  8.96101E+03  7.04118E+02  8.28161E+03  5.76269E+03  2.69355E+03  9.02634E+03 -3.29346E+03  8.79967E+03
 -7.11012E+03  3.59416E+03 -7.77370E+03 -1.05246E+03 -4.61847E+03 -6.28121E+03  1.25187E+03 -5.72797E+03
  5.92359E+03 -2.75350E+03  4.96077E+03  3.63308E+03  1.50226E+03  5.37169E+03 -1.19991E+02  4.51132E+03
 -2.35562E+03  2.83021E+03 -1.96702E+03  3.89096E+02 -1.27207E+03 -2.12172E+01 -1.47914E+03  2.16477E+03
 -2.36573E+03  3.43278E+03 -6.37108E+03  2.81583E+03 -1.00261E+04 -1.93051E+02 -1.06760E+04 -6.28891E+03
 -4.97402E+03 -1.20918E+04  2.72310E+03 -1.36881E+04  8.50904E+03 -1.10286E+04  1.39582E+04 -4.49981E+03
  1.17993E+04  2.31648E+03  8.07815E+03  8.59961E+03  6.87020E+02  9.84700E+03 -3.60426E+03  7.85790E+03
 -5.32905E+03  2.54829E+03 -3.04605E+03 -9.89703E+02 -2.63285E+02 -5.04735E+02 -7.55768E+02 -1.06881E+02
 -1.72910E+03  4.75445E+02 -2.65142E+03  2.83533E+01 -1.54914E+02 -2.66242E+03  6.38482E+02 -3.91746E+03
  4.44258E+03 -2.79844E+03  6.20172E+03 -2.31381E+02  6.40326E+03  4.71279E+03  1.55646E+03  9.01635E+03
 -4.83776E+03  1.05218E+04 -9.68280E+03  6.38400E+03 -1.14856E+04 -6.12122E+02 -8.12263E+03 -7.09648E+03
 -4.31090E+03 -9.80663E+03  2.25598E+03 -9.38994E+03  6.31531E+03 -5.06161E+03  5.74863E+03  5.14894E+02
  3.98868E+03  4.03655E+03  1.44545E+02  2.03935E+03 -2.67864E+03 -9.19965E+01  2.99734E+02 -2.56525E+03
  2.63003E+03 -1.40671E+03  3.25129E+03  2.57619E+03  2.47909E+03  4.72259E+03  5.57196E+02  4.22732E+03
 -3.25743E+03  4.05377E+03 -5.99597E+03  6.91873E+02 -5.40294E+03 -4.32405E+03 -9.57254E+02 -7.05977E+03
  5.18612E+03 -6.62554E+03  6.79476E+03 -2.24337E+03  6.69712E+03  2.00449E+03  3.63823E+03  5.91615E+03
  1.14298E+03  6.15438E+03 -2.50214E+03  4.94318E+03 -3.80860E+03  2.20580E+03 -2.92587E+03 -7.84188E+02
 -1.80037E+03 -1.45008E+02 -1.76281E+03  7.61234E+02 -3.39334E+03  9.84090E+02 -5.27869E+03 -3.96045E+02
 -4.54443E+03 -2.54666E+03 -1.67217E+03 -5.70679E+03  2.04951E+03 -6.16326E+03  5.95587E+03 -3.29754E+03
  5.93681E+03  5.78245E+02  3.07024E+03  4.24445E+03 -3.13796E+02  4.76518E+03 -4.71151E+03  4.11823E+03
