 $NMID ID='MM_0lb_SNR400_14hz_g60_62.RAW', FMTDAT='(8E13.5)'
 TRAMP=1., VOLUME=1. $END
  3.09723E+05  3.55578E+02  3.37757E+05  2.50146E+05  8.41079E+04  3.38767E+05 -1.32718E+05  2.51555E+05
 -1.90714E+05  8.30970E+04 -1.12854E+05 -3.28278E+04  4.56903E+02 -5.10963E+04  5.35075E+04 -2.73081E+02
  3.58131E+04  5.28895E+04 -1.68184E+04  7.54358E+04 -6.12189E+04  6.39377E+04 -8.41842E+04  3.28398E+04
 -8.14885E+04 -1.14391E+04 -5.74393E+04 -5.14645E+04 -1.49266E+04 -7.12117E+04  2.87207E+04 -4.61381E+04
  4.08092E+04  3.51546E+03  1.58519E+04  4.82447E+04 -3.38527E+04  4.77481E+04 -6.71476E+04 -4.92549E+02
 -5.39034E+04 -5.67489E+04 -6.97288E+03 -7.82114E+04  3.44514E+04 -5.56765E+04  4.91335E+04 -1.83981E+04
  4.44774E+04  1.09559E+04  3.26121E+04  2.54831E+04  1.56889E+04  2.97829E+04 -5.48032E+03  2.73416E+04
 -2.27532E+04  1.18743E+04 -1.87226E+04 -4.54842E+03  5.41949E+03 -7.12510E+03  2.20500E+04  1.30543E+04
  7.61549E+03  3.68843E+04 -3.20138E+04  3.62257E+04 -6.42130E+04  1.77004E+03 -5.76867E+04 -4.32062E+04
 -1.23515E+04 -6.44878E+04  4.03260E+04 -4.60192E+04  5.95309E+04 -1.82325E+03  3.57342E+04  3.21950E+04
 -5.66764E+03  3.68443E+04 -2.99553E+04  1.69218E+04 -3.11231E+04 -4.38554E+03 -1.74313E+04 -1.14483E+04
 -8.82638E+03 -1.41784E+04 -1.07498E+03 -1.86424E+04  7.95866E+03 -2.24956E+04  1.56238E+04 -1.25589E+04
  1.10749E+04  5.15526E+03 -9.17719E+03  1.30457E+04 -2.20521E+04 -5.76949E+03 -8.31853E+03 -3.55072E+04
  2.41779E+04 -4.53959E+04  4.96456E+04 -2.06962E+04  4.62654E+04  1.90816E+04  1.64224E+04  4.53448E+04
 -1.64572E+04  3.48362E+04 -2.60896E+04  2.07563E+03 -1.04066E+04 -2.83922E+04  2.09555E+04 -3.47280E+04
  4.23595E+04 -1.01978E+04  3.75490E+04  2.46954E+04  1.92226E+04  4.79931E+04 -7.86577E+03  5.23698E+04
 -3.29561E+04  3.57452E+04 -4.42013E+04  9.67323E+03 -4.42419E+04 -1.72168E+04 -2.44002E+04 -3.87474E+04
  7.37231E+03 -3.90755E+04  3.27015E+04 -1.55896E+04  2.98483E+04  1.07573E+04  4.32868E+03  1.95963E+04
 -1.34387E+04  9.06992E+03 -1.06691E+04 -7.53285E+03  6.15438E+03 -1.13476E+04  1.77111E+04  5.49453E+03
  1.35407E+04  2.24067E+04 -5.76159E+03  2.54518E+04 -2.28315E+04  1.28596E+04 -2.85813E+04 -4.22285E+03
 -2.19530E+04 -1.76182E+04 -9.37419E+03 -2.18709E+04  4.94359E+03 -2.18496E+04  1.66817E+04 -1.94990E+04
  2.86610E+04 -1.34117E+04  3.36560E+04  3.91029E+03  2.47618E+04  2.12466E+04  4.13450E+03  3.72972E+04
 -1.78108E+04  3.09844E+04 -2.85401E+04  1.10056E+04 -2.19053E+04 -1.09092E+04 -4.71062E+03 -1.35620E+04
  1.20286E+03 -2.44868E+03 -5.25609E+03  6.98545E+03 -1.70630E+04  5.06441E+03 -1.74309E+04 -7.89410E+03
 -1.01558E+04 -2.07948E+04  5.73951E+03 -2.44697E+04  1.62661E+04 -1.71594E+04  1.85362E+04 -1.35024E+03
  1.17991E+04  1.38391E+04 -1.13780E+03  2.00102E+04 -1.39892E+04  1.16860E+04 -2.02654E+04 -4.42423E+03
 -1.51842E+04 -1.80974E+04 -2.18848E+03 -2.45924E+04  1.13189E+04 -1.97385E+04  2.02562E+04 -1.07440E+04
  1.85470E+04 -1.30307E+02  1.33549E+04  5.02455E+03  7.50065E+03  7.26641E+02  1.03086E+04 -2.34688E+03
  1.84789E+04  3.08323E+03  2.02989E+04  1.60157E+04  1.45798E+04  3.22207E+04 -2.69027E+03  3.73140E+04
 -2.13259E+04  3.03332E+04 -3.46190E+04  1.44379E+04 -3.57194E+04 -2.70041E+03 -2.97213E+04 -2.05448E+04
 -1.26317E+04 -3.00796E+04  1.07941E+04 -2.66490E+04  2.32768E+04 -1.35702E+04  1.98825E+04  5.52479E+03
  7.23942E+03  1.52505E+04 -1.04045E+04  1.41465E+04 -1.74471E+04  2.35739E+03 -1.27140E+04 -1.08015E+04
  1.23139E+00 -1.64212E+04  8.89222E+03 -1.18665E+04  1.13555E+04 -1.65873E+03  2.61411E+03  7.02528E+03
 -7.32726E+03  2.62216E+03 -6.55264E+03 -5.75015E+03 -7.79040E+02 -1.44416E+04  9.85421E+03 -1.53668E+04
  1.79390E+04 -8.44969E+03  1.94110E+04  3.05891E+03  1.70706E+04  1.43193E+04  7.96232E+03  2.18351E+04
 -4.49040E+03  2.44031E+04 -1.57885E+04  1.39754E+04 -1.71638E+04  4.00318E+03 -1.19119E+04 -4.22902E+03
 -5.44484E+03 -5.39520E+03 -9.06488E+02  6.60376E+02 -2.06390E+03  2.61931E+03 -5.95588E+03  4.87392E+03
 -1.16932E+04 -5.79037E+02 -1.23689E+04 -9.91770E+03 -5.25010E+03 -1.56573E+04  4.69218E+03 -1.28950E+04
  1.07387E+04 -6.21617E+03  7.49915E+03  3.08694E+03  1.41329E+02  5.03144E+03 -5.71055E+03  3.19210E+02
 -5.68776E+03 -7.75342E+03 -9.12407E+02 -1.16167E+04  6.81356E+03 -1.22125E+04  1.55781E+04 -6.26187E+03
  1.78644E+04  1.44863E+03  1.30748E+04  1.07338E+04  2.75840E+03  1.39074E+04 -7.23278E+03  1.15319E+04
 -1.01711E+04  3.94343E+03 -4.88395E+03 -2.11291E+03  1.35811E+03 -3.09587E+03  7.24869E+03 -9.07486E+02
  5.94947E+03  5.16860E+03  1.56325E+03  9.26379E+03 -6.51122E+03  8.95896E+03 -1.17712E+04  2.11183E+03
 -7.89452E+03 -5.87374E+03  5.85357E+02 -1.01232E+04  6.08110E+03 -5.01815E+03  7.18540E+03  2.04782E+03
  1.21005E+03  6.89515E+03 -5.81831E+03  8.17867E+03 -9.55812E+03  3.58210E+03 -8.90955E+03 -3.21199E+03
 -5.54176E+03 -1.09116E+04  2.30934E+03 -1.25002E+04  1.10290E+04 -8.19756E+03  1.17320E+04  2.12003E+03
  6.40176E+03  9.23410E+03 -5.86136E+02  1.09422E+04 -8.23368E+03  5.62473E+03 -9.26592E+03 -2.80181E+02
 -8.37842E+03 -7.94678E+03 -7.88836E+02 -8.17884E+03  4.73306E+03 -7.14637E+03  5.27072E+03 -3.72572E+03
  3.82364E+03  1.06804E+03 -4.53309E+02  2.34171E+03  6.16283E+02 -1.60112E+03  1.60145E+03 -5.18039E+03
  7.69987E+03 -2.16563E+03  1.08387E+04  8.92569E+02  9.90905E+03  6.65296E+03  7.78883E+03  1.30827E+04
 -3.17888E+03  1.51432E+04 -1.33080E+04  1.10867E+04 -1.64106E+04  2.07945E+03 -1.39203E+04 -5.73456E+03
 -7.68680E+03 -1.13023E+04 -9.58197E+02 -9.43014E+03  3.72847E+03 -4.83764E+03  2.99979E+03 -3.45584E+03
  2.33873E+03 -2.51800E+03  2.66850E+03 -3.32222E+03  4.55244E+03 -2.87989E+03  5.76347E+03  4.99495E+00
  6.92415E+03  1.84660E+03  2.99957E+03  5.76780E+03 -2.39812E+03  6.67142E+03 -7.61572E+03  4.97610E+03
 -9.27114E+03 -8.06029E+02 -5.61764E+03 -6.52836E+03 -3.37312E+02 -9.67684E+03  5.52637E+03 -1.00974E+04
  9.61266E+03 -5.96293E+03  1.19612E+04  1.39824E+03  8.30679E+03  7.83281E+03  1.64247E+03  1.13057E+04
 -4.50275E+03  9.40757E+03 -6.05268E+03  3.81019E+03 -3.89858E+03 -1.05634E+03 -1.70443E+03 -1.95043E+03
 -7.06702E+02  4.56855E+02 -1.07132E+03  2.19405E+03 -3.80817E+03  1.55630E+03 -6.69083E+03 -1.28556E+03
 -3.64129E+03 -6.49844E+03  6.87837E+02 -8.81958E+03  4.80407E+03 -7.63309E+03  7.89927E+03 -2.95439E+03
  8.71290E+03  4.36871E+03  3.82504E+03  7.86284E+03 -1.58004E+03  8.98947E+03 -6.11496E+03  4.96836E+03
 -7.95721E+03  4.51940E+02 -6.02616E+03 -4.82812E+03 -9.94340E+02 -7.11200E+03  3.96893E+03 -5.60914E+03
  4.94408E+03 -1.73083E+03  3.18618E+03  1.18121E+03  8.61075E+02  2.62554E+03  8.27872E+02  1.71812E+03
  1.99862E+03  6.30881E+02  1.60428E+03  1.26327E+03  2.37478E+03  2.68001E+03  2.15975E+03  4.10571E+03
 -1.62564E+03  5.97280E+03 -5.56124E+03  7.51743E+03 -7.67546E+03  1.05651E+03 -8.65605E+03 -2.52773E+03
 -4.25595E+03 -8.21916E+03  1.84026E+03 -9.30198E+03  5.14434E+03 -5.58149E+03  6.51372E+03 -1.35979E+03
  5.11786E+03  2.95856E+03  6.29925E+02  4.52669E+03 -1.60866E+03  2.70614E+03 -3.14030E+03 -8.51411E+02
 -8.78419E+02 -3.56804E+03  2.42772E+03 -3.89315E+03  4.05470E+03 -1.00502E+03  2.84900E+03  6.26521E+02
  2.13401E+03  1.24163E+03  6.65782E+02  8.16346E+02 -9.51421E+01  1.48755E+03  1.95342E+03 -3.66323E+02
  1.13562E+03 -5.19654E+02  3.48966E+03  1.29555E+03  2.01226E+03  4.22377E+03 -4.22858E+02  5.41894E+03
 -3.21596E+03  2.89527E+03 -5.07095E+03  8.66717E+02 -4.12980E+03 -1.63460E+03 -1.16287E+03 -3.74890E+03
  1.03900E+03 -3.14554E+03  2.16031E+03 -1.62714E+03  8.91800E+02  1.52202E+03 -1.43924E+03  1.92748E+03
 -2.94566E+03  1.44315E+03 -3.45299E+03 -1.76306E+03 -2.19697E+03 -3.70758E+03  6.59098E+02 -3.35163E+03
  1.89854E+03 -2.08836E+03  2.49209E+03 -1.08113E+02  3.07314E+03  5.58378E+02  2.28415E+02  2.29610E+03
 -1.17800E+03  4.92886E+02 -2.45063E+03 -1.48079E+03  1.20422E+03 -2.62928E+03  3.66136E+03 -2.47848E+03
  3.59042E+03  5.45067E+02  4.56841E+03  2.75226E+03  1.93940E+03  4.89213E+03 -6.85019E+02  4.01011E+03
 -3.97483E+03  1.15846E+03 -4.26281E+03 -6.14932E+02 -2.40798E+03 -3.40926E+03  9.48612E+02 -2.44752E+03
  3.49762E+03 -1.79084E+03  2.52989E+03  1.32737E+03  6.45455E+02  2.46630E+03 -3.45934E+02  2.28367E+03
 -4.18774E+02  2.02929E+03 -1.15938E+03  5.77805E+02  6.05916E+01  2.98625E+02 -6.02786E+02  1.33285E+03
 -1.84926E+03  1.79085E+03 -3.40999E+03  1.56720E+03 -4.23301E+03 -2.42784E+02 -5.83032E+03 -2.90056E+03
 -2.80581E+03 -6.23517E+03  9.96138E+02 -6.98603E+03  3.75722E+03 -5.20318E+03  6.70206E+03 -2.20119E+03
  5.91765E+03  7.49570E+02  3.21750E+03  4.19491E+03 -3.70033E+02  4.23924E+03 -1.89163E+03  3.61671E+03
 -2.80586E+03  2.09557E+03 -2.13200E+03  1.92230E+02 -5.30310E+02 -3.29721E+02 -1.02994E+03 -8.97931E+02
 -1.95170E+03  3.26506E+02 -1.77640E+03 -2.93349E+02 -6.14831E+01 -9.42595E+02  1.38995E+02 -1.90489E+03
  3.08050E+03 -1.21109E+03  2.42419E+03  6.30877E+01  2.75966E+03  1.90873E+03  6.20570E+01  3.86085E+03
 -1.85744E+03  5.12639E+03 -4.24741E+03  3.17873E+03 -4.76913E+03 -4.57585E+02 -3.42753E+03 -3.27268E+03
 -1.48701E+03 -3.48980E+03  1.04468E+03 -3.52822E+03  3.04808E+03 -2.30575E+03  2.94361E+03  3.61836E+02
  8.97811E+02  9.48107E+02  1.88988E+01  1.64739E+03 -3.41336E+02  3.12644E+02  7.66895E+01 -8.57742E+02
  1.29855E+03 -3.65475E+02  1.16277E+03  8.99133E+02  1.04915E+03  1.19941E+03  3.42798E+02  1.92648E+03
 -1.56662E+03  1.62388E+03 -2.18356E+03 -5.21322E+01 -2.18192E+03 -1.76304E+03 -1.08640E+03 -2.88171E+03
  1.90616E+03 -2.79445E+03  2.87240E+03 -7.39614E+02  3.17947E+03  2.22500E+02  1.94155E+03  2.12245E+03
  6.72532E+02  2.54093E+03 -1.34997E+03  1.85525E+03 -1.12467E+03  1.58703E+03 -2.14613E+03  4.38266E+02
 -5.34499E+02 -3.45517E+02 -1.33759E+03  1.60507E+02 -1.94783E+03 -3.67328E+02 -2.07502E+03 -4.59552E+02
 -2.37687E+03 -7.75567E+02 -2.01461E+02 -2.49251E+03  8.62960E+02 -2.47475E+03  2.42754E+03 -1.06986E+03
  2.21956E+03  5.40600E+02  1.11616E+03  1.41087E+03  6.56453E+00  2.86520E+03 -1.77082E+03  1.34375E+03
