 $NMID ID='MM_0lb_SNR400_15hz_g40_49.RAW', FMTDAT='(8E13.5)'
 TRAMP=1., VOLUME=1. $END
  3.10196E+05  1.00810E+01  3.37362E+05  2.50409E+05  8.47144E+04  3.37988E+05 -1.32699E+05  2.50463E+05
 -1.89348E+05  8.31411E+04 -1.11424E+05 -3.31388E+04  8.89538E+02 -5.08719E+04  5.37324E+04 -1.44542E+02
  3.59994E+04  5.24140E+04 -1.67834E+04  7.50799E+04 -6.07588E+04  6.30257E+04 -8.37603E+04  3.19258E+04
 -8.02315E+04 -1.14452E+04 -5.64814E+04 -5.08680E+04 -1.44628E+04 -6.90440E+04  2.69074E+04 -4.55336E+04
  3.94654E+04  3.85842E+03  1.60641E+04  4.74258E+04 -3.38099E+04  4.64334E+04 -6.61053E+04 -3.13788E+02
 -5.26309E+04 -5.66095E+04 -6.40097E+03 -7.70304E+04  3.37434E+04 -5.35795E+04  4.73109E+04 -1.66829E+04
  4.27547E+04  1.14032E+04  3.16807E+04  2.47111E+04  1.61331E+04  2.86178E+04 -4.93081E+03  2.72492E+04
 -2.17413E+04  1.23391E+04 -1.88630E+04 -4.42256E+03  5.21821E+03 -7.52814E+03  2.15049E+04  1.16665E+04
  7.41430E+03  3.44003E+04 -3.12510E+04  3.49164E+04 -6.26413E+04  2.16641E+03 -5.62000E+04 -4.20891E+04
 -1.24919E+04 -6.28456E+04  3.85434E+04 -4.43704E+04  5.63229E+04 -2.22634E+03  3.31550E+04  3.12431E+04
 -6.36199E+03  3.44098E+04 -2.87404E+04  1.44199E+04 -2.90012E+04 -4.99258E+03 -1.55503E+04 -1.04099E+04
 -7.57235E+03 -1.24021E+04 -1.35020E+03 -1.72990E+04  6.96755E+03 -2.26318E+04  1.53217E+04 -1.35806E+04
  1.12579E+04  4.88074E+03 -7.37604E+03  1.29728E+04 -2.05318E+04 -3.37969E+03 -8.19537E+03 -3.27683E+04
  2.18445E+04 -4.24916E+04  4.68423E+04 -1.86980E+04  4.41200E+04  1.87716E+04  1.48202E+04  4.34351E+04
 -1.53443E+04  3.18768E+04 -2.43714E+04  1.40991E+03 -8.46309E+03 -2.70352E+04  2.06503E+04 -3.24463E+04
  3.98699E+04 -7.92339E+03  3.35350E+04  2.36424E+04  1.72033E+04  4.42892E+04 -7.77603E+03  4.79485E+04
 -2.99840E+04  3.20820E+04 -3.98058E+04  9.40254E+03 -4.07414E+04 -1.60870E+04 -2.23447E+04 -3.62014E+04
  7.35987E+03 -3.59709E+04  3.07896E+04 -1.43183E+04  2.83300E+04  1.04792E+04  2.92608E+03  1.88029E+04
 -1.29063E+04  7.18948E+03 -9.60309E+03 -7.41987E+03  5.88167E+03 -1.02363E+04  1.72736E+04  6.25707E+03
  1.29067E+04  2.27359E+04 -6.34279E+03  2.40183E+04 -2.22450E+04  1.04616E+04 -2.67309E+04 -5.01965E+03
 -1.94999E+04 -1.69020E+04 -7.41860E+03 -1.92266E+04  3.65182E+03 -1.74065E+04  1.40934E+04 -1.65185E+04
  2.40107E+04 -1.20030E+04  3.08738E+04  1.72294E+03  2.27731E+04  1.78415E+04  4.24869E+03  3.46789E+04
 -1.67992E+04  2.92877E+04 -2.73883E+04  9.96112E+03 -2.05044E+04 -1.00151E+04 -3.82319E+03 -1.37439E+04
  1.54392E+03 -3.40386E+03 -4.01826E+03  5.88283E+03 -1.41242E+04  4.64036E+03 -1.52708E+04 -5.86813E+03
 -9.08205E+03 -1.78040E+04  5.21800E+03 -2.09488E+04  1.36063E+04 -1.55706E+04  1.66347E+04 -1.17610E+03
  1.07354E+04  1.29002E+04 -1.02817E+03  1.74449E+04 -1.20296E+04  9.50001E+03 -1.76957E+04 -3.93132E+03
 -1.27550E+04 -1.57216E+04 -1.56308E+03 -2.08968E+04  9.22593E+03 -1.74089E+04  1.82264E+04 -8.45685E+03
  1.60310E+04  5.85192E+02  1.18283E+04  4.10879E+03  6.31029E+03  9.28981E+02  8.35196E+03 -1.23451E+03
  1.62093E+04  2.79458E+03  1.72932E+04  1.41636E+04  1.14243E+04  2.82660E+04 -3.01734E+03  3.09308E+04
 -1.82576E+04  2.42282E+04 -2.78149E+04  1.16556E+04 -2.98460E+04 -2.41114E+03 -2.51551E+04 -1.70438E+04
 -1.04905E+04 -2.47723E+04  8.39262E+03 -2.21539E+04  1.95368E+04 -1.25314E+04  1.74714E+04  4.87109E+03
  7.32586E+03  1.26414E+04 -8.54637E+03  1.17827E+04 -1.46763E+04  2.86612E+03 -1.12132E+04 -8.85755E+03
 -1.14352E+02 -1.44019E+04  7.36533E+03 -1.05676E+04  9.02181E+03 -1.24483E+03  2.08881E+03  5.28758E+03
 -6.18260E+03  2.08589E+03 -5.17312E+03 -5.37328E+03  1.81553E+02 -1.25009E+04  8.73889E+03 -1.20363E+04
  1.48870E+04 -6.61960E+03  1.53944E+04  3.24428E+03  1.33306E+04  1.18984E+04  5.62287E+03  1.68898E+04
 -2.54030E+03  1.97096E+04 -1.22481E+04  1.25566E+04 -1.36462E+04  3.10064E+03 -9.87454E+03 -2.61539E+03
 -5.11086E+03 -4.74858E+03 -6.45383E+02  1.11346E+03 -2.49693E+03  2.46089E+03 -4.53258E+03  4.50208E+03
 -9.56491E+03 -1.73744E+02 -9.93835E+03 -8.00320E+03 -4.04096E+03 -1.33867E+04  4.00067E+03 -1.02312E+04
  8.22591E+03 -4.86472E+03  6.87923E+03  2.57389E+03  3.42948E+02  3.61591E+03 -4.47380E+03  1.77864E+02
 -4.51829E+03 -5.72213E+03 -9.08623E+02 -9.23087E+03  4.97163E+03 -1.00873E+04  1.22892E+04 -4.70557E+03
  1.42060E+04  1.31476E+03  1.11366E+04  7.77210E+03  1.96915E+03  1.18041E+04 -6.54094E+03  1.06363E+04
 -8.47888E+03  2.83759E+03 -4.36043E+03 -2.08680E+03  1.36366E+03 -2.72609E+03  5.09782E+03 -8.95085E+02
  4.77381E+03  4.06070E+03  9.50874E+02  7.46090E+03 -5.20834E+03  7.72200E+03 -9.52904E+03  2.17057E+03
 -6.32831E+03 -4.66834E+03 -1.17147E+02 -8.26549E+03  4.84715E+03 -4.38803E+03  4.92066E+03  1.85129E+03
  1.10653E+03  4.95872E+03 -5.38517E+03  6.66023E+03 -7.22458E+03  3.62505E+03 -6.55893E+03 -1.77068E+03
 -3.67531E+03 -7.65864E+03  1.42900E+03 -9.71458E+03  7.82417E+03 -6.28691E+03  9.00789E+03  6.53512E+02
  6.10991E+03  7.33704E+03 -1.10012E+02  9.65357E+03 -5.89273E+03  4.17122E+03 -6.47334E+03  3.78205E+02
 -6.75938E+03 -6.28466E+03 -1.44055E+03 -6.42901E+03  3.51065E+03 -5.78677E+03  3.93082E+03 -3.07986E+03
  3.19040E+03  8.12024E+02  5.69150E+01  9.61842E+02  5.97388E+02 -7.68555E+02  1.03181E+03 -3.06158E+03
  5.06222E+03 -1.80596E+03  7.80440E+03  1.47523E+03  7.95758E+03  4.99436E+03  6.49169E+03  1.06603E+04
 -2.36549E+03  1.22549E+04 -1.06830E+04  9.20399E+03 -1.34431E+04  2.19548E+03 -1.06274E+04 -4.48218E+03
 -5.91024E+03 -9.20192E+03 -3.32108E+02 -6.90148E+03  2.78927E+03 -3.82802E+03  3.04598E+03 -2.80688E+03
  2.08881E+03 -2.48118E+03  2.44831E+03 -2.40935E+03  4.31502E+03 -1.79196E+03  4.72351E+03  1.89357E+02
  6.13022E+03  1.54015E+03  2.13295E+03  5.02175E+03 -1.32903E+03  4.48042E+03 -6.17905E+03  3.39987E+03
 -6.94801E+03 -8.85446E+02 -4.05608E+03 -4.86542E+03 -2.79335E+02 -7.18442E+03  4.60438E+03 -7.28022E+03
  8.08382E+03 -4.75674E+03  9.05504E+03  4.25467E+02  7.42687E+03  6.05639E+03  1.47464E+03  8.98625E+03
 -2.89425E+03  8.02042E+03 -4.26423E+03  2.86989E+03 -3.05561E+03 -7.25886E+02 -1.14975E+03 -5.86251E+02
 -1.09519E+03  6.00297E+02 -9.54782E+02  2.31204E+03 -3.41357E+03  1.79601E+03 -5.46750E+03 -7.30863E+02
 -2.94757E+03 -6.03060E+03  3.92700E+02 -6.91691E+03  4.72864E+03 -6.16806E+03  6.07853E+03 -1.84476E+03
  6.93708E+03  3.09747E+03  2.95823E+03  5.55882E+03 -1.23045E+03  6.73299E+03 -4.11239E+03  4.06260E+03
 -6.36941E+03  1.42467E+03 -4.84345E+03 -4.05027E+03 -1.08425E+03 -4.53271E+03  3.28818E+03 -4.32281E+03
  4.43564E+03 -1.94310E+03  2.25072E+03  9.87322E+02  5.80454E+02  2.72709E+03  8.26516E+02  1.09130E+03
  2.27747E+03  3.25790E+02  1.91887E+03  1.70426E+03  1.28801E+03  2.21150E+03  2.16264E+03  3.15194E+03
 -1.84904E+03  4.61968E+03 -3.98429E+03  5.41642E+03 -5.89630E+03  1.88345E+03 -7.05450E+03 -1.60085E+03
 -3.05531E+03 -6.47995E+03  5.19045E+02 -7.75611E+03  3.00037E+03 -4.26892E+03  5.09419E+03 -1.13456E+03
  3.98956E+03  3.05095E+03  7.58804E+02  3.93024E+03 -2.50735E+03  2.28754E+03 -1.37613E+03 -3.35868E+02
 -1.50742E+03 -2.49006E+03  1.30345E+03 -1.97679E+03  2.46610E+03 -1.56308E+03  2.25354E+03  9.04362E+02
  1.68387E+03  7.91914E+02  9.31068E+02  2.80813E+02 -2.32559E+02  1.27629E+03  1.78809E+03  1.65786E+02
  3.32559E+02 -5.85928E+01  3.25586E+03  1.21644E+03  1.07333E+03  3.01501E+03 -1.97229E+02  4.20361E+03
 -2.71941E+03  2.17896E+03 -3.82500E+03  6.99924E+02 -4.13253E+03 -1.89906E+03 -5.78447E+02 -2.06543E+03
  4.64574E+02 -1.82688E+03  1.58206E+03 -9.12418E+02  9.60680E+02  1.36235E+03 -1.03447E+03  1.61626E+03
 -2.20832E+03  1.08197E+03 -2.65672E+03 -2.01381E+03 -1.38651E+03 -3.05495E+03  7.73907E+02 -2.84325E+03
  1.70403E+03 -1.39293E+03  2.35579E+03 -2.55286E+02  2.35758E+03  6.21078E+02  2.69959E+02  2.10844E+03
 -1.03164E+03  7.03272E+02 -1.60375E+03 -6.99378E+02  9.69154E+02 -1.94466E+03  2.85082E+03 -1.76014E+03
  3.49603E+03  2.99644E+02  3.86101E+03  1.84393E+03  1.48029E+03  2.50254E+03 -2.36064E+02  3.29293E+03
 -3.02486E+03  7.64717E+02 -2.75963E+03  1.63317E+02 -1.47864E+03 -1.88923E+03  6.32148E+02 -1.11275E+03
  2.38395E+03 -1.17976E+03  2.02980E+03  9.66518E+02  1.83117E+02  2.53208E+03 -9.24167E+01  1.93697E+03
 -8.03248E+02  1.46129E+03 -1.20167E+03  2.12765E+02 -6.18335E+01  7.59257E+02 -1.06565E+03  2.38664E+02
 -1.14108E+03  1.53636E+03 -2.73780E+03  1.22946E+03 -3.37227E+03  3.17738E+02 -5.24195E+03 -1.58760E+03
 -2.13262E+03 -4.53597E+03  1.73658E+03 -5.26346E+03  2.89858E+03 -4.73314E+03  5.29753E+03 -9.55091E+02
  4.65728E+03 -1.10791E+02  2.32262E+03  3.43820E+03 -2.79036E+02  3.20342E+03 -1.44294E+03  2.47208E+03
 -2.16252E+03  1.67223E+03 -1.15727E+03  1.83692E+02 -6.75754E+02  1.10253E+02 -9.58025E+02 -6.26912E+02
 -1.00254E+03 -1.10969E+02 -1.12402E+03 -8.70354E+01 -4.12024E+02 -1.41077E+03 -8.13122E+02 -1.95690E+03
  1.50178E+03 -1.24063E+03  1.40309E+03  4.59839E+02  1.91423E+03  1.71667E+03 -3.38090E+02  2.81376E+03
 -2.11141E+03  4.28339E+03 -3.55937E+03  1.88277E+03 -4.01402E+03 -3.19521E+02 -2.35116E+03 -2.32810E+03
 -1.02543E+03 -3.71975E+03  7.17156E+02 -4.18247E+03  2.32484E+03 -1.84975E+03  1.77663E+03 -4.03020E+02
  1.72064E+03  9.73041E+02 -6.38504E+02  6.23567E+02 -4.77425E+02 -7.01451E+02 -3.93580E+02 -4.98121E+02
  1.32086E+03 -4.35715E+01  1.30917E+03  1.02832E+03  8.23770E+02  1.40982E+03  4.31690E+02  1.23641E+03
 -1.47981E+03  1.22181E+03 -1.54560E+03 -2.39555E+02 -1.46709E+03 -1.17955E+03  3.01852E+02 -2.52636E+03
  1.11928E+03 -2.03337E+03  1.20574E+03 -3.29138E+02  2.18837E+03  4.45562E+01  2.24055E+03  1.79914E+03
  5.73640E+02  1.51105E+03 -5.06291E+02  1.51257E+03 -1.94412E+03  2.90053E+02 -1.28920E+03  4.42252E+02
 -6.80754E+02  3.91642E+02 -1.07372E+03  5.16134E+02 -1.03644E+03  2.29918E+02 -1.05172E+03 -1.99479E+02
 -1.24088E+03 -3.91108E+02 -8.39203E+02 -1.72085E+03  1.23092E+03 -2.00615E+03  1.90912E+03 -2.73855E+02
  1.65467E+03 -2.99855E+02  7.02743E+02  1.01966E+03 -2.29085E+02  2.55482E+03 -9.86581E+02  1.64528E+03
