 $NMID ID='MM_0lb_SNR400_20hz_g60_41.RAW', FMTDAT='(8E13.5)'
 TRAMP=1., VOLUME=1. $END
  3.09781E+05  8.30051E+02  3.37734E+05  2.50331E+05  8.48378E+04  3.37745E+05 -1.32802E+05  2.51049E+05
 -1.89745E+05  8.31281E+04 -1.11147E+05 -3.18753E+04  1.39042E+03 -5.03578E+04  5.34720E+04  4.17490E+02
  3.53408E+04  5.27013E+04 -1.70792E+04  7.51157E+04 -6.02710E+04  6.34514E+04 -8.31612E+04  3.18677E+04
 -8.01226E+04 -1.09697E+04 -5.67105E+04 -5.06954E+04 -1.50158E+04 -6.90824E+04  2.68328E+04 -4.55595E+04
  3.93759E+04  4.18239E+03  1.54497E+04  4.69651E+04 -3.44792E+04  4.70220E+04 -6.57406E+04 -2.88313E+02
 -5.23050E+04 -5.62063E+04 -6.51186E+03 -7.56568E+04  3.37343E+04 -5.28091E+04  4.64163E+04 -1.60674E+04
  4.22281E+04  1.08448E+04  3.11161E+04  2.43390E+04  1.64099E+04  2.86940E+04 -5.40413E+03  2.70805E+04
 -2.16844E+04  1.25807E+04 -1.88453E+04 -4.72023E+03  4.52684E+03 -7.63485E+03  2.16111E+04  1.15984E+04
  7.51455E+03  3.34786E+04 -3.14063E+04  3.47605E+04 -6.22542E+04  1.84952E+03 -5.58039E+04 -4.21591E+04
 -1.24077E+04 -6.14841E+04  3.77777E+04 -4.43087E+04  5.62001E+04 -1.54951E+03  3.25386E+04  3.10374E+04
 -6.32742E+03  3.45755E+04 -2.89128E+04  1.46234E+04 -2.80627E+04 -5.14562E+03 -1.57533E+04 -1.02389E+04
 -7.36792E+03 -1.23614E+04 -1.44495E+03 -1.68031E+04  6.67250E+03 -2.22903E+04  1.51391E+04 -1.37517E+04
  1.18528E+04  4.26904E+03 -7.16327E+03  1.29073E+04 -1.94620E+04 -2.86724E+03 -8.03951E+03 -3.06648E+04
  2.11039E+04 -4.16498E+04  4.49818E+04 -1.85736E+04  4.27719E+04  1.88002E+04  1.44548E+04  4.17633E+04
 -1.54607E+04  3.11280E+04 -2.41266E+04  1.40216E+03 -8.31659E+03 -2.66703E+04  2.10337E+04 -3.17518E+04
  3.87144E+04 -7.74038E+03  3.27810E+04  2.20003E+04  1.63342E+04  4.34214E+04 -8.21829E+03  4.61215E+04
 -2.91403E+04  3.06779E+04 -3.84420E+04  8.61587E+03 -3.91919E+04 -1.57111E+04 -2.11264E+04 -3.48222E+04
  6.88981E+03 -3.43275E+04  2.93337E+04 -1.28840E+04  2.72997E+04  1.03671E+04  2.73946E+03  1.85754E+04
 -1.33418E+04  7.50345E+03 -1.00262E+04 -7.60717E+03  6.03361E+03 -9.99364E+03  1.75767E+04  6.64708E+03
  1.26209E+04  2.17608E+04 -6.79165E+03  2.35660E+04 -2.16135E+04  9.34627E+03 -2.54326E+04 -5.89490E+03
 -1.73748E+04 -1.62964E+04 -6.27712E+03 -1.74699E+04  4.24268E+03 -1.53861E+04  1.30590E+04 -1.49931E+04
  2.20354E+04 -1.17409E+04  2.85525E+04  1.23204E+03  2.16921E+04  1.68845E+04  3.76656E+03  3.26186E+04
 -1.66610E+04  2.84088E+04 -2.61003E+04  9.82476E+03 -1.95503E+04 -1.07086E+04 -3.92502E+03 -1.37216E+04
  2.62756E+03 -4.23491E+03 -3.06259E+03  5.56738E+03 -1.32779E+04  5.23079E+03 -1.36318E+04 -5.11304E+03
 -8.83482E+03 -1.59922E+04  4.44243E+03 -1.96730E+04  1.27049E+04 -1.43114E+04  1.46942E+04 -9.47165E+02
  9.07149E+03  1.13270E+04 -9.29219E+02  1.61015E+04 -1.05734E+04  8.83783E+03 -1.58800E+04 -3.54928E+03
 -1.21998E+04 -1.39389E+04 -1.59420E+03 -1.91757E+04  8.67289E+03 -1.56320E+04  1.63315E+04 -7.47546E+03
  1.46554E+04  4.52269E+02  1.05032E+04  3.49445E+03  5.29968E+03  3.97542E+02  7.77989E+03 -1.51608E+03
  1.37199E+04  2.83569E+03  1.46818E+04  1.27754E+04  9.11659E+03  2.44790E+04 -3.26534E+03  2.69679E+04
 -1.57879E+04  2.04910E+04 -2.46445E+04  9.73413E+03 -2.58383E+04 -2.23364E+03 -2.17647E+04 -1.42553E+04
 -1.05518E+04 -2.05564E+04  7.03498E+03 -1.90134E+04  1.66479E+04 -1.05259E+04  1.59394E+04  3.90825E+03
  6.63498E+03  1.15858E+04 -7.13760E+03  1.03064E+04 -1.33240E+04  2.33881E+03 -1.06189E+04 -8.07335E+03
 -5.65051E+02 -1.26322E+04  6.72728E+03 -9.51972E+03  8.03107E+03 -1.29061E+03  1.12460E+03  4.87991E+03
 -6.00478E+03  1.58333E+03 -3.62210E+03 -4.54480E+03  2.91524E+02 -9.98427E+03  7.89093E+03 -1.03208E+04
  1.20620E+04 -4.16950E+03  1.19182E+04  2.81159E+03  1.01720E+04  8.90566E+03  5.14610E+03  1.40713E+04
 -1.40336E+03  1.59162E+04 -9.32428E+03  1.00978E+04 -1.09770E+04  3.16110E+03 -7.81341E+03 -1.58228E+03
 -4.81586E+03 -2.70870E+03 -1.21357E+03  1.10316E+03 -1.99689E+03  1.60817E+03 -3.97177E+03  3.79928E+03
 -8.26730E+03 -2.81254E+02 -9.26613E+03 -7.76620E+03 -4.05145E+03 -1.17624E+04  3.29784E+03 -8.29381E+03
  7.14956E+03 -3.69579E+03  4.52505E+03  2.59863E+03  4.22910E+02  3.14277E+03 -3.10763E+03  3.62282E+01
 -2.91900E+03 -5.11057E+03 -1.02185E+03 -6.95270E+03  3.64428E+03 -7.44176E+03  9.51624E+03 -3.59154E+03
  1.13473E+04  6.84301E+02  8.32591E+03  6.23996E+03  1.82524E+03  8.44621E+03 -4.83287E+03  8.06753E+03
 -6.53885E+03  2.71817E+03 -3.52733E+03 -1.21446E+03  1.38586E+03 -2.32186E+03  4.72672E+03 -9.82460E+02
  3.75466E+03  2.73503E+03  1.41958E+03  6.17052E+03 -4.88253E+03  5.85708E+03 -7.72434E+03  1.38722E+03
 -4.77519E+03 -3.78922E+03  7.25307E+02 -6.38662E+03  3.82790E+03 -3.08876E+03  3.57755E+03  8.07793E+02
 -4.32691E+02  3.18394E+03 -3.73575E+03  4.11301E+03 -4.14110E+03  2.34253E+03 -3.95255E+03 -1.31480E+03
 -2.80373E+03 -5.64615E+03  1.07813E+03 -6.21116E+03  5.44601E+03 -4.72023E+03  6.27094E+03  4.04369E+02
  4.00926E+03  5.50212E+03 -6.73914E+01  7.30127E+03 -4.89899E+03  4.15239E+03 -4.81772E+03 -3.32325E+02
 -5.91186E+03 -4.92728E+03 -1.42189E+03 -4.39868E+03  2.58719E+03 -4.84666E+03  2.83873E+03 -2.88229E+03
  2.36577E+03 -1.26054E+02 -1.24092E+02  1.41151E+03  7.87610E+02 -2.05283E+02  2.04264E+02 -1.23105E+03
  3.54299E+03 -5.51458E+02  4.47842E+03  3.56190E+02  5.44178E+03  2.22639E+03  4.97081E+03  6.68366E+03
 -1.55334E+03  7.30775E+03 -7.24445E+03  5.84648E+03 -8.70183E+03  1.00190E+03 -6.75284E+03 -2.61088E+03
 -4.26785E+03 -6.20315E+03 -7.69643E+02 -4.46368E+03  1.74798E+03 -1.94758E+03  1.77903E+03 -1.88313E+03
  1.17907E+03 -1.53223E+03  2.42407E+03 -2.59701E+03  3.12539E+03 -1.47246E+03  3.97686E+03  6.60938E+02
  4.52001E+03  8.99049E+02  8.05221E+02  3.08185E+03 -1.45755E+03  2.88921E+03 -3.74713E+03  1.99508E+03
 -4.58475E+03 -7.01991E+02 -1.42381E+03 -2.98583E+03  6.85265E+02 -3.76248E+03  2.92511E+03 -5.08943E+03
  4.40377E+03 -3.09599E+03  6.31777E+03 -4.79476E+02  4.20222E+03  3.68478E+03  1.12720E+03  5.46509E+03
 -1.32583E+03  5.59222E+03 -2.81978E+03  1.90450E+03 -1.11347E+03 -4.01594E+02 -3.43497E+02 -4.05901E+02
 -1.03202E+03  6.67483E+02 -3.47591E+02  2.08556E+03 -2.46236E+03  1.00585E+03 -3.62220E+03 -4.79625E+02
 -9.99727E+02 -3.31186E+03  4.47739E+02 -3.92724E+03  2.57985E+03 -3.36168E+03  2.70183E+03 -1.11993E+03
  3.40284E+03  1.83466E+03  1.70012E+03  2.48773E+03 -5.46005E+02  3.57574E+03 -2.00470E+03  1.96262E+03
 -3.03181E+03 -5.56222E+01 -2.18209E+03 -1.43180E+03  1.69922E+02 -2.96277E+03  1.27132E+03 -2.40227E+03
  2.49429E+03 -1.56429E+03  1.19930E+03  4.92656E+01  2.95156E+01  1.12235E+03  1.23610E+03  6.37606E+02
  1.59183E+03  3.70465E+02  7.81636E+02  1.24502E+03  9.95233E+02  2.08160E+03  1.26293E+03  1.20345E+03
 -1.46312E+03  1.73128E+03 -1.96009E+03  3.50181E+03 -1.81562E+03  1.25198E+03 -3.35813E+03 -5.11695E+01
 -1.24345E+03 -2.61810E+03  2.86674E+02 -4.38789E+03  1.47761E+03 -1.68257E+03  2.09526E+03 -1.34459E+03
  1.86808E+03  1.16098E+03  2.82705E+02  1.92863E+03 -8.21359E+02  1.28066E+03 -7.65576E+02 -3.55501E+02
  7.01307E+01 -9.97905E+02  9.46109E+02 -1.38108E+03  1.10510E+03 -8.62583E+02  1.37330E+03  2.38546E+02
  4.67620E+02  1.04725E+03  9.91640E+02 -1.92023E+02 -4.68325E+02  4.26462E+02  1.64946E+03 -1.60925E+02
  1.69019E+02  7.40408E+02  1.18785E+03  3.27737E+01 -2.19814E+02  2.28444E+03 -3.68402E+02  2.87838E+03
 -1.43092E+03  5.55615E+02 -1.77349E+03 -1.71234E+02 -2.03684E+03 -7.11149E+02  4.09491E+02 -5.49771E+02
  3.97360E+02 -5.23909E+02  8.65937E+02 -1.05464E+03  7.18660E+02  1.87751E+03 -3.60474E+02  9.16266E+02
 -1.32707E+03  6.76981E+02 -1.33621E+03 -1.48445E+03 -8.39906E+02 -1.80240E+03 -3.28690E+02 -9.38112E+02
  4.03169E+02 -6.02408E+02  3.65065E+02  2.96113E+02  9.28980E+02 -2.99024E+02 -7.25514E+01  9.76046E+02
  2.81331E+02 -1.95503E+02 -6.79329E+02 -3.29465E+01  6.38625E+02 -6.14700E+02  1.39169E+03 -5.61846E+02
  6.00178E+02  2.02647E+00  2.10333E+03  2.84745E+02  5.21847E+02  5.95548E+02  1.79870E+02  1.22985E+03
 -1.28830E+03 -3.61174E+01 -1.29910E+03  7.17857E+02 -1.09607E+03 -1.36699E+03  4.41058E+02 -6.57167E+02
  9.48534E+02  1.93385E+01  7.31494E+02  1.51784E+01 -2.47019E+01  9.46564E+02  7.71107E+02  7.51501E+02
  1.19866E+02  4.87221E+02 -7.73696E+02  8.27249E+02 -1.38282E+00  7.80302E+02 -2.61918E+02  9.81353E+02
 -1.32213E+03  1.39203E+03 -1.80563E+03  5.18261E+02 -6.18133E+02  1.26093E+02 -1.72775E+03  2.03312E+02
 -3.77286E+02 -1.52466E+03  6.11613E+02 -1.89693E+03  5.68626E+02 -1.92928E+03  2.26060E+03 -8.30076E+02
  1.73607E+03  4.34951E+02  6.26224E+02  1.21954E+03 -5.62184E+02  6.45285E+02 -7.97491E+02  6.22975E+02
 -4.02965E+02  9.31012E+02 -5.75487E+02 -5.61250E+02 -5.52799E+02  5.07999E+02 -5.96092E+02  1.19941E+02
 -9.92328E+02 -5.77582E+01 -7.82051E+02  3.38912E+02  8.31247E+01 -1.17947E+02 -1.20893E+02 -3.37702E+02
  5.65512E+02 -3.95039E+02  5.15651E+01  2.51850E+02  8.30620E+02  7.22271E+02 -5.06875E+02  9.33673E+02
  1.31759E+02  1.54071E+03 -9.17184E+02  7.21439E+02 -1.03814E+03 -6.05964E+02 -9.55209E+02 -8.42143E+02
 -7.64380E+02 -4.29088E+02 -3.71456E+02 -8.02164E+02  2.59310E+02 -1.19417E+02  2.34324E+02  5.50808E+02
  6.01652E+02  9.18182E+00  2.26554E+02  2.23655E+01 -6.33253E+02  2.36617E+02 -3.09749E+02 -1.24307E+02
  5.76109E+02  2.81007E+02  8.49124E+01  3.97360E+02 -4.46040E+01  2.96568E+02  7.37833E+02 -2.12414E+02
 -7.76782E+02  2.83097E+02 -6.05316E+02  8.63050E+01 -3.53556E+02 -2.46929E+02  8.75583E+01 -7.20082E+02
  1.60859E+02 -2.66188E+02 -3.79738E+02  6.41623E+02 -1.78942E+02 -1.02385E+03  5.96867E+01  5.84149E+02
 -6.59925E+01 -2.41440E+02 -1.55430E+02  4.51699E+02 -1.26044E+02 -5.28689E+02 -6.11345E+02 -3.56235E+02
  8.01746E+00 -6.21768E+02 -5.01823E+02 -1.26131E+02  1.71125E+02  3.85268E+02 -6.71910E+02  1.69263E+02
 -8.09844E+02  5.24870E+02 -2.06485E+02 -6.03109E+02  7.83304E+01 -1.24181E+03  3.55600E+02  7.03990E-01
  7.68026E+02  9.39506E+01 -3.58693E+02  5.31887E+01 -5.65886E+02  2.24211E+02 -6.60383E+02  5.07172E+02
