 $NMID ID='MM_0lb_SNR400_19hz_g60_34.RAW', FMTDAT='(8E13.5)'
 TRAMP=1., VOLUME=1. $END
  3.10039E+05  3.89869E+02  3.37337E+05  2.50773E+05  8.45188E+04  3.37413E+05 -1.32516E+05  2.50876E+05
 -1.90024E+05  8.33675E+04 -1.11400E+05 -3.24235E+04  5.51419E+02 -5.06321E+04  5.35393E+04  3.76689E+02
  3.50923E+04  5.31221E+04 -1.66520E+04  7.52858E+04 -6.04929E+04  6.28506E+04 -8.32093E+04  3.23409E+04
 -8.10027E+04 -1.13416E+04 -5.68055E+04 -5.02163E+04 -1.47716E+04 -6.93552E+04  2.75256E+04 -4.51333E+04
  3.95318E+04  4.05268E+03  1.54963E+04  4.76025E+04 -3.41474E+04  4.67272E+04 -6.62497E+04 -5.61368E+02
 -5.24408E+04 -5.61691E+04 -6.51369E+03 -7.59360E+04  3.40709E+04 -5.46286E+04  4.72484E+04 -1.68788E+04
  4.25364E+04  1.13496E+04  3.11494E+04  2.54904E+04  1.58410E+04  2.89355E+04 -5.24208E+03  2.72903E+04
 -2.14953E+04  1.20911E+04 -1.84236E+04 -4.41908E+03  4.79364E+03 -7.40235E+03  2.22354E+04  1.16516E+04
  7.15065E+03  3.42018E+04 -3.19948E+04  3.47313E+04 -6.19123E+04  2.18484E+03 -5.58371E+04 -4.14987E+04
 -1.22554E+04 -6.18856E+04  3.85728E+04 -4.39792E+04  5.69052E+04 -1.56312E+03  3.38198E+04  3.15563E+04
 -6.49307E+03  3.43905E+04 -2.90470E+04  1.43406E+04 -2.88770E+04 -5.15209E+03 -1.56195E+04 -1.04369E+04
 -7.56943E+03 -1.23318E+04 -1.37096E+03 -1.73689E+04  7.21403E+03 -2.26840E+04  1.46000E+04 -1.38950E+04
  1.19896E+04  4.68175E+03 -7.22146E+03  1.32280E+04 -1.99152E+04 -2.75628E+03 -8.21482E+03 -3.17810E+04
  2.19764E+04 -4.22389E+04  4.63265E+04 -1.92053E+04  4.31418E+04  1.89340E+04  1.48003E+04  4.33135E+04
 -1.55464E+04  3.19196E+04 -2.48730E+04  1.64459E+03 -9.46619E+03 -2.70675E+04  2.05166E+04 -3.22260E+04
  3.95995E+04 -7.78733E+03  3.32579E+04  2.34606E+04  1.62220E+04  4.41746E+04 -8.08410E+03  4.78642E+04
 -2.95314E+04  3.10881E+04 -3.97988E+04  8.77163E+03 -4.04589E+04 -1.55652E+04 -2.17350E+04 -3.58477E+04
  7.32047E+03 -3.56796E+04  2.99813E+04 -1.34289E+04  2.75654E+04  1.08555E+04  3.54548E+03  1.82904E+04
 -1.30476E+04  7.88650E+03 -1.05687E+04 -7.49467E+03  5.72327E+03 -1.04573E+04  1.75606E+04  6.13996E+03
  1.26635E+04  2.17471E+04 -6.57166E+03  2.42810E+04 -2.20001E+04  1.04731E+04 -2.61523E+04 -5.50044E+03
 -1.74612E+04 -1.64177E+04 -6.74387E+03 -1.79647E+04  4.19079E+03 -1.62287E+04  1.41913E+04 -1.57945E+04
  2.32798E+04 -1.19647E+04  2.99790E+04  1.32974E+03  2.21077E+04  1.74915E+04  3.59754E+03  3.36636E+04
 -1.66146E+04  2.85812E+04 -2.66179E+04  1.01583E+04 -2.01489E+04 -1.00326E+04 -4.65490E+03 -1.43058E+04
  1.83048E+03 -4.09517E+03 -3.29920E+03  6.06349E+03 -1.41844E+04  4.70017E+03 -1.43474E+04 -5.22969E+03
 -9.42605E+03 -1.62548E+04  4.28514E+03 -1.99135E+04  1.37136E+04 -1.49717E+04  1.59349E+04 -2.18989E+03
  9.68362E+03  1.16177E+04 -7.20333E+02  1.68994E+04 -1.19440E+04  9.09895E+03 -1.63525E+04 -3.67211E+03
 -1.23182E+04 -1.57530E+04 -1.33306E+03 -2.04325E+04  9.18108E+03 -1.57520E+04  1.71807E+04 -7.83644E+03
  1.53775E+04  5.40586E+02  1.08730E+04  4.05630E+03  5.44145E+03  7.12571E+02  7.91011E+03 -1.60747E+03
  1.52318E+04  2.98230E+03  1.56120E+04  1.30168E+04  9.91503E+03  2.60300E+04 -2.96314E+03  2.83156E+04
 -1.65682E+04  2.23370E+04 -2.57502E+04  1.06375E+04 -2.69398E+04 -1.82887E+03 -2.19461E+04 -1.49365E+04
 -9.91812E+03 -2.23824E+04  7.18820E+03 -2.00769E+04  1.73410E+04 -1.18474E+04  1.65975E+04  4.08634E+03
  6.19048E+03  1.17768E+04 -7.57372E+03  1.06561E+04 -1.43507E+04  2.73243E+03 -1.06701E+04 -8.90788E+03
 -3.61939E+02 -1.27957E+04  6.45337E+03 -9.63889E+03  8.04619E+03 -1.26302E+03  1.38738E+03  5.72790E+03
 -6.56950E+03  1.52073E+03 -4.02512E+03 -5.00311E+03  5.93708E+02 -1.09103E+04  7.70867E+03 -1.11774E+04
  1.31259E+04 -5.13763E+03  1.33729E+04  3.17559E+03  1.17400E+04  1.00942E+04  5.12125E+03  1.50959E+04
 -1.85480E+03  1.69342E+04 -1.06534E+04  1.00005E+04 -1.23733E+04  3.82061E+03 -8.86509E+03 -2.34010E+03
 -4.58351E+03 -3.31596E+03 -7.64272E+02  1.11982E+03 -2.02883E+03  2.15643E+03 -3.90990E+03  3.71736E+03
 -8.30200E+03 -4.36673E+02 -8.93480E+03 -7.52160E+03 -3.55912E+03 -1.18835E+04  3.31513E+03 -8.40902E+03
  7.62676E+03 -4.13053E+03  5.17704E+03  2.23327E+03  3.85453E+02  3.35727E+03 -3.38680E+03  3.82584E+01
 -3.46941E+03 -5.15524E+03 -8.78158E+02 -7.71847E+03  4.59340E+03 -7.72322E+03  1.09340E+04 -4.42087E+03
  1.24611E+04  8.12767E+02  9.01724E+03  5.96360E+03  1.04536E+03  9.50095E+03 -5.37353E+03  8.05967E+03
 -7.40748E+03  2.63237E+03 -3.65970E+03 -1.10845E+03  1.49145E+03 -2.05284E+03  5.34674E+03 -1.27608E+03
  4.23211E+03  3.58545E+03  9.24468E+02  6.71189E+03 -4.90297E+03  6.90857E+03 -8.54791E+03  2.06785E+03
 -5.21574E+03 -3.92709E+03  3.48856E+02 -6.61785E+03  3.97339E+03 -3.85602E+03  3.89334E+03  3.31627E+02
  6.90504E+02  3.25468E+03 -4.28486E+03  5.40203E+03 -4.99348E+03  2.78026E+03 -4.91570E+03 -1.06343E+03
 -2.78324E+03 -6.40220E+03  1.42201E+03 -7.27458E+03  6.15315E+03 -4.61524E+03  6.56525E+03  7.83400E+02
  4.59182E+03  5.39447E+03 -1.76137E+01  7.94314E+03 -5.37395E+03  4.17438E+03 -5.48351E+03 -2.14474E+02
 -6.11349E+03 -5.13367E+03 -7.43891E+02 -5.30340E+03  2.98601E+03 -4.40881E+03  3.04124E+03 -2.63435E+03
  2.67623E+03  5.36196E+02 -5.76120E+02  1.27320E+03  1.21916E+03 -4.55152E-01  1.12399E+02 -1.98444E+03
  4.17554E+03 -8.00955E+02  5.51387E+03  3.89401E+02  5.51980E+03  3.64867E+03  5.52464E+03  7.51590E+03
 -1.20612E+03  8.91071E+03 -7.65791E+03  7.31766E+03 -9.92703E+03  1.49130E+03 -8.23362E+03 -2.16540E+03
 -4.05333E+03 -6.96500E+03 -5.92654E+02 -5.26851E+03  2.75807E+03 -2.23534E+03  1.65940E+03 -2.00581E+03
  1.31400E+03 -1.99689E+03  1.99658E+03 -2.33346E+03  3.68727E+03 -1.02825E+03  3.58300E+03  1.27577E+02
  3.84538E+03  1.07444E+03  8.01149E+02  3.64656E+03 -1.80361E+03  2.56362E+03 -4.68307E+03  2.97203E+03
 -5.28037E+03 -7.75917E+02 -1.95691E+03 -3.64923E+03  6.38748E+02 -4.88211E+03  3.26401E+03 -5.62341E+03
  5.40177E+03 -3.09014E+03  6.66418E+03  2.86747E+02  5.18606E+03  4.03346E+03  1.61180E+03  6.10828E+03
 -2.95478E+03  4.98339E+03 -2.96576E+03  2.03578E+03 -1.74667E+03 -1.21928E+03 -4.29692E+01 -5.36963E+02
 -3.96153E+02  1.22042E+02 -9.01258E+02  2.21067E+03 -2.80632E+03  1.44153E+03 -4.13034E+03 -5.81451E+02
 -1.54675E+03 -4.29799E+03  1.05901E+03 -4.75312E+03  2.51915E+03 -4.44868E+03  3.89083E+03 -9.60016E+02
  3.64555E+03  2.07896E+03  2.09154E+03  3.18571E+03 -1.11048E+03  4.50206E+03 -2.64520E+03  2.13185E+03
 -4.00190E+03 -2.69670E+02 -3.73346E+03 -2.59183E+03 -2.84308E+02 -3.29214E+03  1.53323E+03 -2.37699E+03
  2.56307E+03 -1.81777E+03  1.31151E+03  3.20661E+02 -3.00174E+01  1.54380E+03  7.52473E+02 -6.34768E+01
  2.06093E+03  7.31358E+02  1.52860E+03  1.29025E+03  1.12890E+03  2.09302E+03  1.55396E+03  1.63879E+03
 -1.07358E+03  2.51567E+03 -2.54159E+03  3.63962E+03 -3.16656E+03  6.76947E+02 -3.83243E+03 -1.39940E+02
 -1.76947E+03 -3.59932E+03  3.29044E+02 -4.51044E+03  1.83227E+03 -2.08102E+03  2.53094E+03 -8.16773E+02
  2.49624E+03  1.97279E+03  5.52380E+02  2.22773E+03 -1.23667E+03  1.06350E+03 -3.64939E+02  4.96696E+02
 -9.11674E+02 -1.34908E+03  1.13393E+03 -2.03887E+03  1.19249E+03 -7.41205E+02  1.70877E+03  5.81226E+02
  7.04585E+02  1.87337E+02  5.66207E+02 -2.54367E+02 -9.33657E+01  9.13796E+02  1.74361E+03 -6.85874E+02
 -3.76695E+02 -4.42417E+02  1.51379E+03  1.00308E+03  2.42733E+02  2.54505E+03 -9.43236E+02  3.32543E+03
 -1.64440E+03  6.49480E+02 -1.88960E+03  1.91236E+02 -2.15004E+03 -2.24879E+02  5.28364E+02 -7.26258E+02
  3.93497E+02 -1.01936E+03  5.28879E+02 -1.18068E+03  1.83914E+02  7.71481E+02 -2.46138E+02  1.64275E+03
 -1.12887E+03  5.77212E+02 -1.07243E+03 -7.12722E+02 -6.64486E+02 -2.15168E+03  1.12783E+01 -9.83541E+02
  2.81396E+02 -1.02010E+03  5.03812E+02  7.85010E+02  1.09994E+03 -5.07314E+02  1.79400E+00  8.02388E+02
 -7.09062E+02 -1.88078E+01 -3.42432E+02  1.04166E+02 -1.12350E+02 -4.15155E+02  1.82028E+03 -9.98353E+02
  1.11486E+03  3.43508E+02  2.26253E+03  6.91284E+02  7.23200E+02  1.13330E+03 -3.73237E+02  2.00354E+03
 -1.87136E+03  2.61822E+02 -1.11780E+03  5.84868E+01 -1.17907E+03 -1.73201E+03  4.61451E+01 -3.59899E+02
  1.68425E+03 -1.37937E+02  1.05439E+03  6.60288E+02  2.69453E+01  7.32255E+02  8.12611E+01  1.13040E+03
 -2.38125E+02  1.32610E+03 -4.55451E+02 -1.13458E+02 -6.95473E+01  9.08984E+02 -9.25328E+02  4.47843E+02
 -8.71465E+02  1.14864E+03 -1.62437E+03  2.92067E+02 -1.88441E+03 -2.96560E+02 -1.94415E+03 -4.59136E+02
 -6.80261E+02 -1.87775E+03  3.68136E+02 -2.29677E+03  1.36776E+02 -2.06907E+03  2.40194E+03 -1.08162E+03
  2.24845E+03 -6.61818E+02  6.44245E+02  1.30611E+03 -8.90520E+02  1.00680E+03 -3.53745E+02  1.19184E+03
 -6.91282E+02  2.62617E+02 -2.78383E+02 -1.15080E+02 -3.29846E+02  1.60676E+02 -3.97490E+02 -2.64161E+02
 -1.25911E+03 -5.01587E+02 -8.86440E+02  2.83070E+02  3.73217E+02 -3.22191E+01 -2.73104E+02 -3.16841E+02
  1.01999E+03 -2.73094E+02  5.59044E+02  9.43295E+01  1.35435E+03  1.20242E+03 -1.00955E+02  1.36915E+03
 -6.92351E+02  2.11766E+03 -1.18475E+03  1.11725E+03 -1.32177E+03 -2.16007E+02 -7.58223E+02 -1.02999E+03
 -9.19680E+02 -9.65730E+02  2.10283E+02 -8.28688E+02  7.69788E+02 -4.38034E+02  3.15391E+02 -1.64979E+02
  4.63957E+01  3.61150E+02  2.73137E+02  6.45973E+02  4.77824E+00  1.42726E+01  4.32610E+02 -4.45524E+02
  4.58414E+01  2.75226E+02 -1.63905E+01  3.05945E+01 -5.11657E+02  6.19289E+02  5.82668E+02  4.46101E+01
 -4.83040E+02  3.31577E+02 -3.19631E+02 -1.92611E+02 -6.98509E+02 -3.05442E+02  5.39424E+02 -9.16567E+02
  2.07830E+02 -2.18743E+02  4.35547E+02  3.35285E+02  6.43345E+02 -4.61903E+02  5.62331E+02  8.73813E+02
  6.75239E+02  9.85909E+01 -1.19952E+02  4.41584E+02 -1.93767E+02  1.14273E+02 -1.95601E+02 -6.13480E+01
 -1.44121E+01 -1.84836E+02 -5.97767E+01  2.03148E+02 -4.03391E+02  2.66344E+02  2.09428E+01  3.48502E+01
 -1.32634E+03 -1.76584E+02 -4.70612E+02 -1.12210E+03  9.00164E+02 -9.11200E+02  7.70330E+02 -1.20949E+02
  7.30517E+02  6.16600E+01 -4.54374E+02  2.38094E+02 -1.12161E+01  1.96121E+02  6.25796E+01  4.25673E+02
