 $NMID ID='MM_0lb_SNR400_20hz_g45_11.RAW', FMTDAT='(8E13.5)'
 TRAMP=1., VOLUME=1. $END
  3.09766E+05  2.27266E+02  3.37460E+05  2.49572E+05  8.37951E+04  3.36883E+05 -1.32932E+05  2.49780E+05
 -1.89357E+05  8.24600E+04 -1.10523E+05 -3.32139E+04  1.59918E+03 -5.00179E+04  5.44086E+04  4.59602E+02
  3.50183E+04  5.26526E+04 -1.65338E+04  7.43815E+04 -6.01325E+04  6.24104E+04 -8.24984E+04  3.16871E+04
 -7.92214E+04 -1.04672E+04 -5.55898E+04 -4.99471E+04 -1.48680E+04 -6.81538E+04  2.62102E+04 -4.42386E+04
  3.84841E+04  4.38194E+03  1.53750E+04  4.66704E+04 -3.37783E+04  4.60208E+04 -6.51965E+04 -5.76809E+02
 -5.13055E+04 -5.56279E+04 -6.26158E+03 -7.47540E+04  3.29751E+04 -5.25023E+04  4.58550E+04 -1.62778E+04
  4.14687E+04  1.08040E+04  3.06356E+04  2.43365E+04  1.58279E+04  2.80662E+04 -4.53079E+03  2.69381E+04
 -2.15626E+04  1.30591E+04 -1.95138E+04 -4.13354E+03  3.59158E+03 -7.82462E+03  2.03036E+04  1.01680E+04
  7.65779E+03  3.21696E+04 -2.99659E+04  3.39249E+04 -6.02521E+04  2.31699E+03 -5.45680E+04 -4.10090E+04
 -1.21662E+04 -5.97867E+04  3.78767E+04 -4.28899E+04  5.42405E+04 -1.95075E+03  3.13354E+04  2.99713E+04
 -6.23280E+03  3.18929E+04 -2.75724E+04  1.27442E+04 -2.65526E+04 -5.80061E+03 -1.35737E+04 -9.58189E+03
 -6.95435E+03 -1.06125E+04 -9.01012E+02 -1.58873E+04  6.76856E+03 -2.24376E+04  1.48315E+04 -1.42771E+04
  1.25978E+04  4.04257E+03 -5.59726E+03  1.34678E+04 -1.88491E+04 -1.94590E+03 -8.23617E+03 -2.93233E+04
  2.01183E+04 -3.95463E+04  4.40297E+04 -1.84863E+04  4.04448E+04  1.76649E+04  1.41976E+04  4.07317E+04
 -1.48345E+04  3.06454E+04 -2.31390E+04  8.68686E+02 -7.80225E+03 -2.60998E+04  2.03790E+04 -3.04527E+04
  3.73518E+04 -6.48336E+03  3.01704E+04  2.25518E+04  1.43310E+04  4.13808E+04 -7.43818E+03  4.38400E+04
 -2.71386E+04  2.85179E+04 -3.54345E+04  7.84112E+03 -3.72519E+04 -1.42636E+04 -2.01474E+04 -3.30405E+04
  6.65733E+03 -3.31796E+04  2.79441E+04 -1.16808E+04  2.62140E+04  1.08662E+04  2.91097E+03  1.68072E+04
 -1.28766E+04  6.56942E+03 -8.94836E+03 -7.23490E+03  6.03364E+03 -9.70318E+03  1.72362E+04  6.82884E+03
  1.22740E+04  2.15692E+04 -6.58410E+03  2.29791E+04 -2.11251E+04  8.80674E+03 -2.41719E+04 -6.67283E+03
 -1.58885E+04 -1.57516E+04 -5.10772E+03 -1.57867E+04  3.50031E+03 -1.34961E+04  1.14702E+04 -1.30883E+04
  1.96197E+04 -1.09584E+04  2.62343E+04  5.30180E+02  2.08835E+04  1.50528E+04  4.34124E+03  3.17125E+04
 -1.55174E+04  2.67554E+04 -2.54405E+04  9.72077E+03 -1.93857E+04 -1.07022E+04 -3.96104E+03 -1.40496E+04
  2.56268E+03 -4.92463E+03 -1.91566E+03  4.50979E+03 -1.16974E+04  5.68206E+03 -1.25784E+04 -4.17258E+03
 -7.96094E+03 -1.44805E+04  4.29227E+03 -1.81336E+04  1.16009E+04 -1.36559E+04  1.34268E+04 -8.09254E+02
  8.07501E+03  1.01291E+04 -6.54097E+02  1.51307E+04 -9.67241E+03  8.10308E+03 -1.41699E+04 -3.30557E+03
 -1.07786E+04 -1.31110E+04 -1.14640E+03 -1.75219E+04  8.25954E+03 -1.39098E+04  1.52722E+04 -6.76338E+03
  1.35054E+04  4.64730E+02  9.79087E+03  4.06543E+03  4.20258E+03  4.36408E+02  7.13758E+03 -1.06320E+03
  1.26950E+04  2.50586E+03  1.32935E+04  1.17483E+04  8.33817E+03  2.28466E+04 -2.75443E+03  2.40887E+04
 -1.41665E+04  1.83914E+04 -2.18537E+04  8.18326E+03 -2.24898E+04 -1.71398E+03 -1.92369E+04 -1.22654E+04
 -1.01098E+04 -1.77154E+04  6.33534E+03 -1.75254E+04  1.51478E+04 -9.51969E+03  1.42389E+04  3.39820E+03
  6.59204E+03  1.01683E+04 -6.30468E+03  1.00746E+04 -1.24351E+04  3.03574E+03 -9.78331E+03 -7.22937E+03
 -1.35064E+02 -1.17736E+04  5.51333E+03 -8.77434E+03  6.70527E+03 -1.30256E+03  8.62448E+02  4.29627E+03
 -5.12225E+03  9.66582E+02 -3.32548E+03 -4.08881E+03  7.75020E+02 -9.18993E+03  7.81220E+03 -8.09989E+03
  1.06122E+04 -3.55644E+03  9.73309E+03  2.61732E+03  8.80387E+03  8.74098E+03  4.16856E+03  1.26655E+04
 -1.45035E+03  1.42282E+04 -8.37626E+03  8.56789E+03 -1.01196E+04  2.31498E+03 -7.61619E+03 -1.30025E+03
 -4.48607E+03 -2.54276E+03 -1.10255E+03  1.82322E+03 -2.06937E+03  2.10828E+03 -2.89909E+03  3.05569E+03
 -7.50132E+03 -3.40961E+01 -8.07319E+03 -6.54380E+03 -3.51872E+03 -1.06620E+04  2.90154E+03 -7.44820E+03
  6.52787E+03 -3.44834E+03  4.79783E+03  1.92173E+03  6.34308E+02  2.44568E+03 -3.54015E+03  1.26375E+02
 -3.37909E+03 -4.53697E+03 -8.49015E+02 -5.95840E+03  3.64621E+03 -6.38784E+03  8.46392E+03 -3.35695E+03
  1.04543E+04  3.67415E+02  7.85988E+03  4.97925E+03  1.66997E+03  7.45628E+03 -4.87751E+03  7.93166E+03
 -6.31174E+03  2.40297E+03 -2.85049E+03 -9.90186E+02  9.35658E+02 -1.72642E+03  4.50217E+03 -4.45306E+02
  3.47808E+03  2.56719E+03  9.57854E+02  5.73511E+03 -3.83700E+03  6.14268E+03 -7.43503E+03  1.57694E+03
 -4.16051E+03 -3.30096E+03  2.67805E+02 -6.54212E+03  3.49366E+03 -2.99499E+03  2.76734E+03  8.44284E+02
  5.54473E+02  3.00755E+03 -3.24868E+03  4.13177E+03 -3.73220E+03  2.29261E+03 -3.26313E+03 -4.02807E+02
 -1.94644E+03 -5.17525E+03  3.32755E+02 -5.86933E+03  4.89386E+03 -4.03025E+03  6.13449E+03  8.71582E+02
  4.47752E+03  4.68254E+03  8.02248E+02  6.24931E+03 -4.20791E+03  3.78907E+03 -4.88333E+03 -2.83892E+02
 -5.39749E+03 -4.83406E+03 -1.23031E+03 -4.06519E+03  2.13743E+03 -4.21863E+03  2.27609E+03 -2.71952E+03
  3.13809E+03 -7.20320E+01  7.10029E+02  1.69458E+03  5.72213E+02  1.67393E+02 -4.34746E+02 -1.44381E+03
  2.98261E+03 -6.02263E+02  4.15999E+03  3.64092E+02  4.52329E+03  2.39432E+03  4.71323E+03  5.83507E+03
 -7.28164E+02  6.84312E+03 -6.16028E+03  5.48586E+03 -8.49372E+03  5.91346E+02 -6.57463E+03 -2.00335E+03
 -3.50796E+03 -5.24532E+03 -3.52031E+02 -4.19125E+03  1.83005E+03 -1.66426E+03  9.03444E+02 -2.02999E+03
  1.06926E+03 -1.44327E+03  2.07550E+03 -2.17618E+03  3.34111E+03 -1.20757E+03  3.47238E+03  8.94043E+02
  4.06642E+03  1.02603E+03  5.26695E+02  3.05897E+03 -2.01406E+03  2.16537E+03 -3.71436E+03  2.29118E+03
 -4.30784E+03 -1.19134E+03 -1.06784E+03 -2.25863E+03  9.18594E+02 -3.68815E+03  2.56592E+03 -4.29892E+03
  4.16157E+03 -2.46345E+03  5.09474E+03  5.89666E+01  4.41202E+03  3.62279E+03  1.29352E+03  5.02691E+03
 -1.97216E+03  4.91667E+03 -2.58713E+03  1.90557E+03 -1.46125E+03 -6.09839E+02 -2.95570E+02 -3.72732E+02
 -4.35239E+02  3.24619E+02 -7.33237E+02  1.77096E+03 -2.05272E+03  9.56436E+02 -3.49981E+03 -5.71631E+02
 -1.06009E+03 -3.58542E+03  1.18212E+03 -3.49950E+03  2.06514E+03 -3.25915E+03  2.52858E+03 -1.18833E+03
  3.39987E+03  1.81625E+03  1.72104E+03  2.73075E+03 -5.19818E+02  3.55485E+03 -1.74827E+03  2.28532E+03
 -2.78147E+03  6.95297E+02 -2.78345E+03 -2.04637E+03  1.73349E+02 -2.28676E+03  9.70547E+02 -1.60512E+03
  2.73008E+03 -1.33002E+03  1.43318E+03  2.98058E+02  5.26831E+02  1.44973E+03  7.61140E+02  6.27021E+01
  1.57828E+03  4.29048E+02  1.58321E+03  7.16741E+02  8.62203E+02  2.07450E+03  5.90337E+02  1.31415E+03
 -9.61842E+02  1.93408E+03 -1.75157E+03  3.02635E+03 -1.79211E+03  9.32524E+02 -2.85647E+03 -1.75065E+02
 -1.04916E+03 -2.92888E+03  2.60546E+02 -4.10548E+03  1.34214E+03 -2.12200E+03  1.99081E+03 -6.73800E+02
  2.01642E+03  1.95930E+03  3.66184E+02  1.80079E+03 -6.47474E+02  8.53429E+02 -9.07771E+02  3.61158E+02
 -3.77413E+01 -9.52448E+02  1.58275E+03 -1.41437E+03  6.37049E+02 -5.58287E+02  8.06820E+02  3.38121E+02
  8.64485E+02 -7.70623E+01  8.89686E+02 -1.11740E+02 -4.20455E+02  7.68931E+02  1.68211E+03 -8.93442E+01
 -4.07409E+02  5.43421E+02  1.08912E+03  4.49677E+02 -8.00993E+01  1.98862E+03  2.24327E+02  2.72857E+03
 -1.36553E+03  7.00961E+02 -1.17982E+03 -1.36079E+02 -1.61991E+03 -3.79839E+02 -6.06588E+02 -4.49941E+02
 -7.32533E+01 -1.03716E+03  1.04571E+03 -4.28300E+02  7.04613E+02  9.41230E+02 -6.46660E+02  8.29569E+02
 -1.04978E+03  6.03638E+02 -7.47876E+02 -8.48598E+02 -2.62258E+02 -1.74564E+03 -5.39870E+02 -1.10185E+03
  2.47241E+02  1.89001E+02  5.02811E+02 -7.27194E+01  9.42915E+02  2.20543E+02  3.54912E+02  1.17040E+03
  1.44763E+02  3.65634E+02 -1.49200E+03 -1.63784E+02  4.90786E+02 -2.81129E+02  1.16810E+03 -4.85974E+02
  4.41982E+02 -1.43001E+02  2.53612E+03  7.37764E+02  7.87994E+02  1.57654E+03  1.27018E+02  1.86788E+03
 -1.21552E+03  2.20598E+01 -1.17297E+03  3.03056E+01 -1.07637E+03 -1.21559E+03 -1.71105E+02  8.27954E-01
  1.41221E+03 -6.16846E+01  3.58642E+02  1.94744E+02  5.02086E+02  1.12254E+03  4.71694E+02  1.01535E+03
 -7.46604E+02  6.16784E+02 -3.88567E+02  3.04923E+02 -3.58430E+02  3.83969E+02 -6.99737E+02  7.70040E+02
 -1.72651E+02  5.81598E+02 -1.29330E+03  3.30955E+02 -1.41982E+03 -1.77409E+02 -1.86426E+03 -8.53161E+02
 -6.33403E+02 -1.57028E+03  4.06066E+02 -2.72097E+03  7.28933E+02 -1.94693E+03  2.20995E+03 -9.37923E+02
  1.21992E+03  3.50859E+02  6.77419E+02  9.88980E+02 -9.50343E+02  9.68054E+02 -4.54142E+02  1.01406E+03
 -6.48896E+02  9.07797E+02 -3.28158E+02 -2.06315E+01 -7.90534E+02 -1.04820E+02 -6.58261E+02 -9.58367E+01
 -8.99206E+02  8.69401E+01 -7.91264E+02 -1.78839E+02  5.04120E+02 -4.66235E+02 -4.68987E+02 -8.56576E+02
  1.21880E+03 -5.52659E+02  6.93555E+01  5.91572E+02  8.89505E+02  9.34613E+02 -7.44740E+02  1.12035E+03
 -1.12276E+03  2.18066E+03 -1.62192E+03  4.10348E+02 -1.06623E+03 -2.79009E+02 -1.00663E+03 -9.31409E+02
 -6.95218E+02 -6.76671E+02 -4.15349E+02 -1.38969E+03  9.52568E+02 -1.10798E+03  1.75234E+02  2.23920E+02
  6.73353E+02  6.94468E+01  6.15631E+02  9.98641E+01 -4.34068E+02  2.77393E+02 -6.27045E+02 -8.82834E+01
 -1.90725E+02 -2.99442E+02  6.46661E+02  4.90034E+02  1.09149E+02 -3.49747E+01  3.79786E+02  8.83577E-01
 -5.38569E+02  3.68220E+02 -6.97920E+02 -5.10614E+02 -4.89176E+02 -3.85109E+02 -2.03430E+02 -6.22497E+02
  5.17411E+02 -1.62989E+02  3.62361E+01  3.81750E+02  2.62270E+02 -7.03390E+02  8.54263E+02  1.00566E+03
  1.23184E+02  4.31497E+02 -7.77406E+01 -5.32973E+00 -4.59177E+02 -2.60249E+02  9.74730E+01  5.55591E+02
 -5.38771E+02  3.09244E+01  4.53244E+01 -6.02925E+01 -4.47272E+02  1.30770E+02 -1.02778E+03 -4.96122E+02
 -5.54608E+02  2.34638E+02 -2.90613E+02 -4.68829E+02  7.03523E+01 -1.26639E+03  7.81038E+02 -1.65268E+02
  5.67815E+02  6.56870E+01 -3.45910E+02  9.89882E+01 -5.72402E+02  4.89612E+02 -4.83990E+02 -3.19356E+01
