 $NMID ID='MM_0lb_SNR400_13hz_g50_35.RAW', FMTDAT='(8E13.5)'
 TRAMP=1., VOLUME=1. $END
  3.09848E+05  9.11757E+01  3.38075E+05  2.49645E+05  8.44482E+04  3.37921E+05 -1.32713E+05  2.51456E+05
 -1.90173E+05  8.35569E+04 -1.11744E+05 -3.27190E+04  6.86487E+02 -5.04976E+04  5.39530E+04  1.92531E+02
  3.53769E+04  5.27120E+04 -1.65739E+04  7.58703E+04 -6.15283E+04  6.42460E+04 -8.47506E+04  3.21490E+04
 -8.14167E+04 -1.10095E+04 -5.82303E+04 -5.22609E+04 -1.48430E+04 -7.05985E+04  2.70114E+04 -4.60205E+04
  4.02726E+04  3.93428E+03  1.61862E+04  4.80207E+04 -3.52009E+04  4.79030E+04 -6.64636E+04 -7.53249E+02
 -5.36940E+04 -5.72651E+04 -7.17477E+03 -7.71431E+04  3.43718E+04 -5.51675E+04  4.86810E+04 -1.76264E+04
  4.35338E+04  1.13880E+04  3.23647E+04  2.49326E+04  1.50828E+04  2.99911E+04 -4.75565E+03  2.75392E+04
 -2.24028E+04  1.26776E+04 -1.90311E+04 -5.26594E+03  5.59865E+03 -6.63236E+03  2.32107E+04  1.24886E+04
  7.31397E+03  3.57006E+04 -3.26202E+04  3.59988E+04 -6.39252E+04  2.47001E+03 -5.66450E+04 -4.26384E+04
 -1.20511E+04 -6.36805E+04  4.03308E+04 -4.54371E+04  5.82793E+04 -2.06699E+03  3.44357E+04  3.27853E+04
 -6.82473E+03  3.60926E+04 -2.98038E+04  1.71003E+04 -3.14079E+04 -4.41006E+03 -1.75503E+04 -1.13243E+04
 -7.96600E+03 -1.32364E+04 -4.67162E+02 -1.90708E+04  7.76627E+03 -2.30372E+04  1.60117E+04 -1.36716E+04
  1.13223E+04  5.08302E+03 -8.73370E+03  1.28126E+04 -2.19100E+04 -4.35751E+03 -8.17732E+03 -3.45732E+04
  2.31071E+04 -4.45696E+04  4.88950E+04 -1.98885E+04  4.63427E+04  2.01711E+04  1.56879E+04  4.51464E+04
 -1.57218E+04  3.43628E+04 -2.62308E+04  2.05494E+03 -9.98459E+03 -2.84868E+04  2.13580E+04 -3.42660E+04
  4.17537E+04 -9.71201E+03  3.64636E+04  2.39070E+04  1.92270E+04  4.75653E+04 -7.92013E+03  5.15205E+04
 -3.19532E+04  3.50791E+04 -4.35389E+04  9.62739E+03 -4.30522E+04 -1.70407E+04 -2.40682E+04 -3.85443E+04
  7.46578E+03 -3.89322E+04  3.23738E+04 -1.56101E+04  2.95761E+04  1.04111E+04  3.93245E+03  1.94106E+04
 -1.33501E+04  9.03511E+03 -1.10736E+04 -7.35898E+03  5.53617E+03 -1.12799E+04  1.78478E+04  5.54610E+03
  1.36913E+04  2.22177E+04 -5.67903E+03  2.53248E+04 -2.26511E+04  1.16874E+04 -2.94101E+04 -4.48564E+03
 -2.15966E+04 -1.77633E+04 -9.34752E+03 -2.15923E+04  4.19249E+03 -2.09645E+04  1.63925E+04 -1.92732E+04
  2.72340E+04 -1.32763E+04  3.35056E+04  3.11384E+03  2.44801E+04  2.07465E+04  4.04845E+03  3.74638E+04
 -1.81085E+04  3.13161E+04 -2.87319E+04  1.09038E+04 -2.11399E+04 -1.06820E+04 -4.34317E+03 -1.32253E+04
  1.42089E+03 -2.05270E+03 -6.12015E+03  7.09053E+03 -1.74225E+04  5.02416E+03 -1.71864E+04 -8.01005E+03
 -1.06966E+04 -2.01187E+04  5.40650E+03 -2.41563E+04  1.55365E+04 -1.72067E+04  1.95628E+04 -1.89954E+03
  1.19442E+04  1.34659E+04 -1.33171E+03  1.95694E+04 -1.41011E+04  1.16487E+04 -2.02896E+04 -3.76389E+03
 -1.49142E+04 -1.83029E+04 -1.80361E+03 -2.41864E+04  1.03417E+04 -1.98565E+04  1.96852E+04 -9.96829E+03
  1.85932E+04  4.58069E+02  1.28378E+04  4.19304E+03  7.10068E+03  1.11291E+03  1.04581E+04 -1.62002E+03
  1.83683E+04  2.29852E+03  2.02752E+04  1.51287E+04  1.46389E+04  3.14851E+04 -2.56573E+03  3.65529E+04
 -2.13442E+04  2.98476E+04 -3.39772E+04  1.48048E+04 -3.52005E+04 -2.54475E+03 -2.94619E+04 -2.03765E+04
 -1.26207E+04 -2.93072E+04  1.00102E+04 -2.56773E+04  2.30790E+04 -1.30025E+04  2.03071E+04  6.07416E+03
  7.74557E+03  1.51220E+04 -9.79592E+03  1.33536E+04 -1.67231E+04  3.15285E+03 -1.31486E+04 -1.07239E+04
 -9.97214E+02 -1.63330E+04  8.47408E+03 -1.20496E+04  1.08074E+04 -1.60258E+03  2.51826E+03  7.16078E+03
 -7.14714E+03  3.28057E+03 -6.28689E+03 -5.55546E+03 -7.57904E+02 -1.44061E+04  1.00846E+04 -1.49362E+04
  1.81464E+04 -8.33716E+03  1.98635E+04  4.00050E+03  1.77087E+04  1.44851E+04  7.62386E+03  2.16683E+04
 -3.61633E+03  2.35538E+04 -1.55046E+04  1.48088E+04 -1.67712E+04  3.65096E+03 -1.22728E+04 -4.26423E+03
 -5.74450E+03 -5.23998E+03 -1.07592E+03  1.14730E+03 -2.43138E+03  2.45548E+03 -5.85874E+03  4.10295E+03
 -1.13645E+04 -8.28075E+02 -1.24129E+04 -9.65825E+03 -4.64772E+03 -1.58415E+04  4.73377E+03 -1.21124E+04
  1.03281E+04 -4.85309E+03  7.91542E+03  2.75762E+03 -1.50250E+02  5.07847E+03 -6.00609E+03 -8.75286E+01
 -4.99830E+03 -7.83639E+03 -9.14499E+02 -1.09457E+04  6.70016E+03 -1.20722E+04  1.54774E+04 -6.18086E+03
  1.74530E+04  1.45392E+03  1.34963E+04  9.88036E+03  2.28069E+03  1.38694E+04 -7.73121E+03  1.18833E+04
 -1.02823E+04  3.71366E+03 -5.36427E+03 -1.88341E+03  1.62938E+03 -3.15567E+03  5.88934E+03 -1.52064E+03
  5.93274E+03  5.74498E+03  7.14043E+02  9.55993E+03 -6.77032E+03  8.98375E+03 -1.14779E+04  2.35958E+03
 -7.94396E+03 -5.32596E+03 -1.36394E+02 -1.04365E+04  6.41276E+03 -4.74128E+03  6.62578E+03  2.26603E+03
  1.08020E+03  6.30088E+03 -6.01513E+03  8.44218E+03 -8.86242E+03  3.38201E+03 -9.61125E+03 -2.91762E+03
 -5.94669E+03 -1.15081E+04  2.41332E+03 -1.32833E+04  1.03591E+04 -8.21499E+03  1.15928E+04  2.02933E+03
  8.23719E+03  9.49246E+03 -6.12487E+02  1.13032E+04 -8.54539E+03  6.47845E+03 -8.57941E+03 -1.70643E+03
 -8.64893E+03 -7.41314E+03 -1.26786E+03 -8.18333E+03  4.15484E+03 -7.73449E+03  5.39892E+03 -3.10483E+03
  3.91580E+03  8.12333E+02 -7.27434E+02  1.81606E+03 -1.75220E+02 -2.14518E+03  9.27799E+02 -4.62246E+03
  7.51530E+03 -2.57478E+03  1.06274E+04  7.34065E+02  1.05659E+04  7.24025E+03  7.83455E+03  1.38999E+04
 -2.88003E+03  1.58416E+04 -1.36662E+04  1.20717E+04 -1.78885E+04  2.28016E+03 -1.42518E+04 -5.52865E+03
 -7.61575E+03 -1.20231E+04  1.11384E+02 -9.66321E+03  3.97681E+03 -4.54740E+03  3.33897E+03 -3.90020E+03
  2.22646E+03 -2.21317E+03  3.50440E+03 -3.85569E+03  4.59553E+03 -2.82828E+03  5.63721E+03 -1.14036E+03
  7.45796E+03  1.91160E+03  3.77185E+03  6.55043E+03 -2.12489E+03  7.25216E+03 -8.04578E+03  5.52249E+03
 -9.07838E+03 -9.90961E+02 -5.07760E+03 -6.85205E+03 -3.66868E+02 -1.05930E+04  5.80802E+03 -1.03401E+04
  1.01742E+04 -5.36295E+03  1.28751E+04  1.19699E+03  8.42526E+03  9.25296E+03  1.69931E+03  1.13552E+04
 -4.28495E+03  1.03443E+04 -6.10935E+03  3.29853E+03 -5.03623E+03 -1.70328E+03 -1.68302E+03 -1.42315E+03
 -9.10697E+02 -4.21217E+01 -1.65074E+03  2.62424E+03 -4.23220E+03  1.42424E+03 -6.74113E+03 -8.53834E+02
 -3.77362E+03 -6.88246E+03  9.28255E+01 -9.47831E+03  5.78365E+03 -8.77450E+03  8.34257E+03 -2.57514E+03
  8.80193E+03  4.47312E+03  4.11003E+03  7.27141E+03 -2.14945E+03  9.37485E+03 -6.39180E+03  5.36438E+03
 -8.63933E+03  3.25048E+02 -7.70627E+03 -6.18593E+03 -7.90232E+02 -6.57879E+03  3.74984E+03 -5.15242E+03
  6.14268E+03 -1.88587E+03  3.19422E+03  1.37233E+03  8.55405E+02  2.61616E+03  1.17068E+03  1.33077E+03
  2.14811E+03  1.24632E+03  2.45991E+03  1.58497E+03  2.43643E+03  3.83801E+03  2.33103E+03  4.57143E+03
 -2.11835E+03  6.68500E+03 -5.98966E+03  7.06179E+03 -8.44304E+03  2.19563E+03 -8.87678E+03 -2.58171E+03
 -4.76224E+03 -8.67749E+03  1.66957E+03 -1.01307E+04  4.96871E+03 -6.60717E+03  7.97533E+03 -1.74131E+03
  6.13975E+03  3.81636E+03  1.20926E+03  5.40152E+03 -2.39589E+03  2.92882E+03 -3.27921E+03 -3.27356E+02
 -2.31086E+03 -2.84663E+03  2.44941E+03 -2.88823E+03  3.37154E+03 -1.70603E+03  3.80222E+03  8.87402E+02
  2.82415E+03  4.73578E+02  1.47266E+03  1.19574E+03 -3.02674E+02  1.14858E+03  1.11645E+03 -6.74673E+02
  1.49543E+03 -7.50031E+02  3.40202E+03  1.57081E+03  1.72224E+03  4.74060E+03 -8.28440E+02  6.53854E+03
 -3.99793E+03  3.52205E+03 -4.98910E+03  1.67876E+02 -5.02310E+03 -1.60686E+03 -1.46124E+03 -3.00994E+03
  9.78668E+02 -2.86008E+03  2.48902E+03 -1.50593E+03  1.61158E+03  1.65257E+03 -1.27153E+03  2.56565E+03
 -2.96404E+03  2.17580E+03 -3.46453E+03 -2.23062E+03 -2.71782E+03 -4.92690E+03  6.52451E+02 -4.16588E+03
  1.80630E+03 -2.32824E+03  3.52507E+03 -1.18272E+02  3.24348E+03  1.08766E+03  4.47900E+02  3.35118E+03
 -1.15451E+03  2.61698E+02 -2.33825E+03 -2.14450E+03  9.49843E+02 -3.11632E+03  4.66018E+03 -2.62960E+03
  4.52345E+03  4.56250E+02  5.22021E+03  3.27067E+03  1.53085E+03  5.44772E+03 -1.62186E+03  5.20973E+03
 -4.21636E+03  1.71835E+03 -4.23882E+03 -5.83301E+02 -2.53548E+03 -3.70518E+03  6.98909E+02 -2.49845E+03
  3.39599E+03 -1.70112E+03  2.25227E+03  1.23517E+03  1.19229E+03  2.95835E+03 -3.31005E+01  1.86737E+03
 -1.40584E+03  2.25513E+03 -1.72096E+03  1.33092E+02  2.32461E+02  4.67949E+02 -9.83629E+02  1.37730E+03
 -1.58609E+03  2.28955E+03 -3.37475E+03  1.95031E+03 -5.18832E+03 -1.72556E+02 -6.27974E+03 -3.11503E+03
 -3.25031E+03 -5.74950E+03  7.21736E+02 -8.03514E+03  4.51693E+03 -6.49528E+03  6.99927E+03 -2.47415E+03
  6.61641E+03  1.00263E+03  3.52055E+03  4.40492E+03  3.71093E+02  5.21916E+03 -1.71451E+03  4.08013E+03
 -2.83008E+03  1.39731E+03 -1.85822E+03 -6.14393E+02 -2.38154E+02 -1.36320E+02 -1.24883E+03  6.08227E+01
 -1.21971E+03  3.57509E+01 -1.27039E+03 -4.77148E+02  5.95475E+01 -1.34612E+03 -3.87606E+02 -1.53687E+03
  2.82074E+03 -1.08936E+03  2.76516E+03  9.15578E+02  3.70921E+03  3.24662E+03  3.66901E+01  5.26660E+03
 -1.93055E+03  5.52053E+03 -5.21705E+03  3.46992E+03 -5.96101E+03 -6.22400E+02 -3.91124E+03 -3.95081E+03
 -2.09264E+03 -4.72100E+03  1.23907E+03 -4.69253E+03  3.13071E+03 -2.88329E+03  2.94953E+03 -2.27292E+02
  2.06965E+03  1.49192E+03  5.02631E+01  7.41631E+02 -1.24268E+03 -4.68874E+02  1.41369E+02 -5.98988E+02
  1.48764E+03 -8.75963E+02  1.01315E+03 -1.64552E+02  7.85754E+02  2.11352E+03  1.60362E+02  1.57991E+03
 -1.97916E+03  1.72638E+03 -3.12807E+03  1.71504E+02 -2.84741E+03 -1.73511E+03  5.58577E+02 -3.84009E+03
  1.38010E+03 -2.39354E+03  3.34975E+03 -7.00094E+01  3.65212E+03  8.29723E+02  2.30158E+03  3.32854E+03
  9.61610E+02  3.12501E+03 -1.22851E+03  2.24080E+03 -1.53305E+03  1.10989E+03 -1.24586E+03  6.83665E+02
 -1.14212E+03  1.30808E+02 -1.14994E+03  4.02307E+02 -1.31611E+03  9.19636E+02 -2.59423E+03 -5.83913E+02
 -2.02265E+03 -1.44536E+03 -8.15919E+02 -3.51084E+03  1.21110E+03 -3.94013E+03  1.86209E+03 -1.66437E+03
  2.70456E+03  1.06581E+03  1.78544E+03  1.34627E+03 -9.51559E+02  3.13069E+03 -2.22772E+03  2.06513E+03
