 $NMID ID='MM_0lb_SNR400_7hz_g60_13.RAW', FMTDAT='(8E13.5)'
 TRAMP=1., VOLUME=1. $END
  3.10510E+05  5.28619E+02  3.37129E+05  2.50459E+05  8.61810E+04  3.38801E+05 -1.32582E+05  2.52633E+05
 -1.90874E+05  8.40332E+04 -1.12657E+05 -3.17969E+04  6.89703E+02 -5.04618E+04  5.38141E+04 -6.61840E+02
  3.55603E+04  5.38730E+04 -1.55517E+04  7.64568E+04 -6.16325E+04  6.50927E+04 -8.54473E+04  3.35090E+04
 -8.44337E+04 -1.18518E+04 -5.93207E+04 -5.27034E+04 -1.46973E+04 -7.14843E+04  2.80939E+04 -4.72265E+04
  4.22315E+04  3.19903E+03  1.76364E+04  4.85446E+04 -3.54595E+04  4.98731E+04 -6.87475E+04  1.03723E+03
 -5.62997E+04 -5.83988E+04 -6.49473E+03 -7.97702E+04  3.57104E+04 -5.81524E+04  5.12957E+04 -1.89002E+04
  4.71922E+04  1.11259E+04  3.30426E+04  2.74525E+04  1.70608E+04  3.15105E+04 -5.51293E+03  2.74553E+04
 -2.27138E+04  1.19847E+04 -1.80643E+04 -5.43295E+03  7.96326E+03 -7.39735E+03  2.44191E+04  1.49136E+04
  6.71622E+03  3.85274E+04 -3.34621E+04  3.76558E+04 -6.77939E+04  1.70395E+03 -5.97434E+04 -4.55406E+04
 -1.22976E+04 -6.72788E+04  4.19906E+04 -4.97527E+04  6.31549E+04 -2.98683E+03  3.79121E+04  3.57222E+04
 -4.71031E+03  4.19964E+04 -3.29500E+04  2.04910E+04 -3.50981E+04 -2.59894E+03 -1.99195E+04 -1.31038E+04
 -9.68581E+03 -1.62357E+04 -1.45279E+03 -2.06861E+04  9.34705E+03 -2.42778E+04  1.65905E+04 -1.17862E+04
  9.74970E+03  6.82937E+03 -1.23740E+04  1.29461E+04 -2.48950E+04 -7.07490E+03 -9.15875E+03 -3.96935E+04
  2.59206E+04 -5.01879E+04  5.48295E+04 -2.09740E+04  5.01545E+04  2.12224E+04  1.84509E+04  4.81418E+04
 -1.63214E+04  3.88879E+04 -2.92972E+04  3.28425E+03 -1.32765E+04 -3.04850E+04  2.11762E+04 -3.91637E+04
  4.65296E+04 -1.23547E+04  4.33526E+04  2.50672E+04  2.28746E+04  5.42643E+04 -8.44881E+03  6.04104E+04
 -3.75659E+04  4.18340E+04 -5.06514E+04  1.25051E+04 -5.01993E+04 -2.00795E+04 -2.74496E+04 -4.41687E+04
  9.26324E+03 -4.42808E+04  3.68600E+04 -1.86522E+04  3.37901E+04  1.19594E+04  5.63530E+03  2.25043E+04
 -1.34976E+04  1.09690E+04 -1.20845E+04 -7.43609E+03  5.06465E+03 -1.17943E+04  1.94540E+04  5.26361E+03
  1.57652E+04  2.28764E+04 -4.72344E+03  2.81046E+04 -2.40256E+04  1.60785E+04 -3.34548E+04 -1.70862E+03
 -2.80835E+04 -1.89530E+04 -1.41602E+04 -2.85754E+04  4.62824E+03 -2.87650E+04  2.27047E+04 -2.64823E+04
  3.60599E+04 -1.53971E+04  4.03758E+04  6.54190E+03  2.81996E+04  2.55442E+04  5.02781E+03  4.31942E+04
 -2.17414E+04  3.67294E+04 -3.32342E+04  1.28721E+04 -2.37145E+04 -1.07927E+04 -5.27100E+03 -1.28597E+04
  1.64710E+02  5.75566E+02 -8.68373E+03  9.04272E+03 -2.26412E+04  4.01812E+03 -2.28429E+04 -1.15405E+04
 -1.28877E+04 -2.66650E+04  7.24557E+03 -3.01765E+04  2.06507E+04 -2.15914E+04  2.59058E+04 -1.71272E+03
  1.70779E+04  1.88203E+04 -8.94449E+02  2.58924E+04 -1.86284E+04  1.50847E+04 -2.64953E+04 -5.15268E+03
 -1.89732E+04 -2.31127E+04 -3.28447E+03 -3.10333E+04  1.40663E+04 -2.56098E+04  2.50975E+04 -1.41333E+04
  2.56110E+04  7.82270E+01  1.82035E+04  5.97267E+03  1.03889E+04  2.44718E+03  1.42434E+04 -2.33045E+03
  2.48004E+04  3.04382E+03  3.00421E+04  2.01989E+04  2.04288E+04  4.24971E+04 -2.14166E+03  5.08357E+04
 -2.83966E+04  4.23186E+04 -4.89835E+04  2.36244E+04 -5.18777E+04 -3.62655E+03 -4.15928E+04 -2.97326E+04
 -1.57083E+04 -4.23805E+04  1.56004E+04 -3.82962E+04  3.22919E+04 -1.71147E+04  2.83223E+04  9.20162E+03
  8.51759E+03  2.11511E+04 -1.29367E+04  1.72414E+04 -2.31816E+04  2.21509E+03 -1.70472E+04 -1.39988E+04
 -3.11646E+02 -2.21909E+04  1.17648E+04 -1.61755E+04  1.53158E+04 -1.73417E+03  3.76624E+03  9.74589E+03
 -8.94702E+03  5.81026E+03 -1.13801E+04 -8.56042E+03 -2.72278E+03 -1.98850E+04  1.41760E+04 -2.37919E+04
  2.66939E+04 -1.35979E+04  3.28006E+04  4.07944E+03  2.84092E+04  2.19704E+04  1.27842E+04  3.59209E+04
 -6.59971E+03  3.73916E+04 -2.48392E+04  2.25578E+04 -2.67366E+04  4.17989E+03 -1.82948E+04 -7.06205E+03
 -7.31339E+03 -8.22147E+03 -1.92805E+02 -1.67821E+02 -3.68372E+03  3.40550E+03 -8.96155E+03  6.67363E+03
 -1.65008E+04 -1.46204E+03 -1.69397E+04 -1.34228E+04 -7.01309E+03 -2.19217E+04  7.72832E+03 -1.93592E+04
  1.52578E+04 -7.45422E+03  1.00133E+04  5.80195E+03  1.46151E+02  7.92105E+03 -9.42216E+03 -2.90278E+02
 -1.00757E+04 -1.10838E+04 -1.76697E+03 -1.82181E+04  1.16950E+04 -2.10065E+04  2.44973E+04 -1.15014E+04
  2.84829E+04  2.91701E+03  2.06921E+04  1.75013E+04  4.06066E+03  2.29427E+04 -1.12112E+04  1.85284E+04
 -1.53479E+04  4.98247E+03 -7.68858E+03 -5.06315E+03  2.03194E+03 -5.22571E+03  9.81847E+03 -9.57054E+02
  9.24523E+03  8.28567E+03  1.07714E+03  1.50669E+04 -1.03291E+04  1.41036E+04 -1.79309E+04  3.01182E+03
 -1.18999E+04 -1.08422E+04 -5.00096E+02 -1.67831E+04  1.10531E+04 -7.39421E+03  1.18334E+04  4.15546E+03
  3.04114E+03  1.36956E+04 -9.86115E+03  1.46543E+04 -1.59886E+04  6.02151E+03 -1.77409E+04 -6.64731E+03
 -1.05958E+04 -1.91633E+04  5.21547E+03 -2.32962E+04  1.89128E+04 -1.44207E+04  2.07077E+04  3.53229E+03
  1.26541E+04  1.66052E+04 -2.85217E+03  1.89220E+04 -1.37813E+04  1.21524E+04 -1.59361E+04 -1.87846E+03
 -1.18598E+04 -1.25831E+04 -1.36721E+03 -1.58107E+04  7.36545E+03 -1.17606E+04  9.54371E+03 -4.05236E+03
  4.21843E+03  2.54098E+03 -2.34582E+03  2.06048E+03 -1.27645E+03 -4.16443E+03  4.26471E+03 -1.01224E+04
  1.55168E+04 -6.38435E+03  2.06099E+04  2.75397E+03  1.98929E+04  1.45984E+04  1.23067E+04  2.72200E+04
 -7.43540E+03  3.05199E+04 -2.40859E+04  2.19601E+04 -3.23322E+04  3.97657E+03 -2.57435E+04 -1.17613E+04
 -1.41367E+04 -2.16532E+04 -9.76665E+02 -1.96177E+04  6.61541E+03 -1.16827E+04  6.85667E+03 -5.79562E+03
  4.08285E+03 -3.45814E+03  5.59501E+03 -4.50901E+03  6.57674E+03 -4.76248E+03  1.02576E+04 -2.34035E+03
  1.36341E+04  3.22776E+03  7.98424E+03  1.22013E+04 -2.46546E+03  1.59634E+04 -1.48342E+04  1.12653E+04
 -1.88599E+04 -6.01065E+02 -1.32068E+04 -1.36842E+04 -1.88155E+03 -2.09999E+04  1.21253E+04 -2.01612E+04
  2.20180E+04 -1.23191E+04  2.57114E+04  4.63619E+03  1.67051E+04  1.78988E+04  2.16039E+03  2.31286E+04
 -9.44791E+03  1.82351E+04 -1.32703E+04  7.03666E+03 -9.76488E+03 -2.30483E+03 -4.59117E+03 -3.16453E+03
 -1.93795E+03 -1.78704E+03 -2.72103E+03  2.80620E+03 -7.71951E+03  3.21681E+03 -1.34227E+04 -2.14339E+03
 -1.02504E+04 -1.31152E+04  1.62938E+02 -1.99260E+04  1.20242E+04 -1.79536E+04  2.06136E+04 -5.47830E+03
  1.91407E+04  9.12426E+03  9.11314E+03  1.74340E+04 -3.88638E+03  2.06483E+04 -1.49124E+04  1.17513E+04
 -1.84590E+04  3.56252E+02 -1.40528E+04 -1.23378E+04 -2.84511E+03 -1.76293E+04  9.21266E+03 -1.32691E+04
  1.35514E+04 -4.06708E+03  9.84616E+03  3.41552E+03  2.47836E+03  6.88401E+03  2.56284E+03  3.14920E+03
  3.68315E+03  1.05405E+03  5.12818E+03  1.89284E+03  5.93245E+03  7.03016E+03  4.96913E+03  1.18088E+04
 -3.56519E+03  1.57440E+04 -1.43797E+04  1.59444E+04 -2.24656E+04  4.12533E+03 -2.11984E+04 -1.00269E+04
 -1.17683E+04 -2.07647E+04  3.71920E+03 -2.31982E+04  1.31498E+04 -1.43381E+04  1.78693E+04 -4.02598E+03
  1.31041E+04  7.70389E+03  4.30975E+03  1.22607E+04 -6.33424E+03  7.04721E+03 -8.65791E+03 -1.07335E+03
 -4.17594E+03 -9.31422E+03  5.86951E+03 -9.48051E+03  9.08399E+03 -4.35811E+03  9.19524E+03  2.63070E+03
  4.80776E+03  5.35434E+03  2.00632E+03  3.46767E+03 -2.11316E+03  3.29090E+03  1.63521E+03 -6.08388E+02
  3.45005E+03 -6.89364E+02  9.07273E+03  3.30896E+03  5.04595E+03  1.10636E+04 -1.54309E+03  1.41939E+04
 -1.05851E+04  1.06069E+04 -1.45171E+04  2.78202E+03 -1.23827E+04 -5.24074E+03 -4.39008E+03 -8.31876E+03
  1.87925E+03 -8.71927E+03  6.01039E+03 -4.21321E+03  5.70460E+03  3.21459E+03 -2.57985E+03  7.13826E+03
 -8.93970E+03  4.08274E+03 -1.04590E+04 -5.94952E+03 -6.15282E+03 -1.11570E+04  2.15625E+03 -1.35542E+04
  7.29555E+03 -7.41566E+03  9.03834E+03 -1.09994E+03  8.09085E+03  4.34949E+03  1.17336E+03  6.80250E+03
 -3.84503E+03  2.02405E+03 -5.76278E+03 -3.88445E+03  2.17697E+03 -9.19239E+03  1.06034E+04 -7.88306E+03
  1.42049E+04  1.21621E+03  1.30745E+04  9.65534E+03  4.61571E+03  1.55652E+04 -5.38624E+03  1.46058E+04
 -1.21360E+04  5.53423E+03 -1.40789E+04 -2.01478E+03 -6.20114E+03 -9.30234E+03  2.26644E+03 -9.73216E+03
  8.98354E+03 -3.72064E+03  7.71145E+03  3.59496E+03  3.24590E+03  8.21132E+03 -2.10815E+03  7.04757E+03
 -2.78433E+03  5.21058E+03 -3.55984E+03  1.62942E+03 -1.07571E+03  1.48081E+03 -2.18796E+03  3.25161E+03
 -3.30927E+03  5.80404E+03 -8.75131E+03  5.14923E+03 -1.44146E+04 -2.65383E+02 -1.62892E+04 -1.06871E+04
 -9.16017E+03 -1.92091E+04  3.50993E+03 -2.22551E+04  1.39529E+04 -1.82823E+04  2.22269E+04 -6.72623E+03
  2.10163E+04  4.18142E+03  1.21447E+04  1.41040E+04  1.42158E+03  1.52871E+04 -6.57467E+03  1.12874E+04
 -8.98362E+03  3.47119E+03 -4.56744E+03 -1.39467E+03 -5.20194E+02 -1.64366E+03 -5.18845E+02 -3.43415E+02
 -2.19322E+03  1.31832E+02 -3.80039E+03 -7.17340E+02 -1.76397E+03 -2.90474E+03  1.28897E+03 -5.92076E+03
  6.83782E+03 -4.71800E+03  1.01476E+04 -7.46470E+02  1.14093E+04  8.52425E+03  4.46355E+03  1.60005E+04
 -7.80767E+03  1.79851E+04 -1.77022E+04  1.15418E+04 -1.91810E+04 -1.35880E+03 -1.51507E+04 -1.24226E+04
 -6.31753E+03 -1.68163E+04  3.75591E+03 -1.47705E+04  1.04628E+04 -8.10729E+03  1.09979E+04  6.69970E+02
  5.91668E+03  5.91155E+03 -1.44170E+03  4.77066E+03 -2.38187E+03 -4.93249E+02 -1.81242E+02 -3.48504E+03
  5.21307E+03 -1.69802E+03  6.99222E+03  1.14726E+03  5.33210E+03  5.63530E+03  8.55473E+02  8.96601E+03
 -7.55177E+03  7.07976E+03 -1.22243E+04  1.12467E+03 -1.02445E+04 -8.26702E+03 -1.01243E+03 -1.40497E+04
  7.49066E+03 -1.10913E+04  1.37444E+04 -3.67355E+03  1.30381E+04  2.31106E+03  7.72959E+03  9.99540E+03
  1.74121E+03  1.06995E+04 -4.68219E+03  8.86061E+03 -7.91467E+03  4.49845E+03 -6.43381E+03  3.00410E+02
 -3.31125E+03 -4.02091E+02 -3.61724E+03  7.65596E+02 -4.93169E+03  1.71756E+03 -8.89151E+03 -1.39326E+03
 -7.50487E+03 -6.40197E+03 -2.73256E+03 -1.09117E+04  4.31273E+03 -1.01351E+04  9.95957E+03 -5.30348E+03
  1.13277E+04  2.09144E+03  6.97958E+03  8.57259E+03 -1.50715E+02  1.05862E+04 -8.55788E+03  7.06843E+03
