 $NMID ID='MM_0lb_SNR400_14hz_g55_23.RAW', FMTDAT='(8E13.5)'
 TRAMP=1., VOLUME=1. $END
  3.09558E+05  2.00367E+02  3.37260E+05  2.50543E+05  8.50144E+04  3.38266E+05 -1.33013E+05  2.51506E+05
 -1.90158E+05  8.38998E+04 -1.12112E+05 -3.26119E+04  7.22959E+02 -5.00305E+04  5.39299E+04 -4.81858E+02
  3.55017E+04  5.25110E+04 -1.64190E+04  7.53064E+04 -6.07599E+04  6.38194E+04 -8.43790E+04  3.18525E+04
 -8.07374E+04 -1.14846E+04 -5.66512E+04 -5.15246E+04 -1.55415E+04 -7.06377E+04  2.72999E+04 -4.63162E+04
  4.01960E+04  4.00377E+03  1.61697E+04  4.79173E+04 -3.44540E+04  4.67083E+04 -6.66266E+04  1.34247E+02
 -5.38177E+04 -5.65368E+04 -6.64300E+03 -7.77811E+04  3.44902E+04 -5.51803E+04  4.82353E+04 -1.83319E+04
  4.38320E+04  1.15188E+04  3.23905E+04  2.58388E+04  1.58260E+04  3.02470E+04 -5.14951E+03  2.77604E+04
 -2.25857E+04  1.27799E+04 -1.85231E+04 -4.88691E+03  5.98107E+03 -7.85681E+03  2.24642E+04  1.26947E+04
  7.48675E+03  3.61410E+04 -3.26250E+04  3.60133E+04 -6.38312E+04  2.13392E+03 -5.72742E+04 -4.28465E+04
 -1.17236E+04 -6.31011E+04  3.95271E+04 -4.55681E+04  5.89197E+04 -2.10942E+03  3.44581E+04  3.29691E+04
 -6.73042E+03  3.72328E+04 -3.00970E+04  1.68957E+04 -3.07993E+04 -4.18519E+03 -1.75218E+04 -1.10848E+04
 -8.29846E+03 -1.39623E+04 -7.73038E+02 -1.85812E+04  8.49876E+03 -2.33300E+04  1.56017E+04 -1.33256E+04
  1.09149E+04  5.02131E+03 -8.93292E+03  1.29839E+04 -2.15749E+04 -4.83290E+03 -8.25923E+03 -3.43575E+04
  2.31734E+04 -4.40188E+04  4.86975E+04 -1.95113E+04  4.53099E+04  1.97120E+04  1.60147E+04  4.48308E+04
 -1.56103E+04  3.42293E+04 -2.60908E+04  1.67334E+03 -1.01987E+04 -2.84934E+04  2.10973E+04 -3.44182E+04
  4.21127E+04 -9.22690E+03  3.66077E+04  2.41332E+04  1.87729E+04  4.76391E+04 -8.50365E+03  5.09371E+04
 -3.19509E+04  3.44621E+04 -4.22514E+04  9.83969E+03 -4.32495E+04 -1.75897E+04 -2.37784E+04 -3.83639E+04
  7.56587E+03 -3.87242E+04  3.17961E+04 -1.40419E+04  3.00419E+04  1.09173E+04  3.82691E+03  1.91631E+04
 -1.29456E+04  8.39937E+03 -1.07466E+04 -7.39077E+03  5.39853E+03 -1.08931E+04  1.81189E+04  6.14616E+03
  1.34339E+04  2.17445E+04 -5.98444E+03  2.51817E+04 -2.26681E+04  1.20807E+04 -2.91262E+04 -4.45963E+03
 -2.12618E+04 -1.77288E+04 -9.03512E+03 -2.15415E+04  3.89066E+03 -2.00690E+04  1.60960E+04 -1.85598E+04
  2.76901E+04 -1.28680E+04  3.34381E+04  2.60655E+03  2.40860E+04  2.05781E+04  4.08181E+03  3.66887E+04
 -1.84991E+04  3.13873E+04 -2.82713E+04  1.09096E+04 -2.08873E+04 -1.03940E+04 -4.08595E+03 -1.38628E+04
  1.53215E+03 -2.07239E+03 -5.27517E+03  7.31416E+03 -1.68953E+04  4.15000E+03 -1.72641E+04 -7.51497E+03
 -9.97799E+03 -1.96672E+04  5.67357E+03 -2.40010E+04  1.58141E+04 -1.69749E+04  1.88039E+04 -2.15300E+03
  1.23321E+04  1.34941E+04 -1.72421E+03  1.95428E+04 -1.37115E+04  1.14353E+04 -1.97828E+04 -3.85528E+03
 -1.37094E+04 -1.86157E+04 -2.11409E+03 -2.39554E+04  1.07202E+04 -1.94720E+04  1.97975E+04 -9.50408E+03
  1.82992E+04 -7.68302E+01  1.34483E+04  4.47413E+03  6.78759E+03  5.89429E+02  9.81173E+03 -1.64331E+03
  1.79885E+04  3.23056E+03  1.96502E+04  1.48392E+04  1.34857E+04  3.17881E+04 -1.92371E+03  3.52243E+04
 -2.08990E+04  2.85895E+04 -3.31465E+04  1.45192E+04 -3.45956E+04 -2.24284E+03 -2.85977E+04 -1.97896E+04
 -1.25155E+04 -2.84030E+04  1.04035E+04 -2.58431E+04  2.29999E+04 -1.26566E+04  2.01668E+04  5.00179E+03
  6.68356E+03  1.40332E+04 -9.43053E+03  1.27230E+04 -1.71155E+04  2.85744E+03 -1.31120E+04 -9.92864E+03
 -6.87302E+02 -1.53070E+04  8.29377E+03 -1.19715E+04  1.05917E+04 -1.53049E+03  2.27493E+03  6.76309E+03
 -7.63813E+03  2.55174E+03 -6.41035E+03 -5.47784E+03 -8.55480E+02 -1.45083E+04  9.55765E+03 -1.52748E+04
  1.72046E+04 -7.58483E+03  1.86212E+04  3.02249E+03  1.60829E+04  1.35993E+04  8.17308E+03  2.08261E+04
 -3.98450E+03  2.30878E+04 -1.45771E+04  1.43586E+04 -1.68406E+04  3.27912E+03 -1.17553E+04 -3.69316E+03
 -5.54092E+03 -5.60651E+03 -1.04108E+03  1.56469E+03 -3.03705E+03  2.81285E+03 -5.07086E+03  4.37191E+03
 -1.06325E+04 -9.29439E+02 -1.12341E+04 -9.46925E+03 -4.97334E+03 -1.52496E+04  4.74710E+03 -1.20327E+04
  1.01632E+04 -5.56002E+03  7.36993E+03  3.43075E+03  3.62911E+01  4.62592E+03 -5.18824E+03 -2.16800E+02
 -5.35267E+03 -7.61119E+03 -9.66876E+02 -1.06138E+04  5.70074E+03 -1.22412E+04  1.46423E+04 -6.32340E+03
  1.77817E+04  1.39207E+03  1.25845E+04  1.01385E+04  2.88604E+03  1.35546E+04 -7.12156E+03  1.09378E+04
 -9.31781E+03  4.19162E+03 -5.40111E+03 -2.65691E+03  1.17602E+03 -2.73997E+03  6.16185E+03 -1.10185E+03
  5.81716E+03  5.86039E+03  8.19167E+02  9.58459E+03 -6.54060E+03  8.66031E+03 -1.11867E+04  2.46194E+03
 -7.48133E+03 -5.83707E+03  2.18743E+02 -9.57568E+03  6.35549E+03 -4.88157E+03  5.65637E+03  1.82932E+03
  1.27671E+03  6.51553E+03 -5.66155E+03  7.48116E+03 -9.02060E+03  3.76293E+03 -9.19165E+03 -2.49948E+03
 -5.30800E+03 -1.02235E+04  2.03047E+03 -1.25784E+04  9.60273E+03 -6.99888E+03  1.06928E+04  2.07092E+03
  7.27836E+03  9.05571E+03 -1.09685E+03  1.09303E+04 -7.82398E+03  5.84921E+03 -8.29326E+03 -3.90194E+02
 -7.53346E+03 -7.41165E+03 -2.11829E+03 -7.89537E+03  4.15275E+03 -6.46921E+03  4.65732E+03 -3.34500E+03
  3.62930E+03  1.46638E+03 -5.45200E+02  1.78506E+03  8.11694E+02 -1.78885E+03  1.01177E+03 -4.37913E+03
  6.79099E+03 -2.43348E+03  9.58513E+03  7.30822E+02  1.01069E+04  6.87574E+03  7.34995E+03  1.32883E+04
 -2.44025E+03  1.56357E+04 -1.30111E+04  1.16507E+04 -1.62306E+04  1.80726E+03 -1.31510E+04 -5.21974E+03
 -6.75651E+03 -1.18273E+04 -7.06958E+02 -9.31937E+03  3.09159E+03 -4.63874E+03  3.00314E+03 -3.08764E+03
  2.50916E+03 -2.01868E+03  2.95594E+03 -2.55627E+03  4.82703E+03 -2.25513E+03  5.27832E+03 -2.31538E+02
  7.27128E+03  1.96003E+03  2.88075E+03  5.77345E+03 -1.37269E+03  6.69992E+03 -7.33975E+03  4.57284E+03
 -8.52647E+03 -1.84343E+03 -5.07809E+03 -6.07461E+03 -3.78855E+02 -9.25222E+03  5.76486E+03 -9.20413E+03
  9.26137E+03 -5.07359E+03  1.17252E+04  4.58652E+02  8.52415E+03  8.04962E+03  1.54290E+03  1.01433E+04
 -4.03951E+03  9.07928E+03 -6.19569E+03  3.05261E+03 -4.03836E+03 -1.80565E+03 -9.69906E+02 -7.31140E+02
 -6.37144E+02  2.85890E+02 -1.19684E+03  2.47277E+03 -4.21697E+03  1.32370E+03 -6.83027E+03 -5.22550E+02
 -3.99251E+03 -6.70105E+03  6.27787E+01 -8.08587E+03  5.52737E+03 -8.01411E+03  7.73843E+03 -2.05164E+03
  8.56569E+03  4.21287E+03  3.31614E+03  7.13851E+03 -1.93540E+03  8.93422E+03 -5.76699E+03  5.14915E+03
 -6.78230E+03  1.00697E+03 -6.40695E+03 -4.51738E+03 -5.64494E+02 -6.49104E+03  3.23841E+03 -4.51681E+03
  5.68955E+03 -2.11283E+03  2.90906E+03  1.05545E+03  5.57717E+02  3.23798E+03  9.46489E+02  9.07373E+02
  2.07727E+03  8.06038E+02  1.49593E+03  1.68461E+03  2.69106E+03  3.62093E+03  1.60546E+03  4.18317E+03
 -1.80885E+03  6.89594E+03 -5.26867E+03  6.82945E+03 -7.16437E+03  1.99368E+03 -8.36120E+03 -2.93792E+03
 -4.14775E+03 -8.20472E+03  1.47157E+03 -8.91936E+03  4.64786E+03 -5.65242E+03  6.62745E+03 -1.20993E+03
  4.51197E+03  2.71183E+03  7.00158E+02  4.43039E+03 -2.04316E+03  2.49731E+03 -2.83770E+03 -1.74264E+02
 -1.26792E+03 -3.04698E+03  1.76700E+03 -2.77383E+03  2.72511E+03 -1.83381E+03  3.17179E+03  2.78637E+02
  1.56079E+03  1.00301E+03  3.58363E+02  5.24907E+02 -6.50041E+01  1.21747E+03  1.83383E+03 -9.30142E+02
  1.52420E+03 -4.19017E+02  2.95554E+03  1.32527E+03  1.13181E+03  4.85285E+03 -6.32628E+02  5.63588E+03
 -4.04788E+03  3.33956E+03 -4.45574E+03  9.91229E+02 -4.74440E+03 -1.13430E+03 -1.40166E+03 -2.48638E+03
  1.30931E+03 -3.03997E+03  1.52274E+03 -1.11011E+03  1.84340E+03  2.13003E+03 -1.55229E+03  2.97444E+03
 -2.79687E+03  1.46963E+03 -2.91172E+03 -2.05923E+03 -1.83451E+03 -4.59808E+03  7.79999E+01 -4.55752E+03
  2.39144E+03 -2.33899E+03  2.90411E+03 -8.41468E+01  2.31327E+03  8.26015E+02 -1.43635E+02  2.65732E+03
 -9.22092E+02  9.93714E+02 -1.61028E+03 -4.62316E+02  1.29091E+03 -2.72045E+03  2.91351E+03 -2.53855E+03
  4.06202E+03  6.46056E+02  4.93581E+03  2.50770E+03  1.69504E+03  4.34555E+03 -1.24660E+03  4.29740E+03
 -3.84053E+03  1.40229E+03 -3.75129E+03 -2.10185E+02 -1.72657E+03 -3.30803E+03  3.87802E+02 -2.72847E+03
  3.40937E+03 -1.30176E+03  2.26750E+03  9.94300E+02  3.84268E+02  2.84251E+03  1.74107E+02  2.04280E+03
 -1.36516E+03  1.18752E+03 -1.50587E+03  1.12639E+03 -9.31650E+01  5.04975E+02 -6.33564E+02  1.76909E+03
 -1.71653E+03  1.75386E+03 -3.64138E+03  1.14385E+03 -4.21940E+03 -8.58792E+01 -4.31136E+03 -2.76124E+03
 -2.30290E+03 -5.67123E+03  1.39159E+03 -6.56707E+03  3.14711E+03 -5.56649E+03  6.56910E+03 -2.29711E+03
  5.99338E+03  1.27238E+03  3.63559E+03  3.85031E+03  3.20878E+02  4.29916E+03 -1.72700E+03  3.27466E+03
 -1.57616E+03  1.82137E+03 -1.73246E+03 -5.68306E+02 -7.99968E+01 -1.53158E+02 -9.15665E+02 -7.17325E+02
 -1.52573E+03  1.85916E+02 -1.66271E+03 -1.68025E+02 -2.17534E+02 -4.59971E+02 -9.67006E+02 -1.64843E+03
  2.28586E+03 -1.44582E+03  1.80050E+03  9.05727E+01  2.81117E+03  2.92803E+03  4.61683E+02  4.38184E+03
 -3.06160E+03  4.98514E+03 -3.70879E+03  3.12028E+03 -5.00238E+03 -1.94193E+02 -3.39615E+03 -2.97549E+03
 -1.85207E+03 -4.28614E+03  7.54449E+02 -4.05211E+03  2.19512E+03 -2.25508E+03  3.08919E+03  2.89245E+02
  1.32554E+03  1.01386E+03 -4.28372E+02  1.08566E+03 -5.17892E+02 -3.80719E-01 -3.47693E+02 -1.00461E+03
  1.69798E+03 -7.92347E+02  1.40033E+03  3.84121E+02  4.90190E+02  1.04684E+03  1.89691E+02  1.22441E+03
 -1.50247E+03  1.86364E+03 -2.08770E+03 -4.89963E+01 -2.39864E+03 -1.81941E+03 -4.12793E+02 -3.15217E+03
  1.63081E+03 -2.26605E+03  2.78850E+03 -1.85587E+02  3.30829E+03  3.18930E+02  1.40857E+03  1.94456E+03
  5.45634E+02  1.66991E+03 -6.88508E+02  1.87490E+03 -1.43133E+03  1.35342E+03 -5.01883E+02  5.39727E+02
 -4.72993E+02 -1.77246E+02 -8.60836E+02 -4.44067E+01 -7.24147E+02  5.45520E+02 -1.68717E+03  3.01637E+01
 -1.93401E+03 -1.07047E+03 -9.82280E+02 -2.32741E+03  1.58861E+03 -3.35045E+03  1.87748E+03 -8.06445E+02
  2.30821E+03  6.68849E+02  6.63650E+02  1.36573E+03 -5.04617E+02  2.25588E+03 -1.17185E+03  1.11663E+03
