 $NMID ID='MM_0lb_SNR400_18hz_g50_71.RAW', FMTDAT='(8E13.5)'
 TRAMP=1., VOLUME=1. $END
  3.09998E+05  1.77172E+02  3.37314E+05  2.50795E+05  8.44482E+04  3.37727E+05 -1.32407E+05  2.50067E+05
 -1.90048E+05  8.27832E+04 -1.11094E+05 -3.26595E+04  1.28387E+03 -5.00108E+04  5.42573E+04  4.97542E+02
  3.51579E+04  5.25621E+04 -1.71126E+04  7.49895E+04 -6.07458E+04  6.26516E+04 -8.34293E+04  3.20154E+04
 -8.02904E+04 -1.12851E+04 -5.66446E+04 -5.01796E+04 -1.52500E+04 -6.84525E+04  2.65928E+04 -4.55267E+04
  3.94337E+04  3.58441E+03  1.54580E+04  4.75223E+04 -3.36021E+04  4.66795E+04 -6.58098E+04 -7.07375E+02
 -5.24892E+04 -5.63089E+04 -6.43314E+03 -7.59608E+04  3.34550E+04 -5.41705E+04  4.67866E+04 -1.59766E+04
  4.20277E+04  1.09518E+04  3.07832E+04  2.43399E+04  1.61925E+04  2.86459E+04 -4.60567E+03  2.71949E+04
 -2.09838E+04  1.24636E+04 -1.87027E+04 -4.15712E+03  4.54348E+03 -7.93203E+03  2.17999E+04  1.10727E+04
  8.05088E+03  3.35326E+04 -3.07097E+04  3.41058E+04 -6.14118E+04  1.67172E+03 -5.55140E+04 -4.15414E+04
 -1.23388E+04 -6.12975E+04  3.83081E+04 -4.32607E+04  5.65594E+04 -1.26757E+03  3.28327E+04  3.08733E+04
 -7.15652E+03  3.34529E+04 -2.88696E+04  1.42984E+04 -2.81543E+04 -5.37180E+03 -1.52528E+04 -1.01983E+04
 -7.99531E+03 -1.17137E+04 -1.29661E+03 -1.66444E+04  6.51409E+03 -2.28644E+04  1.48604E+04 -1.43401E+04
  1.19357E+04  4.50343E+03 -6.97758E+03  1.30199E+04 -1.98079E+04 -3.15915E+03 -7.72870E+03 -3.11142E+04
  2.14056E+04 -4.14593E+04  4.54841E+04 -1.88359E+04  4.22866E+04  1.83598E+04  1.48124E+04  4.21894E+04
 -1.56016E+04  3.14582E+04 -2.38952E+04  1.20872E+03 -8.43137E+03 -2.65852E+04  2.06479E+04 -3.13196E+04
  3.88137E+04 -7.58341E+03  3.25946E+04  2.25366E+04  1.58230E+04  4.35079E+04 -7.93953E+03  4.61545E+04
 -2.92166E+04  3.01333E+04 -3.83602E+04  8.07644E+03 -3.95486E+04 -1.59725E+04 -2.12621E+04 -3.53577E+04
  6.96337E+03 -3.50411E+04  2.96648E+04 -1.33223E+04  2.72617E+04  1.03860E+04  3.68024E+03  1.76615E+04
 -1.33565E+04  7.64511E+03 -9.51793E+03 -8.21397E+03  5.90054E+03 -9.46501E+03  1.75267E+04  6.53240E+03
  1.21633E+04  2.17689E+04 -6.51526E+03  2.37155E+04 -2.13498E+04  9.47010E+03 -2.60736E+04 -6.39629E+03
 -1.80145E+04 -1.69970E+04 -6.15463E+03 -1.71001E+04  3.46799E+03 -1.52562E+04  1.27200E+04 -1.49471E+04
  2.19504E+04 -1.18121E+04  2.89718E+04  7.68510E+02  2.16975E+04  1.72122E+04  3.99272E+03  3.31510E+04
 -1.66080E+04  2.82189E+04 -2.58965E+04  9.14204E+03 -2.02789E+04 -9.95912E+03 -3.29935E+03 -1.36292E+04
  2.97798E+03 -4.01436E+03 -2.98384E+03  5.72308E+03 -1.31292E+04  4.73604E+03 -1.39215E+04 -5.55661E+03
 -8.85806E+03 -1.64212E+04  4.86718E+03 -2.03682E+04  1.29092E+04 -1.44989E+04  1.49747E+04 -1.10565E+03
  9.52642E+03  1.16732E+04 -1.28967E+03  1.64509E+04 -1.10891E+04  9.38162E+03 -1.63032E+04 -3.93501E+03
 -1.21064E+04 -1.45089E+04 -1.54148E+03 -1.96498E+04  8.99889E+03 -1.58817E+04  1.62103E+04 -8.17610E+03
  1.45111E+04  7.59240E+02  1.09281E+04  3.66599E+03  5.34700E+03  1.65450E+02  8.27940E+03 -9.93299E+02
  1.50261E+04  2.48870E+03  1.51538E+04  1.33926E+04  9.86928E+03  2.55185E+04 -2.89387E+03  2.81611E+04
 -1.68268E+04  2.16324E+04 -2.53872E+04  1.01884E+04 -2.59238E+04 -2.65438E+03 -2.26322E+04 -1.51546E+04
 -1.02354E+04 -2.17905E+04  6.67103E+03 -2.04685E+04  1.69835E+04 -1.10723E+04  1.64346E+04  3.83426E+03
  6.64734E+03  1.12324E+04 -7.51233E+03  1.05011E+04 -1.37802E+04  2.16202E+03 -1.06145E+04 -8.89915E+03
 -1.84232E+02 -1.25420E+04  6.85692E+03 -9.73061E+03  8.21150E+03 -1.18922E+03  8.76507E+02  4.85148E+03
 -5.51078E+03  1.92652E+03 -4.11481E+03 -4.65213E+03  3.67697E+02 -1.09668E+04  7.87388E+03 -1.12212E+04
  1.34106E+04 -5.12811E+03  1.27157E+04  2.52804E+03  1.11141E+04  9.93796E+03  5.23122E+03  1.44267E+04
 -1.98493E+03  1.69513E+04 -9.93111E+03  1.11838E+04 -1.14703E+04  2.94761E+03 -8.43884E+03 -1.76889E+03
 -5.05046E+03 -3.26113E+03 -5.26289E+01  1.54663E+03 -1.77742E+03  1.94929E+03 -3.87190E+03  3.63149E+03
 -8.43696E+03 -2.39846E+02 -8.93105E+03 -7.88849E+03 -3.91930E+03 -1.14576E+04  3.69794E+03 -8.50615E+03
  7.47482E+03 -3.61549E+03  5.33121E+03  1.90716E+03  1.13005E+03  3.55799E+03 -3.58003E+03 -3.19584E+01
 -2.90260E+03 -5.27179E+03 -6.74605E+02 -7.69872E+03  4.07008E+03 -8.19890E+03  1.01398E+04 -4.33146E+03
  1.24423E+04  6.98131E+02  9.61607E+03  6.77404E+03  2.03055E+03  9.58949E+03 -5.37285E+03  8.60290E+03
 -7.50788E+03  2.78841E+03 -3.34375E+03 -1.72195E+03  1.29747E+03 -1.71426E+03  5.02633E+03 -8.14392E+02
  4.32426E+03  3.35793E+03  1.04936E+03  6.27330E+03 -4.44237E+03  6.92073E+03 -8.44712E+03  1.77354E+03
 -4.96467E+03 -4.15320E+03 -3.76356E+01 -7.14301E+03  4.79056E+03 -3.36349E+03  3.39551E+03  1.21411E+03
  8.68705E+02  3.58729E+03 -3.96156E+03  5.55157E+03 -5.46729E+03  2.33843E+03 -4.82864E+03 -1.24592E+03
 -2.49060E+03 -6.75799E+03  1.57927E+03 -7.72030E+03  5.98424E+03 -5.15897E+03  7.06040E+03  9.20035E+02
  4.60453E+03  5.89675E+03 -1.42406E+02  7.94850E+03 -5.19005E+03  3.67170E+03 -5.18634E+03 -6.71152E+02
 -5.31784E+03 -5.37952E+03 -1.59609E+03 -5.24961E+03  3.09427E+03 -4.62643E+03  3.15095E+03 -3.19568E+03
  3.45540E+03  5.07881E+02 -4.45624E+01  1.31970E+03  5.26635E+02 -4.17805E+02  6.20655E+02 -1.95808E+03
  4.03065E+03 -5.80768E+02  5.48745E+03  8.35000E+02  6.25436E+03  3.50817E+03  5.25913E+03  7.69878E+03
 -1.03729E+03  8.66252E+03 -8.42169E+03  6.74625E+03 -1.00153E+04  1.72197E+03 -8.06775E+03 -2.74932E+03
 -4.77909E+03 -6.93329E+03 -1.90969E+01 -5.64115E+03  1.91883E+03 -2.97272E+03  1.94615E+03 -2.27447E+03
  1.67409E+03 -1.72860E+03  2.66198E+03 -2.20942E+03  3.81160E+03 -1.15444E+03  3.03275E+03  6.04416E+02
  5.11376E+03  1.25576E+03  1.69671E+03  4.25062E+03 -1.40453E+03  2.94319E+03 -4.95647E+03  2.76659E+03
 -5.34235E+03 -7.71293E+02 -1.99790E+03 -3.40188E+03  4.58537E+02 -5.71138E+03  3.55907E+03 -6.05704E+03
  5.61350E+03 -3.60134E+03  7.08641E+03  5.92504E+02  5.62261E+03  4.36603E+03  1.04805E+03  6.57420E+03
 -1.94478E+03  6.37363E+03 -3.58240E+03  2.03094E+03 -1.95006E+03 -1.10445E+03 -6.00016E+02 -2.96283E+02
 -8.55609E+02  1.08767E+03 -1.13027E+03  1.80401E+03 -2.86168E+03  8.43935E+02 -4.37438E+03 -7.37713E+02
 -1.63771E+03 -4.43193E+03  9.66281E+02 -4.98245E+03  2.81283E+03 -4.74065E+03  3.91651E+03 -8.92062E+02
  4.88261E+03  3.39964E+03  1.79762E+03  3.85616E+03 -9.39625E+02  4.65470E+03 -2.65683E+03  3.12152E+03
 -4.13972E+03  7.32302E+02 -3.38557E+03 -2.47785E+03  9.08872E+01 -3.23825E+03  2.00377E+03 -3.14993E+03
  2.53283E+03 -1.72551E+03  1.88956E+03  4.39447E+02  1.35292E+03  1.91324E+03  6.08404E+02  5.95047E+02
  1.71673E+03  5.93743E+02  1.08017E+03  5.35448E+02  1.58168E+03  1.98745E+03  1.33683E+03  1.72145E+03
 -7.79436E+02  3.56369E+03 -2.97217E+03  4.24483E+03 -3.03932E+03  1.22213E+03 -4.40539E+03 -6.97067E+02
 -1.71209E+03 -4.04101E+03  1.13683E+03 -5.32063E+03  1.86291E+03 -2.78531E+03  2.86579E+03 -1.13835E+03
  2.53157E+03  1.40736E+03  4.93251E+02  2.53493E+03 -6.01304E+02  1.95151E+03 -1.02252E+03  3.30463E+01
 -1.02771E+03 -1.80600E+03  1.61327E+03 -1.77286E+03  7.85135E+02 -7.17591E+02  1.67199E+03  7.83770E+01
  1.05919E+03  1.08447E+03  3.70378E+02 -6.82193E+02 -2.71326E+02  3.66909E+02  1.25183E+03  5.14819E+02
  4.99213E+01  1.92512E+02  1.88346E+03  5.63859E+02  2.02210E+02  2.98509E+03 -3.59506E+02  3.27995E+03
 -2.27660E+03  1.88783E+03 -2.43157E+03  6.03322E+02 -2.26781E+03 -1.14224E+03  1.53820E+02 -1.12863E+03
 -4.30354E+01 -1.50601E+03  1.09370E+03 -2.64361E+02  4.11683E+02  1.68747E+03 -1.05577E+03  1.51801E+03
 -1.42110E+03  8.31915E+02 -1.04986E+03 -1.26241E+03 -8.91841E+01 -2.77855E+03  1.34692E+02 -1.97578E+03
  6.75699E+02 -4.26270E+02  1.47893E+03 -2.57346E+01  1.33704E+03 -4.05446E+02  4.79659E+02  1.58662E+03
 -3.55304E+02 -2.36393E+02 -1.10782E+03 -9.25114E+01  5.85234E+02 -1.04738E+03  1.71810E+03 -1.22890E+03
  1.54876E+03  7.66223E+02  3.24809E+03  1.46240E+03  1.83155E+03  1.90049E+03 -5.04825E+02  1.53743E+03
 -1.35044E+03  4.65453E+02 -1.70063E+03  2.64592E+01 -1.56588E+03 -1.19926E+03  2.65638E+02 -1.17965E+03
  1.57277E+03 -8.35918E+02  6.93464E+02  3.35365E+02  1.36621E+02  1.15555E+03 -9.59460E+01  9.78816E+02
 -2.55328E+02  1.20522E+03 -1.80852E+02  6.05080E+02 -3.84722E+02  7.60511E+02 -5.98163E+02  5.91030E+02
 -4.72886E+02  1.08145E+03 -1.63750E+03  5.63379E+02 -1.58907E+03 -1.71487E+02 -2.87231E+03 -1.11685E+03
 -1.01271E+03 -2.52952E+03  2.17209E+02 -2.77462E+03  1.79998E+03 -2.52566E+03  3.13552E+03 -1.17223E+03
  2.78518E+03 -2.12196E+02  1.48303E+03  1.92921E+03 -3.66861E+02  1.51643E+03 -1.06287E+03  1.31765E+03
 -1.11436E+03  8.93538E+02 -5.54426E+02 -3.22314E+02 -3.00559E+02  2.45676E+02 -7.05425E+02  8.82623E+01
 -9.82749E+02 -1.64906E+02 -9.94893E+02 -2.69763E+01  1.67783E+01 -4.16066E+02  1.84846E+01 -1.41072E+03
  1.78701E+03 -1.25261E+03  3.23427E+02 -2.59776E+02  1.44959E+03  1.02062E+03 -2.00243E+02  1.68328E+03
 -7.68845E+02  2.00970E+03 -1.84910E+03  1.90701E+03 -1.86479E+03 -3.30624E+02 -1.78518E+03 -1.58393E+03
 -8.38756E+02 -1.63588E+03  7.31486E+02 -1.55982E+03  1.18510E+02 -1.25209E+02  5.58039E+02 -1.10398E+02
  3.40618E+02  1.91682E+02 -1.47769E+02  8.78892E+02  2.46092E+02  3.45409E+02 -2.55143E+02 -3.14751E+02
  6.98874E+01 -7.38168E+01 -1.01915E+02  4.77356E+02  2.17240E+02  7.54543E+02  5.61367E+02  5.13810E+02
 -4.04567E+02  6.84884E+02 -6.00893E+02  1.83933E+02 -5.02294E+02 -3.21734E+02  3.10685E+02 -8.69631E+02
  9.00580E+02 -7.39855E+02  1.02298E+03 -3.47230E+02  1.00235E+03 -2.95793E+02  1.15666E+03  9.59478E+02
  5.79072E+02  1.12598E+03 -1.39648E+02  7.31297E+01 -8.39254E+02  2.75564E+02 -4.49814E+02 -4.13848E+02
  1.34438E+02  2.51532E+02 -1.65361E+02 -3.80299E+02 -7.21770E+02 -3.46010E+00 -7.43067E+02 -2.38953E+01
 -1.22306E+03  5.40806E+02 -7.53412E+02 -9.69013E+02  3.98635E+02 -1.68824E+03  1.51278E+02 -4.47608E+02
  5.29683E+02  4.43155E+01 -3.83201E+02  7.23602E+02  1.07653E+02  1.11734E+03 -5.84433E+02  7.18460E+02
