 $NMID ID='MM_0lb_SNR400_10hz_g40_76.RAW', FMTDAT='(8E13.5)'
 TRAMP=1., VOLUME=1. $END
  3.10140E+05  9.24742E+02  3.37826E+05  2.50795E+05  8.47008E+04  3.37705E+05 -1.32249E+05  2.51121E+05
 -1.90063E+05  8.33261E+04 -1.11371E+05 -3.23807E+04  1.46159E+03 -5.04723E+04  5.29699E+04 -1.99192E+02
  3.42657E+04  5.25235E+04 -1.71493E+04  7.52216E+04 -6.08976E+04  6.38138E+04 -8.51145E+04  3.22353E+04
 -8.17637E+04 -1.12953E+04 -5.83481E+04 -5.15956E+04 -1.46153E+04 -6.99211E+04  2.76803E+04 -4.62660E+04
  4.09849E+04  3.84618E+03  1.57685E+04  4.86335E+04 -3.44698E+04  4.80375E+04 -6.74555E+04  3.14874E+02
 -5.33672E+04 -5.79257E+04 -8.16903E+03 -7.81868E+04  3.50226E+04 -5.58507E+04  4.84577E+04 -1.81402E+04
  4.43265E+04  1.10512E+04  3.29429E+04  2.57055E+04  1.55809E+04  3.03796E+04 -5.65223E+03  2.79095E+04
 -2.16285E+04  1.26765E+04 -1.88187E+04 -6.09871E+03  6.66053E+03 -8.12338E+03  2.27267E+04  1.27966E+04
  7.35705E+03  3.62508E+04 -3.31084E+04  3.60357E+04 -6.44963E+04  2.14999E+03 -5.76265E+04 -4.35597E+04
 -1.23680E+04 -6.46784E+04  4.05329E+04 -4.69763E+04  5.97339E+04 -2.18145E+03  3.62335E+04  3.35284E+04
 -5.24219E+03  3.77478E+04 -3.14759E+04  1.77337E+04 -3.14804E+04 -4.11766E+03 -1.80797E+04 -1.16899E+04
 -9.21270E+03 -1.40274E+04 -8.18902E+02 -1.95249E+04  7.76577E+03 -2.32071E+04  1.61584E+04 -1.29923E+04
  1.08440E+04  5.41465E+03 -8.69663E+03  1.26791E+04 -2.27456E+04 -5.83086E+03 -8.86597E+03 -3.59977E+04
  2.37076E+04 -4.47817E+04  5.12313E+04 -2.02546E+04  4.75174E+04  2.03082E+04  1.70195E+04  4.55823E+04
 -1.64580E+04  3.50073E+04 -2.73791E+04  1.51733E+03 -1.12545E+04 -2.90496E+04  2.10335E+04 -3.62620E+04
  4.25517E+04 -1.00666E+04  3.78964E+04  2.48835E+04  1.93696E+04  4.93361E+04 -7.51443E+03  5.36152E+04
 -3.31728E+04  3.65040E+04 -4.52685E+04  1.04719E+04 -4.56507E+04 -1.77778E+04 -2.50155E+04 -4.14242E+04
  8.06001E+03 -4.05270E+04  3.32972E+04 -1.67327E+04  3.11175E+04  1.08911E+04  5.50374E+03  2.00573E+04
 -1.34191E+04  9.01787E+03 -1.17303E+04 -7.71882E+03  5.05858E+03 -1.17654E+04  1.78200E+04  5.43695E+03
  1.47798E+04  2.26848E+04 -5.09639E+03  2.66684E+04 -2.30310E+04  1.25493E+04 -3.00272E+04 -4.00054E+03
 -2.35647E+04 -1.85010E+04 -1.10109E+04 -2.28133E+04  3.69838E+03 -2.30090E+04  1.84652E+04 -2.11865E+04
  2.91536E+04 -1.41506E+04  3.63754E+04  4.24344E+03  2.54955E+04  2.22951E+04  4.72363E+03  3.92526E+04
 -1.88219E+04  3.23717E+04 -2.93877E+04  1.15844E+04 -2.13522E+04 -1.02348E+04 -4.32177E+03 -1.26694E+04
  1.13398E+03 -1.52430E+03 -6.18677E+03  7.68044E+03 -1.92692E+04  4.27320E+03 -1.89063E+04 -8.68518E+03
 -1.09072E+04 -2.17279E+04  6.03061E+03 -2.58718E+04  1.76399E+04 -1.82947E+04  2.09992E+04 -2.08696E+03
  1.26127E+04  1.49633E+04 -1.11140E+03  2.15754E+04 -1.52613E+04  1.29217E+04 -2.23466E+04 -4.48581E+03
 -1.56193E+04 -2.00459E+04 -1.43335E+03 -2.54257E+04  1.19384E+04 -2.19292E+04  2.17290E+04 -1.07028E+04
  2.00864E+04  8.51557E+02  1.46043E+04  5.26550E+03  8.55832E+03  1.51912E+03  1.09839E+04 -1.45609E+03
  2.02466E+04  3.04003E+03  2.26404E+04  1.67570E+04  1.60072E+04  3.42480E+04 -2.15388E+03  4.05365E+04
 -2.30742E+04  3.31474E+04 -3.75918E+04  1.72795E+04 -4.06850E+04 -3.03159E+03 -3.33283E+04 -2.34818E+04
 -1.32916E+04 -3.27859E+04  1.16110E+04 -2.91214E+04  2.50988E+04 -1.44270E+04  2.29647E+04  6.68270E+03
  7.58116E+03  1.70598E+04 -1.04988E+04  1.43449E+04 -1.85044E+04  2.83911E+03 -1.40733E+04 -1.12528E+04
 -3.68491E+02 -1.76749E+04  9.79066E+03 -1.24926E+04  1.18613E+04 -2.19913E+03  3.22136E+03  8.14795E+03
 -7.75135E+03  3.62787E+03 -7.84771E+03 -5.92731E+03 -1.79924E+03 -1.56065E+04  1.15347E+04 -1.82026E+04
  1.98500E+04 -1.01995E+04  2.21337E+04  3.02114E+03  2.04241E+04  1.65030E+04  9.30158E+03  2.56105E+04
 -5.57615E+03  2.75995E+04 -1.85611E+04  1.68880E+04 -2.03332E+04  3.74145E+03 -1.36989E+04 -4.63253E+03
 -5.87793E+03 -6.41534E+03 -2.13308E+02  3.72363E+02 -2.94174E+03  3.38939E+03 -6.41762E+03  4.64328E+03
 -1.23705E+04 -3.75063E+02 -1.36415E+04 -1.04372E+04 -5.31341E+03 -1.75713E+04  6.10656E+03 -1.40551E+04
  1.18146E+04 -6.32627E+03  8.57553E+03  4.57977E+03 -3.83492E+02  5.19372E+03 -7.05829E+03  1.86488E+02
 -6.45679E+03 -8.91917E+03 -7.88877E+02 -1.34606E+04  8.10102E+03 -1.49659E+04  1.76437E+04 -8.13283E+03
  2.06867E+04  2.45920E+03  1.46783E+04  1.30988E+04  2.41263E+03  1.68788E+04 -8.57787E+03  1.41425E+04
 -1.16047E+04  3.93251E+03 -5.90890E+03 -2.84584E+03  1.62761E+03 -4.05809E+03  6.99888E+03 -3.81658E+02
  6.65212E+03  6.53739E+03  9.75226E+02  1.09924E+04 -8.15374E+03  1.03624E+04 -1.43224E+04  2.95107E+03
 -9.62701E+03 -7.22694E+03  2.77639E+02 -1.14999E+04  7.43873E+03 -6.73178E+03  7.96543E+03  3.11538E+03
  1.59459E+03  8.13366E+03 -6.43003E+03  1.03520E+04 -1.19234E+04  4.52303E+03 -1.18116E+04 -3.84495E+03
 -6.82463E+03 -1.32866E+04  3.50806E+03 -1.60693E+04  1.33054E+04 -1.03343E+04  1.46383E+04  2.73254E+03
  9.41458E+03  1.20015E+04 -1.21508E+03  1.44173E+04 -9.77423E+03  7.28634E+03 -1.04830E+04 -6.99800E+02
 -9.29156E+03 -9.04859E+03 -1.59361E+03 -9.99857E+03  5.44298E+03 -8.26044E+03  5.99849E+03 -3.23562E+03
  4.10336E+03  1.64361E+03 -1.12667E+03  2.02825E+03 -3.97227E+02 -2.82067E+03  1.97862E+03 -6.87867E+03
  9.06967E+03 -3.37526E+03  1.34776E+04  1.14625E+03  1.30013E+04  9.23100E+03  8.76067E+03  1.82742E+04
 -4.64820E+03  2.01235E+04 -1.70826E+04  1.52846E+04 -2.22361E+04  2.61414E+03 -1.74146E+04 -7.44023E+03
 -9.11494E+03 -1.45610E+04  1.06784E+02 -1.23483E+04  4.92278E+03 -6.90613E+03  4.33245E+03 -4.56386E+03
  3.19830E+03 -2.53803E+03  3.84992E+03 -2.86017E+03  5.11188E+03 -3.11549E+03  7.22146E+03 -1.64677E+03
  9.28201E+03  2.06003E+03  4.97333E+03  7.82731E+03 -1.72015E+03  8.71141E+03 -1.01892E+04  7.27735E+03
 -1.21709E+04 -1.41547E+03 -7.60022E+03 -8.52394E+03 -1.15879E+03 -1.38662E+04  6.99847E+03 -1.33070E+04
  1.39184E+04 -7.67189E+03  1.68386E+04  2.34500E+03  1.15894E+04  1.17865E+04  1.67780E+03  1.53933E+04
 -6.44326E+03  1.27225E+04 -8.19756E+03  4.87099E+03 -5.35623E+03 -2.29165E+03 -2.64992E+03 -2.00057E+03
 -1.66480E+03 -5.19353E+01 -2.39055E+03  2.76460E+03 -5.49986E+03  2.92422E+03 -8.99318E+03 -1.63453E+03
 -6.02000E+03 -8.58553E+03  1.86737E+02 -1.26454E+04  7.36512E+03 -1.19241E+04  1.11131E+04 -3.18785E+03
  1.27568E+04  5.58080E+03  5.98020E+03  1.05123E+04 -2.42083E+03  1.19650E+04 -8.50206E+03  7.68379E+03
 -1.15096E+04  1.39831E+03 -9.47591E+03 -6.85285E+03 -3.24518E+02 -1.04023E+04  4.96132E+03 -8.17688E+03
  8.30777E+03 -2.39057E+03  4.79030E+03  2.34316E+03  2.05394E+03  4.33742E+03  4.00502E+02  2.02094E+03
  2.53309E+03  1.44123E+03  2.68383E+03  1.31364E+03  3.13293E+03  4.01117E+03  3.58215E+03  6.37965E+03
 -2.58687E+03  1.06145E+04 -8.63851E+03  9.91263E+03 -1.25230E+04  2.88397E+03 -1.30936E+04 -5.75252E+03
 -6.94130E+03 -1.31190E+04  1.58098E+03 -1.32946E+04  7.72180E+03 -8.23990E+03  9.80039E+03 -2.84527E+03
  7.81125E+03  5.05729E+03  2.39792E+03  7.82861E+03 -3.39852E+03  4.72915E+03 -5.34650E+03 -7.38302E+02
 -2.84144E+03 -5.40386E+03  3.14966E+03 -5.36679E+03  4.76364E+03 -2.10252E+03  5.40512E+03  1.43123E+03
  3.24460E+03  2.56272E+03  1.32014E+03  2.41611E+03 -2.13162E+02  1.52113E+03  1.54249E+03 -4.42451E+02
  1.79062E+03 -5.86396E+02  5.21336E+03  2.19075E+03  1.81230E+03  7.03046E+03 -1.03846E+03  8.57906E+03
 -5.70666E+03  5.80731E+03 -7.22679E+03  1.73998E+03 -6.73552E+03 -2.70966E+03 -1.91778E+03 -4.73556E+03
  1.48179E+03 -4.41628E+03  3.24559E+03 -2.62257E+03  2.37306E+03  2.87208E+03 -1.37095E+03  4.85517E+03
 -4.65187E+03  2.66366E+03 -6.08367E+03 -2.94357E+03 -3.34378E+03 -6.81293E+03  1.04446E+03 -7.43446E+03
  3.75988E+03 -4.04811E+03  4.42701E+03 -9.58027E+02  3.99480E+03  1.55494E+03  1.09380E+03  4.46058E+03
 -2.15907E+03  1.61300E+03 -3.50091E+03 -1.82808E+03  1.43540E+03 -5.12590E+03  5.63736E+03 -3.79389E+03
  7.18011E+03  5.94822E+02  7.20042E+03  5.55082E+03  2.89690E+03  7.69249E+03 -3.22216E+03  7.69554E+03
 -6.74438E+03  3.17353E+03 -6.28327E+03 -1.84752E+03 -3.63277E+03 -4.94589E+03  1.40313E+03 -5.02604E+03
  5.18304E+03 -2.51070E+03  4.04524E+03  1.98315E+03  1.45063E+03  4.07915E+03 -4.81731E+02  3.86755E+03
 -2.70462E+03  2.94831E+03 -2.04844E+03  4.34352E+02 -1.64555E+03  1.47810E+03 -1.22224E+03  1.78186E+03
 -1.19953E+03  3.35319E+03 -5.19626E+03  3.01381E+03 -8.27091E+03  5.72578E+01 -8.90135E+03 -5.79452E+03
 -4.78881E+03 -9.93426E+03  1.53811E+03 -1.26714E+04  7.72416E+03 -9.30821E+03  1.15796E+04 -3.21350E+03
  1.03061E+04  2.83117E+03  6.70823E+03  7.03187E+03  9.43478E+02  8.24527E+03 -2.95272E+03  6.45067E+03
 -4.99624E+03  2.48748E+03 -3.22844E+03 -2.00727E+03 -1.08158E+03 -5.37929E+01 -1.01259E+03 -5.35391E+02
 -1.54908E+03  7.72276E+02 -2.32701E+03  1.64991E+02 -2.80438E+02 -2.53636E+03 -2.38336E+02 -2.74188E+03
  3.13551E+03 -2.69003E+03  4.43279E+03  8.87169E+01  5.20825E+03  4.04842E+03  1.68631E+03  8.02495E+03
 -3.99420E+03  9.50729E+03 -8.21532E+03  5.19401E+03 -1.01699E+04 -9.77235E+02 -7.74887E+03 -6.07341E+03
 -2.93403E+03 -8.47785E+03  1.87679E+03 -8.32867E+03  4.87161E+03 -4.27260E+03  5.00289E+03  3.24259E+02
  3.05192E+03  3.07032E+03 -2.98038E+02  2.14136E+03 -1.90180E+03 -4.52811E+01  2.37905E+02 -2.02013E+03
  2.76621E+03 -6.11456E+02  3.38572E+03  1.17066E+03  1.52445E+03  2.81941E+03  3.30922E+02  4.96472E+03
 -3.27962E+03  3.03949E+03 -5.14113E+03  1.15318E+02 -5.39809E+03 -3.83526E+03 -9.67033E+02 -7.31664E+03
  3.06917E+03 -5.63592E+03  6.50535E+03 -2.04719E+03  6.42457E+03  6.88661E+02  3.71074E+03  4.73270E+03
  1.13909E+03  5.01463E+03 -1.80169E+03  4.11398E+03 -2.86329E+03  2.53081E+03 -2.84272E+03  6.18694E+01
 -1.91194E+03 -6.70830E+00 -1.21396E+03 -1.21092E+02 -3.51170E+03  1.14375E+03 -4.33420E+03 -1.27160E+03
 -4.49990E+03 -3.21425E+03 -1.77200E+03 -6.25281E+03  2.87116E+03 -5.83464E+03  5.79840E+03 -2.76288E+03
  5.35277E+03  1.26082E+03  2.75788E+03  4.06203E+03 -7.96708E+02  5.34236E+03 -4.38554E+03  2.71494E+03
