 $NMID ID='MM_0lb_SNR400_16hz_g60_69.RAW', FMTDAT='(8E13.5)'
 TRAMP=1., VOLUME=1. $END
  3.09738E+05  6.02089E+01  3.37703E+05  2.50438E+05  8.43921E+04  3.38127E+05 -1.32709E+05  2.51539E+05
 -1.90314E+05  8.35713E+04 -1.11723E+05 -3.30933E+04  1.24234E+03 -5.01241E+04  5.34757E+04  7.03380E+01
  3.48392E+04  5.24407E+04 -1.67708E+04  7.56008E+04 -6.06191E+04  6.33763E+04 -8.42698E+04  3.21866E+04
 -8.11621E+04 -1.16812E+04 -5.75226E+04 -5.08570E+04 -1.53428E+04 -6.89988E+04  2.76766E+04 -4.56412E+04
  4.03657E+04  3.72436E+03  1.68280E+04  4.78563E+04 -3.43870E+04  4.71298E+04 -6.73186E+04 -4.72144E+02
 -5.31366E+04 -5.69408E+04 -7.20211E+03 -7.67652E+04  3.36649E+04 -5.54393E+04  4.81011E+04 -1.71836E+04
  4.33004E+04  1.11787E+04  3.14816E+04  2.56692E+04  1.60556E+04  2.94667E+04 -5.58142E+03  2.75742E+04
 -2.23499E+04  1.19737E+04 -1.83049E+04 -5.06526E+03  5.65375E+03 -7.51773E+03  2.21621E+04  1.21436E+04
  7.37715E+03  3.47936E+04 -3.23167E+04  3.63208E+04 -6.38823E+04  2.00602E+03 -5.65486E+04 -4.35117E+04
 -1.27042E+04 -6.35453E+04  4.00532E+04 -4.47686E+04  5.82331E+04 -2.03939E+03  3.41957E+04  3.25152E+04
 -5.84890E+03  3.67307E+04 -3.05957E+04  1.60522E+04 -3.10581E+04 -4.24493E+03 -1.64400E+04 -1.06332E+04
 -8.30529E+03 -1.35966E+04 -5.07607E+02 -1.76764E+04  7.22107E+03 -2.26376E+04  1.56859E+04 -1.34892E+04
  1.11470E+04  4.93079E+03 -8.45247E+03  1.31669E+04 -2.14191E+04 -3.96671E+03 -8.26766E+03 -3.36647E+04
  2.30077E+04 -4.32784E+04  4.88019E+04 -1.95396E+04  4.43831E+04  1.94440E+04  1.62638E+04  4.44551E+04
 -1.65931E+04  3.33688E+04 -2.56816E+04  1.71444E+03 -9.52914E+03 -2.75598E+04  2.12879E+04 -3.40038E+04
  4.14716E+04 -8.60755E+03  3.53025E+04  2.36468E+04  1.80980E+04  4.62285E+04 -7.65023E+03  5.06544E+04
 -3.11709E+04  3.30493E+04 -4.23003E+04  9.50049E+03 -4.21807E+04 -1.65723E+04 -2.33152E+04 -3.82254E+04
  6.94470E+03 -3.73648E+04  3.12791E+04 -1.44255E+04  2.89088E+04  1.15190E+04  4.12528E+03  1.90980E+04
 -1.28863E+04  8.11030E+03 -1.04143E+04 -7.27664E+03  5.71961E+03 -1.02862E+04  1.75182E+04  6.14856E+03
  1.32825E+04  2.19947E+04 -5.89839E+03  2.54399E+04 -2.20422E+04  1.11016E+04 -2.77638E+04 -4.96848E+03
 -2.04491E+04 -1.77038E+04 -8.22559E+03 -2.05025E+04  4.01203E+03 -1.93839E+04  1.56492E+04 -1.84834E+04
  2.57375E+04 -1.30125E+04  3.20931E+04  2.36737E+03  2.33997E+04  1.95583E+04  3.70296E+03  3.59352E+04
 -1.79597E+04  3.01529E+04 -2.81405E+04  1.04521E+04 -2.05984E+04 -1.07364E+04 -4.57125E+03 -1.35747E+04
  1.83541E+03 -2.87317E+03 -4.62476E+03  5.76635E+03 -1.59259E+04  5.33843E+03 -1.60284E+04 -6.59363E+03
 -9.85065E+03 -1.84250E+04  5.14923E+03 -2.29635E+04  1.53141E+04 -1.63565E+04  1.75890E+04 -1.64228E+03
  1.08157E+04  1.33450E+04 -9.81163E+02  1.80088E+04 -1.26393E+04  1.00308E+04 -1.85142E+04 -4.34480E+03
 -1.34410E+04 -1.66836E+04 -1.46846E+03 -2.29280E+04  1.09404E+04 -1.85350E+04  1.83197E+04 -9.03918E+03
  1.77230E+04  3.90662E+02  1.31078E+04  4.06055E+03  6.90008E+03  8.32067E+02  9.28440E+03 -1.90865E+03
  1.70791E+04  2.38615E+03  1.87056E+04  1.39543E+04  1.26047E+04  2.94382E+04 -2.54087E+03  3.34689E+04
 -1.93575E+04  2.64784E+04 -3.09384E+04  1.33647E+04 -3.26930E+04 -2.16506E+03 -2.65447E+04 -1.78604E+04
 -1.20531E+04 -2.64008E+04  9.00939E+03 -2.48360E+04  2.09169E+04 -1.22472E+04  1.88380E+04  4.70770E+03
  7.04761E+03  1.34528E+04 -8.60164E+03  1.22426E+04 -1.58794E+04  3.28677E+03 -1.18506E+04 -9.11306E+03
 -5.78471E+02 -1.54086E+04  8.12845E+03 -1.14316E+04  9.50251E+03 -1.59977E+03  2.15279E+03  6.18278E+03
 -6.59352E+03  1.79556E+03 -5.95085E+03 -5.66509E+03 -2.10014E+02 -1.27561E+04  9.70653E+03 -1.33516E+04
  1.57878E+04 -6.82254E+03  1.64718E+04  3.47641E+03  1.44747E+04  1.20767E+04  6.64876E+03  1.93590E+04
 -3.10708E+03  2.13314E+04 -1.29817E+04  1.32760E+04 -1.53100E+04  3.02283E+03 -1.05651E+04 -3.48082E+03
 -5.27654E+03 -4.36983E+03 -8.84001E+02  1.51886E+03 -2.13983E+03  2.54046E+03 -5.09777E+03  4.59966E+03
 -1.00600E+04 -8.41546E+02 -1.05399E+04 -8.76838E+03 -4.02150E+03 -1.40654E+04  4.41375E+03 -1.03300E+04
  9.07075E+03 -4.58682E+03  6.47164E+03  3.19034E+03  2.06496E+02  3.41796E+03 -4.35890E+03 -5.41898E+02
 -4.84436E+03 -6.84715E+03 -1.16020E+03 -1.00673E+04  5.44932E+03 -1.06894E+04  1.32245E+04 -5.37797E+03
  1.54117E+04  1.44140E+03  1.06412E+04  8.87883E+03  2.17034E+03  1.14086E+04 -6.80398E+03  1.04214E+04
 -8.24003E+03  2.94804E+03 -4.29915E+03 -2.16942E+03  1.94901E+03 -3.01988E+03  6.15295E+03 -1.24168E+03
  5.21263E+03  4.29652E+03  1.23415E+03  8.09213E+03 -6.06672E+03  8.48778E+03 -1.05370E+04  1.71191E+03
 -6.61271E+03 -5.47942E+03  3.88658E+02 -8.98683E+03  5.32356E+03 -4.13573E+03  5.36415E+03  1.65839E+03
  4.42966E+02  5.33350E+03 -4.65393E+03  6.77715E+03 -7.20713E+03  2.83501E+03 -7.11752E+03 -2.45008E+03
 -5.01517E+03 -9.21579E+03  2.26650E+03 -1.04493E+04  8.93318E+03 -6.19654E+03  9.80355E+03  1.94409E+03
  5.69746E+03  7.08001E+03  3.71293E+02  9.45688E+03 -6.67731E+03  5.12986E+03 -6.50470E+03 -9.87747E+02
 -6.99711E+03 -6.95815E+03 -1.28919E+03 -7.18336E+03  3.99788E+03 -6.05137E+03  3.65813E+03 -3.21592E+03
  3.96010E+03  8.44377E+02 -2.49409E+02  9.44050E+02  2.29656E+02 -1.35614E+03  8.83216E+02 -3.28254E+03
  5.83231E+03 -2.29469E+03  8.37238E+03  7.15087E+02  8.42796E+03  4.98065E+03  6.76391E+03  1.09063E+04
 -1.68206E+03  1.28339E+04 -1.10897E+04  9.19007E+03 -1.40759E+04  2.69941E+03 -1.04845E+04 -4.26261E+03
 -5.65662E+03 -9.48039E+03 -4.20451E+02 -7.57143E+03  2.81043E+03 -3.72609E+03  2.92094E+03 -2.67377E+03
  2.24129E+03 -2.22279E+03  2.81227E+03 -2.29992E+03  4.00993E+03 -2.07245E+03  5.04274E+03 -5.52133E+00
  6.09070E+03  1.39614E+03  2.22687E+03  4.87006E+03 -1.78839E+03  4.81488E+03 -6.22206E+03  4.08382E+03
 -7.81250E+03 -1.65356E+03 -3.84437E+03 -5.03785E+03 -1.58403E+02 -8.12728E+03  4.42482E+03 -7.80602E+03
  8.03470E+03 -4.65873E+03  9.25897E+03  6.56763E+02  7.18121E+03  6.91781E+03  1.70263E+03  8.12764E+03
 -3.45182E+03  7.68562E+03 -4.86840E+03  2.79786E+03 -2.97945E+03 -1.07318E+03 -7.35166E+02 -1.23491E+03
 -7.36289E+02 -2.33242E+02 -1.39830E+03  1.62037E+03 -3.55644E+03  1.63994E+03 -5.38782E+03 -1.13606E+02
 -2.66043E+03 -4.87456E+03  5.99859E+02 -7.06771E+03  3.95177E+03 -6.20424E+03  5.52782E+03 -2.36971E+03
  6.31206E+03  3.08178E+03  2.96644E+03  5.61657E+03 -8.86206E+02  6.41789E+03 -4.46787E+03  3.64946E+03
 -6.03382E+03  2.31840E+02 -5.17282E+03 -3.80412E+03 -1.66404E+02 -5.01803E+03  2.85321E+03 -3.80809E+03
  4.33403E+03 -1.99901E+03  2.95214E+03  1.17001E+03  8.55714E+02  1.41599E+03  6.05641E+02  4.73924E+02
  1.79739E+03  2.18922E+02  1.25143E+03  1.44539E+03  1.64010E+03  2.49517E+03  2.44163E+03  2.87438E+03
 -1.37702E+03  4.43207E+03 -4.07845E+03  5.84756E+03 -6.16660E+03  1.38660E+03 -6.17864E+03 -1.37191E+03
 -2.81854E+03 -6.03778E+03  8.12426E+02 -6.93522E+03  3.34867E+03 -3.99531E+03  4.39506E+03 -1.09559E+03
  3.49292E+03  2.45851E+03  4.43666E+02  3.51013E+03 -1.25467E+03  2.00932E+03 -2.36582E+03 -4.28347E+02
 -7.07694E+02 -2.18635E+03  2.00354E+03 -2.54519E+03  2.09712E+03 -1.40759E+03  2.82103E+03  6.88888E+02
  1.27800E+03  2.01572E+02  9.14085E+02  2.84323E+02 -5.34663E+02  1.24288E+03  1.28307E+03 -3.05516E+02
  8.03530E+01 -5.07683E+02  2.64601E+03  1.10975E+03  1.03888E+03  2.73704E+03 -6.59109E+02  4.63871E+03
 -2.88884E+03  2.32316E+03 -3.18300E+03  2.53353E+02 -3.36141E+03 -1.47650E+03 -7.90572E+02 -2.07421E+03
  7.22548E+02 -1.95334E+03  9.11349E+02 -4.82451E+02  6.99038E+02  1.40896E+03 -7.03268E+02  1.40290E+03
 -2.83475E+03  1.37143E+03 -2.26952E+03 -1.41886E+03 -9.45451E+02 -3.43114E+03  5.76768E+02 -2.39705E+03
  9.37560E+02 -1.10815E+03  2.31075E+03 -4.49587E+02  1.03509E+03  1.33621E+02  3.14197E+02  1.61233E+03
 -5.93005E+02  1.46037E+02 -1.16039E+03 -7.83289E+02  6.68850E+02 -1.56405E+03  2.64634E+03 -1.32317E+03
  2.20525E+03  4.72625E+02  3.51983E+03  9.15699E+02  1.20559E+03  3.31060E+03 -3.70936E+02  3.02196E+03
 -1.88095E+03  1.06204E+03 -2.77330E+03 -6.41920E+02 -2.00863E+03 -2.47206E+03  1.00517E+03 -1.27700E+03
  1.94250E+03 -1.08460E+03  2.01633E+03  1.25748E+03  3.03630E+02  9.79401E+02  3.47147E+02  1.64919E+03
 -1.10847E+03  1.37642E+03 -6.18049E+02  1.09884E+02 -1.32662E+02 -2.07492E+01 -1.67553E+03  5.78268E+02
 -8.04081E+02  2.00451E+03 -3.15223E+03  1.31066E+03 -2.91704E+03  5.20978E+02 -3.86162E+03 -1.14873E+03
 -2.06229E+03 -4.56177E+03  9.89142E+02 -4.62230E+03  1.82022E+03 -3.44366E+03  4.15967E+03 -1.74759E+03
  3.51682E+03  3.53811E+02  2.34843E+03  2.49619E+03 -7.06867E+01  2.67962E+03 -1.32435E+03  1.60511E+03
 -1.43730E+03  1.20995E+03 -7.82968E+02 -5.37109E+02 -1.00920E+03  1.89977E+02 -7.11434E+02  3.20880E+01
 -1.66254E+03  2.73061E+02 -9.62088E+02  7.73927E+02  2.27724E+02 -9.91054E+02  7.95910E+01 -1.10388E+03
  1.39028E+03 -4.13739E+02  1.62232E+03  2.81975E+02  2.45283E+03  1.46327E+03 -2.92787E+02  1.89828E+03
 -1.65882E+03  3.16005E+03 -2.81451E+03  2.30316E+03 -2.60381E+03 -6.28467E+02 -2.05504E+03 -2.63442E+03
 -9.75834E+02 -2.35299E+03  6.75546E+02 -2.43291E+03  1.35076E+03 -1.15735E+03  1.93946E+03 -1.27873E+02
  9.87219E+02 -1.73552E+02  6.66462E+01  6.32960E+02 -3.98078E+02 -4.05687E+02  1.63370E+02 -7.39309E+02
  1.60323E+03 -2.77908E+02  6.59544E+02  1.03328E+03  6.80520E+02  9.60772E+02  6.11945E+02  1.06542E+03
 -8.83979E+02  9.08137E+02 -1.34299E+03  4.88232E+02 -1.50268E+03 -6.57954E+02  3.62535E+02 -2.61289E+03
  6.97821E+02 -1.87690E+03  4.24079E+02 -8.58431E+02  1.55889E+03 -1.93100E+02  1.21123E+03  1.19261E+03
  8.15031E+02  1.38657E+03 -6.95091E+02  1.76397E+03 -3.18552E+02  4.18598E+02 -6.75633E+02  1.52825E+02
 -7.08947E+02 -1.33899E+02 -7.63672E+02 -3.31781E+02 -1.27311E+03  4.89042E+01 -9.12789E+02 -1.33022E+02
 -1.39329E+03 -3.55386E+02 -5.99488E+02 -1.60779E+03  5.15654E+02 -2.55384E+03  9.42210E+02 -4.22566E+02
  9.25871E+02  2.02365E+02  2.88801E+02  6.76856E+02 -3.84536E+02  1.52270E+03 -8.90985E+02  1.14908E+03
