 $NMID ID='MM_0lb_SNR400_17hz_g55_65.RAW', FMTDAT='(8E13.5)'
 TRAMP=1., VOLUME=1. $END
  3.10065E+05  4.63841E+02  3.37433E+05  2.49850E+05  8.46437E+04  3.37918E+05 -1.32892E+05  2.51073E+05
 -1.90394E+05  8.30832E+04 -1.11237E+05 -3.34068E+04  9.95566E+02 -5.03953E+04  5.38253E+04 -3.82630E+02
  3.55680E+04  5.27272E+04 -1.68404E+04  7.54648E+04 -6.12769E+04  6.33436E+04 -8.38827E+04  3.15447E+04
 -8.04911E+04 -1.12121E+04 -5.65404E+04 -5.11811E+04 -1.48415E+04 -6.95254E+04  2.71186E+04 -4.50769E+04
  3.99840E+04  3.96623E+03  1.59006E+04  4.79961E+04 -3.42870E+04  4.68651E+04 -6.60851E+04 -7.47873E+02
 -5.32859E+04 -5.67787E+04 -6.49965E+03 -7.57447E+04  3.41989E+04 -5.46477E+04  4.72128E+04 -1.67101E+04
  4.30727E+04  1.07832E+04  3.16018E+04  2.51678E+04  1.58959E+04  2.87280E+04 -4.86877E+03  2.70313E+04
 -2.19181E+04  1.28701E+04 -1.81260E+04 -4.28548E+03  5.10341E+03 -7.27558E+03  2.16472E+04  1.18696E+04
  7.57616E+03  3.42158E+04 -3.14061E+04  3.48118E+04 -6.25673E+04  2.77872E+03 -5.67684E+04 -4.24746E+04
 -1.24128E+04 -6.20528E+04  3.89580E+04 -4.44722E+04  5.71248E+04 -2.33924E+03  3.36918E+04  3.12133E+04
 -6.40613E+03  3.45496E+04 -2.93490E+04  1.41199E+04 -2.98564E+04 -5.25934E+03 -1.63615E+04 -1.05816E+04
 -7.91338E+03 -1.26172E+04 -4.92689E+02 -1.72639E+04  7.30585E+03 -2.32533E+04  1.49895E+04 -1.36567E+04
  1.12028E+04  4.85102E+03 -7.98751E+03  1.34147E+04 -2.09243E+04 -3.50585E+03 -7.94234E+03 -3.25444E+04
  2.18195E+04 -4.23231E+04  4.71184E+04 -1.87314E+04  4.40554E+04  1.91827E+04  1.53135E+04  4.34491E+04
 -1.52902E+04  3.27997E+04 -2.49784E+04  1.19477E+03 -9.56913E+03 -2.68072E+04  2.09788E+04 -3.31519E+04
  3.95278E+04 -8.33290E+03  3.37067E+04  2.37191E+04  1.66045E+04  4.48185E+04 -8.12278E+03  4.78301E+04
 -3.03198E+04  3.22022E+04 -4.01976E+04  9.02475E+03 -4.04900E+04 -1.65320E+04 -2.25989E+04 -3.61400E+04
  6.89040E+03 -3.67204E+04  3.04201E+04 -1.35609E+04  2.81444E+04  1.10792E+04  3.52410E+03  1.86409E+04
 -1.32346E+04  8.23032E+03 -9.99004E+03 -8.09407E+03  5.82115E+03 -1.04163E+04  1.74822E+04  5.61823E+03
  1.29735E+04  2.17342E+04 -6.44020E+03  2.40962E+04 -2.19926E+04  1.02032E+04 -2.62465E+04 -5.49997E+03
 -1.87302E+04 -1.69898E+04 -7.06771E+03 -1.87096E+04  3.75173E+03 -1.76094E+04  1.45232E+04 -1.59898E+04
  2.34557E+04 -1.19249E+04  3.05946E+04  1.57600E+03  2.24272E+04  1.85304E+04  4.08832E+03  3.42169E+04
 -1.66124E+04  2.92280E+04 -2.68952E+04  9.78684E+03 -2.06234E+04 -1.05434E+04 -3.87334E+03 -1.36232E+04
  2.10825E+03 -3.68449E+03 -3.68817E+03  5.41774E+03 -1.45991E+04  5.58132E+03 -1.45940E+04 -6.19578E+03
 -9.24579E+03 -1.73740E+04  4.19095E+03 -2.15947E+04  1.38193E+04 -1.53952E+04  1.65659E+04 -1.39971E+03
  1.03545E+04  1.20472E+04 -9.68812E+02  1.72566E+04 -1.19211E+04  9.61413E+03 -1.79986E+04 -4.30791E+03
 -1.36158E+04 -1.64561E+04 -1.54715E+03 -2.11684E+04  9.71171E+03 -1.75087E+04  1.75919E+04 -8.56544E+03
  1.62701E+04  2.09279E+01  1.17268E+04  4.52829E+03  6.00198E+03  7.10515E+02  9.04277E+03 -1.54395E+03
  1.57386E+04  2.62353E+03  1.74332E+04  1.40255E+04  1.09895E+04  2.76080E+04 -3.01945E+03  3.04460E+04
 -1.80373E+04  2.37760E+04 -2.83580E+04  1.20023E+04 -2.89559E+04 -2.72734E+03 -2.39555E+04 -1.69857E+04
 -1.12844E+04 -2.39066E+04  8.13158E+03 -2.26721E+04  1.94899E+04 -1.18799E+04  1.76206E+04  4.36554E+03
  6.90618E+03  1.25287E+04 -8.36059E+03  1.18952E+04 -1.42062E+04  2.85119E+03 -1.11332E+04 -8.58633E+03
 -4.77708E+02 -1.41184E+04  7.08454E+03 -1.05721E+04  9.12851E+03 -1.48676E+03  1.23220E+03  5.83914E+03
 -6.69424E+03  1.79034E+03 -4.84368E+03 -4.98420E+03 -5.68379E+01 -1.18142E+04  9.06245E+03 -1.17289E+04
  1.45818E+04 -6.27812E+03  1.46457E+04  2.99996E+03  1.27409E+04  1.16995E+04  6.02293E+03  1.66345E+04
 -3.10554E+03  1.84862E+04 -1.18182E+04  1.16959E+04 -1.34470E+04  3.31969E+03 -9.70140E+03 -3.11530E+03
 -5.28599E+03 -4.27554E+03 -9.33945E+02  1.80994E+03 -2.09067E+03  1.90251E+03 -4.67502E+03  4.21973E+03
 -8.86594E+03 -7.62327E+02 -9.83245E+03 -7.99381E+03 -3.85691E+03 -1.27942E+04  4.37867E+03 -1.02972E+04
  8.25642E+03 -4.18272E+03  5.91702E+03  2.96164E+03  4.84413E+02  3.55247E+03 -3.88980E+03  4.41492E+02
 -3.77291E+03 -5.69383E+03 -2.32376E+02 -8.57995E+03  4.81235E+03 -9.76133E+03  1.18683E+04 -5.06880E+03
  1.40470E+04  1.16273E+03  1.02339E+04  7.50936E+03  1.57122E+03  1.05727E+04 -6.34095E+03  9.60553E+03
 -7.90552E+03  3.17417E+03 -4.09449E+03 -1.30346E+03  1.45135E+03 -2.35830E+03  5.34016E+03 -6.56611E+02
  4.90088E+03  3.58509E+03  1.46221E+03  7.07474E+03 -5.38048E+03  7.03772E+03 -9.47933E+03  1.98284E+03
 -5.81266E+03 -4.18322E+03  3.02614E+02 -7.83502E+03  4.88653E+03 -3.61738E+03  4.20019E+03  1.28650E+03
  5.61428E+02  4.55124E+03 -4.68324E+03  5.81023E+03 -6.19514E+03  2.80882E+03 -6.14524E+03 -1.44932E+03
 -3.80216E+03 -7.57952E+03  2.01752E+03 -8.51242E+03  7.81010E+03 -5.89862E+03  8.29335E+03  1.24942E+03
  5.54456E+03  6.78168E+03  8.21605E+01  8.45178E+03 -5.34455E+03  4.54568E+03 -6.40303E+03 -6.78221E+02
 -6.39305E+03 -6.03944E+03 -1.59431E+03 -6.06226E+03  3.09215E+03 -5.51809E+03  3.51895E+03 -3.11626E+03
  3.41433E+03  3.26875E+02 -3.15470E+02  1.29997E+03  9.18665E+02 -8.14147E+02  3.10684E+02 -2.40205E+03
  4.81928E+03 -1.71607E+03  7.37142E+03  1.20652E+03  6.89022E+03  4.02079E+03  6.05225E+03  8.97794E+03
 -1.88594E+03  9.93965E+03 -8.63246E+03  8.17093E+03 -1.25322E+04  1.98331E+03 -9.97929E+03 -2.96106E+03
 -5.34211E+03 -7.89595E+03 -7.28921E+02 -6.72647E+03  2.43713E+03 -3.07047E+03  1.37220E+03 -2.76956E+03
  1.34900E+03 -1.49693E+03  2.29573E+03 -2.02160E+03  3.93788E+03 -1.62006E+03  4.70711E+03  1.04499E+02
  5.21052E+03  8.83486E+02  1.53906E+03  3.92048E+03 -1.81696E+03  4.17488E+03 -4.98035E+03  3.11929E+03
 -6.09523E+03 -8.38228E+02 -2.44016E+03 -3.89353E+03  5.34409E+02 -6.06684E+03  3.88511E+03 -6.92547E+03
  6.25795E+03 -3.12221E+03  8.39920E+03  2.02914E+02  5.91620E+03  5.94359E+03  1.83926E+03  7.55811E+03
 -2.62147E+03  6.94321E+03 -4.11015E+03  2.28948E+03 -2.68209E+03 -1.22107E+03 -5.55284E+02 -9.42445E+02
 -7.37599E+02 -1.64629E+02 -4.82348E+02  2.04555E+03 -2.44950E+03  6.80056E+02 -4.39001E+03 -5.56107E+02
 -2.09549E+03 -4.17655E+03  5.51703E+02 -6.23654E+03  3.70269E+03 -5.05812E+03  5.10835E+03 -1.64640E+03
  4.87741E+03  2.34219E+03  1.67563E+03  4.06448E+03 -1.48873E+03  5.93413E+03 -4.01631E+03  3.19787E+03
 -5.25938E+03  4.87840E+02 -4.16532E+03 -3.39816E+03 -3.44158E+02 -4.46792E+03  1.82658E+03 -3.54741E+03
  3.51048E+03 -1.79842E+03  2.38754E+03  6.72153E+02  7.12492E+02  2.15003E+03  1.09551E+03  7.63646E+02
  2.12166E+03  4.62568E+02  1.61533E+03  1.48868E+03  1.82410E+03  2.41037E+03  1.80312E+03  2.31788E+03
 -1.51011E+03  3.92213E+03 -3.36719E+03  5.45165E+03 -4.71571E+03  1.49111E+03 -5.71899E+03 -1.10343E+03
 -2.52654E+03 -4.66805E+03  8.95394E+02 -5.88000E+03  2.64042E+03 -3.47152E+03  4.18113E+03 -1.51910E+03
  3.38465E+03  2.20839E+03  3.25823E+02  3.30817E+03 -1.00180E+03  1.89174E+03 -1.80953E+03 -5.53214E+02
 -6.49488E+02 -2.19723E+03  1.54055E+03 -2.47954E+03  1.59525E+03 -7.65359E+02  2.38069E+03  5.99545E+02
  1.21671E+03  1.42121E+03  1.05837E+03  1.07590E+02 -2.61217E+02  7.85620E+02  1.84220E+03 -2.28365E+02
  5.29218E+02 -5.27233E+02  2.51333E+03  4.77195E+02  5.23785E+02  3.51028E+03 -6.15435E+02  3.41788E+03
 -2.27311E+03  1.47011E+03 -2.48357E+03  3.36045E+02 -2.87620E+03 -7.94265E+02 -1.94846E+02 -1.38516E+03
 -1.70108E+02 -1.86571E+03  1.33479E+03 -1.21837E+03  1.16280E+03  7.94331E+02 -3.05048E+02  1.49864E+03
 -1.93012E+03  8.36256E+02 -1.67944E+03 -1.97751E+03 -1.03228E+03 -2.32271E+03  8.26009E+02 -2.20765E+03
  1.04006E+03 -7.86723E+02  1.46331E+03  4.97669E+02  1.96409E+03  7.55370E+01  5.13450E+02  1.77523E+03
 -5.99173E+02  3.68464E+02 -9.32178E+02 -5.57231E+02  1.17214E+03 -1.14043E+03  1.79235E+03 -1.33049E+03
  2.31028E+03  1.96895E+02  2.23737E+03  1.18414E+03  1.27500E+03  2.22875E+03 -9.21175E+02  2.34337E+03
 -1.99564E+03  7.90655E+02 -2.23386E+03 -3.82646E+02 -8.60830E+02 -1.33817E+03  7.51316E+02 -9.60422E+02
  2.47763E+03 -6.95449E+02  8.76205E+02  1.01613E+03  9.75051E+02  1.39346E+03  3.67924E+02  1.39207E+03
 -2.67391E+02  8.86908E+02 -8.71055E+02  1.81318E+02 -2.94441E+02  7.65162E+02 -1.03157E+03  4.57845E+02
 -7.36387E+02  1.63711E+03 -2.32070E+03  7.52894E+02 -2.40890E+03  1.27272E+02 -2.33454E+03 -1.60514E+03
 -1.49944E+03 -3.20108E+03  4.80473E+02 -3.45757E+03  1.06925E+03 -3.34073E+03  2.99085E+03 -1.42205E+03
  2.89655E+03 -2.01315E+02  1.69227E+03  2.55070E+03 -8.29877E+02  2.48310E+03 -1.18699E+03  1.83743E+03
 -1.98926E+03  8.43501E+02 -9.93862E+02 -3.87230E+02 -5.34246E+02  4.31515E+01 -2.93477E+02 -6.61508E+01
 -8.86203E+02  1.00358E+02 -1.23434E+03 -1.29970E+02  9.62565E+01 -9.41848E+02 -5.90962E+02 -5.63694E+02
  1.51165E+03 -6.05888E+02  7.32886E+02  2.62947E+02  1.42128E+03  1.17648E+03 -3.50235E+02  1.81778E+03
 -1.36142E+03  3.13486E+03 -2.17061E+03  1.76257E+03 -2.03906E+03 -9.12927E+01 -2.11397E+03 -1.32462E+03
 -5.21157E+02 -1.94660E+03  7.92690E+02 -1.71679E+03  1.05919E+03 -8.20016E+02  1.33649E+03  4.77082E+02
  4.38700E+02  7.43117E+02 -2.27889E+02  6.96859E+02  6.89349E+01  8.14377E+00  1.23384E+02 -4.21479E+01
  8.24208E+02 -6.18777E+01  1.10032E+03  1.13536E+03  1.26873E+02  4.01942E+02  4.51628E+02  5.18144E+02
 -2.38530E+02  6.47483E+02 -1.83576E+03  5.14029E+02 -1.46790E+03 -7.93559E+02 -4.36190E+02 -1.20640E+03
  4.09739E+02 -1.47776E+03  1.03932E+03 -1.18517E+02  1.31874E+03 -5.54608E+02  6.37774E+02  1.45526E+03
  7.30594E+02  8.18564E+02 -3.34775E+02  6.74999E+02 -6.69376E+02  1.02203E+03 -1.14522E+03  4.28066E+02
 -6.82741E+02 -2.65120E+02 -6.94622E+02 -5.53911E+01 -4.96692E+02  5.92062E+02 -5.37927E+02 -7.62558E+02
 -1.27587E+03 -1.93089E+02 -1.55255E+02 -1.31185E+03  6.83678E+02 -1.50943E+03  1.21195E+03 -3.27417E+02
  4.47278E+02 -4.07571E+02  2.43339E+01  3.46223E+02  3.24838E+02  1.56908E+03 -1.45298E+03  1.28592E+03
