 $NMID ID='MM_0lb_SNR400_16hz_g40_63.RAW', FMTDAT='(8E13.5)'
 TRAMP=1., VOLUME=1. $END
  3.09193E+05  9.82673E+02  3.37819E+05  2.50962E+05  8.40996E+04  3.37752E+05 -1.32434E+05  2.50507E+05
 -1.89575E+05  8.21278E+04 -1.11470E+05 -3.23194E+04  1.13200E+03 -5.02431E+04  5.40373E+04  4.04726E+01
  3.51974E+04  5.25510E+04 -1.66652E+04  7.50707E+04 -6.06365E+04  6.29219E+04 -8.33155E+04  3.17828E+04
 -7.98750E+04 -1.13496E+04 -5.65963E+04 -5.07598E+04 -1.54865E+04 -6.87372E+04  2.72407E+04 -4.53600E+04
  3.94759E+04  3.67864E+03  1.62902E+04  4.75402E+04 -3.32767E+04  4.64023E+04 -6.57842E+04  1.58146E+01
 -5.27581E+04 -5.57915E+04 -6.48848E+03 -7.57505E+04  3.36165E+04 -5.38447E+04  4.70550E+04 -1.70419E+04
  4.19750E+04  1.09888E+04  3.06971E+04  2.46463E+04  1.61027E+04  2.85054E+04 -4.71704E+03  2.68046E+04
 -2.24643E+04  1.24310E+04 -1.91797E+04 -4.82279E+03  4.69112E+03 -7.51383E+03  2.19195E+04  1.13097E+04
  7.35600E+03  3.30224E+04 -3.06677E+04  3.41385E+04 -6.20945E+04  2.55471E+03 -5.55613E+04 -4.15607E+04
 -1.23899E+04 -6.16114E+04  3.85754E+04 -4.41416E+04  5.60289E+04 -2.26480E+03  3.28097E+04  3.11051E+04
 -6.38368E+03  3.45563E+04 -2.92012E+04  1.45678E+04 -2.85713E+04 -4.91073E+03 -1.49577E+04 -1.03785E+04
 -7.21600E+03 -1.10944E+04 -1.30912E+03 -1.68809E+04  7.20728E+03 -2.26080E+04  1.53841E+04 -1.34319E+04
  1.22656E+04  4.50658E+03 -6.80862E+03  1.32924E+04 -2.00392E+04 -2.49954E+03 -8.39106E+03 -3.23133E+04
  2.14054E+04 -4.13395E+04  4.56825E+04 -1.83264E+04  4.33188E+04  1.89487E+04  1.51182E+04  4.25299E+04
 -1.54140E+04  3.21751E+04 -2.41075E+04  1.54827E+03 -8.80344E+03 -2.64670E+04  1.98192E+04 -3.19927E+04
  3.92156E+04 -7.39404E+03  3.26832E+04  2.32241E+04  1.61236E+04  4.37743E+04 -7.60161E+03  4.71542E+04
 -2.93894E+04  3.14790E+04 -3.82102E+04  8.69196E+03 -3.97275E+04 -1.56303E+04 -2.19349E+04 -3.52951E+04
  7.08782E+03 -3.55184E+04  3.02453E+04 -1.38300E+04  2.83003E+04  1.07932E+04  2.69748E+03  1.81808E+04
 -1.33564E+04  8.06821E+03 -9.47121E+03 -7.91249E+03  5.89757E+03 -1.06257E+04  1.77971E+04  6.19341E+03
  1.26450E+04  2.13078E+04 -6.64157E+03  2.39586E+04 -2.14693E+04  1.01039E+04 -2.59633E+04 -5.79687E+03
 -1.85149E+04 -1.70747E+04 -6.57781E+03 -1.83897E+04  3.99392E+03 -1.59065E+04  1.31676E+04 -1.57531E+04
  2.29255E+04 -1.23652E+04  2.91153E+04  1.78483E+03  2.21337E+04  1.80526E+04  4.08312E+03  3.39064E+04
 -1.66244E+04  2.85717E+04 -2.68916E+04  9.62278E+03 -1.98240E+04 -1.01071E+04 -4.21166E+03 -1.35320E+04
  2.46640E+03 -4.08359E+03 -3.45771E+03  5.82488E+03 -1.42315E+04  5.03729E+03 -1.46845E+04 -5.04517E+03
 -9.80136E+03 -1.67509E+04  4.81792E+03 -2.05985E+04  1.32866E+04 -1.50648E+04  1.54818E+04 -1.61550E+03
  1.03859E+04  1.16317E+04 -4.44656E+02  1.63092E+04 -1.08325E+04  9.44804E+03 -1.64178E+04 -4.04746E+03
 -1.29350E+04 -1.57336E+04 -1.55766E+03 -2.04781E+04  9.32813E+03 -1.64641E+04  1.70266E+04 -8.05367E+03
  1.54400E+04  2.59932E+02  1.13818E+04  4.58983E+03  5.75045E+03  9.16843E+02  8.02863E+03 -1.69148E+03
  1.49398E+04  2.69133E+03  1.63492E+04  1.39846E+04  1.04635E+04  2.66599E+04 -2.56248E+03  2.93276E+04
 -1.71697E+04  2.29585E+04 -2.73278E+04  1.06382E+04 -2.77487E+04 -2.22300E+03 -2.36772E+04 -1.60793E+04
 -1.07794E+04 -2.33820E+04  7.39341E+03 -2.11043E+04  1.88599E+04 -1.12024E+04  1.70860E+04  4.57940E+03
  6.72123E+03  1.19091E+04 -8.07020E+03  1.14991E+04 -1.42709E+04  2.66559E+03 -1.07981E+04 -8.81195E+03
 -4.58838E+02 -1.35774E+04  7.40632E+03 -1.06407E+04  9.02161E+03 -1.07327E+03  1.56562E+03  4.97473E+03
 -6.29927E+03  1.25554E+03 -4.63312E+03 -5.24020E+03 -2.36993E+02 -1.11802E+04  8.71283E+03 -1.15974E+04
  1.40943E+04 -5.68553E+03  1.47859E+04  3.08018E+03  1.26327E+04  1.07571E+04  6.28706E+03  1.64208E+04
 -2.06656E+03  1.83958E+04 -1.11084E+04  1.18610E+04 -1.27654E+04  3.47017E+03 -9.72944E+03 -2.92722E+03
 -5.54410E+03 -4.33106E+03 -7.85027E+02  1.03567E+03 -2.21494E+03  2.01417E+03 -3.84476E+03  4.09783E+03
 -9.02970E+03 -4.71717E+02 -9.15160E+03 -7.37352E+03 -4.29542E+03 -1.25883E+04  3.25693E+03 -9.71592E+03
  7.88694E+03 -3.70660E+03  5.50369E+03  2.73866E+03  7.37351E+02  3.62927E+03 -4.39033E+03 -1.39377E+02
 -4.25311E+03 -6.50350E+03 -7.68612E+02 -8.03665E+03  4.56522E+03 -9.01648E+03  1.10902E+04 -4.55525E+03
  1.32001E+04  1.51861E+03  9.89815E+03  7.82894E+03  1.62363E+03  1.03809E+04 -5.88687E+03  9.47320E+03
 -7.60115E+03  3.03717E+03 -3.60874E+03 -1.71309E+03  1.28308E+03 -2.59006E+03  5.58967E+03 -1.06332E+03
  4.79139E+03  3.92518E+03  9.68570E+02  7.43880E+03 -4.64258E+03  7.68356E+03 -8.53791E+03  1.95649E+03
 -5.54170E+03 -4.80539E+03 -1.10460E+02 -7.68646E+03  4.63708E+03 -4.24192E+03  3.88924E+03  8.96001E+02
  6.48171E+02  4.63857E+03 -4.71546E+03  5.62883E+03 -5.99044E+03  2.88169E+03 -5.68936E+03 -2.39432E+03
 -4.03511E+03 -7.46431E+03  1.18053E+03 -7.94690E+03  7.72173E+03 -5.50099E+03  8.09297E+03  1.15031E+03
  5.93475E+03  6.43130E+03 -5.92788E+02  8.31374E+03 -5.69771E+03  4.38219E+03 -6.71205E+03 -1.43521E+02
 -6.67231E+03 -5.65224E+03 -1.56696E+03 -6.32508E+03  3.34055E+03 -5.19770E+03  3.19238E+03 -2.77028E+03
  3.05157E+03  5.27337E+02  2.28489E+02  1.13034E+03  3.72378E+02 -1.37747E+03  3.36319E+02 -2.58088E+03
  3.95845E+03 -1.72664E+03  7.14214E+03  6.63386E+02  7.19680E+03  4.97194E+03  5.92939E+03  9.11843E+03
 -1.47325E+03  1.10707E+04 -9.64904E+03  8.05489E+03 -1.18755E+04  8.16830E+02 -9.42784E+03 -3.30945E+03
 -5.49766E+03 -8.56560E+03 -7.37901E+01 -6.44822E+03  2.60520E+03 -2.92208E+03  2.52360E+03 -2.48877E+03
  1.22560E+03 -2.03614E+03  2.52380E+03 -3.43632E+03  4.04617E+03 -1.04752E+03  4.11376E+03  5.84396E+02
  5.32779E+03  1.28461E+03  1.61412E+03  4.47162E+03 -1.80164E+03  3.93716E+03 -5.47507E+03  3.02048E+03
 -6.41792E+03 -8.72294E+02 -2.48703E+03 -4.53395E+03  7.38460E+02 -6.67064E+03  4.22511E+03 -6.99038E+03
  6.33823E+03 -4.03868E+03  9.16242E+03  7.52625E+02  6.19692E+03  5.58175E+03  1.47391E+03  7.92381E+03
 -2.73977E+03  7.28449E+03 -4.64943E+03  2.95937E+03 -2.86704E+03 -1.33877E+03 -9.33121E+02 -1.39829E+03
 -4.47208E+02  2.80111E+02 -1.25754E+03  1.98351E+03 -2.98247E+03  1.34106E+03 -5.04469E+03 -9.93971E+02
 -2.16343E+03 -4.85695E+03  3.58981E+01 -6.39906E+03  3.41096E+03 -5.92431E+03  5.02549E+03 -1.83064E+03
  5.76272E+03  2.97603E+03  2.28934E+03  5.21843E+03 -9.71636E+02  6.48801E+03 -4.01687E+03  3.26992E+03
 -5.49493E+03  3.80485E+02 -4.37585E+03 -3.29098E+03 -6.28994E+01 -4.16443E+03  2.28562E+03 -3.38596E+03
  3.92397E+03 -1.50375E+03  2.54645E+03  1.03474E+03  9.24926E+02  1.71046E+03  7.01192E+02  7.57910E+02
  1.91060E+03  9.14398E+02  1.57491E+03  1.34533E+03  1.45305E+03  1.98812E+03  2.47852E+03  2.70662E+03
 -1.03449E+03  4.75639E+03 -3.53641E+03  5.48396E+03 -4.73875E+03  2.01949E+03 -5.96624E+03 -1.49054E+03
 -3.09352E+03 -4.99538E+03  1.16715E+03 -6.66458E+03  2.70258E+03 -3.60452E+03  5.07074E+03 -1.19848E+03
  3.25582E+03  2.30191E+03  3.77537E+02  3.21425E+03 -1.40089E+03  2.04489E+03 -1.91595E+03 -6.73067E+02
 -1.06670E+03 -2.09353E+03  1.64247E+03 -1.83689E+03  2.15798E+03 -1.50353E+03  2.41186E+03  7.07401E+02
  1.36386E+03  5.45518E+02  1.43093E+03  7.89214E+02  9.18003E+01  1.37539E+03  1.20174E+03 -5.37991E+02
  5.32154E+02 -9.41476E+01  2.17953E+03  8.67717E+02  1.02209E+03  2.94190E+03 -3.01838E+02  3.95503E+03
 -2.27057E+03  1.50444E+03 -3.06783E+03  4.27351E+02 -2.72648E+03 -1.12233E+03 -5.35577E+02 -1.60204E+03
  5.75164E+02 -1.73150E+03  1.53737E+03 -1.31196E+03  1.31713E+03  1.09653E+03 -9.94402E+02  1.60447E+03
 -1.79680E+03  1.11133E+03 -1.01098E+03 -1.63475E+03 -1.14017E+03 -3.18027E+03  3.63368E+02 -2.48299E+03
  6.44225E+02 -1.10897E+03  1.70597E+03  6.48729E+02  1.73110E+03  6.97171E+02  1.04879E+01  1.96125E+03
 -6.79050E+02  9.32713E+01 -1.05972E+03 -5.88464E+02  8.02885E+02 -1.57312E+03  2.36236E+03 -1.52572E+03
  1.97079E+03  1.20966E+02  3.55422E+03  9.69704E+02  1.09722E+03  2.66076E+03 -4.31252E+02  2.82248E+03
 -2.14679E+03  1.03607E+03 -2.25121E+03 -3.12140E+02 -1.40227E+03 -2.31618E+03  2.50606E+02 -1.37085E+03
  2.14384E+03 -7.20187E+02  1.01982E+03  8.95170E+02  4.06238E+02  1.41731E+03  3.67559E+02  1.02792E+03
 -5.63162E+02  1.36391E+03 -5.45123E+02  5.21793E+02 -3.98237E+02  6.27979E+02 -4.63891E+02  8.44327E+02
 -1.02242E+03  1.41065E+03 -2.20771E+03  8.55356E+02 -2.71736E+03  5.97539E+02 -3.06214E+03 -1.66735E+03
 -1.58572E+03 -3.47295E+03  7.79522E+02 -4.17116E+03  2.27130E+03 -3.98181E+03  4.54447E+03 -1.73252E+03
  3.79998E+03 -3.46351E+02  1.76259E+03  2.10247E+03  2.29796E+02  3.23606E+03 -1.11648E+03  1.90973E+03
 -1.95881E+03  6.29238E+02 -1.09023E+03  1.25510E+02 -3.96054E+02  1.23181E+02 -8.43729E+02  1.14746E+02
 -4.56163E+02  3.33000E+02 -1.25568E+03 -4.55689E+01  7.58408E+02 -4.42963E+02 -4.38654E+02 -1.60336E+03
  1.81583E+03 -1.30924E+03  4.04070E+02  7.74322E+02  1.72466E+03  1.54348E+03  1.99164E+02  2.81961E+03
 -1.40659E+03  3.25250E+03 -2.71679E+03  1.75520E+03 -2.89983E+03  1.09074E+02 -2.01821E+03 -1.67297E+03
 -1.77857E+03 -2.00209E+03  6.14919E+01 -1.70564E+03  1.26244E+03 -1.15461E+03  7.80879E+02  2.83972E+02
  1.70859E+03 -1.11377E+02  2.64271E+02  7.38252E+02 -4.38879E+02  6.41955E+02 -3.61782E+02 -3.33623E+02
  1.01373E+03  1.24546E+02  7.11245E+02  7.15915E+02  1.03581E+02  7.63795E+02  5.92526E+02  7.11616E+02
 -1.28332E+03  1.24821E+03 -7.32694E+02 -2.00813E+02 -1.75624E+03 -4.60241E+02  4.75268E+02 -1.34821E+03
  4.85496E+02 -1.66080E+03  1.77417E+03  1.50227E+02  2.04973E+03 -4.78229E+02  1.19261E+03  1.02734E+03
  8.21202E+02  1.49636E+03 -8.24163E+02  1.27473E+03 -1.01730E+03  7.38066E+02 -3.46476E+02  1.75079E+01
 -3.73254E+01 -6.55155E+02 -2.04633E+02  8.14211E+02 -9.65634E+02  4.38417E+01 -1.50178E+03 -3.85002E+02
 -1.26859E+03 -2.20285E+02 -4.19675E+02 -2.01749E+03  1.07693E+03 -1.32431E+03  1.83744E+03 -1.03341E+03
  1.97562E+03  5.17548E+02  2.44029E+02  1.23673E+03 -9.15255E+01  1.58323E+03 -9.17478E+02  7.99922E+02
