 $NMID ID='MM_0lb_SNR400_17hz_g55_55.RAW', FMTDAT='(8E13.5)'
 TRAMP=1., VOLUME=1. $END
  3.09461E+05  1.53740E+02  3.37267E+05  2.51120E+05  8.42885E+04  3.38031E+05 -1.32360E+05  2.50205E+05
 -1.89529E+05  8.34612E+04 -1.11107E+05 -3.28536E+04  9.84475E+02 -5.02242E+04  5.38287E+04 -6.61262E+01
  3.53016E+04  5.32748E+04 -1.65669E+04  7.46231E+04 -6.04485E+04  6.29026E+04 -8.40308E+04  3.18654E+04
 -8.00382E+04 -1.14574E+04 -5.71377E+04 -5.06924E+04 -1.47254E+04 -6.86470E+04  2.74716E+04 -4.55103E+04
  3.98712E+04  3.71483E+03  1.59263E+04  4.72643E+04 -3.41977E+04  4.59699E+04 -6.69354E+04 -9.34632E+02
 -5.29532E+04 -5.70788E+04 -6.85631E+03 -7.65232E+04  3.36942E+04 -5.47610E+04  4.76831E+04 -1.69852E+04
  4.26991E+04  1.08012E+04  3.15369E+04  2.49964E+04  1.61565E+04  2.89563E+04 -5.47173E+03  2.71431E+04
 -2.19897E+04  1.25007E+04 -1.87548E+04 -4.85385E+03  5.52683E+03 -7.41666E+03  2.21600E+04  1.13443E+04
  7.22297E+03  3.42559E+04 -3.16015E+04  3.48436E+04 -6.26419E+04  1.73712E+03 -5.58784E+04 -4.21386E+04
 -1.21630E+04 -6.24024E+04  3.95873E+04 -4.45664E+04  5.69949E+04 -2.24722E+03  3.32990E+04  3.12599E+04
 -5.35455E+03  3.47787E+04 -2.94564E+04  1.51234E+04 -2.90395E+04 -5.19247E+03 -1.58586E+04 -1.07749E+04
 -8.44585E+03 -1.20711E+04 -7.57618E+02 -1.74053E+04  6.95602E+03 -2.26887E+04  1.52710E+04 -1.36553E+04
  1.18589E+04  4.66978E+03 -7.60636E+03  1.30498E+04 -2.06334E+04 -3.80237E+03 -8.35229E+03 -3.20512E+04
  2.19891E+04 -4.22324E+04  4.71532E+04 -1.87976E+04  4.38788E+04  1.89924E+04  1.51192E+04  4.35167E+04
 -1.54312E+04  3.22335E+04 -2.46751E+04  1.37140E+03 -9.05230E+03 -2.67541E+04  2.07169E+04 -3.30948E+04
  3.91501E+04 -8.24785E+03  3.42365E+04  2.28016E+04  1.67499E+04  4.48219E+04 -8.52767E+03  4.81056E+04
 -3.07580E+04  3.24169E+04 -4.09210E+04  9.67577E+03 -4.05897E+04 -1.60414E+04 -2.19076E+04 -3.63132E+04
  7.27544E+03 -3.64916E+04  3.05470E+04 -1.43386E+04  2.79663E+04  1.04107E+04  2.72943E+03  1.89467E+04
 -1.32259E+04  7.60960E+03 -1.08708E+04 -7.09174E+03  5.70626E+03 -1.05196E+04  1.80005E+04  6.99976E+03
  1.29431E+04  2.21199E+04 -5.90540E+03  2.44162E+04 -2.24931E+04  1.08459E+04 -2.66053E+04 -5.23471E+03
 -1.91111E+04 -1.66390E+04 -6.54246E+03 -1.87347E+04  3.69732E+03 -1.77018E+04  1.46244E+04 -1.68682E+04
  2.44971E+04 -1.20405E+04  3.06731E+04  1.77672E+03  2.31515E+04  1.83343E+04  3.78355E+03  3.43534E+04
 -1.69026E+04  2.87603E+04 -2.69798E+04  1.00110E+04 -1.94487E+04 -1.02096E+04 -4.00552E+03 -1.38584E+04
  2.66652E+03 -3.41150E+03 -4.28849E+03  6.11906E+03 -1.44513E+04  5.14255E+03 -1.58248E+04 -6.20742E+03
 -9.20641E+03 -1.73411E+04  4.65960E+03 -2.15791E+04  1.42201E+04 -1.52819E+04  1.66025E+04 -1.59040E+03
  1.02441E+04  1.24103E+04 -6.26585E+02  1.71713E+04 -1.13292E+04  1.01024E+04 -1.71931E+04 -4.19807E+03
 -1.33127E+04 -1.56033E+04 -1.29110E+03 -2.07095E+04  1.01538E+04 -1.77429E+04  1.78316E+04 -8.25756E+03
  1.60792E+04  6.71426E+02  1.17634E+04  4.32045E+03  6.08251E+03  9.61230E+02  8.31018E+03 -1.09873E+03
  1.55995E+04  2.21130E+03  1.70175E+04  1.39975E+04  1.09286E+04  2.78499E+04 -2.61488E+03  3.01698E+04
 -1.82777E+04  2.38396E+04 -2.74455E+04  1.19266E+04 -2.83840E+04 -2.53439E+03 -2.48893E+04 -1.64800E+04
 -1.07558E+04 -2.32274E+04  8.38706E+03 -2.23649E+04  1.93343E+04 -1.17029E+04  1.79313E+04  4.16251E+03
  6.98469E+03  1.24878E+04 -7.85863E+03  1.08250E+04 -1.47899E+04  1.99007E+03 -1.11230E+04 -9.49891E+03
 -4.66574E+02 -1.39887E+04  7.34683E+03 -1.09075E+04  9.02134E+03 -1.29193E+03  1.93281E+03  5.54364E+03
 -6.11265E+03  2.02864E+03 -4.54423E+03 -4.77193E+03 -5.12158E+01 -1.17533E+04  8.51361E+03 -1.18748E+04
  1.46188E+04 -5.86672E+03  1.47767E+04  2.60527E+03  1.33049E+04  1.16311E+04  6.11616E+03  1.67708E+04
 -2.53721E+03  1.84855E+04 -1.15726E+04  1.19983E+04 -1.39178E+04  2.90274E+03 -9.43335E+03 -2.81451E+03
 -4.78052E+03 -3.49377E+03 -1.07010E+03  1.08590E+03 -1.97594E+03  2.02845E+03 -4.32083E+03  3.62669E+03
 -9.12701E+03 -2.91861E+02 -1.03362E+04 -8.06280E+03 -4.33215E+03 -1.27256E+04  4.27973E+03 -9.87770E+03
  8.29619E+03 -4.81216E+03  6.36881E+03  1.97555E+03  4.32932E+02  3.00345E+03 -4.44612E+03 -2.67094E+02
 -4.19395E+03 -5.93106E+03 -6.03818E+02 -8.43116E+03  4.88833E+03 -9.42222E+03  1.15269E+04 -4.84434E+03
  1.34402E+04  4.49744E+02  1.04224E+04  7.36905E+03  2.22538E+03  1.01680E+04 -5.30905E+03  9.50865E+03
 -7.89223E+03  3.18661E+03 -4.14431E+03 -1.26154E+03  1.38037E+03 -2.29289E+03  5.60127E+03 -1.37999E+03
  5.01264E+03  3.49460E+03  1.20612E+03  6.86762E+03 -5.51214E+03  7.60466E+03 -8.79854E+03  1.57115E+03
 -5.69328E+03 -4.39205E+03  4.58698E+02 -7.91846E+03  5.27361E+03 -3.52563E+03  5.04741E+03  1.03107E+03
  3.29425E+02  4.22761E+03 -5.10983E+03  6.27573E+03 -6.46937E+03  2.89379E+03 -6.63307E+03 -1.75820E+03
 -3.70717E+03 -7.09220E+03  2.02519E+03 -8.96194E+03  7.16057E+03 -5.19395E+03  7.76837E+03  1.41922E+03
  5.24986E+03  6.91808E+03 -6.86221E+02  8.79713E+03 -5.92820E+03  5.22597E+03 -6.74392E+03 -6.51952E+02
 -6.94090E+03 -5.89641E+03 -1.42599E+03 -6.12984E+03  3.40627E+03 -5.48135E+03  3.36722E+03 -2.76742E+03
  3.24870E+03 -4.67251E+02 -1.78190E+01  1.05053E+03  9.39058E+02 -1.02218E+03  4.10875E+02 -2.57183E+03
  5.26996E+03 -1.33373E+03  7.01478E+03  8.82819E+02  6.38670E+03  4.02058E+03  6.10374E+03  9.46855E+03
 -1.73701E+03  1.01599E+04 -9.04360E+03  8.30865E+03 -1.22400E+04  1.59760E+03 -1.01943E+04 -3.23017E+03
 -5.19280E+03 -8.33060E+03 -1.25063E+02 -6.36293E+03  2.22469E+03 -2.71012E+03  1.77457E+03 -3.49922E+03
  1.93315E+03 -1.00214E+03  2.66014E+03 -2.21835E+03  4.11110E+03 -1.95533E+03  3.58097E+03  2.53784E+02
  4.91220E+03  9.43426E+02  1.73450E+03  4.74113E+03 -1.44912E+03  3.58711E+03 -5.64203E+03  3.60586E+03
 -6.00185E+03 -1.38915E+03 -3.19123E+03 -3.90437E+03  6.14466E+02 -6.03937E+03  3.62171E+03 -6.82210E+03
  6.27378E+03 -3.59749E+03  8.38020E+03  4.20396E+02  5.28885E+03  5.48740E+03  1.13335E+03  7.25984E+03
 -3.03782E+03  6.78166E+03 -4.49591E+03  2.59999E+03 -2.68418E+03 -1.34673E+03 -4.86684E+02 -5.53325E+02
 -3.81065E+02  3.54564E+02 -7.71919E+02  1.88507E+03 -2.98923E+03  1.13797E+03 -5.18879E+03 -6.78310E+02
 -1.82017E+03 -4.60228E+03  1.25976E+03 -5.46852E+03  2.91351E+03 -5.20522E+03  4.85304E+03 -1.80672E+03
  5.43714E+03  2.69157E+03  2.07538E+03  4.11286E+03 -1.31953E+03  5.76773E+03 -3.90850E+03  3.85082E+03
 -4.40963E+03  2.03427E+02 -4.00776E+03 -2.61945E+03 -9.84250E+01 -4.44693E+03  1.54089E+03 -3.38823E+03
  3.59765E+03 -1.09997E+03  2.31904E+03  1.00138E+03  3.28143E+02  2.36379E+03  1.10498E+03  7.19343E+02
  1.51430E+03  4.72658E+02  1.68093E+03  1.29865E+03  1.59242E+03  2.15675E+03  1.78876E+03  1.95932E+03
 -1.61909E+03  4.26307E+03 -3.26612E+03  4.79340E+03 -3.82421E+03  1.24276E+03 -5.64524E+03 -9.28254E+02
 -2.41463E+03 -5.04930E+03  4.29133E+02 -6.09129E+03  2.27281E+03 -3.92194E+03  3.82098E+03 -8.25890E+02
  3.44629E+03  1.81211E+03  1.03218E+03  3.16892E+03 -1.05371E+03  1.58848E+03 -1.32692E+03  3.96989E+02
 -1.20078E+03 -2.25966E+03  9.34474E+02 -1.75436E+03  1.62434E+03 -9.57534E+02  4.34802E+02  9.19203E+02
  8.14867E+02  4.07342E+02  5.37454E+02  9.63462E+01 -9.63772E+02  9.96399E+02  1.78921E+03  1.09890E+01
  9.90928E+02 -2.28857E+01  2.41693E+03  4.66656E+02  6.77662E+02  2.67339E+03 -6.92482E+02  3.72157E+03
 -2.81691E+03  1.51360E+03 -2.80862E+03  5.32765E+02 -3.19175E+03 -9.13074E+01 -2.57516E+02 -1.39961E+03
  5.96852E+02 -1.44355E+03  6.88355E+02 -6.78496E+02  1.23642E+03  1.05731E+03 -9.31695E+02  1.55217E+03
 -2.44236E+03  1.24502E+03 -1.36506E+03 -1.22811E+03 -1.03718E+03 -2.44239E+03  7.31445E+00 -1.92694E+03
  5.15392E+02 -1.08145E+03  8.09588E+02  2.34115E+02  1.90617E+03  3.35918E+02 -1.16560E+02  1.38040E+03
 -5.83877E+02 -2.48671E+02 -1.31485E+03 -8.96892E+02  6.69815E+02 -1.38972E+03  1.56740E+03 -1.55468E+03
  2.37986E+03  2.15066E+02  3.52955E+03  5.65143E+02  1.24510E+03  1.97937E+03 -2.95544E+02  2.59967E+03
 -2.08583E+03  6.93632E+02 -2.07296E+03 -3.14019E+02 -9.27363E+02 -2.08091E+03  1.14260E+03 -7.33701E+02
  1.57305E+03 -1.28466E+03  7.80734E+02  1.09334E+03  3.94551E+02  1.38954E+03  5.63940E+02  1.27785E+03
 -5.34658E+02  1.26820E+03 -9.55636E+02 -6.43357E+01 -6.00498E+00  7.17958E+02 -9.56288E+02  8.15121E+02
 -3.98160E+02  1.43359E+03 -2.54944E+03  8.36897E+02 -2.40402E+03 -2.74327E+02 -2.64033E+03 -1.23676E+03
 -1.86889E+03 -3.13674E+03  4.90180E+02 -3.05107E+03  1.80830E+03 -3.04895E+03  4.11040E+03 -1.28513E+03
  3.24691E+03  3.89625E+02  2.30391E+03  2.20707E+03 -4.87343E+02  1.65451E+03 -1.47581E+03  2.09596E+03
 -1.78693E+03  4.09032E+02 -8.97821E+02 -2.52256E+02 -2.72954E+02  5.36806E+02 -3.09203E+02  3.27722E+02
 -1.00706E+03  1.63456E+02 -6.77669E+02  2.93013E+02 -1.14352E+02 -7.23489E+02 -7.96095E+02 -1.14799E+03
  1.07730E+03 -5.29122E+02  3.35598E+02  2.53298E+02  1.61185E+03  1.38730E+03 -3.83747E+01  1.86782E+03
 -7.67922E+02  2.91789E+03 -1.79356E+03  1.29246E+03 -2.42680E+03 -8.22730E+01 -1.38332E+03 -1.42236E+03
 -8.67112E+02 -2.46653E+03 -2.44512E+02 -1.98358E+03  9.85777E+02 -4.35881E+02  8.40688E+02 -1.34851E+02
  9.48800E+02  5.18465E+02  3.73760E+02  1.08651E+03 -9.32521E+02 -2.16518E+02  1.56208E+02 -2.65312E+02
  5.04510E+02  5.32594E+02  9.21495E+02  5.85468E+02  3.36254E+02  4.82203E+02  6.20884E+02  7.07234E+02
 -2.64767E+02  1.69143E+03 -1.27601E+03  8.87228E+01 -7.01182E+02 -1.20986E+02 -5.19929E+02 -1.33072E+03
  8.17487E+02 -4.92642E+02  9.43643E+02 -1.95705E+02  8.68079E+02 -3.25950E+02  5.80075E+02  1.40416E+03
  4.08769E+02  1.19440E+03 -2.40317E+02  7.04185E+02 -6.93018E+02  2.47258E+02 -8.94761E+02 -8.36106E+01
  1.18789E+01 -1.37664E+02 -8.32552E+02  5.76677E+02 -7.62187E+02  2.43246E+02 -2.72376E+02 -4.01989E+02
 -1.18648E+03 -7.58417E+02  2.23490E+02 -5.18738E+02  5.63002E+02 -2.12829E+03  1.33804E+03 -4.05161E+01
  9.67449E+02  4.47035E+02  2.00406E+01  4.31352E+02  5.62392E+02  1.02966E+03  6.20876E+01  9.69561E+02
