 $NMID ID='MM_0lb_SNR400_16hz_g55_60.RAW', FMTDAT='(8E13.5)'
 TRAMP=1., VOLUME=1. $END
  3.09561E+05  1.06402E+03  3.37163E+05  2.50704E+05  8.45285E+04  3.37134E+05 -1.32746E+05  2.51080E+05
 -1.90174E+05  8.28879E+04 -1.11250E+05 -3.28280E+04  1.26718E+03 -5.08971E+04  5.41418E+04 -1.63371E+02
  3.55003E+04  5.22285E+04 -1.71845E+04  7.49340E+04 -6.11579E+04  6.32581E+04 -8.43556E+04  3.18934E+04
 -8.13757E+04 -1.17044E+04 -5.70023E+04 -5.11669E+04 -1.50060E+04 -6.96922E+04  2.71454E+04 -4.55331E+04
  3.99599E+04  3.99310E+03  1.64259E+04  4.74135E+04 -3.38292E+04  4.67052E+04 -6.63950E+04 -4.72293E+02
 -5.33537E+04 -5.64907E+04 -6.76747E+03 -7.70277E+04  3.38104E+04 -5.46459E+04  4.78316E+04 -1.69922E+04
  4.29678E+04  1.05337E+04  3.14061E+04  2.56164E+04  1.49550E+04  2.91455E+04 -5.72428E+03  2.72414E+04
 -2.25381E+04  1.20350E+04 -1.94571E+04 -4.98295E+03  4.84308E+03 -7.60840E+03  2.17702E+04  1.24826E+04
  7.96531E+03  3.49266E+04 -3.18441E+04  3.47571E+04 -6.27905E+04  2.28206E+03 -5.67327E+04 -4.24201E+04
 -1.18679E+04 -6.24552E+04  3.97680E+04 -4.43422E+04  5.76370E+04 -2.32181E+03  3.35746E+04  3.18388E+04
 -6.22726E+03  3.54869E+04 -2.95476E+04  1.57581E+04 -2.97732E+04 -4.37333E+03 -1.60980E+04 -1.06984E+04
 -8.17255E+03 -1.31470E+04 -7.41274E+02 -1.76580E+04  7.20735E+03 -2.31323E+04  1.56949E+04 -1.32191E+04
  1.21232E+04  5.81719E+03 -8.13017E+03  1.21665E+04 -2.11478E+04 -4.02195E+03 -8.34221E+03 -3.27467E+04
  2.23620E+04 -4.29565E+04  4.75852E+04 -1.93088E+04  4.47387E+04  1.89516E+04  1.51573E+04  4.35478E+04
 -1.63751E+04  3.29125E+04 -2.49688E+04  1.76456E+03 -9.05422E+03 -2.73137E+04  2.14484E+04 -3.35123E+04
  4.07058E+04 -8.37243E+03  3.42635E+04  2.32303E+04  1.79051E+04  4.57240E+04 -7.45215E+03  4.93835E+04
 -3.10206E+04  3.30060E+04 -4.12089E+04  9.72866E+03 -4.17736E+04 -1.66985E+04 -2.32313E+04 -3.71240E+04
  7.35606E+03 -3.65613E+04  3.11117E+04 -1.46259E+04  2.93358E+04  1.05461E+04  3.83869E+03  1.92264E+04
 -1.33762E+04  8.28929E+03 -9.60146E+03 -7.56035E+03  5.36822E+03 -1.08014E+04  1.77857E+04  6.58162E+03
  1.35744E+04  2.12059E+04 -6.41854E+03  2.42490E+04 -2.17283E+04  1.10068E+04 -2.75874E+04 -5.27741E+03
 -1.93341E+04 -1.69473E+04 -7.51865E+03 -1.97229E+04  3.87682E+03 -1.79702E+04  1.51936E+04 -1.72744E+04
  2.53543E+04 -1.22821E+04  3.16423E+04  2.59914E+03  2.29415E+04  1.93911E+04  4.32323E+03  3.50228E+04
 -1.76775E+04  2.94851E+04 -2.74619E+04  9.67731E+03 -2.08194E+04 -1.00738E+04 -4.32201E+03 -1.35981E+04
  1.58652E+03 -3.36321E+03 -4.30574E+03  6.77758E+03 -1.53431E+04  5.16082E+03 -1.56721E+04 -6.37208E+03
 -9.44024E+03 -1.80824E+04  4.52801E+03 -2.22093E+04  1.43140E+04 -1.61057E+04  1.74062E+04 -5.96691E+02
  1.08350E+04  1.23345E+04 -7.26403E+02  1.87221E+04 -1.26280E+04  1.05776E+04 -1.80529E+04 -4.28266E+03
 -1.33611E+04 -1.62134E+04 -2.10257E+03 -2.15089E+04  1.01977E+04 -1.75533E+04  1.83782E+04 -9.47023E+03
  1.65730E+04 -3.77370E+02  1.23171E+04  4.13598E+03  6.53100E+03  9.39525E+02  8.86344E+03 -1.85356E+03
  1.62232E+04  2.79900E+03  1.80065E+04  1.43104E+04  1.18343E+04  2.86813E+04 -3.12870E+03  3.25340E+04
 -1.87169E+04  2.55083E+04 -2.96451E+04  1.30572E+04 -3.06781E+04 -2.80996E+03 -2.57922E+04 -1.82746E+04
 -1.15534E+04 -2.55935E+04  7.90115E+03 -2.37927E+04  2.00924E+04 -1.19250E+04  1.83969E+04  5.01227E+03
  6.97190E+03  1.31992E+04 -8.47368E+03  1.20076E+04 -1.58236E+04  2.34426E+03 -1.10548E+04 -9.03237E+03
 -2.61896E+01 -1.47807E+04  7.89035E+03 -1.09872E+04  9.23951E+03 -1.14247E+03  2.40339E+03  6.44834E+03
 -6.80495E+03  1.93879E+03 -5.24288E+03 -5.47525E+03 -1.77134E+02 -1.28377E+04  9.10148E+03 -1.31211E+04
  1.53502E+04 -6.17619E+03  1.61167E+04  2.92155E+03  1.37124E+04  1.27860E+04  6.31053E+03  1.83898E+04
 -3.10712E+03  2.09838E+04 -1.26085E+04  1.27812E+04 -1.44616E+04  3.40149E+03 -1.01393E+04 -3.05624E+03
 -5.40704E+03 -4.27804E+03 -3.07005E+02  7.39563E+02 -1.64241E+03  2.85608E+03 -5.09688E+03  4.31241E+03
 -1.03900E+04 -6.90290E+02 -1.08010E+04 -9.04521E+03 -4.38059E+03 -1.37900E+04  4.21120E+03 -1.01840E+04
  8.74745E+03 -3.85076E+03  7.10071E+03  2.53073E+03 -1.57968E+02  4.23041E+03 -4.93835E+03  1.68599E+02
 -4.63988E+03 -6.31179E+03 -9.06411E+02 -9.33013E+03  5.34462E+03 -9.80886E+03  1.20237E+04 -5.39978E+03
  1.50571E+04  1.13248E+03  1.04309E+04  8.39009E+03  1.85987E+03  1.12487E+04 -6.36900E+03  9.91415E+03
 -8.28561E+03  3.12363E+03 -3.83676E+03 -1.69458E+03  1.48477E+03 -2.99606E+03  6.00190E+03 -1.24565E+03
  4.82718E+03  4.33029E+03  1.10121E+03  7.59885E+03 -5.87089E+03  7.85996E+03 -9.75310E+03  1.81867E+03
 -6.37497E+03 -5.50254E+03 -1.57627E+02 -8.96899E+03  4.81861E+03 -4.11126E+03  4.91160E+03  1.85740E+03
  8.05090E+02  4.97399E+03 -4.67071E+03  6.44427E+03 -7.58536E+03  2.65167E+03 -6.91364E+03 -1.89762E+03
 -4.13266E+03 -8.14131E+03  1.87822E+03 -9.84332E+03  8.52601E+03 -6.39318E+03  9.00477E+03  1.56962E+03
  5.65008E+03  6.90101E+03  2.41912E+02  8.62580E+03 -6.67720E+03  5.12471E+03 -7.30702E+03 -1.00412E+03
 -7.45116E+03 -6.06515E+03 -1.66487E+03 -5.97153E+03  3.35685E+03 -5.83261E+03  3.82835E+03 -2.85065E+03
  3.59884E+03  8.60058E+02 -1.23432E+02  1.36731E+03  1.56037E+02 -1.09218E+03  4.49941E+02 -2.79800E+03
  5.46294E+03 -1.52318E+03  7.49645E+03  7.84609E+02  7.97093E+03  5.07242E+03  6.78671E+03  1.06184E+04
 -1.81597E+03  1.22236E+04 -1.05069E+04  8.88929E+03 -1.32099E+04  1.66297E+03 -1.09309E+04 -4.50202E+03
 -5.74215E+03 -8.93941E+03 -2.65922E+02 -7.49176E+03  3.70312E+03 -2.96700E+03  2.07095E+03 -2.70050E+03
  1.85835E+03 -1.23032E+03  2.25213E+03 -2.66948E+03  4.81383E+03 -2.42516E+03  4.34972E+03  3.62975E+02
  5.28286E+03  1.60549E+03  2.17299E+03  5.04867E+03 -1.52195E+03  4.30930E+03 -6.75707E+03  4.40468E+03
 -7.13274E+03 -5.83707E+02 -3.02790E+03 -4.64420E+03 -9.66498E+01 -7.85835E+03  4.59321E+03 -7.22912E+03
  6.92345E+03 -4.46544E+03  9.36644E+03  1.35513E+02  6.71793E+03  6.04679E+03  1.03853E+03  8.14761E+03
 -2.80035E+03  7.56154E+03 -4.67379E+03  2.29546E+03 -2.87424E+03 -7.30555E+02 -4.75106E+02 -6.39714E+02
 -7.26300E+01  3.12222E+02 -1.30440E+03  2.14747E+03 -3.37818E+03  1.76911E+03 -5.62992E+03 -6.14035E+02
 -2.07286E+03 -5.68965E+03  8.36738E+02 -6.88068E+03  3.86277E+03 -6.04037E+03  6.34078E+03 -2.11553E+03
  5.61923E+03  3.41758E+03  2.24621E+03  5.14281E+03 -1.49896E+03  6.10884E+03 -4.12965E+03  4.13845E+03
 -6.30265E+03  7.70380E+02 -4.86639E+03 -3.68762E+03 -5.43956E+02 -5.32584E+03  2.40331E+03 -3.95754E+03
  4.46202E+03 -1.57840E+03  2.11580E+03  5.55301E+02  5.80244E+02  2.07220E+03  5.17236E+02  4.89667E+02
  2.02000E+03  9.37357E+02  1.68770E+03  1.08625E+03  1.59191E+03  2.90878E+03  1.20572E+03  2.77598E+03
 -7.64270E+02  4.44388E+03 -3.67339E+03  5.19003E+03 -5.00694E+03  1.23789E+03 -6.09120E+03 -1.80047E+03
 -2.82335E+03 -6.13916E+03  8.49064E+02 -7.08131E+03  3.36513E+03 -4.19125E+03  4.69629E+03 -6.48132E+02
  3.39451E+03  2.66218E+03  9.76099E+02  3.18633E+03 -1.55417E+03  1.94500E+03 -1.04570E+03 -2.51103E+02
 -8.89364E+02 -2.39191E+03  1.43480E+03 -2.62452E+03  1.81630E+03 -1.38958E+03  2.48683E+03  4.55482E+02
  1.04778E+03  9.66388E+02  6.27501E+02  1.66294E+01 -3.02997E+02  9.59153E+02  1.38644E+03 -9.13522E+00
  3.06138E+02 -8.01829E+02  2.63591E+03  5.23419E+02  6.96395E+02  3.42375E+03 -8.37787E+02  4.20519E+03
 -2.33877E+03  1.95815E+03 -3.12716E+03  5.59031E+02 -3.47737E+03 -1.34447E+03 -2.23593E+02 -1.77011E+03
  4.91674E+02 -1.82711E+03  1.44357E+03 -7.81780E+02  1.32504E+03  1.47049E+03 -6.97973E+02  1.26957E+03
 -2.29469E+03  1.15531E+03 -1.93358E+03 -1.64605E+03 -6.95542E+02 -3.09096E+03  2.36439E+02 -2.50347E+03
  1.08977E+03 -8.77095E+02  1.54012E+03  3.40695E+02  1.66781E+03 -1.72192E+02  5.96655E+01  1.99558E+03
 -3.00992E+02 -1.59067E+02 -1.11764E+03 -1.02120E+03  1.38903E+03 -1.72765E+03  2.69842E+03 -1.44174E+03
  3.10079E+03  1.95347E+02  3.60725E+03  1.60021E+03  9.04995E+02  3.33443E+03 -5.39935E+02  3.09866E+03
 -3.06431E+03  3.49224E+02 -2.09641E+03 -1.42267E+01 -1.28779E+03 -1.98236E+03  6.59708E+02 -1.81932E+03
  2.31217E+03 -9.07591E+02  1.03406E+03  7.13630E+02  4.72563E+02  2.21783E+03 -2.56243E+02  1.60475E+03
 -4.95132E+02  1.55935E+03 -5.87431E+02  5.75401E+02  3.18754E+02  4.05705E+02 -1.29790E+03  1.12767E+03
 -8.99923E+02  9.95170E+02 -3.22232E+03  1.46558E+03 -2.35631E+03 -3.76984E+01 -3.48414E+03 -2.39083E+03
 -1.74280E+03 -3.29782E+03  1.52705E+02 -4.01193E+03  1.63502E+03 -4.17750E+03  4.15163E+03 -1.39701E+03
  3.58803E+03  4.67585E+02  2.07733E+03  2.64433E+03 -6.11571E+02  2.81577E+03 -4.49892E+02  2.19976E+03
 -1.64658E+03  1.15916E+03 -1.13662E+03  1.40240E+01 -5.89890E+02 -1.59676E+02 -7.30446E+02 -6.74326E+02
 -6.45213E+02 -2.08569E+02 -5.19378E+02 -2.23942E+01  2.21760E+02 -6.95099E+02 -6.22749E+02 -1.42997E+03
  1.69158E+03 -6.51881E+02  1.28717E+03  3.09524E+02  1.86410E+03  2.17393E+03 -5.43456E+02  2.57995E+03
 -1.88977E+03  3.49664E+03 -2.73843E+03  1.87339E+03 -3.01752E+03 -6.78319E+02 -2.07154E+03 -2.20295E+03
 -2.11475E+03 -2.35015E+03 -3.40830E+01 -2.42845E+03  1.93413E+03 -1.30706E+03  1.23734E+03  1.10030E+02
  7.19788E+02  7.39567E+02  5.99890E+01  6.24932E+02 -2.85679E+02  1.27988E+02  3.77394E+02 -5.54878E+02
  5.08493E+02 -1.16868E+02  6.83665E+02  5.27497E+02  2.08316E+02  6.88422E+02  4.36003E+02  6.88821E+02
 -6.33463E+02  1.16865E+03 -1.13726E+03  1.09170E+02 -1.43339E+03 -1.52425E+03 -7.64597E+02 -2.04281E+03
  5.53622E+02 -1.75901E+03  1.52803E+03 -5.90023E+02  1.49249E+03 -6.79672E+01  6.82474E+02  1.25280E+03
  1.23285E+02  1.38938E+03 -9.34556E+01  1.12963E+03 -1.16709E+03  5.45183E+02 -7.76104E+02  5.93944E+02
 -2.12353E+02 -1.16080E+02 -2.50512E+02 -3.08938E+01 -8.82992E+02 -3.13810E+02 -1.49559E+03 -1.53000E+02
 -1.52327E+03  9.44244E+01 -9.37336E+02 -1.61511E+03  1.27926E+03 -1.94937E+03  1.20389E+03 -1.13580E+03
  1.67686E+03  1.37791E+02  2.99647E+02  3.22440E+02  2.60306E+02  1.60464E+03 -1.14521E+03  1.18978E+03
