 $NMID ID='MM_0lb_SNR400_11hz_g40_79.RAW', FMTDAT='(8E13.5)'
 TRAMP=1., VOLUME=1. $END
  3.10934E+05  5.68686E+02  3.37388E+05  2.50551E+05  8.50419E+04  3.37030E+05 -1.33048E+05  2.51072E+05
 -1.90484E+05  8.38581E+04 -1.11820E+05 -3.25983E+04  1.31342E+03 -5.03175E+04  5.34042E+04 -4.09699E+02
  3.56208E+04  5.34247E+04 -1.70463E+04  7.53433E+04 -6.00939E+04  6.43839E+04 -8.42655E+04  3.15883E+04
 -8.14290E+04 -1.18856E+04 -5.79168E+04 -5.09547E+04 -1.47098E+04 -6.98022E+04  2.72729E+04 -4.61822E+04
  3.99308E+04  3.55465E+03  1.65199E+04  4.82914E+04 -3.43638E+04  4.77402E+04 -6.70266E+04 -2.83160E+02
 -5.37502E+04 -5.78301E+04 -6.51227E+03 -7.79492E+04  3.42039E+04 -5.61556E+04  4.85030E+04 -1.75652E+04
  4.41889E+04  1.13866E+04  3.22822E+04  2.65023E+04  1.63860E+04  2.97926E+04 -5.37459E+03  2.66151E+04
 -2.14691E+04  1.23550E+04 -1.81836E+04 -4.69180E+03  5.92825E+03 -7.76964E+03  2.30863E+04  1.31896E+04
  6.73232E+03  3.63441E+04 -3.24562E+04  3.62095E+04 -6.40399E+04  2.34455E+03 -5.74362E+04 -4.30530E+04
 -1.25628E+04 -6.37972E+04  4.05682E+04 -4.63769E+04  5.93096E+04 -2.25320E+03  3.47205E+04  3.35236E+04
 -5.44922E+03  3.74963E+04 -3.12286E+04  1.74230E+04 -3.16767E+04 -4.13723E+03 -1.81279E+04 -1.10038E+04
 -8.84862E+03 -1.35880E+04 -6.13691E+01 -1.81958E+04  7.86589E+03 -2.35741E+04  1.48226E+04 -1.36863E+04
  1.16073E+04  5.40550E+03 -9.07266E+03  1.33767E+04 -2.12939E+04 -5.63771E+03 -8.56462E+03 -3.56829E+04
  2.34666E+04 -4.43884E+04  4.95960E+04 -1.96136E+04  4.61514E+04  2.01490E+04  1.68495E+04  4.57700E+04
 -1.67663E+04  3.40478E+04 -2.56554E+04  1.97400E+03 -1.05989E+04 -2.86456E+04  2.06501E+04 -3.45465E+04
  4.24540E+04 -9.55233E+03  3.72757E+04  2.42552E+04  1.90807E+04  4.85623E+04 -7.96985E+03  5.22479E+04
 -3.27130E+04  3.59876E+04 -4.40658E+04  9.96210E+03 -4.49282E+04 -1.82020E+04 -2.49712E+04 -3.94626E+04
  7.51073E+03 -3.95011E+04  3.21995E+04 -1.50294E+04  3.00973E+04  1.13617E+04  4.56111E+03  1.99947E+04
 -1.35273E+04  8.85899E+03 -1.05763E+04 -7.33107E+03  5.35360E+03 -1.07449E+04  1.84803E+04  6.90769E+03
  1.40126E+04  2.21860E+04 -5.25207E+03  2.63062E+04 -2.25966E+04  1.21306E+04 -2.87849E+04 -4.32235E+03
 -2.23931E+04 -1.80109E+04 -9.48849E+03 -2.20528E+04  4.44938E+03 -2.21481E+04  1.83242E+04 -2.08854E+04
  2.89205E+04 -1.39255E+04  3.50840E+04  3.91770E+03  2.45266E+04  2.19726E+04  4.19843E+03  3.82986E+04
 -1.82673E+04  3.10807E+04 -2.88307E+04  1.12493E+04 -2.12137E+04 -1.06102E+04 -4.89743E+03 -1.37120E+04
  8.69308E+02 -2.16190E+03 -5.74063E+03  7.41911E+03 -1.75368E+04  5.46321E+03 -1.87434E+04 -7.91025E+03
 -1.04482E+04 -2.05196E+04  5.05408E+03 -2.45928E+04  1.71029E+04 -1.78923E+04  1.96545E+04 -1.94554E+03
  1.32287E+04  1.44053E+04 -1.54698E+03  2.14063E+04 -1.38156E+04  1.15768E+04 -2.08881E+04 -4.31282E+03
 -1.53224E+04 -1.92510E+04 -2.10015E+03 -2.49157E+04  1.12082E+04 -2.07195E+04  2.13661E+04 -1.07660E+04
  1.98203E+04  2.25882E+02  1.47876E+04  4.36103E+03  6.81269E+03  1.39843E+03  1.06176E+04 -2.37794E+03
  1.97146E+04  2.56001E+03  2.24353E+04  1.59028E+04  1.48583E+04  3.31867E+04 -2.51534E+03  3.88925E+04
 -2.13628E+04  3.22027E+04 -3.64864E+04  1.57292E+04 -3.76005E+04 -2.86034E+03 -3.12762E+04 -2.20870E+04
 -1.32443E+04 -3.08701E+04  1.11212E+04 -2.87878E+04  2.43762E+04 -1.33171E+04  2.21383E+04  6.36663E+03
  8.33953E+03  1.58914E+04 -1.02790E+04  1.47639E+04 -1.80245E+04  2.14403E+03 -1.37394E+04 -1.14281E+04
 -4.13958E+02 -1.66100E+04  8.56602E+03 -1.25916E+04  1.20894E+04 -1.04636E+03  3.19258E+03  7.81435E+03
 -7.17753E+03  2.53005E+03 -7.39892E+03 -6.59460E+03 -1.01322E+03 -1.60310E+04  1.00404E+04 -1.63635E+04
  1.99944E+04 -9.26460E+03  2.08814E+04  3.60203E+03  1.81263E+04  1.59632E+04  9.43731E+03  2.44237E+04
 -3.94420E+03  2.54989E+04 -1.68981E+04  1.66413E+04 -1.81069E+04  3.82679E+03 -1.37074E+04 -3.66459E+03
 -5.53414E+03 -5.64807E+03 -1.12547E+03  1.44299E+03 -2.47420E+03  2.61748E+03 -5.80954E+03  5.28282E+03
 -1.24925E+04 -1.25737E+03 -1.21292E+04 -1.02984E+04 -5.38619E+03 -1.70167E+04  5.53258E+03 -1.38225E+04
  1.07732E+04 -6.19126E+03  8.06828E+03  3.92543E+03 -4.98969E+02  4.80085E+03 -6.84397E+03 -2.90512E+02
 -6.42326E+03 -8.45045E+03 -5.90125E+02 -1.21483E+04  7.92405E+03 -1.34865E+04  1.65805E+04 -7.90622E+03
  1.94075E+04  1.46927E+03  1.41175E+04  1.14633E+04  1.95012E+03  1.45232E+04 -8.26319E+03  1.29679E+04
 -1.04593E+04  3.72128E+03 -5.08523E+03 -3.01414E+03  1.67792E+03 -3.75358E+03  6.27871E+03 -9.26613E+02
  5.31583E+03  6.10722E+03  1.27450E+03  1.04417E+04 -7.00003E+03  1.01658E+04 -1.31010E+04  3.39373E+03
 -8.30994E+03 -6.88488E+03  8.86302E+02 -1.08270E+04  7.27328E+03 -5.90835E+03  7.51545E+03  2.58827E+03
  1.22417E+03  7.35605E+03 -6.35532E+03  9.37929E+03 -1.06702E+04  4.08990E+03 -1.12502E+04 -3.69029E+03
 -6.63306E+03 -1.26963E+04  2.64120E+03 -1.40490E+04  1.22441E+04 -8.73054E+03  1.36183E+04  1.79214E+03
  8.02136E+03  1.08865E+04 -9.24235E+02  1.25115E+04 -9.82732E+03  7.67230E+03 -9.89859E+03 -3.64424E+02
 -8.75496E+03 -9.19518E+03 -1.63256E+03 -9.77088E+03  5.17170E+03 -7.69732E+03  6.47480E+03 -3.24080E+03
  4.73601E+03  1.47511E+03 -6.05513E+02  1.09215E+03 -8.55992E+02 -2.64843E+03  1.46156E+03 -5.07918E+03
  9.21036E+03 -3.21735E+03  1.23091E+04  1.47769E+03  1.16872E+04  8.19823E+03  8.39567E+03  1.58706E+04
 -3.88775E+03  1.82592E+04 -1.60144E+04  1.34810E+04 -2.03434E+04  2.16678E+03 -1.62665E+04 -6.96231E+03
 -7.67287E+03 -1.30178E+04 -3.72789E+02 -1.12976E+04  4.73226E+03 -6.45250E+03  3.18647E+03 -4.32112E+03
  2.18218E+03 -2.78291E+03  2.51979E+03 -3.00425E+03  4.56108E+03 -2.20378E+03  6.27201E+03 -1.35394E+03
  8.24750E+03  2.08896E+03  4.61999E+03  6.78658E+03 -1.85344E+03  8.03428E+03 -9.13896E+03  6.22068E+03
 -1.08750E+04 -1.09369E+03 -6.79334E+03 -7.95636E+03 -5.61051E+01 -1.16103E+04  6.22895E+03 -1.19593E+04
  1.23314E+04 -7.20138E+03  1.45198E+04  2.00509E+03  1.01590E+04  1.08547E+04  1.79160E+03  1.36137E+04
 -6.00888E+03  1.12768E+04 -8.32555E+03  3.71106E+03 -5.01995E+03 -1.34594E+03 -2.25948E+03 -1.60688E+03
 -1.57312E+03 -1.07990E+02 -2.37499E+03  2.11487E+03 -5.01305E+03  2.18956E+03 -7.99595E+03 -1.41893E+03
 -4.86913E+03 -7.98922E+03  1.94385E+02 -1.05436E+04  6.83002E+03 -1.02929E+04  1.03723E+04 -2.53905E+03
  1.04794E+04  5.73069E+03  5.22774E+03  9.29886E+03 -3.19652E+03  1.15791E+04 -7.38658E+03  6.70441E+03
 -9.69616E+03  7.86538E+02 -8.31222E+03 -7.29477E+03 -6.69406E+01 -9.46546E+03  4.63513E+03 -7.13051E+03
  6.68212E+03 -1.97884E+03  4.79350E+03  1.86808E+03  6.65656E+02  3.36068E+03  1.20942E+03  1.73645E+03
  2.87911E+03  1.03490E+03  2.45231E+03  1.49945E+03  2.88480E+03  3.63475E+03  2.98611E+03  5.16890E+03
 -2.31323E+03  8.82715E+03 -8.12232E+03  9.44898E+03 -1.09652E+04  1.91559E+03 -1.13655E+04 -4.40060E+03
 -4.62153E+03 -1.10724E+04  1.65826E+03 -1.19886E+04  6.07789E+03 -7.51283E+03  9.14575E+03 -1.63502E+03
  7.38185E+03  4.17325E+03  1.77820E+03  6.73227E+03 -3.33701E+03  3.21565E+03 -4.12386E+03 -5.07517E+02
 -1.99928E+03 -5.21780E+03  2.71249E+03 -4.79959E+03  4.45907E+03 -3.06640E+03  4.38629E+03  7.81079E+02
  2.21491E+03  2.01658E+03  6.89102E+02  1.70974E+03 -8.72825E+02  1.59564E+03  1.95007E+03 -1.87768E+02
  1.13080E+03 -9.06007E+02  4.55897E+03  1.47747E+03  2.29394E+03  5.79273E+03 -1.22379E+03  7.93442E+03
 -5.27085E+03  4.44436E+03 -6.64847E+03  1.32571E+03 -6.33059E+03 -2.68896E+03 -2.30627E+03 -3.85505E+03
  2.21020E+02 -4.34923E+03  2.84381E+03 -1.88080E+03  1.84869E+03  2.13110E+03 -1.63487E+03  3.47311E+03
 -3.62890E+03  2.61590E+03 -5.27815E+03 -2.86010E+03 -2.88860E+03 -5.87869E+03  6.13697E+02 -5.15681E+03
  3.31438E+03 -3.24891E+03  4.96333E+03  1.55333E+01  3.20142E+03  1.07836E+03 -4.02408E+02  2.97305E+03
 -2.51792E+03  6.21342E+02 -2.02636E+03 -2.00377E+03  1.43315E+03 -4.14673E+03  4.49664E+03 -3.22145E+03
  6.49928E+03  1.23307E+02  6.65939E+03  4.22220E+03  2.84950E+03  6.33593E+03 -2.47091E+03  6.61241E+03
 -5.59299E+03  2.44100E+03 -6.09314E+03 -1.62257E+03 -3.57243E+03 -5.17803E+03  1.19275E+03 -3.63965E+03
  4.14491E+03 -1.89074E+03  3.27208E+03  1.79120E+03  1.76270E+03  3.98132E+03 -5.30852E+02  3.52591E+03
 -2.48288E+03  2.28558E+03 -1.62265E+03  8.87910E+02 -1.25914E+03  9.92900E+02 -6.08380E+02  1.18040E+03
 -1.86461E+03  3.00883E+03 -4.79112E+03  2.14802E+03 -6.59365E+03 -6.06177E+02 -7.65724E+03 -4.48347E+03
 -4.15431E+03 -8.61923E+03  1.41082E+03 -1.01287E+04  6.28860E+03 -8.38458E+03  1.00100E+04 -3.08476E+03
  9.11308E+03  2.36579E+03  5.40134E+03  6.11083E+03 -2.47727E+02  7.20641E+03 -2.34235E+03  5.00699E+03
 -3.65605E+03  2.29191E+03 -2.80569E+03 -3.85248E+02 -7.74267E+02 -9.58115E+02 -4.81951E+02 -2.78054E+02
 -7.88926E+02  4.30087E+02 -1.61820E+03 -2.72222E+02 -4.88255E+01 -1.24162E+03 -8.69217E+01 -2.44940E+03
  3.12052E+03 -2.22198E+03  3.50350E+03 -4.02405E+02  4.60596E+03  3.97494E+03  5.09240E+02  6.42580E+03
 -3.38203E+03  8.30066E+03 -7.12406E+03  4.55025E+03 -8.44742E+03 -5.54864E+02 -6.51743E+03 -5.43048E+03
 -2.48124E+03 -7.10149E+03  1.48164E+03 -6.63824E+03  4.09349E+03 -3.37812E+03  4.14642E+03  9.33629E+01
  2.38625E+03  2.38110E+03 -1.19883E+03  2.71351E+03 -1.35853E+03 -2.04904E+02 -1.22231E+02 -1.63185E+03
  2.04520E+03 -5.88503E+02  2.80455E+03  1.38899E+03  1.78419E+03  2.63365E+03 -3.41398E+02  3.92344E+03
 -2.73629E+03  3.46432E+03 -4.52800E+03  6.39280E+01 -4.56936E+03 -3.94924E+03 -2.14251E+02 -5.29561E+03
  3.16144E+03 -4.12044E+03  5.05713E+03 -1.63466E+03  4.85997E+03  8.87103E+02  3.03237E+03  4.33832E+03
  2.27053E+02  4.02616E+03 -1.75847E+03  4.26245E+03 -2.98706E+03  1.80842E+03 -1.99281E+03  9.54673E+02
 -8.99242E+02 -7.64742E+01 -1.89039E+03  9.51716E+01 -2.57883E+03  4.47493E+02 -3.14761E+03 -6.03847E+02
 -3.41894E+03 -1.74117E+03 -1.25679E+03 -4.32023E+03  2.15440E+03 -5.33020E+03  3.51592E+03 -2.31531E+03
  4.35511E+03  6.03028E+02  1.42241E+03  3.26390E+03 -2.10666E+02  4.38083E+03 -3.61272E+03  2.98769E+03
