 $NMID ID='MM_0lb_SNR400_7hz_g60_39.RAW', FMTDAT='(8E13.5)'
 TRAMP=1., VOLUME=1. $END
  3.09297E+05 -3.79711E+02  3.39080E+05  2.50543E+05  8.46036E+04  3.38048E+05 -1.32748E+05  2.52546E+05
 -1.90677E+05  8.43392E+04 -1.12736E+05 -3.20981E+04 -1.81610E+02 -5.10551E+04  5.29882E+04 -1.39998E+03
  3.62697E+04  5.36460E+04 -1.73265E+04  7.66389E+04 -6.07762E+04  6.48787E+04 -8.71733E+04  3.29216E+04
 -8.34760E+04 -1.12228E+04 -5.84621E+04 -5.37724E+04 -1.43644E+04 -7.20909E+04  2.93830E+04 -4.72901E+04
  4.29729E+04  3.59067E+03  1.68488E+04  4.92170E+04 -3.40758E+04  4.83390E+04 -6.82025E+04  2.41082E+02
 -5.54637E+04 -5.84761E+04 -7.82632E+03 -7.94880E+04  3.57004E+04 -5.78589E+04  5.13776E+04 -1.87490E+04
  4.65344E+04  1.17244E+04  3.39745E+04  2.68597E+04  1.59245E+04  3.06364E+04 -5.79129E+03  2.80986E+04
 -2.24133E+04  1.30373E+04 -1.80764E+04 -6.01409E+03  7.19086E+03 -6.81809E+03  2.39755E+04  1.50088E+04
  6.87715E+03  3.88004E+04 -3.48236E+04  3.84537E+04 -6.70298E+04  2.56021E+03 -5.97073E+04 -4.53948E+04
 -1.24753E+04 -6.74877E+04  4.32256E+04 -4.83059E+04  6.30426E+04 -3.58113E+03  3.94771E+04  3.57972E+04
 -6.35610E+03  4.05536E+04 -3.34631E+04  2.02711E+04 -3.47407E+04 -2.49860E+03 -2.05687E+04 -1.21276E+04
 -1.05896E+04 -1.50488E+04 -7.72681E+02 -2.04799E+04  9.86593E+03 -2.40947E+04  1.60196E+04 -1.23831E+04
  1.04375E+04  7.34622E+03 -1.11291E+04  1.22692E+04 -2.44262E+04 -8.16767E+03 -9.32551E+03 -4.02359E+04
  2.67255E+04 -4.92440E+04  5.45137E+04 -2.22264E+04  5.07218E+04  2.26558E+04  1.88241E+04  4.88005E+04
 -1.73033E+04  3.63828E+04 -2.91411E+04  3.64189E+03 -1.31114E+04 -3.12223E+04  2.24878E+04 -3.91113E+04
  4.64815E+04 -1.22012E+04  4.40396E+04  2.51937E+04  2.36487E+04  5.38019E+04 -8.63267E+03  6.05306E+04
 -3.89248E+04  4.09481E+04 -5.02077E+04  1.19514E+04 -5.01375E+04 -1.99594E+04 -2.85801E+04 -4.47844E+04
  8.35677E+03 -4.43511E+04  3.65683E+04 -1.72772E+04  3.42997E+04  1.09896E+04  6.34878E+03  2.20096E+04
 -1.34193E+04  1.03991E+04 -1.21206E+04 -7.09058E+03  5.74085E+03 -1.19069E+04  1.93153E+04  4.82396E+03
  1.57789E+04  2.32816E+04 -4.71449E+03  2.82698E+04 -2.35684E+04  1.62893E+04 -3.44319E+04 -2.05552E+03
 -2.82012E+04 -1.93902E+04 -1.36202E+04 -2.79353E+04  3.80735E+03 -2.91370E+04  2.28723E+04 -2.63669E+04
  3.62285E+04 -1.61105E+04  4.15543E+04  5.89204E+03  2.85196E+04  2.77056E+04  3.58587E+03  4.42680E+04
 -2.10067E+04  3.61554E+04 -3.19332E+04  1.34247E+04 -2.36247E+04 -1.04214E+04 -6.25462E+03 -1.21359E+04
  5.38067E+02  3.56023E+01 -9.14295E+03  8.97193E+03 -2.35675E+04  4.99482E+03 -2.24101E+04 -1.06259E+04
 -1.43178E+04 -2.63524E+04  5.66679E+03 -3.02348E+04  2.16996E+04 -2.21100E+04  2.45040E+04 -1.76394E+03
  1.61046E+04  1.81977E+04 -1.14573E+03  2.55949E+04 -1.81001E+04  1.56544E+04 -2.65113E+04 -5.20789E+03
 -1.98372E+04 -2.34823E+04 -3.00932E+03 -3.07645E+04  1.38556E+04 -2.59433E+04  2.55707E+04 -1.35490E+04
  2.59272E+04  1.08117E+02  1.84442E+04  6.35100E+03  9.68687E+03  1.72569E+03  1.37998E+04 -2.55015E+03
  2.53306E+04  3.66140E+03  2.94594E+04  2.06574E+04  2.06414E+04  4.24156E+04 -3.18845E+03  5.07604E+04
 -2.84140E+04  4.20312E+04 -4.78877E+04  2.30577E+04 -5.25241E+04 -4.29696E+03 -4.18433E+04 -3.01226E+04
 -1.59150E+04 -4.29472E+04  1.54258E+04 -3.63100E+04  3.31775E+04 -1.65819E+04  2.77629E+04  9.13585E+03
  8.67492E+03  2.10196E+04 -1.35019E+04  1.71437E+04 -2.30314E+04  2.88764E+03 -1.71874E+04 -1.49445E+04
 -3.37346E+02 -2.14583E+04  1.19543E+04 -1.64623E+04  1.50705E+04 -1.49269E+03  4.19838E+03  9.70878E+03
 -9.94907E+03  4.89118E+03 -1.17456E+04 -7.65017E+03 -3.18099E+03 -2.22018E+04  1.30802E+04 -2.39978E+04
  2.58563E+04 -1.37069E+04  3.19340E+04  3.35793E+03  2.78123E+04  2.13803E+04  1.20617E+04  3.41108E+04
 -7.45796E+03  3.72704E+04 -2.48157E+04  2.25635E+04 -2.69783E+04  3.74749E+03 -1.82648E+04 -6.70169E+03
 -7.85745E+03 -8.20676E+03 -2.44145E+02  1.68894E+02 -3.56652E+03  3.70493E+03 -8.97159E+03  6.53313E+03
 -1.65019E+04 -1.17418E+03 -1.75166E+04 -1.58588E+04 -7.75286E+03 -2.20304E+04  7.81192E+03 -1.83287E+04
  1.51232E+04 -7.07215E+03  1.00560E+04  4.89132E+03 -9.72953E+02  7.38489E+03 -9.13673E+03 -1.28058E+02
 -1.01582E+04 -1.23988E+04 -1.55330E+03 -1.85462E+04  1.04975E+04 -1.99954E+04  2.42893E+04 -1.12891E+04
  2.85534E+04  3.28811E+03  1.95171E+04  1.80279E+04  4.25227E+03  2.38340E+04 -1.17578E+04  1.78982E+04
 -1.46615E+04  5.31633E+03 -7.31883E+03 -3.84120E+03  1.90838E+03 -5.50918E+03  1.02433E+04 -1.38068E+03
  8.93873E+03  8.39978E+03  1.07636E+03  1.62898E+04 -1.20694E+04  1.45257E+04 -1.89525E+04  3.36474E+03
 -1.36786E+04 -1.03641E+04 -2.89744E+02 -1.67646E+04  1.09439E+04 -8.64337E+03  1.08201E+04  4.61968E+03
  3.02043E+03  1.28862E+04 -9.55238E+03  1.50848E+04 -1.65991E+04  5.14482E+03 -1.73224E+04 -6.81742E+03
 -9.92763E+03 -2.06177E+04  4.13864E+03 -2.31147E+04  1.98503E+04 -1.28444E+04  2.12171E+04  3.88878E+03
  1.24928E+04  1.63743E+04 -1.80219E+03  1.98213E+04 -1.34978E+04  1.10186E+04 -1.61667E+04 -1.87113E+03
 -1.37296E+04 -1.26293E+04 -1.49255E+03 -1.51610E+04  6.98047E+03 -1.16437E+04  9.51940E+03 -4.68549E+03
  5.87754E+03  2.76651E+03 -2.87259E+03  1.89280E+03 -9.95351E+02 -4.93091E+03  3.78806E+03 -9.88818E+03
  1.43316E+04 -5.69057E+03  2.16432E+04  2.04585E+03  1.97529E+04  1.43542E+04  1.19000E+04  2.65111E+04
 -6.82090E+03  3.06378E+04 -2.51964E+04  2.34502E+04 -3.32111E+04  4.20277E+03 -2.71453E+04 -1.26303E+04
 -1.35221E+04 -2.14807E+04  7.67689E+02 -1.88699E+04  7.00621E+03 -1.07839E+04  7.76103E+03 -6.27341E+03
  5.60080E+03 -3.65134E+03  3.99383E+03 -5.11078E+03  6.30043E+03 -4.92392E+03  1.05047E+04 -1.94513E+03
  1.31181E+04  3.21305E+03  8.50222E+03  1.15149E+04 -2.91015E+03  1.52194E+04 -1.55086E+04  1.06143E+04
 -1.96983E+04 -3.28470E+02 -1.36595E+04 -1.37759E+04 -2.49698E+03 -2.08110E+04  1.07566E+04 -1.91864E+04
  2.08787E+04 -1.08125E+04  2.47884E+04  5.62222E+03  1.74753E+04  1.93553E+04  2.91522E+03  2.36554E+04
 -9.77398E+03  1.87616E+04 -1.34463E+04  6.36970E+03 -1.05500E+04 -2.20046E+03 -3.61199E+03 -2.94062E+03
 -1.12294E+03 -5.22302E+02 -3.78219E+03  2.77130E+03 -7.61291E+03  3.27118E+03 -1.17712E+04 -1.36506E+03
 -1.08320E+04 -1.29689E+04  5.94898E+02 -1.89913E+04  1.24991E+04 -1.75737E+04  2.02067E+04 -6.10592E+03
  1.98664E+04  8.75941E+03  9.68467E+03  1.76318E+04 -4.45491E+03  1.95027E+04 -1.45426E+04  1.28449E+04
 -1.87522E+04  8.06341E+02 -1.36251E+04 -1.24417E+04 -1.13775E+03 -1.67057E+04  9.80667E+03 -1.20487E+04
  1.25702E+04 -3.84266E+03  9.08272E+03  3.48452E+03  3.25793E+03  5.55876E+03  1.68909E+03  3.24770E+03
  4.15857E+03  1.67299E+03  4.05886E+03  2.68014E+03  5.86708E+03  6.32798E+03  4.21132E+03  1.21150E+04
 -3.46414E+03  1.65278E+04 -1.42640E+04  1.55226E+04 -2.18011E+04  3.66119E+03 -2.17734E+04 -9.75961E+03
 -1.15185E+04 -2.09962E+04  2.64580E+03 -2.30911E+04  1.35964E+04 -1.43007E+04  1.74773E+04 -4.12520E+03
  1.31962E+04  7.67105E+03  3.01924E+03  1.22317E+04 -5.81930E+03  8.07488E+03 -8.36861E+03 -1.47904E+03
 -4.02571E+03 -9.58539E+03  4.59789E+03 -9.78901E+03  9.41140E+03 -5.58591E+03  8.60936E+03  1.90077E+03
  5.09877E+03  4.57175E+03  9.41601E+02  3.85780E+03 -1.23013E+03  3.37912E+03  1.16150E+03 -1.15577E+03
  4.18093E+03 -2.04368E+03  7.73191E+03  2.89792E+03  5.74156E+03  1.18130E+04 -9.46644E+02  1.50141E+04
 -1.03296E+04  9.99555E+03 -1.37909E+04  2.88391E+03 -1.34716E+04 -5.67197E+03 -5.89545E+03 -7.49499E+03
  1.48623E+03 -7.43366E+03  5.38167E+03 -3.87659E+03  4.81771E+03  4.55400E+03 -2.15335E+03  7.23120E+03
 -8.81117E+03  4.16899E+03 -1.04586E+04 -4.80327E+03 -6.09582E+03 -1.11094E+04  2.51082E+03 -1.22437E+04
  7.95095E+03 -7.61102E+03  8.62439E+03 -8.80439E+02  6.80511E+03  3.87375E+03  9.31571E+02  6.80587E+03
 -4.83718E+03  2.75231E+03 -6.81956E+03 -4.25866E+03  1.98657E+03 -9.43773E+03  1.19146E+04 -8.57039E+03
  1.42361E+04  1.13880E+03  1.38782E+04  9.81671E+03  4.48176E+03  1.52799E+04 -5.09389E+03  1.41262E+04
 -1.24769E+04  5.91853E+03 -1.28495E+04 -2.62536E+03 -6.94554E+03 -9.61445E+03  2.38285E+03 -9.93088E+03
  9.26804E+03 -3.90181E+03  8.69223E+03  3.05667E+03  2.72802E+03  7.97145E+03 -1.71728E+03  6.82155E+03
 -3.73752E+03  4.74287E+03 -3.12192E+03  1.51192E+03 -1.96973E+03  1.36882E+03 -1.52398E+03  2.83791E+03
 -3.44773E+03  5.90444E+03 -1.03567E+04  5.21396E+03 -1.47362E+04 -1.98852E+01 -1.62231E+04 -9.65798E+03
 -8.99600E+03 -2.02536E+04  3.34476E+03 -2.27091E+04  1.48671E+04 -1.80115E+04  2.26261E+04 -7.34265E+03
  2.06999E+04  4.49472E+03  1.34426E+04  1.36298E+04  2.23361E+02  1.66477E+04 -6.92967E+03  1.22973E+04
 -8.71017E+03  3.43338E+03 -6.58741E+03 -1.17270E+03 -1.39927E+03 -1.31898E+03 -1.24763E+03  6.87081E+02
 -2.35317E+03  1.90301E+02 -2.72997E+03 -7.38958E+02 -1.06922E+03 -3.82767E+03  3.33112E+02 -6.20100E+03
  7.11352E+03 -5.38522E+03  1.05768E+04 -2.29884E+02  1.05675E+04  8.08519E+03  4.29917E+03  1.65574E+04
 -7.74295E+03  1.80338E+04 -1.69611E+04  1.07422E+04 -2.02283E+04 -1.58490E+03 -1.49826E+04 -1.24661E+04
 -6.60519E+03 -1.64562E+04  4.63484E+03 -1.60043E+04  1.04055E+04 -8.42686E+03  1.08298E+04  1.02834E+03
  6.35463E+03  5.69959E+03 -1.40720E+03  4.78080E+03 -2.77961E+03 -4.61487E+02  2.19727E+01 -3.71935E+03
  4.65507E+03 -2.61786E+03  6.95941E+03  2.07997E+03  4.03478E+03  6.49712E+03 -2.69924E+02  7.83834E+03
 -6.93889E+03  7.06638E+03 -1.20974E+04  4.91907E+02 -9.72201E+03 -8.15393E+03 -1.48436E+03 -1.42015E+04
  8.24202E+03 -1.11237E+04  1.34912E+04 -4.31287E+03  1.32044E+04  3.10064E+03  7.27898E+03  1.04684E+04
  1.62556E+03  1.20500E+04 -4.89640E+03  8.16855E+03 -7.30512E+03  5.12256E+03 -5.15231E+03  6.98269E+01
 -2.87394E+03 -1.17684E+02 -2.73675E+03  7.46598E+02 -4.94375E+03  2.34632E+03 -9.46672E+03 -2.02549E+03
 -7.84918E+03 -6.27608E+03 -3.01980E+03 -1.08150E+04  4.58555E+03 -1.10410E+04  1.06145E+04 -5.05665E+03
  1.13637E+04  1.69985E+03  6.83629E+03  8.47118E+03 -8.34282E+02  1.06038E+04 -8.90161E+03  7.20156E+03
