 $NMID ID='MM_0lb_SNR400_9hz_g40_1.RAW', FMTDAT='(8E13.5)'
 TRAMP=1., VOLUME=1. $END
  3.09531E+05  5.91743E+02  3.37620E+05  2.50703E+05  8.37256E+04  3.38593E+05 -1.32582E+05  2.51835E+05
 -1.91269E+05  8.40870E+04 -1.11651E+05 -3.27167E+04  9.71980E+02 -4.98210E+04  5.37065E+04 -5.49901E+02
  3.56533E+04  5.28585E+04 -1.70046E+04  7.57958E+04 -6.08754E+04  6.48509E+04 -8.45207E+04  3.30405E+04
 -8.23951E+04 -1.24652E+04 -5.77268E+04 -5.21851E+04 -1.44819E+04 -7.18038E+04  2.80732E+04 -4.61675E+04
  4.08617E+04  3.17108E+03  1.67626E+04  4.86556E+04 -3.43883E+04  4.76327E+04 -6.76916E+04 -2.41562E+02
 -5.46452E+04 -5.78808E+04 -7.04301E+03 -7.81659E+04  3.29134E+04 -5.71384E+04  4.91265E+04 -1.82541E+04
  4.50976E+04  1.14397E+04  3.29996E+04  2.59978E+04  1.54561E+04  3.07380E+04 -5.13974E+03  2.73811E+04
 -2.18023E+04  1.29542E+04 -1.86230E+04 -5.17587E+03  6.79718E+03 -7.76331E+03  2.34836E+04  1.34063E+04
  7.40011E+03  3.74749E+04 -3.40539E+04  3.69265E+04 -6.54445E+04  2.14818E+03 -5.86391E+04 -4.43810E+04
 -1.32458E+04 -6.55690E+04  4.07002E+04 -4.70400E+04  6.06570E+04 -2.59254E+03  3.66806E+04  3.41881E+04
 -5.08668E+03  3.86345E+04 -3.11247E+04  1.81141E+04 -3.29585E+04 -3.70962E+03 -1.93041E+04 -1.14431E+04
 -9.19429E+03 -1.44923E+04 -5.84228E+02 -1.94829E+04  8.37100E+03 -2.37019E+04  1.61298E+04 -1.29266E+04
  1.11661E+04  6.62036E+03 -9.44862E+03  1.28623E+04 -2.31659E+04 -5.95957E+03 -8.95064E+03 -3.66540E+04
  2.47073E+04 -4.57646E+04  5.16212E+04 -2.06809E+04  4.80834E+04  2.01934E+04  1.76467E+04  4.65750E+04
 -1.62771E+04  3.56605E+04 -2.69130E+04  2.53014E+03 -1.11089E+04 -2.90744E+04  2.14408E+04 -3.65322E+04
  4.43275E+04 -1.09699E+04  3.96243E+04  2.42765E+04  2.03051E+04  5.05590E+04 -8.55379E+03  5.56164E+04
 -3.40322E+04  3.75772E+04 -4.58197E+04  1.02346E+04 -4.67657E+04 -1.84241E+04 -2.47724E+04 -4.12466E+04
  7.36408E+03 -4.10187E+04  3.37044E+04 -1.68976E+04  3.17998E+04  1.14202E+04  4.88084E+03  2.04186E+04
 -1.37593E+04  9.46668E+03 -1.12381E+04 -7.29503E+03  6.68156E+03 -1.07479E+04  1.80898E+04  5.74369E+03
  1.47668E+04  2.24008E+04 -5.60087E+03  2.70515E+04 -2.32055E+04  1.36945E+04 -3.10136E+04 -3.54828E+03
 -2.48736E+04 -1.83474E+04 -1.10012E+04 -2.38201E+04  3.89693E+03 -2.49454E+04  1.89363E+04 -2.27547E+04
  3.12933E+04 -1.39450E+04  3.74922E+04  4.59176E+03  2.69874E+04  2.40922E+04  4.36044E+03  4.08175E+04
 -1.93174E+04  3.33901E+04 -3.00747E+04  1.17050E+04 -2.25717E+04 -1.04055E+04 -4.87664E+03 -1.26574E+04
  1.10946E+03 -1.86375E+03 -6.41648E+03  8.52831E+03 -1.93986E+04  5.06620E+03 -1.96571E+04 -1.00572E+04
 -1.18146E+04 -2.21585E+04  6.27586E+03 -2.63179E+04  1.83919E+04 -1.90133E+04  2.18168E+04 -1.08903E+03
  1.38906E+04  1.58013E+04 -1.61563E+03  2.25945E+04 -1.59333E+04  1.29578E+04 -2.27811E+04 -4.72142E+03
 -1.69843E+04 -2.08865E+04 -2.41176E+03 -2.70696E+04  1.23468E+04 -2.22961E+04  2.27096E+04 -1.18479E+04
  2.10906E+04  3.04728E+02  1.51722E+04  4.58118E+03  8.84583E+03  1.43793E+03  1.15034E+04 -1.84490E+03
  2.20360E+04  3.69570E+03  2.39466E+04  1.73082E+04  1.72712E+04  3.61856E+04 -2.19958E+03  4.24244E+04
 -2.40487E+04  3.51144E+04 -3.99152E+04  1.82001E+04 -4.22753E+04 -2.91039E+03 -3.43435E+04 -2.43497E+04
 -1.40296E+04 -3.55338E+04  1.18222E+04 -3.13570E+04  2.74697E+04 -1.48655E+04  2.25954E+04  8.04212E+03
  8.22164E+03  1.74695E+04 -1.09243E+04  1.51516E+04 -1.95045E+04  2.73438E+03 -1.45344E+04 -1.26046E+04
 -1.11060E+02 -1.86296E+04  9.80593E+03 -1.42017E+04  1.32808E+04 -1.33119E+03  3.84137E+03  8.66010E+03
 -8.39890E+03  4.01668E+03 -8.58143E+03 -7.81223E+03 -1.06217E+03 -1.75676E+04  1.11142E+04 -1.86210E+04
  2.15426E+04 -1.09931E+04  2.45908E+04  4.24016E+03  2.16830E+04  1.72883E+04  1.07034E+04  2.74357E+04
 -4.82134E+03  3.00700E+04 -1.90276E+04  1.88368E+04 -2.12852E+04  3.82197E+03 -1.48745E+04 -5.30938E+03
 -6.14999E+03 -7.12483E+03 -9.24090E+02  7.99336E+02 -3.16482E+03  3.89026E+03 -6.64287E+03  5.24985E+03
 -1.38398E+04 -4.27393E+02 -1.39886E+04 -1.12251E+04 -6.08809E+03 -1.84183E+04  5.92952E+03 -1.54276E+04
  1.20297E+04 -6.30568E+03  7.70855E+03  3.46984E+03 -3.29859E+02  6.36015E+03 -7.20608E+03  4.81877E+02
 -7.33775E+03 -9.89061E+03 -1.50881E+03 -1.47764E+04  8.99667E+03 -1.64618E+04  1.95248E+04 -8.25286E+03
  2.26090E+04  1.96324E+03  1.59767E+04  1.36354E+04  2.57772E+03  1.85119E+04 -8.40876E+03  1.47822E+04
 -1.21462E+04  4.35113E+03 -6.79766E+03 -3.48158E+03  2.50006E+03 -4.56045E+03  8.38517E+03 -6.61642E+02
  6.56432E+03  6.73730E+03  1.34091E+03  1.26595E+04 -9.09490E+03  1.14096E+04 -1.55965E+04  3.21649E+03
 -9.70885E+03 -7.71608E+03 -2.63211E+02 -1.26301E+04  7.57983E+03 -6.70845E+03  8.90228E+03  3.02264E+03
  2.38652E+03  8.84658E+03 -7.72150E+03  1.09718E+04 -1.23692E+04  5.24031E+03 -1.35849E+04 -4.38163E+03
 -7.91984E+03 -1.56060E+04  2.64749E+03 -1.69540E+04  1.47931E+04 -1.06008E+04  1.54406E+04  2.65096E+03
  9.62125E+03  1.26722E+04 -1.17882E+03  1.44233E+04 -1.09252E+04  8.32288E+03 -1.17868E+04 -7.84261E+02
 -1.05029E+04 -9.49674E+03 -1.87058E+03 -1.14536E+04  5.94849E+03 -9.45651E+03  7.63776E+03 -2.78690E+03
  4.45711E+03  1.71167E+03 -1.36659E+03  2.98261E+03  5.20320E+02 -3.48841E+03  2.18748E+03 -7.29113E+03
  1.07936E+04 -5.17065E+03  1.50291E+04  1.52077E+03  1.43970E+04  9.22803E+03  8.74290E+03  1.99651E+04
 -4.75555E+03  2.23948E+04 -1.83948E+04  1.64812E+04 -2.40660E+04  3.15183E+03 -1.91303E+04 -8.63834E+03
 -8.83690E+03 -1.59464E+04  2.42181E+01 -1.32871E+04  4.61819E+03 -7.65611E+03  4.43798E+03 -5.37949E+03
  1.96840E+03 -2.95652E+03  4.56339E+03 -3.58533E+03  5.63623E+03 -3.20012E+03  7.82559E+03 -2.27005E+03
  1.00033E+04  2.13812E+03  5.12608E+03  8.74852E+03 -3.10845E+03  1.08390E+04 -1.07858E+04  8.16760E+03
 -1.39576E+04 -1.26342E+03 -8.52355E+03 -9.86925E+03 -9.92584E+02 -1.46613E+04  8.94507E+03 -1.53651E+04
  1.55044E+04 -8.30093E+03  1.82452E+04  2.48972E+03  1.31313E+04  1.32446E+04  2.02870E+03  1.62420E+04
 -7.46983E+03  1.37586E+04 -9.59380E+03  4.62726E+03 -6.22142E+03 -1.16352E+03 -3.28983E+03 -2.28944E+03
 -2.45030E+03  8.32427E+00 -1.98982E+03  2.54171E+03 -5.77014E+03  2.44062E+03 -9.32678E+03 -2.28629E+03
 -6.30399E+03 -9.55312E+03  5.66408E+02 -1.45817E+04  8.68695E+03 -1.33821E+04  1.43353E+04 -3.08423E+03
  1.39338E+04  6.79864E+03  6.55917E+03  1.24841E+04 -2.35018E+03  1.44709E+04 -9.36533E+03  8.38704E+03
 -1.36631E+04 -1.57776E+02 -1.01264E+04 -8.29928E+03 -1.36110E+03 -1.17137E+04  5.51836E+03 -7.93261E+03
  8.02386E+03 -3.22138E+03  6.21500E+03  2.70415E+03  2.13881E+03  5.23252E+03  2.01709E+03  1.93427E+03
  2.88994E+03  7.86070E+02  3.99180E+03  8.88574E+02  4.01943E+03  4.88394E+03  3.20054E+03  7.05463E+03
 -3.11896E+03  1.15437E+04 -9.31160E+03  1.08688E+04 -1.40427E+04  3.33280E+03 -1.50134E+04 -5.81339E+03
 -6.56507E+03 -1.36686E+04  2.01055E+03 -1.51847E+04  8.18190E+03 -1.00026E+04  1.13942E+04 -2.87771E+03
  8.89279E+03  5.49478E+03  1.92244E+03  7.81656E+03 -4.82165E+03  4.96688E+03 -5.96219E+03 -3.15837E+02
 -2.95447E+03 -6.10527E+03  3.52385E+03 -5.97673E+03  5.80665E+03 -3.58546E+03  4.62185E+03  1.63547E+03
  3.64882E+03  1.78332E+03  1.53739E+03  2.73560E+03 -7.54911E+02  1.80933E+03  2.08911E+03 -4.61757E+02
  2.37860E+03 -1.14827E+03  6.64698E+03  2.50503E+03  3.57441E+03  7.88406E+03 -1.22221E+03  1.10158E+04
 -6.57917E+03  6.52573E+03 -9.06150E+03  8.29023E+02 -7.33217E+03 -3.99568E+03 -3.92623E+03 -5.89611E+03
  6.39835E+02 -5.37071E+03  2.68627E+03 -2.81451E+03  3.22005E+03  2.96442E+03 -1.51884E+03  5.08381E+03
 -5.19583E+03  3.06960E+03 -6.90525E+03 -3.40533E+03 -4.54828E+03 -7.67852E+03  1.32232E+03 -8.23923E+03
  4.49645E+03 -4.13624E+03  5.72738E+03 -5.61220E+02  5.21603E+03  2.43007E+03  3.27249E+02  3.28886E+03
 -3.46448E+03  1.73800E+03 -3.14686E+03 -2.83568E+03  1.07949E+03 -6.39958E+03  6.16124E+03 -4.48002E+03
  8.71154E+03  1.21398E+03  8.40690E+03  5.87494E+03  3.01504E+03  9.27797E+03 -3.46258E+03  9.01210E+03
 -7.82416E+03  3.88748E+03 -7.97636E+03 -1.13286E+03 -4.98117E+03 -6.26806E+03  1.72963E+03 -5.90890E+03
  6.39918E+03 -2.99435E+03  4.28344E+03  2.68830E+03  1.76182E+03  4.69716E+03 -9.83987E+02  4.93354E+03
 -2.36955E+03  2.07037E+03 -2.17794E+03  1.22599E+03 -1.31739E+03  1.51874E+03 -8.30251E+02  2.35015E+03
 -2.31134E+03  4.26605E+03 -6.99973E+03  2.77941E+03 -1.01624E+04  1.62711E+01 -1.04456E+04 -6.21441E+03
 -5.43353E+03 -1.17685E+04  1.87150E+03 -1.41272E+04  9.50407E+03 -1.12036E+04  1.39879E+04 -4.03531E+03
  1.32944E+04  2.61729E+03  7.73460E+03  9.32585E+03  7.78582E+02  9.99996E+03 -4.28203E+03  7.78718E+03
 -5.45604E+03  2.88959E+03 -2.90146E+03 -1.35578E+03 -1.57518E+02 -8.90318E+02 -1.17141E+03 -1.75897E+02
 -1.42242E+03  5.12509E+02 -2.88272E+03 -4.76341E+02 -1.30388E+03 -2.48633E+03  3.62742E+02 -3.34263E+03
  4.92693E+03 -3.25060E+03  6.42204E+03 -4.77944E+02  6.40537E+03  5.46472E+03  1.47371E+03  1.01770E+04
 -4.79115E+03  1.10019E+04 -1.03940E+04  6.74327E+03 -1.12927E+04 -4.21039E+02 -9.12138E+03 -6.88407E+03
 -3.52810E+03 -9.88321E+03  2.36202E+03 -8.82065E+03  6.63648E+03 -5.15628E+03  6.20418E+03  1.89512E+02
  3.04618E+03  2.74037E+03  2.62851E+02  2.96028E+03 -1.87517E+03  1.04855E+02  3.52652E+02 -2.01345E+03
  3.25449E+03 -9.88214E+02  3.27792E+03  2.52630E+03  2.40570E+03  4.14408E+03  3.40130E+02  5.21128E+03
 -4.00297E+03  4.92851E+03 -6.82256E+03  9.75368E+02 -5.93439E+03 -5.52276E+03 -1.25198E+03 -8.82290E+03
  4.45130E+03 -6.84945E+03  7.51934E+03 -2.42617E+03  7.75234E+03  1.44823E+03  4.67690E+03  6.42379E+03
  9.11767E+02  6.42687E+03 -2.80745E+03  5.95399E+03 -3.76556E+03  3.21092E+03 -3.93133E+03  3.02723E+02
 -2.81993E+03 -2.79131E+02 -2.60024E+03  1.14782E+03 -3.30337E+03  1.78527E+02 -4.51205E+03 -1.45856E+03
 -5.66902E+03 -2.90322E+03 -1.95735E+03 -6.93650E+03  3.55431E+03 -7.63395E+03  5.31998E+03 -3.29726E+03
  6.36070E+03  6.08738E+02  3.22062E+03  4.93532E+03 -5.29946E+02  6.35967E+03 -5.07280E+03  4.75179E+03
