 $NMID ID='MM_0lb_SNR400_8hz_g55_16.RAW', FMTDAT='(8E13.5)'
 TRAMP=1., VOLUME=1. $END
  3.09675E+05  6.90948E+02  3.38074E+05  2.50206E+05  8.52919E+04  3.38785E+05 -1.33003E+05  2.51690E+05
 -1.90980E+05  8.33772E+04 -1.12302E+05 -3.30624E+04 -2.27332E+02 -5.11783E+04  5.28085E+04 -6.07598E+02
  3.53300E+04  5.21188E+04 -1.66021E+04  7.61884E+04 -6.10915E+04  6.46996E+04 -8.44588E+04  3.25775E+04
 -8.22069E+04 -1.10865E+04 -5.83630E+04 -5.25593E+04 -1.63121E+04 -7.17764E+04  2.82583E+04 -4.64847E+04
  4.10371E+04  3.27186E+03  1.65160E+04  4.87682E+04 -3.52254E+04  4.97019E+04 -6.78538E+04  5.07694E+02
 -5.51220E+04 -5.77252E+04 -6.87433E+03 -7.99899E+04  3.55370E+04 -5.78797E+04  5.01027E+04 -1.82548E+04
  4.58409E+04  1.07810E+04  3.21375E+04  2.65331E+04  1.57926E+04  3.03387E+04 -5.98581E+03  2.82734E+04
 -2.30242E+04  1.15995E+04 -1.82266E+04 -5.46228E+03  7.61950E+03 -7.90780E+03  2.33036E+04  1.51846E+04
  6.66847E+03  3.85357E+04 -3.46411E+04  3.71997E+04 -6.69055E+04  5.66879E+02 -5.90337E+04 -4.47590E+04
 -1.34313E+04 -6.63108E+04  4.12550E+04 -4.76416E+04  6.25892E+04 -1.98990E+03  3.76576E+04  3.57440E+04
 -5.52614E+03  4.04041E+04 -3.28619E+04  1.98016E+04 -3.41604E+04 -3.53035E+03 -1.83114E+04 -1.28974E+04
 -1.01764E+04 -1.52789E+04 -1.84783E+02 -2.08584E+04  8.76605E+03 -2.43051E+04  1.72298E+04 -1.20201E+04
  1.04196E+04  7.02075E+03 -1.12421E+04  1.25488E+04 -2.41047E+04 -8.25270E+03 -8.40682E+03 -3.85472E+04
  2.53337E+04 -4.78934E+04  5.33635E+04 -2.10450E+04  4.99612E+04  2.04433E+04  1.86103E+04  4.84083E+04
 -1.72524E+04  3.64846E+04 -2.85837E+04  2.78595E+03 -1.19571E+04 -3.06049E+04  2.19532E+04 -3.79316E+04
  4.57425E+04 -1.23150E+04  4.11233E+04  2.62723E+04  2.17952E+04  5.26950E+04 -8.36825E+03  5.81187E+04
 -3.67575E+04  4.02649E+04 -4.91678E+04  1.06109E+04 -4.86258E+04 -1.96405E+04 -2.65737E+04 -4.24345E+04
  8.31448E+03 -4.29427E+04  3.51972E+04 -1.79493E+04  3.24490E+04  1.09099E+04  5.77345E+03  2.09601E+04
 -1.43214E+04  1.02154E+04 -1.19669E+04 -6.98332E+03  6.32533E+03 -1.10295E+04  1.89226E+04  5.67867E+03
  1.56628E+04  2.28661E+04 -4.94599E+03  2.73376E+04 -2.38145E+04  1.54449E+04 -3.23297E+04 -1.44380E+03
 -2.64453E+04 -1.89152E+04 -1.33208E+04 -2.65858E+04  3.70614E+03 -2.81911E+04  2.11652E+04 -2.35943E+04
  3.41056E+04 -1.34220E+04  4.01241E+04  6.55354E+03  2.82427E+04  2.51931E+04  3.91789E+03  4.39834E+04
 -2.06792E+04  3.50711E+04 -3.10515E+04  1.27436E+04 -2.30603E+04 -1.01017E+04 -4.13681E+03 -1.29083E+04
  4.55766E+02 -3.84331E+02 -8.55258E+03  8.60641E+03 -2.21355E+04  4.74557E+03 -2.18742E+04 -1.00453E+04
 -1.20507E+04 -2.44191E+04  6.13408E+03 -2.85810E+04  2.01257E+04 -2.12047E+04  2.39461E+04 -2.88983E+03
  1.55013E+04  1.74494E+04 -1.70884E+03  2.55324E+04 -1.74547E+04  1.43278E+04 -2.49934E+04 -4.70527E+03
 -1.80500E+04 -2.20183E+04 -2.97883E+03 -2.99907E+04  1.37023E+04 -2.47477E+04  2.36527E+04 -1.28284E+04
  2.29439E+04  3.86780E+02  1.72611E+04  5.14062E+03  9.44291E+03  1.84937E+03  1.35108E+04 -2.36899E+03
  2.34240E+04  3.61079E+03  2.71687E+04  1.99822E+04  1.90129E+04  4.07964E+04 -3.43185E+03  4.62743E+04
 -2.72929E+04  3.92673E+04 -4.47441E+04  2.10325E+04 -4.78337E+04 -4.26058E+03 -3.88437E+04 -2.84105E+04
 -1.52799E+04 -3.98625E+04  1.42518E+04 -3.49582E+04  2.90993E+04 -1.52799E+04  2.52705E+04  8.59487E+03
  8.72258E+03  2.06141E+04 -1.33830E+04  1.60916E+04 -2.18530E+04  2.85982E+03 -1.65072E+04 -1.41148E+04
 -2.81528E+02 -2.12213E+04  1.14692E+04 -1.50137E+04  1.42570E+04 -1.29411E+03  3.82754E+03  9.95745E+03
 -9.27307E+03  4.17362E+03 -9.83007E+03 -7.40851E+03 -3.05027E+03 -1.96716E+04  1.27659E+04 -2.13862E+04
  2.50096E+04 -1.24366E+04  2.88252E+04  2.88941E+03  2.46293E+04  2.02894E+04  1.19665E+04  3.25785E+04
 -5.57870E+03  3.42725E+04 -2.28605E+04  2.10368E+04 -2.49300E+04  4.11299E+03 -1.71569E+04 -7.07047E+03
 -7.14992E+03 -8.39243E+03 -4.96964E+02  4.39282E+02 -3.35728E+03  3.96969E+03 -7.36080E+03  5.33060E+03
 -1.55415E+04 -1.07028E+03 -1.51594E+04 -1.30220E+04 -5.90601E+03 -2.03018E+04  6.93108E+03 -1.72493E+04
  1.33011E+04 -7.22721E+03  9.80200E+03  4.75358E+03  2.30260E+02  6.69433E+03 -8.17411E+03 -2.22584E+02
 -8.39283E+03 -1.10218E+04 -1.35524E+03 -1.75378E+04  1.05874E+04 -1.79244E+04  2.24668E+04 -9.64588E+03
  2.57701E+04  3.04566E+03  1.90635E+04  1.59570E+04  3.49342E+03  2.08951E+04 -1.02808E+04  1.74753E+04
 -1.32193E+04  4.92011E+03 -6.38095E+03 -3.70679E+03  3.17981E+03 -5.53135E+03  8.13983E+03 -6.20543E+02
  7.94427E+03  7.95188E+03  1.69841E+03  1.37075E+04 -9.76821E+03  1.31739E+04 -1.72277E+04  3.37855E+03
 -1.22826E+04 -9.63930E+03  1.74819E+02 -1.43163E+04  1.05448E+04 -7.64480E+03  1.05347E+04  3.47512E+03
  2.71797E+03  1.14277E+04 -8.95037E+03  1.36533E+04 -1.44816E+04  5.47388E+03 -1.51928E+04 -4.98848E+03
 -8.93424E+03 -1.75107E+04  3.78809E+03 -1.98887E+04  1.75257E+04 -1.17766E+04  1.91880E+04  4.17067E+03
  1.03112E+04  1.52669E+04 -2.30139E+03  1.76134E+04 -1.27796E+04  9.78129E+03 -1.46155E+04 -2.19634E+03
 -1.22521E+04 -1.21539E+04 -1.44804E+03 -1.31017E+04  7.82341E+03 -1.01639E+04  8.71762E+03 -3.38178E+03
  6.32948E+03  1.81125E+03 -1.01827E+03  1.67375E+03 -9.28975E+02 -4.01327E+03  3.52805E+03 -8.21598E+03
  1.29697E+04 -5.38288E+03  1.93138E+04  2.71323E+03  1.84463E+04  1.26231E+04  1.07492E+04  2.36305E+04
 -5.86135E+03  2.80286E+04 -2.19458E+04  2.03353E+04 -2.91186E+04  4.55334E+03 -2.31809E+04 -1.04804E+04
 -1.13684E+04 -1.93253E+04 -4.97697E+02 -1.64501E+04  5.91132E+03 -9.66001E+03  6.64380E+03 -6.13186E+03
  3.71930E+03 -2.93106E+03  3.39854E+03 -3.99050E+03  5.96151E+03 -4.30503E+03  9.07215E+03 -2.61438E+03
  1.22461E+04  2.62363E+03  6.51412E+03  1.03240E+04 -2.47275E+03  1.35459E+04 -1.38926E+04  9.43167E+03
 -1.75926E+04 -1.70620E+03 -1.08212E+04 -1.16756E+04 -2.09362E+03 -1.84080E+04  1.00300E+04 -1.86791E+04
  1.81171E+04 -1.01899E+04  2.26134E+04  3.30219E+03  1.55601E+04  1.58789E+04  2.93699E+03  2.08945E+04
 -8.36755E+03  1.61041E+04 -1.23187E+04  5.15632E+03 -7.68372E+03 -2.31594E+03 -3.90698E+03 -2.45916E+03
 -1.64773E+03 -1.07798E+03 -2.52457E+03  2.59754E+03 -6.93218E+03  3.62074E+03 -1.11288E+04 -1.67422E+03
 -8.90721E+03 -1.15385E+04 -1.72121E+02 -1.72573E+04  1.00592E+04 -1.55799E+04  1.67250E+04 -4.04376E+03
  1.67104E+04  8.87342E+03  7.94355E+03  1.58006E+04 -3.09754E+03  1.66831E+04 -1.27410E+04  1.12477E+04
 -1.65133E+04 -4.46387E+02 -1.23261E+04 -1.03008E+04 -1.17138E+03 -1.48044E+04  6.54906E+03 -1.08176E+04
  1.10617E+04 -3.41069E+03  8.07811E+03  3.37153E+03  2.44227E+03  5.41521E+03  1.55295E+03  1.88493E+03
  3.95022E+03  1.01127E+03  4.34986E+03  3.03335E+03  4.77694E+03  5.68378E+03  5.01699E+03  9.74308E+03
 -3.47964E+03  1.39620E+04 -1.18338E+04  1.29143E+04 -1.88964E+04  3.19067E+03 -1.84123E+04 -8.42048E+03
 -8.61927E+03 -1.75264E+04  2.10990E+03 -1.98376E+04  1.15285E+04 -1.36066E+04  1.46598E+04 -4.07947E+03
  1.21187E+04  6.53043E+03  2.68346E+03  1.05907E+04 -5.86936E+03  7.78776E+03 -7.14955E+03 -1.32655E+03
 -3.98664E+03 -7.69731E+03  4.22960E+03 -7.98976E+03  7.27380E+03 -4.16309E+03  6.43480E+03  1.20135E+03
  3.66078E+03  3.77692E+03  1.60177E+03  3.60184E+03 -1.00936E+03  2.29607E+03  1.76891E+03  1.49232E+02
  3.03931E+03 -1.23239E+03  7.37683E+03  2.83869E+03  5.38905E+03  9.52129E+03 -2.06471E+03  1.24641E+04
 -8.78042E+03  8.24090E+03 -1.05464E+04  2.01594E+03 -1.03214E+04 -4.14628E+03 -4.94073E+03 -6.73322E+03
  7.85940E+02 -6.37484E+03  5.21303E+03 -3.40605E+03  4.65843E+03  2.71971E+03 -2.20127E+03  6.37747E+03
 -7.70076E+03  3.44674E+03 -9.05742E+03 -4.61561E+03 -4.79809E+03 -9.17665E+03  1.51654E+03 -9.92522E+03
  6.20585E+03 -7.17404E+03  7.00205E+03 -5.80556E+02  6.94132E+03  2.76140E+03  3.78409E+01  5.23387E+03
 -3.78450E+03  1.46464E+03 -4.29542E+03 -3.86093E+03  1.98898E+03 -7.74791E+03  9.19669E+03 -6.37444E+03
  1.24309E+04  4.83905E+02  1.12565E+04  7.16894E+03  3.32849E+03  1.24893E+04 -4.06793E+03  1.18693E+04
 -1.04765E+04  5.11246E+03 -1.06660E+04 -7.52469E+02 -5.82031E+03 -7.47552E+03  2.31002E+03 -7.89780E+03
  7.79434E+03 -2.32971E+03  6.33613E+03  3.52447E+03  2.36859E+03  6.30593E+03 -8.55890E+02  5.31540E+03
 -2.98385E+03  4.25369E+03 -2.86552E+03  1.14388E+03 -1.83222E+03  9.26268E+02 -1.94607E+03  2.22056E+03
 -3.01461E+03  5.16569E+03 -8.61705E+03  4.06872E+03 -1.30555E+04  5.25677E+02 -1.42434E+04 -8.45660E+03
 -7.29535E+03 -1.59813E+04  3.62493E+03 -1.87670E+04  1.17034E+04 -1.47485E+04  1.76297E+04 -5.78152E+03
  1.66446E+04  4.39795E+03  1.00614E+04  1.11281E+04  1.15426E+03  1.39670E+04 -4.37406E+03  1.03542E+04
 -7.29055E+03  4.16370E+03 -4.59066E+03 -1.55684E+03 -1.60107E+03 -8.47479E+02 -7.03982E+02 -2.37692E+02
 -2.09244E+03  1.79523E+01 -3.70154E+03 -2.75897E+02 -8.51486E+02 -3.68944E+03 -2.41771E+02 -4.80952E+03
  6.15103E+03 -3.61034E+03  7.48817E+03 -2.63354E+02  9.02345E+03  7.06426E+03  1.93586E+03  1.32658E+04
 -6.63265E+03  1.49427E+04 -1.42263E+04  8.20791E+03 -1.58130E+04 -1.37721E+03 -1.20728E+04 -9.26866E+03
 -4.32250E+03 -1.38255E+04  3.76314E+03 -1.13817E+04  8.62932E+03 -6.99281E+03  8.43007E+03 -7.59790E+00
  4.80885E+03  5.43373E+03 -6.40825E+02  3.95322E+03 -2.45717E+03 -4.37997E+02  3.98778E+02 -3.88894E+03
  4.89613E+03 -1.49557E+03  5.08792E+03  1.33271E+03  4.33009E+03  6.09471E+03 -9.98385E+01  7.13967E+03
 -6.19460E+03  6.75260E+03 -9.38328E+03  1.05155E+03 -7.71515E+03 -5.61606E+03 -1.35645E+03 -1.10399E+04
  5.76773E+03 -9.89570E+03  1.02185E+04 -2.43036E+03  9.74126E+03  3.00663E+03  5.67206E+03  8.15776E+03
  1.66856E+03  9.06583E+03 -3.32006E+03  6.74296E+03 -5.61381E+03  3.84290E+03 -4.97280E+03  1.00082E+03
 -2.50008E+03  2.38503E+02 -2.42268E+03  1.54618E+03 -5.18121E+03  1.30384E+03 -6.70889E+03 -1.38865E+03
 -6.41709E+03 -5.12898E+03 -1.72933E+03 -8.50175E+03  3.89108E+03 -9.88670E+03  8.22721E+03 -3.56730E+03
  9.00007E+03  1.18432E+03  5.33441E+03  8.10636E+03 -2.47718E+02  9.49226E+03 -6.84608E+03  6.10695E+03
