 $NMID ID='MM_0lb_SNR400_14hz_g60_17.RAW', FMTDAT='(8E13.5)'
 TRAMP=1., VOLUME=1. $END
  3.09801E+05  3.10950E+02  3.37884E+05  2.50806E+05  8.51962E+04  3.38610E+05 -1.32222E+05  2.51708E+05
 -1.90163E+05  8.37922E+04 -1.12073E+05 -3.29590E+04  1.44578E+03 -5.13137E+04  5.30066E+04 -5.24672E+02
  3.59187E+04  5.29811E+04 -1.71848E+04  7.56033E+04 -6.06851E+04  6.37006E+04 -8.44880E+04  3.20582E+04
 -8.09305E+04 -1.18957E+04 -5.79392E+04 -5.18478E+04 -1.45196E+04 -7.03762E+04  2.82536E+04 -4.60273E+04
  4.05007E+04  4.36799E+03  1.63870E+04  4.87498E+04 -3.49402E+04  4.75900E+04 -6.73946E+04 -3.91247E+02
 -5.41715E+04 -5.69401E+04 -7.01675E+03 -7.74216E+04  3.36182E+04 -5.66205E+04  4.87049E+04 -1.78353E+04
  4.35298E+04  1.16383E+04  3.24721E+04  2.57054E+04  1.62568E+04  2.96626E+04 -5.90048E+03  2.70076E+04
 -2.18679E+04  1.26550E+04 -1.82459E+04 -5.54383E+03  6.06498E+03 -7.83828E+03  2.21029E+04  1.30240E+04
  7.44957E+03  3.61180E+04 -3.23170E+04  3.64643E+04 -6.41881E+04  2.20600E+03 -5.81462E+04 -4.34957E+04
 -1.23994E+04 -6.42234E+04  4.05761E+04 -4.64135E+04  5.95185E+04 -2.69940E+03  3.47022E+04  3.29790E+04
 -5.81595E+03  3.71107E+04 -3.03787E+04  1.69240E+04 -3.10967E+04 -3.68559E+03 -1.76401E+04 -1.12582E+04
 -8.93916E+03 -1.40383E+04 -4.79013E+01 -1.85497E+04  7.67618E+03 -2.30108E+04  1.53108E+04 -1.31147E+04
  1.14985E+04  5.59684E+03 -9.58116E+03  1.31089E+04 -2.20369E+04 -5.25440E+03 -9.24652E+03 -3.49630E+04
  2.38573E+04 -4.47638E+04  4.97113E+04 -2.00875E+04  4.62492E+04  1.95885E+04  1.57585E+04  4.49739E+04
 -1.65585E+04  3.44603E+04 -2.62046E+04  2.08430E+03 -1.06563E+04 -2.82703E+04  2.07408E+04 -3.49248E+04
  4.23405E+04 -9.36908E+03  3.79341E+04  2.44742E+04  1.87669E+04  4.84943E+04 -8.16769E+03  5.22173E+04
 -3.22833E+04  3.46570E+04 -4.40426E+04  1.06473E+04 -4.46187E+04 -1.76033E+04 -2.40938E+04 -3.90212E+04
  7.72709E+03 -3.94498E+04  3.21299E+04 -1.49903E+04  3.02439E+04  1.10192E+04  4.24063E+03  1.99811E+04
 -1.34028E+04  8.87935E+03 -1.01116E+04 -8.05595E+03  5.41379E+03 -1.11738E+04  1.84096E+04  5.87145E+03
  1.37779E+04  2.24046E+04 -5.63153E+03  2.55994E+04 -2.25985E+04  1.22213E+04 -2.90883E+04 -4.63962E+03
 -2.19802E+04 -1.79627E+04 -9.13430E+03 -2.16278E+04  3.95643E+03 -2.10510E+04  1.73903E+04 -1.97618E+04
  2.82717E+04 -1.28325E+04  3.44439E+04  3.17144E+03  2.50239E+04  2.10985E+04  4.35084E+03  3.79063E+04
 -1.86441E+04  3.12800E+04 -2.94550E+04  1.03588E+04 -2.16944E+04 -1.03848E+04 -4.22955E+03 -1.27103E+04
  1.02633E+03 -2.38969E+03 -5.81041E+03  7.20993E+03 -1.75426E+04  5.48526E+03 -1.72634E+04 -7.98773E+03
 -1.07492E+04 -2.03374E+04  5.50515E+03 -2.43770E+04  1.61388E+04 -1.76584E+04  1.92104E+04 -2.19230E+03
  1.24460E+04  1.32899E+04 -9.33760E+02  2.06076E+04 -1.42508E+04  1.16206E+04 -1.98915E+04 -4.21579E+03
 -1.50812E+04 -1.76112E+04 -2.07612E+03 -2.42618E+04  1.16770E+04 -1.98324E+04  1.96910E+04 -1.01987E+04
  1.91897E+04  5.39199E+02  1.42003E+04  4.13536E+03  7.20931E+03  9.87104E+02  1.00411E+04 -1.74630E+03
  1.82287E+04  2.57931E+03  2.10813E+04  1.61576E+04  1.37679E+04  3.19376E+04 -2.95819E+03  3.69517E+04
 -2.14234E+04  3.01205E+04 -3.39105E+04  1.50451E+04 -3.57633E+04 -2.69374E+03 -2.99257E+04 -2.07117E+04
 -1.22031E+04 -2.98082E+04  1.09841E+04 -2.67043E+04  2.31383E+04 -1.34864E+04  2.01192E+04  5.81788E+03
  7.02102E+03  1.46500E+04 -9.53701E+03  1.35954E+04 -1.68871E+04  2.92543E+03 -1.32961E+04 -1.06045E+04
  4.57086E+02 -1.65320E+04  8.37845E+03 -1.24760E+04  1.10196E+04 -1.12890E+03  2.15972E+03  7.20290E+03
 -6.82989E+03  3.12989E+03 -6.77004E+03 -6.21268E+03 -6.66602E+02 -1.43131E+04  1.04116E+04 -1.50136E+04
  1.81680E+04 -8.21633E+03  1.92949E+04  2.88573E+03  1.69815E+04  1.48255E+04  7.89820E+03  2.25599E+04
 -3.90015E+03  2.41962E+04 -1.54975E+04  1.52387E+04 -1.68028E+04  3.00713E+03 -1.20369E+04 -4.52461E+03
 -5.65612E+03 -6.36700E+03 -9.04301E+02  1.31598E+03 -2.65200E+03  3.00825E+03 -5.70226E+03  4.73583E+03
 -1.12945E+04 -5.54047E+02 -1.21971E+04 -9.99086E+03 -4.81540E+03 -1.64181E+04  5.24211E+03 -1.21399E+04
  1.02837E+04 -5.16902E+03  7.89527E+03  3.18671E+03  1.73558E+02  5.14010E+03 -5.65897E+03 -4.46255E+02
 -5.85015E+03 -8.51816E+03 -1.16038E+03 -1.17218E+04  6.30166E+03 -1.23849E+04  1.47370E+04 -6.66696E+03
  1.68765E+04  1.42776E+03  1.33587E+04  1.05164E+04  2.75723E+03  1.38379E+04 -7.25860E+03  1.19859E+04
 -9.60304E+03  4.11314E+03 -4.82527E+03 -2.31517E+03  1.01804E+03 -3.17235E+03  6.76236E+03 -1.11523E+03
  5.61538E+03  4.99791E+03  1.11782E+03  9.68008E+03 -5.95036E+03  9.37749E+03 -1.18607E+04  2.03209E+03
 -8.16825E+03 -5.82456E+03  5.16480E+02 -1.01661E+04  6.45212E+03 -5.13257E+03  6.41531E+03  2.67611E+03
  9.81068E+02  6.11713E+03 -6.26400E+03  8.22855E+03 -9.74648E+03  3.36516E+03 -9.16407E+03 -3.47526E+03
 -5.46758E+03 -1.07449E+04  2.87810E+03 -1.29984E+04  1.04314E+04 -7.42866E+03  1.12830E+04  2.41130E+03
  7.08379E+03  9.17749E+03 -8.40148E+02  1.10050E+04 -8.13497E+03  6.88648E+03 -8.89319E+03 -7.77665E+02
 -8.02703E+03 -8.16582E+03 -1.89107E+03 -7.88160E+03  4.64077E+03 -7.07509E+03  5.75317E+03 -2.73160E+03
  3.89730E+03  1.12221E+03 -6.91841E+02  1.47340E+03  4.65653E+02 -1.61498E+03  1.43150E+03 -4.31802E+03
  7.58272E+03 -2.20666E+03  1.06809E+04  1.38910E+03  1.09409E+04  7.27644E+03  7.87261E+03  1.35348E+04
 -2.58647E+03  1.52039E+04 -1.37402E+04  1.17283E+04 -1.72011E+04  2.24342E+03 -1.37610E+04 -5.65980E+03
 -7.06566E+03 -1.12648E+04 -2.41047E+02 -9.48451E+03  3.66597E+03 -5.19774E+03  3.58264E+03 -4.20634E+03
  2.26807E+03 -2.47508E+03  2.77409E+03 -3.39676E+03  4.76896E+03 -1.93152E+03  5.93696E+03 -6.95038E+02
  6.54853E+03  1.16482E+03  3.24128E+03  5.77321E+03 -1.50681E+03  6.15858E+03 -7.94211E+03  5.46912E+03
 -9.02255E+03 -1.08969E+03 -4.83833E+03 -6.35283E+03 -7.65879E+02 -9.32278E+03  6.43585E+03 -1.04210E+04
  9.12906E+03 -6.01931E+03  1.26269E+04  1.45697E+03  8.54610E+03  8.14083E+03  1.78987E+03  1.09566E+04
 -4.37032E+03  9.43100E+03 -6.94448E+03  2.61200E+03 -3.68308E+03 -1.75445E+03 -1.43727E+03 -1.08401E+03
 -6.31487E+02  1.38401E+01 -1.13749E+03  2.32406E+03 -3.87115E+03  1.23360E+03 -6.74850E+03 -4.52829E+02
 -4.54910E+03 -6.14977E+03 -2.51880E+02 -9.30646E+03  5.26359E+03 -7.84733E+03  8.15239E+03 -2.59923E+03
  9.10072E+03  4.85416E+03  4.13145E+03  8.05313E+03 -1.87958E+03  8.72271E+03 -6.29394E+03  5.35338E+03
 -8.11050E+03  6.29877E+02 -6.30953E+03 -4.76305E+03 -8.79970E+02 -6.10177E+03  3.69225E+03 -5.37152E+03
  5.38919E+03 -1.99845E+03  3.81839E+03  8.24638E+02  1.04405E+03  2.62927E+03  1.05768E+03  7.73430E+02
  2.00733E+03  7.25603E+02  2.59659E+03  1.49379E+03  2.52092E+03  3.10007E+03  2.25892E+03  4.00007E+03
 -1.27465E+03  6.54137E+03 -5.59365E+03  6.99408E+03 -7.69150E+03  1.62336E+03 -8.56760E+03 -2.79949E+03
 -3.68301E+03 -8.19436E+03  8.35107E+02 -9.37728E+03  4.83793E+03 -4.96758E+03  6.44823E+03 -1.26631E+03
  5.45494E+03  3.50331E+03  9.45376E+02  4.82121E+03 -2.86871E+03  2.07932E+03 -3.70308E+03 -5.18975E+02
 -1.55558E+03 -3.64759E+03  1.55688E+03 -3.72264E+03  3.12028E+03 -2.43810E+03  2.54614E+03  6.33660E+02
  1.68403E+03  1.76242E+03  8.33532E+02  6.55756E+02 -4.26979E+02  7.69827E+02  1.52131E+03 -4.07125E+02
  3.58086E+02  9.22394E+01  3.59057E+03  1.45633E+03  1.34937E+03  4.20456E+03 -5.33093E+01  5.71358E+03
 -4.07883E+03  3.17338E+03 -4.64009E+03  9.16133E+02 -3.75733E+03 -1.62134E+03 -1.68140E+03 -2.40774E+03
  6.05903E+02 -2.95073E+03  1.57889E+03 -1.41602E+03  1.40624E+03  1.69754E+03 -9.65619E+02  2.46450E+03
 -3.30243E+03  1.06300E+03 -3.49713E+03 -2.21515E+03 -1.89446E+03 -3.98930E+03  7.00972E+02 -4.14956E+03
  1.87845E+03 -2.02047E+03  2.62774E+03 -5.15093E+02  2.27664E+03  1.15438E+03  5.04522E+02  2.34584E+03
 -1.07898E+03  1.47780E+03 -1.90850E+03 -1.45644E+03  3.93582E+02 -2.50746E+03  3.92335E+03 -2.61746E+03
  3.85646E+03  1.20694E+02  5.30062E+03  1.91074E+03  1.82192E+03  4.10523E+03 -1.44857E+03  4.43449E+03
 -3.81513E+03  1.45046E+03 -3.45802E+03 -3.40311E+02 -2.05646E+03 -2.94527E+03  2.21361E+02 -2.49789E+03
  3.31811E+03 -1.45962E+03  2.15156E+03  1.45092E+03  1.19522E+03  2.30418E+03 -1.81975E+02  2.46460E+03
 -1.01457E+03  1.95668E+03 -4.58549E+02  7.77911E+01 -3.53407E+02  5.22692E+02 -1.06532E+03  9.87374E+02
 -5.59978E+02  1.80403E+03 -3.60461E+03  1.26062E+03 -4.23715E+03  3.20666E+01 -4.68423E+03 -2.74181E+03
 -2.85545E+03 -5.85669E+03  9.03582E+02 -7.22553E+03  3.20367E+03 -5.47017E+03  5.83056E+03 -2.25050E+03
  5.76257E+03  1.21675E+03  3.39596E+03  3.78039E+03  1.61453E+02  4.69362E+03 -1.42069E+03  2.95033E+03
 -2.88522E+03  1.79642E+03 -1.92678E+03 -4.57072E+02 -4.56688E+02  1.18711E+02 -1.02928E+03 -1.80453E+02
 -1.54453E+03 -1.59344E+02 -1.21979E+03 -8.55434E+01 -6.31504E+02 -9.11383E+02  6.06491E+02 -1.55308E+03
  2.41844E+03 -1.26273E+03  2.38574E+03 -4.17726E+02  2.49328E+03  2.11732E+03  1.03460E+03  4.32666E+03
 -1.39596E+03  5.16762E+03 -4.14220E+03  3.16096E+03 -4.57355E+03 -3.37512E+02 -3.63680E+03 -3.28459E+03
 -1.59903E+03 -3.23964E+03  1.18834E+03 -3.58458E+03  2.49305E+03 -1.47466E+03  2.29898E+03 -1.52994E+02
  1.92424E+03  7.62473E+02 -5.66450E+02  9.95949E+02 -8.21292E+02  2.40790E+02  5.65312E+02 -6.53208E+02
  1.02599E+03 -2.45843E+02  1.35752E+03  2.98416E+02  1.01764E+03  1.20011E+03  3.91099E+02  1.90750E+03
 -1.45071E+03  1.87577E+03 -1.98482E+03  2.93771E+02 -1.57007E+03 -1.83271E+03 -4.44083E+01 -3.29926E+03
  1.78846E+03 -2.62505E+03  2.78491E+03 -9.01407E+02  2.74521E+03 -1.76810E+02  1.53846E+03  2.39827E+03
  2.68060E+02  2.07603E+03 -8.08497E+02  2.26653E+03 -1.51535E+03  1.26276E+03 -1.25023E+03 -7.08487E+01
 -9.62446E+01 -3.13050E+02 -1.04477E+03  8.33225E+02 -1.36430E+03  5.83741E+02 -2.02032E+03 -4.45863E+02
 -1.47321E+03 -6.09748E+02 -5.44849E+02 -2.53496E+03  1.19558E+03 -3.01107E+03  2.77645E+03 -1.83498E+03
  2.61234E+03  3.55784E+02  9.71786E+02  1.58579E+03  3.63808E+02  2.83942E+03 -2.16873E+03  2.16912E+03
