 $NMID ID='MM_0lb_SNR400_16hz_g60_30.RAW', FMTDAT='(8E13.5)'
 TRAMP=1., VOLUME=1. $END
  3.09159E+05 -2.26756E+02  3.37965E+05  2.50182E+05  8.44503E+04  3.38432E+05 -1.32830E+05  2.51331E+05
 -1.90569E+05  8.35820E+04 -1.12056E+05 -3.27667E+04  2.92266E+02 -5.07334E+04  5.36001E+04 -3.23827E+02
  3.53977E+04  5.31139E+04 -1.61951E+04  7.54217E+04 -6.14332E+04  6.33433E+04 -8.43355E+04  3.24417E+04
 -8.13112E+04 -1.15200E+04 -5.78195E+04 -5.11627E+04 -1.49071E+04 -7.02013E+04  2.73086E+04 -4.53028E+04
  4.03452E+04  3.96123E+03  1.60741E+04  4.83270E+04 -3.42119E+04  4.75436E+04 -6.63543E+04 -3.84292E+02
 -5.34500E+04 -5.69199E+04 -6.68519E+03 -7.68450E+04  3.38909E+04 -5.52983E+04  4.78403E+04 -1.71825E+04
  4.31748E+04  1.12153E+04  3.19563E+04  2.54907E+04  1.57679E+04  2.94056E+04 -5.40310E+03  2.74271E+04
 -2.16752E+04  1.26148E+04 -1.87545E+04 -5.06052E+03  6.02129E+03 -7.20280E+03  2.23349E+04  1.23663E+04
  7.82080E+03  3.54713E+04 -3.20490E+04  3.57807E+04 -6.34534E+04  2.22604E+03 -5.67414E+04 -4.23817E+04
 -1.19519E+04 -6.31314E+04  3.96994E+04 -4.56289E+04  5.90737E+04 -1.53197E+03  3.36889E+04  3.27193E+04
 -6.49757E+03  3.64462E+04 -3.01315E+04  1.62232E+04 -2.99621E+04 -4.11708E+03 -1.70616E+04 -1.10384E+04
 -8.57844E+03 -1.26207E+04 -5.59705E+02 -1.80910E+04  7.30992E+03 -2.28185E+04  1.55476E+04 -1.37506E+04
  1.15936E+04  5.37537E+03 -8.63889E+03  1.33068E+04 -2.12743E+04 -4.35374E+03 -8.94488E+03 -3.38393E+04
  2.32042E+04 -4.29711E+04  4.79572E+04 -1.98738E+04  4.56107E+04  1.98883E+04  1.57896E+04  4.41463E+04
 -1.58685E+04  3.35398E+04 -2.52868E+04  2.06682E+03 -9.82530E+03 -2.78164E+04  2.07020E+04 -3.34224E+04
  4.13461E+04 -8.72511E+03  3.56819E+04  2.36843E+04  1.80590E+04  4.62837E+04 -7.99836E+03  5.06380E+04
 -3.13212E+04  3.38326E+04 -4.20212E+04  9.54003E+03 -4.28469E+04 -1.63843E+04 -2.32642E+04 -3.80676E+04
  7.51000E+03 -3.76087E+04  3.24590E+04 -1.50145E+04  2.92294E+04  1.06101E+04  4.16944E+03  1.93717E+04
 -1.30232E+04  8.19705E+03 -1.01492E+04 -8.04561E+03  5.75939E+03 -1.05208E+04  1.77415E+04  5.89866E+03
  1.28475E+04  2.22804E+04 -5.68826E+03  2.45368E+04 -2.19189E+04  1.12238E+04 -2.77888E+04 -5.27529E+03
 -2.04920E+04 -1.72210E+04 -8.27132E+03 -2.03614E+04  4.03505E+03 -1.94122E+04  1.50856E+04 -1.83843E+04
  2.57486E+04 -1.26488E+04  3.24674E+04  2.78596E+03  2.39345E+04  1.94086E+04  4.59611E+03  3.61401E+04
 -1.74872E+04  2.97794E+04 -2.80018E+04  1.06080E+04 -2.05784E+04 -1.01558E+04 -4.16699E+03 -1.32499E+04
  1.94317E+03 -3.16222E+03 -4.62392E+03  6.25175E+03 -1.57900E+04  5.09209E+03 -1.70502E+04 -6.57192E+03
 -1.03003E+04 -1.86551E+04  5.44622E+03 -2.29042E+04  1.46367E+04 -1.63878E+04  1.75390E+04 -1.27269E+03
  1.11394E+04  1.37656E+04 -1.22416E+03  1.86767E+04 -1.23277E+04  1.04180E+04 -1.87281E+04 -4.03906E+03
 -1.46906E+04 -1.66177E+04 -1.77559E+03 -2.27319E+04  1.00674E+04 -1.81273E+04  1.86121E+04 -8.94551E+03
  1.75136E+04  2.70564E+02  1.22645E+04  4.00818E+03  6.53514E+03  5.33466E+02  9.53836E+03 -1.81272E+03
  1.70423E+04  2.41668E+03  1.84453E+04  1.50592E+04  1.23424E+04  2.91923E+04 -2.97462E+03  3.29373E+04
 -1.90160E+04  2.66680E+04 -3.10754E+04  1.34865E+04 -3.22377E+04 -2.35180E+03 -2.70397E+04 -1.86401E+04
 -1.20322E+04 -2.66102E+04  9.31482E+03 -2.39410E+04  2.05635E+04 -1.26021E+04  1.93471E+04  5.45049E+03
  7.37499E+03  1.38469E+04 -9.41252E+03  1.22083E+04 -1.59429E+04  2.29776E+03 -1.21890E+04 -9.52728E+03
 -7.71887E+02 -1.49828E+04  7.70174E+03 -1.09036E+04  9.88943E+03 -1.45456E+03  1.65156E+03  6.44736E+03
 -6.56900E+03  2.58841E+03 -5.46916E+03 -5.22294E+03 -4.94901E+02 -1.22781E+04  9.02684E+03 -1.38630E+04
  1.59137E+04 -6.87265E+03  1.63924E+04  2.46632E+03  1.44585E+04  1.29030E+04  6.22907E+03  1.90684E+04
 -2.65229E+03  2.09991E+04 -1.29571E+04  1.33570E+04 -1.47657E+04  3.41470E+03 -1.09457E+04 -3.27442E+03
 -4.78825E+03 -4.81033E+03 -8.56873E+02  1.27184E+03 -2.22904E+03  2.70325E+03 -4.90125E+03  4.67999E+03
 -1.02299E+04 -8.61992E+02 -1.08324E+04 -8.11829E+03 -4.58851E+03 -1.39148E+04  4.09032E+03 -1.04051E+04
  9.45507E+03 -4.65930E+03  6.23164E+03  2.47848E+03  2.27524E+02  3.98960E+03 -4.51466E+03  1.65929E+02
 -4.90629E+03 -6.55721E+03 -9.27490E+02 -1.02326E+04  5.90194E+03 -1.09441E+04  1.32467E+04 -5.59359E+03
  1.53632E+04  4.69934E+02  1.09705E+04  8.94578E+03  2.34078E+03  1.18676E+04 -6.72399E+03  1.04424E+04
 -8.37627E+03  3.38905E+03 -4.30791E+03 -1.79353E+03  1.59431E+03 -2.30375E+03  5.49662E+03 -8.77651E+02
  5.25404E+03  4.48342E+03  1.17119E+03  8.24022E+03 -5.63380E+03  8.33150E+03 -1.01712E+04  1.89497E+03
 -6.33606E+03 -4.82307E+03  2.22159E+02 -8.86631E+03  5.35616E+03 -3.97798E+03  5.37489E+03  1.95238E+03
  9.03148E+02  4.91220E+03 -4.68725E+03  5.72776E+03 -7.38948E+03  3.08107E+03 -6.84117E+03 -2.55715E+03
 -4.73514E+03 -9.40541E+03  2.35627E+03 -9.77507E+03  8.34902E+03 -6.58280E+03  9.51759E+03  7.48930E+02
  5.58688E+03  7.30242E+03 -2.67929E+02  9.58194E+03 -7.22235E+03  5.83301E+03 -7.39364E+03 -6.64104E+02
 -6.40436E+03 -6.43989E+03 -1.01903E+03 -6.49851E+03  3.62446E+03 -6.06024E+03  4.45056E+03 -3.08823E+03
  3.65815E+03  9.05145E+02 -9.69359E+02  1.21121E+03  2.28339E+02 -1.00514E+03  1.40018E+03 -3.15049E+03
  6.19935E+03 -1.79395E+03  7.78262E+03  1.34210E+03  8.02776E+03  4.68957E+03  7.06668E+03  1.09030E+04
 -1.91665E+03  1.27634E+04 -1.09494E+04  9.58292E+03 -1.44571E+04  6.35512E+02 -1.10649E+04 -4.03983E+03
 -5.76328E+03 -9.80987E+03 -5.99823E+02 -7.05464E+03  2.68435E+03 -3.72077E+03  2.39193E+03 -2.79154E+03
  9.88612E+02 -1.65840E+03  2.39207E+03 -2.21278E+03  4.15925E+03 -2.10012E+03  5.08970E+03 -1.43565E+02
  5.81682E+03  1.63990E+03  2.94727E+03  5.52448E+03 -1.52485E+03  4.48690E+03 -6.07456E+03  4.35871E+03
 -7.45761E+03 -1.29752E+03 -3.75713E+03 -5.23595E+03  4.04620E+02 -7.80075E+03  4.84464E+03 -7.57825E+03
  7.90544E+03 -4.21897E+03  9.97231E+03  1.13576E+03  7.38070E+03  6.14710E+03  1.08759E+03  8.77685E+03
 -3.44674E+03  8.22288E+03 -4.68080E+03  3.26547E+03 -3.68798E+03 -1.18475E+03 -1.70898E+03 -1.18118E+03
 -7.82109E+02  7.20428E+02 -1.50558E+03  1.88567E+03 -3.40272E+03  1.04307E+03 -5.59144E+03 -8.90759E+02
 -2.68530E+03 -5.42805E+03  6.56452E+02 -6.91847E+03  3.92189E+03 -6.03316E+03  6.19290E+03 -1.68484E+03
  6.17300E+03  2.98302E+03  2.99637E+03  5.30375E+03 -1.50569E+03  6.62340E+03 -4.13824E+03  3.81896E+03
 -6.21017E+03  5.41685E+02 -5.24220E+03 -3.56192E+03 -7.88941E+02 -4.84219E+03  2.28106E+03 -3.93977E+03
  3.90629E+03 -1.75060E+03  3.11320E+03  1.03456E+03  1.38909E+03  1.70633E+03  1.51426E+03  1.14699E+03
  1.29942E+03  6.75632E+02  2.58004E+03  1.24907E+03  1.95404E+03  1.80928E+03  1.58296E+03  3.07127E+03
 -1.33816E+03  4.26808E+03 -3.75497E+03  5.62909E+03 -5.68336E+03  2.01423E+03 -6.18195E+03 -1.68817E+03
 -2.75230E+03 -5.90380E+03  6.88287E+02 -7.15215E+03  2.71740E+03 -4.32809E+03  4.79783E+03 -1.14717E+03
  3.50723E+03  2.26881E+03  7.36352E+02  3.71242E+03 -1.10150E+03  2.08689E+03 -2.24864E+03 -3.55682E+01
 -1.12817E+03 -2.71205E+03  9.79213E+02 -2.76409E+03  2.29451E+03 -1.18423E+03  2.65302E+03  5.27941E+02
  1.05891E+03  7.21137E+02  1.21661E+03  4.59154E+02 -1.78645E+02  9.75382E+02  9.79441E+02 -6.30516E+02
  2.29712E+02 -7.62303E+01  2.46846E+03  1.31533E+03  7.59233E+02  2.61104E+03 -8.69081E+02  3.97086E+03
 -2.34469E+03  1.59642E+03 -3.03057E+03  1.19117E+03 -4.14717E+03 -1.45395E+03 -8.56976E+02 -1.63702E+03
  3.29780E+02 -1.92220E+03  1.11868E+03 -1.45718E+03  1.26131E+03  8.21446E+02 -3.21687E+02  1.58913E+03
 -2.06055E+03  1.19195E+03 -2.11533E+03 -1.22162E+03 -1.71138E+03 -3.27821E+03  5.12343E+02 -2.91037E+03
  1.68135E+03 -1.39017E+03  1.82229E+03 -8.15486E+02  1.91195E+03  6.17853E+02  4.43267E+02  1.77704E+03
 -4.32237E+02  2.01233E+02 -8.99738E+02 -9.52213E+02  3.69077E+02 -1.47283E+03  2.73718E+03 -1.62923E+03
  2.80106E+03  1.13972E+02  4.29435E+03  1.40488E+03  1.46203E+03  2.82556E+03 -1.04600E+03  2.34375E+03
 -2.69427E+03  1.31082E+03 -2.34673E+03 -7.45122E+02 -2.06791E+03 -2.20400E+03  6.42162E+02 -1.42557E+03
  2.04804E+03 -1.40702E+03  1.42467E+03  1.06944E+03  1.22392E+02  2.04865E+03  5.24169E+02  1.21342E+03
 -4.61899E+02  1.27596E+03 -1.06495E+03  4.48160E+02 -4.87625E+02  2.77569E+01 -2.43395E+02  1.59053E+03
 -1.09224E+03  7.55724E+02 -2.40357E+03  1.05308E+03 -2.79565E+03  5.30714E+02 -4.29771E+03 -1.68103E+03
 -1.62883E+03 -4.23726E+03  7.85197E+02 -4.98732E+03  2.20083E+03 -4.28761E+03  4.24322E+03 -1.36605E+03
  4.20569E+03  4.07725E+02  2.04144E+03  2.54911E+03 -3.09634E+02  2.41684E+03 -1.37139E+03  1.76729E+03
 -1.76920E+03  3.41446E+02 -1.34299E+03 -3.57502E+01 -7.54665E+02  4.24377E+02 -8.45108E+02  4.68869E+01
 -1.55906E+03 -2.84172E+02 -4.18143E+02  2.98552E+02  1.32470E+02 -2.72302E+02 -5.77198E+02 -1.22383E+03
  1.22917E+03 -2.99407E+02  1.24368E+03 -8.97084E+01  2.10781E+03  1.66238E+03 -1.27797E+02  2.73423E+03
 -1.35076E+03  3.58935E+03 -3.07985E+03  2.34318E+03 -3.62939E+03 -1.04589E+02 -2.42798E+03 -2.61182E+03
 -9.69262E+02 -2.90382E+03  4.33331E+02 -2.33474E+03  1.27879E+03 -1.32332E+03  1.38530E+03 -1.23294E+02
  1.10112E+03  2.21313E+02  2.51112E+02  7.42755E+02 -3.75358E+02 -4.57888E+01 -7.80228E+01 -5.26611E+02
  8.82382E+02  2.05389E+02  6.44791E+02  8.83538E+02 -2.89634E+02  7.11810E+02  3.12870E+02  6.69418E+02
 -1.45778E+03  1.48224E+03 -1.49459E+03 -4.71010E+02 -1.20308E+03 -1.35676E+03  3.69718E+01 -2.05759E+03
  9.64275E+02 -1.71519E+03  1.57242E+03  6.59124E+01  1.85583E+03 -7.21343E+01  1.08571E+03  1.02703E+03
  4.88781E+01  1.55336E+03 -1.49736E+01  1.05863E+03 -1.12809E+03  3.64824E+02 -5.71265E+02  5.37173E+02
 -5.59499E+01 -7.32710E+01 -8.72723E+02  2.36094E+02 -8.38217E+02  4.50791E+02 -1.08242E+03 -1.63996E+02
 -1.31347E+03 -2.50547E+02 -1.00289E+03 -1.47038E+03  4.98599E+02 -2.01994E+03  1.31153E+03 -9.60788E+02
  1.70883E+03  2.36262E+02 -1.74497E+02  6.17204E+02 -5.69061E+02  1.91466E+03 -5.79573E+02  1.18483E+03
