 $NMID ID='MM_0lb_SNR400_12hz_g45_24.RAW', FMTDAT='(8E13.5)'
 TRAMP=1., VOLUME=1. $END
  3.09233E+05  1.60051E+02  3.38289E+05  2.51107E+05  8.50641E+04  3.38931E+05 -1.32604E+05  2.51124E+05
 -1.90450E+05  8.39292E+04 -1.11293E+05 -3.25870E+04  9.41507E+02 -5.07988E+04  5.43371E+04 -4.43424E+02
  3.52759E+04  5.30466E+04 -1.67842E+04  7.51945E+04 -6.04999E+04  6.41491E+04 -8.39707E+04  3.20287E+04
 -8.09083E+04 -1.11715E+04 -5.72063E+04 -5.15969E+04 -1.49289E+04 -7.07196E+04  2.71074E+04 -4.60202E+04
  4.00594E+04  3.69714E+03  1.67250E+04  4.72291E+04 -3.48510E+04  4.67474E+04 -6.75164E+04  2.35452E+02
 -5.38270E+04 -5.66196E+04 -6.92015E+03 -7.77321E+04  3.45348E+04 -5.56603E+04  4.87065E+04 -1.74033E+04
  4.42670E+04  1.13250E+04  3.21778E+04  2.62885E+04  1.49721E+04  2.99365E+04 -5.40141E+03  2.76393E+04
 -2.20550E+04  1.23181E+04 -1.87016E+04 -5.35132E+03  5.90798E+03 -6.96575E+03  2.23359E+04  1.25565E+04
  7.35661E+03  3.55773E+04 -3.23146E+04  3.64803E+04 -6.40886E+04  2.38942E+03 -5.73833E+04 -4.34148E+04
 -1.28641E+04 -6.33035E+04  4.01953E+04 -4.57098E+04  5.91068E+04 -1.46334E+03  3.54921E+04  3.28239E+04
 -5.70486E+03  3.72686E+04 -3.05916E+04  1.65091E+04 -3.14151E+04 -3.90496E+03 -1.72179E+04 -1.06358E+04
 -9.07688E+03 -1.41199E+04 -2.39249E+02 -1.91038E+04  7.73045E+03 -2.38397E+04  1.55311E+04 -1.30273E+04
  1.06205E+04  5.32597E+03 -8.93566E+03  1.30999E+04 -2.16403E+04 -5.23590E+03 -8.30190E+03 -3.46208E+04
  2.41227E+04 -4.46020E+04  4.92703E+04 -2.07123E+04  4.63742E+04  1.98023E+04  1.59020E+04  4.51239E+04
 -1.69780E+04  3.44757E+04 -2.58448E+04  2.46035E+03 -1.02080E+04 -2.82222E+04  2.18507E+04 -3.54340E+04
  4.18937E+04 -1.00744E+04  3.70275E+04  2.44350E+04  1.84844E+04  4.75374E+04 -8.09567E+03  5.24986E+04
 -3.30696E+04  3.53877E+04 -4.36446E+04  1.01534E+04 -4.37340E+04 -1.72331E+04 -2.39512E+04 -3.90692E+04
  8.07269E+03 -3.90063E+04  3.23650E+04 -1.59371E+04  2.98978E+04  1.16282E+04  4.83953E+03  2.01292E+04
 -1.36464E+04  8.10269E+03 -1.12816E+04 -7.17220E+03  5.11088E+03 -1.15619E+04  1.84087E+04  6.00449E+03
  1.45899E+04  2.25071E+04 -5.74697E+03  2.59916E+04 -2.25623E+04  1.27045E+04 -2.90723E+04 -3.90370E+03
 -2.10522E+04 -1.71640E+04 -9.56973E+03 -2.15355E+04  4.14865E+03 -2.08582E+04  1.69334E+04 -1.98619E+04
  2.78658E+04 -1.30161E+04  3.38524E+04  3.56010E+03  2.41991E+04  2.16523E+04  4.88944E+03  3.82169E+04
 -1.84193E+04  3.15765E+04 -2.88109E+04  1.10634E+04 -2.12950E+04 -1.02886E+04 -5.50146E+03 -1.36433E+04
  9.82646E+02 -1.91550E+03 -5.64824E+03  7.24182E+03 -1.70907E+04  4.87907E+03 -1.77373E+04 -7.69149E+03
 -1.07154E+04 -2.05905E+04  5.26407E+03 -2.45446E+04  1.72461E+04 -1.80125E+04  1.92460E+04 -1.65420E+03
  1.29010E+04  1.45107E+04 -1.55932E+03  2.01276E+04 -1.38576E+04  1.15424E+04 -2.05455E+04 -4.04805E+03
 -1.50592E+04 -1.83181E+04 -2.35117E+03 -2.45957E+04  1.13088E+04 -1.97966E+04  1.97429E+04 -9.77029E+03
  1.96947E+04 -3.14660E+02  1.43940E+04  4.59697E+03  6.75829E+03  4.16391E+02  1.01630E+04 -2.13979E+03
  1.95387E+04  2.88957E+03  2.04486E+04  1.61279E+04  1.38323E+04  3.21194E+04 -3.27833E+03  3.73544E+04
 -2.09150E+04  3.08905E+04 -3.49737E+04  1.59020E+04 -3.68072E+04 -1.96618E+03 -3.01422E+04 -2.08205E+04
 -1.29803E+04 -3.05278E+04  1.04937E+04 -2.69249E+04  2.37116E+04 -1.36677E+04  1.98047E+04  6.06948E+03
  7.60052E+03  1.54807E+04 -9.80006E+03  1.35400E+04 -1.76178E+04  2.61553E+03 -1.26319E+04 -1.08687E+04
 -3.46854E+02 -1.67946E+04  8.75490E+03 -1.18788E+04  1.12049E+04 -1.39249E+03  2.63366E+03  7.42380E+03
 -7.83896E+03  2.95518E+03 -6.73948E+03 -5.80936E+03 -1.03024E+03 -1.45793E+04  9.75183E+03 -1.62918E+04
  1.90219E+04 -8.00298E+03  2.05097E+04  3.24351E+03  1.74721E+04  1.49373E+04  8.71845E+03  2.33500E+04
 -4.29001E+03  2.50199E+04 -1.58829E+04  1.56518E+04 -1.79131E+04  3.53223E+03 -1.19186E+04 -4.54266E+03
 -5.83231E+03 -5.83825E+03 -6.82028E+02  1.31029E+03 -2.57708E+03  2.87840E+03 -6.08060E+03  4.19561E+03
 -1.18086E+04 -1.11234E+03 -1.25533E+04 -1.00553E+04 -5.16232E+03 -1.58818E+04  5.31317E+03 -1.19000E+04
  1.07179E+04 -5.00616E+03  7.89665E+03  3.06625E+03 -1.10597E+02  5.00918E+03 -6.36802E+03  5.68010E+02
 -5.80754E+03 -8.42380E+03 -9.57784E+02 -1.06148E+04  7.18718E+03 -1.34022E+04  1.58387E+04 -7.20717E+03
  1.82216E+04  1.23237E+03  1.31845E+04  1.05117E+04  3.09780E+03  1.51175E+04 -7.50600E+03  1.32600E+04
 -9.99780E+03  3.27453E+03 -5.44810E+03 -2.08263E+03  2.30763E+03 -2.20641E+03  6.27367E+03 -9.25542E+02
  5.48115E+03  4.91664E+03  1.20517E+03  1.01780E+04 -7.16877E+03  9.60369E+03 -1.19285E+04  2.23529E+03
 -7.90249E+03 -6.11824E+03 -3.57259E+02 -1.02654E+04  7.07487E+03 -5.18352E+03  6.71329E+03  2.57742E+03
  1.17964E+03  7.62721E+03 -6.14042E+03  9.04789E+03 -9.85455E+03  3.94440E+03 -1.02499E+04 -3.36481E+03
 -5.73391E+03 -1.15340E+04  3.06057E+03 -1.38587E+04  1.04162E+04 -8.08630E+03  1.21937E+04  2.75571E+03
  8.22848E+03  9.86686E+03 -8.00616E+02  1.18518E+04 -8.66163E+03  6.33491E+03 -8.92591E+03 -7.83918E+02
 -8.53468E+03 -7.85656E+03 -1.41273E+03 -8.90206E+03  4.36500E+03 -7.38635E+03  4.87088E+03 -3.41972E+03
  3.86681E+03  1.55100E+03 -3.70806E+02  1.62950E+03 -2.73423E+02 -1.55498E+03  1.68460E+03 -4.92312E+03
  8.52397E+03 -3.13229E+03  1.11124E+04  1.60557E+03  1.10314E+04  8.00240E+03  8.30717E+03  1.49085E+04
 -3.08995E+03  1.69274E+04 -1.44850E+04  1.25706E+04 -1.89250E+04  1.74659E+03 -1.49944E+04 -6.07479E+03
 -7.98045E+03 -1.25120E+04 -3.56161E+02 -1.00231E+04  3.10230E+03 -5.76287E+03  3.49894E+03 -3.30514E+03
  2.37247E+03 -2.33010E+03  3.45137E+03 -2.96437E+03  5.25482E+03 -1.99773E+03  6.03639E+03 -4.93327E+02
  7.55795E+03  2.63191E+03  3.91843E+03  7.19426E+03 -2.18776E+03  7.93970E+03 -7.94120E+03  5.91181E+03
 -1.02810E+04 -7.01928E+02 -6.34116E+03 -7.53438E+03 -5.22808E+02 -1.03586E+04  6.09688E+03 -1.09048E+04
  1.17722E+04 -6.39136E+03  1.35663E+04  1.43191E+03  9.22205E+03  9.18768E+03  1.34692E+03  1.28354E+04
 -5.20468E+03  1.07698E+04 -7.15115E+03  3.04359E+03 -4.11711E+03 -1.04824E+03 -1.98407E+03 -1.13383E+03
 -5.73097E+02  1.82860E+00 -1.10596E+03  1.80322E+03 -4.57542E+03  1.78031E+03 -7.53343E+03 -1.33683E+03
 -4.93692E+03 -7.31403E+03  7.98165E+02 -9.55766E+03  5.54303E+03 -9.62932E+03  9.44647E+03 -3.05460E+03
  9.91842E+03  4.64861E+03  4.36193E+03  9.15087E+03 -1.48432E+03  1.03045E+04 -6.50488E+03  6.56264E+03
 -9.34514E+03  1.39933E+03 -7.80326E+03 -6.01482E+03 -4.33646E+02 -8.05692E+03  4.05040E+03 -5.85322E+03
  6.57154E+03 -2.80363E+03  4.75824E+03  1.93613E+03  4.50261E+02  3.37142E+03  9.21320E+02  1.49403E+03
  1.82601E+03  9.18256E+02  1.93003E+03  1.27306E+03  2.90633E+03  3.52028E+03  2.52706E+03  5.46952E+03
 -1.82930E+03  7.52475E+03 -6.63461E+03  7.98701E+03 -8.60125E+03  2.44865E+03 -1.05923E+04 -3.47798E+03
 -4.27658E+03 -9.29046E+03  1.40890E+03 -1.16402E+04  5.36753E+03 -6.99632E+03  8.01732E+03 -1.74540E+03
  6.08443E+03  3.72328E+03  1.25149E+03  5.34693E+03 -2.64660E+03  3.27182E+03 -4.18438E+03 -7.13493E+02
 -1.85272E+03 -3.63247E+03  2.58390E+03 -3.43231E+03  4.60390E+03 -2.47997E+03  3.51724E+03  9.65265E+02
  2.14642E+03  2.19081E+03  1.05740E+03  9.81850E+02  1.33769E+02  9.80808E+02  8.57598E+02 -6.68942E+02
  1.55180E+03 -3.92647E+02  4.00943E+03  1.31511E+03  1.86727E+03  5.67931E+03 -1.00794E+03  6.76701E+03
 -4.91072E+03  4.00690E+03 -6.32535E+03  1.18277E+03 -5.88114E+03 -1.80553E+03 -1.55677E+03 -3.10074E+03
  2.89044E+02 -3.12310E+03  2.70479E+03 -2.05733E+03  1.93684E+03  1.45091E+03 -6.67983E+02  3.38356E+03
 -4.10013E+03  1.72863E+03 -4.71916E+03 -2.32921E+03 -2.21390E+03 -5.17373E+03  7.45750E+02 -4.92355E+03
  3.37704E+03 -2.68850E+03  4.74002E+03  1.93548E+01  2.86632E+03  1.42657E+03  5.56469E+02  2.71126E+03
 -1.74428E+03  9.99502E+02 -2.11265E+03 -1.76081E+03  1.09485E+03 -2.97984E+03  4.89777E+03 -3.30675E+03
  4.80418E+03  6.20115E+02  5.56351E+03  3.21295E+03  1.54576E+03  5.81826E+03 -1.93977E+03  5.43838E+03
 -4.37902E+03  2.06832E+03 -5.31675E+03 -6.93042E+02 -3.25966E+03 -3.65440E+03  9.04434E+02 -2.84593E+03
  3.51525E+03 -1.14366E+03  3.62013E+03  1.69072E+03  6.63876E+02  3.57473E+03 -3.57031E+02  3.36383E+03
 -1.68723E+03  2.14759E+03 -1.40764E+03  6.63021E+02 -1.42590E+01  1.25799E+03 -1.06358E+03  1.45123E+03
 -2.38987E+03  1.82085E+03 -4.61936E+03  2.66634E+03 -5.42279E+03  1.07544E+02 -7.55697E+03 -4.31148E+03
 -3.31157E+03 -7.33111E+03  1.66941E+03 -8.99241E+03  5.66130E+03 -7.71116E+03  8.82159E+03 -1.84623E+03
  7.51901E+03  2.22328E+03  4.97145E+03  5.76535E+03  2.21008E+02  5.80822E+03 -3.03021E+03  4.65905E+03
 -3.75053E+03  1.78394E+03 -2.76590E+03 -7.96444E+02 -1.19914E+03 -6.26374E+02 -3.57313E+02  5.34119E+01
 -1.86573E+03  1.88518E+02 -1.58387E+03 -4.96239E+02 -5.82399E+02 -1.69979E+03 -5.38307E+02 -2.40669E+03
  2.74372E+03 -1.45351E+03  2.98357E+03  1.80202E+02  4.22004E+03  3.72491E+03  4.13371E+02  5.56913E+03
 -2.97849E+03  7.66631E+03 -6.75851E+03  4.38594E+03 -6.62018E+03 -5.40246E+02 -5.15511E+03 -4.11464E+03
 -2.49242E+03 -6.09439E+03  1.73675E+03 -5.28245E+03  3.34533E+03 -2.71650E+03  3.10453E+03  3.12075E+02
  2.39128E+03  2.51795E+03  5.07652E+02  1.86183E+03 -1.26490E+03 -2.97530E+02 -3.18949E+02 -6.38711E+02
  2.04379E+03 -5.33815E+02  2.10085E+03  4.46228E+02  1.35904E+03  1.61244E+03  8.20307E+02  2.43283E+03
 -2.53088E+03  2.61552E+03 -3.00228E+03  6.49450E+02 -3.27245E+03 -2.67179E+03 -1.82011E+01 -4.75474E+03
  2.30209E+03 -3.28773E+03  3.55972E+03 -1.04895E+03  3.78795E+03  1.44067E+02  2.45448E+03  3.11109E+03
  4.75846E+02  3.51760E+03 -1.72187E+03  3.13417E+03 -2.05985E+03  1.63170E+03 -2.39601E+03  4.69964E+02
 -4.65157E+02 -2.58157E+02 -1.34179E+03  9.88112E+01 -1.41900E+03  6.33029E+02 -3.43276E+03 -6.49714E+02
 -2.20909E+03 -1.77952E+03 -1.44240E+03 -3.33988E+03  1.55311E+03 -3.63433E+03  3.14435E+03 -1.87630E+03
  2.91788E+03  4.59756E+02  1.53718E+03  2.16087E+03  4.56743E+02  2.72881E+03 -2.74491E+03  2.54053E+03
