 $NMID ID='MM_0lb_SNR400_8hz_g45_4.RAW', FMTDAT='(8E13.5)'
 TRAMP=1., VOLUME=1. $END
  3.10060E+05  6.10836E+02  3.37902E+05  2.51030E+05  8.49904E+04  3.37961E+05 -1.32052E+05  2.52171E+05
 -1.90813E+05  8.44846E+04 -1.13162E+05 -3.21281E+04  5.54975E+01 -5.07383E+04  5.28624E+04 -2.76660E+02
  3.57878E+04  5.32876E+04 -1.67577E+04  7.61801E+04 -6.11819E+04  6.48318E+04 -8.57732E+04  3.25884E+04
 -8.33709E+04 -1.18128E+04 -5.94052E+04 -5.17704E+04 -1.49788E+04 -7.09087E+04  2.87997E+04 -4.77870E+04
  4.16282E+04  3.55205E+03  1.71264E+04  4.91781E+04 -3.47452E+04  4.83064E+04 -6.83967E+04 -2.45365E-01
 -5.49257E+04 -5.78974E+04 -7.36094E+03 -7.90403E+04  3.50469E+04 -5.72557E+04  5.03521E+04 -1.78487E+04
  4.62435E+04  1.14774E+04  3.33015E+04  2.60957E+04  1.65766E+04  3.14697E+04 -5.63914E+03  2.74215E+04
 -2.22555E+04  1.13522E+04 -1.77363E+04 -5.32197E+03  8.02188E+03 -7.34759E+03  2.36365E+04  1.37160E+04
  6.46870E+03  3.75561E+04 -3.40668E+04  3.75511E+04 -6.64666E+04  2.12114E+03 -5.90628E+04 -4.41634E+04
 -1.24258E+04 -6.66374E+04  4.20788E+04 -4.77124E+04  6.20235E+04 -3.02221E+03  3.72776E+04  3.51520E+04
 -5.57247E+03  4.01778E+04 -3.20571E+04  1.85255E+04 -3.32100E+04 -3.96383E+03 -1.97715E+04 -1.19888E+04
 -8.21318E+03 -1.52624E+04  7.35431E+02 -1.93681E+04  8.93044E+03 -2.33774E+04  1.62974E+04 -1.31282E+04
  1.06872E+04  6.23010E+03 -1.00016E+04  1.29629E+04 -2.40198E+04 -6.90312E+03 -8.33852E+03 -3.79528E+04
  2.55355E+04 -4.64722E+04  5.23821E+04 -2.08583E+04  4.85428E+04  2.11361E+04  1.75942E+04  4.69060E+04
 -1.71021E+04  3.74122E+04 -2.79650E+04  2.42655E+03 -1.23746E+04 -2.91121E+04  2.13294E+04 -3.71239E+04
  4.49409E+04 -1.07438E+04  4.13385E+04  2.59440E+04  2.21220E+04  5.20097E+04 -7.46391E+03  5.62507E+04
 -3.57912E+04  3.84105E+04 -4.81087E+04  1.19040E+04 -4.83034E+04 -2.00289E+04 -2.65770E+04 -4.23097E+04
  7.91867E+03 -4.26833E+04  3.37345E+04 -1.67050E+04  3.26368E+04  1.06803E+04  4.82559E+03  2.04104E+04
 -1.36966E+04  1.01313E+04 -1.15527E+04 -7.33910E+03  5.97462E+03 -1.12597E+04  1.94878E+04  5.55149E+03
  1.50589E+04  2.31170E+04 -4.98210E+03  2.73854E+04 -2.32017E+04  1.45601E+04 -3.29568E+04 -3.09897E+03
 -2.61372E+04 -1.80035E+04 -1.25379E+04 -2.58874E+04  3.73592E+03 -2.64110E+04  2.05389E+04 -2.32645E+04
  3.25287E+04 -1.40892E+04  3.93215E+04  6.01503E+03  2.79020E+04  2.49359E+04  4.51362E+03  4.17849E+04
 -2.01621E+04  3.38226E+04 -3.09661E+04  1.22828E+04 -2.28819E+04 -9.45993E+03 -5.29655E+03 -1.29085E+04
  4.86709E+02 -6.41694E+02 -7.78370E+03  7.68205E+03 -2.04301E+04  5.00081E+03 -2.09569E+04 -9.62529E+03
 -1.21737E+04 -2.33439E+04  6.71347E+03 -2.84909E+04  1.89400E+04 -2.06836E+04  2.21237E+04 -1.75713E+03
  1.45836E+04  1.61264E+04 -6.70102E+02  2.37968E+04 -1.77902E+04  1.35695E+04 -2.45612E+04 -5.85138E+03
 -1.74840E+04 -2.15740E+04 -1.60300E+03 -2.83694E+04  1.25322E+04 -2.34052E+04  2.34560E+04 -1.24622E+04
  2.26764E+04  2.14333E+02  1.68443E+04  4.66504E+03  9.32001E+03  1.78356E+03  1.22767E+04 -2.09115E+03
  2.27309E+04  2.72590E+03  2.63212E+04  1.85625E+04  1.78942E+04  3.83319E+04 -2.77412E+03  4.55481E+04
 -2.59529E+04  3.82014E+04 -4.27760E+04  1.94840E+04 -4.62630E+04 -4.07712E+03 -3.75724E+04 -2.68691E+04
 -1.40558E+04 -3.82052E+04  1.36419E+04 -3.37669E+04  2.90165E+04 -1.55141E+04  2.46113E+04  8.30617E+03
  7.96597E+03  1.88085E+04 -1.17020E+04  1.62095E+04 -1.99849E+04  2.97793E+03 -1.55028E+04 -1.28486E+04
 -1.54080E+02 -1.97132E+04  1.14920E+04 -1.39921E+04  1.36951E+04 -2.03364E+03  4.15401E+03  9.61250E+03
 -8.86283E+03  5.19138E+03 -9.54527E+03 -6.88378E+03 -2.58871E+03 -1.84768E+04  1.24703E+04 -2.06259E+04
  2.32050E+04 -1.24754E+04  2.81903E+04  3.01270E+03  2.36562E+04  1.99245E+04  1.06378E+04  3.03625E+04
 -6.00137E+03  3.24121E+04 -2.14544E+04  2.02213E+04 -2.42376E+04  4.41049E+03 -1.66914E+04 -6.30244E+03
 -6.68182E+03 -7.79150E+03 -2.54313E+02 -6.13257E+02 -2.32261E+03  3.99841E+03 -8.78367E+03  6.23652E+03
 -1.45375E+04 -1.90458E+03 -1.60287E+04 -1.25302E+04 -5.46223E+03 -2.00096E+04  6.45250E+03 -1.70218E+04
  1.29259E+04 -6.85466E+03  9.46653E+03  4.19326E+03 -4.02192E+02  7.40301E+03 -8.15884E+03  7.36819E+02
 -7.67267E+03 -1.07820E+04 -1.64386E+03 -1.69170E+04  9.84154E+03 -1.78794E+04  2.13473E+04 -9.27554E+03
  2.56469E+04  2.53601E+03  1.81531E+04  1.51289E+04  2.86234E+03  2.01240E+04 -9.93579E+03  1.64644E+04
 -1.29162E+04  4.67044E+03 -7.79556E+03 -3.47736E+03  1.89637E+03 -4.16962E+03  8.72863E+03 -9.92177E+02
  7.13269E+03  7.51008E+03  1.77181E+03  1.34574E+04 -9.46313E+03  1.17923E+04 -1.67248E+04  2.99333E+03
 -1.11255E+04 -9.00623E+03  3.40052E+02 -1.33293E+04  9.68907E+03 -7.05083E+03  9.39008E+03  3.74367E+03
  1.56070E+03  1.13803E+04 -8.31871E+03  1.30267E+04 -1.39524E+04  5.50103E+03 -1.46683E+04 -5.61551E+03
 -8.20900E+03 -1.69218E+04  4.08389E+03 -1.90305E+04  1.55227E+04 -1.15408E+04  1.80953E+04  3.84463E+03
  1.00257E+04  1.36508E+04 -1.69254E+03  1.66130E+04 -1.21383E+04  9.43393E+03 -1.33858E+04 -1.98629E+03
 -1.13877E+04 -1.13618E+04 -1.78454E+03 -1.22134E+04  6.62817E+03 -1.02040E+04  8.09152E+03 -4.04611E+03
  4.71846E+03  2.52704E+03 -7.15974E+02  2.17160E+03 -2.35555E+02 -3.50969E+03  2.68404E+03 -9.12538E+03
  1.23326E+04 -5.12260E+03  1.73849E+04  1.68947E+03  1.68299E+04  1.21697E+04  1.03658E+04  2.18005E+04
 -5.83055E+03  2.59305E+04 -2.16153E+04  1.87436E+04 -2.79816E+04  3.31418E+03 -2.28020E+04 -9.79823E+03
 -1.10196E+04 -1.72545E+04 -4.71204E+02 -1.60671E+04  5.81164E+03 -8.59745E+03  5.25481E+03 -5.40202E+03
  4.50806E+03 -3.44215E+03  3.70413E+03 -4.31264E+03  6.13780E+03 -4.82449E+03  8.55230E+03 -1.46086E+03
  1.14233E+04  2.42810E+03  6.46947E+03  1.06779E+04 -2.20449E+03  1.34441E+04 -1.30014E+04  8.98713E+03
 -1.60176E+04 -1.09516E+03 -9.76020E+03 -1.09588E+04 -1.72391E+03 -1.67862E+04  9.26237E+03 -1.73915E+04
  1.78543E+04 -8.62122E+03  2.11648E+04  3.44249E+03  1.49211E+04  1.55964E+04  1.87919E+03  1.90509E+04
 -7.95350E+03  1.46900E+04 -1.18505E+04  4.89160E+03 -7.93358E+03 -1.34772E+03 -2.95332E+03 -1.93509E+03
 -1.95542E+03 -5.67599E+02 -2.72608E+03  3.53693E+03 -6.67674E+03  1.97367E+03 -1.06277E+04 -2.63116E+03
 -8.43564E+03 -1.13795E+04  3.63467E+02 -1.55802E+04  9.98394E+03 -1.45547E+04  1.54226E+04 -4.71877E+03
  1.56240E+04  7.81164E+03  7.49445E+03  1.36651E+04 -2.56265E+03  1.61875E+04 -1.13879E+04  9.93599E+03
 -1.44666E+04  7.47249E+02 -1.19798E+04 -9.51818E+03 -1.87841E+03 -1.29070E+04  6.20326E+03 -9.92958E+03
  1.08808E+04 -2.61186E+03  7.25728E+03  2.73028E+03  2.39691E+03  4.72312E+03  1.51521E+03  2.10730E+03
  3.07783E+03  2.27458E+03  3.85825E+03  1.68955E+03  4.53669E+03  5.00781E+03  4.30263E+03  9.63417E+03
 -3.51652E+03  1.31147E+04 -1.14261E+04  1.26689E+04 -1.76187E+04  4.38312E+03 -1.72237E+04 -7.22055E+03
 -8.85735E+03 -1.62831E+04  2.32549E+03 -1.84125E+04  9.33219E+03 -1.13450E+04  1.33873E+04 -3.75736E+03
  1.06466E+04  6.13796E+03  1.55507E+03  9.30753E+03 -5.43495E+03  6.21207E+03 -7.36796E+03 -1.16312E+03
 -3.03766E+03 -7.66095E+03  3.96034E+03 -7.50849E+03  6.33417E+03 -3.60451E+03  6.61140E+03  4.41157E+02
  3.44344E+03  4.21793E+03  2.69901E+03  1.78725E+03 -3.50500E+02  2.78239E+03  1.09465E+03 -9.23911E+02
  3.18177E+03 -2.93238E+02  7.12291E+03  3.26458E+03  4.24432E+03  8.52069E+03 -1.04022E+03  1.18212E+04
 -8.54995E+03  8.40791E+03 -1.08295E+04  2.66329E+03 -9.59233E+03 -3.21901E+03 -3.79819E+03 -6.12694E+03
  1.05509E+03 -6.74505E+03  4.32877E+03 -3.37657E+03  3.48028E+03  3.36693E+03 -1.93446E+03  5.27511E+03
 -7.42108E+03  4.18396E+03 -9.01399E+03 -3.61580E+03 -5.52364E+03 -9.19015E+03  1.45999E+03 -9.08619E+03
  5.28538E+03 -5.83197E+03  7.06886E+03 -7.01398E+02  5.83148E+03  2.35496E+03  7.72848E+02  5.55645E+03
 -3.42583E+03  2.30765E+03 -3.78142E+03 -2.97965E+03  1.38002E+03 -7.00417E+03  8.93000E+03 -5.38127E+03
  1.03457E+04  1.19095E+03  1.04159E+04  7.43043E+03  3.62117E+03  1.14437E+04 -4.49879E+03  1.07427E+04
 -9.11724E+03  4.91259E+03 -9.52777E+03 -1.34655E+03 -5.19656E+03 -7.86212E+03  2.06682E+03 -7.65713E+03
  6.19711E+03 -3.38571E+03  4.79400E+03  2.93005E+03  2.78913E+03  6.29816E+03 -1.75516E+03  5.33341E+03
 -2.73583E+03  4.09895E+03 -2.59273E+03  1.11197E+03 -1.28346E+03  1.32166E+03 -1.95796E+03  3.10535E+03
 -3.30684E+03  4.11135E+03 -7.45204E+03  2.96959E+03 -1.14248E+04  4.36170E+02 -1.33218E+04 -8.02488E+03
 -6.78544E+03 -1.50314E+04  3.25974E+03 -1.75679E+04  1.08442E+04 -1.43033E+04  1.60874E+04 -5.47434E+03
  1.58049E+04  3.74367E+03  8.17551E+03  1.03116E+04  7.62175E+02  1.09647E+04 -4.35330E+03  9.71834E+03
 -6.20905E+03  2.99882E+03 -4.55480E+03 -1.24286E+03 -1.32864E+03 -4.03916E+02 -7.08379E+02 -2.45568E+02
 -2.02734E+03  3.38329E+02 -2.02469E+03 -6.93619E+02 -1.23107E+03 -2.81526E+03  6.62952E+02 -3.96755E+03
  4.93579E+03 -3.10010E+03  6.93734E+03  2.79121E+02  8.95582E+03  7.00753E+03  2.26090E+03  1.26895E+04
 -5.75717E+03  1.40869E+04 -1.26274E+04  7.24439E+03 -1.47793E+04 -1.27906E+03 -1.08133E+04 -9.72316E+03
 -5.50019E+03 -1.22938E+04  3.79271E+03 -1.05970E+04  8.16276E+03 -5.87021E+03  8.36723E+03  3.28490E+02
  4.49512E+03  4.15704E+03 -6.15412E+02  3.48061E+03 -2.48426E+03  4.08134E+00  3.20904E+02 -3.22761E+03
  4.42164E+03 -1.54238E+03  5.69480E+03  1.84154E+03  3.14523E+03  5.06073E+03 -5.09042E+02  6.49940E+03
 -4.55448E+03  5.94886E+03 -8.47066E+03  2.85790E+02 -7.59727E+03 -6.18525E+03 -1.52837E+03 -1.06400E+04
  5.08554E+03 -8.40757E+03  9.21622E+03 -2.50889E+03  9.86926E+03  2.69542E+03  5.71786E+03  7.72361E+03
  1.01378E+03  8.12440E+03 -2.97574E+03  5.83487E+03 -5.48344E+03  4.49849E+03 -3.63262E+03  5.07520E+02
 -2.06376E+03 -9.30509E+02 -2.50864E+03  1.23402E+03 -4.38240E+03  1.09653E+03 -6.34269E+03 -1.15246E+03
 -5.96912E+03 -4.61432E+03 -2.07691E+03 -7.81846E+03  3.98193E+03 -9.58192E+03  7.66408E+03 -4.41563E+03
  8.11753E+03  8.60492E+02  5.16386E+03  6.73028E+03 -1.28408E+03  8.07788E+03 -6.36723E+03  4.80199E+03
