 $NMID ID='MM_0lb_SNR400_19hz_g50_63.RAW', FMTDAT='(8E13.5)'
 TRAMP=1., VOLUME=1. $END
  3.09504E+05  3.63639E+02  3.38073E+05  2.50734E+05  8.43294E+04  3.37848E+05 -1.31897E+05  2.50134E+05
 -1.89519E+05  8.31107E+04 -1.10875E+05 -3.27859E+04  1.37653E+03 -4.99874E+04  5.37682E+04  5.26605E+01
  3.49101E+04  5.25371E+04 -1.73704E+04  7.52364E+04 -6.06502E+04  6.33845E+04 -8.37409E+04  3.12942E+04
 -7.94966E+04 -1.07787E+04 -5.64675E+04 -5.02153E+04 -1.49819E+04 -6.85040E+04  2.69152E+04 -4.48592E+04
  3.94162E+04  3.98469E+03  1.58229E+04  4.73033E+04 -3.37472E+04  4.62079E+04 -6.50534E+04 -7.40779E+02
 -5.20527E+04 -5.56729E+04 -6.31997E+03 -7.53825E+04  3.35087E+04 -5.25504E+04  4.59324E+04 -1.64497E+04
  4.15150E+04  1.05802E+04  3.09077E+04  2.43502E+04  1.55339E+04  2.84624E+04 -4.40343E+03  2.65939E+04
 -2.17096E+04  1.28287E+04 -1.93065E+04 -3.91135E+03  4.00579E+03 -8.03318E+03  2.15590E+04  1.14006E+04
  7.65853E+03  3.40007E+04 -3.01711E+04  3.38826E+04 -6.08534E+04  2.70942E+03 -5.55695E+04 -4.08776E+04
 -1.23107E+04 -6.14300E+04  3.80479E+04 -4.34971E+04  5.57777E+04 -2.10924E+03  3.19958E+04  3.11873E+04
 -6.72401E+03  3.34477E+04 -2.85362E+04  1.42228E+04 -2.79644E+04 -5.24701E+03 -1.46413E+04 -1.02441E+04
 -7.03911E+03 -1.17325E+04 -1.31472E+03 -1.68234E+04  6.41777E+03 -2.26663E+04  1.57360E+04 -1.36631E+04
  1.19885E+04  4.32779E+03 -6.17340E+03  1.28855E+04 -1.97812E+04 -2.44627E+03 -8.86795E+03 -3.05540E+04
  2.07757E+04 -3.99153E+04  4.44741E+04 -1.83863E+04  4.22427E+04  1.79142E+04  1.41354E+04  4.12699E+04
 -1.52470E+04  3.08757E+04 -2.34392E+04  9.39639E+02 -8.54203E+03 -2.65466E+04  2.01795E+04 -3.15414E+04
  3.78832E+04 -7.33300E+03  3.10886E+04  2.32619E+04  1.50565E+04  4.25104E+04 -8.05093E+03  4.51389E+04
 -2.86219E+04  3.02256E+04 -3.73931E+04  8.23998E+03 -3.90027E+04 -1.54668E+04 -2.08609E+04 -3.44497E+04
  6.73039E+03 -3.44299E+04  2.94140E+04 -1.30204E+04  2.72883E+04  1.09216E+04  2.76557E+03  1.81684E+04
 -1.28309E+04  7.22862E+03 -9.69894E+03 -7.44089E+03  6.22135E+03 -9.83282E+03  1.69084E+04  6.86614E+03
  1.28054E+04  2.13897E+04 -6.69345E+03  2.35593E+04 -2.14388E+04  9.44494E+03 -2.51526E+04 -6.61539E+03
 -1.73090E+04 -1.62344E+04 -5.67510E+03 -1.66403E+04  3.38525E+03 -1.47941E+04  1.27331E+04 -1.42458E+04
  2.11481E+04 -1.17798E+04  2.86354E+04  1.12655E+03  2.11745E+04  1.59807E+04  4.15820E+03  3.22187E+04
 -1.63875E+04  2.74047E+04 -2.56900E+04  9.72178E+03 -1.99869E+04 -1.00151E+04 -3.69161E+03 -1.40422E+04
  2.75888E+03 -4.53943E+03 -2.47102E+03  5.38655E+03 -1.24091E+04  5.17369E+03 -1.32790E+04 -5.13274E+03
 -8.46051E+03 -1.50447E+04  4.25084E+03 -1.86539E+04  1.24094E+04 -1.43114E+04  1.45353E+04 -1.97031E+03
  9.01403E+03  1.09155E+04 -1.63180E+03  1.58342E+04 -1.05764E+04  8.53858E+03 -1.56021E+04 -3.22245E+03
 -1.13892E+04 -1.38045E+04 -1.55788E+03 -1.85469E+04  8.54090E+03 -1.47529E+04  1.63360E+04 -7.48172E+03
  1.49432E+04  9.12196E+02  1.04154E+04  3.74195E+03  5.30155E+03  3.04746E+02  7.41214E+03 -1.44360E+03
  1.41327E+04  2.45492E+03  1.47342E+04  1.29608E+04  9.09546E+03  2.49427E+04 -3.14998E+03  2.60301E+04
 -1.55300E+04  2.01313E+04 -2.41349E+04  9.46418E+03 -2.45317E+04 -2.10065E+03 -2.12257E+04 -1.41331E+04
 -1.00480E+04 -2.01645E+04  7.43027E+03 -1.86747E+04  1.64074E+04 -1.07709E+04  1.53433E+04  3.41259E+03
  7.01165E+03  1.14405E+04 -6.48548E+03  1.03745E+04 -1.36815E+04  2.49782E+03 -1.04088E+04 -7.76969E+03
  1.45920E+02 -1.21665E+04  5.77785E+03 -9.49306E+03  7.92068E+03 -1.15399E+03  1.38718E+03  4.44810E+03
 -5.64967E+03  1.23848E+03 -3.91007E+03 -4.76259E+03  5.31593E+02 -9.99976E+03  7.88226E+03 -1.00568E+04
  1.21946E+04 -4.47517E+03  1.17630E+04  2.80091E+03  1.04761E+04  9.30775E+03  4.79103E+03  1.41851E+04
 -1.38111E+03  1.54078E+04 -9.07230E+03  9.84801E+03 -1.08504E+04  3.33927E+03 -7.89568E+03 -1.49653E+03
 -4.22581E+03 -3.47752E+03 -1.10357E+03  8.66453E+02 -1.95825E+03  1.95701E+03 -4.12345E+03  3.54443E+03
 -8.33931E+03 -1.85170E+02 -8.84832E+03 -6.62678E+03 -3.73128E+03 -1.07627E+04  3.54725E+03 -7.91240E+03
  6.66508E+03 -3.05144E+03  5.90763E+03  2.05060E+03  6.48036E+02  2.87839E+03 -3.20479E+03  1.78081E+02
 -3.83227E+03 -5.34981E+03 -6.73300E+02 -7.01044E+03  4.24528E+03 -7.60891E+03  9.58132E+03 -4.39285E+03
  1.07264E+04  5.92828E+02  8.81532E+03  6.10218E+03  1.70547E+03  8.74055E+03 -5.67525E+03  8.67094E+03
 -7.00321E+03  1.89215E+03 -3.73509E+03 -1.13857E+03  9.16867E+02 -2.05735E+03  4.50492E+03 -1.34102E+03
  3.62264E+03  3.14655E+03  9.22706E+02  6.28002E+03 -4.19034E+03  6.49128E+03 -7.63012E+03  1.84292E+03
 -5.10447E+03 -3.39399E+03  5.14793E+02 -6.74598E+03  3.69989E+03 -2.86468E+03  3.26151E+03  8.58126E+02
  6.53659E+02  3.20580E+03 -3.97081E+03  4.91159E+03 -5.12034E+03  2.45644E+03 -4.55826E+03 -1.27504E+03
 -2.85066E+03 -5.53876E+03  1.72671E+03 -7.27748E+03  5.92776E+03 -4.12269E+03  6.23089E+03  1.15810E+03
  4.51361E+03  4.58845E+03  2.33931E+02  6.55053E+03 -4.36818E+03  4.32103E+03 -4.71480E+03 -4.61428E+02
 -5.21290E+03 -5.10277E+03 -1.65337E+03 -4.48876E+03  2.66467E+03 -4.33508E+03  2.81135E+03 -3.23392E+03
  2.24392E+03  6.64836E+02  3.98649E+02  1.06735E+03  5.81713E+01 -2.16749E+02 -8.92818E+01 -1.63044E+03
  4.51575E+03 -6.44108E+02  4.66078E+03 -1.50058E+02  5.12561E+03  2.86076E+03  5.26442E+03  6.85738E+03
 -1.09876E+03  7.71721E+03 -7.25330E+03  6.06529E+03 -9.82986E+03  9.51837E+02 -8.10257E+03 -1.87874E+03
 -3.95508E+03 -6.18605E+03 -5.87643E+02 -4.77598E+03  1.84149E+03 -1.83232E+03  1.66976E+03 -2.20923E+03
  1.16377E+03 -1.71250E+03  2.05795E+03 -2.32458E+03  3.06556E+03 -1.61619E+03  2.66929E+03  9.07049E+02
  4.24549E+03  1.02130E+03  1.16318E+03  3.77221E+03 -1.42327E+03  2.85118E+03 -4.18965E+03  2.51235E+03
 -4.94322E+03 -1.42052E+03 -1.48504E+03 -3.04939E+03  7.65550E+01 -4.61326E+03  2.92289E+03 -4.95275E+03
  4.56237E+03 -3.07442E+03  6.37203E+03  1.40782E+02  4.38625E+03  3.63545E+03  9.28440E+02  5.66937E+03
 -1.95889E+03  5.07647E+03 -3.39543E+03  1.96951E+03 -1.67669E+03 -1.06739E+03 -2.67911E+02 -2.53978E+02
 -5.09665E+02  2.24955E+02 -2.86723E+02  1.79092E+03 -2.97289E+03  4.37231E+02 -3.29983E+03 -6.91841E+02
 -1.49674E+03 -3.70586E+03  8.22184E+02 -4.87833E+03  2.76394E+03 -4.31186E+03  3.39575E+03 -1.17608E+03
  3.75612E+03  2.65897E+03  2.00703E+03  3.18769E+03 -5.44504E+02  4.16893E+03 -2.34861E+03  3.07539E+03
 -3.76640E+03  6.79123E+02 -3.29376E+03 -1.97996E+03 -4.43699E+02 -3.00827E+03  1.69865E+03 -2.70979E+03
  2.79361E+03 -1.77480E+03  1.76867E+03  2.68232E+02  7.68868E+02  1.36362E+03  8.10926E+02  2.50687E+02
  1.68582E+03  8.23068E+02  1.41831E+03  1.40016E+03  1.10469E+03  1.83811E+03  1.40781E+03  1.71781E+03
 -1.65488E+03  2.83046E+03 -2.66806E+03  3.96608E+03 -2.73895E+03  1.73959E+03 -3.81893E+03 -3.07192E+02
 -1.64073E+03 -3.17873E+03  1.17568E+03 -4.66637E+03  1.54567E+03 -1.87922E+03  2.89200E+03 -9.07869E+02
  2.27668E+03  1.64675E+03  7.30531E+02  2.36897E+03 -7.51388E+02  1.28555E+03 -1.00283E+03 -1.89671E+02
 -9.96840E+02 -1.37783E+03  1.19303E+03 -1.39456E+03  1.74671E+03 -8.30876E+02  5.56963E+02  4.27342E+02
 -9.72169E+01 -1.34595E+02  4.69249E+02 -6.45773E+02 -2.18761E+02  1.02975E+02  2.07848E+03 -1.02407E+02
  4.63525E+02  3.21998E+02  1.53194E+03  1.15207E+03  2.51118E+02  1.62737E+03 -1.63795E+02  2.29137E+03
 -1.65993E+03  6.21410E+02 -1.96486E+03  7.67995E+00 -1.73682E+03 -5.27858E+02 -1.78269E+02 -1.05657E+03
  2.19106E+00 -1.62224E+03  1.75593E+02 -3.25707E+02  7.67069E+02  7.21401E+02  2.54482E+02  1.01893E+03
 -9.40604E+02  6.85125E+02 -7.68794E+02 -1.90985E+03 -4.45220E+02 -2.40049E+03 -3.04117E+01 -1.61329E+03
  4.95978E+02 -2.08188E+01  3.09468E+02  1.12749E+02  1.78571E+03 -4.47986E+01 -3.65351E+02  1.30994E+03
  1.77916E+02  4.85175E+01 -1.07193E+03 -1.18020E+02  1.30167E+02 -9.23361E+02  1.29233E+03 -1.01617E+03
  8.46760E+02  3.62606E+02  2.06303E+03  5.40540E+02  8.03253E+02  1.78924E+03  3.36683E+02  1.60548E+03
 -1.00059E+03  1.13229E+02 -1.62461E+03  7.91040E+00 -1.02555E+03 -1.02342E+03  4.03374E+02  5.66214E+01
  8.92353E+02  1.22185E+02  2.52093E+02  4.40977E+02 -1.88438E+02  9.40644E+02  1.01789E+01  9.76769E+02
 -1.68734E+02  7.78591E+02 -4.56020E+02  4.40405E+02 -9.11644E+01  4.09230E+02 -8.60958E+02  9.97771E+02
 -4.07842E+02  7.89738E+02 -1.05515E+03  4.37157E+02 -1.10928E+03  3.43526E+01 -2.02465E+03 -6.11833E+02
 -9.15411E+02 -2.63184E+03  8.30586E+02 -2.35827E+03  1.57681E+03 -2.07713E+03  2.34385E+03 -1.38440E+03
  1.95134E+03 -3.82933E+02  1.37407E+03  5.84321E+02 -6.65524E+02  1.41604E+03 -6.28361E+02  7.11819E+02
 -8.45681E+02  8.76449E+02 -5.33410E+02  5.47584E+01 -5.25320E+02  7.87787E+01 -9.34970E+02  1.90732E+02
 -1.05896E+03 -2.34933E+02 -9.53149E+02  4.06077E+02 -1.16109E+01 -5.43230E+02 -4.76967E+02 -6.55927E+02
  6.45011E+02  4.29540E+02  1.91872E+02 -5.72584E+01  6.91262E+02  8.24277E+02  1.45467E+02  9.47440E+02
 -1.08484E+03  2.14343E+03 -1.24739E+03  1.09215E+03 -1.63069E+03 -2.21792E+02 -8.56607E+02 -1.34043E+03
 -6.94523E+02 -1.00514E+03  1.24848E+02 -1.03600E+03  4.11157E+02 -8.29612E+02  1.31643E+03  2.19145E+02
  3.70220E+02  1.33751E+02 -1.53669E+02 -4.55720E+01 -1.10544E+02 -2.16109E+02 -4.45461E+02  2.05152E+02
  1.44673E+02  2.03287E+02 -2.46212E+01  3.67475E+02 -3.16881E+00  5.10472E+02  4.38364E+02  5.44685E+02
 -5.63931E+02  6.79102E+02 -6.30852E+01 -6.84151E-01 -4.82823E+02 -4.32547E+02 -1.28412E+02 -9.26745E+02
 -8.90949E+01 -7.03118E+02  2.56257E+02  5.17700E+01  8.12114E+02 -4.89923E+02  3.68593E+02  1.80899E+02
  4.88544E+02  4.12167E+02  1.17507E+02  1.04475E+03 -2.44963E+02  7.93389E+02 -3.30242E+02  2.82329E+02
  1.98499E+02 -4.84791E+02 -6.40336E+02  7.66074E+02 -2.25345E+02  2.78264E+02 -9.03087E+02 -7.16928E+02
 -6.82758E+02  5.47106E+01 -5.21056E+02 -7.67893E+02  1.00612E+03 -1.20163E+03  1.04508E+03 -4.47128E+02
  1.69044E+02  4.41301E+01 -7.18944E+02  5.87910E+02 -4.56642E+02  5.11030E+02 -2.23986E+02  7.09781E+02
