 $NMID ID='MM_0lb_SNR400_20hz_g55_8.RAW', FMTDAT='(8E13.5)'
 TRAMP=1., VOLUME=1. $END
  3.09662E+05  8.12777E+02  3.36943E+05  2.49967E+05  8.42893E+04  3.37541E+05 -1.32647E+05  2.50583E+05
 -1.89926E+05  8.31207E+04 -1.11485E+05 -3.28131E+04  1.48689E+03 -5.02336E+04  5.38303E+04  1.26983E+02
  3.47195E+04  5.25093E+04 -1.74551E+04  7.48084E+04 -6.01263E+04  6.34134E+04 -8.30390E+04  3.15391E+04
 -7.99825E+04 -1.06512E+04 -5.71559E+04 -5.02292E+04 -1.49663E+04 -6.85945E+04  2.67725E+04 -4.49285E+04
  3.89311E+04  3.94742E+03  1.53167E+04  4.74086E+04 -3.35232E+04  4.61461E+04 -6.55967E+04 -5.97888E+02
 -5.23135E+04 -5.54700E+04 -6.89119E+03 -7.57400E+04  3.31914E+04 -5.33975E+04  4.64050E+04 -1.60431E+04
  4.22997E+04  1.09635E+04  3.04348E+04  2.47026E+04  1.55378E+04  2.90112E+04 -4.66443E+03  2.75767E+04
 -2.16943E+04  1.23721E+04 -1.95348E+04 -4.27698E+03  4.62564E+03 -7.42892E+03  2.15696E+04  1.12276E+04
  6.97924E+03  3.37427E+04 -3.10309E+04  3.41065E+04 -6.13324E+04  2.17098E+03 -5.55558E+04 -4.12502E+04
 -1.23555E+04 -6.09971E+04  3.81295E+04 -4.35287E+04  5.52763E+04 -2.35040E+03  3.20387E+04  3.07572E+04
 -6.45718E+03  3.30129E+04 -2.84366E+04  1.36609E+04 -2.77513E+04 -5.41800E+03 -1.42523E+04 -1.03125E+04
 -7.61286E+03 -1.14288E+04 -1.25313E+03 -1.70896E+04  6.46091E+03 -2.25030E+04  1.55001E+04 -1.41586E+04
  1.26917E+04  4.78320E+03 -6.53763E+03  1.31312E+04 -1.98482E+04 -2.29626E+03 -7.77567E+03 -3.09130E+04
  2.06680E+04 -4.10388E+04  4.46736E+04 -1.89510E+04  4.20275E+04  1.80468E+04  1.44528E+04  4.19379E+04
 -1.51309E+04  3.08883E+04 -2.34358E+04  4.82009E+02 -8.15622E+03 -2.62805E+04  2.09518E+04 -3.13142E+04
  3.84409E+04 -7.81042E+03  3.18122E+04  2.35485E+04  1.54042E+04  4.30962E+04 -8.01605E+03  4.51141E+04
 -2.82746E+04  2.98943E+04 -3.77759E+04  8.38199E+03 -3.84076E+04 -1.51426E+04 -2.11681E+04 -3.47989E+04
  7.04292E+03 -3.44359E+04  2.90924E+04 -1.25899E+04  2.66110E+04  1.08634E+04  3.04109E+03  1.76640E+04
 -1.29890E+04  6.67246E+03 -9.46018E+03 -7.02745E+03  5.73195E+03 -9.96809E+03  1.72778E+04  6.43822E+03
  1.20814E+04  2.16713E+04 -6.34883E+03  2.38450E+04 -2.15877E+04  9.05689E+03 -2.49747E+04 -6.54024E+03
 -1.68917E+04 -1.66890E+04 -5.18348E+03 -1.67715E+04  3.80607E+03 -1.44144E+04  1.31355E+04 -1.44529E+04
  2.14587E+04 -1.11108E+04  2.80666E+04  7.90278E+02  2.10227E+04  1.57827E+04  4.07511E+03  3.20630E+04
 -1.59668E+04  2.73952E+04 -2.59313E+04  9.07147E+03 -1.93586E+04 -1.07979E+04 -3.48581E+03 -1.37442E+04
  1.81503E+03 -4.11214E+03 -2.59860E+03  4.48509E+03 -1.28490E+04  5.57990E+03 -1.30779E+04 -4.37959E+03
 -8.33492E+03 -1.53389E+04  4.97224E+03 -1.93613E+04  1.25781E+04 -1.37497E+04  1.45107E+04 -1.46568E+03
  8.89310E+03  1.12544E+04 -9.75928E+02  1.52712E+04 -1.03132E+04  8.52143E+03 -1.54102E+04 -3.82081E+03
 -1.06195E+04 -1.36748E+04 -1.22356E+03 -1.88690E+04  8.51153E+03 -1.53972E+04  1.57716E+04 -6.53876E+03
  1.49576E+04  1.17164E+03  1.04422E+04  4.21418E+03  5.33293E+03  7.35695E+02  7.09058E+03 -7.53279E+02
  1.37091E+04  2.99665E+03  1.42101E+04  1.24307E+04  8.54730E+03  2.42834E+04 -3.37721E+03  2.57105E+04
 -1.53447E+04  2.03266E+04 -2.38486E+04  9.09128E+03 -2.38402E+04 -1.51860E+03 -2.07020E+04 -1.36589E+04
 -9.89116E+03 -1.97484E+04  6.47856E+03 -1.82845E+04  1.64358E+04 -1.05067E+04  1.52757E+04  3.51292E+03
  6.23306E+03  1.07559E+04 -7.19553E+03  1.01573E+04 -1.30946E+04  2.46314E+03 -1.06126E+04 -7.94349E+03
 -3.11503E+02 -1.17972E+04  6.43226E+03 -9.32720E+03  7.79225E+03 -9.97651E+02  9.40556E+02  4.88557E+03
 -5.57965E+03  1.77865E+03 -3.46618E+03 -4.56015E+03  7.32056E+02 -9.29178E+03  8.09293E+03 -9.30119E+03
  1.18864E+04 -4.55768E+03  1.08918E+04  2.64778E+03  9.54126E+03  8.77147E+03  4.77611E+03  1.29597E+04
 -1.32090E+03  1.51350E+04 -8.56495E+03  9.67374E+03 -1.02658E+04  3.03531E+03 -7.94842E+03 -1.76761E+03
 -4.49369E+03 -2.79754E+03 -6.19488E+02  1.72538E+03 -1.83497E+03  2.28883E+03 -3.72042E+03  3.13913E+03
 -7.91116E+03 -4.44580E+01 -8.24013E+03 -7.28588E+03 -3.68246E+03 -1.10330E+04  3.01254E+03 -7.78133E+03
  7.57800E+03 -3.56836E+03  5.54931E+03  2.14709E+03  6.05479E+02  2.74073E+03 -3.47457E+03 -2.52509E+02
 -2.69812E+03 -4.25333E+03 -4.77674E+02 -7.06088E+03  3.96428E+03 -7.53695E+03  9.02985E+03 -3.15918E+03
  1.06261E+04  2.33836E+02  8.15216E+03  5.25376E+03  1.71348E+03  7.94855E+03 -4.94738E+03  7.54186E+03
 -6.82024E+03  2.29530E+03 -3.48545E+03 -1.31575E+03  1.70020E+03 -2.20430E+03  4.63450E+03 -1.32266E+03
  3.72531E+03  3.00092E+03  9.78317E+02  6.11701E+03 -4.20931E+03  6.04108E+03 -7.62557E+03  1.58989E+03
 -4.63763E+03 -3.68635E+03  3.75089E+02 -6.22482E+03  3.50836E+03 -2.98354E+03  3.04015E+03  9.79367E+02
  4.67436E+02  2.83722E+03 -3.37455E+03  4.66223E+03 -4.03423E+03  2.54715E+03 -3.73313E+03 -6.62736E+02
 -2.87267E+03 -4.99615E+03  1.22443E+03 -6.27432E+03  5.81756E+03 -4.18634E+03  5.50464E+03  6.43348E+02
  4.44871E+03  5.03778E+03  6.77607E+02  6.57243E+03 -4.72992E+03  4.25308E+03 -4.52669E+03 -6.79211E+02
 -5.17755E+03 -4.60315E+03 -1.03544E+03 -4.71770E+03  2.36558E+03 -4.62329E+03  2.48621E+03 -2.88450E+03
  3.09777E+03  1.19944E+02  3.12821E+02  8.55759E+02  5.91332E+02  5.30055E+02  1.24958E+02 -1.31442E+03
  2.98813E+03 -6.37178E+00  4.48407E+03  9.70152E+02  4.15508E+03  2.53286E+03  4.90382E+03  5.96064E+03
 -8.92087E+02  7.70776E+03 -6.96920E+03  5.47411E+03 -8.40624E+03  1.48412E+03 -6.77981E+03 -2.03334E+03
 -3.69265E+03 -5.52619E+03 -3.56948E+02 -4.02169E+03  1.98732E+03 -1.69352E+03  1.35960E+03 -1.37849E+03
  1.33121E+03 -1.09465E+03  1.38803E+03 -1.83910E+03  3.05277E+03 -1.42087E+03  3.65137E+03  7.89533E+02
  4.32028E+03  1.52590E+03  4.11383E+02  2.53602E+03 -9.77676E+02  1.90820E+03 -3.72128E+03  2.16904E+03
 -3.93417E+03 -8.25265E+02 -1.39360E+03 -2.62486E+03  2.97805E+02 -4.63146E+03  2.73148E+03 -4.51336E+03
  4.56316E+03 -2.48332E+03  5.93099E+03  6.11609E+02  4.46754E+03  4.09939E+03  5.01832E+02  4.82376E+03
 -1.73580E+03  5.54512E+03 -3.09280E+03  1.71025E+03 -2.08809E+03 -9.90458E+02  2.96177E+02  1.94367E+01
 -7.45710E+02  9.50305E+02 -9.65586E+02  1.76583E+03 -2.06966E+03  3.49935E+02 -3.26705E+03 -7.15324E+02
 -1.16558E+03 -3.33227E+03  1.25697E+03 -4.05542E+03  2.56511E+03 -3.61998E+03  2.73892E+03 -1.08193E+03
  3.00900E+03  2.43161E+03  6.74090E+02  3.18037E+03 -5.24985E+02  3.84726E+03 -1.87417E+03  1.84664E+03
 -3.13249E+03  6.69925E+02 -3.49634E+03 -2.38472E+03  4.05956E+00 -2.80392E+03  9.97272E+02 -2.14995E+03
  2.21867E+03 -9.46063E+02  1.49520E+03  9.77673E+02  2.64267E+02  1.78600E+03  9.01857E+02  6.68300E+02
  1.33781E+03  1.86007E+02  6.43372E+02  8.46893E+02  4.81217E+02  1.89449E+03  1.55958E+03  1.10107E+03
 -1.17699E+03  2.69745E+03 -2.05343E+03  3.60444E+03 -2.51415E+03  6.70231E+02 -3.50475E+03 -2.02159E+02
 -1.55049E+03 -3.34090E+03  1.02231E+02 -3.78034E+03  1.69957E+03 -1.90367E+03  2.37730E+03 -2.98473E+02
  1.60867E+03  1.67156E+03  3.19309E+02  1.99568E+03 -1.93815E+01  1.17722E+03 -9.91034E+02 -3.40514E+02
 -7.17231E+02 -1.20329E+03  1.00608E+03 -1.14687E+03  1.04467E+03 -9.35543E+02  1.27939E+03  2.49265E+02
  7.99503E+02 -4.90210E+00  5.59344E+02 -5.19220E+01 -3.37663E+02  7.74044E+02  1.51470E+03 -4.16689E+02
  9.24907E+01 -8.54901E+02  1.53895E+03  7.58411E+02 -3.71584E+01  2.19760E+03 -4.21735E+02  2.09142E+03
 -9.63103E+02  3.90992E+02 -1.39079E+03  1.12675E+03 -1.57057E+03 -6.17912E+02 -1.95981E+02 -8.30749E+02
  8.31063E+02 -9.69585E+02  1.11683E+03 -9.32856E+02  9.33375E+02  8.57025E+02 -1.19219E+03  7.30027E+02
 -1.34050E+03  1.30193E+02 -1.09056E+03 -7.23731E+02 -6.78191E+02 -1.67565E+03 -4.03319E+01 -1.07757E+03
  3.58698E+02 -5.39940E+02  2.38654E+01  2.40912E+01  9.24338E+02  4.77760E+02  1.99553E+02  1.29474E+03
 -7.84953E+02  4.87640E+02 -8.89017E+02  1.19908E+02  9.55606E+02 -3.21176E+02  1.78591E+03 -9.63969E+02
  9.05158E+02 -2.95287E+02  1.98909E+03  1.47323E+02  6.94097E+02  7.46649E+02 -9.85785E+01  1.76478E+03
 -1.30783E+03 -8.53044E+01 -8.64308E+02 -1.09955E+02 -8.56574E+02 -9.85047E+02  2.99189E+02 -2.78933E+02
  1.04600E+03 -1.05991E+03  3.05676E+02  1.16446E+02  1.50095E+02  1.36722E+03  2.37745E+02  4.17255E+02
  1.49683E+02  1.03762E+03 -6.48405E+02  1.83500E+02  2.28915E+02  4.92403E+02 -9.69443E+02  3.35098E+02
 -1.47991E+02  9.22705E+02 -1.31362E+03  7.58348E+02 -1.36833E+03  9.01063E+01 -1.77505E+03 -7.98145E+02
 -7.48481E+02 -1.17560E+03  6.07348E+02 -1.48739E+03  7.78013E+02 -1.93137E+03  1.98537E+03 -3.01852E+02
  1.77837E+03  2.50475E+01  4.12523E+02  1.25283E+03 -1.06860E+03  9.41988E+02 -4.22985E+02  7.90498E+02
 -3.39669E+02  5.44527E+02 -2.52253E+02 -7.58880E+01 -4.60785E+02  3.01586E+01 -1.22405E+03 -4.00363E+02
 -1.62441E+03  1.11932E+02 -1.02017E+03  3.59937E+02  1.66913E+02 -6.94629E+02 -3.47630E+02 -4.77161E+02
  7.77322E+02 -4.19725E+02  5.08686E+02  7.20360E+00  5.60349E+02  2.46666E+02 -7.95840E+02  7.06703E+02
 -5.21565E+02  1.63774E+03 -8.43188E+02  9.04598E+02 -9.03227E+02 -2.01089E+02 -4.97650E+02 -1.12452E+03
 -4.93248E+02 -6.20299E+02  4.22440E+02 -1.19698E+03  4.66423E+02 -5.12249E+02  2.24046E+02  5.27814E+01
  4.68142E+02  5.04651E+01 -3.16644E+02  2.15290E+02 -1.14273E+02 -5.83758E+00 -3.39803E+02  1.60162E+02
  1.24012E+02  3.28577E+02  2.92345E+02  8.34091E+01 -6.14465E+02  3.57113E+02  6.28421E+02 -3.58239E+02
 -1.10787E+02  8.04263E+02 -3.24914E+02  4.28135E+01 -3.52293E+02 -1.45114E+02 -1.74538E+02 -6.36508E+02
  2.73025E+02 -2.21314E+02 -3.47614E+02 -5.08452E+01  7.69858E+02 -4.37605E+02 -4.27598E+01  6.25112E+02
  3.64300E+02  3.98992E+02  2.15646E+02  2.58827E+02 -7.15416E+01  9.05154E+02  5.14614E+01  3.14368E+02
 -1.06596E+02  2.74690E+02 -3.13412E+02 -3.70612E+02 -2.21810E+02  2.26203E+02 -8.41493E+02 -4.87537E+01
 -1.86623E+02  6.19048E+02 -2.90854E+02 -1.86664E+02  4.78555E+02 -1.59451E+03  5.67818E+02  2.41482E+02
  4.77053E+02 -4.21720E+02 -2.38677E+02 -3.58247E+02  1.16732E+02  6.65819E+02  2.55255E+02  5.92572E+02
