 $NMID ID='MM_0lb_SNR400_20hz_g50_50.RAW', FMTDAT='(8E13.5)'
 TRAMP=1., VOLUME=1. $END
  3.09893E+05  5.18183E+02  3.36952E+05  2.50580E+05  8.39190E+04  3.37553E+05 -1.32643E+05  2.50237E+05
 -1.89699E+05  8.27045E+04 -1.10800E+05 -3.34166E+04  1.30820E+03 -5.03658E+04  5.34674E+04  4.02473E+02
  3.47132E+04  5.22750E+04 -1.71728E+04  7.49549E+04 -6.01990E+04  6.24638E+04 -8.27882E+04  3.15154E+04
 -7.97884E+04 -1.11067E+04 -5.62352E+04 -5.03166E+04 -1.48343E+04 -6.76981E+04  2.70218E+04 -4.46923E+04
  3.86013E+04  3.99082E+03  1.57835E+04  4.73506E+04 -3.33719E+04  4.61762E+04 -6.46337E+04 -6.33112E+01
 -5.23579E+04 -5.60165E+04 -6.04503E+03 -7.50075E+04  3.27565E+04 -5.32156E+04  4.62154E+04 -1.61990E+04
  4.09961E+04  1.12089E+04  3.08198E+04  2.45464E+04  1.59819E+04  2.77051E+04 -4.54320E+03  2.62816E+04
 -2.14153E+04  1.26767E+04 -1.92205E+04 -4.09818E+03  3.91531E+03 -7.97792E+03  2.10305E+04  1.11545E+04
  7.48404E+03  3.30350E+04 -3.03331E+04  3.38558E+04 -6.06343E+04  1.90790E+03 -5.52158E+04 -4.07636E+04
 -1.22629E+04 -6.02932E+04  3.80432E+04 -4.30607E+04  5.50477E+04 -1.54731E+03  3.18083E+04  3.03170E+04
 -6.55203E+03  3.27611E+04 -2.80596E+04  1.30472E+04 -2.73465E+04 -5.24988E+03 -1.39167E+04 -9.81879E+03
 -7.05368E+03 -1.14192E+04 -1.20400E+03 -1.63234E+04  6.63160E+03 -2.25404E+04  1.49396E+04 -1.43354E+04
  1.21990E+04  4.43005E+03 -5.60885E+03  1.30999E+04 -1.89031E+04 -2.28423E+03 -7.68162E+03 -2.94712E+04
  2.08809E+04 -3.95602E+04  4.43485E+04 -1.80014E+04  4.13080E+04  1.79335E+04  1.38203E+04  4.08608E+04
 -1.48317E+04  3.02770E+04 -2.28653E+04  1.02490E+03 -8.18130E+03 -2.57515E+04  2.07476E+04 -3.08381E+04
  3.71354E+04 -7.24787E+03  3.12967E+04  2.30152E+04  1.50447E+04  4.18158E+04 -7.36297E+03  4.47870E+04
 -2.80055E+04  2.87491E+04 -3.71103E+04  7.76051E+03 -3.73670E+04 -1.48911E+04 -2.08518E+04 -3.38490E+04
  6.84352E+03 -3.30506E+04  2.84381E+04 -1.24302E+04  2.66195E+04  1.15368E+04  2.65936E+03  1.73345E+04
 -1.27668E+04  7.36472E+03 -8.79184E+03 -7.44650E+03  6.41428E+03 -9.77321E+03  1.68326E+04  6.54649E+03
  1.21183E+04  2.15713E+04 -6.42234E+03  2.26656E+04 -2.14333E+04  9.15448E+03 -2.44255E+04 -6.46201E+03
 -1.64450E+04 -1.62323E+04 -4.96299E+03 -1.60682E+04  3.46400E+03 -1.42200E+04  1.18628E+04 -1.37325E+04
  2.09848E+04 -1.17164E+04  2.70174E+04  2.67449E+02  2.11821E+04  1.57819E+04  4.56926E+03  3.17565E+04
 -1.55075E+04  2.72817E+04 -2.62126E+04  8.90890E+03 -1.98560E+04 -1.02431E+04 -3.69863E+03 -1.43342E+04
  2.78773E+03 -5.05641E+03 -1.62206E+03  4.78875E+03 -1.26855E+04  5.20023E+03 -1.30984E+04 -4.48697E+03
 -7.79874E+03 -1.44979E+04  4.87151E+03 -1.83800E+04  1.26819E+04 -1.36670E+04  1.38806E+04 -1.60673E+03
  8.53152E+03  9.88134E+03 -1.40012E+03  1.51308E+04 -9.38026E+03  7.80978E+03 -1.46521E+04 -3.25037E+03
 -1.14478E+04 -1.37805E+04 -1.55133E+03 -1.83951E+04  8.76121E+03 -1.41505E+04  1.51801E+04 -6.75899E+03
  1.43483E+04  6.23836E+02  9.64835E+03  3.98708E+03  5.22497E+03  6.83063E+02  7.71106E+03 -1.60727E+03
  1.29717E+04  1.96067E+03  1.36448E+04  1.25240E+04  7.87494E+03  2.35768E+04 -3.26229E+03  2.49764E+04
 -1.47270E+04  1.90708E+04 -2.31898E+04  9.17308E+03 -2.26511E+04 -2.27273E+03 -2.04614E+04 -1.29997E+04
 -9.72062E+03 -1.94851E+04  5.76683E+03 -1.78308E+04  1.54198E+04 -1.11579E+04  1.48156E+04  3.23769E+03
  6.53056E+03  1.02058E+04 -6.55301E+03  1.00625E+04 -1.30972E+04  2.19723E+03 -9.62278E+03 -7.57483E+03
  5.10757E+02 -1.15861E+04  5.68303E+03 -8.85411E+03  7.87294E+03 -1.12054E+03  1.42442E+03  4.70452E+03
 -5.09498E+03  1.69806E+03 -2.92759E+03 -4.70067E+03  1.01565E+03 -9.32069E+03  7.17252E+03 -8.96824E+03
  1.09643E+04 -3.91549E+03  1.09083E+04  3.15681E+03  9.23842E+03  8.44089E+03  4.60788E+03  1.25123E+04
 -1.42607E+03  1.47576E+04 -8.71355E+03  8.92726E+03 -1.04147E+04  2.41022E+03 -7.54625E+03 -1.47712E+03
 -4.52276E+03 -2.72307E+03 -1.05700E+03  1.76264E+03 -1.46588E+03  1.90602E+03 -2.95743E+03  3.73702E+03
 -7.54973E+03 -3.11154E+02 -8.04275E+03 -6.75831E+03 -3.00976E+03 -1.04153E+04  2.66357E+03 -7.91550E+03
  7.44066E+03 -3.57308E+03  4.73307E+03  1.97642E+03  1.03079E+03  2.85372E+03 -2.63056E+03 -2.72479E+01
 -3.37947E+03 -5.03971E+03 -8.08602E+02 -6.29610E+03  3.72160E+03 -7.06267E+03  8.87127E+03 -3.18558E+03
  1.00029E+04  4.92801E+02  7.93379E+03  4.85549E+03  1.78442E+03  7.74424E+03 -4.93039E+03  7.72026E+03
 -6.83799E+03  2.26394E+03 -2.98765E+03 -8.09794E+02  9.94557E+02 -1.88645E+03  4.14112E+03 -6.52926E+02
  3.80439E+03  3.20827E+03  1.01216E+03  6.06069E+03 -4.14478E+03  6.08914E+03 -7.07462E+03  2.00398E+03
 -4.35678E+03 -3.27676E+03  3.87650E+02 -5.89300E+03  3.31005E+03 -3.09090E+03  3.29763E+03  5.28946E+02
  4.99910E+01  2.99966E+03 -3.99534E+03  4.20141E+03 -4.47920E+03  2.94967E+03 -3.14254E+03 -7.68651E+02
 -2.26774E+03 -5.03107E+03  9.18835E+02 -6.04065E+03  5.34672E+03 -3.71693E+03  5.15968E+03  9.76802E+02
  4.33343E+03  4.75024E+03 -4.53096E+02  6.00180E+03 -4.62102E+03  3.82828E+03 -4.27998E+03 -2.82831E+02
 -4.98513E+03 -5.07084E+03 -5.98212E+02 -4.53234E+03  2.47737E+03 -4.21353E+03  2.46484E+03 -2.80027E+03
  2.86235E+03 -2.07724E+02 -4.70053E+01  9.05032E+02  3.61759E+02 -2.41611E+02 -3.02053E+01 -1.31523E+03
  3.20128E+03 -1.07567E+03  4.10105E+03  6.26002E+02  4.54119E+03  2.58023E+03  4.66546E+03  6.20186E+03
 -1.72603E+03  7.24597E+03 -6.89865E+03  5.27387E+03 -8.37368E+03  1.26082E+03 -6.46106E+03 -2.16971E+03
 -3.30026E+03 -6.06528E+03 -2.52102E+02 -4.71907E+03  2.03479E+03 -2.32030E+03  1.49242E+03 -2.52542E+03
  4.15050E+02 -1.03376E+03  1.82045E+03 -2.09206E+03  3.24409E+03 -1.10390E+03  2.90205E+03  6.85975E+02
  4.04139E+03  9.23851E+02  1.15636E+03  3.19962E+03 -2.34176E+03  1.82235E+03 -4.06906E+03  2.43219E+03
 -4.03117E+03 -7.21197E+02 -6.36834E+02 -3.12124E+03  4.96202E+02 -4.02284E+03  2.61520E+03 -4.66449E+03
  4.75053E+03 -2.70460E+03  5.54181E+03 -1.44327E+02  3.77522E+03  4.02413E+03  1.74177E+03  4.72515E+03
 -2.09752E+03  5.27015E+03 -2.60121E+03  2.12480E+03 -1.58092E+03 -1.07106E+03  2.27892E+02 -3.09122E+02
 -5.27305E+02  2.33355E+02 -1.15312E+03  2.28390E+03 -2.51453E+03  1.09486E+03 -3.86820E+03 -2.67239E+02
 -1.16261E+03 -3.38398E+03  1.01234E+03 -4.23919E+03  2.17782E+03 -3.72044E+03  3.03067E+03 -5.59701E+02
  2.77139E+03  2.19902E+03  1.33841E+03  2.83440E+03 -1.14124E+02  3.41340E+03 -2.14071E+03  2.00550E+03
 -2.70268E+03  8.83878E+02 -2.59165E+03 -1.25687E+03  2.59031E+02 -2.55708E+03  1.65483E+03 -1.28405E+03
  1.99690E+03 -1.61118E+03  1.50411E+03  5.27888E+01 -1.59895E+02  1.13224E+03  6.31076E+02  2.27215E+02
  1.74846E+03  5.14197E+02  1.17406E+03  9.94790E+02  3.73176E+02  2.38363E+03  1.68403E+03  9.56668E+02
 -1.25361E+03  2.13922E+03 -1.84082E+03  3.61562E+03 -2.10447E+03  1.09911E+03 -3.29758E+03 -1.22429E+01
 -8.83651E+02 -3.08198E+03  8.89906E+02 -3.79057E+03  1.65352E+03 -1.65066E+03  2.46316E+03 -1.38429E+03
  1.88504E+03  1.54808E+03  6.27403E+02  1.23830E+03  2.24444E+02  3.16116E+02 -5.72968E+02 -5.77809E+02
 -4.26594E+02 -1.26468E+03  1.01992E+03 -1.28270E+03  7.19088E+02 -6.69386E+02  8.13581E+02  6.71939E+02
  3.66966E+02  1.93947E+02  1.28303E+03  1.43862E+02 -2.90672E+02  5.42183E+02  1.43509E+03 -3.23642E+02
 -2.97375E+02 -3.32050E+02  1.36078E+03  5.51795E+02  2.40012E+01  1.88259E+03 -4.55883E+01  2.17899E+03
 -1.29385E+03  5.24882E+02 -1.07090E+03  3.87687E+02 -1.74391E+03 -9.37627E+02  3.15315E+01 -4.60777E+02
 -3.21455E+01 -3.43769E+02  8.35678E+02 -4.46844E+02  1.16372E+02  8.50595E+02 -5.77774E+02  1.16923E+03
 -1.43084E+03  6.45931E+02 -1.03333E+03 -1.13007E+03 -3.47406E+02 -1.53247E+03  5.32526E+02 -1.60267E+03
  1.75570E+02 -3.00506E+01 -6.54326E+00  3.83752E+02  9.97301E+02 -1.98089E+02  7.62143E+00  1.63103E+03
  1.94043E+02  4.03450E+02 -1.06938E+03  4.08013E+02  1.36210E+02 -5.40406E+02  1.30272E+03 -6.14480E+02
  3.34533E+02  3.35237E+02  2.33358E+03  4.35294E+02  1.04001E+03  3.88351E+02 -2.42279E+01  1.50111E+03
 -6.65192E+02 -3.71155E+02 -9.80494E+02 -7.18409E+01 -9.93893E+02 -9.52542E+02  1.92360E+02 -1.04948E+03
  1.50500E+03 -9.87380E+02  2.01278E+02 -6.32790E+02  6.01275E+01  1.01465E+03  8.60643E+02  8.17576E+02
  8.09133E+01  1.08158E+03 -1.68631E+02 -1.76145E+02 -2.07774E+02  9.97025E+02 -5.74090E+02  1.08470E+00
 -6.15658E+02  2.38943E+02 -1.39936E+03  2.46922E+02 -1.45347E+03  1.38066E+02 -1.73892E+03 -9.20890E+02
 -8.75449E+02 -1.42100E+03  2.01902E+01 -1.94820E+03  4.15893E+02 -1.54369E+03  2.04449E+03 -6.37325E+02
  1.87869E+03 -1.67446E+02  8.38031E+02  6.72311E+02 -9.06437E+02  4.21139E+02 -6.35460E+02  1.05568E+03
 -2.59271E+02  8.13698E+02 -2.30843E+02 -2.64610E+02 -6.92263E+02  1.87421E+02 -9.14968E+02 -1.00616E+02
 -1.12560E+03  2.02945E+02 -1.28167E+03 -6.59408E+01  3.18505E+02  6.92369E+00 -5.85259E+02 -7.95873E+02
  1.17110E+03 -1.17212E+02  2.11868E+02  4.69061E+01  6.55128E+02  8.28312E+02 -7.33928E+02  6.65512E+02
 -1.25473E+03  1.88645E+03 -1.15035E+03  1.01126E+03 -1.63445E+03 -3.39858E+02 -1.25710E+03 -8.13768E+02
 -9.82537E+02 -8.62723E+02  3.71168E+02 -7.48499E+02  2.61833E+02 -5.09364E+02  3.99740E+02  3.83721E+01
  8.17386E+02  1.73086E+02  7.94254E+01  4.13858E+02 -6.31546E+02  8.41139E+01 -5.08797E+02  1.42712E+02
  3.75903E+02  2.92188E+02  1.14549E+02  8.10998E+02 -4.76047E+02  3.24734E+02  2.75949E+02  3.44953E+01
 -3.80403E+02  3.05104E+01 -5.29691E+02  5.12839E+02 -3.34455E+02 -1.85305E+02 -1.44779E+02 -9.47591E+02
  3.47122E+02 -4.81498E+02  2.38253E+02 -2.83082E+02  5.31821E+02 -1.05339E+03 -1.18260E+02  5.54848E+02
  6.12539E+02 -1.38325E+02 -1.26134E+01  4.01457E+02 -6.99153E+00  4.12756E+02 -1.41490E+02  5.24471E+02
  1.35226E+02  8.40541E+01 -3.98849E+02 -4.71143E+02 -4.01777E+02  7.82870E+02 -2.74517E+02 -3.94225E+02
 -1.30231E+03  5.77542E+02 -1.73814E+02 -3.62805E+02  7.24560E+02 -1.36272E+03  4.20997E+01  2.57989E+02
  1.62443E+02  1.36539E+02 -5.90269E+02  1.07218E+02  9.93456E+01  6.58859E+02  1.12365E+02  1.17232E+03
