 $NMID ID='MM_0lb_SNR400_13hz_g60_22.RAW', FMTDAT='(8E13.5)'
 TRAMP=1., VOLUME=1. $END
  3.10580E+05 -3.01379E+02  3.38398E+05  2.50597E+05  8.49430E+04  3.38285E+05 -1.32973E+05  2.51439E+05
 -1.90578E+05  8.38298E+04 -1.12339E+05 -3.21936E+04  1.84244E+02 -5.08112E+04  5.38067E+04 -2.61881E+02
  3.56114E+04  5.27362E+04 -1.59058E+04  7.52379E+04 -6.07035E+04  6.39655E+04 -8.49810E+04  3.18886E+04
 -8.22199E+04 -1.15968E+04 -5.74738E+04 -5.11269E+04 -1.52605E+04 -7.06215E+04  2.75516E+04 -4.57688E+04
  4.05716E+04  3.27083E+03  1.63247E+04  4.84080E+04 -3.47545E+04  4.75686E+04 -6.83167E+04  3.70441E+02
 -5.42654E+04 -5.70052E+04 -7.56170E+03 -7.78150E+04  3.42187E+04 -5.64112E+04  4.91824E+04 -1.76054E+04
  4.46728E+04  1.14114E+04  3.22017E+04  2.61738E+04  1.63024E+04  3.07930E+04 -5.49107E+03  2.72786E+04
 -2.20318E+04  1.22908E+04 -1.75955E+04 -5.32215E+03  6.57788E+03 -7.60438E+03  2.29689E+04  1.30197E+04
  7.22275E+03  3.60231E+04 -3.35031E+04  3.58387E+04 -6.49982E+04  1.73855E+03 -5.83221E+04 -4.39957E+04
 -1.28388E+04 -6.56975E+04  4.12498E+04 -4.57688E+04  5.92436E+04 -2.55840E+03  3.62267E+04  3.31430E+04
 -5.77250E+03  3.81359E+04 -3.09116E+04  1.68585E+04 -3.16492E+04 -4.72581E+03 -1.76539E+04 -1.10195E+04
 -8.66067E+03 -1.38776E+04 -1.03958E+03 -1.96876E+04  8.57154E+03 -2.34768E+04  1.52783E+04 -1.27404E+04
  1.05715E+04  5.13010E+03 -9.07080E+03  1.22488E+04 -2.26022E+04 -5.88019E+03 -8.55498E+03 -3.56318E+04
  2.37861E+04 -4.62440E+04  5.00504E+04 -1.99446E+04  4.71653E+04  2.03030E+04  1.67987E+04  4.54910E+04
 -1.62522E+04  3.43575E+04 -2.66722E+04  2.14842E+03 -1.17476E+04 -2.83521E+04  2.10918E+04 -3.58252E+04
  4.28960E+04 -9.76777E+03  3.79659E+04  2.44132E+04  1.92550E+04  4.86297E+04 -7.62664E+03  5.31443E+04
 -3.34589E+04  3.59775E+04 -4.49291E+04  1.05698E+04 -4.56105E+04 -1.76531E+04 -2.50829E+04 -4.08898E+04
  7.87781E+03 -4.00003E+04  3.30581E+04 -1.60149E+04  3.12000E+04  1.07346E+04  5.32484E+03  2.03842E+04
 -1.36560E+04  8.58588E+03 -1.03970E+04 -7.39037E+03  6.05131E+03 -1.06236E+04  1.83223E+04  5.69264E+03
  1.42423E+04  2.25210E+04 -5.17575E+03  2.54816E+04 -2.33963E+04  1.33121E+04 -2.99472E+04 -3.36907E+03
 -2.28717E+04 -1.76746E+04 -9.67604E+03 -2.30041E+04  4.34458E+03 -2.29505E+04  1.73141E+04 -2.05130E+04
  2.93867E+04 -1.35459E+04  3.52601E+04  3.84149E+03  2.45700E+04  2.23752E+04  4.14180E+03  3.91406E+04
 -1.88612E+04  3.23546E+04 -2.92828E+04  1.10216E+04 -2.12531E+04 -1.01755E+04 -4.44068E+03 -1.30521E+04
  1.68541E+03 -1.96651E+03 -6.34632E+03  8.08187E+03 -1.73578E+04  4.59778E+03 -1.75178E+04 -8.34436E+03
 -1.11227E+04 -2.12635E+04  5.72179E+03 -2.50550E+04  1.65094E+04 -1.83516E+04  2.00447E+04 -1.38397E+03
  1.38629E+04  1.41572E+04 -9.73447E+02  2.18484E+04 -1.48033E+04  1.20439E+04 -2.10300E+04 -4.41805E+03
 -1.57215E+04 -1.81130E+04 -1.82815E+03 -2.44929E+04  1.15897E+04 -2.06250E+04  2.13025E+04 -1.04833E+04
  1.96904E+04 -4.64042E+02  1.40379E+04  5.21567E+03  8.05234E+03  1.18171E+03  1.10830E+04 -1.74380E+03
  1.91472E+04  3.09194E+03  2.19548E+04  1.71273E+04  1.55310E+04  3.30432E+04 -2.02439E+03  3.83175E+04
 -2.27833E+04  3.14208E+04 -3.64984E+04  1.55444E+04 -3.80473E+04 -1.98748E+03 -3.09374E+04 -2.14477E+04
 -1.35447E+04 -3.19707E+04  1.15365E+04 -2.80748E+04  2.41422E+04 -1.36237E+04  2.22962E+04  6.81105E+03
  7.98849E+03  1.60732E+04 -1.04160E+04  1.38760E+04 -1.81894E+04  2.45998E+03 -1.42892E+04 -1.13627E+04
 -2.96046E+02 -1.73136E+04  8.90894E+03 -1.22183E+04  1.19188E+04 -1.46110E+03  2.85772E+03  7.53496E+03
 -7.35404E+03  3.11501E+03 -7.44101E+03 -5.80971E+03 -1.60665E+03 -1.54535E+04  1.05532E+04 -1.62817E+04
  1.90666E+04 -8.70844E+03  2.11956E+04  3.64582E+03  1.88236E+04  1.52878E+04  8.67081E+03  2.35225E+04
 -3.74448E+03  2.51048E+04 -1.71103E+04  1.56714E+04 -1.91743E+04  4.05820E+03 -1.30698E+04 -4.51217E+03
 -6.25575E+03 -6.03476E+03 -7.20852E+02  1.05334E+02 -1.96629E+03  2.84028E+03 -6.71954E+03  4.82491E+03
 -1.25882E+04 -1.13333E+03 -1.22332E+04 -9.94815E+03 -4.95087E+03 -1.64469E+04  4.55243E+03 -1.30749E+04
  1.04371E+04 -5.58112E+03  7.48359E+03  3.75254E+03  1.05210E+02  5.44780E+03 -6.60524E+03 -1.61611E+02
 -6.19313E+03 -7.70242E+03 -8.09846E+02 -1.22907E+04  7.72194E+03 -1.46805E+04  1.67753E+04 -7.14648E+03
  1.99103E+04  1.98116E+03  1.37198E+04  1.10687E+04  2.70436E+03  1.49208E+04 -7.50448E+03  1.26318E+04
 -1.06255E+04  4.65025E+03 -4.90726E+03 -2.66887E+03  1.91676E+03 -3.19134E+03  6.76266E+03 -1.15146E+03
  6.21680E+03  5.89157E+03  1.24039E+03  1.00896E+04 -7.43897E+03  1.03075E+04 -1.25308E+04  2.36173E+03
 -8.77149E+03 -6.31126E+03  9.94915E+02 -1.11945E+04  7.10281E+03 -5.62427E+03  6.91173E+03  2.06426E+03
  1.41718E+03  6.78810E+03 -7.08592E+03  7.98765E+03 -1.02473E+04  3.97823E+03 -1.02362E+04 -3.04487E+03
 -5.81925E+03 -1.14914E+04  2.78620E+03 -1.38176E+04  1.19184E+04 -8.46708E+03  1.27636E+04  2.26721E+03
  7.67244E+03  9.55980E+03 -9.63228E+02  1.22741E+04 -9.39397E+03  6.83392E+03 -9.45201E+03 -8.49440E+02
 -9.06862E+03 -8.83444E+03 -2.15831E+03 -9.25228E+03  5.10715E+03 -6.86153E+03  4.99399E+03 -3.49001E+03
  3.68318E+03  1.11094E+03 -1.65470E+03  1.95321E+03 -9.70572E+01 -2.42372E+03  1.65027E+03 -4.98538E+03
  8.06465E+03 -3.12016E+03  1.20985E+04  1.28963E+03  1.16813E+04  8.22157E+03  8.26739E+03  1.51424E+04
 -3.60797E+03  1.69273E+04 -1.47696E+04  1.36343E+04 -1.97262E+04  2.60245E+03 -1.56300E+04 -6.67832E+03
 -8.04216E+03 -1.30883E+04 -2.81374E+02 -1.06810E+04  3.50840E+03 -5.65909E+03  3.44127E+03 -3.67045E+03
  2.63736E+03 -2.91425E+03  2.51482E+03 -3.88633E+03  4.17646E+03 -2.52537E+03  6.49359E+03  1.01878E+02
  8.05953E+03  1.97101E+03  3.60805E+03  6.97988E+03 -1.38068E+03  7.72123E+03 -7.71273E+03  5.83719E+03
 -1.06658E+04 -3.70465E+02 -5.53409E+03 -7.56525E+03 -4.83520E+02 -1.07395E+04  5.81054E+03 -1.07988E+04
  1.11791E+04 -6.12534E+03  1.41347E+04  1.74233E+03  1.00069E+04  9.11825E+03  1.91703E+03  1.15050E+04
 -4.28508E+03  1.07351E+04 -6.28933E+03  3.21677E+03 -4.26053E+03 -9.68787E+02 -2.43369E+03 -1.39231E+03
 -6.26315E+02  2.48795E+02 -1.58913E+03  1.90325E+03 -4.64686E+03  1.94954E+03 -7.79343E+03 -1.46083E+03
 -4.37966E+03 -7.87267E+03  6.91192E+02 -9.98756E+03  5.97825E+03 -8.76641E+03  9.16077E+03 -2.52885E+03
  9.17376E+03  4.79314E+03  4.59601E+03  8.80638E+03 -1.51116E+03  9.88505E+03 -6.80163E+03  6.29248E+03
 -9.21219E+03  9.81472E+02 -7.08881E+03 -5.89843E+03 -1.07854E+03 -8.49623E+03  4.23751E+03 -5.88768E+03
  5.91101E+03 -2.68944E+03  3.90737E+03  1.33541E+03  9.29256E+02  3.27460E+03  1.68459E+03  1.61360E+03
  2.79080E+03  1.28487E+03  2.88926E+03  1.16138E+03  2.27258E+03  4.19130E+03  2.61848E+03  4.37424E+03
 -2.01108E+03  7.94101E+03 -6.09865E+03  7.78464E+03 -8.91356E+03  2.49356E+03 -1.05387E+04 -4.40216E+03
 -4.08213E+03 -9.62426E+03  1.86155E+03 -1.10831E+04  5.67824E+03 -6.53730E+03  8.39880E+03 -1.29758E+03
  6.34861E+03  2.97563E+03  1.46840E+03  4.89834E+03 -2.29640E+03  3.08839E+03 -3.45651E+03 -7.75732E+02
 -1.46186E+03 -4.00801E+03  2.21796E+03 -4.07079E+03  3.55753E+03 -1.83669E+03  3.63207E+03  5.85539E+02
  2.24231E+03  1.63641E+03  7.35573E+02  7.16788E+02 -3.68805E+02  1.18130E+03  1.87867E+03 -6.64536E+02
  1.22058E+03 -1.63898E+02  4.37307E+03  1.10163E+03  9.29983E+02  5.25839E+03 -5.60628E+02  6.36255E+03
 -4.43525E+03  4.15715E+03 -5.53274E+03  7.41137E+02 -4.83008E+03 -2.53793E+03 -1.31236E+03 -3.42353E+03
  3.73743E+02 -3.60944E+03  2.44966E+03 -1.30554E+03  2.04559E+03  2.53248E+03 -1.27818E+03  3.30576E+03
 -4.34662E+03  1.97426E+03 -3.84587E+03 -2.98484E+03 -2.30408E+03 -4.52467E+03  4.47095E+02 -5.16683E+03
  1.99419E+03 -2.45098E+03  2.75619E+03 -6.22100E+02  3.78640E+03  8.51737E+02  7.81119E+02  2.99414E+03
 -1.81162E+03  2.40868E+02 -2.13708E+03 -1.40240E+03  9.39562E+02 -4.21623E+03  4.31327E+03 -3.12808E+03
  4.81805E+03  7.28292E+02  5.95053E+03  3.53427E+03  1.41537E+03  5.49877E+03 -1.44242E+03  6.09429E+03
 -4.54563E+03  1.61039E+03 -4.78465E+03 -1.16422E+03 -1.99025E+03 -3.22700E+03  1.04111E+03 -3.03581E+03
  3.05047E+03 -1.49630E+03  2.92014E+03  1.64400E+03  7.18823E+02  2.56867E+03  1.52188E+02  3.00728E+03
 -1.15471E+03  2.29107E+03 -1.17809E+03  8.08455E+02 -4.52859E+02  4.57185E+02 -5.21884E+02  1.21816E+03
 -1.91377E+03  1.89940E+03 -4.35390E+03  1.31059E+03 -5.06336E+03 -2.65687E+02 -5.97717E+03 -2.85462E+03
 -2.86115E+03 -7.38298E+03  1.35947E+03 -7.43091E+03  4.50453E+03 -6.85276E+03  8.63213E+03 -2.76552E+03
  7.06279E+03  9.78059E+02  3.95234E+03  5.24188E+03 -5.95883E+02  5.48691E+03 -1.92227E+03  4.28773E+03
 -2.93432E+03  1.64654E+03 -1.74381E+03 -5.67125E+02 -4.00764E+02 -8.62347E+02 -4.66735E+02  2.98849E+02
 -1.37579E+03 -2.99913E+02 -1.22105E+03 -2.04613E+02  4.19647E+02 -1.78680E+03 -4.80159E+02 -1.81527E+03
  3.12297E+03 -2.16507E+03  2.61560E+03  3.74445E+02  3.64702E+03  3.31064E+03  3.23040E+02  4.97096E+03
 -2.34172E+03  5.62719E+03 -5.78379E+03  4.07512E+03 -5.84026E+03 -2.94990E+02 -3.97888E+03 -3.98194E+03
 -1.67480E+03 -5.09148E+03  1.34189E+03 -4.67307E+03  2.88105E+03 -2.74137E+03  2.91992E+03  2.22082E+02
  1.88346E+03  1.85727E+03 -9.60924E+01  1.74374E+03 -1.18336E+03  6.27342E+01  2.31415E+02 -1.00467E+03
  1.53851E+03 -7.30568E+02  1.10295E+03  3.49753E+02  7.95128E+02  1.52112E+03  1.05070E+03  1.67531E+03
 -2.45133E+03  2.26351E+03 -3.17672E+03  6.64820E+02 -3.34467E+03 -1.46717E+03  3.27730E+01 -4.57922E+03
  2.26258E+03 -3.75165E+03  3.32541E+03 -8.91192E+02  3.37610E+03  1.20539E+03  1.89198E+03  2.73773E+03
  5.90131E+02  2.83342E+03 -1.11061E+03  2.76388E+03 -2.12300E+03  9.81341E+02 -1.94399E+03  1.22458E+02
 -1.37903E+03 -6.35943E+02 -9.20556E+02  1.90402E+02 -2.16409E+03  2.03759E+02 -2.72708E+03 -1.21674E+03
 -2.58333E+03 -1.53029E+03 -6.22478E+02 -3.14582E+03  2.17904E+03 -3.69979E+03  2.97390E+03 -1.40689E+03
  3.06500E+03  2.80818E+02  1.27483E+03  1.93535E+03 -5.16579E+02  3.38891E+03 -2.22091E+03  1.51071E+03
