 $NMID ID='MM_0lb_SNR400_10hz_g60_48.RAW', FMTDAT='(8E13.5)'
 TRAMP=1., VOLUME=1. $END
  3.09262E+05  1.37872E+02  3.38654E+05  2.50897E+05  8.41920E+04  3.38947E+05 -1.33085E+05  2.52445E+05
 -1.90519E+05  8.33712E+04 -1.13206E+05 -3.24429E+04 -3.83317E+01 -5.07925E+04  5.35069E+04 -7.10500E+02
  3.53268E+04  5.29552E+04 -1.66974E+04  7.69962E+04 -6.10045E+04  6.42078E+04 -8.61095E+04  3.27679E+04
 -8.29578E+04 -1.22558E+04 -5.82470E+04 -5.23635E+04 -1.53220E+04 -7.17678E+04  2.86933E+04 -4.60051E+04
  4.15487E+04  3.57454E+03  1.66600E+04  4.81730E+04 -3.49059E+04  4.86729E+04 -6.80864E+04 -2.08330E+02
 -5.48604E+04 -5.80883E+04 -7.45259E+03 -7.94383E+04  3.45842E+04 -5.76204E+04  5.01128E+04 -1.81263E+04
  4.55935E+04  1.13376E+04  3.30777E+04  2.67383E+04  1.55607E+04  3.08089E+04 -5.97015E+03  2.81603E+04
 -2.26193E+04  1.27771E+04 -1.74350E+04 -5.70151E+03  7.20411E+03 -6.38716E+03  2.32537E+04  1.37670E+04
  7.14326E+03  3.75242E+04 -3.39527E+04  3.71238E+04 -6.56387E+04  2.33208E+03 -5.83890E+04 -4.48153E+04
 -1.29040E+04 -6.63005E+04  4.15477E+04 -4.70803E+04  6.14739E+04 -2.39488E+03  3.68085E+04  3.39124E+04
 -5.29583E+03  4.00329E+04 -3.22583E+04  1.93053E+04 -3.31264E+04 -4.13270E+03 -1.97985E+04 -1.19301E+04
 -9.70721E+03 -1.47574E+04 -7.24760E+02 -1.90511E+04  8.01015E+03 -2.35593E+04  1.57832E+04 -1.29393E+04
  1.00136E+04  6.49913E+03 -1.05255E+04  1.19002E+04 -2.44060E+04 -6.83192E+03 -9.68639E+03 -3.77632E+04
  2.43155E+04 -4.66715E+04  5.22060E+04 -2.16380E+04  4.89612E+04  2.04057E+04  1.76969E+04  4.71636E+04
 -1.63886E+04  3.58647E+04 -2.73116E+04  2.86019E+03 -1.12004E+04 -2.98107E+04  2.14495E+04 -3.77274E+04
  4.40202E+04 -1.15342E+04  4.06603E+04  2.49132E+04  2.13873E+04  5.13554E+04 -8.84111E+03  5.73281E+04
 -3.52466E+04  3.90176E+04 -4.78739E+04  1.06899E+04 -4.76852E+04 -1.86070E+04 -2.61430E+04 -4.23975E+04
  8.12172E+03 -4.19458E+04  3.50482E+04 -1.64088E+04  3.26282E+04  1.06506E+04  5.59753E+03  2.09064E+04
 -1.36697E+04  9.66054E+03 -1.08680E+04 -6.97232E+03  5.62752E+03 -1.13014E+04  1.89568E+04  5.13818E+03
  1.46188E+04  2.31503E+04 -5.84476E+03  2.68016E+04 -2.34828E+04  1.37079E+04 -3.05970E+04 -3.60774E+03
 -2.57931E+04 -1.88065E+04 -1.16141E+04 -2.49577E+04  4.32562E+03 -2.64445E+04  2.02102E+04 -2.34565E+04
  3.21435E+04 -1.38242E+04  3.84650E+04  4.92572E+03  2.77966E+04  2.43982E+04  5.24213E+03  4.20953E+04
 -2.02654E+04  3.29467E+04 -3.08395E+04  1.23333E+04 -2.23273E+04 -9.53596E+03 -5.54818E+03 -1.33862E+04
  6.16879E+02 -1.32868E+03 -7.29894E+03  7.65564E+03 -2.01344E+04  5.19311E+03 -2.03885E+04 -9.19348E+03
 -1.14769E+04 -2.40684E+04  6.35504E+03 -2.75369E+04  1.96852E+04 -1.92945E+04  2.24329E+04 -1.40311E+03
  1.44169E+04  1.52451E+04 -1.82094E+03  2.36981E+04 -1.64840E+04  1.32908E+04 -2.36090E+04 -4.88589E+03
 -1.78452E+04 -2.06448E+04 -2.15959E+03 -2.88958E+04  1.23452E+04 -2.36384E+04  2.29504E+04 -1.25642E+04
  2.11600E+04  5.17992E+02  1.55065E+04  5.07064E+03  8.46556E+03  1.58097E+03  1.25108E+04 -2.32922E+03
  2.23194E+04  2.94872E+03  2.57911E+04  1.78649E+04  1.74272E+04  3.76622E+04 -2.21130E+03  4.43611E+04
 -2.50953E+04  3.69238E+04 -4.23498E+04  1.93225E+04 -4.46176E+04 -2.63765E+03 -3.65598E+04 -2.60002E+04
 -1.44505E+04 -3.70226E+04  1.34986E+04 -3.21088E+04  2.79395E+04 -1.49516E+04  2.40658E+04  7.84581E+03
  8.70093E+03  1.91879E+04 -1.20515E+04  1.58659E+04 -2.07170E+04  3.02526E+03 -1.52083E+04 -1.36082E+04
 -3.43252E+02 -1.96110E+04  1.07838E+04 -1.40776E+04  1.29260E+04 -1.03438E+03  4.31566E+03  8.73369E+03
 -9.07902E+03  4.12803E+03 -9.49592E+03 -6.65764E+03 -2.17280E+03 -1.82858E+04  1.19861E+04 -2.07389E+04
  2.27354E+04 -1.14070E+04  2.51990E+04  3.69871E+03  2.30104E+04  1.83535E+04  1.03743E+04  2.87168E+04
 -5.26834E+03  3.02654E+04 -1.94077E+04  1.92922E+04 -2.26263E+04  3.99030E+03 -1.55587E+04 -5.54745E+03
 -7.48559E+03 -8.06914E+03 -8.83515E+02  5.49760E+02 -3.27662E+03  2.50821E+03 -7.09661E+03  5.20658E+03
 -1.41725E+04 -1.93458E+03 -1.47147E+04 -1.19108E+04 -5.67480E+03 -1.91678E+04  6.03001E+03 -1.46974E+04
  1.27494E+04 -6.23893E+03  9.49055E+03  4.10768E+03 -7.83438E+02  6.18415E+03 -7.03969E+03 -7.58774E+02
 -7.01350E+03 -1.03429E+04 -1.24571E+03 -1.50174E+04  9.70021E+03 -1.64984E+04  2.07151E+04 -9.04895E+03
  2.26452E+04  1.99223E+03  1.76356E+04  1.47725E+04  3.14119E+03  1.93891E+04 -9.39544E+03  1.53647E+04
 -1.19722E+04  4.61271E+03 -6.44221E+03 -4.25625E+03  2.37571E+03 -3.80032E+03  8.24824E+03 -1.53739E+03
  6.97624E+03  7.03011E+03  1.97874E+02  1.23504E+04 -7.57882E+03  1.28235E+04 -1.56306E+04  3.00212E+03
 -1.12526E+04 -8.64212E+03  5.87972E+02 -1.34854E+04  8.84860E+03 -5.92565E+03  9.43458E+03  3.37940E+03
  2.20741E+03  9.62518E+03 -7.95354E+03  1.20206E+04 -1.43731E+04  5.17147E+03 -1.41489E+04 -5.31889E+03
 -7.34656E+03 -1.47652E+04  4.87112E+03 -1.79995E+04  1.52218E+04 -1.02386E+04  1.69058E+04  2.62788E+03
  9.96413E+03  1.35278E+04 -1.42525E+03  1.51567E+04 -1.18004E+04  8.69801E+03 -1.24448E+04 -4.90958E+02
 -1.07475E+04 -1.07492E+04 -1.36496E+03 -1.17577E+04  6.09384E+03 -9.99972E+03  8.20399E+03 -3.62329E+03
  5.17028E+03  1.93965E+03 -1.06903E+03  2.82455E+03 -6.42249E+02 -3.64471E+03  2.70536E+03 -7.54937E+03
  1.13039E+04 -4.86723E+03  1.64249E+04  2.34695E+03  1.53770E+04  1.10128E+04  1.02999E+04  2.03554E+04
 -4.89384E+03  2.34490E+04 -1.91606E+04  1.71327E+04 -2.47734E+04  3.48848E+03 -2.00829E+04 -9.09038E+03
 -1.03601E+04 -1.73061E+04  1.21083E+02 -1.45761E+04  5.38729E+03 -8.07168E+03  5.40316E+03 -5.15447E+03
  3.78712E+03 -2.71029E+03  3.57157E+03 -3.96783E+03  5.64009E+03 -3.40590E+03  8.15285E+03 -4.17782E+02
  9.75393E+03  2.16619E+03  5.59997E+03  9.30075E+03 -2.45547E+03  1.13665E+04 -1.09437E+04  8.50919E+03
 -1.43008E+04 -1.29960E+03 -8.80280E+03 -9.92610E+03 -1.49827E+03 -1.57028E+04  8.22617E+03 -1.53038E+04
  1.57382E+04 -9.15354E+03  1.86528E+04  2.86993E+03  1.35464E+04  1.34032E+04  2.32803E+03  1.68562E+04
 -6.29491E+03  1.29785E+04 -1.02952E+04  4.91878E+03 -6.58267E+03 -1.19668E+03 -2.39711E+03 -2.47247E+03
 -1.43298E+03 -2.52563E+02 -2.21011E+03  2.30415E+03 -5.87467E+03  1.95824E+03 -1.01543E+04 -1.53959E+03
 -7.06986E+03 -9.25847E+03 -2.17658E+02 -1.50532E+04  8.91845E+03 -1.28916E+04  1.38096E+04 -3.41034E+03
  1.34501E+04  6.98979E+03  6.67655E+03  1.21409E+04 -3.35885E+03  1.39621E+04 -1.08280E+04  9.61335E+03
 -1.34489E+04 -3.96040E+01 -9.86320E+03 -8.56660E+03 -1.26956E+03 -1.22430E+04  5.85255E+03 -7.63448E+03
  9.13626E+03 -3.18749E+03  6.39180E+03  2.80858E+03  2.26708E+03  3.77608E+03  1.63437E+03  1.90713E+03
  2.23406E+03  4.95761E+02  3.44789E+03  2.17430E+03  4.31522E+03  4.73606E+03  3.72364E+03  7.59217E+03
 -3.38971E+03  1.05869E+04 -1.04513E+04  1.11139E+04 -1.39472E+04  2.84721E+03 -1.53231E+04 -6.02698E+03
 -6.87288E+03 -1.52539E+04  2.47665E+03 -1.61605E+04  8.51572E+03 -1.06883E+04  1.19392E+04 -2.07129E+03
  9.12864E+03  5.75729E+03  2.32401E+03  7.93206E+03 -3.95305E+03  5.98153E+03 -5.58440E+03  5.73292E+01
 -3.24985E+03 -6.62974E+03  2.86921E+03 -6.48677E+03  6.53201E+03 -3.04080E+03  5.43977E+03  1.63801E+03
  3.46998E+03  2.61091E+03  1.77341E+03  2.24127E+03 -1.55863E+03  2.37661E+03  1.78562E+03 -1.10699E+03
  2.46522E+03 -8.47812E+02  6.46139E+03  2.64484E+03  3.60084E+03  7.86121E+03 -1.20468E+03  1.07972E+04
 -6.75121E+03  6.56910E+03 -9.83662E+03  2.06370E+03 -8.10884E+03 -2.65655E+03 -2.96919E+03 -5.10061E+03
  3.94216E+02 -5.31607E+03  3.31160E+03 -2.20633E+03  3.36446E+03  2.42481E+03 -1.60365E+03  4.36061E+03
 -5.84979E+03  2.82075E+03 -6.64000E+03 -2.92422E+03 -3.66305E+03 -7.42073E+03  8.86029E+02 -8.03355E+03
  5.48454E+03 -4.25565E+03  5.25247E+03 -1.15754E+03  5.05897E+03  1.65784E+03  1.30421E+03  5.00973E+03
 -3.48321E+03  1.47424E+03 -3.29797E+03 -2.86721E+03  9.79500E+02 -6.00414E+03  7.87610E+03 -4.78388E+03
  8.93401E+03  9.86370E+02  9.17258E+03  6.47300E+03  2.91480E+03  9.94818E+03 -3.25585E+03  8.98924E+03
 -7.32920E+03  3.50667E+03 -7.81517E+03 -9.30261E+02 -4.20295E+03 -5.99374E+03  2.25736E+03 -5.88846E+03
  5.88766E+03 -2.62537E+03  4.63436E+03  3.13370E+03  1.70038E+03  5.50249E+03 -5.11886E+02  4.79069E+03
 -2.05018E+03  2.78002E+03 -2.25258E+03  7.88639E+02 -1.28117E+03  1.12807E+03 -1.19540E+03  1.72827E+03
 -2.05647E+03  4.14587E+03 -6.54641E+03  3.81205E+03 -9.43019E+03 -8.84330E+01 -1.09431E+04 -6.18924E+03
 -5.35007E+03 -1.18592E+04  2.63471E+03 -1.44009E+04  8.60896E+03 -1.14182E+04  1.40388E+04 -4.06718E+03
  1.24470E+04  2.11893E+03  7.14943E+03  8.20024E+03  8.24447E+02  8.97232E+03 -3.59363E+03  6.70108E+03
 -6.13618E+03  2.72688E+03 -2.41424E+03 -1.12056E+03 -1.21406E+03 -1.72425E+03 -1.06132E+03 -4.18221E+02
 -1.78063E+03  1.46523E+02 -2.97528E+03 -2.37995E+02 -1.76143E+02 -2.78331E+03 -1.42066E+02 -4.01614E+03
  4.36451E+03 -2.76309E+03  6.49588E+03  1.17059E+01  7.00314E+03  5.24715E+03  1.51549E+03  9.84710E+03
 -4.31381E+03  1.06066E+04 -1.03397E+04  6.03871E+03 -1.13170E+04 -1.16716E+03 -8.37309E+03 -6.95290E+03
 -4.25447E+03 -9.25324E+03  3.36369E+03 -8.82598E+03  5.86159E+03 -4.92021E+03  6.38059E+03 -2.50983E-01
  3.50995E+03  3.60868E+03 -9.37374E+02  2.80658E+03 -2.03403E+03 -3.38527E+02 -1.91554E+02 -2.58597E+03
  2.20095E+03 -4.74864E+02  3.34758E+03  1.03887E+03  2.37639E+03  3.66962E+03  4.96398E+02  5.11152E+03
 -3.75456E+03  4.23106E+03 -6.04442E+03 -2.85233E+02 -5.81706E+03 -4.71824E+03 -1.54423E+03 -7.52471E+03
  4.28708E+03 -6.16765E+03  6.47830E+03 -2.10532E+03  7.01533E+03  1.77366E+03  3.77878E+03  5.18598E+03
  1.18758E+03  6.35860E+03 -2.52700E+03  3.84900E+03 -2.95946E+03  2.51006E+03 -3.55706E+03  2.52448E+02
 -1.74644E+03 -8.63625E+02 -2.91683E+03  8.64204E+02 -3.06835E+03  7.32760E+02 -4.02849E+03 -7.22255E+02
 -4.52955E+03 -2.83820E+03 -1.36001E+03 -6.25342E+03  2.16124E+03 -5.65590E+03  5.51633E+03 -3.01941E+03
  6.51914E+03  5.97818E+02  2.17370E+03  4.26615E+03 -6.32428E+02  6.10246E+03 -4.95886E+03  3.50094E+03
