 $NMID ID='MM_0lb_SNR400_11hz_g40_4.RAW', FMTDAT='(8E13.5)'
 TRAMP=1., VOLUME=1. $END
  3.10544E+05 -1.52302E+02  3.38370E+05  2.50813E+05  8.50612E+04  3.38548E+05 -1.32845E+05  2.51925E+05
 -1.90621E+05  8.32765E+04 -1.11995E+05 -3.20270E+04  4.68694E+02 -5.06794E+04  5.41902E+04 -1.23830E+02
  3.53243E+04  5.26207E+04 -1.64476E+04  7.57558E+04 -6.14415E+04  6.40542E+04 -8.48699E+04  3.22724E+04
 -8.19015E+04 -1.13753E+04 -5.68212E+04 -5.14591E+04 -1.48511E+04 -6.99853E+04  2.82706E+04 -4.59454E+04
  4.10083E+04  3.63054E+03  1.56053E+04  4.81577E+04 -3.38484E+04  4.67459E+04 -6.70115E+04 -4.78897E+02
 -5.35079E+04 -5.74717E+04 -7.25280E+03 -7.75727E+04  3.43474E+04 -5.61637E+04  4.90695E+04 -1.83624E+04
  4.47802E+04  1.16994E+04  3.22548E+04  2.55696E+04  1.58502E+04  2.89137E+04 -5.63483E+03  2.68492E+04
 -2.30748E+04  1.20984E+04 -1.81739E+04 -5.90491E+03  7.22679E+03 -7.27022E+03  2.26701E+04  1.28298E+04
  7.34466E+03  3.61045E+04 -3.25803E+04  3.53464E+04 -6.39969E+04  2.23787E+03 -5.78785E+04 -4.32896E+04
 -1.31601E+04 -6.38356E+04  4.07585E+04 -4.59426E+04  5.91983E+04 -2.46445E+03  3.45298E+04  3.33586E+04
 -5.68325E+03  3.70036E+04 -3.08493E+04  1.70055E+04 -3.18245E+04 -4.17386E+03 -1.74868E+04 -1.07251E+04
 -9.45090E+03 -1.37909E+04 -6.49705E+02 -1.83613E+04  7.67796E+03 -2.35805E+04  1.53834E+04 -1.34547E+04
  1.07042E+04  5.65895E+03 -8.78990E+03  1.29255E+04 -2.14966E+04 -5.17588E+03 -8.34050E+03 -3.47867E+04
  2.42036E+04 -4.44828E+04  5.02517E+04 -2.06231E+04  4.68045E+04  1.97003E+04  1.67751E+04  4.56546E+04
 -1.60880E+04  3.44767E+04 -2.58576E+04  2.16672E+03 -1.08746E+04 -2.84826E+04  2.15836E+04 -3.51612E+04
  4.21225E+04 -1.02252E+04  3.70861E+04  2.48069E+04  1.95588E+04  4.78398E+04 -7.90808E+03  5.22522E+04
 -3.34076E+04  3.54899E+04 -4.49284E+04  9.75934E+03 -4.43572E+04 -1.75531E+04 -2.46945E+04 -3.98897E+04
  7.91358E+03 -3.94052E+04  3.32978E+04 -1.54648E+04  3.08986E+04  1.05013E+04  4.09184E+03  1.95590E+04
 -1.36953E+04  8.68144E+03 -1.02485E+04 -7.83127E+03  6.21909E+03 -1.19854E+04  1.80955E+04  6.04809E+03
  1.35330E+04  2.18689E+04 -5.31651E+03  2.60975E+04 -2.23511E+04  1.29237E+04 -2.92860E+04 -3.80612E+03
 -2.31994E+04 -1.77200E+04 -9.33740E+03 -2.25004E+04  4.12876E+03 -2.25549E+04  1.80600E+04 -1.98125E+04
  2.85839E+04 -1.34859E+04  3.48785E+04  3.47552E+03  2.48507E+04  2.14727E+04  4.11158E+03  3.81059E+04
 -1.89487E+04  3.17926E+04 -2.92343E+04  1.07042E+04 -2.20802E+04 -1.03765E+04 -4.04818E+03 -1.31186E+04
  9.87720E+02 -1.95510E+03 -6.19322E+03  7.64212E+03 -1.82155E+04  4.76476E+03 -1.84271E+04 -8.32775E+03
 -1.10596E+04 -2.08750E+04  5.68025E+03 -2.46001E+04  1.66536E+04 -1.80317E+04  2.01928E+04 -1.97156E+03
  1.28418E+04  1.46500E+04 -1.04385E+03  2.06924E+04 -1.49906E+04  1.19063E+04 -2.12828E+04 -5.08250E+03
 -1.50327E+04 -1.87928E+04 -1.97572E+03 -2.47601E+04  1.06701E+04 -2.08537E+04  2.12167E+04 -1.08859E+04
  1.91254E+04 -9.27224E+01  1.40061E+04  4.55030E+03  8.09198E+03  9.78751E+02  1.02801E+04 -1.70945E+03
  1.88888E+04  3.62318E+03  2.18148E+04  1.65914E+04  1.45960E+04  3.28204E+04 -2.62254E+03  3.75496E+04
 -2.18899E+04  3.09014E+04 -3.69154E+04  1.55990E+04 -3.82951E+04 -3.19299E+03 -3.09388E+04 -2.23056E+04
 -1.33521E+04 -3.09591E+04  1.10193E+04 -2.77395E+04  2.37734E+04 -1.34127E+04  2.07675E+04  6.69073E+03
  7.05916E+03  1.56721E+04 -9.42704E+03  1.40936E+04 -1.73455E+04  2.81333E+03 -1.42544E+04 -1.15503E+04
 -6.02521E+02 -1.74818E+04  8.44168E+03 -1.34673E+04  1.18351E+04 -1.14323E+03  3.03412E+03  7.50912E+03
 -7.65791E+03  2.83041E+03 -6.89737E+03 -6.05264E+03 -1.12347E+03 -1.55583E+04  1.00876E+04 -1.64720E+04
  1.97705E+04 -9.70790E+03  2.18317E+04  3.63674E+03  1.86962E+04  1.53228E+04  8.52569E+03  2.41616E+04
 -3.47475E+03  2.59709E+04 -1.69339E+04  1.64372E+04 -1.78694E+04  3.73301E+03 -1.24515E+04 -4.88558E+03
 -5.84402E+03 -5.72275E+03  2.66396E+02  1.02962E+03 -2.34146E+03  2.70434E+03 -5.80454E+03  4.81430E+03
 -1.15589E+04 -6.04135E+02 -1.25714E+04 -1.01365E+04 -4.97539E+03 -1.64967E+04  5.53721E+03 -1.34755E+04
  1.12356E+04 -5.32632E+03  7.64994E+03  3.52730E+03  8.51148E+01  5.66813E+03 -6.76079E+03 -3.02444E+02
 -6.16974E+03 -7.93710E+03 -1.10951E+03 -1.26889E+04  6.91788E+03 -1.29764E+04  1.65139E+04 -6.91523E+03
  1.99309E+04  1.84206E+03  1.39845E+04  1.20205E+04  2.86489E+03  1.52731E+04 -8.10021E+03  1.31635E+04
 -1.05936E+04  3.28228E+03 -6.07081E+03 -2.72393E+03  1.72556E+03 -3.41432E+03  6.43176E+03 -8.30515E+02
  5.90224E+03  6.22689E+03  1.36862E+03  9.84124E+03 -8.07714E+03  9.86026E+03 -1.28381E+04  3.12614E+03
 -8.09989E+03 -7.31972E+03  5.86974E+02 -1.08734E+04  7.10212E+03 -5.61777E+03  7.45588E+03  2.90726E+03
  1.21693E+03  7.97683E+03 -7.10028E+03  9.17066E+03 -1.04160E+04  4.76123E+03 -1.03640E+04 -2.89667E+03
 -5.63776E+03 -1.24873E+04  3.12507E+03 -1.42555E+04  1.14547E+04 -8.71143E+03  1.29983E+04  3.58620E+03
  8.01197E+03  1.03782E+04 -9.11962E+02  1.24683E+04 -8.83884E+03  7.61773E+03 -1.00210E+04 -5.02168E+02
 -9.35619E+03 -8.38988E+03 -1.40337E+03 -9.60803E+03  5.50397E+03 -8.06029E+03  5.55086E+03 -3.76196E+03
  4.20958E+03  1.63674E+03 -8.75591E+02  1.47584E+03 -5.52813E+02 -1.97126E+03  1.57123E+03 -5.05385E+03
  8.26138E+03 -3.76663E+03  1.18627E+04  1.02082E+03  1.24909E+04  8.36139E+03  8.23660E+03  1.64649E+04
 -2.32690E+03  1.86043E+04 -1.56809E+04  1.31810E+04 -1.98999E+04  2.65384E+03 -1.64001E+04 -6.78473E+03
 -7.77360E+03 -1.25334E+04 -7.00879E+02 -1.14931E+04  3.44060E+03 -5.61408E+03  4.29943E+03 -3.57437E+03
  2.94201E+03 -2.54899E+03  3.16402E+03 -3.43753E+03  4.88066E+03 -2.53729E+03  6.22660E+03 -6.93776E+02
  8.79254E+03  1.26859E+03  4.03589E+03  7.46844E+03 -1.34565E+03  8.78731E+03 -8.48783E+03  6.98790E+03
 -1.11290E+04 -1.24171E+03 -6.75722E+03 -8.16341E+03 -1.22781E+03 -1.20564E+04  6.51007E+03 -1.18959E+04
  1.28290E+04 -7.23358E+03  1.38900E+04  1.93789E+03  1.04778E+04  1.06137E+04  1.70331E+03  1.34776E+04
 -5.21353E+03  1.11399E+04 -8.14441E+03  4.45037E+03 -5.53624E+03 -2.01852E+03 -2.11977E+03 -1.02706E+03
 -1.35398E+03 -4.45180E+02 -1.34898E+03  1.97818E+03 -4.15876E+03  1.57298E+03 -8.08140E+03 -1.10069E+03
 -4.92291E+03 -8.50846E+03 -2.27268E+02 -1.11842E+04  6.29189E+03 -1.01793E+04  1.09381E+04 -3.45127E+03
  1.10255E+04  5.94102E+03  5.10228E+03  9.28104E+03 -1.90054E+03  1.09176E+04 -7.35503E+03  7.37194E+03
 -1.01160E+04  4.01697E+02 -8.52344E+03 -6.68701E+03 -9.28454E+02 -9.03988E+03  4.17723E+03 -6.68410E+03
  6.85797E+03 -2.22492E+03  5.12472E+03  1.45067E+03  1.95916E+03  3.00737E+03  1.01155E+03  1.84179E+03
  2.41079E+03  1.20209E+03  2.69751E+03  1.69327E+03  3.32068E+03  3.53970E+03  2.79865E+03  6.17269E+03
 -2.01097E+03  8.59708E+03 -7.88165E+03  8.71120E+03 -1.04553E+04  2.91431E+03 -1.13436E+04 -4.02978E+03
 -5.32178E+03 -1.09635E+04  1.84734E+03 -1.23352E+04  5.93272E+03 -8.30740E+03  8.94521E+03 -1.58093E+03
  6.84779E+03  3.82900E+03  1.60800E+03  6.10551E+03 -3.28798E+03  5.77405E+03 -3.78521E+03 -1.07371E+02
 -1.18231E+03 -4.41424E+03  2.62083E+03 -3.94095E+03  4.90570E+03 -2.83571E+03  4.56665E+03  8.17687E+02
  2.06068E+03  2.18837E+03  1.18449E+03  1.63708E+03 -8.15480E+02  2.03829E+03  1.66283E+03 -7.05242E+02
  1.78667E+03 -4.77208E-01  4.74473E+03  1.09860E+03  2.64342E+03  5.81922E+03 -7.65539E+02  8.04347E+03
 -4.92438E+03  4.16213E+03 -6.44174E+03  1.32998E+03 -5.82377E+03 -2.06878E+03 -2.15810E+03 -2.95308E+03
  1.29034E+03 -3.42672E+03  3.37715E+03 -1.60278E+03  2.50308E+03  2.53260E+03 -1.09352E+03  3.53484E+03
 -4.77495E+03  2.04631E+03 -5.22417E+03 -2.34619E+03 -3.09020E+03 -6.57963E+03  6.55913E+02 -5.54456E+03
  3.63005E+03 -3.80459E+03  4.03189E+03 -1.11093E+03  4.25359E+03  1.56843E+03  2.54711E+02  2.91509E+03
 -1.75477E+03  1.05550E+03 -3.29172E+03 -1.98186E+03  1.61123E+03 -4.41720E+03  5.60942E+03 -3.56350E+03
  6.13285E+03  1.04737E+03  6.30291E+03  3.99322E+03  1.55072E+03  6.93199E+03 -1.73010E+03  6.98800E+03
 -5.65119E+03  2.49286E+03 -5.34443E+03 -1.11494E+03 -2.66293E+03 -4.80877E+03  3.63500E+02 -3.89869E+03
  4.80902E+03 -1.78683E+03  3.92313E+03  1.59870E+03  1.09604E+03  3.98497E+03 -5.46204E+00  3.29768E+03
 -2.13995E+03  2.86708E+03 -2.11771E+03  3.29334E+02 -2.44049E+02  6.20188E+02 -1.20305E+03  1.59793E+03
 -1.35340E+03  2.88280E+03 -5.19788E+03  2.93445E+03 -7.59638E+03 -2.15827E+02 -8.24712E+03 -4.71106E+03
 -3.47872E+03 -9.42570E+03  1.44610E+03 -1.01058E+04  6.61506E+03 -7.99124E+03  9.55270E+03 -2.91557E+03
  9.03762E+03  1.40803E+03  5.55268E+03  5.71188E+03  2.64712E+02  7.12865E+03 -2.60876E+03  4.44971E+03
 -4.13887E+03  1.84537E+03 -2.53771E+03 -1.08757E+03 -1.62613E+03 -8.90365E+02 -1.25988E+03 -6.71840E+02
 -1.36664E+03  2.18501E+02 -1.56609E+03 -4.18050E+02 -8.30678E+02 -1.98295E+03  4.20017E+02 -2.54963E+03
  3.59062E+03 -1.94599E+03  3.71431E+03 -9.30246E+01  5.46251E+03  3.73718E+03  6.98273E+02  6.91631E+03
 -3.28239E+03  7.42279E+03 -7.01353E+03  5.07180E+03 -7.50803E+03 -9.92626E+02 -5.74638E+03 -5.37095E+03
 -2.75426E+03 -7.34397E+03  1.09130E+03 -5.76063E+03  3.77305E+03 -2.86515E+03  4.57375E+03  5.71489E+02
  2.68348E+03  1.49306E+03  7.89705E+01  2.50208E+03 -2.31206E+03 -5.90325E+02  5.77565E+02 -1.44552E+03
  1.90975E+03 -6.82987E+02  2.66647E+03  6.05844E+02  1.41563E+03  2.96450E+03  1.43646E+02  3.59431E+03
 -3.71304E+03  3.46816E+03 -4.72925E+03  7.68508E+02 -4.29633E+03 -3.14401E+03 -7.63683E+02 -4.86575E+03
  2.29497E+03 -4.82687E+03  4.98409E+03 -2.33076E+03  5.31179E+03  9.31932E+02  2.69887E+03  4.01801E+03
  3.91465E+02  4.35722E+03 -1.96526E+03  3.77228E+03 -2.84993E+03  1.99810E+03 -1.94812E+03  3.17827E+02
 -4.56272E+02  1.82288E+02 -9.28550E+02  4.81667E+02 -2.08760E+03  9.31462E+02 -3.79744E+03 -1.62392E+03
 -3.38918E+03 -1.76840E+03 -1.21554E+03 -4.29887E+03  2.12495E+03 -4.97652E+03  4.35376E+03 -2.31971E+03
  4.98945E+03 -8.38741E+01  1.91804E+03  2.89344E+03 -1.86078E+02  4.33135E+03 -3.73558E+03  2.83789E+03
