 $NMID ID='MM_0lb_SNR400_17hz_g45_66.RAW', FMTDAT='(8E13.5)'
 TRAMP=1., VOLUME=1. $END
  3.09483E+05  3.98482E+02  3.37064E+05  2.50490E+05  8.47938E+04  3.37375E+05 -1.32645E+05  2.50800E+05
 -1.89600E+05  8.26044E+04 -1.11281E+05 -3.23172E+04  9.16450E+02 -5.03824E+04  5.39030E+04 -8.30285E+01
  3.52439E+04  5.34830E+04 -1.65959E+04  7.42173E+04 -6.00522E+04  6.28633E+04 -8.36273E+04  3.13191E+04
 -8.01412E+04 -1.08002E+04 -5.67587E+04 -5.01874E+04 -1.48669E+04 -6.91171E+04  2.71512E+04 -4.51907E+04
  3.93256E+04  4.15278E+03  1.49956E+04  4.73914E+04 -3.34636E+04  4.67166E+04 -6.56867E+04 -5.81822E+02
 -5.24530E+04 -5.61994E+04 -6.09070E+03 -7.56628E+04  3.35705E+04 -5.37352E+04  4.68740E+04 -1.61269E+04
  4.13379E+04  1.11890E+04  3.09288E+04  2.51135E+04  1.55805E+04  2.85268E+04 -4.20342E+03  2.66935E+04
 -2.18439E+04  1.27348E+04 -1.90393E+04 -4.39156E+03  4.32072E+03 -6.93610E+03  2.09544E+04  1.15925E+04
  7.74542E+03  3.35825E+04 -3.01906E+04  3.41999E+04 -6.11717E+04  1.98583E+03 -5.49574E+04 -4.22048E+04
 -1.28409E+04 -6.11129E+04  3.85706E+04 -4.34995E+04  5.63280E+04 -1.78904E+03  3.21714E+04  3.12825E+04
 -6.61207E+03  3.37488E+04 -2.90261E+04  1.41673E+04 -2.82688E+04 -4.63018E+03 -1.48839E+04 -1.01962E+04
 -7.59770E+03 -1.23648E+04 -8.68797E+02 -1.67537E+04  7.03543E+03 -2.30851E+04  1.53618E+04 -1.35920E+04
  1.18574E+04  4.58076E+03 -6.35781E+03  1.34491E+04 -1.97240E+04 -2.87402E+03 -8.33177E+03 -3.13219E+04
  2.20438E+04 -4.09968E+04  4.53766E+04 -1.91609E+04  4.29367E+04  1.84241E+04  1.46636E+04  4.23635E+04
 -1.55832E+04  3.18170E+04 -2.39500E+04  1.14815E+03 -8.68489E+03 -2.68497E+04  2.02141E+04 -3.18897E+04
  3.85133E+04 -7.53294E+03  3.27840E+04  2.32589E+04  1.59441E+04  4.36749E+04 -7.98621E+03  4.69592E+04
 -2.90660E+04  3.06976E+04 -3.88230E+04  8.33509E+03 -3.96596E+04 -1.59205E+04 -2.19773E+04 -3.53880E+04
  7.16780E+03 -3.46143E+04  2.97030E+04 -1.25430E+04  2.70782E+04  1.10187E+04  3.32134E+03  1.83587E+04
 -1.32669E+04  7.44349E+03 -9.41605E+03 -7.57596E+03  6.48053E+03 -1.01506E+04  1.70721E+04  6.56377E+03
  1.26570E+04  2.15329E+04 -7.15451E+03  2.35475E+04 -2.16185E+04  9.62609E+03 -2.52225E+04 -5.65378E+03
 -1.76494E+04 -1.70104E+04 -6.41420E+03 -1.78751E+04  4.43154E+03 -1.58631E+04  1.32442E+04 -1.55261E+04
  2.29240E+04 -1.19112E+04  2.91844E+04  1.01376E+03  2.23838E+04  1.75626E+04  4.45811E+03  3.36441E+04
 -1.65756E+04  2.86006E+04 -2.59522E+04  9.14106E+03 -2.00963E+04 -1.08003E+04 -4.47215E+03 -1.36493E+04
  2.48253E+03 -3.93501E+03 -2.89031E+03  5.40761E+03 -1.40012E+04  5.46785E+03 -1.40272E+04 -5.73504E+03
 -8.76121E+03 -1.64441E+04  4.41405E+03 -2.00555E+04  1.34483E+04 -1.51102E+04  1.53113E+04 -1.52387E+03
  9.91940E+03  1.12053E+04 -1.01249E+03  1.68977E+04 -1.13164E+04  9.77628E+03 -1.66182E+04 -3.62625E+03
 -1.17733E+04 -1.47664E+04 -1.55109E+03 -1.95373E+04  8.90315E+03 -1.67089E+04  1.74340E+04 -8.28163E+03
  1.50124E+04  1.07104E+03  1.11134E+04  4.19669E+03  5.68167E+03  1.37536E+03  8.00368E+03 -1.56582E+03
  1.46281E+04  3.12533E+03  1.66062E+04  1.35354E+04  1.00560E+04  2.62843E+04 -3.35934E+03  2.89680E+04
 -1.69454E+04  2.22713E+04 -2.65757E+04  1.08955E+04 -2.69797E+04 -2.29012E+03 -2.27167E+04 -1.60556E+04
 -1.09504E+04 -2.24063E+04  7.61206E+03 -2.09771E+04  1.82894E+04 -1.14058E+04  1.64665E+04  3.99150E+03
  6.85311E+03  1.22306E+04 -7.42609E+03  1.07436E+04 -1.42565E+04  2.42028E+03 -1.10740E+04 -8.02128E+03
  1.93618E+01 -1.35869E+04  6.50511E+03 -9.78668E+03  8.74996E+03 -1.16644E+03  1.50619E+03  5.34742E+03
 -6.59161E+03  1.57959E+03 -4.02084E+03 -4.91430E+03  4.76035E+02 -1.04448E+04  8.19304E+03 -1.12204E+04
  1.33205E+04 -5.27647E+03  1.31723E+04  2.72667E+03  1.12687E+04  1.03258E+04  5.35972E+03  1.61259E+04
 -2.57943E+03  1.70741E+04 -1.07878E+04  1.15577E+04 -1.23109E+04  2.57661E+03 -9.30666E+03 -2.74794E+03
 -4.14125E+03 -3.58404E+03 -8.64283E+02  1.57060E+03 -1.36814E+03  2.22115E+03 -3.73192E+03  3.76841E+03
 -8.54432E+03 -1.56937E+02 -9.70299E+03 -7.71020E+03 -4.05003E+03 -1.22357E+04  3.68634E+03 -8.43184E+03
  8.41837E+03 -5.21185E+03  5.61206E+03  2.77030E+03  8.37121E+02  3.46884E+03 -3.63087E+03 -7.66035E+01
 -4.16567E+03 -5.26176E+03 -7.74837E+02 -7.89524E+03  4.15122E+03 -8.58503E+03  1.06977E+04 -4.38925E+03
  1.22803E+04  6.87340E+02  9.52984E+03  6.89938E+03  1.52528E+03  9.58296E+03 -5.76132E+03  9.20965E+03
 -7.59677E+03  3.46609E+03 -3.91561E+03 -1.59652E+03  1.26344E+03 -2.57768E+03  4.99567E+03 -1.19101E+03
  4.35379E+03  4.10476E+03  9.32267E+02  7.01210E+03 -4.78615E+03  6.72737E+03 -8.70362E+03  2.16400E+03
 -5.75761E+03 -4.29976E+03  3.52098E+02 -7.07905E+03  4.25079E+03 -3.41489E+03  4.26477E+03  1.01776E+03
  8.06111E+02  3.97302E+03 -4.23248E+03  4.94769E+03 -5.52029E+03  2.44418E+03 -5.79617E+03 -1.26801E+03
 -3.43505E+03 -6.99093E+03  8.89813E+02 -8.19928E+03  6.50563E+03 -5.86419E+03  7.16725E+03  1.68105E+03
  4.96202E+03  5.75722E+03  1.47215E+02  8.19074E+03 -5.12319E+03  4.72039E+03 -5.97810E+03 -2.11793E+02
 -6.64894E+03 -5.18738E+03 -1.16488E+03 -5.55499E+03  3.24349E+03 -5.19435E+03  3.36485E+03 -3.10877E+03
  2.77356E+03  1.02085E+02 -1.19033E+02  1.94213E+03  2.48168E+02 -4.93221E+02  4.88607E+02 -2.07310E+03
  4.53438E+03 -1.29138E+03  6.26079E+03  6.83038E+02  6.65579E+03  3.93260E+03  5.66903E+03  8.73579E+03
 -1.61685E+03  9.86507E+03 -9.05986E+03  7.44025E+03 -1.12781E+04  1.31334E+03 -9.23206E+03 -3.31764E+03
 -4.79004E+03 -7.81084E+03 -6.12609E+02 -6.20810E+03  2.18110E+03 -3.07974E+03  1.99557E+03 -2.26758E+03
  1.47774E+03 -1.79997E+03  2.39738E+03 -1.86648E+03  3.72744E+03 -1.57334E+03  3.46036E+03 -1.91869E+02
  4.19246E+03  1.71378E+03  1.68822E+03  3.61689E+03 -1.28326E+03  3.35715E+03 -4.89872E+03  3.31750E+03
 -5.71018E+03 -1.02921E+03 -2.47977E+03 -3.78086E+03  3.60363E+02 -5.97164E+03  3.85316E+03 -6.07266E+03
  6.04872E+03 -3.48962E+03  7.62252E+03  8.35780E+02  5.79871E+03  5.22631E+03  1.12943E+03  7.36501E+03
 -2.59650E+03  6.54317E+03 -4.07502E+03  2.33528E+03 -3.16752E+03 -6.71609E+02 -3.67299E+02 -2.05197E+02
 -7.06119E+02  7.31660E+02 -9.12675E+02  1.30675E+03 -2.92820E+03  2.01054E+03 -4.49724E+03 -2.96099E+02
 -1.74922E+03 -4.49558E+03  9.67026E+02 -5.55520E+03  3.29665E+03 -4.96778E+03  4.30060E+03 -1.43274E+03
  4.65162E+03  3.00655E+03  2.71634E+03  4.00407E+03 -1.25707E+03  5.31400E+03 -3.64242E+03  3.46112E+03
 -4.86390E+03  7.36210E+02 -3.69030E+03 -3.35963E+03 -3.10557E+02 -3.69259E+03  1.58583E+03 -2.97789E+03
  3.26720E+03 -7.63897E+02  2.56785E+03  2.18123E+02  6.17727E+02  1.50346E+03  5.71754E+02  2.49685E+02
  1.93095E+03  4.23211E+02  1.32393E+03  3.60346E+02  9.49947E+02  2.54992E+03  1.62124E+03  2.31197E+03
 -1.54523E+03  3.30105E+03 -3.70171E+03  4.41480E+03 -4.10693E+03  1.33656E+03 -4.74555E+03 -8.39848E+02
 -1.79617E+03 -4.68876E+03  9.51749E+02 -5.22956E+03  2.67040E+03 -3.35960E+03  3.64801E+03 -1.33751E+03
  3.08005E+03  1.86124E+03  9.29755E+01  2.67089E+03 -1.00930E+03  1.54163E+03 -1.06466E+03 -5.71197E+02
 -8.07151E+02 -1.58122E+03  1.76739E+03 -1.38605E+03  1.99905E+03 -1.23815E+03  2.03843E+03  8.76768E+02
  9.32812E+02 -2.21470E+02  1.35737E+03 -2.96373E+02 -7.10917E+02  4.45584E+02  1.26499E+03 -2.91416E+02
 -1.12286E+02 -4.66016E+02  2.13371E+03  6.49185E+02  1.56156E+03  2.52712E+03 -3.67092E+02  3.62560E+03
 -2.42017E+03  2.13453E+03 -2.33926E+03  3.96276E+02 -2.87658E+03 -1.31892E+03  2.41719E+02 -1.35053E+03
  7.01806E+02 -1.59904E+03  1.19133E+03 -6.84721E+02  6.99943E+02  1.19097E+03 -9.86536E+02  1.65759E+03
 -2.12834E+03  1.22167E+03 -1.25481E+03 -1.42141E+03 -9.59148E+02 -3.11103E+03 -2.58320E+02 -2.07510E+03
  1.32934E+03 -6.30289E+02  1.71891E+03 -2.18501E+02  1.52858E+03  5.51530E+02  1.70553E+01  1.37172E+03
 -1.05350E+02  4.04649E+02 -8.60914E+02 -9.04606E+02  1.26510E+03 -1.47876E+03  2.06425E+03 -1.43036E+03
  1.76373E+03  2.48903E+01  3.23574E+03  8.32149E+02  1.25957E+03  2.15932E+03 -3.77970E+02  2.53915E+03
 -2.55238E+03  3.31998E+02 -1.90770E+03 -4.17412E+02 -1.30252E+03 -1.93841E+03 -1.46105E+02 -1.27423E+03
  1.39787E+03 -1.89383E+02  1.09383E+03  6.79172E+02  3.42787E+02  2.02210E+03  6.65972E+00  1.16346E+03
 -7.05065E+02  1.23153E+03 -7.88507E+02  5.73330E+01 -4.30741E+02  7.53792E+02 -1.28479E+03  2.99953E+02
 -6.39964E+02  7.15955E+02 -2.16758E+03  3.81341E+02 -2.57640E+03  3.14134E+02 -2.82042E+03 -1.68302E+03
 -1.81374E+03 -2.90659E+03  8.92843E+02 -3.13869E+03  1.88475E+03 -3.40927E+03  3.69000E+03 -1.28353E+03
  3.62696E+03  4.68473E+01  1.48394E+03  2.31553E+03 -7.23693E+02  1.92668E+03 -6.81985E+02  1.68824E+03
 -1.20120E+03  6.08930E+02 -5.49628E+02 -2.19326E+02 -7.53482E+02 -9.99148E+01 -5.19434E+02 -2.38508E+02
 -9.44806E+02  1.19716E+02 -4.80462E+02  2.16166E+02 -1.45876E+02 -3.29695E+02  1.26241E+02 -9.08087E+02
  1.78704E+03 -8.14505E+02  4.16323E+02  3.16581E+02  1.30866E+03  1.30387E+03  6.33717E+00  1.43491E+03
 -1.20639E+03  2.86167E+03 -2.36261E+03  1.55086E+03 -2.17344E+03 -2.07501E+02 -1.73655E+03 -1.41884E+03
 -1.55375E+03 -2.17623E+03  2.87548E+02 -1.99565E+03  1.02359E+03 -1.05602E+03  9.34787E+02 -1.37166E+02
  3.36791E+02  6.29892E+02 -1.13729E+02  5.54094E+02 -4.58765E+02 -2.53121E+02 -4.14643E+02 -3.51114E+02
  1.29850E+03  2.25836E+02  8.38367E+02  3.43049E+01  4.55604E+02  8.63040E+02  4.70796E+02  3.93255E+02
 -7.65871E+02  9.81620E+02 -1.02562E+03  1.69639E+01 -1.34623E+03 -4.84917E+02  2.16007E+02 -8.93973E+02
  1.16286E+03 -9.50800E+02  6.79522E+02 -7.15977E+02  1.41597E+03 -9.65948E+02  5.84774E+02  1.23224E+03
  8.28243E+02  8.43832E+02 -5.38783E+02  6.86358E+02 -8.57787E+02  1.85951E+02  1.39386E+02 -1.96399E+02
 -5.84901E+02 -8.91567E+01 -2.21694E+02 -8.34558E+00 -2.79313E+02  4.65195E+02 -1.05276E+03 -7.62912E+01
 -8.09523E+02 -3.94500E+02 -4.91301E+02 -1.30590E+03  1.02806E+03 -2.13241E+03  1.69539E+03 -8.62853E+02
  8.05061E+02  4.06670E+02 -7.18238E+01  1.77262E+02 -2.07681E+02  6.62744E+02 -1.29518E+03  9.62197E+02
