 $NMID ID='MM_0lb_SNR400_18hz_g60_80.RAW', FMTDAT='(8E13.5)'
 TRAMP=1., VOLUME=1. $END
  3.10320E+05  4.14225E+02  3.37683E+05  2.50535E+05  8.46846E+04  3.37604E+05 -1.32748E+05  2.50941E+05
 -1.90006E+05  8.32096E+04 -1.11422E+05 -3.26419E+04  1.20650E+03 -5.08249E+04  5.39289E+04 -1.83391E+02
  3.52226E+04  5.29214E+04 -1.68156E+04  7.55944E+04 -6.09454E+04  6.32121E+04 -8.31723E+04  3.20609E+04
 -8.06706E+04 -1.16445E+04 -5.68757E+04 -5.06864E+04 -1.49309E+04 -6.89769E+04  2.72233E+04 -4.56705E+04
  3.96885E+04  3.87510E+03  1.61694E+04  4.76968E+04 -3.45537E+04  4.70059E+04 -6.59154E+04 -9.59207E+02
 -5.32785E+04 -5.70956E+04 -7.24622E+03 -7.63684E+04  3.40310E+04 -5.44379E+04  4.70171E+04 -1.65308E+04
  4.30183E+04  1.11804E+04  3.15204E+04  2.51861E+04  1.56155E+04  2.86786E+04 -4.86829E+03  2.69525E+04
 -2.22472E+04  1.23692E+04 -1.90822E+04 -4.63268E+03  5.54790E+03 -7.36764E+03  2.23708E+04  1.18168E+04
  7.23579E+03  3.47802E+04 -3.20871E+04  3.47352E+04 -6.26776E+04  2.48906E+03 -5.62442E+04 -4.19119E+04
 -1.28661E+04 -6.30299E+04  3.87529E+04 -4.46149E+04  5.74036E+04 -2.22521E+03  3.31439E+04  3.20995E+04
 -6.04292E+03  3.52357E+04 -2.95230E+04  1.50180E+04 -2.90674E+04 -4.66233E+03 -1.62405E+04 -9.83352E+03
 -8.34596E+03 -1.25647E+04 -7.20501E+02 -1.74385E+04  7.56909E+03 -2.25130E+04  1.50768E+04 -1.36801E+04
  1.16291E+04  5.03747E+03 -8.10087E+03  1.32118E+04 -1.99688E+04 -3.23335E+03 -8.05777E+03 -3.24002E+04
  2.23363E+04 -4.19956E+04  4.65918E+04 -1.96176E+04  4.37180E+04  1.86134E+04  1.54832E+04  4.27396E+04
 -1.60075E+04  3.27286E+04 -2.45249E+04  1.71601E+03 -9.79739E+03 -2.75484E+04  2.07599E+04 -3.33140E+04
  3.95790E+04 -8.17451E+03  3.39036E+04  2.34129E+04  1.74661E+04  4.46395E+04 -7.96795E+03  4.79061E+04
 -3.05406E+04  3.19523E+04 -4.02013E+04  9.26076E+03 -4.04822E+04 -1.62168E+04 -2.21074E+04 -3.65963E+04
  7.14566E+03 -3.62635E+04  3.09818E+04 -1.40262E+04  2.82520E+04  1.09060E+04  3.38052E+03  1.87057E+04
 -1.31639E+04  8.29216E+03 -1.00925E+04 -7.36526E+03  6.41426E+03 -1.06128E+04  1.75701E+04  6.12248E+03
  1.29691E+04  2.23059E+04 -6.14189E+03  2.42041E+04 -2.21845E+04  1.02810E+04 -2.76648E+04 -5.45553E+03
 -1.88085E+04 -1.66878E+04 -7.37217E+03 -1.91594E+04  3.72527E+03 -1.74360E+04  1.42476E+04 -1.68342E+04
  2.44452E+04 -1.23389E+04  3.06766E+04  1.88304E+03  2.29555E+04  1.79986E+04  4.17793E+03  3.45274E+04
 -1.65003E+04  2.92131E+04 -2.69925E+04  1.02572E+04 -2.03423E+04 -1.05261E+04 -4.26415E+03 -1.42311E+04
  1.98073E+03 -3.59833E+03 -3.76178E+03  6.27532E+03 -1.45123E+04  5.20371E+03 -1.50696E+04 -5.52545E+03
 -9.46705E+03 -1.70674E+04  4.80084E+03 -2.09680E+04  1.35014E+04 -1.52324E+04  1.65518E+04 -1.52876E+03
  1.00546E+04  1.17195E+04 -6.82036E+02  1.72947E+04 -1.20505E+04  9.99822E+03 -1.73442E+04 -3.45241E+03
 -1.28718E+04 -1.54873E+04 -1.31784E+03 -2.12360E+04  9.58580E+03 -1.69661E+04  1.72032E+04 -8.06240E+03
  1.58610E+04  1.75222E+02  1.18646E+04  3.87079E+03  6.22737E+03  6.60476E+02  8.99799E+03 -1.95811E+03
  1.56385E+04  2.93257E+03  1.67514E+04  1.35541E+04  1.03377E+04  2.71520E+04 -2.39385E+03  2.94014E+04
 -1.75291E+04  2.34093E+04 -2.81876E+04  1.16858E+04 -2.87780E+04 -2.12921E+03 -2.39261E+04 -1.63247E+04
 -1.09308E+04 -2.33022E+04  7.46020E+03 -2.18337E+04  1.85646E+04 -1.19781E+04  1.75936E+04  4.10734E+03
  6.60888E+03  1.24944E+04 -7.78749E+03  1.16660E+04 -1.48434E+04  2.84783E+03 -1.10667E+04 -8.58933E+03
  1.71456E+02 -1.40008E+04  6.89833E+03 -1.03894E+04  9.42391E+03 -1.28218E+03  1.64513E+03  5.12082E+03
 -6.11309E+03  1.45753E+03 -4.57547E+03 -5.22906E+03  2.71985E+02 -1.11972E+04  8.05986E+03 -1.15255E+04
  1.41839E+04 -5.90055E+03  1.36111E+04  3.36375E+03  1.21669E+04  1.05853E+04  6.32745E+03  1.64574E+04
 -2.45307E+03  1.81480E+04 -1.17593E+04  1.12365E+04 -1.27065E+04  3.21137E+03 -9.27069E+03 -2.85525E+03
 -4.88011E+03 -3.19597E+03 -9.99949E+02  8.00547E+02 -2.20027E+03  2.33950E+03 -3.91091E+03  3.84244E+03
 -9.05754E+03 -7.17791E+02 -8.95955E+03 -8.16397E+03 -4.51849E+03 -1.19276E+04  4.20890E+03 -9.56999E+03
  7.57716E+03 -4.54978E+03  5.46362E+03  2.55725E+03  6.60953E+02  3.79198E+03 -3.91023E+03  3.63594E+02
 -4.68936E+03 -6.03425E+03 -1.29217E+03 -8.52815E+03  4.60055E+03 -8.93773E+03  1.11187E+04 -4.74012E+03
  1.30723E+04  1.54805E+03  9.88730E+03  6.78894E+03  1.69709E+03  1.01546E+04 -6.19943E+03  9.25013E+03
 -7.77541E+03  3.03127E+03 -3.50295E+03 -1.14518E+03  1.09143E+03 -2.17452E+03  5.09044E+03 -1.08725E+03
  4.77012E+03  3.99229E+03  1.40143E+03  6.55561E+03 -4.62073E+03  7.44476E+03 -8.62806E+03  1.64582E+03
 -5.01974E+03 -4.14420E+03  2.00106E+00 -7.21268E+03  4.11618E+03 -3.76032E+03  4.42082E+03  1.27735E+03
  4.62628E+02  4.02579E+03 -4.72914E+03  5.17489E+03 -5.80625E+03  3.04141E+03 -5.76403E+03 -1.56560E+03
 -3.39306E+03 -7.26344E+03  1.52788E+03 -8.46635E+03  6.80599E+03 -5.09658E+03  6.83560E+03  6.94485E+02
  5.45780E+03  5.79040E+03  6.70557E+01  7.75867E+03 -5.91571E+03  4.53696E+03 -5.68351E+03 -8.10557E+02
 -6.26644E+03 -5.94723E+03 -1.44107E+03 -5.62097E+03  2.62817E+03 -4.40704E+03  3.12880E+03 -3.07142E+03
  2.86141E+03  5.94319E+02 -2.20824E+02  1.63256E+03  3.81133E+02 -3.40435E+02  4.00144E+02 -2.34745E+03
  4.51110E+03 -8.01839E+02  6.00500E+03  1.54905E+02  6.22844E+03  4.15791E+03  5.46027E+03  7.83659E+03
 -1.56280E+03  1.00488E+04 -8.96035E+03  7.15764E+03 -1.09323E+04  1.65521E+03 -8.17576E+03 -2.82328E+03
 -5.03530E+03 -7.93502E+03 -8.44803E+02 -5.44666E+03  2.39525E+03 -2.11532E+03  1.82017E+03 -2.30887E+03
  1.85303E+03 -2.02641E+03  2.60789E+03 -2.33240E+03  3.74396E+03 -1.54123E+03  4.07988E+03  5.38244E+02
  4.59974E+03  1.82484E+03  1.53331E+03  3.97095E+03 -1.33712E+03  3.44224E+03 -4.10320E+03  2.97961E+03
 -4.85656E+03 -9.19256E+02 -2.30114E+03 -4.41664E+03  3.28810E+02 -5.76090E+03  4.26324E+03 -6.06289E+03
  5.88347E+03 -3.57491E+03  7.36553E+03  1.21750E+03  5.29691E+03  5.14375E+03  5.43320E+02  6.94335E+03
 -2.77466E+03  5.96196E+03 -3.43591E+03  1.81025E+03 -1.75259E+03 -1.16992E+03 -2.94773E+02 -5.12521E+02
 -3.92810E+02  4.35743E+02 -9.92884E+02  1.94400E+03 -3.48918E+03  9.67074E+02 -4.39000E+03 -4.20376E+02
 -2.24288E+03 -4.37538E+03  7.64073E+02 -4.67134E+03  3.26665E+03 -4.76829E+03  4.26818E+03 -1.68798E+03
  4.99696E+03  2.53536E+03  2.28008E+03  4.14477E+03 -1.07908E+03  5.19798E+03 -3.11137E+03  3.24317E+03
 -4.27120E+03  4.74298E+02 -3.76919E+03 -2.93341E+03 -1.13303E+02 -4.16415E+03  1.98762E+03 -3.64841E+03
  3.24577E+03 -1.04378E+03  1.54766E+03 -2.22183E+01  2.67883E+02  1.84634E+03  1.20534E+03  7.39743E+02
  1.65329E+03  2.09855E+02  1.18234E+03  1.28087E+03  8.19758E+02  2.41673E+03  1.64719E+03  2.04402E+03
 -1.29649E+03  3.57169E+03 -3.24092E+03  4.35129E+03 -2.92964E+03  1.27913E+03 -4.16184E+03 -1.46214E+03
 -1.64935E+03 -4.46409E+03  5.69643E+02 -4.79425E+03  2.28417E+03 -3.24985E+03  3.44764E+03 -9.75850E+02
  2.95857E+03  1.54772E+03  4.74375E+02  2.07232E+03 -7.56342E+02  1.65433E+03 -6.11197E+02  6.72312E+01
 -6.13324E+02 -1.76382E+03  9.40645E+02 -1.54690E+03  1.54165E+03 -1.07158E+03  1.85901E+03  3.03057E+02
  1.07905E+03  2.60938E+02  1.09982E+03  3.89077E+01 -5.47938E+02  4.82078E+02  1.42061E+03 -4.65626E+02
  5.88456E+02  4.44777E+02  2.31969E+03  2.98380E+01  2.89901E+02  2.93573E+03 -5.11553E+02  3.38963E+03
 -1.42910E+03  1.25117E+03 -1.67676E+03  3.71338E+02 -2.09882E+03 -6.77312E+02 -1.87788E+02 -8.48240E+02
  7.06858E+02 -1.47507E+03  8.47572E+02  5.69550E+01  8.43240E+02  1.39494E+03 -6.86008E+02  1.34433E+03
 -1.25052E+03  7.91893E+02 -1.16235E+03 -1.71246E+03 -7.60848E+02 -2.37946E+03 -2.04327E+02 -1.99958E+03
  9.13437E+02 -4.31462E+02  7.54783E+02  1.50757E+01  1.37440E+03  2.26958E+01  8.31465E+02  1.10998E+03
 -4.15328E+01  5.18169E+02 -9.14297E+02  1.23331E+02  1.12608E+03 -1.18771E+03  2.04842E+03 -1.14582E+03
  1.24339E+03  2.25111E+02  2.87226E+03  1.00043E+03  1.31733E+03  1.54429E+03 -6.15100E+02  1.71219E+03
 -1.34094E+03 -1.24717E+01 -1.57406E+03  4.59177E+01 -9.27694E+02 -1.70140E+03  6.75091E+02 -6.73462E+02
  1.29792E+03 -3.42116E+02  4.92291E+02  8.97548E+02  6.08775E+01  1.35250E+03 -9.05924E+01  5.83566E+02
 -1.67084E+02  1.33190E+03 -1.56348E+02  6.09626E+02  6.27893E+02  8.29743E+02 -7.51579E+02  4.72930E+02
 -7.93156E+02  1.34386E+03 -1.84164E+03  2.90710E+02 -2.15607E+03  1.80723E+02 -2.05435E+03 -1.02042E+03
 -1.46503E+03 -2.54519E+03  2.39044E+02 -3.40913E+03  1.03490E+03 -2.89348E+03  2.53643E+03 -1.11114E+03
  2.93377E+03 -1.41421E+02  1.25755E+03  1.66006E+03 -3.37737E+02  1.76066E+03 -7.38651E+02  1.78863E+03
 -1.44579E+03  3.74328E+02 -6.23566E+02 -4.03748E+02 -1.75580E+02  2.11290E+02 -2.88599E+02  2.03602E+02
 -1.17276E+03  8.23377E+01 -1.38508E+03 -5.80209E+01  5.19163E+02 -1.01856E+03 -6.61175E+02 -1.09984E+03
  1.26022E+03 -9.66656E+02  6.53774E+02 -2.66430E+01  1.12279E+03  1.06693E+03 -1.05770E+03  1.52022E+03
 -7.90159E+02  2.61375E+03 -1.88154E+03  1.32212E+03 -1.77002E+03 -3.29530E+02 -1.10108E+03 -1.38945E+03
 -9.47184E+02 -2.16920E+03  7.30294E+02 -1.12467E+03  4.10338E+02 -5.01074E+02  9.76764E+02  2.89412E+02
  8.16562E+02  2.57712E+02  5.17889E+02  4.76052E+02  7.77026E+01  1.16060E+02 -4.24893E+02 -4.41456E+01
  7.32869E+02  1.62443E+02  4.48379E+02  2.69770E+02  7.14892E+02  1.73308E+02  3.66764E+02  3.75988E+02
 -9.07428E+02  8.61883E+02 -5.89503E+02  7.67649E+01 -5.34558E+02 -6.02284E+02 -1.90062E+02 -9.44297E+02
  8.86055E+02 -1.07397E+03  7.86410E+02 -2.66031E+02  9.23330E+02 -3.44467E+02  3.90811E+02  4.70091E+02
 -2.24601E+01  5.85507E+02 -8.29559E+01  4.69273E+02 -9.47383E+02  8.62991E+02 -7.93128E+02 -7.02635E+01
  4.73604E+02 -1.38180E+02 -4.31444E+02  9.20527E+02 -4.30748E+02 -7.48178E+01 -7.35092E+02 -2.08596E+02
 -8.87715E+02 -5.09919E+02 -6.52678E+02 -1.35894E+03  4.35128E+02 -1.96117E+03  6.30600E+02 -5.07009E+02
  4.28237E+02 -5.17143E+02 -2.30002E+02  2.37828E+02 -3.62920E+02  5.52408E+02 -4.30968E+02  1.47403E+03
