 $NMID ID='MM_0lb_SNR400_8hz_g50_74.RAW', FMTDAT='(8E13.5)'
 TRAMP=1., VOLUME=1. $END
  3.09963E+05  1.19179E+02  3.37713E+05  2.51258E+05  8.52447E+04  3.39180E+05 -1.32388E+05  2.52740E+05
 -1.90356E+05  8.32467E+04 -1.12998E+05 -3.19840E+04 -3.12479E+02 -5.06869E+04  5.34213E+04 -1.32138E+03
  3.52177E+04  5.27240E+04 -1.66691E+04  7.64195E+04 -6.13745E+04  6.47752E+04 -8.57978E+04  3.19778E+04
 -8.25467E+04 -1.14981E+04 -5.98055E+04 -5.28529E+04 -1.51341E+04 -7.12343E+04  2.81173E+04 -4.64231E+04
  4.14276E+04  4.51980E+03  1.72386E+04  4.88824E+04 -3.49106E+04  4.83682E+04 -6.91227E+04  2.80077E+02
 -5.46660E+04 -5.87405E+04 -6.91643E+03 -7.84851E+04  3.53175E+04 -5.69986E+04  5.01091E+04 -1.77823E+04
  4.59544E+04  1.10695E+04  3.35700E+04  2.69158E+04  1.58877E+04  3.11580E+04 -5.68606E+03  2.83654E+04
 -2.11747E+04  1.16977E+04 -1.80232E+04 -5.79274E+03  8.04794E+03 -7.56589E+03  2.33977E+04  1.36543E+04
  6.94830E+03  3.66913E+04 -3.44158E+04  3.74567E+04 -6.65025E+04  2.42477E+03 -5.83880E+04 -4.50158E+04
 -1.25461E+04 -6.58506E+04  4.18581E+04 -4.89973E+04  6.07447E+04 -2.54890E+03  3.74462E+04  3.54890E+04
 -5.08764E+03  3.96311E+04 -3.16587E+04  1.90717E+04 -3.40088E+04 -4.03837E+03 -1.96284E+04 -1.17889E+04
 -9.95764E+03 -1.51552E+04 -3.34673E+02 -2.05719E+04  8.71546E+03 -2.40529E+04  1.70576E+04 -1.28242E+04
  1.06560E+04  6.37747E+03 -1.08311E+04  1.27548E+04 -2.31292E+04 -6.52002E+03 -9.31229E+03 -3.84163E+04
  2.60605E+04 -4.78611E+04  5.33112E+04 -2.15714E+04  4.88381E+04  2.06392E+04  1.81183E+04  4.77639E+04
 -1.71742E+04  3.66706E+04 -2.80193E+04  3.09004E+03 -1.26112E+04 -2.96591E+04  2.14992E+04 -3.77741E+04
  4.50671E+04 -1.21036E+04  4.16711E+04  2.44581E+04  2.20725E+04  5.24733E+04 -8.45705E+03  5.71140E+04
 -3.54314E+04  3.88273E+04 -4.87983E+04  1.17697E+04 -4.85708E+04 -1.89022E+04 -2.68646E+04 -4.39576E+04
  8.31098E+03 -4.31077E+04  3.50904E+04 -1.74400E+04  3.25681E+04  1.09671E+04  5.40406E+03  2.22915E+04
 -1.38625E+04  9.82738E+03 -1.14902E+04 -7.26555E+03  5.64786E+03 -1.15344E+04  1.85493E+04  5.77879E+03
  1.55428E+04  2.25088E+04 -5.32987E+03  2.80189E+04 -2.41767E+04  1.46170E+04 -3.29392E+04 -2.28912E+03
 -2.61817E+04 -1.90775E+04 -1.23268E+04 -2.66583E+04  4.41862E+03 -2.71689E+04  2.05415E+04 -2.39506E+04
  3.37949E+04 -1.45457E+04  3.93846E+04  4.71194E+03  2.76941E+04  2.59725E+04  4.55613E+03  4.22562E+04
 -2.01596E+04  3.46715E+04 -3.13988E+04  1.18853E+04 -2.28056E+04 -1.00410E+04 -4.67395E+03 -1.22218E+04
  3.52520E+01 -7.93774E+02 -7.68278E+03  9.18144E+03 -2.15494E+04  4.56504E+03 -2.02523E+04 -1.10050E+04
 -1.21785E+04 -2.43065E+04  6.07092E+03 -2.92087E+04  1.93685E+04 -2.06524E+04  2.33729E+04 -1.20192E+03
  1.49076E+04  1.71665E+04 -9.65872E+02  2.33775E+04 -1.74337E+04  1.33983E+04 -2.48565E+04 -5.68256E+03
 -1.73595E+04 -2.23379E+04 -2.20303E+03 -2.81312E+04  1.34805E+04 -2.42703E+04  2.38957E+04 -1.22520E+04
  2.23391E+04 -1.18210E+02  1.61580E+04  5.66704E+03  9.37726E+03  1.94906E+03  1.30552E+04 -2.10676E+03
  2.37210E+04  2.79067E+03  2.70020E+04  1.87030E+04  1.87697E+04  4.03718E+04 -3.64812E+03  4.67116E+04
 -2.60225E+04  3.90849E+04 -4.35046E+04  2.05971E+04 -4.70770E+04 -3.02056E+03 -3.78422E+04 -2.73581E+04
 -1.49999E+04 -3.95967E+04  1.40001E+04 -3.40111E+04  2.89192E+04 -1.55390E+04  2.59902E+04  8.36125E+03
  8.26313E+03  2.02653E+04 -1.16477E+04  1.59356E+04 -2.12415E+04  2.66059E+03 -1.54320E+04 -1.37041E+04
 -6.42348E+02 -1.95134E+04  1.12995E+04 -1.55346E+04  1.38634E+04 -1.17267E+03  3.74772E+03  8.38239E+03
 -8.83306E+03  5.03410E+03 -9.18112E+03 -7.24667E+03 -2.43801E+03 -1.85179E+04  1.28274E+04 -2.13307E+04
  2.48568E+04 -1.22952E+04  2.84636E+04  3.11131E+03  2.41192E+04  1.98046E+04  1.03812E+04  3.12777E+04
 -6.49778E+03  3.35454E+04 -2.22599E+04  2.11222E+04 -2.46325E+04  3.64129E+03 -1.64596E+04 -6.38640E+03
 -6.64338E+03 -7.80660E+03 -6.60550E+02 -6.09536E+01 -3.90716E+03  3.52912E+03 -7.58693E+03  4.33561E+03
 -1.52230E+04 -1.58198E+03 -1.50479E+04 -1.23132E+04 -6.57619E+03 -2.16343E+04  8.09264E+03 -1.75238E+04
  1.35048E+04 -6.47597E+03  1.01679E+04  4.01098E+03  6.68486E+01  6.38428E+03 -8.14427E+03 -2.40424E+02
 -7.69001E+03 -1.08830E+04 -1.11807E+03 -1.67044E+04  9.59007E+03 -1.74826E+04  2.03186E+04 -8.77800E+03
  2.50729E+04  2.46715E+03  1.88026E+04  1.61300E+04  3.08977E+03  2.01009E+04 -9.46510E+03  1.65165E+04
 -1.30367E+04  4.97136E+03 -6.72221E+03 -3.50451E+03  1.96360E+03 -5.63576E+03  8.79750E+03 -1.38960E+02
  8.11997E+03  7.23592E+03  1.14660E+03  1.40739E+04 -1.04539E+04  1.29392E+04 -1.66900E+04  3.77606E+03
 -1.11661E+04 -9.37219E+03  3.29224E+02 -1.39259E+04  1.00509E+04 -6.86568E+03  1.11116E+04  4.51253E+03
  2.84147E+03  1.04384E+04 -9.53001E+03  1.33994E+04 -1.48643E+04  5.91048E+03 -1.56588E+04 -5.37553E+03
 -8.85048E+03 -1.72806E+04  3.48697E+03 -1.97660E+04  1.73518E+04 -1.26703E+04  1.84412E+04  3.85351E+03
  1.01495E+04  1.41270E+04 -1.89597E+03  1.76329E+04 -1.29238E+04  9.38131E+03 -1.45349E+04 -2.11814E+03
 -1.17024E+04 -1.09579E+04 -2.07082E+03 -1.30482E+04  6.94477E+03 -1.08058E+04  8.63806E+03 -3.77931E+03
  6.14646E+03  1.97637E+03 -1.28455E+03  2.42915E+03 -1.73465E+03 -4.48300E+03  2.89131E+03 -8.41785E+03
  1.30907E+04 -5.67834E+03  1.77543E+04  1.23151E+03  1.64196E+04  1.21472E+04  1.01757E+04  2.31439E+04
 -6.42991E+03  2.69120E+04 -2.24985E+04  1.87892E+04 -2.79990E+04  3.33798E+03 -2.30078E+04 -9.86442E+03
 -1.13808E+04 -1.96199E+04 -3.83054E+02 -1.64344E+04  5.73088E+03 -8.90855E+03  5.69795E+03 -6.31675E+03
  4.17740E+03 -2.33209E+03  3.98448E+03 -4.15396E+03  6.47112E+03 -5.05447E+03  8.96430E+03 -1.70108E+03
  1.21720E+04  1.99383E+03  6.93604E+03  1.00939E+04 -2.33196E+03  1.26144E+04 -1.23511E+04  9.62599E+03
 -1.73285E+04 -1.45241E+03 -1.06773E+04 -1.18668E+04 -1.83989E+03 -1.74767E+04  9.52401E+03 -1.75579E+04
  1.90544E+04 -9.95261E+03  2.21031E+04  2.49227E+03  1.43770E+04  1.54380E+04  2.51363E+03  1.99982E+04
 -8.49132E+03  1.61006E+04 -1.20113E+04  5.77274E+03 -7.71793E+03 -1.86619E+03 -3.71470E+03 -2.07066E+03
 -1.57025E+03 -5.96679E+02 -2.15227E+03  4.54576E+03 -7.10723E+03  3.23608E+03 -1.07599E+04 -1.39254E+03
 -9.47349E+03 -1.10422E+04  4.19989E+02 -1.60942E+04  1.04452E+04 -1.40911E+04  1.70166E+04 -3.86807E+03
  1.69051E+04  7.90803E+03  7.61852E+03  1.39608E+04 -4.02159E+03  1.78332E+04 -1.24346E+04  1.08758E+04
 -1.56281E+04  8.75617E+02 -1.14161E+04 -1.11883E+04 -1.38693E+03 -1.39909E+04  7.17849E+03 -1.00098E+04
  1.04063E+04 -2.94864E+03  8.01049E+03  2.98098E+03  2.04465E+03  5.83266E+03  1.20755E+03  1.53971E+03
  2.39495E+03  2.00222E+03  3.80625E+03  2.39648E+03  4.83495E+03  6.23770E+03  3.46844E+03  9.41896E+03
 -3.49411E+03  1.30435E+04 -1.18113E+04  1.26487E+04 -1.66799E+04  3.38118E+03 -1.80855E+04 -7.70910E+03
 -8.38638E+03 -1.66356E+04  2.39542E+03 -1.88792E+04  1.09139E+04 -1.18167E+04  1.42807E+04 -3.49510E+03
  1.07145E+04  6.35177E+03  2.43061E+03  1.01643E+04 -5.16046E+03  6.85807E+03 -7.53173E+03 -1.63415E+03
 -3.00836E+03 -7.76239E+03  3.97739E+03 -7.55232E+03  7.02932E+03 -3.29478E+03  6.72009E+03  2.00191E+03
  3.95789E+03  3.11888E+03  9.36611E+02  2.32692E+03 -6.93214E+02  2.31556E+03  2.19315E+03 -1.36571E+02
  3.10904E+03 -8.48937E+02  6.25578E+03  2.44888E+03  5.18337E+03  9.25582E+03 -1.11493E+03  1.22970E+04
 -8.87739E+03  8.25959E+03 -1.19606E+04  2.07925E+03 -1.08168E+04 -3.95712E+03 -4.40387E+03 -6.49888E+03
  7.99069E+02 -6.74068E+03  4.66236E+03 -3.29760E+03  4.00051E+03  3.30656E+03 -1.72616E+03  5.79132E+03
 -6.83835E+03  3.48426E+03 -8.85988E+03 -4.18001E+03 -4.72227E+03 -9.81042E+03  1.35418E+03 -1.09818E+04
  5.26081E+03 -6.93499E+03  6.86875E+03 -9.00346E+02  6.28911E+03  2.80488E+03  1.68942E+03  5.43935E+03
 -3.96217E+03  1.19753E+03 -4.80091E+03 -3.53790E+03  9.94480E+02 -6.96828E+03  8.36099E+03 -6.18497E+03
  1.15028E+04  1.56402E+03  1.06746E+04  8.38217E+03  2.94695E+03  1.20138E+04 -3.84563E+03  1.08979E+04
 -9.76541E+03  5.46297E+03 -1.01812E+04 -1.67950E+03 -5.26582E+03 -7.30752E+03  1.87282E+03 -7.61364E+03
  6.62927E+03 -3.33861E+03  6.77697E+03  2.98076E+03  2.25082E+03  6.67421E+03 -1.20772E+03  5.56134E+03
 -3.10366E+03  3.45880E+03 -3.00522E+03  1.86783E+03 -1.06078E+03  6.13684E+02 -1.56040E+03  2.35251E+03
 -3.58486E+03  4.77733E+03 -7.83721E+03  4.29066E+03 -1.14496E+04  4.47543E+02 -1.39886E+04 -7.11529E+03
 -7.04513E+03 -1.54812E+04  3.09132E+03 -1.81845E+04  1.15379E+04 -1.39359E+04  1.74097E+04 -5.49830E+03
  1.53119E+04  3.21428E+03  1.03525E+04  1.20109E+04  2.24110E+03  1.27929E+04 -5.04756E+03  9.04235E+03
 -6.64891E+03  2.58763E+03 -4.27467E+03 -1.73532E+03 -1.44856E+03 -1.40174E+03 -8.11852E+02 -3.31450E+02
 -2.91493E+03  3.86355E+02 -2.36401E+03 -8.93195E+02 -1.63636E+03 -2.82106E+03 -1.42423E+01 -4.30879E+03
  5.29620E+03 -3.77421E+03  7.66768E+03 -1.84337E+02  9.06216E+03  6.91041E+03  1.77992E+03  1.25565E+04
 -5.34743E+03  1.39236E+04 -1.31555E+04  8.25089E+03 -1.58400E+04 -1.96551E+03 -1.09707E+04 -9.18720E+03
 -5.39148E+03 -1.34718E+04  4.10314E+03 -1.22285E+04  8.90361E+03 -7.11688E+03  8.67761E+03  2.67761E+02
  5.38241E+03  4.87620E+03 -4.22020E+02  4.17457E+03 -2.37870E+03  6.13778E+02  6.66310E+02 -3.43108E+03
  4.60830E+03 -2.00824E+03  4.75621E+03  1.02761E+03  3.99124E+03  5.12613E+03  4.25859E+01  6.28173E+03
 -6.07036E+03  5.36246E+03 -8.75378E+03  4.39111E+02 -7.29461E+03 -6.31831E+03 -1.77202E+03 -1.05249E+04
  6.44962E+03 -9.21714E+03  1.00761E+04 -2.99653E+03  9.92780E+03  3.19190E+03  5.97821E+03  7.26497E+03
  1.57801E+03  7.90138E+03 -3.33765E+03  7.09575E+03 -5.36867E+03  3.88935E+03 -3.66695E+03 -6.21272E+02
 -2.98120E+03 -5.81619E+02 -2.39314E+03  1.05811E+03 -4.79175E+03  1.65399E+03 -6.18217E+03 -1.75706E+03
 -5.38275E+03 -4.56174E+03 -1.33763E+03 -8.33477E+03  3.36520E+03 -8.78058E+03  7.16701E+03 -4.99973E+03
  9.02228E+03  1.50804E+03  5.60930E+03  6.25360E+03 -1.02603E+03  8.11212E+03 -6.06326E+03  5.40056E+03
