 $NMID ID='MM_0lb_SNR400_7hz_g60_31.RAW', FMTDAT='(8E13.5)'
 TRAMP=1., VOLUME=1. $END
  3.09393E+05  1.26276E+03  3.38416E+05  2.50320E+05  8.41885E+04  3.38456E+05 -1.33279E+05  2.52011E+05
 -1.90101E+05  8.51367E+04 -1.12476E+05 -3.24397E+04 -2.43091E+02 -5.11532E+04  5.31051E+04 -5.52829E+02
  3.68137E+04  5.36994E+04 -1.67340E+04  7.62785E+04 -6.01085E+04  6.53675E+04 -8.54788E+04  3.36375E+04
 -8.35449E+04 -1.22592E+04 -5.90686E+04 -5.26745E+04 -1.51689E+04 -7.18121E+04  2.99083E+04 -4.83553E+04
  4.15869E+04  3.21338E+03  1.56841E+04  4.95648E+04 -3.50318E+04  4.85566E+04 -6.88883E+04 -2.53944E+02
 -5.53482E+04 -5.80885E+04 -8.55714E+03 -7.96832E+04  3.55023E+04 -5.88101E+04  5.11742E+04 -1.76085E+04
  4.55932E+04  1.13051E+04  3.39954E+04  2.71477E+04  1.64540E+04  3.03956E+04 -6.04189E+03  2.78838E+04
 -2.34585E+04  1.21817E+04 -1.71829E+04 -5.19599E+03  8.02242E+03 -6.87443E+03  2.35954E+04  1.40891E+04
  7.04094E+03  3.87575E+04 -3.50169E+04  3.79644E+04 -6.75347E+04  1.69000E+03 -5.95002E+04 -4.56505E+04
 -1.29781E+04 -6.71097E+04  4.21816E+04 -4.80280E+04  6.24058E+04 -2.33059E+03  3.83843E+04  3.50425E+04
 -4.72577E+03  4.13368E+04 -3.19629E+04  2.07840E+04 -3.44746E+04 -3.27176E+03 -2.08775E+04 -1.30441E+04
 -9.91228E+03 -1.57742E+04 -1.30377E+03 -2.14572E+04  1.00157E+04 -2.32364E+04  1.61111E+04 -1.19895E+04
  1.06818E+04  6.85107E+03 -1.23393E+04  1.35374E+04 -2.45250E+04 -7.89518E+03 -9.39127E+03 -3.92933E+04
  2.63398E+04 -4.88402E+04  5.52615E+04 -2.08215E+04  4.98645E+04  2.16392E+04  1.85998E+04  4.90460E+04
 -1.65546E+04  3.79502E+04 -2.92694E+04  3.23047E+03 -1.39371E+04 -3.04058E+04  2.22368E+04 -3.84230E+04
  4.59650E+04 -1.22769E+04  4.37171E+04  2.53518E+04  2.28318E+04  5.35984E+04 -9.36266E+03  5.94034E+04
 -3.80640E+04  4.07996E+04 -5.03579E+04  1.14588E+04 -5.05721E+04 -1.99090E+04 -2.73538E+04 -4.43572E+04
  7.56713E+03 -4.46631E+04  3.58084E+04 -1.80772E+04  3.32788E+04  1.21655E+04  6.11788E+03  2.21280E+04
 -1.42732E+04  1.00014E+04 -1.21432E+04 -8.51264E+03  5.63649E+03 -1.09097E+04  1.95261E+04  5.13530E+03
  1.46684E+04  2.27645E+04 -5.17176E+03  2.80612E+04 -2.50022E+04  1.65819E+04 -3.42472E+04 -1.44641E+03
 -2.83927E+04 -1.87683E+04 -1.34471E+04 -2.74971E+04  4.03798E+03 -3.00281E+04  2.22517E+04 -2.58354E+04
  3.57254E+04 -1.52672E+04  4.13612E+04  5.69640E+03  2.80758E+04  2.74188E+04  4.71330E+03  4.33930E+04
 -2.13094E+04  3.55319E+04 -3.24682E+04  1.29537E+04 -2.30937E+04 -1.06180E+04 -5.22168E+03 -1.17207E+04
  4.35738E+02 -5.61872E+02 -9.24530E+03  1.05666E+04 -2.28936E+04  4.93012E+03 -2.13965E+04 -1.17716E+04
 -1.25067E+04 -2.63264E+04  7.02743E+03 -3.10965E+04  2.03596E+04 -2.20409E+04  2.56548E+04 -1.59602E+03
  1.69379E+04  1.77716E+04 -1.35540E+03  2.71339E+04 -1.86941E+04  1.48874E+04 -2.66239E+04 -5.96447E+03
 -1.99899E+04 -2.37740E+04 -2.47577E+03 -3.08394E+04  1.32878E+04 -2.55279E+04  2.41385E+04 -1.42648E+04
  2.47100E+04 -1.47139E+02  1.76229E+04  5.38925E+03  1.05667E+04  1.34686E+03  1.51861E+04 -2.36091E+03
  2.48741E+04  2.67195E+03  2.93678E+04  2.07252E+04  1.94046E+04  4.26401E+04 -2.17697E+03  5.03907E+04
 -2.90380E+04  4.16354E+04 -4.82133E+04  2.16244E+04 -5.20823E+04 -3.81847E+03 -4.19523E+04 -3.02659E+04
 -1.49892E+04 -4.44193E+04  1.57728E+04 -3.83593E+04  3.31287E+04 -1.71392E+04  2.72897E+04  1.08495E+04
  8.77141E+03  2.26020E+04 -1.25987E+04  1.77152E+04 -2.20589E+04  2.39294E+03 -1.63765E+04 -1.42593E+04
 -2.47244E+02 -2.21640E+04  1.22269E+04 -1.55408E+04  1.55888E+04 -1.09134E+03  3.43593E+03  1.08313E+04
 -8.91906E+03  4.73566E+03 -1.14120E+04 -8.46700E+03 -2.60852E+03 -2.18272E+04  1.35792E+04 -2.36836E+04
  2.83096E+04 -1.29514E+04  3.19388E+04  3.56789E+03  2.81475E+04  2.08067E+04  1.30853E+04  3.36002E+04
 -8.23759E+03  3.79952E+04 -2.44411E+04  2.22355E+04 -2.77041E+04  4.16128E+03 -1.88398E+04 -8.15376E+03
 -6.72900E+03 -8.60558E+03 -7.47550E+02 -3.29624E+02 -3.05244E+03  4.40835E+03 -8.21002E+03  7.01230E+03
 -1.60945E+04 -4.41963E+02 -1.71486E+04 -1.39187E+04 -7.29272E+03 -2.39729E+04  7.70959E+03 -1.89586E+04
  1.43321E+04 -7.89284E+03  1.06466E+04  5.11578E+03  5.29095E+01  8.01211E+03 -8.99618E+03 -1.41167E+03
 -8.48456E+03 -1.32329E+04 -2.69703E+03 -1.96425E+04  1.20815E+04 -1.98141E+04  2.39761E+04 -1.04983E+04
  2.84310E+04  4.23044E+03  2.04655E+04  1.78863E+04  4.39049E+03  2.25681E+04 -1.07821E+04  1.88343E+04
 -1.47165E+04  5.44706E+03 -7.89478E+03 -4.02274E+03  2.38103E+03 -5.79657E+03  9.54398E+03 -1.36020E+03
  8.51213E+03  8.64315E+03  5.23714E+02  1.46894E+04 -1.03402E+04  1.48647E+04 -1.79700E+04  4.64325E+03
 -1.37383E+04 -1.08060E+04  1.19350E+03 -1.65161E+04  1.12580E+04 -8.00366E+03  1.12990E+04  4.82819E+03
  3.93117E+03  1.26150E+04 -1.01608E+04  1.38712E+04 -1.77746E+04  6.03681E+03 -1.81759E+04 -6.75068E+03
 -1.08439E+04 -1.98880E+04  5.22265E+03 -2.34037E+04  2.03647E+04 -1.38189E+04  2.12321E+04  2.40968E+03
  1.27663E+04  1.63108E+04 -1.86350E+03  1.97360E+04 -1.47678E+04  9.66472E+03 -1.60411E+04 -2.17322E+03
 -1.26927E+04 -1.26156E+04 -2.31404E+03 -1.53359E+04  8.99414E+03 -1.14662E+04  1.05146E+04 -3.26692E+03
  6.27880E+03  3.76053E+03 -2.29322E+03  1.58371E+03 -1.32724E+03 -5.34633E+03  4.31242E+03 -1.00801E+04
  1.43202E+04 -6.27693E+03  2.10708E+04  1.45157E+03  1.95227E+04  1.39595E+04  1.21358E+04  2.64356E+04
 -6.43674E+03  3.09889E+04 -2.57397E+04  2.17990E+04 -3.32179E+04  4.31210E+03 -2.62053E+04 -1.23918E+04
 -1.34509E+04 -2.13025E+04  4.53466E+02 -1.88898E+04  6.23964E+03 -1.12504E+04  6.42532E+03 -7.54404E+03
  4.59532E+03 -4.76761E+03  5.26529E+03 -3.55940E+03  7.00256E+03 -4.91675E+03  9.73885E+03 -1.62113E+03
  1.42184E+04  2.78101E+03  8.59971E+03  1.16555E+04 -2.47040E+03  1.54402E+04 -1.44044E+04  1.16939E+04
 -1.99719E+04 -1.34323E+03 -1.27582E+04 -1.41232E+04 -2.14497E+03 -2.20735E+04  1.06288E+04 -1.99247E+04
  2.23794E+04 -1.07638E+04  2.57150E+04  3.87088E+03  1.75204E+04  1.73629E+04  2.46789E+03  2.29811E+04
 -1.14396E+04  1.78630E+04 -1.40327E+04  6.36129E+03 -9.03790E+03 -1.84263E+03 -3.87313E+03 -2.75388E+03
 -2.55190E+03 -1.28479E+03 -2.42185E+03  3.37759E+03 -7.77905E+03  3.34468E+03 -1.25288E+04 -2.50589E+03
 -9.87317E+03 -1.24301E+04 -7.87878E+02 -1.82080E+04  1.21505E+04 -1.80531E+04  1.99620E+04 -5.87793E+03
  2.04704E+04  8.53337E+03  8.91620E+03  1.82493E+04 -3.49363E+03  1.87262E+04 -1.49741E+04  1.23593E+04
 -1.88435E+04  4.79655E+02 -1.30350E+04 -1.18436E+04 -1.81896E+03 -1.71909E+04  9.48206E+03 -1.30670E+04
  1.32057E+04 -3.68238E+03  8.70120E+03  4.00597E+03  3.42217E+03  5.12058E+03  1.83284E+03  3.70646E+03
  3.71608E+03  1.67490E+03  4.96985E+03  2.94326E+03  7.06904E+03  6.60640E+03  4.49433E+03  1.16245E+04
 -3.71503E+03  1.72033E+04 -1.38468E+04  1.56243E+04 -2.04524E+04  3.85524E+03 -2.15909E+04 -1.07839E+04
 -1.08113E+04 -2.15423E+04  3.13502E+03 -2.31817E+04  1.34346E+04 -1.47987E+04  1.63357E+04 -4.52271E+03
  1.30637E+04  7.47718E+03  2.46678E+03  1.20131E+04 -6.62112E+03  7.18390E+03 -9.64297E+03 -9.75556E+02
 -3.90944E+03 -9.77253E+03  4.29999E+03 -9.00569E+03  8.00512E+03 -3.82952E+03  8.17621E+03  2.13863E+03
  4.31151E+03  5.27572E+03  2.49860E+03  4.64313E+03 -1.60157E+03  3.43015E+03  2.03421E+03 -2.88492E+02
  4.15637E+03 -8.03333E+02  9.09490E+03  3.12366E+03  4.46547E+03  1.09304E+04 -1.71766E+03  1.59414E+04
 -9.24814E+03  1.00398E+04 -1.39185E+04  3.36301E+03 -1.17496E+04 -4.65869E+03 -5.42312E+03 -8.58506E+03
  8.13791E+02 -8.55925E+03  5.67605E+03 -4.81434E+03  3.94539E+03  4.12150E+03 -1.47648E+03  6.28703E+03
 -8.70357E+03  4.08395E+03 -1.02534E+04 -5.44387E+03 -6.30466E+03 -1.15642E+04  1.74598E+03 -1.24896E+04
  6.85137E+03 -8.48540E+03  9.21079E+03 -1.07828E+03  6.92694E+03  4.26016E+03  1.37209E+03  6.44980E+03
 -3.57150E+03  2.18795E+03 -5.94773E+03 -4.81033E+03  1.57093E+03 -1.01379E+04  1.08275E+04 -7.54154E+03
  1.39270E+04  5.13917E+02  1.34045E+04  1.03241E+04  4.02236E+03  1.42836E+04 -5.87612E+03  1.37705E+04
 -1.19559E+04  5.24533E+03 -1.20481E+04 -2.04013E+03 -6.21475E+03 -9.42215E+03  1.87413E+03 -8.72260E+03
  8.80184E+03 -4.92516E+03  8.13982E+03  3.61044E+03  3.64842E+03  7.69157E+03 -4.78148E+02  6.56924E+03
 -3.19267E+03  5.06629E+03 -3.53904E+03  1.59788E+03 -2.70722E+03  9.78969E+02 -2.28602E+03  3.01660E+03
 -4.24488E+03  4.94061E+03 -9.44108E+03  5.61496E+03 -1.45623E+04  9.57148E+02 -1.73436E+04 -9.91438E+03
 -9.10714E+03 -1.98754E+04  4.17895E+03 -2.30751E+04  1.44787E+04 -1.72309E+04  2.15282E+04 -6.97046E+03
  2.15898E+04  5.24810E+03  1.28747E+04  1.39011E+04  1.76395E+03  1.59363E+04 -6.57953E+03  1.11861E+04
 -8.55020E+03  4.34389E+03 -6.22955E+03 -2.27981E+03 -2.45961E+03 -7.61507E+02 -8.89747E+02  1.00777E+03
 -2.12632E+03  1.72280E+03 -3.24437E+03 -7.34534E+02 -2.32474E+03 -4.02040E+03  7.42829E+02 -6.27959E+03
  7.28212E+03 -4.41647E+03  1.01495E+04 -2.09548E+02  1.19988E+04  8.21604E+03  2.89442E+03  1.72277E+04
 -8.13993E+03  1.83776E+04 -1.73235E+04  1.16150E+04 -2.02441E+04 -1.51259E+03 -1.52267E+04 -1.21737E+04
 -6.39579E+03 -1.69474E+04  4.28991E+03 -1.58429E+04  1.02416E+04 -7.79928E+03  1.07003E+04  7.46198E+01
  5.95752E+03  5.49017E+03 -1.39363E+03  4.23182E+03 -3.47909E+03 -8.24400E+02 -1.13598E+02 -4.28586E+03
  5.62434E+03 -2.52506E+03  6.60946E+03  2.24035E+03  5.51178E+03  6.77823E+03 -3.93095E+02  9.36466E+03
 -7.42650E+03  7.29625E+03 -1.17078E+04 -4.17035E+01 -9.72407E+03 -7.59503E+03 -1.89683E+03 -1.37706E+04
  8.59753E+03 -1.18596E+04  1.34673E+04 -3.98033E+03  1.35815E+04  3.40449E+03  6.93434E+03  1.06175E+04
  1.65477E+03  1.18290E+04 -4.29065E+03  8.93847E+03 -6.78075E+03  5.21069E+03 -5.72162E+03  7.23193E+02
 -4.17966E+03 -5.00722E+02 -3.08700E+03  1.34676E+03 -5.41747E+03  1.55050E+03 -8.74852E+03 -1.87580E+03
 -7.41549E+03 -6.50814E+03 -2.66451E+03 -1.11108E+04  4.69144E+03 -1.10230E+04  1.10522E+04 -5.51313E+03
  1.11514E+04  1.84120E+03  7.68045E+03  8.76878E+03 -1.03072E+03  1.07644E+04 -9.30276E+03  7.29834E+03
