 $NMID ID='MM_0lb_SNR400_14hz_g50_48.RAW', FMTDAT='(8E13.5)'
 TRAMP=1., VOLUME=1. $END
  3.09684E+05  9.64938E+00  3.37773E+05  2.50453E+05  8.49680E+04  3.37526E+05 -1.32942E+05  2.50787E+05
 -1.89712E+05  8.29361E+04 -1.11156E+05 -3.25863E+04  2.50715E+02 -5.05517E+04  5.43625E+04 -3.85872E+02
  3.50895E+04  5.24581E+04 -1.67335E+04  7.61584E+04 -6.03516E+04  6.34183E+04 -8.31784E+04  3.17784E+04
 -8.07845E+04 -1.13194E+04 -5.72581E+04 -5.09920E+04 -1.55282E+04 -7.06313E+04  2.75113E+04 -4.57217E+04
  3.97288E+04  3.47236E+03  1.65671E+04  4.71834E+04 -3.45128E+04  4.72832E+04 -6.60086E+04 -1.55442E+02
 -5.43217E+04 -5.67956E+04 -7.30571E+03 -7.69783E+04  3.36506E+04 -5.54853E+04  4.83948E+04 -1.76406E+04
  4.36446E+04  1.09901E+04  3.13226E+04  2.55101E+04  1.53312E+04  2.95594E+04 -4.84932E+03  2.70969E+04
 -2.19109E+04  1.20231E+04 -1.91584E+04 -5.02588E+03  5.82677E+03 -7.39502E+03  2.25444E+04  1.23805E+04
  6.62003E+03  3.58703E+04 -3.26213E+04  3.54028E+04 -6.33697E+04  2.08416E+03 -5.68744E+04 -4.34030E+04
 -1.29559E+04 -6.30658E+04  3.97585E+04 -4.56559E+04  5.81548E+04 -2.31482E+03  3.43638E+04  3.27848E+04
 -5.93942E+03  3.66742E+04 -3.00766E+04  1.63626E+04 -3.07172E+04 -4.84113E+03 -1.67853E+04 -1.12496E+04
 -8.69649E+03 -1.30767E+04 -1.18749E+03 -1.77742E+04  7.67512E+03 -2.32942E+04  1.45629E+04 -1.27382E+04
  1.19178E+04  5.76305E+03 -7.88526E+03  1.25413E+04 -2.14601E+04 -4.40964E+03 -8.46054E+03 -3.39790E+04
  2.30812E+04 -4.33531E+04  4.80499E+04 -1.93294E+04  4.50897E+04  1.94962E+04  1.57455E+04  4.45152E+04
 -1.63228E+04  3.33084E+04 -2.55950E+04  1.68226E+03 -9.90929E+03 -2.78585E+04  2.09619E+04 -3.39551E+04
  4.08971E+04 -8.51627E+03  3.62638E+04  2.39381E+04  1.82000E+04  4.65955E+04 -8.25637E+03  5.02047E+04
 -3.20138E+04  3.37507E+04 -4.16874E+04  9.62185E+03 -4.22665E+04 -1.62237E+04 -2.38250E+04 -3.80685E+04
  7.89505E+03 -3.83213E+04  3.11266E+04 -1.47955E+04  2.95524E+04  1.15617E+04  4.23649E+03  1.92603E+04
 -1.34914E+04  8.61125E+03 -1.07273E+04 -7.51649E+03  6.27022E+03 -1.07128E+04  1.84003E+04  5.96847E+03
  1.35589E+04  2.24581E+04 -6.18010E+03  2.51961E+04 -2.25174E+04  1.13869E+04 -2.80860E+04 -4.79246E+03
 -2.08380E+04 -1.71768E+04 -7.44997E+03 -2.05957E+04  3.35968E+03 -1.94449E+04  1.57383E+04 -1.81507E+04
  2.63103E+04 -1.24028E+04  3.28620E+04  3.01271E+03  2.35365E+04  2.04083E+04  4.25111E+03  3.63931E+04
 -1.77091E+04  3.05840E+04 -2.82443E+04  1.01265E+04 -2.07945E+04 -1.06018E+04 -4.15919E+03 -1.38735E+04
  1.56061E+03 -2.95707E+03 -4.37496E+03  6.29368E+03 -1.68389E+04  4.82809E+03 -1.61031E+04 -7.07283E+03
 -1.04683E+04 -1.96055E+04  5.41719E+03 -2.33025E+04  1.59760E+04 -1.63590E+04  1.85194E+04 -2.22157E+03
  1.12874E+04  1.31731E+04 -1.56027E+03  1.90673E+04 -1.36814E+04  1.05796E+04 -1.95404E+04 -4.63838E+03
 -1.43519E+04 -1.70727E+04 -1.75372E+03 -2.23121E+04  1.07379E+04 -1.86640E+04  1.90572E+04 -9.91784E+03
  1.81752E+04 -6.22540E+01  1.29630E+04  3.36602E+03  6.69329E+03  1.31179E+03  9.46508E+03 -1.39780E+03
  1.78614E+04  2.28723E+03  2.02566E+04  1.47422E+04  1.24484E+04  3.01129E+04 -3.02738E+03  3.40203E+04
 -2.02187E+04  2.80202E+04 -3.16861E+04  1.36539E+04 -3.31194E+04 -2.53211E+03 -2.82911E+04 -1.89529E+04
 -1.25547E+04 -2.79084E+04  9.82464E+03 -2.48608E+04  2.16964E+04 -1.23533E+04  1.90455E+04  5.38718E+03
  7.15685E+03  1.44612E+04 -8.90175E+03  1.33079E+04 -1.59912E+04  2.96634E+03 -1.24706E+04 -1.06062E+04
 -2.93496E+02 -1.56391E+04  8.11386E+03 -1.15222E+04  1.07102E+04 -1.49255E+03  2.45467E+03  6.97826E+03
 -6.91123E+03  2.22436E+03 -6.02273E+03 -5.54735E+03 -4.39135E+01 -1.39983E+04  9.31553E+03 -1.42998E+04
  1.65668E+04 -7.79623E+03  1.78486E+04  2.87102E+03  1.55789E+04  1.33628E+04  7.61157E+03  1.95959E+04
 -3.49828E+03  2.26348E+04 -1.40967E+04  1.41282E+04 -1.65038E+04  3.03735E+03 -1.15044E+04 -3.64958E+03
 -5.47118E+03 -4.81216E+03 -1.19036E+03  1.54507E+03 -2.40865E+03  2.70522E+03 -5.61239E+03  4.45002E+03
 -1.07965E+04 -6.85777E+02 -1.12501E+04 -9.26691E+03 -4.71833E+03 -1.51049E+04  5.08936E+03 -1.13267E+04
  9.51136E+03 -5.31042E+03  6.84908E+03  3.42727E+03  5.18749E+01  4.33820E+03 -5.45961E+03  3.58451E+02
 -5.80204E+03 -7.75687E+03 -6.88261E+02 -1.08265E+04  6.43102E+03 -1.19394E+04  1.39423E+04 -6.26200E+03
  1.66020E+04  1.07765E+03  1.22067E+04  9.37065E+03  2.65392E+03  1.25829E+04 -7.00376E+03  1.12046E+04
 -9.45355E+03  3.48668E+03 -4.99507E+03 -1.97630E+03  2.10649E+03 -3.05306E+03  6.57330E+03 -1.23863E+03
  5.78128E+03  5.04836E+03  1.55240E+03  8.22103E+03 -6.29852E+03  8.71294E+03 -1.11696E+04  2.53202E+03
 -6.74069E+03 -5.44049E+03 -9.83238E+01 -9.10545E+03  5.89415E+03 -4.76556E+03  5.66978E+03  2.05265E+03
  8.62749E+02  6.39935E+03 -5.64508E+03  7.49946E+03 -7.99466E+03  2.96714E+03 -8.48046E+03 -2.38646E+03
 -4.59634E+03 -9.47067E+03  2.91927E+03 -1.12927E+04  9.80751E+03 -6.82902E+03  1.01824E+04  1.92729E+03
  7.40895E+03  8.76350E+03 -6.62421E+02  1.04037E+04 -8.09407E+03  4.94738E+03 -8.59063E+03 -9.84454E+02
 -7.00887E+03 -7.38834E+03 -1.71878E+03 -7.86927E+03  3.87933E+03 -6.55961E+03  5.37568E+03 -3.11258E+03
  3.53768E+03  2.71643E+02  1.17118E+02  2.08572E+03 -2.68932E+02 -1.56502E+03  5.11172E+02 -3.91192E+03
  6.79570E+03 -2.39538E+03  8.30908E+03  1.29256E+03  8.77055E+03  6.04288E+03  7.04057E+03  1.21224E+04
 -2.64858E+03  1.41930E+04 -1.27596E+04  1.12466E+04 -1.63196E+04  2.41710E+03 -1.28140E+04 -4.63876E+03
 -7.20930E+03 -1.04637E+04 -3.90645E+02 -7.88115E+03  4.01583E+03 -4.22452E+03  2.56128E+03 -3.98017E+03
  2.59326E+03 -2.66665E+03  3.20626E+03 -2.98699E+03  4.29362E+03 -2.73904E+03  5.71247E+03 -1.01722E+03
  6.90432E+03  1.95100E+03  3.14756E+03  5.82717E+03 -1.81978E+03  6.28244E+03 -6.77552E+03  4.72488E+03
 -8.20398E+03 -1.62562E+03 -5.04350E+03 -6.03014E+03 -2.67131E+02 -9.35479E+03  5.76911E+03 -9.35182E+03
  8.97442E+03 -5.57283E+03  1.18509E+04  1.15508E+03  7.64925E+03  7.40655E+03  1.66745E+03  1.03117E+04
 -4.22924E+03  8.57497E+03 -6.07315E+03  2.96706E+03 -3.85188E+03 -1.45375E+03 -1.08025E+03 -1.18165E+03
 -1.33162E+03  3.57412E+02 -1.66455E+03  2.51621E+03 -3.84266E+03  1.03328E+03 -5.89728E+03 -1.15001E+03
 -3.42479E+03 -5.95067E+03  7.79879E+02 -8.27967E+03  4.97234E+03 -7.45482E+03  7.91935E+03 -1.84581E+03
  7.75960E+03  4.28817E+03  4.13660E+03  7.02767E+03 -1.50311E+03  7.68735E+03 -5.25419E+03  6.00632E+03
 -7.80882E+03  1.32219E+03 -6.23199E+03 -4.79459E+03 -5.25850E+02 -6.91029E+03  4.01448E+03 -5.66841E+03
  5.77979E+03 -2.02625E+03  3.41079E+03  1.20522E+03  1.48605E+03  2.97469E+03  1.32096E+03  1.35288E+03
  2.22821E+03  1.13011E+03  2.23529E+03  9.17895E+02  2.36813E+03  3.30933E+03  2.60062E+03  3.85902E+03
 -1.84233E+03  5.68950E+03 -5.40959E+03  7.17931E+03 -7.24135E+03  1.66573E+03 -7.94960E+03 -2.71861E+03
 -3.76784E+03 -7.06472E+03  1.33441E+03 -8.33861E+03  4.15303E+03 -5.19498E+03  6.13246E+03 -1.37359E+03
  4.81690E+03  3.86629E+03  7.73255E+02  4.75509E+03 -1.46587E+03  2.05685E+03 -2.62715E+03 -8.77697E+02
 -1.36868E+03 -2.99327E+03  2.19860E+03 -2.78531E+03  2.86678E+03 -1.44732E+03  3.13998E+03  1.35384E+03
  1.01684E+03  1.16272E+03  1.01741E+03  2.34106E+02 -4.21119E+02  1.37035E+03  1.89083E+03 -4.67336E+02
  5.85840E+02 -2.06361E+01  3.20510E+03  1.06331E+03  7.84590E+02  4.03623E+03 -1.29353E+02  4.90092E+03
 -2.73100E+03  3.63998E+03 -4.09993E+03  4.64094E+02 -4.02253E+03 -1.71972E+03 -5.92162E+02 -1.95165E+03
  2.66318E+02 -2.98301E+03  2.03581E+03 -1.26149E+03  1.02119E+03  1.76022E+03 -1.00092E+03  2.26513E+03
 -2.37204E+03  1.65545E+03 -2.58744E+03 -1.47604E+03 -2.18548E+03 -3.99873E+03  1.02470E+03 -4.01151E+03
  1.77858E+03 -2.02555E+03  2.58597E+03 -2.18537E+02  2.28763E+03  8.23317E+02  8.05481E+01  1.86844E+03
 -1.32491E+03  2.62290E+02 -2.36816E+03 -1.23398E+03  6.48860E+02 -2.31636E+03  3.92512E+03 -2.30127E+03
  3.95279E+03 -1.17089E+02  4.72543E+03  2.48734E+03  2.26016E+03  4.43578E+03 -9.21637E+02  4.12596E+03
 -3.37201E+03  1.48376E+03 -3.97391E+03 -3.42130E+01 -1.64523E+03 -2.63069E+03  1.01619E+03 -2.05606E+03
  3.05066E+03 -1.48837E+03  1.75912E+03  9.89062E+02  9.14628E+02  2.37941E+03 -4.34839E+02  1.80365E+03
 -1.08263E+03  1.37973E+03 -1.09055E+03  1.21336E+03 -4.98744E+02  4.17399E+02 -1.22240E+03  7.29793E+02
 -7.32214E+02  2.14272E+03 -3.97538E+03  1.43584E+03 -4.47180E+03  7.09349E+02 -5.19320E+03 -2.86423E+03
 -3.20724E+03 -5.26785E+03  1.60309E+03 -6.47802E+03  3.25896E+03 -5.66407E+03  5.85460E+03 -2.50193E+03
  5.38527E+03  5.19941E+02  3.17278E+03  3.08735E+03  7.13599E+01  3.92520E+03 -1.76696E+03  3.18883E+03
 -2.70379E+03  1.12776E+03 -1.32483E+03 -8.57691E+02 -5.99796E+02  6.13282E+01 -2.92111E+02 -1.20735E+01
 -1.43436E+03 -6.19549E+02 -1.79901E+03  2.10411E+02  1.78226E+02 -1.05869E+03  3.56353E+02 -1.71691E+03
  2.16292E+03 -1.49744E+03  1.36604E+03  2.99716E+02  2.94217E+03  2.29900E+03  1.33070E+02  3.69929E+03
 -2.23394E+03  5.07638E+03 -4.25477E+03  2.48402E+03 -5.53545E+03  1.07120E+02 -3.26898E+03 -2.78253E+03
 -1.82113E+03 -4.73895E+03  1.02449E+03 -3.88884E+03  2.25630E+03 -1.51044E+03  2.09614E+03 -2.68966E+02
  1.63334E+03  1.17699E+03 -5.69245E+01  1.19029E+03 -9.26209E+02 -4.64426E+00  4.33401E+02 -8.22747E+02
  1.00795E+03  1.48268E+01  1.93921E+03  7.38063E+01  4.71139E+02  1.02091E+03  6.56507E+01  1.38435E+03
 -1.63048E+03  1.38324E+03 -2.37196E+03  3.85944E+01 -2.13953E+03 -1.79371E+03 -4.04807E+02 -2.83549E+03
  1.42467E+03 -1.75260E+03  2.56993E+03 -3.09420E+02  2.62558E+03  4.88423E+02  1.42372E+03  2.59378E+03
 -6.55600E+01  2.54481E+03 -8.34924E+02  2.15214E+03 -1.71594E+03  1.18695E+03 -1.28680E+03 -9.26449E+00
 -1.00306E+03 -2.33948E+02 -9.79994E+02  1.44135E+02 -1.20258E+03  2.15662E+02 -1.63454E+03 -6.14380E+02
 -2.15106E+03 -1.17294E+03 -6.26450E+01 -2.29589E+03  1.37100E+03 -3.74633E+03  2.26156E+03 -1.29316E+03
  2.66085E+03  7.09008E+02  5.11800E+02  1.21897E+03  5.55910E+02  2.87198E+03 -1.89075E+03  1.37007E+03
