 $NMID ID='MM_0lb_SNR400_12hz_g50_4.RAW', FMTDAT='(8E13.5)'
 TRAMP=1., VOLUME=1. $END
  3.10176E+05  5.95142E+02  3.37183E+05  2.50547E+05  8.48709E+04  3.38325E+05 -1.33197E+05  2.51579E+05
 -1.90258E+05  8.35077E+04 -1.12194E+05 -3.27435E+04  5.08350E+02 -4.96692E+04  5.41786E+04  2.98269E+02
  3.49222E+04  5.26953E+04 -1.66245E+04  7.56412E+04 -6.10459E+04  6.43539E+04 -8.50285E+04  3.17165E+04
 -8.16668E+04 -1.18250E+04 -5.82528E+04 -5.19630E+04 -1.50717E+04 -6.99385E+04  2.70249E+04 -4.63185E+04
  4.10679E+04  3.55086E+03  1.58709E+04  4.86648E+04 -3.46679E+04  4.75962E+04 -6.70819E+04  1.05152E+02
 -5.50306E+04 -5.71258E+04 -6.94763E+03 -7.77818E+04  3.37050E+04 -5.60118E+04  4.83441E+04 -1.78158E+04
  4.43230E+04  1.14795E+04  3.21220E+04  2.67939E+04  1.50570E+04  3.04880E+04 -5.79002E+03  2.75936E+04
 -2.16361E+04  1.23966E+04 -1.83057E+04 -4.79891E+03  6.39107E+03 -7.48179E+03  2.27383E+04  1.30788E+04
  7.01885E+03  3.60139E+04 -3.32481E+04  3.59796E+04 -6.42252E+04  2.26975E+03 -5.81587E+04 -4.33727E+04
 -1.23156E+04 -6.42280E+04  4.04131E+04 -4.63346E+04  5.90730E+04 -3.00487E+03  3.52103E+04  3.40664E+04
 -5.81560E+03  3.79434E+04 -3.02780E+04  1.72256E+04 -3.15495E+04 -4.22422E+03 -1.71798E+04 -1.04239E+04
 -8.37717E+03 -1.39329E+04 -8.98253E+02 -1.89024E+04  7.80863E+03 -2.39288E+04  1.57217E+04 -1.27602E+04
  1.11103E+04  5.19885E+03 -8.99802E+03  1.28140E+04 -2.25289E+04 -4.90995E+03 -8.75212E+03 -3.57966E+04
  2.40186E+04 -4.44450E+04  4.98844E+04 -2.02006E+04  4.64776E+04  1.96757E+04  1.57473E+04  4.46442E+04
 -1.66296E+04  3.47893E+04 -2.65209E+04  2.00690E+03 -1.01256E+04 -2.85776E+04  2.09898E+04 -3.51275E+04
  4.24351E+04 -9.73812E+03  3.82829E+04  2.43988E+04  1.92901E+04  4.82768E+04 -8.09932E+03  5.33954E+04
 -3.28777E+04  3.61808E+04 -4.43225E+04  9.92714E+03 -4.50679E+04 -1.72094E+04 -2.48400E+04 -3.96234E+04
  7.78094E+03 -3.94037E+04  3.20291E+04 -1.50687E+04  3.06983E+04  1.10458E+04  4.11899E+03  1.95823E+04
 -1.36810E+04  8.80557E+03 -1.06623E+04 -7.67910E+03  5.40859E+03 -1.13472E+04  1.81959E+04  6.10842E+03
  1.38033E+04  2.19051E+04 -5.57863E+03  2.58611E+04 -2.25819E+04  1.26360E+04 -2.94460E+04 -3.74767E+03
 -2.27273E+04 -1.78335E+04 -1.02061E+04 -2.22039E+04  5.22600E+03 -2.18810E+04  1.72731E+04 -1.98346E+04
  2.85716E+04 -1.29063E+04  3.47038E+04  2.99013E+03  2.56816E+04  2.17223E+04  3.80024E+03  3.81321E+04
 -1.84139E+04  3.10576E+04 -2.85703E+04  1.07652E+04 -2.16991E+04 -1.01741E+04 -4.44449E+03 -1.29190E+04
  1.40551E+03 -2.19307E+03 -6.18712E+03  6.69062E+03 -1.83004E+04  5.16854E+03 -1.82377E+04 -7.95456E+03
 -1.07721E+04 -2.12390E+04  5.66745E+03 -2.41749E+04  1.60594E+04 -1.77249E+04  2.04699E+04 -1.78178E+03
  1.20806E+04  1.40056E+04 -7.56911E+02  2.13123E+04 -1.43679E+04  1.20258E+04 -2.05436E+04 -4.15838E+03
 -1.45819E+04 -1.87943E+04 -2.14749E+03 -2.50162E+04  1.16742E+04 -2.05418E+04  2.06863E+04 -1.07648E+04
  1.95578E+04  7.23887E+02  1.39580E+04  5.12862E+03  7.29791E+03  1.23531E+03  1.06424E+04 -1.65506E+03
  1.95156E+04  3.17186E+03  2.18622E+04  1.61811E+04  1.47593E+04  3.31374E+04 -2.51844E+03  3.80454E+04
 -2.16806E+04  3.02640E+04 -3.62096E+04  1.60122E+04 -3.76004E+04 -3.13735E+03 -3.06896E+04 -2.18618E+04
 -1.30650E+04 -3.12599E+04  1.13533E+04 -2.69911E+04  2.41343E+04 -1.35411E+04  2.14754E+04  6.77748E+03
  7.38904E+03  1.61053E+04 -9.39536E+03  1.35858E+04 -1.70835E+04  2.55441E+03 -1.31913E+04 -1.07865E+04
 -3.97295E+02 -1.80491E+04  9.09972E+03 -1.24464E+04  1.09632E+04 -1.13026E+03  3.18349E+03  7.37379E+03
 -7.64660E+03  3.61484E+03 -6.99232E+03 -6.07777E+03 -1.59966E+03 -1.48105E+04  1.03476E+04 -1.57544E+04
  1.91989E+04 -8.60496E+03  2.12386E+04  3.14575E+03  1.81682E+04  1.59765E+04  8.19533E+03  2.37700E+04
 -4.16425E+03  2.47958E+04 -1.65352E+04  1.64750E+04 -1.85417E+04  3.69699E+03 -1.27233E+04 -5.10880E+03
 -6.42616E+03 -5.21484E+03 -4.16728E+02  2.51170E+02 -2.67830E+03  3.21825E+03 -5.54738E+03  5.00720E+03
 -1.17840E+04 -8.69974E+02 -1.27252E+04 -9.83225E+03 -5.10020E+03 -1.66459E+04  4.86198E+03 -1.22975E+04
  1.09687E+04 -6.02477E+03  8.47279E+03  3.24923E+03  1.93530E+02  5.06629E+03 -6.68566E+03 -3.49706E+02
 -5.68740E+03 -7.84535E+03 -8.19617E+02 -1.20608E+04  6.25245E+03 -1.32467E+04  1.58915E+04 -7.11368E+03
  1.83379E+04  1.65217E+03  1.37434E+04  1.16907E+04  3.27252E+03  1.52903E+04 -7.66137E+03  1.29142E+04
 -1.06619E+04  3.69601E+03 -5.49656E+03 -2.32674E+03  2.01196E+03 -3.80663E+03  6.71526E+03 -1.21226E+03
  5.73513E+03  5.66947E+03  1.57540E+03  1.08646E+04 -6.81053E+03  9.38745E+03 -1.23048E+04  2.72457E+03
 -8.91259E+03 -6.72211E+03 -7.43077E+01 -1.15623E+04  6.49823E+03 -5.69639E+03  6.72897E+03  1.66343E+03
  1.78233E+03  7.46040E+03 -6.78153E+03  9.53482E+03 -1.07380E+04  4.06395E+03 -9.57183E+03 -3.98972E+03
 -5.98064E+03 -1.24578E+04  2.65110E+03 -1.40985E+04  1.16220E+04 -8.69277E+03  1.28024E+04  2.25302E+03
  8.16303E+03  1.01019E+04 -1.29834E+02  1.20974E+04 -8.58475E+03  7.20109E+03 -9.58797E+03 -9.13944E+02
 -8.49457E+03 -8.54864E+03 -1.64737E+03 -9.33923E+03  5.00456E+03 -7.34913E+03  6.59724E+03 -3.40849E+03
  3.69271E+03  1.47000E+03 -4.26883E+02  1.56297E+03 -3.66421E+02 -1.82531E+03  1.27586E+03 -5.26281E+03
  9.01700E+03 -2.84634E+03  1.22610E+04  1.27124E+03  1.14246E+04  8.13214E+03  7.96832E+03  1.44481E+04
 -3.89151E+03  1.80068E+04 -1.49949E+04  1.29852E+04 -1.91481E+04  2.81098E+03 -1.56186E+04 -6.92715E+03
 -7.59746E+03 -1.25671E+04 -1.69883E+02 -1.13121E+04  4.22440E+03 -5.06252E+03  3.19264E+03 -4.74700E+03
  3.13609E+03 -2.13768E+03  3.75206E+03 -2.95568E+03  4.84240E+03 -2.10116E+03  6.34281E+03 -9.02473E+02
  7.95993E+03  2.10516E+03  4.13571E+03  6.77253E+03 -2.09632E+03  7.93324E+03 -8.57671E+03  6.35836E+03
 -1.01141E+04 -1.07086E+03 -6.40742E+03 -7.49064E+03 -8.39444E+02 -1.15852E+04  6.75897E+03 -1.12689E+04
  1.21692E+04 -6.05176E+03  1.46620E+04  1.10995E+03  9.13546E+03  1.02600E+04  1.68633E+03  1.26806E+04
 -4.96248E+03  1.11358E+04 -7.67681E+03  3.77687E+03 -5.33243E+03 -1.80892E+03 -1.21888E+03 -1.11948E+03
 -1.34445E+03 -6.23444E+01 -1.80216E+03  2.36504E+03 -5.44238E+03  1.74705E+03 -7.36717E+03 -7.51097E+02
 -4.80809E+03 -8.26352E+03  6.56860E+02 -1.07377E+04  6.79957E+03 -1.04157E+04  1.00906E+04 -2.89707E+03
  9.94913E+03  4.87573E+03  3.89026E+03  9.80639E+03 -2.45636E+03  1.05022E+04 -6.50328E+03  5.76497E+03
 -9.06815E+03  6.83957E+02 -7.90053E+03 -6.73099E+03 -1.37107E+03 -7.94443E+03  4.72406E+03 -6.53860E+03
  6.28540E+03 -2.27609E+03  4.42683E+03  1.78672E+03  2.02144E+03  3.66755E+03  7.48183E+02  1.14465E+03
  2.53872E+03  1.07663E+03  2.44784E+03  1.35793E+03  3.02233E+03  3.62179E+03  3.14437E+03  5.63156E+03
 -2.35425E+03  7.80118E+03 -7.46183E+03  8.06601E+03 -9.53876E+03  2.21600E+03 -1.09340E+04 -3.73765E+03
 -5.30761E+03 -1.01090E+04  1.55360E+03 -1.10052E+04  5.91953E+03 -6.91671E+03  8.64023E+03 -1.99306E+03
  6.11912E+03  4.00874E+03  2.00332E+03  5.99292E+03 -2.32546E+03  3.93450E+03 -3.66574E+03 -3.24825E+02
 -1.63937E+03 -4.38229E+03  2.87453E+03 -3.99397E+03  4.59294E+03 -2.63194E+03  3.63787E+03  1.32331E+03
  1.69365E+03  2.03089E+03  1.01362E+03  1.29432E+03 -1.24505E+03  1.60585E+03  1.76567E+03 -6.43877E+02
  1.18060E+03 -6.20550E+02  4.79827E+03  1.71567E+03  2.25285E+03  5.07610E+03 -4.64117E+02  6.59244E+03
 -4.69421E+03  4.44761E+03 -5.99523E+03  3.25755E+02 -5.68460E+03 -2.36041E+03 -1.97865E+03 -3.22191E+03
  1.06799E+03 -3.49532E+03  2.26355E+03 -2.34584E+03  1.75977E+03  2.05740E+03 -9.31669E+02  3.48510E+03
 -4.09545E+03  1.98266E+03 -4.26226E+03 -2.74748E+03 -2.87135E+03 -6.07020E+03  1.19898E+03 -5.26775E+03
  3.36844E+03 -3.30277E+03  3.71920E+03 -2.79932E+02  3.34473E+03  8.24489E+02  1.59933E+02  2.71571E+03
 -2.42538E+03  1.87185E+02 -2.45880E+03 -1.54510E+03  1.24537E+03 -4.27904E+03  4.81579E+03 -3.04593E+03
  5.70533E+03  5.93409E+02  6.84358E+03  3.69325E+03  1.85620E+03  6.13070E+03 -2.55222E+03  5.29065E+03
 -5.82239E+03  2.47117E+03 -5.36533E+03 -1.24674E+03 -2.74148E+03 -3.86695E+03  1.13910E+03 -3.81493E+03
  3.79551E+03 -2.06160E+03  2.95883E+03  1.43653E+03  1.29397E+03  3.24479E+03 -4.59714E+02  2.98669E+03
 -1.06919E+03  2.82057E+03 -9.48715E+02  1.87135E+02 -9.72855E+02  5.91557E+02 -1.64032E+03  1.85080E+03
 -1.92498E+03  2.63132E+03 -3.75161E+03  2.43454E+03 -5.54248E+03 -1.10306E+02 -6.28109E+03 -3.91420E+03
 -4.23206E+03 -7.89357E+03  1.02249E+03 -9.08180E+03  4.59977E+03 -6.92041E+03  9.16578E+03 -3.18369E+03
  7.46949E+03  1.27814E+03  4.54124E+03  5.72371E+03 -6.78111E+02  6.71844E+03 -2.48842E+03  4.56660E+03
 -3.80350E+03  1.17697E+03 -1.54098E+03 -8.74331E+02 -1.52059E+03 -5.91363E+02 -4.07599E+02  3.01789E+01
 -1.55913E+03  1.02378E+02 -6.29334E+02  4.68295E+02 -1.17618E+03 -1.42013E+03 -3.79808E+02 -2.45071E+03
  3.33317E+03 -1.33147E+03  3.32342E+03 -1.71373E+02  3.53142E+03  2.94388E+03  1.44412E+03  6.40872E+03
 -3.08259E+03  7.80877E+03 -6.17885E+03  4.49691E+03 -7.16731E+03 -5.04346E+02 -5.19736E+03 -4.99556E+03
 -2.75278E+03 -6.45508E+03  1.29150E+03 -5.89067E+03  3.37967E+03 -2.29310E+03  4.22016E+03  1.18286E+03
  2.62656E+03  2.17872E+03  4.87871E+01  1.98586E+03 -1.19347E+03  5.36834E+02  3.06824E+02 -6.69266E+02
  1.69283E+03 -7.26087E+02  2.09533E+03  1.10749E+03  1.27174E+03  2.48731E+03  3.60526E+02  2.55890E+03
 -2.47881E+03  2.75294E+03 -4.28704E+03  8.16999E+01 -3.54033E+03 -2.75476E+03 -7.46855E+02 -5.57990E+03
  2.80542E+03 -3.59654E+03  3.89061E+03 -9.64645E+02  4.48971E+03  4.87813E+02  2.87444E+03  4.24359E+03
  9.02291E+02  3.71485E+03 -1.13366E+03  3.08601E+03 -2.97847E+03  2.29685E+03 -1.75422E+03  6.17845E+02
 -7.34205E+02 -2.58661E+02 -1.60627E+03  8.15278E+02 -2.53548E+03  2.77538E+02 -3.32074E+03 -7.26893E+02
 -3.65663E+03 -1.92017E+03 -1.56083E+03 -4.62490E+03  2.16396E+03 -4.07136E+03  2.76253E+03 -1.20574E+03
  3.92673E+03  1.57681E+02  1.89618E+03  2.49811E+03 -3.23263E+02  3.68788E+03 -2.24905E+03  2.21504E+03
