 $NMID ID='MM_0lb_SNR400_16hz_g45_80.RAW', FMTDAT='(8E13.5)'
 TRAMP=1., VOLUME=1. $END
  3.09681E+05  6.63577E+02  3.37011E+05  2.50924E+05  8.46063E+04  3.37533E+05 -1.32154E+05  2.50544E+05
 -1.90002E+05  8.24530E+04 -1.11531E+05 -3.31188E+04  1.15638E+03 -4.94631E+04  5.38838E+04 -2.08063E+02
  3.50046E+04  5.28081E+04 -1.69829E+04  7.48266E+04 -6.06939E+04  6.34257E+04 -8.30765E+04  3.21553E+04
 -8.00476E+04 -1.08916E+04 -5.66919E+04 -5.10682E+04 -1.50813E+04 -6.89610E+04  2.71798E+04 -4.53572E+04
  3.94269E+04  3.45754E+03  1.60300E+04  4.71748E+04 -3.40293E+04  4.65306E+04 -6.55667E+04 -6.56715E+02
 -5.24730E+04 -5.58553E+04 -6.72223E+03 -7.59959E+04  3.32751E+04 -5.35390E+04  4.69669E+04 -1.66898E+04
  4.19917E+04  1.09777E+04  3.16588E+04  2.48861E+04  1.57850E+04  2.86803E+04 -4.88523E+03  2.70451E+04
 -2.23056E+04  1.24718E+04 -1.93066E+04 -4.12143E+03  5.29514E+03 -7.79928E+03  2.18800E+04  1.17468E+04
  7.01578E+03  3.40362E+04 -3.10246E+04  3.49781E+04 -6.22028E+04  2.53528E+03 -5.61790E+04 -4.12547E+04
 -1.28735E+04 -6.19158E+04  3.90400E+04 -4.47643E+04  5.62651E+04 -1.61629E+03  3.23869E+04  3.13860E+04
 -6.34844E+03  3.44501E+04 -2.89388E+04  1.48764E+04 -2.88525E+04 -5.08832E+03 -1.54511E+04 -1.02080E+04
 -7.60225E+03 -1.22804E+04 -8.54621E+02 -1.76893E+04  7.46797E+03 -2.26827E+04  1.53559E+04 -1.34975E+04
  1.19191E+04  4.96092E+03 -7.41468E+03  1.30102E+04 -2.04917E+04 -3.25873E+03 -8.20303E+03 -3.21294E+04
  2.13893E+04 -4.17060E+04  4.63194E+04 -1.94723E+04  4.37415E+04  1.90138E+04  1.43337E+04  4.34516E+04
 -1.64810E+04  3.22550E+04 -2.44838E+04  1.84968E+03 -9.06542E+03 -2.68485E+04  2.07039E+04 -3.19863E+04
  3.91691E+04 -8.04251E+03  3.32690E+04  2.34919E+04  1.67277E+04  4.43117E+04 -8.12378E+03  4.70052E+04
 -2.98077E+04  3.14255E+04 -3.95302E+04  9.57085E+03 -4.01973E+04 -1.58128E+04 -2.21168E+04 -3.67164E+04
  6.44900E+03 -3.59673E+04  2.99599E+04 -1.32004E+04  2.79812E+04  1.07952E+04  3.39730E+03  1.86724E+04
 -1.39585E+04  7.79214E+03 -9.57070E+03 -7.08116E+03  5.79142E+03 -1.02762E+04  1.73339E+04  6.58851E+03
  1.25942E+04  2.14966E+04 -6.17652E+03  2.44284E+04 -2.23300E+04  1.02045E+04 -2.63286E+04 -5.07210E+03
 -1.84424E+04 -1.68672E+04 -6.51007E+03 -1.76545E+04  3.53803E+03 -1.60087E+04  1.40821E+04 -1.59161E+04
  2.33553E+04 -1.19287E+04  3.00824E+04  1.66591E+03  2.23205E+04  1.76710E+04  4.00630E+03  3.39361E+04
 -1.67002E+04  2.92745E+04 -2.70226E+04  9.35661E+03 -2.03500E+04 -1.01692E+04 -3.79520E+03 -1.35660E+04
  2.53405E+03 -3.92788E+03 -3.66470E+03  6.23613E+03 -1.48831E+04  5.37531E+03 -1.45785E+04 -5.65624E+03
 -9.60382E+03 -1.69808E+04  4.83797E+03 -2.12526E+04  1.40943E+04 -1.60861E+04  1.66863E+04 -1.36809E+03
  1.00702E+04  1.20110E+04 -1.43374E+03  1.77801E+04 -1.19174E+04  9.54155E+03 -1.73129E+04 -3.28245E+03
 -1.29677E+04 -1.53345E+04 -1.95898E+03 -2.12221E+04  9.48644E+03 -1.71702E+04  1.73234E+04 -7.85631E+03
  1.63959E+04  2.31517E+02  1.19111E+04  4.00506E+03  5.85929E+03  7.12508E+02  8.86124E+03 -1.34760E+03
  1.62684E+04  2.69386E+03  1.69296E+04  1.37394E+04  1.12296E+04  2.70406E+04 -2.48265E+03  2.99333E+04
 -1.73986E+04  2.41825E+04 -2.79259E+04  1.16982E+04 -2.84482E+04 -1.74943E+03 -2.39061E+04 -1.64875E+04
 -1.08958E+04 -2.33860E+04  7.79900E+03 -2.08542E+04  1.90502E+04 -1.17831E+04  1.69559E+04  4.32812E+03
  6.71851E+03  1.31476E+04 -8.21563E+03  1.16675E+04 -1.44543E+04  2.94824E+03 -1.10166E+04 -9.07277E+03
  1.97708E+02 -1.40143E+04  7.58264E+03 -1.04292E+04  9.08019E+03 -1.27637E+03  1.54598E+03  5.45665E+03
 -6.47307E+03  2.56387E+03 -4.34946E+03 -4.70119E+03  2.56766E+02 -1.14522E+04  8.95999E+03 -1.12120E+04
  1.44654E+04 -5.31982E+03  1.52035E+04  2.06660E+03  1.28772E+04  1.18764E+04  5.90475E+03  1.71119E+04
 -2.28133E+03  1.87122E+04 -1.16091E+04  1.25603E+04 -1.35677E+04  3.15353E+03 -9.33624E+03 -2.66589E+03
 -5.48522E+03 -3.81574E+03 -9.44345E+02  1.25027E+03 -2.18403E+03  1.63060E+03 -4.63794E+03  4.31718E+03
 -9.19330E+03 -6.70609E+02 -1.03230E+04 -8.59851E+03 -3.56669E+03 -1.28494E+04  4.24942E+03 -9.91655E+03
  8.42269E+03 -4.36957E+03  6.23652E+03  2.23300E+03  6.53717E+02  3.44433E+03 -4.00004E+03 -7.56032E+01
 -4.17492E+03 -6.25180E+03 -9.42713E+02 -8.85553E+03  4.64352E+03 -9.10022E+03  1.22480E+04 -4.97176E+03
  1.38310E+04  9.18419E+02  9.80294E+03  7.55011E+03  1.77716E+03  1.07914E+04 -5.61488E+03  9.68379E+03
 -7.84900E+03  2.92579E+03 -4.25833E+03 -2.20888E+03  1.19961E+03 -2.49088E+03  4.75166E+03 -1.21049E+03
  5.00643E+03  4.07938E+03  6.56278E+02  7.56407E+03 -5.36810E+03  7.45720E+03 -8.83274E+03  1.58110E+03
 -6.66224E+03 -3.93215E+03  6.01034E+02 -7.82171E+03  4.91176E+03 -3.83442E+03  5.39827E+03  1.92455E+03
  6.62054E+02  4.51414E+03 -5.13644E+03  6.08653E+03 -6.03795E+03  3.08236E+03 -6.32408E+03 -2.07142E+03
 -3.96335E+03 -8.19859E+03  1.15911E+03 -9.20979E+03  6.90678E+03 -6.09533E+03  8.65220E+03  9.15053E+02
  6.13373E+03  6.56105E+03  7.89061E+01  8.88270E+03 -6.05427E+03  5.19539E+03 -6.71624E+03 -6.41316E+02
 -6.84342E+03 -6.09175E+03 -1.78147E+03 -6.16929E+03  3.06462E+03 -5.48067E+03  3.82754E+03 -2.85565E+03
  2.43850E+03  1.22292E+03 -3.48924E+02  1.39741E+03  1.51925E+02 -6.32271E+02  6.74257E+02 -2.63517E+03
  5.07551E+03 -1.77550E+03  7.68582E+03  1.02703E+03  7.31358E+03  4.29516E+03  6.23127E+03  9.36358E+03
 -2.35600E+03  1.10641E+04 -9.80085E+03  8.45265E+03 -1.30094E+04  1.39341E+03 -9.97830E+03 -3.43984E+03
 -5.47096E+03 -7.98511E+03  2.81982E+02 -7.07128E+03  2.69528E+03 -3.20648E+03  2.14884E+03 -3.14673E+03
  1.72085E+03 -1.88716E+03  2.93331E+03 -3.12979E+03  3.54538E+03 -2.32071E+03  4.39954E+03  6.38965E+02
  5.58773E+03  1.50921E+03  2.07531E+03  4.74312E+03 -1.95854E+03  4.27925E+03 -5.82026E+03  3.38035E+03
 -6.96653E+03 -9.38649E+02 -3.21243E+03 -4.20571E+03  4.90374E+02 -6.94655E+03  4.15164E+03 -7.30016E+03
  6.44632E+03 -3.61163E+03  8.57860E+03  5.55622E+02  6.34706E+03  6.29425E+03  8.73789E+02  7.83692E+03
 -3.33421E+03  7.64261E+03 -4.15014E+03  2.27588E+03 -2.85786E+03 -1.49477E+03 -7.73238E+02 -8.78185E+02
 -8.51974E+02 -6.56657E+01 -1.40304E+03  2.20582E+03 -3.17287E+03  1.27395E+03 -5.09769E+03 -5.48748E+02
 -2.19975E+03 -4.42174E+03  4.13787E+02 -5.99509E+03  4.00858E+03 -5.62452E+03  5.01457E+03 -1.95837E+03
  5.78769E+03  3.16570E+03  2.68499E+03  4.90913E+03 -1.28261E+03  6.06066E+03 -3.85762E+03  3.58832E+03
 -5.35594E+03  3.95048E+02 -4.33562E+03 -3.30895E+03 -1.19521E+03 -4.72021E+03  2.30504E+03 -3.66207E+03
  3.82658E+03 -1.52207E+03  2.30087E+03  5.15667E+02  1.16948E+03  2.25185E+03  6.86741E+02  7.07953E+02
  2.49504E+03  2.58524E+02  1.90130E+03  7.35014E+02  1.94498E+03  2.59027E+03  1.78202E+03  2.59573E+03
 -1.55974E+03  4.75703E+03 -3.31859E+03  5.32076E+03 -4.44126E+03  1.42505E+03 -6.19903E+03 -9.47038E+02
 -2.51505E+03 -5.38609E+03  5.57547E+02 -6.59579E+03  2.41145E+03 -3.91265E+03  4.18187E+03 -1.37367E+03
  3.69902E+03  2.40066E+03  1.28022E+03  3.06528E+03 -1.06385E+03  2.00889E+03 -2.03804E+03 -1.22546E+02
 -1.57852E+03 -1.94973E+03  1.48921E+03 -2.22337E+03  2.41621E+03 -1.02615E+03  1.66403E+03 -9.48862E+01
  9.44505E+02  6.82435E+02  1.14507E+03  2.79090E+02 -1.42676E+02  1.33222E+03  1.16742E+03 -8.01995E+02
  5.13992E+02 -4.42464E+02  2.26300E+03  1.70026E+03  3.34011E+02  3.55253E+03 -8.19430E+02  3.85466E+03
 -2.71852E+03  1.64015E+03 -3.39645E+03 -2.44713E+02 -3.29915E+03 -1.08157E+03 -2.68188E+02 -1.87679E+03
  1.82381E+02 -1.46324E+03  2.02498E+03 -1.19582E+03  7.08909E+02  1.27758E+03 -1.28362E+03  1.74429E+03
 -2.52088E+03  8.96468E+02 -2.15048E+03 -1.03250E+03 -1.36839E+03 -2.64918E+03  2.36435E+02 -2.93915E+03
  1.88517E+03 -1.15369E+03  1.29385E+03 -9.32060E+02  1.44605E+03  2.43971E+02  7.10553E+02  1.70714E+03
 -5.95746E+02 -1.04911E+02 -8.05248E+02 -6.48280E+02  1.09508E+03 -1.98258E+03  2.73400E+03 -1.25934E+03
  2.34864E+03  5.30909E+02  3.63617E+03  1.43133E+03  1.33183E+03  2.47838E+03 -9.79475E+02  3.18814E+03
 -2.44093E+03  8.95451E+02 -2.19235E+03 -3.94493E+02 -1.85091E+03 -1.71951E+03 -7.33789E+01 -1.55447E+03
  1.98054E+03 -8.45017E+02  2.09150E+03  6.22520E+02  2.98124E+02  2.21135E+03  3.58203E+02  1.80766E+03
 -4.57675E+02  1.46841E+03 -1.18709E+03 -6.42618E+01  3.41765E+02  9.04084E+02 -1.33900E+03  9.50209E+02
 -8.17146E+02  1.11835E+03 -2.27936E+03  4.15678E+02 -2.91996E+03  3.79430E+02 -3.91438E+03 -1.75128E+03
 -1.19756E+03 -3.64931E+03  4.34196E+02 -5.18640E+03  1.68437E+03 -3.47074E+03  4.03364E+03 -9.30701E+02
  3.97123E+03  1.53206E+02  2.10557E+03  2.79858E+03 -3.21424E+01  2.28373E+03 -1.35459E+03  1.02447E+03
 -1.22420E+03  7.20846E+02 -1.01876E+03 -9.96368E+02 -7.11970E+01 -3.41571E+02 -7.69884E+02  1.61494E+01
 -9.11879E+02 -2.74482E+02 -7.95121E+02 -1.43773E+02  1.39690E+02 -1.40419E+03 -2.13056E+02 -1.23929E+03
  1.31460E+03 -6.92243E+02  1.17458E+03  4.52528E+02  2.24757E+03  1.80591E+03 -5.10387E+02  2.68278E+03
 -1.43422E+03  3.23369E+03 -2.97629E+03  2.32352E+03 -3.19712E+03 -4.09774E+02 -1.32469E+03 -2.17335E+03
 -1.57644E+03 -2.31717E+03  8.81348E+02 -1.82993E+03  1.86086E+03 -1.34421E+03  1.36252E+03 -3.99454E+02
  1.80106E+03  1.02145E+03  9.63165E+02  1.00386E+03 -4.05496E+02  1.56398E+02  6.17619E+01 -5.95976E+02
  6.17440E+02 -3.00870E+02  6.76434E+02  7.73027E+02  2.49161E+02  8.40922E+02  2.12769E+02  6.42975E+02
 -6.97000E+02  8.98838E+02 -1.28249E+03  3.19651E+02 -1.18466E+03 -1.34694E+03  7.38596E+02 -2.04768E+03
  1.10057E+03 -1.77449E+03  1.59453E+03 -3.41502E+02  1.77581E+03 -5.51860E+02  1.05673E+03  1.29281E+03
  2.86166E+02  9.14449E+02 -7.04862E+02  1.33882E+03 -9.68323E+02  4.26785E+02 -9.19723E+02 -9.96458E+01
 -2.73127E+02  4.48446E+02 -7.47019E+02  1.02141E+02 -1.36296E+03  2.78456E+02 -1.59197E+03 -1.59094E+02
 -1.35245E+03  1.20623E+01 -7.87554E+02 -1.62770E+03  6.69317E+02 -2.48632E+03  1.37002E+03 -8.23419E+02
  1.39063E+03 -1.08567E+01  1.71691E+02  9.19562E+02  4.57971E+02  1.79705E+03 -9.27064E+02  4.62014E+02
