 $NMID ID='MM_0lb_SNR400_8hz_g40_68.RAW', FMTDAT='(8E13.5)'
 TRAMP=1., VOLUME=1. $END
  3.09342E+05  1.05411E+03  3.38144E+05  2.50668E+05  8.45329E+04  3.38612E+05 -1.32366E+05  2.51980E+05
 -1.91102E+05  8.34939E+04 -1.12836E+05 -3.29878E+04  6.56684E+01 -5.04015E+04  5.35442E+04 -4.57221E+02
  3.59520E+04  5.27391E+04 -1.55423E+04  7.59773E+04 -6.12461E+04  6.47668E+04 -8.59178E+04  3.19746E+04
 -8.23438E+04 -1.22843E+04 -5.86891E+04 -5.24787E+04 -1.54338E+04 -7.08988E+04  2.79047E+04 -4.68431E+04
  4.15357E+04  3.36274E+03  1.71712E+04  4.81670E+04 -3.43306E+04  4.72496E+04 -6.76956E+04  8.06265E+02
 -5.47759E+04 -5.76665E+04 -6.53139E+03 -7.87056E+04  3.50471E+04 -5.71058E+04  4.95081E+04 -1.84072E+04
  4.56578E+04  1.18058E+04  3.22295E+04  2.67639E+04  1.56231E+04  3.06232E+04 -5.97702E+03  2.70460E+04
 -2.22211E+04  1.25862E+04 -1.81696E+04 -5.70366E+03  7.16646E+03 -6.58007E+03  2.38118E+04  1.35388E+04
  7.40167E+03  3.69145E+04 -3.39188E+04  3.78215E+04 -6.56342E+04  1.96232E+03 -5.86554E+04 -4.52552E+04
 -1.29173E+04 -6.57145E+04  4.17200E+04 -4.70763E+04  6.09103E+04 -2.42042E+03  3.66224E+04  3.41367E+04
 -4.50036E+03  3.92125E+04 -3.25986E+04  1.83905E+04 -3.40509E+04 -3.52621E+03 -1.92194E+04 -1.25656E+04
 -9.27174E+03 -1.53618E+04 -5.74149E+02 -1.97696E+04  8.26715E+03 -2.29813E+04  1.58232E+04 -1.24144E+04
  9.38288E+03  6.19088E+03 -1.07095E+04  1.22495E+04 -2.36884E+04 -7.25443E+03 -8.89748E+03 -3.68858E+04
  2.55811E+04 -4.71606E+04  5.15967E+04 -2.21120E+04  4.92853E+04  2.03533E+04  1.72279E+04  4.75129E+04
 -1.63827E+04  3.63871E+04 -2.77088E+04  1.80419E+03 -1.20478E+04 -2.92449E+04  2.20592E+04 -3.61192E+04
  4.49310E+04 -1.09827E+04  4.04395E+04  2.45445E+04  2.12083E+04  5.07755E+04 -8.51307E+03  5.65645E+04
 -3.56932E+04  3.77716E+04 -4.83074E+04  1.10718E+04 -4.81218E+04 -1.86941E+04 -2.66595E+04 -4.26993E+04
  8.14121E+03 -4.21520E+04  3.37802E+04 -1.72823E+04  3.25969E+04  1.11693E+04  5.62405E+03  2.13808E+04
 -1.43198E+04  9.72791E+03 -1.00309E+04 -8.18628E+03  5.22763E+03 -1.23873E+04  1.95165E+04  6.48724E+03
  1.37014E+04  2.26173E+04 -5.29231E+03  2.82579E+04 -2.35010E+04  1.36855E+04 -3.06934E+04 -3.22811E+03
 -2.51332E+04 -1.85804E+04 -1.21611E+04 -2.45187E+04  4.16537E+03 -2.57655E+04  1.98363E+04 -2.28377E+04
  3.23326E+04 -1.43189E+04  3.69609E+04  4.86556E+03  2.67464E+04  2.43253E+04  3.50732E+03  4.08744E+04
 -1.93303E+04  3.42359E+04 -3.04093E+04  1.11061E+04 -2.21316E+04 -1.03244E+04 -4.99286E+03 -1.34332E+04
  5.37594E+02 -1.23504E+03 -7.68941E+03  8.66892E+03 -2.07912E+04  4.75984E+03 -2.07251E+04 -9.50282E+03
 -1.17971E+04 -2.36163E+04  5.72848E+03 -2.74092E+04  1.93646E+04 -2.01335E+04  2.25864E+04 -2.56881E+03
  1.43560E+04  1.55750E+04 -1.76620E+03  2.46906E+04 -1.65399E+04  1.29020E+04 -2.36578E+04 -5.62049E+03
 -1.69818E+04 -2.06572E+04 -1.48607E+03 -2.84698E+04  1.24039E+04 -2.30568E+04  2.30034E+04 -1.21395E+04
  2.23497E+04  7.29579E+01  1.59805E+04  5.07230E+03  9.19325E+03  1.75591E+03  1.27013E+04 -1.14278E+03
  2.23630E+04  2.50523E+03  2.57514E+04  1.89226E+04  1.77175E+04  3.77237E+04 -3.33012E+03  4.43006E+04
 -2.60267E+04  3.67873E+04 -4.23322E+04  1.93884E+04 -4.43761E+04 -3.36357E+03 -3.66220E+04 -2.63213E+04
 -1.47985E+04 -3.73972E+04  1.34288E+04 -3.37793E+04  2.83995E+04 -1.48929E+04  2.38396E+04  8.08932E+03
  8.09447E+03  1.92066E+04 -1.19659E+04  1.62028E+04 -2.06097E+04  1.73216E+03 -1.60016E+04 -1.33856E+04
 -4.54168E+02 -1.92023E+04  1.01357E+04 -1.42669E+04  1.25056E+04 -4.73626E+02  3.94455E+03  8.39948E+03
 -8.94055E+03  4.29665E+03 -8.78641E+03 -7.49927E+03 -1.74414E+03 -1.91303E+04  1.20624E+04 -1.99989E+04
  2.37931E+04 -1.13012E+04  2.63196E+04  3.05454E+03  2.36916E+04  1.83756E+04  1.08969E+04  2.97700E+04
 -6.12584E+03  3.13854E+04 -2.15723E+04  2.02032E+04 -2.26084E+04  4.54952E+03 -1.56189E+04 -5.77554E+03
 -5.63483E+03 -7.18384E+03 -3.45814E+02 -5.17173E+01 -3.00461E+03  3.72622E+03 -7.47647E+03  4.98204E+03
 -1.43394E+04 -1.10103E+03 -1.51861E+04 -1.13735E+04 -5.92677E+03 -1.91823E+04  6.80506E+03 -1.65547E+04
  1.27150E+04 -5.77936E+03  9.50905E+03  4.54508E+03 -6.03573E+00  7.06196E+03 -8.81694E+03 -1.35137E+02
 -8.26322E+03 -1.02053E+04 -4.04264E+02 -1.48170E+04  9.65281E+03 -1.70339E+04  2.09876E+04 -8.61883E+03
  2.47461E+04  2.05839E+03  1.76916E+04  1.50326E+04  3.64595E+03  1.95811E+04 -9.98510E+03  1.55182E+04
 -1.31386E+04  4.34158E+03 -7.15382E+03 -3.02094E+03  1.95828E+03 -4.27438E+03  8.69863E+03 -1.51345E+03
  7.17899E+03  7.11828E+03  1.97390E+02  1.25511E+04 -9.03018E+03  1.21144E+04 -1.53670E+04  3.64849E+03
 -1.03978E+04 -8.36367E+03 -1.10431E+02 -1.44227E+04  9.32825E+03 -7.08637E+03  9.69507E+03  4.46164E+03
  2.68227E+03  1.04459E+04 -7.95524E+03  1.14655E+04 -1.50117E+04  4.85223E+03 -1.43193E+04 -4.62568E+03
 -8.30237E+03 -1.58507E+04  3.82979E+03 -1.88905E+04  1.62764E+04 -1.19501E+04  1.81034E+04  4.03033E+03
  9.77640E+03  1.35689E+04 -1.21462E+03  1.58675E+04 -1.30387E+04  8.96922E+03 -1.33645E+04 -8.27846E+02
 -1.07676E+04 -9.69426E+03 -2.28507E+03 -1.30661E+04  6.61269E+03 -9.26837E+03  8.12151E+03 -3.82885E+03
  5.80073E+03  2.50424E+03 -1.08373E+03  2.26591E+03 -3.53857E+02 -4.28526E+03  2.57267E+03 -7.69831E+03
  1.21078E+04 -5.20900E+03  1.64482E+04  1.46559E+03  1.68085E+04  1.11315E+04  1.04249E+04  2.22270E+04
 -4.40146E+03  2.54554E+04 -2.02110E+04  1.84480E+04 -2.79285E+04  3.64110E+03 -2.13923E+04 -9.01697E+03
 -1.05944E+04 -1.85864E+04 -8.11622E+02 -1.61755E+04  6.00302E+03 -8.11727E+03  5.53326E+03 -5.29732E+03
  4.16765E+03 -3.44082E+03  4.06627E+03 -4.76333E+03  6.31829E+03 -4.02382E+03  8.25436E+03 -1.87324E+03
  1.08195E+04  2.79487E+03  5.45725E+03  9.75607E+03 -2.19811E+03  1.23049E+04 -1.12619E+04  9.48971E+03
 -1.57185E+04 -8.24057E+02 -9.89189E+03 -1.09361E+04 -1.52449E+03 -1.75375E+04  9.15098E+03 -1.78082E+04
  1.80934E+04 -9.50505E+03  2.02109E+04  3.26993E+03  1.43076E+04  1.41937E+04  1.57602E+03  1.87532E+04
 -8.39961E+03  1.47425E+04 -1.12445E+04  4.99627E+03 -7.24102E+03 -2.50038E+03 -2.61485E+03 -2.58956E+03
 -1.52554E+03 -4.62258E+02 -2.97651E+03  2.48891E+03 -6.75738E+03  2.75834E+03 -1.05569E+04 -2.00237E+03
 -7.47187E+03 -1.08435E+04  2.33370E+02 -1.61164E+04  9.31453E+03 -1.38699E+04  1.56443E+04 -4.00862E+03
  1.57347E+04  7.60485E+03  7.52853E+03  1.43744E+04 -2.19245E+03  1.59963E+04 -1.13423E+04  1.03931E+04
 -1.47896E+04 -2.03599E+01 -1.08327E+04 -9.70985E+03 -1.18729E+03 -1.27901E+04  6.87273E+03 -9.57327E+03
  9.42371E+03 -2.75508E+03  5.79706E+03  2.51663E+03  2.97996E+03  4.13916E+03  1.82436E+03  1.49027E+03
  2.97769E+03  6.01674E+02  3.90917E+03  1.02792E+03  4.58850E+03  5.21255E+03  3.92752E+03  8.53263E+03
 -3.21316E+03  1.28725E+04 -1.18500E+04  1.26720E+04 -1.68429E+04  3.88856E+03 -1.63200E+04 -7.66961E+03
 -7.71867E+03 -1.60467E+04  2.61376E+03 -1.76090E+04  9.53762E+03 -1.14377E+04  1.35109E+04 -2.70285E+03
  9.78379E+03  5.35059E+03  2.15013E+03  8.52744E+03 -4.41073E+03  5.79953E+03 -6.97421E+03 -4.98504E+02
 -2.56747E+03 -6.73919E+03  3.61934E+03 -6.60473E+03  6.26354E+03 -3.44248E+03  6.73099E+03  1.51864E+03
  4.00426E+03  3.86096E+03  1.69016E+03  1.85914E+03 -5.77396E+02  2.00602E+03  1.78751E+03 -1.41396E+03
  2.58696E+03 -1.30036E+03  7.21617E+03  3.42391E+03  4.27154E+03  9.31667E+03 -1.66746E+03  1.15490E+04
 -7.83232E+03  7.95785E+03 -9.64409E+03  2.90183E+03 -1.03429E+04 -3.79495E+03 -4.08917E+03 -7.26750E+03
  1.32271E+02 -6.40949E+03  3.68891E+03 -3.25923E+03  3.89572E+03  2.55733E+03 -1.82965E+03  5.06483E+03
 -6.73200E+03  3.46670E+03 -8.16021E+03 -3.83865E+03 -4.91976E+03 -8.27861E+03  8.51207E+02 -9.32010E+03
  5.82505E+03 -4.92913E+03  6.62527E+03 -2.49359E+02  5.52308E+03  2.10512E+03  2.50256E+02  5.46791E+03
 -3.88955E+03  2.00493E+03 -4.43704E+03 -3.64726E+03  1.33588E+03 -6.84086E+03  7.78846E+03 -5.97795E+03
  1.08735E+04  7.95058E+02  1.00536E+04  7.07118E+03  2.76304E+03  1.06336E+04 -3.92415E+03  1.06717E+04
 -8.99436E+03  5.08005E+03 -9.20722E+03 -1.82809E+03 -3.96386E+03 -5.89000E+03  1.83648E+03 -7.12252E+03
  6.52837E+03 -3.30329E+03  6.30122E+03  2.49490E+03  2.11385E+03  5.92189E+03 -1.27496E+03  5.07460E+03
 -3.28414E+03  4.03229E+03 -2.74198E+03  1.19608E+03 -8.85325E+02  1.18745E+03 -1.15897E+03  2.89080E+03
 -2.37646E+03  3.64277E+03 -7.21178E+03  4.69907E+03 -1.08767E+04  8.27064E+02 -1.33387E+04 -7.34534E+03
 -6.01473E+03 -1.40742E+04  3.05744E+03 -1.70775E+04  1.12450E+04 -1.38118E+04  1.65924E+04 -5.04893E+03
  1.53048E+04  3.22735E+03  9.72837E+03  1.06092E+04  7.41471E+02  1.20816E+04 -4.73518E+03  8.79253E+03
 -6.72232E+03  3.41379E+03 -5.17717E+03 -5.38229E+02 -1.63452E+03 -6.71332E+02  2.63478E+01  9.46798E+01
 -2.65867E+03  1.85584E+02 -2.46648E+03 -4.08240E+02 -7.79715E+02 -2.86847E+03 -2.64564E+02 -3.63071E+03
  5.12836E+03 -4.00395E+03  7.66193E+03  1.18032E+00  8.64778E+03  5.52785E+03  3.04467E+03  1.24009E+04
 -5.59913E+03  1.35558E+04 -1.24845E+04  7.39085E+03 -1.39334E+04 -1.54511E+03 -1.03838E+04 -8.03462E+03
 -3.87655E+03 -1.19196E+04  2.95632E+03 -1.11443E+04  8.55415E+03 -5.79644E+03  8.00523E+03  4.54277E+02
  4.59265E+03  4.59703E+03 -1.09710E+03  3.59259E+03 -1.86639E+03 -2.58372E+02  3.15177E+02 -2.75721E+03
  4.01246E+03 -1.36018E+03  5.17567E+03  1.23271E+03  3.85914E+03  4.69827E+03 -3.73247E+01  5.97362E+03
 -5.80007E+03  5.48599E+03 -8.98566E+03  7.06548E+02 -7.21067E+03 -5.45088E+03 -1.26032E+03 -1.02944E+04
  6.01792E+03 -7.89476E+03  9.73318E+03 -2.34781E+03  9.98006E+03  2.11797E+03  4.85447E+03  6.81489E+03
  4.22165E+02  8.24468E+03 -3.67005E+03  6.02488E+03 -4.59823E+03  3.79307E+03 -3.81696E+03  1.00618E+03
 -2.34628E+03 -3.77927E+02 -2.81613E+03  7.24099E+02 -4.38054E+03  1.76887E+03 -5.65327E+03 -1.04207E+03
 -6.02838E+03 -4.59044E+03 -1.63296E+03 -8.25074E+03  3.40126E+03 -8.25599E+03  6.85023E+03 -5.18979E+03
  8.54051E+03  1.24641E+03  4.18609E+03  6.90818E+03  1.94908E+02  8.46758E+03 -6.16922E+03  4.10988E+03
