 $NMID ID='MM_0lb_SNR400_12hz_g40_84.RAW', FMTDAT='(8E13.5)'
 TRAMP=1., VOLUME=1. $END
  3.09781E+05  5.75608E+02  3.36928E+05  2.50041E+05  8.47740E+04  3.38288E+05 -1.33096E+05  2.50933E+05
 -1.90062E+05  8.36165E+04 -1.11600E+05 -3.30216E+04  8.65218E+02 -5.07929E+04  5.36099E+04 -2.29216E+01
  3.51437E+04  5.35326E+04 -1.63294E+04  7.59593E+04 -6.06579E+04  6.37963E+04 -8.40001E+04  3.20817E+04
 -8.11482E+04 -1.12401E+04 -5.68167E+04 -5.19603E+04 -1.51478E+04 -6.96336E+04  2.72818E+04 -4.58809E+04
  3.94690E+04  3.83800E+03  1.57792E+04  4.78513E+04 -3.43560E+04  4.76479E+04 -6.69428E+04 -6.05261E+02
 -5.34479E+04 -5.69125E+04 -6.95166E+03 -7.70326E+04  3.35658E+04 -5.50180E+04  4.81851E+04 -1.66199E+04
  4.28415E+04  1.17585E+04  3.20442E+04  2.57176E+04  1.54038E+04  3.00148E+04 -5.12521E+03  2.71233E+04
 -2.12494E+04  1.21579E+04 -1.90667E+04 -4.42876E+03  6.84189E+03 -7.94399E+03  2.26437E+04  1.19705E+04
  7.52268E+03  3.50555E+04 -3.23916E+04  3.54842E+04 -6.41478E+04  2.00553E+03 -5.78492E+04 -4.26756E+04
 -1.24191E+04 -6.36770E+04  4.07910E+04 -4.57862E+04  5.90343E+04 -2.08648E+03  3.44999E+04  3.29827E+04
 -5.65597E+03  3.69483E+04 -3.09659E+04  1.65762E+04 -3.12553E+04 -4.14687E+03 -1.69141E+04 -1.08094E+04
 -8.92673E+03 -1.31374E+04 -1.00493E+03 -1.85954E+04  7.60294E+03 -2.27883E+04  1.55623E+04 -1.30571E+04
  1.13680E+04  4.79422E+03 -8.45525E+03  1.25064E+04 -2.16699E+04 -4.95339E+03 -8.73587E+03 -3.49323E+04
  2.31648E+04 -4.41508E+04  4.80741E+04 -1.96225E+04  4.57132E+04  1.95541E+04  1.58640E+04  4.46245E+04
 -1.66304E+04  3.38242E+04 -2.58935E+04  1.75612E+03 -1.01876E+04 -2.82079E+04  2.13158E+04 -3.43841E+04
  4.18435E+04 -9.64355E+03  3.64945E+04  2.41437E+04  1.88623E+04  4.74802E+04 -8.08437E+03  5.16763E+04
 -3.27294E+04  3.50390E+04 -4.29971E+04  9.71102E+03 -4.31934E+04 -1.72593E+04 -2.42003E+04 -3.82918E+04
  8.00831E+03 -3.82168E+04  3.27469E+04 -1.49930E+04  3.02982E+04  1.08362E+04  4.67697E+03  1.96823E+04
 -1.35913E+04  8.84240E+03 -1.02653E+04 -7.64707E+03  5.08026E+03 -1.05975E+04  1.85117E+04  6.32049E+03
  1.34677E+04  2.19454E+04 -5.82371E+03  2.51533E+04 -2.25360E+04  1.23966E+04 -2.91003E+04 -4.30024E+03
 -2.16587E+04 -1.78140E+04 -8.88655E+03 -2.15127E+04  4.25692E+03 -2.10193E+04  1.67965E+04 -1.83033E+04
  2.75514E+04 -1.33404E+04  3.37957E+04  3.36966E+03  2.41452E+04  2.08051E+04  4.12588E+03  3.69264E+04
 -1.80677E+04  3.05587E+04 -2.89785E+04  1.03570E+04 -2.11668E+04 -1.08649E+04 -4.15615E+03 -1.31207E+04
  1.56795E+03 -2.77664E+03 -5.61644E+03  7.09723E+03 -1.67311E+04  4.63683E+03 -1.76180E+04 -7.62575E+03
 -1.02795E+04 -2.02342E+04  5.15755E+03 -2.38742E+04  1.53517E+04 -1.66859E+04  1.86318E+04 -1.25646E+03
  1.13725E+04  1.35021E+04 -1.39766E+03  1.98019E+04 -1.47908E+04  1.15482E+04 -1.99328E+04 -4.07013E+03
 -1.39998E+04 -1.79314E+04 -1.80860E+03 -2.35281E+04  1.02337E+04 -1.99718E+04  2.00099E+04 -9.83295E+03
  1.85972E+04  9.23406E+01  1.32267E+04  4.04359E+03  7.59458E+03  2.14499E+03  1.03970E+04 -1.81147E+03
  1.78178E+04  2.50979E+03  2.06567E+04  1.57763E+04  1.35595E+04  3.17471E+04 -2.86017E+03  3.62087E+04
 -2.01464E+04  2.92867E+04 -3.41028E+04  1.58225E+04 -3.55812E+04 -2.46694E+03 -2.94372E+04 -2.07972E+04
 -1.21075E+04 -2.93653E+04  1.01243E+04 -2.64033E+04  2.25659E+04 -1.32660E+04  2.03083E+04  6.10688E+03
  7.40348E+03  1.52249E+04 -9.37863E+03  1.34498E+04 -1.74034E+04  2.00723E+03 -1.33776E+04 -1.05897E+04
 -1.58742E+02 -1.63318E+04  9.07559E+03 -1.16061E+04  1.10339E+04 -1.54811E+03  2.45949E+03  7.01514E+03
 -7.57117E+03  3.79675E+03 -6.28289E+03 -5.75358E+03 -4.81010E+02 -1.43184E+04  1.01285E+04 -1.56895E+04
  1.87937E+04 -8.54231E+03  1.98852E+04  3.03728E+03  1.77180E+04  1.44422E+04  7.89445E+03  2.17466E+04
 -3.89537E+03  2.42094E+04 -1.57622E+04  1.50650E+04 -1.71942E+04  4.31566E+03 -1.23313E+04 -4.59717E+03
 -5.03833E+03 -5.43819E+03 -6.20002E+02  1.58346E+03 -2.66918E+03  3.03175E+03 -6.41021E+03  4.31882E+03
 -1.11795E+04 -4.09100E+02 -1.22729E+04 -9.99829E+03 -4.45806E+03 -1.65326E+04  4.87130E+03 -1.24269E+04
  1.06206E+04 -5.60762E+03  7.37340E+03  3.21448E+03  5.73621E+02  4.85418E+03 -6.02399E+03 -2.94547E+02
 -5.82631E+03 -7.56043E+03 -1.42666E+03 -1.21083E+04  6.99394E+03 -1.22498E+04  1.61823E+04 -6.78988E+03
  1.82070E+04  1.42625E+03  1.34161E+04  1.07930E+04  2.14238E+03  1.40931E+04 -7.86555E+03  1.25529E+04
 -1.01323E+04  4.67596E+03 -4.67111E+03 -2.74230E+03  1.41401E+03 -3.24564E+03  6.80556E+03 -1.18607E+03
  6.12699E+03  5.60938E+03  1.13350E+03  9.91902E+03 -7.24884E+03  1.01275E+04 -1.17731E+04  2.13779E+03
 -8.14091E+03 -5.72788E+03  6.06955E+02 -9.97698E+03  6.05613E+03 -5.90630E+03  6.98523E+03  2.19270E+03
  1.00122E+03  7.13922E+03 -6.35329E+03  8.31034E+03 -9.15476E+03  3.61933E+03 -9.30896E+03 -2.43760E+03
 -5.70500E+03 -1.11375E+04  2.12897E+03 -1.24376E+04  1.13455E+04 -7.62904E+03  1.14625E+04  1.89521E+03
  6.94721E+03  9.19967E+03 -7.69247E+02  1.16628E+04 -8.80816E+03  6.41297E+03 -8.60498E+03 -9.47960E+02
 -8.13630E+03 -7.40323E+03 -1.49693E+03 -8.68520E+03  4.29575E+03 -7.37416E+03  5.08244E+03 -3.85089E+03
  3.66579E+03  1.15876E+03 -1.50223E+02  1.91365E+03  2.32926E+02 -1.92880E+03  1.52025E+03 -5.23331E+03
  7.66175E+03 -3.24636E+03  1.06858E+04  1.37373E+03  1.06834E+04  8.09118E+03  7.56526E+03  1.44257E+04
 -3.45173E+03  1.73730E+04 -1.36691E+04  1.20922E+04 -1.86049E+04  2.81947E+03 -1.51617E+04 -6.48593E+03
 -6.68571E+03 -1.14573E+04 -3.86932E+02 -1.03397E+04  3.51922E+03 -6.01079E+03  3.31230E+03 -3.21181E+03
  2.99976E+03 -2.28764E+03  2.44477E+03 -3.36930E+03  4.58708E+03 -3.01831E+03  5.53229E+03 -2.80427E+02
  7.11709E+03  1.85170E+03  3.71566E+03  6.25881E+03 -2.59602E+03  7.75457E+03 -8.23375E+03  6.05835E+03
 -1.04983E+04 -1.31022E+03 -5.14884E+03 -6.91645E+03 -3.57409E+02 -9.52101E+03  6.36399E+03 -1.15866E+04
  1.06265E+04 -5.64767E+03  1.31507E+04  1.06267E+03  9.57178E+03  9.34907E+03  1.59100E+03  1.20072E+04
 -5.48840E+03  1.06303E+04 -6.88119E+03  4.02127E+03 -4.51250E+03 -2.02063E+03 -1.09409E+03 -1.27737E+03
 -1.46471E+03 -1.75181E+02 -1.71500E+03  3.03543E+03 -4.18481E+03  1.79451E+03 -6.87082E+03 -1.26397E+03
 -4.33591E+03 -7.19500E+03 -8.67021E+01 -9.68141E+03  5.25425E+03 -9.42880E+03  9.23181E+03 -2.75606E+03
  9.76445E+03  4.98441E+03  4.29620E+03  8.20779E+03 -2.62156E+03  9.61921E+03 -7.01281E+03  5.85056E+03
 -8.89635E+03  4.35372E+02 -6.85738E+03 -5.54155E+03 -6.98544E+02 -7.48026E+03  3.98911E+03 -5.75225E+03
  6.33011E+03 -2.18921E+03  3.99524E+03  2.33910E+03  1.02542E+03  3.13268E+03  7.69372E+02  2.10519E+03
  1.88207E+03  7.94187E+02  2.36311E+03  1.09670E+03  2.88714E+03  3.52520E+03  2.86391E+03  4.27544E+03
 -2.08202E+03  6.70528E+03 -6.29824E+03  8.42813E+03 -9.37108E+03  2.13085E+03 -1.01068E+04 -3.34218E+03
 -4.67849E+03 -9.10038E+03  1.39414E+03 -1.04578E+04  5.36891E+03 -6.37515E+03  8.28375E+03 -2.07460E+03
  6.42763E+03  3.58501E+03  1.03313E+03  6.12148E+03 -2.95945E+03  3.12288E+03 -3.94167E+03 -3.51773E+02
 -1.55374E+03 -3.70807E+03  2.34480E+03 -4.42060E+03  2.87282E+03 -1.11205E+03  3.91634E+03  6.70234E+02
  1.83252E+03  1.39623E+03  1.05441E+03  1.10969E+03 -3.14538E+02  3.15289E+02  2.14063E+03  3.67196E+01
  5.31977E+02 -1.96940E+02  4.05522E+03  1.57813E+03  2.04059E+03  4.83691E+03 -7.49837E+02  6.66940E+03
 -3.93376E+03  3.93050E+03 -5.78539E+03  1.28152E+03 -5.44423E+03 -1.93643E+03 -2.30805E+03 -3.45102E+03
  4.26762E+02 -3.80733E+03  2.28411E+03 -1.29609E+03  2.31590E+03  1.71991E+03 -1.00474E+03  2.99521E+03
 -3.14896E+03  2.03706E+03 -5.18903E+03 -2.84960E+03 -2.86957E+03 -5.38329E+03  1.26214E+03 -4.03527E+03
  2.73247E+03 -2.74321E+03  3.41671E+03 -5.30825E+02  3.22077E+03  5.00866E+02  8.82625E+02  3.32169E+03
 -1.41829E+03  8.43121E+02 -1.65327E+03 -8.66254E+02  2.13256E+02 -3.99475E+03  3.84272E+03 -3.14449E+03
  5.42301E+03  6.40077E+02  5.83192E+03  3.59396E+03  2.02668E+03  6.14773E+03 -1.38819E+03  6.27638E+03
 -4.99613E+03  2.33559E+03 -4.70797E+03 -9.33580E+02 -2.62370E+03 -4.03112E+03  7.51687E+02 -3.09601E+03
  3.30355E+03 -2.40943E+03  3.03555E+03  1.34513E+03  1.36625E+03  2.70421E+03 -7.11688E+01  3.01896E+03
 -1.99005E+03  2.69463E+03 -1.57827E+03  7.34955E+02 -6.38372E+02  1.05845E+03 -1.26435E+03  8.60542E+02
 -1.36367E+03  1.97597E+03 -4.65871E+03  2.14697E+03 -5.68303E+03  3.12485E+01 -7.51545E+03 -3.49780E+03
 -3.53906E+03 -7.06553E+03  1.28837E+03 -8.62867E+03  4.82631E+03 -7.04741E+03  8.52715E+03 -1.94197E+03
  7.81444E+03  1.33820E+03  4.42787E+03  5.45280E+03  5.34395E+02  5.53733E+03 -3.07960E+03  4.55215E+03
 -3.38245E+03  1.95816E+03 -1.68934E+03 -9.71742E+02 -6.87228E+02 -1.69121E+02 -2.89324E+02  1.26581E+02
 -1.83869E+03  8.49583E+02 -1.26247E+03 -1.05643E+02 -4.15397E+02 -1.86068E+03 -4.88300E+02 -1.85405E+03
  2.42163E+03 -1.88827E+03  2.95657E+03  2.00298E+02  4.10611E+03  4.23676E+03  3.25735E+02  5.17899E+03
 -2.54970E+03  6.76998E+03 -6.19492E+03  4.02537E+03 -7.24023E+03 -7.82631E+01 -4.77863E+03 -4.59514E+03
 -2.91299E+03 -5.62003E+03  1.01492E+03 -5.36448E+03  3.03223E+03 -2.86373E+03  3.89864E+03  7.30774E+02
  2.49214E+03  1.90915E+03  1.50103E+02  1.15725E+03 -1.61685E+03 -5.38344E+02  5.23413E+02 -1.54387E+03
  1.72901E+03 -6.90012E+02  1.81290E+03  1.08707E+03  9.57761E+02  2.58380E+03  6.03665E+02  2.15579E+03
 -2.81905E+03  2.45958E+03 -2.99413E+03  1.25840E+03 -3.42236E+03 -2.10564E+03 -4.54515E+02 -4.57714E+03
  2.25041E+03 -3.99272E+03  3.52228E+03 -1.57404E+03  3.61454E+03  1.19630E+03  2.63809E+03  2.81762E+03
  7.88153E+02  3.69614E+03 -7.20483E+02  2.87100E+03 -1.37792E+03  1.47107E+03 -2.03267E+03 -3.66602E+02
 -9.02083E+02  3.34356E+02 -1.48079E+03  1.63878E+02 -1.81689E+03  3.05768E+02 -3.21124E+03 -1.02933E+03
 -2.28759E+03 -1.57472E+03 -1.02818E+03 -3.33614E+03  1.97282E+03 -3.61479E+03  3.54107E+03 -8.64664E+02
  3.53742E+03  5.82251E+02  1.46027E+03  2.25415E+03  1.49433E+02  4.16112E+03 -3.02319E+03  2.50419E+03
