 $NMID ID='MM_0lb_SNR400_13hz_g55_71.RAW', FMTDAT='(8E13.5)'
 TRAMP=1., VOLUME=1. $END
  3.09102E+05  1.85555E+02  3.37945E+05  2.50763E+05  8.46362E+04  3.38896E+05 -1.31926E+05  2.51380E+05
 -1.89959E+05  8.39539E+04 -1.12878E+05 -3.28953E+04  3.06556E+02 -5.05269E+04  5.39443E+04  2.62827E+02
  3.55802E+04  5.32098E+04 -1.66389E+04  7.58697E+04 -6.09714E+04  6.40593E+04 -8.44025E+04  3.26016E+04
 -8.21423E+04 -1.18549E+04 -5.77764E+04 -5.18238E+04 -1.49501E+04 -7.04941E+04  2.76396E+04 -4.65214E+04
  4.07088E+04  3.41212E+03  1.61424E+04  4.80470E+04 -3.45282E+04  4.71950E+04 -6.75550E+04 -1.98153E+02
 -5.45069E+04 -5.73612E+04 -7.32198E+03 -7.75061E+04  3.41108E+04 -5.59340E+04  4.89788E+04 -1.76074E+04
  4.35722E+04  1.18211E+04  3.27576E+04  2.63244E+04  1.64406E+04  2.97909E+04 -6.06830E+03  2.74487E+04
 -2.25936E+04  1.24424E+04 -1.87643E+04 -5.95904E+03  6.19067E+03 -7.95529E+03  2.25594E+04  1.22863E+04
  7.47261E+03  3.65465E+04 -3.34659E+04  3.68073E+04 -6.44447E+04  1.69574E+03 -5.80436E+04 -4.36238E+04
 -1.30450E+04 -6.44676E+04  4.05826E+04 -4.55880E+04  5.90685E+04 -2.45366E+03  3.49089E+04  3.36411E+04
 -5.34337E+03  3.74557E+04 -2.98511E+04  1.69319E+04 -3.18714E+04 -4.42371E+03 -1.77649E+04 -1.12998E+04
 -8.88963E+03 -1.40808E+04 -8.47340E+02 -1.85012E+04  7.45607E+03 -2.33340E+04  1.47501E+04 -1.37261E+04
  1.10589E+04  5.63554E+03 -8.46101E+03  1.33214E+04 -2.12520E+04 -5.09796E+03 -8.55719E+03 -3.55969E+04
  2.36718E+04 -4.53794E+04  4.90696E+04 -2.02218E+04  4.62053E+04  2.00189E+04  1.56003E+04  4.51131E+04
 -1.61880E+04  3.43148E+04 -2.65257E+04  2.71981E+03 -1.04959E+04 -2.87919E+04  2.12710E+04 -3.51045E+04
  4.21733E+04 -9.72765E+03  3.85694E+04  2.42608E+04  1.88964E+04  4.82964E+04 -7.71724E+03  5.23802E+04
 -3.38197E+04  3.51505E+04 -4.39275E+04  1.05811E+04 -4.43168E+04 -1.77616E+04 -2.44197E+04 -3.92040E+04
  7.26337E+03 -3.92538E+04  3.23734E+04 -1.55771E+04  3.10548E+04  1.05307E+04  4.54512E+03  2.03030E+04
 -1.37283E+04  9.00734E+03 -1.03671E+04 -7.04481E+03  5.53565E+03 -1.16421E+04  1.84326E+04  5.83365E+03
  1.38805E+04  2.22502E+04 -5.63344E+03  2.58694E+04 -2.24966E+04  1.26134E+04 -2.91965E+04 -3.94606E+03
 -2.24580E+04 -1.80780E+04 -9.33183E+03 -2.20045E+04  3.72095E+03 -2.18685E+04  1.70328E+04 -1.97759E+04
  2.80915E+04 -1.36302E+04  3.38035E+04  3.12747E+03  2.46608E+04  2.20954E+04  3.96412E+03  3.76870E+04
 -1.87224E+04  3.11508E+04 -2.79743E+04  1.09206E+04 -2.15717E+04 -1.04269E+04 -4.04899E+03 -1.34437E+04
  1.49024E+03 -1.83897E+03 -5.16761E+03  7.63572E+03 -1.80595E+04  5.44481E+03 -1.79721E+04 -7.95748E+03
 -1.06079E+04 -2.01558E+04  5.66302E+03 -2.46301E+04  1.62733E+04 -1.84097E+04  2.01979E+04 -1.71168E+03
  1.25888E+04  1.39112E+04 -1.40746E+03  2.10613E+04 -1.40687E+04  1.14053E+04 -2.12847E+04 -4.47187E+03
 -1.54671E+04 -1.83006E+04 -1.85474E+03 -2.41621E+04  1.11764E+04 -2.07073E+04  1.98169E+04 -1.03408E+04
  1.87465E+04 -5.22734E+02  1.36471E+04  4.65704E+03  7.31461E+03  1.44767E+03  1.00543E+04 -1.34996E+03
  1.93039E+04  2.66511E+03  2.14828E+04  1.60098E+04  1.40965E+04  3.29977E+04 -3.46355E+03  3.73181E+04
 -2.16758E+04  3.05899E+04 -3.52774E+04  1.56103E+04 -3.67380E+04 -2.29627E+03 -3.01791E+04 -2.14349E+04
 -1.32109E+04 -3.09230E+04  1.05106E+04 -2.74942E+04  2.36279E+04 -1.32343E+04  2.04484E+04  6.08274E+03
  7.74779E+03  1.60826E+04 -9.99187E+03  1.30025E+04 -1.77420E+04  2.61608E+03 -1.30576E+04 -1.13066E+04
 -6.82213E+01 -1.68138E+04  8.78667E+03 -1.25779E+04  1.11077E+04 -1.43520E+03  3.02355E+03  7.92806E+03
 -8.18387E+03  3.56415E+03 -6.76517E+03 -4.95649E+03 -6.10108E+01 -1.50033E+04  1.04205E+04 -1.59409E+04
  1.84554E+04 -8.49032E+03  2.06191E+04  3.12727E+03  1.80293E+04  1.49214E+04  8.59886E+03  2.27163E+04
 -4.18853E+03  2.40208E+04 -1.62331E+04  1.54631E+04 -1.83157E+04  3.16008E+03 -1.23567E+04 -4.36910E+03
 -5.61000E+03 -5.70184E+03 -7.70342E+02  8.26290E+02 -3.05341E+03  2.97708E+03 -6.23941E+03  4.26347E+03
 -1.18271E+04 -2.31420E+02 -1.21533E+04 -8.96535E+03 -4.43078E+03 -1.56674E+04  5.06308E+03 -1.29104E+04
  1.02553E+04 -5.23676E+03  7.66375E+03  3.94542E+03  6.01729E+02  4.76312E+03 -6.22462E+03  9.15738E+01
 -5.18002E+03 -7.59519E+03 -1.17684E+03 -1.24492E+04  7.43190E+03 -1.26477E+04  1.59122E+04 -6.50745E+03
  1.83928E+04  1.31724E+03  1.33177E+04  1.07212E+04  3.05418E+03  1.45277E+04 -7.81361E+03  1.21580E+04
 -1.07594E+04  3.82982E+03 -5.56382E+03 -2.69546E+03  1.11016E+03 -3.37869E+03  6.73774E+03 -9.63055E+02
  6.38466E+03  5.44705E+03  1.70681E+03  9.89140E+03 -7.08262E+03  9.50035E+03 -1.20633E+04  1.70321E+03
 -8.12513E+03 -6.08961E+03  4.26832E+02 -1.02801E+04  6.27208E+03 -6.06277E+03  6.90425E+03  1.79021E+03
  1.64421E+03  6.98840E+03 -6.53026E+03  8.55198E+03 -9.72247E+03  3.74678E+03 -9.99211E+03 -2.94774E+03
 -5.82598E+03 -1.13360E+04  3.19170E+03 -1.34516E+04  1.11481E+04 -8.27561E+03  1.25535E+04  2.08813E+03
  7.81732E+03  9.03354E+03 -4.54615E+02  1.14899E+04 -8.87388E+03  6.48588E+03 -8.78700E+03 -6.31323E+02
 -8.53135E+03 -7.76734E+03 -1.86672E+03 -8.69022E+03  4.43786E+03 -7.15435E+03  5.07887E+03 -3.96026E+03
  4.29048E+03  1.07938E+03 -6.73078E+02  1.35487E+03  6.19530E+02 -1.96591E+03  1.53757E+03 -5.42192E+03
  8.09101E+03 -3.20750E+03  1.09042E+04  1.05402E+03  1.08883E+04  7.29343E+03  7.79031E+03  1.43438E+04
 -3.30852E+03  1.67189E+04 -1.40724E+04  1.29309E+04 -1.82481E+04  2.57637E+03 -1.47616E+04 -5.65859E+03
 -7.61773E+03 -1.22656E+04 -8.01050E+02 -9.84425E+03  3.43492E+03 -5.40487E+03  3.32673E+03 -3.50917E+03
  2.54849E+03 -1.44340E+03  3.56856E+03 -3.10006E+03  4.65831E+03 -1.98429E+03  5.63946E+03 -7.78982E+01
  7.74035E+03  1.71641E+03  2.97309E+03  6.60633E+03 -1.95328E+03  7.07812E+03 -8.97243E+03  5.22865E+03
 -1.03233E+04 -1.36775E+03 -5.38607E+03 -6.69326E+03 -1.47989E+03 -1.01387E+04  6.70740E+03 -1.14000E+04
  1.10738E+04 -6.51089E+03  1.36393E+04  1.32647E+03  9.56277E+03  9.52640E+03  1.75771E+03  1.15595E+04
 -4.99678E+03  1.04486E+04 -6.77052E+03  3.40305E+03 -4.35422E+03 -1.30156E+03 -2.10761E+03 -1.03619E+03
 -1.03347E+03  6.28370E+01 -1.67359E+03  2.37699E+03 -3.92804E+03  1.54596E+03 -7.14209E+03 -8.06768E+02
 -4.43319E+03 -6.96026E+03  6.01793E+02 -9.11826E+03  5.89711E+03 -9.27477E+03  8.85846E+03 -2.51139E+03
  9.01669E+03  4.88183E+03  3.69713E+03  8.09537E+03 -1.95005E+03  9.65233E+03 -6.04512E+03  6.18359E+03
 -9.09456E+03  5.11130E+02 -6.73801E+03 -5.64701E+03 -4.33327E+02 -7.39926E+03  3.70887E+03 -5.59697E+03
  5.98769E+03 -2.47801E+03  3.94685E+03  1.79316E+03  1.24283E+03  2.78003E+03  1.31806E+03  1.20582E+03
  2.59359E+03  2.28660E+02  2.27554E+03  1.37647E+03  2.59016E+03  3.03915E+03  2.95973E+03  4.83336E+03
 -1.38852E+03  7.66669E+03 -6.08239E+03  7.48490E+03 -8.28901E+03  2.40665E+03 -9.89682E+03 -3.56156E+03
 -5.11067E+03 -8.95796E+03  1.67214E+03 -1.07586E+04  4.93214E+03 -6.60384E+03  7.26009E+03 -1.88187E+03
  5.45068E+03  3.79476E+03  1.16402E+03  4.82274E+03 -2.27453E+03  3.01703E+03 -2.54097E+03 -4.61988E+02
 -1.25166E+03 -4.03712E+03  1.88222E+03 -3.81318E+03  3.53498E+03 -1.01644E+03  3.79907E+03  5.21136E+02
  1.97864E+03  1.61163E+03  1.02220E+03  6.62425E+02 -2.68250E+02  1.82415E+03  2.31279E+03  7.85118E+00
  1.47618E+03 -8.51328E+02  4.09576E+03  1.53029E+03  2.03307E+03  5.56954E+03 -1.15545E+03  6.49004E+03
 -4.41507E+03  4.01526E+03 -5.20381E+03  1.06020E+03 -4.36279E+03 -1.63161E+03 -2.17852E+03 -2.91684E+03
  4.98238E+02 -3.84742E+03  3.06195E+03 -1.39102E+03  1.66663E+03  2.03145E+03 -3.10848E+02  3.18492E+03
 -3.54724E+03  1.53154E+03 -3.81991E+03 -2.22383E+03 -2.30514E+03 -4.63506E+03  4.95844E+02 -5.29937E+03
  2.65177E+03 -2.20209E+03  2.83898E+03 -2.70204E+02  2.97559E+03  4.94424E+02  1.40560E+02  2.51934E+03
 -1.73595E+03  4.93563E+02 -2.45839E+03 -1.90867E+03  9.16115E+02 -2.89952E+03  4.36970E+03 -3.30861E+03
  4.87798E+03  5.11571E+02  6.05402E+03  2.92625E+03  2.16554E+03  5.32223E+03 -1.73455E+03  5.04779E+03
 -4.39520E+03  2.39371E+03 -4.10919E+03 -1.26025E+02 -2.41014E+03 -3.64941E+03  8.91832E+02 -2.48282E+03
  4.10031E+03 -1.72796E+03  3.00914E+03  1.42120E+03  1.01401E+03  2.24265E+03 -6.15330E+02  2.69150E+03
 -7.92108E+02  2.17358E+03 -8.76221E+02  1.21939E+02 -8.16895E+02  9.05921E+02 -1.55798E+03  1.45314E+03
 -8.90956E+02  2.51024E+03 -4.51627E+03  2.21451E+03 -4.86020E+03  2.56404E+02 -5.71561E+03 -3.11149E+03
 -2.86786E+03 -6.18051E+03  1.36171E+03 -7.47670E+03  4.11288E+03 -6.45433E+03  7.22162E+03 -2.20045E+03
  6.61576E+03  1.16276E+03  4.10809E+03  4.85691E+03 -3.19439E+02  6.03792E+03 -2.33725E+03  3.39855E+03
 -3.35125E+03  1.75998E+03 -1.51686E+03 -7.54561E+02 -8.06775E+02 -4.22557E+02 -1.07119E+03 -1.28110E+01
 -9.85716E+02  1.54281E+02 -1.17908E+03 -2.25914E+02 -4.48997E+02 -8.97945E+02 -9.35009E+01 -2.51190E+03
  2.56785E+03 -1.70986E+03  2.94546E+03  1.31444E+02  3.97107E+03  2.71801E+03  8.41970E+02  4.81403E+03
 -2.45698E+03  5.78878E+03 -5.84811E+03  3.11919E+03 -6.71890E+03 -4.48220E+02 -4.46465E+03 -3.42844E+03
 -2.45494E+03 -5.15938E+03  1.22560E+03 -4.51522E+03  2.61922E+03 -2.41866E+03  2.88996E+03  5.61593E+02
  2.08425E+03  1.43937E+03  4.07981E+01  1.54342E+03 -1.71688E+03 -1.59703E+02 -3.54755E+02 -7.69738E+02
  1.10254E+03  3.02316E+00  1.08885E+03  1.03571E+03  1.29905E+03  2.08176E+03 -5.06884E+02  1.58702E+03
 -2.06402E+03  2.49227E+03 -2.61078E+03 -4.05519E+00 -3.59496E+03 -2.36560E+03 -8.12111E+02 -4.25629E+03
  2.34077E+03 -3.57814E+03  3.19806E+03 -1.03817E+03  3.63499E+03  7.27731E+02  1.72017E+03  2.78485E+03
  8.23135E+02  2.80439E+03 -8.02439E+02  2.30967E+03 -1.83804E+03  1.67696E+03 -4.01448E+02  9.56336E+02
 -9.49711E+02  5.40579E+02 -7.11996E+02 -1.92041E+02 -1.46393E+03  2.72715E+02 -2.54672E+03 -4.84508E+02
 -3.01160E+03 -1.22387E+03 -1.05764E+03 -3.17079E+03  1.49695E+03 -3.78766E+03  3.35286E+03 -1.99217E+03
  3.60209E+03  2.76476E+02  9.97519E+02  2.28445E+03 -5.16989E+02  3.07481E+03 -2.09967E+03  2.45124E+03
