 $NMID ID='MM_0lb_SNR400_20hz_g50_31.RAW', FMTDAT='(8E13.5)'
 TRAMP=1., VOLUME=1. $END
  3.10140E+05  3.92058E+02  3.37632E+05  2.50241E+05  8.42228E+04  3.37119E+05 -1.32073E+05  2.50036E+05
 -1.90193E+05  8.20216E+04 -1.10897E+05 -3.27661E+04  1.28968E+03 -5.04410E+04  5.36285E+04  3.43895E+02
  3.57509E+04  5.27630E+04 -1.71876E+04  7.46771E+04 -6.02354E+04  6.26911E+04 -8.25340E+04  3.15140E+04
 -7.98547E+04 -1.07925E+04 -5.61364E+04 -5.01693E+04 -1.48901E+04 -6.79773E+04  2.63063E+04 -4.49025E+04
  3.84208E+04  4.37220E+03  1.61098E+04  4.67701E+04 -3.37431E+04  4.63314E+04 -6.55152E+04 -8.65160E+02
 -5.16588E+04 -5.60380E+04 -5.92870E+03 -7.46464E+04  3.31145E+04 -5.30199E+04  4.61407E+04 -1.59723E+04
  4.12291E+04  1.10897E+04  3.05358E+04  2.40693E+04  1.56140E+04  2.80092E+04 -4.74356E+03  2.65389E+04
 -2.16778E+04  1.26959E+04 -1.92309E+04 -4.08094E+03  4.10093E+03 -7.82204E+03  2.12635E+04  1.09647E+04
  7.70658E+03  3.28042E+04 -3.03491E+04  3.33498E+04 -6.05636E+04  2.45630E+03 -5.50042E+04 -4.10033E+04
 -1.19170E+04 -6.05702E+04  3.81720E+04 -4.26552E+04  5.50878E+04 -1.77062E+03  3.15718E+04  3.08049E+04
 -6.49140E+03  3.24475E+04 -2.86992E+04  1.29571E+04 -2.76103E+04 -5.47906E+03 -1.39137E+04 -9.93982E+03
 -7.04337E+03 -1.11780E+04 -1.14851E+03 -1.64760E+04  6.51012E+03 -2.26035E+04  1.46307E+04 -1.40944E+04
  1.23429E+04  4.24316E+03 -5.57126E+03  1.27901E+04 -1.91365E+04 -1.82763E+03 -8.07145E+03 -2.95473E+04
  2.05278E+04 -3.95460E+04  4.42378E+04 -1.89279E+04  4.14230E+04  1.84472E+04  1.40903E+04  4.07124E+04
 -1.56595E+04  3.08640E+04 -2.31564E+04  6.41840E+02 -8.27854E+03 -2.57670E+04  2.02757E+04 -3.10751E+04
  3.70362E+04 -7.08244E+03  3.11066E+04  2.25343E+04  1.50927E+04  4.15260E+04 -8.03109E+03  4.43203E+04
 -2.81129E+04  2.89051E+04 -3.66221E+04  8.49664E+03 -3.71782E+04 -1.46370E+04 -2.11726E+04 -3.40436E+04
  6.90513E+03 -3.32718E+04  2.87059E+04 -1.26688E+04  2.65645E+04  1.12464E+04  2.83643E+03  1.76378E+04
 -1.31837E+04  6.60693E+03 -9.53680E+03 -8.00614E+03  6.62781E+03 -9.67724E+03  1.75724E+04  6.16458E+03
  1.23793E+04  2.15293E+04 -6.83081E+03  2.31486E+04 -2.10154E+04  8.93952E+03 -2.45603E+04 -6.21114E+03
 -1.62556E+04 -1.63291E+04 -4.98214E+03 -1.60027E+04  3.84130E+03 -1.36416E+04  1.18224E+04 -1.35680E+04
  2.06502E+04 -1.11965E+04  2.75264E+04  6.57759E+02  2.02354E+04  1.61113E+04  4.12827E+03  3.14805E+04
 -1.58597E+04  2.65666E+04 -2.56236E+04  9.26199E+03 -1.95699E+04 -1.02532E+04 -3.63785E+03 -1.45059E+04
  2.94789E+03 -4.57609E+03 -2.32396E+03  5.35197E+03 -1.25526E+04  5.27060E+03 -1.24675E+04 -4.63143E+03
 -8.68233E+03 -1.47998E+04  4.07730E+03 -1.85045E+04  1.25523E+04 -1.36899E+04  1.41555E+04 -1.14177E+03
  8.09254E+03  1.01693E+04 -7.69665E+02  1.49399E+04 -9.85215E+03  7.99973E+03 -1.51988E+04 -3.38514E+03
 -1.07761E+04 -1.32154E+04 -1.21599E+03 -1.82642E+04  8.18216E+03 -1.45863E+04  1.59321E+04 -6.91427E+03
  1.37202E+04  1.69103E+02  9.60635E+03  3.60139E+03  4.87067E+03  3.70256E+02  6.57898E+03 -1.08818E+03
  1.31022E+04  2.75299E+03  1.37065E+04  1.19559E+04  8.37310E+03  2.38381E+04 -3.38778E+03  2.50174E+04
 -1.52540E+04  1.91576E+04 -2.27821E+04  8.22055E+03 -2.32586E+04 -1.75212E+03 -2.03142E+04 -1.32015E+04
 -9.68066E+03 -1.88367E+04  5.84517E+03 -1.86518E+04  1.53997E+04 -1.01010E+04  1.49911E+04  3.17219E+03
  6.22440E+03  1.08221E+04 -6.70436E+03  9.53846E+03 -1.35298E+04  2.89912E+03 -9.61138E+03 -7.82265E+03
  4.65385E+02 -1.19085E+04  5.42827E+03 -9.22776E+03  7.54258E+03 -1.50991E+03  9.40815E+02  4.80251E+03
 -5.10410E+03  1.22884E+03 -3.21112E+03 -4.39647E+03  7.92415E+02 -9.38119E+03  7.15707E+03 -9.44670E+03
  1.13981E+04 -4.23289E+03  1.07322E+04  2.70734E+03  9.26200E+03  8.68777E+03  4.53477E+03  1.28209E+04
 -1.45454E+03  1.46964E+04 -8.68499E+03  9.66436E+03 -1.01443E+04  2.53655E+03 -8.13971E+03 -1.50560E+03
 -4.34353E+03 -3.56615E+03 -5.44149E+02  1.31150E+03 -2.03324E+03  2.50012E+03 -3.10133E+03  3.92127E+03
 -7.34807E+03 -5.83187E+02 -8.13035E+03 -6.08589E+03 -3.82115E+03 -1.04776E+04  3.09069E+03 -7.98132E+03
  6.47575E+03 -3.40574E+03  5.20698E+03  1.73821E+03  4.67260E+02  3.29000E+03 -2.90804E+03  2.46263E+01
 -2.99708E+03 -4.78522E+03 -8.63641E+02 -5.99011E+03  3.28072E+03 -7.12783E+03  9.24006E+03 -4.00178E+03
  1.07842E+04  3.05296E+02  8.25434E+03  5.35482E+03  1.61915E+03  7.84516E+03 -4.77650E+03  7.90871E+03
 -6.27217E+03  3.00692E+03 -3.01950E+03 -8.20017E+02  1.40634E+03 -1.48765E+03  4.49880E+03 -1.00095E+03
  3.26141E+03  3.02874E+03  1.46670E+03  5.45813E+03 -4.29495E+03  6.22967E+03 -6.87456E+03  1.78346E+03
 -4.23026E+03 -3.37190E+03  9.44970E+02 -6.04313E+03  3.35188E+03 -3.12752E+03  3.23163E+03  1.24797E+03
  3.63858E+02  3.39436E+03 -3.62163E+03  3.94180E+03 -3.76200E+03  2.14084E+03 -3.73247E+03 -4.07069E+02
 -3.06107E+03 -5.01910E+03  9.30820E+02 -6.52720E+03  5.02563E+03 -4.34952E+03  5.53077E+03  1.08354E+03
  4.15457E+03  4.61550E+03  1.22526E+02  6.34765E+03 -4.62177E+03  3.88752E+03 -4.82223E+03 -2.60716E+02
 -5.38776E+03 -4.27034E+03 -2.10307E+03 -4.86591E+03  1.92359E+03 -4.44823E+03  2.58961E+03 -3.30404E+03
  2.56701E+03  1.04036E+02  3.97635E+01  1.58084E+03  9.63600E+02  4.06134E+02  3.88366E+01 -1.34887E+03
  2.81320E+03 -6.57180E+02  3.68914E+03  8.48874E+02  4.71972E+03  2.38085E+03  4.84494E+03  5.93254E+03
 -9.95842E+02  7.06070E+03 -7.03662E+03  4.95470E+03 -8.41728E+03  1.19969E+03 -6.85569E+03 -2.13485E+03
 -3.49117E+03 -5.50406E+03 -5.99635E+02 -4.40342E+03  2.25359E+03 -1.52085E+03  1.35397E+03 -1.91301E+03
  1.03956E+03 -1.78532E+03  1.92900E+03 -2.01134E+03  2.91929E+03 -1.26291E+03  2.98205E+03  1.14561E+02
  4.19875E+03  8.27251E+02  8.33116E+02  3.39394E+03 -1.65838E+03  2.30569E+03 -4.14351E+03  1.99693E+03
 -3.99508E+03 -1.02847E+03 -1.57293E+03 -2.65127E+03  4.01810E+02 -3.77329E+03  2.88431E+03 -4.88975E+03
  3.61384E+03 -2.42531E+03  5.05881E+03  4.40081E+01  3.80491E+03  3.36889E+03  8.23643E+02  4.55290E+03
 -1.65776E+03  5.34325E+03 -2.74521E+03  1.59269E+03 -1.49903E+03 -5.21943E+02 -4.64580E+02 -7.70346E+02
 -4.26169E+02  4.65392E+02 -8.62813E+02  1.85222E+03 -2.62523E+03  9.79677E+02 -3.65033E+03 -1.01971E+03
 -7.77627E+02 -3.32166E+03  1.07033E+03 -3.94173E+03  2.31091E+03 -3.67812E+03  2.58393E+03 -8.78266E+02
  2.94044E+03  1.55892E+03  1.59933E+03  1.96235E+03 -2.15758E+02  3.68411E+03 -2.25310E+03  2.55686E+03
 -3.38210E+03  5.16383E+02 -2.47689E+03 -2.13278E+03 -2.93727E+02 -2.32202E+03  1.07854E+03 -1.71780E+03
  2.00539E+03 -1.22453E+03  9.17139E+02  1.72123E+02  5.04280E+02  1.28696E+03  1.12009E+03  1.15965E+02
  1.51001E+03  3.34306E+02  1.10851E+03  1.04248E+03  7.98201E+02  1.98747E+03  1.31096E+03  1.27450E+03
 -1.04259E+03  2.43885E+03 -1.40048E+03  4.01319E+03 -1.94603E+03  1.13789E+03 -3.18604E+03  1.22168E+02
 -1.34383E+03 -2.19838E+03  6.86050E+02 -4.21225E+03  1.42767E+03 -1.70045E+03  2.10048E+03 -3.99697E+02
  2.30305E+03  1.58278E+03  2.68359E+02  2.20997E+03 -1.65741E+01  7.90704E+02 -1.18056E+03 -2.45627E+02
 -4.58704E+02 -8.39879E+02  1.50941E+03 -9.34626E+02  8.04828E+02 -9.76561E+02  1.03043E+03  6.38154E+02
  4.58663E+02  3.73697E+02  7.42262E+02 -5.73799E+02 -4.01027E+02  8.34486E+02  1.44248E+03  1.33941E+02
  1.38926E+02 -1.84420E+02  1.07786E+03  4.31036E+02  2.06838E+02  2.25354E+03 -4.45660E+01  2.21171E+03
 -1.31187E+03  3.54319E+02 -1.78965E+03 -7.96332E+01 -1.67565E+03 -9.39853E+02 -5.88951E+01 -5.23608E+02
  4.21508E+02 -1.39944E+03  5.28613E+02 -3.01395E+02  6.19881E+02  1.59366E+03 -6.93223E+02  4.77031E+02
 -1.41460E+03 -1.19026E+02 -6.99410E+02 -1.18671E+03 -3.78241E+02 -1.37815E+03 -1.09093E+02 -1.19207E+03
  2.90148E+02 -3.55831E+02  5.18708E+02  5.57063E+02  1.07079E+03 -2.71990E+02  4.99804E+02  9.99053E+02
  1.48733E+01 -2.74009E+02 -7.71795E+02  1.09024E+02  3.04363E+02 -3.82681E+02  1.01853E+03 -6.89143E+02
  8.57286E+02 -4.17167E+02  2.50276E+03  4.38780E+02  9.32347E+02  5.93051E+02 -1.66314E+02  1.34053E+03
 -9.19699E+02 -4.41547E+01 -1.07812E+03  5.41278E+01 -5.48351E+01 -1.07161E+03  7.46492E+01 -5.15492E+02
  8.56371E+02 -3.09637E+02  5.13120E+02  8.75383E+02 -4.85602E+01  1.20966E+03 -5.90316E+01  4.45676E+02
 -3.01607E+02  1.32598E+03 -2.02519E+02 -1.39742E+02 -1.03297E+02  2.00098E+02 -5.40442E+02  6.97537E+02
 -5.31461E+02  1.25811E+03 -1.51101E+03  3.31173E+02 -1.45759E+03  3.32580E+02 -1.70167E+03 -8.64410E+02
 -9.31916E+02 -1.14545E+03  9.04037E+02 -2.18770E+03  7.04625E+02 -1.56940E+03  2.29057E+03 -9.16437E+02
  1.96884E+03 -6.12662E+02  6.59268E+02  7.92360E+02 -4.86824E+02  9.77404E+02 -3.03272E+02  1.24631E+03
 -8.98356E+02  9.59717E+02 -8.17109E+02 -4.94967E+02 -3.54883E+02  4.01790E+02 -9.76006E+02  1.05280E+02
 -8.80514E+02  6.75500E+01 -5.18073E+02  9.31626E+01  3.52388E+02 -2.76483E+02 -3.96758E+02 -5.55511E+02
  9.32241E+02 -7.88396E+02 -4.56464E+02  2.35507E+02  8.01918E+02  1.05062E+03 -3.60895E+02  1.43008E+03
 -9.13117E+02  1.55413E+03 -7.81653E+02  1.40588E+03 -1.37973E+03 -1.11718E+02 -3.92391E+02 -1.07530E+03
 -1.03670E+03 -6.89972E+02 -8.32480E+01 -7.43653E+02  2.54247E+02 -1.21216E+02  3.46480E+02  1.68732E+01
  1.27805E+02  5.70928E+02  3.46569E+02 -7.21219E+01 -6.52222E+02  2.01344E+02  6.78035E+02  1.92477E+02
  9.51359E+02  7.63768E+02 -2.26181E+02  5.39784E+02  2.09688E+02 -2.05124E+02  8.47844E+02 -1.81112E+02
  1.94263E+02  2.55119E+02 -6.26571E+02  1.58056E+02 -3.59871E+02  2.38896E+02  3.81666E+02 -8.68980E+02
  3.46490E+02 -2.33168E+02  5.94911E+01  3.77064E+02  6.95321E+02 -1.25299E+03 -1.21535E+00  6.48651E+02
  5.08992E+02 -1.82936E+02 -4.11899E+02  5.02086E+02  2.81210E+02  6.97899E+02 -6.14747E+02  2.87547E+02
 -1.31684E+02 -1.24879E+02 -1.47754E+02  3.66059E+02 -4.91071E+02  5.34559E+01 -4.72415E+02 -1.89466E+02
 -7.84779E+02 -4.82743E+01 -7.31670E+02 -1.98452E+02  3.86521E+02 -1.29753E+03  8.27123E+02  1.91885E+02
  8.36261E+01  2.90601E+02 -5.42090E+02 -7.56986E+01  3.08341E+02  8.67226E+02 -4.24970E+00  1.44141E+02
