 $NMID ID='MM_0lb_SNR400_13hz_g60_34.RAW', FMTDAT='(8E13.5)'
 TRAMP=1., VOLUME=1. $END
  3.09799E+05  4.65519E+02  3.38336E+05  2.51009E+05  8.50058E+04  3.37960E+05 -1.31916E+05  2.51819E+05
 -1.90084E+05  8.35093E+04 -1.12732E+05 -3.21973E+04  1.28470E+03 -5.09209E+04  5.39491E+04 -1.76176E+02
  3.54946E+04  5.23744E+04 -1.66173E+04  7.61677E+04 -6.04571E+04  6.37777E+04 -8.49430E+04  3.16664E+04
 -8.18748E+04 -1.12536E+04 -5.76083E+04 -5.15254E+04 -1.47533E+04 -7.03394E+04  2.72616E+04 -4.59283E+04
  4.03692E+04  3.93264E+03  1.67758E+04  4.82541E+04 -3.48030E+04  4.74953E+04 -6.82245E+04  2.30117E+02
 -5.44852E+04 -5.75968E+04 -7.34055E+03 -7.76628E+04  3.41608E+04 -5.62540E+04  4.93088E+04 -1.78380E+04
  4.41619E+04  1.17237E+04  3.27283E+04  2.55354E+04  1.58480E+04  2.98540E+04 -5.27465E+03  2.80216E+04
 -2.28040E+04  1.20070E+04 -1.80313E+04 -5.45548E+03  6.37976E+03 -8.61186E+03  2.32039E+04  1.27241E+04
  7.41593E+03  3.71951E+04 -3.32090E+04  3.66185E+04 -6.52304E+04  1.80029E+03 -5.83072E+04 -4.41296E+04
 -1.28802E+04 -6.48129E+04  3.99439E+04 -4.66086E+04  6.01427E+04 -2.11414E+03  3.57090E+04  3.35859E+04
 -5.47231E+03  3.80950E+04 -3.10634E+04  1.74841E+04 -3.17415E+04 -4.31574E+03 -1.75406E+04 -1.11000E+04
 -8.32803E+03 -1.44343E+04 -1.12584E+03 -1.89881E+04  8.60551E+03 -2.32325E+04  1.57366E+04 -1.31282E+04
  1.10443E+04  5.58127E+03 -9.33565E+03  1.34197E+04 -2.21321E+04 -5.61031E+03 -8.73175E+03 -3.51136E+04
  2.35345E+04 -4.60825E+04  4.96080E+04 -2.01636E+04  4.70716E+04  2.00511E+04  1.67114E+04  4.54185E+04
 -1.64925E+04  3.43361E+04 -2.63437E+04  2.09136E+03 -1.11638E+04 -2.79314E+04  2.17687E+04 -3.54900E+04
  4.33162E+04 -9.65649E+03  3.77563E+04  2.37772E+04  1.93375E+04  4.88496E+04 -8.44512E+03  5.33252E+04
 -3.39353E+04  3.58570E+04 -4.48445E+04  1.06693E+04 -4.43156E+04 -1.67398E+04 -2.47641E+04 -3.99001E+04
  7.62458E+03 -3.94211E+04  3.32309E+04 -1.53122E+04  3.10099E+04  1.14851E+04  4.82434E+03  2.00732E+04
 -1.39691E+04  8.84984E+03 -1.03149E+04 -7.48324E+03  5.70656E+03 -1.11941E+04  1.88701E+04  5.89963E+03
  1.33358E+04  2.23537E+04 -6.48425E+03  2.64336E+04 -2.29131E+04  1.27917E+04 -2.95663E+04 -3.30826E+03
 -2.31079E+04 -1.77891E+04 -9.74001E+03 -2.28516E+04  4.28528E+03 -2.27355E+04  1.75002E+04 -2.08826E+04
  2.89972E+04 -1.37591E+04  3.54520E+04  3.74982E+03  2.55806E+04  2.25697E+04  4.09946E+03  3.85765E+04
 -1.85024E+04  3.19973E+04 -2.77983E+04  1.03144E+04 -2.15841E+04 -9.78192E+03 -4.79599E+03 -1.35019E+04
  1.80036E+03 -1.91014E+03 -6.56900E+03  7.72093E+03 -1.76134E+04  4.49236E+03 -1.75995E+04 -8.67094E+03
 -1.10264E+04 -2.12367E+04  5.76917E+03 -2.46189E+04  1.72020E+04 -1.72152E+04  2.02706E+04 -2.20701E+03
  1.31842E+04  1.44226E+04 -1.05931E+03  2.10552E+04 -1.44803E+04  1.21368E+04 -2.08953E+04 -4.25855E+03
 -1.53430E+04 -1.88275E+04 -1.67744E+03 -2.52814E+04  1.15659E+04 -2.04600E+04  2.10206E+04 -1.06922E+04
  1.93312E+04  6.61065E+01  1.44327E+04  4.87765E+03  7.67641E+03  1.47387E+03  1.12264E+04 -1.39178E+03
  1.93710E+04  3.22690E+03  2.21962E+04  1.64885E+04  1.52514E+04  3.33041E+04 -3.12246E+03  3.83281E+04
 -2.31037E+04  3.13724E+04 -3.58511E+04  1.68104E+04 -3.78206E+04 -2.16240E+03 -3.19992E+04 -2.21714E+04
 -1.27529E+04 -3.15235E+04  1.06582E+04 -2.79811E+04  2.45664E+04 -1.41878E+04  2.14462E+04  6.15749E+03
  7.64081E+03  1.65911E+04 -9.68784E+03  1.42498E+04 -1.78079E+04  2.42404E+03 -1.33943E+04 -1.08572E+04
 -1.97545E+02 -1.66455E+04  9.00045E+03 -1.26760E+04  1.11198E+04 -1.43244E+03  2.85109E+03  7.77327E+03
 -7.81529E+03  3.61450E+03 -7.41434E+03 -5.98810E+03 -8.43396E+02 -1.49541E+04  1.01513E+04 -1.62497E+04
  1.86850E+04 -9.23802E+03  2.07432E+04  2.63284E+03  1.81069E+04  1.52441E+04  9.53226E+03  2.31449E+04
 -3.81279E+03  2.58599E+04 -1.64044E+04  1.59138E+04 -1.84059E+04  3.23986E+03 -1.31235E+04 -4.23124E+03
 -5.51683E+03 -5.97649E+03 -7.24754E+02  3.02094E+02 -2.52060E+03  3.10361E+03 -6.48057E+03  4.58219E+03
 -1.17850E+04 -1.14960E+03 -1.32169E+04 -1.02006E+04 -5.70144E+03 -1.69852E+04  5.06388E+03 -1.26959E+04
  1.05293E+04 -5.56255E+03  8.56206E+03  2.91796E+03  2.51135E+02  5.14716E+03 -6.62743E+03  4.43501E+02
 -6.36530E+03 -7.90189E+03 -8.55464E+02 -1.20927E+04  6.98725E+03 -1.38813E+04  1.64527E+04 -7.11167E+03
  1.87127E+04  1.89705E+03  1.39362E+04  1.17921E+04  2.31278E+03  1.46566E+04 -7.15146E+03  1.25451E+04
 -1.01483E+04  3.89993E+03 -5.43264E+03 -2.69262E+03  1.85439E+03 -3.13770E+03  6.46237E+03 -8.22132E+02
  6.15850E+03  5.70502E+03  5.83645E+02  1.02004E+04 -7.51848E+03  1.04544E+04 -1.24160E+04  2.03087E+03
 -8.33032E+03 -6.14493E+03  6.50535E+02 -1.11542E+04  6.69336E+03 -5.44392E+03  6.51542E+03  2.61998E+03
  1.30760E+03  6.49378E+03 -5.96526E+03  8.90627E+03 -9.65895E+03  4.23224E+03 -1.02670E+04 -2.82491E+03
 -5.84687E+03 -1.15613E+04  2.67064E+03 -1.32590E+04  1.14392E+04 -8.61520E+03  1.21448E+04  2.55641E+03
  7.52486E+03  1.02189E+04 -7.31260E+02  1.17036E+04 -8.74731E+03  6.27720E+03 -1.01781E+04 -1.01106E+03
 -8.31129E+03 -8.64085E+03 -1.57048E+03 -9.06616E+03  4.64306E+03 -8.03280E+03  5.88990E+03 -3.60705E+03
  3.88267E+03  1.83604E+03 -4.99692E+02  1.78323E+03  3.29354E+02 -2.34031E+03  1.38175E+03 -5.04543E+03
  8.61960E+03 -2.79706E+03  1.10761E+04  1.18615E+03  1.16429E+04  7.90412E+03  7.65083E+03  1.57535E+04
 -3.54782E+03  1.72226E+04 -1.40121E+04  1.28507E+04 -1.87268E+04  2.04424E+03 -1.50018E+04 -6.27796E+03
 -7.89041E+03 -1.26848E+04 -8.79748E+02 -1.01900E+04  3.77029E+03 -6.33410E+03  4.11351E+03 -3.82679E+03
  2.69424E+03 -2.36294E+03  3.20034E+03 -3.09135E+03  4.03503E+03 -2.50289E+03  5.90786E+03 -5.26207E+02
  7.63854E+03  2.32084E+03  3.61144E+03  6.75922E+03 -1.03281E+03  6.98495E+03 -8.01744E+03  5.39211E+03
 -1.02360E+04 -3.74541E+02 -6.02405E+03 -6.43060E+03  1.82996E+02 -1.07212E+04  6.25354E+03 -1.08737E+04
  1.19068E+04 -6.55721E+03  1.42182E+04  1.56109E+03  9.60760E+03  9.54937E+03  1.72591E+03  1.28410E+04
 -5.08097E+03  1.00697E+04 -6.84930E+03  3.99597E+03 -4.70989E+03 -1.40079E+03 -1.75387E+03 -1.58858E+03
 -9.74168E+02  8.11627E+02 -1.71963E+03  2.09772E+03 -4.71511E+03  2.30464E+03 -6.71823E+03 -1.42614E+03
 -4.10302E+03 -7.32396E+03  7.76658E+02 -9.42555E+03  6.24811E+03 -9.30550E+03  8.97222E+03 -2.91182E+03
  9.22967E+03  4.89333E+03  4.49751E+03  8.95090E+03 -1.94139E+03  1.04489E+04 -6.93899E+03  5.91178E+03
 -8.96550E+03  6.29976E+02 -5.89863E+03 -5.58303E+03 -7.80141E+02 -7.92868E+03  4.04599E+03 -5.64573E+03
  6.50067E+03 -1.90743E+03  3.91814E+03  1.37873E+03  1.43273E+03  3.73703E+03  8.21804E+02  9.65424E+02
  2.93017E+03  8.35249E+02  2.63973E+03  1.61747E+03  2.46368E+03  3.27879E+03  3.13774E+03  4.82282E+03
 -1.51485E+03  7.20050E+03 -6.44677E+03  8.22598E+03 -8.98000E+03  2.02462E+03 -1.04076E+04 -3.52043E+03
 -4.98701E+03 -9.51952E+03  1.24473E+03 -1.10975E+04  5.68450E+03 -7.39661E+03  7.54229E+03 -1.64500E+03
  6.07512E+03  3.24945E+03  1.26434E+03  5.57177E+03 -2.86761E+03  2.82697E+03 -3.44223E+03 -8.52364E+02
 -1.38866E+03 -4.35851E+03  2.34526E+03 -4.14676E+03  4.53639E+03 -1.78531E+03  3.82485E+03  1.20699E+03
  1.68728E+03  1.53522E+03  1.37153E+03  1.53083E+03 -6.58839E+02  1.70990E+03  1.97654E+03 -4.96734E+02
  3.48422E+02 -6.28985E+02  3.42893E+03  1.57679E+03  1.57415E+03  5.28979E+03 -9.45013E+02  6.95045E+03
 -4.75210E+03  3.68874E+03 -5.63138E+03  1.00002E+02 -5.50852E+03 -2.33508E+03 -1.04910E+03 -3.55236E+03
  1.77794E+02 -3.12593E+03  2.24958E+03 -2.41399E+03  2.27396E+03  2.01291E+03 -9.74395E+02  2.75465E+03
 -3.68714E+03  2.28214E+03 -3.36687E+03 -1.90874E+03 -2.12488E+03 -5.34537E+03  1.29505E+03 -4.63107E+03
  2.91689E+03 -2.17364E+03  3.30658E+03  1.07729E+02  2.86066E+03  1.48357E+03  6.43483E+02  2.22631E+03
 -1.18347E+03  6.86627E+02 -2.29977E+03 -1.50280E+03  6.18591E+02 -3.24834E+03  3.93565E+03 -3.12478E+03
  4.77791E+03  2.09127E+02  5.63089E+03  3.44842E+03  2.14665E+03  5.14883E+03 -1.93729E+03  5.21605E+03
 -5.25642E+03  2.26029E+03 -4.97362E+03 -1.09381E+03 -2.41227E+03 -4.09152E+03  1.94113E+02 -2.47063E+03
  3.23667E+03 -2.13770E+03  3.19256E+03  1.56682E+03  8.23554E+02  3.01977E+03 -1.83329E+02  2.72482E+03
 -1.86262E+03  1.61287E+03 -8.37280E+02  7.79744E+02 -9.96571E+02  5.74567E+02 -1.21260E+03  3.42951E+02
 -7.76625E+02  1.46045E+03 -3.51028E+03  1.79694E+03 -4.94887E+03  4.90420E+02 -6.92132E+03 -3.13154E+03
 -3.25354E+03 -7.36742E+03  2.22034E+03 -8.39482E+03  4.28098E+03 -6.79491E+03  8.17034E+03 -2.54706E+03
  7.62803E+03  1.15828E+03  4.11294E+03  4.56801E+03  3.51574E+02  4.83076E+03 -1.85448E+03  4.14733E+03
 -3.11497E+03  1.57162E+03 -1.39278E+03 -7.51911E+02 -1.12610E+03  3.22732E+02 -6.48972E+02 -4.51672E+01
 -1.05642E+03 -2.30254E+02 -1.93114E+03 -1.22028E+02 -1.41669E+02 -1.22724E+03 -3.07030E+02 -1.98000E+03
  2.97414E+03 -2.05282E+03  3.52882E+03 -5.12799E+02  4.07782E+03  2.80524E+03  2.24050E+02  5.16641E+03
 -2.86424E+03  6.09024E+03 -5.15104E+03  3.24903E+03 -6.35398E+03 -1.64395E+02 -4.68481E+03 -4.42006E+03
 -2.21288E+03 -4.91005E+03  1.64439E+03 -4.10087E+03  3.00880E+03 -1.91708E+03  3.09506E+03  2.48411E+02
  1.97280E+03  1.52468E+03 -1.26858E+02  1.51395E+03 -8.34244E+02 -5.62019E+02 -6.08022E+01 -1.28140E+03
  1.57162E+03  1.02437E+02  1.67749E+03  9.94840E+02  1.10913E+03  1.90251E+03  1.19452E+01  1.61689E+03
 -2.26671E+03  1.69248E+03 -3.12113E+03  1.06676E+02 -2.30036E+03 -2.70369E+03 -2.51585E+02 -4.08678E+03
  2.18736E+03 -3.34120E+03  3.00386E+03 -1.34243E+02  3.09988E+03 -1.92275E+02  2.31395E+03  3.09418E+03
  3.29597E+02  2.38091E+03 -7.10040E+02  2.77257E+03 -2.04025E+03  1.29767E+03 -1.80595E+03  2.45702E+02
 -1.17716E+03 -3.80406E+02 -1.09896E+03  3.45525E+02 -1.44740E+03  2.28809E+02 -2.37468E+03 -7.92538E+02
 -3.02306E+03 -1.03140E+03 -1.03594E+03 -2.87527E+03  1.46549E+03 -3.02898E+03  3.24058E+03 -1.13386E+03
  2.49359E+03  4.91162E+00  1.54424E+03  1.89558E+03  3.40248E+02  2.91898E+03 -1.65770E+03  1.94446E+03
