 $NMID ID='MM_0lb_SNR400_13hz_g40_69.RAW', FMTDAT='(8E13.5)'
 TRAMP=1., VOLUME=1. $END
  3.09600E+05  3.67349E+02  3.36805E+05  2.49926E+05  8.49293E+04  3.38440E+05 -1.32623E+05  2.51045E+05
 -1.90219E+05  8.29192E+04 -1.11403E+05 -3.28092E+04  1.04973E+03 -4.99482E+04  5.33871E+04 -3.68868E+01
  3.51260E+04  5.28196E+04 -1.61661E+04  7.57195E+04 -6.06431E+04  6.37558E+04 -8.40755E+04  3.19669E+04
 -8.03811E+04 -1.10057E+04 -5.73226E+04 -5.10911E+04 -1.48596E+04 -6.88820E+04  2.74366E+04 -4.57556E+04
  3.97250E+04  4.07085E+03  1.59727E+04  4.83972E+04 -3.43316E+04  4.72361E+04 -6.58850E+04 -4.23153E+01
 -5.37816E+04 -5.66073E+04 -7.03125E+03 -7.66419E+04  3.33875E+04 -5.44415E+04  4.81537E+04 -1.77687E+04
  4.27822E+04  1.06856E+04  3.21302E+04  2.56057E+04  1.59521E+04  2.92572E+04 -5.41229E+03  2.69833E+04
 -2.23871E+04  1.24662E+04 -1.90388E+04 -5.02487E+03  5.60223E+03 -6.82325E+03  2.27719E+04  1.21244E+04
  7.89587E+03  3.56386E+04 -3.20114E+04  3.53573E+04 -6.38205E+04  1.57365E+03 -5.66609E+04 -4.30511E+04
 -1.30224E+04 -6.34300E+04  4.05289E+04 -4.47175E+04  5.82718E+04 -1.99762E+03  3.47357E+04  3.19759E+04
 -5.77436E+03  3.62723E+04 -3.04386E+04  1.62292E+04 -3.08395E+04 -4.24449E+03 -1.65059E+04 -1.13590E+04
 -8.41802E+03 -1.32693E+04 -5.06144E+02 -1.82477E+04  7.18193E+03 -2.29937E+04  1.56289E+04 -1.27289E+04
  1.24102E+04  5.78001E+03 -7.82151E+03  1.26844E+04 -2.05902E+04 -3.94790E+03 -8.00942E+03 -3.32385E+04
  2.32791E+04 -4.34989E+04  4.82486E+04 -1.93993E+04  4.50036E+04  1.94103E+04  1.57954E+04  4.33103E+04
 -1.63508E+04  3.29810E+04 -2.50350E+04  2.00631E+03 -9.37890E+03 -2.74231E+04  2.05582E+04 -3.41990E+04
  4.09464E+04 -8.98502E+03  3.57936E+04  2.31715E+04  1.80778E+04  4.59357E+04 -7.95592E+03  5.01382E+04
 -3.19983E+04  3.37934E+04 -4.21301E+04  9.39850E+03 -4.27671E+04 -1.65532E+04 -2.32824E+04 -3.79120E+04
  7.26481E+03 -3.80658E+04  3.10958E+04 -1.46392E+04  2.92250E+04  1.04663E+04  3.75330E+03  1.91343E+04
 -1.38375E+04  8.39074E+03 -1.04184E+04 -7.60548E+03  6.21078E+03 -1.09801E+04  1.82812E+04  5.65299E+03
  1.37251E+04  2.15388E+04 -5.92695E+03  2.46971E+04 -2.21180E+04  1.10608E+04 -2.79933E+04 -4.64227E+03
 -2.07972E+04 -1.72407E+04 -8.82398E+03 -2.08583E+04  3.79401E+03 -1.95789E+04  1.61688E+04 -1.80396E+04
  2.59024E+04 -1.26997E+04  3.21505E+04  3.31004E+03  2.40494E+04  1.96529E+04  4.46719E+03  3.69681E+04
 -1.76501E+04  2.94618E+04 -2.85894E+04  1.09126E+04 -2.10822E+04 -1.02227E+04 -4.69842E+03 -1.35362E+04
  1.74812E+03 -2.33222E+03 -4.82281E+03  6.27819E+03 -1.60837E+04  5.16698E+03 -1.66025E+04 -7.04045E+03
 -1.04317E+04 -1.98890E+04  5.03769E+03 -2.34003E+04  1.52107E+04 -1.66088E+04  1.78597E+04 -1.59824E+03
  1.13981E+04  1.36289E+04 -1.10564E+03  1.89689E+04 -1.30375E+04  1.02830E+04 -1.89023E+04 -3.43312E+03
 -1.39447E+04 -1.70137E+04 -2.22725E+03 -2.34292E+04  1.04852E+04 -1.88711E+04  1.88666E+04 -9.37336E+03
  1.76477E+04  3.42190E+02  1.31512E+04  4.09724E+03  7.40461E+03  1.03559E+03  9.61524E+03 -1.71355E+03
  1.72841E+04  2.58071E+03  1.99177E+04  1.54793E+04  1.25392E+04  3.03188E+04 -3.05358E+03  3.40837E+04
 -1.98505E+04  2.77248E+04 -3.24038E+04  1.38889E+04 -3.39001E+04 -2.65913E+03 -2.82825E+04 -1.96375E+04
 -1.19579E+04 -2.80661E+04  9.09822E+03 -2.51952E+04  2.18408E+04 -1.28667E+04  1.94900E+04  5.35373E+03
  6.89751E+03  1.42519E+04 -9.47429E+03  1.30342E+04 -1.63844E+04  2.03831E+03 -1.26293E+04 -1.06187E+04
 -3.02893E+02 -1.54675E+04  8.33860E+03 -1.16084E+04  1.03468E+04 -9.76859E+02  2.64073E+03  6.48098E+03
 -6.85438E+03  1.92447E+03 -5.97036E+03 -5.01830E+03 -7.08217E+02 -1.32813E+04  9.65457E+03 -1.37874E+04
  1.72183E+04 -8.20932E+03  1.87940E+04  3.16243E+03  1.62698E+04  1.34112E+04  7.73149E+03  2.09351E+04
 -3.02694E+03  2.23263E+04 -1.39257E+04  1.40807E+04 -1.59422E+04  2.69407E+03 -1.17413E+04 -3.84151E+03
 -5.38463E+03 -4.66848E+03 -8.70733E+02  1.90988E+03 -2.06168E+03  2.86395E+03 -5.75482E+03  4.36099E+03
 -1.05185E+04 -3.20046E+02 -1.13844E+04 -9.06408E+03 -4.42005E+03 -1.49350E+04  4.56796E+03 -1.16828E+04
  9.52643E+03 -4.10950E+03  7.11515E+03  2.74195E+03 -1.60240E+02  3.93062E+03 -4.96291E+03 -1.12885E+02
 -4.96131E+03 -6.88354E+03 -8.97783E+02 -1.03493E+04  6.07809E+03 -1.13662E+04  1.44694E+04 -5.95780E+03
  1.65240E+04  2.00272E+03  1.20806E+04  1.03376E+04  2.17902E+03  1.27844E+04 -6.96832E+03  1.15809E+04
 -1.00332E+04  4.01514E+03 -5.43921E+03 -2.78347E+03  2.33756E+03 -2.38849E+03  5.80989E+03 -1.18167E+03
  5.31662E+03  5.42540E+03  8.28561E+02  9.95550E+03 -6.17629E+03  8.82347E+03 -1.10980E+04  2.20767E+03
 -7.55672E+03 -6.00884E+03  2.56237E+02 -9.42391E+03  6.40018E+03 -4.62139E+03  6.10611E+03  2.29159E+03
  1.18051E+03  5.94075E+03 -6.31118E+03  7.69896E+03 -8.37534E+03  3.58412E+03 -8.21718E+03 -3.06265E+03
 -5.52525E+03 -9.30408E+03  2.42681E+03 -1.18600E+04  9.41439E+03 -7.37222E+03  1.03339E+04  2.08833E+03
  6.97690E+03  8.35534E+03 -1.66447E+03  1.04674E+04 -8.21276E+03  6.36427E+03 -8.56412E+03 -5.74096E+02
 -7.93831E+03 -7.53282E+03 -1.88171E+03 -8.26561E+03  4.20846E+03 -7.09915E+03  4.96618E+03 -3.31674E+03
  3.94266E+03  8.09363E+02  2.29119E+02  1.56699E+03 -5.51607E+02 -2.17459E+03  2.17414E+03 -4.52293E+03
  6.77041E+03 -2.74515E+03  9.61720E+03  1.09303E+03  9.94281E+03  6.54082E+03  7.44676E+03  1.30336E+04
 -2.47931E+03  1.54523E+04 -1.28770E+04  1.12186E+04 -1.61222E+04  2.25528E+03 -1.25003E+04 -5.47090E+03
 -6.04842E+03 -1.08506E+04 -5.28742E+02 -8.83383E+03  3.06477E+03 -4.42017E+03  3.84778E+03 -3.97342E+03
  2.72028E+03 -2.05751E+03  3.41912E+03 -3.01572E+03  4.69183E+03 -2.57817E+03  5.55918E+03 -2.49453E+02
  7.09734E+03  1.96698E+03  2.87722E+03  6.54756E+03 -1.71822E+03  6.60790E+03 -7.76581E+03  4.34914E+03
 -9.28887E+03 -1.49165E+03 -4.97152E+03 -5.98033E+03 -4.09579E+02 -8.64711E+03  4.43647E+03 -9.98152E+03
  9.86542E+03 -5.17246E+03  1.17698E+04  6.12113E+02  8.51844E+03  7.78107E+03  1.40581E+03  1.06680E+04
 -4.64752E+03  9.16769E+03 -5.84088E+03  3.13443E+03 -3.73790E+03 -1.78170E+03 -1.63790E+03 -1.53717E+03
 -6.00698E+02  4.54327E+02 -1.84336E+03  2.61674E+03 -3.70818E+03  1.82984E+03 -6.73807E+03 -1.00146E+03
 -3.88030E+03 -6.48088E+03  5.38406E+02 -8.79613E+03  5.01943E+03 -7.80093E+03  7.77397E+03 -2.81715E+03
  8.18405E+03  4.33202E+03  3.88518E+03  7.52100E+03 -1.73274E+03  9.32763E+03 -5.24120E+03  4.99137E+03
 -7.38291E+03  7.13583E+02 -6.37317E+03 -4.90304E+03 -2.26380E+02 -6.75189E+03  3.81367E+03 -5.12017E+03
  5.79297E+03 -2.14601E+03  3.93055E+03  7.73486E+02  9.64252E+02  2.61490E+03  1.45069E+03  1.12853E+03
  2.56834E+03  9.35558E+02  1.79090E+03  1.70943E+03  2.26906E+03  3.32569E+03  2.63309E+03  4.53349E+03
 -1.57742E+03  7.02800E+03 -4.90437E+03  7.17445E+03 -8.20334E+03  2.02136E+03 -8.71911E+03 -2.37181E+03
 -4.12546E+03 -8.15632E+03  1.59601E+03 -8.84799E+03  4.70649E+03 -5.39754E+03  6.86546E+03 -1.38718E+03
  5.18117E+03  2.57119E+03  1.44821E+03  5.22451E+03 -2.12777E+03  2.42120E+03 -3.19047E+03 -2.56344E+01
 -1.28477E+03 -3.78076E+03  1.76784E+03 -2.97336E+03  2.95311E+03 -1.62572E+03  3.38779E+03  8.61754E+02
  2.45023E+03  1.13466E+03  7.32227E+02  1.38609E+03 -1.11443E+03  1.42835E+03  1.81967E+03  2.19727E+02
  1.00552E+03 -1.28613E+02  3.57628E+03  1.67739E+03  1.90172E+03  4.91004E+03 -8.69841E+02  5.26834E+03
 -4.04723E+03  2.87630E+03 -5.17077E+03  8.87989E+02 -4.70505E+03 -2.07641E+03 -5.89162E+02 -2.62912E+03
  1.78847E+02 -3.66946E+03  1.78946E+03 -1.77063E+03  1.50884E+03  2.52293E+03 -1.17525E+03  2.74657E+03
 -2.89623E+03  1.93219E+03 -3.85121E+03 -1.97056E+03 -1.98149E+03 -4.59632E+03  7.24366E+02 -4.85802E+03
  2.10579E+03 -2.84475E+03  2.78929E+03 -5.26547E+02  2.83211E+03  1.05172E+03 -3.18607E+01  2.83993E+03
 -1.23542E+03  6.89590E+02 -2.09974E+03 -1.40033E+03  1.38722E+03 -2.58682E+03  3.99687E+03 -2.55051E+03
  5.10754E+03  5.69822E+02  5.56225E+03  2.80715E+03  1.50450E+03  4.80514E+03 -1.11115E+03  5.03900E+03
 -4.11101E+03  1.51497E+03 -4.52114E+03 -3.24579E+02 -2.76226E+03 -3.22280E+03  3.23010E+02 -2.89902E+03
  3.95663E+03 -1.46626E+03  2.60873E+03  1.51595E+03  7.03450E+02  2.27467E+03  2.76286E+02  2.19156E+03
 -1.40848E+03  1.52784E+03 -1.30694E+03  4.64944E+01 -2.45405E+02  1.20113E+03 -6.27765E+02  8.90915E+02
 -1.17037E+03  1.47651E+03 -3.24658E+03  1.94280E+03 -4.37576E+03  3.47834E+02 -5.85156E+03 -2.63920E+03
 -3.24554E+03 -6.24045E+03  1.25361E+03 -7.35591E+03  4.29155E+03 -5.13960E+03  7.18458E+03 -2.46963E+03
  6.13986E+03  1.11676E+03  4.01917E+03  4.74059E+03 -3.19677E+02  4.77296E+03 -1.88775E+03  3.79317E+03
 -3.13556E+03  1.66651E+03 -1.86970E+03 -2.42688E+02 -1.21490E+03  1.87904E+02 -9.18454E+02  6.50764E+01
 -1.48625E+03  2.36712E+01 -1.41137E+03 -4.81884E+02  1.20587E+02 -2.28319E+03 -3.26373E+02 -2.68524E+03
  1.98686E+03 -1.41803E+03  2.26645E+03  7.02119E+02  3.16558E+03  2.84077E+03  5.36798E+02  4.55262E+03
 -2.41614E+03  5.49877E+03 -5.01885E+03  3.44279E+03 -5.24076E+03 -1.15754E+03 -4.02413E+03 -3.76540E+03
 -1.67660E+03 -5.01310E+03  9.72444E+02 -4.41018E+03  2.79981E+03 -2.39184E+03  2.53752E+03  2.03204E+02
  1.80902E+03  1.39753E+03 -5.06408E+02  8.05487E+02 -5.75459E+02  5.02219E+01  3.63952E+01 -1.21957E+03
  1.23363E+03 -2.49288E+02  1.36407E+03  9.09623E+02  1.10890E+03  1.50661E+03  2.12811E+02  1.95512E+03
 -1.54805E+03  1.90184E+03 -2.35621E+03  7.61084E+02 -2.91279E+03 -2.76056E+03 -7.85731E+02 -3.81246E+03
  2.08962E+03 -3.04373E+03  3.36600E+03 -5.31608E+02  3.62343E+03 -1.84328E+02  1.69850E+03  2.81342E+03
  3.68959E+02  2.89608E+03 -1.45853E+03  2.33625E+03 -2.11943E+03  1.47496E+03 -1.87642E+03 -1.59581E+02
 -8.08140E+02 -4.95943E+02 -9.44953E+02  2.93706E+02 -1.81871E+03  4.93697E+02 -2.29618E+03 -7.27666E+02
 -2.27371E+03 -3.59835E+01 -9.27225E+02 -3.19523E+03  2.25752E+03 -3.40422E+03  2.58908E+03 -1.33274E+03
  2.85274E+03  5.86177E+02  9.05077E+02  1.64038E+03 -6.94355E+02  2.98825E+03 -1.89576E+03  1.79660E+03
