 $NMID ID='MM_0lb_SNR400_11hz_g55_61.RAW', FMTDAT='(8E13.5)'
 TRAMP=1., VOLUME=1. $END
  3.09080E+05  1.14556E+03  3.37596E+05  2.49965E+05  8.55840E+04  3.37980E+05 -1.33030E+05  2.51196E+05
 -1.91212E+05  8.41986E+04 -1.12820E+05 -3.25870E+04  8.70745E+02 -5.03774E+04  5.34749E+04 -7.98922E+02
  3.53224E+04  5.17576E+04 -1.70474E+04  7.60544E+04 -6.09609E+04  6.44149E+04 -8.53561E+04  3.26021E+04
 -8.16974E+04 -1.12709E+04 -5.73651E+04 -5.18687E+04 -1.42084E+04 -7.11170E+04  2.78083E+04 -4.67464E+04
  4.13236E+04  3.95706E+03  1.65090E+04  4.81420E+04 -3.42745E+04  4.72132E+04 -6.75986E+04 -3.14756E+02
 -5.43152E+04 -5.67908E+04 -7.26507E+03 -7.88145E+04  3.45864E+04 -5.67941E+04  4.90048E+04 -1.84386E+04
  4.51260E+04  1.13280E+04  3.23346E+04  2.56088E+04  1.53563E+04  3.02217E+04 -5.24946E+03  2.77684E+04
 -2.23092E+04  1.24097E+04 -1.76350E+04 -5.09574E+03  6.67312E+03 -7.53391E+03  2.26450E+04  1.34982E+04
  7.49589E+03  3.68651E+04 -3.25518E+04  3.69300E+04 -6.49584E+04  2.18002E+03 -5.79965E+04 -4.40101E+04
 -1.20439E+04 -6.54802E+04  4.06538E+04 -4.74223E+04  6.05611E+04 -2.69617E+03  3.70752E+04  3.40790E+04
 -5.48096E+03  3.92484E+04 -3.10867E+04  1.81601E+04 -3.26980E+04 -3.86719E+03 -1.87107E+04 -1.11195E+04
 -1.01881E+04 -1.48032E+04 -4.12490E+02 -1.97791E+04  8.25936E+03 -2.39073E+04  1.57290E+04 -1.29770E+04
  1.07395E+04  5.47162E+03 -9.27939E+03  1.28356E+04 -2.32737E+04 -5.96784E+03 -8.39413E+03 -3.63351E+04
  2.40942E+04 -4.53920E+04  5.07199E+04 -2.08545E+04  4.83266E+04  2.05383E+04  1.65703E+04  4.61064E+04
 -1.63137E+04  3.58751E+04 -2.73250E+04  2.11028E+03 -1.11736E+04 -2.83338E+04  2.15229E+04 -3.61386E+04
  4.32522E+04 -1.03763E+04  3.91630E+04  2.45036E+04  2.08043E+04  4.90292E+04 -8.52556E+03  5.46954E+04
 -3.48791E+04  3.66160E+04 -4.61827E+04  1.11400E+04 -4.57755E+04 -1.83489E+04 -2.50247E+04 -4.11462E+04
  7.51705E+03 -4.16296E+04  3.30750E+04 -1.61883E+04  3.12515E+04  1.02532E+04  4.95073E+03  1.99678E+04
 -1.32211E+04  9.17851E+03 -1.12029E+04 -7.51614E+03  5.31524E+03 -1.08564E+04  1.78734E+04  5.68865E+03
  1.45703E+04  2.26427E+04 -5.70156E+03  2.66313E+04 -2.32639E+04  1.38198E+04 -3.10463E+04 -3.79844E+03
 -2.40183E+04 -1.78822E+04 -1.03409E+04 -2.35754E+04  3.68565E+03 -2.37193E+04  1.83640E+04 -2.19811E+04
  3.03489E+04 -1.37075E+04  3.59283E+04  4.74794E+03  2.58601E+04  2.31597E+04  4.44806E+03  3.99084E+04
 -1.91155E+04  3.28834E+04 -2.93444E+04  1.14710E+04 -2.19044E+04 -1.00991E+04 -4.52113E+03 -1.31531E+04
  8.09858E+02 -1.95505E+03 -6.82975E+03  7.75960E+03 -1.93357E+04  4.98507E+03 -1.85687E+04 -8.74033E+03
 -1.16487E+04 -2.21463E+04  5.32470E+03 -2.60495E+04  1.71966E+04 -1.86129E+04  2.16411E+04 -1.36077E+03
  1.43347E+04  1.62340E+04 -1.69248E+03  2.22157E+04 -1.59632E+04  1.23297E+04 -2.28460E+04 -4.62073E+03
 -1.60375E+04 -1.96040E+04 -1.22026E+03 -2.64100E+04  1.14978E+04 -2.23295E+04  2.17347E+04 -1.05101E+04
  2.07920E+04 -9.55373E+01  1.49801E+04  4.67129E+03  8.57735E+03  1.03006E+03  1.16750E+04 -2.13780E+03
  2.09209E+04  2.74768E+03  2.38156E+04  1.68452E+04  1.61744E+04  3.57496E+04 -2.54577E+03  4.15091E+04
 -2.34710E+04  3.34125E+04 -3.94522E+04  1.81527E+04 -4.07809E+04 -2.64788E+03 -3.33226E+04 -2.34754E+04
 -1.42583E+04 -3.46601E+04  1.16716E+04 -2.97639E+04  2.58470E+04 -1.50501E+04  2.28559E+04  6.59018E+03
  7.35112E+03  1.74775E+04 -1.02662E+04  1.48194E+04 -1.89405E+04  2.77775E+03 -1.46535E+04 -1.14867E+04
  5.74829E+01 -1.81281E+04  9.87009E+03 -1.36956E+04  1.20886E+04 -1.21130E+03  2.73506E+03  7.93172E+03
 -8.68633E+03  3.59880E+03 -8.04035E+03 -6.49551E+03 -1.64323E+03 -1.73048E+04  1.08224E+04 -1.80106E+04
  2.09519E+04 -9.76681E+03  2.43653E+04  3.49369E+03  2.12823E+04  1.67577E+04  9.76816E+03  2.65936E+04
 -5.25260E+03  2.87616E+04 -1.88369E+04  1.76458E+04 -2.05741E+04  4.38993E+03 -1.39803E+04 -5.26854E+03
 -5.80618E+03 -6.79471E+03 -1.11506E+03  1.17258E+03 -3.09584E+03  3.00006E+03 -7.71691E+03  4.72185E+03
 -1.32606E+04 -1.00309E+03 -1.33521E+04 -1.07136E+04 -5.56493E+03 -1.80536E+04  5.97924E+03 -1.49348E+04
  1.12941E+04 -5.50097E+03  8.17709E+03  3.18311E+03  3.93416E+02  5.73575E+03 -5.79002E+03 -6.10700E+02
 -6.30840E+03 -8.66017E+03 -8.90518E+01 -1.35733E+04  7.65690E+03 -1.44769E+04  1.68332E+04 -7.74599E+03
  2.12525E+04  1.68368E+03  1.52089E+04  1.26079E+04  2.52965E+03  1.66836E+04 -8.92527E+03  1.38795E+04
 -1.15889E+04  3.87604E+03 -5.48102E+03 -2.84823E+03  1.45925E+03 -4.07316E+03  7.38257E+03 -1.24861E+03
  6.34278E+03  6.73329E+03  1.18648E+03  1.11646E+04 -8.16142E+03  1.06553E+04 -1.41204E+04  3.60375E+03
 -9.34038E+03 -7.52683E+03  2.20861E+02 -1.21758E+04  7.99384E+03 -5.29235E+03  8.60425E+03  2.82333E+03
  2.34041E+03  7.95932E+03 -7.37556E+03  1.07993E+04 -1.20642E+04  4.18710E+03 -1.23062E+04 -4.31730E+03
 -6.46577E+03 -1.44071E+04  3.52561E+03 -1.61600E+04  1.28668E+04 -9.59429E+03  1.47222E+04  2.90614E+03
  8.76782E+03  1.18776E+04 -8.24301E+02  1.45175E+04 -1.02446E+04  7.89640E+03 -1.10932E+04 -5.84766E+02
 -9.35441E+03 -9.55973E+03 -1.91017E+03 -9.80181E+03  5.20844E+03 -8.18682E+03  6.62270E+03 -3.67611E+03
  4.77062E+03  1.83908E+03 -1.10832E+03  1.86565E+03 -3.38305E+02 -2.61438E+03  2.06911E+03 -6.47275E+03
  9.72514E+03 -4.56687E+03  1.38276E+04  8.65381E+02  1.35241E+04  9.19463E+03  8.19406E+03  1.79301E+04
 -4.56154E+03  2.05191E+04 -1.73626E+04  1.48940E+04 -2.16941E+04  2.04200E+03 -1.78332E+04 -8.05762E+03
 -9.06550E+03 -1.50195E+04 -5.25056E+02 -1.25113E+04  4.35827E+03 -6.45694E+03  3.99112E+03 -4.98576E+03
  3.07601E+03 -2.72628E+03  3.48488E+03 -3.27483E+03  5.14837E+03 -3.76035E+03  6.66117E+03 -1.36785E+03
  9.95087E+03  1.37783E+03  4.59221E+03  8.15349E+03 -2.16210E+03  8.71095E+03 -9.90196E+03  6.79531E+03
 -1.22006E+04 -1.29470E+03 -7.39578E+03 -8.21569E+03 -1.83271E+03 -1.33140E+04  7.81023E+03 -1.31279E+04
  1.47608E+04 -6.98596E+03  1.63657E+04  1.61936E+03  1.16414E+04  1.09971E+04  1.82347E+03  1.46675E+04
 -5.96636E+03  1.23745E+04 -9.42072E+03  4.29813E+03 -6.56600E+03 -1.79690E+03 -2.39621E+03 -1.98822E+03
 -6.99470E+02  1.52295E+02 -2.07267E+03  2.22748E+03 -5.48512E+03  2.10671E+03 -8.19428E+03 -2.16496E+03
 -5.96983E+03 -8.46390E+03 -3.44814E+02 -1.23446E+04  7.51439E+03 -1.13841E+04  1.21225E+04 -2.71660E+03
  1.21018E+04  5.80934E+03  5.09278E+03  1.13258E+04 -2.63761E+03  1.26692E+04 -8.53099E+03  6.77957E+03
 -1.12863E+04  8.12376E+02 -8.77402E+03 -7.14719E+03 -1.05422E+03 -9.86127E+03  4.69711E+03 -7.88767E+03
  7.28731E+03 -2.90756E+03  6.04463E+03  2.08656E+03  1.78234E+03  3.80876E+03  1.73316E+03  2.06600E+03
  2.05940E+03  6.70335E+02  2.37337E+03  1.83440E+03  3.78007E+03  4.35534E+03  2.78411E+03  6.31533E+03
 -2.31989E+03  9.53789E+03 -7.64105E+03  9.83739E+03 -1.23631E+04  2.38243E+03 -1.29736E+04 -4.15664E+03
 -6.61982E+03 -1.28944E+04  2.05111E+03 -1.38820E+04  7.14841E+03 -8.32752E+03  9.70156E+03 -2.03799E+03
  7.36573E+03  4.01080E+03  1.45213E+03  6.73997E+03 -3.54942E+03  3.66731E+03 -5.17117E+03 -9.81475E+02
 -2.26320E+03 -5.00105E+03  2.97277E+03 -4.94745E+03  5.28334E+03 -3.18173E+03  4.39773E+03  1.00635E+03
  2.87575E+03  2.45054E+03  1.84141E+03  2.28020E+03 -7.72187E+02  1.35565E+03  1.40508E+03 -3.69200E+02
  1.35617E+03 -1.22984E+03  5.39214E+03  2.10013E+03  3.12790E+03  6.64807E+03 -1.48875E+03  9.07961E+03
 -5.44832E+03  5.47459E+03 -7.94956E+03  1.20201E+03 -7.04911E+03 -2.08437E+03 -2.36306E+03 -4.74583E+03
  7.03716E+02 -4.87867E+03  2.88424E+03 -2.57310E+03  2.75749E+03  2.54733E+03 -1.29600E+03  3.55693E+03
 -5.44311E+03  2.32860E+03 -5.31725E+03 -3.13585E+03 -3.65250E+03 -6.54126E+03  1.12490E+03 -6.85469E+03
  3.90632E+03 -3.37414E+03  4.39177E+03 -4.43052E+02  3.75442E+03  1.02522E+03  4.59569E+02  3.83463E+03
 -2.72971E+03  7.97115E+02 -3.38504E+03 -1.40131E+03  1.07905E+03 -4.90492E+03  5.05160E+03 -3.74378E+03
  6.92027E+03  4.60124E+02  7.38523E+03  4.92336E+03  2.45956E+03  8.40127E+03 -2.05407E+03  7.26016E+03
 -6.39728E+03  2.79048E+03 -7.11041E+03 -8.21975E+02 -3.82370E+03 -5.10217E+03  1.36701E+03 -4.90975E+03
  4.64739E+03 -2.19955E+03  4.16081E+03  1.77560E+03  1.59055E+03  4.43539E+03 -6.52696E+02  3.74017E+03
 -1.83301E+03  2.31683E+03 -2.81647E+03  1.08458E+03 -1.15021E+03  7.46832E+02 -1.29704E+03  1.70764E+03
 -1.77877E+03  3.04706E+03 -5.37795E+03  2.71992E+03 -7.07557E+03  1.00151E+03 -8.04222E+03 -5.55645E+03
 -4.82488E+03 -1.00457E+04  1.91471E+03 -1.06371E+04  6.84932E+03 -9.09307E+03  1.06120E+04 -3.88866E+03
  9.56438E+03  2.13979E+03  5.96599E+03  6.94088E+03  5.09569E+02  7.71510E+03 -3.53799E+03  5.83776E+03
 -4.23543E+03  1.70632E+03 -2.36661E+03 -1.46734E+03 -1.22315E+03 -1.00552E+03 -1.34126E+02 -4.23564E+02
 -1.37703E+03 -2.54031E+02 -2.55817E+03  2.56008E+02 -1.31435E+02 -1.63538E+03  3.13009E+02 -2.97038E+03
  3.61330E+03 -1.89082E+03  4.90684E+03 -1.98562E+02  5.48335E+03  3.89476E+03  1.74363E+03  7.11288E+03
 -4.24924E+03  8.87183E+03 -7.67500E+03  5.32404E+03 -9.62874E+03 -5.05111E+02 -6.37214E+03 -5.01415E+03
 -2.46623E+03 -7.37213E+03  1.58231E+03 -6.89722E+03  4.94532E+03 -3.98070E+03  4.93630E+03  3.14487E+02
  2.77259E+03  2.12276E+03 -3.66368E+02  2.09342E+03 -4.32095E+02 -3.47080E+02 -1.74610E+02 -2.56455E+03
  2.03095E+03 -8.10969E+02  3.10379E+03  1.12885E+03  2.04739E+03  2.83695E+03 -6.44648E+00  3.30073E+03
 -2.89438E+03  2.79707E+03 -4.97114E+03  4.64456E+02 -3.88017E+03 -2.68312E+03 -9.16836E+02 -6.01376E+03
  3.51181E+03 -5.26630E+03  6.04484E+03 -1.55367E+03  5.73478E+03  3.67151E+02  2.29098E+03  5.01513E+03
  3.44022E+02  4.42310E+03 -1.64733E+03  3.38797E+03 -2.68049E+03  2.17806E+03 -2.60351E+03  5.71122E+02
 -1.54077E+03  4.98085E+02 -1.05946E+03  8.84649E+02 -3.26346E+03  3.99583E+02 -3.41940E+03 -5.44638E+02
 -3.88679E+03 -2.16112E+03 -8.95754E+02 -4.71052E+03  2.72639E+03 -5.84998E+03  4.36255E+03 -2.51599E+03
  5.40963E+03  2.26141E+02  2.12636E+03  2.84025E+03  1.05690E+03  4.69583E+03 -3.34850E+03  2.70527E+03
