 $NMID ID='MM_0lb_SNR400_20hz_g50_61.RAW', FMTDAT='(8E13.5)'
 TRAMP=1., VOLUME=1. $END
  3.09787E+05  7.63051E+02  3.37257E+05  2.50642E+05  8.43977E+04  3.37221E+05 -1.32041E+05  2.50178E+05
 -1.89370E+05  8.22333E+04 -1.11028E+05 -3.28644E+04  1.34342E+03 -5.07542E+04  5.42051E+04  2.55450E+02
  3.52868E+04  5.24309E+04 -1.69471E+04  7.50429E+04 -6.01718E+04  6.26776E+04 -8.28724E+04  3.13043E+04
 -7.92776E+04 -1.14188E+04 -5.59163E+04 -5.01170E+04 -1.53497E+04 -6.83984E+04  2.67428E+04 -4.48717E+04
  3.92459E+04  3.44802E+03  1.44420E+04  4.65790E+04 -3.37093E+04  4.57190E+04 -6.52058E+04 -6.60458E+02
 -5.14904E+04 -5.59379E+04 -6.27726E+03 -7.48823E+04  3.27313E+04 -5.30137E+04  4.57054E+04 -1.61205E+04
  4.16696E+04  1.10425E+04  3.07615E+04  2.40197E+04  1.60769E+04  2.82518E+04 -5.11021E+03  2.66230E+04
 -2.18442E+04  1.31647E+04 -1.92186E+04 -3.79332E+03  4.28946E+03 -7.14752E+03  2.09552E+04  1.11709E+04
  7.42605E+03  3.31248E+04 -3.07095E+04  3.37648E+04 -6.06090E+04  2.36526E+03 -5.50209E+04 -4.10403E+04
 -1.25778E+04 -6.07610E+04  3.76371E+04 -4.31097E+04  5.51286E+04 -2.30112E+03  3.10521E+04  3.00185E+04
 -6.50776E+03  3.29883E+04 -2.81538E+04  1.32678E+04 -2.74982E+04 -5.29142E+03 -1.44809E+04 -1.02622E+04
 -6.96946E+03 -1.12088E+04 -1.06444E+03 -1.63184E+04  6.38133E+03 -2.25225E+04  1.49890E+04 -1.46732E+04
  1.21325E+04  3.72206E+03 -5.97948E+03  1.28476E+04 -1.89222E+04 -1.65250E+03 -8.24233E+03 -3.01129E+04
  2.10795E+04 -3.96788E+04  4.40979E+04 -1.86484E+04  4.18041E+04  1.79106E+04  1.39666E+04  4.15001E+04
 -1.50612E+04  3.10631E+04 -2.28750E+04  1.60565E+03 -7.45653E+03 -2.59559E+04  2.07529E+04 -3.07858E+04
  3.78696E+04 -6.79875E+03  3.05090E+04  2.29319E+04  1.46498E+04  4.17537E+04 -8.24569E+03  4.45664E+04
 -2.80801E+04  2.92652E+04 -3.70762E+04  8.12565E+03 -3.81643E+04 -1.46022E+04 -2.08968E+04 -3.39425E+04
  7.81840E+03 -3.35801E+04  2.88826E+04 -1.25776E+04  2.63502E+04  1.10505E+04  2.68114E+03  1.73868E+04
 -1.30226E+04  7.11007E+03 -9.15156E+03 -7.71873E+03  5.93520E+03 -1.00342E+04  1.68119E+04  6.52576E+03
  1.17337E+04  2.14695E+04 -6.68002E+03  2.32417E+04 -2.14169E+04  9.21223E+03 -2.45809E+04 -6.85539E+03
 -1.60981E+04 -1.58270E+04 -5.30608E+03 -1.61064E+04  4.00507E+03 -1.40603E+04  1.14826E+04 -1.38474E+04
  2.02647E+04 -1.12751E+04  2.71886E+04  7.60701E+02  2.06659E+04  1.55812E+04  3.73901E+03  3.21137E+04
 -1.61235E+04  2.68963E+04 -2.54596E+04  9.62536E+03 -1.88146E+04 -1.04095E+04 -3.92934E+03 -1.40541E+04
  2.50888E+03 -3.83475E+03 -2.75398E+03  4.78711E+03 -1.26588E+04  4.82014E+03 -1.30873E+04 -4.70974E+03
 -8.21717E+03 -1.50693E+04  4.31987E+03 -1.84743E+04  1.23742E+04 -1.39096E+04  1.43850E+04 -1.65275E+03
  8.42960E+03  1.01412E+04 -9.70826E+02  1.52000E+04 -9.95269E+03  8.48173E+03 -1.52555E+04 -3.45509E+03
 -1.11472E+04 -1.35697E+04 -1.63771E+03 -1.84095E+04  7.91535E+03 -1.43545E+04  1.57309E+04 -6.74721E+03
  1.40369E+04  5.23953E+02  9.73295E+03  2.99274E+03  5.73951E+03  9.13793E+02  6.95923E+03 -1.13477E+03
  1.34345E+04  2.73408E+03  1.45017E+04  1.23948E+04  7.91716E+03  2.38320E+04 -3.15354E+03  2.50010E+04
 -1.56293E+04  1.90694E+04 -2.26102E+04  8.87523E+03 -2.30312E+04 -1.80226E+03 -1.99641E+04 -1.30658E+04
 -9.45429E+03 -1.88139E+04  6.12875E+03 -1.86903E+04  1.58384E+04 -1.06871E+04  1.46037E+04  3.60953E+03
  6.30988E+03  1.05859E+04 -6.41595E+03  1.01342E+04 -1.29277E+04  2.48917E+03 -1.00912E+04 -7.45535E+03
  3.79336E+01 -1.17277E+04  5.56032E+03 -9.19065E+03  7.35251E+03 -1.04909E+03  1.09271E+03  4.82311E+03
 -5.22163E+03  9.65414E+02 -3.12977E+03 -4.45371E+03  1.45695E+02 -9.18578E+03  7.56411E+03 -8.80780E+03
  1.09143E+04 -3.76062E+03  1.03577E+04  2.90953E+03  9.25448E+03  8.51620E+03  4.88072E+03  1.28054E+04
 -1.63971E+03  1.45169E+04 -8.92074E+03  9.50895E+03 -1.06533E+04  2.84516E+03 -8.02531E+03 -1.22706E+03
 -4.39962E+03 -2.96178E+03 -9.55615E+02  1.96955E+03 -1.60946E+03  1.54609E+03 -3.55553E+03  2.97540E+03
 -7.13714E+03 -1.37156E+03 -8.04525E+03 -6.78306E+03 -3.50784E+03 -1.07986E+04  3.33738E+03 -7.78641E+03
  6.58442E+03 -3.31420E+03  4.67718E+03  1.98874E+03  5.94705E+02  2.44307E+03 -3.01856E+03  2.44074E+02
 -3.25677E+03 -4.61677E+03 -6.65384E+02 -6.45076E+03  3.34960E+03 -7.46353E+03  9.22076E+03 -3.12469E+03
  1.07528E+04  2.55592E+02  7.41365E+03  5.25077E+03  1.55516E+03  7.85555E+03 -4.73815E+03  7.73621E+03
 -6.29512E+03  2.80404E+03 -3.08283E+03 -7.90626E+02  9.09971E+02 -1.19102E+03  4.64459E+03 -8.78762E+02
  4.29654E+03  3.47587E+03  7.81719E+02  5.99229E+03 -3.70249E+03  6.14866E+03 -7.61540E+03  1.98379E+03
 -4.40158E+03 -3.63460E+03  7.60832E+02 -6.15854E+03  3.36247E+03 -3.08851E+03  2.59160E+03  5.96886E+02
  1.69249E+02  2.39073E+03 -3.69117E+03  4.38012E+03 -3.82975E+03  1.85189E+03 -4.01824E+03 -8.13894E+02
 -2.62147E+03 -5.15121E+03  1.22309E+03 -6.22566E+03  5.32260E+03 -3.98688E+03  6.08001E+03  5.48927E+02
  3.90609E+03  4.71515E+03  1.82481E+02  6.30282E+03 -4.43516E+03  3.36380E+03 -5.04738E+03 -1.10043E+02
 -5.67280E+03 -4.81770E+03 -1.42697E+03 -4.80250E+03  2.16056E+03 -4.40364E+03  2.30952E+03 -3.20691E+03
  3.15705E+03 -4.93677E+02  6.84008E+01  1.05858E+03  9.43850E+02 -7.57622E+01 -7.39172E+02 -1.03818E+03
  3.57906E+03  1.08444E+02  4.36268E+03  7.02636E+02  4.84854E+03  2.46470E+03  4.88850E+03  6.43066E+03
 -9.45507E+02  7.11161E+03 -6.23517E+03  5.55060E+03 -8.33315E+03  1.22171E+03 -7.04521E+03 -2.13067E+03
 -3.59626E+03 -5.84214E+03 -8.53239E+02 -4.84058E+03  2.49459E+03 -1.14322E+03  1.33606E+03 -1.91841E+03
  1.24003E+03 -1.58998E+03  2.49372E+03 -2.34018E+03  3.20218E+03 -8.55921E+02  3.05972E+03  2.20039E+02
  4.24646E+03  9.59821E+02  8.26573E+02  3.05408E+03 -1.34867E+03  2.13167E+03 -3.99285E+03  2.06523E+03
 -4.25465E+03 -1.28166E+03 -9.57457E+02 -2.77234E+03  5.51414E+02 -3.97093E+03  2.54651E+03 -4.58743E+03
  3.59424E+03 -2.95128E+03  5.80444E+03 -3.58040E+02  4.34481E+03  3.49619E+03  1.46081E+03  5.10544E+03
 -1.55631E+03  4.90529E+03 -2.71378E+03  1.78496E+03 -1.47995E+03 -1.20024E+03 -4.43415E+02 -5.27844E+02
 -7.20345E+02 -2.22672E+02 -2.85249E+02  1.76426E+03 -2.43088E+03  6.90255E+02 -3.21066E+03  1.76958E+02
 -1.26103E+03 -3.43228E+03  9.02902E+02 -3.85257E+03  2.15067E+03 -3.79041E+03  2.18211E+03 -9.21525E+02
  3.48538E+03  2.24593E+03  1.43393E+03  2.39264E+03 -8.27866E+02  3.27961E+03 -1.91291E+03  1.85067E+03
 -2.92008E+03  9.43939E+02 -2.59510E+03 -2.11924E+03 -9.74597E+01 -2.44338E+03  1.35357E+03 -1.68556E+03
  1.47306E+03 -1.77286E+03  1.38421E+03  4.54835E+02  9.45455E+02  1.90754E+03  8.74633E+02  6.04930E+02
  1.07970E+03  4.47559E+02  9.88947E+02  5.90348E+02  5.19633E+02  2.39013E+03  1.15632E+03  1.06827E+03
 -1.41410E+03  2.45520E+03 -1.75955E+03  3.34270E+03 -2.23962E+03  1.44801E+03 -3.41680E+03 -2.10880E+02
 -1.46016E+03 -3.11590E+03  4.22865E+02 -4.05976E+03  1.34596E+03 -2.02507E+03  2.11059E+03 -1.05335E+03
  2.05663E+03  1.37959E+03  7.73117E+02  1.82742E+03 -5.56965E+02  7.89205E+02 -1.09721E+03  2.11441E+02
 -2.78936E+01 -1.28908E+03  9.48149E+02 -1.12784E+03  9.76928E+02 -9.32632E+02  1.04131E+03  9.50699E+00
  4.08467E+02  3.50637E+02  3.58137E+02 -4.42688E+02 -3.55861E+02  7.66045E+02  1.45326E+03 -1.49856E+02
 -4.89958E+02 -4.32868E+02  1.50159E+03  1.86911E+02  2.73616E+02  2.16588E+03 -1.09453E+02  2.18530E+03
 -1.22070E+03  7.11075E+02 -1.40534E+03  1.28444E+02 -1.84065E+03 -6.19840E+02  4.62387E+01 -5.13497E+02
 -4.99780E+01 -1.02650E+03  1.03267E+03 -6.29133E+02  3.30746E+02  6.85287E+02 -9.40400E+02  8.53757E+02
 -1.00463E+03  3.30933E+02 -4.67452E+02 -1.11114E+03 -5.11650E+02 -1.54445E+03 -6.10883E+01 -1.35935E+03
  3.23484E+02 -6.51281E+01  2.66684E+02 -6.34564E+01  5.97547E+02 -7.40967E+01  6.09227E+02  9.30956E+02
 -5.84263E+02 -4.76344E+01 -8.75715E+02  4.85437E+02  6.09129E+02 -3.94084E+02  1.07619E+03 -5.98038E+02
  4.68586E+02  1.53275E+02  2.42267E+03  1.79589E+02  5.71341E+02  1.52040E+03 -2.05326E+02  1.49993E+03
 -1.20416E+03  3.28783E+02 -9.39867E+02 -3.59916E+02  1.45524E+02 -8.93795E+02  4.46221E+02 -3.08058E+02
  1.01235E+03 -6.14715E+02  3.05113E+02  3.53488E+02  9.10794E+01  7.38176E+02  4.19539E+02  9.88132E+02
  1.97308E+02  5.76999E+02 -1.49086E+02  1.45598E+02  3.83504E+02  2.03499E+02 -6.55345E+02  2.81498E+02
 -2.94468E+02  1.07259E+03 -1.11038E+03  2.71405E+02 -1.57418E+03  4.76215E+02 -2.29633E+03 -5.54874E+02
 -2.13719E+02 -1.52419E+03  3.23930E+02 -1.82846E+03  1.40370E+01 -1.93365E+03  2.23347E+03 -1.09959E+03
  1.99680E+03 -1.67925E+02  3.15895E+02  1.20976E+03 -3.32394E+02  9.13718E+02 -3.58113E+02  7.08260E+02
 -7.33620E+02  7.08747E+02 -1.76516E+02 -1.77912E+02 -3.97449E+02  5.22872E+02 -2.90766E+02  1.81049E+02
 -1.22749E+03 -3.97942E+02 -2.02884E+02  2.12282E+02  3.00383E+02 -9.39928E+01 -6.76026E+02 -6.21558E+02
  1.25590E+03  1.17000E+02  2.97624E+02  2.54429E+02  1.35123E+03  1.05328E+03 -7.39576E+02  6.48262E+02
 -6.48356E+02  1.51930E+03 -8.44253E+02  1.27131E+03 -9.05710E+02 -2.41277E+02 -5.90697E+02 -6.62799E+02
 -4.81115E+02 -1.17666E+03  4.64104E+02 -6.39122E+02  1.42246E+02 -3.40730E+02  4.57959E+02  6.70385E+01
  7.87685E+02  1.80627E+02 -2.78102E+02 -1.68659E+02 -4.51048E+01  2.66664E+02  1.67913E+02 -1.85545E+02
  8.95930E+01  2.76938E+02 -4.86346E+02  4.23219E+02  1.49784E+02  3.68660E+02  5.04882E+02  1.22140E+02
 -1.65206E+02 -6.02028E+01 -3.71666E+02 -3.48494E+00 -7.28882E+02 -2.28316E+02  5.19379E+02 -6.22886E+02
 -1.93048E+01 -1.56546E+02  7.92311E+02  2.63451E+02  8.08941E+02 -6.89810E+02  7.70821E+02 -6.32592E+01
  2.64771E+02 -3.95560E+01 -4.29443E+02  6.58609E+01 -6.29826E+02  4.48767E+02 -2.05062E+02  1.48824E+02
  2.13980E+01  3.40543E+02 -3.02318E+02  8.07022E+02  3.03613E+02 -7.13008E+02 -4.71013E+02 -3.88927E+02
 -8.38916E+02  2.09879E+02 -4.15270E+02 -6.04206E+02  1.10614E+03 -1.74514E+03  4.83205E+02  1.17600E+02
  6.95267E+02 -1.94420E+02 -1.01161E+03  1.10494E+02 -1.43947E+02  6.33857E+02 -6.37923E+01  3.03523E+02
