 $NMID ID='MM_0lb_SNR400_7hz_g40_95.RAW', FMTDAT='(8E13.5)'
 TRAMP=1., VOLUME=1. $END
  3.10258E+05  4.61631E+02  3.36848E+05  2.51603E+05  8.50779E+04  3.39215E+05 -1.32623E+05  2.52120E+05
 -1.91250E+05  8.40479E+04 -1.13130E+05 -3.26873E+04 -5.04380E+02 -5.02042E+04  5.29832E+04 -8.57511E+02
  3.48859E+04  5.31291E+04 -1.69701E+04  7.59151E+04 -6.13010E+04  6.48536E+04 -8.51185E+04  3.22768E+04
 -8.23999E+04 -1.20165E+04 -5.89558E+04 -5.25824E+04 -1.45002E+04 -7.13098E+04  2.76211E+04 -4.67801E+04
  4.09172E+04  3.39452E+03  1.67212E+04  4.89180E+04 -3.44427E+04  4.78461E+04 -6.80605E+04  6.14658E+02
 -5.49151E+04 -5.80533E+04 -7.66363E+03 -7.98345E+04  3.55156E+04 -5.67399E+04  5.00740E+04 -1.81239E+04
  4.58476E+04  1.12495E+04  3.32295E+04  2.65015E+04  1.59596E+04  3.12844E+04 -6.50577E+03  2.78551E+04
 -2.27017E+04  1.19489E+04 -1.77975E+04 -7.00714E+03  8.05826E+03 -7.46352E+03  2.32588E+04  1.29406E+04
  6.91644E+03  3.66703E+04 -3.44814E+04  3.68486E+04 -6.68060E+04  2.28829E+03 -5.90145E+04 -4.54868E+04
 -1.26827E+04 -6.70510E+04  4.17930E+04 -4.71934E+04  6.25251E+04 -3.01465E+03  3.74682E+04  3.54280E+04
 -5.19647E+03  3.93710E+04 -3.23080E+04  1.96013E+04 -3.43140E+04 -2.93280E+03 -1.99809E+04 -1.25478E+04
 -1.01852E+04 -1.51597E+04  6.86422E+02 -1.99822E+04  8.31253E+03 -2.35927E+04  1.60882E+04 -1.34695E+04
  1.01389E+04  5.77975E+03 -1.12815E+04  1.26638E+04 -2.36410E+04 -6.23307E+03 -8.23036E+03 -3.83078E+04
  2.53027E+04 -4.90901E+04  5.22818E+04 -2.18470E+04  4.97059E+04  2.15690E+04  1.64566E+04  4.79664E+04
 -1.76497E+04  3.73868E+04 -2.84438E+04  3.81226E+03 -1.18773E+04 -2.96397E+04  2.02879E+04 -3.74177E+04
  4.54622E+04 -1.11747E+04  4.19773E+04  2.62043E+04  2.25664E+04  5.17998E+04 -8.06312E+03  5.72783E+04
 -3.63606E+04  3.90396E+04 -4.81276E+04  1.14243E+04 -4.84867E+04 -1.92254E+04 -2.68060E+04 -4.28445E+04
  7.81108E+03 -4.41651E+04  3.54174E+04 -1.78118E+04  3.22030E+04  1.21635E+04  5.32353E+03  2.18771E+04
 -1.37679E+04  1.01629E+04 -1.10766E+04 -6.94328E+03  6.48298E+03 -1.17388E+04  1.95774E+04  5.16183E+03
  1.45893E+04  2.30979E+04 -5.67740E+03  2.73023E+04 -2.38809E+04  1.46627E+04 -3.24993E+04 -2.22965E+03
 -2.63758E+04 -1.93656E+04 -1.18393E+04 -2.62977E+04  3.97519E+03 -2.66500E+04  2.07420E+04 -2.46112E+04
  3.43622E+04 -1.45578E+04  3.94184E+04  5.19642E+03  2.75845E+04  2.53542E+04  5.29002E+03  4.23575E+04
 -2.14282E+04  3.51940E+04 -3.18955E+04  1.19752E+04 -2.26590E+04 -1.07131E+04 -5.65986E+03 -1.26922E+04
  6.45982E+02 -2.33843E+02 -8.05475E+03  8.89794E+03 -2.15322E+04  5.13599E+03 -2.12435E+04 -1.08092E+04
 -1.17918E+04 -2.49632E+04  5.87154E+03 -2.92920E+04  2.01821E+04 -2.07268E+04  2.37942E+04 -1.85977E+03
  1.48750E+04  1.70638E+04 -1.88114E+03  2.41761E+04 -1.74317E+04  1.42377E+04 -2.54296E+04 -5.42225E+03
 -1.71872E+04 -2.20444E+04 -2.52216E+03 -2.96541E+04  1.23612E+04 -2.49043E+04  2.43367E+04 -1.34519E+04
  2.41215E+04  1.30966E+02  1.60395E+04  5.61320E+03  9.70465E+03  1.45736E+03  1.35321E+04 -2.12094E+03
  2.31118E+04  2.52288E+03  2.75767E+04  1.91442E+04  1.84377E+04  3.93299E+04 -3.46285E+03  4.68157E+04
 -2.77369E+04  3.93422E+04 -4.49420E+04  2.05688E+04 -4.84219E+04 -3.69568E+03 -3.89420E+04 -2.81653E+04
 -1.56388E+04 -3.98601E+04  1.36516E+04 -3.39830E+04  2.97110E+04 -1.62907E+04  2.58435E+04  8.37488E+03
  7.68017E+03  1.97393E+04 -1.23865E+04  1.75066E+04 -2.15205E+04  2.80156E+03 -1.58035E+04 -1.44773E+04
 -2.86154E+02 -1.97152E+04  1.12580E+04 -1.53943E+04  1.43875E+04 -1.21473E+03  3.71193E+03  9.87920E+03
 -9.51687E+03  4.71211E+03 -9.47690E+03 -8.08132E+03 -1.98243E+03 -1.94423E+04  1.37606E+04 -2.20358E+04
  2.54465E+04 -1.30206E+04  2.94386E+04  2.90394E+03  2.54918E+04  1.95739E+04  9.78714E+03  3.31480E+04
 -6.47725E+03  3.50037E+04 -2.27409E+04  2.11519E+04 -2.40346E+04  4.37073E+03 -1.64810E+04 -6.72108E+03
 -7.82273E+03 -7.07484E+03 -4.55776E+02 -3.30268E+02 -3.96492E+03  3.84452E+03 -7.83260E+03  5.71539E+03
 -1.52713E+04 -1.32396E+03 -1.53957E+04 -1.27299E+04 -6.35545E+03 -2.13356E+04  7.13983E+03 -1.71829E+04
  1.32804E+04 -7.23326E+03  9.97552E+03  4.88624E+03 -1.14800E+03  7.60785E+03 -9.49901E+03  9.79912E+01
 -8.00662E+03 -1.04418E+04 -8.30883E+02 -1.60320E+04  1.01439E+04 -1.77702E+04  2.23812E+04 -9.47120E+03
  2.56419E+04  3.45754E+03  1.95840E+04  1.64117E+04  2.11591E+03  2.05416E+04 -1.08657E+04  1.69967E+04
 -1.37145E+04  5.40005E+03 -7.56996E+03 -3.98391E+03  1.90487E+03 -5.66829E+03  8.09670E+03 -6.24498E+02
  8.25696E+03  8.00944E+03  6.48420E+02  1.42472E+04 -1.05336E+04  1.31849E+04 -1.70665E+04  2.15914E+03
 -1.10954E+04 -9.19164E+03  9.99821E+02 -1.44557E+04  9.40780E+03 -7.64057E+03  9.96352E+03  4.05433E+03
  3.09846E+03  1.11235E+04 -9.30947E+03  1.35443E+04 -1.59581E+04  5.55945E+03 -1.62667E+04 -5.99296E+03
 -7.96735E+03 -1.73179E+04  4.91116E+03 -2.03180E+04  1.76255E+04 -1.20022E+04  1.96636E+04  3.89026E+03
  1.08950E+04  1.46248E+04 -1.43102E+03  1.80308E+04 -1.33861E+04  9.77200E+03 -1.41124E+04 -7.46149E+02
 -1.14142E+04 -1.20256E+04 -1.77487E+03 -1.33901E+04  7.10416E+03 -1.15325E+04  8.97782E+03 -4.55789E+03
  5.66017E+03  2.94011E+03 -1.06045E+03  2.17479E+03 -1.24492E+03 -4.35113E+03  2.71399E+03 -8.36629E+03
  1.38545E+04 -6.95114E+03  1.89527E+04  1.75300E+03  1.75121E+04  1.28857E+04  1.09138E+04  2.43026E+04
 -5.93512E+03  2.85616E+04 -2.23634E+04  2.01712E+04 -2.90522E+04  4.28619E+03 -2.43865E+04 -1.05995E+04
 -1.21824E+04 -1.93526E+04 -1.89537E+02 -1.69495E+04  6.17480E+03 -9.65229E+03  5.87472E+03 -6.65946E+03
  4.28391E+03 -3.83268E+03  4.04568E+03 -4.09896E+03  6.08942E+03 -3.40113E+03  9.81887E+03 -1.43583E+03
  1.25855E+04  1.40691E+03  6.52054E+03  1.00971E+04 -3.19392E+03  1.35527E+04 -1.35991E+04  1.05743E+04
 -1.68045E+04 -2.53790E+02 -1.19958E+04 -1.18789E+04 -2.35406E+03 -1.79423E+04  1.06459E+04 -1.85607E+04
  1.91585E+04 -1.16470E+04  2.26796E+04  3.57397E+03  1.63930E+04  1.56946E+04  2.37344E+03  2.00611E+04
 -8.64070E+03  1.70317E+04 -1.26469E+04  7.08057E+03 -8.25670E+03 -1.43422E+03 -3.46131E+03 -3.08726E+03
 -2.18744E+03 -1.08755E+03 -2.61262E+03  3.11306E+03 -7.23774E+03  3.02813E+03 -1.21519E+04 -1.28138E+03
 -8.74449E+03 -1.12971E+04 -2.69643E+02 -1.65334E+04  1.04986E+04 -1.67386E+04  1.74099E+04 -3.95634E+03
  1.77228E+04  8.32377E+03  8.00387E+03  1.61246E+04 -3.50257E+03  1.79449E+04 -1.24939E+04  1.10834E+04
 -1.67594E+04  9.93218E+02 -1.27376E+04 -1.07007E+04 -2.13397E+03 -1.52910E+04  8.79357E+03 -1.13088E+04
  1.21056E+04 -3.59811E+03  7.22464E+03  2.48651E+03  3.45552E+03  5.10335E+03  1.47504E+03  2.15144E+03
  2.46321E+03  1.46390E+03  4.13421E+03  3.30871E+03  4.90860E+03  7.01808E+03  4.64327E+03  1.02388E+04
 -3.53248E+03  1.43604E+04 -1.21199E+04  1.37219E+04 -1.91244E+04  3.43783E+03 -1.93703E+04 -8.92774E+03
 -8.81452E+03 -1.88303E+04  2.72292E+03 -2.02379E+04  1.15525E+04 -1.25973E+04  1.56520E+04 -3.60283E+03
  1.17404E+04  6.67710E+03  2.85734E+03  1.04703E+04 -5.99243E+03  7.15887E+03 -7.54184E+03 -1.38666E+03
 -3.24004E+03 -7.21131E+03  4.67800E+03 -7.88987E+03  7.74196E+03 -3.64612E+03  7.06591E+03  2.55237E+03
  4.35344E+03  3.87648E+03  7.64721E+02  3.20240E+03 -2.67604E+02  1.78910E+03  1.56731E+03 -1.60312E+03
  2.87763E+03 -6.55217E+02  7.64401E+03  2.73419E+03  4.90551E+03  9.76236E+03 -2.05485E+02  1.34881E+04
 -9.00122E+03  9.46930E+03 -1.30700E+04  1.64089E+03 -1.03679E+04 -4.31773E+03 -4.96503E+03 -7.59299E+03
  1.15404E+03 -7.61119E+03  4.87872E+03 -3.33177E+03  4.37136E+03  4.33674E+03 -2.08565E+03  5.89819E+03
 -7.53977E+03  3.81513E+03 -8.85092E+03 -4.37622E+03 -5.37069E+03 -1.03222E+04  1.22346E+03 -1.11906E+04
  6.62244E+03 -5.92558E+03  8.60881E+03 -7.85705E+02  5.92604E+03  2.67253E+03  1.11497E+03  5.02835E+03
 -3.99894E+03  9.22264E+02 -4.94538E+03 -3.62049E+03  1.69251E+03 -8.65039E+03  8.39101E+03 -6.70231E+03
  1.28959E+04  5.57180E+02  1.13554E+04  8.07391E+03  4.14864E+03  1.33672E+04 -5.04156E+03  1.25121E+04
 -1.02041E+04  5.82179E+03 -1.11514E+04 -2.02795E+03 -6.48456E+03 -7.90020E+03  1.61929E+03 -8.04144E+03
  8.33950E+03 -4.07296E+03  6.02182E+03  3.40949E+03  3.28295E+03  7.18141E+03 -1.28573E+03  6.82511E+03
 -3.27131E+03  4.38026E+03 -3.50699E+03  1.78600E+03 -1.10193E+03  4.40199E+02 -1.07048E+03  1.89038E+03
 -3.84165E+03  4.51032E+03 -8.51085E+03  5.21060E+03 -1.25565E+04  9.64888E+01 -1.49103E+04 -8.21143E+03
 -7.47094E+03 -1.70763E+04  3.65689E+03 -2.04223E+04  1.20491E+04 -1.54981E+04  1.99541E+04 -5.30966E+03
  1.79176E+04  4.49394E+03  1.14381E+04  1.16510E+04  1.39246E+03  1.33328E+04 -5.16811E+03  9.21473E+03
 -8.41516E+03  4.11149E+03 -4.68247E+03 -7.75561E+02 -1.57346E+03 -2.43336E+03 -1.22021E+01 -1.03062E+02
 -3.18627E+03  3.78326E+02 -2.78772E+03 -2.11468E+02 -1.33746E+03 -2.92763E+03  8.51402E+02 -3.90959E+03
  5.36515E+03 -4.83942E+03  8.80077E+03  9.41389E+02  9.60272E+03  7.54153E+03  1.58072E+03  1.40557E+04
 -4.92606E+03  1.55775E+04 -1.54175E+04  9.41543E+03 -1.61832E+04 -1.55711E+03 -1.22438E+04 -9.94938E+03
 -4.76552E+03 -1.44128E+04  3.36049E+03 -1.37381E+04  9.26541E+03 -7.22177E+03  9.06892E+03 -6.31051E+02
  5.66180E+03  4.40236E+03 -4.75859E+02  3.76237E+03 -2.46415E+03 -5.02317E+02  3.28004E+02 -3.74206E+03
  4.10942E+03 -2.05817E+03  6.04850E+03  2.28734E+03  4.58555E+03  5.60481E+03  2.51571E+02  7.09068E+03
 -6.21687E+03  6.85246E+03 -9.28901E+03  4.56304E+02 -8.49413E+03 -6.37668E+03 -2.49688E+03 -1.23398E+04
  6.08625E+03 -1.01827E+04  1.17549E+04 -4.28080E+03  1.13170E+04  2.52741E+03  6.45928E+03  9.08670E+03
  1.18759E+03  9.89408E+03 -3.42788E+03  7.89504E+03 -6.04553E+03  4.41880E+03 -4.75572E+03  1.52198E+02
 -2.91929E+03 -2.94834E+02 -3.20053E+03  2.21228E+03 -4.13114E+03  1.69627E+03 -8.06967E+03 -1.16857E+03
 -5.98945E+03 -4.74599E+03 -2.17979E+03 -8.83926E+03  4.73569E+03 -1.04187E+04  9.06066E+03 -4.29613E+03
  1.02473E+04  4.60890E+02  5.30804E+03  7.19745E+03 -9.43697E+02  9.22026E+03 -8.02076E+03  6.45377E+03
