 $NMID ID='MM_0lb_SNR400_15hz_g40_89.RAW', FMTDAT='(8E13.5)'
 TRAMP=1., VOLUME=1. $END
  3.09873E+05  3.50556E+02  3.37523E+05  2.50459E+05  8.49387E+04  3.37694E+05 -1.32606E+05  2.50434E+05
 -1.90339E+05  8.30224E+04 -1.11422E+05 -3.31618E+04  1.74609E+03 -5.06683E+04  5.39857E+04  1.33594E+02
  3.53281E+04  5.28682E+04 -1.68038E+04  7.58744E+04 -6.05994E+04  6.26177E+04 -8.38004E+04  3.14223E+04
 -8.07907E+04 -1.15904E+04 -5.73968E+04 -5.07796E+04 -1.48795E+04 -6.87720E+04  2.69752E+04 -4.51403E+04
  3.98079E+04  3.70580E+03  1.59067E+04  4.75433E+04 -3.42960E+04  4.76590E+04 -6.59915E+04 -6.32283E+02
 -5.29308E+04 -5.69109E+04 -5.90685E+03 -7.66739E+04  3.39833E+04 -5.38945E+04  4.71000E+04 -1.64001E+04
  4.26649E+04  1.07154E+04  3.11838E+04  2.52017E+04  1.58838E+04  2.85958E+04 -4.78254E+03  2.66033E+04
 -2.16066E+04  1.29345E+04 -1.87638E+04 -4.76997E+03  4.50339E+03 -7.20157E+03  2.25151E+04  1.07528E+04
  6.91442E+03  3.38135E+04 -3.12492E+04  3.47251E+04 -6.21421E+04  2.35470E+03 -5.63943E+04 -4.21088E+04
 -1.20699E+04 -6.23286E+04  3.87467E+04 -4.44758E+04  5.62377E+04 -2.18129E+03  3.31445E+04  3.13714E+04
 -5.97236E+03  3.42212E+04 -2.89881E+04  1.46208E+04 -2.88110E+04 -5.23436E+03 -1.51577E+04 -1.09208E+04
 -7.58179E+03 -1.28749E+04 -1.43250E+03 -1.71128E+04  6.74286E+03 -2.26893E+04  1.50468E+04 -1.33965E+04
  1.20872E+04  4.41539E+03 -7.31485E+03  1.27678E+04 -2.06953E+04 -2.98971E+03 -8.57864E+03 -3.21068E+04
  2.19538E+04 -4.20739E+04  4.60061E+04 -1.86892E+04  4.36730E+04  1.86712E+04  1.52910E+04  4.34293E+04
 -1.58879E+04  3.31142E+04 -2.47500E+04  1.34188E+03 -8.90996E+03 -2.73094E+04  2.04509E+04 -3.25071E+04
  3.94140E+04 -8.45352E+03  3.36924E+04  2.26479E+04  1.66748E+04  4.45563E+04 -7.81539E+03  4.81451E+04
 -2.97670E+04  3.19245E+04 -3.96466E+04  9.05642E+03 -4.12714E+04 -1.60455E+04 -2.22938E+04 -3.67329E+04
  6.97691E+03 -3.59528E+04  3.04876E+04 -1.37756E+04  2.83220E+04  1.03455E+04  4.53734E+03  1.85598E+04
 -1.27913E+04  7.51118E+03 -1.01011E+04 -8.24620E+03  5.27492E+03 -1.10451E+04  1.70317E+04  6.19274E+03
  1.29824E+04  2.19185E+04 -6.19111E+03  2.45320E+04 -2.17244E+04  1.01020E+04 -2.65047E+04 -4.84119E+03
 -1.85714E+04 -1.70751E+04 -7.07380E+03 -1.85612E+04  3.29034E+03 -1.74507E+04  1.41839E+04 -1.66017E+04
  2.39060E+04 -1.24424E+04  3.04050E+04  1.37983E+03  2.25545E+04  1.88027E+04  3.97323E+03  3.42242E+04
 -1.69443E+04  2.96363E+04 -2.64462E+04  9.46320E+03 -2.06944E+04 -1.02475E+04 -3.95404E+03 -1.36306E+04
  2.05851E+03 -3.40138E+03 -4.01118E+03  5.94740E+03 -1.49862E+04  4.73445E+03 -1.45791E+04 -5.95308E+03
 -9.71412E+03 -1.72349E+04  4.75276E+03 -2.12620E+04  1.43500E+04 -1.50176E+04  1.61257E+04 -1.61567E+03
  1.00811E+04  1.20982E+04 -1.53160E+03  1.75610E+04 -1.23212E+04  1.01520E+04 -1.74124E+04 -3.42512E+03
 -1.31645E+04 -1.55171E+04 -1.30488E+03 -2.12654E+04  9.76629E+03 -1.70141E+04  1.74562E+04 -9.25334E+03
  1.60977E+04  9.17568E+02  1.12470E+04  4.16074E+03  6.28254E+03  4.24820E+02  8.45193E+03 -1.19787E+03
  1.60920E+04  2.22057E+03  1.79337E+04  1.41712E+04  1.16468E+04  2.80406E+04 -3.03762E+03  3.12257E+04
 -1.76256E+04  2.40004E+04 -2.87285E+04  1.19520E+04 -3.01452E+04 -2.48335E+03 -2.53380E+04 -1.72005E+04
 -1.13085E+04 -2.46912E+04  8.35273E+03 -2.22853E+04  1.94739E+04 -1.17969E+04  1.78740E+04  4.53889E+03
  6.82000E+03  1.22886E+04 -8.43263E+03  1.15481E+04 -1.50946E+04  2.53157E+03 -1.16422E+04 -9.75067E+03
  1.78595E+02 -1.41424E+04  6.98610E+03 -1.03401E+04  9.00934E+03 -1.38047E+03  1.61050E+03  5.98475E+03
 -6.57025E+03  2.44588E+03 -5.26733E+03 -5.04972E+03  4.17177E+01 -1.26412E+04  8.75205E+03 -1.19237E+04
  1.49027E+04 -6.11501E+03  1.49339E+04  2.58801E+03  1.37269E+04  1.10962E+04  6.69574E+03  1.77071E+04
 -2.73618E+03  1.92238E+04 -1.24287E+04  1.25470E+04 -1.39199E+04  3.77848E+03 -1.06664E+04 -2.75439E+03
 -4.46400E+03 -4.30703E+03 -7.79116E+02  1.24384E+03 -2.01020E+03  2.46398E+03 -4.40510E+03  4.37213E+03
 -9.40150E+03 -1.11625E+03 -9.69874E+03 -8.70323E+03 -4.31633E+03 -1.34382E+04  4.34117E+03 -9.81492E+03
  8.12631E+03 -4.25460E+03  6.42724E+03  2.22245E+03  6.75598E+02  4.04753E+03 -4.73814E+03 -1.57761E+02
 -4.57084E+03 -6.58702E+03 -3.53683E+02 -9.73090E+03  5.52079E+03 -1.02250E+04  1.23700E+04 -4.94969E+03
  1.43111E+04  6.80009E+02  1.08308E+04  7.73089E+03  2.27026E+03  1.10695E+04 -6.50007E+03  1.00632E+04
 -8.51556E+03  2.72127E+03 -4.30014E+03 -1.62752E+03  1.31758E+03 -2.08818E+03  5.64055E+03 -1.42266E+03
  4.33820E+03  4.95563E+03  8.23589E+02  7.18024E+03 -6.15984E+03  7.22483E+03 -9.92609E+03  2.28206E+03
 -5.89329E+03 -4.58089E+03  2.95139E+02 -8.08176E+03  5.23072E+03 -4.46235E+03  4.59436E+03  1.79116E+03
  9.14439E+02  4.68799E+03 -5.55477E+03  6.15914E+03 -6.64804E+03  3.15349E+03 -6.78241E+03 -1.91772E+03
 -4.45451E+03 -8.26294E+03  1.58652E+03 -9.83519E+03  8.14189E+03 -6.26344E+03  9.21178E+03  1.77238E+03
  5.88790E+03  7.01331E+03 -7.75823E+02  9.44169E+03 -7.03504E+03  5.37470E+03 -6.66951E+03 -3.20584E+02
 -6.24735E+03 -6.62864E+03 -1.36631E+03 -7.04857E+03  3.04221E+03 -5.90753E+03  3.66649E+03 -3.28154E+03
  3.30081E+03  9.56787E+02 -6.08245E+02  1.15140E+03  1.75410E+02 -1.05640E+03  6.22987E+02 -3.29998E+03
  5.85373E+03 -1.41551E+03  8.05241E+03  1.45968E+03  7.81326E+03  5.03010E+03  6.65586E+03  1.04222E+04
 -2.47037E+03  1.18045E+04 -1.03146E+04  9.03632E+03 -1.38208E+04  1.72693E+03 -1.01788E+04 -3.27876E+03
 -5.67256E+03 -8.67634E+03 -4.98950E+02 -6.79172E+03  3.51074E+03 -3.09958E+03  1.87871E+03 -2.70846E+03
  2.13251E+03 -2.37659E+03  1.77561E+03 -2.63727E+03  4.54452E+03 -1.78470E+03  5.21571E+03 -9.51011E+01
  5.87226E+03  1.04589E+03  2.38099E+03  4.93800E+03 -1.72817E+03  5.08474E+03 -5.96817E+03  3.36645E+03
 -7.40848E+03 -1.10050E+03 -3.26443E+03 -5.12770E+03  2.11141E+02 -6.91121E+03  5.57567E+03 -7.89487E+03
  7.22476E+03 -4.64058E+03  9.88978E+03  1.28774E+03  7.30108E+03  6.39178E+03  1.50907E+03  8.81114E+03
 -3.93461E+03  7.07750E+03 -4.82925E+03  2.71675E+03 -3.21524E+03 -1.45984E+03 -4.99239E+02 -1.31935E+03
 -1.01847E+03  5.33215E+02 -1.26418E+03  1.74656E+03 -3.28345E+03  1.70948E+03 -5.64837E+03 -7.20095E+02
 -2.71979E+03 -5.86662E+03  3.00329E+02 -6.90598E+03  4.54237E+03 -5.96730E+03  5.91212E+03 -1.81190E+03
  6.34100E+03  2.83355E+03  2.86887E+03  5.52143E+03 -1.14074E+03  7.39937E+03 -4.79738E+03  4.24704E+03
 -5.85895E+03  9.15306E+02 -4.80566E+03 -3.45851E+03 -4.22919E+02 -5.26991E+03  3.40311E+03 -3.70931E+03
  4.34359E+03 -1.55375E+03  2.90772E+03  8.70477E+02  5.33003E+02  2.24609E+03  9.40946E+02  5.32571E+02
  2.50080E+03  1.39833E+03  1.63916E+03  1.08432E+03  1.84371E+03  2.48533E+03  1.31017E+03  2.55361E+03
 -1.88113E+03  4.89889E+03 -4.39669E+03  6.24897E+03 -5.12815E+03  1.74314E+03 -7.14080E+03 -1.79215E+03
 -3.26330E+03 -5.99764E+03  1.24926E+03 -6.77497E+03  3.48676E+03 -4.19325E+03  4.82213E+03 -1.48099E+03
  4.16588E+03  2.38768E+03  1.07179E+03  3.61669E+03 -1.72827E+03  2.20556E+03 -1.82112E+03  1.93648E+02
 -2.04324E+03 -3.13322E+03  1.72433E+03 -2.91685E+03  2.17629E+03 -2.09788E+03  2.04688E+03  6.44292E+02
  1.73154E+03  5.79191E+02  5.86361E+02  5.08173E+02 -1.07258E+03  1.03938E+03  1.99226E+03 -5.60991E+01
  9.74809E+02 -1.13121E+03  2.45306E+03  1.10898E+03  5.75078E+02  3.87512E+03 -5.80547E+02  4.14994E+03
 -2.77979E+03  1.73950E+03 -3.63892E+03  1.16271E+03 -3.46288E+03 -1.26486E+03 -1.19272E+03 -2.19946E+03
  1.62940E+02 -2.65685E+03  1.76955E+03 -5.38325E+02  9.98988E+02  1.77681E+03 -1.53817E+03  2.24040E+03
 -2.31888E+03  1.21500E+03 -2.76326E+03 -1.97561E+03 -1.06537E+03 -3.60160E+03  5.84007E+01 -3.14369E+03
  7.35492E+02 -1.57247E+03  1.51106E+03  1.05382E+02  1.90812E+03  3.21123E+02  4.35259E+02  1.83324E+03
 -9.46596E+02  1.47042E+02 -1.14168E+03 -7.50973E+02  5.81322E+02 -2.26807E+03  2.73566E+03 -1.34676E+03
  3.23080E+03  2.34167E+02  3.68892E+03  1.95455E+03  1.87083E+03  3.32996E+03 -9.92776E+02  2.78318E+03
 -2.96423E+03  5.26458E+02 -3.33760E+03 -2.93595E+02 -1.76354E+03 -2.35812E+03  3.04704E+02 -1.57215E+03
  2.97590E+03 -1.01215E+03  1.99852E+03  1.11813E+03  6.45397E+02  2.47928E+03 -3.20700E+02  1.61672E+03
 -6.06409E+02  1.61647E+03 -1.10592E+03  7.22863E+02  1.33038E+02  9.15379E+02 -1.06419E+03  8.15209E+02
 -5.62500E+02  1.57912E+03 -3.09121E+03  1.02520E+03 -2.67956E+03  4.99390E+02 -4.27919E+03 -1.64783E+03
 -1.88149E+03 -4.59381E+03  6.39112E+02 -4.53269E+03  2.92397E+03 -4.10764E+03  5.49165E+03 -2.03285E+03
  4.83598E+03  5.39214E+02  2.14102E+03  2.65944E+03  7.03924E+02  3.12859E+03 -1.34358E+03  2.54060E+03
 -1.43234E+03  1.35089E+03 -9.45468E+02 -6.18885E+02 -6.27645E+02  2.83900E+02 -2.55640E+02 -2.01850E+02
 -1.24480E+03 -8.43077E+01 -8.03754E+02  1.21710E+02 -2.27303E+02 -1.04129E+03 -5.28559E+02 -2.41346E+03
  1.82764E+03 -8.80684E+02  2.20746E+03  2.15947E+02  2.75844E+03  1.92011E+03  7.21881E+01  2.95726E+03
 -1.92802E+03  3.74556E+03 -3.56770E+03  1.82758E+03 -3.65756E+03 -6.84883E+02 -2.53114E+03 -2.51999E+03
 -1.19051E+03 -2.54051E+03  6.56469E+02 -3.08066E+03  1.98233E+03 -1.99041E+03  1.76318E+03  8.09680E+02
  6.61119E+02  6.51089E+02 -7.30590E+01  9.40674E+02 -3.65477E+02  1.37745E+02  3.76192E+02 -9.11503E+02
  1.10072E+03  3.31616E+01  1.34984E+03  5.55955E+02  2.25803E+02  1.13487E+03  6.01755E+02  1.15303E+03
 -1.54440E+03  1.23254E+03 -1.18953E+03  8.46496E+00 -1.48413E+03 -1.56243E+03 -2.22260E+02 -2.00139E+03
  9.75594E+02 -2.30822E+03  1.53624E+03 -6.05657E+02  2.08887E+03 -2.51739E+02  1.30497E+03  1.92331E+03
  1.04230E+02  1.68629E+03 -7.94156E+02  1.71674E+03 -1.31866E+03  1.26374E+03 -5.68954E+02 -2.98222E+02
  2.66773E+02  1.67437E+02 -3.35328E+02  4.68896E+02 -1.54677E+03  2.34860E+02 -1.23955E+03 -3.20507E+02
 -1.43148E+03 -8.01594E+02 -3.55345E+02 -1.58010E+03  1.04645E+03 -2.76824E+03  1.63163E+03 -1.24113E+03
  1.69771E+03  9.41010E+02  4.44107E+02  1.29488E+03 -7.03238E+00  1.64265E+03 -1.44833E+03  1.69573E+03
