 $NMID ID='MM_0lb_SNR400_17hz_g45_5.RAW', FMTDAT='(8E13.5)'
 TRAMP=1., VOLUME=1. $END
  3.10193E+05  3.48992E+02  3.37688E+05  2.50204E+05  8.39793E+04  3.37720E+05 -1.32339E+05  2.50573E+05
 -1.90040E+05  8.18170E+04 -1.11123E+05 -3.31789E+04  1.30973E+03 -5.03981E+04  5.39323E+04  3.29783E+02
  3.50842E+04  5.27118E+04 -1.68215E+04  7.46949E+04 -6.05080E+04  6.29069E+04 -8.37618E+04  3.16514E+04
 -7.98139E+04 -1.13736E+04 -5.67271E+04 -5.04561E+04 -1.49741E+04 -6.83837E+04  2.65564E+04 -4.46545E+04
  3.94400E+04  3.48842E+03  1.56636E+04  4.74035E+04 -3.45445E+04  4.63746E+04 -6.59917E+04 -2.71233E+02
 -5.26873E+04 -5.61428E+04 -5.91447E+03 -7.58979E+04  3.30525E+04 -5.33693E+04  4.58069E+04 -1.69615E+04
  4.22299E+04  1.09934E+04  3.09639E+04  2.51174E+04  1.56380E+04  2.91250E+04 -4.50639E+03  2.62379E+04
 -2.21289E+04  1.28808E+04 -1.94870E+04 -4.17577E+03  5.01755E+03 -7.27449E+03  2.19349E+04  1.08473E+04
  7.06093E+03  3.39603E+04 -3.11511E+04  3.42971E+04 -6.11606E+04  1.81472E+03 -5.63608E+04 -4.12986E+04
 -1.19515E+04 -6.15500E+04  3.85046E+04 -4.41045E+04  5.59308E+04 -2.22117E+03  3.23383E+04  3.09600E+04
 -6.22142E+03  3.39123E+04 -2.88945E+04  1.35575E+04 -2.87969E+04 -5.76420E+03 -1.51645E+04 -9.40916E+03
 -7.89735E+03 -1.17906E+04 -7.84553E+02 -1.65744E+04  6.69331E+03 -2.24578E+04  1.47319E+04 -1.33033E+04
  1.16927E+04  4.65414E+03 -6.46451E+03  1.29683E+04 -1.90819E+04 -3.16027E+03 -8.39625E+03 -3.11661E+04
  2.11832E+04 -4.08322E+04  4.59573E+04 -1.87915E+04  4.27383E+04  1.85764E+04  1.50040E+04  4.16714E+04
 -1.51147E+04  3.19064E+04 -2.36372E+04  1.00101E+03 -8.50250E+03 -2.70728E+04  2.06244E+04 -3.22597E+04
  3.95155E+04 -8.45094E+03  3.27011E+04  2.32633E+04  1.57067E+04  4.35255E+04 -8.12540E+03  4.62921E+04
 -2.94202E+04  3.06762E+04 -3.80691E+04  8.23598E+03 -3.97839E+04 -1.57024E+04 -2.15985E+04 -3.56227E+04
  6.96565E+03 -3.51841E+04  3.00968E+04 -1.30838E+04  2.70400E+04  1.06468E+04  3.39443E+03  1.82527E+04
 -1.31938E+04  7.74125E+03 -9.20922E+03 -7.77369E+03  6.34489E+03 -1.08268E+04  1.73906E+04  6.22006E+03
  1.28795E+04  2.20339E+04 -6.63022E+03  2.41002E+04 -2.16697E+04  1.00775E+04 -2.55996E+04 -5.92583E+03
 -1.80370E+04 -1.67410E+04 -6.82046E+03 -1.73989E+04  4.41896E+03 -1.62394E+04  1.30173E+04 -1.46476E+04
  2.26088E+04 -1.18085E+04  2.93952E+04  2.01762E+03  2.20225E+04  1.67235E+04  4.65229E+03  3.38374E+04
 -1.64466E+04  2.85042E+04 -2.68182E+04  9.01975E+03 -1.99601E+04 -1.02655E+04 -4.27308E+03 -1.34509E+04
  2.75582E+03 -3.99109E+03 -3.48474E+03  5.86027E+03 -1.34298E+04  5.25255E+03 -1.46159E+04 -5.47225E+03
 -8.96789E+03 -1.61150E+04  4.41124E+03 -2.01228E+04  1.34983E+04 -1.42824E+04  1.52532E+04 -1.82847E+03
  9.34125E+03  1.11688E+04 -1.00978E+03  1.66069E+04 -1.12339E+04  9.37328E+03 -1.59215E+04 -3.80237E+03
 -1.19747E+04 -1.46431E+04 -1.34476E+03 -1.96542E+04  8.69812E+03 -1.56760E+04  1.66005E+04 -7.64188E+03
  1.57427E+04  9.27705E+02  1.12376E+04  4.48863E+03  5.78552E+03  6.63842E+02  8.46753E+03 -1.55405E+03
  1.49959E+04  2.50008E+03  1.64165E+04  1.30269E+04  1.02380E+04  2.67054E+04 -3.35120E+03  2.88583E+04
 -1.67171E+04  2.17828E+04 -2.68326E+04  1.06250E+04 -2.66593E+04 -1.75766E+03 -2.28558E+04 -1.54765E+04
 -1.05358E+04 -2.18769E+04  7.36371E+03 -2.06190E+04  1.77088E+04 -1.13771E+04  1.65141E+04  4.57122E+03
  6.60817E+03  1.17002E+04 -7.59977E+03  1.11607E+04 -1.38760E+04  2.62074E+03 -1.06107E+04 -8.64578E+03
  1.42417E+02 -1.26681E+04  6.43363E+03 -1.02490E+04  8.19223E+03 -1.37930E+03  2.00470E+03  5.64883E+03
 -6.20336E+03  1.53639E+03 -4.28936E+03 -4.98207E+03  3.41292E+02 -1.02327E+04  8.20843E+03 -1.10501E+04
  1.33017E+04 -5.61429E+03  1.35605E+04  3.00511E+03  1.17881E+04  1.02315E+04  5.83575E+03  1.51411E+04
 -2.67850E+03  1.72452E+04 -1.06545E+04  1.07973E+04 -1.26026E+04  3.04277E+03 -8.96092E+03 -2.43892E+03
 -4.85305E+03 -3.94090E+03 -4.98385E+02  1.42686E+03 -2.62108E+03  2.27455E+03 -3.61709E+03  4.13153E+03
 -8.68133E+03 -2.60497E+02 -9.78370E+03 -7.40462E+03 -3.58373E+03 -1.26469E+04  4.28941E+03 -8.85034E+03
  7.98162E+03 -3.83592E+03  5.89526E+03  2.51205E+03 -1.01386E+02  4.25192E+03 -3.96924E+03  6.46493E+01
 -3.99413E+03 -6.48621E+03 -1.00904E+03 -7.89741E+03  4.14038E+03 -8.61710E+03  1.12800E+04 -4.87850E+03
  1.28979E+04  1.03255E+03  1.00794E+04  6.73293E+03  1.47416E+03  9.23926E+03 -5.27215E+03  9.29571E+03
 -6.98007E+03  2.80577E+03 -3.33592E+03 -1.48451E+03  1.19655E+03 -2.60735E+03  4.83941E+03 -8.07745E+02
  4.26106E+03  3.73004E+03  1.06906E+03  7.29455E+03 -4.86261E+03  6.72161E+03 -8.37121E+03  1.98007E+03
 -5.04915E+03 -4.01238E+03  6.31399E+02 -7.54378E+03  4.60713E+03 -3.48327E+03  3.76126E+03  1.64294E+03
  4.22160E+02  4.13317E+03 -4.64769E+03  5.71543E+03 -5.62690E+03  2.17426E+03 -5.22724E+03 -1.90395E+03
 -3.33532E+03 -6.47795E+03  1.53110E+03 -8.00473E+03  7.10437E+03 -4.89684E+03  7.28346E+03  1.21258E+03
  5.53412E+03  6.19718E+03 -2.87797E+02  7.73052E+03 -5.55351E+03  4.10000E+03 -5.45193E+03 -7.35129E+02
 -6.28419E+03 -5.49622E+03 -1.54869E+03 -5.83733E+03  2.39131E+03 -5.51822E+03  2.55043E+03 -3.13603E+03
  2.86917E+03  3.40106E+02  4.76121E+02  1.40522E+03  5.02216E+02 -7.75584E+02  6.66378E+02 -2.16348E+03
  4.81193E+03 -1.39126E+03  6.42627E+03  6.89753E+02  6.88314E+03  3.69616E+03  5.77839E+03  7.57559E+03
 -1.81538E+03  1.03074E+04 -9.06638E+03  7.74472E+03 -1.20406E+04  1.76553E+03 -9.12005E+03 -3.41478E+03
 -4.59221E+03 -7.17822E+03 -6.87871E+02 -6.23163E+03  2.07544E+03 -2.62732E+03  1.81695E+03 -2.64269E+03
  1.59623E+03 -1.44498E+03  2.66458E+03 -2.70739E+03  4.22148E+03 -1.53489E+03  3.74936E+03  1.61835E+02
  5.22524E+03  9.63382E+02  1.98181E+03  3.70831E+03 -2.24956E+03  3.37625E+03 -4.78783E+03  3.30724E+03
 -5.67762E+03 -1.01367E+03 -2.37094E+03 -4.07457E+03 -5.08847E+01 -6.00362E+03  3.83044E+03 -6.60431E+03
  6.36495E+03 -3.81732E+03  7.88231E+03  4.69961E+02  5.60961E+03  5.02688E+03  1.43427E+03  6.97797E+03
 -2.43835E+03  6.42699E+03 -4.03705E+03  1.92112E+03 -2.43521E+03 -7.71334E+02 -1.04406E+03 -4.03405E+02
 -1.11844E+03  3.29828E+02 -8.13020E+02  1.43096E+03 -2.52437E+03  8.92457E+02 -4.80467E+03 -4.75585E+02
 -1.70615E+03 -5.16584E+03  8.14277E+02 -5.46954E+03  3.10478E+03 -5.33119E+03  3.93394E+03 -1.43759E+03
  5.44949E+03  3.08538E+03  2.48396E+03  4.10192E+03 -8.24736E+02  5.06945E+03 -3.74502E+03  3.25178E+03
 -4.69677E+03  7.43356E+02 -4.22871E+03 -3.42253E+03 -5.03955E+02 -4.05146E+03  2.41747E+03 -3.24744E+03
  3.35835E+03 -1.13681E+03  2.41510E+03  8.16231E+02  3.23341E+02  1.73375E+03  5.57459E+02  7.37537E+02
  1.41776E+03  3.20922E+02  1.13711E+03  1.30922E+03  1.36163E+03  1.83060E+03  1.66715E+03  1.92114E+03
 -1.50161E+03  3.33916E+03 -3.08991E+03  4.89241E+03 -4.32999E+03  1.72435E+03 -5.09730E+03 -1.27617E+03
 -1.97285E+03 -4.59594E+03  3.03858E+02 -6.21707E+03  2.40146E+03 -3.17355E+03  4.40227E+03 -1.19181E+03
  2.90006E+03  1.87650E+03  7.96460E+02  2.79277E+03 -5.77137E+02  2.47063E+03 -1.41057E+03  4.29004E+01
 -7.83836E+02 -2.12874E+03  1.79958E+03 -2.06592E+03  2.09532E+03 -9.69465E+02  2.00164E+03  2.52137E+02
  1.00089E+03 -3.18774E+02  8.23380E+02  2.66876E+02 -8.07220E+02  1.03383E+03  1.57503E+03 -5.52467E+02
  4.35240E+02  2.20099E+02  1.85967E+03  7.22106E+02  6.81979E+02  3.13343E+03 -1.44843E+02  3.64061E+03
 -2.02588E+03  1.75362E+03 -2.42559E+03  1.01086E+03 -2.22556E+03 -5.20765E+02 -3.77333E+02 -1.50954E+03
  4.72467E+02 -1.44223E+03  1.11234E+03 -1.55142E+03  8.78928E+02  1.65982E+03 -4.86215E+02  1.19952E+03
 -1.63886E+03  1.09827E+03 -1.55329E+03 -1.12463E+03 -7.74626E+02 -2.11185E+03  2.63802E+02 -2.19560E+03
  1.55578E+03 -8.06561E+02  4.76740E+02  4.04814E+02  1.47851E+03  2.75950E+02  6.98029E+02  1.18724E+03
 -5.93711E+02  4.85347E+02 -7.07733E+02 -2.05830E+02  3.53091E+02 -1.50062E+03  2.37925E+03 -1.46348E+03
  1.51527E+03  6.85645E+02  2.83893E+03  1.01012E+03  1.68996E+03  2.19092E+03 -9.85048E+02  2.49414E+03
 -2.21336E+03  5.46793E+02 -1.52836E+03 -3.22995E+02 -1.24411E+03 -1.62605E+03  1.18222E+02 -8.39442E+02
  1.30098E+03 -1.07202E+03  1.28328E+03  5.29689E+02  4.75755E+02  2.10184E+03  3.95549E+02  1.74262E+03
 -6.90528E+02  1.25509E+03 -5.78083E+02  9.99759E+02 -2.23538E+02  6.07929E+02 -7.53188E+02  4.78232E+02
 -9.58232E+02  6.55235E+02 -2.40008E+03  4.30978E+02 -2.46812E+03  5.14016E+02 -2.44345E+03 -7.42943E+02
 -1.59868E+03 -3.24955E+03 -1.44012E+02 -3.58194E+03  1.45616E+03 -3.48987E+03  3.77520E+03 -1.62043E+03
  2.76992E+03  4.58340E+02  1.72359E+03  2.14873E+03 -5.72863E+01  2.09570E+03 -9.02173E+02  1.79268E+03
 -1.10545E+03  1.08188E+03 -6.85461E+02 -6.62151E+02 -6.54101E+02 -4.20257E+02 -7.93252E+02 -4.03127E+02
 -1.40678E+03  3.97700E+02 -1.13389E+03  4.11977E+02 -3.20549E+01 -4.06046E+02  2.73498E+02 -1.01507E+03
  1.54953E+03 -8.39125E+02  1.34707E+03  5.64365E+02  1.69964E+03  1.19645E+03 -9.81648E+00  2.13091E+03
 -8.88762E+02  2.93338E+03 -2.66962E+03  8.79055E+02 -2.93752E+03 -2.53282E+02 -1.68038E+03 -1.50573E+03
 -1.13076E+03 -1.92865E+03  3.25446E+02 -1.85650E+03  7.96272E+02 -1.07166E+03  1.00533E+03 -9.47435E+01
  7.32420E+02  4.63640E+02 -1.68023E+01  3.65954E+02 -3.63556E+01  1.08385E+02  5.95952E+02  1.06773E+01
  1.05162E+03  9.42213E+01  7.17873E+02  1.15425E+02  3.84494E+02  5.97791E+02  2.55644E+02  2.40952E+02
 -8.83572E+02  1.18718E+03 -8.10432E+02  7.90156E+02 -1.43832E+03 -4.43017E+02  5.94485E+01 -1.98953E+03
  1.14004E+03 -6.06758E+02  1.25717E+03  1.38317E+02  1.43585E+03 -2.00433E+02  5.66746E+02  1.10893E+03
  1.80895E+02  1.36634E+03 -1.46657E+02  9.76966E+02 -7.03084E+02  1.51945E+03 -4.47956E+02  3.24614E+02
  1.47315E+02 -2.13875E+02 -5.17229E+02  3.04604E+02 -6.50375E+02  9.56854E+01 -4.82519E+02 -3.79031E+02
 -9.66124E+02  4.75042E+02 -8.38867E+02 -5.92358E+02  7.48986E+02 -1.81020E+03  5.90436E+02 -8.72499E+01
  1.40910E+03 -1.67380E+02  1.70518E+02  4.80514E+02 -5.87706E+02  1.08062E+03 -8.83748E+02  6.85189E+02
