 $NMID ID='MM_0lb_SNR400_10hz_g50_4.RAW', FMTDAT='(8E13.5)'
 TRAMP=1., VOLUME=1. $END
  3.09458E+05  4.57870E+02  3.37751E+05  2.50783E+05  8.60051E+04  3.38425E+05 -1.32392E+05  2.51483E+05
 -1.90506E+05  8.30044E+04 -1.12667E+05 -3.29542E+04  6.27169E+00 -5.07698E+04  5.31623E+04 -6.98202E+02
  3.51677E+04  5.30957E+04 -1.63612E+04  7.65772E+04 -6.10874E+04  6.42024E+04 -8.47471E+04  3.20641E+04
 -8.22159E+04 -1.10048E+04 -5.73145E+04 -5.23225E+04 -1.47020E+04 -7.07580E+04  2.85837E+04 -4.69980E+04
  4.06364E+04  3.77721E+03  1.76129E+04  4.81740E+04 -3.43385E+04  4.79844E+04 -6.81700E+04 -7.07776E+02
 -5.47160E+04 -5.81184E+04 -6.59910E+03 -7.86754E+04  3.47753E+04 -5.62880E+04  4.93630E+04 -1.78545E+04
  4.48026E+04  1.19056E+04  3.26236E+04  2.65720E+04  1.54292E+04  2.98632E+04 -5.13257E+03  2.78689E+04
 -2.30921E+04  1.10935E+04 -1.76678E+04 -5.20438E+03  6.74043E+03 -8.17529E+03  2.31821E+04  1.42036E+04
  6.69870E+03  3.69695E+04 -3.36709E+04  3.71848E+04 -6.52834E+04  1.86029E+03 -5.80332E+04 -4.38983E+04
 -1.27865E+04 -6.52759E+04  4.22212E+04 -4.77914E+04  6.01774E+04 -2.54894E+03  3.52583E+04  3.36384E+04
 -5.71316E+03  3.90270E+04 -3.19646E+04  1.77891E+04 -3.19600E+04 -4.45594E+03 -1.84814E+04 -1.18723E+04
 -9.70816E+03 -1.52237E+04 -9.95199E+02 -1.99399E+04  8.83345E+03 -2.35714E+04  1.55972E+04 -1.28438E+04
  1.04026E+04  5.70809E+03 -1.00925E+04  1.28465E+04 -2.35818E+04 -6.42584E+03 -8.52754E+03 -3.73296E+04
  2.48237E+04 -4.59706E+04  5.10871E+04 -2.00163E+04  4.78519E+04  2.02425E+04  1.71794E+04  4.63229E+04
 -1.62442E+04  3.55713E+04 -2.78521E+04  3.17164E+03 -1.05683E+04 -2.94717E+04  2.17963E+04 -3.62889E+04
  4.41131E+04 -1.00562E+04  3.99354E+04  2.47515E+04  2.15689E+04  5.02721E+04 -8.32351E+03  5.41263E+04
 -3.53528E+04  3.71381E+04 -4.63133E+04  1.14543E+04 -4.66498E+04 -1.83513E+04 -2.57772E+04 -4.06815E+04
  7.94539E+03 -4.10041E+04  3.34374E+04 -1.66474E+04  3.15816E+04  1.07597E+04  4.87743E+03  2.07171E+04
 -1.41018E+04  9.19017E+03 -1.11321E+04 -7.59330E+03  5.90861E+03 -1.13085E+04  1.84173E+04  5.22665E+03
  1.50417E+04  2.19110E+04 -4.99848E+03  2.79902E+04 -2.32610E+04  1.38429E+04 -3.00609E+04 -3.21410E+03
 -2.47298E+04 -1.80910E+04 -1.12832E+04 -2.41273E+04  4.63839E+03 -2.51372E+04  1.87718E+04 -2.21949E+04
  3.08811E+04 -1.41652E+04  3.68142E+04  3.80551E+03  2.59526E+04  2.38319E+04  4.35694E+03  4.04917E+04
 -1.95243E+04  3.38914E+04 -3.03439E+04  1.21513E+04 -2.15573E+04 -1.01716E+04 -4.96829E+03 -1.30533E+04
  1.68429E+03 -2.12229E+03 -7.00807E+03  7.73516E+03 -1.92185E+04  5.40291E+03 -1.95126E+04 -8.86845E+03
 -1.13563E+04 -2.32352E+04  6.11079E+03 -2.71090E+04  1.82137E+04 -1.87677E+04  2.11392E+04 -1.62455E+03
  1.34293E+04  1.52006E+04 -1.38856E+03  2.22976E+04 -1.59969E+04  1.26965E+04 -2.25679E+04 -5.72896E+03
 -1.57015E+04 -1.93878E+04 -1.70167E+03 -2.69735E+04  1.26181E+04 -2.23604E+04  2.29699E+04 -1.18554E+04
  2.11607E+04  2.41337E+02  1.52318E+04  4.89472E+03  8.50670E+03  1.77130E+03  1.18450E+04 -1.87941E+03
  2.15324E+04  3.27638E+03  2.44941E+04  1.78000E+04  1.64952E+04  3.62212E+04 -3.01565E+03  4.23324E+04
 -2.43622E+04  3.46431E+04 -3.95754E+04  1.80242E+04 -4.24286E+04 -2.85786E+03 -3.39300E+04 -2.45946E+04
 -1.36970E+04 -3.51620E+04  1.23043E+04 -3.15842E+04  2.54757E+04 -1.47430E+04  2.31004E+04  7.83057E+03
  8.17041E+03  1.80784E+04 -1.04239E+04  1.48745E+04 -1.94309E+04  2.92631E+03 -1.42897E+04 -1.24721E+04
 -7.79983E+02 -1.85447E+04  9.36942E+03 -1.36160E+04  1.28607E+04 -9.39107E+02  3.33679E+03  8.41136E+03
 -8.21107E+03  4.45736E+03 -8.58745E+03 -6.29340E+03 -6.15764E+02 -1.69594E+04  1.14222E+04 -1.86226E+04
  2.16338E+04 -1.08156E+04  2.43265E+04  3.47715E+03  2.17360E+04  1.81169E+04  9.61961E+03  2.75608E+04
 -4.79305E+03  2.90981E+04 -1.89665E+04  1.85013E+04 -2.14273E+04  4.70296E+03 -1.35026E+04 -5.38523E+03
 -6.03084E+03 -7.05351E+03 -1.51077E+03  7.91420E+02 -3.09133E+03  3.27599E+03 -7.02409E+03  5.98501E+03
 -1.32771E+04 -1.06939E+03 -1.42967E+04 -1.13081E+04 -5.12790E+03 -1.86566E+04  6.36012E+03 -1.48158E+04
  1.17656E+04 -6.08118E+03  8.97568E+03  4.00764E+03  7.25870E+02  5.69494E+03 -7.59391E+03  2.64142E+02
 -7.10118E+03 -9.30912E+03 -9.77370E+02 -1.36623E+04  8.17077E+03 -1.53248E+04  1.86229E+04 -8.33988E+03
  2.17746E+04  2.30213E+03  1.59831E+04  1.35162E+04  2.42610E+03  1.75166E+04 -9.08460E+03  1.42956E+04
 -1.21127E+04  4.47408E+03 -5.46697E+03 -3.69770E+03  2.82864E+03 -3.32223E+03  6.86008E+03 -1.36040E+03
  6.87281E+03  5.99192E+03  1.04480E+03  1.18234E+04 -8.48577E+03  1.05889E+04 -1.45592E+04  1.74634E+03
 -9.51791E+03 -6.86395E+03  9.66642E+01 -1.18791E+04  8.23807E+03 -7.08860E+03  8.59949E+03  3.33957E+03
  2.71985E+03  9.17344E+03 -7.45761E+03  1.02113E+04 -1.23594E+04  4.66140E+03 -1.22118E+04 -4.71575E+03
 -7.78994E+03 -1.37367E+04  3.91091E+03 -1.66453E+04  1.39223E+04 -9.84493E+03  1.52949E+04  2.49988E+03
  8.76276E+03  1.28401E+04 -1.56960E+03  1.45732E+04 -1.08115E+04  8.54058E+03 -1.21089E+04 -8.51762E+02
 -9.99868E+03 -9.33860E+03 -2.10447E+03 -1.11832E+04  5.70043E+03 -8.52599E+03  6.18767E+03 -2.60600E+03
  3.64211E+03  2.36191E+03 -1.04533E+03  1.71171E+03 -1.01509E+03 -2.78803E+03  2.37667E+03 -6.74922E+03
  1.01636E+04 -3.30583E+03  1.49703E+04  9.57882E+02  1.43280E+04  9.83450E+03  9.25575E+03  1.88882E+04
 -3.65276E+03  2.16193E+04 -1.79499E+04  1.57716E+04 -2.36324E+04  3.43031E+03 -1.92511E+04 -7.75480E+03
 -9.58047E+03 -1.59116E+04 -3.16829E+02 -1.25674E+04  4.64130E+03 -7.47776E+03  5.67876E+03 -4.54452E+03
  3.19840E+03 -2.79456E+03  3.52622E+03 -3.67575E+03  6.20934E+03 -2.99127E+03  7.28053E+03 -1.20476E+03
  9.72784E+03  2.48519E+03  5.98857E+03  8.47083E+03 -2.37533E+03  1.00688E+04 -1.08261E+04  8.15802E+03
 -1.34170E+04 -1.71366E+03 -8.25676E+03 -9.53859E+03 -1.12052E+03 -1.43070E+04  8.15052E+03 -1.49803E+04
  1.45115E+04 -7.33101E+03  1.75326E+04  1.82991E+03  1.20512E+04  1.25231E+04  1.58647E+03  1.63166E+04
 -6.97278E+03  1.35635E+04 -9.06793E+03  4.61450E+03 -6.20474E+03 -1.89412E+03 -2.53294E+03 -2.03285E+03
 -1.53545E+03  3.72881E+02 -2.52426E+03  2.52102E+03 -5.92113E+03  2.12326E+03 -9.19635E+03 -7.46778E+02
 -5.93127E+03 -9.27822E+03  4.49114E+02 -1.27343E+04  8.07832E+03 -1.19460E+04  1.31394E+04 -4.38588E+03
  1.19803E+04  5.79563E+03  6.21413E+03  1.15945E+04 -2.61038E+03  1.30801E+04 -9.74371E+03  8.08680E+03
 -1.19266E+04  4.77916E+02 -9.93109E+03 -8.30778E+03 -1.35356E+03 -1.08408E+04  4.28941E+03 -7.76898E+03
  7.74637E+03 -2.06701E+03  6.00332E+03  2.78116E+03  2.47390E+03  4.39348E+03  1.57404E+03  1.74948E+03
  2.19833E+03  1.48118E+03  3.43276E+03  1.98066E+03  4.21893E+03  4.28592E+03  3.68658E+03  7.18065E+03
 -3.07632E+03  1.07912E+04 -9.06104E+03  1.02317E+04 -1.33886E+04  3.16988E+03 -1.36334E+04 -6.06471E+03
 -6.18618E+03 -1.28897E+04  1.75079E+03 -1.47663E+04  8.38244E+03 -9.35648E+03  1.01437E+04 -2.84305E+03
  8.47466E+03  4.41573E+03  2.55909E+03  7.56252E+03 -3.29237E+03  5.09504E+03 -5.47917E+03 -1.36922E+03
 -2.72694E+03 -5.02794E+03  3.23991E+03 -6.09716E+03  4.94778E+03 -3.29418E+03  5.70175E+03  9.18108E+02
  2.98586E+03  2.49681E+03  1.10601E+03  2.60954E+03 -1.05441E+02  1.42696E+03  2.48300E+03 -4.89153E+02
  1.75212E+03 -6.07299E+02  5.58552E+03  1.64733E+03  2.88929E+03  6.95869E+03 -1.52793E+03  9.82805E+03
 -6.00552E+03  5.86182E+03 -8.42984E+03  2.33432E+03 -7.61308E+03 -2.89341E+03 -3.44683E+03 -4.06721E+03
  1.32659E+03 -5.08601E+03  3.85332E+03 -2.74071E+03  3.06557E+03  1.95874E+03 -1.15985E+03  4.28634E+03
 -5.33898E+03  2.34731E+03 -6.31947E+03 -3.44120E+03 -3.48174E+03 -7.36303E+03  9.63869E+02 -7.51176E+03
  4.54603E+03 -3.35246E+03  5.08179E+03  4.50060E+02  4.49888E+03  2.68671E+03  7.67121E+02  3.39430E+03
 -2.71196E+03  1.34055E+03 -3.20767E+03 -3.79126E+03  1.58764E+03 -4.95141E+03  6.62848E+03 -3.90465E+03
  7.71113E+03  1.06914E+03  7.90065E+03  6.04376E+03  3.44062E+03  9.20854E+03 -2.88351E+03  7.85475E+03
 -7.19367E+03  3.53463E+03 -6.79259E+03 -9.99780E+02 -3.82558E+03 -5.49097E+03  1.37924E+03 -4.77028E+03
  5.32345E+03 -2.77150E+03  4.53407E+03  2.26874E+03  2.16643E+03  4.57304E+03 -2.78349E+01  3.44903E+03
 -2.28471E+03  2.60922E+03 -1.39775E+03  1.29678E+03 -1.17900E+03  6.19657E+02 -1.88637E+03  1.62657E+03
 -1.98245E+03  3.72308E+03 -4.52328E+03  3.07342E+03 -8.77771E+03 -2.03309E+02 -9.11033E+03 -5.56712E+03
 -4.63735E+03 -1.16356E+04  2.79928E+03 -1.38653E+04  8.31663E+03 -1.01376E+04  1.28255E+04 -4.16476E+03
  1.14905E+04  3.24517E+03  7.52412E+03  7.67444E+03  3.81306E+02  9.44413E+03 -3.62929E+03  6.17397E+03
 -5.42227E+03  2.77130E+03 -3.52590E+03 -1.08727E+03 -1.59639E+03 -1.00744E+03 -1.02602E+03 -1.51875E+02
 -1.53603E+03 -1.87520E+02 -2.22825E+03  3.76371E+02 -6.21846E+01 -1.89120E+03  3.63880E+02 -3.29289E+03
  3.06560E+03 -2.67006E+03  5.58214E+03 -2.41694E+02  6.33944E+03  3.97971E+03  1.55845E+03  8.58838E+03
 -4.28714E+03  1.02304E+04 -9.19622E+03  6.63103E+03 -1.08567E+04 -1.21485E+03 -7.85445E+03 -6.99960E+03
 -3.15746E+03 -9.18262E+03  2.18629E+03 -8.11315E+03  5.35251E+03 -3.85943E+03  5.98810E+03 -1.18904E+01
  3.58829E+03  3.10020E+03 -5.31611E+02  2.88860E+03 -1.91401E+03  5.93161E+01  1.19250E+02 -2.00107E+03
  2.99539E+03 -1.21842E+03  3.35189E+03  1.49221E+03  1.49244E+03  3.53333E+03  1.49535E+02  4.87304E+03
 -3.71531E+03  3.76941E+03 -6.00841E+03 -2.53431E+02 -5.02206E+03 -4.98998E+03 -4.58828E+02 -7.41476E+03
  3.38799E+03 -6.01344E+03  7.26091E+03 -1.99436E+03  5.81384E+03  1.42347E+03  3.94324E+03  5.88884E+03
  1.07510E+03  5.76085E+03 -1.88297E+03  4.69104E+03 -3.82508E+03  2.47884E+03 -2.89271E+03  7.42069E+02
 -9.59701E+02 -5.84120E+02 -2.12464E+03  1.21685E+03 -2.84918E+03  7.99034E+02 -4.73184E+03 -6.56511E+02
 -4.74481E+03 -2.18173E+03 -2.03684E+03 -5.29273E+03  2.98330E+03 -6.18516E+03  5.17906E+03 -2.92314E+03
  5.93427E+03  1.34570E+03  2.89804E+03  4.06197E+03 -6.84608E+02  5.70159E+03 -4.34120E+03  3.65633E+03
