 $NMID ID='MM_0lb_SNR400_10hz_g55_85.RAW', FMTDAT='(8E13.5)'
 TRAMP=1., VOLUME=1. $END
  3.10043E+05  3.42507E+02  3.38134E+05  2.51390E+05  8.46926E+04  3.38754E+05 -1.32434E+05  2.51524E+05
 -1.90662E+05  8.32893E+04 -1.13105E+05 -3.24347E+04 -2.56840E+02 -5.07646E+04  5.37458E+04 -6.94433E+02
  3.59570E+04  5.30236E+04 -1.63958E+04  7.54943E+04 -6.14299E+04  6.48135E+04 -8.53711E+04  3.22424E+04
 -8.19318E+04 -1.12027E+04 -5.73391E+04 -5.25595E+04 -1.51809E+04 -7.14126E+04  2.81558E+04 -4.66732E+04
  4.13881E+04  3.35111E+03  1.61653E+04  4.90942E+04 -3.48465E+04  4.83448E+04 -6.80047E+04  6.47285E+01
 -5.46779E+04 -5.71922E+04 -7.95628E+03 -7.89414E+04  3.50674E+04 -5.68839E+04  4.99111E+04 -1.85173E+04
  4.44345E+04  1.13767E+04  3.25339E+04  2.67472E+04  1.61015E+04  3.15654E+04 -6.03090E+03  2.80434E+04
 -2.21672E+04  1.21265E+04 -1.78323E+04 -5.32471E+03  6.73440E+03 -7.30940E+03  2.33544E+04  1.40263E+04
  6.99304E+03  3.73694E+04 -3.34764E+04  3.75069E+04 -6.60645E+04  2.05341E+03 -5.81246E+04 -4.39001E+04
 -1.23654E+04 -6.46013E+04  4.18536E+04 -4.80924E+04  6.06675E+04 -2.50235E+03  3.65337E+04  3.39009E+04
 -5.80605E+03  3.91482E+04 -3.17938E+04  1.91890E+04 -3.34996E+04 -3.04781E+03 -1.96022E+04 -1.21450E+04
 -9.24777E+03 -1.59606E+04 -1.74992E+02 -1.91617E+04  8.20132E+03 -2.36945E+04  1.52939E+04 -1.24051E+04
  1.03458E+04  6.33225E+03 -1.07001E+04  1.26557E+04 -2.33660E+04 -6.33582E+03 -8.79304E+03 -3.70088E+04
  2.50830E+04 -4.71372E+04  5.17423E+04 -2.10566E+04  4.78960E+04  2.04616E+04  1.68399E+04  4.68322E+04
 -1.68387E+04  3.52679E+04 -2.80165E+04  1.88096E+03 -1.14075E+04 -2.98236E+04  2.18371E+04 -3.68966E+04
  4.43291E+04 -1.08915E+04  4.02868E+04  2.45201E+04  2.08211E+04  5.13133E+04 -8.55742E+03  5.60932E+04
 -3.52080E+04  3.72268E+04 -4.72469E+04  1.13771E+04 -4.69091E+04 -1.84639E+04 -2.54991E+04 -4.22728E+04
  8.25829E+03 -4.20168E+04  3.38448E+04 -1.65883E+04  3.16269E+04  1.10370E+04  4.78241E+03  2.01507E+04
 -1.45227E+04  1.02750E+04 -1.11059E+04 -7.63432E+03  4.99095E+03 -1.21673E+04  1.95029E+04  5.98507E+03
  1.48845E+04  2.26823E+04 -5.50339E+03  2.67545E+04 -2.33613E+04  1.43500E+04 -3.12866E+04 -2.32464E+03
 -2.41233E+04 -1.82227E+04 -1.12916E+04 -2.54840E+04  4.59815E+03 -2.47266E+04  2.01324E+04 -2.24266E+04
  3.13332E+04 -1.40945E+04  3.75285E+04  4.40673E+03  2.66704E+04  2.38601E+04  3.69639E+03  4.09677E+04
 -1.99929E+04  3.30377E+04 -3.04025E+04  1.10861E+04 -2.21339E+04 -1.00987E+04 -4.59215E+03 -1.24944E+04
  7.49942E+02 -1.25097E+03 -8.03475E+03  8.80084E+03 -2.05029E+04  5.37158E+03 -1.97762E+04 -1.00048E+04
 -1.19232E+04 -2.18110E+04  5.92637E+03 -2.67280E+04  1.80169E+04 -1.98531E+04  2.21304E+04 -2.45655E+03
  1.42710E+04  1.60607E+04 -1.23447E+03  2.25420E+04 -1.63126E+04  1.32324E+04 -2.39779E+04 -5.29212E+03
 -1.67898E+04 -2.09952E+04 -2.63414E+03 -2.70199E+04  1.21032E+04 -2.34509E+04  2.24418E+04 -1.13450E+04
  2.08554E+04 -4.62141E+02  1.47488E+04  5.04669E+03  8.45066E+03  1.11210E+03  1.14973E+04 -2.31805E+03
  2.19948E+04  2.87389E+03  2.51595E+04  1.82507E+04  1.71503E+04  3.65129E+04 -2.38008E+03  4.35592E+04
 -2.48043E+04  3.58261E+04 -4.06881E+04  1.80931E+04 -4.25882E+04 -3.66796E+03 -3.52838E+04 -2.50673E+04
 -1.38919E+04 -3.61779E+04  1.34365E+04 -3.27658E+04  2.71192E+04 -1.45808E+04  2.29573E+04  7.34884E+03
  8.68618E+03  1.80160E+04 -1.05127E+04  1.49665E+04 -1.92347E+04  1.75105E+03 -1.46509E+04 -1.27716E+04
  1.30430E+02 -1.92153E+04  1.02377E+04 -1.37441E+04  1.27710E+04 -1.90401E+03  4.05296E+03  8.69818E+03
 -8.43518E+03  3.91484E+03 -8.78436E+03 -7.76024E+03 -1.74420E+03 -1.84839E+04  1.10485E+04 -1.96892E+04
  2.24319E+04 -1.07001E+04  2.52818E+04  2.83123E+03  2.17319E+04  1.85943E+04  1.10089E+04  2.85821E+04
 -5.39661E+03  2.96063E+04 -1.96433E+04  1.83875E+04 -2.24162E+04  3.76267E+03 -1.46458E+04 -6.03010E+03
 -6.53695E+03 -7.30598E+03 -1.15436E+03  7.03492E+02 -2.71013E+03  3.45361E+03 -7.04556E+03  5.51094E+03
 -1.37379E+04 -1.39218E+03 -1.43862E+04 -1.14874E+04 -5.49899E+03 -1.80871E+04  6.10059E+03 -1.60929E+04
  1.30888E+04 -6.30246E+03  9.19713E+03  4.57258E+03 -1.94851E+02  6.09770E+03 -7.91034E+03  3.19266E+02
 -7.80410E+03 -1.05897E+04 -9.02185E+02 -1.49948E+04  8.47246E+03 -1.59952E+04  1.95187E+04 -8.79235E+03
  2.25684E+04  2.74325E+03  1.66838E+04  1.38955E+04  3.26074E+03  1.79058E+04 -9.55541E+03  1.55434E+04
 -1.25593E+04  4.35961E+03 -5.94237E+03 -2.81284E+03  1.87279E+03 -3.85101E+03  8.14525E+03 -7.68074E+02
  6.96672E+03  7.86320E+03  1.38725E+03  1.24102E+04 -8.74513E+03  1.21473E+04 -1.56514E+04  2.08801E+03
 -1.10684E+04 -7.83232E+03 -2.23646E+02 -1.36366E+04  8.70553E+03 -6.45782E+03  8.35295E+03  3.54932E+03
  1.41758E+03  9.51882E+03 -8.80314E+03  1.11269E+04 -1.29174E+04  5.22582E+03 -1.35357E+04 -4.15194E+03
 -7.83368E+03 -1.45970E+04  4.74938E+03 -1.74648E+04  1.49153E+04 -1.02227E+04  1.51825E+04  2.53236E+03
  9.51219E+03  1.28897E+04 -2.13749E+03  1.48917E+04 -1.08737E+04  9.02736E+03 -1.23192E+04 -1.38973E+03
 -1.07257E+04 -9.99452E+03 -1.55798E+03 -1.15439E+04  5.82685E+03 -9.44241E+03  6.82769E+03 -3.82452E+03
  4.82832E+03  2.05408E+03 -8.86539E+02  1.79615E+03 -1.21336E+03 -4.19061E+03  2.46136E+03 -7.20246E+03
  1.04987E+04 -4.93899E+03  1.60166E+04  1.38364E+03  1.48865E+04  1.03369E+04  1.01815E+04  1.96893E+04
 -3.92141E+03  2.26266E+04 -1.87480E+04  1.66069E+04 -2.43851E+04  2.80145E+03 -1.92045E+04 -8.31594E+03
 -9.68793E+03 -1.64757E+04 -7.43785E+02 -1.32004E+04  5.02007E+03 -7.74621E+03  4.04586E+03 -4.33160E+03
  4.28638E+03 -3.49128E+03  4.36308E+03 -3.83858E+03  6.04645E+03 -3.36721E+03  8.01236E+03 -1.25395E+03
  1.02090E+04  2.38997E+03  4.55788E+03  8.79247E+03 -2.25745E+03  1.07905E+04 -9.92973E+03  8.26337E+03
 -1.42894E+04 -7.97772E+02 -8.65764E+03 -1.00130E+04 -8.50283E+02 -1.44244E+04  8.31009E+03 -1.47641E+04
  1.51903E+04 -8.59784E+03  1.82051E+04  2.72638E+03  1.29421E+04  1.25858E+04  2.10344E+03  1.66138E+04
 -6.61855E+03  1.24478E+04 -9.09476E+03  4.22319E+03 -6.17740E+03 -1.81713E+03 -2.34520E+03 -1.47539E+03
 -5.97890E+02 -1.40485E+02 -1.54116E+03  3.03957E+03 -6.11161E+03  2.54289E+03 -9.22023E+03 -1.08788E+03
 -6.97312E+03 -9.86786E+03 -2.54740E+02 -1.43338E+04  9.10099E+03 -1.24447E+04  1.36945E+04 -3.73278E+03
  1.34764E+04  6.63069E+03  6.41722E+03  1.24531E+04 -3.32949E+03  1.33028E+04 -9.78967E+03  8.98784E+03
 -1.28478E+04 -5.14275E+01 -1.01253E+04 -8.07875E+03 -1.99559E+02 -1.12752E+04  5.46894E+03 -8.92990E+03
  9.45930E+03 -2.58004E+03  6.15924E+03  2.25640E+03  2.80825E+03  4.54819E+03  1.70188E+03  2.37582E+03
  2.52000E+03  9.88295E+02  3.58050E+03  2.43310E+03  3.79050E+03  4.85453E+03  3.35352E+03  8.03791E+03
 -2.08901E+03  1.04981E+04 -9.12227E+03  1.10320E+04 -1.40007E+04  2.20972E+03 -1.39726E+04 -6.37100E+03
 -6.45228E+03 -1.42408E+04  2.17119E+03 -1.50659E+04  7.44129E+03 -9.81565E+03  1.14655E+04 -2.28063E+03
  8.76922E+03  5.58689E+03  2.00147E+03  7.77393E+03 -3.64621E+03  5.72781E+03 -5.85570E+03 -2.95372E+02
 -1.48560E+03 -5.49231E+03  3.77077E+03 -6.92761E+03  5.90490E+03 -3.20310E+03  5.64274E+03  9.73495E+02
  3.58155E+03  3.30853E+03  1.39190E+03  3.40986E+03 -1.00534E+03  1.48424E+03  1.90723E+03 -3.13160E+02
  2.63119E+03 -4.26269E+02  5.86451E+03  1.19678E+03  3.59106E+03  7.67024E+03 -1.26524E+03  9.70857E+03
 -5.80367E+03  6.22182E+03 -9.29430E+03  1.06456E+03 -7.99930E+03 -3.09783E+03 -3.39714E+03 -5.82362E+03
  1.17581E+03 -5.95004E+03  3.71730E+03 -2.72186E+03  2.53751E+03  3.04973E+03 -1.13151E+03  4.49653E+03
 -5.59729E+03  3.24762E+03 -6.59450E+03 -3.08229E+03 -3.58486E+03 -6.90292E+03  9.44451E+02 -7.29931E+03
  4.17568E+03 -4.34061E+03  5.34391E+03 -9.07836E+02  4.22213E+03  2.79807E+03 -6.68163E+00  4.28831E+03
 -2.87569E+03  8.25487E+02 -3.39587E+03 -2.97473E+03  6.84381E+02 -6.96791E+03  6.53551E+03 -4.69551E+03
  8.55611E+03  7.69134E+02  8.59295E+03  5.36373E+03  2.87183E+03  9.41265E+03 -3.13920E+03  8.39710E+03
 -7.32545E+03  4.17131E+03 -7.34422E+03 -1.30020E+03 -4.70044E+03 -5.91607E+03  1.29791E+03 -4.42802E+03
  5.98920E+03 -2.67692E+03  4.38865E+03  2.61870E+03  1.03188E+03  4.96671E+03 -6.84038E+01  3.81979E+03
 -2.11356E+03  3.12118E+03 -1.51528E+03  1.33898E+03 -8.45313E+02  5.08844E+02 -1.13540E+03  2.47176E+03
 -2.02503E+03  2.88146E+03 -5.95780E+03  2.27951E+03 -8.54591E+03  4.73426E+02 -1.03135E+04 -5.26134E+03
 -5.66771E+03 -1.15237E+04  2.71245E+03 -1.37865E+04  8.44322E+03 -1.04005E+04  1.31828E+04 -4.63222E+03
  1.15274E+04  1.97274E+03  6.97311E+03  8.07900E+03  4.06784E+02  9.68470E+03 -3.43895E+03  5.87236E+03
 -5.46625E+03  2.30432E+03 -3.12261E+03 -2.03768E+03 -7.68968E+02 -1.99044E+02 -4.72011E+02 -3.45387E+02
 -2.69159E+03  4.90597E+02 -2.19900E+03 -6.38522E+02 -1.66737E+02 -1.49263E+03  6.84705E+02 -3.40598E+03
  4.31183E+03 -3.00712E+03  5.55956E+03  7.65850E+02  6.02914E+03  4.60259E+03  1.40320E+03  8.36950E+03
 -4.17468E+03  1.00145E+04 -9.58655E+03  6.38770E+03 -1.08076E+04 -1.32510E+03 -8.58677E+03 -7.44656E+03
 -3.21942E+03 -9.60952E+03  2.49723E+03 -8.56431E+03  5.51669E+03 -4.91693E+03  6.09532E+03  1.11716E+03
  3.14525E+03  2.34593E+03 -1.17283E+03  2.31814E+03 -2.31588E+03  1.71897E+01 -3.04940E+02 -1.32238E+03
  3.91104E+03 -1.15584E+03  3.03734E+03  8.88181E+02  2.26004E+03  3.77484E+03 -6.51912E+01  4.61172E+03
 -4.35592E+03  3.89446E+03 -6.19021E+03  5.11202E+02 -5.56399E+03 -4.39854E+03 -1.25118E+03 -7.97897E+03
  4.21826E+03 -5.86724E+03  6.58146E+03 -2.14284E+03  6.72639E+03  1.19618E+03  3.23491E+03  6.04229E+03
  6.28403E+02  5.90502E+03 -1.33112E+03  5.08250E+03 -4.46301E+03  2.94840E+03 -3.31733E+03  7.87909E+01
 -1.59963E+03 -1.67242E+02 -1.84815E+03  6.41878E+02 -3.50330E+03  1.35030E+03 -4.55719E+03 -1.51265E+03
 -3.96805E+03 -2.98420E+03 -1.25030E+03 -6.16093E+03  3.09043E+03 -7.08143E+03  5.34751E+03 -3.35949E+03
  5.46095E+03  7.97647E+02  3.75552E+03  3.73931E+03 -3.30103E+02  5.63828E+03 -4.20969E+03  3.91938E+03
