 $NMID ID='MM_0lb_SNR400_9hz_g50_97.RAW', FMTDAT='(8E13.5)'
 TRAMP=1., VOLUME=1. $END
  3.09897E+05  4.32926E+02  3.38099E+05  2.50555E+05  8.58635E+04  3.38256E+05 -1.32218E+05  2.51904E+05
 -1.91281E+05  8.37439E+04 -1.12905E+05 -3.24611E+04  7.04923E+02 -5.12528E+04  5.37728E+04 -3.27158E+02
  3.61053E+04  5.33151E+04 -1.74246E+04  7.55821E+04 -6.12079E+04  6.47226E+04 -8.44685E+04  3.31961E+04
 -8.25911E+04 -1.02187E+04 -5.82520E+04 -5.26107E+04 -1.56319E+04 -7.12677E+04  2.76719E+04 -4.65593E+04
  4.14361E+04  3.75245E+03  1.78598E+04  4.87330E+04 -3.44570E+04  4.83521E+04 -6.79015E+04 -5.30332E+02
 -5.43522E+04 -5.76119E+04 -7.50332E+03 -7.85201E+04  3.41501E+04 -5.75588E+04  4.94468E+04 -1.86964E+04
  4.56438E+04  1.16921E+04  3.31476E+04  2.72238E+04  1.57891E+04  3.02354E+04 -6.45979E+03  2.81011E+04
 -2.24203E+04  1.18137E+04 -1.82235E+04 -6.24911E+03  6.55420E+03 -7.71824E+03  2.34090E+04  1.29750E+04
  7.15724E+03  3.70383E+04 -3.42344E+04  3.70690E+04 -6.54391E+04  2.40639E+03 -5.84228E+04 -4.43435E+04
 -1.25404E+04 -6.53296E+04  4.19116E+04 -4.72024E+04  6.14469E+04 -2.82467E+03  3.62340E+04  3.40681E+04
 -5.90521E+03  3.87083E+04 -3.18902E+04  1.92023E+04 -3.34803E+04 -3.12131E+03 -1.89172E+04 -1.29510E+04
 -9.11222E+03 -1.49519E+04 -3.66432E+02 -2.00683E+04  9.01057E+03 -2.29255E+04  1.58934E+04 -1.20925E+04
  1.09833E+04  6.35372E+03 -1.01212E+04  1.33721E+04 -2.42161E+04 -6.55477E+03 -9.28193E+03 -3.70665E+04
  2.50782E+04 -4.66127E+04  5.18430E+04 -2.06663E+04  4.89121E+04  2.12087E+04  1.82812E+04  4.74955E+04
 -1.60467E+04  3.58557E+04 -2.81386E+04  2.92554E+03 -1.13570E+04 -2.89006E+04  2.13884E+04 -3.72635E+04
  4.47111E+04 -9.99358E+03  4.10483E+04  2.47290E+04  2.23847E+04  5.08474E+04 -8.32683E+03  5.52279E+04
 -3.52473E+04  3.79021E+04 -4.74610E+04  1.10655E+04 -4.71627E+04 -1.87025E+04 -2.50779E+04 -4.17623E+04
  7.57230E+03 -4.23278E+04  3.38343E+04 -1.64769E+04  3.27126E+04  1.09817E+04  5.34484E+03  2.01047E+04
 -1.40472E+04  9.85694E+03 -1.08229E+04 -7.26909E+03  5.95334E+03 -1.08452E+04  1.85189E+04  5.20530E+03
  1.43015E+04  2.30160E+04 -5.55712E+03  2.59720E+04 -2.31630E+04  1.45428E+04 -3.17265E+04 -2.20119E+03
 -2.60087E+04 -1.86390E+04 -1.13947E+04 -2.50619E+04  4.40191E+03 -2.56477E+04  1.92114E+04 -2.21786E+04
  3.27601E+04 -1.49228E+04  3.85071E+04  5.00210E+03  2.64648E+04  2.41868E+04  4.43835E+03  4.09019E+04
 -2.02153E+04  3.40074E+04 -3.09363E+04  1.16296E+04 -2.17925E+04 -1.01359E+04 -4.59884E+03 -1.29823E+04
  8.82346E+02 -1.78257E+03 -7.85472E+03  8.38212E+03 -2.07189E+04  4.35569E+03 -2.09787E+04 -9.79111E+03
 -1.20906E+04 -2.27575E+04  5.92458E+03 -2.82765E+04  1.90220E+04 -2.04540E+04  2.31379E+04 -1.99947E+03
  1.40551E+04  1.62826E+04 -8.98286E+02  2.37655E+04 -1.60506E+04  1.29762E+04 -2.31615E+04 -4.56989E+03
 -1.80612E+04 -2.13661E+04 -1.35940E+03 -2.70218E+04  1.28465E+04 -2.36355E+04  2.31499E+04 -1.17942E+04
  2.13185E+04 -1.81402E+02  1.56228E+04  5.16154E+03  9.64655E+03  9.97836E+02  1.28271E+04 -1.88583E+03
  2.22408E+04  2.63642E+03  2.51394E+04  1.76934E+04  1.72717E+04  3.72751E+04 -2.52539E+03  4.37035E+04
 -2.51017E+04  3.63903E+04 -4.19616E+04  1.90921E+04 -4.46160E+04 -3.16098E+03 -3.58173E+04 -2.63051E+04
 -1.48611E+04 -3.69533E+04  1.23670E+04 -3.23375E+04  2.81470E+04 -1.48498E+04  2.39639E+04  7.90228E+03
  8.13401E+03  1.82410E+04 -1.25371E+04  1.55820E+04 -2.08547E+04  2.68786E+03 -1.56751E+04 -1.27503E+04
 -7.92667E+02 -1.94110E+04  9.85184E+03 -1.41442E+04  1.32123E+04 -1.01720E+03  3.72290E+03  9.48418E+03
 -8.46735E+03  3.44196E+03 -9.06538E+03 -7.00982E+03 -1.38861E+03 -1.76754E+04  1.21707E+04 -2.04966E+04
  2.28906E+04 -1.08546E+04  2.64832E+04  3.25183E+03  2.28436E+04  1.71781E+04  1.04685E+04  2.88850E+04
 -5.20631E+03  3.09062E+04 -2.11006E+04  1.90458E+04 -2.32674E+04  4.00779E+03 -1.54183E+04 -6.26262E+03
 -6.72830E+03 -6.84242E+03 -5.10098E+02 -6.02728E+00 -2.42425E+03  3.93558E+03 -7.43888E+03  5.38723E+03
 -1.43235E+04 -4.76524E+02 -1.51187E+04 -1.19208E+04 -4.93923E+03 -1.97093E+04  5.51295E+03 -1.62110E+04
  1.27435E+04 -7.26278E+03  9.54933E+03  4.38861E+03 -1.28445E+02  5.60557E+03 -7.76045E+03 -1.03132E+02
 -7.17320E+03 -1.04699E+04 -1.39080E+03 -1.55753E+04  9.06545E+03 -1.69616E+04  1.88502E+04 -8.59423E+03
  2.39193E+04  2.92482E+03  1.73017E+04  1.45699E+04  3.50152E+03  1.87296E+04 -9.83545E+03  1.51731E+04
 -1.27828E+04  5.44180E+03 -7.04905E+03 -3.69691E+03  2.55392E+03 -5.45842E+03  8.56480E+03  4.34455E+01
  7.79291E+03  7.26213E+03  1.84751E+03  1.25402E+04 -9.45101E+03  1.24774E+04 -1.50316E+04  2.83013E+03
 -1.04346E+04 -8.29348E+03 -3.44435E+02 -1.31923E+04  8.69563E+03 -6.10113E+03  9.95367E+03  3.99780E+03
  2.70707E+03  9.85650E+03 -8.16275E+03  1.16154E+04 -1.41798E+04  4.34884E+03 -1.35859E+04 -5.09482E+03
 -8.09590E+03 -1.59042E+04  4.75435E+03 -1.90226E+04  1.50871E+04 -1.08060E+04  1.67915E+04  2.89827E+03
  9.87587E+03  1.37498E+04 -1.94919E+03  1.58316E+04 -1.23612E+04  8.31421E+03 -1.24195E+04 -1.66388E+03
 -1.02216E+04 -9.89235E+03 -1.87185E+03 -1.25148E+04  6.24036E+03 -9.48897E+03  7.06427E+03 -4.42651E+03
  5.11672E+03  1.98223E+03 -1.12731E+03  1.86716E+03 -9.66127E+02 -3.12108E+03  3.22917E+03 -7.32602E+03
  1.10019E+04 -4.62154E+03  1.65724E+04  1.99576E+03  1.54363E+04  1.06603E+04  9.70764E+03  2.16592E+04
 -5.28878E+03  2.43916E+04 -1.96238E+04  1.69771E+04 -2.59694E+04  3.29876E+03 -2.09798E+04 -9.34787E+03
 -1.00625E+04 -1.65369E+04 -5.21271E+02 -1.47733E+04  4.63181E+03 -8.32772E+03  4.76602E+03 -5.17277E+03
  3.30497E+03 -3.09017E+03  3.28774E+03 -3.85052E+03  6.33770E+03 -4.37625E+03  7.60143E+03 -1.05739E+03
  1.05825E+04  2.47141E+03  6.22057E+03  9.53919E+03 -3.14702E+03  1.10813E+04 -1.10974E+04  8.21234E+03
 -1.46721E+04 -1.23756E+03 -9.26055E+03 -1.01868E+04 -1.58439E+03 -1.58132E+04  8.75581E+03 -1.56356E+04
  1.63998E+04 -8.97526E+03  1.97401E+04  2.49700E+03  1.35382E+04  1.33671E+04  2.80512E+03  1.68995E+04
 -7.13736E+03  1.46008E+04 -1.04951E+04  5.16347E+03 -6.99797E+03 -1.45863E+03 -3.04151E+03 -2.12534E+03
 -1.73393E+03 -5.15498E+02 -2.65130E+03  2.99923E+03 -5.97893E+03  2.16409E+03 -1.04451E+04 -4.94838E+02
 -7.35352E+03 -9.89670E+03 -1.68315E+02 -1.43594E+04  8.89775E+03 -1.39365E+04  1.52344E+04 -4.08720E+03
  1.42070E+04  7.40538E+03  6.41732E+03  1.31737E+04 -3.29376E+03  1.52223E+04 -1.06705E+04  9.23388E+03
 -1.50214E+04  6.31355E+02 -1.06929E+04 -8.98771E+03 -6.98086E+02 -1.21685E+04  7.51808E+03 -9.47953E+03
  1.01858E+04 -3.13995E+03  6.42683E+03  1.49925E+03  2.22236E+03  4.68761E+03  1.32262E+03  1.85305E+03
  2.33067E+03  8.21804E+02  3.89238E+03  2.01313E+03  4.50224E+03  5.28567E+03  3.82335E+03  8.21619E+03
 -2.36038E+03  1.13787E+04 -1.14236E+04  1.14260E+04 -1.46470E+04  3.28043E+03 -1.53595E+04 -6.47500E+03
 -7.00776E+03 -1.56512E+04  2.54386E+03 -1.67009E+04  9.71150E+03 -1.05218E+04  1.30153E+04 -2.78853E+03
  9.50649E+03  5.05838E+03  1.61963E+03  9.01241E+03 -4.23903E+03  5.72736E+03 -6.34000E+03 -1.14502E+03
 -2.99036E+03 -6.29184E+03  3.28977E+03 -7.03362E+03  6.28217E+03 -3.62988E+03  6.00151E+03  8.79908E+02
  2.96553E+03  3.29714E+03  1.67071E+03  2.60872E+03 -2.59578E+02  2.37887E+03  1.53574E+03 -2.80766E+02
  2.82975E+03 -1.15139E+03  6.50499E+03  2.02511E+03  3.22098E+03  8.09015E+03 -1.52525E+03  1.06829E+04
 -6.89894E+03  7.50001E+03 -9.64318E+03  1.56795E+03 -8.16172E+03 -4.19560E+03 -4.54746E+03 -6.49099E+03
 -4.20187E+02 -6.68726E+03  4.43796E+03 -3.03637E+03  3.37040E+03  3.36161E+03 -1.02782E+03  4.51862E+03
 -6.84161E+03  3.65337E+03 -7.02705E+03 -3.69597E+03 -5.36591E+03 -8.40450E+03  9.62152E+02 -7.93762E+03
  5.29515E+03 -5.57325E+03  5.97999E+03 -5.04639E+01  6.37423E+03  2.58947E+03  1.06426E+03  4.54469E+03
 -3.35837E+03  1.62407E+03 -4.39683E+03 -2.25000E+03  7.61130E+02 -6.93962E+03  7.57397E+03 -4.91324E+03
  9.81599E+03  4.28705E+02  9.79645E+03  6.50440E+03  2.93263E+03  1.03671E+04 -3.35713E+03  9.47564E+03
 -8.46477E+03  3.35987E+03 -8.46976E+03 -1.43204E+03 -4.87128E+03 -7.23086E+03  1.34260E+03 -6.55243E+03
  5.31037E+03 -2.71240E+03  5.66578E+03  2.19545E+03  1.68242E+03  6.06002E+03 -1.09288E+03  4.47301E+03
 -3.07970E+03  3.42434E+03 -2.83250E+03  9.70010E+02 -9.96794E+02  1.28445E+03 -8.46467E+02  2.05772E+03
 -2.40343E+03  3.44878E+03 -6.50611E+03  3.32037E+03 -9.28206E+03 -1.94186E+01 -1.11218E+04 -7.37542E+03
 -5.22867E+03 -1.29042E+04  2.62299E+03 -1.61897E+04  9.85273E+03 -1.22442E+04  1.43337E+04 -4.73361E+03
  1.42133E+04  3.20140E+03  7.93344E+03  8.73192E+03  2.46426E+02  1.08633E+04 -3.88310E+03  8.10241E+03
 -5.91780E+03  2.85394E+03 -3.90539E+03 -8.46807E+02 -8.38536E+02 -1.31728E+03 -3.88985E+02  7.19313E+02
 -1.70971E+03 -1.10205E+01 -2.45940E+03 -2.89949E+01 -6.76678E+02 -3.36779E+03  1.06371E+02 -3.76187E+03
  4.57952E+03 -2.56553E+03  6.40242E+03 -2.37842E+02  7.11029E+03  5.49806E+03  1.35766E+03  1.00719E+04
 -5.43824E+03  1.19717E+04 -1.10418E+04  6.74197E+03 -1.33639E+04 -5.47028E+02 -9.33832E+03 -7.04068E+03
 -4.24423E+03 -1.08503E+04  3.12159E+03 -9.52877E+03  7.73520E+03 -4.72204E+03  7.66697E+03  2.55728E+02
  3.63946E+03  3.35436E+03  6.77016E+01  2.22918E+03 -2.31410E+03 -3.09689E+02  6.31591E+01 -2.63493E+03
  3.84270E+03 -1.58887E+03  4.65205E+03  1.51289E+03  2.63262E+03  4.53942E+03 -3.70537E+02  5.96268E+03
 -4.82222E+03  5.10112E+03 -7.31960E+03  4.45882E+02 -6.73354E+03 -4.69629E+03 -1.87579E+03 -8.76088E+03
  5.49274E+03 -7.83834E+03  8.26613E+03 -2.81276E+03  7.88509E+03  2.22198E+03  5.16850E+03  6.39990E+03
  7.80374E+02  6.92833E+03 -1.90571E+03  5.95555E+03 -4.94760E+03  3.11542E+03 -3.28788E+03 -2.26089E+02
 -1.38656E+03  3.66969E+02 -2.26079E+03  3.34521E+02 -3.84412E+03  1.48596E+03 -5.04831E+03 -9.81392E+02
 -5.06813E+03 -3.25305E+03 -8.39103E+02 -6.85505E+03  2.67812E+03 -7.45786E+03  6.97613E+03 -3.35101E+03
  7.08364E+03  9.64501E+02  3.52394E+03  5.35775E+03 -7.74379E+02  5.89473E+03 -5.98421E+03  3.24217E+03
