 $NMID ID='MM_0lb_SNR400_11hz_g60_19.RAW', FMTDAT='(8E13.5)'
 TRAMP=1., VOLUME=1. $END
  3.09676E+05  1.81137E+02  3.37975E+05  2.51551E+05  8.46405E+04  3.38783E+05 -1.32454E+05  2.52043E+05
 -1.90980E+05  8.35281E+04 -1.12214E+05 -3.25749E+04  1.39303E+01 -5.09078E+04  5.37408E+04 -6.72201E+02
  3.46886E+04  5.31615E+04 -1.59635E+04  7.59374E+04 -6.08980E+04  6.53455E+04 -8.54890E+04  3.20381E+04
 -8.22094E+04 -1.20580E+04 -5.78905E+04 -5.27934E+04 -1.52633E+04 -7.05626E+04  2.79343E+04 -4.61771E+04
  4.08345E+04  3.33745E+03  1.61982E+04  4.86062E+04 -3.46992E+04  4.79994E+04 -6.76541E+04  2.24547E+02
 -5.40526E+04 -5.77559E+04 -7.63899E+03 -7.92921E+04  3.43874E+04 -5.74124E+04  4.94160E+04 -1.78160E+04
  4.52638E+04  1.16101E+04  3.26134E+04  2.60807E+04  1.53233E+04  3.02189E+04 -4.88051E+03  2.65573E+04
 -2.27033E+04  1.20455E+04 -1.80029E+04 -5.87119E+03  6.19581E+03 -8.16288E+03  2.36756E+04  1.35573E+04
  6.91136E+03  3.71212E+04 -3.35204E+04  3.67898E+04 -6.53259E+04  2.23965E+03 -5.83970E+04 -4.41532E+04
 -1.21067E+04 -6.53923E+04  4.12004E+04 -4.70823E+04  6.11326E+04 -2.53334E+03  3.63717E+04  3.43751E+04
 -5.06152E+03  3.89821E+04 -3.18907E+04  1.91630E+04 -3.26473E+04 -4.58981E+03 -1.92074E+04 -1.20875E+04
 -9.94217E+03 -1.53653E+04 -7.78776E+02 -1.95693E+04  7.58526E+03 -2.37048E+04  1.57112E+04 -1.21679E+04
  1.07859E+04  5.47401E+03 -1.01476E+04  1.21600E+04 -2.25770E+04 -7.03057E+03 -8.84836E+03 -3.72088E+04
  2.48175E+04 -4.58505E+04  5.12136E+04 -2.14894E+04  4.83782E+04  2.04279E+04  1.69017E+04  4.63453E+04
 -1.67902E+04  3.61682E+04 -2.71600E+04  2.60705E+03 -1.17759E+04 -2.95725E+04  2.11317E+04 -3.65644E+04
  4.38824E+04 -1.10820E+04  4.06738E+04  2.50437E+04  2.06310E+04  5.01886E+04 -8.14170E+03  5.48041E+04
 -3.53517E+04  3.76285E+04 -4.62842E+04  1.13713E+04 -4.68825E+04 -1.78031E+04 -2.55648E+04 -4.14857E+04
  7.78549E+03 -4.16537E+04  3.30892E+04 -1.66968E+04  3.16997E+04  1.10403E+04  5.09540E+03  2.00792E+04
 -1.33854E+04  9.66558E+03 -1.12813E+04 -7.64353E+03  5.57623E+03 -1.15523E+04  1.90400E+04  5.69003E+03
  1.45205E+04  2.22815E+04 -6.10118E+03  2.69850E+04 -2.35777E+04  1.32076E+04 -3.07056E+04 -3.19044E+03
 -2.51388E+04 -1.80198E+04 -1.12927E+04 -2.36689E+04  3.85976E+03 -2.51315E+04  1.94454E+04 -2.26174E+04
  3.12122E+04 -1.35923E+04  3.75316E+04  5.12356E+03  2.70142E+04  2.36584E+04  4.07716E+03  4.03645E+04
 -1.97625E+04  3.33732E+04 -2.97151E+04  1.06445E+04 -2.12419E+04 -9.78927E+03 -4.25977E+03 -1.22166E+04
  1.35223E+03 -1.20361E+03 -7.16728E+03  7.93961E+03 -1.96469E+04  4.68140E+03 -2.01494E+04 -8.84217E+03
 -1.21402E+04 -2.21664E+04  6.00968E+03 -2.70533E+04  1.79562E+04 -1.99010E+04  2.17823E+04 -2.28924E+03
  1.33050E+04  1.58675E+04 -1.45374E+03  2.23414E+04 -1.56752E+04  1.29056E+04 -2.28816E+04 -4.61807E+03
 -1.60501E+04 -2.03473E+04 -2.07427E+03 -2.69578E+04  1.27731E+04 -2.29612E+04  2.22586E+04 -1.13285E+04
  2.11275E+04 -1.77534E+02  1.59311E+04  4.48688E+03  8.74991E+03  1.01662E+03  1.22610E+04 -1.81318E+03
  2.13541E+04  3.28858E+03  2.36872E+04  1.76403E+04  1.65238E+04  3.59547E+04 -2.39487E+03  4.18270E+04
 -2.42284E+04  3.49029E+04 -4.01606E+04  1.87110E+04 -4.19785E+04 -3.30831E+03 -3.42237E+04 -2.50622E+04
 -1.41761E+04 -3.51458E+04  1.20070E+04 -3.13500E+04  2.68204E+04 -1.53087E+04  2.34766E+04  7.78943E+03
  7.95254E+03  1.80505E+04 -1.12470E+04  1.51921E+04 -1.96333E+04  2.08888E+03 -1.48189E+04 -1.24857E+04
 -2.93026E+01 -1.88185E+04  1.09202E+04 -1.39563E+04  1.21463E+04 -6.81329E+02  3.40165E+03  8.73380E+03
 -8.59258E+03  3.99796E+03 -8.68044E+03 -6.40188E+03 -1.94074E+03 -1.70176E+04  1.20614E+04 -1.88282E+04
  2.12589E+04 -1.06790E+04  2.35287E+04  2.88912E+03  2.12296E+04  1.75528E+04  9.33736E+03  2.75022E+04
 -4.96201E+03  2.87917E+04 -1.90055E+04  1.87973E+04 -2.12515E+04  3.41127E+03 -1.40205E+04 -5.65424E+03
 -6.40936E+03 -6.90600E+03 -6.06487E+02  1.15187E+03 -2.73019E+03  3.69386E+03 -7.17834E+03  5.40232E+03
 -1.38388E+04 -1.30098E+03 -1.41782E+04 -1.15114E+04 -5.84888E+03 -1.73293E+04  5.69453E+03 -1.44490E+04
  1.23200E+04 -5.75423E+03  8.46467E+03  3.71599E+03 -4.54059E+02  6.18068E+03 -7.25998E+03 -4.17973E+02
 -5.90447E+03 -9.53769E+03 -1.40701E+03 -1.42170E+04  8.30055E+03 -1.51915E+04  1.90229E+04 -7.75229E+03
  2.15970E+04  2.37837E+03  1.60055E+04  1.30783E+04  3.64243E+03  1.79073E+04 -8.49891E+03  1.46080E+04
 -1.24624E+04  4.41727E+03 -5.98642E+03 -3.41508E+03  1.42733E+03 -4.23314E+03  7.90909E+03 -6.27515E+02
  6.57282E+03  6.41482E+03  9.38531E+02  1.09238E+04 -8.55258E+03  1.17629E+04 -1.44171E+04  3.06426E+03
 -1.09450E+04 -8.02095E+03  2.25556E+02 -1.26711E+04  8.47454E+03 -6.03307E+03  8.49496E+03  3.54947E+03
  1.79003E+03  8.98624E+03 -7.39542E+03  1.11936E+04 -1.17712E+04  4.66495E+03 -1.21603E+04 -4.71807E+03
 -7.34751E+03 -1.45751E+04  3.18994E+03 -1.59288E+04  1.49526E+04 -9.66369E+03  1.49250E+04  2.49625E+03
  9.16231E+03  1.16833E+04 -1.71576E+03  1.42711E+04 -1.03801E+04  8.07043E+03 -1.10294E+04 -1.57801E+03
 -1.03207E+04 -1.00059E+04 -1.63161E+03 -1.14148E+04  5.71821E+03 -8.84147E+03  6.12588E+03 -3.35886E+03
  4.44277E+03  2.70901E+03 -7.07233E+02  1.75266E+03 -3.80676E+02 -2.52837E+03  2.15649E+03 -7.17454E+03
  9.70007E+03 -5.01264E+03  1.43170E+04  2.07631E+03  1.40001E+04  9.46384E+03  9.44639E+03  1.85461E+04
 -4.31711E+03  2.10300E+04 -1.73045E+04  1.57448E+04 -2.33800E+04  2.96496E+03 -1.88775E+04 -6.96199E+03
 -9.56153E+03 -1.49186E+04 -2.22675E+02 -1.23271E+04  4.92839E+03 -6.96162E+03  3.66919E+03 -4.65694E+03
  3.53459E+03 -3.15191E+03  3.79068E+03 -3.34110E+03  5.06236E+03 -3.73806E+03  6.70287E+03 -8.32866E+02
  9.06535E+03  2.23230E+03  4.37674E+03  8.27159E+03 -1.62840E+03  9.74824E+03 -1.07786E+04  7.38699E+03
 -1.32958E+04 -1.86698E+03 -8.22076E+03 -9.10616E+03 -7.96172E+02 -1.43922E+04  7.68356E+03 -1.36018E+04
  1.41662E+04 -7.46680E+03  1.72407E+04  1.84223E+03  1.20436E+04  1.19554E+04  1.19352E+03  1.58445E+04
 -7.17490E+03  1.33613E+04 -8.83493E+03  4.56592E+03 -6.21228E+03 -2.45521E+03 -2.81504E+03 -2.14141E+03
 -1.24548E+03 -4.52808E+02 -2.11121E+03  3.00328E+03 -5.38248E+03  1.87610E+03 -9.23321E+03 -1.10357E+03
 -6.64777E+03 -9.47243E+03  2.30027E+02 -1.29481E+04  7.57868E+03 -1.21049E+04  1.24286E+04 -3.81700E+03
  1.22364E+04  6.03614E+03  6.13676E+03  1.11119E+04 -2.47583E+03  1.22912E+04 -8.97762E+03  8.35629E+03
 -1.14738E+04  9.01720E+02 -9.25832E+03 -7.04442E+03 -8.80886E+02 -1.04578E+04  5.55163E+03 -7.72353E+03
  8.34676E+03 -3.54608E+03  5.29670E+03  2.42775E+03  1.40562E+03  4.06563E+03  9.58977E+02  2.10101E+03
  1.98140E+03  1.40454E+03  2.96080E+03  2.31794E+03  3.39144E+03  4.71833E+03  3.05069E+03  6.94207E+03
 -2.18171E+03  1.01643E+04 -8.31377E+03  9.39256E+03 -1.28738E+04  3.02139E+03 -1.35939E+04 -5.59872E+03
 -6.56695E+03 -1.31885E+04  1.69724E+03 -1.32528E+04  7.17616E+03 -8.32066E+03  1.03047E+04 -1.93316E+03
  7.65671E+03  5.01757E+03  1.80293E+03  6.95500E+03 -3.14608E+03  4.47257E+03 -4.93819E+03 -1.41358E+03
 -2.44871E+03 -5.46559E+03  2.89157E+03 -5.50546E+03  5.49032E+03 -2.50659E+03  5.85671E+03  1.67732E+03
  3.26841E+03  2.58720E+03  1.04138E+03  2.08633E+03 -3.77494E+02  1.56928E+03  1.34522E+03 -2.24768E+02
  1.55443E+03  8.13048E+01  5.10731E+03  1.77513E+03  2.75461E+03  6.58016E+03 -1.19218E+03  9.10769E+03
 -5.86744E+03  5.43434E+03 -6.84773E+03  1.91059E+03 -7.38876E+03 -1.98657E+03 -2.82967E+03 -4.89584E+03
  7.88507E+02 -4.28338E+03  2.88361E+03 -2.78630E+03  2.48464E+03  2.44001E+03 -1.61105E+03  3.65566E+03
 -5.72608E+03  2.65512E+03 -5.91678E+03 -2.70260E+03 -4.08386E+03 -6.68907E+03  6.79906E+02 -6.53653E+03
  3.14951E+03 -4.07053E+03  5.50638E+03 -3.33234E+01  3.97202E+03  8.98960E+02  3.76513E+02  3.85503E+03
 -1.81745E+03  1.16078E+03 -3.78695E+03 -1.46754E+03  9.53668E+02 -5.62969E+03  5.98793E+03 -4.54470E+03
  6.81986E+03  4.59052E+02  7.95663E+03  5.03872E+03  2.39836E+03  7.98432E+03 -2.66361E+03  7.22973E+03
 -6.40967E+03  2.76353E+03 -7.07923E+03 -3.98424E+02 -3.34397E+03 -5.28496E+03  1.54527E+03 -5.37196E+03
  5.57131E+03 -2.61010E+03  4.08376E+03  2.74050E+03  1.73689E+03  4.35599E+03 -4.11789E+02  3.84438E+03
 -2.03881E+03  2.65173E+03 -1.66704E+03  7.41277E+02 -1.43938E+03  1.29421E+03 -1.58991E+03  2.03497E+03
 -2.19565E+03  3.15658E+03 -5.48415E+03  2.69357E+03 -7.42740E+03  5.22480E+02 -8.63677E+03 -5.28610E+03
 -4.83146E+03 -1.03908E+04  2.18853E+03 -1.17409E+04  7.62432E+03 -9.04571E+03  1.11404E+04 -4.22782E+03
  1.01651E+04  2.00209E+03  5.60276E+03  7.14008E+03  8.18931E+02  8.60536E+03 -3.74901E+03  6.15392E+03
 -4.84663E+03  2.58508E+03 -2.07237E+03 -9.70705E+02 -1.11984E+03 -8.68511E+02 -7.44674E+02 -1.19963E+01
 -1.21246E+03 -2.48547E+01 -1.84935E+03  4.08430E+02 -4.23939E+02 -1.07771E+03 -4.86673E+01 -3.07582E+03
  3.97691E+03 -2.44264E+03  4.28373E+03 -5.61850E+02  4.76880E+03  4.72181E+03  5.30613E+02  7.49748E+03
 -3.55786E+03  8.72501E+03 -8.00541E+03  5.37998E+03 -9.84380E+03 -6.61478E+02 -7.46402E+03 -5.50032E+03
 -2.93500E+03 -7.85476E+03  1.99546E+03 -6.88394E+03  4.19383E+03 -3.45982E+03  4.75122E+03  3.92587E+02
  3.24440E+03  2.47263E+03 -3.50225E+02  2.07871E+03 -1.09553E+03 -1.18943E+02 -8.33024E+02 -1.76324E+03
  3.12083E+03 -6.94241E+02  3.41065E+03  1.27115E+03  2.21830E+03  2.79748E+03 -1.42586E+02  3.70081E+03
 -2.38193E+03  3.66043E+03 -5.29203E+03  6.96757E+02 -4.12627E+03 -3.17070E+03 -2.22730E+02 -6.44774E+03
  2.62936E+03 -5.45969E+03  5.44375E+03 -1.63877E+03  5.65647E+03  3.17016E+02  3.67833E+03  4.35214E+03
  8.00850E+02  5.16542E+03 -2.46166E+03  4.30826E+03 -3.20183E+03  2.25991E+03 -2.63886E+03  3.84933E+02
 -1.42089E+03 -5.05627E+02 -1.94136E+03 -4.88678E+02 -3.06413E+03  1.19745E+03 -4.27540E+03 -5.50665E+02
 -3.93954E+03 -2.55789E+03 -1.12179E+03 -5.28880E+03  2.03872E+03 -5.78044E+03  3.79167E+03 -1.82472E+03
  4.48528E+03  7.83553E+02  2.52419E+03  3.35936E+03 -1.21603E+02  4.52247E+03 -3.69828E+03  3.35964E+03
