 $NMID ID='MM_0lb_SNR400_7hz_g45_93.RAW', FMTDAT='(8E13.5)'
 TRAMP=1., VOLUME=1. $END
  3.09613E+05  6.15032E+02  3.38285E+05  2.50800E+05  8.45565E+04  3.38950E+05 -1.32469E+05  2.51205E+05
 -1.91295E+05  8.30344E+04 -1.12436E+05 -3.21268E+04 -2.34341E+02 -5.11260E+04  5.48996E+04 -5.33534E+01
  3.57357E+04  5.29625E+04 -1.77947E+04  7.64587E+04 -6.10253E+04  6.46483E+04 -8.54255E+04  3.21817E+04
 -8.35743E+04 -1.16584E+04 -5.85436E+04 -5.28175E+04 -1.55132E+04 -7.09670E+04  2.89194E+04 -4.74282E+04
  4.10690E+04  3.83523E+03  1.72809E+04  4.92867E+04 -3.49630E+04  4.78958E+04 -6.81641E+04  2.20260E+02
 -5.45503E+04 -5.91265E+04 -7.21595E+03 -7.89261E+04  3.43848E+04 -5.75599E+04  5.14363E+04 -1.93154E+04
  4.50026E+04  1.10700E+04  3.33646E+04  2.65029E+04  1.61920E+04  3.20026E+04 -6.33376E+03  2.72555E+04
 -2.23810E+04  1.27535E+04 -1.86430E+04 -6.37649E+03  8.17065E+03 -8.29304E+03  2.42613E+04  1.46083E+04
  6.80256E+03  3.89965E+04 -3.48947E+04  3.78439E+04 -6.67980E+04  2.10185E+03 -5.95162E+04 -4.46532E+04
 -1.21961E+04 -6.61537E+04  4.17826E+04 -4.73363E+04  6.22123E+04 -2.54038E+03  3.77846E+04  3.46314E+04
 -6.17709E+03  3.99945E+04 -3.29930E+04  2.09385E+04 -3.43880E+04 -3.43739E+03 -2.03061E+04 -1.22669E+04
 -1.05961E+04 -1.54271E+04 -1.20994E+03 -2.09193E+04  9.01801E+03 -2.51662E+04  1.55349E+04 -1.28126E+04
  1.04980E+04  6.22737E+03 -1.16267E+04  1.38080E+04 -2.38889E+04 -7.15138E+03 -8.79082E+03 -3.82595E+04
  2.55492E+04 -4.72114E+04  5.34856E+04 -2.21352E+04  4.96329E+04  2.15024E+04  1.72368E+04  4.89077E+04
 -1.77908E+04  3.69571E+04 -2.79922E+04  2.86767E+03 -1.20456E+04 -2.93605E+04  2.18861E+04 -3.84401E+04
  4.65620E+04 -1.14057E+04  4.20636E+04  2.56889E+04  2.29496E+04  5.27133E+04 -8.11247E+03  5.78646E+04
 -3.76960E+04  4.02992E+04 -5.01196E+04  1.17985E+04 -4.86164E+04 -1.92687E+04 -2.73367E+04 -4.35695E+04
  7.89921E+03 -4.34880E+04  3.52896E+04 -1.80413E+04  3.25065E+04  1.19158E+04  5.56157E+03  2.19608E+04
 -1.41690E+04  1.00833E+04 -1.20511E+04 -7.45882E+03  5.67374E+03 -1.06344E+04  1.90191E+04  6.26378E+03
  1.55637E+04  2.27339E+04 -4.86175E+03  2.71720E+04 -2.40402E+04  1.51335E+04 -3.29630E+04 -2.24922E+03
 -2.59157E+04 -1.89820E+04 -1.23697E+04 -2.70073E+04  5.26049E+03 -2.82437E+04  2.08392E+04 -2.50088E+04
  3.42164E+04 -1.53195E+04  3.99378E+04  5.59542E+03  2.83571E+04  2.47364E+04  4.82149E+03  4.28840E+04
 -2.04645E+04  3.48892E+04 -3.16287E+04  1.31984E+04 -2.28186E+04 -9.03423E+03 -4.52664E+03 -1.25625E+04
  2.23282E+02 -5.05179E+02 -7.55839E+03  8.32852E+03 -2.14984E+04  5.00428E+03 -2.08281E+04 -1.08044E+04
 -1.15704E+04 -2.45228E+04  6.38076E+03 -2.98725E+04  2.01099E+04 -2.06928E+04  2.36491E+04 -2.30791E+03
  1.61609E+04  1.73772E+04 -2.42273E+03  2.50279E+04 -1.82222E+04  1.38130E+04 -2.51714E+04 -5.63360E+03
 -1.84758E+04 -2.28700E+04 -2.78783E+03 -2.95669E+04  1.33715E+04 -2.47686E+04  2.48270E+04 -1.43686E+04
  2.30222E+04 -3.62520E+02  1.74196E+04  5.14515E+03  9.66592E+03  1.80809E+03  1.33500E+04 -2.69945E+03
  2.29811E+04  2.56074E+03  2.78154E+04  1.91582E+04  1.94440E+04  4.01928E+04 -1.89836E+03  4.80686E+04
 -2.73442E+04  4.11033E+04 -4.57968E+04  2.05697E+04 -4.90667E+04 -3.02957E+03 -3.95547E+04 -2.94068E+04
 -1.52091E+04 -4.09962E+04  1.50197E+04 -3.59138E+04  3.12175E+04 -1.55333E+04  2.55779E+04  9.34587E+03
  9.44517E+03  1.99178E+04 -1.23737E+04  1.69469E+04 -2.21141E+04  2.00613E+03 -1.62822E+04 -1.43904E+04
 -2.03899E+02 -2.06385E+04  1.25234E+04 -1.49478E+04  1.40927E+04 -1.11417E+03  3.31101E+03  1.09025E+04
 -9.62507E+03  4.68099E+03 -1.11576E+04 -6.55710E+03 -2.74864E+03 -2.01215E+04  1.23137E+04 -2.15281E+04
  2.58633E+04 -1.21687E+04  2.93865E+04  3.92343E+03  2.66529E+04  2.03322E+04  1.17077E+04  3.26139E+04
 -7.29672E+03  3.44412E+04 -2.32914E+04  2.08795E+04 -2.54335E+04  4.91590E+03 -1.72273E+04 -7.41063E+03
 -7.43266E+03 -7.71694E+03 -6.42520E+02 -8.50098E+02 -3.27144E+03  4.36427E+03 -8.22335E+03  6.26989E+03
 -1.56244E+04 -1.30071E+03 -1.60761E+04 -1.24282E+04 -6.65738E+03 -2.13023E+04  6.97871E+03 -1.64719E+04
  1.41414E+04 -6.87106E+03  1.04387E+04  4.41199E+03 -7.43274E+02  8.09205E+03 -9.11453E+03 -3.19630E+01
 -8.43009E+03 -1.21820E+04 -2.42615E+03 -1.71207E+04  9.86349E+03 -1.83505E+04  2.17309E+04 -1.01530E+04
  2.58368E+04  2.75629E+03  1.87806E+04  1.63951E+04  3.01430E+03  2.13627E+04 -1.01934E+04  1.73424E+04
 -1.43688E+04  4.52616E+03 -7.66069E+03 -4.08112E+03  2.92565E+03 -4.89025E+03  8.64111E+03 -1.14117E+03
  8.69461E+03  7.67325E+03  2.13376E+03  1.32685E+04 -1.03845E+04  1.42254E+04 -1.71718E+04  3.54732E+03
 -1.20832E+04 -9.32695E+03  6.09513E+02 -1.59902E+04  9.68926E+03 -8.60196E+03  1.20846E+04  4.37964E+03
  2.99892E+03  1.22925E+04 -8.66729E+03  1.28147E+04 -1.48410E+04  6.39774E+03 -1.64836E+04 -6.35169E+03
 -9.00088E+03 -1.82199E+04  4.66983E+03 -2.18112E+04  1.74068E+04 -1.25536E+04  1.99407E+04  3.75190E+03
  1.20842E+04  1.62943E+04 -2.68182E+03  1.80299E+04 -1.37286E+04  1.01782E+04 -1.51352E+04 -1.96702E+03
 -1.30712E+04 -1.17518E+04 -1.71648E+03 -1.41113E+04  7.83783E+03 -1.11947E+04  8.70535E+03 -3.18285E+03
  6.11036E+03  2.26080E+03 -1.02110E+03  2.51112E+03 -1.79386E+03 -4.47034E+03  3.35045E+03 -9.19661E+03
  1.35086E+04 -5.44381E+03  1.91792E+04  1.75020E+03  1.79799E+04  1.26459E+04  1.12291E+04  2.41299E+04
 -6.26519E+03  2.80463E+04 -2.33093E+04  2.00453E+04 -3.01012E+04  4.32099E+03 -2.44836E+04 -1.10804E+04
 -1.22486E+04 -2.01531E+04 -1.38240E+02 -1.68177E+04  6.56713E+03 -1.02505E+04  5.50735E+03 -5.94418E+03
  4.67886E+03 -3.02364E+03  4.47831E+03 -4.20797E+03  6.73661E+03 -3.88897E+03  9.59291E+03 -2.03314E+03
  1.21102E+04  3.13404E+03  6.75114E+03  1.13562E+04 -2.18275E+03  1.49387E+04 -1.29935E+04  1.11929E+04
 -1.83165E+04 -5.30970E+02 -1.23983E+04 -1.28582E+04 -2.36627E+03 -1.89664E+04  1.07459E+04 -1.90926E+04
  1.98161E+04 -9.72825E+03  2.27863E+04  3.79465E+03  1.59066E+04  1.56958E+04  1.12759E+03  2.17354E+04
 -8.75607E+03  1.66677E+04 -1.29430E+04  5.47835E+03 -9.15877E+03 -1.93508E+03 -3.39311E+03 -3.64474E+03
 -2.30006E+03 -4.18415E+02 -2.80445E+03  3.27672E+03 -7.86556E+03  3.19745E+03 -1.09916E+04 -1.36483E+03
 -9.18565E+03 -1.18833E+04 -1.75007E+03 -1.90962E+04  1.10043E+04 -1.66371E+04  1.78291E+04 -4.05363E+03
  1.80781E+04  8.42474E+03  8.22192E+03  1.63817E+04 -2.63087E+03  1.94860E+04 -1.30211E+04  1.07156E+04
 -1.74041E+04  1.25177E+03 -1.27421E+04 -1.07274E+04 -1.58057E+03 -1.50779E+04  8.07081E+03 -1.12194E+04
  1.17935E+04 -4.27147E+03  8.06205E+03  3.09562E+03  2.49058E+03  5.87697E+03  1.30174E+03  2.70556E+03
  3.55798E+03  7.86817E+02  4.95108E+03  2.06680E+03  5.28475E+03  5.74996E+03  4.66677E+03  9.29672E+03
 -3.01197E+03  1.47095E+04 -1.31087E+04  1.44083E+04 -1.96749E+04  4.32309E+03 -2.01482E+04 -9.40363E+03
 -9.64306E+03 -1.84854E+04  2.32709E+03 -2.01645E+04  1.20850E+04 -1.32939E+04  1.51772E+04 -3.09564E+03
  1.17850E+04  7.44395E+03  3.29037E+03  1.12307E+04 -5.86078E+03  6.07827E+03 -7.47905E+03 -6.49352E+02
 -4.01743E+03 -8.25125E+03  3.68404E+03 -9.02740E+03  9.21493E+03 -3.81667E+03  7.86182E+03  2.39875E+03
  3.42376E+03  4.50614E+03  1.91497E+03  3.03994E+03 -8.86392E+02  2.58678E+03  1.23528E+03 -8.20540E+02
  4.10579E+03 -9.09311E+02  7.43230E+03  3.23214E+03  4.71822E+03  1.05636E+04 -9.32825E+02  1.35071E+04
 -9.69455E+03  9.06085E+03 -1.23314E+04  2.63388E+03 -1.16308E+04 -4.59800E+03 -4.42152E+03 -8.89668E+03
  1.71764E+03 -6.95960E+03  4.49920E+03 -3.78678E+03  4.45058E+03  4.30168E+03 -2.18103E+03  5.88638E+03
 -8.49460E+03  3.18155E+03 -1.02164E+04 -5.07815E+03 -5.83213E+03 -1.14936E+04  1.73839E+03 -1.17749E+04
  6.13374E+03 -6.86245E+03  7.49864E+03 -1.44551E+03  6.29413E+03  3.13866E+03  1.22387E+03  4.92997E+03
 -3.46890E+03  2.58715E+03 -4.94746E+03 -3.82912E+03  2.04945E+03 -8.56607E+03  1.02092E+04 -6.97855E+03
  1.30246E+04  1.72853E+03  1.20887E+04  9.37209E+03  3.72544E+03  1.33165E+04 -4.69635E+03  1.29849E+04
 -1.00385E+04  5.70584E+03 -1.11548E+04 -1.18716E+03 -6.91410E+03 -7.95737E+03  2.53163E+03 -8.73781E+03
  6.55630E+03 -3.82755E+03  7.93478E+03  3.51085E+03  2.30282E+03  6.75744E+03 -9.65408E+02  5.86504E+03
 -3.57529E+03  3.92199E+03 -2.83259E+03  1.26765E+03 -8.73939E+02  1.55196E+03 -1.47400E+03  2.41883E+03
 -3.64154E+03  5.80188E+03 -9.11751E+03  5.25565E+03 -1.40779E+04  6.03339E+02 -1.49840E+04 -9.26234E+03
 -7.70287E+03 -1.86700E+04  3.53011E+03 -2.06201E+04  1.27928E+04 -1.61221E+04  1.99906E+04 -6.27960E+03
  1.86019E+04  4.98481E+03  1.14627E+04  1.23977E+04  9.27211E+02  1.44079E+04 -4.68533E+03  1.06188E+04
 -7.85621E+03  3.64025E+03 -5.39261E+03 -9.46489E+02 -1.35476E+03 -1.48402E+03 -1.17149E+03  2.31944E+02
 -1.99786E+03  2.88929E+02 -2.45426E+03 -5.83512E+02 -1.41965E+03 -3.29701E+03 -2.08396E+01 -4.94673E+03
  5.31594E+03 -4.67942E+03  9.29520E+03  1.74620E+01  1.01863E+04  7.03755E+03  3.64132E+03  1.45279E+04
 -7.01570E+03  1.61314E+04 -1.50241E+04  9.77279E+03 -1.75409E+04 -1.39826E+03 -1.30227E+04 -1.10635E+04
 -4.81064E+03 -1.59158E+04  3.50142E+03 -1.41267E+04  9.60030E+03 -6.84156E+03  9.42277E+03  3.30981E+02
  4.40889E+03  3.84679E+03 -1.35704E+03  3.61985E+03 -2.73734E+03 -9.01742E+02 -2.32745E+02 -3.04468E+03
  4.85297E+03 -1.66751E+03  6.44794E+03  2.39825E+03  4.62774E+03  6.05435E+03  6.62843E+02  7.83454E+03
 -6.47627E+03  7.33240E+03 -9.86411E+03  1.24152E+03 -9.50320E+03 -8.06405E+03 -1.86468E+03 -1.28506E+04
  7.54966E+03 -1.00564E+04  1.17949E+04 -3.36568E+03  1.19390E+04  3.20906E+03  7.19153E+03  9.95605E+03
  1.63269E+03  1.04164E+04 -3.91827E+03  8.17487E+03 -6.05705E+03  5.25491E+03 -4.87389E+03  1.20521E+02
 -2.16611E+03 -6.69421E+02 -3.58810E+03  1.10211E+03 -5.42279E+03  2.14292E+03 -7.79229E+03 -2.10240E+03
 -7.04970E+03 -5.31466E+03 -2.27957E+03 -9.54504E+03  4.42855E+03 -1.04282E+04  8.81856E+03 -5.21043E+03
  1.01612E+04  1.10137E+03  5.21264E+03  6.50116E+03 -1.26491E+03  9.51429E+03 -8.79008E+03  6.59602E+03
