 $NMID ID='MM_0lb_SNR400_8hz_g50_33.RAW', FMTDAT='(8E13.5)'
 TRAMP=1., VOLUME=1. $END
  3.09833E+05  2.72081E+02  3.36879E+05  2.50454E+05  8.52878E+04  3.39441E+05 -1.33286E+05  2.51745E+05
 -1.90755E+05  8.33845E+04 -1.12538E+05 -3.20136E+04 -3.85973E+02 -5.04762E+04  5.37106E+04 -8.72319E+00
  3.62159E+04  5.27954E+04 -1.67195E+04  7.64926E+04 -6.03295E+04  6.36492E+04 -8.53300E+04  3.34788E+04
 -8.33434E+04 -1.21840E+04 -5.89018E+04 -5.23605E+04 -1.52186E+04 -7.19302E+04  2.86165E+04 -4.72611E+04
  4.15894E+04  3.56024E+03  1.65748E+04  4.94274E+04 -3.50972E+04  4.78258E+04 -6.81868E+04 -3.98733E+02
 -5.58956E+04 -5.78173E+04 -7.42849E+03 -7.87981E+04  3.50356E+04 -5.68787E+04  5.04035E+04 -1.89927E+04
  4.58625E+04  1.09144E+04  3.28473E+04  2.60950E+04  1.60248E+04  3.05751E+04 -6.47585E+03  2.80021E+04
 -2.24177E+04  1.17465E+04 -1.80109E+04 -5.55405E+03  7.20517E+03 -7.46028E+03  2.32652E+04  1.38637E+04
  7.87847E+03  3.80291E+04 -3.38552E+04  3.73156E+04 -6.65570E+04  1.90430E+03 -5.91877E+04 -4.52073E+04
 -1.19478E+04 -6.67007E+04  4.15878E+04 -4.73642E+04  6.14279E+04 -2.09103E+03  3.73603E+04  3.38545E+04
 -4.55976E+03  3.98568E+04 -3.23232E+04  2.06094E+04 -3.34980E+04 -2.99278E+03 -1.96159E+04 -1.21765E+04
 -9.71073E+03 -1.55122E+04 -1.16944E+02 -1.98273E+04  8.18508E+03 -2.36652E+04  1.59750E+04 -1.27709E+04
  1.01139E+04  6.41175E+03 -1.11414E+04  1.29054E+04 -2.39815E+04 -7.04591E+03 -8.85045E+03 -3.83502E+04
  2.58757E+04 -4.79897E+04  5.23523E+04 -2.05673E+04  4.88013E+04  2.09319E+04  1.81423E+04  4.81527E+04
 -1.71151E+04  3.64198E+04 -2.81323E+04  3.27493E+03 -1.25432E+04 -2.88583E+04  2.13404E+04 -3.79089E+04
  4.59469E+04 -1.12516E+04  4.07907E+04  2.44217E+04  2.22712E+04  5.22358E+04 -9.51284E+03  5.71233E+04
 -3.63970E+04  3.95473E+04 -4.79202E+04  1.11089E+04 -4.89402E+04 -1.92226E+04 -2.68748E+04 -4.23031E+04
  6.89257E+03 -4.27963E+04  3.49473E+04 -1.77224E+04  3.28513E+04  1.11430E+04  6.00909E+03  2.15878E+04
 -1.34083E+04  8.65492E+03 -1.03687E+04 -7.75040E+03  5.80065E+03 -1.10794E+04  1.98081E+04  5.15817E+03
  1.51804E+04  2.29096E+04 -5.07854E+03  2.76248E+04 -2.40857E+04  1.44036E+04 -3.24133E+04 -2.10345E+03
 -2.65620E+04 -1.82740E+04 -1.23878E+04 -2.61146E+04  4.34898E+03 -2.69568E+04  2.10703E+04 -2.41626E+04
  3.43253E+04 -1.40887E+04  3.92301E+04  4.74740E+03  2.77755E+04  2.51202E+04  3.77298E+03  4.13252E+04
 -2.00283E+04  3.38291E+04 -3.14347E+04  1.27137E+04 -2.31335E+04 -1.04599E+04 -5.37740E+03 -1.24728E+04
  1.17414E+03  2.57672E+01 -8.55334E+03  7.80209E+03 -2.19118E+04  4.54300E+03 -2.10224E+04 -9.78055E+03
 -1.27970E+04 -2.37275E+04  6.12291E+03 -2.88014E+04  1.93046E+04 -2.03084E+04  2.31662E+04 -1.80388E+03
  1.57623E+04  1.76314E+04 -2.12791E+03  2.42180E+04 -1.77323E+04  1.38196E+04 -2.41345E+04 -5.26120E+03
 -1.76633E+04 -2.13931E+04 -1.01945E+03 -2.86165E+04  1.32606E+04 -2.42976E+04  2.40008E+04 -1.21199E+04
  2.27103E+04 -8.47671E+02  1.63135E+04  4.79098E+03  9.05637E+03  1.64617E+03  1.30587E+04 -2.71609E+03
  2.32097E+04  3.60517E+03  2.68398E+04  1.91313E+04  1.75924E+04  3.91354E+04 -2.66599E+03  4.66723E+04
 -2.55905E+04  3.96074E+04 -4.39561E+04  2.01490E+04 -4.76350E+04 -2.96658E+03 -3.78302E+04 -2.64650E+04
 -1.51828E+04 -3.92714E+04  1.40747E+04 -3.48002E+04  2.93305E+04 -1.54955E+04  2.65492E+04  8.28012E+03
  9.31388E+03  1.94627E+04 -1.19333E+04  1.65429E+04 -2.08039E+04  2.63369E+03 -1.54097E+04 -1.32029E+04
 -8.49286E+01 -2.04113E+04  1.02884E+04 -1.49423E+04  1.38731E+04 -1.12805E+03  3.52835E+03  9.01588E+03
 -9.57327E+03  4.02166E+03 -9.81229E+03 -7.07326E+03 -2.31379E+03 -1.83507E+04  1.17042E+04 -2.08857E+04
  2.45730E+04 -1.14061E+04  2.73608E+04  3.75402E+03  2.45074E+04  1.94551E+04  1.13950E+04  3.10266E+04
 -6.34027E+03  3.26413E+04 -2.21892E+04  2.03537E+04 -2.42608E+04  4.06026E+03 -1.66890E+04 -6.98558E+03
 -6.83071E+03 -8.19278E+03 -1.05113E+03  6.49700E+02 -2.32012E+03  3.78656E+03 -8.62663E+03  5.35295E+03
 -1.50766E+04 -7.75113E+02 -1.66941E+04 -1.20861E+04 -5.59884E+03 -2.10628E+04  6.83305E+03 -1.66353E+04
  1.36457E+04 -6.45566E+03  9.51897E+03  4.32043E+03 -1.37462E+02  7.01155E+03 -9.05698E+03  3.98166E+02
 -7.57272E+03 -1.04510E+04 -1.35651E+03 -1.61042E+04  9.87490E+03 -1.74659E+04  2.11782E+04 -9.51099E+03
  2.59207E+04  3.52237E+03  1.82219E+04  1.51029E+04  4.36744E+03  2.05580E+04 -9.32656E+03  1.54038E+04
 -1.31561E+04  4.63465E+03 -6.42582E+03 -3.41222E+03  1.89215E+03 -5.63754E+03  8.70833E+03 -7.58871E+02
  7.98221E+03  7.37788E+03  1.13647E+03  1.32346E+04 -9.56246E+03  1.19109E+04 -1.66700E+04  3.21644E+03
 -1.19299E+04 -9.49603E+03 -1.29878E+03 -1.45588E+04  1.03262E+04 -8.12129E+03  1.11195E+04  3.59959E+03
  3.23603E+03  9.90867E+03 -8.87573E+03  1.29352E+04 -1.57408E+04  5.17475E+03 -1.52051E+04 -5.39370E+03
 -8.35309E+03 -1.70816E+04  4.97574E+03 -2.07654E+04  1.68853E+04 -1.18711E+04  1.85164E+04  4.29011E+03
  1.10664E+04  1.56427E+04 -2.06063E+03  1.66160E+04 -1.21977E+04  9.86597E+03 -1.36235E+04 -1.49752E+03
 -1.25727E+04 -1.06839E+04 -1.57577E+03 -1.27236E+04  5.75110E+03 -1.07728E+04  8.87995E+03 -3.15789E+03
  5.56180E+03  2.42746E+03 -1.08502E+03  1.79748E+03 -2.20095E+03 -4.48229E+03  3.35509E+03 -8.47725E+03
  1.24217E+04 -6.07190E+03  1.86482E+04  2.21797E+03  1.70349E+04  1.25127E+04  1.00703E+04  2.32499E+04
 -5.05269E+03  2.66079E+04 -2.17435E+04  2.00077E+04 -2.80155E+04  3.57742E+03 -2.23504E+04 -9.16017E+03
 -1.12960E+04 -1.86822E+04 -2.49497E+02 -1.60399E+04  5.91931E+03 -9.81112E+03  4.96430E+03 -5.25254E+03
  4.45486E+03 -2.95926E+03  3.98630E+03 -4.66562E+03  6.80758E+03 -3.95758E+03  8.25887E+03 -8.78010E+02
  1.21770E+04  2.49065E+03  7.26669E+03  1.07358E+04 -2.13589E+03  1.29579E+04 -1.18302E+04  9.38959E+03
 -1.58739E+04 -7.96196E+02 -1.08147E+04 -1.22935E+04 -2.13244E+03 -1.76576E+04  9.49152E+03 -1.78834E+04
  1.80863E+04 -9.99581E+03  2.21113E+04  3.50067E+03  1.52631E+04  1.63741E+04  2.19504E+03  1.92510E+04
 -8.47063E+03  1.63272E+04 -1.17193E+04  5.74828E+03 -7.66883E+03 -1.35460E+03 -3.61374E+03 -2.24912E+03
 -1.16099E+03  2.03599E+02 -2.63948E+03  3.34695E+03 -6.87837E+03  2.25754E+03 -1.06316E+04 -1.39504E+03
 -8.09623E+03 -1.12595E+04 -7.55132E+02 -1.61511E+04  1.03677E+04 -1.43966E+04  1.74578E+04 -4.81456E+03
  1.58561E+04  7.72172E+03  7.87267E+03  1.58341E+04 -3.10712E+03  1.57013E+04 -1.23911E+04  1.06963E+04
 -1.63438E+04 -1.34406E+02 -1.15174E+04 -1.13957E+04 -2.35178E+03 -1.49320E+04  9.01793E+03 -1.02901E+04
  9.85540E+03 -3.06052E+03  7.57684E+03  2.69159E+03  3.31397E+03  6.26631E+03  1.63946E+03  2.49352E+03
  3.91864E+03  1.73649E+03  3.89138E+03  1.92929E+03  4.61940E+03  5.79234E+03  3.56765E+03  8.34610E+03
 -3.02404E+03  1.25898E+04 -1.13788E+04  1.39728E+04 -1.73942E+04  3.78436E+03 -1.76751E+04 -7.43421E+03
 -7.66124E+03 -1.77798E+04  2.29883E+03 -1.89387E+04  1.03460E+04 -1.20366E+04  1.36980E+04 -3.26540E+03
  1.10537E+04  5.69154E+03  3.10674E+03  9.40170E+03 -5.13563E+03  6.22556E+03 -7.83433E+03 -1.15228E+03
 -3.07129E+03 -7.17777E+03  3.63113E+03 -7.75076E+03  7.23595E+03 -3.48864E+03  7.02991E+03  1.45437E+03
  4.95666E+03  4.11641E+03  1.73406E+03  3.28237E+03 -1.12273E+03  2.93346E+03  1.71025E+03 -2.93236E+02
  2.71228E+03 -7.35950E+02  6.76086E+03  2.92109E+03  3.88289E+03  9.61266E+03 -2.59468E+03  1.16578E+04
 -8.41498E+03  7.94371E+03 -1.19275E+04  2.65481E+03 -1.00217E+04 -3.92453E+03 -4.41414E+03 -6.70566E+03
  7.21186E+02 -7.19917E+03  4.39037E+03 -2.42709E+03  4.24536E+03  3.01460E+03 -1.51502E+03  5.36447E+03
 -7.10983E+03  3.04604E+03 -8.77611E+03 -3.78234E+03 -4.53476E+03 -9.23704E+03  6.25291E+02 -1.03361E+04
  6.60006E+03 -6.23428E+03  8.22801E+03 -2.03094E+03  5.06350E+03  2.46086E+03  3.12455E+02  4.72642E+03
 -3.82084E+03  1.95519E+03 -3.50094E+03 -3.02015E+03  1.39330E+03 -8.52403E+03  9.47466E+03 -6.54759E+03
  1.13402E+04  8.22850E+02  1.11297E+04  7.51765E+03  2.69374E+03  1.28438E+04 -3.94879E+03  9.77825E+03
 -1.00709E+04  4.59914E+03 -1.02351E+04 -1.92592E+03 -5.39288E+03 -8.19918E+03  1.62184E+03 -7.14321E+03
  7.70545E+03 -3.18123E+03  6.07538E+03  2.86005E+03  1.66313E+03  6.25877E+03 -1.35644E+03  5.50299E+03
 -3.70076E+03  4.12712E+03 -2.44681E+03  1.53550E+03 -1.83748E+03  9.28427E+02 -2.51728E+03  1.53640E+03
 -2.88990E+03  4.20379E+03 -8.38315E+03  3.25550E+03 -1.13024E+04  6.47410E+02 -1.23117E+04 -9.04098E+03
 -6.55887E+03 -1.55089E+04  2.44331E+03 -1.83619E+04  1.20133E+04 -1.37122E+04  1.72475E+04 -5.73215E+03
  1.59614E+04  2.23906E+03  9.54350E+03  1.14830E+04  1.50538E+03  1.18221E+04 -4.63176E+03  8.74409E+03
 -7.23143E+03  3.28769E+03 -4.55565E+03 -1.53640E+03 -7.90692E+02 -1.35817E+03 -1.18372E+03 -4.55014E+01
 -2.53209E+03  1.55578E+02 -1.99285E+03 -1.00483E+03 -1.13889E+03 -2.39170E+03  5.22117E+02 -4.51440E+03
  5.75400E+03 -4.52216E+03  7.51923E+03 -4.16336E+02  8.29666E+03  6.54887E+03  1.55557E+03  1.20624E+04
 -5.90322E+03  1.30756E+04 -1.32382E+04  8.45843E+03 -1.41414E+04 -1.48924E+03 -1.14437E+04 -9.26718E+03
 -4.83666E+03 -1.26706E+04  3.11717E+03 -1.27325E+04  7.61421E+03 -7.58975E+03  8.39882E+03  1.80973E+01
  4.54788E+03  4.87949E+03 -1.03458E+02  2.70436E+03 -1.67132E+03  2.95411E+02  5.13152E+01 -3.31287E+03
  3.94696E+03 -1.92339E+03  4.64275E+03  1.17976E+03  3.40034E+03  4.79782E+03 -9.19670E+01  6.83587E+03
 -5.46508E+03  5.27655E+03 -8.84122E+03  6.20396E+02 -7.65984E+03 -6.22349E+03 -1.25175E+03 -1.01532E+04
  5.48639E+03 -9.48699E+03  1.01148E+04 -3.65810E+03  9.83150E+03  2.70196E+03  6.27365E+03  8.20154E+03
  1.42509E+03  8.82858E+03 -4.06569E+03  6.28588E+03 -5.19145E+03  4.37256E+03 -4.85581E+03  2.17029E+02
 -2.16654E+03 -8.60915E+02 -2.51606E+03  6.63872E+02 -4.48759E+03  1.62821E+03 -6.62870E+03 -1.44459E+03
 -6.46245E+03 -4.41449E+03 -2.03227E+03 -9.12080E+03  4.23001E+03 -9.64737E+03  7.56068E+03 -4.22291E+03
  9.31997E+03  9.53246E+02  5.15127E+03  6.30270E+03 -8.43085E+02  8.77444E+03 -7.33142E+03  6.20135E+03
