 $NMID ID='MM_0lb_SNR400_9hz_g55_26.RAW', FMTDAT='(8E13.5)'
 TRAMP=1., VOLUME=1. $END
  3.09861E+05 -3.71585E+02  3.37752E+05  2.51600E+05  8.60590E+04  3.38796E+05 -1.32422E+05  2.52336E+05
 -1.90075E+05  8.39613E+04 -1.12326E+05 -3.29121E+04  6.97461E+02 -5.04380E+04  5.32366E+04 -7.10275E+02
  3.55100E+04  5.26306E+04 -1.65678E+04  7.56457E+04 -6.14594E+04  6.45830E+04 -8.52210E+04  3.28644E+04
 -8.28385E+04 -1.23123E+04 -5.89248E+04 -5.23386E+04 -1.51654E+04 -7.17094E+04  2.85523E+04 -4.68630E+04
  4.15777E+04  3.77637E+03  1.65988E+04  4.84298E+04 -3.45252E+04  4.84142E+04 -6.80297E+04  2.81168E+01
 -5.54668E+04 -5.83336E+04 -7.99281E+03 -7.92684E+04  3.49176E+04 -5.70953E+04  4.96240E+04 -1.79964E+04
  4.51728E+04  1.24021E+04  3.25296E+04  2.66623E+04  1.60964E+04  3.05503E+04 -5.75886E+03  2.72988E+04
 -2.20566E+04  1.18770E+04 -1.84083E+04 -6.28437E+03  7.43669E+03 -7.13553E+03  2.36109E+04  1.43013E+04
  7.51664E+03  3.79029E+04 -3.31650E+04  3.66959E+04 -6.60768E+04  1.84096E+03 -5.96471E+04 -4.42329E+04
 -1.30980E+04 -6.67934E+04  4.16788E+04 -4.79718E+04  6.19428E+04 -2.26467E+03  3.71766E+04  3.50501E+04
 -4.28587E+03  3.95650E+04 -3.16319E+04  1.96564E+04 -3.35418E+04 -3.58295E+03 -2.00339E+04 -1.20979E+04
 -1.01263E+04 -1.54939E+04 -1.15421E+03 -1.92394E+04  8.93029E+03 -2.37078E+04  1.60513E+04 -1.23917E+04
  9.75915E+03  6.32375E+03 -1.04050E+04  1.24429E+04 -2.33953E+04 -6.75613E+03 -8.46555E+03 -3.78765E+04
  2.58472E+04 -4.73369E+04  5.21990E+04 -2.11183E+04  4.87808E+04  2.14460E+04  1.71989E+04  4.68988E+04
 -1.78377E+04  3.64702E+04 -2.80003E+04  3.07084E+03 -1.27158E+04 -2.90234E+04  2.20566E+04 -3.68214E+04
  4.51190E+04 -1.17173E+04  4.02769E+04  2.49868E+04  2.18124E+04  5.14633E+04 -8.14109E+03  5.71536E+04
 -3.54069E+04  3.89401E+04 -4.81500E+04  1.05595E+04 -4.84602E+04 -1.86899E+04 -2.69751E+04 -4.26815E+04
  7.73194E+03 -4.20482E+04  3.49748E+04 -1.76657E+04  3.31276E+04  1.12409E+04  6.18688E+03  2.04567E+04
 -1.47828E+04  1.00471E+04 -1.22693E+04 -7.83138E+03  4.66760E+03 -1.18696E+04  1.92525E+04  4.93727E+03
  1.43669E+04  2.35355E+04 -5.38581E+03  2.71678E+04 -2.40976E+04  1.48540E+04 -3.21129E+04 -2.76907E+03
 -2.61448E+04 -1.90550E+04 -1.19129E+04 -2.54999E+04  4.08734E+03 -2.55993E+04  1.98596E+04 -2.31402E+04
  3.27138E+04 -1.39561E+04  3.88305E+04  5.88815E+03  2.78226E+04  2.46626E+04  4.71072E+03  4.13859E+04
 -1.99691E+04  3.43371E+04 -3.02504E+04  1.19848E+04 -2.24718E+04 -1.03954E+04 -4.41542E+03 -1.33143E+04
  9.95686E+01 -1.20448E+03 -8.43791E+03  8.90950E+03 -2.01438E+04  4.89701E+03 -2.07066E+04 -1.00283E+04
 -1.22137E+04 -2.51529E+04  6.09527E+03 -2.76152E+04  1.92841E+04 -1.94975E+04  2.32158E+04 -2.50946E+03
  1.44836E+04  1.67418E+04 -1.22374E+03  2.37795E+04 -1.67349E+04  1.36493E+04 -2.42000E+04 -5.25942E+03
 -1.73776E+04 -2.11659E+04 -1.40543E+03 -2.88992E+04  1.34476E+04 -2.29899E+04  2.38693E+04 -1.25212E+04
  2.24095E+04 -4.33451E+02  1.59267E+04  5.60739E+03  9.13855E+03  1.96729E+03  1.26997E+04 -1.64245E+03
  2.39021E+04  2.33621E+03  2.62834E+04  1.82958E+04  1.77891E+04  3.76543E+04 -2.66353E+03  4.54592E+04
 -2.55831E+04  3.75276E+04 -4.28245E+04  1.98425E+04 -4.58978E+04 -3.44863E+03 -3.68277E+04 -2.67176E+04
 -1.52173E+04 -3.78025E+04  1.39205E+04 -3.39887E+04  2.90784E+04 -1.58760E+04  2.54484E+04  7.99877E+03
  8.64835E+03  1.94069E+04 -1.22319E+04  1.66566E+04 -2.08028E+04  2.80332E+03 -1.52637E+04 -1.35795E+04
 -5.47124E+02 -1.95048E+04  1.12578E+04 -1.40028E+04  1.34836E+04 -1.18245E+03  3.82147E+03  8.62787E+03
 -9.06527E+03  4.07046E+03 -8.89790E+03 -6.83166E+03 -1.58257E+03 -1.77151E+04  1.18762E+04 -2.01293E+04
  2.38992E+04 -1.16126E+04  2.70841E+04  3.62554E+03  2.38183E+04  1.92035E+04  1.02327E+04  3.08568E+04
 -5.63625E+03  3.14531E+04 -2.06421E+04  1.96877E+04 -2.32348E+04  3.55833E+03 -1.61838E+04 -6.47217E+03
 -5.85411E+03 -6.98672E+03 -7.52838E+02  7.54612E+02 -2.47567E+03  3.33412E+03 -7.99638E+03  5.75509E+03
 -1.38888E+04 -1.76477E+03 -1.47468E+04 -1.30616E+04 -5.77044E+03 -2.02105E+04  7.07048E+03 -1.62784E+04
  1.39287E+04 -6.52790E+03  1.04700E+04  5.39904E+03 -3.03672E+02  5.71243E+03 -8.50095E+03 -5.19396E+02
 -7.47910E+03 -9.81664E+03 -1.95535E+03 -1.62142E+04  8.78959E+03 -1.75986E+04  2.08497E+04 -9.49865E+03
  2.45390E+04  2.93363E+03  1.79611E+04  1.42002E+04  3.30373E+03  1.91434E+04 -9.94220E+03  1.69414E+04
 -1.25683E+04  4.88108E+03 -6.82162E+03 -3.48361E+03  2.69676E+03 -4.76491E+03  8.58878E+03 -1.75624E+02
  8.04843E+03  7.60580E+03  1.50342E+03  1.29567E+04 -9.81723E+03  1.24580E+04 -1.60240E+04  2.87422E+03
 -1.14502E+04 -8.90992E+03  6.49082E+02 -1.42010E+04  8.97415E+03 -6.70525E+03  1.06411E+04  2.83875E+03
  1.88683E+03  1.00215E+04 -8.28400E+03  1.12590E+04 -1.44299E+04  6.32558E+03 -1.48517E+04 -5.07055E+03
 -8.39577E+03 -1.56950E+04  3.50014E+03 -1.88749E+04  1.54433E+04 -1.18699E+04  1.73918E+04  2.37425E+03
  1.08837E+04  1.41709E+04 -1.57161E+03  1.63291E+04 -1.20825E+04  9.58487E+03 -1.34815E+04 -2.10201E+03
 -1.09562E+04 -1.10205E+04 -1.77851E+03 -1.15318E+04  7.83830E+03 -1.01666E+04  8.07629E+03 -4.26080E+03
  5.33865E+03  2.13622E+03 -1.92166E+03  2.37165E+03 -1.44750E+03 -3.60637E+03  2.54483E+03 -8.65284E+03
  1.28679E+04 -5.60635E+03  1.63096E+04  2.72878E+03  1.63128E+04  1.11397E+04  9.44732E+03  2.21362E+04
 -4.87507E+03  2.47183E+04 -2.09594E+04  1.82696E+04 -2.67282E+04  4.02942E+03 -2.15695E+04 -9.14804E+03
 -1.05244E+04 -1.79736E+04 -5.68446E+02 -1.50051E+04  4.82597E+03 -8.39148E+03  4.61782E+03 -5.73225E+03
  4.01492E+03 -3.90825E+03  4.02144E+03 -4.79794E+03  6.32099E+03 -3.93745E+03  9.07621E+03 -7.03312E+02
  1.13438E+04  2.09296E+03  6.44429E+03  9.59765E+03 -2.15765E+03  1.19245E+04 -1.11819E+04  8.54881E+03
 -1.53342E+04 -1.47564E+03 -9.86290E+03 -1.06821E+04 -1.92717E+03 -1.59613E+04  9.29782E+03 -1.68163E+04
  1.73051E+04 -8.78168E+03  1.95915E+04  2.61245E+03  1.33933E+04  1.48602E+04  2.54507E+03  1.89847E+04
 -7.71025E+03  1.43011E+04 -1.07086E+04  5.28753E+03 -7.84459E+03 -1.98957E+03 -3.05023E+03 -2.49833E+03
 -1.80515E+03 -1.52772E+03 -2.79067E+03  3.56985E+03 -6.52829E+03  3.11551E+03 -1.04440E+04 -1.58239E+03
 -6.91857E+03 -1.03478E+04 -1.35206E+02 -1.60211E+04  9.12595E+03 -1.41791E+04  1.56932E+04 -4.99003E+03
  1.49871E+04  7.27202E+03  7.47115E+03  1.35003E+04 -3.11007E+03  1.47283E+04 -1.08870E+04  9.49771E+03
 -1.47953E+04 -3.16748E+00 -1.08923E+04 -9.37925E+03 -9.80595E+02 -1.30436E+04  7.13399E+03 -9.59539E+03
  9.63254E+03 -3.58239E+03  6.71511E+03  2.84890E+03  2.56262E+03  5.18151E+03  2.05249E+03  2.05587E+03
  3.80491E+03  2.46504E+02  4.89259E+03  2.56922E+03  4.73919E+03  5.48842E+03  3.87056E+03  8.60277E+03
 -3.42629E+03  1.19403E+04 -1.10266E+04  1.21891E+04 -1.71756E+04  3.18092E+03 -1.66372E+04 -6.12635E+03
 -7.50749E+03 -1.56707E+04  2.04782E+03 -1.71875E+04  8.59347E+03 -1.11686E+04  1.20032E+04 -3.46761E+03
  9.64518E+03  6.22100E+03  2.02571E+03  9.84685E+03 -4.97573E+03  5.51361E+03 -6.05226E+03 -9.61626E+02
 -2.81373E+03 -6.81774E+03  3.41598E+03 -7.43064E+03  6.67359E+03 -3.22271E+03  6.32271E+03  1.07668E+03
  3.88393E+03  3.29113E+03  2.57894E+03  3.50285E+03 -3.13558E+02  1.60257E+03  1.25678E+03 -7.57919E+02
  2.32566E+03 -1.00789E+03  5.83443E+03  2.67106E+03  3.28016E+03  8.57387E+03 -6.07042E+02  1.10653E+04
 -7.64873E+03  7.36537E+03 -9.46962E+03  1.56261E+03 -9.17539E+03 -3.13352E+03 -3.76336E+03 -5.85856E+03
  5.61774E+02 -6.10026E+03  4.75811E+03 -2.80521E+03  4.03509E+03  2.56121E+03 -1.08948E+03  5.23920E+03
 -6.37751E+03  2.81826E+03 -7.72211E+03 -4.07516E+03 -4.07895E+03 -9.18669E+03  9.87950E+02 -9.43273E+03
  4.92101E+03 -5.68490E+03  6.88395E+03 -8.55361E+02  4.47122E+03  2.31874E+03  9.71756E+02  4.46347E+03
 -3.52856E+03  5.49215E+02 -3.59988E+03 -2.88840E+03  1.56554E+03 -6.32068E+03  7.81983E+03 -5.29299E+03
  1.04658E+04  8.16313E+02  9.70920E+03  7.04494E+03  2.67271E+03  1.14692E+04 -4.64420E+03  9.64956E+03
 -8.40077E+03  3.75984E+03 -8.94731E+03 -1.21917E+03 -4.62226E+03 -6.03480E+03  1.87794E+03 -5.99836E+03
  7.11165E+03 -2.78158E+03  5.65802E+03  3.00734E+03  1.56882E+03  6.19687E+03 -8.18808E+02  4.27363E+03
 -2.22560E+03  3.62292E+03 -3.60294E+03  1.38507E+03 -1.15230E+03  4.95249E+02 -1.93642E+03  2.23516E+03
 -2.78590E+03  3.55471E+03 -7.54857E+03  3.38596E+03 -9.77127E+03  2.97331E+02 -1.17294E+04 -6.47885E+03
 -7.01067E+03 -1.39692E+04  2.68055E+03 -1.57657E+04  1.01625E+04 -1.27821E+04  1.55388E+04 -5.50173E+03
  1.45219E+04  2.37090E+03  9.27479E+03  9.27477E+03  7.47056E+02  1.05658E+04 -3.64781E+03  8.80627E+03
 -6.88190E+03  3.20630E+03 -4.12714E+03 -2.34930E+02 -1.43248E+03 -8.36430E+02 -1.21537E+03 -3.52533E+02
 -1.92343E+03  2.49153E+02 -2.88815E+03 -3.30142E+02 -1.34006E+03 -2.85002E+03  1.05685E+02 -3.59984E+03
  4.72756E+03 -2.81977E+03  6.63098E+03  5.31811E+02  6.97388E+03  5.21818E+03  2.38952E+03  1.12429E+04
 -4.94508E+03  1.26936E+04 -1.20515E+04  7.22427E+03 -1.37062E+04  8.29762E+01 -1.02831E+04 -7.74124E+03
 -4.50601E+03 -1.22098E+04  3.32347E+03 -1.08421E+04  7.59424E+03 -5.11296E+03  7.46022E+03  3.07661E+02
  3.36029E+03  3.26328E+03 -6.52100E+02  3.23709E+03 -2.16526E+03 -3.99297E+02 -1.22168E+01 -2.25980E+03
  2.99959E+03 -1.32092E+03  4.19778E+03  1.41289E+03  2.70768E+03  4.32167E+03  1.39408E+03  5.24328E+03
 -4.32648E+03  4.33518E+03 -7.33882E+03  3.81738E+02 -7.02940E+03 -5.89937E+03 -1.69119E+03 -8.57156E+03
  5.34089E+03 -8.02555E+03  9.07211E+03 -2.24545E+03  7.88761E+03  1.23557E+03  4.70685E+03  6.98970E+03
  6.09668E+02  6.46938E+03 -2.72108E+03  6.07470E+03 -3.87500E+03  3.88515E+03 -3.24443E+03  9.91324E+02
 -1.14609E+03 -7.26335E+02 -2.36060E+03  1.65531E+03 -4.16552E+03  1.71212E+03 -4.91806E+03 -8.68524E+02
 -5.70212E+03 -3.74825E+03 -1.35796E+03 -6.51999E+03  2.71378E+03 -8.16697E+03  7.03615E+03 -4.02752E+03
  7.77561E+03  7.71935E+02  4.24964E+03  5.49351E+03  4.86478E+02  7.42837E+03 -5.31215E+03  4.74221E+03
