 $NMID ID='MM_0lb_SNR400_10hz_g50_31.RAW', FMTDAT='(8E13.5)'
 TRAMP=1., VOLUME=1. $END
  3.09940E+05  5.09236E+02  3.37538E+05  2.50558E+05  8.41367E+04  3.38956E+05 -1.32020E+05  2.52495E+05
 -1.91325E+05  8.47790E+04 -1.12968E+05 -3.21053E+04  4.26782E+02 -5.02799E+04  5.44260E+04 -5.70762E+02
  3.51568E+04  5.31555E+04 -1.67491E+04  7.59191E+04 -6.07758E+04  6.45412E+04 -8.52027E+04  3.35464E+04
 -8.22353E+04 -1.08073E+04 -5.79778E+04 -5.16067E+04 -1.59462E+04 -7.15332E+04  2.71750E+04 -4.57707E+04
  4.13694E+04  3.18983E+03  1.70603E+04  4.86644E+04 -3.48909E+04  4.75359E+04 -6.80607E+04 -1.19963E+01
 -5.49513E+04 -5.78267E+04 -7.18680E+03 -7.85792E+04  3.50210E+04 -5.63399E+04  4.99564E+04 -1.79201E+04
  4.50176E+04  1.13882E+04  3.24743E+04  2.59824E+04  1.58564E+04  3.03427E+04 -6.12444E+03  2.79609E+04
 -2.29426E+04  1.18024E+04 -1.86518E+04 -5.73645E+03  7.20666E+03 -7.25220E+03  2.27794E+04  1.31384E+04
  6.62157E+03  3.73458E+04 -3.38483E+04  3.67352E+04 -6.50978E+04  1.51183E+03 -5.91837E+04 -4.37045E+04
 -1.19180E+04 -6.49774E+04  4.12843E+04 -4.64210E+04  6.03277E+04 -2.51634E+03  3.61985E+04  3.39538E+04
 -5.70422E+03  3.91244E+04 -3.13511E+04  1.86271E+04 -3.34454E+04 -4.40882E+03 -1.88210E+04 -1.16177E+04
 -9.54236E+03 -1.53301E+04 -5.05139E+02 -1.95070E+04  8.47977E+03 -2.32006E+04  1.59872E+04 -1.22656E+04
  1.02554E+04  5.47330E+03 -1.01074E+04  1.33254E+04 -2.18051E+04 -6.15738E+03 -8.25252E+03 -3.65180E+04
  2.47574E+04 -4.53726E+04  5.19286E+04 -2.09407E+04  4.80777E+04  2.06250E+04  1.67125E+04  4.63746E+04
 -1.65329E+04  3.50171E+04 -2.68896E+04  1.95498E+03 -1.11027E+04 -2.85016E+04  2.22560E+04 -3.58771E+04
  4.42070E+04 -9.80498E+03  3.91422E+04  2.36240E+04  2.06167E+04  5.02909E+04 -8.07277E+03  5.53039E+04
 -3.41380E+04  3.72023E+04 -4.61024E+04  1.15501E+04 -4.62697E+04 -1.81572E+04 -2.58751E+04 -4.16447E+04
  7.85501E+03 -4.07249E+04  3.31961E+04 -1.65509E+04  3.12834E+04  1.14398E+04  4.53752E+03  2.00777E+04
 -1.42950E+04  1.00320E+04 -1.08342E+04 -7.81154E+03  5.59400E+03 -1.14811E+04  1.85318E+04  5.42644E+03
  1.46532E+04  2.21209E+04 -5.43173E+03  2.64844E+04 -2.26224E+04  1.31945E+04 -3.07672E+04 -3.49470E+03
 -2.42624E+04 -1.88457E+04 -1.10486E+04 -2.36727E+04  3.90413E+03 -2.44670E+04  1.89040E+04 -2.13496E+04
  3.08925E+04 -1.41500E+04  3.71401E+04  5.32054E+03  2.66041E+04  2.40429E+04  4.96469E+03  4.07669E+04
 -1.91589E+04  3.28517E+04 -2.89455E+04  1.15672E+04 -2.18675E+04 -9.75562E+03 -5.71227E+03 -1.25974E+04
  7.21380E+02 -1.69006E+03 -7.42987E+03  8.00110E+03 -1.91918E+04  5.00208E+03 -1.93921E+04 -8.95690E+03
 -1.13529E+04 -2.31249E+04  5.91578E+03 -2.69429E+04  1.77510E+04 -1.88401E+04  2.18687E+04 -1.76450E+03
  1.29516E+04  1.57217E+04 -1.74972E+03  2.30000E+04 -1.59001E+04  1.21831E+04 -2.28393E+04 -5.01867E+03
 -1.70072E+04 -1.94258E+04 -2.64756E+03 -2.63488E+04  1.20298E+04 -2.24541E+04  2.19427E+04 -1.13741E+04
  2.08897E+04  5.02988E+02  1.53656E+04  4.53543E+03  8.40592E+03  9.81140E+02  1.18334E+04 -1.42187E+03
  2.12886E+04  2.81650E+03  2.39168E+04  1.73534E+04  1.66800E+04  3.67003E+04 -2.69589E+03  4.16846E+04
 -2.31547E+04  3.50314E+04 -4.01643E+04  1.82022E+04 -4.19060E+04 -3.35744E+03 -3.43712E+04 -2.47020E+04
 -1.41710E+04 -3.48735E+04  1.24200E+04 -3.12575E+04  2.73567E+04 -1.44287E+04  2.25890E+04  7.41108E+03
  8.21519E+03  1.81947E+04 -1.11910E+04  1.56356E+04 -1.94659E+04  3.10248E+03 -1.51860E+04 -1.21038E+04
 -8.92510E+02 -1.87457E+04  9.64522E+03 -1.37608E+04  1.30029E+04 -1.27490E+03  3.51785E+03  8.15481E+03
 -7.87993E+03  3.57531E+03 -8.98473E+03 -6.89369E+03 -1.27164E+03 -1.78747E+04  1.16407E+04 -1.91429E+04
  2.08710E+04 -1.06810E+04  2.38114E+04  2.80580E+03  2.19854E+04  1.64635E+04  1.10341E+04  2.68328E+04
 -6.04744E+03  2.90973E+04 -1.96516E+04  1.85708E+04 -2.17118E+04  4.20535E+03 -1.45231E+04 -5.71718E+03
 -5.95200E+03 -6.52841E+03 -6.36647E+02  1.15180E+03 -3.29902E+03  3.27793E+03 -7.00392E+03  5.07220E+03
 -1.31262E+04 -1.05689E+03 -1.44500E+04 -1.11412E+04 -5.77428E+03 -1.78615E+04  5.98675E+03 -1.52994E+04
  1.17079E+04 -6.09022E+03  8.91275E+03  3.65210E+03 -1.79544E+02  5.76481E+03 -7.56057E+03 -3.70924E+02
 -6.78603E+03 -8.96224E+03 -7.36975E+02 -1.40865E+04  9.39435E+03 -1.50239E+04  1.82321E+04 -8.14074E+03
  2.16964E+04  2.79007E+03  1.58956E+04  1.31770E+04  3.37135E+03  1.76221E+04 -9.41836E+03  1.41305E+04
 -1.14367E+04  4.87773E+03 -5.83134E+03 -3.53365E+03  2.99250E+03 -4.36329E+03  7.40174E+03 -1.80595E+03
  7.20696E+03  6.54052E+03  8.23611E+02  1.23845E+04 -7.98074E+03  1.12647E+04 -1.40415E+04  1.89952E+03
 -1.02602E+04 -7.89155E+03  4.48294E+02 -1.31373E+04  7.97383E+03 -6.17782E+03  8.32178E+03  3.65019E+03
  1.93805E+03  9.13288E+03 -7.96557E+03  9.53261E+03 -1.24259E+04  4.46167E+03 -1.28913E+04 -4.19218E+03
 -7.03500E+03 -1.49232E+04  3.83017E+03 -1.64061E+04  1.40135E+04 -9.92503E+03  1.56510E+04  3.28455E+03
  9.37356E+03  1.24204E+04 -1.03397E+03  1.49763E+04 -1.08543E+04  8.23834E+03 -1.13848E+04 -1.34325E+03
 -1.00273E+04 -9.70506E+03 -2.32943E+03 -1.14158E+04  5.75255E+03 -9.22235E+03  7.31119E+03 -3.74107E+03
  5.02809E+03  1.32902E+03  1.62715E+02  1.56578E+03 -6.18143E+02 -3.26897E+03  2.54996E+03 -6.93779E+03
  1.07749E+04 -3.91251E+03  1.44882E+04  1.73697E+03  1.39898E+04  9.65919E+03  9.70288E+03  1.90798E+04
 -4.51619E+03  2.20591E+04 -1.78798E+04  1.62401E+04 -2.28951E+04  2.37184E+03 -1.86963E+04 -8.84841E+03
 -9.32228E+03 -1.58343E+04  3.78131E+02 -1.36286E+04  4.59223E+03 -7.53731E+03  5.03022E+03 -4.58065E+03
  3.16074E+03 -3.47349E+03  3.48759E+03 -3.40986E+03  5.01456E+03 -3.34359E+03  7.57057E+03 -1.46366E+03
  9.59656E+03  2.36158E+03  5.04943E+03  8.39480E+03 -2.00352E+03  1.03632E+04 -1.03140E+04  7.88277E+03
 -1.37221E+04 -1.20249E+03 -8.99781E+03 -9.64129E+03 -1.09820E+03 -1.44118E+04  7.17896E+03 -1.44728E+04
  1.49334E+04 -8.40968E+03  1.82226E+04  3.08752E+03  1.15664E+04  1.17114E+04  2.33006E+03  1.60292E+04
 -6.02055E+03  1.32045E+04 -8.83603E+03  4.38597E+03 -6.62440E+03 -2.23583E+03 -2.25940E+03 -2.16040E+03
 -1.89626E+03 -2.28478E+02 -1.92009E+03  2.83431E+03 -6.16555E+03  1.65105E+03 -9.50250E+03 -1.77335E+03
 -6.55462E+03 -9.90041E+03 -4.76087E+02 -1.28806E+04  8.28456E+03 -1.19549E+04  1.29432E+04 -4.37816E+03
  1.34196E+04  5.95681E+03  6.15286E+03  1.21206E+04 -2.85484E+03  1.26468E+04 -9.36805E+03  8.80884E+03
 -1.24257E+04  2.89835E+02 -9.67341E+03 -8.97455E+03 -6.92911E+02 -1.15777E+04  6.12044E+03 -8.63758E+03
  7.15982E+03 -2.71009E+03  5.72647E+03  2.75915E+03  1.43562E+03  4.41462E+03  8.54435E+02  1.90302E+03
  1.54636E+03  9.68525E+02  2.92071E+03  2.20156E+03  3.88395E+03  4.69156E+03  3.70557E+03  7.12868E+03
 -2.62169E+03  9.94863E+03 -8.75249E+03  1.04519E+04 -1.29024E+04  2.76886E+03 -1.39202E+04 -6.64922E+03
 -6.04161E+03 -1.33399E+04  2.05626E+03 -1.42121E+04  7.95822E+03 -1.00369E+04  1.04825E+04 -2.00971E+03
  8.61851E+03  4.35105E+03  1.84752E+03  8.20323E+03 -3.94231E+03  4.18131E+03 -5.05477E+03 -5.02835E+02
 -1.90348E+03 -5.60841E+03  3.09628E+03 -5.09214E+03  5.58306E+03 -3.06682E+03  4.85522E+03  1.52460E+03
  2.57272E+03  2.79310E+03  1.01257E+03  2.56448E+03 -1.09756E+02  1.55735E+03  2.27314E+03 -1.10043E+03
  1.85994E+03 -5.15067E+02  5.65426E+03  2.49054E+03  3.51059E+03  7.92635E+03 -1.20676E+03  9.40787E+03
 -6.00577E+03  5.82854E+03 -8.03015E+03  1.61721E+03 -6.73632E+03 -3.10610E+03 -3.23995E+03 -5.33208E+03
  2.40113E+02 -5.51505E+03  3.41744E+03 -2.48699E+03  2.49397E+03  2.78885E+03 -1.36739E+03  4.25309E+03
 -5.67316E+03  2.29957E+03 -5.29192E+03 -3.05153E+03 -3.92609E+03 -7.58672E+03  1.20707E+03 -7.80022E+03
  4.43719E+03 -3.81409E+03  5.50164E+03 -5.94210E+02  4.59327E+03  2.15773E+03  1.45696E+03  3.84797E+03
 -3.13099E+03  8.53146E+02 -3.81578E+03 -2.19428E+03  1.86621E+03 -5.64794E+03  7.08151E+03 -4.69061E+03
  8.16272E+03  9.29511E+02  8.91398E+03  5.43300E+03  2.43849E+03  9.24062E+03 -2.98906E+03  8.58574E+03
 -7.40252E+03  2.74815E+03 -7.48959E+03 -1.55951E+03 -3.52935E+03 -5.82550E+03  9.50353E+02 -5.88142E+03
  5.25312E+03 -2.79593E+03  5.17717E+03  2.51115E+03  1.58366E+03  5.15112E+03 -1.00216E+03  3.91667E+03
 -2.05023E+03  3.22311E+03 -1.60439E+03  1.02877E+03 -5.08328E+02 -4.64833E+02 -1.42807E+03  2.15067E+03
 -1.61518E+03  2.99442E+03 -5.70130E+03  3.25713E+03 -8.40409E+03  3.50912E+02 -9.94912E+03 -5.80490E+03
 -4.98253E+03 -1.09441E+04  2.74361E+03 -1.35262E+04  7.94592E+03 -1.06485E+04  1.21963E+04 -4.59054E+03
  1.10578E+04  2.47167E+03  7.06653E+03  7.16872E+03  1.63460E+02  9.19885E+03 -3.52115E+03  6.28279E+03
 -5.11225E+03  2.43195E+03 -2.26709E+03 -6.73453E+02 -8.58189E+02 -2.67021E+02 -5.27670E+02 -4.05839E+02
 -2.26502E+03 -1.26696E+02 -1.25048E+03 -3.23155E+02 -5.18492E+02 -1.44258E+03 -4.25388E+02 -3.20404E+03
  3.96457E+03 -2.92053E+03  4.79475E+03 -7.38554E+02  5.29383E+03  4.54477E+03  9.75989E+02  8.75899E+03
 -4.00077E+03  1.03229E+04 -9.26474E+03  6.18584E+03 -1.05897E+04 -1.47477E+03 -7.39861E+03 -6.79813E+03
 -2.68870E+03 -8.72653E+03  2.58407E+03 -7.17370E+03  5.52808E+03 -5.09215E+03  5.60799E+03  8.84327E+01
  2.86222E+03  2.84868E+03 -4.36190E+02  2.24859E+03 -1.20837E+03 -3.06927E+00  2.74730E+02 -1.72588E+03
  3.02835E+03 -1.99879E+03  3.25760E+03  7.38308E+02  2.55438E+03  3.53529E+03  4.81911E+02  4.61676E+03
 -4.10287E+03  4.47635E+03 -5.96819E+03  2.28387E+02 -5.11849E+03 -3.42426E+03 -1.01827E+03 -6.82430E+03
  3.50593E+03 -5.86447E+03  6.42124E+03 -1.84155E+03  6.69854E+03  1.63363E+03  3.41181E+03  5.99354E+03
  1.71058E+03  5.20919E+03 -2.10459E+03  4.61288E+03 -3.55587E+03  3.60802E+03 -2.93727E+03  8.93037E+02
 -1.25725E+03 -1.41244E+02 -1.43700E+03  3.80364E+02 -2.83244E+03  6.11945E+02 -4.82556E+03 -5.05046E+02
 -4.89794E+03 -2.95901E+03 -2.01731E+03 -5.91628E+03  2.77247E+03 -6.56970E+03  5.79291E+03 -3.35709E+03
  5.95841E+03  1.14868E+03  2.21607E+03  4.03586E+03 -1.14686E+02  5.61367E+03 -4.33038E+03  4.31273E+03
