 $NMID ID='MM_0lb_SNR400_13hz_g40_91.RAW', FMTDAT='(8E13.5)'
 TRAMP=1., VOLUME=1. $END
  3.09794E+05  1.64361E+02  3.37464E+05  2.51047E+05  8.41791E+04  3.37886E+05 -1.32244E+05  2.51021E+05
 -1.90161E+05  8.28325E+04 -1.11576E+05 -3.26493E+04  9.96938E+02 -5.01569E+04  5.36033E+04  1.11154E+01
  3.52442E+04  5.32930E+04 -1.74685E+04  7.53428E+04 -6.07467E+04  6.35222E+04 -8.41529E+04  3.20676E+04
 -8.14669E+04 -1.14036E+04 -5.77246E+04 -5.13724E+04 -1.52838E+04 -6.98854E+04  2.70599E+04 -4.54104E+04
  3.97659E+04  3.64544E+03  1.64012E+04  4.76712E+04 -3.46440E+04  4.72104E+04 -6.69727E+04 -6.39359E+02
 -5.26045E+04 -5.68021E+04 -6.66529E+03 -7.69677E+04  3.40853E+04 -5.50737E+04  4.79306E+04 -1.71624E+04
  4.37880E+04  1.10486E+04  3.18303E+04  2.52463E+04  1.60513E+04  2.93094E+04 -5.88832E+03  2.71082E+04
 -2.17700E+04  1.18515E+04 -1.85911E+04 -5.38967E+03  5.85927E+03 -7.47200E+03  2.24885E+04  1.26991E+04
  7.12210E+03  3.56264E+04 -3.17238E+04  3.47594E+04 -6.29072E+04  2.03724E+03 -5.70831E+04 -4.27452E+04
 -1.26112E+04 -6.28646E+04  3.88397E+04 -4.46376E+04  5.79857E+04 -2.43310E+03  3.39910E+04  3.21911E+04
 -6.28953E+03  3.56288E+04 -2.97467E+04  1.55389E+04 -3.06523E+04 -4.57483E+03 -1.62811E+04 -1.12860E+04
 -8.16617E+03 -1.37497E+04 -5.00087E+02 -1.81503E+04  7.16361E+03 -2.30728E+04  1.46776E+04 -1.32161E+04
  1.14978E+04  5.58077E+03 -8.66734E+03  1.30473E+04 -2.12046E+04 -4.82492E+03 -8.11453E+03 -3.30011E+04
  2.24898E+04 -4.35481E+04  4.82443E+04 -1.96014E+04  4.52526E+04  1.99244E+04  1.52765E+04  4.45380E+04
 -1.56659E+04  3.34476E+04 -2.55739E+04  1.90260E+03 -1.01989E+04 -2.80259E+04  2.13217E+04 -3.36605E+04
  4.14699E+04 -8.20361E+03  3.57407E+04  2.39972E+04  1.77441E+04  4.62222E+04 -8.24677E+03  4.95199E+04
 -3.13465E+04  3.38684E+04 -4.19609E+04  9.90734E+03 -4.25929E+04 -1.70436E+04 -2.28690E+04 -3.78511E+04
  7.32492E+03 -3.77210E+04  3.16029E+04 -1.48152E+04  2.89681E+04  1.16271E+04  4.09526E+03  1.91630E+04
 -1.34587E+04  8.52817E+03 -1.01740E+04 -7.74041E+03  5.50179E+03 -1.02397E+04  1.82248E+04  6.50165E+03
  1.36511E+04  2.20770E+04 -5.57414E+03  2.56679E+04 -2.24062E+04  1.18630E+04 -2.75775E+04 -5.22825E+03
 -2.07408E+04 -1.75837E+04 -8.28343E+03 -2.04028E+04  4.36923E+03 -1.96148E+04  1.58287E+04 -1.81777E+04
  2.60035E+04 -1.21989E+04  3.32003E+04  3.42506E+03  2.38318E+04  2.02703E+04  4.22624E+03  3.63563E+04
 -1.78817E+04  3.02536E+04 -2.79120E+04  1.05430E+04 -2.11509E+04 -1.03316E+04 -4.48593E+03 -1.34907E+04
  2.21381E+03 -2.65390E+03 -5.70497E+03  6.49919E+03 -1.69306E+04  5.01627E+03 -1.65943E+04 -6.92735E+03
 -1.03834E+04 -1.90897E+04  5.04501E+03 -2.32714E+04  1.53328E+04 -1.64273E+04  1.81320E+04 -1.33329E+03
  1.20623E+04  1.26993E+04 -9.35093E+02  1.90373E+04 -1.36420E+04  1.09281E+04 -1.90093E+04 -3.22439E+03
 -1.50384E+04 -1.70918E+04 -2.17598E+03 -2.30922E+04  1.04859E+04 -1.89350E+04  1.92320E+04 -9.55745E+03
  1.79303E+04  3.15397E+02  1.29334E+04  4.01496E+03  6.66462E+03  9.81397E+02  9.85933E+03 -1.95834E+03
  1.71570E+04  3.39896E+03  1.90735E+04  1.50229E+04  1.30382E+04  3.08117E+04 -2.68681E+03  3.48804E+04
 -1.98535E+04  2.78244E+04 -3.23296E+04  1.40429E+04 -3.33548E+04 -2.44748E+03 -2.78052E+04 -1.85556E+04
 -1.14120E+04 -2.74755E+04  1.01043E+04 -2.54092E+04  2.16373E+04 -1.24399E+04  1.96672E+04  5.68534E+03
  7.98937E+03  1.36035E+04 -9.79906E+03  1.30705E+04 -1.58125E+04  1.82242E+03 -1.21499E+04 -1.03100E+04
 -1.08104E+02 -1.47417E+04  7.98222E+03 -1.13181E+04  1.06217E+04 -1.38508E+03  2.40170E+03  6.09917E+03
 -7.37046E+03  2.78576E+03 -6.16829E+03 -5.54646E+03 -5.40695E+02 -1.36726E+04  9.03246E+03 -1.41326E+04
  1.69469E+04 -7.27530E+03  1.77546E+04  3.31264E+03  1.58231E+04  1.31736E+04  7.75062E+03  2.09802E+04
 -3.63282E+03  2.25741E+04 -1.45972E+04  1.38766E+04 -1.62032E+04  3.59084E+03 -1.16989E+04 -3.80868E+03
 -5.60928E+03 -5.13711E+03 -1.05118E+03  1.21153E+03 -2.63039E+03  2.92272E+03 -5.53647E+03  4.60595E+03
 -1.07080E+04 -5.63859E+02 -1.18076E+04 -9.04249E+03 -5.07440E+03 -1.51432E+04  5.03432E+03 -1.15295E+04
  9.39213E+03 -5.26017E+03  7.12401E+03  3.88111E+03 -2.19191E+01  4.48181E+03 -4.96513E+03 -5.94210E+02
 -5.20971E+03 -7.36439E+03 -6.45745E+02 -1.11218E+04  6.44889E+03 -1.12066E+04  1.39873E+04 -6.30361E+03
  1.64314E+04  1.47207E+03  1.22269E+04  9.43446E+03  2.25140E+03  1.27663E+04 -6.98920E+03  1.12684E+04
 -9.29633E+03  3.09312E+03 -4.67347E+03 -2.91809E+03  1.74725E+03 -3.30399E+03  6.96567E+03 -9.31080E+02
  5.54327E+03  5.08483E+03  1.38553E+03  9.35589E+03 -6.23062E+03  7.76973E+03 -1.15174E+04  2.59729E+03
 -7.67276E+03 -5.46989E+03  5.83682E+01 -9.17834E+03  6.01302E+03 -4.57925E+03  6.07709E+03  2.65801E+03
  1.58270E+03  6.77922E+03 -5.76392E+03  7.52921E+03 -8.71558E+03  3.60415E+03 -9.04270E+03 -2.65616E+03
 -5.54989E+03 -1.06073E+04  2.41618E+03 -1.14435E+04  1.04788E+04 -7.25206E+03  1.08864E+04  2.02646E+03
  6.90088E+03  8.72791E+03 -7.68981E+02  1.08624E+04 -7.83689E+03  5.90422E+03 -8.79307E+03 -8.23122E+02
 -8.58280E+03 -7.38346E+03 -1.82907E+03 -7.90869E+03  4.50065E+03 -6.45467E+03  5.30118E+03 -3.11933E+03
  3.79024E+03  1.10714E+03 -9.31917E+02  1.40267E+03 -4.37649E+01 -1.94024E+03  1.79315E+03 -4.55549E+03
  7.24635E+03 -2.26507E+03  9.93273E+03  1.10902E+03  9.97218E+03  6.37833E+03  7.30065E+03  1.29713E+04
 -2.99177E+03  1.44306E+04 -1.27591E+04  1.11941E+04 -1.69580E+04  2.37834E+03 -1.34922E+04 -4.96306E+03
 -6.71430E+03 -1.07340E+04 -5.88000E+02 -8.95893E+03  3.89481E+03 -5.32948E+03  2.73981E+03 -2.96214E+03
  2.65806E+03 -2.31278E+03  2.11346E+03 -2.78153E+03  4.67313E+03 -2.71055E+03  6.28833E+03  1.69743E+02
  6.99026E+03  1.75768E+03  3.29421E+03  6.23549E+03 -1.66659E+03  6.26703E+03 -6.97079E+03  5.75205E+03
 -8.87642E+03 -1.25502E+03 -5.05077E+03 -6.60933E+03  8.72650E+01 -9.01023E+03  5.24002E+03 -9.79760E+03
  9.70648E+03 -5.51125E+03  1.20334E+04  1.27648E+03  8.79363E+03  7.73996E+03  1.91154E+03  1.04646E+04
 -4.27226E+03  9.34831E+03 -6.16306E+03  3.47059E+03 -3.93203E+03 -1.62020E+03 -8.94346E+02 -1.20203E+03
 -7.93573E+02  4.14546E+02 -1.46379E+03  2.37628E+03 -3.04372E+03  1.96882E+03 -6.77242E+03 -1.32242E+02
 -3.81533E+03 -6.84179E+03 -2.03359E+02 -8.75013E+03  5.44329E+03 -7.89259E+03  7.86990E+03 -2.28916E+03
  8.44770E+03  4.40954E+03  3.80190E+03  7.45153E+03 -1.58740E+03  8.67467E+03 -6.12387E+03  5.09370E+03
 -8.38427E+03  5.77538E+02 -6.06600E+03 -5.51701E+03  1.14662E+01 -7.32887E+03  3.28854E+03 -5.77059E+03
  5.53767E+03 -2.24548E+03  3.18038E+03  9.33461E+02  6.38312E+02  3.02165E+03  4.42893E+02  6.28560E+02
  2.05364E+03  9.53025E+02  1.66826E+03  1.55235E+03  2.90110E+03  3.29370E+03  2.64097E+03  4.68557E+03
 -2.03863E+03  6.44697E+03 -5.94763E+03  7.23210E+03 -8.07426E+03  2.79100E+03 -8.97750E+03 -2.74943E+03
 -3.94512E+03 -8.15253E+03  1.07749E+03 -8.94273E+03  4.95595E+03 -5.79284E+03  6.80846E+03 -1.52783E+03
  5.40752E+03  3.19412E+03  1.18755E+03  5.23895E+03 -2.29207E+03  2.91391E+03 -3.37176E+03  6.83260E+01
 -1.51487E+03 -3.41248E+03  1.58832E+03 -2.69052E+03  3.06974E+03 -2.03659E+03  3.49789E+03  7.25354E+02
  2.13850E+03  1.02707E+03  1.03741E+03  9.14428E+02 -7.05317E+01  1.64746E+03  1.30885E+03 -4.48193E+02
  8.48723E+02 -1.96951E+02  2.79278E+03  1.74118E+03  1.21562E+03  4.97163E+03 -5.41974E+02  5.61564E+03
 -3.73462E+03  3.62698E+03 -4.07865E+03  1.13578E+03 -5.00937E+03 -1.63919E+03 -1.89004E+03 -2.35440E+03
  1.11374E+02 -3.09823E+03  2.21467E+03 -1.37703E+03  1.07224E+03  1.96979E+03 -9.70564E+02  2.02148E+03
 -3.40587E+03  2.34660E+03 -3.50156E+03 -2.44548E+03 -2.63852E+03 -3.80541E+03  3.74990E+02 -4.59647E+03
  2.87051E+03 -2.04440E+03  2.69372E+03 -1.27157E+01  2.46085E+03  2.26323E+02  9.94094E+02  1.83764E+03
 -1.67307E+03  2.64172E+02 -1.14399E+03 -1.71700E+03  6.51349E+02 -2.66130E+03  3.87484E+03 -2.53356E+03
  4.40238E+03  5.70655E+02  5.57967E+03  2.53194E+03  1.46261E+03  4.56422E+03 -1.98998E+03  4.47333E+03
 -4.16759E+03  1.18682E+03 -3.92667E+03 -7.96139E+02 -2.16912E+03 -2.86480E+03  9.61744E+02 -2.15537E+03
  3.92767E+03 -2.03705E+03  2.67961E+03  8.18014E+02  5.01387E+02  2.69055E+03 -4.09790E+02  3.06219E+03
 -1.90182E+03  2.36730E+03 -8.14243E+02  6.75290E+02 -8.49091E+02  6.04197E+02 -1.17249E+02  1.50425E+03
 -1.14616E+03  1.96795E+03 -3.28125E+03  2.03408E+03 -4.93777E+03  4.76204E+01 -5.39416E+03 -3.17705E+03
 -2.68960E+03 -6.36599E+03  9.33528E+02 -6.84293E+03  3.95392E+03 -5.57022E+03  7.15103E+03 -2.65917E+03
  6.74897E+03  1.04077E+03  4.15426E+03  4.70484E+03 -3.49351E+02  4.79835E+03 -1.71050E+03  2.78705E+03
 -2.95477E+03  1.89168E+03 -1.63424E+03 -2.51137E+02 -1.14580E+03 -4.03550E+02 -4.85532E+02 -4.45079E+02
 -7.60481E+02 -2.17305E+02 -1.48083E+03 -1.17592E+02 -3.58631E+02 -9.52012E+02  2.35603E+02 -1.43751E+03
  2.20220E+03 -9.63483E+02  2.71778E+03  4.87509E+02  3.13369E+03  2.29259E+03  1.10279E+03  4.67418E+03
 -2.74066E+03  5.88700E+03 -4.85620E+03  3.44306E+03 -6.12945E+03 -3.91708E+01 -4.57252E+03 -3.33243E+03
 -1.50738E+03 -4.27035E+03  1.01810E+03 -4.37721E+03  2.93209E+03 -2.40833E+03  3.49987E+03 -2.19571E+02
  2.09940E+03  1.50341E+03 -3.41574E+02  1.26506E+03 -7.02333E+02 -7.07372E+01  5.47404E+01 -6.80077E+02
  1.89153E+03 -2.62521E+01  1.02239E+03  3.11786E+02  5.44004E+02  2.16676E+03  4.70115E+02  2.57721E+03
 -2.25069E+03  1.81955E+03 -2.92356E+03  5.41617E+02 -2.66602E+03 -2.05631E+03 -3.42012E+02 -3.51064E+03
  1.18183E+03 -2.70837E+03  3.48866E+03 -8.10427E+02  2.95446E+03  4.09853E+02  1.93132E+03  3.07603E+03
 -3.78468E+02  2.35069E+03 -7.21972E+02  2.32802E+03 -1.46730E+03  1.66366E+03 -1.19231E+03  2.93520E+02
 -7.08172E+02 -1.19470E+02 -9.46472E+02  1.92114E+02 -1.42319E+03  4.01109E+02 -2.26191E+03  2.93829E+02
 -2.62711E+03 -8.61386E+02 -5.76731E+02 -3.16307E+03  1.21021E+03 -4.33745E+03  2.68958E+03 -1.12718E+03
  2.17358E+03  9.68961E+01  1.13612E+03  1.22276E+03 -7.09465E+01  3.02687E+03 -2.19688E+03  2.25371E+03
