 $NMID ID='MM_0lb_SNR400_17hz_g40_81.RAW', FMTDAT='(8E13.5)'
 TRAMP=1., VOLUME=1. $END
  3.09560E+05 -1.98797E+02  3.37370E+05  2.50094E+05  8.43346E+04  3.37010E+05 -1.32472E+05  2.50708E+05
 -1.89556E+05  8.21992E+04 -1.10281E+05 -3.28438E+04  1.30858E+03 -4.98539E+04  5.42053E+04  4.44343E+02
  3.50689E+04  5.26103E+04 -1.64857E+04  7.47618E+04 -6.08329E+04  6.27773E+04 -8.33965E+04  3.12671E+04
 -7.95892E+04 -1.09702E+04 -5.59911E+04 -5.04467E+04 -1.45499E+04 -6.84933E+04  2.67124E+04 -4.46467E+04
  3.94484E+04  4.12400E+03  1.54457E+04  4.73661E+04 -3.40001E+04  4.62159E+04 -6.48339E+04 -2.80255E+02
 -5.24608E+04 -5.58429E+04 -6.46688E+03 -7.49550E+04  3.31091E+04 -5.35066E+04  4.65463E+04 -1.69722E+04
  4.22500E+04  1.07690E+04  3.05036E+04  2.44624E+04  1.58605E+04  2.88530E+04 -4.86494E+03  2.67084E+04
 -2.14402E+04  1.26875E+04 -1.89058E+04 -4.74767E+03  4.11738E+03 -7.03244E+03  2.11477E+04  1.09575E+04
  7.46262E+03  3.30666E+04 -3.06210E+04  3.44715E+04 -6.12769E+04  2.29113E+03 -5.55633E+04 -4.08839E+04
 -1.23641E+04 -6.12350E+04  3.80631E+04 -4.36395E+04  5.58750E+04 -8.83647E+02  3.19130E+04  3.08287E+04
 -7.01070E+03  3.26717E+04 -2.80096E+04  1.38546E+04 -2.78891E+04 -5.41596E+03 -1.48749E+04 -1.00675E+04
 -6.90972E+03 -1.10427E+04 -7.80227E+02 -1.65618E+04  7.37934E+03 -2.25382E+04  1.53064E+04 -1.36791E+04
  1.16995E+04  4.24639E+03 -6.54268E+03  1.26640E+04 -1.98105E+04 -2.94479E+03 -8.16275E+03 -3.08338E+04
  2.13109E+04 -4.10613E+04  4.51839E+04 -1.89857E+04  4.17063E+04  1.87487E+04  1.42906E+04  4.20140E+04
 -1.50504E+04  3.18486E+04 -2.36539E+04  1.17550E+03 -8.47736E+03 -2.68299E+04  2.07657E+04 -3.15437E+04
  3.84230E+04 -7.65862E+03  3.15352E+04  2.27930E+04  1.61567E+04  4.31275E+04 -7.70955E+03  4.58468E+04
 -2.86169E+04  3.00456E+04 -3.81112E+04  8.27062E+03 -3.87371E+04 -1.55856E+04 -2.14067E+04 -3.54045E+04
  6.52397E+03 -3.45979E+04  2.96361E+04 -1.28796E+04  2.74281E+04  1.09187E+04  2.70292E+03  1.75206E+04
 -1.29240E+04  7.21032E+03 -9.59541E+03 -7.51762E+03  5.93555E+03 -1.02255E+04  1.72170E+04  6.18581E+03
  1.27848E+04  2.15148E+04 -6.94452E+03  2.33909E+04 -2.17438E+04  9.88353E+03 -2.53660E+04 -6.07324E+03
 -1.69142E+04 -1.57605E+04 -6.70253E+03 -1.69171E+04  3.55791E+03 -1.51178E+04  1.32107E+04 -1.48155E+04
  2.14962E+04 -1.17072E+04  2.86005E+04  1.03287E+03  2.14481E+04  1.68077E+04  4.14028E+03  3.32000E+04
 -1.58842E+04  2.82486E+04 -2.64638E+04  9.47285E+03 -2.02773E+04 -1.02332E+04 -4.04389E+03 -1.39852E+04
  2.67245E+03 -3.97999E+03 -3.26629E+03  5.73317E+03 -1.34401E+04  5.63543E+03 -1.33820E+04 -5.22921E+03
 -9.41176E+03 -1.61175E+04  4.54390E+03 -1.98243E+04  1.35335E+04 -1.42167E+04  1.47503E+04 -9.44569E+02
  8.95008E+03  1.11626E+04 -8.69816E+02  1.60766E+04 -1.07350E+04  9.05338E+03 -1.58794E+04 -3.38256E+03
 -1.15975E+04 -1.44772E+04 -9.49589E+02 -1.99405E+04  8.82939E+03 -1.61676E+04  1.67248E+04 -7.54534E+03
  1.52744E+04  3.86753E+02  1.08923E+04  3.71158E+03  5.27328E+03  7.54146E+02  8.12941E+03 -1.27618E+03
  1.45134E+04  3.30641E+03  1.59271E+04  1.29830E+04  9.88596E+03  2.57839E+04 -3.08716E+03  2.78261E+04
 -1.66936E+04  2.17200E+04 -2.57554E+04  1.06487E+04 -2.61374E+04 -1.37265E+03 -2.23437E+04 -1.49650E+04
 -1.02080E+04 -2.14613E+04  6.98092E+03 -1.98400E+04  1.73738E+04 -1.07902E+04  1.63764E+04  3.91478E+03
  6.74833E+03  1.20977E+04 -7.33773E+03  1.08264E+04 -1.39382E+04  3.03876E+03 -1.06438E+04 -8.57241E+03
 -4.54141E+02 -1.26632E+04  6.14904E+03 -9.93231E+03  8.04784E+03 -1.72333E+03  1.68478E+03  4.60086E+03
 -5.43101E+03  9.44420E+02 -3.99271E+03 -4.55464E+03  3.48898E+02 -1.02568E+04  8.34217E+03 -1.09334E+04
  1.26991E+04 -5.02818E+03  1.32394E+04  3.02225E+03  1.12626E+04  1.00696E+04  5.80016E+03  1.47196E+04
 -2.28573E+03  1.69723E+04 -1.01355E+04  1.09353E+04 -1.21032E+04  2.22506E+03 -8.83155E+03 -3.61069E+03
 -4.50012E+03 -4.02882E+03 -6.04188E+02  1.49144E+03 -1.90263E+03  1.99221E+03 -4.20174E+03  3.88462E+03
 -8.45620E+03 -1.95042E+02 -8.89188E+03 -7.41986E+03 -3.47730E+03 -1.18278E+04  3.95283E+03 -9.37323E+03
  7.70413E+03 -3.70116E+03  6.05368E+03  2.93697E+03  5.56443E+02  3.09337E+03 -3.07943E+03  3.41903E+02
 -4.14847E+03 -5.55506E+03 -4.24640E+01 -7.76380E+03  4.46419E+03 -8.30720E+03  1.02112E+04 -4.23662E+03
  1.28212E+04  7.65309E+02  9.87789E+03  6.38440E+03  1.38785E+03  8.70670E+03 -5.60912E+03  8.87404E+03
 -7.65864E+03  2.96090E+03 -3.91732E+03 -1.57966E+03  1.35782E+03 -2.12806E+03  4.96759E+03 -1.33346E+03
  4.75583E+03  3.46994E+03  1.02478E+03  6.16423E+03 -4.54856E+03  6.86376E+03 -8.00907E+03  1.86185E+03
 -5.45033E+03 -4.15696E+03  5.40253E+02 -7.08837E+03  3.71386E+03 -3.47442E+03  3.79893E+03  1.23644E+03
  6.86448E+02  3.99260E+03 -4.55814E+03  5.38314E+03 -5.90341E+03  3.15964E+03 -5.02431E+03 -1.62141E+03
 -3.43790E+03 -6.86386E+03  9.92313E+02 -7.13893E+03  6.31795E+03 -4.92339E+03  6.72451E+03  1.10236E+03
  5.21902E+03  5.79822E+03  3.18525E+02  7.64246E+03 -5.26991E+03  4.40516E+03 -5.81004E+03 -3.07303E+02
 -5.93599E+03 -5.93206E+03 -1.19106E+03 -6.02601E+03  2.90754E+03 -5.20895E+03  3.00998E+03 -2.59504E+03
  2.32731E+03  2.48390E+02 -3.92115E+02  8.26134E+02  2.53471E+02 -1.42038E+02  2.49371E+02 -2.04841E+03
  4.20328E+03 -1.04085E+03  6.04805E+03  4.99500E+02  6.56536E+03  3.19791E+03  5.43206E+03  8.58455E+03
 -1.25544E+03  9.92017E+03 -8.73194E+03  7.22512E+03 -1.06560E+04  1.07563E+03 -8.96600E+03 -3.57451E+03
 -4.76627E+03 -7.10042E+03 -1.92791E+02 -5.40346E+03  2.13438E+03 -2.74003E+03  2.11748E+03 -2.37904E+03
  9.37855E+02 -1.60994E+03  2.22788E+03 -2.42149E+03  3.38855E+03 -1.00679E+03  4.07163E+03  1.38033E+02
  4.81208E+03  1.17613E+03  1.22444E+03  4.08015E+03 -1.88179E+03  3.73672E+03 -4.73755E+03  3.23829E+03
 -5.61701E+03 -3.85545E+02 -1.86774E+03 -2.93254E+03  1.37809E+02 -5.65078E+03  3.39775E+03 -6.67443E+03
  6.16989E+03 -3.59187E+03  8.06215E+03 -2.28366E+02  5.14800E+03  4.58682E+03  1.16746E+03  6.82987E+03
 -2.44990E+03  6.21601E+03 -4.07840E+03  2.09438E+03 -2.03231E+03 -1.10434E+03 -5.73362E+02 -1.05909E+03
 -6.97310E+02  5.40854E+02 -1.50171E+03  1.84438E+03 -2.39081E+03  1.42084E+03 -4.40484E+03 -8.20656E+02
 -2.12960E+03 -4.82490E+03  1.24895E+03 -5.17088E+03  3.68366E+03 -4.99995E+03  4.13216E+03 -1.10467E+03
  4.99392E+03  2.59458E+03  1.86786E+03  3.74604E+03 -6.05091E+02  4.86159E+03 -2.99129E+03  2.83256E+03
 -4.71696E+03  8.36930E+02 -4.01659E+03 -2.75306E+03 -4.85220E+02 -3.85596E+03  2.01044E+03 -2.67465E+03
  3.73641E+03 -1.71057E+03  2.16431E+03  3.94904E+02  4.33387E+01  2.07167E+03  1.14457E+03  6.53623E+02
  1.67305E+03  4.82611E+02  1.23273E+03  1.09007E+03  1.36911E+03  2.58799E+03  1.33409E+03  2.46792E+03
 -1.25988E+03  3.89286E+03 -3.18491E+03  5.01187E+03 -3.92204E+03  5.01504E+02 -4.94765E+03 -1.54170E+03
 -1.93694E+03 -4.61731E+03  8.46831E+02 -5.76553E+03  2.70861E+03 -3.04423E+03  3.60350E+03 -1.09794E+03
  2.90664E+03  2.48419E+03  3.87638E+02  1.99587E+03 -3.43510E+02  1.77467E+03 -1.75626E+03 -3.00374E+02
 -1.42597E+03 -1.63036E+03  1.75017E+03 -2.10874E+03  1.65960E+03 -6.91366E+02  1.75276E+03  7.04849E+02
  1.04267E+03  3.68386E+02  1.28437E+03  2.61946E+02 -2.94922E+02  6.58325E+02  1.03396E+03  2.53148E+02
  1.12146E+02 -1.95197E+02  1.83588E+03  7.36876E+02  2.62260E+02  2.58714E+03 -8.54316E+02  3.57345E+03
 -2.41000E+03  2.05588E+03 -2.51959E+03  9.98402E+02 -2.46715E+03 -9.29950E+02 -7.22940E+02 -1.48686E+03
  3.30526E+02 -1.35282E+03  1.28578E+03 -9.46363E+02  1.13948E+03  1.09247E+03 -4.70759E+02  1.43676E+03
 -2.27909E+03  9.77341E+02 -2.04491E+03 -1.90155E+03 -8.06363E+02 -2.32539E+03 -2.22127E+02 -1.98901E+03
  9.81755E+02 -2.65782E+02  9.73241E+02 -1.19541E+02  1.77858E+03  2.31423E+02 -4.34569E+02  1.40997E+03
 -1.08496E+03  2.81395E+02 -1.34533E+03 -7.50897E+02  5.36523E+02 -1.10281E+03  1.88655E+03 -7.87766E+02
  1.77338E+03  7.01952E+02  3.08141E+03  9.92762E+02  1.28509E+03  1.83833E+03 -1.01661E+03  2.31209E+03
 -2.02314E+03  9.50027E+02 -2.30803E+03 -6.68217E+02 -9.86944E+02 -1.91779E+03  5.21102E+02 -8.38634E+02
  1.60898E+03 -5.33920E+02  1.49794E+03  1.01553E+03  5.08047E+02  1.39564E+03  5.34345E+02  1.88636E+03
 -6.79590E+02  1.85984E+03 -4.20724E+02  1.65522E+02 -2.71162E+02  5.92450E+02 -4.69687E+02  4.09295E+02
 -9.35563E+02  1.27056E+03 -2.37935E+03  4.08238E+02 -1.88055E+03  3.29717E+02 -3.32622E+03 -1.48080E+03
 -1.19414E+03 -3.08052E+03  3.82008E+02 -4.23334E+03  1.17204E+03 -2.89591E+03  3.45037E+03 -7.57332E+02
  3.24338E+03  3.82897E+01  1.84160E+03  2.61994E+03 -4.84595E+02  2.01887E+03 -1.08290E+03  1.94212E+03
 -1.39808E+03  8.27982E+02 -1.28928E+03 -3.61342E+02 -3.54135E+02  3.68680E+01 -4.80849E+02  2.92230E+02
 -1.16657E+03 -2.00244E+02 -1.62407E+03  2.75070E+02  9.60631E+01 -8.75444E+02 -5.61306E+02 -7.42294E+02
  1.52534E+03 -4.44919E+02  1.11171E+03  1.69737E+02  1.31988E+03  1.11009E+03 -2.15298E+01  1.81087E+03
 -1.47476E+03  3.33008E+03 -2.51294E+03  1.32312E+03 -2.52063E+03 -3.08675E+02 -1.85170E+03 -1.71427E+03
 -9.72972E+02 -1.71513E+03  3.68734E+02 -1.81099E+03  5.21537E+02 -5.94164E+02  7.65975E+02  5.42795E+02
  6.78910E+02  1.92220E+02 -1.20611E+02  1.08801E+03 -7.29139E+02 -2.56449E+02 -5.87569E+01 -4.70735E+01
  1.37341E+03 -1.23486E+02  5.11767E+02  8.47456E+02 -4.70972E+01  1.02001E+03  7.07890E+02  7.59307E+02
 -1.15446E+03  1.25736E+03 -9.72577E+02  7.92465E+01 -1.98338E+03 -4.72370E+02 -2.68664E+02 -1.69624E+03
  1.01956E+03 -9.64711E+02  8.50213E+02 -8.05039E+01  1.73762E+03 -4.51431E+02  8.22334E+02  1.80943E+03
  5.95023E+02  1.24426E+03 -5.22087E+02  7.65170E+02 -3.15228E+02  6.22393E+02 -6.98961E+02 -7.08119E+01
 -3.59899E+02 -2.50772E+02 -9.35684E+02 -1.38547E+02 -1.17838E+03  7.97046E+02 -1.05862E+03 -1.86344E+02
 -1.33288E+03  1.15401E+03 -2.13645E+02 -1.60223E+03  9.75365E+02 -1.77639E+03  1.26788E+03 -3.93757E+02
  9.88296E+02  3.01486E+02  3.00931E+02  1.11313E+03 -3.85630E+02  1.58576E+03 -1.20166E+03  1.23200E+03
