 $NMID ID='MM_0lb_SNR400_7hz_g40_100.RAW', FMTDAT='(8E13.5)'
 TRAMP=1., VOLUME=1. $END
  3.09924E+05 -2.77908E+02  3.37229E+05  2.50017E+05  8.48615E+04  3.38457E+05 -1.33709E+05  2.51838E+05
 -1.90305E+05  8.45186E+04 -1.12807E+05 -3.28578E+04  9.69240E+02 -5.01180E+04  5.43382E+04  6.59186E+01
  3.61127E+04  5.27415E+04 -1.67161E+04  7.61638E+04 -6.13581E+04  6.40407E+04 -8.59712E+04  3.26329E+04
 -8.28680E+04 -1.21583E+04 -5.86377E+04 -5.28517E+04 -1.59056E+04 -7.09416E+04  2.79687E+04 -4.70658E+04
  4.13492E+04  3.15606E+03  1.77057E+04  4.81927E+04 -3.50941E+04  4.80719E+04 -6.96511E+04 -1.76158E+02
 -5.51479E+04 -5.83957E+04 -7.42144E+03 -7.99695E+04  3.43457E+04 -5.75948E+04  4.96148E+04 -1.84425E+04
  4.51677E+04  1.09581E+04  3.38417E+04  2.69864E+04  1.59687E+04  3.04679E+04 -4.89567E+03  2.79303E+04
 -2.33599E+04  1.07301E+04 -1.75974E+04 -6.23863E+03  7.41533E+03 -7.22436E+03  2.37862E+04  1.34181E+04
  7.63472E+03  3.75555E+04 -3.41037E+04  3.70198E+04 -6.67131E+04  1.81129E+03 -5.83014E+04 -4.45317E+04
 -1.27639E+04 -6.64245E+04  4.21956E+04 -4.77436E+04  6.18687E+04 -1.40977E+03  3.70745E+04  3.40922E+04
 -4.35425E+03  3.99809E+04 -3.24921E+04  1.91548E+04 -3.43057E+04 -3.73717E+03 -1.98333E+04 -1.13433E+04
 -8.79067E+03 -1.52175E+04  8.13418E+02 -1.93865E+04  7.52689E+03 -2.38717E+04  1.65770E+04 -1.25851E+04
  1.00060E+04  6.90754E+03 -1.14066E+04  1.29670E+04 -2.38886E+04 -7.64246E+03 -7.55281E+03 -3.76924E+04
  2.58838E+04 -4.73560E+04  5.30192E+04 -2.09386E+04  4.95060E+04  2.06332E+04  1.73354E+04  4.82739E+04
 -1.69474E+04  3.66110E+04 -2.89307E+04  3.03285E+03 -1.22929E+04 -3.02963E+04  2.11471E+04 -3.77687E+04
  4.51332E+04 -1.18745E+04  4.10026E+04  2.50197E+04  2.25104E+04  5.25815E+04 -7.96262E+03  5.75390E+04
 -3.60943E+04  3.93704E+04 -4.92589E+04  1.11170E+04 -4.85414E+04 -1.90501E+04 -2.70404E+04 -4.40168E+04
  9.00520E+03 -4.27446E+04  3.50770E+04 -1.73118E+04  3.32165E+04  1.07782E+04  5.41785E+03  2.17173E+04
 -1.47178E+04  9.74389E+03 -1.31029E+04 -7.99898E+03  5.86346E+03 -1.12837E+04  1.87215E+04  5.38410E+03
  1.58682E+04  2.24127E+04 -6.18368E+03  2.74629E+04 -2.33109E+04  1.65804E+04 -3.22610E+04 -2.45031E+03
 -2.65090E+04 -1.86343E+04 -1.18228E+04 -2.60610E+04  3.86043E+03 -2.80423E+04  2.14671E+04 -2.41744E+04
  3.29047E+04 -1.54827E+04  3.96644E+04  5.93839E+03  2.83868E+04  2.54409E+04  4.03690E+03  4.32079E+04
 -2.07528E+04  3.53298E+04 -3.11701E+04  1.17296E+04 -2.20815E+04 -1.02661E+04 -4.90307E+03 -1.25527E+04
  6.69855E+02 -1.29104E+03 -8.30340E+03  8.08246E+03 -2.10327E+04  4.43259E+03 -2.08166E+04 -1.02588E+04
 -1.19534E+04 -2.42233E+04  6.61768E+03 -2.87663E+04  1.95986E+04 -2.07147E+04  2.43303E+04 -1.41858E+03
  1.51219E+04  1.69981E+04 -1.38875E+03  2.43016E+04 -1.72867E+04  1.37125E+04 -2.48763E+04 -4.97221E+03
 -1.77938E+04 -2.26590E+04 -1.65712E+03 -2.95045E+04  1.33548E+04 -2.45883E+04  2.42367E+04 -1.26953E+04
  2.38939E+04 -7.38357E+02  1.69075E+04  5.59063E+03  9.32660E+03  1.53679E+03  1.25631E+04 -2.32284E+03
  2.45215E+04  3.15011E+03  2.70592E+04  1.82961E+04  1.92969E+04  3.95710E+04 -2.00107E+03  4.74944E+04
 -2.59898E+04  3.92414E+04 -4.39771E+04  2.11487E+04 -4.79708E+04 -3.02757E+03 -3.90138E+04 -2.76116E+04
 -1.51818E+04 -4.03323E+04  1.45230E+04 -3.48610E+04  2.87643E+04 -1.60295E+04  2.55744E+04  7.94270E+03
  8.98624E+03  2.01504E+04 -1.27934E+04  1.65822E+04 -2.17237E+04  2.71646E+03 -1.56636E+04 -1.41195E+04
 -9.93946E+02 -2.03428E+04  1.13474E+04 -1.50125E+04  1.42551E+04 -8.12439E+02  4.61290E+03  9.08112E+03
 -9.35692E+03  4.25423E+03 -1.06018E+04 -7.35617E+03 -2.15002E+03 -1.87305E+04  1.23637E+04 -2.13788E+04
  2.50689E+04 -1.19428E+04  2.82054E+04  2.64842E+03  2.69103E+04  2.10771E+04  1.12304E+04  3.21012E+04
 -6.79587E+03  3.41963E+04 -2.20782E+04  2.01646E+04 -2.47996E+04  4.66932E+03 -1.69987E+04 -7.09028E+03
 -6.45936E+03 -7.33628E+03 -6.15340E+02 -6.04734E+02 -3.14055E+03  4.22266E+03 -8.33146E+03  5.50009E+03
 -1.64426E+04 -8.39326E+02 -1.57193E+04 -1.28125E+04 -7.23400E+03 -2.10182E+04  7.39520E+03 -1.67969E+04
  1.35008E+04 -7.07148E+03  1.03130E+04  5.20794E+03 -2.76793E+02  7.73272E+03 -8.12086E+03 -5.97424E+02
 -8.23396E+03 -1.12019E+04 -4.11984E+02 -1.74434E+04  1.05273E+04 -1.78467E+04  2.17033E+04 -1.01844E+04
  2.56966E+04  3.77370E+03  1.95031E+04  1.59432E+04  4.16422E+03  2.16170E+04 -9.99348E+03  1.63815E+04
 -1.34927E+04  4.17702E+03 -6.38911E+03 -4.93569E+03  2.31966E+03 -5.65101E+03  9.51434E+03 -4.85296E+02
  7.91173E+03  8.13670E+03  9.60030E+02  1.35908E+04 -9.61067E+03  1.39222E+04 -1.68339E+04  2.58328E+03
 -1.20272E+04 -9.40575E+03  5.10629E+01 -1.57619E+04  1.02972E+04 -7.64462E+03  1.11122E+04  3.14801E+03
  3.21090E+03  1.20615E+04 -9.83393E+03  1.32503E+04 -1.59291E+04  6.29540E+03 -1.61928E+04 -6.71156E+03
 -9.43740E+03 -1.82487E+04  4.38036E+03 -2.05814E+04  1.75153E+04 -1.16759E+04  1.93576E+04  3.49419E+03
  1.12643E+04  1.42978E+04 -2.32005E+03  1.72889E+04 -1.28278E+04  1.07177E+04 -1.43555E+04 -2.49679E+03
 -1.22127E+04 -1.12838E+04 -1.83195E+03 -1.37513E+04  7.30706E+03 -1.14321E+04  9.59889E+03 -3.41721E+03
  5.58548E+03  2.83457E+03 -1.86557E+03  1.63638E+03 -1.32863E+03 -3.70769E+03  2.87203E+03 -9.03266E+03
  1.34274E+04 -6.76578E+03  1.86540E+04  1.48550E+03  1.73554E+04  1.29256E+04  1.10656E+04  2.48525E+04
 -6.40377E+03  2.76284E+04 -2.27030E+04  1.96340E+04 -3.00358E+04  3.64869E+03 -2.41042E+04 -9.75477E+03
 -1.23454E+04 -1.94652E+04  7.44098E+00 -1.66836E+04  5.65068E+03 -8.88973E+03  6.75763E+03 -6.20202E+03
  4.33707E+03 -2.99902E+03  4.83534E+03 -3.91633E+03  5.86842E+03 -4.32783E+03  9.10071E+03 -2.17912E+03
  1.19535E+04  2.72572E+03  7.99161E+03  1.12961E+04 -1.92256E+03  1.32555E+04 -1.26743E+04  1.03417E+04
 -1.71792E+04 -1.59236E+03 -1.07588E+04 -1.17832E+04 -1.91769E+03 -1.93904E+04  1.01022E+04 -1.76242E+04
  2.06096E+04 -1.07185E+04  2.24351E+04  2.64698E+03  1.53773E+04  1.69383E+04  2.21586E+03  2.09304E+04
 -8.13634E+03  1.62154E+04 -1.15793E+04  5.57593E+03 -8.18909E+03 -1.96288E+03 -3.69919E+03 -1.75274E+03
 -2.11086E+03 -2.41263E+02 -2.48817E+03  3.63992E+03 -6.97899E+03  3.32228E+03 -1.15681E+04 -2.88140E+03
 -9.04488E+03 -1.16696E+04 -7.46366E+02 -1.71053E+04  1.17785E+04 -1.66111E+04  1.70733E+04 -5.72473E+03
  1.81393E+04  8.86127E+03  7.19390E+03  1.58272E+04 -3.54232E+03  1.82763E+04 -1.34207E+04  1.10881E+04
 -1.69692E+04  7.35490E+02 -1.30723E+04 -1.06344E+04 -2.28271E+03 -1.53190E+04  8.26967E+03 -1.11536E+04
  1.11957E+04 -3.61791E+03  8.16364E+03  2.44069E+03  2.78230E+03  5.76957E+03  1.22742E+03  3.13786E+03
  2.46798E+03  1.34061E+03  3.81034E+03  3.32484E+03  5.29176E+03  5.33265E+03  4.86674E+03  9.92905E+03
 -3.63605E+03  1.40298E+04 -1.33516E+04  1.45282E+04 -1.93310E+04  3.49206E+03 -1.82638E+04 -8.39491E+03
 -9.49816E+03 -1.85481E+04  2.55798E+03 -2.05552E+04  1.18423E+04 -1.34968E+04  1.49719E+04 -2.38710E+03
  1.20542E+04  6.32623E+03  3.48305E+03  1.06979E+04 -5.66561E+03  6.28831E+03 -7.40950E+03 -1.85421E+03
 -3.18235E+03 -8.76483E+03  3.81327E+03 -8.18526E+03  7.38388E+03 -2.86475E+03  7.48743E+03  1.68514E+03
  3.37993E+03  4.06775E+03  2.16138E+03  2.70054E+03 -5.09443E+02  3.16399E+03  1.68841E+03 -3.27236E+02
  3.12547E+03 -1.83800E+03  6.64501E+03  2.69375E+03  4.36730E+03  1.08013E+04 -2.04909E+03  1.31368E+04
 -8.67534E+03  8.88013E+03 -1.20093E+04  2.34220E+03 -9.82975E+03 -4.48053E+03 -3.89179E+03 -8.10634E+03
  1.93657E+03 -7.55189E+03  4.72849E+03 -3.06268E+03  4.03515E+03  3.45182E+03 -1.93778E+03  6.45717E+03
 -7.11302E+03  4.46214E+03 -9.40910E+03 -4.77517E+03 -5.08538E+03 -1.09151E+04  1.68817E+03 -1.08317E+04
  5.64096E+03 -6.80534E+03  8.39974E+03  8.15151E+01  6.00644E+03  2.63350E+03  4.62447E+02  5.29007E+03
 -4.05770E+03  1.86434E+03 -3.61670E+03 -3.00313E+03  1.15750E+03 -8.31271E+03  1.02373E+04 -6.57460E+03
  1.25560E+04  1.17289E+03  1.13233E+04  8.88734E+03  3.46599E+03  1.37281E+04 -4.51888E+03  1.24470E+04
 -1.16357E+04  5.99124E+03 -1.06270E+04 -1.32072E+03 -5.47518E+03 -8.54707E+03  2.13263E+03 -7.79805E+03
  7.72089E+03 -2.77212E+03  6.97997E+03  3.18599E+03  2.30753E+03  7.53015E+03 -1.78887E+03  5.64692E+03
 -2.88258E+03  3.81142E+03 -2.89113E+03  1.40093E+03 -1.74305E+03  6.12893E+02 -1.93866E+03  2.88247E+03
 -2.90299E+03  5.11800E+03 -8.85414E+03  4.44783E+03 -1.31294E+04 -2.99015E+02 -1.41113E+04 -8.63173E+03
 -7.13547E+03 -1.75167E+04  3.30092E+03 -1.92003E+04  1.32166E+04 -1.63692E+04  1.93466E+04 -5.48983E+03
  1.74851E+04  4.25439E+03  1.10399E+04  1.26816E+04  1.19981E+03  1.34824E+04 -5.44641E+03  1.05893E+04
 -7.84684E+03  3.30087E+03 -5.33314E+03 -8.70374E+02 -1.50736E+03 -1.23584E+03 -1.52649E+03 -3.72624E+01
 -3.71888E+03 -2.30656E+02 -3.09846E+03 -2.84448E+02 -1.92710E+03 -3.51157E+03 -2.53018E+02 -4.03733E+03
  4.93289E+03 -4.95763E+03  8.65706E+03 -8.90532E+02  9.76335E+03  7.57393E+03  2.69549E+03  1.33272E+04
 -5.96217E+03  1.48867E+04 -1.46482E+04  8.93352E+03 -1.81160E+04 -1.06429E+03 -1.26350E+04 -9.86726E+03
 -4.01516E+03 -1.49068E+04  3.59679E+03 -1.23091E+04  8.79770E+03 -7.22477E+03  9.43454E+03 -3.45418E+02
  4.96586E+03  4.25817E+03 -9.75294E+02  4.63533E+03 -3.11171E+03 -3.07835E+02  3.21703E+02 -4.06451E+03
  4.00474E+03 -2.80805E+03  6.06065E+03  1.60786E+03  3.69346E+03  6.19356E+03  1.35013E+02  7.83399E+03
 -6.29786E+03  6.84745E+03 -9.57550E+03  1.03331E+03 -8.92973E+03 -7.36566E+03 -7.92442E+02 -1.16624E+04
  7.35016E+03 -9.98462E+03  1.10359E+04 -3.33174E+03  9.91749E+03  3.65267E+03  6.93435E+03  9.37351E+03
  1.21774E+03  1.00260E+04 -4.28016E+03  7.62749E+03 -6.23132E+03  4.30191E+03 -4.66557E+03  2.35707E+02
 -2.52060E+03 -4.30632E+02 -3.00361E+03  1.44357E+03 -5.18846E+03  2.80934E+03 -6.65407E+03 -1.90619E+03
 -6.80817E+03 -5.19841E+03 -2.20235E+03 -9.31327E+03  3.46204E+03 -9.56616E+03  8.76721E+03 -4.90573E+03
  1.06188E+04  1.19009E+03  5.21018E+03  6.95247E+03 -4.50254E+02  1.02477E+04 -7.21715E+03  6.06918E+03
