 $NMID ID='MM_0lb_SNR400_10hz_g45_57.RAW', FMTDAT='(8E13.5)'
 TRAMP=1., VOLUME=1. $END
  3.10073E+05  6.76920E+02  3.38358E+05  2.50676E+05  8.50699E+04  3.38369E+05 -1.32258E+05  2.51621E+05
 -1.90386E+05  8.36393E+04 -1.12807E+05 -3.20935E+04  6.12290E+02 -5.09885E+04  5.40250E+04  6.61897E+01
  3.55008E+04  5.28235E+04 -1.70978E+04  7.62115E+04 -6.09825E+04  6.43344E+04 -8.48687E+04  3.22298E+04
 -8.26056E+04 -1.14207E+04 -5.79946E+04 -5.20581E+04 -1.48313E+04 -7.07098E+04  2.80656E+04 -4.61720E+04
  4.10462E+04  3.81070E+03  1.67105E+04  4.84929E+04 -3.51646E+04  4.80610E+04 -6.75136E+04  4.22359E+01
 -5.47376E+04 -5.81243E+04 -7.32538E+03 -7.85834E+04  3.44238E+04 -5.62121E+04  4.95967E+04 -1.80314E+04
  4.53042E+04  1.15986E+04  3.23604E+04  2.64381E+04  1.57808E+04  2.97233E+04 -6.07052E+03  2.75860E+04
 -2.24387E+04  1.25215E+04 -1.78747E+04 -6.09261E+03  6.58540E+03 -7.43315E+03  2.37648E+04  1.36094E+04
  6.52149E+03  3.72419E+04 -3.37066E+04  3.57299E+04 -6.51137E+04  2.01762E+03 -5.76283E+04 -4.42399E+04
 -1.25361E+04 -6.52728E+04  4.09163E+04 -4.63126E+04  5.99660E+04 -2.10041E+03  3.59012E+04  3.45009E+04
 -5.63564E+03  3.84665E+04 -3.11618E+04  1.82650E+04 -3.28376E+04 -3.64818E+03 -1.83923E+04 -1.12966E+04
 -8.90985E+03 -1.36801E+04 -3.88984E+02 -1.93195E+04  8.19956E+03 -2.30911E+04  1.58486E+04 -1.21255E+04
  1.11305E+04  5.46683E+03 -9.78598E+03  1.31228E+04 -2.30245E+04 -5.94003E+03 -8.01336E+03 -3.64090E+04
  2.43464E+04 -4.57474E+04  5.11006E+04 -2.03089E+04  4.72156E+04  2.03677E+04  1.63337E+04  4.62863E+04
 -1.63255E+04  3.49977E+04 -2.69889E+04  2.66590E+03 -1.13089E+04 -2.92511E+04  2.14954E+04 -3.64849E+04
  4.44729E+04 -1.06690E+04  3.86552E+04  2.40119E+04  1.94820E+04  4.95110E+04 -8.43403E+03  5.49377E+04
 -3.47163E+04  3.65862E+04 -4.65836E+04  1.17513E+04 -4.63248E+04 -1.83454E+04 -2.60711E+04 -4.02976E+04
  7.76910E+03 -4.05035E+04  3.35336E+04 -1.67284E+04  3.15460E+04  1.06390E+04  4.35453E+03  2.08205E+04
 -1.36339E+04  8.75413E+03 -1.11366E+04 -7.83528E+03  5.19241E+03 -1.05996E+04  1.90307E+04  6.22630E+03
  1.41414E+04  2.27428E+04 -5.32087E+03  2.59408E+04 -2.35496E+04  1.30734E+04 -3.05020E+04 -3.51072E+03
 -2.35124E+04 -1.76131E+04 -1.09205E+04 -2.29672E+04  4.76620E+03 -2.35172E+04  1.92074E+04 -2.10675E+04
  3.07851E+04 -1.34655E+04  3.64391E+04  3.81845E+03  2.56945E+04  2.23376E+04  4.33788E+03  3.96005E+04
 -1.88416E+04  3.24426E+04 -2.96656E+04  1.15764E+04 -2.24694E+04 -1.01751E+04 -5.10197E+03 -1.33799E+04
  7.39381E+02 -9.35925E+02 -7.15130E+03  7.35039E+03 -1.87494E+04  4.94157E+03 -1.98440E+04 -8.77948E+03
 -1.15751E+04 -2.25748E+04  5.82999E+03 -2.67659E+04  1.79897E+04 -1.79208E+04  2.11957E+04 -1.85454E+03
  1.38119E+04  1.58392E+04 -1.42099E+03  2.21933E+04 -1.49680E+04  1.22246E+04 -2.18859E+04 -4.95456E+03
 -1.64535E+04 -1.94762E+04 -2.33795E+03 -2.61680E+04  1.21410E+04 -2.15537E+04  2.20554E+04 -1.15063E+04
  2.04216E+04  3.32216E+02  1.47388E+04  4.91552E+03  8.86988E+03  7.86451E+02  1.18873E+04 -1.80460E+03
  2.00736E+04  2.34505E+03  2.42971E+04  1.67648E+04  1.58611E+04  3.58430E+04 -2.52411E+03  4.05086E+04
 -2.42191E+04  3.42467E+04 -3.88061E+04  1.77166E+04 -4.22444E+04 -2.66688E+03 -3.35327E+04 -2.39551E+04
 -1.39595E+04 -3.39849E+04  1.19934E+04 -3.04021E+04  2.57223E+04 -1.46181E+04  2.22831E+04  7.24315E+03
  7.90414E+03  1.74001E+04 -9.88674E+03  1.44755E+04 -1.91425E+04  2.18607E+03 -1.37021E+04 -1.20653E+04
  8.97204E+00 -1.89802E+04  9.83808E+03 -1.34263E+04  1.20490E+04 -8.63092E+02  3.67844E+03  7.78760E+03
 -7.92588E+03  3.52038E+03 -8.01729E+03 -6.26130E+03 -1.72619E+03 -1.61235E+04  1.20122E+04 -1.78044E+04
  2.14299E+04 -1.03214E+04  2.33748E+04  2.80902E+03  2.11622E+04  1.76049E+04  9.30564E+03  2.64337E+04
 -4.10192E+03  2.77625E+04 -1.90628E+04  1.74967E+04 -1.98181E+04  3.03183E+03 -1.42109E+04 -5.67281E+03
 -5.76152E+03 -6.47036E+03 -7.44955E+02  1.02522E+02 -3.55889E+03  2.27440E+03 -6.32592E+03  5.26729E+03
 -1.28458E+04 -1.06056E+03 -1.36185E+04 -1.17588E+04 -5.67505E+03 -1.78722E+04  5.69901E+03 -1.43915E+04
  1.18410E+04 -5.75656E+03  9.01459E+03  3.63448E+03 -1.96455E+02  5.68132E+03 -5.91301E+03 -1.02959E+03
 -6.93613E+03 -8.37976E+03 -1.23804E+03 -1.44679E+04  7.81567E+03 -1.46447E+04  1.76379E+04 -7.66609E+03
  2.20191E+04  2.08981E+03  1.49756E+04  1.33071E+04  3.25582E+03  1.72002E+04 -7.83657E+03  1.44161E+04
 -1.15198E+04  4.27605E+03 -5.48181E+03 -2.50627E+03  1.93536E+03 -3.64130E+03  7.18860E+03 -1.68475E+03
  7.36815E+03  6.14412E+03  1.56752E+03  1.18155E+04 -8.00810E+03  1.07628E+04 -1.43983E+04  3.09086E+03
 -9.83252E+03 -7.28885E+03 -6.58982E+01 -1.31149E+04  7.79832E+03 -6.18867E+03  8.14301E+03  3.32981E+03
  1.90507E+03  8.54467E+03 -7.97791E+03  1.05264E+04 -1.14743E+04  4.45781E+03 -1.22270E+04 -4.64747E+03
 -7.37920E+03 -1.44793E+04  3.34206E+03 -1.59485E+04  1.39244E+04 -9.85081E+03  1.51476E+04  2.13739E+03
  8.89277E+03  1.19508E+04 -9.95465E+02  1.34045E+04 -1.13719E+04  8.25776E+03 -1.17601E+04 -4.91998E+02
 -9.24561E+03 -9.60511E+03 -1.92702E+03 -1.03041E+04  5.39813E+03 -8.69104E+03  6.26281E+03 -4.08800E+03
  4.58347E+03  1.48407E+03 -7.62619E+02  1.69250E+03 -5.76959E+02 -2.81691E+03  1.59447E+03 -6.71832E+03
  1.05838E+04 -4.36700E+03  1.35535E+04  2.11297E+03  1.27138E+04  9.48328E+03  8.68133E+03  1.85795E+04
 -4.62452E+03  2.08965E+04 -1.77024E+04  1.51317E+04 -2.28407E+04  3.37194E+03 -1.87534E+04 -7.41235E+03
 -9.25847E+03 -1.49089E+04  2.28668E+01 -1.23673E+04  4.77874E+03 -6.96830E+03  4.28284E+03 -4.37823E+03
  3.19992E+03 -3.60460E+03  3.42397E+03 -3.83141E+03  5.48692E+03 -3.21871E+03  6.76163E+03 -1.54198E+03
  9.01613E+03  2.70597E+03  5.54998E+03  8.73352E+03 -2.17967E+03  9.55405E+03 -9.64198E+03  7.56624E+03
 -1.25940E+04 -1.44667E+03 -9.31639E+03 -9.73741E+03 -1.03328E+03 -1.34439E+04  7.07646E+03 -1.33064E+04
  1.36160E+04 -7.31618E+03  1.67652E+04  1.57701E+03  1.21145E+04  1.18134E+04  1.73122E+03  1.51000E+04
 -6.46087E+03  1.27454E+04 -8.69153E+03  4.36840E+03 -5.96892E+03 -1.79320E+03 -1.93352E+03 -2.61260E+03
 -1.56337E+03 -6.80530E+02 -1.64089E+03  2.83216E+03 -5.59067E+03  2.62079E+03 -9.68154E+03 -1.59384E+03
 -6.27839E+03 -8.32704E+03  5.02360E+02 -1.28490E+04  7.86910E+03 -1.19348E+04  1.22608E+04 -3.82472E+03
  1.25415E+04  6.27292E+03  5.24476E+03  1.03460E+04 -3.00121E+03  1.35488E+04 -8.63078E+03  8.35503E+03
 -1.19821E+04  4.34457E+02 -9.73430E+03 -7.22451E+03 -3.74403E+02 -1.06146E+04  4.79975E+03 -7.40703E+03
  8.45596E+03 -2.79835E+03  4.87748E+03  1.36344E+03  2.21946E+03  3.63767E+03  1.71646E+03  2.34749E+03
  2.79490E+03  1.10131E+03  3.77336E+03  1.62591E+03  3.68312E+03  5.05324E+03  2.82687E+03  6.06874E+03
 -2.96423E+03  9.74831E+03 -8.58481E+03  1.00904E+04 -1.24207E+04  2.37753E+03 -1.45923E+04 -5.46122E+03
 -6.59328E+03 -1.31245E+04  2.43363E+03 -1.41692E+04  7.65810E+03 -9.01510E+03  1.00701E+04 -1.55385E+03
  7.90012E+03  4.75318E+03  1.95126E+03  7.96451E+03 -3.51225E+03  4.20895E+03 -5.07322E+03 -1.21354E+03
 -2.67933E+03 -5.82109E+03  3.30776E+03 -5.16730E+03  5.23735E+03 -2.34527E+03  5.58126E+03  8.76873E+02
  2.97731E+03  2.48103E+03  9.70371E+02  2.44441E+03 -5.80811E+02  1.92126E+03  1.66345E+03 -1.09164E+02
  1.86384E+03 -1.03442E+03  5.81408E+03  2.32657E+03  2.43275E+03  7.21653E+03 -8.99668E+02  9.38259E+03
 -6.34092E+03  6.54372E+03 -8.55319E+03  1.97762E+03 -7.67901E+03 -3.32548E+03 -1.60741E+03 -4.82249E+03
  5.42545E+02 -4.75137E+03  3.05818E+03 -1.71085E+03  2.97414E+03  2.53011E+03 -1.34480E+03  4.31856E+03
 -5.32975E+03  1.89338E+03 -5.68791E+03 -3.40269E+03 -2.98844E+03 -6.71920E+03  8.94533E+02 -7.24295E+03
  4.13740E+03 -4.60379E+03  5.36807E+03 -8.18616E+02  4.59236E+03  2.17364E+03  2.99479E+02  3.79500E+03
 -2.22346E+03  1.84814E+03 -3.45411E+03 -2.31418E+03  1.61668E+03 -5.11739E+03  6.22676E+03 -4.77709E+03
  7.79910E+03  1.34555E+03  7.23439E+03  5.16512E+03  2.44511E+03  8.34895E+03 -2.88479E+03  7.74187E+03
 -7.31071E+03  3.87673E+03 -6.19339E+03 -6.67830E+02 -3.88129E+03 -5.28259E+03  8.93226E+02 -5.27869E+03
  5.23233E+03 -2.18186E+03  3.84206E+03  2.21353E+03  1.20234E+03  4.66680E+03 -1.00273E+02  5.16643E+03
 -1.40990E+03  2.82204E+03 -1.51766E+03  1.46678E+03 -9.27281E+02  5.03167E+02 -1.43759E+03  1.46224E+03
 -2.24975E+03  2.92246E+03 -5.58637E+03  2.41226E+03 -8.41640E+03  4.72290E+01 -9.44989E+03 -5.83384E+03
 -4.77219E+03 -1.11671E+04  1.74722E+03 -1.22411E+04  8.34130E+03 -9.56676E+03  1.19257E+04 -3.57778E+03
  1.07772E+04  1.60541E+03  6.69069E+03  7.08294E+03  4.11851E+02  8.49427E+03 -3.34912E+03  5.68092E+03
 -4.90906E+03  2.73564E+03 -2.95037E+03 -9.47515E+02 -1.24021E+03 -5.03316E+02 -6.14374E+02  4.91357E+02
 -1.52672E+03  1.61407E+02 -1.97444E+03  2.07858E+02 -1.37239E+03 -2.20589E+03  1.93677E+02 -3.24608E+03
  3.87163E+03 -3.41860E+03  4.60300E+03  9.32240E+01  6.54813E+03  3.74228E+03  1.79000E+03  8.66130E+03
 -3.80112E+03  9.60558E+03 -8.90780E+03  4.88194E+03 -1.02252E+04 -1.35478E+03 -8.12199E+03 -6.88835E+03
 -3.08302E+03 -8.20868E+03  3.11198E+03 -8.28055E+03  5.39387E+03 -4.49757E+03  5.45250E+03  3.49272E+02
  3.09383E+03  2.77498E+03 -4.62982E+02  2.25841E+03 -1.81951E+03 -7.30509E+02 -2.21349E+01 -1.75694E+03
  2.97060E+03 -1.26605E+03  3.49224E+03  1.05434E+03  2.64233E+03  3.63875E+03  9.72270E+01  3.98849E+03
 -3.95336E+03  4.22302E+03 -5.67149E+03  1.76457E+02 -5.20317E+03 -4.32893E+03 -7.86549E+02 -6.69514E+03
  3.37906E+03 -5.70339E+03  6.35878E+03 -1.23519E+03  6.70235E+03  1.85376E+03  3.36110E+03  4.81101E+03
  8.12029E+02  5.60636E+03 -2.21491E+03  4.39323E+03 -3.37042E+03  1.98821E+03 -2.52517E+03  1.19664E+02
 -1.92346E+03 -2.36076E+02 -2.00657E+03  6.67969E+02 -2.22998E+03  7.51768E+02 -4.32416E+03 -4.70043E+02
 -3.83403E+03 -2.70627E+03 -1.05774E+03 -6.02918E+03  2.54665E+03 -6.47471E+03  4.27613E+03 -2.62431E+03
  6.03785E+03  3.16466E+02  2.62161E+03  3.51492E+03 -8.71573E+02  5.45695E+03 -4.29787E+03  3.76447E+03
