 $NMID ID='MM_0lb_SNR400_8hz_g45_15.RAW', FMTDAT='(8E13.5)'
 TRAMP=1., VOLUME=1. $END
  3.09944E+05 -9.10436E+01  3.37415E+05  2.51403E+05  8.51209E+04  3.38893E+05 -1.32370E+05  2.52461E+05
 -1.90688E+05  8.39716E+04 -1.13361E+05 -3.22354E+04  4.47092E+01 -4.97848E+04  5.43388E+04  5.33761E+01
  3.60292E+04  5.29579E+04 -1.66156E+04  7.61661E+04 -6.04226E+04  6.49586E+04 -8.52576E+04  3.21389E+04
 -8.30712E+04 -1.18815E+04 -5.77837E+04 -5.29826E+04 -1.52307E+04 -7.01763E+04  2.83450E+04 -4.63816E+04
  4.13852E+04  4.21389E+03  1.78746E+04  4.84445E+04 -3.43021E+04  4.78967E+04 -6.74849E+04 -2.72541E+02
 -5.52170E+04 -5.90221E+04 -7.46630E+03 -7.96650E+04  3.48447E+04 -5.72851E+04  5.02211E+04 -1.82376E+04
  4.50911E+04  1.14518E+04  3.36122E+04  2.69747E+04  1.64189E+04  3.11312E+04 -5.67056E+03  2.75554E+04
 -2.30365E+04  1.12802E+04 -1.72682E+04 -7.31042E+03  7.32655E+03 -7.44052E+03  2.33196E+04  1.38196E+04
  7.17710E+03  3.69845E+04 -3.42733E+04  3.70801E+04 -6.53132E+04  1.90584E+03 -6.00109E+04 -4.48264E+04
 -1.23199E+04 -6.71169E+04  4.17481E+04 -4.73986E+04  6.16311E+04 -2.55209E+03  3.71816E+04  3.40883E+04
 -5.52957E+03  3.98199E+04 -3.21166E+04  1.90101E+04 -3.36145E+04 -3.47095E+03 -1.95610E+04 -1.19424E+04
 -1.09512E+04 -1.50615E+04 -5.86742E+02 -1.93018E+04  7.97776E+03 -2.38202E+04  1.53728E+04 -1.26883E+04
  9.79688E+03  6.17260E+03 -1.01949E+04  1.30821E+04 -2.39260E+04 -6.36193E+03 -8.73956E+03 -3.82651E+04
  2.56969E+04 -4.68631E+04  5.36376E+04 -2.08568E+04  4.98045E+04  2.15901E+04  1.79512E+04  4.75765E+04
 -1.71675E+04  3.67333E+04 -2.80020E+04  3.20436E+03 -1.21515E+04 -2.99130E+04  2.16580E+04 -3.75828E+04
  4.45677E+04 -1.04959E+04  4.11298E+04  2.50015E+04  2.11135E+04  5.13863E+04 -8.89827E+03  5.62148E+04
 -3.63112E+04  3.89583E+04 -4.86501E+04  1.09260E+04 -4.78886E+04 -1.80534E+04 -2.61689E+04 -4.24911E+04
  7.11504E+03 -4.28509E+04  3.45916E+04 -1.71616E+04  3.29406E+04  1.09365E+04  5.29658E+03  2.04761E+04
 -1.46000E+04  9.70419E+03 -1.13652E+04 -7.92111E+03  6.11738E+03 -1.14142E+04  1.94709E+04  5.58893E+03
  1.44768E+04  2.26527E+04 -4.98741E+03  2.72150E+04 -2.33495E+04  1.48498E+04 -3.21878E+04 -2.41656E+03
 -2.65077E+04 -1.83758E+04 -1.26598E+04 -2.61529E+04  3.64228E+03 -2.67494E+04  2.06226E+04 -2.30462E+04
  3.25488E+04 -1.40140E+04  3.73406E+04  5.33118E+03  2.72424E+04  2.54073E+04  4.28548E+03  4.14943E+04
 -1.93271E+04  3.39442E+04 -3.12652E+04  1.13797E+04 -2.24492E+04 -9.72744E+03 -4.13066E+03 -1.29703E+04
  1.30433E+03 -5.53083E+02 -7.96298E+03  8.36652E+03 -2.08850E+04  4.70406E+03 -2.05188E+04 -9.19646E+03
 -1.13592E+04 -2.32979E+04  5.47033E+03 -2.79743E+04  1.88001E+04 -2.00546E+04  2.30880E+04 -1.15444E+03
  1.50348E+04  1.65385E+04 -9.13828E+02  2.37494E+04 -1.72419E+04  1.35697E+04 -2.43224E+04 -5.01545E+03
 -1.75756E+04 -2.09614E+04 -2.33140E+03 -2.86214E+04  1.30560E+04 -2.44539E+04  2.40746E+04 -1.24881E+04
  2.26505E+04  6.02346E+01  1.71161E+04  5.09689E+03  9.22691E+03  2.02706E+03  1.25115E+04 -2.93393E+03
  2.25201E+04  2.14932E+03  2.58793E+04  1.81487E+04  1.80245E+04  3.84206E+04 -2.40121E+03  4.52766E+04
 -2.47437E+04  3.80267E+04 -4.34764E+04  2.05386E+04 -4.66470E+04 -3.39448E+03 -3.73137E+04 -2.70729E+04
 -1.47879E+04 -3.86397E+04  1.39384E+04 -3.39443E+04  2.93669E+04 -1.63180E+04  2.49197E+04  8.20101E+03
  9.25849E+03  2.01077E+04 -1.25477E+04  1.53576E+04 -2.10908E+04  2.20103E+03 -1.51561E+04 -1.35111E+04
 -5.74750E+02 -1.98723E+04  9.78189E+03 -1.45510E+04  1.35087E+04 -1.85360E+03  3.08437E+03  8.89101E+03
 -9.10122E+03  4.99495E+03 -9.92424E+03 -6.52826E+03 -1.67858E+03 -1.85265E+04  1.32706E+04 -2.03378E+04
  2.42689E+04 -1.13455E+04  2.71079E+04  2.92019E+03  2.43398E+04  2.00392E+04  1.11884E+04  3.10235E+04
 -5.75425E+03  3.16468E+04 -2.17196E+04  2.05234E+04 -2.27597E+04  4.44814E+03 -1.55561E+04 -6.49204E+03
 -6.34690E+03 -7.44946E+03 -3.57010E+02  9.79629E+02 -3.06588E+03  2.88397E+03 -7.25960E+03  5.46442E+03
 -1.44804E+04 -1.12590E+03 -1.57091E+04 -1.25228E+04 -6.56816E+03 -2.00397E+04  6.82047E+03 -1.63608E+04
  1.34191E+04 -6.97849E+03  9.81382E+03  3.99117E+03 -9.59847E+02  6.59133E+03 -8.07908E+03 -6.61190E+02
 -8.36703E+03 -1.02160E+04 -2.34510E+03 -1.60037E+04  9.95611E+03 -1.74563E+04  2.10168E+04 -8.50817E+03
  2.42119E+04  2.61319E+03  1.84638E+04  1.51957E+04  2.78264E+03  2.00206E+04 -1.05351E+04  1.69255E+04
 -1.38413E+04  3.63808E+03 -6.52734E+03 -3.67918E+03  2.42930E+03 -5.31784E+03  8.52339E+03 -1.51316E+03
  7.88192E+03  7.54845E+03  1.11865E+03  1.34768E+04 -9.53006E+03  1.26451E+04 -1.64641E+04  3.64200E+03
 -1.08859E+04 -8.77842E+03  4.99355E+02 -1.40559E+04  9.18147E+03 -7.59480E+03  1.01922E+04  2.83357E+03
  2.66676E+03  1.12806E+04 -8.22592E+03  1.16188E+04 -1.45496E+04  5.14537E+03 -1.45842E+04 -5.82209E+03
 -8.82312E+03 -1.68886E+04  3.40261E+03 -1.90612E+04  1.70065E+04 -1.04841E+04  1.87995E+04  3.68346E+03
  1.05386E+04  1.39908E+04 -2.24592E+03  1.73408E+04 -1.15383E+04  8.85249E+03 -1.30009E+04 -9.00347E+02
 -1.18938E+04 -1.13843E+04 -2.75765E+03 -1.26922E+04  6.90367E+03 -1.05356E+04  8.08072E+03 -3.38129E+03
  5.25819E+03  2.18295E+03 -9.35548E+02  2.77672E+03 -9.55569E+02 -3.79399E+03  2.98653E+03 -8.72762E+03
  1.24119E+04 -4.71594E+03  1.64642E+04  2.09277E+03  1.77271E+04  1.19102E+04  1.02830E+04  2.24462E+04
 -4.65356E+03  2.58944E+04 -2.14832E+04  2.04096E+04 -2.75334E+04  3.73991E+03 -2.23391E+04 -1.00655E+04
 -9.83954E+03 -1.82681E+04  1.33715E+02 -1.62162E+04  5.73470E+03 -9.65278E+03  5.58629E+03 -6.08822E+03
  4.19515E+03 -3.50574E+03  4.09477E+03 -3.45305E+03  6.28759E+03 -4.05552E+03  9.11594E+03 -5.67046E+02
  1.14970E+04  2.93999E+03  6.75087E+03  9.46219E+03 -2.69778E+03  1.27587E+04 -1.27508E+04  8.48414E+03
 -1.59569E+04 -1.24285E+03 -1.11719E+04 -1.07142E+04 -1.88330E+03 -1.72688E+04  9.54702E+03 -1.74132E+04
  1.78817E+04 -9.01442E+03  2.13350E+04  2.83246E+03  1.45913E+04  1.51849E+04  2.13276E+03  1.97181E+04
 -7.78520E+03  1.49612E+04 -1.22281E+04  6.13705E+03 -6.71686E+03 -1.81766E+03 -3.78825E+03 -2.55131E+03
 -1.62841E+03  3.25424E+02 -1.70101E+03  3.48905E+03 -5.95344E+03  2.87451E+03 -1.05739E+04 -1.55975E+03
 -8.24570E+03 -1.07230E+04 -7.47853E+02 -1.55118E+04  9.37604E+03 -1.42742E+04  1.69253E+04 -5.74020E+03
  1.57732E+04  7.87784E+03  7.62204E+03  1.40914E+04 -4.57420E+03  1.69893E+04 -1.08682E+04  9.43362E+03
 -1.54430E+04  1.23722E+03 -1.15330E+04 -9.74426E+03 -1.25189E+03 -1.26649E+04  6.93124E+03 -1.02699E+04
  9.84818E+03 -3.51029E+03  7.04447E+03  2.63361E+03  1.80266E+03  3.37513E+03  2.29272E+03  2.08355E+03
  2.57325E+03  1.41234E+03  3.68043E+03  2.32748E+03  4.97264E+03  5.81168E+03  5.20345E+03  9.88552E+03
 -3.90723E+03  1.28921E+04 -1.14678E+04  1.29972E+04 -1.65009E+04  3.54880E+03 -1.70104E+04 -7.92285E+03
 -7.44762E+03 -1.67308E+04  2.76104E+03 -1.82397E+04  1.07833E+04 -1.16683E+04  1.37319E+04 -3.48265E+03
  9.86192E+03  5.89584E+03  2.26953E+03  9.52892E+03 -4.50757E+03  5.29339E+03 -6.38233E+03 -5.49506E+02
 -3.69198E+03 -7.47264E+03  3.95021E+03 -7.39519E+03  7.34360E+03 -3.71361E+03  7.61367E+03  1.52539E+03
  4.01169E+03  4.23553E+03  1.47051E+03  2.94724E+03 -1.24891E+03  2.58328E+03  1.63186E+03 -4.25713E+02
  2.85589E+03 -7.89610E+02  6.96478E+03  2.99284E+03  4.59340E+03  9.06171E+03 -1.79583E+03  1.20632E+04
 -8.81350E+03  8.11915E+03 -1.08468E+04  1.76367E+03 -9.53004E+03 -3.07434E+03 -3.90429E+03 -6.29166E+03
  1.62521E+03 -5.97143E+03  4.51980E+03 -3.01097E+03  3.85703E+03  3.25577E+03 -1.68088E+03  5.57295E+03
 -7.11638E+03  3.50345E+03 -7.81010E+03 -3.70881E+03 -4.31928E+03 -9.43008E+03  1.05808E+03 -9.59834E+03
  5.92833E+03 -6.06716E+03  7.50372E+03 -1.10800E+03  6.30351E+03  1.92183E+03  6.40758E+02  5.13719E+03
 -3.49513E+03  1.91109E+03 -3.08028E+03 -4.06182E+03  1.37526E+03 -7.31055E+03  8.59795E+03 -6.19014E+03
  1.20698E+04  5.15427E+02  1.01460E+04  7.17289E+03  3.02539E+03  1.10787E+04 -3.92640E+03  1.08334E+04
 -9.41727E+03  4.54626E+03 -9.65447E+03 -1.55385E+03 -5.50934E+03 -7.60899E+03  1.51532E+03 -7.92522E+03
  7.17619E+03 -4.24209E+03  6.21017E+03  3.49853E+03  2.96099E+03  7.08672E+03 -9.75061E+02  5.54582E+03
 -2.24729E+03  3.12460E+03 -2.20271E+03  1.35392E+03 -1.59174E+03  1.46760E+03 -1.84331E+03  2.87740E+03
 -2.19709E+03  4.67759E+03 -7.71950E+03  4.74953E+03 -1.17637E+04  4.41413E+01 -1.27013E+04 -7.47004E+03
 -6.71678E+03 -1.58492E+04  3.05850E+03 -1.80879E+04  1.14621E+04 -1.42516E+04  1.69804E+04 -5.00100E+03
  1.61527E+04  3.61298E+03  1.03849E+04  1.05776E+04  1.60115E+03  1.19475E+04 -4.88453E+03  9.67717E+03
 -7.00035E+03  3.65442E+03 -4.16185E+03 -9.40464E+02 -1.60781E+03 -7.01741E+02 -5.44208E+02 -5.33471E+02
 -1.78374E+03  6.87027E+01 -1.82431E+03 -3.45670E+02 -2.03756E+02 -3.10319E+03  5.97500E+02 -4.62461E+03
  5.40978E+03 -3.50659E+03  7.10324E+03 -4.53835E+02  9.00349E+03  6.10605E+03  2.33052E+03  1.28228E+04
 -5.87928E+03  1.34775E+04 -1.20323E+04  8.10065E+03 -1.53849E+04 -1.54736E+03 -1.16311E+04 -8.70633E+03
 -3.67020E+03 -1.18882E+04  3.00015E+03 -1.16618E+04  7.47421E+03 -6.80168E+03  8.45867E+03  8.04137E+02
  4.65217E+03  3.82021E+03 -5.91175E+02  3.33736E+03 -1.69488E+03  1.07761E+02  2.57933E+02 -2.71568E+03
  3.59062E+03 -2.24852E+03  5.44426E+03  1.74193E+03  2.84581E+03  4.83671E+03  1.41374E+02  6.29406E+03
 -5.57957E+03  6.33092E+03 -7.31418E+03  8.78458E+02 -7.41720E+03 -6.27133E+03 -1.16461E+03 -9.88085E+03
  5.09520E+03 -9.09940E+03  9.21663E+03 -2.21232E+03  9.95538E+03  2.18519E+03  5.12148E+03  7.36430E+03
  1.05071E+03  8.25055E+03 -3.42253E+03  6.66237E+03 -5.51105E+03  3.64859E+03 -3.82576E+03  2.80617E+02
 -2.54657E+03 -2.43464E+02 -1.95223E+03  8.86853E+02 -4.67339E+03  1.82488E+03 -5.39872E+03 -3.03462E+02
 -6.34287E+03 -4.66806E+03 -1.88761E+03 -8.62928E+03  3.54103E+03 -8.23759E+03  7.52932E+03 -3.73326E+03
  8.02751E+03  1.08847E+03  5.09625E+03  6.35474E+03 -3.27254E+02  8.32108E+03 -6.09011E+03  5.12194E+03
