 $NMID ID='MM_0lb_SNR400_15hz_g45_56.RAW', FMTDAT='(8E13.5)'
 TRAMP=1., VOLUME=1. $END
  3.10296E+05  6.85036E+02  3.37941E+05  2.50579E+05  8.43524E+04  3.37671E+05 -1.32525E+05  2.50722E+05
 -1.89505E+05  8.26032E+04 -1.11377E+05 -3.28981E+04  1.36857E+03 -5.03635E+04  5.45943E+04 -1.50330E+02
  3.50466E+04  5.28821E+04 -1.69237E+04  7.50824E+04 -6.10960E+04  6.38027E+04 -8.41789E+04  3.09057E+04
 -8.10329E+04 -1.13921E+04 -5.70953E+04 -5.13296E+04 -1.47584E+04 -6.95165E+04  2.70894E+04 -4.50491E+04
  4.03321E+04  4.13107E+03  1.55827E+04  4.74772E+04 -3.35684E+04  4.69814E+04 -6.65694E+04 -3.08204E+02
 -5.32227E+04 -5.64190E+04 -7.01541E+03 -7.60166E+04  3.35120E+04 -5.46232E+04  4.70142E+04 -1.71450E+04
  4.26143E+04  1.13066E+04  3.11676E+04  2.53358E+04  1.52337E+04  2.90893E+04 -5.19428E+03  2.75479E+04
 -2.20996E+04  1.20659E+04 -1.81440E+04 -5.08112E+03  5.52119E+03 -7.08456E+03  2.20896E+04  1.15773E+04
  7.20131E+03  3.44990E+04 -3.13493E+04  3.46290E+04 -6.23885E+04  2.04979E+03 -5.59818E+04 -4.19719E+04
 -1.25954E+04 -6.25016E+04  3.92011E+04 -4.49151E+04  5.76187E+04 -2.11661E+03  3.32972E+04  3.21002E+04
 -5.77602E+03  3.51722E+04 -2.98139E+04  1.57156E+04 -2.97456E+04 -4.68613E+03 -1.59183E+04 -1.09251E+04
 -8.10888E+03 -1.22510E+04 -1.16986E+03 -1.73934E+04  7.22639E+03 -2.26726E+04  1.53843E+04 -1.35917E+04
  1.16296E+04  4.78312E+03 -7.77525E+03  1.26392E+04 -2.08121E+04 -4.07575E+03 -8.30871E+03 -3.23572E+04
  2.25663E+04 -4.29612E+04  4.72325E+04 -1.90315E+04  4.41580E+04  1.95293E+04  1.56737E+04  4.32851E+04
 -1.56599E+04  3.24687E+04 -2.50381E+04  1.84612E+03 -9.65370E+03 -2.73389E+04  2.13108E+04 -3.30371E+04
  3.99374E+04 -8.60873E+03  3.42337E+04  2.41179E+04  1.75945E+04  4.52870E+04 -7.89374E+03  4.89025E+04
 -3.05181E+04  3.22486E+04 -4.03622E+04  9.68645E+03 -4.09594E+04 -1.57711E+04 -2.34842E+04 -3.67928E+04
  7.31391E+03 -3.71418E+04  3.12393E+04 -1.39629E+04  2.86137E+04  1.07094E+04  3.34070E+03  1.85354E+04
 -1.34103E+04  8.00176E+03 -1.04159E+04 -7.70562E+03  5.45749E+03 -1.03554E+04  1.74941E+04  6.58796E+03
  1.23815E+04  2.20705E+04 -6.38940E+03  2.40085E+04 -2.19528E+04  1.05052E+04 -2.68039E+04 -5.32502E+03
 -1.99115E+04 -1.70814E+04 -6.98266E+03 -1.87571E+04  3.89549E+03 -1.80087E+04  1.47555E+04 -1.70764E+04
  2.44107E+04 -1.25535E+04  3.10849E+04  2.54385E+03  2.31005E+04  1.90749E+04  3.89681E+03  3.52514E+04
 -1.73757E+04  2.92722E+04 -2.78904E+04  1.03904E+04 -2.08956E+04 -9.89808E+03 -4.66345E+03 -1.40087E+04
  1.83247E+03 -3.31728E+03 -3.66788E+03  6.24452E+03 -1.54769E+04  5.04866E+03 -1.54671E+04 -5.67957E+03
 -9.35430E+03 -1.76800E+04  4.85728E+03 -2.19172E+04  1.45345E+04 -1.52147E+04  1.75618E+04 -1.80209E+03
  1.14668E+04  1.23738E+04 -1.22535E+03  1.81739E+04 -1.18345E+04  1.00407E+04 -1.79469E+04 -3.93992E+03
 -1.31824E+04 -1.64343E+04 -2.19496E+03 -2.20777E+04  9.28221E+03 -1.83182E+04  1.85568E+04 -8.06563E+03
  1.69820E+04  2.74370E+02  1.17970E+04  3.49414E+03  6.68503E+03  4.54595E+02  8.90217E+03 -1.26045E+03
  1.61392E+04  3.12375E+03  1.79969E+04  1.38284E+04  1.10618E+04  2.84293E+04 -2.35700E+03  3.20425E+04
 -1.83553E+04  2.56541E+04 -2.89208E+04  1.24315E+04 -3.01832E+04 -2.30196E+03 -2.54678E+04 -1.76013E+04
 -1.14954E+04 -2.48353E+04  8.83177E+03 -2.30685E+04  1.99316E+04 -1.22508E+04  1.81884E+04  4.66963E+03
  7.82720E+03  1.33233E+04 -7.81824E+03  1.20050E+04 -1.53594E+04  2.45151E+03 -1.24023E+04 -9.23471E+03
 -2.40897E+02 -1.44230E+04  7.37322E+03 -1.10201E+04  9.23322E+03 -1.05024E+03  2.08822E+03  5.84090E+03
 -6.80198E+03  2.37333E+03 -5.16177E+03 -5.13467E+03  3.02167E+02 -1.28858E+04  8.89573E+03 -1.29434E+04
  1.48822E+04 -7.05639E+03  1.59260E+04  2.56466E+03  1.34496E+04  1.18631E+04  6.45498E+03  1.80779E+04
 -2.73838E+03  2.00632E+04 -1.25896E+04  1.28238E+04 -1.46399E+04  3.28716E+03 -1.01343E+04 -3.03872E+03
 -4.79603E+03 -3.91385E+03 -1.06726E+03  1.51016E+03 -2.01470E+03  2.17323E+03 -4.18476E+03  3.96256E+03
 -9.30194E+03 -5.55607E+02 -1.05661E+04 -8.27850E+03 -4.39258E+03 -1.39467E+04  5.37912E+03 -1.02344E+04
  9.17959E+03 -5.03016E+03  5.97485E+03  2.99097E+03  3.32578E+02  3.90369E+03 -4.46819E+03 -5.95935E+02
 -4.81640E+03 -6.33408E+03 -1.11543E+03 -9.44990E+03  5.34116E+03 -1.09919E+04  1.27054E+04 -5.40082E+03
  1.47688E+04  1.81545E+03  1.11322E+04  8.61760E+03  2.42828E+03  1.06554E+04 -6.41118E+03  1.04704E+04
 -8.32077E+03  3.61539E+03 -4.81053E+03 -1.78034E+03  2.02359E+03 -2.79274E+03  5.58818E+03 -5.94660E+02
  5.27715E+03  4.37345E+03  1.32689E+03  7.89850E+03 -5.68320E+03  8.02300E+03 -9.91796E+03  2.07396E+03
 -6.55030E+03 -5.39231E+03  4.50832E+02 -8.69537E+03  4.90236E+03 -4.15591E+03  5.28292E+03  1.45865E+03
  1.31852E+03  4.88270E+03 -5.04379E+03  6.36594E+03 -6.94189E+03  2.72171E+03 -7.06771E+03 -2.66554E+03
 -4.52836E+03 -8.39770E+03  1.92160E+03 -1.00181E+04  9.04169E+03 -6.90747E+03  8.99265E+03  1.04334E+03
  6.79731E+03  7.64698E+03 -4.96392E+02  9.21828E+03 -6.54638E+03  5.33775E+03 -6.92491E+03 -1.02602E+03
 -7.09245E+03 -6.07753E+03 -1.10112E+03 -6.95682E+03  3.34588E+03 -5.97972E+03  3.60545E+03 -3.06635E+03
  3.44676E+03  5.85576E+02  4.28052E+02  1.48765E+03 -1.26986E+02 -6.87091E+02  1.08808E+03 -2.94518E+03
  5.57160E+03 -1.50836E+03  8.25644E+03  8.16375E+02  8.29150E+03  4.59201E+03  6.80548E+03  1.06178E+04
 -1.70149E+03  1.30333E+04 -1.09127E+04  8.96874E+03 -1.36904E+04  1.70144E+03 -1.12306E+04 -3.90241E+03
 -5.47461E+03 -8.59873E+03 -8.22655E+02 -7.04112E+03  3.21189E+03 -3.90605E+03  2.87022E+03 -2.71685E+03
  2.15651E+03 -2.53021E+03  3.05111E+03 -2.52819E+03  3.71373E+03 -2.06308E+03  4.40448E+03  2.64910E+01
  6.38832E+03  1.89030E+03  2.04012E+03  5.06680E+03 -1.08816E+03  5.31919E+03 -6.30496E+03  4.01001E+03
 -6.66004E+03 -1.37250E+03 -3.91460E+03 -5.16213E+03  6.28177E+01 -7.35816E+03  4.58491E+03 -7.56290E+03
  8.05013E+03 -5.09435E+03  9.01017E+03  1.06259E+03  7.05264E+03  6.77790E+03  1.66415E+03  8.73551E+03
 -3.53426E+03  7.61057E+03 -5.12760E+03  2.61332E+03 -3.10269E+03 -1.29501E+03 -9.58780E+02 -6.22309E+02
 -7.52649E+02  2.58960E+02 -1.56440E+03  2.64897E+03 -3.42086E+03  9.82853E+02 -5.18059E+03 -1.08961E+03
 -3.11145E+03 -5.57157E+03  1.02634E+03 -6.88209E+03  4.32586E+03 -6.49167E+03  5.61600E+03 -1.06623E+03
  7.06159E+03  3.23517E+03  3.19491E+03  5.54621E+03 -1.39659E+03  7.04833E+03 -4.74175E+03  4.10945E+03
 -6.35361E+03  8.73126E+02 -4.75864E+03 -3.83359E+03 -2.76059E+02 -5.42535E+03  3.19855E+03 -3.63402E+03
  4.17753E+03 -1.26037E+03  2.94131E+03  1.23980E+03  8.59434E+02  2.17765E+03  8.47655E+02  1.47433E+03
  1.80724E+03  1.28597E+03  2.35039E+03  1.49117E+03  1.60495E+03  2.88932E+03  1.87061E+03  2.68108E+03
 -1.57077E+03  4.68267E+03 -4.31437E+03  5.47027E+03 -6.03840E+03  1.52055E+03 -6.20028E+03 -1.69333E+03
 -2.99755E+03 -6.51741E+03  5.91874E+02 -6.69076E+03  3.23026E+03 -4.34806E+03  5.51168E+03 -1.50226E+03
  3.88180E+03  2.80854E+03  1.03315E+03  3.41091E+03 -1.52492E+03  2.54245E+03 -1.83412E+03 -3.47751E+02
 -1.16379E+03 -2.65252E+03  1.80431E+03 -3.09604E+03  2.75222E+03 -1.56388E+03  1.99895E+03  7.67407E+02
  1.41151E+03  9.76500E+02  1.06326E+03  4.66883E+02 -4.71529E+02  2.12215E+03  2.47862E+03 -6.43659E+02
  1.09488E+02 -6.25647E+02  2.46322E+03  8.29992E+02  7.44823E+02  3.18561E+03 -7.85835E+02  5.24388E+03
 -2.77027E+03  2.58314E+03 -3.56277E+03  8.90099E+02 -3.50930E+03 -1.29384E+03 -1.23323E+03 -1.21926E+03
  9.35652E+02 -2.16166E+03  1.68695E+03 -1.38101E+03  5.90825E+02  1.79335E+03 -1.22512E+03  2.49607E+03
 -2.73708E+03  1.38271E+03 -2.30846E+03 -1.52764E+03 -1.14095E+03 -3.62262E+03  8.03462E+01 -3.58064E+03
  1.22466E+03 -1.55031E+03  1.88486E+03 -2.32236E+01  2.27863E+03 -4.10175E+01  2.31677E+01  1.74179E+03
 -6.42470E+02  7.52094E+02 -1.20508E+03 -1.05170E+02  1.16256E+03 -2.29440E+03  3.01678E+03 -1.05987E+03
  2.97653E+03 -9.88582E+01  4.01189E+03  2.20109E+03  2.20374E+03  3.53460E+03 -6.50709E+02  3.40229E+03
 -2.63161E+03  1.51030E+03 -2.34152E+03 -3.17836E+02 -1.61810E+03 -2.64029E+03  7.86903E+02 -1.48173E+03
  2.80566E+03 -1.18477E+03  1.80782E+03  1.39639E+03  1.91919E+02  2.18374E+03 -1.73820E+02  2.01216E+03
 -1.01606E+03  1.51093E+03 -8.63480E+02  4.60513E+02 -1.51765E+02  2.24767E+02 -9.76733E+02  4.81302E+02
 -7.27729E+02  1.29375E+03 -3.00851E+03  8.98550E+02 -3.57799E+03  6.45795E+02 -3.84064E+03 -2.55894E+03
 -1.92192E+03 -3.95293E+03  1.04447E+03 -4.63686E+03  2.48808E+03 -3.92378E+03  4.76434E+03 -9.84831E+02
  4.45378E+03  1.92928E+02  2.19334E+03  3.32903E+03 -6.28513E+01  2.76245E+03 -1.34503E+03  1.91121E+03
 -1.74000E+03  1.37528E+03 -1.59892E+03 -6.97123E+02 -2.02036E+02 -1.12927E+02 -1.12218E+02 -1.47653E+02
 -1.57178E+03 -1.68312E+02 -1.42289E+03 -7.17047E+02  6.12410E+01 -1.17369E+03  5.72504E+01 -1.78277E+03
  2.00688E+03 -1.09059E+03  1.63577E+03 -9.25232E+01  1.96350E+03  1.56214E+03 -2.82307E+02  2.63799E+03
 -1.89403E+03  4.44890E+03 -3.46334E+03  1.91067E+03 -3.16463E+03 -6.08077E+02 -2.94725E+03 -2.91236E+03
 -1.13483E+03 -3.19486E+03 -7.51080E+01 -3.26460E+03  1.26579E+03 -1.29784E+03  1.82869E+03 -6.30486E+02
  1.78849E+03  8.63660E+01 -4.63778E+02  3.40427E+02 -1.07502E+03 -3.39153E+01  4.78508E+01 -8.97417E+02
  1.24104E+03 -3.43751E+02  6.78501E+02  7.71884E+02  4.34301E+02  1.21139E+03  6.23687E+02  1.16286E+03
 -1.15011E+03  5.68554E+02 -1.62429E+03  3.67725E+02 -1.25646E+03 -1.17629E+03 -3.49538E+02 -2.15351E+03
  1.53069E+03 -2.05745E+03  1.68211E+03  1.23835E+02  1.81368E+03  3.86946E+01  8.31679E+02  1.97380E+03
  2.47054E+02  1.65524E+03 -7.23115E+02  1.29079E+03 -1.10470E+03  1.14108E+03 -1.16939E+03 -6.20333E+01
 -3.91506E+02 -9.30845E+01 -5.17025E+02  1.48737E+02 -1.16854E+03 -1.58767E+02 -1.88793E+03  7.75044E+00
 -2.30775E+03 -5.14766E+02 -7.21695E+02 -1.59537E+03  1.09770E+03 -2.03048E+03  2.22164E+03 -9.23805E+02
  1.73984E+03  2.53880E+02  5.40498E+02  2.54676E+02  1.17269E+02  1.96052E+03 -1.01215E+03  1.45675E+03
