 $NMID ID='MM_0lb_SNR400_13hz_g45_79.RAW', FMTDAT='(8E13.5)'
 TRAMP=1., VOLUME=1. $END
  3.09095E+05  2.36859E+02  3.38144E+05  2.51085E+05  8.43203E+04  3.38002E+05 -1.32760E+05  2.51405E+05
 -1.90140E+05  8.30548E+04 -1.11842E+05 -3.27543E+04  5.18202E+02 -5.02724E+04  5.39782E+04 -1.74443E+02
  3.53894E+04  5.37220E+04 -1.68909E+04  7.59580E+04 -6.05813E+04  6.38567E+04 -8.44573E+04  3.22236E+04
 -8.10408E+04 -1.15293E+04 -5.77581E+04 -5.12987E+04 -1.48964E+04 -7.01089E+04  2.76504E+04 -4.60342E+04
  4.06696E+04  4.44027E+03  1.57602E+04  4.87468E+04 -3.41358E+04  4.74540E+04 -6.61814E+04 -6.11236E+02
 -5.35268E+04 -5.66671E+04 -7.46721E+03 -7.71103E+04  3.40051E+04 -5.50915E+04  4.80541E+04 -1.72689E+04
  4.39559E+04  1.13575E+04  3.22281E+04  2.53391E+04  1.62817E+04  2.95334E+04 -5.91395E+03  2.76340E+04
 -2.16631E+04  1.28612E+04 -1.86316E+04 -5.05551E+03  5.57434E+03 -7.47848E+03  2.22878E+04  1.18835E+04
  6.80719E+03  3.55994E+04 -3.21167E+04  3.55841E+04 -6.31961E+04  2.35822E+03 -5.71564E+04 -4.24421E+04
 -1.23295E+04 -6.39340E+04  3.98035E+04 -4.50829E+04  5.82109E+04 -2.10275E+03  3.44375E+04  3.27710E+04
 -5.54404E+03  3.66420E+04 -3.07065E+04  1.61278E+04 -3.08784E+04 -4.75184E+03 -1.70318E+04 -1.09559E+04
 -8.25390E+03 -1.35338E+04 -8.06237E+02 -1.79899E+04  7.33554E+03 -2.32194E+04  1.56033E+04 -1.35808E+04
  1.10370E+04  5.49776E+03 -9.50381E+03  1.29937E+04 -2.16121E+04 -4.27265E+03 -8.02439E+03 -3.38632E+04
  2.33156E+04 -4.36770E+04  4.81000E+04 -2.00119E+04  4.51498E+04  1.90020E+04  1.58994E+04  4.40564E+04
 -1.60527E+04  3.37954E+04 -2.55605E+04  1.45444E+03 -1.01089E+04 -2.79479E+04  2.10880E+04 -3.40647E+04
  4.12899E+04 -9.13831E+03  3.59757E+04  2.43438E+04  1.81141E+04  4.69902E+04 -8.06967E+03  5.11619E+04
 -3.20995E+04  3.49869E+04 -4.22854E+04  9.75653E+03 -4.32739E+04 -1.72570E+04 -2.35228E+04 -3.83737E+04
  7.28067E+03 -3.77738E+04  3.17580E+04 -1.45960E+04  2.92547E+04  1.03390E+04  4.73274E+03  1.98097E+04
 -1.33731E+04  8.21604E+03 -1.05484E+04 -7.08623E+03  6.04080E+03 -1.06276E+04  1.77716E+04  5.93279E+03
  1.37496E+04  2.21253E+04 -5.74262E+03  2.55205E+04 -2.20403E+04  1.13994E+04 -2.83369E+04 -4.65739E+03
 -2.05671E+04 -1.72473E+04 -8.58400E+03 -2.07007E+04  3.66573E+03 -2.03368E+04  1.56154E+04 -1.87511E+04
  2.66698E+04 -1.32794E+04  3.35973E+04  3.19546E+03  2.38074E+04  2.01329E+04  4.99223E+03  3.70757E+04
 -1.70359E+04  3.07748E+04 -2.85617E+04  1.09485E+04 -2.15175E+04 -9.96912E+03 -3.87469E+03 -1.35364E+04
  1.57861E+03 -3.13084E+03 -5.03775E+03  6.97754E+03 -1.69354E+04  5.04839E+03 -1.65628E+04 -7.26870E+03
 -1.04719E+04 -1.82493E+04  5.43932E+03 -2.28909E+04  1.56788E+04 -1.68194E+04  1.89194E+04 -1.55639E+03
  1.22900E+04  1.37751E+04 -1.50970E+03  1.93128E+04 -1.33039E+04  1.14879E+04 -1.96463E+04 -4.57823E+03
 -1.43506E+04 -1.77895E+04 -1.50019E+03 -2.33130E+04  1.05668E+04 -1.95140E+04  1.92153E+04 -9.64811E+03
  1.90906E+04  8.70417E+02  1.29863E+04  4.87941E+03  7.11390E+03  8.05752E+02  9.74179E+03 -1.53011E+03
  1.80401E+04  2.54214E+03  2.01333E+04  1.51986E+04  1.29573E+04  3.09806E+04 -2.85051E+03  3.51008E+04
 -2.09776E+04  2.90343E+04 -3.28434E+04  1.42083E+04 -3.43309E+04 -2.51170E+03 -2.83705E+04 -1.99168E+04
 -1.22444E+04 -2.84253E+04  9.63882E+03 -2.57398E+04  2.27643E+04 -1.33113E+04  1.95879E+04  5.37019E+03
  7.80256E+03  1.50816E+04 -8.95909E+03  1.32335E+04 -1.71514E+04  2.28826E+03 -1.33208E+04 -1.06811E+04
 -6.25769E+02 -1.59721E+04  8.18203E+03 -1.22396E+04  1.06354E+04 -1.04054E+03  2.42195E+03  6.71364E+03
 -7.34041E+03  2.76737E+03 -6.26315E+03 -6.03463E+03 -9.37971E+02 -1.43884E+04  9.72401E+03 -1.45215E+04
  1.70086E+04 -8.32096E+03  1.80490E+04  2.63910E+03  1.55074E+04  1.29969E+04  7.24238E+03  2.14682E+04
 -3.89315E+03  2.26101E+04 -1.49671E+04  1.46969E+04 -1.69087E+04  3.29429E+03 -1.14007E+04 -3.61041E+03
 -5.32506E+03 -4.73839E+03 -6.47752E+02  7.97292E+02 -2.19633E+03  2.70402E+03 -6.13943E+03  4.45170E+03
 -1.06635E+04  3.44617E+02 -1.13389E+04 -9.33369E+03 -4.79601E+03 -1.52802E+04  4.78305E+03 -1.27680E+04
  1.00599E+04 -5.20404E+03  6.53601E+03  2.84175E+03 -1.02605E+02  4.72115E+03 -5.18715E+03 -6.19094E+02
 -5.01156E+03 -8.00703E+03 -8.45326E+02 -1.12120E+04  5.93693E+03 -1.18345E+04  1.48269E+04 -7.04776E+03
  1.79100E+04  1.81192E+03  1.25111E+04  1.03292E+04  2.33496E+03  1.32609E+04 -7.99400E+03  1.16819E+04
 -9.88725E+03  3.39383E+03 -5.12106E+03 -2.68521E+03  1.58114E+03 -3.69790E+03  6.17216E+03 -5.99231E+02
  5.81202E+03  4.13776E+03  6.75392E+02  8.91896E+03 -6.31705E+03  9.03290E+03 -1.11368E+04  2.06652E+03
 -8.05050E+03 -5.65364E+03 -2.13647E+02 -1.00062E+04  6.41819E+03 -4.76270E+03  6.68896E+03  1.49712E+03
  1.38861E+03  6.75610E+03 -5.91674E+03  8.15767E+03 -9.06173E+03  3.83635E+03 -9.38653E+03 -2.88606E+03
 -5.08432E+03 -1.06307E+04  2.92821E+03 -1.22308E+04  1.07521E+04 -7.43774E+03  1.13994E+04  2.21480E+03
  7.07044E+03  8.83918E+03 -4.72898E+02  1.08757E+04 -8.21522E+03  6.75254E+03 -8.46276E+03 -8.17439E+02
 -8.26749E+03 -7.77155E+03 -1.74113E+03 -8.36934E+03  4.41917E+03 -6.75588E+03  4.73135E+03 -2.83442E+03
  3.53816E+03  1.29838E+03 -8.86196E+02  1.72715E+03 -6.33022E+02 -1.25971E+03  1.37503E+03 -3.61871E+03
  7.56610E+03 -2.48186E+03  1.00019E+04  1.14970E+03  1.00752E+04  6.55202E+03  7.71059E+03  1.35623E+04
 -2.92395E+03  1.52334E+04 -1.29743E+04  1.17855E+04 -1.72317E+04  2.51534E+03 -1.43666E+04 -5.47232E+03
 -7.35484E+03 -1.13404E+04 -6.18681E+02 -9.55795E+03  3.31539E+03 -4.94188E+03  2.56059E+03 -3.29709E+03
  2.23537E+03 -1.79702E+03  2.53840E+03 -2.84961E+03  4.66847E+03 -2.28976E+03  4.46107E+03 -5.67848E+02
  6.88190E+03  1.72632E+03  2.67281E+03  5.54734E+03 -2.26478E+03  6.47034E+03 -7.32757E+03  6.38727E+03
 -9.70970E+03 -9.98364E+02 -6.00043E+03 -6.53559E+03 -4.74000E+02 -9.46879E+03  5.91560E+03 -9.84514E+03
  9.69463E+03 -5.48713E+03  1.18834E+04  1.76528E+03  8.85619E+03  7.87276E+03  1.03236E+03  1.11090E+04
 -4.14226E+03  9.56860E+03 -6.30029E+03  4.03602E+03 -3.66285E+03 -1.02575E+03 -1.43361E+03 -1.58447E+03
 -1.35152E+03  3.62983E+02 -2.01516E+03  1.91527E+03 -3.81062E+03  1.82071E+03 -6.52583E+03 -6.02242E+02
 -4.02542E+03 -6.78014E+03  1.01246E+03 -9.06966E+03  5.53154E+03 -8.39375E+03  8.32457E+03 -2.62183E+03
  9.00812E+03  3.86932E+03  4.01416E+03  7.42126E+03 -1.82760E+03  9.50885E+03 -6.60133E+03  5.73801E+03
 -8.28140E+03  6.51197E+02 -6.70012E+03 -4.46746E+03 -5.70744E+02 -7.24660E+03  3.90687E+03 -5.50357E+03
  5.94435E+03 -1.60114E+03  3.29229E+03  9.50473E+02  8.30490E+02  2.73715E+03  1.03221E+03  1.49477E+03
  1.83016E+03  7.72299E+02  2.07745E+03  1.30871E+03  2.30679E+03  2.68293E+03  2.69584E+03  4.18160E+03
 -2.71315E+03  6.53630E+03 -5.52171E+03  6.81194E+03 -9.03892E+03  2.48703E+03 -8.74757E+03 -2.88480E+03
 -3.42277E+03 -8.37211E+03  7.70231E+02 -1.01847E+04  4.82896E+03 -5.84203E+03  6.63188E+03 -1.29102E+03
  5.55646E+03  2.98715E+03  1.76847E+03  5.12696E+03 -2.20571E+03  3.12747E+03 -3.69150E+03 -9.91922E+02
 -1.32449E+03 -3.71468E+03  1.95502E+03 -3.35264E+03  4.12278E+03 -1.78160E+03  3.24314E+03  3.41170E+02
  1.78326E+03  1.20181E+03  1.05359E+03  1.18521E+03 -5.06671E+02  1.09859E+03  1.82734E+03 -2.19938E+02
  1.06606E+03 -5.68570E+02  2.94997E+03  2.58152E+02  1.67324E+03  4.71747E+03 -1.13778E+03  6.03216E+03
 -4.65191E+03  3.91015E+03 -5.65724E+03  1.66949E+03 -5.06721E+03 -1.23559E+03 -8.78914E+02 -3.33558E+03
  3.39947E+02 -2.76783E+03  2.94375E+03 -1.89183E+03  1.74322E+03  2.09569E+03 -1.15091E+03  3.00348E+03
 -3.83331E+03  1.64906E+03 -3.55914E+03 -2.28308E+03 -2.14168E+03 -5.32632E+03  6.79116E+02 -4.10417E+03
  2.22586E+03 -2.56132E+03  3.27172E+03 -2.21282E+02  2.30226E+03  6.67258E+02  6.07422E+02  2.27835E+03
 -1.75527E+03  8.55344E+02 -1.85652E+03 -1.25616E+03  9.17622E+02 -3.66244E+03  3.50185E+03 -2.85345E+03
  4.30515E+03  2.91641E+02  6.00295E+03  2.96118E+03  8.36195E+02  4.56926E+03 -1.82821E+03  5.00730E+03
 -4.23221E+03  1.48723E+03 -4.00594E+03 -1.01110E+03 -2.39314E+03 -3.81672E+03  9.96989E+02 -2.72268E+03
  2.94377E+03 -7.14097E+02  1.76552E+03  1.64729E+03  4.94948E+02  2.80916E+03  3.67936E+02  2.86779E+03
 -8.13233E+02  8.78254E+02 -1.38200E+03  2.54387E+02 -7.42685E+02  9.98905E+02 -1.42070E+03  1.50677E+03
 -1.67964E+03  2.02093E+03 -3.99626E+03  2.06512E+03 -4.79669E+03  6.78837E+02 -6.10300E+03 -3.38022E+03
 -2.89450E+03 -6.35645E+03  1.40443E+03 -7.65646E+03  3.87666E+03 -5.50954E+03  6.56242E+03 -2.43344E+03
  6.24258E+03  1.40179E+03  3.50195E+03  4.55433E+03 -4.04950E+02  5.28708E+03 -1.43490E+03  4.56813E+03
 -2.84639E+03  1.41022E+03 -1.18144E+03 -9.48947E+02 -1.22964E+03 -5.53169E+02 -4.46894E+02 -2.83879E+02
 -1.27128E+03  4.31149E+02 -8.34260E+02  1.81629E+02  3.30417E+02 -1.53827E+03 -1.72249E+02 -2.31024E+03
  2.74916E+03 -1.09573E+03  2.56665E+03  2.59011E+01  3.04528E+03  2.99793E+03  8.67148E+02  4.66957E+03
 -2.54781E+03  6.06614E+03 -5.56132E+03  3.13605E+03 -6.11057E+03 -4.63686E+02 -3.79327E+03 -3.71421E+03
 -2.14477E+03 -5.07917E+03  1.22221E+03 -4.77439E+03  2.91393E+03 -2.18746E+03  2.62635E+03  1.85038E+02
  1.49424E+03  2.15567E+03  6.11462E+02  2.02086E+03 -7.33319E+02 -3.84210E+02 -2.82322E+02 -1.55065E+03
  1.55792E+03 -2.90843E+02  1.66688E+03  6.49530E+02  6.40870E+02  2.26173E+03 -2.62278E+02  2.34355E+03
 -1.72735E+03  1.91217E+03 -3.19391E+03  2.74442E+02 -2.55757E+03 -2.50486E+03 -4.51610E+02 -4.04961E+03
  2.02664E+03 -2.92184E+03  3.45365E+03 -1.56815E+03  3.53513E+03  3.09752E+02  1.73392E+03  2.71774E+03
  3.52770E+02  2.44371E+03 -1.43815E+03  1.84156E+03 -2.00332E+03  1.24901E+03 -1.65021E+03  1.08950E+02
 -2.41956E+02 -7.32886E+01 -1.06552E+03  2.67271E+02 -1.32620E+03  6.43869E+01 -2.65130E+03 -7.54425E+02
 -1.83107E+03 -6.69557E+02 -1.28505E+03 -2.66553E+03  1.35373E+03 -4.28613E+03  2.74722E+03 -1.54955E+03
  2.88242E+03  7.27502E+02  9.53699E+02  1.52149E+03 -5.71260E+02  3.26252E+03 -2.36166E+03  1.32269E+03
