 $NMID ID='MM_0lb_SNR400_7hz_g60_18.RAW', FMTDAT='(8E13.5)'
 TRAMP=1., VOLUME=1. $END
  3.10438E+05 -4.40953E+02  3.37525E+05  2.50955E+05  8.54824E+04  3.38411E+05 -1.32399E+05  2.51847E+05
 -1.90820E+05  8.46719E+04 -1.12339E+05 -3.31601E+04 -4.13841E+02 -5.03812E+04  5.26589E+04 -4.01291E+02
  3.57635E+04  5.17917E+04 -1.59857E+04  7.64241E+04 -6.12988E+04  6.58119E+04 -8.50281E+04  3.25518E+04
 -8.33767E+04 -1.24113E+04 -5.90975E+04 -5.30826E+04 -1.43789E+04 -7.19380E+04  2.86232E+04 -4.78465E+04
  4.31506E+04  3.81521E+03  1.72647E+04  4.91021E+04 -3.50365E+04  4.95907E+04 -6.92935E+04 -8.35814E+01
 -5.56745E+04 -5.96475E+04 -7.86919E+03 -7.94800E+04  3.48647E+04 -5.85306E+04  5.08818E+04 -1.91439E+04
  4.70215E+04  1.16460E+04  3.37715E+04  2.79716E+04  1.59862E+04  3.12335E+04 -5.85746E+03  2.83445E+04
 -2.27095E+04  1.16944E+04 -1.76064E+04 -7.06778E+03  7.91481E+03 -6.81441E+03  2.38002E+04  1.48048E+04
  7.82853E+03  3.91707E+04 -3.46474E+04  3.74298E+04 -6.78057E+04  2.17056E+03 -6.01871E+04 -4.56278E+04
 -1.32575E+04 -6.73040E+04  4.29196E+04 -4.88199E+04  6.25680E+04 -2.57822E+03  3.78271E+04  3.47032E+04
 -4.24766E+03  4.27676E+04 -3.31572E+04  2.01596E+04 -3.57191E+04 -3.64698E+03 -2.21749E+04 -1.23239E+04
 -1.02410E+04 -1.68927E+04 -3.40709E+02 -2.07991E+04  8.89515E+03 -2.32261E+04  1.64321E+04 -1.18100E+04
  1.03560E+04  7.54598E+03 -1.27679E+04  1.34262E+04 -2.54540E+04 -8.64623E+03 -8.21291E+03 -3.99620E+04
  2.64499E+04 -4.81828E+04  5.36955E+04 -2.18469E+04  5.14596E+04  2.30558E+04  1.84343E+04  4.91658E+04
 -1.67344E+04  3.76417E+04 -2.78837E+04  3.18448E+03 -1.22236E+04 -3.00355E+04  2.20560E+04 -3.95529E+04
  4.63563E+04 -1.16790E+04  4.43607E+04  2.65917E+04  2.33565E+04  5.35194E+04 -9.16079E+03  5.96842E+04
 -3.75309E+04  4.03861E+04 -5.13450E+04  1.23101E+04 -5.03814E+04 -1.95666E+04 -2.76441E+04 -4.41511E+04
  9.04385E+03 -4.37900E+04  3.56861E+04 -1.92107E+04  3.45521E+04  1.04962E+04  6.41602E+03  2.20767E+04
 -1.32814E+04  1.02722E+04 -1.17654E+04 -6.75552E+03  5.82429E+03 -1.22712E+04  1.94969E+04  6.08733E+03
  1.52528E+04  2.21374E+04 -5.74298E+03  2.88533E+04 -2.32809E+04  1.61446E+04 -3.43328E+04 -5.98586E+02
 -2.81386E+04 -2.01258E+04 -1.33931E+04 -2.68223E+04  3.98717E+03 -2.94577E+04  2.19805E+04 -2.63708E+04
  3.60138E+04 -1.47416E+04  4.06892E+04  6.06514E+03  2.96468E+04  2.73254E+04  4.64538E+03  4.40038E+04
 -2.16690E+04  3.54942E+04 -3.22070E+04  1.29053E+04 -2.40162E+04 -9.98496E+03 -6.28241E+03 -1.24567E+04
  6.59457E+02  4.57766E+02 -8.87394E+03  8.97911E+03 -2.31600E+04  4.46506E+03 -2.24663E+04 -1.07386E+04
 -1.27845E+04 -2.61903E+04  7.09872E+03 -3.11019E+04  2.12737E+04 -2.19912E+04  2.56105E+04 -1.51276E+03
  1.65775E+04  1.88047E+04 -5.10847E+02  2.56355E+04 -1.87267E+04  1.48779E+04 -2.68616E+04 -5.42366E+03
 -1.83167E+04 -2.32254E+04 -3.00808E+03 -3.11855E+04  1.31342E+04 -2.75529E+04  2.49749E+04 -1.37857E+04
  2.44319E+04  5.87551E+00  1.88435E+04  5.35440E+03  1.00087E+04  1.33972E+03  1.39233E+04 -2.29805E+03
  2.51540E+04  3.66995E+03  2.97755E+04  2.08026E+04  2.04839E+04  4.12619E+04 -2.10190E+03  4.96443E+04
 -2.87715E+04  4.29949E+04 -4.85951E+04  2.22968E+04 -5.24218E+04 -3.47792E+03 -4.10280E+04 -3.11321E+04
 -1.54797E+04 -4.37292E+04  1.61547E+04 -3.80320E+04  3.25395E+04 -1.69321E+04  2.76286E+04  9.07526E+03
  9.01431E+03  2.13479E+04 -1.31317E+04  1.69481E+04 -2.21482E+04  2.06553E+03 -1.87563E+04 -1.48984E+04
 -4.64950E+02 -2.27909E+04  1.17303E+04 -1.65075E+04  1.58119E+04 -1.15766E+03  3.46470E+03  1.12276E+04
 -9.49982E+03  5.06981E+03 -1.16539E+04 -7.91391E+03 -2.60574E+03 -2.06492E+04  1.39167E+04 -2.25419E+04
  2.66930E+04 -1.40875E+04  3.05394E+04  4.01204E+03  2.76194E+04  2.24044E+04  1.22508E+04  3.49939E+04
 -7.16876E+03  3.67629E+04 -2.41843E+04  2.26927E+04 -2.68838E+04  4.01226E+03 -1.83323E+04 -7.90569E+03
 -7.18055E+03 -9.07059E+03 -6.09900E+02 -2.07088E+02 -3.63031E+03  4.57328E+03 -8.36050E+03  6.57484E+03
 -1.68691E+04 -1.39070E+03 -1.69140E+04 -1.44525E+04 -6.61032E+03 -2.23819E+04  6.26570E+03 -1.77792E+04
  1.51695E+04 -7.17807E+03  1.09500E+04  5.00186E+03 -2.84860E+02  7.87715E+03 -9.67741E+03  5.37797E+02
 -9.00049E+03 -1.13953E+04 -1.25603E+03 -1.91897E+04  1.08752E+04 -2.01184E+04  2.44357E+04 -1.04345E+04
  2.71204E+04  3.01472E+03  2.08877E+04  1.66509E+04  3.49816E+03  2.37618E+04 -1.08027E+04  1.78964E+04
 -1.51068E+04  5.38036E+03 -7.19661E+03 -4.77017E+03  2.23772E+03 -5.49379E+03  1.00604E+04 -2.91421E+02
  9.19631E+03  8.31465E+03  1.10519E+03  1.48180E+04 -1.17660E+04  1.47421E+04 -1.90410E+04  2.78539E+03
 -1.32569E+04 -1.03987E+04 -1.31614E+02 -1.62321E+04  1.12438E+04 -9.01741E+03  1.22378E+04  4.81576E+03
  1.63479E+03  1.29896E+04 -9.77387E+03  1.47864E+04 -1.75545E+04  5.77878E+03 -1.75504E+04 -6.14371E+03
 -9.79481E+03 -1.94906E+04  4.83826E+03 -2.39021E+04  1.89042E+04 -1.29355E+04  2.22378E+04  3.21898E+03
  1.18883E+04  1.79521E+04 -2.41236E+03  1.90957E+04 -1.40696E+04  1.03504E+04 -1.64525E+04 -1.27203E+03
 -1.42678E+04 -1.31325E+04 -2.48246E+03 -1.43904E+04  8.77362E+03 -1.16699E+04  1.01387E+04 -4.05120E+03
  5.75211E+03  3.32341E+03 -1.72479E+03  2.83804E+03 -8.94359E+02 -4.41789E+03  3.80248E+03 -1.10528E+04
  1.43579E+04 -6.70324E+03  2.05725E+04  2.20526E+03  2.08223E+04  1.47027E+04  1.15870E+04  2.72966E+04
 -6.39953E+03  3.11159E+04 -2.53108E+04  2.27796E+04 -3.25359E+04  4.54550E+03 -2.66292E+04 -1.20943E+04
 -1.40308E+04 -2.15544E+04 -6.42229E+02 -1.89947E+04  6.74432E+03 -1.15858E+04  6.72156E+03 -5.99272E+03
  5.74839E+03 -3.89368E+03  4.77682E+03 -4.84511E+03  6.33287E+03 -4.12735E+03  1.01170E+04 -2.82928E+03
  1.33930E+04  3.39837E+03  8.89566E+03  1.26972E+04 -2.30373E+03  1.48658E+04 -1.44748E+04  1.11761E+04
 -1.91073E+04 -1.86693E+03 -1.39916E+04 -1.36973E+04 -2.52273E+03 -2.03511E+04  1.10977E+04 -2.10513E+04
  2.14273E+04 -1.15541E+04  2.54875E+04  3.82088E+03  1.82378E+04  1.82796E+04  2.02861E+03  2.32315E+04
 -1.00265E+04  1.82543E+04 -1.43057E+04  6.77399E+03 -1.04486E+04 -1.80271E+03 -4.03446E+03 -3.43996E+03
 -1.30644E+03 -4.18069E+02 -2.91787E+03  3.50624E+03 -8.04351E+03  3.24746E+03 -1.34294E+04 -2.54210E+03
 -9.94950E+03 -1.33881E+04 -1.00279E+03 -2.04481E+04  1.25699E+04 -1.84679E+04  2.09491E+04 -5.45465E+03
  1.99460E+04  9.29850E+03  9.73777E+03  1.85099E+04 -4.36085E+03  2.00987E+04 -1.55589E+04  1.27211E+04
 -1.86899E+04  9.40476E+02 -1.41162E+04 -1.30350E+04 -2.40065E+03 -1.70099E+04  9.01937E+03 -1.22122E+04
  1.23746E+04 -3.96114E+03  9.30750E+03  3.69960E+03  3.98497E+03  5.68158E+03  1.69093E+03  2.83947E+03
  3.38306E+03  2.06258E+03  4.35470E+03  2.09758E+03  6.27610E+03  6.64281E+03  5.37101E+03  1.06146E+04
 -4.10971E+03  1.64515E+04 -1.42375E+04  1.49661E+04 -2.15454E+04  3.94804E+03 -2.15569E+04 -9.34919E+03
 -1.08056E+04 -2.04244E+04  3.11852E+03 -2.25035E+04  1.24100E+04 -1.47429E+04  1.74953E+04 -2.99261E+03
  1.28962E+04  7.70941E+03  3.46670E+03  1.17861E+04 -5.80760E+03  7.60817E+03 -8.26489E+03 -1.15385E+03
 -4.25930E+03 -9.74316E+03  4.51228E+03 -8.85121E+03  8.96537E+03 -3.94558E+03  9.39172E+03  1.72640E+03
  5.28829E+03  4.91484E+03  1.50234E+03  5.05830E+03 -1.04018E+03  3.41061E+03  1.47644E+03 -5.57067E+01
  3.77258E+03 -2.27518E+03  8.96624E+03  3.32585E+03  5.33861E+03  1.15879E+04 -1.26276E+03  1.40191E+04
 -1.01389E+04  1.06474E+04 -1.42263E+04  2.47882E+03 -1.19415E+04 -4.59349E+03 -5.03726E+03 -8.23822E+03
  1.38739E+03 -8.77234E+03  5.69216E+03 -3.96234E+03  5.06085E+03  4.04126E+03 -1.50845E+03  6.10787E+03
 -9.09699E+03  4.66488E+03 -1.04329E+04 -5.01477E+03 -5.29187E+03 -1.13833E+04  1.58133E+03 -1.25845E+04
  8.03141E+03 -6.55288E+03  8.83301E+03 -1.11578E+03  6.91564E+03  4.50908E+03  1.70904E+03  6.77667E+03
 -4.77441E+03  1.97580E+03 -4.78926E+03 -3.97813E+03  2.43076E+03 -1.00920E+04  1.17063E+04 -7.54292E+03
  1.39459E+04  1.60909E+03  1.29639E+04  8.92314E+03  3.93507E+03  1.46292E+04 -4.94552E+03  1.43436E+04
 -1.29616E+04  6.72509E+03 -1.26678E+04 -2.40570E+03 -7.93574E+03 -9.50178E+03  2.32250E+03 -8.71503E+03
  9.64886E+03 -3.16249E+03  7.19625E+03  3.80298E+03  2.20930E+03  7.59102E+03 -9.57732E+02  6.29244E+03
 -3.73805E+03  5.07420E+03 -2.95702E+03  1.80100E+03 -2.05525E+03  1.97305E+03 -1.89345E+03  3.28162E+03
 -3.35866E+03  5.56986E+03 -8.83611E+03  5.06991E+03 -1.46051E+04  2.50795E+02 -1.72636E+04 -1.01407E+04
 -9.55347E+03 -1.96383E+04  4.26376E+03 -2.27050E+04  1.42168E+04 -1.78264E+04  2.22570E+04 -6.41814E+03
  2.02418E+04  4.61314E+03  1.42394E+04  1.33010E+04  1.85615E+03  1.65569E+04 -6.61934E+03  1.16892E+04
 -8.54758E+03  3.82941E+03 -5.33300E+03 -1.53051E+03 -1.39241E+03 -2.41178E+03 -9.26922E+02 -9.71555E+02
 -2.20404E+03  7.80396E+02 -2.90530E+03 -1.10438E+03  2.02174E+02 -3.29810E+03 -7.23782E+01 -6.87367E+03
  6.76211E+03 -5.15814E+03  1.01120E+04  3.86943E+02  1.12399E+04  8.86213E+03  3.78242E+03  1.54076E+04
 -8.26123E+03  1.79913E+04 -1.77618E+04  1.07621E+04 -1.98794E+04 -2.18888E+02 -1.52903E+04 -1.26477E+04
 -5.74237E+03 -1.63329E+04  4.44989E+03 -1.52977E+04  1.13837E+04 -8.15493E+03  1.11159E+04 -7.38220E-01
  5.42047E+03  4.82647E+03 -5.94932E+02  4.16215E+03 -3.56434E+03 -6.06101E+02 -2.56840E+02 -3.38271E+03
  5.04356E+03 -3.19909E+03  6.28925E+03  2.27021E+03  3.84367E+03  6.45458E+03 -7.41689E+02  8.56010E+03
 -8.06813E+03  8.36903E+03 -1.14338E+04  1.53190E+03 -1.10400E+04 -8.36246E+03 -2.13284E+03 -1.31351E+04
  8.91215E+03 -1.20813E+04  1.33971E+04 -4.43383E+03  1.28580E+04  4.21955E+03  7.35241E+03  1.10021E+04
  1.47401E+03  1.13497E+04 -4.47804E+03  9.07775E+03 -6.96255E+03  5.06782E+03 -6.62970E+03  4.42412E+02
 -1.97423E+03 -3.81312E+02 -2.72531E+03  1.44695E+03 -6.06119E+03  2.01180E+03 -9.04841E+03 -1.73908E+03
 -8.48007E+03 -6.08782E+03 -1.90158E+03 -1.11216E+04  4.90303E+03 -1.11735E+04  9.34275E+03 -6.22437E+03
  1.12625E+04  2.17847E+03  6.64053E+03  8.44393E+03 -3.20017E+02  1.18851E+04 -8.94974E+03  6.94294E+03
