 $NMID ID='MM_0lb_SNR400_15hz_g50_2.RAW', FMTDAT='(8E13.5)'
 TRAMP=1., VOLUME=1. $END
  3.09610E+05 -9.26857E+01  3.38098E+05  2.50634E+05  8.47337E+04  3.37872E+05 -1.32292E+05  2.50608E+05
 -1.90566E+05  8.28412E+04 -1.11880E+05 -3.27174E+04  6.23174E+02 -5.03064E+04  5.47612E+04  1.19653E+02
  3.50215E+04  5.30206E+04 -1.64326E+04  7.54153E+04 -6.09147E+04  6.36115E+04 -8.34609E+04  3.19307E+04
 -8.11151E+04 -1.14554E+04 -5.69800E+04 -5.07916E+04 -1.47069E+04 -6.93332E+04  2.72969E+04 -4.50119E+04
  4.01505E+04  3.79258E+03  1.56041E+04  4.77804E+04 -3.45441E+04  4.66601E+04 -6.67611E+04 -3.91990E+02
 -5.29240E+04 -5.71855E+04 -6.47172E+03 -7.63102E+04  3.39846E+04 -5.48590E+04  4.77767E+04 -1.71509E+04
  4.32893E+04  1.10746E+04  3.07843E+04  2.55235E+04  1.52372E+04  2.91427E+04 -5.17608E+03  2.72896E+04
 -2.16730E+04  1.23886E+04 -1.84104E+04 -4.33594E+03  5.66539E+03 -7.42747E+03  2.27926E+04  1.19298E+04
  7.43396E+03  3.52682E+04 -3.18405E+04  3.51992E+04 -6.30293E+04  1.81352E+03 -5.65357E+04 -4.24382E+04
 -1.21033E+04 -6.22965E+04  3.98687E+04 -4.52978E+04  5.73310E+04 -2.06646E+03  3.34743E+04  3.27173E+04
 -5.96190E+03  3.59257E+04 -3.01480E+04  1.56481E+04 -2.97279E+04 -5.23173E+03 -1.64328E+04 -1.08251E+04
 -8.36302E+03 -1.30707E+04 -1.14935E+03 -1.79243E+04  6.48536E+03 -2.30627E+04  1.51236E+04 -1.32736E+04
  1.10883E+04  4.94029E+03 -8.22998E+03  1.29381E+04 -2.09243E+04 -4.01462E+03 -7.81844E+03 -3.33621E+04
  2.28551E+04 -4.32197E+04  4.75041E+04 -1.93212E+04  4.44429E+04  1.85997E+04  1.57933E+04  4.37723E+04
 -1.56551E+04  3.26033E+04 -2.54225E+04  1.51131E+03 -9.61192E+03 -2.75891E+04  2.10569E+04 -3.39320E+04
  4.07359E+04 -8.70005E+03  3.51636E+04  2.40489E+04  1.73843E+04  4.62174E+04 -7.49840E+03  4.96691E+04
 -3.11129E+04  3.29170E+04 -4.15943E+04  9.06874E+03 -4.22222E+04 -1.64465E+04 -2.29383E+04 -3.75174E+04
  6.73776E+03 -3.70396E+04  3.14753E+04 -1.45104E+04  2.88742E+04  1.06718E+04  3.37790E+03  1.90125E+04
 -1.37531E+04  8.26018E+03 -1.06487E+04 -7.55796E+03  6.04596E+03 -1.12968E+04  1.80613E+04  6.06596E+03
  1.34190E+04  2.17324E+04 -6.18558E+03  2.44487E+04 -2.17702E+04  1.09557E+04 -2.72022E+04 -4.57015E+03
 -1.99121E+04 -1.72328E+04 -8.09863E+03 -1.97743E+04  4.31183E+03 -1.87866E+04  1.45396E+04 -1.81320E+04
  2.49844E+04 -1.26508E+04  3.18995E+04  3.18436E+03  2.30675E+04  1.92825E+04  4.70986E+03  3.53876E+04
 -1.71934E+04  2.99818E+04 -2.72581E+04  1.06576E+04 -2.10573E+04 -1.02212E+04 -4.53903E+03 -1.36039E+04
  1.89148E+03 -3.04693E+03 -4.01791E+03  5.92103E+03 -1.54586E+04  5.16380E+03 -1.62171E+04 -6.64300E+03
 -9.81929E+03 -1.81209E+04  5.05218E+03 -2.23876E+04  1.43683E+04 -1.60577E+04  1.71132E+04 -1.74326E+03
  1.06299E+04  1.26135E+04 -1.34435E+03  1.85272E+04 -1.26619E+04  1.06139E+04 -1.82002E+04 -3.52615E+03
 -1.32230E+04 -1.68973E+04 -1.95200E+03 -2.25174E+04  1.03815E+04 -1.86071E+04  1.86712E+04 -8.75441E+03
  1.72365E+04  4.13758E+02  1.22761E+04  4.29168E+03  6.10920E+03  1.16465E+03  8.94172E+03 -1.14936E+03
  1.68812E+04  2.86761E+03  1.81247E+04  1.46640E+04  1.21669E+04  2.93805E+04 -3.74039E+03  3.25683E+04
 -1.88006E+04  2.59769E+04 -3.03330E+04  1.35062E+04 -3.23546E+04 -2.12668E+03 -2.61971E+04 -1.83038E+04
 -1.16900E+04 -2.65251E+04  9.13959E+03 -2.33999E+04  2.03120E+04 -1.24753E+04  1.81891E+04  5.25783E+03
  6.75602E+03  1.36149E+04 -8.93251E+03  1.20271E+04 -1.50571E+04  2.59905E+03 -1.15490E+04 -9.40356E+03
  5.40864E+01 -1.42090E+04  7.30623E+03 -1.14018E+04  9.58661E+03 -1.36620E+03  2.35967E+03  6.41660E+03
 -6.11181E+03  2.71085E+03 -5.44261E+03 -5.12583E+03 -5.50555E+02 -1.24398E+04  9.00262E+03 -1.34533E+04
  1.58255E+04 -6.40499E+03  1.71848E+04  3.08687E+03  1.42433E+04  1.21886E+04  6.86566E+03  1.91539E+04
 -3.49454E+03  2.10820E+04 -1.34075E+04  1.33883E+04 -1.50096E+04  3.07165E+03 -1.05046E+04 -3.34924E+03
 -4.74899E+03 -5.38793E+03 -6.80512E+02  1.40251E+03 -1.93067E+03  2.57609E+03 -4.59582E+03  3.67289E+03
 -1.02025E+04 -4.04792E+02 -1.02310E+04 -8.57635E+03 -4.47582E+03 -1.44991E+04  4.52833E+03 -1.03817E+04
  8.74174E+03 -4.62089E+03  6.39359E+03  2.70451E+03  7.52961E+02  4.10860E+03 -5.26531E+03 -2.52012E+02
 -4.32788E+03 -6.34564E+03 -1.36615E+03 -1.02630E+04  5.27431E+03 -1.06382E+04  1.29163E+04 -5.18354E+03
  1.54555E+04  1.08157E+03  1.17547E+04  7.65003E+03  2.14355E+03  1.18043E+04 -6.85454E+03  1.07884E+04
 -8.94279E+03  3.46811E+03 -4.25121E+03 -1.36744E+03  1.84894E+03 -2.48723E+03  5.99235E+03 -3.65691E+02
  5.45993E+03  4.65394E+03  4.41768E+02  8.06342E+03 -6.00552E+03  7.72694E+03 -1.02510E+04  2.20001E+03
 -6.56301E+03 -5.04307E+03  2.52896E+01 -8.65108E+03  4.83421E+03 -4.40695E+03  5.27478E+03  1.56860E+03
  8.09388E+02  5.19048E+03 -5.83391E+03  6.78002E+03 -7.94111E+03  3.27087E+03 -7.69536E+03 -2.08697E+03
 -4.37811E+03 -8.82916E+03  2.30253E+03 -1.02964E+04  8.35791E+03 -6.41507E+03  9.40374E+03  1.21371E+03
  5.89837E+03  7.67333E+03 -1.09427E+03  1.00509E+04 -6.98709E+03  5.72999E+03 -7.11586E+03 -2.76003E+02
 -7.46302E+03 -6.55766E+03 -1.13547E+03 -7.36115E+03  3.72045E+03 -5.61506E+03  4.59214E+03 -3.39259E+03
  3.82882E+03  1.06201E+03 -6.23582E+02  1.42923E+03 -3.15088E+02 -5.85692E+02  5.38422E+02 -3.55211E+03
  6.12809E+03 -2.36495E+03  8.56629E+03  5.30389E+02  8.91120E+03  5.47204E+03  6.49451E+03  1.13844E+04
 -2.48538E+03  1.31755E+04 -1.12349E+04  9.56559E+03 -1.46470E+04  2.22504E+03 -1.13957E+04 -4.39508E+03
 -6.19666E+03 -1.00211E+04 -1.81547E+02 -7.80689E+03  3.46274E+03 -3.69204E+03  2.56474E+03 -2.51826E+03
  1.94881E+03 -1.57176E+03  2.86214E+03 -3.00070E+03  4.47172E+03 -1.71043E+03  5.28337E+03  1.33333E+02
  5.51680E+03  1.45990E+03  1.73197E+03  4.63315E+03 -1.55309E+03  5.21723E+03 -6.53062E+03  4.12114E+03
 -7.80014E+03 -1.10796E+03 -3.73607E+03 -5.57782E+03  1.49883E+02 -7.76294E+03  5.02710E+03 -8.20621E+03
  8.00135E+03 -4.98640E+03  1.04622E+04  1.25353E+03  7.19042E+03  7.03421E+03  1.75823E+03  8.80080E+03
 -3.65761E+03  7.85347E+03 -5.39048E+03  2.53010E+03 -3.73314E+03 -1.30955E+03 -1.19734E+03 -7.29295E+02
 -6.83063E+02  5.67365E+02 -1.54792E+03  2.10127E+03 -3.64698E+03  1.58625E+03 -5.81638E+03 -2.87570E+01
 -3.53364E+03 -5.77134E+03  1.23690E+03 -6.73729E+03  4.32549E+03 -6.80528E+03  6.39137E+03 -1.52767E+03
  6.82669E+03  3.82484E+03  3.11374E+03  5.03551E+03 -6.95588E+02  7.10668E+03 -4.45683E+03  5.28708E+03
 -6.26310E+03  2.72553E+02 -5.31893E+03 -4.35832E+03 -1.94078E+02 -5.34548E+03  2.65809E+03 -3.93127E+03
  3.94241E+03 -1.74929E+03  3.17876E+03  8.71426E+02  1.05079E+03  2.81536E+03  9.07712E+02  9.77723E+02
  1.85806E+03  7.34834E+02  1.56313E+03  1.57877E+03  1.91432E+03  2.36145E+03  2.57409E+03  3.30159E+03
 -1.47133E+03  5.39810E+03 -4.19729E+03  6.29386E+03 -6.26290E+03  1.62988E+03 -6.93998E+03 -1.87601E+03
 -3.47148E+03 -6.80841E+03  3.07596E+02 -7.56038E+03  3.74195E+03 -4.91163E+03  4.96649E+03 -1.02638E+03
  3.89151E+03  1.84006E+03  6.59522E+02  4.41392E+03 -1.76163E+03  1.91511E+03 -2.27965E+03 -4.67957E+02
 -8.38402E+02 -2.02479E+03  1.72967E+03 -2.94455E+03  2.21157E+03 -9.67935E+02  2.65142E+03  2.99144E+02
  9.55839E+02  3.26636E+02  4.23590E+02  2.10482E+02  1.10055E+02  1.31368E+03  1.13642E+03 -7.55090E+02
  8.65147E+02 -2.53463E+02  2.16385E+03  3.41521E+02  1.15002E+03  4.34549E+03 -4.11284E+02  5.35656E+03
 -3.29733E+03  2.34822E+03 -4.23810E+03  5.96717E+02 -3.74989E+03 -1.80400E+03 -9.13812E+02 -2.95402E+03
  3.22736E+02 -1.89476E+03  1.28412E+03 -1.05007E+03  1.41398E+03  1.69140E+03 -5.99149E+02  2.13707E+03
 -2.31761E+03  1.03534E+03 -2.78153E+03 -1.76863E+03 -2.12628E+03 -3.37209E+03  8.43986E+02 -2.87099E+03
  1.10477E+03 -1.60197E+03  1.88753E+03  4.88320E+02  2.29581E+03  2.49965E+02  7.19475E+02  2.56839E+03
 -1.11928E+03 -8.22892E+01 -1.44292E+03 -1.11673E+03  6.80951E+02 -2.43643E+03  2.95633E+03 -1.72748E+03
  3.00015E+03  2.23871E+02  4.40066E+03  1.63477E+03  1.76928E+03  3.37086E+03 -5.30249E+02  3.66832E+03
 -2.81155E+03  1.96630E+03 -3.42108E+03 -3.79149E+02 -1.47413E+03 -2.14377E+03  1.11170E+02 -1.62768E+03
  2.82071E+03 -1.68673E+03  2.26913E+03  1.53221E+03  5.69176E+02  2.29634E+03 -1.01013E+02  1.97243E+03
 -4.61382E+02  1.36218E+03 -7.68495E+02  6.75953E+02 -1.27371E+02  9.08208E+02 -5.58573E+02  1.00458E+03
 -1.02471E+03  1.03736E+03 -2.57480E+03  8.85935E+02 -3.23472E+03  2.40352E+02 -4.22437E+03 -1.59558E+03
 -1.79340E+03 -4.33680E+03  6.63567E+02 -5.90626E+03  3.31823E+03 -4.31327E+03  5.20060E+03 -1.04776E+03
  4.26445E+03  3.68128E+02  2.63213E+03  3.20832E+03 -9.61115E+02  2.75506E+03 -1.32854E+03  2.51143E+03
 -2.12041E+03  1.61189E+03 -1.27255E+03 -7.91930E+02 -4.52756E+02  2.06592E+02 -3.67123E+02 -9.20846E+00
 -1.05035E+03 -3.43798E+01 -1.18756E+03 -6.98358E+00  1.33615E+02 -2.53085E+02 -1.95684E+01 -1.20735E+03
  1.76207E+03 -1.64410E+03  1.76402E+03  3.48633E+02  2.61455E+03  2.11098E+03 -1.03503E+02  3.49206E+03
 -1.70216E+03  4.01705E+03 -3.40391E+03  2.12341E+03 -4.52726E+03 -6.00148E+02 -2.12364E+03 -2.36118E+03
 -1.69633E+03 -3.19070E+03  7.69191E+02 -2.74556E+03  1.85470E+03 -1.53801E+03  1.70236E+03 -1.28840E+02
  6.15764E+02  6.16471E+02  3.19604E+02  1.11241E+03 -1.00615E+03  3.51793E+01 -6.68024E+02 -1.62052E+02
  8.49508E+02 -6.88172E+02  7.21680E+02  9.75688E+02  5.25485E+02  9.73844E+02  8.30506E+01  1.48216E+03
 -1.47864E+03  1.26588E+03 -1.71609E+03  6.07258E+02 -1.88715E+03 -1.42756E+03  5.47391E+01 -2.41747E+03
  1.19375E+03 -1.74302E+03  1.91834E+03 -6.11910E+02  2.28388E+03 -5.75038E+02  6.08455E+02  1.59539E+03
  6.41055E+02  1.30551E+03 -2.30312E+02  1.41701E+03 -1.09858E+03  8.20364E+02 -1.03698E+03 -3.99365E+01
 -8.28386E+02  4.39239E+02 -1.18770E+03  7.57159E+02 -1.78476E+03 -3.03716E+02 -1.47184E+03 -3.96445E+02
 -1.90161E+03 -3.87494E+02 -1.24214E+03 -1.37133E+03  1.10730E+03 -2.55133E+03  2.16699E+03 -1.10095E+03
  2.31960E+03  6.12835E+02  1.12928E+02  2.43520E+02 -8.80184E+02  1.75599E+03 -1.55042E+03  1.21868E+03
