 $NMID ID='MM_0lb_SNR400_8hz_g40_38.RAW', FMTDAT='(8E13.5)'
 TRAMP=1., VOLUME=1. $END
  3.10661E+05  8.17225E+02  3.38156E+05  2.51724E+05  8.47102E+04  3.39103E+05 -1.33076E+05  2.52111E+05
 -1.90403E+05  8.41942E+04 -1.12171E+05 -3.26627E+04  7.71657E+02 -5.02548E+04  5.30310E+04 -3.47695E+02
  3.65119E+04  5.32201E+04 -1.69093E+04  7.64796E+04 -6.05518E+04  6.47291E+04 -8.52650E+04  3.21119E+04
 -8.31144E+04 -1.18042E+04 -5.85454E+04 -5.29689E+04 -1.47335E+04 -7.06718E+04  2.80336E+04 -4.72444E+04
  4.14389E+04  4.45989E+03  1.72301E+04  4.82530E+04 -3.42396E+04  4.86192E+04 -6.72988E+04  4.65903E+02
 -5.46950E+04 -5.73823E+04 -7.87538E+03 -7.90927E+04  3.47357E+04 -5.69473E+04  4.92441E+04 -1.91183E+04
  4.56698E+04  1.16525E+04  3.35126E+04  2.69561E+04  1.56954E+04  3.05999E+04 -5.26555E+03  2.72336E+04
 -2.30465E+04  1.17657E+04 -1.91902E+04 -5.18331E+03  6.27806E+03 -7.77379E+03  2.35109E+04  1.34289E+04
  6.78565E+03  3.83322E+04 -3.46662E+04  3.68084E+04 -6.56216E+04  2.30819E+03 -5.90783E+04 -4.48890E+04
 -1.21463E+04 -6.56608E+04  4.16388E+04 -4.74369E+04  6.19944E+04 -2.91877E+03  3.65443E+04  3.36911E+04
 -5.48239E+03  4.00216E+04 -3.25716E+04  1.83839E+04 -3.38565E+04 -3.15900E+03 -1.87406E+04 -1.27974E+04
 -9.48638E+03 -1.55448E+04 -3.59079E+02 -1.97895E+04  8.28099E+03 -2.27963E+04  1.52522E+04 -1.25841E+04
  1.03004E+04  6.69893E+03 -1.01063E+04  1.28011E+04 -2.35446E+04 -6.55643E+03 -8.91836E+03 -3.73752E+04
  2.47849E+04 -4.63482E+04  5.23852E+04 -2.07226E+04  4.84520E+04  2.04915E+04  1.78711E+04  4.67350E+04
 -1.67598E+04  3.62510E+04 -2.74548E+04  2.62789E+03 -1.18852E+04 -3.01458E+04  2.15202E+04 -3.70837E+04
  4.50458E+04 -1.13926E+04  4.04993E+04  2.49504E+04  2.12885E+04  5.05704E+04 -8.87270E+03  5.65273E+04
 -3.60293E+04  3.88338E+04 -4.63550E+04  1.06924E+04 -4.71174E+04 -1.87911E+04 -2.69937E+04 -4.21448E+04
  8.49117E+03 -4.23727E+04  3.50321E+04 -1.70167E+04  3.20703E+04  1.14301E+04  5.65413E+03  2.09239E+04
 -1.41706E+04  1.07478E+04 -1.04832E+04 -6.59838E+03  5.03578E+03 -1.11188E+04  1.97772E+04  5.31950E+03
  1.49775E+04  2.18866E+04 -5.80914E+03  2.68993E+04 -2.42429E+04  1.47064E+04 -3.15130E+04 -3.23213E+03
 -2.59599E+04 -1.81741E+04 -1.18601E+04 -2.52643E+04  4.70542E+03 -2.55853E+04  2.00735E+04 -2.36342E+04
  3.20015E+04 -1.38597E+04  3.84716E+04  4.96764E+03  2.65773E+04  2.36866E+04  2.89941E+03  4.15680E+04
 -1.90445E+04  3.40233E+04 -3.12562E+04  1.15148E+04 -2.36805E+04 -9.89632E+03 -4.48653E+03 -1.25956E+04
  1.67695E+02 -1.62403E+03 -6.71914E+03  7.61752E+03 -2.08867E+04  4.84187E+03 -2.00925E+04 -9.68791E+03
 -1.20741E+04 -2.33758E+04  6.99013E+03 -2.69952E+04  1.90545E+04 -1.97412E+04  2.17768E+04 -1.55674E+03
  1.44892E+04  1.55985E+04 -1.08502E+03  2.33764E+04 -1.63711E+04  1.38117E+04 -2.34599E+04 -5.41433E+03
 -1.68360E+04 -2.16728E+04 -2.08862E+03 -2.82831E+04  1.28909E+04 -2.36977E+04  2.40622E+04 -1.23499E+04
  2.13091E+04 -3.56523E+02  1.63654E+04  6.10904E+03  8.59424E+03  2.10819E+03  1.17304E+04 -2.28249E+03
  2.27880E+04  2.72612E+03  2.56039E+04  1.81400E+04  1.91751E+04  3.78978E+04 -2.74706E+03  4.50868E+04
 -2.56914E+04  3.73215E+04 -4.18538E+04  1.93620E+04 -4.59752E+04 -2.84520E+03 -3.69745E+04 -2.62269E+04
 -1.35878E+04 -3.79002E+04  1.44077E+04 -3.29307E+04  2.88136E+04 -1.60745E+04  2.43745E+04  6.22586E+03
  8.80481E+03  1.96423E+04 -1.15909E+04  1.50533E+04 -2.08151E+04  2.46967E+03 -1.50842E+04 -1.27696E+04
 -6.19843E+02 -1.93332E+04  1.03775E+04 -1.41028E+04  1.36423E+04 -7.29215E+02  3.57228E+03  8.33101E+03
 -8.60332E+03  4.70399E+03 -9.86459E+03 -7.45629E+03 -1.89720E+03 -1.80486E+04  1.15940E+04 -2.01479E+04
  2.43895E+04 -1.12226E+04  2.71389E+04  2.39493E+03  2.35343E+04  1.90738E+04  1.18097E+04  2.93773E+04
 -5.16188E+03  3.16232E+04 -2.13745E+04  1.98481E+04 -2.28155E+04  3.77477E+03 -1.59054E+04 -5.62475E+03
 -6.69843E+03 -7.36629E+03 -9.26433E+02  4.70936E+02 -2.81495E+03  4.05892E+03 -7.32507E+03  5.25397E+03
 -1.44387E+04 -1.77407E+03 -1.41928E+04 -1.20789E+04 -7.34593E+03 -2.01922E+04  6.39319E+03 -1.62656E+04
  1.32615E+04 -7.01831E+03  8.62807E+03  3.99969E+03  8.75048E+02  6.72934E+03 -8.21750E+03  9.31291E+01
 -7.68305E+03 -1.03875E+04 -4.57430E+02 -1.64058E+04  9.12847E+03 -1.70296E+04  2.01094E+04 -8.38136E+03
  2.40528E+04  2.00723E+03  1.72664E+04  1.50755E+04  2.65213E+03  2.01339E+04 -9.76480E+03  1.63145E+04
 -1.25601E+04  4.12930E+03 -5.93900E+03 -3.69032E+03  2.26006E+03 -4.75163E+03  8.58099E+03 -2.21784E+03
  8.07962E+03  6.78927E+03  1.97716E+03  1.32881E+04 -9.89893E+03  1.25573E+04 -1.64778E+04  2.67758E+03
 -1.08488E+04 -8.34796E+03 -1.48774E+02 -1.35996E+04  8.98028E+03 -8.11972E+03  9.52459E+03  3.03337E+03
  1.68489E+03  1.12105E+04 -8.13157E+03  1.16084E+04 -1.32910E+04  5.64976E+03 -1.45206E+04 -5.81330E+03
 -7.59696E+03 -1.72569E+04  3.90686E+03 -1.90544E+04  1.59444E+04 -1.05989E+04  1.69818E+04  3.25742E+03
  1.09111E+04  1.36972E+04 -2.11408E+03  1.67372E+04 -1.15968E+04  9.14474E+03 -1.30095E+04 -8.40433E+02
 -1.13530E+04 -1.06444E+04 -1.13516E+03 -1.23809E+04  6.32820E+03 -9.51296E+03  8.53864E+03 -4.07350E+03
  4.50410E+03  1.82895E+03 -7.72760E+02  1.75750E+03 -6.83133E+02 -3.68921E+03  2.57962E+03 -7.50557E+03
  1.26222E+04 -4.04851E+03  1.70194E+04  1.77100E+03  1.63999E+04  1.22208E+04  1.06250E+04  2.11765E+04
 -4.15151E+03  2.46409E+04 -2.06412E+04  1.86572E+04 -2.70075E+04  3.46571E+03 -2.13991E+04 -9.69089E+03
 -1.12331E+04 -1.78325E+04 -7.27409E+02 -1.59405E+04  4.75054E+03 -8.90536E+03  5.44611E+03 -4.37815E+03
  3.60655E+03 -4.32556E+03  4.38061E+03 -3.27109E+03  5.62383E+03 -3.51367E+03  8.20109E+03 -1.30355E+03
  1.21220E+04  1.85248E+03  5.91745E+03  1.01917E+04 -2.78254E+03  1.17532E+04 -1.22271E+04  8.61766E+03
 -1.58265E+04 -1.14990E+03 -9.65133E+03 -1.00711E+04 -1.47752E+03 -1.70131E+04  9.37662E+03 -1.66615E+04
  1.70857E+04 -9.91377E+03  2.08746E+04  3.11412E+03  1.39466E+04  1.35701E+04  2.41414E+03  1.81882E+04
 -7.53092E+03  1.56978E+04 -1.15331E+04  5.09437E+03 -7.87595E+03 -1.86236E+03 -3.56949E+03 -2.10130E+03
 -1.42567E+03 -4.26497E+02 -2.00862E+03  2.60075E+03 -5.90755E+03  2.54424E+03 -1.08709E+04 -1.60362E+03
 -7.78224E+03 -1.05408E+04 -1.28509E+02 -1.51727E+04  9.37516E+03 -1.42546E+04  1.66430E+04 -3.89593E+03
  1.57087E+04  7.42507E+03  7.46034E+03  1.43319E+04 -3.26883E+03  1.57713E+04 -1.19205E+04  1.08619E+04
 -1.50280E+04  8.73722E+02 -1.19893E+04 -9.65275E+03 -1.72845E+03 -1.26559E+04  6.71879E+03 -9.21621E+03
  1.03806E+04 -3.15065E+03  6.78497E+03  2.98473E+03  2.43012E+03  5.10423E+03  1.38706E+03  1.99296E+03
  3.12155E+03  1.71356E+03  3.95204E+03  2.11224E+03  3.89996E+03  4.74526E+03  4.53931E+03  8.14767E+03
 -2.63444E+03  1.23582E+04 -1.15067E+04  1.32305E+04 -1.73753E+04  3.15611E+03 -1.68618E+04 -6.99935E+03
 -7.91879E+03 -1.61657E+04  2.57684E+03 -1.74434E+04  9.80933E+03 -1.11112E+04  1.41801E+04 -3.03319E+03
  9.41475E+03  5.87464E+03  2.12276E+03  8.96660E+03 -3.85402E+03  6.26497E+03 -6.69674E+03 -9.22576E+01
 -3.10284E+03 -6.28623E+03  3.76342E+03 -7.00668E+03  6.33985E+03 -3.03248E+03  6.59256E+03  1.98327E+03
  4.69015E+03  3.53091E+03  1.72997E+03  2.98669E+03 -1.12641E+03  2.27653E+03  1.99324E+03  1.62962E+02
  3.11892E+03 -1.13048E+03  5.61745E+03  2.68073E+03  4.00448E+03  8.85395E+03 -1.80373E+03  1.18561E+04
 -7.58854E+03  7.16938E+03 -1.01931E+04  2.51477E+03 -9.23735E+03 -3.49372E+03 -4.10243E+03 -7.09332E+03
  5.05948E+02 -7.41578E+03  3.92700E+03 -2.86480E+03  4.05438E+03  2.46531E+03 -1.62391E+03  5.31802E+03
 -6.94132E+03  3.49791E+03 -8.11851E+03 -3.40443E+03 -4.31940E+03 -8.97362E+03  1.66772E+03 -9.12679E+03
  6.06043E+03 -5.45038E+03  6.72464E+03 -3.76756E+02  4.49179E+03  2.67701E+03 -6.04679E+00  4.16053E+03
 -3.53778E+03  2.14332E+03 -4.35002E+03 -3.25905E+03  1.92847E+03 -7.32324E+03  8.74534E+03 -5.54339E+03
  1.09833E+04  1.09272E+03  9.94552E+03  7.37027E+03  3.16282E+03  1.10836E+04 -3.93270E+03  1.01131E+04
 -8.55453E+03  4.37648E+03 -1.04925E+04 -9.06535E+02 -4.95407E+03 -7.23299E+03  2.14469E+03 -6.80039E+03
  6.51549E+03 -3.14148E+03  5.95438E+03  2.82691E+03  2.46127E+03  6.03028E+03 -1.19260E+03  5.19651E+03
 -2.46428E+03  4.31294E+03 -1.87214E+03  9.60854E+02 -1.09709E+03  5.88738E+02 -1.18754E+03  2.07577E+03
 -3.06057E+03  4.08643E+03 -7.14630E+03  4.07666E+03 -1.08495E+04  1.21716E+03 -1.19967E+04 -7.07503E+03
 -6.77038E+03 -1.53488E+04  3.12592E+03 -1.77345E+04  1.05593E+04 -1.31430E+04  1.64065E+04 -5.16021E+03
  1.56463E+04  2.78797E+03  8.62078E+03  1.07261E+04  1.15098E+03  1.25152E+04 -5.01855E+03  9.40142E+03
 -6.76636E+03  3.61826E+03 -3.98362E+03 -1.16789E+03 -1.63506E+03 -1.23999E+03 -6.10684E+02  6.08617E+02
 -1.97020E+03  1.68643E+03 -3.26279E+03  1.68668E+01 -1.34622E+03 -3.32852E+03  2.23893E+02 -4.06503E+03
  5.59246E+03 -2.41038E+03  6.61004E+03 -1.51355E+02  8.56607E+03  5.82647E+03  1.50172E+03  1.10132E+04
 -5.35537E+03  1.37389E+04 -1.20679E+04  7.52309E+03 -1.42436E+04 -1.29976E+03 -1.05070E+04 -8.74805E+03
 -5.23319E+03 -1.18187E+04  3.19108E+03 -1.11316E+04  7.37402E+03 -5.92665E+03  7.73475E+03 -2.74205E+02
  4.57314E+03  3.66684E+03  9.58919E+01  3.38000E+03 -2.56177E+03  1.79146E+02  2.85757E+02 -1.95268E+03
  4.41491E+03 -1.68651E+03  5.02374E+03  1.31042E+03  3.37412E+03  4.71730E+03  4.33164E+02  6.64224E+03
 -4.97848E+03  5.67026E+03 -8.00877E+03 -5.42458E+01 -6.73285E+03 -5.39174E+03 -1.21732E+03 -9.99247E+03
  6.38301E+03 -8.30030E+03  9.46932E+03 -2.87891E+03  9.61147E+03  3.24151E+03  5.83995E+03  7.62551E+03
  1.19318E+03  8.26414E+03 -3.33397E+03  6.87612E+03 -5.05633E+03  3.72620E+03 -4.33807E+03  7.62382E+02
 -2.62357E+03 -9.58893E+02 -3.20629E+03  7.59634E+02 -4.57328E+03  2.22339E+03 -6.11046E+03 -1.28577E+03
 -5.80163E+03 -4.90335E+03 -2.01008E+03 -8.32499E+03  3.43713E+03 -9.38535E+03  6.40297E+03 -3.91828E+03
  7.52410E+03  1.21223E+03  4.02397E+03  5.84253E+03 -1.68279E+02  7.93785E+03 -6.55057E+03  4.61584E+03
