 $NMID ID='MM_0lb_SNR400_8hz_g55_71.RAW', FMTDAT='(8E13.5)'
 TRAMP=1., VOLUME=1. $END
  3.09905E+05  2.67262E+02  3.37784E+05  2.51452E+05  8.51532E+04  3.38859E+05 -1.32153E+05  2.51855E+05
 -1.90594E+05  8.39310E+04 -1.13076E+05 -3.22361E+04  7.89995E+02 -5.09105E+04  5.35877E+04 -4.78387E+02
  3.49948E+04  5.31338E+04 -1.66416E+04  7.57768E+04 -6.10271E+04  6.46712E+04 -8.55740E+04  3.32505E+04
 -8.29064E+04 -1.12312E+04 -5.84269E+04 -5.24519E+04 -1.55743E+04 -7.18954E+04  2.95142E+04 -4.70055E+04
  4.16098E+04  4.33877E+03  1.69076E+04  4.94339E+04 -3.42163E+04  4.82168E+04 -6.87348E+04  5.00372E+02
 -5.46894E+04 -5.83109E+04 -7.95615E+03 -7.97483E+04  3.58185E+04 -5.82659E+04  5.02587E+04 -1.86348E+04
  4.50151E+04  1.09283E+04  3.21729E+04  2.66053E+04  1.64475E+04  3.07459E+04 -5.54541E+03  2.83378E+04
 -2.26211E+04  1.20239E+04 -1.78104E+04 -6.53295E+03  7.36721E+03 -8.05161E+03  2.40270E+04  1.31791E+04
  7.44372E+03  3.73884E+04 -3.49226E+04  3.67534E+04 -6.65829E+04  1.28749E+03 -5.93985E+04 -4.47808E+04
 -1.27810E+04 -6.59671E+04  4.20978E+04 -4.86082E+04  6.21702E+04 -2.59376E+03  3.69555E+04  3.51248E+04
 -5.30756E+03  4.02586E+04 -3.25655E+04  1.89091E+04 -3.37063E+04 -3.60609E+03 -2.03366E+04 -1.29419E+04
 -1.01928E+04 -1.63434E+04 -5.58556E+02 -1.95159E+04  9.80723E+03 -2.27753E+04  1.59198E+04 -1.28833E+04
  1.00800E+04  7.64914E+03 -1.05924E+04  1.30130E+04 -2.39421E+04 -6.82667E+03 -8.48457E+03 -3.85668E+04
  2.60442E+04 -4.75545E+04  5.33141E+04 -2.10774E+04  4.94546E+04  2.08990E+04  1.79414E+04  4.81436E+04
 -1.75614E+04  3.66441E+04 -2.77898E+04  3.22589E+03 -1.27807E+04 -3.02149E+04  2.19673E+04 -3.82516E+04
  4.63763E+04 -1.13239E+04  4.14461E+04  2.57073E+04  2.22938E+04  5.23351E+04 -8.38124E+03  5.78092E+04
 -3.69897E+04  4.00277E+04 -4.88788E+04  1.16389E+04 -4.88169E+04 -1.85926E+04 -2.71490E+04 -4.33756E+04
  7.92022E+03 -4.30859E+04  3.45947E+04 -1.77942E+04  3.39285E+04  1.12951E+04  5.94083E+03  2.22278E+04
 -1.43628E+04  9.74249E+03 -1.16723E+04 -7.34393E+03  6.45554E+03 -1.13973E+04  1.91222E+04  5.88673E+03
  1.48108E+04  2.24984E+04 -5.35517E+03  2.71857E+04 -2.35958E+04  1.48928E+04 -3.33671E+04 -2.06994E+03
 -2.69634E+04 -1.90795E+04 -1.22208E+04 -2.59027E+04  3.84263E+03 -2.76882E+04  2.13129E+04 -2.49442E+04
  3.41934E+04 -1.40956E+04  3.93909E+04  4.91001E+03  2.73937E+04  2.64312E+04  4.53888E+03  4.31012E+04
 -2.10565E+04  3.51337E+04 -3.13356E+04  1.30641E+04 -2.28204E+04 -9.95847E+03 -5.78436E+03 -1.23143E+04
  1.08938E+03 -4.15163E+02 -8.00989E+03  8.83321E+03 -2.13750E+04  4.40375E+03 -2.15538E+04 -9.88715E+03
 -1.19771E+04 -2.54051E+04  7.30304E+03 -2.92759E+04  1.99095E+04 -2.05309E+04  2.46471E+04 -1.67519E+03
  1.50776E+04  1.71182E+04 -1.63853E+03  2.46202E+04 -1.78392E+04  1.42724E+04 -2.44660E+04 -4.42472E+03
 -1.81696E+04 -2.18035E+04 -2.83514E+03 -3.02786E+04  1.38808E+04 -2.51918E+04  2.34740E+04 -1.26670E+04
  2.28969E+04 -2.10618E+02  1.69238E+04  5.33902E+03  1.01673E+04  2.48791E+03  1.24714E+04 -1.76968E+03
  2.41927E+04  3.30874E+03  2.79104E+04  1.93767E+04  1.89436E+04  3.96826E+04 -2.18883E+03  4.79767E+04
 -2.66409E+04  3.96676E+04 -4.50648E+04  2.16267E+04 -4.76858E+04 -2.95033E+03 -3.88378E+04 -2.66602E+04
 -1.53156E+04 -4.06379E+04  1.41544E+04 -3.45226E+04  3.03721E+04 -1.60102E+04  2.63606E+04  8.64269E+03
  8.07633E+03  2.06761E+04 -1.26565E+04  1.66649E+04 -2.13082E+04  2.31844E+03 -1.60392E+04 -1.40887E+04
 -7.45067E+02 -2.06367E+04  1.19834E+04 -1.52914E+04  1.38594E+04 -1.25857E+03  4.04715E+03  9.33435E+03
 -8.77013E+03  4.06287E+03 -1.00467E+04 -6.61419E+03 -2.23476E+03 -1.98484E+04  1.39037E+04 -2.18979E+04
  2.52789E+04 -1.24369E+04  2.97048E+04  3.53299E+03  2.56757E+04  1.99281E+04  1.20505E+04  3.18107E+04
 -6.65029E+03  3.41845E+04 -2.25825E+04  2.14093E+04 -2.50247E+04  3.45040E+03 -1.76729E+04 -6.71145E+03
 -6.15588E+03 -8.57741E+03 -1.54302E+03  8.81696E+02 -3.97916E+03  3.48807E+03 -7.83393E+03  5.28175E+03
 -1.58718E+04 -1.16747E+03 -1.57507E+04 -1.29804E+04 -6.98806E+03 -2.07057E+04  7.39824E+03 -1.67081E+04
  1.40970E+04 -7.46710E+03  9.20624E+03  3.77764E+03 -4.83031E+02  6.15923E+03 -8.16362E+03  8.02934E+02
 -8.03240E+03 -1.19880E+04 -4.46394E+02 -1.66380E+04  1.02589E+04 -1.82840E+04  2.19014E+04 -1.00636E+04
  2.61392E+04  2.68025E+03  1.91815E+04  1.56883E+04  3.93666E+03  2.10403E+04 -1.05585E+04  1.77319E+04
 -1.39782E+04  4.74140E+03 -7.47012E+03 -5.13383E+03  2.72663E+03 -4.40790E+03  8.61956E+03 -9.10152E+02
  7.53650E+03  8.36733E+03  2.05491E+03  1.38967E+04 -1.04380E+04  1.35056E+04 -1.75936E+04  2.75318E+03
 -1.11090E+04 -9.64259E+03  6.43341E+02 -1.45164E+04  9.50422E+03 -7.42530E+03  1.05038E+04  3.37588E+03
  2.86051E+03  1.22495E+04 -8.82501E+03  1.35083E+04 -1.57646E+04  4.76612E+03 -1.64415E+04 -6.43953E+03
 -9.20908E+03 -1.84329E+04  4.68565E+03 -2.09427E+04  1.72883E+04 -1.19928E+04  1.90723E+04  4.36896E+03
  1.06595E+04  1.46929E+04 -1.57303E+03  1.76835E+04 -1.30991E+04  1.01404E+04 -1.42869E+04 -1.78347E+03
 -1.19152E+04 -1.12485E+04 -1.33345E+03 -1.31374E+04  6.93938E+03 -1.08826E+04  7.87840E+03 -3.56182E+03
  6.87498E+03  2.45647E+03 -3.09038E+02  1.89326E+03 -1.21255E+03 -4.08645E+03  3.67261E+03 -8.58184E+03
  1.23681E+04 -5.90346E+03  1.94295E+04  1.71338E+03  1.88386E+04  1.27693E+04  1.11971E+04  2.39611E+04
 -5.42956E+03  2.72880E+04 -2.21631E+04  1.84002E+04 -2.89340E+04  3.47421E+03 -2.33848E+04 -1.02834E+04
 -1.18396E+04 -1.92988E+04 -6.06640E+02 -1.66769E+04  6.38847E+03 -1.00625E+04  6.13391E+03 -5.55010E+03
  3.39467E+03 -3.35955E+03  3.70517E+03 -3.69213E+03  6.49167E+03 -4.37998E+03  8.92533E+03 -1.63968E+03
  1.14929E+04  2.27670E+03  7.40067E+03  1.06255E+04 -3.10662E+03  1.30352E+04 -1.33178E+04  1.01434E+04
 -1.66906E+04 -9.51679E+02 -1.05671E+04 -1.17729E+04 -1.78876E+03 -1.72646E+04  1.04384E+04 -1.76397E+04
  1.97052E+04 -1.00195E+04  2.27852E+04  2.82640E+03  1.48750E+04  1.54079E+04  2.50493E+03  2.05451E+04
 -8.91653E+03  1.58868E+04 -1.20112E+04  4.82987E+03 -7.92876E+03 -1.98093E+03 -3.89440E+03 -2.85056E+03
 -1.30794E+03  1.01508E+02 -3.41499E+03  2.98561E+03 -6.52335E+03  2.39341E+03 -1.25182E+04 -2.42078E+03
 -8.42970E+03 -1.17303E+04 -1.12371E+03 -1.73934E+04  1.12788E+04 -1.64762E+04  1.75560E+04 -4.98025E+03
  1.67722E+04  8.00127E+03  7.73702E+03  1.57555E+04 -3.23887E+03  1.71457E+04 -1.20935E+04  1.06388E+04
 -1.69889E+04  8.19201E+02 -1.25163E+04 -1.03368E+04 -1.31667E+03 -1.53990E+04  7.55426E+03 -1.10709E+04
  1.07499E+04 -2.60739E+03  7.19248E+03  2.40739E+03  2.82498E+03  5.01455E+03  2.29039E+03  2.11406E+03
  2.90818E+03  1.98614E+03  4.35880E+03  2.07590E+03  5.15099E+03  6.19070E+03  4.94342E+03  9.48489E+03
 -3.76375E+03  1.41439E+04 -1.20619E+04  1.30108E+04 -1.84052E+04  2.88864E+03 -1.84171E+04 -8.16593E+03
 -9.09051E+03 -1.79515E+04  2.15012E+03 -1.94214E+04  1.12048E+04 -1.20468E+04  1.49744E+04 -2.85652E+03
  1.03030E+04  6.00646E+03  2.20174E+03  1.08109E+04 -5.17456E+03  7.00039E+03 -8.12763E+03 -1.06365E+03
 -2.04713E+03 -7.58597E+03  4.35790E+03 -8.42090E+03  7.53741E+03 -3.49967E+03  7.21726E+03  1.47166E+03
  4.33058E+03  3.73361E+03  1.74617E+03  3.77972E+03 -2.43976E+02  1.80798E+03  2.20589E+03 -1.00680E+02
  3.07632E+03 -1.20407E+03  7.04979E+03  3.32796E+03  4.72187E+03  9.30417E+03 -2.08227E+03  1.23317E+04
 -9.31479E+03  8.20127E+03 -1.22352E+04  3.39213E+03 -1.08350E+04 -4.35666E+03 -3.61290E+03 -6.85924E+03
  7.69733E+02 -6.53920E+03  4.55912E+03 -4.14691E+03  3.67684E+03  2.77838E+03 -1.89946E+03  5.89417E+03
 -7.32305E+03  4.48664E+03 -9.54630E+03 -3.94364E+03 -5.17528E+03 -1.02578E+04  1.37824E+03 -1.02376E+04
  6.73840E+03 -5.72032E+03  7.59331E+03 -7.09339E+02  6.33313E+03  2.38101E+03  6.64767E+02  5.57249E+03
 -4.33953E+03  1.93443E+03 -4.14394E+03 -4.09168E+03  1.55345E+03 -8.59683E+03  8.95949E+03 -5.72773E+03
  1.16068E+04  6.40576E+02  1.12462E+04  7.45567E+03  2.83410E+03  1.29537E+04 -4.70984E+03  1.09983E+04
 -1.10864E+04  5.22923E+03 -1.02985E+04 -1.66481E+03 -5.00349E+03 -8.36433E+03  1.44062E+03 -7.37677E+03
  7.50582E+03 -4.23491E+03  6.13595E+03  2.86383E+03  2.62737E+03  6.22680E+03 -5.26600E+02  5.93705E+03
 -2.73834E+03  3.71592E+03 -3.64783E+03  3.95772E+02 -8.83789E+02  2.27431E+03 -1.83712E+03  2.53221E+03
 -3.71287E+03  4.79387E+03 -8.62496E+03  4.88213E+03 -1.28093E+04 -8.42274E+01 -1.33045E+04 -7.87024E+03
 -7.42174E+03 -1.61392E+04  2.73091E+03 -1.86737E+04  1.14640E+04 -1.47540E+04  1.77718E+04 -5.88500E+03
  1.60688E+04  3.54390E+03  9.72707E+03  1.11911E+04  4.59015E+02  1.33207E+04 -5.73965E+03  1.03749E+04
 -7.21396E+03  2.93119E+03 -4.93086E+03 -1.63356E+03 -1.67728E+03 -9.00758E+02 -9.00353E+02 -4.23574E+02
 -1.25671E+03  7.43252E+02 -2.54688E+03 -5.75910E+02 -2.38103E+02 -2.81561E+03  8.80704E+02 -4.82406E+03
  5.67952E+03 -4.55479E+03  7.57061E+03 -8.16070E+01  9.25695E+03  7.09337E+03  1.60897E+03  1.31075E+04
 -5.99962E+03  1.44588E+04 -1.36315E+04  8.29298E+03 -1.54101E+04 -1.46170E+03 -1.10958E+04 -9.18883E+03
 -4.81197E+03 -1.20467E+04  3.41287E+03 -1.27602E+04  7.69839E+03 -7.08968E+03  9.04959E+03  3.27774E+02
  4.81514E+03  4.65019E+03 -9.11973E+02  4.18606E+03 -2.55950E+03 -1.49527E+02  4.50351E+02 -3.18159E+03
  4.49169E+03 -1.12390E+03  5.57665E+03  1.56569E+03  4.60739E+03  6.15929E+03  1.30221E+03  7.51280E+03
 -5.44161E+03  6.76921E+03 -9.27686E+03  5.28991E+02 -8.38309E+03 -6.39990E+03 -2.39608E+03 -1.09139E+04
  5.81180E+03 -9.96978E+03  9.76870E+03 -3.46223E+03  1.03081E+04  2.19449E+03  5.74317E+03  8.48055E+03
  8.98418E+02  9.12780E+03 -3.34199E+03  7.34736E+03 -5.76880E+03  3.26238E+03 -5.31408E+03  6.42555E+02
 -3.18549E+03 -2.65999E+00 -1.95354E+03  1.15842E+03 -4.14332E+03  1.68046E+03 -6.70670E+03 -9.48387E+02
 -6.82300E+03 -5.25671E+03 -1.65363E+03 -9.87262E+03  2.79485E+03 -8.55796E+03  8.31286E+03 -4.51421E+03
  8.71508E+03  1.25725E+03  5.11015E+03  7.05115E+03 -8.57122E+02  9.12816E+03 -7.54317E+03  5.50403E+03
