 $NMID ID='MM_0lb_SNR400_15hz_g50_14.RAW', FMTDAT='(8E13.5)'
 TRAMP=1., VOLUME=1. $END
  3.10484E+05  6.15570E+02  3.37654E+05  2.50827E+05  8.52573E+04  3.37892E+05 -1.32177E+05  2.50438E+05
 -1.90652E+05  8.29490E+04 -1.12149E+05 -3.29494E+04  1.43382E+03 -5.04702E+04  5.38237E+04  1.36162E+01
  3.54898E+04  5.32207E+04 -1.67643E+04  7.51073E+04 -6.11047E+04  6.35748E+04 -8.37260E+04  3.24761E+04
 -8.07229E+04 -1.18590E+04 -5.68349E+04 -5.12445E+04 -1.52118E+04 -6.94831E+04  2.73146E+04 -4.61039E+04
  3.95718E+04  3.71429E+03  1.59328E+04  4.76588E+04 -3.42863E+04  4.69964E+04 -6.69758E+04 -1.87581E+02
 -5.29147E+04 -5.66280E+04 -6.88441E+03 -7.63455E+04  3.44872E+04 -5.48406E+04  4.77896E+04 -1.74201E+04
  4.30928E+04  1.10660E+04  3.16585E+04  2.56687E+04  1.57108E+04  2.95684E+04 -5.10112E+03  2.74103E+04
 -2.22923E+04  1.23456E+04 -1.91766E+04 -4.96812E+03  5.99770E+03 -7.72544E+03  2.27639E+04  1.17136E+04
  7.86799E+03  3.48171E+04 -3.09249E+04  3.52834E+04 -6.28048E+04  2.52525E+03 -5.70816E+04 -4.17608E+04
 -1.24795E+04 -6.28188E+04  4.05440E+04 -4.48160E+04  5.78686E+04 -2.16538E+03  3.34742E+04  3.18908E+04
 -6.54650E+03  3.56601E+04 -2.94635E+04  1.52304E+04 -2.96583E+04 -4.80116E+03 -1.63436E+04 -1.08692E+04
 -8.00086E+03 -1.32205E+04 -1.07806E+03 -1.74317E+04  7.14349E+03 -2.23845E+04  1.54080E+04 -1.26747E+04
  1.09821E+04  4.46449E+03 -7.91625E+03  1.27234E+04 -2.08052E+04 -3.79001E+03 -8.37825E+03 -3.35087E+04
  2.26146E+04 -4.28343E+04  4.80093E+04 -1.93850E+04  4.46574E+04  1.87903E+04  1.57810E+04  4.35669E+04
 -1.57357E+04  3.24453E+04 -2.46408E+04  2.16239E+03 -9.68860E+03 -2.77529E+04  2.05442E+04 -3.34516E+04
  4.05478E+04 -8.96891E+03  3.48375E+04  2.38641E+04  1.76469E+04  4.54466E+04 -7.95656E+03  4.94951E+04
 -3.09848E+04  3.28795E+04 -4.15465E+04  9.12094E+03 -4.14640E+04 -1.60930E+04 -2.28561E+04 -3.68343E+04
  7.20497E+03 -3.67305E+04  3.10468E+04 -1.49075E+04  2.90047E+04  1.15118E+04  4.11414E+03  1.92348E+04
 -1.36027E+04  7.90103E+03 -1.01981E+04 -7.69435E+03  6.09701E+03 -1.08017E+04  1.80310E+04  6.25127E+03
  1.29141E+04  2.19843E+04 -6.26101E+03  2.43674E+04 -2.26823E+04  1.09268E+04 -2.77314E+04 -4.87325E+03
 -1.96098E+04 -1.72454E+04 -8.04754E+03 -1.97969E+04  4.12261E+03 -1.84729E+04  1.53340E+04 -1.78909E+04
  2.55852E+04 -1.23816E+04  3.17417E+04  2.18933E+03  2.38563E+04  1.90727E+04  3.68291E+03  3.51953E+04
 -1.71720E+04  2.94034E+04 -2.80247E+04  1.07164E+04 -2.08215E+04 -1.10252E+04 -4.83734E+03 -1.36623E+04
  2.18666E+03 -2.45024E+03 -4.06353E+03  6.05530E+03 -1.53035E+04  5.20230E+03 -1.62564E+04 -6.64188E+03
 -9.93584E+03 -1.86499E+04  4.94068E+03 -2.26918E+04  1.48476E+04 -1.56274E+04  1.73591E+04 -1.88036E+03
  1.05471E+04  1.23330E+04 -1.04093E+03  1.85434E+04 -1.20512E+04  1.09831E+04 -1.83596E+04 -3.17225E+03
 -1.34815E+04 -1.75548E+04 -1.14255E+03 -2.26279E+04  1.01083E+04 -1.81924E+04  1.87819E+04 -7.92249E+03
  1.68234E+04  4.50368E+02  1.24924E+04  4.01644E+03  6.72721E+03  8.35290E+02  9.36335E+03 -2.17912E+03
  1.69411E+04  3.40874E+03  1.81898E+04  1.45271E+04  1.17097E+04  2.91371E+04 -3.15275E+03  3.26093E+04
 -1.88867E+04  2.61393E+04 -3.00863E+04  1.32072E+04 -3.18475E+04 -2.85413E+03 -2.68215E+04 -1.75629E+04
 -1.16921E+04 -2.59223E+04  8.81208E+03 -2.41516E+04  2.04708E+04 -1.19275E+04  1.86452E+04  4.82883E+03
  6.81260E+03  1.37751E+04 -8.16207E+03  1.21832E+04 -1.59748E+04  2.08392E+03 -1.17242E+04 -9.72760E+03
 -1.29369E+02 -1.47081E+04  7.93734E+03 -1.07270E+04  9.63238E+03 -1.15583E+03  2.55713E+03  6.55832E+03
 -7.11553E+03  2.78795E+03 -5.90093E+03 -5.01097E+03 -5.59283E+02 -1.30116E+04  9.26534E+03 -1.36327E+04
  1.55461E+04 -6.30057E+03  1.64721E+04  3.23700E+03  1.43791E+04  1.25392E+04  6.59462E+03  1.95249E+04
 -3.11681E+03  2.11547E+04 -1.29787E+04  1.29078E+04 -1.45663E+04  2.90580E+03 -1.06764E+04 -3.51645E+03
 -5.38940E+03 -4.47514E+03 -1.25690E+03  1.72802E+03 -2.31529E+03  2.13666E+03 -4.70335E+03  5.08778E+03
 -1.03805E+04 -6.81231E+02 -1.04485E+04 -9.07639E+03 -4.61995E+03 -1.38273E+04  4.59016E+03 -1.08084E+04
  8.68627E+03 -4.55361E+03  6.22139E+03  3.00597E+03  1.70182E+02  3.82346E+03 -4.70871E+03 -1.29840E+02
 -5.08969E+03 -6.48377E+03 -1.05181E+03 -9.73838E+03  5.71243E+03 -1.03817E+04  1.31639E+04 -5.48681E+03
  1.55400E+04  7.75080E+02  1.23600E+04  8.42776E+03  2.10805E+03  1.15155E+04 -6.61646E+03  1.02382E+04
 -8.68853E+03  3.23755E+03 -4.98576E+03 -1.83323E+03  1.76427E+03 -2.72543E+03  6.48269E+03 -6.53541E+02
  5.17746E+03  3.90609E+03  1.51629E+03  7.83541E+03 -5.57069E+03  8.03214E+03 -1.09298E+04  1.89168E+03
 -6.87019E+03 -5.51666E+03  8.47365E+02 -8.81877E+03  4.66619E+03 -4.68764E+03  5.07931E+03  1.76551E+03
  8.95253E+02  5.46103E+03 -4.84889E+03  6.46147E+03 -7.43569E+03  2.81891E+03 -7.25511E+03 -2.39667E+03
 -4.51109E+03 -8.99857E+03  1.79957E+03 -1.04007E+04  8.79608E+03 -6.08902E+03  9.45573E+03  1.53955E+03
  6.11941E+03  7.49992E+03 -5.00155E+02  9.68148E+03 -7.26532E+03  5.70555E+03 -7.97564E+03 -5.37333E+02
 -6.70668E+03 -6.94368E+03 -1.59618E+03 -7.69696E+03  3.53955E+03 -6.26842E+03  4.17282E+03 -2.97752E+03
  3.63562E+03  1.02874E+03  7.53089E+01  1.53868E+03  8.08792E+02 -1.73526E+03  9.86567E+02 -3.57732E+03
  5.72476E+03 -2.70464E+03  8.40681E+03  1.09056E+03  8.36448E+03  5.87784E+03  6.63488E+03  1.09607E+04
 -1.81894E+03  1.25254E+04 -1.13430E+04  1.00378E+04 -1.39220E+04  1.87925E+03 -1.13131E+04 -4.12055E+03
 -5.65301E+03 -9.87340E+03 -1.76788E+02 -7.58616E+03  2.82823E+03 -3.68393E+03  2.07853E+03 -3.22450E+03
  2.41262E+03 -1.69457E+03  2.52714E+03 -2.18343E+03  3.58508E+03 -2.15209E+03  4.25022E+03 -6.99143E+02
  6.36250E+03  1.26571E+03  2.22169E+03  4.99856E+03 -1.38824E+03  4.77855E+03 -6.03690E+03  4.07473E+03
 -7.23195E+03 -1.59159E+03 -3.53407E+03 -5.06569E+03  2.45405E+02 -7.97144E+03  5.14520E+03 -8.26028E+03
  8.24217E+03 -5.11695E+03  9.97696E+03  7.56033E+02  6.96351E+03  7.08131E+03  6.13056E+02  9.21536E+03
 -3.38616E+03  7.79715E+03 -5.06045E+03  3.26238E+03 -3.58652E+03 -8.42796E+02 -1.03435E+03 -5.58359E+02
 -5.92912E+02  4.67049E+02 -1.52814E+03  2.27893E+03 -3.15576E+03  1.72228E+03 -6.16834E+03 -6.88505E+02
 -2.97702E+03 -5.85475E+03  8.13024E+02 -6.82028E+03  4.51639E+03 -6.88473E+03  7.27451E+03 -2.14926E+03
  6.78561E+03  3.80870E+03  2.77200E+03  5.79455E+03 -9.30488E+02  7.06460E+03 -4.37706E+03  3.61803E+03
 -6.40928E+03  1.03644E+03 -5.35435E+03 -4.33051E+03 -6.17340E+02 -5.78838E+03  3.11364E+03 -4.06171E+03
  3.96669E+03 -1.81133E+03  2.50666E+03  8.67319E+02  1.10379E+03  2.78143E+03  5.80925E+02  9.02793E+02
  1.52192E+03  6.71241E+02  1.96133E+03  1.47802E+03  2.12486E+03  3.19595E+03  2.37639E+03  3.87195E+03
 -1.24183E+03  5.84823E+03 -4.21850E+03  6.06576E+03 -5.93537E+03  1.92307E+03 -7.03777E+03 -2.25941E+03
 -3.06853E+03 -6.63103E+03  1.55408E+03 -7.35211E+03  3.79485E+03 -4.41908E+03  5.21216E+03 -1.64605E+03
  4.60043E+03  2.52100E+03  1.24485E+03  3.72342E+03 -1.79073E+03  2.05949E+03 -2.02447E+03 -1.12413E+02
 -1.30533E+03 -3.10982E+03  1.66071E+03 -3.34682E+03  2.67190E+03 -1.55878E+03  2.76170E+03  5.38053E+02
  1.93961E+03  5.74086E+02  1.13571E+03  8.09721E+02  1.20144E+02  1.02075E+03  1.66513E+03 -4.46924E+02
  4.14745E+02 -2.85751E+02  2.75554E+03  1.19315E+03  1.17362E+03  3.80818E+03 -5.14680E+02  4.97939E+03
 -2.32144E+03  2.01353E+03 -4.37409E+03  6.28457E+02 -3.63168E+03 -1.61645E+03 -8.91821E+02 -2.52216E+03
  1.04954E+03 -2.12061E+03  1.21436E+03 -1.11721E+03  6.87210E+02  2.04101E+03 -7.12784E+02  1.77434E+03
 -2.48303E+03  9.28656E+02 -2.73429E+03 -1.83433E+03 -1.55970E+03 -3.89549E+03  1.38623E+02 -3.22908E+03
  1.59564E+03 -1.28286E+03  1.92098E+03  7.00529E+02  2.63123E+03  3.81939E+02  5.97588E+02  2.52860E+03
 -7.58896E+02  5.20000E+02 -1.03409E+03 -7.10783E+02  8.23972E+02 -1.62835E+03  2.92900E+03 -2.08961E+03
  2.56575E+03  2.23662E+02  4.46156E+03  2.34196E+03  1.58164E+03  3.42946E+03 -8.07001E+02  3.51798E+03
 -3.24362E+03  1.23568E+03 -2.99160E+03 -2.94135E+01 -1.73367E+03 -2.61791E+03  3.38534E+02 -2.17187E+03
  2.02469E+03 -1.04503E+03  1.41656E+03  1.34668E+03  9.51284E+02  2.61680E+03  3.78279E+02  9.93022E+02
 -9.12893E+02  9.33956E+02 -1.13279E+03 -2.69413E+02 -7.81606E+01  1.12437E+01 -1.00220E+03  9.95735E+02
 -1.33907E+03  1.92658E+03 -2.51748E+03  7.05156E+02 -3.39756E+03  7.38027E+01 -4.53466E+03 -2.00173E+03
 -2.03837E+03 -4.02528E+03  1.43538E+03 -5.52505E+03  3.00255E+03 -4.45272E+03  5.15946E+03 -1.65962E+03
  4.61153E+03  7.97540E+02  2.34235E+03  2.69565E+03 -3.76104E+02  2.66654E+03 -1.40518E+03  2.59082E+03
 -2.19108E+03  1.44368E+03 -1.58751E+03 -4.32205E+02 -2.82244E+02  1.83587E+02 -2.83595E+02  3.03758E+02
 -1.25457E+03 -3.47707E+02 -9.81047E+02 -2.79797E+02 -9.55862E+00 -9.35654E+02  1.31481E+02 -1.42030E+03
  2.00125E+03 -1.45391E+03  1.41305E+03 -4.10913E+02  2.54570E+03  1.97913E+03 -1.31574E+02  3.27358E+03
 -1.91463E+03  4.16587E+03 -3.72232E+03  2.50446E+03 -3.46217E+03 -3.95615E+02 -2.67247E+03 -3.32408E+03
 -1.32642E+03 -3.23585E+03  9.21135E+02 -2.79782E+03  1.13971E+03 -1.20387E+03  1.56073E+03 -8.10208E+01
  9.14923E+02  4.51338E+02 -5.14689E+02  8.31276E+02 -5.21247E+02 -5.03035E+02  2.24615E+02 -7.64873E+02
  9.08148E+02 -2.26885E+02  9.80178E+02  6.88836E+02  3.61745E+01  8.52526E+02  4.52335E+02  1.06244E+03
 -1.21326E+03  8.00930E+02 -2.02935E+03 -3.31949E+02 -1.21652E+03 -1.37381E+03  3.51564E+02 -2.34207E+03
  1.28266E+03 -1.88174E+03  1.80082E+03 -3.42439E+02  2.02297E+03  3.59610E+02  1.30727E+03  1.61423E+03
  4.91659E+01  1.67763E+03 -5.59195E+02  1.46918E+03 -9.83626E+02  1.24006E+03 -5.92470E+02  6.57344E+02
 -7.03346E+02 -5.20089E+02 -8.20981E+02  4.18913E+02 -1.20076E+03  8.75289E+02 -1.37941E+03 -5.53553E+02
 -1.27437E+03 -3.36494E+02 -8.27031E+02 -1.98145E+03  1.32375E+03 -2.19430E+03  1.27743E+03 -7.39458E+02
  2.35270E+03  6.92300E+01  6.29376E+02  1.13334E+03  3.16289E+02  2.35295E+03 -1.35940E+03  1.74888E+03
